# Simple Text Format
# Sampling Rate (Hz):= 1200.00
# Resolution:= 12
# Labels:= ECG	 V4
# Age:=	66
# Gender:=	Masculino
0
0
0
0
0
0
0
0
0
0
0
0
0
0
0
0
0
0
0
0
0
0
0
0
0
0
0
0
0
0
0
0
0
0
0
0
0
0
0
0
0
0
0
0
0
0
0
0
0
0
0
0
0
0
0
0
0
0
0
0
0
0
0
0
0
0
0
0
0
0
0
0
0
0
0
0
0
0
0
0
0
0
0
0
0
0
0
0
0
0
0
0
0
0
0
0
0
0
0
0
0
0
0
0
0
0
0
0
0
0
0
0
0
0
0
0
0
0
0
0
0
0
0
0
0
0
0
0
0
0
0
0
0
0
0
0
0
0
0
0
0
0
0
0
0
0
0
0
0
0
0
0
0
0
0
0
0
0
0
0
0
0
0
0
0
0
0
0
0
0
0
0
0
0
0
0
0
0
0
0
0
0
0
0
0
0
0
0
0
0
0
0
0
0
0
0
0
0
0
0
0
0
0
0
0
0
0
0
0
0
0
0
0
0
0
0
0
0
0
0
0
0
0
0
0
0
0
0
0
0
0
0
0
0
0
0
0
0
0
0
0
0
0
0
0
0
0
0
0
0
0
0
0
0
0
0
0
0
0
0
0
0
0
0
0
0
0
0
0
0
0
0
0
0
0
0
0
0
0
0
0
0
0
0
0
0
0
0
0
0
0
0
0
0
0
0
0
0
0
0
0
0
0
0
0
0
0
0
0
0
0
0
0
0
0
0
0
0
0
0
0
0
0
0
0
0
0
0
0
0
0
0
0
0
0
0
0
0
0
0
0
0
0
0
0
0
0
0
0
0
0
0
0
0
0
0
0
0
0
0
0
0
0
0
0
0
0
0
0
0
0
0
0
0
0
0
0
0
0
0
0
0
0
0
0
0
0
0
0
0
0
0
0
0
0
0
0
0
0
0
0
0
0
0
0
0
0
0
0
0
0
0
0
0
0
0
0
0
0
0
0
0
0
0
0
0
0
0
0
0
0
0
0
0
0
0
0
0
0
0
0
0
0
0
0
0
0
0
0
0
0
0
0
0
0
0
0
0
0
0
0
0
0
0
0
0
0
0
0
0
0
0
0
0
0
0
0
0
0
0
0
0
0
0
0
0
0
0
0
0
0
0
0
0
0
0
0
0
0
0
0
0
0
0
0
0
0
0
0
0
0
0
0
0
0
-1
0
0
0
0
-1
-1
0
0
0
0
-1
0
-1
-1
0
0
-1
0
-1
-1
-1
0
0
-1
-2
-2
-1
-1
-1
-1
-2
-2
-3
-2
-2
-2
-2
-2
-3
-3
-3
-2
-2
-2
-3
-4
-4
-3
-3
-3
-3
-4
-5
-4
-3
-3
-3
-4
-4
-4
-4
-4
-3
-3
-4
-4
-5
-4
-3
-3
-4
-4
-4
-5
-3
-4
-4
-5
-6
-6
-6
-6
-5
-6
-6
-7
-8
-7
-7
-7
-7
-8
-8
-8
-8
-7
-8
-8
-9
-9
-8
-8
-7
-8
-8
-9
-9
-7
-7
-7
-7
-7
-7
-7
-6
-6
-6
-6
-7
-6
-6
-4
-4
-4
-4
-4
-4
-3
-3
-3
-4
-4
-4
-3
-3
-2
-2
-2
-3
-2
-2
-2
-2
-2
-2
-2
-2
-2
-1
-1
-1
-3
-2
-2
-2
-1
-2
-3
-3
-3
-3
-3
-3
-3
-4
-5
-5
-5
-5
-5
-6
-8
-8
-8
-8
-7
-8
-8
-9
-9
-9
-9
-9
-10
-10
-10
-10
-10
-10
-10
-10
-10
-10
-11
-10
-10
-10
-11
-11
-11
-11
-11
-11
-12
-12
-12
-12
-12
-12
-12
-13
-13
-13
-13
-13
-12
-13
-14
-14
-13
-13
-13
-13
-13
-13
-13
-13
-12
-12
-11
-11
-12
-12
-11
-10
-10
-11
-11
-12
-12
-12
-12
-12
-12
-13
-14
-15
-14
-14
-14
-16
-15
-15
-15
-15
-15
-15
-15
-15
-14
-14
-13
-13
-13
-13
-13
-13
-12
-12
-12
-13
-13
-13
-12
-12
-11
-12
-12
-12
-12
-11
-11
-11
-11
-12
-11
-11
-11
-11
-12
-12
-12
-12
-12
-11
-11
-11
-12
-12
-12
-12
-12
-11
-12
-12
-12
-13
-12
-12
-12
-13
-13
-13
-13
-12
-13
-13
-13
-13
-13
-13
-13
-13
-13
-13
-14
-13
-14
-14
-13
-14
-15
-15
-15
-14
-14
-14
-14
-14
-14
-14
-14
-14
-15
-14
-15
-15
-15
-14
-14
-14
-15
-15
-15
-13
-13
-13
-12
-12
-11
-9
-7
-5
-2
2
6
12
18
26
34
42
51
63
75
89
103
118
133
149
167
186
205
226
245
266
286
306
326
345
362
379
394
407
419
428
435
438
438
433
426
413
398
377
354
327
298
266
232
197
160
122
83
46
11
-23
-56
-88
-115
-141
-162
-180
-195
-207
-215
-220
-221
-221
-217
-212
-205
-196
-188
-177
-166
-154
-142
-131
-122
-111
-102
-93
-83
-76
-69
-63
-56
-51
-47
-42
-39
-36
-34
-32
-29
-27
-25
-24
-24
-23
-23
-22
-21
-21
-21
-22
-23
-23
-22
-22
-23
-23
-23
-23
-23
-23
-23
-23
-23
-23
-23
-22
-22
-21
-21
-22
-21
-20
-20
-18
-18
-18
-18
-18
-16
-16
-15
-15
-15
-15
-14
-14
-13
-13
-13
-13
-13
-13
-13
-12
-13
-14
-14
-14
-13
-13
-14
-14
-14
-14
-14
-14
-14
-14
-15
-14
-14
-14
-14
-13
-12
-13
-13
-13
-12
-10
-10
-10
-10
-10
-9
-8
-7
-6
-7
-6
-6
-5
-4
-3
-3
-3
-2
-2
-1
0
1
1
2
1
2
3
5
5
5
6
6
7
8
8
9
8
9
10
11
12
13
13
14
15
16
17
17
18
19
19
21
22
23
24
25
26
26
28
30
31
32
33
34
34
36
37
39
41
41
42
43
44
46
48
48
50
50
51
53
54
55
55
55
57
57
58
59
59
60
60
60
61
62
63
63
63
63
64
64
66
67
67
66
66
67
67
68
69
68
68
68
68
70
69
69
69
67
67
68
68
68
67
66
65
65
65
64
64
62
62
61
61
60
61
60
60
58
58
59
58
58
57
56
56
56
55
55
54
53
51
50
50
49
48
47
45
44
43
42
41
40
38
37
36
34
33
32
31
29
27
26
24
24
23
21
19
17
17
16
15
15
13
12
11
10
10
9
8
7
6
5
4
4
4
3
2
1
0
0
-1
-1
-1
-2
-3
-3
-3
-3
-4
-5
-6
-6
-6
-5
-6
-6
-7
-8
-8
-7
-7
-7
-8
-8
-9
-9
-7
-7
-8
-8
-8
-9
-8
-8
-7
-8
-9
-9
-8
-8
-8
-8
-8
-8
-8
-8
-8
-8
-8
-8
-8
-8
-8
-7
-7
-8
-8
-8
-8
-8
-7
-7
-7
-7
-6
-6
-6
-6
-6
-6
-7
-6
-6
-6
-5
-5
-5
-6
-6
-6
-4
-5
-5
-5
-6
-6
-5
-6
-6
-6
-7
-7
-7
-7
-7
-7
-9
-9
-10
-10
-10
-9
-10
-11
-11
-11
-11
-11
-11
-12
-13
-13
-12
-12
-12
-12
-13
-13
-13
-12
-13
-12
-12
-13
-13
-12
-12
-12
-12
-13
-13
-13
-13
-13
-13
-13
-14
-14
-15
-15
-13
-14
-15
-15
-15
-15
-14
-14
-14
-14
-14
-14
-14
-13
-13
-12
-13
-13
-12
-12
-11
-11
-11
-11
-12
-11
-10
-10
-10
-10
-10
-11
-10
-10
-10
-10
-11
-12
-11
-11
-12
-11
-11
-12
-13
-13
-12
-13
-12
-12
-13
-12
-12
-12
-11
-11
-11
-12
-10
-10
-9
-8
-8
-8
-7
-7
-6
-5
-5
-4
-4
-4
-3
-1
-1
0
0
-1
0
1
2
2
3
3
3
4
4
5
4
5
5
5
6
5
6
6
6
6
6
7
6
7
7
6
6
6
6
6
6
5
5
4
4
4
5
4
3
2
2
2
1
1
0
0
-1
-2
-1
-1
-2
-3
-3
-3
-4
-3
-4
-5
-5
-6
-6
-6
-6
-6
-7
-7
-8
-8
-8
-8
-9
-9
-10
-11
-10
-10
-10
-10
-12
-11
-12
-12
-12
-12
-12
-13
-13
-13
-12
-12
-13
-13
-14
-15
-14
-14
-14
-15
-15
-15
-15
-14
-14
-15
-15
-15
-14
-15
-14
-14
-14
-14
-14
-14
-13
-13
-12
-12
-12
-12
-12
-11
-11
-11
-11
-10
-10
-10
-10
-10
-9
-9
-8
-7
-6
-4
-1
2
4
9
15
21
28
35
43
52
61
72
85
98
113
128
144
160
178
197
217
236
256
276
297
317
337
355
373
388
402
415
426
433
438
438
436
429
419
405
386
365
339
310
279
247
212
176
137
99
61
26
-9
-43
-76
-105
-132
-155
-175
-190
-203
-212
-218
-221
-221
-218
-214
-207
-198
-189
-179
-168
-155
-144
-132
-122
-112
-101
-92
-81
-73
-65
-59
-53
-48
-42
-38
-34
-31
-29
-27
-25
-23
-21
-20
-20
-19
-19
-18
-17
-17
-17
-17
-18
-18
-17
-16
-16
-16
-17
-17
-17
-15
-15
-15
-15
-15
-15
-14
-14
-13
-14
-13
-13
-12
-12
-12
-11
-11
-11
-11
-11
-11
-10
-10
-11
-11
-11
-10
-10
-11
-10
-12
-11
-11
-11
-10
-11
-11
-12
-12
-12
-11
-11
-11
-11
-11
-11
-10
-10
-9
-10
-9
-10
-10
-9
-10
-9
-9
-10
-10
-10
-9
-9
-9
-9
-9
-9
-9
-9
-8
-8
-8
-8
-8
-7
-6
-5
-6
-6
-5
-4
-3
-2
-2
-2
-2
-1
0
0
1
1
1
2
2
4
5
5
6
6
7
9
10
11
13
13
14
16
17
19
20
22
23
24
25
27
29
30
31
31
32
33
35
36
37
38
38
39
40
41
42
43
43
43
45
46
48
49
49
50
52
53
55
57
58
59
61
62
65
66
69
70
71
72
74
77
78
79
81
82
83
85
87
88
89
89
90
92
92
94
96
96
97
97
98
99
100
101
100
100
101
101
102
103
102
102
102
102
102
102
102
102
101
101
101
100
99
99
97
96
94
94
93
91
89
86
84
83
81
79
76
73
70
68
66
64
62
59
56
53
51
49
47
45
42
40
37
35
34
32
30
28
26
24
22
21
20
18
18
15
14
13
11
10
9
8
6
5
4
3
2
1
-1
-2
-2
-4
-4
-5
-6
-7
-7
-8
-9
-9
-10
-11
-12
-13
-13
-13
-13
-13
-14
-15
-14
-14
-15
-15
-15
-15
-15
-14
-14
-14
-14
-14
-14
-14
-15
-15
-14
-14
-15
-14
-15
-13
-14
-14
-14
-14
-14
-14
-13
-12
-12
-13
-13
-13
-12
-12
-12
-13
-14
-13
-13
-12
-13
-13
-13
-15
-16
-15
-14
-15
-16
-16
-17
-17
-16
-16
-15
-16
-16
-17
-17
-16
-16
-16
-17
-18
-18
-18
-18
-18
-18
-20
-20
-20
-20
-20
-20
-21
-22
-22
-23
-22
-21
-21
-22
-22
-22
-22
-21
-21
-20
-21
-21
-21
-20
-19
-19
-18
-18
-18
-17
-16
-15
-14
-14
-13
-12
-10
-8
-5
-3
-1
3
8
14
21
28
36
45
55
67
78
93
107
122
139
156
174
193
213
232
253
273
294
314
334
353
370
384
398
409
418
424
427
426
421
412
399
382
360
335
306
274
239
204
167
128
89
50
11
-25
-62
-95
-125
-154
-178
-199
-216
-228
-237
-243
-245
-245
-240
-234
-225
-215
-205
-192
-180
-167
-153
-139
-127
-115
-104
-92
-83
-72
-64
-58
-51
-46
-40
-36
-31
-28
-25
-23
-21
-19
-18
-17
-16
-15
-16
-16
-15
-15
-15
-15
-16
-16
-16
-15
-15
-14
-15
-14
-15
-14
-13
-12
-11
-12
-12
-12
-11
-11
-9
-9
-9
-9
-10
-9
-9
-8
-8
-9
-9
-8
-8
-7
-7
-8
-8
-8
-7
-6
-6
-5
-6
-6
-5
-5
-4
-4
-4
-3
-3
-3
-3
-2
-2
-2
-2
-2
-2
-1
-1
-1
-1
-2
-2
0
0
0
0
0
0
1
2
1
1
1
2
2
1
3
2
2
2
2
3
3
3
4
3
3
3
4
4
5
6
5
5
5
6
7
8
8
8
8
8
9
11
11
12
11
12
13
14
16
16
16
16
17
18
18
19
19
20
21
21
22
23
23
24
25
25
27
28
29
30
30
31
32
33
34
36
36
37
39
40
41
43
44
46
47
48
49
52
54
55
56
57
57
60
61
62
63
64
65
66
68
69
70
69
71
71
72
73
75
75
75
75
76
77
78
78
78
78
79
79
80
81
81
81
81
81
81
82
82
82
81
81
81
81
80
80
79
78
77
76
76
75
74
72
71
69
68
67
65
64
61
59
58
56
54
53
50
47
45
43
42
40
38
36
33
31
29
28
27
25
23
21
19
18
17
15
14
11
11
10
8
8
7
5
4
2
1
2
1
0
-2
-3
-4
-5
-5
-5
-7
-8
-9
-9
-9
-10
-10
-11
-13
-13
-13
-13
-13
-13
-15
-15
-16
-16
-16
-16
-17
-18
-19
-19
-18
-19
-20
-20
-20
-20
-21
-20
-21
-21
-22
-22
-22
-22
-21
-22
-22
-22
-23
-22
-22
-21
-22
-21
-22
-23
-23
-21
-21
-23
-23
-23
-24
-23
-23
-23
-24
-24
-24
-24
-24
-24
-23
-24
-24
-24
-24
-23
-22
-22
-22
-23
-22
-22
-21
-21
-21
-21
-21
-20
-19
-18
-18
-18
-18
-18
-16
-15
-14
-14
-13
-13
-13
-12
-10
-10
-9
-10
-10
-8
-8
-7
-7
-7
-8
-8
-7
-7
-7
-7
-8
-8
-8
-7
-7
-7
-8
-8
-8
-8
-7
-6
-6
-7
-7
-7
-6
-6
-5
-5
-5
-5
-5
-4
-3
-4
-3
-4
-4
-4
-3
-3
-3
-4
-3
-4
-4
-4
-4
-4
-5
-5
-5
-4
-4
-5
-6
-6
-6
-7
-6
-6
-6
-6
-8
-8
-7
-7
-7
-8
-8
-8
-8
-8
-8
-8
-9
-10
-10
-11
-10
-11
-11
-12
-12
-13
-12
-13
-13
-13
-14
-15
-16
-16
-15
-16
-17
-17
-18
-18
-19
-19
-19
-19
-21
-20
-20
-20
-19
-20
-20
-21
-21
-20
-20
-20
-20
-20
-21
-21
-20
-20
-20
-22
-22
-22
-21
-21
-21
-22
-22
-22
-22
-22
-22
-22
-23
-23
-23
-22
-22
-22
-22
-22
-23
-23
-23
-23
-22
-23
-23
-24
-24
-24
-23
-23
-24
-24
-25
-25
-25
-25
-25
-26
-27
-26
-26
-26
-25
-26
-26
-27
-27
-26
-26
-26
-26
-28
-27
-27
-26
-27
-27
-27
-27
-26
-26
-25
-25
-25
-25
-25
-25
-24
-24
-23
-24
-24
-24
-24
-24
-23
-23
-24
-23
-23
-23
-23
-23
-23
-23
-24
-23
-23
-23
-23
-23
-24
-23
-24
-23
-24
-24
-24
-25
-25
-24
-24
-24
-24
-24
-23
-22
-20
-17
-15
-12
-8
-4
2
7
16
24
32
42
53
65
78
92
107
121
137
154
172
190
207
226
244
262
279
296
312
327
340
350
359
368
372
375
375
370
361
350
335
317
295
269
243
212
181
148
115
79
44
9
-26
-58
-89
-118
-145
-170
-192
-209
-223
-235
-242
-248
-251
-250
-247
-242
-235
-226
-217
-207
-196
-184
-172
-159
-148
-138
-127
-117
-108
-98
-90
-82
-76
-70
-65
-59
-54
-51
-48
-45
-43
-41
-39
-36
-35
-34
-35
-34
-33
-32
-32
-32
-33
-32
-32
-32
-32
-32
-32
-33
-33
-32
-31
-31
-31
-32
-32
-32
-31
-30
-30
-31
-31
-30
-30
-30
-29
-29
-29
-28
-28
-27
-26
-26
-26
-25
-26
-26
-24
-23
-23
-22
-23
-22
-22
-21
-20
-20
-20
-19
-19
-19
-18
-17
-17
-17
-18
-18
-17
-17
-17
-16
-17
-17
-17
-17
-17
-17
-17
-16
-16
-16
-16
-15
-16
-16
-16
-16
-15
-14
-14
-14
-13
-12
-12
-11
-10
-10
-9
-9
-8
-6
-6
-5
-4
-3
-3
-2
-1
0
1
1
2
3
3
4
5
6
6
7
7
9
9
10
10
11
11
11
11
12
13
13
13
14
15
16
18
18
18
19
20
21
23
24
25
26
27
27
29
30
31
32
32
34
35
36
37
38
39
39
40
41
43
43
44
44
45
46
48
49
50
50
50
51
52
54
54
56
56
57
57
59
59
60
60
61
61
62
62
63
63
63
63
63
63
64
64
65
64
63
64
64
65
64
64
63
62
62
62
62
61
60
59
58
57
57
56
55
53
52
51
50
48
48
46
44
42
40
39
38
35
33
31
28
27
26
24
23
21
19
17
16
16
14
13
12
11
12
11
11
10
9
8
8
8
8
8
7
7
6
5
4
5
4
3
2
1
-1
-1
-2
-3
-4
-6
-6
-7
-8
-8
-10
-11
-12
-13
-13
-13
-14
-15
-16
-17
-17
-18
-18
-19
-19
-21
-21
-21
-21
-21
-22
-22
-23
-23
-22
-22
-21
-22
-23
-23
-23
-23
-23
-23
-24
-24
-25
-25
-25
-25
-25
-26
-27
-27
-27
-27
-28
-28
-29
-31
-30
-31
-31
-31
-32
-33
-34
-33
-33
-33
-33
-33
-34
-34
-33
-33
-33
-32
-34
-34
-33
-33
-33
-34
-35
-35
-36
-36
-36
-36
-37
-37
-38
-39
-39
-40
-39
-40
-42
-42
-43
-43
-43
-43
-44
-46
-46
-46
-45
-45
-46
-46
-47
-47
-46
-47
-46
-45
-45
-46
-46
-45
-44
-44
-43
-44
-43
-42
-41
-40
-39
-38
-38
-37
-36
-34
-33
-32
-32
-31
-30
-29
-27
-27
-26
-26
-25
-24
-23
-22
-22
-22
-21
-20
-19
-18
-18
-18
-18
-17
-16
-15
-15
-14
-14
-13
-13
-12
-11
-11
-10
-10
-10
-8
-7
-7
-7
-6
-7
-7
-5
-5
-5
-5
-5
-5
-5
-5
-5
-4
-5
-5
-6
-6
-6
-6
-5
-6
-6
-7
-7
-7
-7
-7
-8
-8
-9
-9
-9
-9
-9
-10
-10
-10
-10
-10
-11
-11
-12
-12
-13
-13
-12
-12
-13
-13
-13
-14
-14
-13
-13
-14
-14
-14
-14
-14
-13
-14
-15
-14
-15
-14
-14
-15
-15
-16
-16
-17
-17
-17
-17
-18
-19
-20
-19
-20
-21
-21
-22
-23
-23
-23
-24
-25
-26
-27
-28
-29
-28
-28
-29
-29
-31
-31
-30
-30
-30
-30
-31
-31
-30
-30
-29
-29
-29
-29
-28
-27
-26
-25
-25
-26
-25
-25
-24
-23
-23
-22
-23
-23
-23
-22
-22
-22
-22
-22
-21
-22
-20
-21
-21
-21
-21
-21
-21
-21
-21
-21
-21
-21
-22
-21
-21
-21
-22
-23
-22
-22
-22
-21
-21
-22
-22
-22
-21
-20
-20
-21
-21
-21
-21
-19
-20
-19
-19
-19
-20
-19
-18
-19
-18
-18
-19
-19
-18
-17
-17
-18
-18
-19
-19
-18
-17
-18
-18
-18
-18
-19
-18
-18
-18
-20
-19
-20
-20
-19
-20
-20
-21
-22
-22
-22
-21
-21
-22
-22
-23
-23
-23
-22
-22
-23
-22
-23
-23
-22
-22
-22
-24
-24
-24
-24
-24
-24
-25
-25
-26
-26
-26
-27
-28
-28
-29
-29
-30
-30
-30
-30
-32
-32
-32
-32
-32
-33
-34
-34
-33
-34
-33
-33
-33
-33
-34
-33
-32
-32
-31
-32
-31
-31
-30
-30
-29
-29
-29
-29
-29
-29
-28
-28
-28
-28
-29
-28
-28
-27
-27
-28
-28
-28
-28
-27
-27
-27
-27
-27
-27
-26
-26
-25
-26
-26
-25
-25
-24
-23
-23
-24
-24
-24
-23
-23
-23
-22
-23
-23
-23
-21
-20
-19
-17
-17
-14
-11
-6
-2
4
8
14
22
30
40
50
61
72
85
100
115
131
148
165
182
201
221
240
260
280
298
315
332
348
362
376
387
394
400
404
404
402
395
384
369
350
328
303
276
246
214
178
143
106
71
36
0
-36
-68
-99
-128
-152
-175
-194
-211
-223
-232
-238
-240
-240
-238
-234
-227
-219
-209
-199
-188
-178
-166
-155
-143
-132
-122
-113
-104
-97
-89
-81
-74
-69
-64
-60
-56
-53
-50
-48
-47
-45
-45
-44
-42
-42
-42
-42
-42
-42
-43
-41
-41
-41
-42
-43
-43
-43
-41
-41
-40
-41
-41
-41
-40
-38
-37
-37
-37
-36
-35
-34
-33
-32
-31
-31
-30
-30
-29
-29
-28
-28
-29
-28
-27
-27
-26
-26
-26
-27
-26
-26
-24
-25
-24
-25
-26
-25
-24
-24
-24
-24
-24
-24
-23
-22
-22
-22
-22
-22
-21
-21
-20
-19
-20
-19
-19
-19
-18
-18
-17
-17
-17
-16
-16
-16
-15
-15
-15
-15
-14
-14
-12
-11
-12
-11
-11
-10
-9
-9
-9
-8
-7
-7
-6
-5
-4
-4
-4
-3
-2
-1
0
1
2
1
3
3
4
5
6
6
7
7
8
9
10
10
11
12
12
14
15
16
16
16
16
17
18
19
19
20
19
20
21
22
23
23
23
23
25
26
27
28
29
29
29
31
32
33
35
34
35
37
38
40
42
42
43
44
46
48
50
51
52
53
55
56
58
60
61
62
62
62
64
65
66
66
66
66
67
68
68
68
68
68
67
68
68
68
68
68
67
67
68
68
68
67
67
67
67
68
67
68
68
66
66
67
66
66
66
66
64
64
64
64
63
62
61
61
60
59
58
57
55
53
52
50
49
47
45
44
41
40
38
37
35
33
31
30
28
26
24
23
23
20
19
18
16
16
14
12
10
9
8
8
6
5
4
2
1
1
0
-2
-2
-4
-5
-6
-6
-6
-8
-9
-10
-11
-11
-12
-12
-12
-14
-13
-14
-14
-14
-14
-15
-16
-16
-16
-17
-16
-17
-18
-19
-19
-20
-20
-20
-20
-22
-21
-22
-22
-21
-22
-23
-23
-24
-24
-24
-23
-24
-24
-25
-25
-24
-24
-24
-24
-25
-24
-25
-24
-24
-24
-25
-25
-25
-24
-24
-25
-25
-25
-26
-26
-25
-25
-25
-25
-25
-26
-25
-24
-24
-23
-23
-24
-23
-22
-21
-20
-20
-19
-18
-16
-15
-12
-10
-7
-3
1
7
12
19
28
36
45
56
68
81
95
110
126
144
162
181
202
222
243
264
284
304
324
342
358
373
384
395
402
408
409
406
400
390
377
357
336
309
280
245
210
172
133
94
54
13
-26
-64
-100
-132
-164
-193
-217
-239
-256
-269
-278
-283
-284
-282
-277
-270
-259
-247
-233
-219
-205
-189
-173
-158
-143
-129
-116
-104
-91
-80
-69
-61
-53
-47
-41
-35
-30
-26
-22
-20
-18
-17
-15
-13
-13
-12
-13
-13
-13
-13
-13
-13
-14
-14
-15
-14
-14
-14
-14
-14
-15
-14
-14
-14
-13
-14
-13
-14
-13
-12
-12
-12
-11
-11
-10
-10
-9
-9
-8
-8
-8
-7
-7
-6
-6
-6
-6
-6
-6
-5
-5
-5
-5
-6
-6
-5
-5
-4
-4
-4
-4
-5
-3
-3
-2
-2
-2
-3
-1
-1
0
0
0
0
1
1
1
2
3
2
2
2
3
3
3
3
3
3
4
4
5
6
6
6
6
7
8
8
9
10
11
12
11
13
14
14
14
14
15
16
17
18
18
18
17
18
19
20
20
20
20
20
21
22
22
22
22
23
23
25
25
26
27
27
28
29
31
31
32
33
34
35
37
38
40
41
42
43
44
47
48
50
50
51
53
54
55
57
58
59
60
61
63
64
66
67
68
69
70
71
73
74
75
76
77
78
80
82
82
83
84
86
87
88
90
90
91
91
92
94
94
95
95
95
95
96
97
97
97
98
97
96
98
98
98
97
97
96
96
96
97
97
96
96
95
95
95
94
94
92
92
91
90
90
89
87
85
83
82
81
80
79
76
74
72
71
69
68
66
63
60
59
57
56
54
51
49
46
45
43
42
40
37
36
34
33
30
29
28
25
24
23
21
20
19
17
15
13
12
11
10
10
8
7
6
6
5
5
5
4
3
4
3
3
4
3
2
2
2
2
3
3
2
2
1
1
1
1
0
0
-1
-2
-2
-2
-3
-3
-5
-5
-5
-6
-5
-6
-7
-7
-7
-7
-7
-7
-7
-7
-7
-8
-7
-7
-7
-6
-7
-7
-7
-7
-6
-6
-6
-6
-6
-6
-5
-5
-6
-6
-6
-6
-6
-5
-5
-5
-6
-6
-7
-6
-6
-5
-6
-6
-6
-6
-6
-6
-6
-6
-6
-7
-5
-5
-5
-5
-6
-6
-6
-5
-5
-5
-6
-6
-5
-5
-4
-3
-3
-4
-4
-4
-3
-3
-2
-2
-3
-2
-2
-2
-1
-1
-2
-2
-2
-1
0
-1
-1
-1
-1
-1
-1
0
0
0
0
-1
0
0
1
1
0
0
0
2
2
2
2
2
1
1
2
2
2
2
1
1
1
2
2
1
1
0
0
0
1
1
1
1
0
0
2
2
1
1
1
0
0
0
0
0
0
-2
-2
-2
-1
-1
-1
-1
-2
-2
-2
0
0
0
0
0
0
2
3
3
3
3
3
4
4
4
4
4
4
3
3
4
3
2
1
0
0
-1
0
0
-1
-2
-2
-2
-2
-2
-2
-4
-4
-4
-3
-3
-4
-4
-5
-4
-5
-4
-4
-4
-5
-5
-6
-6
-5
-5
-5
-5
-6
-6
-6
-5
-5
-6
-7
-6
-6
-7
-6
-6
-7
-8
-8
-8
-8
-7
-8
-8
-9
-9
-9
-9
-9
-10
-11
-10
-10
-10
-10
-10
-12
-12
-12
-12
-12
-12
-12
-14
-14
-14
-14
-14
-14
-14
-15
-15
-16
-15
-16
-16
-16
-17
-17
-16
-16
-16
-16
-16
-17
-17
-16
-16
-15
-16
-16
-16
-16
-15
-14
-14
-15
-15
-15
-14
-13
-13
-13
-13
-13
-13
-13
-13
-13
-12
-14
-13
-13
-13
-12
-12
-13
-13
-14
-13
-12
-12
-13
-13
-13
-12
-12
-12
-11
-12
-11
-11
-11
-11
-10
-10
-11
-11
-11
-10
-10
-9
-9
-10
-10
-10
-10
-9
-10
-10
-10
-10
-9
-9
-8
-8
-8
-9
-8
-8
-7
-6
-7
-7
-7
-7
-7
-6
-6
-7
-7
-8
-7
-8
-7
-8
-9
-10
-9
-10
-9
-10
-10
-10
-10
-10
-10
-10
-10
-10
-11
-10
-11
-10
-10
-10
-10
-10
-10
-10
-9
-8
-8
-9
-9
-9
-9
-9
-8
-8
-8
-9
-9
-9
-9
-9
-9
-10
-9
-9
-8
-6
-5
-5
-2
0
3
7
11
17
22
30
37
47
57
69
80
93
107
122
139
156
173
192
211
230
251
273
293
313
331
351
369
385
401
414
425
433
439
442
443
439
430
417
399
379
355
329
299
267
232
196
158
120
82
45
7
-29
-62
-94
-121
-146
-168
-187
-203
-215
-223
-228
-229
-230
-227
-221
-215
-205
-195
-184
-173
-162
-150
-137
-125
-113
-103
-94
-84
-76
-67
-60
-53
-47
-43
-38
-34
-30
-26
-25
-22
-20
-19
-17
-15
-15
-14
-14
-14
-13
-13
-13
-12
-13
-14
-14
-14
-13
-13
-13
-14
-15
-15
-14
-13
-13
-14
-14
-13
-14
-13
-12
-12
-11
-12
-13
-12
-11
-10
-10
-10
-10
-10
-9
-9
-8
-8
-8
-8
-8
-6
-6
-5
-4
-4
-4
-3
-2
-1
-1
-1
0
0
1
3
2
3
3
4
4
4
5
5
6
6
6
6
8
8
8
9
9
9
9
10
11
11
11
11
11
11
12
12
11
11
11
11
12
13
12
12
12
12
13
13
14
15
14
14
15
15
16
16
17
16
17
17
18
18
19
19
19
20
20
21
21
22
21
22
23
25
26
26
27
27
27
28
29
31
32
32
33
34
35
36
37
38
37
38
39
40
41
42
41
42
42
43
44
46
46
46
47
47
48
50
51
52
51
52
52
54
55
57
56
56
57
58
59
61
61
62
62
63
64
66
66
68
67
68
69
70
72
72
73
73
74
75
75
77
76
76
77
77
78
78
78
78
77
77
76
77
77
76
75
75
73
73
73
73
72
71
70
70
69
69
69
68
66
66
65
64
64
63
61
60
59
58
58
56
55
54
53
51
50
49
48
46
45
42
41
40
39
38
36
35
33
32
31
30
29
27
26
25
24
24
23
22
21
20
20
20
20
19
19
17
16
17
17
17
17
15
15
15
15
15
16
15
13
13
13
14
14
14
13
12
13
13
13
12
12
12
10
10
11
11
11
10
8
8
7
7
8
7
5
5
4
3
3
3
2
2
1
1
1
1
1
0
1
0
0
0
0
-1
0
-1
-1
-1
0
-1
-1
0
-1
-1
0
0
-1
-1
-1
-1
-1
-2
-2
-2
-1
-2
-2
-2
-2
-2
-2
-3
-2
-3
-4
-2
-3
-3
-4
-4
-4
-4
-3
-4
-4
-4
-4
-4
-5
-4
-4
-5
-4
-4
-5
-3
-4
-4
-3
-3
-2
-2
-1
-1
-1
-1
-1
0
0
0
0
0
1
1
2
3
3
4
5
5
8
10
13
17
21
25
32
39
47
55
65
75
87
99
114
129
145
161
179
195
215
235
255
274
293
311
328
345
360
373
383
390
395
397
397
392
383
368
349
326
300
270
238
203
166
129
90
53
16
-21
-57
-92
-123
-152
-177
-197
-214
-227
-236
-241
-242
-239
-233
-225
-216
-204
-191
-176
-161
-145
-130
-116
-101
-87
-73
-61
-50
-40
-31
-22
-15
-8
-3
1
4
6
9
12
13
15
15
15
16
15
16
16
15
15
13
13
12
12
12
11
10
9
9
8
9
9
8
7
7
7
7
8
9
8
7
6
7
8
9
8
8
7
8
8
9
9
8
8
8
8
9
9
9
9
8
8
8
10
10
10
10
10
10
10
11
12
12
12
12
12
13
13
13
14
14
13
14
14
15
15
14
14
14
13
14
15
14
13
14
14
14
14
15
15
14
15
15
16
15
15
15
15
15
16
16
17
17
17
16
16
17
18
18
18
17
18
19
19
20
20
20
20
21
21
23
23
24
24
24
26
27
28
29
31
30
31
33
35
36
37
38
38
40
41
42
43
44
45
46
47
48
50
51
52
52
53
54
55
56
57
58
57
59
60
62
63
65
66
67
69
70
72
74
75
76
78
80
81
83
84
86
86
87
89
90
91
91
91
93
93
94
93
95
94
94
93
93
94
94
93
93
91
92
92
92
92
91
90
90
89
89
89
89
88
86
86
85
85
85
84
82
81
79
79
78
77
76
75
73
72
71
70
69
67
66
65
63
63
62
60
59
57
55
54
52
51
49
48
46
44
44
43
42
41
38
38
36
36
34
33
31
30
28
28
28
26
25
23
22
21
20
19
18
17
15
14
13
12
12
11
9
9
9
8
8
8
8
7
7
8
8
9
10
10
10
10
10
12
12
13
12
12
12
13
13
14
14
14
15
15
15
16
16
15
15
16
15
16
17
16
17
17
16
16
17
16
17
17
16
16
17
17
17
17
16
17
16
17
18
17
17
17
16
17
17
18
17
16
16
16
17
17
18
18
17
17
18
18
19
18
18
18
18
19
20
20
20
19
20
19
21
21
21
21
21
20
21
21
21
22
21
21
21
21
21
21
21
21
20
20
21
22
21
21
21
21
21
21
21
21
21
21
21
20
20
21
20
20
20
20
21
21
21
20
20
20
20
21
21
21
20
21
21
20
22
22
21
21
21
22
22
22
22
22
22
21
21
22
21
21
21
20
20
20
20
20
20
18
18
18
18
18
18
17
16
15
16
16
15
15
14
14
14
13
13
13
12
12
11
11
10
11
10
10
9
8
8
8
7
7
6
6
6
6
6
6
6
5
6
6
6
7
8
8
8
9
10
11
11
12
12
12
13
14
15
15
15
15
15
15
16
17
17
15
15
15
15
15
15
14
13
13
12
12
11
11
10
9
8
8
8
8
7
7
6
5
5
5
5
4
3
3
3
2
3
3
3
2
2
3
3
3
3
3
3
2
2
3
2
2
2
1
1
0
0
0
-1
-2
-1
-2
-2
-3
-3
-3
-4
-5
-4
-4
-4
-5
-5
-4
-5
-5
-4
-4
-4
-4
-4
-4
-4
-3
-3
-3
-3
-3
-3
-3
-2
-2
-2
-3
-3
-3
-2
-2
-2
-3
-3
-2
-2
-2
-2
-3
-3
-3
-3
-3
-3
-3
-4
-4
-4
-3
-3
-4
-4
-4
-4
-3
-3
-3
-3
-2
-3
-3
-3
-2
-2
-2
-2
-2
-3
-2
-2
-2
-3
-3
-3
-3
-3
-3
-3
-3
-4
-4
-4
-4
-3
-4
-4
-5
-5
-4
-3
-3
-3
-3
-3
-2
-2
-1
-1
-1
-1
-1
0
0
1
1
0
1
1
2
3
2
2
2
3
3
3
4
4
4
3
3
4
4
4
3
3
2
2
3
3
4
4
3
4
4
6
8
10
13
15
20
25
31
38
46
54
63
74
86
99
113
127
142
159
176
194
213
233
253
272
293
313
333
352
370
388
403
417
429
441
449
452
454
452
447
438
423
405
383
358
329
299
266
231
193
154
115
76
39
2
-33
-68
-99
-127
-152
-173
-191
-205
-217
-224
-228
-229
-227
-223
-217
-209
-200
-189
-177
-165
-153
-142
-130
-118
-107
-96
-85
-75
-68
-60
-52
-46
-40
-34
-31
-27
-24
-21
-19
-15
-13
-13
-12
-11
-9
-10
-9
-8
-9
-9
-9
-8
-7
-8
-7
-8
-8
-7
-6
-6
-6
-6
-6
-6
-6
-6
-5
-5
-5
-5
-6
-6
-4
-4
-4
-4
-5
-5
-4
-4
-4
-4
-4
-4
-4
-3
-2
-2
-2
-3
-2
-1
-1
0
0
-1
-1
-1
0
1
1
1
1
1
2
2
2
3
3
3
3
4
5
5
6
5
6
6
6
7
7
7
7
7
7
8
8
8
8
8
8
8
9
9
9
8
9
9
9
10
11
11
12
12
13
14
14
16
16
16
17
19
20
21
21
22
22
23
25
26
27
28
28
29
30
31
32
33
34
35
35
36
38
39
39
39
40
41
42
43
43
44
45
45
46
47
49
49
50
50
51
52
54
55
55
56
57
58
60
61
62
63
64
65
67
68
70
71
72
72
73
74
75
77
77
77
78
79
79
80
81
81
81
81
82
83
83
83
83
82
83
83
85
85
85
84
85
84
85
85
85
85
84
84
84
85
85
85
83
82
82
82
81
81
80
79
77
76
76
75
73
72
71
69
69
68
67
66
63
63
61
60
59
57
56
55
54
53
52
51
51
50
48
47
47
46
46
45
44
42
41
40
40
38
37
36
34
33
32
31
29
28
26
24
24
23
22
21
19
18
18
17
16
16
15
14
13
13
13
12
12
11
10
9
9
10
10
9
8
7
7
6
6
5
5
3
3
2
1
2
1
0
0
-1
-1
-1
-1
-1
-1
-1
-1
-2
-2
-1
-2
-2
-3
-3
-3
-2
-2
-2
-4
-4
-3
-3
-3
-3
-5
-6
-6
-5
-6
-6
-7
-7
-8
-8
-9
-9
-9
-10
-10
-11
-10
-10
-11
-11
-11
-11
-11
-12
-13
-13
-13
-13
-13
-14
-14
-14
-14
-16
-16
-17
-17
-16
-17
-17
-17
-18
-18
-18
-18
-18
-19
-19
-19
-19
-19
-19
-19
-19
-20
-20
-19
-19
-18
-18
-18
-18
-18
-16
-16
-15
-15
-14
-14
-13
-12
-11
-10
-9
-9
-8
-7
-6
-5
-4
-4
-4
-2
-1
0
1
2
2
3
4
5
7
8
10
12
14
18
22
27
33
38
45
52
61
71
81
92
104
117
131
146
162
177
195
211
229
248
265
283
300
315
329
343
355
364
372
375
376
374
368
358
344
326
304
277
250
219
187
152
117
80
45
8
-25
-59
-90
-120
-146
-169
-187
-202
-214
-220
-225
-226
-223
-217
-208
-199
-188
-176
-164
-151
-137
-123
-110
-98
-86
-76
-66
-57
-49
-41
-35
-30
-25
-21
-17
-16
-13
-12
-12
-11
-9
-9
-8
-9
-9
-8
-8
-9
-8
-9
-9
-9
-9
-9
-8
-7
-7
-8
-8
-8
-8
-7
-6
-7
-7
-7
-6
-6
-5
-5
-5
-6
-6
-5
-4
-3
-3
-4
-4
-4
-3
-2
-1
-2
-2
-2
-2
-1
0
0
0
0
0
2
2
3
3
3
3
3
4
4
4
4
4
4
4
5
5
6
5
4
5
5
5
6
6
7
6
6
7
7
7
8
8
8
9
9
10
10
10
11
12
13
14
14
15
15
16
16
17
18
19
18
19
19
20
20
21
21
21
21
21
22
22
23
23
23
22
22
22
24
24
24
24
23
23
25
26
26
26
25
25
27
28
29
29
30
29
30
32
33
35
35
36
36
38
39
40
41
42
42
43
44
47
48
49
49
49
50
53
54
54
55
56
57
58
60
60
62
63
63
65
65
68
68
70
70
70
70
72
74
75
74
75
74
76
76
76
77
76
76
77
77
78
78
78
77
77
77
77
77
77
77
76
75
75
75
75
74
74
73
72
72
71
71
70
69
68
67
66
66
65
64
63
61
61
60
59
58
56
54
53
53
52
51
50
48
46
45
43
42
40
38
36
34
33
31
30
29
26
25
23
22
22
20
19
18
17
16
16
15
15
14
12
12
12
12
12
12
11
10
10
11
11
12
11
10
10
10
11
11
11
11
10
9
9
9
10
9
8
8
7
7
7
7
6
5
5
4
4
4
4
2
2
1
1
1
1
1
1
0
0
0
0
0
0
0
0
-1
-1
-1
0
0
-1
-2
-2
-1
-1
-1
-1
-2
-2
-1
-1
0
0
-1
-1
-1
0
0
1
0
1
1
1
2
2
2
2
2
2
3
3
3
4
3
3
4
4
4
4
4
4
3
4
4
4
4
4
3
3
3
5
4
4
4
4
4
4
5
5
5
4
4
4
5
6
5
5
5
6
5
6
7
6
6
6
7
7
8
8
8
8
9
10
10
10
11
10
11
11
12
12
13
13
12
13
13
14
14
14
13
13
14
13
14
14
14
14
14
13
13
13
14
14
13
13
13
13
14
14
12
12
11
12
12
12
12
12
11
11
11
12
11
11
10
10
10
10
10
9
9
8
8
8
8
7
7
6
5
5
5
5
6
5
5
4
4
4
5
5
4
4
4
4
4
5
5
4
4
4
4
4
4
4
3
3
3
2
3
3
2
2
1
1
1
1
1
1
0
0
1
0
1
0
0
0
0
1
2
1
1
1
1
2
3
3
4
5
6
8
11
14
17
20
25
30
37
44
52
61
71
80
90
103
117
131
146
160
175
192
210
227
246
262
279
296
313
330
345
359
371
381
389
396
400
402
400
395
387
374
358
340
318
292
264
234
201
170
135
101
64
30
-4
-37
-67
-95
-121
-145
-166
-183
-197
-207
-213
-218
-220
-219
-215
-209
-201
-193
-183
-173
-162
-150
-138
-127
-115
-105
-94
-85
-76
-66
-58
-51
-45
-40
-35
-31
-26
-23
-20
-18
-17
-14
-12
-11
-10
-10
-9
-9
-8
-7
-7
-7
-7
-8
-7
-7
-6
-7
-7
-6
-6
-6
-6
-5
-4
-5
-5
-4
-4
-3
-3
-3
-2
-3
-2
-2
-1
0
-1
-1
0
0
1
1
1
1
1
2
2
3
3
2
3
2
2
3
3
3
2
1
2
2
2
3
2
3
3
3
4
4
5
4
5
5
6
6
6
7
7
7
7
8
9
10
9
9
10
10
10
11
12
12
12
12
13
14
15
15
15
16
16
17
18
18
19
19
19
20
20
21
22
23
22
23
23
25
26
27
27
27
28
29
30
32
32
33
34
35
36
37
39
39
41
40
42
43
45
45
46
46
47
48
49
50
51
51
52
52
54
56
57
58
59
60
60
63
64
65
66
68
68
70
73
74
76
77
79
80
83
84
86
87
88
89
90
91
93
94
95
95
96
97
99
99
100
100
100
101
103
103
104
105
104
104
104
106
107
107
105
106
106
106
107
107
106
106
105
105
104
104
104
103
102
101
100
99
99
97
96
94
93
92
90
89
87
85
82
80
79
77
75
73
69
67
65
64
61
59
56
53
51
48
47
45
42
40
39
36
35
35
33
31
28
27
26
25
24
22
22
20
19
18
19
18
17
16
16
16
15
16
15
15
14
14
14
14
13
14
12
11
11
10
10
10
8
7
7
6
5
5
4
4
2
3
2
1
1
1
0
-1
-1
-2
-2
-1
-2
-3
-4
-4
-4
-4
-3
-4
-5
-5
-5
-5
-5
-5
-6
-6
-6
-7
-6
-7
-7
-7
-8
-7
-7
-8
-9
-8
-8
-8
-9
-9
-9
-9
-9
-9
-10
-10
-10
-10
-11
-11
-11
-12
-11
-11
-11
-12
-13
-13
-13
-13
-14
-13
-15
-15
-15
-15
-15
-15
-15
-16
-16
-16
-16
-15
-14
-15
-15
-15
-15
-14
-14
-13
-14
-13
-14
-13
-12
-12
-13
-12
-13
-13
-11
-12
-11
-12
-12
-12
-12
-11
-12
-12
-12
-13
-14
-13
-13
-14
-14
-16
-16
-16
-16
-16
-15
-16
-16
-16
-17
-15
-15
-14
-15
-15
-14
-13
-13
-11
-10
-10
-9
-8
-8
-7
-6
-6
-6
-5
-4
-3
-2
-2
-1
-2
-1
0
0
1
1
1
1
2
2
2
3
3
3
3
3
4
4
4
5
5
5
6
6
7
7
8
8
9
9
10
11
11
10
10
11
11
11
11
11
10
10
10
10
10
9
8
7
7
7
7
7
6
5
4
4
4
3
3
1
1
0
1
1
0
0
-1
-1
-2
-1
-1
-1
-1
-1
-1
-1
0
0
0
0
-1
0
0
1
1
1
1
0
1
1
2
1
2
1
1
1
1
2
2
1
1
1
1
1
1
2
1
0
1
1
2
2
2
1
1
1
1
2
2
1
1
1
1
1
1
0
1
0
0
-1
0
-1
-2
-3
-4
-3
-4
-4
-5
-6
-6
-7
-6
-6
-6
-7
-8
-8
-8
-7
-7
-7
-6
-6
-6
-5
-5
-4
-3
-3
-3
-2
-1
-1
0
1
2
3
5
7
10
13
16
19
24
30
37
44
52
61
69
79
92
104
118
132
147
164
181
200
219
237
256
276
295
316
335
353
369
385
400
412
422
430
435
437
436
430
421
408
392
371
347
320
290
258
224
188
152
114
76
39
3
-30
-63
-93
-121
-146
-167
-184
-199
-209
-217
-222
-223
-221
-218
-212
-204
-195
-186
-175
-163
-151
-140
-128
-117
-107
-96
-86
-76
-69
-61
-54
-48
-42
-37
-33
-29
-27
-24
-21
-19
-17
-15
-14
-13
-13
-12
-12
-11
-10
-11
-11
-10
-11
-10
-10
-10
-10
-10
-10
-10
-9
-9
-10
-10
-11
-10
-9
-9
-9
-9
-10
-10
-9
-9
-8
-9
-10
-10
-10
-10
-10
-10
-11
-11
-11
-11
-10
-10
-10
-10
-10
-10
-10
-9
-9
-9
-9
-8
-8
-7
-6
-5
-5
-5
-5
-4
-3
-2
-3
-2
-1
-2
-2
-2
-1
-1
-1
-1
-1
0
0
1
1
0
1
1
2
2
2
2
2
2
2
3
4
4
4
4
4
6
6
6
7
8
7
8
9
10
10
11
11
12
14
14
15
16
17
16
18
18
19
20
20
21
21
22
24
25
25
26
27
27
27
28
29
30
30
31
32
32
34
35
36
36
37
38
39
41
42
42
42
44
45
46
48
48
49
50
50
52
54
54
55
56
58
59
60
62
63
65
66
66
68
70
71
72
73
74
75
77
78
79
80
80
82
82
84
85
85
86
85
86
87
87
87
87
87
86
87
87
87
86
86
86
86
85
85
85
84
84
83
82
82
82
82
81
80
79
79
78
77
77
76
75
74
73
72
71
70
69
66
65
65
63
62
60
57
56
54
52
51
49
46
44
42
40
39
38
35
33
31
29
28
27
26
24
22
20
19
19
18
17
15
15
13
12
13
12
12
10
9
8
9
8
8
7
6
6
6
6
5
5
4
4
4
3
4
3
3
2
0
0
0
0
-1
-2
-2
-4
-4
-4
-4
-4
-5
-5
-6
-6
-6
-6
-6
-6
-6
-7
-7
-7
-6
-6
-8
-8
-8
-7
-7
-7
-8
-9
-8
-9
-9
-9
-9
-9
-10
-11
-10
-10
-10
-11
-11
-12
-12
-12
-11
-11
-12
-12
-13
-12
-12
-12
-12
-13
-13
-14
-14
-14
-14
-14
-15
-16
-16
-16
-16
-16
-16
-17
-18
-18
-18
-17
-17
-18
-18
-19
-19
-18
-18
-18
-19
-19
-19
-19
-19
-18
-18
-19
-19
-18
-18
-18
-18
-19
-19
-19
-19
-19
-18
-18
-19
-19
-20
-19
-19
-18
-19
-19
-19
-19
-18
-18
-17
-18
-18
-18
-17
-17
-16
-16
-17
-16
-16
-16
-14
-15
-14
-14
-14
-13
-13
-12
-12
-11
-11
-12
-11
-10
-10
-9
-10
-9
-9
-9
-8
-7
-7
-8
-7
-7
-6
-5
-5
-6
-6
-6
-5
-4
-4
-5
-4
-5
-5
-4
-3
-4
-4
-4
-4
-4
-3
-3
-3
-4
-4
-4
-4
-2
-3
-2
-3
-3
-3
-3
-2
-2
-3
-3
-2
-2
-2
-2
-2
-2
-3
-3
-3
-3
-2
-3
-4
-4
-4
-4
-4
-3
-3
-4
-4
-5
-4
-4
-4
-4
-4
-5
-4
-3
-3
-4
-4
-4
-4
-3
-2
-2
-2
-3
-2
-2
-1
-1
-1
0
-2
-2
-1
0
-1
-1
-2
-2
-2
-2
-2
-2
-3
-3
-3
-3
-3
-3
-4
-4
-5
-4
-4
-4
-5
-6
-6
-6
-7
-6
-6
-6
-6
-6
-7
-7
-6
-6
-6
-6
-7
-7
-7
-6
-5
-6
-7
-7
-7
-6
-6
-5
-6
-6
-6
-6
-5
-4
-4
-4
-5
-6
-5
-4
-3
-4
-4
-4
-5
-4
-4
-3
-3
-4
-3
-3
-3
-3
-3
-4
-4
-4
-4
-4
-4
-5
-4
-6
-5
-5
-5
-5
-6
-6
-7
-6
-6
-5
-5
-6
-6
-6
-5
-6
-6
-6
-7
-6
-6
-6
-6
-6
-7
-8
-8
-8
-7
-7
-7
-8
-8
-8
-8
-8
-8
-9
-9
-9
-9
-10
-9
-10
-10
-10
-11
-10
-10
-10
-10
-10
-10
-10
-10
-9
-8
-8
-9
-8
-9
-7
-7
-6
-7
-7
-7
-6
-5
-5
-4
-4
-5
-4
-3
-1
0
1
2
4
6
10
15
20
25
32
39
48
56
67
77
89
102
116
131
148
164
181
199
218
237
258
278
297
315
334
351
367
383
397
407
417
422
427
427
426
419
407
393
374
353
328
301
270
238
202
166
129
93
56
21
-16
-50
-81
-111
-137
-161
-181
-198
-212
-222
-229
-231
-232
-231
-227
-221
-213
-202
-192
-181
-169
-158
-146
-133
-121
-110
-99
-90
-81
-71
-63
-55
-49
-43
-38
-34
-30
-26
-23
-20
-18
-18
-16
-14
-13
-12
-13
-13
-13
-13
-12
-12
-12
-13
-13
-13
-13
-12
-12
-12
-12
-14
-14
-13
-12
-12
-13
-13
-14
-14
-13
-12
-12
-12
-13
-14
-13
-12
-11
-11
-12
-12
-12
-10
-10
-10
-9
-10
-9
-9
-8
-7
-7
-6
-7
-6
-5
-4
-4
-3
-3
-3
-2
-2
-1
0
0
0
0
1
1
2
3
2
2
2
2
3
3
4
4
3
3
4
4
4
4
3
4
4
4
4
4
4
5
5
4
5
6
6
6
6
6
7
8
8
8
8
7
8
8
10
10
10
10
11
11
12
13
14
13
13
15
15
16
17
17
18
18
19
20
21
22
21
23
23
24
25
26
27
27
28
28
30
31
32
33
33
34
35
37
38
40
40
42
43
45
47
49
50
50
52
54
56
57
59
59
60
61
63
64
65
67
68
69
70
72
73
75
75
76
77
79
80
82
83
84
84
85
87
87
89
90
90
90
91
92
93
94
94
94
93
94
95
95
95
95
94
94
94
95
94
94
93
92
91
91
91
90
88
87
86
85
84
83
82
80
78
77
75
74
72
71
69
67
65
64
63
61
60
58
55
54
52
51
50
48
46
44
43
41
40
39
36
35
34
33
32
30
29
28
25
24
23
23
21
20
18
16
15
13
13
12
11
9
8
7
7
6
5
3
3
2
2
1
0
0
-1
-2
-2
-2
-3
-3
-4
-4
-5
-5
-5
-5
-6
-6
-7
-7
-7
-8
-8
-8
-8
-9
-9
-8
-9
-9
-9
-9
-9
-8
-8
-8
-7
-7
-9
-7
-7
-6
-6
-6
-7
-7
-6
-5
-4
-4
-4
-4
-5
-4
-2
-3
-2
-2
-3
-3
-3
-2
-2
-3
-3
-3
-4
-3
-3
-3
-3
-3
-3
-3
-1
0
1
1
3
6
9
13
18
22
28
36
44
53
64
75
85
98
113
128
146
163
181
200
219
239
261
282
303
323
341
358
374
389
401
411
418
422
423
420
415
404
389
369
345
317
286
253
216
177
137
96
57
17
-23
-61
-97
-130
-162
-189
-212
-233
-249
-262
-270
-274
-274
-270
-264
-257
-246
-235
-221
-206
-190
-175
-160
-145
-131
-116
-103
-89
-78
-68
-59
-51
-43
-36
-30
-25
-22
-19
-16
-13
-11
-9
-9
-8
-8
-8
-7
-6
-7
-8
-8
-8
-9
-8
-9
-9
-9
-10
-9
-9
-8
-8
-9
-8
-8
-8
-6
-6
-6
-6
-6
-5
-4
-4
-3
-3
-3
-3
-2
-1
-1
-1
0
0
0
1
2
2
2
2
2
3
4
5
5
5
5
6
6
7
8
7
7
7
7
8
9
9
9
8
8
8
9
9
10
10
10
9
10
10
11
11
10
10
11
11
12
12
12
12
13
13
14
15
15
15
15
16
17
17
19
19
19
20
20
20
21
21
23
22
22
23
24
24
25
24
25
24
25
26
26
27
26
27
27
27
28
29
30
30
30
31
33
33
34
35
35
36
37
38
39
41
40
42
43
45
46
46
48
49
48
49
51
52
54
54
54
56
56
58
59
60
61
62
64
65
67
68
69
70
71
73
74
76
77
78
79
79
81
83
84
85
86
87
88
89
92
93
94
94
95
96
97
99
100
100
100
101
102
102
103
104
104
104
104
105
106
106
105
105
105
105
106
106
105
105
104
103
103
102
101
100
99
98
97
96
95
94
92
90
88
86
85
83
81
80
77
74
72
72
69
67
65
62
61
59
57
55
53
51
49
46
45
43
41
38
36
33
32
30
29
27
26
24
23
21
20
20
18
16
15
15
13
14
13
11
11
11
10
10
10
10
10
9
9
9
9
9
9
8
7
7
7
7
7
6
5
4
4
3
4
3
2
1
0
0
-1
-1
-2
-2
-3
-3
-4
-4
-4
-4
-4
-5
-6
-6
-6
-6
-6
-6
-6
-6
-5
-5
-5
-6
-5
-6
-5
-5
-5
-4
-5
-5
-5
-5
-4
-4
-4
-4
-4
-4
-4
-4
-3
-4
-4
-4
-3
-2
-3
-3
-2
-3
-2
-2
-1
-1
-1
-1
-1
-1
0
1
0
1
1
1
2
2
2
2
2
2
3
3
4
3
3
3
4
4
4
4
5
4
3
3
4
4
3
3
3
2
2
2
3
2
1
0
0
0
0
-1
0
-2
-2
-2
-1
-1
-2
-2
-3
-4
-3
-3
-2
-2
-2
-3
-2
-1
-1
0
0
0
0
0
1
2
1
1
1
2
2
2
3
2
2
2
2
3
3
4
4
3
3
3
3
3
4
3
4
3
4
4
4
4
5
3
3
4
5
4
5
4
4
4
4
4
4
4
2
2
2
2
2
1
1
0
0
0
-1
0
-1
-2
-2
-3
-3
-3
-3
-3
-5
-5
-5
-5
-5
-5
-6
-6
-6
-6
-6
-6
-6
-7
-7
-8
-7
-7
-7
-7
-7
-8
-7
-7
-6
-7
-7
-7
-7
-7
-5
-6
-6
-6
-7
-6
-5
-5
-5
-5
-5
-6
-5
-4
-3
-3
-3
-4
-3
-3
-2
-3
-2
-2
-2
-2
-1
0
0
2
2
4
5
7
10
13
14
18
23
29
35
43
50
57
66
76
87
99
111
124
137
152
168
185
201
220
237
256
274
294
312
330
347
362
375
389
400
410
417
421
421
419
414
404
390
373
352
327
301
272
240
207
172
135
98
62
28
-7
-41
-72
-102
-129
-152
-172
-189
-203
-214
-221
-226
-226
-224
-221
-215
-209
-201
-190
-180
-169
-157
-146
-135
-124
-113
-103
-92
-83
-75
-67
-60
-53
-48
-42
-38
-34
-31
-28
-25
-23
-21
-20
-19
-19
-17
-17
-15
-15
-16
-16
-16
-15
-15
-16
-15
-16
-16
-17
-16
-16
-16
-16
-17
-17
-17
-16
-15
-16
-16
-17
-16
-16
-15
-15
-14
-14
-15
-14
-13
-13
-12
-13
-13
-13
-11
-11
-11
-10
-11
-10
-10
-9
-8
-8
-8
-7
-8
-8
-6
-6
-5
-5
-5
-4
-4
-2
-1
-2
-2
-1
-1
0
0
1
1
1
0
1
1
1
0
1
1
0
1
0
1
1
1
0
1
2
2
3
3
3
3
4
5
5
6
6
6
7
8
8
9
10
9
10
11
11
12
13
13
14
14
14
16
16
17
17
17
18
19
20
20
21
21
22
23
23
25
26
26
26
27
27
28
30
30
30
31
32
32
33
35
36
36
37
38
39
41
42
43
43
45
46
48
50
51
52
53
53
55
56
58
58
60
60
61
63
64
65
66
67
67
68
69
71
71
72
73
73
73
75
76
76
76
76
76
78
79
78
78
78
78
79
79
79
79
78
78
77
77
77
76
76
75
74
74
73
73
73
72
70
70
70
69
69
67
66
65
63
63
62
60
59
57
56
54
52
52
50
48
45
43
41
39
37
35
33
31
29
27
26
24
22
20
18
16
16
14
13
12
11
10
9
8
7
6
5
5
3
2
2
2
0
-1
-2
-2
-3
-4
-4
-6
-7
-8
-8
-9
-10
-11
-11
-12
-13
-14
-14
-14
-15
-16
-17
-17
-17
-17
-17
-18
-18
-19
-18
-18
-17
-18
-19
-19
-19
-18
-18
-18
-19
-18
-19
-18
-18
-18
-18
-18
-18
-19
-18
-18
-17
-17
-18
-19
-18
-17
-18
-17
-17
-17
-17
-17
-17
-16
-15
-15
-16
-16
-15
-15
-16
-16
-16
-16
-16
-16
-15
-15
-16
-16
-17
-17
-17
-17
-17
-17
-17
-16
-16
-15
-15
-14
-14
-14
-14
-13
-13
-12
-11
-11
-11
-9
-8
-6
-4
-3
-1
1
5
10
14
19
26
33
42
52
62
74
87
100
115
131
149
166
185
204
224
244
265
286
305
323
340
356
370
382
393
398
402
402
399
393
381
366
345
320
290
258
224
187
148
108
69
29
-11
-49
-87
-121
-153
-183
-208
-228
-246
-258
-267
-271
-272
-270
-263
-254
-242
-229
-216
-200
-185
-168
-151
-135
-120
-106
-92
-79
-67
-55
-46
-38
-31
-24
-17
-12
-7
-4
-1
1
3
4
5
7
7
6
6
7
7
7
7
7
7
6
6
6
6
6
6
5
5
5
6
5
5
5
5
6
6
6
6
7
6
6
6
7
7
8
8
8
8
9
9
9
8
8
8
8
9
9
9
9
9
10
9
10
10
10
10
10
10
10
11
11
11
12
11
12
12
13
13
13
13
13
13
14
14
15
15
15
15
16
17
17
18
18
18
20
20
22
22
22
23
24
24
25
25
26
26
26
26
26
28
28
28
28
28
29
29
29
29
29
30
30
30
31
30
31
31
31
32
33
33
34
34
34
35
36
36
38
39
39
39
40
40
42
43
43
44
45
45
47
48
48
49
49
49
51
51
53
54
56
56
58
59
60
62
64
65
66
67
69
70
72
73
74
76
77
78
80
81
82
83
83
85
86
87
87
87
87
88
88
90
90
90
91
90
91
93
93
93
93
93
93
94
95
96
96
95
96
96
97
97
96
97
97
96
96
97
97
97
96
95
95
94
94
93
92
92
90
90
89
88
88
86
85
84
82
81
81
79
78
76
75
74
74
73
71
70
69
67
67
67
65
64
63
62
61
60
59
58
56
55
53
51
50
48
47
44
43
41
41
40
39
37
36
36
35
35
34
33
33
32
33
32
33
32
33
32
32
32
31
31
30
30
29
30
29
29
28
28
27
25
25
25
25
25
25
24
24
24
24
24
24
24
23
24
24
24
25
25
24
24
24
24
25
24
24
23
23
24
23
24
24
24
24
24
25
25
25
25
25
25
25
26
27
27
27
27
28
28
28
28
29
28
28
28
28
28
29
28
28
27
26
27
27
27
26
26
26
25
25
25
26
25
25
24
24
25
25
25
25
25
25
26
26
27
27
27
26
28
28
29
30
30
30
31
31
32
32
32
32
32
32
31
32
32
32
31
30
30
30
30
30
29
28
28
28
29
29
29
29
29
29
29
30
31
30
31
30
30
31
31
31
30
30
31
30
31
32
31
31
31
30
30
30
30
30
30
29
29
29
30
29
29
29
28
29
29
30
30
30
29
29
30
30
30
30
30
30
30
31
31
31
31
31
30
30
30
30
30
29
29
29
28
28
28
28
26
26
26
26
26
26
25
24
23
24
23
23
22
22
21
21
20
20
20
19
18
17
17
18
17
17
17
15
15
15
15
15
15
14
14
14
15
15
15
15
14
15
15
15
15
15
15
14
14
13
13
14
13
12
11
11
11
10
9
9
8
8
8
7
7
7
6
6
6
6
7
7
7
7
8
8
8
8
9
9
9
8
9
9
10
10
10
10
10
10
11
11
11
11
10
10
10
10
10
9
9
8
8
8
8
8
7
7
5
6
6
7
7
6
6
6
6
6
7
6
6
6
6
6
6
7
6
6
6
6
6
7
7
6
6
6
6
6
7
6
6
5
5
6
6
5
6
5
5
5
6
7
9
9
12
13
16
20
25
30
36
43
52
61
71
82
93
106
120
135
151
168
186
204
223
243
264
285
305
325
344
364
381
399
415
429
440
448
455
459
461
458
450
438
422
402
379
354
325
293
258
222
183
145
106
68
29
-8
-43
-75
-106
-133
-158
-178
-195
-209
-218
-224
-227
-228
-225
-221
-214
-205
-195
-184
-173
-161
-149
-136
-123
-112
-101
-92
-82
-72
-64
-55
-49
-43
-38
-33
-29
-25
-22
-19
-18
-16
-14
-13
-12
-11
-11
-10
-10
-10
-9
-9
-9
-9
-10
-10
-10
-10
-9
-9
-9
-10
-9
-9
-8
-8
-8
-7
-7
-7
-7
-6
-5
-5
-5
-5
-4
-4
-2
-2
-1
-2
-2
-1
0
1
1
1
1
1
2
2
3
2
2
2
2
3
4
3
3
2
2
2
4
4
4
3
2
3
3
4
5
4
5
4
5
5
6
6
6
6
7
7
7
7
7
7
8
8
8
8
8
9
9
9
10
10
11
11
12
12
13
14
16
17
17
19
19
20
21
23
24
25
25
26
26
28
29
30
30
31
32
32
34
35
35
36
36
37
38
40
40
41
41
42
43
44
45
45
46
46
48
48
49
50
51
52
52
52
54
55
56
57
57
59
60
61
63
64
64
65
66
68
69
70
71
72
73
73
75
76
77
79
78
79
80
82
83
84
85
85
85
86
87
87
88
88
87
88
87
87
87
87
86
85
84
84
83
82
82
81
79
79
78
78
77
75
74
73
73
72
71
70
68
68
67
65
64
63
61
60
59
58
57
57
55
54
52
52
51
50
49
48
47
46
46
45
44
44
42
42
41
40
40
39
39
38
37
37
36
36
35
34
34
32
32
31
32
30
29
28
27
27
25
26
25
23
22
22
21
21
19
19
18
17
16
17
16
16
15
14
14
14
14
13
13
13
12
12
12
12
11
11
10
10
10
10
11
10
10
9
9
9
9
10
9
9
9
9
9
9
9
9
9
8
9
9
9
9
8
9
9
9
9
10
9
10
9
9
9
9
9
9
7
8
8
8
7
7
7
6
6
6
7
6
6
5
5
5
4
5
4
4
3
3
2
2
1
0
0
-1
-2
-3
-3
-3
-4
-4
-6
-7
-6
-6
-6
-6
-6
-6
-5
-5
-3
-3
-3
-1
0
2
5
7
10
14
18
21
27
34
42
49
58
67
78
90
104
117
131
147
162
180
197
215
234
251
268
286
302
317
330
342
351
358
362
363
362
357
346
333
314
292
267
237
206
172
136
99
63
27
-10
-46
-81
-113
-143
-169
-193
-213
-229
-241
-248
-252
-250
-247
-241
-232
-222
-208
-194
-178
-162
-147
-132
-117
-102
-87
-73
-61
-49
-40
-31
-21
-14
-8
-2
2
7
10
12
15
17
18
19
20
20
21
21
20
20
19
19
18
19
19
19
18
17
17
18
18
18
18
17
17
16
17
17
17
17
16
17
17
18
18
17
16
17
16
17
17
17
16
16
16
16
16
16
16
16
15
15
16
16
16
16
16
15
15
15
15
16
16
16
15
15
15
16
15
15
14
15
14
15
15
16
16
14
15
16
17
17
17
17
17
18
19
19
20
20
21
21
22
23
23
23
24
25
25
26
26
27
27
27
27
28
28
28
28
29
28
28
29
30
29
30
29
29
30
30
30
30
30
30
30
30
32
32
33
32
33
34
34
36
37
38
38
39
40
42
43
45
45
47
47
49
50
51
52
54
55
56
57
58
60
60
61
62
63
64
64
65
66
67
68
69
71
72
73
74
75
76
78
80
81
83
83
84
86
88
89
91
91
92
94
95
96
97
99
99
100
100
102
103
103
104
104
104
105
105
106
106
106
105
105
105
104
105
104
102
102
101
100
100
99
98
96
96
94
94
93
93
92
90
89
88
88
87
85
84
83
81
82
80
80
79
77
76
75
74
73
72
70
69
68
67
66
65
64
62
60
59
58
58
56
55
53
51
49
48
48
47
45
44
42
40
40
39
38
36
34
34
33
33
32
31
29
29
28
28
28
27
26
25
25
25
25
24
24
22
22
22
22
21
22
21
20
20
20
19
19
19
17
17
16
16
15
16
15
14
15
15
15
13
14
13
14
14
13
14
13
13
14
13
13
13
13
12
12
12
12
11
11
11
11
12
11
10
10
11
12
12
11
11
11
12
12
13
13
12
13
14
14
15
14
15
15
17
17
17
17
18
18
18
18
19
20
21
21
22
21
23
23
25
25
25
25
26
26
27
28
29
30
29
30
31
31
31
33
32
32
32
32
34
34
34
34
34
34
34
35
35
34
34
34
34
34
34
35
34
34
34
34
34
35
34
33
34
33
34
34
34
34
34
34
34
34
35
35
35
34
34
34
35
35
34
34
34
33
33
33
32
31
31
30
30
29
29
28
26
26
26
25
26
26
25
25
23
23
24
23
23
23
23
22
22
22
22
22
21
20
20
20
20
20
19
18
18
17
18
17
16
16
15
15
15
15
14
14
14
13
12
13
13
13
13
12
12
12
12
12
12
12
12
12
13
13
13
14
13
13
13
14
15
16
16
16
16
17
19
18
19
21
22
24
26
28
31
34
38
42
46
53
60
67
74
82
91
101
112
123
136
148
163
177
193
209
226
244
261
278
297
315
333
349
365
380
393
406
417
426
432
436
437
435
429
420
407
390
369
345
320
291
261
230
195
159
123
86
53
18
-15
-46
-76
-104
-127
-147
-164
-179
-190
-198
-202
-204
-203
-200
-194
-189
-180
-171
-160
-149
-137
-126
-114
-104
-92
-82
-72
-62
-54
-47
-40
-33
-27
-21
-18
-14
-11
-7
-5
-2
-1
1
1
2
3
4
5
5
5
4
4
5
6
5
5
5
5
4
6
6
6
5
5
5
5
6
6
6
6
5
6
7
7
8
8
8
7
8
8
9
9
8
9
9
9
9
10
10
10
10
10
12
12
13
12
12
13
13
14
14
15
16
16
16
17
18
19
19
21
20
21
22
23
23
24
24
25
26
26
28
28
29
29
29
30
32
33
33
34
34
34
36
36
37
37
38
38
39
39
40
40
40
40
39
40
42
42
41
42
42
43
44
45
45
46
46
46
47
48
49
50
50
51
51
52
53
55
56
57
57
58
60
61
62
62
63
64
64
66
67
68
68
69
70
71
72
74
74
74
75
76
77
78
79
80
79
80
81
82
84
84
85
86
87
88
89
90
91
92
93
94
95
96
98
99
99
100
101
102
104
104
105
106
106
106
108
109
109
109
109
110
110
111
111
111
111
110
111
110
111
110
109
109
108
107
107
106
105
104
103
102
101
101
99
97
95
94
92
91
90
88
86
84
82
81
80
79
77
75
73
72
70
70
69
67
65
64
63
61
61
60
58
56
55
54
54
52
51
50
48
47
46
45
44
43
41
40
39
38
37
36
35
34
32
32
31
30
29
28
27
26
26
26
26
25
24
23
22
22
22
22
22
20
20
20
20
20
20
19
19
19
19
18
19
18
18
17
17
17
18
17
16
16
16
16
16
15
14
14
13
13
13
13
12
11
11
10
11
10
10
10
9
9
8
9
8
8
8
7
6
6
6
6
6
6
4
4
4
4
4
4
4
2
2
2
2
2
1
1
0
0
0
0
0
0
-1
0
-1
-1
0
0
-1
-1
-1
0
0
0
0
0
0
0
0
1
2
2
2
1
2
2
1
1
2
1
2
2
2
2
2
1
1
1
0
1
1
0
0
0
0
0
1
0
0
0
0
0
1
2
2
2
3
3
4
5
6
7
7
8
9
9
10
11
11
11
12
13
14
15
15
15
16
16
18
18
19
19
19
19
19
19
20
20
20
20
20
21
22
22
23
22
22
23
23
24
24
24
25
24
25
26
26
26
26
26
26
26
28
28
28
28
27
27
28
28
28
28
28
27
27
27
27
27
27
26
26
26
26
26
25
25
24
25
25
25
24
24
23
22
23
23
23
23
22
22
21
21
21
21
20
19
19
19
19
19
19
19
18
18
18
18
18
18
18
17
17
17
17
17
17
17
16
16
16
17
16
17
16
15
15
16
16
16
16
14
15
14
15
16
15
14
14
14
15
15
15
15
14
14
15
15
15
15
14
14
15
14
15
14
15
14
13
13
14
14
14
14
14
14
14
14
15
15
15
15
15
15
15
16
16
16
16
17
17
18
18
18
17
18
18
18
18
18
18
18
17
18
18
18
18
18
17
17
17
18
19
18
18
17
18
18
19
19
19
18
18
18
19
19
18
18
18
18
19
19
19
18
18
18
19
19
19
19
18
18
18
18
18
20
19
20
20
21
23
26
29
32
35
40
47
53
61
70
78
87
99
111
125
139
154
169
186
204
223
243
262
282
302
322
341
360
378
395
410
423
435
444
451
456
456
453
445
434
419
400
378
352
323
291
258
223
186
149
110
72
36
1
-33
-66
-94
-121
-144
-165
-180
-192
-202
-208
-211
-211
-209
-203
-197
-188
-179
-169
-157
-145
-133
-121
-109
-99
-87
-77
-66
-57
-48
-41
-35
-28
-22
-17
-12
-9
-6
-3
-1
2
3
4
5
6
6
7
8
8
9
9
8
9
9
9
10
9
9
9
9
9
10
11
10
10
11
11
11
11
11
12
11
11
11
13
13
12
13
12
12
13
13
13
13
12
13
13
13
14
15
14
15
15
15
17
17
17
17
17
17
19
19
19
19
20
19
20
21
21
21
21
21
21
20
21
21
21
20
20
19
20
21
21
21
20
20
20
21
21
21
21
21
21
21
23
23
24
23
24
24
25
26
26
26
26
27
27
28
28
29
29
29
29
30
30
31
31
31
32
32
32
34
34
36
36
36
37
39
40
41
42
42
42
44
45
47
47
48
49
49
51
52
54
54
54
55
56
57
58
59
60
61
61
62
63
64
64
65
65
67
68
70
71
71
71
72
73
75
75
77
78
79
80
81
83
84
86
86
87
88
89
91
92
93
94
95
96
97
98
99
99
99
100
101
102
102
104
104
104
105
106
106
107
107
107
107
107
108
109
108
108
107
106
107
107
106
105
104
103
102
102
101
99
99
97
96
94
93
92
91
89
88
86
85
83
82
81
78
77
75
74
72
71
69
67
65
64
63
62
61
59
57
56
55
54
53
51
49
49
47
46
46
44
43
41
40
39
39
37
37
35
34
33
32
32
31
30
29
27
26
26
26
26
24
24
23
22
21
21
21
19
19
18
18
18
18
17
16
15
15
16
15
15
14
14
14
13
13
13
13
12
12
11
11
12
11
11
11
9
10
9
10
8
8
8
7
7
8
7
7
6
6
5
5
5
5
5
4
4
4
3
4
4
3
3
2
2
3
4
4
4
2
3
3
4
4
3
4
3
3
3
5
4
4
3
3
3
5
5
5
5
4
3
4
5
6
6
5
5
6
6
8
7
