# Simple Text Format
# Sampling Rate (Hz):= 1200.00
# Resolution:= 12
# Labels:= ECG	 V3
# Age:=	66
# Gender:=	Masculino
0
0
0
0
0
0
0
0
0
0
0
0
0
0
0
0
0
0
0
0
0
0
0
0
0
0
0
0
0
0
0
0
0
0
0
0
0
0
0
0
0
0
0
0
0
0
0
0
0
0
0
0
0
0
0
0
0
0
0
0
0
0
0
0
0
0
0
0
0
0
0
0
0
0
0
0
0
0
0
0
0
0
0
0
0
0
0
0
0
0
0
0
0
0
0
0
0
0
0
0
0
0
0
0
0
0
0
0
0
0
0
0
0
0
0
0
0
0
0
0
0
0
0
0
0
0
0
0
0
0
0
0
0
0
0
0
0
0
0
0
0
0
0
0
0
0
0
0
0
0
0
0
0
0
0
0
0
0
0
0
0
0
0
0
0
0
0
0
0
0
0
0
0
0
0
0
0
0
0
0
0
0
0
0
0
0
0
0
0
0
0
0
0
0
0
0
0
0
0
0
0
0
0
0
0
0
0
0
0
0
0
0
0
0
0
0
0
0
0
0
0
0
0
0
0
0
0
0
0
0
0
0
0
0
0
0
0
0
0
0
0
0
0
0
0
0
0
0
0
0
0
0
0
0
0
0
0
0
0
0
0
0
0
0
0
0
0
0
0
0
0
0
0
0
0
0
0
0
0
0
0
0
0
0
0
0
0
0
0
0
0
0
0
0
0
0
0
0
0
0
0
0
0
0
0
0
0
0
0
0
0
0
0
0
0
0
0
0
0
0
0
0
0
0
0
0
0
0
0
0
0
0
0
0
0
0
0
0
0
0
0
0
0
0
0
0
0
0
0
0
0
0
0
0
0
0
0
0
0
0
0
0
0
0
0
0
0
0
0
0
0
0
0
0
0
0
0
0
0
0
0
0
0
0
0
0
0
0
0
0
0
0
0
0
0
0
0
0
0
0
0
0
0
0
0
0
0
0
0
0
0
0
0
0
0
0
0
0
0
0
0
0
0
0
0
0
0
0
0
0
0
0
0
0
0
0
0
0
0
0
0
0
0
0
0
0
0
0
0
0
0
0
0
0
0
0
0
0
0
0
0
0
0
0
0
0
0
0
0
0
0
0
0
0
0
0
0
0
0
0
0
0
0
0
0
0
0
0
0
0
0
0
0
0
0
0
0
0
0
0
0
0
0
0
0
0
0
0
0
0
0
0
0
0
0
27
27
27
27
26
25
25
25
25
24
24
23
23
21
21
22
21
20
20
19
19
18
19
19
18
17
17
17
17
17
17
16
15
15
16
16
15
15
14
14
13
13
14
13
13
12
11
11
11
11
11
10
9
9
10
10
11
10
9
9
9
9
9
9
9
8
8
7
8
9
9
7
7
7
7
8
7
7
6
5
5
5
5
5
5
5
4
3
3
3
3
3
2
2
3
3
4
3
3
2
2
4
4
5
4
4
3
4
5
5
5
5
5
5
5
6
5
6
6
5
6
6
7
7
7
7
7
7
8
8
7
7
7
7
7
8
8
8
8
8
8
8
8
9
9
9
8
8
9
10
10
10
9
10
10
10
11
10
9
9
9
10
10
10
11
10
9
9
10
10
10
9
8
8
9
9
10
9
9
9
9
9
10
10
10
10
9
10
10
10
11
11
11
11
11
11
12
12
11
11
11
11
11
11
11
10
11
10
10
11
11
10
9
10
10
10
11
10
9
9
10
10
10
10
10
10
10
10
11
11
12
12
11
11
12
12
13
12
11
10
10
9
10
9
8
7
6
5
5
5
4
2
1
1
0
1
0
-1
-1
-2
-1
-2
-1
-1
-2
-2
-2
-2
-2
-2
-2
-3
-3
-3
-2
-2
-2
-3
-3
-3
-3
-2
-2
-2
-2
-4
-3
-3
-3
-3
-4
-4
-4
-4
-4
-4
-3
-3
-4
-4
-4
-3
-3
-3
-4
-4
-3
-4
-3
-3
-3
-4
-4
-4
-4
-3
-3
-4
-4
-3
-4
-3
-3
-3
-3
-4
-4
-4
-3
-3
-3
-4
-5
-4
-4
-4
-3
-4
-4
-4
-4
-4
-4
-4
-5
-4
-5
-4
-4
-2
-2
0
0
2
4
8
11
14
18
21
25
31
36
42
48
55
63
71
79
89
97
104
110
117
123
128
132
135
136
134
133
130
125
119
109
99
87
73
59
43
26
10
-9
-27
-46
-64
-82
-101
-119
-138
-154
-171
-187
-203
-218
-233
-246
-259
-270
-281
-291
-300
-308
-314
-318
-321
-322
-323
-322
-320
-315
-308
-300
-292
-282
-270
-258
-244
-229
-215
-200
-184
-170
-155
-139
-124
-110
-97
-86
-74
-64
-54
-43
-36
-29
-22
-16
-12
-8
-3
-1
2
4
6
8
10
11
12
12
13
13
14
15
14
14
14
13
13
14
14
13
13
13
13
13
13
13
12
12
12
12
12
13
13
13
12
13
13
13
14
14
14
14
14
16
16
17
17
17
17
17
18
19
18
19
19
19
19
20
20
20
19
20
19
20
21
21
21
21
21
21
22
22
23
22
23
23
24
24
25
26
26
25
26
27
29
30
30
29
30
31
32
33
34
33
34
34
35
37
38
38
39
40
40
41
42
44
44
45
45
47
48
50
50
51
52
52
54
55
56
57
57
58
59
60
62
63
64
65
66
67
69
70
71
72
73
75
76
78
79
81
82
83
85
87
89
91
92
93
95
97
98
101
103
104
105
107
109
111
113
113
115
116
117
119
120
121
121
122
123
123
124
125
125
125
125
125
126
127
128
128
127
126
127
128
129
130
129
128
128
129
129
130
130
129
129
128
128
129
129
128
127
125
125
125
124
123
122
120
119
118
116
115
114
111
109
108
107
105
104
102
101
98
97
96
95
93
91
89
87
86
84
83
81
79
77
74
73
72
70
68
65
63
61
60
59
57
55
53
51
49
49
47
46
44
42
40
39
38
37
35
33
32
32
31
30
30
28
26
26
25
25
24
23
22
21
20
20
19
19
18
18
16
16
16
16
16
16
14
14
13
13
14
13
12
11
11
11
12
11
12
10
10
10
11
11
11
10
10
9
10
11
11
11
10
11
10
11
11
12
12
11
12
12
12
13
13
13
13
13
13
14
14
14
14
14
14
14
14
14
13
13
12
12
11
11
10
10
8
8
8
7
7
6
5
5
4
4
4
5
4
4
3
3
3
5
4
4
4
3
4
4
4
5
5
4
3
4
4
5
5
3
4
3
3
3
3
3
2
2
2
3
3
3
2
1
1
2
3
3
4
3
3
4
4
5
6
6
6
6
7
8
8
9
8
8
8
9
9
9
9
9
10
9
10
11
11
10
11
10
11
12
12
12
13
12
13
14
14
15
16
16
15
16
17
18
19
18
19
18
19
20
20
20
20
20
19
20
20
20
20
19
18
19
19
19
19
19
19
17
17
18
18
18
18
17
18
18
17
18
18
18
17
18
18
19
19
19
19
19
19
20
21
21
21
21
21
21
23
23
23
23
23
23
24
25
25
25
25
25
25
25
26
25
25
25
25
25
24
24
24
23
22
22
22
21
21
20
19
19
18
18
17
17
16
15
14
15
14
15
14
14
12
12
12
12
12
11
11
11
10
11
11
10
9
9
8
8
8
8
7
6
5
5
5
5
5
4
3
2
2
2
2
1
1
0
-1
-1
-1
0
-1
-2
-2
-2
-2
-2
-1
-2
-3
-2
-2
-2
-2
-2
-3
-3
-4
-3
-3
-3
-3
-3
-3
-4
-3
-3
-3
-3
-3
-3
-4
-3
-3
-3
-3
-3
-4
-3
-3
-2
-2
-2
-3
-2
-1
0
2
2
3
4
7
10
12
15
18
22
26
30
35
41
46
52
59
68
76
85
93
101
108
114
120
126
130
134
136
137
136
134
130
126
118
108
98
86
72
58
43
26
10
-9
-27
-44
-63
-81
-100
-117
-135
-152
-169
-185
-201
-216
-232
-245
-257
-268
-279
-290
-299
-307
-312
-317
-320
-323
-323
-323
-319
-314
-307
-299
-290
-280
-268
-255
-240
-226
-210
-195
-180
-164
-149
-133
-119
-106
-93
-82
-70
-60
-50
-41
-33
-27
-22
-16
-11
-7
-4
-2
0
2
3
5
7
7
8
8
8
8
9
10
9
9
8
8
8
9
9
8
7
8
8
9
9
9
10
9
10
10
11
11
11
11
11
12
12
12
13
13
13
13
13
14
15
14
14
14
14
15
15
14
15
14
14
15
15
16
16
16
15
16
16
16
17
17
18
17
17
19
18
19
19
20
20
20
21
22
23
23
22
23
23
24
25
25
25
25
26
26
27
29
29
29
29
30
31
33
34
33
34
35
36
37
38
39
39
40
40
42
43
44
44
44
45
46
48
48
49
50
50
51
53
54
56
57
58
59
60
62
64
65
66
68
69
70
72
73
75
75
75
76
77
79
79
80
81
82
82
83
85
86
86
87
87
89
90
92
93
94
95
97
98
100
102
103
104
106
107
110
111
113
115
115
117
118
121
122
123
124
125
126
128
128
130
130
130
130
131
131
132
133
132
133
132
133
132
133
133
132
131
131
130
130
130
128
127
126
125
125
124
123
122
120
119
118
116
115
113
111
109
106
105
104
101
99
95
93
91
89
86
84
80
77
74
72
70
68
65
62
59
56
54
52
50
48
45
42
40
38
37
35
33
31
29
28
27
26
24
23
21
20
19
18
16
15
14
13
12
11
11
9
9
7
6
6
5
5
3
3
2
1
0
0
0
-1
-1
-3
-3
-3
-3
-3
-3
-3
-4
-3
-3
-3
-3
-3
-3
-4
-3
-2
-2
-2
-2
-2
-2
-2
-2
-2
-2
-2
-1
-2
0
0
0
0
-1
-1
-1
0
0
0
-1
-1
-1
-1
-1
-1
-2
-3
-3
-3
-3
-4
-4
-5
-7
-8
-7
-7
-8
-8
-9
-10
-10
-9
-9
-9
-9
-10
-10
-10
-9
-9
-9
-10
-10
-11
-10
-10
-9
-10
-11
-11
-11
-10
-10
-10
-11
-11
-11
-12
-11
-10
-10
-11
-11
-11
-11
-9
-10
-9
-10
-9
-9
-8
-8
-7
-7
-6
-6
-4
-3
-2
0
2
5
8
11
16
21
25
30
36
42
50
58
66
74
83
92
101
107
115
121
126
131
134
135
135
134
129
124
116
108
97
84
70
53
34
17
-3
-24
-46
-69
-93
-117
-142
-166
-189
-213
-236
-258
-280
-301
-319
-336
-351
-365
-378
-388
-394
-400
-403
-403
-402
-398
-392
-383
-372
-359
-345
-329
-312
-293
-274
-254
-234
-215
-196
-177
-159
-141
-124
-109
-95
-82
-69
-59
-48
-39
-33
-26
-20
-15
-11
-6
-4
-1
1
3
5
6
7
8
9
8
9
10
11
11
11
11
11
11
12
13
14
13
14
13
14
15
16
17
15
15
15
16
16
17
16
16
15
15
15
15
15
15
14
13
14
14
15
15
14
14
13
14
15
15
15
14
15
15
15
15
16
16
16
16
16
16
17
16
17
17
17
17
17
18
17
18
17
17
19
19
18
19
19
19
20
21
21
22
21
21
22
22
24
24
23
24
24
25
25
26
27
26
26
27
28
29
30
31
31
31
32
32
34
36
36
35
37
37
39
41
41
42
42
43
45
46
48
49
49
50
51
52
54
55
55
56
57
59
60
61
62
63
64
65
67
68
70
71
71
72
74
75
77
79
79
81
82
84
86
87
89
90
91
93
94
97
99
100
101
101
102
104
105
106
107
108
108
109
110
111
111
110
111
111
112
112
113
113
113
112
113
113
113
113
113
112
112
112
112
112
113
112
111
110
109
109
108
108
106
104
103
102
100
99
97
94
92
90
88
86
84
82
79
77
75
73
70
68
65
63
61
59
56
55
52
50
47
45
43
42
39
37
35
33
31
30
29
27
24
23
21
20
19
17
16
14
13
11
10
9
8
7
6
5
4
4
4
3
1
1
0
0
-1
-1
-2
-2
-3
-3
-3
-3
-3
-3
-5
-4
-5
-5
-4
-4
-6
-6
-6
-6
-6
-6
-7
-7
-8
-8
-7
-8
-8
-8
-8
-8
-8
-8
-7
-7
-8
-8
-7
-7
-6
-6
-6
-6
-6
-6
-5
-4
-4
-4
-4
-4
-4
-3
-2
-3
-3
-3
-4
-3
-4
-3
-4
-3
-3
-2
-3
-3
-3
-2
-2
-2
-2
-1
0
0
0
-1
0
1
1
2
3
3
2
4
4
6
6
6
6
7
8
10
10
11
11
12
12
13
14
15
15
14
15
16
16
17
16
16
16
15
15
15
15
14
14
13
12
12
12
11
10
9
9
9
8
9
9
7
7
7
6
7
7
7
7
7
7
7
8
7
8
7
6
6
7
7
8
6
8
7
7
6
6
6
6
6
5
6
6
5
4
4
4
3
3
3
3
3
2
1
2
2
2
2
1
1
1
1
1
1
0
-1
-1
-2
-1
-1
-2
-2
-3
-4
-3
-3
-4
-4
-5
-6
-6
-7
-6
-7
-7
-7
-8
-8
-9
-9
-9
-9
-10
-9
-9
-9
-8
-8
-8
-9
-9
-8
-7
-8
-8
-8
-9
-9
-8
-8
-8
-9
-9
-9
-8
-8
-8
-9
-9
-9
-9
-9
-9
-8
-9
-9
-9
-9
-8
-8
-8
-8
-9
-9
-9
-9
-8
-9
-9
-10
-10
-9
-8
-9
-9
-10
-10
-10
-10
-10
-10
-10
-11
-10
-10
-10
-9
-9
-9
-10
-10
-9
-9
-8
-8
-9
-9
-9
-8
-8
-8
-8
-8
-7
-7
-6
-6
-5
-6
-6
-6
-5
-5
-5
-6
-7
-7
-7
-7
-7
-7
-9
-8
-9
-9
-9
-10
-9
-10
-11
-10
-10
-10
-10
-11
-11
-10
-11
-9
-9
-8
-7
-6
-5
-2
1
4
5
8
11
15
20
25
30
36
43
50
58
67
77
85
92
99
106
111
117
121
124
124
124
122
120
115
107
98
88
75
61
46
30
14
-5
-25
-44
-63
-83
-102
-121
-141
-160
-178
-195
-212
-229
-246
-261
-277
-290
-302
-313
-324
-334
-342
-349
-354
-357
-359
-360
-359
-357
-352
-345
-337
-328
-318
-306
-292
-278
-263
-247
-231
-216
-200
-185
-169
-153
-137
-124
-112
-99
-88
-77
-66
-58
-50
-43
-36
-31
-25
-20
-16
-13
-10
-8
-6
-4
-1
0
1
1
2
3
3
4
3
3
4
3
4
4
4
4
4
4
5
6
6
6
5
6
6
6
8
8
7
8
8
9
9
10
11
11
11
12
13
14
15
15
15
15
16
17
18
19
19
19
20
20
21
22
22
22
22
22
22
23
24
24
23
22
22
23
23
23
23
23
22
22
22
22
22
22
22
22
22
21
22
22
21
21
21
22
23
23
23
23
24
24
25
26
26
26
27
28
29
30
31
32
32
33
34
35
36
37
38
38
40
41
42
43
44
45
45
46
48
48
50
51
51
52
52
54
56
57
57
58
59
60
62
64
66
66
67
69
70
73
74
76
77
79
79
82
84
85
87
87
89
91
93
94
96
97
97
99
101
103
104
105
105
107
108
110
111
112
113
113
114
115
117
118
119
120
120
121
122
123
124
124
125
125
125
126
126
126
126
126
125
126
127
126
127
126
124
125
124
125
124
123
122
120
120
120
119
117
116
115
112
111
110
109
107
105
103
100
98
96
94
92
89
86
83
81
79
75
73
69
66
64
62
59
57
54
51
49
47
46
44
42
40
38
38
36
36
34
33
31
29
28
28
27
25
24
23
21
20
20
19
17
16
14
12
11
10
9
8
6
6
5
4
4
2
2
0
0
-1
-1
-2
-2
-3
-4
-4
-4
-5
-6
-6
-7
-8
-8
-8
-9
-9
-10
-11
-11
-10
-10
-10
-11
-12
-12
-12
-12
-12
-12
-13
-13
-14
-14
-14
-13
-14
-15
-16
-16
-16
-15
-15
-16
-17
-17
-17
-17
-17
-17
-18
-18
-19
-18
-18
-17
-17
-17
-18
-18
-17
-16
-17
-16
-17
-17
-17
-16
-16
-16
-17
-17
-18
-17
-17
-17
-18
-18
-18
-19
-19
-18
-18
-18
-20
-19
-20
-20
-19
-19
-20
-21
-21
-21
-20
-20
-20
-20
-21
-21
-20
-21
-21
-20
-20
-21
-21
-20
-19
-19
-19
-20
-19
-19
-17
-16
-16
-15
-14
-14
-12
-11
-10
-8
-8
-8
-7
-5
-4
-3
-3
-2
-1
-1
1
1
2
2
3
3
4
5
5
5
5
6
7
8
8
8
9
9
9
10
10
10
11
11
12
13
13
12
12
13
13
12
13
13
13
12
12
11
11
10
10
10
9
8
8
8
7
7
7
7
6
5
5
5
5
5
4
4
3
3
3
3
2
2
2
2
1
1
0
1
-1
-1
-2
-2
-1
-1
-2
-2
-3
-4
-4
-3
-3
-4
-4
-4
-4
-3
-3
-3
-4
-4
-4
-4
-3
-4
-4
-5
-5
-5
-5
-5
-5
-6
-6
-7
-6
-7
-7
-7
-7
-8
-8
-8
-8
-9
-10
-10
-11
-12
-11
-11
-12
-12
-13
-13
-12
-12
-12
-13
-13
-13
-13
-13
-12
-12
-12
-12
-12
-11
-10
-10
-10
-10
-10
-10
-9
-8
-8
-7
-8
-8
-8
-7
-7
-7
-7
-7
-6
-7
-6
-6
-6
-7
-7
-7
-7
-7
-6
-7
-7
-7
-8
-6
-7
-7
-7
-8
-8
-8
-8
-7
-7
-8
-8
-8
-7
-6
-6
-7
-7
-7
-6
-5
-5
-4
-5
-5
-5
-5
-4
-4
-4
-4
-5
-5
-4
-3
-3
-4
-4
-5
-5
-4
-4
-5
-6
-6
-6
-7
-7
-7
-7
-10
-9
-10
-11
-10
-10
-12
-12
-14
-14
-14
-13
-13
-15
-15
-15
-16
-15
-14
-15
-16
-15
-16
-16
-16
-16
-16
-17
-18
-17
-17
-17
-17
-18
-18
-19
-19
-19
-20
-20
-20
-21
-21
-22
-22
-22
-22
-24
-25
-24
-24
-25
-25
-26
-26
-26
-26
-26
-26
-26
-26
-27
-26
-25
-25
-25
-25
-25
-24
-23
-23
-22
-22
-22
-22
-22
-22
-20
-20
-20
-20
-21
-20
-20
-18
-19
-19
-19
-20
-19
-18
-18
-18
-18
-18
-18
-18
-17
-17
-17
-17
-17
-16
-16
-14
-14
-14
-14
-13
-11
-10
-8
-5
-4
-1
1
6
9
14
18
22
27
33
41
48
57
65
73
82
90
98
105
110
115
119
122
125
126
124
121
116
110
103
94
82
70
55
38
22
6
-13
-31
-51
-71
-91
-110
-129
-147
-166
-184
-202
-220
-237
-253
-268
-283
-296
-310
-322
-333
-342
-349
-357
-363
-367
-369
-370
-367
-365
-359
-354
-346
-335
-324
-311
-297
-283
-268
-251
-235
-218
-201
-185
-170
-155
-141
-126
-113
-101
-90
-80
-72
-63
-54
-47
-41
-36
-32
-27
-24
-21
-19
-18
-16
-15
-15
-13
-12
-12
-12
-12
-13
-13
-12
-12
-12
-12
-13
-14
-13
-12
-12
-11
-12
-12
-12
-11
-9
-9
-9
-9
-8
-7
-6
-5
-4
-4
-3
-3
-3
-1
-1
0
0
-1
0
1
1
2
2
2
2
2
3
4
4
5
4
4
5
6
6
7
7
7
8
9
10
10
11
11
12
13
13
13
14
15
15
16
16
17
18
19
19
19
20
20
21
22
22
22
22
23
24
26
26
26
27
27
29
30
30
30
31
32
33
34
35
36
37
37
38
39
40
43
43
45
45
46
47
49
49
51
51
52
53
55
57
58
59
60
62
62
65
66
67
68
69
69
70
72
74
75
76
76
77
79
80
82
83
84
85
86
89
90
91
93
94
95
97
99
101
102
103
104
106
108
111
112
113
114
116
118
120
123
124
126
127
128
130
132
134
135
136
136
136
137
138
139
139
138
138
138
139
138
137
136
135
133
133
131
131
130
128
125
125
124
122
121
119
118
116
115
115
113
112
111
108
107
106
104
103
102
100
97
96
94
92
91
89
86
85
83
81
78
76
74
70
69
66
64
61
58
56
53
51
48
46
44
41
39
37
34
32
30
28
26
23
23
21
19
18
17
14
12
11
10
9
8
6
5
4
3
2
2
0
-1
-2
-3
-4
-4
-4
-5
-7
-7
-8
-8
-9
-9
-9
-11
-10
-11
-11
-11
-11
-12
-12
-13
-12
-13
-13
-13
-13
-14
-15
-15
-15
-15
-15
-16
-15
-16
-16
-15
-16
-16
-16
-16
-17
-16
-16
-16
-16
-17
-17
-16
-16
-16
-16
-17
-16
-17
-16
-16
-16
-17
-17
-18
-17
-16
-17
-17
-17
-18
-18
-17
-17
-16
-17
-17
-17
-16
-15
-14
-14
-13
-14
-12
-11
-9
-7
-6
-3
-1
2
6
10
14
19
25
30
38
45
53
63
70
79
87
96
104
110
116
121
124
126
128
127
124
119
111
101
89
77
61
43
24
1
-21
-45
-70
-96
-124
-152
-180
-208
-237
-264
-292
-318
-344
-368
-390
-410
-428
-444
-458
-469
-477
-482
-483
-483
-480
-474
-466
-455
-441
-424
-407
-386
-365
-342
-319
-295
-271
-247
-225
-203
-181
-161
-141
-124
-108
-93
-80
-67
-56
-46
-38
-31
-25
-20
-15
-10
-7
-4
-3
-1
0
2
3
3
4
3
4
4
4
4
5
4
4
4
5
6
6
6
6
6
7
7
7
8
8
8
8
8
9
8
9
9
10
10
10
11
11
12
12
12
13
13
14
14
15
15
14
14
16
16
17
17
16
16
17
17
19
19
18
18
18
20
20
21
21
21
21
22
22
23
24
24
24
25
25
26
28
28
27
28
28
29
30
30
31
31
31
32
32
34
34
35
35
35
36
37
38
39
39
39
40
40
42
42
43
42
42
43
43
43
44
44
44
43
43
44
45
44
44
44
43
44
45
45
45
45
46
46
47
48
49
50
51
51
53
54
55
56
57
58
59
61
63
65
65
66
68
69
71
72
74
74
75
77
77
79
81
81
82
83
83
85
86
87
88
89
89
90
91
93
93
94
94
94
95
96
97
97
98
98
99
99
100
101
100
100
100
100
101
101
102
101
101
100
100
101
101
101
101
99
99
100
100
100
98
98
96
96
95
96
96
94
93
92
91
91
90
89
87
86
85
84
83
82
80
78
76
75
73
72
71
69
67
65
64
63
61
60
57
55
54
52
51
49
48
45
43
42
41
40
38
36
35
34
33
32
31
30
28
27
26
25
24
24
22
21
20
19
18
18
17
16
15
14
15
14
15
14
13
12
13
12
12
13
11
11
10
10
10
10
9
9
8
7
7
6
6
5
4
2
1
1
0
0
-1
-2
-3
-3
-4
-3
-3
-5
-5
-4
-5
-5
-4
-4
-4
-5
-5
-5
-4
-4
-4
-5
-5
-5
-5
-5
-5
-5
-5
-5
-5
-4
-5
-5
-5
-5
-5
-6
-4
-5
-5
-6
-6
-7
-5
-5
-5
-6
-6
-6
-6
-6
-6
-6
-6
-6
-7
-6
-6
-7
-7
-8
-8
-8
-7
-7
-7
-7
-8
-7
-7
-6
-5
-5
-6
-6
-6
-5
-4
-4
-3
-5
-4
-4
-4
-3
-3
-4
-4
-4
-3
-3
-3
-3
-4
-4
-4
-3
-3
-2
-3
-3
-3
-3
-2
-2
-2
-2
-2
-2
-1
-1
-1
-1
-1
-1
-2
0
-1
-1
-1
-3
-3
-3
-2
-2
-3
-3
-4
-4
-4
-4
-3
-3
-3
-5
-5
-3
-3
-4
-4
-4
-5
-5
-5
-5
-4
-4
-5
-5
-5
-4
-4
-4
-3
-4
-4
-4
-2
-3
-2
-2
-3
-3
-2
-1
-1
-1
-2
-2
-1
-2
-2
-2
-3
-4
-5
-5
-4
-5
-6
-7
-9
-8
-9
-9
-9
-10
-11
-10
-11
-11
-11
-11
-12
-12
-12
-12
-11
-12
-13
-13
-12
-13
-12
-12
-12
-13
-13
-13
-13
-12
-12
-12
-13
-13
-13
-13
-12
-12
-13
-13
-13
-13
-13
-12
-12
-13
-14
-14
-14
-14
-13
-13
-13
-14
-14
-14
-13
-13
-13
-14
-14
-14
-13
-13
-13
-14
-14
-14
-14
-14
-13
-14
-15
-15
-15
-15
-15
-14
-14
-15
-15
-16
-15
-16
-16
-16
-17
-17
-16
-16
-16
-16
-16
-18
-17
-17
-17
-16
-17
-17
-18
-17
-16
-16
-16
-17
-17
-17
-16
-16
-16
-16
-16
-16
-16
-16
-16
-15
-15
-16
-16
-15
-15
-14
-14
-15
-15
-15
-14
-14
-14
-14
-14
-14
-14
-14
-14
-13
-14
-13
-14
-14
-13
-12
-13
-14
-14
-14
-13
-13
-12
-13
-13
-13
-13
-13
-11
-12
-12
-12
-12
-12
-11
-10
-10
-10
-10
-9
-9
-8
-8
-9
-9
-10
-9
-10
-9
-10
-10
-11
-12
-12
-12
-12
-13
-14
-15
-15
-16
-15
-16
-16
-17
-17
-17
-17
-16
-17
-17
-17
-17
-17
-17
-17
-16
-16
-17
-17
-17
-17
-16
-16
-17
-18
-18
-18
-18
-17
-17
-17
-18
-17
-16
-14
-13
-11
-9
-6
-3
1
6
9
13
18
23
30
38
46
54
63
72
80
89
98
105
110
116
120
123
126
127
126
123
118
111
103
94
81
68
52
36
20
2
-16
-36
-57
-77
-97
-116
-134
-153
-172
-190
-208
-225
-241
-256
-270
-284
-297
-309
-319
-329
-336
-343
-349
-354
-356
-357
-355
-352
-348
-343
-336
-328
-317
-305
-292
-279
-265
-249
-234
-217
-201
-185
-169
-154
-139
-123
-109
-96
-84
-73
-63
-54
-45
-37
-30
-24
-19
-14
-11
-7
-4
-3
-1
1
2
3
6
6
7
7
7
8
8
8
10
9
8
9
9
10
11
11
10
9
9
10
11
11
11
10
10
10
11
11
11
11
10
10
10
11
12
12
11
11
11
12
13
13
13
13
13
14
15
16
17
18
18
18
19
21
21
22
22
23
24
25
27
27
28
28
29
30
30
31
32
33
33
33
34
36
36
37
37
38
38
39
40
41
41
41
41
41
41
43
43
42
42
42
42
43
43
43
43
42
42
43
43
43
44
42
42
42
42
42
42
43
42
42
42
42
42
43
43
42
43
43
44
45
45
45
46
47
49
50
50
52
52
52
54
56
58
59
59
61
62
64
65
67
68
69
70
72
73
75
76
77
78
79
81
82
84
85
86
87
88
89
92
93
94
94
95
96
98
99
101
101
101
102
103
104
106
106
107
107
108
109
111
111
112
111
111
112
113
114
114
115
114
115
115
115
115
115
114
114
113
113
113
112
112
110
109
108
108
107
106
103
103
101
100
99
98
96
94
93
91
90
88
87
85
82
81
78
76
75
73
70
68
66
64
62
61
59
57
55
52
52
50
48
46
45
42
41
40
38
37
35
33
31
30
29
28
27
24
23
21
21
20
19
18
17
15
15
15
15
14
13
12
11
11
11
12
11
10
10
10
10
11
11
11
9
9
9
11
11
11
10
10
11
11
12
12
12
12
11
11
12
13
13
13
11
11
11
11
12
11
9
8
7
7
6
6
4
3
1
1
1
0
0
-1
-2
-3
-4
-4
-4
-5
-6
-7
-8
-8
-7
-8
-8
-9
-10
-10
-9
-9
-9
-10
-10
-11
-11
-11
-11
-11
-11
-13
-13
-13
-12
-12
-12
-12
-12
-13
-13
-11
-12
-12
-12
-13
-12
-12
-11
-12
-11
-12
-12
-12
-12
-11
-11
-12
-11
-11
-11
-9
-10
-10
-10
-9
-8
-8
-7
-6
-7
-6
-7
-6
-6
-5
-5
-4
-3
-1
1
4
6
9
12
15
19
23
28
33
38
43
51
58
65
72
79
85
91
95
101
104
105
106
106
102
98
93
86
77
66
52
38
23
7
-12
-33
-54
-76
-98
-119
-142
-165
-189
-212
-236
-258
-279
-298
-317
-336
-351
-364
-376
-384
-390
-395
-398
-398
-396
-391
-383
-373
-361
-348
-332
-315
-295
-275
-255
-235
-214
-194
-174
-154
-135
-117
-101
-85
-71
-57
-45
-35
-25
-17
-10
-3
2
6
10
13
14
17
19
20
22
22
22
23
22
23
23
22
22
20
20
19
19
19
18
16
15
14
13
14
14
13
12
12
11
11
12
13
12
11
10
11
12
12
13
13
12
12
13
14
14
14
14
15
15
16
16
17
16
15
16
16
18
18
17
18
17
17
17
18
18
18
18
18
18
18
19
19
19
19
18
19
19
19
19
19
19
19
18
19
20
19
18
19
19
20
20
21
20
20
21
21
22
22
22
23
23
23
23
24
25
25
25
25
25
27
27
28
28
27
28
29
30
30
31
31
31
32
32
34
34
35
35
35
37
38
39
41
42
42
43
45
47
49
50
51
52
53
55
56
57
59
60
61
63
64
66
68
69
70
71
72
74
75
76
77
77
78
79
82
82
84
84
85
86
87
89
90
91
91
92
94
95
96
96
98
98
98
100
100
101
101
100
101
101
101
101
101
100
100
98
97
97
97
96
95
92
92
91
91
90
89
87
86
84
85
84
83
82
79
78
77
76
76
74
72
71
68
67
66
65
63
62
60
59
57
56
54
52
51
49
48
47
46
44
43
41
39
38
36
35
34
33
31
30
29
28
28
27
25
25
24
23
22
21
19
18
17
17
16
15
14
12
12
11
10
10
9
8
6
5
4
4
4
3
2
2
2
1
2
2
2
1
2
2
3
4
5
5
6
5
6
8
8
9
9
9
9
10
11
12
12
13
14
14
14
16
16
15
16
17
17
17
18
18
18
19
18
18
19
19
19
19
19
19
20
20
20
20
19
20
19
20
21
20
20
20
19
19
20
20
19
18
18
17
18
17
18
17
16
16
16
15
15
14
14
13
13
13
14
13
14
13
13
12
13
13
14
13
13
12
13
13
13
14
13
13
12
13
13
12
12
12
12
11
12
12
12
12
12
12
12
13
12
12
12
12
12
12
12
12
12
11
12
11
12
12
12
11
11
10
11
11
10
11
10
10
10
9
10
10
9
9
9
9
9
10
10
9
9
9
9
9
9
9
9
8
8
9
9
8
9
7
8
8
8
8
8
7
7
6
7
7
7
6
6
6
6
6
6
6
6
6
5
6
5
6
5
5
5
4
4
4
3
3
3
3
2
3
3
3
2
2
2
3
3
4
4
4
4
5
6
6
7
8
8
8
9
10
10
10
11
10
10
10
11
11
11
10
9
9
9
8
8
7
6
5
4
4
3
3
2
1
0
-1
-1
-1
-2
-2
-3
-3
-4
-4
-3
-4
-5
-5
-5
-5
-4
-5
-5
-6
-5
-5
-5
-5
-5
-5
-5
-5
-5
-5
-5
-5
-5
-5
-5
-5
-6
-6
-6
-6
-6
-7
-7
-7
-7
-7
-8
-8
-7
-7
-8
-8
-7
-7
-8
-7
-8
-7
-8
-7
-6
-7
-7
-7
-6
-6
-6
-6
-6
-6
-5
-5
-5
-6
-6
-6
-5
-5
-5
-5
-6
-5
-4
-4
-4
-4
-4
-4
-4
-3
-3
-3
-3
-3
-3
-2
-2
-3
-2
-2
-3
-2
-2
-2
-2
-2
-2
-2
-3
-1
-2
-2
-3
-3
-3
-2
-2
-2
-3
-3
-3
-3
-3
-3
-3
-3
-3
-4
-3
-2
-2
-2
-2
-3
-3
-2
-1
-1
-1
-2
-1
-1
-1
0
0
0
-1
0
0
1
1
0
0
0
-1
0
1
0
0
0
0
0
0
1
1
0
0
-1
0
1
1
1
2
3
4
6
9
12
14
16
20
24
29
34
39
44
50
57
66
74
83
92
100
107
114
122
127
133
136
138
140
141
139
136
131
124
115
105
93
79
65
48
31
14
-5
-24
-42
-61
-82
-101
-119
-137
-154
-172
-190
-207
-223
-238
-251
-264
-276
-289
-300
-309
-317
-324
-328
-332
-336
-337
-336
-333
-328
-322
-315
-307
-297
-285
-272
-259
-244
-229
-214
-198
-182
-167
-151
-136
-122
-109
-96
-84
-72
-60
-50
-42
-35
-27
-21
-15
-11
-7
-4
0
2
4
7
9
10
11
11
13
13
14
15
14
15
14
16
16
16
17
16
16
16
17
18
18
17
17
18
18
18
19
20
19
19
19
19
21
21
21
21
20
20
21
22
22
23
23
22
23
24
25
25
25
24
25
26
26
27
26
26
26
26
27
27
27
27
27
26
27
27
28
28
28
27
27
28
29
29
30
29
30
30
31
31
32
32
32
32
33
34
34
35
34
35
35
35
36
37
37
36
37
37
38
38
39
40
40
40
41
42
42
44
44
44
45
47
48
49
49
50
51
52
54
55
56
58
58
60
61
62
63
65
66
67
68
70
72
73
74
75
76
77
79
81
81
82
83
84
86
87
89
90
91
92
93
95
96
97
98
99
100
101
104
105
106
108
109
110
112
113
116
117
118
119
120
122
123
125
125
126
127
128
129
130
131
131
131
132
133
133
133
134
134
133
133
133
135
135
134
133
133
133
133
132
132
131
130
129
129
129
129
128
126
124
124
122
121
120
119
117
114
113
112
110
108
106
104
101
100
98
97
95
91
90
88
85
85
82
80
78
76
74
72
70
69
67
64
62
61
59
58
56
54
51
49
47
46
43
41
39
37
35
33
32
30
28
25
24
23
22
21
19
17
16
15
15
13
13
12
11
10
10
9
8
8
8
7
6
6
7
7
7
6
5
5
5
5
4
4
3
3
2
2
3
2
1
1
1
1
1
1
1
1
1
1
1
1
2
1
1
1
1
1
2
2
2
1
0
1
2
2
1
0
-1
-1
0
0
0
-1
-1
-2
-1
-1
-1
-1
-2
-2
-2
-2
-1
-2
-2
-2
-3
-3
-3
-3
-3
-4
-4
-4
-4
-5
-5
-5
-6
-6
-7
-7
-6
-6
-6
-7
-7
-7
-7
-7
-6
-7
-8
-7
-7
-7
-7
-7
-7
-7
-7
-6
-5
-4
-4
-4
-4
-4
-2
-2
-1
-1
0
0
2
2
4
5
5
6
6
8
9
11
11
12
12
14
16
17
20
22
24
27
30
34
38
41
46
50
55
60
66
74
81
87
94
101
109
116
121
125
129
132
133
134
133
129
125
118
110
101
89
76
62
45
27
9
-10
-31
-51
-74
-97
-119
-141
-164
-185
-207
-228
-249
-267
-285
-300
-316
-328
-340
-350
-357
-361
-364
-364
-364
-360
-355
-347
-337
-325
-310
-296
-279
-261
-242
-222
-203
-185
-166
-149
-132
-114
-98
-83
-70
-58
-48
-38
-29
-22
-15
-9
-6
-2
1
4
6
7
9
9
9
11
12
13
12
12
13
13
13
14
13
13
14
14
14
15
16
16
16
16
17
18
19
20
19
20
20
21
21
23
23
23
23
23
24
25
26
27
26
26
26
27
29
29
29
29
28
29
29
31
31
31
32
32
33
33
34
34
34
34
34
35
36
36
36
36
36
36
37
37
38
37
37
38
38
38
39
39
40
39
39
40
40
40
41
41
41
42
42
43
43
44
44
45
47
47
48
49
49
49
50
50
51
52
51
52
52
52
52
52
52
52
52
52
53
53
54
53
53
53
53
53
55
55
56
56
55
56
58
59
60
60
59
60
61
63
64
64
65
65
66
68
69
70
71
72
72
73
75
76
77
78
78
80
81
84
85
86
86
87
88
90
92
92
93
94
95
96
98
99
101
101
101
102
103
105
105
106
106
105
105
107
108
108
107
107
106
107
107
107
107
106
105
105
105
105
105
105
103
103
102
102
102
101
101
99
97
97
97
96
95
94
93
92
90
89
89
87
86
84
83
82
81
79
78
77
75
74
73
72
71
69
67
66
65
65
64
62
60
58
57
55
55
53
52
49
48
47
45
44
43
40
39
38
37
37
35
34
33
32
31
31
31
30
29
28
27
27
27
27
27
26
26
25
26
26
27
26
25
25
24
25
25
25
25
24
23
22
22
23
22
21
20
19
19
19
19
18
17
17
16
16
16
16
15
15
15
15
15
16
16
16
15
15
16
16
16
16
17
17
16
17
17
18
18
18
17
18
18
19
19
19
19
19
21
21
22
22
22
22
22
23
24
24
24
24
24
25
26
26
26
26
27
27
27
28
28
29
28
28
29
29
30
30
30
30
29
30
30
30
30
30
29
29
30
31
30
30
30
30
30
30
31
31
30
29
29
29
29
30
29
29
28
29
29
30
30
29
29
28
29
29
29
29
29
29
29
30
30
30
31
30
30
30
30
31
31
31
30
30
30
30
30
30
29
29
29
29
30
30
29
29
29
29
29
29
30
30
29
29
29
29
30
30
29
29
28
28
29
29
29
28
28
28
28
29
29
28
28
27
27
27
27
27
26
25
25
25
25
25
24
24
23
23
23
23
24
23
23
23
23
23
24
24
23
23
23
24
24
25
24
24
24
23
23
23
23
23
22
22
22
20
21
21
19
19
18
18
18
18
17
17
16
16
16
16
17
16
16
16
17
18
19
19
20
22
23
26
29
33
36
39
44
48
54
59
65
71
79
86
95
104
114
123
131
137
143
150
155
159
162
162
161
160
156
151
144
134
122
109
95
81
64
46
27
9
-11
-31
-50
-69
-89
-108
-125
-144
-161
-177
-193
-209
-224
-237
-250
-260
-271
-280
-289
-297
-303
-307
-310
-310
-310
-309
-306
-301
-295
-286
-276
-266
-254
-241
-228
-213
-198
-183
-168
-153
-138
-124
-110
-96
-83
-71
-60
-50
-40
-30
-22
-15
-9
-4
1
5
10
13
16
18
19
22
24
25
27
26
27
28
29
30
30
30
31
30
31
31
33
32
33
33
33
34
35
36
36
36
36
37
38
39
40
40
40
40
41
42
42
43
43
43
44
44
45
45
46
46
46
47
48
49
49
49
49
49
50
51
51
52
51
50
51
52
52
53
53
53
53
53
54
54
55
54
54
54
55
54
55
55
54
54
54
53
54
55
54
54
53
53
53
54
54
54
54
54
55
56
56
57
57
57
57
58
59
60
60
61
61
62
63
64
65
66
65
67
67
69
70
71
71
72
73
74
76
78
79
80
81
82
83
85
87
88
90
90
92
93
96
97
98
98
100
102
103
105
106
107
109
109
112
114
116
117
118
120
121
124
125
127
128
130
131
133
136
137
139
141
142
144
146
148
150
150
151
153
154
155
157
158
159
158
159
160
162
162
163
163
162
163
164
164
165
165
164
163
163
164
165
164
163
163
162
162
163
162
161
160
160
159
158
157
157
155
154
152
151
150
149
146
145
143
140
139
137
135
132
130
127
125
123
120
118
116
112
110
108
105
103
101
97
94
92
89
87
86
83
81
79
76
75
74
72
70
68
67
65
64
63
61
60
58
57
57
57
56
55
54
54
53
53
53
53
53
52
51
50
51
50
50
48
46
46
45
44
44
42
41
40
39
38
37
36
36
34
33
32
31
32
31
30
28
28
27
27
28
27
26
25
26
26
26
26
26
25
24
25
24
24
24
23
23
23
22
23
23
22
22
22
22
22
23
22
23
22
22
22
22
23
23
22
22
22
22
23
22
22
22
22
21
22
22
23
22
21
21
22
22
21
22
21
20
21
21
21
22
21
21
21
21
21
22
23
23
23
22
23
24
24
25
24
25
25
26
26
27
27
27
26
27
28
28
29
28
29
28
29
30
30
30
30
29
28
29
29
29
29
28
28
28
28
28
29
28
28
28
28
29
29
30
29
29
30
31
31
32
33
33
34
35
35
37
37
37
38
38
39
40
41
42
42
41
42
43
44
45
45
45
45
46
46
47
48
47
47
48
48
49
50
50
50
50
50
51
52
53
52
52
53
53
53
54
54
54
53
53
53
53
53
52
51
50
50
49
49
48
47
46
45
44
45
44
44
43
42
41
41
40
40
39
38
37
37
37
37
36
35
35
35
34
35
35
35
34
34
34
35
35
36
35
35
34
35
35
36
35
36
36
35
35
36
37
36
36
35
36
36
36
37
37
36
37
37
37
37
38
39
38
38
38
39
40
40
40
39
40
40
41
42
42
41
41
41
41
41
41
41
41
41
41
40
41
40
39
39
38
39
38
38
38
37
36
36
36
36
36
35
34
34
34
35
35
35
35
35
35
36
36
38
39
40
41
43
46
49
52
56
59
63
68
73
78
84
91
97
104
113
122
131
140
148
154
161
167
172
177
180
181
182
181
179
175
168
159
150
138
126
112
97
80
63
45
27
8
-11
-29
-48
-67
-86
-104
-122
-139
-156
-174
-190
-205
-220
-233
-246
-258
-269
-279
-288
-295
-299
-303
-305
-305
-304
-301
-296
-288
-280
-270
-259
-246
-231
-217
-201
-185
-169
-153
-137
-120
-105
-90
-77
-63
-51
-39
-28
-17
-9
-2
5
11
17
22
27
31
32
35
37
40
41
43
44
45
45
45
46
47
47
47
46
47
46
47
47
47
47
47
47
47
47
48
47
47
46
47
48
48
48
48
48
47
48
48
49
48
47
47
46
46
46
46
45
45
45
45
46
46
46
45
45
45
45
46
46
46
46
46
46
48
48
49
49
50
50
51
52
53
53
54
54
54
55
56
57
57
58
58
58
59
60
61
61
61
62
63
63
64
64
64
64
65
65
66
68
68
68
68
69
70
71
71
72
73
73
75
76
77
78
79
79
81
82
83
85
86
87
87
88
89
91
92
92
93
94
95
97
97
98
99
100
100
101
102
103
103
104
105
106
106
108
109
110
111
112
113
115
117
118
119
120
122
124
125
127
128
129
131
132
134
136
137
138
139
141
143
144
147
148
149
150
151
153
154
155
156
157
158
158
160
161
162
162
162
163
163
164
164
165
165
163
164
165
163
164
163
162
161
162
161
161
159
159
157
157
155
155
154
153
152
150
148
147
146
145
143
141
139
138
136
134
133
131
129
126
125
123
121
119
117
114
112
111
109
107
104
101
99
97
94
93
91
88
86
84
82
80
79
76
74
71
69
68
67
66
64
62
60
59
58
57
56
54
53
52
51
52
51
50
49
48
47
47
47
47
46
45
44
44
44
43
42
41
40
40
39
39
38
38
37
35
35
34
34
34
32
31
30
29
29
29
29
28
27
27
27
27
27
27
27
27
26
26
26
27
27
26
26
26
26
27
27
26
26
27
26
27
26
26
26
25
25
26
26
25
25
25
24
24
23
24
23
23
22
22
22
22
22
22
21
20
20
20
20
20
19
19
18
17
18
18
17
17
17
16
16
16
17
16
16
16
15
15
17
16
17
16
16
16
16
17
17
18
17
18
19
20
20
21
20
21
21
21
22
23
23
23
24
23
24
25
26
26
26
26
26
27
28
29
28
29
29
29
30
31
31
30
31
31
32
33
33
34
34
34
35
36
37
37
37
37
37
38
39
39
40
40
40
40
41
42
42
42
41
41
41
42
42
41
41
40
40
40
41
41
39
40
38
37
38
39
38
37
37
36
37
37
37
37
36
35
35
35
37
36
36
35
35
35
35
35
36
35
35
35
35
35
35
35
35
34
34
34
34
34
33
32
32
32
32
31
31
31
31
30
29
29
30
30
29
29
28
29
29
29
28
28
28
28
29
29
30
30
29
29
29
30
30
30
30
29
29
30
31
30
31
29
30
30
30
30
30
29
28
29
29
29
29
29
29
27
28
28
29
28
28
28
28
27
28
28
27
27
27
27
27
27
27
27
27
26
26
26
28
29
28
27
26
27
28
28
29
28
28
28
28
29
30
30
30
29
29
30
31
32
31
31
31
31
32
32
33
32
32
32
32
32
32
32
31
30
30
31
30
30
29
29
27
28
27
28
28
26
26
25
26
26
26
26
25
25
24
25
24
24
24
23
23
23
23
23
23
22
22
21
21
22
22
22
21
21
20
20
20
20
19
19
18
18
18
18
17
17
16
16
16
16
16
16
16
15
15
15
16
16
17
16
16
15
17
17
18
17
18
18
20
22
23
25
28
30
32
36
41
45
50
54
58
65
72
79
88
96
105
114
122
130
138
143
149
154
157
161
163
162
159
156
151
143
135
125
112
97
82
66
49
31
14
-6
-25
-46
-65
-84
-102
-121
-140
-159
-177
-193
-210
-225
-240
-254
-268
-280
-291
-301
-309
-316
-323
-327
-330
-330
-329
-327
-322
-316
-308
-299
-288
-274
-261
-247
-231
-215
-198
-180
-164
-147
-130
-115
-100
-84
-70
-57
-45
-35
-25
-15
-6
2
8
12
18
21
25
30
32
35
36
37
38
40
40
41
41
41
41
41
42
43
43
42
42
42
42
44
44
44
44
43
43
44
44
45
44
44
44
44
45
45
45
45
44
44
45
45
45
45
44
44
44
45
46
45
46
44
45
45
45
46
46
46
46
46
47
48
48
49
48
49
49
50
51
52
52
53
53
54
55
55
56
56
56
57
57
58
59
59
60
60
60
61
62
63
63
62
63
64
64
65
65
66
66
67
67
68
69
70
70
70
70
72
73
73
73
74
73
74
75
76
77
77
77
78
79
80
81
82
82
82
83
84
86
87
87
88
89
90
92
93
95
95
97
98
100
101
103
104
105
106
108
110
112
114
115
116
117
119
122
123
126
126
129
130
132
135
137
138
139
141
143
145
146
148
149
150
151
152
153
155
156
157
157
158
160
161
162
162
163
163
165
166
167
168
168
168
169
169
170
171
171
170
170
170
171
171
172
171
171
169
169
169
169
168
167
165
164
163
163
162
161
159
157
156
155
153
151
149
147
145
143
141
139
137
134
131
129
126
125
121
119
117
114
111
109
107
105
103
100
97
95
93
91
90
87
84
82
81
79
77
76
73
72
70
69
68
66
65
64
61
60
60
59
57
56
54
53
52
51
50
49
48
46
45
45
44
44
43
42
41
40
40
40
39
39
38
37
37
37
37
37
36
36
36
35
35
36
35
35
35
35
35
35
35
35
35
34
34
34
34
34
34
34
34
35
35
35
36
36
35
36
36
37
37
38
36
36
36
37
38
38
37
37
36
37
38
37
37
36
35
34
34
35
35
34
33
33
32
33
33
33
34
34
35
37
40
43
45
48
51
57
62
67
75
81
88
97
106
115
124
133
139
146
154
160
166
170
171
172
170
167
162
155
145
133
118
101
83
63
43
20
-4
-31
-57
-85
-112
-141
-170
-199
-228
-256
-282
-307
-331
-354
-375
-393
-408
-421
-431
-439
-444
-445
-444
-439
-432
-423
-410
-396
-379
-360
-338
-316
-292
-269
-245
-222
-198
-174
-151
-130
-110
-91
-73
-56
-41
-27
-15
-5
4
12
18
25
30
35
38
40
43
46
47
49
49
49
50
50
50
51
51
50
50
50
49
51
50
50
50
50
50
50
52
52
51
52
52
53
54
55
55
55
56
56
57
58
58
59
59
59
59
61
61
62
62
62
63
63
65
65
65
65
65
66
67
67
67
68
67
67
67
68
69
68
68
67
67
68
69
69
68
68
67
67
68
68
68
68
67
67
67
67
68
68
68
68
68
69
69
69
70
70
71
71
72
73
73
73
74
74
75
76
78
78
79
79
80
81
83
83
84
84
85
85
86
87
88
88
88
88
89
90
90
92
91
92
92
93
93
95
96
95
95
96
98
99
99
100
101
101
102
104
105
107
107
109
109
112
113
114
115
116
116
117
120
121
122
123
124
125
126
128
129
130
131
132
133
135
137
138
138
139
140
141
142
144
144
145
146
146
147
148
149
149
150
150
150
151
152
153
153
153
153
153
154
155
155
154
154
154
155
155
155
155
154
154
153
154
155
154
153
152
151
150
151
150
149
148
147
145
144
143
141
140
138
137
135
134
133
131
129
127
124
123
121
120
118
116
113
111
109
109
107
105
103
100
99
97
95
94
92
90
88
85
84
82
80
77
75
73
71
69
69
67
64
62
61
59
58
58
56
54
53
53
51
52
50
49
49
49
48
48
49
49
49
48
49
49
49
49
49
48
49
49
49
49
49
49
48
48
48
48
48
48
47
47
46
46
46
46
45
46
44
44
45
44
44
44
44
44
43
44
44
44
44
44
44
45
46
46
46
45
46
45
46
47
47
48
47
47
47
48
48
48
48
48
48
48
49
48
49
48
48
48
49
50
49
49
49
49
49
49
49
49
49
49
49
49
50
50
50
50
49
50
50
49
49
49
49
49
49
49
49
49
48
48
49
48
48
48
48
48
46
46
47
47
46
46
45
44
45
44
45
44
43
43
43
42
43
42
42
41
41
40
41
41
40
40
39
38
38
38
39
39
38
37
38
38
38
39
39
39
38
38
38
39
39
39
38
38
38
38
39
38
38
37
37
38
38
38
39
37
37
37
37
37
38
36
37
36
36
37
37
37
37
36
36
37
38
37
37
37
37
37
37
38
38
38
36
37
36
37
36
36
36
34
34
35
34
35
34
33
33
32
32
32
32
32
31
31
30
30
31
31
30
30
30
30
30
30
30
29
29
29
29
30
30
29
29
29
30
30
30
30
31
30
30
31
32
32
32
32
31
31
33
33
33
32
33
32
33
33
34
34
34
34
34
35
35
36
37
37
39
40
42
45
48
51
53
58
62
67
73
78
83
90
97
106
114
124
132
140
148
156
162
168
172
175
177
178
178
175
171
165
157
147
136
124
110
94
76
58
39
20
0
-20
-40
-60
-81
-101
-119
-137
-156
-173
-190
-208
-223
-237
-251
-264
-276
-288
-298
-307
-313
-319
-323
-326
-328
-328
-325
-321
-316
-309
-300
-290
-279
-266
-251
-236
-221
-206
-191
-175
-159
-143
-128
-113
-100
-87
-74
-62
-50
-41
-32
-23
-16
-8
-3
2
7
11
14
17
19
21
23
24
25
25
26
26
28
27
26
27
27
27
27
26
27
25
25
25
26
25
25
25
24
24
24
25
25
25
25
24
25
25
25
26
27
27
27
27
28
29
29
29
29
29
30
31
30
31
30
31
31
32
32
32
32
33
32
32
34
34
35
35
35
36
36
38
39
39
39
40
40
41
42
43
43
43
43
44
44
44
44
45
45
45
45
45
46
46
46
45
46
47
48
48
48
47
47
49
49
50
50
50
50
51
52
53
54
55
54
54
55
56
57
58
58
59
60
60
61
62
63
63
63
65
66
67
68
69
70
71
72
73
75
77
77
77
79
79
81
83
84
84
86
87
88
89
92
93
93
95
96
98
100
101
103
103
105
107
109
111
112
114
115
116
118
119
121
122
123
124
125
127
128
129
130
130
131
132
132
133
133
134
134
134
134
135
135
135
134
134
133
134
134
133
133
131
131
130
130
129
128
127
125
123
122
122
120
119
117
116
114
112
111
110
108
105
104
102
100
99
97
95
93
90
88
86
84
82
79
77
74
72
71
68
66
62
59
58
55
53
50
47
45
43
41
39
37
35
32
30
28
27
25
24
22
20
19
18
17
16
15
14
13
12
10
10
10
9
9
7
7
6
5
5
3
3
1
1
1
0
-1
-1
-2
-3
-4
-4
-3
-4
-5
-5
-5
-5
-5
-5
-6
-6
-7
-6
-6
-5
-6
-7
-7
-7
-6
-6
-7
-7
-7
-8
-7
-7
-7
-7
-7
-7
-8
-7
-7
-7
-7
-7
-8
-7
-7
-7
-6
-6
-6
-6
-6
-6
-5
-5
-4
-6
-5
-5
-4
-5
-5
-5
-5
-5
-5
-4
-4
-5
-5
-5
-5
-5
-5
-5
-4
-5
-4
-4
-2
-3
-2
-2
-2
-1
1
1
3
5
6
7
11
13
16
20
23
27
31
36
42
48
55
62
69
78
86
93
101
108
113
118
122
126
127
128
125
122
117
110
101
89
76
60
43
25
4
-17
-41
-65
-90
-116
-141
-168
-194
-220
-247
-273
-298
-320
-342
-362
-380
-395
-409
-420
-428
-434
-436
-436
-434
-429
-420
-409
-395
-380
-363
-344
-324
-302
-278
-255
-232
-210
-187
-166
-145
-124
-106
-89
-73
-59
-46
-33
-22
-13
-6
0
6
12
16
20
23
25
26
27
28
28
30
30
29
29
29
30
30
30
30
30
30
30
30
30
30
31
30
30
30
32
32
31
31
32
33
33
33
34
34
33
34
34
36
35
36
37
37
37
38
38
39
39
39
39
39
40
40
40
41
41
42
41
42
42
42
42
42
42
42
43
42
42
42
42
42
42
43
42
42
42
42
42
43
43
44
44
44
44
45
46
47
47
47
48
50
51
52
53
54
54
55
56
58
58
59
58
59
59
60
61
61
61
61
61
62
63
64
63
64
64
64
65
66
66
67
67
68
68
70
71
72
72
73
75
76
77
79
80
80
81
82
83
85
85
86
87
88
88
90
91
91
93
93
94
95
96
98
99
100
101
103
104
105
107
108
109
110
111
113
114
115
117
117
118
119
120
121
122
123
123
123
124
124
125
125
125
124
125
125
126
125
125
125
125
125
126
126
126
125
125
124
125
125
125
125
124
124
123
123
123
122
122
121
120
119
120
119
118
117
116
115
114
113
112
110
109
107
106
105
104
103
101
100
98
96
95
95
92
91
88
87
86
85
84
82
81
79
78
77
77
75
73
72
70
69
68
67
66
64
62
61
59
58
56
55
53
52
50
50
49
48
46
45
45
44
44
44
43
43
42
43
42
44
43
43
43
42
42
42
43
43
42
42
42
42
42
42
42
41
40
40
41
41
41
42
41
41
41
41
42
41
42
41
42
42
42
44
44
43
43
44
43
45
44
44
43
43
44
43
44
44
44
44
44
45
45
44
44
45
44
44
45
46
46
46
46
47
47
47
48
48
48
48
48
48
48
49
48
48
47
47
48
48
47
46
46
46
45
46
46
46
45
45
45
44
45
45
44
44
43
43
44
44
45
44
44
43
44
43
44
44
44
44
44
45
44
45
45
45
44
44
44
45
44
44
43
42
42
42
42
42
42
41
40
40
41
41
42
41
41
41
42
42
43
43
43
42
42
43
43
43
42
42
42
42
42
43
43
42
42
41
41
41
41
40
40
39
39
38
39
38
38
38
37
37
37
38
37
37
36
35
36
36
36
36
36
35
35
36
37
36
36
36
35
35
35
36
36
36
36
36
36
36
36
36
35
35
35
36
36
36
35
35
35
35
35
34
34
34
35
35
34
34
34
34
33
33
33
33
33
32
33
32
32
31
32
32
32
31
31
31
31
32
32
32
31
31
31
31
31
31
31
31
31
30
30
31
29
29
28
28
28
28
27
27
26
27
27
26
25
25
25
25
25
25
25
25
25
25
26
26
25
25
26
25
26
25
25
25
27
26
27
26
26
27
27
27
27
27
26
26
26
26
27
26
26
25
25
26
26
26
25
25
23
24
24
25
25
24
24
24
24
25
25
25
25
24
25
25
25
26
25
25
25
25
26
27
27
26
26
26
26
26
27
27
27
27
27
29
31
31
34
35
37
40
44
48
52
56
61
65
71
78
86
93
102
111
120
128
136
144
150
155
160
164
167
169
170
167
164
159
152
144
133
121
106
92
75
59
42
24
4
-17
-36
-56
-73
-92
-111
-130
-149
-166
-183
-198
-214
-228
-242
-255
-267
-278
-287
-295
-303
-309
-312
-314
-315
-314
-311
-307
-301
-294
-284
-273
-261
-248
-234
-220
-205
-188
-173
-156
-141
-126
-111
-96
-82
-69
-57
-47
-36
-27
-18
-9
-3
3
7
12
16
19
22
25
26
27
28
29
31
31
32
32
33
33
33
34
33
34
33
33
34
34
35
35
35
34
35
35
37
37
37
37
37
37
38
38
39
39
39
39
39
40
42
41
42
42
42
42
43
44
45
44
45
45
46
46
47
47
48
47
48
49
50
50
50
50
50
51
52
53
53
53
52
53
53
54
55
55
56
55
56
56
57
57
57
57
58
58
58
59
59
58
58
58
59
59
59
59
59
58
60
60
61
61
61
61
62
63
65
66
66
67
67
68
69
71
71
72
72
73
74
75
76
77
78
78
79
80
82
83
83
84
85
86
87
89
90
91
92
93
94
96
97
98
99
100
102
103
104
106
107
108
109
109
112
113
114
116
116
118
119
120
122
123
125
125
126
128
129
131
132
133
134
135
137
138
139
140
140
141
142
143
144
145
145
146
146
146
147
147
147
147
146
147
147
147
146
146
145
145
143
143
143
142
141
140
138
138
137
136
135
133
132
130
130
128
127
125
123
121
120
118
116
114
112
110
108
106
104
103
101
99
96
94
92
91
89
87
85
83
81
80
78
77
75
73
72
70
70
68
67
66
64
63
62
62
60
59
58
57
56
55
55
54
52
51
50
50
48
48
47
46
45
44
44
43
42
42
40
39
38
39
38
38
37
35
35
36
35
34
34
33
32
32
32
31
31
31
30
30
29
30
30
30
30
29
29
29
30
30
30
30
30
30
30
30
31
30
30
30
30
31
31
31
30
31
31
31
32
33
32
32
31
31
32
32
32
32
31
31
31
31
31
31
31
30
30
30
30
30
30
29
29
29
29
30
29
29
28
28
28
27
27
27
26
26
25
25
24
25
24
24
22
22
23
22
23
23
23
24
25
27
29
32
33
36
39
44
48
53
57
63
68
74
81
89
97
103
110
116
122
127
132
135
137
137
136
133
129
123
115
104
92
79
63
46
28
8
-14
-36
-60
-83
-107
-132
-158
-182
-207
-232
-254
-277
-298
-317
-335
-351
-364
-375
-384
-390
-394
-395
-393
-388
-381
-373
-361
-348
-332
-314
-294
-274
-253
-232
-210
-188
-166
-143
-123
-104
-87
-70
-54
-39
-25
-14
-3
6
14
21
27
32
37
39
43
46
48
50
51
52
53
54
54
55
55
55
55
55
54
54
55
55
55
55
54
54
55
55
56
56
55
55
55
56
56
56
57
56
57
57
59
59
59
58
58
57
59
59
60
59
59
59
59
59
59
59
60
59
59
60
60
60
60
60
59
59
60
60
60
60
60
60
60
59
60
60
60
59
60
59
60
60
60
60
59
60
60
61
61
61
61
61
61
62
63
63
64
64
64
65
66
67
67
67
68
68
69
70
70
70
70
70
71
71
72
72
73
72
72
73
74
74
75
74
74
75
75
76
76
76
76
76
77
78
79
80
80
81
82
83
84
86
87
87
89
90
92
94
96
96
98
99
101
102
104
105
106
107
109
110
111
112
113
114
115
115
116
117
117
118
118
119
120
121
122
123
124
124
125
126
128
128
129
129
130
131
132
133
134
134
135
135
136
137
137
138
138
138
138
138
139
139
139
139
139
139
139
139
139
138
137
137
136
136
136
135
133
132
132
131
130
129
128
126
125
123
122
122
121
119
117
115
114
113
112
110
109
108
106
105
103
103
101
99
98
97
96
95
94
92
91
90
89
88
87
86
85
83
82
81
81
80
79
77
76
74
74
73
73
72
71
70
69
68
68
68
66
65
65
65
65
65
64
63
63
62
63
63
63
62
61
61
62
62
62
62
60
60
60
61
61
61
61
61
61
61
61
61
61
60
60
60
60
59
60
60
59
58
58
59
58
58
58
57
57
55
56
56
55
55
53
53
53
52
51
51
50
49
49
48
48
47
47
47
45
45
45
46
46
45
45
45
46
46
47
47
46
46
47
47
48
48
49
48
49
49
49
50
50
50
50
50
50
52
52
52
53
52
53
54
55
55
55
55
55
55
56
57
58
58
58
58
59
59
59
61
60
60
60
61
62
62
62
62
62
62
62
63
63
62
62
62
63
63
63
64
63
63
63
63
63
64
64
63
63
62
64
63
63
63
63
62
63
63
63
63
63
62
62
62
64
63
63
62
62
62
62
62
62
61
60
59
60
59
59
59
57
57
57
57
58
58
57
57
56
56
57
56
56
56
56
56
56
56
57
57
57
56
55
55
56
56
55
54
54
53
55
54
54
53
52
52
52
52
52
51
51
49
49
50
49
48
48
48
47
46
46
46
45
45
44
43
44
43
43
43
43
42
42
42
43
44
45
45
46
47
50
52
55
58
61
65
70
75
80
85
91
98
105
114
123
132
141
150
159
167
175
181
188
192
196
199
200
200
199
195
189
181
172
162
149
135
119
103
84
66
48
29
9
-11
-30
-50
-69
-86
-104
-122
-139
-156
-171
-186
-199
-211
-223
-234
-244
-253
-259
-265
-269
-272
-274
-275
-273
-269
-264
-258
-251
-242
-231
-219
-206
-193
-179
-166
-150
-135
-120
-105
-91
-77
-63
-51
-38
-26
-16
-6
3
10
17
24
31
36
40
43
46
50
52
55
57
58
59
59
60
62
63
63
63
62
63
64
64
64
64
64
64
63
64
65
65
64
64
63
63
64
64
64
64
63
63
64
65
65
65
65
64
65
65
67
67
66
66
65
66
66
67
67
67
67
67
69
69
70
69
69
69
70
71
71
73
73
73
74
75
76
77
77
78
77
79
79
81
81
82
82
83
84
84
86
87
87
88
88
89
91
92
93
93
94
94
96
97
98
98
99
99
100
101
102
103
103
103
103
104
106
107
107
108
108
109
110
112
112
114
114
115
116
117
118
119
120
120
121
122
124
126
127
128
128
130
132
134
134
135
137
138
139
141
143
144
144
146
148
148
150
152
153
153
155
156
158
159
161
162
163
164
165
166
169
169
171
172
172
174
175
176
177
178
179
180
181
182
184
184
185
185
186
187
188
189
189
190
189
190
191
192
192
191
191
192
192
192
192
192
191
191
191
190
190
189
188
188
186
185
185
183
182
180
178
176
175
174
171
169
165
163
160
158
156
154
150
148
144
142
140
138
135
133
129
128
126
124
123
120
118
116
114
112
111
110
107
105
104
102
101
100
98
96
94
93
92
91
89
89
87
86
84
84
83
82
81
80
79
78
78
77
77
76
75
74
74
74
74
73
71
71
70
70
69
69
69
67
66
66
66
66
66
65
64
64
64
63
64
63
62
62
62
62
62
62
61
60
60
60
60
60
59
59
58
58
58
59
58
58
58
57
57
57
57
58
57
56
56
57
56
57
57
56
55
55
56
56
56
56
55
55
55
55
55
55
54
53
53
53
53
53
53
52
51
52
52
52
53
52
52
52
52
53
53
53
53
53
53
54
54
55
55
55
55
55
56
57
58
58
58
58
58
59
59
59
60
59
59
60
60
61
60
60
60
60
60
60
61
60
59
59
59
59
59
59
59
58
57
58
58
59
58
58
58
58
60
60
60
61
61
61
62
63
64
64
65
64
65
65
66
67
67
67
68
68
69
70
70
71
71
70
70
70
71
71
71
71
71
71
72
72
73
72
72
72
73
73
74
74
74
74
74
75
75
76
75
75
75
75
76
77
77
77
76
76
77
77
77
77
77
76
77
77
77
76
76
76
76
76
76
76
76
75
74
75
75
75
75
75
74
74
74
75
75
74
74
74
73
73
73
73
73
71
72
71
71
72
72
72
70
71
70
70
70
70
70
69
69
69
70
69
69
69
68
69
69
70
70
70
69
68
69
70
70
70
70
69
69
69
70
70
70
69
69
69
70
70
70
69
68
68
69
69
68
69
68
68
68
67
68
67
68
67
66
66
66
66
66
66
65
65
64
64
64
64
64
63
63
63
62
62
62
62
61
62
62
63
63
62
61
62
62
62
62
62
62
61
61
62
62
63
62
62
61
62
62
63
64
63
63
62
63
63
64
64
64
63
63
64
64
64
64
64
63
64
64
64
64
64
64
64
65
66
67
68
68
70
72
74
77
81
83
87
91
95
100
105
111
118
124
132
141
150
160
168
175
181
188
193
198
202
204
204
204
202
198
193
185
176
165
152
138
123
107
90
72
52
34
15
-4
-23
-42
-61
-80
-98
-116
-133
-149
-166
-181
-197
-210
-223
-235
-245
-256
-265
-272
-277
-280
-284
-283
-283
-281
-276
-269
-260
-251
-240
-228
-214
-200
-184
-168
-151
-135
-120
-103
-87
-71
-56
-43
-30
-18
-7
4
14
23
30
36
43
48
53
58
61
63
65
68
69
70
72
73
73
73
73
74
74
74
74
74
74
74
74
74
74
73
73
73
74
75
76
75
75
76
76
77
77
77
78
77
78
78
79
80
80
80
79
79
80
81
81
81
80
81
81
81
82
83
83
83
83
84
85
86
86
86
87
87
88
89
89
89
89
89
90
91
92
92
91
92
91
91
92
92
92
92
92
91
92
93
94
94
93
94
94
95
96
95
96
95
96
97
98
99
100
99
100
100
101
102
102
103
103
104
104
105
106
107
107
107
107
108
109
109
109
110
111
111
112
114
114
116
117
117
118
120
121
123
124
125
126
128
129
131
132
133
135
136
138
139
141
142
143
144
146
147
148
150
152
153
154
156
157
158
159
160
161
163
164
166
168
168
169
170
171
172
173
174
175
176
177
178
179
180
181
181
181
182
183
184
185
186
186
186
187
187
189
189
188
188
189
188
190
189
190
189
189
189
189
189
189
188
187
187
186
186
186
184
183
182
180
179
178
176
175
173
171
169
168
166
164
162
159
157
155
153
151
149
146
144
141
138
136
134
132
129
127
124
122
120
118
115
112
110
108
106
105
103
101
99
97
96
95
93
92
90
89
88
87
86
85
83
82
80
80
80
78
78
76
75
74
73
74
73
72
71
69
68
69
68
68
67
66
66
65
65
64
64
63
63
62
62
62
63
62
62
61
61
61
60
61
60
60
59
58
58
58
58
57
57
56
56
57
56
57
56
55
55
55
55
54
54
54
53
53
53
53
52
51
51
50
50
49
49
48
47
47
47
46
46
46
44
44
43
43
44
44
44
43
42
42
42
43
43
42
42
41
41
42
43
43
43
42
41
41
43
43
43
43
42
41
42
43
44
44
43
43
44
44
46
46
