# Simple Text Format
# Sampling Rate (Hz):= 1200.00
# Resolution:= 12
# Labels:= ECG	aVR
# Age:=	33
# Gender:=	Masculino
-35
-35
-36
-36
-36
-36
-37
-37
-38
-38
-38
-38
-38
-39
-39
-40
-40
-40
-40
-40
-41
-41
-41
-41
-41
-41
-41
-42
-42
-42
-43
-43
-43
-43
-44
-44
-44
-44
-44
-44
-45
-45
-45
-46
-46
-46
-46
-47
-46
-46
-46
-47
-47
-48
-48
-47
-47
-48
-48
-48
-48
-48
-49
-48
-48
-48
-48
-48
-49
-50
-50
-50
-50
-50
-51
-51
-51
-51
-51
-51
-52
-52
-53
-53
-53
-53
-54
-54
-55
-55
-55
-55
-55
-55
-56
-56
-57
-57
-57
-58
-58
-58
-59
-59
-59
-59
-60
-60
-61
-61
-62
-62
-63
-63
-63
-64
-64
-64
-65
-65
-65
-65
-66
-66
-66
-67
-67
-68
-69
-69
-69
-70
-70
-70
-71
-72
-72
-74
-74
-74
-75
-76
-76
-77
-77
-78
-79
-80
-81
-81
-82
-82
-83
-83
-84
-85
-85
-85
-86
-86
-87
-88
-88
-89
-90
-90
-91
-92
-92
-93
-93
-94
-94
-94
-95
-96
-96
-96
-97
-97
-97
-98
-98
-98
-98
-98
-99
-99
-99
-99
-99
-99
-100
-100
-99
-100
-100
-100
-100
-99
-99
-100
-99
-99
-99
-99
-98
-99
-99
-98
-97
-97
-96
-95
-94
-94
-94
-93
-91
-90
-90
-89
-87
-87
-85
-84
-83
-83
-81
-80
-78
-77
-76
-75
-73
-72
-71
-70
-68
-67
-66
-65
-64
-63
-61
-60
-59
-58
-56
-55
-54
-53
-52
-51
-50
-50
-49
-48
-47
-46
-45
-44
-44
-43
-42
-41
-41
-40
-40
-39
-38
-38
-37
-37
-36
-36
-36
-35
-35
-34
-34
-34
-34
-34
-33
-33
-33
-33
-33
-33
-32
-32
-31
-31
-31
-31
-30
-31
-30
-30
-29
-29
-29
-28
-28
-29
-28
-28
-28
-28
-28
-28
-28
-28
-27
-27
-27
-27
-27
-27
-27
-27
-27
-27
-27
-27
-27
-27
-26
-26
-27
-27
-27
-27
-27
-26
-26
-27
-27
-26
-26
-27
-27
-27
-27
-27
-27
-27
-27
-27
-27
-27
-27
-27
-28
-27
-27
-28
-28
-27
-27
-27
-27
-27
-27
-27
-27
-27
-27
-27
-27
-27
-27
-27
-27
-27
-27
-27
-27
-27
-27
-28
-28
-28
-28
-28
-28
-28
-28
-28
-28
-28
-28
-28
-28
-29
-29
-29
-28
-28
-28
-29
-29
-29
-29
-28
-28
-29
-29
-29
-29
-29
-29
-29
-29
-29
-29
-29
-29
-30
-30
-30
-30
-30
-30
-29
-29
-29
-30
-30
-29
-29
-29
-29
-29
-29
-29
-29
-29
-29
-29
-29
-29
-29
-30
-29
-29
-29
-29
-29
-29
-28
-28
-28
-28
-28
-28
-28
-28
-28
-28
-28
-28
-28
-27
-27
-27
-27
-27
-27
-27
-27
-27
-28
-28
-27
-28
-27
-27
-27
-27
-27
-27
-27
-27
-26
-26
-26
-26
-26
-26
-26
-26
-26
-26
-26
-26
-26
-26
-26
-26
-27
-27
-27
-27
-27
-27
-27
-27
-27
-27
-26
-26
-26
-26
-26
-26
-26
-26
-26
-26
-26
-26
-26
-26
-26
-26
-26
-26
-26
-26
-26
-25
-25
-25
-26
-26
-26
-26
-26
-26
-26
-26
-26
-27
-27
-27
-27
-27
-27
-27
-26
-26
-26
-26
-26
-26
-25
-26
-26
-25
-25
-25
-25
-25
-25
-25
-25
-25
-25
-25
-25
-25
-26
-26
-27
-27
-27
-28
-28
-27
-28
-28
-29
-29
-30
-30
-31
-31
-32
-32
-33
-34
-34
-34
-35
-36
-37
-38
-39
-38
-39
-40
-41
-41
-43
-44
-45
-46
-46
-47
-48
-49
-50
-50
-51
-53
-53
-53
-54
-54
-54
-55
-56
-56
-55
-55
-55
-55
-54
-53
-52
-52
-51
-51
-50
-48
-48
-47
-46
-46
-45
-44
-44
-43
-43
-42
-41
-41
-41
-40
-39
-39
-39
-39
-38
-38
-37
-36
-36
-35
-34
-33
-33
-32
-31
-31
-29
-29
-28
-28
-28
-26
-26
-26
-24
-24
-23
-23
-23
-22
-22
-21
-21
-20
-21
-20
-20
-20
-20
-20
-19
-20
-20
-19
-20
-20
-19
-20
-20
-19
-19
-19
-19
-19
-20
-20
-19
-19
-19
-19
-19
-19
-19
-18
-18
-18
-18
-18
-18
-18
-19
-19
-19
-19
-20
-20
-19
-20
-20
-20
-20
-20
-21
-21
-20
-20
-21
-21
-21
-21
-21
-21
-21
-21
-21
-21
-21
-21
-21
-22
-21
-21
-21
-21
-22
-21
-21
-22
-22
-21
-22
-22
-22
-22
-23
-24
-25
-27
-28
-30
-33
-35
-38
-42
-46
-51
-57
-62
-69
-77
-84
-92
-100
-108
-117
-125
-134
-142
-150
-157
-166
-173
-180
-184
-188
-191
-193
-194
-192
-191
-188
-184
-179
-172
-165
-156
-148
-138
-128
-116
-105
-94
-82
-71
-60
-49
-39
-29
-19
-11
-3
5
12
18
22
27
30
33
35
37
38
39
38
38
37
36
34
32
29
27
24
20
17
14
10
6
2
0
-4
-8
-10
-13
-15
-17
-20
-21
-22
-24
-26
-27
-28
-29
-29
-29
-30
-30
-30
-32
-32
-32
-32
-32
-32
-32
-32
-33
-33
-33
-33
-33
-34
-34
-34
-34
-36
-36
-36
-36
-37
-37
-37
-37
-38
-38
-39
-39
-39
-39
-39
-40
-40
-41
-41
-41
-41
-41
-41
-42
-42
-43
-43
-43
-43
-43
-43
-43
-43
-43
-43
-44
-44
-44
-44
-44
-44
-44
-44
-44
-45
-45
-45
-45
-45
-46
-46
-45
-46
-46
-46
-47
-46
-46
-46
-46
-46
-47
-47
-47
-47
-48
-48
-48
-48
-49
-49
-49
-49
-49
-49
-49
-49
-50
-50
-50
-51
-51
-51
-52
-52
-52
-52
-53
-53
-53
-53
-54
-54
-54
-55
-55
-56
-56
-57
-57
-57
-58
-59
-59
-60
-60
-60
-60
-61
-61
-61
-62
-62
-63
-63
-63
-64
-64
-64
-64
-65
-66
-66
-67
-67
-67
-68
-68
-68
-69
-69
-71
-71
-72
-72
-73
-73
-74
-75
-75
-75
-77
-77
-78
-79
-79
-79
-80
-80
-81
-82
-82
-83
-84
-84
-85
-86
-86
-87
-87
-88
-88
-89
-90
-91
-91
-92
-93
-94
-93
-94
-94
-96
-96
-96
-97
-96
-97
-97
-98
-98
-98
-99
-99
-100
-100
-100
-100
-101
-100
-100
-101
-101
-101
-101
-100
-100
-100
-100
-100
-100
-100
-99
-99
-99
-98
-98
-98
-96
-96
-96
-95
-94
-94
-92
-91
-91
-90
-89
-87
-86
-85
-84
-83
-81
-80
-79
-77
-76
-75
-74
-73
-72
-70
-69
-68
-66
-66
-65
-63
-62
-61
-60
-59
-58
-57
-56
-55
-54
-53
-53
-52
-51
-49
-48
-48
-47
-46
-45
-45
-44
-43
-43
-42
-41
-40
-39
-39
-38
-38
-37
-38
-37
-36
-36
-35
-35
-34
-34
-33
-33
-33
-32
-32
-32
-32
-31
-31
-31
-31
-31
-31
-30
-30
-30
-30
-30
-30
-30
-29
-30
-30
-29
-29
-30
-30
-29
-29
-29
-30
-30
-30
-29
-29
-29
-29
-29
-29
-29
-29
-29
-29
-29
-29
-29
-28
-28
-28
-27
-27
-27
-27
-27
-27
-27
-27
-27
-27
-27
-27
-27
-27
-27
-27
-26
-26
-27
-27
-26
-26
-27
-26
-26
-26
-26
-26
-26
-27
-26
-26
-26
-26
-27
-27
-27
-27
-27
-27
-27
-27
-27
-27
-27
-27
-27
-27
-28
-28
-28
-27
-27
-27
-27
-27
-27
-28
-28
-28
-28
-28
-27
-28
-28
-28
-28
-28
-28
-28
-28
-29
-29
-29
-28
-28
-28
-28
-29
-28
-28
-28
-28
-28
-28
-28
-28
-28
-28
-28
-28
-27
-27
-27
-27
-28
-28
-27
-27
-28
-28
-29
-29
-29
-29
-28
-28
-29
-29
-29
-29
-29
-29
-29
-29
-29
-29
-29
-29
-29
-29
-29
-29
-29
-29
-28
-28
-28
-28
-28
-28
-28
-28
-28
-28
-28
-28
-27
-27
-27
-27
-27
-27
-27
-26
-26
-26
-26
-26
-26
-27
-27
-27
-27
-27
-27
-27
-27
-27
-27
-27
-27
-27
-27
-27
-27
-26
-27
-27
-27
-27
-27
-27
-27
-27
-27
-27
-27
-27
-27
-27
-27
-27
-27
-27
-26
-26
-26
-26
-26
-26
-26
-26
-26
-26
-26
-26
-26
-26
-26
-26
-26
-26
-26
-26
-26
-26
-26
-26
-26
-26
-26
-25
-25
-26
-26
-26
-26
-25
-25
-25
-25
-26
-26
-25
-26
-26
-26
-25
-25
-26
-26
-26
-26
-26
-26
-26
-26
-26
-26
-26
-26
-26
-26
-25
-25
-25
-25
-25
-25
-25
-25
-24
-24
-24
-25
-25
-24
-24
-24
-24
-25
-25
-25
-25
-25
-25
-26
-26
-26
-26
-26
-26
-26
-26
-25
-25
-26
-26
-25
-25
-25
-26
-25
-25
-25
-25
-25
-25
-25
-25
-25
-25
-26
-25
-25
-25
-26
-26
-26
-26
-26
-26
-26
-26
-26
-26
-26
-26
-26
-26
-26
-26
-26
-26
-26
-26
-26
-26
-25
-25
-26
-26
-26
-25
-25
-25
-25
-25
-25
-25
-25
-25
-25
-25
-25
-25
-25
-25
-25
-25
-25
-25
-25
-26
-27
-27
-26
-27
-27
-28
-28
-28
-29
-29
-29
-30
-31
-31
-32
-33
-33
-34
-34
-35
-36
-36
-37
-37
-38
-39
-39
-40
-41
-42
-42
-44
-44
-45
-45
-47
-48
-48
-49
-50
-50
-51
-51
-53
-53
-53
-53
-53
-54
-54
-54
-54
-54
-53
-53
-52
-52
-51
-51
-50
-49
-49
-48
-47
-46
-46
-45
-44
-43
-43
-43
-42
-41
-41
-40
-40
-39
-39
-39
-38
-38
-38
-36
-36
-36
-36
-36
-35
-35
-33
-33
-32
-31
-30
-29
-29
-27
-27
-26
-24
-24
-23
-23
-21
-21
-21
-20
-20
-20
-19
-19
-19
-18
-18
-19
-18
-18
-19
-19
-19
-20
-20
-20
-19
-19
-19
-19
-19
-19
-19
-20
-20
-20
-19
-19
-19
-19
-20
-20
-20
-19
-19
-18
-19
-19
-19
-19
-18
-18
-19
-19
-19
-19
-19
-19
-19
-19
-19
-20
-19
-19
-19
-20
-20
-20
-21
-21
-20
-20
-20
-21
-21
-21
-21
-21
-20
-21
-21
-21
-21
-21
-21
-21
-20
-21
-21
-20
-20
-21
-22
-22
-23
-24
-25
-27
-29
-32
-34
-38
-42
-45
-50
-55
-61
-68
-75
-83
-91
-99
-108
-116
-125
-133
-141
-150
-158
-166
-173
-180
-185
-190
-194
-196
-198
-199
-198
-195
-191
-187
-181
-174
-166
-158
-147
-137
-126
-115
-103
-91
-79
-67
-55
-44
-34
-23
-13
-4
5
12
18
25
29
34
37
40
42
43
44
45
44
44
42
40
38
35
32
29
26
22
18
15
11
7
4
0
-3
-6
-9
-12
-15
-16
-19
-21
-22
-24
-26
-26
-26
-28
-28
-29
-29
-29
-29
-29
-30
-31
-31
-31
-31
-31
-31
-31
-31
-31
-31
-31
-32
-32
-33
-33
-33
-33
-34
-34
-34
-35
-35
-36
-36
-36
-36
-37
-37
-38
-38
-38
-38
-38
-39
-39
-39
-39
-39
-39
-39
-40
-40
-40
-40
-41
-41
-41
-40
-41
-42
-42
-42
-42
-42
-42
-43
-43
-42
-42
-43
-43
-43
-43
-43
-43
-43
-44
-44
-44
-44
-44
-44
-44
-45
-45
-46
-46
-46
-46
-46
-46
-47
-47
-47
-47
-47
-48
-48
-48
-49
-49
-49
-49
-50
-50
-50
-50
-50
-51
-51
-51
-52
-52
-52
-53
-53
-53
-54
-54
-54
-55
-55
-55
-56
-56
-57
-57
-58
-58
-58
-59
-59
-59
-59
-60
-60
-60
-61
-61
-61
-62
-63
-63
-64
-64
-65
-65
-65
-65
-66
-66
-67
-68
-69
-69
-69
-70
-71
-71
-72
-72
-72
-73
-73
-74
-74
-76
-76
-76
-77
-78
-78
-79
-80
-80
-81
-81
-82
-82
-84
-84
-84
-85
-86
-86
-87
-88
-88
-89
-89
-90
-90
-91
-91
-91
-93
-93
-94
-94
-94
-95
-95
-95
-96
-95
-96
-96
-96
-97
-97
-98
-98
-99
-99
-99
-99
-99
-99
-99
-99
-99
-99
-99
-99
-100
-98
-98
-98
-98
-98
-98
-98
-97
-96
-96
-95
-95
-95
-94
-93
-93
-92
-91
-90
-89
-89
-88
-87
-86
-84
-83
-82
-81
-79
-78
-77
-76
-74
-73
-72
-71
-69
-68
-67
-66
-65
-64
-63
-62
-60
-59
-59
-58
-56
-55
-54
-53
-53
-52
-51
-50
-49
-48
-47
-46
-45
-44
-43
-42
-41
-41
-40
-40
-39
-38
-37
-37
-37
-36
-36
-35
-34
-34
-34
-34
-33
-33
-33
-32
-32
-32
-32
-32
-32
-31
-31
-31
-31
-31
-31
-31
-31
-31
-31
-31
-31
-30
-30
-30
-29
-29
-29
-29
-29
-29
-30
-30
-29
-30
-29
-29
-29
-29
-29
-29
-29
-29
-29
-28
-29
-29
-29
-29
-29
-29
-29
-28
-28
-28
-28
-28
-28
-28
-29
-29
-29
-29
-29
-29
-29
-29
-28
-28
-28
-28
-27
-27
-28
-28
-28
-28
-27
-27
-28
-28
-28
-28
-27
-27
-27
-28
-28
-28
-28
-28
-28
-28
-28
-28
-28
-28
-28
-28
-28
-27
-27
-27
-27
-27
-28
-28
-28
-28
-28
-28
-28
-28
-28
-28
-28
-28
-27
-27
-27
-27
-27
-27
-27
-27
-27
-27
-27
-27
-27
-27
-27
-27
-27
-27
-27
-27
-27
-27
-28
-28
-28
-28
-28
-28
-27
-28
-28
-28
-27
-27
-27
-27
-27
-27
-28
-28
-28
-28
-28
-28
-28
-28
-28
-28
-28
-28
-28
-28
-27
-27
-27
-27
-27
-27
-28
-27
-27
-27
-27
-28
-28
-27
-27
-27
-27
-27
-27
-27
-28
-27
-27
-27
-27
-27
-27
-27
-27
-27
-27
-27
-27
-27
-27
-27
-27
-27
-27
-27
-27
-27
-27
-27
-27
-27
-27
-27
-27
-27
-27
-28
-28
-27
-27
-27
-27
-27
-27
-27
-27
-27
-27
-27
-27
-27
-27
-26
-26
-26
-26
-26
-26
-26
-26
-26
-26
-27
-27
-27
-27
-26
-26
-27
-27
-27
-27
-27
-27
-27
-27
-26
-26
-26
-27
-27
-27
-26
-26
-26
-26
-26
-26
-26
-26
-26
-26
-26
-26
-26
-26
-26
-26
-25
-25
-25
-25
-25
-25
-25
-25
-24
-24
-24
-24
-24
-24
-24
-24
-24
-24
-25
-25
-24
-24
-24
-24
-25
-25
-25
-25
-25
-25
-25
-25
-26
-26
-26
-25
-26
-26
-26
-26
-26
-26
-26
-26
-26
-26
-26
-26
-25
-25
-25
-25
-25
-25
-25
-25
-25
-25
-25
-25
-25
-24
-24
-24
-24
-24
-24
-24
-24
-25
-24
-25
-25
-25
-25
-25
-25
-25
-25
-24
-25
-25
-25
-25
-24
-25
-25
-24
-24
-24
-24
-25
-25
-25
-25
-24
-25
-25
-25
-25
-25
-25
-25
-25
-25
-26
-26
-26
-26
-26
-27
-27
-28
-28
-29
-29
-30
-30
-30
-31
-32
-32
-32
-32
-33
-34
-35
-36
-36
-37
-37
-38
-39
-40
-40
-41
-42
-42
-43
-45
-45
-46
-46
-48
-48
-49
-50
-51
-51
-52
-52
-53
-55
-55
-55
-55
-55
-56
-56
-56
-55
-55
-55
-54
-54
-54
-53
-52
-51
-50
-49
-49
-48
-47
-46
-46
-45
-45
-44
-44
-43
-43
-42
-42
-41
-41
-41
-41
-40
-40
-39
-39
-39
-38
-38
-37
-36
-36
-35
-34
-33
-33
-33
-31
-31
-30
-28
-28
-27
-26
-26
-25
-25
-24
-24
-23
-23
-23
-22
-22
-22
-22
-22
-21
-21
-21
-21
-21
-21
-21
-21
-21
-21
-21
-21
-21
-21
-21
-21
-21
-21
-21
-21
-21
-21
-21
-22
-22
-22
-21
-21
-21
-22
-22
-22
-22
-22
-21
-22
-22
-22
-22
-22
-22
-22
-22
-22
-22
-22
-22
-22
-22
-23
-23
-22
-22
-22
-23
-23
-23
-23
-23
-23
-24
-24
-24
-23
-24
-23
-23
-23
-23
-23
-22
-22
-22
-23
-22
-23
-24
-24
-25
-26
-28
-30
-32
-35
-38
-42
-45
-50
-56
-62
-69
-76
-84
-93
-101
-109
-119
-127
-136
-145
-153
-162
-171
-178
-184
-190
-195
-200
-203
-204
-204
-203
-201
-197
-192
-186
-179
-171
-162
-151
-141
-130
-119
-107
-96
-83
-71
-60
-49
-38
-28
-18
-8
1
8
15
21
26
31
34
37
40
42
43
44
43
43
42
41
39
36
34
30
28
24
20
16
13
9
5
1
-2
-5
-9
-11
-14
-16
-20
-22
-22
-25
-26
-27
-28
-29
-30
-32
-32
-32
-33
-33
-33
-34
-35
-35
-35
-35
-35
-35
-35
-35
-36
-36
-36
-37
-37
-37
-37
-37
-38
-38
-38
-39
-39
-39
-39
-40
-40
-41
-41
-42
-42
-42
-42
-43
-42
-43
-43
-43
-43
-43
-44
-44
-44
-44
-45
-45
-46
-46
-46
-46
-46
-46
-46
-46
-46
-46
-46
-47
-47
-47
-47
-47
-48
-47
-47
-47
-48
-48
-48
-48
-49
-49
-49
-49
-50
-50
-50
-51
-51
-51
-51
-52
-52
-52
-52
-52
-52
-53
-53
-53
-53
-53
-53
-53
-54
-54
-54
-54
-54
-54
-54
-55
-55
-55
-56
-56
-56
-57
-57
-57
-57
-58
-58
-58
-59
-59
-60
-60
-61
-61
-61
-62
-62
-62
-62
-64
-64
-65
-65
-65
-66
-66
-66
-67
-67
-68
-68
-68
-69
-69
-70
-70
-71
-72
-72
-72
-73
-73
-74
-74
-76
-76
-76
-77
-78
-78
-79
-79
-79
-80
-82
-83
-83
-84
-84
-84
-85
-86
-87
-87
-88
-89
-89
-90
-91
-91
-92
-92
-92
-93
-93
-94
-94
-96
-96
-97
-97
-98
-98
-99
-99
-99
-100
-100
-100
-101
-101
-101
-101
-101
-102
-102
-102
-102
-102
-102
-103
-103
-103
-103
-103
-103
-103
-103
-102
-102
-102
-101
-101
-101
-100
-100
-100
-99
-99
-99
-98
-97
-97
-97
-95
-95
-94
-94
-93
-92
-91
-89
-89
-88
-87
-85
-84
-83
-82
-81
-80
-79
-76
-75
-74
-73
-71
-70
-69
-68
-67
-66
-64
-63
-62
-61
-60
-59
-58
-57
-56
-55
-55
-54
-53
-52
-51
-50
-50
-49
-48
-47
-46
-45
-45
-44
-43
-43
-42
-41
-41
-40
-40
-39
-40
-39
-39
-39
-38
-37
-37
-38
-37
-37
-37
-36
-35
-36
-36
-36
-36
-36
-35
-35
-35
-35
-35
-35
-35
-34
-34
-34
-33
-33
-33
-33
-33
-32
-32
-31
-31
-31
-31
-31
-30
-30
-30
-30
-30
-30
-30
-30
-30
-31
-31
-31
-31
-31
-31
-31
-30
-31
-31
-31
-31
-30
-30
-30
-31
-30
-30
-30
-30
-30
-30
-30
-30
-30
-30
-30
-30
-30
-31
-31
-31
-30
-30
-30
-30
-30
-30
-30
-30
-30
-30
-30
-30
-30
-30
-30
-30
-30
-31
-31
-30
-30
-30
-30
-31
-31
-31
-30
-30
-31
-30
-30
-30
-30
-30
-30
-30
-30
-30
-30
-30
-30
-30
-30
-31
-31
-31
-31
-30
-31
-31
-31
-31
-31
-31
-31
-31
-31
-32
-32
-32
-33
-33
-32
-32
-32
-32
-33
-33
-34
-33
-33
-33
-33
-33
-33
-33
-33
-33
-33
-33
-33
-33
-33
-33
-33
-33
-32
-32
-33
-33
-33
-33
-33
-32
-32
-32
-32
-32
-32
-33
-32
-32
-32
-32
-32
-32
-31
-31
-32
-32
-32
-32
-32
-32
-32
-32
-32
-32
-32
-32
-32
-32
-31
-31
-31
-31
-31
-31
-31
-31
-31
-31
-31
-31
-31
-31
-31
-31
-31
-32
-31
-31
-31
-31
-31
-31
-31
-30
-30
-30
-30
-31
-30
-30
-29
-29
-29
-29
-29
-29
-29
-28
-29
-29
-29
-29
-28
-28
-29
-29
-28
-28
-28
-29
-29
-29
-29
-30
-30
-29
-29
-30
-30
-30
-31
-31
-31
-31
-30
-30
-31
-31
-31
-31
-31
-32
-32
-32
-33
-33
-33
-33
-33
-34
-34
-34
-35
-35
-36
-36
-36
-37
-38
-38
-39
-39
-40
-41
-41
-42
-43
-43
-44
-45
-45
-46
-46
-47
-48
-49
-50
-51
-51
-52
-52
-54
-55
-56
-56
-57
-58
-58
-59
-60
-61
-61
-61
-61
-62
-62
-62
-62
-61
-61
-60
-60
-59
-59
-59
-58
-57
-56
-55
-56
-55
-54
-53
-53
-52
-51
-50
-50
-50
-49
-48
-48
-48
-47
-47
-46
-45
-45
-44
-44
-44
-43
-43
-42
-41
-40
-40
-39
-38
-37
-37
-36
-35
-34
-34
-33
-33
-31
-31
-31
-30
-30
-30
-29
-29
-29
-29
-28
-28
-28
-28
-28
-28
-28
-27
-27
-27
-27
-27
-27
-27
-27
-27
-26
-26
-26
-26
-26
-26
-26
-26
-26
-26
-26
-26
-25
-25
-25
-25
-26
-26
-26
-26
-26
-26
-26
-27
-27
-27
-27
-27
-27
-27
-27
-28
-28
-28
-28
-27
-28
-28
-28
-28
-28
-28
-28
-28
-28
-28
-28
-27
-27
-28
-28
-27
-27
-28
-27
-27
-27
-27
-27
-28
-28
-28
-28
-29
-29
-30
-30
-32
-33
-35
-37
-39
-42
-45
-49
-54
-60
-67
-73
-81
-87
-96
-104
-113
-121
-130
-139
-147
-156
-164
-172
-179
-185
-191
-195
-199
-201
-202
-202
-200
-197
-193
-188
-182
-175
-167
-158
-148
-138
-127
-116
-105
-93
-82
-71
-59
-48
-39
-29
-20
-12
-4
3
9
15
19
22
25
27
29
30
30
30
30
29
28
28
25
22
20
18
14
11
8
5
2
-1
-5
-8
-10
-13
-16
-17
-19
-22
-24
-25
-27
-28
-29
-31
-32
-33
-33
-34
-34
-34
-36
-36
-37
-37
-38
-38
-38
-38
-38
-39
-39
-39
-39
-40
-40
-40
-41
-41
-40
-40
-40
-41
-41
-41
-41
-41
-41
-41
-41
-42
-42
-42
-43
-43
-43
-43
-44
-44
-44
-44
-44
-45
-45
-45
-46
-46
-46
-47
-46
-46
-47
-48
-48
-48
-48
-48
-47
-47
-48
-48
-49
-48
-49
-49
-49
-49
-49
-49
-50
-50
-50
-50
-50
-50
-51
-51
-51
-51
-51
-51
-51
-51
-52
-52
-52
-52
-52
-52
-52
-52
-53
-53
-54
-54
-54
-53
-54
-54
-55
-55
-55
-55
-56
-56
-56
-56
-57
-57
-57
-58
-59
-59
-59
-60
-60
-61
-61
-62
-62
-62
-62
-63
-63
-64
-64
-64
-64
-65
-65
-66
-66
-66
-66
-67
-67
-67
-68
-68
-69
-70
-70
-71
-71
-72
-72
-73
-73
-73
-74
-75
-75
-76
-77
-77
-78
-78
-79
-79
-80
-80
-81
-81
-82
-83
-84
-84
-85
-85
-86
-87
-88
-88
-89
-89
-90
-91
-91
-92
-93
-93
-94
-95
-95
-96
-96
-96
-97
-97
-98
-99
-99
-99
-100
-100
-100
-100
-101
-101
-102
-102
-102
-103
-102
-103
-103
-103
-104
-104
-103
-103
-104
-103
-103
-103
-102
-102
-103
-103
-102
-101
-101
-101
-101
-99
-99
-98
-98
-97
-96
-96
-95
-95
-93
-92
-91
-90
-90
-89
-87
-86
-84
-83
-82
-81
-79
-78
-77
-75
-74
-73
-72
-70
-69
-67
-66
-65
-64
-63
-61
-60
-60
-59
-58
-57
-56
-55
-53
-52
-51
-51
-50
-50
-49
-48
-47
-46
-45
-44
-44
-43
-42
-42
-41
-41
-40
-40
-39
-40
-39
-39
-39
-38
-37
-37
-37
-37
-36
-36
-36
-35
-35
-35
-35
-35
-35
-35
-34
-34
-34
-34
-33
-33
-33
-32
-32
-32
-32
-32
-32
-31
-31
-31
-31
-31
-31
-31
-31
-31
-31
-31
-31
-31
-31
-31
-31
-31
-31
-31
-31
-31
-31
-31
-31
-31
-31
-31
-31
-31
-31
-31
-31
-31
-30
-30
-30
-30
-30
-30
-30
-29
-29
-29
-29
-29
-29
-29
-29
-29
-29
-29
-29
-29
-29
-29
-29
-30
-30
-30
-30
-30
-30
-30
-30
-30
-30
-30
-30
-30
-30
-30
-30
-30
-30
-30
-30
-30
-30
-30
-30
-30
-30
-30
-30
-30
-30
-30
-30
-30
-31
-31
-31
-31
-31
-31
-31
-32
-31
-31
-31
-31
-31
-31
-32
-32
-32
-32
-32
-32
-32
-32
-32
-33
-33
-33
-33
-33
-33
-33
-32
-32
-32
-32
-32
-33
-33
-32
-32
-32
-32
-32
-32
-32
-31
-32
-32
-32
-32
-32
-32
-31
-31
-31
-31
-32
-32
-31
-31
-31
-32
-32
-32
-32
-32
-32
-32
-32
-31
-31
-32
-32
-32
-32
-32
-32
-31
-31
-31
-31
-31
-31
-31
-31
-31
-31
-30
-30
-30
-30
-30
-30
-29
-29
-29
-29
-29
-29
-29
-29
-29
-29
-29
-29
-29
-29
-29
-29
-29
-29
-29
-29
-29
-29
-29
-29
-29
-30
-30
-30
-29
-29
-29
-30
-30
-30
-30
-30
-30
-30
-30
-30
-30
-30
-30
-30
-30
-30
-30
-30
-31
-31
-31
-31
-31
-31
-31
-32
-33
-33
-33
-34
-34
-35
-35
-36
-37
-37
-38
-38
-39
-40
-40
-41
-42
-43
-43
-44
-45
-45
-46
-46
-47
-47
-48
-49
-50
-51
-51
-52
-53
-53
-54
-55
-55
-55
-56
-57
-57
-58
-57
-57
-57
-58
-58
-57
-57
-56
-56
-55
-55
-54
-53
-53
-52
-50
-50
-49
-49
-49
-47
-46
-46
-46
-45
-45
-44
-44
-44
-43
-43
-42
-42
-41
-41
-40
-40
-38
-38
-37
-37
-36
-35
-34
-33
-33
-31
-30
-30
-30
-30
-28
-28
-27
-26
-26
-26
-25
-25
-25
-25
-25
-24
-24
-24
-24
-24
-24
-25
-25
-25
-25
-25
-25
-25
-24
-24
-24
-25
-25
-24
-24
-24
-24
-24
-24
-24
-24
-23
-23
-23
-24
-23
-23
-23
-23
-23
-23
-22
-22
-22
-22
-22
-22
-22
-23
-23
-23
-23
-23
-23
-23
-24
-24
-24
-24
-24
-24
-24
-24
-24
-25
-25
-25
-25
-24
-25
-24
-25
-24
-25
-24
-24
-24
-23
-24
-24
-24
-25
-25
-25
-26
-27
-28
-30
-31
-34
-37
-39
-43
-47
-52
-56
-63
-69
-75
-83
-91
-99
-108
-116
-124
-133
-141
-149
-158
-165
-173
-179
-185
-189
-192
-195
-196
-196
-194
-192
-188
-183
-178
-171
-162
-153
-144
-134
-123
-112
-100
-89
-77
-66
-55
-44
-35
-24
-16
-8
0
7
12
17
21
25
28
29
31
33
33
33
31
30
28
27
24
22
19
15
12
9
6
2
-1
-3
-7
-9
-13
-16
-18
-20
-22
-24
-25
-27
-28
-29
-30
-30
-31
-32
-32
-33
-33
-34
-34
-34
-35
-35
-35
-35
-35
-35
-35
-35
-35
-36
-36
-36
-37
-37
-37
-37
-37
-37
-37
-37
-37
-39
-38
-38
-39
-39
-39
-39
-39
-39
-39
-39
-40
-40
-40
-40
-41
-41
-41
-41
-41
-41
-41
-42
-42
-42
-42
-42
-42
-42
-43
-43
-43
-44
-44
-44
-44
-44
-44
-45
-45
-45
-46
-46
-46
-47
-47
-47
-47
-47
-47
-47
-48
-48
-48
-48
-48
-48
-48
-48
-48
-48
-48
-48
-48
-49
-49
-49
-49
-49
-50
-50
-50
-51
-51
-51
-51
-51
-52
-52
-52
-53
-53
-53
-53
-54
-54
-54
-54
-54
-56
-56
-56
-56
-57
-57
-57
-57
-58
-58
-59
-59
-59
-60
-60
-61
-61
-62
-62
-62
-63
-63
-64
-65
-65
-66
-66
-67
-66
-67
-68
-68
-68
-70
-70
-71
-71
-72
-72
-72
-73
-73
-74
-75
-76
-76
-76
-76
-77
-77
-79
-79
-80
-80
-80
-81
-82
-83
-83
-84
-84
-85
-86
-86
-87
-87
-88
-89
-90
-90
-90
-92
-92
-93
-93
-93
-94
-94
-95
-95
-95
-95
-96
-96
-97
-97
-97
-97
-97
-98
-98
-98
-99
-99
-98
-99
-99
-100
-100
-99
-99
-99
-100
-99
-99
-99
-99
-99
-98
-98
-98
-98
-97
-97
-95
-95
-94
-94
-92
-91
-90
-89
-88
-88
-87
-85
-84
-83
-81
-80
-79
-78
-76
-75
-73
-72
-71
-70
-70
-68
-67
-66
-64
-63
-62
-61
-59
-58
-57
-56
-56
-55
-53
-53
-52
-51
-51
-50
-49
-47
-46
-46
-45
-44
-43
-43
-42
-41
-41
-40
-39
-38
-38
-38
-37
-37
-36
-36
-35
-35
-34
-34
-34
-34
-33
-33
-32
-33
-33
-32
-32
-32
-32
-32
-32
-32
-32
-32
-31
-32
-32
-31
-31
-31
-31
-31
-31
-31
-31
-31
-31
-31
-31
-31
-31
-30
-30
-30
-30
-30
-30
-30
-30
-30
-30
-29
-29
-29
-29
-29
-29
-29
-29
-29
-28
-29
-29
-29
-29
-29
-29
-29
-29
-29
-29
-29
-29
-29
-29
-29
-29
-29
-29
-29
-29
-29
-29
-30
-29
-29
-29
-28
-28
-29
-29
-28
-28
-28
-28
-28
-29
-29
-28
-28
-28
-28
-28
-28
-28
-28
-29
-28
-28
-28
-28
-28
-28
-29
-28
-28
-28
-28
-28
-27
-27
-27
-28
-28
-28
-27
-27
-27
-28
-28
-28
-28
-28
-28
-28
-28
-28
-28
-28
-28
-28
-28
-28
-28
-28
-28
-28
-28
-28
-28
-28
-28
-28
-28
-28
-28
-28
-28
-28
-28
-28
-28
-28
-28
-28
-28
-28
-28
-28
-28
-28
-28
-28
-28
-28
-28
-28
-28
-28
-28
-28
-28
-28
-28
-28
-28
-28
-28
-28
-28
-28
-28
-27
-27
-28
-28
-28
-28
-28
-28
-28
-28
-28
-28
-28
-28
-27
-27
-28
-28
-28
-27
-28
-28
-28
-28
-28
-28
-28
-28
-28
-28
-28
-28
-27
-27
-27
-27
-27
-27
-27
-26
-26
-26
-26
-26
-26
-26
-26
-26
-26
-26
-26
-26
-26
-26
-25
-25
-26
-26
-26
-25
-26
-26
-26
-25
-26
-26
-26
-26
-26
-26
-26
-26
-26
-26
-26
-26
-26
-26
-26
-26
-26
-26
-26
-26
-26
-26
-26
-26
-26
-26
-26
-28
-28
-28
-28
-28
-29
-30
-29
-30
-31
-31
-31
-32
-33
-34
-34
-34
-34
-35
-36
-37
-37
-38
-38
-39
-40
-41
-42
-42
-43
-43
-45
-46
-46
-47
-47
-49
-49
-50
-51
-52
-52
-53
-53
-54
-54
-54
-54
-54
-54
-55
-55
-54
-54
-53
-52
-52
-51
-50
-50
-49
-48
-47
-46
-45
-45
-45
-44
-43
-43
-42
-42
-42
-41
-41
-41
-40
-40
-39
-39
-39
-38
-38
-37
-37
-35
-35
-34
-34
-33
-31
-31
-30
-29
-28
-28
-27
-25
-25
-24
-24
-23
-23
-21
-21
-20
-20
-20
-19
-19
-19
-18
-18
-18
-18
-19
-19
-19
-19
-19
-19
-19
-19
-19
-19
-19
-18
-19
-18
-19
-18
-19
-19
-19
-19
-19
-18
-18
-19
-19
-19
-19
-18
-18
-18
-18
-19
-19
-19
-18
-18
-19
-19
-19
-18
-18
-19
-18
-18
-19
-19
-19
-19
-19
-19
-20
-20
-20
-20
-20
-20
-20
-20
-20
-20
-20
-20
-20
-21
-20
-20
-20
-20
-20
-20
-20
-20
-21
-21
-22
-23
-24
-25
-27
-30
-32
-35
-39
-42
-47
-52
-56
-63
-69
-76
-85
-92
-100
-108
-117
-126
-134
-142
-150
-158
-165
-172
-178
-183
-187
-191
-194
-194
-193
-192
-189
-185
-179
-173
-165
-157
-148
-138
-128
-117
-104
-93
-81
-69
-58
-46
-35
-25
-15
-5
3
10
17
23
29
33
37
40
42
44
44
45
44
42
41
40
37
34
32
29
25
21
18
14
11
7
4
0
-2
-6
-9
-11
-14
-16
-18
-19
-21
-22
-23
-24
-26
-26
-27
-27
-27
-27
-28
-29
-29
-29
-29
-29
-29
-29
-29
-29
-29
-30
-30
-30
-31
-31
-31
-32
-32
-32
-32
-33
-33
-33
-33
-33
-34
-34
-34
-35
-35
-35
-35
-35
-35
-35
-37
-36
-36
-36
-37
-37
-37
-37
-37
-37
-37
-37
-38
-38
-38
-39
-39
-39
-39
-39
-39
-39
-39
-39
-39
-39
-39
-40
-40
-40
-40
-40
-40
-41
-41
-41
-41
-41
-41
-41
-41
-41
-41
-42
-42
-42
-42
-43
-43
-43
-43
-43
-44
-44
-44
-45
-45
-46
-46
-46
-47
-47
-47
-47
-47
-47
-48
-48
-48
-47
-48
-48
-48
-48
-48
-48
-49
-50
-50
-49
-51
-51
-51
-51
-52
-52
-53
-53
-54
-54
-54
-55
-56
-56
-56
-57
-57
-57
-58
-58
-59
-60
-60
-61
-61
-62
-62
-62
-63
-63
-63
-64
-65
-65
-66
-67
-67
-68
-68
-69
-69
-70
-70
-71
-71
-72
-73
-74
-74
-75
-75
-76
-77
-77
-78
-78
-80
-80
-81
-82
-83
-83
-83
-84
-84
-85
-86
-86
-87
-88
-88
-89
-90
-90
-90
-91
-91
-91
-92
-92
-93
-93
-93
-93
-94
-94
-94
-94
-94
-94
-94
-94
-95
-95
-95
-94
-94
-94
-94
-95
-94
-93
-93
-93
-93
-92
-92
-92
-92
-92
-91
-90
-90
-90
-88
-87
-87
-86
-85
-84
-82
-81
-80
-79
-78
-77
-76
-74
-73
-71
-70
-69
-68
-67
-65
-64
-63
-61
-60
-60
-57
-56
-55
-54
-53
-52
-51
-49
-48
-47
-46
-45
-44
-44
-43
-42
-41
-40
-39
-39
-38
-37
-38
-37
-36
-36
-34
-35
-34
-33
-32
-32
-32
-31
-30
-30
-29
-29
-28
-28
-28
-27
-28
-27
-27
-27
-27
-27
-26
-26
-26
-26
-26
-26
-25
-25
-25
-25
-25
-25
-25
-24
-24
-24
-24
-24
-24
-24
-24
-23
-23
-23
-23
-23
-23
-23
-23
-23
-23
-23
-23
-22
-22
-22
-22
-22
-22
-22
-21
-21
-21
-21
-21
-21
-21
-21
-20
-20
-20
-21
-21
-21
-20
-20
-21
-21
-21
-21
-21
-21
-21
-21
-20
-20
-20
-20
-20
-20
-20
-20
-20
-20
-20
-20
-20
-20
-19
-19
-19
-20
-19
-19
-20
-20
-20
-20
-20
-20
-20
-20
-20
-20
-20
-20
-20
-20
-20
-20
-20
-20
-20
-20
-20
-20
-20
-20
-20
-20
-20
-20
-20
-19
-19
-19
-19
-19
-19
-19
-18
-19
-19
-19
-19
-19
-19
-19
-19
-19
-19
-19
-19
-19
-19
-19
-19
-18
-18
-18
-18
-18
-18
-18
-19
-19
-18
-18
-18
-18
-18
-18
-18
-19
-19
-19
-18
-19
-19
-19
-18
-18
-18
-18
-18
-18
-18
-18
-18
-17
-17
-17
-17
-18
-18
-17
-17
-18
-18
-17
-17
-17
-17
-17
-17
-17
-17
-17
-17
-17
-17
-18
-18
-17
-17
-17
-17
-17
-17
-17
-16
-16
-16
-16
-16
-16
-16
-17
-16
-16
-16
-16
-16
-16
-16
-16
-16
-16
-16
-16
-16
-16
-16
-16
-16
-16
-16
-16
-16
-16
-16
-16
-16
-15
-15
-16
-16
-16
-16
-16
-15
-15
-15
-15
-15
-15
-15
-15
-15
-15
-15
-15
-15
-15
-15
-15
-15
-15
-15
-15
-14
-15
-15
-14
-14
-14
-14
-14
-14
-14
-14
-14
-15
-15
-15
-15
-15
-16
-16
-16
-16
-16
-17
-17
-18
-18
-18
-19
-19
-19
-20
-21
-21
-22
-21
-22
-23
-24
-24
-25
-26
-25
-26
-27
-28
-29
-30
-30
-31
-31
-32
-33
-33
-34
-35
-36
-36
-37
-38
-39
-40
-40
-42
-42
-43
-43
-43
-44
-44
-44
-44
-44
-44
-44
-45
-44
-44
-43
-43
-42
-41
-40
-39
-39
-38
-37
-36
-36
-35
-34
-33
-34
-33
-32
-31
-32
-31
-31
-30
-29
-29
-29
-28
-27
-27
-25
-25
-24
-22
-21
-21
-20
-19
-18
-16
-16
-15
-14
-13
-12
-12
-11
-10
-10
-10
-10
-10
-10
-9
-8
-8
-8
-8
-8
-8
-8
-7
-7
-7
-7
-7
-8
-7
-7
-7
-7
-7
-7
-6
-6
-7
-7
-7
-7
-6
-6
-7
-7
-7
-6
-6
-6
-6
-7
-7
-7
-7
-7
-7
-7
-7
-7
-7
-7
-7
-7
-7
-7
-7
-7
-7
-6
-6
-7
-7
-7
-7
-7
-7
-7
-7
-8
-8
-8
-7
-8
-8
-8
-9
-8
-8
-8
-8
-7
-8
-7
-7
-7
-7
-7
-8
-9
-10
-11
-12
-14
-16
-19
-22
-26
-31
-35
-41
-47
-54
-61
-68
-76
-85
-93
-102
-111
-120
-128
-137
-146
-153
-160
-167
-173
-177
-181
-183
-185
-185
-185
-181
-177
-173
-167
-160
-151
-143
-133
-123
-111
-100
-88
-76
-64
-52
-41
-30
-20
-10
0
9
17
23
31
37
42
46
50
53
55
56
57
57
57
56
55
53
50
47
45
42
38
36
32
28
25
22
18
15
12
9
7
3
0
-1
-3
-5
-7
-8
-9
-10
-12
-13
-13
-14
-15
-15
-15
-15
-15
-16
-16
-17
-17
-17
-17
-17
-17
-18
-18
-18
-19
-19
-20
-20
-20
-21
-21
-21
-21
-21
-21
-21
-22
-22
-23
-23
-23
-23
-23
-24
-23
-23
-24
-24
-24
-24
-24
-25
-26
-26
-25
-26
-26
-26
-27
-27
-26
-27
-27
-27
-27
-27
-27
-28
-28
-28
-28
-29
-29
-29
-29
-29
-29
-29
-29
-29
-29
-29
-29
-29
-29
-29
-29
-30
-30
-30
-30
-30
-31
-31
-30
-31
-31
-32
-32
-32
-33
-32
-32
-33
-33
-33
-34
-34
-34
-35
-35
-35
-35
-35
-36
-36
-36
-36
-36
-37
-37
-38
-38
-38
-39
-39
-39
-40
-40
-41
-41
-42
-42
-43
-44
-44
-45
-45
-46
-46
-46
-47
-48
-48
-48
-48
-49
-49
-49
-50
-50
-50
-50
-50
-50
-51
-52
-52
-52
-52
-53
-53
-54
-54
-55
-55
-56
-56
-57
-57
-57
-59
-59
-60
-60
-61
-61
-62
-63
-63
-64
-64
-65
-65
-66
-67
-67
-68
-68
-69
-70
-70
-70
-71
-72
-72
-73
-73
-73
-74
-74
-75
-74
-75
-76
-76
-76
-76
-76
-76
-77
-77
-77
-77
-78
-78
-78
-78
-78
-78
-79
-78
-79
-79
-79
-78
-78
-79
-78
-78
-78
-78
-76
-76
-76
-75
-75
-74
-74
-73
-71
-71
-70
-69
-68
-67
-66
-65
-64
-63
-62
-61
-59
-58
-57
-55
-54
-53
-52
-51
-50
-49
-48
-47
-45
-44
-43
-42
-41
-40
-39
-38
-37
-36
-35
-34
-33
-32
-31
-30
-29
-29
-28
-27
-26
-26
-25
-24
-23
-22
-22
-21
-21
-20
-20
-19
-19
-18
-17
-17
-16
-16
-16
-16
-16
-15
-15
-15
-15
-14
-14
-14
-13
-13
-13
-13
-13
-13
-12
-12
-12
-12
-12
-12
-12
-12
-12
-12
-12
-12
-12
-11
-11
-11
-11
-11
-11
-11
-10
-10
-10
-10
-9
-9
-10
-9
-9
-9
-9
-9
-8
-8
-8
-8
-8
-8
-8
-8
-8
-8
-8
-8
-8
-8
-8
-8
-8
-8
-8
-8
-8
-8
-8
-8
-9
-9
-8
-9
-8
-8
-8
-8
-8
-8
-7
-8
-8
-7
-7
-7
-7
-8
-8
-7
-7
-7
-7
-7
-7
-7
-7
-7
-7
-7
-7
-7
-7
-7
-8
-8
-8
-8
-8
-8
-7
-7
-7
-7
-8
-8
-8
-8
-8
-8
-9
-9
-9
-9
-8
-8
-9
-9
-9
-9
-9
-9
-9
-9
-9
-9
-9
-9
-9
-9
-9
-9
-9
-9
-10
-10
-9
-9
-9
-9
-9
-9
-10
-9
-9
-9
-9
-9
-9
-9
-9
-9
-9
-9
-9
-9
-9
-9
-9
-9
-9
-9
-9
-10
-10
-10
-9
-9
-9
-9
-9
-8
-8
-8
-8
-9
-9
-8
-8
-8
-8
-8
-7
-7
-7
-7
-7
-7
-7
-6
-7
-7
-7
-7
-7
-6
-7
-7
-7
-7
-7
-6
-6
-7
-7
-7
-7
-7
-7
-8
-8
-8
-8
-8
-8
-8
-8
-8
-8
-8
-8
-8
-8
-8
-7
-7
-7
-7
-7
-7
-7
-7
-7
-7
-7
-7
-7
-7
-6
-6
-6
-7
-7
-7
-7
-7
-6
-6
-7
-7
-7
-7
-8
-8
-9
-10
-10
-11
-10
-11
-12
-13
-13
-14
-14
-15
-15
-17
-18
-18
-19
-20
-20
-21
-22
-23
-24
-24
-25
-26
-27
-27
-28
-29
-29
-29
-31
-31
-31
-31
-32
-32
-32
-32
-32
-33
-33
-32
-32
-31
-32
-31
-30
-29
-29
-28
-27
-26
-25
-25
-24
-24
-23
-22
-21
-22
-21
-21
-20
-19
-19
-18
-19
-18
-18
-17
-17
-17
-16
-16
-15
-15
-14
-13
-12
-12
-10
-10
-9
-9
-7
-7
-6
-5
-4
-4
-3
-3
-3
-2
-2
-1
-1
0
0
0
0
1
1
1
1
1
1
1
1
1
1
1
1
1
2
2
2
2
2
2
2
2
2
2
2
1
1
1
2
1
2
2
2
2
2
2
2
2
1
1
1
1
1
2
2
2
2
2
2
2
2
2
2
1
2
2
1
1
2
2
1
1
1
1
1
0
0
0
1
0
1
0
1
0
0
0
0
-1
-1
-2
-2
-3
-4
-6
-7
-10
-12
-16
-20
-25
-30
-35
-41
-48
-55
-63
-69
-78
-86
-95
-103
-111
-120
-128
-136
-143
-150
-156
-161
-166
-170
-171
-172
-172
-170
-168
-163
-158
-152
-145
-137
-128
-118
-107
-97
-86
-74
-62
-51
-40
-29
-19
-10
0
8
16
24
31
37
41
46
49
52
54
55
56
56
55
55
53
52
49
47
45
41
39
36
32
29
26
22
19
16
14
11
8
6
4
2
0
-1
-2
-5
-5
-6
-7
-7
-8
-9
-10
-11
-11
-11
-11
-12
-12
-12
-12
-12
-13
-13
-13
-13
-15
-15
-15
-15
-15
-15
-16
-16
-16
-16
-17
-17
-17
-18
-18
-18
-18
-19
-19
-19
-20
-20
-20
-20
-20
-20
-21
-20
-20
-20
-20
-21
-21
-21
-21
-21
-21
-21
-21
-21
-21
-21
-22
-22
-23
-23
-23
-23
-23
-23
-23
-24
-24
-24
-24
-24
-24
-24
-25
-25
-25
-25
-25
-26
-26
-25
-26
-26
-26
-27
-26
-27
-27
-27
-27
-27
-28
-28
-28
-28
-29
-30
-30
-30
-30
-30
-31
-31
-31
-31
-31
-32
-32
-33
-33
-33
-33
-33
-34
-34
-35
-35
-35
-35
-36
-36
-37
-37
-37
-37
-38
-38
-38
-39
-39
-39
-40
-40
-41
-41
-41
-43
-43
-43
-44
-44
-45
-45
-45
-46
-46
-47
-47
-48
-48
-49
-49
-50
-50
-51
-51
-52
-52
-53
-53
-54
-55
-55
-55
-57
-57
-58
-58
-59
-59
-59
-60
-60
-61
-62
-62
-62
-64
-64
-65
-66
-66
-67
-67
-68
-68
-69
-70
-70
-71
-71
-71
-72
-73
-72
-73
-73
-73
-74
-74
-75
-75
-76
-76
-76
-77
-76
-77
-77
-77
-77
-77
-78
-77
-77
-77
-77
-77
-77
-77
-77
-77
-76
-76
-76
-76
-74
-74
-74
-73
-72
-71
-71
-69
-69
-68
-68
-67
-65
-64
-64
-63
-61
-60
-59
-58
-57
-56
-55
-53
-52
-51
-50
-48
-47
-46
-45
-44
-43
-42
-41
-40
-38
-37
-36
-35
-34
-33
-32
-31
-30
-29
-28
-27
-26
-26
-25
-24
-23
-22
-22
-21
-20
-21
-20
-19
-19
-18
-18
-17
-17
-16
-16
-15
-15
-15
-14
-14
-14
-14
-14
-13
-13
-12
-12
-12
-12
-12
-11
-11
-11
-10
-10
-10
-10
-10
-11
-10
-10
-10
-10
-10
-10
-10
-9
-9
-9
-9
-9
-9
-9
-9
-9
-8
-8
-8
-8
-8
-8
-8
-8
-8
-8
-8
-8
-8
-8
-8
-8
-8
-8
-8
-8
-8
-8
-8
-8
-8
-8
-8
-8
-8
-8
-8
-8
-8
-7
-7
-7
-7
-7
-7
-7
-7
-7
-7
-7
-7
-7
-7
-7
-7
-7
-7
-7
-8
-8
-8
-8
-8
-8
-8
-8
-9
-8
-8
-8
-8
-8
-8
-8
-8
-8
-8
-8
-8
-8
-8
-8
-8
-8
-9
-9
-9
-9
-9
-10
-10
-10
-10
-9
-9
-9
-9
-9
-9
-9
-9
-9
-9
-9
-9
-9
-9
-9
-9
-9
-10
-10
-10
-10
-10
-10
-10
-10
-9
-9
-9
-9
-9
-9
-9
-9
-9
-9
-9
-10
-9
-9
-9
-10
-10
-10
-9
-9
-9
-10
-10
-10
-10
-10
-10
-10
-10
-10
-10
-10
-10
-10
-10
-10
-10
-10
-10
-9
-9
-9
-9
-9
-9
-9
-9
-9
-9
-9
-9
-9
-9
-9
-9
-9
-9
-9
-9
-9
-9
-9
-9
-9
-9
-9
-10
-10
-10
-9
-9
-10
-10
-10
-10
-10
-10
-11
-10
-10
-11
-10
-10
-10
-10
-10
-10
-10
-10
-11
-11
-11
-11
-11
-11
-11
-11
-11
-11
-11
-11
-11
-12
-12
-12
-12
-12
-12
-12
-12
-12
-12
-12
-12
-12
-12
-12
-12
-12
-12
-12
-12
-13
-13
-13
-13
-13
-14
-15
-15
-16
-16
-16
-16
-17
-18
-19
-20
-20
-20
-21
-22
-23
-23
-24
-25
-26
-26
-27
-28
-28
-29
-29
-31
-31
-32
-33
-33
-34
-35
-36
-36
-37
-38
-39
-40
-40
-41
-41
-41
-42
-42
-42
-42
-43
-42
-42
-41
-41
-41
-40
-39
-38
-37
-36
-36
-35
-34
-33
-32
-32
-31
-30
-29
-30
-29
-29
-28
-27
-26
-27
-27
-26
-26
-25
-24
-24
-23
-22
-21
-21
-20
-19
-19
-17
-17
-16
-16
-14
-13
-13
-12
-11
-11
-10
-10
-9
-8
-8
-7
-7
-6
-6
-6
-6
-5
-5
-5
-5
-5
-5
-5
-5
-5
-5
-5
-5
-5
-5
-5
-5
-5
-5
-5
-5
-5
-5
-5
-5
-5
-5
-4
-4
-4
-4
-4
-4
-4
-4
-4
-4
-4
-4
-4
-4
-4
-4
-4
-4
-4
-4
-4
-5
-5
-5
-5
-5
-5
-5
-6
-6
-6
-6
-6
-6
-6
-6
-6
-6
-7
-6
-6
-7
-6
-6
-6
-5
-6
-5
-6
-6
-7
-7
-7
-8
-9
-11
-13
-14
-16
-20
-22
-27
-31
-36
-41
-47
-53
-61
-67
-75
-83
-91
-100
-108
-116
-125
-133
-141
-148
-156
-162
-167
-171
-174
-177
-177
-178
-177
-174
-170
-165
-159
-152
-144
-135
-125
-114
-103
-92
-80
-69
-57
-46
-35
-24
-13
-3
5
13
22
29
36
41
46
49
52
54
56
56
57
56
56
54
52
50
47
44
41
37
34
31
27
24
20
16
13
10
7
4
2
-1
-3
-4
-7
-8
-9
-10
-12
-13
-13
-14
-14
-14
-14
-15
-15
-16
-16
-16
-16
-16
-16
-17
-17
-17
-17
-17
-17
-18
-19
-19
-19
-19
-20
-20
-20
-21
-21
-21
-21
-21
-22
-22
-22
-22
-22
-22
-23
-23
-23
-24
-24
-24
-24
-24
-24
-24
-24
-24
-25
-25
-25
-25
-25
-25
-25
-26
-26
-26
-26
-26
-26
-26
-27
-27
-27
-27
-27
-27
-28
-28
-28
-28
-28
-28
-28
-28
-28
-29
-29
-29
-29
-29
-29
-29
-29
-30
-30
-30
-30
-30
-31
-31
-31
-31
-31
-32
-32
-33
-33
-33
-33
-33
-33
-34
-34
-34
-34
-34
-35
-35
-35
-36
-36
-36
-37
-37
-37
-37
-38
-39
-39
-39
-40
-40
-41
-41
-41
-41
-42
-42
-43
-43
-44
-44
-44
-44
-46
-46
-47
-47
-47
-48
-48
-49
-49
-50
-51
-51
-51
-51
-52
-52
-52
-53
-54
-54
-55
-55
-56
-56
-56
-58
-58
-59
-60
-60
-60
-61
-61
-62
-63
-64
-65
-65
-66
-67
-67
-68
-69
-69
-70
-71
-72
-72
-73
-73
-74
-74
-75
-75
-76
-77
-77
-77
-78
-78
-79
-79
-79
-80
-80
-80
-80
-81
-81
-82
-82
-82
-82
-82
-83
-83
-83
-83
-82
-83
-83
-83
-83
-83
-82
-82
-82
-82
-82
-80
-80
-80
-79
-79
-78
-77
-77
-76
-75
-74
-73
-73
-71
-70
-69
-68
-67
-66
-64
-63
-62
-60
-59
-58
-56
-55
-54
-53
-51
-50
-49
-47
-46
-46
-45
-44
-43
-43
-41
-40
-39
-38
-37
-36
-35
-35
-34
-32
-32
-31
-30
-29
-29
-28
-27
-26
-25
-25
-24
-23
-22
-23
-22
-22
-21
-21
-20
-20
-19
-19
-18
-18
-18
-17
-17
-17
-16
-16
-16
-16
-15
-15
-15
-15
-15
-14
-14
-14
-13
-13
-13
-13
-13
-14
-13
-13
-13
-13
-13
-13
-12
-12
-12
-12
-12
-12
-12
-12
-12
-12
-12
-12
-12
-12
-12
-12
-12
-12
-12
-11
-11
-11
-11
-11
-11
-11
-11
-11
-11
-11
-11
-11
-11
-11
-11
-11
-11
-10
-10
-10
-10
-10
-10
-10
-10
-10
-10
-10
-10
-10
-9
-9
-9
-9
-9
-9
-9
-9
-9
-9
-9
-9
-10
-9
-9
-9
-9
-9
-9
-9
-10
-10
-10
-10
-10
-10
-10
-10
-10
-10
-10
-10
-10
-10
-10
-10
-10
-10
-10
-9
-9
-9
-9
-9
-10
-10
-9
-9
-9
-9
-9
-8
-8
-8
-8
-8
-8
-8
-8
-8
-8
-8
-8
-8
-8
-8
-8
-8
-8
-8
-8
-8
-8
-9
-9
-9
-9
-8
-8
-8
-8
-8
-8
-8
-8
-8
-8
-8
-8
-8
-8
-7
-7
-8
-8
-8
-7
-7
-7
-7
-7
-8
-8
-8
-7
-7
-8
-8
-8
-8
-7
-7
-7
-7
-8
-8
-8
-8
-8
-8
-8
-7
-7
-7
-8
-7
-7
-7
-7
-7
-7
-7
-7
-7
-7
-7
-7
-6
-6
-6
-6
-7
-7
-7
-7
-6
-7
-7
-7
-7
-7
-7
-7
-7
-7
-8
-8
-7
-7
-7
-8
-8
-8
-8
-8
-7
-8
-8
-8
-8
-7
-7
-7
-7
-7
-7
-7
-6
-6
-6
-6
-6
-6
-7
-6
-6
-6
-6
-6
-6
-6
-6
-6
-6
-6
-6
-6
-6
-6
-6
-6
-6
-6
-6
-6
-6
-6
-6
-6
-6
-6
-6
-5
-6
-6
-6
-6
-5
-5
-5
-6
-6
-6
-5
-5
-5
-5
-5
-5
-5
-5
-6
-6
-5
-5
-5
-5
-6
-6
-5
-5
-5
-6
-6
-6
-6
-6
-6
-7
-7
-7
-7
-8
-8
-9
-10
-10
-10
-11
-12
-11
-12
-13
-14
-14
-15
-15
-16
-17
-18
-18
-19
-20
-21
-22
-22
-23
-23
-24
-25
-26
-26
-27
-28
-29
-29
-31
-31
-32
-32
-33
-34
-34
-34
-35
-35
-36
-36
-36
-36
-36
-36
-35
-35
-34
-33
-33
-32
-31
-31
-30
-29
-28
-28
-27
-26
-25
-25
-24
-23
-23
-22
-22
-22
-21
-20
-20
-19
-19
-18
-19
-18
-17
-17
-16
-15
-14
-13
-13
-12
-12
-10
-9
-8
-8
-7
-5
-5
-4
-4
-2
-2
-2
-1
-1
0
0
0
1
0
0
0
0
0
0
0
0
0
0
0
0
0
0
0
0
0
0
0
0
0
-1
0
0
0
0
0
0
0
0
0
0
0
0
0
0
0
0
1
1
1
1
1
1
1
1
1
1
1
1
1
2
2
1
1
1
0
0
0
0
0
0
-1
-1
0
0
-1
0
-1
0
-1
0
0
1
0
0
1
1
0
0
-1
-2
-3
-4
-6
-7
-9
-12
-15
-19
-23
-28
-33
-39
-46
-52
-60
-67
-75
-84
-92
-102
-110
-119
-127
-136
-143
-150
-157
-163
-168
-172
-175
-176
-177
-176
-175
-171
-167
-161
-154
-146
-138
-128
-118
-107
-96
-83
-73
-61
-49
-37
-26
-15
-5
4
13
21
29
36
43
47
53
57
60
62
64
65
65
65
64
63
61
60
57
54
51
47
44
41
38
34
30
27
23
20
16
14
10
8
5
4
2
-1
-2
-3
-4
-5
-7
-7
-7
-8
-8
-9
-9
-9
-9
-10
-10
-10
-10
-11
-11
-11
-11
-12
-12
-12
-13
-13
-13
-14
-14
-15
-15
-15
-15
-16
-16
-17
-17
-17
-17
-18
-18
-18
-19
-19
-19
-19
-19
-20
-20
-21
-21
-21
-21
-21
-21
-21
-21
-22
-22
-22
-22
-23
-23
-23
-23
-23
-23
-23
-23
-23
-24
-24
-24
-24
-24
-24
-24
-24
-24
-24
-24
-24
-25
-25
-25
-26
-26
-26
-26
-27
-27
-27
-27
-27
-27
-28
-28
-28
-28
-28
-28
-29
-29
-29
-29
-29
-30
-30
-31
-31
-31
-31
-31
-32
-32
-33
-33
-33
-33
-34
-34
-35
-35
-36
-36
-36
-36
-37
-37
-37
-37
-37
-38
-39
-39
-39
-39
-40
-40
-40
-40
-41
-41
-41
-42
-43
-43
-44
-44
-45
-45
-46
-46
-47
-47
-47
-47
-49
-49
-49
-50
-50
-51
-51
-51
-52
-53
-54
-54
-54
-55
-55
-56
-57
-57
-58
-58
-58
-59
-60
-60
-61
-61
-62
-62
-62
-63
-63
-64
-64
-66
-66
-67
-67
-68
-68
-69
-69
-70
-70
-71
-71
-72
-72
-72
-73
-73
-73
-73
-73
-74
-74
-74
-74
-75
-74
-74
-74
-74
-74
-75
-75
-74
-74
-74
-74
-74
-73
-73
-73
-73
-72
-71
-71
-71
-70
-70
-69
-69
-67
-67
-67
-66
-64
-63
-63
-62
-61
-60
-59
-58
-56
-55
-54
-53
-52
-51
-49
-48
-47
-45
-44
-44
-43
-42
-40
-40
-39
-38
-37
-36
-35
-34
-33
-33
-31
-30
-30
-29
-28
-27
-27
-26
-25
-24
-23
-22
-21
-21
-20
-20
-19
-18
-18
-17
-17
-16
-15
-15
-14
-14
-14
-14
-13
-13
-13
-12
-12
-12
-12
-12
-11
-11
-11
-11
-11
-11
-10
-10
-10
-10
-9
-9
-9
-9
-10
-8
-9
-8
-8
-9
-9
-8
-8
-8
-8
-8
-8
-7
-7
-7
-8
-8
-7
-7
-7
-7
-7
-7
-7
-7
-7
-7
-7
-7
-7
-7
-6
-6
-6
-6
-6
-6
-6
-5
-5
-5
-5
-6
-6
-6
-6
-6
-6
-6
-6
-6
-6
-7
-7
-6
-6
-6
-7
-6
-6
-7
-7
-7
-7
-7
-7
-7
-7
-7
-7
-7
-7
-7
-7
-7
-8
-8
-8
-8
-8
-8
-7
-8
-8
-8
-7
-7
-7
-8
-8
-8
-8
-8
-8
-8
-8
-8
-8
-8
-8
-8
-8
-8
-8
-8
-8
-8
-8
-8
-8
-8
-8
-9
-9
-8
-8
-8
-8
-9
-9
-9
-9
-10
-10
-10
-10
-10
-10
-10
-10
-10
-10
-10
-10
-10
-10
-10
-10
-10
-9
-9
-9
-9
-9
-9
-9
-8
-8
-9
-9
-9
-8
-9
-9
-9
-9
-9
-9
-9
-9
-9
-9
-9
-9
-9
-9
-8
-8
-8
-8
-8
-8
-8
-8
-8
-8
-8
-8
-8
-8
-8
-8
-8
-8
-8
-8
-8
-8
-8
-8
-8
-8
-8
-8
-8
-8
-8
-8
-8
-8
-8
-8
-8
-8
-7
-7
-8
-8
-7
-7
-8
-8
-8
-8
-8
-8
-8
-7
-7
-7
-7
-7
-7
-7
-7
-7
-7
-7
-7
-7
-7
-7
-7
-7
-7
-8
-8
-8
-7
-7
-7
-7
-7
-7
-7
-7
-6
-6
-6
-7
-6
-6
-6
-6
-6
-6
-7
-7
-7
-7
-7
-7
-8
-8
-8
-8
-9
-9
-10
-10
-11
-11
-11
-12
-13
-13
-13
-14
-14
-15
-15
-16
-16
-17
-18
-19
-19
-20
-21
-22
-22
-22
-23
-24
-25
-26
-27
-27
-28
-30
-30
-31
-32
-33
-33
-34
-35
-35
-36
-38
-38
-38
-38
-38
-40
-40
-40
-39
-39
-38
-38
-37
-37
-37
-36
-35
-34
-34
-33
-32
-31
-30
-29
-28
-28
-27
-27
-27
-26
-25
-25
-24
-24
-23
-22
-22
-22
-21
-21
-20
-19
-18
-17
-17
-16
-16
-14
-14
-13
-13
-11
-11
-11
-9
-9
-8
-8
-8
-7
-6
-6
-5
-5
-4
-4
-4
-4
-3
-4
-3
-3
-3
-3
-3
-3
-2
-2
-2
-2
-3
-3
-3
-3
-3
-3
-3
-3
-3
-3
-3
-3
-3
-3
-3
-2
-2
-2
-2
-3
-3
-3
-2
-2
-2
-2
-2
-3
-3
-3
-3
-3
-3
-2
-2
-2
-2
-2
-3
-3
-3
-3
-4
-4
-4
-4
-4
-5
-5
-4
-4
-4
-4
-5
-5
-5
-5
-5
-4
-5
-4
-4
-4
-4
-5
-5
-6
-6
-7
-8
-9
-10
-12
-14
-17
-20
-24
-28
-33
-38
-44
-50
-58
-64
-72
-80
-89
-97
-105
-113
-122
-130
-138
-146
-152
-158
-164
-169
-172
-173
-175
-173
-172
-169
-165
-159
-153
-146
-138
-129
-119
-109
-98
-87
-75
-63
-52
-41
-30
-19
-10
0
9
16
24
31
37
42
47
50
54
55
57
58
58
58
57
56
54
52
49
47
44
40
37
34
30
27
23
19
16
13
9
6
4
1
-1
-3
-5
-8
-9
-11
-11
-12
-13
-14
-15
-15
-15
-17
-17
-17
-17
-18
-18
-18
-18
-18
-18
-18
-18
-19
-20
-19
-20
-20
-20
-20
-21
-21
-21
-21
-22
-22
-22
-22
-22
-22
-23
-23
-23
-23
-24
-24
-25
-25
-24
-24
-25
-25
-26
-26
-26
-25
-26
-26
-27
-27
-27
-27
-27
-28
-28
-28
-28
-28
-29
-28
-28
-29
-29
-30
-30
-30
-30
-31
-31
-31
-31
-31
-32
-32
-32
-32
-32
-32
-33
-33
-33
-33
-33
-33
-33
-34
-34
-34
-34
-34
-34
-35
-35
-35
-35
-35
-36
-36
-36
-37
-37
-37
-37
-38
-38
-38
-39
-39
-39
-39
-39
-40
-40
-40
-40
-42
-42
-42
-43
-43
-43
-43
-43
-43
-44
-44
-45
-45
-46
-46
-47
-47
-48
-48
-48
-49
-49
-49
-50
-50
-52
-52
-52
-53
-53
-54
-54
-55
-55
-55
-57
-57
-58
-58
-58
-58
-59
-59
-60
-61
-61
-62
-62
-62
-63
-63
-65
-65
-65
-66
-66
-67
-68
-68
-70
-70
-71
-72
-72
-73
-74
-74
-75
-75
-76
-77
-77
-77
-78
-79
-80
-80
-81
-81
-81
-82
-82
-82
-83
-83
-84
-84
-84
-84
-84
-84
-84
-85
-85
-85
-85
-85
-85
-85
-85
-85
-85
-84
-84
-84
-84
-83
-83
-83
-83
-82
-81
-81
-80
-79
-79
-78
-77
-76
-75
-75
-73
-72
-72
-71
-69
-68
-67
-66
-65
-64
-62
-61
-59
-58
-57
-56
-55
-54
-53
-52
-50
-49
-47
-46
-45
-44
-43
-42
-41
-40
-39
-39
-38
-37
-36
-35
-35
-34
-33
-32
-31
-30
-30
-29
-28
-27
-27
-26
-25
-25
-24
-23
-23
-23
-23
-22
-22
-22
-21
-21
-20
-20
-20
-20
-19
-19
-18
-18
-18
-18
-18
-18
-17
-17
-17
-17
-17
-17
-16
-16
-16
-16
-16
-15
-15
-15
-15
-15
-15
-15
-14
-14
-15
-15
-15
-15
-15
-15
-15
-14
-14
-14
-15
-15
-14
-14
-14
-14
-14
-14
-14
-14
-14
-14
-13
-13
-13
-13
-13
-13
-13
-13
-13
-13
-13
-13
-13
-13
-13
-13
-13
-13
-13
-12
-12
-13
-13
-13
-12
-12
-12
-13
-13
-12
-12
-12
-12
-12
-12
-13
-13
-13
-13
-13
-13
-13
-14
-14
-14
-14
-14
-14
-14
-14
-14
-14
-14
-14
-14
-14
-14
-14
-14
-14
-14
-14
-14
-14
-14
-13
-13
-13
-14
-14
-14
-13
-13
-13
-14
-14
-14
-14
-14
-14
-14
-14
-14
-14
-14
-14
-14
-15
-15
-15
-15
-15
-16
-16
-16
-16
-16
-16
-16
-16
-16
-16
-16
-16
-16
-15
-15
-15
-15
-15
-15
-15
-15
-15
-15
-15
-15
-14
-15
-15
-15
-15
-15
-15
-15
-14
-14
-14
-14
-14
-14
-14
-14
-14
-14
-14
-14
-13
-13
-13
-14
-13
-13
-13
-14
-14
-13
-13
-14
-13
-12
-13
-13
-13
-12
-12
-12
-12
-13
-13
-13
-12
-12
-12
-13
-13
-13
-13
-13
-13
-13
-13
-13
-13
-13
-13
-13
-13
-13
-12
-13
-13
-13
-13
-13
-13
-13
-13
-13
-13
-13
-13
-12
-12
-12
-13
-13
-12
-12
-12
-12
-12
-12
-12
-12
-12
-12
-12
-13
-13
-13
-13
-12
-12
-13
-13
-13
-13
-12
-13
-13
-12
-13
-12
-13
-13
-13
-13
-12
-12
-12
-13
-13
-13
-13
-12
-12
-13
-13
-13
-13
-12
-12
-12
-13
-12
-12
-12
-11
-11
-11
-12
-12
-12
-12
-11
-11
-12
-12
-12
-12
-11
-12
-12
-13
-13
-13
-12
-13
-13
-13
-13
-14
-14
-15
-15
-16
-16
-16
-17
-17
-18
-19
-18
-19
-19
-20
-21
-22
-22
-23
-24
-24
-25
-26
-26
-27
-27
-28
-29
-30
-31
-31
-32
-32
-33
-34
-35
-35
-37
-37
-38
-39
-39
-40
-40
-42
-42
-42
-42
-43
-43
-43
-44
-43
-43
-43
-42
-42
-41
-40
-39
-38
-38
-37
-37
-36
-34
-34
-33
-32
-32
-32
-31
-30
-29
-29
-29
-28
-28
-27
-27
-27
-26
-26
-25
-24
-23
-23
-22
-22
-21
-21
-20
-19
-18
-18
-16
-16
-15
-14
-14
-13
-13
-12
-11
-11
-10
-10
-10
-8
-8
-8
-8
-8
-7
-8
-8
-7
-7
-8
-8
-8
-8
-8
-8
-8
-8
-8
-8
-8
-7
-7
-7
-6
-6
-6
-6
-7
-7
-7
-7
-6
-7
-7
-7
-7
-7
-7
-7
-7
-7
-6
-6
-7
-7
-7
-6
-6
-6
-6
-6
-6
-6
-6
-7
-7
-7
-7
-7
-7
-7
-7
-8
-8
-8
-8
-8
-8
-8
-9
-8
-9
-8
-8
-9
-8
-8
-8
-8
-9
-8
-9
-10
-11
-12
-12
-14
-16
-18
-20
-23
-27
-31
-36
-41
-47
-54
-60
-66
-75
-83
-92
-100
-108
-117
-125
-134
-142
-150
-157
-164
-169
-174
-178
-181
-182
-184
-182
-180
-177
-173
-166
-160
-152
-143
-133
-123
-113
-101
-89
-78
-66
-54
-43
-32
-21
-10
0
8
16
24
31
38
44
48
52
55
57
58
59
60
59
58
57
54
52
49
47
43
40
37
33
28
25
21
17
14
11
7
5
2
-1
-3
-5
-7
-10
-11
-12
-13
-14
-15
-16
-17
-17
-17
-17
-18
-18
-18
-18
-18
-19
-19
-19
-20
-20
-20
-20
-20
-20
-21
-21
-21
-21
-22
-22
-22
-23
-23
-23
-25
-25
-25
-25
-26
-26
-26
-26
-26
-26
-26
-26
-27
-27
-27
-27
-27
-27
-27
-28
-27
-27
-28
-28
-28
-28
-28
-28
-28
-28
-29
-29
-29
-29
-29
-30
-29
-30
-30
-30
-31
-31
-31
-32
-31
-31
-32
-32
-33
-33
-33
-33
-34
-34
-34
-34
-34
-35
-35
-35
-35
-35
-35
-35
-36
-36
-36
-36
-36
-37
-37
-37
-38
-38
-38
-38
-39
-39
-40
-40
-40
-40
-41
-41
-41
-42
-42
-42
-42
-42
-43
-43
-44
-44
-44
-44
-45
-45
-45
-45
-46
-46
-46
-46
-47
-47
-47
-48
-49
-49
-50
-50
-51
-51
-51
-51
-52
-52
-54
-54
-54
-55
-55
-56
-56
-57
-57
-57
-59
-59
-60
-61
-61
-61
-62
-62
-63
-63
-65
-65
-66
-66
-67
-67
-68
-68
-70
-70
-71
-71
-72
-73
-73
-74
-74
-74
-76
-77
-77
-78
-78
-78
-79
-79
-80
-80
-81
-82
-82
-83
-83
-83
-84
-84
-84
-84
-85
-85
-85
-85
-85
-85
-85
-86
-86
-86
-85
-85
-85
-85
-86
-86
-85
-85
-84
-84
-83
-83
-83
-83
-82
-81
-81
-81
-80
-79
-79
-78
-76
-76
-75
-74
-73
-72
-71
-69
-68
-68
-67
-66
-63
-62
-61
-60
-59
-58
-56
-55
-53
-52
-51
-50
-49
-48
-46
-45
-44
-42
-42
-41
-40
-39
-38
-37
-37
-36
-35
-34
-33
-32
-31
-31
-30
-29
-28
-28
-27
-27
-26
-25
-24
-24
-23
-23
-22
-22
-21
-21
-20
-20
-19
-19
-19
-19
-18
-18
-18
-18
-18
-18
-18
-17
-17
-17
-17
-17
-17
-17
-17
-17
-16
-16
-16
-16
-15
-15
-15
-15
-15
-15
-15
-14
-14
-14
-14
-14
-14
-14
-13
-13
-13
-13
-13
-14
-13
-13
-14
-13
-13
-12
-13
-13
-13
-12
-12
-12
-12
-12
-12
-12
-12
-13
-13
-12
-12
-12
-13
-13
-13
-12
-12
-12
-12
-12
-13
-13
-13
-13
-13
-13
-13
-12
-12
-12
-12
-12
-12
-12
-12
-12
-12
-12
-12
-12
-12
-12
-12
-12
-12
-12
-12
-12
-12
-12
-12
-12
-12
-12
-12
-13
-12
-12
-12
-13
-13
-13
-13
-13
-13
-13
-13
-13
-13
-13
-13
-13
-13
-13
-13
-13
-13
-13
-13
-13
-13
-12
-12
-13
-13
-12
-12
-12
-12
-12
-13
-12
-12
-12
-12
-12
-13
-13
-13
-13
-13
-13
-13
-13
-13
-13
-13
-13
-13
-13
-13
-13
-13
-13
-13
-13
-13
-14
-14
-14
-14
-14
-13
-13
-13
-13
-13
-13
-12
-12
-11
-12
-12
-11
-12
-12
-11
-11
-11
-11
-11
-11
-11
-11
-10
-10
-11
-11
-11
-11
-11
-11
-11
-11
-11
-11
-11
-11
-12
-12
-12
-12
-12
-12
-12
-12
-12
-12
-12
-12
-12
-12
-12
-12
-12
-12
-12
-11
-11
-11
-11
-11
-11
-11
-12
-12
-12
-11
-12
-11
-11
-11
-11
-11
-11
-11
-11
-11
-11
-11
-11
-11
-11
-11
-10
-11
-11
-11
-11
-11
-11
-11
-11
-10
-10
-10
-10
-11
-11
-11
-11
-11
-11
-11
-12
-12
-11
-11
-11
-11
-11
-11
-11
-11
-11
-11
-10
-10
-10
-10
-10
-10
-9
-9
-10
-10
-10
-10
-10
-9
-9
-9
-10
-10
-10
-10
-10
-10
-10
-9
-10
-10
-10
-10
-10
-10
-10
-10
-10
-10
-10
-10
-10
-10
-10
-10
-10
-10
-10
-10
-10
-10
-10
-9
-9
-9
-9
-9
-9
-9
-9
-9
-9
-9
-9
-9
-9
-9
-9
-9
-9
-9
-9
-9
-9
-9
-10
-10
-10
-10
-10
-10
-10
-10
-11
-11
-11
-11
-12
-12
-13
-13
-13
-13
-14
-14
-15
-16
-16
-16
-17
-16
-17
-18
-19
-19
-19
-20
-19
-20
-21
-22
-22
-23
-24
-24
-24
-25
-26
-27
-28
-28
-29
-30
-31
-31
-33
-33
-34
-35
-35
-37
-37
-37
-38
-38
-39
-40
-40
-40
-39
-39
-39
-39
-39
-39
-38
-37
-38
-37
-36
-35
-34
-33
-33
-32
-31
-31
-31
-30
-29
-29
-28
-28
-27
-26
-27
-26
-25
-25
-25
-24
-23
-23
-22
-22
-21
-21
-20
-20
-19
-18
-17
-16
-16
-15
-14
-13
-12
-12
-12
-10
-10
-9
-9
-9
-7
-7
-7
-6
-6
-6
-6
-6
-6
-5
-5
-5
-5
-5
-5
-5
-5
-5
-5
-5
-5
-5
-5
-5
-5
-5
-6
-6
-6
-6
-6
-6
-5
-6
-5
-5
-5
-4
-4
-4
-5
-5
-5
-5
-5
-5
-5
-5
-5
-5
-5
-5
-6
-6
-6
-6
-6
-6
-6
-6
-6
-6
-7
-7
-7
-7
-7
-7
-8
-8
-7
-7
-8
-8
-8
-8
-8
-8
-7
-8
-8
-7
-7
-7
-8
-8
-8
-9
-10
-11
-12
-14
-16
-18
-21
-24
-29
-32
-38
-44
-50
-57
-63
-72
-80
-88
-96
-106
-114
-123
-131
-139
-148
-154
-162
-167
-173
-177
-179
-181
-182
-181
-179
-176
-171
-166
-159
-151
-142
-132
-123
-111
-101
-89
-77
-65
-54
-42
-31
-21
-11
-1
8
15
23
30
37
41
46
50
54
56
58
59
59
59
58
57
56
54
51
49
45
43
39
36
32
28
25
21
17
14
11
8
5
3
0
-2
-4
-6
-8
-9
-10
-12
-13
-13
-14
-15
-15
-15
-16
-17
-17
-17
-18
-18
-18
-18
-18
-18
-18
-18
-18
-19
-19
-20
-20
-20
-21
-21
-21
-21
-21
-21
-22
-22
-22
-23
-23
-23
-24
-24
-24
-24
-24
-24
-24
-24
-24
-24
-25
-25
-25
-26
-25
-26
-26
-26
-26
-27
-27
-28
-28
-28
-29
-29
-29
-29
-29
-30
-30
-30
-30
-31
-31
-32
-32
-32
-32
-32
-32
-33
-33
-33
-33
-33
-33
-34
-34
-34
-34
-34
-34
-34
-34
-35
-35
-34
-35
-35
-35
-35
-36
-36
-36
-36
-36
-36
-37
-37
-37
-38
-39
-38
-38
-39
-40
-40
-40
-40
-41
-41
-41
-41
-41
-41
-42
-42
-42
-43
-43
-43
-44
-44
-43
-45
-45
-45
-46
-46
-47
-47
-48
-48
-49
-50
-50
-51
-51
-52
-52
-52
-52
-53
-53
-54
-55
-55
-55
-56
-56
-57
-57
-58
-58
-59
-59
-60
-60
-60
-61
-61
-62
-63
-63
-64
-64
-64
-65
-66
-66
-67
-67
-67
-68
-68
-69
-69
-70
-70
-71
-71
-72
-72
-73
-73
-74
-74
-75
-75
-76
-77
-77
-78
-78
-78
-79
-79
-79
-80
-80
-80
-80
-81
-81
-81
-82
-81
-81
-81
-81
-81
-81
-80
-80
-80
-80
-79
-79
-79
-79
-79
-78
-78
-78
-77
-76
-76
-76
-75
-75
-75
-73
-73
-72
-71
-71
-69
-69
-68
-67
-66
-64
-63
-63
-62
-60
-59
-58
-56
-55
-54
-53
-51
-50
-49
-48
-47
-46
-45
-44
-43
-42
-41
-40
-39
-39
-38
-37
-36
-35
-34
-33
-32
-31
-30
-30
-29
-29
-28
-27
-27
-26
-26
-26
-25
-25
-24
-24
-23
-23
-23
-22
-22
-21
-21
-21
-20
-20
-20
-19
-18
-19
-19
-18
-18
-18
-17
-17
-17
-17
-17
-16
-16
-16
-16
-16
-16
-15
-15
-15
-15
-15
-16
-16
-16
-16
-16
-16
-15
-15
-16
-16
-16
-15
-15
-15
-16
-16
-16
-15
-15
-15
-15
-15
-15
-15
-14
-14
-14
-14
-14
-14
-14
-14
-14
-14
-14
-14
-14
-14
-14
-14
-15
-15
-14
-14
-15
-15
-15
-16
-16
-15
-15
-15
-16
-16
-16
-16
-16
-16
-16
-16
-16
-16
-16
-15
-16
-16
-16
-16
-16
-16
-16
-15
-15
-15
-16
-16
-15
-15
-15
-15
-15
-16
-16
-16
-16
-16
-17
-17
-16
-16
-16
-16
-16
-16
-17
-17
-17
-17
-17
-17
-17
-17
-17
-17
-17
-17
-17
-17
-17
-17
-17
-17
-16
-16
-17
-17
-16
-17
-17
-17
-17
-17
-17
-17
-17
-17
-17
-17
-17
-17
-17
-17
-16
-17
-17
-17
-16
-17
-17
-17
-17
-17
-17
-17
-17
-16
-16
-16
-16
-16
-16
-16
-16
-16
-16
-16
-16
-16
-16
-16
-16
-16
-16
-16
-16
-17
-16
-17
-16
-16
-16
-16
-16
-16
-16
-15
-15
-15
-15
-15
-15
-15
-15
-14
-14
-14
-14
-14
-14
-14
-14
-14
-14
-14
-14
-14
-14
-14
-14
-14
-14
-14
-14
-14
-14
-14
-13
-14
-14
-14
-13
-13
-13
-13
-13
-13
-13
-13
-13
-13
-13
-13
-13
-13
-13
-13
-13
-13
-13
-13
-13
-13
-13
-13
-13
-13
-13
-13
-13
-13
-13
-14
-14
-14
-13
-13
-13
-13
-13
-13
-13
-13
-13
-13
-13
-13
-13
-13
-13
-12
-13
-13
-13
-13
-12
-12
-12
-12
-12
-12
-12
-12
-12
-12
-12
-13
-13
-13
-13
-13
-13
-14
-14
-14
-14
-14
-15
-15
-16
-16
-16
-17
-17
-17
-18
-18
-19
-20
-20
-20
-21
-22
-23
-24
-23
-24
-25
-25
-27
-27
-28
-29
-30
-30
-31
-32
-33
-33
-33
-35
-35
-35
-36
-37
-37
-38
-39
-39
-40
-40
-41
-41
-41
-41
-41
-41
-41
-40
-41
-40
-40
-39
-39
-39
-38
-38
-37
-36
-36
-35
-34
-33
-33
-32
-32
-31
-31
-31
-30
-29
-29
-28
-28
-28
-27
-27
-26
-26
-26
-25
-24
-24
-23
-23
-21
-21
-20
-19
-19
-17
-17
-16
-15
-14
-13
-13
-12
-12
-11
-10
-10
-9
-9
-9
-8
-8
-8
-7
-8
-8
-8
-8
-8
-7
-7
-7
-7
-7
-7
-7
-7
-7
-7
-7
-7
-7
-7
-7
-7
-6
-6
-7
-7
-7
-7
-7
-7
-7
-6
-7
-6
-6
-7
-7
-7
-7
-8
-8
-8
-8
-7
-7
-7
-8
-8
-8
-8
-8
-8
-9
-9
-8
-9
-9
-8
-8
-8
-8
-9
-9
-9
-8
-9
-8
-9
-8
-8
-9
-8
-8
-8
-8
-8
-8
-8
-9
-10
-10
-11
-13
-15
-17
-20
-22
-26
-31
-35
-40
-46
-52
-58
-66
-73
-80
-89
-97
-106
-114
-122
-130
-137
-146
-153
-158
-164
-169
-173
-175
-176
-176
-175
-172
-169
-164
-158
-151
-144
-135
-126
-115
-104
-94
-82
-72
-60
-49
-38
-27
-17
-8
2
10
17
24
30
36
42
45
49
52
53
55
55
55
55
54
52
51
48
46
42
40
37
33
29
25
22
18
14
11
8
5
2
-1
-4
-6
-7
-9
-11
-13
-14
-15
-16
-16
-17
-18
-18
-18
-19
-20
-20
-20
-20
-20
-20
-20
-21
-21
-21
-22
-22
-22
-22
-22
-23
-23
-23
-23
-24
-25
-24
-24
-25
-26
-26
-26
-26
-26
-27
-27
-27
-27
-27
-27
-28
-28
-29
-29
-29
-29
-29
-30
-30
-30
-30
-30
-30
-31
-31
-31
-31
-31
-31
-31
-32
-32
-32
-32
-32
-32
-32
-32
-32
-33
-33
-33
-34
-34
-34
-34
-34
-34
-34
-35
-35
-35
-35
-35
-35
-36
-36
-36
-36
-36
-36
-36
-36
-36
-37
-37
-37
-37
-37
-37
-37
-38
-38
-38
-38
-39
-39
-39
-40
-40
-40
-41
-41
-41
-41
-42
-43
-43
-43
-43
-44
-44
-44
-44
-44
-45
-45
-45
-46
-46
-46
-46
-47
-47
-47
-48
-49
-49
-49
-50
-50
-51
-51
-51
-51
-53
-53
-54
-54
-54
-54
-55
-56
-56
-57
-57
-58
-58
-59
-60
-60
-61
-61
-62
-62
-63
-64
-65
-66
-66
-66
-67
-67
-68
-68
-70
-70
-71
-71
-72
-72
-73
-73
-74
-75
-75
-76
-77
-77
-77
-78
-78
-79
-79
-80
-80
-80
-80
-81
-81
-82
-82
-83
-83
-83
-84
-84
-85
-84
-84
-84
-84
-85
-85
-85
-85
-84
-84
-85
-85
-85
-84
-84
-84
-83
-83
-82
-82
-82
-81
-81
-80
-79
-79
-79
-77
-76
-76
-75
-73
-73
-72
-71
-70
-68
-67
-66
-66
-64
-63
-61
-60
-59
-58
-57
-56
-55
-53
-52
-50
-49
-48
-47
-46
-45
-44
-43
-42
-41
-40
-39
-38
-38
-37
-36
-36
-35
-34
-33
-32
-32
-31
-30
-29
-29
-29
-28
-27
-27
-26
-25
-25
-24
-24
-23
-22
-23
-22
-22
-21
-21
-21
-20
-20
-19
-19
-19
-18
-18
-19
-18
-18
-18
-18
-18
-17
-17
-17
-16
-16
-16
-16
-16
-16
-15
-15
-15
-15
-15
-15
-15
-15
-15
-15
-15
-15
-15
-14
-14
-14
-15
-15
-15
-15
-14
-14
-15
-15
-15
-15
-15
-14
-15
-14
-14
-14
-14
-13
-13
-14
-14
-14
-14
-13
-13
-13
-13
-13
-13
-13
-13
-13
-13
-13
-14
-14
-14
-14
-14
-14
-14
-14
-14
-14
-14
-14
-14
-14
-14
-14
-14
-14
-14
-15
-14
-14
-14
-15
-15
-14
-14
-14
-14
-14
-14
-15
-15
-15
-15
-15
-15
-15
-15
-15
-15
-15
-15
-15
-15
-15
-15
-15
-15
-15
-15
-16
-15
-15
-16
-16
-16
-16
-16
-16
-16
-16
-15
-15
-15
-15
-15
-15
-15
-15
-16
-16
-15
-15
-15
-15
-16
-15
-15
-15
-15
-15
-15
-15
-15
-15
-15
-15
-15
-15
-15
-15
-15
-16
-16
-15
-15
-15
-15
-15
-15
-15
-15
-15
-14
-14
-14
-14
-14
-14
-15
-15
-14
-14
-14
-14
-14
-14
-14
-14
-14
-14
-13
-13
-13
-13
-13
-13
-13
-13
-13
-13
-13
-14
-14
-14
-14
-14
-14
-14
-14
-14
-14
-14
-14
-14
-14
-14
-14
-14
-13
-13
-13
-13
-13
-13
-13
-13
-13
-13
-13
-13
-12
-13
-13
-12
-12
-12
-12
-13
-12
-12
-13
-12
-13
-13
-12
-12
-12
-12
-13
-13
-12
-12
-12
-12
-13
-13
-13
-12
-12
-12
-12
-13
-13
-13
-12
-12
-12
-12
-12
-12
-12
-12
-12
-12
-12
-12
-12
-12
-11
-11
-12
-12
-12
-12
-11
-11
-11
-11
-11
-11
-11
-11
-11
-11
-11
-12
-12
-11
-11
-11
-11
-12
-12
-11
-11
-11
-12
-12
-12
-12
-12
-12
-12
-12
-12
-12
-12
-12
-12
-12
-12
-12
-12
-12
-12
-12
-12
-12
-12
-12
-12
-12
-12
-12
-12
-13
-13
-13
-13
-13
-12
-12
-13
-13
-13
-13
-14
-14
-15
-15
-15
-16
-16
-17
-18
-18
-18
-18
-19
-20
-21
-22
-22
-23
-23
-24
-24
-25
-26
-27
-28
-29
-29
-30
-31
-31
-32
-32
-33
-33
-35
-36
-36
-37
-38
-38
-39
-40
-40
-41
-41
-41
-42
-42
-42
-42
-42
-41
-41
-41
-40
-40
-39
-38
-38
-37
-37
-36
-35
-35
-34
-33
-33
-32
-31
-31
-31
-30
-29
-28
-28
-28
-27
-26
-25
-25
-24
-24
-23
-23
-22
-21
-21
-21
-20
-19
-18
-18
-17
-17
-15
-15
-14
-14
-12
-12
-11
-11
-9
-9
-8
-8
-8
-7
-7
-7
-7
-6
-6
-6
-6
-6
-6
-6
-6
-6
-6
-6
-6
-6
-6
-6
-6
-6
-6
-6
-6
-6
-6
-6
-6
-6
-6
-6
-5
-5
-5
-5
-5
-5
-5
-5
-5
-5
-5
-6
-6
-6
-6
-6
-6
-7
-7
-7
-7
-7
-7
-6
-7
-7
-7
-7
-7
-7
-8
-8
-8
-8
-8
-8
-8
-8
-8
-8
-8
-8
-8
-8
-8
-8
-8
-8
-8
-8
-9
-9
-10
-11
-12
-13
-16
-18
-20
-23
-27
-32
-36
-41
-48
-54
-60
-66
-74
-82
-91
-99
-107
-116
-123
-131
-139
-147
-154
-160
-166
-170
-174
-177
-178
-179
-179
-176
-173
-169
-164
-157
-149
-141
-132
-122
-111
-100
-88
-77
-66
-54
-42
-32
-21
-11
-1
7
