# Simple Text Format
# Sampling Rate (Hz):= 1200.00
# Resolution:= 12
# Labels:= ECG	aVL
# Age:=	33
# Gender:=	Masculino
49
49
49
49
50
50
51
50
50
50
50
51
51
51
51
51
51
51
51
52
53
53
53
53
53
53
53
53
53
53
54
54
54
54
55
55
55
55
56
55
55
55
55
56
56
56
56
56
55
55
55
56
56
57
57
56
56
57
57
57
57
57
57
58
58
58
58
58
58
59
59
59
59
59
60
60
60
60
61
61
61
61
61
61
62
62
62
62
63
63
63
63
63
63
63
63
64
64
64
64
64
64
65
65
65
65
65
65
66
66
67
67
67
68
68
69
69
69
70
70
70
70
71
71
71
72
72
73
73
73
73
75
75
75
75
76
76
77
77
77
79
79
79
80
80
80
81
82
82
82
83
84
84
84
85
85
85
85
86
86
86
87
87
87
88
88
89
89
89
90
90
90
90
90
91
91
91
91
93
93
93
93
93
93
93
93
94
94
94
94
94
93
93
93
92
93
92
92
92
91
91
90
89
89
88
88
87
87
87
86
85
84
84
83
82
81
81
81
79
79
79
77
76
76
75
74
73
73
71
71
70
69
68
67
66
65
65
64
63
63
61
61
60
60
59
58
58
57
56
55
55
55
54
54
53
53
53
52
52
51
51
50
50
50
49
50
50
49
49
49
48
48
48
48
47
47
47
47
47
46
46
46
45
45
45
45
45
45
45
45
44
44
45
45
45
45
44
45
45
45
44
45
45
45
45
46
45
45
45
45
45
45
45
45
44
44
44
44
44
44
44
44
44
44
44
45
45
45
44
44
45
45
45
45
45
44
44
45
45
44
44
44
44
44
44
44
43
43
43
43
43
43
43
43
44
43
43
44
44
43
43
43
43
43
43
43
43
43
43
43
43
43
43
43
43
43
43
43
43
43
42
42
42
42
42
42
42
42
42
42
42
42
42
42
42
42
42
42
42
42
42
42
42
42
42
42
42
42
42
42
42
42
42
42
42
42
42
42
42
43
43
43
43
43
43
43
43
43
43
43
43
43
43
43
43
43
44
44
44
44
44
44
44
44
45
44
44
44
44
44
44
44
45
45
45
44
44
45
45
45
45
45
45
45
44
44
44
44
44
44
44
44
44
45
45
44
45
45
45
45
45
45
45
45
45
44
44
44
44
44
44
44
44
44
44
44
44
44
45
45
45
45
45
45
45
45
45
45
45
45
45
44
44
44
44
44
44
44
44
44
44
44
44
44
44
45
45
44
44
44
45
45
45
45
45
45
45
45
45
45
45
45
45
45
46
46
46
46
46
46
46
46
47
47
47
47
47
46
47
47
47
47
47
47
47
47
47
47
47
47
47
47
47
47
47
48
48
48
48
48
47
48
48
48
48
49
48
48
48
48
48
49
48
48
48
48
48
48
49
49
48
49
49
50
50
51
52
52
53
53
54
55
56
57
57
58
59
59
60
61
61
61
61
62
62
62
62
62
62
61
62
61
62
61
61
62
61
61
62
61
62
61
62
62
63
63
63
63
63
64
63
64
64
64
64
64
64
63
63
63
62
61
61
61
60
59
59
57
57
56
56
56
55
55
54
52
52
52
52
51
50
50
49
49
49
50
49
49
49
49
49
48
49
49
48
49
49
48
49
49
48
48
48
48
48
49
49
48
48
48
49
49
49
49
48
48
48
48
48
48
48
47
47
47
47
48
48
47
47
47
47
47
46
47
47
46
46
47
47
47
47
47
47
47
47
47
47
48
48
48
49
49
50
51
51
53
54
54
56
58
58
60
62
63
65
67
69
71
73
75
77
80
82
84
87
89
91
94
96
99
101
103
104
105
105
105
104
101
99
94
90
86
81
75
68
61
53
46
39
30
22
14
6
-2
-9
-15
-21
-26
-31
-35
-38
-41
-43
-45
-46
-48
-48
-48
-48
-48
-47
-46
-45
-44
-42
-39
-37
-35
-33
-30
-28
-25
-22
-19
-16
-14
-11
-8
-4
-1
3
6
9
12
15
19
22
25
27
29
33
35
37
39
40
42
42
43
44
46
46
47
47
47
48
49
49
49
50
50
50
51
51
51
51
51
52
52
52
53
53
54
54
54
54
55
55
55
55
55
55
55
55
56
56
56
56
56
56
56
57
57
57
57
57
57
57
57
58
58
59
59
59
59
59
59
59
60
60
60
60
60
60
60
60
60
60
60
59
60
60
60
60
60
60
60
59
60
60
60
61
60
60
60
60
60
60
60
60
60
61
61
61
61
62
62
63
63
63
63
63
63
63
63
63
64
64
64
65
65
65
65
65
65
65
65
65
65
65
66
66
66
66
67
67
67
67
67
67
67
68
68
68
69
69
69
70
70
70
71
71
72
72
72
72
73
73
73
74
74
75
75
75
75
76
76
77
77
78
78
79
79
80
80
80
80
82
82
82
83
83
84
84
84
85
85
85
86
87
87
87
88
88
89
89
90
90
90
91
91
91
92
93
93
92
93
93
94
94
94
95
94
94
94
95
95
95
95
94
95
95
95
95
95
94
94
95
94
94
94
93
93
93
92
92
92
92
91
91
90
89
89
89
88
88
87
86
86
86
84
84
83
82
82
80
80
79
78
77
76
75
75
74
73
72
71
71
70
69
69
68
67
67
66
65
65
64
64
62
62
62
62
61
61
59
59
59
58
58
58
58
57
57
56
57
56
56
56
55
56
55
55
55
54
54
54
55
54
54
54
53
53
53
53
53
53
53
53
53
53
53
52
52
52
52
52
52
52
52
52
52
52
52
52
51
52
52
51
51
52
52
52
52
52
52
52
52
52
52
52
52
52
52
52
52
52
52
52
52
52
51
52
52
52
51
51
51
52
52
52
51
51
51
51
51
51
51
51
51
50
50
51
51
50
50
50
50
50
50
50
50
50
50
50
50
50
50
50
50
49
50
50
50
49
49
49
49
49
49
49
49
50
50
50
49
49
49
49
49
49
50
50
50
50
50
49
50
50
50
50
50
50
49
49
50
50
50
49
49
49
49
50
50
50
50
50
50
50
50
50
50
50
50
50
50
50
50
50
51
51
50
50
51
51
52
52
52
52
51
51
52
52
52
52
52
53
53
52
52
52
52
53
53
53
53
53
53
53
52
52
52
52
52
52
53
53
53
53
53
53
52
53
53
53
53
53
53
53
53
53
53
53
53
54
54
54
54
54
54
54
54
55
55
55
55
54
55
55
55
55
55
55
54
54
54
55
54
54
54
54
54
54
54
54
54
54
54
55
55
55
55
55
55
55
55
55
55
55
55
55
55
55
55
55
55
55
55
55
55
55
55
55
55
55
55
54
54
55
55
55
55
54
54
54
54
55
55
54
55
55
55
54
54
55
55
55
55
55
55
55
55
55
56
56
56
55
56
56
56
56
56
56
56
56
56
55
55
55
56
56
55
55
55
55
56
56
55
56
56
55
55
55
55
55
55
55
55
55
54
54
55
55
55
55
55
55
55
55
56
56
56
56
56
56
56
56
57
56
56
56
57
57
57
57
57
57
57
57
57
57
57
57
57
57
57
57
57
57
57
57
58
58
57
57
58
58
58
57
57
57
57
57
57
57
57
57
57
57
57
57
57
57
57
57
57
57
57
58
59
59
58
58
58
59
59
59
59
59
59
58
59
59
59
60
59
60
59
59
60
60
60
60
60
61
61
61
62
62
62
64
64
65
65
67
67
68
69
70
71
71
71
73
73
74
74
74
75
75
75
75
75
74
74
75
75
74
74
74
74
74
74
74
73
74
73
74
73
74
74
74
74
74
74
75
74
74
74
74
74
74
73
73
73
72
72
72
72
70
69
69
68
67
66
66
64
63
63
61
61
60
60
58
58
57
57
57
57
56
56
56
55
55
56
55
55
56
56
56
57
57
57
56
56
56
56
56
56
56
55
55
55
55
55
55
55
55
55
55
55
55
54
54
54
54
54
54
54
54
54
54
54
54
54
54
54
53
54
54
54
54
54
54
54
54
54
53
53
53
53
53
53
54
54
53
54
54
55
56
57
57
57
58
59
60
61
62
63
65
66
68
70
72
75
76
79
81
84
87
89
92
95
99
102
105
109
112
115
117
119
120
120
119
118
116
114
110
106
102
98
94
87
82
76
69
62
55
48
41
33
27
22
16
11
7
2
-1
-5
-9
-12
-15
-18
-20
-23
-25
-26
-28
-28
-28
-29
-28
-28
-27
-26
-25
-23
-22
-20
-17
-15
-12
-8
-6
-2
2
5
8
13
16
19
23
26
29
32
35
37
39
42
44
45
47
48
50
51
52
53
53
54
54
55
55
55
56
56
56
57
57
57
57
58
58
58
58
58
58
58
59
59
60
60
60
60
60
60
60
61
61
61
61
62
62
62
62
62
62
63
63
63
64
64
64
64
64
64
64
64
64
64
64
65
65
65
64
65
66
66
66
66
66
66
66
66
66
66
66
66
66
66
66
66
67
67
67
67
67
68
68
68
68
67
68
69
69
69
69
69
68
68
68
69
69
69
69
69
69
69
69
69
70
70
70
70
70
71
70
70
71
71
72
72
72
72
73
73
73
73
73
73
74
74
74
74
75
75
75
76
76
76
76
77
77
77
78
78
78
78
79
79
80
80
80
80
81
81
82
82
82
83
84
84
84
84
85
85
85
86
86
87
87
87
87
89
89
89
90
91
91
91
92
92
93
94
94
94
96
96
97
97
98
98
98
99
99
100
101
101
101
102
102
102
103
103
104
104
104
104
104
104
105
104
104
104
104
105
105
105
104
105
105
105
105
105
104
104
104
104
104
103
103
104
102
102
102
102
102
101
101
100
100
100
99
98
98
97
97
96
95
95
94
93
92
92
91
91
89
89
88
87
86
85
85
84
83
82
82
81
80
80
78
78
77
77
76
76
74
74
74
73
72
72
71
70
70
69
69
68
68
67
67
66
66
65
65
64
64
64
63
63
63
63
63
63
62
61
61
62
61
61
61
61
61
61
61
60
60
60
60
60
60
60
60
60
60
60
60
60
60
60
60
60
60
59
59
59
59
59
59
59
59
59
60
60
59
60
60
60
60
60
60
60
60
60
60
59
60
60
60
60
60
60
60
59
59
59
59
59
59
59
59
58
58
58
58
58
58
58
57
57
57
57
57
57
57
57
57
57
57
57
56
56
56
57
57
57
57
57
56
56
57
57
57
56
56
56
56
56
56
56
56
55
55
55
55
55
55
55
55
55
55
55
55
55
55
54
55
55
55
55
55
55
55
55
55
55
55
55
55
55
55
55
55
55
54
54
54
54
54
54
54
54
54
54
54
55
55
55
55
55
55
55
55
55
55
55
56
56
56
56
56
56
56
56
56
56
56
56
56
56
56
56
56
56
56
56
56
56
56
56
56
56
56
56
57
57
57
57
57
57
58
57
57
57
57
58
58
58
59
59
59
59
59
59
60
60
60
60
60
60
60
60
60
60
60
59
59
60
60
60
59
59
59
59
59
59
59
59
59
59
60
60
60
60
60
60
60
59
59
59
59
59
59
59
59
59
59
60
60
60
60
59
59
59
59
59
59
59
59
59
59
58
58
58
59
59
59
58
58
58
58
58
58
58
58
58
58
58
58
58
58
58
58
58
59
59
59
59
58
59
59
58
58
58
58
58
58
58
58
58
58
58
58
57
58
58
58
58
58
58
58
58
58
58
58
58
58
58
59
59
59
59
59
59
59
59
59
59
59
59
59
59
59
59
59
59
59
59
59
59
59
59
59
59
58
58
58
58
58
58
58
58
59
58
59
59
59
59
59
59
59
59
58
59
59
59
59
58
59
59
58
58
58
58
59
59
59
59
58
59
59
59
59
59
59
59
59
59
59
59
59
59
59
60
60
60
60
61
61
61
60
60
60
61
61
60
60
61
60
61
61
61
62
61
62
62
63
63
63
64
64
64
66
66
67
67
69
69
69
71
72
72
73
73
74
75
75
75
75
75
76
76
76
75
75
75
75
75
75
74
75
74
74
73
74
73
73
73
74
73
73
73
74
73
74
73
73
73
73
73
74
73
73
73
72
72
71
71
71
70
70
68
67
67
67
66
65
65
63
62
62
61
60
60
59
59
57
57
57
57
57
56
56
56
56
56
55
55
55
55
55
55
55
55
55
55
55
55
55
55
55
55
54
54
54
54
54
54
54
55
55
55
54
54
54
53
53
53
53
53
52
53
53
53
53
53
53
53
52
52
52
53
53
53
52
52
53
53
53
53
53
53
53
53
53
53
54
54
54
55
56
56
57
58
58
58
59
60
61
63
63
65
66
68
70
72
74
77
79
82
85
87
90
93
97
100
104
108
112
115
118
120
122
123
123
123
121
119
117
113
108
104
99
94
88
81
75
67
60
52
44
36
28
21
15
8
3
-3
-8
-13
-16
-21
-25
-27
-31
-33
-35
-37
-39
-41
-40
-41
-40
-40
-39
-37
-36
-35
-33
-30
-28
-24
-21
-19
-16
-12
-9
-5
-1
2
6
10
13
16
21
24
27
30
32
35
37
39
41
43
44
45
47
47
49
49
50
50
52
52
53
53
53
53
54
55
55
55
56
56
56
56
56
57
57
57
57
57
57
58
58
59
59
59
59
59
59
59
60
60
60
59
60
60
60
60
60
59
60
60
60
60
60
60
60
60
60
61
61
62
62
62
62
63
63
63
63
63
63
63
64
64
64
64
64
64
64
64
64
64
64
64
64
65
65
65
65
65
65
65
66
66
66
66
66
66
66
66
66
66
67
67
67
67
67
67
67
67
67
67
68
68
68
68
68
68
69
69
69
69
70
70
70
70
70
70
70
71
71
72
72
72
72
73
74
74
74
74
75
75
76
76
76
76
76
77
78
77
78
78
78
79
79
79
79
80
81
81
81
82
82
83
83
84
84
84
85
85
85
87
87
87
87
89
89
89
90
90
91
91
92
92
92
93
94
94
94
95
95
95
96
96
97
97
97
97
99
99
99
99
100
100
100
100
100
101
100
100
101
101
101
101
101
101
101
101
101
101
101
102
102
101
101
101
101
101
101
100
100
100
98
98
98
97
96
96
95
95
95
94
93
92
92
90
90
89
89
88
86
86
84
84
83
82
81
80
80
79
78
77
77
75
74
74
74
72
72
71
71
70
70
69
68
68
67
67
66
66
65
65
64
64
64
63
63
62
62
61
61
61
60
60
59
59
59
58
58
58
57
57
57
57
56
57
57
57
57
56
55
55
56
56
56
56
55
54
55
55
55
55
55
55
55
55
55
55
55
55
54
54
54
55
55
55
54
55
54
54
54
54
54
54
54
53
53
53
53
53
53
53
53
52
53
53
53
53
53
53
53
52
52
52
52
52
52
52
52
52
52
52
52
52
52
52
52
52
52
52
52
51
51
51
51
51
51
51
50
50
50
50
50
50
50
50
49
49
49
49
49
49
49
50
50
49
49
49
49
50
50
50
49
49
50
49
49
49
49
49
49
49
49
49
49
49
49
49
48
48
48
48
48
48
48
48
48
48
49
49
49
49
49
50
50
50
51
51
50
50
50
50
51
51
51
50
50
50
50
50
50
50
50
50
50
50
50
50
50
50
50
50
50
50
51
51
51
51
51
50
51
51
51
51
51
52
52
52
52
52
53
53
52
52
53
53
53
53
53
53
53
53
53
53
53
53
53
53
52
52
52
52
52
52
52
52
52
52
52
52
52
52
52
52
52
53
53
53
53
53
53
54
54
53
53
53
53
54
54
54
53
53
53
53
53
54
54
54
53
53
53
53
53
53
53
53
52
52
52
53
53
53
52
52
52
51
51
52
52
51
51
51
51
51
50
50
51
51
51
51
51
50
50
50
51
51
52
52
51
51
51
51
52
52
52
52
52
52
52
52
52
52
51
52
51
52
51
51
51
51
50
51
51
51
52
51
52
52
53
54
54
55
56
56
57
58
59
60
60
61
62
62
63
63
64
64
64
64
63
64
64
64
63
63
64
63
64
63
63
64
63
64
63
64
63
64
63
64
64
64
64
64
64
64
64
64
64
64
63
62
62
62
62
61
60
60
59
58
57
57
56
55
54
54
53
52
52
51
51
50
49
49
49
49
49
49
49
48
48
48
48
48
48
48
48
48
48
48
48
48
48
48
48
47
47
47
47
47
47
48
48
47
47
47
47
48
48
48
48
47
47
48
48
48
48
47
48
48
48
48
48
47
47
47
47
47
47
47
46
46
46
46
46
46
45
45
45
45
45
46
46
46
47
48
47
49
50
50
51
52
53
54
56
58
59
61
63
64
66
68
70
72
75
77
78
81
83
85
88
91
93
96
99
100
102
103
104
103
102
101
97
94
90
86
80
74
68
61
54
46
38
31
22
14
5
-2
-10
-17
-23
-29
-34
-38
-42
-45
-48
-50
-52
-53
-55
-56
-55
-56
-55
-54
-52
-51
-50
-48
-46
-42
-39
-37
-34
-31
-28
-25
-21
-18
-15
-13
-9
-5
-1
1
5
8
11
15
18
21
25
27
29
32
34
35
37
39
40
42
43
44
45
47
47
48
48
49
49
49
51
51
51
51
52
52
52
52
52
52
53
53
53
54
54
54
55
55
54
55
55
56
56
56
56
56
56
56
56
56
56
56
57
57
57
57
56
57
57
57
57
58
58
58
58
58
58
59
58
58
59
60
60
60
60
60
59
59
60
60
60
59
60
60
60
60
60
60
60
60
60
60
60
60
61
61
61
61
61
61
61
61
61
61
61
61
61
61
61
61
62
62
63
63
63
62
62
62
63
63
63
63
64
64
64
64
64
64
64
65
65
65
65
66
66
66
66
67
67
67
67
67
67
68
68
68
69
69
69
69
70
70
70
70
70
70
71
71
71
72
72
73
72
73
73
74
75
75
75
76
76
76
77
77
78
78
78
78
80
80
80
80
81
81
82
82
82
82
83
83
84
84
84
84
85
85
85
86
87
87
87
88
88
88
88
88
89
89
89
90
90
90
90
90
90
90
90
89
90
90
90
90
89
90
89
89
89
89
88
88
88
87
87
87
86
86
86
86
85
84
84
83
83
82
82
81
80
80
79
79
77
77
76
75
75
73
73
73
72
71
70
69
69
67
66
66
65
64
64
63
63
62
62
61
61
60
60
59
58
58
58
58
57
57
56
56
56
55
55
55
54
55
54
55
54
54
53
53
53
53
53
53
53
53
52
52
52
53
52
52
52
52
51
52
52
52
52
52
52
51
51
51
51
52
52
52
51
51
51
51
51
52
52
51
51
51
51
51
51
51
51
51
51
51
51
51
51
51
51
50
50
51
51
51
50
50
50
50
50
50
50
50
50
50
50
50
50
50
50
50
50
50
49
49
49
49
49
49
49
49
49
49
49
49
49
49
50
50
49
49
49
49
49
49
49
49
49
49
49
49
49
49
49
49
49
49
49
49
49
49
49
49
49
49
49
49
49
49
49
49
49
49
49
49
49
49
49
49
48
48
48
48
48
48
48
49
48
48
48
48
48
48
48
48
48
48
48
48
48
48
48
49
49
49
49
49
49
49
50
50
50
50
50
51
51
50
50
51
51
51
51
51
51
52
52
52
52
52
52
51
51
51
51
52
52
51
51
51
52
52
52
52
52
52
52
52
51
51
52
52
52
52
52
52
51
51
52
52
52
52
52
53
53
53
52
52
52
52
53
53
53
53
53
53
53
53
53
53
53
53
53
53
53
53
53
53
53
53
53
53
53
53
53
53
53
54
54
54
53
53
53
54
54
54
54
54
54
54
54
54
54
54
54
54
54
55
55
55
55
55
55
55
55
55
55
56
56
56
56
57
56
56
56
56
56
56
56
56
55
56
55
56
55
56
55
56
56
55
57
57
57
57
58
58
59
61
61
62
62
63
64
65
66
66
66
67
67
68
68
68
68
69
69
69
70
69
70
69
69
70
69
70
70
69
70
70
70
71
71
70
71
71
70
71
71
71
71
71
71
70
70
70
70
69
69
68
68
66
66
66
65
64
63
63
61
61
61
60
60
59
59
58
58
58
58
57
57
57
57
57
57
57
57
57
57
57
58
58
58
58
58
58
58
57
58
57
58
59
58
58
58
58
58
58
58
58
58
58
57
57
57
57
57
57
57
57
56
56
56
56
56
56
56
56
55
56
56
56
55
55
56
56
56
56
56
56
55
55
55
56
56
56
56
57
58
58
59
60
61
61
62
63
64
66
67
69
70
71
74
76
78
79
81
83
85
88
90
92
94
96
98
100
103
104
107
108
109
109
109
108
105
103
99
95
90
86
80
74
67
60
53
46
39
31
24
16
9
2
-3
-9
-14
-18
-20
-24
-26
-28
-29
-30
-31
-32
-32
-32
-32
-31
-30
-30
-29
-27
-25
-23
-21
-20
-17
-15
-14
-11
-8
-5
-2
1
4
8
11
14
18
21
24
27
31
34
36
38
40
43
46
48
49
50
52
53
54
54
55
56
56
57
57
57
58
58
59
59
59
59
59
59
59
60
60
60
60
60
61
61
61
62
62
62
63
63
63
63
63
63
64
64
64
64
64
64
64
65
65
65
65
66
66
66
66
67
67
67
66
66
66
66
67
67
67
67
67
67
67
67
67
67
68
68
68
68
68
68
68
68
68
69
69
69
70
70
70
70
70
70
71
71
70
71
71
71
71
71
71
71
71
71
71
71
72
72
72
72
72
72
72
71
72
72
72
73
73
72
72
72
73
74
74
74
74
74
74
74
74
76
76
76
76
76
76
76
76
77
77
77
77
77
79
79
78
78
79
79
79
79
79
80
80
80
81
81
81
80
81
81
81
81
83
83
83
83
84
84
85
85
85
86
87
87
87
88
88
89
89
90
90
91
92
92
92
93
93
93
94
94
94
95
95
95
95
96
97
97
97
97
98
98
99
99
99
99
99
100
100
100
100
100
100
101
101
101
100
100
101
100
100
100
100
99
100
99
99
99
98
98
98
98
97
97
97
96
96
95
95
94
94
93
93
92
92
90
90
89
88
88
87
87
86
85
84
84
83
82
81
81
80
79
79
78
77
77
76
77
76
75
75
74
73
73
73
72
72
71
71
71
70
69
70
69
69
69
68
68
68
67
67
67
66
66
66
66
66
66
66
65
65
65
65
65
65
64
64
64
64
64
64
64
64
64
64
63
64
64
63
64
64
64
64
65
65
65
65
65
66
66
65
65
65
65
65
65
65
65
65
65
65
65
65
65
64
64
64
64
64
64
64
64
64
64
64
64
64
64
64
64
64
64
64
63
64
64
64
64
64
64
64
64
64
64
64
64
64
64
63
63
63
63
63
63
63
63
63
63
63
63
62
62
62
62
62
62
62
62
62
62
62
62
62
62
62
62
62
62
62
63
62
62
62
62
62
62
63
62
62
62
62
62
61
61
61
62
62
62
61
61
61
62
62
62
62
62
62
62
62
62
62
62
62
62
62
62
62
62
62
62
62
62
62
62
62
62
62
62
62
62
62
62
62
62
62
62
62
62
63
63
63
63
63
63
63
63
63
63
63
63
63
63
64
64
64
64
64
64
64
65
65
65
64
65
65
64
64
65
65
65
65
65
65
65
65
65
65
65
65
64
64
65
65
65
64
65
65
65
65
65
65
65
65
65
65
65
65
66
66
66
66
66
66
66
65
65
65
65
65
65
65
65
65
65
65
65
65
65
65
65
65
65
65
65
65
66
66
66
65
65
65
66
66
66
66
66
66
66
66
66
66
66
66
66
66
67
67
67
67
67
67
67
67
67
67
67
68
68
68
68
68
69
69
68
69
70
69
69
70
69
70
70
69
69
69
69
69
69
69
69
70
69
70
70
71
72
72
73
74
74
75
75
77
77
78
79
80
80
81
81
82
82
82
82
83
83
84
84
84
84
83
84
84
84
83
83
84
83
83
84
83
83
84
83
84
84
84
84
85
85
85
85
85
85
84
84
84
84
84
83
83
82
82
80
80
80
78
78
77
76
75
74
74
72
72
71
71
70
70
69
69
68
68
68
68
68
68
67
67
67
67
68
68
68
68
68
68
68
68
68
68
68
67
68
67
68
67
68
68
68
68
68
67
67
67
67
67
67
66
66
66
66
67
67
67
66
66
67
67
67
66
66
67
66
66
66
66
66
66
66
66
66
66
66
66
66
66
66
66
66
66
67
67
68
69
69
70
70
72
73
73
75
76
78
78
80
82
84
86
88
90
93
95
98
100
103
106
108
112
114
117
120
122
124
125
127
127
126
124
122
119
116
112
108
102
96
92
87
80
73
66
60
52
44
38
31
26
20
15
12
8
4
0
-3
-6
-8
-10
-13
-14
-15
-17
-18
-18
-18
-17
-17
-16
-17
-15
-14
-13
-10
-8
-4
-1
1
4
8
12
15
18
22
26
29
33
36
40
42
45
47
50
53
55
57
58
60
60
62
63
64
64
66
66
66
67
67
67
68
69
69
69
69
70
70
70
70
70
70
71
71
71
71
71
71
72
72
72
72
72
72
72
72
73
74
74
74
74
74
74
74
74
74
74
76
75
75
75
76
76
76
76
77
77
77
77
77
77
77
78
78
78
78
78
78
78
78
78
78
78
78
78
78
79
79
79
79
80
80
80
80
80
80
80
80
80
80
80
80
80
80
81
81
81
81
81
81
81
81
82
82
83
83
83
83
83
83
83
83
83
84
84
84
84
85
85
85
85
85
85
86
86
86
85
87
87
87
87
87
87
88
88
88
88
88
89
89
89
90
91
91
91
91
91
92
93
93
93
93
94
94
94
95
95
95
96
96
96
97
98
98
98
98
99
100
100
100
101
101
101
102
103
103
103
104
105
105
105
106
106
107
107
108
108
109
109
110
110
110
111
111
111
112
113
113
113
114
114
114
114
114
114
115
115
115
115
115
115
116
116
115
115
115
115
115
115
115
115
115
114
114
114
113
113
112
112
112
112
111
110
110
109
109
109
108
107
106
106
105
104
104
103
102
102
100
100
99
99
97
97
96
95
94
93
93
92
92
90
89
89
88
87
87
87
85
84
84
83
83
82
82
81
80
80
79
79
78
78
78
77
77
76
76
76
75
75
76
76
75
75
74
75
74
74
73
73
73
73
72
73
73
73
72
72
72
72
73
72
72
72
72
72
72
72
72
72
72
72
71
71
71
71
71
71
71
71
71
71
71
71
71
71
71
70
70
70
70
70
70
70
71
71
71
71
71
71
71
71
71
71
71
71
70
70
70
70
70
70
70
70
70
70
70
70
70
70
70
70
70
69
69
69
69
69
69
69
68
68
68
68
68
68
67
67
67
67
67
67
67
67
66
66
66
67
66
66
67
67
67
67
67
67
67
67
67
67
67
67
67
66
66
66
66
66
66
66
66
66
66
66
66
66
66
66
66
66
66
66
66
66
66
66
66
67
67
67
67
67
67
67
67
67
67
67
67
67
67
67
67
66
66
66
66
66
66
66
66
66
66
66
66
66
66
66
66
67
67
67
66
67
67
67
66
66
67
67
66
67
67
67
67
67
67
67
67
68
68
67
67
68
68
67
67
68
68
68
68
68
68
68
69
69
69
69
69
69
69
69
69
69
69
69
69
69
69
69
69
69
69
70
70
70
70
70
70
70
70
71
71
70
70
70
71
71
71
71
70
70
71
71
71
71
71
71
71
70
70
71
71
71
71
71
71
71
71
71
71
71
72
72
72
72
72
72
72
72
72
72
72
72
72
72
71
72
72
71
71
71
71
71
71
71
71
71
71
71
71
71
71
71
71
71
71
71
72
72
72
72
72
73
73
73
73
74
74
74
73
74
74
74
74
74
75
74
74
75
75
75
75
75
77
77
77
78
78
78
79
80
81
81
82
83
84
84
86
86
86
87
87
88
88
88
88
88
89
89
90
90
90
89
89
90
89
89
89
89
88
89
88
89
89
89
88
89
89
89
89
90
89
89
89
89
89
90
89
89
89
87
88
87
86
85
85
84
83
83
81
81
80
79
78
78
77
76
75
75
74
74
74
74
74
73
73
73
73
73
73
73
72
72
72
72
72
73
73
73
73
73
73
74
73
73
74
74
74
74
73
72
73
73
73
72
72
72
72
72
71
71
71
71
71
71
71
71
71
71
71
71
71
71
71
71
71
70
70
71
71
71
71
71
71
71
71
71
71
71
71
72
72
73
74
74
75
76
76
77
78
78
80
81
83
84
86
88
90
92
94
97
98
101
104
107
110
113
117
120
123
126
128
131
134
135
136
137
136
135
134
131
127
123
119
113
107
102
95
89
82
75
66
58
51
43
36
29
23
17
12
7
2
-2
-6
-9
-12
-14
-17
-18
-20
-21
-22
-22
-21
-22
-21
-21
-20
-19
-16
-14
-12
-9
-6
-3
0
4
8
11
16
19
23
28
31
35
39
42
46
49
52
55
57
59
63
65
66
67
69
70
71
72
72
74
74
74
75
75
75
75
76
76
77
77
76
77
77
77
77
77
78
78
78
79
79
79
79
79
80
80
80
81
81
81
81
81
81
82
82
82
82
82
83
83
83
84
84
84
84
84
85
85
85
84
85
85
85
86
86
85
85
85
85
85
85
85
86
86
86
86
87
87
87
87
87
87
87
87
88
87
87
87
88
88
88
88
88
88
88
88
88
89
89
88
89
89
90
90
90
90
89
89
90
90
90
91
91
91
91
91
91
91
91
92
92
92
92
92
93
92
93
93
94
94
94
94
95
95
94
95
96
96
95
96
96
96
96
97
97
97
97
98
98
99
99
99
99
99
100
100
100
101
101
101
101
102
102
102
103
104
104
104
104
105
105
106
106
106
107
107
109
109
109
109
111
111
111
112
112
114
114
114
114
115
116
116
116
116
117
117
117
117
118
118
118
119
119
119
119
119
120
119
119
120
120
120
120
120
120
120
120
120
119
120
120
119
119
119
118
119
118
118
117
117
116
116
116
115
115
114
114
112
112
111
110
110
110
109
108
107
107
106
105
104
104
103
102
102
101
100
99
98
98
97
96
95
95
94
94
93
92
91
91
90
89
89
88
87
86
86
85
85
84
84
83
83
82
82
81
81
81
80
81
80
81
80
80
79
79
80
79
80
79
79
79
79
79
79
79
78
78
78
79
79
78
78
78
78
78
78
78
77
77
77
77
77
77
77
77
77
77
77
77
77
77
77
77
77
77
77
76
76
76
76
76
76
76
77
77
77
77
76
76
77
77
77
77
77
77
76
77
77
77
77
76
76
76
76
76
76
76
76
76
76
76
76
76
75
75
75
75
75
75
75
75
74
75
75
75
74
74
74
74
74
75
75
74
74
74
74
75
75
74
74
74
74
74
74
74
74
74
73
73
73
73
73
73
73
73
73
73
73
73
72
72
72
72
73
73
73
73
73
73
74
74
74
74
73
73
74
74
74
74
74
74
74
74
74
74
74
74
74
74
74
74
75
74
74
74
74
75
75
75
74
74
74
74
75
75
75
75
75
75
75
75
75
75
75
75
75
75
75
75
75
75
75
76
76
76
75
75
75
75
76
76
76
76
76
77
77
76
76
76
76
76
77
77
77
77
77
77
77
76
77
77
77
77
77
76
77
77
77
77
77
76
76
77
77
77
77
77
77
78
78
78
78
78
78
78
78
78
78
78
78
78
78
78
78
78
78
78
78
78
78
79
79
79
79
79
79
79
78
78
78
79
79
79
79
79
78
78
78
78
78
78
79
79
78
79
79
79
78
79
78
79
78
79
78
78
78
78
78
78
78
79
78
78
79
79
80
80
80
82
82
82
83
84
85
85
86
86
87
87
88
88
89
89
89
90
90
91
91
90
91
91
90
91
91
91
91
91
90
91
91
92
91
92
91
92
93
93
93
93
93
93
94
93
94
94
94
94
92
92
92
92
91
90
89
89
87
87
87
86
84
83
83
82
81
81
80
80
80
79
79
79
79
78
78
78
78
79
79
79
79
79
79
79
79
79
79
79
80
80
80
80
80
80
80
79
79
80
80
79
79
79
79
79
79
79
78
78
78
78
78
78
78
77
78
78
78
78
78
77
77
77
77
77
77
77
76
76
76
76
76
76
76
76
75
75
76
76
76
77
77
78
78
80
80
81
82
83
83
85
87
88
89
91
92
94
96
98
100
102
104
106
108
111
113
116
119
121
123
126
128
129
129
130
130
130
129
126
124
119
115
110
104
98
92
86
79
72
65
57
49
42
35
27
20
14
9
4
0
-4
-7
-9
-12
-14
-15
-16
-17
-18
-17
-18
-16
-15
-15
-14
-13
-11
-10
-7
-5
-3
0
2
5
9
12
16
19
22
26
28
32
36
39
42
45
48
52
54
57
59
61
63
65
67
68
70
71
71
73
73
75
75
75
76
76
77
78
78
79
79
79
79
79
79
79
80
80
80
80
81
81
81
81
81
81
82
82
83
83
83
82
82
83
83
84
84
83
83
83
84
84
85
85
85
84
84
85
85
85
85
85
85
85
85
85
85
85
85
85
85
85
86
86
87
87
87
87
87
87
87
87
87
87
87
87
87
87
88
88
88
88
88
88
88
87
88
88
88
89
88
88
88
88
88
88
89
89
89
89
89
90
90
90
90
90
91
91
91
91
91
91
91
92
92
92
92
92
92
92
93
93
93
93
93
93
94
94
94
94
94
94
94
95
96
96
96
96
97
97
97
98
98
98
99
99
99
99
99
100
100
100
100
101
102
102
102
103
103
103
103
104
104
104
104
105
105
106
106
108
108
108
108
109
109
110
110
110
111
111
111
111
113
113
113
114
114
114
114
115
115
115
116
116
116
116
116
117
117
116
117
117
117
117
117
117
117
117
117
117
118
117
117
117
117
116
116
117
116
116
116
116
116
115
115
114
114
114
114
113
113
111
110
110
110
109
108
107
106
106
104
104
104
102
102
101
100
99
98
98
97
96
95
95
94
93
93
92
91
91
90
90
90
89
89
88
88
87
86
86
85
85
84
84
83
83
82
82
81
81
81
81
81
80
80
80
79
79
80
79
79
79
78
78
78
79
78
78
78
78
78
77
78
78
78
78
77
77
78
78
78
78
78
77
77
77
77
77
77
77
77
78
77
77
77
77
77
77
77
77
77
77
77
77
77
77
77
77
76
76
76
76
76
76
76
76
76
76
76
76
76
76
76
76
76
76
76
75
75
75
75
75
75
75
75
75
74
75
75
75
75
74
74
74
74
74
74
74
74
74
74
74
74
74
74
74
74
74
74
74
74
73
73
73
73
73
73
73
74
73
73
73
73
73
73
73
73
73
73
73
73
73
73
73
73
73
74
74
73
73
73
74
74
74
74
73
73
73
73
73
73
73
73
73
73
73
73
73
73
73
73
73
74
74
74
74
74
74
74
74
75
75
75
75
75
75
75
75
75
75
75
76
75
75
75
76
76
76
75
75
75
76
76
76
76
76
76
76
76
76
76
76
77
77
77
76
76
76
77
76
76
76
76
76
76
76
76
76
76
76
76
77
77
77
77
77
77
77
77
78
78
77
77
77
77
77
77
77
77
76
76
77
77
77
77
76
76
76
76
76
76
75
75
75
75
75
75
75
74
75
75
75
75
75
75
75
75
75
75
75
75
75
75
75
75
75
75
75
75
75
75
76
76
76
76
75
75
76
76
76
76
76
77
77
77
77
77
76
77
77
77
77
77
77
77
77
77
78
77
77
77
77
77
77
77
77
78
77
78
78
78
79
79
80
80
81
81
82
83
84
84
85
86
87
88
89
89
91
91
91
92
92
93
93
94
93
93
93
94
94
94
93
93
93
93
93
93
93
93
92
93
92
93
92
93
93
93
93
93
92
93
93
93
93
92
92
92
91
90
90
90
89
88
88
86
86
85
85
83
83
82
81
80
79
79
79
78
77
77
77
77
76
76
76
76
76
76
76
76
76
76
76
76
76
76
76
76
76
76
76
76
76
76
76
76
76
76
76
76
76
76
75
75
75
75
75
75
75
74
74
74
74
74
74
74
74
74
74
74
74
74
74
74
74
74
74
74
73
73
74
74
74
74
74
74
74
74
74
75
76
75
76
77
77
78
78
79
80
80
82
83
85
86
87
89
90
93
95
97
99
102
104
107
110
113
116
119
122
125
127
130
132
134
135
136
135
134
133
130
127
124
120
115
109
104
99
92
87
80
73
65
58
51
45
39
33
28
23
19
15
11
8
5
2
0
-2
-4
-6
-7
-7
-9
-10
-10
-10
-9
-8
-7
-5
-4
-1
1
4
6
10
13
17
20
24
27
31
34
38
42
45
48
52
54
57
59
61
63
65
67
68
70
71
72
72
74
74
74
75
76
76
76
76
76
77
77
77
77
77
77
79
79
79
79
79
79
79
80
80
80
80
81
81
81
81
82
82
82
82
83
83
83
83
83
83
83
83
83
84
84
84
84
84
84
84
84
84
85
85
85
85
85
85
85
85
85
85
85
85
86
86
87
86
86
86
87
87
87
87
86
87
87
87
87
87
87
88
88
88
88
88
88
88
88
88
88
88
88
88
89
89
89
89
89
89
89
90
90
90
90
90
90
90
90
90
90
90
91
91
91
91
91
91
92
92
92
92
92
93
93
93
94
94
94
94
94
95
96
96
96
96
97
97
97
97
98
98
99
99
99
100
100
101
101
101
102
102
102
102
102
103
103
104
105
105
105
105
106
107
107
108
108
109
109
109
110
111
111
111
112
113
113
113
115
115
115
116
116
116
117
118
118
118
119
119
120
120
121
121
121
122
122
122
122
122
123
123
123
123
123
123
123
124
124
124
124
124
124
123
124
124
124
124
123
123
122
122
122
122
121
121
121
120
120
119
119
119
117
117
116
116
115
114
114
113
111
111
110
109
109
108
107
106
105
104
104
103
101
101
99
99
98
98
96
95
95
93
93
93
93
91
91
91
89
89
88
88
87
87
85
85
85
85
85
83
83
82
82
83
82
82
81
81
81
80
80
81
80
80
80
80
79
79
79
79
78
78
78
78
79
79
78
77
77
78
78
78
78
78
78
77
77
77
77
77
77
77
77
78
77
77
77
77
77
77
78
78
78
78
78
78
78
78
78
78
78
78
78
78
78
78
78
78
78
77
77
77
77
76
76
76
76
76
76
76
76
76
76
76
76
76
76
75
75
75
75
75
75
75
74
74
74
74
74
74
73
73
73
73
73
73
73
72
72
72
72
72
73
72
72
72
72
72
72
71
71
71
71
71
71
71
71
71
71
71
71
71
71
71
71
71
71
71
71
70
70
70
70
70
71
71
70
70
70
70
70
70
70
70
70
70
70
70
70
70
70
70
70
70
70
70
70
70
70
70
70
70
70
71
71
71
71
70
70
70
70
70
70
70
70
70
70
70
70
70
70
70
70
70
70
70
70
70
71
70
70
70
70
71
71
71
71
71
71
71
71
71
71
71
72
72
72
72
72
73
73
72
72
72
73
73
73
73
73
73
74
74
74
74
74
74
74
73
73
73
73
74
74
74
74
73
74
73
73
73
73
73
73
73
73
73
73
73
73
73
73
73
73
73
73
73
73
73
73
73
74
74
74
74
74
74
74
73
73
73
73
73
73
74
74
74
74
74
74
74
74
74
74
74
74
74
74
74
74
74
74
74
74
74
74
74
74
74
73
73
74
74
73
73
73
73
73
73
73
73
73
73
73
73
73
73
73
73
73
73
73
74
74
73
73
73
73
74
74
73
73
73
73
73
73
73
73
73
74
74
74
74
74
74
74
74
74
74
75
75
74
75
75
75
75
75
75
75
75
75
75
75
76
75
76
76
76
76
78
78
79
79
79
80
82
82
83
83
85
85
86
87
87
87
88
88
89
89
89
89
89
89
88
88
89
88
88
88
87
88
87
88
87
88
87
87
87
88
87
88
88
87
88
88
88
88
88
87
87
87
88
87
87
87
86
85
85
84
84
83
83
81
81
80
79
79
77
77
76
76
74
74
74
73
73
72
72
72
71
72
72
71
71
72
72
72
72
71
71
71
71
71
71
71
71
71
71
71
71
71
71
70
70
70
70
70
70
70
69
69
70
70
70
70
69
69
69
69
69
69
69
69
69
69
69
69
69
69
69
69
68
68
68
68
68
68
68
69
69
68
68
68
68
69
69
70
70
71
72
73
73
74
74
76
77
77
79
81
82
83
85
87
89
92
93
96
98
100
103
106
110
113
116
119
122
125
127
130
133
134
135
135
134
132
131
128
124
120
114
109
104
98
92
85
77
70
62
54
46
38
31
24
18
12
7
2
-4
-7
-11
-14
-18
-20
-23
-25
-26
-27
-27
-27
-27
-27
-26
-26
-24
-23
-20
-18
-16
-13
-10
-6
-3
1
4
9
12
16
20
23
27
30
34
37
40
44
46
49
51
54
56
58
59
60
62
63
64
65
65
67
68
68
68
68
69
69
69
70
71
71
71
71
72
72
72
72
72
72
72
73
73
73
73
73
74
74
74
75
75
74
75
76
76
76
76
76
76
77
77
77
77
77
76
76
77
77
77
77
77
76
76
76
77
77
77
77
77
77
77
77
77
77
77
77
77
78
78
78
78
78
78
78
79
79
79
79
79
80
80
80
81
81
81
81
81
81
81
82
82
81
82
82
83
83
83
82
82
82
82
82
82
83
83
83
83
83
83
83
84
84
84
84
84
84
85
85
85
85
86
86
87
87
87
87
87
87
87
88
89
89
89
89
89
90
90
90
91
91
91
92
92
92
93
93
93
94
95
95
95
95
95
95
96
96
96
97
97
98
98
98
99
100
100
100
101
102
102
103
103
103
104
105
105
106
106
106
107
107
107
108
108
109
109
109
109
111
111
111
111
112
112
112
112
113
113
113
113
114
114
114
114
114
114
114
114
114
114
114
113
114
113
113
113
113
113
112
112
111
111
110
110
110
109
108
108
108
107
107
106
106
105
105
103
103
102
102
101
100
99
98
98
97
96
95
95
94
93
92
91
90
90
89
87
87
86
85
84
83
83
82
81
81
81
79
79
78
78
77
77
77
75
75
75
75
74
74
74
73
73
73
73
72
72
72
71
72
71
71
71
70
70
70
70
70
70
70
70
69
69
69
69
69
68
68
68
68
67
67
67
67
67
67
68
68
68
68
67
67
67
67
68
67
67
67
67
68
68
67
67
67
67
67
67
66
66
66
67
66
65
65
65
65
65
65
65
65
65
65
65
65
65
65
66
66
66
66
66
66
66
65
65
65
65
66
66
66
66
66
66
65
65
65
65
65
65
64
64
64
65
64
64
65
64
64
64
64
64
64
64
64
64
64
64
64
64
64
64
64
64
64
64
64
63
64
64
64
63
63
63
64
64
64
64
64
64
64
64
64
64
64
64
64
64
64
64
64
64
64
64
64
64
64
64
65
65
64
64
64
64
65
65
65
65
65
65
65
65
65
65
65
65
65
65
65
65
65
65
65
65
65
66
66
66
66
66
66
66
65
65
66
66
66
65
66
66
66
66
66
66
66
66
66
66
66
66
66
67
67
67
67
67
67
67
67
67
67
67
67
67
67
67
67
67
67
67
67
67
67
67
67
67
67
67
67
67
67
67
67
67
67
67
67
67
67
67
66
66
67
67
66
66
67
67
67
67
67
67
67
67
67
68
67
67
67
67
67
68
68
68
68
67
68
68
68
68
68
67
67
68
68
68
68
68
67
67
68
68
67
67
67
68
67
67
67
67
67
66
67
67
68
68
68
67
67
67
67
68
69
69
69
68
69
70
70
69
70
70
69
70
70
70
69
70
69
70
69
70
69
70
69
70
69
69
70
70
71
71
72
72
72
74
74
74
75
76
76
77
79
79
79
81
81
82
82
82
83
83
83
83
84
83
83
83
83
83
83
83
83
83
83
83
83
83
83
83
83
83
84
84
84
84
85
84
84
85
84
84
85
84
84
84
83
82
82
82
80
80
79
79
77
77
76
76
75
73
73
73
72
72
71
70
70
70
70
69
69
69
69
69
70
69
69
69
69
69
70
70
70
70
70
70
70
70
70
70
69
69
69
69
69
69
69
69
69
69
68
68
68
68
69
69
69
68
68
68
68
67
68
68
68
68
68
68
67
67
67
67
67
67
67
67
67
68
68
68
67
67
67
67
67
68
68
68
69
69
70
71
72
72
73
74
75
77
77
79
81
83
84
86
88
91
92
95
97
100
102
105
107
111
113
115
118
121
122
124
125
125
125
124
122
120
117
112
107
101
95
89
83
76
68
61
52
44
36
27
19
12
5
-1
-6
-11
-16
-19
-22
-25
-27
-28
-29
-30
-31
-31
-31
-30
-28
-28
-26
-24
-23
-22
-19
-17
-14
-12
-8
-5
-2
1
5
8
11
15
17
21
25
28
31
35
37
41
43
46
49
51
53
55
57
59
60
61
63
63
64
65
66
66
67
67
67
67
69
69
69
69
69
69
69
70
70
70
70
70
71
72
71
72
72
72
72
72
72
73
73
74
74
74
74
74
74
74
74
74
74
75
75
76
76
75
75
75
76
76
76
76
75
76
76
77
77
77
77
76
77
77
77
77
77
78
77
77
78
78
78
78
78
78
79
79
79
79
79
79
79
79
79
79
79
80
80
80
80
80
80
80
80
80
80
80
81
80
81
81
81
82
82
82
82
81
82
83
83
83
83
83
82
84
84
84
84
84
84
84
84
84
86
86
86
86
86
86
86
87
87
87
87
88
88
89
89
89
89
90
90
91
91
91
91
92
92
93
93
93
94
94
94
95
96
96
96
97
97
98
98
99
99
99
99
100
101
101
101
102
102
103
103
104
104
104
106
106
106
107
107
108
108
109
109
109
110
110
111
112
112
112
113
113
113
113
114
115
115
115
115
115
116
116
116
116
116
117
117
117
117
116
116
116
117
117
116
116
116
115
115
115
114
114
113
113
112
112
111
111
110
110
109
109
108
107
106
106
105
104
103
102
102
100
100
99
98
97
96
96
95
94
93
92
91
90
90
89
88
87
87
86
86
85
84
83
82
82
81
81
80
80
79
78
79
79
77
77
76
76
76
75
75
75
74
74
73
74
73
73
73
72
72
72
71
71
72
72
71
71
71
71
71
70
70
70
70
70
71
70
70
70
70
70
70
70
70
70
70
70
70
69
69
69
69
69
69
69
69
69
69
69
69
68
68
69
69
69
69
69
69
69
69
69
69
69
69
69
69
69
69
69
69
69
69
69
69
68
68
68
68
68
68
68
68
67
67
67
68
68
68
67
67
67
67
67
67
66
67
67
67
66
66
66
67
67
66
66
66
66
66
66
66
66
66
66
66
66
65
66
66
67
67
67
67
66
66
67
67
67
67
67
67
67
67
67
67
67
67
67
67
67
66
66
66
67
67
67
66
66
66
67
67
67
67
67
67
67
67
67
67
67
67
67
67
67
67
67
67
68
68
68
68
68
68
68
68
68
68
68
68
68
69
69
69
69
69
69
69
69
69
69
69
69
68
69
69
69
69
69
69
69
69
69
69
69
69
69
70
70
70
70
70
70
69
69
69
70
69
69
69
70
70
70
70
70
69
69
70
70
70
69
69
69
69
70
70
70
69
69
69
70
70
70
70
70
70
70
70
70
70
70
70
70
70
70
69
70
70
70
70
70
70
70
70
70
70
70
70
69
69
69
70
70
69
69
70
70
69
69
69
70
70
70
70
71
71
71
71
70
70
71
71
71
71
70
71
71
70
71
70
71
71
71
71
70
70
70
71
71
71
71
70
70
71
71
71
71
70
70
70
71
71
71
71
70
70
70
71
71
71
71
70
70
71
71
71
71
70
70
70
71
71
71
70
71
71
71
71
71
71
72
72
72
72
72
73
72
72
73
72
72
72
73
72
73
72
73
73
72
73
73
73
73
73
74
75
75
76
76
76
77
78
79
80
80
82
83
83
84
85
86
86
87
87
88
88
89
89
89
90
89
89
89
89
89
88
89
88
88
88
88
88
87
87
88
87
88
88
88
88
88
88
88
88
88
89
88
88
89
88
88
87
87
86
86
86
86
84
84
83
83
81
81
80
79
78
77
77
76
76
75
73
73
73
73
73
71
71
71
71
71
71
72
72
71
71
72
72
72
72
72
72
72
72
72
72
72
71
71
71
70
70
70
70
71
70
70
70
70
70
70
70
70
70
70
70
70
70
69
69
70
70
70
69
69
69
69
69
69
69
69
69
69
69
69
69
69
69
68
69
69
70
70
70
70
70
71
71
72
73
73
74
74
75
76
77
78
79
80
82
84
86
87
89
91
93
95
98
101
104
107
110
114
117
120
122
126
128
131
133
134
135
134
133
131
128
125
121
117
112
106
101
94
89
82
75
67
60
51
45
38
32
26
21
16
11
7
3
0
-3
-7
-9
-12
-13
-15
-16
-16
-17
-18
-19
-19
-18
-17
-16
-14
-12
-10
-8
-4
-2
1
5
8
12
15
19
23
26
30
34
37
41
44
47
50
52
54
56
59
60
62
63
65
66
67
68
68
69
70
70
70
71
71
72
72
72
72
72
73
73
73
73
73
73
74
74
74
75
75
75
75
75
75
75
76
76
76
77
77
77
77
78
78
78
78
78
78
78
78
78
78
78
78
78
78
78
79
78
79
80
80
79
80
80
80
80
80
80
80
80
80
80
81
80
81
81
81
82
82
82
82
81
81
82
82
83
83
83
82
83
83
83
83
83
84
84
84
84
84
84
84
84
84
84
84
84
85
85
85
85
85
85
85
86
86
86
86
86
86
87
87
87
87
88
88
88
88
89
89
90
90
90
91
91
91
91
91
92
92
92
92
92
93
93
94
95
95
95
95
96
97
97
97
97
97
99
99
99
99
100
101
101
101
101
101
103
103
103
104
104
105
105
105
106
106
107
107
108
109
109
109
110
110
111
111
112
112
112
113
113
114
114
114
116
116
116
117
117
118
118
118
119
119
119
120
120
121
121
121
121
122
122
122
123
123
122
123
123
123
123
122
122
122
121
121
121
121
121
121
120
120
119
118
117
117
116
116
115
115
114
114
113
111
111
111
109
108
108
107
106
105
104
103
102
101
101
100
98
98
97
96
95
95
93
93
92
91
91
89
89
88
87
87
86
85
85
85
84
84
83
83
83
82
82
81
81
80
79
79
78
78
77
77
77
77
76
76
75
76
76
75
74
74
75
75
74
74
74
74
74
74
73
73
73
73
73
73
73
73
73
72
72
72
72
72
72
72
71
71
71
71
72
72
72
71
71
72
72
71
71
71
71
71
71
71
71
71
71
71
71
72
71
71
72
71
71
70
71
71
71
70
70
70
70
70
70
70
70
71
70
70
70
69
70
70
70
69
69
69
69
69
68
68
68
68
68
68
68
67
67
67
67
67
67
67
67
67
67
67
67
67
67
67
67
67
67
67
67
67
67
67
67
67
67
66
66
67
66
66
66
67
67
67
67
67
67
67
67
67
67
67
67
67
67
67
67
67
67
67
67
67
67
66
66
67
67
66
66
66
66
66
67
66
66
66
66
66
67
67
67
67
67
67
67
67
68
68
68
68
68
68
68
68
68
68
68
68
68
69
69
69
69
69
68
68
68
68
68
68
69
69
68
69
69
68
69
69
69
69
69
69
69
69
70
70
69
69
70
70
70
70
70
70
70
70
70
70
70
70
70
70
70
70
70
70
70
70
70
70
70
70
70
70
70
69
69
69
70
70
70
70
70
70
70
70
71
71
71
70
71
70
70
70
70
70
70
70
70
70
70
70
70
70
70
70
70
70
70
70
70
70
70
70
70
69
69
69
69
70
70
70
70
70
70
70
71
71
70
70
70
70
70
70
70
70
70
70
70
71
71
71
71
71
70
70
71
71
71
71
71
71
71
71
71
71
71
71
71
71
71
70
71
71
71
71
71
71
71
70
70
71
71
71
71
70
70
70
71
71
71
71
71
71
71
70
70
70
70
70
70
70
70
70
70
70
70
70
70
70
70
70
70
70
70
70
70
70
71
71
71
71
71
71
71
71
71
71
71
71
72
72
72
71
71
71
72
72
72
73
73
73
73
72
73
72
73
73
73
73
72
73
73
73
73
73
74
74
73
74
74
75
76
76
76
77
78
78
80
80
81
82
82
83
83
84
85
85
86
86
86
86
87
87
87
87
87
87
86
86
87
86
86
85
86
85
86
85
86
86
86
87
86
87
86
87
87
86
87
87
87
87
87
87
86
86
86
86
85
85
85
84
83
83
82
81
80
80
79
78
78
77
77
75
75
75
74
74
72
72
72
72
72
72
72
72
71
70
71
71
71
71
71
71
71
71
71
71
71
71
71
71
71
71
71
71
71
71
71
71
70
71
70
70
70
69
69
69
70
70
70
70
70
70
70
70
70
70
70
70
70
69
69
69
69
69
69
69
69
69
69
69
69
69
68
68
69
69
69
69
70
70
71
72
73
73
74
76
76
77
78
80
81
82
84
86
88
90
92
94
97
99
102
105
108
110
114
118
121
123
125
129
131
133
134
135
134
133
131
129
126
121
117
111
106
100
93
87
80
72
64
56
48
40
32
24
17
10
6
0
-5
-9
-14
-17
-20
-23
-25
-27
-29
-30
-30
-29
-29
-29
-29
-27
-27
-25
-24
-21
-19
-16
-13
-10
-6
-3
0
4
8
11
15
19
23
27
30
34
37
40
44
46
49
51
53
55
57
59
61
62
63
64
65
66
67
67
67
68
69
69
69
70
70
70
71
71
71
72
72
72
72
72
72
73
73
73
73
73
74
74
74
75
75
75
75
75
75
76
76
76
77
77
77
78
78
78
78
78
78
78
79
79
79
79
78
79
79
79
79
79
79
79
79
79
79
79
79
79
79
79
79
79
79
79
79
79
79
79
79
79
79
80
80
80
80
80
80
80
80
80
80
80
80
80
80
81
82
81
82
82
82
82
82
82
82
82
82
82
83
83
83
84
84
83
83
84
85
85
85
85
85
85
85
85
85
86
87
87
87
87
87
87
88
88
87
88
88
88
90
90
90
90
91
91
92
92
92
93
93
93
93
94
94
95
95
95
96
96
96
98
98
98
98
99
99
100
100
101
101
101
102
102
103
103
103
104
105
105
106
106
106
107
107
107
108
108
109
109
109
109
110
110
110
110
111
111
111
111
112
112
112
112
112
112
112
112
113
112
112
113
113
113
113
112
112
112
113
112
112
112
112
112
112
111
111
110
110
109
109
108
108
108
107
107
106
105
105
105
104
103
103
102
100
100
100
98
98
97
96
95
95
94
93
92
91
91
90
89
89
87
87
86
86
85
84
84
83
82
81
81
80
80
79
79
78
78
78
78
77
77
76
75
75
74
74
73
73
73
73
72
72
72
70
70
70
70
70
69
69
69
69
69
68
68
68
68
68
67
68
68
68
67
68
68
68
68
68
67
68
68
67
67
67
67
68
67
67
67
66
66
66
66
66
66
65
65
65
65
65
64
64
65
64
65
64
63
63
64
64
64
63
63
63
63
63
63
63
64
64
64
64
64
64
64
64
64
64
64
64
64
64
64
63
63
63
62
62
63
63
63
62
62
61
61
61
62
62
61
61
61
61
61
61
60
60
60
60
61
61
61
61
61
61
61
61
61
61
62
62
61
61
61
61
61
62
62
62
62
62
63
63
62
62
62
62
62
62
62
62
62
62
62
62
62
62
62
62
62
62
62
62
62
62
62
62
62
62
62
62
62
63
63
63
63
63
63
63
63
63
63
63
63
64
64
64
63
64
64
64
63
64
64
64
64
64
64
64
65
65
65
65
65
65
65
65
65
65
65
65
65
65
65
65
65
65
65
65
65
66
65
66
65
65
65
65
65
65
65
65
65
65
65
65
65
65
65
64
64
64
64
64
64
64
64
64
64
64
64
64
64
64
64
64
64
64
64
64
65
65
65
65
64
64
65
65
65
65
65
65
65
65
65
65
65
65
65
65
65
65
65
65
65
65
65
65
65
65
65
65
65
65
65
65
65
65
65
65
65
65
65
65
65
65
65
65
65
65
65
65
65
65
65
64
65
65
65
65
64
64
64
64
64
64
64
64
64
64
64
65
65
65
65
65
65
65
64
65
65
65
65
65
65
65
65
66
66
65
66
66
65
66
66
65
66
65
66
66
65
66
65
65
66
66
65
66
66
66
67
67
68
69
69
70
70
70
71
72
72
74
75
75
75
76
77
77
77
78
78
78
78
78
79
78
78
78
78
79
79
79
79
78
79
79
79
78
79
79
79
79
80
80
80
80
80
80
80
80
80
80
80
79
79
79
78
78
78
78
76
76
75
74
74
73
72
71
70
70
69
68
68
68
67
66
66
66
66
66
65
65
65
65
66
66
66
66
66
65
65
66
66
66
65
65
66
66
66
65
65
65
65
65
65
64
64
65
65
64
64
64
64
64
63
63
63
63
63
63
62
62
63
63
63
63
62
62
62
62
62
62
62
62
61
62
62
61
62
62
61
61
61
61
62
62
62
62
63
64
65
65
67
68
68
70
71
73
74
76
76
79
81
83
85
87
90
91
94
96
100
103
105
107
110
113
114
117
118
119
120
120
119
118
115
111
107
103
97
90
84
78
70
62
55
46
38
30
22
13
6
-1
-7
-13
-18
-22
-26
-29
-31
-33
-34
-35
-36
-36
-37
-36
-36
-35
-32
-31
-29
-28
-27
-24
-23
-20
-17
-15
-11
-8
-5
-2
1
4
8
11
15
19
22
25
29
32
35
38
41
44
46
48
50
53
55
56
57
58
59
61
61
63
63
63
64
64
64
64
65
66
66
66
66
66
67
67
67
67
67
68
68
68
68
68
68
68
68
68
69
70
69
69
69
70
70
70
70
70
71
71
72
72
72
72
72
72
73
73
73
73
73
74
74
74
74
75
75
74
74
74
75
75
75
75
76
76
76
76
76
76
76
76
76
77
77
77
77
77
77
77
77
77
77
78
78
78
78
78
78
78
78
78
78
78
78
79
79
78
79
79
80
80
80
80
80
80
80
80
80
81
81
81
81
81
81
82
82
82
81
82
83
83
83
83
83
83
83
83
83
85
84
84
84
85
85
85
86
86
86
86
87
87
87
88
88
88
89
89
89
91
91
91
91
92
92
93
94
94
94
94
96
96
97
97
97
98
98
99
99
100
101
101
102
102
103
103
103
104
104
105
105
106
106
107
107
108
108
108
109
109
110
110
110
110
111
112
112
112
112
113
113
113
113
113
114
113
113
113
113
114
114
114
113
113
113
113
114
113
113
113
112
112
112
111
111
110
110
110
110
109
108
108
107
106
106
105
105
104
104
102
102
102
100
99
99
97
97
96
95
94
93
93
91
91
90
89
89
87
87
86
86
85
84
83
82
82
81
81
80
80
79
79
78
78
77
77
77
77
76
76
76
75
75
74
74
74
73
73
73
73
73
72
72
72
72
72
72
72
71
71
72
71
71
71
71
71
70
71
71
71
71
70
70
71
71
71
71
71
71
70
70
71
71
71
71
71
71
71
70
70
70
70
70
70
70
70
70
70
70
70
70
70
70
70
69
69
69
69
69
69
69
69
69
69
69
69
69
68
68
68
68
68
68
68
68
68
68
68
68
68
68
68
68
68
68
68
68
67
67
67
67
67
67
67
67
67
67
67
67
67
67
67
67
67
67
67
67
68
67
67
67
68
68
67
67
67
67
67
67
67
67
67
67
67
67
67
67
67
67
67
67
67
67
67
67
67
67
67
67
68
67
67
68
68
68
68
68
68
68
69
69
69
69
69
69
69
69
69
70
70
69
69
69
69
70
69
69
69
69
69
69
69
69
70
70
70
70
70
71
71
71
71
71
71
71
72
72
72
72
72
72
72
71
71
71
71
71
71
72
72
71
71
71
72
72
72
72
72
72
72
71
72
72
72
72
72
72
72
72
72
72
73
73
73
73
73
73
73
73
73
73
73
73
73
73
73
73
73
72
72
72
72
72
72
72
72
72
72
72
72
72
73
73
72
72
72
72
73
72
72
73
72
73
73
72
72
72
72
73
73
72
72
72
72
73
73
73
72
72
72
72
73
73
73
72
72
72
72
72
72
72
72
72
72
72
72
72
72
73
73
72
72
72
73
73
73
73
73
73
73
73
73
73
73
73
73
73
73
73
73
72
72
72
72
72
72
72
72
72
72
72
72
72
72
72
72
72
72
73
73
73
73
73
73
73
73
73
73
73
73
74
74
74
74
74
74
74
74
74
74
73
73
74
74
74
74
74
74
75
74
75
75
74
75
75
75
75
75
75
76
76
76
76
76
76
76
76
76
76
77
77
78
78
78
79
79
79
79
81
81
82
83
84
85
85
86
87
88
88
88
89
89
90
90
90
90
90
90
91
91
90
90
90
89
90
89
90
90
89
90
89
90
90
90
89
90
91
90
91
90
91
91
90
91
90
90
90
90
89
89
89
88
88
87
87
86
85
85
84
84
82
81
81
81
79
79
78
78
76
76
76
76
76
75
75
75
75
75
75
75
75
75
75
75
75
75
75
75
75
75
75
75
75
75
75
75
75
75
75
75
75
75
75
75
74
74
74
74
74
74
74
74
74
74
74
75
74
74
75
74
74
74
74
74
74
74
74
73
74
74
74
74
74
73
73
73
73
73
73
73
73
74
74
75
76
76
77
78
79
79
81
82
83
85
87
87
89
92
94
96
98
101
103
106
109
112
115
118
122
125
127
129
132
135
137
138
138
139
137
135
132
129
125
120
116
110
104
97
90
85
78
70
62
54
47
39
32
27
21
16
12
7
3
1
-2
-5
-8
-9
-11
-12
-13
-13
