# Simple Text Format
# Sampling Rate (Hz):= 1200.00
# Resolution:= 12
# Labels:= ECG	 II
# Age:=	58
# Gender:=	Feminino
45
44
44
44
43
43
42
42
42
42
42
41
41
41
40
40
40
39
39
38
38
38
37
37
36
36
36
35
35
35
35
34
34
34
34
34
34
33
33
33
33
33
33
33
33
32
33
33
33
33
33
33
33
34
34
34
34
34
34
34
35
35
35
35
35
36
36
37
37
37
37
37
37
38
38
39
39
39
39
39
39
40
40
40
39
39
40
40
40
40
40
40
40
40
40
40
40
40
40
40
40
41
41
41
41
42
42
43
43
44
44
44
44
45
46
46
46
46
46
47
47
47
48
48
47
48
48
48
49
49
49
49
49
49
49
49
49
49
49
49
49
49
48
48
48
47
47
47
47
47
47
47
47
47
47
47
47
47
46
46
46
47
47
47
46
46
46
47
47
47
47
46
47
47
47
47
47
47
47
46
47
47
47
47
47
47
47
47
47
47
47
47
47
47
47
47
47
47
47
47
47
47
47
47
47
47
47
47
47
47
47
47
47
48
48
48
48
48
47
47
47
48
48
48
47
47
48
48
48
48
48
48
48
48
49
49
49
49
48
48
48
49
49
49
48
48
48
48
49
49
48
48
48
48
48
48
47
47
47
47
47
47
47
46
46
46
46
46
46
46
46
45
45
46
46
46
46
46
46
46
46
46
46
46
46
46
47
47
47
48
48
48
48
48
49
49
49
49
49
49
49
49
49
49
49
49
49
49
49
48
48
48
47
47
47
47
47
46
46
46
45
45
45
45
45
44
44
44
45
45
44
44
44
45
45
45
46
46
46
46
46
47
47
47
47
48
48
48
49
49
49
49
49
50
50
50
50
50
49
49
49
50
50
49
49
49
49
49
49
49
49
49
49
49
50
50
49
49
49
49
49
49
50
49
49
49
49
49
50
50
50
50
50
50
51
51
51
51
52
52
53
53
54
55
55
56
57
57
58
59
59
60
60
61
61
62
62
62
62
61
61
62
61
61
60
60
60
60
60
60
60
60
60
60
61
61
61
61
61
62
62
63
63
63
63
64
64
64
65
65
65
64
64
64
64
64
63
63
62
62
62
62
62
61
61
60
60
60
60
60
60
59
59
59
59
59
59
58
58
58
58
58
58
58
57
57
57
57
58
58
57
57
57
57
57
57
56
56
55
55
55
55
54
54
53
53
53
53
53
52
52
52
51
51
52
52
51
51
51
50
51
51
51
51
51
51
51
52
52
52
52
52
52
52
53
53
53
53
53
53
53
54
53
53
53
53
53
53
53
53
53
53
53
53
53
53
53
52
52
52
53
53
54
54
55
56
57
59
60
62
63
65
67
69
71
73
75
77
80
82
85
87
89
91
93
95
96
98
100
101
102
103
104
106
107
109
110
110
110
109
108
106
103
99
95
89
83
77
69
60
50
39
27
15
2
-11
-26
-41
-56
-71
-86
-100
-114
-127
-140
-152
-163
-173
-181
-189
-196
-201
-206
-209
-211
-212
-212
-211
-210
-207
-204
-199
-194
-189
-183
-177
-170
-162
-155
-148
-140
-133
-126
-119
-111
-104
-97
-91
-84
-77
-71
-64
-58
-52
-46
-40
-34
-28
-22
-17
-12
-6
-1
3
8
12
16
20
23
27
30
33
36
38
40
42
43
45
47
48
49
49
50
51
52
52
53
53
53
53
54
54
55
55
55
55
56
56
57
58
58
58
58
59
59
60
60
60
60
60
61
61
62
62
61
61
61
62
62
62
62
62
62
63
63
63
63
63
63
63
63
64
64
64
64
64
64
65
65
65
65
66
66
66
67
67
67
67
67
67
68
68
68
68
68
68
68
68
69
69
69
69
69
69
69
69
69
69
69
69
69
69
70
69
69
69
69
70
70
70
70
70
70
71
71
71
71
71
71
71
71
71
71
71
71
71
72
72
72
73
72
72
72
72
72
73
73
72
72
72
73
73
73
73
72
72
72
72
73
73
72
72
72
73
73
73
73
74
74
74
74
75
76
76
76
77
78
79
79
80
80
81
81
82
82
83
83
83
83
84
84
85
85
85
85
85
86
86
87
87
88
88
89
89
90
91
91
92
92
93
93
94
95
95
95
96
96
97
97
98
98
98
98
99
99
99
99
99
100
100
100
100
100
100
100
101
101
102
102
103
103
103
103
103
104
104
105
105
105
105
105
106
106
106
106
106
107
107
107
108
108
108
108
108
108
108
108
108
108
108
108
108
108
107
107
106
106
106
106
106
105
104
104
104
103
103
102
102
101
101
101
100
100
100
99
99
98
98
98
97
97
96
96
95
95
95
94
93
93
92
92
92
91
90
90
89
89
88
88
88
87
86
86
85
85
84
84
83
82
81
81
80
80
79
78
78
78
78
77
77
77
76
76
75
75
75
75
74
74
74
73
73
73
72
72
71
71
71
70
70
70
69
68
68
68
67
67
66
66
65
65
65
64
64
63
63
63
63
63
63
63
63
63
63
63
63
63
63
63
63
63
63
63
63
63
62
63
63
63
63
62
62
62
62
62
62
62
62
62
62
62
62
62
62
62
62
63
63
63
63
63
63
64
64
64
64
64
64
64
64
64
64
64
64
64
64
65
65
66
66
66
66
67
67
68
69
69
69
69
69
70
70
71
71
71
71
71
72
72
73
73
73
73
74
74
75
75
75
75
75
76
76
77
77
77
78
78
79
79
80
80
80
81
81
82
82
82
83
83
83
83
83
83
83
83
83
83
83
83
83
83
83
82
82
83
83
82
82
82
82
82
82
82
82
82
82
83
83
83
84
84
84
84
85
86
86
86
86
86
86
86
86
87
86
86
86
86
86
86
86
86
85
85
85
85
85
84
84
84
84
84
85
85
85
85
86
86
86
87
88
88
88
89
89
90
90
91
91
91
91
91
92
92
92
92
92
92
92
93
93
93
93
93
93
93
93
93
93
92
92
92
93
93
93
92
92
92
93
93
93
93
93
93
93
94
94
94
94
94
94
94
95
95
95
95
95
96
96
96
97
97
97
97
97
98
98
98
98
98
98
98
98
98
98
98
98
98
98
98
98
98
98
98
98
99
99
99
99
99
99
100
100
101
101
101
102
102
103
103
104
104
104
104
104
105
105
105
105
105
105
105
106
106
106
106
106
106
107
107
107
107
108
108
108
109
109
109
110
110
110
110
111
111
111
111
111
112
112
112
113
113
113
113
113
114
114
114
114
114
114
114
115
115
115
115
115
115
116
116
116
116
116
116
117
117
117
117
117
117
117
118
118
119
119
119
119
120
120
121
121
122
122
123
123
124
125
126
127
127
128
128
129
130
130
131
131
132
133
133
133
133
133
133
134
134
134
134
135
135
135
136
136
137
138
138
139
140
141
142
143
143
144
145
146
146
147
147
148
148
148
148
148
148
148
147
147
147
147
147
146
146
145
145
145
145
145
144
144
143
143
143
143
143
143
142
142
143
143
143
144
144
144
144
144
144
145
145
145
145
145
145
145
145
145
144
144
144
144
144
143
143
143
143
143
143
144
143
143
143
143
144
144
145
145
145
145
146
147
147
148
148
148
149
149
149
150
150
150
150
150
150
151
151
151
151
151
151
152
152
152
152
152
153
153
153
154
154
154
154
154
155
155
156
156
156
156
156
157
158
158
159
160
161
162
164
165
167
168
170
171
173
176
178
180
182
184
186
189
191
194
196
198
199
201
203
204
205
206
206
207
208
209
210
211
211
212
212
211
209
207
204
200
196
191
185
178
171
162
152
142
131
119
106
93
79
65
52
38
24
11
-1
-14
-26
-36
-46
-55
-63
-71
-77
-83
-87
-90
-92
-93
-94
-93
-91
-88
-85
-81
-76
-71
-65
-58
-51
-44
-37
-30
-22
-15
-7
0
7
14
22
29
36
43
50
57
63
70
76
83
89
95
101
107
113
118
124
129
134
139
143
147
151
155
159
163
165
168
170
172
175
177
178
179
181
182
183
184
185
186
186
187
188
189
190
191
191
192
193
194
195
195
196
196
197
197
198
199
199
199
200
200
200
201
201
202
202
202
202
203
203
204
204
204
204
204
205
205
206
206
206
206
207
207
208
208
209
209
210
210
211
212
212
212
213
213
214
214
215
215
215
216
216
217
218
218
218
219
219
219
220
220
220
221
221
221
222
222
222
223
223
223
223
224
224
225
225
225
225
225
226
226
226
226
225
226
226
226
226
226
226
226
226
227
227
228
229
229
229
230
231
232
232
233
233
233
234
235
235
236
236
236
237
238
238
238
238
238
238
239
239
239
240
240
240
240
241
241
242
242
242
243
243
244
244
245
246
246
246
247
248
248
249
249
249
250
250
251
252
252
252
253
254
255
255
256
257
257
258
259
260
261
261
262
263
263
264
265
266
266
266
267
268
268
269
270
270
271
271
272
272
273
273
273
273
274
274
275
275
276
276
276
277
278
278
279
279
280
280
281
282
282
283
283
284
284
285
286
286
287
287
288
288
289
289
290
290
290
291
291
292
293
293
293
294
294
294
294
295
295
295
295
296
296
296
296
296
296
296
296
296
296
296
295
295
294
294
294
294
294
293
293
292
292
292
292
292
291
291
291
291
291
290
290
289
289
289
289
288
288
287
287
286
286
285
285
284
283
283
282
282
282
281
280
279
278
278
277
276
275
274
274
273
273
273
272
272
271
271
271
271
271
271
270
270
270
270
271
271
270
270
270
270
270
270
270
269
269
268
268
268
267
267
266
265
264
264
263
263
262
261
261
261
260
260
260
260
259
259
259
260
259
259
259
259
259
259
259
259
259
259
259
259
259
259
259
259
259
259
259
259
259
259
260
260
260
260
261
261
261
261
262
262
263
263
264
264
264
264
265
265
265
265
265
265
265
265
265
265
265
265
265
265
265
265
265
265
265
265
265
266
266
266
266
266
266
267
267
268
268
268
268
268
269
269
270
270
270
270
271
271
272
272
272
272
273
273
274
274
274
274
275
275
276
276
277
277
277
277
277
278
278
278
278
278
278
279
279
279
280
280
280
280
281
281
282
282
282
282
282
283
283
283
283
283
283
283
284
284
284
283
283
283
283
284
284
284
284
284
284
284
284
284
284
284
284
284
285
285
285
285
285
285
285
285
286
286
285
285
285
285
285
285
285
285
284
284
285
285
285
285
285
285
285
285
285
285
285
285
286
286
286
286
286
287
286
287
287
287
287
286
286
286
286
286
286
286
285
285
285
285
285
284
284
283
283
283
283
283
282
282
282
282
283
283
283
283
283
283
284
284
285
285
285
285
285
286
286
286
286
286
286
286
286
286
286
286
286
286
286
286
286
285
285
285
285
285
285
285
285
285
285
285
285
286
286
286
286
286
286
286
286
286
286
286
285
285
285
285
284
284
284
284
284
284
284
284
283
283
283
283
284
284
284
284
284
284
285
285
285
285
285
285
286
286
286
286
286
286
286
286
286
286
286
285
285
285
286
286
285
285
285
285
285
286
286
285
285
285
285
285
285
285
285
285
284
284
284
284
284
284
284
284
284
284
284
284
284
284
284
284
284
284
284
285
285
286
286
287
287
287
287
288
288
289
290
290
290
291
291
292
292
292
292
292
292
292
292
292
292
292
292
292
293
293
293
293
293
293
294
294
294
294
294
294
294
294
294
294
294
293
293
292
292
292
292
291
290
290
290
290
289
289
288
288
287
287
287
287
286
286
285
285
285
284
284
283
283
282
282
282
282
281
281
280
280
279
279
279
278
278
277
277
278
278
278
278
278
277
277
277
277
277
277
276
276
276
276
275
275
274
274
274
274
274
273
273
273
272
272
273
273
272
272
272
272
272
272
272
272
272
272
272
272
272
272
272
271
271
271
271
271
271
270
270
270
270
270
270
270
269
269
269
269
269
269
269
269
269
269
269
270
270
270
271
272
272
274
275
276
277
278
280
282
284
286
288
290
292
294
297
299
300
302
303
305
306
307
308
309
309
310
311
312
313
314
314
314
313
311
308
305
301
296
290
284
277
268
259
249
237
225
213
199
185
171
156
140
125
110
96
82
68
56
44
33
24
15
8
2
-3
-7
-10
-11
-12
-12
-11
-9
-6
-2
2
7
13
19
25
32
39
46
54
61
68
75
82
89
97
104
110
117
123
129
136
142
148
153
159
165
170
176
181
187
192
197
202
206
211
215
219
222
226
229
232
235
237
239
241
242
244
245
246
247
247
248
249
250
250
251
251
251
251
252
252
253
253
253
253
254
254
254
255
255
255
255
256
256
257
257
258
258
258
258
259
259
259
259
259
259
259
259
259
259
259
259
259
259
259
259
259
258
258
258
258
258
258
258
258
257
257
257
257
257
257
256
256
256
256
256
256
256
256
256
256
256
256
255
255
255
255
255
255
255
255
255
255
255
255
256
255
255
255
255
256
256
256
256
256
256
256
256
256
256
255
255
256
256
256
256
256
256
256
256
256
256
256
255
255
255
255
255
255
255
254
254
254
255
255
255
255
255
255
255
255
256
256
256
256
257
257
258
258
258
258
258
258
259
259
259
259
259
259
260
260
260
260
260
260
260
260
261
261
261
261
261
261
262
262
262
263
263
263
263
264
264
264
265
265
265
265
266
266
267
267
267
267
268
269
269
269
269
270
270
271
271
272
272
272
272
273
273
274
274
274
274
274
274
275
275
275
275
275
275
275
275
275
275
275
275
275
275
275
275
275
275
275
275
276
276
276
276
276
276
277
277
277
276
276
276
276
277
277
277
277
277
277
277
277
277
277
277
277
277
277
277
276
276
276
276
275
275
275
275
274
273
273
273
272
272
271
271
270
270
269
268
267
266
265
264
264
263
263
262
260
259
259
258
257
257
256
255
254
254
253
253
252
251
250
249
248
248
247
246
245
244
243
243
242
241
240
239
238
237
237
236
235
234
233
232
231
230
230
229
227
226
226
225
225
224
223
223
222
221
221
220
220
219
219
219
218
218
218
217
217
217
217
217
216
216
216
215
215
214
214
214
214
213
212
212
211
211
210
210
209
208
208
207
207
206
206
205
205
204
204
204
203
203
202
202
201
201
201
200
199
199
199
199
199
199
199
198
198
198
198
198
198
198
198
198
198
199
199
199
199
199
199
200
200
200
200
200
200
200
200
200
200
200
200
199
199
199
199
199
198
198
198
198
198
198
197
197
196
196
196
196
196
195
195
195
195
195
195
195
195
195
196
196
196
197
197
197
197
198
198
199
199
199
199
199
199
199
200
199
199
199
199
200
200
200
200
199
199
199
200
200
200
200
199
199
199
200
200
200
200
200
200
200
200
201
201
200
200
200
201
201
201
200
200
200
200
200
200
199
199
198
198
198
198
198
198
197
197
197
197
197
197
196
196
196
196
196
196
195
195
194
194
194
194
194
194
194
194
194
194
194
194
194
193
193
193
193
193
193
192
192
192
192
192
192
191
191
190
190
190
190
189
189
188
188
187
187
187
187
186
186
186
186
186
186
186
185
185
185
185
185
185
185
185
185
185
185
185
185
184
184
184
184
184
184
183
183
182
182
182
182
182
181
181
181
181
181
181
181
180
180
180
181
181
181
181
181
181
181
181
181
180
180
179
179
179
178
178
178
177
177
177
177
177
177
176
176
176
176
176
176
176
175
175
175
175
175
175
174
174
173
173
173
173
173
172
172
171
171
171
171
171
171
170
170
170
170
170
170
170
169
169
169
169
169
169
169
169
169
169
169
169
168
168
168
168
168
168
168
168
168
168
168
168
168
168
168
168
168
168
168
168
168
168
167
167
167
167
167
167
166
166
166
166
166
166
165
165
165
165
165
165
164
164
164
164
164
164
164
164
164
165
165
165
165
166
166
166
166
166
166
166
166
165
165
165
165
165
165
165
165
165
165
166
166
166
167
167
167
168
168
168
169
169
169
169
170
170
170
169
169
169
169
169
169
168
168
167
167
167
166
166
165
165
164
164
164
163
163
162
161
161
161
160
160
160
159
159
158
158
158
157
157
156
156
156
156
155
155
154
154
153
153
153
153
152
152
151
151
151
150
149
149
148
147
147
147
146
146
145
145
144
144
144
144
143
143
142
142
142
142
142
142
141
141
141
141
141
141
141
141
141
141
142
142
142
141
141
142
142
142
142
142
142
142
142
142
142
141
141
141
141
141
141
141
141
140
140
140
140
140
140
140
141
141
142
143
144
144
145
146
148
149
151
152
154
155
157
159
162
164
166
168
170
171
173
175
177
178
179
180
181
182
184
185
186
187
188
189
189
189
187
185
182
179
174
169
163
156
148
139
129
119
107
95
82
68
53
38
23
8
-6
-21
-36
-50
-63
-75
-86
-97
-107
-115
-123
-129
-134
-138
-141
-143
-144
-143
-142
-139
-136
-132
-128
-123
-117
-110
-103
-97
-90
-82
-75
-67
-60
-52
-45
-38
-32
-25
-18
-12
-5
0
5
11
17
22
28
33
39
44
49
55
60
64
69
73
77
81
85
89
92
95
98
100
103
105
107
108
110
111
112
113
114
115
116
116
117
117
118
119
119
119
119
120
120
120
121
121
121
121
122
122
122
123
123
123
123
123
124
124
124
124
124
124
124
124
124
124
124
124
124
125
125
125
125
125
124
124
124
124
124
124
124
124
124
124
124
124
123
123
123
123
123
123
123
123
123
123
124
124
124
123
123
123
123
123
123
123
122
122
122
122
123
123
123
123
122
123
123
123
123
123
123
123
123
123
123
123
122
122
122
122
123
123
123
122
122
122
122
122
122
122
122
122
122
123
123
123
122
122
122
123
123
123
123
123
122
123
123
123
123
123
123
123
123
123
123
123
123
123
123
124
124
124
124
124
124
125
125
126
126
126
126
126
126
126
127
127
127
127
127
128
128
129
129
129
129
129
129
129
129
129
129
129
129
130
130
130
130
130
131
131
132
132
132
132
133
133
134
135
135
136
136
136
137
137
138
138
138
139
139
140
141
141
142
142
142
142
143
143
143
143
144
144
144
144
144
144
144
144
144
144
145
145
145
145
145
145
145
145
145
145
145
145
145
145
145
145
145
145
145
145
145
145
145
145
144
144
144
144
144
144
143
143
143
143
143
142
142
142
141
141
141
141
141
140
140
139
139
139
138
138
137
137
136
136
136
135
134
134
133
133
132
132
131
130
129
129
128
127
126
125
124
123
122
122
121
120
119
118
118
117
116
116
115
114
113
113
112
112
111
110
109
108
107
107
106
105
104
103
102
102
101
101
100
99
98
98
97
97
96
95
95
94
94
93
93
93
92
91
91
91
90
90
90
89
88
88
88
87
87
86
86
85
85
85
84
84
83
83
83
82
82
82
82
81
81
81
81
81
81
80
80
80
80
80
80
80
80
80
80
80
80
80
80
79
79
79
79
79
79
78
78
78
77
77
77
77
77
77
77
77
77
77
77
77
77
77
78
78
78
78
78
78
78
78
78
78
78
78
79
79
79
80
80
80
80
80
81
81
81
81
81
81
81
81
82
82
82
81
82
82
82
82
82
82
82
82
82
82
82
82
82
82
81
81
81
81
81
81
80
81
81
81
81
81
81
81
81
81
81
81
81
81
82
82
83
83
83
83
83
83
84
84
84
84
84
84
84
85
84
84
84
84
83
83
84
83
83
83
82
82
82
82
81
81
81
80
80
80
80
79
79
78
78
78
78
78
77
77
77
77
78
78
78
78
78
78
79
79
79
79
79
79
79
79
79
79
79
79
79
79
78
78
78
78
77
77
77
77
77
76
76
76
75
75
75
75
75
75
75
75
75
75
75
74
74
74
75
75
74
74
74
74
73
73
73
73
73
72
72
72
72
72
72
71
71
71
71
71
71
70
70
70
69
69
69
69
69
69
68
69
69
69
69
68
68
68
68
68
68
68
67
67
67
67
67
67
67
67
67
67
67
68
68
67
67
67
68
68
68
68
67
67
67
67
67
67
67
66
66
66
66
66
66
66
65
65
66
66
66
65
65
65
65
65
65
65
65
65
65
65
66
66
66
65
65
65
66
66
65
65
65
65
65
65
65
65
65
65
65
65
66
66
66
66
66
66
66
66
66
66
66
66
66
66
66
66
65
65
65
64
64
64
64
63
63
63
63
63
63
63
63
63
63
63
64
64
64
64
64
65
65
66
66
67
67
67
68
68
68
68
68
68
67
68
68
67
67
67
68
68
68
69
69
69
70
70
71
71
72
72
73
73
73
74
74
74
74
74
74
74
74
74
74
73
73
72
72
71
71
70
69
69
68
68
68
67
66
65
65
65
64
64
64
63
63
62
62
62
61
61
60
60
60
60
60
59
59
58
58
58
58
58
57
57
57
56
56
56
56
56
55
55
55
55
55
54
54
54
54
54
54
54
53
53
53
53
53
53
52
52
52
51
51
51
51
51
51
51
51
51
51
52
52
52
52
52
52
52
52
52
52
52
52
52
52
52
52
52
52
52
52
52
52
52
51
51
52
52
52
52
52
53
53
54
56
57
57
59
60
62
63
65
67
69
71
73
75
77
79
81
83
85
87
88
90
91
92
93
94
94
95
97
98
99
99
100
100
100
98
95
92
88
84
78
72
65
57
48
38
27
16
3
-9
-23
-37
-51
-66
-81
-95
-110
-123
-137
-149
-160
-171
-181
-190
-198
-205
-210
-215
-219
-221
-223
-224
-224
-222
-220
-217
-213
-209
-204
-198
-192
-185
-179
-172
-165
-157
-150
-142
-134
-127
-120
-113
-105
-98
-91
-84
-78
-72
-66
-59
-53
-47
-41
-35
-30
-24
-18
-13
-8
-3
0
4
8
12
15
18
21
24
26
28
30
32
33
34
35
36
37
37
38
38
39
39
40
41
41
42
42
43
43
44
45
45
46
46
47
47
48
49
50
50
50
50
51
51
51
51
51
51
50
50
50
50
50
50
50
49
50
50
50
50
49
49
50
50
50
50
50
50
51
51
51
52
52
51
51
52
52
52
52
53
52
52
52
53
53
52
52
52
52
52
52
52
52
51
51
51
52
52
52
52
51
51
51
52
52
52
52
52
52
52
53
53
53
53
53
54
55
55
55
56
56
56
56
56
57
57
57
57
56
56
57
57
57
56
56
56
56
56
56
56
56
56
56
56
56
56
56
56
56
56
57
57
57
57
57
57
58
58
58
59
59
59
59
60
60
60
60
61
61
61
61
62
62
62
62
62
63
63
63
63
63
64
64
65
65
65
65
66
66
66
67
67
67
67
68
68
69
69
70
70
70
70
71
71
72
72
72
72
73
73
73
74
74
74
74
75
76
76
77
77
78
78
79
80
80
81
81
82
82
83
83
84
85
85
86
87
88
88
89
90
90
91
91
92
93
93
93
93
93
93
94
94
94
93
93
93
92
92
92
92
91
91
91
90
90
90
89
88
88
88
87
87
86
86
85
85
85
84
84
83
83
82
82
82
81
81
80
80
79
79
78
78
77
77
76
76
75
75
75
74
74
73
72
72
71
71
70
69
68
67
67
66
66
65
64
63
63
62
61
61
60
59
59
58
58
57
56
56
55
54
54
53
52
51
51
50
50
49
49
48
48
47
46
46
45
45
44
43
43
42
42
42
41
40
40
39
39
39
38
38
37
36
36
36
35
35
34
34
33
33
33
33
32
31
31
31
30
30
30
30
29
29
29
29
29
29
29
29
28
29
29
29
29
29
29
30
30
31
31
31
31
32
32
32
32
32
32
32
32
32
32
32
32
32
31
31
31
31
32
32
31
31
31
32
32
32
32
31
31
32
32
32
32
32
32
32
32
33
33
33
33
33
33
33
34
34
34
34
34
34
35
35
35
35
35
35
36
36
37
37
37
37
38
38
39
39
40
40
40
41
41
41
41
41
41
41
42
42
42
42
42
42
41
41
41
41
41
40
40
40
40
40
39
39
39
39
39
39
39
39
39
39
39
40
40
40
40
40
40
41
41
41
42
42
42
42
43
43
44
44
44
44
45
45
45
45
45
44
44
44
44
44
44
44
43
43
43
43
43
42
42
42
42
42
42
42
42
42
42
42
42
42
42
42
42
42
42
43
43
43
43
43
43
43
43
42
42
42
41
41
41
41
41
40
40
40
40
40
40
40
40
39
40
40
40
40
40
40
40
40
40
40
40
40
40
40
40
40
41
41
41
41
41
41
41
41
41
41
41
41
41
41
41
40
40
40
40
40
40
39
39
38
38
38
38
38
37
37
36
36
36
36
36
35
35
34
34
35
35
35
35
35
35
35
35
35
35
35
35
36
36
36
37
36
36
37
37
37
37
38
38
38
38
38
38
38
38
37
37
37
37
37
37
37
36
36
37
37
37
36
36
36
36
36
36
36
36
36
37
37
37
38
38
38
38
39
39
40
40
41
41
42
42
43
44
44
44
44
45
45
46
46
46
46
46
46
46
46
46
45
44
44
43
43
42
42
41
41
40
40
41
41
41
41
41
41
42
42
43
43
43
44
44
45
45
45
45
45
45
45
45
45
45
45
44
44
44
44
44
44
44
44
44
44
43
43
43
43
42
42
42
42
41
41
41
40
40
40
40
40
39
39
39
39
39
39
38
38
38
37
37
37
37
37
37
36
36
36
36
35
34
34
34
34
33
33
32
31
31
30
30
30
29
29
28
28
28
29
29
29
29
29
29
30
30
30
30
30
30
30
30
31
31
30
30
30
30
30
30
30
29
29
29
29
29
28
28
27
27
27
26
26
26
26
26
26
26
26
26
26
26
27
27
28
29
30
31
33
34
36
37
39
41
42
44
46
48
51
53
55
57
59
61
63
64
65
66
67
68
68
69
69
70
69
70
70
71
71
71
70
68
65
62
58
54
48
42
35
27
18
8
-2
-13
-26
-39
-53
-67
-81
-96
-111
-126
-140
-154
-167
-179
-191
-201
-211
-220
-227
-233
-239
-243
-246
-248
-249
-249
-247
-245
-242
-238
-234
-229
-223
-217
-210
-204
-197
-189
-181
-173
-165
-157
-149
-141
-134
-126
-118
-111
-104
-97
-90
-83
-76
-70
-63
-57
-51
-46
-40
-35
-29
-25
-20
-16
-12
-8
-4
-1
1
4
6
8
10
12
14
15
16
17
18
19
20
20
21
21
22
23
23
24
25
25
25
26
27
27
27
28
28
28
29
29
29
29
29
30
30
30
30
31
31
31
30
30
30
31
30
30
30
31
31
31
31
31
31
31
32
32
32
33
33
33
33
34
35
35
35
35
35
35
35
35
35
35
35
35
35
35
35
35
35
34
34
34
34
34
34
34
34
33
33
34
34
34
34
34
34
34
35
35
35
35
35
35
36
36
36
36
36
36
36
37
37
37
37
37
37
37
38
38
38
39
39
39
40
40
40
40
41
40
40
41
41
41
40
41
41
41
41
41
40
40
40
40
40
40
40
40
40
40
40
40
40
40
41
41
41
41
42
42
43
43
44
44
45
45
45
46
46
46
46
47
47
48
48
48
48
49
49
50
50
50
51
51
52
52
52
52
53
53
53
54
54
55
55
55
56
56
57
57
58
58
58
59
59
60
60
60
60
61
61
62
62
63
63
63
64
64
65
65
66
66
66
67
67
68
68
68
69
69
69
69
70
70
70
70
70
71
71
72
72
72
72
72
72
73
73
73
73
73
73
73
73
73
73
73
73
73
73
73
73
73
73
73
73
73
73
72
72
72
71
71
71
71
70
70
69
69
69
68
68
67
66
66
65
65
65
64
63
63
62
62
61
61
60
60
59
59
59
58
58
57
57
56
56
56
55
55
54
53
53
52
52
51
50
50
49
49
48
48
48
47
46
46
45
44
44
43
42
41
41
40
40
39
38
37
36
36
35
35
34
34
33
33
33
32
32
31
31
30
30
30
29
29
29
28
28
28
28
28
28
27
27
27
27
27
27
26
26
26
25
25
25
25
24
24
24
24
24
24
24
23
23
23
23
23
23
22
22
22
22
22
22
22
21
21
21
22
22
22
22
22
21
22
22
22
22
22
22
22
22
22
23
23
23
23
24
24
24
25
25
25
26
26
27
27
27
27
27
27
27
27
28
28
27
27
27
27
27
28
28
28
28
28
28
29
29
29
29
29
29
29
30
30
30
30
31
31
31
32
32
32
32
33
33
33
33
33
33
33
33
34
34
34
34
34
34
34
34
34
34
34
34
34
34
34
34
34
34
33
33
34
34
34
34
34
34
34
34
35
35
35
35
35
35
36
36
36
35
35
35
35
36
36
35
35
35
35
35
36
36
35
35
35
35
35
35
35
34
34
34
34
34
34
34
33
33
33
34
34
34
34
34
34
35
35
35
35
35
35
35
36
36
36
36
36
36
36
36
36
36
36
35
35
35
35
35
35
34
34
34
34
34
33
33
32
32
32
32
32
32
32
31
31
31
31
31
31
30
30
30
30
30
30
30
30
30
30
30
31
31
30
30
30
31
31
31
31
31
31
31
31
32
32
32
32
32
32
32
33
33
33
33
33
33
33
33
33
33
33
33
33
33
33
32
32
32
32
32
32
32
32
32
32
32
33
33
33
33
32
32
33
33
33
33
32
33
33
33
33
33
33
32
32
33
33
33
32
32
32
32
32
32
32
32
32
33
33
33
33
33
33
33
33
34
34
34
34
33
33
33
34
34
34
33
33
33
33
33
34
34
34
34
34
35
35
36
36
36
37
37
38
38
39
39
39
40
41
41
42
42
42
42
42
42
42
42
42
42
42
42
42
42
43
43
43
43
44
44
45
45
45
46
46
47
47
47
47
47
47
47
47
48
47
47
46
46
45
45
45
44
44
43
43
43
43
42
42
41
41
40
40
40
40
39
39
38
38
38
38
37
37
36
36
36
36
36
35
35
35
34
34
34
34
33
33
33
33
33
33
33
32
32
32
32
32
31
31
31
30
30
30
30
30
29
29
29
29
29
29
29
29
28
28
29
28
28
28
28
28
28
28
28
28
28
28
28
28
28
29
29
29
29
29
30
30
30
30
30
30
30
30
31
31
30
30
30
31
31
31
31
31
32
32
33
34
35
36
37
38
40
41
43
45
46
48
50
52
55
57
59
62
64
66
68
70
71
73
74
75
76
77
78
79
80
80
82
83
84
84
84
82
80
77
74
70
65
59
52
44
36
26
16
4
-7
-21
-35
-49
-64
-79
-94
-109
-124
-139
-152
-165
-178
-190
-200
-210
-218
-225
-231
-236
-240
-243
-245
-245
-244
-242
-240
-236
-232
-227
-221
-215
-208
-201
-194
-187
-179
-171
-164
-156
-149
-142
-134
-127
-120
-113
-106
-100
-94
-88
-82
-76
-70
-64
-59
-53
-48
-42
-37
-31
-27
-22
-17
-13
-8
-4
0
2
5
8
11
14
16
18
19
20
22
23
24
25
25
25
26
26
26
27
27
26
26
26
27
27
27
27
27
27
28
28
29
29
29
30
30
31
32
32
33
33
34
34
35
35
36
36
36
36
37
37
37
37
37
37
37
37
38
38
38
38
37
38
38
38
38
38
38
38
38
38
38
38
38
38
38
38
38
38
38
38
38
39
39
39
39
39
39
39
39
40
40
40
40
40
40
41
41
41
41
42
42
42
42
42
42
42
42
42
42
42
42
42
42
42
42
42
42
43
43
43
43
43
44
44
44
44
44
44
44
44
45
45
45
45
45
45
46
46
46
46
46
46
46
46
46
46
46
46
47
47
47
47
47
47
47
48
48
49
49
50
50
51
51
52
52
53
53
53
54
55
55
56
56
56
57
57
58
59
59
59
59
59
60
60
60
60
60
61
61
61
61
62
62
62
62
63
63
64
64
65
65
66
67
67
68
68
68
69
69
70
71
71
71
72
72
73
73
74
74
74
74
75
75
76
76
76
76
76
76
77
77
77
77
77
77
78
78
78
79
79
79
79
80
80
80
80
80
80
80
81
81
81
81
81
81
81
82
82
82
81
81
81
81
81
81
80
80
80
79
79
79
79
78
78
77
77
77
77
76
76
75
75
75
75
74
74
73
72
72
71
71
70
69
68
68
67
67
66
65
64
63
62
62
61
60
59
59
58
57
56
56
55
54
53
53
52
52
52
51
50
50
49
49
49
48
47
47
46
46
45
45
45
44
43
43
43
42
42
42
41
40
40
40
40
39
39
38
37
37
37
36
36
35
35
34
34
34
34
33
33
32
32
32
32
31
31
31
31
30
30
30
30
30
29
29
29
29
30
30
29
29
29
29
29
29
29
28
28
28
28
28
28
27
27
27
27
27
27
27
26
26
26
26
26
26
26
26
25
25
25
26
26
26
26
26
26
27
27
27
27
27
28
28
28
29
29
29
29
29
30
30
31
31
31
31
32
32
32
33
33
33
33
34
34
34
34
34
34
34
34
34
34
34
34
34
34
35
35
35
35
35
35
36
36
36
36
36
36
37
37
37
37
37
37
37
38
38
38
38
38
38
39
39
39
39
39
39
39
39
39
39
39
39
39
38
39
39
39
38
38
38
38
38
38
38
37
37
37
37
37
37
37
37
37
37
37
37
37
37
37
36
36
37
37
37
37
37
36
36
37
37
37
37
37
37
37
37
37
37
37
37
37
37
37
37
37
36
36
36
36
36
35
35
35
35
35
35
35
34
34
34
34
35
35
35
35
35
35
36
36
36
36
36
36
36
36
36
37
37
37
36
36
36
36
36
35
35
35
34
34
34
34
34
33
33
33
33
33
33
33
33
33
33
34
34
33
33
33
33
33
33
33
33
33
33
33
33
33
33
33
33
33
33
33
33
33
33
32
32
32
32
32
32
31
31
31
32
32
32
32
31
31
31
31
31
31
31
31
31
31
31
31
31
31
31
31
31
31
31
31
31
31
31
32
32
32
32
32
32
32
32
33
33
33
33
33
33
34
34
34
34
34
34
34
34
34
34
33
33
33
34
33
33
33
33
33
33
33
33
33
33
33
33
33
33
33
33
33
33
33
34
34
33
33
33
33
34
34
34
34
34
35
35
36
36
36
36
37
37
38
38
39
39
39
40
40
41
41
41
41
41
41
42
42
42
42
42
42
42
42
42
42
42
42
42
43
43
43
43
43
43
44
44
44
44
44
44
44
44
44
44
43
43
43
42
42
42
42
42
42
41
41
41
41
40
40
40
39
39
39
39
38
38
38
37
37
37
37
37
37
36
36
36
36
36
36
35
34
34
34
34
33
33
32
32
32
32
32
31
31
31
30
30
30
30
30
30
29
29
29
29
29
29
28
28
29
29
29
29
29
28
29
29
29
29
29
29
29
29
29
30
30
30
30
30
31
31
31
32
32
32
32
32
33
33
33
33
33
33
33
33
33
32
32
32
32
32
32
32
32
32
33
33
34
35
36
37
38
39
41
42
44
45
47
49
51
53
56
58
60
62
64
66
67
69
70
71
72
73
74
75
76
76
77
79
80
81
81
81
79
77
74
71
67
61
55
48
40
31
21
11
0
-12
-26
-40
-54
-69
-84
-99
-114
-129
-143
-156
-169
-181
-192
-202
-212
-220
-226
-232
-236
-240
-243
-244
-244
-243
-241
-238
-234
-230
-225
-219
-212
-206
-199
-192
-184
-177
-169
-161
-154
-146
-139
-132
-125
-118
-111
-104
-97
-91
-85
-79
-72
-66
-61
-55
-49
-44
-38
-33
-28
-23
-18
-14
-10
-6
-2
1
4
6
9
12
14
16
17
19
20
21
22
24
25
25
26
26
27
28
29
29
30
30
30
31
32
32
32
32
32
33
33
34
34
34
34
34
34
34
35
35
35
35
35
35
35
36
36
36
36
36
37
37
37
37
37
38
38
39
39
40
40
40
40
41
41
41
41
41
41
42
42
43
43
42
42
42
42
43
43
43
43
43
43
43
43
43
43
42
42
42
42
42
42
41
41
41
41
41
41
41
41
41
41
41
41
41
41
41
41
42
42
42
43
43
43
43
43
44
44
45
45
45
45
46
46
46
46
46
46
46
46
47
47
47
47
47
47
47
47
48
47
47
47
47
48
48
48
48
48
48
48
48
48
48
48
48
48
49
49
49
49
49
49
50
50
50
50
50
50
50
51
52
52
52
52
53
53
54
54
55
56
56
57
58
59
59
60
60
61
61
62
63
63
63
64
64
65
65
66
66
67
67
67
68
68
69
69
69
69
69
70
70
71
71
71
71
72
73
73
74
74
74
74
75
75
76
76
76
76
76
77
77
78
78
78
78
78
78
78
78
78
78
78
79
79
79
79
78
78
78
78
79
79
78
78
78
79
79
79
79
79
79
79
79
79
79
79
79
79
79
78
78
78
78
77
77
77
77
76
76
75
75
74
74
73
73
72
71
70
70
69
69
68
67
66
65
65
64
64
63
63
62
61
61
61
60
59
58
58
57
56
56
55
54
53
53
52
51
51
50
49
48
47
46
46
45
44
43
43
42
42
42
41
40
40
39
39
39
39
39
38
38
38
38
37
37
36
36
35
35
34
34
33
33
32
32
31
31
31
30
30
29
28
28
28
27
27
26
25
25
24
24
24
24
24
23
23
23
24
24
24
24
24
24
24
24
25
25
25
25
25
26
26
26
26
26
26
26
27
27
27
26
27
27
27
27
27
27
26
26
26
26
26
26
25
25
25
25
25
25
25
25
24
25
25
25
25
25
25
25
26
26
27
27
27
28
28
29
29
29
30
30
30
31
31
32
32
32
32
32
32
33
33
33
33
33
34
34
34
34
34
34
35
35
35
36
36
35
35
35
35
36
36
36
35
36
36
36
36
36
36
35
35
36
36
36
36
36
36
36
36
37
37
37
37
37
37
37
37
37
37
37
38
38
38
38
38
37
37
37
37
37
37
36
36
36
36
36
36
36
36
36
36
36
36
37
37
37
37
37
37
37
38
37
37
38
38
38
39
39
39
39
39
39
39
39
39
39
39
39
39
39
39
38
38
38
38
39
39
39
39
38
38
39
39
39
38
38
37
37
37
37
37
37
36
36
36
36
36
36
35
35
35
35
35
34
34
34
34
34
34
34
34
34
34
34
34
34
35
35
35
35
35
35
36
36
36
35
35
35
35
36
36
35
35
35
35
35
36
36
36
36
36
36
36
37
37
37
37
37
37
37
37
37
37
37
37
37
37
37
36
36
36
36
36
35
35
35
34
34
35
35
35
35
35
35
35
36
36
37
37
37
37
38
38
38
38
38
38
38
39
39
39
39
39
39
39
39
39
40
40
40
40
40
40
40
40
40
40
40
40
40
40
40
40
40
40
40
40
40
40
40
40
41
41
41
41
41
42
42
42
43
43
44
44
44
44
45
45
46
46
46
46
46
47
47
47
47
47
47
47
48
48
48
48
48
49
49
50
50
51
51
51
51
52
52
52
52
52
52
52
52
52
52
52
52
52
52
52
52
51
51
51
51
52
51
51
51
50
50
50
50
50
49
48
48
48
48
48
48
47
47
46
46
46
45
45
44
44
43
43
43
42
42
41
40
40
40
40
39
39
39
38
39
39
39
38
38
38
38
38
39
39
39
39
39
39
39
39
39
39
39
39
40
40
40
40
40
40
40
40
40
40
40
40
40
41
41
42
42
42
42
42
42
43
43
43
42
42
42
42
42
42
41
41
40
40
40
40
40
40
39
39
40
40
41
42
42
43
44
46
47
49
50
51
53
55
58
60
62
64
66
68
70
73
74
76
77
78
79
80
81
82
82
83
83
84
85
86
86
85
83
81
78
75
70
65
59
52
44
36
26
16
4
-7
-20
-33
-47
-61
-76
-91
-106
-120
-134
-147
-160
-171
-182
-192
-201
-209
-215
-221
-225
-229
-231
-231
-231
-230
-228
-225
-221
-217
-211
-205
-199
-193
-186
-179
-172
-164
-156
-147
-140
-132
-124
-116
-108
-101
-93
-86
-80
-73
-66
-59
-52
-46
-40
-34
-28
-23
-17
-12
-7
-3
0
5
9
13
16
19
22
24
27
29
31
33
34
35
36
38
39
40
40
41
42
42
43
44
44
45
45
45
46
46
47
47
47
47
47
48
48
48
48
48
48
48
49
49
49
49
49
49
49
49
49
49
49
49
49
50
50
50
50
50
50
50
51
51
51
51
51
52
52
52
53
52
52
52
52
52
53
53
53
53
53
53
54
54
54
54
54
54
54
55
55
55
55
55
55
55
55
55
55
55
55
55
56
56
56
56
56
56
56
56
57
56
56
56
56
56
57
57
57
56
57
57
57
58
58
58
58
58
58
58
58
58
59
59
59
59
59
59
59
59
59
59
59
60
60
60
59
59
60
60
60
60
60
60
60
61
61
61
61
61
62
62
62
63
63
64
64
64
64
65
65
65
65
66
66
66
67
67
67
67
67
67
68
68
69
69
69
70
70
71
71
71
71
71
72
72
73
74
74
74
74
75
75
76
77
77
78
78
79
79
80
80
81
81
82
82
83
84
84
84
85
86
86
87
87
87
87
88
88
89
89
89
90
90
90
90
91
91
91
91
92
92
92
93
93
93
94
94
94
95
95
95
95
95
94
95
95
95
95
94
94
94
94
94
94
93
93
93
93
93
92
92
92
91
91
91
91
91
90
90
90
90
90
90
90
89
89
89
89
89
89
88
88
87
87
87
87
87
86
85
85
85
84
84
84
83
82
81
81
81
80
79
78
77
76
76
75
74
73
72
72
71
70
70
69
68
67
67
66
66
65
65
64
63
63
62
62
62
61
60
60
59
59
59
58
58
57
56
56
56
55
55
54
54
53
53
53
53
52
51
51
51
51
51
50
50
49
49
49
49
48
48
47
47
47
46
46
46
46
45
45
45
45
45
45
45
45
45
45
46
46
46
45
45
45
45
45
45
45
45
45
45
45
45
45
45
44
44
44
45
45
45
44
44
44
44
45
45
45
45
45
46
46
46
47
47
47
47
48
48
48
48
48
48
48
49
49
50
50
50
50
50
50
51
51
51
51
52
52
53
53
53
53
53
53
53
53
53
53
53
53
53
53
53
53
53
53
53
54
54
55
55
55
55
55
56
56
56
57
57
57
57
58
58
58
58
58
58
58
59
59
59
59
59
59
59
59
60
60
60
60
60
61
61
61
61
61
61
62
62
62
62
62
62
61
62
62
61
61
61
60
60
60
60
60
60
59
59
59
59
59
58
58
58
57
57
57
57
57
56
56
56
56
56
56
56
56
56
56
56
56
56
56
56
56
56
57
57
57
57
56
57
57
57
57
57
57
57
57
57
57
57
57
57
57
57
57
57
57
56
56
56
57
57
57
57
56
56
56
56
56
56
56
55
55
55
55
55
55
55
54
55
55
55
55
55
55
55
55
55
55
55
55
55
55
55
55
55
55
55
55
56
56
56
56
56
56
56
56
57
57
57
56
56
56
57
57
57
57
56
56
56
57
57
57
57
57
56
57
57
57
57
56
56
56
56
56
56
56
56
55
55
56
56
56
55
55
55
55
55
55
55
54
54
54
54
54
54
54
54
54
54
54
54
54
54
54
54
54
54
55
54
54
54
54
54
55
55
54
54
54
55
55
55
56
56
56
56
57
57
58
58
58
59
59
60
60
61
61
61
61
62
62
63
63
63
63
63
64
64
64
64
64
63
63
63
64
64
64
64
64
65
65
66
66
67
67
67
68
68
69
69
69
69
69
69
70
70
70
69
69
69
69
69
69
69
69
68
69
69
69
69
68
68
68
68
68
68
67
67
67
67
67
67
66
66
65
65
65
65
64
64
64
63
63
63
63
62
62
61
61
61
61
60
60
60
59
59
58
58
58
58
57
57
56
56
56
56
56
55
55
55
56
56
56
56
56
56
56
57
57
57
56
56
56
56
56
56
56
56
56
56
56
57
57
56
56
56
56
56
56
56
56
55
55
56
56
56
55
55
55
55
55
56
56
56
56
56
57
58
58
59
60
60
61
63
64
66
67
69
70
72
74
76
78
80
82
84
87
89
92
94
95
97
98
100
102
103
104
105
106
107
108
110
111
112
113
112
112
110
108
105
101
96
91
84
77
68
59
48
36
24
11
-2
-16
-31
-47
-63
-78
-93
-108
-122
-136
-149
-161
-172
-182
-190
-198
-204
-210
-213
-216
-217
-218
-218
-216
-214
-210
-205
-200
-195
-189
-182
-175
-168
-160
-152
-145
-137
-129
-122
-114
-106
-99
-91
-85
-78
-71
-64
-58
-52
-46
-40
-34
-28
-23
-17
-12
-7
-2
2
7
12
17
21
25
29
32
36
39
41
44
46
48
49
51
52
53
54
55
56
57
57
58
58
58
58
58
59
59
59
60
60
60
60
61
61
61
61
61
62
62
63
63
64
64
64
64
65
65
65
65
65
66
66
66
67
67
67
67
67
68
69
69
69
69
69
70
70
70
70
70
70
70
70
70
70
70
70
70
70
70
70
69
69
68
68
68
69
69
69
68
68
68
68
69
69
69
69
69
69
70
70
71
71
71
71
72
72
72
73
73
73
73
73
74
74
74
74
74
75
75
75
75
75
75
75
76
76
77
77
77
77
77
77
78
78
78
78
78
78
78
79
79
79
79
79
80
80
80
80
80
80
80
80
80
81
81
80
80
81
81
81
82
82
82
82
82
83
83
83
84
84
84
85
85
86
86
86
87
87
87
88
88
88
88
89
89
90
90
91
91
91
91
92
93
93
94
94
95
95
96
97
98
99
99
100
101
102
102
103
103
103
103
104
104
105
105
105
105
105
105
105
106
106
106
106
107
107
108
108
108
109
109
110
111
111
112
112
113
114
114
115
115
115
116
116
116
117
117
117
116
116
116
116
116
116
116
116
116
116
116
116
116
116
116
116
116
116
116
116
115
115
115
115
115
114
114
113
112
112
112
112
111
111
110
110
110
109
109
108
108
107
107
106
106
106
105
105
104
104
104
104
103
103
102
101
101
100
100
99
98
97
96
95
95
94
93
92
91
91
90
90
89
89
88
87
87
87
86
86
85
84
84
84
83
83
83
82
82
81
81
81
80
80
79
79
78
78
78
77
76
76
75
75
74
74
73
73
72
72
72
72
71
71
71
70
70
70
70
70
69
69
69
69
69
68
68
68
67
67
67
67
67
67
67
66
66
67
66
66
66
65
65
65
65
65
65
65
64
65
65
65
65
65
65
65
65
65
65
65
65
65
65
65
66
66
66
66
66
66
66
67
67
67
66
66
67
67
67
67
67
67
67
68
68
68
68
68
68
69
69
69
70
70
70
70
71
71
71
71
71
71
71
72
72
72
72
72
72
72
73
73
73
73
73
73
74
74
74
74
74
74
74
75
75
75
75
75
75
76
76
77
77
77
77
77
78
78
79
79
79
79
79
79
80
80
80
80
80
80
81
81
81
81
81
81
81
82
82
82
82
82
82
82
82
82
82
82
82
82
82
82
82
82
82
82
82
82
82
82
82
82
82
82
82
82
82
82
82
82
82
83
83
83
82
82
82
83
83
82
82
82
82
82
82
82
82
82
82
82
82
82
82
82
82
81
82
82
82
82
81
81
80
80
80
80
80
80
80
80
80
80
80
80
80
79
80
80
80
80
80
79
79
79
79
79
79
79
79
79
79
79
79
79
78
78
79
79
79
79
79
79
79
80
80
80
80
80
80
80
81
81
81
81
81
81
81
82
81
81
81
81
81
81
81
81
81
80
80
81
81
81
81
81
81
81
81
82
82
82
82
81
81
81
81
81
81
80
80
80
80
80
80
80
79
79
79
79
79
79
79
78
78
78
79
79
79
79
79
79
79
79
79
79
79
79
79
79
79
79
79
78
78
78
79
79
79
78
78
79
79
79
80
80
79
79
80
80
80
81
80
80
80
80
81
81
81
81
81
81
81
82
82
82
82
83
83
84
84
84
85
85
85
85
86
86
86
86
87
87
87
87
88
88
87
87
88
88
88
88
88
88
88
89
89
90
90
90
90
91
91
91
92
92
92
92
93
93
93
93
93
93
92
92
93
92
92
92
91
91
91
91
91
91
91
90
90
90
90
90
89
89
88
88
88
88
87
87
86
86
86
86
86
86
85
85
85
85
85
84
84
84
83
83
83
83
82
82
81
81
81
81
81
81
80
80
80
80
80
80
80
79
79
79
79
79
78
78
78
78
78
78
78
78
77
77
77
77
77
77
76
76
76
76
77
77
77
77
77
77
77
78
78
78
78
78
78
79
79
79
79
79
79
79
79
79
79
79
79
79
80
81
81
82
82
83
85
86
88
89
90
92
94
96
98
100
102
104
106
109
111
113
116
118
119
121
123
124
126
127
128
128
129
130
131
133
134
134
134
133
132
129
126
122
117
112
105
98
90
80
70
59
46
34
20
6
-7
-23
-38
-53
-67
-81
-95
-108
-121
-133
-144
-153
-162
-169
-176
-182
-186
-189
-191
-192
-192
-192
-190
-187
-183
-178
-173
-167
-161
-155
-147
-140
-132
-125
-118
-110
-103
-95
-87
-80
-73
-67
-60
-53
-47
-40
-34
-28
-23
-17
-11
-5
0
5
10
15
20
25
30
34
38
42
46
50
53
56
59
61
63
65
67
69
70
71
72
73
74
74
75
75
76
76
76
76
77
78
78
78
78
79
79
80
80
80
80
80
80
81
81
82
82
82
82
82
83
83
83
83
83
83
84
84
85
85
85
84
84
85
85
85
85
85
84
85
85
85
85
85
85
85
85
85
85
85
85
85
85
85
85
85
85
85
85
85
86
86
86
86
86
86
87
87
87
87
87
87
87
87
87
88
88
87
87
87
88
88
88
88
87
87
87
88
88
88
88
88
88
88
89
89
89
89
89
90
90
90
91
91
91
91
91
92
92
92
92
92
92
92
92
93
92
92
92
92
93
93
93
94
94
94
94
94
95
95
95
95
95
95
95
95
95
95
96
96
96
97
97
97
97
97
98
99
99
99
99
99
100
100
101
101
101
101
101
102
102
102
103
103
103
103
104
104
105
105
105
106
106
106
106
107
107
107
107
108
108
109
109
110
110
110
110
111
111
111
111
111
112
112
113
113
113
113
113
114
114
115
115
115
116
116
116
117
118
118
118
118
119
119
120
120
121
121
121
122
122
123
123
124
124
124
124
125
125
125
125
125
125
125
125
125
125
124
123
123
123
122
122
122
121
120
120
120
120
119
118
118
117
117
117
117
117
116
116
116
116
116
116
116
116
115
115
115
115
114
113
113
112
112
111
110
109
108
107
107
106
105
105
104
103
102
101
100
99
99
98
96
95
95
94
93
92
91
90
89
89
88
88
87
86
86
85
85
85
84
84
83
83
83
83
82
82
82
81
81
81
81
81
80
80
79
79
79
78
78
77
77
76
75
75
74
74
73
72
72
72
72
71
71
70
70
69
69
69
68
68
67
67
67
67
67
66
66
65
65
65
65
65
65
65
65
65
65
65
65
65
64
64
64
64
64
64
64
64
64
64
64
64
64
64
64
64
64
64
64
64
64
64
64
65
65
65
65
65
66
66
66
67
67
67
66
67
67
67
67
67
67
67
67
67
67
67
67
67
67
67
67
67
67
67
67
68
68
68
68
69
69
69
69
70
70
70
70
70
71
71
72
72
73
73
73
74
74
75
75
75
75
75
75
76
76
76
76
76
76
76
76
76
76
76
76
76
76
76
75
75
75
75
75
75
75
75
74
74
74
74
74
74
74
74
74
74
75
75
75
75
75
75
75
75
75
75
75
75
75
75
76
76
76
75
75
75
75
75
75
75
74
74
74
74
74
73
73
73
72
72
72
72
72
72
72
72
72
72
72
71
71
71
71
71
71
70
70
70
70
70
71
71
71
70
70
70
70
71
71
70
70
70
70
70
71
71
70
70
70
70
71
71
71
71
71
71
71
71
71
71
71
70
70
70
70
70
70
69
69
69
69
69
68
68
68
68
68
67
67
67
67
66
66
67
67
67
67
67
67
67
67
67
67
67
67
67
68
68
68
67
67
67
67
67
67
67
66
66
66
66
66
66
66
66
66
66
66
66
66
66
66
65
65
65
65
65
65
65
65
65
65
66
66
66
65
66
66
66
66
66
66
66
66
66
66
66
66
66
66
66
66
66
66
66
66
66
66
67
67
67
67
67
67
67
68
68
68
69
69
70
70
71
71
72
72
73
73
74
74
74
74
74
74
74
74
74
74
74
74
75
75
75
75
76
76
76
77
77
78
78
78
78
78
79
79
79
79
79
79
79
79
79
79
78
78
77
77
77
76
75
75
74
74
74
73
73
72
72
72
71
71
71
70
70
70
69
69
69
68
68
67
67
66
66
66
66
65
64
64
64
63
63
63
62
62
62
62
61
61
61
61
60
60
60
61
60
60
60
60
61
61
61
61
61
61
61
61
61
61
61
60
60
60
60
60
60
59
59
59
59
59
59
59
58
58
58
58
58
58
58
58
58
58
58
58
58
57
57
57
57
57
57
57
57
56
56
56
57
56
56
56
57
57
58
59
60
61
62
64
66
67
69
71
73
74
76
78
80
82
84
86
87
89
91
93
94
95
96
97
97
98
98
99
99
99
99
100
101
101
100
99
97
95
92
88
84
79
73
66
59
50
41
31
19
7
-4
-17
-30
-44
-59
-73
-87
-101
-115
-128
-140
-152
-163
-172
-181
-189
-195
-201
-206
-209
-212
-213
-213
-213
-211
-209
-206
-202
-197
-192
-186
-181
-174
-167
-160
-152
-145
-137
-129
-122
-114
-106
-99
-92
-85
-78
-71
-64
-57
-50
-44
-37
-31
-24
-18
-12
-6
-1
3
8
13
18
22
26
30
33
36
38
41
43
45
47
48
49
50
51
52
53
53
53
54
54
54
54
54
54
54
54
55
55
55
54
54
54
54
54
55
55
55
55
55
56
56
56
56
56
56
57
57
57
58
58
58
59
59
60
60
60
61
61
61
61
62
62
62
61
61
61
61
61
61
61
60
60
60
60
60
60
60
60
60
60
60
60
60
59
59
59
59
60
60
59
59
60
60
60
60
61
61
61
61
62
62
62
62
62
63
63
63
63
64
64
64
64
64
65
65
65
65
65
65
65
66
65
65
65
65
65
65
65
65
65
64
64
65
65
65
65
65
65
65
66
66
66
66
67
67
67
67
68
68
68
68
68
69
69
70
70
70
70
70
71
71
71
71
71
71
71
71
72
72
72
72
72
73
73
73
74
74
74
74
74
75
75
75
76
76
76
76
77
77
77
78
78
78
79
79
80
80
80
80
81
82
82
82
83
83
83
84
85
85
86
86
87
88
88
89
90
90
91
91
92
92
92
92
93
93
93
93
93
93
93
93
93
94
94
94
94
94
94
94
94
95
95
95
95
95
95
95
95
95
95
95
95
95
95
96
96
96
95
96
96
96
96
96
95
95
95
95
95
95
94
94
94
94
93
93
93
92
92
92
91
91
91
90
90
89
89
88
88
87
87
86
85
85
85
84
84
83
82
82
82
81
80
80
79
78
78
77
77
76
75
74
74
73
73
72
71
71
70
69
69
68
68
67
66
65
65
64
64
63
62
61
61
60
60
60
59
59
58
57
57
57
56
56
55
55
54
54
54
53
53
52
52
52
52
51
51
50
50
50
49
49
49
48
48
48
47
47
47
47
47
46
46
46
46
46
46
45
45
45
45
45
44
44
43
43
43
42
42
42
41
41
40
40
40
40
40
40
40
40
40
40
40
40
40
40
40
41
41
41
41
41
41
42
42
42
42
42
42
42
43
43
43
43
43
43
44
44
45
45
45
45
45
46
46
47
47
47
47
48
48
49
49
49
49
48
48
49
49
49
48
48
49
49
49
49
49
49
49
49
49
50
50
50
50
50
50
50
50
51
50
51
51
51
52
52
52
52
52
52
52
53
53
53
53
53
54
54
54
55
55
55
55
56
56
56
56
56
57
57
57
57
58
57
57
57
57
57
57
57
57
57
57
57
57
57
56
56
56
56
56
55
55
55
55
54
54
54
55
54
54
54
54
55
55
55
55
55
55
55
56
56
56
56
56
56
56
56
56
56
55
55
55
55
55
55
55
54
54
54
54
54
53
53
52
52
52
51
51
51
50
50
50
50
50
50
50
50
49
49
49
50
49
49
49
49
49
49
50
50
50
50
50
50
50
50
50
50
50
50
50
50
50
50
50
50
50
51
51
51
51
50
50
51
51
51
51
51
51
51
51
51
51
51
51
51
50
50
50
50
50
50
50
50
50
50
50
50
50
50
50
50
50
49
49
49
49
49
49
49
49
49
49
49
49
49
48
48
47
47
48
48
48
47
47
47
47
47
46
46
46
46
46
46
47
47
47
47
47
47
47
48
48
48
48
48
49
49
49
49
49
49
50
50
50
51
51
51
51
52
52
53
53
53
53
53
54
54
54
55
55
55
55
55
55
56
56
56
55
56
56
56
56
56
56
56
57
57
57
58
58
58
58
58
59
59
59
59
59
59
59
60
59
59
59
58
58
58
58
57
57
57
56
56
56
56
56
55
55
55
54
54
54
54
53
53
53
53
53
52
52
52
51
51
51
51
51
51
50
50
50
50
49
49
48
47
47
47
46
46
45
44
44
43
43
43
42
42
41
41
41
41
41
40
40
40
40
40
40
40
39
39
39
39
40
40
40
40
39
40
40
40
40
40
40
40
40
40
40
40
40
40
40
40
40
40
40
40
40
40
40
40
40
40
40
40
40
40
40
40
39
39
39
39
40
40
41
41
42
43
45
46
47
49
50
52
54
56
58
60
63
65
67
70
72
75
77
78
80
82
83
85
85
86
87
87
88
89
90
90
90
90
89
87
84
81
77
72
66
59
52
44
34
24
12
0
-12
-26
-40
-55
-71
-86
-101
-117
-131
-145
-159
-172
-184
-194
-204
-212
-220
-226
-231
-235
-238
-239
-239
-238
-237
-234
-231
-226
-221
-215
-209
-202
-195
-188
-180
-173
-165
-158
-150
-143
-136
-128
-121
-114
-108
-101
-94
-88
-82
-75
-69
-64
-58
-52
-46
-41
-35
-30
-25
-21
-16
-11
-7
-3
0
4
7
10
14
16
19
21
22
24
26
27
28
29
30
31
32
32
33
33
33
34
34
35
35
35
36
36
36
37
37
38
38
38
39
39
39
39
40
40
40
40
40
41
41
41
41
41
41
41
41
41
41
40
40
40
40
40
40
39
39
39
39
40
40
40
40
40
41
41
41
42
42
42
42
42
43
43
43
44
44
44
44
44
44
44
44
44
44
44
44
44
44
44
44
43
43
44
44
44
44
44
44
44
44
44
45
45
45
45
45
46
46
46
46
46
46
46
46
46
46
46
46
46
46
47
47
47
47
47
47
48
48
48
48
49
49
49
50
50
50
50
51
51
52
52
52
52
53
53
53
53
53
53
53
53
53
53
53
53
53
53
53
53
53
54
54
54
54
54
54
55
55
55
56
56
56
57
57
57
57
57
58
58
59
59
60
60
60
61
61
62
62
62
62
62
63
63
64
64
64
65
65
66
66
67
67
67
67
68
68
69
69
70
70
70
71
71
72
72
72
73
73
74
74
75
75
75
76
76
77
77
77
78
78
78
78
79
79
79
79
79
79
79
80
80
80
80
80
80
80
80
80
80
80
80
80
80
80
80
80
80
80
80
80
80
80
79
79
79
78
78
78
78
77
77
76
76
76
75
75
74
74
73
73
73
73
72
71
71
71
70
70
69
68
67
67
66
66
65
64
63
62
62
61
61
60
59
58
58
57
57
56
55
54
53
53
52
52
51
50
49
49
48
48
47
47
46
45
45
44
44
43
42
41
41
40
40
39
39
38
37
36
36
35
35
34
34
33
33
32
32
31
30
30
29
29
28
28
28
27
26
26
26
25
25
25
24
24
24
24
24
24
24
23
23
23
23
24
24
24
24
24
24
24
25
25
24
24
24
25
25
25
24
24
24
24
24
24
24
24
23
23
23
23
23
23
23
23
23
23
24
24
24
24
24
24
25
25
26
26
26
26
26
26
27
27
27
27
27
27
27
27
27
26
26
26
26
26
26
26
26
26
26
27
27
27
27
27
28
28
29
29
29
29
29
29
30
30
30
30
30
30
31
31
31
31
31
31
32
32
33
33
33
33
33
33
34
34
34
34
34
34
34
35
35
35
35
35
35
35
35
35
35
35
35
34
35
35
35
34
34
34
35
35
35
35
35
35
35
35
35
35
35
35
35
35
35
35
35
34
34
34
34
34
34
34
34
34
34
34
34
34
33
33
33
33
33
33
33
32
32
32
33
33
33
33
33
33
33
33
33
33
33
33
33
33
33
33
33
33
33
33
33
33
33
33
33
32
32
32
32
32
32
32
32
32
32
33
33
32
32
32
32
32
32
32
31
31
31
31
30
30
30
29
29
28
28
28
28
28
27
27
27
27
28
28
28
27
28
28
28
28
28
28
28
28
28
28
28
28
28
28
28
28
29
29
29
28
29
29
29
29
29
29
28
28
28
28
27
27
27
27
27
27
27
27
26
26
26
26
26
26
26
26
26
27
27
27
27
27
27
27
28
28
28
28
28
28
28
29
29
29
28
28
28
28
28
28
28
27
27
27
27
27
27
27
27
27
27
28
28
28
28
28
28
28
29
29
29
29
29
30
30
30
30
31
31
30
31
31
31
31
31
31
31
30
31
31
31
31
31
31
31
32
32
33
33
33
33
34
34
34
34
34
34
34
35
35
35
34
34
34
34
34
34
34
33
33
33
33
33
34
34
34
35
35
36
36
37
37
37
38
39
39
40
40
40
41
41
41
41
41
41
41
40
40
40
40
39
39
39
39
39
39
38
38
38
38
37
38
37
37
37
36
36
36
36
36
35
35
34
34
34
34
34
34
34
33
33
33
33
33
32
32
32
31
31
31
31
30
30
30
29
29
29
29
28
28
28
28
28
27
27
27
27
26
26
26
26
26
26
26
26
26
26
26
26
25
25
25
25
25
25
25
25
25
25
25
25
25
25
25
25
26
26
26
26
26
26
26
27
27
27
27
27
27
27
27
27
27
28
28
29
31
32
33
34
35
37
38
40
42
44
46
48
50
53
55
58
60
62
65
67
69
71
73
74
76
77
78
80
81
82
84
