# Simple Text Format
# Sampling Rate (Hz):= 1200.00
# Resolution:= 12
# Labels:= ECG	III
# Age:=	58
# Gender:=	Feminino
-2
-1
-1
0
0
0
0
0
0
0
0
0
0
1
1
1
1
0
0
0
0
0
0
0
0
0
0
0
0
0
0
0
0
0
0
0
0
0
0
0
0
0
0
0
0
0
0
0
0
0
0
0
0
0
0
0
0
0
0
0
0
0
0
0
0
0
0
0
0
0
0
1
1
1
2
3
3
3
4
4
4
5
5
5
6
6
6
7
7
7
7
7
7
7
8
8
8
8
8
8
8
8
8
8
8
8
9
9
9
9
9
9
9
9
9
9
9
9
9
9
9
10
10
10
10
10
10
11
11
11
11
11
11
12
12
12
12
12
12
12
12
12
12
11
11
11
11
11
12
12
12
12
12
12
12
12
12
12
12
12
13
13
13
13
13
13
13
13
14
14
13
13
13
13
14
14
14
14
13
13
13
14
14
14
13
13
14
14
14
14
15
15
15
15
15
15
15
15
15
15
15
15
15
15
14
14
14
14
14
14
14
14
14
14
14
14
14
14
14
14
14
14
15
15
15
15
15
16
16
16
17
17
17
18
18
18
18
18
18
18
18
18
18
18
17
17
17
17
17
17
17
17
17
17
17
17
17
17
16
16
15
15
15
14
14
13
14
14
14
14
13
13
13
13
14
14
15
15
16
16
16
17
18
18
18
19
19
20
20
20
20
20
20
21
21
21
21
21
21
21
21
21
22
22
21
22
22
22
22
22
22
22
21
21
21
21
21
20
20
20
19
19
19
19
18
18
18
17
17
17
17
17
16
16
16
16
16
16
16
16
16
16
17
17
17
17
18
18
19
19
20
20
20
21
22
23
23
23
23
24
24
24
24
24
24
24
24
24
24
24
24
24
24
24
24
24
24
24
24
24
24
24
24
24
24
24
24
24
24
24
24
24
24
24
25
25
25
25
24
24
25
25
25
26
26
26
26
26
27
27
27
27
27
27
27
27
27
27
27
27
26
26
26
25
25
24
24
24
23
23
23
23
22
22
22
22
22
22
22
22
22
22
22
22
21
21
21
21
21
21
21
21
20
20
20
20
20
19
19
18
18
18
17
17
16
16
15
15
16
16
15
15
15
15
15
16
16
16
16
16
17
17
18
19
19
20
21
22
22
23
23
24
24
25
25
26
26
26
26
25
26
26
26
26
26
25
25
26
26
26
26
26
26
27
27
27
27
27
27
28
28
28
28
28
28
28
28
29
29
29
29
29
29
29
29
30
30
30
30
30
30
31
31
31
31
31
31
32
32
32
32
32
32
32
32
33
33
33
33
33
33
34
34
35
36
37
39
40
42
45
47
49
51
54
57
60
63
66
69
72
75
79
81
84
86
87
89
90
90
91
90
89
89
88
87
86
84
81
78
74
68
62
55
46
36
26
14
2
-11
-25
-41
-58
-75
-93
-112
-131
-151
-171
-191
-210
-229
-247
-265
-281
-296
-310
-322
-333
-343
-351
-358
-363
-367
-370
-371
-372
-371
-369
-365
-361
-355
-349
-341
-333
-325
-316
-307
-297
-287
-277
-267
-257
-247
-237
-227
-217
-208
-198
-189
-180
-171
-161
-152
-144
-135
-126
-118
-109
-100
-91
-82
-74
-66
-58
-50
-43
-36
-30
-23
-18
-12
-7
-3
0
4
7
10
13
16
18
20
21
22
24
25
26
27
28
29
29
30
31
31
31
31
32
32
33
33
34
34
34
35
35
36
36
36
37
37
37
38
38
39
39
39
40
40
40
41
41
41
41
41
41
41
41
41
41
41
41
41
41
41
40
40
40
41
41
42
42
43
43
43
43
44
44
44
44
44
45
45
45
46
45
45
45
45
45
45
45
45
45
45
45
45
45
45
45
45
45
45
45
45
45
44
44
44
45
45
45
45
45
45
45
46
46
46
46
46
47
47
47
48
47
47
47
47
47
47
47
47
47
47
46
46
46
46
45
45
44
44
44
44
43
42
42
42
42
42
42
41
41
41
42
42
42
42
42
41
41
41
41
42
42
42
42
43
43
44
44
45
45
45
46
46
47
47
48
48
48
48
49
49
49
49
49
50
50
50
50
50
50
50
50
50
50
50
50
51
51
51
52
53
53
53
53
54
54
55
55
55
55
55
56
56
56
56
55
55
55
54
54
54
53
53
53
53
53
53
53
53
52
52
53
53
53
53
53
53
53
53
54
54
53
53
53
52
52
52
52
52
51
51
51
51
51
50
50
50
50
50
50
50
50
49
49
50
50
50
50
50
49
49
49
49
48
48
47
46
45
45
45
44
43
42
42
41
40
40
39
39
38
37
37
37
36
36
35
35
35
34
34
34
34
33
33
33
33
33
33
32
32
32
32
32
32
32
32
32
32
32
32
32
32
32
32
32
33
33
33
34
34
34
34
35
35
35
36
36
36
36
36
37
37
36
36
36
37
37
38
38
38
38
38
38
38
37
37
37
37
38
38
38
38
38
38
38
39
39
40
40
40
40
40
41
41
41
41
41
41
40
41
41
40
40
40
40
40
40
40
40
40
39
40
40
40
40
40
40
40
41
41
41
41
41
41
42
42
42
42
43
43
43
43
43
44
43
43
43
43
43
43
43
43
43
43
43
44
44
44
44
44
44
44
45
45
45
45
45
45
46
46
47
47
47
47
48
49
50
50
51
51
51
52
52
52
52
52
52
52
53
53
54
54
54
54
55
55
56
56
56
57
57
58
59
60
60
61
61
62
63
63
64
64
65
65
66
66
66
66
66
66
66
67
67
67
67
67
67
67
67
67
67
67
66
66
66
66
67
67
67
67
67
68
68
68
69
69
69
69
69
69
69
69
69
69
69
69
69
69
69
69
69
69
69
69
69
69
69
69
69
70
70
70
70
71
71
71
72
72
73
73
73
74
74
75
75
75
75
75
76
76
76
76
76
76
76
77
77
77
77
77
76
76
76
76
76
76
76
76
76
76
76
77
77
77
78
78
78
79
79
79
79
80
80
81
81
81
81
82
82
82
83
83
83
83
83
84
84
84
85
85
85
85
86
86
86
86
86
86
86
86
86
86
85
85
85
85
85
85
85
85
85
85
85
85
85
85
85
85
86
86
86
86
87
87
87
88
88
89
89
90
90
91
91
92
92
92
93
93
93
94
94
94
94
94
94
94
94
94
94
94
94
94
94
94
94
94
94
94
94
94
95
95
95
95
96
96
97
97
97
98
98
99
100
100
101
101
101
101
102
102
102
102
102
102
103
103
103
103
103
103
102
102
103
102
102
102
102
102
102
102
102
102
102
102
103
103
104
104
105
106
106
107
108
109
110
110
110
111
111
112
112
112
112
112
112
112
112
112
111
111
110
110
109
109
108
108
107
107
107
107
107
107
107
107
107
108
108
109
109
109
109
110
110
111
111
112
112
112
113
113
113
113
113
113
113
113
113
113
113
113
112
112
113
112
112
112
112
111
111
111
111
111
111
110
111
111
112
112
113
113
113
114
115
115
116
116
117
117
118
119
119
120
120
120
120
120
121
121
121
120
120
121
121
122
122
122
122
122
122
123
123
124
124
124
125
126
126
127
128
128
129
129
130
131
131
131
131
131
132
132
133
133
133
133
134
134
135
135
135
135
136
136
136
137
137
137
137
137
137
137
137
137
137
137
138
139
139
140
141
142
144
145
148
150
152
154
157
159
162
165
168
171
174
177
180
183
187
189
192
194
195
197
198
198
198
198
197
196
195
194
192
190
188
185
181
177
171
164
156
147
137
127
115
102
88
73
57
41
24
6
-11
-30
-49
-68
-86
-105
-122
-139
-156
-171
-185
-197
-208
-218
-226
-233
-239
-244
-248
-250
-251
-251
-249
-247
-243
-238
-233
-226
-219
-211
-203
-194
-185
-175
-166
-156
-146
-136
-126
-115
-104
-94
-85
-75
-65
-55
-46
-37
-28
-19
-10
0
8
17
26
34
43
51
59
68
75
82
89
96
102
108
114
119
123
127
131
134
137
140
143
145
147
148
150
151
152
153
154
155
156
157
159
160
161
161
162
163
164
165
166
167
167
168
169
170
171
171
172
172
173
174
174
174
174
174
174
174
175
175
175
174
174
174
174
174
174
174
174
174
175
175
176
177
177
178
178
179
180
181
182
182
183
183
184
184
185
185
184
184
185
185
185
185
185
185
185
185
186
186
186
186
186
186
187
187
187
188
188
188
189
189
190
190
190
190
190
190
190
190
190
190
190
190
190
191
191
191
190
190
190
191
191
191
191
191
191
192
192
192
192
192
193
193
193
193
193
193
193
193
193
194
194
194
194
194
194
195
195
195
195
195
195
195
195
195
196
196
196
196
196
197
197
198
198
198
198
198
199
199
199
200
200
200
201
201
202
202
202
202
203
204
204
205
205
205
206
206
207
208
208
208
208
208
209
209
209
209
209
209
209
209
209
209
209
209
209
209
209
209
209
209
209
209
209
209
210
210
209
210
210
210
210
211
211
211
211
212
213
213
214
214
214
214
215
216
216
217
217
218
218
219
219
220
220
220
220
220
220
220
220
220
220
220
220
219
219
219
218
218
218
218
218
218
218
217
217
217
217
217
216
216
215
215
214
214
214
213
212
212
211
211
210
210
209
208
208
207
207
206
206
205
204
204
204
203
203
202
202
201
201
201
201
200
200
199
199
199
199
199
199
199
198
198
198
198
197
197
197
196
196
196
196
197
197
197
197
198
198
198
199
199
199
200
200
201
201
201
202
202
203
203
204
204
204
204
204
205
205
205
205
204
204
204
203
204
203
203
203
202
202
202
202
203
202
202
202
202
202
202
202
202
202
202
202
202
202
202
202
202
202
202
202
202
203
202
203
203
204
204
205
205
205
206
206
207
208
208
208
208
209
210
210
211
211
211
211
211
211
211
210
210
210
209
209
208
208
207
206
206
205
205
205
205
205
205
205
205
205
206
206
206
207
207
208
208
209
210
210
210
211
211
212
212
212
212
212
212
213
213
212
212
212
212
212
212
212
212
212
212
213
213
213
214
214
214
214
215
215
216
216
216
216
216
216
217
217
217
217
217
217
217
218
218
218
218
218
219
219
219
219
219
219
219
219
220
220
220
220
219
220
220
220
220
219
219
219
219
219
219
219
219
218
218
218
218
218
218
217
217
217
217
217
217
216
216
216
216
216
216
215
215
215
214
214
215
215
215
214
214
214
214
214
214
214
214
214
214
215
215
215
215
215
215
215
215
215
215
215
215
215
215
216
216
216
215
215
215
215
215
215
215
214
214
214
213
213
213
212
212
212
212
211
211
211
210
210
210
210
210
209
209
209
209
209
209
210
210
209
209
210
210
210
210
210
210
210
210
211
211
211
210
210
210
210
210
210
209
209
209
209
209
209
209
208
208
208
208
207
207
207
206
206
205
205
205
205
205
204
204
204
203
203
203
203
203
203
203
204
204
204
204
204
204
204
204
205
205
204
204
205
205
205
205
205
204
204
204
204
204
204
204
203
203
203
203
203
202
202
202
202
201
201
201
201
201
200
200
201
201
200
200
200
200
199
199
199
199
198
198
198
198
197
197
197
197
196
196
197
197
196
196
196
196
196
196
197
197
196
196
196
197
197
197
197
196
196
196
195
195
194
193
192
192
191
191
191
190
190
190
190
189
189
189
189
189
189
190
190
191
191
191
191
191
191
191
191
191
190
190
190
190
190
189
189
188
188
187
187
187
186
185
185
184
183
183
182
182
181
181
181
181
180
180
180
179
179
179
179
179
179
179
179
179
179
180
180
180
180
180
180
180
180
181
181
181
181
181
182
182
182
182
182
182
182
183
183
183
183
183
183
184
184
184
184
183
183
183
183
183
183
182
182
182
181
181
181
181
181
181
181
181
181
181
181
181
180
181
181
181
181
180
180
180
179
179
179
178
178
177
177
177
176
176
176
175
175
175
175
176
176
177
178
179
180
182
183
185
187
189
191
194
197
200
203
206
208
211
214
217
219
221
222
223
224
224
224
223
222
220
219
217
215
213
210
206
201
195
188
181
172
162
151
139
126
112
97
81
65
47
29
11
-7
-26
-46
-65
-84
-102
-120
-137
-153
-167
-181
-193
-203
-212
-220
-226
-231
-235
-237
-239
-238
-237
-235
-231
-227
-221
-214
-207
-200
-192
-183
-174
-165
-155
-146
-136
-127
-117
-108
-98
-88
-79
-70
-61
-52
-44
-35
-26
-18
-10
-2
5
14
22
30
38
45
53
60
68
75
81
87
93
98
103
108
113
116
120
123
125
128
130
132
134
135
136
137
138
139
140
140
141
141
142
142
143
143
143
143
143
144
144
145
145
145
145
146
146
146
147
147
147
147
147
148
148
148
148
148
147
147
147
147
147
147
146
146
146
145
145
145
144
144
144
144
143
143
142
142
141
141
141
140
140
140
139
139
139
139
139
139
138
138
138
138
138
137
137
137
136
136
136
136
136
135
135
135
135
135
135
134
134
134
134
134
133
133
133
132
132
132
132
132
131
131
130
130
130
130
130
130
130
129
130
130
130
130
129
129
129
129
129
129
129
129
129
128
128
128
128
127
127
127
126
127
126
126
126
125
125
125
125
125
125
125
125
125
125
125
125
125
125
125
126
126
127
127
127
126
126
126
127
127
127
126
126
126
126
126
126
126
125
125
125
125
125
124
124
124
123
123
123
122
122
122
121
121
121
121
121
121
120
120
120
121
121
121
120
120
120
120
120
120
119
119
119
119
119
119
118
118
118
117
117
116
116
115
115
114
114
114
114
114
113
113
112
112
112
112
112
112
112
112
112
112
112
112
112
111
111
111
111
111
111
110
110
110
109
109
109
108
108
107
107
106
106
106
105
104
103
103
102
102
101
100
100
99
99
99
98
98
97
97
97
97
96
96
95
94
94
93
93
92
92
91
90
89
89
88
88
87
86
85
85
84
84
83
83
82
81
81
81
80
80
79
78
78
78
78
78
77
76
76
76
76
75
75
74
74
73
73
73
72
72
71
70
70
70
69
69
69
69
69
69
69
69
69
69
69
69
69
69
69
69
69
69
70
70
70
70
70
70
69
69
69
69
69
68
68
67
67
67
67
66
65
65
65
65
64
64
64
64
63
63
63
62
62
62
61
61
60
60
59
59
58
58
58
58
58
57
57
56
56
56
56
56
55
55
54
54
54
53
53
52
52
51
51
50
50
50
49
49
49
49
49
49
48
48
48
48
48
48
48
48
48
48
48
48
48
48
48
48
47
47
47
47
47
47
46
46
46
46
46
45
45
45
45
45
44
44
44
44
43
43
43
43
43
42
42
42
41
41
41
41
41
40
40
40
41
41
41
41
42
42
42
43
43
43
44
44
44
45
45
45
45
45
45
45
46
46
46
46
46
46
46
46
46
46
45
45
45
45
45
45
44
44
44
44
44
44
44
43
43
43
44
44
43
43
43
43
43
43
43
43
42
42
42
42
42
41
41
40
40
40
40
39
39
39
38
38
37
37
37
36
36
35
35
35
35
35
35
34
34
34
34
34
34
33
33
33
33
33
33
33
32
32
32
32
32
31
31
31
30
30
30
29
29
28
27
27
26
26
26
25
25
24
24
24
24
24
23
23
23
23
23
23
23
23
23
24
24
24
25
25
25
25
25
26
26
26
26
26
26
26
26
26
26
25
25
25
24
24
24
24
23
22
22
22
21
21
20
20
19
19
19
18
18
17
17
16
16
16
16
16
15
15
15
15
15
15
15
15
15
16
16
16
16
16
16
16
16
16
16
16
15
15
15
15
15
15
14
14
14
14
14
14
14
14
13
13
13
13
14
13
13
13
13
13
14
14
13
13
13
12
12
12
12
12
11
11
11
10
10
10
9
9
9
9
8
8
8
7
7
7
7
7
6
6
6
5
5
5
5
5
5
4
4
4
4
4
4
4
3
3
3
3
2
2
1
0
0
0
0
-1
-1
-2
-2
-3
-3
-4
-4
-5
-5
-5
-5
-5
-6
-6
-6
-7
-7
-7
-8
-8
-8
-8
-8
-8
-8
-8
-8
-8
-8
-8
-7
-7
-7
-7
-7
-7
-7
-7
-7
-7
-7
-8
-8
-8
-8
-9
-9
-10
-10
-11
-11
-11
-11
-12
-12
-12
-12
-12
-12
-12
-12
-12
-11
-11
-10
-10
-9
-9
-9
-8
-8
-7
-7
-7
-7
-7
-7
-7
-7
-7
-8
-8
-8
-8
-8
-9
-9
-9
-9
-9
-9
-9
-10
-10
-11
-11
-11
-12
-12
-12
-13
-13
-13
-13
-13
-13
-13
-13
-14
-14
-14
-14
-14
-14
-14
-14
-14
-13
-13
-13
-13
-12
-12
-12
-11
-11
-11
-11
-11
-10
-10
-10
-10
-10
-9
-9
-8
-7
-6
-5
-4
-3
-1
0
2
4
7
9
12
15
18
22
25
27
30
32
35
37
38
39
40
40
39
39
38
37
36
34
32
30
27
23
17
10
3
-5
-15
-25
-37
-50
-63
-78
-94
-110
-127
-145
-164
-183
-202
-222
-241
-260
-279
-298
-315
-332
-347
-361
-374
-386
-396
-406
-413
-419
-424
-427
-430
-431
-431
-429
-426
-422
-418
-412
-405
-398
-390
-381
-372
-363
-353
-344
-334
-323
-313
-303
-294
-284
-274
-265
-255
-246
-237
-229
-220
-212
-203
-195
-186
-178
-170
-161
-153
-145
-137
-129
-122
-115
-108
-101
-95
-89
-84
-79
-74
-70
-66
-63
-59
-56
-54
-52
-49
-47
-46
-44
-43
-42
-41
-39
-38
-37
-37
-36
-35
-35
-35
-34
-34
-34
-34
-34
-34
-34
-33
-33
-34
-34
-34
-34
-34
-34
-34
-35
-35
-35
-35
-35
-34
-35
-35
-35
-35
-34
-34
-34
-33
-33
-33
-32
-32
-31
-31
-31
-31
-31
-31
-30
-30
-30
-30
-30
-30
-30
-30
-30
-30
-31
-31
-31
-31
-31
-32
-32
-33
-33
-33
-34
-34
-34
-34
-35
-35
-35
-35
-34
-34
-35
-35
-34
-34
-34
-34
-34
-34
-34
-34
-34
-34
-34
-34
-35
-35
-35
-36
-36
-37
-37
-37
-38
-38
-38
-38
-39
-39
-39
-39
-39
-39
-39
-39
-39
-39
-39
-38
-38
-38
-38
-38
-37
-37
-37
-37
-37
-38
-38
-38
-38
-38
-38
-39
-39
-39
-39
-39
-39
-39
-39
-39
-39
-39
-39
-39
-39
-39
-39
-39
-39
-39
-39
-39
-39
-39
-39
-39
-39
-40
-40
-40
-40
-40
-40
-41
-41
-41
-41
-42
-41
-41
-42
-42
-42
-42
-42
-42
-42
-42
-42
-42
-42
-41
-41
-41
-41
-41
-40
-40
-40
-39
-39
-39
-39
-39
-38
-38
-37
-37
-37
-37
-37
-36
-36
-36
-36
-37
-37
-37
-37
-38
-38
-39
-39
-39
-39
-40
-40
-40
-41
-41
-41
-41
-42
-42
-43
-43
-43
-44
-44
-44
-44
-45
-45
-45
-45
-45
-45
-46
-46
-46
-47
-47
-47
-47
-47
-48
-48
-48
-48
-48
-48
-49
-49
-49
-50
-50
-50
-50
-51
-51
-51
-51
-51
-52
-52
-53
-54
-54
-55
-55
-56
-56
-57
-58
-58
-59
-59
-60
-61
-62
-62
-63
-63
-64
-65
-66
-67
-67
-67
-68
-68
-69
-69
-70
-70
-70
-70
-70
-71
-71
-71
-71
-71
-72
-72
-72
-73
-73
-73
-73
-73
-73
-74
-73
-73
-73
-73
-74
-74
-74
-74
-74
-73
-73
-73
-73
-73
-73
-72
-72
-72
-73
-73
-72
-72
-72
-72
-72
-72
-72
-72
-71
-71
-72
-72
-72
-73
-73
-73
-73
-73
-74
-74
-75
-75
-75
-75
-76
-76
-77
-77
-77
-77
-77
-78
-78
-78
-78
-78
-78
-78
-78
-78
-78
-78
-78
-78
-77
-78
-78
-78
-77
-77
-78
-78
-78
-79
-79
-79
-78
-79
-79
-79
-79
-79
-78
-78
-78
-78
-78
-78
-77
-77
-77
-77
-77
-77
-76
-76
-76
-75
-75
-75
-75
-74
-74
-73
-73
-73
-73
-72
-72
-71
-71
-71
-71
-71
-71
-71
-71
-71
-71
-71
-71
-71
-71
-71
-71
-72
-72
-72
-72
-72
-72
-72
-73
-73
-73
-73
-73
-73
-73
-73
-73
-73
-73
-73
-73
-73
-73
-72
-72
-71
-71
-70
-70
-70
-69
-69
-68
-68
-68
-67
-67
-67
-66
-66
-66
-66
-66
-66
-66
-66
-67
-67
-68
-68
-68
-69
-69
-70
-71
-72
-72
-73
-73
-74
-74
-75
-76
-76
-77
-77
-78
-78
-78
-79
-79
-79
-79
-79
-79
-79
-79
-78
-77
-77
-76
-76
-76
-76
-75
-75
-75
-74
-74
-74
-74
-74
-74
-75
-75
-75
-76
-76
-76
-76
-77
-78
-78
-78
-78
-79
-79
-79
-80
-80
-80
-80
-80
-81
-81
-81
-81
-81
-81
-81
-81
-81
-81
-81
-81
-81
-81
-81
-82
-82
-82
-82
-82
-82
-82
-82
-82
-82
-82
-82
-82
-82
-83
-82
-82
-82
-82
-82
-82
-83
-83
-82
-82
-82
-83
-83
-83
-83
-83
-83
-83
-83
-83
-83
-83
-82
-82
-82
-83
-83
-83
-82
-82
-83
-83
-83
-83
-83
-83
-83
-83
-83
-83
-83
-83
-84
-84
-84
-85
-85
-86
-86
-86
-86
-86
-86
-86
-86
-86
-86
-86
-86
-86
-86
-86
-85
-85
-85
-85
-85
-85
-84
-84
-84
-84
-84
-83
-83
-83
-83
-83
-83
-83
-83
-83
-83
-83
-83
-84
-84
-84
-84
-84
-84
-85
-85
-85
-85
-85
-85
-85
-86
-86
-86
-86
-86
-86
-86
-86
-86
-86
-86
-86
-86
-86
-86
-86
-86
-86
-86
-86
-86
-87
-87
-86
-86
-86
-86
-87
-87
-87
-86
-86
-86
-86
-86
-86
-86
-86
-86
-86
-86
-86
-86
-85
-85
-86
-86
-86
-87
-87
-87
-87
-88
-88
-89
-89
-89
-89
-89
-90
-90
-90
-90
-90
-90
-90
-91
-91
-91
-91
-91
-91
-91
-91
-91
-91
-91
-91
-91
-91
-91
-91
-91
-91
-91
-91
-91
-91
-91
-91
-91
-91
-92
-92
-93
-93
-93
-93
-94
-94
-94
-95
-95
-95
-95
-95
-95
-96
-96
-96
-96
-95
-95
-95
-95
-95
-95
-95
-95
-95
-95
-95
-95
-94
-94
-94
-94
-94
-93
-93
-93
-92
-92
-92
-91
-90
-90
-89
-89
-88
-88
-88
-88
-87
-87
-87
-87
-88
-88
-88
-88
-89
-89
-90
-90
-90
-90
-91
-91
-91
-91
-91
-91
-90
-90
-90
-89
-89
-88
-87
-86
-86
-85
-84
-84
-83
-82
-82
-81
-80
-80
-80
-79
-79
-78
-78
-78
-78
-77
-76
-75
-73
-72
-71
-69
-67
-65
-63
-61
-58
-56
-53
-50
-47
-44
-42
-39
-37
-35
-33
-32
-31
-30
-30
-31
-31
-32
-33
-35
-36
-38
-41
-43
-47
-51
-57
-64
-72
-81
-90
-101
-113
-126
-140
-154
-170
-186
-203
-220
-239
-258
-277
-296
-315
-334
-352
-370
-387
-404
-419
-432
-445
-456
-466
-475
-482
-488
-493
-496
-498
-499
-499
-497
-494
-490
-485
-479
-472
-464
-455
-446
-436
-426
-416
-405
-395
-384
-373
-362
-351
-341
-331
-321
-311
-301
-292
-282
-273
-265
-256
-247
-238
-229
-220
-212
-203
-195
-187
-179
-172
-165
-158
-152
-145
-139
-134
-130
-125
-121
-118
-114
-111
-109
-106
-104
-102
-101
-99
-97
-96
-95
-94
-93
-92
-90
-90
-89
-88
-87
-86
-86
-85
-84
-84
-83
-83
-82
-81
-81
-80
-80
-80
-80
-80
-80
-80
-80
-80
-80
-80
-80
-80
-81
-81
-81
-81
-81
-81
-81
-81
-81
-82
-81
-81
-81
-81
-81
-81
-81
-81
-81
-80
-80
-80
-80
-80
-80
-80
-79
-79
-79
-79
-79
-79
-78
-78
-79
-79
-79
-79
-79
-79
-79
-79
-80
-80
-80
-80
-80
-80
-80
-80
-80
-80
-80
-80
-80
-80
-80
-80
-80
-80
-79
-79
-79
-79
-78
-78
-78
-78
-78
-78
-78
-78
-77
-78
-78
-78
-78
-78
-78
-78
-78
-78
-78
-78
-78
-78
-78
-78
-78
-78
-78
-78
-77
-78
-78
-78
-78
-78
-78
-77
-78
-78
-78
-78
-78
-78
-78
-77
-78
-78
-78
-77
-77
-77
-77
-78
-78
-78
-78
-78
-78
-78
-78
-78
-78
-78
-78
-78
-78
-78
-77
-77
-77
-77
-76
-76
-76
-75
-75
-74
-74
-74
-74
-73
-73
-73
-72
-72
-72
-72
-72
-72
-72
-73
-73
-74
-74
-74
-75
-75
-76
-77
-77
-78
-78
-78
-78
-78
-78
-77
-77
-76
-76
-76
-75
-75
-74
-73
-73
-72
-71
-71
-70
-69
-69
-68
-67
-67
-66
-66
-66
-66
-65
-65
-65
-66
-66
-66
-66
-66
-66
-67
-67
-67
-68
-68
-68
-68
-69
-69
-69
-69
-70
-70
-71
-71
-72
-72
-73
-73
-73
-74
-74
-74
-75
-75
-75
-76
-76
-77
-77
-77
-77
-78
-78
-79
-79
-80
-80
-80
-81
-82
-82
-83
-83
-84
-84
-85
-86
-86
-86
-87
-87
-87
-88
-88
-89
-89
-89
-89
-90
-90
-90
-90
-90
-90
-90
-90
-91
-91
-91
-91
-91
-92
-92
-92
-92
-93
-93
-93
-93
-93
-94
-94
-94
-94
-94
-94
-94
-94
-94
-94
-94
-95
-95
-95
-95
-95
-95
-95
-95
-95
-95
-95
-95
-94
-94
-94
-94
-94
-94
-93
-93
-93
-93
-93
-93
-93
-93
-93
-93
-94
-94
-94
-94
-94
-94
-95
-95
-95
-95
-95
-95
-95
-95
-95
-95
-95
-95
-95
-95
-95
-95
-95
-94
-94
-94
-93
-93
-93
-93
-92
-92
-92
-91
-91
-91
-91
-91
-91
-91
-91
-91
-91
-91
-90
-90
-90
-90
-90
-90
-90
-89
-89
-89
-89
-89
-89
-89
-89
-89
-88
-88
-88
-88
-87
-87
-87
-87
-87
-86
-86
-85
-85
-85
-85
-84
-84
-84
-83
-83
-83
-83
-83
-83
-83
-83
-83
-83
-83
-83
-82
-82
-82
-82
-82
-82
-82
-81
-81
-81
-81
-80
-80
-80
-79
-79
-79
-79
-80
-80
-79
-79
-80
-80
-80
-81
-81
-81
-81
-82
-82
-82
-82
-82
-82
-81
-81
-81
-81
-80
-80
-79
-79
-78
-78
-78
-77
-77
-76
-76
-76
-75
-75
-74
-74
-74
-73
-73
-73
-73
-73
-73
-73
-73
-73
-74
-74
-74
-74
-75
-75
-76
-76
-77
-77
-77
-77
-77
-78
-78
-78
-78
-78
-78
-78
-78
-78
-77
-77
-77
-77
-76
-76
-76
-75
-75
-75
-75
-75
-75
-75
-75
-75
-75
-75
-76
-76
-76
-76
-76
-77
-77
-77
-77
-77
-77
-77
-77
-78
-77
-77
-77
-77
-77
-77
-77
-76
-76
-76
-75
-75
-75
-75
-75
-75
-75
-75
-75
-75
-75
-75
-75
-75
-75
-75
-75
-75
-74
-74
-74
-75
-75
-75
-75
-74
-74
-74
-74
-74
-74
-74
-74
-75
-75
-75
-76
-76
-76
-76
-76
-77
-77
-77
-77
-77
-77
-77
-77
-77
-77
-77
-77
-77
-77
-77
-77
-77
-77
-77
-77
-77
-77
-77
-77
-77
-76
-76
-76
-76
-76
-76
-75
-75
-75
-75
-75
-75
-75
-75
-75
-75
-75
-75
-75
-75
-75
-75
-76
-76
-76
-76
-76
-76
-76
-76
-77
-77
-77
-77
-77
-77
-77
-76
-76
-76
-76
-76
-76
-75
-75
-75
-74
-74
-74
-73
-73
-73
-73
-72
-72
-72
-72
-72
-71
-71
-71
-71
-72
-72
-73
-73
-74
-75
-76
-76
-77
-77
-77
-78
-78
-79
-80
-80
-80
-80
-80
-80
-81
-81
-81
-80
-80
-80
-80
-80
-80
-80
-79
-79
-79
-79
-79
-79
-79
-79
-79
-79
-79
-79
-79
-79
-79
-79
-79
-80
-80
-80
-81
-81
-81
-81
-82
-82
-82
-82
-82
-82
-82
-82
-82
-81
-81
-81
-81
-80
-80
-80
-80
-79
-79
-79
-79
-78
-78
-78
-78
-78
-78
-78
-78
-78
-78
-78
-78
-78
-78
-78
-78
-78
-78
-78
-77
-77
-77
-76
-75
-74
-74
-74
-73
-72
-72
-72
-71
-71
-71
-71
-70
-70
-70
-70
-69
-69
-69
-69
-69
-69
-69
-69
-69
-69
-69
-69
-69
-69
-70
-70
-70
-70
-70
-71
-71
-71
-72
-72
-72
-72
-72
-72
-72
-71
-70
-69
-68
-66
-65
-63
-61
-59
-56
-54
-51
-48
-45
-42
-39
-36
-33
-30
-28
-25
-23
-21
-20
-20
-20
-20
-21
-22
-24
-26
-28
-30
-33
-36
-39
-44
-50
-57
-65
-74
-83
-94
-105
-118
-132
-146
-161
-177
-194
-212
-230
-248
-267
-286
-305
-323
-341
-359
-375
-390
-404
-417
-429
-439
-448
-456
-461
-465
-469
-471
-471
-471
-469
-465
-461
-456
-450
-443
-436
-428
-419
-411
-402
-392
-382
-372
-362
-351
-341
-331
-320
-310
-300
-289
-279
-269
-259
-250
-240
-230
-220
-210
-201
-193
-184
-176
-167
-159
-152
-145
-138
-132
-126
-120
-115
-110
-106
-103
-99
-96
-93
-91
-89
-88
-86
-85
-84
-83
-82
-81
-81
-80
-80
-79
-79
-78
-78
-78
-77
-77
-76
-76
-76
-76
-76
-76
-75
-75
-74
-74
-74
-73
-73
-73
-72
-72
-72
-71
-71
-70
-70
-69
-69
-68
-68
-68
-67
-67
-66
-66
-66
-65
-65
-65
-64
-64
-64
-64
-64
-63
-63
-63
-63
-63
-63
-63
-63
-62
-62
-63
-63
-63
-62
-62
-62
-63
-63
-63
-63
-63
-64
-64
-64
-64
-65
-65
-65
-65
-66
-66
-66
-66
-66
-66
-66
-66
-66
-66
-66
-66
-66
-66
-66
-66
-66
-66
-65
-65
-65
-65
-64
-64
-64
-63
-63
-63
-63
-63
-63
-62
-62
-62
-62
-62
-63
-63
-63
-63
-63
-63
-63
-63
-64
-64
-63
-64
-64
-64
-64
-64
-64
-64
-64
-64
-64
-64
-64
-64
-64
-64
-64
-64
-64
-64
-64
-64
-64
-64
-64
-64
-64
-64
-64
-64
-64
-64
-64
-64
-64
-64
-64
-64
-64
-63
-63
-62
-62
-62
-62
-61
-61
-61
-61
-61
-60
-60
-60
-59
-59
-59
-59
-59
-58
-58
-58
-57
-57
-57
-57
-56
-56
-56
-55
-55
-55
-55
-54
-54
-54
-54
-54
-54
-53
-53
-53
-53
-53
-53
-53
-53
-53
-53
-53
-53
-54
-54
-54
-54
-54
-55
-55
-55
-56
-56
-56
-56
-56
-57
-57
-57
-57
-57
-57
-57
-57
-57
-57
-56
-56
-57
-57
-57
-57
-56
-56
-56
-56
-56
-56
-56
-57
-57
-57
-58
-58
-58
-58
-58
-59
-59
-60
-61
-61
-61
-62
-62
-62
-63
-63
-63
-64
-64
-65
-65
-66
-66
-66
-66
-66
-67
-67
-67
-68
-68
-68
-68
-68
-69
-69
-69
-69
-69
-69
-69
-70
-70
-70
-70
-70
-70
-70
-70
-69
-69
-69
-68
-68
-68
-67
-67
-66
-66
-65
-65
-65
-65
-64
-64
-64
-64
-64
-64
-64
-64
-64
-64
-64
-64
-64
-64
-64
-65
-65
-65
-65
-65
-66
-66
-66
-66
-66
-66
-66
-66
-66
-66
-66
-66
-65
-65
-65
-65
-65
-65
-65
-65
-65
-65
-65
-66
-66
-66
-66
-66
-66
-66
-66
-67
-66
-66
-66
-66
-66
-66
-66
-66
-66
-65
-65
-65
-65
-65
-64
-64
-64
-63
-63
-63
-63
-63
-63
-62
-62
-62
-63
-63
-63
-63
-63
-63
-63
-63
-62
-62
-62
-62
-62
-62
-62
-61
-61
-61
-61
-61
-62
-62
-61
-61
-61
-61
-61
-61
-60
-60
-60
-60
-60
-60
-60
-59
-59
-59
-58
-58
-58
-58
-57
-57
-57
-57
-56
-56
-56
-55
-55
-54
-54
-54
-54
-53
-53
-53
-53
-53
-53
-53
-53
-52
-52
-52
-52
-52
-51
-51
-51
-51
-51
-51
-51
-50
-50
-50
-50
-50
-50
-50
-50
-50
-50
-50
-50
-50
-50
-50
-50
-50
-50
-50
-50
-49
-49
-49
-49
-49
-49
-49
-49
-48
-48
-48
-48
-47
-47
-46
-46
-46
-46
-45
-45
-45
-45
-44
-45
-45
-45
-45
-45
-45
-45
-45
-46
-46
-46
-46
-46
-46
-46
-47
-47
-46
-46
-46
-46
-46
-47
-47
-46
-46
-46
-46
-46
-46
-46
-46
-45
-45
-45
-45
-45
-45
-45
-45
-45
-45
-45
-45
-45
-45
-45
-46
-46
-46
-46
-46
-46
-46
-46
-46
-46
-46
-46
-46
-46
-47
-47
-47
-46
-46
-46
-46
-46
-46
-46
-46
-45
-45
-45
-45
-45
-44
-44
-44
-44
-44
-44
-44
-44
-44
-44
-44
-44
-44
-43
-43
-43
-43
-43
-43
-42
-42
-42
-41
-41
-41
-41
-41
-41
-40
-40
-40
-40
-40
-39
-39
-39
-39
-39
-39
-39
-38
-38
-38
-38
-38
-38
-39
-39
-38
-39
-39
-39
-39
-39
-40
-40
-40
-40
-40
-40
-40
-40
-41
-41
-41
-41
-41
-41
-41
-41
-41
-42
-41
-41
-41
-41
-41
-41
-41
-41
-40
-40
-40
-39
-39
-39
-39
-39
-39
-39
-39
-39
-39
-39
-39
-38
-38
-38
-38
-38
-38
-38
-38
-38
-38
-38
-37
-37
-37
-37
-37
-37
-36
-36
-36
-36
-36
-36
-37
-37
-37
-37
-37
-37
-37
-37
-38
-37
-37
-37
-37
-37
-37
-37
-37
-36
-36
-36
-37
-37
-36
-36
-37
-37
-38
-38
-38
-39
-39
-40
-40
-41
-42
-42
-42
-43
-43
-43
-43
-43
-43
-43
-43
-43
-43
-43
-43
-43
-43
-43
-43
-43
-42
-42
-42
-42
-42
-42
-42
-42
-42
-41
-41
-41
-41
-41
-41
-41
-40
-40
-40
-40
-40
-39
-39
-38
-38
-38
-38
-37
-37
-36
-36
-36
-36
-36
-35
-35
-35
-35
-35
-35
-35
-35
-35
-34
-34
-34
-34
-34
-34
-34
-34
-34
-34
-34
-34
-34
-33
-33
-33
-33
-33
-33
-33
-32
-32
-32
-32
-32
-31
-31
-31
-31
-31
-31
-31
-31
-31
-31
-31
-31
-30
-30
-30
-30
-29
-29
-29
-28
-27
-25
-24
-23
-21
-19
-17
-15
-13
-10
-8
-5
-2
0
3
7
10
13
16
19
22
24
26
28
29
30
30
30
30
29
28
26
25
23
21
18
14
9
2
-4
-12
-22
-32
-44
-56
-70
-85
-100
-116
-133
-151
-170
-189
-209
-228
-248
-267
-286
-305
-322
-338
-354
-368
-381
-393
-403
-412
-419
-426
-430
-434
-437
-438
-437
-436
-433
-428
-424
-418
-411
-403
-395
-386
-377
-367
-357
-347
-337
-326
-316
-305
-295
-284
-274
-264
-254
-244
-234
-225
-216
-207
-198
-189
-180
-171
-163
-154
-146
-137
-129
-122
-114
-107
-100
-94
-87
-82
-77
-72
-67
-63
-59
-56
-53
-50
-48
-46
-44
-42
-40
-39
-38
-37
-36
-35
-34
-33
-32
-32
-31
-30
-29
-29
-28
-28
-28
-27
-27
-26
-26
-26
-26
-26
-25
-25
-25
-25
-24
-24
-24
-23
-23
-23
-22
-22
-22
-22
-21
-21
-21
-21
-21
-20
-20
-20
-19
-19
-19
-18
-18
-18
-17
-17
-18
-18
-18
-18
-17
-17
-17
-17
-17
-17
-17
-17
-17
-16
-16
-17
-17
-16
-16
-16
-16
-16
-16
-16
-16
-16
-16
-16
-16
-16
-16
-16
-16
-16
-16
-16
-16
-16
-16
-16
-16
-16
-16
-16
-16
-16
-16
-16
-16
-15
-15
-15
-15
-15
-15
-15
-15
-14
-14
-14
-14
-14
-14
-14
-14
-13
-13
-13
-14
-13
-13
-13
-13
-13
-13
-14
-13
-13
-13
-13
-13
-14
-14
-14
-14
-14
-14
-14
-15
-15
-15
-15
-15
-15
-16
-16
-16
-16
-16
-16
-16
-16
-16
-17
-16
-16
-16
-16
-16
-16
-15
-15
-14
-14
-13
-13
-12
-12
-11
-11
-10
-10
-9
-9
-9
-8
-8
-8
-8
-7
-7
-7
-6
-6
-6
-6
-6
-6
-5
-5
-5
-5
-5
-5
-5
-5
-5
-5
-5
-5
-4
-4
-4
-4
-4
-4
-5
-4
-4
-4
-4
-5
-5
-5
-5
-5
-5
-5
-5
-5
-5
-4
-4
-4
-4
-4
-4
-3
-3
-3
-4
-4
-4
-4
-5
-5
-5
-6
-7
-7
-8
-8
-8
-9
-10
-10
-11
-11
-11
-12
-12
-12
-13
-13
-13
-13
-13
-14
-14
-14
-14
-13
-13
-14
-14
-14
-15
-15
-15
-15
-16
-16
-17
-17
-18
-18
-19
-20
-21
-22
-22
-22
-23
-23
-24
-24
-25
-25
-25
-26
-26
-26
-27
-27
-27
-27
-28
-28
-28
-28
-28
-29
-29
-29
-29
-29
-29
-29
-28
-28
-28
-28
-28
-28
-28
-27
-27
-27
-27
-27
-27
-26
-26
-26
-26
-26
-26
-26
-26
-26
-26
-26
-27
-27
-27
-27
-27
-27
-27
-27
-27
-27
-27
-27
-27
-27
-27
-27
-27
-28
-28
-28
-28
-28
-28
-27
-27
-27
-27
-27
-27
-27
-26
-26
-26
-26
-25
-25
-24
-24
-24
-24
-24
-24
-23
-23
-23
-24
-24
-24
-24
-24
-24
-24
-24
-24
-24
-24
-23
-23
-23
-23
-23
-23
-23
-23
-23
-23
-23
-22
-22
-22
-21
-21
-21
-21
-21
-21
-21
-21
-21
-21
-21
-20
-20
-20
-19
-19
-19
-19
-19
-19
-18
-18
-18
-18
-18
-17
-17
-17
-17
-17
-17
-17
-17
-17
-17
-17
-17
-17
-17
-17
-17
-17
-17
-17
-17
-16
-16
-16
-16
-16
-16
-15
-15
-15
-14
-14
-14
-13
-13
-12
-12
-11
-11
-11
-10
-9
-9
-9
-8
-8
-8
-8
-8
-7
-7
-8
-8
-8
-8
-8
-7
-7
-8
-8
-8
-8
-8
-8
-8
-9
-9
-9
-9
-9
-9
-10
-10
-10
-10
-10
-9
-9
-10
-10
-10
-10
-10
-10
-10
-10
-11
-11
-11
-11
-11
-11
-11
-11
-11
-11
-10
-10
-10
-10
-10
-10
-9
-9
-9
-9
-8
-8
-8
-7
-7
-7
-7
-7
-6
-6
-6
-6
-6
-6
-5
-5
-5
-5
-5
-5
-5
-5
-5
-6
-6
-6
-7
-7
-8
-8
-8
-8
-9
-9
-10
-10
-10
-10
-10
-11
-11
-11
-11
-11
-11
-11
-11
-11
-11
-10
-10
-10
-10
-10
-10
-9
-9
-9
-9
-9
-9
-9
-9
-9
-9
-9
-9
-9
-9
-9
-9
-8
-9
-9
-9
-8
-8
-8
-8
-8
-8
-8
-8
-8
-8
-8
-8
-8
-7
-7
-7
-7
-7
-7
-7
-7
-7
-7
-8
-8
-8
-8
-9
-9
-9
-9
-9
-10
-10
-10
-10
-10
-10
-10
-10
-10
-10
-10
-10
-11
-11
-11
-11
-11
-11
-11
-11
-11
-11
-10
-10
-10
-10
-10
-9
-9
-9
-9
-8
-8
-8
-8
-8
-8
-8
-8
-8
-8
-7
-7
-7
-7
-7
-7
-7
-7
-7
-7
-6
-6
-6
-6
-6
-6
-6
-6
-6
-6
-6
-5
-5
-5
-5
-5
-5
-5
-4
-4
-4
-4
-4
-4
-4
-4
-4
-4
-4
-4
-4
-4
-4
-4
-5
-5
-6
-6
-6
-7
-7
-8
-8
-9
-9
-9
-9
-10
-10
-10
-11
-11
-11
-11
-11
-11
-11
-10
-10
-10
-10
-10
-10
-10
-10
-10
-10
-11
-11
-11
-11
-11
-11
-11
-12
-12
-12
-12
-12
-12
-12
-12
-12
-12
-12
-12
-12
-12
-12
-12
-12
-11
-11
-11
-11
-11
-11
-11
-11
-11
-11
-11
-11
-11
-10
-10
-10
-10
-10
-10
-9
-9
-8
-8
-8
-8
-7
-7
-7
-7
-7
-7
-7
-7
-7
-6
-6
-7
-7
-7
-7
-7
-6
-6
-6
-6
-6
-5
-5
-5
-4
-4
-4
-3
-3
-2
-2
-2
-2
-1
-1
0
0
0
0
0
0
1
1
1
1
1
1
1
1
1
1
1
1
1
1
1
1
1
1
2
2
3
4
5
6
8
9
11
13
15
17
19
22
24
27
30
34
37
39
42
44
47
49
51
52
53
53
53
52
52
51
49
48
47
45
42
39
34
29
22
14
5
-3
-14
-26
-39
-53
-68
-84
-100
-118
-137
-156
-176
-195
-215
-235
-254
-273
-292
-309
-325
-340
-354
-366
-377
-387
-395
-401
-406
-410
-413
-414
-414
-413
-410
-405
-400
-394
-388
-380
-371
-362
-353
-344
-334
-324
-314
-303
-293
-282
-272
-262
-252
-242
-232
-223
-213
-204
-195
-186
-177
-168
-160
-151
-142
-134
-125
-116
-108
-100
-92
-85
-78
-71
-64
-58
-52
-47
-42
-37
-33
-29
-26
-23
-21
-19
-17
-15
-13
-12
-11
-10
-9
-8
-7
-6
-6
-5
-5
-4
-3
-2
-1
0
0
0
0
1
2
2
3
3
3
4
4
5
5
5
5
5
5
6
5
5
5
5
5
5
5
5
4
4
4
4
4
5
5
5
5
5
6
6
7
7
7
8
8
8
9
9
9
9
10
10
10
10
10
10
10
10
10
9
9
9
8
8
8
7
7
7
7
7
7
7
7
7
7
7
7
7
8
8
9
9
9
10
10
10
11
11
11
11
11
12
12
12
13
12
12
12
12
13
12
12
12
12
12
11
11
11
11
10
10
10
10
10
10
9
9
8
8
8
8
8
8
7
7
7
7
7
7
7
8
8
8
9
9
9
9
10
10
11
11
11
11
11
11
11
11
11
11
11
11
11
11
11
11
11
11
11
11
12
12
12
12
13
13
13
13
13
13
13
13
13
14
14
14
14
13
13
14
14
14
13
13
13
13
13
13
13
13
13
13
13
14
14
14
14
14
14
14
14
14
14
14
14
14
14
14
14
14
14
13
13
13
13
13
13
12
12
12
12
12
11
11
10
10
9
9
9
8
8
8
8
8
8
8
8
8
7
8
8
8
8
7
7
7
7
8
7
7
7
6
6
6
6
6
5
4
4
3
3
2
2
1
0
0
0
0
-1
-2
-3
-3
-4
-4
-4
-5
-5
-5
-5
-5
-5
-6
-6
-6
-6
-6
-6
-6
-6
-7
-7
-7
-7
-8
-8
-8
-8
-9
-9
-9
-9
-10
-10
-11
-11
-11
-12
-12
-12
-12
-12
-12
-12
-11
-11
-11
-11
-11
-11
-11
-10
-10
-10
-10
-11
-11
-11
-11
-11
-11
-11
-11
-11
-11
-11
-11
-11
-12
-12
-12
-12
-12
-12
-12
-13
-13
-13
-12
-12
-13
-13
-13
-13
-13
-13
-13
-14
-14
-14
-13
-13
-13
-13
-13
-13
-13
-13
-13
-12
-12
-12
-12
-12
-12
-11
-11
-11
-11
-10
-10
-10
-10
-10
-10
-10
-10
-9
-9
-9
-9
-10
-10
-10
-10
-9
-9
-10
-10
-10
-10
-10
-10
-10
-10
-11
-11
-10
-10
-10
-10
-10
-9
-9
-9
-8
-8
-7
-7
-6
-5
-5
-4
-4
-4
-3
-3
-2
-2
-1
-1
-1
-1
0
0
0
0
0
0
0
0
1
1
1
0
0
0
0
0
0
0
0
-1
-1
-1
-2
-2
-2
-3
-3
-3
-3
-3
-3
-2
-2
-2
-2
-2
-1
-1
-1
0
0
0
0
1
1
1
1
2
2
2
2
2
2
2
1
1
1
1
0
0
0
0
0
0
0
0
0
0
0
0
0
0
0
0
0
1
1
1
1
1
1
1
1
2
2
1
2
2
2
2
3
2
2
2
2
2
2
2
2
2
3
3
3
3
3
3
3
3
3
3
3
3
3
2
2
2
2
2
1
1
1
1
1
1
0
0
0
0
0
0
0
0
0
0
0
1
1
1
1
1
1
2
2
2
2
2
2
3
3
3
3
3
3
3
3
3
3
3
2
2
2
3
3
3
3
3
3
3
3
3
3
3
2
2
2
2
2
2
2
2
2
2
2
2
1
1
1
1
1
1
1
1
1
1
2
2
2
2
3
3
3
4
4
4
5
5
5
6
6
6
6
6
6
6
6
7
7
6
6
6
6
6
5
5
5
4
4
3
3
3
3
3
2
2
2
2
2
2
1
2
2
2
3
3
3
3
4
4
5
5
6
6
6
6
7
7
7
7
7
7
7
7
7
6
6
5
5
5
4
4
3
3
3
2
2
2
2
1
1
1
1
1
2
2
2
2
1
2
2
2
1
1
1
1
2
2
2
2
2
2
2
2
3
3
3
3
3
4
4
5
5
4
4
4
4
4
4
4
3
3
3
3
3
3
2
2
2
2
2
2
2
2
2
2
3
3
3
3
4
4
4
4
5
5
5
5
5
6
6
7
7
7
7
7
7
7
7
7
7
7
7
7
8
8
8
7
7
8
8
8
8
8
8
8
9
9
9
10
10
10
11
12
12
13
13
13
14
14
15
15
15
15
15
14
15
15
14
14
14
13
13
13
13
13
13
13
13
13
14
15
16
17
18
20
22
24
26
28
30
33
35
38
42
45
48
51
53
56
59
61
62
64
64
65
65
64
63
62
60
58
56
54
51
48
43
38
31
24
16
6
-3
-14
-26
-40
-54
-69
-85
-102
-120
-138
-156
-175
-194
-213
-232
-250
-268
-285
-300
-315
-329
-341
-352
-361
-369
-375
-380
-383
-386
-387
-386
-385
-381
-377
-372
-366
-359
-352
-343
-335
-325
-316
-306
-296
-285
-274
-263
-252
-242
-231
-220
-209
-198
-188
-178
-168
-158
-148
-138
-128
-119
-110
-101
-92
-84
-75
-67
-60
-53
-47
-40
-34
-29
-24
-19
-15
-11
-8
-5
-2
0
1
3
5
6
8
9
9
10
11
12
13
14
14
15
15
16
16
17
17
17
18
18
18
18
19
19
19
19
19
19
19
20
20
20
20
20
21
21
21
21
21
22
22
22
22
23
23
23
23
23
24
24
25
25
25
25
25
26
26
26
26
25
25
25
25
25
25
24
24
24
24
24
24
24
23
23
23
23
23
23
23
23
22
22
23
23
22
22
22
23
23
23
23
23
23
24
24
25
25
26
26
26
27
27
27
28
28
28
28
29
29
29
29
29
29
28
28
28
28
28
27
27
26
26
26
26
25
25
24
24
24
24
24
24
23
23
24
24
24
24
24
24
24
25
25
25
25
25
25
25
26
26
27
27
27
27
27
27
28
28
28
28
28
28
28
28
28
28
28
28
28
28
29
29
29
29
29
29
29
29
29
29
29
29
30
30
31
31
31
31
32
32
32
33
33
33
33
33
34
34
34
34
34
34
34
34
34
34
34
34
34
35
35
35
35
36
36
36
36
36
36
36
36
36
37
37
37
37
37
37
37
37
37
37
37
37
37
37
36
36
36
35
35
35
34
34
34
33
33
32
32
32
31
31
30
30
30
30
30
30
30
30
29
29
30
30
29
29
29
29
29
29
28
28
28
27
27
27
27
26
26
25
25
25
25
25
24
24
24
24
24
24
24
24
24
24
25
25
25
25
25
24
24
24
24
24
23
23
23
22
22
22
22
22
21
21
21
21
21
21
20
20
20
20
20
20
20
20
20
21
21
21
21
21
21
21
22
22
22
22
22
22
22
22
22
22
22
22
22
22
22
22
22
22
22
22
23
23
23
23
23
23
23
24
24
24
24
24
24
24
25
25
25
25
24
24
24
24
24
24
23
23
22
22
22
22
21
21
21
21
21
22
22
22
22
22
23
23
24
24
25
25
25
26
26
26
27
26
27
27
27
27
27
27
27
27
27
27
28
28
27
27
27
28
28
28
28
28
29
29
29
30
31
31
31
32
32
33
33
34
34
34
34
35
35
36
36
36
36
36
37
37
37
37
37
37
37
38
38
38
37
37
37
38
38
38
38
38
38
38
38
39
39
39
39
39
39
40
40
40
40
40
40
41
41
41
41
41
42
42
43
43
43
44
44
44
44
45
45
45
45
44
44
44
44
44
43
43
42
42
42
42
42
42
41
41
41
41
41
41
41
41
41
42
42
43
43
43
44
44
45
45
46
46
46
46
46
47
47
46
46
46
46
46
46
45
45
44
44
43
43
43
43
42
42
41
41
41
41
41
40
40
40
40
40
40
40
40
41
41
41
41
42
42
42
42
42
43
43
43
44
44
44
44
45
45
45
45
45
45
46
46
46
46
46
46
47
47
47
47
47
47
47
47
47
47
47
47
47
47
47
47
47
47
47
47
47
48
48
47
47
47
47
47
47
47
47
46
46
46
46
47
47
47
46
46
46
47
47
47
47
47
46
47
47
47
47
47
46
47
47
47
47
47
47
47
47
48
48
48
48
47
47
48
48
48
48
48
48
48
48
49
49
49
48
48
48
48
48
48
48
47
47
47
47
47
46
46
46
46
46
46
46
45
45
46
46
47
47
47
47
47
48
48
48
49
49
49
49
50
50
50
50
50
49
49
49
49
48
48
47
47
46
46
45
45
45
45
45
45
45
45
46
46
46
46
47
47
48
48
48
48
48
49
49
49
49
49
49
49
49
49
49
48
48
48
47
47
47
47
47
46
46
46
46
46
46
46
46
46
46
46
46
46
46
47
47
47
48
48
48
48
49
49
49
50
50
50
50
50
51
51
51
51
51
50
51
51
51
51
51
51
51
51
52
52
52
52
52
53
53
54
54
54
55
55
55
56
56
56
56
56
56
57
57
57
57
57
57
58
58
59
59
59
59
60
60
60
61
61
61
61
61
62
62
62
62
62
62
62
62
62
62
62
62
62
62
63
63
63
64
65
66
68
69
71
73
75
78
80
83
87
90
93
96
99
103
106
109
112
114
116
118
119
120
120
120
120
119
118
117
116
115
113
110
106
102
96
90
82
73
63
52
40
27
13
-1
-17
-34
-52
-70
-89
-109
-129
-149
-169
-188
-207
-225
-242
-258
-273
-287
-299
-310
-319
-327
-334
-339
-343
-345
-347
-346
-345
-343
-339
-334
-327
-320
-313
-305
-296
-287
-277
-266
-256
-246
-236
-225
-214
-204
-193
-182
-172
-163
-153
-143
-134
-124
-116
-107
-98
-89
-80
-71
-63
-54
-46
-38
-31
-23
-16
-8
-2
3
9
15
20
25
29
33
36
39
42
44
47
49
50
52
53
55
56
57
58
58
59
60
61
62
62
63
63
63
64
64
65
65
65
65
65
65
65
65
65
65
65
66
66
66
67
67
67
67
68
69
69
70
70
71
72
72
73
74
74
75
75
76
76
76
77
77
77
77
77
77
77
76
76
76
75
75
75
75
74
74
73
73
73
73
73
73
72
72
72
72
72
72
72
72
72
73
73
73
74
74
74
74
75
75
75
75
75
75
75
76
76
76
76
76
76
77
77
77
77
77
77
77
77
78
78
78
78
78
78
78
78
78
78
78
78
78
78
78
78
78
78
78
78
78
78
78
78
78
78
78
78
78
78
77
78
78
78
78
78
78
78
78
78
79
79
79
79
79
79
79
79
79
79
79
79
80
80
80
80
80
80
81
81
81
81
82
82
82
83
83
84
84
84
84
84
85
85
85
85
85
86
86
86
86
86
86
86
86
86
86
86
85
85
85
85
85
85
85
85
85
85
85
86
86
86
86
87
87
87
88
88
88
88
89
89
89
90
90
90
89
89
89
89
89
89
88
88
88
87
87
87
86
85
85
84
84
84
84
84
83
83
83
83
83
83
83
82
82
82
82
82
82
82
81
81
81
81
81
81
80
80
80
80
79
79
78
77
77
76
76
76
75
74
73
73
73
72
72
71
70
70
69
69
68
68
67
66
66
65
65
65
64
63
63
63
62
62
62
62
62
62
62
63
63
63
63
63
63
64
64
65
65
65
66
66
67
67
68
68
68
68
68
69
69
68
68
68
67
67
67
67
67
66
66
66
66
66
66
66
65
65
65
66
66
65
65
65
65
66
66
67
66
66
66
66
67
67
67
67
67
67
67
68
68
67
67
67
67
66
67
66
66
66
65
65
65
65
65
65
64
64
65
65
65
65
65
65
65
65
66
66
67
67
67
67
68
68
69
69
70
70
71
72
72
73
73
73
73
74
74
74
75
74
75
75
75
75
75
75
75
75
75
76
76
76
76
76
76
76
76
76
76
75
75
75
76
76
76
76
75
75
75
76
76
76
75
75
75
75
75
75
75
75
75
76
76
77
77
77
77
78
78
79
79
79
79
80
80
80
80
81
81
81
81
81
81
81
82
82
82
82
83
83
83
84
84
84
84
85
85
86
86
86
86
86
86
87
87
87
87
87
87
87
87
87
86
86
86
86
86
86
86
86
86
86
86
86
86
86
86
86
86
86
86
86
86
86
86
86
86
86
86
86
86
86
86
87
87
87
87
87
88
88
88
88
88
88
88
89
89
89
89
88
88
88
88
88
88
88
88
88
88
88
87
87
87
87
86
86
87
87
87
87
87
87
87
87
87
87
87
87
87
87
87
87
87
87
87
87
87
86
86
85
85
85
85
85
85
85
85
85
85
85
86
86
86
86
86
86
86
87
87
87
87
87
87
88
88
88
88
88
88
88
88
88
87
87
87
87
87
86
86
86
86
86
86
86
86
86
86
86
86
87
87
87
87
87
87
87
87
87
87
87
87
87
87
87
87
87
87
87
88
88
88
88
88
88
88
88
88
89
89
88
88
88
88
89
89
88
88
88
88
88
87
87
87
86
86
86
86
86
85
85
84
84
84
84
84
84
84
84
85
85
85
85
85
85
86
86
86
87
87
87
87
88
88
88
88
88
88
87
87
87
87
87
87
86
86
86
86
86
86
85
85
85
85
85
84
84
84
84
84
84
84
84
84
83
83
83
83
83
82
82
82
82
82
83
83
83
83
82
82
82
82
82
82
82
82
82
82
82
81
81
81
81
81
81
82
82
82
82
83
83
84
84
84
84
84
85
86
86
86
86
86
87
87
87
88
88
88
87
87
88
88
88
87
87
87
87
88
88
88
87
87
88
88
88
88
88
88
88
88
89
89
88
88
88
88
88
88
88
87
87
87
87
87
87
88
88
88
88
88
89
89
90
90
90
91
91
92
92
92
92
93
93
94
94
95
96
97
98
100
102
103
105
107
109
111
114
117
120
123
126
129
132
136
139
142
144
146
148
149
150
151
151
151
150
149
148
147
145
143
140
136
131
125
118
110
101
91
79
67
54
40
25
9
-8
-26
-44
-63
-82
-102
-122
-142
-161
-180
-197
-214
-230
-245
-258
-270
-280
-289
-297
-303
-308
-312
-315
-316
-315
-314
-311
-308
-303
-297
-290
-282
-274
-266
-257
-247
-237
-227
-217
-207
-197
-187
-177
-167
-157
-148
-138
-129
-120
-111
-102
-93
-84
-75
-66
-57
-49
-40
-32
-23
-15
-8
0
7
14
20
27
32
38
43
48
53
57
61
64
67
70
72
73
75
76
77
78
80
81
81
82
82
83
83
84
84
85
85
85
86
86
87
88
88
88
89
89
90
90
90
91
91
92
92
93
93
93
93
94
94
94
94
94
94
94
94
94
94
94
94
94
93
94
94
94
94
94
94
94
94
94
94
94
94
94
94
94
95
95
94
94
94
94
94
94
95
95
94
94
94
95
95
95
94
94
94
94
94
94
94
94
94
94
94
95
95
95
94
94
94
94
94
94
94
94
94
94
94
94
94
93
93
93
93
93
93
93
92
92
92
92
93
93
93
93
93
93
93
93
93
93
93
93
94
94
94
95
95
95
95
95
95
95
95
95
95
95
95
95
95
95
95
95
95
95
95
95
95
95
95
95
95
95
95
95
95
95
95
95
95
94
94
94
94
94
94
94
93
93
93
93
93
93
92
92
92
92
93
93
93
93
93
93
94
94
95
95
95
95
95
96
96
96
95
95
95
96
96
96
95
95
95
95
94
94
94
94
94
94
94
94
94
94
94
94
94
94
94
95
95
95
95
95
95
96
96
96
96
97
97
97
97
97
97
97
97
97
97
96
96
95
95
95
95
94
94
93
93
92
91
91
91
90
89
89
88
88
87
87
86
86
85
85
84
84
83
83
82
82
81
81
81
80
80
79
78
77
77
76
75
74
74
73
73
72
72
71
71
70
70
70
69
69
68
68
68
68
68
68
67
67
67
67
67
67
67
67
67
67
67
67
66
66
66
66
66
66
66
66
66
66
66
66
67
67
68
68
68
68
68
69
69
69
69
69
69
69
70
70
69
69
69
69
69
69
69
69
68
68
68
68
68
68
67
67
66
66
66
66
65
65
64
64
64
64
63
63
63
62
63
63
63
63
63
63
62
63
63
63
63
63
63
64
64
64
65
65
65
65
65
65
66
65
65
65
65
66
66
66
66
66
66
66
66
66
67
67
67
67
67
68
68
68
68
68
68
68
68
68
68
68
68
68
68
68
68
68
68
68
68
69
69
69
69
69
69
69
70
70
70
70
70
70
71
71
71
72
72
72
72
73
73
73
73
73
73
73
73
73
73
73
73
73
73
73
73
73
73
73
73
73
74
74
74
74
74
74
74
74
74
74
74
74
74
74
74
74
73
73
73
73
73
73
72
72
72
71
71
71
71
71
71
71
71
71
71
71
71
71
72
72
72
72
72
72
72
72
72
72
72
72
72
72
72
72
72
72
72
72
72
73
73
73
73
73
72
72
73
72
72
72
71
71
71
71
71
70
70
69
69
69
69
68
68
67
67
67
67
68
68
68
68
68
69
69
69
70
70
70
70
71
71
71
71
71
70
70
70
70
69
69
68
68
68
68
67
67
66
66
66
66
66
66
66
65
65
65
65
65
65
65
65
65
66
66
66
66
66
66
66
66
66
66
66
66
65
65
65
65
65
65
65
65
65
65
65
65
65
65
65
66
66
66
66
66
66
66
66
66
66
66
65
65
65
65
65
65
65
65
65
65
65
65
65
65
65
65
65
65
65
65
65
65
65
66
66
66
65
65
65
65
65
64
64
64
63
63
63
63
62
62
62
62
62
63
63
63
63
63
63
64
64
64
64
63
63
63
62
62
62
61
60
60
60
59
59
58
58
58
58
58
58
58
58
58
58
58
58
58
58
58
58
58
58
58
58
58
58
57
57
57
56
56
55
55
54
54
53
53
52
52
51
51
51
51
50
50
49
49
48
48
48
48
47
47
48
48
48
49
49
49
49
49
50
51
52
53
53
54
54
55
56
56
56
57
57
57
57
57
57
57
57
57
57
56
56
56
56
56
56
56
56
56
56
56
56
56
56
56
56
56
56
56
57
57
58
58
58
58
58
58
59
59
59
59
59
59
59
59
59
58
58
58
58
58
58
58
58
58
58
58
58
58
58
59
59
59
60
61
62
63
64
65
67
68
70
72
75
77
79
82
85
88
90
93
96
98
101
103
104
106
107
107
108
107
107
105
104
101
99
97
95
91
88
83
77
70
62
54
44
34
22
10
-2
-17
-32
-48
-64
-82
-99
-117
-136
-154
-173
-192
-210
-227
-244
-259
-274
-287
-299
-310
-319
-326
-332
-337
-341
-344
-345
-345
-344
-342
-338
-334
-329
-322
-315
-308
-300
-292
-283
-274
-264
-254
-243
-233
-222
-212
-201
-190
-180
-170
-160
-150
-140
-130
-120
-109
-100
-90
-81
-71
-62
-53
-45
-37
-29
-22
-15
-8
-2
3
8
13
17
21
25
28
31
34
36
38
40
41
43
44
45
45
46
47
47
47
47
48
48
48
48
48
48
47
47
47
48
48
48
48
48
48
49
49
49
49
49
50
50
50
50
51
51
51
51
51
51
51
52
52
52
52
52
52
52
52
52
52
52
51
51
51
51
51
51
51
51
51
51
50
50
50
50
50
50
50
50
50
50
50
50
50
50
50
50
50
50
51
51
51
51
51
51
52
52
52
52
52
52
52
52
52
52
52
52
52
52
52
52
52
51
51
51
51
51
51
50
50
50
50
50
50
50
50
50
50
50
50
51
51
51
50
51
51
51
51
51
51
51
50
50
51
50
50
50
50
50
50
50
50
49
49
49
49
49
49
49
48
48
48
48
48
47
47
47
47
47
47
48
48
48
47
48
48
48
48
48
48
48
48
49
49
49
49
49
49
50
50
50
50
50
50
50
51
51
51
51
50
50
50
50
50
50
50
50
50
51
51
51
51
51
51
52
52
52
53
53
53
53
53
53
53
53
53
53
53
53
52
52
52
52
51
51
51
51
51
50
50
50
50
49
49
49
49
48
48
47
47
47
47
46
46
45
45
45
44
44
43
42
42
42
41
41
41
40
40
40
40
40
40
40
40
40
40
40
40
39
39
39
38
38
38
38
37
36
36
35
35
34
34
33
32
31
31
30
30
29
28
28
27
27
26
26
25
25
25
25
25
25
25
24
24
24
24
24
25
25
25
24
24
24
24
24
23
23
24
24
24
24
24
24
24
23
23
23
23
23
23
23
23
23
23
23
23
23
23
23
23
23
23
23
23
24
24
24
24
24
24
24
24
24
24
24
24
23
23
23
23
23
23
22
22
22
22
22
22
22
22
21
21
21
22
22
21
22
22
22
22
22
22
22
22
22
22
22
22
22
22
22
22
22
22
22
22
22
22
23
23
23
23
24
24
24
25
25
25
26
26
26
25
25
26
25
25
25
26
26
26
26
26
26
26
26
27
27
27
27
27
28
28
28
29
29
29
29
29
30
30
30
31
31
31
31
31
31
31
31
31
31
31
31
31
31
31
31
31
31
32
32
32
32
32
32
32
32
32
32
32
32
32
33
33
33
33
33
33
33
33
34
34
34
34
34
34
34
34
34
34
34
34
34
34
34
34
34
34
34
34
34
34
34
33
33
33
33
33
32
32
32
32
32
32
32
31
31
31
31
31
31
31
31
31
31
31
31
31
31
31
31
31
31
31
31
31
31
31
31
32
32
32
32
32
33
33
33
33
33
33
33
33
33
33
32
32
32
32
32
32
32
32
31
31
31
31
32
32
32
32
31
31
31
31
31
31
31
30
30
30
30
30
30
29
29
29
29
29
28
28
28
28
28
28
27
27
27
27
27
28
28
28
28
28
28
29
29
29
30
30
30
30
30
31
31
31
31
31
31
31
31
31
31
31
31
31
31
31
31
30
30
30
29
29
28
27
27
26
26
26
26
26
25
25
24
24
25
25
25
25
25
25
26
26
26
27
27
28
28
29
29
30
30
30
30
31
31
31
31
31
31
31
31
31
30
30
30
30
30
30
30
30
30
29
29
30
30
30
30
29
29
29
29
29
29
29
28
28
28
28
27
27
26
25
25
25
24
24
23
23
22
21
21
21
20
20
19
19
18
18
18
18
18
17
18
18
18
18
18
18
18
18
19
19
19
19
19
20
20
20
21
21
21
20
20
20
20
20
20
19
18
17
17
16
16
16
16
16
16
16
16
16
16
16
16
17
17
18
19
19
20
20
21
22
22
22
23
23
23
24
24
24
24
24
24
24
24
23
23
23
23
22
22
22
22
22
21
21
21
22
22
22
22
22
22
22
22
22
22
22
22
22
23
23
23
23
23
23
23
23
24
24
24
24
24
24
24
24
24
24
24
24
25
25
25
25
25
25
25
26
27
27
28
29
31
32
34
36
37
39
41
44
47
49
52
55
58
61
64
67
70
72
74
76
78
79
80
80
80
79
78
77
76
75
73
71
67
63
57
51
44
35
26
15
4
-8
-22
-37
-53
-70
-87
-106
-124
-144
-164
-184
-204
-223
-243
-261
-278
-294
-310
-323
-336
-346
-356
-364
-370
-375
-379
-381
-382
-381
-380
-377
-373
-368
-361
-354
-346
-338
-329
-320
-310
-300
-289
-279
-269
-259
-249
-239
-228
-218
-208
-199
-189
-180
-170
-161
-152
-143
-135
-126
-117
-108
-100
-92
-84
-76
-69
-61
-54
-47
-41
-35
-30
-25
-20
-16
-12
-8
-5
-3
0
1
3
5
6
8
9
10
11
12
13
14
14
15
16
17
18
18
19
20
20
21
22
23
23
24
24
24
25
25
25
25
25
25
25
26
26
26
26
26
26
26
26
26
26
26
25
25
25
25
25
24
24
24
24
24
24
24
24
24
24
24
25
25
25
25
25
25
25
26
26
26
26
27
27
27
27
28
28
27
27
28
28
28
28
28
28
28
28
28
28
28
28
28
28
28
28
28
28
28
28
28
28
27
27
27
26
26
26
26
25
25
25
25
25
24
24
24
24
24
24
24
24
24
24
24
24
24
25
25
25
25
25
25
26
26
26
26
26
26
26
27
27
27
26
26
26
26
26
26
26
25
25
25
25
25
26
26
26
26
26
26
26
27
27
27
27
27
27
28
28
28
28
28
28
29
29
29
29
29
29
29
30
30
30
30
30
30
30
31
31
31
31
31
31
32
32
32
32
32
32
32
32
32
32
32
31
31
31
31
31
31
31
31
31
31
31
32
31
31
32
32
32
32
32
32
32
31
31
31
31
31
30
30
30
30
30
30
29
29
28
28
28
27
27
27
26
26
26
26
26
25
25
25
25
24
24
24
24
24
24
24
24
23
23
22
22
21
21
21
21
20
20
19
19
18
18
18
17
17
16
16
16
15
15
14
14
13
13
13
12
12
11
11
11
10
10
10
9
9
8
8
8
8
7
7
6
6
6
6
5
5
5
5
5
5
5
4
4
4
4
4
5
5
5
5
5
4
5
5
5
4
4
5
5
5
6
6
6
6
7
7
7
7
7
7
8
8
8
8
8
8
8
8
8
8
8
8
7
7
7
6
6
6
6
6
6
5
6
6
6
5
5
6
6
6
6
6
6
6
7
7
7
7
7
7
7
7
7
7
7
7
7
7
7
7
7
7
7
7
7
7
8
8
8
8
7
7
7
7
7
7
8
8
8
8
8
8
8
8
8
8
9
9
9
9
10
10
10
10
11
11
11
11
11
12
12
12
13
13
13
13
13
13
13
13
13
13
13
14
14
14
14
14
14
15
15
15
15
15
15
16
16
16
16
16
16
16
16
16
16
16
15
15
15
15
15
15
14
14
14
14
14
14
14
14
14
14
14
14
14
14
14
14
15
15
15
15
16
16
16
16
16
17
17
16
16
16
16
16
17
17
17
17
17
17
17
17
17
17
17
18
18
19
19
19
19
19
19
20
20
20
20
20
20
20
20
20
20
20
20
20
20
20
20
19
19
19
18
18
18
18
18
17
17
17
17
17
17
17
17
17
17
17
17
16
16
16
16
16
16
15
15
15
15
15
15
15
15
14
14
14
14
14
14
13
13
13
13
13
13
13
13
13
13
13
13
13
13
12
12
13
13
13
13
13
13
13
13
13
13
13
13
14
14
14
14
14
14
13
13
13
13
13
13
13
12
12
12
12
12
11
11
11
12
12
12
13
13
13
13
14
14
15
15
15
16
16
16
17
17
17
17
17
17
18
18
18
18
17
17
17
17
17
17
17
16
16
16
16
16
16
15
15
15
15
15
15
15
14
14
14
14
14
14
14
14
13
14
14
14
13
13
13
13
13
13
14
13
13
13
14
14
14
14
14
14
14
14
14
14
14
14
14
14
14
14
15
15
15
15
15
15
15
15
14
14
14
14
13
13
12
12
11
11
10
9
9
8
7
6
6
6
5
5
4
4
3
3
3
4
4
4
5
5
6
6
7
8
8
9
10
11
11
12
12
12
13
13
13
13
13
12
12
12
12
12
11
11
10
10
10
9
9
9
8
8
7
7
7
7
7
7
7
8
8
9
9
9
9
10
11
11
12
12
13
13
13
13
14
14
14
14
14
14
14
14
14
14
14
14
14
14
14
14
14
14
13
14
14
14
14
14
14
15
15
15
16
16
16
16
16
16
16
16
16
16
15
15
15
15
15
15
15
15
15
15
15
15
16
16
16
17
17
18
18
18
18
19
19
20
20
21
22
23
25
26
28
30
31
33
36
39
41
44
47
50
53
56
60
63
66
68
71
74
76
78
79
80
80
80
80
79
78
77
76
