# Simple Text Format
# Sampling Rate (Hz):= 1200.00
# Resolution:= 12
# Labels:= ECG	 I 
# Age:=	58
# Gender:=	Feminino
47
45
45
44
43
43
42
42
42
42
42
41
41
40
39
39
39
39
39
38
38
38
37
37
36
36
36
35
35
35
35
34
34
34
34
34
34
33
33
33
33
33
33
33
33
32
33
33
33
33
33
33
33
34
34
34
34
34
34
34
35
35
35
35
35
36
36
37
37
37
37
36
36
37
36
36
36
36
35
35
35
35
35
35
33
33
34
33
33
33
33
33
33
33
32
32
32
32
32
32
32
33
33
33
33
34
33
34
34
35
35
35
35
36
37
37
37
37
37
38
38
37
38
38
37
38
38
37
38
38
38
38
38
37
37
37
37
37
37
37
37
37
36
37
37
36
36
36
35
35
35
35
35
35
35
35
35
35
34
34
33
34
34
34
33
33
33
34
33
33
34
33
34
34
33
33
33
33
34
33
34
33
33
33
34
34
33
33
33
33
32
32
32
32
32
32
32
32
32
32
32
32
32
32
33
33
33
33
33
33
33
33
33
34
34
34
34
34
33
33
33
34
33
33
32
32
33
32
32
32
31
31
31
30
31
31
31
31
30
30
30
31
31
31
31
31
31
31
32
32
31
31
31
31
31
31
30
30
31
31
32
32
32
32
32
33
32
32
32
32
33
32
32
33
32
32
31
31
30
30
30
29
28
28
28
27
28
27
27
28
28
28
28
27
28
28
28
28
28
28
28
28
27
27
28
27
27
27
27
26
26
26
26
26
26
26
26
26
26
26
26
26
26
26
27
26
26
27
28
28
27
27
28
29
29
29
30
30
30
30
30
31
30
30
30
31
30
30
30
30
29
29
29
29
28
27
27
27
26
25
25
26
26
25
25
25
25
25
25
25
25
25
25
25
26
26
25
25
25
25
25
25
26
25
25
25
25
25
26
26
26
26
26
26
26
26
26
26
28
28
28
28
29
29
29
30
31
31
31
32
32
33
33
34
34
35
35
35
35
34
35
36
35
36
35
36
36
36
37
37
37
37
38
38
39
39
39
39
39
40
40
41
41
41
42
43
43
43
44
44
44
43
44
44
44
44
43
44
43
44
44
44
45
44
45
44
45
45
44
44
45
44
44
44
44
43
43
42
42
42
41
41
40
39
38
37
36
35
36
35
34
33
33
32
32
31
30
30
29
30
29
29
28
28
27
28
28
27
27
26
26
26
25
24
25
25
24
24
24
22
23
23
23
23
23
23
23
23
23
23
23
23
23
23
24
23
23
23
23
23
23
23
22
22
22
22
22
21
21
21
21
21
21
21
21
20
20
19
19
19
20
19
20
19
19
19
18
19
18
17
16
16
16
15
14
13
12
11
11
10
10
8
8
7
7
8
7
8
10
10
12
14
15
18
20
23
26
29
32
35
40
44
48
53
59
63
69
75
80
85
91
97
102
108
114
120
125
130
135
139
143
147
151
154
156
158
159
160
162
162
162
162
161
161
160
160
159
158
155
154
151
150
147
144
142
139
137
135
132
129
127
124
121
118
116
113
111
107
105
103
100
97
94
92
89
86
84
81
78
74
70
68
65
61
58
55
52
50
46
45
42
40
39
38
36
35
33
32
31
30
29
28
28
27
27
26
26
25
24
24
24
23
24
24
24
23
24
23
24
24
24
24
23
24
23
24
24
23
23
23
23
23
23
23
22
21
21
22
21
21
21
21
21
22
22
22
22
22
22
22
22
23
23
24
24
24
23
24
23
23
22
23
23
23
23
23
23
23
23
22
23
23
22
23
23
23
23
23
24
24
24
24
24
24
24
24
24
24
24
24
24
24
25
24
25
25
25
25
25
25
25
25
25
26
25
25
25
25
25
24
24
24
23
24
24
24
25
25
25
26
25
25
25
26
26
27
27
27
27
28
29
29
29
30
30
30
30
30
31
31
31
31
31
31
31
31
31
32
33
33
33
34
34
34
34
35
35
36
35
36
35
36
36
36
36
36
36
35
35
36
36
36
36
36
36
36
36
36
37
37
38
38
39
39
40
41
41
42
41
42
42
42
42
42
42
43
42
43
42
43
43
43
43
43
43
43
43
44
45
45
46
46
46
47
47
48
48
49
49
50
50
51
51
50
51
51
52
52
52
52
52
52
52
53
53
53
55
55
55
56
56
57
57
57
57
57
58
58
58
58
58
58
58
57
58
57
56
56
56
56
55
55
55
55
54
55
54
55
55
56
56
55
56
57
57
57
57
58
58
58
58
58
59
58
58
59
58
58
58
57
58
58
57
56
57
56
56
55
55
55
55
54
54
53
53
52
52
51
50
49
49
48
48
47
46
46
46
45
44
44
43
42
42
41
40
40
40
38
38
38
37
37
36
35
36
35
35
34
33
32
32
31
30
30
30
29
30
29
29
28
27
27
26
26
25
25
25
24
24
23
23
23
23
23
22
22
22
22
22
22
23
22
22
23
23
22
23
23
23
23
22
22
23
22
22
22
22
22
22
22
21
21
21
21
21
21
21
21
21
21
20
20
21
21
21
20
21
21
21
21
21
21
21
21
21
21
22
21
22
22
22
22
23
23
23
24
24
24
24
24
24
24
24
24
24
24
23
23
22
23
22
22
22
22
22
23
23
23
23
23
23
23
23
23
23
24
23
24
23
24
24
23
24
23
23
22
22
22
22
21
20
20
19
19
18
18
17
17
17
17
17
17
16
15
16
16
15
15
15
15
15
15
15
15
16
16
17
17
16
17
17
17
17
17
18
18
17
17
17
17
17
17
18
17
17
17
17
17
17
17
17
16
16
16
16
16
15
15
15
15
15
15
15
15
15
15
15
15
15
16
15
15
16
15
16
15
16
16
16
16
15
16
16
16
16
16
16
15
16
16
16
16
17
17
17
17
17
17
16
16
16
17
17
16
15
15
14
15
15
14
14
14
14
13
14
13
13
13
13
12
12
13
12
12
12
12
13
12
12
13
12
12
12
12
12
12
12
12
12
12
12
12
12
12
13
13
13
13
13
13
13
13
13
13
14
14
14
14
14
14
14
14
15
15
14
15
15
15
15
15
15
14
14
13
14
13
13
13
12
12
12
12
12
12
12
12
12
13
13
13
13
14
14
14
15
15
15
16
16
16
16
17
16
16
16
16
16
16
15
16
16
15
15
14
14
14
13
13
13
13
12
13
13
13
13
13
12
13
13
13
13
13
14
15
14
15
15
15
15
15
16
16
17
17
17
17
17
17
17
17
17
16
17
16
16
16
16
17
17
17
17
17
18
18
19
19
20
21
21
21
22
22
23
24
25
25
26
27
28
28
29
29
30
31
31
32
33
33
34
34
34
35
36
36
36
36
36
36
36
36
35
35
35
35
34
34
34
34
34
33
33
32
33
33
32
33
32
32
31
32
32
32
32
32
31
32
32
32
31
32
31
31
31
30
29
30
29
29
28
28
27
26
26
25
24
24
24
24
23
22
22
23
23
22
22
22
21
21
21
21
22
21
22
21
21
21
21
21
21
21
20
20
20
20
19
19
19
19
19
19
18
19
18
18
18
18
17
18
17
17
17
17
17
17
17
17
17
17
17
17
18
18
19
19
19
19
18
18
19
18
18
18
17
17
16
15
15
14
13
12
11
11
10
9
8
7
6
6
4
5
4
4
4
4
5
6
7
8
9
11
13
15
18
21
23
27
31
34
38
43
48
53
59
64
70
76
83
89
95
101
107
113
117
123
128
133
138
143
146
150
155
157
159
161
162
163
163
162
162
161
161
160
159
158
155
154
152
150
148
145
143
140
138
136
134
131
129
126
124
121
119
115
111
108
107
104
101
98
96
94
91
89
86
83
81
78
75
73
70
67
65
61
59
57
54
51
49
47
45
44
42
41
39
38
38
37
35
34
34
34
33
33
33
33
32
32
32
32
31
31
30
31
31
31
31
30
30
29
30
29
29
29
28
28
28
28
27
27
27
28
28
28
28
29
28
29
29
30
30
30
31
31
32
32
32
32
32
32
32
31
32
31
32
31
31
31
30
30
30
30
30
30
30
30
31
32
31
32
33
33
33
34
34
34
34
34
34
35
35
35
35
35
35
35
35
35
34
35
34
35
35
35
35
35
36
36
36
36
35
36
36
35
35
35
36
36
36
36
36
37
38
38
38
38
39
40
40
41
40
40
41
42
42
43
43
43
44
44
44
44
44
44
44
44
44
44
45
45
45
45
46
46
46
46
46
47
47
47
47
47
48
48
48
49
49
49
50
49
49
50
49
50
50
50
50
51
51
51
51
51
52
52
52
53
53
53
53
54
55
55
55
56
57
57
57
58
59
59
60
61
61
62
62
63
63
64
64
64
64
65
65
66
65
66
67
66
67
68
68
68
68
69
69
69
69
69
69
69
70
70
70
70
70
70
70
70
70
70
70
70
70
70
71
71
72
73
73
73
74
74
74
75
76
76
77
77
78
78
78
78
78
79
79
79
79
79
80
79
80
79
80
80
80
81
81
81
81
81
82
82
83
83
83
84
84
85
84
85
85
85
85
86
85
86
85
86
85
85
84
85
84
84
84
83
83
83
82
81
81
80
80
79
79
78
77
78
77
77
77
75
75
74
74
73
73
73
72
71
71
70
70
70
70
69
68
68
67
67
66
66
65
65
64
63
63
62
62
62
61
60
61
59
60
59
58
59
59
58
58
57
58
57
57
57
58
57
57
57
57
57
57
57
57
57
57
57
57
57
57
57
56
57
56
56
55
55
54
55
55
54
54
54
53
53
53
54
53
53
53
53
53
53
53
54
54
54
55
55
55
56
56
57
57
58
59
59
60
60
60
60
60
60
60
60
61
60
60
60
59
59
59
59
59
58
58
58
57
58
57
58
58
58
58
59
58
59
60
60
60
61
61
62
62
62
62
63
62
63
63
63
63
63
63
62
63
62
62
62
62
62
63
62
62
63
63
63
63
64
63
64
64
64
64
63
64
64
64
64
64
64
64
64
64
64
63
64
63
63
64
64
65
65
65
65
65
65
65
65
66
66
66
67
67
67
68
68
68
68
68
69
70
69
69
69
69
69
70
70
70
70
70
70
70
70
71
71
71
71
71
71
71
71
71
72
71
71
71
71
72
71
72
72
72
72
71
71
71
71
70
70
70
70
70
70
70
70
69
69
69
69
69
70
70
69
70
70
70
71
72
72
72
73
73
74
74
75
76
76
76
76
77
77
76
76
77
77
76
76
76
76
76
76
76
76
75
75
74
75
75
75
75
75
75
76
76
76
76
76
77
77
78
78
78
78
79
79
79
80
80
80
80
80
80
79
80
80
80
81
81
81
81
80
80
80
79
80
80
80
80
80
80
81
80
80
81
81
80
81
81
81
81
82
82
82
82
82
82
82
82
82
82
83
83
83
83
83
83
84
85
85
84
84
85
85
84
84
85
85
85
84
85
85
85
85
86
86
86
86
87
87
87
87
88
88
87
87
88
88
89
89
90
90
90
90
91
91
92
91
92
93
93
94
95
95
97
97
98
99
100
100
101
101
101
102
102
102
102
104
104
104
104
104
104
104
104
103
103
103
103
103
103
103
103
103
103
103
102
102
102
103
102
102
102
103
103
102
103
103
103
103
104
104
105
104
105
104
104
104
104
104
103
104
103
103
103
103
102
102
101
101
100
99
99
98
98
97
97
98
98
97
97
97
96
96
95
95
95
95
94
94
94
93
92
92
91
91
91
90
90
89
89
90
89
89
90
90
89
90
90
90
91
91
91
91
91
91
91
91
91
91
91
90
91
90
90
90
90
90
90
90
91
91
91
92
91
92
92
92
93
93
93
94
94
94
94
94
94
93
93
93
92
92
92
91
90
89
89
88
87
86
85
84
84
83
83
82
81
81
81
82
82
83
84
86
87
90
92
95
98
101
104
108
112
116
120
124
129
134
139
145
151
156
162
168
172
178
184
188
192
197
202
205
209
212
216
219
221
223
225
226
227
227
228
228
228
228
227
228
226
225
224
222
221
219
216
214
213
211
208
206
204
201
200
197
195
192
190
187
185
183
180
178
175
173
171
168
166
163
161
160
156
154
151
149
147
144
142
138
136
134
132
129
128
126
124
122
121
119
118
117
116
115
114
113
112
112
112
112
111
111
111
110
110
110
110
110
110
110
110
111
110
110
110
110
110
110
110
110
111
110
111
111
111
111
111
111
111
111
111
112
112
112
112
112
112
113
113
113
114
114
114
114
114
114
114
115
115
116
116
116
116
116
117
117
117
117
117
117
117
117
117
118
118
118
118
118
119
118
118
119
119
119
119
119
120
120
120
120
120
121
121
121
121
121
122
123
123
123
124
124
124
124
124
125
124
125
126
126
126
126
126
126
127
126
126
126
126
126
126
126
126
126
126
126
125
125
126
127
127
127
128
128
128
129
128
130
130
130
131
132
132
133
133
133
133
133
133
134
134
134
134
134
134
134
134
133
133
133
134
134
134
134
134
134
135
135
135
136
136
136
137
138
138
138
139
139
140
141
141
142
142
143
144
145
145
146
146
147
148
148
148
149
150
150
150
150
151
152
152
152
153
153
154
155
155
155
155
155
156
157
157
157
158
158
159
159
160
160
161
161
161
161
161
162
162
163
163
163
164
164
164
164
164
164
165
165
165
164
165
165
165
166
166
166
167
167
167
168
168
168
169
169
170
170
171
171
170
171
172
173
172
173
173
174
174
173
174
174
173
174
173
174
173
173
172
172
171
171
171
170
171
170
171
170
169
169
170
169
169
169
169
169
169
169
169
169
169
168
168
168
167
167
167
166
166
166
165
165
164
163
163
163
162
161
161
161
160
160
159
159
158
157
158
157
156
156
156
155
156
155
154
154
153
152
152
151
151
150
150
150
149
149
149
148
148
148
147
147
146
146
146
145
146
145
145
145
145
145
144
145
144
144
143
144
144
143
143
142
143
142
142
141
142
141
141
142
141
141
141
141
141
141
142
141
141
141
141
141
141
142
142
142
142
142
142
142
143
143
144
144
144
146
146
147
147
148
148
150
150
150
151
151
151
151
151
151
152
152
152
151
151
151
151
151
150
150
150
150
150
150
149
149
149
149
149
149
149
148
149
149
149
149
149
150
150
150
151
151
152
153
153
153
154
155
155
156
156
157
157
157
158
158
159
158
158
159
159
160
159
159
159
158
157
157
158
157
157
157
155
155
155
155
155
155
155
155
155
155
154
155
155
154
154
154
155
155
155
154
155
155
155
155
155
154
155
154
154
154
154
154
154
154
154
154
153
153
154
153
153
153
153
153
153
152
153
152
152
152
152
153
153
154
154
154
154
155
155
155
155
155
156
156
156
157
156
157
157
157
157
157
156
157
156
156
156
156
155
156
155
155
154
154
154
154
154
154
154
154
154
155
155
154
155
155
155
156
156
157
158
158
159
159
159
160
159
160
160
160
160
160
160
160
159
159
159
159
159
158
158
157
157
157
156
156
155
155
155
155
155
155
155
155
155
155
155
155
154
155
154
154
155
154
154
154
154
155
155
155
156
156
156
156
157
157
157
158
158
158
158
159
159
159
159
158
159
158
158
158
158
158
157
157
156
155
155
155
155
155
154
154
154
154
154
154
155
154
154
154
154
154
155
155
155
155
155
155
155
154
155
155
155
155
154
155
155
155
155
155
154
154
155
155
155
156
156
156
156
156
157
156
156
157
157
157
158
157
157
157
158
158
158
158
158
158
158
158
159
158
158
159
159
159
159
159
159
160
161
161
161
161
162
162
163
163
163
163
164
164
164
165
165
165
165
166
166
167
167
168
169
170
170
172
172
172
173
173
174
175
175
176
176
177
178
178
177
177
177
177
177
177
176
176
175
175
174
173
173
172
172
171
171
171
170
170
169
169
169
169
168
169
169
169
169
169
169
169
168
169
168
168
168
168
167
167
166
166
164
164
163
163
161
161
160
159
159
157
156
156
155
154
154
154
153
153
153
153
152
152
152
153
152
152
151
151
151
151
152
152
152
152
152
153
153
153
154
154
154
154
155
155
155
154
155
156
156
156
156
156
156
156
156
155
155
154
154
153
153
153
152
152
152
151
151
150
150
150
150
150
150
150
150
150
150
149
149
149
149
149
149
148
147
146
145
144
144
142
141
141
140
139
138
138
139
139
139
140
142
143
146
148
150
153
156
159
162
166
170
175
179
184
189
194
200
206
211
217
223
229
234
240
246
251
255
260
264
268
273
277
279
282
284
286
288
289
289
291
290
290
290
289
289
288
287
286
284
283
282
280
277
275
273
271
269
266
263
262
259
256
253
251
249
246
242
240
237
234
232
229
225
223
220
217
214
211
209
205
202
200
197
193
191
188
185
182
180
178
176
174
172
170
169
168
166
164
164
163
161
160
160
159
159
158
158
156
156
156
156
155
154
155
155
154
155
155
155
155
156
156
155
156
157
157
157
157
158
158
158
159
159
159
159
159
158
159
159
159
159
159
159
159
158
158
157
156
156
155
155
155
155
155
155
154
154
154
153
153
153
153
153
153
153
154
154
154
155
155
156
155
156
156
156
157
157
157
156
157
157
157
158
157
157
158
157
157
157
157
157
157
157
157
157
157
157
157
156
157
157
157
159
159
160
159
159
160
160
160
160
161
161
161
161
162
162
162
161
161
161
162
161
161
161
161
160
160
160
160
160
160
161
161
161
161
161
161
162
162
162
163
163
163
163
163
163
164
164
165
165
165
165
165
165
165
166
166
166
166
166
167
167
168
169
169
169
169
169
169
170
170
170
170
171
171
171
172
172
172
173
173
174
174
174
174
175
175
175
176
176
177
177
176
177
177
177
177
177
178
178
178
179
178
179
179
179
179
179
179
179
179
181
181
181
181
182
182
183
183
183
183
185
185
185
186
186
186
186
187
187
188
188
188
189
189
189
189
190
190
190
190
190
190
191
191
190
191
191
191
191
191
191
191
191
191
191
190
191
191
190
191
191
191
191
191
191
190
190
190
190
190
190
191
190
191
191
191
190
191
191
191
191
191
191
191
191
191
191
190
190
190
190
190
189
189
189
188
188
187
188
187
186
186
185
185
184
184
183
183
183
182
181
181
180
180
179
178
177
177
175
175
174
174
174
173
172
172
171
170
169
168
168
167
167
165
165
165
165
164
163
163
162
162
162
161
160
160
159
158
159
158
158
158
158
158
157
157
157
157
158
157
157
157
158
157
158
158
158
158
158
158
158
158
158
158
158
158
158
158
158
158
158
158
157
157
157
157
156
156
157
156
156
157
156
156
155
156
156
156
156
156
155
155
155
155
155
155
155
155
155
155
155
155
154
154
154
153
153
153
154
153
153
153
153
153
153
152
153
152
152
152
152
152
152
152
153
153
153
152
153
153
153
153
153
154
154
154
154
154
154
154
155
155
154
154
154
154
154
154
153
154
154
154
154
154
154
153
153
152
152
151
151
151
151
151
151
151
151
150
150
150
150
150
150
150
150
150
150
151
151
151
152
152
151
152
153
153
154
155
154
155
155
156
155
156
157
156
157
157
158
157
157
157
157
157
157
157
156
156
156
155
155
155
154
154
154
154
154
154
154
153
153
153
153
153
153
154
154
154
155
155
154
154
155
156
155
155
155
156
156
155
156
156
155
155
155
156
156
156
156
156
156
156
156
155
155
155
156
156
155
155
156
156
155
155
155
155
155
154
154
154
154
154
154
153
154
153
153
153
153
152
152
153
152
151
151
151
152
152
151
152
152
152
152
151
151
151
151
150
150
150
150
150
150
149
149
150
150
150
150
150
150
151
151
150
150
150
151
152
152
152
152
152
153
153
153
153
153
152
152
152
152
152
152
152
151
151
152
151
151
150
150
150
150
149
149
149
149
149
148
148
149
149
149
148
148
148
149
149
148
148
149
149
149
149
149
149
150
150
150
150
151
151
151
152
152
152
152
152
152
152
152
152
152
152
152
152
151
151
151
150
150
150
150
149
150
150
149
149
149
149
150
150
150
149
150
150
150
150
150
151
151
152
152
153
153
153
153
153
154
154
154
155
154
155
155
155
155
156
157
157
157
158
159
159
160
160
161
161
162
163
164
164
164
165
165
165
165
165
165
165
165
165
165
164
164
163
163
162
162
161
160
160
159
159
159
159
158
158
158
158
157
158
158
157
158
157
157
157
156
156
156
156
156
156
155
154
154
153
153
153
153
153
152
152
152
151
150
150
150
150
149
148
148
148
147
146
146
145
144
144
143
143
141
141
141
141
140
140
139
139
140
139
139
139
140
140
141
141
141
141
142
143
143
143
143
143
142
142
142
141
141
140
139
138
138
137
136
136
135
134
134
133
132
132
131
130
131
130
130
130
130
130
129
129
129
129
128
128
127
127
126
126
125
125
124
123
122
121
121
120
120
120
120
120
121
121
122
124
125
126
128
132
134
137
140
143
147
151
155
159
164
169
174
179
185
191
197
202
208
213
219
223
230
235
240
245
249
253
257
260
264
267
270
272
274
275
276
277
277
278
278
277
277
276
275
273
272
270
268
266
263
260
257
254
251
247
244
240
238
234
231
228
224
221
218
216
213
210
208
204
201
199
197
194
191
188
185
182
179
177
174
171
169
165
162
160
157
154
152
151
149
147
146
144
143
142
140
139
138
138
136
135
134
134
133
133
133
131
132
131
131
130
130
131
130
130
130
130
130
130
130
131
130
130
130
131
131
131
131
131
131
130
130
130
130
131
131
131
130
131
131
131
131
130
131
131
131
131
131
131
131
132
132
132
132
132
131
131
132
132
132
131
132
131
131
131
132
131
130
131
131
131
131
131
131
131
130
131
131
132
132
132
132
131
131
131
132
132
132
132
132
132
132
133
133
132
132
132
133
133
133
133
134
134
134
134
134
134
135
135
135
134
134
135
135
135
134
134
134
134
134
134
134
134
134
134
134
133
134
134
134
134
134
135
134
135
135
135
135
136
136
136
136
137
137
137
137
137
137
137
139
139
139
139
140
140
140
140
140
141
141
141
141
141
142
141
142
142
142
141
142
142
141
142
141
141
141
142
141
142
142
142
142
142
142
143
143
144
145
145
146
147
147
148
149
150
151
151
153
154
154
155
155
156
155
156
156
156
157
156
157
156
156
156
156
156
156
156
156
157
156
156
157
156
157
157
158
158
158
158
159
159
159
160
160
160
160
160
160
160
160
160
160
160
160
160
159
160
160
160
159
160
160
160
160
159
160
159
159
160
159
159
159
159
159
159
159
158
159
158
159
158
159
158
158
158
159
158
159
158
159
159
159
160
159
158
159
158
158
158
157
157
156
156
155
156
155
154
153
153
152
151
151
151
150
150
149
149
149
148
148
147
147
147
146
145
144
145
144
144
143
143
142
142
141
140
140
139
140
139
138
138
137
137
137
136
135
135
134
134
133
132
132
131
130
130
129
128
128
127
127
126
126
126
126
125
125
125
125
124
124
124
125
124
124
124
124
124
124
124
124
123
124
124
124
124
124
124
125
124
125
125
124
124
125
125
124
124
124
123
123
123
123
123
123
123
123
122
122
122
121
122
122
121
121
121
122
121
121
121
120
120
121
121
121
121
120
120
120
120
120
120
120
120
120
119
119
119
119
119
119
118
118
119
118
118
118
118
118
119
119
120
120
120
120
121
120
121
121
122
122
122
123
122
122
122
122
121
121
122
121
121
121
121
122
121
120
120
121
121
120
121
121
121
121
121
121
121
121
121
121
120
120
120
120
119
120
119
119
118
118
118
118
118
117
118
118
117
117
117
117
118
117
117
117
118
118
118
118
118
117
118
118
118
118
119
119
119
119
120
120
120
119
119
120
120
120
120
120
120
120
120
120
119
119
119
119
118
118
118
118
118
118
118
118
118
118
118
117
117
117
117
117
117
117
117
117
117
117
117
117
117
117
117
117
117
117
117
117
117
117
117
116
116
116
115
115
115
115
115
115
116
116
116
116
116
116
116
116
116
116
116
116
115
115
115
115
115
115
115
114
114
113
113
112
112
112
112
113
112
112
112
112
112
112
112
112
112
111
111
112
112
112
112
112
112
112
112
112
112
112
112
113
113
113
114
113
113
114
114
114
113
114
114
114
114
114
113
113
113
112
112
112
112
112
112
112
111
111
112
112
112
111
112
112
112
112
112
112
112
112
114
114
114
115
115
115
115
115
115
116
116
117
117
117
117
118
118
118
118
117
118
118
119
118
118
118
118
118
117
117
117
116
116
116
116
116
116
117
117
117
117
117
118
119
119
120
121
121
122
122
123
123
124
125
125
125
125
125
125
125
125
125
124
124
124
124
123
123
123
123
123
123
123
123
123
123
122
122
122
123
122
122
123
123
122
122
123
122
122
122
122
122
121
121
121
120
120
120
119
118
118
117
117
116
116
116
116
114
114
114
114
113
112
112
112
112
111
111
110
109
109
108
108
108
107
107
105
105
105
105
104
103
103
103
102
102
102
102
101
101
101
101
100
101
101
100
99
99
99
99
99
99
98
98
98
98
98
97
97
96
97
97
96
96
96
97
97
97
98
98
98
98
98
99
99
99
99
99
99
99
99
99
98
98
97
96
95
94
93
93
92
91
90
89
89
88
87
86
86
87
88
88
90
91
94
95
98
100
104
107
110
114
118
122
127
132
137
142
147
153
159
164
169
175
181
186
191
195
200
205
209
212
215
219
221
223
225
226
228
228
228
229
228
226
226
225
223
222
220
218
216
214
212
209
207
205
202
201
198
195
193
191
189
186
184
182
179
176
174
171
168
165
162
160
157
154
150
147
144
142
138
136
132
130
127
125
122
120
118
116
114
111
110
109
107
106
105
105
104
104
103
103
103
103
102
102
102
102
103
102
103
103
103
103
103
104
103
103
104
104
104
105
104
104
103
103
104
103
103
103
103
103
103
101
101
100
101
99
99
98
99
99
98
98
97
97
97
97
97
97
97
97
97
97
98
98
98
98
98
98
98
98
98
97
97
98
98
98
97
97
97
98
97
97
97
97
98
98
98
98
98
98
99
99
100
100
100
100
100
101
101
101
101
101
101
102
102
102
102
102
102
102
102
102
102
102
101
101
101
101
101
101
102
102
102
102
102
102
102
103
103
103
104
104
104
103
104
104
105
105
104
104
104
104
104
104
104
104
104
104
104
104
104
104
104
105
105
105
105
106
106
107
107
108
108
109
109
109
110
110
110
110
111
111
112
112
112
112
113
112
113
112
112
113
113
113
113
113
113
114
113
113
114
113
114
114
114
115
114
115
115
115
115
115
116
115
116
116
115
115
116
116
116
116
117
117
117
118
117
118
118
119
119
119
120
120
121
121
121
122
123
123
123
124
124
125
125
125
127
127
128
128
128
129
129
129
130
130
130
130
130
130
130
129
129
130
130
130
130
129
129
129
129
129
129
129
130
130
129
130
130
129
129
129
130
129
130
130
130
130
130
130
129
129
129
128
129
129
129
128
129
128
128
127
127
127
127
126
127
127
126
126
125
126
125
125
125
124
124
123
123
123
122
122
121
120
120
119
118
117
117
116
115
114
113
112
110
110
108
107
106
106
104
104
103
102
101
100
100
99
99
98
98
97
97
97
96
97
96
96
95
95
96
95
95
95
94
94
94
94
94
94
93
93
92
92
92
92
91
91
91
90
90
90
90
90
90
90
90
90
90
90
89
90
89
89
89
89
88
88
88
88
88
87
87
86
86
86
86
86
86
85
85
84
85
85
85
84
84
84
85
85
85
86
86
86
86
87
86
86
87
87
87
88
88
88
88
88
88
88
89
89
88
89
89
88
88
88
87
87
88
88
88
88
88
87
88
88
87
87
87
87
86
87
87
87
86
87
87
86
87
86
86
86
87
86
86
86
86
86
86
86
87
86
86
86
86
86
85
85
85
85
85
85
85
84
84
84
84
84
83
83
84
84
84
84
84
84
84
84
85
85
85
85
85
84
85
85
85
84
84
84
84
84
84
83
83
82
82
81
82
82
81
80
80
80
80
79
80
79
79
79
79
79
79
79
79
79
79
80
80
80
80
81
81
81
81
81
81
81
82
82
82
82
82
82
82
82
82
82
81
81
81
80
80
80
80
80
80
79
79
79
79
79
78
79
78
78
78
78
78
78
78
77
77
77
77
77
77
77
77
77
76
76
76
76
76
76
76
76
76
76
75
75
75
75
75
75
75
75
75
75
75
76
76
76
76
76
75
75
76
76
76
76
75
75
75
74
74
74
74
74
74
73
73
72
72
72
71
71
71
71
71
71
71
70
71
71
71
71
70
71
72
71
72
72
71
72
72
73
73
73
73
72
72
73
73
74
73
73
73
73
73
73
73
73
74
74
74
74
74
74
74
74
74
74
74
74
73
72
72
72
73
73
73
72
72
72
72
72
72
72
72
72
72
73
73
74
74
74
75
74
75
75
76
76
76
76
77
77
78
78
78
79
79
79
79
79
79
79
79
80
79
79
80
80
80
80
81
81
81
81
81
83
83
83
83
84
84
85
85
85
86
87
87
87
87
88
87
87
88
87
87
86
86
86
86
85
85
84
84
83
83
83
83
82
82
80
80
80
80
79
79
78
78
78
77
77
76
76
76
75
75
74
74
73
73
73
72
72
71
71
70
70
69
69
68
67
67
67
66
65
65
65
65
64
64
64
64
64
63
63
63
62
62
63
62
62
62
62
62
62
62
61
61
61
61
61
61
61
61
61
61
61
61
61
61
61
61
61
61
61
61
62
62
61
61
60
61
61
61
60
60
61
60
60
59
59
59
58
57
57
56
56
55
54
53
52
52
52
50
49
49
48
47
46
46
45
45
45
45
46
47
48
50
52
54
57
60
63
66
70
73
78
81
86
92
97
103
108
114
121
126
132
137
144
149
154
160
164
169
173
177
181
183
186
189
190
191
193
193
194
194
195
194
194
194
193
192
192
191
188
188
186
184
182
180
178
176
173
170
168
166
162
160
156
153
150
147
144
141
138
134
131
128
125
122
119
116
112
110
106
104
100
98
95
92
90
87
86
83
82
79
77
75
74
73
72
71
69
68
68
67
66
65
64
63
63
62
61
61
60
58
58
57
57
56
56
55
55
55
55
55
55
55
55
56
56
56
57
57
58
57
58
58
58
58
59
58
58
58
59
58
58
58
58
58
57
57
58
57
57
57
55
56
56
55
55
56
56
56
56
55
55
55
55
55
55
55
55
55
54
54
55
56
55
55
55
55
55
55
55
56
56
56
56
56
56
57
57
57
57
58
58
58
58
58
58
58
58
58
58
58
58
58
58
58
57
57
57
58
58
58
58
58
58
58
58
58
58
58
58
58
58
58
58
59
58
58
59
59
59
59
60
59
59
59
59
59
60
60
61
61
61
61
61
62
62
63
63
64
64
66
66
67
67
68
68
69
69
69
71
71
71
72
72
72
73
72
73
73
73
72
72
71
72
71
71
70
70
70
70
70
69
70
70
70
69
70
70
70
70
71
71
72
73
72
73
73
73
74
74
75
76
76
76
77
77
77
77
78
78
78
78
80
79
80
80
80
81
81
81
82
82
82
82
82
82
83
82
82
83
83
83
83
83
83
83
84
84
84
84
86
86
86
87
88
88
89
90
90
91
91
91
92
92
92
93
92
92
93
92
92
92
92
92
92
91
91
90
90
90
90
89
90
90
90
89
90
89
89
89
89
89
89
89
89
90
89
89
89
88
88
87
87
87
86
86
85
85
85
84
83
83
83
82
81
81
80
81
81
80
79
79
78
78
77
76
75
75
74
74
73
72
72
71
70
70
70
68
68
68
67
66
66
66
66
65
65
64
64
64
64
63
63
62
62
61
61
61
61
60
60
59
59
59
59
59
59
59
59
58
58
57
57
57
56
56
56
56
56
56
55
55
54
54
53
53
53
52
52
52
51
51
51
51
51
51
51
51
51
51
50
50
50
50
49
49
49
49
48
48
48
49
49
49
49
48
48
49
48
48
48
48
49
49
49
50
50
50
50
49
50
50
50
50
50
50
51
51
50
51
51
51
51
51
51
51
51
51
51
51
51
51
51
51
51
51
51
52
52
52
52
52
52
52
52
52
52
52
52
52
52
52
51
51
51
50
51
50
50
49
49
49
49
48
48
48
47
47
47
47
47
46
46
47
47
46
47
47
46
45
46
46
46
46
46
46
45
46
46
46
46
46
46
47
47
47
47
47
46
46
47
46
46
47
47
47
47
47
47
47
48
48
48
48
48
48
48
48
47
47
47
47
47
47
46
46
46
45
44
44
44
43
42
42
42
42
41
41
41
40
40
40
39
40
40
40
40
40
40
41
41
42
42
42
43
43
44
44
45
45
46
45
46
46
46
46
45
46
46
45
45
45
45
45
44
44
44
43
43
43
43
43
43
42
43
43
42
42
42
42
42
42
42
42
42
42
42
42
42
41
42
42
42
41
41
41
41
41
40
40
40
40
40
40
39
39
38
39
39
39
39
38
38
38
38
38
39
39
39
39
40
40
40
40
40
41
41
41
41
41
41
41
41
41
42
42
42
43
43
43
43
43
44
44
44
44
44
43
44
44
44
44
43
43
43
43
42
42
41
41
41
42
41
41
41
41
40
40
40
40
40
40
40
40
40
40
39
39
39
39
39
40
40
39
39
39
39
39
39
39
39
39
40
40
40
40
40
40
41
41
42
42
43
43
43
44
44
45
45
45
46
46
47
48
48
49
49
50
50
51
51
51
51
52
52
52
54
54
54
54
54
54
55
54
54
54
54
54
54
54
54
54
53
54
54
53
53
53
53
53
54
53
53
53
53
52
52
52
51
51
51
51
50
50
50
49
49
48
48
48
48
47
47
47
47
47
47
46
45
45
44
44
43
43
42
42
41
41
40
39
39
39
37
37
37
37
37
37
36
36
36
35
35
36
35
35
36
36
35
35
35
34
35
34
34
34
33
33
33
32
32
32
32
32
32
31
32
31
31
32
32
32
32
31
32
32
32
32
32
32
32
32
32
31
31
31
31
31
31
31
31
30
31
30
30
30
30
29
29
28
28
27
27
26
25
25
24
23
22
21
21
20
20
19
18
18
18
18
19
20
22
23
25
27
29
32
35
39
42
47
50
55
60
66
70
75
81
87
93
99
105
111
118
125
130
136
141
146
151
155
159
163
166
169
171
173
174
175
175
175
175
174
174
173
171
170
169
167
164
162
160
158
155
152
150
147
145
142
140
137
134
132
128
126
123
120
117
114
112
109
107
104
101
98
96
94
90
87
85
81
78
75
72
69
67
64
61
58
56
53
51
48
46
45
43
42
40
40
39
38
37
37
37
36
36
35
35
35
35
35
35
35
34
34
34
33
32
32
32
33
32
32
32
31
31
31
30
30
30
30
30
30
30
30
29
31
31
31
31
31
32
32
32
33
33
34
34
35
34
35
35
35
35
35
35
34
34
34
33
34
34
34
34
33
33
32
32
33
33
33
33
33
33
33
34
34
34
34
34
34
35
35
35
34
34
34
34
34
34
34
34
34
34
33
33
32
32
32
31
32
32
31
32
32
32
32
31
32
32
32
33
33
33
34
33
34
34
34
34
34
35
36
36
36
37
37
37
37
37
38
38
38
39
39
40
40
40
40
41
41
41
41
41
41
41
40
40
41
40
40
40
40
39
40
39
39
39
39
39
39
40
41
41
41
41
42
42
43
43
44
45
45
46
47
47
47
48
48
48
48
49
50
50
50
51
51
52
51
52
52
53
54
54
54
54
55
56
56
56
56
57
57
58
58
58
58
59
59
59
60
60
60
60
61
61
62
62
62
62
62
63
63
64
64
64
65
65
65
65
65
65
66
66
67
67
67
68
67
68
68
69
70
70
70
70
70
71
71
71
71
71
71
72
71
71
71
71
72
72
72
71
70
71
71
70
71
71
71
70
70
70
71
70
71
70
71
70
70
70
70
69
69
69
69
69
68
69
68
68
68
68
67
66
66
66
66
65
64
64
63
62
62
61
61
60
60
59
59
59
58
57
57
56
55
55
55
54
54
54
53
54
54
53
52
52
51
51
50
50
50
49
49
49
49
47
47
46
46
46
46
45
45
44
44
43
43
42
42
42
41
41
41
40
40
40
39
39
38
38
38
37
36
36
37
37
36
36
36
37
37
38
38
38
37
37
37
38
38
38
38
38
39
38
38
38
38
38
38
38
38
38
37
37
37
37
37
37
37
36
36
35
35
35
35
35
35
35
35
34
34
35
35
34
35
35
35
35
35
36
36
36
36
37
37
37
37
37
38
37
37
37
37
36
36
36
36
36
36
35
35
34
35
34
34
34
34
34
34
34
34
34
34
35
35
34
35
35
35
35
35
35
36
36
36
35
37
37
37
38
38
38
38
38
39
39
39
39
38
38
38
38
39
38
38
38
37
37
37
37
36
36
36
37
36
36
36
36
35
35
35
36
36
36
35
36
36
36
36
36
36
36
36
36
36
36
37
37
37
37
37
37
36
37
36
36
37
37
37
38
37
37
38
37
37
37
37
36
37
37
37
37
37
37
36
36
36
35
36
36
36
36
35
35
36
36
36
35
35
34
35
35
35
35
35
35
35
35
35
35
35
35
35
35
35
35
34
34
34
34
34
34
33
33
33
33
33
33
32
33
33
33
33
33
32
33
33
33
32
32
32
32
33
33
32
33
33
33
32
33
33
33
33
33
33
33
34
34
34
35
35
35
35
35
35
35
35
35
35
35
35
35
35
35
35
35
34
34
34
33
33
33
33
33
33
32
32
32
32
32
33
32
32
32
32
32
32
32
32
32
32
33
32
32
33
33
33
33
33
34
35
35
36
36
37
37
37
37
37
38
38
38
38
38
38
39
38
38
38
37
37
37
37
36
37
36
36
35
35
36
36
35
36
36
37
37
37
37
38
38
40
40
41
41
41
43
43
44
44
44
45
45
46
46
47
47
47
48
48
48
48
49
49
50
49
50
50
51
51
51
51
50
50
50
50
50
50
50
50
49
49
48
48
48
47
48
46
46
47
46
46
46
46
46
45
45
45
45
45
45
45
45
45
44
44
44
43
43
42
42
41
40
40
39
39
37
36
36
36
35
34
34
34
33
33
33
32
31
31
31
31
31
32
32
32
32
32
32
32
31
31
31
32
32
32
32
32
32
32
32
32
31
31
31
30
30
30
30
29
30
29
29
29
28
28
28
28
28
27
27
28
27
27
28
27
27
27
27
27
27
27
27
26
26
27
26
26
26
25
25
24
24
23
23
22
21
20
20
20
18
17
16
15
15
14
14
13
14
13
14
14
15
17
19
20
23
25
28
31
35
38
42
45
50
54
59
64
68
73
78
84
90
95
101
106
113
118
123
128
133
137
141
144
148
151
153
155
158
159
160
160
160
160
159
158
157
156
155
154
151
149
147
145
142
141
138
136
132
130
127
124
121
118
116
112
110
107
104
101
97
95
92
88
85
82
79
76
73
70
67
64
61
58
55
53
50
47
45
43
42
40
38
37
35
35
34
33
33
33
32
31
32
31
31
31
31
31
30
30
30
30
30
30
29
30
29
30
30
29
29
29
30
29
29
29
29
29
29
30
29
29
29
29
29
28
28
28
28
28
27
27
28
28
27
27
27
27
27
27
27
26
26
26
27
27
26
27
26
26
27
27
27
28
28
28
29
29
29
30
30
30
30
31
31
31
32
32
32
32
32
33
33
32
32
33
33
33
32
33
33
33
33
33
32
32
31
32
30
30
30
29
29
30
29
29
28
29
28
28
29
29
29
29
30
30
30
30
30
32
32
33
33
33
33
34
34
35
35
35
36
36
36
36
36
36
36
36
36
36
36
36
36
36
36
36
36
37
37
36
37
36
37
37
37
37
38
37
37
37
38
38
38
39
39
39
39
39
39
40
40
40
40
40
41
41
42
42
42
42
42
43
43
43
44
43
43
43
44
43
44
45
44
45
45
46
46
46
46
47
47
48
48
49
50
50
50
51
52
52
52
52
52
52
52
52
53
53
53
54
54
54
54
54
54
54
54
55
55
55
56
56
56
57
57
57
58
59
59
59
60
59
60
61
61
61
61
61
62
62
62
63
62
63
63
63
63
62
62
62
61
62
62
61
61
61
61
61
61
61
61
62
61
61
62
62
62
62
62
62
62
62
62
62
62
62
61
61
61
60
60
60
59
58
57
56
56
55
54
53
53
52
52
51
50
50
49
49
49
48
48
47
46
46
46
45
45
44
44
44
43
43
42
42
42
41
40
40
38
38
38
37
37
36
35
34
34
33
33
32
32
31
31
31
31
30
29
29
29
29
29
28
28
27
27
26
26
25
25
24
24
24
22
22
22
22
21
21
21
20
20
20
20
21
21
21
22
22
22
22
22
23
23
23
23
24
24
24
24
24
23
23
23
22
22
21
22
21
21
19
19
19
18
19
19
18
19
18
19
19
19
20
20
20
20
21
21
20
20
21
21
21
21
21
22
22
22
21
21
21
21
20
20
20
20
20
20
20
19
19
19
19
18
18
17
17
17
17
17
16
16
16
16
16
16
17
16
17
17
18
18
18
18
18
18
19
19
19
19
20
19
19
19
19
19
19
19
19
19
19
19
19
18
18
19
19
19
18
18
18
18
18
17
17
17
18
17
17
17
17
18
17
18
18
17
18
18
18
18
18
18
18
18
18
18
18
18
18
17
17
17
16
15
15
14
14
13
12
12
11
11
10
10
10
10
10
9
9
10
10
10
10
10
11
12
12
13
12
14
14
14
14
15
15
16
16
16
16
16
17
17
17
17
17
17
17
16
15
15
16
16
15
15
14
14
14
13
13
13
12
11
11
11
10
10
10
10
9
10
9
9
9
9
9
9
8
8
8
8
8
8
8
8
8
8
8
8
8
9
9
9
9
9
9
9
9
9
9
10
9
9
9
10
10
10
10
10
10
10
11
10
10
10
11
10
11
10
10
10
9
9
10
9
9
9
9
9
9
8
9
9
9
8
8
8
8
7
7
7
6
7
7
6
6
6
6
6
6
6
6
5
5
5
6
6
6
6
7
6
6
7
7
7
8
8
8
8
8
9
9
9
10
11
11
10
11
10
11
11
11
12
11
12
12
12
12
12
12
12
12
13
13
13
14
14
15
15
16
16
17
16
17
17
19
19
19
19
19
20
20
21
20
21
21
21
21
21
21
21
21
21
21
20
21
21
21
20
20
20
20
20
20
21
21
20
22
22
22
22
21
22
22
22
22
22
21
21
21
21
21
21
20
20
19
18
18
18
16
16
16
15
14
14
14
12
12
11
11
11
10
9
9
9
8
9
7
7
7
7
6
6
5
5
4
4
4
3
3
2
3
2
2
2
1
1
1
1
1
1
0
0
0
-1
-1
-1
-1
-1
-1
-2
-2
-2
-2
-3
-3
-4
-4
-4
-5
-5
-5
-6
-6
-6
-6
-6
-7
-7
-7
-7
-7
-6
-6
-6
-6
-6
-5
-5
-5
-4
-4
-5
-5
-5
-5
-5
-6
-6
-8
-8
-9
-11
-12
-13
-14
-15
-16
-17
-17
-18
-19
-19
-20
-19
-18
-17
-16
-15
-13
-11
-9
-6
-4
-1
3
6
10
14
18
23
28
33
39
44
50
55
60
65
70
76
81
87
93
98
102
106
110
114
117
120
122
124
126
127
128
129
129
130
129
130
129
130
128
127
127
125
124
122
120
118
116
114
112
109
106
104
101
99
96
92
90
87
83
81
78
75
72
70
66
64
61
58
55
52
48
46
42
39
36
33
30
28
25
23
22
20
17
16
14
12
11
10
9
7
7
5
4
4
3
3
2
1
1
0
0
-1
-2
-2
-3
-3
-3
-3
-3
-4
-3
-4
-4
-4
-4
-3
-3
-2
-2
-1
-1
-1
-2
-1
-1
-2
-2
-2
-1
-2
-3
-2
-3
-3
-4
-5
-4
-4
-5
-5
-6
-6
-6
-6
-6
-7
-7
-7
-7
-7
-7
-7
-6
-6
-6
-5
-5
-5
-6
-5
-6
-5
-5
-4
-4
-4
-5
-4
-4
-4
-3
-3
-3
-3
-3
-3
-3
-3
-2
-3
-3
-3
-2
-3
-3
-2
-2
-2
-2
-2
-2
-2
-2
-2
-2
-1
-2
-2
-2
-2
-2
-2
-1
-1
-1
-1
-1
-1
-1
-1
0
0
0
0
0
0
0
1
1
1
1
1
2
2
2
2
2
2
2
2
2
3
3
2
3
3
3
3
4
4
4
4
4
5
4
4
5
5
5
6
6
7
7
7
8
8
7
8
8
8
8
9
8
9
9
10
9
9
9
9
10
9
10
10
11
11
11
12
13
14
14
14
15
16
16
17
17
17
17
18
18
19
20
20
20
20
20
20
21
21
21
21
22
21
22
22
22
22
22
23
23
23
24
24
24
25
25
25
25
25
27
27
27
28
28
28
28
28
28
29
29
29
30
31
31
32
32
32
32
32
33
33
33
33
33
33
32
33
33
33
33
32
32
31
31
31
31
31
30
30
30
30
30
29
30
29
30
30
30
30
30
30
30
31
31
31
31
32
31
32
32
31
32
31
32
31
31
31
30
30
30
29
29
29
28
28
28
28
27
27
26
25
25
24
23
23
22
21
21
20
19
18
18
17
16
15
14
14
12
12
11
11
10
9
9
9
8
8
8
8
7
7
6
7
6
6
6
6
5
5
6
5
5
4
4
5
4
4
4
3
3
1
2
2
1
1
0
0
0
0
0
-1
-1
-1
-2
-1
-1
-2
-2
-1
-2
-1
-1
-1
-1
0
0
0
0
0
1
1
0
0
0
0
0
0
0
0
0
0
-1
-1
-1
-1
-2
-1
-2
-2
-4
-4
-4
-5
-5
-6
-6
-6
-6
-6
-6
-6
-7
-6
-7
-6
-6
-6
-5
-5
-5
-5
-4
-5
-5
-5
-5
-5
-5
-4
-4
-4
-4
-3
-3
-3
-3
-3
-3
-3
-2
-2
-1
-2
-2
-2
-1
-1
-1
0
0
0
0
0
0
0
0
0
0
0
0
-1
0
-1
0
0
0
-1
-1
-1
0
-1
-1
-1
-1
-1
0
0
-1
-1
-1
-1
-2
-1
-1
-2
-2
-2
-2
-3
-3
-4
-4
-4
-4
-4
-4
-5
-5
-5
-5
-5
-5
-5
-5
-5
-4
-4
-4
-4
-4
-4
-4
-4
-4
-4
-4
-3
-3
-3
-4
-4
-4
-3
-3
-4
-4
-4
-4
-4
-4
-4
-4
-4
-4
-4
-4
-5
-5
-5
-5
-6
-6
-6
-6
-6
-7
-7
-8
-9
-9
-9
-9
-8
-8
-8
-8
-8
-8
-8
-8
-9
-8
-8
-7
-7
-7
-8
-7
-7
-8
-8
-8
-8
-8
-8
-8
-8
-8
-8
-9
-9
-8
-8
-8
-8
-8
-8
-8
-7
-7
-6
-6
-5
-5
-5
-4
-4
-4
-4
-4
-4
-4
-3
-5
-5
-5
-5
-5
-5
-5
-6
-6
-7
-7
-6
-6
-7
-7
-7
-7
-7
-7
-6
-6
-6
-5
-6
-6
-6
-6
-5
-5
-6
-6
-6
-6
-6
-6
-6
-7
-7
-7
-8
-8
-8
-8
-9
-9
-9
-8
-8
-8
-8
-8
-8
-8
-8
-8
-8
-8
-8
-9
-9
-9
-9
-9
-10
-10
-10
-9
-10
-10
-10
-10
-9
-9
-10
-9
-8
-9
-9
-8
-8
-7
-6
-7
-6
-6
-6
-5
-5
-4
-4
-3
-3
-3
-2
-2
-2
-2
-1
-2
-1
-1
-1
0
0
-1
-1
0
-1
-1
-1
0
-1
-1
-1
0
0
-1
0
1
1
1
1
1
2
2
3
3
4
4
5
5
6
6
6
8
8
8
8
9
9
9
9
9
10
9
9
10
9
10
10
9
9
9
8
8
8
8
8
8
8
8
8
7
7
6
6
6
6
6
6
5
5
5
5
4
4
3
3
2
2
1
0
0
0
-1
-2
-3
-3
-4
-4
-5
-6
-6
-6
-7
-7
-8
-7
-7
-8
-8
-8
-7
-8
-8
-8
-9
-9
-10
-9
-9
-10
-10
-10
-10
-10
-11
-11
-11
-12
-12
-11
-12
-12
-12
-12
-11
-11
-10
-10
-10
-10
-10
-9
-10
-10
-10
-10
-10
-10
-10
-11
-11
-11
-12
-12
-13
-13
-13
-13
-14
-14
-14
-13
-14
-14
-15
-15
-15
-16
-15
-16
-17
-17
-17
-18
-19
-20
-21
-22
-23
-23
-25
-26
-26
-26
-27
-27
-26
-26
-25
-24
-23
-22
-20
-18
-16
-12
-9
-6
-2
2
7
11
16
21
26
33
38
44
50
55
61
67
72
78
83
88
95
99
104
108
113
116
119
122
124
125
126
127
127
128
127
126
126
126
125
123
122
119
118
116
114
112
109
107
105
102
100
97
95
92
89
87
84
82
80
77
75
71
69
67
64
62
59
56
52
49
46
44
40
37
33
30
28
25
23
20
18
15
14
12
10
8
6
4
2
1
0
-1
-2
-2
-3
-3
-3
-4
-5
-6
-5
-6
-6
-7
-6
-6
-6
-7
-7
-6
-7
-6
-7
-8
-8
-8
-9
-8
-9
-8
-8
-9
-9
-10
-9
-10
-10
-10
-10
-11
-10
-10
-9
-9
-9
-10
-10
-9
-9
-9
-9
-9
-9
-9
-9
-9
-9
-9
-9
-9
-9
-9
-9
-9
-9
-9
-9
-9
-10
-10
-9
-9
-9
-9
-8
-8
-9
-9
-8
-8
-7
-8
-8
-8
-7
-7
-7
-7
-7
-6
-6
-7
-7
-7
-6
-7
-7
-7
-7
-7
-7
-6
-6
-6
-6
-6
-6
-6
-5
-5
-5
-4
-4
-3
-3
-3
-2
-2
-1
-1
-1
0
-1
-1
-1
-1
-1
-1
-1
0
-1
-1
-1
-1
-1
-1
-1
-1
-1
-1
-1
-1
0
0
0
0
0
0
0
0
0
0
1
1
1
2
2
2
2
2
3
4
4
4
4
4
5
5
6
6
6
7
7
8
8
8
9
9
10
10
11
11
12
12
13
14
14
14
13
14
14
14
14
15
14
15
14
15
15
15
15
15
15
15
16
16
17
16
17
17
18
18
18
19
20
21
21
21
22
22
22
23
24
24
24
24
25
25
26
25
26
26
26
27
27
27
27
28
28
27
27
28
28
28
28
28
28
28
28
29
29
29
28
28
28
28
28
29
28
28
29
29
29
29
29
29
29
29
30
30
31
30
31
31
32
32
33
33
34
33
34
34
34
34
33
34
34
35
34
34
34
34
33
34
33
33
33
33
32
32
31
30
30
30
30
28
27
27
26
25
25
24
23
22
22
21
21
20
19
19
18
18
19
18
18
17
17
17
17
16
16
16
15
15
14
14
13
12
12
11
11
10
9
9
8
8
7
6
5
4
5
4
3
3
3
3
2
2
2
2
1
1
1
0
1
0
1
1
1
1
1
1
1
1
1
1
2
2
2
3
2
2
2
2
2
1
2
1
1
1
1
1
1
0
0
0
-1
-1
-1
-1
-1
-1
-2
-1
-1
-1
-1
-2
-1
-1
-1
-1
-1
0
0
0
0
0
0
-1
0
-1
-1
-1
-1
-1
-1
-1
-1
-1
-1
-1
-1
-1
-1
-1
-1
-1
-1
-1
0
-1
-1
-1
0
0
0
0
0
0
0
0
0
1
0
1
1
1
1
1
2
1
2
2
2
2
2
2
3
3
3
3
3
3
3
3
3
3
3
3
3
3
2
1
1
1
1
1
1
1
1
0
0
0
0
0
0
0
1
1
1
2
2
2
3
3
3
4
4
4
4
4
4
4
4
5
5
5
4
4
3
3
3
3
3
2
2
2
2
2
1
1
1
0
0
0
0
0
0
0
0
-1
-1
-1
-2
-2
-1
-1
-2
-1
-2
-2
-1
-1
-1
0
0
1
0
1
1
1
2
3
2
3
3
3
3
3
3
2
2
2
1
2
2
1
1
1
1
0
0
0
0
0
0
0
0
0
1
1
1
1
1
1
2
1
2
2
2
2
1
1
1
2
1
1
2
2
2
2
2
2
1
1
1
1
1
1
1
2
2
2
1
1
2
2
2
2
2
1
1
1
1
1
1
1
1
1
1
0
0
0
0
0
-1
-1
-1
-1
-1
-1
0
0
0
0
1
1
1
0
1
1
1
1
1
1
1
1
1
1
1
1
1
1
1
0
0
0
1
1
1
1
2
3
3
3
4
4
4
5
6
6
7
7
8
7
8
8
9
9
10
9
10
10
10
11
11
11
12
12
12
13
14
14
15
16
16
17
18
18
18
19
19
20
20
20
20
20
21
21
21
21
21
21
21
21
21
21
20
21
20
20
21
20
20
20
20
20
21
20
21
20
21
21
20
20
21
20
21
21
21
21
21
20
21
20
19
18
18
17
17
16
15
15
14
12
11
10
9
8
8
7
5
5
5
4
3
3
3
4
3
3
3
3
4
5
5
5
5
5
5
5
5
5
5
4
4
4
4
4
4
3
3
3
2
2
1
1
0
0
0
0
-1
-1
-1
-1
-1
-1
-1
-1
-1
-1
-1
-1
-1
-1
-1
-1
-1
-2
-2
-2
-1
-2
-2
-3
-2
-2
-2
-2
-2
-2
-2
-1
-1
-1
-1
-1
-2
-3
-3
-4
-5
-6
-6
-7
-9
-9
-10
-10
-10
-11
-11
-10
-11
-9
-9
-6
-5
-2
0
3
6
10
12
16
20
25
30
34
40
45
51
56
61
67
73
79
83
89
95
100
106
110
114
119
123
126
129
131
134
135
136
138
138
137
137
136
135
135
133
132
131
129
127
125
123
120
118
116
114
111
109
107
104
102
98
96
93
90
87
84
81
78
75
72
69
66
63
59
56
53
50
47
44
41
39
36
32
30
28
26
24
23
22
20
19
17
16
15
14
13
12
11
10
10
9
9
8
8
8
7
7
7
7
6
6
6
7
7
7
7
7
7
6
6
7
7
7
7
6
7
7
7
7
6
6
7
7
6
7
7
7
8
8
9
8
8
9
9
9
9
10
10
10
9
9
10
10
10
10
10
9
9
9
9
9
10
10
10
10
10
10
10
10
9
9
9
9
10
10
9
9
10
10
9
9
10
10
10
10
10
10
10
10
10
11
11
11
11
12
12
12
12
12
13
13
13
14
14
14
14
15
14
15
15
15
15
15
15
15
15
14
14
15
15
14
14
14
15
14
15
15
15
15
16
16
17
17
17
18
18
18
18
19
19
20
20
21
21
21
22
22
22
22
23
23
23
23
24
25
25
25
25
26
26
25
26
26
27
26
26
27
27
27
28
28
28
27
28
28
28
29
29
28
29
29
30
30
30
30
30
31
31
31
33
33
33
34
35
35
36
36
37
37
37
38
39
39
40
39
40
40
39
39
40
40
40
40
40
40
40
40
40
41
42
42
42
42
43
43
43
44
44
45
45
45
45
46
46
46
46
47
47
48
48
49
49
50
49
51
51
51
52
52
52
53
53
53
54
54
53
54
54
54
53
53
53
52
52
52
51
51
51
51
51
50
51
50
50
49
50
50
49
50
50
50
50
50
50
51
51
51
50
51
51
50
51
50
51
50
50
49
49
48
48
47
46
47
46
45
45
44
43
42
41
41
41
40
40
39
39
38
37
36
36
36
35
35
34
34
34
34
33
33
32
32
31
31
31
30
30
29
29
29
29
28
28
27
27
26
25
25
25
24
24
24
23
23
23
23
23
23
23
23
23
23
23
23
23
23
23
23
22
22
21
22
22
21
20
20
20
19
18
18
18
18
18
18
18
18
18
18
18
18
18
18
18
19
19
19
19
19
19
19
19
19
19
18
18
18
18
18
18
17
17
17
19
19
19
20
20
20
19
20
20
21
21
21
21
22
21
22
22
22
22
20
20
21
20
20
19
19
20
19
19
19
18
18
18
18
18
19
19
19
19
19
19
19
19
20
19
20
20
20
20
20
20
20
20
20
20
21
21
21
21
21
22
21
21
22
22
22
22
23
23
22
22
22
23
23
23
23
24
23
23
23
23
23
23
23
23
23
23
23
23
23
22
22
23
23
23
22
22
23
23
22
22
22
23
22
23
23
23
24
24
24
24
24
24
24
25
25
25
25
25
25
25
25
25
25
24
24
24
24
23
23
23
22
22
21
21
21
20
20
19
19
19
18
18
19
18
18
18
18
18
18
18
19
18
18
18
18
17
17
17
18
18
18
19
19
19
19
20
20
20
20
20
20
21
21
21
21
21
22
22
22
22
23
23
24
24
23
23
24
23
23
23
23
23
23
22
22
22
21
21
21
20
20
19
19
19
19
19
19
19
19
19
19
19
19
19
19
19
18
19
19
19
20
20
21
22
22
23
23
23
23
22
23
22
23
24
23
23
22
22
22
22
21
20
20
19
19
18
18
18
18
17
17
17
17
16
17
17
17
17
17
18
18
18
19
19
19
20
20
20
21
21
21
22
23
22
23
23
23
24
24
25
25
25
26
26
27
27
27
27
29
29
30
30
31
31
32
32
33
33
34
36
36
36
38
38
39
39
40
41
41
41
41
42
41
41
42
41
41
41
40
40
39
39
38
38
38
36
36
36
35
35
34
35
35
34
34
34
34
34
35
36
36
37
36
36
36
35
35
35
35
35
35
34
34
33
33
31
30
29
27
27
26
24
24
23
21
21
20
19
19
18
18
17
17
17
17
18
17
17
17
18
18
18
18
17
18
18
18
18
18
18
18
17
18
18
18
18
18
18
18
18
17
17
17
17
17
17
17
17
16
16
16
16
16
16
16
16
16
16
16
16
15
15
15
14
14
14
14
14
13
14
13
13
12
13
12
11
12
11
11
10
9
9
8
8
7
6
6
5
5
5
4
4
4
4
5
5
6
8
9
11
13
15
17
19
23
26
30
33
37
42
46
51
55
60
66
71
77
82
87
94
98
104
109
113
118
122
126
130
133
135
138
139
142
142
144
144
144
144
144
143
143
142
142
140
139
137
135
133
131
129
127
125
122
120
116
114
111
109
106
103
100
97
94
91
88
86
82
79
77
74
71
68
65
62
59
57
54
51
48
45
43
40
38
35
34
32
30
30
28
27
26
25
24
25
24
23
23
22
22
22
21
21
20
19
20
19
19
18
17
18
17
16
17
16
16
15
15
15
15
15
14
15
15
15
15
15
16
15
15
15
15
15
15
15
15
15
14
14
15
15
15
15
14
15
15
15
16
16
16
16
16
17
17
17
17
17
17
17
17
18
18
17
18
18
18
17
17
17
17
16
16
17
17
16
16
16
16
16
15
15
16
16
16
16
16
16
16
16
16
17
17
17
17
17
18
19
19
19
20
20
20
20
21
21
21
21
21
22
23
23
23
23
23
23
24
24
24
24
25
25
24
25
25
25
25
26
25
26
26
26
26
27
27
26
26
26
27
27
27
27
27
27
27
28
28
28
28
28
28
28
28
28
28
28
29
28
28
29
29
29
30
29
29
29
29
30
30
30
30
31
31
31
32
32
32
32
32
32
32
33
33
33
33
33
34
34
35
34
35
35
35
35
36
36
37
37
38
38
39
40
40
41
41
41
42
42
43
43
44
43
44
45
44
45
45
45
46
46
46
47
48
48
48
48
49
49
49
50
50
50
51
51
52
52
52
53
53
53
54
54
54
54
54
55
55
55
55
56
56
56
55
55
55
54
54
55
55
55
55
55
55
55
54
55
54
55
54
55
55
55
55
54
55
55
54
55
54
54
53
54
53
53
53
52
52
51
51
51
51
50
50
49
50
49
49
48
48
47
47
47
46
46
46
45
44
44
43
43
42
43
42
41
41
40
39
38
37
36
36
36
35
34
34
34
33
31
31
30
29
28
28
27
26
25
25
24
23
23
21
21
20
20
20
19
18
18
18
17
17
17
17
17
17
18
18
18
18
17
17
18
17
18
18
19
19
18
18
18
19
19
18
18
17
18
18
18
17
17
17
17
17
17
17
17
16
16
16
16
16
16
16
16
16
16
16
16
16
16
17
17
18
18
19
19
18
18
18
18
19
19
19
19
19
19
18
18
18
17
16
16
16
16
15
15
15
15
15
15
15
15
14
14
15
15
16
16
16
16
16
16
17
16
16
16
16
16
17
16
16
16
16
16
17
16
17
17
17
17
17
17
18
18
18
18
19
19
19
20
20
20
21
21
21
21
21
21
21
21
21
20
21
21
21
20
20
20
20
20
20
20
19
19
19
19
19
18
18
19
19
19
19
19
18
17
17
17
17
17
17
17
17
17
17
16
16
15
14
14
14
14
14
13
13
12
12
12
13
13
13
13
13
13
13
13
13
13
13
14
14
14
15
15
15
15
15
16
16
16
16
16
16
15
15
15
15
15
15
16
16
16
16
17
17
17
17
17
17
17
17
17
16
17
17
17
16
16
16
16
16
15
15
15
15
15
14
14
14
14
15
15
15
15
16
15
15
15
15
15
15
15
15
15
15
15
15
14
14
14
15
15
15
15
16
16
16
16
16
16
16
16
16
16
15
16
16
16
15
15
15
14
13
13
13
12
12
11
11
11
10
11
11
10
10
10
10
10
11
10
10
10
10
11
11
12
12
12
11
11
12
12
12
12
12
11
12
12
12
12
12
12
12
13
13
14
14
14
14
14
14
15
15
15
15
16
16
17
17
17
17
17
18
17
18
17
17
17
17
17
17
16
17
17
17
17
17
17
17
18
18
18
18
18
18
19
19
19
19
20
20
20
21
22
22
22
22
23
23
24
25
25
25
26
27
27
27
29
29
30
31
32
33
33
33
33
33
33
34
33
34
33
32
33
32
31
30
30
29
29
28
27
27
27
26
26
27
27
27
27
26
27
27
28
27
28
28
28
28
28
28
29
29
29
28
28
27
27
26
26
25
25
25
24
23
22
22
21
20
19
19
18
18
17
17
16
16
16
15
15
15
15
14
14
14
14
14
13
13
13
13
13
12
12
12
12
12
12
11
11
11
10
10
9
9
9
9
9
9
9
9
10
10
10
10
10
10
10
10
11
11
11
11
10
10
10
10
10
9
9
9
9
8
8
7
7
7
6
6
6
6
5
4
4
4
2
1
1
0
-1
-2
-3
-3
-5
-5
-6
-6
-6
-7
-7
-7
-6
-6
-4
-3
-2
1
3
5
8
