# Simple Text Format
# Sampling Rate (Hz):= 1200.00
# Resolution:= 12
# Labels:= ECG	 V5
# Age:=	58
# Gender:=	Feminino
-111
-112
-112
-112
-112
-112
-112
-113
-113
-113
-113
-114
-114
-114
-115
-115
-115
-115
-115
-116
-116
-116
-116
-116
-116
-116
-116
-117
-118
-118
-118
-118
-118
-118
-118
-118
-118
-118
-118
-118
-118
-118
-118
-118
-118
-119
-118
-118
-118
-118
-118
-118
-118
-118
-119
-119
-119
-119
-119
-119
-119
-119
-119
-119
-119
-118
-119
-119
-119
-119
-119
-119
-119
-118
-119
-118
-117
-117
-117
-116
-116
-115
-115
-115
-115
-114
-114
-114
-114
-114
-114
-114
-113
-113
-112
-112
-112
-112
-111
-111
-111
-111
-111
-111
-110
-110
-109
-109
-109
-109
-109
-109
-109
-108
-108
-108
-108
-108
-108
-108
-108
-107
-107
-107
-107
-107
-107
-107
-106
-106
-106
-106
-105
-106
-106
-106
-105
-105
-104
-104
-104
-104
-104
-105
-104
-104
-104
-104
-104
-104
-104
-104
-103
-104
-104
-104
-104
-103
-103
-103
-103
-103
-103
-103
-103
-104
-104
-103
-103
-103
-103
-104
-103
-103
-104
-104
-104
-103
-103
-104
-103
-103
-104
-103
-103
-103
-104
-104
-104
-104
-104
-104
-104
-105
-105
-105
-105
-105
-105
-105
-105
-105
-106
-105
-105
-105
-105
-105
-105
-106
-105
-105
-105
-105
-105
-105
-105
-105
-104
-104
-104
-105
-104
-104
-104
-104
-104
-104
-104
-104
-104
-104
-104
-104
-104
-104
-105
-105
-105
-105
-105
-105
-105
-105
-106
-106
-106
-107
-106
-106
-107
-107
-107
-107
-107
-107
-107
-107
-107
-107
-108
-108
-108
-108
-108
-109
-108
-108
-108
-108
-109
-109
-109
-109
-109
-109
-109
-109
-109
-109
-109
-108
-108
-108
-108
-108
-107
-108
-108
-108
-108
-108
-108
-107
-107
-107
-107
-107
-107
-107
-107
-107
-107
-107
-107
-107
-107
-107
-107
-107
-107
-107
-107
-108
-108
-108
-107
-107
-107
-107
-108
-108
-108
-107
-107
-108
-108
-108
-108
-108
-108
-108
-108
-108
-108
-109
-109
-109
-109
-109
-109
-109
-109
-109
-109
-109
-109
-109
-109
-109
-108
-108
-108
-109
-108
-108
-108
-107
-107
-107
-107
-107
-107
-107
-106
-106
-106
-106
-106
-106
-106
-106
-106
-106
-106
-106
-106
-106
-106
-106
-106
-106
-106
-106
-106
-106
-106
-106
-106
-107
-107
-106
-106
-107
-106
-106
-106
-106
-106
-106
-105
-105
-105
-104
-104
-104
-104
-104
-103
-103
-102
-101
-101
-101
-101
-101
-101
-100
-100
-100
-100
-100
-100
-100
-100
-99
-99
-99
-100
-100
-100
-99
-99
-99
-99
-99
-99
-99
-99
-97
-97
-98
-98
-98
-97
-97
-98
-98
-98
-98
-99
-99
-99
-99
-100
-100
-101
-101
-101
-103
-103
-103
-104
-104
-105
-105
-106
-106
-107
-107
-107
-108
-109
-109
-109
-109
-109
-109
-109
-109
-108
-108
-109
-108
-108
-108
-107
-107
-108
-107
-108
-106
-106
-107
-107
-107
-107
-107
-107
-108
-107
-107
-109
-109
-109
-109
-109
-110
-110
-110
-110
-110
-111
-110
-111
-111
-111
-111
-111
-110
-111
-111
-111
-111
-111
-111
-111
-110
-110
-111
-111
-111
-111
-111
-111
-112
-112
-111
-111
-111
-112
-111
-111
-111
-111
-111
-111
-111
-111
-111
-111
-111
-111
-111
-111
-111
-111
-111
-110
-110
-110
-109
-109
-109
-108
-107
-106
-104
-103
-102
-101
-98
-97
-95
-93
-91
-87
-85
-82
-78
-75
-71
-68
-63
-59
-54
-50
-45
-40
-35
-30
-25
-20
-16
-12
-6
-3
-1
2
4
3
2
-2
-5
-11
-18
-26
-36
-47
-60
-73
-87
-103
-120
-137
-156
-175
-193
-212
-231
-250
-267
-285
-301
-316
-331
-343
-356
-366
-377
-384
-391
-397
-401
-404
-405
-406
-406
-404
-401
-398
-393
-389
-383
-377
-370
-364
-356
-349
-341
-333
-326
-318
-310
-303
-296
-288
-281
-274
-266
-259
-253
-246
-239
-232
-226
-219
-213
-206
-201
-194
-187
-182
-177
-171
-166
-161
-156
-152
-147
-143
-140
-136
-134
-131
-128
-127
-124
-121
-120
-118
-118
-116
-115
-115
-114
-113
-112
-111
-111
-110
-110
-110
-110
-109
-108
-108
-108
-108
-108
-107
-107
-106
-106
-106
-105
-105
-105
-105
-104
-103
-104
-104
-103
-103
-103
-103
-102
-102
-102
-102
-101
-101
-101
-101
-101
-101
-101
-100
-100
-100
-99
-99
-100
-99
-99
-98
-98
-99
-99
-97
-97
-97
-97
-96
-96
-96
-96
-96
-95
-95
-95
-94
-95
-95
-94
-94
-94
-93
-93
-93
-93
-92
-92
-93
-92
-92
-92
-92
-91
-91
-91
-91
-91
-91
-91
-91
-90
-90
-90
-90
-89
-89
-89
-88
-88
-88
-88
-88
-88
-88
-88
-88
-88
-88
-88
-88
-89
-89
-88
-89
-89
-89
-89
-89
-89
-89
-88
-88
-89
-88
-88
-87
-88
-88
-87
-87
-87
-87
-87
-88
-87
-87
-86
-86
-85
-85
-85
-84
-84
-84
-84
-82
-82
-82
-81
-80
-80
-79
-79
-79
-77
-77
-77
-77
-76
-76
-76
-75
-74
-74
-74
-74
-74
-73
-73
-72
-72
-71
-71
-70
-69
-69
-69
-69
-67
-67
-66
-66
-65
-64
-65
-63
-63
-63
-63
-62
-62
-62
-61
-61
-61
-61
-61
-61
-61
-61
-61
-61
-60
-60
-60
-60
-60
-59
-59
-59
-59
-59
-58
-58
-58
-58
-57
-57
-57
-57
-57
-57
-57
-57
-56
-56
-56
-56
-56
-56
-57
-57
-58
-58
-58
-58
-58
-59
-59
-60
-61
-61
-61
-61
-62
-62
-62
-62
-63
-63
-63
-63
-64
-65
-65
-65
-66
-67
-67
-68
-69
-69
-70
-70
-71
-71
-72
-72
-73
-74
-74
-75
-76
-76
-77
-77
-78
-78
-79
-79
-81
-81
-81
-81
-81
-83
-83
-83
-84
-84
-84
-85
-85
-86
-86
-86
-87
-87
-89
-89
-89
-89
-90
-90
-91
-91
-91
-92
-92
-93
-92
-94
-94
-93
-94
-94
-95
-95
-95
-95
-96
-96
-96
-96
-96
-96
-96
-96
-97
-98
-97
-98
-98
-98
-99
-99
-99
-100
-100
-101
-101
-101
-101
-101
-101
-102
-101
-102
-103
-103
-102
-102
-103
-103
-103
-103
-103
-103
-103
-103
-103
-103
-103
-103
-104
-104
-104
-103
-104
-104
-104
-104
-104
-104
-104
-105
-104
-104
-104
-104
-104
-103
-103
-103
-103
-103
-103
-103
-103
-102
-102
-102
-102
-102
-102
-102
-103
-103
-102
-103
-103
-103
-103
-103
-103
-103
-103
-103
-102
-101
-101
-101
-101
-101
-101
-99
-99
-99
-98
-98
-97
-97
-97
-97
-97
-96
-96
-95
-95
-95
-95
-95
-94
-94
-94
-94
-94
-94
-94
-94
-94
-94
-94
-93
-93
-93
-93
-93
-92
-92
-92
-91
-91
-90
-90
-89
-89
-88
-88
-88
-86
-86
-86
-86
-86
-86
-85
-85
-85
-86
-86
-86
-86
-86
-86
-86
-86
-85
-85
-86
-86
-85
-85
-85
-85
-85
-85
-85
-85
-85
-85
-84
-84
-84
-84
-84
-83
-83
-84
-84
-84
-83
-83
-84
-84
-83
-84
-84
-84
-84
-84
-84
-84
-84
-84
-84
-84
-84
-84
-84
-84
-84
-83
-83
-83
-83
-83
-83
-82
-82
-83
-82
-82
-82
-82
-81
-81
-81
-80
-81
-81
-81
-81
-81
-81
-81
-81
-81
-81
-82
-82
-83
-83
-83
-83
-84
-84
-85
-85
-85
-85
-85
-85
-85
-85
-85
-85
-85
-85
-85
-84
-84
-84
-84
-84
-84
-84
-83
-83
-83
-83
-82
-82
-82
-81
-81
-81
-81
-81
-81
-80
-80
-80
-80
-79
-79
-79
-79
-79
-79
-79
-79
-79
-79
-79
-79
-79
-79
-79
-79
-79
-80
-80
-80
-80
-80
-80
-80
-80
-80
-80
-80
-80
-80
-80
-80
-80
-80
-79
-80
-80
-80
-80
-80
-80
-80
-79
-80
-80
-80
-80
-79
-79
-79
-79
-79
-79
-78
-78
-78
-77
-77
-77
-77
-76
-76
-76
-76
-76
-76
-75
-75
-74
-74
-74
-74
-74
-74
-74
-73
-73
-73
-72
-72
-71
-71
-71
-70
-70
-70
-70
-70
-69
-68
-69
-69
-69
-68
-69
-69
-68
-68
-69
-69
-69
-70
-69
-69
-70
-70
-70
-69
-69
-69
-70
-70
-69
-69
-69
-68
-68
-67
-67
-67
-65
-65
-65
-64
-63
-63
-62
-62
-61
-61
-60
-60
-59
-58
-58
-58
-58
-57
-57
-56
-56
-55
-55
-55
-54
-55
-53
-54
-54
-52
-52
-52
-52
-52
-51
-51
-51
-51
-50
-51
-51
-51
-51
-51
-51
-51
-51
-52
-52
-51
-52
-52
-52
-53
-54
-54
-54
-55
-55
-55
-55
-57
-57
-56
-58
-58
-58
-58
-59
-59
-59
-60
-60
-59
-59
-60
-60
-59
-59
-59
-59
-59
-58
-58
-58
-57
-57
-57
-57
-57
-56
-56
-56
-56
-56
-56
-56
-56
-57
-57
-57
-57
-57
-57
-57
-57
-57
-57
-57
-57
-56
-57
-57
-57
-57
-56
-55
-56
-56
-55
-55
-55
-56
-55
-55
-55
-55
-55
-55
-54
-54
-54
-54
-54
-54
-53
-53
-53
-53
-53
-52
-51
-51
-52
-51
-51
-50
-50
-50
-50
-50
-50
-50
-50
-50
-49
-49
-49
-49
-48
-48
-47
-46
-44
-43
-42
-40
-38
-37
-35
-33
-30
-28
-25
-22
-19
-15
-11
-8
-3
1
6
10
15
21
26
31
36
42
47
52
56
60
64
67
69
70
69
67
65
60
55
47
38
28
16
3
-11
-26
-42
-60
-77
-95
-114
-132
-151
-170
-187
-205
-222
-238
-254
-267
-280
-293
-303
-312
-320
-328
-333
-338
-341
-342
-343
-343
-342
-339
-337
-332
-327
-322
-316
-309
-302
-295
-287
-279
-271
-262
-254
-246
-237
-229
-221
-212
-204
-197
-190
-182
-175
-167
-159
-152
-146
-139
-132
-125
-118
-112
-105
-100
-94
-89
-83
-77
-73
-69
-64
-60
-57
-54
-51
-48
-45
-44
-40
-38
-37
-35
-33
-33
-31
-29
-29
-27
-27
-26
-25
-24
-24
-23
-22
-21
-22
-21
-21
-20
-19
-19
-19
-18
-18
-18
-17
-16
-17
-16
-16
-15
-15
-15
-14
-14
-13
-13
-13
-12
-12
-12
-11
-11
-11
-11
-11
-11
-10
-10
-9
-9
-9
-8
-7
-7
-7
-6
-5
-5
-4
-4
-4
-4
-3
-3
-2
-2
-2
-1
-1
-1
-1
-1
-1
-1
0
0
0
1
1
1
2
2
2
3
4
4
4
3
4
4
4
5
5
5
5
5
5
6
6
7
7
8
8
9
8
8
9
10
10
10
11
11
11
11
12
12
12
12
13
13
13
13
13
14
14
14
14
15
15
15
16
16
16
16
16
16
18
18
19
19
19
19
20
20
21
21
21
22
22
22
24
24
24
24
25
25
26
26
26
28
28
28
29
30
30
31
32
33
33
33
34
34
35
36
36
37
37
37
39
39
39
40
41
41
42
42
43
44
44
44
44
46
46
46
46
46
46
46
47
48
48
47
47
48
47
48
48
47
47
48
47
48
47
48
49
49
49
49
50
50
50
50
50
52
52
52
52
53
53
54
54
55
55
55
55
56
56
56
56
56
56
56
56
56
56
55
55
54
54
53
53
53
52
52
51
51
49
49
49
48
48
47
47
46
45
45
44
44
44
44
44
43
43
43
43
42
42
42
41
41
41
41
40
40
40
39
38
38
37
36
35
34
34
33
32
32
31
30
30
28
28
27
26
26
26
25
24
24
24
24
24
24
24
24
23
23
23
23
23
23
22
23
22
22
22
22
21
21
22
21
20
20
20
19
19
19
19
18
18
18
17
17
17
18
17
17
17
17
17
17
17
16
16
15
16
15
15
15
14
14
14
14
13
13
13
13
13
12
12
12
13
12
14
13
13
13
14
15
15
15
15
16
16
15
15
15
16
15
15
16
15
15
15
15
14
14
14
14
14
14
14
13
13
14
14
14
13
13
13
14
14
14
14
14
15
15
15
15
15
15
16
16
17
17
18
18
18
19
19
19
19
20
20
21
21
22
22
22
23
23
23
24
24
24
25
25
24
25
25
25
25
25
25
26
25
25
25
26
26
26
27
27
27
28
28
28
28
29
29
29
29
29
29
29
29
29
29
29
29
28
28
29
28
28
27
27
27
27
28
28
27
28
28
28
28
28
29
29
30
30
30
30
30
30
31
31
31
31
30
30
30
30
30
30
30
30
29
29
29
29
29
28
28
28
29
29
29
28
28
28
28
28
28
28
29
29
29
29
29
29
29
29
28
28
29
28
28
28
28
28
27
27
27
26
26
26
26
26
25
25
26
25
25
26
25
25
25
26
25
25
26
26
26
26
26
27
27
27
27
27
28
28
28
28
28
28
28
27
27
27
26
26
26
26
25
25
24
24
24
24
24
23
23
22
22
22
22
21
22
22
21
21
21
21
21
21
21
22
22
21
22
22
22
22
22
22
22
22
22
22
22
23
23
23
22
22
22
22
22
22
22
23
22
22
22
22
22
21
21
21
21
21
20
20
20
19
20
20
19
19
19
19
19
18
18
18
18
18
18
18
18
18
18
18
18
18
18
18
18
19
19
19
19
19
18
18
18
18
18
18
18
19
19
19
18
18
19
19
19
20
20
20
21
21
22
22
22
22
24
24
24
24
25
25
25
25
25
24
24
25
25
24
24
24
24
24
24
23
23
23
23
23
23
24
24
23
23
24
24
24
23
23
23
23
23
23
21
21
20
20
19
18
18
17
17
15
15
14
13
13
12
11
11
11
10
9
9
9
7
7
7
8
7
7
7
7
7
8
8
8
7
8
9
8
8
8
8
8
8
9
9
9
8
7
8
8
8
7
6
6
6
6
5
5
5
5
4
4
4
4
4
4
3
2
3
3
2
2
2
2
2
2
2
2
2
2
2
2
2
2
2
1
1
1
0
0
0
1
1
1
0
0
-1
0
0
-1
-1
-1
-2
-2
-1
-1
-1
-1
-1
-1
-1
0
0
2
2
4
4
6
8
9
12
13
16
19
21
25
28
32
36
41
45
50
55
60
64
70
75
81
87
91
96
101
106
109
112
115
117
116
115
112
108
102
96
87
77
64
51
38
22
5
-12
-29
-48
-67
-88
-107
-127
-146
-164
-181
-198
-214
-229
-243
-255
-266
-276
-284
-292
-297
-302
-306
-308
-309
-309
-308
-305
-302
-298
-293
-288
-282
-276
-269
-262
-255
-247
-240
-232
-224
-216
-209
-201
-194
-187
-180
-173
-166
-159
-152
-145
-139
-132
-126
-119
-112
-106
-99
-93
-88
-82
-77
-71
-67
-62
-57
-53
-50
-46
-42
-40
-36
-33
-31
-29
-27
-26
-24
-23
-21
-21
-20
-20
-19
-19
-18
-18
-17
-17
-16
-16
-16
-16
-15
-15
-16
-15
-15
-14
-14
-13
-14
-14
-14
-13
-12
-12
-13
-13
-13
-12
-12
-12
-12
-11
-12
-12
-11
-11
-11
-11
-11
-12
-11
-11
-11
-11
-11
-11
-12
-11
-11
-11
-11
-11
-11
-11
-11
-11
-12
-12
-12
-12
-11
-11
-11
-11
-11
-11
-10
-10
-11
-10
-10
-10
-10
-9
-9
-9
-8
-8
-8
-8
-8
-9
-9
-9
-9
-8
-9
-9
-9
-8
-8
-8
-9
-9
-8
-9
-9
-9
-10
-10
-10
-9
-9
-9
-9
-9
-9
-9
-9
-8
-8
-8
-8
-8
-7
-8
-8
-8
-8
-8
-8
-7
-7
-7
-7
-7
-7
-6
-6
-6
-5
-5
-5
-5
-5
-5
-5
-5
-4
-4
-4
-4
-3
-3
-3
-3
-2
-2
-2
-2
-2
-2
-1
-1
-1
-1
0
0
0
0
0
0
1
1
1
1
1
2
2
3
3
3
3
3
4
4
5
5
5
6
6
6
5
6
6
6
6
7
6
6
7
7
7
7
7
8
8
8
7
7
7
7
8
7
7
7
7
7
8
7
7
8
8
8
8
9
9
9
9
8
8
8
9
9
8
8
8
8
8
8
8
8
8
7
7
7
7
7
5
5
5
5
5
4
4
3
2
2
2
1
1
0
-1
-2
-2
-3
-3
-4
-4
-6
-6
-7
-8
-8
-8
-9
-10
-10
-11
-12
-12
-13
-14
-14
-14
-15
-16
-16
-17
-18
-18
-19
-20
-20
-20
-21
-22
-23
-23
-24
-24
-25
-25
-26
-27
-27
-28
-29
-29
-30
-31
-32
-32
-33
-33
-34
-35
-35
-36
-36
-37
-38
-38
-39
-39
-40
-41
-41
-42
-42
-43
-43
-43
-43
-45
-45
-45
-45
-45
-45
-46
-47
-47
-48
-48
-48
-48
-49
-49
-50
-50
-50
-51
-52
-52
-53
-53
-53
-55
-55
-55
-56
-56
-57
-57
-57
-57
-58
-59
-59
-59
-59
-60
-60
-60
-60
-61
-61
-61
-62
-61
-61
-62
-63
-62
-63
-63
-63
-63
-63
-63
-63
-64
-64
-64
-64
-64
-64
-64
-64
-64
-64
-64
-64
-65
-65
-65
-65
-65
-65
-66
-66
-65
-65
-66
-66
-66
-67
-67
-67
-66
-66
-67
-67
-66
-66
-66
-66
-66
-66
-66
-67
-67
-67
-67
-67
-67
-67
-68
-68
-67
-67
-68
-68
-68
-68
-67
-68
-68
-68
-68
-68
-68
-67
-67
-68
-68
-67
-67
-67
-66
-66
-66
-66
-66
-65
-66
-66
-65
-65
-65
-64
-64
-64
-64
-64
-63
-63
-62
-62
-62
-62
-62
-62
-62
-62
-62
-62
-62
-61
-61
-62
-62
-62
-62
-62
-62
-62
-62
-63
-63
-63
-64
-64
-64
-64
-65
-65
-65
-65
-65
-65
-65
-65
-65
-65
-65
-65
-66
-66
-65
-65
-66
-66
-66
-66
-67
-67
-67
-67
-68
-68
-68
-68
-68
-69
-70
-70
-70
-70
-70
-71
-71
-71
-71
-71
-72
-72
-73
-73
-73
-73
-73
-74
-74
-74
-75
-75
-75
-76
-76
-76
-76
-76
-76
-77
-77
-78
-78
-78
-78
-79
-79
-80
-80
-80
-80
-80
-80
-81
-81
-81
-82
-82
-82
-83
-83
-83
-83
-83
-84
-85
-84
-84
-85
-85
-85
-85
-85
-85
-85
-85
-85
-86
-86
-86
-86
-86
-85
-85
-85
-85
-85
-85
-85
-86
-86
-87
-86
-86
-86
-87
-87
-87
-87
-88
-88
-88
-88
-88
-88
-89
-89
-89
-89
-89
-90
-90
-90
-89
-90
-90
-90
-90
-90
-90
-91
-91
-91
-91
-91
-91
-91
-91
-91
-91
-91
-91
-91
-91
-91
-91
-91
-91
-91
-92
-92
-92
-92
-93
-93
-93
-93
-92
-93
-93
-93
-93
-94
-94
-94
-94
-94
-95
-95
-95
-95
-95
-96
-96
-96
-96
-96
-96
-97
-97
-97
-97
-97
-98
-98
-98
-98
-98
-97
-98
-98
-98
-98
-98
-98
-98
-98
-98
-98
-98
-98
-97
-98
-97
-97
-97
-97
-97
-96
-96
-96
-95
-95
-95
-95
-95
-94
-94
-94
-94
-94
-94
-93
-94
-94
-93
-93
-93
-94
-93
-93
-93
-93
-93
-93
-93
-93
-93
-93
-93
-94
-94
-94
-94
-94
-94
-94
-95
-95
-96
-96
-96
-97
-97
-98
-98
-98
-98
-98
-99
-99
-99
-100
-100
-100
-100
-100
-101
-101
-102
-102
-102
-102
-104
-104
-104
-105
-105
-106
-106
-107
-108
-108
-108
-108
-108
-109
-110
-110
-110
-110
-110
-111
-111
-111
-111
-111
-111
-111
-112
-112
-112
-112
-112
-113
-113
-113
-113
-113
-114
-114
-115
-115
-115
-115
-116
-116
-116
-116
-117
-117
-117
-116
-117
-117
-117
-118
-118
-118
-118
-118
-119
-119
-118
-118
-118
-119
-119
-119
-120
-120
-120
-119
-119
-119
-119
-118
-119
-119
-119
-118
-118
-118
-119
-119
-119
-119
-118
-119
-119
-119
-119
-119
-118
-118
-118
-117
-116
-116
-114
-114
-112
-112
-110
-108
-107
-105
-102
-99
-96
-92
-89
-85
-82
-78
-73
-69
-64
-59
-53
-48
-44
-39
-33
-28
-23
-20
-16
-12
-10
-9
-8
-9
-12
-15
-21
-27
-36
-46
-56
-69
-83
-97
-113
-130
-148
-166
-185
-205
-224
-243
-262
-280
-298
-314
-330
-345
-358
-371
-382
-392
-401
-408
-415
-420
-423
-425
-426
-426
-426
-424
-420
-416
-411
-406
-400
-393
-386
-379
-371
-364
-357
-349
-341
-333
-326
-318
-311
-303
-297
-290
-282
-276
-269
-263
-257
-250
-243
-237
-231
-225
-218
-213
-206
-201
-195
-191
-185
-180
-176
-172
-168
-164
-160
-157
-154
-151
-148
-146
-144
-143
-140
-139
-139
-137
-136
-135
-134
-133
-133
-132
-131
-131
-130
-130
-129
-129
-128
-128
-128
-128
-128
-128
-128
-127
-128
-128
-128
-128
-127
-128
-127
-128
-128
-128
-128
-128
-127
-128
-128
-127
-127
-127
-127
-127
-126
-126
-126
-126
-126
-125
-125
-124
-124
-124
-124
-124
-124
-123
-123
-123
-123
-123
-123
-123
-122
-123
-123
-123
-122
-122
-123
-122
-122
-122
-122
-123
-123
-122
-122
-122
-122
-122
-122
-122
-122
-122
-122
-122
-122
-122
-122
-122
-122
-121
-121
-122
-122
-121
-121
-121
-121
-121
-121
-121
-122
-122
-122
-122
-122
-122
-121
-122
-122
-121
-121
-120
-120
-120
-121
-120
-120
-119
-119
-119
-119
-119
-118
-118
-118
-118
-118
-118
-117
-117
-117
-117
-117
-116
-116
-116
-116
-116
-116
-116
-116
-115
-115
-115
-115
-114
-114
-113
-113
-113
-113
-113
-113
-113
-112
-112
-112
-112
-112
-111
-112
-111
-111
-111
-111
-111
-110
-110
-109
-109
-109
-109
-109
-108
-108
-107
-107
-107
-106
-106
-106
-106
-105
-106
-105
-105
-105
-104
-104
-103
-103
-103
-102
-102
-102
-101
-101
-100
-100
-100
-99
-99
-98
-98
-98
-98
-98
-97
-97
-97
-97
-97
-97
-96
-96
-96
-96
-96
-96
-96
-96
-97
-97
-97
-98
-98
-98
-98
-98
-98
-99
-99
-99
-99
-99
-99
-99
-100
-100
-100
-101
-101
-102
-102
-103
-103
-104
-104
-105
-105
-106
-106
-107
-107
-107
-108
-109
-110
-110
-110
-111
-112
-112
-112
-113
-113
-114
-115
-115
-116
-116
-116
-117
-118
-118
-119
-120
-120
-121
-122
-123
-123
-125
-125
-127
-127
-128
-128
-130
-131
-131
-132
-133
-133
-134
-135
-135
-136
-137
-137
-137
-138
-138
-139
-140
-140
-140
-142
-142
-143
-143
-143
-144
-145
-145
-146
-147
-147
-147
-148
-149
-149
-149
-150
-151
-151
-152
-152
-152
-152
-152
-153
-153
-153
-154
-154
-155
-155
-155
-156
-156
-157
-157
-157
-158
-158
-158
-159
-159
-159
-160
-160
-161
-162
-161
-162
-163
-163
-164
-164
-164
-165
-165
-166
-166
-166
-166
-167
-167
-167
-167
-167
-168
-168
-167
-167
-168
-168
-168
-168
-167
-167
-167
-167
-168
-168
-168
-167
-167
-167
-167
-167
-168
-168
-167
-167
-167
-168
-168
-168
-168
-168
-167
-168
-168
-168
-168
-167
-167
-167
-167
-167
-167
-166
-165
-165
-165
-166
-166
-165
-165
-165
-165
-165
-164
-164
-164
-164
-164
-163
-163
-163
-164
-163
-163
-163
-163
-163
-163
-163
-163
-163
-163
-163
-163
-163
-163
-163
-163
-162
-164
-164
-164
-164
-164
-164
-164
-164
-164
-164
-164
-164
-164
-163
-163
-163
-163
-163
-163
-163
-162
-162
-161
-161
-160
-160
-161
-161
-160
-160
-160
-160
-160
-160
-160
-160
-161
-161
-161
-161
-161
-162
-161
-162
-162
-163
-163
-163
-163
-165
-164
-164
-165
-165
-165
-165
-166
-166
-166
-166
-166
-166
-166
-166
-166
-166
-166
-167
-167
-167
-167
-167
-168
-168
-167
-168
-168
-168
-168
-168
-168
-169
-169
-169
-169
-169
-169
-170
-171
-171
-171
-171
-171
-171
-172
-172
-172
-173
-173
-172
-172
-173
-173
-174
-173
-173
-173
-174
-174
-174
-174
-174
-174
-174
-174
-174
-174
-174
-174
-173
-174
-175
-175
-175
-175
-175
-175
-175
-175
-176
-176
-176
-177
-176
-176
-176
-176
-177
-176
-176
-176
-176
-176
-176
-176
-176
-177
-176
-176
-176
-176
-177
-177
-177
-178
-177
-177
-177
-178
-178
-178
-178
-179
-179
-179
-179
-179
-179
-179
-180
-180
-179
-179
-179
-180
-180
-180
-179
-180
-180
-180
-180
-180
-180
-180
-180
-180
-180
-180
-180
-180
-180
-181
-181
-180
-181
-181
-180
-180
-180
-180
-181
-181
-181
-181
-181
-181
-181
-181
-181
-181
-182
-182
-182
-181
-181
-182
-182
-182
-182
-182
-182
-182
-182
-182
-182
-182
-182
-182
-182
-182
-181
-181
-181
-181
-181
-181
-180
-180
-180
-180
-180
-179
-179
-180
-179
-179
-179
-179
-179
-179
-179
-179
-179
-178
-178
-178
-178
-178
-178
-178
-177
-177
-176
-176
-176
-176
-175
-175
-174
-174
-174
-173
-173
-172
-172
-173
-173
-172
-172
-172
-172
-172
-172
-172
-172
-172
-172
-172
-171
-172
-172
-171
-172
-172
-172
-172
-172
-172
-172
-172
-172
-172
-172
-172
-172
-173
-173
-173
-174
-174
-175
-175
-176
-176
-176
-176
-178
-178
-178
-178
-178
-179
-180
-180
-181
-181
-181
-181
-183
-183
-182
-182
-183
-183
-183
-183
-183
-184
-184
-183
-184
-183
-183
-183
-183
-183
-183
-183
-184
-184
-183
-183
-184
-184
-184
-184
-184
-185
-184
-184
-184
-185
-185
-185
-185
-185
-185
-185
-185
-185
-185
-185
-186
-186
-186
-186
-186
-187
-187
-187
-187
-187
-187
-188
-187
-188
-188
-188
-188
-188
-188
-188
-188
-187
-188
-188
-188
-188
-188
-187
-187
-187
-188
-187
-187
-187
-187
-187
-187
-187
-187
-187
-187
-187
-186
-186
-186
-186
-185
-184
-184
-182
-181
-180
-178
-176
-175
-173
-171
-168
-166
-162
-160
-157
-153
-149
-145
-141
-137
-132
-128
-124
-118
-114
-109
-103
-100
-95
-91
-86
-82
-79
-76
-75
-73
-74
-76
-79
-84
-89
-96
-105
-116
-127
-141
-156
-171
-187
-205
-223
-242
-261
-280
-301
-320
-339
-358
-375
-392
-408
-423
-437
-449
-460
-470
-479
-485
-492
-496
-499
-501
-502
-502
-500
-498
-495
-489
-485
-478
-471
-464
-457
-449
-441
-433
-424
-416
-407
-398
-390
-382
-374
-366
-358
-350
-343
-336
-329
-322
-315
-308
-301
-295
-288
-281
-274
-268
-262
-256
-250
-245
-239
-235
-229
-225
-220
-217
-212
-209
-206
-203
-200
-198
-196
-194
-192
-191
-189
-188
-188
-186
-186
-185
-185
-184
-183
-182
-182
-181
-181
-180
-180
-179
-179
-179
-179
-178
-177
-177
-177
-177
-176
-175
-175
-175
-175
-175
-174
-175
-174
-174
-174
-174
-173
-173
-173
-172
-172
-172
-172
-172
-172
-171
-172
-172
-171
-171
-171
-171
-171
-171
-170
-170
-170
-170
-170
-170
-170
-170
-169
-170
-170
-170
-169
-168
-168
-169
-168
-168
-168
-168
-168
-167
-167
-167
-167
-167
-167
-167
-167
-167
-167
-167
-167
-167
-167
-167
-167
-167
-167
-167
-167
-166
-165
-165
-165
-164
-164
-163
-163
-163
-162
-162
-162
-161
-162
-161
-161
-161
-161
-161
-161
-161
-161
-161
-161
-161
-161
-161
-161
-161
-161
-161
-161
-161
-160
-160
-159
-159
-158
-158
-157
-157
-156
-156
-156
-155
-154
-154
-154
-153
-153
-153
-152
-152
-152
-151
-151
-151
-151
-151
-151
-151
-150
-150
-150
-150
-150
-149
-149
-149
-147
-147
-147
-146
-146
-144
-144
-143
-143
-142
-142
-142
-141
-141
-140
-140
-140
-139
-139
-139
-139
-139
-139
-139
-139
-138
-138
-138
-138
-138
-137
-137
-138
-137
-137
-136
-136
-136
-136
-135
-135
-135
-134
-134
-134
-132
-132
-132
-131
-131
-130
-130
-129
-128
-127
-128
-128
-127
-127
-126
-126
-127
-127
-127
-127
-127
-127
-127
-127
-127
-128
-128
-129
-129
-129
-129
-130
-130
-130
-131
-131
-131
-131
-132
-132
-132
-133
-133
-133
-134
-134
-134
-134
-135
-135
-135
-135
-135
-137
-136
-137
-138
-138
-138
-138
-139
-139
-139
-139
-140
-140
-141
-141
-143
-143
-144
-145
-146
-146
-147
-147
-148
-149
-150
-150
-151
-151
-152
-153
-153
-153
-155
-155
-155
-156
-157
-157
-157
-157
-158
-159
-159
-160
-161
-161
-162
-162
-162
-163
-163
-163
-163
-164
-164
-165
-165
-166
-166
-167
-167
-167
-168
-169
-169
-169
-170
-170
-170
-170
-171
-171
-172
-172
-172
-173
-173
-173
-174
-174
-175
-175
-175
-176
-176
-176
-176
-176
-177
-177
-178
-178
-178
-179
-179
-179
-179
-179
-180
-180
-181
-180
-180
-181
-181
-180
-180
-180
-179
-179
-179
-179
-179
-179
-179
-178
-178
-179
-179
-178
-178
-178
-179
-179
-180
-180
-179
-179
-180
-180
-180
-181
-181
-181
-182
-182
-182
-181
-181
-181
-181
-180
-180
-180
-180
-180
-179
-179
-178
-178
-178
-178
-177
-176
-176
-176
-175
-175
-175
-175
-174
-174
-173
-173
-173
-172
-172
-172
-171
-171
-171
-171
-171
-171
-171
-171
-170
-170
-171
-171
-171
-171
-171
-170
-171
-171
-170
-170
-170
-169
-170
-170
-170
-169
-169
-169
-169
-169
-169
-169
-168
-168
-169
-168
-168
-168
-168
-167
-167
-166
-166
-166
-166
-166
-165
-165
-165
-165
-165
-164
-164
-164
-162
-163
-163
-163
-162
-162
-162
-162
-162
-161
-161
-161
-161
-162
-161
-161
-162
-161
-161
-161
-161
-162
-162
-162
-162
-162
-163
-163
-163
-163
-163
-163
-164
-164
-164
-164
-163
-163
-163
-164
-163
-163
-163
-163
-162
-162
-162
-162
-161
-161
-161
-160
-160
-161
-161
-160
-161
-161
-161
-161
-162
-162
-163
-164
-164
-164
-164
-164
-165
-165
-165
-166
-166
-166
-166
-166
-166
-166
-166
-167
-166
-166
-166
-166
-166
-166
-166
-166
-167
-167
-166
-166
-166
-166
-166
-166
-166
-166
-166
-166
-166
-166
-166
-165
-165
-165
-164
-164
-164
-164
-164
-163
-163
-163
-163
-163
-163
-163
-163
-164
-164
-164
-164
-164
-164
-164
-164
-164
-164
-165
-164
-165
-165
-165
-165
-165
-165
-164
-164
-164
-164
-164
-164
-164
-164
-164
-164
-163
-164
-164
-164
-164
-165
-165
-165
-166
-166
-165
-165
-165
-165
-165
-165
-165
-165
-164
-164
-164
-164
-163
-163
-163
-163
-163
-162
-162
-162
-163
-162
-162
-162
-162
-162
-161
-161
-161
-161
-161
-161
-161
-161
-161
-161
-160
-160
-160
-160
-159
-159
-159
-159
-158
-158
-158
-158
-157
-156
-156
-156
-154
-154
-153
-153
-153
-152
-152
-151
-151
-151
-150
-150
-150
-150
-150
-149
-149
-149
-148
-148
-148
-148
-147
-148
-148
-148
-148
-148
-148
-148
-149
-149
-149
-149
-149
-150
-150
-151
-151
-152
-152
-153
-153
-154
-154
-155
-155
-156
-156
-156
-156
-157
-157
-159
-159
-159
-159
-158
-158
-159
-160
-159
-159
-159
-160
-160
-160
-160
-160
-159
-159
-159
-159
-159
-159
-159
-159
-158
-158
-158
-159
-159
-158
-158
-159
-159
-159
-159
-159
-159
-159
-160
-160
-161
-161
-161
-162
-162
-163
-163
-164
-164
-164
-164
-164
-164
-163
-163
-164
-164
-163
-163
-163
-163
-163
-162
-162
-162
-162
-162
-162
-162
-162
-162
-162
-162
-162
-162
-162
-162
-161
-161
-161
-161
-161
-160
-161
-160
-160
-160
-160
-160
-160
-160
-160
-160
-160
-160
-160
-159
-159
-159
-158
-157
-157
-156
-155
-153
-152
-151
-149
-148
-146
-143
-141
-139
-136
-134
-130
-126
-123
-119
-115
-111
-106
-101
-96
-90
-84
-79
-74
-68
-64
-58
-54
-50
-47
-44
-42
-41
-42
-44
-48
-52
-59
-67
-76
-87
-99
-113
-127
-144
-161
-178
-197
-216
-236
-255
-275
-294
-313
-331
-348
-364
-379
-394
-406
-417
-428
-436
-444
-450
-455
-458
-461
-462
-461
-460
-457
-454
-450
-445
-440
-434
-427
-420
-413
-404
-396
-388
-380
-372
-363
-354
-347
-339
-330
-323
-314
-306
-299
-291
-284
-275
-268
-261
-253
-246
-240
-233
-226
-221
-215
-209
-204
-199
-194
-190
-186
-183
-179
-176
-173
-171
-168
-167
-166
-164
-162
-161
-160
-159
-158
-158
-157
-156
-155
-155
-154
-154
-153
-153
-152
-152
-152
-152
-151
-151
-150
-150
-150
-150
-149
-148
-148
-148
-148
-147
-147
-147
-147
-147
-147
-147
-147
-147
-145
-145
-145
-145
-145
-144
-143
-143
-143
-143
-143
-142
-142
-142
-142
-142
-141
-141
-141
-141
-140
-140
-140
-140
-140
-140
-140
-140
-140
-140
-140
-140
-140
-139
-139
-139
-139
-140
-140
-139
-139
-139
-139
-139
-139
-138
-138
-138
-138
-138
-138
-138
-137
-137
-137
-137
-137
-137
-137
-136
-136
-136
-136
-135
-135
-135
-135
-134
-134
-134
-133
-133
-133
-133
-133
-133
-132
-132
-131
-131
-131
-131
-131
-131
-131
-130
-130
-130
-130
-130
-130
-130
-131
-130
-130
-130
-130
-130
-130
-129
-129
-128
-128
-128
-127
-127
-126
-125
-125
-125
-124
-124
-124
-124
-122
-122
-122
-122
-122
-122
-121
-121
-121
-120
-120
-120
-120
-119
-119
-119
-118
-118
-118
-118
-117
-117
-117
-117
-116
-116
-115
-114
-114
-114
-113
-112
-112
-111
-111
-110
-110
-110
-110
-109
-109
-109
-108
-108
-108
-108
-107
-106
-106
-107
-107
-106
-106
-105
-106
-106
-105
-105
-105
-105
-105
-105
-105
-104
-104
-104
-104
-103
-103
-103
-103
-103
-103
-103
-103
-103
-104
-104
-104
-104
-104
-104
-105
-105
-105
-105
-105
-105
-105
-105
-106
-106
-106
-106
-106
-106
-107
-107
-107
-107
-107
-107
-108
-108
-108
-108
-109
-109
-109
-109
-110
-110
-111
-111
-112
-112
-113
-113
-113
-114
-114
-115
-116
-117
-117
-117
-117
-118
-119
-119
-119
-120
-121
-121
-121
-122
-123
-123
-123
-123
-124
-124
-124
-124
-124
-124
-125
-125
-125
-126
-126
-126
-126
-126
-127
-127
-128
-128
-128
-129
-129
-129
-130
-130
-130
-130
-131
-132
-132
-132
-133
-133
-133
-134
-135
-135
-136
-136
-138
-138
-138
-139
-139
-140
-141
-142
-142
-142
-142
-144
-144
-145
-145
-145
-145
-145
-145
-146
-146
-147
-146
-145
-146
-146
-146
-146
-146
-146
-146
-146
-146
-146
-147
-147
-147
-147
-147
-148
-148
-148
-148
-148
-149
-149
-149
-149
-149
-149
-149
-150
-150
-150
-150
-150
-150
-150
-151
-151
-150
-150
-151
-150
-150
-150
-150
-149
-149
-149
-149
-149
-149
-149
-148
-148
-148
-147
-147
-147
-147
-146
-146
-146
-145
-145
-144
-144
-143
-143
-143
-143
-143
-143
-142
-142
-142
-142
-142
-141
-141
-141
-140
-140
-140
-140
-140
-139
-139
-138
-138
-138
-138
-138
-138
-137
-137
-137
-137
-136
-136
-136
-136
-136
-136
-136
-136
-136
-135
-135
-135
-135
-135
-135
-135
-134
-134
-133
-133
-133
-133
-133
-132
-132
-132
-132
-132
-132
-132
-132
-131
-132
-132
-132
-131
-131
-132
-132
-132
-132
-132
-132
-132
-132
-131
-131
-131
-131
-131
-130
-130
-130
-131
-131
-130
-130
-130
-131
-130
-130
-130
-130
-130
-130
-131
-131
-131
-131
-131
-131
-131
-131
-132
-132
-132
-133
-133
-133
-134
-134
-134
-134
-134
-134
-133
-133
-133
-133
-133
-133
-133
-132
-132
-132
-132
-131
-131
-131
-131
-131
-131
-131
-130
-130
-130
-130
-130
-130
-130
-130
-130
-130
-130
-131
-131
-131
-131
-131
-132
-132
-132
-132
-132
-133
-133
-133
-133
-133
-132
-132
-132
-132
-132
-132
-132
-132
-132
-132
-132
-131
-131
-132
-132
-132
-131
-132
-132
-132
-132
-132
-132
-132
-133
-133
-133
-133
-133
-133
-133
-133
-134
-134
-134
-134
-134
-134
-133
-133
-133
-133
-133
-133
-133
-133
-133
-133
-133
-133
-133
-133
-133
-133
-132
-132
-133
-132
-132
-131
-131
-132
-132
-132
-131
-132
-132
-132
-132
-131
-131
-131
-131
-131
-131
-131
-131
-131
-131
-131
-131
-131
-131
-131
-131
-131
-131
-131
-130
-130
-130
-131
-131
-131
-131
-131
-131
-131
-131
-130
-130
-130
-130
-129
-129
-128
-129
-129
-128
-128
-128
-127
-127
-126
-126
-126
-126
-126
-124
-124
-124
-123
-123
-123
-123
-123
-122
-122
-121
-121
-121
-120
-120
-120
-121
-120
-121
-121
-120
-120
-120
-120
-119
-119
-119
-118
-118
-118
-118
-118
-118
-117
-117
-117
-117
-117
-118
-118
-118
-118
-118
-118
-118
-119
-119
-120
-120
-121
-121
-122
-122
-123
-123
-123
-123
-124
-124
-124
-124
-125
-125
-125
-126
-126
-126
-126
-126
-126
-126
-126
-126
-126
-126
-126
-127
-127
-127
-126
-126
-127
-126
-126
-126
-126
-126
-126
-126
-126
-126
-126
-126
-126
-126
-127
-127
-126
-126
-127
-127
-127
-127
-128
-127
-127
-127
-127
-128
-128
-128
-128
-129
-128
-128
-128
-129
-129
-128
-129
-129
-129
-129
-129
-129
-129
-128
-128
-128
-128
-128
-128
-128
-129
-129
-128
-128
-128
-128
-128
-128
-127
-127
-127
-127
-127
-127
-127
-127
-127
-127
-127
-127
-127
-127
-127
-126
-126
-125
-124
-124
-123
-122
-120
-119
-118
-116
-115
-113
-110
-107
-106
-103
-99
-96
-92
-89
-84
-80
-76
-71
-66
-61
-55
-50
-45
-39
-34
-29
-25
-20
-16
-13
-10
-9
-9
-10
-12
-16
-21
-27
-35
-45
-55
-68
-82
-97
-113
-129
-147
-166
-186
-205
-225
-244
-263
-282
-300
-317
-334
-349
-362
-375
-386
-396
-404
-413
-419
-423
-426
-429
-430
-430
-429
-426
-423
-418
-413
-407
-401
-394
-386
-379
-371
-363
-355
-347
-338
-330
-322
-314
-306
-299
-291
-283
-276
-269
-262
-255
-249
-242
-235
-228
-223
-216
-210
-204
-198
-192
-187
-182
-177
-172
-167
-163
-160
-156
-152
-149
-146
-143
-140
-138
-136
-135
-133
-132
-130
-128
-127
-126
-126
-126
-124
-124
-124
-123
-122
-122
-121
-121
-120
-120
-120
-119
-119
-118
-118
-118
-117
-117
-116
-116
-116
-116
-115
-114
-114
-114
-114
-113
-113
-113
-113
-111
-112
-112
-112
-111
-111
-111
-111
-110
-110
-110
-110
-110
-110
-110
-109
-109
-109
-109
-109
-109
-108
-108
-107
-107
-107
-106
-106
-106
-106
-106
-106
-105
-105
-105
-105
-105
-105
-104
-104
-104
-103
-103
-102
-102
-102
-102
-102
-102
-102
-102
-102
-102
-102
-102
-102
-102
-101
-101
-101
-101
-101
-101
-101
-100
-100
-99
-99
-99
-99
-99
-98
-98
-98
-97
-97
-97
-96
-96
-96
-95
-95
-95
-95
-95
-95
-94
-94
-93
-94
-94
-93
-94
-93
-93
-93
-93
-93
-93
-93
-92
-92
-92
-92
-91
-92
-92
-91
-91
-91
-91
-90
-90
-90
-90
-89
-89
-88
-88
-88
-87
-86
-86
-86
-85
-85
-85
-84
-83
-82
-82
-82
-81
-81
-80
-80
-79
-79
-78
-77
-77
-77
-77
-75
-75
-75
-74
-74
-74
-73
-73
-73
-73
-71
-71
-71
-70
-70
-69
-69
-69
-68
-67
-67
-66
-66
-66
-65
-65
-65
-64
-64
-64
-64
-64
-63
-63
-62
-63
-63
-63
-62
-62
-62
-62
-62
-62
-62
-62
-62
-62
-61
-61
-61
-62
-62
-62
-62
-62
-62
-62
-62
-63
-63
-63
-64
-64
-64
-64
-65
-65
-66
-66
-66
-67
-67
-67
-68
-68
-68
-69
-69
-69
-70
-71
-71
-71
-71
-72
-72
-73
-74
-74
-74
-74
-74
-76
-76
-76
-77
-77
-78
-79
-79
-80
-81
-81
-81
-81
-83
-83
-84
-84
-85
-86
-86
-87
-87
-87
-88
-88
-90
-90
-90
-91
-91
-92
-92
-94
-94
-94
-94
-94
-96
-96
-96
-97
-97
-97
-97
-97
-99
-98
-98
-99
-99
-99
-100
-100
-100
-100
-100
-101
-101
-101
-101
-102
-101
-101
-102
-102
-102
-103
-103
-104
-104
-104
-104
-105
-105
-105
-106
-107
-107
-108
-109
-109
-109
-109
-110
-111
-112
-111
-111
-111
-113
-113
-113
-114
-113
-113
-113
-113
-113
-113
-114
-113
-113
-113
-113
-113
-113
-113
-113
-112
-112
-112
-112
-112
-112
-112
-113
-112
-112
-112
-111
-111
-111
-110
-111
-111
-111
-110
-110
-110
-110
-110
-110
-110
-109
-109
-109
-109
-109
-109
-109
-109
-109
-109
-109
-108
-108
-108
-107
-107
-106
-106
-107
-107
-107
-106
-106
-105
-105
-106
-106
-106
-106
-105
-105
-105
-105
-105
-105
-105
-104
-104
-104
-103
-103
-103
-103
-102
-102
-102
-102
-102
-101
-101
-101
-100
-100
-100
-100
-99
-99
-98
-98
-98
-99
-98
-97
-97
-97
-97
-97
-97
-97
-96
-96
-96
-96
-97
-97
-96
-96
-96
-96
-96
-97
-97
-96
-96
-96
-96
-96
-96
-97
-97
-97
-97
-97
-97
-97
-96
-96
-96
-96
-96
-96
-97
-96
-97
-97
-97
-97
-97
-97
-97
-97
-98
-98
-98
-98
-98
-98
-98
-98
-99
-98
-98
-98
-98
-98
-99
-99
-99
-99
-99
-99
-99
-99
-99
-99
-99
-99
-99
-99
-99
-99
-99
-99
-99
-99
-98
-98
-98
-98
-98
-98
-98
-98
-98
-98
-98
-99
-99
-99
-99
-99
-99
-99
-99
-100
-100
-100
-100
-100
-100
-99
-100
-100
-100
-100
-100
-100
-100
-100
-100
-100
-100
-99
-99
-99
-99
-99
-99
-99
-99
-99
-99
-99
-99
-99
-99
-99
-99
-99
-100
-100
-100
-100
-100
-100
-100
-100
-101
-100
-100
-100
-100
-101
-101
-101
-101
-101
-102
-101
-101
-101
-101
-101
-101
-101
-101
-101
-101
-102
-101
-101
-101
-101
-101
-101
-101
-101
-101
-101
-101
-101
-101
-101
-101
-101
-101
-101
-101
-101
-101
-100
-100
-100
-101
-100
-100
-100
-100
-100
-100
-99
-99
-99
-99
-99
-99
-99
-99
-99
-99
-99
-99
-99
-100
-100
-99
-99
-99
-99
-100
-100
-100
-99
-99
-99
-99
-99
-99
-98
-98
-97
-97
-97
-97
-97
-97
-97
-97
-97
-97
-97
-97
-96
-96
-95
-95
-95
-95
-95
-94
-93
-93
-93
-93
-92
-92
-92
-90
-90
-90
-90
-90
-90
-89
-90
-89
-89
-90
-89
-89
-89
-88
-88
-88
-88
-88
-88
-88
-88
-88
-88
-88
-88
-87
-86
-87
-87
-87
-87
-87
-87
-87
-87
-88
-88
-89
-89
-89
-90
-90
-91
-91
-91
-93
-93
-93
-94
-94
-95
-95
-95
-95
-95
-96
-97
-97
-97
-97
-97
-97
-98
-98
-98
-97
-97
-98
-98
-98
-97
-97
-98
-98
-97
-97
-98
-98
-97
-97
-97
-98
-97
-98
-98
-98
-98
-98
-98
-98
-98
-98
-98
-98
-98
-99
-99
-99
-99
-99
-99
-99
-100
-100
-100
-100
-100
-99
-99
-99
-99
-99
-99
-99
-99
-99
-99
-98
-98
-98
-97
-98
-98
-98
-98
-97
-97
-97
-97
-97
-97
-96
-96
-96
-96
-97
-97
-97
-97
-97
-97
-97
-97
-97
-97
-97
-97
-96
-96
-95
-94
-92
-92
-90
-88
-87
-85
-83
-80
-77
-74
-72
-67
-64
-60
-56
-51
-47
-43
-37
-33
-27
-23
-17
-12
-7
-2
2
7
12
15
18
20
20
20
18
14
9
3
-5
-14
-24
-36
-50
-65
-81
-98
-116
-134
-155
-174
-194
-215
-234
-254
-273
-290
-307
-323
-338
-351
-363
-374
-384
-391
-397
-403
-406
-409
-410
-410
-408
-406
-402
-398
-393
-387
-380
-373
-366
-359
-350
-342
-334
-325
-317
-309
-300
-292
-285
-277
-269
-262
-254
-246
-239
-232
-225
-219
-212
-205
-198
-191
-185
-178
-172
-165
-160
-154
-148
-144
-139
-135
-130
-126
-123
-119
-116
-113
-110
-108
-105
-104
-103
-101
-100
-98
-97
-95
-95
-94
-92
-92
-92
-91
-90
-90
-89
-88
-88
-88
-88
-88
-86
-87
-86
-86
-85
-85
-85
-85
-85
-84
-84
-84
-84
-84
-84
-84
-83
-83
-83
-82
-82
-81
-81
-80
-81
-80
-79
-79
-79
-79
-77
-77
-77
-76
-77
-77
-75
-75
-75
-75
-75
-75
-74
-74
-74
-74
-74
-74
-74
-74
-74
-74
-74
-74
-74
-74
-73
-73
-74
-73
-73
-73
-73
-72
-72
-71
-71
-71
-71
-71
-71
-70
-70
-70
-70
-70
-70
-70
-70
-69
-68
-69
-69
-68
-67
-67
-67
-67
-68
-68
-67
-66
-66
-66
-66
-66
-66
-66
-65
-65
-65
-65
-65
-64
-64
-63
-63
-63
-63
-63
-62
-63
-63
-62
-62
-62
-62
-62
-61
-61
-61
-60
-60
-60
-59
-59
-59
-58
-57
-57
-57
-57
-56
-56
-55
-55
-55
-55
-54
-54
-54
-54
-53
-53
-53
-52
-52
-52
-52
-52
-51
-51
-51
-50
-49
-49
-49
-48
-47
-47
-46
-45
-45
-45
-44
-44
-43
-42
-42
-42
-42
-40
-41
-40
-39
-39
-39
-38
-38
-37
-37
-37
-37
-35
-35
-34
-34
-34
-33
-33
-32
-32
-32
-31
-31
-31
-30
-30
-30
-30
-29
-30
-30
-30
-30
-30
-30
-31
-31
-32
-32
-32
-32
-32
-33
-33
-33
-33
-34
-34
-34
-34
-34
-34
-35
-35
-35
-34
-34
-34
-35
-35
-35
-36
-35
-36
-36
-36
-37
-37
-37
-38
-39
-39
-39
-40
-41
-42
-42
-43
-43
-44
-45
-45
-46
-46
-46
-47
-47
-48
-48
-48
-48
-49
-50
-50
-51
-51
-51
-51
-52
-52
-52
-53
-54
-54
-54
-56
-56
-56
-56
-58
-58
-58
-60
-60
-60
-60
-62
-62
-63
-64
-64
-65
-66
-66
-67
-68
-69
-69
-69
-69
-70
-71
-71
-71
-72
-72
-72
-73
-73
-73
-73
-74
-74
-75
-75
-76
-76
-76
-76
-78
-78
-78
-78
-78
-78
-79
-80
-80
-80
-80
-81
-81
-82
-82
-82
-82
-82
-82
-82
-83
-82
-82
-83
-82
-82
-82
-82
-82
-82
-82
-82
-82
-82
-82
-82
-81
-81
-81
-81
-81
-82
-82
-82
-82
-82
-83
-83
-83
-83
-83
-83
-83
-84
-84
-84
-84
-84
-83
-83
-83
-83
-83
-83
-83
-82
-82
-82
-82
-82
-82
-82
-82
-81
-81
-81
-81
-81
-82
-81
-80
-81
-80
-80
-80
-79
-79
-79
-78
-78
-78
-77
-76
-76
-76
-75
-75
-74
-74
-74
-73
-73
-73
-72
-72
-72
-71
-71
-71
-71
-71
-71
-71
-71
-71
-71
-70
-71
-71
-71
-71
-70
-70
-70
-71
-71
-71
-71
-71
-71
-70
-71
-71
-70
-70
-70
-69
-69
-69
-69
-69
-69
-68
-68
-68
-69
-69
-69
-70
-70
-70
-70
-69
-69
-69
-69
-69
-69
-69
-68
-69
-69
-69
-69
-68
-68
-68
-68
-68
-68
-68
-67
-67
-67
-68
-68
-67
-67
-67
-67
-68
-68
-67
-68
-68
-67
-68
-68
-68
-69
-69
-69
-69
-69
-69
-69
-68
-69
-69
-69
-69
-69
-69
-69
-69
-69
-69
-69
-69
-69
-69
-70
-70
-70
-70
-70
-71
-71
-71
-71
-71
-71
-71
-71
-72
-72
-72
-72
-72
-72
-73
-72
-72
-72
-72
-72
-72
-72
-71
-71
-71
-72
-72
-71
-71
-71
-72
-71
-71
-72
-72
-72
-72
-72
-72
-72
-72
-73
-73
-73
-73
-72
-72
-73
-73
-73
-73
-74
-73
-73
-73
-73
-73
-73
-73
-73
-73
-73
-73
-73
-73
-73
-73
-73
-73
-73
-73
-74
-74
-74
-75
-75
-75
-76
-76
-76
-76
-75
-76
-76
-75
-75
-75
-74
-74
-74
-74
-73
-73
-73
-72
-72
-72
-72
-73
-73
-73
-73
-73
-74
-73
-74
-74
-74
-75
-75
-75
-75
-77
-76
-76
-76
-76
-76
-76
-76
-75
-75
-75
-74
-74
-74
-74
-74
-74
-73
-73
-73
-73
-73
-72
-72
-72
-71
-71
-71
-71
-70
-69
-68
-68
-68
-68
-66
-66
-66
-66
-66
-66
-65
-65
-64
-64
-64
-64
-63
-64
-64
-63
-63
-63
-63
-63
-63
-63
-63
-63
-63
-62
-63
-63
-63
-64
-64
-64
-64
-65
-65
-65
-66
-65
-65
-65
-65
-65
-66
-66
-66
-67
-67
-67
-67
-68
-68
-68
-69
-69
-69
-69
-70
-70
-71
-71
-73
-73
-73
-74
-74
-75
-75
-76
-76
-76
-77
-77
-78
-78
-78
-77
-77
-77
-77
-77
-76
-76
-77
-77
-77
-76
-77
-76
-76
-76
-75
-75
-75
-75
-75
-75
-75
-75
-76
-76
-76
-76
-77
-77
-78
-78
-79
-79
-79
-79
-79
-79
-79
-79
-79
-79
-79
-79
-80
-80
-80
-80
-80
-79
-79
-78
-79
-78
-78
-78
-79
-78
-78
-77
-77
-77
-78
-77
-77
-78
-77
-77
-78
-77
-77
-77
-77
-77
-77
-77
-77
-76
-76
-75
-75
-74
-72
-71
-70
-68
-66
-64
-62
-60
-57
-54
-52
-48
-44
-41
-36
-32
-27
-23
-18
-13
-8
-3
2
7
13
17
22
26
30
33
36
37
38
37
34
30
25
20
13
3
-8
-20
-34
-49
-64
-81
-99
-118
-138
-157
-177
-196
-215
-234
-252
-270
-287
-301
-316
-329
-340
-351
-360
-368
-373
-379
-382
-384
-385
-385
-384
-382
-378
-375
-369
-363
-358
-351
-344
-336
-329
-320
-312
-303
-295
-286
-278
-270
-260
-252
-244
-236
-227
-220
-212
-203
-196
-188
-181
-173
-166
-159
-152
-146
-140
-133
-129
-123
-118
-114
-110
-106
-103
-100
-97
-94
-92
-89
-89
-87
-85
-84
-82
-81
-80
-79
-79
-78
-78
-77
-77
-76
-75
-75
-75
-74
-74
-74
-74
-73
-73
-72
-72
-72
-72
-71
-71
-71
-71
-70
-69
-69
-68
-68
-68
-68
-68
-67
-67
-67
-67
-66
-66
-66
-66
-65
-65
-66
-65
-65
-65
-65
-65
-65
-65
-64
-64
-64
-63
-64
-64
-64
-63
-63
-62
-63
-62
-62
-61
-61
-61
-61
-61
-61
-61
-61
-60
-60
-60
-60
-61
-61
-60
-60
-61
-60
-60
-60
-60
-60
-60
-60
-60
-60
-60
-59
-59
-59
-59
-58
-58
-58
-58
-57
-57
-57
-57
-57
-57
-56
-56
-56
-55
-56
-56
-56
-56
-56
-56
-55
-55
-55
-55
-54
-54
-53
-54
-54
-54
-53
-53
-52
-53
-52
-51
-51
-51
-51
-50
-50
-50
-50
-50
-50
-49
-49
-48
-48
-48
-48
-47
-47
-47
-47
-47
-47
-46
-46
-45
-45
-45
-45
-45
-45
-45
-44
-44
-44
-43
-43
-43
-43
-42
-41
-41
-41
-41
-40
-40
-40
-39
-39
-38
-38
-37
-37
-36
-36
-36
-35
-35
-35
-34
-34
-34
-34
-33
-32
-32
-32
-32
-32
-31
-31
-31
-30
-30
-29
-29
-29
-30
-29
-29
-28
-28
-29
-29
-29
-27
-27
-27
-27
-27
-27
-27
-27
-26
-26
-26
-26
-27
-27
-26
-26
-27
-26
-27
-27
-27
-27
-27
-27
-27
-27
-27
-28
-28
-29
-29
-29
-30
-31
-31
-31
-31
-32
-33
-33
-33
-33
-34
-34
-35
-35
-37
-37
-37
-38
-38
-39
-40
-40
-40
-42
-42
-43
-43
-43
-44
-45
-45
-45
-46
-46
-47
-47
-47
-48
-48
-48
-49
-50
-50
-50
-50
-50
-50
-51
-51
-52
-52
-52
-52
-53
-53
-53
-53
-54
-55
-55
-55
-55
-56
-56
-56
-57
-58
-58
-58
-59
-59
-59
-60
-60
-60
-62
-62
-62
-63
-63
-64
-64
-64
-65
-65
-65
-66
-66
-67
-67
-67
-67
-68
-68
-69
-69
-69
-69
-70
-70
-70
-70
-71
-71
-71
-71
-72
-72
-72
-72
-72
-72
-72
-73
-72
-72
-73
-73
-73
-73
-74
-74
-74
-74
-74
-75
-75
-75
-76
-76
-76
-76
-76
-76
-76
-75
-75
-75
-75
-75
-75
-75
-75
-74
-74
-74
-73
-73
-73
-73
-73
-73
-73
-73
-72
-73
-72
-72
-72
-72
-72
-72
-72
-72
-71
-71
-71
-71
-71
-71
-71
-71
-71
-70
-70
-70
-70
-70
-70
-70
-70
-70
-70
-69
-69
-69
-69
-68
-68
-67
-67
-67
-67
-67
-66
-66
-66
-66
-65
-65
-64
-64
-64
-64
-64
-64
-63
-63
-64
-64
-64
-63
-63
-63
-63
-63
-63
-63
-63
-63
-63
-63
-63
-63
-63
-62
-62
-62
-62
-62
-62
-62
-62
-62
-62
-62
-61
-61
-61
-62
-62
-61
-61
-61
-61
-61
-61
-61
-61
-61
-61
-61
-61
-62
-62
-62
-62
-62
-63
-63
-63
-63
-64
-64
-64
-64
-64
-64
-64
-64
-64
-63
-64
-64
-63
-63
-63
-63
-63
-64
-63
-63
-62
-62
-63
-63
-63
-63
-63
-63
-63
-63
-63
-63
-63
-64
-64
-64
-64
-65
-65
-65
-65
-66
-66
-66
-66
-66
-66
-66
-66
-66
-66
-66
-66
-66
-66
-66
-66
-66
-66
-65
-66
-66
-66
-65
-65
-65
-65
-65
-65
-65
-65
-65
-65
-65
-65
-65
-65
-65
-66
-66
-65
-65
-65
-65
-65
-65
-65
-65
-65
-65
-65
-65
-65
-65
-65
-65
-65
-66
-66
-66
-66
-66
-66
-65
-65
-66
-66
-66
-66
-66
-67
-67
-67
-67
-67
-67
-67
-67
-68
-68
-68
-68
-68
-68
-68
-68
-68
-68
-68
-68
-68
-68
-67
-67
-68
-67
-67
-67
-67
-67
-67
-67
-67
-67
-67
-67
-66
-67
-67
-66
-66
-66
-66
-65
-65
-65
-65
-65
-65
-65
-65
-64
-64
-65
-64
-64
-64
-65
-65
-65
-64
-64
-64
-64
-64
-64
-64
-64
-63
-64
-63
-62
-62
-62
-61
-61
-61
-60
-60
-59
-59
-58
-58
-58
-57
-56
-56
-56
-56
-56
-56
-55
-55
-55
-55
-55
-55
-56
-55
-55
-55
-55
-55
-55
-55
-55
-55
-54
-55
-54
-54
-54
-54
-54
-53
-53
-53
-53
-53
-53
-54
-54
-54
-54
-55
-55
-56
-56
-57
-57
-57
-58
-59
-60
-60
-60
-60
-61
-61
-61
-62
-62
-63
-63
-63
-64
-64
-64
-65
-64
-64
-64
-64
-65
-65
-64
-64
-64
-64
-64
-64
-64
-64
-63
-63
-63
-64
-64
-64
-64
-64
-64
-65
-65
-65
-65
-65
-64
-65
-65
-65
-65
-65
-66
-66
-65
-65
-66
-66
-66
-65
-65
-66
-66
-66
-66
-66
-66
-66
-66
-67
-67
-67
-67
-67
-66
-66
-66
-66
-66
-66
-65
-66
-66
-65
-64
-64
-65
-65
-64
-64
-64
-63
-63
-63
-63
-63
-63
-64
-64
-63
-63
-64
-63
-63
-63
-62
-62
-61
-60
-59
-58
-57
-54
-53
-52
-49
-47
-44
-42
-38
-35
-31
-27
-23
-19
-15
-9
-4
1
6
11
16
23
28
33
38
42
46
51
53
55
56
55
54
50
46
40
31
22
11
-1
-14
-29
-46
-62
-79
-98
-118
-138
-158
-178
-197
-217
-236
-253
-270
-285
-300
-314
-326
-336
-345
-353
-360
-365
-369
-371
-373
-372
-371
-369
-366
-361
-356
-351
-344
-337
-330
-323
-315
-307
-298
-290
-282
-274
-266
-257
-249
-240
-233
-226
-218
-211
-203
-197
-190
-183
-176
-169
-163
-156
-150
-143
-138
-133
-127
-122
-117
-112
-108
-103
-99
-95
-91
-88
-85
-82
-79
-77
-76
-73
-71
-70
-68
-67
-66
-65
-64
-63
-63
-62
-61
-60
-60
-60
-59
-58
-58
-58
-58
-57
-57
-56
-56
-56
-56
-56
-56
-55
-55
-55
-55
-55
-55
-53
-53
-53
-53
-52
-52
-51
-51
-51
-49
-49
-49
-48
-48
-48
-47
-47
-47
-47
-47
-46
-45
-45
-45
-45
-45
-45
-46
-45
-45
-45
-45
-45
-45
-46
-46
-46
-46
-46
-46
-45
-45
-46
-46
-46
-45
-45
-44
-44
-44
-44
-44
-44
-43
-43
-43
-42
-43
-42
-42
-42
-42
-41
-41
-42
-41
-41
-41
-40
-41
-41
-41
-41
-41
-41
-41
-40
-40
-40
-40
-39
-39
-39
-39
-38
-38
-37
-37
-37
-36
-36
-36
-37
-37
-36
-36
-36
-36
-36
-36
-36
-35
-35
-35
-35
-35
-34
-33
-34
-34
-33
-33
-33
-33
-32
-32
-32
-32
-32
-31
-30
-30
-30
-30
-30
-30
-29
-28
-28
-28
-28
-28
-27
-27
-26
-26
-26
-26
-25
-25
-24
-24
-23
-23
-22
-22
-21
-21
-20
-20
-20
-19
-19
-18
-18
-17
-16
-16
-16
-16
-15
-14
-14
-14
-14
-14
-14
-13
-13
-12
-12
-12
-12
-12
-12
-12
-12
-11
-11
-11
-11
-10
-9
-9
-9
-8
-8
-8
-8
-7
-7
-8
-7
-7
-7
-7
-7
-7
-7
-7
-7
-7
-7
-7
-8
-9
-9
-9
-9
-9
-10
-11
-11
-11
-11
-11
-12
-12
-13
-13
-13
-13
-14
-15
-15
-15
-16
-16
-16
-17
-18
-18
-18
-19
-19
-20
-20
-21
-21
-23
-23
-23
-24
-24
-25
-26
-26
-26
-27
-27
-27
-27
-29
-29
-29
-30
-30
-31
-32
-32
-33
-33
-34
-34
-35
-36
-36
-37
-38
-38
-38
-39
-40
-40
-40
-40
-41
-41
-41
-42
-42
-42
-42
-42
-42
-43
-43
-43
-43
-43
-44
-44
-45
-45
-45
-45
-46
-47
-47
-47
-48
-48
-49
-50
-50
-51
-51
-52
-52
-52
-53
-53
-53
-55
-55
-55
-55
-55
-56
-56
-56
-57
-57
-57
-56
-57
-57
-58
-58
-58
-58
-58
-59
-59
-59
-59
-59
-59
-59
-60
-60
-60
-60
-59
-61
-60
-61
-61
-60
-60
-61
-61
-61
-61
-61
-61
-61
-61
-62
-62
-61
-61
-61
-61
-61
-61
-61
-61
-60
-60
-61
-61
-60
-60
-60
-59
-59
-58
-59
-58
-58
-58
-58
-58
-57
-57
-57
-56
-56
-56
-55
-55
-55
-55
-55
-55
-55
-55
-54
-54
-54
-54
-53
-53
-53
-53
-53
-53
-53
-53
-53
-53
-53
-53
-53
-53
-52
-53
-52
-52
-52
-52
-52
-52
-51
-51
-51
-51
-50
-50
-50
-51
-50
-50
-49
-49
-49
-48
-48
-48
-48
-48
-47
-47
-47
-47
-47
-47
-47
-47
-47
-46
-47
-47
-47
-47
-46
-47
-46
-46
-46
-46
-46
-46
-46
-46
-45
-45
-45
-45
-45
-46
-46
-46
-46
-46
-47
-47
-47
-48
-48
-48
-47
-48
-48
-48
-48
-48
-48
-48
-49
-49
-49
-50
-50
-50
-50
-50
-50
-50
-50
-50
-50
-50
-50
-50
-51
-50
-50
-50
-50
-50
-51
-51
-51
-50
-50
-50
-51
-51
-51
-50
-50
-50
-50
-51
-51
-51
-51
-51
-51
-51
-51
-51
-51
-51
-52
-52
-52
-53
-53
-53
-53
-53
-53
-53
-53
-53
-53
-53
-53
-53
-53
-54
-53
-53
-53
-54
-54
-54
-54
-54
-54
-53
-54
-54
-54
-54
-53
-53
-54
-54
-54
-54
-54
-54
-54
-54
-54
-54
-54
-54
-53
-53
-53
-54
-53
-53
-53
-54
-53
-53
-53
-54
-54
-53
-54
-54
-54
-54
-54
-54
-54
-54
-54
-54
-56
-55
-55
-55
-55
-55
-56
-56
-56
-55
-55
-55
-56
-56
-56
-56
-55
-55
-55
-56
-56
-56
-55
-55
-56
-56
-56
-56
-56
-56
-56
-56
-56
-56
-56
-56
-55
-55
-55
-55
-54
-54
-55
-55
-55
-55
-54
-54
-54
-54
-54
-53
-53
-54
-53
-54
-54
-54
-54
-54
-54
-53
-53
-53
-53
-53
-53
-53
-53
-52
-52
-51
-51
-51
-51
-50
-50
-49
-49
-49
-49
-48
-48
-47
-47
-46
-46
-46
-46
-46
-45
-45
-45
-45
-45
-45
-44
-44
-44
-44
-44
-44
-44
-44
-44
-45
-45
-45
-45
-45
-45
-45
-45
-46
-46
-46
-47
-47
-47
-48
-48
-48
-48
-49
-50
-50
-50
-50
-50
-50
-51
-51
-52
-52
-52
-52
-52
-53
-53
-53
-53
-53
-53
-54
-54
-55
-55
-54
-54
-55
-55
-54
-54
-54
-54
-54
-54
-55
-54
-54
-55
-55
-54
-55
-55
-55
-55
-55
-55
-55
-56
-57
-56
-56
-56
-57
-57
-57
-57
-57
-57
-57
-57
-57
-57
-57
-58
-58
-58
-58
-58
-58
-58
-58
-58
-59
-59
-59
-59
-58
-58
-59
-59
-59
-59
-59
-58
-58
-58
-58
-58
-58
-58
-58
-58
-57
-57
-57
-57
-56
-57
-57
-56
-56
-56
-56
-56
-56
-55
-55
-54
-53
-52
-51
-49
-48
-45
-43
-41
-39
-36
-33
-30
-27
-23
-19
-15
-10
-6
-2
3
8
13
18
23
29
33
37
42
46
50
53
56
57
57
56
53
49
44
37
28
18
7
-5
-19
-34
-50
-69
-85
-105
-124
-143
-163
-183
-202
-221
-239
-257
-272
-288
-302
-315
-326
-336
-344
-351
-357
-362
-365
-367
-368
-367
-365
-363
-360
-356
-350
-344
-338
-331
-324
-316
-308
-300
-292
-284
-276
-267
-259
-251
-244
-236
-229
-222
-214
-207
-201
-194
-187
-180
-173
-166
-161
-154
-148
-141
-135
-129
-124
-119
-113
-109
-103
-99
-95
-91
-88
-84
-81
-78
-75
-73
-71
-69
-67
-65
-65
-63
-63
-61
-60
-59
-59
-58
-57
-57
-56
-56
-55
-55
-54
-53
-53
-53
-51
-51
-51
-50
-50
-49
-49
-49
-48
-48
-47
-47
-47
-47
-47
-47
-46
-46
-46
-46
-46
-46
-46
-46
-46
-46
-46
-45
-45
-45
-45
-45
-45
-45
-45
-45
-44
-44
-44
-44
-44
-44
-44
-43
-43
-42
-42
-43
-43
-43
-43
-42
-42
-42
-41
-41
-41
-41
-41
-40
-40
-40
-39
-39
-39
-39
-39
-39
-38
-38
-38
-38
-38
-38
-38
-38
-38
-38
-39
-39
-39
-39
-39
-38
-38
-38
-38
-37
-38
-38
-37
-37
-37
-37
-37
-36
-36
-36
-36
-36
-36
-35
-35
-35
-34
-34
-33
-34
-33
-33
-33
-32
-32
-31
-30
-30
-29
-29
-29
-29
-29
-29
-29
-28
-28
-28
-28
-28
-28
-27
-28
-28
-27
-27
-27
-26
-26
-26
-26
-26
-26
-26
-26
-24
-24
-24
-24
-24
-23
-23
-23
-23
-22
-22
-22
-21
-21
-21
-20
-19
-19
-19
-18
-17
-17
-17
-16
-16
-15
-15
-14
-14
-14
-13
-13
-12
-12
-12
-11
-11
-11
-11
-11
-10
-10
-10
-10
-9
-9
-8
-8
-8
-8
-8
-8
-6
-6
-6
-6
-6
-6
-6
-6
-4
-4
-5
-5
-4
-4
-4
-4
-4
-4
-4
-4
-4
-4
-5
-4
-4
-4
-4
-5
-5
-5
-5
-7
-7
-6
-8
-8
-8
-9
-9
-10
-10
-11
-11
-12
-12
-13
-13
-13
-14
-15
-15
-15
-16
-16
-16
-17
-18
-19
-19
-19
-19
-20
-21
-21
-21
-22
-22
-23
-24
-24
-25
-25
-26
-27
-27
-28
-29
-29
-30
-31
-30
-31
-31
-33
-33
-33
-34
-35
-35
-35
-35
-36
-36
-37
-37
-37
-38
-39
-39
-39
-39
-40
-41
-42
-42
-42
-42
-44
-44
-44
-45
-46
-46
-46
-47
-47
-48
-49
-49
-50
-50
-50
-50
-51
-51
-51
-52
-52
-52
-52
-52
-52
-53
-53
-53
-53
-53
-53
-54
-54
-54
-54
-55
-55
-55
-55
-55
-56
-56
-56
-56
-56
-57
-57
-57
-57
-57
-57
-58
-58
-58
-58
-58
-58
-59
-59
-59
-59
-59
-59
-59
-59
-59
-59
-58
-58
-58
-58
-57
-57
-57
-57
-57
-57
-57
-57
-56
-56
-56
-56
-56
-57
-57
-57
-57
-56
-56
-57
-57
-57
-57
-57
-57
-56
-57
-56
-56
-56
-55
-55
-55
-55
-54
-53
-53
-53
-53
-52
-52
-52
-51
-51
-51
-51
-51
-51
-49
-49
-49
-49
-50
-50
-50
-50
-50
-49
-50
-50
-50
-49
-49
-49
-50
-49
-49
-49
-49
-49
-49
-49
-49
-49
-49
-48
-48
-48
-48
-48
-48
-48
-48
-47
-47
-47
-46
-47
-47
-46
-46
-46
-46
-46
-46
-46
-46
-46
-46
-46
-46
-46
-46
-46
-46
-46
-46
-46
-45
-45
-45
-46
-46
-47
-46
-46
-46
-46
-47
-46
-46
-46
-47
-47
-46
-47
-47
-47
-47
-48
-48
-48
-48
-48
-48
-48
-48
-48
-48
-48
-48
-48
-48
-48
-48
-48
-48
-48
-48
-48
-49
-49
-48
-49
-49
-49
-49
-49
-49
-49
-49
-49
-50
-50
-50
-50
-51
-50
-50
-51
-51
-51
-51
-51
-51
-51
-51
-51
-51
-51
-52
-51
-51
-51
-51
-51
-51
-51
-51
-51
-51
-51
-51
-51
-51
-50
-51
-51
-51
-51
-51
-51
-51
-51
-51
-51
-51
-50
-50
-50
-51
-51
-50
-51
-51
-51
-51
-51
-52
-52
-52
-53
-53
-53
-53
-54
-54
-54
-54
-54
-54
-54
-54
-54
-54
-55
-54
-54
-54
-54
-54
-54
-53
-53
-53
-52
-52
-52
-52
-51
-52
-52
-52
-53
-52
-52
-52
-52
-53
-53
-53
-53
-53
-53
-53
-53
-53
-53
-53
-52
-52
-52
-52
-52
-52
-52
-51
-51
-52
-51
-51
-50
-51
-51
-51
-51
-50
-51
-51
-50
-50
-50
-50
-50
-49
-49
-49
-48
-47
-47
-47
-47
-45
-45
-45
-44
-43
-43
-42
-43
-43
-42
-42
-42
-42
-41
-42
-42
-41
-42
-42
-42
-41
-41
-41
-40
-40
-40
-40
-40
-40
-40
-40
-40
-40
-40
-40
-40
-41
-41
-42
-42
-43
-43
-44
-45
-45
-45
-46
-46
-48
-48
-48
-49
-50
-50
-50
-50
-51
-52
-52
-52
-53
-53
-53
-53
-54
-54
-54
-54
-54
-54
-54
-54
-54
-53
-54
-54
-53
-53
-53
-52
-52
-52
-52
-51
-51
-51
-50
-50
-50
-50
-50
-51
-51
-51
-51
-51
-52
-52
-52
-53
-53
-53
-53
-53
-54
-54
-54
-55
-55
-55
-55
-55
-55
-55
-55
-55
-55
-56
-55
-55
-55
-55
-55
-56
-55
-55
-54
-54
-54
-54
-54
-54
-53
-54
-54
-54
-54
-54
-54
-54
-54
-54
-54
-54
-54
-54
-53
-53
-53
-53
-52
-51
-51
-50
-49
-48
-47
-46
-45
-44
-41
-40
-38
-36
-33
-31
-28
-25
-21
-18
-13
-9
-5
0
4
9
14
19
24
29
34
38
43
47
51
54
56
57
58
55
52
48
42
37
28
19
8
-5
-19
-34
-50
-68
-85
-103
-123
-142
-161
-181
-200
-218
-236
-253
-269
-284
-298
-310
-321
-331
-339
-347
-353
-357
-360
-363
-363
-364
-362
-360
-356
-351
-346
-341
-336
-329
-321
-314
-306
-298
-290
-281
-273
-264
-256
-246
-239
-231
-222
-214
-206
-198
-190
-182
-175
-166
-159
-151
-144
-137
-131
-124
-118
-112
-107
-102
-98
-93
-89
-84
-81
-78
-74
-72
-69
-66
-65
-63
-62
-61
-60
-58
-58
-57
-56
-56
-55
-55
-54
-53
-52
-52
-51
-51
-51
-51
-50
-50
-49
-49
-49
-48
-48
-48
-47
-46
-46
-46
-46
-46
-45
-45
-45
-44
-44
-44
-44
-43
-43
-42
-42
-42
-42
-41
-41
-42
-41
-40
-40
-41
-41
-41
-41
-41
-41
-41
-41
-41
-41
-41
-41
-42
-42
-42
-42
-42
-42
-41
-41
-41
-40
-40
-40
-40
-39
-39
-38
-38
-38
-37
-37
-37
-37
-37
-37
-36
-36
-36
-35
-35
-35
-35
-36
-36
-36
-36
-36
-36
-36
-35
-35
-35
-36
-36
-36
-36
-34
-35
-34
-34
-33
-33
-33
-33
-32
-31
-31
-31
-31
-30
-30
-30
-30
-29
-29
-28
-28
-28
-28
-28
-28
-28
-28
-28
-28
-27
-27
-27
-27
-27
-26
-26
-26
-26
-26
-25
-25
-24
-24
-24
-24
-23
-23
-22
-23
-22
-21
-21
-20
-20
-20
-20
-20
-19
-19
-20
-19
-18
-18
-18
-18
-18
-18
-17
-17
-16
-16
-16
-16
-15
-15
-15
-15
-15
-15
-14
-14
-13
-13
-13
-12
-12
-12
-12
-11
-11
-11
-11
-10
-10
-10
-9
-9
-9
-9
-8
-8
-7
-7
-7
-6
-6
-5
-5
-4
-4
-3
-3
-2
-3
-3
-2
-2
-2
-2
-2
-3
-3
-3
-3
-3
-3
-4
-4
-4
-4
-6
-6
-6
-7
-7
-7
-7
-7
-7
-7
-7
-8
-8
-8
-8
-8
-8
-9
-9
-8
-9
-10
-10
-10
-11
-11
-11
-11
-11
-12
-13
-13
-13
-13
-14
-15
-15
-15
-16
-16
-17
-18
-18
-18
-20
-20
-21
-21
-22
-22
-22
-23
-23
-24
-24
-25
-26
-26
-26
-27
-27
-28
-29
-29
-30
-30
-31
-31
-31
-31
-32
-31
-32
-32
-33
-33
-33
-34
-34
-34
-34
-35
-35
-35
-36
-37
-37
-37
-39
-39
-40
-40
-41
-41
-41
-42
-43
-44
-44
-44
-44
-45
-45
-45
-47
-47
-47
-47
-47
-48
-48
-48
-48
-48
-48
-49
-49
-49
-50
-50
-50
-50
-50
-51
-51
-51
-52
-52
-52
-53
-53
-53
-53
-54
-53
-53
-53
-53
-53
-54
-53
-54
-54
-54
-54
-54
-54
-54
-54
-54
-54
-54
-54
-54
-54
-54
-53
-54
-54
-53
-53
-53
-54
-54
-54
-54
-53
-52
-52
-52
-52
-52
-51
-50
-50
-50
-50
-50
-50
-49
-49
-49
-48
-48
-48
-48
-48
-48
-48
-48
-48
-48
-47
-47
-47
-47
-48
-47
-47
-47
-47
-46
-46
-46
-46
-46
-46
-45
-45
-45
-44
-43
-43
-43
-42
-42
-42
-42
-42
-42
-41
-42
-42
-41
-41
-41
-41
-41
-41
-41
-41
-41
-41
-41
-41
-41
-40
-40
-40
-40
-39
-40
-40
-40
-39
-39
-39
-39
-39
-39
-40
-40
-40
-40
-40
-40
-40
-40
-40
-40
-40
-40
-40
-40
-40
-40
-40
-41
-41
-41
-41
-41
-40
-40
-41
-41
-41
-40
-41
-41
-41
-41
-41
-41
-41
-42
-42
-42
-42
-41
-41
-41
-41
-41
-41
-42
-42
-42
-42
-43
-43
-43
-43
-42
-42
-42
-43
-43
-42
-42
-41
-42
-42
-42
-41
-41
-41
-41
-42
-41
-41
-41
-41
-41
-42
-42
-42
-43
-43
-43
-42
-42
-42
-43
-44
-44
-44
-43
-43
-43
-43
-44
-44
-44
-44
-44
-44
-44
-44
-44
-44
-44
-44
-44
-44
-44
-44
-44
-44
-44
-45
-45
-44
-45
-45
-45
-45
-45
-45
-45
-46
-46
-45
-45
-45
-46
-46
-45
-45
-45
-45
-45
-45
-45
-45
-45
-45
-45
-45
-45
-45
-45
-46
-46
-45
-45
-45
-46
-46
-46
-46
-46
-46
-47
-47
-48
-48
-48
-49
-48
-48
-48
-48
-48
-48
-48
-48
-48
-48
-48
-48
-48
-48
-47
-47
-47
-46
-46
-46
-45
-45
-45
-45
-45
-44
-44
-44
-44
-44
-43
-43
-43
-43
-43
-42
-41
-41
-41
-40
-40
-40
-39
-39
-39
-38
-38
-38
-38
-36
-36
-36
-36
-36
-36
-36
-36
-36
-37
-36
-36
-37
-37
-37
-36
-36
-36
-36
-36
-36
-36
-37
-37
-37
-37
-37
-37
-37
-37
-37
-37
-37
-38
-38
-38
-38
-38
-38
-39
-39
-39
-39
-39
-40
-40
-40
-41
-41
-41
-41
-42
-43
-43
-43
-43
-44
-44
-44
-44
-45
-45
-45
-45
-46
-46
-46
-46
-46
-46
-46
-46
-46
-46
-46
-46
-45
-45
-45
-45
-45
-45
-45
-45
-45
-45
-45
-45
-45
-46
-47
-47
-47
-47
-47
-47
-47
-48
-49
-49
-49
-49
-49
-49
-49
-49
-49
-49
-49
-49
-49
-49
-50
-50
-50
-50
-49
-49
-49
-49
-49
-48
-48
-49
-49
-49
-49
-49
-49
-49
-49
-49
-49
-49
-48
-48
-48
-48
-48
-48
-48
-48
-47
-48
-48
-47
-47
-47
-46
-46
-45
-44
-43
-41
-40
-39
-36
-34
-32
-30
-27
-23
-20
-17
-13
-9
-4
0
5
11
16
21
27
32
37
43
48
53
57
61
65
67
70
71
71
69
65
61
55
48
40
29
17
4
-9
-25
-41
-58
-77
-96
-115
-135
-154
-174
-194
-212
-230
-247
-263
-278
-291
-303
-314
-324
-332
-340
-345
-349
-352
-353
-354
-353
-351
-348
-344
-340
-335
-329
-322
-314
-308
-300
-292
-284
-276
-267
-259
-252
-243
-236
-227
-220
-212
-205
-198
-191
-183
-176
-170
-163
-156
-149
-143
-136
-130
-123
-118
-111
-106
-101
-95
-91
-86
-83
-78
-74
-72
-69
-66
-63
-61
-59
-57
-55
-55
-53
-51
-50
-50
-48
-48
-48
-46
-46
-45
-45
-45
-44
-44
-44
-42
-43
-41
-41
-41
-40
-39
-39
-39
-39
-39
-38
-38
-37
-36
-36
-36
-36
-35
-35
-34
-34
-34
-34
-33
-33
-34
-34
-34
-34
-34
-33
-33
-33
-33
-33
-34
-34
-33
-33
-33
-33
-32
-32
-32
-31
-31
-31
-31
-30
-29
-29
-29
-29
-28
-28
-28
-27
-27
-28
-28
-27
-27
-27
-27
-27
-28
-28
-27
-27
-27
-27
-27
-27
-27
-27
-28
-28
-27
-27
-27
-27
-27
-27
-27
-26
-26
-26
-26
-25
-26
-25
-25
-25
-24
-24
-24
-24
-23
-23
-23
-23
-22
-21
-21
-21
-20
-20
-20
-19
-19
-19
-19
-19
-19
-18
-18
-18
-18
-18
-18
-18
-18
-17
-17
-17
-17
-16
-16
-16
-16
-15
-15
-14
-14
-14
-14
-14
-13
-13
-12
-12
-11
-11
-11
-10
-10
-10
-9
-9
-9
-8
-8
-8
-8
-7
-7
-7
-7
-6
-5
-5
-5
-5
-5
-4
-4
-3
-2
-2
-2
-1
0
0
1
1
2
2
3
3
3
3
4
4
5
5
5
6
6
6
6
6
6
6
7
7
6
6
6
6
7
7
7
7
7
7
7
8
8
8
8
8
9
9
9
9
9
9
9
9
9
9
9
8
8
8
8
8
8
8
8
8
7
7
7
5
5
5
5
5
4
4
4
3
2
2
2
1
1
1
1
0
0
0
-1
-2
-2
-2
-3
-3
-3
-3
-4
-4
-4
-5
-5
-6
-7
-7
-8
-8
-9
-10
-10
-12
-12
-12
-14
-14
-14
-16
-16
-16
-17
-18
-19
-19
-19
-20
-21
-21
-21
-21
-23
-23
-23
-24
-25
-25
-25
-25
-25
-26
-27
-27
-27
-28
-27
-29
-29
-29
-30
-30
-30
-31
-31
-31
-31
-32
-32
-32
-33
-34
-34
-34
-34
-35
-35
-36
-36
-37
-37
-37
-37
-37
-38
-38
-39
-39
-39
-39
-39
-39
-39
-40
-40
-40
-40
-39
-39
-40
-40
-39
-39
-39
-39
-40
-39
-39
-39
-40
-40
-40
-40
-39
-39
-39
-39
-40
-40
-39
-39
-39
-39
-40
-40
-40
-40
-40
-40
-40
-40
-40
-40
-40
-40
-40
-40
-41
-40
-39
-39
-39
-39
-40
-40
-40
-40
-39
-39
-39
-38
-38
-38
-38
-37
-37
-37
-37
-37
-36
-36
-36
-36
-35
-34
-34
-34
-34
-33
-34
-32
-32
-32
-32
-31
-31
-31
-31
-31
-30
-30
-30
-29
-29
-29
-29
-29
-29
-29
-28
-28
-28
-28
-27
-27
-27
-27
-28
-28
-27
-27
-27
-27
-28
-28
-28
-28
-27
-27
-28
-28
-27
-27
-27
-27
-27
-27
-27
-27
-26
-26
-26
-26
-26
-26
-26
-25
-25
-25
-25
-25
-25
-25
-25
-25
-25
-25
-25
-25
-25
-25
-25
-25
-25
-25
-26
-26
-25
-26
-26
-26
-26
-26
-26
-26
-26
-26
-26
-26
-26
-26
-26
-26
-26
-27
-27
-26
-26
-26
-27
-27
-27
-26
-26
-26
-26
-26
-26
-26
-26
-25
-26
-26
-27
-27
-27
-27
-26
-26
-27
-27
-26
-26
-26
-26
-26
-26
-26
-26
-27
-27
-27
-27
-28
-28
-28
-28
-28
-28
-28
-29
-29
-29
-29
-29
-30
-30
-30
-30
-30
-30
-30
-30
-31
-31
-31
-31
-30
-30
-30
-31
-30
-30
-30
-30
-30
-30
-30
-30
-29
-29
-28
-28
-28
-28
-28
-28
-29
-28
-29
-29
-29
-28
-28
-29
-29
-30
-30
-30
-31
-31
-31
-30
-30
-30
-31
-30
-30
-30
-31
-31
-31
-31
-31
-30
-30
-30
-30
-30
-30
-30
-30
-29
-29
-29
-29
-29
-29
-29
-29
-29
-29
-29
-28
-29
-29
-29
-30
-29
-29
-29
-29
-29
-29
-30
-30
-30
-30
-30
-30
-30
-29
-29
-29
-29
-29
-28
-29
-28
-28
-28
-28
-28
-27
-27
-26
-27
-27
-27
-26
-26
-26
-25
-25
-25
-26
-25
-25
-25
-24
-24
-24
-24
-24
-24
-23
-23
-22
-22
-22
-22
-22
-21
-21
-20
-20
-20
-20
-19
-20
-20
-19
-19
-20
-20
-20
-20
-20
-20
-20
-20
-20
-20
-20
-19
-20
-19
-20
-20
-19
-19
-19
-19
-18
-18
-19
-18
-18
-18
-17
-18
-18
-18
-18
-19
-19
-19
-20
-20
-20
-20
-21
-21
-21
-23
-23
-23
-23
-24
-24
-25
-25
-25
-26
-26
-26
-26
-26
-26
-25
-26
-26
-25
-25
-26
-26
-25
-25
-25
-25
-25
-24
-25
-24
-24
-25
-25
-24
-25
-25
-25
-26
-26
-26
-26
-26
-26
-26
-26
-27
-27
-28
-28
-28
-28
-28
-28
-28
-28
-28
-27
-28
-28
-28
-28
-27
-27
-28
-28
-28
-28
-28
-28
-28
-28
-28
-28
-28
-28
-28
-28
-28
-28
-28
-29
-29
-29
-27
-28
-28
-28
-28
-27
-27
-27
-27
-27
-27
-27
-27
-26
-26
-25
-24
-23
-22
-21
-19
-18
-17
-14
-13
-10
-7
-5
-1
2
5
9
13
17
22
26
31
35
40
45
51
55
59
65
70
74
79
