# Simple Text Format
# Sampling Rate (Hz):= 1200.00
# Resolution:= 12
# Labels:= ECG	aVL
# Age:=	58
# Gender:=	Feminino
24
23
23
22
21
21
21
21
21
21
21
20
20
19
19
19
19
19
19
19
19
19
18
18
18
18
18
17
17
17
17
17
17
17
17
17
17
16
16
16
16
16
16
16
16
16
16
16
16
16
16
16
16
17
17
17
17
17
17
17
17
17
17
17
17
18
18
18
18
18
18
17
17
18
17
16
16
16
15
15
15
15
15
15
13
13
14
13
13
13
13
13
13
13
12
12
12
12
12
12
12
12
12
12
12
13
12
12
12
13
13
13
13
13
14
14
14
14
14
14
14
13
14
14
13
14
14
13
13
13
13
13
13
12
12
12
12
12
12
12
12
12
12
13
13
12
12
12
11
11
11
11
11
11
11
11
11
11
11
11
10
10
10
10
10
10
10
10
9
9
10
10
10
10
9
9
9
9
10
10
10
9
9
9
10
10
9
9
9
9
8
8
8
8
8
8
8
8
8
8
8
8
8
8
9
9
9
9
9
9
9
9
9
10
10
10
10
10
9
9
9
10
9
9
8
8
9
8
8
8
7
7
7
6
6
6
6
6
6
6
6
6
6
6
7
7
7
7
7
7
7
7
7
7
7
7
6
6
7
7
8
8
8
9
9
10
9
9
9
9
10
9
9
10
9
9
8
8
7
7
7
6
5
5
5
4
4
3
3
4
4
4
4
3
3
3
3
3
3
3
3
3
2
2
3
2
2
2
2
2
2
2
2
2
2
2
2
3
3
3
3
3
3
3
4
4
4
5
5
5
5
5
6
6
6
6
7
7
7
7
7
7
6
6
6
7
6
6
5
5
4
4
4
4
3
2
2
2
1
0
0
1
1
0
0
0
0
0
0
0
0
0
0
0
1
1
0
0
0
0
0
0
1
0
0
0
0
0
1
1
1
1
1
1
0
0
0
0
2
2
1
1
2
1
1
2
2
2
2
2
2
3
3
3
3
4
4
4
4
3
4
5
4
5
5
6
6
6
7
7
7
7
8
8
8
8
8
8
8
9
9
9
9
9
10
11
11
11
11
11
11
11
12
12
12
12
11
12
12
13
13
13
14
13
14
14
15
15
14
14
15
14
14
14
14
13
13
13
13
13
12
12
11
10
9
8
7
6
7
6
5
4
4
3
3
2
2
2
1
2
1
1
1
1
0
1
1
0
0
0
0
0
-1
-2
-1
-1
-2
-2
-2
-3
-3
-3
-3
-3
-3
-3
-3
-3
-3
-3
-3
-3
-3
-3
-3
-4
-4
-4
-4
-4
-4
-4
-5
-5
-5
-5
-5
-6
-6
-6
-6
-6
-6
-6
-6
-7
-7
-7
-7
-7
-7
-8
-7
-8
-9
-9
-11
-11
-12
-14
-16
-17
-18
-20
-22
-24
-26
-28
-29
-31
-33
-36
-37
-39
-40
-40
-41
-41
-40
-41
-39
-38
-37
-35
-34
-32
-29
-26
-23
-20
-14
-9
-4
3
11
18
27
36
45
55
66
77
88
100
113
126
138
151
163
175
186
197
208
218
226
234
241
247
253
257
260
263
264
266
266
266
265
264
260
258
253
250
244
239
234
228
222
216
210
203
197
191
184
178
172
165
160
153
147
142
136
129
123
118
112
106
101
95
89
83
76
71
66
59
54
49
44
40
34
31
27
23
21
19
16
14
11
9
7
6
4
3
3
1
1
0
-1
-2
-3
-3
-3
-4
-4
-4
-4
-5
-4
-5
-5
-5
-5
-5
-6
-6
-7
-6
-6
-7
-7
-7
-8
-8
-8
-8
-9
-10
-10
-9
-10
-10
-10
-10
-10
-10
-10
-10
-10
-10
-10
-10
-10
-9
-9
-8
-8
-8
-9
-9
-10
-10
-11
-10
-10
-10
-11
-11
-11
-11
-11
-12
-11
-11
-12
-11
-11
-11
-11
-11
-11
-11
-11
-11
-11
-11
-11
-11
-11
-11
-11
-11
-11
-11
-10
-11
-10
-10
-10
-10
-10
-10
-10
-10
-10
-10
-11
-11
-11
-11
-11
-12
-12
-12
-13
-12
-12
-12
-11
-11
-11
-11
-11
-11
-11
-10
-10
-10
-10
-9
-9
-8
-8
-8
-8
-7
-6
-6
-6
-6
-6
-6
-5
-5
-5
-6
-6
-6
-6
-5
-4
-4
-4
-4
-4
-4
-4
-4
-4
-4
-5
-4
-5
-5
-5
-5
-5
-6
-6
-7
-7
-6
-6
-7
-7
-7
-7
-7
-7
-7
-7
-7
-6
-6
-6
-6
-5
-5
-5
-4
-5
-5
-5
-5
-6
-6
-6
-5
-6
-6
-7
-6
-6
-6
-6
-7
-7
-7
-7
-6
-5
-5
-4
-4
-4
-3
-3
-3
-3
-2
-2
-2
-2
-1
-1
-2
-1
-1
-1
-1
-1
-1
-1
-1
-1
0
0
0
1
1
1
2
2
3
3
3
3
3
4
4
4
4
4
4
4
3
4
4
3
3
3
3
2
3
3
3
2
3
3
4
4
5
5
5
6
7
7
7
8
9
9
9
9
10
11
10
10
11
11
11
11
11
12
12
11
11
12
11
11
11
11
11
11
11
11
10
10
10
10
9
9
8
8
8
8
7
7
7
7
6
5
5
4
4
4
3
2
2
2
1
1
1
0
0
-1
-1
0
-1
-1
-2
-2
-3
-3
-4
-4
-4
-4
-5
-4
-4
-4
-5
-6
-6
-6
-6
-7
-7
-7
-8
-8
-9
-9
-9
-9
-9
-10
-10
-10
-10
-10
-10
-9
-10
-10
-9
-9
-9
-9
-9
-9
-9
-9
-9
-8
-9
-9
-9
-9
-9
-9
-9
-10
-10
-10
-10
-10
-10
-11
-11
-11
-11
-12
-12
-11
-11
-11
-12
-11
-11
-11
-11
-11
-11
-11
-11
-11
-11
-11
-12
-11
-11
-11
-11
-11
-11
-11
-11
-11
-11
-11
-11
-11
-11
-12
-12
-12
-12
-13
-13
-14
-14
-15
-15
-15
-15
-15
-15
-15
-15
-15
-15
-15
-15
-16
-16
-16
-15
-16
-16
-17
-16
-16
-17
-17
-18
-18
-19
-19
-20
-20
-21
-22
-22
-23
-23
-24
-24
-25
-25
-25
-25
-25
-25
-25
-26
-26
-26
-26
-26
-26
-26
-26
-26
-26
-26
-25
-25
-25
-25
-26
-25
-25
-25
-25
-26
-25
-25
-26
-26
-26
-26
-26
-26
-26
-26
-26
-26
-26
-26
-26
-26
-26
-27
-27
-27
-27
-27
-27
-27
-27
-27
-27
-28
-28
-28
-28
-28
-28
-28
-29
-28
-29
-29
-29
-30
-29
-30
-30
-30
-30
-30
-31
-30
-30
-30
-30
-30
-30
-31
-31
-31
-31
-31
-30
-30
-30
-30
-30
-30
-30
-30
-30
-30
-30
-31
-31
-31
-32
-32
-32
-33
-33
-33
-33
-34
-33
-34
-34
-34
-34
-35
-35
-35
-36
-36
-36
-36
-35
-36
-36
-36
-37
-37
-37
-37
-37
-37
-37
-37
-37
-37
-37
-37
-37
-37
-36
-36
-36
-36
-36
-36
-36
-36
-36
-36
-36
-36
-36
-36
-36
-36
-36
-36
-36
-36
-37
-36
-36
-37
-37
-37
-37
-38
-38
-39
-39
-40
-40
-40
-41
-41
-41
-41
-41
-41
-41
-41
-41
-41
-41
-41
-41
-40
-40
-40
-40
-40
-40
-39
-39
-39
-39
-39
-40
-40
-40
-40
-40
-40
-41
-41
-41
-42
-42
-43
-43
-43
-44
-44
-44
-44
-45
-45
-45
-45
-45
-45
-46
-45
-45
-45
-45
-45
-44
-44
-45
-44
-44
-44
-44
-44
-43
-43
-43
-43
-43
-43
-43
-43
-44
-44
-44
-45
-45
-46
-46
-47
-47
-47
-47
-47
-47
-48
-47
-47
-47
-47
-46
-46
-46
-46
-45
-45
-44
-43
-42
-42
-41
-41
-40
-40
-39
-39
-39
-38
-38
-38
-37
-38
-37
-38
-38
-37
-37
-37
-37
-38
-38
-38
-38
-38
-39
-39
-39
-39
-40
-40
-40
-40
-40
-40
-40
-41
-40
-40
-41
-40
-40
-40
-41
-40
-40
-40
-40
-40
-40
-39
-40
-40
-41
-40
-41
-41
-41
-42
-43
-43
-44
-44
-45
-45
-46
-47
-47
-48
-48
-48
-48
-48
-49
-50
-50
-49
-49
-50
-50
-50
-51
-51
-51
-51
-50
-51
-51
-52
-52
-52
-52
-53
-53
-53
-54
-54
-55
-55
-56
-56
-56
-56
-56
-56
-57
-57
-58
-58
-58
-58
-59
-58
-59
-59
-59
-59
-60
-60
-60
-60
-60
-60
-60
-60
-60
-60
-59
-59
-59
-59
-60
-61
-60
-61
-62
-62
-64
-64
-66
-68
-69
-70
-72
-74
-76
-77
-79
-81
-83
-85
-87
-89
-92
-92
-94
-95
-96
-97
-97
-96
-96
-95
-94
-93
-91
-90
-87
-85
-83
-79
-75
-72
-67
-61
-54
-47
-39
-32
-23
-13
-3
8
19
30
41
53
64
76
88
100
112
124
134
144
156
164
172
179
185
191
195
198
201
203
205
205
205
205
202
201
198
194
191
186
181
176
171
165
160
153
148
141
135
129
123
115
107
101
96
89
83
76
71
65
59
54
48
41
36
30
24
19
13
8
3
-4
-8
-13
-18
-23
-27
-31
-35
-38
-41
-43
-46
-48
-50
-52
-54
-56
-57
-57
-59
-59
-60
-60
-61
-62
-62
-63
-64
-65
-66
-65
-66
-66
-67
-68
-68
-69
-69
-70
-70
-71
-72
-72
-72
-72
-73
-74
-74
-73
-73
-73
-73
-73
-74
-73
-73
-72
-72
-72
-72
-72
-71
-71
-71
-71
-72
-72
-72
-73
-73
-74
-73
-74
-75
-75
-76
-76
-77
-77
-77
-77
-78
-78
-77
-76
-77
-77
-76
-76
-76
-76
-76
-76
-76
-76
-76
-76
-76
-76
-76
-76
-76
-77
-77
-77
-78
-77
-78
-78
-78
-78
-78
-78
-77
-77
-77
-77
-78
-77
-77
-78
-78
-78
-77
-77
-77
-78
-78
-77
-77
-77
-77
-77
-77
-76
-76
-76
-77
-77
-76
-76
-76
-75
-75
-75
-75
-75
-75
-75
-75
-75
-75
-76
-76
-76
-75
-75
-75
-75
-75
-75
-75
-75
-75
-75
-75
-75
-75
-76
-75
-75
-75
-75
-75
-75
-75
-76
-76
-75
-76
-76
-76
-76
-76
-76
-76
-77
-77
-77
-77
-77
-77
-77
-77
-78
-78
-77
-77
-77
-77
-77
-76
-76
-76
-76
-75
-75
-75
-74
-74
-74
-74
-73
-73
-73
-73
-73
-73
-72
-72
-72
-73
-72
-71
-72
-72
-71
-71
-72
-72
-71
-71
-72
-72
-72
-73
-73
-72
-72
-73
-73
-73
-74
-74
-74
-74
-75
-75
-75
-75
-75
-75
-75
-74
-74
-74
-74
-73
-73
-73
-72
-72
-72
-71
-71
-70
-70
-70
-70
-70
-69
-69
-69
-69
-69
-68
-69
-68
-68
-67
-67
-67
-66
-66
-66
-65
-65
-64
-64
-63
-63
-63
-62
-62
-61
-61
-60
-60
-60
-60
-59
-59
-58
-59
-58
-58
-58
-59
-58
-58
-58
-58
-58
-58
-58
-59
-59
-59
-59
-59
-60
-59
-60
-60
-59
-60
-60
-60
-61
-61
-62
-62
-63
-63
-63
-64
-64
-64
-65
-65
-66
-66
-66
-67
-67
-68
-68
-69
-69
-70
-70
-70
-71
-71
-72
-72
-71
-72
-72
-71
-73
-72
-72
-73
-72
-72
-72
-72
-73
-72
-73
-73
-73
-72
-73
-73
-73
-73
-73
-73
-73
-73
-73
-73
-73
-73
-73
-73
-73
-74
-73
-74
-74
-75
-75
-76
-75
-75
-76
-76
-77
-78
-78
-78
-77
-78
-79
-79
-79
-79
-79
-79
-79
-79
-79
-78
-78
-78
-77
-77
-76
-76
-75
-74
-74
-73
-73
-73
-73
-73
-73
-73
-73
-72
-73
-73
-73
-74
-74
-75
-75
-75
-76
-76
-76
-77
-77
-78
-77
-77
-77
-77
-77
-78
-77
-76
-76
-76
-76
-76
-75
-75
-75
-75
-75
-76
-75
-75
-76
-76
-76
-76
-77
-76
-77
-77
-77
-77
-77
-77
-78
-78
-77
-77
-77
-77
-77
-78
-77
-77
-77
-77
-78
-78
-78
-78
-78
-78
-78
-78
-78
-78
-78
-79
-78
-79
-79
-78
-78
-77
-77
-77
-77
-77
-77
-77
-77
-76
-76
-76
-76
-76
-76
-75
-75
-75
-75
-75
-74
-73
-74
-74
-74
-74
-74
-73
-73
-73
-72
-72
-73
-73
-73
-72
-72
-72
-72
-72
-72
-72
-72
-72
-71
-72
-72
-72
-72
-72
-72
-72
-72
-72
-72
-72
-72
-72
-72
-73
-73
-73
-73
-73
-73
-73
-73
-73
-73
-73
-73
-73
-72
-72
-72
-71
-71
-71
-71
-70
-70
-70
-69
-69
-68
-68
-68
-67
-67
-67
-67
-66
-66
-67
-67
-66
-66
-67
-67
-67
-67
-67
-67
-67
-67
-68
-68
-69
-68
-68
-68
-68
-68
-68
-67
-67
-67
-67
-67
-66
-66
-65
-65
-65
-65
-64
-64
-64
-63
-63
-63
-63
-63
-63
-63
-62
-62
-62
-61
-61
-61
-61
-62
-62
-62
-63
-62
-62
-62
-62
-62
-62
-62
-63
-63
-62
-62
-63
-62
-62
-62
-62
-61
-61
-61
-61
-61
-61
-61
-61
-61
-61
-60
-60
-60
-60
-60
-60
-59
-58
-58
-59
-59
-58
-58
-59
-59
-58
-58
-58
-58
-57
-57
-57
-57
-56
-56
-56
-56
-55
-55
-55
-55
-54
-54
-55
-55
-54
-54
-54
-54
-53
-53
-54
-54
-53
-53
-52
-53
-53
-52
-52
-51
-51
-51
-49
-49
-48
-47
-46
-46
-45
-45
-45
-44
-44
-44
-44
-43
-43
-43
-43
-43
-43
-43
-43
-44
-44
-44
-44
-44
-44
-44
-44
-44
-44
-44
-44
-44
-44
-43
-44
-43
-43
-42
-42
-43
-42
-41
-41
-41
-40
-40
-39
-39
-38
-39
-39
-39
-38
-38
-39
-38
-38
-38
-38
-38
-39
-39
-39
-39
-40
-41
-41
-41
-41
-42
-42
-41
-41
-42
-42
-42
-43
-43
-44
-44
-44
-44
-44
-44
-44
-45
-46
-46
-46
-46
-46
-47
-47
-48
-48
-47
-47
-47
-47
-47
-47
-46
-46
-46
-45
-45
-45
-45
-45
-45
-45
-45
-45
-45
-45
-46
-45
-46
-46
-46
-46
-45
-45
-45
-44
-44
-44
-43
-44
-43
-43
-43
-42
-42
-42
-41
-41
-41
-41
-41
-41
-42
-43
-43
-44
-45
-46
-47
-49
-50
-51
-53
-55
-57
-59
-61
-62
-64
-66
-68
-69
-70
-71
-71
-71
-71
-70
-69
-68
-65
-64
-61
-59
-56
-53
-49
-45
-40
-34
-29
-22
-14
-6
3
12
22
32
43
53
65
77
88
99
111
124
135
146
157
168
178
187
195
203
209
215
219
224
227
230
232
232
234
232
231
230
227
224
220
215
210
206
201
195
190
184
178
173
166
161
154
149
142
136
131
125
119
113
108
103
97
92
86
81
77
71
66
60
55
51
45
41
35
30
26
22
18
15
11
8
4
2
-1
-3
-4
-6
-8
-9
-11
-12
-12
-13
-13
-14
-15
-15
-16
-16
-16
-16
-17
-17
-17
-17
-16
-17
-17
-18
-18
-18
-18
-18
-18
-18
-19
-18
-18
-18
-18
-19
-19
-19
-19
-19
-18
-18
-18
-18
-18
-18
-17
-17
-17
-16
-16
-16
-15
-15
-15
-15
-14
-14
-13
-13
-13
-13
-13
-12
-12
-12
-11
-11
-11
-11
-11
-11
-10
-10
-10
-10
-10
-9
-10
-10
-9
-9
-9
-9
-9
-8
-8
-8
-8
-8
-7
-7
-7
-7
-7
-6
-5
-5
-5
-4
-4
-4
-4
-4
-3
-4
-3
-2
-2
-2
-2
-2
-2
-1
-2
-2
-2
-2
-2
-2
-2
-2
-2
-2
-2
-2
-2
-1
-1
-1
-1
0
0
0
1
0
2
2
2
3
3
3
4
4
4
4
4
4
4
4
4
4
4
4
4
4
3
3
3
4
4
4
3
3
3
4
4
4
5
5
5
5
6
6
6
7
7
8
8
8
9
9
10
11
11
11
12
12
13
13
13
13
14
15
15
14
14
15
16
16
16
16
16
17
18
18
18
18
18
18
19
19
19
20
20
21
21
22
22
23
23
23
23
23
24
24
25
25
25
26
26
26
26
26
26
26
26
26
26
27
27
27
27
27
27
28
28
28
29
29
29
30
30
31
31
32
32
32
33
34
35
34
35
35
36
37
36
37
37
37
38
37
38
38
38
37
38
37
38
38
38
39
38
39
39
39
39
40
40
40
40
41
41
42
42
42
42
43
42
43
43
43
43
43
43
43
44
43
43
43
42
43
43
43
42
42
43
42
43
42
43
42
42
43
42
42
43
43
42
43
43
42
42
42
41
41
41
41
40
40
40
40
40
40
39
39
39
38
38
38
38
38
37
38
38
38
38
38
38
38
39
38
38
38
39
39
39
39
38
39
39
39
38
39
39
39
40
39
39
40
40
40
40
41
41
41
41
41
41
41
42
42
43
43
43
43
43
44
44
45
45
45
46
46
47
47
48
48
50
50
50
51
51
51
51
51
51
52
52
52
51
51
51
51
51
51
51
51
51
51
51
50
50
51
51
51
51
51
50
51
51
51
51
51
52
52
52
53
53
54
54
54
54
55
56
56
56
56
57
57
57
58
58
59
58
58
59
59
60
59
59
59
58
57
57
58
57
57
57
55
55
55
55
55
55
55
55
55
55
54
54
54
54
54
54
54
54
54
54
55
55
55
55
55
54
55
55
55
55
55
55
55
55
55
55
54
54
55
55
55
55
55
55
55
54
55
55
55
55
55
56
56
57
57
57
57
58
58
58
58
58
59
59
59
60
60
61
61
61
61
61
60
61
61
61
61
61
60
61
61
61
60
60
60
60
61
61
61
61
61
62
62
61
62
62
62
63
63
64
65
65
66
66
66
67
67
68
68
68
68
68
68
68
68
68
68
68
68
67
67
66
66
66
65
65
65
65
65
64
64
64
64
64
64
64
64
64
64
65
64
64
65
65
65
65
65
66
66
66
67
67
68
68
69
69
69
70
70
70
70
71
71
71
71
71
72
71
71
71
71
71
71
71
70
69
69
69
69
69
69
69
69
69
69
69
70
69
69
69
69
69
70
70
70
70
70
70
70
70
71
71
71
71
70
71
71
71
71
71
70
70
71
71
71
72
72
72
72
72
73
72
72
73
73
73
74
74
74
74
75
75
75
75
75
75
75
75
76
76
76
77
77
77
77
77
77
78
78
78
78
78
79
79
80
80
80
80
81
81
81
82
82
82
82
83
83
84
84
85
86
87
87
88
88
88
89
89
90
90
90
91
91
92
93
93
92
92
92
92
92
92
92
92
91
91
90
90
90
89
89
89
89
89
88
88
88
88
88
88
88
89
89
89
89
90
90
90
89
90
90
90
90
90
89
89
89
89
87
87
86
86
85
85
84
83
83
82
81
81
81
80
80
80
80
80
80
80
80
80
80
81
80
80
80
80
80
80
81
81
81
81
81
82
82
82
83
83
83
83
84
84
84
83
84
85
85
85
85
85
85
85
85
84
84
83
83
82
82
82
81
81
81
81
81
80
80
80
80
80
79
79
79
78
78
77
76
76
75
74
73
72
70
68
66
64
63
60
58
57
55
53
51
50
50
50
49
50
51
52
54
55
57
59
62
64
67
71
76
82
88
94
102
109
118
128
137
147
158
169
180
192
205
217
228
241
252
264
276
288
297
307
316
324
331
338
343
349
352
355
357
358
360
360
359
358
355
353
350
346
341
337
332
326
321
315
308
303
297
290
283
277
272
265
258
253
246
240
235
229
222
217
211
206
200
194
189
183
177
172
167
161
156
151
146
141
137
133
130
126
123
120
117
115
112
110
109
107
105
103
103
101
101
100
99
97
97
96
96
95
94
95
95
94
94
94
94
94
95
95
94
94
95
95
95
95
96
96
96
97
97
97
97
97
96
97
97
97
97
96
96
96
95
95
95
94
94
93
93
93
93
93
93
92
92
92
91
91
91
91
91
91
91
92
92
92
93
93
94
93
94
94
94
95
95
95
95
96
96
96
96
95
95
96
96
95
95
95
95
95
95
95
95
95
95
95
95
96
96
96
97
97
98
98
98
99
99
99
99
100
100
100
100
100
100
100
100
100
100
100
99
99
99
99
99
98
98
98
98
98
99
99
99
99
99
99
100
100
100
101
101
101
101
101
101
101
101
102
102
102
102
102
102
102
102
102
102
102
102
103
103
103
104
104
104
104
104
104
105
105
105
105
106
106
106
107
107
107
107
107
108
108
108
108
108
108
108
108
108
109
109
108
108
108
108
108
108
108
108
108
108
107
108
108
108
108
107
107
107
107
109
109
109
109
110
110
111
111
111
111
112
112
112
113
113
113
113
114
114
115
115
115
116
116
116
116
117
117
117
117
117
117
118
118
118
119
119
119
119
119
119
119
119
119
119
119
120
120
119
120
120
120
120
121
121
120
120
120
121
121
121
122
122
123
123
123
123
124
124
124
125
125
125
126
126
126
127
126
127
127
128
128
128
128
128
128
128
128
129
128
128
128
127
128
127
127
127
127
127
127
126
127
126
126
126
125
125
125
124
124
123
123
124
123
123
123
122
121
121
120
120
120
120
118
118
118
119
118
117
117
117
117
117
116
116
116
115
114
115
115
115
115
115
115
115
115
115
115
116
116
116
116
117
116
117
117
117
117
117
118
118
118
118
118
118
118
118
118
118
118
118
118
117
117
117
117
116
116
117
117
117
118
117
117
116
117
117
117
117
117
116
116
116
116
116
116
116
116
116
116
116
116
115
115
115
114
114
114
114
113
113
113
113
113
113
112
112
111
111
111
111
111
111
111
112
112
112
111
112
112
112
112
112
113
113
113
113
113
113
113
114
114
113
113
113
113
113
113
113
113
113
113
113
113
113
112
112
111
111
110
110
110
110
110
109
109
109
108
108
108
108
108
108
108
108
108
108
108
109
109
110
110
109
110
111
111
112
113
113
114
114
115
114
115
116
116
117
117
118
117
117
118
118
118
118
118
117
117
117
116
116
116
115
115
115
115
114
114
114
113
113
113
113
113
113
114
114
114
115
115
115
115
116
117
116
116
116
117
117
117
118
118
117
117
117
118
118
118
118
118
118
118
118
118
118
118
118
118
118
118
119
119
118
118
118
118
118
118
118
118
118
118
118
117
118
117
117
117
117
117
117
118
117
116
116
116
117
117
117
117
117
117
117
117
117
117
117
116
116
116
116
116
116
115
115
116
116
116
116
116
116
117
117
116
116
116
117
118
118
118
118
118
119
119
119
119
119
119
119
119
119
119
119
119
118
118
119
118
118
117
117
117
117
116
116
116
116
116
115
115
116
116
116
115
115
115
116
116
115
115
116
116
116
116
116
116
117
117
117
117
118
118
118
119
119
119
119
119
119
119
119
119
119
119
119
119
118
118
118
118
118
118
118
117
118
118
117
117
117
117
118
118
118
117
118
118
118
118
118
118
118
119
119
119
119
119
119
119
120
120
120
121
120
121
121
121
121
122
123
123
123
123
124
124
125
125
125
125
126
127
127
127
127
128
128
128
128
128
128
128
128
128
128
127
127
127
127
126
126
126
125
125
125
125
125
125
125
125
125
125
125
126
126
125
126
126
126
126
125
125
126
126
126
126
125
124
124
124
124
124
124
124
123
123
123
123
122
122
122
122
121
120
120
120
119
119
119
118
117
117
116
116
114
114
114
114
113
113
113
113
114
113
113
113
114
114
115
115
115
115
116
117
117
117
117
117
116
116
116
115
115
114
113
112
112
111
110
110
109
108
108
107
106
106
105
104
105
104
104
104
104
103
102
102
101
100
99
98
97
96
94
93
91
90
88
86
84
82
81
79
78
77
76
76
76
75
76
77
78
79
80
83
85
87
90
93
97
101
106
111
118
125
132
140
149
158
168
178
189
199
211
221
235
247
259
271
282
294
305
315
326
336
345
352
360
366
371
376
380
383
386
387
388
388
387
385
383
380
377
373
368
362
356
350
344
337
330
323
317
309
302
295
288
281
275
269
262
256
250
243
237
232
227
221
215
209
203
197
191
186
181
175
171
165
160
156
151
146
143
140
137
134
132
129
127
125
123
121
120
119
117
116
115
114
113
113
112
110
111
110
109
108
108
108
107
107
107
106
106
106
105
106
105
105
105
105
105
105
105
105
105
105
105
105
105
106
106
106
105
106
106
106
106
105
106
106
106
106
106
106
106
106
106
106
106
106
105
105
106
106
106
105
105
105
105
105
105
104
104
105
105
105
105
105
105
105
104
105
105
106
106
106
106
105
105
105
106
106
106
106
106
106
106
106
106
105
105
105
106
105
105
105
106
106
106
106
106
105
106
106
106
106
106
106
106
106
106
106
106
106
106
106
106
106
106
106
106
105
106
106
106
106
106
106
105
106
106
106
106
107
107
107
106
107
107
107
107
107
107
107
108
108
108
108
109
109
109
109
109
109
109
109
109
109
110
109
109
109
109
108
109
109
108
108
107
107
107
108
107
107
107
107
107
107
107
107
107
108
109
109
110
110
110
111
112
113
114
114
115
116
116
116
116
117
116
116
116
116
116
115
116
115
114
114
114
113
113
113
112
113
112
111
112
111
111
111
112
111
111
111
112
112
112
113
113
113
113
113
113
114
114
114
114
114
114
114
114
115
115
115
115
116
116
116
116
116
117
116
116
117
117
117
117
117
118
118
118
117
118
118
119
118
119
119
119
119
120
120
121
120
121
121
122
123
122
122
123
122
122
123
122
123
122
122
122
123
122
122
121
121
121
120
120
121
120
120
120
120
120
120
120
119
120
120
119
119
118
119
119
119
118
118
118
118
117
117
117
116
117
117
116
116
116
116
116
115
115
115
114
114
113
113
113
112
112
112
111
110
110
110
110
109
109
109
109
109
109
109
109
109
109
109
110
109
109
109
109
109
109
109
109
109
109
109
109
109
109
109
110
109
109
109
108
108
109
109
108
108
108
107
107
107
107
107
107
107
107
106
106
106
105
106
106
105
105
105
106
105
105
105
104
104
105
105
105
105
104
104
104
104
103
103
103
103
103
102
102
102
102
102
102
101
101
101
100
100
100
100
100
101
101
101
101
101
101
102
101
101
101
102
102
102
102
101
101
101
101
100
100
101
100
100
100
100
101
100
99
99
100
100
100
101
101
101
101
101
101
101
101
101
101
100
100
100
100
99
100
99
99
98
98
98
97
97
96
97
97
96
96
95
95
96
95
95
95
95
95
95
95
95
95
96
96
96
96
97
97
97
97
98
98
98
98
98
99
99
99
99
99
99
99
99
99
98
98
98
98
97
97
97
96
96
96
96
96
96
96
96
96
96
96
96
96
96
96
96
97
97
97
97
97
97
97
97
97
97
97
97
97
97
97
97
96
96
96
95
95
95
95
95
95
95
95
95
95
95
95
95
95
95
95
95
95
94
94
94
95
95
95
95
94
94
93
93
93
93
93
93
94
93
93
94
94
94
94
94
94
94
94
94
94
94
94
94
94
94
94
94
94
94
94
94
95
95
95
95
95
95
95
95
95
94
95
95
95
95
95
94
94
94
93
93
93
93
93
93
93
93
93
93
93
93
93
94
94
94
94
94
94
94
94
95
95
95
96
96
96
96
95
95
96
96
96
96
96
96
96
96
96
96
95
95
95
96
95
95
95
95
95
94
94
94
93
94
94
94
94
95
96
96
96
97
97
97
98
98
99
100
100
101
101
101
101
102
103
103
102
102
102
102
102
102
102
101
101
101
101
101
101
101
101
101
101
101
101
101
101
100
100
100
101
101
101
102
102
101
101
102
102
102
102
102
102
101
101
101
100
100
100
100
99
99
98
98
97
97
97
97
96
96
96
96
95
95
95
95
95
94
94
94
93
93
93
93
93
92
92
91
91
91
90
89
88
88
88
87
87
87
87
86
86
86
86
85
85
85
85
84
84
84
84
84
84
83
83
83
83
83
83
83
82
83
83
83
83
83
84
84
84
85
85
85
85
85
85
85
85
84
84
83
82
82
81
79
78
76
75
73
71
69
67
65
63
61
59
58
56
55
53
53
53
54
54
55
56
59
60
63
65
68
71
74
79
84
89
96
103
110
118
126
135
145
155
165
176
188
199
211
222
234
246
257
268
278
289
298
307
315
322
329
334
338
343
345
346
348
348
347
347
345
342
339
335
331
326
322
317
311
306
300
294
288
282
276
269
263
257
250
243
237
230
224
217
211
205
199
192
185
179
173
168
161
156
150
145
140
135
130
126
122
118
115
110
108
106
103
101
99
98
96
96
94
94
93
93
92
91
91
91
91
90
91
90
90
90
90
90
89
89
90
90
90
90
89
89
88
88
89
88
88
88
87
87
87
86
86
85
85
84
84
83
83
83
82
82
81
81
81
81
81
81
80
80
80
80
81
80
80
80
80
80
80
80
80
79
79
80
80
80
79
79
79
80
80
80
80
80
81
81
81
81
81
81
82
82
83
83
83
83
83
83
83
83
83
83
83
84
84
84
84
84
84
84
83
83
83
83
82
82
82
82
82
82
82
82
82
82
82
82
82
82
83
83
83
83
83
83
83
83
84
84
83
84
84
84
84
84
84
84
84
84
84
84
84
84
84
84
84
84
84
85
85
85
85
86
86
86
86
86
87
87
87
87
87
87
88
88
88
88
88
87
88
87
87
87
87
87
87
87
87
87
86
86
87
86
86
86
86
87
86
86
86
86
86
86
86
85
86
86
85
85
85
85
85
85
85
85
85
86
85
85
85
86
86
86
86
86
87
87
87
87
88
88
88
89
89
90
90
90
91
91
92
92
92
93
93
93
93
93
93
93
93
93
93
92
92
93
93
93
93
92
92
92
92
92
92
92
93
93
93
94
94
93
93
93
94
94
95
95
95
95
96
96
95
96
96
95
96
96
97
96
97
97
97
96
96
97
97
96
97
97
97
97
96
97
97
97
97
96
96
96
96
96
96
96
95
95
95
94
93
93
93
92
91
91
90
89
88
88
86
86
85
85
84
84
83
83
82
82
82
81
81
81
81
80
80
80
80
81
80
80
80
80
81
80
80
80
80
80
80
80
80
80
79
79
78
78
78
78
78
78
78
77
77
77
77
78
78
78
78
78
78
78
77
78
77
77
77
77
77
77
77
77
77
76
76
75
75
75
75
75
75
74
74
73
74
74
74
73
73
73
74
74
74
74
74
74
74
75
74
74
74
74
74
75
75
74
74
74
74
74
75
75
74
75
75
74
74
74
73
73
74
74
74
74
74
73
73
73
72
72
72
72
71
72
72
72
71
71
71
70
71
70
70
70
70
69
69
69
69
69
69
69
70
69
69
69
69
69
68
68
68
68
68
68
68
67
67
67
67
67
66
66
67
67
67
67
67
67
67
67
67
67
67
67
67
66
67
67
67
66
66
66
66
66
66
65
65
64
64
63
64
64
63
62
62
62
62
61
62
62
62
62
62
62
62
62
62
62
62
63
63
63
63
64
64
63
63
63
63
63
64
64
64
64
64
64
64
64
64
64
63
63
63
62
62
62
62
62
62
62
62
62
62
62
61
62
62
62
62
62
62
62
62
61
61
61
61
61
61
62
62
62
61
61
61
61
61
61
61
61
60
60
60
60
60
59
59
59
59
59
59
59
59
60
60
60
60
60
59
59
59
59
59
59
58
58
58
57
57
57
57
57
57
56
56
56
56
56
55
55
55
55
55
55
55
54
54
54
54
54
54
55
55
54
55
55
55
55
55
56
56
56
56
56
56
56
56
57
57
57
57
57
57
57
57
57
58
57
57
57
57
57
57
57
57
57
57
57
56
55
55
55
56
56
56
55
55
55
55
55
55
55
55
55
55
55
55
56
56
56
56
55
56
56
56
56
56
56
56
56
57
57
57
58
58
58
58
58
58
58
58
59
58
58
58
58
58
58
59
59
58
58
58
60
60
59
59
60
60
61
61
61
62
63
63
63
64
65
64
64
65
65
65
64
64
64
64
64
64
63
63
63
63
63
63
62
62
61
61
61
61
60
60
60
60
60
59
59
58
58
58
58
58
57
57
56
56
56
55
55
54
54
54
54
53
53
52
51
51
51
51
50
50
50
50
49
49
49
49
49
48
48
48
48
48
48
48
48
48
48
48
48
48
47
47
47
47
47
47
47
46
46
46
46
46
46
46
46
46
46
46
46
46
46
46
46
46
45
45
45
45
44
44
45
44
43
42
41
41
39
38
37
35
34
32
31
29
27
26
24
21
19
18
16
14
12
11
9
8
8
7
8
8
9
10
12
14
16
18
21
24
28
32
38
42
49
57
64
73
82
92
103
113
124
135
148
160
172
185
196
209
220
232
243
253
262
272
279
286
293
298
303
307
311
312
314
316
316
315
314
312
308
306
302
298
293
288
282
277
270
264
258
252
244
238
231
224
217
211
204
198
191
184
178
172
166
160
154
148
142
137
130
125
119
114
109
103
99
94
90
85
82
78
74
71
68
66
64
62
59
58
57
55
54
52
51
50
50
49
48
47
46
45
45
44
43
42
42
41
41
41
41
41
40
40
40
41
41
40
41
41
41
40
41
41
40
40
41
40
40
40
40
39
39
39
39
39
38
38
39
38
38
38
36
37
37
36
36
37
37
37
37
36
36
36
36
36
36
36
36
36
35
35
36
36
35
35
35
35
35
35
35
36
36
36
36
36
36
36
36
36
36
37
37
37
37
37
37
37
37
37
37
37
37
37
37
37
36
36
36
36
36
36
36
36
36
36
36
36
36
36
36
36
35
35
35
36
35
35
36
36
36
36
37
36
36
36
36
36
37
37
37
37
37
37
37
38
38
39
39
39
39
41
41
41
41
42
42
42
42
42
44
43
43
44
44
44
44
43
44
43
43
42
42
41
42
41
41
40
40
39
39
39
38
39
39
39
38
38
38
38
38
38
38
39
39
38
39
39
39
39
39
40
40
40
40
41
41
40
40
41
41
41
41
42
41
42
42
42
43
43
43
43
43
43
43
43
43
44
43
43
43
43
43
43
43
43
43
44
44
44
44
45
45
45
46
47
47
48
49
49
50
50
50
51
51
51
52
52
52
53
52
52
52
52
53
53
52
52
51
51
52
52
51
52
52
52
52
53
52
53
53
53
53
54
54
55
56
55
55
56
55
56
55
56
56
55
56
55
55
56
55
55
55
55
55
54
54
54
55
55
54
54
54
53
53
52
52
51
51
51
51
50
49
49
49
48
48
48
47
47
47
46
46
46
46
46
45
45
45
45
45
45
45
45
44
44
44
44
44
44
43
43
43
43
43
43
43
43
43
43
43
43
42
42
42
41
41
41
41
41
41
40
40
39
39
38
38
38
38
38
38
37
37
37
37
37
37
37
37
37
37
37
37
37
37
36
36
36
36
35
35
35
36
36
36
36
35
35
35
34
34
34
34
35
35
35
35
35
35
35
34
35
35
34
34
34
34
35
35
34
34
34
34
34
34
34
34
34
34
34
34
34
34
34
34
34
34
34
34
34
34
34
34
34
34
34
34
34
34
34
33
33
33
32
32
32
31
32
31
31
30
30
30
29
28
28
28
27
27
27
27
27
26
26
27
27
27
27
27
26
26
27
27
27
27
27
27
26
27
27
27
27
27
27
28
28
28
28
28
27
27
28
28
28
28
28
28
28
28
29
29
29
29
29
29
29
29
29
29
28
28
28
28
28
28
27
27
27
27
26
26
26
25
24
24
24
24
23
23
23
23
23
23
22
22
22
22
22
22
22
23
23
24
24
24
25
25
26
26
26
26
27
27
28
28
28
28
27
28
28
28
28
28
28
28
27
27
27
26
26
26
26
26
26
25
26
26
25
25
25
25
25
25
25
25
25
25
25
25
25
24
25
25
25
24
24
24
24
24
24
24
24
24
24
24
23
23
22
23
23
23
23
22
22
22
22
22
23
23
23
23
24
24
24
24
24
25
25
25
25
25
25
25
25
25
26
26
26
27
27
27
27
27
27
27
27
27
27
26
27
27
27
27
26
26
26
26
25
25
24
24
24
25
24
24
24
24
23
23
23
23
23
23
23
23
23
23
22
22
22
22
22
23
23
22
22
22
22
22
22
22
22
22
22
22
22
22
22
22
22
22
23
23
23
23
23
24
24
24
24
24
25
25
26
27
27
28
28
29
29
30
30
30
30
31
31
31
32
32
32
32
32
32
33
32
32
32
32
32
32
32
32
32
31
32
32
32
32
32
32
32
33
32
32
32
32
32
32
32
31
31
31
31
31
31
31
30
30
29
29
29
29
29
29
29
29
29
29
28
28
28
27
27
26
26
26
26
25
25
24
23
23
23
22
22
22
22
22
22
21
21
21
20
20
21
21
21
21
21
20
20
20
20
20
19
19
19
18
18
18
17
17
17
17
17
17
16
16
15
15
16
16
16
16
15
15
15
15
15
15
15
15
15
15
15
15
15
15
15
15
15
15
14
14
13
13
12
12
10
10
8
7
6
5
3
1
0
-2
-4
-6
-8
-9
-11
-12
-14
-16
-17
-17
-18
-17
-17
-15
-15
-13
-11
-10
-8
-5
-2
1
6
10
16
23
30
36
44
53
63
73
83
94
105
118
131
143
156
168
181
193
205
216
228
238
247
256
264
270
276
281
285
288
290
292
293
293
292
291
289
285
281
277
273
268
262
256
250
245
238
232
226
219
213
205
199
193
186
180
173
168
161
156
150
144
138
132
127
121
115
110
103
97
92
86
81
76
71
66
61
57
52
49
45
41
39
36
34
31
30
29
27
26
25
24
23
23
22
21
21
20
20
20
20
19
18
18
17
16
16
16
16
15
15
15
14
14
14
13
13
12
12
12
12
12
12
11
13
13
13
13
13
13
13
13
14
14
15
15
15
14
15
15
15
15
14
14
13
13
13
12
13
13
12
12
12
12
11
11
11
11
11
11
11
11
11
12
12
12
13
13
13
14
14
14
13
13
13
13
13
13
13
13
13
13
12
12
11
11
11
10
11
11
10
10
10
10
10
9
10
10
9
10
10
10
11
10
11
11
11
11
11
12
12
12
12
13
13
13
13
13
14
14
14
15
15
16
16
16
16
17
17
17
17
17
17
17
16
16
16
15
15
15
15
14
15
14
14
14
14
14
14
14
15
15
15
15
15
15
16
16
16
17
17
17
18
17
17
18
18
17
17
18
18
18
18
19
19
19
18
19
19
19
20
20
20
20
20
21
21
21
21
22
22
22
22
22
22
23
22
22
23
23
23
23
23
23
24
24
24
24
24
24
24
25
25
25
26
26
26
26
26
26
27
27
27
27
27
28
28
29
29
30
30
30
31
31
31
31
31
31
31
31
31
32
31
31
31
31
32
32
32
32
31
32
32
31
32
32
32
32
32
32
33
33
34
33
34
34
34
35
35
34
34
35
35
36
35
36
36
36
36
36
36
35
35
35
36
35
35
35
34
34
34
33
34
33
33
33
33
33
33
32
33
32
32
32
32
32
32
32
32
33
33
32
32
32
31
31
30
30
30
30
30
30
30
28
28
28
28
28
28
28
28
27
27
27
27
26
26
26
26
26
26
26
26
26
25
25
25
25
25
25
24
24
25
25
24
24
24
25
25
26
26
26
25
25
25
25
25
25
25
25
26
25
25
25
25
25
25
24
24
24
24
23
23
23
23
23
23
23
23
22
22
22
22
22
22
22
22
21
21
22
22
22
22
22
22
22
22
23
23
23
23
23
23
23
23
23
23
22
22
22
22
21
20
20
20
20
20
19
19
18
18
17
17
17
17
17
17
17
17
17
17
17
17
16
17
17
17
17
17
17
18
18
18
17
19
19
19
20
20
20
20
20
21
21
21
21
20
20
20
20
20
19
19
19
18
18
18
18
17
17
17
18
17
17
17
17
16
16
16
17
17
17
17
18
18
18
18
18
18
18
18
18
18
18
18
18
18
18
18
18
17
18
17
17
18
18
18
18
17
17
18
17
17
17
17
16
17
17
17
17
17
17
17
17
17
16
16
16
16
16
16
16
16
16
16
16
16
15
16
16
16
16
16
17
17
17
17
17
17
17
17
17
17
17
17
17
17
17
17
17
16
16
16
16
16
16
15
15
15
15
15
15
14
15
15
15
14
14
14
14
15
15
14
15
15
15
14
15
15
15
15
15
15
15
15
15
15
16
16
16
16
16
16
16
16
16
16
16
16
17
17
17
17
17
16
16
16
16
16
15
15
15
15
14
14
14
14
14
14
13
13
13
13
13
13
13
13
13
13
13
12
12
13
13
13
13
13
14
15
15
16
16
17
17
17
17
17
18
18
18
18
18
18
19
18
18
18
17
17
17
17
16
16
15
15
14
14
15
15
14
14
14
15
15
15
15
15
15
17
17
18
18
18
19
19
20
20
20
21
21
22
22
23
23
23
23
23
23
23
23
23
24
23
24
24
25
25
25
25
24
24
24
24
24
24
24
24
23
23
22
22
22
21
22
20
20
21
21
21
21
21
21
20
21
21
21
21
21
21
21
21
21
21
21
20
20
20
20
19
18
18
18
18
16
16
16
16
15
14
14
14
14
13
13
12
12
12
12
12
12
12
12
12
12
12
12
12
11
11
11
12
12
12
12
12
12
12
12
12
11
11
11
10
10
10
9
8
9
8
8
8
7
7
6
6
6
6
6
7
6
6
7
6
6
7
7
7
7
7
7
6
6
7
6
5
5
4
3
2
1
-1
-2
-3
-5
-7
-8
-9
-12
-14
-16
-18
-19
-21
-23
-24
-24
-26
-25
-26
-25
-24
-22
-21
-19
-17
-14
-12
-8
-5
-1
3
9
15
21
29
35
43
52
62
72
82
93
104
117
128
140
152
164
175
187
197
208
218
227
235
244
250
256
261
265
268
270
271
272
272
271
270
266
263
260
256
251
247
241
236
229
223
217
210
203
196
190
182
176
169
162
155
148
142
135
128
122
115
109
102
96
90
84
78
73
67
61
57
52
47
42
38
35
32
28
26
23
21
19
17
16
16
14
13
13
11
11
11
10
10
9
8
8
8
7
7
6
7
6
6
6
5
5
5
6
5
5
5
5
5
5
5
4
4
4
4
4
3
3
3
3
3
2
2
3
3
2
2
2
2
2
1
1
0
0
0
1
1
0
0
0
0
1
1
1
1
1
1
2
2
2
3
3
3
3
4
4
4
4
4
4
4
4
5
5
4
4
5
5
5
4
5
5
5
5
5
4
4
3
3
2
2
2
1
1
1
0
0
0
0
-1
-1
0
0
0
0
1
1
1
1
1
2
2
3
3
3
3
4
4
5
5
5
6
6
6
6
6
6
6
6
6
6
6
6
5
5
5
5
5
6
6
5
5
4
5
5
5
5
5
4
4
4
5
5
5
5
5
5
5
5
5
6
6
5
5
5
6
6
6
6
6
6
6
7
7
6
7
6
6
6
6
5
6
6
5
6
6
6
6
6
6
6
6
7
7
7
8
8
8
8
9
9
8
8
8
8
8
8
8
8
8
9
9
9
9
8
8
8
8
9
9
9
9
9
9
10
10
10
10
11
11
11
12
12
12
13
13
13
14
14
15
15
15
16
15
16
16
16
16
16
16
16
15
16
16
15
15
16
16
16
16
16
16
17
16
16
17
17
17
17
18
18
18
18
18
18
18
19
18
18
18
18
18
18
17
17
16
15
15
15
14
14
14
14
14
13
13
13
13
13
13
13
13
12
12
12
12
12
12
11
11
12
11
11
11
11
11
10
10
10
8
8
8
8
8
7
7
6
6
5
5
5
5
4
4
4
4
4
3
3
3
3
3
3
3
2
2
1
1
1
1
0
0
0
-1
-1
-1
-1
-2
-2
-2
-3
-3
-3
-3
-2
-2
-2
-1
-1
-1
-1
-1
0
0
0
0
1
1
1
1
1
0
0
0
0
0
-1
-1
-2
-2
-3
-3
-3
-4
-4
-4
-5
-4
-5
-4
-4
-4
-4
-4
-4
-4
-3
-3
-4
-4
-3
-3
-3
-4
-4
-3
-3
-3
-4
-4
-4
-5
-6
-6
-6
-6
-6
-7
-7
-8
-8
-8
-8
-9
-9
-10
-10
-10
-10
-10
-11
-11
-11
-11
-11
-11
-10
-11
-11
-11
-10
-10
-10
-10
-10
-10
-10
-10
-10
-10
-9
-10
-10
-10
-10
-10
-10
-11
-11
-11
-11
-11
-11
-12
-12
-11
-11
-11
-12
-12
-13
-13
-13
-14
-14
-14
-13
-14
-14
-14
-14
-13
-14
-13
-13
-14
-13
-13
-12
-12
-12
-12
-12
-12
-12
-12
-12
-12
-12
-12
-12
-12
-13
-14
-14
-15
-15
-15
-16
-16
-17
-17
-18
-18
-18
-18
-18
-19
-19
-18
-18
-18
-18
-18
-18
-17
-17
-16
-16
-15
-15
-15
-15
-14
-14
-13
-13
-13
-13
-13
-12
-12
-12
-12
-12
-12
-12
-12
-13
-13
-13
-13
-14
-14
-14
-14
-14
-15
-15
-15
-16
-17
-17
-17
-18
-18
-18
-18
-18
-18
-19
-19
-19
-19
-19
-19
-20
-20
-20
-20
-20
-20
-20
-20
-20
-20
-20
-20
-20
-19
-19
-19
-19
-19
-19
-19
-19
-20
-20
-19
-19
-19
-19
-19
-19
-19
-19
-18
-18
-18
-18
-19
-19
-19
-18
-18
-18
-19
-19
-19
-19
-19
-18
-19
-19
-19
-19
-19
-19
-20
-19
-19
-19
-20
-20
-20
-20
-21
-21
-21
-21
-20
-20
-21
-21
-21
-21
-21
-21
-21
-21
-22
-22
-22
-21
-21
-21
-21
-21
-21
-21
-20
-20
-20
-20
-20
-19
-19
-19
-19
-19
-19
-18
-17
-17
-18
-18
-19
-18
-18
-18
-18
-19
-18
-18
-19
-19
-19
-19
-19
-19
-19
-19
-19
-18
-18
-17
-17
-16
-16
-15
-16
-15
-15
-13
-13
-13
-13
-13
-13
-13
-12
-13
-13
-13
-13
-13
-13
-14
-14
-14
-14
-14
-15
-14
-14
-14
-15
-15
-15
-15
-15
-15
-14
-14
-14
-13
-13
-13
-13
-13
-12
-12
-12
-12
-12
-13
-13
-13
-13
-13
-13
-13
-13
-14
-15
-15
-15
-16
-16
-16
-17
-18
-18
-18
-19
-19
-20
-20
-20
-21
-21
-21
-21
-22
-21
-22
-22
-22
-22
-23
-23
-23
-23
-24
-24
-24
-25
-25
-26
-25
-26
-26
-26
-27
-27
-27
-28
-28
-28
-28
-28
-28
-29
-29
-29
-29
-29
-29
-30
-30
-31
-31
-31
-31
-32
-32
-32
-33
-33
-33
-34
-34
-34
-34
-34
-35
-35
-35
-35
-35
-34
-34
-34
-34
-34
-34
-34
-34
-34
-34
-35
-36
-37
-37
-38
-40
-41
-43
-44
-46
-49
-51
-53
-55
-57
-60
-62
-63
-65
-67
-68
-69
-69
-69
-69
-68
-68
-66
-65
-63
-61
-60
-57
-54
-50
-46
-41
-36
-30
-23
-15
-7
2
11
21
30
41
52
64
75
88
101
114
126
138
149
161
171
181
190
199
207
213
219
224
228
232
234
237
237
239
237
236
235
232
229
225
220
216
211
205
200
193
186
180
174
168
161
153
147
140
133
127
121
114
108
102
95
90
84
78
72
66
60
55
48
43
37
32
26
22
16
12
9
5
1
-2
-6
-9
-11
-13
-15
-18
-19
-21
-23
-23
-25
-25
-27
-28
-28
-29
-29
-30
-31
-32
-33
-33
-33
-33
-33
-34
-34
-35
-35
-35
-35
-34
-34
-34
-34
-33
-33
-33
-34
-34
-34
-35
-35
-35
-34
-35
-36
-36
-37
-37
-38
-39
-38
-39
-40
-40
-41
-41
-41
-41
-41
-42
-42
-42
-42
-42
-42
-42
-41
-41
-41
-40
-40
-40
-41
-40
-40
-39
-39
-39
-39
-39
-39
-38
-38
-38
-38
-38
-38
-38
-38
-38
-38
-38
-38
-39
-39
-39
-38
-39
-39
-39
-39
-39
-39
-39
-39
-39
-39
-39
-39
-39
-40
-40
-40
-40
-40
-40
-39
-39
-40
-40
-40
-40
-40
-40
-39
-39
-39
-39
-39
-39
-39
-39
-39
-39
-39
-39
-38
-38
-38
-38
-38
-38
-38
-38
-38
-38
-38
-38
-37
-38
-38
-38
-37
-37
-37
-37
-37
-37
-38
-38
-37
-37
-37
-37
-37
-36
-36
-36
-36
-36
-37
-36
-36
-36
-36
-36
-37
-36
-36
-36
-37
-37
-37
-37
-37
-38
-37
-37
-37
-37
-37
-37
-36
-36
-36
-36
-36
-35
-35
-35
-35
-35
-35
-34
-34
-34
-33
-33
-33
-33
-33
-33
-32
-32
-32
-32
-32
-33
-32
-32
-32
-33
-33
-32
-33
-33
-32
-32
-33
-32
-32
-33
-33
-33
-31
-31
-31
-31
-31
-31
-30
-30
-30
-29
-29
-29
-28
-27
-27
-26
-26
-26
-26
-26
-25
-25
-25
-25
-25
-25
-26
-25
-25
-25
-25
-25
-25
-26
-25
-25
-25
-25
-26
-26
-25
-25
-25
-26
-25
-25
-24
-24
-24
-23
-23
-23
-23
-22
-21
-21
-21
-20
-21
-20
-19
-20
-19
-19
-18
-19
-18
-18
-18
-18
-18
-18
-18
-17
-18
-18
-17
-17
-18
-18
-18
-19
-19
-20
-20
-20
-21
-21
-21
-22
-23
-24
-24
-24
-25
-26
-27
-27
-28
-28
-29
-29
-29
-30
-30
-30
-30
-30
-30
-30
-30
-30
-31
-30
-30
-30
-30
-30
-31
-31
-30
-30
-30
-31
-31
-30
-31
-31
-31
-32
-32
-33
-32
-32
-33
-33
-34
-34
-34
-34
-34
-34
-34
-35
-35
-34
-34
-35
-35
-34
-35
-34
-34
-34
-33
-33
-33
-33
-33
-33
-32
-32
-33
-33
-33
-33
-33
-33
-33
-33
-33
-33
-34
-34
-34
-34
-35
-35
-36
-36
-37
-37
-38
-39
-39
-40
-40
-40
-40
-40
-40
-40
-41
-40
-41
-41
-41
-41
-40
-40
-40
-40
-40
-41
-41
-41
-41
-41
-41
-40
-40
-40
-40
-39
-39
-39
-40
-40
-40
-40
-39
-39
-38
-39
-39
-39
-38
-38
-38
-38
-38
-38
-38
-38
-38
-38
-38
-39
-39
-39
-39
-40
-39
-40
-40
-40
-40
-41
-41
-41
-40
-41
-41
-41
-41
-41
-41
-41
-42
-42
-42
-42
-43
-42
-42
-43
-43
-43
-43
-44
-44
-45
-45
-45
-45
-45
-45
-46
-46
-46
-46
-46
-46
-46
-46
-46
-45
-45
-45
-45
-45
-45
-45
-45
-45
-45
-45
-45
-45
-45
-45
-45
-45
-45
-45
-45
-45
-45
-45
-45
-45
-45
-45
-45
-45
-45
-45
-46
-46
-46
-46
-47
-47
-47
-47
-47
-48
-48
-48
-49
-49
-49
-49
-48
-48
-48
-48
-48
-48
-48
-48
-49
-48
-48
-47
-47
-47
-48
-47
-47
-48
-48
-48
-48
-48
-48
-48
-48
-48
-48
-48
-48
-48
-48
-48
-48
-48
-48
-48
-47
-47
-46
-46
-45
-45
-45
-45
-45
-45
-45
-45
-45
-45
-44
-46
-46
-46
-46
-46
-46
-46
-47
-47
-47
-47
-47
-47
-48
-48
-48
-48
-48
-48
-47
-47
-47
-46
-47
-47
-47
-47
-46
-46
-46
-46
-46
-46
-46
-46
-46
-47
-47
-47
-48
-48
-48
-48
-48
-48
-48
-48
-48
-48
-48
-48
-48
-48
-48
-48
-48
-48
-48
-49
-49
-49
-49
-49
-49
-49
-49
-49
-50
-50
-49
-49
-49
-49
-50
-49
-48
-49
-49
-48
-48
-47
-47
-47
-46
-46
-46
-46
-46
-45
-45
-44
-44
-44
-43
-43
-43
-43
-43
-44
-43
-43
-43
-43
-43
-44
-44
-43
-44
-44
-44
-44
-45
-45
-45
-44
-44
-45
-44
-43
-43
-43
-43
-43
-42
-42
-42
-42
-41
-41
-40
-40
-40
-40
-40
-38
-38
-38
-38
-38
-38
-38
-38
-38
-37
-37
-37
-37
-37
-36
-36
-37
-37
-37
-38
-38
-38
-38
-37
-37
-37
-37
-37
-38
-38
-38
-38
-38
-38
-38
-38
-38
-38
-38
-38
-39
-39
-40
-40
-41
-41
-42
-42
-42
-42
-43
-44
-45
-45
-45
-45
-46
-47
-47
-47
-48
-48
-48
-47
-47
-48
-48
-48
-47
-48
-48
-48
-49
-49
-49
-48
-48
-49
-49
-49
-49
-49
-50
-50
-50
-51
-51
-50
-50
-50
-50
-50
-50
-50
-49
-49
-49
-49
-49
-48
-49
-49
-49
-49
-49
-50
-50
-51
-51
-51
-52
-52
-53
-53
-53
-53
-54
-54
-54
-54
-55
-55
-56
-57
-58
-59
-59
-61
-62
-63
-64
-66
-68
-70
-72
-74
-76
-78
-81
-83
-84
-85
-87
-88
-88
-88
-88
-88
-87
-86
-85
-83
-82
-79
-76
-73
-69
-65
-59
-54
-47
-40
-33
-23
-15
-5
5
15
26
37
49
61
73
85
99
111
123
135
147
157
167
176
185
192
198
204
208
213
215
217
219
221
221
219
218
215
213
210
206
201
196
191
186
180
174
167
161
155
148
142
136
130
124
117
112
105
99
94
88
82
76
70
64
58
52
47
40
34
28
22
18
12
8
3
-1
-6
-9
-13
-17
-20
-24
-27
-30
-32
-34
-36
-37
-38
-39
-40
-40
-41
-43
-44
-43
-44
-44
-45
-45
-45
-45
-46
-46
-46
-47
-46
-47
-48
-48
-48
-49
-49
-50
-49
-49
-50
-50
-51
-51
-52
-52
-52
-52
-53
-52
-52
-52
-52
-52
-52
-52
-52
-52
-52
-52
-52
-51
-52
-52
-52
-52
-52
-52
-52
-52
-52
-52
-52
-52
-52
-52
-52
-53
-53
-52
-52
-52
-52
-51
-51
-52
-52
-51
-51
-51
-52
-52
-52
-51
-51
-51
-51
-51
-50
-50
-51
-51
-51
-50
-51
-51
-51
-51
-51
-51
-50
-50
-50
-50
-50
-50
-50
-50
-50
-50
-49
-49
-48
-48
-48
-48
-48
-47
-47
-47
-46
-47
-47
-47
-47
-47
-47
-47
-47
-47
-47
-47
-47
-48
-48
-48
-48
-48
-48
-48
-48
-48
-48
-48
-48
-48
-48
-48
-48
-48
-48
-47
-47
-47
-47
-47
-47
-47
-47
-46
-46
-46
-46
-46
-46
-45
-45
-45
-45
-45
-44
-44
-43
-43
-43
-43
-43
-42
-42
-41
-41
-41
-41
-40
-39
-39
-39
-40
-40
-40
-40
-40
-39
-40
-40
-41
-40
-40
-40
-40
-41
-41
-41
-40
-40
-39
-40
-40
-40
-39
-39
-39
-38
-37
-37
-37
-37
-36
-36
-36
-36
-35
-35
-35
-35
-35
-35
-34
-35
-35
-35
-35
-34
-34
-35
-35
-34
-34
-35
-35
-35
-35
-35
-35
-35
-35
-35
-35
-34
-34
-33
-34
-34
-34
-33
-33
-32
-33
-32
-31
-31
-31
-31
-30
-30
-30
-30
-29
-29
-28
-28
-27
-27
-26
-26
-25
-25
-24
-25
-24
-24
-24
-23
-24
-23
-22
-21
-22
-21
-21
-20
-21
-20
-20
-20
-20
-19
-20
-19
-20
-20
-20
-20
-19
-20
-21
-21
-21
-22
-21
-22
-22
-23
-23
-23
-23
-24
-24
-24
-25
-25
-24
-24
-24
-25
-25
-25
-25
-25
-25
-25
-26
-26
-27
-27
-28
-28
-28
-29
-29
-30
-30
-30
-31
-31
-31
-32
-33
-33
-32
-33
-33
-33
-33
-33
-34
-34
-33
-33
-34
-34
-34
-34
-33
-34
-33
-33
-33
-33
-32
-32
-32
-32
-32
-32
-31
-31
-31
-30
-31
-31
-31
-31
-31
-31
-30
-31
-31
-31
-31
-31
-31
-32
-32
-32
-33
-33
-33
-33
-33
-33
-34
-33
-33
-33
-33
-34
-34
-34
-34
-34
-34
-33
-33
-33
-34
-34
-34
-34
-34
-35
-35
-35
-35
-35
-35
-35
-35
-35
-35
-35
-35
-35
-35
-35
-35
-35
-35
-35
-34
-35
-35
-35
-35
-35
-35
-35
-35
-35
-35
-35
-35
-35
-36
-35
-35
-36
-36
-36
-35
-36
-36
-36
-36
-36
-36
-36
-35
-35
-35
-35
-35
-35
-35
-35
-35
-35
-35
-35
-35
-35
-36
-37
-37
-37
-37
-37
-37
-37
-37
-37
-37
-37
-37
-37
-37
-37
-36
-36
-36
-36
-36
-36
-35
-35
-35
-34
-34
-34
-34
-34
-34
-34
-34
-33
-33
-33
-34
-34
-35
-35
-35
-35
-35
-35
-35
-35
-35
-35
-36
-36
-36
-36
-36
-36
-36
-36
-36
-36
-36
-37
-37
-37
-38
-38
-37
-37
-38
-37
-37
-37
-36
-36
-36
-36
-36
-35
-35
-34
-34
-34
-34
-33
-33
-32
-32
-32
-32
-33
-33
-33
-33
-33
-34
-34
-34
-35
-35
-35
-35
-36
-36
-36
-36
-36
-35
-35
-35
-35
-34
-34
-34
-34
-34
-34
-33
-33
-32
-32
-32
-32
-33
-33
-33
-32
-32
-32
-32
-32
-32
-32
-32
-32
-33
-33
-33
-33
-33
-33
-33
-32
-32
-32
-33
-33
-32
-32
-32
-32
-32
-32
-32
-32
-32
-32
-32
-32
-32
-32
-32
-33
-33
-33
-33
-33
-34
-34
-34
-34
-34
-34
-33
-33
-33
-33
-32
-32
-32
-33
-32
-32
-32
-32
-32
-32
-32
-32
-32
-32
-32
-32
-32
-32
-32
-33
-33
-33
-32
-32
-32
-32
-32
-31
-31
-31
-30
-30
-30
-29
-28
-28
-28
-28
-27
-28
-28
-28
-27
-27
-27
-28
-27
-27
-27
-26
-26
-26
-25
-25
-25
-24
-23
-23
-23
-22
-22
-21
-20
-20
-20
-20
-20
-19
-19
-19
-19
-19
-19
-19
-19
-19
-19
-19
-19
-19
-19
-19
-19
-18
-19
-19
-18
-18
-18
-18
-17
-17
-16
-17
-16
-16
-15
-15
-16
-16
-15
-15
-14
-14
-14
-14
-14
-14
-13
-14
-15
-15
-15
-16
-16
-17
-17
-17
-18
-20
-21
-22
-22
-23
-23
-24
-26
-26
-26
-27
-27
-27
-27
-27
-27
-27
-27
-27
-27
-26
-26
-26
-26
-26
-26
-26
-26
-26
-26
-26
-26
-26
-26
-26
-26
-27
-27
-27
-28
-28
-29
-29
-29
-29
-29
-29
-30
-30
-30
-30
-30
-30
-30
-30
-30
-30
-30
-30
-30
-30
-30
-30
-30
-30
-30
-30
-30
-30
-30
-31
-31
-31
-31
-32
-32
-33
-33
-33
-34
-35
-36
-37
-39
-40
-41
-43
-45
-47
-48
-50
-53
-54
-56
-57
-57
-59
-59
-59
-60
-58
-58
-56
-55
-52
-50
-47
-45
-41
-38
-34
-29
-23
-16
-10
-2
5
14
23
31
42
52
63
73
85
97
109
121
132
144
156
167
177
187
195
204
211
218
224
229
232
235
237
238
240
239
239
238
236
233
230
226
221
217
212
207
202
196
191
184
178
171
165
158
151
144
137
131
124
118
111
105
98
92
84
78
72
66
59
53
47
42
37
30
26
21
17
13
10
7
3
1
-2
-5
-7
-9
-11
-12
-14
-15
-16
-17
-18
-19
-19
-19
-20
-20
-20
-20
-21
-21
-21
-21
-21
-21
-20
-20
-20
-21
-21
-21
-21
-21
-21
-22
-21
-21
-21
-21
-22
-22
-22
-22
-23
-22
-22
-22
-22
-22
-21
-22
-22
-22
-22
-22
-22
-21
-21
-21
-22
-22
-21
-21
-21
-21
-21
-21
-21
-21
-21
-21
-20
-20
-20
-20
-20
-20
-20
-20
-21
-21
-21
-21
-20
-20
-21
-21
-20
-20
-21
-21
-21
-21
-21
-21
-21
-21
-21
-21
-21
-21
-21
-21
-21
-20
-20
-20
-20
-20
-20
-20
-20
-19
-19
-19
-19
-18
-19
-18
-18
-18
-18
-18
-18
-18
-18
-18
-18
-18
-18
-19
-19
-19
-18
-19
-18
-18
-18
-18
-18
-18
-17
-17
-17
-16
-16
-16
-16
-16
-16
-15
-15
-14
-14
-14
-14
-14
-14
-14
-13
-13
-13
-13
-12
-11
-11
-11
-11
-11
-11
-12
-11
-11
-10
-11
-11
-11
-11
-11
-10
-10
-10
-11
-11
-11
-11
-10
-10
-11
-11
-11
-10
-10
-10
-10
-11
-10
-10
-10
-9
-9
-9
-8
-8
-8
-7
-7
-7
-7
-7
-7
-6
-6
-6
-7
-6
-6
-7
-7
-7
-7
-7
-7
-7
-7
-7
-7
-7
-6
-5
-5
-5
-5
-4
-4
-4
-4
-4
-3
-3
-3
-3
-2
-2
-2
-2
-1
-1
0
0
1
1
2
1
3
3
3
4
4
4
5
5
5
6
6
6
7
7
7
6
6
6
6
6
6
5
5
5
6
6
5
6
6
6
5
6
7
6
7
7
8
8
8
9
10
10
10
10
11
11
11
12
11
12
12
12
12
12
11
11
11
10
11
11
10
10
10
9
8
8
8
8
8
8
7
8
7
6
6
6
6
5
5
5
5
5
5
5
5
4
4
4
4
4
3
3
3
3
3
3
2
2
2
2
1
0
0
0
0
0
0
-1
-1
-1
-1
-1
0
0
0
0
0
0
0
0
0
0
0
0
0
-1
0
0
0
-1
-1
-1
-2
-2
-2
-2
-2
-2
-2
-2
-2
-2
-2
-2
-2
-2
-2
-2
-2
-2
-2
-2
-2
-2
-2
-2
-2
-2
-3
-3
-3
-4
-4
-4
-5
-5
-5
-3
-3
-4
-3
-3
-3
-4
-3
-3
-3
-3
-3
-3
-2
-3
-3
-3
-3
-3
-4
-4
-4
-5
-5
-5
-5
-5
-6
-6
-6
-7
-7
-7
-7
-7
-6
-6
-6
-6
-6
-6
-6
-6
-6
-6
-6
-6
-6
-6
-6
-6
-6
-6
-6
-6
-6
-6
-6
-6
-6
-5
-6
-6
-6
-6
-6
-6
-5
-5
-6
-6
-6
-6
-6
-6
-6
-5
-6
-6
-6
-6
-6
-6
-6
-6
-6
-6
-6
-6
-6
-6
-6
-5
-5
-5
-6
-6
-5
-5
-5
-5
-5
-5
-5
-4
-4
-4
-4
-4
-4
-4
-4
-4
-4
-3
-3
-3
-3
-3
-3
-3
-3
-3
-3
-4
-4
-4
-4
-5
-5
-5
-5
-5
-6
-6
-6
-7
-7
-7
-7
-7
-8
-8
-7
-7
-7
-7
-7
-7
-7
-7
-6
-7
-7
-7
-7
-8
-8
-8
-7
-7
-7
-6
-6
-6
-6
-5
-5
-5
-5
-5
-5
-4
-4
-4
-4
-4
-3
-3
-3
-3
-3
-3
-2
-2
-2
-2
-2
-3
-3
-3
-3
-3
-3
-4
-4
-4
-5
-5
-5
-5
-5
-6
-6
-6
-6
-6
-6
-6
-6
-6
-6
-6
-6
-6
-6
-6
-7
-6
-6
-6
-5
-5
-4
-3
-3
-2
-2
-2
-2
-2
-1
-2
-1
0
-1
-1
-2
-2
-2
-2
-3
-3
-3
-4
-4
-5
-5
-6
-6
-7
-7
-7
-7
-8
-7
-7
-7
-7
-7
-7
-7
-7
-6
-6
-6
-5
-5
-5
-5
-5
-5
-4
-3
-4
-4
-4
-4
-3
-3
-2
-2
-2
-2
-2
-1
-1
-1
-1
1
1
2
2
3
3
4
4
5
5
6
7
7
7
9
9
10
10
11
11
11
11
11
12
11
11
12
11
11
11
11
11
10
10
9
9
9
8
8
8
7
7
6
7
7
7
7
7
7
7
8
9
9
10
10
10
10
9
9
9
9
9
9
9
9
8
8
6
5
5
3
3
2
1
1
0
-1
-1
-2
-3
-3
-3
-3
-4
-4
-4
-4
-3
-3
-3
-3
-2
-2
-2
-2
-3
-2
-2
-2
-2
-2
-2
-2
-3
-2
-2
-2
-2
-2
-2
-2
-2
-3
-3
-3
-3
-3
-3
-3
-3
-4
-4
-4
-4
-4
-4
-4
-4
-4
-4
-4
-4
-5
-5
-5
-6
-6
-6
-6
-6
-7
-7
-8
-8
-10
-10
-11
-13
-13
-14
-15
-17
-19
-20
-22
-24
-26
-28
-29
-31
-33
-34
-35
-36
-37
-38
-38
-38
-37
-36
-35
-33
-32
-30
-28
-26
-22
-19
-14
-9
-4
3
10
18
25
34
44
54
65
76
87
100
111
124
137
149
161
173
185
196
206
215
224
231
239
244
250
254
257
260
262
262
263
262
261
259
256
253
248
244
239
234
228
223
216
210
203
197
190
184
178
171
164
158
151
145
139
133
126
120
115
109
103
97
91
85
80
75
69
64
59
53
49
44
40
35
32
28
25
23
20
17
15
14
12
12
10
9
8
7
6
6
5
4
3
2
3
2
1
0
-1
0
-1
-2
-2
-3
-3
-4
-4
-5
-5
-5
-6
-5
-5
-5
-5
-5
-5
-6
-6
-6
-6
-6
-6
-6
-6
-6
-6
-6
-5
-5
-5
-5
-6
-5
-5
-5
-4
-4
-4
-4
-4
-4
-4
-4
-4
-4
-4
-4
-4
-4
-4
-5
-4
-4
-4
-5
-5
-5
-5
-6
-6
-5
-5
-6
-6
-6
-6
-6
-7
-7
-6
-6
-6
-6
-6
-6
-6
-6
-6
-6
-6
-6
-6
-6
-5
-4
-4
-4
-3
-3
-3
-3
-2
-2
-2
-2
-2
-1
-1
-1
-1
-1
-1
-1
0
0
0
0
0
0
-1
0
0
0
0
0
-1
0
0
0
0
0
0
-1
-1
-1
0
0
0
0
0
0
0
1
1
1
1
1
1
1
1
1
1
1
1
0
0
1
1
1
1
0
0
0
0
1
1
0
0
1
1
1
1
1
1
1
1
1
1
1
1
1
1
1
1
1
2
1
1
1
1
1
2
2
2
2
3
3
4
4
4
5
5
5
5
5
6
6
6
5
6
7
6
6
6
6
7
7
7
8
8
8
8
8
9
9
9
10
10
10
11
11
12
12
12
13
13
13
14
14
14
14
14
15
15
15
15
16
16
16
15
15
15
15
15
16
16
16
16
17
17
17
16
17
17
18
17
18
18
18
19
18
19
19
19
20
19
20
19
20
20
20
20
20
20
20
20
20
20
20
20
20
21
20
20
20
20
20
20
20
20
20
20
20
19
19
19
19
18
19
19
18
18
18
17
16
16
15
15
16
15
14
14
15
14
13
13
12
11
11
11
10
9
9
9
8
8
8
6
6
6
6
6
5
5
5
5
4
4
4
5
5
5
6
6
6
6
5
5
6
5
6
6
7
7
6
6
6
6
6
6
6
5
5
5
5
5
5
5
5
5
5
5
5
4
4
4
4
4
4
4
4
4
4
4
4
4
4
5
5
5
5
6
6
5
5
5
5
5
5
5
5
5
5
4
4
4
4
3
3
3
3
2
2
2
2
2
1
1
1
0
0
1
1
1
1
1
1
1
1
2
1
1
1
1
1
1
0
0
0
0
0
1
0
0
0
0
0
0
0
1
1
1
1
2
2
2
2
2
2
3
3
3
3
3
3
3
3
3
3
3
3
3
3
3
3
2
2
2
2
1
1
1
1
1
0
0
1
1
1
1
1
0
0
0
0
0
0
0
0
0
0
0
-1
-1
-2
-3
-3
-3
-3
-3
-4
-4
-4
-4
-4
-4
-4
-4
-4
-4
-4
-4
-4
-4
-4
-4
-3
-3
-3
-2
-2
-2
-2
-2
-1
-1
-1
-1
-1
-1
-1
-1
-1
-1
-1
-1
0
0
0
0
0
0
1
1
1
1
1
1
1
0
1
1
1
1
1
1
1
1
1
1
1
1
1
0
0
0
0
1
1
1
1
2
1
1
1
1
1
1
1
1
1
1
1
1
0
0
0
0
0
0
1
1
1
1
1
1
1
2
2
2
2
1
2
2
2
1
1
1
0
0
0
0
-1
-1
-2
-2
-2
-3
-3
-3
-4
-4
-4
-4
-4
-3
-4
-4
-4
-4
-3
-3
-3
-3
-3
-3
-3
-2
-2
-2
-2
-2
-3
-2
-2
-2
-2
-2
-2
-2
-1
-1
0
0
0
0
0
0
1
0
0
0
1
1
2
2
2
2
1
2
2
2
1
1
1
1
1
1
1
1
1
1
1
1
1
1
2
2
1
1
1
1
2
2
2
2
3
3
3
3
4
4
5
5
6
6
7
8
8
8
9
10
10
10
12
12
13
13
14
15
15
14
14
14
14
14
13
14
13
12
12
11
10
9
9
8
8
8
7
7
7
6
6
7
7
7
7
7
8
8
9
8
9
9
9
9
10
10
11
11
11
10
10
10
10
9
9
8
8
8
7
6
5
5
4
4
3
3
2
2
1
1
1
1
1
0
0
0
0
0
0
0
0
0
-1
-1
-1
-1
0
-1
-1
-1
-1
-1
-1
-2
-2
-2
-3
-3
-4
-4
-4
-4
-4
-4
-4
-4
-3
-3
-3
-3
-3
-3
-3
-3
-2
-2
-2
-2
-3
-3
-3
-4
-4
-5
-5
-5
-5
-6
-6
-7
-7
-7
-8
-9
-10
-10
-12
-13
-14
-15
-17
-19
-20
-22
-24
-26
-28
-30
-33
-34
-36
-37
-39
-41
-42
-43
-43
-43
-42
-42
-41
-39
-38
-36
-34
