# Simple Text Format
# Sampling Rate (Hz):= 1200.00
# Resolution:= 12
# Labels:= ECG	 V4
# Age:=	77
# Gender:=	Feminino
0
0
0
0
0
0
0
0
0
0
0
0
0
0
0
0
0
0
0
0
0
0
0
0
0
0
0
0
0
0
0
0
0
0
0
0
0
0
0
0
0
0
0
0
0
0
0
0
0
0
0
0
0
0
0
0
0
0
0
0
0
0
0
0
0
0
0
0
0
0
0
0
0
0
0
0
0
0
0
0
0
0
0
0
0
0
0
0
0
0
0
0
0
0
0
0
0
0
0
0
0
0
0
0
0
0
0
0
0
0
0
0
0
0
0
0
0
0
0
0
0
0
0
0
0
0
0
0
0
0
0
0
0
0
0
0
0
0
0
0
0
0
0
0
0
0
0
0
0
0
0
0
0
0
0
0
0
0
0
0
0
0
0
0
0
0
0
0
0
0
0
0
0
0
0
0
0
0
0
0
0
0
0
0
0
0
0
0
0
0
0
0
0
0
0
0
0
0
0
0
0
0
0
0
0
0
0
0
0
0
0
0
0
0
0
0
0
0
0
0
0
0
0
0
0
0
0
0
0
0
0
0
0
0
0
0
0
0
0
0
0
0
0
0
0
0
0
0
0
0
0
0
0
0
0
0
0
0
0
0
0
0
0
0
0
0
0
0
0
0
0
0
0
0
0
0
0
0
0
0
0
0
0
0
0
0
0
0
0
0
0
0
0
0
0
0
0
0
0
0
0
0
0
0
0
0
0
0
0
0
0
0
0
0
0
0
0
0
0
0
0
0
0
0
0
0
0
0
0
0
0
0
0
0
0
0
0
0
0
0
0
0
0
0
0
0
0
0
0
0
0
0
0
0
0
0
0
0
0
0
0
0
0
0
0
0
0
0
0
0
0
0
0
0
0
0
0
0
0
0
0
0
0
0
0
0
0
0
0
0
0
0
0
0
0
0
0
0
0
0
0
0
0
0
0
0
0
0
0
0
0
0
0
0
0
0
0
0
0
0
0
0
0
0
0
0
0
0
0
0
0
0
0
0
0
0
0
0
0
0
0
0
0
0
0
0
0
0
0
0
0
0
0
0
0
0
0
0
0
0
0
0
0
0
0
0
0
0
0
0
0
0
0
0
0
0
0
0
0
0
0
0
0
0
0
0
0
0
0
0
0
0
0
0
0
0
0
0
0
0
0
0
0
0
0
0
0
0
0
0
0
0
0
0
0
0
0
0
0
0
0
0
0
0
0
0
0
0
0
0
0
0
0
0
0
0
0
0
0
0
0
0
0
0
0
0
0
0
0
0
0
0
0
0
0
0
0
0
0
0
0
0
0
0
0
0
0
0
0
0
0
0
0
0
0
0
0
0
0
0
0
0
0
0
0
0
0
0
0
0
0
0
0
0
0
0
0
0
0
0
0
0
0
0
0
0
0
0
0
0
0
0
0
0
0
0
0
0
0
0
0
0
0
0
0
0
0
0
0
0
0
0
0
0
0
0
0
0
0
0
0
0
0
0
0
0
0
0
0
0
0
0
0
0
0
0
0
0
0
0
0
0
0
0
0
0
0
0
0
0
0
0
0
0
0
0
0
0
0
0
0
0
0
0
0
0
0
0
0
0
0
0
0
0
0
0
0
0
0
0
0
0
0
0
0
0
0
0
0
0
0
0
0
0
0
0
0
0
0
0
0
0
0
0
0
0
0
0
0
0
0
0
0
0
0
0
0
0
0
0
0
0
0
0
0
0
0
0
0
0
0
0
0
0
0
0
0
0
0
0
0
0
0
0
0
0
0
0
0
0
0
0
0
0
0
0
0
0
0
0
0
0
0
0
0
0
0
0
0
0
0
0
0
0
0
0
0
0
0
0
0
0
0
0
0
0
0
0
0
0
0
0
0
0
0
0
0
0
0
0
0
0
0
0
0
0
0
0
0
0
0
0
0
0
0
0
0
0
0
0
0
0
0
0
0
0
0
0
0
0
0
0
0
0
0
0
0
0
0
0
0
0
0
0
0
0
0
0
0
0
0
0
0
0
0
0
0
0
0
0
0
0
0
0
0
0
0
0
0
0
0
0
0
0
0
0
0
0
0
0
0
0
0
0
0
0
0
0
0
0
0
0
0
0
0
0
0
0
0
0
0
0
0
0
0
0
0
0
0
0
0
0
0
0
0
0
0
0
0
0
0
0
0
0
0
0
0
0
0
0
0
0
0
0
0
0
0
0
0
0
0
0
0
0
0
0
0
0
0
0
0
0
0
0
0
0
0
0
0
0
0
0
0
0
0
0
0
0
0
0
0
0
0
0
0
0
0
0
0
0
0
0
0
0
0
0
0
0
0
0
0
0
0
0
0
0
0
0
0
0
0
0
0
0
0
0
0
0
0
0
0
0
0
0
0
0
0
0
0
0
0
0
0
0
0
0
0
0
0
0
0
0
0
0
0
0
0
0
0
0
0
0
0
0
0
0
0
0
0
0
0
0
0
0
0
0
0
0
156
155
155
154
154
155
154
154
154
153
153
153
153
153
152
152
153
153
153
154
155
154
154
154
155
155
155
155
155
154
154
155
155
156
156
156
156
157
157
158
158
158
158
158
158
158
159
159
158
158
158
158
159
159
159
159
158
159
158
159
159
158
158
157
157
157
157
157
157
156
155
155
155
155
154
154
153
154
154
154
153
153
152
153
152
153
154
153
153
153
154
154
155
156
155
155
156
156
156
156
157
157
157
157
157
158
158
158
157
158
158
157
158
159
158
158
157
158
159
159
160
159
158
159
159
159
159
160
159
159
159
159
159
159
158
158
157
157
158
157
157
156
156
155
155
155
156
156
155
154
155
155
157
156
156
156
157
157
159
160
160
160
160
161
161
162
163
163
163
163
164
164
164
164
164
164
165
165
165
166
165
165
165
164
164
164
165
164
164
164
164
164
164
165
164
165
165
165
166
166
167
167
167
167
167
169
169
169
168
169
169
169
169
170
169
168
168
168
168
167
167
166
166
165
165
164
164
164
163
162
163
162
163
163
163
163
163
164
165
165
166
166
166
167
167
168
169
169
169
168
168
169
168
167
167
166
165
165
165
164
164
163
161
160
160
160
159
158
157
156
156
156
156
155
155
155
154
155
155
155
155
155
154
155
154
155
155
156
155
155
155
155
156
156
155
155
155
156
156
157
157
156
156
156
156
157
157
158
157
157
157
157
157
157
157
157
157
157
157
158
157
156
156
155
155
156
155
155
155
154
154
155
154
155
155
155
154
155
156
156
156
156
155
155
155
156
156
155
155
155
155
155
155
155
154
154
153
154
155
155
155
155
154
154
154
155
154
155
154
154
154
154
154
155
154
154
154
155
156
157
157
157
158
159
160
162
163
165
166
167
170
173
177
179
183
186
191
197
202
208
214
220
227
234
242
249
257
266
275
283
292
301
310
320
329
337
347
355
365
374
382
390
397
405
412
421
428
434
440
445
451
456
461
465
468
471
473
475
477
478
479
479
478
478
478
476
475
474
471
469
466
465
463
461
457
454
452
449
447
445
442
439
435
433
429
427
424
420
417
413
409
405
402
398
392
388
385
381
377
373
369
364
360
356
353
349
346
342
338
335
332
330
327
324
321
318
315
313
310
307
304
301
297
293
290
286
281
277
272
267
263
258
253
247
241
235
228
222
218
211
206
200
194
189
184
180
175
171
167
163
160
157
155
152
150
149
147
147
145
146
144
143
143
142
142
142
142
141
141
140
140
139
140
140
139
139
139
138
139
139
139
138
137
137
137
137
137
137
137
136
136
136
137
137
136
136
136
136
137
137
137
137
136
136
136
137
137
136
136
135
135
135
135
135
134
134
133
134
134
134
134
132
132
132
132
132
132
132
131
131
131
130
131
131
131
131
130
131
131
132
131
131
132
131
131
132
133
133
132
131
131
132
131
131
130
130
130
130
130
129
129
129
127
127
127
127
127
126
125
125
125
126
126
126
126
125
125
126
126
126
126
125
125
124
125
124
125
125
124
124
124
123
124
124
124
122
123
122
122
123
123
123
122
121
122
122
122
122
121
121
120
120
121
120
119
119
119
118
119
119
118
118
118
117
118
117
117
117
117
117
117
116
117
117
117
117
117
117
119
118
118
118
118
119
119
119
120
119
119
119
119
120
120
120
119
120
120
120
121
121
121
120
121
122
122
123
123
124
124
124
126
126
128
128
129
130
132
133
135
137
137
138
139
141
143
144
146
147
148
150
152
153
155
158
159
160
161
163
166
167
169
170
172
174
176
179
181
183
185
187
188
191
194
195
197
199
202
204
207
210
212
214
216
218
221
223
226
228
229
231
233
235
238
239
240
243
244
246
248
250
250
251
252
253
254
256
256
256
257
256
256
257
257
257
257
256
256
256
255
255
254
253
251
251
249
249
247
245
243
241
239
238
237
234
233
231
229
229
227
226
224
223
221
219
218
216
215
214
212
210
209
207
207
206
204
201
200
199
199
198
196
195
194
193
192
191
191
190
189
188
187
187
187
186
186
184
184
184
184
184
183
182
182
181
180
180
179
179
178
177
176
177
176
175
175
175
174
174
175
175
174
173
173
173
173
173
173
173
173
172
172
173
173
173
172
171
172
172
171
172
171
171
170
170
170
170
169
170
169
169
169
168
169
169
168
168
167
167
168
167
167
166
166
165
166
166
166
165
165
164
164
165
164
164
164
163
163
164
164
164
164
163
163
163
163
163
162
163
163
162
162
162
162
162
162
161
160
161
161
161
160
160
159
159
160
159
159
159
158
158
158
157
158
157
156
156
156
156
156
156
156
155
154
155
155
155
154
155
154
154
154
153
153
153
153
152
152
152
152
153
152
152
152
151
151
152
152
151
151
150
150
151
151
150
150
149
149
150
150
150
150
150
150
150
150
150
150
150
150
150
149
150
151
151
150
150
150
151
150
151
151
151
149
150
150
151
150
150
149
149
149
150
150
150
150
149
149
149
150
150
150
149
149
150
150
150
150
150
149
149
149
149
149
149
149
148
149
149
149
149
149
149
148
148
149
149
149
149
148
148
148
147
148
148
147
147
147
148
148
147
148
147
147
147
146
147
147
147
146
146
146
146
146
146
146
144
144
145
144
145
144
144
143
143
143
143
143
142
142
141
141
141
142
141
141
140
140
140
140
141
140
139
140
140
139
140
140
139
138
138
138
138
138
139
137
137
136
137
137
137
137
136
136
136
136
136
136
135
135
135
135
134
135
134
133
132
131
131
131
130
130
128
128
127
127
127
126
125
124
123
123
123
122
122
121
120
119
119
120
118
117
116
115
114
114
113
112
111
110
108
108
107
106
105
104
102
101
101
100
99
98
97
96
95
94
94
94
92
91
90
90
89
89
88
87
86
85
85
86
85
84
83
82
82
81
80
79
78
76
75
74
73
73
70
69
67
66
64
63
62
60
58
57
56
55
54
53
52
50
50
49
48
47
46
46
45
44
45
44
44
43
42
40
41
40
40
39
38
37
36
36
36
35
34
34
32
33
32
31
31
31
29
29
28
28
28
26
26
25
24
24
23
23
22
22
20
20
20
19
19
18
18
17
17
16
16
16
15
15
14
14
13
13
12
12
12
11
11
11
11
10
10
9
8
9
8
8
8
7
7
7
6
7
6
5
5
4
5
5
5
4
3
3
3
2
2
2
1
0
-1
-1
-1
-2
-2
-3
-5
-5
-4
-4
-5
-4
-5
-3
-3
-1
1
4
6
8
11
16
21
26
32
38
45
53
61
70
79
88
97
107
117
127
138
149
159
170
181
192
203
213
225
235
244
255
266
276
286
295
304
312
320
329
336
343
349
355
360
364
369
373
376
378
380
382
383
385
385
385
384
383
381
381
379
377
375
373
370
368
366
364
363
360
358
356
354
352
350
348
345
343
341
339
337
335
332
330
328
326
325
323
321
319
317
315
314
314
312
311
309
308
306
306
305
305
303
301
300
300
298
297
294
293
290
288
284
281
278
274
270
265
260
255
250
245
238
232
226
220
215
210
204
197
192
187
183
178
174
170
166
163
160
158
156
155
152
151
150
149
148
148
148
147
147
146
146
147
148
147
147
147
147
148
148
148
148
148
148
148
149
149
150
150
149
150
151
152
152
152
152
152
153
153
154
154
154
154
154
154
156
156
156
156
156
156
158
158
158
158
158
159
159
159
159
160
160
160
160
160
161
161
161
162
161
161
162
163
164
164
163
163
164
164
165
166
165
166
166
166
166
167
167
167
166
167
168
168
169
169
168
168
168
169
169
170
169
170
169
170
170
171
170
170
171
171
171
172
172
172
171
172
172
173
173
173
172
173
172
173
173
173
173
173
173
173
173
173
174
173
173
173
173
173
173
173
174
174
173
174
174
174
174
174
174
174
175
175
176
176
176
176
176
176
177
177
176
176
176
177
177
177
177
177
177
178
177
178
179
178
178
178
178
179
179
179
180
179
179
180
180
181
181
181
180
181
182
182
183
183
183
182
184
184
185
185
186
185
186
187
188
188
188
188
189
190
191
192
193
194
193
194
194
196
197
198
199
200
202
203
204
205
207
208
209
210
212
214
216
218
218
219
222
223
226
228
229
230
233
236
237
240
242
243
246
248
250
253
255
257
259
261
263
266
268
270
272
274
277
279
281
284
287
288
291
293
296
298
301
302
304
306
308
310
313
314
315
316
318
320
321
322
324
324
324
326
326
327
328
328
327
327
327
327
328
327
327
326
325
325
324
323
322
321
320
318
317
316
315
314
312
310
308
307
306
304
302
301
298
298
297
295
294
292
290
288
287
287
285
284
282
281
280
279
278
278
276
275
274
273
272
271
271
270
268
268
268
267
266
266
264
264
262
263
262
261
261
260
260
259
259
258
259
257
257
257
257
258
257
257
256
256
256
256
256
256
256
255
254
254
254
254
253
252
252
252
251
252
251
251
251
250
249
250
250
250
249
248
249
249
250
249
249
249
248
248
248
249
248
248
247
247
247
247
247
247
246
246
245
245
246
246
246
245
246
246
246
247
246
246
246
245
245
245
246
247
246
245
245
245
246
245
245
245
244
244
244
244
244
244
243
243
243
243
243
243
242
242
243
242
242
243
242
242
241
241
242
242
242
242
241
242
242
242
242
242
242
241
242
241
242
243
242
241
241
241
241
242
241
241
241
240
240
241
240
239
240
239
239
240
240
240
240
240
240
240
241
241
242
242
242
241
242
243
242
242
242
241
242
242
242
242
241
241
241
241
241
241
241
241
241
241
240
240
241
241
241
240
241
240
241
241
241
241
240
241
241
241
242
241
241
242
242
243
244
244
243
243
243
244
244
244
244
244
245
244
245
245
246
245
245
244
245
246
245
245
245
244
244
245
245
245
245
245
245
245
245
246
246
246
246
246
247
247
247
247
248
248
248
248
249
248
249
248
249
248
249
249
250
249
249
248
249
248
249
249
247
247
247
247
247
247
247
246
246
246
247
247
248
247
247
248
248
248
249
249
249
249
248
249
250
250
249
250
250
250
250
251
251
251
249
250
250
250
250
250
250
250
250
250
251
251
251
250
250
251
251
251
251
251
250
249
250
250
250
249
249
248
249
248
248
248
247
247
247
248
248
247
248
248
248
247
247
248
249
249
249
248
248
249
249
249
250
249
250
250
250
251
252
251
252
251
252
252
252
251
252
251
250
251
251
251
250
250
249
250
250
251
251
250
250
250
250
250
251
251
251
251
250
251
252
251
251
250
250
250
250
251
250
249
249
248
248
248
249
249
248
248
248
248
249
249
249
249
249
250
251
251
251
252
252
252
252
252
253
253
253
253
252
253
253
254
254
254
255
254
256
257
256
257
257
257
257
258
258
258
259
259
259
260
261
261
261
261
260
261
262
262
263
263
263
263
263
265
265
265
265
265
264
265
266
266
266
266
266
267
267
267
267
268
267
266
266
267
267
266
266
265
266
265
266
266
266
264
265
265
265
265
265
264
264
263
264
264
263
264
263
263
263
263
264
264
264
264
263
264
265
265
265
265
264
264
264
265
264
264
264
263
262
262
262
262
261
261
260
260
260
260
259
258
258
258
257
257
257
257
256
256
256
255
256
256
255
255
254
254
255
255
254
254
254
254
254
254
255
254
253
254
253
254
254
254
253
253
253
252
253
253
253
253
252
252
252
253
253
253
253
253
253
253
253
254
255
254
255
255
256
257
257
257
257
257
257
257
257
257
257
255
255
255
256
255
255
254
253
253
253
254
253
253
252
252
252
254
254
254
254
254
254
254
255
255
255
255
255
256
256
258
258
258
258
258
258
259
259
259
258
258
259
258
259
260
259
259
258
258
258
259
258
258
257
257
257
259
259
260
262
263
265
268
272
275
279
284
288
294
300
307
314
321
326
334
342
350
357
365
372
379
386
394
403
411
418
425
433
441
449
456
464
471
478
484
493
500
507
513
520
526
531
537
542
546
551
553
557
560
563
565
566
567
567
566
566
566
565
564
562
560
557
555
553
551
548
545
543
540
537
534
532
528
524
520
516
514
510
506
500
497
492
488
484
480
476
471
466
462
459
456
452
448
445
442
440
438
435
433
431
429
427
425
424
422
420
417
415
413
411
409
406
403
399
395
390
386
381
377
370
365
359
353
348
342
335
329
323
316
312
306
301
295
289
284
280
277
273
269
266
263
261
260
258
257
256
255
255
254
255
255
255
254
254
254
254
254
254
254
253
253
252
252
252
251
250
249
248
248
248
247
247
246
246
244
245
245
245
245
244
244
244
244
244
244
243
244
244
243
244
245
244
244
243
242
243
244
243
244
244
243
243
244
243
243
243
243
243
243
243
244
244
244
242
243
243
243
244
243
244
244
244
243
244
244
243
243
242
243
243
243
243
243
241
242
241
241
241
241
240
239
239
238
238
238
238
237
236
236
236
237
236
236
235
234
234
234
234
234
233
233
233
234
234
234
234
234
233
233
234
235
235
234
234
234
235
235
235
235
234
234
234
233
234
234
233
233
232
233
233
233
233
232
232
231
232
231
231
232
231
231
230
230
231
230
229
229
228
228
228
228
228
227
227
227
227
228
227
228
227
227
227
228
229
229
229
229
229
230
231
231
231
231
231
231
231
231
232
232
231
231
231
231
231
232
231
231
231
232
233
234
234
235
235
235
236
237
239
239
240
240
242
243
245
246
247
248
248
249
251
253
254
255
256
256
258
259
261
262
263
264
266
268
269
271
272
274
276
278
281
283
286
288
290
292
294
298
300
303
305
308
311
313
316
319
321
322
324
328
330
333
335
337
339
340
342
344
346
347
348
350
352
354
355
357
358
358
360
362
363
365
366
367
367
369
369
371
372
372
372
372
373
373
373
373
373
372
371
370
370
369
367
365
363
362
360
359
357
354
352
350
348
346
345
343
341
339
337
335
335
333
332
331
330
329
328
328
327
326
325
323
322
322
321
320
319
318
316
315
315
314
312
310
309
307
307
306
305
304
302
302
300
300
300
299
298
298
297
297
297
298
297
297
297
296
296
296
296
295
295
294
295
296
295
295
294
294
295
294
295
295
295
294
294
294
293
293
294
293
293
293
292
293
293
292
291
291
291
290
290
290
289
288
288
287
287
287
287
286
285
285
285
285
285
284
284
284
283
284
284
284
283
283
283
283
284
285
284
285
284
285
285
285
286
287
286
287
286
287
288
288
288
287
287
286
285
286
286
285
284
283
282
282
282
281
281
279
280
279
280
280
280
280
280
279
280
280
280
280
280
280
280
281
281
281
280
281
281
281
281
281
280
280
279
279
278
279
279
278
277
276
276
276
275
275
275
275
274
275
275
276
276
276
276
276
277
277
278
279
279
278
279
279
280
280
280
279
280
279
279
280
279
279
278
277
277
277
278
277
277
276
276
277
277
278
277
278
278
279
279
280
280
280
280
280
281
282
282
282
281
281
282
283
282
283
282
281
281
281
281
282
282
281
281
281
282
283
283
283
282
283
283
284
285
286
285
286
287
288
288
289
289
289
290
290
291
290
291
291
290
291
291
292
292
292
293
292
293
293
295
295
295
295
294
296
296
297
297
298
297
297
297
298
298
297
297
297
297
296
296
297
295
295
294
294
293
293
293
292
291
292
291
292
292
292
292
293
292
294
294
295
295
295
295
295
296
296
297
297
298
297
299
299
299
300
300
299
298
299
299
299
299
298
298
297
296
296
296
295
293
292
291
291
290
289
287
286
285
285
285
285
284
284
284
284
284
284
284
284
285
284
285
285
286
287
287
287
288
288
289
289
289
288
288
288
288
288
288
287
287
286
285
286
285
285
284
284
284
284
285
285
285
285
285
285
286
287
287
287
287
288
288
289
289
289
289
288
288
288
288
288
287
287
287
286
287
286
287
286
286
285
286
286
287
287
287
287
286
287
289
289
290
289
290
290
290
291
291
291
291
290
291
291
291
291
290
290
289
290
291
290
290
289
289
288
289
290
290
290
289
290
291
292
293
293
294
295
296
297
300
301
304
306
308
311
315
320
323
329
333
338
344
351
358
365
372
380
389
397
406
415
424
432
441
450
460
469
478
486
495
504
512
520
530
537
544
551
559
567
574
580
586
591
595
600
605
609
612
616
617
619
621
622
623
623
622
620
620
619
618
616
614
611
608
606
603
601
598
595
592
588
585
582
578
574
571
567
563
560
556
552
548
543
538
533
528
524
519
513
508
504
499
494
490
485
481
476
471
468
465
462
457
454
450
448
446
442
440
437
434
431
428
425
422
419
416
412
408
404
400
396
391
386
381
376
371
366
360
355
349
344
339
334
329
323
319
314
310
306
303
300
297
294
291
289
287
286
285
284
282
281
281
280
280
280
279
279
278
279
279
279
279
279
277
278
278
278
277
276
276
275
275
275
275
274
273
273
272
272
272
271
271
271
270
269
269
270
269
270
269
269
269
269
270
269
269
268
269
269
269
270
270
270
269
270
270
270
270
270
270
269
270
269
270
270
268
268
269
269
269
269
269
268
268
268
267
267
267
267
266
265
266
265
266
266
265
264
264
265
264
264
264
263
262
262
262
262
262
261
261
260
260
260
260
260
260
259
260
260
260
261
262
261
261
262
262
262
263
263
263
262
262
262
263
262
262
262
261
261
261
262
261
260
260
259
259
259
260
258
259
258
259
258
258
258
257
256
256
257
258
258
257
257
257
256
257
257
256
256
256
256
255
256
256
255
255
255
254
255
256
256
256
255
255
255
254
255
255
254
254
254
254
255
255
254
254
254
254
255
256
256
256
257
256
257
257
259
259
260
260
260
261
261
263
263
264
263
264
265
266
267
267
268
267
268
269
271
271
272
273
273
275
276
277
279
280
281
282
284
286
289
290
291
293
294
297
299
301
303
305
306
309
312
313
316
318
320
322
325
328
330
333
335
337
339
342
345
347
349
351
354
355
358
360
362
364
366
368
370
372
374
375
377
378
380
381
383
384
385
386
386
388
388
390
391
391
391
391
392
393
392
392
392
391
390
391
390
389
388
388
386
385
384
383
382
380
379
378
377
376
374
372
371
368
367
367
365
363
362
360
357
356
356
354
352
351
348
347
346
345
343
342
340
338
337
336
335
333
331
331
328
328
327
326
326
325
324
323
323
323
322
322
321
320
320
319
319
318
317
317
316
316
316
315
315
314
313
312
313
313
313
312
312
311
311
311
311
311
310
310
311
311
310
310
311
309
309
309
309
309
310
309
308
308
308
308
308
307
307
307
306
306
307
306
306
306
306
305
306
306
306
306
305
305
304
305
305
305
305
304
304
304
304
304
304
304
303
303
304
305
304
304
304
304
304
304
304
304
305
304
304
304
304
304
304
304
303
303
304
304
304
304
304
303
304
304
304
304
303
303
303
303
303
304
303
302
302
302
302
303
302
302
301
301
300
301
301
302
301
300
300
300
301
301
301
300
300
300
301
301
302
301
301
301
301
302
301
301
301
301
300
300
300
301
301
302
301
301
301
302
302
302
302
301
301
301
302
302
302
302
301
301
302
302
302
301
300
300
301
301
301
302
301
301
301
300
301
301
301
301
300
300
301
302
302
301
302
303
303
303
303
303
302
303
303
303
304
303
303
304
303
303
303
304
304
302
302
302
303
303
303
303
303
303
303
303
304
305
304
304
304
305
305
305
305
305
304
305
305
305
306
306
305
304
304
305
305
305
304
305
304
305
305
306
306
306
306
306
307
307
308
307
307
307
307
307
308
308
307
307
307
307
307
308
308
308
308
308
308
308
308
308
308
308
309
310
310
310
310
310
310
311
312
312
313
313
313
313
314
316
316
316
317
316
317
317
317
318
317
317
317
318
318
317
317
317
317
317
317
318
318
318
317
318
318
318
318
319
318
319
319
319
320
320
320
320
319
319
319
319
320
319
319
318
318
318
318
317
316
316
315
315
315
316
316
315
315
315
315
315
316
315
315
315
315
316
317
317
317
317
317
317
318
318
318
317
317
317
317
318
317
317
316
315
315
314
314
314
313
312
311
310
310
310
310
309
308
307
308
307
307
307
306
306
306
307
306
306
306
306
306
305
306
307
307
305
306
306
306
307
307
307
307
307
307
307
308
308
307
307
307
307
308
308
308
308
308
308
308
308
308
307
307
307
307
307
307
307
306
305
306
306
306
306
306
306
305
306
306
306
306
306
306
305
305
305
306
306
306
306
305
306
306
306
306
306
306
306
306
307
307
307
307
307
308
307
307
307
308
307
306
307
308
308
307
308
308
308
308
308
308
308
308
308
307
307
308
307
307
307
306
307
307
308
308
308
308
311
312
315
318
320
324
327
332
337
343
349
354
361
367
375
384
392
400
407
415
424
433
442
451
458
466
474
482
490
498
507
514
521
528
535
543
550
556
563
569
575
581
586
592
596
600
603
606
609
611
612
613
613
614
614
613
613
611
608
606
605
602
599
596
593
590
587
583
580
578
575
571
568
564
561
558
555
552
547
544
541
537
534
531
528
523
519
516
513
510
507
505
501
498
495
492
489
487
485
482
480
479
477
474
473
471
468
466
465
462
459
457
453
450
447
442
439
435
429
424
420
415
408
403
397
390
384
377
372
366
359
353
347
342
336
332
327
323
318
314
312
309
307
305
303
301
299
298
298
297
296
295
294
294
294
293
293
293
293
292
292
292
292
292
292
292
291
291
291
292
290
291
289
290
290
289
290
289
289
288
288
289
289
289
289
288
287
287
288
288
288
287
286
287
286
286
287
286
285
285
285
285
285
286
285
285
284
284
284
284
285
284
284
284
284
284
285
284
284
284
284
284
284
285
284
283
283
283
283
283
283
282
281
281
281
281
280
280
279
278
278
279
279
278
279
278
278
278
277
277
277
276
276
275
276
276
276
275
275
275
275
275
276
275
276
275
275
275
275
275
275
274
274
273
273
274
273
273
272
272
272
272
273
273
272
272
271
271
271
270
270
270
269
269
269
270
269
269
269
268
268
268
269
268
268
267
267
267
268
268
267
268
268
267
267
268
269
268
268
267
268
269
269
269
268
268
268
268
268
269
269
268
268
268
268
269
269
269
269
269
269
269
271
271
271
271
272
272
272
273
274
274
275
274
276
276
277
278
278
279
279
281
281
282
284
284
285
286
287
288
289
290
291
292
294
296
298
299
300
301
303
305
307
309
311
313
314
317
319
321
324
325
328
329
332
334
337
339
341
343
345
347
350
352
355
356
358
361
363
365
368
370
372
373
376
379
380
382
384
385
387
390
391
393
395
396
397
399
400
401
402
403
403
404
405
405
406
406
406
405
405
405
405
405
404
403
402
401
401
400
398
397
395
394
393
392
391
389
387
385
384
384
382
380
378
376
374
372
372
370
369
367
365
363
362
361
359
358
356
354
353
352
351
350
348
347
346
344
344
343
342
341
340
339
338
338
337
336
335
333
333
333
332
332
331
330
329
328
329
328
328
327
326
326
325
325
325
324
324
322
322
323
323
323
322
322
320
320
320
321
321
320
320
319
320
320
319
319
319
318
318
319
319
319
319
319
318
318
318
319
318
318
317
317
317
317
317
317
317
316
316
316
316
316
316
315
314
315
314
314
314
314
313
313
313
314
314
314
312
312
312
312
313
313
313
312
312
311
312
312
312
311
310
309
310
310
310
310
308
309
309
309
309
309
309
308
308
308
308
309
308
308
308
308
308
308
308
308
307
306
306
307
307
307
307
306
305
305
306
306
306
305
305
305
305
305
305
305
304
304
304
305
305
304
304
304
304
303
304
304
304
304
304
303
304
303
304
303
303
303
304
303
304
304
304
303
303
303
303
304
304
304
303
304
304
305
304
305
304
305
305
305
305
306
306
306
305
306
306
306
306
306
306
305
306
306
307
307
306
306
306
306
306
307
306
306
306
306
307
307
306
306
306
305
305
306
306
305
305
305
304
305
306
306
306
306
305
306
306
306
306
306
306
305
306
306
307
307
306
306
307
307
307
307
307
307
306
306
307
307
307
307
307
306
307
307
307
307
307
307
308
308
308
308
308
308
307
308
308
308
308
307
307
307
308
308
308
308
308
308
308
308
309
310
309
308
308
309
309
309
309
309
308
308
309
309
309
309
309
308
308
308
308
308
308
307
307
307
306
307
307
306
305
305
305
306
305
305
305
305
304
305
305
305
305
305
304
305
305
306
305
305
305
305
305
305
305
305
305
304
305
305
306
305
306
305
305
305
306
306
306
306
305
305
305
306
305
305
305
305
305
305
305
305
305
305
305
305
305
304
305
304
305
304
305
305
305
305
304
304
304
304
304
305
304
304
304
304
304
305
305
304
304
304
303
304
305
304
304
303
304
305
305
305
304
304
303
303
304
304
304
304
303
302
303
303
303
302
302
302
302
302
302
302
302
302
301
301
301
301
301
301
301
301
301
302
302
302
302
302
303
304
304
304
305
305
304
305
306
306
307
307
307
307
308
309
308
309
308
309
308
310
310
310
310
309
309
310
310
310
311
311
310
310
311
312
313
313
312
313
314
314
315
315
315
314
314
314
314
314
313
313
312
312
311
312
310
310
310
309
309
309
308
309
308
308
307
307
307
307
306
306
305
306
306
306
306
306
306
306
306
307
307
307
308
308
308
308
308
309
308
309
308
308
307
308
307
307
306
305
305
304
304
303
303
301
300
299
299
299
298
298
297
297
297
297
297
297
297
296
296
298
298
298
298
297
297
298
299
299
299
298
298
298
298
299
299
299
299
298
298
299
300
300
300
300
299
300
300
300
300
300
299
299
300
300
300
300
300
299
300
301
301
300
301
300
300
301
301
301
301
300
301
300
301
300
301
300
300
300
300
300
301
301
300
300
300
301
301
302
302
301
301
302
303
303
303
303
303
303
304
304
304
305
305
305
304
303
303
304
303
303
302
302
301
301
301
300
299
299
298
298
297
298
296
296
297
297
299
300
301
303
304
307
310
314
318
323
328
332
339
345
353
359
365
372
380
388
396
405
413
421
429
437
446
454
462
470
478
485
494
502
510
517
525
532
538
545
552
558
564
569
574
579
582
586
590
593
595
597
598
599
600
600
598
597
595
594
592
590
588
584
581
578
575
572
569
565
562
559
556
553
551
548
546
541
539
536
533
530
527
523
520
517
514
512
509
506
502
499
497
495
493
490
487
484
482
480
479
478
476
473
472
470
468
467
466
463
461
459
458
455
453
449
445
441
435
432
427
421
416
410
403
397
390
384
378
370
364
358
351
346
341
334
329
324
319
315
311
308
305
302
298
297
295
294
292
290
289
287
287
286
286
286
285
283
283
283
282
283
283
282
282
281
282
282
282
281
281
281
282
281
282
282
282
282
281
281
282
282
282
281
281
280
280
280
279
279
278
278
277
277
278
277
277
276
276
276
276
275
275
275
274
274
273
273
273
273
273
272
273
273
273
273
272
273
272
272
273
273
273
272
272
272
273
273
274
273
273
273
273
273
274
274
274
273
272
272
272
271
271
271
269
269
269
268
268
268
266
265
265
265
264
264
263
262
262
261
261
261
261
260
259
259
259
259
260
259
259
259
259
260
260
260
259
259
260
260
260
261
261
261
260
261
261
262
262
262
262
262
262
262
262
262
261
261
260
260
260
259
258
258
257
257
256
256
255
255
254
253
253
254
254
253
253
252
251
251
251
251
251
250
250
250
250
251
251
250
250
250
250
251
251
252
251
252
251
252
252
253
253
254
253
254
255
256
256
256
255
256
256
256
257
257
258
258
257
258
259
260
260
261
262
263
264
265
266
267
269
270
271
273
275
277
278
279
281
282
283
285
286
287
289
290
293
294
295
297
297
300
301
303
304
306
308
309
312
314
317
319
320
322
325
326
329
331
334
336
338
340
343
346
349
352
354
356
358
360
363
365
367
368
370
373
375
377
379
381
381
383
384
385
386
387
388
388
388
389
389
388
387
387
386
385
384
384
383
381
380
379
378
378
377
376
374
372
371
371
370
368
367
366
365
364
362
361
360
358
356
355
354
353
351
349
348
345
343
342
340
338
336
334
332
331
330
329
327
326
325
324
323
323
322
321
320
319
319
319
318
318
317
317
316
315
315
315
315
314
313
312
311
311
311
309
309
308
307
306
306
305
305
304
303
303
302
303
302
301
301
300
300
300
300
300
299
299
298
299
299
298
298
297
298
297
297
297
297
296
295
296
295
296
297
297
296
296
297
297
297
298
298
298
298
298
298
299
298
299
298
298
298
298
298
298
297
296
295
295
295
295
295
294
293
293
293
293
293
293
293
293
293
294
294
294
294
294
293
293
294
294
294
293
292
292
292
293
292
292
292
291
291
292
292
292
292
291
292
291
291
292
291
290
290
289
290
290
290
289
288
288
288
288
288
289
288
287
287
287
288
288
287
287
287
287
287
287
287
287
287
287
287
287
287
286
287
286
285
286
286
286
286
286
286
285
286
286
286
286
285
286
287
287
287
286
286
285
285
285
285
285
285
284
284
284
283
284
284
284
283
283
284
284
284
285
285
284
284
285
285
285
285
285
285
285
285
286
286
285
285
284
285
285
285
285
286
286
286
286
287
288
288
287
287
287
288
289
289
289
289
289
289
290
291
291
291
291
291
292
292
293
292
293
292
292
293
293
294
294
294
294
294
294
294
295
294
294
293
294
295
295
295
295
295
295
295
297
297
297
298
298
299
299
300
301
301
301
301
301
301
302
301
301
301
301
301
302
302
301
301
300
301
301
301
301
301
300
300
300
300
300
300
300
299
299
299
299
299
298
298
298
298
299
298
298
297
297
296
296
297
297
297
297
297
296
296
297
298
298
298
298
298
299
299
299
298
298
297
297
297
296
296
295
294
293
293
293
292
292
291
290
289
289
289
289
288
288
287
288
288
288
288
287
287
287
287
287
287
286
286
286
287
288
288
288
288
287
288
289
289
289
289
289
288
288
289
289
289
288
288
288
288
289
290
290
289
289
289
289
289
290
290
289
289
289
290
291
290
290
289
288
289
290
289
289
289
289
288
288
287
288
287
286
287
286
286
287
287
287
287
286
287
287
288
288
288
289
289
289
289
289
290
289
289
289
289
290
290
289
289
288
289
289
289
289
289
290
289
290
291
291
291
291
291
291
292
294
295
296
296
298
299
301
303
304
307
309
312
316
320
325
329
335
340
346
353
360
368
374
382
391
399
407
417
425
434
443
451
460
469
478
486
494
502
511
518
527
534
541
548
555
561
567
573
578
582
586
591
593
597
600
602
602
603
604
604
605
603
602
601
600
599
597
596
594
591
588
587
584
581
579
576
573
570
567
564
561
558
554
551
547
544
541
536
532
528
524
519
514
510
505
501
496
491
486
482
478
474
469
464
460
457
455
453
449
446
443
440
438
436
434
431
428
425
423
420
417
414
410
407
402
398
394
389
385
379
374
369
363
358
353
347
340
335
330
325
320
315
310
307
303
300
297
294
292
289
287
285
284
282
283
281
280
279
279
279
279
278
277
277
277
276
277
277
276
275
274
273
274
273
272
272
271
271
270
271
270
270
270
270
269
270
271
270
271
270
269
270
270
271
271
271
270
270
270
269
270
269
269
268
268
267
268
268
268
267
266
266
266
266
267
266
265
265
265
265
265
265
265
265
265
265
266
267
267
266
265
266
266
266
266
267
266
265
265
266
266
266
265
264
264
265
265
265
264
263
262
262
262
262
262
261
260
259
259
260
259
259
258
258
259
259
259
260
259
259
259
259
259
260
260
260
259
259
259
259
260
260
259
258
257
258
258
258
258
257
256
255
255
255
255
254
254
253
254
254
254
254
254
254
253
253
253
254
254
254
253
253
253
252
253
252
252
252
252
252
252
253
252
252
252
253
253
253
253
253
253
252
252
253
253
253
253
252
252
252
252
252
252
251
251
251
252
252
252
252
253
253
253
254
253
254
254
255
256
256
257
257
258
259
259
260
262
262
263
264
265
265
265
267
268
269
270
270
270
273
274
275
276
277
278
280
282
283
285
287
288
289
292
294
296
297
299
301
303
305
308
310
311
313
315
317
321
324
326
328
331
332
335
338
341
344
346
348
351
354
357
358
360
361
363
366
368
369
370
371
372
373
374
375
376
376
377
377
377
379
380
379
380
380
380
381
382
382
381
381
381
381
381
380
379
379
376
375
374
373
372
370
368
365
363
361
360
358
355
353
350
348
346
344
343
340
338
337
335
334
333
332
330
329
329
329
328
328
329
327
326
326
325
324
324
323
321
319
319
318
318
316
314
313
312
310
309
308
306
304
302
302
302
301
300
300
299
298
298
297
298
297
297
297
296
296
296
296
296
295
294
293
294
293
293
292
291
290
290
290
291
290
289
289
289
289
290
289
289
289
289
289
288
288
289
288
287
287
286
287
286
286
286
285
284
284
284
283
283
283
282
282
282
283
283
283
282
282
281
282
282
282
281
281
280
280
280
280
280
280
279
279
278
278
278
277
276
275
275
276
276
275
275
274
273
274
274
275
275
275
275
275
276
276
276
277
275
277
276
277
277
277
276
275
275
276
276
275
274
273
272
272
273
272
271
271
270
270
270
270
270
270
270
270
269
269
269
269
268
269
268
269
269
270
270
270
270
269
270
270
271
271
270
270
270
270
271
271
271
270
270
269
270
270
270
269
268
267
267
267
268
268
267
268
268
268
268
268
268
267
266
266
265
266
265
265
265
264
264
265
265
265
265
265
265
266
267
268
268
269
269
270
270
271
271
271
271
270
270
271
271
271
271
270
270
270
270
271
270
269
268
268
268
267
268
267
267
266
266
267
266
266
265
265
264
265
265
265
265
264
264
263
265
265
265
265
265
266
266
266
267
267
266
266
267
267
268
267
268
267
266
266
266
266
265
265
264
264
263
264
263
262
263
262
262
263
263
263
263
263
263
263
264
263
265
264
264
264
264
265
265
265
265
265
265
266
266
266
267
266
265
266
266
266
267
266
267
267
268
267
268
269
268
268
268
269
269
269
269
269
269
269
270
270
271
270
269
269
269
270
270
270
269
269
269
269
269
269
269
269
268
268
268
268
267
268
267
266
265
265
265
264
264
263
263
264
264
265
265
264
263
264
264
264
264
265
265
264
265
264
265
265
265
265
265
266
266
267
267
266
265
265
264
265
265
264
263
262
261
261
261
259
259
257
256
256
255
255
253
252
250
249
249
249
248
248
247
246
246
247
247
246
247
246
247
247
248
249
249
249
250
250
251
252
252
252
252
251
252
251
252
251
251
250
249
250
250
250
249
249
248
247
248
248
248
247
247
247
247
247
247
247
246
247
247
247
248
249
249
248
248
247
248
248
248
247
246
247
246
246
246
245
245
244
245
244
245
245
244
245
244
244
245
245
245
245
245
246
246
246
248
248
248
248
247
248
248
249
249
248
248
248
249
249
249
249
248
248
248
248
249
248
249
249
249
251
251
253
254
256
257
260
264
267
271
275
280
284
290
297
304
311
318
326
334
343
352
361
371
379
388
397
407
417
426
436
445
455
464
473
483
491
499
506
514
523
530
538
545
552
557
562
568
573
577
580
583
584
586
588
589
589
589
588
587
586
585
584
581
579
576
575
573
570
567
564
562
558
556
554
551
548
545
541
538
534
531
527
523
519
515
509
505
501
496
490
485
481
476
471
468
463
458
453
449
444
440
436
432
427
423
420
416
413
409
406
402
399
396
393
389
386
382
378
374
371
367
364
359
354
349
343
338
333
328
322
315
309
304
298
292
287
280
275
270
265
261
257
253
249
246
244
241
239
238
236
234
232
231
231
231
230
229
228
228
228
228
228
227
226
226
226
226
226
226
225
225
224
224
224
224
224
223
224
224
224
224
225
225
224
223
223
223
224
224
224
224
223
223
223
223
222
222
221
221
221
220
221
220
220
218
218
218
218
218
217
216
217
217
216
217
217
216
216
216
217
217
217
216
216
217
216
216
216
216
216
215
214
214
214
215
214
213
212
212
212
212
211
211
211
210
210
209
210
210
209
209
209
209
209
210
210
209
209
208
208
209
208
208
208
207
207
207
206
207
206
205
205
205
205
205
204
204
203
204
204
204
204
204
204
203
203
204
204
204
203
202
203
202
203
203
203
202
202
202
201
202
201
201
201
201
201
201
201
201
200
201
200
200
201
200
201
201
200
200
200
200
200
201
200
199
199
199
199
199
198
198
197
198
197
198
198
198
198
198
199
199
200
200
200
201
201
202
203
204
203
204
204
205
205
206
206
206
207
207
207
209
209
209
209
210
211
212
212
213
214
215
215
216
218
219
222
222
223
225
226
228
230
232
233
235
236
239
242
244
246
247
249
252
254
257
259
261
263
265
269
271
274
276
278
281
283
286
288
290
292
294
296
299
302
304
308
310
312
315
318
321
324
327
329
331
334
336
339
341
343
343
345
346
348
349
349
350
350
350
350
350
351
351
350
349
348
349
348
348
348
346
346
345
344
344
343
341
340
339
339
338
336
335
333
332
329
328
327
325
323
321
319
319
317
316
314
312
311
309
308
307
306
305
303
302
301
300
299
297
296
294
293
292
291
290
289
287
286
285
285
284
284
283
282
281
280
281
281
281
280
279
279
278
278
279
278
277
277
277
277
277
277
276
275
273
273
273
273
272
271
271
270
269
270
269
268
268
268
268
267
268
268
268
268
268
268
268
269
268
269
268
268
268
268
269
269
268
268
268
269
269
268
269
268
268
268
268
268
268
269
268
267
268
268
268
268
267
267
266
266
267
267
265
265
264
264
265
265
264
264
263
263
263
263
263
263
262
262
261
262
262
262
262
262
262
262
262
262
262
262
262
262
262
263
263
264
263
263
263
264
265
266
265
264
263
263
263
264
263
263
262
262
262
262
262
262
262
261
260
261
261
260
260
259
259
259
259
259
258
259
257
258
258
257
258
257
257
256
256
256
257
256
256
255
256
256
256
256
256
255
255
255
255
255
255
255
256
255
256
256
256
257
257
257
256
257
257
258
258
257
258
258
258
258
259
258
258
258
258
259
259
258
258
258
257
257
257
257
257
257
257
256
256
256
257
256
256
255
254
255
255
256
256
255
255
256
255
256
256
255
255
255
255
255
255
255
255
256
256
256
257
257
257
256
256
257
257
257
257
257
258
258
258
258
259
259
259
260
260
261
261
262
262
262
262
262
263
264
265
265
266
265
267
266
267
267
267
267
267
268
268
268
268
268
267
267
267
268
268
268
267
267
267
267
267
268
268
267
267
268
269
269
269
269
268
268
269
269
269
269
269
268
268
269
269
268
268
268
268
268
268
268
268
267
266
267
267
267
267
266
266
266
265
266
267
266
266
266
266
266
266
267
267
267
267
268
268
268
268
268
267
268
267
267
268
268
267
267
265
266
266
266
264
263
263
262
262
262
261
261
260
259
259
259
258
257
257
256
256
255
255
255
254
254
253
253
252
252
252
252
251
251
251
251
252
252
251
251
251
252
252
252
253
252
253
253
253
253
254
253
252
253
253
253
254
253
253
252
253
253
253
253
253
253
253
252
252
253
253
252
251
252
252
252
252
253
252
251
251
252
252
253
253
253
251
251
252
252
251
251
251
251
251
250
251
251
250
250
250
251
251
251
251
251
250
250
250
251
251
251
251
250
251
251
251
251
252
251
251
252
253
252
252
251
251
251
251
251
252
252
252
253
254
255
258
260
262
264
268
271
277
281
287
291
298
304
312
320
328
337
345
353
361
371
381
390
399
408
418
427
437
447
456
465
473
482
491
500
508
515
522
529
536
543
550
555
560
564
568
573
576
580
581
582
583
583
584
584
583
582
579
577
576
573
571
568
565
561
558
555
552
549
546
541
538
534
530
528
524
520
516
512
508
504
501
496
492
487
484
480
477
474
470
467
462
458
456
451
448
444
441
438
435
432
430
427
424
420
417
414
412
408
405
402
398
393
390
386
382
377
372
367
361
357
351
345
338
333
327
321
315
309
303
296
291
285
280
275
271
265
260
256
254
250
247
245
242
240
237
237
235
235
234
233
232
231
231
231
230
230
229
228
228
228
229
228
227
227
226
226
226
226
226
224
224
223
224
223
223
223
222
221
221
222
221
221
221
220
221
221
222
221
221
221
221
221
221
221
222
221
221
220
220
220
221
221
221
220
220
220
221
220
220
220
219
219
218
219
219
218
217
218
217
217
217
217
215
215
215
216
216
216
216
215
214
214
215
215
214
214
214
214
214
214
214
214
214
213
213
213
213
213
212
212
211
211
211
212
211
211
210
209
209
209
209
209
207
207
207
207
207
207
206
206
205
205
206
206
206
205
205
204
204
205
205
205
204
204
203
204
204
204
203
203
202
202
202
202
201
201
201
200
200
200
200
200
199
199
199
200
200
200
200
199
199
199
199
200
199
199
199
199
199
200
199
199
199
199
198
199
200
199
199
199
198
197
198
199
199
198
198
198
199
198
199
199
199
199
199
199
201
201
202
201
202
202
204
204
205
205
206
206
207
208
209
210
210
211
213
214
215
217
218
219
220
221
223
225
226
228
229
231
232
235
237
238
240
242
243
246
248
251
253
255
257
259
262
264
266
268
270
272
275
277
279
282
284
286
288
290
293
295
298
300
302
303
306
309
310
313
314
316
319
321
324
325
326
328
330
331
333
333
335
335
336
336
336
338
338
337
336
336
336
335
336
334
333
332
330
329
328
328
326
324
322
321
320
318
317
315
313
311
309
308
306
305
303
301
298
298
297
295
293
292
290
287
287
286
285
282
281
279
277
277
275
274
272
272
271
270
269
268
267
265
265
263
262
262
261
260
259
258
258
257
257
256
256
254
254
253
253
253
252
251
251
250
250
251
250
249
249
249
249
248
249
248
247
247
247
248
248
247
248
247
246
246
246
245
245
244
244
244
243
243
242
242
241
241
241
241
241
240
240
240
239
239
239
240
240
239
238
238
239
238
238
238
238
237
237
237
238
237
237
237
237
237
237
238
237
237
237
237
237
237
237
237
237
237
237
236
237
237
237
236
236
235
235
236
235
235
234
233
233
234
234
234
232
233
233
233
233
233
232
232
231
232
232
232
232
231
230
231
230
231
230
230
230
230
230
230
230
230
230
230
228
229
229
229
229
228
228
229
228
229
228
228
228
228
228
227
228
228
228
228
227
227
227
228
227
228
227
226
226
227
227
227
227
226
226
227
227
227
227
226
226
226
226
226
225
226
225
225
225
225
225
225
225
225
225
225
226
226
227
226
225
225
227
227
227
226
227
226
227
227
227
227
226
227
227
227
227
228
227
226
226
226
226
227
227
227
227
226
227
227
227
227
227
227
227
228
228
228
228
228
228
228
228
229
229
229
229
229
229
230
230
229
229
230
230
231
231
230
231
230
230
230
230
231
230
230
229
229
229
229
230
230
229
229
229
229
229
229
228
228
229
228
228
229
229
228
228
228
228
229
228
228
228
228
228
228
229
229
229
229
229
229
230
229
230
230
230
229
229
230
230
230
229
229
229
230
230
230
229
229
228
229
229
230
230
229
228
229
228
229
229
229
228
228
228
229
229
229
228
228
227
227
228
228
228
227
226
227
227
227
227
227
227
226
226
227
227
227
227
227
226
227
227
227
227
227
227
226
227
228
227
228
227
227
228
227
228
228
228
227
227
227
228
227
227
228
227
226
227
228
227
227
227
227
227
227
228
227
227
227
227
227
227
227
227
227
226
226
226
227
227
226
226
226
227
227
227
227
227
227
226
226
226
227
227
226
227
226
226
226
227
226
226
225
225
226
226
226
226
226
226
226
226
227
227
227
227
226
228
229
228
229
229
229
229
230
232
232
233
232
232
233
234
234
234
235
235
236
235
236
237
237
236
236
237
237
237
238
237
237
237
236
237
237
237
236
237
236
237
238
237
237
237
238
238
239
239
240
239
239
239
239
239
239
239
239
239
238
238
238
239
239
238
237
237
238
238
238
238
237
237
237
238
237
237
237
237
237
237
238
238
238
238
238
237
238
238
239
238
238
239
239
238
239
239
238
238
238
237
237
237
236
235
233
233
233
233
232
231
230
230
230
229
229
229
228
228
227
227
227
228
228
228
228
228
228
228
229
228
229
228
228
229
229
229
229
229
229
229
229
229
229
229
229
228
229
229
229
228
228
227
227
227
228
228
227
227
227
227
227
227
227
226
226
226
226
227
227
226
226
226
226
227
226
226
226
226
225
225
226
226
226
225
225
225
226
226
227
226
226
226
226
226
226
226
226
225
226
226
226
227
227
226
226
226
227
227
227
226
226
226
226
227
227
226
226
226
225
225
225
225
224
225
224
224
224
226
226
227
228
230
232
235
237
241
244
248
253
257
264
270
276
282
290
298
305
314
322
331
338
347
355
364
373
382
389
398
406
414
422
430
439
445
453
460
468
476
482
488
494
500
504
510
515
518
522
524
527
530
532
533
534
534
533
533
532
531
529
527
525
522
519
516
514
511
507
503
500
497
494
491
487
483
480
477
473
471
467
465
461
458
454
451
448
445
442
439
436
433
431
428
425
423
419
417
415
413
411
409
406
404
403
400
399
397
394
393
390
388
385
382
379
376
372
369
365
361
356
351
347
341
335
329
323
317
310
304
297
291
285
279
273
266
261
256
251
247
243
238
234
231
227
225
224
221
220
217
216
215
213
214
213
212
211
211
210
210
210
210
208
208
208
208
208
208
207
206
206
205
206
205
205
203
203
203
203
203
204
203
202
201
201
202
202
202
201
201
202
202
201
202
201
201
201
201
200
200
201
200
200
199
199
199
199
199
198
198
197
197
197
197
197
196
195
195
196
196
196
195
195
195
195
196
196
195
195
194
194
194
195
195
195
194
193
193
194
194
194
193
193
192
192
192
192
192
191
191
190
190
191
190
190
190
189
189
189
189
189
188
188
188
187
188
188
187
187
186
186
186
186
186
186
185
184
184
185
185
184
185
183
183
183
183
183
183
182
182
181
181
182
182
182
182
181
181
181
182
182
182
181
181
181
181
182
182
181
181
180
180
181
181
181
180
180
180
180
180
181
180
180
180
180
179
180
180
180
179
179
179
179
179
179
178
178
178
178
178
178
178
178
177
177
178
179
179
179
179
179
179
180
181
181
181
181
182
183
184
185
185
185
185
186
187
189
189
190
191
192
193
194
196
197
197
199
201
203
204
205
207
208
210
211
214
215
217
218
220
222
224
225
228
230
232
233
235
237
240
242
243
245
247
249
252
254
256
258
260
262
265
268
270
271
274
276
277
281
283
285
287
289
290
292
295
296
298
298
299
301
302
303
305
305
306
307
308
308
309
309
308
309
308
308
308
308
307
306
306
304
304
303
302
302
300
298
297
296
296
294
293
291
289
288
287
284
283
281
279
277
275
274
272
271
269
267
266
265
264
262
260
258
257
256
255
254
253
252
250
249
249
248
247
246
245
244
243
242
242
241
240
240
238
238
237
237
236
235
234
234
233
232
232
231
230
228
228
227
228
227
226
225
225
225
224
224
224
223
222
222
223
222
222
222
222
222
222
221
222
222
221
221
221
220
221
220
220
220
220
219
219
218
219
219
217
218
218
218
218
218
218
218
217
218
217
218
217
216
217
216
217
217
217
217
217
215
215
216
216
216
215
215
215
215
214
214
214
214
213
213
213
213
214
213
212
212
212
212
213
212
212
211
210
210
211
211
211
210
209
209
209
208
209
208
207
207
206
206
206
207
206
205
205
205
205
205
205
204
203
204
203
204
204
203
202
202
202
202
202
202
202
201
201
200
201
201
201
201
200
200
200
201
201
200
200
200
200
200
201
201
200
200
200
200
200
201
201
200
200
200
200
200
200
200
199
200
200
199
200
200
200
199
199
199
199
200
199
199
199
199
199
199
200
200
199
200
200
200
201
200
200
200
201
200
201
201
201
200
201
200
201
201
202
202
202
201
202
202
202
202
202
202
201
201
201
202
201
201
200
201
201
201
200
200
200
200
200
200
201
202
201
201
200
200
201
201
201
202
201
201
201
202
202
201
201
201
201
202
202
202
201
201
201
201
201
202
202
201
201
202
202
202
202
203
202
201
202
202
203
203
203
203
203
203
203
203
203
203
202
203
202
202
203
203
202
203
202
203
204
204
204
204
203
203
204
204
204
203
202
203
203
203
202
202
201
201
201
201
200
201
200
199
198
197
198
198
198
197
197
196
197
197
197
197
197
196
198
198
198
198
198
198
197
198
199
200
200
199
199
199
199
200
200
200
200
200
200
200
201
201
201
201
200
201
201
202
202
201
202
202
202
202
202
203
202
202
203
203
204
203
203
202
203
203
203
202
203
203
203
202
203
204
204
203
204
204
205
205
206
207
207
207
206
206
207
207
208
208
208
208
208
209
209
209
209
209
210
211
211
212
212
212
212
212
213
213
214
213
213
213
214
214
214
213
213
212
213
213
213
212
212
212
211
211
211
211
210
209
208
209
207
207
207
206
206
205
204
205
205
205
204
204
204
204
205
206
206
206
206
205
206
207
207
208
207
208
208
208
208
208
207
206
205
204
204
203
202
201
200
199
198
198
197
197
195
195
195
195
195
194
194
194
194
194
195
195
195
195
195
195
196
196
196
197
196
195
195
196
197
196
196
195
195
195
195
194
195
194
194
194
194
194
194
194
193
192
193
193
194
194
194
194
193
194
194
194
194
194
193
193
193
193
193
192
192
192
192
191
192
191
191
191
190
190
190
190
190
189
189
188
189
189
189
189
189
189
190
190
190
191
191
191
192
192
192
192
192
192
192
191
192
192
193
192
192
192
192
192
193
192
191
191
191
191
190
191
190
190
189
189
189
189
189
190
189
189
190
191
192
193
195
197
199
202
205
209
213
217
221
226
232
238
245
251
257
264
272
280
288
296
304
311
319
327
334
342
350
358
365
372
380
388
394
401
408
413
420
427
433
439
444
448
453
458
462
465
468
471
473
476
477
478
479
479
478
478
478
478
477
475
473
470
468
466
463
461
459
456
452
449
446
443
440
437
433
429
427
423
420
417
413
409
404
401
398
394
390
386
382
378
376
372
369
366
363
360
357
356
354
352
349
347
345
343
342
340
338
335
332
330
328
325
322
317
313
309
304
300
295
291
285
279
273
267
262
256
251
244
239
233
228
223
219
214
208
203
200
197
194
191
188
186
183
181
180
178
178
175
175
173
173
173
172
172
170
169
169
170
170
169
169
168
168
168
168
168
167
167
166
167
167
166
167
166
166
166
165
166
167
167
167
166
165
166
166
166
166
165
165
165
164
164
164
164
163
162
162
162
162
163
162
162
161
161
162
161
161
161
159
160
160
159
160
159
159
158
158
159
159
158
158
157
157
156
157
157
158
157
157
157
157
157
157
156
156
156
156
155
156
155
154
153
153
153
153
152
152
152
151
151
151
150
151
150
149
149
149
149
149
150
149
149
149
149
149
150
149
149
149
148
148
149
150
149
149
149
149
149
149
148
148
147
146
146
146
146
145
144
144
143
143
142
142
142
140
140
140
140
141
140
141
139
140
140
140
141
140
140
139
139
139
139
140
139
139
139
139
140
140
141
141
141
141
141
142
143
142
142
142
142
142
142
142
142
142
142
142
142
142
142
141
141
141
142
142
142
142
142
142
142
143
144
145
145
145
146
146
148
148
149
150
151
151
152
153
154
155
156
157
159
160
162
164
165
166
168
169
171
174
176
177
179
180
182
184
186
189
189
191
193
195
198
200
201
203
205
207
209
212
214
216
217
219
221
223
225
228
230
231
234
236
238
241
244
245
247
250
252
254
257
259
260
262
264
266
268
270
270
272
273
275
277
277
278
278
277
278
279
279
279
278
276
275
275
274
273
272
271
269
268
266
265
264
262
261
259
258
257
256
256
254
253
252
251
249
248
247
245
244
243
241
240
238
236
234
232
230
230
228
226
225
223
222
220
220
219
218
217
216
214
213
212
212
211
210
209
209
208
208
208
206
205
204
204
203
202
201
200
199
198
197
198
197
196
196
195
195
195
195
194
194
194
193
193
193
193
193
192
192
191
192
191
192
191
190
190
189
189
189
189
189
187
186
186
187
186
185
185
184
185
184
184
185
184
184
184
183
184
184
184
183
183
182
182
182
182
182
182
181
181
181
182
182
181
181
181
182
182
183
184
183
183
183
183
184
183
183
183
182
181
181
181
181
180
179
179
179
179
179
179
179
178
177
177
177
178
178
177
176
176
176
177
176
176
175
175
175
175
175
175
175
175
175
175
175
175
175
175
175
175
174
175
175
175
175
174
174
174
175
175
175
174
174
174
174
174
174
173
174
174
174
174
175
175
174
175
174
175
175
175
175
173
173
173
173
173
173
172
172
172
172
172
172
171
171
171
171
171
172
171
172
172
172
172
173
173
174
173
174
174
174
175
175
175
174
175
174
175
176
176
176
175
174
174
174
174
173
173
172
173
173
173
174
175
174
174
175
175
176
177
177
176
176
178
178
179
179
179
178
179
179
179
179
179
179
178
178
179
178
178
177
177
177
176
176
177
177
176
176
176
177
177
178
178
178
178
180
181
182
182
183
183
184
185
185
187
187
188
187
189
190
190
190
190
190
191
191
192
192
192
191
190
190
190
191
190
190
189
188
188
188
188
189
188
188
187
188
188
189
189
189
189
188
189
189
190
190
190
189
190
190
190
190
190
189
189
189
189
189
189
188
188
188
188
189
188
189
188
188
187
188
188
188
188
188
189
189
189
190
191
191
190
190
190
190
191
191
190
189
189
188
188
187
186
186
185
185
184
184
183
182
181
180
179
180
179
179
178
178
177
177
177
178
177
178
177
178
178
179
179
179
178
179
178
179
179
179
179
179
179
179
179
179
178
178
178
178
177
178
178
178
178
178
178
178
179
179
179
179
178
179
180
180
180
179
180
179
180
180
180
180
179
179
178
178
179
179
178
178
178
178
178
178
178
177
178
178
178
179
179
179
178
178
179
180
179
179
180
179
180
179
180
180
180
180
180
180
181
181
182
181
181
181
181
183
183
183
182
183
183
183
183
183
183
182
183
183
184
184
184
185
185
186
187
187
189
191
193
196
199
202
207
212
217
222
228
235
242
249
257
265
272
281
290
299
308
316
325
334
342
351
360
369
377
385
393
402
410
418
426
432
439
445
452
459
465
471
475
480
485
488
492
495
497
498
499
499
500
500
500
499
497
495
493
491
489
488
485
481
479
477
474
472
468
465
462
459
456
453
450
447
443
439
435
432
428
425
420
415
411
406
403
398
393
388
383
379
375
371
367
363
358
354
350
347
344
340
337
334
332
329
328
325
322
320
318
315
313
311
307
304
300
296
292
289
284
280
274
269
263
258
253
248
242
236
231
225
220
216
211
206
202
197
194
191
187
184
181
179
177
176
174
172
171
170
169
168
169
169
168
167
167
166
166
166
165
165
165
164
163
164
164
164
164
164
163
163
164
164
164
163
164
163
164
164
165
165
164
165
164
164
165
164
164
164
164
164
163
163
163
163
162
162
162
161
162
161
161
160
160
160
160
160
160
160
159
159
160
160
161
160
160
159
159
159
160
160
159
158
158
158
158
158
158
157
157
157
158
157
157
157
156
155
155
156
156
156
155
155
155
155
155
155
154
154
154
154
154
155
155
155
154
154
154
155
154
154
153
153
154
154
154
154
153
153
152
151
152
153
152
151
151
151
150
150
151
149
149
148
148
148
148
149
148
148
147
147
148
148
148
148
147
148
148
148
149
149
148
148
148
148
149
148
148
147
147
147
147
148
148
148
147
146
146
147
147
147
147
146
147
147
148
147
147
147
147
147
148
147
148
148
147
147
147
148
148
148
148
148
149
149
150
151
150
151
151
152
153
154
155
155
155
156
157
158
159
160
160
160
162
162
164
165
165
166
167
168
170
171
173
173
174
176
177
