# Simple Text Format
# Sampling Rate (Hz):= 1200.00
# Resolution:= 12
# Labels:= ECG	 V3
# Age:=	77
# Gender:=	Feminino
0
0
0
0
0
0
0
0
0
0
0
0
0
0
0
0
0
0
0
0
0
0
0
0
0
0
0
0
0
0
0
0
0
0
0
0
0
0
0
0
0
0
0
0
0
0
0
0
0
0
0
0
0
0
0
0
0
0
0
0
0
0
0
0
0
0
0
0
0
0
0
0
0
0
0
0
0
0
0
0
0
0
0
0
0
0
0
0
0
0
0
0
0
0
0
0
0
0
0
0
0
0
0
0
0
0
0
0
0
0
0
0
0
0
0
0
0
0
0
0
0
0
0
0
0
0
0
0
0
0
0
0
0
0
0
0
0
0
0
0
0
0
0
0
0
0
0
0
0
0
0
0
0
0
0
0
0
0
0
0
0
0
0
0
0
0
0
0
0
0
0
0
0
0
0
0
0
0
0
0
0
0
0
0
0
0
0
0
0
0
0
0
0
0
0
0
0
0
0
0
0
0
0
0
0
0
0
0
0
0
0
0
0
0
0
0
0
0
0
0
0
0
0
0
0
0
0
0
0
0
0
0
0
0
0
0
0
0
0
0
0
0
0
0
0
0
0
0
0
0
0
0
0
0
0
0
0
0
0
0
0
0
0
0
0
0
0
0
0
0
0
0
0
0
0
0
0
0
0
0
0
0
0
0
0
0
0
0
0
0
0
0
0
0
0
0
0
0
0
0
0
0
0
0
0
0
0
0
0
0
0
0
0
0
0
0
0
0
0
0
0
0
0
0
0
0
0
0
0
0
0
0
0
0
0
0
0
0
0
0
0
0
0
0
0
0
0
0
0
0
0
0
0
0
0
0
0
0
0
0
0
0
0
0
0
0
0
0
0
0
0
0
0
0
0
0
0
0
0
0
0
0
0
0
0
0
0
0
0
0
0
0
0
0
0
0
0
0
0
0
0
0
0
0
0
0
0
0
0
0
0
0
0
0
0
0
0
0
0
0
0
0
0
0
0
0
0
0
0
0
0
0
0
0
0
0
0
0
0
0
0
0
0
0
0
0
0
0
0
0
0
0
0
0
0
0
0
0
0
0
0
0
0
0
0
0
0
0
0
0
0
0
0
0
0
0
0
0
0
0
0
0
0
0
0
0
0
0
0
0
0
0
0
0
0
0
0
0
0
0
0
0
0
0
0
0
0
0
0
0
0
0
0
0
0
0
0
0
0
0
0
0
0
0
0
0
0
0
0
0
0
0
0
0
0
0
0
0
0
0
0
0
0
0
0
0
0
0
0
0
0
0
0
0
0
0
0
0
0
0
0
0
0
0
0
0
0
0
0
0
0
0
0
0
0
0
0
0
0
0
0
0
0
0
0
0
0
0
0
0
0
0
0
0
0
0
0
0
0
0
0
0
0
0
0
0
0
0
0
0
0
0
0
0
0
0
0
0
0
0
0
0
0
0
0
0
0
0
0
0
0
0
0
0
0
0
0
0
0
0
0
0
0
0
0
0
0
0
0
0
0
0
0
0
0
0
0
0
0
0
0
0
0
0
0
0
0
0
0
0
0
0
0
0
0
0
0
0
0
0
0
0
0
0
0
0
0
0
0
0
0
0
0
0
0
0
0
0
0
0
0
0
0
0
0
0
0
0
0
0
0
0
0
0
0
0
0
0
0
0
0
0
0
0
0
0
0
0
0
0
0
0
0
0
0
0
0
0
0
0
0
0
0
0
0
0
0
0
0
0
0
0
0
0
0
0
0
0
0
0
0
0
0
0
0
0
0
0
0
0
0
0
0
0
0
0
0
0
0
0
0
0
0
0
0
0
0
0
0
0
0
0
0
0
0
0
0
0
0
0
0
0
0
0
0
0
0
0
0
0
0
0
0
0
0
0
0
0
0
0
0
0
0
0
0
0
0
0
0
0
0
0
0
0
0
0
0
0
0
0
0
0
0
0
0
0
0
0
0
0
0
0
0
0
0
0
0
0
0
0
0
0
0
0
0
0
0
0
0
0
0
0
0
0
0
0
0
0
0
0
0
0
0
0
0
0
0
0
0
0
0
0
0
0
0
0
0
0
0
0
0
0
0
0
0
0
0
0
0
0
0
0
0
0
0
0
0
0
0
0
0
0
0
0
0
0
0
0
0
0
0
0
0
0
0
0
0
0
0
0
0
0
0
0
0
0
0
0
0
0
0
0
0
0
0
0
0
0
0
0
0
0
0
0
0
0
0
0
0
0
0
0
0
0
0
0
0
0
0
0
0
0
0
0
0
0
0
0
0
0
0
0
0
0
0
0
0
0
0
0
0
0
0
0
0
0
0
0
0
0
0
0
0
0
0
0
0
0
0
0
0
0
0
0
0
0
0
0
0
0
0
0
0
0
0
0
0
0
0
0
0
0
0
0
0
0
0
0
0
0
0
0
0
0
0
0
0
0
0
0
0
0
0
0
0
0
0
0
0
0
0
0
0
0
0
0
0
0
204
203
203
202
202
203
202
202
202
201
201
202
201
201
201
200
201
202
202
203
203
203
202
203
203
203
204
204
204
203
203
205
205
205
206
206
206
207
207
208
208
208
208
208
208
208
209
209
208
208
208
208
209
210
209
209
209
209
209
210
210
209
208
208
208
208
208
208
207
206
206
206
206
206
205
204
204
204
204
204
203
203
202
203
202
203
204
203
203
202
203
204
205
205
204
204
205
205
205
205
205
206
206
205
205
206
206
206
205
205
205
205
206
206
205
205
205
206
207
207
208
207
207
207
208
208
208
209
208
208
208
208
208
208
207
206
205
205
206
205
205
204
203
203
203
203
203
203
202
202
202
203
204
204
205
205
205
206
208
209
209
210
210
211
212
213
214
214
214
214
215
216
216
216
216
216
216
217
216
217
216
216
215
215
215
215
215
215
214
214
213
214
214
215
214
214
214
214
216
216
217
216
217
217
217
218
218
218
217
218
218
218
218
218
217
216
216
216
216
216
216
214
214
213
213
212
213
212
211
210
211
211
212
211
211
211
212
212
214
213
215
214
214
215
216
217
217
217
217
216
216
217
217
216
216
215
214
214
214
214
214
212
211
210
210
210
208
208
207
206
205
205
206
204
204
203
203
203
204
203
203
203
201
202
201
202
201
202
201
201
201
201
202
202
201
201
202
203
203
203
203
203
203
204
204
205
205
205
205
205
205
205
206
205
205
205
205
205
205
206
205
204
204
204
204
204
204
203
204
203
203
204
204
204
204
204
204
204
206
205
205
205
204
205
204
205
205
205
204
204
204
204
204
204
203
203
203
203
205
205
205
205
204
204
204
205
204
205
204
204
204
205
205
206
206
206
207
209
210
211
212
213
214
215
217
220
221
223
224
226
229
232
235
237
240
242
246
250
253
258
261
265
270
274
279
283
287
292
296
300
304
309
313
317
321
324
329
332
337
341
343
346
348
351
353
357
360
362
364
365
367
368
370
370
370
369
368
367
365
363
361
358
354
351
347
343
339
334
329
324
318
314
310
305
300
295
291
287
283
280
276
272
267
265
261
259
256
253
250
247
244
241
239
237
233
230
229
227
226
224
223
221
219
218
218
218
217
217
216
217
217
219
220
221
222
223
224
226
227
229
230
231
232
233
234
235
235
236
235
235
235
235
234
232
231
229
227
225
225
222
220
218
215
214
213
212
211
210
209
207
207
207
207
206
206
207
206
208
208
209
208
208
208
208
208
208
209
208
208
207
207
207
208
208
207
207
207
206
207
207
207
206
206
205
206
206
206
206
206
205
205
206
207
207
206
206
206
207
207
207
207
207
206
206
207
208
207
207
207
206
206
205
206
205
204
204
203
204
204
204
203
202
202
201
202
201
202
202
201
201
201
200
201
201
201
201
201
201
202
203
202
202
202
202
202
203
204
203
202
202
202
202
202
202
201
201
201
201
201
201
200
200
199
198
199
199
199
199
198
198
198
199
199
199
200
199
200
201
201
201
202
201
201
200
201
201
201
201
200
201
201
201
202
201
201
200
201
201
201
202
202
202
201
201
202
202
203
202
202
201
201
202
202
202
201
200
201
200
201
200
200
200
199
199
200
199
199
199
199
199
200
199
201
201
200
201
201
202
203
203
203
203
204
205
205
206
206
205
205
206
206
206
207
207
207
208
207
208
209
209
209
209
209
210
211
212
212
213
214
214
215
216
217
218
219
220
221
223
225
226
227
228
228
230
232
233
235
236
237
238
240
241
243
245
246
247
248
250
253
254
255
256
257
259
260
263
264
266
267
269
270
272
275
276
277
279
281
283
285
287
289
290
292
293
295
298
300
301
301
303
304
306
308
309
309
311
311
313
314
315
315
315
315
316
316
317
317
316
316
315
314
315
314
313
313
311
310
310
309
308
306
305
303
302
300
299
297
295
293
291
288
288
286
283
282
280
278
277
276
275
273
272
269
268
266
265
264
262
260
258
257
255
255
253
251
249
247
246
246
244
243
241
240
239
238
238
237
236
235
235
234
234
233
233
232
231
231
231
231
231
230
229
229
228
227
227
226
225
225
223
223
223
222
221
221
221
220
220
221
220
220
219
219
219
219
218
218
218
218
217
217
218
218
217
217
216
217
216
216
217
216
216
214
215
215
215
214
215
214
214
214
213
214
214
213
213
212
212
213
212
212
211
211
211
211
211
211
210
210
209
209
210
209
209
209
208
209
209
209
210
210
209
209
209
210
209
209
209
209
208
209
209
208
208
208
207
207
208
208
208
207
207
206
206
207
207
207
206
206
206
206
205
206
206
204
204
204
204
205
205
204
204
203
204
204
205
204
204
204
204
204
204
204
204
204
203
203
204
204
205
205
205
204
204
204
205
205
204
204
204
204
205
205
205
205
204
204
205
205
205
205
205
205
205
205
205
206
205
206
206
205
206
207
207
206
206
206
207
207
208
207
207
206
207
207
208
208
207
207
207
207
208
208
208
208
207
207
208
209
209
208
208
208
208
209
209
209
209
208
208
208
208
208
208
209
208
209
208
209
209
209
209
209
209
210
209
209
210
208
209
209
209
209
209
209
209
209
210
210
210
210
209
209
210
210
211
211
210
209
210
210
211
211
210
210
209
209
210
210
210
210
210
209
209
210
210
210
209
209
209
209
209
210
209
209
209
209
210
210
211
210
209
211
211
211
211
211
211
211
211
211
212
212
213
212
212
212
213
214
214
214
214
214
215
215
216
216
216
216
216
216
216
217
217
217
217
216
217
217
217
217
216
216
216
217
217
218
217
217
216
217
218
218
218
218
218
218
219
220
219
219
219
218
217
218
218
218
217
217
216
216
216
216
215
215
214
214
215
215
215
215
214
214
214
214
215
215
214
214
213
214
214
215
214
214
214
214
214
215
216
215
215
214
215
215
214
214
214
213
212
212
212
212
211
211
209
209
208
208
208
207
206
206
206
205
205
205
204
203
204
204
204
204
204
204
204
204
205
205
206
205
205
204
205
205
206
206
206
206
205
206
207
207
207
207
206
207
207
207
208
208
207
207
207
207
208
207
207
206
206
206
206
207
206
206
205
205
205
205
206
205
205
205
205
205
205
205
205
205
204
204
204
204
204
204
204
204
204
204
204
204
204
203
203
204
204
204
204
203
204
204
204
205
205
204
204
204
205
206
206
206
205
206
206
207
207
207
207
207
207
208
209
209
209
209
208
209
211
211
211
213
212
214
214
217
218
221
222
223
226
229
233
236
240
243
247
251
256
260
265
269
273
277
281
285
290
294
298
302
305
309
312
315
319
323
325
329
333
336
339
343
345
348
350
353
355
357
357
358
359
358
358
358
356
353
350
348
345
342
337
333
327
322
317
312
306
301
295
289
284
278
274
269
265
260
256
253
249
247
244
240
237
235
232
230
229
228
225
224
223
222
222
221
221
220
220
220
221
223
223
224
225
226
227
230
231
233
234
235
237
239
241
243
244
245
246
247
247
248
249
248
247
246
245
244
243
241
238
236
233
231
230
228
225
222
220
218
217
215
214
212
210
209
208
208
208
208
206
206
206
205
206
206
206
205
205
204
205
205
206
204
204
204
204
204
204
204
203
202
203
202
203
203
202
202
201
201
203
203
203
203
202
202
202
202
203
202
202
202
201
201
203
202
202
202
201
201
202
202
202
201
201
201
201
201
201
201
201
200
200
199
200
200
199
199
198
198
199
199
200
199
198
198
198
198
199
199
198
198
197
198
197
198
198
197
196
196
197
197
198
197
196
196
196
197
196
196
195
195
195
195
195
196
195
194
195
195
195
196
195
195
194
194
195
195
195
195
194
194
193
194
193
194
194
193
193
193
193
193
193
193
192
192
193
193
192
192
192
192
192
192
192
193
193
193
192
192
193
194
194
194
194
194
194
194
195
195
194
194
194
195
195
195
195
194
195
196
195
196
197
196
196
196
196
197
197
197
197
196
197
197
197
198
198
198
198
198
199
199
200
200
200
199
201
201
202
202
203
202
203
203
205
205
205
205
206
208
209
210
211
212
211
212
212
214
215
216
217
218
219
220
221
222
224
225
226
227
228
230
231
233
233
234
236
237
239
241
241
243
244
247
248
251
251
252
255
256
258
260
262
264
265
266
268
270
272
273
274
276
277
279
281
283
285
286
287
289
291
292
295
295
296
297
298
300
302
302
302
303
304
305
305
305
306
306
305
306
306
306
307
306
305
305
304
304
304
302
302
300
299
299
298
297
295
294
293
291
290
288
287
285
282
280
278
277
275
274
271
269
267
266
264
263
261
259
257
255
254
253
251
250
248
246
246
245
244
243
242
240
239
238
238
236
236
234
233
232
232
231
230
230
228
227
226
226
225
224
224
222
222
221
221
220
220
219
219
218
218
219
218
218
217
217
217
217
217
216
216
215
214
214
214
214
213
212
212
212
211
211
211
210
210
209
208
209
209
208
208
207
208
207
208
208
208
207
207
207
206
207
206
206
205
205
205
205
204
205
204
203
203
203
203
204
203
203
203
203
203
204
204
203
203
203
202
203
204
204
203
203
203
202
203
203
203
203
202
202
202
202
202
202
202
202
202
201
202
201
200
200
201
200
201
201
200
200
199
199
200
200
199
200
199
199
200
200
200
199
200
199
199
199
200
200
200
198
199
199
199
200
199
198
198
197
197
198
198
197
197
197
196
197
197
197
197
197
198
197
199
199
199
199
199
198
199
200
199
199
199
198
198
198
198
198
197
197
197
197
197
197
197
196
196
196
196
196
197
197
196
195
196
196
197
196
196
196
195
196
196
196
197
196
196
197
197
197
198
198
197
197
197
197
197
198
197
197
197
197
198
198
198
198
197
196
196
197
196
196
196
195
195
195
196
195
196
195
195
196
196
197
196
197
197
196
197
198
198
198
199
198
198
199
199
199
200
199
200
199
200
200
201
200
200
199
200
199
200
199
198
198
197
197
197
197
197
195
196
195
196
197
197
196
196
196
197
197
197
197
197
197
196
198
198
198
197
198
198
198
197
198
198
198
196
196
197
197
196
197
196
197
197
197
198
198
198
197
197
198
198
198
198
198
197
196
197
197
197
196
196
195
195
195
195
195
194
194
194
194
194
194
195
195
195
194
194
195
196
196
195
194
195
195
195
196
196
195
196
196
196
197
197
197
197
196
197
197
196
196
196
195
195
195
195
195
195
194
194
194
195
196
196
195
195
195
195
195
196
195
196
196
195
196
196
196
196
195
195
194
194
195
194
193
193
192
192
192
193
193
192
191
192
192
192
193
192
192
193
193
194
194
194
194
194
194
195
195
195
195
195
195
194
195
196
196
196
196
197
197
198
199
199
199
199
199
200
200
201
201
201
201
201
202
203
203
203
202
202
203
204
204
205
205
205
205
205
207
207
207
206
207
206
207
208
208
208
207
208
208
208
208
208
209
207
207
207
208
207
207
207
206
206
205
206
206
205
204
204
205
205
204
204
203
203
202
203
203
202
203
202
202
202
202
203
203
202
202
202
202
203
203
204
204
203
202
203
204
203
203
203
202
201
202
202
202
202
201
201
201
202
201
201
200
199
199
198
199
198
198
197
197
197
196
197
196
195
195
194
194
195
195
194
193
193
193
193
194
194
194
193
193
193
194
194
194
193
193
193
192
193
193
193
193
192
192
192
193
192
193
192
193
193
193
193
194
195
194
195
196
196
197
198
197
197
197
197
197
197
196
196
195
194
194
194
193
193
192
191
191
191
191
190
190
189
189
190
191
191
192
191
192
192
192
193
194
193
194
194
194
195
196
196
196
196
196
196
197
197
197
196
196
197
197
198
198
198
198
198
198
199
199
199
199
199
199
200
201
202
204
205
206
208
210
213
216
218
221
224
228
232
237
240
244
247
251
255
259
262
265
267
270
272
275
279
281
284
286
288
292
295
297
300
303
306
309
313
317
320
323
326
328
331
333
335
336
337
336
337
337
337
336
334
332
329
325
323
319
316
312
308
303
298
295
290
286
282
277
274
271
267
264
261
256
252
248
245
243
239
236
231
229
225
223
221
218
216
213
210
208
207
206
205
204
203
203
203
204
204
205
206
207
208
210
212
214
215
216
218
220
222
224
225
226
227
227
227
228
228
227
225
225
223
221
221
219
216
215
212
210
209
207
205
203
201
199
198
197
196
195
194
194
194
195
195
195
196
197
198
198
200
201
202
201
201
202
202
202
203
203
201
202
201
200
200
200
198
197
196
196
195
195
194
193
193
192
193
193
193
193
192
191
192
191
192
191
191
191
191
191
192
193
192
192
191
191
191
192
192
192
192
192
192
193
193
193
193
192
193
193
193
193
193
193
192
192
192
192
193
192
192
192
192
191
192
192
191
190
190
190
191
190
190
189
188
188
188
188
188
187
186
185
185
185
185
185
185
184
184
184
185
186
185
185
184
183
184
183
184
183
183
183
183
183
184
184
184
183
182
183
183
184
184
183
183
183
184
184
185
184
184
184
184
184
185
185
184
184
184
184
185
185
185
185
184
184
185
185
185
186
185
185
185
185
186
185
184
184
183
183
184
184
184
183
183
183
184
185
184
185
184
184
185
185
186
186
186
187
187
188
189
189
189
189
189
189
190
190
191
191
190
191
191
191
191
192
192
192
193
194
195
196
197
198
198
198
199
201
203
203
203
204
206
207
209
210
211
211
212
213
215
216
217
218
218
219
220
221
223
224
225
225
227
228
229
231
232
234
236
238
240
242
245
247
249
250
253
256
258
260
262
265
267
269
271
274
275
276
278
280
282
284
286
286
288
288
289
291
292
292
293
294
295
296
297
298
298
298
299
300
301
302
303
304
303
305
305
306
306
306
305
305
306
306
305
306
305
304
302
301
301
299
297
295
293
291
289
287
285
282
280
277
275
273
271
269
267
264
262
261
260
258
257
255
254
253
252
252
251
249
249
247
246
246
244
244
242
241
240
239
238
237
235
234
233
231
231
230
228
227
226
225
224
224
223
222
221
221
220
220
219
219
219
218
217
216
216
216
216
215
214
213
214
214
214
213
212
212
213
213
213
214
214
213
213
213
213
213
213
213
212
213
212
213
213
212
211
211
210
210
210
209
208
207
207
206
205
205
205
204
203
203
202
203
202
202
202
201
201
201
202
201
201
201
201
201
202
203
202
203
202
203
203
203
205
205
205
205
204
205
206
206
206
206
205
204
204
204
204
203
202
201
200
201
200
199
199
197
198
197
198
198
198
198
198
198
199
199
200
199
200
199
199
200
201
201
201
201
202
202
202
202
202
202
201
200
200
201
201
200
199
198
197
198
197
196
196
196
195
196
196
197
197
198
198
198
199
199
199
200
200
200
201
201
202
202
202
201
201
201
201
202
201
201
200
200
200
200
200
200
200
200
199
200
201
202
201
202
202
204
204
205
205
205
205
205
206
207
207
207
206
206
207
207
207
207
206
205
205
205
205
206
206
205
205
205
206
207
208
207
207
207
208
209
210
211
210
211
212
213
213
214
214
214
215
215
216
215
215
216
215
215
215
216
216
216
217
216
217
217
218
218
218
218
217
219
219
220
220
220
220
220
220
221
221
220
220
220
219
218
218
219
217
217
216
215
215
214
214
213
212
212
212
213
213
213
213
213
213
215
215
216
215
215
215
215
216
216
217
218
218
218
220
220
221
221
221
220
220
221
221
220
220
220
220
219
218
218
218
216
214
213
211
211
210
209
207
206
206
205
205
205
204
203
204
203
203
204
203
203
204
203
204
205
206
206
206
207
208
208
209
210
209
209
208
208
209
208
209
208
207
206
205
205
205
204
203
203
203
202
203
203
203
203
203
203
204
205
205
205
206
207
207
208
208
208
208
208
208
208
208
208
208
208
208
206
207
207
207
207
207
206
207
207
208
208
207
207
207
208
209
210
210
209
211
210
210
211
211
210
210
209
209
209
209
209
209
209
208
209
210
209
209
208
209
209
210
211
212
212
212
213
215
216
218
219
220
222
224
226
229
230
233
235
237
240
243
247
250
254
257
261
265
269
274
278
282
287
292
296
301
306
310
313
316
320
325
328
332
334
337
341
344
346
350
353
355
357
359
362
365
367
368
369
370
371
372
373
373
372
370
368
367
365
363
359
355
350
347
343
339
334
329
324
318
314
309
305
300
295
290
285
281
277
272
268
264
259
256
252
250
246
243
239
235
232
228
226
223
219
217
214
212
211
210
208
206
204
203
203
203
204
203
203
204
206
208
208
211
212
213
214
216
218
220
222
223
224
226
226
227
228
228
228
228
227
227
226
225
224
223
222
221
220
219
217
217
215
214
214
213
213
213
212
211
211
212
212
213
213
213
213
214
214
215
215
215
215
215
217
217
217
217
217
217
218
217
218
217
216
216
215
215
215
215
215
213
213
213
212
212
212
211
211
210
210
210
211
210
211
210
210
210
210
211
210
210
209
210
210
210
211
211
212
211
212
211
212
212
211
211
210
211
211
211
211
210
209
210
210
210
210
210
209
208
208
208
208
208
208
207
207
207
207
208
208
207
207
206
207
207
206
207
205
205
204
205
204
204
203
203
202
202
202
202
202
202
202
203
203
204
205
205
204
205
206
206
207
207
207
207
206
206
207
207
207
206
206
206
206
206
207
207
206
206
205
206
206
206
205
206
206
206
206
206
206
205
205
205
206
207
206
206
206
206
206
207
206
206
206
206
206
206
206
207
207
207
207
206
207
208
209
209
208
208
208
208
209
209
208
208
209
209
210
210
210
210
210
210
211
213
214
214
214
214
215
216
217
218
219
219
220
221
221
223
223
224
224
225
226
227
228
228
229
228
229
230
231
232
233
234
234
236
237
238
239
240
241
243
245
247
249
250
252
253
254
257
259
261
263
264
265
268
270
271
273
275
276
278
280
282
284
286
288
289
292
294
296
298
300
301
302
304
305
307
308
310
311
312
314
315
317
317
317
317
318
319
320
321
321
321
320
322
321
322
323
322
321
321
322
321
320
320
319
317
316
317
316
314
312
312
310
308
307
306
304
302
300
299
297
296
294
292
290
288
286
286
284
282
280
278
276
274
273
272
270
268
266
264
263
262
260
258
256
254
253
252
250
248
247
246
244
243
242
241
241
240
238
238
238
238
237
237
235
235
235
234
234
233
232
232
231
231
231
230
230
229
228
227
228
228
228
227
227
226
225
226
226
226
225
225
225
225
225
225
225
224
223
223
223
223
224
223
222
222
222
221
222
221
221
220
219
219
220
219
219
219
219
218
219
219
218
219
218
218
217
218
217
218
217
216
216
216
216
216
216
216
215
215
216
217
216
216
216
216
217
217
217
217
217
216
217
217
217
217
217
217
216
216
217
218
218
218
218
217
218
218
218
218
217
217
217
217
217
218
217
216
216
215
215
216
215
215
214
214
213
214
214
214
214
213
213
213
215
215
215
214
214
214
215
215
216
215
215
215
215
216
216
216
215
215
215
215
215
216
216
217
216
216
216
218
217
217
218
217
217
217
218
219
218
218
218
218
219
219
218
218
217
217
218
218
218
218
217
217
217
217
217
217
217
217
216
216
217
218
217
216
217
218
218
218
218
218
217
217
217
217
218
217
218
218
217
218
218
218
218
217
217
217
218
218
218
218
218
219
219
219
220
220
220
219
220
220
220
220
220
220
220
220
220
220
221
220
219
219
219
220
220
220
219
219
218
220
220
220
220
220
220
220
221
221
222
222
222
222
222
222
223
223
222
221
221
221
221
222
221
221
221
221
221
221
221
221
221
221
221
222
222
223
223
223
223
224
225
225
226
227
227
227
229
230
231
231
231
230
232
232
232
232
232
231
231
232
231
231
231
230
231
231
231
231
232
232
231
231
232
232
232
233
233
233
234
234
235
235
235
235
234
234
234
234
235
234
233
232
232
232
232
231
230
230
230
229
230
230
230
229
229
229
230
230
230
230
230
230
230
231
232
231
232
232
232
232
232
233
232
231
231
231
232
232
232
231
231
229
229
229
228
228
227
226
226
225
225
225
224
223
222
222
222
222
222
222
221
220
220
221
221
221
220
220
220
219
220
221
220
219
219
220
220
221
221
222
221
221
222
222
223
222
222
222
222
222
223
223
223
223
223
222
222
222
222
221
221
220
220
220
221
221
220
218
219
219
219
219
219
219
218
218
218
218
219
219
218
218
218
218
219
219
218
218
218
218
218
219
219
219
219
219
220
220
221
221
221
221
221
221
221
222
222
221
221
221
223
223
223
223
224
224
225
226
226
226
227
227
227
228
229
229
229
230
230
231
231
232
232
233
233
236
237
240
242
243
246
248
251
255
259
263
266
270
274
279
284
288
292
296
299
304
308
313
317
319
322
325
329
333
336
339
342
345
347
351
354
358
360
364
366
369
372
374
376
377
378
378
377
378
376
375
373
370
367
364
360
357
352
346
341
337
331
326
320
315
310
304
299
295
291
287
282
278
275
271
269
265
263
259
256
254
252
250
249
247
245
243
242
241
240
240
239
238
238
238
238
239
239
240
241
242
244
247
247
249
251
252
253
256
257
258
260
261
262
263
263
264
264
263
262
262
262
260
258
257
254
252
250
248
246
244
241
239
237
235
233
232
231
229
227
227
227
227
227
227
226
226
227
227
228
227
227
227
227
228
227
228
228
228
227
228
228
228
228
228
228
227
227
227
228
227
227
226
226
226
226
226
226
225
225
225
225
226
225
225
224
223
223
224
224
224
223
222
223
222
222
223
222
221
221
222
222
222
222
222
221
221
221
221
221
221
221
221
220
221
221
221
221
221
220
220
221
221
222
221
220
220
220
219
220
220
219
218
218
218
218
218
217
217
216
216
217
217
217
217
216
216
216
216
216
216
215
215
215
215
216
216
216
216
216
216
216
217
217
217
216
217
217
217
218
218
217
217
216
216
217
216
216
215
216
216
215
216
217
216
216
215
216
216
216
216
216
215
215
215
216
216
215
215
215
215
215
216
216
215
215
215
215
216
216
216
216
217
216
217
218
218
218
218
218
218
219
219
220
220
220
220
220
220
221
221
221
221
221
221
222
223
223
223
223
224
224
226
227
227
227
228
228
229
230
231
231
232
232
234
234
236
237
237
238
238
240
241
242
243
243
244
245
246
248
249
250
251
251
253
255
257
258
259
260
262
264
265
267
269
270
272
274
276
278
280
281
283
284
287
289
291
293
294
296
297
299
302
303
305
306
307
310
311
313
315
317
318
318
321
323
323
325
326
327
328
330
331
332
333
333
334
334
335
336
336
336
335
336
336
336
336
335
335
333
333
332
332
331
330
328
327
326
325
324
322
320
318
317
315
314
313
311
309
307
305
305
303
301
299
297
295
293
292
290
289
286
284
282
281
280
278
277
274
273
272
271
270
269
267
265
264
263
262
262
261
260
258
257
256
257
256
255
253
252
251
251
250
250
249
247
246
246
246
245
245
244
242
243
242
242
241
240
240
238
238
239
238
238
238
237
236
236
236
236
236
235
235
234
234
234
234
233
233
232
233
234
233
233
233
233
232
232
232
233
232
232
231
231
231
231
231
231
231
230
230
230
230
230
230
229
228
229
229
228
228
228
227
227
227
228
229
228
227
227
227
227
228
228
228
227
227
227
228
227
227
226
226
225
226
227
226
226
225
225
226
226
226
226
226
225
225
225
226
226
225
225
226
225
225
225
226
225
225
224
224
225
225
226
225
225
224
224
225
225
225
224
224
224
224
224
224
224
223
224
223
224
224
224
223
223
224
223
224
224
224
223
224
223
224
224
224
224
224
224
224
224
226
225
225
224
225
225
225
226
226
226
225
226
225
226
226
227
226
226
227
227
227
228
227
228
227
227
228
228
228
228
228
227
228
228
229
228
227
228
228
228
228
229
228
228
227
227
228
228
228
227
227
227
227
228
227
227
226
227
226
227
227
228
227
227
227
227
227
227
227
228
227
227
227
227
228
228
227
227
228
228
228
228
228
228
227
228
229
229
229
228
228
228
229
229
229
229
229
229
230
230
230
230
230
230
229
229
230
230
230
229
229
229
229
230
230
229
229
230
230
230
231
231
231
230
230
230
230
230
230
230
229
229
230
229
230
230
229
229
229
229
229
230
229
229
228
228
228
229
229
228
227
227
227
228
227
227
227
227
226
228
228
227
227
227
227
227
227
228
227
227
227
227
227
227
227
227
227
226
227
227
228
228
228
227
227
227
229
229
229
228
228
228
228
229
229
228
228
228
229
229
229
229
229
228
229
229
229
228
229
228
228
228
228
228
229
228
227
227
227
227
227
228
227
227
227
227
227
228
228
227
228
227
227
228
229
228
228
227
228
229
229
229
229
229
228
228
230
229
229
230
229
229
229
229
230
229
229
228
229
229
229
230
229
229
228
229
229
228
228
228
229
228
229
230
230
230
230
230
231
232
232
233
233
233
233
234
234
235
235
236
236
236
237
238
237
238
237
238
237
239
239
239
239
238
239
240
240
240
240
241
240
240
241
243
244
243
243
243
244
244
246
245
245
244
244
244
244
244
243
242
241
241
241
241
240
239
239
238
238
238
237
238
237
237
236
236
236
236
236
236
235
235
235
235
236
236
236
236
236
237
237
238
238
238
238
238
238
239
239
239
238
239
238
239
238
237
237
236
236
235
234
234
233
231
230
229
229
230
228
228
227
226
227
227
227
226
226
225
226
227
227
227
228
227
227
227
228
229
229
228
228
228
228
229
230
229
229
228
229
230
230
231
230
230
230
230
231
231
231
231
230
230
230
230
231
230
230
230
230
231
231
231
231
230
231
231
231
232
232
231
231
231
231
231
232
231
231
231
231
231
232
232
231
231
231
231
231
232
232
231
231
232
233
233
233
233
233
233
234
234
235
235
234
234
234
233
234
234
234
233
233
233
232
233
232
232
231
231
231
232
232
233
231
232
233
234
236
237
238
240
241
244
246
249
252
255
258
261
265
270
274
278
281
285
289
293
297
301
305
307
311
315
318
321
324
327
331
333
337
340
344
347
350
354
356
360
364
366
370
371
374
375
376
378
378
379
378
377
376
374
372
369
365
360
356
352
348
343
338
332
326
321
316
311
306
300
295
291
288
284
281
278
275
270
268
265
263
260
258
255
253
252
251
250
249
247
246
245
245
245
245
245
244
244
245
246
248
250
251
252
253
255
257
259
261
263
264
266
269
270
272
273
272
272
271
272
272
270
269
267
265
263
261
259
257
253
252
249
246
245
244
241
239
237
235
234
233
233
232
232
230
230
230
230
230
229
228
228
228
228
228
228
227
226
227
226
226
227
227
226
226
226
227
227
228
227
227
228
228
229
229
230
230
229
229
229
229
230
229
228
227
227
227
227
226
226
224
224
224
223
224
223
223
221
222
222
222
221
221
220
219
220
219
219
219
219
219
218
219
219
219
219
219
219
219
219
219
219
219
219
218
219
219
220
220
220
220
219
220
220
221
220
220
220
219
219
219
218
218
218
216
216
216
215
215
214
213
212
212
212
211
211
210
209
210
209
209
209
209
209
208
208
209
209
210
209
209
209
209
210
210
211
210
210
211
211
212
212
213
213
212
213
214
215
215
215
215
215
215
215
216
216
215
214
213
214
213
213
212
212
211
211
210
211
210
210
209
209
209
210
210
210
210
209
208
208
209
209
208
208
208
208
208
209
209
209
209
210
209
211
211
212
211
212
212
213
213
214
215
215
215
216
217
218
219
218
218
219
219
219
220
220
220
220
220
221
222
223
223
223
224
225
226
228
229
229
231
232
234
236
237
239
240
241
243
244
245
247
248
248
250
251
254
255
256
257
257
259
260
262
264
265
267
267
270
272
274
276
277
279
281
281
284
286
288
290
291
292
295
298
300
302
303
304
306
307
310
311
312
313
314
316
318
320
321
322
322
322
323
324
324
324
324
323
323
324
323
323
321
320
319
318
317
316
314
313
312
310
310
309
308
307
305
303
302
301
301
299
298
297
296
295
293
292
291
289
287
286
284
284
282
280
278
275
273
272
270
268
265
263
261
260
259
257
256
254
253
252
251
250
249
248
248
247
246
246
245
245
244
244
242
242
242
242
242
241
240
240
239
239
239
238
238
236
236
235
235
234
235
233
232
233
232
232
232
230
230
229
229
228
228
228
227
227
226
227
227
226
226
225
226
225
225
226
225
224
223
224
223
225
226
226
225
225
225
226
225
226
227
226
226
225
226
226
226
226
225
224
225
224
224
223
222
220
220
219
219
218
218
217
217
217
217
217
217
217
217
216
217
218
218
218
218
218
218
218
219
219
218
218
217
216
216
217
216
216
216
215
215
216
216
216
216
215
215
215
215
215
215
214
213
213
214
214
214
214
213
212
213
213
213
214
213
212
212
212
213
213
212
212
212
212
212
212
212
212
212
211
212
212
212
211
211
210
210
210
211
210
210
211
210
209
210
210
211
210
209
210
211
211
211
211
211
210
210
210
210
211
210
210
209
209
209
210
209
209
208
209
210
210
210
210
211
209
210
210
210
211
210
210
211
211
211
212
212
211
210
210
210
210
210
210
211
211
211
212
212
213
213
212
213
212
213
214
214
213
213
214
214
215
216
216
216
216
216
217
217
218
218
218
218
218
219
219
220
220
220
220
219
220
220
220
219
218
218
219
219
220
219
218
219
219
218
220
220
219
220
220
221
221
222
222
222
221
221
221
221
222
221
221
221
222
221
222
222
221
221
221
221
221
221
221
221
220
220
220
220
220
220
219
218
218
218
218
218
217
216
217
217
218
217
217
216
216
215
215
216
216
216
216
216
216
216
216
217
217
217
216
216
217
217
217
216
215
215
214
214
213
213
212
211
210
210
210
209
209
208
208
207
207
207
207
206
206
205
206
206
206
205
204
204
204
204
204
203
202
202
202
203
204
204
204
204
203
204
205
205
205
205
205
204
204
205
205
205
204
204
204
205
205
206
206
205
205
204
205
205
206
206
205
205
205
206
207
206
205
205
204
204
205
204
204
204
203
202
202
201
201
201
200
200
200
200
201
201
200
201
200
201
201
202
202
202
203
203
204
204
204
205
203
204
204
204
205
204
204
204
203
204
204
205
205
205
206
207
208
209
210
211
211
211
212
214
216
218
219
220
221
223
226
227
229
230
232
235
238
241
245
248
252
255
259
264
268
274
277
281
286
291
295
299
303
307
310
314
318
321
324
326
329
331
335
337
340
343
345
346
349
351
352
353
354
355
355
355
354
354
353
351
348
346
343
340
338
333
329
325
321
317
313
309
304
299
294
291
286
282
279
274
269
266
262
259
255
252
248
245
241
238
236
232
229
225
222
218
215
213
209
207
205
202
199
198
197
195
194
192
191
191
193
194
194
195
195
197
199
201
203
205
206
208
209
212
213
215
216
217
218
219
219
219
220
219
218
218
217
216
215
214
211
209
208
207
206
205
204
203
203
202
202
202
202
201
201
201
202
202
203
203
203
203
204
204
205
204
204
204
204
204
205
205
204
203
202
202
202
202
201
202
201
201
201
202
202
202
202
202
202
203
204
204
204
203
202
203
203
204
204
204
203
202
201
201
201
200
199
198
198
198
198
198
198
197
196
196
196
196
197
196
195
195
195
195
196
195
196
195
195
196
197
198
198
197
196
197
197
197
196
197
196
196
196
197
196
196
195
194
194
194
194
194
193
192
192
191
192
192
192
191
190
190
190
191
191
191
190
190
191
191
191
192
192
191
191
192
191
192
192
192
191
191
190
190
190
190
189
188
188
189
189
189
189
188
187
187
186
186
187
186
187
186
187
187
188
188
187
187
186
187
187
188
188
188
187
188
188
188
188
188
187
187
188
188
189
189
189
190
190
191
191
192
191
191
191
191
191
192
192
192
192
192
192
192
193
193
192
192
192
192
194
194
194
195
196
196
196
198
198
199
198
199
200
201
203
202
203
204
205
206
208
208
209
210
210
211
211
213
214
215
216
216
217
219
221
221
222
223
224
225
227
228
230
231
232
234
236
238
239
240
241
243
245
247
249
251
252
253
256
257
260
263
265
265
268
269
271
273
275
277
279
280
282
284
286
286
287
288
288
290
291
292
292
293
293
293
295
295
296
295
296
295
295
296
297
296
297
296
296
297
298
297
296
295
294
294
294
293
292
291
288
287
285
284
281
280
277
274
272
270
268
266
263
261
258
256
254
252
251
248
246
245
244
242
241
240
238
237
237
237
236
236
236
234
233
233
232
231
230
229
227
225
224
224
223
222
220
218
217
215
214
213
211
208
207
207
206
206
205
204
204
202
202
201
202
201
201
201
200
200
200
200
200
198
198
197
197
197
196
195
194
194
194
193
194
194
193
193
194
194
194
194
194
193
193
193
193
193
193
193
192
192
191
192
191
191
191
191
190
191
190
190
189
189
189
189
190
191
191
190
190
190
190
190
190
190
189
188
188
188
188
188
188
188
186
186
185
184
184
183
182
182
182
182
182
181
181
180
180
181
181
182
183
184
184
185
186
186
187
187
186
187
187
187
188
188
187
186
185
186
186
185
184
183
182
182
182
182
181
181
180
180
181
181
181
181
182
182
181
182
182
181
181
182
181
182
182
184
184
184
184
184
184
184
185
184
184
184
184
185
186
185
186
184
184
184
184
184
184
184
183
182
182
182
183
183
182
182
182
182
183
183
183
182
181
180
180
181
180
180
180
180
180
181
181
181
181
182
182
183
184
185
186
186
186
187
187
187
187
187
187
185
185
186
185
185
185
184
184
184
184
185
184
183
181
182
182
181
182
181
181
181
181
181
181
181
179
179
179
180
180
180
180
179
179
179
180
181
182
182
182
183
184
184
185
185
185
185
185
186
186
185
186
185
183
184
183
183
182
182
181
181
179
180
179
179
179
179
179
180
181
181
181
181
181
181
182
182
184
183
183
184
184
184
185
184
183
183
184
184
184
184
185
185
184
185
185
185
186
186
186
186
187
187
188
188
188
188
188
189
190
190
190
190
190
190
191
191
191
190
189
189
189
190
190
190
189
189
189
190
190
189
189
189
188
188
189
188
188
188
187
186
185
185
185
184
184
183
183
184
184
185
185
185
183
184
185
185
185
186
186
186
186
186
187
187
187
187
187
189
189
190
189
188
187
187
186
187
186
185
184
182
182
181
181
180
179
178
177
177
176
176
175
174
173
172
172
173
172
172
171
170
171
172
172
171
171
171
171
172
172
173
174
174
174
174
175
176
177
177
177
177
178
177
177
177
177
176
176
176
177
176
175
175
173
173
173
173
173
172
172
171
171
171
170
170
170
170
170
171
172
173
173
172
171
171
172
172
172
171
170
171
171
170
170
170
169
168
169
169
169
170
169
169
168
168
169
170
170
170
170
171
172
173
174
174
174
174
174
174
174
175
175
174
175
175
176
176
176
176
176
176
177
178
178
178
180
180
181
183
184
186
187
189
190
194
197
200
203
206
210
212
217
221
226
231
235
241
246
251
257
262
267
270
274
279
284
289
293
297
300
304
308
312
315
317
320
322
324
328
330
333
335
337
338
339
342
343
343
342
341
339
338
336
334
331
327
323
319
315
311
307
302
297
291
286
282
276
271
265
260
255
251
247
243
239
234
230
226
223
219
216
212
209
205
201
199
196
193
190
188
186
184
183
183
180
179
177
176
175
175
174
174
173
173
174
174
175
175
175
176
177
178
179
180
182
182
183
184
186
187
188
188
187
187
186
185
185
184
182
180
178
177
175
174
172
170
168
167
166
165
164
163
162
161
161
161
162
162
162
162
162
162
164
164
164
164
164
164
165
166
166
166
165
165
165
165
165
165
165
164
163
163
163
163
163
163
163
163
163
163
164
164
164
163
163
163
164
165
164
164
163
163
164
164
163
163
162
163
162
162
163
162
161
160
159
160
159
160
159
158
158
158
158
158
158
157
157
157
158
158
158
157
157
157
157
157
157
157
156
156
155
155
155
156
155
155
154
154
154
154
154
154
154
153
154
153
154
154
154
154
153
153
153
154
154
153
153
153
153
154
153
152
152
150
151
151
150
150
149
148
148
148
148
148
148
148
147
148
147
148
149
148
149
148
148
150
150
150
150
149
149
149
150
150
150
149
149
149
149
149
149
149
149
149
149
149
149
149
149
150
149
149
150
150
151
151
150
151
152
152
152
152
152
150
151
151
151
151
150
150
149
150
150
151
151
151
152
152
153
154
155
155
155
156
156
158
159
159
159
160
161
161
161
162
162
163
163
163
163
165
166
166
166
167
168
168
169
170
170
171
172
173
175
176
178
178
179
181
182
184
186
187
189
190
191
194
197
198
200
201
203
205
207
209
211
212
213
215
218
219
222
223
225
227
228
230
233
233
235
236
237
240
243
244
247
249
250
252
254
257
259
261
262
263
265
267
268
269
270
270
270
270
271
272
271
270
270
269
268
267
267
266
265
263
262
262
261
260
259
257
256
255
254
253
252
249
248
246
245
244
242
240
238
236
233
232
230
228
226
224
222
221
219
218
216
214
213
211
210
209
207
206
204
202
201
200
199
197
195
193
192
191
189
188
187
185
183
182
182
181
180
179
178
177
176
177
176
176
175
174
173
173
173
173
173
171
171
171
171
171
171
169
168
166
165
166
165
164
163
163
162
161
162
161
160
159
159
159
158
159
159
159
159
158
158
158
159
158
158
157
157
157
157
158
158
157
157
157
158
158
157
158
157
157
157
156
156
156
157
156
156
156
156
156
155
155
155
154
154
155
154
153
153
152
152
153
153
152
152
151
152
152
151
152
151
150
150
150
151
151
151
151
151
151
151
151
151
152
151
152
152
152
153
153
154
153
154
154
155
156
157
156
155
154
154
153
154
154
153
153
152
153
153
152
152
152
152
150
151
151
151
150
150
150
150
150
151
150
150
149
150
150
150
150
149
149
149
149
149
150
150
151
150
150
151
151
151
151
151
151
151
151
152
152
152
152
152
153
153
153
154
154
154
153
154
154
155
155
154
154
155
155
155
155
155
155
155
155
156
155
155
155
155
154
154
154
154
154
154
154
153
153
153
154
153
152
151
151
152
152
152
152
151
151
152
152
152
152
151
151
151
151
150
151
151
151
151
151
152
152
153
153
152
152
152
152
152
153
153
153
153
153
153
155
155
155
155
155
156
157
157
157
157
158
158
159
160
160
161
161
161
162
162
162
162
162
162
162
162
163
162
162
162
161
161
161
162
162
161
161
160
161
161
161
161
162
161
161
162
162
163
162
162
161
161
162
162
162
161
161
160
161
161
161
160
160
159
159
159
159
159
159
158
157
157
157
157
158
157
156
157
156
157
158
158
158
158
158
159
159
159
160
160
160
161
161
161
161
161
160
160
160
160
161
160
159
159
159
159
160
159
158
157
157
157
157
157
156
156
155
155
155
154
153
153
152
150
151
150
149
149
148
147
147
146
146
145
145
145
144
145
145
145
146
146
145
144
145
146
147
147
147
147
148
148
148
149
149
149
148
149
149
149
150
149
149
148
149
149
149
149
149
149
149
149
148
149
149
148
147
148
148
148
148
149
148
147
147
148
148
149
148
148
147
147
148
147
147
146
146
146
146
146
147
146
145
146
146
147
147
147
147
147
146
146
147
148
147
148
148
148
148
149
149
150
151
151
152
154
154
155
155
155
155
155
156
157
157
158
158
159
161
162
165
166
167
169
171
174
178
180
184
187
191
195
200
205
210
214
219
222
226
231
237
241
245
249
254
258
263
268
271
276
279
283
287
292
296
299
302
305
309
312
316
318
319
320
321
323
322
322
321
318
316
313
310
307
303
298
292
287
282
276
271
265
259
253
248
242
238
233
228
222
218
213
209
206
202
198
195
191
188
186
184
182
179
177
176
175
174
173
172
172
170
169
170
169
169
169
169
170
170
171
172
173
173
174
175
176
178
179
180
181
181
181
183
183
184
184
183
183
182
182
181
180
177
176
175
173
172
170
168
166
164
162
160
159
158
155
153
152
152
150
150
150
149
148
147
148
148
149
149
148
148
148
149
149
149
149
149
148
149
149
150
149
148
148
148
147
148
148
148
146
146
145
146
146
146
145
144
144
144
145
144
144
144
143
144
144
145
145
144
144
144
144
144
145
145
145
145
144
144
144
145
145
145
144
144
145
145
144
144
144
143
143
143
143
143
142
141
141
141
141
141
141
139
139
139
140
140
140
140
140
138
138
139
140
139
139
139
139
139
140
139
139
139
138
138
139
140
139
139
139
138
138
138
139
138
138
137
136
136
137
137
136
135
135
135
136
136
135
135
135
134
135
136
136
136
136
136
136
136
137
137
138
137
137
137
138
138
138
138
138
136
136
137
137
136
136
136
135
135
136
135
136
135
135
135
136
136
136
136
136
136
136
136
137
137
137
137
137
138
139
138
138
138
139
139
139
140
140
140
140
139
140
141
142
142
141
142
142
143
143
144
144
145
145
145
146
148
148
149
149
149
150
152
152
153
153
154
154
155
156
158
158
158
159
161
162
163
165
166
167
168
169
171
173
175
176
177
179
180
182
185
186
187
189
190
193
195
197
200
201
203
204
207
209
210
212
214
215
218
219
221
223
224
226
228
229
232
234
236
237
238
239
241
243
244
246
247
248
250
251
254
254
255
255
257
257
258
258
259
258
258
258
258
258
258
256
255
254
253
253
253
251
249
248
246
244
243
242
240
237
235
234
233
232
229
227
225
223
221
220
219
217
215
212
210
209
208
206
204
202
200
198
197
196
194
191
190
188
186
186
184
183
181
180
179
178
177
176
175
173
173
171
170
170
169
168
167
166
166
165
164
163
163
161
161
160
160
160
159
158
158
158
157
158
158
156
156
155
155
155
155
155
154
153
153
154
154
153
153
152
151
151
151
150
150
149
148
148
148
147
147
146
146
146
146
145
146
145
145
145
144
144
144
145
145
145
144
144
145
144
144
144
144
143
143
143
144
144
143
143
143
144
144
145
144
144
144
144
144
145
145
145
145
145
145
144
145
145
145
144
143
143
143
144
143
143
142
141
141
142
142
142
141
141
141
141
141
142
141
141
140
141
141
141
141
140
140
140
139
140
140
139
139
139
139
139
139
140
139
139
138
139
138
139
139
138
138
139
138
139
139
138
138
138
138
138
140
139
139
139
139
139
139
140
139
139
139
138
138
140
139
139
139
138
138
139
139
140
139
138
138
138
138
139
138
138
137
138
138
138
138
138
138
138
138
138
140
139
140
139
138
139
140
140
140
139
139
139
139
140
140
140
139
140
140
140
140
141
140
139
139
139
139
140
140
140
140
139
140
139
140
140
140
140
140
140
141
141
141
140
140
140
140
141
141
140
141
140
140
141
141
141
141
141
141
142
142
141
142
141
141
142
142
143
142
143
142
142
142
142
143
143
142
142
142
142
143
142
142
142
142
142
142
143
143
142
142
141
141
142
142
142
141
141
142
141
143
142
143
143
142
142
142
142
142
142
142
142
141
142
143
142
141
141
141
142
142
142
141
141
141
141
141
142
142
142
141
142
141
142
142
142
141
141
141
142
142
142
142
142
140
140
141
142
142
141
140
140
140
140
141
140
140
139
139
140
140
141
140
140
139
141
141
141
141
140
140
140
140
141
141
142
140
141
141
141
141
142
141
140
141
140
141
141
141
141
140
140
140
141
141
141
140
141
141
141
142
141
141
141
141
141
141
141
141
141
141
140
141
142
142
141
142
141
142
142
142
143
143
143
142
142
142
143
143
142
142
142
142
142
142
142
142
141
141
141
141
142
141
141
141
141
141
142
142
143
143
143
144
145
145
146
146
146
147
148
149
149
150
150
150
151
152
152
153
154
153
154
154
155
155
155
154
155
155
155
155
156
156
154
155
154
155
154
154
154
154
153
154
155
154
154
154
154
154
155
155
156
155
154
154
155
155
154
154
154
154
153
153
153
154
153
153
152
152
153
153
153
153
152
152
152
153
152
152
152
152
152
152
153
154
153
153
153
153
154
154
154
154
153
153
153
153
154
154
153
152
152
151
151
151
150
149
147
147
147
147
146
145
144
144
144
144
143
143
142
142
142
142
142
143
142
142
143
143
143
143
144
143
143
143
143
144
144
144
144
144
144
144
144
144
144
144
145
144
145
145
145
145
145
144
144
144
145
145
144
144
144
144
144
145
144
143
144
144
144
145
144
144
144
144
143
144
144
144
143
143
143
143
144
144
144
143
143
143
144
144
145
144
144
144
145
145
145
145
145
144
145
145
145
146
146
145
145
145
145
146
146
145
145
145
145
146
146
146
147
146
146
146
146
147
147
147
147
148
148
150
151
152
153
154
156
159
161
164
166
168
172
175
179
184
188
191
196
201
205
211
214
219
223
227
231
236
240
244
246
251
254
258
262
265
269
272
275
279
283
287
290
293
296
299
300
303
305
305
306
306
306
305
305
303
301
298
294
291
287
283
278
273
267
261
256
250
245
240
234
228
223
218
213
209
204
199
196
192
189
187
183
181
178
176
173
171
170
169
167
166
165
165
164
164
164
164
163
163
164
165
166
167
167
169
170
172
174
175
176
178
180
181
183
184
185
186
186
187
188
188
188
187
186
185
183
182
181
178
176
174
172
169
168
166
163
160
158
157
155
154
153
151
150
149
148
148
148
148
147
146
146
147
146
147
147
146
146
146
146
147
147
147
146
146
146
146
146
146
145
144
145
144
145
144
144
143
143
144
144
144
145
144
143
142
143
144
144
144
143
143
144
144
144
144
144
143
143
143
143
143
143
143
142
142
142
142
141
141
140
140
139
140
139
140
140
138
138
138
139
139
139
138
138
138
138
139
139
138
139
138
138
139
140
139
139
138
137
137
138
138
138
138
137
136
136
136
136
136
135
135
134
134
135
135
134
134
133
134
135
135
134
134
134
134
133
134
134
134
134
133
133
134
134
134
134
134
133
133
134
134
134
134
133
133
133
133
134
134
133
133
132
132
133
134
134
133
133
133
134
135
134
135
134
134
134
134
135
135
134
134
134
134
135
135
135
134
134
134
134
135
135
135
135
135
135
135
136
135
136
135
135
136
136
136
136
136
136
137
137
137
138
137
137
137
137
139
140
140
140
140
140
141
142
143
143
143
144
144
146
147
148
148
148
149
150
151
152
153
154
154
156
157
158
160
161
161
163
164
166
167
169
170
171
173
174
177
178
179
180
182
183
185
186
188
190
191
193
194
196
198
200
201
202
203
205
207
210
211
212
214
216
218
220
222
223
225
226
227
230
232
233
235
235
236
238
239
240
241
241
241
242
243
243
244
244
244
244
244
244
245
245
243
243
242
242
241
241
239
238
238
235
235
234
233
232
230
228
228
227
226
224
223
221
219
218
217
214
213
211
209
207
205
204
202
201
198
196
195
194
193
191
190
187
186
185
184
183
182
181
179
178
177
176
175
174
174
172
172
171
171
170
169
168
167
166
166
165
165
163
162
162
161
160
160
159
158
156
156
155
156
155
154
153
152
152
152
152
152
151
150
151
151
151
151
151
151
151
150
150
151
151
150
149
149
148
149
148
147
147
146
145
145
145
145
145
144
144
144
144
145
144
144
144
144
144
144
145
144
144
144
144
145
145
146
145
145
144
144
145
145
145
144
144
144
144
144
143
143
143
142
142
143
142
143
143
141
141
141
141
142
142
141
141
140
140
141
140
140
139
139
138
138
138
139
138
137
137
137
137
137
138
137
136
137
137
137
137
137
136
135
135
135
136
135
135
134
134
133
134
134
134
134
133
133
133
134
134
134
134
133
133
134
135
135
135
135
135
135
135
136
136
135
136
136
136
136
137
137
137
137
136
137
136
137
136
136
136
136
136
137
136
136
135
135
135
135
135
134
135
134
135
134
134
135
135
134
135
136
136
137
137
136
137
137
137
138
138
138
137
138
137
138
139
139
139
138
137
139
138
138
139
138
138
137
137
137
138
137
137
136
137
137
137
137
137
137
137
137
137
138
139
139
139
138
139
140
140
140
141
140
140
140
141
141
140
140
139
139
140
140
140
139
139
139
139
139
139
139
138
138
138
138
138
139
139
139
138
139
138
140
140
139
139
139
140
139
140
140
139
139
140
139
139
140
140
139
140
140
141
142
142
142
142
142
142
143
143
143
142
141
141
142
141
141
140
140
139
139
139
138
138
138
136
136
135
136
136
135
135
135
134
135
135
136
135
135
135
136
136
136
137
136
136
136
136
137
138
138
138
138
137
138
138
139
138
138
138
138
138
139
139
139
139
138
138
138
139
139
139
139
139
140
140
140
140
140
140
140
140
142
141
142
140
141
141
141
141
142
141
142
141
142
143
142
142
142
143
143
144
145
146
146
146
145
145
146
146
147
147
147
147
147
149
148
148
148
149
149
150
151
151
151
151
151
151
152
152
152
152
152
151
152
152
152
152
151
150
150
151
151
150
150
150
149
149
149
149
148
147
146
147
146
145
146
145
144
143
143
144
144
144
143
143
143
143
144
145
144
144
144
144
144
145
146
147
146
147
147
146
147
146
145
144
143
142
142
141
140
139
138
137
136
136
135
134
133
132
132
132
132
132
131
132
132
132
133
133
133
133
133
133
134
134
134
135
134
133
133
134
135
134
134
133
133
133
133
133
133
132
133
133
132
132
133
133
132
131
131
132
132
133
132
132
131
133
132
133
132
132
131
131
131
131
132
131
130
130
130
130
131
130
129
129
128
128
128
128
128
127
127
126
127
127
127
127
127
127
128
129
129
130
130
130
131
131
132
132
132
132
132
131
132
132
133
132
132
132
132
132
133
132
131
131
131
131
131
132
131
131
131
131
132
133
133
134
133
134
135
136
138
139
141
142
143
146
148
151
154
156
158
161
165
169
173
176
179
182
186
190
195
198
201
204
207
211
214
217
220
223
226
228
231
235
237
240
242
243
247
250
252
255
256
257
258
259
260
261
260
260
259
259
257
255
253
251
247
244
241
238
235
231
226
221
217
213
208
205
201
196
192
189
185
181
178
174
171
167
165
162
160
157
154
151
148
146
145
142
140
139
137
134
134
133
132
132
131
132
132
133
135
136
136
137
139
140
142
144
146
147
148
149
151
152
153
153
153
153
153
153
153
153
150
150
148
146
146
145
144
141
140
138
137
136
135
133
131
130
129
129
129
129
128
128
127
127
127
127
128
126
127
126
127
127
127
127
126
125
125
126
126
126
125
124
124
124
124
125
123
123
122
123
123
123
123
122
122
122
122
123
123
124
123
123
122
122
123
122
122
122
122
122
122
122
122
121
120
120
120
120
121
121
121
120
119
119
120
119
118
118
116
117
116
116
116
115
115
114
114
115
115
114
114
113
113
112
113
114
114
113
114
114
114
114
114
114
113
114
114
113
114
113
112
112
112
112
112
112
112
112
111
110
111
110
111
110
109
109
110
110
110
110
109
109
109
109
109
110
109
108
108
108
109
110
110
110
110
110
110
110
111
110
110
109
109
108
108
109
108
107
107
106
106
106
106
106
104
105
105
105
106
105
106
105
105
106
106
107
107
107
106
106
107
107
108
108
108
108
109
110
111
111
112
112
113
113
115
116
115
116
116
116
116
116
116
117
117
117
117
117
117
117
116
116
117
117
117
117
117
118
118
118
119
120
121
121
121
122
123
124
125
126
127
127
128
129
130
131
132
133
134
135
137
139
141
142
144
145
146
149
151
153
154
156
157
158
161
163
165
165
166
168
170
172
173
174
175
177
178
180
182
184
185
187
187
189
192
193
195
197
197
200
201
203
206
207
208
209
211
213
214
217
218
218
219
221
222
223
225
225
226
227
228
229
229
230
229
228
228
229
229
228
227
225
223
223
221
220
219
217
215
213
211
209
207
205
204
202
201
199
198
197
195
194
192
191
190
188
187
185
184
183
181
180
178
176
174
172
170
170
168
166
165
163
162
160
160
159
158
156
155
153
153
152
151
150
149
148
147
146
146
146
145
143
142
142
141
140
140
138
138
137
136
137
136
135
135
134
134
134
133
133
132
132
131
131
131
131
130
129
128
128
128
127
127
127
125
125
124
124
123
122
122
120
120
119
119
119
118
118
117
117
117
117
117
117
116
117
116
116
117
117
116
116
115
116
116
116
115
115
114
115
115
115
116
115
115
115
116
116
117
117
117
117
116
116
117
117
116
115
115
114
114
114
114
113
112
112
112
112
112
113
112
111
110
111
111
112
112
111
110
109
110
110
110
109
108
108
108
109
108
108
109
108
108
108
108
109
108
108
109
108
108
109
109
109
109
108
108
108
110
110
110
109
109
110
110
110
110
110
110
110
111
111
111
111
110
110
110
110
110
110
109
108
108
107
107
108
107
106
106
106
106
106
106
106
105
105
105
105
106
106
106
106
106
106
107
107
107
106
107
106
107
107
107
107
107
107
107
108
108
108
108
106
105
106
106
106
105
105
104
105
105
105
106
106
105
105
106
106
107
108
108
107
107
108
108
109
110
110
108
109
109
109
109
109
109
108
108
109
108
108
107
107
106
106
106
106
106
105
106
105
106
106
107
107
107
107
108
109
111
111
112
112
112
114
115
116
116
117
117
118
119
119
119
119
119
120
119
121
121
120
119
118
118
117
118
117
117
116
115
114
115
115
115
114
114
114
114
115
116
116
115
116
115
116
116
117
117
117
117
117
117
117
117
117
115
115
115
114
114
114
113
113
112
112
113
112
112
111
111
111
111
111
112
111
111
112
112
113
114
114
114
113
114
114
114
115
115
114
113
114
113
113
112
111
111
110
110
110
109
109
108
106
105
104
105
104
103
103
103
102
103
103
103
103
103
103
103
104
105
105
105
104
104
104
105
104
104
104
104
104
104
103
104
103
102
102
102
102
102
102
102
102
102
102
102
103
103
103
103
102
103
104
104
104
103
104
103
104
105
104
104
103
103
102
103
103
103
103
102
103
102
103
102
103
102
102
102
102
103
103
103
102
102
102
103
103
103
104
103
104
103
104
104
104
104
104
104
105
105
105
105
105
104
105
106
106
107
106
107
107
107
108
108
108
108
110
110
112
113
114
115
115
117
118
120
122
124
126
129
132
135
138
142
146
150
153
158
163
167
172
177
180
185
189
194
198
201
204
208
211
214
217
221
223
225
228
231
234
237
239
240
242
244
246
249
250
252
253
254
255
255
255
254
252
250
247
245
242
239
236
232
227
221
217
212
208
203
198
192
188
183
178
175
169
165
160
157
153
150
146
143
139
136
133
130
127
125
121
118
114
112
110
107
105
102
100
98
97
96
95
94
92
91
91
92
92
92
93
94
95
97
99
101
102
104
106
108
110
112
113
115
115
116
116
118
118
118
117
116
115
114
114
113
112
110
109
107
107
106
105
103
103
101
101
101
100
100
99
99
99
100
99
99
99
100
100
99
101
101
101
101
101
100
101
101
100
100
100
99
98
99
99
99
99
98
98
98
99
99
99
98
99
98
99
99
99
99
99
99
99
98
99
98
98
97
97
97
97
96
96
96
95
95
95
94
95
94
94
93
94
93
94
93
94
94
93
93
94
94
94
93
93
92
92
92
93
92
91
90
90
90
90
90
90
89
89
89
90
89
89
89
88
87
88
89
88
88
87
88
87
88
88
87
87
87
87
87
88
88
89
88
88
88
88
89
89
89
88
88
89
89
89
89
88
88
87
87
88
89
88
87
87
87
86
87
87
86
86
84
85
84
85
86
85
85
84
85
86
86
85
86
85
85
86
86
87
87
86
86
86
86
87
87
87
86
86
87
87
88
88
87
87
86
87
88
88
88
89
88
89
89
90
90
91
91
90
91
92
92
92
93
92
92
93
94
94
94
95
95
96
96
97
98
98
98
99
100
101
102
103
103
104
105
106
106
108
109
108
109
110
111
113
114
114
115
116
117
119
120
122
122
123
125
126
