# Simple Text Format
# Sampling Rate (Hz):= 1200.00
# Resolution:= 12
# Labels:= ECG	 V6
# Age:=	77
# Gender:=	Feminino
0
0
0
0
0
0
0
0
0
0
0
0
0
0
0
0
0
0
0
0
0
0
0
0
0
0
0
0
0
0
0
0
0
0
0
0
0
0
0
0
0
0
0
0
0
0
0
0
0
0
0
0
0
0
0
0
0
0
0
0
0
0
0
0
0
0
0
0
0
0
0
0
0
0
0
0
0
0
0
0
0
0
0
0
0
0
0
0
0
0
0
0
0
0
0
0
0
0
0
0
0
0
0
0
0
0
0
0
0
0
0
0
0
0
0
0
0
0
0
0
0
0
0
0
0
0
0
0
0
0
0
0
0
0
0
0
0
0
0
0
0
0
0
0
0
0
0
0
0
0
0
0
0
0
0
0
0
0
0
0
0
0
0
0
0
0
0
0
0
0
0
0
0
0
0
0
0
0
0
0
0
0
0
0
0
0
0
0
0
0
0
0
0
0
0
0
0
0
0
0
0
0
0
0
0
0
0
0
0
0
0
0
0
0
0
0
0
0
0
0
0
0
0
0
0
0
0
0
0
0
0
0
0
0
0
0
0
0
0
0
0
0
0
0
0
0
0
0
0
0
0
0
0
0
0
0
0
0
0
0
0
0
0
0
0
0
0
0
0
0
0
0
0
0
0
0
0
0
0
0
0
0
0
0
0
0
0
0
0
0
0
0
0
0
0
0
0
0
0
0
0
0
0
0
0
0
0
0
0
0
0
0
0
0
0
0
0
0
0
0
0
0
0
0
0
0
0
0
0
0
0
0
0
0
0
0
0
0
0
0
0
0
0
0
0
0
0
0
0
0
0
0
0
0
0
0
0
0
0
0
0
0
0
0
0
0
0
0
0
0
0
0
0
0
0
0
0
0
0
0
0
0
0
0
0
0
0
0
0
0
0
0
0
0
0
0
0
0
0
0
0
0
0
0
0
0
0
0
0
0
0
0
0
0
0
0
0
0
0
0
0
0
0
0
0
0
0
0
0
0
0
0
0
0
0
0
0
0
0
0
0
0
0
0
0
0
0
0
0
0
0
0
0
0
0
0
0
0
0
0
0
0
0
0
0
0
0
0
0
0
0
0
0
0
0
0
0
0
0
0
0
0
0
0
0
0
0
0
0
0
0
0
0
0
0
0
0
0
0
0
0
0
0
0
0
0
0
0
0
0
0
0
0
0
0
0
0
0
0
0
0
0
0
0
0
0
0
0
0
0
0
0
0
0
0
0
0
0
0
0
0
0
0
0
0
0
0
0
0
0
0
0
0
0
0
0
0
0
0
0
0
0
0
0
0
0
0
0
0
0
0
0
0
0
0
0
0
0
0
0
0
0
0
0
0
0
0
0
0
0
0
0
0
0
0
0
0
0
0
0
0
0
0
0
0
0
0
0
0
0
0
0
0
0
0
0
0
0
0
0
0
0
0
0
0
0
0
0
0
0
0
0
0
0
0
0
0
0
0
0
0
0
0
0
0
0
0
0
0
0
0
0
0
0
0
0
0
0
0
0
0
0
0
0
0
0
0
0
0
0
0
0
0
0
0
0
0
0
0
0
0
0
0
0
0
0
0
0
0
0
0
0
0
0
0
0
0
0
0
0
0
0
0
0
0
0
0
0
0
0
0
0
0
0
0
0
0
0
0
0
0
0
0
0
0
0
0
0
0
0
0
0
0
0
0
0
0
0
0
0
0
0
0
0
0
0
0
0
0
0
0
0
0
0
0
0
0
0
0
0
0
0
0
0
0
0
0
0
0
0
0
0
0
0
0
0
0
0
0
0
0
0
0
0
0
0
0
0
0
0
0
0
0
0
0
0
0
0
0
0
0
0
0
0
0
0
0
0
0
0
0
0
0
0
0
0
0
0
0
0
0
0
0
0
0
0
0
0
0
0
0
0
0
0
0
0
0
0
0
0
0
0
0
0
0
0
0
0
0
0
0
0
0
0
0
0
0
0
0
0
0
0
0
0
0
0
0
0
0
0
0
0
0
0
0
0
0
0
0
0
0
0
0
0
0
0
0
0
0
0
0
0
0
0
0
0
0
0
0
0
0
0
0
0
0
0
0
0
0
0
0
0
0
0
0
0
0
0
0
0
0
0
0
0
0
0
0
0
0
0
0
0
0
0
0
0
0
0
0
0
0
0
0
0
0
0
0
0
0
0
0
0
0
0
0
0
0
0
0
0
0
0
0
0
0
0
0
0
0
0
0
0
0
0
0
0
0
0
0
0
0
0
0
0
0
0
0
0
0
0
0
0
0
0
0
0
0
0
0
0
0
0
0
0
0
0
0
0
0
0
0
0
0
0
0
0
0
0
0
0
0
0
0
0
0
0
0
0
0
0
0
0
0
0
0
0
0
0
0
0
0
0
0
0
0
0
0
0
0
0
0
0
0
0
0
0
0
0
0
0
0
0
0
0
0
0
0
0
0
0
0
0
0
0
0
0
0
0
105
105
105
104
104
105
104
104
104
103
103
103
103
103
102
101
102
102
102
103
103
102
102
102
103
103
103
103
103
102
102
103
103
104
104
104
104
105
105
106
106
106
106
105
106
106
107
106
105
106
106
105
106
107
106
106
105
106
106
107
107
106
106
105
106
106
106
106
106
105
105
106
106
106
105
105
105
106
106
106
105
105
104
105
104
105
106
105
105
105
105
106
107
107
107
107
107
108
108
108
108
108
108
108
108
109
109
109
108
108
108
108
109
109
108
108
107
108
109
109
110
109
109
109
110
110
111
111
110
110
111
111
112
112
111
111
111
110
111
110
110
109
109
109
109
109
109
109
108
107
108
108
109
109
109
109
109
110
111
112
112
112
112
112
113
114
114
113
113
114
114
115
115
115
115
115
116
117
117
118
117
117
117
117
118
118
118
118
118
118
118
118
118
119
118
119
119
119
120
120
121
120
121
121
121
122
122
122
122
122
123
122
123
124
123
122
123
122
123
122
122
121
121
121
120
120
121
120
119
118
119
119
120
119
119
119
120
120
121
121
122
122
122
122
123
124
124
124
124
123
123
123
123
122
122
120
120
120
120
119
119
117
116
115
115
114
113
113
112
111
111
111
111
110
110
110
110
110
111
111
111
111
110
111
111
112
112
112
112
112
112
112
113
113
112
112
113
113
113
114
114
113
113
114
113
114
113
114
113
113
113
112
113
112
112
112
112
111
111
112
111
110
110
110
110
111
110
110
110
109
109
110
110
110
111
111
110
111
112
112
112
112
111
112
112
113
113
113
112
112
112
112
112
112
111
111
110
111
112
112
112
112
111
111
111
112
111
112
111
110
110
110
110
111
110
109
109
110
110
110
110
109
109
109
110
111
112
112
113
113
116
118
121
123
126
128
133
138
142
148
153
158
164
170
177
183
191
199
206
214
222
231
239
248
256
264
273
281
290
299
306
314
322
330
337
345
352
359
365
371
377
383
388
393
398
402
406
410
414
417
420
422
424
426
428
429
430
431
431
432
432
432
433
433
432
431
431
430
430
430
429
428
425
425
423
422
420
419
416
414
411
409
407
404
400
397
395
392
389
386
382
378
374
371
369
365
362
359
355
352
349
347
344
341
337
333
329
326
322
319
314
310
305
300
295
290
283
278
272
265
259
253
247
240
233
226
218
211
206
198
192
185
177
171
165
160
154
149
143
137
133
129
125
121
117
114
110
109
106
105
103
101
100
99
98
97
97
96
95
94
94
93
94
94
93
93
93
92
93
93
93
91
91
91
91
90
90
89
89
88
88
88
89
88
87
87
86
87
87
86
86
86
85
85
86
86
86
85
85
85
85
84
85
85
84
84
83
84
84
84
84
83
83
82
83
83
83
83
82
82
82
82
83
83
83
83
83
84
84
85
84
84
83
83
83
83
84
83
82
81
81
82
81
81
80
79
79
79
79
79
78
78
77
76
77
76
76
76
75
75
74
75
75
74
74
73
74
75
75
75
75
74
74
74
75
75
75
76
75
75
75
75
75
75
75
74
74
74
73
74
73
73
72
71
72
71
71
70
70
69
69
69
70
69
68
68
68
68
69
68
68
68
67
67
67
67
67
66
66
66
66
66
66
66
65
65
64
65
66
65
65
64
64
65
64
65
65
64
64
64
64
65
65
65
64
65
64
65
65
66
65
64
64
65
65
66
65
66
66
66
67
67
68
68
68
69
70
71
72
73
73
74
74
75
77
78
78
79
80
81
82
83
84
86
87
87
88
89
91
92
93
94
94
96
97
99
100
102
103
105
106
108
110
111
112
113
115
117
120
122
123
124
126
127
129
131
134
135
135
137
138
140
142
143
144
146
147
149
151
153
153
154
155
156
158
159
160
160
160
160
161
162
162
163
163
162
163
164
163
164
163
163
162
161
160
161
160
159
158
157
155
156
155
153
152
151
150
150
150
149
148
147
146
145
144
143
143
142
141
140
139
139
139
139
137
136
135
135
135
135
134
133
133
133
132
132
132
132
131
131
130
131
131
130
130
129
129
129
129
130
129
129
128
128
127
128
126
126
126
124
124
124
124
124
123
123
123
123
124
123
123
122
122
122
122
122
123
122
123
122
123
123
123
123
123
122
123
122
122
123
122
122
121
122
121
122
121
121
120
121
121
121
122
122
121
121
121
121
122
122
121
121
121
121
121
121
121
120
120
120
119
120
120
119
119
118
119
119
119
119
119
118
118
118
119
118
118
118
118
118
118
118
118
118
118
117
117
118
118
118
118
118
117
117
118
118
118
117
117
117
117
116
117
117
116
116
116
115
116
116
115
115
114
115
115
116
115
115
114
115
115
114
114
115
114
113
113
114
114
115
114
114
114
114
113
114
114
113
113
113
113
113
113
113
113
112
112
113
113
113
113
113
113
113
113
113
113
113
113
113
113
114
115
115
114
114
114
115
115
116
115
115
114
115
115
116
116
115
115
115
115
116
115
115
116
115
115
116
117
116
116
116
116
116
117
117
117
117
116
116
117
117
117
117
117
116
117
116
117
117
117
117
117
116
117
117
117
117
116
116
117
116
117
117
117
117
117
118
118
118
119
118
118
118
118
119
119
119
118
118
119
120
120
120
120
119
119
120
120
121
121
121
120
120
121
121
121
120
121
120
120
120
121
121
121
120
120
121
121
122
122
121
122
121
121
122
122
121
121
121
121
122
122
123
122
122
122
123
124
124
124
124
124
125
125
126
126
125
126
126
126
127
128
128
127
127
127
128
128
128
128
127
127
127
128
128
128
128
127
127
127
128
128
128
128
128
128
129
130
129
129
129
128
128
129
129
129
129
129
128
128
128
128
128
128
127
127
128
128
128
128
127
127
127
127
128
128
127
127
127
128
128
129
128
128
128
128
129
130
130
130
130
129
130
130
130
130
130
129
128
128
128
128
127
127
125
125
125
125
124
123
122
122
122
122
121
121
121
120
120
121
121
121
120
121
121
121
122
122
123
122
122
121
122
122
123
123
122
123
122
122
123
123
123
123
122
123
123
124
124
124
123
123
123
123
124
123
123
122
123
123
122
123
123
122
121
122
122
122
123
122
122
122
122
122
123
123
123
123
122
123
123
123
123
123
123
123
123
123
124
124
124
123
123
124
124
124
124
123
124
124
124
125
125
124
124
124
125
125
125
125
124
124
124
124
124
124
123
122
121
122
121
121
121
119
118
118
119
119
118
119
118
119
119
121
122
125
126
128
131
135
140
144
149
154
159
166
173
179
186
194
201
209
217
225
234
242
249
258
265
274
282
289
298
305
311
320
327
334
341
348
354
359
365
371
376
381
385
390
394
397
401
405
408
409
411
414
416
418
419
420
420
421
421
422
422
422
421
420
420
419
418
418
417
416
414
414
412
411
410
408
406
404
402
400
398
396
393
391
388
385
383
380
377
374
372
369
367
365
362
359
356
354
350
349
346
344
340
337
334
331
328
325
320
317
312
308
303
299
294
288
282
276
270
263
257
251
243
236
229
222
216
209
202
194
188
181
176
170
165
159
153
148
144
140
137
134
130
127
124
122
120
118
117
114
113
112
111
111
111
109
109
107
107
107
107
107
106
105
105
104
105
105
104
104
103
103
104
104
104
104
103
102
102
102
103
102
102
101
101
101
102
102
101
101
100
100
101
101
101
100
100
100
100
100
100
100
100
99
100
99
100
99
99
99
98
98
99
99
100
99
98
98
98
98
99
99
98
98
98
98
98
99
98
98
97
97
98
98
98
98
97
96
96
97
97
97
96
96
95
96
95
96
95
95
95
95
95
96
95
95
94
94
94
94
94
93
93
92
92
92
92
92
92
91
91
91
91
90
91
90
90
90
90
89
89
89
89
89
88
88
88
88
88
88
87
87
88
88
88
87
87
87
87
87
88
87
86
86
86
86
86
86
86
85
85
85
85
86
86
85
84
84
84
84
84
83
83
82
83
83
82
83
82
82
81
81
82
82
82
82
82
81
82
82
82
82
82
81
82
82
83
84
83
83
83
84
85
85
86
86
85
85
86
87
87
88
88
88
89
90
90
91
92
92
93
94
94
96
97
98
98
99
101
101
103
105
105
106
107
110
110
113
114
114
117
118
120
122
123
125
126
127
128
130
132
133
135
136
138
139
141
143
145
146
147
149
151
152
155
156
157
158
160
162
164
165
165
166
168
169
170
171
173
173
173
175
175
176
178
178
177
177
177
178
179
178
178
177
177
177
177
177
176
176
175
174
174
174
173
173
171
170
169
169
169
168
166
166
164
165
164
164
163
161
160
159
159
159
158
157
156
155
155
154
154
154
153
151
151
151
150
150
150
148
147
147
148
147
146
146
145
145
144
144
144
143
143
142
142
141
142
141
142
140
140
141
141
142
141
141
140
140
141
141
141
141
141
140
140
140
140
140
140
139
139
139
138
140
139
138
138
138
137
138
138
138
137
136
137
136
137
137
136
136
135
136
136
137
136
136
135
135
135
136
135
136
135
135
134
135
135
136
135
135
135
136
136
137
136
136
136
135
135
135
136
136
135
135
135
134
135
135
134
134
133
133
133
133
133
132
132
132
132
131
132
131
130
130
131
130
131
132
131
131
130
131
132
132
131
132
131
132
132
132
132
132
133
132
133
132
133
133
133
131
131
132
132
133
132
131
131
130
130
131
131
130
130
130
129
130
130
130
129
129
129
129
130
130
130
130
129
129
129
130
129
129
129
128
129
129
129
129
129
129
129
129
129
129
130
129
129
129
128
128
129
129
128
128
128
128
129
128
128
128
127
127
127
127
127
127
127
127
127
127
128
128
127
127
127
128
128
128
128
128
128
128
129
129
130
129
129
128
128
129
129
128
128
127
128
128
129
128
128
128
128
129
129
130
130
130
130
130
131
131
132
132
133
132
132
133
133
133
134
133
133
132
133
133
133
132
132
131
131
130
131
130
129
129
128
129
128
129
128
127
128
127
129
129
129
129
129
129
130
130
130
130
131
131
130
131
132
132
132
132
133
133
133
134
134
134
133
134
134
134
134
134
133
134
134
133
133
134
133
132
132
132
132
132
133
132
131
130
131
131
131
130
130
130
130
130
130
131
130
130
130
131
131
131
131
131
131
130
131
132
132
132
132
131
132
132
132
133
133
132
133
133
134
135
135
135
135
134
135
135
134
134
134
133
133
133
133
133
133
132
131
132
132
133
133
132
132
132
132
132
133
133
133
133
133
133
134
134
134
133
133
133
133
134
134
133
133
132
132
132
132
132
132
131
131
131
131
132
131
131
132
132
133
133
133
134
134
134
134
134
135
134
134
134
134
134
135
135
136
135
136
135
136
138
137
137
137
137
137
138
138
138
139
139
139
140
141
141
141
141
140
141
142
142
143
142
143
142
142
144
144
144
144
144
143
144
146
146
146
145
146
147
147
147
148
148
147
146
147
148
147
147
147
146
146
146
147
147
146
145
145
146
146
146
146
145
145
144
145
145
145
146
145
145
145
146
147
147
146
146
146
146
147
147
147
147
146
145
145
146
145
145
144
143
142
143
142
142
141
141
140
140
141
140
140
139
138
138
137
138
137
137
136
136
136
136
137
136
135
135
135
135
136
136
136
135
135
135
136
136
137
137
136
136
136
136
136
137
136
136
136
136
137
137
137
137
136
136
136
137
136
137
136
136
136
136
136
136
136
135
135
136
136
137
137
136
135
136
135
136
136
135
135
135
134
135
136
135
135
135
135
135
135
136
135
135
134
134
134
135
135
135
134
135
135
134
134
134
134
134
133
133
134
134
134
134
134
134
134
135
134
135
134
134
135
134
135
136
135
135
135
135
135
135
135
134
134
133
133
134
134
135
135
136
137
139
142
144
147
150
154
159
164
170
176
182
187
194
202
209
216
224
231
239
246
254
263
270
278
285
293
301
309
317
324
332
339
345
353
360
367
374
380
386
392
398
404
409
415
418
424
428
432
435
439
441
443
445
447
449
450
452
452
451
451
452
451
451
450
449
449
448
446
445
444
442
439
437
435
434
432
429
425
424
420
418
416
413
410
406
402
400
397
394
392
388
385
383
381
378
376
373
371
369
366
364
362
359
356
352
349
346
343
339
335
330
324
319
313
308
302
296
288
282
274
267
261
253
246
238
231
223
218
211
204
197
190
183
177
172
167
161
156
152
148
145
142
139
136
134
132
130
130
129
129
127
126
126
125
126
125
126
124
125
124
124
124
124
123
122
121
122
122
121
121
120
120
118
119
119
118
118
117
116
116
115
115
115
114
114
113
113
113
114
113
113
111
111
111
112
111
112
112
111
111
112
112
112
112
112
112
113
113
114
114
114
113
113
114
114
115
114
115
115
115
115
116
116
115
115
114
115
116
115
115
115
114
114
113
113
113
112
111
110
109
109
108
108
107
106
105
104
104
105
104
104
103
102
103
103
104
103
103
104
104
104
105
106
106
106
105
106
107
107
107
106
106
106
106
106
106
106
105
105
104
104
104
104
103
103
102
102
102
103
102
102
102
101
102
101
102
102
101
101
100
101
101
101
100
100
99
99
99
99
99
97
97
96
96
97
96
96
94
94
94
94
95
94
94
95
95
96
97
97
97
98
98
97
98
99
99
99
98
99
99
99
99
100
99
99
99
99
99
100
100
100
99
99
99
100
101
101
101
101
102
102
103
104
104
104
104
105
107
108
108
109
110
110
111
112
114
114
115
115
117
118
119
120
121
122
123
125
127
128
130
131
132
133
135
137
138
140
141
144
146
147
149
152
153
154
156
159
161
163
165
166
169
169
171
174
175
176
178
179
181
183
184
185
186
186
187
189
190
191
191
192
192
193
193
194
195
195
195
195
196
197
197
198
198
198
198
198
199
199
198
197
196
196
195
195
194
192
191
190
189
188
188
187
186
184
183
183
182
182
181
180
180
179
178
179
178
177
177
176
176
176
175
175
174
173
172
172
171
171
169
168
168
166
166
166
165
164
162
162
161
162
161
160
161
160
160
161
161
161
161
161
161
161
162
162
162
162
162
161
162
163
163
163
162
161
162
161
161
162
162
161
160
160
160
160
160
160
159
159
158
159
159
158
158
158
158
158
158
158
157
156
156
156
156
156
156
155
154
154
154
155
155
155
155
154
154
154
155
155
154
154
154
154
155
156
155
155
154
155
155
155
156
156
155
155
155
156
157
157
156
157
156
156
155
156
156
156
155
154
154
154
154
154
154
153
153
153
154
153
153
153
153
153
153
153
153
153
153
152
152
153
153
153
152
152
152
152
152
152
152
152
151
151
151
152
152
152
151
150
150
150
150
149
149
149
148
149
149
150
149
149
149
149
150
150
150
150
150
150
151
150
151
151
151
150
151
150
150
151
150
150
150
149
149
150
150
150
150
150
149
150
150
151
150
150
150
151
151
152
152
152
152
151
152
153
153
153
152
152
153
153
153
154
153
152
152
153
153
154
154
153
153
153
153
154
155
154
153
154
154
155
157
157
156
157
158
159
159
160
160
160
161
161
161
161
162
162
161
161
161
162
162
162
162
162
163
162
164
164
164
164
163
164
165
165
166
166
165
165
165
166
166
166
166
166
166
166
166
166
165
165
164
164
164
164
164
163
163
163
163
164
163
163
164
163
163
165
165
166
166
166
166
166
167
167
167
168
168
167
168
168
169
169
169
168
168
169
169
168
168
168
167
167
166
166
166
165
163
163
162
162
162
160
159
158
157
157
157
157
156
155
155
155
155
155
154
154
154
154
154
155
156
156
156
156
156
157
158
159
158
158
158
158
159
159
160
159
159
159
159
159
159
159
158
158
158
158
159
159
159
158
158
158
158
159
159
158
158
159
159
160
159
159
159
159
159
159
159
159
159
159
159
157
158
158
158
158
158
157
158
158
159
159
158
158
158
158
160
161
161
160
161
162
162
163
163
163
163
163
163
163
163
163
162
162
161
162
162
161
161
160
159
158
159
159
159
158
157
157
157
157
158
158
158
159
159
160
162
163
165
167
168
171
173
178
180
185
188
193
198
204
210
216
222
229
236
243
252
260
268
275
283
292
301
310
319
327
335
344
352
360
370
378
385
393
401
409
417
424
431
437
442
448
454
459
464
469
472
475
479
482
485
487
488
489
491
493
495
495
496
496
495
496
496
497
497
496
496
495
494
494
492
491
490
488
486
484
483
480
478
475
471
468
465
462
459
454
451
447
443
440
437
433
429
425
421
418
415
412
408
404
400
397
394
390
387
384
379
375
371
366
362
357
352
346
341
334
328
323
316
309
302
295
289
282
275
267
260
253
246
240
233
226
220
214
208
203
198
193
188
183
179
175
172
169
167
164
161
158
157
155
154
153
151
150
150
150
149
149
148
148
146
147
147
147
146
145
145
144
144
145
144
144
143
143
142
142
142
141
141
141
140
139
139
140
139
139
138
138
138
138
139
138
138
137
138
138
138
138
138
138
137
138
138
139
139
139
138
138
139
138
139
139
138
137
138
138
138
138
138
137
137
136
136
136
136
136
135
134
134
134
135
134
133
133
133
134
134
133
134
133
133
132
133
133
133
132
132
131
131
131
131
131
130
129
130
130
130
131
130
129
129
130
129
130
130
130
130
129
129
129
130
129
129
129
129
129
129
130
130
128
128
127
128
128
128
127
127
127
127
127
126
126
125
124
124
125
125
125
124
124
124
123
124
123
123
123
122
122
122
122
122
122
121
121
121
121
122
122
122
121
121
121
120
121
121
120
120
120
120
121
120
120
119
119
119
119
120
120
120
119
118
119
118
119
119
120
119
119
119
119
120
120
121
120
120
121
122
123
123
123
122
122
123
125
125
126
126
126
127
128
128
130
130
131
131
133
135
136
136
137
138
139
141
143
144
145
146
147
149
151
152
154
155
156
158
160
162
164
165
166
168
170
172
174
175
177
178
179
181
183
185
186
188
189
190
192
194
196
197
198
199
201
203
205
206
208
209
209
211
212
213
215
215
215
216
217
217
217
217
218
217
217
218
218
217
216
216
216
215
214
214
214
212
212
212
211
211
210
209
208
207
207
207
206
205
204
203
202
201
202
201
200
199
198
197
198
197
196
196
195
194
194
193
193
192
191
191
189
189
189
188
188
187
186
186
186
186
185
185
184
183
183
183
182
182
181
181
181
181
180
180
180
179
178
177
178
178
178
177
177
176
176
176
176
176
175
175
176
176
176
175
176
175
175
175
176
176
177
177
176
176
177
177
178
177
177
177
177
177
178
177
177
177
177
177
178
178
177
178
177
177
176
176
176
176
176
175
174
174
174
174
174
174
173
173
174
174
173
173
173
173
173
173
173
173
173
172
173
173
173
173
173
173
172
172
173
173
174
173
173
172
173
173
173
173
172
172
173
173
173
173
173
172
172
172
172
173
172
172
171
171
170
172
172
172
171
170
170
170
171
171
170
169
169
169
170
169
170
169
169
169
168
169
169
169
168
168
168
168
168
169
169
169
168
168
168
170
170
169
170
169
169
169
170
170
170
170
169
169
170
170
170
169
168
168
169
169
169
169
168
168
168
168
169
169
168
168
167
167
168
169
169
168
168
169
169
169
170
170
169
169
169
169
170
170
170
170
170
170
170
171
170
169
169
169
170
170
170
170
169
169
169
169
170
170
169
169
169
170
170
170
170
170
169
170
170
171
171
171
171
170
170
171
171
172
171
171
171
172
172
173
173
172
173
172
173
173
174
174
173
173
173
173
174
174
173
172
173
173
173
173
173
173
173
173
173
173
174
173
173
173
173
175
174
175
175
175
174
176
177
177
177
177
177
178
178
180
180
180
180
179
180
181
181
181
180
180
180
181
181
181
181
180
180
181
181
181
182
181
181
181
181
181
181
182
181
181
182
182
183
183
183
183
182
182
183
183
184
183
183
182
182
182
182
182
181
181
181
180
181
181
181
180
180
180
181
181
181
181
180
180
180
181
182
182
182
182
182
182
183
183
183
182
182
182
183
183
183
182
182
181
180
180
180
179
178
177
177
176
175
175
175
174
173
172
173
172
172
172
171
170
170
171
171
171
170
171
171
170
171
172
172
171
171
172
172
172
173
173
172
172
173
173
174
173
172
172
172
172
173
173
172
172
172
172
172
172
173
172
172
172
172
172
173
173
172
171
172
172
172
173
172
172
171
172
172
172
173
172
172
171
171
171
172
172
172
172
171
172
172
172
171
171
172
172
172
172
173
172
172
172
172
172
172
172
172
171
171
171
172
172
172
172
172
172
172
172
171
171
171
170
169
169
170
169
168
168
167
167
167
168
167
167
167
170
171
173
175
177
180
183
187
191
196
201
206
212
217
224
232
239
246
252
259
268
276
284
292
299
307
314
322
330
338
346
352
360
366
373
381
388
394
400
406
412
418
423
429
433
438
442
446
450
453
457
459
461
464
466
468
470
470
471
471
473
473
473
473
473
472
471
470
470
469
469
467
465
464
462
461
459
458
455
453
451
448
446
444
441
438
434
432
429
426
423
420
416
414
411
407
405
402
399
396
393
391
389
386
383
380
377
373
371
368
364
360
356
351
347
341
336
331
325
319
314
308
301
294
288
280
273
266
260
253
246
239
232
226
220
214
209
204
198
193
189
186
183
179
176
173
170
168
167
166
164
162
161
160
160
158
158
157
157
156
156
156
156
155
155
155
153
153
153
154
152
152
151
151
151
151
151
150
150
149
149
150
150
149
149
148
147
147
148
148
147
147
146
146
145
145
146
146
144
144
145
144
145
145
144
144
143
144
144
144
144
144
144
143
144
144
144
144
144
143
143
144
144
144
144
143
143
143
142
143
143
142
141
141
141
141
140
140
140
139
139
140
140
139
140
139
139
139
138
138
138
137
137
136
137
137
137
137
136
136
136
136
137
136
136
135
135
135
135
136
135
134
134
133
133
134
133
133
133
133
133
132
133
133
133
133
132
132
132
131
131
132
131
130
130
131
131
130
130
130
129
129
130
129
128
128
127
127
128
127
127
127
127
126
126
127
127
127
127
126
126
126
126
127
126
125
125
125
125
126
126
125
125
124
124
125
125
125
125
125
125
125
126
126
126
126
126
126
126
127
127
128
128
127
129
129
129
130
130
130
130
132
132
132
133
133
134
134
134
136
136
137
137
137
138
139
141
141
141
142
143
145
146
147
149
149
150
152
154
155
157
157
159
160
162
164
166
167
168
170
171
173
175
177
178
179
180
182
184
186
188
189
190
191
194
196
196
198
199
201
202
204
206
207
209
210
211
212
213
215
216
217
217
218
219
219
221
221
221
220
221
221
221
222
222
221
220
220
220
220
219
218
217
217
216
216
215
215
214
213
212
212
211
210
209
208
207
206
206
205
204
203
202
201
201
200
199
198
197
196
196
196
196
195
194
193
193
192
192
191
191
190
189
189
188
189
188
188
187
186
186
185
185
186
185
183
182
182
183
182
182
181
180
181
180
180
180
179
179
178
178
179
179
179
178
178
177
178
178
178
178
178
178
177
178
178
178
177
177
177
177
178
177
178
177
177
176
177
177
178
177
177
176
176
176
176
176
176
176
175
175
175
175
176
175
175
174
174
174
174
174
174
173
173
173
174
175
175
174
174
174
174
175
175
175
174
175
174
175
175
175
174
173
173
173
174
174
173
172
172
173
173
173
173
173
172
172
172
172
173
172
172
172
171
172
172
172
171
171
170
170
171
171
171
170
170
169
169
170
170
170
169
169
169
169
169
168
169
168
168
168
169
169
168
168
168
168
168
169
169
169
168
168
168
168
168
169
168
168
168
169
168
169
169
169
168
168
168
168
168
168
168
167
168
167
168
168
169
168
168
168
168
169
169
169
169
168
169
169
169
169
170
169
169
169
169
170
169
168
169
169
169
169
169
169
169
168
168
169
169
168
168
168
167
168
168
168
167
167
168
167
168
168
169
168
169
168
169
169
169
169
170
169
169
170
170
171
170
170
170
170
171
171
171
171
171
170
170
172
171
171
171
171
170
171
171
171
171
171
171
172
172
172
172
172
172
171
172
172
172
172
171
171
171
171
172
172
171
171
171
171
171
172
173
172
171
171
171
171
171
171
171
171
170
171
171
172
171
171
171
171
171
171
172
171
171
170
171
171
171
171
170
169
170
170
171
170
170
170
170
169
171
171
170
170
170
170
170
170
171
171
170
170
170
170
170
171
170
170
169
170
170
171
171
172
171
170
171
172
172
172
172
171
172
171
172
172
171
171
171
172
172
172
172
171
171
171
171
171
171
171
170
170
170
171
170
171
170
169
170
170
170
170
171
170
170
171
170
170
171
171
170
171
170
170
171
171
171
171
170
171
172
172
172
172
172
171
171
172
172
172
172
172
171
172
172
173
172
172
172
172
173
173
173
173
173
172
172
172
172
172
172
172
172
172
173
173
173
172
173
173
174
174
174
174
174
174
175
175
176
175
176
176
176
176
177
177
178
177
177
177
178
179
179
179
178
178
179
179
179
179
180
179
179
180
181
181
181
180
180
181
181
182
182
182
181
181
181
181
181
181
180
180
180
179
180
179
179
179
178
179
179
179
179
179
179
178
178
178
178
178
178
177
177
178
177
178
178
178
178
178
179
179
179
180
179
180
180
180
180
180
180
179
180
179
180
179
178
178
177
177
176
176
176
175
174
173
172
172
173
172
172
171
170
171
171
171
171
171
170
170
171
171
171
172
171
171
171
172
173
172
171
171
171
171
172
173
172
172
171
172
173
173
173
173
173
172
173
173
173
173
173
173
173
173
173
174
173
173
173
173
175
175
174
174
173
174
174
174
175
175
174
174
173
174
173
174
173
172
173
173
173
173
173
172
172
172
172
172
173
173
172
173
173
174
174
174
175
174
175
175
176
176
177
176
176
176
175
176
176
175
175
174
173
173
173
172
171
170
169
169
169
167
167
166
165
165
166
167
167
168
169
170
172
175
178
181
186
190
193
199
206
212
218
224
230
237
245
252
261
268
275
284
291
299
307
315
322
330
337
345
352
360
366
373
380
385
392
399
404
410
414
420
424
429
433
437
441
444
447
450
453
456
458
459
459
460
462
463
464
465
464
464
464
464
464
464
463
462
461
461
460
460
459
457
455
453
452
450
448
446
443
441
438
436
434
431
428
424
421
419
417
414
411
408
405
402
399
397
396
393
390
387
385
383
380
378
375
372
368
366
362
359
355
350
345
339
336
330
324
318
312
305
298
291
284
278
270
263
256
249
242
236
229
223
216
210
205
200
195
190
186
181
178
175
172
170
167
165
162
162
161
160
159
158
156
156
155
155
155
154
153
153
152
153
152
152
151
151
151
151
151
151
151
151
151
150
150
151
151
151
150
150
150
150
150
150
150
149
149
149
149
150
149
149
148
148
148
148
147
147
147
146
146
146
145
145
145
144
144
144
144
144
143
143
143
142
142
142
142
142
141
140
140
141
141
141
141
141
140
141
141
142
142
142
142
141
141
142
142
142
142
141
142
142
141
142
142
140
139
139
139
139
139
138
137
137
136
136
135
135
134
132
132
133
132
133
132
132
131
131
132
132
132
131
131
131
132
132
132
132
132
131
132
132
132
132
132
132
132
132
132
132
132
131
131
130
131
131
130
130
130
129
129
128
129
128
128
127
126
126
127
127
127
127
127
126
126
127
127
126
126
125
125
125
126
126
125
124
125
124
125
125
125
124
124
123
124
124
125
125
125
124
125
125
126
127
126
126
126
127
127
128
128
128
128
127
128
129
129
129
129
129
130
131
132
132
133
134
135
135
137
138
139
140
140
141
143
143
145
145
145
146
147
149
150
150
151
151
152
153
154
155
156
157
158
159
161
163
165
166
167
169
170
173
175
177
179
180
182
184
187
189
191
192
193
195
197
200
201
202
203
204
206
208
210
211
213
213
214
216
217
218
219
220
220
220
221
222
222
221
222
221
221
220
220
219
218
218
217
217
216
216
216
214
213
212
212
212
211
210
209
209
209
208
208
207
206
205
205
204
204
203
202
201
199
199
198
197
196
195
193
192
192
191
190
189
188
187
187
187
186
186
185
185
184
184
184
184
184
183
183
182
181
182
181
182
181
180
179
179
179
179
178
179
177
177
177
177
177
178
177
176
177
177
177
178
177
177
177
177
177
177
178
177
177
176
177
177
176
176
175
175
174
174
174
173
172
172
172
171
172
172
172
171
171
171
172
172
172
173
172
173
173
173
175
174
175
174
174
175
175
176
175
174
173
173
173
173
172
172
171
170
170
169
168
168
167
167
166
167
168
167
167
167
167
166
166
167
168
167
167
167
167
168
169
168
168
168
168
169
170
170
170
170
169
169
169
169
169
169
168
167
166
167
166
166
166
164
164
164
164
164
164
163
162
162
163
164
163
163
163
163
163
163
163
163
164
163
163
163
163
164
163
163
162
162
163
163
162
162
162
162
161
162
162
162
162
161
162
162
163
163
162
162
161
161
161
161
162
161
160
160
159
159
160
159
160
158
159
160
160
160
160
160
159
160
160
160
160
160
160
160
160
161
162
162
161
161
160
161
161
161
161
161
161
161
161
161
162
162
161
161
161
162
162
163
162
162
163
162
164
165
165
164
164
165
166
166
167
167
167
167
167
167
167
168
167
167
167
167
167
167
167
166
165
165
165
165
166
166
165
166
166
166
167
168
168
169
169
170
171
172
172
173
173
173
174
174
174
174
174
174
175
175
175
176
175
175
174
175
175
175
175
175
174
174
174
174
174
174
173
173
173
173
173
172
171
170
171
171
172
171
171
170
170
169
169
170
170
170
170
170
169
170
170
171
171
171
171
172
173
173
173
172
172
172
171
171
171
170
169
168
167
166
166
165
165
163
162
162
161
161
161
160
160
159
160
160
160
160
159
159
159
160
160
160
159
159
159
159
161
160
160
160
159
159
160
160
160
160
160
159
159
160
160
160
159
160
159
160
161
162
162
162
162
161
162
162
163
162
161
162
161
162
163
162
161
161
160
161
161
161
161
161
160
160
160
159
160
159
158
159
159
158
159
159
159
159
158
159
160
160
161
160
161
161
161
161
162
162
162
162
162
162
163
163
162
162
161
162
161
161
160
160
160
159
159
159
159
159
158
157
157
158
159
159
159
159
160
161
163
164
165
167
168
171
175
178
182
186
190
195
200
207
213
221
226
233
241
249
257
265
273
282
290
298
307
316
325
332
341
348
357
365
374
381
389
396
403
411
417
424
430
435
441
446
450
456
460
464
467
470
473
476
479
480
482
483
485
487
487
489
489
489
489
489
489
489
489
487
486
485
484
483
482
480
478
476
474
472
471
468
466
463
460
457
454
452
448
445
442
438
434
431
429
425
421
417
413
411
409
406
402
398
394
390
388
384
381
377
372
368
363
359
354
349
344
338
332
327
320
314
308
300
293
286
278
271
264
257
248
241
234
227
221
214
207
201
195
190
185
181
176
172
167
164
161
158
157
153
151
149
148
147
147
145
144
144
143
143
144
143
143
142
140
140
140
139
138
138
137
137
136
136
135
135
134
134
133
133
134
134
134
133
132
133
133
134
134
134
133
133
133
133
134
134
133
132
132
132
132
132
132
131
130
129
130
130
130
129
128
128
128
128
129
129
129
128
128
128
129
129
129
128
128
128
129
129
128
129
128
127
127
128
128
128
127
127
126
127
128
128
127
126
125
125
126
126
125
124
123
122
122
122
122
121
120
120
120
120
120
121
120
120
120
121
120
121
122
122
121
122
122
122
123
123
123
122
121
122
122
121
121
120
119
118
117
117
116
115
115
113
114
113
113
112
112
112
111
111
111
112
112
112
110
111
111
111
111
111
111
111
111
111
111
111
110
110
110
110
110
110
110
109
109
108
108
109
108
108
108
107
107
107
107
107
106
106
105
106
107
106
106
106
106
106
106
107
106
107
107
108
108
108
109
109
109
110
110
110
111
111
112
112
112
112
112
113
114
113
114
113
113
115
116
116
117
117
118
120
121
122
123
124
125
126
127
129
131
132
133
134
136
137
139
141
141
142
144
145
147
149
150
151
153
154
156
158
160
162
163
164
166
169
171
172
174
176
177
180
182
185
186
187
188
190
192
193
194
194
195
195
195
197
198
197
198
198
198
199
200
200
199
199
199
200
200
200
200
200
199
199
199
199
199
199
198
196
196
196
195
195
194
192
191
190
189
188
187
186
184
183
183
182
181
181
179
178
178
178
178
178
178
177
176
176
176
176
175
176
174
173
173
174
173
172
171
171
171
170
170
170
169
167
166
166
166
165
165
164
164
163
162
162
162
162
161
161
160
161
161
162
161
160
160
160
161
161
161
161
160
159
160
160
161
160
159
159
159
159
159
159
159
158
159
158
158
158
159
158
157
158
157
157
157
157
157
157
156
157
157
156
156
156
156
156
156
157
157
156
156
155
155
155
155
155
154
154
154
154
154
154
154
154
153
153
153
153
153
153
152
151
151
152
152
150
150
149
149
149
149
150
149
149
149
149
149
150
150
151
150
151
151
152
153
153
152
152
152
153
153
153
152
151
150
150
151
150
149
149
148
147
147
146
146
146
146
146
146
146
146
146
145
146
145
146
145
146
147
146
146
146
147
147
148
148
148
148
148
148
149
149
150
149
149
148
149
149
149
149
148
147
147
147
148
147
146
147
147
147
147
147
147
146
145
145
145
146
145
145
144
143
143
144
144
144
144
144
144
144
145
145
145
146
145
146
146
147
147
147
148
147
147
148
148
149
149
148
148
149
149
150
150
149
148
149
149
148
148
148
148
147
147
148
147
147
146
146
146
146
146
146
146
145
145
144
145
145
145
145
144
144
145
144
145
145
144
144
145
146
147
146
147
147
146
147
147
148
147
148
147
147
146
147
147
146
146
145
145
146
146
145
145
145
144
144
145
144
145
145
145
145
145
146
147
147
147
148
148
149
150
150
151
150
150
151
151
151
151
151
151
151
152
152
153
153
152
153
153
153
154
153
153
153
153
153
153
153
154
153
152
152
152
153
153
154
153
153
153
154
154
154
155
155
154
155
156
156
155
156
156
155
155
155
155
154
154
153
153
154
154
154
154
154
152
153
153
153
153
153
153
152
153
153
153
153
153
153
153
154
154
155
155
155
154
154
155
156
155
155
154
153
153
152
153
151
150
149
148
148
147
147
146
145
143
143
142
143
142
141
140
140
140
141
141
140
141
140
141
141
141
143
143
143
143
143
144
145
146
145
145
144
145
145
145
145
144
144
143
144
144
144
143
143
142
142
143
143
143
142
142
142
142
142
142
142
142
142
142
142
142
143
143
142
142
141
142
141
141
141
140
140
140
139
139
139
139
138
139
138
139
139
138
139
138
138
139
139
140
140
139
140
140
140
141
141
141
141
140
141
141
142
141
140
140
140
141
140
140
139
138
137
137
137
137
136
136
135
135
136
136
137
137
139
139
141
144
147
150
154
157
160
166
171
177
183
189
195
203
210
218
226
234
241
249
257
266
276
284
293
301
310
318
328
337
345
353
360
368
377
385
394
401
408
414
420
427
433
438
442
446
449
453
457
460
462
464
465
467
468
470
472
471
472
471
472
473
473
473
472
472
471
471
471
471
470
468
467
466
464
462
461
458
455
452
449
446
443
439
435
431
427
422
419
416
411
407
403
399
395
392
388
384
380
376
373
369
366
362
358
353
350
346
342
338
334
328
323
318
314
308
303
297
290
284
277
271
265
258
250
243
236
229
222
215
209
201
195
189
182
177
171
166
160
155
151
147
143
140
136
132
129
127
126
124
123
120
119
118
117
118
117
116
115
114
114
114
114
114
114
113
112
113
113
113
113
112
112
112
112
112
113
112
111
110
110
109
110
109
108
108
107
106
107
106
105
105
104
104
104
104
104
104
104
103
102
103
103
103
103
102
102
103
103
104
104
103
103
103
103
103
104
103
103
103
103
102
102
102
102
101
100
100
100
101
99
99
98
98
97
97
97
96
96
95
95
94
95
94
93
93
93
93
93
94
94
93
93
93
93
94
94
94
94
93
94
94
94
94
93
93
93
93
93
93
93
92
91
92
91
91
92
91
91
89
89
90
89
89
88
87
87
86
87
86
86
85
85
84
84
84
83
83
83
82
82
82
81
81
81
81
80
80
81
80
81
80
79
80
80
80
80
80
80
78
79
80
79
79
79
79
78
79
79
79
79
79
78
78
79
79
79
79
78
79
79
80
80
80
79
79
79
79
79
80
79
79
79
79
79
80
80
80
79
79
79
79
79
80
79
80
79
80
82
82
83
83
84
85
86
88
89
90
91
91
92
95
96
97
99
99
101
103
104
106
108
109
110
112
114
116
118
119
120
122
124
126
128
129
131
132
133
136
138
139
141
143
144
145
147
150
152
154
155
156
158
161
163
164
166
166
168
169
171
173
172
173
174
175
175
176
177
177
177
176
176
177
177
177
177
176
176
176
175
175
175
173
173
172
172
172
171
170
169
169
167
167
166
165
164
163
162
162
161
161
159
158
158
156
156
156
155
155
153
152
152
151
151
150
149
148
147
147
146
146
145
144
143
142
143
143
142
142
141
140
140
140
140
140
139
139
139
139
138
139
139
138
138
138
139
139
139
138
137
136
136
136
136
136
135
134
133
133
134
133
133
132
132
132
132
133
132
132
132
131
131
131
132
131
132
131
131
131
131
131
131
130
130
130
131
131
131
132
131
131
131
131
131
132
132
132
131
132
132
132
132
131
131
130
130
131
131
129
129
128
128
129
129
128
128
127
127
127
127
127
127
126
126
126
127
127
127
127
127
127
126
126
126
126
125
125
125
125
126
125
126
125
125
125
126
126
127
127
126
125
125
125
126
125
125
124
124
124
124
123
123
123
123
122
122
122
122
121
121
121
121
120
121
120
120
119
119
119
119
120
119
119
118
118
117
118
118
118
117
117
117
117
117
117
117
117
117
117
117
117
117
117
116
117
117
118
118
118
118
117
118
118
119
119
118
118
119
119
119
119
119
119
119
119
120
120
119
119
119
118
119
118
118
119
118
118
118
118
118
119
118
118
117
117
118
118
119
118
117
117
118
118
118
118
117
117
117
117
117
118
118
118
118
118
119
119
120
120
119
119
119
119
120
120
120
120
120
120
120
121
120
120
120
120
121
121
121
121
121
121
121
122
123
123
124
124
123
125
125
125
125
125
126
126
127
128
127
127
127
127
127
127
127
127
127
126
126
126
126
126
126
127
126
126
127
127
128
128
128
127
127
128
128
128
128
128
128
128
129
129
128
128
128
128
128
129
128
128
128
127
127
127
127
127
127
126
126
125
126
127
126
126
126
125
126
126
126
126
126
126
126
126
127
126
126
126
126
126
126
127
127
126
126
125
125
125
125
123
122
122
121
121
121
120
120
119
118
118
118
117
117
117
116
116
116
116
116
116
116
116
115
115
115
115
115
114
114
114
114
115
114
113
112
112
113
113
113
113
112
112
112
112
112
112
112
111
111
112
111
112
112
112
111
112
113
113
113
113
113
113
113
113
114
114
114
113
114
114
114
114
115
114
113
113
114
114
115
115
115
114
113
114
114
114
113
113
113
113
113
113
113
112
112
112
112
112
112
112
112
111
111
111
112
111
111
111
110
110
110
110
110
110
109
109
110
110
110
109
108
107
107
107
107
108
108
107
108
109
111
113
114
116
118
121
124
129
132
137
141
147
152
159
166
173
180
187
194
201
210
219
227
235
243
252
260
269
278
286
294
301
309
318
326
333
340
346
353
359
366
373
378
383
387
392
398
401
406
409
411
415
417
419
422
424
424
425
426
427
427
428
428
428
427
427
427
427
427
426
424
424
422
421
420
419
416
414
412
409
407
405
402
399
395
393
389
386
383
380
377
372
369
366
362
359
355
352
349
346
343
340
336
333
329
325
322
319
315
311
307
302
297
294
289
284
278
272
267
260
255
249
242
235
228
222
215
208
202
195
187
181
174
168
162
157
150
144
139
134
129
125
122
118
114
110
109
106
105
103
101
99
98
97
96
94
94
93
92
92
91
91
91
89
89
89
88
88
89
88
87
87
85
86
85
85
84
83
82
83
83
83
83
82
81
82
81
82
81
81
81
80
80
80
80
80
79
79
78
78
78
78
78
78
77
77
78
78
77
77
77
76
76
76
77
77
76
75
76
75
76
76
76
75
74
74
75
75
76
75
75
74
74
74
75
74
74
74
73
73
74
74
73
73
72
72
73
73
72
72
72
71
70
70
71
70
70
68
68
68
68
68
67
66
66
66
66
66
66
65
65
64
64
65
64
64
64
64
63
63
64
63
63
62
62
62
62
62
62
62
62
60
60
61
61
60
60
60
60
60
60
60
60
59
59
59
59
59
59
59
58
58
58
57
58
58
56
56
56
56
57
56
56
55
55
55
55
56
55
55
55
54
53
54
55
55
54
54
54
54
54
54
54
54
54
54
54
55
55
56
55
55
55
56
56
57
57
58
57
58
59
60
60
60
60
61
62
63
63
64
65
65
66
67
68
69
70
71
72
73
74
76
77
77
79
79
81
83
85
86
87
89
90
92
93
94
96
97
98
101
102
103
105
106
107
110
111
113
115
117
118
119
120
123
125
126
128
129
131
134
135
138
139
140
141
143
144
146
146
148
148
148
149
150
151
151
151
151
150
151
151
152
151
150
151
150
149
149
150
148
147
146
146
146
146
145
144
143
142
141
140
140
139
137
136
134
135
134
133
132
131
129
128
128
127
127
125
124
123
122
122
121
121
119
119
119
118
118
118
117
116
116
115
115
115
115
114
113
113
113
113
112
112
112
111
111
111
111
111
110
109
109
109
109
110
109
109
109
108
108
108
109
108
107
107
107
108
108
108
108
107
107
107
107
106
106
106
106
105
105
105
105
104
104
104
104
104
104
104
104
104
103
103
103
104
104
104
103
103
103
103
103
103
103
102
102
102
103
102
102
101
101
101
101
102
101
101
101
101
101
102
101
101
101
101
101
101
102
101
102
100
100
100
100
101
100
100
99
98
99
100
99
99
98
98
98
98
98
99
97
97
97
97
97
97
97
96
95
96
95
96
96
95
95
95
95
95
95
96
96
95
94
95
95
96
96
95
95
95
94
95
95
94
94
94
94
94
95
94
94
94
93
93
93
94
93
93
92
92
92
93
93
92
92
91
91
92
92
93
92
91
91
92
92
92
91
92
91
91
91
91
91
91
91
91
91
91
92
92
92
91
91
91
92
92
92
92
92
92
92
92
93
93
92
92
93
93
93
94
93
92
93
93
93
93
94
93
93
92
93
92
93
93
93
93
93
93
94
94
94
93
93
93
93
94
94
94
94
93
93
94
94
94
94
94
94
95
95
95
96
95
95
95
95
96
95
95
94
94
94
94
95
94
94
94
94
94
94
94
94
94
94
94
94
95
95
94
94
94
94
95
94
94
94
94
94
94
95
94
95
95
94
94
95
95
95
95
95
95
94
95
96
95
94
94
95
96
96
95
95
95
94
95
95
96
96
95
95
95
95
96
96
96
95
95
95
96
96
97
96
96
95
95
96
96
96
95
94
95
95
94
95
94
94
93
93
94
94
95
94
94
93
95
95
95
95
94
95
94
95
96
96
97
96
96
97
97
97
98
97
96
97
96
97
96
96
97
96
95
95
96
96
95
95
95
95
95
96
96
95
95
95
95
95
95
95
95
94
94
94
95
95
95
95
94
95
95
95
96
95
96
95
95
95
96
96
95
95
94
95
95
95
95
95
94
94
95
95
95
95
94
95
95
95
95
95
95
96
95
96
97
97
98
98
98
98
99
101
100
101
100
100
101
102
102
102
103
102
103
102
103
103
103
102
103
103
103
103
104
104
103
103
102
103
103
103
103
103
103
103
104
104
104
104
104
104
105
106
106
106
105
105
105
105
105
105
106
105
104
105
104
105
105
105
104
104
105
105
104
105
104
104
104
105
104
104
105
105
104
104
105
106
106
106
106
106
107
107
107
106
106
106
106
106
107
107
106
105
105
104
104
104
103
102
100
100
100
100
99
98
97
97
97
97
96
96
95
95
95
95
95
96
95
95
96
96
96
96
97
96
97
96
96
97
97
97
97
97
97
97
97
97
97
97
97
96
96
96
97
96
96
95
95
95
96
95
95
95
94
94
94
95
95
94
94
94
94
95
95
94
94
95
94
95
95
95
94
94
93
94
94
94
94
94
94
94
94
94
95
94
94
94
94
94
94
94
94
93
94
94
94
95
94
93
94
94
94
94
94
93
93
93
92
93
92
91
92
90
90
89
89
88
88
87
86
86
86
87
88
88
88
90
91
94
96
99
102
104
109
112
118
124
129
134
140
147
154
162
169
177
183
191
198
207
215
223
229
237
245
253
260
267
275
281
289
296
303
311
316
323
328
334
338
344
349
353
357
361
364
368
372
374
377
379
380
382
383
385
386
386
387
387
387
387
387
387
387
385
385
384
383
383
381
379
379
377
375
375
372
371
368
367
364
362
359
357
354
352
349
347
344
341
338
335
332
329
327
324
322
319
315
313
310
307
305
302
299
296
293
289
286
282
278
274
269
265
260
255
250
244
239
232
226
220
214
206
199
192
186
179
172
166
159
152
145
140
134
129
124
118
113
109
105
102
99
95
93
89
87
86
83
83
82
80
79
78
78
77
77
76
75
75
74
74
75
74
73
72
72
72
72
72
71
70
70
70
70
70
71
70
69
68
68
69
69
69
68
68
69
69
68
69
68
68
68
68
68
68
68
68
68
67
67
67
67
67
66
66
66
66
66
66
66
64
63
63
64
64
64
63
63
62
62
63
63
62
62
61
61
61
62
62
62
62
61
61
62
62
62
62
61
60
60
61
61
60
60
59
59
59
60
60
59
59
58
58
59
59
58
58
58
58
57
58
57
57
56
55
56
56
56
56
55
55
54
54
55
54
54
54
52
52
52
52
52
52
51
51
50
50
51
51
51
50
49
49
50
50
50
50
49
48
48
48
49
49
48
47
47
47
48
48
48
47
47
47
47
48
48
47
47
47
47
46
47
46
46
45
45
46
45
46
45
45
45
45
45
45
45
44
44
43
43
44
45
45
44
44
44
44
45
45
45
45
45
45
46
47
47
47
47
47
47
48
49
49
50
50
51
51
52
53
54
54
55
56
58
58
59
60
61
62
63
65
66
66
68
69
70
71
72
74
76
76
78
79
80
82
84
84
85
86
88
90
92
93
94
95
97
99
101
103
103
105
106
108
111
113
114
116
116
117
119
121
122
124
124
125
127
128
129
130
130
131
132
133
133
134
135
134
135
134
135
135
136
135
134
135
133
134
134
133
133
132
131
131
131
131
130
129
128
127
127
127
125
125
123
122
121
120
120
119
118
117
115
115
115
114
113
112
111
110
109
109
108
108
108
106
105
105
105
105
104
104
103
103
102
102
102
101
101
100
100
100
100
99
99
98
98
97
97
97
97
95
94
94
94
95
94
94
93
93
93
93
93
93
92
91
91
92
91
91
92
91
91
91
91
92
93
92
92
92
92
92
92
92
92
92
91
92
91
92
92
91
91
91
91
92
91
91
91
90
91
90
91
90
89
90
89
90
89
90
90
89
88
88
89
89
89
88
88
88
88
88
87
87
87
86
86
87
87
87
87
86
86
86
86
87
87
86
86
85
86
87
87
86
86
85
85
85
85
85
85
83
83
83
83
83
83
83
82
82
82
82
81
81
80
79
80
80
81
80
80
79
79
78
79
79
79
79
78
78
77
78
78
78
78
77
77
77
78
78
77
77
77
78
77
79
78
77
77
78
78
78
78
78
78
78
77
77
77
78
77
77
77
77
77
78
77
78
76
76
77
77
77
76
76
75
76
75
75
76
75
74
75
75
75
75
75
74
75
75
74
75
75
75
74
75
74
75
76
76
76
76
75
76
76
77
77
77
77
76
77
77
78
77
77
76
77
77
77
77
77
77
77
77
77
78
78
77
77
76
77
78
77
77
78
77
76
77
78
78
77
77
77
77
78
78
78
77
77
77
78
78
78
78
77
77
78
78
78
78
79
78
77
78
78
79
80
79
79
79
79
79
80
80
79
79
79
79
79
79
79
78
78
78
79
79
78
78
78
77
77
78
78
78
77
77
77
78
78
78
77
77
77
78
78
78
78
78
77
77
76
77
77
77
76
76
76
76
76
77
76
76
75
77
77
77
77
76
76
75
76
76
77
77
76
76
76
76
76
77
76
76
76
76
76
78
78
78
78
77
78
78
79
79
79
79
79
80
80
80
81
80
80
81
81
82
81
82
80
81
81
81
81
82
81
81
80
81
82
82
81
81
82
82
82
83
84
84
83
83
83
84
84
85
84
84
83
84
85
85
84
84
85
85
86
86
87
86
87
86
86
88
88
88
88
88
88
88
89
89
89
88
87
88
88
89
89
88
89
88
88
88
89
88
87
86
87
86
86
86
85
85
84
84
84
84
84
83
83
82
82
83
83
83
83
83
82
82
83
83
84
83
84
84
84
85
84
83
83
82
82
82
81
81
80
79
78
78
78
77
77
75
74
75
75
75
74
74
74
74
73
74
74
74
74
74
73
74
74
75
75
75
74
73
74
75
74
74
73
73
73
73
73
73
72
72
72
72
72
72
72
71
71
71
72
72
73
72
72
71
73
72
73
73
73
72
72
72
72
72
72
71
71
71
71
72
71
70
70
69
69
69
69
69
69
69
68
68
69
69
69
69
69
69
70
70
71
70
70
71
71
71
71
71
71
71
70
70
71
71
71
70
70
70
70
71
70
69
69
68
69
67
68
67
66
64
64
64
64
63
63
62
62
62
63
64
64
66
67
68
72
74
77
81
85
88
93
99
104
111
117
122
129
136
144
152
159
166
173
181
189
196
204
212
219
227
234
242
250
257
264
271
277
284
292
298
305
310
315
321
326
331
336
340
344
347
351
354
357
359
362
362
364
366
368
369
369
370
369
369
369
369
369
369
367
366
365
364
362
361
359
358
355
354
352
351
349
346
344
340
337
336
332
329
326
323
320
318
315
312
309
306
303
300
298
296
294
290
287
285
282
280
277
275
270
267
263
260
256
252
246
242
236
230
225
220
214
206
200
193
185
179
172
165
157
150
143
136
130
124
117
110
104
99
94
89
85
80
76
72
69
66
64
62
58
57
55
54
53
52
51
49
48
48
49
49
48
47
46
46
46
46
46
45
45
44
44
44
44
44
43
43
43
43
43
44
44
43
43
42
42
43
43
42
42
42
41
41
40
40
40
38
38
38
38
37
38
37
36
35
35
36
35
35
35
34
34
35
34
35
35
35
34
34
35
36
35
35
34
34
34
34
35
35
34
34
34
34
33
34
33
33
33
33
32
33
32
31
31
31
31
31
30
30
30
29
29
29
29
29
28
27
28
28
28
28
28
28
28
28
28
28
28
28
27
27
27
27
27
28
27
27
26
26
26
27
26
26
24
24
24
23
24
24
23
22
22
22
22
22
21
20
20
20
20
21
21
21
20
20
20
20
21
20
20
19
18
18
18
18
18
17
16
16
17
17
17
17
16
16
16
16
17
16
16
16
16
16
16
16
16
16
16
16
16
16
16
16
15
16
16
16
16
16
16
15
15
15
16
17
17
17
17
17
18
19
19
20
20
20
21
21
22
22
22
23
24
24
25
26
27
27
28
28
30
31
32
33
34
34
35
37
39
40
41
42
44
45
47
49
50
51
53
54
56
58
60
61
62
63
64
67
68
70
71
72
74
75
77
80
81
82
83
86
88
89
91
93
94
95
97
98
100
101
101
102
104
105
107
107
108
107
107
108
109
110
109
109
108
108
108
107
107
107
106
106
105
104
104
103
103
103
102
101
101
101
101
100
99
99
99
99
98
97
96
96
95
94
93
93
91
89
88
87
87
86
85
84
83
82
81
80
80
80
79
79
77
77
77
77
76
76
75
75
75
75
75
74
72
72
72
71
71
70
69
69
68
67
68
67
67
67
66
67
67
67
67
66
67
66
67
67
67
67
66
65
65
66
65
66
65
64
63
63
63
63
63
63
62
62
62
63
62
62
62
61
62
61
61
62
62
60
61
60
60
60
60
59
58
57
57
57
57
56
56
55
55
56
56
57
56
56
56
58
58
59
60
59
60
59
59
61
61
61
60
60
59
59
59
59
58
57
57
56
56
56
56
56
55
54
54
54
55
55
54
53
53
53
54
54
53
53
53
53
54
54
54
54
54
54
54
54
55
55
55
55
54
54
55
54
54
53
53
52
52
53
52
51
50
49
49
49
48
48
47
47
47
47
47
47
48
47
48
48
49
49
50
50
49
50
50
50
51
51
50
50
50
50
50
50
49
49
48
48
48
48
47
48
47
46
46
46
46
46
46
46
46
47
47
47
47
46
47
47
48
48
49
48
47
47
47
48
47
47
47
46
47
47
47
47
47
46
46
47
47
48
48
48
47
47
48
48
49
50
50
49
50
50
50
50
50
50
50
50
51
50
50
49
49
49
49
49
49
49
48
48
48
48
49
49
50
49
49
50
51
52
53
53
53
54
55
55
56
56
57
56
57
58
58
58
58
58
59
58
59
60
59
59
58
58
57
58
58
58
57
57
56
57
57
58
57
57
57
57
58
59
58
58
58
58
58
58
59
59
59
58
59
58
58
59
59
57
58
58
58
58
58
57
57
56
56
57
57
58
57
56
56
56
56
57
56
56
57
57
57
58
59
58
57
58
57
58
59
59
58
57
58
57
56
56
55
55
53
53
53
52
52
51
49
49
47
48
47
46
45
45
45
45
45
45
45
45
44
45
45
46
46
46
45
46
45
46
46
46
46
46
46
46
46
47
46
46
46
46
46
47
47
47
47
47
47
47
48
48
48
47
47
47
48
48
48
47
47
47
48
48
47
47
46
46
45
45
46
46
45
44
45
44
44
44
44
43
43
43
43
44
44
44
43
43
43
44
44
44
44
43
44
44
45
44
45
45
44
45
46
46
46
46
46
45
46
47
47
47
46
47
46
46
46
46
45
44
44
43
43
43
43
43
42
42
42
42
43
44
46
47
50
52
55
60
64
68
73
80
86
93
100
107
113
122
129
138
147
155
163
172
180
189
198
207
215
223
231
240
248
257
265
272
278
285
293
300
306
313
318
324
329
334
339
343
347
350
353
355
359
361
363
364
365
365
367
368
368
369
369
368
368
368
368
368
366
366
365
365
364
363
362
361
359
357
355
354
352
350
346
343
340
337
335
331
328
324
320
317
313
310
306
303
298
294
290
287
283
279
276
272
268
264
262
258
254
250
246
242
238
234
229
224
218
213
207
202
195
190
183
176
169
162
155
149
142
134
127
120
114
108
101
94
88
82
77
72
66
62
57
52
49
46
43
40
37
35
33
31
30
29
28
26
25
24
24
23
23
22
22
20
20
20
20
20
19
19
18
18
19
19
18
17
17
17
17
17
17
17
16
16
16
15
16
16
15
15
15
15
15
14
14
15
13
13
13
13
13
13
13
12
12
11
12
11
12
11
10
11
12
12
12
11
11
10
11
11
12
11
11
10
9
10
10
10
9
8
8
8
9
9
8
8
7
6
6
7
7
7
6
6
6
6
6
5
5
5
4
5
5
5
6
5
5
4
4
5
4
4
3
3
4
4
3
4
3
3
2
2
3
4
3
2
2
2
1
2
2
1
1
0
0
0
0
0
-1
-1
-2
-2
-1
-2
-3
-2
-4
-4
-4
-4
-3
-4
-5
-5
-5
-5
-4
-5
-5
-6
-6
-6
-6
-5
-5
-6
-6
-7
-7
-6
-7
-7
-7
-8
-7
-8
-8
-8
-8
-9
-10
-10
-9
-9
-9
-9
-11
-11
-11
-10
-11
-11
-11
-11
-11
-11
-10
-10
-10
-10
-10
-10
-9
-8
-8
-8
-8
-8
-7
-7
-7
-6
-7
-6
-6
-5
-4
-4
-4
-4
-3
-2
-1
0
1
1
1
2
3
