# Simple Text Format
# Sampling Rate (Hz):= 1200.00
# Resolution:= 12
# Labels:= ECG	 I 
# Age:=	77
# Gender:=	Feminino
0
0
0
0
0
0
0
0
0
0
0
0
0
0
0
0
0
0
0
0
0
0
0
0
0
0
0
0
0
0
0
0
0
0
0
0
0
0
0
0
0
0
0
0
0
0
0
0
0
0
0
0
0
0
0
0
0
0
0
0
0
0
0
0
0
0
0
0
0
0
0
0
0
0
0
0
0
0
0
0
0
0
0
0
0
0
0
0
0
0
0
0
0
0
0
0
0
0
0
0
0
0
0
0
0
0
0
0
0
0
0
0
0
0
0
0
0
0
0
0
0
0
0
0
0
0
0
0
0
0
0
0
0
0
0
0
0
0
0
0
0
0
0
0
0
0
0
0
0
0
0
0
0
0
0
0
0
0
0
0
0
0
0
0
0
0
0
0
0
0
0
0
0
0
0
0
0
0
0
0
0
0
0
0
0
0
0
0
0
0
0
0
0
0
0
0
0
0
0
0
0
0
0
0
0
0
0
0
0
0
0
0
0
0
0
0
0
0
0
0
0
0
0
0
0
0
0
0
0
0
0
0
0
0
0
0
0
0
0
0
0
0
0
0
0
0
0
0
0
0
0
0
0
0
0
0
0
0
0
0
0
0
0
0
0
0
0
0
0
0
0
0
0
0
0
0
0
0
0
0
0
0
0
0
0
0
0
0
0
0
0
0
0
0
0
0
0
0
0
0
0
0
0
0
0
0
0
0
0
0
0
0
0
0
0
0
0
0
0
0
0
0
0
0
0
0
0
0
0
0
0
0
0
0
0
0
0
0
0
0
0
0
0
0
0
0
0
0
0
0
0
0
0
0
0
0
0
0
0
0
0
0
0
0
0
0
0
0
0
0
0
0
0
0
0
0
0
0
0
0
0
0
0
0
0
0
0
0
0
0
0
0
0
0
0
0
0
0
0
0
0
0
0
0
0
0
0
0
0
0
0
0
0
0
0
0
0
0
0
0
0
0
0
0
0
0
0
0
0
0
0
0
0
0
0
0
0
0
0
0
0
0
0
0
0
0
0
0
0
0
0
0
0
0
0
0
0
0
0
0
0
0
0
0
0
0
0
0
0
0
0
0
0
0
0
0
0
0
0
0
0
0
0
0
0
0
0
0
0
0
0
0
0
0
0
0
0
0
0
0
0
0
0
0
0
0
0
0
0
0
0
0
0
0
0
0
0
0
0
0
0
0
0
0
0
0
0
0
0
0
0
0
0
0
0
0
0
0
0
0
0
0
0
0
0
0
0
0
0
0
0
0
0
0
0
0
0
0
0
0
0
0
0
0
0
0
0
0
0
0
0
0
0
0
0
0
0
0
0
0
0
0
0
0
0
0
0
0
0
0
0
0
0
0
0
0
0
0
0
0
0
0
0
0
0
0
0
0
0
0
0
0
0
0
0
0
0
0
0
0
0
0
0
0
0
0
0
0
0
0
0
0
0
0
0
0
0
0
0
0
0
0
0
0
0
0
0
0
0
0
0
0
0
0
0
0
0
0
0
0
0
0
0
0
0
0
0
0
0
0
0
0
0
0
0
0
0
0
0
0
0
0
0
0
0
0
0
0
0
0
0
0
0
0
0
0
0
0
0
0
0
0
0
0
0
0
0
0
0
0
0
0
0
0
0
0
0
0
0
0
0
0
0
0
0
0
0
0
0
0
0
0
0
0
0
0
0
0
0
0
0
0
0
0
0
0
0
0
0
0
0
0
0
0
0
0
0
0
0
0
0
0
0
0
0
0
0
0
0
0
0
0
0
0
0
0
0
0
0
0
0
0
0
0
0
0
0
0
0
0
0
0
0
0
0
0
0
0
0
0
0
0
0
0
0
0
0
0
0
0
0
0
0
0
0
0
0
0
0
0
0
0
0
0
0
0
0
0
0
0
0
0
0
0
0
0
0
0
0
0
0
0
0
0
0
0
0
0
0
0
0
0
0
0
0
0
0
0
0
0
0
0
0
0
0
0
0
0
0
0
0
0
0
0
0
0
0
0
0
0
0
0
0
0
0
0
0
0
0
0
0
0
0
0
0
0
0
0
0
0
0
0
0
0
0
0
0
0
0
0
0
0
0
0
0
0
0
0
0
0
0
0
0
0
0
0
0
0
0
0
0
0
0
0
0
0
0
0
0
0
0
0
0
0
0
0
0
0
0
0
0
0
0
0
0
0
0
0
0
0
0
0
0
0
0
0
0
0
0
0
0
0
0
0
0
0
0
0
0
0
0
0
0
0
0
0
0
0
0
0
0
0
0
0
0
0
0
0
0
0
0
0
0
0
0
0
0
0
0
0
0
0
0
0
0
0
0
0
0
0
0
0
0
0
0
0
0
0
0
0
0
0
0
0
0
0
0
0
0
0
0
0
0
0
0
0
0
0
0
0
0
0
0
0
0
0
0
0
0
0
0
0
0
0
0
0
0
0
0
0
0
0
0
0
0
0
0
0
-79
-78
-78
-77
-77
-75
-76
-76
-75
-76
-75
-75
-75
-75
-76
-75
-76
-76
-75
-76
-76
-77
-78
-78
-77
-78
-78
-79
-79
-79
-79
-78
-78
-78
-79
-78
-79
-78
-77
-78
-77
-78
-78
-77
-77
-77
-77
-77
-77
-77
-77
-77
-76
-77
-76
-76
-76
-76
-77
-77
-77
-77
-77
-78
-77
-77
-76
-76
-76
-77
-76
-76
-76
-76
-76
-76
-76
-76
-75
-75
-75
-75
-76
-75
-76
-76
-76
-77
-77
-77
-77
-78
-78
-78
-78
-78
-78
-78
-78
-78
-78
-78
-78
-77
-77
-77
-76
-76
-76
-76
-75
-74
-74
-74
-75
-74
-75
-75
-74
-74
-75
-75
-75
-75
-75
-74
-75
-75
-75
-75
-75
-76
-76
-76
-76
-77
-76
-76
-76
-76
-77
-77
-77
-77
-76
-77
-76
-77
-77
-77
-77
-76
-77
-76
-76
-76
-76
-76
-76
-75
-76
-75
-76
-75
-75
-74
-74
-74
-74
-73
-73
-73
-72
-72
-71
-71
-71
-69
-69
-68
-69
-69
-69
-68
-67
-67
-67
-67
-67
-66
-66
-66
-65
-66
-65
-65
-64
-64
-64
-63
-63
-63
-64
-63
-63
-63
-62
-62
-62
-62
-62
-62
-62
-62
-62
-62
-63
-62
-62
-62
-63
-63
-63
-63
-63
-63
-63
-63
-64
-63
-64
-64
-63
-64
-64
-64
-64
-64
-65
-64
-65
-65
-65
-65
-65
-65
-65
-66
-66
-67
-67
-68
-68
-68
-68
-69
-69
-68
-69
-70
-69
-71
-71
-71
-71
-72
-73
-73
-74
-74
-74
-75
-74
-75
-75
-76
-75
-75
-75
-76
-77
-77
-77
-76
-77
-77
-76
-77
-77
-76
-77
-77
-76
-76
-77
-76
-77
-77
-76
-76
-76
-76
-76
-76
-75
-75
-76
-76
-76
-76
-76
-75
-75
-76
-76
-76
-76
-76
-76
-76
-76
-77
-77
-77
-77
-77
-77
-77
-77
-77
-77
-76
-76
-76
-78
-77
-78
-77
-78
-77
-78
-78
-78
-78
-78
-78
-78
-79
-80
-80
-80
-79
-79
-79
-80
-79
-79
-79
-79
-78
-78
-79
-79
-79
-79
-79
-78
-79
-78
-78
-78
-78
-79
-78
-78
-79
-79
-79
-79
-80
-80
-81
-81
-82
-81
-82
-82
-83
-82
-81
-79
-78
-77
-74
-72
-69
-65
-62
-57
-51
-45
-40
-32
-24
-17
-9
-1
8
17
28
37
48
58
68
77
87
97
107
116
125
134
142
149
157
164
171
177
182
187
191
195
199
202
205
208
209
210
210
211
211
209
209
207
207
205
204
203
201
199
197
195
194
191
190
188
186
185
183
182
180
178
176
174
172
170
168
166
163
160
156
154
151
148
145
142
138
134
131
128
124
120
116
111
107
103
99
95
89
85
81
76
72
67
63
58
54
49
45
40
36
31
28
24
19
15
11
7
3
-2
-6
-9
-13
-17
-21
-26
-29
-34
-37
-41
-45
-48
-52
-57
-60
-63
-66
-69
-72
-74
-77
-78
-81
-82
-84
-86
-87
-88
-90
-90
-92
-93
-93
-93
-94
-95
-96
-97
-97
-97
-98
-98
-99
-100
-101
-100
-102
-101
-101
-101
-103
-103
-102
-102
-102
-103
-102
-103
-102
-103
-103
-103
-102
-103
-103
-103
-103
-103
-102
-102
-102
-102
-103
-103
-103
-103
-103
-103
-104
-103
-104
-104
-104
-104
-104
-103
-103
-103
-103
-102
-103
-103
-103
-102
-102
-103
-102
-103
-103
-103
-103
-103
-103
-103
-103
-103
-103
-104
-103
-103
-104
-105
-105
-105
-106
-106
-106
-106
-106
-107
-106
-106
-106
-106
-107
-107
-107
-107
-106
-106
-106
-107
-107
-107
-107
-107
-107
-108
-107
-108
-108
-108
-107
-108
-108
-109
-109
-109
-110
-110
-110
-111
-111
-111
-112
-113
-113
-114
-114
-115
-115
-115
-116
-116
-116
-117
-117
-118
-118
-118
-119
-119
-119
-119
-119
-119
-119
-119
-120
-120
-121
-121
-120
-121
-121
-121
-121
-121
-122
-122
-123
-123
-123
-125
-124
-125
-125
-126
-127
-128
-128
-128
-129
-129
-131
-131
-131
-132
-132
-132
-132
-133
-133
-134
-134
-134
-134
-135
-135
-136
-136
-135
-136
-135
-135
-135
-135
-136
-135
-136
-135
-135
-136
-135
-136
-136
-135
-136
-136
-136
-136
-137
-136
-137
-138
-138
-137
-137
-137
-137
-137
-137
-138
-137
-137
-136
-136
-136
-135
-136
-135
-134
-133
-133
-132
-131
-130
-129
-127
-126
-125
-125
-124
-123
-122
-121
-120
-119
-118
-117
-116
-115
-114
-113
-112
-111
-110
-109
-107
-106
-105
-104
-102
-100
-99
-97
-95
-94
-93
-91
-90
-87
-86
-84
-83
-82
-80
-78
-76
-75
-74
-73
-72
-70
-70
-68
-67
-67
-66
-66
-64
-64
-63
-63
-62
-62
-61
-61
-60
-60
-60
-61
-60
-60
-60
-60
-60
-60
-59
-60
-60
-60
-60
-59
-60
-59
-59
-59
-59
-59
-59
-60
-60
-60
-60
-60
-60
-60
-60
-61
-60
-61
-61
-61
-61
-62
-62
-62
-62
-62
-64
-64
-65
-65
-66
-66
-66
-67
-67
-68
-69
-68
-69
-69
-69
-70
-70
-70
-70
-69
-70
-70
-70
-71
-71
-70
-71
-71
-71
-71
-72
-71
-71
-72
-72
-72
-72
-72
-71
-71
-71
-71
-72
-71
-71
-70
-71
-71
-71
-71
-71
-71
-70
-71
-71
-72
-72
-71
-71
-71
-71
-71
-71
-72
-72
-72
-72
-73
-73
-74
-74
-74
-74
-74
-74
-74
-75
-74
-74
-74
-74
-74
-75
-75
-75
-74
-75
-75
-75
-75
-76
-76
-76
-75
-76
-76
-76
-76
-75
-75
-76
-76
-76
-77
-76
-77
-77
-77
-77
-77
-77
-77
-77
-77
-77
-77
-78
-78
-78
-78
-78
-78
-79
-79
-79
-79
-79
-80
-79
-79
-79
-79
-78
-78
-78
-79
-79
-78
-78
-78
-78
-79
-79
-80
-79
-79
-80
-81
-80
-81
-81
-81
-81
-81
-81
-81
-81
-81
-80
-80
-79
-80
-80
-80
-79
-79
-78
-78
-79
-79
-78
-78
-79
-79
-79
-80
-80
-80
-79
-80
-80
-80
-80
-80
-80
-80
-80
-80
-80
-80
-80
-79
-79
-79
-79
-79
-79
-78
-78
-78
-77
-78
-78
-78
-77
-77
-77
-78
-78
-78
-78
-78
-78
-78
-78
-78
-78
-78
-78
-78
-78
-78
-79
-78
-78
-78
-78
-78
-78
-77
-77
-77
-76
-76
-76
-75
-75
-74
-74
-74
-73
-74
-74
-74
-73
-74
-74
-74
-74
-74
-74
-74
-74
-75
-74
-74
-75
-75
-74
-74
-74
-75
-74
-74
-73
-73
-73
-73
-73
-73
-73
-72
-72
-72
-72
-72
-72
-72
-71
-71
-71
-72
-72
-72
-72
-72
-72
-72
-72
-72
-71
-71
-71
-71
-71
-72
-72
-72
-71
-71
-71
-71
-71
-71
-71
-70
-70
-70
-70
-71
-71
-70
-70
-69
-69
-69
-69
-68
-68
-67
-68
-68
-69
-70
-69
-68
-69
-69
-68
-69
-68
-68
-67
-67
-67
-66
-66
-65
-65
-64
-64
-63
-63
-62
-61
-61
-60
-59
-60
-59
-58
-59
-57
-57
-57
-57
-57
-57
-56
-56
-56
-56
-56
-56
-56
-56
-56
-56
-56
-56
-56
-56
-56
-56
-57
-57
-57
-57
-57
-58
-58
-58
-59
-59
-59
-59
-59
-59
-60
-60
-60
-61
-60
-61
-60
-61
-60
-60
-61
-60
-61
-60
-61
-61
-60
-60
-60
-60
-61
-61
-61
-61
-61
-62
-63
-63
-64
-64
-64
-65
-65
-66
-67
-67
-68
-68
-69
-69
-69
-70
-71
-71
-71
-71
-71
-71
-71
-70
-71
-71
-70
-71
-71
-71
-70
-70
-71
-71
-70
-70
-70
-69
-70
-70
-69
-70
-70
-69
-69
-68
-69
-69
-69
-69
-69
-69
-69
-70
-69
-70
-70
-70
-70
-69
-70
-70
-70
-71
-71
-71
-72
-72
-72
-73
-73
-73
-72
-72
-73
-73
-73
-73
-73
-73
-73
-73
-73
-73
-72
-71
-72
-72
-72
-72
-72
-71
-71
-71
-72
-72
-71
-71
-70
-70
-70
-70
-70
-70
-69
-70
-70
-70
-71
-71
-71
-72
-72
-73
-73
-74
-74
-75
-75
-76
-77
-78
-77
-78
-79
-78
-79
-80
-80
-79
-78
-76
-75
-73
-71
-68
-64
-60
-56
-51
-45
-40
-34
-27
-19
-10
-2
7
16
25
35
44
54
64
73
83
92
101
111
119
128
135
143
150
158
164
170
176
181
186
189
194
197
200
202
204
206
208
210
211
211
211
212
211
210
210
210
208
206
206
204
203
200
199
196
195
192
191
189
187
185
182
179
177
174
171
169
166
163
160
158
155
151
149
145
142
139
135
132
128
123
120
116
112
108
103
98
94
90
85
81
76
71
66
61
56
51
47
42
38
34
29
25
21
17
12
9
4
1
-3
-7
-10
-14
-17
-21
-25
-28
-31
-34
-37
-40
-43
-46
-49
-52
-55
-58
-61
-64
-66
-68
-70
-72
-74
-76
-77
-78
-79
-80
-81
-82
-82
-83
-83
-83
-84
-84
-84
-84
-84
-84
-84
-83
-84
-85
-86
-85
-86
-86
-86
-86
-86
-86
-86
-86
-87
-87
-87
-88
-88
-88
-89
-89
-90
-91
-91
-91
-91
-91
-91
-90
-91
-91
-91
-91
-91
-91
-91
-91
-91
-91
-91
-91
-91
-92
-91
-91
-92
-92
-91
-92
-92
-92
-92
-92
-93
-92
-92
-93
-93
-93
-93
-93
-93
-94
-94
-95
-94
-94
-94
-94
-94
-94
-94
-95
-94
-95
-95
-95
-95
-95
-96
-96
-97
-97
-98
-97
-98
-97
-97
-98
-99
-98
-98
-99
-99
-99
-99
-100
-100
-99
-99
-99
-100
-99
-100
-99
-99
-99
-99
-100
-100
-101
-101
-101
-101
-102
-102
-103
-103
-103
-103
-103
-105
-105
-105
-106
-106
-106
-107
-107
-107
-107
-107
-107
-107
-108
-109
-109
-110
-110
-110
-111
-111
-113
-113
-113
-113
-113
-113
-114
-115
-114
-115
-115
-115
-116
-117
-118
-118
-119
-118
-119
-120
-120
-120
-121
-121
-121
-122
-122
-123
-123
-123
-123
-123
-124
-124
-125
-125
-126
-125
-126
-126
-126
-126
-126
-126
-127
-127
-127
-126
-127
-126
-126
-127
-127
-127
-127
-126
-127
-126
-126
-126
-127
-126
-126
-126
-125
-125
-125
-125
-124
-123
-123
-122
-122
-122
-122
-121
-120
-119
-119
-118
-118
-117
-116
-115
-114
-113
-112
-112
-110
-109
-107
-107
-106
-105
-104
-103
-102
-100
-99
-98
-97
-96
-96
-93
-93
-91
-91
-90
-88
-87
-86
-84
-83
-82
-81
-80
-77
-76
-75
-75
-73
-72
-71
-69
-68
-67
-67
-66
-64
-63
-62
-61
-60
-60
-58
-58
-56
-56
-56
-55
-54
-55
-54
-53
-52
-52
-51
-51
-51
-50
-51
-50
-51
-50
-50
-50
-50
-51
-50
-50
-51
-52
-51
-51
-52
-51
-51
-52
-52
-52
-52
-52
-52
-53
-53
-53
-54
-53
-54
-55
-55
-55
-55
-55
-55
-55
-56
-56
-56
-56
-56
-56
-56
-57
-57
-57
-57
-56
-56
-56
-57
-57
-58
-57
-57
-58
-58
-59
-59
-59
-59
-59
-60
-61
-61
-61
-62
-63
-64
-64
-65
-66
-66
-66
-66
-66
-66
-67
-67
-67
-67
-67
-67
-67
-67
-66
-66
-66
-66
-66
-66
-65
-66
-65
-65
-65
-65
-65
-66
-66
-66
-66
-65
-66
-66
-66
-66
-67
-67
-67
-68
-68
-68
-68
-67
-67
-68
-68
-68
-66
-67
-67
-67
-67
-67
-67
-66
-67
-67
-67
-67
-68
-68
-68
-68
-68
-68
-68
-68
-68
-68
-68
-69
-68
-69
-69
-69
-69
-70
-70
-71
-71
-71
-70
-71
-72
-72
-73
-73
-73
-73
-73
-73
-74
-74
-73
-73
-72
-73
-73
-72
-72
-73
-72
-72
-72
-72
-72
-72
-72
-72
-72
-73
-73
-73
-74
-74
-74
-74
-74
-74
-74
-74
-73
-73
-73
-73
-73
-73
-72
-72
-72
-73
-72
-72
-73
-73
-72
-72
-72
-72
-72
-72
-72
-72
-73
-72
-73
-72
-72
-72
-72
-72
-72
-72
-72
-71
-70
-70
-70
-69
-70
-69
-69
-68
-68
-68
-68
-67
-67
-66
-66
-66
-66
-66
-66
-66
-66
-66
-66
-67
-67
-66
-67
-67
-67
-67
-67
-67
-68
-68
-68
-67
-68
-68
-68
-67
-68
-68
-68
-68
-68
-68
-68
-67
-68
-68
-67
-67
-67
-67
-66
-67
-67
-67
-67
-67
-66
-66
-66
-66
-65
-65
-64
-64
-64
-65
-64
-64
-63
-62
-62
-62
-62
-62
-62
-62
-61
-61
-61
-60
-61
-60
-60
-60
-60
-60
-60
-60
-60
-60
-60
-60
-61
-61
-61
-61
-61
-62
-61
-62
-62
-62
-63
-63
-63
-63
-63
-62
-62
-61
-60
-60
-60
-60
-60
-59
-59
-59
-59
-59
-58
-58
-57
-58
-57
-58
-57
-58
-57
-57
-57
-58
-58
-58
-58
-58
-57
-57
-58
-58
-59
-58
-58
-58
-57
-58
-58
-58
-58
-58
-58
-58
-58
-58
-58
-58
-57
-58
-57
-57
-57
-57
-57
-57
-56
-56
-56
-56
-56
-56
-55
-56
-55
-55
-56
-55
-55
-55
-55
-56
-55
-55
-55
-56
-55
-56
-56
-55
-55
-55
-55
-55
-55
-55
-55
-55
-54
-55
-55
-55
-54
-55
-55
-54
-55
-54
-55
-55
-54
-55
-55
-55
-55
-55
-55
-55
-55
-55
-55
-55
-54
-54
-54
-54
-53
-54
-53
-53
-53
-52
-52
-52
-52
-52
-52
-52
-51
-51
-51
-51
-52
-51
-51
-51
-50
-50
-50
-50
-49
-49
-49
-48
-48
-48
-48
-47
-47
-47
-47
-46
-46
-45
-45
-44
-44
-44
-44
-44
-44
-42
-42
-41
-41
-42
-42
-41
-39
-38
-39
-38
-39
-38
-37
-36
-35
-35
-35
-34
-34
-33
-32
-32
-33
-33
-33
-33
-33
-32
-32
-33
-33
-34
-34
-34
-33
-34
-35
-36
-36
-36
-36
-37
-37
-37
-38
-37
-37
-37
-38
-38
-38
-37
-37
-37
-37
-37
-37
-37
-37
-36
-36
-36
-36
-38
-38
-38
-37
-37
-38
-38
-39
-39
-39
-40
-40
-41
-41
-42
-42
-43
-43
-44
-45
-45
-45
-46
-46
-46
-46
-47
-46
-46
-47
-47
-47
-47
-47
-47
-46
-46
-47
-47
-48
-47
-48
-47
-47
-48
-48
-48
-47
-48
-47
-47
-48
-48
-48
-48
-47
-47
-46
-46
-47
-47
-46
-47
-47
-46
-47
-46
-46
-47
-46
-46
-46
-46
-46
-46
-46
-46
-46
-46
-46
-46
-46
-47
-47
-47
-48
-47
-48
-47
-48
-47
-48
-47
-48
-47
-47
-47
-47
-48
-47
-47
-47
-47
-47
-47
-47
-47
-47
-47
-47
-47
-46
-47
-47
-46
-46
-45
-46
-46
-46
-47
-46
-46
-46
-45
-46
-46
-47
-46
-47
-46
-47
-48
-48
-48
-50
-50
-51
-51
-52
-53
-53
-53
-53
-54
-53
-53
-52
-50
-48
-45
-44
-40
-36
-30
-25
-19
-12
-5
3
11
21
30
41
51
61
71
82
93
104
116
126
137
148
158
168
177
187
194
202
210
218
225
231
237
242
246
250
254
258
261
263
265
267
268
270
271
270
270
270
270
269
268
267
266
265
263
262
261
259
258
256
253
251
249
247
244
242
239
236
233
230
228
224
220
217
214
211
207
204
200
197
193
189
186
183
179
175
172
167
164
161
157
154
149
146
141
138
134
130
126
122
118
114
110
105
101
96
92
87
82
78
74
70
65
60
55
50
45
40
36
30
25
20
15
11
7
2
-2
-6
-11
-15
-18
-22
-25
-28
-31
-34
-36
-39
-39
-41
-43
-44
-46
-47
-47
-48
-48
-50
-50
-50
-51
-51
-51
-52
-52
-52
-52
-52
-52
-52
-52
-52
-53
-52
-52
-53
-54
-54
-54
-55
-55
-55
-56
-56
-56
-56
-57
-57
-57
-58
-58
-57
-57
-57
-57
-57
-57
-57
-57
-57
-57
-56
-56
-56
-56
-56
-55
-55
-56
-56
-56
-56
-56
-55
-56
-55
-56
-57
-57
-57
-57
-57
-58
-57
-57
-57
-57
-56
-56
-56
-56
-56
-55
-55
-55
-54
-54
-55
-55
-54
-54
-54
-54
-54
-54
-54
-54
-54
-54
-54
-54
-54
-54
-53
-54
-54
-54
-54
-55
-54
-55
-55
-55
-55
-57
-57
-57
-57
-57
-58
-58
-59
-59
-59
-60
-59
-61
-61
-61
-60
-60
-60
-61
-61
-61
-62
-61
-61
-61
-61
-62
-62
-61
-61
-61
-62
-62
-63
-63
-63
-64
-64
-65
-66
-66
-66
-67
-67
-67
-67
-67
-69
-68
-69
-69
-70
-70
-70
-70
-71
-70
-71
-71
-71
-71
-72
-72
-72
-73
-73
-74
-74
-75
-74
-75
-75
-76
-76
-77
-77
-77
-77
-78
-78
-79
-79
-79
-79
-80
-79
-80
-80
-80
-80
-80
-80
-80
-81
-81
-81
-81
-81
-81
-82
-81
-82
-82
-81
-81
-81
-80
-81
-79
-79
-78
-78
-78
-77
-77
-76
-74
-74
-73
-73
-72
-72
-70
-69
-68
-68
-67
-66
-65
-64
-63
-62
-61
-60
-59
-58
-57
-55
-55
-54
-53
-51
-50
-49
-47
-45
-45
-43
-42
-41
-40
-39
-37
-36
-35
-33
-32
-30
-29
-27
-26
-25
-24
-21
-21
-18
-17
-16
-14
-13
-11
-10
-8
-7
-5
-4
-3
-2
0
1
2
2
4
4
5
5
5
6
6
7
8
8
7
6
7
6
7
7
6
7
6
6
6
5
5
4
4
4
4
4
4
4
3
4
4
4
4
4
4
3
3
3
3
3
3
3
3
2
2
2
3
2
2
2
1
0
0
0
-1
-1
-2
-3
-2
-4
-3
-4
-4
-4
-5
-4
-5
-4
-5
-5
-5
-5
-5
-4
-5
-5
-5
-5
-4
-4
-4
-4
-5
-5
-5
-5
-5
-5
-5
-6
-6
-6
-7
-6
-6
-6
-6
-7
-6
-6
-5
-5
-5
-5
-5
-5
-5
-4
-5
-5
-4
-4
-4
-5
-6
-6
-6
-6
-6
-5
-6
-6
-7
-6
-6
-6
-6
-7
-7
-7
-8
-7
-8
-7
-8
-7
-8
-8
-8
-7
-7
-7
-7
-8
-8
-8
-7
-7
-7
-7
-7
-8
-8
-8
-8
-8
-9
-8
-8
-9
-9
-9
-9
-10
-10
-10
-10
-10
-11
-11
-11
-11
-11
-11
-12
-11
-11
-12
-11
-12
-12
-12
-12
-12
-11
-11
-11
-10
-10
-11
-10
-10
-10
-10
-10
-10
-10
-10
-9
-9
-9
-9
-9
-9
-8
-8
-8
-9
-9
-9
-10
-9
-9
-9
-9
-9
-9
-9
-10
-9
-9
-10
-10
-10
-9
-9
-9
-9
-8
-9
-8
-8
-8
-7
-7
-7
-7
-6
-6
-6
-6
-5
-6
-6
-5
-4
-4
-5
-4
-4
-5
-5
-4
-4
-4
-4
-4
-3
-3
-2
-3
-2
-2
-2
-1
0
0
0
0
1
1
1
2
2
2
1
2
2
2
3
3
3
3
4
5
5
6
6
6
7
7
8
8
8
8
9
9
9
10
11
11
12
12
12
13
14
14
15
15
15
15
16
17
17
18
18
18
19
19
20
20
20
20
20
20
20
20
20
21
20
21
20
20
20
20
19
19
19
19
19
19
19
19
19
20
21
20
21
21
21
21
21
22
22
22
22
22
22
23
24
23
23
23
22
23
23
23
23
21
21
21
20
20
19
18
18
17
17
16
16
15
14
13
12
12
13
12
12
12
12
11
12
12
13
13
13
13
14
14
14
15
16
15
16
16
16
16
16
15
16
15
15
15
15
14
15
14
15
15
14
14
15
14
15
15
16
16
16
15
16
16
16
16
17
16
16
16
16
16
16
16
16
16
17
17
17
17
17
17
17
17
18
18
18
18
17
17
17
17
17
16
16
16
15
15
15
15
15
15
15
15
15
16
16
16
16
17
18
18
19
19
20
21
20
21
21
22
22
22
22
21
22
22
22
21
21
21
20
21
21
20
20
19
19
20
20
21
21
21
22
24
25
28
30
33
36
40
44
50
55
61
68
75
83
92
101
110
119
129
139
149
160
170
181
192
201
211
221
231
240
249
257
265
273
279
285
291
296
300
304
308
311
313
315
316
316
317
316
317
316
315
314
313
311
310
309
306
304
302
299
297
295
293
291
289
286
284
282
281
278
276
274
272
269
267
264
262
260
257
254
251
249
245
243
239
236
232
228
224
221
217
212
208
204
200
196
192
187
182
177
173
169
165
160
156
152
148
144
140
137
133
130
125
122
119
115
111
108
103
100
96
92
89
85
81
76
72
69
65
62
59
54
51
48
45
43
40
38
35
33
30
29
28
27
26
24
24
22
22
21
21
20
20
19
20
19
19
19
18
18
16
17
17
16
15
15
15
14
14
14
14
14
13
13
12
13
13
13
13
12
12
12
13
13
12
13
13
12
13
13
14
13
14
14
15
15
15
15
14
14
14
15
15
14
14
15
15
14
14
14
13
13
13
12
13
13
13
13
12
12
12
12
12
12
12
12
12
11
11
11
11
11
10
10
10
10
10
10
9
9
9
9
8
8
8
8
8
8
8
8
8
8
7
7
8
8
8
7
7
6
7
6
5
6
5
5
5
5
5
5
4
4
3
4
3
3
3
2
2
2
3
2
2
2
1
0
-1
-1
-1
-1
-2
-3
-2
-3
-3
-3
-3
-3
-4
-5
-6
-6
-6
-6
-7
-8
-8
-9
-9
-10
-10
-11
-12
-12
-12
-12
-13
-13
-13
-14
-14
-15
-15
-14
-15
-15
-15
-15
-15
-15
-15
-16
-16
-16
-16
-15
-16
-16
-16
-17
-17
-17
-17
-17
-18
-18
-18
-18
-18
-18
-18
-18
-19
-19
-19
-19
-19
-19
-19
-19
-19
-19
-19
-18
-19
-19
-19
-19
-18
-18
-17
-17
-16
-15
-14
-14
-13
-13
-12
-11
-11
-10
-9
-8
-7
-7
-6
-5
-3
-3
-2
0
0
1
3
4
5
6
7
8
10
10
12
14
15
17
18
19
21
22
24
25
27
28
30
32
33
35
36
37
38
39
40
42
43
44
45
47
48
49
49
50
50
52
52
53
54
55
55
55
56
58
58
59
59
59
59
59
60
59
60
60
60
60
59
60
59
59
59
59
58
58
58
58
58
57
57
57
57
56
55
55
55
55
55
55
55
53
53
52
52
52
52
51
51
49
50
49
49
48
49
49
48
48
48
48
47
47
47
46
46
46
46
47
46
46
46
46
46
46
47
46
46
46
46
47
46
46
46
47
47
47
47
47
47
46
46
46
46
46
46
45
45
45
45
45
44
44
44
43
43
43
43
43
42
42
41
40
40
40
40
39
39
39
39
39
39
39
38
38
37
38
38
38
39
39
40
39
40
40
41
41
42
42
43
44
44
44
44
44
44
44
44
44
44
43
43
42
42
42
42
40
40
39
39
38
38
38
37
37
37
36
36
36
36
36
36
36
36
37
37
37
37
37
39
39
39
39
39
40
39
40
40
41
41
41
41
41
41
41
41
41
40
40
41
41
40
41
40
40
40
39
40
40
39
39
38
39
39
39
38
38
38
39
39
39
39
38
38
37
37
38
38
39
38
38
38
38
38
39
39
39
39
40
40
41
41
41
40
41
41
41
42
42
42
41
42
43
43
42
43
43
43
43
43
43
43
44
44
43
43
43
43
43
44
44
44
44
44
44
45
45
45
45
45
46
45
46
45
45
45
45
45
45
44
45
44
45
45
45
45
44
44
45
45
45
44
44
44
43
44
44
44
44
43
43
43
42
43
43
43
43
43
44
43
44
44
44
44
45
45
45
45
46
46
45
46
46
46
46
47
46
46
46
46
46
46
47
46
46
46
47
46
47
47
47
46
47
47
48
47
48
48
48
48
49
49
48
49
49
49
50
50
50
50
50
50
51
51
52
52
53
53
54
54
55
55
56
56
57
57
57
59
59
59
59
59
59
60
59
59
59
59
59
59
59
58
58
59
58
58
58
59
58
59
59
58
59
59
60
59
59
59
59
59
58
58
58
58
57
57
57
57
56
55
55
54
54
55
55
54
54
54
53
54
54
54
53
53
53
52
52
51
50
50
49
49
48
48
48
48
47
47
46
46
46
46
45
44
45
44
44
44
44
44
43
43
43
44
44
44
44
44
43
44
44
44
44
44
44
43
43
44
44
43
43
43
42
42
42
42
42
41
41
41
42
41
42
41
41
41
41
41
40
40
40
40
40
40
40
41
41
41
41
42
42
42
42
43
43
43
43
44
44
44
43
43
43
43
43
43
43
43
43
43
43
43
42
41
41
41
41
41
41
40
40
40
40
40
40
39
39
39
39
39
39
38
38
38
37
37
36
35
35
35
33
33
33
33
32
32
31
31
32
32
34
35
37
39
42
45
49
54
59
65
71
79
86
94
102
111
121
130
140
151
160
171
182
191
201
211
221
231
240
249
257
266
274
281
289
295
300
306
311
316
320
324
327
329
331
333
336
336
337
338
338
338
337
336
336
334
333
331
329
329
327
326
323
321
318
316
315
313
311
308
306
303
301
299
296
293
290
288
284
282
278
275
271
267
264
259
256
252
247
243
238
233
229
225
220
216
211
207
202
199
194
189
185
181
176
171
167
163
158
153
148
143
139
134
130
125
120
116
112
107
104
100
95
91
87
83
79
76
72
69
65
62
59
56
53
50
47
44
42
39
38
35
33
31
29
28
27
26
24
23
22
21
21
20
20
19
19
18
19
18
18
18
17
17
18
17
17
17
17
16
16
15
15
15
15
14
14
14
14
14
14
14
14
13
12
13
13
13
13
14
13
13
13
13
13
13
13
12
12
12
12
12
11
10
9
9
9
9
9
8
7
7
7
7
7
8
8
8
7
8
8
8
9
9
9
9
9
9
9
9
10
9
10
10
10
10
10
10
9
9
9
9
9
8
7
7
7
6
6
6
5
5
4
4
4
3
3
2
2
2
2
2
1
0
0
0
0
0
0
-2
-2
-3
-3
-3
-3
-4
-4
-5
-5
-5
-5
-6
-5
-6
-6
-7
-6
-6
-6
-7
-7
-8
-7
-8
-7
-7
-8
-8
-8
-8
-9
-9
-10
-10
-11
-11
-11
-12
-13
-13
-13
-14
-15
-15
-15
-15
-15
-16
-17
-17
-16
-18
-18
-18
-19
-19
-19
-20
-20
-20
-21
-21
-21
-22
-22
-23
-23
-23
-23
-23
-24
-24
-24
-24
-25
-24
-24
-25
-24
-25
-25
-25
-25
-26
-25
-25
-26
-26
-26
-25
-25
-25
-25
-25
-25
-26
-25
-25
-24
-24
-23
-23
-22
-21
-20
-19
-19
-18
-18
-16
-15
-14
-14
-13
-13
-13
-12
-10
-9
-9
-8
-8
-6
-5
-5
-5
-4
-3
-2
-1
0
1
1
3
3
4
6
7
9
10
11
12
14
15
17
18
19
21
22
24
25
26
28
29
30
31
33
34
35
36
37
39
40
42
42
43
44
44
46
47
47
48
49
49
49
50
50
51
50
50
50
49
50
50
50
49
49
49
49
49
49
49
48
48
47
47
47
47
47
46
46
46
46
45
44
44
43
43
43
42
43
42
41
41
40
39
40
40
39
39
38
37
37
37
37
37
36
37
36
36
36
36
36
34
34
34
34
34
34
33
32
33
32
33
33
33
33
33
33
33
33
33
33
33
33
32
32
32
32
32
31
31
31
31
31
31
31
30
30
30
30
30
29
29
29
29
28
28
28
27
28
27
28
28
27
27
27
26
27
26
26
26
26
25
25
25
25
25
25
25
24
24
24
24
24
24
24
24
24
24
24
24
25
24
23
23
24
24
24
23
22
23
23
23
23
22
22
22
22
21
21
22
21
21
21
21
21
21
21
20
20
20
19
20
19
19
19
19
18
18
19
18
18
17
17
16
16
16
16
16
15
15
15
16
16
16
15
16
16
17
17
18
18
19
19
19
20
20
20
21
20
20
21
21
21
20
21
21
21
21
21
20
21
20
20
20
20
20
20
20
19
20
20
20
20
20
19
19
19
20
20
20
19
19
19
20
20
19
19
20
20
19
20
20
20
21
21
21
21
22
22
22
22
22
23
23
23
23
23
23
24
24
24
24
25
25
24
25
24
25
26
26
25
25
25
25
25
25
25
25
24
24
24
25
25
25
25
25
25
26
26
26
25
24
24
25
25
25
25
25
24
24
25
24
24
24
24
24
24
24
24
23
24
23
23
23
23
23
23
23
22
22
23
22
23
22
22
23
23
23
23
23
23
23
23
23
24
24
24
24
25
25
25
26
26
26
25
25
26
26
26
26
26
26
26
25
25
25
25
25
25
25
25
25
25
26
26
26
26
27
27
27
27
27
27
26
27
27
27
26
27
27
26
27
26
26
26
26
26
26
26
26
27
26
26
26
26
26
26
25
26
25
26
27
27
26
26
25
26
26
26
26
26
26
26
26
26
26
26
25
25
26
25
26
26
25
25
25
25
26
26
26
26
26
26
26
26
26
26
26
25
25
26
26
25
26
25
26
25
25
26
26
25
25
25
25
25
25
26
26
25
26
25
26
26
26
25
25
26
25
25
26
26
26
26
26
26
26
26
26
26
26
25
25
26
26
26
26
26
27
28
28
28
28
29
29
30
30
30
31
31
31
32
32
33
33
33
34
34
35
35
35
36
36
36
36
37
38
38
38
38
39
38
39
40
40
40
40
40
40
40
40
40
40
39
40
40
40
40
39
39
38
39
39
39
39
39
39
39
40
40
39
40
39
39
39
39
40
39
39
38
38
38
38
38
38
38
37
37
37
37
36
36
36
36
35
36
36
35
36
35
35
36
35
35
35
34
33
34
33
33
32
32
30
30
29
29
28
28
27
26
25
25
25
24
23
24
23
22
22
22
21
21
20
20
19
19
18
17
17
17
17
16
16
16
16
15
15
15
15
15
15
16
15
15
15
15
15
15
15
14
15
15
15
15
15
15
15
14
14
14
15
14
14
13
13
14
14
13
13
14
14
13
14
13
14
13
14
14
14
14
15
14
15
15
15
15
15
15
16
15
15
15
15
15
15
14
14
14
14
14
13
13
13
12
13
13
12
12
11
11
11
10
10
10
9
9
8
8
6
6
5
4
3
2
1
1
1
1
2
2
3
6
8
11
15
18
23
29
35
42
48
56
64
71
81
90
99
109
119
128
138
148
158
168
177
187
195
204
213
221
229
236
242
248
254
260
266
271
275
278
282
285
288
291
292
294
295
296
298
298
299
298
297
296
296
296
295
293
292
291
289
289
288
286
284
283
280
280
278
276
273
271
269
267
264
262
259
256
253
248
246
242
239
236
233
229
225
223
219
216
212
208
204
201
197
194
190
185
182
178
174
171
167
163
158
153
149
144
139
135
130
126
122
118
113
108
103
98
93
89
84
79
74
69
65
60
55
51
47
43
39
35
31
27
23
20
17
14
11
8
6
4
2
1
-1
-2
-3
-5
-6
-6
-7
-7
-8
-7
-8
-8
-8
-9
-9
-10
-10
-10
-10
-10
-10
-11
-10
-11
-11
-11
-12
-12
-12
-13
-14
-14
-15
-15
-16
-17
-17
-17
-18
-18
-18
-18
-19
-18
-19
-18
-18
-19
-19
-20
-19
-19
-19
-19
-19
-19
-20
-19
-19
-19
-20
-19
-20
-20
-20
-20
-20
-21
-21
-22
-22
-22
-23
-23
-24
-24
-23
-23
-24
-24
-24
-25
-25
-26
-26
-26
-27
-27
-27
-28
-28
-28
-28
-29
-30
-31
-31
-31
-31
-31
-32
-32
-32
-32
-33
-32
-32
-33
-33
-34
-33
-33
-33
-33
-33
-34
-34
-34
-34
-34
-34
-34
-34
-34
-34
-34
-34
-34
-35
-36
-36
-36
-36
-36
-37
-38
-38
-38
-38
-38
-38
-40
-40
-40
-40
-41
-42
-43
-43
-43
-44
-43
-43
-44
-44
-45
-46
-46
-46
-46
-47
-48
-48
-48
-48
-48
-49
-50
-50
-51
-52
-53
-53
-54
-54
-55
-54
-55
-55
-55
-55
-55
-56
-57
-56
-56
-56
-57
-57
-57
-58
-57
-57
-58
-59
-60
-60
-60
-61
-61
-61
-62
-62
-62
-62
-62
-63
-63
-63
-64
-64
-64
-63
-63
-64
-64
-63
-63
-63
-62
-62
-62
-62
-61
-61
-61
-59
-60
-59
-59
-59
-58
-58
-57
-57
-56
-54
-54
-53
-52
-50
-50
-49
-48
-47
-46
-45
-44
-44
-42
-40
-40
-39
-37
-37
-36
-34
-34
-32
-30
-30
-29
-28
-27
-25
-24
-22
-22
-21
-19
-18
-16
-15
-13
-13
-11
-10
-8
-7
-6
-4
-3
-1
1
2
4
6
6
7
8
9
11
12
13
14
15
15
15
17
18
18
18
18
18
19
19
19
19
19
19
19
19
19
19
18
17
17
16
16
16
16
15
15
14
13
13
13
12
10
11
10
10
9
9
8
8
7
8
7
7
7
7
7
7
7
7
7
7
7
6
6
6
6
6
6
6
6
6
6
6
5
5
4
4
4
4
3
3
2
2
2
2
2
1
0
0
0
-1
-1
-1
-2
-2
-2
-2
-2
-2
-3
-2
-3
-3
-4
-4
-4
-6
-6
-6
-7
-7
-8
-8
-9
-9
-9
-9
-10
-9
-10
-10
-10
-10
-10
-10
-10
-10
-10
-10
-9
-9
-9
-9
-8
-9
-8
-9
-9
-8
-9
-9
-9
-10
-11
-10
-11
-11
-12
-12
-12
-12
-12
-13
-13
-13
-14
-14
-14
-14
-15
-15
-15
-15
-15
-15
-15
-15
-16
-16
-16
-16
-16
-16
-17
-17
-18
-17
-17
-17
-18
-19
-19
-19
-20
-20
-20
-21
-21
-22
-22
-22
-21
-21
-21
-21
-21
-21
-20
-21
-20
-21
-21
-21
-21
-21
-21
-21
-22
-22
-22
-23
-22
-23
-23
-23
-23
-24
-24
-24
-25
-25
-26
-26
-26
-27
-26
-26
-26
-27
-27
-26
-26
-26
-25
-25
-25
-24
-24
-23
-23
-23
-23
-24
-23
-23
-23
-23
-23
-24
-24
-24
-24
-24
-25
-24
-25
-25
-25
-25
-25
-26
-26
-26
-26
-25
-26
-26
-26
-26
-25
-25
-25
-24
-24
-25
-24
-24
-24
-23
-23
-23
-23
-23
-23
-23
-22
-22
-22
-22
-21
-21
-21
-21
-21
-22
-21
-21
-20
-20
-20
-20
-20
-21
-21
-21
-21
-21
-21
-21
-22
-20
-21
-20
-20
-20
-20
-20
-19
-18
-18
-18
-18
-17
-17
-16
-15
-15
-15
-15
-15
-15
-14
-15
-14
-14
-14
-13
-13
-13
-13
-13
-14
-13
-14
-13
-13
-13
-13
-13
-13
-12
-11
-11
-11
-11
-11
-10
-10
-9
-9
-10
-10
-9
-9
-9
-9
-9
-10
-10
-10
-11
-12
-11
-11
-13
-12
-13
-12
-12
-12
-13
-12
-13
-12
-12
-12
-12
-13
-12
-13
-13
-13
-13
-12
-13
-14
-14
-14
-14
-14
-15
-16
-17
-18
-18
-19
-20
-21
-21
-23
-23
-23
-24
-25
-26
-27
-27
-27
-27
-27
-28
-29
-29
-29
-28
-28
-29
-29
-29
-29
-29
-28
-28
-28
-29
-28
-28
-28
-28
-28
-28
-28
-28
-28
-28
-28
-28
-29
-29
-29
-29
-29
-30
-29
-30
-30
-31
-30
-30
-32
-32
-33
-33
-33
-33
-33
-34
-33
-34
-34
-33
-32
-33
-32
-32
-32
-32
-32
-30
-31
-31
-31
-31
-31
-31
-31
-31
-32
-31
-32
-32
-33
-33
-33
-33
-34
-34
-33
-33
-34
-34
-35
-35
-34
-34
-34
-34
-34
-33
-34
-33
-33
-33
-33
-33
-33
-32
-32
-32
-31
-32
-32
-33
-32
-32
-33
-33
-34
-35
-35
-37
-36
-37
-37
-38
-39
-38
-38
-37
-37
-37
-37
-34
-32
-29
-26
-22
-18
-13
-8
-1
5
13
20
28
37
47
57
67
76
87
97
108
119
130
140
150
160
170
179
188
197
204
212
219
225
232
238
243
248
251
254
257
259
261
262
263
264
264
265
264
263
263
261
260
259
257
255
254
250
248
245
243
241
239
237
236
233
231
229
226
223
221
218
215
213
210
208
206
202
199
196
193
190
186
183
179
175
171
167
163
159
155
151
146
142
138
134
129
124
120
115
111
106
102
98
93
90
86
82
78
74
69
66
62
58
54
50
46
42
38
33
30
25
21
17
12
9
4
0
-4
-7
-10
-14
-17
-22
-24
-28
-29
-31
-34
-37
-39
-41
-42
-44
-46
-47
-49
-49
-50
-51
-51
-52
-52
-53
-53
-54
-54
-54
-55
-56
-57
-57
-56
-57
-57
-58
-57
-57
-58
-57
-58
-58
-58
-58
-58
-58
-57
-57
-58
-58
-58
-58
-58
-58
-59
-59
-59
-59
-59
-59
-59
-59
-59
-60
-60
-60
-60
-60
-61
-61
-62
-61
-61
-61
-62
-62
-62
-62
-63
-63
-62
-63
-63
-63
-63
-63
-63
-63
-63
-63
-64
-63
-63
-63
-63
-64
-63
-64
-64
-64
-64
-64
-64
-65
-65
-65
-64
-65
-66
-66
-66
-66
-66
-67
-67
-67
-67
-68
-68
-68
-68
-68
-69
-69
-69
-69
-69
-70
-70
-71
-71
-71
-72
-72
-73
-73
-74
-74
-74
-75
-75
-75
-75
-75
-75
-75
-75
-75
-75
-75
-76
-75
-75
-75
-76
-76
-76
-76
-77
-77
-77
-79
-79
-80
-80
-80
-81
-82
-83
-84
-84
-85
-86
-87
-88
-88
-89
-90
-90
-90
-90
-91
-90
-90
-90
-90
-90
-90
-90
-90
-91
-90
-90
-90
-90
-90
-91
-90
-91
-91
-91
-91
-91
-92
-93
-93
-93
-94
-94
-96
-96
-97
-97
-97
-98
-99
-99
-100
-99
-99
-99
-100
-100
-100
-99
-99
-99
-99
-99
-99
-98
-98
-97
-97
-97
-97
-97
-97
-96
-95
-95
-94
-94
-94
-94
-92
-92
-91
-92
-91
-90
-90
-88
-87
-87
-86
-85
-83
-82
-81
-80
-78
-77
-76
-74
-72
-71
-69
-67
-67
-65
-65
-63
-61
-60
-59
-59
-57
-56
-55
-54
-53
-53
-52
-51
-49
-48
-46
-45
-44
-43
-41
-40
-38
-37
-36
-35
-33
-32
-30
-29
-28
-27
-26
-25
-24
-23
-23
-22
-22
-22
-21
-21
-21
-21
-21
-21
-21
-22
-22
-22
-22
-22
-23
-24
-24
-24
-24
-24
-25
-25
-26
-26
-27
-27
-28
-28
-29
-29
-30
-29
-30
-30
-31
-30
-31
-31
-32
-32
-32
-33
-32
-32
-33
-33
-34
-35
-34
-34
-34
-35
-36
-36
-36
-37
-37
-37
-37
-38
-38
-38
-39
-38
-38
-38
-38
-38
-38
-38
-37
-37
-36
-36
-37
-35
-35
-34
-35
-35
-35
-36
-36
-35
-37
-37
-38
-39
-39
-39
-40
-40
-41
-41
-42
-42
-42
-43
-43
-44
-45
-45
-45
-46
-46
-46
-46
-47
-47
-46
-47
-47
-47
-47
-47
-46
-45
-45
-45
-45
-45
-45
-44
-44
-43
-43
-44
-44
-43
-43
-43
-43
-44
-43
-44
-44
-44
-44
-45
-45
-46
-47
-47
-47
-48
-48
-49
-49
-49
-50
-50
-50
-50
-51
-51
-51
-50
-50
-50
-50
-50
-50
-49
-49
-48
-49
-49
-49
-49
-49
-49
-49
-49
-49
-49
-49
-49
-50
-49
-50
-50
-50
-51
-50
-50
-51
-51
-51
-51
-51
-50
-51
-51
-51
-51
-51
-51
-51
-51
-51
-52
-52
-51
-51
-51
-52
-51
-51
-51
-50
-51
-50
-50
-50
-51
-50
-50
-49
-49
-49
-49
-49
-49
-50
-50
-49
-49
-50
-49
-49
-48
-48
-48
-49
-48
-48
-48
-49
-49
-49
-49
-49
-49
-48
-48
-48
-48
-49
-49
-49
-48
-48
-48
-48
-48
-47
-48
-48
-47
-48
-48
-48
-47
-48
-48
-48
-48
-48
-48
-48
-48
-48
-48
-48
-48
-48
-49
-49
-49
-49
-49
-49
-48
-48
-48
-49
-48
-49
-48
-48
-49
-49
-48
-48
-48
-48
-47
-47
-48
-47
-48
-48
-47
-47
-47
-48
-48
-48
-48
-48
-48
-48
-48
-48
-49
-49
-49
-48
-49
-49
-49
-49
-48
-49
-49
-48
-49
-48
-48
-47
-47
-47
-47
-47
-47
-47
-46
-46
-46
-46
-46
-46
-46
-46
-45
-46
-46
-45
-46
-46
-46
-46
-46
-47
-47
-47
-47
-47
-47
-48
-48
-48
-47
-47
-47
-46
-47
-46
-46
-45
-45
-44
-44
-44
-44
-43
-43
-43
-42
-42
-41
-41
-41
-40
-40
-39
-39
-39
-39
-38
-37
-37
-37
-36
-36
-35
-35
-35
-35
-35
-36
-36
-36
-36
-36
-36
-37
-37
-37
-38
-38
-39
-39
-40
-40
-40
-39
-39
-39
-40
-40
-40
-39
-39
-38
-38
-39
-38
-38
-38
-38
-38
-38
-39
-39
-38
-39
-39
-39
-40
-40
-41
-41
-42
-42
-43
-43
-44
-44
-44
-44
-44
-45
-45
-46
-46
-46
-46
-47
-48
-48
-49
-48
-48
-48
-48
-49
-48
-49
-49
-49
-50
-49
-50
-50
-50
-50
-50
-51
-51
-52
-52
-52
-52
-52
-52
-52
-53
-52
-52
-52
-52
-52
-52
-52
-51
-51
-51
-51
-51
-51
-51
-51
-51
-51
-51
-51
-51
-51
-51
-51
-51
-51
-51
-52
-52
-51
-52
-51
-52
-52
-53
-53
-52
-52
-52
-53
-53
-53
-53
-53
-53
-53
-54
-54
-53
-53
-53
-53
-54
-53
-53
-53
-53
-52
-52
-52
-52
-51
-51
-52
-51
-51
-51
-52
-51
-51
-51
-50
-51
-51
-51
-51
-52
-52
-53
-53
-53
-54
-54
-54
-55
-55
-56
-57
-57
-56
-56
-57
-57
-57
-56
-54
-52
-50
-48
-46
-43
-39
-34
-29
-23
-18
-11
-5
3
12
20
28
37
47
56
66
75
86
95
105
114
124
134
142
151
158
166
173
180
186
193
198
202
207
210
213
216
219
221
222
223
223
224
224
224
223
222
221
219
218
217
215
212
210
208
206
204
201
199
197
194
192
191
188
186
183
180
178
176
174
172
169
166
163
160
157
153
150
148
144
140
136
133
128
123
119
115
110
106
102
98
94
89
84
80
76
72
68
63
59
55
51
47
43
40
36
32
28
25
24
20
17
13
11
7
5
2
-2
-4
-7
-11
-14
-17
-20
-23
-27
-30
-33
-35
-37
-40
-44
-47
-50
-52
-55
-57
-59
-60
-62
-63
-65
-65
-67
-67
-68
-69
-69
-70
-70
-70
-70
-71
-71
-71
-70
-71
-72
-72
-73
-73
-73
-73
-73
-74
-74
-74
-75
-75
-75
-75
-77
-77
-77
-78
-78
-78
-78
-78
-79
-79
-80
-79
-79
-79
-79
-79
-79
-78
-78
-78
-78
-78
-79
-79
-77
-77
-77
-78
-78
-78
-79
-79
-78
-79
-80
-80
-80
-80
-79
-80
-80
-81
-81
-81
-81
-81
-81
-82
-82
-82
-83
-82
-82
-82
-83
-83
-83
-83
-83
-83
-83
-83
-84
-84
-84
-84
-84
-85
-85
-86
-85
-86
-86
-87
-87
-88
-88
-88
-89
-89
-89
-90
-91
-91
-91
-92
-91
-92
-92
-92
-92
-92
-92
-92
-92
-92
-92
-93
-93
-93
-93
-93
-94
-94
-94
-94
-94
-95
-95
-95
-96
-95
-96
-96
-96
-96
-97
-97
-97
-97
-98
-98
-99
-99
-100
-100
-101
-102
-103
-103
-104
-104
-105
-105
-106
-107
-107
-106
-108
-107
-108
-108
-109
-109
-110
-110
-110
-112
-111
-112
-112
-113
-112
-112
-113
-113
-114
-114
-114
-115
-115
-115
-116
-116
-116
-116
-116
-116
-117
-117
-118
-117
-117
-117
-117
-117
-117
-116
-116
-116
-116
-116
-117
-116
-116
-116
-116
-115
-116
-116
-116
-115
-115
-116
-115
-115
-115
-115
-114
-113
-113
-113
-113
-113
-112
-111
-111
-110
-110
-109
-109
-107
-106
-105
-105
-104
-102
-101
-100
-99
-98
-96
-95
-95
-94
-92
-91
-90
-88
-88
-86
-85
-83
-82
-81
-80
-79
-77
-75
-74
-73
-72
-71
-70
-68
-66
-65
-64
-64
-62
-60
-59
-58
-57
-56
-55
-54
-53
-51
-50
-49
-49
-49
-48
-47
-46
-46
-46
-45
-45
-44
-44
-44
-45
-45
-45
-45
-45
-44
-45
-45
-45
-45
-45
-45
-45
-45
-45
-46
-46
-46
-45
-46
-47
-47
-48
-47
-47
-48
-48
-48
-49
-50
-50
-49
-50
-51
-51
-51
-52
-52
-52
-52
-53
-53
-53
-54
-54
-54
-54
-55
-55
-56
-56
-56
-56
-57
-58
-58
-58
-59
-59
-59
-59
-59
-59
-59
-59
-59
-59
-59
-60
-59
-59
-59
-59
-60
-60
-60
-60
-59
-59
-60
-60
-60
-60
-60
-60
-61
-61
-61
-61
-61
-61
-61
-61
-62
-61
-62
-61
-61
-61
-61
-61
-61
-61
-62
-61
-62
-62
-62
-63
-63
-62
-62
-64
-64
-64
-65
-65
-65
-65
-65
-65
-66
-67
-66
-67
-66
-66
-67
-66
-67
-67
-66
-67
-67
-67
-67
-67
-67
-67
-66
-66
-66
-66
-66
-65
-66
-66
-65
-66
-66
-66
-66
-66
-66
-66
-66
-66
-67
-67
-68
-68
-69
-70
-70
-70
-70
-70
-71
-71
-72
-71
-71
-72
-72
-72
-72
-72
-72
-72
-72
-71
-71
-71
-71
-70
-70
-70
-70
-70
-70
-70
-70
-70
-71
-70
-71
-71
-71
-71
-71
-71
-72
-72
-73
-73
-72
-72
-72
-72
-73
-73
-73
-73
-74
-73
-73
-73
-73
-73
-73
-73
-73
-73
-72
-73
-73
-73
-72
-72
-72
-72
-71
-72
-71
-71
-72
-72
-72
-72
-71
-72
-71
-71
-71
-70
-71
-71
-71
-71
-72
-72
-71
-71
-72
-72
-72
-72
-72
-72
-72
-72
-71
-72
-72
-70
-70
-70
-69
-70
-69
-69
-69
-69
-68
-68
-68
-68
-68
-68
-67
-68
-68
-68
-69
-69
-69
-69
-70
-70
-71
-71
-71
-71
-71
-71
-71
-72
-71
-71
-71
-70
-70
-70
-69
-69
-68
-68
-67
-68
-67
-67
-66
-66
-66
-66
-66
-66
-66
-65
-66
-65
-66
-66
-65
-65
-64
-63
-64
-63
-63
-63
-62
-61
-61
-61
-61
-60
-60
-59
-59
-58
-58
-58
-58
-58
-58
-58
-57
-58
-58
-58
-57
-57
-57
-56
-57
-57
-56
-56
-56
-56
-56
-56
-56
-56
-55
-56
-56
-56
-56
-56
-57
-57
-56
-57
-57
-58
-57
-58
-57
-58
-58
-59
-58
-59
-59
-59
-59
-59
-60
-59
-59
-60
-60
-60
-60
-60
-61
-60
-60
-60
-60
-61
-61
-60
-60
-61
-62
-63
-63
-64
-65
-64
-65
-66
-67
-67
-68
-69
-69
-69
-70
-70
-70
-71
-71
-71
-71
-71
-71
-71
-71
-71
-71
-71
-70
-70
-70
-70
-70
-70
-70
-70
-70
-70
-70
-70
-70
-70
-70
-70
-69
-70
-70
-70
-71
-71
-71
-71
-71
-71
-72
-72
-72
-72
-71
-72
-72
-72
-72
-72
-72
-73
-72
-73
-73
-73
-73
-72
-72
-72
-73
-72
-73
-73
-72
-73
-72
-73
-73
-73
-73
-73
-74
-74
-74
-74
-74
-74
-73
-73
-73
-73
-73
-72
-72
-71
-72
-72
-71
-72
-72
-72
-72
-71
-72
-71
-71
-71
-72
-72
-72
-73
-73
-73
-74
-74
-76
-77
-78
-79
-78
-79
-79
-81
-82
-82
-81
-81
-80
-80
-79
-77
-74
-71
-69
-65
-61
-57
-51
-45
-39
-32
-24
-16
-7
2
10
20
31
40
50
60
70
81
92
101
110
120
128
137
146
153
160
167
173
179
184
188
192
197
199
202
205
207
209
211
211
212
211
212
211
212
211
211
210
210
208
207
207
205
204
201
200
198
197
194
192
190
188
186
183
181
178
175
171
168
166
162
160
156
152
149
146
142
139
134
131
127
123
119
115
111
107
104
99
95
91
86
82
78
75
71
66
62
58
53
48
44
39
35
30
26
21
17
12
8
4
-1
-5
-9
-13
-18
-21
-25
-29
-32
-37
-40
-43
-47
-51
-54
-57
-60
-63
-66
-69
-71
-73
-76
-78
-80
-81
-83
-84
-85
-87
-87
-89
-88
-89
-89
-90
-90
-91
-90
-91
-90
-90
-90
-90
-90
-91
-91
-91
-91
-91
-93
-93
-92
-93
-93
-94
-94
-95
-96
-96
-96
-96
-96
-97
-98
-98
-97
-98
-98
-98
-99
-99
-99
-99
-99
-98
-98
-99
-99
-98
-98
-98
-98
-99
-99
-98
-98
-99
-98
-99
-99
-99
-100
-100
-99
-99
-99
-99
-99
-100
-99
-99
-100
-100
-100
-100
-99
-99
-99
-100
-101
-101
-101
-101
-102
-101
-102
-102
-104
-103
-104
-104
-104
-105
-106
-106
-106
-105
-106
-106
-106
-106
-106
-106
-106
-106
-105
-106
-106
-106
-106
-106
-106
-107
-107
-107
-108
-108
-109
-109
-110
-111
-111
-111
-111
-112
-111
-112
-113
-113
-113
-113
-114
-115
-115
-115
-114
-115
-115
-116
-116
-116
-116
-116
-117
-117
-117
-117
-117
-118
-118
-118
-118
-119
-119
-119
-120
-120
-121
-122
-122
-123
-123
-124
-124
-125
-125
-126
-127
-127
-128
-128
-128
-129
-130
-130
-130
-130
-131
-132
-132
-132
-132
-132
-132
-133
-133
-132
-134
-134
-134
-135
-134
-134
-135
-135
-135
-134
-135
-135
-136
-136
-136
-136
-135
-135
-135
-135
-134
-134
-134
-134
-133
-134
-133
-132
-132
-132
-132
-132
-132
-131
-131
-131
-130
-129
-130
-130
-129
-128
-128
-126
-126
-125
-125
-124
-122
-122
-121
-120
-119
-118
-117
-116
-115
-114
-113
-112
-111
-111
-109
-108
-107
-106
-105
-104
-102
-101
-99
-99
-98
-96
-95
-94
-92
-91
-90
-89
-88
-86
-84
-83
-82
-81
-80
-79
-77
-75
-74
-73
-72
-71
-70
-69
-68
-66
-66
-65
-64
-64
-63
-61
-61
-61
-60
-59
-59
-59
-58
-58
-58
-59
-59
-58
-58
-59
-59
-60
-60
-60
-60
-61
-60
-61
-61
-62
-62
-62
-63
-64
-63
-64
-65
-65
-65
-66
-66
-67
-66
-67
-67
-67
-67
-67
-68
-67
-67
-67
-68
-68
-69
-68
-69
-69
-69
-68
-69
-69
-70
-70
-71
-71
-72
-72
-73
-73
-72
-73
-73
-74
-74
-75
-75
-75
-75
-75
-75
-76
-76
-77
-76
-77
-76
-76
-77
-77
-76
-76
-76
-76
-77
-77
-76
-76
-76
-78
-77
-78
-77
-78
-77
-77
-77
-77
-77
-77
-77
-77
-76
-76
-76
-76
-77
-76
-76
-76
-76
-76
-76
-77
-77
-77
-77
-77
-78
-78
-78
-79
-79
-80
-80
-81
-81
-81
-81
-81
-82
-82
-82
-82
-82
-82
-82
-82
-83
-83
-82
-82
-82
-81
-82
-82
-82
-82
-82
-82
-83
-83
-84
-84
-84
-84
-84
-84
-85
-84
-84
-84
-84
-84
-85
-85
-85
-85
-85
-86
-85
-86
-86
-86
-86
-86
-86
-87
-87
-87
-87
-87
-87
-87
-87
-88
-88
-87
-88
-88
-88
-88
-88
-88
-87
-87
-88
-88
-88
-88
-87
-87
-87
-87
-87
-87
-87
-88
-88
-88
-87
-88
-88
-88
-88
-88
-88
-88
-88
-88
-88
-87
-87
-87
-87
-88
-88
-88
-87
-87
-88
-88
-89
-88
-88
-88
-88
-88
-88
-87
-87
-87
-87
-87
-87
-88
-87
-87
-86
-86
-86
-86
-86
-86
-85
-85
-86
-86
-85
-85
-85
-85
-85
-85
-85
-85
-85
-85
-85
-85
-85
-86
-86
-85
-85
-85
-85
-86
-85
-85
-85
-85
-85
-84
-85
-85
-84
-84
-84
-83
-83
-84
-84
-83
-83
-82
-82
-83
-83
-82
-82
-81
-81
-81
-82
-82
-81
-81
-81
-80
-81
-80
-80
-80
-79
-79
-79
-79
-79
-78
-78
-78
-77
-77
-77
-77
-77
-78
-77
-78
-78
-78
-78
-78
-78
-78
-78
-79
-79
-78
-78
-78
-78
-79
-78
-79
-79
-79
-78
-78
-78
-78
-78
-78
-77
-76
-77
-77
-77
-77
-76
-76
-75
-76
-76
-76
-75
-76
-76
-76
-76
-76
-76
-77
-76
-76
-76
-76
-77
-77
-76
-77
-77
-77
-76
-77
-76
-76
-76
-76
-76
-76
-76
-76
-76
-76
-75
-75
-75
-75
-75
-75
-75
-75
-75
-75
-75
-76
-76
-76
-76
-76
-76
-77
-77
-76
-76
-77
-76
-76
-76
-76
-76
-76
-76
-76
-77
-76
-75
-75
-75
-76
-75
-76
-75
-74
-74
-75
-75
-75
-75
-74
-74
-74
-75
-75
-75
-75
-75
-75
-75
-76
-75
-76
-76
-76
-76
-76
-76
-76
-75
-75
-75
-76
-76
-76
-76
-75
-75
-74
-75
-74
-74
-73
-73
-73
-73
-73
-72
-72
-72
-72
-72
-72
-72
-73
-73
-73
-72
-73
-73
-73
-74
-74
-73
-73
-73
-73
-72
-73
-72
-71
-71
-71
-71
-71
-70
-70
-69
-69
-69
-69
-68
-69
-68
-68
-68
-68
-67
-67
-66
-66
-65
-64
-64
-63
-63
-62
-62
-62
-61
-61
-61
-60
-60
-60
-60
-61
-61
-60
-60
-61
-61
-62
-62
-64
-64
-64
-65
-65
-65
-66
-67
-66
-67
-67
-67
-67
-68
-67
-67
-68
-68
-68
-69
-69
-69
-69
-70
-70
-71
-72
-73
-73
-73
-74
-73
-74
-75
-75
-76
-76
-76
-77
-78
-78
-79
-79
-79
-80
-81
-82
-82
-82
-83
-83
-84
-84
-85
-86
-85
-86
-87
-87
-87
-87
-88
-88
-88
-88
-88
-88
-89
-88
-89
-88
-89
-89
-89
-90
-90
-90
-90
-91
-91
-91
-91
-91
-91
-93
-92
-93
-93
-93
-93
-93
-93
-93
-93
-93
-92
-93
-93
-92
-93
-94
-93
-93
-93
-92
-92
-93
-93
-92
-91
-91
-91
-91
-91
-91
-91
-91
-90
-90
-90
-90
-90
-89
-89
-89
-89
-90
-90
-90
-90
-89
-90
-90
-91
-91
-91
-91
-91
-92
-92
-93
-93
-93
-93
-93
-94
-94
-94
-95
-95
-94
-94
-94
-94
-93
-93
-93
-93
-93
-93
-94
-94
-94
-94
-94
-94
-95
-95
-97
-97
-97
-98
-99
-99
-100
-100
-100
-101
-101
-101
-101
-100
-98
-96
-94
-92
-89
-86
-81
-76
-71
-66
-60
-53
-46
-37
-28
-20
-11
-2
8
17
26
36
46
55
65
75
84
93
102
111
118
126
134
141
147
153
158
162
167
171
176
179
182
184
186
188
190
191
192
191
191
192
191
191
191
190
188
187
185
183
182
179
177
175
174
171
170
167
165
163
162
159
157
154
152
149
147
144
141
139
136
133
130
127
123
119
115
112
108
105
100
96
92
88
84
79
75
70
66
61
57
53
47
43
39
34
30
26
21
17
12
8
3
-1
-5
-9
-13
-17
-22
-26
-30
-33
-38
-42
-46
-49
-53
-57
-61
-64
-68
-72
-74
-78
-80
-83
-86
-88
-91
-92
-94
-96
-98
-100
-101
-102
-102
-104
-104
-104
-106
-106
-107
-107
-107
-107
-108
-108
-108
-108
-109
-109
-110
-110
-110
-111
-111
-112
-112
-112
-112
-113
-113
-114
-114
-114
-114
-116
-116
-116
-116
-116
-117
-117
-117
-117
-117
-117
-117
-118
-118
-118
-118
-118
-118
-118
-117
-118
-118
-118
-118
-118
-118
-118
-118
-118
-118
-117
-117
-118
-118
-119
-118
-118
-118
-118
-118
-118
-119
-119
-119
-119
-120
-119
-120
-120
-120
-120
-120
-120
-120
-120
-120
-120
-120
-120
-121
-122
-122
-122
-123
-122
-122
-124
-123
-123
-124
-123
-124
-124
-124
-124
-124
-124
-124
-125
-125
-126
-126
-126
-127
-127
-127
-127
-128
-128
-128
-129
-129
-130
-130
-131
-131
-132
-131
-131
-131
-132
-132
-132
-132
-132
-132
-133
-132
-134
-133
-133
-134
-133
-134
-134
-134
-134
-134
-134
-135
-136
-136
-137
-138
-138
-139
-139
-140
-140
-141
-141
-142
-143
-144
-144
-145
-145
-144
-145
-146
-146
-146
-147
-147
-147
-148
-148
-148
-148
-149
-149
-148
-149
-149
-150
-150
-150
-150
-150
-151
-150
-151
-151
-151
-150
-151
-151
-152
-152
-151
-151
-151
-152
-151
-152
-152
-151
-151
-152
-152
-151
-152
-151
-152
-151
-151
-150
-151
-151
-150
-150
-150
-150
-150
-150
-150
-149
-150
-149
-149
-149
-149
-149
-148
-148
-147
-147
-146
-146
-144
-144
-143
-141
-140
-139
-138
-136
-135
-134
-132
-131
-130
-128
-127
-126
-124
-123
-122
-121
-120
-119
-117
-117
-115
-115
-113
-112
-111
-109
-109
-108
-108
-107
-105
-105
-104
-103
-101
-100
-99
-98
-96
-95
-94
-94
-92
-92
-90
-89
-88
-87
-86
-85
-84
-83
-82
-81
-81
-80
-79
-79
-79
-79
-78
-79
-79
-78
-78
-78
-79
-78
-79
-79
-78
-79
-79
-80
-80
-80
-80
-79
-80
-80
-81
-81
-81
-81
-81
-81
-82
-82
-83
-83
-83
-84
-83
-84
-84
-84
-85
-84
-85
-85
-85
-85
-86
-86
-86
-86
-86
-86
-87
-88
-87
-87
-88
-88
-89
-89
-90
-90
-90
-90
-92
-92
-92
-92
-93
-93
-93
-94
-94
-95
-95
-94
-94
-95
-96
-95
-94
-94
-94
-94
-94
-94
-93
-93
-92
-93
-92
-93
-92
-92
-93
-92
-92
-93
-92
-93
-92
-92
-92
-92
-92
-92
-93
-93
-92
-93
-93
-93
-93
-93
-93
-93
-93
-94
-94
-94
-94
-94
-94
-94
-94
-95
-95
-95
-95
-95
-95
-95
-95
-96
-96
-96
-96
-96
-96
-97
-97
-96
-96
-97
-97
-97
-97
-97
-97
-97
-98
-98
-99
-99
-99
-99
-99
-99
-100
-100
-100
-100
-100
-100
-100
-100
-100
-99
-99
-100
-99
-100
-99
-100
-100
-100
-100
-99
-100
-100
-101
-100
-100
-101
-101
-101
-102
-101
-101
-101
-101
-102
-102
-102
-102
-102
-102
-102
-102
-102
-102
-102
-102
-102
-101
-101
-101
-101
-102
-102
-102
-103
-103
-103
-103
-103
-104
-104
-105
-105
-105
-105
-106
-105
-106
-106
-106
-106
-105
-105
-106
-105
-105
-105
-104
-104
-103
-104
-103
-103
-102
-102
-100
-100
-100
-100
-99
-99
-98
-98
-98
-98
-98
-98
-97
-97
-97
-97
-98
-98
-97
-97
-97
-97
-97
-98
-98
-97
-97
-97
-97
-97
-97
-97
-97
-97
-97
-96
-97
-97
-96
-96
-96
-96
-96
-96
-95
-95
-95
-95
-95
-95
-96
-95
-95
-94
-94
-94
-94
-94
-94
-94
-92
-93
-93
-93
-92
-93
-92
-93
-92
-92
-92
-92
-92
-93
-93
-93
-93
-94
-93
-94
-94
-94
-95
-94
-94
-94
-94
-93
-93
-94
-94
-93
-93
-93
-93
-93
-94
-93
-92
-92
-92
-92
-92
-92
-93
-92
-92
-92
-92
-92
-93
-93
-93
-93
-93
-94
-93
-94
-93
-93
-93
-93
-93
-93
-93
-93
-92
-92
-93
-93
-93
-92
-93
-93
-93
-93
-93
-93
-92
-92
-92
-92
-93
-93
-93
-92
-92
-92
-91
-91
-92
-91
-91
-91
-91
-91
-92
-92
-92
-92
-92
-93
-93
-93
-93
-93
-93
-93
-93
-94
-94
-94
-94
-93
-94
-93
-93
-94
-93
-92
-92
-92
-91
-91
-90
-90
-89
-89
-88
-89
-89
-88
-88
-88
-88
-89
-89
-89
-88
-88
-88
-88
-89
-88
-88
-88
-88
-87
-88
-87
-87
-87
-87
-86
-86
-85
-84
-84
-84
-83
-82
-82
-81
-80
-80
-79
-79
-78
-77
-77
-77
-77
-75
-75
-75
-75
-75
-75
-75
-75
-75
-75
-75
-75
-75
-75
-75
-76
-76
-76
-77
-77
-77
-77
-77
-77
-78
-78
-77
-77
-77
-78
-78
-79
-78
-78
-78
-78
-78
-79
-78
-79
-79
-79
-79
-80
-80
-81
-81
-81
-81
-81
-82
-82
-82
-82
-82
-83
-84
-84
-85
-86
-86
-87
-88
-89
-89
-90
-91
-91
-91
-91
-92
-92
-93
-92
-93
-93
-93
-93
-93
-93
-92
-92
-93
-93
-93
-93
-93
-92
-93
-93
-92
-93
-93
-93
-93
-93
-93
-93
-94
-94
-94
-95
-95
-95
-95
-96
-96
-96
-95
-96
-96
-97
-96
-96
-96
-96
-96
-96
-96
-96
-95
-95
-95
-95
-95
-95
-94
-94
-94
-94
-95
-94
-94
-94
-94
-94
-94
-95
-95
-95
-95
-94
-96
-95
-96
-97
-96
-96
-96
-96
-96
-96
-96
-96
-96
-95
-96
-96
-97
-97
-97
-97
-97
-97
-97
-97
-97
-97
-96
-97
-97
-97
-96
-96
-96
-96
-95
-95
-96
-95
-96
-96
-96
-97
-98
-99
-99
-99
-99
-99
-100
-101
-101
-100
-100
-100
-99
-99
-97
-96
-92
-90
-86
-83
-78
-73
-67
-60
-54
-46
-38
-30
-20
-11
0
9
19
29
40
50
61
70
81
91
100
109
118
128
137
144
152
159
166
172
179
184
189
193
197
201
205
208
210
212
214
215
216
217
217
217
217
217
216
216
214
213
211
209
207
206
204
201
200
197
194
192
190
187
185
182
179
177
174
172
169
166
163
159
157
153
150
148
144
141
137
133
130
126
123
119
115
112
109
104
101
97
93
89
85
81
77
72
69
64
59
55
51
47
42
37
32
27
22
18
13
8
2
-3
-8
-13
-19
-24
-29
-35
-40
-45
-50
-55
-59
-64
-68
-73
-76
-80
-83
-86
-90
-93
-96
-98
-100
-101
-104
-105
-106
-107
-108
-109
-110
-111
-111
-112
-112
-112
-112
-113
-113
-113
-114
-114
-114
-114
-114
-115
-114
-115
-115
-115
-115
-115
-116
-115
-116
-116
-116
-116
-116
-117
-117
-117
-117
-117
-118
-119
-118
-119
-119
-119
-119
-120
-120
-120
-120
-120
-119
-120
-120
-121
-121
-121
-121
-121
-120
-120
-121
-121
-121
-121
-121
-121
-122
-122
-122
-122
-122
-123
-123
-124
-124
-124
-124
-125
-125
-125
-126
-126
-126
-126
-126
-127
-127
-127
-127
-127
-127
-126
-127
-127
-128
-127
-127
-127
-127
-128
-128
-129
-128
-129
-129
-129
-129
-129
-129
-129
-129
-130
-130
-130
-132
-132
-132
-132
-133
-133
-133
-135
-134
-134
-135
-136
-136
-136
-136
-137
-137
-137
-138
-139
-139
-139
-139
-139
-140
-141
-141
-141
-141
-142
-141
-141
-142
-143
-143
-143
-143
-143
-144
-145
-145
-146
-146
-146
-147
-148
-149
-150
-150
-150
-150
-151
-151
-151
-152
-153
-153
-153
-153
-153
-154
-155
-154
-155
-155
-156
-156
-156
-156
-157
-157
-157
-158
-158
-158
-158
-158
-158
-159
-160
-160
-160
-160
-159
-160
-161
-161
-161
-161
-161
-162
-163
-163
-163
-164
-164
-163
-164
-164
-165
-164
-165
-165
-164
-164
-164
-163
-163
-162
-162
-161
-160
-160
-159
-158
-158
-156
-155
-155
-153
-153
-152
-151
-150
-149
-148
-146
-145
-145
-143
-142
-140
-140
-139
-138
-137
-135
-134
-133
-132
-132
-130
-130
-129
-127
-126
-125
-125
-123
-122
-120
-119
-118
-117
-115
-113
-111
-110
-109
-108
-106
-105
-103
-102
-100
-99
-97
-96
-94
-93
-91
-90
-89
-88
-87
-85
-85
-84
-84
-83
-82
-82
-81
-81
-80
-80
-80
-80
-80
-80
-79
-79
-80
-80
-79
-80
-80
-80
-80
-80
-80
-80
-80
-80
-80
-81
-81
-81
-81
-81
-81
-82
-82
-83
-82
-83
-83
-83
-84
-85
-85
-87
-87
-87
-87
-88
-90
-90
-91
-91
-92
-92
-92
-93
-93
-93
-93
-94
-95
-95
-95
-96
-96
-96
-96
-96
-96
-96
-96
-96
-96
-96
-96
-96
-96
-96
-96
-97
-97
-97
-98
-98
-98
-98
-99
-99
-99
-100
-100
-99
-99
-99
-99
-99
-99
-100
-98
-98
-99
-99
-99
-99
-98
-99
-99
-99
-100
-100
-101
-101
-101
-102
-102
-103
-102
-103
-102
-103
-103
-104
-105
-104
-105
-104
-104
-104
-104
-104
-104
-104
-104
-104
-105
-104
-103
-104
-103
-103
-103
-104
-104
-104
-104
-104
-105
-105
-106
-106
-106
-106
-107
-107
-108
-108
-109
-108
-109
-109
-110
-110
-111
-110
-111
-110
-111
-111
-111
-111
-111
-111
-111
-111
-110
-111
-111
-111
-111
-111
-111
-112
-112
-112
-112
-113
-112
-113
-113
-113
-113
-112
-112
-112
-113
-112
-113
-113
-112
-112
-112
-113
-113
-113
-113
-113
-113
-114
-114
-114
-113
-114
-113
-114
-114
-114
-114
-114
-114
-114
-114
-114
-114
-114
-114
-114
-113
-114
-113
-113
-114
-113
-113
-112
-113
-113
-112
-112
-111
-112
-112
-113
-112
-113
-112
-112
-113
-113
-113
-113
-113
-112
-112
-112
-113
-112
-112
-112
-112
-111
-111
-111
-110
-111
-111
-110
-110
-110
-110
-111
-110
-110
-110
-110
-110
-110
-109
-110
-109
-110
-110
-110
-110
-109
-109
-109
-109
-109
-109
-109
-108
-108
-108
-108
-108
-107
-108
-107
-106
-106
-106
-107
-106
-106
-106
-105
-106
-106
-107
-107
-106
-106
-107
-107
-107
-108
-107
-107
-107
-107
-108
-108
-108
-107
-108
-107
-108
-107
-106
-106
-105
-105
-104
-103
-103
-102
-101
-100
-100
-99
-99
-99
-98
-97
-96
-96
-95
-95
-95
-95
-94
-94
-93
-93
-93
-93
-93
-92
-92
-92
-93
-93
-93
-94
-93
-93
-93
-93
-94
-94
-94
-94
-94
-94
-94
-94
-94
-93
-93
-93
-93
-93
-94
-94
-93
-93
-93
-94
-94
-94
-94
-94
-94
-95
-95
-96
-96
-96
-96
-97
-97
-97
-97
-98
-97
-98
-98
-98
-99
-100
-101
-101
-102
-102
-103
-103
-104
-104
-105
-105
-106
-106
-107
-107
-107
-107
-107
-108
-108
-108
-108
-107
-107
-108
-107
-107
-108
-108
-108
-108
-108
-108
-109
-109
-108
-108
-109
-109
-109
-109
-108
-108
-108
-108
-108
-108
-108
-108
-107
-107
-107
-107
-107
-107
-107
-106
-107
-107
-107
-108
-107
-107
-107
-108
-107
-107
-108
-107
-107
-108
-108
-108
-109
-109
-109
-110
-110
-110
-111
-112
-111
-112
-112
-111
-112
-112
-112
-112
-112
-112
-112
-112
-112
-111
-111
-111
-110
-110
-109
-109
-110
-109
-108
-108
-108
-108
-108
-106
-106
-107
-107
-107
-108
-108
-108
-108
-109
-108
-109
-108
-108
-108
-109
-109
-109
-109
-110
-110
-110
-110
-110
-111
-110
-110
-110
-109
-109
-108
-107
-106
-104
-102
-98
-95
-91
-87
-82
-76
-70
-63
-55
-48
-41
-31
-22
-12
-3
7
17
27
38
49
59
68
78
88
97
107
116
124
132
139
146
152
158
164
167
172
175
177
180
182
183
184
185
185
184
184
182
181
180
178
176
174
172
171
168
166
164
161
159
158
155
153
151
148
147
145
142
140
138
135
132
130
127
125
122
119
116
113
109
107
103
99
96
92
88
85
80
77
73
70
65
61
57
53
48
44
40
36
32
28
24
19
15
12
8
4
0
-3
-7
-11
-15
-20
-24
-27
-31
-35
-39
-43
-47
-50
-55
-59
-62
-67
-70
-74
-77
-81
-84
-88
-91
-94
-97
-100
-102
-104
-107
-108
-110
-112
-114
-115
-117
-118
-118
-119
-119
-120
-120
-121
-122
-121
-122
-122
-122
-122
-123
-123
-123
-124
-124
-125
-125
-125
-125
-125
-125
-126
-126
-126
-126
-127
-127
-127
-127
-128
-128
-128
-128
-129
-129
-129
-130
-130
-130
-130
-130
-130
-130
-131
-131
-131
-131
-131
-130
-130
-130
-130
-131
-130
-129
-129
-129
-129
-129
-129
-129
-129
-129
-129
-129
-129
-130
-130
-130
-130
-130
-130
-130
-130
-130
-131
-130
-131
-131
-131
-130
-130
-130
-131
-131
-131
-131
-131
-131
-131
-132
-132
-132
-133
-133
-133
-133
-133
-134
-133
-134
-134
-135
-136
-136
-137
-137
-137
-137
-138
-138
-139
-138
-138
-138
-139
-139
-140
-140
-140
-139
-140
-140
-141
-140
-141
-140
-141
-140
-141
-141
-142
-141
-142
-141
-142
-142
-143
-143
-143
-143
-144
-145
-146
-146
-147
-147
-147
-148
-148
-149
-149
-150
-150
-149
-150
-151
-151
-151
-151
-151
-151
-151
-152
-152
-152
-152
-152
-153
-154
-154
-155
-155
-156
-156
-157
-156
-157
-157
-157
-157
-158
-158
-159
-159
-159
-159
-158
-159
-159
-160
-160
-160
-161
-160
-160
-161
-161
-161
-161
-161
-161
-161
-162
-163
-163
-162
-162
-162
-163
-163
-162
-162
-162
-162
-162
-161
-161
-160
-160
-159
-159
-159
-158
-158
-157
-156
