# Simple Text Format
# Sampling Rate (Hz):= 1200.00
# Resolution:= 12
# Labels:= ECG	 I 
# Age:=	80
# Gender:=	Feminino
118
118
118
118
118
118
118
118
119
119
119
119
119
119
118
118
117
117
117
117
117
117
116
116
116
116
116
116
115
115
115
115
114
114
114
114
113
113
114
114
115
115
115
116
117
118
119
121
123
125
126
129
132
134
137
140
143
147
151
155
160
165
169
175
181
186
191
195
200
204
208
212
214
217
218
218
218
215
212
208
203
198
191
182
174
165
156
145
135
126
116
107
98
90
83
76
69
63
59
55
53
50
49
48
48
48
50
50
52
53
55
57
59
61
64
66
67
69
70
72
72
74
74
76
76
76
78
78
78
78
78
78
79
79
79
79
79
80
79
80
80
79
79
80
80
80
80
80
80
80
80
81
81
81
81
81
81
82
83
83
84
84
85
86
86
87
87
88
89
89
91
92
93
95
95
97
98
99
100
102
103
105
106
107
107
108
110
110
112
113
113
113
113
113
113
111
111
111
111
111
110
110
110
110
112
112
113
113
115
115
116
117
117
119
119
121
122
122
124
124
124
124
124
124
122
122
122
121
120
119
119
118
117
116
116
115
115
115
115
114
115
115
115
115
116
116
118
118
118
119
119
119
119
120
120
121
122
122
122
122
122
122
123
123
122
122
122
122
122
122
122
122
122
122
121
121
120
120
121
121
121
121
122
122
122
122
121
121
121
121
121
121
122
122
122
122
122
122
122
121
121
121
120
120
120
120
120
120
120
121
120
120
120
120
120
120
121
121
121
121
122
123
123
123
124
125
124
125
125
126
126
127
127
128
128
128
128
128
129
129
129
129
130
130
131
131
131
132
131
131
130
131
131
131
131
131
131
131
131
130
131
130
131
130
130
131
131
131
131
131
132
133
133
134
134
135
136
136
136
136
137
137
138
138
137
138
137
138
138
137
138
138
139
138
139
138
139
140
139
139
141
142
143
145
147
148
149
150
151
150
151
152
152
152
153
153
152
153
153
152
151
150
150
149
148
147
147
146
145
145
145
144
144
145
144
144
144
145
145
146
146
147
147
148
147
148
147
147
146
146
146
144
144
144
143
144
144
143
142
142
142
141
140
140
141
140
141
142
142
143
143
143
144
143
144
145
144
145
144
144
143
143
143
142
143
143
142
141
141
139
138
139
138
137
137
135
135
134
134
133
132
131
131
130
129
128
127
127
126
126
126
126
125
125
125
124
125
124
124
125
124
125
125
125
125
125
125
125
125
124
125
125
124
124
125
124
124
123
123
123
123
123
123
122
122
122
122
121
121
121
120
121
120
119
120
120
120
121
121
122
122
122
121
121
120
120
120
120
120
120
121
121
122
122
121
121
120
119
118
118
118
118
118
118
118
118
117
117
117
117
117
117
117
117
116
116
116
116
116
116
116
117
117
118
118
118
118
117
118
118
118
119
118
119
119
120
120
121
121
120
120
120
120
120
121
121
122
121
121
120
120
120
119
119
120
119
119
119
119
119
119
119
118
118
118
118
118
118
118
118
118
118
118
118
119
119
118
118
118
119
119
119
120
120
120
121
121
121
121
121
123
123
123
123
124
124
125
125
125
124
124
124
123
123
123
122
123
122
123
122
123
123
123
123
123
123
123
123
123
122
122
122
122
122
123
122
122
121
121
121
122
121
121
121
121
121
121
122
121
121
121
121
122
122
123
123
124
124
124
123
123
123
123
123
124
124
124
124
124
124
123
123
124
124
123
123
123
123
123
123
123
124
124
124
125
125
126
126
126
126
126
126
125
126
126
126
126
126
125
125
125
125
125
124
124
124
124
123
123
123
123
123
123
123
124
124
124
124
124
124
125
124
124
124
123
123
123
123
122
122
121
121
120
120
119
119
119
118
118
118
118
118
117
117
118
118
118
119
120
120
121
121
122
123
123
123
124
123
123
123
124
123
123
122
122
122
121
121
121
119
119
119
119
120
119
118
118
118
118
119
118
118
119
119
119
119
119
119
119
119
118
118
118
118
118
118
118
118
118
118
119
119
119
119
119
119
120
120
120
120
120
121
122
122
122
122
122
122
122
122
122
122
122
121
121
120
119
119
119
119
117
117
117
117
117
116
115
115
115
115
115
115
116
116
117
118
120
120
121
121
121
121
122
122
122
122
122
122
122
122
120
120
119
119
118
118
117
116
116
116
116
116
116
116
116
117
116
116
117
118
118
118
119
119
119
120
120
119
119
119
119
119
118
118
118
117
117
117
117
116
116
117
117
117
117
118
117
117
117
117
117
117
118
118
118
118
118
117
117
117
117
116
116
116
115
115
115
115
115
114
115
115
116
116
117
117
118
118
117
118
118
118
118
118
118
118
118
117
118
118
117
117
117
117
117
117
116
116
116
116
116
116
116
116
116
115
115
116
116
116
116
116
116
116
116
115
115
115
115
115
115
115
116
116
116
117
117
117
117
118
118
118
118
118
119
118
119
119
119
119
119
119
119
119
119
118
118
119
119
119
118
118
118
118
118
118
117
117
117
117
117
117
117
116
115
115
115
115
115
115
116
115
115
114
114
114
114
115
116
115
115
115
116
116
116
118
118
118
118
118
117
118
118
118
119
119
119
118
118
118
118
117
117
117
117
117
116
116
117
117
117
118
118
118
118
118
118
118
118
118
118
117
117
117
117
117
118
118
118
118
118
117
117
117
117
117
117
117
117
117
117
117
117
117
117
117
116
116
116
116
114
115
115
115
116
116
116
116
116
116
117
117
117
118
119
120
121
121
121
121
122
122
122
121
121
121
120
121
120
119
118
117
117
117
116
116
115
114
114
114
112
112
113
113
113
114
113
114
115
115
115
115
115
115
116
116
116
117
117
117
117
117
118
118
118
118
118
117
117
117
117
117
117
116
116
116
115
115
116
116
116
116
116
116
115
115
115
115
116
116
117
117
117
118
118
118
118
119
119
119
119
120
120
121
121
123
123
123
123
124
124
124
125
125
125
126
126
126
126
127
127
127
128
129
129
129
129
130
130
130
130
131
132
132
133
133
133
134
133
133
134
134
134
135
134
135
136
135
136
135
135
135
135
135
134
135
135
135
135
135
135
135
134
134
134
134
134
133
133
133
132
132
132
131
130
129
128
127
127
127
127
126
126
126
125
124
123
123
123
123
123
123
123
123
123
123
123
123
123
122
122
122
123
123
122
122
122
122
121
121
121
121
120
119
119
120
119
119
119
119
119
118
117
117
117
116
115
115
114
114
114
114
114
113
112
112
112
111
111
110
109
109
109
108
108
108
109
110
109
109
110
110
110
110
111
111
111
112
112
112
112
113
113
114
114
114
114
114
115
115
115
115
114
113
113
113
113
113
113
113
112
112
111
112
111
111
111
111
111
110
110
110
110
111
110
110
111
112
112
113
113
114
114
116
117
119
122
124
128
132
137
141
146
152
159
165
172
180
186
194
201
208
214
219
224
229
232
234
235
235
234
232
229
224
218
211
202
192
182
171
160
149
138
126
116
106
97
87
79
70
63
57
52
48
44
41
40
39
39
38
39
40
41
42
45
47
49
50
52
54
55
57
58
60
62
63
64
64
66
66
66
68
68
69
69
69
69
69
69
69
68
68
68
67
67
67
67
67
68
68
68
68
68
68
69
69
70
70
70
71
72
73
73
75
75
76
77
77
79
80
81
82
84
85
86
86
87
89
90
91
92
93
94
95
97
98
99
100
101
102
102
103
104
105
106
107
109
109
109
109
109
110
110
110
111
110
110
110
110
109
109
109
110
110
110
109
109
108
108
108
108
109
109
109
110
110
109
111
111
111
111
111
111
111
111
112
111
111
111
111
111
111
111
110
110
110
110
109
109
108
108
109
109
108
108
109
109
109
109
109
110
110
110
110
111
111
111
111
111
112
112
112
112
113
112
111
111
110
111
110
110
110
109
110
110
110
110
110
110
110
111
110
110
110
111
111
111
111
111
111
112
112
111
112
111
111
111
111
111
111
111
112
112
113
113
113
114
114
115
115
115
115
115
115
116
116
116
117
117
118
118
119
118
118
118
119
118
119
120
119
120
120
121
121
121
121
121
121
121
122
122
121
122
122
122
122
122
123
122
122
123
123
123
124
124
124
124
124
125
125
126
126
126
126
126
126
127
128
129
130
131
131
131
130
131
132
132
133
134
134
135
135
135
135
135
135
135
135
135
136
135
136
135
136
135
136
135
136
136
136
136
137
138
138
138
138
139
139
139
140
140
140
141
141
142
142
142
143
143
144
145
145
145
146
146
146
146
146
145
146
146
145
146
146
146
145
145
143
142
142
141
141
140
139
139
139
139
139
139
139
139
139
140
140
141
140
141
142
142
143
143
143
144
144
144
144
143
143
142
141
141
140
139
139
138
137
136
135
134
134
133
133
132
131
130
130
129
130
130
131
130
130
130
129
128
128
127
127
126
126
126
125
126
126
125
125
124
124
123
123
122
122
122
121
121
121
121
121
121
120
120
120
120
120
119
119
118
118
118
118
117
117
117
116
116
116
116
116
115
116
116
116
115
115
115
115
115
115
115
115
115
116
115
115
116
116
116
116
115
116
116
115
115
115
114
114
113
113
112
112
113
113
112
112
112
113
113
114
113
113
113
114
113
113
114
114
114
114
113
113
113
113
113
113
113
113
113
113
113
113
113
113
113
113
114
114
114
114
114
116
116
116
116
115
115
114
114
114
114
114
114
113
113
112
112
111
111
111
110
110
109
109
109
109
109
109
109
109
109
110
110
111
111
111
112
113
113
114
114
114
114
114
114
114
114
115
115
115
115
115
115
115
115
115
115
114
114
115
115
115
115
116
116
117
117
117
117
117
116
116
115
115
114
114
114
115
114
114
114
115
114
114
115
115
115
116
116
116
116
117
117
117
117
118
118
118
119
118
118
118
118
118
118
118
118
118
118
118
117
117
117
116
116
116
116
116
116
117
116
117
117
117
117
117
118
118
119
120
120
120
121
121
121
120
120
120
120
120
119
119
118
118
117
117
117
116
116
116
116
116
116
115
115
115
115
116
116
117
117
117
117
117
116
116
115
115
115
114
114
115
114
113
113
113
113
112
112
111
111
112
112
113
113
113
115
115
116
116
116
116
116
117
117
118
118
118
118
120
119
119
120
119
120
120
120
120
120
120
120
120
120
121
119
119
119
119
119
119
119
119
118
117
117
116
116
115
114
114
114
115
115
115
115
115
115
113
114
114
114
115
115
115
115
116
116
116
116
116
116
116
116
116
116
116
116
116
116
116
116
117
117
117
118
118
118
118
119
119
119
120
120
120
120
120
120
119
120
120
120
121
121
120
120
120
120
118
118
118
117
117
117
117
117
115
115
114
114
113
113
113
112
112
112
111
111
111
112
112
112
113
113
114
114
114
115
115
115
116
116
117
117
118
118
118
118
118
118
118
118
118
118
118
118
117
118
117
117
117
117
117
118
117
117
117
117
117
117
116
116
117
117
117
117
117
117
117
117
116
116
116
116
116
117
117
118
118
118
119
119
118
118
118
118
117
117
117
117
118
117
117
117
117
117
116
115
115
116
116
116
117
117
117
117
117
117
117
117
117
118
119
119
119
119
118
118
118
119
119
118
119
119
120
120
120
119
119
119
118
118
119
119
119
119
119
118
118
118
118
117
116
116
116
115
114
114
114
114
114
114
115
114
114
113
113
114
114
115
116
117
118
119
119
120
120
120
120
121
121
122
122
122
122
121
121
122
121
121
120
120
120
119
119
119
119
118
117
117
117
116
116
116
116
116
116
116
116
116
116
114
114
114
115
115
114
115
115
114
115
115
116
116
117
117
117
117
117
117
117
118
118
119
119
120
120
119
120
120
120
119
120
120
120
120
121
120
120
119
118
118
118
118
118
118
118
118
117
117
116
116
116
115
115
115
115
116
116
116
116
117
117
118
118
118
118
119
119
120
120
120
120
121
121
121
121
120
120
119
119
119
118
118
117
118
117
117
117
116
116
115
115
116
115
115
116
116
117
116
117
117
118
118
119
119
120
120
120
121
121
123
123
123
123
124
124
124
125
125
125
126
126
125
125
126
126
125
125
125
125
125
125
126
126
127
127
128
128
129
129
130
131
131
132
133
133
134
135
136
137
139
139
140
138
138
137
137
137
137
137
137
136
135
134
134
133
132
132
131
131
131
131
131
130
130
130
129
130
130
130
131
130
130
130
129
129
129
129
128
127
127
126
125
125
124
124
123
123
123
122
121
121
121
121
120
120
120
120
120
120
120
119
119
119
120
119
119
119
119
118
117
117
117
116
116
116
116
116
116
116
115
115
115
114
114
114
113
113
113
112
112
112
112
112
112
111
111
111
111
111
110
110
110
111
111
111
111
110
110
110
110
110
110
110
109
109
109
109
109
110
110
109
110
110
111
111
111
111
111
111
111
111
111
111
112
112
112
112
111
111
111
111
112
113
113
113
113
113
113
113
114
114
114
115
116
116
117
118
118
120
121
123
126
129
132
136
140
144
150
155
162
168
175
181
187
194
201
206
212
216
221
223
226
226
227
225
222
217
212
206
198
189
180
171
159
149
138
127
117
106
96
87
79
71
63
58
53
50
47
46
45
43
44
43
45
47
49
51
54
55
57
59
60
62
63
64
66
67
68
68
69
69
70
70
70
70
70
70
71
71
71
71
71
71
71
71
71
71
72
71
72
72
72
73
73
72
72
73
73
73
73
74
75
76
78
79
80
81
81
82
82
82
83
83
85
86
87
87
88
88
88
89
90
91
91
92
94
95
96
97
98
98
99
101
102
103
104
105
106
107
109
109
109
110
111
111
110
111
111
111
111
111
111
111
111
112
112
112
112
112
113
112
112
112
112
112
112
113
113
113
114
114
113
113
113
112
113
113
112
112
112
112
113
112
112
112
112
111
112
112
113
113
113
113
113
113
114
115
115
115
115
115
115
115
115
116
115
115
115
115
115
115
114
114
114
113
113
114
114
113
113
113
113
113
113
113
113
112
113
113
113
113
113
113
113
114
115
115
114
114
114
114
114
114
114
114
114
114
114
114
115
115
116
116
116
116
116
115
115
115
115
116
116
116
116
117
117
116
117
117
117
117
117
116
117
116
117
117
117
117
118
117
118
118
117
117
118
118
118
119
119
119
119
120
120
120
120
121
121
121
122
122
122
122
123
123
124
124
125
126
126
127
128
129
130
130
131
131
132
132
132
132
131
131
130
129
129
128
127
128
127
127
127
126
125
125
126
125
126
126
127
128
129
129
131
132
132
133
134
135
135
136
136
136
137
136
137
137
137
138
138
139
139
140
140
140
140
140
141
141
142
142
142
142
142
143
143
143
143
144
144
144
143
144
144
145
144
144
144
145
144
144
144
144
144
144
143
143
143
143
143
143
141
141
141
139
139
139
139
138
138
139
138
139
139
138
139
138
139
140
139
140
139
139
139
138
137
138
137
136
135
134
134
133
132
131
130
129
129
128
128
127
127
126
126
126
126
125
125
125
125
125
124
125
124
125
124
124
124
123
124
123
124
123
123
122
121
121
120
120
119
119
119
119
118
119
118
117
115
115
115
115
115
116
115
116
116
116
115
116
115
116
116
116
115
116
116
115
115
115
114
114
114
114
114
114
114
114
113
113
112
112
110
110
110
110
110
109
109
109
109
109
109
108
109
109
109
109
109
110
110
111
111
111
111
112
112
112
112
112
111
111
111
111
111
111
111
111
111
110
109
109
109
109
108
108
108
108
107
106
106
106
106
106
106
106
106
106
106
106
106
106
106
106
108
108
108
108
108
108
108
108
108
108
108
108
109
108
108
108
108
107
108
107
107
107
107
107
107
106
106
106
106
106
105
105
105
105
105
105
105
105
106
106
106
106
107
108
109
109
110
110
110
110
110
109
110
111
111
111
111
111
111
110
110
110
110
110
109
109
107
107
107
108
108
108
108
107
107
107
107
107
107
108
108
108
108
108
107
108
108
108
108
108
109
108
108
109
110
110
110
111
111
111
112
112
112
113
113
112
112
113
113
114
114
114
114
113
113
112
111
111
110
109
109
108
108
107
106
105
105
105
104
104
104
103
103
102
102
102
102
103
103
103
104
104
105
106
106
106
106
107
106
107
107
107
107
107
107
106
106
106
106
106
106
106
106
106
106
107
107
107
107
107
108
108
109
109
108
108
109
108
108
108
108
108
107
107
107
107
107
107
107
106
106
105
106
105
105
105
105
106
106
105
104
104
104
105
104
104
104
104
105
105
104
104
104
104
103
103
103
103
103
103
103
103
103
102
103
103
102
102
102
102
102
103
103
104
105
104
105
105
106
106
106
106
106
106
106
106
106
106
106
105
105
105
106
106
106
106
105
106
105
105
105
107
107
108
108
108
108
108
108
107
106
106
105
105
105
104
104
104
103
101
101
100
100
100
100
99
99
100
100
100
100
101
101
101
102
102
103
103
104
104
104
104
104
105
105
105
105
105
104
104
104
104
103
104
103
103
103
103
103
103
103
103
103
103
103
103
103
103
103
103
104
104
105
105
105
106
106
107
107
108
108
107
108
108
108
107
108
108
108
108
109
109
108
108
108
108
107
108
108
108
107
107
107
107
107
107
106
106
106
106
106
106
106
106
107
106
106
106
106
106
106
106
106
105
105
105
105
105
104
104
104
105
105
104
105
105
105
105
106
106
106
106
107
107
107
107
108
108
108
108
109
108
108
107
107
107
107
106
106
106
106
106
106
106
106
105
105
105
106
106
106
107
107
107
107
107
107
107
107
107
108
108
108
109
109
108
109
109
109
109
109
109
109
109
109
109
109
109
109
109
109
108
109
109
109
110
109
108
108
108
108
107
107
107
107
107
106
106
106
106
105
104
104
104
104
104
104
103
103
103
103
103
103
103
105
105
105
105
105
107
107
107
109
109
109
109
108
109
109
109
109
109
109
111
111
111
110
109
109
109
108
109
108
108
108
108
108
108
108
108
109
108
108
109
108
109
109
109
110
110
110
110
110
111
111
111
112
113
113
115
115
116
117
118
118
118
119
118
119
119
120
120
120
120
120
120
119
120
120
120
120
120
121
121
121
121
122
122
123
124
126
127
127
129
128
129
130
129
129
130
130
129
129
128
128
127
127
127
126
125
125
124
124
124
124
124
124
124
124
124
123
124
124
124
124
125
124
124
124
124
124
123
122
121
121
119
119
118
118
117
117
118
118
118
117
117
117
116
117
117
117
117
118
118
118
118
119
119
118
118
117
117
117
117
116
116
115
115
114
114
114
114
112
112
111
111
110
109
109
109
109
109
109
109
108
107
106
106
106
106
105
105
105
105
105
105
105
104
104
103
103
103
103
103
104
104
103
104
104
104
104
104
104
104
104
104
104
104
104
104
104
104
104
104
105
106
105
106
106
106
106
106
105
106
106
106
106
105
105
105
104
104
104
103
103
102
101
101
101
100
99
100
101
101
101
102
102
103
103
106
107
109
112
114
117
121
125
129
133
139
144
150
157
163
170
177
184
191
197
203
209
214
218
220
222
223
222
220
217
213
207
201
193
184
174
164
154
142
131
120
109
98
88
79
71
63
56
50
44
39
36
33
31
31
30
31
31
32
33
35
36
37
40
42
44
47
48
50
51
53
54
54
56
56
58
59
60
61
61
62
62
61
62
62
62
62
61
61
62
61
61
60
60
59
59
59
58
58
59
59
59
58
58
59
59
60
61
62
62
64
64
64
65
67
67
68
70
71
72
72
74
75
75
76
77
78
78
79
81
81
83
83
84
85
86
87
88
89
89
90
91
91
92
93
93
94
94
95
96
96
97
97
98
97
98
98
99
98
98
99
99
99
99
99
100
99
99
98
98
98
98
97
99
99
100
100
101
101
101
101
101
101
101
101
102
102
102
101
102
101
100
99
98
97
96
96
95
94
94
94
94
94
94
93
94
95
95
96
96
97
97
97
98
98
98
99
99
99
99
99
98
97
97
97
96
96
96
95
95
95
95
95
95
96
96
96
97
97
97
97
97
98
98
99
99
99
99
99
99
99
99
99
99
100
99
99
99
99
98
98
98
98
99
99
99
99
98
98
98
98
98
98
98
98
98
98
98
99
99
99
99
98
99
100
100
102
102
103
103
104
104
105
105
105
106
106
106
106
106
106
106
106
106
105
105
105
104
105
105
104
105
104
104
105
105
106
105
106
105
106
106
107
108
108
109
109
110
110
110
111
111
112
113
113
114
115
116
116
117
117
118
117
117
118
117
118
118
117
118
118
118
119
119
119
119
119
119
120
120
120
120
121
121
121
122
122
122
122
123
122
122
121
121
121
119
119
120
120
121
121
121
121
122
122
122
122
123
123
124
124
125
126
126
127
127
127
127
127
126
126
125
126
126
126
125
125
124
124
123
124
123
123
123
122
123
122
122
122
121
121
120
120
119
119
118
117
117
116
116
116
115
115
114
114
112
112
111
110
109
108
108
107
108
106
105
105
104
104
103
104
103
102
103
103
102
103
102
103
103
102
103
103
103
103
103
103
103
102
103
102
101
101
100
100
100
100
99
99
98
98
97
97
97
97
96
97
96
95
95
94
93
93
93
92
92
92
92
92
92
92
91
91
91
92
92
93
93
93
94
94
93
94
93
93
93
93
92
93
93
93
93
92
93
93
93
93
92
92
92
91
91
91
92
92
92
92
92
92
91
91
91
91
90
90
91
91
91
92
92
92
92
92
92
91
91
90
90
90
90
90
89
89
88
88
88
87
87
87
87
87
87
87
88
88
89
89
90
90
90
90
91
92
92
93
93
93
93
94
93
92
92
92
91
91
90
90
90
89
89
89
89
89
90
90
90
90
90
91
91
92
92
91
92
93
93
93
93
93
94
93
93
92
92
92
92
92
91
91
91
90
89
89
89
88
88
88
88
88
88
88
89
90
90
89
91
91
92
92
93
94
96
96
96
96
97
97
97
97
97
97
97
97
96
96
95
95
94
94
93
93
92
92
92
91
91
91
91
91
92
93
93
93
92
92
92
92
93
92
92
92
92
93
93
92
92
92
91
91
91
91
91
91
91
91
91
92
92
92
92
92
91
91
92
92
91
91
91
91
92
92
92
92
92
92
92
92
93
93
93
94
94
93
93
93
94
94
94
94
94
93
93
93
91
91
90
91
91
90
90
89
89
89
89
88
88
88
88
88
88
88
88
88
89
88
88
89
88
88
89
89
89
89
90
90
90
90
90
90
91
92
92
93
94
94
94
95
95
94
94
94
94
94
94
94
94
94
94
94
93
92
93
92
92
92
92
91
91
92
91
91
90
91
91
91
92
92
92
92
92
92
92
91
90
90
90
90
90
90
90
89
89
89
88
88
87
87
87
88
88
88
88
88
87
87
87
87
88
88
87
87
87
88
87
87
86
86
87
87
87
86
86
86
86
86
87
87
87
88
88
89
88
88
88
88
89
89
89
88
89
89
88
89
88
88
87
87
87
87
87
87
88
89
89
89
89
89
90
90
90
90
90
90
91
92
92
93
93
93
92
92
92
91
91
91
91
90
89
89
89
89
89
88
88
88
88
88
87
86
87
86
87
88
88
88
89
89
89
90
90
89
90
90
90
90
90
90
90
90
91
90
91
90
90
90
90
90
90
89
89
89
89
88
88
88
89
89
89
90
90
90
88
88
88
87
88
88
88
88
88
88
88
87
87
86
86
85
85
85
85
85
85
84
84
84
84
84
85
85
85
85
85
86
86
86
86
86
86
86
86
86
86
86
86
86
86
86
86
86
86
87
87
87
86
87
86
86
86
86
86
85
85
85
84
84
84
83
83
83
83
84
84
83
83
84
84
85
85
85
86
86
87
87
87
87
87
88
88
87
87
86
86
86
86
85
85
86
86
86
85
85
85
85
86
87
87
87
88
88
88
88
88
89
89
90
91
91
92
92
92
91
91
92
93
93
94
95
96
97
98
98
98
98
98
98
99
99
99
99
100
100
99
99
99
99
99
98
98
98
98
98
98
99
99
99
100
99
100
100
101
102
101
102
102
102
102
102
102
102
103
103
103
103
103
103
103
102
102
102
102
101
100
101
101
101
101
101
101
100
99
99
99
98
98
97
96
95
95
94
93
92
92
91
90
90
88
88
87
86
86
85
85
85
86
86
86
86
85
85
86
86
86
85
85
85
85
86
85
84
84
83
82
81
81
79
78
77
76
76
75
75
75
74
74
74
74
74
73
72
71
71
71
71
71
71
72
72
72
72
72
71
71
71
72
72
73
73
74
74
75
75
75
76
76
76
77
77
77
77
77
77
77
78
78
78
78
78
77
77
77
77
76
77
77
76
76
76
75
76
75
74
75
75
75
76
76
76
76
75
75
75
75
75
75
76
77
78
80
80
82
84
85
88
91
96
101
106
111
117
123
130
137
144
152
159
167
174
180
187
191
195
197
199
200
199
196
192
187
181
174
166
156
147
136
125
114
103
92
80
70
60
51
41
33
26
20
14
12
8
6
4
3
1
2
2
4
6
8
10
11
13
14
16
17
19
21
22
24
25
26
27
28
28
29
29
30
31
31
32
32
33
33
33
33
33
34
33
34
34
35
34
34
34
34
33
33
32
32
32
33
33
33
34
33
33
33
34
34
36
37
39
40
42
43
44
45
46
48
48
49
51
52
53
54
56
57
57
59
59
60
61
61
61
62
62
63
63
64
65
66
66
66
67
68
69
69
69
69
69
70
70
71
71
71
71
71
71
72
72
72
72
73
73
74
73
74
74
74
74
74
74
75
75
74
74
74
72
72
72
71
71
70
70
69
68
69
69
68
69
69
69
68
68
68
69
69
69
69
70
71
70
70
69
69
69
69
69
69
68
68
68
68
67
67
67
68
68
68
68
68
68
68
68
69
70
70
71
72
72
72
72
73
73
73
73
73
74
75
74
75
74
75
75
75
76
75
75
76
75
76
76
76
75
76
75
75
75
74
74
74
74
74
74
73
73
72
72
72
72
72
72
72
72
72
73
73
73
73
73
73
74
73
74
74
75
76
75
76
75
76
76
77
77
77
78
78
79
79
80
80
81
81
83
83
84
84
85
85
85
85
86
86
87
87
87
87
86
87
86
87
86
86
87
86
87
87
87
88
88
89
89
90
90
90
91
91
91
92
92
93
94
93
94
93
93
94
93
94
93
94
93
93
93
92
93
93
94
94
94
96
96
96
97
97
97
96
96
97
97
97
97
97
98
98
98
98
98
98
98
99
99
99
99
99
99
98
99
99
99
99
100
100
100
99
99
100
99
99
98
99
98
98
99
98
99
98
99
98
98
97
98
97
97
97
97
96
97
96
96
95
95
94
95
94
93
92
91
91
90
91
90
90
90
90
89
89
88
88
87
86
87
86
86
87
86
87
87
86
86
86
85
84
83
83
82
82
82
83
82
81
81
80
80
79
79
78
78
77
77
77
76
75
76
75
75
74
74
73
73
73
72
72
71
70
70
69
70
70
70
69
70
69
69
69
68
68
68
69
69
70
71
71
71
71
71
71
71
71
71
71
71
71
71
71
71
71
72
72
72
72
71
70
69
69
69
68
68
68
68
67
68
68
68
68
67
67
67
66
65
65
65
65
65
65
67
67
67
67
67
67
67
68
68
68
69
68
69
69
69
69
70
70
69
69
69
70
69
69
68
68
68
68
67
67
67
67
67
66
66
66
65
65
64
64
64
64
64
64
64
64
64
64
64
64
64
64
63
63
63
63
63
63
63
63
63
64
64
64
65
65
65
65
66
66
67
67
67
68
68
69
70
70
70
70
71
70
70
70
72
72
72
73
73
72
72
72
72
72
71
71
71
71
71
71
71
71
69
69
69
68
67
67
67
67
67
67
67
67
67
67
67
68
69
69
70
70
70
70
70
70
71
71
71
72
73
73
73
73
73
73
72
72
72
71
71
71
71
70
69
69
68
68
67
67
66
66
65
65
65
65
65
65
66
67
67
68
68
69
69
70
70
71
71
72
72
72
72
73
72
73
73
73
72
71
71
70
70
69
69
69
69
69
69
69
69
69
69
69
67
67
67
67
67
67
67
68
68
68
68
68
68
68
68
68
68
68
69
68
69
69
69
69
70
70
69
70
70
69
69
70
69
68
68
68
66
66
66
65
65
65
65
66
65
65
65
65
66
65
66
66
66
67
68
68
68
67
68
68
68
68
69
69
70
70
71
71
70
70
69
69
69
69
69
69
69
69
68
68
68
67
67
66
66
67
67
67
67
66
67
67
67
67
67
67
67
67
67
67
67
67
67
67
67
68
68
67
67
67
68
68
69
69
69
69
68
68
68
69
68
68
69
68
67
67
68
68
68
69
69
68
68
67
67
67
68
68
68
69
70
70
70
69
69
69
68
67
68
67
67
68
68
67
66
66
65
65
65
65
66
66
67
67
66
67
67
67
67
67
68
69
69
69
69
69
69
69
70
70
70
71
71
71
72
71
71
70
70
70
71
71
70
70
69
69
68
69
69
68
68
69
69
69
69
69
69
69
70
70
70
70
70
69
70
69
69
70
69
69
69
70
70
70
69
69
70
70
71
71
71
70
70
71
72
72
73
72
73
72
72
72
72
70
70
70
70
70
70
70
70
70
70
70
69
68
68
68
68
69
69
69
69
69
68
68
68
67
67
67
67
67
67
67
67
67
67
67
67
67
67
68
68
70
70
70
71
72
72
73
75
76
77
79
79
80
80
80
81
81
82
82
82
82
83
83
83
83
83
83
82
82
81
81
80
80
82
82
82
82
83
83
83
83
83
84
85
85
86
86
86
87
87
88
88
88
88
89
89
89
89
90
90
90
90
89
89
89
89
89
89
89
89
88
88
88
87
87
87
87
86
86
87
87
86
86
86
85
85
86
87
86
86
86
84
84
84
83
82
82
81
80
79
78
78
77
76
75
75
74
73
72
71
71
71
71
71
72
71
72
72
72
73
73
73
73
73
73
73
73
73
73
73
72
71
71
70
69
69
68
68
67
66
66
66
66
66
66
66
66
66
66
66
66
66
66
66
66
66
66
66
66
65
65
66
66
65
65
65
64
64
64
64
65
65
65
65
65
67
67
67
67
68
68
68
67
67
67
67
67
67
67
67
67
67
66
66
65
65
65
64
64
64
64
64
65
65
65
66
66
66
67
67
67
68
68
69
69
71
72
73
75
76
79
81
84
89
93
98
103
109
115
122
129
136
143
151
158
165
172
178
184
188
191
194
194
193
192
188
184
178
172
164
156
145
135
124
113
102
90
79
68
57
47
39
30
23
15
10
6
3
-1
-3
-3
-5
-5
-4
-3
-1
0
2
3
6
9
12
13
16
17
19
20
22
23
24
26
27
28
28
29
29
29
29
28
29
28
28
28
27
27
27
26
26
27
26
26
26
27
27
28
28
28
29
30
29
30
31
32
32
33
34
35
36
36
37
38
38
39
41
41
43
43
45
46
47
48
49
49
49
51
51
52
53
55
55
56
57
57
58
59
60
61
61
61
62
63
63
64
64
65
65
66
66
66
67
67
68
68
68
69
69
69
69
69
68
68
69
69
69
70
70
70
70
70
70
71
71
72
71
71
71
70
70
70
70
71
71
71
71
70
69
69
68
68
68
68
69
69
69
69
68
67
68
69
69
69
70
70
70
70
70
70
71
71
72
72
72
72
72
72
72
72
72
72
71
71
71
71
71
72
71
71
71
70
70
70
70
70
70
70
70
70
70
70
71
71
71
71
71
71
71
71
72
72
72
72
72
73
73
72
73
73
73
74
75
75
76
75
75
76
76
76
76
76
76
76
76
77
77
77
77
78
78
78
79
79
79
80
80
79
80
80
81
82
82
83
84
84
84
85
84
85
84
85
85
86
86
86
86
87
87
88
87
86
87
86
86
87
86
87
87
88
87
88
89
88
89
89
89
90
90
91
92
92
92
93
94
94
95
95
96
96
97
97
97
97
98
98
98
98
99
99
99
99
100
100
101
101
100
101
101
101
103
103
103
104
104
105
106
106
107
107
108
108
108
108
108
108
108
108
108
108
107
107
108
107
107
107
106
106
106
106
106
106
106
107
107
108
108
108
109
109
109
109
109
108
109
109
108
108
107
108
107
107
107
107
106
105
105
104
102
101
101
100
100
99
98
97
98
96
95
94
93
92
91
91
90
90
90
90
90
89
90
89
89
89
90
90
90
90
90
89
90
89
89
88
89
88
88
87
86
86
85
85
84
85
84
84
84
84
84
83
83
83
82
82
82
82
82
82
81
82
82
82
81
80
80
79
80
80
80
79
80
80
80
79
79
79
79
79
79
80
80
80
80
81
81
81
81
82
82
82
83
82
82
82
81
81
81
81
80
80
80
79
78
78
77
77
76
76
75
76
76
75
75
75
75
75
75
76
77
77
77
77
77
78
78
78
79
79
79
79
79
78
78
78
78
77
77
77
77
76
76
76
76
75
75
75
75
75
75
76
76
76
76
76
76
75
76
75
76
76
77
77
78
78
78
78
80
80
80
80
80
81
81
81
82
82
82
82
83
83
83
81
81
81
80
79
79
79
79
78
77
77
77
77
77
77
78
78
79
78
78
78
79
79
80
80
81
81
82
82
82
83
83
83
83
83
82
82
82
82
82
82
82
81
81
81
81
80
80
80
79
79
79
80
80
80
81
81
81
80
80
81
81
81
82
81
82
82
83
83
83
84
84
84
84
84
83
83
83
83
83
83
83
83
83
83
83
83
84
84
84
84
84
83
83
83
83
83
82
83
83
84
84
84
83
83
83
83
82
82
83
84
85
86
85
86
85
85
86
86
87
87
87
87
87
86
85
85
84
84
84
84
83
83
83
83
82
81
81
81
81
81
81
81
82
82
82
82
82
82
82
82
84
84
84
83
83
84
84
84
84
84
83
83
83
82
82
82
82
82
82
82
82
82
82
81
80
80
81
81
81
81
81
81
82
82
82
82
83
83
83
85
85
85
85
84
84
85
84
84
84
85
85
84
84
85
85
84
84
84
83
83
83
83
83
83
82
82
82
82
82
83
83
83
83
83
82
82
82
81
82
82
83
83
84
84
84
85
85
85
85
85
85
85
85
84
84
84
84
84
84
85
85
85
85
85
84
84
83
83
83
82
83
83
82
82
82
82
81
82
81
81
81
81
81
81
81
81
81
81
82
82
82
82
82
82
82
82
82
82
82
82
82
82
83
83
84
84
84
83
83
84
84
84
84
84
84
84
84
84
84
84
83
84
84
83
83
83
83
83
83
83
83
83
83
83
83
83
84
84
84
84
84
85
85
85
85
86
86
86
86
86
86
85
85
85
86
86
87
87
87
86
85
85
85
84
83
83
83
83
84
83
84
84
83
83
83
84
84
83
83
83
83
83
83
83
83
83
83
83
83
83
83
83
82
83
83
83
84
83
83
83
83
83
83
83
83
83
83
82
83
83
83
83
84
84
84
83
83
83
84
84
84
84
84
84
84
84
85
85
83
84
84
83
83
84
83
83
83
84
84
84
84
84
84
85
85
85
86
87
87
87
87
87
86
86
85
85
85
85
85
85
85
84
83
83
83
83
82
82
82
82
83
82
82
83
83
83
84
84
84
86
86
88
87
88
88
89
90
91
92
93
94
96
96
96
97
97
97
98
97
97
98
98
97
97
97
97
97
97
97
96
96
96
96
96
96
96
97
97
98
99
99
100
100
100
101
101
102
102
102
103
103
103
103
104
104
104
103
103
102
103
102
103
103
103
102
103
102
101
101
100
100
101
100
100
99
99
99
99
98
98
98
96
96
95
95
95
95
95
96
95
95
94
93
93
92
92
92
91
91
90
89
89
89
88
88
88
88
88
89
89
89
90
90
90
90
91
91
91
91
91
91
91
91
91
90
89
89
88
87
87
86
86
85
85
86
86
85
84
84
84
83
83
83
83
83
83
82
82
82
81
81
81
81
81
81
81
81
81
81
81
81
81
81
82
82
82
83
84
85
85
86
86
86
85
86
86
86
86
86
86
86
86
86
86
85
84
84
84
84
84
84
84
84
85
85
85
85
85
85
84
85
85
85
86
86
87
87
88
88
88
88
90
91
94
96
98
101
104
109
113
118
124
129
136
143
150
157
164
171
177
184
189
194
197
200
202
203
202
201
198
195
190
183
176
168
158
149
138
127
116
105
93
83
73
64
54
47
39
34
29
25
22
20
18
16
16
16
17
18
20
22
24
26
27
29
31
33
35
37
38
40
41
41
42
42
43
43
45
45
45
45
45
46
46
46
46
46
46
46
46
47
46
46
47
47
46
47
46
46
47
47
48
48
49
49
49
49
50
50
51
51
51
52
52
52
52
52
53
53
54
54
54
55
56
57
58
59
60
61
63
63
65
66
68
70
71
74
76
77
78
79
80
82
82
83
84
85
85
86
86
86
87
87
87
87
86
87
87
87
87
87
87
87
87
87
86
85
85
85
85
85
85
85
85
85
85
85
84
84
84
84
84
85
85
85
86
86
86
87
87
87
88
88
88
88
88
89
89
89
88
88
89
89
89
89
89
89
89
89
89
89
89
88
88
88
87
87
87
87
87
87
87
86
86
86
86
87
87
87
88
88
88
87
88
88
89
90
91
91
91
91
91
91
91
91
92
92
91
91
91
91
91
90
90
90
89
89
88
88
87
87
87
87
86
86
86
86
86
87
87
86
87
87
87
87
87
88
88
89
90
90
91
92
92
93
93
94
94
95
96
96
98
98
99
98
99
98
98
99
99
99
100
99
99
99
98
98
98
98
98
98
98
98
98
98
98
98
98
99
100
100
101
101
102
102
101
102
102
103
103
104
104
104
104
104
105
105
105
106
107
107
108
108
108
108
109
110
110
112
112
113
114
113
114
114
113
114
114
113
114
114
115
114
115
114
113
113
113
113
113
113
113
113
114
114
114
114
113
114
114
114
115
115
114
115
115
115
115
115
115
115
114
115
115
115
115
115
116
116
117
117
117
117
117
116
116
116
116
116
116
115
115
115
115
114
113
113
111
110
110
109
108
107
106
107
106
105
104
104
103
103
102
103
102
101
101
100
100
100
100
100
100
99
100
100
100
99
100
99
99
99
98
98
97
97
97
97
97
97
97
97
97
97
96
95
94
95
95
94
94
93
93
92
92
91
90
90
89
89
88
88
86
86
86
86
85
85
85
85
85
85
85
84
85
84
84
84
84
85
86
87
88
88
88
88
88
88
88
88
88
89
90
89
90
90
90
90
90
90
90
89
89
88
88
87
87
87
86
86
86
86
86
85
85
85
86
86
87
87
87
87
87
87
87
88
88
87
88
88
88
88
88
88
88
87
87
87
87
86
85
86
86
85
85
86
85
85
85
86
86
87
86
87
87
87
87
87
87
87
87
86
87
87
87
87
87
87
86
86
86
85
85
85
85
84
84
84
84
83
83
84
83
82
82
83
83
84
84
84
84
84
86
85
86
86
87
87
88
88
89
90
91
91
90
91
91
91
91
92
92
92
92
92
91
91
91
92
92
91
91
92
92
93
92
92
92
92
92
92
91
91
91
91
91
91
91
90
90
90
91
90
90
89
89
89
89
89
89
89
89
89
90
89
89
89
88
89
88
88
88
88
88
88
89
89
89
89
90
90
90
90
90
91
91
91
91
92
93
93
93
93
93
93
93
93
94
94
94
94
95
94
95
94
94
95
94
94
94
94
94
94
94
94
94
93
93
92
92
91
91
91
90
90
89
89
89
88
89
89
88
88
88
87
87
87
87
88
88
88
88
89
90
90
91
92
92
94
94
93
93
92
92
92
93
93
93
93
93
93
93
93
93
91
91
91
90
90
91
90
90
91
91
91
91
91
91
91
91
91
91
91
91
91
91
91
91
90
90
90
90
90
90
90
90
90
90
89
90
90
90
90
90
90
90
90
91
90
91
91
91
91
91
91
91
91
91
91
91
91
91
91
91
90
90
90
89
89
89
89
89
89
89
89
89
89
89
89
89
89
90
90
90
90
90
89
89
89
88
88
88
88
88
88
88
88
88
87
88
88
88
88
89
89
90
90
90
91
91
91
91
91
91
91
92
92
92
91
91
91
90
90
90
89
89
89
88
88
86
86
86
85
86
86
85
85
84
84
84
84
84
85
86
85
86
87
87
87
87
88
88
88
88
88
89
89
89
89
88
88
88
89
89
89
89
89
90
90
91
91
92
92
93
93
93
93
92
92
92
92
93
92
92
92
92
91
91
90
89
89
88
88
87
87
87
86
86
86
86
86
86
86
87
87
87
88
88
88
87
88
89
89
89
89
90
91
91
92
92
92
92
92
92
92
91
92
92
91
90
90
90
90
90
89
88
88
88
88
87
88
87
88
88
87
88
88
88
89
88
88
89
89
89
89
89
90
90
90
91
91
91
91
91
91
93
93
93
93
93
93
93
93
93
94
93
93
93
92
92
91
91
91
90
90
90
90
90
90
89
89
90
90
90
91
91
91
92
93
93
94
94
95
96
95
96
96
97
97
97
98
98
98
98
99
99
100
100
101
101
101
102
103
103
104
105
105
106
107
107
107
107
108
108
108
108
109
108
108
108
108
107
106
106
106
106
106
106
107
107
106
106
106
105
105
105
104
102
102
102
102
102
101
100
100
99
99
97
97
96
95
95
94
94
94
94
95
95
94
95
95
95
96
96
97
98
98
98
99
98
98
99
98
99
99
100
100
100
99
99
99
98
97
97
96
95
94
94
94
93
93
92
92
91
91
91
89
89
89
89
88
89
89
89
89
88
88
88
87
87
87
87
87
87
87
87
86
85
85
85
85
85
85
85
85
85
87
87
87
85
86
87
87
87
87
87
86
86
87
86
85
85
84
84
83
83
83
82
82
82
82
82
81
82
82
83
83
83
83
83
84
84
86
86
87
87
89
88
89
89
90
91
92
92
93
94
95
96
97
100
101
104
107
110
113
117
120
124
129
134
138
144
149
155
160
166
171
176
181
184
187
189
191
191
190
187
184
180
176
170
164
156
147
138
129
118
109
99
89
80
71
62
54
47
41
36
31
27
24
23
21
20
20
20
21
22
23
26
28
30
32
34
35
38
39
41
43
44
46
47
48
49
50
50
51
51
51
51
51
51
50
50
50
50
49
49
48
48
47
48
47
47
47
47
47
47
47
46
47
47
46
46
47
47
48
48
49
49
50
50
51
53
54
56
57
57
59
60
62
64
65
66
68
69
71
72
73
74
76
77
77
78
80
80
81
81
82
81
82
82
82
82
83
83
84
84
84
84
84
84
84
85
85
84
84
84
84
85
86
86
86
86
86
87
87
87
87
87
87
89
89
89
89
89
90
90
90
90
89
89
88
87
87
87
87
87
87
87
87
86
86
85
85
86
86
86
87
87
87
88
88
88
88
88
88
88
88
89
88
88
89
88
88
87
87
87
87
87
87
87
87
86
87
87
87
88
88
87
88
88
89
89
89
90
90
91
91
91
93
93
93
93
93
93
92
92
92
92
92
92
93
93
92
92
92
91
91
90
91
91
91
92
92
93
93
92
92
91
91
91
91
92
92
92
92
92
91
92
91
92
91
92
92
93
93
93
94
95
95
96
97
97
98
98
99
100
100
100
100
100
100
100
101
100
101
101
100
101
101
101
101
101
101
102
101
102
102
102
102
104
104
105
106
106
107
108
108
108
108
107
108
108
108
108
107
108
107
108
108
108
107
107
107
107
106
107
107
107
108
109
109
110
111
112
113
114
114
115
116
117
117
118
119
120
120
121
121
122
122
122
122
123
123
122
122
122
121
122
122
121
121
122
121
121
121
121
120
120
121
121
122
122
122
121
121
121
121
120
120
120
120
119
119
118
118
118
117
116
115
114
113
112
112
111
111
111
111
111
111
110
111
110
110
110
110
109
110
110
109
109
108
108
108
108
107
107
105
105
104
103
103
102
101
100
100
99
98
99
99
99
99
99
98
98
98
97
97
97
97
96
97
96
95
96
95
95
94
95
94
94
94
94
93
93
94
93
93
93
93
93
92
93
92
93
92
92
91
92
91
90
90
89
89
90
89
89
90
90
90
90
90
90
90
91
91
91
91
91
91
91
91
91
91
92
92
93
93
92
92
91
90
90
90
89
89
89
88
87
87
85
85
84
84
83
83
84
83
84
84
84
84
85
85
86
87
87
88
88
89
89
89
89
89
89
89
90
90
90
89
89
89
88
88
88
89
89
89
89
89
89
89
89
89
89
89
88
88
87
86
86
85
85
85
86
85
85
85
85
85
85
85
85
86
86
86
86
87
87
87
88
88
88
88
88
89
88
88
89
89
89
89
88
89
88
89
88
88
87
87
88
87
88
88
88
88
88
88
89
89
89
89
90
90
90
90
91
92
93
93
93
93
93
93
93
93
94
93
93
94
94
94
93
93
93
92
92
92
91
91
91
91
91
91
92
91
91
90
90
90
90
91
91
91
91
91
91
92
92
92
91
92
92
92
93
93
94
94
93
93
92
92
93
93
93
93
93
93
93
92
92
92
92
91
92
92
91
91
91
91
91
91
90
90
90
90
90
90
90
90
89
90
90
90
90
90
89
90
90
90
90
90
91
90
91
91
91
91
90
90
90
90
90
91
91
91
92
92
92
93
93
93
92
92
92
92
93
93
94
95
95
94
94
94
94
94
94
94
94
94
94
94
94
93
93
93
93
93
93
93
93
92
92
92
92
91
91
91
90
90
90
89
90
90
91
91
91
91
91
90
90
91
92
93
93
94
94
94
94
94
94
94
94
94
94
93
93
93
92
91
91
90
91
90
90
91
91
91
91
91
91
91
91
91
91
91
91
91
92
92
92
91
91
91
90
90
90
90
90
90
90
90
90
90
91
91
91
92
92
92
92
92
93
93
94
95
95
95
95
94
94
94
95
95
94
94
94
93
93
92
91
90
91
90
90
90
90
89
89
89
89
89
88
88
89
89
89
90
90
91
91
92
92
92
92
93
92
93
93
93
93
93
93
93
93
93
92
92
92
93
94
94
94
94
93
93
94
94
94
94
94
94
94
94
94
93
93
93
92
92
92
92
91
91
90
90
90
90
91
90
91
91
90
90
90
89
89
89
89
90
91
91
91
91
92
92
92
92
93
93
94
95
95
95
95
97
98
98
98
98
97
97
96
96
96
95
95
95
94
94
94
93
92
92
91
91
90
89
89
89
89
90
89
90
91
91
91
90
91
90
90
91
91
91
91
91
91
91
91
90
91
90
90
90
90
90
90
90
92
92
92
92
92
92
92
92
93
93
94
94
95
94
94
94
94
93
93
93
93
93
92
92
92
91
90
90
90
90
90
91
91
91
90
90
90
91
91
91
91
90
91
91
91
91
91
91
91
91
92
92
92
92
92
93
93
93
93
93
92
93
93
93
94
95
95
95
94
95
95
95
94
94
94
94
94
94
95
94
94
95
94
94
94
95
94
94
94
95
94
95
95
95
95
95
96
97
97
97
98
98
99
99
100
100
101
101
101
102
102
102
104
104
104
104
105
105
106
106
106
107
107
107
108
108
109
110
110
109
109
109
109
109
109
109
109
109
110
110
109
109
108
109
109
108
109
109
108
108
109
109
109
109
110
110
110
110
110
110
110
109
109
109
108
107
106
106
105
105
105
104
104
102
102
101
101
99
99
99
98
98
98
98
98
97
97
97
98
98
98
99
99
100
99
99
98
98
99
99
99
99
98
98
97
97
96
95
95
93
93
92
90
90
89
88
88
87
86
86
86
86
85
85
85
85
84
85
85
85
86
86
87
87
88
88
87
87
87
88
88
88
88
88
88
87
87
87
86
86
85
85
85
85
85
85
85
85
85
84
84
84
83
84
84
84
84
84
84
83
83
83
83
82
82
82
82
82
82
82
82
82
82
82
83
83
83
84
83
84
84
85
85
85
86
87
88
89
91
93
95
97
99
103
107
111
115
121
127
132
138
144
151
158
165
172
179
185
191
198
201
204
206
207
207
205
203
199
195
189
182
174
164
154
143
132
122
111
99
88
77
68
59
49
42
34
27
21
17
13
11
10
8
8
8
8
10
11
13
14
15
17
18
21
23
24
26
29
30
32
34
35
36
37
39
39
41
41
42
43
43
43
44
44
44
43
43
43
42
43
42
41
41
41
40
40
39
39
38
38
39
39
39
40
41
42
43
44
45
45
47
48
49
50
51
52
53
55
56
57
59
60
61
62
63
63
64
65
66
66
67
67
68
69
71
71
72
72
73
74
75
75
75
76
77
78
78
79
78
79
79
79
80
81
81
82
82
81
81
80
80
80
79
79
79
80
80
80
80
80
80
80
80
79
79
79
80
81
80
80
80
80
80
80
80
81
81
81
81
80
80
79
80
79
79
79
79
79
79
80
80
80
80
80
80
80
80
81
81
81
81
81
81
82
82
82
83
83
83
83
84
84
84
83
83
82
82
82
82
82
83
83
82
82
81
81
80
80
79
79
79
79
79
79
79
79
79
80
80
80
81
80
81
81
82
83
83
83
84
84
84
84
84
84
84
84
84
84
83
83
82
82
82
83
83
83
84
84
85
84
85
85
86
86
87
86
87
88
88
88
89
89
89
89
89
89
88
89
88
89
89
90
89
90
91
90
91
91
92
92
93
93
94
95
96
97
96
97
97
97
97
97
98
98
99
98
99
99
100
100
101
101
101
101
102
102
103
104
104
105
106
105
106
106
107
108
107
108
108
108
108
108
107
108
109
109
110
110
110
110
110
110
110
111
111
111
111
111
112
112
111
112
112
111
112
112
111
112
112
113
113
112
112
112
112
112
112
113
113
113
113
114
113
114
113
113
113
113
112
113
112
113
112
113
113
113
113
112
113
113
112
113
113
113
112
111
111
110
110
109
109
109
108
107
107
107
106
106
105
105
104
104
103
103
103
102
102
101
102
101
100
99
98
97
97
96
95
95
94
94
94
93
93
92
91
90
89
89
89
89
88
88
87
87
86
86
86
86
85
86
86
86
87
86
87
86
86
86
86
87
88
87
88
88
88
88
89
88
89
88
88
87
87
87
87
87
88
88
88
88
88
88
88
89
89
89
89
89
89
89
89
89
88
88
87
87
86
87
86
86
85
85
84
84
84
84
84
84
84
84
84
85
85
86
86
86
86
87
87
87
88
87
87
86
85
85
85
85
84
83
83
82
82
80
80
79
78
77
77
77
77
77
77
77
77
77
79
79
79
79
79
80
80
81
81
82
82
82
83
83
82
83
83
83
83
83
82
82
82
82
83
82
82
81
81
81
80
81
81
82
82
82
82
81
82
81
82
82
82
82
83
83
83
85
85
85
86
85
84
85
85
85
85
85
84
84
84
85
85
85
85
85
84
83
83
83
82
82
83
83
84
84
84
84
84
83
83
83
83
83
82
82
82
82
82
82
82
82
81
81
81
81
81
81
81
81
81
81
81
81
81
82
82
82
82
82
83
82
82
83
83
83
83
84
84
84
84
84
84
84
84
84
84
84
83
83
82
82
82
81
81
80
80
81
80
80
80
81
81
81
81
82
83
83
83
83
84
84
84
84
84
84
83
83
83
82
82
80
80
79
79
77
78
77
78
79
78
79
79
78
78
79
79
80
80
82
82
82
81
82
81
81
81
81
81
81
81
80
80
78
78
78
78
79
80
80
80
79
78
78
78
79
79
79
80
81
80
80
80
79
79
79
79
79
79
79
79
79
78
78
78
78
79
78
79
79
79
79
80
80
80
79
80
80
80
81
81
82
82
82
82
83
83
82
82
82
82
81
82
81
80
80
80
79
80
79
79
78
77
77
77
76
76
76
76
76
76
76
76
76
76
76
76
76
76
75
76
75
76
76
76
77
76
77
76
77
77
77
77
78
78
78
78
78
78
79
79
79
79
79
79
79
79
79
79
79
78
78
79
79
77
77
77
76
76
75
74
74
74
74
74
73
74
73
73
74
74
75
76
76
76
77
76
76
76
76
76
77
76
77
76
76
76
76
75
75
75
74
75
76
76
76
77
77
77
78
78
78
78
78
78
78
77
77
77
77
76
76
76
75
75
75
74
74
73
73
73
74
74
75
75
75
76
76
77
76
77
77
77
77
77
77
76
76
76
75
76
76
76
77
77
77
75
75
75
75
75
75
77
77
77
77
77
77
77
77
77
78
79
79
78
78
78
78
78
78
78
78
77
77
76
76
75
75
74
74
74
74
72
72
72
72
72
72
71
72
72
72
72
72
73
72
72
72
72
72
73
73
73
73
73
73
73
74
74
74
74
74
74
74
75
75
76
76
76
76
76
76
76
76
77
77
77
77
77
77
77
77
77
77
77
77
77
77
77
77
77
77
77
78
78
78
78
79
79
80
81
81
82
83
84
84
85
85
86
87
88
88
89
90
91
92
92
93
93
93
93
93
94
94
95
95
95
95
95
95
94
94
94
93
93
92
92
91
90
89
89
89
89
88
88
87
87
87
87
87
87
87
88
88
88
88
89
88
89
89
89
89
89
89
90
90
90
90
88
88
88
87
87
87
86
86
85
84
84
84
82
82
82
82
82
82
82
81
81
80
79
80
80
80
81
81
81
81
81
81
81
81
81
82
82
82
80
80
80
79
79
79
78
78
77
77
76
76
76
75
75
73
72
72
72
72
72
71
71
70
69
69
69
68
68
68
67
67
67
67
67
67
67
67
67
67
68
67
68
69
69
69
70
69
69
70
71
71
70
71
71
71
70
70
70
70
70
70
70
70
69
70
69
69
70
69
69
69
69
69
70
70
71
70
71
71
71
72
72
72
72
72
73
74
75
77
78
80
81
84
87
90
93
97
102
107
112
119
125
132
139
146
152
159
165
171
176
182
185
188
190
191
190
188
185
181
177
171
164
155
146
136
125
115
103
92
82
72
62
52
43
34
27
20
14
11
6
3
0
-2
-3
-4
-4
-3
-2
0
2
4
6
9
11
13
14
17
19
21
23
24
26
28
28
30
31
31
32
33
33
33
33
32
31
31
30
30
30
30
30
30
31
31
31
30
29
29
29
30
30
30
31
30
31
31
31
32
33
32
34
34
34
35
35
36
37
38
39
40
41
42
43
44
45
46
47
48
49
51
52
53
55
57
58
59
60
61
62
63
64
65
66
68
69
69
71
71
72
71
71
72
72
72
72
72
72
72
72
72
71
71
70
70
70
69
69
69
69
69
69
69
69
69
70
70
70
71
71
71
72
72
73
73
73
73
73
73
73
73
72
72
72
71
71
71
70
70
70
70
69
69
69
69
69
68
68
68
68
68
68
68
69
69
70
70
70
70
70
70
70
69
69
69
69
70
70
70
71
73
74
74
74
74
74
74
73
73
74
74
75
75
76
75
74
74
74
73
72
72
71
71
70
70
70
70
70
71
70
70
70
71
71
72
72
73
73
73
74
74
74
76
76
76
76
77
77
77
77
77
77
77
78
78
77
78
77
77
77
77
77
77
78
78
78
78
77
78
79
79
80
82
82
82
83
83
84
83
84
84
85
84
85
86
85
85
86
85
84
85
84
85
85
86
86
86
87
87
87
87
88
88
89
89
89
90
90
90
91
91
91
92
92
92
92
92
92
92
93
92
93
94
95
95
96
96
97
98
98
98
99
100
100
101
101
102
102
103
103
103
103
103
102
103
102
102
102
102
103
103
102
102
102
101
101
101
101
102
102
101
102
102
101
101
102
102
101
101
101
102
102
102
103
102
102
102
101
101
100
101
101
102
101
101
101
101
100
100
100
99
99
99
98
98
98
97
97
96
96
95
94
94
93
92
91
90
89
89
88
88
87
86
85
85
84
84
84
84
83
83
83
83
83
83
83
83
83
84
82
82
82
81
81
81
80
81
80
81
80
79
80
79
78
78
78
77
77
77
77
77
76
77
76
77
77
76
77
77
77
78
78
78
78
78
79
79
79
78
78
78
79
79
78
78
78
78
78
77
77
76
76
77
77
76
76
76
77
77
77
77
77
78
78
79
79
79
79
79
79
78
78
78
77
77
77
76
75
75
74
74
74
72
72
73
73
72
72
72
72
73
73
72
72
72
72
72
72
72
72
73
72
72
72
73
73
72
72
72
72
72
72
73
73
73
74
74
74
74
74
74
74
74
74
74
74
73
74
74
73
73
73
73
74
73
73
73
73
73
73
73
73
73
73
73
73
73
73
73
74
75
76
77
77
78
78
77
77
77
77
77
77
78
78
78
79
79
79
79
78
78
77
76
76
76
76
76
75
76
76
76
76
75
75
75
75
75
75
76
76
76
76
75
76
76
75
76
75
76
76
77
77
77
77
76
76
76
76
75
76
75
75
75
75
75
75
76
76
76
76
76
76
77
77
77
78
78
79
80
79
79
79
79
78
79
79
79
78
79
78
77
78
78
77
77
76
76
76
75
76
76
76
76
76
77
77
77
77
78
78
78
79
79
79
78
79
78
79
78
79
78
78
78
78
78
78
77
77
76
76
75
75
75
75
75
75
75
75
74
75
75
74
74
73
73
72
72
72
73
73
73
73
73
73
72
72
72
72
71
72
72
73
73
73
74
74
75
75
77
77
77
79
79
79
79
80
79
80
80
80
80
80
81
80
80
80
79
79
78
77
76
76
76
76
76
75
75
75
75
76
75
75
74
75
75
74
74
74
74
74
73
73
73
72
72
72
72
72
71
71
71
72
71
71
71
71
71
71
72
71
71
71
71
71
71
71
71
72
72
73
73
73
74
74
74
74
73
73
73
74
74
75
75
75
75
76
75
75
75
75
75
74
75
74
74
75
74
74
74
74
73
73
73
73
73
73
73
72
73
72
72
71
71
71
72
72
71
72
72
72
72
73
74
74
75
75
75
74
74
74
76
76
76
75
76
75
75
75
74
73
73
73
72
72
71
71
71
71
71
71
71
71
71
71
72
72
72
72
71
72
72
72
72
73
73
72
72
73
73
73
73
74
74
75
75
76
77
76
76
77
78
77
78
78
78
77
77
76
76
75
75
75
74
74
73
72
72
72
71
71
71
71
71
72
71
71
71
72
72
72
73
73
73
73
73
73
73
73
73
73
73
73
74
74
74
74
74
74
74
75
75
74
74
74
73
74
73
72
72
72
72
71
71
71
71
71
71
71
71
71
71
71
70
71
71
72
72
72
73
73
73
74
73
73
74
73
74
75
75
74
74
74
74
73
73
74
75
74
74
75
75
74
74
74
73
74
73
74
74
74
74
73
74
74
74
74
73
73
73
73
73
73
74
74
74
73
74
74
74
74
74
75
74
74
75
75
75
75
75
76
75
76
77
77
78
78
79
79
79
80
80
80
81
81
81
82
82
82
82
81
82
82
82
82
82
82
82
82
83
82
82
83
83
84
84
84
85
85
86
86
87
87
87
88
88
89
89
90
90
89
90
90
89
89
89
90
89
89
88
89
89
88
89
89
90
90
90
89
89
88
88
88
88
87
87
86
86
86
85
84
84
83
83
83
82
83
82
82
82
81
81
80
81
80
80
80
80
80
81
80
80
79
79
78
78
78
77
77
77
77
77
77
77
77
76
77
76
75
75
74
74
74
73
73
72
72
70
70
69
69
68
68
68
68
68
68
68
67
67
67
67
68
68
67
67
68
68
69
69
69
70
70
70
71
71
71
71
72
72
73
73
73
74
74
73
73
73
73
73
73
73
73
72
73
73
72
72
72
72
72
72
73
73
74
74
73
73
73
73
73
73
73
73
73
73
73
73
72
72
72
72
72
71
72
73
75
76
78
81
84
87
92
95
101
105
112
118
125
130
137
143
149
154
159
164
168
171
174
175
175
173
171
169
164
158
153
145
136
128
119
109
99
90
80
70
61
52
44
37
30
25
20
17
14
12
11
10
9
10
11
12
13
15
16
18
21
22
24
26
28
29
30
32
33
34
35
35
36
36
36
37
37
38
39
40
40
40
40
40
40
39
39
39
39
39
39
39
39
39
39
38
39
38
38
38
38
38
39
39
40
40
41
41
42
42
42
43
44
44
45
46
47
47
48
49
50
51
52
54
54
56
57
58
59
61
63
64
65
66
68
69
69
70
72
71
72
71
72
73
74
75
75
76
76
77
77
77
77
77
77
79
79
80
80
79
79
78
78
78
78
78
77
77
77
77
76
76
76
75
75
74
74
74
74
75
75
76
76
76
77
76
76
77
77
77
77
78
78
78
79
79
79
79
80
80
80
80
80
79
79
80
80
80
80
81
81
81
80
80
80
80
80
80
79
79
79
79
80
79
79
79
79
80
80
80
81
81
81
82
82
83
83
82
82
82
83
83
84
84
84
84
84
84
83
85
85
87
87
88
88
89
88
89
89
89
90
90
91
90
90
90
91
90
90
89
88
87
86
86
86
85
85
84
84
84
84
84
84
84
84
85
85
85
