# Simple Text Format
# Sampling Rate (Hz):= 1200.00
# Resolution:= 12
# Labels:= ECG	 V6
# Age:=	80
# Gender:=	Feminino
-36
-36
-35
-36
-36
-36
-36
-36
-35
-35
-35
-35
-35
-34
-34
-34
-34
-34
-34
-34
-33
-33
-32
-32
-32
-32
-31
-31
-31
-32
-32
-32
-32
-32
-32
-32
-31
-31
-32
-32
-32
-32
-31
-31
-31
-30
-28
-27
-24
-22
-18
-14
-10
-4
2
9
16
24
34
44
54
65
76
89
101
113
125
135
144
151
157
161
162
161
158
152
143
134
122
108
93
76
58
39
20
1
-19
-38
-57
-74
-89
-103
-115
-125
-134
-141
-146
-150
-151
-151
-151
-149
-147
-144
-141
-138
-133
-129
-125
-121
-117
-113
-109
-105
-103
-100
-97
-94
-92
-89
-87
-85
-83
-82
-80
-79
-78
-76
-75
-74
-73
-72
-70
-69
-68
-67
-67
-67
-66
-65
-65
-64
-64
-64
-64
-65
-64
-65
-65
-65
-66
-65
-66
-66
-66
-66
-66
-65
-64
-64
-63
-63
-62
-60
-60
-59
-57
-55
-54
-52
-51
-49
-48
-47
-46
-44
-43
-41
-40
-38
-38
-36
-36
-34
-34
-32
-32
-31
-30
-29
-29
-28
-28
-28
-27
-26
-26
-26
-25
-25
-24
-24
-24
-24
-24
-23
-23
-23
-23
-23
-22
-23
-23
-23
-23
-23
-22
-22
-22
-22
-22
-22
-22
-22
-21
-21
-21
-21
-20
-19
-19
-20
-19
-19
-19
-18
-18
-18
-18
-17
-18
-18
-18
-18
-18
-18
-18
-18
-18
-18
-18
-18
-18
-18
-18
-19
-19
-19
-19
-19
-19
-20
-19
-19
-20
-20
-20
-20
-20
-20
-20
-20
-20
-20
-19
-19
-19
-19
-19
-18
-18
-18
-19
-19
-18
-18
-18
-18
-18
-18
-18
-17
-17
-17
-17
-17
-17
-16
-16
-16
-16
-16
-15
-15
-15
-15
-15
-14
-14
-13
-13
-13
-13
-13
-13
-13
-13
-13
-13
-12
-11
-10
-10
-10
-9
-9
-9
-7
-7
-7
-7
-6
-6
-4
-4
-4
-3
-3
-2
-1
-1
-1
0
0
1
1
1
2
2
2
3
4
4
4
4
6
6
6
7
8
8
9
10
10
11
11
12
13
14
15
16
16
17
19
19
20
20
21
22
23
23
24
25
26
27
27
29
29
30
30
31
32
33
33
34
35
36
36
38
38
39
39
39
40
40
40
41
41
42
42
43
43
44
44
45
45
45
46
46
47
47
47
49
49
50
50
50
51
52
51
51
52
52
52
52
52
52
53
52
51
51
51
51
51
50
49
49
49
48
47
47
46
45
45
44
44
44
43
42
42
41
41
40
39
39
39
38
37
37
36
36
35
34
33
33
32
31
30
30
29
28
27
26
25
24
23
22
22
21
20
18
18
17
15
14
14
13
13
11
11
11
9
9
8
8
7
7
7
6
5
5
4
4
4
2
2
2
1
1
0
-1
-1
-3
-3
-4
-4
-5
-5
-6
-8
-8
-8
-9
-9
-11
-11
-11
-12
-12
-13
-13
-13
-14
-14
-14
-14
-14
-15
-15
-15
-16
-16
-15
-16
-16
-16
-17
-17
-18
-18
-19
-19
-19
-19
-20
-20
-20
-20
-21
-21
-22
-23
-22
-23
-23
-23
-23
-23
-22
-22
-22
-22
-22
-22
-22
-22
-23
-23
-23
-23
-23
-23
-23
-23
-23
-23
-23
-23
-23
-23
-23
-23
-24
-24
-24
-24
-24
-24
-25
-25
-25
-25
-25
-26
-26
-26
-26
-26
-25
-25
-25
-25
-24
-24
-25
-25
-23
-23
-23
-23
-23
-23
-21
-21
-21
-21
-21
-21
-20
-20
-20
-20
-20
-19
-19
-19
-18
-18
-18
-18
-17
-17
-17
-16
-16
-16
-14
-14
-13
-14
-14
-13
-13
-13
-12
-12
-12
-11
-11
-11
-11
-10
-10
-10
-10
-10
-10
-10
-10
-9
-9
-9
-8
-8
-8
-8
-8
-7
-7
-7
-6
-6
-6
-6
-5
-5
-5
-4
-4
-4
-4
-4
-4
-3
-3
-4
-4
-3
-3
-3
-3
-4
-3
-3
-3
-3
-3
-3
-3
-3
-3
-3
-4
-4
-4
-4
-4
-4
-5
-5
-5
-5
-5
-6
-6
-7
-7
-7
-7
-7
-6
-6
-7
-7
-7
-7
-7
-7
-7
-7
-7
-7
-7
-7
-8
-7
-7
-8
-8
-7
-7
-7
-8
-7
-7
-8
-8
-8
-8
-8
-8
-8
-8
-8
-8
-9
-9
-9
-9
-9
-9
-10
-10
-10
-10
-10
-10
-10
-11
-11
-11
-11
-11
-11
-10
-10
-10
-10
-10
-10
-10
-10
-10
-10
-10
-10
-10
-9
-9
-9
-9
-9
-9
-9
-10
-10
-10
-11
-10
-11
-11
-11
-11
-12
-12
-12
-12
-12
-12
-11
-12
-12
-12
-11
-11
-11
-12
-11
-11
-11
-11
-11
-11
-11
-11
-11
-11
-11
-11
-11
-12
-12
-11
-11
-11
-11
-11
-11
-11
-11
-12
-12
-12
-12
-12
-12
-12
-12
-12
-12
-12
-12
-12
-12
-12
-12
-13
-13
-13
-13
-13
-12
-13
-13
-13
-13
-13
-13
-14
-14
-14
-14
-14
-13
-14
-14
-14
-14
-14
-14
-14
-14
-14
-14
-13
-13
-13
-13
-13
-13
-13
-13
-13
-13
-13
-14
-14
-13
-13
-13
-13
-13
-13
-13
-13
-13
-14
-14
-14
-14
-14
-14
-14
-13
-13
-14
-13
-13
-13
-13
-13
-13
-13
-13
-13
-13
-12
-12
-12
-12
-12
-12
-13
-13
-13
-13
-13
-13
-13
-14
-14
-14
-14
-13
-13
-14
-14
-15
-15
-14
-14
-15
-15
-15
-15
-14
-14
-14
-14
-14
-14
-14
-14
-13
-13
-13
-13
-11
-11
-11
-10
-11
-11
-10
-10
-10
-10
-11
-11
-10
-10
-10
-11
-11
-12
-12
-12
-12
-12
-12
-12
-12
-12
-12
-12
-12
-12
-11
-11
-11
-11
-11
-10
-10
-10
-10
-10
-10
-10
-10
-10
-10
-10
-10
-10
-9
-10
-10
-10
-10
-10
-10
-10
-10
-9
-9
-9
-9
-9
-9
-9
-9
-9
-9
-9
-9
-8
-9
-9
-8
-8
-8
-8
-8
-8
-9
-9
-9
-10
-10
-10
-10
-10
-11
-11
-10
-10
-11
-11
-11
-10
-10
-10
-10
-9
-9
-9
-9
-8
-8
-8
-8
-7
-8
-7
-7
-7
-7
-7
-7
-7
-7
-8
-7
-7
-7
-7
-8
-8
-8
-8
-8
-8
-9
-9
-9
-9
-9
-9
-9
-9
-10
-10
-10
-11
-11
-11
-10
-10
-10
-10
-11
-11
-11
-11
-11
-10
-10
-10
-10
-10
-10
-10
-10
-10
-10
-10
-10
-9
-9
-9
-9
-9
-9
-9
-9
-10
-10
-9
-9
-9
-8
-8
-8
-8
-8
-8
-8
-8
-8
-8
-8
-8
-9
-9
-9
-8
-9
-9
-9
-9
-10
-10
-10
-10
-10
-10
-10
-10
-10
-10
-9
-9
-10
-10
-10
-11
-10
-10
-10
-10
-10
-10
-10
-10
-10
-9
-9
-9
-8
-9
-8
-8
-8
-8
-7
-7
-7
-7
-6
-6
-6
-7
-7
-7
-6
-6
-7
-7
-7
-7
-7
-8
-8
-8
-7
-7
-7
-7
-7
-7
-7
-7
-8
-8
-8
-8
-8
-8
-8
-8
-8
-8
-8
-8
-8
-8
-8
-9
-9
-9
-9
-9
-9
-8
-8
-8
-8
-8
-8
-7
-7
-6
-6
-7
-6
-6
-6
-6
-5
-5
-5
-5
-5
-5
-5
-4
-4
-4
-4
-3
-3
-2
-2
-2
-1
-1
-1
0
1
1
1
2
2
2
3
3
3
3
4
4
4
5
5
6
6
7
6
7
8
8
9
9
9
10
10
10
10
10
9
10
10
10
10
9
8
8
8
8
7
6
6
5
4
4
3
3
3
3
2
1
0
0
0
-1
-1
-2
-2
-2
-3
-4
-4
-4
-5
-5
-5
-5
-6
-6
-7
-7
-8
-8
-8
-9
-9
-10
-11
-11
-11
-11
-12
-12
-12
-12
-13
-13
-13
-13
-13
-13
-13
-14
-13
-13
-14
-14
-14
-15
-15
-16
-15
-16
-16
-16
-16
-16
-17
-17
-18
-18
-18
-18
-18
-18
-19
-19
-19
-19
-19
-19
-19
-19
-19
-19
-18
-19
-19
-19
-19
-19
-18
-18
-18
-18
-18
-18
-17
-17
-16
-16
-17
-17
-16
-16
-16
-16
-16
-16
-16
-16
-16
-16
-16
-16
-15
-15
-15
-15
-15
-15
-14
-15
-15
-14
-14
-14
-14
-14
-13
-12
-12
-12
-12
-12
-11
-10
-10
-8
-6
-4
-1
2
6
9
14
20
27
34
40
49
59
68
79
90
102
114
126
137
147
157
164
169
174
175
175
173
168
160
151
140
127
112
95
79
59
41
21
3
-17
-34
-51
-67
-81
-93
-104
-112
-120
-125
-128
-131
-132
-131
-130
-127
-125
-122
-118
-114
-110
-106
-102
-97
-94
-89
-86
-83
-80
-77
-74
-71
-69
-68
-65
-64
-62
-60
-59
-57
-56
-54
-53
-52
-50
-49
-48
-47
-46
-46
-46
-45
-45
-45
-45
-45
-45
-45
-45
-46
-45
-46
-47
-46
-47
-47
-47
-46
-46
-46
-46
-46
-45
-44
-43
-42
-41
-40
-40
-38
-37
-36
-35
-34
-32
-31
-30
-29
-28
-27
-26
-24
-24
-23
-21
-20
-20
-18
-17
-17
-15
-15
-14
-13
-13
-13
-12
-12
-11
-11
-10
-10
-10
-9
-9
-9
-10
-9
-9
-9
-9
-9
-9
-9
-9
-9
-9
-9
-9
-9
-9
-9
-8
-8
-9
-9
-9
-8
-8
-9
-9
-9
-9
-9
-9
-9
-9
-9
-9
-8
-8
-8
-8
-8
-7
-7
-7
-6
-7
-7
-6
-6
-7
-7
-7
-6
-6
-6
-6
-6
-7
-8
-8
-8
-8
-7
-8
-8
-8
-8
-8
-8
-8
-8
-8
-7
-7
-7
-7
-6
-6
-6
-6
-6
-5
-5
-5
-5
-4
-4
-4
-4
-4
-4
-4
-3
-3
-3
-2
-2
-2
-2
-2
-2
-2
-1
-1
-1
-1
0
0
0
0
0
0
1
1
1
1
2
2
2
2
3
3
3
3
4
4
4
5
5
5
5
6
7
7
8
8
8
9
10
10
10
11
11
12
12
13
13
14
14
15
15
15
16
16
16
18
18
18
19
19
20
21
21
22
22
22
24
24
25
25
27
27
27
28
29
29
29
30
30
31
31
32
32
33
33
34
34
34
36
36
36
37
37
39
40
41
41
42
43
43
44
45
45
47
47
47
49
49
50
50
50
50
50
50
51
51
51
51
51
51
51
51
52
52
52
51
51
52
52
52
52
53
54
54
54
55
55
56
56
56
57
57
57
56
56
57
57
57
57
56
55
55
54
53
53
52
52
50
50
48
48
47
47
45
44
44
43
42
41
40
40
39
38
38
37
37
36
35
34
34
33
32
31
30
29
29
27
26
25
25
24
22
21
20
19
18
16
16
14
13
12
12
10
10
8
8
7
7
5
5
4
4
2
2
1
1
1
0
0
-1
-1
-2
-2
-3
-4
-5
-6
-6
-7
-7
-7
-8
-9
-9
-9
-10
-10
-10
-10
-10
-11
-11
-12
-13
-13
-13
-13
-14
-14
-14
-14
-14
-16
-16
-16
-16
-16
-17
-17
-18
-18
-18
-18
-18
-19
-19
-19
-20
-20
-20
-20
-20
-20
-20
-21
-21
-21
-21
-21
-21
-22
-22
-23
-22
-22
-23
-23
-23
-23
-24
-23
-23
-24
-24
-24
-24
-23
-24
-23
-23
-23
-23
-23
-24
-24
-24
-23
-23
-23
-23
-23
-23
-23
-23
-23
-23
-23
-23
-22
-22
-22
-22
-21
-21
-21
-21
-21
-20
-20
-20
-20
-20
-19
-19
-19
-19
-17
-17
-17
-17
-17
-16
-16
-16
-16
-16
-15
-15
-15
-15
-15
-15
-16
-16
-16
-16
-16
-15
-15
-15
-14
-14
-15
-15
-15
-14
-14
-14
-14
-14
-14
-13
-13
-12
-12
-12
-12
-12
-11
-12
-11
-11
-11
-10
-10
-10
-9
-9
-9
-9
-9
-9
-9
-8
-8
-8
-8
-8
-8
-8
-8
-8
-8
-7
-8
-8
-8
-8
-8
-8
-8
-8
-8
-8
-9
-8
-8
-8
-8
-8
-8
-8
-8
-8
-8
-8
-9
-8
-8
-7
-8
-7
-7
-7
-7
-8
-8
-8
-8
-8
-9
-9
-9
-9
-9
-9
-10
-9
-9
-10
-10
-10
-10
-10
-10
-10
-11
-11
-11
-10
-10
-11
-10
-11
-11
-10
-10
-10
-10
-10
-10
-11
-10
-10
-10
-11
-11
-10
-11
-11
-11
-11
-12
-12
-12
-12
-12
-12
-13
-12
-12
-12
-12
-13
-14
-13
-13
-13
-13
-13
-14
-14
-14
-14
-14
-15
-15
-15
-15
-15
-15
-16
-16
-16
-16
-16
-16
-16
-17
-17
-17
-17
-17
-17
-18
-18
-18
-19
-19
-19
-18
-18
-18
-18
-17
-17
-17
-17
-17
-17
-17
-16
-17
-16
-16
-15
-15
-15
-15
-15
-15
-15
-15
-15
-15
-15
-15
-15
-15
-15
-15
-16
-16
-16
-16
-15
-15
-15
-15
-16
-16
-15
-15
-15
-15
-15
-15
-16
-16
-16
-16
-16
-16
-16
-16
-16
-16
-17
-17
-17
-17
-17
-17
-17
-18
-19
-19
-19
-19
-19
-19
-19
-19
-19
-19
-19
-20
-20
-20
-20
-20
-20
-20
-19
-19
-19
-19
-18
-18
-18
-18
-18
-18
-18
-17
-17
-17
-18
-18
-17
-17
-17
-17
-17
-17
-18
-18
-18
-18
-18
-18
-18
-18
-18
-18
-18
-18
-18
-18
-18
-18
-18
-19
-19
-18
-19
-19
-19
-19
-19
-19
-19
-19
-18
-18
-19
-19
-19
-18
-19
-19
-19
-19
-19
-19
-20
-20
-20
-20
-20
-20
-20
-20
-20
-20
-21
-21
-20
-20
-20
-20
-20
-20
-20
-20
-20
-19
-19
-19
-19
-19
-19
-19
-19
-18
-18
-18
-19
-19
-20
-20
-20
-20
-20
-20
-20
-19
-20
-20
-20
-20
-19
-19
-19
-20
-20
-19
-19
-19
-20
-19
-19
-19
-18
-18
-18
-18
-19
-19
-19
-19
-19
-19
-19
-19
-19
-19
-19
-19
-19
-20
-20
-20
-20
-20
-20
-20
-19
-19
-19
-19
-20
-19
-19
-20
-20
-19
-20
-20
-20
-20
-20
-20
-20
-20
-20
-20
-20
-19
-19
-19
-19
-19
-18
-18
-18
-18
-18
-19
-19
-19
-19
-20
-19
-19
-19
-21
-21
-21
-20
-20
-20
-20
-20
-20
-20
-20
-20
-20
-20
-20
-20
-20
-20
-20
-21
-21
-21
-21
-21
-21
-21
-22
-22
-22
-22
-22
-22
-22
-23
-23
-23
-22
-23
-23
-22
-22
-22
-23
-23
-23
-22
-22
-22
-23
-22
-22
-22
-22
-23
-23
-23
-23
-24
-24
-23
-23
-23
-25
-25
-25
-25
-25
-26
-27
-27
-27
-27
-28
-28
-28
-28
-29
-29
-30
-30
-30
-30
-30
-30
-30
-30
-30
-31
-31
-31
-30
-30
-30
-31
-30
-30
-30
-30
-30
-30
-29
-30
-30
-30
-30
-29
-29
-29
-30
-29
-29
-29
-29
-29
-30
-29
-29
-29
-29
-29
-29
-29
-29
-29
-28
-28
-27
-26
-26
-25
-25
-24
-24
-24
-22
-22
-22
-21
-21
-20
-20
-20
-19
-19
-19
-19
-18
-18
-18
-18
-18
-18
-17
-17
-16
-16
-16
-16
-15
-16
-16
-15
-15
-15
-15
-15
-15
-15
-16
-16
-16
-16
-17
-17
-17
-17
-18
-18
-19
-20
-20
-21
-21
-22
-22
-22
-22
-23
-24
-24
-25
-25
-25
-25
-25
-26
-26
-26
-27
-26
-27
-27
-27
-27
-27
-27
-27
-27
-27
-27
-27
-27
-27
-28
-29
-29
-29
-29
-29
-30
-30
-31
-32
-32
-32
-32
-32
-33
-33
-33
-34
-34
-34
-35
-35
-36
-36
-36
-37
-37
-37
-38
-38
-37
-37
-37
-38
-38
-38
-38
-39
-39
-39
-39
-39
-38
-37
-37
-37
-37
-37
-37
-37
-36
-36
-36
-37
-36
-36
-36
-36
-36
-36
-36
-35
-35
-35
-34
-34
-35
-35
-35
-33
-33
-34
-34
-34
-34
-34
-34
-33
-33
-33
-33
-32
-32
-32
-32
-32
-32
-32
-32
-33
-33
-33
-33
-33
-33
-33
-33
-32
-31
-30
-30
-28
-26
-24
-21
-17
-12
-7
-1
4
11
19
27
37
47
58
69
81
93
105
116
127
137
144
149
154
155
155
153
148
143
133
122
109
94
78
61
42
22
3
-17
-35
-54
-72
-88
-102
-115
-126
-135
-142
-148
-153
-156
-158
-158
-157
-155
-153
-149
-146
-142
-137
-134
-130
-126
-122
-117
-113
-109
-107
-103
-100
-97
-95
-93
-91
-89
-87
-85
-84
-83
-82
-81
-79
-78
-76
-76
-75
-75
-74
-73
-73
-72
-72
-71
-71
-70
-71
-70
-71
-70
-71
-70
-71
-70
-71
-71
-71
-71
-71
-72
-71
-70
-70
-70
-69
-68
-67
-65
-64
-63
-62
-61
-59
-57
-56
-55
-53
-53
-50
-49
-48
-47
-45
-44
-43
-42
-40
-40
-38
-38
-37
-36
-35
-35
-34
-33
-34
-33
-32
-32
-32
-31
-31
-31
-31
-31
-30
-30
-30
-30
-30
-29
-28
-28
-28
-28
-28
-28
-28
-28
-27
-27
-27
-28
-27
-27
-27
-27
-27
-27
-27
-27
-27
-26
-26
-26
-26
-26
-27
-27
-26
-26
-26
-26
-27
-27
-26
-26
-27
-27
-27
-27
-27
-27
-27
-27
-27
-27
-28
-28
-28
-28
-27
-27
-27
-27
-27
-26
-26
-26
-26
-25
-25
-26
-25
-24
-24
-23
-23
-23
-23
-23
-23
-23
-23
-23
-22
-22
-23
-23
-23
-22
-23
-23
-22
-22
-22
-22
-22
-22
-21
-21
-21
-21
-21
-20
-21
-20
-20
-20
-20
-19
-19
-18
-18
-18
-17
-18
-18
-17
-17
-16
-16
-16
-16
-15
-15
-14
-14
-14
-13
-12
-12
-12
-11
-11
-11
-10
-10
-9
-9
-8
-7
-7
-6
-6
-5
-5
-4
-4
-3
-3
-2
-1
-1
0
0
1
1
2
3
4
4
4
5
5
6
6
6
6
8
8
8
9
9
9
10
11
11
12
13
14
15
16
17
17
19
19
21
22
22
24
24
26
26
27
27
29
29
30
30
31
31
32
33
33
34
35
35
35
37
37
37
37
39
39
39
40
41
41
41
41
42
42
43
43
43
44
44
44
44
43
43
43
44
44
44
44
44
43
43
43
43
43
43
41
41
41
41
41
41
41
40
40
40
40
39
39
39
39
39
39
38
38
38
36
36
36
36
34
34
33
33
31
31
30
29
28
28
27
26
25
24
23
22
21
20
20
19
18
17
17
15
15
13
13
12
11
10
9
9
7
6
6
4
4
3
2
1
1
0
-1
-2
-3
-3
-3
-4
-5
-5
-5
-5
-6
-7
-7
-7
-7
-8
-9
-9
-9
-9
-9
-10
-10
-11
-11
-11
-13
-13
-13
-13
-14
-14
-14
-15
-15
-15
-15
-15
-15
-16
-16
-16
-16
-17
-17
-17
-17
-18
-17
-18
-19
-19
-19
-19
-19
-19
-19
-20
-20
-20
-20
-20
-21
-21
-22
-22
-22
-22
-22
-22
-21
-21
-21
-22
-23
-23
-22
-22
-23
-23
-24
-24
-24
-24
-24
-24
-24
-24
-25
-25
-25
-25
-25
-25
-25
-25
-25
-24
-24
-24
-24
-24
-24
-24
-23
-23
-23
-23
-23
-23
-23
-23
-23
-23
-23
-23
-23
-23
-23
-23
-23
-23
-23
-22
-22
-22
-22
-22
-22
-21
-21
-21
-21
-20
-20
-20
-19
-18
-18
-18
-18
-17
-17
-17
-17
-17
-17
-15
-15
-15
-15
-14
-14
-14
-14
-14
-13
-12
-12
-12
-12
-12
-12
-11
-11
-12
-12
-12
-11
-11
-11
-11
-11
-11
-10
-10
-10
-10
-10
-10
-9
-8
-8
-8
-8
-8
-7
-7
-6
-6
-6
-6
-6
-6
-5
-5
-5
-5
-5
-5
-5
-5
-5
-5
-5
-5
-5
-4
-4
-4
-5
-5
-4
-5
-5
-5
-6
-6
-6
-6
-5
-5
-5
-5
-6
-5
-5
-6
-6
-6
-6
-5
-6
-6
-5
-5
-5
-4
-5
-5
-4
-4
-5
-4
-4
-3
-3
-3
-3
-3
-3
-3
-3
-3
-3
-3
-3
-3
-4
-5
-5
-5
-5
-5
-5
-5
-6
-6
-6
-6
-6
-6
-6
-6
-7
-7
-7
-7
-7
-7
-7
-7
-7
-7
-7
-7
-7
-7
-7
-7
-7
-8
-8
-8
-8
-8
-9
-8
-8
-8
-8
-8
-8
-8
-8
-8
-8
-9
-9
-9
-9
-9
-8
-8
-8
-8
-9
-9
-8
-9
-9
-9
-9
-9
-9
-9
-9
-9
-8
-8
-8
-8
-8
-7
-7
-7
-7
-7
-7
-7
-7
-7
-7
-6
-6
-6
-6
-6
-6
-6
-6
-6
-6
-6
-7
-7
-7
-7
-7
-7
-8
-7
-7
-8
-8
-8
-7
-7
-7
-7
-7
-7
-7
-7
-7
-5
-6
-6
-6
-6
-6
-6
-6
-6
-6
-6
-6
-6
-6
-6
-6
-6
-6
-6
-6
-6
-6
-6
-6
-6
-5
-5
-5
-5
-5
-5
-5
-5
-6
-6
-6
-6
-6
-7
-7
-7
-7
-8
-8
-8
-8
-8
-9
-9
-9
-9
-9
-8
-8
-8
-8
-9
-9
-8
-8
-8
-9
-9
-9
-9
-9
-9
-9
-9
-9
-9
-9
-9
-9
-10
-9
-8
-8
-8
-8
-8
-9
-9
-8
-8
-9
-9
-8
-8
-9
-8
-8
-8
-8
-9
-9
-9
-9
-9
-9
-9
-9
-9
-9
-9
-9
-9
-9
-9
-8
-8
-7
-7
-7
-7
-7
-7
-7
-7
-7
-7
-6
-6
-6
-6
-6
-6
-5
-5
-5
-6
-6
-5
-5
-5
-5
-5
-5
-4
-5
-5
-5
-5
-5
-6
-6
-6
-6
-6
-6
-6
-6
-6
-6
-6
-7
-7
-6
-6
-6
-5
-5
-5
-5
-5
-5
-5
-5
-5
-5
-6
-6
-5
-5
-5
-6
-7
-7
-8
-8
-8
-8
-9
-9
-9
-10
-10
-10
-10
-10
-12
-12
-11
-11
-11
-11
-11
-11
-10
-10
-10
-10
-10
-10
-10
-9
-9
-10
-10
-10
-9
-10
-10
-10
-10
-10
-10
-11
-11
-11
-10
-10
-11
-11
-11
-11
-11
-10
-10
-11
-11
-11
-11
-11
-10
-10
-10
-10
-10
-10
-10
-10
-10
-10
-11
-11
-11
-11
-10
-11
-11
-10
-10
-10
-11
-11
-11
-11
-11
-11
-11
-11
-11
-11
-12
-11
-12
-12
-12
-12
-12
-12
-12
-12
-12
-12
-12
-12
-11
-11
-11
-11
-11
-11
-10
-10
-10
-10
-9
-9
-8
-9
-9
-8
-8
-8
-8
-8
-8
-8
-6
-6
-6
-6
-5
-5
-4
-4
-4
-4
-3
-3
-2
-2
-1
-1
-1
0
0
0
1
1
0
1
0
1
0
1
1
1
1
1
1
1
2
2
3
2
2
3
3
3
3
4
4
4
4
4
4
4
3
4
4
3
2
2
1
1
0
0
-1
-2
-2
-3
-3
-4
-4
-4
-5
-5
-5
-6
-6
-6
-6
-7
-7
-7
-7
-8
-8
-8
-7
-7
-8
-8
-9
-9
-9
-9
-8
-8
-9
-9
-8
-8
-8
-9
-9
-9
-9
-9
-10
-10
-11
-11
-11
-12
-12
-13
-12
-13
-13
-14
-14
-14
-14
-14
-15
-15
-15
-15
-15
-15
-15
-15
-15
-15
-15
-15
-15
-15
-15
-15
-15
-15
-15
-16
-16
-16
-16
-15
-15
-15
-15
-16
-16
-16
-16
-15
-15
-15
-15
-15
-14
-14
-14
-14
-14
-15
-15
-14
-14
-14
-14
-14
-14
-14
-14
-14
-14
-13
-13
-13
-13
-12
-12
-13
-12
-12
-12
-12
-12
-11
-11
-11
-11
-10
-10
-9
-7
-5
-2
2
5
9
14
19
25
32
41
49
59
69
80
91
103
115
127
139
149
157
163
169
171
172
172
169
163
156
146
134
120
105
88
69
50
31
11
-8
-28
-46
-63
-78
-92
-104
-115
-124
-131
-136
-139
-141
-142
-142
-141
-139
-135
-132
-128
-124
-119
-115
-110
-105
-101
-97
-93
-89
-86
-83
-80
-78
-75
-73
-71
-69
-67
-66
-64
-62
-61
-60
-58
-56
-55
-55
-54
-53
-51
-50
-49
-48
-49
-48
-48
-47
-47
-47
-46
-46
-47
-47
-47
-46
-47
-46
-47
-46
-45
-46
-46
-45
-44
-43
-43
-42
-41
-39
-39
-38
-36
-34
-33
-32
-31
-29
-27
-27
-25
-23
-22
-20
-19
-18
-16
-15
-13
-13
-11
-10
-10
-8
-8
-7
-6
-6
-5
-6
-5
-5
-4
-5
-4
-4
-3
-3
-4
-4
-3
-3
-4
-4
-3
-3
-3
-3
-3
-3
-2
-2
-2
-2
-2
-1
-1
-1
-1
-1
-1
-1
-1
-1
-1
0
0
0
0
0
0
1
1
1
1
1
1
1
2
2
2
1
2
2
2
2
2
2
2
2
3
2
2
2
2
2
2
2
1
1
1
1
1
1
1
1
1
2
2
2
2
2
2
3
3
3
3
3
3
3
3
3
3
3
4
4
4
4
4
5
5
5
5
5
6
6
7
7
8
8
8
8
8
9
10
10
10
11
10
10
10
10
10
11
11
11
11
11
12
12
12
12
12
12
13
13
13
13
13
14
15
15
15
15
15
16
16
17
18
18
20
20
20
21
22
23
24
25
25
27
27
28
29
30
30
31
32
32
33
33
33
34
34
34
35
35
35
35
36
36
36
36
36
36
37
38
38
38
38
38
39
39
40
40
41
41
42
42
43
43
44
44
46
46
46
47
48
48
48
49
49
49
50
51
52
52
53
53
53
54
54
55
55
56
56
57
57
58
58
58
59
59
59
60
60
60
60
60
60
60
61
61
61
61
61
60
60
60
60
59
59
59
58
58
58
58
58
57
57
56
56
56
56
56
55
55
55
55
53
53
52
52
51
50
50
49
48
47
45
45
44
43
43
41
40
40
38
37
37
37
36
35
35
33
33
33
31
31
29
28
28
27
26
26
24
23
23
21
20
19
19
18
17
16
16
15
14
14
13
13
12
11
11
10
9
9
8
8
7
7
6
5
5
5
4
4
3
2
2
1
1
1
0
1
0
-1
0
-1
-1
-2
-2
-3
-3
-3
-3
-3
-4
-4
-4
-5
-5
-6
-6
-6
-7
-8
-8
-8
-9
-9
-9
-9
-10
-10
-10
-10
-10
-10
-10
-10
-10
-10
-11
-11
-11
-10
-10
-10
-11
-11
-11
-11
-12
-12
-11
-11
-11
-11
-11
-11
-11
-11
-11
-11
-12
-12
-12
-12
-12
-12
-12
-13
-13
-13
-13
-13
-13
-13
-13
-13
-13
-13
-13
-13
-13
-12
-12
-12
-13
-13
-12
-12
-12
-12
-12
-12
-11
-12
-12
-11
-11
-11
-11
-11
-11
-11
-11
-10
-9
-9
-9
-9
-9
-8
-8
-7
-7
-7
-5
-5
-5
-4
-4
-5
-4
-4
-4
-4
-4
-4
-4
-4
-4
-4
-4
-5
-5
-4
-4
-4
-4
-3
-3
-3
-3
-2
-1
-1
-1
1
1
1
1
1
2
2
2
3
3
4
4
4
3
3
3
3
3
3
3
3
3
2
2
2
2
2
2
2
2
1
2
2
2
2
1
1
2
2
2
2
2
2
1
1
1
1
1
1
1
1
1
1
2
2
2
2
2
1
1
2
2
2
2
2
2
2
1
1
1
1
1
1
1
1
1
1
0
0
0
0
0
-1
-1
-1
-2
-2
-2
-2
-1
-1
-1
-1
-1
-1
-1
-1
-1
-1
-1
-1
0
0
0
0
0
-1
-1
-1
-1
-1
-1
0
0
-1
-1
0
0
0
0
-1
-1
-1
-1
-1
-1
0
0
0
0
0
0
0
0
0
-1
-1
-1
-1
-1
-1
-1
-1
-1
-1
-1
-2
-2
-2
-2
-1
-1
-2
-2
-2
-2
-2
-2
-2
-2
-1
-1
-1
-1
-2
-2
-2
-2
-1
-2
-2
-2
-1
-1
-2
-2
-2
-2
-2
-2
-2
-2
-2
-2
-2
-2
-2
-2
-2
-1
-1
-2
-2
-2
-2
-2
-1
-1
0
-1
-1
0
0
0
0
-1
-1
-1
-1
-1
-1
-1
-2
-1
-1
-1
-1
-1
-1
-2
-2
-1
-1
-2
-1
-1
-2
-2
-1
-1
-1
-2
-1
-1
-1
-1
-1
0
0
0
0
-1
-1
-1
-2
-1
-1
-1
-1
-1
-1
-1
-1
-1
-1
-1
-1
-1
-1
-1
-1
-1
-1
-1
-1
-2
-2
-2
-2
-1
-2
-2
-3
-3
-3
-3
-4
-3
-3
-3
-3
-4
-3
-4
-4
-4
-3
-3
-3
-3
-3
-3
-3
-2
-3
-3
-2
-3
-3
-4
-4
-3
-4
-4
-4
-4
-3
-4
-4
-4
-4
-3
-3
-3
-3
-4
-3
-3
-3
-3
-2
-3
-2
-2
-2
-2
-2
-2
-2
-2
-2
-3
-2
-2
-3
-3
-2
-2
-2
-2
-3
-2
-2
-2
-2
-2
-2
-2
-2
-2
-2
-2
-1
-1
-1
-1
-1
-1
-1
-1
-1
-1
-1
-2
-2
-2
-2
-2
-3
-3
-3
-3
-3
-3
-2
-2
-2
-2
-2
-2
-2
-2
-2
-2
-2
-2
-2
-2
-2
-2
-2
-1
-1
-1
-1
-1
-2
-2
-2
-2
-2
-2
-2
-2
-2
-2
-2
-2
-2
-1
-2
-2
-2
-2
-2
-2
-2
-2
-2
-2
-2
-2
-2
-2
-2
-2
-2
-2
-2
-2
-2
-2
-1
0
0
0
0
0
0
0
0
0
0
0
1
1
1
1
1
1
2
2
2
3
3
3
3
3
4
4
4
5
5
5
5
5
5
7
7
8
8
8
9
9
9
9
10
11
11
12
12
13
13
13
13
14
14
14
15
15
15
14
14
15
15
14
14
14
13
14
13
13
13
13
13
11
11
11
11
11
11
10
10
10
9
9
8
8
7
7
6
5
4
4
3
2
2
1
1
0
1
-1
0
0
-1
-1
0
-1
-1
-1
0
0
0
0
1
1
0
1
0
0
0
0
-1
-1
-1
-1
-2
-2
-3
-3
-4
-4
-4
-4
-5
-5
-5
-5
-6
-6
-6
-6
-5
-6
-6
-6
-6
-6
-6
-6
-6
-6
-6
-6
-6
-7
-6
-6
-6
-6
-6
-6
-5
-6
-6
-6
-5
-5
-5
-6
-6
-5
-5
-5
-5
-5
-5
-5
-5
-5
-5
-5
-5
-5
-5
-5
-5
-5
-5
-5
-5
-5
-5
-4
-4
-4
-4
-4
-4
-4
-3
-3
-3
-2
-2
-1
-1
-1
-1
0
0
0
1
1
1
2
3
4
6
7
9
11
14
18
21
26
31
38
44
52
61
69
79
89
101
113
124
136
148
159
168
176
182
188
190
191
190
185
180
171
161
148
135
119
102
84
65
46
26
7
-11
-29
-44
-59
-72
-83
-92
-100
-106
-110
-113
-114
-115
-115
-113
-111
-108
-104
-100
-96
-92
-88
-83
-80
-76
-71
-68
-65
-61
-58
-55
-53
-51
-49
-47
-45
-44
-41
-40
-39
-38
-37
-35
-35
-34
-33
-33
-32
-32
-31
-30
-31
-30
-29
-30
-29
-30
-29
-30
-30
-30
-30
-31
-30
-31
-30
-31
-31
-31
-30
-30
-30
-29
-29
-28
-28
-27
-26
-26
-25
-24
-23
-22
-21
-20
-19
-18
-17
-17
-15
-14
-13
-12
-11
-10
-9
-8
-7
-6
-5
-5
-3
-3
-2
-2
0
-1
0
1
2
2
3
3
4
4
4
4
5
5
5
5
5
5
5
5
5
5
5
5
5
4
4
4
4
5
5
5
5
5
5
5
5
6
6
6
6
6
7
7
6
7
7
7
6
7
7
7
7
7
7
6
6
6
6
6
6
7
7
6
6
6
6
6
6
6
6
6
6
6
6
6
5
6
6
6
6
6
6
6
6
6
6
7
7
7
7
7
7
7
7
7
7
8
7
8
7
7
8
8
8
8
8
7
8
8
9
9
9
10
10
10
10
10
11
11
11
11
12
12
11
11
12
12
12
12
12
12
13
13
13
13
13
14
14
14
15
15
15
16
16
16
16
17
18
18
19
20
20
20
21
21
22
23
24
24
25
25
25
26
26
28
28
28
28
30
30
30
31
31
31
32
33
33
34
35
35
36
37
38
38
39
39
40
40
40
41
42
42
43
44
44
45
46
46
47
47
48
49
49
50
51
52
53
53
55
55
55
56
57
57
59
59
60
60
60
61
61
61
61
61
62
63
63
63
63
63
64
64
64
64
64
65
65
65
65
66
66
67
67
67
67
66
66
66
65
65
65
65
65
63
63
63
63
62
61
61
60
60
58
58
58
56
56
55
55
53
53
52
52
50
49
49
47
47
45
45
44
43
42
41
41
40
40
38
38
38
36
36
35
33
33
32
30
30
29
28
27
26
25
24
23
22
21
20
19
18
18
17
16
15
15
14
13
13
11
11
11
10
10
9
9
8
8
8
8
6
6
5
5
5
4
3
3
3
2
1
1
1
1
0
-1
-1
-1
-1
-1
-3
-3
-3
-3
-3
-4
-4
-4
-4
-5
-5
-6
-6
-6
-6
-6
-7
-8
-8
-8
-8
-8
-9
-9
-9
-9
-9
-9
-9
-9
-10
-10
-10
-10
-10
-10
-10
-11
-11
-11
-12
-12
-13
-13
-13
-13
-14
-14
-15
-15
-15
-15
-16
-16
-16
-16
-16
-17
-17
-17
-17
-17
-18
-18
-18
-18
-17
-18
-18
-18
-19
-18
-18
-18
-18
-18
-18
-17
-17
-17
-17
-17
-16
-16
-16
-16
-16
-15
-15
-15
-14
-14
-14
-14
-14
-13
-13
-13
-13
-13
-13
-13
-13
-13
-13
-13
-13
-13
-13
-13
-13
-13
-13
-13
-13
-13
-13
-13
-13
-13
-13
-13
-13
-12
-12
-12
-12
-11
-11
-11
-10
-10
-10
-10
-10
-9
-8
-8
-8
-8
-8
-8
-9
-9
-8
-8
-8
-8
-8
-9
-9
-9
-9
-9
-9
-8
-8
-8
-8
-8
-6
-7
-7
-6
-6
-6
-6
-5
-5
-5
-5
-5
-5
-5
-5
-5
-5
-5
-5
-5
-5
-5
-5
-6
-5
-6
-6
-6
-7
-7
-7
-6
-6
-6
-7
-7
-6
-7
-7
-7
-7
-7
-6
-6
-7
-6
-6
-6
-6
-6
-6
-6
-7
-7
-7
-7
-8
-8
-7
-8
-9
-9
-9
-9
-9
-10
-10
-10
-10
-10
-10
-11
-11
-11
-11
-12
-12
-12
-12
-12
-12
-12
-12
-12
-13
-13
-13
-13
-12
-12
-12
-12
-12
-11
-11
-11
-12
-12
-12
-12
-12
-12
-12
-12
-12
-12
-12
-12
-13
-13
-13
-13
-14
-14
-14
-15
-15
-15
-15
-15
-16
-16
-16
-17
-17
-17
-17
-17
-17
-17
-17
-17
-17
-17
-17
-17
-17
-17
-16
-17
-16
-16
-16
-16
-16
-16
-16
-15
-15
-16
-16
-16
-16
-17
-16
-16
-16
-16
-16
-16
-16
-16
-16
-16
-16
-16
-16
-16
-16
-16
-15
-15
-16
-16
-16
-15
-15
-16
-15
-16
-15
-15
-15
-15
-15
-15
-15
-15
-15
-14
-14
-14
-14
-14
-14
-14
-14
-14
-14
-15
-15
-15
-15
-15
-15
-15
-15
-15
-16
-16
-15
-15
-14
-15
-15
-15
-15
-15
-15
-15
-14
-14
-14
-14
-14
-14
-14
-14
-15
-15
-15
-14
-15
-15
-15
-14
-14
-15
-15
-15
-15
-15
-16
-15
-15
-15
-15
-15
-14
-14
-14
-14
-14
-14
-14
-14
-14
-14
-14
-13
-14
-14
-14
-14
-13
-13
-13
-13
-13
-13
-14
-14
-14
-13
-13
-13
-14
-14
-14
-13
-13
-13
-12
-13
-13
-13
-13
-13
-14
-13
-12
-13
-13
-13
-13
-13
-13
-13
-13
-13
-13
-13
-13
-12
-13
-13
-13
-12
-12
-12
-12
-12
-12
-11
-11
-12
-12
-11
-11
-10
-11
-10
-10
-9
-9
-10
-10
-9
-10
-9
-9
-9
-9
-9
-9
-9
-9
-9
-9
-9
-9
-10
-10
-9
-9
-9
-10
-9
-9
-9
-9
-10
-10
-8
-8
-8
-8
-8
-8
-8
-8
-8
-7
-7
-7
-7
-7
-7
-7
-7
-7
-8
-8
-8
-8
-8
-8
-8
-7
-7
-7
-7
-7
-7
-7
-6
-6
-6
-5
-6
-5
-5
-5
-3
-3
-2
-2
-1
-1
0
0
1
1
3
3
3
4
4
4
4
4
4
5
5
6
6
6
5
5
6
6
6
7
7
7
7
6
6
6
6
7
7
7
7
6
6
6
6
6
6
6
6
5
5
5
5
4
4
4
4
4
2
2
2
2
2
1
1
-1
-1
-1
-2
-2
-2
-3
-3
-4
-4
-4
-6
-5
-6
-6
-7
-6
-7
-7
-7
-7
-7
-7
-7
-7
-9
-9
-9
-9
-9
-10
-10
-10
-11
-11
-12
-12
-12
-13
-13
-13
-14
-14
-14
-14
-14
-14
-15
-14
-14
-14
-15
-15
-15
-15
-15
-15
-15
-15
-15
-15
-15
-15
-15
-15
-15
-15
-15
-15
-15
-15
-15
-15
-15
-16
-15
-15
-15
-15
-14
-15
-14
-14
-14
-14
-14
-14
-14
-14
-14
-14
-14
-14
-14
-14
-14
-13
-13
-13
-13
-13
-13
-12
-12
-12
-12
-12
-12
-11
-11
-11
-10
-10
-10
-10
-10
-10
-10
-9
-8
-8
-8
-8
-7
-7
-6
-4
-4
-2
1
4
8
12
16
21
27
34
42
51
59
69
80
91
103
115
127
138
149
157
165
170
173
175
175
172
167
160
151
139
126
112
94
78
59
40
21
2
-16
-35
-50
-66
-80
-92
-101
-110
-116
-122
-125
-128
-128
-129
-128
-126
-123
-120
-116
-113
-109
-105
-101
-97
-94
-89
-87
-83
-80
-78
-75
-73
-71
-69
-67
-65
-63
-62
-61
-60
-58
-57
-55
-54
-52
-51
-50
-48
-47
-46
-45
-44
-43
-44
-43
-43
-42
-42
-43
-42
-43
-43
-43
-43
-44
-44
-45
-45
-45
-45
-45
-45
-45
-44
-44
-43
-43
-41
-40
-39
-39
-38
-37
-36
-35
-34
-33
-31
-29
-28
-27
-26
-25
-23
-23
-22
-20
-18
-18
-17
-16
-14
-14
-13
-12
-12
-11
-10
-9
-9
-9
-9
-9
-8
-8
-8
-7
-7
-8
-8
-8
-7
-7
-7
-7
-7
-7
-7
-6
-6
-6
-7
-7
-6
-6
-6
-6
-6
-5
-5
-5
-5
-5
-4
-4
-4
-4
-4
-4
-4
-5
-5
-4
-4
-4
-4
-4
-4
-4
-5
-5
-5
-4
-5
-5
-5
-5
-5
-5
-5
-6
-6
-6
-6
-5
-6
-6
-6
-7
-7
-7
-7
-7
-7
-7
-7
-6
-6
-6
-5
-5
-5
-5
-5
-5
-4
-4
-3
-3
-3
-3
-2
-2
-2
-1
-1
0
0
0
0
0
0
0
0
0
0
0
0
0
0
0
1
1
1
1
1
2
2
2
2
3
4
4
3
4
5
5
5
5
5
5
6
6
7
7
7
7
7
7
7
8
9
9
9
10
10
10
11
12
12
12
13
14
14
15
16
16
17
17
18
19
20
20
20
21
22
23
23
24
25
25
26
26
27
28
28
29
30
30
30
31
32
33
34
34
35
36
36
36
38
38
38
40
40
40
41
41
42
43
43
44
44
45
45
46
46
47
48
48
48
48
49
50
50
50
51
51
51
51
52
52
52
52
52
53
54
54
54
54
54
54
54
55
55
55
55
55
54
54
54
54
54
54
53
53
53
53
52
52
52
51
51
49
49
49
49
48
48
47
47
46
46
45
45
44
44
43
42
41
41
41
40
40
39
38
37
36
35
34
33
32
31
30
29
28
27
27
26
24
23
22
21
21
19
18
18
17
16
14
14
13
12
11
10
9
8
7
7
5
5
4
3
2
2
1
1
0
-1
-2
-3
-3
-3
-4
-5
-6
-6
-6
-7
-7
-8
-8
-9
-9
-10
-11
-11
-11
-12
-12
-12
-12
-12
-12
-13
-14
-13
-14
-14
-14
-14
-15
-15
-15
-16
-16
-16
-16
-17
-17
-17
-17
-19
-19
-19
-20
-21
-21
-21
-21
-21
-21
-21
-22
-22
-22
-23
-23
-23
-22
-22
-22
-22
-22
-21
-21
-22
-22
-22
-22
-22
-22
-22
-22
-22
-22
-22
-22
-22
-22
-22
-22
-22
-22
-22
-22
-21
-21
-21
-21
-21
-21
-21
-21
-20
-20
-20
-20
-20
-20
-20
-19
-19
-19
-19
-19
-20
-19
-19
-19
-19
-19
-19
-19
-19
-18
-18
-18
-19
-18
-18
-18
-18
-17
-17
-17
-16
-17
-17
-16
-16
-16
-15
-16
-15
-15
-15
-14
-14
-13
-13
-13
-12
-12
-12
-11
-11
-10
-10
-9
-9
-10
-9
-9
-8
-8
-8
-8
-8
-8
-8
-8
-8
-8
-8
-8
-8
-8
-8
-8
-8
-8
-8
-8
-8
-8
-8
-8
-8
-7
-7
-6
-6
-7
-6
-5
-5
-5
-5
-5
-5
-3
-3
-3
-3
-3
-3
-2
-2
-1
-2
-2
-1
-1
-1
-1
-2
-2
-2
-2
-2
-2
-2
-2
-2
-2
-2
-3
-3
-3
-3
-3
-3
-4
-4
-4
-4
-4
-4
-4
-4
-4
-4
-4
-4
-4
-5
-4
-4
-3
-3
-3
-3
-3
-4
-4
-4
-4
-4
-4
-4
-4
-5
-5
-5
-6
-6
-6
-6
-7
-7
-7
-7
-8
-8
-8
-8
-9
-9
-9
-9
-9
-9
-8
-9
-9
-9
-9
-9
-9
-9
-9
-9
-9
-9
-9
-10
-10
-10
-10
-10
-11
-11
-12
-12
-12
-13
-12
-12
-12
-13
-13
-13
-13
-14
-14
-14
-15
-15
-15
-15
-15
-15
-15
-16
-16
-16
-16
-16
-18
-18
-18
-18
-17
-17
-18
-18
-18
-18
-18
-18
-18
-18
-19
-19
-19
-19
-19
-19
-19
-18
-18
-18
-18
-19
-19
-18
-18
-18
-18
-18
-17
-17
-17
-17
-17
-18
-18
-18
-18
-18
-19
-19
-19
-19
-18
-18
-19
-19
-18
-18
-19
-19
-19
-19
-19
-18
-19
-18
-18
-18
-18
-18
-18
-18
-18
-18
-18
-18
-18
-18
-18
-18
-18
-18
-18
-18
-17
-17
-17
-18
-18
-18
-18
-18
-18
-18
-18
-18
-18
-18
-18
-18
-18
-18
-18
-18
-19
-19
-19
-18
-18
-18
-18
-18
-18
-18
-18
-18
-19
-19
-19
-19
-19
-19
-19
-19
-19
-19
-19
-19
-19
-19
-19
-18
-18
-18
-18
-18
-19
-18
-18
-18
-17
-17
-17
-18
-18
-18
-18
-18
-18
-18
-19
-19
-19
-19
-20
-20
-20
-20
-21
-21
-21
-21
-21
-21
-21
-22
-22
-22
-22
-23
-23
-23
-23
-23
-23
-23
-23
-22
-22
-22
-22
-22
-23
-22
-22
-23
-23
-23
-23
-23
-23
-23
-24
-24
-24
-24
-24
-24
-24
-24
-24
-24
-24
-24
-25
-25
-25
-25
-25
-25
-26
-25
-25
-25
-25
-26
-26
-26
-26
-26
-26
-27
-27
-27
-27
-27
-27
-27
-27
-28
-28
-29
-29
-29
-29
-29
-29
-28
-29
-29
-30
-30
-30
-29
-29
-29
-29
-29
-30
-29
-29
-28
-28
-28
-28
-27
-27
-27
-28
-27
-27
-27
-27
-27
-26
-26
-26
-26
-26
-26
-26
-27
-27
-27
-27
-27
-28
-28
-28
-28
-29
-29
-29
-29
-28
-29
-29
-29
-29
-29
-28
-28
-28
-28
-28
-27
-27
-27
-27
-26
-26
-25
-26
-25
-25
-25
-25
-25
-23
-23
-22
-22
-22
-22
-20
-20
-20
-20
-19
-19
-18
-18
-17
-16
-16
-15
-15
-14
-14
-14
-13
-13
-13
-12
-12
-11
-11
-10
-11
-11
-9
-9
-9
-10
-10
-10
-10
-10
-10
-10
-10
-10
-10
-11
-11
-11
-11
-11
-11
-12
-12
-11
-11
-12
-12
-13
-13
-13
-14
-14
-15
-15
-14
-15
-15
-16
-17
-18
-19
-19
-20
-21
-21
-21
-22
-22
-23
-23
-23
-24
-24
-24
-24
-25
-25
-25
-25
-25
-25
-25
-25
-25
-25
-25
-25
-26
-26
-26
-26
-26
-26
-27
-27
-27
-26
-27
-27
-27
-27
-27
-28
-28
-28
-28
-29
-30
-30
-30
-30
-31
-31
-31
-32
-32
-32
-32
-32
-33
-33
-33
-34
-34
-35
-34
-34
-34
-34
-34
-34
-35
-35
-35
-35
-36
-36
-36
-36
-35
-35
-35
-35
-36
-36
-36
-36
-37
-37
-36
-35
-35
-35
-35
-34
-34
-34
-33
-33
-33
-33
-33
-33
-32
-32
-32
-33
-33
-33
-33
-33
-34
-33
-33
-33
-33
-33
-33
-33
-32
-31
-31
-29
-28
-26
-23
-20
-16
-12
-7
-2
5
13
21
29
38
48
59
71
83
94
107
119
129
138
146
152
156
157
157
154
149
142
133
122
108
93
76
59
40
21
1
-19
-38
-56
-74
-89
-104
-116
-127
-136
-144
-150
-154
-157
-157
-158
-157
-155
-153
-150
-146
-142
-138
-133
-130
-126
-121
-118
-114
-111
-108
-105
-102
-100
-98
-96
-94
-92
-91
-89
-87
-86
-85
-84
-83
-83
-82
-82
-81
-80
-80
-79
-79
-78
-78
-78
-77
-78
-78
-78
-78
-78
-78
-78
-79
-79
-78
-79
-79
-78
-78
-78
-78
-77
-76
-76
-74
-74
-72
-71
-71
-70
-69
-67
-66
-66
-64
-63
-62
-60
-60
-59
-57
-56
-56
-54
-53
-52
-51
-51
-50
-49
-48
-48
-47
-46
-46
-45
-44
-43
-44
-43
-43
-42
-43
-42
-42
-42
-41
-41
-42
-42
-42
-41
-42
-42
-42
-42
-42
-42
-42
-42
-42
-42
-42
-42
-43
-43
-43
-43
-43
-43
-43
-43
-43
-43
-43
-42
-42
-42
-42
-42
-42
-42
-42
-42
-42
-42
-42
-42
-42
-42
-42
-42
-43
-43
-44
-44
-43
-43
-44
-44
-44
-44
-44
-45
-45
-45
-45
-45
-46
-45
-45
-45
-45
-46
-45
-46
-45
-45
-45
-46
-46
-46
-45
-45
-45
-45
-45
-45
-46
-46
-46
-46
-46
-46
-46
-46
-46
-46
-45
-45
-45
-45
-44
-44
-44
-44
-44
-43
-42
-42
-41
-40
-40
-40
-39
-39
-39
-38
-38
-37
-37
-37
-37
-36
-36
-36
-36
-35
-35
-34
-34
-34
-34
-34
-33
-33
-32
-32
-32
-31
-31
-30
-30
-30
-29
-29
-29
-29
-28
-28
-28
-27
-26
-26
-26
-25
-24
-24
-23
-23
-22
-21
-20
-19
-19
-19
-17
-17
-15
-15
-14
-14
-14
-13
-12
-11
-11
-10
-10
-8
-8
-7
-7
-6
-6
-6
-4
-4
-3
-3
-2
-1
-2
-1
0
0
1
1
2
2
3
3
3
4
4
5
5
6
6
7
7
8
9
9
9
11
11
12
13
14
14
15
15
17
17
18
18
19
20
20
21
22
22
22
22
22
23
22
22
22
22
22
22
22
21
22
22
21
21
21
20
20
19
19
18
18
18
18
17
17
16
15
15
14
13
12
12
11
10
10
9
7
6
6
5
3
3
2
1
0
-1
-2
-3
-4
-5
-7
-7
-8
-10
-11
-12
-14
-15
-16
-16
-17
-19
-20
-20
-21
-22
-24
-24
-25
-26
-27
-28
-28
-30
-31
-31
-32
-33
-33
-35
-35
-36
-37
-37
-39
-39
-39
-40
-40
-41
-41
-42
-42
-42
-42
-43
-43
-44
-44
-44
-44
-44
-44
-45
-45
-45
-46
-46
-47
-47
-48
-48
-48
-49
-50
-50
-50
-51
-52
-52
-53
-54
-54
-55
-56
-56
-57
-57
-58
-58
-59
-59
-59
-60
-60
-60
-61
-61
-62
-62
-61
-61
-62
-62
-62
-62
-62
-62
-62
-62
-62
-62
-62
-62
-62
-62
-62
-63
-63
-63
-64
-64
-64
-64
-63
-64
-64
-65
-65
-65
-64
-64
-64
-64
-64
-64
-64
-64
-63
-63
-64
-64
-63
-63
-63
-63
-63
-63
-63
-63
-63
-63
-63
-63
-63
-63
-63
-63
-63
-63
-63
-63
-63
-63
-63
-64
-64
-64
-64
-64
-64
-63
-63
-63
-63
-63
-62
-62
-62
-61
-61
-61
-61
-60
-60
-60
-60
-60
-59
-59
-58
-58
-59
-59
-59
-58
-59
-59
-59
-58
-58
-58
-59
-59
-58
-58
-58
-58
-58
-58
-58
-57
-57
-57
-57
-57
-56
-56
-56
-55
-56
-56
-55
-55
-55
-54
-54
-54
-54
-54
-54
-54
-54
-53
-53
-53
-54
-54
-53
-53
-53
-53
-53
-53
-52
-52
-53
-53
-53
-52
-52
-52
-52
-52
-52
-51
-51
-52
-51
-51
-51
-51
-51
-51
-52
-52
-52
-53
-53
-53
-54
-54
-54
-55
-54
-55
-55
-56
-56
-56
-56
-56
-56
-57
-57
-57
-57
-57
-57
-57
-57
-57
-57
-57
-57
-57
-57
-57
-57
-57
-57
-57
-58
-58
-57
-57
-58
-58
-58
-58
-58
-59
-59
-59
-58
-58
-58
-59
-59
-59
-60
-60
-60
-60
-60
-61
-61
-61
-62
-62
-62
-63
-63
-64
-64
-65
-66
-65
-66
-66
-67
-66
-66
-67
-67
-67
-67
-67
-67
-67
-67
-67
-67
-67
-67
-66
-66
-66
-66
-66
-65
-65
-65
-65
-64
-65
-65
-64
-64
-64
-64
-64
-64
-64
-64
-64
-64
-65
-65
-64
-64
-65
-65
-65
-65
-66
-66
-66
-66
-66
-66
-67
-67
-67
-66
-67
-67
-67
-67
-67
-67
-67
-68
-68
-68
-68
-68
-68
-68
-68
-68
-68
-68
-68
-68
-67
-67
-67
-67
-67
-67
-67
-67
-67
-67
-66
-66
-66
-66
-66
-66
-66
-66
-66
-66
-66
-65
-65
-66
-66
-66
-65
-65
-65
-66
-67
-67
-67
-67
-67
-67
-67
-67
-68
-68
-68
-68
-68
-68
-68
-68
-69
-69
-69
-68
-68
-68
-68
-67
-67
-67
-67
-67
-67
-67
-67
-67
-66
-66
-67
-67
-67
-66
-66
-66
-66
-67
-67
-66
-67
-67
-67
-67
-67
-68
-67
-67
-67
-67
-67
-67
-67
-67
-67
-67
-67
-67
-67
-67
-67
-67
-67
-67
-67
-67
-67
-67
-68
-68
-68
-67
-67
-67
-67
-67
-66
-66
-67
-66
-66
-66
-66
-66
-65
-65
-65
-64
-63
-63
-64
-64
-64
-63
-64
-64
-64
-64
-64
-64
-64
-64
-65
-65
-65
-65
-64
-64
-64
-64
-64
-64
-64
-63
-63
-63
-63
-63
-62
-62
-62
-62
-62
-62
-62
-61
-62
-62
-61
-61
-61
-60
-61
-61
-61
-61
-61
-60
-61
-61
-61
-61
-61
-61
-61
-61
-61
-61
-61
-61
-61
-62
-62
-61
-61
-61
-61
-61
-61
-60
-60
-60
-60
-59
-59
-59
-59
-58
-58
-59
-58
-58
-58
-58
-58
-57
-57
-57
-56
-56
-56
-56
-56
-55
-55
-55
-55
-55
-54
-54
-54
-54
-54
-53
-53
-53
-53
-53
-52
-52
-52
-50
-50
-50
-49
-49
-48
-47
-46
-46
-45
-46
-45
-44
-44
-43
-43
-42
-43
-42
-42
-41
-40
-41
-40
-40
-40
-39
-38
-39
-38
-37
-37
-37
-37
-37
-36
-36
-36
-36
-36
-36
-36
-36
-37
-37
-37
-37
-37
-38
-38
-38
-38
-39
-39
-40
-40
-40
-40
-40
-40
-40
-41
-41
-41
-41
-41
-41
-42
-42
-42
-43
-43
-42
-43
-43
-43
-44
-44
-44
-44
-44
-46
-46
-46
-46
-46
-46
-47
-47
-47
-46
-47
-47
-47
-47
-48
-48
-48
-47
-48
-48
-48
-48
-48
-48
-48
-48
-48
-49
-49
-49
-50
-50
-50
-51
-51
-51
-51
-51
-52
-51
-51
-51
-51
-52
-52
-52
-52
-52
-52
-52
-52
-51
-51
-51
-51
-51
-50
-50
-50
-49
-49
-49
-49
-48
-48
-48
-47
-47
-47
-47
-47
-46
-46
-46
-46
-45
-45
-44
-44
-45
-44
-44
-44
-44
-44
-43
-43
-43
-43
-43
-42
-42
-42
-42
-42
-43
-43
-43
-43
-43
-42
-42
-42
-43
-42
-41
-40
-40
-39
-37
-35
-32
-29
-25
-20
-16
-10
-3
4
13
21
30
41
52
64
76
88
100
112
123
132
140
145
150
152
151
149
144
137
127
117
103
89
72
55
35
16
-3
-23
-41
-60
-78
-94
-109
-121
-132
-141
-149
-154
-158
-162
-163
-163
-162
-160
-158
-156
-152
-149
-145
-140
-137
-133
-130
-126
-122
-118
-115
-111
-109
-107
-104
-101
-99
-97
-95
-93
-91
-89
-88
-86
-84
-83
-81
-79
-79
-77
-76
-75
-74
-73
-73
-72
-72
-71
-71
-71
-71
-71
-71
-72
-71
-72
-71
-72
-71
-71
-71
-70
-71
-70
-69
-68
-67
-67
-65
-65
-64
-62
-61
-59
-59
-57
-55
-54
-53
-52
-50
-49
-48
-46
-45
-44
-42
-42
-40
-39
-39
-37
-37
-35
-35
-33
-32
-32
-31
-31
-30
-30
-29
-29
-28
-28
-28
-27
-27
-27
-27
-27
-27
-27
-26
-26
-27
-27
-27
-27
-26
-26
-26
-26
-26
-26
-26
-26
-26
-26
-25
-25
-25
-25
-25
-25
-25
-25
-25
-25
-24
-24
-25
-25
-25
-25
-25
-25
-25
-25
-25
-25
-25
-25
-24
-24
-25
-25
-25
-24
-24
-24
-23
-23
-23
-23
-23
-23
-22
-22
-22
-22
-22
-22
-22
-22
-22
-22
-22
-22
-21
-21
-21
-22
-22
-22
-22
-22
-23
-23
-23
-23
-23
-23
-23
-23
-23
-23
-23
-23
-23
-23
-23
-23
-22
-22
-22
-22
-21
-21
-20
-20
-19
-20
-20
-18
-18
-18
-17
-17
-16
-16
-16
-15
-15
-13
-13
-13
-12
-12
-12
-12
-10
-10
-10
-10
-9
-9
-9
-7
-7
-7
-7
-6
-5
-5
-4
-4
-4
-3
-2
-2
-1
-1
0
1
1
1
3
3
4
5
5
6
7
7
8
8
10
10
10
12
12
13
13
15
15
16
16
17
18
19
19
20
21
22
23
24
26
26
27
28
29
30
30
32
32
33
34
35
35
37
37
39
39
40
40
41
41
42
42
42
43
43
43
44
45
45
45
45
46
46
47
47
47
48
48
49
49
49
49
50
50
50
51
50
51
51
51
52
51
51
51
51
51
51
51
51
50
50
50
49
49
49
49
49
48
48
47
46
46
45
45
45
44
43
43
42
41
40
40
39
38
37
37
35
35
34
33
33
32
31
31
30
30
29
28
27
27
26
25
24
24
23
23
22
21
20
19
19
19
17
17
15
14
14
13
12
11
11
9
8
8
6
6
6
5
4
3
3
2
1
1
0
-1
-1
-1
-2
-3
-3
-4
-5
-5
-6
-6
-7
-7
-7
-7
-8
-8
-8
-9
-9
-9
-9
-10
-10
-11
-11
-11
-12
-12
-12
-12
-13
-13
-14
-14
-15
-15
-16
-16
-17
-17
-17
-17
-18
-18
-18
-18
-18
-18
-18
-18
-18
-18
-17
-18
-18
-18
-17
-17
-17
-17
-18
-18
-18
-18
-17
-18
-18
-18
-19
-20
-20
-20
-20
-21
-21
-21
-21
-21
-22
-22
-22
-22
-21
-21
-21
-21
-21
-21
-21
-20
-20
-20
-20
-19
-19
-19
-18
-18
-18
-18
-18
-17
-17
-17
-17
-17
-17
-17
-17
-17
-16
-16
-17
-17
-17
-17
-16
-16
-17
-17
-17
-17
-16
-16
-16
-16
-16
-16
-16
-16
-15
-15
-15
-15
-14
-14
-14
-14
-13
-13
-12
-12
-11
-11
-11
-11
-10
-10
-10
-9
-8
-8
-8
-7
-7
-7
-7
-6
-6
-6
-5
-5
-5
-5
-5
-5
-5
-5
-5
-5
-5
-5
-5
-5
-4
-4
-4
-4
-4
-4
-4
-2
-2
-2
-2
-2
-2
-1
-1
-1
0
0
0
0
0
1
0
0
1
1
1
1
1
2
2
2
2
2
3
3
3
3
2
2
2
2
2
2
1
1
1
1
1
1
0
0
0
0
0
1
1
1
1
1
1
1
2
2
2
2
3
3
3
3
3
3
3
3
2
2
2
2
2
3
3
2
1
1
2
2
2
1
2
1
1
1
0
0
0
0
-1
-1
-1
-2
-2
-1
-1
-2
-2
-2
-2
-2
-2
-2
-3
-2
-2
-2
-3
-3
-3
-3
-3
-3
-3
-3
-3
-3
-4
-4
-4
-4
-4
-4
-4
-4
-4
-4
-4
-4
-4
-4
-3
-3
-3
-2
-2
-2
-3
-3
-3
-3
-3
-2
-3
-4
-4
-4
-4
-5
-5
-5
-6
-6
-6
-7
-7
-6
-6
-6
-6
-6
-5
-6
-6
-6
-5
-5
-5
-4
-5
-4
-4
-4
-4
-4
-3
-4
-4
-4
-4
-4
-4
-4
-4
-4
-4
-4
-4
-4
-3
-3
-4
-4
-4
-4
-4
-4
-4
-4
-4
-4
-3
-3
-3
-3
-3
-3
-3
-4
-4
-4
-4
-4
-4
-4
-4
-4
-4
-4
-4
-5
-5
-6
-5
-5
-6
-6
-6
-6
-7
-6
-6
-6
-6
-6
-5
-6
-6
-5
-5
-5
-5
-5
-5
-5
-5
-5
-5
-4
-4
-4
-4
-5
-5
-5
-4
-5
-5
-4
-4
-4
-4
-4
-4
-4
-4
-4
-4
-3
-3
-4
-4
-4
-5
-5
-4
-4
-3
-3
-3
-3
-2
-2
-2
-2
-2
-2
-2
-2
-1
-1
0
0
0
0
0
0
0
0
0
0
0
0
0
0
0
0
0
0
0
0
0
0
0
0
0
0
0
0
0
0
0
0
0
0
0
1
1
1
0
0
0
0
1
1
1
1
1
0
0
0
0
1
1
1
1
1
2
2
2
2
2
2
2
2
2
1
1
2
2
1
2
2
2
2
2
2
2
2
2
2
2
2
2
3
3
3
3
3
3
3
3
3
3
3
3
4
3
3
3
3
4
3
3
3
3
4
4
4
4
4
4
4
4
4
4
4
4
5
5
4
4
4
4
4
4
4
4
3
3
4
3
3
3
3
3
3
3
4
5
4
4
4
4
4
4
4
4
4
4
5
5
5
4
5
5
5
4
4
4
4
4
4
4
4
4
4
4
4
5
5
5
5
6
6
7
7
7
7
8
9
9
9
9
9
9
9
9
10
10
11
11
11
11
12
12
12
13
12
12
13
13
13
13
14
14
15
15
15
16
15
15
16
16
16
17
16
17
17
17
17
18
18
18
18
17
17
17
18
18
18
17
17
17
17
16
16
16
15
15
15
15
15
15
15
15
15
14
14
14
14
13
13
14
12
13
13
12
11
11
10
10
9
9
9
8
8
7
7
6
6
6
6
5
5
5
4
4
4
4
4
3
3
3
3
3
3
3
3
3
3
4
4
4
4
4
4
4
4
3
3
3
3
3
2
2
3
2
2
2
2
1
1
2
1
1
0
0
0
0
0
0
-1
-1
-1
0
-1
-1
-2
-2
-2
-2
-2
-2
-1
-1
-1
-2
-1
0
0
0
0
-1
-1
-1
0
0
0
0
1
2
2
2
2
2
2
2
3
3
3
3
4
4
4
4
4
4
5
4
5
5
4
5
5
4
5
5
5
6
6
7
8
10
11
13
16
19
24
29
34
40
47
54
63
73
82
93
105
117
129
141
153
164
173
181
186
191
193
194
191
187
180
172
161
149
134
117
101
82
63
44
24
5
-14
-30
-46
-60
-73
-84
-93
-101
-107
-111
-114
-116
-116
-115
-114
-112
-109
-106
-102
-97
-93
-89
-85
-81
-77
-73
-70
-67
-63
-61
-58
-55
-54
-51
-49
-48
-46
-44
-43
-41
-40
-39
-38
-36
-35
-34
-33
-32
-31
-31
-29
-28
-28
-28
-28
-27
-28
-27
-28
-27
-28
-27
-28
-27
-28
-28
-27
-28
-27
-27
-27
-27
-26
-25
-25
-24
-22
-21
-20
-19
-18
-17
-16
-14
-14
-12
-11
-9
-8
-7
-6
-5
-3
-2
-2
1
1
2
3
4
5
6
7
8
8
8
8
9
9
10
9
10
10
10
10
10
9
9
9
10
9
9
10
9
9
9
9
9
9
9
10
10
11
11
11
11
11
11
10
10
10
10
10
11
11
11
11
11
11
11
11
11
11
11
11
12
11
12
12
13
13
13
13
13
12
12
12
13
13
13
13
13
13
13
13
13
13
13
13
13
13
12
12
12
12
12
12
12
12
12
12
12
12
12
12
12
12
12
12
13
14
14
14
14
14
14
15
15
15
16
16
16
16
16
16
16
17
17
17
17
17
17
17
17
18
18
18
19
19
19
20
20
20
20
21
21
22
22
23
23
24
24
24
24
24
25
25
26
26
25
26
26
26
26
27
26
27
28
28
28
29
29
30
31
31
31
33
33
33
34
34
35
35
37
37
37
38
38
39
39
40
40
40
41
41
42
42
44
44
44
44
46
46
47
47
47
49
49
50
50
50
51
52
52
53
53
54
55
55
56
57
57
58
59
59
60
60
61
62
62
63
62
63
63
63
64
64
65
66
66
66
66
66
68
68
68
68
69
69
70
70
70
69
69
70
70
70
70
70
70
70
69
69
69
68
68
68
68
67
67
66
66
65
65
65
63
63
63
62
62
61
61
60
59
59
58
57
57
56
56
56
55
54
54
53
53
52
52
50
50
49
48
47
46
45
44
44
43
42
40
40
38
37
36
35
34
33
33
31
30
30
29
28
28
27
26
25
24
23
23
22
21
20
20
19
18
18
17
17
16
16
15
15
13
13
12
12
11
10
10
9
9
8
7
7
6
6
6
4
4
3
3
3
2
2
2
1
1
1
0
0
-1
-1
-1
-2
-2
-2
-2
-4
-4
-4
-4
-4
-4
-4
-5
-5
-6
-6
-5
-5
-5
-6
-6
-5
-5
-5
-6
-6
-6
-6
-6
-6
-6
-6
-6
-5
-6
-6
-6
-7
-7
-7
-8
-8
-7
-8
-8
-8
-8
-8
-8
-8
-9
-8
-8
-8
-9
-9
-9
-8
-8
-8
-8
-8
-8
-7
-7
-7
-7
-7
-7
-7
-7
-6
-6
-6
-6
-6
-6
-7
-7
-7
-6
-6
-7
-7
-6
-6
-7
-7
-7
-7
-6
-6
-5
-5
-5
-5
-5
-5
-3
-3
-3
-3
-3
-3
-2
-1
-1
-1
0
0
0
0
1
1
1
1
1
1
1
1
2
2
2
2
2
2
2
3
3
2
2
3
3
3
3
3
3
4
5
5
5
5
6
6
6
6
6
6
6
6
6
6
6
6
7
7
7
7
7
6
6
6
6
6
6
6
6
7
7
7
7
7
7
7
7
7
8
8
8
8
7
8
8
8
8
7
7
7
7
7
8
8
8
8
8
8
8
8
7
7
8
8
8
8
8
7
7
7
7
7
7
6
6
5
5
5
5
4
4
4
3
3
3
3
3
3
3
4
4
4
4
4
4
4
4
4
4
4
4
3
3
4
4
3
3
3
3
3
3
3
3
4
4
3
3
4
4
4
4
3
3
3
3
3
3
3
3
2
2
2
2
2
2
2
2
2
2
2
3
3
2
2
2
2
2
2
2
2
2
2
2
2
2
2
1
2
2
2
1
1
1
1
1
1
1
1
1
1
1
0
0
0
0
1
1
1
1
1
0
0
1
1
1
0
0
1
1
0
0
1
1
1
2
2
2
2
2
3
3
3
3
3
3
3
3
4
4
4
3
3
3
2
2
2
1
1
1
0
0
0
0
-1
-1
-1
-1
-1
-1
-2
-2
-2
-2
-2
-2
-2
-2
-2
-2
-1
-1
-1
-1
-1
-1
-1
-1
0
0
0
0
0
0
0
1
0
1
0
0
0
0
0
-1
-1
-1
0
-1
-1
-1
-1
0
0
-1
0
0
0
0
0
0
0
0
-1
-1
0
-1
-1
-1
-1
-1
-2
-2
-3
-3
-2
-3
-3
-3
-2
-2
-2
-3
-3
-2
-2
-1
-1
-1
-2
-1
-1
0
-1
-1
-1
-1
0
0
0
-1
-1
-1
-1
-1
-1
-1
-1
-1
-1
-1
-2
-2
-2
-2
-2
-2
-2
-2
-1
-1
-2
-2
-1
-1
-1
-1
-1
-1
0
0
0
0
0
0
0
0
0
0
0
0
0
0
0
0
0
0
-1
-1
-1
-1
-1
-1
-1
-1
-1
-1
-1
-1
-1
-2
-1
-1
-1
-1
-1
-1
-1
0
0
0
0
0
0
0
0
-1
-1
-1
-2
-2
-2
-2
-2
-3
-3
-3
-3
-3
-2
-2
-2
-2
-2
-2
-2
-1
-1
-1
-1
-1
0
1
1
1
2
2
2
2
2
2
2
3
3
3
2
2
2
3
3
3
4
3
4
4
4
5
5
5
6
7
7
8
9
8
9
9
10
10
10
11
11
12
12
12
13
12
12
12
13
13
13
13
13
13
13
13
13
13
13
13
13
13
13
13
12
12
12
12
12
12
12
11
11
11
11
11
11
9
9
9
9
8
8
7
6
5
4
4
3
2
2
1
1
1
0
-1
-1
-2
-2
-2
-2
-3
-3
-3
-3
-4
-4
-4
-4
-4
-4
-5
-5
-5
-5
-6
-6
-6
-7
-7
-7
-8
-8
-9
-8
-8
-9
-9
-9
-10
-10
-10
-10
-10
-10
-11
-11
-11
-11
-12
-11
-11
-11
-12
-12
-12
-12
-12
-12
-12
-12
-13
-13
-13
-13
-13
-13
-13
-13
-12
-12
-12
-12
-12
-12
-12
-12
-11
-11
-12
-12
-11
-11
-11
-12
-12
-11
-12
-12
-12
-11
-11
-11
-11
-11
-11
-11
-11
-11
-11
-11
-11
-11
-10
-11
-10
-11
-10
-11
-10
-10
-10
-9
-10
-10
-9
-8
-8
-8
-7
-7
-6
-5
-3
-1
0
3
6
10
14
19
25
32
38
47
55
65
76
86
98
110
122
133
145
155
163
170
174
178
178
177
173
168
158
148
136
122
106
89
71
51
32
12
-7
-27
-43
-61
-76
-89
-101
-112
-120
-127
-131
-135
-138
-138
-137
-136
-133
-131
-127
-124
-119
-115
-112
-108
-104
-100
-96
-93
-90
-86
-83
-80
-78
-76
-73
-71
-69
-68
-66
-65
-63
-62
-60
-59
-58
-56
-55
-54
-54
-53
-52
-51
-51
-51
-51
-51
-51
-51
-51
-52
-52
-52
-52
-52
-53
-53
-52
-53
-53
-52
-52
-52
-51
-50
-49
-49
-47
-46
-46
-45
-44
-43
-42
-40
-39
-38
-37
-36
-35
-33
-32
-31
-30
-29
-28
-28
-27
-25
-24
-23
-22
-21
-20
-19
-18
-17
-17
-16
-15
-14
-13
-13
-12
-12
-12
-11
-11
-11
-10
-10
-11
-11
-11
-11
-11
-11
-11
-11
-11
-12
-12
-12
-12
-13
-13
-13
-13
-13
-12
-13
-13
-13
-13
-13
-13
-14
-13
-13
-13
-13
-13
-13
-13
-13
-13
-13
-13
-12
-12
-12
-12
-12
-12
-12
-11
-11
-11
-11
-11
-12
-12
-12
-12
-12
-12
-12
-12
-13
-13
-13
-13
-13
-13
-13
-13
-12
-12
-12
-12
-12
-12
-12
-12
-12
-13
-13
-13
-13
-13
-13
-13
-13
-12
-12
-13
-13
-13
-12
-12
-12
-12
-11
-11
-10
-10
-10
-10
-9
-9
-9
-9
-8
-8
-8
-8
-8
-8
-7
-7
-7
-6
-6
-6
-6
-6
-6
-6
-6
-6
-5
-5
-5
-4
-5
-3
-3
-3
-3
-2
-1
-1
0
0
0
0
1
2
2
2
3
4
4
5
5
6
6
7
7
7
7
8
9
9
9
10
11
11
11
12
13
14
14
15
16
17
17
17
19
19
20
21
22
23
23
25
26
26
26
27
27
28
28
30
30
30
32
32
32
33
33
34
34
35
36
37
37
37
37
38
38
39
39
39
41
41
41
41
43
43
43
43
44
44
44
46
46
46
47
47
48
48
48
48
48
49
50
50
49
49
49
49
49
49
49
48
48
47
47
47
47
46
45
45
44
44
43
43
42
42
41
40
40
39
38
38
37
36
35
35
34
33
32
32
31
30
29
28
28
26
25
24
23
23
21
20
19
18
16
15
15
13
13
11
10
9
8
6
6
5
4
3
2
1
0
-1
-2
-2
-4
-4
-6
-6
-7
-7
-8
-8
-9
-10
-11
-11
-12
-13
-13
-14
-14
-14
-16
-16
-17
-17
-17
-18
-18
-19
-19
-20
-21
-21
-22
-22
-23
-23
-24
-24
-26
-26
-27
-27
-28
-28
-29
-29
-30
-30
-30
-32
-32
-32
-32
-33
-33
-33
-33
-33
-33
-33
-34
-35
-35
-35
-35
-35
-36
-36
-36
-37
-38
-38
-38
-38
-39
-39
-39
-39
-39
-39
-39
-40
-40
-40
-39
-40
-40
-39
-39
-39
-39
-39
-40
-40
-40
-40
-40
-41
-41
-42
-42
-42
-43
-43
-43
-43
-43
-43
-43
-43
-43
-43
-43
-43
-43
-43
-42
-42
-42
-42
-42
-42
-42
-43
-43
-43
-43
-43
-44
-44
-43
-43
-44
-44
-44
-43
-43
-43
-43
-43
-43
-44
-43
-43
-43
-42
-43
-43
-43
-43
-43
-43
-43
-43
-43
-43
-43
-44
-44
-44
-44
-44
-44
-45
-45
-45
-45
-45
-44
-45
-45
-45
-45
-44
-44
-44
-44
-44
-44
-44
-43
-43
-42
-42
-42
-42
-42
-42
-41
-41
-41
-41
-41
-41
-41
-41
-41
-42
-42
-42
-41
-41
-41
-41
-41
-40
-41
-41
-41
-41
-41
-41
-41
-41
-40
-40
-40
-41
-40
-40
-41
-40
-40
-41
-40
-41
-41
-41
-41
-41
-42
-42
-42
-42
-42
-43
-43
-44
-44
-44
-44
-44
-44
-45
-45
-44
-45
-46
-45
-46
-46
-46
-46
-45
-46
-46
-46
-46
-46
-46
-46
-47
-48
-48
-48
-47
-48
-48
-49
-49
-49
-49
-48
-49
-49
-49
-50
-50
-50
-50
-50
-50
-51
-51
-51
-50
-50
-50
-51
-51
-51
-51
-52
-52
-51
-52
-52
-52
-52
-52
-53
-53
-54
-53
-53
-54
-54
-54
-54
-55
-55
-55
-54
-55
-55
-55
-55
-56
-56
-55
-56
-56
-56
-56
-56
-56
-56
-56
-56
-57
-57
-56
-56
-57
-57
-56
-57
-57
-57
-57
-57
-57
-58
-58
-57
-57
-57
-57
-57
-57
-57
-58
-58
-58
-58
-58
-58
-59
-59
-59
-59
-58
-58
-58
-58
-58
-58
-58
-59
-59
-59
-58
-58
-57
-58
-58
-59
-59
-58
-58
-58
-58
-58
-59
-59
-59
-60
-60
-60
-60
-61
-61
-61
-61
-62
-62
-63
-63
-63
-63
-64
-65
-65
-65
-65
-64
-64
-65
-65
-66
-66
-66
-66
-65
-65
-65
-65
-65
-65
-65
-65
-65
-65
-65
-66
-66
-66
-66
-65
-65
-65
-65
-66
-66
-67
-67
-68
-68
-68
-68
-68
-68
-69
-69
-69
-69
-69
-69
-69
-70
-71
-71
-71
-71
-71
-70
-70
-70
-70
-70
-70
-70
-71
-70
-70
-70
-71
-71
-70
-71
-71
-71
-70
-70
-71
-71
-71
-71
-71
-73
-73
-73
-73
-74
-74
-75
-74
-74
-74
-75
-75
-75
-75
-76
-76
-76
-76
-76
-76
-76
-76
-76
-76
-77
-77
-76
-76
-77
-77
-77
-77
-77
-76
-76
-76
-75
-75
-76
-76
-76
-75
-75
-75
-75
-75
-75
-76
-76
-76
-76
-76
-76
-76
-76
-77
-78
-78
-78
-79
-79
-79
-79
-79
-80
-80
-81
-81
-81
-81
-82
-82
-82
-82
-82
-82
-83
-83
-83
-83
-82
-82
-82
-82
-82
-82
-81
-81
-81
-81
-80
-80
-80
-80
-80
-80
-80
-80
-80
-80
-80
-81
-81
-82
-82
-82
-82
-83
-84
-84
-83
-83
-83
-84
-83
-84
-84
-84
-84
-84
-84
-84
-84
-84
-84
-84
-84
-84
-85
-85
-85
-84
-85
-84
-84
-84
-84
-84
-84
-84
-83
-83
-83
-83
-83
-82
-82
-82
-82
-82
-82
-82
-82
-82
-81
-81
-81
-81
-81
-81
-81
-80
-80
-80
-80
-80
-80
-80
-80
-79
-79
-80
-80
-79
-79
-79
-78
-78
-78
-77
-77
-77
-76
-76
-76
-76
-75
-75
-74
-73
-72
-72
-71
-71
-71
-70
-69
-69
-69
-68
-67
-67
-66
-66
-66
-66
-65
-65
-64
-64
-63
-63
-63
-63
-62
-62
-61
-61
-61
-61
-61
-60
-60
-60
-61
-61
-61
-61
-62
-63
-63
-63
-64
-65
-66
-67
-68
-68
-69
-69
-70
-70
-71
-71
-72
-72
-72
-72
-73
-73
-72
-72
-72
-73
-72
-72
-72
-71
-71
-71
-71
-71
-71
-71
-72
-71
-71
-72
-72
-72
-72
-72
-72
-73
-73
-73
-74
-74
-74
-74
-74
-75
-75
-76
-76
-76
-77
-77
-76
-76
-76
-77
-78
-77
-77
-77
-77
-78
-78
-78
-78
-78
-78
-78
-78
-78
-78
-78
-78
-78
-78
-77
-77
-76
-76
-76
-76
-76
-75
-75
-75
-74
-75
-75
-75
-75
-74
-74
-74
-73
-73
-73
-72
-72
-72
-72
-71
-71
-71
-70
-70
-70
-70
-70
-69
-68
-68
-68
-68
-68
-68
-68
-68
-69
-69
-68
-69
-69
-69
-69
-69
-69
-69
-68
-68
-66
-65
-64
-62
-59
-56
-54
-50
-45
-39
-35
-28
-21
-13
-5
5
15
25
36
48
60
72
84
95
106
114
122
127
131
131
130
127
121
115
104
93
79
64
47
29
10
-10
-29
-49
-69
-88
-105
-120
-135
-147
-158
-166
-173
-179
-182
-186
-187
-187
-185
-184
-181
-177
-174
-171
-166
-162
-158
-153
-150
-146
-142
-139
-136
-133
-129
-128
-125
-123
-120
-117
-115
-114
-112
-110
-108
-107
-105
-104
-102
-101
-100
-100
-99
-98
-97
-96
-96
-95
-95
-95
-94
-95
-94
-95
-95
-95
-94
-95
-94
-95
-94
-94
-93
-94
-93
-91
-91
-89
-89
-87
-87
-85
-84
-82
-81
-80
-78
-76
-75
-74
-73
-71
-70
-69
-68
-65
-65
-64
-63
-62
-61
-59
-59
-58
-58
-57
-57
-55
-55
-54
-53
-54
-53
-52
-53
-52
-52
-52
-51
-51
-50
-50
-50
-50
-50
-50
-51
-50
-49
-49
-49
-49
-48
-48
-48
-47
-47
-47
-47
-46
-46
-45
-45
-45
-45
-45
-44
-44
-45
-45
-44
-43
-43
-44
-44
-43
-43
-43
-43
-43
-43
-43
-43
-42
-42
-42
-42
-42
-42
-42
-42
-42
-42
-42
-42
-42
-42
-42
-41
-41
-41
-41
-41
-41
-41
-41
-41
-40
-40
-39
-39
-40
-39
-39
-39
-38
-38
-37
-37
-37
-37
-37
-36
-36
-36
-35
-34
-34
-34
-34
-33
-33
-33
-33
-33
-32
-32
-32
-32
-32
-33
-33
-32
-32
-32
-33
-32
-31
-31
-31
-31
-31
-29
-29
-29
-29
-29
-28
-27
-26
-26
-25
-24
-24
-23
-23
-21
-21
-20
-20
-19
-19
-18
-17
-18
-16
-16
