# Simple Text Format
# Sampling Rate (Hz):= 1200.00
# Resolution:= 12
# Labels:= ECG	aVR
# Age:=	80
# Gender:=	Feminino
-136
-136
-137
-137
-137
-137
-137
-137
-138
-138
-138
-138
-138
-138
-138
-138
-137
-137
-137
-137
-137
-137
-137
-137
-137
-137
-137
-137
-136
-136
-136
-136
-136
-136
-136
-136
-135
-135
-136
-136
-136
-136
-136
-137
-137
-138
-138
-139
-141
-142
-142
-144
-146
-148
-150
-152
-154
-157
-159
-162
-166
-170
-173
-178
-183
-186
-190
-192
-195
-197
-198
-199
-199
-199
-197
-195
-192
-187
-183
-177
-171
-166
-159
-151
-144
-136
-129
-121
-114
-109
-103
-98
-93
-90
-87
-85
-82
-80
-80
-79
-80
-80
-81
-81
-82
-83
-85
-86
-88
-89
-90
-92
-93
-95
-97
-98
-99
-100
-101
-102
-102
-104
-104
-105
-105
-105
-107
-107
-107
-107
-107
-107
-108
-108
-108
-108
-108
-109
-108
-108
-108
-107
-106
-107
-106
-106
-105
-105
-104
-104
-103
-104
-103
-103
-103
-103
-103
-104
-105
-106
-107
-107
-108
-110
-110
-112
-112
-114
-115
-116
-118
-119
-120
-121
-121
-123
-124
-124
-125
-126
-127
-128
-128
-129
-128
-129
-130
-129
-130
-131
-130
-130
-130
-130
-130
-128
-128
-128
-128
-128
-127
-127
-127
-127
-129
-129
-130
-130
-131
-131
-132
-133
-133
-134
-134
-136
-137
-137
-138
-138
-138
-139
-139
-139
-137
-137
-137
-136
-136
-135
-135
-134
-133
-133
-133
-132
-132
-132
-132
-131
-131
-131
-131
-131
-132
-132
-133
-133
-133
-134
-134
-134
-134
-135
-135
-136
-137
-137
-137
-137
-137
-137
-138
-138
-138
-138
-138
-138
-138
-138
-138
-138
-138
-138
-137
-137
-136
-136
-137
-137
-137
-137
-137
-137
-137
-137
-136
-136
-136
-136
-136
-136
-137
-137
-137
-137
-137
-137
-137
-136
-136
-136
-136
-136
-136
-136
-136
-136
-136
-137
-136
-136
-136
-136
-136
-136
-137
-137
-137
-138
-139
-140
-140
-140
-141
-142
-142
-143
-143
-144
-144
-145
-145
-146
-146
-146
-146
-146
-147
-147
-147
-147
-148
-148
-149
-149
-149
-150
-149
-149
-149
-150
-150
-150
-150
-150
-150
-151
-151
-150
-151
-151
-152
-151
-151
-152
-152
-153
-153
-153
-154
-155
-155
-156
-156
-157
-158
-158
-159
-159
-160
-160
-161
-161
-160
-161
-161
-162
-162
-162
-163
-163
-164
-163
-164
-164
-165
-166
-165
-165
-167
-168
-168
-170
-171
-172
-173
-173
-174
-174
-175
-175
-175
-175
-176
-176
-175
-176
-176
-176
-175
-175
-175
-175
-174
-174
-174
-173
-173
-173
-173
-173
-173
-174
-173
-173
-173
-174
-174
-175
-175
-175
-175
-176
-175
-175
-174
-174
-173
-173
-173
-171
-170
-170
-169
-170
-170
-169
-168
-168
-167
-167
-166
-166
-166
-165
-166
-166
-166
-167
-167
-166
-167
-166
-166
-167
-166
-166
-165
-165
-164
-164
-164
-163
-163
-163
-162
-161
-161
-159
-158
-159
-158
-157
-157
-155
-155
-154
-154
-153
-152
-151
-151
-150
-149
-148
-147
-147
-146
-145
-145
-145
-144
-144
-143
-142
-143
-142
-141
-142
-141
-141
-141
-141
-140
-140
-140
-140
-140
-139
-139
-139
-138
-138
-139
-138
-138
-137
-137
-136
-136
-136
-136
-136
-135
-135
-135
-134
-134
-134
-133
-133
-132
-131
-132
-132
-131
-132
-131
-132
-131
-131
-130
-130
-129
-129
-129
-129
-129
-129
-130
-130
-131
-131
-130
-131
-130
-130
-129
-129
-129
-129
-129
-129
-129
-129
-128
-128
-128
-128
-128
-128
-128
-128
-127
-127
-127
-127
-127
-127
-127
-128
-128
-129
-129
-129
-129
-128
-128
-128
-128
-129
-128
-128
-128
-129
-129
-129
-129
-129
-129
-129
-129
-129
-130
-130
-131
-130
-130
-130
-130
-130
-129
-129
-130
-130
-130
-130
-130
-130
-130
-130
-129
-129
-129
-129
-129
-129
-129
-129
-129
-129
-129
-129
-130
-130
-129
-129
-129
-130
-130
-130
-130
-130
-130
-131
-131
-131
-131
-131
-132
-132
-132
-132
-133
-133
-134
-134
-134
-134
-134
-134
-134
-134
-134
-133
-134
-134
-135
-134
-135
-135
-135
-135
-135
-135
-135
-135
-135
-135
-135
-135
-135
-135
-135
-134
-134
-133
-133
-133
-134
-133
-133
-133
-133
-133
-133
-133
-132
-132
-132
-132
-133
-133
-133
-133
-134
-134
-134
-133
-133
-133
-133
-133
-134
-134
-134
-134
-134
-134
-134
-134
-135
-135
-134
-134
-134
-134
-134
-134
-134
-134
-134
-134
-134
-134
-135
-134
-134
-134
-134
-134
-133
-133
-133
-133
-133
-133
-132
-132
-132
-132
-132
-131
-131
-131
-131
-130
-130
-130
-130
-130
-130
-130
-131
-131
-131
-131
-131
-131
-132
-131
-131
-131
-130
-130
-130
-130
-130
-130
-129
-129
-129
-129
-128
-128
-128
-128
-128
-128
-128
-128
-127
-127
-128
-128
-128
-128
-129
-128
-129
-129
-129
-130
-130
-130
-130
-129
-129
-129
-130
-129
-129
-128
-128
-128
-127
-127
-127
-125
-125
-125
-125
-126
-125
-124
-124
-124
-124
-125
-124
-124
-125
-125
-125
-125
-125
-125
-125
-125
-124
-124
-124
-124
-124
-124
-124
-124
-124
-124
-125
-125
-125
-125
-125
-125
-125
-125
-125
-125
-125
-126
-127
-127
-127
-127
-127
-127
-127
-127
-127
-127
-127
-126
-126
-126
-125
-125
-125
-125
-124
-124
-124
-124
-124
-123
-122
-122
-122
-122
-122
-122
-123
-123
-123
-124
-125
-125
-126
-126
-126
-126
-127
-127
-127
-127
-127
-127
-127
-127
-125
-125
-124
-124
-124
-124
-123
-122
-122
-122
-122
-122
-122
-122
-122
-123
-122
-122
-123
-123
-123
-123
-124
-124
-124
-124
-124
-123
-123
-123
-123
-123
-122
-122
-122
-121
-121
-121
-121
-120
-120
-121
-121
-121
-121
-122
-121
-121
-121
-121
-121
-121
-122
-122
-122
-122
-122
-122
-122
-122
-122
-121
-121
-121
-120
-120
-120
-119
-119
-118
-119
-119
-119
-119
-119
-119
-120
-120
-119
-120
-120
-119
-119
-119
-119
-119
-119
-119
-120
-120
-119
-119
-120
-120
-120
-120
-119
-119
-119
-119
-119
-119
-119
-119
-119
-119
-119
-120
-120
-120
-120
-120
-120
-120
-120
-119
-119
-119
-119
-119
-119
-119
-119
-119
-119
-120
-120
-119
-119
-120
-120
-120
-120
-120
-120
-119
-120
-120
-120
-120
-120
-120
-120
-119
-119
-119
-119
-119
-119
-119
-118
-118
-118
-118
-118
-118
-117
-117
-117
-117
-117
-117
-117
-116
-116
-116
-116
-116
-116
-116
-117
-116
-116
-116
-116
-116
-116
-116
-117
-117
-117
-117
-118
-118
-118
-119
-119
-119
-119
-119
-118
-119
-119
-119
-119
-119
-119
-119
-119
-119
-119
-118
-118
-118
-118
-118
-117
-117
-118
-118
-118
-118
-118
-118
-118
-118
-118
-118
-118
-118
-118
-117
-117
-117
-117
-117
-117
-117
-117
-117
-117
-117
-117
-117
-117
-117
-117
-117
-117
-117
-117
-117
-117
-117
-118
-118
-117
-117
-117
-117
-116
-116
-116
-116
-117
-117
-117
-117
-117
-117
-117
-117
-117
-117
-118
-118
-119
-119
-118
-118
-119
-119
-119
-119
-119
-119
-118
-119
-119
-118
-117
-117
-117
-117
-117
-117
-117
-116
-116
-116
-114
-114
-115
-115
-115
-115
-114
-115
-115
-115
-115
-115
-114
-114
-115
-115
-115
-115
-115
-115
-115
-115
-116
-116
-116
-116
-116
-116
-116
-116
-116
-116
-116
-115
-115
-115
-114
-114
-114
-114
-114
-114
-114
-114
-114
-113
-113
-113
-114
-114
-115
-115
-115
-116
-116
-117
-117
-118
-118
-118
-118
-119
-119
-119
-119
-121
-121
-121
-121
-121
-121
-121
-122
-122
-122
-123
-123
-123
-123
-124
-124
-124
-125
-126
-126
-126
-126
-127
-127
-127
-127
-127
-128
-128
-129
-129
-129
-129
-128
-128
-129
-129
-129
-129
-128
-129
-129
-128
-129
-128
-128
-127
-127
-127
-126
-127
-127
-127
-127
-127
-127
-127
-126
-126
-126
-126
-126
-126
-126
-126
-125
-125
-125
-124
-123
-122
-122
-121
-121
-120
-120
-119
-119
-119
-118
-118
-117
-117
-117
-117
-117
-117
-117
-117
-117
-117
-117
-116
-116
-115
-115
-115
-116
-116
-116
-116
-116
-116
-115
-115
-115
-115
-114
-114
-114
-115
-114
-114
-114
-114
-114
-114
-113
-113
-113
-113
-112
-112
-111
-111
-111
-111
-111
-110
-110
-110
-110
-109
-109
-108
-107
-107
-107
-107
-106
-106
-107
-107
-106
-106
-107
-107
-107
-107
-108
-108
-108
-109
-109
-109
-109
-110
-110
-111
-111
-111
-111
-111
-112
-112
-112
-112
-111
-110
-110
-111
-111
-111
-111
-111
-110
-111
-110
-111
-111
-111
-111
-112
-112
-111
-111
-111
-111
-112
-112
-112
-113
-113
-113
-114
-114
-114
-114
-115
-116
-117
-119
-121
-124
-127
-130
-133
-137
-141
-146
-151
-156
-162
-166
-171
-175
-179
-182
-184
-185
-187
-187
-186
-184
-181
-178
-173
-168
-162
-155
-148
-140
-132
-124
-115
-107
-100
-93
-85
-80
-75
-71
-66
-63
-60
-57
-56
-55
-55
-54
-54
-55
-56
-58
-58
-60
-61
-63
-64
-66
-68
-69
-70
-72
-73
-74
-75
-76
-77
-79
-79
-80
-80
-82
-82
-82
-83
-83
-84
-84
-84
-84
-84
-84
-84
-83
-82
-82
-81
-80
-80
-79
-79
-79
-78
-78
-77
-77
-76
-76
-76
-77
-77
-77
-78
-79
-80
-80
-82
-83
-84
-86
-86
-88
-90
-91
-93
-95
-96
-97
-98
-99
-100
-101
-102
-102
-103
-103
-104
-105
-106
-106
-107
-107
-108
-107
-108
-108
-108
-109
-109
-110
-110
-110
-110
-110
-111
-111
-111
-111
-110
-110
-110
-110
-109
-109
-109
-110
-110
-110
-109
-109
-109
-109
-109
-109
-109
-109
-109
-110
-110
-110
-111
-111
-111
-111
-111
-111
-111
-111
-112
-112
-112
-112
-112
-112
-112
-112
-111
-111
-111
-111
-110
-110
-110
-110
-110
-110
-109
-109
-110
-110
-110
-110
-110
-110
-110
-110
-110
-111
-111
-111
-111
-111
-112
-112
-112
-112
-113
-113
-112
-112
-112
-113
-112
-112
-112
-112
-113
-113
-113
-113
-113
-113
-113
-114
-113
-113
-113
-114
-114
-114
-114
-114
-114
-115
-115
-114
-115
-114
-114
-114
-114
-114
-114
-114
-115
-115
-116
-116
-116
-117
-117
-117
-117
-117
-117
-117
-117
-118
-118
-118
-119
-119
-120
-120
-121
-121
-121
-121
-122
-122
-123
-124
-123
-124
-124
-125
-126
-126
-126
-126
-127
-127
-128
-128
-127
-128
-128
-128
-128
-128
-129
-129
-129
-130
-130
-130
-131
-131
-131
-131
-131
-132
-132
-133
-133
-134
-134
-134
-134
-135
-136
-137
-138
-139
-139
-139
-138
-139
-140
-140
-141
-142
-142
-143
-143
-143
-143
-143
-144
-144
-144
-145
-146
-145
-146
-146
-147
-146
-147
-147
-148
-148
-148
-149
-150
-151
-151
-151
-151
-152
-152
-152
-153
-153
-153
-154
-154
-155
-155
-155
-155
-155
-156
-157
-157
-157
-158
-158
-158
-158
-158
-157
-158
-158
-157
-158
-158
-158
-157
-157
-155
-154
-154
-153
-153
-152
-151
-151
-151
-151
-150
-150
-150
-150
-149
-150
-150
-150
-149
-150
-150
-150
-151
-151
-151
-151
-151
-151
-151
-150
-150
-150
-149
-149
-148
-147
-147
-147
-146
-145
-144
-143
-143
-142
-142
-141
-140
-139
-139
-138
-138
-138
-138
-137
-137
-136
-135
-134
-134
-133
-132
-131
-131
-130
-129
-130
-129
-128
-128
-127
-127
-126
-126
-125
-124
-124
-123
-123
-123
-123
-123
-123
-122
-122
-122
-122
-122
-121
-121
-120
-120
-120
-120
-119
-119
-118
-117
-117
-117
-117
-117
-116
-116
-116
-116
-115
-115
-114
-114
-114
-114
-114
-114
-114
-114
-113
-113
-114
-114
-113
-113
-112
-113
-113
-112
-112
-112
-111
-111
-110
-110
-109
-109
-109
-109
-108
-108
-108
-109
-109
-110
-109
-109
-109
-110
-109
-109
-110
-110
-110
-110
-109
-109
-109
-109
-109
-109
-109
-110
-110
-110
-110
-110
-110
-110
-110
-110
-110
-110
-110
-110
-110
-112
-112
-112
-112
-111
-111
-110
-110
-110
-110
-110
-110
-110
-110
-109
-109
-108
-108
-108
-108
-108
-107
-107
-107
-107
-107
-107
-107
-107
-107
-108
-108
-109
-109
-109
-110
-110
-110
-111
-111
-112
-112
-112
-112
-112
-112
-113
-113
-113
-113
-113
-113
-113
-113
-113
-113
-112
-112
-113
-113
-113
-112
-113
-113
-113
-113
-113
-113
-113
-112
-112
-112
-112
-111
-111
-111
-112
-112
-112
-112
-113
-112
-112
-113
-113
-113
-114
-114
-114
-114
-115
-115
-115
-115
-115
-115
-115
-116
-115
-115
-115
-115
-115
-115
-115
-115
-115
-115
-115
-114
-114
-114
-114
-114
-114
-114
-114
-114
-114
-113
-114
-114
-113
-113
-112
-113
-113
-113
-114
-113
-113
-114
-113
-113
-112
-112
-112
-112
-112
-112
-112
-111
-112
-111
-111
-112
-111
-111
-112
-112
-112
-112
-111
-111
-111
-111
-112
-112
-112
-112
-112
-112
-112
-111
-111
-110
-110
-110
-109
-109
-109
-108
-108
-108
-108
-108
-107
-107
-106
-106
-107
-107
-108
-108
-108
-109
-109
-110
-110
-110
-110
-110
-111
-111
-112
-112
-112
-112
-113
-112
-112
-113
-112
-112
-112
-112
-112
-112
-112
-112
-111
-111
-112
-110
-110
-110
-110
-110
-110
-110
-110
-109
-109
-109
-108
-108
-108
-107
-107
-107
-108
-108
-108
-108
-108
-108
-106
-107
-107
-107
-108
-108
-108
-108
-109
-109
-109
-109
-109
-109
-109
-109
-109
-109
-109
-109
-109
-109
-109
-109
-110
-110
-109
-110
-110
-110
-110
-111
-111
-111
-112
-112
-112
-112
-112
-112
-111
-111
-111
-111
-112
-112
-111
-111
-111
-111
-109
-109
-109
-108
-108
-108
-108
-108
-107
-107
-106
-106
-106
-106
-106
-106
-106
-106
-105
-105
-105
-106
-106
-106
-107
-107
-107
-107
-107
-108
-108
-108
-109
-109
-110
-110
-110
-110
-110
-110
-110
-110
-110
-110
-110
-110
-110
-110
-109
-110
-109
-109
-108
-108
-108
-109
-108
-108
-108
-108
-108
-108
-107
-107
-107
-108
-108
-108
-108
-108
-108
-108
-107
-107
-107
-107
-107
-107
-107
-108
-108
-108
-108
-108
-108
-108
-108
-108
-107
-107
-107
-107
-108
-108
-108
-108
-108
-108
-107
-107
-107
-108
-108
-108
-108
-108
-108
-108
-108
-108
-108
-108
-108
-109
-110
-110
-110
-110
-109
-109
-109
-110
-110
-109
-109
-109
-110
-110
-110
-109
-109
-109
-108
-108
-108
-108
-108
-108
-108
-107
-107
-107
-107
-106
-106
-106
-106
-106
-105
-105
-105
-105
-105
-105
-106
-106
-106
-105
-105
-106
-106
-107
-107
-108
-108
-109
-109
-110
-110
-110
-110
-110
-110
-111
-111
-111
-111
-110
-110
-111
-111
-111
-110
-110
-110
-109
-109
-109
-109
-108
-108
-108
-108
-107
-107
-107
-106
-106
-106
-106
-106
-106
-106
-105
-105
-105
-106
-106
-105
-106
-106
-105
-105
-105
-106
-106
-106
-106
-106
-106
-106
-106
-106
-107
-107
-107
-107
-108
-108
-108
-109
-109
-109
-109
-110
-110
-110
-110
-111
-110
-110
-110
-109
-109
-109
-109
-109
-109
-109
-109
-108
-108
-108
-108
-108
-107
-107
-107
-107
-107
-107
-107
-107
-107
-107
-108
-108
-108
-108
-108
-108
-109
-109
-109
-109
-109
-109
-109
-109
-109
-109
-108
-108
-108
-107
-107
-107
-108
-107
-107
-107
-107
-107
-106
-106
-107
-107
-107
-108
-108
-109
-108
-109
-109
-110
-110
-111
-111
-112
-112
-112
-113
-113
-115
-115
-115
-115
-116
-116
-116
-117
-117
-117
-118
-118
-117
-117
-118
-118
-118
-118
-118
-118
-118
-118
-118
-118
-119
-119
-119
-119
-120
-119
-120
-120
-120
-121
-121
-121
-122
-122
-123
-123
-125
-125
-125
-124
-124
-123
-123
-123
-123
-123
-123
-123
-122
-121
-121
-121
-120
-120
-119
-119
-119
-119
-119
-118
-118
-118
-117
-117
-117
-117
-117
-116
-116
-116
-115
-115
-115
-115
-114
-114
-114
-113
-113
-113
-112
-112
-112
-112
-112
-112
-111
-111
-111
-111
-110
-110
-110
-109
-109
-109
-109
-108
-108
-108
-109
-108
-108
-108
-108
-107
-106
-106
-106
-106
-106
-106
-106
-106
-106
-106
-105
-105
-105
-105
-105
-105
-104
-104
-104
-104
-104
-104
-104
-104
-104
-103
-103
-103
-103
-103
-103
-103
-103
-103
-103
-103
-103
-102
-102
-102
-102
-102
-102
-102
-102
-102
-102
-102
-102
-103
-103
-102
-103
-103
-104
-104
-104
-104
-104
-104
-104
-104
-104
-104
-105
-105
-105
-105
-104
-104
-104
-104
-105
-106
-106
-106
-106
-106
-106
-106
-106
-106
-106
-107
-108
-108
-108
-109
-109
-110
-111
-112
-114
-116
-118
-121
-124
-127
-132
-135
-140
-145
-150
-154
-158
-162
-165
-167
-169
-170
-171
-170
-170
-167
-165
-161
-156
-150
-144
-138
-131
-123
-115
-108
-99
-92
-85
-78
-73
-67
-62
-58
-55
-52
-49
-48
-47
-47
-47
-48
-49
-49
-51
-52
-54
-56
-58
-60
-62
-63
-65
-66
-67
-68
-69
-69
-71
-71
-72
-72
-72
-72
-73
-73
-73
-73
-73
-73
-74
-74
-74
-74
-74
-74
-74
-74
-74
-74
-75
-74
-74
-74
-73
-74
-73
-72
-71
-72
-71
-71
-71
-71
-72
-72
-74
-75
-76
-77
-77
-79
-80
-80
-82
-83
-85
-87
-88
-89
-90
-91
-91
-92
-93
-94
-94
-95
-97
-97
-98
-98
-99
-98
-98
-99
-100
-100
-100
-100
-101
-101
-102
-102
-102
-102
-103
-103
-102
-102
-102
-102
-102
-102
-102
-102
-102
-103
-103
-103
-103
-103
-104
-104
-104
-104
-103
-103
-103
-104
-104
-104
-104
-104
-103
-103
-103
-102
-103
-103
-102
-102
-102
-102
-102
-101
-101
-101
-101
-100
-101
-101
-101
-101
-101
-101
-101
-101
-102
-103
-103
-103
-103
-103
-103
-103
-103
-104
-103
-103
-103
-103
-103
-103
-103
-103
-103
-102
-102
-102
-102
-102
-102
-102
-102
-102
-102
-102
-102
-101
-102
-102
-102
-102
-102
-102
-102
-103
-104
-104
-103
-103
-103
-103
-103
-103
-103
-103
-103
-103
-103
-103
-104
-104
-104
-104
-104
-104
-104
-103
-103
-103
-103
-104
-104
-104
-104
-105
-105
-104
-105
-105
-105
-106
-106
-105
-106
-106
-107
-107
-107
-107
-108
-108
-109
-109
-108
-108
-109
-109
-109
-110
-110
-110
-110
-111
-111
-111
-111
-112
-112
-112
-113
-113
-113
-113
-114
-114
-115
-115
-116
-116
-116
-117
-118
-119
-120
-120
-121
-121
-122
-122
-122
-122
-122
-122
-122
-121
-122
-121
-121
-122
-121
-122
-122
-122
-122
-122
-123
-123
-124
-124
-125
-126
-127
-127
-128
-129
-129
-130
-131
-132
-132
-133
-134
-134
-135
-134
-135
-135
-136
-137
-137
-138
-138
-139
-139
-139
-139
-139
-140
-140
-141
-141
-141
-141
-141
-141
-141
-141
-141
-142
-142
-142
-141
-141
-141
-142
-141
-141
-141
-141
-140
-140
-140
-140
-140
-140
-139
-139
-139
-139
-139
-139
-138
-138
-138
-136
-136
-136
-136
-135
-135
-136
-135
-135
-135
-134
-135
-134
-134
-135
-134
-134
-133
-133
-133
-132
-131
-131
-130
-129
-128
-127
-127
-126
-125
-124
-123
-122
-122
-121
-121
-120
-119
-118
-118
-118
-118
-117
-116
-116
-116
-115
-114
-115
-114
-114
-113
-113
-113
-112
-112
-111
-112
-111
-111
-110
-109
-109
-108
-108
-107
-107
-107
-107
-106
-106
-105
-104
-103
-103
-103
-102
-102
-103
-102
-102
-102
-102
-101
-101
-100
-101
-100
-100
-99
-100
-100
-99
-98
-98
-97
-97
-97
-97
-96
-96
-96
-96
-95
-95
-94
-94
-93
-93
-93
-93
-93
-92
-92
-92
-92
-92
-92
-91
-91
-91
-91
-91
-91
-92
-92
-93
-93
-93
-93
-93
-93
-93
-93
-93
-93
-93
-93
-93
-93
-93
-93
-93
-93
-92
-91
-91
-91
-91
-91
-91
-91
-91
-90
-89
-89
-89
-89
-89
-89
-89
-89
-89
-89
-89
-89
-89
-89
-89
-91
-91
-91
-91
-91
-91
-91
-91
-91
-91
-91
-91
-91
-91
-91
-91
-91
-90
-91
-91
-91
-91
-91
-91
-91
-90
-90
-90
-91
-91
-90
-90
-90
-90
-90
-90
-90
-90
-91
-91
-91
-91
-92
-92
-93
-93
-93
-93
-93
-93
-93
-92
-93
-94
-94
-94
-94
-94
-94
-93
-93
-94
-94
-94
-93
-93
-92
-92
-92
-92
-92
-92
-92
-92
-92
-92
-91
-91
-91
-92
-92
-92
-92
-92
-91
-92
-92
-92
-93
-93
-94
-93
-93
-94
-95
-95
-94
-95
-95
-95
-95
-95
-95
-96
-96
-95
-95
-95
-95
-95
-95
-94
-94
-93
-93
-93
-92
-92
-91
-90
-90
-90
-90
-89
-88
-88
-88
-88
-88
-88
-88
-87
-87
-86
-86
-86
-86
-87
-87
-87
-87
-87
-88
-88
-88
-88
-88
-89
-88
-88
-88
-88
-88
-88
-88
-87
-87
-87
-87
-87
-87
-87
-87
-87
-87
-88
-88
-88
-88
-88
-88
-88
-89
-89
-88
-88
-88
-87
-87
-87
-87
-87
-86
-86
-86
-86
-86
-86
-86
-85
-85
-85
-86
-85
-85
-85
-85
-86
-86
-85
-84
-84
-84
-85
-84
-84
-84
-84
-85
-85
-84
-84
-84
-84
-83
-83
-83
-83
-83
-83
-83
-83
-83
-83
-84
-84
-83
-83
-83
-83
-83
-84
-84
-85
-85
-84
-85
-85
-85
-85
-85
-85
-85
-85
-84
-84
-84
-84
-84
-83
-83
-83
-84
-84
-84
-84
-84
-85
-84
-84
-84
-86
-86
-86
-86
-86
-86
-86
-86
-86
-85
-85
-84
-84
-84
-83
-83
-83
-83
-81
-81
-81
-81
-81
-81
-81
-81
-82
-82
-82
-82
-82
-82
-82
-83
-83
-83
-83
-84
-84
-84
-84
-84
-84
-84
-84
-84
-84
-84
-84
-84
-84
-83
-84
-84
-84
-84
-84
-84
-84
-84
-84
-84
-84
-84
-84
-84
-84
-84
-84
-84
-84
-85
-85
-85
-86
-86
-87
-87
-88
-88
-87
-88
-88
-88
-87
-88
-88
-88
-88
-89
-89
-88
-88
-88
-88
-87
-88
-88
-88
-87
-87
-87
-87
-87
-87
-86
-87
-87
-87
-87
-87
-87
-87
-87
-86
-86
-86
-86
-86
-86
-86
-86
-85
-86
-86
-86
-86
-85
-85
-85
-86
-86
-86
-87
-87
-87
-87
-88
-88
-88
-88
-88
-88
-88
-88
-89
-89
-89
-89
-90
-89
-89
-88
-88
-88
-88
-88
-88
-88
-88
-88
-88
-88
-88
-87
-87
-87
-88
-88
-88
-89
-89
-89
-89
-89
-89
-89
-89
-89
-89
-89
-89
-89
-89
-88
-89
-89
-89
-88
-88
-88
-88
-88
-88
-88
-88
-88
-88
-89
-89
-88
-89
-89
-89
-90
-90
-89
-89
-89
-89
-89
-89
-89
-89
-89
-88
-88
-88
-88
-88
-87
-87
-87
-87
-87
-87
-86
-86
-86
-86
-86
-86
-86
-88
-88
-88
-88
-88
-89
-89
-89
-91
-91
-91
-91
-90
-91
-91
-91
-91
-91
-91
-92
-92
-92
-91
-91
-91
-91
-90
-91
-90
-90
-90
-90
-90
-90
-90
-90
-91
-91
-91
-92
-91
-92
-92
-92
-93
-93
-94
-94
-94
-95
-95
-95
-96
-96
-96
-98
-98
-98
-99
-99
-99
-99
-100
-100
-101
-101
-102
-102
-102
-102
-102
-102
-102
-103
-103
-103
-103
-103
-104
-104
-104
-104
-105
-105
-105
-106
-107
-107
-107
-108
-107
-107
-108
-107
-107
-107
-107
-106
-106
-105
-105
-104
-104
-104
-104
-103
-103
-103
-103
-103
-103
-103
-103
-103
-103
-103
-102
-103
-103
-103
-103
-103
-102
-102
-102
-102
-102
-101
-101
-100
-100
-98
-98
-98
-98
-97
-97
-97
-97
-97
-97
-97
-97
-96
-97
-97
-97
-97
-98
-98
-98
-98
-99
-99
-98
-98
-97
-97
-97
-97
-97
-97
-96
-96
-95
-95
-95
-95
-94
-94
-93
-93
-93
-92
-92
-92
-92
-93
-93
-93
-92
-92
-91
-91
-91
-91
-90
-90
-90
-90
-90
-90
-90
-89
-89
-88
-88
-88
-88
-88
-89
-89
-89
-90
-90
-90
-90
-90
-90
-90
-90
-91
-91
-91
-91
-91
-91
-91
-91
-91
-91
-92
-91
-91
-91
-91
-91
-91
-91
-92
-92
-92
-92
-91
-91
-91
-91
-91
-91
-91
-91
-91
-90
-90
-90
-90
-89
-89
-90
-90
-89
-90
-90
-91
-91
-93
-93
-95
-97
-98
-100
-103
-106
-109
-112
-117
-121
-125
-131
-135
-140
-145
-150
-154
-156
-159
-161
-162
-163
-162
-160
-158
-155
-150
-145
-140
-133
-126
-118
-110
-102
-94
-86
-78
-70
-64
-57
-51
-46
-42
-39
-36
-34
-32
-31
-30
-30
-30
-31
-33
-34
-36
-37
-39
-40
-42
-43
-44
-47
-48
-50
-52
-52
-54
-54
-56
-56
-56
-58
-58
-59
-60
-61
-62
-62
-63
-63
-63
-64
-64
-64
-64
-63
-63
-64
-63
-62
-61
-61
-59
-58
-58
-56
-56
-56
-55
-55
-54
-53
-54
-54
-54
-55
-56
-56
-58
-59
-59
-61
-63
-63
-65
-67
-69
-70
-71
-73
-74
-75
-76
-77
-78
-78
-79
-80
-80
-82
-82
-82
-83
-83
-84
-84
-85
-84
-85
-85
-85
-85
-86
-85
-86
-85
-86
-86
-86
-87
-87
-87
-86
-87
-87
-87
-86
-86
-87
-87
-87
-87
-87
-88
-88
-88
-87
-87
-88
-88
-87
-89
-89
-89
-89
-90
-90
-90
-90
-90
-90
-90
-90
-91
-91
-91
-90
-91
-90
-89
-89
-88
-88
-87
-87
-87
-86
-86
-86
-86
-86
-86
-86
-87
-87
-87
-88
-88
-88
-88
-88
-89
-89
-89
-89
-89
-89
-89
-89
-88
-88
-88
-88
-87
-87
-87
-87
-87
-87
-87
-87
-87
-88
-88
-88
-89
-89
-89
-89
-89
-90
-90
-91
-91
-91
-92
-92
-92
-92
-93
-93
-93
-94
-93
-93
-93
-93
-93
-93
-93
-93
-93
-93
-93
-93
-92
-92
-92
-92
-92
-92
-92
-92
-92
-92
-92
-93
-93
-93
-93
-92
-93
-94
-94
-96
-96
-97
-97
-98
-98
-99
-99
-99
-100
-101
-101
-101
-101
-102
-102
-102
-102
-102
-102
-102
-102
-103
-103
-102
-103
-103
-103
-104
-104
-105
-104
-105
-105
-106
-106
-107
-108
-108
-109
-109
-110
-110
-110
-111
-111
-112
-113
-113
-114
-115
-116
-116
-117
-117
-118
-118
-118
-119
-119
-120
-120
-120
-121
-121
-122
-123
-123
-123
-123
-124
-124
-125
-125
-125
-125
-126
-126
-126
-126
-126
-126
-126
-127
-126
-126
-126
-126
-126
-124
-124
-125
-125
-126
-126
-126
-126
-127
-127
-127
-127
-127
-127
-128
-128
-129
-129
-129
-130
-130
-130
-130
-130
-129
-129
-128
-128
-128
-128
-127
-127
-126
-126
-125
-126
-125
-125
-124
-123
-124
-123
-122
-122
-121
-121
-120
-120
-119
-119
-118
-117
-117
-116
-115
-115
-114
-114
-113
-113
-112
-112
-111
-110
-109
-108
-107
-106
-107
-105
-104
-104
-103
-103
-102
-103
-102
-101
-101
-101
-100
-100
-99
-100
-100
-99
-99
-99
-99
-99
-98
-98
-97
-96
-97
-96
-95
-95
-94
-94
-93
-93
-92
-92
-91
-91
-90
-90
-90
-90
-89
-90
-89
-88
-88
-87
-87
-87
-87
-86
-86
-86
-86
-86
-86
-86
-85
-85
-85
-85
-85
-86
-85
-85
-86
-86
-85
-85
-84
-84
-84
-84
-83
-83
-83
-83
-83
-82
-82
-82
-82
-82
-81
-81
-81
-81
-81
-81
-81
-81
-81
-81
-81
-81
-81
-81
-81
-81
-80
-80
-81
-81
-81
-82
-82
-82
-82
-82
-82
-81
-81
-80
-80
-80
-80
-80
-80
-80
-79
-79
-79
-79
-79
-79
-79
-79
-79
-79
-80
-80
-80
-80
-81
-81
-81
-81
-82
-83
-83
-84
-84
-84
-84
-85
-84
-84
-84
-84
-84
-84
-83
-83
-83
-83
-83
-83
-83
-83
-84
-84
-84
-84
-84
-84
-84
-85
-85
-84
-84
-85
-85
-85
-85
-85
-85
-84
-84
-84
-84
-84
-84
-84
-83
-83
-83
-83
-82
-83
-83
-82
-82
-83
-83
-83
-83
-83
-83
-84
-84
-84
-85
-85
-86
-86
-86
-87
-88
-88
-88
-88
-89
-89
-89
-89
-89
-89
-89
-89
-89
-89
-88
-88
-88
-88
-87
-87
-87
-87
-87
-86
-86
-86
-86
-86
-87
-88
-88
-88
-87
-87
-87
-87
-88
-87
-87
-87
-87
-87
-87
-86
-86
-86
-85
-85
-85
-85
-85
-85
-85
-85
-85
-85
-85
-85
-85
-85
-84
-84
-85
-85
-84
-84
-84
-84
-84
-84
-84
-84
-85
-85
-85
-85
-85
-85
-85
-86
-86
-86
-86
-86
-87
-87
-87
-87
-87
-86
-86
-86
-84
-84
-83
-84
-84
-83
-83
-82
-82
-82
-82
-81
-81
-81
-81
-81
-81
-81
-81
-81
-82
-81
-81
-82
-81
-81
-81
-81
-81
-81
-82
-82
-82
-82
-82
-82
-82
-83
-83
-83
-84
-84
-84
-84
-84
-83
-83
-83
-83
-83
-83
-83
-83
-83
-83
-83
-83
-82
-83
-82
-82
-83
-83
-82
-82
-83
-83
-83
-82
-83
-83
-83
-84
-84
-84
-84
-84
-84
-84
-83
-82
-82
-82
-82
-81
-81
-81
-81
-81
-81
-80
-80
-79
-79
-79
-80
-80
-80
-80
-80
-80
-80
-80
-80
-81
-81
-80
-80
-80
-81
-80
-80
-79
-79
-79
-79
-79
-78
-78
-78
-78
-78
-78
-78
-78
-79
-79
-80
-79
-79
-79
-79
-80
-80
-80
-80
-81
-81
-80
-81
-81
-81
-80
-80
-80
-80
-80
-80
-81
-82
-82
-82
-82
-82
-83
-83
-83
-83
-83
-83
-84
-84
-84
-85
-85
-85
-84
-84
-85
-84
-84
-84
-84
-84
-83
-83
-83
-83
-83
-82
-82
-82
-82
-82
-81
-80
-80
-79
-80
-80
-80
-80
-80
-80
-80
-80
-80
-79
-80
-80
-80
-80
-80
-80
-80
-80
-81
-81
-82
-81
-81
-82
-82
-82
-82
-82
-82
-82
-82
-81
-81
-81
-81
-81
-81
-81
-81
-81
-79
-79
-79
-78
-79
-79
-79
-79
-79
-79
-79
-78
-79
-78
-78
-78
-78
-78
-78
-78
-78
-77
-77
-77
-77
-77
-78
-78
-78
-78
-78
-78
-78
-78
-78
-78
-78
-79
-79
-79
-79
-79
-79
-79
-79
-79
-79
-79
-79
-79
-79
-79
-79
-80
-79
-79
-79
-79
-79
-78
-78
-78
-77
-77
-77
-77
-77
-77
-77
-77
-77
-76
-76
-77
-77
-77
-77
-77
-78
-78
-79
-79
-79
-79
-79
-80
-80
-80
-80
-79
-79
-79
-79
-78
-78
-79
-79
-79
-79
-79
-79
-79
-79
-80
-80
-80
-81
-81
-81
-81
-81
-82
-82
-83
-83
-83
-84
-84
-84
-83
-83
-84
-85
-85
-86
-86
-87
-88
-89
-89
-89
-89
-90
-90
-91
-91
-91
-91
-92
-92
-91
-91
-91
-91
-91
-91
-91
-91
-91
-91
-91
-91
-91
-91
-92
-91
-91
-91
-92
-92
-91
-92
-92
-91
-91
-91
-91
-91
-92
-92
-92
-92
-92
-92
-92
-91
-91
-91
-91
-90
-89
-90
-90
-89
-89
-89
-89
-88
-88
-88
-88
-87
-87
-87
-86
-85
-85
-85
-84
-84
-84
-83
-83
-83
-81
-81
-80
-79
-79
-78
-78
-77
-78
-77
-77
-77
-76
-76
-76
-76
-76
-75
-75
-75
-75
-76
-76
-75
-75
-75
-74
-74
-74
-73
-72
-72
-71
-71
-71
-71
-71
-70
-70
-70
-69
-69
-68
-67
-66
-66
-66
-66
-65
-65
-66
-66
-65
-65
-65
-64
-64
-64
-65
-65
-66
-66
-67
-67
-68
-68
-68
-69
-69
-69
-70
-70
-70
-70
-70
-70
-70
-71
-71
-71
-71
-71
-70
-70
-70
-70
-70
-71
-71
-70
-70
-70
-70
-71
-70
-70
-71
-71
-71
-72
-72
-72
-72
-71
-71
-71
-71
-71
-71
-72
-72
-73
-74
-74
-76
-77
-78
-80
-82
-85
-89
-92
-96
-100
-105
-110
-115
-120
-125
-129
-134
-137
-139
-142
-143
-143
-142
-141
-139
-136
-131
-125
-119
-113
-106
-98
-90
-82
-74
-66
-58
-51
-45
-38
-33
-28
-24
-20
-17
-14
-13
-11
-13
-12
-13
-13
-14
-14
-16
-17
-19
-21
-23
-25
-26
-27
-28
-30
-30
-32
-33
-34
-35
-36
-36
-37
-38
-38
-39
-39
-40
-41
-41
-42
-42
-43
-43
-43
-43
-42
-43
-42
-42
-42
-42
-41
-41
-40
-40
-39
-38
-37
-36
-36
-36
-36
-36
-37
-36
-36
-37
-38
-38
-40
-41
-43
-45
-47
-48
-50
-51
-53
-55
-55
-57
-59
-60
-61
-62
-63
-64
-64
-66
-66
-67
-67
-67
-67
-68
-67
-68
-67
-68
-68
-69
-68
-68
-69
-69
-70
-69
-69
-69
-69
-69
-69
-70
-70
-70
-70
-70
-70
-70
-70
-70
-70
-71
-71
-72
-71
-71
-71
-71
-71
-71
-71
-72
-72
-71
-71
-71
-70
-70
-70
-69
-69
-69
-69
-68
-67
-68
-68
-68
-69
-69
-69
-69
-69
-69
-70
-70
-70
-70
-70
-71
-71
-71
-70
-70
-70
-70
-70
-70
-69
-69
-69
-69
-68
-68
-68
-68
-68
-68
-68
-68
-68
-68
-68
-68
-69
-69
-70
-71
-71
-71
-71
-72
-72
-72
-72
-72
-73
-74
-73
-74
-74
-75
-75
-75
-76
-76
-76
-77
-76
-77
-77
-77
-77
-78
-77
-77
-77
-77
-77
-77
-77
-77
-77
-76
-76
-75
-75
-75
-75
-75
-75
-75
-75
-75
-76
-76
-76
-76
-76
-77
-78
-77
-78
-78
-79
-80
-80
-81
-80
-81
-81
-82
-82
-82
-83
-83
-84
-84
-85
-85
-86
-86
-88
-88
-89
-89
-90
-90
-90
-90
-91
-91
-92
-92
-93
-93
-92
-93
-93
-94
-93
-94
-95
-94
-95
-95
-96
-97
-97
-98
-98
-99
-99
-99
-100
-101
-101
-102
-102
-103
-104
-103
-104
-104
-104
-105
-105
-106
-105
-106
-106
-106
-106
-106
-107
-107
-108
-108
-108
-109
-109
-109
-110
-110
-110
-110
-110
-111
-111
-111
-111
-111
-112
-112
-112
-112
-112
-112
-112
-113
-113
-113
-113
-113
-113
-112
-112
-112
-112
-112
-113
-113
-113
-112
-112
-112
-111
-111
-110
-111
-110
-110
-110
-109
-110
-109
-109
-108
-108
-107
-108
-107
-107
-106
-106
-105
-106
-105
-104
-103
-103
-102
-103
-102
-101
-100
-99
-98
-97
-98
-97
-96
-96
-96
-95
-95
-94
-93
-92
-91
-92
-91
-91
-91
-90
-91
-91
-90
-89
-89
-88
-88
-87
-87
-86
-86
-85
-86
-85
-84
-84
-83
-83
-82
-82
-81
-81
-80
-80
-79
-78
-77
-78
-77
-77
-76
-76
-75
-74
-74
-73
-73
-72
-71
-71
-70
-71
-71
-71
-70
-70
-69
-69
-69
-68
-68
-68
-68
-68
-69
-69
-69
-69
-69
-69
-68
-68
-68
-68
-68
-68
-68
-68
-68
-68
-68
-69
-69
-69
-69
-68
-67
-67
-67
-67
-66
-66
-66
-66
-65
-65
-65
-65
-65
-64
-64
-64
-63
-63
-63
-63
-63
-63
-63
-64
-64
-64
-64
-64
-64
-64
-65
-65
-65
-66
-66
-66
-66
-66
-66
-67
-67
-67
-67
-67
-68
-67
-67
-67
-67
-67
-67
-66
-66
-66
-66
-66
-65
-65
-65
-65
-65
-64
-64
-64
-64
-64
-64
-64
-64
-64
-64
-64
-64
-64
-64
-63
-63
-63
-63
-63
-63
-63
-63
-63
-64
-64
-64
-65
-65
-65
-65
-66
-66
-67
-67
-67
-68
-68
-69
-70
-70
-70
-70
-71
-71
-71
-71
-72
-72
-72
-72
-72
-72
-72
-72
-72
-72
-71
-71
-71
-71
-71
-71
-71
-71
-70
-70
-70
-69
-68
-68
-68
-68
-68
-68
-68
-68
-68
-68
-68
-69
-70
-70
-70
-70
-70
-70
-70
-70
-71
-71
-71
-72
-72
-72
-72
-72
-72
-72
-72
-72
-72
-71
-71
-71
-71
-70
-70
-70
-69
-69
-68
-68
-68
-68
-67
-67
-67
-67
-67
-67
-68
-69
-69
-70
-70
-71
-71
-71
-71
-72
-72
-73
-73
-73
-73
-73
-72
-73
-73
-73
-72
-72
-72
-71
-71
-70
-70
-70
-70
-70
-70
-70
-70
-70
-70
-70
-68
-68
-68
-68
-68
-68
-68
-68
-68
-68
-68
-68
-68
-68
-68
-68
-68
-68
-68
-67
-68
-68
-68
-68
-69
-69
-68
-68
-68
-67
-67
-68
-67
-66
-66
-66
-65
-65
-65
-64
-64
-64
-64
-64
-64
-64
-64
-64
-65
-64
-65
-65
-65
-65
-66
-66
-66
-65
-66
-66
-65
-65
-66
-66
-66
-66
-67
-67
-66
-66
-65
-65
-65
-65
-65
-65
-65
-65
-65
-65
-65
-64
-64
-64
-64
-65
-65
-65
-65
-64
-65
-65
-65
-65
-65
-65
-65
-65
-65
-65
-65
-65
-65
-65
-65
-65
-65
-64
-64
-64
-65
-65
-65
-65
-65
-65
-64
-64
-64
-65
-64
-64
-65
-64
-63
-63
-64
-64
-64
-65
-65
-64
-64
-64
-64
-64
-65
-64
-64
-65
-65
-65
-66
-65
-65
-65
-64
-63
-63
-62
-62
-63
-63
-62
-61
-61
-61
-61
-61
-61
-61
-61
-62
-62
-62
-63
-63
-63
-63
-63
-64
-65
-65
-65
-65
-65
-65
-65
-66
-66
-66
-66
-66
-66
-67
-66
-66
-65
-65
-65
-65
-65
-64
-64
-63
-63
-62
-63
-63
-62
-62
-63
-63
-63
-63
-63
-63
-63
-64
-64
-64
-64
-64
-63
-64
-64
-64
-65
-64
-64
-64
-65
-65
-65
-64
-64
-65
-65
-66
-66
-66
-65
-65
-65
-66
-66
-66
-65
-66
-65
-65
-65
-65
-63
-63
-63
-63
-63
-63
-63
-63
-63
-63
-63
-63
-62
-62
-62
-62
-63
-63
-63
-63
-63
-63
-63
-63
-62
-62
-62
-62
-62
-62
-62
-62
-62
-62
-62
-62
-62
-62
-63
-63
-65
-65
-65
-65
-66
-66
-67
-69
-70
-70
-72
-72
-73
-73
-73
-73
-73
-74
-74
-74
-74
-75
-75
-75
-75
-75
-75
-74
-74
-74
-74
-73
-73
-75
-75
-75
-75
-75
-75
-75
-75
-75
-76
-76
-76
-77
-77
-77
-77
-77
-78
-78
-78
-78
-78
-78
-78
-78
-79
-79
-79
-79
-78
-78
-78
-78
-78
-78
-78
-78
-77
-77
-77
-76
-76
-76
-76
-75
-75
-75
-75
-74
-74
-74
-73
-73
-74
-74
-73
-73
-73
-72
-72
-72
-71
-70
-70
-69
-69
-68
-68
-68
-67
-67
-66
-66
-66
-65
-64
-64
-64
-63
-63
-63
-64
-63
-63
-63
-63
-64
-64
-63
-63
-63
-63
-63
-63
-63
-63
-63
-63
-62
-62
-62
-61
-61
-61
-61
-60
-59
-59
-59
-59
-59
-59
-59
-59
-58
-58
-58
-58
-58
-58
-58
-58
-58
-58
-58
-58
-57
-57
-58
-58
-58
-58
-58
-58
-58
-58
-58
-59
-59
-59
-59
-59
-61
-61
-61
-61
-62
-62
-62
-61
-61
-61
-61
-61
-61
-61
-61
-61
-61
-60
-60
-60
-60
-60
-60
-60
-60
-61
-61
-62
-62
-62
-63
-63
-63
-64
-64
-64
-64
-64
-65
-65
-66
-66
-67
-68
-69
-71
-72
-74
-78
-81
-84
-88
-92
-97
-102
-107
-112
-117
-123
-127
-130
-134
-136
-138
-139
-139
-138
-136
-132
-129
-123
-118
-111
-104
-97
-90
-81
-73
-65
-57
-50
-43
-36
-30
-25
-20
-17
-13
-11
-8
-7
-7
-7
-7
-7
-9
-9
-10
-11
-13
-15
-16
-17
-18
-20
-22
-24
-25
-27
-27
-29
-29
-31
-31
-32
-33
-33
-34
-34
-35
-36
-36
-36
-36
-37
-36
-37
-37
-36
-36
-36
-35
-35
-36
-35
-34
-34
-34
-34
-34
-33
-33
-33
-33
-32
-33
-33
-34
-34
-34
-35
-36
-37
-38
-39
-40
-41
-42
-44
-45
-47
-47
-49
-50
-52
-53
-54
-55
-55
-56
-56
-57
-58
-59
-59
-60
-61
-61
-61
-62
-62
-63
-63
-62
-63
-63
-63
-63
-63
-63
-63
-64
-64
-64
-64
-64
-65
-65
-65
-65
-65
-65
-65
-65
-65
-65
-66
-66
-66
-66
-66
-66
-66
-66
-66
-67
-67
-67
-67
-67
-67
-66
-66
-66
-66
-67
-67
-67
-67
-66
-66
-66
-65
-65
-65
-65
-66
-66
-66
-66
-66
-65
-65
-66
-66
-66
-67
-67
-66
-66
-66
-66
-67
-67
-68
-68
-68
-68
-68
-68
-68
-68
-68
-68
-67
-67
-67
-67
-67
-68
-68
-68
-68
-67
-67
-67
-67
-67
-68
-68
-68
-68
-68
-68
-69
-69
-69
-69
-69
-69
-69
-69
-70
-70
-70
-70
-70
-71
-71
-70
-71
-71
-71
-72
-73
-73
-74
-74
-74
-75
-75
-75
-76
-76
-76
-76
-76
-77
-77
-77
-77
-78
-78
-78
-79
-79
-79
-80
-80
-80
-81
-81
-81
-82
-82
-83
-84
-84
-85
-86
-85
-86
-86
-87
-87
-88
-88
-88
-88
-89
-89
-90
-89
-89
-90
-89
-89
-90
-90
-91
-91
-92
-91
-92
-93
-93
-94
-94
-94
-95
-95
-96
-97
-98
-98
-99
-100
-100
-101
-101
-102
-102
-103
-104
-104
-104
-105
-105
-106
-106
-107
-107
-107
-107
-108
-108
-109
-109
-109
-110
-110
-110
-111
-111
-111
-112
-112
-113
-114
-114
-115
-115
-116
-116
-116
-116
-116
-116
-116
-116
-116
-116
-115
-115
-116
-115
-115
-115
-115
-115
-115
-115
-115
-115
-115
-115
-115
-116
-116
-116
-116
-116
-116
-116
-116
-115
-116
-116
-115
-115
-114
-114
-113
-113
-112
-112
-111
-110
-110
-109
-107
-106
-105
-104
-104
-103
-102
-101
-101
-100
-99
-98
-97
-96
-95
-95
-94
-94
-94
-94
-93
-92
-93
-92
-92
-92
-92
-92
-92
-91
-91
-90
-91
-90
-90
-89
-89
-88
-88
-87
-86
-86
-85
-85
-84
-84
-83
-83
-83
-82
-82
-81
-81
-81
-80
-80
-80
-80
-80
-80
-79
-80
-80
-80
-79
-78
-78
-77
-78
-78
-78
-77
-77
-77
-77
-76
-76
-76
-75
-75
-75
-75
-75
-75
-75
-75
-75
-75
-75
-75
-75
-75
-75
-74
-74
-74
-73
-73
-73
-73
-72
-72
-72
-71
-71
-71
-70
-70
-70
-70
-69
-70
-70
-70
-70
-70
-70
-70
-70
-70
-71
-71
-71
-71
-71
-72
-72
-72
-72
-72
-72
-72
-72
-72
-72
-72
-72
-71
-71
-71
-71
-71
-71
-71
-71
-71
-71
-71
-71
-71
-71
-71
-71
-71
-71
-70
-70
-69
-70
-69
-69
-69
-70
-70
-70
-70
-70
-70
-71
-71
-72
-72
-72
-73
-73
-74
-75
-75
-76
-76
-77
-78
-78
-77
-78
-78
-78
-77
-77
-78
-78
-77
-76
-76
-76
-76
-76
-76
-77
-77
-77
-76
-76
-76
-77
-77
-77
-77
-77
-77
-78
-78
-78
-79
-79
-79
-79
-79
-78
-78
-78
-78
-78
-78
-79
-78
-79
-79
-79
-79
-79
-79
-79
-79
-79
-80
-80
-80
-81
-81
-81
-80
-80
-80
-80
-80
-81
-80
-80
-80
-81
-81
-81
-81
-81
-81
-81
-81
-81
-81
-81
-81
-81
-81
-81
-81
-81
-81
-81
-81
-81
-81
-81
-81
-81
-80
-80
-80
-80
-80
-79
-79
-79
-80
-80
-80
-79
-79
-79
-79
-79
-79
-79
-80
-81
-82
-81
-82
-82
-82
-83
-83
-83
-83
-84
-84
-84
-83
-82
-82
-81
-81
-81
-81
-80
-80
-79
-79
-79
-78
-78
-77
-77
-77
-77
-77
-78
-78
-78
-78
-78
-78
-78
-78
-79
-79
-79
-79
-79
-80
-80
-80
-80
-80
-79
-79
-79
-79
-79
-79
-79
-79
-79
-79
-79
-79
-79
-78
-77
-77
-78
-78
-78
-78
-78
-78
-78
-78
-78
-78
-79
-79
-79
-81
-81
-81
-81
-80
-80
-81
-80
-80
-80
-80
-80
-80
-80
-81
-81
-80
-80
-80
-80
-80
-80
-80
-80
-80
-79
-79
-79
-79
-79
-80
-80
-80
-79
-79
-78
-78
-78
-77
-78
-78
-78
-78
-79
-79
-79
-80
-80
-80
-80
-80
-80
-80
-80
-80
-80
-80
-80
-80
-80
-80
-80
-80
-80
-80
-80
-80
-79
-79
-79
-78
-79
-79
-79
-79
-79
-79
-78
-79
-79
-79
-79
-79
-79
-79
-79
-79
-79
-79
-80
-80
-80
-80
-80
-80
-79
-79
-79
-79
-79
-79
-79
-79
-80
-80
-80
-80
-80
-79
-79
-80
-80
-80
-80
-80
-80
-80
-80
-81
-81
-81
-80
-81
-81
-81
-81
-81
-81
-81
-81
-81
-81
-81
-81
-81
-81
-81
-81
-81
-81
-81
-81
-82
-82
-82
-82
-82
-82
-82
-82
-82
-82
-81
-81
-81
-82
-82
-83
-83
-83
-82
-81
-81
-81
-81
-80
-80
-80
-80
-81
-81
-82
-82
-81
-81
-81
-82
-82
-82
-82
-82
-82
-82
-82
-82
-82
-82
-82
-82
-82
-82
-82
-82
-81
-82
-82
-82
-83
-82
-82
-82
-82
-82
-82
-82
-82
-82
-82
-81
-82
-82
-82
-82
-82
-82
-82
-81
-81
-81
-82
-82
-82
-82
-82
-82
-82
-82
-83
-83
-81
-82
-82
-82
-82
-82
-81
-81
-81
-82
-82
-82
-82
-82
-82
-83
-83
-83
-84
-85
-85
-85
-85
-85
-85
-85
-84
-84
-84
-84
-84
-84
-84
-83
-82
-82
-82
-82
-81
-81
-81
-81
-82
-82
-82
-83
-83
-83
-84
-84
-84
-85
-85
-87
-86
-87
-87
-88
-89
-90
-90
-91
-92
-93
-93
-93
-94
-94
-94
-95
-95
-95
-96
-96
-95
-95
-95
-95
-95
-95
-95
-95
-95
-95
-95
-94
-94
-94
-94
-94
-95
-95
-95
-96
-96
-96
-96
-96
-97
-97
-97
-98
-98
-98
-98
-99
-99
-99
-98
-98
-97
-98
-97
-97
-97
-97
-96
-96
-95
-94
-94
-93
-93
-94
-93
-93
-92
-92
-92
-92
-91
-91
-91
-90
-90
-89
-89
-89
-89
-89
-90
-90
-90
-89
-89
-89
-88
-88
-89
-88
-88
-88
-87
-87
-87
-86
-86
-86
-86
-86
-87
-87
-87
-87
-87
-87
-87
-88
-88
-88
-88
-88
-88
-88
-88
-89
-88
-88
-88
-87
-87
-87
-87
-87
-86
-86
-87
-87
-86
-85
-85
-85
-84
-84
-84
-84
-84
-84
-83
-83
-83
-83
-83
-83
-83
-83
-83
-83
-83
-83
-83
-83
-83
-83
-83
-84
-84
-84
-84
-85
-85
-85
-86
-86
-86
-86
-87
-87
-87
-87
-87
-87
-87
-87
-87
-87
-87
-86
-86
-87
-87
-87
-87
-87
-87
-88
-88
-88
-88
-89
-89
-88
-89
-89
-89
-90
-90
-91
-91
-92
-92
-92
-92
-93
-94
-96
-97
-98
-100
-102
-105
-108
-111
-116
-119
-124
-129
-134
-139
-143
-147
-150
-154
-155
-157
-157
-156
-155
-154
-150
-147
-142
-138
-132
-125
-118
-111
-103
-96
-88
-81
-73
-67
-60
-55
-50
-46
-41
-39
-36
-36
-35
-34
-34
-35
-35
-35
-37
-38
-39
-41
-43
-45
-47
-48
-49
-51
-52
-54
-55
-57
-57
-59
-60
-60
-61
-61
-62
-62
-63
-63
-63
-63
-63
-64
-64
-64
-64
-64
-64
-64
-63
-64
-63
-62
-63
-62
-61
-62
-61
-60
-61
-61
-61
-61
-61
-61
-61
-61
-62
-62
-63
-64
-64
-65
-66
-66
-67
-67
-69
-69
-71
-71
-72
-73
-74
-75
-76
-77
-78
-79
-81
-81
-82
-83
-84
-85
-86
-88
-89
-89
-90
-90
-91
-92
-91
-92
-92
-93
-93
-93
-93
-93
-93
-93
-93
-93
-92
-93
-93
-93
-93
-93
-93
-93
-93
-93
-92
-91
-91
-91
-91
-91
-91
-91
-91
-91
-91
-91
-91
-91
-91
-91
-91
-92
-92
-92
-93
-93
-93
-94
-94
-94
-94
-94
-94
-94
-94
-94
-94
-94
-93
-93
-94
-94
-93
-93
-93
-93
-93
-93
-93
-93
-93
-92
-93
-93
-92
-93
-93
-93
-94
-94
-94
-94
-94
-94
-94
-95
-95
-95
-96
-96
-96
-96
-96
-96
-97
-97
-98
-98
-97
-97
-97
-97
-97
-97
-98
-98
-97
-97
-97
-97
-97
-97
-97
-97
-97
-97
-96
-96
-96
-96
-96
-96
-95
-95
-95
-96
-96
-97
-97
-96
-96
-96
-96
-97
-97
-98
-98
-99
-100
-100
-101
-102
-102
-103
-103
-104
-104
-105
-105
-105
-107
-107
-108
-107
-108
-108
-108
-109
-109
-109
-110
-110
-110
-110
-110
-110
-110
-111
-111
-111
-112
-112
-112
-112
-113
-113
-113
-114
-115
-115
-116
-116
-117
-117
-116
-117
-117
-118
-118
-119
-119
-119
-120
-120
-121
-121
-121
-122
-122
-122
-123
-123
-124
-124
-125
-126
-126
-128
-128
-129
-130
-129
-130
-131
-130
-131
-131
-131
-132
-132
-133
-132
-133
-133
-132
-132
-133
-133
-133
-133
-133
-133
-134
-135
-135
-135
-134
-135
-135
-135
-136
-136
-135
-136
-136
-136
-136
-136
-135
-135
-134
-135
-135
-134
-134
-134
-134
-134
-134
-134
-134
-134
-134
-133
-133
-133
-133
-133
-133
-132
-132
-132
-132
-132
-131
-131
-129
-128
-128
-127
-126
-125
-124
-125
-124
-123
-122
-121
-120
-120
-119
-119
-118
-117
-117
-116
-116
-115
-115
-115
-115
-114
-115
-115
-115
-114
-114
-113
-113
-113
-112
-111
-110
-110
-109
-109
-109
-108
-108
-108
-107
-107
-106
-105
-104
-104
-104
-103
-103
-102
-102
-102
-102
-101
-100
-100
-99
-99
-98
-98
-97
-97
-96
-96
-95
-95
-95
-94
-94
-94
-93
-92
-93
-92
-92
-91
-91
-92
-92
-93
-93
-93
-93
-93
-93
-93
-93
-93
-93
-94
-94
-94
-95
-95
-95
-95
-95
-94
-94
-94
-94
-93
-93
-92
-92
-92
-91
-91
-91
-91
-91
-90
-90
-90
-90
-90
-91
-91
-91
-91
-91
-91
-91
-92
-92
-92
-93
-93
-92
-92
-92
-93
-93
-92
-92
-92
-92
-91
-91
-92
-92
-91
-91
-92
-91
-91
-91
-92
-92
-93
-92
-93
-93
-93
-93
-93
-93
-93
-93
-92
-93
-93
-93
-93
-93
-93
-93
-93
-93
-92
-92
-92
-93
-92
-92
-92
-92
-91
-91
-92
-92
-91
-91
-91
-91
-92
-92
-92
-92
-92
-94
-93
-94
-94
-95
-95
-96
-96
-97
-98
-99
-99
-99
-100
-100
-100
-100
-101
-101
-101
-101
-101
-101
-101
-101
-101
-101
-100
-100
-101
-101
-101
-100
-100
-100
-100
-100
-100
-99
-99
-99
-99
-99
-99
-99
-99
-99
-99
-100
-99
-99
-99
-99
-99
-99
-99
-99
-98
-98
-98
-99
-98
-98
-98
-97
-97
-96
-96
-96
-96
-96
-96
-96
-96
-96
-96
-97
-97
-97
-97
-97
-98
-98
-98
-98
-99
-100
-100
-100
-100
-100
-100
-100
-99
-100
-100
-99
-99
-100
-99
-99
-98
-98
-99
-98
-98
-98
-98
-98
-98
-98
-98
-98
-97
-97
-96
-96
-96
-96
-96
-95
-95
-94
-94
-94
-93
-93
-93
-92
-92
-92
-91
-91
-90
-90
-91
-91
-91
-91
-92
-93
-93
-94
-94
-94
-96
-96
-95
-96
-95
-95
-95
-96
-96
-96
-96
-96
-96
-96
-96
-96
-95
-95
-95
-94
-94
-94
-93
-93
-94
-94
-93
-93
-93
-93
-93
-92
-92
-92
-92
-92
-92
-92
-92
-92
-91
-91
-91
-91
-91
-92
-92
-92
-92
-92
-91
-92
-92
-92
-92
-92
-92
-92
-92
-93
-92
-92
-92
-92
-92
-92
-92
-92
-91
-91
-91
-91
-91
-91
-91
-91
-91
-91
-91
-90
-90
-90
-90
-90
-90
-90
-90
-90
-90
-90
-90
-90
-90
-90
-90
-90
-90
-90
-89
-89
-89
-88
-88
-88
-88
-88
-88
-88
-88
-88
-87
-87
-87
-87
-87
-88
-88
-88
-88
-88
-89
-89
-89
-89
-90
-90
-90
-90
-90
-90
-90
-90
-90
-89
-89
-89
-89
-89
-89
-88
-88
-87
-87
-87
-86
-86
-86
-85
-85
-84
-84
-84
-83
-83
-84
-84
-83
-84
-85
-85
-84
-84
-85
-85
-85
-85
-85
-85
-85
-85
-85
-85
-85
-85
-86
-86
-86
-86
-86
-86
-86
-87
-87
-87
-87
-88
-88
-88
-88
-87
-87
-87
-87
-87
-86
-86
-86
-86
-86
-86
-85
-84
-84
-84
-84
-83
-83
-83
-82
-82
-82
-82
-82
-82
-82
-83
-83
-83
-84
-84
-84
-83
-84
-85
-85
-85
-85
-86
-86
-86
-87
-87
-87
-87
-87
-87
-87
-86
-87
-87
-87
-86
-86
-86
-86
-86
-85
-84
-84
-84
-84
-83
-84
-83
-83
-83
-82
-82
-82
-82
-82
-81
-81
-82
-82
-82
-81
-81
-82
-82
-82
-83
-83
-83
-83
-82
-82
-84
-84
-84
-84
-84
-84
-84
-83
-83
-84
-83
-83
-83
-82
-82
-82
-82
-82
-81
-81
-81
-82
-82
-82
-81
-81
-82
-82
-83
-83
-83
-83
-84
-85
-85
-86
-86
-86
-87
-87
-88
-88
-89
-89
-89
-90
-90
-90
-90
-90
-90
-91
-91
-91
-91
-91
-92
-92
-92
-92
-93
-92
-93
-93
-93
-93
-93
-93
-93
-93
-93
-93
-92
-92
-92
-92
-92
-91
-91
-91
-91
-91
-91
-91
-91
-91
-91
-91
-90
-90
-90
-89
-87
-87
-87
-87
-87
-86
-86
-86
-85
-85
-83
-83
-82
-82
-82
-81
-81
-81
-81
-82
-82
-82
-83
-83
-83
-83
-83
-84
-84
-84
-84
-85
-84
-84
-84
-83
-84
-84
-84
-84
-84
-83
-83
-83
-83
-82
-82
-82
-81
-81
-81
-81
-81
-81
-80
-80
-80
-80
-80
-78
-78
-78
-78
-77
-78
-78
-77
-77
-76
-76
-76
-75
-75
-75
-75
-75
-75
-75
-75
-75
-74
-74
-74
-74
-74
-74
-74
-74
-74
-76
-76
-76
-74
-75
-76
-76
-76
-76
-76
-75
-75
-76
-75
-75
-75
-75
-75
-74
-75
-75
-74
-74
-74
-75
-75
-74
-75
-75
-76
-76
-76
-76
-76
-77
-77
-78
-78
-79
-79
-80
-79
-80
-80
-80
-81
-81
-81
-81
-82
-82
-83
-83
-85
-86
-88
-90
-92
-94
-97
-100
-103
-107
-111
-114
-119
-123
-128
-132
-135
-138
-140
-142
-142
-142
-142
-141
-138
-135
-130
-125
-119
-114
-107
-101
-93
-86
-78
-71
-63
-57
-51
-45
-41
-36
-32
-29
-26
-25
-24
-23
-22
-22
-24
-25
-25
-27
-28
-29
-30
-31
-34
-35
-37
-38
-40
-40
-42
-43
-44
-46
-46
-48
-48
-49
-50
-51
-51
-52
-52
-53
-53
-54
-54
-54
-54
-54
-54
-54
-54
-53
-53
-52
-52
-51
-51
-51
-50
-50
-49
-48
-47
-48
-47
-46
-46
-46
-46
-47
-47
-48
-48
-49
-50
-51
-53
-55
-57
-58
-59
-61
-62
-64
-66
-67
-68
-70
-71
-73
-74
-75
-75
-77
-77
-77
-77
-78
-78
-78
-78
-78
-77
-78
-77
-77
-77
-77
-77
-77
-77
-77
-77
-77
-77
-77
-77
-77
-77
-77
-77
-77
-77
-78
-78
-78
-78
-78
-79
-79
-79
-79
-79
-79
-80
-80
-80
-80
-80
-81
-81
-81
-81
-80
-80
-80
-79
-79
-79
-79
-79
-79
-79
-79
-78
-78
-77
-77
-78
-78
-78
-79
-79
-79
-80
-80
-80
-80
-80
-81
-81
-81
-82
-81
-81
-82
-82
-82
-81
-81
-81
-81
-81
-81
-81
-81
-80
-81
-81
-81
-81
-81
-80
-81
-81
-81
-81
-81
-82
-82
-82
-82
-82
-84
-84
-84
-84
-84
-84
-83
-83
-83
-83
-83
-83
-84
-84
-84
-84
-84
-83
-83
-82
-83
-83
-83
-84
-84
-85
-85
-84
-84
-84
-84
-84
-84
-85
-85
-85
-85
-85
-85
-86
-85
-86
-86
-87
-87
-88
-88
-88
-89
-90
-90
-91
-92
-92
-93
-93
-94
-94
-94
-94
-95
-95
-95
-95
-96
-96
-97
-97
-97
-98
-98
-98
-99
-99
-99
-100
-100
-101
-101
-101
-101
-103
-103
-103
-104
-104
-105
-106
-106
-106
-106
-105
-106
-106
-107
-107
-106
-107
-107
-108
-108
-109
-108
-109
-109
-109
-109
-110
-110
-111
-112
-113
-113
-114
-115
-116
-117
-118
-118
-119
-120
-121
-121
-122
-123
-124
-124
-124
-124
-125
-125
-125
-125
-125
-125
-124
-124
-124
-123
-124
-124
-123
-123
-123
-122
-122
-122
-122
-121
-121
-122
-122
-122
-122
-122
-121
-121
-121
-121
-120
-120
-120
-120
-119
-119
-118
-118
-118
-117
-116
-115
-114
-113
-112
-112
-111
-110
-110
-109
-109
-109
-108
-108
-107
-107
-107
-107
-106
-106
-106
-105
-105
-104
-104
-104
-104
-103
-103
-101
-101
-100
-99
-99
-98
-97
-96
-96
-95
-94
-94
-94
-93
-93
-93
-92
-92
-91
-90
-90
-90
-90
-89
-89
-88
-87
-88
-87
-87
-86
-86
-85
-85
-85
-85
-84
-83
-84
-83
-82
-82
-82
-82
-81
-81
-80
-81
-80
-80
-79
-79
-78
-77
-77
-76
-76
-77
-76
-76
-76
-76
-76
-76
-76
-76
-76
-77
-77
-77
-77
-77
-77
-77
-77
-77
-77
-77
-77
-78
-78
-77
-77
-76
-75
-75
-75
-74
-74
-74
-73
-72
-72
-71
-71
-70
-70
-70
-70
-70
-69
-70
-70
-70
-70
-71
-71
-71
-72
-72
-73
-73
-73
-73
-73
-73
-73
-73
-73
-74
-74
-74
-74
-74
-74
-73
-73
-73
-74
-74
-74
-74
-74
-74
-74
-74
-74
-74
-74
-74
-74
-73
-73
-73
-72
-72
-72
-73
-73
-73
-73
-73
-73
-73
-73
-73
-74
-74
-74
-74
-74
-74
-74
-75
-75
-75
-75
-75
-76
-75
-75
-76
-76
-76
-76
-76
-77
-76
-77
-77
-77
-76
-76
-77
-77
-77
-77
-77
-77
-77
-77
-78
-78
-78
-78
-78
-78
-78
-78
-79
-79
-80
-80
-80
-80
-81
-81
-81
-81
-82
-81
-81
-82
-82
-82
-82
-82
-82
-81
-81
-81
-81
-81
-81
-81
-81
-81
-81
-80
-80
-80
-80
-80
-80
-80
-80
-80
-80
-80
-80
-81
-81
-81
-80
-80
-80
-80
-81
-81
-81
-81
-80
-80
-79
-79
-80
-80
-80
-80
-80
-80
-80
-80
-80
-80
-80
-80
-81
-81
-80
-80
-81
-81
-81
-81
-80
-80
-80
-80
-80
-80
-80
-80
-79
-79
-79
-79
-78
-78
-77
-78
-78
-77
-77
-77
-77
-76
-77
-77
-76
-76
-75
-75
-75
-75
-75
-76
-76
-76
-77
-77
-77
-78
-78
-78
-77
-78
-78
-78
-78
-78
-79
-80
-80
-79
-79
-79
-79
-79
-79
-79
-79
-79
-79
-79
-79
-78
-78
-78
-78
-78
-78
-78
-78
-77
-77
-77
-77
-77
-77
-77
-76
-76
-76
-75
-75
-75
-76
-76
-76
-76
-76
-75
-75
-76
-76
-77
-77
-78
-78
-78
-78
-78
-78
-77
-77
-77
-77
-76
-76
-76
-75
-75
-75
-74
-74
-73
-73
-74
-74
-74
-74
-74
-74
-74
-74
-74
-74
-74
-74
-74
-75
-75
-75
-74
-74
-74
-74
-74
-74
-74
-74
-74
-74
-74
-74
-74
-75
-75
-75
-75
-75
-75
-75
-75
-75
-75
-76
-76
-76
-76
-76
-75
-75
-75
-76
-76
-76
-76
-76
-75
-75
-75
-74
-74
-75
-74
-75
-75
-75
-75
-75
-75
-75
-75
-74
-74
-75
-75
-75
-76
-76
-76
-76
-77
-77
-76
-76
-77
-76
-76
-76
-76
-76
-76
-76
-76
-76
-76
-75
-75
-75
-75
-76
-76
-75
-75
-75
-75
-76
-76
-76
-76
-76
-76
-76
-76
-76
-75
-75
-75
-75
-75
-75
-75
-74
-74
-74
-74
-74
-74
-74
-73
-74
-74
-73
-73
-73
-72
-72
-72
-72
-73
-73
-73
-73
-73
-74
-74
-74
-74
-75
-75
-76
-77
-77
-77
-77
-78
-79
-79
-79
-79
-78
-78
-78
-78
-78
-77
-77
-77
-77
-77
-77
-76
-76
-76
-75
-75
-75
-74
-74
-74
-74
-74
-73
-74
-74
-74
-74
-73
-73
-72
-72
-73
-73
-73
-73
-73
-73
-73
-73
-72
-73
-73
-73
-73
-73
-73
-73
-73
-75
-75
-75
-75
-75
-75
-75
-75
-75
-75
-76
-76
-76
-75
-75
-75
-75
-74
-74
-74
-74
-74
-73
-73
-73
-73
-72
-72
-72
-72
-72
-72
-72
-72
-71
-71
-71
-72
-72
-72
-72
-72
-72
-72
-72
-72
-72
-72
-72
-72
-73
-73
-73
-73
-73
-74
-74
-74
-74
-74
-73
-73
-73
-73
-74
-75
-75
-75
-74
-74
-74
-74
-74
-74
-74
-74
-74
-74
-75
-74
-75
-76
-75
-76
-76
-77
-76
-76
-76
-77
-77
-78
-78
-78
-78
-78
-79
-80
-80
-80
-80
-80
-81
-81
-82
-82
-82
-82
-82
-83
-83
-83
-84
-84
-84
-84
-85
-85
-85
-85
-85
-86
-86
-86
-86
-86
-87
-87
-87
-86
-86
-86
-86
-86
-86
-86
-86
-86
-86
-86
-85
-85
-84
-85
-85
-84
-84
-84
-83
-83
-84
-84
-84
-84
-85
-85
-85
-85
-85
-85
-85
-84
-84
-84
-84
-83
-82
-82
-81
-81
-81
-80
-80
-79
-79
-78
-78
-76
-76
-76
-76
-76
-76
-76
-76
-75
-75
-75
-76
-76
-76
-76
-76
-77
-77
-77
-76
-76
-77
-77
-77
-77
-76
-76
-76
-76
-75
-74
-74
-73
-73
-72
-71
-71
-70
-69
-69
-69
-68
-68
-68
-68
-67
-67
-67
-67
-67
-68
-68
-68
-69
-69
-70
-70
-71
-71
-70
-70
-70
-71
-71
-71
-71
-71
-71
-70
-70
-70
-69
-69
-69
-69
-69
-69
-68
-68
-68
-68
-68
-68
-68
-68
-67
-68
-68
-68
-68
-68
-68
-68
-68
-68
-68
-67
-67
-67
-67
-68
-68
-68
-68
-69
-69
-69
-70
-70
-71
-72
-71
-72
-73
-74
-74
-74
-75
-75
-76
-76
-78
-79
-81
-82
-83
-86
-89
-92
-94
-98
-103
-106
-111
-115
-121
-126
-130
-134
-138
-140
-143
-146
-146
-145
-144
-142
-140
-135
-131
-125
-120
-113
-106
-99
-90
-82
-74
-66
-59
-52
-45
-39
-33
-29
-25
-21
-19
-16
-13
-12
-11
-11
-12
-13
-13
-14
-15
-16
-18
-20
-22
-23
-24
-25
-26
-28
-30
-30
-32
-34
-34
-36
-37
-38
-39
-40
-41
-41
-43
-43
-44
-45
-45
-45
-46
-46
-46
-45
-45
-45
-44
-45
-44
-43
-42
-42
-41
-40
-39
-38
-37
-37
-37
-37
-37
-37
-38
-39
-40
-41
-42
-42
-44
-46
-47
-49
-50
-52
-53
-55
-57
-58
-60
-61
-62
-63
-64
-64
-64
-65
-65
-65
-66
-65
-66
-66
-67
-67
-67
-67
-67
-68
-68
-68
-68
-68
-69
-69
-69
-70
-69
-69
-69
-69
-70
-70
-70
-71
-71
-70
-70
-70
-70
-70
-69
-69
-69
-70
-70
-70
-70
-70
-70
-70
-70
-69
-69
-69
-70
-71
-70
-70
-70
-70
-70
-70
-70
-71
-71
-71
-71
-71
-71
-71
-72
-71
-71
-71
-71
-71
-71
-72
-72
-72
-72
-72
-72
-72
-72
-73
-73
-73
-73
-73
-73
-73
-73
-73
-74
-74
-74
-74
-74
-74
-74
-74
-74
-73
-73
-73
-73
-73
-74
-74
-74
-74
-73
-73
-73
-73
-72
-72
-72
-73
-73
-73
-73
-73
-73
-74
-74
-74
-75
-75
-76
-76
-77
-77
-77
-77
-78
-78
-78
-78
-78
-78
-78
-78
-78
-78
-77
-77
-77
-77
-77
-77
-77
-77
-78
-78
-79
-78
-79
-79
-80
-80
-81
-81
-82
-83
-83
-83
-84
-85
-85
-86
-86
-86
-86
-87
-86
-87
-87
-88
-88
-89
-90
-89
-90
-90
-91
-91
-92
-92
-93
-94
-95
-96
-95
-96
-96
-96
-96
-96
-97
-97
-98
-98
-99
-99
-100
-100
-101
-102
-102
-102
-103
-103
-104
-105
-106
-107
-108
-107
-108
-109
-110
-111
-110
-111
-111
-111
-112
-112
-111
-112
-113
-113
-113
-113
-113
-113
-113
-113
-113
-114
-114
-115
-115
-115
-116
-116
-115
-116
-117
-116
-117
-117
-117
-118
-118
-119
-119
-118
-118
-118
-118
-118
-118
-118
-118
-118
-118
-118
-117
-118
-117
-116
-116
-116
-115
-116
-115
-115
-114
-115
-115
-114
-114
-113
-114
-114
-113
-113
-113
-113
-112
-111
-111
-110
-110
-109
-109
-109
-108
-107
-107
-106
-105
-105
-104
-104
-103
-103
-102
-102
-101
-100
-100
-99
-99
-98
-97
-97
-96
-95
-95
-94
-93
-92
-91
-91
-91
-90
-90
-89
-88
-87
-86
-86
-85
-85
-84
-84
-83
-83
-82
-82
-82
-82
-81
-82
-82
-82
-82
-81
-82
-81
-81
-80
-80
-81
-81
-80
-81
-80
-80
-80
-80
-79
-80
-79
-79
-78
-78
-78
-77
-77
-78
-78
-78
-78
-78
-78
-78
-78
-78
-78
-78
-78
-78
-78
-78
-78
-77
-77
-76
-76
-75
-75
-74
-74
-73
-73
-72
-72
-72
-72
-72
-72
-72
-72
-72
-73
-73
-74
-74
-74
-74
-75
-75
-75
-76
-76
-76
-75
-75
-75
-75
-75
-74
-73
-73
-73
-73
-71
-71
-71
-70
-69
-69
-69
-69
-69
-69
-69
-69
-69
-71
-71
-71
-71
-71
-71
-71
-72
-72
-72
-72
-72
-73
-73
-72
-73
-73
-73
-73
-73
-72
-72
-72
-72
-73
-73
-73
-72
-72
-72
-72
-73
-73
-74
-74
-74
-74
-73
-74
-74
-75
-75
-75
-75
-76
-76
-76
-78
-78
-78
-79
-78
-78
-79
-79
-79
-79
-79
-78
-78
-78
-78
-78
-78
-78
-78
-77
-77
-77
-77
-76
-76
-77
-77
-78
-78
-78
-78
-78
-77
-77
-77
-77
-77
-77
-77
-77
-77
-77
-77
-77
-77
-77
-77
-77
-77
-77
-77
-77
-77
-77
-77
-77
-77
-77
-78
-78
-78
-78
-78
-79
-78
-78
-79
-79
-79
-79
-80
-80
-80
-80
-80
-80
-80
-80
-80
-80
-80
-79
-79
-78
-78
-78
-77
-77
-76
-76
-77
-76
-76
-76
-76
-76
-76
-76
-77
-78
-78
-78
-78
-79
-79
-79
-79
-79
-79
-78
-78
-78
-78
-78
-76
-76
-75
-75
-74
-74
-73
-74
-74
-73
-74
-74
-73
-73
-74
-74
-74
-74
-76
-76
-76
-75
-76
-76
-76
-76
-76
-76
-76
-76
-76
-76
-74
-74
-74
-74
-75
-76
-76
-76
-75
-74
-74
-74
-75
-75
-75
-76
-77
-76
-76
-76
-76
-76
-76
-76
-76
-76
-76
-76
-76
-75
-75
-75
-75
-75
-74
-75
-75
-74
-74
-75
-75
-75
-74
-74
-74
-74
-75
-75
-75
-75
-75
-75
-76
-76
-76
-76
-76
-76
-75
-76
-76
-75
-75
-75
-75
-76
-75
-75
-75
-74
-74
-75
-74
-74
-74
-74
-74
-74
-74
-74
-74
-74
-74
-74
-74
-74
-73
-74
-73
-73
-73
-73
-73
-72
-73
-72
-72
-72
-72
-72
-72
-72
-72
-72
-72
-72
-72
-72
-72
-72
-72
-72
-72
-72
-72
-72
-72
-71
-71
-72
-72
-71
-71
-71
-70
-70
-70
-69
-69
-69
-69
-70
-69
-70
-70
-70
-71
-71
-71
-72
-72
-72
-73
-73
-73
-73
-73
-73
-73
-72
-73
-72
-72
-72
-72
-71
-70
-70
-69
-70
-70
-70
-70
-70
-70
-70
-71
-71
-71
-71
-71
-71
-71
-71
-71
-71
-71
-71
-71
-71
-71
-71
-71
-71
-71
-70
-70
-70
-71
-71
-71
-71
-71
-72
-72
-72
-71
-72
-72
-72
-71
-71
-71
-70
-70
-70
-69
-70
-70
-70
-70
-70
-70
-69
-69
-69
-68
-68
-68
-70
-70
-70
-70
-70
-70
-70
-70
-70
-70
-71
-71
-71
-71
-71
-71
-71
-71
-71
-71
-70
-70
-70
-70
-69
-69
-69
-69
-69
-69
-67
-67
-67
-67
-67
-67
-66
-67
-67
-67
-67
-67
-68
-67
-67
-67
-67
-67
-67
-67
-67
-67
-67
-67
-67
-68
-68
-68
-68
-68
-68
-68
-68
-68
-69
-69
-69
-69
-69
-69
-69
-69
-70
-70
-70
-71
-71
-71
-71
-71
-71
-72
-72
-72
-72
-72
-72
-72
-72
-72
-72
-72
-72
-72
-72
-73
-73
-73
-74
-74
-74
-75
-76
-76
-77
-77
-78
-78
-79
-79
-80
-81
-81
-82
-82
-83
-83
-83
-83
-83
-84
-84
-84
-84
-84
-84
-84
-84
-83
-83
-83
-82
-82
-82
-82
-81
-80
-80
-80
-79
-79
-78
-78
-77
-77
-77
-77
-77
-77
-77
-77
-77
-76
-76
-77
-76
-76
-76
-76
-76
-76
-76
-77
-77
-77
-77
-75
-75
-75
-75
-75
-75
-74
-74
-74
-73
-73
-73
-71
-71
-71
-71
-71
-71
-71
-71
-71
-70
-69
-70
-70
-70
-71
-71
-71
-71
-71
-71
-71
-71
-71
-72
-72
-72
-70
-70
-70
-70
-70
-70
-69
-69
-68
-68
-68
-68
-68
-67
-67
-66
-65
-65
-65
-65
-65
-65
-65
-64
-63
-63
-63
-62
-62
-62
-62
-62
-62
-62
-62
-62
-62
-62
-62
-62
-63
-62
-63
-64
-64
-64
-64
-63
-63
-64
-65
-65
-64
-64
-64
-64
-64
-64
-64
-64
-64
-64
-64
-64
-64
-65
-64
-65
-66
-65
-66
-66
-67
-67
-68
-69
-70
-69
-70
-70
-70
-71
-71
-71
-71
-71
-71
-72
-72
-73
-74
-75
-75
-77
-79
-81
-83
-85
-89
-92
-96
-101
-105
-110
-115
-120
-124
-129
-132
-135
-137
-139
-139
-139
-138
-137
-133
-129
-124
-119
-113
-107
-100
-92
-84
-76
-68
-61
-53
-46
-41
-35
-30
-25
-21
-18
-16
-14
-12
-13
-12
-12
-12
-13
-14
-14
-15
-17
-18
-20
-21
-23
-24
-26
-28
-29
-30
-32
-33
-34
-35
-36
-37
-39
-39
-40
-41
-41
-42
-43
-43
-44
-44
-43
-43
-43
-42
-42
-42
-42
-42
-41
-42
-41
-41
-40
-38
-38
-37
-38
-37
-37
-38
-37
-37
-37
-37
-38
-39
-39
-41
-41
-42
-44
-44
-46
-47
-49
-50
-52
-53
-54
-55
-57
-58
-59
-60
-61
-61
-63
-63
-64
-65
-67
-67
-68
-68
-69
-69
-70
-70
-71
-71
-73
-73
-73
-75
-75
-75
-74
-74
-75
-75
-75
-75
-75
-74
-74
-74
-74
-73
-73
-72
-72
-72
-71
-71
-71
-71
-71
-71
-71
-71
-71
-72
-72
-72
-73
-73
-73
-74
-74
-75
-75
-75
-76
-76
-76
-76
-76
-76
-76
-76
-75
-75
-75
-75
-75
-75
-75
-74
-74
-74
-74
-74
-73
-73
-73
-73
-72
-72
-72
-73
-73
-74
-74
-74
-74
-74
-74
-74
-74
-74
-74
-74
-75
-75
-75
-75
-77
-77
-77
-77
-77
-78
-78
-77
-77
-78
-78
-79
-79
-80
-80
-79
-80
-80
-80
-79
-80
-79
-79
-79
-79
-79
-79
-79
-79
-78
-78
-78
-79
-79
-79
-79
-80
-80
-80
-81
-81
-81
-82
-82
-82
-82
-83
-83
-83
-84
-84
-84
-84
-85
-85
-85
-86
-85
-86
-86
-86
-86
-86
-87
-87
-88
-88
-87
-88
-89
-89
-90
-92
-92
-92
-93
-93
-94
-93
-94
-94
-95
-95
-96
-97
-96
-97
-98
-97
-97
-98
-97
-98
-98
-99
-99
-100
-101
-101
-101
-101
-102
-102
-103
-103
-103
-104
-104
-104
-105
-105
-106
-107
-107
-107
-107
-107
-108
-108
-109
-108
-109
-110
-111
-111
-112
-112
-113
-114
-114
-114
-115
-116
-116
-117
-117
-118
-118
-119
-119
-119
-120
-120
-119
-120
-120
-120
-120
-120
-121
-121
-120
-120
-120
-119
-119
-119
-119
-120
-120
-119
-119
-119
-118
-118
-119
-119
-118
-118
-118
-118
-118
-118
-118
-117
-117
-117
-116
-116
-115
-115
-115
-116
-115
-115
-115
-114
-113
-113
-113
-112
-112
-112
-111
-111
-111
-111
-111
-110
-110
-109
-108
-108
-107
-106
-105
-104
-103
-102
-101
-101
-99
-98
-97
-96
-95
-95
-95
-94
-93
-93
-92
-92
-92
-91
-91
-91
-91
-91
-90
-90
-90
-89
-88
-88
-87
-88
-87
-87
-86
-85
-86
-85
-84
-83
-83
-82
-82
-82
-81
-81
-80
-81
-80
-80
-80
-79
-80
-80
-80
-80
-80
-80
-80
-80
-81
-81
-81
-80
-80
-80
-80
-80
-79
-79
-79
-79
-79
-78
-78
-77
-77
-77
-77
-76
-76
-76
-76
-76
-76
-76
-76
-77
-77
-77
-77
-77
-77
-77
-77
-76
-76
-76
-75
-75
-75
-75
-74
-74
-73
-73
-73
-72
-72
-72
-72
-72
-72
-72
-72
-73
-73
-73
-73
-73
-72
-72
-72
-72
-72
-73
-73
-73
-73
-73
-73
-72
-72
-72
-72
-72
-72
-73
-73
-73
-74
-74
-74
-74
-74
-74
-74
-75
-75
-75
-75
-74
-75
-75
-75
-75
-75
-75
-76
-75
-75
-75
-75
-75
-76
-76
-76
-76
-76
-76
-76
-76
-76
-76
-76
-77
-78
-78
-78
-79
-79
-79
-79
-79
-79
-79
-79
-80
-80
-80
-81
-81
-81
-81
-81
-81
-80
-80
-80
-80
-80
-80
-79
-79
-79
-79
-79
-79
-79
-79
-79
-79
-79
-80
-80
-80
-80
-80
-81
-81
-81
-82
-81
-82
-82
-83
-83
-83
-83
-82
-82
-82
-82
-81
-82
-81
-81
-80
-80
-80
-79
-80
-79
-79
-79
-78
-78
-79
-79
-78
-79
-79
-80
-81
-80
-80
-80
-81
-80
-81
-82
-82
-81
-82
-82
-81
-82
-82
-82
-82
-81
-81
-81
-81
-81
-81
-81
-81
-81
-82
-82
-82
-81
-82
-82
-82
-82
-82
-82
-81
-82
-81
-81
-80
-81
-80
-79
-79
-79
-79
-79
-78
-78
-77
-77
-76
-76
-76
-76
-76
-76
-76
-76
-76
-77
-77
-76
-76
-76
-76
-75
-75
-75
-76
-76
-76
-76
-76
-76
-75
-75
-75
-75
-74
-74
-74
-75
-75
-75
-76
-76
-76
-76
-78
-78
-78
-79
-79
-80
-80
-81
-80
-81
-81
-81
-81
-81
-82
-82
-82
-82
-81
-81
-80
-79
-78
-78
-78
-78
-78
-77
-77
-77
-77
-77
-76
-76
-76
-77
-77
-76
-76
-76
-76
-76
-76
-76
-76
-75
-75
-75
-75
-75
-74
-74
-74
-75
-74
-74
-74
-74
-74
-74
-74
-74
-74
-74
-74
-74
-74
-74
-74
-75
-75
-75
-75
-75
-76
-76
-76
-76
-75
-75
-75
-75
-75
-76
-76
-76
-76
-77
-76
-76
-77
-77
-77
-76
-77
-77
-77
-78
-77
-77
-77
-77
-77
-77
-77
-77
-76
-76
-76
-75
-76
-75
-75
-74
-74
-74
-74
-74
-73
-74
-74
-74
-74
-74
-75
-75
-75
-76
-76
-75
-75
-75
-77
-77
-77
-76
-77
-77
-77
-77
-76
-76
-76
-76
-76
-76
-75
-75
-75
-75
-75
-75
-75
-75
-75
-75
-75
-75
-75
-74
-73
-74
-74
-73
-73
-74
-74
-73
-73
-73
-73
-73
-73
-74
-74
-75
-75
-76
-77
-77
-77
-78
-79
-78
-79
-79
-79
-79
-79
-78
-78
-77
-77
-77
-77
-77
-76
-75
-75
-75
-74
-74
-74
-74
-74
-75
-74
-74
-74
-74
-74
-74
-75
-75
-75
-75
-75
-75
-75
-74
-74
-74
-74
-74
-75
-75
-75
-75
-75
-75
-75
-76
-76
-75
-75
-75
-75
-76
-75
-74
-74
-74
-74
-74
-74
-74
-74
-74
-74
-74
-74
-74
-74
-74
-73
-73
-73
-74
-74
-74
-74
-74
-74
-75
-75
-75
-76
-75
-76
-77
-77
-77
-77
-77
-77
-76
-76
-77
-78
-77
-77
-77
-77
-76
-76
-76
-75
-75
-74
-75
-74
-74
-74
-73
-73
-74
-74
-74
-73
-73
-73
-73
-73
-73
-74
-74
-74
-74
-75
-75
-75
-75
-75
-76
-75
-75
-76
-76
-76
-76
-76
-77
-77
-78
-79
-79
-80
-80
-81
-81
-81
-82
-83
-83
-84
-84
-84
-85
-85
-85
-85
-85
-86
-86
-86
-86
-85
-85
-85
-85
-86
-85
-85
-85
-85
-86
-86
-86
-86
-86
-87
-87
-87
-87
-87
-87
-87
-88
-88
-88
-88
-87
-88
-88
-87
-87
-87
-87
-86
-86
-85
-86
-86
-85
-85
-85
-85
-85
-85
-84
-84
-83
-83
-83
-83
-82
-82
-82
-82
-82
-82
-81
-81
-81
-81
-81
-80
-81
-80
-80
-80
-79
-79
-78
-79
-78
-77
-77
-77
-76
-77
-76
-76
-75
-75
-74
-74
-74
-73
-73
-73
-73
-73
-73
-73
-73
-73
-74
-73
-72
-72
-72
-72
-72
-71
-71
-70
-70
-69
-69
-68
-68
-68
-68
-68
-68
-68
-68
-68
-67
-67
-67
-67
-68
-68
-67
-67
-67
-67
-68
-68
-68
-69
-69
-69
-69
-69
-69
-69
-70
-70
-71
-71
-71
-71
-71
-70
-70
-70
-70
-70
-70
-70
-70
-70
-71
-71
-70
-70
-71
-71
-71
-71
-72
-72
-73
-73
-72
-73
-73
-73
-73
-73
-73
-73
-73
-73
-73
-73
-72
-72
-72
-72
-72
-71
-71
-72
-73
-74
-75
-77
-79
-81
-85
-87
-91
-94
-100
-104
-110
-114
-119
-123
-126
-129
-131
-133
-134
-134
-134
-132
-130
-126
-122
-118
-112
-105
-100
-92
-84
-77
-70
-62
-55
-49
-43
-37
-33
-28
-25
-22
-19
-18
-17
-17
-17
-18
-19
-19
-20
-21
-23
-25
-26
-28
-29
-30
-33
-34
-35
-37
-38
-39
-40
-41
-42
-43
-44
-44
-45
-45
-45
-46
-46
-47
-48
-48
-48
-48
-49
-49
-49
-48
-48
-47
-47
-47
-46
-46
-46
-45
-45
-44
-44
-43
-43
-42
-42
-42
-42
-42
-43
-43
-44
-44
-45
-46
-46
-47
-49
-49
-51
-52
-54
-54
-56
-57
-58
-59
-60
-62
-62
-64
-65
-65
-66
-67
-68
-69
-69
-70
-71
-71
-71
-71
-72
-71
-71
-70
-71
-71
-72
-72
-72
-73
-73
-73
-73
-73
-73
-73
-73
-75
-75
-75
-75
-75
-75
-74
-74
-74
-74
-74
-73
-73
-74
-74
-73
-73
-73
-73
-73
-72
-72
-72
-72
-72
-72
-73
-73
-73
-74
-73
-73
-73
-73
-73
-73
-74
-74
-74
-74
-74
-74
-74
-75
-75
-75
-75
-75
-74
-74
-75
-75
-75
-75
-76
-76
-76
-76
-76
-76
-76
-76
-76
-75
-75
-75
-75
-75
-74
-74
-74
-74
-75
-75
-75
-75
-75
-75
-76
-76
-77
-77
-76
-76
-76
-77
-77
-78
-78
-78
-78
-79
-79
-78
-80
-80
-81
-81
-82
-82
-83
-83
-84
-84
-84
-85
-85
-86
-85
-85
-85
-86
-86
-86
-85
-85
-84
-83
-83
-83
-83
-83
-82
-82
-82
-82
-82
-82
-82
-82
-83
-83
-83
