# Simple Text Format
# Sampling Rate (Hz):= 1200.00
# Resolution:= 12
# Labels:= ECG	 V5
# Age:=	80
# Gender:=	Feminino
-29
-29
-28
-28
-29
-29
-29
-29
-28
-28
-28
-28
-27
-27
-27
-27
-27
-27
-27
-27
-27
-26
-25
-25
-25
-25
-24
-24
-24
-24
-24
-24
-24
-24
-24
-24
-23
-23
-24
-23
-23
-22
-21
-20
-19
-17
-14
-12
-8
-4
2
8
14
22
31
41
50
61
74
88
102
117
132
149
165
180
195
208
220
229
236
241
243
242
237
231
220
208
194
176
157
137
115
92
68
45
21
0
-22
-41
-58
-74
-87
-97
-106
-112
-116
-118
-118
-116
-114
-110
-105
-100
-95
-90
-84
-78
-73
-67
-62
-58
-53
-49
-47
-44
-42
-39
-37
-35
-33
-32
-31
-30
-28
-27
-26
-25
-25
-24
-23
-22
-20
-19
-18
-17
-17
-17
-16
-16
-16
-16
-16
-16
-17
-18
-18
-19
-21
-21
-23
-23
-25
-25
-26
-28
-29
-30
-30
-31
-32
-33
-34
-34
-35
-36
-36
-36
-36
-36
-37
-36
-37
-37
-37
-37
-36
-36
-35
-34
-34
-33
-33
-32
-32
-31
-30
-29
-29
-28
-28
-27
-27
-26
-25
-25
-24
-24
-23
-23
-23
-22
-22
-22
-22
-22
-22
-22
-22
-23
-22
-23
-23
-23
-23
-23
-22
-22
-22
-22
-22
-23
-23
-22
-22
-22
-22
-22
-22
-21
-20
-21
-21
-21
-21
-20
-20
-20
-20
-20
-21
-21
-21
-21
-21
-21
-21
-21
-21
-21
-21
-21
-21
-20
-21
-21
-21
-21
-21
-21
-21
-21
-21
-21
-21
-21
-21
-21
-21
-21
-21
-21
-21
-20
-20
-20
-20
-20
-20
-19
-19
-19
-20
-20
-19
-19
-19
-19
-19
-19
-19
-18
-18
-18
-18
-17
-17
-17
-17
-16
-16
-16
-16
-16
-16
-16
-16
-16
-16
-15
-15
-15
-15
-15
-15
-15
-15
-15
-15
-14
-14
-13
-13
-13
-12
-12
-12
-11
-11
-10
-10
-10
-10
-8
-8
-8
-8
-7
-6
-6
-6
-6
-6
-6
-5
-5
-5
-5
-5
-5
-4
-4
-3
-3
-3
-2
-2
-2
-2
-1
-1
-1
0
0
0
1
1
2
2
3
3
3
4
5
5
5
5
5
7
7
7
7
8
9
9
9
10
10
11
11
12
12
13
13
14
15
15
15
17
17
17
17
18
18
18
18
19
18
19
20
20
20
21
21
21
21
22
22
22
23
23
23
25
25
26
26
26
27
27
27
27
28
28
28
28
28
28
29
29
28
28
28
28
28
27
27
27
26
25
25
25
24
23
23
23
23
23
22
22
22
20
21
20
20
20
20
19
19
19
18
18
18
18
17
17
17
16
16
16
16
15
15
14
13
13
12
12
12
11
11
10
9
9
7
7
7
6
6
5
5
5
4
4
4
4
3
3
3
3
2
2
1
1
1
0
0
0
-1
-1
-2
-2
-2
-3
-4
-5
-5
-5
-6
-6
-8
-8
-8
-8
-9
-10
-10
-11
-11
-11
-12
-12
-12
-12
-13
-13
-13
-13
-14
-14
-13
-14
-14
-14
-15
-15
-15
-16
-16
-17
-17
-18
-18
-18
-18
-18
-18
-19
-19
-19
-19
-20
-21
-20
-20
-21
-20
-20
-20
-19
-19
-19
-19
-19
-19
-19
-19
-20
-20
-20
-20
-20
-20
-20
-20
-20
-20
-20
-20
-20
-20
-20
-21
-21
-21
-21
-21
-21
-21
-22
-22
-22
-22
-22
-23
-23
-23
-23
-23
-22
-22
-22
-22
-21
-21
-22
-22
-20
-20
-20
-20
-19
-19
-18
-18
-18
-17
-17
-17
-17
-16
-16
-16
-16
-15
-15
-15
-14
-14
-14
-14
-14
-13
-13
-13
-13
-12
-11
-11
-10
-11
-11
-10
-10
-10
-10
-9
-9
-9
-8
-8
-8
-7
-7
-7
-7
-7
-7
-7
-7
-6
-6
-6
-5
-5
-5
-5
-5
-4
-4
-4
-3
-3
-3
-3
-3
-3
-3
-2
-2
-2
-2
-2
-2
-2
-1
-2
-2
-2
-1
-1
-1
-2
-2
-2
-2
-2
-2
-2
-2
-2
-2
-2
-3
-3
-3
-3
-3
-3
-3
-3
-4
-4
-4
-5
-5
-5
-6
-6
-6
-6
-5
-6
-6
-6
-6
-7
-7
-7
-7
-7
-7
-8
-7
-7
-8
-8
-8
-9
-8
-8
-8
-8
-9
-9
-9
-10
-10
-10
-10
-10
-10
-10
-10
-11
-11
-11
-11
-12
-12
-12
-12
-12
-13
-13
-13
-13
-13
-13
-13
-14
-14
-14
-14
-14
-14
-14
-14
-14
-14
-15
-14
-14
-14
-14
-14
-15
-15
-14
-14
-14
-15
-15
-15
-15
-15
-15
-15
-16
-16
-17
-17
-17
-17
-18
-18
-18
-18
-17
-17
-17
-18
-18
-18
-18
-17
-17
-18
-18
-18
-18
-18
-18
-18
-18
-18
-18
-18
-18
-18
-19
-20
-20
-19
-19
-19
-20
-20
-20
-20
-20
-20
-20
-20
-20
-21
-20
-20
-20
-20
-20
-20
-20
-20
-20
-20
-20
-22
-22
-22
-22
-22
-21
-22
-22
-22
-22
-22
-22
-23
-23
-23
-23
-23
-22
-23
-23
-23
-23
-23
-23
-23
-23
-23
-23
-23
-23
-23
-23
-23
-23
-23
-23
-23
-22
-22
-23
-23
-23
-23
-23
-23
-23
-23
-23
-23
-23
-23
-23
-23
-23
-23
-23
-23
-23
-23
-23
-22
-23
-23
-23
-23
-23
-23
-23
-23
-23
-23
-23
-23
-23
-23
-23
-24
-24
-24
-24
-24
-24
-23
-24
-24
-24
-24
-24
-24
-25
-25
-26
-26
-25
-25
-26
-26
-26
-27
-26
-26
-26
-26
-26
-26
-26
-26
-26
-26
-25
-25
-24
-24
-23
-23
-24
-23
-23
-23
-23
-23
-24
-24
-24
-24
-24
-25
-25
-26
-25
-25
-26
-26
-26
-26
-26
-26
-26
-26
-26
-26
-25
-25
-25
-25
-25
-24
-24
-24
-24
-24
-24
-24
-24
-24
-24
-24
-24
-24
-24
-24
-24
-24
-24
-24
-25
-25
-25
-25
-24
-25
-25
-25
-25
-25
-24
-25
-25
-25
-25
-25
-25
-25
-25
-25
-25
-25
-25
-25
-25
-25
-25
-26
-26
-26
-26
-26
-27
-26
-25
-25
-26
-26
-26
-26
-26
-26
-25
-25
-25
-24
-24
-24
-24
-24
-24
-23
-24
-23
-23
-23
-23
-23
-23
-23
-23
-24
-23
-23
-23
-23
-24
-23
-23
-23
-23
-23
-24
-24
-24
-24
-24
-24
-24
-24
-24
-24
-24
-25
-25
-25
-25
-25
-25
-25
-26
-25
-25
-25
-25
-24
-24
-25
-25
-25
-25
-25
-25
-25
-24
-24
-24
-24
-24
-24
-24
-24
-23
-24
-24
-25
-25
-25
-25
-25
-24
-24
-24
-24
-24
-24
-24
-25
-25
-25
-25
-25
-25
-25
-26
-25
-25
-25
-25
-25
-26
-26
-26
-26
-26
-26
-26
-26
-26
-25
-25
-25
-26
-26
-26
-26
-26
-26
-26
-26
-26
-26
-26
-26
-26
-25
-25
-25
-24
-25
-24
-24
-24
-24
-24
-24
-23
-23
-23
-23
-23
-24
-24
-24
-23
-23
-24
-24
-24
-24
-23
-24
-24
-24
-24
-24
-24
-24
-24
-24
-24
-24
-24
-24
-24
-24
-24
-24
-25
-25
-25
-25
-25
-25
-25
-25
-25
-26
-26
-26
-26
-26
-26
-24
-25
-25
-25
-24
-24
-23
-23
-23
-23
-23
-22
-22
-22
-22
-21
-21
-21
-21
-21
-20
-20
-20
-20
-19
-19
-18
-18
-17
-17
-17
-16
-16
-15
-15
-13
-13
-13
-12
-12
-11
-11
-11
-10
-10
-9
-9
-8
-8
-7
-7
-6
-6
-6
-5
-4
-4
-3
-3
-3
-2
-2
-2
-2
-2
-3
-2
-2
-3
-3
-4
-4
-5
-5
-6
-6
-7
-8
-9
-10
-10
-11
-12
-11
-12
-13
-15
-15
-16
-16
-17
-17
-18
-18
-19
-20
-21
-21
-22
-22
-22
-22
-23
-23
-24
-24
-24
-25
-25
-25
-26
-26
-26
-27
-27
-27
-27
-27
-27
-28
-28
-28
-28
-28
-27
-28
-28
-28
-29
-28
-28
-28
-28
-28
-29
-29
-29
-28
-29
-29
-29
-29
-29
-29
-29
-30
-30
-30
-30
-30
-30
-30
-31
-31
-31
-31
-31
-31
-31
-31
-31
-31
-32
-31
-32
-32
-31
-31
-31
-31
-31
-31
-31
-30
-30
-30
-30
-31
-31
-30
-30
-30
-30
-30
-30
-30
-30
-30
-30
-29
-29
-28
-28
-28
-28
-28
-28
-28
-28
-28
-28
-28
-28
-28
-28
-27
-26
-26
-26
-25
-24
-24
-21
-20
-18
-15
-12
-8
-3
2
8
15
23
32
40
51
63
75
87
102
116
131
146
162
175
188
200
210
216
222
224
224
221
216
207
196
183
168
150
129
109
87
65
42
20
-2
-21
-41
-59
-74
-87
-98
-106
-114
-118
-119
-121
-120
-117
-114
-109
-103
-98
-93
-87
-81
-76
-70
-65
-61
-56
-52
-49
-46
-43
-41
-39
-37
-36
-34
-33
-31
-30
-29
-27
-26
-25
-24
-23
-21
-19
-18
-17
-16
-17
-16
-15
-15
-16
-15
-16
-16
-16
-17
-18
-18
-19
-21
-21
-23
-24
-25
-25
-26
-28
-29
-30
-31
-32
-32
-33
-34
-34
-36
-37
-38
-38
-39
-39
-39
-40
-40
-40
-41
-41
-41
-40
-41
-40
-39
-38
-38
-37
-36
-36
-34
-34
-33
-32
-32
-32
-31
-31
-31
-30
-30
-30
-29
-29
-29
-29
-29
-29
-29
-29
-29
-29
-29
-29
-29
-29
-29
-29
-29
-29
-29
-29
-29
-29
-29
-29
-30
-29
-29
-29
-29
-29
-29
-30
-30
-30
-30
-30
-30
-30
-30
-30
-30
-29
-29
-29
-28
-28
-29
-29
-28
-28
-29
-29
-29
-28
-28
-28
-28
-29
-29
-30
-30
-30
-30
-30
-30
-30
-30
-30
-30
-30
-30
-30
-31
-30
-30
-30
-30
-29
-29
-29
-29
-29
-28
-28
-28
-28
-28
-28
-28
-28
-28
-28
-28
-27
-28
-27
-27
-27
-27
-27
-27
-27
-27
-26
-26
-26
-26
-26
-26
-26
-26
-26
-26
-26
-26
-26
-25
-25
-25
-25
-25
-25
-24
-24
-24
-24
-24
-24
-23
-23
-23
-23
-22
-22
-22
-21
-21
-21
-20
-20
-20
-20
-19
-19
-18
-18
-18
-18
-17
-17
-17
-17
-17
-16
-16
-16
-15
-15
-15
-15
-14
-14
-13
-13
-13
-12
-12
-11
-11
-10
-10
-9
-9
-9
-9
-8
-8
-8
-7
-7
-7
-7
-6
-6
-6
-6
-5
-5
-5
-4
-4
-4
-3
-3
-2
-1
-1
-1
1
1
1
2
3
3
4
4
5
6
6
7
7
7
7
7
7
8
8
8
8
8
8
8
8
9
9
9
8
8
8
9
9
9
10
10
11
11
12
12
13
13
14
14
14
15
14
14
15
15
15
16
16
15
15
15
14
14
14
14
13
13
12
12
12
12
10
10
10
10
9
9
8
8
8
8
8
8
8
7
7
7
7
6
6
5
5
5
5
4
3
3
3
2
1
1
0
0
0
-2
-2
-3
-3
-4
-4
-5
-5
-6
-6
-6
-6
-7
-7
-8
-8
-9
-8
-9
-9
-9
-9
-9
-10
-10
-11
-11
-11
-12
-13
-13
-14
-14
-14
-14
-15
-16
-16
-16
-16
-16
-16
-16
-16
-17
-17
-17
-18
-19
-19
-19
-20
-20
-20
-20
-20
-21
-21
-21
-21
-21
-22
-22
-23
-23
-23
-23
-23
-24
-24
-24
-24
-25
-25
-25
-25
-24
-24
-25
-25
-25
-26
-26
-26
-27
-27
-28
-27
-27
-28
-28
-28
-29
-29
-28
-28
-29
-29
-30
-30
-29
-29
-29
-28
-28
-28
-28
-28
-28
-28
-28
-28
-28
-28
-28
-28
-27
-27
-27
-27
-27
-27
-27
-26
-26
-26
-26
-25
-25
-25
-24
-24
-24
-23
-23
-23
-22
-22
-21
-21
-20
-20
-20
-19
-19
-19
-19
-18
-18
-18
-18
-18
-18
-18
-18
-18
-18
-18
-18
-19
-19
-18
-18
-18
-17
-17
-18
-18
-17
-17
-17
-17
-17
-17
-16
-16
-15
-15
-14
-15
-14
-14
-13
-14
-13
-13
-12
-12
-11
-11
-11
-10
-10
-10
-10
-10
-10
-9
-9
-9
-9
-9
-9
-9
-9
-9
-10
-9
-9
-9
-9
-9
-10
-10
-10
-10
-10
-10
-11
-10
-10
-10
-10
-10
-11
-11
-11
-11
-11
-11
-12
-12
-12
-11
-11
-11
-11
-11
-11
-12
-12
-12
-12
-13
-14
-14
-14
-14
-14
-14
-15
-15
-14
-15
-15
-15
-15
-15
-15
-15
-15
-15
-16
-15
-15
-15
-14
-15
-15
-14
-14
-14
-14
-15
-15
-15
-15
-15
-15
-15
-15
-15
-16
-16
-16
-16
-17
-17
-17
-17
-17
-17
-18
-18
-18
-18
-18
-19
-19
-19
-19
-19
-19
-19
-19
-20
-20
-20
-20
-21
-21
-21
-21
-21
-22
-22
-22
-23
-23
-23
-23
-23
-25
-24
-24
-24
-24
-25
-26
-25
-25
-26
-26
-25
-25
-25
-25
-24
-24
-24
-24
-24
-24
-23
-23
-23
-23
-23
-23
-23
-22
-22
-22
-23
-23
-23
-23
-23
-23
-24
-24
-24
-24
-24
-24
-24
-25
-25
-25
-25
-25
-25
-25
-25
-26
-25
-25
-25
-25
-25
-25
-26
-26
-26
-26
-26
-26
-26
-26
-26
-27
-27
-27
-27
-27
-27
-27
-27
-28
-28
-28
-28
-28
-29
-29
-29
-29
-29
-29
-29
-30
-30
-30
-30
-30
-30
-30
-29
-29
-29
-29
-28
-28
-28
-28
-28
-28
-28
-27
-27
-27
-28
-27
-27
-27
-27
-27
-27
-27
-28
-28
-28
-28
-28
-28
-28
-28
-28
-28
-29
-29
-29
-29
-29
-29
-29
-29
-29
-29
-30
-29
-29
-29
-29
-29
-29
-29
-29
-29
-30
-30
-30
-29
-29
-29
-30
-30
-30
-30
-31
-31
-31
-31
-31
-31
-31
-31
-30
-30
-31
-31
-30
-30
-29
-29
-29
-29
-29
-29
-29
-29
-29
-29
-29
-29
-29
-29
-29
-28
-28
-28
-30
-30
-30
-30
-31
-31
-31
-31
-31
-30
-31
-31
-31
-31
-30
-30
-30
-31
-31
-30
-30
-30
-31
-30
-30
-30
-30
-29
-29
-29
-30
-30
-30
-30
-30
-30
-30
-30
-30
-30
-30
-29
-30
-30
-30
-30
-30
-30
-30
-30
-29
-29
-29
-29
-30
-29
-29
-30
-30
-29
-30
-30
-30
-30
-31
-30
-30
-30
-30
-30
-30
-30
-30
-30
-30
-30
-29
-29
-29
-29
-29
-29
-29
-29
-29
-30
-29
-29
-29
-31
-31
-31
-30
-30
-30
-30
-30
-30
-30
-30
-30
-30
-30
-30
-30
-30
-30
-29
-30
-30
-30
-30
-30
-30
-30
-30
-30
-30
-30
-31
-31
-31
-31
-31
-31
-30
-30
-30
-29
-30
-30
-30
-30
-30
-29
-29
-29
-30
-29
-29
-29
-29
-29
-29
-29
-29
-30
-30
-29
-29
-29
-30
-30
-30
-30
-30
-30
-31
-30
-30
-30
-30
-30
-30
-30
-31
-31
-31
-31
-31
-31
-31
-31
-31
-31
-31
-31
-31
-31
-31
-31
-31
-32
-31
-31
-31
-31
-31
-31
-30
-30
-30
-30
-30
-29
-30
-30
-30
-29
-29
-29
-29
-29
-30
-29
-29
-29
-29
-29
-29
-29
-28
-28
-27
-27
-26
-25
-25
-24
-24
-23
-23
-22
-21
-21
-20
-20
-19
-19
-18
-18
-18
-17
-17
-17
-17
-16
-16
-16
-16
-16
-15
-14
-14
-13
-13
-13
-12
-13
-12
-12
-12
-12
-11
-11
-12
-12
-12
-13
-13
-13
-14
-14
-14
-15
-16
-16
-18
-19
-20
-20
-21
-22
-22
-23
-23
-25
-25
-26
-27
-27
-28
-28
-29
-29
-29
-30
-31
-30
-31
-31
-32
-32
-31
-32
-32
-31
-32
-32
-32
-32
-32
-32
-34
-34
-34
-34
-34
-34
-34
-36
-36
-36
-36
-36
-36
-36
-37
-37
-37
-37
-37
-38
-38
-38
-38
-39
-39
-39
-39
-39
-39
-38
-39
-39
-39
-39
-40
-40
-40
-40
-40
-40
-40
-39
-39
-39
-39
-39
-39
-39
-39
-38
-38
-38
-39
-38
-38
-38
-38
-37
-37
-37
-36
-36
-36
-36
-36
-36
-36
-36
-35
-34
-35
-35
-35
-35
-35
-35
-35
-35
-34
-34
-33
-33
-33
-33
-33
-33
-34
-34
-34
-34
-34
-34
-33
-33
-32
-31
-29
-28
-26
-25
-21
-18
-14
-9
-3
3
11
19
26
36
47
59
72
86
100
115
130
146
162
176
189
202
211
219
225
226
226
224
218
211
199
186
170
152
132
111
89
65
42
19
-4
-25
-44
-62
-77
-91
-103
-112
-118
-123
-126
-127
-127
-126
-122
-118
-113
-108
-102
-97
-90
-86
-80
-75
-71
-65
-61
-58
-55
-52
-49
-47
-45
-44
-42
-40
-39
-37
-37
-36
-35
-34
-33
-31
-30
-29
-28
-28
-27
-26
-25
-25
-25
-24
-24
-23
-24
-24
-25
-25
-26
-26
-27
-28
-29
-30
-32
-32
-33
-35
-36
-36
-38
-39
-40
-40
-41
-41
-42
-43
-43
-44
-44
-44
-44
-45
-44
-45
-44
-44
-43
-43
-42
-42
-41
-40
-39
-38
-37
-37
-36
-35
-34
-33
-33
-32
-32
-31
-30
-31
-30
-30
-29
-30
-30
-29
-29
-29
-29
-29
-29
-28
-28
-28
-29
-29
-29
-29
-29
-29
-28
-28
-28
-29
-29
-29
-29
-28
-28
-28
-28
-29
-28
-28
-28
-28
-28
-28
-28
-28
-28
-28
-28
-27
-28
-28
-28
-28
-28
-28
-28
-28
-28
-28
-28
-28
-28
-28
-28
-28
-28
-28
-27
-27
-27
-27
-27
-26
-26
-26
-26
-25
-25
-26
-25
-24
-24
-24
-24
-23
-23
-23
-23
-23
-23
-23
-23
-23
-23
-24
-24
-23
-24
-24
-23
-24
-24
-24
-24
-23
-23
-23
-23
-23
-23
-22
-23
-22
-22
-22
-22
-21
-21
-21
-20
-20
-20
-20
-20
-20
-19
-18
-18
-18
-18
-18
-18
-17
-17
-17
-16
-16
-15
-15
-15
-15
-15
-14
-14
-14
-14
-14
-13
-13
-12
-12
-12
-12
-12
-11
-11
-11
-10
-10
-9
-9
-9
-9
-8
-8
-7
-7
-7
-7
-6
-6
-6
-6
-6
-6
-5
-5
-5
-5
-5
-5
-4
-4
-3
-2
-2
0
0
1
2
2
3
4
5
6
6
8
8
9
10
10
10
12
12
12
13
13
13
14
15
15
15
17
17
17
18
19
19
19
21
21
21
22
23
23
24
24
25
25
26
26
27
27
27
28
28
27
27
28
28
28
28
28
28
27
28
28
28
28
28
27
27
27
27
27
27
27
26
26
26
26
26
26
26
26
26
26
26
25
25
24
24
24
24
23
23
23
23
22
22
21
20
20
20
20
19
19
18
17
17
16
16
16
16
15
14
14
13
13
12
12
11
11
10
10
10
9
9
8
7
7
6
7
6
6
6
5
5
4
4
4
4
3
3
3
3
2
2
2
2
2
1
1
0
0
0
0
-1
-1
-1
-2
-2
-3
-3
-3
-4
-5
-5
-5
-6
-6
-5
-6
-6
-6
-7
-7
-7
-7
-8
-8
-8
-8
-9
-9
-10
-10
-10
-10
-10
-11
-11
-11
-11
-11
-11
-12
-11
-12
-13
-13
-13
-13
-13
-13
-12
-12
-12
-12
-12
-13
-13
-13
-13
-13
-13
-14
-14
-14
-14
-14
-14
-14
-15
-15
-15
-15
-15
-15
-15
-15
-15
-15
-15
-15
-15
-14
-14
-14
-14
-14
-13
-13
-13
-12
-12
-12
-12
-12
-12
-12
-12
-11
-11
-11
-11
-11
-10
-10
-10
-10
-10
-9
-9
-9
-8
-8
-7
-7
-7
-6
-6
-6
-4
-4
-4
-4
-3
-3
-3
-2
-2
-2
-1
-1
0
0
0
0
0
1
1
2
3
3
3
3
3
3
4
4
3
4
4
4
4
5
5
5
5
5
6
6
6
6
6
8
8
8
8
8
9
9
9
10
10
10
10
10
10
11
11
11
11
11
11
11
11
11
11
11
11
11
12
12
12
11
11
12
11
11
11
10
10
11
11
11
11
11
11
11
11
11
10
10
10
10
10
9
9
11
10
10
11
10
10
11
11
10
12
11
12
12
12
12
12
13
13
13
12
12
12
12
12
12
11
11
11
11
10
10
10
9
9
9
9
9
9
9
9
8
8
8
8
8
8
7
7
7
7
7
7
7
7
7
7
7
6
6
5
5
5
4
4
4
4
5
5
5
5
5
5
5
4
4
4
4
4
5
5
5
5
4
4
5
4
4
4
4
4
4
4
4
4
4
4
4
4
4
4
5
5
5
5
5
4
4
4
4
5
4
4
4
4
4
4
4
3
3
3
2
2
2
2
2
2
1
1
2
1
1
1
1
1
2
2
2
2
2
2
2
3
3
3
3
2
2
2
2
2
2
2
2
2
2
2
2
2
2
2
2
2
2
2
2
2
3
3
3
3
4
4
3
3
3
3
3
3
3
1
1
1
1
1
1
1
1
1
0
0
0
0
0
1
1
0
0
0
0
0
0
0
0
0
0
0
0
0
0
0
0
0
0
0
1
0
0
1
1
1
1
1
1
1
1
1
1
1
1
1
0
1
1
1
1
0
0
0
0
0
0
0
0
0
-1
-1
-1
-1
0
0
0
-1
0
0
0
0
1
1
1
0
1
1
1
1
1
1
2
2
2
2
2
2
1
2
2
2
2
1
1
2
2
1
1
1
0
0
0
0
0
0
0
0
0
0
0
0
-1
-1
0
0
0
1
1
1
1
1
1
1
1
1
1
1
1
2
2
2
1
1
0
0
0
0
0
0
0
0
-1
-1
-1
-1
-1
-2
-2
-1
-1
-1
-1
0
0
0
0
0
0
0
0
0
1
1
1
1
0
1
1
1
1
0
0
0
0
0
-1
0
0
0
0
0
0
1
1
1
1
1
1
1
1
1
1
1
1
1
2
2
2
1
1
1
1
1
1
1
1
1
2
2
1
0
0
0
0
0
0
0
0
0
0
0
0
-1
-1
-1
-1
-1
-1
-1
-1
0
0
0
-1
0
1
1
1
1
1
2
2
3
3
4
4
5
4
5
5
6
6
6
6
6
6
8
8
8
8
10
10
10
10
11
11
12
12
13
13
14
14
14
15
15
16
16
17
16
16
16
16
15
16
16
16
17
16
16
16
17
17
17
16
17
17
17
17
16
17
17
16
16
16
15
15
14
14
14
14
13
12
11
11
10
9
8
7
6
6
5
4
3
3
2
1
1
0
-1
-1
-1
-2
-2
-3
-3
-4
-4
-4
-3
-4
-4
-4
-5
-5
-5
-5
-4
-4
-5
-5
-4
-4
-4
-4
-4
-4
-4
-5
-5
-5
-6
-6
-6
-6
-6
-6
-6
-6
-6
-7
-7
-6
-6
-7
-7
-7
-7
-7
-7
-7
-7
-7
-7
-7
-7
-7
-8
-8
-8
-8
-8
-8
-8
-8
-8
-8
-8
-7
-8
-8
-8
-8
-8
-8
-8
-7
-7
-7
-7
-7
-7
-6
-6
-6
-6
-7
-7
-7
-6
-6
-6
-6
-6
-6
-6
-6
-7
-6
-6
-6
-6
-5
-5
-5
-4
-4
-4
-4
-3
-2
-2
-1
0
2
2
5
8
11
15
20
24
31
38
46
56
66
77
89
102
115
130
145
160
175
191
205
218
229
237
244
248
249
250
245
239
231
219
204
187
169
149
127
104
82
58
36
14
-7
-26
-41
-57
-70
-81
-90
-96
-100
-102
-102
-101
-99
-95
-91
-85
-80
-74
-68
-62
-57
-51
-45
-41
-37
-32
-29
-26
-24
-21
-19
-17
-15
-14
-13
-11
-10
-8
-6
-5
-4
-3
-1
0
1
1
2
4
5
6
7
6
7
6
7
7
6
6
5
4
3
2
1
0
-1
-2
-3
-4
-6
-7
-9
-9
-10
-12
-12
-13
-14
-16
-17
-16
-17
-17
-18
-19
-19
-18
-19
-19
-18
-18
-17
-17
-17
-16
-15
-14
-14
-12
-11
-11
-10
-10
-9
-8
-8
-7
-8
-7
-7
-6
-7
-6
-6
-6
-6
-7
-7
-7
-7
-8
-8
-8
-8
-8
-8
-8
-9
-8
-8
-8
-8
-8
-8
-8
-8
-9
-9
-9
-9
-9
-9
-9
-9
-9
-9
-9
-9
-8
-8
-8
-8
-8
-8
-8
-8
-7
-7
-7
-8
-7
-7
-7
-7
-7
-7
-7
-7
-7
-8
-8
-8
-8
-8
-8
-7
-8
-8
-8
-8
-8
-8
-8
-8
-8
-8
-8
-8
-8
-8
-8
-7
-7
-7
-7
-7
-7
-7
-8
-8
-8
-8
-7
-7
-7
-7
-7
-6
-6
-6
-6
-6
-6
-6
-5
-5
-5
-5
-5
-5
-5
-5
-3
-3
-3
-3
-4
-4
-4
-4
-3
-3
-3
-3
-3
-2
-2
-2
-2
-2
-2
-2
-2
-1
-1
-1
-1
0
0
0
0
0
0
0
0
1
2
2
3
3
3
4
4
6
6
6
6
7
8
8
9
9
10
10
11
11
11
11
11
12
12
12
14
14
14
13
14
14
14
14
14
15
15
16
16
17
17
17
18
18
18
19
20
20
21
21
22
22
23
23
25
25
25
26
27
27
27
28
28
28
28
29
30
30
31
31
31
31
32
32
33
33
33
34
34
34
34
35
35
35
36
36
36
36
36
37
37
37
37
37
37
38
37
37
37
37
38
37
37
37
37
37
37
37
37
36
36
36
36
37
37
37
36
36
36
36
35
36
35
35
34
33
33
33
32
32
30
30
29
29
29
27
27
27
25
25
25
24
24
24
23
22
22
22
21
21
20
19
19
19
19
19
17
17
17
15
15
14
14
14
13
13
13
13
12
12
12
12
11
10
10
10
10
10
9
9
9
9
7
7
7
7
7
6
5
5
4
4
4
4
3
4
3
2
3
2
2
1
1
0
0
0
0
-1
-1
-1
-1
-2
-2
-3
-3
-3
-4
-4
-5
-5
-5
-5
-5
-5
-6
-6
-6
-6
-6
-6
-6
-6
-6
-6
-7
-6
-6
-5
-5
-5
-6
-6
-6
-6
-7
-7
-6
-6
-6
-6
-6
-6
-6
-6
-6
-6
-6
-7
-7
-7
-7
-7
-7
-8
-8
-8
-8
-8
-8
-8
-8
-8
-8
-8
-8
-8
-8
-7
-7
-7
-8
-8
-8
-8
-8
-8
-7
-7
-6
-7
-7
-6
-6
-6
-6
-6
-6
-5
-5
-5
-4
-3
-3
-3
-3
-2
-2
-1
-1
-1
0
1
1
1
2
1
2
2
2
2
2
2
2
2
2
2
2
1
1
2
2
2
3
3
3
4
4
4
5
5
5
7
7
7
7
7
8
8
8
9
9
9
10
10
9
9
9
9
9
9
9
9
9
8
8
8
8
8
8
8
8
7
8
8
8
8
7
7
8
8
8
8
8
8
7
7
7
7
7
7
7
7
7
7
7
7
7
7
7
6
6
6
7
7
7
7
6
6
5
5
5
5
5
5
5
5
5
4
3
3
3
3
3
2
2
2
1
1
1
0
1
1
1
1
1
1
0
0
0
0
0
0
1
1
1
1
1
0
0
0
0
0
0
0
1
0
-1
0
0
0
0
-1
-1
-1
-2
-2
-2
-2
-1
-1
-2
-2
-2
-2
-2
-2
-3
-3
-3
-3
-3
-3
-3
-3
-3
-3
-3
-4
-4
-4
-4
-4
-4
-5
-5
-5
-5
-5
-5
-5
-5
-5
-5
-6
-6
-6
-6
-6
-6
-6
-6
-6
-7
-6
-6
-6
-6
-7
-6
-6
-7
-7
-7
-7
-7
-7
-7
-7
-7
-8
-7
-7
-7
-7
-8
-8
-8
-7
-7
-7
-8
-7
-6
-7
-7
-7
-7
-7
-7
-7
-8
-8
-8
-8
-8
-8
-8
-8
-8
-8
-9
-9
-8
-8
-8
-8
-8
-9
-9
-8
-8
-8
-9
-8
-8
-8
-8
-8
-8
-8
-8
-8
-8
-8
-9
-9
-8
-8
-9
-9
-8
-8
-9
-9
-9
-9
-9
-9
-9
-9
-9
-9
-9
-9
-9
-9
-9
-9
-9
-10
-9
-10
-10
-10
-10
-10
-10
-11
-10
-10
-10
-10
-10
-9
-11
-10
-10
-10
-10
-10
-10
-10
-9
-9
-9
-10
-9
-9
-10
-10
-11
-10
-10
-11
-11
-11
-11
-11
-11
-11
-11
-12
-11
-11
-11
-11
-11
-10
-11
-11
-11
-10
-10
-10
-10
-10
-10
-10
-10
-10
-10
-10
-11
-11
-11
-12
-11
-11
-11
-11
-11
-12
-11
-11
-11
-11
-11
-11
-11
-12
-11
-11
-11
-10
-10
-10
-10
-10
-10
-11
-11
-11
-11
-11
-11
-11
-11
-11
-11
-12
-12
-12
-12
-12
-13
-12
-12
-12
-12
-12
-12
-12
-12
-12
-12
-12
-12
-12
-12
-12
-12
-12
-11
-11
-11
-11
-11
-12
-12
-12
-12
-12
-12
-12
-12
-12
-11
-11
-11
-11
-11
-12
-12
-11
-11
-11
-11
-12
-11
-11
-11
-11
-11
-11
-11
-11
-11
-11
-11
-11
-11
-11
-11
-10
-9
-9
-9
-9
-9
-9
-9
-9
-8
-8
-8
-8
-8
-8
-7
-7
-7
-7
-6
-6
-5
-5
-4
-4
-4
-4
-3
-3
-2
-2
-2
-2
-1
-1
0
1
2
2
2
3
3
3
4
4
6
6
7
7
8
8
8
9
9
10
10
10
10
11
10
10
10
10
10
10
10
9
9
8
8
7
7
7
5
5
5
4
4
3
3
2
2
1
0
-1
-1
-2
-2
-4
-4
-5
-6
-7
-8
-9
-9
-10
-11
-11
-12
-12
-13
-13
-13
-13
-13
-13
-13
-13
-13
-13
-13
-13
-12
-13
-13
-13
-13
-14
-14
-14
-14
-14
-14
-15
-15
-16
-16
-16
-16
-16
-16
-17
-17
-16
-16
-17
-17
-16
-17
-16
-16
-16
-16
-16
-16
-16
-16
-15
-16
-16
-16
-16
-16
-16
-16
-16
-17
-16
-16
-16
-16
-16
-16
-16
-16
-16
-17
-17
-16
-16
-16
-16
-16
-16
-16
-15
-15
-15
-15
-15
-15
-15
-15
-15
-15
-15
-15
-15
-15
-15
-13
-13
-13
-13
-13
-12
-12
-11
-11
-11
-11
-11
-10
-10
-10
-10
-9
-9
-9
-8
-8
-7
-7
-5
-4
-1
1
4
6
11
16
20
27
35
43
52
62
73
84
97
111
125
140
154
170
185
198
209
220
227
234
238
239
237
232
226
216
204
189
173
155
134
114
91
69
46
25
4
-16
-33
-48
-62
-74
-83
-90
-96
-99
-100
-100
-99
-97
-92
-88
-83
-78
-72
-66
-61
-55
-50
-45
-41
-36
-33
-29
-26
-23
-21
-19
-18
-16
-14
-12
-12
-9
-8
-7
-6
-5
-4
-3
-2
-1
0
1
1
2
3
3
4
4
4
4
3
4
3
2
2
1
-1
-1
-2
-3
-5
-6
-7
-7
-8
-10
-10
-12
-13
-14
-15
-16
-17
-18
-18
-19
-20
-21
-21
-21
-22
-22
-23
-22
-22
-22
-22
-21
-21
-20
-19
-18
-18
-16
-16
-15
-15
-13
-13
-12
-12
-11
-10
-9
-10
-9
-9
-8
-8
-8
-8
-7
-7
-7
-8
-8
-8
-8
-8
-8
-8
-9
-9
-9
-10
-10
-10
-10
-10
-10
-10
-10
-10
-10
-10
-10
-10
-10
-10
-10
-10
-10
-10
-11
-10
-10
-10
-10
-9
-9
-9
-9
-10
-10
-10
-10
-10
-10
-10
-10
-9
-9
-10
-9
-9
-9
-9
-9
-9
-9
-9
-9
-9
-9
-9
-10
-10
-9
-9
-9
-9
-10
-9
-9
-9
-9
-8
-8
-9
-9
-9
-9
-9
-9
-9
-9
-8
-9
-8
-9
-9
-8
-9
-9
-9
-9
-9
-8
-8
-8
-8
-8
-7
-7
-7
-7
-7
-5
-5
-5
-5
-5
-5
-5
-5
-4
-4
-4
-4
-4
-4
-4
-4
-4
-4
-4
-3
-3
-3
-2
-2
-2
-2
-2
-2
-2
-1
-1
-1
0
1
1
1
1
1
1
3
3
3
3
4
4
4
4
6
6
6
6
7
7
8
8
8
8
9
9
9
10
10
10
12
12
13
13
13
13
14
14
14
16
16
16
16
17
17
19
19
19
19
19
20
20
21
22
22
23
24
24
25
25
26
26
27
27
28
28
29
29
29
30
30
30
30
30
30
32
32
32
32
32
32
33
33
33
33
34
34
34
35
36
36
36
37
37
37
36
36
36
36
36
37
37
37
36
36
36
36
36
35
34
34
34
33
33
33
32
32
32
32
31
31
31
30
29
29
29
28
28
27
26
26
26
25
25
25
24
24
23
23
23
22
22
22
20
20
20
19
19
18
18
18
17
16
16
16
15
14
14
13
13
13
12
12
12
11
11
10
10
9
9
9
9
9
8
8
8
8
8
8
7
7
6
6
6
5
4
4
4
3
3
3
2
2
1
1
1
1
1
0
-1
-1
-1
-1
-1
-2
-2
-2
-2
-2
-3
-4
-4
-4
-4
-4
-5
-5
-5
-5
-5
-5
-6
-6
-6
-6
-6
-6
-6
-6
-6
-6
-6
-6
-6
-6
-6
-6
-6
-7
-8
-8
-8
-8
-8
-8
-8
-8
-9
-8
-9
-9
-9
-9
-9
-9
-9
-9
-9
-9
-10
-10
-10
-10
-10
-10
-9
-10
-10
-10
-10
-9
-9
-9
-9
-10
-10
-9
-9
-8
-8
-8
-8
-7
-7
-7
-7
-6
-6
-6
-5
-5
-5
-4
-4
-3
-3
-3
-3
-3
-3
-3
-2
-2
-2
-2
-2
-2
-2
-2
-2
-2
-2
-2
-2
-1
-1
-1
-1
-1
-1
-1
-1
0
0
0
0
0
0
1
2
2
2
2
2
3
4
4
4
4
4
4
3
3
4
4
4
4
4
4
4
4
4
4
4
5
5
5
5
5
7
6
7
7
7
7
7
8
8
8
8
8
8
8
8
8
8
8
7
7
7
7
7
7
7
6
6
6
5
5
5
6
6
6
5
5
5
5
5
5
5
5
5
5
5
6
6
5
5
5
5
5
5
5
4
4
4
3
4
4
2
2
2
2
2
2
1
1
1
1
1
1
0
0
0
0
0
0
-1
-1
-1
-1
-1
-1
-2
-2
-2
-2
-2
-2
-2
-2
-1
-1
-1
-1
-2
-2
-2
-2
-2
-2
-2
-2
-2
-2
-2
-2
-2
-2
-3
-3
-3
-3
-4
-5
-5
-5
-5
-5
-6
-6
-6
-6
-6
-6
-6
-6
-6
-6
-6
-6
-6
-6
-6
-6
-6
-6
-5
-6
-6
-6
-6
-6
-6
-6
-6
-6
-6
-6
-6
-6
-6
-7
-7
-7
-7
-7
-8
-8
-7
-7
-7
-8
-8
-8
-8
-8
-8
-8
-7
-8
-8
-8
-8
-8
-8
-8
-7
-8
-8
-8
-8
-8
-8
-8
-8
-8
-8
-8
-8
-8
-8
-8
-8
-8
-8
-8
-8
-9
-9
-9
-9
-9
-9
-9
-9
-9
-10
-10
-9
-9
-9
-10
-9
-9
-9
-9
-9
-9
-8
-8
-9
-9
-9
-9
-9
-9
-10
-10
-10
-9
-10
-10
-10
-10
-10
-11
-11
-11
-11
-11
-12
-11
-11
-11
-11
-11
-11
-11
-11
-11
-11
-11
-10
-10
-10
-11
-11
-10
-11
-11
-11
-11
-10
-10
-10
-10
-10
-10
-11
-11
-11
-11
-11
-10
-11
-11
-11
-11
-11
-11
-10
-11
-11
-11
-11
-11
-12
-12
-11
-12
-12
-12
-12
-12
-12
-12
-13
-13
-13
-13
-13
-12
-13
-13
-13
-12
-12
-12
-12
-12
-12
-12
-12
-13
-13
-12
-11
-11
-12
-11
-11
-11
-10
-11
-11
-11
-11
-11
-11
-11
-11
-11
-11
-11
-11
-11
-11
-11
-11
-12
-12
-11
-11
-11
-11
-11
-11
-11
-12
-12
-12
-11
-11
-10
-10
-10
-10
-10
-10
-10
-10
-10
-10
-10
-10
-10
-10
-10
-10
-10
-11
-11
-11
-11
-11
-11
-10
-10
-10
-10
-10
-10
-10
-9
-9
-8
-8
-8
-8
-7
-7
-5
-5
-4
-4
-3
-3
-2
-2
-1
0
1
1
2
2
3
3
3
3
3
4
4
5
5
6
5
5
5
6
6
6
7
7
7
6
6
6
6
7
7
6
6
5
5
5
5
4
4
4
4
3
2
2
2
1
1
1
0
0
-2
-2
-3
-3
-4
-4
-5
-6
-7
-7
-8
-8
-9
-10
-10
-11
-11
-12
-13
-13
-14
-14
-15
-14
-15
-15
-15
-15
-15
-15
-15
-15
-16
-16
-16
-16
-16
-17
-17
-17
-18
-18
-19
-19
-19
-19
-20
-20
-21
-21
-21
-20
-21
-21
-21
-21
-21
-21
-21
-21
-21
-20
-20
-21
-21
-21
-21
-20
-20
-20
-20
-20
-20
-20
-20
-20
-20
-20
-20
-20
-20
-20
-19
-20
-20
-20
-19
-20
-19
-19
-19
-19
-19
-19
-19
-19
-19
-19
-19
-19
-19
-19
-19
-19
-19
-18
-18
-18
-18
-18
-18
-18
-18
-18
-18
-17
-17
-17
-16
-17
-17
-16
-16
-16
-16
-16
-14
-14
-14
-13
-12
-10
-8
-6
-5
-1
3
7
12
18
25
31
40
50
61
72
83
96
110
125
140
155
169
183
197
207
217
223
228
230
231
228
222
215
204
190
175
158
138
119
97
75
52
31
10
-10
-28
-44
-59
-72
-82
-90
-96
-101
-103
-104
-103
-102
-99
-95
-89
-84
-79
-74
-69
-63
-58
-54
-50
-45
-42
-38
-35
-34
-31
-29
-27
-27
-25
-23
-22
-21
-20
-19
-18
-17
-15
-14
-12
-11
-10
-8
-7
-6
-4
-3
-2
-3
-2
-2
-1
-2
-2
-2
-3
-4
-5
-6
-7
-8
-10
-11
-12
-14
-15
-16
-18
-18
-20
-21
-23
-23
-24
-25
-27
-28
-28
-29
-30
-31
-31
-31
-31
-31
-31
-31
-31
-30
-30
-29
-29
-27
-27
-26
-25
-24
-24
-23
-22
-22
-21
-20
-19
-19
-18
-19
-18
-18
-18
-17
-17
-17
-18
-18
-18
-18
-18
-18
-18
-18
-18
-18
-18
-18
-18
-19
-19
-19
-18
-18
-18
-18
-18
-18
-18
-18
-18
-18
-18
-18
-18
-18
-18
-18
-18
-18
-18
-18
-18
-18
-18
-18
-18
-18
-19
-19
-18
-19
-18
-18
-19
-19
-18
-18
-19
-19
-19
-19
-18
-18
-19
-19
-19
-19
-19
-19
-19
-19
-19
-20
-18
-18
-18
-18
-18
-18
-18
-18
-18
-17
-16
-16
-16
-15
-15
-15
-15
-15
-14
-14
-13
-13
-13
-13
-13
-13
-13
-14
-14
-14
-14
-14
-14
-14
-14
-13
-14
-14
-14
-14
-13
-13
-13
-13
-13
-12
-12
-12
-11
-11
-11
-11
-11
-11
-10
-10
-10
-9
-9
-9
-9
-9
-9
-9
-9
-8
-8
-7
-7
-7
-7
-7
-6
-6
-6
-5
-5
-4
-3
-3
-3
-3
-2
-2
-2
-1
-1
0
0
1
1
2
2
3
3
4
4
5
5
6
7
7
7
8
8
9
9
10
10
11
12
12
12
13
13
13
15
15
15
16
17
17
18
18
18
18
19
19
19
20
21
21
21
21
21
23
23
23
23
23
24
24
24
24
25
25
25
25
26
27
27
27
28
28
28
28
29
29
29
29
29
30
30
30
30
30
30
30
30
30
30
30
30
30
30
30
29
29
29
29
29
29
29
29
28
28
28
28
27
27
26
25
25
25
25
24
24
23
23
21
21
20
20
19
18
18
18
17
16
16
16
16
15
14
14
14
14
13
13
12
12
12
11
11
11
10
9
9
8
8
7
7
6
6
6
5
4
4
4
4
3
2
2
1
1
1
1
0
-1
-1
-1
-1
-1
-2
-2
-3
-3
-4
-4
-4
-4
-4
-5
-5
-5
-5
-5
-6
-6
-6
-7
-7
-7
-7
-8
-7
-7
-8
-8
-8
-8
-9
-9
-9
-10
-11
-11
-12
-13
-13
-13
-13
-13
-13
-13
-13
-14
-14
-15
-15
-15
-15
-14
-15
-15
-15
-15
-14
-14
-15
-15
-15
-15
-15
-15
-16
-16
-16
-16
-16
-16
-16
-16
-16
-16
-16
-17
-17
-17
-16
-16
-16
-16
-16
-16
-16
-16
-16
-16
-15
-15
-15
-15
-15
-15
-15
-15
-15
-15
-15
-15
-15
-15
-16
-15
-15
-15
-15
-15
-15
-14
-15
-15
-15
-14
-14
-14
-14
-14
-13
-13
-13
-13
-13
-12
-12
-12
-11
-12
-11
-10
-11
-10
-10
-10
-8
-8
-9
-8
-8
-7
-7
-7
-6
-7
-7
-6
-6
-5
-5
-6
-6
-6
-6
-6
-6
-6
-6
-6
-6
-6
-6
-6
-7
-7
-6
-6
-6
-6
-6
-6
-6
-5
-5
-4
-4
-5
-4
-3
-3
-3
-3
-3
-3
-2
-2
-1
-2
-2
-1
-1
-1
0
-1
-1
0
0
0
0
-2
-2
-2
-2
-2
-2
-2
-2
-2
-2
-3
-3
-3
-4
-4
-4
-5
-6
-6
-6
-6
-6
-6
-6
-6
-7
-7
-7
-7
-7
-8
-8
-8
-7
-7
-7
-7
-7
-8
-8
-8
-8
-9
-9
-9
-9
-10
-10
-10
-11
-11
-11
-11
-11
-11
-11
-11
-12
-12
-12
-12
-13
-13
-13
-13
-13
-12
-12
-13
-12
-12
-12
-12
-12
-12
-12
-12
-12
-12
-12
-12
-12
-12
-12
-13
-13
-13
-13
-14
-14
-14
-13
-14
-14
-14
-14
-14
-14
-15
-15
-15
-15
-16
-16
-16
-16
-16
-16
-16
-16
-16
-17
-17
-18
-18
-18
-18
-17
-17
-18
-18
-18
-18
-18
-18
-18
-18
-19
-19
-19
-19
-19
-19
-19
-18
-18
-18
-18
-19
-19
-19
-19
-19
-19
-19
-18
-18
-19
-19
-19
-20
-20
-20
-20
-20
-21
-21
-21
-21
-21
-21
-21
-21
-21
-21
-21
-21
-21
-21
-21
-21
-21
-21
-21
-21
-21
-21
-21
-21
-21
-21
-21
-21
-21
-21
-21
-21
-22
-22
-22
-22
-21
-21
-22
-22
-22
-22
-23
-22
-22
-23
-23
-23
-23
-23
-23
-23
-23
-23
-23
-24
-24
-24
-24
-24
-23
-23
-23
-23
-23
-24
-24
-24
-25
-25
-25
-25
-25
-25
-25
-26
-26
-26
-26
-26
-26
-26
-26
-25
-25
-25
-25
-25
-25
-24
-24
-24
-24
-24
-24
-24
-24
-24
-24
-23
-23
-23
-24
-24
-24
-24
-25
-25
-25
-25
-25
-26
-26
-26
-26
-26
-26
-27
-27
-27
-27
-27
-27
-27
-28
-27
-27
-27
-27
-26
-26
-26
-27
-27
-27
-26
-27
-27
-27
-27
-27
-27
-27
-27
-27
-27
-27
-27
-27
-27
-27
-27
-27
-27
-27
-27
-27
-27
-27
-27
-28
-28
-28
-27
-28
-28
-28
-28
-28
-28
-29
-29
-29
-30
-30
-30
-30
-30
-29
-29
-29
-30
-30
-30
-30
-30
-30
-30
-30
-29
-29
-29
-30
-30
-30
-29
-29
-29
-29
-29
-30
-30
-30
-29
-28
-28
-28
-28
-28
-28
-28
-28
-28
-28
-28
-28
-27
-27
-27
-27
-27
-27
-27
-27
-28
-28
-28
-28
-29
-29
-29
-29
-30
-30
-30
-30
-30
-30
-30
-30
-30
-30
-30
-30
-30
-29
-29
-29
-29
-29
-28
-27
-28
-26
-27
-26
-27
-26
-26
-26
-24
-24
-23
-23
-23
-23
-21
-21
-21
-21
-20
-20
-19
-19
-18
-18
-18
-17
-17
-16
-16
-16
-15
-15
-15
-15
-14
-14
-13
-13
-14
-14
-13
-12
-12
-13
-13
-13
-13
-13
-13
-14
-14
-14
-14
-15
-15
-16
-17
-17
-17
-18
-18
-18
-18
-19
-20
-20
-21
-21
-22
-23
-23
-24
-24
-24
-25
-26
-27
-28
-29
-30
-31
-32
-33
-33
-33
-34
-35
-36
-35
-36
-37
-36
-37
-37
-37
-37
-37
-38
-38
-38
-38
-38
-38
-37
-37
-38
-38
-38
-38
-37
-37
-37
-37
-37
-36
-37
-37
-37
-36
-37
-37
-37
-37
-37
-38
-38
-38
-38
-38
-39
-39
-39
-39
-39
-39
-39
-39
-39
-40
-40
-41
-41
-41
-40
-40
-40
-40
-40
-40
-40
-40
-41
-41
-41
-41
-41
-41
-41
-41
-41
-41
-42
-42
-42
-42
-43
-43
-42
-42
-41
-41
-41
-40
-40
-39
-39
-39
-39
-39
-39
-38
-37
-37
-37
-37
-37
-37
-37
-37
-37
-37
-36
-36
-36
-35
-35
-34
-32
-31
-29
-27
-24
-21
-17
-12
-7
-1
6
14
23
33
44
55
68
81
96
111
126
141
156
172
184
195
205
213
218
220
220
216
210
202
191
177
161
143
122
101
79
56
32
9
-13
-33
-53
-70
-86
-99
-111
-119
-127
-131
-134
-134
-133
-131
-127
-123
-118
-113
-107
-101
-95
-90
-85
-80
-74
-70
-66
-63
-60
-57
-55
-53
-51
-49
-48
-47
-45
-44
-42
-41
-40
-40
-39
-38
-37
-37
-36
-35
-35
-34
-34
-33
-32
-33
-32
-33
-33
-34
-34
-34
-35
-36
-37
-37
-38
-40
-40
-41
-42
-43
-44
-45
-44
-45
-45
-47
-47
-47
-49
-49
-49
-50
-50
-51
-51
-51
-52
-52
-52
-53
-52
-52
-52
-51
-51
-50
-49
-49
-48
-48
-47
-47
-45
-44
-44
-43
-43
-42
-42
-41
-41
-40
-41
-40
-40
-40
-39
-39
-40
-40
-40
-40
-40
-40
-40
-40
-41
-41
-41
-41
-41
-41
-41
-41
-41
-41
-41
-41
-41
-41
-41
-41
-41
-41
-41
-40
-40
-40
-40
-40
-40
-40
-40
-40
-40
-40
-40
-40
-40
-40
-40
-40
-40
-40
-41
-41
-40
-40
-41
-41
-40
-40
-40
-41
-41
-41
-40
-40
-41
-40
-40
-39
-40
-40
-40
-40
-39
-39
-40
-40
-40
-40
-39
-39
-39
-39
-39
-39
-40
-40
-39
-39
-40
-39
-39
-39
-40
-40
-39
-39
-38
-38
-38
-38
-38
-38
-38
-37
-37
-37
-35
-35
-35
-35
-35
-34
-34
-34
-34
-33
-33
-33
-33
-32
-32
-32
-32
-32
-31
-30
-30
-30
-30
-30
-29
-29
-29
-28
-28
-27
-27
-27
-27
-26
-26
-26
-26
-26
-25
-25
-25
-25
-24
-24
-24
-23
-23
-23
-22
-22
-22
-21
-20
-20
-20
-19
-18
-18
-16
-16
-16
-15
-15
-15
-14
-13
-13
-12
-12
-10
-10
-9
-9
-9
-8
-8
-7
-6
-6
-5
-5
-4
-4
-4
-3
-3
-2
-2
-1
-1
0
0
0
0
0
2
2
3
3
3
3
4
4
4
4
5
6
6
8
8
8
9
9
11
11
12
12
13
14
14
14
16
16
16
16
16
16
15
16
15
15
16
16
16
15
16
16
15
15
16
15
15
14
14
14
14
14
14
14
14
14
13
13
13
12
12
11
11
11
10
10
8
8
7
7
6
6
5
4
4
3
2
2
1
1
-1
-1
-2
-3
-3
-3
-5
-5
-5
-6
-6
-7
-8
-8
-8
-9
-10
-10
-10
-11
-11
-12
-12
-13
-14
-14
-14
-15
-15
-16
-17
-18
-18
-18
-19
-20
-20
-20
-20
-20
-21
-21
-22
-22
-22
-22
-22
-23
-23
-23
-23
-23
-22
-23
-23
-23
-24
-23
-24
-24
-24
-24
-24
-24
-25
-25
-25
-27
-27
-27
-28
-29
-29
-30
-30
-31
-31
-32
-32
-33
-33
-33
-33
-34
-34
-34
-35
-35
-35
-36
-35
-34
-35
-35
-35
-35
-35
-35
-35
-35
-35
-35
-35
-35
-35
-35
-35
-35
-36
-36
-36
-36
-36
-37
-36
-36
-36
-37
-37
-38
-37
-37
-37
-37
-37
-37
-37
-36
-35
-35
-36
-36
-35
-35
-35
-35
-35
-35
-35
-34
-34
-34
-34
-34
-34
-34
-34
-34
-34
-33
-33
-33
-33
-33
-33
-34
-34
-34
-34
-34
-33
-32
-32
-32
-32
-31
-31
-31
-30
-29
-30
-29
-29
-28
-28
-27
-27
-27
-26
-26
-25
-25
-25
-25
-25
-24
-24
-24
-25
-24
-24
-24
-24
-24
-23
-23
-23
-23
-23
-23
-23
-21
-21
-21
-21
-21
-20
-20
-20
-19
-20
-20
-19
-19
-19
-18
-18
-18
-18
-18
-18
-18
-18
-18
-18
-18
-18
-18
-17
-17
-17
-17
-16
-16
-16
-16
-16
-16
-16
-15
-15
-15
-15
-15
-15
-14
-14
-14
-14
-14
-14
-14
-14
-14
-15
-15
-15
-16
-16
-16
-17
-17
-17
-18
-17
-18
-18
-19
-19
-19
-19
-19
-19
-20
-20
-20
-19
-20
-20
-19
-20
-20
-19
-19
-19
-19
-19
-19
-19
-19
-19
-19
-20
-20
-19
-19
-20
-20
-20
-20
-19
-20
-20
-20
-20
-19
-19
-20
-20
-20
-21
-21
-21
-21
-21
-21
-22
-22
-22
-22
-23
-23
-24
-24
-24
-25
-25
-25
-26
-26
-27
-26
-26
-26
-27
-27
-27
-27
-27
-27
-26
-26
-26
-27
-27
-26
-26
-25
-26
-26
-25
-24
-25
-24
-24
-25
-25
-25
-24
-24
-24
-24
-24
-24
-24
-25
-25
-25
-26
-25
-25
-25
-26
-26
-26
-27
-27
-27
-27
-27
-28
-28
-28
-28
-28
-29
-29
-28
-28
-28
-28
-28
-29
-29
-29
-29
-29
-29
-29
-29
-29
-29
-29
-29
-29
-28
-28
-28
-28
-28
-28
-28
-28
-27
-27
-27
-27
-27
-26
-26
-26
-26
-27
-26
-26
-26
-26
-26
-26
-26
-26
-25
-25
-26
-26
-27
-27
-27
-27
-27
-27
-28
-28
-28
-28
-28
-28
-29
-28
-28
-28
-29
-29
-29
-28
-28
-28
-27
-27
-27
-27
-27
-27
-27
-26
-26
-26
-26
-26
-27
-27
-26
-26
-26
-26
-26
-27
-27
-26
-27
-27
-27
-27
-27
-28
-27
-27
-27
-27
-27
-27
-27
-26
-26
-26
-27
-27
-27
-27
-27
-27
-27
-27
-27
-26
-26
-26
-27
-27
-27
-27
-27
-27
-27
-27
-27
-26
-27
-27
-27
-27
-26
-26
-26
-26
-25
-25
-24
-24
-24
-24
-24
-24
-24
-24
-24
-24
-24
-24
-25
-25
-25
-25
-25
-25
-25
-25
-25
-25
-25
-25
-25
-25
-25
-25
-24
-24
-24
-24
-23
-23
-24
-24
-24
-23
-24
-23
-23
-23
-23
-22
-23
-22
-22
-22
-22
-22
-23
-22
-23
-22
-22
-23
-23
-22
-23
-23
-23
-23
-23
-23
-23
-23
-23
-23
-23
-23
-23
-23
-22
-22
-22
-22
-22
-22
-22
-22
-21
-22
-22
-21
-22
-21
-21
-20
-20
-20
-20
-20
-20
-19
-19
-18
-18
-18
-18
-18
-17
-17
-17
-17
-17
-17
-17
-16
-16
-16
-16
-15
-15
-14
-13
-13
-13
-12
-12
-10
-10
-10
-9
-10
-9
-8
-8
-7
-7
-6
-7
-6
-6
-5
-5
-5
-4
-5
-4
-3
-3
-3
-2
-2
-1
-2
-1
-1
-1
-1
-1
-1
-1
-1
-2
-3
-3
-4
-4
-5
-5
-6
-6
-7
-7
-8
-9
-10
-10
-11
-11
-11
-11
-12
-12
-13
-13
-13
-14
-14
-15
-15
-16
-16
-17
-16
-17
-17
-18
-18
-18
-18
-19
-19
-20
-21
-21
-21
-20
-20
-21
-21
-21
-21
-22
-22
-22
-22
-22
-23
-23
-22
-22
-23
-23
-22
-23
-23
-22
-23
-23
-24
-24
-24
-24
-25
-25
-25
-25
-25
-25
-25
-26
-26
-26
-26
-26
-27
-27
-27
-27
-27
-27
-27
-27
-26
-26
-26
-26
-26
-26
-25
-25
-25
-25
-25
-25
-24
-24
-24
-24
-24
-23
-23
-23
-23
-23
-23
-23
-22
-22
-21
-21
-21
-20
-20
-20
-20
-20
-19
-19
-19
-19
-19
-19
-19
-19
-19
-18
-19
-19
-19
-19
-19
-19
-19
-18
-19
-18
-16
-15
-13
-11
-8
-5
0
4
10
16
23
32
42
51
64
76
90
104
119
135
151
167
182
198
212
223
234
241
247
249
249
246
240
231
219
205
188
170
149
127
103
79
56
32
9
-13
-33
-51
-68
-82
-94
-103
-111
-116
-119
-121
-120
-119
-116
-111
-107
-102
-97
-92
-86
-80
-76
-71
-67
-63
-58
-55
-51
-48
-46
-44
-41
-39
-37
-35
-34
-32
-31
-29
-28
-27
-25
-24
-22
-20
-19
-17
-17
-16
-15
-15
-14
-14
-14
-14
-14
-15
-15
-16
-16
-19
-19
-20
-21
-23
-23
-24
-25
-26
-28
-29
-29
-30
-30
-32
-32
-34
-34
-34
-35
-35
-36
-36
-36
-36
-36
-37
-36
-36
-36
-35
-34
-34
-33
-33
-32
-31
-31
-29
-29
-27
-27
-26
-24
-24
-23
-23
-22
-22
-21
-21
-20
-20
-20
-20
-20
-20
-20
-20
-20
-20
-20
-20
-21
-21
-21
-21
-21
-21
-21
-21
-21
-21
-21
-21
-21
-21
-21
-21
-21
-21
-20
-20
-21
-21
-21
-21
-20
-20
-21
-21
-21
-21
-21
-21
-21
-21
-21
-21
-21
-21
-21
-21
-21
-21
-21
-21
-21
-21
-20
-20
-20
-20
-20
-20
-19
-19
-19
-19
-19
-19
-19
-19
-19
-19
-19
-19
-18
-18
-18
-19
-19
-19
-19
-19
-20
-20
-20
-20
-20
-19
-19
-19
-19
-19
-19
-19
-19
-19
-19
-19
-19
-19
-19
-18
-18
-18
-17
-17
-16
-17
-17
-15
-15
-15
-15
-15
-14
-14
-14
-13
-13
-12
-12
-12
-11
-11
-11
-11
-10
-10
-10
-10
-9
-9
-9
-8
-8
-8
-8
-7
-7
-7
-6
-6
-6
-6
-4
-4
-4
-3
-3
-3
-2
-2
-1
-1
-1
0
0
1
1
1
2
2
3
3
3
4
4
4
4
5
5
6
6
6
7
7
8
8
9
9
10
11
12
13
13
13
15
15
16
17
17
17
19
19
20
21
21
23
23
24
24
25
25
26
26
26
27
27
28
28
29
29
29
29
30
30
30
30
31
31
32
32
33
32
32
33
33
33
34
33
34
34
34
35
34
34
34
34
34
34
34
34
33
33
33
33
33
33
33
33
32
32
32
31
31
31
30
30
30
29
29
29
28
28
27
27
26
25
26
25
24
24
23
23
22
22
22
21
21
21
20
20
20
19
18
18
18
18
17
17
17
15
15
15
15
14
13
12
12
12
11
10
9
9
8
8
7
6
6
6
6
4
4
4
3
3
3
2
1
1
1
1
0
0
0
-2
-1
-2
-2
-3
-3
-3
-3
-4
-4
-4
-5
-5
-5
-5
-6
-6
-6
-6
-6
-8
-8
-8
-8
-8
-9
-9
-10
-10
-10
-11
-12
-12
-12
-13
-13
-13
-13
-13
-14
-14
-14
-14
-14
-15
-14
-13
-14
-14
-14
-14
-14
-14
-14
-15
-15
-15
-15
-14
-14
-15
-15
-15
-16
-16
-16
-16
-17
-17
-17
-17
-17
-17
-17
-17
-17
-17
-17
-17
-17
-17
-17
-17
-17
-17
-16
-16
-16
-16
-16
-16
-16
-16
-16
-16
-14
-14
-14
-14
-14
-14
-14
-14
-14
-13
-14
-14
-14
-14
-14
-13
-13
-14
-14
-14
-13
-13
-13
-13
-13
-13
-13
-13
-12
-12
-12
-12
-11
-11
-11
-11
-10
-10
-10
-9
-8
-8
-8
-8
-8
-7
-7
-6
-6
-5
-5
-4
-4
-4
-3
-3
-3
-3
-3
-2
-2
-2
-1
-2
-2
-2
-2
-2
-2
-2
-2
-2
-2
-1
-2
-2
-2
-2
-2
-2
-1
-1
-1
-1
-1
-1
0
0
0
1
1
1
1
1
1
1
1
1
1
1
1
1
1
1
1
2
2
2
2
2
1
0
0
0
0
0
0
-1
-1
-1
-1
-1
-1
-2
-3
-3
-3
-3
-2
-2
-3
-2
-2
-3
-3
-2
-2
-2
-2
-2
-2
-2
-2
-2
-2
-2
-2
-3
-3
-3
-3
-3
-2
-2
-3
-3
-3
-3
-3
-3
-4
-3
-4
-4
-4
-5
-5
-5
-5
-6
-6
-6
-6
-6
-6
-6
-6
-7
-7
-7
-7
-7
-7
-7
-7
-7
-7
-8
-8
-8
-8
-8
-8
-8
-8
-8
-8
-9
-9
-9
-9
-9
-9
-9
-9
-9
-9
-9
-9
-9
-9
-9
-9
-8
-8
-8
-8
-8
-8
-8
-8
-8
-8
-9
-9
-9
-9
-9
-10
-10
-10
-11
-11
-11
-12
-12
-11
-11
-11
-11
-11
-11
-12
-12
-12
-11
-11
-11
-11
-12
-10
-10
-11
-11
-10
-10
-11
-11
-11
-11
-11
-11
-11
-11
-11
-12
-12
-12
-12
-11
-11
-11
-11
-11
-12
-12
-12
-11
-11
-11
-11
-11
-11
-11
-11
-11
-11
-11
-11
-11
-11
-11
-11
-12
-12
-12
-12
-12
-12
-12
-12
-12
-12
-12
-12
-12
-12
-12
-12
-13
-12
-12
-12
-11
-12
-11
-12
-12
-11
-12
-11
-11
-11
-12
-12
-12
-12
-12
-12
-11
-11
-11
-12
-12
-12
-12
-12
-12
-12
-11
-12
-12
-12
-12
-12
-12
-12
-11
-11
-11
-12
-12
-12
-13
-13
-12
-12
-12
-12
-12
-12
-12
-12
-12
-12
-12
-12
-12
-12
-11
-11
-11
-11
-11
-11
-11
-11
-11
-11
-11
-11
-12
-12
-12
-12
-12
-12
-12
-12
-11
-11
-11
-11
-11
-11
-11
-11
-12
-12
-12
-12
-11
-11
-11
-11
-12
-12
-12
-12
-12
-12
-12
-12
-11
-11
-12
-12
-12
-12
-12
-13
-13
-12
-12
-12
-12
-12
-11
-11
-11
-11
-11
-11
-11
-11
-11
-12
-12
-11
-11
-12
-12
-12
-12
-12
-12
-12
-12
-12
-12
-12
-11
-11
-12
-11
-11
-11
-11
-11
-11
-11
-11
-10
-10
-10
-10
-10
-10
-10
-10
-10
-10
-11
-10
-10
-10
-10
-10
-10
-9
-9
-9
-9
-9
-9
-9
-9
-9
-9
-8
-10
-10
-9
-9
-9
-9
-9
-9
-10
-10
-9
-10
-10
-10
-10
-10
-10
-9
-9
-8
-9
-9
-9
-9
-10
-9
-9
-9
-9
-9
-8
-8
-8
-9
-8
-8
-8
-9
-9
-9
-9
-9
-9
-10
-10
-10
-10
-9
-10
-9
-9
-9
-9
-9
-8
-7
-7
-7
-6
-6
-5
-5
-5
-4
-4
-3
-3
-3
-2
-1
-1
0
0
0
1
1
2
2
2
2
3
3
3
4
4
5
5
6
6
7
6
6
7
7
7
7
6
7
7
7
8
8
8
8
8
8
8
8
8
8
8
7
7
7
7
6
5
5
5
5
4
4
3
3
3
3
3
3
2
2
2
1
0
1
-1
0
-1
-2
-3
-3
-4
-5
-5
-6
-6
-7
-8
-8
-9
-9
-10
-10
-11
-11
-11
-12
-12
-12
-12
-12
-13
-13
-13
-13
-13
-13
-13
-13
-13
-13
-13
-12
-12
-12
-12
-12
-12
-12
-12
-12
-12
-12
-12
-11
-12
-12
-11
-12
-12
-12
-12
-12
-12
-12
-12
-13
-13
-13
-13
-13
-13
-13
-14
-14
-14
-13
-14
-14
-14
-15
-15
-14
-14
-14
-14
-14
-14
-14
-14
-13
-13
-13
-13
-14
-14
-13
-13
-13
-13
-13
-13
-11
-11
-11
-11
-11
-11
-11
-11
-11
-11
-10
-9
-9
-9
-9
-9
-9
-9
-9
-8
-9
-9
-8
-8
-8
-7
-7
-7
-5
-4
-3
-1
2
4
8
13
17
23
30
37
46
56
66
77
90
103
117
132
147
163
178
193
207
218
228
236
242
245
245
242
238
230
220
206
192
174
154
134
111
88
65
42
19
-2
-21
-40
-54
-68
-80
-89
-98
-103
-105
-107
-107
-105
-102
-99
-94
-89
-84
-78
-72
-67
-61
-56
-51
-46
-42
-39
-36
-33
-30
-28
-25
-24
-22
-20
-19
-17
-16
-15
-13
-12
-11
-10
-7
-6
-5
-4
-3
-2
-1
1
2
2
2
2
3
2
2
1
1
0
0
-1
-2
-4
-4
-5
-7
-8
-9
-11
-12
-13
-14
-15
-16
-17
-18
-19
-19
-20
-21
-22
-22
-23
-23
-23
-22
-23
-22
-22
-22
-21
-20
-20
-18
-17
-16
-16
-14
-14
-12
-12
-11
-11
-10
-10
-10
-9
-9
-9
-9
-8
-8
-9
-9
-9
-9
-9
-9
-10
-10
-10
-10
-10
-10
-10
-10
-10
-10
-10
-10
-10
-9
-9
-9
-10
-10
-11
-11
-11
-11
-11
-10
-10
-10
-10
-10
-10
-10
-10
-10
-10
-10
-10
-9
-10
-9
-9
-9
-9
-9
-9
-9
-9
-9
-9
-9
-9
-9
-9
-9
-9
-9
-9
-9
-9
-9
-9
-9
-9
-10
-10
-10
-10
-10
-10
-10
-10
-10
-9
-9
-9
-9
-9
-9
-10
-10
-10
-9
-9
-9
-9
-9
-9
-9
-8
-8
-8
-7
-7
-7
-7
-7
-7
-8
-7
-7
-7
-7
-7
-7
-7
-7
-7
-7
-6
-6
-6
-5
-5
-5
-4
-4
-3
-3
-2
-2
-2
-1
-1
-1
-1
-1
-1
0
0
0
0
0
1
0
0
0
1
1
1
2
2
2
3
3
4
4
5
5
6
7
7
8
8
8
8
10
10
10
10
11
12
11
12
12
12
12
12
13
13
14
14
15
15
16
16
16
16
17
18
18
19
19
19
19
20
21
22
22
22
23
24
25
25
25
27
27
27
28
28
29
30
30
30
30
30
30
31
31
32
32
33
33
33
34
34
35
35
35
35
36
36
37
37
37
37
37
39
39
39
39
39
39
39
39
39
39
38
39
39
39
38
38
37
37
37
37
37
36
36
36
35
35
35
35
34
34
34
34
33
32
32
32
32
32
31
31
31
31
31
30
29
29
28
27
27
26
26
26
25
25
24
23
23
22
22
21
20
20
20
20
19
18
18
18
16
16
16
15
15
15
14
14
14
12
12
12
12
11
11
11
10
10
10
10
10
8
8
8
8
7
6
6
6
6
5
5
5
4
3
3
2
2
1
1
1
0
0
0
0
0
0
-1
-2
-2
-2
-2
-3
-3
-3
-3
-5
-5
-5
-5
-5
-5
-5
-6
-6
-7
-7
-6
-6
-6
-7
-7
-7
-7
-6
-7
-7
-7
-7
-7
-7
-7
-7
-7
-7
-7
-7
-8
-8
-8
-8
-9
-9
-8
-9
-9
-9
-8
-9
-9
-9
-10
-9
-9
-9
-9
-9
-9
-9
-9
-9
-9
-9
-9
-9
-8
-8
-8
-8
-8
-8
-8
-8
-8
-8
-7
-7
-7
-8
-8
-8
-7
-7
-8
-7
-7
-7
-7
-7
-7
-7
-7
-7
-6
-6
-6
-6
-5
-5
-4
-4
-4
-4
-3
-3
-3
-1
-1
-1
0
0
0
0
1
1
1
1
1
1
1
0
1
1
1
1
1
1
2
2
2
1
1
2
2
2
2
2
3
3
4
4
4
5
5
5
6
6
6
6
5
6
6
6
6
6
7
7
6
6
6
6
6
6
6
6
6
6
6
7
7
7
7
6
6
6
6
6
6
6
6
6
6
6
6
6
5
5
5
5
5
5
5
5
5
4
4
4
4
4
3
4
4
4
4
4
4
3
3
2
2
2
2
2
1
1
0
0
0
0
-1
-1
-1
-1
-2
-2
-2
-2
-2
-1
-1
-1
0
-1
-1
-1
-1
-1
-2
-2
-2
-3
-3
-2
-2
-3
-3
-3
-3
-3
-3
-3
-4
-3
-3
-4
-4
-3
-4
-4
-4
-5
-5
-5
-5
-5
-6
-6
-6
-7
-7
-7
-7
-7
-8
-8
-8
-8
-9
-9
-8
-8
-8
-8
-8
-8
-8
-9
-9
-9
-9
-9
-9
-9
-9
-9
-10
-10
-9
-9
-10
-10
-10
-10
-10
-11
-11
-10
-10
-11
-11
-12
-12
-12
-12
-11
-11
-11
-12
-12
-12
-12
-12
-12
-12
-13
-13
-12
-13
-13
-13
-12
-12
-12
-11
-11
-11
-11
-11
-11
-11
-11
-11
-11
-10
-10
-10
-10
-10
-10
-11
-10
-10
-11
-11
-11
-12
-12
-12
-13
-13
-13
-13
-14
-14
-14
-14
-13
-13
-14
-14
-14
-14
-14
-14
-15
-15
-15
-14
-14
-14
-14
-14
-14
-14
-13
-13
-12
-13
-13
-13
-13
-13
-13
-12
-12
-12
-12
-12
-12
-13
-13
-13
-13
-14
-13
-13
-13
-13
-13
-13
-13
-13
-13
-13
-13
-13
-12
-13
-13
-13
-13
-13
-13
-13
-13
-13
-13
-13
-14
-14
-14
-15
-14
-14
-15
-15
-14
-14
-14
-15
-15
-14
-15
-14
-14
-14
-14
-13
-13
-13
-14
-14
-14
-13
-13
-13
-13
-14
-14
-13
-13
-13
-14
-14
-14
-13
-13
-13
-14
-14
-14
-14
-14
-14
-15
-15
-14
-14
-15
-15
-15
-15
-15
-14
-14
-14
-14
-13
-13
-13
-13
-13
-13
-13
-13
-13
-13
-13
-13
-13
-13
-13
-13
-13
-13
-14
-14
-13
-14
-14
-14
-14
-14
-14
-14
-14
-13
-14
-13
-13
-13
-13
-13
-14
-13
-13
-13
-13
-13
-13
-13
-13
-13
-13
-13
-14
-15
-14
-14
-14
-15
-15
-15
-15
-15
-15
-15
-15
-15
-15
-15
-15
-15
-14
-14
-14
-14
-14
-14
-12
-12
-12
-11
-11
-11
-11
-10
-10
-10
-10
-9
-9
-10
-10
-9
-9
-8
-8
-7
-7
-7
-7
-6
-6
-5
-5
-4
-3
-3
-2
-1
-2
-1
-1
0
0
0
1
1
1
2
2
2
2
2
2
3
3
3
3
4
4
4
4
4
4
4
4
4
4
4
4
3
3
3
3
3
2
2
1
1
1
0
0
-1
-2
-2
-3
-4
-4
-5
-6
-7
-8
-9
-10
-11
-12
-13
-13
-13
-14
-15
-16
-16
-17
-17
-18
-18
-18
-19
-19
-19
-19
-19
-19
-20
-20
-19
-20
-20
-20
-20
-21
-21
-21
-21
-22
-22
-22
-22
-22
-21
-21
-22
-22
-22
-22
-22
-22
-21
-21
-21
-21
-22
-22
-22
-22
-21
-21
-22
-22
-22
-22
-22
-22
-22
-23
-22
-23
-23
-23
-23
-23
-23
-23
-23
-22
-22
-22
-22
-22
-22
-22
-22
-21
-22
-22
-22
-22
-21
-21
-22
-22
-21
-22
-22
-22
-22
-22
-22
-22
-22
-21
-21
-21
-22
-21
-21
-21
-21
-20
-20
-20
-20
-20
-20
-20
-19
-19
-19
-19
-19
-18
-17
-17
-16
-15
-14
-12
-11
-8
-5
-2
2
7
13
19
26
34
44
54
65
77
90
105
119
134
150
165
180
195
208
218
227
233
237
238
237
232
225
215
203
187
170
151
130
108
85
61
37
16
-7
-27
-46
-62
-77
-90
-101
-108
-114
-118
-120
-121
-119
-115
-112
-107
-102
-96
-91
-85
-79
-74
-69
-64
-59
-55
-52
-48
-45
-42
-39
-37
-36
-34
-32
-30
-29
-28
-26
-25
-24
-22
-21
-20
-18
-17
-17
-16
-16
-14
-14
-13
-14
-14
-14
-14
-15
-15
-16
-17
-18
-19
-20
-21
-22
-23
-24
-25
-26
-27
-28
-29
-30
-30
-32
-31
-32
-34
-35
-35
-36
-36
-37
-37
-37
-38
-38
-38
-38
-38
-37
-37
-37
-36
-36
-35
-34
-33
-32
-31
-30
-29
-28
-27
-26
-26
-25
-24
-23
-23
-22
-21
-22
-21
-21
-21
-21
-21
-21
-21
-21
-22
-22
-22
-22
-22
-22
-22
-23
-24
-24
-24
-24
-24
-24
-25
-25
-24
-25
-25
-25
-25
-26
-26
-26
-26
-26
-26
-27
-26
-26
-26
-26
-26
-26
-26
-25
-25
-25
-25
-25
-24
-24
-24
-24
-23
-23
-23
-24
-24
-24
-24
-24
-23
-23
-24
-24
-24
-24
-24
-24
-24
-24
-24
-23
-23
-23
-23
-23
-23
-23
-23
-23
-24
-24
-24
-24
-24
-24
-24
-24
-23
-23
-24
-24
-24
-23
-23
-22
-22
-21
-21
-20
-20
-20
-20
-19
-19
-19
-19
-18
-18
-18
-18
-19
-18
-18
-17
-17
-17
-17
-17
-17
-17
-17
-16
-16
-16
-16
-16
-16
-15
-15
-14
-14
-14
-13
-13
-12
-12
-11
-11
-11
-11
-11
-10
-9
-9
-9
-8
-7
-7
-7
-6
-6
-6
-6
-6
-6
-6
-5
-5
-5
-5
-4
-4
-4
-3
-3
-2
-2
-1
0
0
0
0
2
2
3
4
5
5
6
7
8
8
8
9
9
9
10
11
11
12
13
13
14
14
14
15
15
15
17
17
17
17
17
17
18
19
19
19
20
20
21
21
22
23
23
23
23
24
24
25
25
26
27
27
27
28
28
28
28
29
30
30
29
29
29
29
30
30
30
29
29
30
30
30
30
29
29
29
28
28
27
27
27
27
26
26
26
25
25
25
25
24
23
23
23
22
22
22
21
21
21
20
20
19
18
18
17
17
15
15
14
14
12
12
12
11
11
10
9
8
7
7
7
6
6
6
5
5
4
3
3
3
1
1
0
0
0
0
-1
-1
-1
-2
-2
-3
-4
-4
-4
-5
-5
-5
-6
-6
-7
-7
-7
-8
-8
-8
-8
-9
-10
-10
-11
-11
-11
-12
-12
-13
-14
-14
-14
-15
-15
-16
-16
-16
-16
-17
-17
-18
-18
-18
-18
-19
-19
-19
-19
-19
-19
-19
-20
-20
-20
-20
-20
-20
-20
-20
-21
-21
-22
-22
-22
-22
-22
-23
-23
-23
-23
-23
-23
-24
-24
-23
-22
-23
-23
-22
-22
-22
-22
-22
-23
-23
-22
-23
-23
-23
-24
-24
-24
-24
-25
-25
-25
-25
-24
-25
-25
-25
-25
-24
-24
-24
-24
-23
-23
-23
-22
-22
-22
-22
-22
-22
-22
-22
-22
-22
-22
-22
-21
-21
-21
-21
-21
-20
-20
-20
-19
-19
-19
-19
-18
-17
-17
-17
-17
-17
-17
-17
-17
-17
-17
-17
-17
-17
-17
-17
-17
-17
-17
-17
-17
-17
-17
-17
-17
-17
-16
-16
-16
-16
-16
-15
-15
-15
-14
-14
-14
-13
-12
-12
-12
-11
-11
-11
-10
-10
-10
-10
-10
-9
-9
-8
-9
-9
-9
-9
-9
-9
-8
-9
-8
-8
-8
-7
-7
-8
-8
-8
-8
-8
-7
-7
-7
-7
-6
-7
-6
-6
-7
-7
-6
-7
-6
-7
-8
-8
-8
-8
-9
-9
-9
-9
-9
-10
-10
-11
-11
-12
-11
-12
-12
-12
-13
-12
-13
-13
-13
-13
-14
-14
-14
-13
-13
-13
-14
-14
-13
-13
-14
-14
-15
-15
-14
-14
-15
-15
-15
-15
-15
-15
-15
-15
-15
-15
-16
-16
-15
-16
-16
-16
-17
-17
-17
-16
-16
-16
-17
-17
-17
-17
-17
-17
-17
-17
-18
-17
-17
-17
-17
-18
-18
-17
-18
-18
-18
-18
-19
-19
-19
-19
-19
-20
-20
-20
-20
-21
-21
-21
-21
-21
-21
-21
-21
-21
-21
-22
-22
-22
-22
-22
-22
-22
-22
-21
-21
-21
-21
-21
-21
-21
-22
-22
-22
-21
-21
-21
-21
-21
-21
-22
-22
-22
-22
-22
-22
-23
-23
-23
-23
-22
-22
-23
-23
-23
-23
-23
-23
-23
-23
-22
-22
-22
-22
-22
-23
-23
-23
-23
-23
-23
-23
-23
-23
-23
-24
-24
-24
-24
-24
-24
-24
-24
-25
-25
-26
-26
-26
-26
-27
-27
-27
-26
-26
-26
-26
-26
-26
-27
-27
-27
-27
-25
-26
-26
-25
-24
-24
-24
-25
-24
-24
-24
-24
-24
-24
-25
-24
-24
-24
-24
-25
-25
-25
-25
-26
-26
-26
-26
-26
-26
-27
-27
-27
-26
-26
-26
-26
-27
-27
-27
-27
-27
-27
-26
-26
-26
-26
-26
-26
-26
-26
-25
-26
-26
-26
-26
-25
-25
-25
-25
-24
-24
-24
-24
-25
-24
-24
-25
-25
-25
-25
-26
-25
-26
-25
-25
-25
-26
-25
-25
-25
-26
-26
-26
-26
-26
-26
-26
-26
-25
-26
-26
-27
-26
-26
-27
-27
-27
-27
-27
-27
-27
-27
-26
-26
-27
-27
-27
-25
-25
-25
-25
-25
-24
-25
-25
-25
-25
-25
-25
-25
-25
-25
-26
-26
-26
-26
-26
-26
-26
-26
-26
-26
-27
-27
-27
-28
-28
-28
-28
-28
-28
-28
-28
-28
-28
-27
-26
-26
-27
-27
-27
-26
-26
-26
-26
-26
-25
-25
-25
-25
-25
-25
-25
-25
-25
-25
-24
-25
-25
-25
-25
-25
-25
-26
-27
-27
-26
-26
-26
-26
-26
-26
-27
-27
-26
-26
-26
-26
-27
-27
-27
-27
-27
-27
-28
-27
-27
-27
-27
-27
-26
-27
-27
-27
-27
-26
-26
-26
-26
-26
-26
-26
-25
-25
-25
-26
-26
-25
-25
-25
-24
-24
-24
-25
-25
-25
-25
-24
-24
-24
-24
-23
-23
-23
-24
-23
-23
-24
-24
-23
-23
-23
-22
-23
-23
-22
-22
-22
-21
-21
-21
-20
-20
-19
-19
-18
-17
-17
-16
-17
-16
-15
-15
-14
-14
-13
-12
-12
-11
-11
-10
-10
-10
-9
-8
-7
-7
-6
-6
-6
-5
-5
-4
-4
-4
-4
-4
-4
-4
-4
-5
-5
-6
-6
-7
-8
-9
-9
-11
-12
-13
-14
-15
-16
-17
-18
-19
-20
-20
-21
-22
-23
-23
-24
-24
-25
-24
-25
-25
-26
-25
-25
-25
-25
-25
-24
-25
-25
-25
-25
-26
-25
-25
-26
-26
-26
-26
-26
-26
-26
-27
-27
-27
-27
-27
-28
-28
-28
-29
-29
-29
-29
-30
-30
-29
-29
-29
-31
-31
-30
-30
-30
-30
-31
-31
-31
-31
-31
-32
-32
-32
-32
-32
-32
-32
-32
-32
-32
-32
-32
-32
-32
-32
-32
-32
-31
-31
-31
-32
-32
-32
-32
-32
-31
-31
-31
-31
-31
-30
-30
-30
-30
-29
-29
-29
-29
-29
-29
-29
-29
-27
-27
-27
-27
-28
-28
-28
-28
-29
-29
-30
-29
-30
-30
-30
-30
-30
-29
-29
-28
-27
-25
-23
-20
-17
-14
-9
-5
1
8
15
22
31
41
53
64
77
91
106
121
137
152
168
185
198
213
223
234
240
245
246
245
241
234
226
213
198
181
162
140
118
94
69
45
20
-3
-25
-45
-63
-80
-93
-105
-114
-121
-126
-129
-131
-130
-128
-125
-121
-116
-111
-105
-100
-95
-89
-84
-78
-74
-70
-66
-63
-60
-57
-54
-52
-50
-48
-46
-43
-42
-40
-39
-37
-36
-34
-33
-31
-30
-29
-28
-27
-26
-25
-24
-24
-24
-24
-23
-24
-24
-25
-25
-27
-27
-28
-29
-30
-30
-32
-33
-34
-34
-36
-37
-37
-38
-38
-39
-39
-40
-40
-40
-40
-41
-41
-40
-40
-41
-40
-41
-40
-40
-40
-39
-38
-38
-37
-37
-37
-35
-34
-34
-33
-33
-32
-32
-31
-31
-30
-29
-30
-29
-29
-29
-29
-28
-28
-28
-27
-27
-27
-27
-27
-27
-27
-28
-28
-27
-27
-27
-27
-27
-27
-27
-27
-27
-27
-27
-26
-26
-26
-26
-26
-26
-26
-26
-26
-26
-26
-25
-25
-25
-26
-26
-25
-25
-25
-25
-25
-26
-25
-25
-25
-25
-25
-25
-25
-25
-25
-26
-26
-26
-26
-26
-26
-27
-27
-26
-26
-26
-26
-26
-26
-26
-26
-25
-25
-25
-24
-24
-25
-25
-24
-24
-23
-23
-23
-23
-23
-23
-23
-22
-22
-22
-22
-21
-20
-20
-20
-20
-20
-20
-20
-20
-19
-19
-20
-20
-20
-20
-21
-20
-20
-21
-21
-20
-20
-20
-20
-20
-20
-19
-19
-19
-19
-19
-18
-17
-17
-16
-16
-15
-15
-15
-15
-13
-13
-13
-13
-12
-12
-12
-12
-12
-11
-11
