# Simple Text Format
# Sampling Rate (Hz):= 1200.00
# Resolution:= 12
# Labels:= ECG	 V3
# Age:=	80
# Gender:=	Feminino
-117
-117
-116
-116
-116
-116
-117
-117
-116
-116
-116
-116
-115
-115
-115
-115
-115
-115
-115
-115
-114
-114
-113
-113
-112
-112
-112
-112
-111
-112
-112
-111
-111
-111
-111
-111
-110
-110
-110
-109
-108
-107
-106
-104
-103
-101
-98
-96
-93
-90
-86
-82
-78
-73
-68
-63
-58
-52
-46
-39
-33
-27
-21
-14
-8
-2
3
9
15
20
25
30
34
37
40
42
43
44
45
45
45
45
45
44
44
44
43
44
42
43
43
43
43
45
45
46
48
49
51
53
55
58
60
62
63
65
67
69
70
72
74
76
78
80
82
84
87
90
94
97
101
105
110
115
120
125
131
136
142
148
153
160
167
173
180
186
193
199
205
213
219
226
232
238
244
249
254
258
261
264
265
266
264
262
259
254
247
239
230
218
206
191
176
160
143
125
108
90
72
55
37
20
4
-12
-27
-40
-52
-63
-73
-81
-89
-96
-102
-106
-110
-112
-115
-117
-119
-119
-121
-121
-121
-121
-121
-121
-121
-121
-121
-121
-122
-122
-122
-123
-123
-124
-124
-125
-126
-126
-126
-127
-128
-129
-129
-130
-130
-130
-131
-131
-131
-132
-132
-133
-133
-133
-133
-133
-133
-133
-133
-134
-133
-133
-133
-134
-134
-134
-134
-134
-135
-135
-135
-136
-136
-136
-136
-136
-137
-137
-137
-138
-138
-138
-138
-139
-139
-140
-140
-140
-141
-141
-141
-141
-142
-142
-142
-142
-143
-143
-143
-143
-143
-143
-143
-144
-144
-144
-144
-144
-144
-144
-145
-145
-145
-145
-145
-145
-145
-146
-146
-146
-146
-146
-146
-147
-147
-147
-147
-147
-148
-148
-149
-149
-149
-149
-150
-150
-151
-150
-151
-151
-152
-152
-153
-153
-154
-154
-155
-154
-155
-155
-155
-156
-155
-156
-156
-156
-156
-157
-157
-158
-158
-158
-158
-159
-159
-160
-160
-160
-161
-162
-163
-163
-164
-164
-165
-166
-167
-168
-168
-169
-169
-170
-171
-171
-172
-173
-174
-174
-175
-176
-176
-177
-177
-178
-179
-179
-180
-180
-181
-182
-183
-183
-184
-185
-186
-187
-187
-188
-189
-190
-190
-191
-192
-193
-193
-194
-195
-196
-197
-198
-198
-199
-200
-200
-201
-202
-202
-203
-204
-205
-206
-206
-207
-209
-209
-211
-211
-212
-212
-213
-214
-214
-215
-215
-216
-216
-217
-216
-217
-217
-217
-217
-216
-217
-217
-217
-216
-217
-217
-216
-216
-216
-216
-216
-216
-215
-215
-216
-215
-215
-215
-214
-215
-214
-213
-213
-213
-213
-212
-212
-212
-211
-210
-209
-208
-208
-207
-205
-205
-203
-203
-202
-201
-199
-199
-197
-196
-194
-193
-192
-190
-189
-187
-185
-185
-183
-181
-179
-178
-176
-174
-174
-172
-171
-169
-167
-165
-163
-162
-161
-159
-158
-157
-155
-153
-151
-151
-149
-147
-146
-144
-143
-141
-140
-138
-137
-135
-134
-133
-132
-131
-129
-129
-127
-126
-125
-124
-123
-122
-121
-121
-120
-119
-118
-117
-116
-115
-115
-114
-113
-112
-111
-112
-111
-110
-109
-108
-108
-108
-107
-107
-106
-105
-105
-104
-104
-104
-103
-103
-102
-102
-102
-101
-101
-101
-101
-101
-101
-101
-101
-101
-100
-100
-100
-100
-100
-100
-100
-101
-101
-100
-100
-101
-100
-100
-100
-99
-99
-99
-99
-98
-98
-98
-98
-99
-99
-99
-98
-98
-98
-97
-97
-97
-97
-97
-97
-97
-97
-97
-97
-97
-97
-97
-97
-97
-97
-98
-98
-98
-98
-97
-98
-98
-98
-98
-98
-97
-97
-97
-97
-96
-96
-97
-97
-96
-96
-96
-96
-96
-95
-94
-94
-95
-95
-95
-95
-95
-95
-95
-95
-95
-95
-95
-95
-95
-95
-95
-95
-95
-95
-95
-95
-95
-95
-94
-94
-94
-95
-95
-95
-95
-95
-95
-95
-95
-95
-95
-95
-95
-96
-96
-96
-96
-97
-97
-97
-98
-97
-97
-98
-97
-97
-98
-98
-98
-98
-98
-99
-98
-98
-98
-98
-99
-99
-99
-99
-99
-99
-99
-99
-99
-99
-99
-100
-99
-99
-99
-99
-99
-100
-100
-100
-100
-100
-100
-100
-100
-100
-100
-100
-101
-101
-101
-101
-101
-101
-102
-102
-102
-103
-103
-103
-104
-104
-104
-105
-105
-105
-104
-104
-104
-105
-105
-105
-105
-105
-105
-105
-105
-105
-105
-105
-105
-105
-105
-106
-105
-105
-105
-105
-106
-105
-105
-106
-106
-106
-106
-106
-106
-106
-106
-107
-107
-107
-107
-107
-107
-107
-107
-108
-108
-108
-108
-108
-108
-108
-108
-108
-109
-109
-109
-108
-108
-108
-108
-108
-108
-108
-107
-108
-108
-108
-108
-107
-107
-106
-107
-107
-107
-107
-107
-107
-107
-107
-107
-108
-107
-108
-108
-108
-108
-109
-109
-109
-109
-108
-108
-108
-109
-109
-108
-108
-108
-108
-109
-108
-108
-108
-108
-108
-108
-108
-108
-108
-108
-108
-108
-108
-109
-109
-109
-109
-109
-109
-109
-109
-109
-109
-109
-109
-110
-110
-110
-110
-109
-109
-109
-109
-109
-109
-109
-109
-109
-110
-111
-111
-111
-111
-111
-110
-111
-111
-111
-111
-111
-111
-112
-112
-112
-112
-112
-111
-112
-112
-112
-112
-112
-112
-112
-112
-112
-112
-112
-111
-111
-111
-111
-111
-111
-111
-111
-110
-110
-111
-111
-111
-111
-110
-110
-111
-111
-111
-111
-111
-111
-111
-111
-111
-111
-111
-111
-111
-111
-111
-110
-111
-111
-111
-111
-111
-111
-111
-111
-111
-111
-111
-111
-111
-111
-111
-112
-112
-112
-112
-112
-112
-112
-112
-112
-112
-112
-112
-112
-113
-113
-113
-113
-112
-112
-113
-113
-113
-113
-113
-113
-113
-112
-112
-112
-112
-112
-112
-112
-112
-112
-110
-110
-110
-110
-111
-110
-110
-110
-110
-110
-111
-111
-111
-111
-111
-112
-112
-113
-113
-113
-113
-113
-113
-113
-114
-114
-114
-114
-114
-114
-113
-113
-113
-113
-113
-112
-112
-112
-112
-112
-112
-112
-112
-112
-112
-112
-112
-112
-112
-112
-112
-112
-112
-112
-112
-112
-112
-112
-112
-112
-112
-112
-112
-112
-112
-112
-112
-112
-112
-112
-112
-112
-112
-112
-112
-112
-112
-112
-112
-112
-112
-113
-113
-113
-113
-113
-114
-114
-113
-113
-114
-114
-114
-114
-114
-114
-113
-113
-113
-112
-112
-112
-112
-112
-112
-112
-112
-111
-111
-111
-111
-111
-111
-112
-112
-112
-111
-111
-111
-111
-113
-112
-112
-112
-112
-112
-112
-113
-113
-113
-113
-113
-113
-113
-113
-113
-113
-114
-114
-114
-114
-114
-114
-114
-115
-114
-114
-114
-114
-114
-113
-114
-114
-114
-114
-114
-114
-114
-114
-114
-113
-113
-113
-113
-113
-113
-112
-112
-112
-113
-113
-113
-113
-113
-112
-112
-112
-112
-112
-112
-113
-113
-113
-113
-113
-113
-113
-114
-114
-113
-113
-113
-113
-114
-115
-115
-115
-114
-114
-114
-114
-114
-114
-114
-113
-113
-114
-114
-114
-114
-114
-114
-114
-113
-113
-114
-114
-114
-114
-113
-113
-113
-112
-113
-112
-112
-113
-113
-112
-112
-112
-112
-112
-112
-112
-113
-113
-113
-113
-113
-114
-113
-113
-113
-113
-114
-114
-114
-113
-113
-113
-113
-113
-113
-113
-113
-113
-113
-113
-113
-113
-113
-113
-113
-113
-113
-113
-113
-114
-114
-114
-115
-115
-115
-115
-115
-115
-114
-114
-114
-114
-114
-114
-113
-113
-112
-112
-112
-112
-112
-111
-111
-111
-111
-110
-110
-110
-109
-109
-109
-109
-108
-108
-107
-107
-106
-106
-105
-105
-104
-104
-103
-102
-102
-102
-101
-101
-101
-101
-101
-101
-101
-101
-100
-100
-100
-100
-100
-100
-100
-101
-100
-100
-100
-99
-99
-100
-100
-99
-100
-100
-100
-101
-101
-101
-102
-102
-103
-104
-104
-105
-105
-106
-107
-108
-109
-110
-110
-111
-112
-112
-113
-113
-115
-116
-116
-117
-117
-118
-118
-119
-119
-120
-121
-121
-122
-122
-122
-122
-122
-123
-123
-124
-124
-124
-124
-125
-125
-125
-125
-126
-126
-126
-126
-126
-126
-126
-126
-126
-126
-126
-125
-125
-124
-124
-125
-123
-123
-123
-123
-123
-122
-122
-122
-121
-121
-121
-120
-120
-120
-120
-120
-120
-120
-119
-119
-119
-119
-119
-119
-119
-119
-119
-119
-119
-119
-119
-118
-118
-119
-119
-119
-119
-119
-119
-119
-119
-119
-119
-119
-118
-118
-118
-118
-119
-119
-118
-118
-118
-118
-118
-118
-118
-118
-118
-118
-118
-118
-117
-117
-117
-116
-117
-117
-116
-117
-117
-116
-116
-116
-116
-116
-114
-114
-113
-113
-112
-111
-109
-106
-105
-102
-99
-96
-93
-89
-85
-81
-77
-71
-66
-61
-55
-49
-43
-38
-31
-25
-19
-13
-7
-2
3
9
14
18
24
27
30
34
37
38
41
42
43
43
42
43
42
43
42
43
42
43
43
43
43
44
45
46
47
48
51
52
54
57
59
62
64
66
68
70
73
74
76
78
80
83
85
87
90
92
95
99
102
106
110
115
120
125
131
137
143
149
156
162
170
177
184
191
198
205
212
220
227
233
241
247
254
261
266
271
276
279
281
283
283
281
279
276
270
263
253
243
231
217
202
186
169
151
131
112
93
73
54
37
19
1
-15
-30
-45
-58
-69
-79
-89
-96
-103
-108
-113
-117
-119
-122
-123
-125
-125
-125
-126
-127
-126
-127
-127
-127
-127
-127
-127
-127
-128
-128
-129
-130
-130
-130
-131
-132
-132
-133
-134
-134
-135
-135
-136
-136
-137
-137
-138
-138
-139
-140
-140
-140
-141
-141
-142
-142
-143
-143
-144
-144
-144
-145
-145
-145
-145
-145
-145
-145
-145
-145
-145
-145
-146
-146
-145
-145
-146
-146
-146
-146
-146
-147
-147
-148
-148
-149
-150
-150
-151
-150
-151
-151
-151
-152
-152
-152
-152
-153
-153
-153
-153
-153
-153
-153
-153
-154
-154
-154
-153
-154
-154
-154
-155
-155
-155
-156
-156
-157
-157
-157
-158
-158
-158
-158
-159
-159
-159
-160
-161
-160
-161
-161
-162
-162
-162
-163
-163
-164
-164
-164
-165
-165
-165
-166
-166
-166
-167
-167
-167
-168
-168
-169
-169
-170
-169
-170
-171
-171
-171
-172
-172
-172
-173
-173
-173
-174
-174
-175
-175
-176
-176
-177
-177
-178
-178
-179
-179
-180
-181
-182
-182
-183
-183
-184
-185
-185
-186
-187
-187
-188
-188
-189
-190
-190
-191
-192
-193
-193
-194
-195
-196
-196
-197
-198
-199
-200
-201
-202
-202
-203
-205
-206
-205
-207
-208
-208
-209
-210
-211
-212
-212
-212
-213
-214
-214
-215
-216
-216
-217
-217
-217
-218
-219
-219
-220
-220
-221
-222
-223
-223
-224
-224
-225
-226
-227
-228
-228
-229
-229
-229
-230
-230
-231
-232
-232
-232
-232
-233
-232
-232
-231
-231
-231
-231
-230
-230
-229
-229
-228
-228
-228
-228
-227
-226
-226
-225
-224
-225
-224
-223
-224
-223
-222
-222
-222
-221
-221
-220
-219
-218
-218
-217
-216
-215
-215
-214
-213
-212
-210
-209
-208
-206
-205
-203
-202
-201
-199
-198
-196
-195
-193
-191
-190
-189
-187
-186
-184
-182
-181
-179
-178
-177
-175
-174
-172
-172
-170
-169
-167
-166
-164
-163
-161
-160
-158
-157
-155
-155
-153
-152
-150
-149
-148
-146
-144
-143
-142
-140
-139
-138
-137
-135
-135
-134
-133
-132
-131
-130
-129
-129
-128
-128
-127
-126
-125
-125
-124
-124
-123
-123
-123
-123
-122
-121
-122
-121
-121
-120
-120
-121
-120
-120
-119
-119
-119
-118
-119
-118
-118
-118
-118
-118
-118
-117
-118
-118
-118
-117
-117
-117
-116
-117
-117
-117
-117
-117
-116
-117
-117
-117
-116
-116
-117
-117
-116
-116
-117
-116
-116
-116
-116
-116
-116
-115
-115
-115
-115
-115
-115
-115
-115
-115
-115
-115
-115
-115
-115
-114
-114
-114
-114
-114
-114
-114
-114
-114
-114
-114
-113
-113
-113
-113
-113
-113
-113
-113
-113
-113
-113
-113
-113
-113
-113
-112
-112
-112
-112
-112
-112
-112
-112
-111
-111
-111
-111
-112
-112
-112
-112
-112
-113
-113
-113
-114
-113
-113
-113
-113
-113
-113
-113
-114
-114
-114
-114
-114
-115
-115
-114
-114
-114
-114
-115
-115
-115
-114
-115
-115
-115
-115
-114
-114
-114
-114
-114
-114
-115
-115
-115
-115
-114
-115
-115
-115
-115
-115
-115
-115
-116
-116
-116
-116
-116
-117
-117
-117
-117
-118
-118
-118
-118
-119
-119
-119
-119
-120
-120
-120
-120
-121
-121
-121
-121
-122
-122
-122
-121
-121
-121
-121
-121
-120
-121
-121
-121
-121
-122
-122
-122
-123
-122
-122
-122
-123
-122
-122
-123
-123
-123
-123
-123
-123
-123
-124
-124
-124
-123
-124
-124
-123
-124
-124
-123
-123
-123
-123
-123
-123
-123
-123
-123
-123
-123
-123
-123
-123
-123
-123
-122
-123
-123
-123
-123
-123
-123
-124
-123
-123
-123
-123
-124
-124
-124
-124
-124
-124
-124
-124
-125
-125
-125
-125
-125
-125
-125
-125
-126
-126
-126
-126
-126
-126
-126
-126
-126
-127
-127
-126
-126
-126
-126
-127
-127
-127
-128
-128
-127
-127
-127
-127
-127
-126
-126
-126
-126
-126
-126
-126
-126
-126
-125
-125
-125
-125
-125
-125
-125
-125
-125
-125
-125
-125
-125
-125
-125
-125
-125
-125
-126
-126
-126
-126
-126
-126
-126
-126
-126
-126
-125
-125
-125
-126
-126
-126
-126
-126
-126
-126
-127
-127
-127
-127
-127
-128
-128
-128
-128
-128
-128
-128
-128
-129
-129
-129
-129
-129
-129
-129
-129
-129
-129
-129
-129
-130
-129
-129
-129
-129
-129
-129
-128
-128
-128
-128
-127
-128
-128
-128
-127
-127
-127
-126
-126
-126
-127
-127
-127
-127
-127
-127
-127
-127
-127
-127
-128
-128
-127
-127
-127
-128
-128
-128
-128
-128
-128
-128
-128
-128
-127
-128
-128
-127
-128
-128
-128
-128
-128
-128
-128
-128
-128
-128
-129
-129
-129
-128
-128
-128
-128
-128
-128
-128
-129
-129
-129
-129
-129
-129
-128
-128
-128
-128
-129
-128
-127
-127
-127
-127
-127
-127
-127
-127
-128
-127
-127
-127
-127
-127
-127
-128
-128
-127
-127
-127
-128
-128
-129
-129
-129
-129
-129
-129
-129
-129
-130
-130
-130
-130
-129
-129
-128
-129
-129
-128
-128
-128
-128
-128
-128
-128
-127
-127
-127
-127
-128
-128
-127
-127
-127
-127
-127
-127
-127
-127
-127
-127
-127
-127
-128
-128
-128
-128
-128
-128
-127
-127
-127
-127
-127
-126
-127
-128
-127
-127
-128
-128
-128
-128
-128
-128
-128
-128
-128
-128
-128
-128
-128
-128
-128
-128
-127
-127
-127
-127
-127
-127
-127
-127
-127
-128
-127
-127
-127
-128
-128
-128
-128
-127
-127
-127
-128
-128
-128
-128
-128
-128
-128
-128
-128
-128
-128
-128
-129
-129
-129
-129
-129
-128
-128
-128
-128
-128
-128
-128
-128
-128
-128
-128
-128
-127
-128
-128
-127
-127
-128
-128
-128
-128
-127
-128
-128
-128
-127
-127
-128
-128
-128
-128
-128
-128
-129
-129
-128
-128
-128
-129
-129
-129
-129
-129
-129
-130
-130
-129
-129
-129
-129
-129
-129
-130
-130
-130
-130
-130
-130
-130
-130
-130
-130
-130
-130
-130
-130
-130
-130
-130
-130
-129
-129
-129
-129
-129
-129
-129
-129
-129
-129
-129
-128
-128
-128
-129
-128
-128
-128
-128
-128
-128
-128
-128
-128
-128
-128
-128
-128
-127
-127
-126
-126
-125
-124
-123
-123
-122
-122
-122
-121
-120
-119
-119
-119
-118
-118
-118
-118
-118
-117
-118
-118
-118
-118
-118
-119
-119
-120
-119
-119
-119
-119
-119
-119
-119
-120
-120
-120
-120
-120
-120
-121
-121
-121
-122
-122
-123
-123
-124
-124
-125
-125
-126
-127
-128
-129
-130
-131
-132
-132
-133
-133
-134
-136
-136
-137
-138
-138
-139
-139
-140
-140
-141
-141
-142
-142
-142
-142
-143
-143
-142
-142
-142
-142
-142
-142
-142
-142
-142
-142
-143
-143
-143
-142
-142
-142
-143
-144
-143
-143
-143
-143
-142
-142
-142
-142
-142
-141
-141
-141
-141
-141
-140
-140
-140
-140
-140
-140
-139
-138
-138
-138
-138
-138
-138
-138
-138
-138
-138
-138
-138
-137
-137
-136
-136
-136
-136
-136
-136
-136
-136
-135
-136
-136
-136
-136
-135
-135
-135
-135
-134
-134
-134
-133
-133
-133
-133
-133
-132
-132
-132
-132
-132
-132
-132
-132
-131
-131
-131
-131
-129
-129
-129
-129
-129
-129
-129
-129
-129
-128
-128
-128
-127
-126
-125
-123
-121
-119
-117
-115
-112
-108
-106
-102
-97
-93
-88
-82
-78
-72
-66
-60
-53
-47
-40
-35
-28
-22
-16
-11
-6
0
5
10
14
17
21
24
26
30
31
32
32
33
32
33
32
32
31
31
31
31
31
31
31
32
32
33
34
36
37
39
40
42
44
47
49
51
53
55
58
59
61
62
64
67
69
72
74
77
80
84
88
91
95
100
105
110
115
120
126
132
138
144
152
158
164
170
177
184
191
198
204
211
218
226
232
239
244
250
254
259
261
264
264
265
262
260
256
249
242
234
223
210
197
183
167
151
134
116
97
79
61
44
27
10
-5
-21
-34
-47
-58
-69
-78
-86
-92
-99
-103
-107
-110
-113
-115
-117
-117
-118
-119
-119
-120
-120
-119
-120
-120
-120
-120
-121
-121
-121
-121
-122
-122
-123
-123
-123
-123
-124
-124
-125
-126
-126
-127
-127
-127
-127
-127
-129
-129
-129
-129
-129
-130
-130
-130
-131
-131
-131
-131
-131
-131
-131
-132
-132
-132
-132
-132
-132
-133
-133
-133
-133
-133
-134
-134
-134
-134
-134
-135
-135
-135
-135
-135
-135
-136
-136
-135
-136
-136
-136
-136
-136
-136
-136
-136
-136
-136
-137
-137
-136
-136
-136
-136
-136
-136
-136
-136
-137
-137
-137
-137
-137
-138
-138
-139
-138
-140
-140
-140
-140
-141
-141
-141
-142
-142
-142
-143
-143
-143
-143
-145
-145
-145
-145
-146
-146
-146
-146
-146
-146
-146
-147
-147
-147
-147
-147
-147
-147
-148
-148
-149
-148
-149
-149
-149
-149
-150
-151
-150
-151
-152
-152
-153
-154
-154
-155
-155
-155
-156
-156
-157
-158
-158
-159
-159
-160
-160
-160
-161
-161
-162
-163
-164
-164
-164
-165
-166
-167
-167
-168
-169
-170
-171
-172
-172
-173
-174
-175
-176
-177
-177
-178
-179
-179
-180
-180
-181
-181
-182
-183
-183
-184
-184
-184
-185
-185
-186
-186
-187
-188
-189
-189
-189
-190
-191
-192
-193
-192
-193
-194
-194
-194
-195
-196
-195
-196
-197
-197
-197
-198
-199
-198
-199
-199
-200
-201
-201
-201
-202
-202
-202
-203
-203
-203
-204
-205
-205
-205
-205
-205
-205
-205
-205
-205
-205
-204
-204
-204
-203
-204
-203
-203
-202
-202
-201
-201
-200
-199
-199
-198
-197
-197
-196
-195
-194
-193
-192
-191
-190
-190
-189
-188
-187
-186
-185
-184
-183
-182
-181
-180
-179
-178
-176
-174
-173
-172
-171
-169
-167
-166
-164
-162
-160
-159
-157
-155
-153
-151
-150
-148
-146
-144
-143
-141
-140
-139
-137
-135
-135
-133
-132
-130
-129
-127
-126
-125
-123
-123
-121
-119
-118
-117
-115
-114
-112
-112
-110
-109
-107
-106
-106
-105
-104
-103
-102
-100
-100
-99
-98
-97
-96
-97
-96
-95
-94
-94
-93
-92
-92
-91
-90
-90
-89
-89
-89
-88
-87
-86
-86
-86
-85
-85
-85
-84
-85
-84
-84
-84
-84
-83
-83
-83
-83
-83
-83
-82
-82
-83
-82
-82
-82
-82
-81
-81
-80
-80
-79
-79
-79
-80
-80
-79
-79
-79
-79
-80
-79
-79
-79
-80
-79
-79
-80
-80
-80
-80
-80
-80
-80
-80
-80
-79
-79
-79
-79
-79
-79
-79
-78
-78
-78
-77
-77
-77
-76
-76
-76
-76
-75
-75
-75
-75
-75
-75
-74
-74
-74
-74
-74
-74
-74
-74
-73
-73
-73
-73
-73
-72
-72
-72
-72
-72
-71
-72
-72
-72
-72
-72
-72
-72
-72
-72
-71
-71
-71
-71
-71
-72
-72
-72
-71
-71
-70
-70
-70
-70
-71
-71
-71
-71
-72
-72
-72
-72
-72
-72
-72
-72
-73
-73
-72
-72
-73
-73
-73
-72
-72
-72
-72
-72
-72
-72
-72
-72
-72
-72
-72
-72
-72
-73
-73
-73
-73
-73
-73
-73
-73
-73
-73
-74
-74
-74
-73
-74
-74
-74
-75
-74
-75
-75
-75
-76
-76
-76
-76
-76
-76
-76
-76
-77
-77
-76
-77
-77
-77
-77
-76
-77
-77
-76
-77
-76
-75
-76
-76
-75
-75
-75
-74
-74
-74
-74
-74
-73
-73
-73
-73
-73
-73
-73
-73
-73
-73
-73
-74
-74
-74
-74
-74
-75
-75
-75
-75
-75
-75
-75
-75
-75
-75
-76
-76
-76
-76
-76
-76
-76
-76
-76
-76
-76
-76
-76
-76
-76
-76
-76
-77
-77
-77
-76
-76
-77
-77
-77
-77
-77
-76
-76
-76
-76
-76
-76
-76
-76
-76
-76
-76
-75
-75
-75
-75
-76
-76
-75
-76
-76
-76
-76
-76
-76
-76
-76
-76
-75
-75
-75
-75
-75
-75
-75
-75
-75
-75
-75
-75
-75
-75
-75
-74
-75
-75
-75
-75
-75
-75
-75
-75
-76
-76
-77
-77
-77
-77
-77
-76
-77
-77
-77
-78
-77
-77
-77
-77
-77
-77
-77
-77
-77
-77
-77
-76
-76
-76
-76
-76
-76
-76
-76
-76
-76
-76
-76
-76
-76
-76
-76
-76
-76
-76
-76
-75
-75
-75
-75
-76
-75
-75
-75
-75
-74
-74
-75
-75
-75
-75
-75
-75
-75
-76
-76
-76
-76
-76
-76
-77
-77
-77
-78
-78
-78
-78
-79
-78
-78
-78
-78
-79
-79
-78
-79
-79
-79
-79
-79
-79
-79
-79
-79
-79
-79
-79
-79
-78
-78
-78
-78
-77
-77
-77
-76
-77
-77
-77
-76
-76
-77
-76
-76
-76
-77
-76
-76
-76
-76
-77
-77
-77
-77
-77
-77
-76
-76
-76
-77
-77
-77
-76
-76
-76
-76
-76
-75
-75
-75
-74
-74
-74
-74
-74
-74
-74
-73
-73
-73
-73
-73
-73
-73
-73
-73
-73
-73
-72
-73
-73
-73
-73
-74
-73
-73
-73
-73
-74
-74
-74
-74
-74
-74
-74
-73
-73
-73
-73
-73
-73
-73
-73
-72
-72
-72
-72
-71
-71
-71
-71
-71
-71
-71
-71
-71
-71
-71
-70
-70
-69
-71
-71
-71
-71
-72
-72
-71
-71
-71
-71
-72
-72
-71
-71
-72
-72
-72
-72
-72
-71
-71
-71
-71
-70
-70
-70
-70
-70
-70
-70
-70
-70
-70
-70
-70
-69
-69
-69
-69
-69
-69
-70
-70
-70
-70
-69
-69
-69
-69
-69
-68
-68
-68
-68
-68
-68
-68
-68
-68
-67
-67
-67
-67
-67
-67
-67
-67
-67
-67
-68
-68
-68
-68
-68
-68
-68
-67
-67
-67
-68
-68
-68
-68
-68
-68
-68
-68
-68
-68
-69
-68
-69
-69
-69
-69
-69
-69
-69
-69
-68
-68
-69
-69
-68
-68
-67
-67
-67
-67
-66
-66
-66
-65
-65
-65
-64
-64
-64
-64
-63
-63
-62
-63
-63
-62
-61
-61
-60
-60
-59
-59
-59
-58
-58
-58
-57
-57
-56
-56
-56
-56
-56
-56
-56
-56
-56
-56
-57
-57
-58
-57
-58
-58
-58
-58
-58
-59
-59
-59
-59
-59
-59
-60
-60
-60
-60
-60
-61
-60
-61
-61
-62
-62
-63
-64
-65
-65
-65
-66
-68
-69
-69
-70
-71
-71
-73
-74
-74
-75
-76
-77
-77
-78
-78
-79
-79
-80
-80
-80
-81
-81
-82
-82
-82
-83
-83
-83
-82
-83
-83
-83
-84
-83
-83
-83
-82
-82
-83
-83
-82
-82
-82
-82
-82
-81
-81
-81
-81
-81
-81
-81
-81
-80
-80
-80
-79
-79
-79
-79
-79
-78
-78
-78
-78
-78
-78
-78
-78
-78
-78
-78
-77
-77
-77
-78
-78
-78
-78
-78
-78
-78
-78
-78
-78
-78
-78
-78
-78
-78
-78
-78
-78
-78
-78
-77
-77
-77
-77
-77
-77
-77
-77
-77
-77
-78
-77
-77
-77
-77
-77
-77
-77
-77
-77
-77
-77
-76
-76
-76
-76
-75
-76
-76
-75
-75
-75
-74
-74
-72
-72
-70
-68
-66
-65
-62
-59
-56
-53
-49
-45
-41
-36
-31
-26
-21
-15
-9
-3
3
9
15
20
26
31
37
42
47
52
57
60
65
69
72
74
77
79
80
80
81
81
81
80
81
80
81
81
81
81
82
83
83
84
85
86
88
90
92
94
96
98
100
102
104
106
108
110
112
114
116
118
120
123
125
127
129
132
135
139
143
146
151
156
162
167
174
180
186
192
199
206
212
219
226
234
241
249
256
263
271
277
285
292
298
305
310
314
317
319
322
321
321
317
313
308
299
290
279
267
253
237
221
203
185
165
145
127
107
88
68
50
33
19
3
-11
-23
-35
-45
-54
-62
-68
-73
-77
-82
-84
-86
-89
-89
-91
-91
-91
-92
-93
-93
-93
-94
-94
-95
-95
-95
-95
-96
-97
-98
-98
-99
-100
-101
-101
-102
-102
-103
-104
-105
-105
-105
-106
-106
-107
-107
-108
-108
-109
-109
-110
-110
-111
-111
-111
-112
-112
-112
-112
-113
-113
-113
-113
-114
-114
-114
-115
-115
-114
-114
-114
-115
-114
-115
-115
-115
-115
-115
-116
-116
-116
-117
-117
-118
-118
-118
-119
-119
-120
-120
-120
-121
-121
-121
-121
-122
-122
-122
-122
-123
-123
-123
-123
-123
-123
-124
-124
-125
-125
-125
-126
-126
-127
-127
-127
-127
-127
-128
-128
-128
-129
-129
-129
-130
-130
-130
-130
-131
-131
-131
-132
-133
-133
-134
-133
-133
-134
-134
-136
-136
-137
-137
-138
-138
-138
-139
-139
-140
-140
-141
-141
-142
-142
-143
-143
-144
-144
-145
-146
-146
-146
-147
-148
-148
-149
-150
-151
-150
-151
-151
-151
-152
-153
-153
-153
-153
-154
-155
-156
-155
-156
-157
-157
-158
-159
-160
-160
-161
-162
-163
-164
-164
-165
-166
-166
-167
-169
-170
-170
-172
-173
-174
-175
-176
-177
-177
-178
-179
-180
-181
-181
-182
-183
-184
-184
-185
-186
-187
-187
-188
-188
-189
-189
-190
-191
-191
-192
-193
-194
-194
-195
-196
-197
-197
-197
-198
-198
-199
-199
-200
-201
-201
-201
-201
-203
-202
-202
-203
-203
-203
-203
-204
-204
-204
-204
-204
-204
-205
-205
-205
-205
-205
-205
-205
-204
-204
-204
-204
-204
-204
-204
-204
-203
-203
-202
-201
-200
-201
-200
-199
-199
-197
-196
-195
-195
-194
-193
-192
-191
-190
-189
-188
-188
-186
-185
-184
-183
-181
-181
-180
-179
-177
-175
-175
-173
-172
-171
-169
-168
-166
-164
-163
-161
-160
-158
-156
-155
-153
-152
-150
-149
-147
-145
-143
-142
-141
-139
-139
-137
-136
-134
-132
-132
-130
-128
-126
-126
-124
-122
-121
-120
-119
-117
-116
-115
-113
-113
-111
-110
-108
-108
-107
-106
-105
-104
-103
-103
-102
-101
-100
-99
-98
-98
-97
-96
-97
-95
-95
-94
-94
-94
-93
-93
-93
-92
-92
-91
-91
-91
-90
-90
-91
-90
-90
-90
-90
-90
-89
-90
-89
-89
-88
-89
-88
-88
-88
-88
-87
-87
-87
-87
-86
-87
-87
-86
-85
-85
-85
-85
-85
-85
-85
-85
-85
-84
-83
-83
-83
-83
-83
-82
-82
-82
-82
-82
-82
-82
-82
-82
-82
-82
-82
-82
-82
-82
-82
-82
-83
-82
-82
-82
-82
-82
-82
-82
-81
-81
-81
-82
-82
-82
-82
-82
-82
-82
-82
-80
-81
-81
-81
-81
-81
-81
-81
-81
-80
-81
-81
-79
-79
-79
-79
-79
-79
-79
-79
-78
-78
-77
-77
-77
-77
-77
-77
-77
-77
-77
-77
-78
-78
-78
-78
-79
-79
-79
-80
-80
-79
-79
-79
-79
-79
-79
-79
-79
-79
-78
-78
-78
-77
-77
-77
-77
-77
-77
-77
-77
-77
-77
-77
-77
-77
-78
-78
-78
-78
-78
-78
-79
-79
-79
-80
-80
-80
-80
-81
-81
-81
-81
-82
-81
-81
-81
-82
-82
-82
-81
-81
-81
-81
-81
-82
-82
-82
-82
-82
-82
-82
-82
-82
-82
-82
-82
-82
-81
-81
-81
-82
-82
-82
-81
-81
-81
-81
-81
-81
-82
-82
-82
-82
-82
-82
-82
-82
-82
-82
-84
-84
-84
-84
-84
-84
-84
-84
-85
-85
-85
-85
-84
-85
-85
-85
-85
-85
-85
-85
-85
-85
-85
-85
-84
-83
-83
-83
-83
-84
-84
-84
-83
-83
-83
-83
-82
-83
-83
-83
-83
-82
-82
-83
-83
-83
-83
-83
-83
-83
-83
-83
-83
-83
-83
-83
-83
-83
-83
-83
-83
-83
-83
-83
-83
-83
-83
-84
-84
-84
-84
-84
-84
-84
-84
-84
-84
-84
-84
-84
-84
-84
-84
-84
-84
-84
-84
-84
-84
-84
-84
-84
-84
-84
-85
-84
-84
-84
-85
-85
-84
-85
-85
-85
-85
-85
-85
-85
-85
-85
-85
-86
-85
-85
-86
-86
-86
-86
-86
-85
-85
-85
-86
-86
-85
-85
-85
-85
-85
-85
-85
-85
-86
-86
-86
-86
-85
-85
-85
-85
-85
-85
-86
-85
-85
-85
-85
-85
-84
-85
-84
-84
-84
-83
-84
-84
-83
-83
-83
-84
-83
-83
-83
-83
-83
-84
-84
-85
-84
-84
-85
-85
-84
-85
-85
-85
-85
-85
-85
-85
-85
-85
-85
-85
-85
-85
-85
-85
-85
-85
-85
-85
-84
-85
-85
-85
-85
-85
-86
-86
-86
-86
-86
-86
-85
-85
-86
-86
-85
-85
-85
-85
-85
-84
-84
-84
-83
-84
-84
-83
-84
-84
-85
-84
-84
-85
-85
-85
-85
-85
-85
-85
-85
-86
-85
-85
-85
-85
-85
-85
-85
-85
-85
-84
-85
-84
-84
-84
-84
-84
-84
-84
-84
-84
-85
-85
-85
-85
-85
-85
-85
-85
-85
-85
-85
-85
-85
-85
-85
-85
-85
-85
-84
-85
-85
-84
-83
-84
-84
-84
-84
-84
-84
-84
-84
-84
-85
-85
-85
-85
-85
-86
-86
-86
-86
-86
-86
-85
-85
-85
-86
-86
-86
-85
-85
-86
-86
-86
-86
-86
-86
-86
-86
-86
-85
-85
-85
-85
-85
-86
-86
-86
-86
-85
-85
-85
-85
-85
-85
-85
-85
-84
-84
-85
-85
-85
-85
-85
-85
-85
-84
-85
-85
-85
-85
-85
-85
-85
-85
-85
-85
-85
-86
-86
-86
-85
-84
-84
-84
-84
-84
-84
-84
-84
-84
-84
-84
-84
-83
-83
-83
-83
-82
-82
-82
-81
-81
-80
-80
-80
-79
-79
-79
-78
-78
-77
-77
-77
-77
-76
-75
-75
-74
-74
-74
-74
-74
-74
-74
-74
-73
-73
-73
-73
-73
-73
-73
-73
-73
-73
-73
-73
-73
-74
-75
-74
-74
-74
-76
-76
-76
-77
-77
-78
-78
-79
-79
-80
-81
-82
-82
-83
-83
-84
-85
-85
-86
-87
-88
-88
-89
-89
-90
-91
-92
-93
-94
-95
-95
-96
-97
-97
-98
-98
-99
-99
-99
-100
-100
-99
-100
-100
-100
-100
-100
-99
-99
-99
-98
-99
-98
-99
-98
-99
-99
-99
-99
-99
-99
-99
-98
-99
-99
-99
-99
-98
-98
-98
-98
-96
-96
-96
-96
-95
-95
-94
-93
-93
-93
-92
-92
-92
-91
-91
-92
-91
-91
-91
-92
-91
-91
-91
-91
-91
-91
-90
-91
-91
-91
-91
-90
-90
-91
-91
-90
-90
-90
-91
-91
-91
-91
-90
-90
-90
-90
-90
-90
-90
-90
-90
-90
-91
-90
-90
-90
-90
-89
-89
-89
-89
-89
-89
-89
-88
-88
-88
-88
-88
-87
-87
-87
-87
-85
-85
-85
-84
-83
-82
-80
-78
-76
-74
-71
-68
-66
-62
-58
-54
-49
-44
-39
-34
-29
-23
-18
-12
-6
0
7
11
16
22
27
31
36
41
46
50
54
57
60
63
64
66
67
68
68
68
68
68
67
68
68
68
69
70
70
71
71
73
74
76
77
79
81
82
84
87
88
91
92
94
96
98
100
102
103
104
107
109
112
115
118
121
125
128
132
137
142
146
153
159
165
170
177
184
190
197
204
210
217
224
232
239
246
253
261
268
275
282
289
295
300
306
309
312
315
315
315
312
308
303
297
289
278
267
253
238
221
204
186
167
147
128
108
89
69
51
33
18
2
-13
-26
-38
-48
-58
-66
-73
-79
-84
-87
-90
-92
-95
-96
-97
-97
-98
-98
-99
-98
-98
-97
-98
-98
-98
-98
-98
-99
-99
-99
-99
-100
-101
-101
-102
-102
-103
-104
-105
-105
-106
-107
-108
-109
-109
-110
-110
-110
-110
-111
-111
-111
-112
-112
-112
-112
-113
-113
-113
-112
-113
-114
-113
-113
-113
-114
-113
-113
-113
-113
-114
-114
-114
-114
-115
-115
-115
-115
-114
-114
-115
-115
-115
-116
-116
-116
-117
-117
-117
-117
-117
-117
-117
-118
-118
-118
-119
-119
-119
-119
-120
-120
-120
-120
-119
-120
-120
-120
-121
-121
-122
-122
-123
-123
-122
-124
-123
-124
-125
-124
-125
-125
-126
-126
-127
-126
-127
-127
-128
-128
-127
-128
-128
-129
-129
-128
-129
-129
-130
-130
-130
-131
-132
-132
-132
-133
-133
-134
-134
-135
-136
-136
-137
-138
-138
-138
-139
-139
-140
-141
-141
-141
-142
-143
-143
-144
-145
-144
-145
-145
-146
-147
-148
-148
-148
-149
-149
-150
-151
-152
-152
-153
-153
-154
-155
-156
-156
-157
-158
-159
-160
-161
-162
-163
-164
-164
-165
-166
-166
-168
-168
-169
-170
-171
-171
-172
-173
-173
-174
-175
-176
-176
-177
-178
-179
-179
-180
-182
-182
-183
-184
-184
-184
-184
-185
-186
-186
-187
-188
-189
-189
-190
-190
-191
-191
-192
-193
-193
-194
-195
-196
-196
-197
-197
-197
-198
-198
-199
-199
-200
-200
-200
-200
-200
-200
-200
-200
-199
-199
-199
-198
-198
-198
-198
-198
-198
-197
-197
-197
-196
-196
-196
-196
-195
-194
-193
-194
-193
-192
-191
-191
-190
-189
-189
-188
-187
-186
-185
-184
-183
-181
-181
-180
-178
-178
-176
-176
-174
-173
-171
-171
-169
-167
-166
-164
-163
-161
-159
-157
-155
-153
-153
-151
-149
-147
-145
-144
-142
-140
-139
-137
-136
-134
-133
-131
-130
-129
-127
-125
-124
-122
-121
-119
-117
-117
-115
-114
-112
-111
-109
-108
-107
-105
-104
-102
-101
-100
-99
-97
-97
-96
-94
-93
-93
-92
-91
-91
-90
-89
-89
-88
-88
-87
-87
-86
-85
-85
-85
-85
-84
-84
-83
-84
-83
-82
-82
-81
-81
-82
-81
-81
-80
-80
-80
-80
-80
-80
-80
-80
-79
-79
-79
-79
-78
-78
-78
-78
-77
-77
-77
-77
-77
-76
-76
-76
-76
-76
-77
-77
-76
-76
-76
-76
-76
-76
-77
-77
-77
-77
-77
-77
-77
-77
-77
-77
-77
-77
-77
-77
-77
-77
-77
-77
-76
-77
-76
-77
-77
-76
-76
-76
-76
-76
-76
-75
-75
-75
-75
-75
-75
-74
-74
-74
-74
-74
-73
-73
-73
-73
-73
-73
-72
-72
-72
-72
-72
-72
-72
-72
-72
-72
-72
-72
-72
-72
-72
-72
-72
-72
-73
-73
-73
-73
-73
-73
-74
-74
-74
-74
-75
-74
-74
-74
-75
-75
-75
-75
-74
-74
-74
-74
-74
-74
-74
-74
-74
-74
-74
-74
-76
-76
-75
-75
-76
-76
-76
-77
-78
-78
-78
-78
-78
-78
-78
-78
-78
-78
-77
-77
-77
-77
-77
-77
-77
-77
-77
-77
-77
-77
-77
-77
-78
-78
-78
-79
-79
-79
-80
-80
-80
-80
-80
-81
-81
-82
-82
-82
-82
-81
-81
-81
-82
-82
-82
-82
-82
-82
-82
-82
-82
-82
-82
-81
-81
-81
-81
-81
-81
-81
-81
-82
-82
-82
-82
-83
-82
-83
-84
-84
-84
-84
-84
-84
-84
-84
-84
-84
-85
-85
-85
-85
-85
-85
-85
-85
-86
-86
-85
-85
-85
-85
-86
-86
-86
-86
-86
-86
-86
-85
-85
-85
-85
-84
-85
-85
-85
-85
-85
-85
-85
-85
-85
-85
-85
-84
-84
-84
-84
-85
-85
-85
-85
-86
-85
-85
-85
-85
-86
-86
-86
-86
-86
-87
-87
-86
-86
-86
-86
-86
-86
-86
-86
-86
-86
-86
-85
-86
-86
-86
-86
-86
-86
-86
-86
-86
-86
-86
-86
-86
-86
-87
-87
-87
-87
-87
-87
-87
-87
-86
-86
-86
-86
-87
-87
-86
-86
-86
-85
-86
-86
-86
-85
-85
-85
-85
-84
-85
-85
-85
-85
-85
-85
-85
-85
-85
-85
-85
-85
-85
-85
-85
-85
-85
-85
-86
-86
-87
-87
-87
-87
-87
-87
-87
-87
-87
-88
-88
-88
-88
-87
-88
-88
-88
-88
-88
-88
-88
-87
-87
-87
-87
-87
-87
-87
-87
-88
-88
-88
-87
-88
-88
-88
-88
-88
-89
-89
-89
-89
-89
-90
-89
-89
-89
-89
-89
-89
-89
-89
-89
-89
-89
-88
-88
-88
-88
-88
-87
-88
-88
-89
-89
-88
-88
-88
-88
-88
-88
-89
-89
-89
-89
-89
-89
-90
-90
-90
-89
-89
-89
-89
-90
-90
-90
-90
-90
-91
-91
-90
-90
-90
-90
-90
-90
-91
-91
-91
-91
-91
-91
-91
-91
-91
-91
-91
-90
-90
-90
-90
-90
-90
-90
-90
-91
-91
-90
-90
-89
-90
-90
-89
-89
-89
-90
-89
-89
-90
-90
-90
-90
-90
-90
-90
-90
-90
-90
-90
-90
-91
-91
-91
-90
-91
-91
-91
-91
-91
-91
-91
-91
-91
-90
-90
-90
-90
-90
-90
-90
-90
-90
-89
-89
-90
-90
-90
-90
-90
-90
-90
-90
-90
-91
-91
-91
-91
-91
-90
-90
-90
-90
-90
-90
-89
-89
-89
-88
-88
-88
-88
-87
-87
-85
-84
-84
-83
-83
-82
-82
-81
-81
-81
-79
-79
-79
-79
-79
-79
-79
-79
-80
-80
-80
-80
-80
-80
-81
-81
-81
-81
-81
-81
-81
-81
-82
-83
-83
-83
-83
-82
-83
-83
-83
-85
-85
-85
-86
-86
-87
-87
-88
-89
-90
-90
-91
-91
-92
-92
-93
-93
-95
-95
-96
-96
-96
-97
-97
-99
-99
-99
-100
-100
-101
-101
-102
-102
-103
-103
-105
-104
-105
-105
-106
-105
-105
-106
-106
-105
-106
-106
-106
-106
-106
-106
-106
-106
-106
-107
-107
-107
-107
-107
-108
-107
-107
-107
-107
-107
-107
-107
-106
-105
-105
-105
-105
-104
-103
-103
-103
-102
-102
-101
-101
-102
-101
-101
-101
-101
-100
-100
-100
-100
-100
-100
-100
-100
-100
-100
-100
-100
-101
-101
-100
-100
-100
-100
-100
-100
-99
-99
-99
-99
-100
-100
-100
-100
-100
-100
-100
-100
-100
-100
-100
-100
-99
-99
-99
-99
-99
-99
-99
-99
-99
-99
-99
-98
-98
-98
-98
-98
-98
-97
-97
-97
-97
-96
-95
-94
-93
-92
-90
-88
-86
-83
-81
-78
-74
-71
-67
-62
-57
-53
-48
-42
-36
-30
-25
-19
-13
-7
-1
5
11
14
20
25
29
34
38
41
46
49
51
53
55
55
57
57
56
57
57
57
57
57
59
58
60
61
61
62
64
65
67
68
71
72
74
75
77
79
82
84
86
88
89
91
93
94
96
98
99
102
104
106
110
113
116
119
124
129
134
139
144
150
156
162
170
176
184
191
197
205
212
220
228
236
243
250
258
265
273
280
286
293
298
302
307
309
310
310
308
306
302
295
288
278
267
255
240
225
207
189
170
151
130
110
90
69
50
31
15
-2
-17
-31
-44
-56
-67
-75
-83
-90
-95
-99
-103
-106
-108
-109
-111
-111
-111
-112
-112
-112
-111
-112
-111
-112
-112
-112
-112
-113
-113
-113
-115
-115
-116
-117
-117
-118
-118
-119
-120
-121
-120
-121
-121
-123
-123
-123
-124
-124
-124
-125
-125
-126
-126
-126
-126
-126
-127
-127
-128
-128
-128
-129
-129
-130
-129
-130
-130
-130
-130
-130
-131
-131
-132
-132
-131
-132
-132
-133
-133
-133
-133
-133
-134
-134
-134
-134
-134
-134
-135
-135
-135
-135
-136
-136
-136
-136
-137
-137
-136
-136
-137
-137
-137
-137
-138
-138
-138
-138
-138
-138
-138
-138
-138
-139
-139
-139
-139
-140
-139
-139
-140
-140
-140
-141
-141
-142
-143
-143
-143
-144
-144
-145
-146
-145
-146
-146
-147
-147
-147
-148
-148
-149
-149
-149
-150
-150
-150
-150
-151
-151
-152
-153
-153
-154
-154
-154
-155
-156
-156
-157
-158
-159
-160
-159
-160
-161
-162
-162
-163
-164
-164
-165
-166
-166
-166
-167
-167
-168
-169
-170
-170
-171
-172
-171
-172
-174
-175
-174
-175
-176
-177
-177
-178
-179
-180
-180
-181
-183
-183
-184
-185
-186
-187
-187
-188
-188
-189
-189
-190
-191
-192
-193
-194
-194
-194
-195
-196
-196
-197
-198
-198
-199
-200
-201
-201
-202
-203
-204
-204
-205
-206
-207
-208
-207
-208
-209
-210
-210
-211
-212
-212
-213
-213
-214
-215
-215
-215
-215
-216
-216
-216
-216
-217
-217
-217
-217
-217
-217
-217
-217
-217
-217
-216
-216
-216
-216
-216
-215
-214
-214
-213
-213
-212
-212
-212
-211
-210
-209
-209
-208
-207
-206
-206
-204
-203
-202
-202
-200
-200
-199
-198
-197
-195
-195
-193
-192
-190
-190
-188
-188
-186
-184
-184
-182
-180
-178
-177
-175
-173
-171
-170
-169
-167
-165
-163
-162
-159
-157
-155
-154
-152
-150
-148
-147
-145
-143
-143
-141
-139
-137
-137
-135
-133
-132
-131
-129
-128
-126
-125
-124
-123
-122
-120
-119
-117
-117
-115
-114
-113
-111
-110
-109
-108
-107
-106
-106
-105
-104
-103
-102
-102
-101
-100
-99
-98
-99
-98
-97
-97
-96
-95
-95
-95
-94
-93
-94
-93
-92
-92
-93
-92
-92
-91
-92
-92
-92
-92
-92
-91
-91
-91
-91
-90
-90
-91
-90
-90
-90
-90
-89
-88
-88
-88
-88
-88
-86
-86
-86
-86
-86
-86
-86
-86
-86
-86
-86
-86
-86
-86
-85
-85
-85
-86
-86
-86
-86
-86
-85
-84
-84
-84
-84
-84
-84
-84
-84
-84
-83
-83
-83
-83
-83
-83
-83
-83
-83
-82
-83
-83
-83
-82
-83
-83
-82
-83
-82
-82
-82
-82
-82
-82
-82
-82
-82
-81
-82
-82
-81
-81
-81
-80
-81
-80
-80
-80
-80
-80
-80
-80
-80
-80
-80
-80
-79
-79
-80
-79
-79
-79
-79
-80
-80
-81
-81
-80
-80
-80
-80
-81
-81
-81
-82
-82
-82
-82
-82
-82
-82
-82
-82
-82
-82
-82
-82
-82
-82
-82
-82
-82
-82
-82
-82
-81
-82
-82
-81
-81
-82
-82
-82
-82
-82
-82
-82
-82
-83
-83
-83
-83
-82
-82
-83
-83
-83
-83
-83
-83
-84
-84
-84
-84
-84
-84
-84
-84
-84
-84
-84
-84
-85
-85
-85
-85
-85
-87
-87
-87
-87
-86
-86
-86
-86
-87
-87
-87
-87
-86
-87
-87
-87
-86
-86
-86
-86
-86
-86
-86
-86
-87
-87
-87
-86
-87
-87
-87
-88
-88
-89
-88
-88
-88
-88
-88
-88
-89
-89
-89
-89
-89
-89
-89
-88
-88
-88
-87
-88
-87
-87
-87
-86
-86
-86
-86
-86
-86
-86
-86
-86
-86
-86
-86
-86
-86
-87
-87
-87
-87
-87
-87
-87
-87
-87
-87
-87
-87
-87
-87
-88
-88
-88
-88
-88
-88
-88
-87
-87
-87
-87
-88
-88
-89
-89
-89
-89
-88
-88
-88
-88
-88
-88
-88
-88
-88
-88
-89
-89
-88
-88
-88
-88
-88
-87
-87
-87
-88
-88
-88
-88
-87
-87
-87
-87
-86
-87
-87
-87
-87
-88
-88
-88
-88
-87
-88
-88
-88
-88
-88
-88
-89
-89
-88
-88
-88
-88
-88
-88
-88
-88
-88
-88
-88
-88
-88
-88
-88
-88
-88
-88
-88
-88
-88
-88
-88
-88
-88
-88
-88
-88
-88
-88
-88
-88
-88
-89
-89
-88
-89
-89
-89
-89
-90
-90
-90
-90
-90
-90
-90
-91
-91
-91
-91
-91
-91
-91
-91
-91
-91
-91
-91
-91
-92
-91
-91
-91
-91
-91
-91
-91
-91
-91
-91
-91
-90
-90
-90
-89
-90
-90
-90
-90
-90
-89
-89
-89
-89
-88
-88
-89
-89
-89
-89
-89
-88
-88
-90
-90
-90
-90
-90
-90
-90
-90
-90
-90
-90
-90
-90
-90
-90
-91
-91
-91
-92
-92
-92
-92
-92
-92
-92
-92
-92
-91
-91
-91
-91
-92
-92
-91
-91
-91
-91
-91
-91
-90
-90
-91
-91
-91
-90
-90
-90
-90
-90
-90
-90
-90
-90
-90
-90
-90
-91
-91
-91
-91
-91
-91
-91
-91
-91
-91
-91
-91
-91
-91
-91
-92
-92
-91
-91
-91
-91
-91
-90
-91
-91
-91
-91
-91
-91
-91
-91
-90
-90
-90
-91
-91
-91
-91
-91
-91
-91
-91
-92
-92
-92
-91
-91
-91
-90
-90
-90
-90
-90
-90
-90
-90
-90
-90
-89
-89
-89
-89
-89
-89
-89
-89
-89
-89
-89
-89
-90
-90
-90
-90
-91
-91
-91
-91
-90
-91
-91
-91
-91
-91
-90
-90
-90
-90
-90
-90
-89
-89
-89
-87
-88
-86
-87
-86
-87
-86
-86
-85
-84
-83
-83
-83
-83
-82
-81
-81
-81
-81
-81
-80
-80
-80
-80
-80
-80
-80
-80
-80
-80
-80
-80
-80
-81
-81
-81
-81
-81
-81
-82
-82
-81
-81
-81
-83
-82
-82
-83
-83
-83
-83
-84
-84
-84
-85
-85
-86
-87
-87
-87
-88
-88
-88
-88
-89
-89
-90
-90
-90
-92
-92
-92
-93
-92
-93
-93
-94
-95
-96
-97
-98
-98
-99
-100
-100
-101
-101
-102
-103
-103
-103
-104
-104
-104
-105
-105
-105
-105
-105
-105
-105
-105
-104
-104
-104
-104
-104
-104
-103
-103
-102
-102
-102
-101
-101
-100
-99
-99
-99
-98
-98
-98
-98
-97
-97
-97
-97
-97
-96
-96
-96
-96
-96
-96
-96
-96
-96
-96
-96
-96
-96
-97
-97
-97
-96
-96
-96
-96
-96
-95
-96
-96
-96
-96
-96
-96
-96
-96
-96
-96
-96
-96
-96
-97
-97
-97
-97
-97
-96
-96
-96
-96
-96
-94
-94
-94
-93
-93
-93
-93
-93
-93
-91
-91
-91
-91
-91
-91
-91
-91
-91
-90
-89
-89
-89
-88
-87
-86
-84
-82
-80
-78
-75
-72
-69
-66
-62
-58
-53
-49
-44
-38
-32
-27
-21
-15
-9
-2
4
9
15
21
25
29
35
40
44
49
52
55
58
60
61
63
62
62
62
62
61
60
60
59
59
58
58
58
57
58
58
59
59
60
62
64
66
68
70
72
74
76
79
81
83
85
86
88
91
93
95
98
100
103
106
109
112
116
120
125
129
134
140
146
151
157
163
169
175
180
186
193
199
205
212
218
225
231
238
244
251
256
262
268
273
277
280
283
285
285
284
282
279
274
267
259
250
238
226
211
196
180
162
144
126
107
88
69
51
35
18
3
-12
-27
-38
-50
-60
-69
-77
-83
-88
-94
-97
-101
-102
-105
-106
-106
-108
-107
-108
-108
-109
-108
-108
-108
-109
-109
-109
-110
-110
-110
-112
-112
-112
-113
-114
-114
-115
-116
-116
-117
-117
-118
-118
-119
-120
-120
-121
-121
-122
-122
-122
-123
-123
-123
-124
-124
-124
-124
-124
-124
-124
-125
-125
-125
-125
-125
-125
-126
-126
-126
-126
-126
-126
-126
-127
-127
-128
-128
-127
-127
-128
-128
-128
-128
-128
-128
-129
-129
-129
-129
-130
-129
-130
-129
-130
-131
-131
-131
-131
-131
-132
-133
-133
-134
-133
-133
-134
-134
-134
-135
-136
-136
-136
-136
-137
-137
-137
-137
-138
-138
-137
-138
-138
-138
-138
-138
-139
-139
-140
-139
-140
-140
-139
-140
-140
-141
-141
-141
-142
-142
-143
-143
-143
-144
-144
-144
-145
-145
-145
-146
-147
-146
-146
-147
-148
-149
-148
-149
-150
-151
-151
-151
-152
-152
-153
-154
-154
-155
-156
-157
-157
-158
-159
-160
-160
-161
-161
-161
-162
-163
-163
-164
-165
-165
-164
-165
-166
-167
-166
-167
-167
-168
-169
-170
-171
-172
-172
-173
-174
-175
-175
-176
-177
-178
-179
-180
-181
-182
-182
-183
-184
-184
-185
-185
-187
-188
-188
-189
-190
-191
-191
-192
-192
-194
-195
-196
-196
-196
-197
-197
-198
-199
-200
-200
-200
-201
-202
-202
-203
-203
-203
-203
-204
-205
-205
-205
-205
-206
-207
-206
-207
-207
-207
-206
-207
-207
-207
-207
-207
-208
-207
-207
-207
-207
-206
-206
-206
-205
-205
-205
-204
-203
-204
-203
-203
-203
-202
-201
-200
-200
-199
-198
-197
-197
-196
-195
-195
-194
-193
-192
-191
-190
-188
-188
-187
-185
-184
-183
-181
-180
-179
-177
-175
-175
-172
-171
-169
-168
-166
-165
-164
-162
-160
-159
-157
-155
-154
-152
-151
-149
-147
-146
-144
-144
-142
-140
-139
-137
-136
-134
-134
-133
-131
-129
-129
-127
-127
-125
-124
-123
-122
-121
-120
-119
-118
-116
-115
-114
-114
-113
-111
-110
-109
-108
-108
-107
-106
-105
-104
-102
-102
-101
-100
-100
-99
-99
-98
-98
-98
-97
-96
-97
-96
-96
-96
-96
-96
-96
-97
-97
-97
-97
-97
-97
-97
-97
-97
-97
-96
-96
-96
-96
-95
-96
-95
-95
-95
-93
-93
-94
-93
-93
-92
-92
-92
-92
-91
-91
-91
-91
-91
-91
-91
-91
-91
-91
-92
-92
-92
-92
-92
-91
-91
-91
-92
-92
-92
-91
-91
-91
-91
-91
-90
-90
-90
-89
-89
-89
-89
-88
-88
-89
-89
-89
-89
-88
-88
-88
-88
-89
-89
-89
-89
-89
-89
-90
-89
-89
-89
-89
-89
-90
-90
-90
-90
-90
-90
-91
-90
-90
-90
-90
-90
-90
-90
-90
-89
-90
-90
-90
-90
-90
-90
-90
-90
-90
-90
-89
-89
-90
-90
-90
-89
-90
-90
-91
-90
-90
-91
-91
-91
-90
-91
-91
-91
-91
-91
-91
-90
-90
-90
-91
-91
-90
-90
-90
-90
-91
-91
-90
-90
-90
-90
-91
-91
-91
-91
-91
-91
-92
-92
-92
-92
-92
-92
-92
-92
-92
-92
-92
-92
-92
-92
-93
-93
-93
-93
-93
-93
-93
-94
-94
-94
-93
-94
-95
-95
-95
-95
-95
-95
-96
-96
-96
-96
-96
-97
-97
-97
-97
-97
-96
-97
-97
-97
-98
-97
-97
-97
-97
-97
-97
-97
-96
-97
-96
-96
-97
-96
-96
-96
-96
-96
-96
-96
-96
-96
-96
-96
-97
-97
-96
-96
-96
-96
-96
-96
-96
-97
-96
-96
-96
-95
-95
-96
-96
-96
-97
-96
-96
-96
-96
-96
-96
-97
-97
-97
-97
-97
-98
-98
-98
-98
-99
-98
-98
-99
-99
-98
-98
-98
-98
-98
-98
-98
-98
-98
-98
-98
-98
-99
-98
-98
-98
-98
-99
-99
-98
-98
-99
-98
-98
-99
-99
-99
-99
-99
-98
-99
-99
-99
-99
-99
-99
-100
-100
-99
-99
-99
-99
-100
-100
-100
-100
-100
-100
-100
-100
-100
-100
-100
-100
-101
-100
-100
-100
-100
-100
-99
-100
-100
-100
-100
-100
-100
-100
-100
-100
-100
-100
-100
-99
-99
-99
-99
-99
-99
-99
-99
-99
-99
-98
-98
-98
-98
-98
-98
-97
-97
-98
-98
-98
-97
-97
-97
-97
-97
-97
-97
-97
-97
-97
-98
-98
-98
-98
-98
-98
-98
-99
-99
-99
-99
-99
-100
-99
-99
-99
-100
-100
-100
-99
-100
-100
-100
-99
-99
-99
-99
-99
-99
-99
-99
-99
-99
-99
-100
-99
-99
-99
-99
-99
-99
-100
-99
-99
-100
-100
-100
-100
-100
-100
-100
-100
-99
-99
-99
-99
-99
-99
-99
-99
-99
-99
-100
-100
-100
-100
-100
-100
-100
-100
-100
-100
-101
-101
-101
-101
-101
-101
-101
-101
-101
-100
-101
-101
-101
-100
-100
-100
-100
-100
-99
-99
-98
-98
-98
-99
-98
-98
-98
-99
-99
-99
-99
-99
-99
-99
-99
-99
-99
-99
-99
-99
-99
-99
-99
-99
-98
-98
-98
-98
-98
-98
-98
-97
-97
-97
-97
-98
-98
-97
-97
-97
-97
-97
-97
-96
-97
-97
-97
-97
-97
-96
-97
-97
-97
-97
-96
-97
-97
-96
-97
-97
-97
-97
-97
-97
-97
-97
-97
-97
-97
-97
-97
-96
-96
-96
-96
-96
-96
-96
-95
-95
-95
-96
-95
-95
-95
-95
-95
-94
-94
-94
-94
-94
-93
-93
-93
-92
-92
-92
-92
-92
-91
-92
-92
-92
-91
-91
-91
-91
-91
-91
-91
-90
-90
-89
-89
-88
-88
-88
-88
-86
-86
-86
-86
-87
-86
-86
-86
-86
-86
-86
-87
-87
-88
-87
-87
-88
-88
-88
-88
-88
-88
-89
-88
-88
-88
-88
-88
-88
-88
-88
-88
-88
-88
-89
-89
-90
-90
-91
-91
-92
-92
-93
-94
-94
-94
-96
-96
-97
-98
-98
-98
-99
-99
-100
-100
-101
-101
-101
-102
-102
-103
-104
-104
-105
-105
-105
-105
-106
-107
-107
-107
-108
-108
-108
-109
-109
-109
-109
-109
-109
-110
-110
-109
-109
-110
-110
-109
-109
-109
-109
-109
-108
-108
-108
-108
-107
-107
-107
-106
-106
-106
-106
-105
-105
-105
-105
-104
-104
-104
-104
-104
-103
-104
-103
-103
-103
-103
-104
-104
-104
-104
-104
-104
-104
-104
-103
-103
-104
-104
-104
-104
-103
-103
-103
-103
-104
-103
-103
-103
-103
-103
-103
-103
-103
-102
-102
-102
-102
-102
-101
-101
-100
-101
-101
-100
-100
-100
-100
-100
-99
-99
-99
-99
-99
-99
-100
-100
-100
-99
-100
-100
-100
-100
-100
-100
-99
-98
-98
-96
-94
-92
-91
-88
-86
-82
-78
-75
-71
-66
-62
-57
-51
-47
-40
-34
-28
-21
-15
-8
-3
3
8
14
19
24
30
34
39
43
46
49
52
54
55
56
56
57
56
56
55
54
54
53
53
52
52
52
51
51
51
52
52
54
55
56
57
59
61
63
64
66
68
69
71
73
74
75
77
79
81
84
87
89
92
95
98
103
107
112
117
122
127
133
139
144
151
157
164
170
177
184
191
197
204
211
217
224
230
237
244
249
255
259
264
266
269
270
270
269
267
263
259
252
243
233
223
210
196
181
165
147
129
111
93
75
56
39
23
7
-9
-24
-37
-50
-61
-70
-79
-87
-93
-99
-103
-107
-110
-112
-114
-115
-116
-116
-116
-117
-117
-117
-117
-118
-117
-117
-118
-118
-119
-119
-119
-120
-120
-121
-121
-122
-123
-123
-124
-125
-126
-126
-127
-127
-128
-128
-129
-129
-130
-130
-130
-131
-131
-131
-132
-132
-132
-133
-133
-133
-134
-134
-134
-135
-135
-136
-136
-136
-136
-137
-137
-137
-137
-138
-138
-138
-138
-138
-139
-139
-139
-139
-139
-140
-139
-139
-140
-140
-140
-140
-139
-140
-140
-140
-141
-141
-141
-141
-141
-141
-141
-141
-141
-141
-142
-143
-143
-143
-143
-143
-145
-145
-145
-145
-145
-146
-146
-146
-147
-147
-147
-148
-148
-148
-149
-149
-150
-150
-150
-150
-151
-151
-150
-151
-151
-152
-152
-152
-152
-153
-153
-153
-153
-153
-154
-154
-155
-154
-154
-155
-155
-156
-157
-158
-157
-158
-159
-160
-160
-161
-162
-161
-162
-163
-164
-164
-165
-166
-166
-167
-168
-169
-169
-169
-170
-170
-171
-172
-172
-173
-173
-174
-175
-175
-176
-176
-177
-179
-179
-180
-180
-182
-183
-183
-184
-185
-186
-187
-188
-189
-190
-191
-191
-192
-193
-194
-194
-195
-196
-196
-196
-197
-198
-199
-199
-200
-200
-201
-202
-203
-203
-204
-205
-205
-206
-206
-207
-208
-209
-209
-210
-211
-212
-213
-213
-214
-214
-215
-215
-216
-217
-218
-218
-218
-219
-220
-220
-220
-220
-220
-220
-221
-222
-222
-222
-222
-222
-223
-222
-222
-222
-222
-223
-222
-222
-222
-222
-221
-221
-220
-221
-221
-220
-219
-219
-218
-217
-217
-216
-215
-215
-215
-214
-213
-212
-211
-210
-210
-209
-207
-207
-206
-205
-204
-203
-203
-201
-201
-199
-198
-197
-195
-195
-193
-191
-190
-188
-186
-185
-183
-181
-180
-179
-177
-175
-173
-171
-169
-167
-166
-164
-162
-160
-159
-157
-156
-155
-153
-152
-151
-149
-147
-147
-145
-144
-143
-141
-140
-138
-138
-137
-135
-135
-133
-132
-131
-131
-129
-128
-127
-127
-126
-125
-124
-123
-123
-122
-121
-121
-120
-119
-119
-118
-117
-117
-116
-116
-115
-116
-115
-114
-114
-114
-114
-114
-113
-113
-112
-112
-112
-112
-112
-112
-112
-112
-112
-112
-111
-111
-111
-111
-110
-110
-110
-110
-110
-109
-110
-110
-108
-109
-109
-108
-108
-108
-108
-107
-108
-108
-107
-107
-106
-106
-106
-106
-106
-107
-107
-107
-107
-107
-108
-108
-108
-108
-108
-108
-108
-108
-108
-108
-108
-108
-108
-108
-108
-107
-107
-107
-107
-107
-106
-106
-106
-106
-106
-106
-105
-104
-104
-104
-104
-105
-105
-105
-105
-105
-104
-105
-105
-105
-106
-106
-105
-106
-106
-106
-106
-106
-106
-106
-107
-107
-107
-107
-107
-107
-107
-107
-107
-107
-107
-107
-107
-107
-107
-107
-106
-106
-106
-106
-106
-106
-106
-106
-106
-106
-105
-105
-105
-105
-105
-105
-105
-105
-106
-106
-106
-106
-106
-106
-107
-108
-108
-108
-108
-108
-109
-109
-110
-110
-109
-110
-110
-110
-111
-111
-111
-111
-111
-111
-111
-111
-111
-111
-111
-111
-111
-111
-111
-111
-111
-111
-112
-112
-112
-112
-112
-112
-112
-112
-112
-112
-112
-112
-113
-113
-113
-113
-114
-114
-114
-114
-115
-115
-116
-116
-116
-116
-116
-116
-117
-117
-117
-118
-118
-117
-117
-118
-117
-117
-118
-118
-117
-117
-118
-118
-117
-117
-118
-118
-118
-118
-118
-118
-119
-119
-119
-119
-119
-118
-118
-119
-119
-119
-119
-119
-119
-119
-119
-119
-119
-119
-120
-120
-120
-120
-121
-121
-121
-122
-122
-121
-121
-121
-122
-122
-122
-122
-122
-122
-123
-122
-122
-122
-123
-123
-123
-123
-123
-123
-123
-123
-123
-124
-124
-124
-124
-124
-124
-124
-124
-124
-124
-124
-124
-124
-123
-123
-123
-123
-122
-122
-122
-122
-122
-122
-122
-122
-121
-121
-122
-122
-122
-122
-122
-122
-123
-123
-123
-123
-123
-124
-124
-123
-124
-124
-124
-124
-124
-124
-124
-124
-124
-124
-124
-124
-124
-123
-123
-124
-123
-123
-123
-124
-124
-124
-124
-123
-123
-123
-123
-124
-124
-124
-124
-124
-123
-123
-123
-123
-124
-124
-124
-124
-123
-124
-124
-124
-124
-124
-124
-124
-124
-124
-124
-125
-125
-125
-125
-125
-126
-126
-126
-126
-126
-126
-126
-126
-126
-126
-125
-126
-126
-126
-126
-126
-126
-125
-125
-125
-124
-124
-124
-124
-124
-124
-124
-124
-124
-124
-124
-124
-124
-124
-124
-124
-124
-124
-124
-125
-125
-125
-125
-126
-126
-125
-125
-126
-126
-126
-126
-126
-126
-126
-125
-125
-125
-126
-126
-126
-127
-127
-126
-126
-126
-126
-126
-126
-126
-126
-126
-126
-126
-126
-126
-126
-125
-125
-125
-125
-125
-125
-125
-125
-125
-125
-125
-125
-126
-126
-126
-126
-126
-126
-126
-126
-126
-126
-126
-126
-126
-126
-126
-126
-126
-126
-126
-126
-126
-126
-126
-126
-126
-126
-126
-127
-127
-127
-127
-128
-127
-127
-127
-127
-127
-128
-128
-128
-128
-127
-127
-127
-127
-127
-126
-127
-126
-126
-126
-126
-126
-126
-126
-127
-127
-127
-126
-127
-127
-127
-127
-127
-127
-128
-128
-128
-128
-128
-127
-127
-127
-126
-127
-127
-127
-127
-127
-126
-126
-126
-126
-126
-126
-126
-126
-126
-126
-126
-126
-127
-127
-126
-126
-126
-126
-126
-126
-126
-126
-126
-126
-126
-126
-126
-126
-126
-126
-127
-127
-127
-127
-127
-127
-127
-128
-128
-128
-127
-128
-128
-128
-128
-128
-128
-128
-128
-127
-127
-127
-127
-127
-128
-128
-127
-127
-127
-127
-127
-126
-126
-127
-126
-126
-126
-127
-127
-127
-128
-128
-128
-128
-128
-128
-128
-127
-128
-127
-127
-127
-126
-126
-126
-125
-125
-124
-124
-124
-123
-123
-123
-122
-122
-121
-121
-120
-120
-119
-119
-118
-118
-118
-117
-117
-117
-116
-117
-116
-116
-116
-116
-115
-115
-115
-115
-115
-114
-114
-115
-115
-115
-115
-115
-115
-116
-116
-115
-116
-116
-116
-116
-116
-116
-117
-117
-117
-118
-118
-118
-119
-119
-120
-120
-121
-122
-122
-123
-123
-124
-124
-125
-125
-126
-126
-126
-127
-128
-128
-128
-129
-129
-129
-131
-130
-130
-132
-132
-132
-133
-134
-134
-135
-135
-135
-136
-137
-137
-137
-138
-138
-139
-139
-140
-140
-140
-141
-141
-141
-141
-142
-142
-142
-142
-142
-142
-142
-142
-142
-142
-141
-141
-141
-141
-141
-140
-140
-140
-139
-139
-139
-138
-137
-138
-137
-136
-137
-136
-136
-135
-135
-134
-134
-134
-134
-134
-134
-134
-133
-133
-133
-134
-134
-134
-133
-133
-133
-134
-134
-134
-134
-133
-133
-133
-133
-132
-133
-133
-132
-132
-132
-132
-132
-132
-132
-132
-132
-131
-131
-131
-130
-130
-129
-129
-129
-129
-129
-128
-128
-128
-128
-127
-126
-126
-126
-126
-126
-126
-126
-125
-125
-125
-124
-124
-124
-122
-121
-120
-118
-116
-114
-112
-108
-106
-102
-98
-94
-90
-85
-81
-75
-69
-64
-58
-51
-46
-39
-32
-26
-20
-14
-8
-2
3
7
12
18
22
26
29
33
35
38
39
41
42
41
42
42
42
42
42
43
43
44
44
45
46
47
48
49
50
53
55
56
58
61
62
65
67
69
71
74
75
77
80
81
84
86
89
91
94
97
100
104
107
112
117
122
127
133
139
145
152
158
165
173
179
187
194
201
209
216
225
232
240
247
254
261
267
273
278
283
286
289
289
289
287
285
280
273
266
256
245
232
218
203
186
168
150
131
111
92
73
53
34
17
-1
-17
-32
-45
-58
-69
-79
-88
-95
-101
-107
-110
-114
-116
-119
-120
-121
-121
-122
-122
-123
-122
-123
-123
-122
-122
-123
-123
-123
-123
-125
-125
-126
-126
-127
-127
-129
-129
-129
-130
-131
-131
-132
-132
-133
-133
-133
-133
-134
-134
-134
-134
-135
-135
-136
-137
-137
-137
-137
-137
-137
-137
-137
-138
-138
-138
-138
-138
-139
-139
-139
-138
-139
-138
-138
-138
-138
-139
-139
-139
-139
-140
-140
-140
-140
-140
-140
-141
-141
-141
-141
-141
-141
-141
-142
-142
-142
-143
-143
-143
-144
-144
-144
-144
-144
-145
-144
-145
-145
-145
-146
-146
-146
-147
-147
-146
-147
-147
-147
-148
-148
-148
-148
-148
-148
-148
-148
-149
-149
-150
-150
-151
-150
-151
-152
-152
-153
-153
-154
-154
-155
-155
-155
-155
-156
-156
-156
-156
-156
-156
-156
-157
-157
-157
-157
-157
-157
-158
-158
-159
-160
-159
-160
-160
-161
-162
-162
-163
-164
-165
-165
-166
-166
-166
-167
-168
-167
-168
-168
-168
-169
-170
-169
-170
-171
-171
-172
-173
-174
-173
-174
-174
-175
-176
-176
-178
-178
-179
-180
-181
-182
-182
-183
-183
-184
-185
-186
-186
-187
-188
-189
-190
-190
-191
-191
-192
-194
-195
-195
-196
-196
-198
-199
-199
-200
-200
-201
-202
-202
-202
-203
-204
-205
-204
-205
-205
-206
-208
-208
-209
-209
-210
-210
-211
-210
-211
-211
-212
-212
-212
-212
-213
-213
-213
-214
-213
-213
-213
-214
-214
-213
-213
-213
-213
-213
-213
-213
-213
-213
-212
-213
-212
-212
-211
-212
-211
-211
-210
-210
-209
-209
-209
-208
-207
-206
-205
-204
-203
-203
-202
-201
-199
-199
-198
-196
-195
-193
-191
-191
-189
-188
-186
-184
-183
-182
-180
-179
-178
-176
-175
-173
-171
-170
-168
-166
-165
-163
-162
-160
-159
-157
-155
-153
-151
-150
-148
-146
-144
-143
-141
-139
-138
-136
-134
-133
-131
-129
-129
-127
-125
-123
-123
-121
-119
-118
-116
-115
-113
-112
-111
-110
-109
-108
-107
-106
-105
-104
-103
-103
-102
-101
-101
-100
-98
-99
-98
-98
-97
-96
-96
-95
-95
-94
-94
-93
-94
-93
-93
-93
-92
-92
-92
-92
-91
-92
-92
-92
-91
-91
-91
-91
-90
-90
-91
-90
-90
-89
-89
-90
-89
-89
-88
-88
-89
-89
-89
-88
-88
-88
-88
-88
-88
-88
-88
-88
-88
-88
-88
-89
-89
-89
-88
-88
-89
-89
-88
-88
-88
-88
-89
-88
-88
-88
-88
-88
-88
-88
-88
-88
-88
-88
-88
-88
-87
-87
-88
-88
-88
-88
-88
-87
-87
-87
-87
-87
-87
-88
-88
-88
-87
-87
-88
-88
-88
-88
-88
-89
-89
-89
-89
-89
-88
-88
-88
-89
-89
-89
-88
-88
-88
-88
-88
-88
-88
-87
-87
-88
-87
-87
-87
-87
-86
-87
-87
-87
-87
-87
-88
-88
-87
-88
-88
-88
-88
-88
-88
-88
-88
-89
-89
-89
-90
-90
-90
-90
-90
-90
-89
-89
-89
-89
-89
-89
-89
-89
-89
-90
-90
-90
-90
-90
-90
-90
-90
-90
-90
-91
-91
-91
-92
-92
-92
-92
-93
-93
-93
-92
-93
-93
-93
-93
-93
-94
-94
-94
-94
-94
-94
-94
-95
-94
-95
-95
-96
-96
-96
-96
-96
-96
-96
-96
-96
-97
-97
-97
-97
-96
-97
-97
-97
-97
-96
-96
-96
-97
-97
-97
-97
-97
-97
-98
-98
-98
-99
-99
-99
-99
-99
-99
-100
-100
-100
-100
-100
-100
-100
-99
-99
-99
-99
-99
-99
-99
-99
-99
-100
-100
-99
-100
-100
-99
-99
-100
-100
-100
-100
-100
-100
-101
-101
-100
-100
-100
-100
-99
-100
-100
-100
-100
-100
-100
-100
-100
-101
-101
-101
-102
-102
-102
-102
-102
-102
-102
-102
-103
-103
-103
-102
-102
-102
-102
-102
-102
-102
-102
-102
-102
-102
-102
-102
-102
-102
-102
-103
-102
-102
-102
-103
-103
-103
-103
-103
-104
-103
-103
-103
-104
-104
-105
-104
-104
-105
-104
-104
-104
-104
-104
-104
-104
-103
-104
-104
-104
-104
-103
-103
-104
-104
-103
-103
-103
-102
-102
-102
-102
-102
-102
-102
-102
-102
-102
-102
-102
-102
-102
-102
-102
-102
-102
-102
-103
-102
-102
-103
-103
-103
-104
-103
-103
-103
-104
-104
-104
-104
-104
-104
-105
-105
-105
-105
-105
-105
-105
-105
-105
-105
-105
-105
-105
-105
-105
-105
-104
-104
-103
-104
-104
-104
-104
-103
-103
-103
-103
-102
-102
-103
-103
-103
-103
-103
-103
-104
-103
-103
-103
-103
-103
-103
-103
-104
-103
-103
-103
-103
-103
-104
-103
-103
-104
-104
-104
-104
-104
-104
-104
-104
-105
-105
-105
-105
-105
-105
-105
-106
-105
-105
-105
-105
-105
-104
-104
-104
-104
-104
-104
-103
-103
-103
-104
-103
-103
-103
-103
-103
-103
-103
-103
-103
-103
-103
-104
-103
-103
-103
-103
-103
-104
-104
-104
-104
-104
-104
-104
-104
-104
-104
-105
-105
-105
-105
-105
-105
-104
-104
-104
-104
-104
-104
-104
-104
-104
-104
-104
-103
-103
-103
-103
-103
-103
-103
-103
-103
-103
-103
-103
-102
-102
-103
-102
-102
-102
-102
-102
-102
-102
-103
-102
-102
-102
-102
-102
-103
-102
-102
-102
-102
-102
-102
-102
-102
-102
-103
-103
-103
-104
-104
-104
-104
-104
-104
-104
-104
-104
-104
-104
-104
-104
-104
-104
-104
-104
-103
-103
-103
-103
-103
-103
-102
-102
-102
-101
-101
-100
-100
-100
-99
-99
-99
-98
-98
-99
-98
-98
-98
-97
-96
-96
-96
-95
-95
-95
-94
-94
-94
-93
-92
-93
-91
-91
-92
-91
-92
-91
-91
-91
-91
-91
-91
-91
-91
-91
-92
-92
-92
-93
-93
-93
-93
-93
-93
-93
-93
-93
-93
-93
-93
-93
-93
-94
-94
-95
-95
-96
-96
-96
-97
-97
-98
-99
-99
-100
-100
-100
-101
-102
-102
-102
-103
-103
-104
-105
-106
-106
-107
-108
-108
-109
-110
-109
-110
-111
-111
-112
-112
-113
-113
-113
-113
-114
-114
-114
-114
-114
-114
-114
-114
-113
-114
-114
-114
-114
-114
-114
-114
-114
-114
-113
-113
-113
-113
-112
-112
-111
-111
-111
-111
-110
-110
-110
-109
-109
-109
-109
-109
-109
-108
-107
-107
-107
-107
-107
-107
-107
-106
-106
-106
-105
-106
-106
-106
-106
-106
-106
-106
-105
-105
-105
-104
-104
-104
-105
-104
-104
-103
-104
-104
-104
-103
-103
-103
-104
-104
-103
-104
-103
-103
-103
-102
-102
-102
-102
-102
-102
-102
-102
-101
-101
-101
-102
-101
-101
-100
-101
-100
-101
-101
-100
-100
-99
-100
-99
-98
-97
-96
-95
-94
-92
-90
-88
-85
-82
-80
-76
-73
-68
-64
-59
-55
-49
-44
-38
-32
-26
-19
-14
-8
-2
4
9
14
20
25
30
35
40
44
48
51
53
55
56
57
57
58
57
57
57
56
56
57
56
57
56
57
57
58
58
59
60
62
63
64
67
69
72
74
76
79
80
83
85
86
88
90
92
94
95
98
101
104
107
110
113
118
122
127
132
137
143
149
154
161
167
174
181
187
194
201
207
215
222
229
235
243
249
256
262
268
274
278
283
286
288
289
289
288
285
281
275
268
259
249
237
224
208
193
176
157
138
120
101
82
63
45
29
12
-4
-19
-32
-44
-55
-65
-74
-81
-88
-94
-98
-101
-103
-106
-107
-107
-109
-109
-108
-109
-109
-108
-108
-108
-108
-107
-108
-108
-108
-108
-109
-109
-109
-110
-111
-111
-112
-113
-113
-114
-114
-115
-116
-117
-118
-118
-118
-119
-119
-120
-121
-120
-121
-121
-122
-122
-123
-123
-124
-123
-124
-124
-125
-124
-125
-125
-125
-125
-125
-126
-125
-125
-125
-125
-125
-125
-125
-125
-125
-125
-125
-125
-126
-127
-127
-127
-127
-127
-127
-128
-128
-128
-128
-128
-129
-129
-129
-129
-129
-129
-129
-129
-129
-129
-129
-129
-129
-130
-131
-131
-131
-131
-131
-131
-132
-131
-132
-132
-133
-133
-133
-133
-133
-134
-134
-134
-133
-134
-134
-134
-134
-135
-135
-135
-135
-135
-135
-136
-137
-137
-137
-137
-137
-138
-138
-139
-139
-140
-141
-141
-142
-142
-143
-143
-144
-144
-145
-144
-145
-145
-146
-146
-146
-147
-146
-147
-148
-148
-149
-149
-150
-150
-151
-151
-152
-153
-154
-154
-155
-156
-157
-157
-158
-159
-159
-160
-161
-162
-162
-164
-165
-165
-165
-165
-166
-167
-167
-168
-169
-170
-170
-170
-171
-171
-172
-173
-173
-173
-174
-175
-176
-177
-178
-178
-179
-179
-180
-181
-181
-181
-182
-183
-184
-184
-185
-186
-186
-187
-188
-189
-190
-191
-191
-191
-192
-193
-193
-194
-194
-195
-195
-195
-196
-197
-197
-198
-198
-197
-198
-198
-198
-198
-199
-199
-200
-200
-200
-199
-199
-199
-200
-200
-200
-200
-199
-199
-198
-199
-198
-198
-197
-196
-196
-196
-195
-195
-194
-194
-194
-193
-192
-191
-191
-191
-190
-190
-189
-188
-187
-187
-186
-185
-184
-183
-182
-181
-180
-178
-177
-175
-174
-172
-171
-170
-168
-166
-165
-164
-162
-160
-159
-157
-155
-154
-152
-150
-148
-147
-146
-144
-142
-141
-139
-137
-136
-134
-133
-131
-130
-128
-127
-125
-124
-122
-120
-119
-117
-116
-114
-114
-112
-110
-110
-108
-107
-106
-105
-103
-103
-102
-101
-100
-98
-98
-97
-95
-94
-94
-93
-92
-92
-92
-91
-90
-90
-89
-89
-89
-88
-88
-88
-88
-87
-87
-87
-86
-86
-87
-87
-86
-86
-86
-86
-85
-85
-85
-84
-84
-85
-84
-84
-84
-84
-83
-83
-83
-83
-83
-83
-83
-83
-83
-82
-82
-82
-82
-81
-81
-81
-81
-81
-81
-79
-80
-80
-78
-78
-78
-78
-78
-79
-78
-77
-78
-78
-78
-78
-78
-78
-79
-79
-79
-78
-78
-78
-78
-78
-78
-78
-78
-78
-78
-78
-77
-77
-77
-77
-77
-77
-77
-77
-77
-77
-77
-77
-77
-78
-78
-77
-77
-77
-77
-78
-77
-77
-77
-77
-77
-77
-77
-76
-76
-76
-76
-76
-76
-77
-77
-77
-77
-77
-77
-77
-78
-78
-78
-78
-79
-79
-79
-79
-80
-80
-80
-80
-81
-80
-80
-81
-81
-81
-80
-80
-80
-80
-80
-80
-80
-79
-79
-79
-78
-78
-78
-78
-78
-78
-78
-79
-79
-79
-78
-79
-79
-80
-80
-80
-81
-80
-81
-81
-81
-81
-81
-81
-82
-82
-82
-82
-82
-82
-82
-82
-82
-81
-82
-82
-81
-82
-82
-82
-82
-82
-82
-83
-83
-83
-83
-84
-84
-84
-84
-84
-85
-85
-85
-86
-86
-86
-86
-86
-86
-87
-86
-87
-87
-87
-87
-87
-87
-87
-86
-86
-86
-86
-86
-86
-86
-86
-86
-87
-87
-87
-86
-87
-87
-87
-87
-87
-87
-87
-87
-87
-87
-88
-87
-87
-88
-88
-87
-88
-88
-88
-87
-87
-87
-88
-88
-88
-88
-88
-88
-87
-88
-88
-87
-87
-87
-87
-88
-88
-87
-87
-87
-87
-87
-87
-87
-87
-87
-87
-87
-87
-87
-87
-88
-88
-87
-88
-88
-88
-88
-88
-88
-88
-88
-89
-89
-89
-89
-89
-89
-89
-89
-89
-89
-89
-89
-89
-89
-90
-90
-89
-89
-89
-89
-88
-88
-88
-88
-88
-88
-88
-88
-88
-89
-89
-89
-89
-88
-88
-89
-89
-89
-89
-89
-89
-89
-89
-88
-88
-88
-88
-88
-88
-88
-88
-88
-88
-88
-88
-88
-88
-88
-89
-88
-88
-88
-88
-89
-89
-89
-89
-90
-90
-90
-90
-90
-91
-91
-91
-91
-91
-91
-90
-90
-90
-91
-91
-91
-91
-90
-90
-90
-89
-89
-89
-89
-90
-89
-89
-89
-90
-90
-90
-90
-89
-89
-89
-89
-90
-90
-90
-90
-91
-91
-91
-91
-92
-92
-93
-92
-92
-92
-92
-92
-92
-93
-92
-92
-92
-92
-92
-91
-91
-91
-91
-91
-91
-91
-92
-91
-91
-91
-91
-92
-91
-91
-91
-91
-90
-90
-90
-91
-91
-90
-90
-91
-91
-91
-91
-91
-91
-91
-91
-90
-90
-91
-91
-90
-90
-91
-91
-91
-91
-90
-90
-90
-91
-90
-90
-91
-91
-90
-91
-91
-92
-92
-92
-92
-92
-92
-93
-92
-92
-93
-93
-93
-92
-92
-92
-92
-92
-92
-92
-92
-92
-92
-92
-92
-92
-92
-92
-93
-93
-92
-92
-92
-92
-92
-92
-92
-92
-93
-93
-93
-93
-93
-93
-93
-93
-93
-93
-93
-94
-94
-93
-92
-93
-93
-93
-93
-93
-92
-92
-92
-92
-91
-91
-90
-90
-90
-90
-90
-90
-90
-89
-89
-90
-90
-90
-90
-90
-90
-91
-91
-91
-90
-90
-91
-91
-90
-90
-91
-91
-90
-90
-90
-89
-90
-90
-90
-89
-89
-89
-90
-90
-89
-89
-89
-89
-88
-89
-88
-89
-89
-88
-88
-88
-88
-88
-87
-87
-87
-87
-87
-87
-87
-87
-87
-87
-86
-86
-86
-86
-86
-86
-86
-85
-85
-85
-85
-85
-85
-85
-85
-84
-85
-85
-85
-84
-84
-84
-83
-83
-83
-82
-82
-82
-81
-81
-80
-80
-80
-79
-79
-78
-78
-77
-77
-77
-77
-76
-76
-75
-76
-75
-75
-75
-75
-75
-75
-75
-75
-75
-74
-74
-74
-74
-74
-74
-74
-74
-74
-73
-74
-74
-74
-74
-74
-74
-75
-75
-75
-75
-77
-77
-78
-78
-80
-80
-82
-83
-84
-85
-85
-86
-87
-87
-88
-89
-89
-90
-89
-90
-91
-91
-90
-90
-90
-91
-89
-89
-89
-89
-89
-88
-89
-88
-88
-89
-89
-89
-89
-89
-89
-89
-90
-90
-90
-89
-90
-90
-90
-90
-89
-89
-89
-89
-89
-89
-89
-88
-88
-88
-86
-86
-85
-86
-86
-84
-84
-84
-84
-84
-84
-83
-83
-84
-84
-84
-84
-84
-84
-84
-84
-84
-84
-84
-84
-83
-83
-83
-83
-83
-83
-83
-83
-83
-84
-84
-83
-83
-83
-82
-82
-82
-82
-82
-81
-81
-81
-81
-81
-80
-80
-80
-80
-80
-80
-79
-78
-78
-78
-78
-78
-78
-78
-78
-78
-78
-79
-78
-78
-78
-78
-78
-77
-77
-76
-74
-73
-70
-68
-65
-62
-59
-55
-52
-47
-43
-38
-34
-28
-23
-17
-11
-5
1
7
13
18
23
28
34
38
44
49
55
59
64
68
71
74
77
80
81
82
83
84
84
84
84
83
83
83
82
82
81
81
81
81
82
83
83
83
85
85
86
88
90
91
93
95
96
98
99
101
102
105
106
108
110
112
115
117
122
124
128
132
137
143
148
153
158
165
171
177
183
189
196
202
209
215
222
228
235
242
248
254
261
266
273
278
283
287
291
293
296
296
297
294
292
287
282
274
265
256
244
231
217
202
185
168
151
133
116
98
81
64
47
32
18
5
-8
-20
-30
-38
-47
-54
-60
-65
-69
-72
-75
-77
-79
-80
-81
-81
-82
-82
-82
-83
-82
-82
-83
-83
-83
-83
-83
-84
-84
-84
-85
-85
-86
-87
-88
-89
-89
-89
-90
-91
-91
-91
-92
-92
-93
-93
-94
-93
-93
-93
-94
-94
-94
-94
-94
-95
-96
-96
-95
-95
-95
-96
-96
-96
-96
-96
-96
-96
-97
-97
-97
-97
-97
-98
-98
-98
-98
-98
-98
-99
-99
-99
-99
-100
-100
-100
-100
-100
-100
-100
-101
-101
-101
-101
-102
-102
-102
-102
-102
-103
-103
-103
-103
-103
-103
-103
-103
-105
-105
-105
-105
-105
-105
-105
-105
-105
-105
-106
-106
-106
-107
-107
-108
-107
-108
-108
-109
-110
-110
-111
-110
-111
-112
-112
-112
-112
-113
-113
-113
-114
-113
-113
-114
-114
-114
-115
-114
-114
-115
-115
-115
-115
-116
-116
-116
-117
-117
-118
-118
-119
-119
-120
-121
-121
-122
