# Simple Text Format
# Sampling Rate (Hz):= 1200.00
# Resolution:= 12
# Labels:= ECG	aVF
# Age:=	80
# Gender:=	Feminino
95
95
96
96
97
97
97
97
97
97
97
97
97
97
98
98
98
98
98
98
98
98
99
99
99
99
99
99
99
99
99
99
100
100
100
100
100
100
100
100
99
99
99
99
98
98
97
96
96
95
95
94
94
94
93
93
92
92
91
91
92
92
92
93
93
93
93
92
91
88
85
81
77
72
68
63
58
52
48
43
38
35
31
29
27
25
25
25
26
29
32
35
40
45
49
55
60
65
70
75
79
84
87
90
92
94
95
96
97
97
97
97
97
97
97
97
96
96
96
96
96
96
96
96
96
96
96
96
97
97
97
97
97
97
97
97
97
97
96
96
95
94
93
93
92
91
90
89
88
87
86
85
84
84
84
84
84
85
85
86
87
88
88
90
91
92
93
95
96
97
98
99
99
99
99
99
100
99
99
99
98
97
97
96
95
95
94
93
92
91
90
90
89
89
89
89
89
89
89
89
89
89
89
89
89
89
89
89
89
89
90
89
89
89
89
89
90
90
90
90
90
91
91
91
91
91
91
90
91
91
91
91
90
91
91
90
90
90
90
90
89
89
89
89
89
89
89
89
89
89
89
89
89
90
90
90
91
91
91
91
91
91
91
91
92
92
92
92
92
92
92
92
92
92
91
91
92
92
91
91
91
91
91
91
91
91
90
90
90
90
90
90
91
91
91
91
91
91
91
90
90
90
91
91
91
91
91
91
91
91
92
92
92
92
92
92
92
92
92
93
94
94
94
95
96
96
97
97
97
98
98
98
98
99
99
100
100
100
100
100
100
100
101
101
100
100
100
101
101
101
102
102
102
102
102
103
103
104
104
105
105
106
106
107
107
107
107
108
108
109
110
110
110
111
111
111
112
112
113
113
113
113
114
114
114
115
115
116
117
117
118
118
118
119
119
120
120
121
121
121
121
122
121
121
121
121
121
121
121
122
122
122
122
122
121
121
122
122
122
123
123
124
125
125
126
126
126
127
127
128
128
129
129
129
130
130
130
130
130
130
130
129
129
129
128
128
127
127
127
127
126
125
124
124
123
123
123
122
122
122
121
121
121
121
120
120
119
119
119
118
118
117
117
116
116
115
115
114
114
114
113
113
112
112
111
110
110
109
109
109
109
108
108
107
107
107
107
107
106
105
105
104
104
104
103
103
102
102
102
101
101
100
99
99
98
98
97
97
96
95
95
94
93
93
92
92
91
91
91
91
90
90
90
90
89
89
89
88
88
87
87
87
87
88
87
87
87
86
86
85
85
84
84
83
83
83
82
81
80
80
79
79
78
78
78
78
78
78
78
78
77
77
78
78
78
79
80
80
81
81
81
81
81
81
81
81
80
80
80
80
80
80
80
80
80
80
80
80
80
80
80
79
79
80
80
80
80
79
79
79
79
78
78
77
77
77
77
76
76
77
77
77
78
78
77
77
78
78
78
79
79
79
79
79
80
80
80
80
80
80
80
80
80
80
80
80
80
80
80
80
80
80
80
80
80
80
81
81
81
80
80
80
80
80
80
79
79
79
79
79
79
79
79
79
80
80
80
80
80
81
81
82
82
82
82
83
83
84
84
85
85
85
85
85
85
85
85
85
85
86
86
86
86
86
85
85
85
84
84
84
84
83
83
83
83
83
83
83
82
82
82
82
82
82
81
81
81
81
81
81
81
81
81
81
82
82
82
82
82
82
82
82
83
83
83
83
83
83
83
83
82
82
82
81
80
80
80
79
79
78
78
78
77
77
77
76
76
76
75
75
75
75
75
76
76
76
76
75
75
75
75
75
75
75
76
75
75
75
75
75
75
76
76
76
75
75
75
75
76
76
76
76
77
77
77
77
77
78
78
78
78
78
78
78
78
78
78
77
77
76
75
75
75
74
74
74
74
73
73
73
73
72
72
72
72
72
71
71
71
71
71
71
71
71
70
71
71
71
71
70
70
70
70
70
70
70
70
70
70
70
71
71
71
71
71
71
71
71
71
71
70
70
70
70
70
70
70
70
70
70
70
70
70
70
70
70
70
70
70
70
70
70
70
70
70
71
71
71
71
71
71
71
71
71
71
71
71
71
71
71
71
71
71
71
70
70
70
70
69
69
69
69
70
70
70
70
70
70
70
70
70
70
69
69
70
70
70
70
70
70
70
70
70
70
70
69
69
69
69
69
69
69
68
68
68
68
68
67
67
66
66
66
66
66
66
65
65
65
65
66
66
65
65
65
65
66
66
66
66
66
66
66
67
67
67
67
67
67
67
67
67
67
67
67
66
66
66
65
65
65
64
64
64
63
62
62
62
62
61
62
62
61
61
61
61
61
61
61
62
62
62
62
63
63
63
63
64
64
64
64
64
64
64
64
64
64
64
65
65
65
65
65
65
65
65
64
64
64
64
64
64
64
64
64
64
63
63
62
62
62
62
62
62
62
61
61
60
60
60
60
60
60
60
59
59
60
60
59
59
59
59
59
59
59
59
59
58
58
58
58
58
58
58
58
58
58
58
58
58
58
59
59
59
60
60
60
60
59
60
60
60
60
61
61
61
61
61
61
61
61
60
60
60
60
59
59
59
60
60
60
60
59
59
59
59
59
60
60
59
59
59
59
59
59
59
59
59
59
59
59
59
58
58
58
58
58
58
58
58
58
58
58
58
58
58
58
58
58
58
58
58
58
58
58
59
59
60
60
60
60
60
59
59
59
59
59
59
59
59
59
58
58
58
58
57
57
56
56
55
55
56
56
56
56
56
56
57
57
58
58
58
58
58
58
59
60
60
60
60
60
60
60
59
59
59
59
58
58
57
57
57
57
56
56
56
56
56
55
55
55
55
55
56
56
56
56
56
56
56
56
56
56
56
56
56
56
55
55
55
55
55
55
55
55
55
54
54
54
55
55
55
55
55
56
56
57
57
57
57
57
57
58
58
57
57
57
57
57
57
57
57
57
57
57
57
58
58
58
58
58
58
58
59
58
58
58
58
59
59
59
59
58
59
59
58
58
58
58
57
57
57
57
57
56
56
55
55
54
54
53
53
52
52
52
52
51
51
51
51
51
51
51
52
52
52
52
52
52
52
52
52
52
52
51
52
51
52
51
51
50
50
50
50
50
49
50
49
49
49
49
49
49
49
49
49
49
49
48
48
48
48
48
48
48
49
49
49
49
49
49
49
49
49
49
49
50
50
50
50
50
50
51
51
51
51
52
51
51
52
52
52
52
52
51
52
52
52
51
51
51
51
51
51
52
51
51
50
50
49
49
50
50
50
50
50
50
50
51
51
51
51
50
50
51
51
51
51
51
51
51
51
51
52
51
51
52
52
52
52
52
53
54
54
55
55
55
55
56
56
57
57
57
57
57
58
58
58
58
58
57
57
57
57
57
56
56
56
56
56
56
55
55
55
55
54
54
54
54
53
52
49
47
43
39
35
30
26
21
15
10
5
-1
-6
-12
-16
-19
-22
-24
-25
-25
-25
-23
-21
-18
-14
-9
-3
2
8
15
20
26
32
37
42
46
50
53
56
59
60
62
63
64
64
64
64
65
65
65
64
64
64
64
64
63
64
64
64
64
64
64
64
64
64
64
64
64
63
63
63
62
61
60
59
58
57
56
55
54
53
52
51
50
48
48
48
48
48
48
49
49
50
51
52
54
55
56
57
59
60
62
63
64
65
66
66
66
67
66
66
65
65
64
64
64
63
63
62
62
61
60
60
58
58
57
56
56
56
56
56
56
56
56
55
55
55
55
55
54
54
54
55
55
55
54
54
55
55
55
55
54
54
54
55
55
55
55
55
55
55
55
55
55
55
56
56
56
57
57
57
57
57
57
57
57
57
56
56
57
57
56
56
56
56
55
55
55
55
55
55
55
55
55
55
55
55
55
55
56
56
56
56
56
57
57
57
58
58
59
59
59
59
60
60
60
60
60
60
60
60
61
61
61
61
60
60
60
60
60
61
61
60
61
61
61
61
61
61
61
61
62
62
61
61
61
62
62
61
61
61
61
61
61
62
62
62
62
62
63
63
63
64
65
65
65
66
66
67
67
68
68
68
69
69
70
70
71
71
72
72
72
73
73
73
73
73
73
74
74
74
74
74
75
75
76
76
76
76
76
77
77
78
78
79
79
79
80
80
80
80
80
80
81
81
82
82
82
82
82
82
82
83
83
83
84
85
85
86
87
87
88
88
89
89
90
90
91
92
92
93
93
94
94
94
94
94
94
94
95
95
95
95
95
96
96
96
95
95
95
95
95
95
96
96
96
96
96
96
97
97
96
96
96
96
95
95
95
95
95
94
94
94
93
93
92
92
91
91
90
90
89
89
89
88
88
87
87
87
86
86
86
86
86
86
86
85
85
86
85
85
86
85
85
86
85
86
85
85
85
84
84
84
83
83
82
81
81
80
79
79
78
77
76
76
75
74
73
73
72
71
70
70
69
68
67
67
67
66
66
66
65
65
64
64
64
64
63
63
63
63
63
63
63
62
62
62
62
62
62
61
61
60
60
60
59
59
59
58
58
58
58
57
57
56
56
55
55
55
55
55
55
54
54
54
54
53
53
52
52
52
51
51
51
51
51
50
50
50
50
49
49
49
49
49
49
49
49
48
48
48
49
49
49
49
49
49
49
49
49
49
49
49
49
49
50
50
50
50
50
50
50
50
50
50
50
50
50
50
50
50
50
50
49
49
50
50
50
50
50
50
50
50
50
50
50
50
50
51
51
51
51
51
51
51
51
51
51
51
51
51
51
51
51
52
51
51
52
52
53
53
53
54
54
54
54
54
54
54
54
54
54
54
54
54
54
54
53
53
53
52
52
52
51
51
51
51
51
51
51
51
51
52
52
52
52
53
53
53
53
53
53
53
53
53
54
54
54
54
54
54
54
54
54
54
54
53
54
54
54
54
54
54
54
54
54
54
54
53
53
53
54
54
54
54
54
54
53
53
52
52
51
50
49
49
49
48
48
47
47
46
45
45
45
45
45
45
45
45
45
46
47
47
47
48
49
49
50
50
50
50
50
50
50
50
50
50
49
49
49
48
48
48
48
47
47
47
47
47
46
46
46
46
46
46
46
46
46
46
47
47
46
46
46
46
46
47
47
47
47
47
47
47
47
47
47
47
47
46
46
46
45
45
45
45
45
44
44
44
43
43
42
42
42
42
42
42
42
42
42
42
42
42
43
43
43
44
44
44
43
43
43
43
43
43
43
44
44
44
43
43
43
43
44
44
44
44
44
44
44
44
44
44
45
45
45
45
45
45
44
44
43
44
44
44
44
43
43
43
44
44
44
44
44
44
43
43
43
43
42
42
42
42
42
42
42
42
42
41
41
41
41
41
41
41
42
42
42
42
43
44
44
44
44
44
44
45
45
45
44
44
44
44
44
43
43
43
44
44
44
44
44
44
44
44
44
44
44
44
44
44
44
44
43
43
42
42
41
41
41
41
40
40
40
40
40
40
40
40
39
40
40
40
40
40
40
40
40
40
40
40
40
39
39
39
39
39
38
38
39
39
39
39
39
39
39
39
40
40
40
40
40
40
41
41
41
42
42
42
41
41
41
41
41
41
41
41
41
42
41
41
41
41
42
42
42
41
41
41
40
40
40
40
40
39
39
39
39
39
38
38
38
38
38
38
38
38
38
37
38
39
39
39
40
40
40
40
40
40
40
41
41
41
41
42
42
41
41
40
40
39
39
40
40
40
40
39
39
39
39
39
39
39
39
40
40
40
41
41
41
40
40
40
40
40
40
40
40
40
40
40
39
39
39
39
39
39
39
39
39
39
39
39
40
39
39
39
38
38
38
38
37
37
37
37
37
37
37
37
37
36
36
37
37
37
38
38
39
39
40
40
40
40
40
41
41
41
42
42
42
42
42
42
42
42
41
41
42
42
42
41
41
41
41
41
41
40
40
39
39
39
39
39
39
38
38
38
38
38
38
37
37
37
37
38
38
38
38
38
38
38
38
39
39
39
39
40
40
40
40
41
41
41
42
42
42
43
43
43
44
44
43
44
45
45
45
45
45
45
45
45
45
46
46
46
46
46
46
47
47
47
47
48
48
48
48
48
48
48
48
48
48
47
47
47
47
46
45
45
44
44
44
43
43
43
42
42
41
41
41
41
41
41
41
41
41
41
41
41
42
41
42
42
42
42
42
41
41
41
41
41
41
41
41
40
40
40
39
38
38
38
38
37
37
37
37
37
37
37
38
38
38
39
39
39
40
40
41
40
40
40
40
40
40
40
39
39
39
39
38
38
38
38
37
37
37
37
38
37
37
37
38
38
38
38
38
38
38
38
38
38
39
39
39
39
39
39
40
40
40
40
40
40
40
40
40
40
40
41
41
41
40
40
40
39
40
40
40
40
40
40
40
40
40
40
40
40
41
41
41
42
42
41
41
41
41
41
41
41
41
41
41
42
42
42
42
42
42
42
42
43
42
42
42
42
42
42
42
42
42
42
41
42
42
41
41
41
41
40
40
40
39
39
39
39
39
39
38
38
38
37
36
35
33
29
25
21
16
11
6
1
-4
-9
-14
-20
-24
-29
-32
-35
-37
-39
-39
-39
-38
-36
-33
-29
-25
-20
-14
-8
-2
3
9
14
19
23
27
30
33
36
38
40
41
42
42
43
43
43
43
43
43
42
42
42
41
41
41
40
40
40
40
40
40
40
40
40
40
41
41
41
41
41
41
41
41
41
40
40
39
38
37
36
36
35
34
33
33
32
32
31
31
31
31
32
32
33
35
37
38
39
41
42
44
45
46
48
49
50
50
51
51
51
52
52
51
51
50
50
49
48
47
47
45
45
43
43
42
41
41
40
40
39
39
39
38
38
38
38
38
38
38
38
39
39
39
39
39
39
40
40
40
39
39
39
38
38
38
38
38
37
37
37
37
36
36
36
36
36
36
35
35
35
35
35
34
34
34
33
33
33
33
33
33
34
33
33
33
33
33
33
33
33
34
34
34
34
34
34
34
35
35
35
34
34
34
34
34
34
34
34
34
34
34
34
35
35
35
35
35
35
35
35
36
35
35
36
36
36
36
36
36
36
36
36
36
36
36
35
35
35
35
35
35
35
34
34
34
34
34
34
34
34
34
34
35
35
35
35
36
36
37
37
38
38
38
39
39
40
40
41
41
41
41
42
42
42
42
42
42
42
43
43
43
43
42
42
42
43
43
43
43
43
43
44
44
44
44
44
44
44
44
45
45
45
45
46
46
47
47
47
48
49
49
50
51
51
52
52
53
54
56
56
57
58
58
59
59
59
60
60
60
60
61
61
61
62
62
62
63
64
64
64
65
65
65
66
67
67
67
67
68
68
68
69
69
69
69
69
69
69
69
69
68
68
68
68
68
68
68
67
67
67
66
66
66
66
65
65
65
65
65
65
65
64
64
64
64
64
64
64
64
64
64
64
64
64
64
64
63
63
62
62
62
61
61
60
60
59
59
58
58
57
57
56
56
55
55
54
54
54
53
53
52
52
51
50
50
50
49
48
48
48
47
47
46
45
45
44
43
43
42
42
41
41
40
40
39
39
38
38
37
37
37
36
36
36
36
35
35
35
35
35
34
34
33
33
33
33
32
32
32
31
31
31
30
29
29
28
28
27
27
26
26
26
25
24
24
24
24
23
23
22
22
22
22
21
21
21
21
21
21
21
21
21
20
20
20
20
20
20
20
19
19
19
19
19
19
19
19
19
19
19
19
19
19
19
19
19
19
19
19
19
19
19
19
19
20
19
19
19
19
20
20
20
20
19
20
20
20
20
20
20
20
20
20
20
20
20
20
20
20
20
20
20
20
20
20
20
20
20
20
20
20
19
20
20
20
20
20
21
21
21
21
21
21
21
22
22
22
23
23
23
23
23
23
23
23
23
23
24
24
24
24
23
23
22
22
22
22
22
22
22
21
22
21
21
21
21
21
21
22
22
23
23
23
23
23
23
23
23
23
23
23
23
23
23
23
22
22
22
23
23
23
23
23
22
23
23
23
24
24
24
25
25
25
25
25
24
23
23
23
23
23
23
22
22
22
22
21
20
20
19
18
18
17
17
18
17
17
18
17
17
18
18
17
18
18
19
19
20
20
20
20
20
20
20
20
20
19
19
19
19
19
18
18
18
18
18
17
17
16
16
16
16
16
16
16
16
16
16
16
16
16
16
16
16
15
15
15
15
15
15
15
14
14
14
14
13
13
13
13
13
13
12
12
12
12
12
12
12
12
12
12
13
13
13
13
13
13
13
13
13
13
13
12
13
13
13
13
12
12
12
12
12
12
12
12
12
12
12
12
12
12
12
13
13
13
14
14
14
14
14
13
13
14
13
13
12
12
12
12
12
11
11
11
10
10
10
10
10
9
9
9
10
10
10
10
10
11
11
11
11
11
11
11
11
11
11
11
11
11
11
11
11
11
11
11
11
11
11
11
11
12
12
13
13
13
13
14
14
14
14
13
13
13
13
13
12
12
12
12
12
12
12
11
11
11
11
11
12
12
12
12
12
13
13
13
13
13
13
13
13
13
13
13
13
13
13
13
13
13
13
13
13
13
13
14
14
14
14
15
15
14
14
14
14
14
15
15
15
15
14
14
14
14
14
14
13
14
14
14
14
14
14
14
14
14
14
15
15
15
15
15
15
15
14
14
14
14
14
14
14
14
14
13
14
14
14
14
15
15
15
15
15
16
16
16
16
16
17
17
17
17
16
16
16
16
17
17
17
17
16
16
16
16
16
16
16
17
17
17
17
17
17
17
17
17
17
17
18
18
18
17
17
17
17
17
17
17
17
17
17
16
16
15
15
15
14
14
14
13
13
13
13
13
13
13
13
13
13
14
14
15
15
15
15
16
16
17
17
17
17
17
17
17
17
17
18
18
18
18
18
18
18
18
18
18
18
18
18
18
18
18
18
18
18
18
18
18
18
18
18
18
18
18
18
18
19
19
19
19
18
18
18
18
18
18
18
18
18
18
19
19
19
19
19
19
19
19
19
19
19
20
20
20
21
21
21
21
22
22
23
23
23
23
23
23
24
23
23
23
23
23
22
22
22
22
22
23
23
23
24
24
24
24
24
25
25
26
27
27
27
27
27
27
27
27
27
27
26
26
25
24
23
22
22
21
21
20
20
20
20
19
19
19
19
18
18
18
19
19
19
20
20
20
20
20
20
21
21
21
20
20
20
20
20
19
19
19
19
19
19
18
19
18
18
18
18
19
19
18
18
18
18
18
18
18
18
19
19
19
19
19
19
19
19
19
19
19
19
19
19
19
19
19
20
20
19
19
20
20
20
20
20
20
20
20
21
21
21
21
21
22
22
22
23
23
23
23
23
23
22
22
22
22
22
22
22
23
23
22
22
22
22
22
23
23
23
24
24
25
25
25
25
25
25
26
26
26
26
26
26
26
26
26
25
25
24
24
24
24
24
24
24
25
25
25
25
25
25
25
26
27
27
27
28
29
29
29
29
30
29
29
28
28
27
28
28
27
27
27
26
26
26
26
25
25
25
25
25
25
26
26
26
26
26
25
24
21
17
13
8
4
-1
-6
-12
-17
-23
-29
-34
-39
-44
-48
-52
-55
-57
-58
-58
-57
-55
-52
-48
-44
-39
-33
-27
-21
-16
-10
-4
1
7
11
15
18
22
24
27
29
30
31
32
32
33
33
33
32
32
32
31
31
31
31
31
31
31
31
32
32
32
33
33
33
34
34
35
35
34
34
34
33
32
32
31
29
28
27
26
25
23
22
21
21
20
19
19
19
18
19
20
21
22
23
24
25
26
28
30
31
33
34
35
36
37
38
38
39
39
39
39
39
39
39
39
38
38
37
37
36
35
35
34
33
33
32
31
31
30
29
29
29
28
28
28
27
27
27
26
26
26
25
25
25
26
26
27
27
27
28
28
29
29
29
29
29
29
29
29
29
29
29
29
29
29
29
29
29
29
28
29
29
29
29
30
30
31
31
31
32
32
32
32
32
32
32
33
32
32
32
32
31
31
31
31
31
31
30
30
30
30
30
30
30
30
30
31
31
31
31
31
31
31
31
31
32
32
32
32
32
33
33
33
34
34
34
34
34
35
35
36
36
37
37
37
38
38
38
38
38
39
39
39
39
38
38
38
38
38
38
38
38
38
38
38
38
38
38
38
37
37
37
37
38
38
39
39
39
39
39
39
40
40
40
41
41
42
43
43
44
44
45
45
46
46
46
47
47
48
48
48
49
49
50
50
50
50
51
51
52
52
53
53
53
54
54
54
54
55
55
55
55
55
56
56
56
57
57
58
58
58
58
59
59
60
61
61
62
63
63
64
65
66
66
66
67
67
68
68
69
69
69
69
69
69
69
69
69
69
69
68
69
69
69
69
69
69
69
70
70
69
69
69
69
70
70
70
70
69
69
69
69
69
69
69
68
68
68
68
68
68
68
67
67
67
67
66
66
66
66
65
65
64
64
63
63
62
62
61
61
60
60
60
60
59
59
59
58
58
58
57
57
56
56
56
56
56
56
55
55
54
54
53
52
52
52
51
51
51
51
50
50
49
49
48
47
47
46
46
45
45
45
44
44
43
43
42
41
40
40
39
39
38
38
38
38
37
37
36
36
36
36
35
35
35
35
35
34
34
34
34
34
34
34
34
34
34
34
34
34
34
34
33
33
33
33
33
32
31
31
31
31
30
30
29
29
28
28
28
27
27
26
26
26
25
25
25
25
25
25
25
25
25
25
25
25
25
25
25
25
25
25
25
25
26
26
25
25
25
26
26
26
26
26
26
25
25
26
26
26
26
26
26
26
27
27
27
27
27
27
27
28
28
28
28
28
27
27
28
28
28
28
28
28
28
28
28
28
28
29
29
30
30
31
31
31
32
32
32
32
32
32
32
32
33
33
33
33
33
32
32
32
32
31
31
30
30
30
30
30
30
29
29
30
30
30
30
30
30
30
30
31
31
32
32
33
33
34
34
34
34
34
33
34
34
34
34
34
34
34
33
33
33
33
33
33
33
33
33
33
33
33
33
33
34
34
34
34
35
35
35
35
36
36
36
36
36
36
36
36
36
36
36
36
37
37
37
37
36
36
36
36
36
35
35
35
35
35
34
34
34
34
33
33
33
33
33
33
33
33
33
33
32
32
32
32
31
31
31
31
31
31
31
31
32
32
32
32
31
31
31
32
32
32
32
32
33
33
33
33
33
32
32
32
32
32
32
31
31
31
31
31
31
31
31
31
31
31
31
31
31
31
30
30
30
31
31
30
30
30
29
29
29
29
29
29
29
29
29
29
28
28
28
27
27
27
27
26
26
26
26
26
26
26
26
26
26
26
26
26
26
26
26
27
27
28
28
28
28
29
29
29
30
30
30
30
30
30
30
30
30
30
30
29
30
30
29
29
28
28
28
28
28
28
28
28
28
28
28
29
29
29
29
29
29
29
29
29
30
30
30
30
30
30
29
29
29
29
28
28
28
28
28
27
27
27
26
26
26
26
26
26
27
27
27
27
27
27
27
28
28
28
29
29
30
30
30
30
30
30
30
30
31
30
30
30
30
30
31
31
31
31
31
31
31
31
31
30
30
30
31
31
32
32
32
32
32
33
32
32
32
32
32
32
32
32
32
32
31
31
30
30
29
29
28
28
27
26
26
26
26
25
25
25
25
25
26
26
26
26
26
27
27
28
28
29
29
30
30
30
30
30
30
30
30
30
29
29
28
28
27
27
27
27
27
26
26
26
26
26
26
26
26
26
27
28
28
28
28
28
28
28
28
29
29
29
29
29
28
28
28
28
28
28
28
28
28
28
28
29
29
29
29
29
29
29
29
29
29
29
29
28
28
28
29
29
30
30
30
30
30
29
29
29
29
29
29
29
29
29
29
29
29
28
28
28
28
27
27
27
28
28
28
28
28
28
28
29
29
29
29
29
29
29
29
29
29
30
30
30
30
30
30
30
30
30
30
30
31
31
31
31
31
30
30
31
30
30
30
30
30
30
30
31
30
30
31
30
31
30
31
31
32
32
33
33
33
33
33
33
34
34
34
34
34
34
34
35
35
35
35
35
35
34
34
34
34
33
33
33
32
32
31
31
31
30
30
30
30
30
29
29
29
29
29
29
29
29
29
29
29
29
29
28
28
27
27
27
27
27
27
27
27
28
28
28
28
28
28
29
29
30
30
30
31
31
31
31
30
30
30
29
28
27
27
26
26
25
24
24
24
24
24
23
23
23
23
24
24
25
25
25
26
26
26
27
28
28
29
29
29
29
29
29
29
29
28
28
27
27
26
26
25
25
24
24
24
24
23
23
23
22
22
22
22
22
22
22
23
23
23
23
23
24
24
24
24
24
24
24
24
24
24
25
25
25
25
25
25
25
25
25
26
26
26
27
27
27
27
28
28
29
29
29
30
30
30
30
30
30
30
30
30
30
30
30
29
29
29
29
29
29
28
28
27
27
26
26
25
25
25
25
24
24
23
20
17
13
9
4
0
-5
-10
-15
-21
-26
-32
-37
-41
-45
-49
-52
-54
-55
-56
-55
-54
-51
-48
-44
-39
-33
-27
-21
-15
-10
-4
2
7
12
16
20
23
26
29
31
32
33
34
34
34
34
35
35
34
34
34
34
34
33
33
32
33
33
33
33
34
34
34
35
35
35
35
35
35
34
34
33
33
32
31
31
30
29
28
27
26
25
24
23
22
21
21
22
22
22
23
24
25
26
26
27
29
30
31
33
34
36
37
38
39
40
41
41
42
42
42
42
42
42
43
42
42
42
42
41
40
39
39
38
38
37
37
36
36
35
34
34
34
34
34
34
33
33
33
33
33
33
33
33
33
33
33
33
33
32
32
32
32
32
32
32
31
31
32
32
32
32
32
32
32
32
33
33
32
33
33
33
34
34
34
34
35
35
35
35
35
35
35
35
35
36
36
35
35
35
35
35
35
35
35
35
35
34
34
34
34
34
34
34
34
34
34
34
33
34
34
34
35
35
35
35
35
35
35
35
35
36
35
36
36
37
37
37
37
38
38
38
39
39
40
40
40
40
41
41
41
41
42
42
42
42
42
42
41
41
41
41
41
41
41
41
41
41
41
41
41
42
42
42
43
44
44
45
45
45
46
46
47
47
48
48
48
48
48
49
49
49
49
50
50
50
50
50
50
51
51
51
51
52
52
53
53
53
53
54
54
55
55
56
56
57
58
58
59
59
59
60
61
61
61
61
62
62
63
63
64
64
65
65
65
66
66
67
67
68
69
69
70
70
71
71
71
72
73
73
73
74
74
74
74
74
74
74
74
74
75
75
75
75
75
75
75
76
76
76
76
76
76
76
76
76
76
76
76
76
76
75
75
75
75
75
75
75
74
74
74
73
73
73
72
72
72
71
71
70
70
69
69
69
68
68
67
67
66
66
66
65
65
64
63
63
63
62
62
61
61
60
59
59
58
58
57
57
56
55
55
55
54
53
53
52
52
52
51
51
50
50
50
49
49
48
49
48
48
48
48
47
46
46
45
45
45
45
44
44
44
44
43
43
42
42
41
41
40
40
40
40
39
38
38
38
38
37
37
37
36
36
36
36
35
35
34
34
34
34
34
34
33
33
33
32
32
31
31
31
30
30
30
30
30
30
30
30
30
30
30
30
30
30
30
30
30
30
30
30
30
30
30
30
29
29
29
29
29
28
28
28
28
28
28
28
28
28
28
28
28
28
28
28
28
28
29
29
29
29
30
29
29
29
29
30
30
30
30
30
31
31
31
32
32
32
32
31
31
31
31
31
32
32
32
32
32
32
32
32
32
32
32
32
32
32
32
32
32
32
32
31
31
31
31
31
31
31
31
31
32
32
32
32
32
32
32
33
33
33
33
33
34
34
34
35
35
35
35
35
36
36
36
36
36
36
35
35
36
36
36
36
36
35
35
35
35
35
35
35
35
35
35
35
36
35
35
35
35
35
35
35
35
35
35
35
35
35
35
35
35
35
35
35
35
35
35
35
36
35
35
35
35
35
35
36
36
36
35
35
35
35
35
35
35
35
35
35
35
36
36
36
36
36
36
36
36
36
36
36
37
37
37
37
37
37
36
36
37
37
37
37
36
36
36
36
36
36
36
36
36
36
36
36
36
36
36
36
35
35
35
35
35
35
35
35
35
34
34
34
34
34
34
34
34
34
34
34
34
34
34
33
33
33
33
33
33
33
33
32
32
32
31
31
31
30
31
31
31
31
31
31
30
30
30
30
30
30
30
30
30
31
31
31
31
31
30
31
31
31
30
30
30
29
29
28
28
28
28
27
27
28
28
27
27
27
27
27
27
27
27
28
28
28
28
28
29
29
29
29
29
29
30
29
29
29
29
29
29
29
29
29
29
29
29
29
29
29
29
29
28
28
28
28
28
27
27
27
27
27
27
27
26
26
26
26
27
26
26
26
26
26
26
26
27
27
27
27
27
28
27
27
26
26
26
27
26
26
26
26
25
25
24
24
24
24
23
24
24
24
24
24
24
24
24
24
24
25
25
25
25
26
26
27
26
26
26
26
27
27
27
27
27
27
26
26
26
26
25
25
25
25
25
24
24
24
24
23
23
23
22
22
22
22
22
22
22
22
22
22
22
23
23
23
23
23
23
24
24
24
25
25
25
25
26
26
26
25
25
25
25
25
25
25
25
25
24
24
24
23
23
22
22
22
22
22
22
22
22
22
22
22
22
22
22
22
22
22
23
23
23
23
23
23
23
23
23
24
24
24
24
24
24
24
24
24
24
24
24
24
24
24
24
24
25
25
25
25
25
24
25
25
25
25
26
25
25
25
26
26
26
25
25
25
25
25
25
25
25
25
25
25
25
26
26
26
26
27
27
27
27
27
27
26
26
26
26
26
26
25
25
25
25
25
24
24
24
24
24
24
23
23
23
23
24
24
24
24
23
23
23
23
22
22
22
22
22
22
22
21
21
21
21
21
21
20
20
20
20
20
19
19
19
18
18
18
18
18
18
18
18
18
18
17
18
18
19
19
19
20
20
20
21
21
21
21
21
20
20
20
20
19
19
19
19
18
18
17
17
17
17
17
17
17
17
17
18
18
18
19
19
19
20
20
20
20
20
20
19
19
19
19
19
18
18
18
17
17
17
17
17
17
17
17
17
17
17
18
18
18
18
19
20
21
21
21
21
21
21
21
21
21
21
21
21
22
22
22
21
21
21
21
21
21
21
21
21
21
22
22
22
23
23
24
25
25
26
26
26
26
26
27
27
27
27
27
27
27
27
26
26
25
25
24
24
24
23
23
23
22
22
22
21
21
21
22
21
21
20
19
17
13
10
5
1
-4
-8
-14
-19
-24
-30
-35
-40
-45
-49
-52
-54
-55
-55
-55
-54
-52
-49
-45
-41
-35
-29
-23
-18
-11
-6
0
5
9
14
18
21
24
26
28
29
30
31
31
31
31
30
30
29
29
28
28
28
28
27
27
26
25
26
26
26
27
27
28
29
29
30
31
31
31
31
31
31
31
30
30
29
28
27
26
25
24
23
21
21
20
20
19
19
19
18
19
19
20
21
21
23
24
25
26
27
28
29
30
31
32
33
34
35
35
35
35
36
35
35
35
36
35
35
35
34
34
33
33
32
32
31
31
31
30
29
29
29
29
29
28
28
28
28
28
27
27
27
27
27
28
28
28
28
28
28
28
28
28
28
28
27
27
27
27
27
27
27
27
27
27
27
27
27
27
28
28
28
29
29
29
29
28
29
29
29
30
29
29
29
29
29
29
29
28
28
28
28
28
28
28
28
28
28
28
28
28
28
28
28
28
28
28
28
28
29
29
29
29
30
30
30
30
30
31
31
31
31
31
31
31
31
31
31
31
31
31
31
32
32
32
32
32
32
32
33
33
33
33
34
34
34
35
35
35
36
37
37
38
38
38
38
38
38
38
38
38
39
39
39
39
39
39
40
40
40
41
41
40
41
41
41
42
42
43
43
44
44
45
45
45
46
46
46
46
46
46
47
47
48
48
49
49
49
50
50
50
51
51
52
52
53
53
53
53
54
55
55
56
57
57
57
58
59
59
59
60
60
60
61
61
62
63
63
64
64
64
65
65
65
66
66
66
66
67
67
67
67
67
67
67
68
68
67
68
68
68
68
69
69
69
69
69
69
69
69
69
69
69
69
70
69
69
69
70
70
70
70
70
70
70
69
69
69
69
69
68
68
68
68
68
68
67
67
67
67
66
66
65
64
63
62
62
61
61
61
60
59
58
58
57
56
56
55
55
55
54
54
53
53
52
52
52
52
52
52
51
50
50
49
49
49
49
48
48
47
47
46
46
45
45
45
44
44
44
43
43
43
42
42
42
41
41
40
40
39
39
38
38
38
38
38
38
38
38
38
37
37
37
37
36
37
37
36
36
36
36
35
35
35
34
33
33
33
32
32
31
31
30
30
30
29
29
28
28
28
27
27
26
26
26
26
25
25
25
25
25
25
25
24
25
25
25
25
26
26
26
27
27
27
27
27
27
27
27
27
27
27
27
27
27
27
27
27
26
26
26
26
26
27
27
27
27
27
27
27
27
28
28
29
29
29
29
29
29
29
29
29
29
28
28
27
27
26
26
25
25
25
24
24
24
23
23
23
23
23
24
24
25
25
25
26
27
28
29
30
30
31
32
33
34
35
36
36
36
37
37
37
37
37
37
37
37
37
37
37
36
36
36
36
35
35
35
34
33
33
34
34
34
33
33
33
33
33
34
34
34
34
34
34
35
35
36
36
37
38
38
39
39
39
39
40
40
40
40
40
40
40
40
39
39
39
39
38
38
38
37
37
37
37
37
37
37
37
37
37
37
37
37
37
37
37
37
37
37
37
37
37
37
37
37
36
36
36
35
35
35
34
34
34
34
34
34
34
34
34
35
35
34
35
34
35
35
36
36
36
37
37
36
36
37
37
37
38
37
37
37
37
36
36
35
35
34
34
35
34
34
33
33
33
33
33
33
33
33
33
33
33
33
33
33
33
33
33
33
34
34
34
34
34
34
34
34
35
35
35
35
35
35
35
35
35
35
34
35
35
34
34
34
34
34
34
34
34
34
34
34
34
34
34
34
34
34
35
35
34
34
34
34
33
33
34
34
34
34
35
35
35
35
35
35
35
35
35
36
36
36
36
36
35
35
35
34
34
34
34
34
33
33
33
32
32
33
33
33
33
33
33
33
33
33
33
33
34
34
34
34
34
34
33
33
33
33
33
34
34
33
33
33
34
34
34
35
35
35
35
35
36
36
36
36
36
36
36
36
36
36
36
37
37
37
37
37
37
36
36
36
36
36
36
36
36
35
35
35
35
35
34
34
35
35
35
35
35
35
35
35
36
36
36
36
37
37
37
37
37
37
37
37
37
37
38
37
37
37
37
37
37
37
37
37
36
36
36
36
36
36
36
36
36
36
35
35
35
35
35
35
35
35
35
35
35
35
36
36
36
36
36
37
37
38
38
38
38
38
39
39
39
39
39
39
39
39
39
39
39
39
39
39
39
39
39
40
39
39
39
40
40
40
40
40
40
40
40
40
40
40
40
39
39
39
39
39
39
39
38
38
38
38
38
38
38
38
39
39
39
38
38
38
39
39
39
39
39
38
38
38
39
39
39
39
39
39
39
39
39
39
39
39
39
40
40
41
41
40
40
40
40
40
40
40
41
40
40
40
40
40
40
40
40
40
41
41
41
41
41
42
42
42
42
42
42
42
43
43
43
43
43
43
43
43
43
43
43
43
43
43
44
44
44
45
45
45
45
45
45
45
45
45
46
46
46
46
45
45
44
43
43
43
42
42
42
42
42
41
41
42
42
42
41
42
42
42
42
42
42
42
42
42
41
41
40
39
39
39
38
38
37
37
37
37
36
36
36
35
35
35
35
36
36
36
36
36
36
36
36
36
36
37
37
37
38
38
38
39
39
40
40
40
41
40
40
40
41
41
41
41
41
40
40
40
40
40
40
39
39
39
39
39
39
40
40
40
41
42
42
42
43
43
43
44
44
44
44
44
44
44
44
44
44
43
43
43
43
43
43
43
43
43
43
43
43
43
43
43
43
44
44
44
44
44
44
44
44
44
44
43
43
42
42
43
43
43
43
44
44
44
44
45
45
45
45
45
45
45
46
46
47
47
47
47
47
47
47
47
47
48
49
49
50
50
50
50
51
51
51
51
51
51
51
51
51
50
50
49
49
48
48
47
47
46
46
45
45
44
44
43
41
38
35
32
27
23
18
13
8
3
-2
-6
-12
-16
-21
-24
-27
-29
-30
-30
-30
-28
-27
-23
-19
-14
-9
-4
2
8
14
20
25
30
35
39
43
46
49
51
52
54
55
56
57
57
57
57
57
57
57
57
57
57
57
57
58
58
58
58
58
58
58
58
58
58
58
58
58
58
58
58
57
56
56
55
54
53
53
52
52
51
50
50
50
49
48
48
48
48
49
49
49
50
51
52
53
54
55
56
57
58
60
61
62
63
64
64
65
65
66
66
66
66
66
66
66
65
64
64
63
62
62
61
61
60
59
58
58
57
57
57
56
56
55
55
55
55
55
54
54
54
54
54
54
54
54
54
54
54
54
54
54
54
54
54
54
54
54
54
55
55
55
55
55
55
55
55
56
56
56
56
56
56
56
56
56
56
55
54
54
54
54
54
53
53
52
52
51
51
51
51
51
51
51
52
53
53
53
54
54
55
56
56
57
58
59
59
59
59
59
59
60
60
60
60
60
60
59
59
58
58
57
57
57
57
56
56
57
57
57
57
57
57
57
58
58
59
59
59
60
60
60
60
60
60
61
61
61
62
62
62
62
62
61
61
61
62
62
63
63
63
64
64
64
65
65
65
65
66
66
66
66
66
66
66
66
67
67
68
68
68
69
69
70
70
70
71
72
73
73
74
75
75
76
76
77
77
78
78
78
78
79
79
79
79
80
80
80
81
81
81
81
82
82
82
83
83
83
83
83
84
83
83
84
84
85
85
85
86
87
87
87
87
88
88
89
90
90
91
91
91
92
92
92
93
93
94
94
94
95
95
95
96
96
96
97
98
98
98
98
99
99
99
99
99
99
98
98
98
98
98
97
97
97
96
96
95
95
94
94
93
92
92
92
92
92
92
92
92
92
92
92
91
91
91
91
92
91
91
91
91
91
90
90
89
89
88
88
87
87
86
85
84
84
83
83
82
81
81
81
80
80
80
80
79
79
79
79
78
78
77
77
76
76
75
74
73
72
71
71
70
69
69
68
67
67
66
66
65
65
65
65
64
64
65
65
65
65
65
64
64
64
64
64
64
63
63
62
61
61
60
60
59
58
58
57
57
57
56
56
55
55
54
54
54
53
53
53
53
53
53
53
53
53
53
54
54
54
54
54
53
53
53
53
54
54
53
53
53
53
53
52
52
52
51
51
51
51
51
51
51
51
51
51
51
51
52
52
52
53
53
52
52
52
53
53
53
53
53
53
53
53
54
54
53
53
54
54
54
54
55
55
54
54
54
54
54
54
54
54
54
54
55
55
55
55
55
55
55
56
56
56
56
56
56
57
58
58
58
58
57
57
58
58
58
58
57
57
58
58
58
58
58
58
58
59
59
59
59
60
60
60
61
61
61
62
62
62
63
63
64
64
64
64
64
64
64
64
64
64
63
63
63
63
62
62
62
62
62
62
62
61
61
61
61
61
61
61
62
62
62
62
63
63
63
63
63
63
63
63
62
62
62
62
61
61
61
61
60
60
60
59
59
59
59
58
58
58
58
59
59
59
59
59
59
59
59
59
60
59
59
59
59
59
59
59
58
58
58
57
57
56
56
55
55
55
54
54
54
54
54
54
54
54
54
54
53
53
54
54
54
54
54
54
54
53
53
53
53
52
52
52
52
51
50
50
49
49
50
50
50
50
50
50
50
50
50
50
50
50
50
51
52
52
52
52
52
52
52
52
52
52
52
52
52
52
52
52
52
51
51
51
50
50
49
49
48
48
48
47
47
47
46
46
46
46
46
46
47
47
47
47
47
48
48
48
48
48
48
49
49
49
49
49
49
49
49
48
48
47
47
47
46
46
46
46
45
45
45
45
45
45
45
45
46
46
46
45
45
45
45
45
45
45
45
45
45
45
45
45
45
45
45
45
45
45
44
44
44
44
44
44
44
44
44
44
44
44
43
43
43
43
43
42
42
42
42
42
42
42
42
42
43
43
43
43
43
43
43
43
43
44
44
44
44
44
44
44
44
44
44
44
43
43
43
42
42
42
42
42
41
41
40
40
39
40
39
39
38
38
38
38
38
38
38
37
37
37
37
38
38
38
38
38
38
38
38
38
38
37
37
37
37
36
36
36
36
36
36
36
36
35
35
35
35
35
35
35
35
35
35
36
36
36
36
36
36
36
36
36
36
36
36
36
36
36
37
37
37
36
36
36
36
36
36
37
36
36
36
36
36
36
36
36
36
36
37
37
37
37
37
37
37
37
37
37
37
37
37
36
36
35
35
34
33
33
32
32
31
31
31
30
30
30
29
29
29
29
29
29
29
29
29
28
28
28
28
28
28
28
28
28
27
27
27
26
26
26
27
27
27
27
27
28
28
28
29
29
29
29
29
30
30
31
30
30
30
31
30
30
31
31
30
31
31
32
32
32
32
32
33
33
33
33
32
32
32
32
31
31
31
31
30
29
29
28
27
27
26
25
25
25
25
25
24
24
23
23
23
23
23
23
23
23
23
23
23
23
22
22
23
23
23
22
22
22
22
22
22
22
22
22
21
22
22
21
21
21
21
21
21
21
22
22
22
22
22
22
23
23
23
23
23
23
22
22
22
22
21
21
21
20
20
19
19
19
19
19
18
18
18
19
19
19
20
20
21
22
22
22
22
23
23
23
23
23
23
23
23
23
23
22
22
21
21
21
21
21
20
20
20
20
20
20
20
20
21
21
21
21
21
21
21
21
21
21
21
21
21
21
22
21
21
21
21
21
21
21
21
22
22
23
24
24
24
25
25
26
26
26
27
27
27
28
28
27
27
27
27
28
28
28
28
28
27
27
27
27
26
26
26
25
25
24
23
23
22
22
21
21
20
20
19
19
19
19
20
20
20
21
22
23
23
24
24
22
19
16
12
9
4
0
-4
-9
-15
-20
-26
-31
-36
-40
-44
-47
-48
-50
-50
-50
-48
-45
-42
-38
-33
-28
-23
-17
-11
-6
0
4
9
13
17
20
23
25
26
27
27
28
28
28
28
28
27
27
26
26
26
26
26
25
26
25
26
27
27
27
28
29
30
31
32
33
33
33
33
33
33
33
32
32
31
30
30
29
28
26
25
25
24
23
23
23
22
22
22
22
22
23
24
25
25
26
28
29
30
31
32
34
35
36
36
37
38
38
38
39
39
39
39
38
38
38
37
36
35
34
34
33
33
32
32
31
30
29
29
29
29
29
28
28
28
27
27
28
28
28
28
27
28
28
28
28
28
27
27
27
27
27
27
27
27
27
27
27
27
27
27
27
27
27
28
27
27
27
27
27
27
27
27
27
27
27
27
28
28
28
28
28
28
29
29
29
29
29
30
30
30
30
31
31
31
32
32
32
32
32
32
32
32
32
32
32
31
31
31
31
31
30
30
30
29
29
29
29
29
28
28
28
28
28
28
28
28
28
29
29
29
29
29
29
29
29
30
30
30
29
29
30
30
30
30
31
31
30
30
31
31
31
31
31
31
32
32
32
33
33
33
34
34
35
35
36
36
36
36
37
38
37
37
38
38
38
39
39
39
39
39
39
40
40
41
41
41
42
42
43
44
44
45
45
46
46
47
48
48
49
49
50
50
50
50
49
50
50
49
50
50
50
50
50
51
51
52
52
52
53
53
54
54
55
55
56
56
57
58
58
59
60
61
61
62
63
63
64
64
65
65
65
66
66
66
67
66
67
67
66
66
66
66
66
66
65
65
65
65
65
64
64
64
63
63
63
62
62
62
62
62
62
61
61
61
61
61
60
60
60
60
60
60
60
60
59
59
59
59
59
58
58
57
57
56
56
56
55
54
53
52
51
51
51
50
50
49
49
49
48
48
48
47
47
47
47
46
46
45
45
45
45
45
44
44
44
43
43
42
41
41
40
39
38
37
37
37
37
36
35
35
34
34
34
33
33
32
32
31
31
31
30
30
30
29
29
28
27
27
26
25
24
24
24
24
23
23
22
22
22
21
21
20
20
20
19
19
19
18
18
18
18
18
18
18
18
18
17
17
17
17
17
17
17
17
17
17
17
17
16
16
16
16
16
16
16
16
15
15
15
15
14
14
14
14
15
15
15
15
15
14
14
14
14
14
14
14
14
14
14
14
14
13
13
13
13
13
13
13
14
14
14
14
14
14
14
14
14
14
14
14
14
15
15
15
15
15
15
15
16
16
16
17
17
17
17
17
18
18
18
18
18
18
18
18
18
19
19
19
19
18
18
18
18
18
18
18
18
18
19
19
19
19
19
19
20
20
21
21
22
22
22
22
23
23
23
23
23
23
23
23
22
22
22
22
22
22
22
22
21
21
21
21
21
21
22
22
22
22
23
23
23
24
24
24
24
24
24
25
25
25
25
25
25
25
25
25
25
24
24
25
25
25
25
24
24
24
24
24
24
24
24
24
23
23
23
23
22
22
22
22
21
21
21
21
20
20
20
20
20
21
21
22
23
23
23
23
24
24
24
24
25
25
25
25
26
26
26
26
25
25
25
25
24
24
24
23
22
22
21
21
21
20
20
19
18
18
17
17
16
16
16
16
16
16
16
16
16
16
17
17
17
16
16
16
17
18
18
18
17
17
17
17
17
17
17
17
17
17
17
17
17
17
17
17
17
17
17
17
17
17
17
17
17
17
17
17
17
17
17
17
17
17
17
16
16
16
15
15
15
15
15
16
16
15
15
14
14
15
15
15
15
15
15
14
14
14
14
13
13
13
13
13
13
13
12
12
12
11
11
11
11
11
11
11
11
11
11
11
11
11
12
12
12
12
12
12
13
13
14
14
14
14
14
14
14
14
13
13
13
13
13
13
13
12
11
11
11
10
10
10
10
10
10
10
10
10
11
11
11
11
11
12
12
13
13
14
15
15
16
16
16
16
16
16
17
17
17
17
17
17
17
16
16
16
16
15
15
14
14
13
13
12
12
12
12
12
12
12
12
12
12
11
11
11
10
10
10
10
11
11
11
11
11
11
11
11
11
11
11
11
12
12
13
13
12
12
13
13
13
13
12
12
11
11
11
11
11
10
10
10
10
11
10
10
10
10
11
11
11
11
11
11
11
11
11
11
11
11
11
11
11
11
11
11
12
12
12
12
12
12
13
13
13
13
14
14
14
14
15
14
14
14
14
14
13
13
12
11
11
11
10
10
10
9
9
9
9
9
9
9
9
10
10
11
11
12
12
12
12
12
12
12
12
12
12
12
12
12
11
11
11
11
10
10
10
10
10
9
9
9
9
9
9
9
9
9
9
9
9
9
9
8
8
8
8
8
8
8
8
8
8
9
8
8
8
8
8
8
8
8
9
9
9
9
9
8
8
8
8
8
8
7
7
7
7
7
7
7
7
6
6
6
7
7
7
7
7
7
7
8
9
9
10
11
11
11
12
12
12
12
13
13
13
14
14
14
14
14
14
14
14
14
13
13
14
14
13
13
13
13
13
13
13
13
13
13
12
12
12
12
12
11
11
11
11
11
10
10
10
9
9
9
9
9
9
9
8
8
8
8
7
7
7
6
6
6
5
5
5
5
5
5
5
5
5
5
5
5
5
5
5
5
5
5
6
5
6
6
5
5
5
5
5
5
5
4
4
4
4
4
5
5
5
5
5
5
5
5
5
5
5
4
4
5
5
5
5
5
5
5
5
5
6
6
6
6
6
6
6
6
6
7
7
7
7
7
7
7
7
7
7
7
6
6
7
7
8
8
8
8
9
9
9
9
10
10
10
10
10
11
11
11
11
11
11
10
10
10
10
10
10
10
10
10
9
9
9
9
9
10
10
10
10
11
11
11
11
11
11
11
11
11
11
12
12
12
12
13
13
14
14
15
15
16
16
16
17
18
18
19
20
20
20
20
21
20
20
19
19
19
19
18
18
18
17
17
16
15
15
15
15
15
15
15
13
11
7
3
0
-5
-9
-15
-20
-25
-30
-36
-41
-47
-52
-56
-60
-63
-65
-66
-66
-66
-64
-61
-57
-53
-48
-43
-37
-31
-25
-19
-13
-7
-2
2
6
10
13
16
18
20
21
22
23
24
24
24
25
24
24
24
24
23
23
23
23
23
23
23
23
23
23
23
24
24
24
24
25
25
25
25
25
25
25
24
24
23
22
21
21
20
19
18
18
17
16
16
15
15
15
15
15
16
16
17
18
20
21
23
24
26
26
27
29
29
30
31
31
32
32
32
32
32
32
31
31
30
30
29
28
27
27
26
25
25
24
23
23
23
22
22
22
21
21
20
20
20
20
19
19
19
19
19
19
20
20
20
20
20
20
21
21
21
21
21
21
21
21
20
20
20
20
20
21
21
21
21
21
21
21
21
21
21
21
22
23
23
24
24
24
24
24
24
24
25
25
25
25
25
25
25
25
24
24
24
24
24
24
24
24
24
23
23
23
23
23
23
23
23
23
24
24
24
24
24
24
24
25
25
25
25
26
26
26
26
26
27
27
27
28
28
28
29
29
29
29
30
30
30
31
30
30
30
31
31
31
31
31
31
31
31
31
31
30
30
31
31
31
30
30
30
30
30
30
31
31
31
32
32
32
33
33
34
34
35
35
36
37
38
38
39
40
40
41
41
41
42
42
43
43
44
44
44
45
45
45
45
46
46
46
46
47
47
47
47
47
47
48
48
48
49
49
49
50
50
50
51
51
52
53
53
53
54
55
55
56
56
57
58
58
59
59
60
60
60
61
61
61
62
61
61
61
61
61
61
61
61
61
61
61
62
62
62
63
63
63
64
65
65
66
66
66
67
67
67
67
68
68
68
68
68
67
66
66
65
65
65
64
64
63
62
62
62
62
61
61
60
60
59
59
58
58
58
57
57
57
56
56
56
56
55
55
55
55
54
54
54
54
53
53
52
52
51
50
50
50
50
49
49
48
48
47
46
46
45
45
45
45
44
44
44
43
42
42
42
41
40
40
40
39
39
38
38
37
37
37
37
36
36
36
36
36
36
35
35
35
35
34
34
33
33
33
32
32
31
31
30
30
29
29
28
27
27
26
26
26
25
25
25
24
24
24
24
24
24
24
24
24
23
23
23
22
22
22
22
22
22
22
22
21
21
21
20
20
20
19
19
19
19
19
19
19
19
19
19
19
19
19
20
20
20
20
20
20
20
21
21
21
22
22
22
22
22
22
22
22
23
23
23
23
23
23
23
23
23
23
23
23
23
23
23
23
23
23
23
23
23
23
22
22
22
22
22
22
22
22
21
21
21
21
21
22
22
22
22
22
23
23
23
23
23
24
24
24
25
25
25
25
25
26
26
27
27
28
28
28
28
28
28
28
28
29
29
30
30
30
30
30
30
30
30
30
29
29
29
29
29
29
29
29
29
30
30
30
30
30
30
30
30
30
30
30
30
30
30
31
31
32
32
32
32
32
32
32
32
32
32
32
32
32
33
33
33
33
33
33
34
34
34
34
34
33
34
34
34
34
34
34
35
35
35
35
35
35
35
35
35
35
35
34
34
34
34
34
33
33
33
33
32
32
32
32
31
31
31
31
32
31
31
31
31
32
32
32
32
32
32
32
32
32
33
33
33
33
32
32
32
32
31
31
30
30
29
29
30
30
29
29
29
29
29
29
29
29
30
30
30
30
31
31
31
31
32
32
32
32
32
32
31
32
32
32
32
32
32
32
32
32
32
32
32
33
33
33
33
33
33
33
33
33
33
33
33
33
33
33
33
32
32
31
31
30
30
30
30
30
29
29
29
29
28
28
28
28
28
28
28
28
29
29
29
29
29
30
30
31
31
31
31
32
32
32
33
33
33
34
35
35
35
35
35
35
35
35
35
35
35
35
35
35
34
34
33
33
32
32
31
31
30
30
29
29
28
28
28
28
28
27
27
27
26
26
26
26
26
26
26
26
26
26
26
26
26
26
26
26
26
26
27
27
27
28
28
28
28
29
29
30
30
30
31
31
30
31
31
31
31
32
32
32
32
32
31
31
30
30
30
30
30
29
28
28
28
27
27
26
26
25
25
25
25
25
25
25
26
26
26
26
27
27
27
28
28
29
29
30
30
31
31
31
31
31
31
31
30
30
30
30
30
29
29
28
28
28
27
27
27
27
27
27
26
26
26
26
25
25
25
25
25
25
24
24
24
24
24
24
24
24
24
24
24
24
24
24
24
25
25
25
25
25
25
25
25
25
25
26
26
26
26
27
27
27
27
27
27
27
27
27
27
26
27
27
27
27
27
26
26
26
26
26
26
25
25
25
25
25
25
25
25
25
25
25
25
25
25
24
24
24
24
24
25
25
25
25
25
25
25
25
26
26
26
27
27
27
28
28
28
28
28
28
28
28
28
28
28
28
28
28
27
27
27
26
26
26
26
26
26
26
26
27
26
27
27
26
27
26
27
27
27
27
27
27
27
27
27
26
26
26
26
26
26
26
26
26
25
25
26
26
26
26
26
26
25
25
25
25
24
24
24
24
24
23
23
23
22
21
21
20
20
19
19
19
19
19
19
19
19
19
19
19
19
19
19
19
19
20
20
20
20
20
20
20
20
20
20
20
20
20
20
20
21
20
20
20
20
20
20
20
20
20
20
20
20
20
21
21
21
21
21
21
21
21
21
21
21
21
21
22
22
22
22
22
22
23
23
23
23
23
23
23
24
23
23
23
23
23
23
23
23
23
23
23
23
23
23
23
23
24
24
25
24
24
24
24
23
23
24
23
23
23
22
22
22
23
23
23
23
23
23
24
24
24
25
25
26
27
27
28
29
30
31
32
33
33
34
34
34
34
35
35
35
35
34
33
33
32
31
31
30
29
29
27
27
26
25
25
24
24
23
23
23
22
22
21
19
16
13
10
6
1
-3
-8
-12
-18
-23
-28
-33
-38
-42
-46
-48
-50
-51
-50
-49
-47
-45
-41
-37
-32
-27
-21
-15
-8
-2
4
9
15
19
24
28
31
34
36
37
38
39
39
39
39
38
38
38
38
37
36
35
35
35
35
35
35
35
35
35
36
36
36
37
37
38
38
38
39
39
39
38
38
37
36
35
34
34
32
31
30
30
29
29
28
28
27
27
27
28
28
29
30
31
33
34
35
37
38
40
41
43
43
45
45
47
47
48
48
49
48
48
48
47
47
47
47
46
46
45
45
44
44
43
43
43
42
42
42
42
42
41
41
41
41
41
41
41
40
40
40
40
39
39
39
39
39
38
38
38
38
38
38
38
38
38
39
39
39
39
39
39
40
40
40
40
40
41
42
42
42
42
43
43
43
43
43
43
44
44
44
44
43
43
43
43
43
43
43
43
43
42
42
42
42
42
43
43
43
43
43
43
43
43
43
43
43
44
44
44
43
43
43
43
43
43
44
44
44
44
45
45
45
45
46
46
47
48
49
49
50
51
51
51
52
52
52
52
52
51
51
51
51
50
50
50
50
49
49
49
50
50
50
50
50
50
50
50
50
50
51
51
52
52
53
53
53
54
54
55
55
56
56
56
57
57
58
58
58
59
59
59
60
60
60
60
60
60
61
61
62
62
62
63
63
64
64
65
66
66
67
67
68
68
68
69
69
70
70
70
71
71
72
72
72
72
72
73
73
73
73
73
74
75
75
75
76
76
77
77
77
78
78
78
78
78
79
79
79
80
80
81
81
82
82
82
82
83
83
83
83
83
84
84
85
85
86
86
86
86
86
86
87
87
87
86
86
86
86
86
86
85
85
85
84
84
84
84
83
83
83
83
83
82
81
81
81
80
79
79
79
78
78
78
77
77
77
76
76
76
76
75
75
75
75
75
75
75
75
75
75
74
74
74
73
73
72
72
71
70
70
69
67
67
65
64
64
63
63
62
61
60
59
59
58
57
57
56
56
56
56
56
56
55
54
54
54
53
53
52
52
51
51
50
50
49
49
48
47
47
46
46
46
45
45
44
44
44
43
43
43
43
43
43
43
43
42
42
42
42
42
42
41
41
41
41
40
40
40
39
39
39
39
38
38
38
38
38
37
37
37
37
37
37
37
36
36
36
36
36
36
36
36
36
35
35
35
36
35
35
36
36
36
36
36
35
35
36
36
36
36
36
36
37
37
37
36
36
36
36
36
36
37
37
37
36
36
36
36
36
36
36
36
36
36
36
37
37
37
37
37
37
37
38
38
38
38
38
39
39
39
39
39
39
40
40
40
40
40
40
41
41
41
41
41
41
41
41
41
41
41
41
41
40
40
41
41
41
41
41
41
42
42
43
43
43
43
43
43
43
44
44
44
45
45
45
45
45
44
44
44
44
44
44
44
44
45
45
45
46
46
46
46
46
47
48
48
49
49
50
50
50
50
50
50
50
50
50
50
49
49
48
48
47
47
46
45
45
44
43
43
42
42
41
41
40
41
41
40
41
41
41
41
42
43
43
44
44
45
45
46
46
47
47
47
47
48
48
48
48
48
48
48
48
48
47
47
47
46
46
46
46
45
45
45
45
44
44
43
43
42
42
41
41
41
40
40
39
39
39
39
38
38
38
38
38
38
39
39
40
40
40
41
41
41
41
42
42
42
42
42
42
42
42
42
42
41
41
41
40
40
40
39
39
39
40
40
39
39
39
39
39
39
39
40
40
41
41
42
42
42
42
42
42
43
43
43
42
42
42
42
42
42
42
41
41
40
40
40
40
40
39
39
40
40
40
41
41
41
41
41
41
41
41
42
42
42
42
42
41
41
41
41
40
40
40
40
40
40
40
40
40
40
40
40
40
40
40
41
41
40
40
40
40
40
40
40
39
39
39
39
39
38
38
38
38
39
39
39
40
40
40
41
41
42
42
42
43
43
43
43
43
43
43
43
42
42
42
42
41
41
41
40
40
40
40
40
39
39
39
39
39
38
38
38
37
38
38
39
39
39
39
39
39
39
40
40
40
40
41
41
42
42
43
43
43
43
43
43
43
43
43
42
42
42
42
41
41
40
39
39
39
38
38
37
37
37
37
36
36
36
36
37
37
37
37
38
38
39
39
39
40
40
41
41
41
41
41
42
42
41
41
41
42
42
42
42
42
42
41
41
41
41
41
41
40
40
40
40
40
40
39
39
39
39
39
39
39
38
38
38
38
38
38
38
38
38
38
38
38
38
38
39
39
39
39
40
39
40
40
40
40
40
40
40
40
40
40
40
40
40
40
40
40
39
39
39
39
39
38
38
38
39
39
39
40
40
41
41
41
42
42
42
42
42
42
43
42
42
42
41
41
41
41
40
39
39
38
38
37
37
37
36
36
37
37
37
36
36
36
36
36
36
37
37
37
37
38
38
38
38
38
38
39
39
39
39
39
39
39
40
40
41
41
41
42
42
42
43
43
44
45
45
45
46
46
47
47
47
47
47
48
48
48
48
47
47
47
47
46
46
46
45
45
45
45
45
44
44
44
44
43
43
43
43
43
42
42
42
42
41
41
41
40
40
40
40
39
39
39
38
38
38
37
36
36
35
35
35
35
35
35
35
35
34
34
35
35
36
36
37
37
37
37
37
37
37
38
38
38
37
37
37
36
36
35
34
34
33
32
32
32
32
32
32
32
32
31
31
31
31
31
31
31
31
32
32
33
32
32
33
33
33
32
32
33
33
33
33
33
33
34
34
34
34
34
34
34
33
33
33
33
34
34
33
33
33
33
33
33
33
33
33
33
32
32
32
32
32
32
32
32
32
32
32
31
31
31
31
31
31
31
31
32
32
32
33
33
34
34
34
34
34
34
35
35
35
36
36
36
36
36
36
36
36
36
36
36
36
36
36
36
36
35
35
34
34
34
34
33
33
32
32
31
31
31
32
32
32
33
32
31
29
27
23
20
16
11
7
2
-2
-7
-12
-17
-22
-26
-29
-32
-35
-37
-38
-38
-37
-36
-33
-30
-25
-21
-16
-11
-6
0
4
8
13
17
20
23
25
27
29
31
31
32
33
33
33
34
34
34
34
34
34
34
33
34
34
34
35
35
36
36
36
36
36
36
36
36
37
37
37
36
36
35
35
34
33
33
32
31
30
30
29
29
28
27
26
26
25
25
25
25
25
26
27
28
29
29
31
32
33
35
36
37
39
39
41
41
42
43
43
43
43
43
42
42
41
41
40
40
39
38
37
37
36
35
35
34
34
33
33
32
32
32
32
31
31
31
31
31
31
31
31
31
31
31
31
32
32
32
32
32
31
31
32
32
33
33
33
33
33
33
33
33
33
32
32
33
33
33
32
32
32
31
31
31
31
31
31
31
30
30
30
30
30
30
30
30
30
30
30
31
31
31
31
31
31
31
32
32
32
32
32
32
31
31
31
31
31
30
30
30
30
30
30
30
29
29
29
29
29
29
29
30
30
30
30
30
31
31
31
31
32
32
32
32
32
32
32
33
33
33
34
34
34
34
35
35
35
36
36
36
36
37
37
37
38
37
38
38
38
38
38
39
39
39
39
39
39
39
39
38
39
39
