# Simple Text Format
# Sampling Rate (Hz):= 1200.00
# Resolution:= 12
# Labels:= ECG	aVR
# Age:=	63
# Gender:=	Feminino
97
97
96
96
97
97
98
98
99
100
100
101
100
101
102
103
103
104
103
103
101
100
97
95
92
90
86
83
78
73
68
62
55
50
42
36
29
22
15
8
2
-6
-12
-17
-22
-26
-29
-32
-34
-36
-36
-36
-35
-32
-30
-27
-22
-17
-12
-7
-1
4
10
16
22
28
34
40
46
52
57
62
66
70
73
77
79
82
83
86
87
89
89
89
92
92
92
93
93
93
93
93
93
92
92
92
91
91
91
91
90
91
90
91
90
91
92
92
91
92
92
92
92
93
93
93
94
94
94
94
94
93
93
93
94
94
95
94
94
95
95
95
95
95
96
96
96
97
97
97
97
97
96
96
96
96
96
96
96
95
95
95
95
95
95
95
94
95
95
95
95
95
96
95
95
95
95
95
95
95
95
95
96
96
96
95
95
95
95
95
94
94
94
93
93
92
92
92
92
92
91
91
91
91
91
90
90
90
89
89
90
89
89
89
88
89
89
89
90
89
89
89
88
88
87
86
86
85
84
83
82
81
79
78
78
78
77
77
77
76
76
76
76
76
76
76
77
78
79
80
80
80
81
81
82
83
84
85
85
86
87
87
88
88
88
87
87
86
86
85
84
82
82
80
78
76
75
73
72
70
69
68
67
65
64
64
63
63
63
62
63
62
62
61
60
60
60
60
60
60
59
60
59
58
57
56
55
55
55
54
53
52
52
51
49
49
48
48
47
47
47
46
45
44
43
42
41
40
39
39
38
36
35
35
33
32
33
32
32
31
31
32
32
32
33
34
34
35
37
37
37
38
38
38
39
40
41
42
42
43
43
43
42
42
42
42
43
43
43
43
43
43
43
44
43
44
44
43
44
44
44
44
45
45
44
44
44
44
44
45
45
45
45
45
44
45
46
48
48
49
50
52
53
54
55
56
57
59
59
60
61
62
62
63
63
64
64
64
64
65
65
65
66
66
65
66
66
66
66
66
66
66
67
67
68
68
69
69
69
69
68
69
69
69
70
70
71
71
72
72
72
72
71
71
71
71
72
72
72
72
73
72
72
72
72
72
72
72
72
72
72
71
70
70
69
70
70
71
71
70
70
70
69
69
68
67
67
66
66
66
66
66
65
65
65
66
66
66
66
67
67
67
68
68
68
67
68
67
68
68
68
68
67
67
67
67
66
66
66
67
67
67
68
68
68
68
68
68
68
68
67
67
66
67
66
66
64
64
63
62
62
61
61
60
59
59
59
59
59
59
58
58
57
57
57
56
57
58
58
59
59
60
60
61
61
61
62
61
62
62
63
63
63
64
64
65
66
66
66
66
67
66
66
66
65
66
66
66
66
66
66
66
65
65
65
65
66
65
65
66
66
67
67
68
68
68
69
69
70
70
70
70
70
70
70
70
70
70
69
69
68
67
66
65
64
63
62
62
61
61
60
59
58
57
56
56
56
56
56
56
57
57
58
59
59
59
60
61
63
64
65
66
67
67
68
69
70
71
72
72
72
72
72
72
71
70
70
69
68
68
67
66
65
63
62
62
62
61
61
61
61
61
61
61
61
61
61
61
60
61
60
60
60
60
60
60
59
58
58
57
56
55
54
53
53
52
51
50
50
49
48
47
46
44
44
43
42
43
42
43
42
43
42
41
41
41
40
39
40
39
38
37
36
35
35
34
34
33
33
32
31
29
29
29
28
27
27
27
27
26
25
25
24
24
25
24
25
25
26
26
28
28
29
31
31
32
34
35
36
37
38
39
40
41
43
44
46
47
48
48
48
49
50
51
52
53
54
54
54
55
55
56
57
57
58
59
59
60
61
62
63
64
63
64
65
65
66
66
67
67
67
66
67
66
66
65
65
65
65
65
65
64
64
64
63
63
63
62
63
63
63
63
62
63
62
62
62
62
62
61
61
61
61
61
61
61
61
60
60
60
60
59
59
58
58
59
59
60
60
60
60
61
61
62
63
63
64
65
66
67
67
68
68
69
70
71
72
73
72
73
72
71
70
68
66
63
61
58
55
52
46
42
37
31
24
18
12
5
-2
-9
-16
-24
-30
-37
-43
-49
-55
-59
-64
-68
-71
-73
-76
-76
-77
-76
-75
-74
-71
-68
-64
-60
-56
-51
-45
-40
-34
-27
-22
-17
-10
-5
0
5
10
16
20
25
28
31
34
36
39
41
43
44
44
46
47
47
48
49
48
48
48
48
48
47
47
46
47
46
46
45
44
45
44
44
43
43
43
43
43
43
42
43
43
43
44
43
44
44
45
45
45
44
44
44
44
44
44
43
42
42
42
41
41
42
41
41
41
41
42
42
42
42
43
43
44
44
43
43
43
42
42
42
42
42
41
41
41
40
39
39
38
37
37
37
37
38
39
39
39
39
39
39
40
40
41
41
41
41
41
41
41
40
41
40
41
41
41
40
40
40
40
39
39
38
38
38
38
37
37
37
36
34
34
33
33
32
30
29
27
26
24
23
22
22
21
20
21
21
21
21
21
21
22
22
23
24
25
25
25
26
26
27
29
30
31
32
33
33
33
33
33
32
32
32
32
32
31
31
30
30
28
27
26
25
24
23
22
21
20
19
19
18
17
16
14
15
14
13
12
11
10
9
9
9
8
7
7
6
7
6
5
4
3
3
3
2
1
2
1
1
0
0
-1
-1
-2
-4
-4
-5
-6
-7
-8
-9
-10
-11
-12
-13
-14
-15
-15
-16
-17
-17
-18
-17
-18
-18
-18
-18
-18
-18
-17
-18
-18
-18
-19
-19
-18
-19
-20
-20
-21
-21
-21
-22
-22
-22
-22
-22
-22
-22
-22
-23
-23
-23
-23
-23
-23
-23
-22
-22
-22
-23
-22
-22
-21
-21
-20
-20
-20
-20
-20
-19
-19
-18
-17
-16
-16
-15
-15
-14
-14
-13
-13
-13
-12
-12
-12
-12
-11
-10
-10
-10
-9
-10
-9
-9
-8
-8
-8
-8
-7
-6
-6
-5
-4
-3
-3
-2
-1
-1
-1
0
1
2
3
3
3
4
4
5
5
6
6
7
8
9
9
9
10
10
10
10
11
12
12
12
12
12
11
12
12
12
13
13
13
14
14
14
14
15
14
14
15
16
16
16
16
16
16
15
14
14
14
14
14
13
13
13
13
13
12
12
12
12
12
12
12
12
12
11
11
12
11
11
11
11
11
11
11
10
10
9
8
8
7
7
7
7
7
7
7
7
7
6
6
6
6
6
7
6
5
5
5
5
4
3
3
2
1
1
0
-1
-1
-1
-1
-1
-1
-1
-1
0
0
0
1
2
2
4
4
5
5
6
7
8
10
11
12
13
13
14
13
14
14
13
13
14
14
13
13
12
13
12
11
10
10
10
10
10
10
10
10
11
10
10
10
10
10
10
10
10
9
9
8
8
7
7
7
7
7
7
7
7
7
7
7
8
8
9
9
9
9
9
10
10
10
10
10
10
10
11
11
11
11
11
11
11
12
12
12
11
11
11
10
10
10
10
10
10
11
11
10
11
10
10
10
10
9
9
9
9
9
9
9
10
10
11
11
12
11
12
12
13
14
14
14
15
15
16
16
16
16
16
16
16
16
16
15
15
15
14
14
14
13
13
12
12
11
10
10
10
9
10
9
9
9
9
9
9
9
10
10
10
10
11
11
11
12
11
11
10
10
9
8
8
8
8
7
6
5
4
3
1
0
-2
-3
-4
-4
-6
-7
-9
-9
-11
-13
-12
-13
-14
-15
-16
-15
-16
-17
-17
-16
-17
-17
-16
-16
-16
-15
-15
-15
-15
-14
-14
-13
-14
-14
-14
-15
-14
-15
-14
-14
-13
-13
-13
-13
-12
-12
-12
-12
-10
-10
-8
-7
-6
-4
-3
-2
0
0
2
2
3
3
3
3
3
3
3
3
2
3
3
3
4
4
4
4
5
5
6
7
10
11
13
15
17
18
19
21
23
25
26
28
30
31
31
32
33
33
33
33
33
33
34
33
32
31
30
30
28
27
27
25
24
22
21
20
20
19
19
18
17
16
16
15
15
15
15
15
16
16
18
19
19
20
21
22
24
25
26
26
27
28
29
30
30
30
31
32
32
31
31
32
32
32
32
32
32
32
32
31
31
30
30
30
30
30
28
28
26
24
22
20
17
16
13
9
6
3
-1
-7
-11
-17
-23
-30
-36
-43
-50
-56
-62
-68
-74
-79
-84
-87
-91
-95
-98
-101
-103
-103
-104
-103
-102
-100
-97
-95
-91
-87
-83
-78
-74
-69
-62
-57
-51
-45
-40
-35
-30
-25
-20
-16
-11
-7
-3
0
3
5
8
9
11
13
14
15
16
18
18
19
19
19
19
19
19
19
19
19
19
19
18
18
18
18
18
18
19
19
18
19
18
18
18
18
19
19
19
19
19
19
19
19
18
19
19
19
20
19
20
19
20
20
20
20
21
21
22
21
21
21
22
22
23
24
25
25
26
26
27
27
27
27
27
27
28
28
28
28
27
26
27
26
24
24
23
23
22
22
21
20
20
19
19
18
17
16
16
15
14
14
14
13
13
13
14
14
14
14
14
14
15
15
16
17
18
18
18
19
19
19
19
20
20
20
20
20
20
19
19
18
18
17
16
16
16
16
14
14
13
13
13
13
13
14
14
14
15
15
15
16
16
16
17
17
18
17
17
17
16
15
14
14
13
13
12
12
12
11
11
11
11
10
9
9
9
9
9
9
9
9
8
8
8
8
8
7
7
6
6
5
4
3
2
2
0
-1
-2
-4
-4
-5
-6
-7
-7
-8
-9
-10
-10
-11
-11
-11
-12
-13
-13
-14
-14
-14
-14
-15
-15
-15
-16
-16
-16
-16
-17
-17
-18
-18
-19
-19
-20
-21
-21
-22
-22
-22
-21
-22
-23
-24
-24
-25
-25
-25
-25
-25
-25
-25
-25
-26
-26
-26
-27
-28
-28
-28
-28
-29
-30
-31
-31
-31
-31
-32
-32
-32
-32
-33
-33
-33
-33
-33
-33
-32
-31
-30
-29
-28
-27
-26
-25
-24
-22
-21
-21
-20
-19
-18
-17
-16
-15
-14
-14
-13
-13
-13
-12
-12
-13
-11
-11
-12
-11
-11
-11
-11
-11
-11
-10
-10
-10
-10
-11
-11
-11
-10
-10
-11
-9
-9
-9
-8
-7
-6
-6
-4
-3
-1
0
2
3
5
6
7
8
10
11
11
12
13
13
14
15
15
15
16
16
16
16
16
16
15
15
15
15
16
15
15
15
16
15
16
16
16
16
16
16
17
16
17
17
18
18
18
19
18
18
18
17
16
15
14
14
13
13
13
12
12
12
12
12
12
12
13
14
14
14
14
15
15
15
15
15
15
15
15
15
15
15
13
13
12
12
11
11
11
11
10
10
11
11
10
11
12
13
14
15
15
16
17
17
18
18
18
19
20
20
20
20
20
19
19
19
19
19
19
19
19
19
19
17
18
17
16
16
16
16
16
15
14
14
13
14
14
14
14
15
16
16
16
17
17
17
18
19
19
20
21
21
21
22
21
22
21
22
22
22
21
21
19
19
18
17
16
16
15
14
14
13
12
11
12
12
12
12
12
13
13
14
15
16
17
18
19
20
21
22
23
23
24
25
26
27
28
29
29
30
29
30
32
32
32
32
33
33
33
33
33
33
32
32
32
32
32
32
31
31
31
30
30
30
30
30
30
29
29
30
29
29
28
28
28
28
28
27
27
28
29
29
29
29
29
29
30
30
30
31
32
32
32
32
32
33
34
33
34
34
34
35
34
35
35
34
34
34
33
33
33
31
31
30
30
30
29
29
28
28
27
27
26
26
26
25
25
25
25
24
24
23
22
21
20
19
19
19
19
18
18
18
18
17
17
17
17
17
17
18
18
18
18
19
19
19
20
20
21
21
20
20
20
19
18
17
16
16
15
14
14
13
12
11
10
9
8
8
7
6
6
6
5
5
5
5
5
5
6
5
5
5
4
5
5
6
7
7
8
9
10
10
12
12
13
14
15
17
19
20
21
23
24
26
28
29
31
34
35
37
38
40
41
42
43
43
44
44
45
46
45
44
43
43
42
42
42
41
41
41
40
40
41
41
41
41
41
42
43
44
46
47
48
49
51
51
53
54
56
57
58
58
59
60
61
61
61
61
60
59
59
58
58
57
56
56
55
55
53
52
52
51
51
50
50
49
50
50
50
50
50
50
50
49
50
50
51
52
52
53
53
54
55
56
57
58
59
60
61
63
63
64
65
65
65
65
65
64
64
62
60
58
55
52
48
43
38
32
26
19
12
5
-4
-12
-19
-27
-35
-42
-48
-55
-62
-67
-71
-76
-80
-83
-84
-83
-83
-82
-80
-77
-75
-71
-66
-61
-55
-49
-43
-37
-30
-25
-19
-13
-6
-1
5
10
14
19
23
27
30
33
36
39
42
45
46
49
50
52
52
53
54
54
55
55
56
56
55
55
55
55
55
54
54
54
53
53
53
53
53
52
52
52
52
53
53
53
54
55
55
56
56
57
58
59
60
60
60
61
62
62
63
63
63
63
64
63
64
65
65
64
65
64
65
65
64
64
65
65
65
64
64
63
63
63
63
63
62
61
60
60
59
59
58
57
57
57
57
56
56
56
57
56
56
56
56
56
56
56
56
56
57
57
57
57
59
59
60
60
60
60
60
60
60
60
59
60
60
59
60
59
59
58
58
57
57
57
57
56
56
57
57
57
57
58
58
59
59
58
58
59
59
60
60
60
60
61
61
61
61
61
61
60
60
60
59
59
59
58
58
57
57
57
57
56
56
56
56
56
56
56
55
55
55
56
57
57
57
57
56
56
55
55
55
53
53
53
52
51
50
50
48
47
46
45
44
42
42
41
40
39
39
38
38
37
36
36
35
34
34
34
34
33
33
33
32
31
31
30
29
29
28
28
28
27
28
28
27
26
26
26
26
26
26
26
26
26
26
26
26
25
24
25
25
24
24
23
23
22
22
21
20
20
20
19
18
17
16
15
14
14
13
13
12
11
11
12
11
11
12
12
11
11
12
12
13
14
15
16
16
17
19
19
21
22
23
25
26
27
29
30
30
31
31
31
32
33
32
33
32
32
32
32
33
32
32
32
32
31
32
32
32
33
33
34
35
36
37
38
38
39
40
42
44
45
47
48
50
51
53
54
55
56
56
57
57
57
57
57
57
58
57
56
56
56
55
55
55
54
54
53
52
52
52
53
52
53
53
53
54
55
55
56
56
57
58
57
58
58
58
59
59
59
60
59
59
59
58
57
56
55
56
56
57
57
57
57
57
57
57
57
58
58
59
59
60
60
60
60
59
60
58
58
57
57
56
56
55
55
54
54
54
54
54
53
54
54
55
55
55
56
57
58
59
60
61
61
61
61
61
61
60
59
60
59
59
59
59
58
58
57
57
58
58
58
60
60
60
61
61
62
63
63
64
64
65
65
65
66
66
65
65
64
64
64
63
63
62
62
62
62
61
60
60
60
60
59
59
58
58
57
57
58
58
58
59
59
59
59
59
59
59
59
58
58
59
59
58
57
57
56
56
56
55
55
55
55
54
54
55
55
55
54
55
54
54
55
56
56
57
58
59
60
61
61
62
63
64
65
65
66
66
66
67
68
68
69
69
68
68
67
67
67
67
66
66
66
66
65
65
65
65
65
65
65
65
65
65
65
67
67
67
68
69
68
69
69
70
71
72
72
72
72
72
73
73
73
72
72
71
71
71
71
70
70
70
70
69
69
69
68
67
67
67
67
66
66
65
64
62
61
60
60
60
59
59
59
59
58
57
57
56
55
56
55
55
54
54
54
52
52
51
50
49
49
49
49
49
49
49
48
48
47
47
47
48
48
49
49
49
49
49
49
50
50
50
50
50
49
48
48
47
46
46
45
45
44
43
43
42
42
41
40
40
39
39
39
39
39
38
39
39
40
40
41
41
41
42
42
43
43
44
45
46
47
49
49
50
51
51
52
52
53
53
54
54
54
55
55
56
56
56
57
58
59
61
61
62
63
64
65
66
66
67
68
69
69
70
70
71
71
72
72
73
74
74
74
75
74
75
74
75
75
75
76
76
77
77
77
77
77
78
78
79
79
80
80
80
80
80
81
82
81
81
81
81
80
80
79
78
77
76
75
75
74
74
73
72
72
71
71
70
70
68
68
68
68
67
66
66
67
68
69
71
71
71
73
74
75
76
77
79
80
81
81
83
83
83
83
82
82
80
78
76
72
69
64
60
55
50
44
37
30
24
16
9
2
-5
-12
-19
-26
-32
-37
-43
-47
-51
-55
-58
-60
-61
-61
-62
-61
-59
-55
-52
-48
-45
-40
-35
-30
-25
-19
-13
-7
-1
4
10
15
20
26
31
35
40
43
48
52
56
58
60
62
65
67
69
71
72
73
73
74
74
74
74
74
75
75
75
74
73
73
73
72
71
70
70
69
68
67
67
67
66
66
64
63
62
62
61
61
61
60
59
59
58
58
57
57
56
57
57
57
58
58
59
59
60
61
62
62
62
62
63
64
64
65
65
66
66
66
67
67
67
66
66
65
65
65
65
64
63
63
62
62
62
62
63
63
64
64
64
65
65
65
64
64
65
65
66
66
66
65
64
63
64
63
63
63
63
63
63
63
63
63
62
62
62
61
62
62
62
62
61
61
61
60
60
60
60
58
58
58
57
56
56
55
55
55
55
55
54
55
54
53
53
53
53
53
53
53
53
53
53
53
53
53
52
51
51
50
50
48
48
47
46
45
44
43
43
42
42
41
40
40
39
40
39
39
39
40
40
41
41
42
42
43
44
44
45
45
47
47
47
47
47
47
46
46
45
44
43
42
40
40
38
37
36
35
33
32
30
29
27
26
24
23
22
22
21
20
18
18
16
16
15
14
13
12
12
11
10
11
10
10
9
9
9
8
9
8
7
7
6
6
5
5
5
5
4
5
4
3
3
2
1
2
1
1
1
1
0
1
0
0
0
0
1
0
0
0
1
2
2
3
3
5
6
6
7
8
9
9
9
10
11
11
12
13
14
14
15
16
16
17
17
17
17
18
18
19
19
18
19
19
19
20
20
20
20
21
22
22
23
23
23
23
24
25
25
26
27
28
29
29
30
31
33
34
35
36
37
38
39
40
41
41
42
42
43
43
43
43
43
42
42
42
42
42
42
43
43
43
44
44
44
43
43
44
43
43
44
44
43
43
43
42
43
43
43
43
42
42
42
42
42
43
43
44
45
45
46
47
47
47
48
49
49
49
50
50
50
51
51
50
50
49
49
49
50
50
50
49
49
49
49
49
49
49
49
48
48
48
48
48
48
47
46
46
44
43
43
41
40
39
37
36
35
35
33
33
32
33
33
33
33
33
32
33
34
34
35
37
38
39
40
42
42
44
44
45
46
46
46
46
46
46
46
45
45
45
45
44
42
41
40
39
39
39
38
38
39
39
40
40
40
41
41
43
43
44
45
46
46
46
46
47
47
48
48
48
48
48
48
48
47
47
48
47
47
48
48
47
47
47
47
48
49
49
50
51
51
51
52
51
51
51
50
49
49
48
47
47
46
45
45
45
44
44
43
43
43
43
42
43
43
43
43
43
43
43
43
44
44
45
45
46
47
48
48
48
49
50
51
51
52
52
52
52
52
52
52
52
51
50
49
48
48
48
48
47
47
47
47
48
48
49
50
51
52
52
53
54
54
54
55
56
57
57
57
57
57
56
56
55
54
52
52
50
49
48
46
45
43
41
39
38
36
35
34
34
33
32
31
30
30
30
29
29
29
29
29
29
29
28
29
29
29
29
29
29
30
30
29
29
29
29
28
28
27
26
25
24
23
22
22
23
23
22
22
21
21
21
21
20
19
19
19
20
21
22
22
23
23
24
25
26
28
28
30
31
33
34
36
38
39
40
42
42
44
46
47
49
50
50
51
52
54
55
54
55
56
57
58
58
59
59
60
60
61
61
61
61
60
60
60
60
59
59
58
58
58
58
58
59
60
60
60
60
61
61
61
61
62
61
61
61
61
61
62
61
60
60
60
59
58
57
58
57
56
56
55
55
54
54
54
53
54
53
54
55
55
55
55
55
55
55
55
55
56
56
57
57
57
57
58
58
60
61
62
63
65
66
67
68
68
68
69
68
68
67
66
63
61
58
53
49
45
39
33
27
20
13
6
-1
-9
-17
-25
-31
-38
-45
-52
-57
-63
-68
-72
-75
-77
-79
-80
-81
-79
-79
-77
-74
-72
-67
-63
-58
-52
-46
-40
-34
-27
-21
-14
-8
-2
5
11
17
24
29
34
38
42
45
48
51
53
56
57
58
59
60
60
60
60
60
60
59
59
59
58
58
57
56
56
55
55
54
54
53
53
52
52
52
53
53
53
53
53
52
53
53
53
52
52
52
53
53
53
52
52
52
52
52
52
52
52
52
53
53
54
54
55
55
56
57
57
57
57
57
56
57
57
57
57
57
57
56
56
55
55
54
53
53
52
52
52
51
51
50
50
49
48
48
48
47
47
46
45
45
44
44
44
44
44
44
43
44
44
44
44
43
44
44
45
46
47
48
49
49
49
51
51
51
51
51
51
51
51
52
51
51
51
51
50
49
49
48
48
47
47
47
46
45
45
43
43
42
42
42
41
42
43
43
44
45
45
46
46
47
48
49
50
51
51
52
52
52
51
52
51
50
50
48
47
46
45
44
42
41
39
38
37
36
35
34
32
31
31
30
28
28
28
28
28
28
27
27
28
28
27
28
27
26
25
25
25
25
24
23
22
21
20
19
18
18
17
16
16
15
14
14
13
12
12
11
12
11
11
10
10
9
8
7
7
6
6
5
6
5
5
4
3
3
2
2
2
1
0
1
0
0
0
0
-1
-1
-1
-1
-1
-1
0
0
0
0
1
2
2
2
2
3
2
2
2
2
2
3
3
4
4
4
3
3
3
3
3
3
4
4
4
5
5
6
5
6
7
8
8
8
9
10
11
12
13
13
13
14
16
16
16
17
18
19
21
21
23
23
24
25
25
26
27
27
27
28
28
28
28
27
27
27
26
25
26
25
26
27
27
28
30
31
32
33
34
35
37
39
41
42
44
46
47
48
48
49
50
49
49
49
49
49
48
48
48
47
47
47
47
47
46
47
47
47
47
48
50
50
51
51
52
53
53
53
52
52
51
51
51
51
51
50
49
48
47
46
46
45
45
45
44
44
44
44
44
44
44
44
43
42
42
41
40
39
39
39
40
40
40
40
40
40
40
41
40
40
40
41
41
42
42
42
42
42
42
43
43
43
43
43
43
43
42
42
42
42
42
42
42
42
42
42
42
42
42
42
43
44
44
45
45
46
46
46
46
45
45
45
45
45
46
45
45
44
43
43
42
42
41
41
40
40
39
39
38
38
38
38
39
39
39
39
40
40
41
42
42
43
43
44
44
45
45
45
45
45
45
44
44
43
43
43
43
43
43
43
44
44
43
44
45
45
46
48
48
48
49
50
51
52
51
51
52
52
52
53
54
54
54
54
55
55
55
55
55
55
55
56
56
56
57
57
57
56
56
56
58
58
58
58
58
58
57
57
58
58
58
59
58
58
58
57
57
56
56
56
56
56
56
55
54
54
53
52
51
50
50
50
49
49
48
47
46
45
46
45
45
45
45
46
46
46
46
45
46
45
44
44
44
43
42
42
40
40
39
39
39
38
39
38
38
38
37
38
37
37
38
38
38
38
39
39
39
39
39
40
39
39
39
38
38
38
37
38
38
37
37
37
36
36
36
35
35
35
36
36
37
38
38
39
40
41
42
42
44
45
46
47
49
49
50
51
51
52
53
54
56
57
58
59
61
62
62
63
64
65
67
68
70
71
72
73
73
74
74
75
76
75
76
76
77
76
76
76
75
75
75
75
76
75
75
74
74
74
74
74
75
75
75
76
76
76
77
78
78
78
78
78
79
80
80
79
79
79
79
79
80
80
80
79
79
79
78
78
78
78
78
77
78
78
78
78
77
77
78
79
80
80
80
81
82
82
83
84
85
85
85
85
85
85
85
84
83
82
81
80
78
76
73
70
65
62
57
51
46
40
34
29
22
16
9
2
-5
-13
-19
-26
-31
-37
-42
-46
-51
-54
-57
-59
-60
-62
-62
-61
-59
-57
-55
-51
-47
-43
-37
-31
-24
-19
-12
-6
1
7
15
23
30
37
43
49
54
59
64
67
71
74
77
79
81
82
83
84
84
85
84
84
84
83
83
82
82
81
81
80
79
78
78
77
77
77
78
77
77
77
77
78
77
77
78
78
79
78
78
79
79
79
79
80
80
81
82
82
82
82
82
83
83
83
83
82
83
83
83
82
82
82
81
80
80
81
81
81
81
80
80
80
79
78
78
77
77
77
77
77
76
76
76
76
76
76
76
76
76
76
76
76
76
77
77
76
77
77
77
76
77
76
76
76
76
76
76
76
76
77
77
77
77
78
78
78
78
79
79
79
80
80
80
80
79
79
79
79
79
80
78
78
78
77
76
76
76
75
75
74
74
73
73
73
73
73
73
73
74
74
75
76
76
76
77
77
78
78
79
79
80
80
81
81
81
82
81
81
81
80
80
79
78
77
76
75
75
75
73
72
72
72
71
71
70
70
69
69
69
69
68
68
69
68
68
68
68
67
67
66
66
64
63
63
62
60
59
58
57
56
55
54
53
52
51
49
50
49
48
48
48
46
46
46
45
46
46
45
45
45
44
44
42
41
41
40
40
40
39
38
38
36
35
35
35
34
34
34
33
33
33
33
34
33
34
34
34
34
34
34
33
33
33
34
36
37
37
37
38
39
40
41
42
43
44
45
47
47
48
49
51
51
51
52
52
53
53
53
53
53
52
52
51
50
50
49
49
48
48
48
49
49
48
49
50
51
51
52
54
55
56
57
59
60
62
64
66
66
68
69
69
71
70
71
72
72
73
74
75
75
75
76
76
76
75
76
77
77
77
77
77
77
77
77
78
78
78
78
78
79
79
79
80
81
81
82
83
83
85
85
86
86
87
88
89
90
91
91
91
92
93
93
93
93
93
92
92
92
91
91
90
89
88
88
87
87
86
85
85
84
83
82
80
79
79
79
78
78
78
77
77
77
77
78
78
79
80
80
81
81
82
83
84
84
85
86
86
86
87
87
87
86
86
85
85
85
84
83
83
83
83
83
83
82
82
82
82
81
80
80
79
79
78
78
78
79
79
79
79
79
79
80
79
79
79
80
80
81
81
81
81
80
81
81
81
81
81
81
81
80
81
81
82
82
81
82
83
83
83
84
83
83
84
83
84
85
85
85
85
86
86
86
87
87
87
88
88
89
89
89
89
89
89
90
90
91
91
91
92
92
91
91
91
91
91
91
90
90
90
90
90
89
89
89
89
89
89
89
88
88
88
88
88
88
88
89
90
90
90
90
90
90
91
92
93
94
95
96
96
97
98
99
99
99
99
100
99
99
99
98
98
97
97
97
97
96
96
95
94
93
92
92
90
89
89
89
88
88
87
87
87
87
87
88
88
89
90
91
91
92
94
96
97
98
99
101
101
102
103
104
104
104
104
104
104
104
103
102
101
101
100
99
97
95
95
93
92
90
90
89
88
87
86
85
84
84
83
82
82
82
81
82
81
82
81
80
80
79
78
78
77
77
76
76
76
75
75
75
74
73
73
73
73
72
72
72
72
72
71
70
69
67
67
66
65
65
63
63
63
62
62
62
63
63
63
65
67
68
69
71
72
75
77
80
82
84
87
88
91
93
94
96
97
97
98
99
100
101
101
101
101
101
102
102
102
102
102
103
103
103
103
104
104
104
104
103
104
105
105
106
106
106
107
107
108
108
108
109
110
110
111
110
111
111
112
113
114
115
116
116
116
116
116
116
116
116
116
116
117
117
118
118
118
118
117
116
116
116
115
114
113
112
111
111
110
110
110
109
108
108
108
108
109
109
109
110
109
110
111
111
111
112
113
114
116
117
118
119
120
121
122
123
123
124
125
125
126
127
126
126
125
124
123
121
119
116
112
109
104
100
95
89
82
75
68
60
53
45
38
30
23
15
8
2
-4
-9
-14
-17
-20
-22
-23
-24
-23
-22
-20
-18
-15
-10
-5
0
6
12
19
26
32
40
46
54
60
67
73
79
85
90
95
99
103
106
110
113
115
116
118
119
119
120
121
120
120
120
120
120
119
119
117
117
117
116
116
115
116
115
116
116
116
117
117
117
118
117
117
116
116
116
115
116
116
116
116
117
117
116
116
116
116
116
116
117
116
117
118
119
119
120
120
120
121
121
121
121
120
121
120
120
120
119
118
118
117
117
116
115
115
114
113
113
113
112
111
111
110
111
110
110
111
110
110
111
111
111
112
113
113
113
114
113
114
114
114
115
114
114
114
114
115
115
115
115
115
114
114
113
112
111
111
110
110
110
110
110
109
108
108
108
109
109
109
109
109
109
109
110
109
109
109
109
110
109
109
109
109
109
109
110
109
110
110
110
110
110
111
111
112
112
112
113
113
114
114
114
113
114
113
113
113
112
112
111
111
110
109
109
108
107
106
106
105
105
104
103
103
103
102
102
101
101
100
100
100
99
99
99
99
98
98
97
97
97
97
95
95
94
93
93
92
91
91
90
89
88
88
87
86
85
84
83
83
83
82
80
80
79
78
77
77
77
76
76
75
74
73
72
71
71
71
71
71
71
70
71
70
69
69
69
69
71
71
72
72
73
74
74
74
74
75
75
74
75
74
74
74
74
73
73
73
73
72
72
71
71
70
69
70
70
70
70
71
72
72
73
73
73
74
75
75
77
78
79
81
82
83
84
85
86
87
88
89
89
89
90
90
90
90
91
91
91
92
92
92
92
93
93
92
92
93
93
93
94
94
93
93
94
94
95
96
95
96
97
98
99
99
100
101
101
102
102
103
104
105
106
106
106
107
108
109
110
110
111
112
112
113
113
114
113
113
113
114
114
114
114
115
114
114
115
115
116
115
115
115
115
116
116
117
117
117
117
118
118
118
118
117
117
117
116
115
115
114
114
114
114
114
114
114
113
113
114
113
114
115
116
116
117
118
119
119
120
120
120
120
121
121
121
121
121
120
120
120
120
119
119
118
117
116
116
116
116
115
115
115
114
114
114
114
114
114
114
114
114
114
114
114
114
114
115
116
116
116
116
116
116
116
116
116
116
116
116
117
116
115
115
115
115
114
114
114
114
114
115
115
115
115
115
115
116
116
117
117
118
118
119
119
119
119
120
120
121
121
121
121
121
121
121
121
120
120
120
120
121
120
120
120
119
119
120
120
121
121
122
123
122
123
124
124
126
127
127
128
129
129
130
130
130
130
130
131
131
131
131
130
130
130
129
129
128
127
127
126
126
125
124
123
123
122
122
121
121
121
122
122
123
123
124
124
125
125
126
127
128
128
129
129
129
129
130
130
131
131
130
130
130
130
131
130
130
129
129
128
127
127
126
125
125
124
123
123
123
122
122
122
122
122
122
121
121
121
122
121
122
122
123
123
123
124
126
126
127
129
130
130
131
132
133
134
135
136
138
139
139
140
140
140
139
140
138
138
138
137
137
136
135
134
133
131
130
128
127
125
124
123
121
120
119
117
116
116
115
114
113
112
111
110
109
110
109
108
108
108
107
108
107
107
106
105
105
105
104
104
104
103
104
104
104
103
104
104
104
103
103
104
104
103
103
103
103
103
103
102
102
103
102
102
102
102
101
102
102
102
103
103
104
105
105
107
108
110
111
113
114
116
117
119
121
122
123
124
126
127
128
128
128
128
128
129
129
130
130
130
130
131
131
132
133
133
134
134
135
136
137
137
137
137
138
138
139
140
141
142
142
142
143
143
143
143
143
143
144
144
143
143
143
143
143
143
143
143
142
142
142
142
142
142
142
142
141
141
141
141
141
141
141
140
140
140
140
140
141
141
141
141
141
141
141
141
141
141
141
141
142
141
140
140
140
140
140
141
141
141
142
142
143
144
145
145
146
147
148
150
150
151
152
151
151
150
150
148
146
144
141
138
134
129
124
118
112
104
97
90
82
75
67
59
51
44
37
31
25
20
17
13
10
8
8
8
8
11
13
16
20
25
30
34
40
46
52
59
66
72
79
85
90
96
102
108
112
116
120
125
128
131
134
136
138
139
141
142
143
144
144
145
146
145
145
144
143
143
143
142
143
142
142
142
141
140
140
139
140
140
139
138
138
136
136
136
135
133
133
131
131
131
129
129
128
128
128
129
128
129
130
131
131
133
135
136
137
138
140
141
143
144
144
145
146
146
146
147
146
146
146
146
146
145
145
144
144
143
143
142
142
141
140
139
138
138
138
138
138
137
137
136
135
135
134
134
133
132
132
131
131
131
131
131
131
131
131
132
132
133
134
135
135
136
137
138
138
138
139
140
141
141
141
141
141
141
141
141
140
139
139
138
138
137
137
136
134
133
133
132
131
131
130
129
128
128
128
128
129
129
129
129
128
128
129
130
130
130
131
132
133
133
133
132
133
132
132
133
133
133
133
133
133
133
133
133
133
132
132
132
132
132
131
131
131
130
129
129
129
128
128
127
127
126
126
125
124
124
123
122
120
119
118
117
116
114
112
111
110
109
107
106
104
103
102
100
99
97
97
96
96
95
95
94
94
93
92
92
92
91
90
90
89
88
88
88
87
86
85
85
84
84
84
83
82
83
83
84
85
85
86
87
88
88
89
89
90
90
91
92
92
93
93
93
93
93
93
93
93
93
93
93
93
93
93
93
93
93
93
93
94
94
95
95
95
95
96
96
97
98
99
100
100
100
101
102
102
103
104
105
105
106
106
105
105
105
105
105
105
105
104
105
105
104
104
102
102
101
101
101
100
100
99
99
99
99
99
99
99
100
101
102
103
103
105
106
107
109
111
112
114
115
117
119
120
122
123
125
126
127
128
129
130
131
132
132
132
132
132
132
132
132
132
131
131
130
130
130
130
130
130
130
129
129
128
129
129
128
129
129
129
129
128
128
127
127
128
128
128
127
127
125
124
124
123
122
121
120
120
120
118
118
117
116
116
115
114
115
115
115
115
115
116
117
118
118
118
119
119
119
120
120
120
121
120
120
120
120
120
120
120
120
120
120
120
120
120
120
120
121
121
122
122
122
122
123
123
124
124
125
125
126
127
127
127
128
128
128
128
129
128
128
127
127
126
125
125
126
126
125
125
125
125
124
124
124
124
123
123
124
124
124
124
123
123
122
122
122
122
121
121
121
121
121
121
121
121
121
121
122
122
123
123
123
124
124
125
124
125
126
126
126
126
126
127
127
126
126
126
126
126
126
126
125
124
125
124
124
124
124
124
124
125
125
125
125
124
125
125
125
125
125
125
125
125
126
126
126
127
127
127
127
127
128
129
129
129
130
131
131
132
132
132
133
132
132
133
133
134
134
135
135
136
135
135
136
135
135
134
133
133
133
131
131
130
129
128
127
127
126
125
125
124
124
124
124
124
124
124
124
125
125
126
126
126
126
127
128
128
129
130
131
131
131
131
131
130
130
130
130
130
129
130
129
128
128
127
127
127
127
127
127
128
128
128
128
128
128
128
128
128
127
128
127
127
126
126
126
125
125
125
124
124
123
123
122
122
121
120
119
119
118
117
117
115
114
114
113
113
112
111
110
109
109
108
108
107
106
105
105
105
105
105
104
104
104
103
103
102
102
102
101
101
101
101
100
99
99
98
98
98
98
98
98
97
96
96
96
96
97
97
99
99
99
101
101
103
104
105
106
107
109
110
111
113
113
115
117
117
118
119
120
121
121
120
122
121
121
120
120
120
120
120
119
120
120
121
121
122
123
124
125
126
127
128
129
130
132
132
134
135
136
137
138
138
138
139
139
139
138
138
138
138
136
136
135
134
133
133
133
132
132
131
130
130
129
129
129
130
131
131
132
132
133
134
134
134
135
136
136
137
137
137
137
136
136
136
136
136
135
135
135
135
135
135
134
135
135
134
135
136
137
138
138
138
139
138
139
139
140
139
138
137
136
135
132
129
126
123
119
114
111
106
100
95
89
82
76
70
64
57
51
44
38
33
28
23
18
14
10
7
4
2
1
0
0
1
2
4
6
10
14
18
23
28
34
39
44
50
57
64
70
76
82
87
92
96
101
105
109
112
115
118
120
121
123
123
123
124
123
123
123
122
121
120
119
118
117
117
116
115
115
114
114
113
114
114
114
114
115
116
116
117
118
119
121
121
122
124
124
126
126
127
127
128
128
127
127
127
128
128
127
126
126
124
124
123
121
121
121
120
120
119
119
119
120
120
120
120
120
120
120
121
121
120
120
121
120
120
121
121
121
121
121
121
121
121
121
120
120
119
118
119
118
117
117
116
116
116
115
116
115
114
114
113
113
113
113
113
114
113
113
113
113
113
114
114
115
115
116
116
117
117
117
118
118
118
118
118
118
118
117
117
116
115
114
114
113
112
112
111
111
110
109
109
108
109
108
108
108
107
106
107
106
106
105
105
104
104
103
103
103
103
102
102
102
102
102
101
101
102
102
102
103
103
103
104
104
105
105
106
107
107
106
106
105
105
104
103
102
101
100
99
97
96
95
94
93
92
90
90
89
87
85
85
83
82
81
80
79
78
77
77
76
75
74
73
73
73
74
74
74
74
74
74
74
73
74
74
74
74
74
73
73
72
70
69
68
67
67
65
64
63
63
61
60
59
58
57
57
56
56
56
55
56
55
56
57
57
57
58
59
59
59
59
59
59
59
59
59
59
59
59
58
58
57
57
58
58
59
59
60
60
60
61
61
62
62
62
63
64
65
65
65
65
65
65
66
65
66
67
68
68
68
70
71
72
73
73
74
75
75
76
77
77
78
78
79
79
80
80
80
81
81
81
81
81
81
81
81
82
82
82
83
83
84
85
87
88
89
90
91
92
92
94
95
96
97
99
99
100
101
101
101
101
100
101
101
100
100
100
99
99
98
97
96
95
94
93
92
91
91
90
89
89
90
90
90
91
92
93
93
95
96
96
97
98
98
99
100
101
103
104
104
104
104
104
104
104
104
104
104
104
103
103
103
102
101
101
99
99
98
97
97
96
95
94
94
93
93
93
93
93
93
93
92
92
92
92
92
92
93
93
93
93
93
93
93
93
94
94
94
94
94
95
95
95
96
96
96
97
98
98
98
98
98
98
99
99
100
99
99
99
99
99
99
98
98
97
96
96
95
93
92
91
90
89
89
90
90
90
90
90
90
91
91
92
93
94
95
96
98
99
99
101
102
102
103
103
104
105
105
106
106
107
107
107
107
106
105
105
105
105
104
103
104
103
103
104
104
103
103
104
104
104
105
105
105
107
108
107
107
108
108
108
108
109
108
109
109
109
108
107
107
107
107
107
106
106
106
105
105
104
104
104
104
104
104
104
105
106
106
107
107
107
108
109
108
108
109
109
108
108
108
107
107
107
106
106
105
104
104
103
102
102
101
101
101
100
100
100
100
100
100
101
100
101
101
102
103
104
106
107
108
109
110
110
111
112
112
113
114
115
115
115
116
115
115
115
114
114
113
113
112
111
110
109
108
107
105
104
104
103
101
101
100
99
98
98
98
97
96
96
95
95
94
94
93
94
93
92
93
92
91
90
89
90
89
89
88
88
87
87
87
87
87
87
86
85
85
85
85
84
84
83
83
83
83
83
83
83
83
82
82
83
83
83
83
84
85
85
86
87
87
87
88
90
90
91
92
92
94
94
96
98
99
100
101
103
104
105
106
107
107
109
109
110
111
112
113
113
114
114
115
114
115
115
115
115
116
116
117
116
115
115
115
116
115
116
116
117
117
117
117
117
116
116
117
117
117
118
118
118
118
118
118
119
119
119
120
120
121
121
122
122
123
123
123
123
122
122
123
122
123
123
122
122
122
123
124
124
124
124
125
126
127
127
127
129
129
129
130
130
132
132
132
132
132
132
133
132
132
133
133
133
132
131
131
131
130
130
128
127
125
124
121
119
116
113
109
106
102
97
92
87
81
74
67
61
54
47
39
32
25
17
11
5
0
-4
-8
-12
-15
-17
-19
-19
-19
-18
-16
-13
-9
-4
1
7
13
19
26
32
39
48
55
63
71
79
86
92
98
104
110
116
120
123
126
128
130
131
132
132
132
132
132
131
130
129
128
127
127
125
124
123
123
121
121
121
120
119
120
120
120
120
120
120
120
120
121
120
121
120
121
121
122
121
122
123
123
123
124
124
125
125
126
126
127
128
129
128
129
130
130
130
131
132
132
132
132
132
131
131
130
130
130
130
130
129
129
129
129
128
127
127
126
126
125
126
126
126
125
126
126
126
126
126
126
126
126
126
126
126
126
125
125
125
124
124
125
124
124
124
124
123
123
123
122
122
122
122
122
121
122
121
121
121
121
121
120
121
120
120
120
121
122
122
122
122
122
122
123
123
123
124
125
125
125
125
125
124
123
123
123
123
123
122
121
121
121
121
121
121
121
121
120
121
121
121
122
123
123
124
125
124
124
125
125
125
125
125
125
126
126
125
125
125
124
124
123
123
122
121
120
120
119
119
119
118
117
117
116
115
114
113
112
111
110
110
108
106
105
104
104
103
103
102
101
99
99
98
98
98
97
96
96
95
95
94
93
92
91
90
88
88
87
86
85
83
83
82
82
81
80
80
80
80
81
81
82
82
83
84
85
86
87
88
89
90
90
92
92
93
93
93
93
93
92
92
91
91
90
88
87
87
86
85
84
84
84
84
85
84
84
83
84
84
85
85
87
88
89
90
90
92
93
95
95
97
98
99
100
100
101
101
101
102
102
103
103
103
104
104
105
105
106
106
107
107
108
109
110
111
112
112
113
115
116
116
117
117
118
118
119
120
120
121
121
122
122
123
123
123
123
125
126
126
127
129
130
130
131
132
133
134
136
137
138
139
140
140
141
142
143
143
144
144
144
144
143
143
142
141
141
141
141
141
140
140
140
140
140
139
139
139
139
139
139
139
139
138
138
138
137
137
137
137
138
138
137
136
136
135
135
134
134
133
133
133
132
133
133
133
133
134
133
134
134
135
136
136
137
137
139
139
140
140
141
141
142
142
141
141
140
140
140
140
139
140
139
139
138
138
137
136
136
136
136
135
135
135
135
135
136
137
137
138
139
140
141
142
143
144
144
145
145
146
147
147
146
146
145
145
145
145
144
144
144
143
143
143
143
142
142
141
141
142
142
143
144
144
144
145
146
146
147
146
146
147
147
147
146
146
145
145
143
143
142
142
141
141
140
140
140
140
141
141
142
143
144
145
146
147
148
150
151
151
152
153
155
156
156
157
157
158
158
158
158
158
158
158
157
157
157
156
156
156
156
156
155
155
155
154
154
153
153
154
154
154
154
154
154
154
154
154
155
154
154
155
156
156
156
156
156
157
158
158
158
159
158
159
159
159
159
158
158
160
160
159
160
159
158
158
157
156
156
156
156
156
156
157
156
157
157
158
158
158
159
159
159
159
159
160
161
161
161
161
162
161
161
160
160
158
158
156
155
154
152
151
149
148
146
145
144
144
142
141
141
140
140
140
139
139
138
139
139
139
139
139
139
139
138
137
136
136
136
136
135
135
134
134
134
134
134
134
134
135
134
134
135
135
135
136
137
137
138
138
139
140
141
140
141
141
141
141
141
142
142
142
143
143
144
144
145
146
147
148
149
150
151
152
153
155
155
156
157
159
160
161
162
163
164
165
166
168
168
169
171
172
174
175
177
178
179
180
181
181
182
182
183
183
183
182
182
182
182
182
180
180
179
179
179
178
178
177
177
176
176
176
175
175
174
174
174
175
175
175
175
175
175
175
175
175
176
176
176
176
176
176
176
176
176
176
176
176
176
176
176
176
176
176
177
176
177
177
179
180
181
182
183
184
185
186
187
189
190
191
191
191
191
189
188
186
184
181
178
175
171
167
162
157
151
144
138
131
124
117
110
103
97
91
85
79
73
67
62
57
53
50
47
44
43
42
42
43
44
46
49
52
56
60
66
71
77
83
90
97
104
111
118
124
131
138
143
150
156
161
165
169
173
176
180
182
184
185
186
187
188
187
188
186
186
185
184
184
183
182
181
180
179
178
177
176
175
174
173
173
172
171
171
170
170
170
169
169
170
170
170
170
171
171
172
173
173
174
174
175
176
176
177
177
178
178
179
180
181
182
183
183
183
183
183
183
183
183
182
181
181
181
180
179
178
178
178
177
177
176
176
176
176
176
176
176
177
177
177
178
178
178
179
179
178
178
178
179
178
178
178
178
178
177
177
177
176
175
174
174
174
174
173
173
172
171
171
171
171
171
170
170
170
170
170
170
171
172
172
172
172
172
172
172
172
172
172
172
173
173
173
173
173
173
173
172
173
172
171
170
169
168
167
167
166
165
164
164
164
164
164
164
165
165
165
166
166
167
169
170
171
172
174
175
176
177
179
179
180
180
180
180
180
179
179
179
178
177
176
175
174
173
172
170
169
168
167
166
164
163
162
161
160
159
158
157
157
156
155
154
155
154
153
152
151
150
150
149
149
148
147
146
146
145
145
143
142
142
141
140
139
138
137
136
135
134
133
132
131
130
129
129
128
127
126
125
125
124
125
125
125
125
126
126
126
127
128
129
130
130
131
132
133
135
136
137
138
139
140
141
141
141
141
141
140
140
140
140
140
140
140
141
140
140
141
141
141
142
143
144
143
144
145
145
145
147
147
147
148
148
149
149
150
150
151
151
151
151
151
151
151
151
151
149
149
149
149
148
148
149
149
149
150
152
152
153
154
154
154
156
157
157
159
159
160
161
162
163
164
165
166
166
167
168
168
168
168
168
168
169
169
169
170
171
172
172
173
173
173
174
174
175
176
177
178
179
179
180
180
181
181
181
181
181
182
182
182
182
182
181
181
181
180
180
180
179
178
177
177
177
177
176
176
175
174
173
173
173
171
171
170
170
169
169
169
169
168
169
168
168
168
168
167
167
167
168
168
168
169
170
170
170
171
170
171
171
171
171
171
171
171
172
172
170
169
169
169
169
169
169
168
168
169
169
169
169
169
169
169
169
169
169
169
170
169
169
170
170
170
170
171
171
171
172
172
172
172
172
173
174
173
174
174
173
173
174
174
173
173
173
173
173
173
173
174
174
173
173
172
172
172
172
172
171
170
170
170
170
170
170
170
170
171
171
171
172
172
172
172
172
172
173
173
173
175
175
175
176
176
176
177
177
178
178
178
178
178
178
178
178
179
179
179
179
179
179
179
180
180
181
181
182
181
181
181
182
183
183
183
183
183
183
182
182
181
182
182
181
181
181
180
180
180
180
180
180
180
180
180
181
181
181
181
181
180
180
181
181
180
180
180
181
182
182
182
182
182
183
183
184
184
184
184
184
184
185
186
186
186
186
186
185
185
185
185
184
184
183
182
182
181
180
179
178
177
176
175
175
175
175
174
175
175
174
174
174
173
174
173
173
173
173
173
172
171
171
171
171
172
172
171
172
171
171
170
171
170
170
169
169
169
168
167
166
165
164
163
162
161
159
157
156
155
154
151
150
149
148
147
147
148
148
148
149
150
150
151
153
154
156
157
158
160
161
163
164
165
166
167
167
168
168
168
169
169
169
170
170
170
171
171
172
172
173
173
174
175
176
177
178
179
180
181
182
183
184
185
185
187
187
188
189
191
193
194
195
196
196
197
198
198
199
199
200
200
200
201
201
202
201
201
201
200
200
198
198
197
196
196
196
196
195
195
194
193
193
193
193
193
194
194
194
195
195
195
195
196
196
196
196
197
197
197
197
197
197
197
196
195
195
195
196
196
196
197
198
198
198
199
199
201
202
203
203
204
205
206
207
207
208
208
209
209
209
209
208
207
205
203
201
199
196
193
190
185
181
176
171
166
161
155
148
141
134
127
119
112
106
99
93
87
82
77
72
68
66
64
63
63
64
65
67
70
74
79
84
89
94
100
108
114
120
128
134
141
146
152
158
164
169
174
178
182
185
188
191
194
195
197
198
199
199
199
199
198
197
198
197
196
195
195
193
192
192
191
190
189
188
187
187
187
187
187
188
189
189
190
190
191
192
192
193
195
195
196
197
197
197
198
198
198
198
198
198
198
198
197
197
197
197
196
195
195
195
195
195
194
195
195
195
195
195
194
194
194
193
193
193
194
193
193
194
195
195
195
195
195
195
195
196
196
196
196
196
196
196
196
196
197
197
197
196
196
195
195
195
194
194
194
193
193
193
193
193
192
191
191
191
191
191
191
190
190
190
190
189
189
188
187
188
188
189
189
189
188
188
188
188
188
189
190
190
191
190
191
191
192
192
192
192
192
192
192
192
191
191
190
190
190
190
189
189
188
188
187
186
186
185
184
184
182
182
181
180
179
180
179
179
177
177
176
176
177
177
177
177
177
177
177
179
179
179
179
178
179
178
179
179
179
178
178
177
176
175
174
173
173
171
170
169
168
167
166
164
164
162
161
160
160
159
158
157
156
155
155
154
154
153
153
153
152
152
151
150
150
149
148
148
147
148
147
146
145
144
143
143
142
142
141
140
140
140
140
139
139
139
140
140
140
141
141
143
144
145
146
147
148
148
150
150
151
151
151
151
152
151
151
151
150
150
150
149
148
147
147
146
145
144
144
144
144
143
143
144
144
144
144
145
145
146
147
148
149
149
150
151
151
152
152
153
154
154
154
155
155
156
155
157
158
158
159
159
160
161
161
162
162
163
165
166
167
168
169
170
171
171
172
173
175
175
176
177
178
178
179
180
180
180
180
180
181
180
180
180
180
180
180
180
179
179
179
178
178
178
177
177
177
177
176
176
176
175
174
174
174
173
173
173
173
173
172
173
173
174
174
175
175
176
176
176
177
178
178
179
179
180
180
180
181
181
181
182
182
181
181
181
181
180
180
179
178
178
177
177
176
175
174
174
173
173
173
172
172
172
172
171
172
172
172
173
172
173
173
174
175
175
175
176
178
178
178
179
180
181
181
182
182
182
181
181
181
180
180
180
179
178
178
178
178
177
176
175
174
173
173
173
173
172
172
172
173
173
173
173
173
173
174
174
175
175
175
175
176
176
176
177
177
177
177
178
178
179
179
180
180
180
180
181
181
182
182
182
182
182
182
182
182
181
181
180
179
178
177
176
174
172
171
171
170
170
169
169
168
168
169
169
169
170
170
172
173
175
176
177
179
180
181
182
183
183
184
185
186
187
187
187
188
188
188
188
188
188
188
188
188
188
188
187
187
187
187
187
186
186
185
185
184
183
182
182
182
181
180
179
178
178
177
177
177
177
177
177
177
177
177
178
178
179
179
180
181
182
182
183
183
183
185
185
185
185
186
186
187
187
187
187
187
186
185
185
185
185
185
184
184
183
183
182
182
181
181
181
180
180
179
179
178
177
175
174
173
172
172
170
168
167
165
164
163
162
162
162
161
160
159
158
158
157
158
157
159
159
159
159
159
159
159
159
159
161
161
161
161
161
161
162
161
161
160
161
160
160
160
159
159
158
158
157
157
156
156
156
155
155
155
155
155
155
155
155
154
155
155
156
156
157
157
158
159
159
160
161
162
163
164
165
167
168
169
170
172
173
174
174
175
175
177
179
181
182
184
185
186
187
188
188
189
190
190
191
192
193
193
194
194
193
193
193
193
193
193
193
193
193
193
194
194
193
193
192
193
193
193
193
193
193
193
194
194
193
194
193
193
192
193
193
193
194
194
193
192
192
192
192
192
191
191
191
191
191
192
192
192
192
192
192
192
192
192
192
192
193
193
194
194
194
195
195
196
197
197
198
199
200
200
202
202
202
203
202
202
202
200
199
197
195
191
187
184
179
174
169
162
155
148
140
132
124
115
106
98
90
83
76
69
63
58
53
50
49
47
47
48
50
51
56
59
65
71
77
84
91
98
105
112
118
125
132
138
145
151
156
161
165
169
174
176
179
181
183
186
187
188
188
188
189
189
188
189
188
188
186
186
186
185
186
185
185
183
183
183
183
183
182
183
182
183
183
183
183
184
184
183
184
184
185
184
185
185
185
186
186
187
186
186
185
185
185
186
185
185
185
185
185
185
185
185
184
184
184
184
184
183
183
182
182
181
181
180
181
180
180
180
180
179
178
178
177
178
178
177
177
176
175
175
174
173
173
173
172
173
173
173
173
174
174
175
176
176
177
179
179
179
180
180
181
181
182
184
185
185
186
187
187
187
188
188
187
187
187
188
188
188
188
187
187
186
185
185
185
184
183
182
181
181
180
179
177
176
175
175
174
172
171
170
169
170
169
169
169
169
169
169
168
168
167
167
167
167
167
168
167
167
166
166
165
165
165
165
164
164
162
162
161
161
161
161
161
161
160
160
160
160
160
160
160
160
160
161
161
161
161
162
162
162
161
161
160
160
159
158
159
158
157
155
155
153
152
152
151
150
149
148
147
147
146
146
146
146
145
145
145
145
144
144
144
143
144
144
144
144
144
143
143
143
143
142
142
141
141
141
140
139
137
136
135
134
133
133
132
131
132
131
130
130
130
129
129
128
128
129
129
129
129
129
130
130
130
130
130
131
131
131
132
132
131
130
130
130
130
130
130
130
129
129
128
128
128
128
129
129
129
129
129
130
130
131
132
132
132
133
134
135
135
136
136
138
138
140
142
142
143
144
145
146
147
148
149
150
152
153
154
154
155
156
157
157
159
160
160
161
162
162
163
162
162
162
162
161
161
161
160
159
158
157
155
154
155
154
154
154
153
153
153
153
154
154
155
157
158
159
161
162
163
164
165
167
168
169
170
170
171
171
171
172
172
172
172
171
171
171
170
170
170
170
169
169
169
169
169
169
169
169
169
169
168
168
168
167
167
167
168
168
167
167
166
166
166
166
166
165
165
165
164
164
164
164
163
164
163
162
162
162
161
160
159
158
157
157
157
157
157
158
158
158
158
159
159
159
160
161
162
163
163
164
164
164
165
166
166
166
166
167
166
166
166
165
165
164
164
164
164
164
164
163
162
162
161
161
161
161
161
162
162
162
162
161
161
161
161
161
161
161
162
162
162
161
161
162
162
162
162
162
163
163
164
164
166
166
167
167
167
168
168
168
168
169
169
169
170
170
171
172
172
173
173
173
174
173
173
174
174
173
173
173
172
171
170
170
169
169
168
167
167
166
165
164
164
164
164
164
165
165
166
166
167
168
169
169
171
172
173
174
175
176
177
178
178
178
178
178
178
178
176
176
175
174
173
173
172
172
173
171
171
171
171
171
171
171
171
172
173
173
173
173
172
172
171
171
171
170
170
170
170
169
169
168
167
168
167
167
167
167
167
167
169
169
170
171
172
172
174
174
175
176
176
176
176
176
176
175
175
174
173
173
171
170
169
167
165
164
162
161
159
158
157
155
154
153
152
152
151
150
149
149
149
148
148
148
148
148
148
149
148
148
148
149
149
149
149
149
149
148
148
148
148
148
149
148
148
149
149
149
149
149
149
150
150
151
150
150
150
151
150
151
151
152
152
152
153
154
155
156
157
157
157
158
158
160
161
162
164
166
167
168
169
170
171
173
174
176
178
179
181
182
184
185
187
188
189
190
192
192
193
193
194
194
194
195
195
195
195
196
196
195
195
195
194
194
193
193
193
193
193
192
191
190
189
189
188
188
188
188
188
187
187
187
187
186
187
187
188
189
189
190
191
191
192
193
194
195
196
197
197
198
198
200
200
200
200
201
201
201
201
201
201
200
200
200
201
200
200
200
200
200
200
199
198
197
195
194
192
189
187
184
180
176
173
168
164
159
153
148
141
135
129
122
116
109
103
98
92
86
81
77
72
69
66
64
63
62
63
64
66
69
72
77
82
86
92
98
105
111
118
124
130
136
142
149
155
160
165
171
175
178
182
185
187
190
191
193
194
196
196
198
198
198
198
198
198
198
198
198
198
199
198
199
198
198
198
198
198
198
198
198
197
198
197
196
197
196
195
195
194
194
193
193
193
193
192
192
192
192
192
192
191
190
190
190
191
191
192
194
195
196
197
196
197
199
198
199
200
200
201
201
201
200
200
200
200
200
199
198
198
197
196
195
194
192
192
192
193
193
193
194
195
195
196
197
198
200
202
203
205
206
208
209
211
211
211
212
212
212
212
211
212
211
210
210
209
209
208
207
206
205
205
205
204
203
203
203
203
203
202
202
202
202
201
201
201
202
202
201
201
201
201
201
200
201
200
200
199
199
198
197
196
195
195
195
194
194
194
194
194
194
194
195
195
195
195
195
196
197
197
197
197
197
197
197
197
196
197
197
197
197
197
197
197
196
196
196
196
196
195
195
195
194
193
193
193
192
191
190
190
189
188
186
185
184
182
181
181
180
179
178
178
177
177
177
177
176
177
177
178
178
178
179
179
179
180
180
180
179
180
179
179
178
177
177
177
175
174
173
172
171
170
169
168
167
166
166
165
164
163
163
162
162
162
162
162
161
162
162
164
164
164
165
165
166
166
168
169
169
170
170
171
171
172
173
173
174
175
175
175
176
176
176
176
176
177
176
176
177
177
176
176
176
176
177
176
177
177
177
178
178
178
179
179
180
180
181
182
183
184
184
185
185
186
187
189
190
191
193
194
195
196
197
197
198
199
200
201
202
202
203
204
203
204
204
204
205
205
205
206
205
206
206
206
206
206
207
207
207
207
207
207
207
207
207
208
208
208
208
208
207
207
207
207
206
207
208
208
208
208
208
209
209
209
210
212
212
213
214
214
215
216
217
217
217
217
219
219
219
219
219
218
218
218
219
219
219
219
219
219
219
219
218
218
218
219
218
218
218
218
218
218
217
217
216
217
216
217
217
216
216
216
216
216
216
215
215
216
216
217
217
216
216
216
216
216
216
217
217
217
218
218
219
219
219
220
219
219
219
220
220
220
219
220
220
221
220
220
220
220
221
221
222
222
223
224
225
226
226
227
228
228
229
230
231
231
232
232
232
233
234
233
233
233
231
230
230
229
229
228
226
225
224
223
223
222
222
221
221
221
221
221
222
222
223
223
223
224
224
226
226
228
228
229
230
231
231
231
232
232
232
232
233
233
233
233
234
234
235
236
235
235
235
235
235
235
236
237
237
237
236
236
237
237
236
235
236
236
236
236
235
235
235
235
235
235
235
235
235
235
235
236
236
236
237
237
237
237
237
236
236
235
235
234
233
233
233
233
233
233
234
234
235
235
236
236
236
238
239
240
241
242
242
244
244
245
245
247
247
246
246
246
245
244
244
242
241
239
239
237
235
234
232
231
229
228
228
227
226
226
224
224
223
223
221
221
220
221
220
219
219
219
217
217
216
216
216
216
215
216
215
215
215
216
215
215
216
216
216
216
216
217
217
217
218
218
219
219
219
220
221
221
221
222
222
222
222
222
222
222
222
223
223
224
224
226
226
228
228
229
230
231
232
233
234
235
236
237
239
240
240
241
241
243
243
244
244
245
245
246
246
247
249
249
250
251
252
253
254
255
256
256
258
258
259
259
259
259
260
260
260
260
260
260
259
259
258
258
258
257
257
257
256
256
256
256
257
257
257
258
259
260
261
261
261
263
263
264
264
264
264
264
264
264
264
264
264
264
263
262
261
260
260
260
259
259
259
260
260
260
261
261
262
263
264
266
268
269
271
272
273
274
276
276
277
277
277
277
277
276
275
273
272
270
268
266
263
261
257
253
249
243
239
233
228
223
216
210
203
196
189
182
175
168
162
156
151
145
141
137
134
132
131
130
130
131
133
137
140
145
149
155
161
168
174
181
187
194
201
207
214
220
226
232
237
242
246
250
253
256
258
260
261
263
264
266
266
266
267
268
267
267
267
266
265
264
263
264
263
262
261
260
260
260
259
258
257
256
255
255
255
254
254
255
254
254
255
255
255
255
255
254
254
254
254
255
256
256
257
257
258
258
258
259
259
259
260
260
260
260
261
261
261
262
263
263
263
264
264
264
264
264
264
264
264
265
265
265
266
266
266
266
266
265
266
266
266
266
266
266
266
266
266
266
265
264
264
264
264
264
264
263
263
263
262
263
263
263
262
262
262
261
261
262
261
261
262
262
262
261
261
260
260
259
259
260
259
259
259
259
258
258
257
257
256
256
254
254
253
252
251
251
250
249
248
248
247
247
247
247
247
248
248
249
250
250
250
250
250
251
251
251
252
252
252
253
253
252
252
252
252
252
251
251
251
250
250
250
250
250
250
249
248
249
249
249
248
248
248
247
247
246
245
244
244
242
241
240
239
239
238
236
236
234
233
233
232
231
230
229
229
229
228
228
227
226
225
225
225
224
223
223
222
222
222
221
220
220
219
219
218
217
216
217
216
216
215
215
215
215
214
213
213
212
213
212
211
211
210
209
208
207
206
206
205
204
203
203
203
203
202
203
202
202
204
205
206
206
207
208
208
210
211
211
212
212
213
214
214
215
214
214
213
212
211
211
211
210
210
211
212
213
212
213
213
214
215
216
218
219
220
221
222
223
224
225
226
227
228
228
228
228
228
228
227
227
226
226
226
225
225
225
225
225
225
225
226
227
227
228
230
231
231
232
234
235
236
237
237
239
240
242
242
243
244
244
245
246
246
247
248
247
247
248
247
247
247
248
248
248
247
247
247
246
246
245
245
244
243
243
243
243
242
241
240
240
239
239
238
238
239
239
238
238
238
238
239
239
239
240
240
241
241
241
241
241
242
241
242
242
242
242
242
241
241
242
242
242
241
241
241
241
241
240
240
239
239
239
238
238
237
236
235
234
234
234
233
233
233
233
233
233
233
233
233
233
233
234
235
236
236
236
237
237
237
238
238
239
238
239
239
240
240
240
240
240
239
239
239
239
238
238
238
237
236
236
235
234
233
232
231
230
229
229
228
227
226
226
226
226
226
226
227
227
227
228
229
230
231
232
233
234
235
236
236
236
