# Simple Text Format
# Sampling Rate (Hz):= 1200.00
# Resolution:= 12
# Labels:= ECG	 V3
# Age:=	63
# Gender:=	Feminino
-256
-256
-256
-255
-254
-253
-252
-250
-250
-247
-246
-245
-243
-240
-239
-237
-235
-232
-228
-224
-220
-215
-210
-204
-198
-193
-185
-180
-173
-166
-160
-153
-148
-144
-139
-136
-133
-132
-132
-132
-136
-140
-146
-152
-162
-172
-184
-197
-213
-229
-246
-265
-283
-303
-323
-343
-362
-381
-401
-418
-436
-453
-468
-482
-494
-504
-514
-521
-527
-531
-533
-534
-533
-531
-527
-522
-517
-512
-504
-497
-489
-480
-472
-463
-454
-445
-434
-425
-417
-407
-398
-389
-380
-370
-362
-354
-346
-338
-330
-323
-316
-309
-304
-298
-293
-288
-283
-279
-275
-273
-269
-267
-264
-262
-261
-260
-258
-258
-257
-256
-255
-256
-256
-256
-255
-254
-255
-254
-254
-254
-253
-253
-252
-252
-252
-252
-252
-252
-251
-251
-251
-250
-250
-250
-250
-250
-249
-249
-249
-247
-247
-247
-247
-247
-247
-248
-246
-247
-247
-246
-246
-246
-247
-247
-247
-246
-246
-246
-246
-246
-246
-245
-245
-245
-245
-245
-245
-245
-244
-244
-243
-243
-243
-244
-243
-242
-242
-242
-242
-241
-241
-240
-240
-240
-240
-240
-239
-239
-238
-238
-238
-238
-237
-238
-237
-237
-237
-236
-236
-236
-236
-236
-235
-235
-235
-235
-235
-234
-233
-234
-233
-233
-233
-233
-233
-232
-231
-231
-231
-230
-230
-230
-229
-229
-229
-229
-228
-229
-228
-229
-229
-228
-229
-229
-229
-228
-229
-228
-228
-228
-228
-228
-227
-227
-227
-227
-227
-225
-225
-223
-223
-222
-221
-222
-220
-218
-218
-216
-216
-214
-214
-212
-211
-210
-209
-208
-208
-207
-207
-205
-205
-204
-204
-203
-202
-201
-201
-199
-199
-198
-197
-196
-196
-194
-194
-193
-193
-192
-190
-190
-189
-189
-188
-188
-187
-186
-186
-185
-184
-183
-182
-182
-181
-180
-181
-180
-179
-179
-179
-178
-178
-178
-177
-178
-177
-176
-176
-176
-176
-176
-176
-177
-177
-176
-177
-178
-178
-178
-178
-179
-180
-180
-181
-181
-182
-182
-182
-183
-184
-184
-184
-184
-185
-185
-186
-186
-186
-186
-187
-187
-187
-187
-188
-188
-188
-188
-189
-189
-190
-190
-190
-190
-191
-191
-191
-191
-191
-191
-192
-192
-192
-193
-193
-194
-194
-195
-194
-195
-196
-196
-197
-198
-199
-200
-200
-201
-202
-203
-203
-205
-205
-207
-208
-208
-209
-209
-210
-210
-210
-211
-211
-211
-212
-213
-212
-213
-213
-213
-213
-213
-214
-214
-214
-215
-215
-215
-216
-216
-216
-216
-216
-217
-217
-218
-218
-218
-218
-219
-219
-219
-219
-219
-219
-220
-220
-219
-218
-218
-218
-218
-217
-218
-218
-218
-217
-217
-217
-216
-216
-216
-216
-216
-216
-216
-216
-216
-215
-215
-215
-215
-215
-215
-215
-215
-215
-215
-215
-215
-214
-215
-215
-215
-215
-215
-215
-216
-215
-215
-215
-215
-215
-215
-215
-215
-215
-215
-215
-215
-215
-216
-216
-216
-215
-216
-215
-215
-216
-215
-215
-215
-215
-215
-216
-216
-217
-217
-217
-216
-216
-215
-215
-215
-215
-214
-214
-213
-213
-212
-212
-210
-211
-210
-209
-210
-209
-209
-210
-210
-210
-210
-210
-210
-211
-211
-211
-211
-212
-212
-212
-212
-212
-213
-213
-213
-214
-214
-214
-214
-214
-214
-214
-215
-215
-215
-215
-215
-215
-215
-215
-215
-215
-215
-215
-215
-214
-215
-215
-215
-214
-214
-215
-215
-216
-215
-215
-216
-215
-215
-215
-216
-216
-216
-216
-217
-217
-217
-217
-218
-218
-218
-218
-218
-218
-218
-218
-218
-218
-218
-218
-218
-218
-217
-217
-217
-217
-217
-216
-216
-216
-216
-216
-217
-216
-217
-217
-216
-216
-216
-215
-215
-215
-215
-214
-215
-215
-215
-215
-215
-216
-216
-216
-217
-217
-218
-218
-218
-218
-219
-219
-219
-219
-219
-219
-219
-218
-218
-217
-217
-216
-216
-215
-215
-216
-215
-214
-213
-214
-212
-212
-212
-212
-212
-212
-212
-212
-213
-213
-213
-214
-213
-213
-214
-214
-213
-213
-213
-213
-213
-211
-212
-211
-210
-210
-209
-208
-207
-207
-205
-205
-204
-204
-203
-202
-201
-201
-199
-198
-197
-196
-195
-194
-193
-193
-191
-190
-191
-189
-189
-188
-188
-187
-186
-187
-186
-187
-187
-187
-187
-187
-187
-186
-186
-188
-188
-189
-189
-190
-191
-191
-191
-191
-192
-192
-193
-193
-194
-193
-194
-195
-195
-196
-197
-197
-197
-198
-198
-199
-201
-202
-201
-203
-204
-204
-205
-205
-206
-206
-207
-207
-208
-208
-208
-208
-209
-209
-209
-209
-210
-210
-210
-211
-211
-212
-212
-213
-214
-214
-215
-215
-215
-216
-216
-218
-218
-218
-219
-220
-220
-220
-220
-220
-221
-220
-221
-221
-221
-221
-221
-221
-220
-220
-220
-220
-220
-221
-220
-220
-220
-220
-220
-220
-220
-219
-220
-219
-219
-219
-218
-218
-217
-217
-216
-216
-216
-216
-216
-216
-216
-216
-216
-216
-215
-215
-215
-215
-215
-214
-215
-215
-214
-214
-214
-213
-214
-213
-213
-212
-212
-211
-210
-209
-209
-207
-207
-206
-204
-203
-200
-199
-196
-193
-189
-186
-181
-177
-172
-165
-159
-153
-146
-140
-134
-126
-120
-114
-107
-102
-97
-92
-89
-86
-85
-86
-88
-91
-95
-102
-110
-120
-130
-144
-158
-173
-191
-209
-228
-248
-267
-288
-309
-328
-347
-366
-385
-402
-418
-433
-446
-458
-468
-477
-484
-490
-493
-494
-494
-492
-490
-485
-480
-475
-468
-460
-453
-444
-436
-427
-416
-407
-397
-388
-379
-369
-360
-350
-342
-333
-324
-315
-307
-300
-292
-284
-278
-270
-264
-258
-253
-246
-242
-237
-234
-230
-227
-225
-222
-219
-216
-215
-213
-212
-212
-210
-210
-209
-209
-208
-209
-208
-208
-208
-207
-207
-207
-207
-207
-207
-207
-206
-206
-206
-206
-206
-205
-205
-205
-205
-205
-205
-205
-204
-204
-204
-204
-204
-204
-204
-203
-203
-203
-203
-202
-203
-203
-202
-203
-203
-202
-202
-202
-202
-202
-203
-203
-203
-202
-202
-202
-202
-201
-201
-201
-199
-199
-199
-199
-199
-198
-198
-199
-199
-198
-198
-198
-198
-198
-198
-198
-198
-198
-198
-198
-198
-198
-198
-198
-198
-198
-197
-197
-196
-197
-196
-195
-195
-193
-193
-193
-192
-191
-191
-191
-190
-190
-190
-190
-190
-190
-190
-189
-190
-190
-190
-190
-190
-190
-190
-190
-190
-191
-190
-190
-191
-191
-191
-191
-190
-190
-189
-189
-188
-188
-188
-187
-187
-186
-185
-184
-184
-183
-182
-182
-180
-180
-179
-179
-179
-177
-176
-176
-176
-175
-174
-174
-172
-172
-171
-169
-169
-167
-166
-166
-164
-163
-162
-161
-160
-159
-158
-157
-156
-156
-155
-154
-153
-152
-152
-151
-150
-149
-149
-148
-148
-146
-145
-145
-145
-143
-143
-143
-142
-142
-141
-141
-141
-140
-140
-139
-139
-139
-139
-139
-139
-139
-138
-139
-139
-139
-137
-138
-138
-138
-138
-138
-138
-138
-138
-137
-137
-137
-138
-138
-138
-138
-138
-139
-139
-139
-139
-140
-140
-141
-142
-142
-143
-143
-143
-143
-144
-144
-144
-144
-144
-145
-145
-146
-146
-146
-146
-147
-147
-149
-149
-149
-149
-150
-150
-150
-151
-150
-151
-151
-151
-152
-153
-153
-153
-153
-154
-154
-154
-155
-156
-156
-157
-157
-158
-158
-159
-160
-161
-161
-162
-163
-163
-165
-166
-167
-167
-168
-169
-170
-171
-171
-172
-173
-174
-174
-174
-176
-176
-177
-177
-177
-178
-178
-178
-178
-178
-179
-179
-179
-179
-179
-179
-179
-179
-179
-179
-180
-180
-180
-179
-180
-180
-180
-181
-181
-181
-182
-183
-182
-182
-183
-182
-182
-181
-181
-181
-181
-181
-181
-180
-180
-180
-180
-180
-180
-180
-180
-180
-180
-180
-180
-180
-181
-181
-181
-180
-180
-180
-181
-181
-180
-180
-181
-180
-180
-179
-179
-179
-178
-178
-178
-178
-178
-177
-178
-178
-178
-178
-178
-178
-177
-178
-178
-178
-178
-178
-178
-178
-179
-178
-178
-178
-178
-177
-177
-177
-177
-177
-177
-177
-177
-177
-177
-177
-178
-177
-178
-178
-179
-179
-180
-180
-181
-181
-182
-182
-182
-181
-182
-182
-183
-183
-183
-183
-183
-184
-183
-183
-183
-183
-183
-183
-183
-182
-182
-182
-182
-182
-182
-182
-182
-182
-183
-183
-182
-182
-183
-182
-183
-183
-183
-183
-182
-182
-182
-182
-182
-182
-183
-183
-183
-183
-183
-183
-184
-184
-184
-185
-185
-185
-186
-186
-185
-186
-186
-186
-186
-186
-186
-186
-186
-185
-186
-186
-185
-185
-185
-186
-186
-187
-187
-186
-186
-186
-186
-186
-186
-187
-187
-187
-187
-187
-188
-188
-188
-189
-189
-189
-190
-189
-190
-190
-190
-189
-190
-190
-190
-190
-191
-191
-191
-191
-191
-191
-190
-190
-190
-190
-190
-191
-191
-191
-190
-191
-191
-191
-191
-191
-191
-191
-190
-190
-190
-190
-189
-189
-189
-189
-189
-189
-188
-188
-188
-187
-187
-187
-187
-187
-186
-185
-185
-186
-186
-185
-184
-184
-184
-183
-183
-182
-182
-181
-180
-180
-179
-178
-178
-177
-176
-176
-174
-174
-173
-173
-171
-171
-170
-169
-169
-168
-167
-166
-166
-165
-164
-164
-162
-162
-162
-161
-161
-161
-160
-160
-160
-161
-161
-161
-161
-162
-163
-163
-164
-165
-165
-165
-166
-167
-167
-168
-169
-170
-171
-173
-172
-173
-175
-176
-177
-178
-180
-180
-180
-182
-183
-184
-185
-185
-186
-187
-187
-188
-188
-188
-187
-188
-188
-188
-188
-187
-187
-187
-186
-186
-185
-185
-185
-185
-185
-185
-187
-187
-188
-189
-189
-190
-192
-192
-193
-195
-195
-196
-197
-198
-199
-199
-200
-200
-201
-201
-201
-202
-202
-202
-202
-202
-201
-202
-202
-201
-200
-200
-200
-200
-199
-198
-198
-197
-197
-197
-197
-197
-196
-196
-196
-195
-195
-196
-196
-196
-196
-196
-197
-197
-197
-198
-197
-197
-198
-198
-199
-199
-200
-200
-200
-200
-201
-201
-200
-200
-200
-200
-198
-198
-197
-196
-195
-194
-192
-191
-189
-187
-186
-184
-182
-180
-177
-174
-172
-168
-164
-160
-155
-150
-144
-139
-133
-127
-121
-114
-107
-101
-95
-89
-83
-79
-74
-71
-69
-68
-68
-70
-74
-78
-85
-93
-103
-113
-126
-139
-155
-173
-191
-209
-229
-249
-270
-290
-310
-330
-349
-367
-384
-400
-416
-428
-440
-451
-460
-466
-472
-475
-478
-478
-476
-473
-470
-464
-459
-452
-445
-437
-428
-420
-410
-400
-391
-380
-371
-361
-352
-343
-334
-325
-316
-307
-299
-292
-284
-276
-270
-263
-258
-251
-246
-241
-235
-231
-227
-222
-219
-216
-213
-210
-208
-206
-204
-203
-202
-200
-199
-198
-198
-197
-196
-196
-196
-195
-196
-195
-196
-196
-196
-196
-196
-196
-196
-197
-197
-197
-197
-197
-196
-197
-196
-196
-196
-196
-196
-196
-196
-196
-196
-196
-195
-195
-195
-195
-195
-194
-194
-194
-194
-193
-193
-193
-192
-191
-191
-190
-190
-190
-189
-189
-189
-189
-189
-189
-188
-188
-189
-189
-188
-188
-188
-188
-188
-188
-188
-188
-189
-189
-190
-190
-190
-191
-191
-190
-190
-191
-191
-192
-191
-191
-191
-191
-191
-190
-190
-190
-190
-190
-189
-189
-188
-188
-188
-188
-187
-187
-186
-186
-186
-186
-186
-186
-185
-185
-185
-184
-184
-184
-185
-184
-184
-183
-183
-183
-183
-184
-183
-182
-182
-181
-181
-181
-180
-180
-180
-179
-179
-178
-178
-178
-177
-177
-177
-177
-177
-176
-176
-175
-175
-174
-174
-172
-172
-171
-171
-170
-169
-169
-169
-168
-167
-165
-165
-164
-163
-162
-161
-160
-159
-157
-157
-155
-154
-153
-152
-151
-150
-149
-149
-147
-146
-145
-144
-144
-144
-143
-142
-142
-142
-141
-141
-141
-140
-140
-139
-139
-138
-139
-139
-138
-137
-137
-137
-137
-136
-136
-136
-136
-134
-134
-134
-134
-135
-135
-134
-134
-134
-134
-134
-134
-134
-134
-135
-134
-135
-135
-136
-136
-136
-136
-137
-137
-137
-138
-139
-139
-140
-141
-141
-141
-141
-142
-143
-144
-144
-145
-145
-147
-147
-147
-148
-148
-148
-149
-149
-151
-151
-151
-151
-152
-152
-153
-153
-154
-154
-155
-155
-156
-156
-156
-156
-157
-157
-157
-157
-159
-159
-160
-159
-160
-161
-162
-162
-163
-163
-164
-165
-165
-166
-167
-168
-168
-169
-169
-171
-172
-172
-173
-174
-174
-174
-174
-175
-176
-176
-176
-177
-178
-178
-178
-178
-178
-178
-178
-178
-179
-179
-180
-180
-180
-180
-180
-180
-180
-181
-180
-181
-181
-181
-181
-181
-181
-181
-183
-183
-183
-183
-184
-184
-184
-184
-185
-185
-185
-186
-185
-186
-186
-185
-185
-185
-185
-185
-185
-185
-185
-185
-185
-185
-184
-185
-185
-185
-185
-185
-186
-186
-186
-185
-186
-186
-185
-185
-185
-185
-184
-184
-184
-184
-183
-182
-182
-182
-182
-182
-182
-182
-182
-182
-182
-182
-182
-183
-183
-183
-184
-184
-185
-185
-185
-185
-186
-186
-187
-187
-188
-187
-188
-187
-187
-187
-187
-187
-187
-186
-186
-186
-186
-186
-185
-185
-184
-184
-184
-184
-184
-184
-184
-183
-184
-184
-184
-184
-184
-184
-185
-185
-185
-186
-187
-186
-186
-187
-188
-188
-188
-189
-190
-189
-190
-190
-190
-189
-189
-189
-189
-189
-189
-189
-188
-188
-188
-187
-188
-187
-187
-186
-186
-186
-186
-186
-186
-185
-185
-185
-186
-186
-187
-187
-187
-188
-188
-188
-190
-190
-192
-192
-192
-193
-193
-193
-193
-193
-193
-194
-194
-194
-194
-193
-194
-194
-194
-194
-194
-194
-195
-194
-194
-194
-194
-194
-194
-194
-194
-195
-195
-194
-195
-195
-195
-195
-194
-194
-195
-194
-194
-194
-194
-194
-193
-193
-193
-193
-193
-194
-194
-193
-193
-193
-193
-193
-194
-193
-195
-195
-195
-195
-195
-196
-195
-196
-196
-196
-196
-197
-196
-196
-197
-197
-196
-197
-197
-196
-197
-197
-196
-196
-196
-196
-195
-195
-195
-195
-195
-194
-193
-193
-193
-193
-191
-191
-191
-191
-190
-189
-188
-188
-187
-186
-186
-184
-184
-184
-183
-183
-182
-181
-181
-180
-180
-179
-179
-179
-179
-178
-178
-177
-177
-176
-176
-176
-176
-175
-174
-174
-174
-173
-174
-173
-173
-173
-173
-172
-172
-173
-172
-172
-172
-172
-172
-172
-172
-173
-173
-173
-173
-173
-174
-175
-175
-176
-175
-175
-177
-177
-178
-178
-179
-180
-181
-182
-182
-183
-183
-184
-185
-186
-186
-187
-188
-189
-190
-191
-192
-193
-194
-194
-194
-195
-195
-195
-196
-196
-197
-197
-198
-198
-198
-199
-199
-199
-200
-199
-200
-199
-200
-201
-201
-201
-201
-201
-201
-201
-200
-200
-202
-202
-202
-201
-201
-202
-202
-203
-203
-205
-205
-205
-206
-206
-206
-207
-206
-207
-207
-207
-207
-208
-208
-208
-208
-207
-208
-207
-207
-207
-206
-206
-206
-206
-205
-205
-205
-204
-204
-204
-204
-203
-203
-203
-203
-203
-203
-204
-204
-204
-204
-204
-204
-203
-204
-204
-203
-203
-203
-202
-201
-201
-200
-199
-197
-196
-194
-194
-192
-189
-188
-185
-181
-178
-174
-170
-165
-160
-154
-148
-142
-135
-129
-122
-115
-109
-103
-96
-92
-87
-83
-80
-77
-77
-77
-79
-82
-87
-92
-100
-109
-120
-134
-148
-164
-181
-199
-219
-239
-258
-279
-299
-319
-338
-357
-375
-392
-408
-423
-436
-448
-458
-466
-474
-478
-481
-483
-483
-482
-479
-475
-471
-465
-458
-451
-443
-435
-426
-417
-408
-399
-390
-381
-371
-362
-353
-345
-336
-327
-319
-310
-302
-294
-287
-279
-273
-266
-260
-255
-250
-245
-240
-236
-232
-228
-225
-222
-219
-218
-216
-214
-214
-212
-211
-211
-210
-209
-209
-208
-208
-208
-208
-207
-207
-207
-207
-206
-207
-207
-207
-207
-206
-206
-205
-205
-205
-204
-204
-204
-204
-203
-203
-203
-203
-203
-202
-202
-201
-201
-201
-201
-201
-201
-201
-200
-200
-200
-200
-200
-199
-199
-199
-200
-200
-201
-200
-200
-200
-201
-201
-200
-201
-200
-200
-200
-200
-200
-199
-199
-199
-198
-198
-198
-198
-198
-197
-197
-198
-198
-197
-197
-197
-197
-197
-197
-197
-197
-197
-197
-197
-197
-198
-198
-198
-198
-198
-197
-197
-197
-197
-198
-198
-197
-197
-196
-197
-196
-196
-195
-195
-194
-194
-194
-194
-193
-193
-191
-191
-191
-190
-190
-190
-190
-189
-189
-188
-187
-187
-187
-186
-187
-187
-187
-187
-186
-186
-186
-186
-186
-186
-186
-186
-184
-183
-182
-182
-181
-180
-179
-178
-176
-176
-174
-173
-172
-171
-169
-169
-167
-167
-166
-165
-164
-163
-163
-161
-161
-160
-160
-158
-158
-157
-156
-156
-154
-154
-153
-152
-151
-151
-150
-149
-148
-147
-146
-146
-144
-144
-144
-143
-142
-141
-140
-140
-140
-139
-138
-138
-138
-138
-138
-137
-137
-136
-136
-136
-137
-136
-136
-136
-136
-137
-136
-137
-137
-136
-137
-137
-137
-138
-137
-138
-137
-137
-137
-137
-137
-137
-137
-138
-138
-138
-138
-138
-140
-140
-140
-140
-142
-142
-143
-144
-145
-146
-146
-148
-148
-149
-149
-150
-151
-151
-152
-152
-152
-153
-153
-154
-154
-155
-155
-155
-155
-156
-156
-156
-157
-158
-158
-159
-159
-161
-161
-162
-163
-163
-164
-165
-165
-166
-167
-169
-169
-171
-172
-172
-174
-175
-175
-177
-178
-179
-179
-180
-180
-181
-182
-183
-183
-184
-185
-185
-185
-185
-185
-185
-185
-185
-185
-185
-185
-185
-185
-186
-186
-187
-187
-187
-187
-188
-188
-189
-189
-190
-190
-191
-191
-192
-192
-192
-192
-194
-193
-193
-193
-193
-193
-193
-193
-194
-193
-194
-194
-193
-193
-193
-193
-193
-193
-193
-193
-193
-193
-194
-194
-193
-194
-194
-194
-195
-194
-194
-194
-194
-194
-193
-193
-193
-193
-192
-193
-193
-193
-193
-193
-193
-193
-193
-193
-193
-193
-195
-194
-194
-194
-194
-193
-193
-194
-194
-194
-194
-194
-193
-193
-193
-192
-193
-193
-192
-193
-194
-194
-194
-193
-194
-194
-194
-194
-194
-194
-195
-195
-196
-196
-196
-195
-195
-196
-196
-196
-196
-196
-196
-195
-195
-195
-195
-195
-194
-195
-195
-194
-194
-194
-194
-193
-193
-193
-193
-193
-193
-193
-193
-193
-192
-192
-192
-192
-192
-192
-192
-192
-192
-192
-192
-193
-193
-193
-193
-194
-193
-193
-194
-194
-194
-194
-194
-195
-195
-195
-195
-196
-196
-195
-196
-196
-196
-197
-197
-198
-197
-197
-198
-198
-198
-198
-199
-199
-199
-199
-200
-200
-201
-201
-200
-201
-201
-201
-202
-202
-201
-201
-201
-201
-201
-201
-200
-200
-200
-200
-200
-200
-200
-200
-199
-199
-199
-199
-199
-200
-200
-200
-200
-200
-200
-201
-201
-201
-201
-202
-202
-202
-202
-202
-202
-202
-202
-202
-202
-202
-202
-202
-201
-201
-201
-200
-200
-200
-200
-200
-199
-199
-199
-199
-199
-199
-199
-199
-198
-199
-198
-198
-198
-198
-197
-197
-196
-196
-195
-195
-195
-194
-194
-194
-192
-192
-192
-191
-191
-190
-190
-189
-189
-188
-188
-188
-187
-187
-186
-186
-185
-185
-185
-183
-182
-183
-182
-181
-180
-179
-179
-178
-178
-177
-176
-175
-175
-175
-174
-174
-173
-173
-173
-173
-173
-173
-173
-173
-173
-174
-175
-175
-175
-176
-177
-177
-178
-178
-180
-180
-181
-182
-183
-184
-185
-186
-187
-188
-189
-189
-191
-192
-192
-193
-194
-194
-195
-194
-195
-195
-195
-195
-196
-196
-196
-196
-196
-195
-196
-196
-196
-196
-197
-197
-198
-198
-198
-199
-200
-200
-201
-202
-202
-202
-203
-203
-204
-204
-205
-205
-205
-206
-207
-206
-207
-206
-207
-207
-206
-207
-206
-207
-207
-208
-207
-208
-207
-207
-209
-208
-208
-209
-209
-209
-209
-210
-210
-210
-209
-209
-210
-210
-210
-210
-210
-210
-210
-209
-209
-208
-208
-207
-207
-206
-206
-206
-204
-205
-205
-204
-204
-203
-203
-203
-202
-203
-202
-201
-202
-202
-202
-201
-201
-201
-200
-198
-198
-196
-196
-194
-193
-191
-190
-188
-186
-184
-181
-178
-174
-170
-165
-160
-154
-147
-141
-134
-126
-118
-110
-104
-96
-88
-82
-75
-69
-64
-61
-57
-57
-57
-57
-61
-67
-72
-82
-91
-104
-117
-134
-151
-170
-190
-210
-232
-255
-276
-298
-320
-341
-361
-381
-399
-417
-433
-448
-461
-472
-480
-486
-492
-495
-496
-496
-494
-492
-488
-482
-476
-469
-462
-453
-445
-436
-426
-417
-407
-397
-387
-377
-368
-358
-349
-340
-330
-321
-312
-304
-295
-287
-280
-272
-265
-258
-252
-246
-240
-234
-230
-225
-221
-217
-213
-210
-207
-205
-202
-200
-199
-198
-197
-196
-195
-194
-194
-193
-192
-193
-193
-193
-193
-193
-194
-195
-194
-194
-195
-195
-195
-195
-195
-195
-195
-195
-194
-194
-194
-193
-193
-192
-192
-192
-192
-191
-190
-191
-190
-189
-189
-189
-188
-189
-189
-188
-189
-189
-189
-189
-189
-190
-190
-191
-190
-191
-191
-191
-191
-191
-191
-191
-191
-191
-190
-191
-190
-190
-190
-189
-189
-188
-188
-187
-187
-187
-186
-185
-185
-185
-185
-185
-185
-185
-185
-186
-185
-185
-185
-185
-185
-186
-187
-186
-186
-187
-186
-186
-186
-186
-187
-186
-186
-186
-186
-186
-185
-185
-184
-184
-183
-183
-183
-182
-182
-182
-181
-181
-181
-180
-180
-180
-179
-179
-178
-177
-177
-176
-176
-176
-175
-174
-173
-173
-173
-172
-171
-172
-171
-171
-171
-172
-172
-172
-172
-171
-171
-170
-171
-170
-170
-170
-169
-168
-167
-167
-165
-165
-164
-163
-162
-162
-160
-159
-159
-157
-156
-154
-153
-151
-151
-149
-149
-148
-147
-146
-146
-144
-144
-143
-143
-142
-141
-141
-141
-141
-139
-139
-138
-138
-138
-138
-137
-137
-138
-137
-138
-136
-136
-136
-136
-135
-136
-135
-134
-134
-134
-134
-134
-134
-133
-133
-133
-132
-133
-133
-132
-132
-133
-133
-134
-134
-135
-136
-135
-135
-136
-136
-137
-137
-137
-139
-138
-140
-140
-141
-141
-142
-143
-144
-144
-146
-146
-146
-147
-147
-147
-148
-149
-149
-150
-150
-151
-153
-153
-153
-153
-154
-154
-154
-154
-155
-154
-154
-154
-155
-155
-154
-154
-155
-155
-154
-155
-155
-155
-155
-156
-155
-156
-157
-158
-158
-159
-160
-161
-161
-162
-162
-163
-164
-165
-165
-167
-167
-168
-169
-170
-170
-170
-170
-171
-171
-172
-173
-173
-173
-172
-172
-172
-172
-172
-172
-173
-173
-173
-173
-173
-173
-173
-173
-173
-173
-174
-174
-174
-175
-175
-176
-176
-175
-176
-176
-176
-176
-177
-177
-177
-177
-177
-177
-177
-178
-177
-178
-178
-177
-177
-177
-177
-177
-177
-177
-177
-177
-177
-178
-178
-177
-178
-178
-178
-177
-178
-178
-178
-178
-177
-177
-177
-178
-178
-178
-178
-178
-177
-177
-176
-175
-175
-175
-175
-175
-174
-175
-175
-174
-174
-174
-174
-174
-172
-173
-173
-172
-172
-172
-172
-173
-172
-172
-173
-173
-174
-174
-174
-174
-175
-174
-174
-175
-175
-175
-175
-175
-175
-176
-176
-176
-176
-176
-176
-176
-176
-175
-175
-175
-175
-175
-174
-173
-174
-174
-174
-174
-174
-175
-175
-174
-175
-175
-175
-175
-176
-176
-176
-177
-177
-177
-177
-177
-178
-178
-178
-178
-178
-178
-178
-178
-178
-178
-178
-178
-178
-178
-178
-178
-178
-177
-177
-178
-177
-177
-176
-177
-177
-176
-176
-176
-176
-176
-175
-175
-176
-176
-177
-177
-177
-177
-176
-176
-176
-176
-177
-176
-177
-177
-177
-177
-176
-177
-177
-178
-178
-178
-178
-177
-178
-178
-179
-179
-179
-179
-180
-180
-181
-181
-182
-182
-182
-183
-183
-183
-184
-183
-184
-184
-183
-183
-183
-183
-183
-183
-182
-182
-181
-181
-182
-181
-180
-181
-180
-180
-180
-180
-180
-179
-178
-178
-178
-177
-178
-177
-177
-177
-176
-176
-175
-176
-175
-174
-174
-174
-173
-173
-172
-172
-171
-169
-169
-168
-167
-166
-165
-164
-164
-163
-162
-161
-161
-160
-159
-158
-158
-158
-158
-157
-157
-157
-157
-157
-157
-157
-157
-157
-157
-158
-157
-157
-157
-158
-158
-159
-159
-159
-159
-159
-160
-159
-160
-161
-161
-162
-162
-162
-162
-163
-164
-165
-166
-166
-167
-168
-168
-168
-169
-169
-169
-169
-169
-170
-170
-170
-171
-171
-171
-170
-171
-171
-171
-172
-173
-173
-174
-174
-175
-175
-176
-176
-178
-178
-179
-179
-180
-181
-182
-182
-184
-184
-184
-185
-185
-186
-187
-187
-188
-187
-187
-187
-187
-187
-187
-188
-188
-188
-188
-188
-188
-188
-188
-188
-189
-189
-190
-190
-190
-190
-189
-190
-190
-189
-189
-188
-188
-187
-187
-187
-186
-186
-185
-184
-184
-184
-184
-184
-184
-183
-183
-183
-184
-183
-183
-184
-183
-184
-184
-184
-184
-183
-183
-182
-181
-181
-180
-179
-178
-177
-176
-174
-173
-172
-169
-168
-166
-164
-161
-158
-155
-151
-146
-141
-135
-128
-121
-112
-105
-96
-86
-76
-67
-56
-46
-36
-27
-19
-11
-4
1
4
7
6
4
-1
-9
-17
-29
-44
-59
-77
-98
-120
-144
-169
-194
-221
-248
-275
-301
-327
-352
-376
-399
-420
-440
-456
-471
-483
-492
-500
-505
-508
-510
-509
-507
-503
-498
-492
-484
-476
-466
-457
-448
-437
-427
-416
-406
-394
-383
-372
-361
-350
-340
-330
-319
-309
-301
-291
-282
-273
-265
-257
-250
-242
-237
-231
-225
-220
-215
-210
-206
-203
-200
-197
-195
-192
-191
-189
-188
-186
-185
-184
-184
-183
-183
-182
-182
-181
-181
-181
-182
-181
-182
-181
-182
-181
-181
-181
-180
-180
-180
-180
-180
-180
-179
-178
-178
-178
-177
-177
-177
-176
-176
-175
-175
-175
-175
-174
-174
-174
-174
-174
-174
-173
-174
-173
-173
-172
-172
-172
-171
-171
-170
-170
-170
-169
-169
-169
-169
-168
-168
-168
-168
-168
-168
-168
-169
-169
-169
-169
-170
-169
-169
-169
-170
-170
-171
-171
-171
-171
-170
-170
-170
-170
-170
-169
-169
-169
-169
-168
-168
-168
-168
-167
-167
-167
-167
-167
-167
-167
-167
-167
-167
-168
-167
-168
-168
-169
-169
-169
-169
-169
-169
-169
-170
-170
-170
-170
-170
-170
-169
-169
-169
-168
-168
-167
-167
-167
-165
-164
-164
-163
-162
-162
-161
-160
-159
-160
-159
-158
-157
-157
-156
-156
-155
-155
-154
-154
-153
-153
-152
-152
-151
-150
-150
-148
-148
-147
-146
-146
-145
-144
-143
-142
-141
-141
-140
-139
-139
-137
-136
-136
-135
-135
-134
-134
-133
-133
-132
-131
-131
-131
-130
-129
-128
-128
-128
-127
-126
-126
-126
-124
-124
-124
-124
-122
-123
-122
-122
-121
-121
-120
-121
-120
-121
-121
-121
-122
-122
-122
-122
-122
-122
-123
-123
-124
-124
-125
-125
-126
-126
-126
-127
-127
-127
-128
-129
-129
-129
-130
-131
-131
-131
-131
-133
-133
-134
-134
-135
-136
-136
-136
-137
-138
-139
-139
-140
-141
-140
-141
-142
-142
-143
-143
-144
-144
-144
-145
-146
-147
-147
-148
-148
-149
-150
-151
-152
-153
-154
-154
-155
-155
-156
-156
-157
-158
-158
-159
-159
-159
-159
-160
-161
-161
-162
-162
-163
-163
-164
-164
-165
-165
-166
-167
-168
-169
-169
-170
-171
-173
-173
-174
-175
-176
-177
-178
-178
-178
-179
-180
-180
-180
-181
-181
-182
-182
-183
-182
-182
-182
-182
-183
-183
-183
-184
-184
-184
-185
-185
-185
-185
-185
-185
-185
-186
-186
-185
-186
-186
-186
-186
-186
-186
-186
-186
-187
-186
-186
-186
-186
-186
-186
-185
-185
-185
-185
-186
-186
-187
-187
-187
-187
-187
-186
-186
-187
-187
-186
-186
-186
-185
-185
-185
-185
-185
-186
-185
-185
-185
-185
-185
-185
-185
-185
-186
-186
-186
-185
-185
-185
-185
-185
-185
-185
-185
-185
-184
-185
-185
-184
-184
-184
-184
-184
-185
-185
-185
-184
-184
-185
-185
-185
-184
-184
-184
-184
-184
-185
-185
-184
-184
-184
-183
-184
-184
-183
-183
-183
-183
-183
-182
-183
-181
-181
-182
-182
-182
-182
-182
-181
-182
-182
-182
-182
-182
-182
-183
-183
-183
-183
-183
-183
-184
-184
-184
-184
-184
-185
-185
-184
-184
-184
-185
-185
-186
-186
-186
-186
-187
-187
-187
-187
-188
-188
-187
-188
-188
-190
-190
-190
-190
-190
-191
-192
-192
-192
-193
-193
-194
-194
-194
-194
-194
-194
-195
-195
-195
-195
-195
-195
-195
-196
-196
-196
-197
-196
-196
-196
-196
-195
-195
-195
-195
-195
-195
-195
-194
-194
-194
-195
-194
-194
-195
-195
-195
-194
-194
-194
-194
-195
-195
-194
-194
-193
-193
-192
-193
-192
-192
-192
-191
-190
-190
-190
-190
-190
-189
-188
-188
-188
-188
-187
-187
-187
-186
-186
-185
-185
-184
-184
-183
-182
-181
-180
-179
-179
-177
-177
-175
-174
-173
-172
-172
-171
-171
-171
-170
-170
-171
-171
-171
-171
-172
-173
-174
-175
-175
-176
-177
-178
-179
-179
-181
-181
-181
-183
-183
-184
-185
-185
-186
-186
-187
-187
-188
-188
-189
-190
-190
-191
-191
-192
-191
-192
-193
-193
-193
-194
-194
-194
-195
-196
-196
-197
-197
-197
-197
-198
-199
-199
-199
-200
-201
-202
-202
-203
-204
-204
-205
-206
-207
-208
-208
-209
-210
-211
-212
-213
-212
-213
-214
-214
-215
-215
-215
-215
-216
-217
-217
-217
-216
-218
-218
-217
-218
-218
-218
-219
-219
-219
-219
-218
-218
-218
-218
-218
-219
-219
-219
-219
-218
-218
-219
-218
-218
-219
-218
-218
-219
-219
-218
-218
-218
-218
-217
-217
-217
-217
-217
-217
-217
-217
-217
-217
-216
-216
-216
-216
-215
-214
-213
-213
-212
-212
-210
-209
-208
-207
-205
-204
-201
-199
-196
-194
-190
-186
-181
-175
-169
-162
-153
-145
-136
-127
-117
-108
-98
-87
-77
-68
-58
-50
-42
-36
-30
-26
-25
-25
-27
-31
-38
-47
-58
-71
-87
-104
-125
-147
-171
-197
-222
-251
-277
-306
-332
-359
-386
-410
-434
-456
-476
-495
-511
-525
-538
-547
-555
-559
-562
-563
-562
-558
-554
-549
-542
-533
-525
-515
-505
-494
-484
-473
-462
-450
-439
-427
-416
-405
-395
-383
-373
-363
-353
-343
-333
-325
-316
-308
-299
-292
-285
-278
-273
-267
-262
-258
-253
-249
-247
-244
-241
-239
-237
-236
-234
-233
-233
-233
-232
-232
-231
-230
-230
-230
-229
-230
-230
-230
-230
-230
-229
-229
-229
-229
-229
-229
-228
-228
-228
-228
-228
-228
-228
-227
-227
-227
-226
-226
-226
-225
-225
-225
-226
-226
-225
-225
-225
-225
-224
-225
-225
-225
-224
-224
-224
-225
-225
-225
-225
-225
-224
-224
-225
-225
-225
-224
-224
-224
-224
-224
-224
-223
-223
-223
-223
-223
-223
-223
-223
-223
-223
-223
-223
-223
-223
-223
-223
-223
-223
-223
-222
-222
-222
-223
-223
-223
-223
-222
-222
-222
-221
-221
-221
-221
-220
-220
-220
-220
-219
-219
-219
-219
-219
-219
-219
-219
-219
-219
-219
-218
-219
-219
-219
-219
-219
-219
-219
-219
-218
-218
-217
-217
-217
-216
-216
-214
-214
-213
-213
-212
-211
-211
-211
-211
-210
-210
-209
-209
-208
-207
-207
-206
-206
-205
-204
-203
-203
-203
-202
-201
-200
-200
-198
-198
-197
-196
-196
-194
-194
-192
-191
-191
-190
-189
-187
-187
-186
-185
-185
-183
-183
-182
-182
-181
-180
-179
-178
-177
-177
-175
-174
-174
-173
-173
-172
-172
-171
-170
-170
-170
-170
-169
-169
-169
-169
-169
-168
-168
-169
-168
-168
-169
-169
-169
-169
-169
-169
-169
-169
-169
-169
-169
-170
-170
-171
-171
-171
-171
-172
-172
-172
-173
-174
-174
-175
-175
-177
-177
-178
-178
-179
-179
-181
-181
-182
-183
-183
-183
-183
-185
-185
-185
-186
-186
-186
-187
-187
-187
-187
-187
-188
-189
-189
-190
-190
-190
-191
-191
-192
-192
-194
-194
-195
-195
-196
-197
-198
-199
-200
-201
-202
-203
-204
-205
-206
-206
-207
-207
-208
-209
-209
-211
-211
-212
-213
-213
-214
-215
-216
-217
-218
-218
-219
-221
-221
-222
-224
-224
-225
-225
-226
-226
-226
-227
-227
-228
-228
-229
-229
-230
-230
-230
-231
-231
-232
-232
-234
-234
-235
-235
-235
-235
-236
-236
-237
-237
-237
-237
-237
-237
-238
-237
-237
-237
-237
-237
-237
-236
-236
-236
-235
-235
-235
-235
-234
-234
-233
-234
-234
-234
-233
-234
-234
-233
-234
-233
-233
-234
-233
-233
-234
-233
-233
-233
-233
-234
-234
-234
-234
-234
-234
-234
-235
-235
-235
-236
-236
-236
-235
-235
-236
-235
-235
-234
-235
-235
-235
-235
-235
-235
-234
-234
-235
-234
-234
-234
-234
-234
-235
-234
-234
-234
-233
-233
-233
-234
-234
-234
-234
-234
-233
-233
-233
-234
-234
-234
-235
-234
-234
-234
-234
-234
-234
-234
-235
-235
-235
-235
-237
-236
-237
-237
-238
-238
-238
-239
-239
-238
-239
-239
-240
-240
-240
-240
-240
-239
-240
-241
-241
-240
-240
-241
-241
-242
-241
-241
-242
-242
-242
-242
-242
-242
-242
-242
-242
-242
-242
-241
-242
-242
-243
-243
-243
-243
-244
-243
-244
-244
-244
-245
-245
-245
-245
-246
-246
-246
-246
-247
-247
-247
-248
-248
-248
-248
-248
-248
-249
-248
-249
-249
-249
-250
-250
-249
-249
-250
-250
-251
-251
-250
-251
-251
-251
-251
-251
-251
-251
-250
-250
-250
-250
-250
-249
-249
-249
-248
-248
-248
-248
-248
-246
-247
-247
-247
-247
-247
-247
-247
-247
-247
-248
-248
-248
-248
-249
-250
-250
-250
-251
-252
-252
-253
-253
-253
-254
-254
-254
-254
-254
-254
-254
-254
-253
-253
-252
-252
-251
-250
-250
-249
-248
-247
-246
-245
-245
-244
-243
-242
-242
-241
-240
-239
-239
-238
-238
-237
-237
-236
-235
-235
-234
-233
-233
-232
-231
-232
-230
-230
-230
-229
-228
-228
-227
-227
-227
-226
-226
-226
-227
-226
-226
-226
-227
-226
-227
-227
-227
-227
-227
-228
-228
-228
-228
-228
-229
-229
-230
-232
-233
-233
-234
-235
-237
-239
-240
-241
-242
-244
-245
-246
-247
-248
-249
-250
-250
-251
-251
-251
-252
-252
-252
-253
-253
-253
-252
-253
-253
-252
-252
-252
-252
-252
-252
-252
-252
-253
-254
-254
-255
-255
-255
-256
-257
-257
-258
-258
-260
-260
-261
-262
-262
-262
-263
-264
-264
-264
-265
-265
-265
-265
-266
-266
-266
-266
-267
-266
-266
-266
-267
-265
-265
-265
-266
-266
-265
-265
-265
-265
-265
-265
-264
-264
-263
-263
-264
-263
-263
-263
-262
-262
-262
-262
-261
-261
-261
-261
-261
-261
-261
-262
-262
-261
-262
-262
-262
-262
-262
-262
-262
-262
-261
-260
-259
-258
-256
-256
-254
-252
-250
-248
-246
-242
-240
-235
-231
-225
-220
-212
-205
-197
-189
-180
-171
-161
-153
-143
-134
-126
-117
-109
-102
-96
-91
-89
-88
-89
-90
-95
-102
-110
-120
-133
-148
-166
-185
-207
-229
-254
-279
-305
-331
-356
-381
-407
-432
-456
-477
-498
-517
-534
-549
-563
-573
-581
-588
-592
-594
-594
-593
-589
-583
-577
-569
-562
-552
-542
-531
-520
-509
-498
-485
-474
-463
-451
-440
-429
-417
-408
-397
-387
-377
-367
-359
-351
-344
-336
-329
-323
-316
-310
-306
-300
-295
-292
-287
-284
-281
-279
-276
-275
-273
-271
-269
-269
-268
-268
-267
-267
-267
-266
-266
-266
-266
-266
-266
-266
-265
-266
-266
-266
-265
-265
-265
-265
-265
-264
-264
-264
-263
-263
-262
-262
-262
-262
-260
-260
-260
-260
-259
-260
-259
-259
-259
-259
-259
-259
-259
-258
-258
-258
-257
-258
-258
-258
-258
-259
-259
-259
-259
-259
-259
-259
-259
-259
-260
-260
-260
-260
-259
-259
-259
-258
-258
-258
-258
-257
-256
-256
-256
-255
-255
-255
-255
-255
-254
-255
-255
-255
-254
-254
-254
-254
-254
-254
-254
-255
-254
-254
-254
-254
-254
-254
-254
-254
-253
-253
-253
-254
-253
-254
-254
-253
-253
-253
-254
-253
-253
-253
-253
-252
-252
-253
-252
-252
-251
-252
-251
-251
-250
-248
-248
-247
-247
-245
-245
-244
-244
-243
-242
-242
-241
-240
-239
-239
-238
-238
-238
-237
-236
-236
-235
-235
-234
-234
-233
-233
-232
-231
-230
-229
-229
-227
-227
-226
-225
-224
-224
-222
-221
-219
-218
-217
-215
-215
-213
-212
-211
-210
-209
-207
-207
-206
-205
-203
-203
-202
-202
-201
-200
-199
-198
-198
-197
-196
-196
-196
-195
-195
-195
-195
-194
-194
-193
-193
-193
-193
-194
-194
-193
-193
-193
-193
-193
-192
-194
-194
-193
-193
-194
-194
-194
-194
-194
-194
-194
-195
-194
-194
-194
-194
-194
-194
-194
-194
-193
-194
-194
-194
-195
-195
-196
-196
-196
-197
-198
-198
-200
-200
-201
-201
-202
-203
-204
-204
-205
-206
-207
-207
-209
-209
-210
-210
-211
-212
-213
-214
-215
-215
-216
-216
-218
-218
-219
-220
-221
-221
-222
-223
-225
-225
-226
-227
-227
-229
-230
-231
-232
-233
-233
-233
-235
-235
-236
-237
-238
-238
-240
-241
-241
-242
-242
-244
-244
-245
-246
-247
-248
-248
-249
-250
-250
-251
-252
-252
-253
-254
-254
-254
-254
-254
-255
-256
-256
-256
-256
-257
-257
-257
-257
-258
-258
-258
-258
-258
-258
-258
-259
-260
-260
-260
-260
-260
-260
-261
-261
-261
-261
-261
-261
-261
-261
-261
-261
-260
-260
-260
-260
-260
-260
-260
-260
-260
-260
-261
-261
-261
-260
-261
-261
-260
-260
-260
-260
-260
-260
-259
-258
-258
-258
-258
-256
-256
-256
-256
-256
-256
-255
-255
-255
-255
-254
-254
-254
-254
-254
-254
-254
-254
-254
-255
-255
-255
-255
-255
-255
-255
-256
-255
-256
-255
-255
-255
-254
-254
-255
-255
-255
-255
-255
-254
-254
-254
-254
-254
-253
-254
-254
-253
-253
-253
-253
-253
-253
-254
-254
-254
-254
-255
-255
-255
-255
-255
-256
-256
-257
-257
-258
-258
-258
-258
-258
-258
-258
-258
-258
-258
-258
-258
-258
-258
-258
-258
-258
-259
-259
-260
-259
-260
-260
-260
-260
-261
-261
-261
-262
-262
-262
-263
-263
-263
-264
-264
-264
-264
-265
-266
-266
-266
-266
-266
-266
-266
-266
-266
-266
-266
-267
-266
-267
-267
-267
-267
-267
-267
-267
-268
-268
-268
-268
-268
-268
-269
-269
-268
-268
-268
-268
-269
-269
-269
-269
-269
-269
-269
-270
-270
-270
-270
-269
-270
-270
-270
-270
-270
-269
-270
-269
-270
-270
-270
-269
-269
-269
-270
-269
-269
-268
-269
-268
-268
-268
-268
-268
-267
-267
-267
-266
-266
-267
-267
-267
-267
-267
-268
-268
-269
-269
-269
-270
-270
-270
-270
-270
-271
-271
-271
-271
-273
-273
-273
-272
-272
-273
-273
-273
-273
-274
-273
-273
-272
-271
-271
-270
-270
-269
-268
-268
-267
-266
-266
-264
-264
-263
-262
-262
-261
-260
-260
-259
-258
-258
-258
-256
-256
-255
-254
-254
-253
-253
-252
-252
-250
-250
-249
-250
-248
-248
-247
-246
-245
-245
-244
-244
-244
-244
-242
-243
-243
-243
-243
-243
-243
-243
-245
-244
-245
-246
-246
-247
-247
-248
-248
-248
-249
-249
-250
-250
-251
-252
-253
-254
-254
-255
-256
-256
-258
-259
-260
-261
-262
-263
-264
-265
-266
-267
-267
-268
-269
-269
-270
-270
-271
-271
-272
-272
-272
-272
-272
-271
-271
-271
-272
-272
-272
-273
-272
-272
-274
-273
-274
-274
-276
-276
-277
-277
-278
-279
-279
-279
-279
-279
-280
-280
-281
-281
-281
-282
-282
-282
-282
-282
-282
-282
-282
-282
-283
-283
-284
-284
-283
-283
-283
-283
-283
-283
-283
-283
-283
-284
-284
-283
-283
-283
-283
-282
-283
-283
-282
-282
-281
-281
-281
-280
-280
-280
-279
-279
-279
-279
-279
-278
-278
-279
-277
-277
-277
-277
-276
-276
-276
-275
-274
-273
-272
-271
-269
-268
-267
-266
-263
-261
-259
-256
-253
-249
-244
-240
-234
-228
-221
-214
-206
-199
-191
-182
-174
-166
-159
-152
-145
-140
-134
-130
-127
-126
-127
-129
-131
-137
-144
-152
-164
-177
-192
-209
-228
-248
-270
-292
-315
-337
-361
-384
-407
-430
-451
-470
-490
-507
-524
-538
-550
-560
-569
-575
-579
-582
-583
-582
-579
-575
-570
-564
-557
-549
-540
-532
-522
-512
-502
-492
-482
-471
-462
-451
-441
-431
-421
-412
-403
-393
-385
-376
-368
-360
-354
-346
-340
-334
-328
-324
-318
-314
-309
-305
-301
-298
-296
-293
-291
-288
-286
-286
-284
-284
-282
-281
-281
-281
-280
-280
-280
-281
-280
-281
-282
-282
-282
-283
-283
-284
-285
-285
-285
-285
-285
-285
-285
-285
-284
-284
-284
-285
-284
-284
-284
-284
-284
-283
-283
-282
-282
-283
-282
-283
-283
-283
-283
-283
-283
-281
-281
-281
-281
-281
-281
-280
-279
-279
-279
-279
-278
-278
-278
-278
-279
-279
-278
-278
-277
-277
-278
-278
-278
-277
-278
-278
-278
-278
-278
-279
-279
-279
-279
-279
-280
-280
-280
-279
-279
-279
-279
-279
-278
-277
-277
-277
-276
-276
-276
-276
-274
-274
-273
-274
-273
-273
-273
-273
-273
-272
-272
-272
-272
-271
-272
-271
-271
-271
-271
-271
-271
-271
-271
-271
-270
-270
-270
-269
-269
-268
-268
-268
-267
-267
-266
-266
-266
-266
-265
-265
-265
-265
-264
-264
-264
-263
-262
-261
-260
-260
-258
-258
-257
-257
-255
-253
-253
-252
-251
-249
-249
-247
-246
-246
-245
-244
-242
-241
-240
-238
-237
-236
-235
-234
-233
-232
-232
-231
-230
-229
-229
-228
-227
-226
-226
-226
-225
-224
-224
-222
-222
-222
-221
-220
-220
-220
-220
-219
-218
-218
-218
-218
-217
-217
-217
-218
-218
-217
-217
-218
-218
-219
-218
-218
-218
-219
-219
-220
-220
-220
-220
-221
-221
-221
-222
-223
-223
-223
-223
-223
-223
-223
-224
-224
-224
-224
-225
-226
-227
-227
-227
-227
-229
-230
-230
-231
-231
-231
-231
-232
-232
-233
-234
-234
-235
-236
-236
-237
-237
-238
-239
-239
-240
-241
-242
-243
-243
-244
-244
-245
-245
-246
-247
-247
-248
-249
-249
-249
-250
-250
-250
-251
-251
-252
-253
-253
-254
-254
-254
-255
-255
-256
-256
-257
-258
-259
-260
-261
-262
-263
-263
-264
-265
-265
-267
-267
-268
-268
-269
-269
-271
-271
-271
-272
-273
-273
-274
-275
-275
-275
-276
-276
-277
-277
-278
-278
-278
-278
-278
-279
-279
-279
-279
-279
-279
-279
-280
-280
-280
-279
-279
-279
-278
-278
-279
-279
-278
-278
-278
-277
-277
-276
-276
-276
-276
-275
-275
-276
-276
-275
-275
-275
-275
-276
-276
-275
-276
-276
-275
-276
-276
-275
-275
-276
-275
-275
-275
-275
-275
-275
-275
-275
-275
-274
-275
-275
-275
-275
-274
-274
-274
-274
-274
-274
-274
-275
-275
-275
-275
-275
-276
-276
-276
-276
-275
-277
-276
-276
-275
-275
-275
-276
-276
-275
-275
-275
-275
-275
-276
-276
-276
-276
-276
-277
-277
-276
-276
-277
-277
-277
-277
-277
-278
-277
-276
-277
-277
-277
-277
-277
-277
-277
-277
-278
-277
-278
-278
-277
-277
-276
-276
-276
-276
-276
-276
-276
-277
-277
-278
-277
-278
-278
-278
-279
-279
-279
-280
-280
-279
-280
-280
-280
-281
-281
-280
-280
-282
-282
-282
-282
-281
-281
-282
-281
-281
-282
-280
-280
-280
-280
-280
-280
-280
-280
-280
-279
-279
-280
-280
-280
-280
-280
-281
-281
-282
-282
-282
-283
-283
-283
-284
-284
-284
-285
-284
-284
-284
-283
-284
-284
-283
-283
-283
-283
-283
-283
-283
-282
-282
-282
-282
-281
-281
-282
-282
-282
-282
-282
-282
-281
-281
-281
-281
-281
-281
-281
-281
-280
-280
-280
-280
-279
-279
-279
-279
-278
-279
-279
-279
-279
-280
-280
-280
-281
-281
-282
-282
-283
-283
-284
-284
-285
-285
-285
-285
-285
-286
-286
-286
-286
-286
-286
-285
-285
-285
-284
-284
-284
-283
-283
-283
-283
-283
-283
-284
-284
-284
-284
-284
-283
-283
-283
-284
-283
-283
-283
-283
-283
-282
-282
-281
-281
-280
-280
-279
-278
-278
-277
-276
-275
-275
-274
-274
-273
-272
-272
-271
-269
-269
-268
-268
-266
-265
-265
-264
-264
-263
-262
-262
-261
-260
-260
-260
-259
-259
-259
-259
-259
-258
-258
-258
-258
-259
-259
-259
-258
-259
-260
-260
-260
-261
-262
-263
-263
-263
-264
-264
-265
-265
-266
-267
-268
-269
-270
-271
-271
-272
-273
-274
-275
-275
-276
-277
-278
-280
-280
-281
-281
-282
-282
-282
-282
-282
-282
-283
-283
-283
-283
-283
-283
-283
-283
-284
-284
-284
-285
-285
-285
-286
-287
-287
-288
-288
-288
-289
-289
-290
-291
-292
-292
-292
-293
-294
-295
-295
-295
-295
-296
-296
-297
-297
-296
-296
-296
-296
-296
-295
-295
-294
-294
-293
-293
-293
-292
-292
-292
-291
-291
-290
-290
-289
-289
-289
-288
-289
-289
-289
-289
-289
-289
-289
-289
-289
-289
-290
-290
-290
-289
-289
-290
-289
-289
-289
-289
-288
-288
-287
-287
-286
-286
-284
-284
-283
-282
-280
-279
-278
-275
-273
-271
-268
-265
-260
-256
-252
-247
-240
-234
-227
-219
-212
-204
-196
-188
-182
-174
-167
-160
-155
-149
-146
-142
-141
-140
-142
-145
-150
-155
-164
-173
-185
-199
-215
-232
-251
-271
-291
-313
-335
-358
-379
-402
-423
-444
-464
-483
-501
-517
-533
-546
-558
-568
-576
-583
-587
-590
-590
-589
-587
-583
-578
-572
-565
-557
-548
-540
-531
-521
-511
-501
-491
-480
-470
-459
-449
-438
-428
-419
-409
-399
-390
-381
-373
-364
-356
-350
-343
-336
-330
-324
-320
-315
-311
-308
-304
-301
-299
-296
-294
-293
-292
-291
-289
-289
-289
-288
-287
-287
-286
-287
-286
-285
-286
-285
-285
-285
-285
-285
-284
-284
-284
-284
-284
-284
-283
-283
-283
-283
-283
-283
-282
-282
-282
-281
-281
-281
-281
-281
-280
-280
-279
-279
-280
-279
-279
-279
-279
-278
-279
-278
-277
-277
-278
-277
-278
-277
-277
-277
-276
-275
-275
-274
-274
-274
-272
-272
-272
-272
-272
-271
-271
-271
-271
-271
-271
-272
-272
-271
-271
-271
-271
-271
-272
-271
-271
-272
-272
-272
-272
-272
-272
-272
-271
-272
-271
-271
-270
-270
-269
-269
-269
-268
-268
-267
-267
-267
-266
-266
-266
-266
-265
-265
-265
-264
-265
-265
-265
-264
-265
-264
-264
-263
-263
-263
-263
-262
-262
-262
-262
-261
-261
-261
-261
-260
-260
-260
-260
-259
-260
-260
-259
-260
-260
-258
-258
-258
-257
-257
-256
-255
-255
-254
-253
-252
-252
-251
-250
-249
-247
-246
-245
-244
-243
-241
-239
-239
-238
-237
-235
-234
-233
-232
-231
-230
-229
-228
-228
-227
-227
-226
-226
-225
-225
-224
-223
-222
-222
-222
-222
-222
-221
-221
-220
-219
-220
-219
-219
-218
-217
-216
-216
-215
-215
-214
-213
-213
-213
-212
-213
-213
-212
-212
-213
-212
-213
-213
-214
-214
-214
-215
-215
-216
-216
-216
-216
-217
-218
-219
-219
-220
-220
-221
-220
-221
-222
-223
-223
-223
-224
-224
-224
-226
-226
-226
-226
-227
-227
-227
-228
-228
-228
-228
-228
-229
-229
-229
-229
-230
-229
-230
-230
-230
-230
-230
-230
-231
-232
-232
-233
-234
-234
-235
-236
-237
-238
-239
-240
-240
-241
-241
-241
-242
-243
-244
-244
-244
-245
-245
-245
-245
-245
-245
-245
-245
-245
-247
-247
-247
-247
-247
-248
-248
-248
-248
-249
-250
-250
-250
-251
-252
-252
-253
-253
-253
-253
-254
-254
-254
-254
-253
-253
-253
-253
-253
-252
-252
-252
-252
-252
-251
-250
-250
-251
-250
-251
-251
-251
-252
-252
-252
-253
-253
-253
-253
-253
-253
-253
-254
-255
-254
-254
-254
-255
-254
-255
-255
-255
-254
-254
-255
-254
-254
-254
-253
-253
-253
-254
-254
-254
-254
-254
-253
-253
-252
-253
-252
-252
-252
-251
-251
-251
-250
-250
-250
-250
-249
-249
-249
-249
-249
-248
-249
-249
-250
-249
-249
-249
-249
-249
-249
-249
-250
-250
-250
-251
-251
-251
-251
-251
-251
-251
-253
-253
-253
-254
-253
-253
-254
-254
-253
-254
-253
-253
-253
-253
-252
-252
-253
-251
-251
-251
-250
-249
-249
-249
-249
-248
-247
-248
-247
-247
-247
-247
-247
-246
-246
-247
-247
-247
-248
-248
-249
-249
-250
-250
-251
-251
-251
-252
-252
-254
-254
-254
-254
-255
-256
-256
-257
-256
-257
-257
-257
-257
-257
-257
-257
-256
-256
-256
-256
-255
-255
-255
-255
-254
-253
-254
-254
-254
-254
-253
-253
-254
-254
-254
-255
-255
-255
-255
-255
-255
-256
-255
-254
-254
-254
-254
-255
-255
-254
-254
-254
-254
-253
-254
-254
-254
-254
-253
-253
-253
-253
-254
-254
-253
-254
-254
-254
-254
-254
-254
-255
-255
-255
-255
-256
-256
-256
-256
-256
-255
-255
-255
-255
-255
-255
-255
-255
-254
-254
-254
-254
-254
-254
-254
-254
-255
-254
-254
-254
-254
-254
-255
-255
-255
-256
-255
-257
-257
-256
-256
-257
-256
-257
-257
-257
-255
-255
-254
-254
-253
-253
-252
-251
-250
-249
-249
-248
-248
-246
-245
-245
-244
-243
-242
-242
-242
-241
-240
-240
-239
-239
-237
-236
-236
-234
-233
-233
-232
-232
-230
-230
-230
-229
-228
-227
-227
-226
-225
-224
-224
-224
-224
-224
-224
-224
-224
-225
-224
-224
-224
-224
-225
-226
-226
-226
-227
-227
-227
-228
-228
-228
-229
-229
-229
-230
-230
-231
-232
-232
-233
-234
-235
-235
-237
-237
-238
-238
-239
-239
-240
-240
-241
-241
-242
-242
-242
-243
-242
-243
-243
-242
-242
-242
-242
-242
-243
-242
-242
-242
-242
-242
-242
-242
-243
-243
-244
-244
-244
-244
-246
-246
-246
-247
-248
-248
-249
-249
-249
-249
-249
-249
-250
-250
-250
-250
-249
-250
-250
-250
-249
-249
-249
-250
-250
-250
-250
-250
-251
-251
-252
-252
-251
-252
-252
-252
-252
-252
-252
-252
-252
-253
-252
-252
-252
-252
-251
-251
-252
-250
-250
-250
-249
-249
-249
-249
-248
-248
-248
-249
-248
-248
-248
-247
-247
-246
-245
-245
-243
-241
-241
-239
-237
-235
-233
-232
-228
-227
-224
-220
-216
-211
-206
-200
-194
-188
-180
-172
-163
-155
-145
-137
-127
-118
-110
-101
-92
-85
-78
-72
-68
-65
-63
-63
-65
-70
-76
-84
-95
-107
-123
-141
-159
-180
-203
-227
-252
-277
-302
-329
-354
-379
-403
-427
-449
-471
-489
-506
-521
-535
-545
-554
-560
-564
-566
-566
-565
-561
-557
-550
-544
-536
-526
-517
-507
-498
-488
-477
-466
-454
-443
-432
-422
-411
-401
-390
-380
-371
-361
-352
-343
-335
-326
-319
-311
-305
-298
-292
-287
-281
-277
-272
-268
-264
-261
-258
-256
-254
-252
-251
-248
-248
-247
-246
-245
-244
-243
-243
-242
-242
-242
-241
-241
-241
-240
-241
-240
-240
-240
-239
-239
-239
-239
-239
-239
-238
-238
-237
-237
-236
-236
-236
-236
-235
-235
-235
-235
-234
-234
-234
-234
-232
-233
-233
-233
-233
-233
-232
-232
-232
-232
-232
-231
-231
-231
-231
-231
-231
-231
-231
-231
-231
-231
-231
-231
-231
-231
-231
-231
-231
-231
-231
-231
-230
-230
-230
-230
-230
-230
-230
-230
-230
-229
-229
-229
-229
-229
-229
-229
-229
-229
-229
-229
-229
-229
-229
-229
-230
-229
-230
-229
-229
-229
-230
-229
-229
-229
-229
-228
-228
-228
-227
-227
-227
-226
-226
-226
-226
-226
-225
-225
-225
-225
-225
-225
-225
-224
-225
-224
-224
-224
-224
-223
-223
-222
-221
-221
-221
-220
-219
-219
-219
-219
-218
-217
-217
-216
-216
-215
-214
-214
-213
-212
-212
-210
-210
-209
-209
-208
-207
-206
-205
-205
-204
-203
-202
-201
-200
-199
-197
-197
-195
-195
-193
-192
-192
-191
-190
-189
-189
-187
-187
-186
-185
-185
-184
-184
-183
-181
-181
-181
-180
-179
-179
-178
-178
-178
-178
-178
-178
-177
-177
-177
-177
-177
-177
-178
-177
-178
-178
-179
-179
-179
-179
-180
-180
-181
-180
-181
-181
-182
-181
-182
-182
-182
-183
-183
-183
-183
-184
-183
-184
-184
-184
-185
-184
-184
-185
-184
-186
-186
-186
-186
-186
-187
-189
-189
-190
-190
-191
-192
-192
-193
-195
-195
-196
-196
-197
-198
-199
-199
-200
-200
-201
-201
-202
-202
-203
-203
-203
-203
-203
-203
-204
-204
-204
-205
-206
-206
-206
-207
-208
-208
-208
-209
-209
-210
-211
-211
-211
-212
-212
-213
-213
-213
-213
-214
-214
-215
-215
-216
-216
-217
-217
-218
-219
-220
-220
-220
-221
-222
-223
-223
-223
-223
-225
-225
-226
-226
-227
-227
-227
-228
-228
-229
-228
-229
-229
-229
-229
-229
-228
-228
-228
-229
-229
-228
-229
-228
-228
-227
-227
-227
-227
-228
-228
-227
-227
-226
-226
-226
-226
-226
-226
-226
-226
-226
-225
-225
-225
-225
-225
-225
-225
-224
-225
-225
-225
-226
-225
-225
-225
-226
-226
-226
-226
-226
-226
-226
-227
-227
-228
-228
-227
-228
-228
-228
-227
-227
-226
-226
-226
-226
-225
-225
-224
-225
-224
-224
-224
-224
-224
-224
-224
-223
-224
-224
-223
-224
-224
-224
-224
-225
-224
-224
-225
-225
-225
-225
-225
-225
-226
-226
-225
-225
-226
-226
-226
-226
-226
-226
-226
-225
-225
-225
-225
-225
-225
-226
-226
-225
-225
-226
-226
-226
-227
-226
-227
-226
-226
-226
-226
-227
-227
-227
-227
-227
-226
-227
-227
-226
-226
-227
-227
-226
-227
-226
-227
-227
-227
-227
-227
-228
-228
-228
-228
-230
-230
-230
-230
-231
-231
-232
-232
-233
-233
-233
-234
-233
-233
-234
-234
-234
-235
-234
-234
-234
-233
-234
-234
-234
-234
-234
-234
-234
-234
-234
-234
-234
-233
-233
-233
-233
-233
-233
-233
-233
-234
-234
-235
-235
-234
-235
-235
-236
-236
-236
-236
-236
-236
-236
-235
-236
-235
-235
-235
-235
-235
-234
-234
-233
-233
-234
-233
-233
-234
-234
-233
-233
-233
-234
-234
-234
-234
-234
-235
-235
-235
-235
-236
-236
-237
-237
-237
-238
-238
-237
-238
-237
-237
-235
-235
-235
-233
-233
-231
-230
-230
-229
-228
-226
-225
-223
-222
-221
-221
-220
-219
-218
-216
-216
-215
-214
-214
-212
-212
-211
-211
-211
-210
-210
-210
-209
-209
-208
-209
-208
-208
-207
-207
-207
-207
-207
-207
-207
-207
-208
-209
-208
-209
-209
-209
-210
-211
-212
-214
-214
-215
-215
-216
-217
-217
-218
-219
-219
-220
-221
-222
-223
-224
-223
-224
-224
-225
-226
-226
-226
-226
-226
-227
-227
-227
-228
-228
-228
-229
-229
-229
-229
-229
-230
-230
-232
-232
-232
-233
-235
-235
-236
-237
-237
-238
-239
-241
-241
-242
-243
-244
-245
-245
-246
-246
-246
-247
-248
-248
-248
-249
-248
-248
-248
-248
-248
-246
-246
-246
-246
-246
-247
-246
-245
-246
-246
-245
-246
-246
-246
-246
-246
-246
-245
-245
-245
-245
-245
-245
-245
-245
-245
-245
-245
-245
-244
-244
-244
-245
-245
-245
-245
-244
-244
-244
-244
-244
-243
-243
-243
-244
-243
-242
-242
-241
-241
-240
-239
-238
-237
-235
-234
-232
-231
-228
-226
-222
-218
-214
-209
-203
-197
-189
-181
-173
-165
-155
-146
-136
-127
-117
-106
-97
-89
-81
-74
-69
-65
-62
-61
-62
-65
-70
-77
-86
-98
-112
-128
-147
-167
-189
-212
-238
-263
-289
-316
-342
-368
-393
-418
-442
-465
-485
-503
-520
-535
-548
-558
-567
-574
-577
-578
-578
-576
-573
-568
-561
-554
-545
-536
-526
-515
-504
-494
-482
-471
-460
-448
-438
-426
-415
-403
-393
-382
-372
-362
-352
-343
-334
-326
-318
-311
-303
-296
-290
-285
-279
-274
-270
-266
-262
-259
-256
-253
-252
-250
-248
-247
-246
-245
-245
-244
-244
-243
-243
-243
-243
-243
-243
-243
-243
-243
-243
-243
-243
-243
-243
-242
-242
-242
-242
-242
-241
-241
-240
-240
-240
-239
-239
-238
-238
-238
-238
-237
-236
-236
-236
-236
-235
-235
-236
-236
-236
-235
-235
-235
-236
-236
-236
-236
-236
-236
-236
-236
-236
-236
-236
-235
-235
-235
-235
-234
-235
-235
-234
-234
-234
-235
-234
-234
-234
-233
-233
-233
-233
-232
-232
-232
-232
-232
-233
-232
-232
-232
-232
-232
-232
-232
-232
-232
-232
-231
-232
-232
-232
-232
-232
-231
-231
-231
-231
-231
-230
-230
-230
-230
-230
-230
-230
-230
-230
-229
-229
-229
-229
-229
-229
-229
-229
-229
-229
-229
-229
-230
-229
-229
-230
-230
-230
-230
-230
-230
-229
-229
-228
-228
-227
-226
-225
-225
-224
-224
-222
-222
-221
-221
-219
-219
-218
-217
-216
-215
-214
-213
-213
-211
-211
-210
-208
-208
-207
-206
-205
-204
-203
-202
-200
-199
-198
-198
-196
-196
-194
-192
-192
-191
-190
-189
-187
-186
-186
-185
-185
-184
-184
-184
-183
-182
-182
-181
-181
-181
-179
-179
-179
-179
-178
-178
-178
-177
-177
-177
-177
-177
-176
-176
-176
-177
-177
-177
-178
-178
-177
-178
-178
-179
-179
-180
-181
-181
-183
-182
-184
-184
-184
-184
-185
-186
-185
-186
-186
-186
-186
-187
-188
-188
-188
-188
-189
-190
-190
-191
-191
-192
-192
-193
-194
-194
-195
-196
-196
-197
-197
-198
-198
-198
-199
-200
-200
-200
-201
-201
-202
-201
-203
-203
-203
-204
-205
-206
-206
-206
-207
-207
-208
-208
-210
-211
-211
-212
-213
-213
-215
-216
-216
-217
-218
-219
-220
-221
-222
-222
-223
-224
-224
-225
-226
-227
-227
-227
-228
-229
-229
-229
-230
-230
-231
-231
-232
-232
-233
-233
-233
-234
-234
-234
-234
-235
-235
-236
-236
-237
-237
-237
-237
-237
-237
-238
-238
-239
-239
-239
-239
-239
-239
-239
-239
-239
-239
-240
-240
-240
-240
-240
-240
-240
-240
-239
-239
-240
-239
-239
-238
-238
-237
-237
-237
-237
-236
-236
-236
-236
-236
-235
-235
-235
-236
-235
-235
-236
-236
-237
-237
-237
-237
-238
-238
-238
-239
-239
-240
-240
-240
-241
-240
-240
-240
-241
-241
-241
-241
-240
-240
-239
-239
-239
-238
-238
-238
-237
-237
-237
-237
-237
-237
-237
-237
-237
-237
-237
-238
-238
-237
-237
-239
-239
-239
-239
-239
-239
-239
-240
-241
-240
-240
-241
-241
-241
-241
-241
-241
-241
-240
-240
-240
-240
-240
-241
-240
-240
-240
-240
-239
-239
-239
-239
-239
-239
-239
-239
-239
-239
-239
-239
-239
-239
-239
-239
-240
-240
-240
-241
-241
-242
-242
-242
-243
-244
-244
-245
-245
-246
-246
-246
-247
-247
-247
-247
-247
-247
-248
-248
-248
-248
-248
-248
-249
-249
-249
-250
-250
-249
-249
-249
-249
-250
-249
-249
-249
-249
-249
-249
-249
-249
-249
-249
-248
-248
-249
-249
-249
-249
-249
-249
-249
-249
-249
-249
-249
-249
-249
-250
-250
-249
-249
-249
-250
-249
-250
-250
-249
-249
-249
-249
-249
-248
-249
-249
-249
-249
-249
-250
-250
-250
-249
-250
-251
-251
-251
-251
-251
-252
-251
-251
-251
-251
-250
-250
-250
-250
-250
-250
-249
-250
-248
-248
-248
-247
-248
-247
-246
-245
-245
-245
-244
-243
-243
-243
-242
-241
-240
-240
-239
-238
-238
-236
-236
-235
-235
-235
-234
-234
-232
-232
-231
-230
-230
-230
-228
-228
-228
-227
-227
-226
-225
-225
-225
-224
-224
-224
-223
-223
-222
-222
-221
-221
-221
-220
-220
-220
-220
-219
-221
-220
-220
-221
-221
-223
-223
-224
-224
-225
-226
-227
-227
-228
-229
-230
-231
-232
-233
-234
-235
-236
-237
-237
-239
-239
-239
-241
-241
-242
-241
-242
-242
-242
-243
-243
-243
-244
-245
-245
-245
-245
-245
-245
-245
-246
-246
-247
-247
-247
-247
-248
-248
-249
-249
-249
-251
-251
-251
-252
-253
-253
-254
-255
-255
-256
-256
-257
-258
-258
-258
-259
-259
-259
-259
-259
-259
-259
-259
-258
-258
-258
-258
-258
-258
-257
-257
-256
-256
-256
-255
-256
-255
-254
-255
-255
-255
-254
-253
-254
-253
-253
-253
-253
-253
-253
-253
-253
-253
-253
-252
-252
-252
-251
-251
-252
-253
-252
-253
-253
-252
-252
-252
-251
-252
-251
-251
-250
-249
-248
-246
-244
-242
-240
-238
-236
-233
-229
-225
-221
-215
-210
-203
-196
-189
-181
-173
-165
-156
-148
-139
-131
-123
-115
-108
-102
-97
-94
-92
-91
-93
-95
-98
-104
-114
-124
-136
-151
-167
-186
-206
-227
-250
-274
-297
-322
-345
-370
-393
-417
-438
-459
-478
-495
-511
-526
-538
-548
-556
-562
-565
-568
-567
-565
-562
-557
-551
-544
-536
-528
-518
-508
-498
-488
-477
-466
-455
-443
-432
-421
-410
-400
-389
-379
-370
-360
-351
-342
-334
-326
-319
-312
-305
-299
-294
-289
-284
-280
-276
-272
-269
-267
-265
-262
-261
-260
-258
-258
-257
-256
-256
-256
-255
-256
-256
-255
-256
-256
-256
-255
-255
-255
-254
-255
-254
-254
-253
-253
-252
-252
-251
-251
-250
-250
-249
-249
-249
-248
-247
-247
-247
-247
-246
-246
-246
-246
-246
-247
-247
-247
-247
-246
-246
-246
-246
-246
-246
-247
-247
-246
-247
-247
-247
-246
-246
-246
-246
-246
-245
-245
-245
-245
-245
-244
-243
-243
-244
-243
-243
-242
-242
-241
-242
-241
-241
-240
-240
-240
-240
-240
-240
-239
-240
-240
-240
-240
-240
-240
-240
-240
-240
-239
-239
-239
-239
-239
-239
-239
-240
-240
-240
-239
-239
-239
-239
-239
-239
-238
-238
-238
-237
-237
-237
-237
-237
-236
-236
-236
-235
-235
-234
-234
-233
-233
-233
-233
-232
-232
-232
-231
-231
-230
-229
-229
-228
-228
-227
-227
-227
-226
-226
-225
-225
-224
-224
-223
-223
-222
-221
-220
-220
-218
-217
-217
-215
-214
-213
-212
-211
-210
-210
-208
-207
-206
-205
-203
-203
-202
-201
-200
-199
-198
-198
-196
-196
-195
-195
-193
-193
-193
-192
-191
-191
-190
-189
-189
-188
-187
-187
-187
-186
-185
-184
-184
-183
-182
-182
-181
-181
-180
-180
-180
-180
-180
-180
-179
-180
-180
-181
-181
-181
-182
-182
-182
-182
-183
-183
-184
-185
-185
-186
-187
-187
-187
-188
-188
-189
-189
-189
-190
-190
-191
-191
-191
-191
-192
-192
-192
-193
-193
-194
-194
-194
-194
-195
-195
-196
-197
-197
-197
-197
-198
-198
-198
-199
-200
-201
-201
-201
-202
-202
-203
-203
-204
-205
-206
-207
-207
-208
-209
-210
-210
-211
-212
-212
-214
-214
-215
-217
-217
-219
-219
-220
-221
-222
-223
-224
-225
-226
-227
-227
-227
-227
-229
-229
-229
-230
-231
-231
-232
-232
-232
-232
-234
-234
-235
-235
-236
-236
-237
-237
-237
-238
-239
-239
-239
-240
-240
-240
-241
-241
-241
-242
-242
-242
-243
-242
-243
-242
-242
-242
-242
-242
-242
-242
-242
-242
-242
-242
-243
-242
-242
-243
-242
-242
-242
-242
-243
-243
-243
-243
-243
-243
-243
-243
-243
-243
-243
-243
-243
-243
-243
-243
-243
-243
-243
-242
-243
-243
-242
-242
-242
-242
-240
-240
-240
-240
-240
-239
-239
-239
-240
-240
-240
-240
-241
-240
-240
-241
-241
-241
-242
-242
-242
-243
-243
-243
-244
-245
-245
-245
-245
-245
-246
-246
-246
-246
-246
-246
-246
-246
-246
-246
-245
-246
-245
-245
-246
-246
-245
-245
-245
-246
-246
-246
-246
-246
-246
-246
-246
-246
-245
-245
-245
-246
-245
-245
-245
-245
-245
-245
-245
-244
-245
-245
-245
-246
-246
-247
-246
-247
-247
-247
-247
-247
-247
-248
-249
-249
-248
-249
-249
-248
-247
-247
-248
-247
-247
-247
-246
-245
-246
-244
-244
-245
-245
-245
-245
-245
-245
-246
-247
-247
-247
-249
-249
-250
-250
-251
-252
-251
-252
-253
-253
-253
-253
-253
-254
-254
-254
-254
-254
-254
-255
-255
-255
-255
-256
-256
-256
-255
-255
-255
-255
-256
-256
-256
-256
-256
-256
-255
-255
-255
-255
-255
-255
-255
-255
-255
-255
-255
-254
-254
-254
-254
-254
-254
-254
-254
-255
-255
-255
-255
-256
-256
-256
-257
-257
-258
-257
-257
-257
-258
-258
-258
-258
-258
-258
-258
-258
-257
-257
-257
-257
-257
-256
-257
-257
-256
-255
-255
-254
-254
-253
-252
-252
-252
-251
-250
-250
-249
-248
-247
-246
-245
-245
-244
-244
-244
-242
-242
-241
-241
-239
-239
-238
-238
-236
-236
-235
-235
-234
-233
-233
-232
-232
-231
-232
-231
-230
-230
-229
-229
-229
-229
-229
-230
-230
-230
-230
-230
-231
-231
-231
-232
-233
-234
-235
-235
-235
-235
-236
-236
-236
-236
-237
-237
-239
-239
-239
-241
-242
-242
-243
-243
-244
-246
-246
-247
-248
-249
-250
-250
-251
-252
-252
-253
-254
-254
-255
-255
-255
-256
-256
-256
-257
-257
-257
-258
-259
-259
-260
-260
-260
-261
-261
-262
-263
-263
-264
-264
-265
-265
-265
-266
-266
-267
-267
-268
-268
-268
-268
-268
-268
-268
-267
-267
-267
-268
-267
-267
-268
-267
-267
-267
-267
-267
-267
-267
-268
-267
-268
-268
-268
-268
-268
-268
-268
-268
-268
-268
-267
-268
-268
-268
-268
-268
-268
-267
-267
-267
-267
-267
-267
-267
-267
-266
-266
-266
-266
-266
-265
-264
-264
-263
-263
-262
-262
-262
-260
-259
-258
-257
-255
-254
-253
-251
-250
-249
-247
-245
-241
-238
-234
-230
-225
-220
-214
-208
-200
-193
-186
-179
-171
-163
-155
-148
-141
-137
-131
-128
-125
-123
-123
-125
-128
-133
-139
-148
-158
-170
-185
-201
-219
-238
-258
-280
-301
-323
-346
-368
-390
-411
-431
-451
-470
-486
-502
-516
-528
-538
-547
-553
-557
-560
-561
-561
-559
-555
-550
-545
-538
-530
-521
-513
-504
-495
-486
-476
-466
-456
-446
-437
-427
-417
-408
-398
-389
-381
-373
-364
-356
-348
-341
-334
-327
-322
-316
-311
-306
-301
-297
-293
-290
-287
-284
-282
-280
-278
-277
-275
-273
-273
-272
-271
-272
-272
-271
-270
-271
-270
-270
-270
-269
-269
-269
-269
-270
-270
-269
-269
-269
-268
-268
-267
-267
-267
-268
-266
-266
-266
-266
-265
-265
-264
-264
-264
-263
-263
-263
-262
-262
-262
-262
-261
-261
-260
-260
-260
-260
-260
-259
-259
-259
-259
-259
-260
-259
-259
-260
-261
-261
-261
-261
-261
-263
-263
-263
-264
-264
-264
-265
-265
-265
-265
-265
-265
-266
-266
-265
-266
-265
-266
-266
-266
-266
-265
-265
-265
-264
-264
-264
-263
-263
-263
-262
-262
-262
-262
-262
-261
-261
-261
-260
-260
-261
-260
-260
-260
-259
-259
-258
-258
-258
-257
-257
-257
-256
-255
-255
-254
-254
-253
-253
-253
-252
-252
-253
-252
-252
-251
-251
-251
-251
-250
-249
-249
-249
-250
-250
-249
-249
-249
-248
-248
-248
-248
-248
-248
-248
-247
-247
-246
-246
-245
-245
-244
-244
-242
-242
-241
-240
-238
-238
-237
-236
-235
-234
-233
-231
-230
-229
-228
-226
-226
-225
-224
-222
-222
-222
-222
-220
-219
-219
-219
-219
-218
-218
-217
-217
-216
-216
-215
-215
-214
-214
-214
-213
-212
-213
-213
-212
-211
-211
-210
-209
-210
-210
-209
-209
-209
-209
-208
-209
-209
-208
-208
-209
-209
-210
-210
-210
-211
-212
-212
-213
-214
-214
-214
-215
-216
-216
-217
-217
-217
-218
-218
-218
-218
-219
-218
-218
-219
-219
-219
-219
-220
-219
-220
-220
-221
-220
-220
-221
-221
-222
-222
-222
-223
-223
-224
-225
-225
-226
-226
-227
-228
-229
-229
-230
-230
-231
-233
-233
-234
-235
-236
-237
-237
-239
-240
-241
-242
-242
-244
-244
-246
-247
-247
-249
-249
-250
-250
-251
-252
-252
-253
-253
-253
-254
-253
-254
-255
-254
-254
-254
-254
-254
-254
-255
-254
-254
-254
-255
-256
-256
-256
-256
-257
-257
-258
-259
-259
-260
-260
-261
-261
-263
-263
-263
-263
-264
-264
-264
-264
-264
-264
-264
-264
-264
-264
-264
-264
-264
-264
-265
-265
-265
-265
-265
-265
-265
-265
-265
-265
-265
-265
-265
-265
-265
-265
-265
-265
-265
-265
-265
-265
-265
-265
-265
-264
-264
-265
-265
-265
-264
-264
-264
-264
-264
-264
-263
-264
-263
-263
-262
-263
-263
-262
-262
-261
-261
-261
-261
-261
-261
-261
-261
-262
-262
-262
-262
-262
-262
-262
-262
-263
-264
-263
-264
-264
-264
-265
-265
-266
-266
-266
-266
-267
-267
-266
-266
-267
-267
-267
-268
-267
-268
-268
-267
-267
-266
-266
-267
-266
-267
-267
-267
-266
-266
-266
-266
-266
-266
-266
-266
-267
-267
-266
-266
-267
-267
-267
-267
-267
-266
-266
-266
-266
-266
-267
-268
-267
-267
-268
-268
-269
-269
-268
-268
-268
-268
-268
-269
-269
-269
-269
-269
-269
-269
-269
-268
-269
-269
-268
-269
-269
-268
-268
-267
-267
-267
-267
-267
-266
-266
-265
-266
-265
-265
-265
-265
-264
-265
-265
-265
-266
-267
-267
-267
-268
-269
-268
-269
-269
-269
-270
-270
-270
-270
-271
-271
-270
-270
-270
-269
-270
-269
-269
-268
-268
-268
-268
-268
-268
-268
-267
-267
-267
-268
-268
-268
-268
-268
-268
-268
-269
-269
-270
-270
-270
-270
-270
-270
-270
-270
-270
-270
-270
-269
-270
-270
-270
-270
-269
-269
-270
-270
-270
-270
-269
-269
-269
-268
-268
-267
-267
-267
-265
-265
-265
-264
-264
-262
-262
-261
-261
-260
-259
-258
-258
-256
-255
-255
-254
-253
-252
-251
-251
-250
-250
-249
-248
-247
-246
-245
-246
-245
-245
-244
-243
-243
-243
-242
-242
-241
-241
-241
-241
-242
-241
-242
-243
-243
-243
-244
-244
-245
-246
-247
-247
-248
-250
-250
-251
-253
-254
-254
-255
-257
-257
-258
-259
-260
-260
-262
-262
-263
-264
-264
-264
-265
-265
-265
-265
-265
-265
-265
-265
-265
-266
-267
-266
-266
-266
-266
-267
-267
-268
-268
-267
-268
-268
-269
-270
-271
-271
-272
-272
-273
-274
-275
-275
-276
-277
-277
-277
-278
-278
-278
-278
-279
-279
-279
-279
-279
-279
-279
-279
-278
-278
-278
-278
-278
-278
-277
-278
-278
-278
-278
-277
-277
-277
-277
-277
-277
-276
-276
-276
-276
-276
-275
-275
-276
-275
-276
-276
-276
-276
-276
-276
-276
-277
-276
-276
-276
-276
-276
-276
-276
-275
-275
-275
-274
-274
-273
-273
-272
-270
-269
-268
-267
-265
-263
-262
-260
-258
-256
-253
-251
-248
-243
-239
-234
-229
-222
-216
-210
-203
-196
-189
-181
-173
-166
-159
-153
-146
-141
-135
-133
-131
-130
-130
-132
-136
-142
-149
-159
-170
-181
-195
-211
-227
-246
-266
-287
-308
-330
-351
-372
-392
-413
-432
-451
-469
-485
-500
-513
-525
-535
-542
-548
-553
-555
-556
-555
-553
-548
-544
-538
-532
-524
-516
-507
-498
-489
-479
-470
-460
-451
-441
-431
-422
-412
-403
-394
-384
-376
-367
-360
-352
-344
-337
-330
-323
-318
-311
-306
-302
-297
-293
-289
-285
-283
-279
-276
-275
-272
-270
-269
-268
-267
-266
-265
-264
-264
-263
-262
-262
-262
-261
-260
-260
-261
-261
-260
-260
-261
-260
-260
-260
-261
-261
-260
-260
-261
-261
-261
-260
-260
-260
-260
-260
-259
-258
-258
-257
-256
-256
-256
-255
-255
-253
-253
-252
-252
-252
-252
-252
-252
-252
-252
-252
-252
-253
-252
-252
-253
-253
-253
-253
-253
-254
-254
-254
-254
-253
-253
-253
-253
-252
-252
-252
-251
-250
-249
-249
-249
-248
-248
-248
-247
-246
-247
-246
-246
-246
-245
-245
-245
-245
-245
-243
-243
-243
-243
-243
-243
-243
-242
-242
-242
-242
-241
-241
-241
-241
-241
-241
-240
-240
-239
-239
-239
-239
-239
-238
-238
-238
-238
-238
-238
-237
-237
-237
-237
-236
-236
-236
-235
-235
-234
-234
-233
-233
-233
-232
-231
-231
-231
-230
-230
-229
-229
-228
-228
-228
-227
-226
-226
-226
-225
-224
-223
-222
-222
-220
-220
-218
-217
-216
-214
-214
-212
-211
-210
-209
-208
-208
-206
-206
-205
-203
-203
-202
-201
-200
-200
-200
-199
-198
-198
-198
-197
-196
-196
-195
-195
-195
-195
-193
-193
-192
-192
-190
-189
-189
-189
-188
-188
-188
-188
-187
-187
-186
-186
-185
-186
-185
-186
-185
-185
-184
-184
-184
-184
-185
-184
-184
-184
-184
-184
-185
-185
-185
-186
-185
-186
-187
-186
-186
-186
-188
-187
-187
-187
-188
-188
-188
-188
-189
-189
-189
-189
-189
-190
-190
-190
-191
-191
-191
-190
-191
-191
-191
-191
-191
-191
-192
-192
-193
-193
-193
-194
-194
-194
-195
-195
-196
-197
-197
-198
-198
-199
-200
-201
-201
-202
-203
-203
-204
-204
-204
-205
-206
-206
-207
-207
-208
-208
-208
-208
-208
-208
-208
-210
-210
-210
-210
-211
-211
-211
-212
-212
-212
-212
-213
-212
-213
-213
-214
-213
-213
-213
-213
-213
-213
-213
-213
-212
-213
-213
-213
-213
-213
-213
-214
-213
-214
-214
-215
-214
-214
-215
-215
-215
-215
-215
-215
-215
-216
-216
-216
-216
-215
-215
-215
-214
-215
-214
-215
-215
-215
-215
-215
-214
-214
-214
-214
-214
-214
-214
-214
-213
-213
-213
-213
-214
-214
-214
-212
-213
-212
-212
-212
-211
-211
-210
-210
-210
-210
-209
-209
-209
-208
-208
-209
-209
-208
-208
-208
-208
-207
-207
-207
-207
-207
-207
-207
-207
-207
-207
-207
-206
-206
-206
-206
-207
-206
-206
-206
-206
-207
-207
-207
-207
-207
-206
-206
-206
-208
-207
-208
-208
-208
-208
-208
-209
-209
-209
-210
-210
-210
-210
-210
-210
-210
-209
-209
-209
-208
-209
-209
-209
-208
-208
-208
-207
-207
-207
-207
-207
-207
-206
-206
-206
-205
-205
-207
-206
-206
-207
-207
-207
-207
-207
-208
-208
-208
-208
-208
-209
-208
-208
-208
-208
-208
-208
-208
-208
-208
-209
-208
-208
-208
-208
-208
-209
-209
-210
-209
-209
-209
-209
-209
-208
-208
-208
-208
-208
-207
-207
-206
-206
-206
-206
-206
-207
-206
-207
-206
-206
-206
-206
-206
-206
-206
-206
-206
-206
-207
-207
-207
-207
-207
-206
-206
-207
-206
-206
-206
-206
-206
-206
-206
-206
-206
-206
-207
-207
-206
-207
-207
-208
-207
-208
-208
-208
-209
-209
-209
-208
-208
-208
-208
-208
-207
-207
-206
-206
-205
-204
-203
-201
-200
-200
-199
-198
-197
-196
-194
-192
-192
-191
-191
-189
-188
-187
-186
-185
-184
-183
-183
-182
-181
-180
-180
-180
-179
-178
-177
-176
-176
-175
-174
-174
-173
-173
-173
-173
-172
-172
-172
-172
-172
-171
-172
-172
-173
-173
-174
-175
-176
-176
-176
-177
-178
-179
-180
-181
-182
-183
-184
-185
-186
-186
-187
-188
-189
-190
-190
-191
-192
-193
-193
-194
-194
-194
-194
-194
-195
-195
-195
-194
-194
-195
-195
-195
-195
-196
-195
-195
-195
-195
-195
-195
-195
-196
-197
-197
-198
-198
-199
-200
-200
-201
-202
-203
-204
-204
-205
-205
-206
-206
-206
-206
-206
-206
-206
-206
-206
-206
-205
-205
-205
-204
-204
-203
-203
-203
-203
-202
-202
-202
-201
-201
-202
-201
-202
-202
-201
-201
-201
-202
-202
-202
-202
-201
-202
-201
-201
-200
-200
-200
-198
-199
-198
-198
-198
-198
-198
-198
-198
-197
-197
-197
-197
-197
-198
-197
-196
-196
-196
-195
-195
-193
-192
-192
-190
-188
-187
-185
-183
-180
-177
-174
-171
-167
-162
-158
-153
-146
-140
-134
-126
-120
-113
-105
-98
-91
-85
-78
-72
-67
-63
-61
-58
-58
-59
-61
-65
-71
-78
-88
-99
-111
-125
-142
-159
-179
-198
-220
-240
-262
-283
-304
-325
-345
-365
-383
-400
-415
-429
-442
-452
-461
-468
-474
-478
-480
-479
-479
-475
-471
-466
-460
-453
-445
-438
-429
-420
-410
-401
-391
-381
-371
-361
-351
-341
-331
-322
-312
-304
-295
-286
-278
-270
-263
-255
-249
-242
-236
-230
-225
-219
-215
-211
-207
-203
-201
-198
-196
-193
-192
-190
-188
-188
-186
-186
-185
-184
-183
-183
-182
-182
-182
-182
-182
-181
-181
-181
-181
-181
-180
-181
-180
-181
-182
-182
-182
-182
-182
-182
-181
-182
-181
-181
-181
-180
-180
-180
-180
-180
-179
-179
-179
-179
-178
-178
-178
-177
-176
-176
-176
-175
-175
-175
-175
-174
-174
-175
-175
-174
-175
-174
-174
-174
-174
-174
-174
-174
-173
-173
-173
-173
-172
-172
-171
-171
-171
-170
-170
-170
-170
-170
-170
-169
-169
-169
-169
-169
-168
-169
-169
-169
-169
-167
-167
-167
-167
-167
-166
-166
-165
-165
-164
-164
-163
-163
-162
-162
-162
-161
-161
-161
-161
-161
-161
-160
-160
-160
-161
-161
-160
-160
-159
-159
-160
-160
-160
-159
-159
-159
-158
-158
-157
-157
-157
-156
-156
-156
-156
-156
-155
-155
-155
-155
-155
-154
-154
-154
-153
-152
-151
-151
-151
-150
-150
-148
-148
-147
-145
-145
-143
-142
-141
-140
-139
-138
-138
-136
-135
-134
-132
-131
-131
-129
-128
-128
-127
-126
-126
-125
-124
-124
-123
-122
-122
-121
-120
-120
-119
-119
-119
-118
-117
-117
-116
-116
-116
-115
-114
-114
-114
-114
-113
-113
-113
-113
-113
-112
-112
-112
-112
-111
-111
-111
-111
-111
-110
-110
-110
-110
-110
-110
-111
-111
-111
-111
-112
-112
-114
-114
-114
-115
-116
-116
-116
-118
-118
-119
-120
-120
-120
-120
-121
-121
-121
-122
-122
-121
-122
-122
-122
-122
-122
-123
-123
-124
-124
-124
-125
-126
-126
-126
-127
-128
-129
-129
-130
-131
-131
-132
-132
-132
-132
-133
-133
-133
-133
-134
-134
-134
-134
-135
-135
-136
-136
-137
-137
-138
-138
-138
-139
-139
-139
-140
-140
-142
-142
-142
-144
-144
-144
-145
-147
-147
-148
-148
-149
-149
-150
-150
-151
-152
-152
-152
-154
-154
-154
-155
-155
-155
-155
-155
-156
-156
-156
-156
-155
-155
-155
-155
-155
-154
-154
-154
-154
-154
-154
-153
-153
-153
-153
-151
-151
-151
-152
-151
-151
-151
-150
-151
-151
-150
-150
-150
-150
-150
-150
-151
-151
-151
-150
-151
-151
-151
-152
-152
-151
-151
-152
-151
-151
-151
-151
-151
-150
-150
-150
-150
-150
-150
-150
-149
-149
-149
-149
-149
-149
-149
-148
-149
-149
-149
-149
-149
-148
-148
-149
-149
-149
-149
-149
-149
-149
-149
-150
-150
-150
-150
-150
-149
-149
-150
-150
-150
-151
-151
-151
-151
-150
-150
-150
-150
-150
-150
-150
-150
-150
-150
-150
-150
-149
-149
-149
-148
-148
-148
-148
-147
-147
-147
-146
-146
-146
-146
-146
-146
-146
-145
-145
-145
-145
-145
-145
-145
-145
-145
-145
-145
-145
