# Simple Text Format
# Sampling Rate (Hz):= 1200.00
# Resolution:= 12
# Labels:= ECG	 V2
# Age:=	63
# Gender:=	Feminino
-121
-120
-120
-119
-118
-116
-114
-112
-111
-108
-107
-106
-103
-101
-100
-97
-95
-92
-87
-85
-81
-75
-70
-64
-58
-52
-44
-39
-32
-25
-20
-13
-9
-5
-3
-1
0
-2
-6
-10
-17
-27
-37
-50
-66
-81
-100
-121
-144
-168
-192
-219
-245
-271
-298
-323
-348
-372
-395
-416
-435
-454
-470
-484
-495
-504
-511
-516
-519
-519
-516
-512
-507
-500
-492
-482
-471
-461
-449
-436
-424
-411
-398
-385
-372
-359
-345
-332
-320
-307
-294
-282
-270
-258
-247
-236
-225
-215
-205
-196
-188
-179
-172
-165
-159
-153
-148
-142
-138
-135
-131
-128
-125
-123
-122
-120
-118
-117
-116
-115
-114
-115
-114
-114
-113
-113
-113
-112
-112
-111
-111
-110
-110
-110
-110
-110
-110
-110
-109
-109
-109
-108
-109
-109
-108
-108
-107
-107
-107
-105
-105
-105
-105
-105
-105
-105
-104
-105
-105
-104
-104
-104
-105
-105
-105
-105
-104
-104
-104
-104
-104
-104
-104
-104
-104
-104
-104
-103
-103
-103
-102
-102
-102
-102
-102
-100
-101
-100
-100
-99
-99
-98
-98
-97
-97
-97
-97
-96
-95
-95
-95
-95
-94
-94
-94
-93
-93
-93
-92
-92
-92
-92
-91
-90
-91
-90
-90
-88
-88
-88
-87
-87
-86
-86
-86
-86
-84
-83
-83
-83
-82
-82
-81
-81
-80
-80
-80
-80
-80
-80
-80
-79
-80
-80
-79
-79
-79
-78
-78
-77
-78
-78
-76
-76
-76
-75
-75
-73
-73
-71
-71
-70
-69
-69
-67
-65
-64
-63
-62
-60
-59
-58
-57
-56
-56
-55
-54
-53
-53
-51
-51
-50
-50
-49
-48
-47
-47
-45
-45
-44
-43
-42
-42
-41
-41
-39
-39
-38
-37
-37
-36
-36
-35
-36
-35
-34
-34
-33
-32
-32
-31
-31
-31
-30
-31
-30
-29
-29
-30
-29
-29
-29
-29
-30
-29
-28
-29
-28
-29
-29
-29
-30
-31
-30
-31
-32
-32
-32
-33
-33
-34
-35
-36
-36
-38
-38
-38
-39
-40
-40
-40
-41
-42
-42
-43
-43
-43
-43
-44
-45
-45
-46
-46
-47
-47
-47
-48
-48
-50
-50
-50
-50
-51
-51
-52
-52
-53
-52
-53
-54
-54
-55
-55
-56
-56
-57
-57
-58
-59
-59
-60
-61
-62
-63
-64
-65
-66
-68
-68
-69
-70
-72
-73
-73
-74
-74
-75
-75
-76
-76
-76
-76
-78
-78
-77
-78
-79
-79
-79
-79
-80
-81
-80
-81
-82
-82
-83
-83
-83
-83
-83
-84
-84
-84
-85
-85
-85
-86
-86
-86
-86
-87
-87
-87
-87
-87
-86
-86
-86
-86
-86
-87
-86
-86
-85
-86
-86
-85
-85
-85
-85
-85
-85
-85
-86
-85
-85
-85
-85
-84
-84
-84
-84
-84
-85
-84
-84
-84
-84
-84
-84
-85
-84
-84
-84
-85
-85
-84
-84
-84
-84
-84
-84
-84
-85
-84
-85
-84
-84
-85
-85
-85
-85
-85
-85
-85
-85
-85
-85
-85
-84
-84
-85
-85
-86
-86
-86
-86
-85
-84
-85
-84
-84
-84
-83
-83
-83
-82
-82
-81
-82
-81
-81
-82
-81
-81
-82
-82
-82
-82
-82
-83
-83
-84
-84
-83
-84
-84
-84
-84
-84
-85
-85
-85
-85
-85
-85
-85
-84
-84
-85
-85
-85
-85
-85
-85
-85
-85
-85
-85
-85
-85
-85
-85
-84
-85
-85
-85
-85
-85
-85
-86
-86
-86
-86
-86
-86
-86
-86
-87
-86
-86
-86
-87
-87
-88
-88
-88
-88
-88
-88
-89
-88
-88
-88
-88
-88
-88
-88
-88
-88
-86
-86
-86
-86
-86
-85
-85
-85
-85
-85
-85
-85
-85
-85
-84
-84
-84
-83
-83
-83
-83
-83
-84
-84
-84
-84
-84
-85
-85
-86
-86
-87
-87
-88
-88
-88
-89
-89
-89
-89
-89
-89
-89
-89
-89
-88
-87
-87
-87
-86
-86
-86
-85
-84
-84
-84
-83
-83
-83
-83
-83
-83
-83
-84
-84
-84
-84
-85
-85
-85
-86
-86
-86
-86
-86
-85
-85
-84
-85
-84
-84
-84
-83
-83
-82
-82
-81
-80
-80
-80
-80
-79
-78
-78
-77
-76
-75
-75
-74
-74
-73
-73
-72
-71
-72
-71
-71
-70
-71
-70
-70
-71
-71
-72
-72
-73
-73
-74
-74
-74
-75
-76
-77
-78
-78
-79
-80
-80
-80
-80
-80
-81
-81
-80
-80
-79
-80
-80
-79
-79
-79
-79
-79
-79
-79
-79
-80
-80
-79
-80
-80
-80
-81
-80
-81
-81
-81
-81
-82
-81
-81
-81
-82
-82
-82
-82
-82
-82
-82
-82
-82
-83
-83
-83
-84
-83
-84
-84
-84
-85
-85
-86
-86
-86
-86
-87
-87
-87
-87
-87
-88
-87
-87
-87
-87
-87
-86
-86
-86
-86
-86
-86
-86
-86
-85
-85
-85
-85
-85
-85
-85
-84
-84
-84
-84
-83
-83
-83
-81
-81
-81
-80
-80
-80
-80
-80
-80
-80
-80
-80
-79
-80
-80
-80
-79
-79
-80
-79
-79
-79
-78
-77
-77
-77
-76
-74
-74
-72
-71
-69
-69
-67
-67
-65
-63
-61
-59
-57
-55
-52
-48
-44
-39
-35
-30
-23
-17
-11
-4
2
8
15
21
27
32
36
40
42
43
43
40
36
30
22
12
0
-14
-31
-47
-67
-89
-112
-137
-163
-189
-215
-241
-268
-294
-318
-341
-364
-385
-404
-421
-436
-448
-459
-467
-473
-477
-479
-478
-474
-470
-462
-455
-445
-435
-424
-413
-400
-388
-375
-362
-349
-335
-321
-308
-296
-283
-270
-258
-245
-234
-222
-211
-199
-189
-179
-169
-160
-152
-142
-135
-128
-121
-114
-109
-103
-99
-95
-91
-88
-85
-81
-79
-77
-75
-73
-73
-72
-71
-70
-70
-69
-69
-69
-69
-68
-68
-68
-68
-67
-67
-67
-66
-66
-65
-66
-65
-65
-64
-64
-64
-64
-63
-64
-63
-62
-62
-63
-63
-62
-62
-62
-61
-61
-61
-61
-60
-61
-61
-60
-61
-61
-60
-60
-60
-60
-61
-61
-61
-61
-61
-60
-60
-60
-59
-59
-59
-57
-57
-57
-57
-56
-56
-56
-56
-57
-56
-56
-56
-56
-56
-56
-55
-55
-56
-56
-55
-55
-55
-55
-55
-55
-55
-54
-54
-53
-53
-52
-51
-51
-50
-49
-49
-48
-47
-47
-46
-46
-46
-46
-46
-46
-45
-45
-44
-44
-44
-44
-44
-44
-44
-43
-44
-43
-43
-43
-43
-44
-44
-44
-43
-43
-42
-42
-41
-40
-40
-40
-39
-39
-38
-36
-36
-35
-35
-33
-33
-31
-31
-30
-30
-30
-28
-28
-27
-27
-26
-25
-25
-24
-23
-22
-21
-20
-18
-18
-17
-15
-14
-13
-12
-11
-10
-9
-8
-7
-7
-6
-5
-4
-3
-3
-2
-1
0
0
1
1
2
3
3
3
4
4
4
5
4
5
5
5
5
5
6
6
6
5
5
5
4
4
4
3
3
4
3
3
3
2
2
2
2
2
2
2
2
1
1
0
1
0
-1
-2
-2
-2
-3
-4
-5
-6
-7
-7
-7
-7
-8
-9
-9
-9
-9
-10
-11
-11
-11
-11
-12
-12
-13
-14
-15
-16
-16
-17
-17
-17
-17
-19
-19
-20
-20
-20
-21
-22
-22
-23
-23
-24
-24
-25
-26
-27
-27
-28
-28
-30
-30
-31
-31
-33
-33
-34
-35
-35
-37
-38
-39
-39
-41
-41
-42
-43
-44
-44
-45
-46
-46
-46
-47
-48
-49
-49
-49
-49
-50
-50
-50
-50
-50
-50
-51
-50
-51
-51
-51
-51
-51
-51
-52
-52
-52
-51
-52
-52
-53
-54
-54
-54
-55
-55
-55
-56
-56
-55
-55
-55
-55
-55
-55
-55
-55
-54
-54
-54
-55
-55
-54
-54
-54
-54
-54
-55
-55
-55
-55
-55
-55
-55
-54
-54
-55
-55
-54
-54
-54
-54
-54
-53
-53
-53
-52
-52
-53
-53
-52
-52
-53
-53
-53
-53
-53
-52
-52
-53
-53
-53
-54
-54
-54
-54
-54
-54
-54
-54
-53
-53
-53
-53
-52
-53
-53
-53
-53
-53
-53
-53
-54
-53
-54
-54
-55
-55
-56
-56
-56
-56
-57
-57
-57
-57
-57
-57
-57
-58
-58
-58
-58
-59
-58
-58
-58
-57
-58
-58
-57
-57
-57
-57
-57
-57
-56
-56
-56
-57
-57
-57
-57
-57
-57
-56
-57
-57
-57
-57
-57
-57
-57
-57
-57
-57
-57
-57
-57
-58
-58
-58
-59
-59
-59
-60
-60
-61
-61
-61
-61
-62
-62
-62
-62
-62
-62
-62
-62
-61
-62
-62
-62
-62
-62
-62
-63
-63
-64
-63
-63
-62
-62
-63
-63
-64
-64
-64
-64
-64
-64
-65
-64
-65
-66
-66
-66
-66
-66
-66
-66
-65
-66
-66
-66
-66
-67
-66
-66
-67
-67
-67
-66
-66
-66
-66
-66
-67
-67
-67
-66
-67
-67
-67
-67
-66
-66
-66
-66
-65
-66
-66
-65
-65
-65
-66
-65
-65
-64
-64
-64
-64
-64
-64
-64
-64
-63
-63
-63
-63
-64
-63
-63
-63
-63
-62
-62
-62
-62
-61
-61
-60
-60
-59
-59
-59
-58
-58
-57
-57
-56
-56
-55
-55
-54
-54
-54
-54
-53
-52
-52
-52
-52
-52
-51
-52
-52
-52
-52
-53
-53
-54
-54
-55
-56
-57
-58
-59
-60
-60
-61
-62
-62
-63
-64
-65
-65
-65
-65
-66
-67
-68
-67
-67
-68
-69
-69
-69
-70
-69
-69
-70
-70
-70
-70
-70
-70
-70
-69
-70
-69
-69
-68
-68
-68
-67
-67
-66
-65
-65
-64
-63
-63
-63
-62
-62
-62
-62
-63
-63
-63
-64
-64
-65
-66
-67
-67
-69
-69
-69
-70
-71
-72
-72
-73
-73
-74
-74
-74
-74
-75
-75
-74
-75
-74
-74
-75
-74
-73
-73
-72
-72
-71
-70
-70
-69
-68
-68
-68
-68
-68
-67
-67
-67
-67
-67
-68
-68
-67
-68
-69
-69
-69
-70
-69
-69
-70
-70
-71
-71
-72
-72
-73
-73
-74
-73
-73
-73
-73
-72
-71
-70
-69
-67
-65
-64
-62
-60
-59
-56
-55
-53
-52
-49
-46
-44
-40
-37
-33
-28
-22
-17
-11
-5
1
6
13
20
26
33
38
43
48
51
54
54
53
51
47
41
33
24
11
-3
-20
-36
-56
-77
-100
-126
-151
-177
-204
-231
-258
-285
-309
-334
-356
-377
-396
-414
-430
-442
-453
-462
-468
-472
-474
-473
-471
-466
-460
-452
-443
-433
-422
-411
-399
-386
-372
-359
-346
-331
-318
-304
-291
-277
-265
-252
-240
-227
-215
-204
-194
-184
-173
-164
-156
-147
-140
-132
-125
-119
-112
-107
-102
-97
-93
-89
-86
-83
-79
-78
-75
-73
-72
-70
-69
-67
-67
-66
-65
-64
-64
-63
-64
-63
-63
-63
-63
-63
-63
-63
-63
-64
-64
-64
-64
-64
-63
-63
-63
-63
-62
-62
-63
-62
-62
-62
-62
-61
-61
-60
-60
-60
-60
-59
-59
-59
-58
-58
-57
-57
-56
-56
-55
-54
-54
-54
-54
-53
-53
-53
-53
-53
-52
-53
-53
-53
-52
-52
-52
-52
-53
-52
-52
-52
-53
-53
-53
-54
-54
-55
-55
-54
-54
-54
-54
-55
-55
-54
-54
-54
-53
-53
-53
-52
-52
-52
-51
-51
-51
-50
-50
-50
-49
-50
-49
-48
-48
-48
-48
-48
-47
-47
-47
-47
-47
-47
-47
-47
-46
-46
-45
-45
-46
-46
-45
-44
-44
-43
-42
-42
-41
-41
-40
-40
-39
-38
-38
-37
-36
-36
-35
-35
-35
-34
-34
-33
-32
-31
-31
-29
-29
-28
-28
-27
-26
-25
-25
-25
-24
-22
-21
-20
-20
-19
-18
-17
-16
-14
-13
-12
-11
-11
-9
-8
-8
-7
-7
-5
-5
-3
-3
-3
-3
-2
-1
-1
0
0
1
1
1
1
2
3
3
2
2
3
3
3
3
3
3
3
3
3
4
4
3
3
3
2
3
2
2
2
1
1
0
0
-1
-1
-2
-2
-3
-4
-4
-5
-5
-6
-6
-8
-8
-8
-10
-11
-11
-12
-12
-13
-13
-15
-15
-16
-16
-18
-18
-18
-20
-20
-20
-21
-21
-23
-23
-24
-24
-25
-25
-27
-27
-28
-28
-29
-30
-31
-31
-31
-31
-32
-32
-32
-33
-34
-34
-34
-34
-35
-36
-37
-38
-39
-39
-40
-41
-42
-43
-43
-45
-45
-46
-47
-48
-49
-50
-51
-51
-52
-53
-52
-54
-54
-55
-55
-56
-57
-56
-57
-57
-57
-57
-57
-57
-58
-58
-59
-59
-59
-59
-59
-59
-60
-60
-60
-61
-61
-60
-61
-61
-62
-62
-63
-63
-63
-63
-65
-65
-65
-65
-66
-66
-67
-67
-67
-67
-67
-67
-66
-66
-66
-66
-66
-66
-66
-66
-66
-66
-65
-66
-65
-65
-66
-66
-66
-66
-66
-66
-66
-66
-66
-65
-65
-65
-64
-64
-64
-65
-63
-63
-63
-63
-63
-63
-64
-64
-64
-63
-64
-64
-64
-65
-65
-65
-66
-66
-66
-66
-66
-66
-67
-67
-68
-68
-69
-68
-68
-68
-68
-68
-68
-68
-68
-68
-68
-68
-68
-68
-67
-67
-66
-66
-66
-67
-66
-66
-66
-65
-66
-66
-66
-65
-65
-65
-66
-66
-66
-66
-67
-67
-67
-68
-69
-69
-69
-70
-71
-70
-71
-71
-70
-70
-70
-70
-70
-70
-70
-70
-69
-69
-70
-69
-69
-69
-69
-68
-68
-68
-68
-68
-68
-68
-68
-68
-69
-69
-70
-70
-71
-71
-71
-72
-73
-73
-75
-75
-75
-76
-76
-76
-76
-76
-76
-77
-76
-76
-76
-76
-77
-76
-76
-76
-76
-77
-77
-77
-77
-77
-77
-77
-77
-77
-77
-78
-77
-78
-78
-78
-78
-78
-77
-77
-78
-77
-77
-77
-76
-76
-76
-76
-76
-76
-76
-76
-76
-75
-75
-76
-76
-76
-77
-76
-77
-78
-78
-78
-78
-79
-78
-79
-79
-79
-79
-80
-79
-79
-80
-80
-79
-80
-80
-80
-80
-80
-79
-79
-79
-79
-78
-78
-78
-78
-78
-78
-77
-77
-77
-77
-76
-76
-76
-76
-75
-74
-74
-74
-73
-73
-72
-71
-71
-71
-71
-71
-70
-69
-69
-69
-69
-69
-69
-69
-69
-69
-69
-69
-69
-68
-68
-68
-68
-68
-68
-68
-69
-68
-69
-69
-69
-70
-70
-70
-71
-71
-71
-72
-73
-73
-73
-73
-74
-75
-75
-75
-75
-75
-76
-76
-76
-77
-76
-76
-76
-76
-76
-76
-76
-76
-76
-76
-76
-76
-75
-75
-75
-76
-75
-76
-76
-76
-77
-77
-78
-78
-79
-79
-79
-79
-80
-80
-80
-80
-81
-81
-81
-81
-81
-82
-82
-81
-82
-81
-82
-81
-81
-82
-82
-81
-81
-81
-80
-80
-79
-79
-80
-81
-81
-80
-80
-81
-81
-82
-82
-83
-84
-84
-85
-86
-85
-86
-86
-87
-86
-87
-87
-88
-88
-88
-88
-88
-88
-87
-87
-87
-87
-87
-87
-86
-86
-85
-85
-85
-85
-85
-84
-83
-83
-84
-84
-83
-84
-84
-85
-85
-84
-84
-84
-83
-84
-83
-82
-81
-81
-79
-78
-77
-77
-75
-74
-73
-71
-70
-68
-65
-64
-60
-56
-52
-48
-43
-38
-33
-27
-20
-14
-7
-1
7
13
19
25
31
35
39
42
42
42
39
36
30
22
12
0
-15
-31
-50
-70
-92
-116
-141
-167
-195
-222
-249
-276
-302
-327
-351
-374
-395
-414
-432
-447
-461
-472
-480
-486
-491
-491
-490
-487
-483
-476
-468
-459
-449
-438
-426
-415
-402
-388
-375
-361
-348
-334
-321
-309
-295
-282
-269
-258
-245
-233
-222
-211
-200
-189
-180
-170
-161
-152
-144
-138
-132
-126
-119
-115
-110
-106
-102
-99
-96
-94
-91
-90
-89
-87
-86
-85
-85
-83
-83
-82
-81
-82
-81
-81
-81
-80
-80
-80
-80
-80
-79
-79
-78
-79
-78
-79
-78
-77
-76
-77
-76
-75
-75
-74
-74
-74
-73
-72
-72
-72
-71
-71
-71
-71
-71
-70
-70
-70
-70
-70
-69
-69
-69
-69
-70
-70
-70
-70
-70
-70
-70
-69
-70
-69
-69
-69
-69
-69
-69
-68
-68
-68
-67
-67
-67
-67
-67
-66
-67
-67
-66
-66
-66
-66
-65
-65
-64
-64
-64
-63
-63
-63
-64
-64
-64
-64
-63
-63
-63
-63
-63
-64
-64
-64
-63
-63
-63
-63
-63
-62
-62
-61
-61
-61
-61
-60
-60
-58
-58
-58
-57
-57
-57
-56
-55
-54
-53
-52
-52
-51
-51
-51
-51
-51
-51
-50
-50
-50
-50
-49
-49
-49
-49
-47
-47
-46
-45
-44
-44
-42
-41
-39
-39
-37
-36
-35
-35
-33
-32
-31
-30
-29
-28
-28
-27
-26
-24
-24
-23
-23
-21
-21
-20
-19
-19
-18
-17
-17
-16
-15
-15
-14
-14
-13
-12
-11
-11
-10
-10
-10
-10
-9
-8
-8
-8
-8
-7
-7
-7
-7
-7
-7
-7
-7
-6
-6
-6
-6
-5
-6
-6
-6
-7
-6
-7
-8
-7
-7
-8
-8
-9
-9
-9
-9
-9
-9
-8
-9
-9
-10
-11
-11
-12
-11
-12
-14
-14
-14
-15
-17
-18
-19
-20
-21
-22
-23
-24
-24
-25
-26
-27
-28
-28
-30
-30
-30
-31
-31
-32
-32
-34
-34
-34
-34
-35
-35
-36
-36
-37
-38
-38
-38
-40
-41
-41
-42
-42
-43
-44
-45
-45
-46
-48
-48
-49
-50
-51
-52
-53
-53
-54
-56
-56
-57
-57
-58
-59
-60
-60
-60
-61
-62
-61
-61
-61
-61
-61
-61
-60
-60
-61
-61
-61
-61
-61
-61
-62
-62
-62
-62
-62
-63
-63
-63
-64
-64
-65
-65
-66
-66
-66
-66
-67
-67
-67
-67
-67
-67
-67
-67
-67
-67
-67
-67
-67
-67
-66
-66
-66
-66
-66
-66
-66
-66
-67
-67
-66
-67
-67
-67
-67
-67
-67
-67
-66
-66
-66
-66
-65
-65
-65
-66
-66
-66
-66
-66
-66
-67
-67
-67
-67
-67
-69
-68
-68
-68
-68
-67
-67
-68
-68
-68
-68
-68
-68
-68
-68
-68
-68
-69
-68
-69
-70
-70
-70
-69
-69
-69
-69
-69
-69
-69
-70
-70
-71
-71
-70
-70
-70
-70
-70
-71
-71
-70
-70
-69
-69
-69
-69
-69
-68
-69
-69
-69
-69
-69
-69
-68
-69
-69
-68
-69
-69
-69
-69
-69
-68
-68
-68
-68
-68
-68
-68
-68
-68
-68
-68
-69
-68
-68
-69
-69
-68
-68
-68
-68
-68
-68
-67
-68
-68
-68
-68
-69
-69
-68
-69
-69
-69
-69
-70
-70
-70
-70
-71
-71
-71
-71
-72
-72
-72
-72
-74
-74
-74
-75
-74
-75
-75
-76
-76
-76
-76
-76
-75
-76
-75
-75
-75
-75
-74
-74
-74
-74
-74
-74
-74
-74
-74
-74
-74
-74
-74
-74
-75
-74
-74
-75
-75
-75
-75
-76
-76
-77
-77
-77
-77
-77
-77
-77
-78
-77
-78
-78
-77
-77
-77
-76
-76
-76
-76
-76
-75
-76
-75
-75
-75
-75
-75
-76
-75
-76
-75
-75
-75
-75
-73
-73
-73
-73
-72
-72
-72
-71
-72
-72
-70
-70
-70
-69
-70
-69
-69
-69
-68
-68
-68
-68
-67
-67
-67
-67
-67
-67
-67
-66
-66
-66
-66
-65
-65
-65
-65
-65
-65
-65
-65
-64
-64
-65
-64
-65
-64
-65
-66
-66
-67
-67
-67
-67
-67
-69
-70
-70
-70
-71
-72
-72
-73
-73
-74
-73
-74
-75
-75
-75
-75
-76
-76
-77
-77
-77
-78
-78
-78
-78
-78
-77
-77
-76
-76
-75
-74
-74
-74
-74
-73
-73
-72
-71
-72
-72
-71
-71
-72
-72
-72
-72
-72
-73
-73
-73
-74
-74
-75
-75
-75
-75
-76
-76
-76
-76
-76
-77
-77
-77
-77
-77
-77
-77
-76
-77
-76
-77
-77
-78
-78
-78
-78
-78
-79
-79
-79
-80
-80
-79
-79
-80
-80
-81
-80
-80
-81
-81
-81
-81
-81
-81
-81
-80
-81
-80
-80
-79
-79
-78
-78
-78
-76
-77
-77
-77
-77
-76
-76
-76
-75
-76
-76
-74
-75
-75
-74
-73
-73
-72
-70
-69
-68
-66
-65
-64
-63
-61
-59
-58
-57
-55
-52
-50
-47
-43
-39
-36
-31
-26
-21
-16
-10
-4
1
6
11
16
20
24
27
28
28
28
25
21
17
10
0
-9
-22
-37
-53
-70
-89
-109
-131
-153
-176
-200
-223
-246
-269
-291
-312
-332
-350
-366
-382
-395
-406
-415
-422
-426
-427
-428
-427
-422
-417
-411
-403
-395
-385
-375
-364
-353
-342
-331
-319
-308
-297
-286
-275
-264
-253
-243
-233
-224
-214
-205
-196
-187
-179
-170
-162
-154
-147
-140
-132
-126
-120
-114
-108
-104
-98
-95
-90
-88
-85
-82
-80
-77
-75
-73
-73
-72
-71
-69
-68
-68
-67
-66
-67
-66
-67
-67
-67
-68
-68
-68
-68
-69
-69
-69
-69
-69
-70
-69
-69
-68
-69
-69
-68
-68
-67
-67
-68
-67
-66
-66
-66
-65
-65
-64
-64
-64
-64
-63
-63
-64
-63
-63
-63
-63
-64
-64
-65
-64
-64
-65
-65
-65
-65
-66
-65
-66
-66
-65
-66
-65
-65
-65
-65
-64
-64
-63
-63
-63
-63
-62
-61
-60
-61
-61
-61
-61
-61
-60
-60
-60
-60
-60
-60
-60
-60
-61
-60
-60
-61
-60
-60
-60
-60
-61
-60
-60
-60
-60
-60
-59
-59
-58
-58
-57
-57
-56
-56
-56
-56
-55
-55
-54
-53
-53
-53
-53
-53
-52
-51
-50
-50
-50
-49
-49
-48
-47
-47
-47
-46
-45
-46
-45
-45
-45
-46
-46
-46
-46
-46
-46
-45
-46
-45
-45
-45
-45
-45
-44
-44
-43
-42
-42
-42
-41
-41
-40
-39
-39
-37
-37
-35
-35
-34
-33
-32
-32
-32
-31
-31
-31
-29
-29
-29
-29
-29
-28
-28
-28
-28
-27
-28
-27
-27
-27
-27
-27
-28
-28
-28
-29
-28
-29
-29
-29
-29
-30
-29
-29
-29
-29
-29
-30
-30
-29
-30
-30
-29
-30
-30
-30
-30
-30
-31
-32
-32
-33
-34
-33
-34
-34
-35
-36
-36
-36
-37
-37
-38
-39
-40
-41
-42
-42
-43
-44
-45
-46
-46
-47
-46
-47
-47
-48
-48
-49
-49
-50
-51
-51
-51
-51
-52
-52
-52
-52
-53
-52
-53
-53
-53
-53
-53
-53
-53
-53
-52
-53
-53
-53
-53
-53
-53
-53
-54
-54
-54
-55
-56
-57
-56
-57
-56
-57
-57
-58
-59
-60
-60
-61
-62
-62
-62
-62
-62
-63
-63
-64
-64
-64
-64
-64
-64
-64
-64
-64
-64
-65
-65
-65
-64
-64
-65
-64
-64
-64
-65
-65
-65
-65
-66
-66
-66
-66
-66
-67
-67
-67
-67
-67
-67
-67
-67
-68
-68
-68
-68
-68
-68
-68
-68
-68
-68
-68
-68
-68
-68
-68
-68
-68
-69
-69
-69
-69
-70
-70
-69
-70
-70
-70
-69
-69
-69
-68
-69
-69
-69
-69
-69
-68
-68
-67
-67
-67
-67
-66
-66
-66
-66
-66
-66
-65
-65
-65
-65
-64
-65
-65
-64
-64
-64
-64
-65
-64
-64
-65
-65
-67
-67
-66
-67
-67
-67
-67
-68
-68
-68
-68
-68
-68
-69
-69
-69
-69
-69
-69
-69
-69
-68
-68
-68
-68
-68
-67
-67
-67
-67
-67
-67
-67
-68
-68
-68
-68
-68
-68
-69
-69
-70
-70
-70
-70
-70
-70
-70
-70
-71
-71
-71
-71
-71
-71
-71
-71
-71
-72
-72
-71
-72
-72
-72
-72
-71
-71
-72
-71
-71
-71
-71
-71
-70
-70
-70
-70
-70
-69
-69
-69
-70
-70
-70
-70
-70
-69
-69
-69
-69
-70
-69
-69
-69
-69
-69
-69
-70
-70
-70
-71
-71
-71
-70
-71
-71
-72
-72
-72
-72
-73
-73
-73
-74
-74
-74
-74
-75
-75
-75
-76
-76
-76
-76
-76
-76
-76
-75
-75
-75
-74
-74
-74
-74
-75
-74
-73
-74
-74
-74
-74
-74
-74
-73
-73
-73
-73
-72
-73
-72
-72
-72
-72
-72
-72
-72
-72
-72
-72
-72
-72
-72
-71
-71
-71
-70
-70
-69
-69
-69
-68
-68
-68
-67
-67
-67
-67
-67
-66
-66
-67
-67
-67
-67
-67
-68
-69
-70
-70
-71
-71
-72
-73
-74
-74
-74
-75
-75
-74
-75
-75
-75
-75
-75
-75
-75
-75
-76
-76
-75
-75
-75
-75
-74
-75
-75
-75
-75
-76
-76
-75
-75
-75
-74
-74
-73
-73
-73
-72
-72
-72
-72
-71
-70
-70
-70
-69
-70
-71
-70
-71
-71
-72
-72
-72
-72
-73
-73
-74
-74
-74
-75
-75
-76
-77
-77
-77
-77
-78
-78
-79
-79
-79
-79
-79
-79
-79
-79
-78
-79
-79
-79
-79
-80
-80
-80
-79
-80
-80
-81
-81
-81
-81
-81
-81
-81
-81
-80
-80
-79
-79
-78
-78
-78
-77
-78
-76
-76
-76
-76
-76
-76
-75
-74
-75
-74
-75
-75
-75
-75
-75
-76
-76
-76
-76
-75
-75
-74
-73
-71
-70
-69
-68
-67
-66
-64
-62
-62
-60
-59
-58
-57
-55
-53
-52
-49
-47
-44
-41
-38
-34
-30
-26
-21
-17
-12
-8
-3
1
5
9
11
12
14
13
11
9
4
-1
-10
-19
-29
-42
-56
-71
-88
-107
-126
-146
-167
-188
-209
-230
-251
-271
-290
-307
-323
-338
-352
-364
-372
-380
-384
-386
-388
-387
-385
-381
-375
-369
-362
-354
-345
-336
-326
-316
-307
-298
-288
-278
-269
-260
-250
-241
-232
-223
-214
-206
-198
-190
-182
-175
-167
-160
-152
-146
-140
-133
-127
-123
-117
-112
-108
-104
-100
-97
-94
-91
-89
-88
-86
-84
-83
-81
-80
-80
-79
-78
-78
-77
-77
-77
-76
-76
-76
-76
-76
-76
-76
-77
-76
-76
-76
-76
-76
-75
-76
-76
-75
-74
-74
-74
-74
-73
-73
-72
-72
-72
-70
-70
-70
-70
-70
-70
-70
-69
-69
-70
-69
-69
-69
-69
-68
-68
-68
-67
-67
-66
-66
-66
-66
-66
-66
-66
-65
-65
-65
-65
-65
-65
-65
-66
-66
-66
-66
-66
-66
-66
-66
-67
-67
-67
-68
-68
-68
-67
-67
-67
-67
-67
-66
-66
-66
-65
-65
-65
-65
-64
-64
-64
-64
-63
-64
-64
-63
-63
-63
-64
-64
-64
-64
-64
-65
-65
-66
-66
-66
-66
-66
-67
-67
-68
-68
-68
-67
-67
-67
-67
-66
-67
-66
-66
-65
-64
-63
-63
-61
-61
-61
-59
-59
-58
-58
-58
-57
-56
-56
-55
-55
-55
-54
-54
-53
-53
-53
-52
-52
-51
-51
-51
-50
-50
-49
-49
-49
-49
-48
-48
-47
-47
-48
-47
-47
-47
-46
-45
-45
-44
-45
-44
-44
-44
-45
-44
-43
-43
-44
-43
-43
-43
-43
-43
-42
-42
-42
-42
-42
-42
-42
-42
-41
-42
-42
-42
-42
-42
-42
-43
-42
-43
-43
-44
-44
-45
-45
-45
-45
-46
-46
-47
-47
-48
-49
-49
-50
-50
-49
-50
-51
-51
-51
-52
-52
-52
-53
-54
-54
-54
-54
-55
-55
-56
-57
-57
-58
-58
-58
-58
-60
-60
-61
-60
-61
-61
-61
-61
-61
-62
-61
-62
-62
-62
-62
-63
-64
-63
-64
-64
-65
-66
-66
-67
-67
-68
-68
-69
-68
-69
-69
-70
-71
-71
-71
-71
-71
-71
-72
-72
-72
-72
-72
-73
-73
-73
-73
-73
-73
-74
-74
-75
-76
-76
-76
-77
-78
-78
-79
-79
-80
-81
-82
-82
-82
-83
-83
-83
-83
-83
-83
-84
-85
-85
-84
-84
-84
-84
-84
-85
-85
-85
-85
-85
-86
-86
-86
-86
-86
-86
-86
-86
-87
-86
-87
-87
-87
-87
-87
-87
-87
-87
-88
-87
-87
-86
-86
-86
-86
-86
-86
-86
-86
-87
-87
-88
-88
-88
-88
-88
-87
-88
-88
-88
-88
-88
-87
-87
-87
-87
-87
-87
-88
-87
-88
-88
-89
-88
-88
-89
-89
-89
-89
-89
-89
-89
-89
-89
-89
-89
-89
-90
-90
-89
-89
-89
-89
-89
-89
-89
-89
-90
-90
-90
-90
-89
-90
-90
-90
-90
-90
-90
-90
-90
-90
-90
-90
-90
-90
-89
-89
-89
-88
-88
-88
-89
-89
-87
-88
-87
-87
-87
-87
-87
-87
-87
-87
-87
-87
-87
-88
-87
-87
-88
-88
-88
-88
-88
-89
-89
-89
-89
-89
-90
-90
-90
-90
-90
-90
-91
-91
-91
-91
-91
-91
-92
-92
-92
-92
-93
-93
-93
-94
-94
-95
-95
-96
-96
-96
-97
-97
-97
-97
-97
-97
-98
-98
-98
-98
-98
-98
-98
-98
-98
-98
-98
-98
-98
-98
-99
-99
-99
-99
-99
-98
-98
-97
-97
-97
-97
-96
-97
-97
-96
-96
-96
-97
-97
-97
-97
-97
-97
-96
-96
-96
-96
-97
-97
-96
-96
-96
-96
-95
-96
-95
-95
-95
-95
-95
-95
-95
-95
-95
-94
-94
-94
-94
-95
-95
-95
-95
-95
-95
-95
-95
-95
-95
-95
-94
-94
-93
-93
-93
-92
-92
-91
-90
-90
-89
-90
-89
-90
-91
-91
-92
-93
-93
-94
-95
-97
-98
-99
-100
-101
-102
-103
-104
-104
-105
-106
-106
-106
-107
-107
-107
-107
-106
-107
-106
-106
-106
-105
-105
-105
-105
-104
-104
-104
-104
-102
-102
-102
-102
-101
-101
-100
-100
-100
-100
-100
-100
-100
-100
-99
-100
-100
-100
-100
-100
-100
-101
-101
-102
-102
-102
-103
-103
-104
-105
-105
-105
-106
-107
-107
-107
-107
-108
-108
-108
-108
-108
-108
-108
-109
-109
-109
-109
-109
-110
-110
-110
-110
-110
-110
-111
-111
-111
-110
-110
-110
-110
-110
-110
-110
-111
-111
-111
-110
-110
-111
-110
-110
-110
-110
-110
-111
-111
-110
-110
-110
-110
-110
-110
-110
-110
-110
-109
-110
-110
-110
-110
-109
-109
-109
-108
-107
-106
-105
-104
-102
-102
-100
-99
-98
-97
-95
-94
-92
-90
-88
-87
-84
-81
-78
-74
-70
-66
-60
-56
-50
-45
-40
-34
-29
-23
-18
-15
-10
-7
-5
-5
-5
-6
-10
-14
-21
-28
-38
-51
-64
-78
-95
-113
-133
-154
-177
-200
-223
-247
-270
-294
-315
-336
-357
-375
-392
-408
-421
-433
-442
-449
-455
-458
-459
-458
-455
-452
-446
-438
-431
-422
-413
-402
-392
-381
-370
-359
-348
-337
-326
-315
-304
-294
-283
-274
-264
-253
-244
-235
-226
-217
-208
-200
-192
-184
-176
-169
-163
-156
-151
-146
-141
-137
-133
-129
-126
-124
-121
-120
-117
-116
-114
-113
-113
-112
-111
-111
-110
-110
-110
-109
-109
-109
-109
-109
-109
-108
-108
-108
-108
-108
-108
-107
-107
-107
-106
-107
-107
-106
-106
-106
-106
-106
-105
-105
-105
-104
-104
-104
-105
-105
-104
-104
-104
-103
-103
-104
-103
-103
-103
-103
-102
-103
-103
-103
-103
-103
-103
-103
-103
-103
-103
-102
-102
-102
-101
-101
-101
-101
-101
-100
-100
-100
-100
-101
-101
-100
-100
-100
-100
-100
-101
-101
-101
-100
-100
-100
-100
-99
-99
-100
-100
-100
-100
-99
-99
-98
-98
-98
-98
-98
-97
-97
-97
-96
-96
-96
-95
-95
-96
-96
-95
-95
-95
-95
-95
-95
-96
-96
-96
-96
-96
-96
-96
-95
-95
-94
-94
-93
-93
-92
-91
-90
-90
-88
-88
-87
-87
-86
-86
-86
-85
-85
-84
-84
-83
-82
-82
-81
-81
-80
-79
-79
-78
-78
-77
-76
-76
-76
-74
-74
-74
-73
-73
-71
-71
-70
-68
-68
-68
-67
-66
-66
-65
-65
-65
-64
-64
-63
-63
-63
-62
-62
-61
-61
-61
-59
-59
-59
-58
-58
-57
-57
-57
-56
-57
-57
-57
-56
-57
-57
-57
-57
-57
-57
-58
-57
-58
-58
-59
-59
-59
-60
-59
-60
-60
-60
-60
-60
-61
-61
-62
-63
-63
-63
-64
-64
-64
-65
-66
-66
-67
-68
-69
-70
-71
-71
-72
-72
-74
-74
-75
-76
-76
-76
-76
-77
-78
-78
-78
-78
-78
-79
-79
-79
-79
-79
-79
-80
-80
-81
-80
-81
-82
-82
-82
-82
-83
-83
-84
-84
-85
-87
-87
-88
-88
-89
-90
-91
-91
-93
-93
-94
-94
-94
-95
-96
-96
-97
-97
-98
-98
-99
-99
-100
-102
-102
-103
-103
-104
-106
-105
-106
-107
-107
-108
-108
-108
-108
-109
-109
-109
-110
-110
-111
-111
-111
-111
-112
-112
-112
-113
-113
-115
-115
-115
-115
-115
-115
-116
-116
-117
-117
-117
-117
-117
-117
-118
-118
-117
-117
-118
-117
-117
-117
-116
-116
-115
-115
-115
-115
-114
-114
-114
-114
-115
-115
-115
-115
-115
-115
-115
-115
-115
-116
-115
-115
-116
-116
-116
-116
-116
-117
-117
-117
-117
-118
-118
-118
-119
-119
-119
-120
-120
-120
-119
-119
-120
-119
-119
-119
-119
-119
-120
-119
-119
-119
-119
-119
-119
-118
-119
-118
-118
-118
-119
-118
-118
-118
-118
-118
-118
-118
-118
-118
-118
-118
-117
-117
-117
-118
-118
-117
-118
-118
-117
-117
-117
-117
-117
-117
-118
-118
-118
-118
-119
-119
-120
-120
-121
-121
-121
-122
-122
-121
-122
-122
-123
-123
-123
-123
-123
-123
-124
-124
-124
-123
-123
-124
-124
-125
-124
-124
-124
-125
-125
-125
-124
-124
-124
-124
-124
-124
-124
-123
-123
-123
-124
-124
-124
-124
-125
-124
-124
-124
-124
-125
-125
-125
-125
-126
-126
-126
-126
-127
-127
-127
-128
-128
-128
-129
-128
-129
-129
-129
-129
-129
-129
-130
-130
-130
-130
-131
-131
-131
-131
-131
-132
-132
-132
-131
-131
-132
-131
-130
-130
-130
-130
-130
-129
-129
-129
-128
-128
-127
-127
-127
-126
-126
-126
-126
-126
-126
-126
-126
-126
-126
-127
-126
-127
-127
-128
-128
-129
-129
-130
-131
-130
-131
-131
-132
-132
-133
-133
-133
-133
-133
-133
-133
-132
-133
-132
-132
-131
-131
-131
-130
-129
-129
-129
-128
-128
-127
-126
-126
-126
-125
-125
-124
-124
-124
-124
-123
-124
-123
-124
-124
-124
-123
-124
-123
-123
-124
-123
-124
-124
-124
-124
-124
-124
-124
-125
-125
-125
-126
-127
-127
-127
-128
-128
-128
-129
-128
-129
-128
-128
-129
-128
-128
-128
-127
-127
-127
-127
-128
-129
-129
-129
-129
-131
-131
-132
-132
-133
-134
-134
-135
-135
-135
-135
-135
-136
-136
-135
-135
-136
-135
-134
-135
-135
-135
-134
-134
-134
-133
-133
-132
-132
-132
-132
-131
-131
-132
-133
-133
-133
-133
-133
-134
-134
-135
-135
-135
-137
-136
-137
-138
-138
-138
-138
-139
-139
-138
-140
-140
-140
-140
-140
-140
-140
-141
-141
-140
-140
-140
-141
-140
-139
-139
-140
-140
-139
-139
-139
-139
-139
-139
-139
-139
-138
-138
-138
-137
-137
-137
-136
-136
-136
-136
-136
-135
-135
-135
-135
-135
-136
-136
-136
-136
-137
-137
-137
-136
-136
-135
-135
-134
-133
-131
-132
-130
-129
-128
-127
-125
-123
-120
-119
-115
-113
-110
-106
-101
-97
-90
-85
-78
-72
-65
-58
-51
-45
-39
-32
-27
-21
-18
-15
-13
-13
-15
-19
-24
-31
-40
-51
-64
-80
-97
-115
-137
-159
-184
-209
-237
-263
-290
-316
-341
-366
-390
-413
-434
-453
-471
-486
-499
-510
-519
-525
-528
-530
-530
-527
-523
-517
-509
-500
-490
-479
-469
-456
-443
-431
-417
-404
-391
-377
-365
-351
-338
-326
-314
-301
-290
-278
-267
-256
-246
-237
-228
-220
-212
-205
-198
-190
-184
-179
-174
-168
-165
-160
-156
-153
-151
-149
-147
-145
-143
-141
-141
-140
-139
-138
-138
-137
-137
-137
-137
-136
-137
-136
-137
-136
-137
-137
-136
-136
-136
-136
-136
-136
-135
-135
-134
-134
-133
-133
-133
-132
-132
-131
-131
-131
-131
-130
-131
-130
-130
-130
-131
-130
-130
-130
-130
-129
-129
-128
-129
-129
-129
-128
-129
-129
-129
-129
-129
-130
-130
-130
-130
-130
-130
-130
-130
-129
-129
-129
-128
-128
-128
-128
-127
-126
-126
-126
-125
-125
-125
-125
-125
-124
-125
-125
-124
-124
-124
-123
-123
-123
-123
-123
-124
-123
-123
-123
-122
-123
-123
-122
-122
-121
-122
-121
-122
-121
-122
-121
-121
-120
-120
-121
-120
-120
-120
-119
-119
-118
-119
-118
-118
-117
-117
-117
-116
-115
-113
-113
-112
-111
-110
-109
-109
-108
-107
-107
-106
-105
-105
-103
-103
-102
-102
-101
-100
-99
-99
-98
-98
-97
-97
-96
-96
-94
-94
-93
-92
-92
-90
-90
-89
-89
-88
-87
-85
-85
-83
-81
-81
-79
-79
-77
-77
-76
-74
-74
-73
-72
-72
-71
-70
-70
-69
-69
-68
-68
-67
-66
-66
-66
-65
-65
-65
-65
-65
-66
-66
-66
-66
-65
-66
-66
-66
-67
-67
-67
-67
-67
-68
-68
-67
-68
-69
-68
-69
-69
-70
-70
-70
-71
-72
-71
-72
-72
-72
-72
-72
-72
-72
-73
-73
-72
-73
-73
-73
-74
-74
-75
-75
-76
-77
-77
-78
-80
-80
-81
-81
-82
-83
-84
-84
-86
-87
-88
-88
-90
-90
-92
-92
-93
-95
-96
-97
-97
-97
-99
-99
-100
-101
-102
-102
-104
-104
-105
-105
-107
-107
-108
-109
-109
-111
-111
-112
-112
-113
-113
-113
-114
-115
-116
-116
-117
-117
-118
-119
-120
-121
-121
-122
-123
-123
-123
-124
-125
-126
-127
-127
-127
-129
-129
-129
-131
-131
-131
-131
-131
-131
-132
-132
-133
-133
-133
-133
-133
-133
-133
-134
-134
-134
-134
-134
-134
-134
-136
-136
-136
-136
-136
-136
-137
-137
-138
-137
-137
-137
-137
-137
-136
-136
-136
-136
-136
-135
-135
-136
-136
-136
-135
-136
-137
-137
-137
-138
-137
-138
-137
-137
-137
-137
-137
-137
-137
-137
-136
-136
-136
-136
-134
-134
-135
-135
-134
-135
-134
-134
-134
-134
-133
-133
-133
-133
-133
-133
-133
-134
-134
-135
-135
-135
-135
-135
-136
-136
-136
-136
-136
-136
-136
-136
-135
-135
-136
-136
-136
-136
-136
-136
-136
-135
-135
-136
-135
-135
-135
-135
-135
-135
-135
-135
-135
-135
-135
-135
-135
-136
-136
-136
-136
-136
-136
-137
-137
-138
-138
-139
-138
-138
-138
-138
-138
-138
-138
-137
-137
-138
-138
-138
-137
-137
-138
-138
-138
-139
-138
-139
-139
-139
-139
-140
-140
-140
-141
-141
-141
-142
-142
-142
-143
-143
-143
-144
-144
-145
-145
-145
-144
-144
-144
-144
-144
-144
-144
-144
-144
-144
-144
-144
-144
-144
-144
-144
-144
-145
-145
-145
-144
-144
-144
-145
-145
-145
-145
-145
-145
-146
-146
-145
-145
-146
-146
-146
-146
-147
-147
-146
-146
-147
-146
-146
-146
-146
-146
-147
-146
-147
-147
-147
-147
-147
-147
-147
-147
-147
-146
-147
-146
-146
-146
-146
-146
-146
-145
-145
-144
-145
-145
-146
-145
-145
-146
-146
-146
-147
-147
-147
-148
-148
-148
-148
-148
-149
-149
-149
-149
-150
-151
-151
-150
-150
-151
-151
-151
-151
-151
-151
-151
-150
-149
-149
-148
-148
-148
-147
-147
-147
-146
-146
-145
-145
-144
-143
-144
-144
-143
-143
-143
-142
-142
-142
-141
-141
-140
-140
-140
-140
-140
-140
-140
-139
-139
-139
-140
-138
-139
-138
-138
-137
-138
-137
-138
-138
-139
-138
-139
-139
-140
-140
-141
-141
-142
-143
-143
-144
-145
-145
-145
-145
-146
-146
-146
-146
-146
-147
-146
-146
-147
-147
-147
-146
-147
-147
-147
-148
-148
-148
-148
-149
-149
-150
-150
-150
-150
-149
-150
-151
-151
-151
-150
-151
-151
-151
-151
-150
-150
-150
-149
-149
-149
-149
-149
-149
-150
-149
-149
-151
-150
-151
-151
-152
-152
-153
-153
-154
-154
-154
-155
-154
-154
-155
-155
-156
-156
-155
-155
-156
-156
-155
-155
-155
-155
-155
-156
-156
-156
-157
-156
-156
-156
-156
-156
-156
-156
-156
-156
-156
-156
-156
-156
-156
-156
-156
-156
-156
-156
-155
-155
-155
-154
-154
-154
-154
-154
-153
-153
-154
-154
-154
-153
-153
-154
-153
-153
-153
-152
-151
-150
-150
-148
-147
-145
-144
-144
-142
-140
-140
-138
-135
-133
-131
-128
-125
-121
-116
-112
-106
-100
-94
-88
-80
-73
-67
-59
-52
-45
-39
-33
-28
-26
-23
-22
-23
-26
-30
-36
-44
-54
-67
-81
-99
-117
-137
-159
-184
-210
-237
-264
-291
-318
-345
-371
-396
-420
-442
-462
-481
-497
-512
-524
-534
-541
-546
-549
-549
-547
-544
-538
-532
-523
-514
-504
-493
-481
-469
-457
-444
-431
-418
-405
-392
-379
-366
-354
-341
-329
-317
-305
-295
-283
-273
-262
-252
-244
-235
-227
-219
-212
-205
-200
-193
-189
-183
-179
-174
-170
-167
-165
-162
-159
-157
-156
-154
-153
-151
-150
-149
-149
-148
-148
-148
-148
-148
-148
-149
-149
-149
-150
-149
-150
-151
-151
-151
-151
-151
-151
-150
-149
-149
-148
-148
-149
-148
-148
-147
-147
-147
-146
-146
-145
-145
-146
-145
-145
-145
-145
-145
-145
-144
-143
-143
-143
-143
-142
-142
-142
-141
-141
-141
-140
-140
-140
-140
-140
-140
-140
-140
-139
-139
-139
-140
-140
-140
-140
-141
-141
-141
-141
-141
-142
-142
-142
-142
-142
-142
-142
-142
-142
-141
-141
-141
-141
-141
-139
-139
-139
-138
-138
-138
-137
-136
-136
-135
-135
-134
-134
-134
-134
-134
-133
-133
-132
-132
-132
-132
-131
-131
-131
-131
-130
-130
-130
-130
-130
-129
-129
-128
-128
-127
-126
-126
-125
-125
-124
-124
-124
-123
-123
-123
-122
-122
-122
-121
-121
-120
-119
-118
-117
-116
-116
-114
-113
-113
-112
-110
-109
-108
-107
-106
-105
-104
-103
-101
-101
-100
-99
-97
-96
-95
-93
-92
-91
-90
-89
-88
-87
-87
-86
-85
-84
-84
-83
-83
-82
-82
-82
-81
-81
-80
-79
-79
-78
-78
-77
-77
-77
-78
-77
-77
-77
-77
-77
-76
-76
-77
-77
-78
-78
-78
-78
-78
-80
-79
-79
-80
-80
-81
-81
-82
-82
-83
-84
-84
-85
-86
-86
-87
-87
-87
-88
-88
-89
-89
-89
-90
-90
-91
-92
-93
-93
-94
-94
-96
-97
-97
-98
-98
-98
-98
-100
-100
-101
-102
-103
-104
-105
-106
-107
-107
-108
-109
-110
-111
-113
-114
-114
-115
-116
-116
-117
-117
-118
-119
-119
-121
-121
-121
-121
-122
-122
-122
-123
-124
-125
-125
-126
-126
-127
-127
-128
-128
-129
-129
-131
-132
-132
-134
-134
-135
-136
-137
-137
-139
-139
-140
-140
-141
-141
-142
-142
-143
-143
-143
-145
-145
-145
-146
-146
-147
-147
-147
-148
-149
-149
-150
-149
-150
-150
-150
-150
-150
-150
-150
-150
-150
-150
-151
-151
-151
-151
-150
-151
-150
-150
-151
-151
-151
-151
-150
-149
-149
-149
-149
-149
-149
-148
-148
-148
-148
-148
-148
-148
-148
-148
-148
-147
-148
-147
-147
-148
-147
-147
-147
-147
-147
-147
-147
-148
-148
-147
-148
-148
-148
-148
-148
-148
-148
-148
-148
-148
-148
-148
-148
-148
-149
-149
-149
-150
-150
-150
-151
-151
-151
-152
-151
-153
-153
-152
-152
-152
-151
-152
-152
-152
-151
-151
-152
-152
-153
-152
-152
-152
-152
-152
-153
-152
-152
-153
-152
-152
-152
-152
-153
-152
-152
-152
-152
-152
-152
-152
-152
-152
-152
-153
-152
-152
-152
-152
-151
-150
-150
-150
-150
-150
-150
-150
-150
-150
-151
-151
-152
-152
-152
-152
-153
-153
-154
-154
-153
-154
-154
-154
-155
-155
-155
-155
-156
-156
-156
-156
-155
-156
-156
-155
-155
-156
-154
-154
-154
-154
-154
-154
-154
-154
-154
-153
-153
-154
-154
-154
-154
-155
-155
-155
-156
-156
-156
-157
-157
-157
-158
-157
-157
-158
-158
-158
-158
-157
-157
-157
-157
-157
-157
-156
-156
-156
-156
-156
-156
-156
-156
-156
-155
-156
-156
-156
-157
-157
-157
-156
-156
-156
-156
-157
-156
-156
-156
-155
-155
-155
-155
-154
-154
-154
-153
-153
-153
-153
-153
-153
-154
-154
-154
-154
-155
-155
-155
-156
-155
-156
-156
-157
-157
-157
-157
-157
-157
-158
-157
-157
-157
-157
-156
-157
-157
-156
-156
-156
-156
-155
-155
-155
-156
-156
-157
-157
-158
-157
-157
-157
-157
-158
-158
-158
-158
-158
-159
-158
-157
-157
-156
-156
-155
-155
-154
-153
-154
-153
-153
-151
-151
-150
-150
-150
-149
-149
-149
-148
-148
-147
-147
-146
-146
-146
-146
-146
-146
-146
-146
-146
-146
-146
-147
-147
-147
-148
-148
-148
-148
-149
-149
-149
-150
-151
-151
-151
-152
-152
-153
-153
-153
-155
-156
-155
-156
-156
-156
-156
-155
-155
-156
-156
-156
-157
-157
-156
-157
-157
-157
-157
-157
-157
-157
-158
-158
-158
-158
-158
-158
-157
-158
-157
-157
-156
-157
-157
-156
-156
-156
-155
-155
-155
-155
-155
-156
-156
-156
-156
-157
-157
-157
-158
-158
-157
-158
-158
-158
-159
-160
-160
-160
-161
-161
-162
-163
-163
-162
-163
-162
-163
-163
-162
-162
-162
-162
-162
-161
-161
-160
-159
-159
-159
-159
-159
-158
-158
-158
-157
-157
-157
-157
-156
-156
-156
-157
-157
-157
-157
-157
-158
-158
-158
-158
-158
-159
-159
-158
-158
-158
-158
-158
-158
-157
-157
-156
-155
-154
-154
-152
-152
-150
-150
-149
-148
-147
-145
-144
-142
-140
-139
-136
-134
-130
-126
-123
-119
-113
-108
-103
-96
-90
-84
-78
-71
-66
-61
-55
-50
-46
-42
-41
-40
-41
-44
-48
-54
-62
-72
-84
-97
-113
-130
-149
-170
-192
-215
-239
-264
-288
-314
-337
-361
-384
-405
-425
-443
-461
-475
-488
-499
-508
-514
-518
-521
-521
-519
-515
-510
-503
-494
-485
-476
-465
-454
-442
-431
-419
-408
-396
-384
-373
-360
-350
-338
-327
-315
-304
-294
-284
-273
-263
-253
-245
-236
-227
-220
-213
-206
-200
-194
-189
-184
-180
-177
-173
-170
-167
-165
-162
-161
-160
-158
-157
-156
-156
-155
-154
-153
-153
-153
-152
-151
-152
-151
-150
-150
-150
-149
-149
-149
-149
-148
-148
-148
-148
-147
-148
-148
-147
-148
-147
-147
-147
-147
-147
-146
-146
-147
-146
-146
-145
-145
-145
-145
-145
-144
-144
-143
-144
-144
-142
-142
-143
-142
-143
-142
-142
-142
-142
-141
-141
-140
-140
-140
-138
-139
-139
-139
-139
-138
-138
-138
-138
-138
-138
-139
-139
-138
-139
-138
-139
-139
-139
-139
-139
-140
-140
-140
-140
-140
-139
-139
-139
-139
-138
-138
-137
-137
-136
-135
-135
-134
-134
-133
-133
-133
-132
-133
-133
-132
-132
-132
-132
-131
-132
-132
-132
-131
-132
-131
-131
-130
-130
-130
-129
-129
-128
-128
-128
-127
-127
-127
-126
-125
-125
-125
-125
-124
-125
-125
-123
-124
-124
-123
-123
-123
-122
-122
-121
-121
-120
-119
-119
-118
-119
-118
-116
-116
-114
-113
-112
-112
-110
-109
-107
-107
-106
-105
-104
-103
-102
-101
-101
-100
-99
-98
-98
-98
-97
-97
-97
-97
-97
-97
-96
-96
-96
-97
-97
-97
-98
-98
-97
-97
-98
-97
-98
-97
-97
-96
-96
-96
-96
-95
-95
-95
-95
-95
-95
-95
-95
-95
-96
-96
-97
-97
-98
-98
-99
-99
-100
-101
-101
-101
-102
-103
-104
-105
-106
-106
-107
-107
-107
-108
-109
-110
-110
-111
-111
-111
-112
-113
-113
-113
-114
-114
-114
-115
-115
-115
-115
-115
-116
-116
-116
-117
-117
-117
-117
-117
-117
-118
-118
-117
-118
-119
-119
-120
-121
-122
-122
-123
-123
-124
-125
-125
-127
-127
-127
-127
-127
-127
-129
-129
-129
-130
-130
-131
-131
-130
-130
-130
-130
-130
-131
-132
-131
-132
-131
-132
-132
-132
-132
-132
-133
-133
-133
-134
-135
-135
-135
-136
-136
-136
-136
-137
-137
-137
-137
-136
-136
-136
-136
-136
-135
-135
-135
-135
-135
-134
-133
-133
-134
-133
-134
-134
-134
-135
-135
-134
-135
-135
-135
-135
-135
-135
-135
-135
-136
-136
-136
-136
-137
-137
-137
-137
-137
-137
-136
-137
-137
-137
-137
-136
-137
-137
-137
-137
-138
-137
-137
-137
-137
-137
-137
-136
-136
-136
-136
-135
-135
-135
-135
-134
-134
-134
-134
-134
-134
-133
-133
-134
-134
-134
-133
-134
-134
-133
-133
-133
-133
-133
-133
-133
-134
-134
-133
-134
-134
-134
-134
-135
-135
-136
-136
-135
-135
-136
-136
-135
-136
-136
-136
-135
-135
-135
-136
-136
-135
-135
-135
-135
-134
-134
-133
-133
-132
-132
-132
-132
-132
-132
-131
-131
-131
-131
-131
-131
-131
-132
-132
-133
-133
-134
-134
-135
-135
-135
-136
-136
-137
-138
-138
-138
-139
-140
-140
-141
-140
-141
-141
-142
-141
-142
-141
-141
-141
-140
-140
-140
-139
-139
-138
-138
-137
-137
-137
-137
-137
-137
-137
-137
-137
-137
-137
-138
-137
-138
-138
-137
-137
-138
-137
-137
-137
-137
-137
-137
-137
-137
-137
-137
-137
-136
-137
-137
-137
-136
-136
-136
-136
-135
-136
-136
-136
-137
-136
-136
-136
-136
-136
-137
-138
-138
-138
-138
-138
-138
-138
-138
-137
-137
-137
-137
-137
-136
-136
-136
-135
-135
-134
-135
-135
-135
-135
-135
-136
-135
-135
-135
-136
-136
-137
-137
-137
-138
-137
-139
-139
-139
-138
-139
-138
-139
-139
-139
-138
-137
-137
-136
-136
-136
-136
-135
-134
-133
-134
-133
-133
-132
-131
-132
-131
-131
-131
-130
-131
-130
-130
-130
-129
-130
-129
-128
-129
-128
-127
-128
-127
-127
-126
-127
-127
-127
-126
-126
-126
-126
-125
-126
-126
-127
-127
-128
-128
-129
-130
-131
-130
-131
-131
-132
-133
-134
-134
-135
-135
-136
-136
-136
-136
-136
-136
-136
-136
-135
-135
-135
-136
-135
-136
-135
-136
-135
-136
-135
-135
-135
-134
-134
-133
-133
-133
-132
-132
-132
-131
-131
-130
-129
-129
-128
-128
-127
-127
-126
-127
-126
-125
-125
-125
-124
-124
-124
-125
-125
-125
-125
-125
-125
-126
-126
-126
-127
-127
-128
-128
-128
-127
-127
-127
-127
-127
-127
-127
-127
-126
-127
-127
-127
-126
-126
-126
-127
-127
-127
-127
-127
-127
-127
-128
-128
-128
-129
-129
-128
-128
-129
-129
-129
-128
-130
-129
-129
-130
-129
-129
-129
-129
-128
-128
-128
-128
-128
-128
-128
-128
-128
-128
-129
-128
-128
-127
-127
-126
-125
-124
-123
-121
-120
-120
-118
-116
-115
-113
-112
-109
-108
-106
-103
-101
-98
-95
-91
-88
-85
-81
-76
-71
-67
-62
-58
-53
-49
-45
-41
-38
-35
-34
-33
-34
-35
-38
-41
-46
-54
-63
-73
-84
-98
-114
-130
-147
-166
-187
-207
-228
-250
-270
-292
-312
-331
-349
-367
-383
-397
-409
-419
-427
-434
-438
-441
-441
-439
-437
-432
-426
-418
-411
-402
-393
-384
-373
-363
-353
-344
-334
-323
-313
-303
-294
-284
-275
-267
-258
-249
-241
-233
-225
-218
-210
-203
-196
-190
-183
-178
-171
-166
-161
-156
-152
-147
-144
-140
-138
-134
-133
-130
-128
-127
-125
-124
-123
-122
-122
-121
-120
-120
-119
-119
-118
-118
-118
-118
-117
-118
-117
-117
-117
-116
-117
-116
-116
-116
-116
-116
-115
-115
-114
-114
-114
-114
-113
-113
-113
-113
-113
-112
-112
-112
-111
-110
-110
-110
-111
-110
-110
-110
-109
-109
-109
-109
-109
-108
-108
-108
-108
-108
-108
-108
-109
-108
-109
-109
-108
-108
-108
-108
-108
-108
-108
-108
-108
-107
-106
-106
-106
-107
-106
-106
-106
-106
-105
-105
-105
-105
-105
-105
-105
-104
-104
-104
-104
-104
-104
-104
-104
-105
-104
-105
-104
-104
-104
-105
-104
-104
-104
-104
-103
-103
-103
-102
-102
-102
-102
-102
-102
-102
-102
-101
-101
-100
-100
-101
-101
-101
-100
-100
-99
-99
-98
-98
-98
-98
-96
-96
-96
-96
-95
-95
-95
-94
-95
-95
-94
-93
-93
-93
-92
-91
-91
-91
-89
-89
-88
-88
-87
-88
-87
-86
-85
-84
-85
-84
-83
-83
-82
-82
-81
-79
-79
-78
-79
-78
-77
-77
-77
-76
-76
-76
-74
-75
-74
-73
-73
-73
-73
-72
-71
-71
-71
-71
-70
-70
-70
-70
-70
-69
-70
-70
-69
-70
-70
-70
-71
-71
-72
-72
-73
-73
-73
-74
-74
-75
-75
-76
-76
-76
-77
-77
-78
-77
-78
-79
-79
-80
-80
-80
-81
-81
-80
-81
-81
-81
-82
-81
-81
-82
-81
-82
-82
-82
-82
-83
-83
-85
-85
-86
-85
-86
-87
-87
-88
-89
-89
-90
-90
-91
-91
-92
-92
-93
-93
-93
-94
-94
-94
-95
-94
-94
-93
-93
-93
-94
-94
-93
-94
-95
-95
-94
-95
-96
-96
-96
-96
-97
-97
-98
-97
-98
-98
-98
-99
-98
-98
-98
-99
-99
-99
-99
-100
-100
-100
-101
-101
-102
-103
-103
-102
-103
-103
-104
-104
-104
-104
-105
-105
-105
-106
-107
-106
-106
-107
-107
-108
-107
-108
-107
-107
-107
-107
-106
-106
-106
-107
-107
-107
-107
-106
-106
-106
-106
-106
-106
-106
-107
-106
-106
-105
-105
-105
-105
-105
-105
-105
-105
-105
-104
-104
-104
-104
-104
-104
-104
-104
-104
-104
-104
-105
-105
-105
-105
-106
-106
-106
-105
-105
-106
-106
-107
-107
-108
-108
-107
-107
-107
-107
-106
-106
-105
-105
-105
-105
-104
-103
-103
-103
-103
-103
-103
-103
-102
-103
-103
-102
-103
-103
-103
-103
-103
-103
-103
-104
-104
-104
-105
-105
-105
-105
-105
-104
-105
-106
-105
-105
-106
-106
-106
-105
-105
-105
-105
-104
-104
-104
-104
-104
-104
-104
-104
-104
-104
-104
-104
-104
-105
-104
-104
-104
-103
-103
-103
-104
-104
-103
-103
-103
-102
-103
-102
-102
-102
-102
-102
-102
-102
-101
-102
-102
-102
-102
-102
-102
-102
-102
-102
-104
-104
-104
-104
-105
-105
-106
-107
-107
-108
-107
-108
-108
-107
-108
-108
-108
-108
-107
-107
-107
-107
-107
-107
-107
-107
-107
-106
-106
-106
-106
-106
-105
-105
-104
-104
-104
-104
-104
-104
-104
-105
-105
-106
-105
-105
-105
-106
-106
-107
-107
-107
-106
-107
-107
-106
-107
-105
-105
-105
-105
-105
-105
-105
-104
-104
-104
-104
-104
-104
-104
-103
-104
-104
-104
-104
-104
-104
-104
-105
-105
-105
-106
-107
-107
-108
-108
-108
-109
-110
-109
-110
-109
-109
-108
-108
-108
-107
-107
-106
-105
-105
-104
-103
-102
-101
-100
-99
-99
-98
-98
-98
-96
-95
-96
-95
-94
-94
-94
-94
-94
-94
-94
-95
-95
-95
-95
-96
-96
-97
-97
-98
-98
-98
-99
-99
-99
-100
-100
-100
-102
-102
-102
-103
-103
-103
-103
-105
-105
-106
-106
-106
-106
-106
-106
-106
-106
-106
-106
-106
-106
-106
-106
-106
-105
-105
-104
-104
-104
-103
-102
-101
-101
-101
-100
-100
-100
-99
-99
-99
-99
-98
-98
-98
-99
-99
-100
-100
-100
-101
-102
-102
-103
-103
-103
-105
-106
-107
-107
-108
-109
-109
-110
-110
-110
-110
-110
-111
-111
-112
-111
-111
-111
-110
-110
-110
-109
-108
-108
-108
-108
-108
-108
-108
-107
-108
-108
-107
-107
-108
-108
-108
-107
-107
-107
-107
-107
-107
-107
-107
-107
-107
-107
-107
-107
-107
-106
-107
-107
-108
-108
-108
-107
-107
-107
-107
-107
-107
-106
-106
-105
-106
-105
-103
-102
-101
-100
-99
-97
-96
-96
-94
-92
-91
-90
-88
-86
-83
-80
-76
-72
-68
-64
-58
-53
-47
-41
-35
-28
-22
-16
-9
-3
3
7
12
14
15
15
14
10
5
-2
-12
-23
-35
-51
-67
-86
-107
-128
-152
-176
-201
-226
-252
-278
-302
-326
-349
-370
-391
-409
-425
-439
-451
-461
-469
-474
-478
-479
-477
-474
-470
-463
-456
-448
-438
-428
-417
-406
-394
-382
-370
-359
-347
-335
-323
-312
-301
-289
-278
-266
-255
-244
-233
-223
-213
-204
-195
-187
-178
-171
-163
-156
-150
-145
-139
-134
-129
-126
-121
-118
-115
-112
-110
-109
-106
-105
-104
-103
-102
-102
-102
-101
-101
-100
-100
-100
-100
-100
-99
-99
-99
-99
-99
-99
-98
-98
-98
-97
-97
-97
-97
-96
-96
-96
-96
-95
-95
-94
-94
-94
-94
-92
-92
-92
-92
-91
-91
-91
-91
-91
-91
-91
-90
-91
-92
-92
-91
-91
-91
-92
-91
-91
-91
-91
-91
-90
-90
-90
-90
-89
-90
-90
-89
-89
-90
-90
-89
-89
-89
-89
-88
-88
-88
-88
-88
-87
-87
-87
-88
-87
-87
-87
-86
-86
-86
-86
-85
-85
-85
-84
-85
-84
-84
-84
-84
-84
-84
-84
-84
-83
-82
-82
-82
-82
-82
-82
-81
-81
-81
-81
-80
-80
-80
-79
-79
-79
-78
-78
-78
-78
-78
-78
-78
-77
-77
-77
-77
-77
-77
-76
-75
-75
-74
-74
-73
-72
-71
-71
-70
-70
-68
-67
-66
-66
-65
-65
-64
-62
-62
-60
-59
-59
-59
-57
-57
-56
-55
-54
-53
-53
-52
-51
-51
-50
-48
-47
-46
-46
-45
-44
-43
-41
-41
-40
-39
-38
-37
-36
-36
-35
-35
-35
-35
-35
-34
-34
-34
-34
-34
-34
-33
-33
-33
-33
-32
-33
-33
-32
-33
-32
-33
-33
-33
-32
-33
-34
-34
-34
-35
-35
-35
-35
-35
-37
-37
-38
-39
-39
-41
-41
-42
-42
-43
-43
-44
-45
-45
-45
-46
-46
-46
-46
-47
-47
-48
-48
-49
-49
-49
-50
-50
-51
-51
-52
-53
-53
-54
-54
-54
-55
-56
-56
-56
-57
-58
-58
-58
-59
-59
-60
-60
-60
-61
-61
-61
-62
-63
-64
-64
-64
-65
-65
-66
-66
-67
-68
-68
-69
-70
-70
-71
-72
-72
-74
-74
-75
-76
-77
-78
-78
-79
-79
-79
-80
-81
-81
-81
-82
-82
-83
-83
-83
-84
-84
-85
-85
-86
-86
-87
-87
-86
-87
-87
-87
-88
-89
-89
-90
-89
-91
-91
-91
-91
-91
-92
-92
-93
-93
-94
-93
-93
-93
-94
-93
-93
-93
-93
-93
-94
-94
-94
-94
-93
-93
-94
-93
-93
-93
-93
-93
-92
-92
-91
-91
-91
-91
-91
-91
-91
-90
-90
-90
-90
-90
-90
-90
-90
-90
-90
-91
-91
-91
-91
-92
-92
-92
-93
-93
-93
-94
-94
-94
-94
-94
-95
-95
-95
-95
-95
-95
-94
-94
-94
-93
-93
-93
-92
-92
-92
-92
-92
-92
-92
-92
-92
-92
-91
-91
-92
-92
-92
-92
-93
-93
-93
-93
-93
-93
-93
-93
-94
-94
-94
-95
-95
-94
-95
-95
-95
-95
-94
-94
-94
-94
-94
-95
-95
-95
-95
-95
-94
-94
-94
-94
-94
-94
-94
-94
-94
-94
-94
-94
-94
-94
-94
-94
-94
-94
-95
-95
-95
-96
-96
-96
-96
-97
-97
-98
-98
-99
-98
-98
-99
-99
-99
-99
-99
-99
-99
-99
-99
-99
-100
-100
-100
-101
-101
-101
-101
-101
-101
-100
-100
-101
-101
-101
-101
-101
-101
-101
-101
-101
-101
-101
-100
-100
-101
-101
-101
-101
-100
-100
-100
-100
-101
-101
-101
-101
-101
-101
-101
-101
-101
-101
-101
-101
-101
-101
-100
-100
-101
-101
-101
-100
-101
-101
-101
-101
-101
-101
-101
-101
-101
-102
-102
-103
-103
-103
-103
-104
-103
-103
-103
-103
-103
-103
-103
-103
-103
-104
-103
-104
-103
-103
-103
-102
-103
-102
-101
-101
-101
-100
-100
-99
-99
-99
-99
-98
-97
-98
-97
-96
-96
-95
-96
-95
-95
-95
-95
-95
-93
-93
-93
-92
-92
-92
-92
-92
-92
-92
-92
-92
-91
-92
-92
-92
-92
-93
-92
-92
-93
-93
-93
-93
-93
-93
-93
-93
-94
-93
-94
-94
-94
-95
-95
-96
-96
-97
-97
-97
-97
-97
-98
-98
-98
-98
-98
-99
-99
-100
-100
-100
-100
-100
-100
-100
-100
-100
-100
-100
-99
-100
-99
-99
-99
-99
-98
-99
-99
-99
-98
-98
-98
-98
-98
-98
-98
-98
-98
-98
-98
-98
-98
-99
-99
-99
-100
-100
-100
-100
-101
-101
-102
-102
-103
-103
-103
-104
-105
-104
-104
-105
-105
-105
-104
-104
-104
-104
-104
-103
-103
-103
-102
-102
-102
-102
-102
-101
-101
-101
-100
-101
-100
-99
-100
-100
-100
-100
-99
-99
-99
-98
-98
-98
-98
-98
-98
-99
-99
-98
-98
-98
-98
-97
-97
-98
-99
-98
-99
-99
-98
-98
-97
-97
-97
-96
-96
-94
-94
-92
-90
-88
-86
-84
-82
-79
-77
-74
-70
-65
-60
-56
-49
-44
-37
-30
-24
-17
-10
-3
4
10
16
22
27
30
32
32
30
27
22
15
6
-5
-19
-34
-51
-71
-91
-114
-139
-164
-191
-218
-244
-271
-297
-323
-347
-370
-391
-411
-428
-443
-457
-468
-477
-483
-487
-489
-488
-486
-481
-475
-467
-458
-449
-438
-427
-415
-403
-390
-378
-365
-352
-339
-326
-313
-300
-288
-274
-263
-250
-239
-228
-217
-207
-197
-188
-178
-170
-162
-155
-149
-143
-138
-132
-128
-123
-119
-116
-113
-111
-108
-106
-105
-103
-102
-100
-99
-99
-99
-98
-98
-98
-98
-97
-97
-97
-96
-96
-97
-96
-96
-95
-95
-94
-94
-93
-93
-92
-92
-91
-91
-91
-90
-90
-89
-89
-88
-89
-88
-88
-88
-88
-88
-88
-89
-89
-89
-89
-89
-88
-88
-88
-89
-89
-89
-89
-89
-90
-89
-89
-88
-88
-89
-89
-89
-88
-88
-88
-88
-87
-87
-86
-86
-86
-85
-85
-85
-84
-84
-85
-83
-83
-83
-82
-82
-82
-82
-82
-81
-82
-82
-82
-82
-82
-82
-82
-81
-82
-81
-81
-80
-81
-81
-80
-80
-81
-81
-81
-80
-80
-79
-79
-79
-79
-78
-78
-78
-77
-77
-77
-76
-76
-75
-75
-75
-74
-74
-72
-72
-71
-71
-71
-71
-70
-70
-70
-69
-68
-68
-66
-66
-65
-65
-64
-64
-63
-63
-63
-62
-61
-61
-60
-59
-59
-58
-57
-57
-56
-54
-53
-53
-51
-50
-50
-48
-48
-46
-46
-44
-43
-43
-41
-40
-40
-39
-38
-36
-35
-35
-35
-33
-33
-32
-32
-31
-31
-31
-30
-29
-29
-29
-28
-28
-27
-27
-26
-26
-26
-24
-24
-24
-23
-23
-24
-23
-23
-22
-23
-23
-23
-23
-24
-24
-25
-26
-26
-27
-27
-28
-29
-29
-29
-30
-30
-32
-32
-33
-34
-35
-35
-35
-36
-37
-37
-37
-38
-38
-39
-39
-39
-39
-40
-40
-40
-41
-41
-42
-43
-43
-43
-44
-45
-45
-46
-47
-48
-48
-48
-49
-50
-50
-52
-52
-53
-54
-54
-55
-56
-57
-57
-59
-59
-61
-62
-63
-63
-65
-66
-66
-67
-69
-69
-70
-70
-72
-73
-74
-76
-76
-77
-78
-79
-80
-81
-82
-82
-83
-83
-83
-83
-85
-85
-85
-87
-87
-87
-88
-88
-88
-88
-90
-90
-90
-91
-91
-92
-93
-92
-92
-93
-93
-93
-93
-94
-94
-95
-95
-95
-95
-96
-96
-96
-97
-96
-97
-96
-96
-95
-95
-95
-96
-96
-96
-96
-96
-96
-97
-96
-96
-97
-96
-96
-96
-97
-97
-97
-98
-97
-97
-97
-98
-98
-98
-98
-98
-98
-98
-98
-98
-98
-98
-98
-98
-98
-98
-98
-98
-97
-97
-97
-96
-96
-96
-95
-96
-95
-95
-96
-96
-96
-96
-96
-97
-97
-97
-97
-98
-97
-98
-98
-98
-99
-99
-99
-100
-100
-100
-101
-100
-100
-101
-101
-102
-101
-101
-101
-101
-101
-101
-101
-100
-101
-100
-100
-101
-101
-100
-101
-101
-101
-101
-102
-102
-101
-102
-102
-102
-101
-101
-101
-101
-102
-101
-101
-101
-101
-101
-101
-101
-101
-102
-102
-102
-103
-103
-103
-103
-103
-103
-103
-103
-104
-104
-104
-105
-105
-104
-105
-104
-104
-103
-103
-104
-103
-102
-102
-102
-101
-101
-100
-100
-101
-101
-101
-101
-101
-101
-101
-102
-103
-103
-104
-105
-105
-106
-106
-107
-107
-108
-108
-108
-108
-108
-108
-109
-109
-109
-109
-109
-109
-110
-110
-110
-110
-110
-110
-110
-110
-110
-110
-110
-111
-111
-111
-111
-111
-111
-110
-110
-110
-110
-110
-109
-109
-108
-108
-108
-108
-108
-108
-108
-108
-108
-108
-108
-108
-109
-108
-109
-109
-110
-110
-110
-110
-110
-111
-111
-111
-111
-112
-112
-112
-112
-112
-112
-112
-112
-112
-111
-112
-112
-112
-111
-112
-112
-111
-111
-110
-110
-110
-109
-109
-108
-108
-108
-107
-107
-107
-106
-105
-105
-104
-105
-104
-104
-104
-103
-102
-102
-102
-101
-101
-100
-101
-100
-100
-99
-100
-99
-99
-99
-98
-99
-98
-99
-99
-99
-99
-99
-99
-100
-100
-101
-102
-102
-103
-103
-104
-105
-106
-106
-107
-108
-109
-110
-110
-110
-110
-110
-110
-110
-109
-110
-109
-110
-109
-109
-109
-110
-109
-109
-108
-109
-110
-109
-110
-110
-110
-110
-109
-110
-110
-110
-111
-112
-111
-112
-112
-111
-112
-112
-112
-112
-112
-113
-113
-113
-113
-114
-114
-114
-115
-115
-116
-116
-116
-116
-117
-118
-118
-118
-118
-119
-119
-119
-120
-120
-120
-119
-119
-120
-119
-119
-119
-120
-120
-119
-119
-120
-120
-119
-119
-119
-119
-120
-120
-120
-119
-120
-121
-120
-120
-121
-120
-120
-120
-120
-120
-119
-120
-120
-120
-121
-120
-121
-120
-120
-119
-119
-119
-119
-119
-119
-119
-118
-118
-118
-118
-117
-116
-115
-114
-113
-112
-111
-111
-109
-107
-106
-104
-102
-100
-99
-97
-96
-95
-93
-91
-87
-84
-80
-76
-71
-66
-60
-54
-47
-40
-33
-26
-19
-12
-5
1
7
11
14
15
15
14
10
5
-2
-13
-25
-38
-54
-72
-93
-115
-138
-163
-189
-216
-243
-269
-297
-323
-348
-372
-393
-414
-433
-450
-465
-477
-487
-494
-500
-503
-503
-502
-498
-494
-487
-479
-470
-460
-449
-437
-425
-413
-401
-389
-377
-365
-351
-339
-326
-314
-302
-290
-279
-266
-256
-246
-235
-225
-216
-206
-197
-189
-181
-174
-167
-162
-156
-151
-146
-141
-138
-135
-131
-129
-127
-124
-123
-121
-119
-119
-119
-118
-118
-118
-116
-116
-116
-115
-115
-114
-114
-113
-113
-113
-113
-113
-112
-112
-111
-111
-110
-110
-110
-110
-110
-109
-108
-109
-108
-108
-107
-107
-106
-106
-106
-106
-106
-105
-105
-105
-105
-104
-104
-104
-104
-104
-104
-103
-103
-103
-103
-102
-102
-103
-103
-103
-103
-104
-104
-105
-105
-105
-106
-106
-107
-107
-107
-108
-108
-108
-108
-108
-108
-108
-109
-109
-108
-109
-108
-109
-109
-108
-108
-108
-108
-108
-106
-106
-106
-105
-105
-104
-104
-104
-103
-103
-103
-102
-102
-101
-101
-101
-101
-100
-100
-100
-99
-98
-98
-97
-97
-96
-96
-96
-95
-94
-94
-93
-92
-92
-91
-91
-90
-90
-90
-89
-89
-89
-88
-88
-87
-87
-86
-86
-85
-86
-86
-85
-85
-84
-83
-83
-83
-83
-83
-83
-82
-81
-81
-80
-80
-79
-78
-78
-77
-76
-76
-74
-74
-72
-71
-71
-69
-68
-68
-67
-65
-64
-62
-62
-60
-59
-59
-58
-56
-56
-56
-56
-55
-54
-54
-54
-54
-54
-54
-53
-53
-53
-52
-52
-53
-52
-52
-52
-52
-51
-52
-52
-51
-51
-51
-51
-50
-51
-51
-50
-51
-51
-51
-50
-51
-51
-51
-51
-52
-53
-54
-54
-54
-56
-56
-57
-58
-59
-59
-60
-61
-62
-62
-63
-64
-64
-64
-65
-65
-65
-66
-66
-66
-67
-67
-67
-68
-69
-68
-69
-69
-70
-70
-70
-71
-72
-72
-72
-72
-74
-74
-75
-76
-76
-77
-78
-79
-80
-81
-81
-83
-83
-84
-85
-85
-87
-88
-89
-90
-90
-92
-93
-95
-96
-96
-98
-98
-100
-101
-102
-103
-103
-104
-104
-106
-106
-106
-107
-108
-108
-108
-108
-108
-109
-108
-108
-108
-108
-107
-108
-108
-107
-107
-107
-108
-108
-108
-108
-109
-109
-109
-110
-111
-111
-112
-112
-113
-113
-115
-115
-115
-115
-116
-116
-116
-116
-116
-116
-116
-116
-116
-116
-116
-116
-116
-116
-117
-117
-116
-116
-116
-116
-116
-116
-116
-116
-116
-116
-116
-116
-116
-116
-116
-116
-116
-116
-116
-116
-116
-116
-116
-116
-116
-116
-116
-116
-115
-115
-115
-115
-115
-115
-114
-115
-115
-115
-114
-114
-114
-114
-113
-113
-113
-113
-113
-114
-113
-113
-113
-114
-115
-115
-115
-115
-115
-115
-116
-117
-117
-116
-117
-117
-117
-118
-118
-119
-119
-119
-119
-120
-120
-120
-120
-120
-120
-120
-121
-120
-121
-121
-120
-120
-119
-119
-119
-119
-119
-119
-119
-118
-119
-119
-119
-119
-119
-119
-119
-119
-120
-119
-119
-120
-120
-119
-119
-119
-119
-119
-119
-119
-119
-119
-121
-120
-120
-121
-121
-122
-122
-121
-121
-122
-122
-121
-122
-122
-122
-122
-122
-122
-122
-123
-122
-123
-123
-122
-122
-122
-122
-122
-121
-121
-120
-120
-120
-120
-120
-119
-120
-119
-120
-120
-120
-120
-121
-121
-121
-122
-123
-124
-124
-125
-126
-125
-127
-126
-126
-127
-127
-127
-128
-128
-128
-128
-127
-127
-127
-127
-126
-126
-125
-125
-125
-124
-124
-124
-124
-124
-124
-124
-124
-124
-125
-124
-124
-124
-125
-125
-126
-126
-126
-126
-125
-125
-126
-126
-126
-125
-125
-125
-124
-125
-125
-125
-125
-124
-125
-125
-126
-126
-126
-126
-125
-125
-125
-125
-125
-124
-124
-123
-123
-124
-123
-122
-121
-121
-121
-121
-120
-120
-119
-119
-118
-117
-117
-116
-115
-115
-114
-114
-114
-114
-113
-113
-112
-112
-112
-113
-112
-113
-112
-112
-112
-113
-113
-113
-113
-113
-114
-114
-115
-115
-116
-117
-117
-118
-118
-119
-120
-120
-121
-121
-121
-122
-122
-122
-123
-123
-123
-123
-124
-124
-124
-124
-124
-124
-124
-124
-123
-124
-123
-123
-123
-122
-121
-122
-121
-121
-120
-120
-120
-120
-121
-120
-120
-120
-120
-120
-121
-121
-121
-121
-121
-121
-121
-122
-123
-123
-124
-123
-125
-125
-126
-125
-126
-127
-127
-127
-127
-127
-127
-128
-128
-128
-128
-127
-127
-127
-127
-127
-126
-127
-127
-127
-126
-127
-126
-126
-127
-126
-126
-126
-126
-126
-126
-125
-125
-125
-125
-125
-125
-125
-124
-124
-125
-125
-125
-125
-125
-126
-126
-125
-125
-126
-124
-125
-125
-125
-125
-124
-124
-123
-122
-122
-121
-121
-120
-119
-118
-116
-114
-113
-111
-109
-108
-106
-104
-102
-100
-97
-95
-92
-88
-83
-78
-73
-67
-60
-55
-48
-41
-34
-27
-20
-13
-6
-1
4
8
11
12
11
9
5
0
-9
-20
-32
-47
-64
-82
-101
-123
-146
-171
-197
-224
-251
-278
-304
-329
-353
-377
-398
-419
-438
-454
-468
-480
-490
-497
-501
-504
-504
-502
-499
-493
-487
-478
-469
-459
-448
-437
-424
-412
-400
-387
-374
-362
-350
-338
-325
-313
-300
-288
-277
-266
-254
-244
-233
-224
-214
-205
-196
-188
-180
-174
-166
-160
-155
-149
-144
-140
-135
-132
-128
-125
-123
-120
-118
-116
-114
-114
-112
-111
-110
-110
-109
-108
-108
-107
-107
-106
-105
-106
-106
-106
-106
-107
-107
-106
-107
-107
-107
-106
-106
-107
-107
-107
-106
-106
-105
-106
-105
-104
-103
-103
-103
-101
-101
-101
-100
-100
-99
-98
-98
-98
-98
-99
-99
-99
-98
-99
-99
-99
-99
-99
-99
-100
-100
-100
-100
-100
-101
-100
-100
-100
-99
-100
-99
-99
-99
-98
-98
-97
-96
-95
-95
-95
-94
-94
-94
-93
-92
-93
-92
-92
-92
-91
-91
-91
-91
-91
-89
-89
-89
-89
-88
-88
-88
-87
-87
-87
-87
-85
-85
-85
-85
-84
-84
-83
-82
-81
-81
-81
-80
-80
-79
-79
-78
-78
-78
-78
-77
-77
-76
-76
-75
-75
-76
-74
-74
-73
-73
-72
-72
-71
-70
-70
-69
-69
-68
-68
-67
-66
-66
-66
-65
-64
-63
-63
-62
-61
-60
-58
-58
-57
-55
-55
-53
-52
-50
-49
-48
-46
-46
-44
-43
-42
-42
-40
-40
-39
-37
-37
-37
-35
-35
-35
-34
-34
-34
-34
-33
-33
-32
-32
-31
-32
-31
-31
-30
-30
-29
-29
-28
-27
-28
-28
-27
-28
-27
-28
-27
-27
-27
-27
-27
-28
-27
-28
-28
-28
-27
-28
-28
-28
-29
-28
-29
-29
-29
-30
-30
-31
-31
-32
-32
-33
-34
-33
-34
-34
-35
-35
-35
-36
-36
-36
-36
-37
-38
-38
-38
-38
-40
-40
-41
-41
-42
-42
-42
-42
-43
-43
-44
-44
-44
-44
-46
-46
-47
-47
-47
-49
-49
-49
-50
-51
-52
-53
-53
-54
-55
-55
-56
-58
-58
-58
-60
-60
-61
-61
-62
-63
-63
-64
-64
-65
-66
-66
-66
-66
-66
-66
-66
-67
-67
-68
-68
-69
-69
-69
-70
-70
-70
-71
-71
-70
-71
-71
-71
-71
-71
-71
-71
-71
-71
-71
-72
-71
-72
-72
-72
-72
-72
-73
-73
-73
-73
-73
-74
-74
-74
-75
-74
-74
-74
-74
-74
-74
-75
-75
-75
-75
-74
-74
-74
-73
-74
-73
-74
-74
-73
-73
-73
-73
-73
-73
-72
-72
-73
-73
-72
-72
-72
-72
-72
-72
-73
-73
-71
-72
-70
-70
-70
-70
-70
-69
-69
-69
-69
-68
-68
-68
-68
-68
-68
-69
-68
-68
-68
-67
-67
-67
-67
-67
-67
-67
-68
-67
-67
-67
-67
-67
-67
-67
-67
-67
-67
-67
-67
-66
-67
-67
-67
-67
-67
-67
-67
-67
-68
-67
-68
-68
-68
-68
-68
-68
-69
-69
-70
-69
-69
-69
-69
-69
-69
-68
-68
-68
-67
-68
-68
-68
-67
-67
-66
-66
-65
-66
-66
-65
-65
-64
-65
-65
-64
-64
-65
-64
-64
-65
-65
-65
-65
-65
-65
-66
-65
-66
-66
-66
-65
-65
-66
-66
-66
-66
-66
-66
-66
-66
-66
-66
-66
-66
-66
-67
-67
-67
-67
-67
-66
-66
-66
-65
-65
-65
-65
-65
-64
-64
-63
-62
-62
-63
-63
-63
-62
-63
-62
-62
-62
-62
-61
-61
-61
-61
-61
-61
-61
-62
-62
-61
-61
-60
-61
-61
-61
-60
-60
-60
-59
-60
-60
-60
-60
-60
-60
-60
-60
-60
-60
-61
-61
-61
-62
-62
-63
-63
-63
-62
-62
-62
-63
-63
-63
-62
-61
-61
-61
-60
-60
-58
-57
-57
-57
-56
-55
-54
-53
-52
-52
-50
-50
-49
-48
-47
-47
-47
-46
-45
-45
-44
-44
-44
-43
-44
-44
-43
-42
-42
-42
-42
-42
-42
-42
-42
-42
-43
-43
-43
-44
-44
-44
-44
-44
-45
-46
-47
-47
-48
-49
-49
-49
-49
-49
-50
-51
-51
-51
-52
-53
-53
-53
-53
-53
-53
-54
-53
-53
-53
-53
-53
-53
-53
-52
-52
-52
-52
-51
-51
-50
-50
-49
-50
-49
-49
-50
-50
-49
-49
-49
-48
-48
-48
-48
-49
-49
-50
-50
-50
-50
-51
-51
-52
-53
-54
-54
-55
-54
-54
-55
-55
-55
-55
-55
-54
-54
-54
-54
-54
-53
-53
-53
-52
-52
-51
-51
-51
-50
-50
-49
-49
-49
-48
-49
-48
-49
-49
-48
-48
-48
-49
-49
-49
-49
-49
-49
-48
-48
-47
-47
-47
-46
-47
-46
-46
-46
-46
-46
-46
-46
-45
-45
-45
-45
-45
-45
-44
-43
-42
-42
-41
-40
-39
-37
-36
-34
-33
-31
-29
-27
-23
-20
-17
-13
-9
-4
0
5
12
19
25
33
39
46
54
61
67
73
79
84
87
89
89
89
86
82
75
66
56
43
28
10
-9
-29
-52
-76
-102
-129
-157
-183
-210
-237
-262
-287
-309
-331
-351
-369
-385
-398
-409
-418
-424
-428
-430
-430
-428
-423
-418
-410
-401
-391
-381
-369
-357
-345
-333
-320
-307
-294
-281
-268
-256
-243
-230
-217
-204
-193
-181
-170
-159
-148
-138
-129
-120
-111
-103
-95
-88
-80
-74
-68
-63
-59
-54
-49
-47
-43
-41
-38
-36
-34
-32
-32
-30
-29
-28
-27
-26
-26
-25
-24
-24
-24
-24
-23
-23
-23
-23
-22
-22
-23
-23
-24
-24
-24
-24
-24
-24
-24
-23
-24
-24
-23
-23
-23
-23
-23
-23
-22
-22
-22
-22
-22
-21
-21
-21
-20
-19
-19
-19
-19
-18
-18
-18
-18
-18
-19
-18
-18
-19
-18
-18
-19
-18
-18
-18
-18
-18
-17
-17
-17
-17
-17
-16
-16
-16
-15
-15
-15
-15
-14
-14
-14
-14
-13
-13
-13
-13
-13
-13
-12
-12
-11
-10
-10
-10
-10
-9
-8
-8
-7
-6
-6
-5
-5
-4
-4
-3
-2
-2
-2
-1
-1
-1
0
0
0
0
0
1
1
2
2
2
1
2
3
3
3
5
5
6
6
6
8
8
8
8
9
10
10
10
11
11
12
12
13
14
15
16
17
17
18
18
20
21
22
23
24
26
27
28
28
29
31
31
33
34
35
36
37
38
39
40
40
41
42
42
42
43
44
44
45
45
46
46
47
47
47
48
49
49
49
50
50
50
50
51
51
51
51
51
52
51
51
50
51
51
51
50
51
51
51
51
51
51
50
51
50
50
49
49
49
48
48
47
47
45
45
44
44
42
43
42
40
40
39
38
38
38
38
36
37
36
35
35
36
35
35
35
35
34
33
33
32
31
31
30
29
28
27
27
25
24
23
22
21
21
20
19
19
19
17
17
17
16
16
15
15
15
14
13
13
12
11
11
10
10
9
9
9
9
7
7
6
6
5
4
3
3
2
1
0
0
0
0
-1
-1
-1
-1
-3
-3
-3
-4
-4
-5
-5
-6
-6
-6
-6
-6
-7
-6
-7
-6
-6
-6
-6
-6
-5
-5
-5
-5
-5
-5
-4
-5
-5
-4
-3
-4
-4
-4
-4
-4
-4
-4
-4
-4
-4
-4
-4
-4
-3
-4
-4
-5
-4
-4
-5
-5
-5
-5
-6
-5
-5
-5
-5
-4
-4
-4
-4
-4
-3
-3
-3
-3
-3
-3
-3
-3
-2
-2
-3
-2
-2
-1
-2
-2
-2
-2
-2
-2
-2
-2
-2
-3
-3
-2
-3
-3
-3
-4
-4
-4
-4
-4
-3
-3
-4
-4
-4
-5
-5
-5
-5
-4
-5
-4
-4
-5
-5
-5
-5
-6
-6
-6
-6
-5
-5
-5
-4
-4
-4
-4
-4
-4
-4
-3
-3
-3
-3
-4
-4
-4
-4
-4
-4
-4
-4
-5
-5
-5
-4
-4
-5
-5
