# Simple Text Format
# Sampling Rate (Hz):= 1200.00
# Resolution:= 12
# Labels:= ECG	 V4
# Age:=	52
# Gender:=	Masculino
-39
-38
-38
-39
-39
-39
-39
-41
-41
-41
-41
-42
-42
-42
-42
-43
-42
-42
-43
-42
-42
-42
-42
-43
-43
-43
-42
-42
-42
-42
-43
-43
-43
-43
-43
-43
-44
-43
-43
-43
-44
-43
-43
-43
-43
-43
-44
-44
-44
-44
-45
-45
-45
-45
-44
-45
-45
-45
-45
-45
-45
-45
-45
-45
-45
-45
-46
-45
-45
-46
-46
-46
-46
-47
-47
-47
-48
-48
-48
-48
-48
-48
-48
-49
-49
-49
-50
-49
-51
-51
-50
-51
-51
-51
-51
-51
-51
-52
-52
-52
-52
-52
-52
-52
-52
-52
-52
-53
-53
-53
-53
-53
-55
-55
-54
-55
-56
-56
-57
-57
-59
-59
-60
-61
-61
-63
-64
-64
-66
-66
-67
-69
-69
-70
-72
-73
-74
-74
-76
-77
-78
-79
-79
-81
-82
-84
-85
-86
-88
-89
-90
-91
-93
-94
-95
-97
-98
-99
-101
-101
-103
-104
-105
-106
-107
-108
-109
-110
-111
-113
-113
-114
-115
-116
-117
-118
-119
-119
-119
-120
-121
-121
-121
-121
-123
-123
-123
-122
-123
-123
-123
-122
-122
-121
-121
-121
-121
-119
-119
-118
-117
-116
-115
-114
-112
-111
-110
-109
-106
-104
-103
-101
-99
-97
-96
-94
-92
-89
-88
-85
-83
-81
-79
-77
-74
-72
-70
-68
-66
-64
-63
-61
-59
-57
-57
-55
-53
-52
-51
-49
-47
-46
-45
-43
-42
-41
-39
-39
-38
-37
-35
-35
-34
-33
-33
-32
-31
-31
-30
-29
-29
-28
-28
-28
-27
-27
-27
-27
-27
-26
-26
-26
-27
-27
-27
-27
-27
-28
-27
-27
-27
-27
-27
-27
-27
-27
-27
-27
-27
-26
-26
-26
-26
-25
-26
-25
-25
-24
-24
-24
-23
-23
-23
-23
-23
-23
-23
-23
-23
-24
-23
-23
-24
-24
-25
-26
-26
-26
-25
-25
-24
-24
-25
-25
-25
-25
-25
-24
-24
-24
-24
-23
-23
-23
-23
-22
-22
-22
-21
-22
-21
-21
-21
-21
-20
-20
-19
-19
-19
-19
-20
-19
-19
-19
-19
-19
-19
-19
-19
-19
-18
-18
-18
-18
-18
-18
-18
-18
-19
-19
-20
-20
-20
-20
-20
-20
-21
-20
-20
-21
-21
-21
-21
-21
-20
-20
-20
-20
-19
-19
-19
-19
-19
-18
-18
-18
-18
-18
-17
-17
-16
-16
-16
-16
-16
-16
-16
-16
-16
-17
-16
-16
-17
-18
-17
-18
-18
-19
-18
-18
-18
-18
-19
-19
-19
-19
-19
-19
-19
-19
-18
-18
-18
-17
-18
-18
-18
-18
-18
-17
-17
-17
-17
-17
-18
-18
-18
-17
-19
-19
-19
-19
-19
-19
-20
-21
-21
-21
-22
-22
-22
-22
-22
-23
-23
-23
-23
-23
-23
-23
-23
-23
-23
-23
-23
-22
-23
-22
-22
-21
-21
-21
-20
-20
-20
-20
-20
-20
-20
-19
-19
-19
-20
-19
-19
-19
-18
-18
-18
-18
-17
-17
-16
-17
-16
-15
-15
-14
-15
-14
-13
-12
-13
-12
-11
-11
-11
-10
-10
-9
-9
-9
-8
-8
-8
-8
-8
-8
-8
-9
-9
-9
-10
-10
-10
-10
-10
-10
-9
-9
-10
-9
-9
-9
-9
-9
-9
-8
-8
-8
-7
-8
-8
-8
-9
-9
-9
-9
-10
-10
-9
-10
-10
-10
-11
-11
-11
-12
-12
-12
-13
-12
-13
-13
-13
-13
-13
-12
-12
-12
-12
-12
-11
-10
-11
-10
-9
-9
-9
-9
-8
-8
-8
-8
-8
-8
-8
-8
-8
-8
-7
-8
-8
-8
-9
-9
-9
-10
-11
-11
-11
-12
-12
-12
-13
-14
-14
-14
-15
-16
-15
-16
-16
-18
-17
-18
-18
-19
-19
-19
-20
-20
-20
-21
-21
-21
-22
-21
-22
-22
-22
-21
-21
-21
-21
-21
-21
-22
-22
-21
-20
-20
-20
-20
-21
-21
-22
-21
-21
-20
-20
-21
-21
-21
-20
-20
-20
-20
-20
-20
-20
-21
-21
-21
-21
-21
-22
-21
-22
-21
-21
-21
-20
-19
-18
-16
-12
-8
-4
2
7
16
23
33
44
56
69
84
99
116
133
151
170
190
209
229
248
268
286
304
320
334
347
356
363
367
367
364
358
348
334
316
295
272
245
217
187
155
122
88
55
21
-12
-43
-73
-99
-125
-146
-165
-182
-195
-206
-214
-220
-222
-223
-221
-219
-215
-210
-203
-195
-188
-180
-171
-163
-153
-144
-135
-127
-117
-110
-102
-94
-88
-81
-75
-71
-66
-61
-57
-54
-51
-49
-47
-45
-43
-42
-41
-40
-39
-39
-39
-39
-38
-38
-38
-39
-39
-39
-39
-39
-39
-39
-38
-39
-38
-39
-38
-38
-37
-38
-38
-38
-37
-37
-37
-37
-37
-37
-37
-36
-36
-36
-37
-36
-37
-37
-37
-37
-37
-37
-36
-36
-36
-37
-36
-36
-36
-36
-36
-36
-35
-35
-36
-35
-36
-35
-35
-34
-35
-34
-34
-34
-34
-34
-34
-34
-34
-34
-34
-34
-34
-34
-33
-34
-34
-34
-33
-33
-34
-34
-33
-34
-34
-33
-33
-34
-35
-35
-35
-35
-35
-35
-35
-36
-36
-36
-36
-37
-36
-36
-36
-36
-36
-36
-35
-36
-36
-36
-34
-34
-34
-35
-35
-35
-35
-36
-35
-35
-36
-36
-36
-37
-37
-37
-38
-38
-39
-39
-39
-39
-39
-39
-39
-39
-39
-39
-39
-39
-38
-38
-39
-38
-38
-38
-39
-38
-38
-38
-39
-39
-39
-40
-39
-40
-40
-40
-41
-40
-41
-41
-41
-41
-41
-42
-42
-42
-42
-42
-42
-43
-43
-42
-43
-43
-44
-43
-43
-43
-43
-43
-43
-43
-43
-44
-44
-45
-45
-45
-46
-46
-46
-47
-47
-47
-49
-49
-49
-49
-50
-50
-51
-52
-53
-53
-54
-55
-55
-56
-56
-56
-57
-58
-59
-60
-61
-61
-63
-63
-65
-65
-66
-67
-68
-69
-70
-71
-73
-74
-74
-76
-77
-78
-80
-81
-82
-83
-84
-85
-86
-87
-88
-89
-90
-91
-92
-94
-95
-96
-97
-98
-100
-101
-101
-102
-104
-104
-106
-106
-107
-108
-109
-109
-110
-110
-111
-112
-112
-112
-113
-113
-113
-113
-114
-114
-114
-114
-114
-113
-113
-112
-112
-112
-112
-111
-110
-109
-109
-108
-107
-106
-105
-104
-102
-102
-100
-99
-97
-95
-93
-91
-89
-87
-84
-83
-80
-79
-77
-74
-72
-70
-68
-66
-64
-61
-60
-57
-56
-54
-52
-50
-49
-46
-46
-44
-42
-41
-39
-38
-37
-36
-35
-34
-33
-32
-31
-30
-29
-28
-27
-26
-25
-24
-23
-23
-22
-21
-21
-20
-19
-18
-17
-17
-17
-16
-15
-16
-15
-14
-14
-14
-14
-13
-13
-13
-14
-13
-13
-13
-13
-13
-13
-13
-13
-13
-14
-14
-13
-13
-13
-13
-13
-14
-14
-14
-15
-15
-14
-15
-15
-15
-15
-15
-15
-16
-16
-17
-16
-16
-16
-16
-16
-16
-16
-15
-15
-15
-16
-16
-15
-15
-15
-15
-15
-15
-15
-14
-13
-13
-13
-13
-12
-12
-12
-12
-11
-11
-11
-11
-10
-9
-9
-9
-10
-9
-9
-9
-8
-8
-8
-8
-8
-8
-8
-8
-8
-9
-9
-9
-9
-9
-9
-9
-8
-9
-9
-9
-9
-9
-8
-8
-8
-8
-8
-8
-8
-8
-8
-7
-7
-7
-7
-7
-6
-7
-7
-7
-6
-5
-5
-5
-5
-5
-4
-4
-4
-4
-4
-4
-4
-3
-2
-3
-3
-3
-3
-3
-3
-2
-2
-2
-2
-3
-4
-3
-3
-5
-4
-5
-5
-5
-6
-6
-7
-6
-7
-7
-6
-7
-6
-6
-7
-7
-7
-8
-8
-8
-8
-8
-8
-7
-8
-8
-7
-8
-8
-8
-8
-8
-8
-8
-6
-6
-6
-6
-5
-5
-5
-4
-4
-3
-3
-3
-3
-3
-2
-2
-1
-1
-1
0
0
-1
-1
-1
-1
-1
-1
0
0
-1
-1
0
1
0
0
0
1
1
2
2
2
3
3
4
5
4
5
5
5
6
6
7
6
6
7
7
8
8
9
9
9
9
9
9
9
9
10
10
10
10
11
11
11
10
11
11
12
11
11
12
12
13
13
13
13
13
13
14
14
14
15
15
15
14
15
15
15
16
16
16
16
15
15
14
14
14
14
13
12
12
12
11
10
10
9
9
9
10
10
10
9
10
10
10
11
11
11
11
11
12
11
11
12
12
11
11
11
11
11
12
12
12
11
11
11
11
11
10
10
10
10
10
8
8
8
7
7
6
6
5
5
4
3
3
3
2
2
1
1
1
1
0
0
0
0
-1
-1
0
-1
-1
-1
0
0
-1
0
0
0
0
-1
0
0
-1
-1
0
-1
0
-1
0
0
1
1
1
1
1
2
2
3
3
3
3
4
3
3
3
3
4
4
4
5
5
5
6
7
8
10
12
15
19
24
30
35
43
51
60
71
83
96
110
125
141
157
175
193
212
230
248
267
286
303
319
333
346
356
365
370
373
371
367
359
348
331
313
292
267
241
212
183
151
119
86
53
22
-10
-40
-67
-91
-114
-134
-151
-166
-177
-187
-193
-197
-199
-198
-197
-192
-188
-182
-175
-168
-160
-153
-144
-136
-128
-119
-111
-102
-94
-87
-80
-74
-68
-62
-56
-51
-46
-42
-38
-34
-31
-29
-27
-24
-22
-21
-19
-18
-17
-17
-16
-16
-15
-15
-15
-15
-15
-15
-16
-15
-15
-15
-15
-15
-16
-15
-15
-14
-14
-14
-14
-13
-13
-13
-13
-12
-12
-12
-12
-12
-11
-11
-11
-11
-10
-10
-10
-10
-10
-10
-10
-10
-10
-10
-10
-9
-9
-9
-9
-8
-7
-8
-8
-7
-6
-6
-5
-6
-5
-5
-4
-4
-4
-4
-4
-4
-4
-4
-4
-4
-3
-4
-4
-4
-4
-3
-3
-3
-4
-4
-4
-4
-4
-4
-4
-5
-5
-5
-5
-6
-5
-6
-6
-6
-6
-7
-6
-6
-6
-7
-7
-8
-8
-8
-8
-8
-8
-9
-9
-9
-10
-10
-10
-11
-11
-10
-11
-11
-11
-11
-11
-12
-11
-12
-12
-12
-10
-10
-10
-10
-10
-10
-9
-9
-9
-9
-9
-9
-8
-9
-9
-9
-9
-9
-10
-10
-10
-10
-10
-10
-11
-11
-10
-10
-10
-10
-10
-10
-10
-9
-10
-10
-10
-10
-10
-10
-10
-11
-12
-12
-12
-13
-14
-13
-14
-14
-15
-15
-15
-15
-15
-15
-16
-16
-17
-16
-16
-17
-17
-18
-18
-19
-20
-20
-20
-21
-22
-23
-23
-24
-25
-25
-26
-28
-29
-29
-31
-31
-32
-33
-34
-35
-36
-36
-37
-37
-39
-39
-40
-41
-41
-42
-42
-43
-44
-45
-46
-47
-48
-49
-50
-52
-53
-54
-55
-57
-58
-59
-61
-63
-65
-65
-66
-67
-69
-71
-72
-73
-75
-76
-77
-78
-79
-81
-81
-82
-82
-83
-83
-84
-84
-85
-84
-85
-85
-85
-86
-85
-84
-85
-86
-86
-85
-85
-85
-85
-85
-85
-85
-85
-85
-84
-84
-84
-83
-82
-81
-80
-79
-77
-76
-75
-74
-72
-70
-67
-65
-64
-61
-59
-57
-54
-51
-49
-47
-44
-41
-39
-37
-35
-33
-30
-29
-26
-25
-23
-21
-19
-17
-16
-15
-14
-13
-11
-11
-10
-8
-7
-6
-5
-4
-3
-2
-1
1
2
3
4
5
6
8
9
10
10
10
11
11
12
13
13
13
13
13
14
13
14
13
13
14
13
13
14
14
14
14
14
15
14
14
16
15
15
15
15
16
16
17
17
17
18
18
17
18
18
18
19
19
20
20
20
19
19
19
19
19
20
20
19
20
20
20
20
20
19
19
19
19
19
19
19
18
18
17
17
18
17
18
17
17
17
17
18
18
18
18
18
18
19
19
19
19
19
19
20
20
21
21
22
22
22
22
22
22
23
23
24
24
24
24
24
25
24
25
25
25
25
25
25
25
25
25
25
26
26
25
25
26
26
26
26
26
25
25
26
26
26
26
27
26
26
26
26
25
25
24
24
25
25
25
24
24
23
23
24
24
24
24
24
24
25
25
26
26
25
25
25
26
26
26
26
26
25
25
26
26
26
26
27
26
26
26
27
27
26
26
27
27
27
27
27
26
26
26
26
26
26
27
27
26
26
27
27
27
27
27
27
27
27
27
27
27
26
26
26
27
27
26
27
27
27
26
26
26
25
25
25
25
25
24
25
24
24
24
24
25
25
25
25
25
25
25
25
25
25
25
25
26
26
26
27
26
27
28
28
29
29
30
31
32
33
33
33
34
35
35
35
36
37
38
38
38
38
39
39
39
40
40
40
40
40
40
39
40
40
40
39
39
40
40
39
39
38
38
39
39
39
39
40
39
40
40
39
40
39
40
40
40
40
39
40
40
39
39
39
39
38
38
38
37
36
35
36
35
34
34
34
33
33
33
33
33
33
33
33
33
33
34
35
35
36
36
36
37
37
37
38
38
40
40
40
39
39
38
39
39
38
38
37
37
37
36
35
35
33
33
33
31
31
30
29
28
27
27
26
26
25
25
25
24
24
24
23
23
22
22
22
22
22
22
22
22
22
22
22
23
23
24
24
24
25
25
25
25
25
25
25
26
26
26
26
26
25
26
25
26
25
26
26
27
27
27
27
27
27
26
26
26
26
26
26
25
25
25
25
25
25
26
28
30
32
35
40
44
51
57
66
75
86
97
110
124
138
154
171
188
208
226
246
266
286
305
324
342
359
374
386
397
406
410
412
411
404
396
382
366
346
324
298
270
241
209
176
143
109
75
42
11
-19
-48
-73
-97
-116
-134
-148
-160
-168
-173
-177
-179
-178
-175
-171
-167
-161
-154
-147
-139
-131
-122
-114
-106
-98
-90
-82
-74
-66
-58
-51
-44
-38
-33
-27
-23
-18
-14
-10
-7
-4
-1
0
2
3
5
6
6
7
9
8
8
9
9
9
9
9
9
9
9
9
9
9
9
9
8
8
9
10
10
10
10
10
10
10
10
9
9
9
10
10
9
9
10
9
9
9
9
9
10
10
10
10
11
11
11
11
12
12
13
13
13
13
13
13
13
14
14
14
15
15
15
14
14
14
14
15
14
14
14
14
14
14
13
13
13
13
13
13
13
12
13
13
13
13
13
11
11
11
11
11
11
11
11
10
10
10
10
11
11
10
10
11
11
10
10
10
10
10
10
10
10
10
11
10
10
10
10
10
11
11
12
11
11
11
11
11
11
11
11
11
11
10
10
9
10
9
10
10
10
10
10
10
10
9
9
9
10
10
10
9
9
9
8
8
8
8
8
8
7
7
7
7
7
7
7
7
7
7
7
7
7
7
7
6
7
7
6
6
6
6
6
5
5
5
4
3
3
2
1
1
0
-1
-2
-3
-4
-4
-5
-5
-6
-7
-8
-9
-10
-11
-12
-13
-13
-15
-15
-16
-18
-19
-19
-20
-21
-22
-22
-24
-24
-25
-26
-27
-27
-28
-29
-31
-32
-33
-34
-35
-36
-37
-39
-40
-42
-42
-44
-45
-46
-47
-49
-50
-51
-53
-54
-55
-57
-58
-60
-60
-62
-63
-64
-66
-67
-67
-69
-69
-70
-71
-72
-73
-73
-74
-74
-74
-75
-75
-75
-75
-75
-75
-75
-75
-75
-74
-74
-73
-73
-72
-70
-70
-68
-67
-66
-65
-64
-62
-61
-60
-59
-56
-55
-53
-52
-50
-48
-45
-43
-42
-40
-39
-37
-34
-32
-32
-29
-28
-26
-24
-22
-20
-18
-16
-14
-12
-11
-10
-8
-6
-4
-1
0
2
3
5
7
8
10
11
12
13
14
16
16
18
18
20
20
21
21
22
22
22
23
23
24
23
24
24
24
24
24
23
23
23
23
24
23
24
24
23
23
24
24
24
24
24
25
26
26
26
27
26
27
28
28
29
29
29
30
30
30
30
29
29
29
29
29
28
28
28
28
28
27
27
27
27
28
28
28
27
27
28
28
28
29
29
29
30
30
31
30
30
31
31
31
32
32
33
33
33
33
33
33
33
33
33
33
33
33
33
32
31
32
31
31
32
32
31
31
31
31
31
31
31
31
31
32
32
32
32
32
31
31
32
33
33
34
34
34
34
33
34
34
34
35
35
35
35
36
35
35
35
35
35
36
36
35
36
36
36
36
36
36
36
35
35
35
35
35
35
34
34
34
34
34
34
34
34
34
34
34
34
35
35
35
36
36
36
35
35
36
35
35
35
35
36
35
35
35
34
34
34
34
32
32
32
33
32
32
32
31
32
31
32
31
31
32
32
32
32
32
32
32
31
31
31
31
31
31
32
31
30
30
30
30
30
31
30
30
29
29
30
29
29
29
29
29
29
28
28
28
28
27
27
27
27
27
27
27
27
27
27
27
27
26
26
26
26
26
27
27
27
27
28
29
29
31
31
31
32
33
34
34
35
36
36
38
38
38
39
39
39
39
39
40
40
40
40
40
40
40
40
40
40
40
40
40
40
40
40
40
40
41
40
40
41
41
41
41
42
42
42
42
43
42
42
43
43
43
43
42
42
42
42
41
41
41
41
40
41
40
39
39
38
38
37
37
37
36
36
36
35
35
35
35
35
35
36
36
36
36
36
36
36
36
36
36
37
36
37
37
36
36
35
36
36
36
35
34
34
34
34
33
33
32
32
32
31
30
30
29
28
27
26
27
26
26
25
24
24
24
24
23
22
22
22
21
21
21
21
21
20
21
21
21
22
22
22
22
22
23
24
24
24
24
24
25
25
25
25
25
26
26
25
25
25
26
25
26
26
26
25
25
25
25
25
25
24
24
24
23
23
22
22
21
21
21
21
20
20
21
22
23
26
29
32
37
42
49
57
65
75
86
99
112
128
144
161
179
198
217
237
257
278
298
317
337
355
371
384
397
406
413
417
416
413
406
394
378
360
338
314
287
256
226
193
160
125
91
57
24
-7
-36
-64
-88
-109
-126
-143
-156
-166
-173
-178
-181
-181
-179
-176
-171
-166
-160
-152
-144
-137
-129
-120
-111
-104
-95
-86
-79
-71
-64
-56
-50
-44
-38
-33
-28
-24
-19
-16
-12
-10
-8
-5
-2
-1
1
2
4
4
5
6
6
6
6
7
7
7
7
7
7
7
7
7
7
6
6
6
6
6
6
6
6
7
7
7
7
7
7
7
7
6
6
7
7
8
7
7
8
8
8
8
7
7
7
7
7
7
7
7
7
7
7
7
7
7
8
8
8
8
10
10
10
10
11
11
11
12
13
13
13
13
14
14
14
14
15
15
15
15
15
15
14
14
14
14
14
13
12
12
11
11
11
11
11
11
10
10
10
9
10
9
9
9
9
9
9
9
9
9
9
8
9
8
9
9
8
8
7
7
7
6
6
5
5
5
5
3
3
2
3
1
2
1
1
1
2
1
1
1
2
2
1
1
2
1
1
2
2
1
1
0
1
0
1
1
0
0
0
0
0
0
0
-1
-1
0
-1
-1
-1
-1
-1
-2
-1
-2
-1
-1
-1
-1
-1
-1
0
-1
-1
-2
-2
-2
-2
-2
-2
-3
-2
-4
-4
-4
-5
-5
-5
-5
-6
-7
-7
-7
-8
-8
-9
-9
-11
-11
-12
-13
-14
-14
-16
-17
-18
-19
-20
-21
-23
-24
-25
-26
-27
-29
-30
-32
-33
-34
-35
-36
-38
-40
-40
-41
-43
-43
-44
-46
-47
-48
-49
-51
-52
-53
-54
-54
-55
-56
-57
-58
-59
-60
-61
-62
-62
-64
-64
-65
-67
-68
-68
-69
-69
-70
-72
-72
-73
-74
-75
-75
-76
-77
-78
-78
-78
-78
-78
-78
-77
-77
-76
-76
-76
-75
-74
-73
-71
-70
-69
-68
-66
-65
-64
-63
-61
-59
-57
-55
-53
-51
-49
-47
-45
-43
-41
-39
-36
-34
-32
-30
-28
-26
-25
-22
-20
-18
-15
-14
-12
-10
-8
-6
-5
-4
-2
0
1
2
4
6
6
8
9
10
11
13
14
16
17
18
19
20
20
21
22
22
23
23
24
24
24
24
24
24
23
24
24
23
24
23
23
23
23
23
23
22
22
22
22
22
22
21
22
22
21
22
22
22
22
22
23
23
23
23
24
24
25
25
25
26
26
27
26
26
28
28
28
29
29
29
29
30
30
30
30
30
29
29
29
29
29
28
28
28
27
28
28
28
28
28
27
28
28
28
29
28
28
29
29
29
29
30
29
29
30
29
29
30
30
30
31
31
31
31
31
32
31
32
32
32
32
32
32
33
33
34
34
34
34
34
34
34
34
34
33
33
34
33
34
34
34
34
34
34
34
34
35
35
35
35
36
36
36
36
35
35
35
35
35
35
34
35
34
33
33
34
34
34
34
33
33
33
33
33
33
33
33
34
34
34
34
33
34
35
35
35
35
36
36
36
35
35
35
35
35
36
36
36
36
36
35
36
35
35
35
35
35
35
35
35
35
35
35
34
34
34
34
34
34
34
34
34
35
35
35
35
36
36
36
36
37
37
37
37
37
37
36
37
36
35
36
35
35
35
34
34
34
34
34
34
33
34
33
33
34
33
34
34
34
34
34
34
35
35
36
36
36
37
37
37
38
38
38
38
38
39
40
40
40
41
40
41
40
42
41
42
42
42
43
43
44
44
44
44
45
45
45
45
46
46
46
46
47
47
47
47
48
49
49
48
49
49
49
49
49
49
48
49
48
49
48
47
46
47
46
46
46
46
45
44
44
44
44
43
43
43
43
42
42
42
42
42
42
42
43
42
42
43
43
43
43
43
44
43
43
44
44
44
45
45
45
45
44
45
45
44
44
44
43
42
42
41
40
40
39
38
37
37
35
35
33
32
32
32
31
31
30
31
31
31
31
31
30
30
30
30
31
31
31
32
31
32
32
31
32
32
32
32
33
33
32
33
33
33
34
34
33
33
34
34
33
34
34
34
34
35
34
34
34
34
35
35
35
34
34
34
35
34
33
33
33
32
32
33
32
34
35
36
38
41
45
49
55
62
69
77
87
98
110
124
138
154
170
188
206
225
245
265
284
304
324
343
361
376
391
404
413
421
426
427
424
418
408
393
376
355
331
305
277
246
214
180
147
113
79
45
14
-17
-46
-71
-94
-113
-130
-144
-156
-164
-169
-173
-174
-174
-171
-167
-162
-156
-149
-142
-134
-126
-118
-110
-101
-94
-85
-77
-69
-60
-53
-46
-39
-33
-28
-22
-17
-13
-8
-5
-2
1
3
5
7
8
10
10
11
13
14
14
14
14
15
15
15
15
15
15
15
15
16
16
15
15
14
14
15
14
14
14
13
12
12
13
13
12
12
12
12
12
12
12
12
12
12
12
12
13
13
13
14
14
14
14
14
14
15
16
16
16
16
16
16
17
17
17
18
18
18
19
19
19
19
19
19
18
18
18
18
18
18
18
17
16
16
16
16
16
15
15
15
15
15
15
15
15
15
15
14
14
14
14
14
13
14
13
14
14
13
13
13
13
13
13
13
13
12
12
12
12
12
11
11
11
11
11
11
11
11
11
11
11
11
11
11
11
11
10
11
11
11
11
11
10
11
11
11
10
11
10
10
10
11
10
10
10
10
10
10
10
10
9
8
8
8
8
8
8
8
8
8
8
8
8
8
8
7
7
7
7
8
8
8
7
8
7
6
6
7
7
6
5
5
5
4
4
3
2
2
1
1
-1
-2
-2
-2
-4
-5
-5
-6
-6
-7
-8
-8
-10
-11
-11
-12
-13
-13
-15
-16
-17
-18
-18
-20
-20
-22
-22
-23
-23
-24
-25
-26
-27
-28
-29
-31
-32
-32
-34
-36
-37
-38
-40
-41
-42
-44
-45
-46
-48
-48
-49
-51
-52
-53
-54
-55
-57
-57
-58
-59
-60
-61
-63
-64
-64
-65
-65
-66
-67
-68
-69
-69
-70
-71
-72
-72
-73
-73
-74
-73
-74
-74
-75
-74
-74
-74
-74
-73
-73
-72
-72
-71
-71
-70
-69
-68
-66
-66
-65
-63
-62
-61
-59
-58
-56
-54
-52
-50
-48
-46
-44
-43
-40
-38
-36
-34
-32
-30
-28
-26
-24
-22
-20
-19
-17
-14
-12
-10
-8
-6
-5
-3
-1
0
1
3
4
6
7
8
9
9
11
11
12
12
14
13
14
14
14
15
14
15
15
15
15
16
16
17
17
17
16
16
17
17
17
18
18
18
18
19
19
19
19
19
19
20
20
20
20
20
20
20
19
19
20
20
19
19
19
19
19
18
18
18
18
18
18
18
18
19
18
18
19
18
19
19
19
19
20
21
21
21
21
21
21
21
21
21
21
22
22
22
22
23
24
24
23
24
24
24
25
25
25
25
25
25
25
26
26
26
25
25
25
26
25
25
26
26
26
26
26
26
26
26
26
26
26
27
27
28
27
27
27
27
28
28
28
28
28
29
28
28
28
28
28
28
28
28
28
28
27
28
27
27
27
27
27
26
26
26
26
26
26
26
26
26
26
26
26
26
27
26
27
27
27
27
27
28
28
28
28
28
28
28
28
28
28
28
28
27
27
27
27
28
27
27
26
27
26
26
25
25
24
25
24
24
24
23
24
23
23
23
23
23
23
23
24
24
24
24
24
24
25
25
26
26
26
26
26
26
25
25
25
26
26
26
26
26
26
26
26
25
26
25
25
25
24
24
24
24
24
24
24
24
24
24
24
24
24
24
24
24
24
23
24
24
24
24
23
24
23
23
24
24
23
23
23
24
24
24
25
25
25
25
26
26
27
28
28
28
29
29
31
31
32
33
34
34
35
35
36
36
36
37
37
37
37
37
37
37
36
36
36
36
36
37
36
36
36
36
36
35
35
35
35
35
35
36
36
35
36
35
35
35
36
36
36
36
35
36
36
36
36
34
34
34
34
33
33
32
32
31
31
30
30
30
30
29
29
29
29
29
29
29
29
29
29
29
30
29
29
29
30
30
30
31
31
31
31
31
31
31
31
30
30
30
30
29
29
29
28
27
28
27
27
26
26
25
25
25
25
23
23
23
23
22
21
21
21
20
20
20
19
19
19
19
18
17
18
18
17
17
17
17
17
17
17
17
17
17
16
17
17
18
18
18
19
19
18
19
19
19
19
19
20
20
20
20
19
20
18
19
18
18
17
18
17
16
16
15
15
14
15
15
16
18
20
23
27
32
37
43
51
60
70
82
94
109
123
140
156
174
193
212
232
253
273
293
312
332
349
365
378
390
400
407
411
410
407
399
387
373
353
332
307
279
251
219
187
153
120
85
52
19
-11
-40
-67
-92
-114
-132
-148
-160
-170
-178
-182
-185
-184
-182
-180
-176
-170
-164
-157
-148
-140
-132
-124
-116
-107
-98
-89
-82
-74
-66
-59
-52
-46
-40
-35
-31
-26
-23
-19
-15
-13
-10
-8
-6
-5
-3
-2
-2
-2
-2
-1
-1
-1
-1
0
0
-1
-1
-1
-1
-1
-1
-1
-1
-1
-2
-1
-1
-1
-1
-1
-1
-1
-1
-1
-1
-1
-1
0
0
0
0
1
1
1
1
1
2
2
2
3
3
3
3
3
3
2
2
2
2
2
1
2
2
0
1
1
0
0
0
0
0
0
0
0
0
-1
0
0
0
1
1
1
2
1
1
2
2
1
1
2
2
1
2
2
1
1
1
1
0
1
1
0
0
0
0
0
0
0
0
0
0
0
1
0
0
0
-1
-1
0
0
-1
-1
-1
-1
-1
-2
-2
-3
-3
-3
-3
-3
-3
-5
-5
-5
-5
-5
-6
-6
-6
-6
-6
-6
-6
-6
-6
-6
-6
-7
-6
-6
-6
-6
-7
-7
-6
-6
-7
-6
-6
-6
-6
-7
-7
-7
-7
-7
-7
-8
-8
-8
-10
-10
-9
-10
-10
-11
-11
-10
-10
-10
-12
-11
-11
-12
-12
-13
-12
-13
-13
-13
-13
-14
-14
-14
-15
-15
-16
-16
-16
-17
-17
-17
-17
-17
-19
-18
-19
-19
-21
-21
-21
-22
-23
-24
-25
-26
-26
-28
-28
-29
-30
-31
-32
-34
-34
-35
-36
-38
-39
-39
-41
-42
-43
-44
-46
-46
-47
-48
-49
-50
-51
-52
-52
-53
-54
-55
-57
-58
-59
-60
-62
-63
-65
-66
-67
-68
-69
-70
-71
-73
-74
-75
-77
-77
-78
-79
-80
-81
-83
-83
-84
-85
-86
-87
-87
-89
-89
-89
-89
-89
-89
-89
-88
-88
-88
-88
-87
-87
-86
-85
-84
-83
-82
-81
-80
-78
-77
-75
-74
-72
-71
-69
-68
-66
-64
-62
-61
-59
-57
-56
-54
-52
-51
-48
-47
-45
-43
-41
-39
-37
-35
-33
-30
-29
-26
-25
-23
-21
-19
-17
-15
-13
-12
-10
-9
-7
-5
-4
-3
-2
-1
0
1
2
3
4
4
5
5
5
6
6
6
6
6
7
8
7
8
8
9
9
9
9
9
10
10
10
9
10
10
9
9
9
9
9
8
9
9
8
8
9
9
8
9
9
9
9
10
10
10
10
11
10
10
10
11
11
12
12
11
12
12
12
12
12
12
12
12
12
12
12
12
12
12
13
13
13
13
14
13
13
14
14
14
15
15
15
15
15
16
16
15
15
16
15
16
17
16
17
17
17
17
17
17
17
17
18
18
18
18
18
17
18
18
18
18
17
18
19
19
18
19
19
19
19
19
19
20
21
20
20
21
20
21
21
20
20
20
20
19
19
19
18
18
18
18
18
17
17
17
17
16
17
16
17
17
17
18
18
18
17
17
19
18
18
19
19
19
19
19
20
19
18
18
18
18
19
19
18
18
18
18
18
18
17
17
17
17
16
16
16
15
15
15
15
16
15
15
15
16
15
16
16
16
16
17
17
17
17
17
17
18
18
19
18
19
19
19
19
19
19
19
20
18
18
18
18
18
18
17
17
16
17
16
15
16
16
16
15
14
15
15
14
14
14
13
14
14
14
14
14
13
14
14
14
14
14
15
15
15
15
16
16
16
17
17
17
18
18
19
20
19
20
20
21
21
22
23
23
24
24
25
25
25
26
25
26
27
26
26
26
27
26
27
26
27
27
27
27
27
27
27
27
28
28
28
28
28
29
29
29
30
30
30
31
31
32
32
32
32
33
33
33
33
32
32
33
33
33
32
32
31
30
30
29
28
28
27
27
26
26
25
25
23
23
23
23
23
22
22
23
22
21
22
21
22
22
22
23
23
23
24
23
23
23
23
22
22
22
22
22
21
22
21
20
21
20
20
19
19
18
18
18
17
17
15
15
15
15
14
13
13
13
12
12
12
12
12
12
11
11
11
11
11
11
11
11
12
12
12
12
12
11
11
11
12
12
13
14
13
13
13
15
15
15
15
15
16
16
16
16
15
16
15
15
15
15
15
15
14
14
13
13
13
13
13
13
14
16
17
19
22
26
31
37
44
52
61
72
83
96
109
124
139
156
173
191
210
229
248
268
287
305
323
340
355
368
379
387
392
395
394
388
379
367
350
331
309
283
256
226
195
162
129
94
61
29
-3
-33
-62
-88
-110
-131
-148
-162
-174
-183
-189
-193
-194
-193
-191
-187
-182
-176
-169
-162
-153
-145
-137
-127
-119
-111
-102
-94
-86
-78
-70
-63
-56
-50
-44
-39
-34
-29
-26
-21
-19
-16
-13
-11
-10
-8
-6
-6
-5
-5
-4
-4
-4
-4
-5
-4
-5
-4
-5
-4
-4
-4
-4
-4
-4
-4
-4
-3
-3
-3
-3
-3
-3
-4
-3
-4
-4
-3
-3
-4
-4
-3
-4
-4
-4
-4
-5
-5
-5
-4
-4
-4
-4
-4
-5
-4
-5
-4
-3
-4
-4
-3
-3
-3
-3
-3
-3
-3
-3
-3
-3
-3
-2
-3
-2
-3
-3
-3
-3
-3
-3
-2
-2
-1
-1
-1
-2
-1
-2
-2
-3
-3
-2
-2
-3
-4
-4
-4
-5
-4
-4
-5
-5
-5
-5
-5
-5
-6
-6
-5
-5
-5
-5
-5
-6
-6
-5
-5
-5
-6
-6
-6
-6
-5
-5
-5
-5
-6
-5
-5
-5
-5
-5
-5
-5
-6
-6
-5
-5
-5
-5
-5
-5
-5
-5
-5
-5
-6
-6
-6
-6
-5
-5
-6
-5
-6
-6
-6
-6
-6
-7
-7
-7
-6
-6
-7
-7
-8
-8
-9
-9
-9
-10
-10
-10
-11
-12
-12
-13
-12
-13
-14
-14
-14
-14
-14
-15
-15
-16
-16
-16
-16
-16
-17
-16
-17
-18
-18
-18
-18
-19
-19
-19
-20
-20
-21
-21
-22
-23
-24
-24
-25
-25
-26
-27
-28
-29
-31
-31
-32
-33
-34
-35
-35
-36
-36
-38
-38
-39
-40
-41
-42
-42
-43
-45
-46
-47
-48
-48
-50
-50
-51
-52
-53
-55
-56
-57
-59
-60
-61
-62
-63
-65
-66
-68
-69
-70
-71
-73
-74
-74
-75
-76
-77
-78
-79
-80
-81
-82
-83
-83
-83
-83
-84
-85
-85
-86
-86
-86
-87
-87
-87
-87
-88
-88
-88
-88
-89
-89
-88
-89
-88
-88
-88
-88
-87
-86
-86
-84
-83
-82
-81
-80
-79
-77
-75
-73
-72
-69
-67
-65
-63
-61
-59
-57
-55
-53
-50
-48
-46
-44
-41
-39
-38
-36
-34
-32
-30
-29
-27
-25
-23
-22
-20
-19
-17
-16
-14
-12
-12
-10
-8
-7
-6
-4
-3
-3
-2
-1
0
1
2
3
4
4
5
5
6
6
7
7
8
8
8
8
8
8
9
8
9
9
9
10
10
10
10
10
10
11
11
11
11
11
11
11
11
11
11
11
11
11
12
12
11
11
11
11
11
11
12
12
12
13
13
13
13
13
12
12
13
13
13
13
13
13
12
13
12
12
13
13
13
13
13
13
13
13
13
13
13
13
13
13
14
13
13
14
13
13
14
14
14
14
15
15
15
16
16
16
17
17
18
18
18
18
19
19
19
19
19
20
20
20
19
19
19
19
20
19
19
19
19
18
19
18
18
18
18
18
18
19
19
18
18
18
17
18
17
17
17
18
17
17
17
18
17
17
18
18
18
19
19
19
19
20
19
19
19
19
19
20
20
19
19
20
19
19
19
19
19
19
19
19
19
20
19
19
19
19
19
19
19
19
18
18
18
18
18
18
17
17
17
17
17
17
17
17
16
16
16
16
16
16
16
16
16
16
16
17
17
18
18
19
19
20
20
20
20
21
21
21
21
21
21
21
22
22
21
21
21
21
21
21
21
21
21
20
21
20
21
21
21
21
21
22
22
23
24
24
25
25
26
27
27
28
29
28
29
29
29
29
29
30
30
29
29
29
29
30
30
30
30
30
30
30
31
31
30
31
31
31
31
31
31
31
31
31
32
32
32
32
32
31
32
31
32
32
32
32
33
33
31
31
31
31
30
30
30
29
29
29
28
27
27
27
27
25
26
25
25
24
25
24
24
24
24
24
24
24
25
25
26
26
27
27
27
27
28
28
27
27
27
27
27
27
27
26
26
25
25
25
24
23
23
23
22
22
21
20
20
19
19
18
18
18
17
17
16
16
16
15
16
15
14
14
14
14
14
14
14
14
14
14
14
14
14
14
15
15
15
15
15
16
16
16
16
16
17
17
17
17
17
17
18
18
18
18
18
18
17
18
18
18
17
18
18
18
18
18
19
19
20
23
25
27
31
36
41
48
56
64
74
86
98
111
125
141
157
175
192
210
229
250
269
289
307
326
344
360
375
387
397
405
408
410
407
401
390
377
359
339
315
288
259
228
196
162
129
94
60
26
-6
-35
-65
-91
-112
-132
-150
-164
-176
-184
-190
-192
-194
-193
-190
-187
-181
-173
-166
-158
-149
-141
-132
-122
-114
-105
-97
-88
-80
-72
-66
-58
-53
-46
-41
-36
-32
-27
-23
-20
-17
-15
-13
-10
-9
-7
-6
-5
-4
-3
-3
-3
-4
-3
-4
-4
-4
-4
-4
-4
-4
-4
-4
-5
-5
-4
-5
-5
-4
-4
-3
-3
-3
-2
-3
-2
-2
-2
-1
-1
0
0
0
1
1
1
1
2
1
1
1
1
1
0
1
0
0
0
0
1
1
1
0
0
0
0
-1
0
-1
-1
-1
-1
0
-1
-1
-1
-1
-1
0
0
-1
-1
-1
-1
-1
-1
-1
-1
0
0
1
1
0
1
0
1
1
1
2
2
2
2
2
2
1
1
1
1
1
1
0
-1
-1
-1
-2
-3
-3
-4
-3
-3
-4
-4
-4
-4
-4
-4
-3
-3
-3
-4
-3
-3
-3
-3
-3
-3
-3
-3
-3
-3
-4
-4
-4
-5
-5
-5
-6
-5
-6
-6
-6
-6
-6
-7
-7
-7
-7
-7
-6
-6
-5
-5
-5
-5
-4
-4
-4
-4
-4
-4
-4
-4
-4
-5
-5
-5
-6
-6
-6
-7
-7
-7
-8
-8
-9
-9
-10
-10
-10
-11
-11
-11
-11
-12
-13
-13
-13
-14
-14
-14
-14
-15
-15
-16
-16
-17
-17
-18
-19
-20
-20
-21
-21
-22
-23
-24
-24
-26
-26
-27
-27
-28
-29
-30
-31
-32
-33
-34
-35
-36
-37
-38
-39
-40
-41
-42
-43
-45
-46
-46
-46
-47
-48
-49
-50
-51
-53
-54
-55
-56
-58
-59
-60
-61
-62
-64
-65
-65
-66
-68
-69
-70
-71
-72
-73
-74
-76
-76
-77
-78
-79
-79
-80
-81
-82
-83
-83
-83
-83
-85
-85
-84
-85
-85
-85
-85
-86
-86
-86
-85
-84
-84
-84
-83
-83
-82
-81
-81
-79
-78
-76
-74
-73
-71
-70
-68
-66
-64
-63
-61
-58
-57
-55
-53
-51
-49
-48
-46
-44
-43
-41
-40
-38
-37
-35
-33
-32
-31
-29
-28
-25
-24
-23
-22
-20
-18
-17
-15
-13
-12
-10
-10
-8
-7
-6
-5
-4
-3
-2
-2
-1
0
0
0
1
1
1
1
2
2
2
3
2
3
3
2
3
2
2
3
3
3
3
3
3
3
4
4
4
5
5
5
5
6
5
5
5
6
6
6
6
6
6
5
6
6
6
6
7
6
6
7
6
6
6
6
7
7
7
7
7
7
7
7
7
7
7
7
8
7
7
7
7
7
7
7
7
7
7
7
7
7
7
7
7
7
7
7
8
7
8
9
9
9
9
9
10
10
10
11
11
10
11
11
11
11
12
11
11
12
12
12
12
12
12
12
13
13
12
12
13
13
13
13
13
13
13
14
14
13
14
14
14
14
14
14
14
14
14
13
13
12
13
12
12
12
11
12
12
12
12
13
13
13
12
13
12
13
13
13
13
13
13
12
13
13
12
13
12
12
12
12
12
12
12
12
11
11
11
10
10
10
9
10
9
8
9
9
8
8
8
8
8
8
8
8
8
9
9
9
9
9
9
9
9
9
10
10
11
10
11
11
11
11
10
10
10
10
10
10
10
10
9
9
8
8
8
8
8
8
7
7
8
8
8
7
7
8
8
8
8
9
9
10
10
10
11
12
13
13
14
14
15
15
16
17
17
17
18
19
18
19
19
19
19
19
19
19
19
19
19
19
18
18
18
18
18
18
18
19
18
18
18
19
18
19
19
19
19
20
20
21
20
21
21
20
20
20
20
20
20
19
19
19
18
18
18
17
17
18
17
17
17
16
16
16
15
15
16
16
15
16
15
16
15
15
16
15
16
16
16
16
17
17
17
17
18
18
17
18
18
18
18
18
17
17
17
17
17
16
16
16
16
15
14
13
13
13
12
11
10
9
9
8
6
5
5
4
4
4
2
2
1
1
1
0
0
-1
-1
-1
-2
-2
-2
-3
-3
-3
-3
-2
-3
-2
-3
-2
-2
-2
-3
-3
-3
-2
-2
-2
-1
-1
-1
-1
-1
0
0
0
0
0
1
1
1
2
1
2
1
1
1
1
0
0
0
-1
-1
-1
-1
-1
-1
1
3
6
10
15
20
26
35
43
53
65
78
91
106
121
139
156
175
194
214
234
255
275
294
313
331
346
361
372
381
388
392
393
389
381
370
356
338
316
292
265
236
205
173
139
106
71
37
4
-28
-57
-84
-109
-132
-152
-168
-182
-192
-200
-204
-207
-208
-206
-202
-198
-192
-186
-178
-170
-161
-152
-143
-135
-126
-116
-108
-100
-92
-83
-77
-69
-62
-58
-52
-47
-43
-39
-35
-32
-30
-27
-25
-23
-23
-21
-22
-21
-20
-21
-20
-20
-20
-21
-22
-22
-22
-22
-23
-23
-23
-23
-23
-23
-23
-23
-23
-23
-22
-23
-22
-22
-22
-22
-22
-22
-22
-21
-21
-21
-21
-20
-21
-21
-20
-20
-20
-20
-20
-20
-20
-20
-20
-20
-19
-20
-20
-21
-21
-20
-21
-21
-21
-21
-21
-21
-21
-21
-21
-21
-20
-20
-21
-20
-19
-19
-19
-19
-19
-19
-19
-18
-18
-18
-18
-18
-19
-19
-18
-18
-18
-17
-17
-17
-17
-18
-18
-19
-18
-18
-18
-18
-18
-19
-18
-19
-19
-18
-18
-18
-18
-18
-19
-19
-19
-19
-19
-20
-19
-20
-20
-20
-20
-21
-22
-22
-22
-23
-24
-23
-23
-24
-24
-25
-25
-25
-25
-26
-27
-27
-27
-27
-28
-27
-27
-28
-28
-28
-28
-28
-28
-27
-27
-27
-27
-27
-27
-27
-26
-26
-26
-26
-26
-26
-26
-27
-26
-27
-26
-26
-26
-26
-26
-26
-27
-27
-27
-27
-28
-27
-28
-28
-28
-29
-28
-29
-30
-30
-30
-30
-30
-30
-31
-31
-31
-33
-33
-33
-34
-34
-35
-35
-35
-36
-36
-37
-37
-37
-39
-39
-39
-40
-41
-41
-42
-42
-42
-42
-43
-44
-44
-45
-46
-47
-48
-49
-51
-52
-52
-53
-55
-55
-56
-57
-58
-60
-61
-62
-63
-64
-65
-66
-67
-68
-69
-70
-72
-73
-74
-74
-76
-77
-77
-79
-80
-80
-81
-82
-83
-85
-86
-87
-88
-89
-90
-91
-93
-94
-95
-96
-97
-98
-99
-100
-101
-102
-102
-103
-104
-104
-104
-105
-105
-106
-105
-105
-105
-105
-104
-103
-102
-101
-99
-98
-97
-96
-94
-93
-90
-89
-87
-85
-84
-82
-80
-79
-77
-76
-74
-72
-71
-69
-67
-65
-63
-62
-60
-58
-57
-55
-53
-51
-49
-48
-46
-46
-45
-42
-40
-40
-38
-36
-34
-33
-32
-30
-29
-27
-26
-24
-23
-23
-21
-20
-20
-19
-19
-17
-16
-15
-15
-14
-13
-12
-12
-12
-11
-11
-11
-10
-10
-9
-9
-9
-9
-9
-8
-9
-9
-8
-7
-8
-8
-7
-8
-8
-8
-8
-8
-7
-7
-7
-7
-6
-6
-7
-6
-6
-6
-6
-5
-5
-5
-5
-5
-4
-5
-5
-6
-6
-5
-5
-6
-6
-6
-6
-6
-6
-5
-5
-4
-5
-5
-5
-4
-4
-4
-5
-4
-4
-4
-4
-4
-4
-4
-4
-5
-6
-5
-6
-5
-5
-5
-5
-6
-6
-5
-6
-6
-5
-5
-4
-4
-4
-4
-4
-4
-4
-3
-3
-2
-2
-1
-1
-1
-1
-1
0
0
0
0
0
1
0
0
0
-1
0
0
0
0
0
0
0
0
0
0
0
0
0
1
1
1
1
1
2
1
2
2
3
3
3
3
4
4
3
3
3
3
3
3
2
2
2
1
1
0
0
0
1
1
1
1
1
1
1
1
0
0
0
-1
0
-1
-1
-1
0
-1
-1
-1
-2
-2
-1
-1
-2
-2
-2
-2
-2
-3
-3
-3
-3
-4
-4
-4
-4
-4
-4
-4
-4
-4
-4
-3
-3
-3
-2
-2
-3
-2
-2
-2
-1
-1
0
0
-1
-1
-1
0
0
1
1
1
1
1
2
2
2
3
2
2
3
3
4
5
4
5
5
6
6
7
7
7
8
8
9
9
10
10
10
10
10
11
11
11
12
11
11
12
12
11
12
12
12
12
13
13
12
12
12
12
12
12
12
11
11
11
11
11
11
11
11
10
10
11
11
11
11
11
10
11
11
11
11
10
9
9
10
9
9
9
8
9
8
7
7
8
8
7
7
7
7
7
7
7
7
7
8
8
8
8
10
9
9
10
9
10
9
9
9
8
8
8
7
7
6
7
6
5
5
5
5
4
4
4
3
3
2
2
2
2
1
0
0
0
-1
-1
-1
-1
-1
-2
-1
-2
-2
-2
-2
-2
-2
-3
-2
-3
-2
-2
-2
-3
-4
-3
-3
-3
-3
-2
-3
-3
-3
-3
-3
-3
-4
-3
-4
-3
-3
-3
-4
-4
-4
-4
-4
-4
-4
-5
-5
-5
-5
-6
-6
-5
-6
-6
-6
-5
-4
-4
-2
0
3
7
11
17
25
33
41
51
63
76
90
104
120
137
156
174
194
214
234
255
275
295
313
331
347
361
374
383
390
394
395
392
384
372
357
338
316
291
264
235
204
171
137
102
68
34
1
-30
-61
-87
-112
-134
-154
-170
-184
-194
-201
-206
-208
-208
-208
-205
-200
-194
-187
-180
-172
-163
-154
-146
-136
-127
-118
-110
-101
-93
-86
-78
-71
-65
-59
-54
-50
-46
-42
-39
-36
-33
-31
-29
-28
-26
-26
-25
-25
-24
-24
-24
-24
-24
-23
-24
-23
-23
-23
-22
-23
-22
-22
-21
-21
-21
-21
-20
-19
-20
-20
-19
-19
-19
-19
-19
-18
-19
-19
-18
-18
-18
-18
-19
-19
-19
-19
-20
-19
-19
-20
-20
-20
-20
-21
-20
-20
-21
-20
-20
-20
-20
-19
-19
-19
-19
-20
-19
-19
-19
-18
-18
-19
-19
-18
-19
-19
-18
-18
-17
-18
-18
-18
-18
-18
-18
-18
-18
-18
-18
-18
-18
-18
-18
-19
-19
-19
-19
-18
-18
-18
-18
-18
-17
-17
-17
-18
-18
-18
-18
-18
-18
-18
-18
-18
-19
-19
-19
-18
-18
-17
-17
-18
-17
-17
-16
-16
-16
-16
-15
-15
-15
-15
-15
-15
-15
-15
-15
-15
-15
-15
-16
-16
-16
-16
-16
-17
-18
-18
-19
-19
-20
-20
-20
-21
-21
-21
-21
-21
-22
-22
-22
-21
-22
-22
-22
-22
-23
-23
-23
-23
-23
-23
-24
-23
-24
-24
-25
-25
-26
-26
-26
-26
-26
-27
-26
-27
-27
-27
-27
-26
-27
-26
-26
-26
-27
-26
-26
-26
-27
-27
-27
-28
-28
-29
-29
-30
-31
-32
-32
-33
-34
-35
-35
-36
-37
-38
-39
-39
-40
-40
-42
-42
-43
-43
-45
-46
-46
-46
-48
-48
-48
-49
-50
-51
-52
-53
-53
-54
-55
-56
-56
-58
-59
-59
-60
-61
-62
-63
-64
-66
-67
-67
-69
-71
-72
-73
-74
-76
-76
-77
-79
-80
-81
-83
-84
-85
-86
-86
-88
-89
-89
-90
-91
-91
-92
-93
-93
-94
-94
-94
-94
-94
-94
-94
-94
-93
-94
-94
-93
-93
-92
-91
-91
-90
-90
-89
-87
-86
-85
-83
-81
-80
-79
-77
-75
-74
-71
-69
-68
-65
-63
-62
-59
-57
-56
-53
-52
-49
-48
-46
-43
-41
-40
-39
-37
-36
-34
-32
-30
-29
-27
-26
-25
-23
-23
-21
-20
-18
-17
-16
-15
-14
-13
-12
-11
-11
-10
-9
-9
-8
-8
-8
-7
-7
-7
-7
-7
-6
-6
-6
-5
-5
-5
-4
-5
-4
-4
-4
-4
-4
-3
-3
-3
-2
-3
-2
-1
-2
-1
-1
-1
-1
-1
0
0
-1
-1
-1
-1
-1
-1
-1
-2
-2
-3
-3
-2
-3
-3
-3
-4
-4
-3
-4
-4
-3
-4
-4
-4
-4
-4
-4
-3
-4
-4
-3
-3
-3
-3
-3
-2
-3
-2
-3
-3
-3
-3
-2
-3
-3
-3
-3
-3
-2
-3
-3
-2
-2
-1
-1
-1
-1
-1
0
1
1
2
2
2
2
2
2
3
3
2
2
2
3
3
3
3
3
3
3
3
3
3
3
4
3
3
4
4
5
5
4
5
6
5
6
6
7
7
6
6
6
6
6
6
6
6
6
6
6
6
6
6
6
7
7
7
7
7
7
7
7
6
6
7
7
7
6
6
6
5
5
6
5
5
5
5
5
5
5
4
4
5
5
6
5
5
6
6
5
6
6
7
6
6
6
6
6
7
7
7
7
6
7
7
7
7
6
7
6
7
7
7
7
7
7
8
8
8
9
9
10
10
10
11
11
11
11
11
11
11
12
12
12
13
13
13
13
13
13
13
14
14
15
16
16
16
18
18
19
19
19
19
20
20
21
21
21
21
21
21
21
20
20
20
20
19
20
19
19
18
18
18
18
19
18
18
18
17
17
17
17
16
16
16
16
16
15
15
14
13
13
13
14
14
14
13
13
13
13
14
13
13
14
14
14
15
15
15
15
16
16
17
17
17
17
17
17
16
17
16
16
16
16
15
15
14
13
12
12
11
10
10
9
9
8
8
7
6
6
5
5
4
3
4
4
4
3
3
3
4
3
4
4
4
5
5
5
5
5
6
6
6
5
5
5
5
4
5
5
4
4
5
4
5
5
5
5
5
7
7
7
7
7
7
7
8
7
6
6
6
5
6
6
5
5
5
5
6
7
9
11
14
18
23
28
34
42
51
61
71
84
98
112
128
145
163
181
200
219
239
259
279
299
317
335
351
364
377
387
393
398
399
395
389
379
363
346
325
301
274
245
215
183
149
115
80
47
13
-19
-49
-76
-100
-123
-143
-159
-172
-183
-191
-195
-199
-199
-197
-195
-190
-184
-177
-169
-161
-153
-145
-135
-126
-118
-108
-100
-91
-84
-76
-70
-63
-57
-51
-46
-41
-36
-32
-29
-26
-24
-21
-19
-17
-15
-14
-13
-12
-12
-10
-10
-10
-10
-10
-10
-9
-8
-8
-8
-7
-7
-7
-7
-7
-7
-6
-5
-5
-5
-5
-5
-5
-5
-5
-5
-5
-5
-5
-5
-5
-6
-6
-7
-6
-7
-7
-6
-6
-7
-7
-7
-7
-7
-7
-7
-7
-7
-7
-8
-7
-8
-7
-7
-7
-7
-7
-6
-6
-6
-6
-6
-6
-6
-7
-6
-6
-6
-6
-6
-6
-7
-7
-6
-7
-6
-6
-6
-6
-5
-5
-5
-5
-5
-5
-5
-5
-5
-5
-6
-5
-6
-6
-6
-5
-6
-6
-6
-6
-6
-6
-6
-6
-6
-6
-6
-7
-6
-6
-6
-5
-6
-6
-6
-5
-6
-5
-5
-5
-5
-5
-5
-5
-5
-6
-6
-6
-6
-7
-7
-7
-7
-8
-8
-9
-9
-9
-9
-10
-10
-10
-9
-10
-9
-9
-9
-8
-8
-8
-8
-8
-8
-8
-8
-7
-8
-8
-8
-8
-8
-8
-8
-8
-8
-9
-9
-9
-10
-10
-9
-10
-11
-12
-12
-12
-12
-13
-13
-13
-14
-14
-14
-14
-15
-15
-15
-16
-16
-17
-17
-17
-18
-18
-18
-19
-19
-20
-20
-20
-21
-21
-22
-22
-23
-24
-24
-25
-26
-26
-26
-27
-29
-29
-30
-31
-32
-32
-34
-34
-35
-36
-38
-39
-40
-41
-42
-44
-45
-46
-48
-49
-49
-50
-52
-52
-54
-54
-55
-56
-57
-58
-58
-60
-61
-62
-63
-63
-64
-65
-65
-66
-68
-67
-68
-69
-70
-70
-71
-72
-72
-74
-74
-75
-76
-77
-77
-77
-78
-78
-79
-79
-80
-80
-80
-81
-80
-80
-80
-79
-79
-78
-77
-77
-76
-75
-75
-73
-72
-70
-69
-67
-67
-65
-64
-62
-61
-59
-57
-55
-53
-51
-49
-46
-44
-42
-40
-38
-36
-34
-32
-30
-29
-27
-25
-23
-22
-21
-19
-17
-16
-15
-14
-13
-11
-10
-9
-8
-6
-5
-4
-2
-2
-1
0
1
2
3
5
4
6
6
6
8
8
7
8
8
9
9
9
9
9
9
10
9
10
10
10
10
10
10
10
10
9
9
9
10
9
9
9
8
9
8
8
8
8
8
8
8
8
8
8
8
8
9
9
9
9
9
10
10
9
10
9
10
10
10
11
11
11
11
11
11
11
11
11
11
11
11
11
12
11
11
11
11
10
11
12
11
11
11
12
12
12
12
12
12
13
13
13
13
13
13
13
15
15
15
16
16
16
16
17
17
17
17
18
18
18
18
18
18
17
16
17
17
16
16
16
16
16
16
16
16
15
15
16
16
16
17
18
17
18
18
19
20
19
21
21
21
21
21
22
22
21
21
21
21
21
21
21
20
21
20
20
21
20
20
20
20
20
20
19
19
19
19
20
19
19
18
18
18
18
18
18
17
18
18
18
18
17
17
17
17
18
18
18
18
18
19
19
18
18
18
18
18
18
18
17
17
17
17
17
17
17
17
17
17
17
18
18
19
18
19
20
20
20
22
22
22
23
24
24
25
25
26
27
27
28
27
28
29
28
29
29
29
30
30
30
31
31
31
32
32
32
32
32
32
32
32
32
31
31
31
31
30
30
31
30
30
31
30
30
30
29
30
30
30
30
30
30
30
29
30
30
29
30
29
29
29
29
28
27
27
26
26
26
26
26
26
25
25
25
25
25
25
25
25
26
26
26
27
27
27
28
28
28
28
29
28
29
29
29
29
29
29
28
28
29
28
28
27
26
26
25
25
24
24
22
22
22
20
19
20
19
19
18
18
17
17
17
15
16
16
15
15
15
14
14
14
14
14
14
14
14
15
14
15
15
16
16
15
16
16
16
16
17
17
18
18
18
18
19
18
19
18
19
19
19
19
19
19
19
18
18
18
17
16
16
15
15
14
15
14
15
16
18
20
23
27
32
37
44
51
59
69
81
92
106
119
135
150
168
186
205
224
244
263
283
302
320
337
353
366
378
386
393
396
397
393
385
373
358
339
318
293
267
238
208
177
143
110
77
44
12
-19
-46
-73
-96
-117
-135
-150
-162
-172
-178
-182
-184
-184
-182
-179
-175
-169
-162
-155
-147
-140
-131
-123
-114
-106
-98
-90
-82
-75
-67
-61
-53
-48
-41
-37
-32
-27
-24
-21
-17
-15
-12
-10
-8
-7
-5
-4
-4
-3
-2
-1
-1
-1
-1
0
0
1
1
0
0
0
1
1
0
1
1
0
0
-1
-1
0
0
-1
0
0
0
-1
-1
-1
0
0
0
-1
0
-1
-1
0
-1
-1
-1
0
0
0
1
1
1
1
1
2
2
2
2
2
3
3
3
4
3
4
4
5
5
4
5
5
5
5
5
6
5
5
5
5
5
5
4
4
3
2
3
2
2
2
1
1
1
1
1
2
2
2
2
1
1
2
2
1
2
2
2
2
3
3
3
3
3
3
3
2
3
2
2
2
2
2
1
2
1
1
1
0
0
0
0
0
0
-1
-1
-1
-1
-1
-1
-1
-1
-2
-2
-2
-3
-2
-3
-3
-3
-3
-3
-3
-3
-3
-3
-3
-2
-3
-3
-3
-3
-3
-3
-3
-3
-4
-4
-3
-3
-3
-4
-4
-5
-5
-5
-6
-6
-7
-7
-8
-8
-9
-9
-10
-10
-11
-11
-11
-11
-12
-12
-12
-12
-12
-13
-12
-12
-13
-13
-13
-13
-13
-14
-15
-15
-15
-15
-16
-17
-18
-18
-19
-20
-20
-21
-22
-23
-24
-24
-25
-26
-27
-28
-29
-30
-32
-33
-33
-35
-36
-36
-37
-38
-41
-42
-43
-44
-46
-47
-48
-50
-52
-53
-54
-56
-57
-58
-59
-60
-61
-62
-63
-64
-65
-65
-66
-67
-68
-69
-69
-70
-71
-71
-72
-73
-73
-74
-75
-75
-75
-75
-76
-76
-76
-78
-78
-78
-78
-78
-78
-78
-78
-77
-77
-77
-76
-76
-75
-73
-71
-70
-69
-68
-66
-65
-63
-61
-60
-58
-56
-54
-52
-51
-49
-47
-45
-43
-40
-39
-36
-34
-32
-31
-29
-27
-25
-23
-21
-19
-17
-16
-14
-12
-11
-9
-8
-6
-5
-3
-2
0
1
2
4
4
7
7
8
9
10
10
11
11
12
12
12
13
13
14
14
14
14
15
14
15
15
15
15
16
15
15
16
16
16
15
16
16
16
16
17
17
17
18
18
19
19
18
19
19
20
20
20
20
19
19
19
19
19
19
19
19
19
19
18
18
19
19
19
19
20
20
20
21
21
21
21
22
22
22
23
23
23
23
23
22
22
22
21
21
21
21
20
20
20
19
19
19
19
20
20
20
19
20
20
20
20
21
21
21
22
22
22
22
22
22
21
21
21
22
22
22
22
22
22
22
22
23
22
23
23
23
23
23
24
23
24
24
25
25
24
26
25
25
25
26
26
26
26
26
25
25
25
26
25
25
24
25
25
25
25
25
25
25
25
25
25
24
24
24
24
23
23
23
23
23
23
23
24
24
24
25
25
25
25
26
26
26
27
27
27
27
27
27
26
26
26
26
26
26
25
24
24
23
23
23
23
23
22
21
21
21
21
20
20
20
20
19
20
19
20
20
20
20
20
20
20
21
21
22
22
22
23
24
23
25
25
25
26
27
27
28
29
30
30
31
31
31
31
32
32
33
33
33
32
33
33
33
33
34
34
34
34
35
35
34
34
34
35
34
34
34
35
35
35
35
35
35
35
35
35
35
35
35
35
35
35
35
35
34
35
35
34
34
33
32
33
32
32
32
32
31
30
30
29
28
29
29
28
27
28
29
28
28
28
28
28
28
28
29
29
29
30
30
30
30
31
31
31
31
31
30
31
31
30
29
28
28
28
27
27
27
26
26
26
25
24
24
23
22
22
22
21
21
20
19
19
19
19
19
19
19
18
18
18
17
17
17
17
17
17
16
16
17
16
16
16
16
16
16
16
16
17
17
17
17
17
17
17
18
18
18
18
18
18
18
17
18
17
18
18
18
17
17
16
17
16
16
15
15
15
15
15
15
15
15
15
17
18
20
22
26
30
35
41
47
55
64
74
85
98
111
125
140
157
174
191
210
229
249
268
287
306
323
339
354
366
376
385
390
392
390
384
375
362
345
325
302
278
251
221
190
158
126
92
59
27
-4
-34
-61
-86
-108
-127
-144
-159
-169
-178
-184
-186
-188
-187
-185
-180
-175
-169
-163
-154
-147
-139
-131
-121
-114
-106
-97
-89
-81
-74
-66
-59
-53
-47
-42
-36
-32
-27
-24
-20
-18
-15
-13
-10
-9
-8
-6
-6
-6
-5
-5
-4
-4
-3
-4
-4
-4
-4
-3
-3
-3
-3
-3
-3
-3
-1
-1
-1
-1
-1
0
1
1
2
2
3
3
3
3
3
4
4
4
3
3
3
3
2
2
2
2
1
1
2
1
1
1
1
0
0
0
1
1
1
0
1
0
0
-1
0
0
1
1
1
1
2
2
2
3
3
2
2
3
3
3
3
3
3
3
3
3
3
3
3
3
3
3
3
3
3
3
2
2
3
2
3
3
3
3
2
2
2
2
2
2
1
1
2
2
0
0
0
0
0
-1
-1
-1
-1
-2
-2
-2
-2
-1
-1
-1
-1
-1
-1
0
0
0
1
1
1
1
1
2
1
1
1
1
1
0
0
0
-1
-2
-2
-2
-2
-3
-3
-3
-4
-4
-4
-3
-4
-5
-4
-4
-4
-3
-3
-3
-4
-4
-4
-4
-4
-5
-5
-6
-6
-6
-6
-7
-7
-8
-9
-9
-9
-10
-10
-10
-10
-11
-11
-11
-12
-12
-13
-14
-14
-14
-14
-15
-15
-16
-16
-17
-17
-17
-18
-18
-19
-19
-20
-20
-21
-22
-23
-24
-25
-25
-26
-28
-29
-30
-31
-31
-33
-34
-34
-36
-36
-37
-38
-40
-41
-42
-43
-44
-44
-45
-47
-49
-49
-51
-52
-53
-55
-55
-56
-57
-58
-60
-61
-62
-63
-65
-65
-66
-67
-67
-68
-69
-70
-71
-72
-72
-72
-72
-73
-74
-74
-74
-75
-75
-75
-75
-76
-76
-75
-75
-75
-75
-75
-75
-75
-73
-73
-72
-70
-69
-68
-67
-66
-64
-62
-60
-59
-57
-56
-53
-51
-50
-48
-46
-44
-42
-40
-38
-36
-34
-32
-30
-28
-26
-25
-22
-21
-19
-17
-15
-13
-12
-11
-10
-7
-5
-3
-2
-1
1
2
5
6
7
8
9
11
11
12
13
14
14
15
15
15
16
17
17
17
17
18
18
18
18
18
19
19
19
18
19
20
20
19
20
19
20
20
21
21
21
21
21
20
21
20
20
20
20
20
19
19
19
20
19
18
18
19
19
19
19
19
19
19
20
19
19
18
19
19
19
19
19
19
18
18
18
19
19
19
19
19
20
20
21
21
21
22
22
22
22
22
22
23
23
23
23
23
24
24
24
24
24
24
25
25
24
24
24
25
25
25
25
25
24
24
25
25
25
26
26
26
26
26
26
26
26
26
27
27
27
27
27
26
27
26
26
26
27
26
26
26
25
25
25
25
25
24
24
24
23
23
23
23
22
22
22
21
22
22
22
22
22
22
22
22
22
22
22
22
22
22
23
23
22
23
23
24
23
24
25
25
25
25
25
25
25
25
25
25
25
25
26
25
25
25
25
25
25
25
25
25
25
25
25
25
24
24
24
24
24
24
24
25
24
23
24
25
24
25
25
25
26
26
27
28
28
29
29
30
30
31
30
31
31
31
32
32
33
33
34
33
34
34
35
35
34
34
34
35
35
35
35
35
35
35
35
35
36
36
36
37
37
37
37
37
37
36
36
37
37
37
36
36
36
36
35
36
36
36
35
36
35
35
35
35
35
34
34
34
34
34
33
33
33
32
32
31
31
31
30
30
30
30
30
30
29
29
29
29
29
29
30
30
30
31
31
32
33
33
34
34
34
35
35
34
35
34
34
34
34
33
33
32
31
30
30
30
29
28
27
27
26
26
25
25
23
23
23
23
22
22
22
21
21
21
21
21
21
21
21
21
21
21
21
21
21
21
22
22
22
22
22
21
22
21
22
22
22
23
24
24
24
24
24
25
25
25
25
24
24
24
24
24
24
23
23
23
22
23
22
22
22
21
21
20
21
21
22
23
24
26
29
34
38
43
50
58
67
77
89
100
114
129
144
161
179
197
216
235
256
275
294
312
331
346
362
375
386
393
398
401
399
393
383
371
354
334
311
287
260
231
199
167
134
101
69
37
5
-24
-52
-77
-99
-117
-135
-148
-160
-168
-174
-178
-178
-178
-176
-172
-167
-161
-153
-146
-138
-129
-121
-113
-104
-96
-88
-80
-72
-64
-58
-51
-45
-40
-35
-29
-26
-22
-18
-15
-13
-10
-8
-6
-5
-4
-3
-2
-1
-1
1
1
2
2
2
3
2
3
3
4
4
5
5
5
5
5
5
5
5
6
6
7
6
6
6
6
5
6
6
6
6
6
7
6
7
7
7
6
6
6
6
7
7
7
7
6
6
5
6
5
5
5
5
5
4
4
5
5
4
3
3
3
3
3
3
3
3
3
3
3
3
3
3
3
3
3
3
3
3
3
4
3
3
3
4
3
3
2
4
3
3
4
3
3
3
3
3
3
3
2
3
3
3
2
2
2
1
2
2
2
2
2
2
2
1
1
1
1
0
0
0
0
-1
0
0
-1
-1
-1
-2
-2
-2
-2
-1
-2
-2
-1
-2
-2
-3
-2
-2
-2
-2
-2
-3
-2
-3
-3
-3
-4
-3
-3
-4
-4
-4
-4
-4
-5
-5
-5
-5
-5
-6
-6
-5
-6
-7
-6
-6
-6
-6
-6
-6
-6
-7
-7
-7
-7
-8
-8
-8
-8
-8
-9
-9
-9
-10
-11
-11
-11
-12
-12
-13
-13
-13
-14
-15
-15
-16
-16
-17
-18
-19
-20
-20
-21
-23
-24
-24
-25
-25
-27
-27
-28
-29
-30
-32
-32
-33
-34
-36
-37
-38
-39
-40
-41
-42
-44
-45
-45
-46
-47
-47
-49
-50
-51
-52
-54
-55
-56
-58
-59
-60
-62
-63
-64
-65
-66
-68
-69
-70
-71
-72
-73
-75
-75
-77
-77
-78
-80
-80
-82
-82
-83
-83
-85
-86
-86
-86
-86
-86
-87
-87
-86
-86
-85
-85
-85
-84
-84
-83
-82
-81
-80
-80
-78
-78
-76
-75
-73
-72
-70
-68
-67
-65
-64
-62
-60
-59
-56
-55
-52
-51
-49
-47
-45
-44
-41
-39
-38
-36
-33
-31
-30
-28
-26
-25
-23
-22
-20
-18
-17
-16
-14
-13
-11
-11
-10
-8
-8
-7
-6
-6
-5
-4
-5
-4
-3
-4
-3
-3
-3
-3
-3
-4
-4
-3
-3
-4
-3
-3
-4
-3
-3
-3
-3
-3
-3
-3
-3
-3
-2
-2
-2
-1
-2
-2
-2
-2
0
-1
0
0
1
1
1
1
1
1
1
1
1
2
2
2
3
2
2
3
2
3
3
4
4
4
4
4
5
4
4
4
5
5
5
5
5
5
5
5
6
6
7
7
7
7
7
8
8
8
9
9
9
9
9
9
10
9
10
10
11
11
11
11
11
11
11
12
12
11
12
12
12
12
12
12
12
12
12
13
13
14
14
14
14
15
16
16
16
17
17
17
19
19
18
18
19
18
19
19
19
19
19
19
20
20
20
20
20
19
19
19
19
19
18
18
19
19
19
18
19
19
19
19
19
19
19
18
19
18
18
18
18
18
18
18
19
18
18
19
19
19
19
19
19
19
19
19
20
19
19
20
20
19
19
19
19
18
18
19
19
19
19
19
19
19
19
19
19
19
19
18
18
18
19
19
19
19
19
19
20
20
20
20
21
21
21
22
23
23
23
24
25
25
26
27
27
28
29
29
30
30
30
32
32
32
32
33
34
34
34
34
35
35
36
36
37
37
37
38
39
40
40
40
41
41
42
42
41
41
42
42
42
42
42
42
41
41
40
41
41
41
40
39
39
38
38
38
37
37
36
35
35
35
34
33
32
32
31
31
31
32
32
32
32
32
32
33
33
33
34
35
35
35
36
36
36
36
36
36
37
37
36
37
36
37
35
35
35
35
35
34
33
32
32
31
30
30
28
28
28
27
27
26
26
24
24
23
22
23
22
22
21
21
22
22
22
22
22
22
23
24
24
25
25
25
26
27
27
27
27
27
28
29
29
29
28
28
28
29
28
29
29
29
29
29
30
29
30
30
30
31
31
32
31
31
31
31
31
32
32
32
32
32
32
32
32
33
34
35
37
40
42
47
52
58
65
72
81
91
103
115
128
144
159
175
192
210
228
247
266
285
305
322
339
354
368
379
389
396
401
402
399
393
383
369
352
333
310
284
257
227
197
165
133
100
67
35
5
-24
-50
-74
-96
-113
-129
-142
-152
-160
-165
-168
-168
-166
-163
-159
-154
-147
-140
-132
-125
-116
-107
-99
-90
-82
-73
-65
-58
-50
-42
-36
-30
-23
-18
-13
-9
-4
-1
3
5
8
10
13
15
16
18
18
19
20
20
20
20
20
21
21
19
19
19
19
19
18
19
18
18
18
18
17
17
18
18
17
18
18
18
18
18
18
18
18
18
18
18
18
19
18
18
19
19
19
19
20
20
20
20
21
21
21
22
21
22
22
22
23
23
23
23
23
23
23
23
23
23
23
22
23
23
23
23
22
22
23
24
24
24
25
25
26
26
26
27
27
27
27
27
27
28
28
27
27
27
27
26
26
26
25
25
24
23
23
22
21
20
20
19
19
19
18
18
17
18
18
17
18
19
19
19
20
20
20
21
21
22
22
23
23
23
23
24
24
24
24
24
23
23
23
22
22
22
21
20
20
18
18
18
18
17
16
17
16
15
15
16
16
16
16
16
16
16
15
16
15
15
15
15
15
15
15
15
14
14
14
14
13
13
14
13
13
13
12
12
12
11
11
11
11
11
10
10
9
9
9
8
8
7
7
7
6
6
5
5
4
4
3
3
2
2
1
0
-1
-2
-2
-3
-3
-5
-5
-6
-7
-8
-10
-11
-12
-13
-14
-15
-16
-17
-18
-19
-21
-22
-23
-24
-25
-25
-27
-28
-29
-30
-31
-32
-33
-34
-35
-36
-37
-38
-39
-40
-42
-43
-44
-44
-45
-46
-46
-47
-47
-49
-49
-50
-50
-51
-52
-52
-52
-52
-52
-52
-53
-53
-53
-52
-52
-51
-50
-50
-50
-49
-49
-48
-47
-46
-46
-44
-44
-42
-41
-40
-39
-37
-35
-33
-32
-30
-28
-26
-25
-23
-21
-18
-16
-14
-12
-8
-6
-5
-3
-1
1
3
5
7
9
10
12
14
16
17
19
20
21
22
24
25
25
27
28
28
28
29
30
31
32
33
34
34
35
35
36
37
38
38
39
39
40
40
40
41
41
41
42
42
42
42
42
42
42
42
42
42
42
42
41
42
42
42
41
42
42
42
42
41
42
42
42
42
42
42
42
43
43
43
43
43
43
42
42
41
41
41
41
40
41
40
40
40
40
40
40
40
39
40
40
40
41
41
41
42
43
43
43
44
44
45
45
45
45
46
46
46
46
46
46
46
46
46
46
46
45
46
46
46
47
47
47
47
46
46
47
46
47
47
47
47
46
46
46
46
46
46
46
47
47
46
47
47
47
46
47
47
47
46
47
47
47
47
48
48
47
48
47
47
47
47
48
48
48
47
47
46
46
46
46
46
45
45
45
44
44
43
44
44
44
44
44
44
44
44
44
44
44
44
44
44
45
45
45
45
45
45
45
44
45
45
45
45
45
45
45
44
44
44
44
44
44
44
45
44
44
44
44
44
44
44
44
44
45
45
45
45
45
45
45
45
46
46
46
47
47
46
47
47
48
48
48
49
49
49
50
50
50
50
51
51
51
51
51
52
52
53
54
54
54
55
55
57
57
58
59
59
59
60
60
60
60
61
61
61
61
60
60
60
60
60
60
60
60
60
59
58
59
58
58
58
57
57
57
56
56
55
55
56
55
54
54
54
53
53
52
52
52
52
51
51
52
51
51
51
51
51
52
52
52
52
