# Simple Text Format
# Sampling Rate (Hz):= 1200.00
# Resolution:= 12
# Labels:= ECG	 V5
# Age:=	52
# Gender:=	Masculino
-49
-48
-48
-49
-49
-49
-49
-51
-51
-51
-51
-52
-52
-52
-52
-53
-52
-52
-53
-53
-53
-53
-53
-53
-54
-54
-53
-53
-53
-54
-54
-54
-54
-54
-54
-54
-55
-55
-54
-54
-55
-55
-55
-55
-55
-55
-55
-55
-55
-55
-56
-56
-56
-56
-56
-57
-57
-57
-57
-57
-57
-57
-57
-57
-57
-58
-58
-57
-57
-57
-57
-57
-58
-58
-58
-58
-59
-59
-59
-59
-59
-59
-59
-59
-59
-59
-60
-59
-60
-60
-60
-60
-61
-60
-61
-60
-60
-61
-61
-60
-60
-60
-60
-61
-61
-60
-60
-61
-61
-61
-61
-61
-62
-62
-62
-63
-63
-64
-64
-64
-65
-66
-66
-67
-67
-68
-69
-69
-70
-71
-71
-73
-73
-74
-75
-76
-77
-77
-78
-79
-79
-80
-80
-82
-83
-84
-85
-85
-86
-87
-88
-89
-90
-90
-91
-93
-94
-94
-95
-96
-97
-97
-98
-99
-99
-100
-100
-101
-102
-103
-103
-104
-105
-105
-106
-106
-107
-107
-107
-107
-108
-108
-107
-108
-109
-109
-109
-108
-108
-108
-107
-107
-107
-106
-106
-105
-105
-104
-103
-102
-101
-100
-99
-98
-96
-95
-94
-94
-92
-90
-89
-87
-86
-85
-84
-83
-82
-79
-78
-76
-74
-73
-71
-70
-69
-67
-66
-64
-63
-62
-60
-59
-58
-57
-57
-55
-54
-53
-52
-51
-50
-49
-48
-47
-46
-45
-44
-44
-43
-42
-41
-40
-40
-39
-39
-38
-38
-38
-37
-36
-36
-36
-36
-35
-35
-35
-35
-35
-35
-35
-35
-35
-36
-36
-37
-36
-37
-37
-37
-37
-37
-37
-37
-37
-37
-36
-36
-37
-37
-35
-35
-35
-35
-34
-34
-34
-34
-32
-33
-32
-32
-31
-31
-31
-31
-31
-31
-31
-32
-33
-32
-32
-34
-34
-34
-35
-35
-35
-34
-34
-34
-33
-34
-34
-34
-34
-33
-33
-33
-33
-32
-32
-32
-32
-31
-31
-31
-31
-30
-31
-30
-30
-30
-30
-29
-29
-29
-29
-29
-29
-29
-29
-29
-29
-29
-29
-30
-30
-29
-29
-29
-28
-28
-28
-29
-29
-29
-29
-29
-29
-30
-30
-31
-31
-31
-31
-32
-32
-32
-32
-32
-32
-32
-33
-32
-32
-32
-32
-31
-31
-31
-31
-31
-30
-31
-30
-31
-30
-30
-30
-29
-29
-29
-29
-29
-29
-29
-28
-28
-29
-29
-29
-30
-30
-29
-30
-30
-31
-30
-30
-30
-30
-31
-31
-31
-31
-31
-31
-31
-31
-30
-30
-30
-29
-30
-30
-30
-30
-30
-29
-29
-29
-29
-28
-30
-30
-30
-29
-31
-31
-30
-31
-31
-31
-32
-33
-33
-33
-34
-34
-34
-34
-34
-35
-35
-35
-35
-35
-35
-35
-35
-35
-34
-34
-35
-34
-34
-34
-33
-32
-32
-32
-31
-31
-31
-31
-31
-32
-32
-31
-31
-31
-31
-31
-31
-31
-30
-30
-30
-30
-29
-30
-29
-29
-29
-28
-27
-27
-27
-26
-26
-25
-25
-24
-24
-24
-23
-23
-23
-22
-21
-21
-21
-21
-21
-21
-21
-21
-21
-22
-22
-22
-23
-23
-24
-23
-23
-23
-23
-22
-23
-22
-22
-22
-22
-22
-22
-21
-21
-21
-20
-20
-20
-21
-21
-21
-21
-21
-21
-21
-20
-21
-21
-21
-21
-21
-21
-22
-21
-22
-22
-21
-22
-21
-22
-22
-21
-21
-20
-20
-20
-20
-19
-18
-19
-18
-17
-17
-17
-17
-16
-16
-16
-16
-16
-16
-16
-16
-16
-17
-16
-17
-17
-18
-18
-18
-19
-21
-21
-21
-22
-22
-23
-23
-25
-26
-26
-26
-27
-28
-28
-29
-29
-30
-30
-31
-31
-32
-32
-32
-33
-33
-33
-35
-34
-35
-35
-35
-36
-35
-35
-35
-35
-35
-35
-35
-35
-36
-36
-36
-35
-35
-35
-35
-36
-36
-37
-36
-36
-36
-35
-36
-36
-37
-37
-36
-37
-37
-36
-37
-37
-38
-38
-38
-38
-39
-39
-39
-40
-40
-40
-40
-40
-40
-40
-39
-37
-36
-33
-30
-27
-22
-18
-11
-5
3
12
22
33
45
57
71
85
100
116
132
148
165
181
199
214
229
243
255
264
273
278
282
284
282
278
270
261
249
234
218
199
179
157
133
110
85
61
37
13
-9
-30
-49
-67
-84
-97
-110
-121
-130
-138
-143
-147
-151
-152
-154
-153
-152
-150
-147
-143
-141
-136
-131
-126
-121
-116
-111
-105
-100
-96
-91
-86
-83
-79
-76
-73
-70
-68
-65
-64
-62
-61
-60
-59
-58
-58
-58
-58
-58
-57
-57
-57
-57
-58
-58
-58
-58
-58
-58
-57
-58
-57
-58
-57
-57
-56
-57
-57
-56
-56
-56
-55
-55
-55
-55
-55
-54
-54
-54
-55
-54
-55
-54
-55
-55
-54
-54
-54
-54
-54
-55
-54
-55
-54
-54
-54
-54
-53
-53
-54
-54
-54
-54
-54
-53
-54
-53
-53
-53
-53
-53
-53
-53
-53
-53
-53
-53
-53
-53
-52
-53
-53
-53
-52
-52
-52
-52
-52
-52
-52
-52
-52
-53
-54
-54
-54
-54
-54
-54
-55
-55
-56
-55
-55
-56
-56
-55
-55
-55
-55
-55
-54
-55
-55
-55
-53
-53
-54
-54
-54
-54
-54
-55
-55
-55
-56
-56
-56
-56
-56
-57
-57
-58
-58
-58
-59
-59
-59
-59
-58
-58
-58
-58
-58
-58
-57
-57
-57
-56
-57
-57
-57
-56
-57
-57
-57
-57
-57
-58
-57
-58
-58
-58
-59
-58
-59
-59
-59
-59
-59
-60
-60
-60
-60
-60
-60
-60
-61
-60
-61
-61
-62
-61
-61
-61
-61
-61
-61
-61
-61
-62
-62
-62
-63
-62
-63
-63
-64
-64
-64
-64
-66
-66
-66
-66
-66
-67
-67
-68
-69
-69
-70
-71
-71
-71
-72
-72
-73
-74
-75
-75
-76
-76
-77
-77
-79
-79
-79
-80
-81
-81
-82
-83
-84
-84
-85
-86
-87
-88
-89
-90
-90
-91
-92
-92
-93
-94
-94
-95
-96
-97
-97
-98
-99
-100
-100
-102
-102
-103
-103
-104
-104
-104
-105
-105
-105
-106
-106
-107
-107
-107
-107
-107
-108
-108
-108
-108
-108
-108
-109
-108
-109
-109
-108
-108
-108
-107
-107
-107
-107
-106
-106
-105
-104
-104
-103
-102
-101
-101
-99
-99
-97
-96
-95
-93
-92
-90
-88
-87
-84
-84
-81
-80
-79
-77
-75
-74
-72
-71
-70
-68
-66
-65
-63
-61
-60
-59
-58
-56
-56
-55
-53
-52
-52
-51
-50
-49
-48
-47
-47
-46
-45
-44
-43
-43
-42
-41
-40
-40
-39
-38
-38
-37
-37
-36
-35
-34
-34
-33
-33
-32
-32
-32
-31
-30
-31
-30
-30
-30
-30
-30
-31
-30
-30
-30
-30
-30
-31
-31
-32
-31
-32
-32
-32
-32
-32
-32
-32
-32
-33
-33
-33
-34
-33
-34
-34
-33
-33
-33
-34
-35
-34
-35
-35
-34
-35
-35
-35
-35
-35
-35
-34
-34
-35
-35
-35
-35
-34
-34
-34
-34
-34
-33
-33
-32
-32
-32
-31
-31
-30
-30
-29
-29
-29
-29
-28
-28
-28
-28
-28
-28
-28
-28
-27
-27
-27
-27
-27
-27
-27
-27
-27
-28
-28
-28
-28
-29
-29
-29
-29
-29
-30
-30
-30
-30
-29
-29
-29
-29
-29
-29
-29
-29
-29
-29
-29
-29
-29
-29
-28
-29
-29
-29
-28
-27
-27
-27
-27
-27
-26
-26
-26
-26
-26
-26
-26
-26
-25
-25
-25
-25
-26
-26
-25
-25
-25
-25
-25
-25
-27
-26
-26
-27
-27
-28
-28
-28
-29
-29
-30
-29
-30
-30
-30
-30
-30
-30
-30
-31
-30
-31
-31
-31
-31
-31
-31
-31
-31
-31
-31
-32
-31
-31
-31
-32
-32
-31
-30
-30
-30
-30
-29
-29
-29
-29
-28
-28
-28
-27
-27
-28
-26
-27
-26
-26
-26
-26
-26
-27
-26
-26
-26
-26
-26
-26
-26
-26
-26
-25
-25
-25
-25
-25
-25
-24
-23
-23
-23
-23
-23
-22
-21
-22
-21
-21
-21
-20
-20
-20
-20
-20
-20
-20
-19
-19
-19
-18
-18
-19
-18
-18
-18
-18
-18
-18
-17
-17
-17
-17
-17
-18
-17
-17
-16
-17
-16
-16
-16
-15
-15
-15
-15
-14
-15
-13
-13
-13
-13
-13
-12
-13
-13
-12
-12
-12
-11
-11
-11
-11
-11
-12
-11
-12
-11
-12
-13
-12
-12
-12
-13
-13
-13
-13
-13
-12
-12
-12
-12
-12
-11
-12
-11
-10
-11
-11
-11
-10
-11
-11
-10
-11
-11
-12
-11
-12
-12
-12
-12
-12
-13
-12
-12
-13
-13
-14
-14
-14
-14
-15
-16
-16
-16
-17
-17
-18
-18
-19
-19
-20
-20
-20
-21
-21
-22
-23
-23
-23
-23
-24
-24
-24
-24
-25
-25
-25
-26
-26
-26
-26
-26
-27
-27
-27
-27
-27
-28
-27
-27
-28
-29
-28
-28
-28
-28
-28
-27
-27
-27
-27
-27
-26
-26
-26
-25
-25
-25
-24
-24
-25
-25
-25
-25
-25
-25
-25
-25
-26
-26
-27
-27
-26
-26
-25
-25
-23
-20
-17
-14
-10
-5
1
9
17
26
36
46
58
70
84
98
113
128
144
161
178
194
210
225
240
253
265
274
282
286
289
289
287
281
273
264
250
235
218
199
178
156
132
108
84
60
35
13
-8
-29
-47
-64
-80
-92
-104
-113
-121
-128
-133
-137
-138
-140
-140
-139
-137
-134
-132
-128
-124
-120
-115
-110
-104
-100
-95
-90
-86
-81
-77
-73
-70
-66
-63
-60
-57
-55
-53
-51
-49
-47
-46
-44
-43
-42
-42
-41
-41
-40
-41
-41
-41
-41
-41
-42
-41
-41
-41
-41
-41
-42
-41
-41
-40
-40
-40
-40
-39
-39
-39
-38
-38
-38
-38
-38
-38
-37
-37
-37
-37
-36
-36
-36
-36
-36
-36
-36
-36
-36
-36
-36
-36
-35
-35
-35
-35
-34
-35
-35
-35
-34
-33
-33
-34
-32
-32
-32
-32
-32
-32
-33
-33
-33
-33
-33
-33
-32
-33
-33
-33
-33
-33
-32
-32
-33
-33
-33
-33
-33
-34
-34
-35
-34
-34
-35
-35
-34
-35
-35
-35
-35
-36
-36
-35
-36
-36
-36
-36
-36
-37
-37
-37
-37
-38
-38
-38
-38
-38
-39
-40
-39
-39
-40
-40
-40
-40
-40
-40
-40
-40
-40
-40
-39
-39
-39
-39
-38
-39
-38
-37
-37
-37
-37
-37
-36
-36
-36
-37
-37
-37
-37
-37
-37
-37
-38
-37
-37
-37
-37
-37
-36
-36
-36
-36
-36
-35
-35
-35
-36
-36
-36
-36
-36
-37
-38
-38
-39
-39
-40
-40
-40
-40
-41
-41
-41
-41
-41
-41
-41
-42
-42
-41
-41
-41
-42
-42
-42
-43
-44
-44
-44
-44
-45
-45
-46
-46
-47
-47
-48
-49
-50
-50
-51
-51
-52
-52
-53
-54
-55
-55
-56
-56
-57
-57
-57
-58
-58
-58
-59
-60
-61
-61
-61
-62
-62
-63
-64
-65
-66
-67
-67
-69
-69
-70
-72
-72
-74
-75
-76
-77
-78
-80
-80
-81
-82
-83
-83
-84
-85
-85
-85
-86
-86
-86
-86
-87
-87
-87
-86
-87
-86
-87
-87
-86
-86
-86
-87
-87
-86
-86
-86
-86
-86
-86
-85
-85
-85
-85
-84
-84
-84
-83
-82
-81
-80
-79
-78
-76
-75
-74
-72
-70
-68
-67
-64
-63
-62
-60
-57
-56
-54
-52
-50
-48
-46
-45
-44
-42
-40
-39
-38
-36
-35
-34
-32
-31
-31
-30
-29
-29
-29
-28
-27
-26
-25
-24
-24
-23
-22
-21
-20
-19
-18
-17
-16
-16
-14
-13
-13
-12
-12
-12
-12
-10
-10
-10
-10
-10
-10
-9
-10
-9
-10
-10
-9
-10
-10
-9
-9
-9
-10
-9
-8
-9
-9
-8
-8
-9
-9
-8
-8
-7
-7
-6
-6
-5
-5
-6
-5
-5
-5
-4
-5
-4
-4
-4
-4
-4
-4
-4
-4
-3
-3
-4
-3
-3
-4
-4
-4
-4
-5
-5
-5
-5
-5
-5
-6
-7
-7
-7
-6
-7
-7
-8
-7
-7
-7
-7
-6
-6
-6
-6
-6
-5
-5
-5
-5
-4
-4
-4
-3
-3
-2
-2
-1
-1
-1
-1
0
0
1
1
1
1
1
1
2
1
2
2
2
3
3
3
3
2
2
3
3
3
2
2
3
3
3
3
2
2
1
2
2
2
2
3
2
2
2
2
2
2
1
1
1
1
1
1
1
0
0
1
1
1
2
2
2
3
3
3
3
3
3
3
4
4
4
4
4
3
3
3
4
4
4
5
4
4
4
5
5
4
4
5
5
5
5
5
4
4
4
4
4
4
5
4
4
4
5
5
5
5
4
4
4
4
4
4
4
3
3
3
4
4
3
4
4
4
3
3
3
3
3
3
3
2
2
3
2
2
2
2
2
3
2
2
2
2
2
3
3
3
3
3
3
4
4
4
4
4
5
5
6
6
8
8
9
10
10
10
11
12
13
13
13
14
15
15
15
15
16
16
16
17
17
17
17
17
17
17
17
17
17
16
16
16
17
16
16
15
15
15
16
16
16
17
17
17
17
17
18
17
18
18
18
19
18
19
19
18
19
19
19
18
19
19
18
18
17
18
18
17
17
17
16
17
17
17
17
17
17
17
18
18
19
20
20
20
20
21
21
22
22
22
22
23
23
23
23
22
22
21
22
21
21
19
19
19
18
17
17
15
15
14
13
13
12
11
10
9
9
8
9
8
7
8
7
7
7
6
6
5
5
5
5
5
5
5
4
5
4
4
5
5
5
5
5
6
6
6
6
6
6
6
7
7
7
7
6
6
6
6
6
6
6
7
7
7
7
7
7
6
6
5
5
4
4
3
3
2
1
0
0
-1
0
0
0
1
2
4
6
10
13
18
24
31
38
47
57
66
77
90
103
118
132
148
165
181
199
215
232
249
265
279
292
304
313
320
325
326
326
321
315
306
295
281
265
247
226
204
181
157
132
106
82
58
35
13
-8
-27
-44
-59
-72
-83
-93
-100
-107
-110
-113
-115
-116
-116
-115
-113
-111
-108
-104
-100
-97
-93
-88
-83
-78
-73
-67
-62
-57
-53
-49
-45
-42
-38
-35
-32
-29
-26
-24
-23
-22
-21
-19
-19
-18
-17
-16
-17
-16
-16
-16
-16
-16
-16
-16
-16
-16
-16
-16
-16
-16
-17
-17
-17
-16
-16
-16
-16
-16
-16
-16
-16
-16
-17
-17
-17
-16
-16
-17
-17
-16
-17
-17
-17
-17
-17
-16
-16
-16
-16
-15
-15
-15
-15
-14
-14
-13
-13
-13
-13
-13
-13
-13
-13
-12
-12
-12
-12
-12
-12
-12
-12
-12
-12
-12
-12
-12
-13
-13
-13
-14
-13
-14
-13
-14
-14
-13
-14
-14
-14
-14
-14
-14
-15
-15
-15
-15
-15
-15
-15
-16
-16
-17
-17
-16
-16
-16
-17
-17
-16
-17
-17
-18
-17
-17
-17
-17
-18
-18
-18
-18
-18
-19
-19
-18
-18
-18
-18
-17
-17
-18
-18
-18
-17
-17
-18
-18
-18
-18
-18
-19
-19
-18
-19
-18
-18
-18
-18
-18
-18
-18
-18
-18
-19
-18
-18
-18
-18
-18
-19
-19
-19
-19
-19
-19
-19
-20
-19
-19
-20
-20
-20
-20
-19
-19
-19
-19
-19
-20
-20
-19
-20
-20
-20
-20
-20
-20
-21
-21
-21
-22
-22
-22
-23
-24
-24
-25
-26
-26
-27
-28
-29
-30
-30
-31
-31
-32
-32
-34
-34
-35
-36
-36
-37
-38
-39
-39
-40
-41
-42
-42
-43
-43
-44
-44
-45
-45
-45
-46
-46
-46
-46
-47
-48
-48
-49
-50
-50
-51
-52
-53
-54
-55
-55
-57
-57
-58
-59
-60
-61
-61
-63
-64
-64
-66
-66
-67
-68
-69
-70
-70
-71
-72
-72
-73
-73
-73
-74
-74
-75
-75
-75
-75
-75
-75
-75
-75
-74
-74
-74
-74
-74
-73
-73
-72
-72
-71
-71
-69
-68
-67
-66
-65
-64
-63
-62
-61
-60
-59
-57
-56
-54
-53
-52
-50
-48
-46
-46
-44
-43
-41
-40
-38
-38
-35
-35
-33
-32
-30
-29
-28
-26
-25
-23
-23
-21
-20
-18
-17
-14
-13
-12
-11
-9
-8
-7
-6
-5
-4
-3
-3
-2
-1
0
0
1
1
1
2
2
2
2
3
3
3
2
2
3
3
3
2
2
1
2
1
2
1
2
2
1
2
2
2
2
2
2
3
4
4
4
4
3
4
4
4
5
5
5
5
5
5
5
4
4
3
3
3
3
2
2
1
2
1
0
1
1
1
2
2
1
1
1
1
2
2
2
3
3
3
4
3
2
3
3
4
4
4
4
4
4
4
4
4
4
4
4
4
4
3
3
3
2
3
2
2
2
2
2
2
2
2
2
2
1
1
2
2
2
2
2
2
2
2
2
3
3
4
4
4
3
3
3
3
3
4
4
4
3
4
4
3
4
3
3
4
4
3
3
3
3
3
3
3
3
2
2
2
2
1
1
0
1
0
0
0
1
1
1
1
0
0
1
2
1
1
2
2
2
2
2
2
1
1
1
1
2
1
1
1
0
0
0
0
-2
-2
-2
-2
-3
-3
-3
-3
-3
-3
-3
-3
-3
-2
-2
-2
-2
-2
-2
-2
-2
-3
-3
-3
-3
-3
-2
-3
-3
-4
-4
-4
-3
-3
-4
-4
-4
-4
-4
-4
-5
-5
-5
-5
-5
-6
-6
-6
-6
-6
-6
-7
-6
-6
-6
-6
-6
-6
-5
-5
-5
-5
-5
-5
-5
-5
-4
-4
-3
-4
-2
-2
-2
0
0
0
1
1
3
3
3
4
5
6
6
6
7
6
6
7
7
7
7
7
7
8
7
7
7
7
7
7
7
7
7
7
7
8
7
8
7
8
8
9
9
9
10
10
10
10
11
11
11
12
11
11
12
11
11
11
12
11
11
11
11
11
12
12
11
11
11
11
10
11
11
11
10
11
11
10
10
11
11
11
11
11
11
11
11
11
11
11
11
11
11
10
11
10
10
10
9
9
9
9
8
7
8
7
7
6
6
5
5
5
4
3
3
2
1
0
-1
-1
-2
-2
-3
-4
-4
-4
-4
-6
-6
-7
-7
-8
-8
-9
-9
-9
-10
-9
-9
-9
-8
-8
-8
-8
-8
-7
-7
-6
-6
-6
-6
-6
-5
-5
-6
-6
-6
-6
-6
-7
-6
-6
-6
-6
-6
-6
-7
-7
-7
-7
-7
-8
-8
-8
-9
-9
-9
-10
-10
-11
-11
-11
-12
-13
-14
-13
-13
-13
-12
-11
-10
-7
-4
-1
4
9
15
22
31
39
51
62
74
87
102
116
133
149
166
184
201
218
236
252
267
281
293
304
312
317
320
321
318
313
305
294
282
266
248
228
206
184
159
135
110
84
60
36
13
-7
-27
-44
-61
-76
-88
-98
-107
-115
-120
-123
-125
-126
-127
-126
-124
-122
-120
-116
-113
-107
-104
-100
-94
-90
-84
-80
-74
-70
-66
-62
-58
-54
-51
-47
-46
-43
-41
-39
-37
-34
-33
-31
-31
-29
-29
-28
-28
-28
-27
-27
-27
-27
-27
-26
-26
-27
-26
-27
-27
-27
-27
-27
-27
-27
-28
-28
-28
-28
-27
-27
-27
-27
-27
-27
-27
-27
-28
-28
-27
-27
-26
-27
-27
-26
-26
-26
-26
-26
-27
-27
-27
-27
-27
-27
-27
-27
-27
-27
-27
-28
-27
-27
-27
-27
-27
-25
-25
-25
-25
-25
-24
-24
-24
-23
-22
-23
-22
-21
-21
-21
-21
-20
-20
-20
-20
-19
-19
-20
-20
-20
-20
-20
-21
-22
-22
-23
-23
-23
-23
-23
-23
-23
-24
-24
-25
-24
-24
-25
-24
-25
-24
-24
-25
-25
-25
-25
-25
-25
-26
-25
-25
-25
-25
-26
-26
-26
-27
-27
-28
-28
-28
-28
-29
-30
-30
-30
-31
-31
-32
-32
-32
-31
-31
-31
-32
-31
-31
-31
-31
-30
-30
-30
-29
-30
-30
-29
-30
-30
-30
-30
-29
-30
-29
-29
-30
-30
-30
-30
-30
-30
-30
-30
-30
-30
-30
-30
-31
-30
-30
-30
-29
-29
-29
-29
-29
-29
-29
-29
-29
-30
-30
-29
-29
-30
-30
-30
-31
-31
-31
-31
-31
-31
-31
-32
-32
-32
-32
-32
-33
-33
-33
-34
-35
-35
-36
-37
-37
-38
-39
-40
-40
-41
-42
-43
-44
-45
-46
-47
-48
-49
-50
-51
-51
-52
-53
-54
-56
-56
-57
-58
-58
-59
-60
-60
-61
-62
-63
-64
-65
-65
-65
-66
-66
-68
-68
-68
-69
-69
-69
-69
-70
-70
-70
-72
-72
-73
-73
-73
-74
-75
-75
-76
-77
-77
-77
-78
-78
-79
-79
-79
-79
-79
-79
-78
-78
-77
-76
-76
-75
-75
-73
-72
-71
-70
-69
-68
-66
-65
-65
-63
-61
-60
-58
-57
-55
-53
-52
-50
-48
-47
-45
-43
-41
-40
-38
-37
-36
-34
-33
-31
-29
-27
-27
-25
-24
-22
-21
-20
-19
-19
-17
-16
-15
-14
-13
-13
-11
-11
-10
-9
-8
-6
-5
-4
-3
-3
-2
-2
-2
-1
-1
-1
0
0
0
0
0
0
-1
-1
-1
-1
-1
-1
-2
-2
-1
-1
-1
-1
-2
-2
-2
-2
-2
-2
-2
-2
-1
-2
-1
-1
-1
-1
-1
-1
0
0
0
0
0
1
1
1
3
2
3
2
3
4
4
4
5
5
5
6
6
6
6
6
6
5
5
5
5
5
4
4
4
4
4
4
4
4
4
3
3
4
3
4
4
3
4
4
3
4
4
3
3
4
3
3
3
4
4
4
4
4
4
5
5
4
5
5
5
4
5
5
5
5
6
6
6
6
6
6
6
6
5
5
5
6
5
6
6
6
6
6
6
6
6
7
7
7
7
8
8
8
8
7
7
7
7
7
7
6
6
6
5
5
5
5
5
5
5
4
4
4
4
4
4
4
6
6
6
5
5
6
6
7
6
7
7
7
8
7
7
7
7
7
7
7
7
7
7
6
7
6
6
5
6
6
6
6
6
6
6
6
6
5
5
6
6
6
5
5
6
6
7
6
7
7
8
8
8
8
9
9
9
9
9
8
8
8
7
7
6
6
6
5
5
6
6
5
5
5
5
5
4
5
5
5
5
5
5
5
5
6
6
6
6
7
8
8
7
8
8
8
7
8
8
9
9
9
10
9
9
9
10
10
10
10
10
12
12
12
12
13
13
13
13
13
13
15
15
14
15
15
16
16
17
17
18
18
18
19
19
20
19
20
20
20
20
20
20
20
20
19
20
19
19
20
20
19
18
19
18
18
18
18
18
18
18
18
18
17
18
17
18
18
17
18
18
18
19
18
18
19
18
18
18
19
19
19
19
19
18
18
18
18
17
17
17
15
15
15
14
12
12
11
10
9
8
7
7
5
4
4
4
3
3
2
2
3
3
2
2
2
2
2
2
2
3
3
3
2
3
3
2
2
3
2
3
3
3
2
3
3
3
3
3
3
3
3
3
3
3
3
3
4
5
4
4
4
4
5
5
5
4
4
4
4
4
3
3
2
1
1
0
0
0
0
1
1
2
4
7
10
14
18
23
29
37
45
54
64
75
87
99
114
127
143
159
175
191
208
226
243
258
273
287
299
310
318
325
328
329
327
323
316
306
294
279
262
243
222
199
176
152
127
102
77
53
30
9
-12
-30
-47
-62
-75
-85
-94
-102
-108
-111
-114
-115
-116
-116
-115
-113
-110
-107
-103
-100
-96
-92
-87
-82
-77
-71
-66
-62
-56
-52
-49
-44
-40
-37
-34
-31
-28
-26
-25
-23
-21
-20
-19
-18
-17
-15
-15
-15
-14
-14
-13
-13
-13
-14
-14
-14
-13
-14
-13
-13
-13
-14
-15
-14
-14
-15
-15
-15
-16
-16
-16
-16
-16
-17
-17
-17
-17
-17
-17
-17
-17
-17
-17
-17
-17
-17
-16
-16
-16
-16
-16
-16
-16
-16
-15
-15
-14
-14
-14
-14
-14
-13
-14
-13
-12
-13
-12
-12
-12
-12
-12
-11
-12
-12
-12
-12
-12
-12
-12
-12
-13
-13
-14
-14
-14
-13
-14
-14
-15
-15
-15
-14
-14
-15
-15
-14
-15
-15
-15
-15
-16
-16
-16
-17
-16
-16
-17
-17
-17
-17
-17
-17
-17
-17
-18
-18
-18
-18
-18
-18
-19
-19
-19
-19
-19
-18
-18
-18
-18
-18
-19
-18
-18
-18
-19
-19
-18
-18
-19
-19
-18
-19
-19
-19
-19
-19
-19
-19
-19
-19
-18
-19
-19
-19
-19
-19
-19
-19
-19
-20
-20
-20
-20
-20
-20
-20
-20
-20
-20
-20
-20
-20
-20
-20
-20
-20
-20
-20
-19
-19
-19
-20
-19
-19
-20
-20
-19
-19
-20
-21
-21
-21
-21
-21
-22
-23
-23
-24
-24
-25
-26
-26
-27
-28
-28
-28
-29
-29
-31
-31
-31
-33
-33
-34
-34
-35
-35
-37
-37
-38
-39
-39
-40
-40
-41
-41
-41
-42
-42
-43
-43
-44
-44
-45
-46
-46
-47
-48
-49
-50
-51
-52
-53
-53
-55
-55
-56
-57
-57
-58
-59
-60
-60
-61
-62
-63
-64
-64
-65
-66
-67
-68
-68
-69
-69
-69
-70
-70
-71
-71
-71
-72
-73
-73
-73
-74
-74
-74
-73
-73
-74
-74
-73
-73
-73
-72
-72
-71
-70
-70
-69
-68
-68
-67
-65
-64
-64
-63
-61
-60
-59
-58
-57
-55
-54
-52
-50
-49
-48
-46
-45
-43
-42
-40
-39
-37
-36
-34
-33
-32
-31
-29
-28
-26
-25
-23
-21
-20
-18
-17
-16
-14
-13
-12
-11
-10
-8
-7
-7
-6
-6
-4
-4
-3
-3
-3
-3
-2
-3
-3
-3
-3
-3
-3
-3
-3
-2
-2
-2
-2
-2
-2
-2
-2
-1
-2
-1
-1
0
0
0
1
1
1
1
1
2
2
2
2
1
2
2
1
1
2
2
1
1
1
1
0
0
0
0
0
0
0
0
0
0
0
-1
0
0
0
0
1
1
2
2
2
2
1
1
1
1
1
1
1
1
1
1
1
1
2
2
1
2
2
2
3
3
3
3
2
2
3
3
3
3
3
2
3
3
3
3
3
3
3
3
4
3
4
4
4
4
4
5
4
5
4
4
4
4
4
4
4
4
4
5
4
4
4
4
4
4
4
4
3
3
3
3
3
3
2
3
3
2
2
2
3
3
2
2
3
3
3
3
2
2
2
2
2
3
2
2
3
4
3
4
4
4
3
3
3
3
3
3
3
3
3
3
3
3
3
3
2
2
2
2
1
1
0
0
0
0
0
-1
0
-1
-1
-1
-1
-1
-1
0
0
0
0
0
1
1
2
2
3
3
3
3
3
3
3
3
3
3
4
4
3
3
3
3
4
3
3
2
2
3
2
2
1
2
1
1
1
2
1
2
2
2
1
2
2
2
1
1
1
2
1
1
1
2
1
1
2
2
1
1
1
2
2
2
3
2
3
2
3
3
4
5
5
5
5
6
7
7
9
9
10
10
11
11
12
12
12
13
13
13
13
13
12
13
12
12
12
11
12
12
11
11
11
11
11
11
11
11
11
11
11
12
12
11
12
11
11
12
12
13
13
13
13
14
14
14
14
13
13
13
13
13
13
12
12
11
12
11
12
12
12
12
12
12
12
12
12
12
13
12
12
12
13
12
12
12
13
12
13
13
13
13
13
13
13
12
12
12
11
11
11
10
10
9
8
8
8
7
7
6
6
5
5
4
4
3
2
2
2
1
1
0
0
-1
0
-1
-2
-2
-2
-2
-3
-4
-3
-3
-4
-4
-4
-4
-4
-4
-4
-4
-4
-4
-5
-4
-4
-3
-3
-3
-2
-2
-3
-2
-2
-2
-2
-2
-2
-2
-2
-2
-2
-2
-3
-3
-4
-5
-5
-5
-6
-7
-8
-9
-10
-11
-10
-11
-11
-11
-10
-9
-7
-5
-3
1
6
12
18
25
33
43
53
65
77
90
104
119
134
151
167
184
201
219
235
251
265
279
291
301
309
314
318
318
315
310
302
292
278
262
245
226
205
182
159
134
110
85
62
39
17
-5
-24
-41
-58
-71
-84
-95
-103
-110
-115
-119
-122
-124
-124
-123
-122
-119
-116
-113
-108
-104
-99
-95
-89
-85
-80
-75
-70
-65
-61
-57
-53
-50
-46
-44
-41
-38
-36
-34
-32
-30
-30
-28
-27
-27
-27
-27
-27
-26
-26
-26
-26
-26
-27
-27
-27
-26
-27
-27
-27
-27
-27
-27
-27
-27
-27
-27
-27
-27
-27
-27
-27
-27
-27
-26
-26
-26
-26
-25
-25
-25
-25
-25
-25
-24
-24
-24
-23
-23
-23
-23
-23
-23
-24
-24
-24
-24
-24
-25
-25
-25
-26
-26
-25
-26
-27
-27
-27
-27
-27
-27
-27
-27
-28
-27
-27
-27
-26
-26
-26
-26
-26
-26
-26
-26
-26
-26
-25
-25
-26
-26
-25
-26
-26
-26
-26
-26
-26
-26
-27
-27
-26
-26
-26
-26
-27
-26
-26
-26
-27
-26
-26
-27
-27
-27
-27
-27
-27
-28
-27
-27
-27
-28
-29
-29
-29
-29
-29
-29
-30
-30
-31
-32
-31
-32
-32
-32
-32
-32
-32
-32
-33
-33
-33
-33
-32
-33
-33
-32
-32
-33
-32
-33
-33
-32
-32
-33
-32
-32
-32
-32
-32
-32
-32
-32
-33
-33
-34
-33
-33
-35
-35
-34
-34
-35
-35
-35
-35
-34
-34
-35
-35
-35
-35
-35
-36
-35
-36
-36
-35
-36
-36
-36
-36
-37
-37
-38
-38
-38
-39
-39
-39
-39
-39
-40
-40
-41
-41
-42
-42
-43
-43
-44
-45
-46
-46
-47
-48
-48
-49
-50
-51
-52
-53
-53
-54
-55
-57
-58
-57
-59
-60
-60
-61
-62
-62
-63
-64
-64
-64
-64
-65
-65
-65
-66
-67
-68
-69
-69
-70
-71
-72
-73
-74
-75
-75
-76
-77
-77
-79
-79
-80
-82
-82
-83
-84
-84
-85
-86
-87
-87
-88
-89
-90
-89
-90
-90
-90
-90
-90
-90
-90
-89
-89
-89
-88
-88
-87
-87
-85
-85
-84
-83
-82
-81
-79
-78
-77
-76
-74
-73
-72
-71
-70
-69
-67
-66
-65
-64
-63
-62
-61
-60
-59
-58
-57
-56
-54
-53
-52
-50
-49
-47
-46
-44
-43
-42
-41
-39
-38
-36
-35
-34
-33
-32
-31
-30
-28
-28
-27
-27
-26
-25
-25
-24
-24
-23
-23
-23
-23
-23
-23
-23
-23
-23
-23
-22
-23
-22
-22
-22
-22
-22
-22
-22
-21
-21
-21
-22
-21
-22
-22
-23
-22
-23
-22
-23
-23
-23
-23
-23
-23
-22
-23
-22
-22
-22
-22
-22
-22
-22
-22
-21
-22
-22
-22
-21
-21
-21
-21
-21
-21
-21
-21
-21
-21
-21
-21
-21
-21
-21
-22
-21
-22
-22
-22
-21
-21
-21
-21
-21
-22
-21
-21
-21
-21
-21
-21
-21
-21
-21
-21
-21
-22
-21
-22
-21
-21
-21
-20
-20
-20
-21
-20
-20
-20
-20
-20
-20
-20
-20
-20
-20
-20
-21
-20
-20
-21
-21
-20
-20
-20
-20
-20
-21
-20
-20
-20
-20
-20
-20
-20
-20
-20
-20
-20
-20
-20
-20
-20
-21
-21
-21
-22
-23
-23
-23
-23
-24
-24
-25
-25
-26
-25
-26
-26
-26
-25
-25
-25
-25
-26
-26
-25
-25
-25
-25
-25
-25
-25
-25
-24
-24
-25
-25
-25
-25
-25
-24
-25
-25
-25
-25
-25
-26
-27
-27
-27
-27
-28
-28
-28
-29
-28
-29
-28
-28
-29
-29
-29
-28
-28
-28
-28
-27
-27
-26
-26
-26
-26
-26
-26
-25
-25
-24
-25
-24
-24
-24
-24
-24
-24
-24
-24
-25
-25
-26
-26
-26
-26
-26
-27
-27
-27
-28
-28
-28
-28
-28
-29
-29
-28
-28
-29
-29
-29
-30
-29
-29
-29
-29
-29
-30
-29
-30
-29
-30
-30
-29
-29
-29
-29
-28
-28
-28
-28
-28
-28
-27
-27
-27
-26
-27
-26
-26
-25
-25
-24
-23
-23
-22
-22
-21
-21
-21
-21
-21
-20
-20
-20
-20
-20
-20
-20
-20
-20
-20
-20
-20
-20
-20
-20
-20
-20
-19
-19
-19
-18
-18
-17
-17
-17
-16
-17
-16
-15
-14
-14
-13
-13
-13
-12
-11
-11
-11
-11
-11
-10
-10
-10
-10
-10
-10
-11
-11
-12
-12
-12
-13
-13
-13
-14
-14
-15
-17
-16
-17
-17
-17
-18
-19
-18
-19
-20
-20
-20
-20
-21
-21
-21
-21
-21
-20
-21
-22
-21
-22
-23
-23
-23
-24
-24
-24
-24
-24
-25
-25
-26
-25
-26
-26
-27
-27
-27
-28
-28
-29
-30
-30
-30
-31
-31
-32
-32
-32
-32
-32
-33
-33
-33
-34
-34
-34
-34
-34
-35
-35
-35
-35
-35
-35
-35
-35
-36
-36
-36
-36
-35
-35
-34
-35
-35
-35
-34
-34
-34
-34
-34
-33
-33
-33
-33
-34
-34
-35
-35
-36
-36
-36
-37
-37
-38
-40
-40
-41
-41
-42
-43
-43
-42
-42
-41
-40
-38
-36
-32
-29
-23
-18
-10
-3
6
15
26
36
49
62
75
90
105
121
138
154
171
188
204
220
234
247
258
267
275
280
281
281
278
271
263
252
238
222
203
183
162
139
115
90
67
42
18
-5
-27
-47
-66
-83
-98
-112
-124
-133
-141
-147
-152
-155
-157
-159
-158
-157
-155
-152
-149
-146
-141
-137
-132
-127
-123
-117
-113
-108
-103
-98
-94
-89
-85
-81
-78
-75
-71
-70
-67
-65
-62
-61
-60
-58
-58
-57
-56
-56
-56
-56
-56
-56
-55
-56
-55
-56
-55
-55
-55
-55
-56
-56
-56
-56
-55
-56
-56
-56
-56
-56
-56
-56
-57
-57
-57
-57
-58
-57
-57
-58
-58
-59
-59
-59
-59
-59
-58
-58
-58
-58
-59
-59
-59
-59
-58
-57
-58
-58
-57
-56
-57
-57
-56
-56
-57
-57
-56
-56
-56
-55
-56
-56
-56
-56
-56
-56
-56
-55
-55
-55
-54
-54
-54
-55
-54
-54
-54
-55
-56
-55
-55
-56
-57
-57
-57
-57
-57
-57
-58
-58
-58
-58
-58
-58
-59
-59
-58
-58
-58
-58
-59
-59
-59
-59
-59
-59
-59
-59
-59
-59
-58
-58
-58
-59
-59
-59
-59
-59
-59
-59
-59
-59
-59
-59
-59
-58
-59
-58
-58
-58
-58
-58
-59
-59
-60
-60
-60
-60
-59
-59
-59
-59
-60
-59
-59
-59
-59
-59
-59
-59
-58
-58
-58
-59
-59
-60
-60
-60
-60
-61
-61
-61
-62
-62
-62
-63
-63
-64
-65
-65
-65
-66
-66
-66
-66
-67
-67
-67
-67
-67
-68
-67
-68
-69
-69
-68
-68
-69
-69
-69
-70
-70
-70
-71
-71
-71
-73
-73
-73
-74
-74
-75
-76
-77
-78
-78
-79
-79
-80
-81
-80
-80
-81
-82
-83
-83
-84
-84
-85
-85
-86
-87
-88
-88
-89
-89
-90
-90
-90
-91
-91
-93
-93
-94
-95
-96
-97
-97
-98
-99
-100
-101
-102
-103
-104
-105
-105
-106
-106
-107
-108
-109
-109
-110
-111
-111
-112
-112
-113
-113
-113
-114
-114
-114
-115
-114
-115
-115
-115
-115
-115
-115
-115
-115
-115
-115
-115
-116
-114
-114
-114
-114
-113
-113
-112
-111
-110
-109
-107
-106
-105
-103
-102
-100
-99
-97
-95
-94
-92
-90
-89
-87
-86
-84
-83
-81
-79
-77
-77
-75
-74
-73
-72
-71
-69
-68
-67
-66
-65
-63
-62
-62
-60
-60
-58
-57
-57
-56
-54
-54
-53
-52
-51
-51
-50
-50
-49
-48
-48
-46
-46
-46
-45
-45
-45
-44
-43
-43
-42
-42
-42
-42
-42
-42
-41
-41
-41
-41
-41
-40
-40
-40
-41
-41
-40
-40
-39
-40
-39
-39
-39
-39
-39
-39
-40
-40
-40
-40
-39
-39
-39
-40
-40
-40
-40
-40
-40
-40
-39
-39
-39
-39
-39
-39
-40
-40
-39
-39
-39
-40
-40
-39
-40
-39
-40
-39
-39
-39
-39
-39
-38
-38
-38
-38
-38
-39
-38
-38
-38
-38
-37
-38
-38
-37
-38
-38
-38
-37
-37
-37
-37
-37
-36
-36
-36
-36
-36
-35
-35
-35
-35
-35
-34
-34
-34
-35
-35
-34
-34
-35
-35
-35
-35
-36
-35
-36
-36
-36
-36
-37
-36
-37
-37
-38
-38
-38
-38
-37
-37
-37
-38
-38
-38
-38
-38
-38
-38
-38
-38
-38
-38
-37
-38
-38
-37
-37
-37
-36
-36
-35
-35
-35
-35
-35
-35
-35
-35
-34
-34
-34
-34
-34
-35
-35
-35
-35
-35
-35
-35
-35
-35
-34
-34
-35
-34
-34
-34
-34
-35
-35
-35
-35
-35
-35
-35
-35
-36
-36
-36
-36
-36
-36
-36
-36
-36
-36
-36
-36
-37
-37
-37
-37
-37
-37
-37
-36
-36
-35
-35
-34
-34
-33
-33
-33
-33
-32
-31
-32
-32
-31
-31
-32
-31
-31
-32
-32
-31
-31
-31
-32
-31
-31
-31
-32
-31
-32
-31
-31
-30
-31
-30
-29
-29
-28
-27
-27
-26
-26
-25
-24
-24
-23
-22
-22
-22
-22
-22
-22
-22
-21
-21
-22
-21
-22
-22
-21
-21
-21
-21
-21
-22
-22
-21
-21
-21
-21
-21
-21
-21
-21
-21
-21
-20
-21
-20
-20
-19
-19
-19
-19
-18
-18
-17
-17
-16
-16
-15
-14
-15
-15
-15
-15
-15
-15
-15
-15
-15
-15
-16
-16
-17
-17
-17
-18
-18
-19
-19
-20
-19
-20
-21
-21
-21
-21
-21
-21
-21
-20
-20
-20
-20
-20
-19
-20
-19
-19
-20
-20
-20
-20
-20
-20
-20
-21
-21
-22
-22
-21
-22
-24
-24
-24
-25
-25
-26
-27
-27
-28
-28
-28
-29
-29
-30
-30
-31
-31
-31
-32
-31
-32
-32
-32
-32
-33
-33
-33
-33
-33
-33
-34
-33
-34
-34
-34
-34
-33
-33
-34
-34
-33
-33
-33
-33
-33
-33
-33
-33
-33
-33
-33
-32
-33
-33
-33
-33
-33
-33
-33
-33
-33
-34
-34
-34
-34
-35
-35
-35
-36
-36
-35
-34
-33
-32
-29
-27
-23
-19
-14
-8
0
7
17
26
37
49
62
75
88
103
120
136
153
169
186
203
219
235
249
262
272
280
288
291
292
290
286
278
269
256
241
223
204
183
160
137
112
87
62
37
14
-10
-32
-51
-70
-87
-100
-114
-125
-133
-140
-147
-150
-153
-155
-155
-153
-151
-148
-144
-141
-136
-131
-127
-121
-117
-111
-106
-101
-96
-91
-87
-83
-79
-75
-72
-68
-65
-63
-60
-59
-58
-56
-55
-53
-52
-52
-50
-50
-50
-50
-50
-50
-50
-51
-50
-50
-50
-50
-50
-50
-50
-50
-51
-50
-51
-51
-49
-50
-49
-49
-49
-48
-49
-48
-48
-48
-47
-47
-47
-46
-46
-46
-46
-46
-46
-45
-46
-46
-46
-45
-46
-46
-46
-46
-46
-46
-46
-46
-46
-46
-46
-46
-46
-47
-47
-46
-47
-47
-47
-47
-47
-47
-47
-47
-47
-47
-46
-46
-47
-47
-47
-47
-46
-46
-47
-46
-46
-46
-45
-45
-46
-45
-46
-45
-45
-45
-44
-44
-44
-44
-44
-44
-44
-44
-45
-45
-45
-45
-45
-46
-47
-47
-48
-49
-49
-49
-49
-49
-49
-49
-49
-49
-49
-49
-49
-49
-49
-49
-48
-49
-48
-48
-48
-49
-49
-49
-48
-48
-49
-49
-50
-50
-50
-51
-51
-51
-51
-51
-51
-52
-52
-52
-53
-53
-52
-52
-52
-51
-51
-51
-51
-50
-50
-49
-50
-49
-49
-49
-49
-49
-49
-50
-50
-50
-51
-51
-51
-52
-52
-52
-52
-52
-53
-53
-53
-54
-54
-54
-54
-53
-54
-55
-55
-55
-55
-56
-56
-56
-56
-57
-57
-57
-58
-58
-59
-59
-60
-60
-61
-61
-61
-62
-63
-63
-63
-64
-64
-64
-64
-64
-65
-66
-67
-67
-68
-69
-69
-70
-71
-72
-72
-73
-74
-75
-76
-77
-77
-78
-79
-79
-80
-81
-82
-83
-84
-85
-86
-86
-88
-89
-89
-90
-90
-92
-93
-93
-93
-94
-95
-95
-96
-97
-97
-97
-99
-99
-99
-100
-100
-100
-101
-101
-102
-102
-102
-102
-102
-103
-102
-102
-102
-102
-101
-101
-102
-102
-101
-101
-100
-100
-100
-99
-99
-98
-97
-97
-95
-94
-93
-91
-90
-88
-87
-87
-85
-84
-82
-81
-79
-78
-77
-75
-73
-72
-72
-70
-68
-67
-66
-65
-64
-62
-61
-60
-59
-58
-57
-56
-54
-53
-52
-51
-50
-49
-47
-46
-44
-43
-42
-42
-41
-40
-39
-39
-38
-37
-36
-36
-36
-35
-35
-35
-34
-34
-34
-33
-33
-32
-32
-32
-32
-32
-32
-32
-31
-31
-31
-31
-31
-31
-31
-31
-30
-30
-30
-29
-29
-28
-29
-28
-28
-27
-28
-28
-28
-27
-27
-27
-27
-27
-27
-27
-27
-27
-27
-26
-26
-27
-27
-26
-27
-27
-27
-27
-27
-27
-27
-27
-27
-27
-28
-27
-28
-28
-28
-28
-27
-28
-28
-28
-28
-28
-28
-28
-28
-28
-29
-28
-28
-28
-28
-28
-28
-28
-28
-27
-27
-27
-27
-26
-26
-26
-25
-25
-25
-25
-24
-24
-24
-25
-24
-24
-24
-24
-23
-24
-24
-24
-24
-24
-24
-24
-24
-24
-23
-23
-24
-24
-23
-23
-23
-23
-23
-23
-23
-22
-22
-22
-22
-22
-22
-22
-22
-22
-22
-22
-22
-23
-23
-24
-23
-24
-24
-24
-25
-25
-24
-24
-25
-24
-24
-24
-25
-24
-24
-24
-23
-24
-24
-24
-24
-24
-23
-23
-24
-23
-23
-23
-23
-23
-23
-23
-22
-22
-23
-23
-23
-23
-24
-24
-24
-24
-24
-25
-25
-25
-25
-25
-26
-25
-25
-25
-26
-25
-26
-25
-25
-25
-25
-25
-25
-25
-25
-25
-24
-24
-23
-24
-23
-23
-23
-23
-23
-23
-24
-24
-23
-23
-23
-24
-25
-24
-25
-25
-25
-25
-25
-25
-26
-26
-25
-25
-25
-25
-25
-24
-24
-24
-24
-23
-24
-23
-23
-23
-21
-21
-20
-20
-19
-18
-18
-18
-17
-16
-16
-16
-16
-15
-15
-14
-15
-15
-15
-15
-15
-15
-15
-15
-15
-15
-16
-15
-16
-16
-16
-16
-15
-15
-15
-15
-15
-14
-15
-14
-14
-14
-13
-12
-12
-12
-12
-12
-12
-12
-12
-12
-12
-12
-12
-12
-13
-12
-13
-12
-12
-13
-13
-12
-13
-12
-12
-13
-12
-12
-12
-13
-11
-11
-12
-11
-11
-11
-11
-12
-10
-11
-10
-10
-10
-10
-10
-9
-9
-9
-9
-9
-9
-9
-9
-9
-10
-9
-10
-10
-10
-11
-11
-12
-11
-11
-11
-13
-13
-14
-14
-15
-15
-16
-17
-18
-18
-19
-21
-21
-21
-22
-23
-23
-24
-25
-26
-26
-26
-26
-27
-27
-27
-27
-27
-28
-28
-28
-29
-29
-28
-28
-28
-28
-28
-28
-28
-28
-28
-28
-29
-28
-28
-28
-28
-28
-28
-28
-28
-28
-27
-28
-28
-28
-27
-27
-27
-27
-27
-27
-28
-28
-28
-28
-30
-30
-30
-31
-32
-33
-33
-34
-35
-34
-33
-32
-30
-27
-25
-22
-17
-12
-5
2
11
19
29
40
53
65
79
94
109
125
143
159
176
193
210
225
240
253
265
275
283
289
292
292
289
285
278
267
254
240
222
203
183
160
137
112
88
63
39
16
-7
-28
-48
-67
-82
-95
-108
-118
-126
-133
-139
-142
-144
-145
-145
-145
-143
-141
-137
-133
-129
-125
-120
-114
-110
-106
-100
-94
-90
-85
-79
-76
-71
-68
-65
-62
-58
-56
-54
-52
-51
-49
-49
-48
-48
-48
-47
-48
-48
-48
-48
-48
-49
-50
-50
-50
-50
-50
-50
-50
-50
-51
-51
-51
-50
-50
-50
-50
-50
-49
-49
-49
-49
-49
-48
-47
-48
-47
-47
-47
-47
-47
-46
-47
-46
-46
-46
-45
-46
-46
-46
-46
-45
-46
-46
-46
-46
-45
-46
-46
-46
-45
-46
-45
-46
-46
-46
-45
-45
-45
-45
-45
-44
-44
-44
-45
-45
-45
-44
-44
-44
-44
-44
-45
-45
-45
-45
-45
-44
-44
-44
-44
-44
-45
-45
-46
-45
-45
-45
-45
-45
-45
-45
-45
-46
-45
-45
-45
-45
-45
-45
-45
-45
-45
-45
-46
-45
-46
-46
-46
-46
-46
-48
-47
-48
-48
-49
-49
-49
-50
-50
-50
-50
-50
-51
-51
-52
-52
-52
-52
-53
-52
-52
-53
-52
-52
-52
-52
-52
-51
-51
-51
-50
-50
-50
-50
-49
-49
-49
-48
-48
-48
-49
-49
-49
-49
-49
-49
-49
-49
-49
-49
-50
-50
-50
-50
-51
-50
-51
-51
-51
-52
-51
-52
-52
-53
-53
-53
-53
-53
-53
-53
-53
-54
-54
-54
-55
-55
-56
-56
-56
-56
-57
-58
-57
-58
-59
-59
-59
-60
-60
-61
-61
-62
-62
-63
-64
-64
-65
-65
-66
-67
-67
-68
-69
-70
-71
-71
-72
-73
-73
-74
-74
-76
-76
-77
-78
-79
-79
-79
-80
-81
-81
-82
-83
-84
-85
-85
-86
-86
-86
-88
-88
-88
-89
-89
-90
-92
-92
-92
-93
-94
-95
-96
-97
-98
-98
-99
-99
-101
-101
-101
-102
-103
-103
-104
-104
-103
-103
-104
-105
-105
-104
-104
-104
-104
-103
-101
-100
-99
-98
-97
-96
-94
-93
-92
-90
-89
-87
-86
-84
-83
-81
-80
-79
-78
-76
-74
-74
-72
-71
-69
-68
-67
-66
-65
-64
-63
-61
-60
-59
-58
-57
-57
-56
-54
-53
-53
-52
-51
-49
-48
-48
-46
-45
-44
-44
-43
-42
-42
-41
-41
-41
-40
-40
-39
-38
-38
-37
-37
-36
-36
-36
-35
-35
-35
-35
-35
-34
-34
-34
-34
-34
-34
-33
-34
-34
-33
-33
-33
-33
-33
-34
-33
-33
-33
-33
-33
-32
-32
-32
-31
-32
-32
-32
-32
-32
-32
-31
-30
-30
-30
-31
-30
-30
-30
-31
-31
-31
-31
-31
-31
-31
-32
-31
-31
-30
-30
-29
-30
-30
-30
-29
-29
-29
-30
-30
-30
-30
-30
-30
-30
-30
-31
-31
-32
-32
-32
-32
-32
-32
-32
-32
-32
-32
-32
-32
-32
-31
-31
-31
-31
-31
-30
-30
-30
-30
-29
-29
-28
-28
-28
-28
-27
-27
-26
-27
-27
-27
-27
-26
-26
-27
-26
-27
-27
-27
-27
-27
-27
-27
-27
-27
-27
-27
-28
-27
-27
-27
-27
-27
-26
-26
-26
-26
-26
-26
-25
-25
-24
-24
-24
-24
-25
-25
-25
-25
-25
-25
-26
-26
-26
-26
-27
-27
-28
-27
-27
-27
-27
-27
-27
-27
-27
-27
-28
-28
-27
-28
-28
-28
-28
-28
-28
-28
-28
-29
-29
-29
-28
-28
-29
-29
-30
-29
-29
-30
-30
-30
-30
-31
-31
-31
-31
-31
-31
-31
-31
-31
-30
-30
-30
-30
-29
-29
-30
-29
-29
-29
-28
-28
-27
-27
-28
-27
-27
-27
-27
-26
-26
-25
-26
-26
-25
-25
-25
-24
-24
-24
-23
-24
-23
-22
-23
-22
-22
-22
-21
-20
-20
-20
-19
-19
-18
-19
-18
-18
-18
-18
-18
-17
-17
-17
-17
-18
-18
-17
-17
-18
-18
-18
-18
-18
-17
-17
-17
-17
-18
-17
-17
-17
-17
-17
-17
-16
-15
-15
-15
-15
-15
-15
-15
-14
-14
-14
-13
-14
-13
-13
-13
-13
-13
-14
-14
-14
-13
-14
-14
-14
-15
-14
-15
-15
-15
-14
-15
-15
-15
-15
-15
-14
-15
-14
-14
-14
-14
-14
-14
-14
-12
-13
-13
-12
-13
-12
-13
-12
-13
-14
-14
-14
-15
-16
-16
-16
-17
-18
-18
-18
-18
-19
-19
-20
-21
-21
-21
-21
-21
-21
-22
-22
-23
-23
-23
-24
-24
-24
-23
-24
-24
-25
-25
-25
-25
-25
-26
-26
-26
-26
-26
-26
-26
-28
-28
-27
-27
-28
-28
-27
-28
-28
-28
-28
-28
-29
-29
-29
-29
-29
-29
-29
-29
-30
-29
-30
-30
-30
-30
-31
-31
-31
-31
-32
-32
-32
-34
-34
-33
-33
-33
-33
-33
-32
-30
-29
-27
-23
-20
-15
-11
-4
4
12
22
31
43
55
69
82
97
112
129
146
162
180
196
213
228
243
257
269
279
287
293
297
296
294
288
281
270
256
241
224
204
183
161
136
112
88
64
40
16
-6
-27
-46
-64
-79
-93
-105
-115
-123
-130
-135
-140
-142
-143
-143
-142
-140
-138
-135
-130
-127
-122
-117
-112
-108
-102
-97
-92
-87
-82
-78
-74
-70
-66
-63
-60
-57
-55
-52
-50
-48
-48
-46
-46
-45
-45
-45
-44
-44
-44
-44
-43
-44
-44
-43
-43
-43
-43
-43
-42
-42
-42
-42
-42
-41
-40
-41
-41
-40
-40
-40
-40
-40
-40
-40
-40
-40
-40
-40
-40
-41
-41
-41
-41
-41
-41
-41
-42
-42
-42
-43
-43
-43
-43
-43
-43
-43
-42
-42
-42
-42
-42
-42
-42
-41
-41
-41
-41
-41
-41
-41
-40
-41
-41
-41
-40
-40
-41
-41
-40
-41
-41
-40
-41
-41
-41
-41
-41
-41
-42
-42
-42
-43
-43
-43
-43
-43
-42
-42
-42
-42
-42
-42
-42
-43
-43
-42
-43
-43
-42
-43
-43
-44
-44
-43
-43
-42
-42
-42
-43
-42
-41
-41
-41
-41
-40
-40
-40
-40
-40
-40
-40
-40
-40
-40
-40
-40
-40
-41
-41
-41
-41
-42
-42
-43
-43
-44
-44
-45
-45
-45
-46
-45
-46
-46
-45
-46
-46
-47
-46
-46
-46
-46
-46
-47
-47
-47
-47
-47
-47
-48
-47
-48
-48
-48
-48
-49
-49
-48
-48
-48
-49
-48
-48
-48
-48
-48
-47
-47
-46
-47
-46
-47
-47
-47
-47
-47
-47
-47
-48
-49
-49
-50
-50
-51
-52
-52
-53
-54
-54
-55
-56
-57
-58
-59
-59
-59
-60
-61
-61
-61
-61
-62
-63
-63
-63
-64
-64
-64
-64
-65
-66
-66
-66
-66
-67
-68
-68
-68
-69
-70
-70
-70
-71
-72
-73
-74
-75
-76
-76
-78
-79
-80
-81
-82
-83
-84
-84
-86
-86
-87
-89
-89
-90
-91
-91
-92
-93
-93
-94
-94
-94
-95
-95
-95
-95
-95
-95
-95
-95
-95
-95
-95
-94
-94
-94
-93
-93
-93
-92
-91
-90
-90
-90
-88
-88
-87
-85
-83
-82
-81
-80
-78
-77
-75
-74
-72
-70
-69
-68
-66
-64
-63
-61
-60
-58
-57
-55
-53
-52
-50
-49
-48
-47
-46
-44
-42
-42
-40
-39
-39
-37
-37
-36
-36
-34
-33
-33
-32
-31
-31
-30
-30
-29
-29
-28
-28
-28
-27
-28
-28
-28
-28
-27
-27
-27
-27
-27
-26
-26
-26
-26
-27
-26
-26
-26
-25
-25
-24
-24
-25
-24
-24
-23
-23
-24
-23
-23
-23
-22
-22
-22
-22
-23
-23
-23
-23
-23
-23
-23
-24
-24
-24
-24
-24
-25
-24
-24
-25
-25
-24
-25
-25
-25
-25
-25
-25
-25
-25
-25
-25
-25
-26
-25
-24
-25
-24
-24
-23
-24
-23
-24
-23
-23
-23
-23
-23
-23
-23
-23
-23
-22
-23
-22
-22
-21
-21
-21
-20
-20
-20
-20
-19
-19
-18
-18
-18
-18
-18
-18
-18
-18
-18
-19
-18
-18
-18
-18
-18
-18
-18
-18
-18
-18
-18
-18
-17
-18
-18
-17
-17
-16
-16
-17
-16
-15
-16
-15
-15
-15
-15
-15
-15
-15
-16
-16
-15
-15
-16
-16
-16
-16
-16
-17
-16
-16
-16
-16
-16
-16
-16
-16
-17
-17
-17
-17
-17
-17
-17
-18
-18
-19
-19
-19
-19
-19
-19
-20
-19
-19
-19
-19
-20
-20
-19
-19
-18
-19
-19
-18
-18
-19
-18
-18
-17
-18
-18
-18
-17
-17
-16
-16
-16
-17
-17
-17
-17
-17
-17
-17
-17
-18
-17
-17
-17
-17
-17
-17
-16
-16
-16
-16
-16
-15
-15
-16
-15
-15
-15
-15
-15
-15
-15
-15
-15
-15
-14
-14
-13
-13
-13
-13
-13
-12
-12
-11
-11
-10
-10
-9
-9
-8
-8
-8
-8
-7
-7
-6
-6
-6
-6
-6
-5
-6
-6
-6
-6
-6
-7
-6
-7
-6
-7
-7
-7
-7
-6
-6
-5
-6
-6
-6
-6
-5
-6
-6
-6
-6
-6
-7
-6
-7
-8
-8
-8
-8
-7
-7
-8
-8
-8
-8
-7
-8
-8
-8
-7
-7
-7
-6
-6
-6
-6
-5
-5
-5
-5
-5
-5
-5
-6
-5
-6
-7
-7
-7
-8
-9
-9
-11
-11
-12
-13
-14
-14
-15
-16
-17
-17
-18
-19
-19
-20
-20
-20
-21
-21
-21
-21
-22
-22
-22
-21
-22
-21
-21
-21
-20
-21
-20
-20
-20
-20
-20
-20
-21
-21
-20
-21
-22
-21
-22
-22
-22
-22
-23
-22
-22
-22
-22
-22
-21
-21
-21
-21
-21
-21
-21
-21
-21
-22
-23
-23
-24
-24
-24
-26
-26
-27
-27
-27
-27
-26
-26
-25
-23
-20
-17
-15
-9
-4
2
8
17
26
36
47
59
72
85
99
114
129
145
162
179
195
212
227
241
255
267
277
285
291
294
295
293
288
282
272
259
244
227
209
189
166
143
119
95
70
46
22
0
-20
-39
-57
-73
-86
-98
-108
-116
-123
-129
-132
-135
-135
-135
-134
-132
-130
-127
-124
-119
-115
-110
-105
-101
-95
-91
-85
-81
-76
-73
-69
-66
-62
-59
-56
-54
-52
-50
-48
-46
-45
-43
-42
-41
-41
-41
-40
-39
-39
-39
-39
-39
-39
-38
-38
-38
-37
-36
-37
-37
-36
-36
-35
-35
-34
-34
-34
-34
-34
-34
-35
-34
-34
-34
-34
-34
-35
-35
-35
-36
-36
-36
-36
-36
-35
-36
-36
-36
-36
-36
-37
-37
-37
-37
-37
-37
-36
-37
-36
-36
-36
-36
-36
-35
-35
-35
-35
-35
-35
-35
-36
-36
-35
-35
-35
-35
-35
-36
-36
-36
-36
-35
-36
-35
-35
-35
-35
-35
-34
-35
-35
-35
-35
-35
-35
-35
-35
-35
-35
-35
-35
-35
-35
-35
-35
-35
-35
-35
-35
-36
-36
-36
-36
-36
-36
-36
-36
-36
-37
-37
-36
-37
-36
-36
-36
-36
-36
-36
-37
-37
-37
-38
-38
-38
-38
-38
-39
-38
-39
-39
-40
-39
-39
-39
-40
-40
-40
-40
-40
-39
-39
-39
-39
-39
-39
-39
-38
-39
-38
-38
-38
-38
-38
-38
-38
-38
-38
-38
-38
-38
-38
-38
-38
-39
-40
-39
-39
-40
-41
-41
-41
-41
-41
-42
-41
-42
-42
-42
-42
-42
-43
-42
-43
-43
-44
-44
-45
-45
-45
-45
-46
-46
-47
-47
-47
-47
-48
-48
-49
-49
-50
-50
-51
-51
-51
-52
-52
-53
-53
-54
-55
-55
-55
-57
-57
-57
-58
-59
-60
-61
-62
-62
-63
-64
-64
-65
-66
-66
-66
-68
-68
-69
-69
-69
-70
-70
-71
-71
-72
-73
-73
-74
-74
-74
-75
-75
-76
-77
-77
-77
-79
-79
-79
-79
-80
-80
-81
-82
-82
-83
-84
-84
-84
-84
-84
-84
-85
-85
-85
-85
-85
-85
-84
-84
-83
-83
-81
-81
-80
-79
-78
-78
-76
-75
-74
-73
-71
-70
-69
-67
-66
-64
-64
-62
-60
-59
-57
-56
-53
-52
-51
-49
-48
-46
-45
-43
-42
-42
-40
-39
-37
-37
-35
-34
-33
-32
-31
-31
-30
-29
-28
-27
-26
-25
-24
-23
-22
-21
-21
-20
-19
-18
-17
-17
-17
-15
-16
-16
-14
-14
-15
-15
-14
-14
-13
-13
-13
-13
-13
-12
-12
-12
-12
-11
-11
-11
-11
-12
-11
-11
-12
-11
-11
-12
-12
-11
-13
-12
-13
-13
-13
-13
-13
-13
-13
-13
-13
-13
-13
-13
-12
-12
-12
-12
-12
-11
-12
-12
-11
-12
-12
-11
-11
-11
-10
-10
-11
-10
-10
-10
-10
-10
-10
-10
-10
-10
-9
-10
-10
-10
-10
-11
-10
-9
-10
-10
-10
-9
-9
-9
-9
-9
-9
-9
-9
-9
-8
-8
-9
-9
-7
-6
-7
-6
-6
-6
-6
-5
-5
-6
-6
-5
-5
-5
-5
-5
-6
-6
-7
-7
-7
-8
-8
-7
-8
-8
-8
-8
-8
-9
-9
-8
-8
-8
-8
-7
-7
-7
-7
-6
-5
-6
-4
-4
-4
-4
-4
-4
-4
-4
-4
-4
-4
-4
-4
-4
-5
-4
-5
-4
-4
-4
-4
-5
-4
-5
-5
-5
-5
-5
-5
-5
-6
-5
-6
-6
-7
-6
-7
-6
-7
-7
-6
-6
-6
-6
-6
-6
-6
-5
-6
-6
-6
-6
-5
-5
-5
-6
-5
-5
-5
-6
-6
-7
-7
-7
-7
-7
-7
-7
-7
-7
-7
-7
-6
-6
-6
-6
-6
-5
-5
-4
-3
-3
-3
-3
-2
-2
-1
-1
0
0
0
1
1
2
2
2
2
2
3
4
4
4
4
5
5
6
6
6
6
6
6
6
6
6
6
5
5
5
5
5
6
6
6
6
6
6
6
5
6
6
7
7
7
7
7
7
7
8
7
8
8
8
8
9
8
8
8
7
7
7
8
8
7
7
7
7
7
6
7
7
7
7
7
7
8
8
7
8
8
8
8
8
8
9
9
9
8
8
9
8
8
8
8
8
7
6
6
5
5
4
4
2
2
2
0
-1
-1
-2
-2
-3
-3
-4
-4
-5
-6
-6
-6
-7
-7
-7
-8
-8
-8
-8
-9
-9
-9
-9
-8
-9
-8
-8
-7
-7
-8
-7
-7
-7
-7
-7
-6
-5
-5
-5
-5
-5
-5
-5
-5
-4
-4
-5
-5
-5
-5
-5
-5
-6
-6
-7
-8
-8
-10
-10
-11
-12
-13
-13
-13
-12
-12
-11
-9
-6
-3
0
4
9
15
22
29
39
48
58
69
82
95
109
124
140
155
173
189
206
221
238
252
266
277
288
295
301
304
304
302
296
289
279
266
251
234
216
196
173
151
127
103
79
55
33
11
-8
-27
-44
-59
-72
-84
-93
-101
-107
-112
-115
-117
-119
-119
-118
-116
-114
-112
-109
-105
-102
-98
-93
-89
-84
-80
-74
-71
-65
-62
-57
-54
-50
-47
-45
-42
-40
-37
-35
-34
-32
-31
-30
-29
-29
-28
-27
-27
-26
-26
-26
-25
-25
-24
-24
-24
-25
-25
-24
-24
-25
-24
-24
-24
-24
-25
-25
-24
-24
-24
-24
-24
-24
-25
-25
-25
-24
-24
-24
-25
-24
-25
-26
-25
-26
-26
-26
-26
-25
-25
-25
-25
-25
-25
-25
-24
-24
-24
-24
-24
-23
-23
-23
-22
-23
-22
-22
-21
-21
-22
-21
-21
-21
-21
-20
-20
-20
-20
-21
-21
-21
-21
-21
-21
-22
-22
-22
-22
-23
-22
-23
-23
-23
-22
-22
-22
-22
-22
-21
-22
-22
-21
-21
-22
-21
-21
-21
-21
-20
-20
-20
-20
-20
-21
-21
-21
-21
-21
-21
-21
-21
-22
-22
-22
-23
-23
-23
-24
-23
-23
-23
-23
-24
-24
-24
-24
-25
-25
-25
-25
-25
-25
-26
-26
-27
-26
-28
-27
-27
-27
-27
-27
-27
-27
-27
-27
-26
-27
-27
-27
-27
-27
-27
-26
-27
-28
-28
-28
-27
-27
-28
-28
-29
-29
-29
-30
-30
-30
-31
-32
-32
-32
-32
-32
-33
-34
-33
-33
-33
-34
-33
-33
-33
-33
-33
-33
-33
-33
-33
-33
-34
-33
-34
-35
-34
-35
-35
-36
-36
-37
-37
-38
-38
-39
-39
-40
-41
-41
-41
-42
-43
-43
-44
-45
-46
-47
-47
-48
-49
-49
-50
-50
-51
-53
-54
-54
-55
-57
-58
-58
-60
-60
-61
-62
-63
-64
-65
-65
-66
-66
-67
-68
-68
-68
-69
-69
-70
-70
-71
-71
-71
-72
-71
-72
-73
-73
-73
-74
-74
-74
-74
-74
-74
-74
-75
-75
-75
-75
-75
-76
-75
-75
-74
-74
-74
-73
-74
-73
-72
-70
-69
-68
-68
-66
-65
-64
-62
-61
-59
-58
-57
-55
-55
-53
-52
-51
-49
-47
-46
-44
-42
-41
-40
-39
-37
-36
-34
-33
-32
-31
-29
-28
-27
-26
-25
-24
-22
-22
-20
-19
-18
-17
-16
-14
-14
-12
-12
-11
-10
-10
-10
-9
-9
-8
-9
-8
-8
-8
-7
-7
-7
-7
-6
-7
-7
-6
-6
-6
-6
-7
-7
-6
-6
-6
-7
-6
-6
-6
-6
-5
-5
-5
-4
-4
-4
-4
-4
-3
-3
-3
-3
-3
-3
-3
-4
-3
-3
-4
-3
-3
-3
-3
-3
-4
-4
-3
-3
-3
-3
-3
-3
-3
-2
-2
-1
-2
0
-1
0
0
0
0
0
1
0
0
-1
-1
-2
-2
-2
-3
-3
-3
-4
-5
-5
-4
-4
-4
-3
-4
-4
-4
-4
-4
-3
-3
-3
-2
-2
-2
-3
-2
-3
-3
-3
-3
-3
-2
-3
-3
-3
-3
-3
-3
-3
-3
-3
-3
-3
-3
-3
-3
-3
-3
-3
-2
-2
-3
-1
-2
-2
-2
-1
-1
-2
-2
-2
-3
-3
-3
-2
-2
-3
-3
-3
-3
-3
-3
-3
-3
-3
-3
-3
-3
-3
-3
-3
-3
-4
-4
-4
-4
-4
-4
-4
-3
-3
-3
-2
-2
-2
-2
-1
-1
-1
0
0
0
0
0
0
-1
-1
-1
-1
-1
-1
-2
-2
-3
-3
-4
-4
-4
-4
-4
-5
-5
-6
-6
-7
-6
-7
-7
-7
-7
-7
-7
-6
-7
-7
-7
-6
-6
-6
-6
-5
-5
-5
-4
-3
-4
-3
-2
-3
-1
0
0
0
1
2
2
3
2
3
3
4
4
5
5
5
4
5
4
5
5
6
6
6
7
7
7
6
6
6
7
6
7
7
7
7
7
7
7
7
7
7
7
7
7
7
8
8
7
8
7
7
8
8
8
7
7
6
7
7
7
7
7
7
6
6
6
6
6
6
6
5
6
7
7
6
6
7
6
7
7
7
8
8
8
9
8
9
9
9
9
9
9
8
8
8
7
6
5
5
5
4
4
3
2
1
1
0
-1
-1
-2
-3
-3
-4
-5
-6
-6
-7
-8
-8
-7
-8
-8
-8
-9
-9
-9
-9
-9
-9
-10
-10
-9
-10
-10
-9
-10
-10
-11
-11
-10
-11
-10
-10
-10
-10
-10
-10
-10
-10
-10
-10
-10
-10
-10
-10
-10
-11
-11
-11
-11
-11
-11
-10
-12
-12
-12
-12
-12
-12
-13
-13
-14
-14
-14
-15
-15
-16
-16
-15
-14
-15
-13
-11
-9
-7
-3
0
4
10
15
23
31
40
50
60
72
85
97
112
127
143
159
175
192
208
223
239
253
265
276
285
292
296
298
297
293
287
278
267
254
239
220
201
180
158
135
111
87
63
40
18
-3
-23
-40
-57
-72
-84
-96
-105
-112
-118
-123
-125
-127
-127
-127
-126
-124
-122
-119
-117
-112
-108
-104
-99
-94
-89
-85
-79
-75
-70
-66
-62
-57
-54
-51
-48
-45
-43
-41
-39
-37
-36
-34
-33
-33
-33
-32
-32
-31
-31
-30
-31
-31
-31
-31
-31
-31
-31
-31
-30
-31
-31
-29
-29
-29
-29
-29
-29
-28
-27
-27
-26
-26
-26
-26
-25
-25
-25
-25
-25
-26
-26
-26
-26
-27
-26
-27
-27
-28
-27
-27
-27
-27
-28
-28
-29
-29
-29
-29
-29
-29
-30
-29
-29
-30
-31
-30
-30
-30
-29
-29
-29
-29
-29
-29
-28
-28
-28
-28
-28
-28
-28
-28
-28
-28
-27
-28
-27
-28
-27
-27
-28
-28
-28
-28
-28
-28
-28
-28
-28
-28
-28
-28
-28
-28
-28
-29
-29
-29
-29
-29
-29
-30
-30
-29
-29
-30
-31
-31
-31
-31
-31
-31
-31
-31
-32
-32
-32
-31
-30
-31
-30
-30
-30
-30
-30
-30
-30
-29
-29
-29
-29
-29
-29
-29
-29
-30
-30
-30
-31
-31
-31
-32
-32
-32
-32
-32
-33
-33
-33
-34
-34
-34
-33
-34
-34
-34
-34
-33
-33
-33
-33
-33
-34
-34
-34
-34
-35
-35
-36
-36
-36
-37
-37
-38
-39
-39
-40
-39
-40
-40
-40
-40
-42
-42
-42
-42
-43
-43
-44
-44
-44
-43
-44
-44
-45
-45
-45
-45
-46
-46
-46
-46
-47
-47
-48
-48
-49
-50
-50
-51
-51
-52
-53
-54
-55
-55
-56
-56
-57
-57
-59
-59
-59
-60
-61
-62
-62
-63
-63
-64
-65
-66
-67
-67
-68
-69
-70
-71
-71
-72
-72
-73
-75
-75
-76
-77
-78
-78
-79
-79
-80
-80
-80
-81
-82
-82
-82
-82
-82
-83
-83
-83
-83
-83
-82
-82
-83
-83
-82
-82
-82
-82
-82
-81
-81
-81
-80
-80
-79
-78
-77
-77
-76
-76
-74
-73
-71
-70
-70
-68
-66
-65
-64
-62
-61
-60
-59
-57
-55
-54
-52
-51
-49
-48
-46
-45
-43
-42
-41
-39
-38
-36
-35
-34
-34
-32
-30
-29
-28
-27
-25
-24
-22
-21
-21
-20
-20
-18
-18
-18
-17
-17
-16
-15
-15
-16
-15
-14
-15
-15
-14
-14
-14
-14
-15
-15
-14
-14
-14
-14
-14
-13
-13
-14
-13
-14
-13
-13
-12
-12
-12
-12
-12
-12
-12
-12
-12
-12
-12
-12
-12
-13
-13
-12
-13
-14
-14
-13
-13
-13
-13
-13
-13
-13
-13
-14
-13
-14
-14
-14
-14
-14
-14
-14
-15
-15
-14
-14
-14
-14
-14
-13
-12
-12
-12
-12
-12
-11
-11
-11
-11
-11
-11
-10
-10
-10
-10
-10
-9
-9
-9
-9
-9
-9
-8
-8
-9
-9
-9
-9
-9
-9
-9
-9
-9
-9
-9
-9
-9
-9
-8
-8
-9
-9
-9
-9
-9
-9
-8
-8
-9
-9
-9
-10
-10
-10
-10
-10
-10
-11
-11
-11
-11
-11
-11
-11
-12
-12
-12
-12
-13
-13
-13
-13
-13
-14
-14
-14
-14
-14
-13
-13
-13
-13
-14
-14
-14
-14
-14
-14
-14
-14
-13
-13
-13
-13
-12
-12
-12
-11
-11
-10
-11
-10
-10
-10
-10
-10
-10
-10
-10
-10
-9
-9
-9
-9
-9
-10
-9
-9
-9
-9
-9
-9
-9
-9
-10
-10
-10
-10
-10
-10
-10
-9
-10
-10
-10
-9
-9
-9
-9
-9
-7
-7
-7
-6
-6
-5
-5
-4
-4
-3
-4
-3
-3
-3
-2
-2
-1
-1
-1
-1
-1
-1
0
0
-1
-1
-1
0
0
0
0
-1
0
0
-1
0
0
1
1
2
2
2
2
2
2
2
2
3
3
3
3
3
3
3
3
4
4
4
4
5
5
5
5
6
5
5
6
6
6
6
6
6
5
5
5
4
4
4
3
3
3
3
3
3
2
2
2
2
2
2
2
3
2
3
4
4
5
5
7
6
6
7
7
6
7
6
5
5
5
4
4
3
2
1
1
0
-1
-1
-2
-2
-4
-4
-5
-5
-7
-7
-7
-7
-8
-8
-8
-9
-9
-9
-9
-9
-9
-9
-9
-9
-9
-9
-9
-9
-9
-10
-8
-8
-9
-9
-9
-9
-9
-9
-9
-9
-9
-9
-8
-8
-8
-8
-8
-7
-8
-8
-8
-8
-8
-9
-9
-9
-9
-10
-10
-10
-12
-11
-12
-13
-13
-14
-14
-15
-16
-16
-16
-16
-16
-15
-14
-12
-10
-7
-3
1
7
13
21
29
38
48
59
71
84
97
112
127
143
159
176
192
209
224
240
254
267
278
287
294
298
300
298
295
289
280
269
256
241
223
203
182
159
136
113
89
65
43
20
-1
-20
-38
-55
-69
-82
-93
-103
-111
-116
-121
-123
-125
-126
-126
-124
-123
-120
-116
-114
-110
-105
-101
-96
-92
-87
-82
-78
-74
-70
-66
-63
-59
-57
-54
-51
-48
-47
-45
-43
-42
-40
-40
-39
-38
-37
-37
-36
-35
-34
-35
-34
-33
-34
-33
-32
-32
-31
-31
-30
-30
-30
-30
-29
-29
-29
-29
-28
-28
-28
-28
-28
-28
-28
-28
-28
-27
-28
-27
-27
-27
-27
-27
-26
-27
-27
-27
-27
-27
-26
-26
-27
-27
-28
-28
-28
-28
-28
-29
-29
-29
-29
-29
-29
-30
-30
-31
-32
-32
-32
-32
-32
-32
-33
-33
-33
-33
-33
-33
-33
-33
-33
-33
-33
-34
-33
-33
-33
-34
-34
-34
-33
-34
-34
-35
-33
-34
-34
-33
-34
-34
-35
-35
-35
-35
-35
-35
-35
-35
-35
-35
-36
-36
-37
-36
-36
-36
-37
-36
-36
-37
-37
-37
-37
-37
-38
-38
-38
-38
-38
-38
-38
-38
-38
-39
-39
-39
-39
-39
-38
-38
-39
-38
-39
-39
-39
-38
-38
-38
-38
-38
-39
-38
-39
-39
-39
-39
-39
-38
-39
-39
-39
-39
-39
-39
-40
-40
-40
-40
-40
-41
-40
-41
-42
-41
-41
-41
-41
-41
-41
-41
-42
-42
-42
-42
-42
-42
-42
-42
-42
-43
-43
-43
-44
-44
-45
-44
-45
-45
-46
-46
-46
-47
-47
-47
-48
-48
-49
-49
-51
-51
-51
-52
-53
-54
-54
-55
-55
-56
-56
-57
-58
-58
-60
-60
-61
-62
-63
-64
-64
-65
-66
-67
-67
-69
-70
-70
-70
-70
-71
-72
-73
-73
-74
-75
-76
-77
-78
-78
-79
-80
-81
-82
-83
-83
-85
-85
-86
-86
-88
-88
-89
-89
-90
-91
-91
-93
-93
-94
-94
-95
-95
-96
-97
-97
-97
-97
-96
-97
-97
-97
-97
-95
-95
-95
-94
-94
-94
-93
-92
-91
-91
-90
-90
-89
-88
-87
-85
-84
-83
-82
-81
-80
-79
-78
-77
-75
-74
-72
-71
-70
-68
-66
-66
-63
-62
-61
-59
-58
-56
-54
-53
-52
-51
-49
-48
-47
-46
-45
-44
-43
-42
-40
-40
-39
-38
-38
-37
-36
-36
-35
-35
-35
-35
-34
-35
-35
-35
-35
-35
-35
-36
-36
-36
-36
-36
-36
-36
-36
-36
-36
-36
-36
-36
-36
-36
-36
-35
-35
-35
-35
-34
-35
-34
-35
-35
-33
-34
-33
-33
-32
-32
-32
-32
-32
-32
-32
-32
-31
-31
-31
-31
-30
-31
-31
-31
-31
-31
-31
-30
-30
-31
-31
-31
-30
-30
-31
-31
-31
-31
-30
-30
-31
-30
-30
-30
-30
-29
-29
-29
-29
-29
-28
-28
-28
-28
-27
-27
-27
-27
-27
-27
-27
-27
-27
-26
-26
-26
-26
-25
-25
-25
-26
-25
-25
-25
-24
-24
-24
-24
-24
-24
-24
-24
-23
-23
-22
-22
-22
-21
-21
-21
-20
-20
-20
-19
-19
-19
-18
-18
-19
-19
-18
-19
-18
-19
-19
-19
-18
-18
-18
-18
-18
-18
-18
-18
-18
-19
-18
-18
-19
-19
-18
-19
-19
-19
-19
-18
-19
-18
-18
-18
-19
-19
-19
-19
-19
-19
-19
-20
-19
-19
-19
-20
-19
-19
-19
-19
-19
-19
-19
-19
-19
-19
-18
-19
-19
-18
-18
-20
-19
-19
-19
-20
-20
-20
-19
-19
-20
-19
-19
-20
-19
-19
-19
-20
-20
-21
-21
-21
-20
-20
-21
-20
-21
-21
-20
-20
-20
-20
-19
-18
-18
-18
-17
-17
-17
-16
-15
-15
-14
-13
-13
-12
-11
-11
-10
-10
-10
-9
-8
-8
-8
-8
-7
-7
-7
-6
-6
-6
-5
-5
-4
-4
-4
-3
-2
-2
-2
-1
-1
-1
0
0
0
0
1
1
1
1
2
2
2
2
1
2
3
3
2
2
2
1
2
2
1
1
1
0
0
0
-1
-1
-2
-2
-2
-2
-2
-2
-2
-1
-2
-1
-1
0
-1
0
0
1
2
2
2
2
2
2
2
2
2
2
1
2
1
2
0
0
0
-1
-1
-3
-4
-4
-5
-6
-7
-7
-9
-9
-10
-11
-11
-12
-12
-13
-14
-15
-16
-15
-17
-16
-17
-17
-16
-17
-17
-17
-17
-17
-16
-16
-16
-15
-15
-15
-14
-14
-13
-14
-14
-13
-13
-12
-12
-12
-13
-13
-13
-12
-13
-13
-13
-12
-12
-12
-11
-12
-11
-11
-11
-11
-10
-10
-10
-10
-10
-10
-10
-10
-10
-10
-11
-11
-11
-12
-12
-12
-13
-13
-12
-11
-10
-8
-5
-2
1
5
11
17
25
33
41
52
63
75
87
101
115
129
145
161
178
194
210
225
240
253
266
276
285
291
295
297
295
292
285
277
265
252
235
218
198
177
155
132
108
84
62
39
18
-3
-22
-39
-55
-68
-81
-92
-101
-108
-113
-116
-119
-120
-120
-119
-118
-116
-113
-111
-106
-102
-98
-94
-88
-83
-79
-74
-69
-65
-60
-56
-52
-48
-45
-41
-39
-36
-34
-32
-30
-28
-26
-25
-23
-23
-23
-21
-21
-21
-21
-21
-21
-21
-22
-22
-23
-23
-23
-24
-23
-24
-24
-24
-24
-25
-25
-25
-25
-25
-25
-25
-24
-24
-25
-25
-24
-24
-24
-24
-24
-23
-23
-23
-23
-22
-22
-22
-22
-21
-21
-21
-20
-19
-19
-19
-19
-19
-19
-18
-18
-18
-18
-18
-18
-18
-18
-18
-18
-18
-19
-19
-20
-19
-19
-19
-19
-20
-20
-19
-19
-19
-18
-18
-18
-17
-17
-17
-16
-17
-17
-16
-16
-17
-16
-16
-16
-17
-17
-17
-17
-17
-18
-19
-19
-19
-20
-20
-21
-22
-23
-23
-24
-24
-24
-24
-25
-26
-25
-25
-26
-24
-24
-24
-24
-23
-23
-23
-22
-22
-21
-21
-21
-20
-20
-20
-20
-19
-20
-19
-19
-20
-20
-20
-21
-21
-21
-22
-22
-23
-24
-24
-24
-24
-26
-26
-26
-26
-27
-27
-27
-27
-27
-27
-27
-26
-27
-27
-27
-28
-28
-28
-28
-28
-28
-29
-29
-29
-30
-29
-29
-30
-30
-29
-30
-30
-30
-30
-30
-30
-31
-30
-30
-30
-30
-31
-31
-32
-32
-32
-33
-33
-33
-33
-33
-34
-34
-35
-34
-35
-36
-36
-36
-37
-37
-38
-39
-40
-41
-41
-41
-42
-43
-43
-44
-45
-46
-47
-48
-49
-50
-51
-52
-52
-53
-54
-55
-56
-57
-58
-59
-59
-59
-61
-61
-62
-63
-63
-64
-65
-66
-66
-67
-67
-68
-69
-69
-71
-71
-72
-72
-73
-73
-73
-74
-74
-75
-75
-76
-76
-76
-77
-77
-77
-76
-76
-76
-76
-76
-76
-75
-75
-74
-73
-73
-72
-72
-71
-70
-70
-68
-69
-67
-67
-65
-65
-65
-63
-62
-61
-59
-58
-57
-56
-54
-53
-52
-51
-48
-47
-46
-44
-42
-41
-40
-38
-37
-36
-34
-33
-31
-30
-29
-28
-26
-25
-24
-23
-22
-21
-20
-19
-18
-18
-16
-16
-15
-15
-14
-13
-12
-11
-11
-10
-9
-9
-9
-8
-7
-7
-6
-6
-6
-5
-5
-5
-4
-4
-4
-4
-3
-4
-3
-3
-3
-3
-3
-3
-3
-3
-3
-4
-3
-4
-4
-4
-4
-4
-4
-4
-5
-4
-4
-4
-5
-5
-5
-5
-4
-5
-5
-5
-5
-5
-6
-6
-6
-7
-7
-7
-7
-7
-8
-7
-7
-7
-8
-8
-8
-8
-8
-8
-8
-7
-7
-7
-6
-5
-5
-5
-4
-4
-3
-3
-3
-2
-2
-2
-2
-2
-2
-2
-2
-2
-2
-1
-2
-3
-2
-2
-2
-2
-2
-2
-2
-3
-3
-2
-3
-3
-3
-3
-3
-3
-4
-4
-4
-4
-4
-4
-3
-3
-4
-3
-3
-3
-3
-3
-3
-3
-3
-3
-2
-2
-2
-1
-2
-2
-1
-2
-1
-1
-1
-1
0
0
-1
-1
-2
-2
-2
-2
-3
-3
-3
-4
-5
-5
-6
-6
-5
-5
-5
-5
-5
-5
-5
-5
-6
-6
-6
-6
-6
-5
-5
-5
-4
-5
-4
-4
-4
-3
-3
-3
-3
-3
-3
-3
-4
-4
-4
-4
-4
-4
-4
-3
-3
-4
-4
-3
-4
-3
-4
-3
-3
-3
-2
-2
-2
-3
-3
-2
-3
-2
-2
-2
-2
-2
-2
-1
-2
-1
0
0
0
1
1
1
2
2
2
3
3
4
4
4
5
4
5
6
7
6
7
8
9
9
10
11
11
11
12
12
12
12
13
13
13
13
13
13
13
13
13
13
13
13
13
13
12
12
12
12
12
12
12
11
11
11
10
11
12
11
10
10
11
10
10
10
9
10
9
9
9
10
9
9
9
9
9
10
10
10
10
