# Simple Text Format
# Sampling Rate (Hz):= 1200.00
# Resolution:= 12
# Labels:= ECG	aVR
# Age:=	52
# Gender:=	Masculino
115
115
115
115
115
115
115
114
114
114
114
114
114
114
114
114
113
113
114
114
114
115
115
114
114
114
115
115
115
115
115
116
116
116
116
116
116
116
115
116
116
117
117
117
117
118
118
118
118
118
117
117
117
117
116
117
116
116
117
117
117
117
116
116
116
116
116
115
115
115
115
116
117
117
116
116
116
116
116
116
116
116
116
116
115
115
114
113
113
113
112
111
111
110
109
109
109
108
108
108
109
109
109
109
110
111
111
111
112
112
113
113
114
114
115
114
114
115
115
115
114
114
114
114
114
114
114
113
113
114
113
113
113
112
112
112
112
112
112
113
113
113
113
114
114
114
115
115
115
115
116
116
115
116
116
117
117
118
119
119
120
120
121
121
122
122
124
124
124
125
125
126
126
126
126
126
126
126
127
127
128
128
127
127
126
126
126
125
125
125
124
124
123
122
121
121
120
119
119
119
118
118
118
118
118
118
118
117
118
118
118
118
118
118
117
116
116
115
114
114
114
112
112
111
110
109
108
107
107
106
106
105
105
104
103
103
103
103
102
103
103
103
102
102
102
102
102
102
101
101
100
100
100
99
99
98
98
98
98
98
99
99
99
99
100
100
102
102
102
102
103
104
105
105
105
106
106
107
107
107
107
107
107
107
107
107
107
106
107
106
106
105
105
105
104
102
102
101
102
102
102
102
101
100
100
100
100
100
100
101
100
100
101
101
101
101
101
101
101
101
101
101
101
101
101
101
100
100
100
100
100
100
101
101
100
100
100
100
101
102
102
104
105
105
105
106
106
107
107
107
108
108
108
108
107
107
107
105
105
105
105
103
103
103
103
103
103
103
103
103
102
102
102
102
103
103
102
103
103
103
103
103
103
104
103
103
103
102
103
103
102
102
102
101
101
100
99
99
99
99
99
100
100
100
99
100
99
100
100
100
100
101
101
101
101
100
100
101
102
101
102
101
102
102
102
102
103
102
102
102
102
102
102
103
103
103
103
103
103
103
104
104
104
103
104
104
104
103
102
102
102
102
101
101
100
100
99
98
98
98
98
97
97
97
97
97
97
97
97
97
97
97
98
98
99
98
98
100
100
100
100
100
100
100
100
100
100
99
99
98
99
98
98
97
96
95
94
94
94
94
94
93
94
93
93
92
92
92
92
93
92
92
92
92
91
90
90
89
89
88
87
87
87
85
85
85
85
83
83
83
82
82
81
81
81
80
81
80
80
80
81
80
80
80
80
80
80
79
78
78
77
77
78
77
77
76
76
76
75
75
75
75
75
75
75
75
76
75
76
76
77
76
77
76
77
77
76
76
76
76
77
77
76
77
77
77
77
77
78
78
78
79
79
79
80
80
81
82
82
83
83
84
85
85
86
88
88
89
90
91
90
91
92
92
93
93
93
94
96
96
97
99
98
99
100
101
101
102
103
104
105
106
106
107
106
106
106
106
107
106
107
107
107
107
106
106
106
105
105
105
104
104
105
105
105
105
105
105
106
107
107
108
108
108
108
108
108
108
109
107
107
107
107
106
105
103
103
103
102
102
102
102
102
101
101
101
100
100
99
98
98
97
95
93
91
87
84
81
77
73
68
62
56
50
43
36
28
20
12
4
-4
-11
-17
-24
-28
-32
-36
-39
-40
-40
-40
-39
-35
-31
-26
-20
-12
-4
6
15
25
36
47
58
68
78
87
97
106
114
122
130
136
143
148
152
157
160
163
165
166
167
167
166
166
164
162
160
158
156
153
150
147
144
141
139
136
133
130
128
125
123
121
120
118
116
114
113
113
112
112
111
111
111
110
110
110
109
109
109
108
108
108
108
108
108
107
108
108
108
109
108
108
108
108
108
108
108
108
108
109
109
109
109
109
109
109
109
110
110
110
110
110
110
110
110
109
110
109
109
109
109
109
109
108
108
107
107
106
107
107
106
106
106
106
107
107
107
106
106
107
107
107
108
107
108
108
108
109
109
110
110
110
109
109
109
109
109
108
108
108
107
106
106
105
105
104
103
103
104
104
104
104
104
104
104
103
104
104
104
104
104
104
105
105
104
104
105
105
106
107
106
106
106
106
107
107
107
107
107
106
106
105
105
104
103
102
102
102
101
100
100
99
98
98
97
98
97
97
97
97
98
98
98
98
99
99
100
100
101
102
102
103
103
104
105
106
106
107
108
108
108
108
109
109
108
108
108
108
109
109
109
109
109
109
108
108
108
108
108
108
108
108
108
108
107
107
107
106
106
106
106
106
105
105
105
105
104
103
103
103
103
102
102
102
101
101
101
102
102
102
103
103
103
104
103
104
104
104
104
104
105
105
105
104
104
104
104
105
105
104
104
104
105
106
106
106
106
106
107
107
108
108
108
109
109
109
109
109
110
110
111
111
112
112
112
112
112
112
112
112
112
112
112
113
112
112
112
112
113
113
113
113
113
113
113
113
113
112
112
112
111
111
111
111
110
109
108
108
108
107
106
106
105
104
104
103
102
101
101
100
100
99
99
98
97
96
96
95
95
95
95
95
94
93
93
92
92
91
91
91
91
90
90
89
88
87
87
88
87
87
87
87
87
87
87
86
86
86
85
85
85
85
85
85
85
85
84
85
85
86
86
86
86
87
86
87
88
88
88
89
89
89
90
90
91
91
91
92
93
94
94
94
94
94
94
94
93
94
95
95
94
94
94
93
93
92
93
93
92
92
92
91
91
91
91
91
91
90
90
90
90
89
89
88
89
89
89
89
89
89
89
89
90
90
90
89
90
90
90
91
91
90
90
90
90
89
89
89
89
89
90
90
90
90
90
90
90
90
90
90
90
90
90
89
89
89
89
89
89
88
88
88
88
88
87
87
87
86
86
86
86
86
86
85
84
84
84
85
86
86
86
86
86
86
86
86
87
87
88
89
89
89
89
90
89
89
89
88
89
88
88
88
88
87
86
86
86
85
84
84
83
83
83
82
82
81
81
82
82
82
83
84
84
85
86
86
86
87
87
88
88
90
90
89
90
89
89
89
90
90
90
89
89
89
89
88
87
87
87
87
87
87
86
86
86
85
85
85
86
85
86
86
86
86
86
86
86
86
86
86
85
86
85
85
84
84
84
84
84
85
85
84
84
84
84
83
82
82
81
81
80
80
79
78
77
76
75
73
73
73
72
72
71
70
69
69
69
68
68
67
67
67
67
66
66
66
65
65
66
66
66
66
65
65
64
65
64
63
64
63
63
62
61
61
60
60
60
60
60
60
60
60
60
60
60
60
61
61
61
62
63
62
63
63
63
63
63
63
64
64
63
63
63
63
63
62
62
63
63
63
64
63
63
64
64
65
66
67
69
70
71
71
73
74
75
76
76
77
78
79
79
80
80
81
81
82
81
82
83
83
84
84
84
84
85
85
86
86
87
87
88
88
88
88
88
88
89
89
89
90
91
91
91
92
93
93
93
93
94
93
94
94
95
95
94
94
94
94
94
94
94
94
94
93
93
93
92
92
91
92
91
91
90
90
90
90
91
90
91
91
90
90
91
91
92
92
92
92
92
91
90
89
87
85
83
80
77
74
70
66
63
57
52
46
40
33
26
18
11
3
-4
-12
-20
-27
-34
-39
-44
-46
-49
-51
-52
-51
-49
-47
-43
-38
-31
-23
-14
-5
4
15
26
37
48
59
70
81
91
101
110
118
126
133
139
144
148
152
155
158
159
161
161
161
159
158
157
155
153
150
148
145
142
138
135
132
129
125
122
120
118
115
112
111
108
107
105
103
102
102
101
100
99
99
99
98
98
98
98
98
98
98
98
97
97
97
97
98
98
98
98
99
99
99
99
100
99
99
100
100
100
101
101
100
100
100
100
101
101
102
102
102
101
100
100
100
99
99
99
99
99
98
98
97
97
96
96
95
95
95
95
95
95
94
94
94
94
95
95
95
95
95
95
94
94
95
95
96
96
97
97
98
98
98
99
99
99
99
99
99
99
99
99
100
99
99
99
100
99
99
99
99
99
98
99
99
99
99
99
100
99
99
99
99
100
100
99
100
100
100
100
100
100
99
99
98
98
98
98
97
97
96
95
94
93
94
94
94
93
94
94
94
95
95
96
97
97
98
98
99
99
99
100
99
99
98
98
98
99
99
99
98
98
97
97
97
97
97
97
97
97
97
97
97
97
97
97
97
97
96
97
97
96
96
95
95
94
95
94
94
94
93
93
92
91
92
91
91
91
92
92
92
92
93
93
94
93
94
94
95
96
95
95
95
96
96
97
97
98
99
99
99
100
100
101
101
102
102
102
101
101
101
101
101
101
101
100
101
101
101
101
101
101
101
101
102
103
103
104
105
106
107
108
108
109
109
110
110
111
111
112
112
111
111
111
110
109
109
108
108
108
107
107
107
105
106
105
105
105
106
106
106
106
106
107
107
107
107
106
106
106
106
106
105
104
105
104
103
103
102
102
101
100
99
99
98
97
96
95
95
94
93
93
92
91
90
89
89
88
88
88
86
86
86
86
86
86
86
86
87
86
86
86
86
86
87
87
88
88
88
88
87
87
86
86
86
87
86
86
86
85
85
85
83
83
82
82
83
82
83
82
82
83
82
82
82
82
83
82
82
83
83
83
82
83
83
83
84
84
85
85
86
86
86
87
88
87
87
88
89
89
89
89
89
89
88
88
88
88
89
89
89
89
89
89
89
89
89
89
89
89
89
89
89
88
88
88
88
87
88
87
87
86
85
86
85
85
85
84
84
83
84
84
83
83
83
84
84
84
85
85
85
86
87
87
87
88
88
88
88
88
88
89
88
88
88
88
88
88
88
87
87
86
86
86
86
85
85
86
85
85
85
85
84
83
83
83
82
83
82
82
83
82
82
82
82
82
81
81
82
82
82
82
82
83
83
83
84
84
84
86
86
86
86
86
87
87
87
87
87
88
88
88
88
89
89
88
88
89
88
88
89
89
88
88
88
88
87
87
86
86
85
85
84
83
83
83
83
83
83
84
84
83
83
83
83
84
84
84
85
85
85
85
86
86
86
86
85
86
86
87
86
86
86
87
87
86
86
86
86
86
86
85
84
84
84
84
84
83
83
83
83
83
83
82
82
83
83
83
84
84
84
84
84
84
83
84
84
84
85
84
84
83
83
83
82
81
80
80
79
79
77
77
76
75
74
74
74
74
73
73
73
73
73
72
72
72
72
72
72
73
73
72
72
72
72
72
72
71
70
70
69
68
69
68
67
66
66
64
63
62
62
61
59
59
57
57
56
57
57
58
57
58
59
59
60
60
61
62
63
64
65
66
66
67
67
68
69
69
69
70
70
70
71
71
71
71
71
71
71
71
71
72
72
72
72
73
74
75
76
77
78
78
79
79
80
81
81
82
82
83
84
85
86
86
87
87
88
90
90
91
92
93
94
94
95
96
97
98
98
98
98
98
98
97
97
97
97
97
97
96
96
95
95
94
94
93
93
93
92
92
92
92
91
92
91
91
91
92
92
93
93
94
94
94
95
95
96
96
97
98
98
99
99
99
99
99
99
99
99
99
98
97
96
96
95
93
91
90
88
85
82
79
76
72
68
64
60
55
48
43
36
29
22
15
8
0
-8
-15
-21
-26
-31
-35
-38
-40
-41
-42
-40
-37
-34
-29
-23
-16
-8
2
11
21
31
42
53
64
75
85
93
102
111
118
126
133
139
145
149
152
155
158
160
161
162
162
162
161
160
158
156
153
151
148
145
143
139
136
133
130
127
124
122
119
118
115
113
112
110
108
108
107
106
105
105
105
106
107
107
107
107
107
107
107
107
106
107
107
108
108
107
107
107
107
106
106
106
105
105
105
105
105
105
105
105
105
104
104
104
104
104
104
104
104
105
105
105
105
105
105
105
106
106
105
105
105
106
106
106
106
105
106
106
106
106
107
108
108
108
108
108
108
108
107
108
108
108
108
108
106
106
106
104
104
104
103
103
102
102
102
102
101
101
101
101
101
101
101
101
101
102
102
102
102
103
104
104
105
105
106
106
107
107
107
107
107
107
107
107
106
106
106
105
105
105
105
105
105
106
106
105
105
105
106
106
107
108
108
108
108
108
108
109
108
109
109
109
109
109
109
109
108
108
108
107
107
107
107
106
106
105
105
105
105
105
104
105
105
105
105
105
105
105
106
106
106
105
105
105
104
103
104
103
103
104
103
104
103
103
103
103
103
103
103
103
103
104
104
104
104
104
104
104
104
105
106
105
106
107
106
107
107
108
108
107
108
108
108
108
108
108
108
108
108
107
108
108
108
108
108
107
109
109
108
108
109
109
110
110
110
111
110
110
110
111
112
112
113
114
114
115
115
116
116
117
118
118
119
120
121
121
123
123
124
124
125
125
126
126
126
126
126
126
127
127
126
126
127
126
126
125
125
124
124
124
123
123
122
121
120
119
119
118
116
116
115
114
114
113
112
111
110
109
108
108
107
107
107
107
105
105
104
104
104
103
102
102
102
102
100
100
100
99
99
99
99
99
99
99
98
99
99
99
98
98
98
98
98
98
99
99
98
98
98
99
100
99
99
100
100
100
100
101
101
101
102
102
103
103
103
103
104
104
105
105
106
107
106
107
107
107
106
105
105
105
105
105
104
104
104
103
102
101
101
101
100
100
101
100
100
100
102
102
102
102
102
102
103
103
103
103
103
103
104
104
103
103
103
103
102
102
102
102
101
100
100
100
99
99
98
98
98
97
97
97
97
97
97
97
97
97
97
97
98
98
98
98
98
99
99
98
98
98
98
98
98
98
99
99
99
99
99
99
98
99
98
98
98
98
98
99
99
99
99
100
100
101
101
101
102
102
102
102
102
102
102
102
102
101
101
101
100
100
100
100
100
101
100
100
100
100
100
100
100
101
101
101
101
101
101
102
101
101
101
101
101
101
101
101
100
101
101
101
101
101
101
101
100
100
101
100
99
99
99
100
100
99
100
100
99
100
100
100
99
99
100
100
99
99
100
99
100
100
100
100
100
101
101
101
101
101
101
102
102
102
101
101
101
101
101
100
99
99
99
99
100
100
99
99
99
99
99
99
99
100
100
100
100
101
101
100
100
100
100
100
100
100
100
100
100
99
99
99
98
99
98
98
98
98
97
97
97
96
96
96
96
95
96
96
96
96
96
96
96
95
95
95
95
94
94
93
93
92
91
91
92
92
92
91
91
91
91
90
90
90
89
89
88
88
88
88
87
86
86
86
86
85
84
84
83
83
83
83
82
81
81
80
80
80
79
78
78
77
77
77
77
77
77
77
76
76
77
76
76
76
77
76
77
78
77
78
77
78
78
78
79
79
80
80
81
81
81
81
82
82
82
83
83
84
84
84
84
85
86
87
86
88
89
89
89
90
90
91
92
93
93
94
94
94
95
95
95
96
96
97
98
98
99
101
102
103
103
103
104
105
106
107
107
108
108
108
108
108
108
109
109
109
109
109
110
109
109
109
109
110
110
111
111
111
111
111
112
112
112
113
113
113
113
114
113
113
113
113
112
112
112
112
112
112
111
111
111
110
110
111
111
111
111
111
111
111
111
111
110
110
110
108
107
106
104
103
100
96
94
90
86
82
77
72
65
59
52
44
37
29
21
13
5
-2
-10
-17
-23
-28
-32
-35
-37
-38
-37
-36
-34
-30
-25
-19
-12
-4
5
14
25
35
46
57
67
78
87
97
106
115
123
131
138
145
150
155
159
163
166
169
170
171
172
172
171
171
170
167
166
165
163
161
157
155
152
150
147
145
142
140
138
136
134
132
129
128
126
125
125
124
123
122
122
122
121
121
121
121
120
120
120
121
121
120
121
121
121
121
120
121
120
120
120
120
120
120
119
119
119
118
118
118
118
118
117
117
117
116
116
116
115
115
115
115
115
115
114
114
114
114
114
114
114
113
114
113
113
114
114
114
114
114
114
115
115
115
115
116
116
116
116
116
115
116
115
115
115
115
115
115
115
115
115
115
115
114
114
114
114
115
114
114
114
114
114
114
114
115
115
115
115
115
114
115
115
115
115
115
115
115
115
114
114
114
114
113
114
113
113
114
113
113
114
113
113
114
114
114
113
113
113
113
113
112
112
112
113
113
113
113
113
114
113
113
113
114
113
113
114
113
113
114
113
113
113
112
112
112
113
113
113
113
113
113
114
114
114
114
114
114
114
114
115
114
114
113
114
114
114
114
114
114
114
113
113
113
112
113
113
112
112
112
112
112
111
111
111
111
112
112
112
113
113
113
113
113
113
113
114
114
114
115
115
116
115
115
116
117
116
117
117
118
118
118
118
118
118
118
118
118
118
118
118
117
117
116
116
117
118
118
119
119
119
119
120
120
121
122
121
122
122
123
123
124
124
124
125
125
126
127
127
128
128
129
130
130
130
130
130
131
131
131
131
131
131
131
131
131
130
130
129
129
128
127
127
126
126
125
124
124
123
122
121
120
119
118
117
117
116
116
115
115
115
114
113
113
113
113
113
113
113
113
113
112
113
113
113
113
113
112
111
111
111
110
110
109
109
108
107
107
106
105
105
104
103
102
102
102
102
102
101
101
101
101
101
102
102
103
102
103
103
104
104
104
104
104
105
105
105
106
106
106
107
107
107
107
107
107
108
108
109
109
109
110
110
110
110
111
112
112
112
112
112
112
112
112
111
111
110
110
109
109
109
108
107
107
107
106
106
106
106
106
106
106
106
107
108
108
109
108
109
109
110
110
110
111
110
111
111
112
112
112
112
111
111
112
111
110
109
110
109
109
108
109
107
108
107
107
107
107
107
106
106
106
106
106
106
106
106
105
105
105
105
105
105
105
105
105
106
106
106
106
105
105
106
106
106
107
107
107
108
109
109
109
109
109
109
110
110
110
111
111
111
110
110
110
110
110
110
110
109
109
108
108
107
107
107
107
107
107
107
107
107
106
107
107
106
106
106
106
106
106
106
106
105
104
104
104
105
105
104
104
104
105
105
105
105
105
104
104
104
105
105
105
104
104
104
105
106
106
107
107
107
108
109
109
109
109
109
109
110
109
110
110
109
109
109
108
108
108
108
108
107
106
106
105
105
105
104
105
105
105
105
105
105
105
106
105
106
107
107
107
107
108
108
108
108
108
108
107
107
106
107
106
105
104
103
103
102
102
101
100
99
100
99
98
98
97
96
97
97
96
97
96
97
96
97
98
99
99
99
100
100
101
101
102
102
102
102
102
102
101
101
101
99
98
97
96
96
95
94
93
92
91
90
88
87
86
85
84
83
83
82
81
79
80
79
79
79
79
79
80
80
81
81
82
83
84
84
85
86
87
87
89
89
89
90
91
91
92
92
92
92
92
92
92
92
92
91
91
91
91
91
91
91
91
91
92
93
94
95
96
97
98
100
102
103
104
106
108
110
111
113
114
114
115
116
117
118
119
119
119
119
119
119
120
119
119
119
119
119
118
118
118
118
118
117
118
118
118
118
118
118
117
118
118
118
118
118
118
118
118
118
117
117
117
117
117
118
117
117
117
117
118
117
117
117
117
117
118
118
119
118
118
118
119
119
120
121
121
121
121
121
121
120
120
118
116
114
111
108
105
102
97
93
88
83
77
71
64
58
50
42
35
27
19
12
5
-1
-6
-10
-15
-17
-20
-21
-21
-20
-17
-13
-9
-3
4
12
21
30
40
50
61
72
83
94
104
113
122
130
138
145
153
159
163
168
173
175
179
181
182
184
184
184
184
183
181
180
178
176
173
170
168
166
163
161
158
156
153
151
148
146
143
142
140
139
138
136
136
135
134
134
134
133
133
133
132
132
131
131
131
131
131
131
131
131
130
130
130
129
129
129
130
129
130
130
131
131
131
131
131
131
132
131
131
131
131
131
130
130
130
129
128
128
128
127
127
127
127
126
126
125
125
125
125
125
125
126
126
125
126
127
127
127
127
128
129
129
129
129
129
129
129
129
129
130
130
130
129
129
128
128
128
128
129
129
129
129
129
130
130
130
130
130
130
130
130
130
131
131
131
131
132
133
132
132
133
133
133
133
134
133
133
133
133
133
133
133
132
131
131
130
130
130
130
130
129
129
129
128
128
128
128
128
127
127
127
126
127
126
126
127
127
128
128
128
128
128
128
128
129
128
128
128
128
128
128
128
128
128
128
127
128
128
128
128
128
127
127
127
127
127
128
128
127
128
127
127
127
126
125
126
126
126
127
127
127
127
127
127
128
128
128
129
129
130
130
131
131
131
131
132
132
133
132
133
132
133
133
132
132
132
132
131
131
132
131
131
131
130
130
130
129
129
130
130
130
130
130
130
130
130
131
131
133
133
134
134
135
135
137
137
138
139
139
140
141
141
141
141
142
142
142
143
143
143
144
144
143
143
143
143
143
143
144
144
144
144
145
145
146
146
146
146
146
146
145
145
145
144
143
143
143
143
143
143
142
142
142
142
141
141
140
140
140
140
139
139
138
136
136
135
134
134
133
133
132
131
131
130
129
128
127
127
127
127
127
126
126
126
126
126
126
126
126
126
126
126
126
126
126
126
126
126
126
126
125
125
125
124
123
122
123
122
122
121
122
122
121
122
122
121
121
121
122
122
122
122
122
122
123
123
124
125
125
125
126
126
126
126
126
126
126
126
126
126
126
126
126
125
125
126
126
127
127
127
127
127
128
128
129
129
129
129
129
129
129
129
130
129
129
130
131
131
131
131
131
131
131
131
131
132
132
132
132
132
131
131
130
129
129
129
129
128
128
128
127
127
127
127
127
127
127
126
126
127
127
127
127
126
126
127
127
128
128
128
128
128
128
129
128
128
127
127
127
126
127
126
125
124
125
125
123
123
123
123
122
122
121
122
122
122
122
122
123
123
123
124
124
125
125
126
127
128
129
130
129
129
130
130
130
131
131
131
130
131
131
131
131
130
130
131
131
132
132
132
133
133
133
133
132
132
131
130
129
129
128
128
126
124
124
123
122
123
122
122
122
122
122
123
123
123
124
125
126
127
128
128
129
130
130
130
131
132
132
132
132
132
132
131
131
130
129
128
128
127
126
126
126
125
125
125
125
124
124
125
125
125
126
126
126
127
127
127
128
129
129
129
130
130
130
131
131
132
132
132
132
132
132
133
133
134
134
134
135
135
135
134
133
132
132
131
131
131
131
131
130
130
129
128
127
127
126
125
125
124
124
123
122
122
120
120
120
120
120
119
119
118
117
118
117
117
116
116
116
115
115
114
113
112
112
112
111
112
112
111
112
111
111
111
111
110
110
110
110
110
109
109
108
108
108
107
107
107
106
106
105
105
104
104
104
104
104
104
104
104
105
104
105
105
105
106
107
108
108
108
109
109
110
110
110
111
111
112
112
113
114
113
114
114
115
115
115
116
116
117
117
117
117
118
118
118
118
119
119
119
120
120
120
120
122
122
123
124
125
126
126
126
127
128
129
129
130
131
132
132
133
134
134
134
134
135
136
137
137
138
138
139
139
139
139
140
140
141
141
142
142
142
141
141
140
141
141
142
141
142
142
143
143
143
143
143
143
143
143
143
144
143
143
143
142
142
142
142
142
142
142
142
141
141
140
140
139
139
138
138
137
136
135
134
132
130
128
126
123
120
117
113
108
104
99
93
85
79
72
64
57
49
41
34
26
19
12
7
3
-2
-4
-7
-7
-6
-5
-3
1
5
12
19
27
36
45
55
65
75
87
98
109
119
129
138
148
156
164
172
179
185
191
195
199
201
204
205
207
207
208
208
207
206
204
202
200
197
195
191
188
184
181
178
175
172
168
166
163
160
158
157
155
153
152
151
151
150
149
149
149
149
149
149
149
148
148
147
147
147
148
147
147
147
147
147
147
147
147
147
147
147
147
147
146
146
146
145
145
145
145
145
145
145
145
145
144
144
145
144
144
145
145
145
145
145
145
145
144
145
146
145
146
145
146
146
147
146
147
147
147
147
147
147
147
147
146
146
145
145
146
146
146
146
146
147
147
147
147
147
147
146
146
147
147
147
147
147
147
146
147
147
148
147
147
147
147
147
147
147
147
147
147
147
146
146
146
146
145
145
146
146
147
147
147
147
147
147
147
147
147
147
146
146
146
146
146
145
145
145
144
144
144
144
144
144
144
144
144
144
144
144
143
144
144
143
144
144
143
143
144
145
145
145
145
145
145
145
145
145
145
146
145
146
146
146
145
145
145
144
144
144
143
143
143
142
142
142
141
141
141
141
141
140
141
141
141
142
142
142
143
144
143
144
144
144
144
143
144
143
144
143
143
143
143
143
142
142
141
142
142
143
143
144
144
144
145
146
146
146
146
147
147
148
149
149
149
148
149
148
148
149
149
149
148
148
148
148
148
148
149
148
149
149
149
149
149
149
149
149
149
150
151
152
152
152
153
154
154
155
156
157
158
159
160
160
161
161
161
162
162
162
162
162
162
162
161
160
160
159
159
157
156
155
154
153
152
151
150
149
149
149
149
149
147
147
147
147
147
146
145
145
145
144
144
144
143
142
141
141
141
140
140
139
138
138
137
137
136
135
135
135
134
134
133
133
132
131
132
132
131
131
131
131
131
131
131
130
130
130
130
131
131
131
131
131
130
130
130
130
130
129
130
130
130
130
130
131
131
131
131
131
132
133
133
134
134
134
135
136
137
138
137
138
138
139
139
138
139
139
138
138
138
138
138
138
137
137
137
137
136
136
136
136
137
136
136
136
136
136
136
136
136
136
135
135
134
134
133
133
133
133
133
133
132
132
131
131
130
130
130
130
130
130
130
130
130
129
130
130
130
131
132
132
133
133
134
134
134
134
134
135
134
134
134
133
134
133
133
133
133
132
132
133
133
133
133
132
132
133
132
132
132
131
132
131
131
131
130
130
129
130
130
130
130
130
130
131
131
132
132
133
134
134
135
135
135
135
135
136
136
137
137
138
138
138
138
137
138
137
137
136
136
135
135
134
133
132
132
132
132
131
131
131
131
130
130
130
130
129
130
130
130
131
131
131
131
131
131
131
131
132
132
132
131
132
132
131
131
131
130
130
130
129
129
129
129
129
128
129
129
130
129
130
130
130
131
131
132
132
133
133
134
134
134
133
133
133
133
132
133
133
133
132
132
131
131
131
131
131
131
131
131
131
131
131
131
130
130
130
131
131
131
131
131
131
131
130
130
130
130
129
130
129
129
128
128
127
126
126
126
126
125
124
124
123
122
123
122
121
120
119
119
118
118
117
118
117
116
116
117
117
117
117
117
116
116
116
116
116
115
115
115
115
115
114
113
113
112
110
110
110
109
109
108
107
107
106
106
105
105
104
104
104
104
104
104
104
104
105
106
106
106
106
107
107
107
107
108
108
108
109
109
109
109
109
109
109
109
110
110
111
111
111
112
113
113
114
116
116
118
119
120
120
122
123
123
124
125
126
127
129
130
130
131
132
132
133
133
133
134
133
133
133
133
134
134
133
133
133
134
135
135
135
136
136
136
138
138
138
138
139
139
140
140
140
140
140
140
140
141
141
140
140
140
140
140
139
139
138
138
137
137
137
137
136
135
135
135
135
135
135
135
135
135
134
135
135
135
136
136
136
137
136
136
136
135
135
134
133
132
131
129
127
124
121
118
114
110
104
99
93
88
81
74
66
58
50
42
34
27
20
13
8
3
-1
-4
-6
-7
-7
-6
-3
1
5
11
18
27
35
44
54
65
76
87
97
108
119
128
137
146
154
162
169
175
180
186
190
193
196
198
199
201
201
202
202
201
199
198
196
194
192
189
186
183
181
178
175
172
169
166
164
162
160
158
156
154
153
152
151
149
149
148
147
147
147
146
145
146
145
145
145
145
145
145
145
145
145
146
147
147
146
147
147
148
148
149
149
149
150
150
150
151
150
151
151
152
152
152
151
151
150
150
149
149
149
148
148
147
147
146
145
145
144
144
143
144
144
144
145
145
145
145
146
146
146
146
147
147
147
147
147
147
147
147
147
147
146
145
145
144
143
143
143
143
143
142
142
141
141
140
141
141
141
142
143
142
144
144
145
145
144
144
145
145
146
146
147
147
147
146
146
146
146
146
146
146
146
146
146
145
146
146
145
145
145
145
145
145
144
144
145
145
145
146
146
146
146
146
147
147
147
147
147
147
146
147
146
145
144
145
144
144
143
142
141
141
140
140
139
139
138
138
138
138
138
138
138
137
137
137
137
138
138
138
138
138
138
138
138
136
136
136
136
135
135
135
134
133
133
132
132
133
133
134
134
134
134
135
135
136
136
137
137
138
138
139
139
139
139
139
140
141
141
141
141
141
142
142
142
142
142
142
143
143
143
143
143
144
144
144
144
145
144
145
145
145
145
144
145
145
144
144
145
145
145
145
144
144
144
144
145
144
145
145
146
146
146
147
147
147
147
147
147
147
147
146
147
147
146
146
145
146
146
146
145
145
145
145
144
144
144
142
143
143
142
142
142
141
140
140
140
140
140
140
140
139
140
139
139
139
138
138
138
137
137
136
136
134
133
132
131
130
129
129
128
127
126
125
124
123
122
121
121
121
121
121
120
120
121
120
121
121
122
121
122
122
123
123
122
123
123
123
123
123
123
123
123
123
122
122
122
122
123
123
122
123
123
123
123
123
122
123
123
124
124
124
124
124
125
125
125
126
125
126
126
126
126
126
126
126
126
125
125
125
124
124
122
122
121
120
119
118
118
118
118
116
116
117
117
117
116
117
117
117
118
119
119
119
119
119
120
120
121
121
120
120
121
120
120
119
119
119
118
118
117
117
116
116
115
115
114
114
115
115
116
116
116
116
116
116
116
116
116
116
116
117
117
116
116
115
115
116
115
115
115
115
116
116
117
117
116
116
116
117
117
117
116
117
116
117
117
117
117
118
118
118
118
117
117
118
117
117
117
117
117
116
115
115
114
114
113
113
113
114
114
113
113
113
114
114
114
114
114
115
116
116
117
116
117
117
117
117
118
118
118
118
118
118
118
117
116
116
116
116
116
115
116
116
115
115
115
115
116
116
116
117
117
117
117
116
116
116
116
116
116
117
116
115
115
114
114
114
114
114
115
115
115
115
115
116
116
116
116
117
117
117
119
119
119
119
119
119
119
118
118
118
118
118
118
118
118
117
116
117
116
116
116
114
114
114
113
113
112
112
113
112
111
111
110
109
109
108
108
108
107
106
105
104
103
102
102
102
102
101
100
100
99
99
98
98
97
97
97
96
95
95
94
94
92
92
92
91
91
91
91
90
90
90
90
90
90
89
89
89
90
90
90
90
90
91
91
91
92
92
93
94
94
95
95
96
96
96
97
96
97
97
97
97
97
97
97
97
97
97
97
97
97
99
99
99
100
101
102
104
104
105
107
107
109
110
111
113
114
115
116
117
117
118
119
120
121
120
121
122
122
122
122
122
121
121
122
122
122
123
122
123
123
124
124
124
124
124
124
124
124
123
124
124
123
124
124
124
124
125
125
125
125
126
126
126
125
126
126
127
127
126
127
127
127
126
126
126
126
126
126
125
126
126
125
125
124
124
124
123
123
122
122
121
120
119
117
116
114
114
112
109
106
103
100
96
93
88
83
78
72
65
59
51
44
36
30
23
16
11
5
1
-4
-7
-9
-9
-9
-7
-4
-1
4
10
17
24
33
42
52
63
74
84
95
104
114
123
131
139
147
154
159
165
169
173
177
179
182
183
185
185
186
186
185
184
183
181
180
178
175
172
170
167
165
162
159
156
154
150
148
145
144
142
140
138
137
136
135
135
133
133
133
133
133
133
134
133
134
134
134
134
134
135
135
134
135
134
134
133
132
132
131
131
130
130
129
128
127
127
126
126
126
126
126
126
126
126
126
126
126
127
128
128
128
128
128
128
128
127
128
128
128
128
128
128
128
127
127
127
126
127
126
126
126
126
126
126
125
125
125
125
125
125
126
126
126
126
126
126
126
126
126
126
127
127
126
127
126
126
126
126
125
126
126
126
125
125
125
125
125
125
125
124
125
125
126
126
126
126
127
128
127
128
129
129
130
130
130
131
130
130
129
129
128
127
127
126
125
125
125
125
124
124
123
123
123
123
123
125
125
125
125
125
127
127
127
127
127
127
127
127
127
127
127
126
126
125
124
123
123
123
123
123
122
121
121
120
121
121
120
120
121
120
121
121
121
121
122
121
121
121
121
121
122
121
121
121
120
121
121
121
121
121
122
122
121
121
122
122
121
121
122
121
121
121
121
121
120
120
119
120
120
120
119
119
119
120
120
120
120
122
122
123
124
124
125
125
126
126
127
128
128
129
129
129
129
129
130
130
129
129
128
128
128
128
128
127
127
126
126
127
127
127
128
127
128
129
130
130
131
130
131
131
132
132
132
132
131
131
131
130
131
131
131
130
130
130
130
130
129
129
129
129
128
129
129
128
129
128
128
129
128
129
129
128
129
128
127
128
127
126
126
126
126
126
125
124
124
124
123
123
123
122
122
121
121
119
119
118
117
116
115
114
113
112
111
110
109
108
106
106
105
104
104
104
104
104
104
104
104
105
104
105
105
106
107
107
107
107
108
109
109
110
110
110
110
110
110
109
109
109
108
108
108
107
107
107
106
106
106
106
106
107
107
108
109
109
110
110
111
111
112
112
113
113
114
113
113
112
113
113
113
113
113
113
112
112
112
111
112
111
111
111
110
110
110
109
109
108
108
108
107
108
108
108
108
108
107
107
106
107
107
107
107
107
107
107
106
106
107
107
107
108
108
109
109
109
109
109
109
109
109
108
108
108
107
107
106
106
106
106
106
106
106
106
106
105
105
105
104
104
105
105
106
106
106
106
105
105
105
106
106
105
106
106
105
106
106
106
106
106
106
107
107
107
107
107
106
106
107
107
108
109
108
109
109
109
110
110
110
110
110
111
110
110
110
110
109
109
110
109
110
110
110
109
109
109
109
109
108
107
107
107
108
108
108
107
108
108
108
109
109
109
110
110
109
110
110
109
108
109
109
109
108
108
107
106
105
105
104
103
103
102
102
102
102
101
102
102
102
102
103
103
103
103
104
104
103
104
105
106
106
106
107
107
107
107
107
107
107
106
106
106
106
106
105
105
104
104
103
104
103
102
100
100
99
99
98
98
97
97
97
96
96
95
95
94
93
93
93
93
93
93
93
92
93
92
91
91
90
90
91
90
90
89
89
88
87
86
86
85
85
85
85
84
85
84
84
84
83
83
83
83
83
82
82
81
81
80
80
79
79
79
79
79
78
78
79
78
79
79
80
80
81
82
83
83
84
84
85
86
86
88
88
89
88
89
90
90
89
89
90
90
90
90
90
91
91
91
92
93
94
95
96
96
97
98
98
99
99
100
101
102
103
104
104
104
105
105
106
107
107
107
108
108
108
108
109
109
108
108
108
108
108
108
108
107
107
107
107
107
107
108
108
109
109
110
111
111
112
113
113
114
115
114
114
115
114
115
115
116
116
116
115
115
114
114
114
113
113
112
113
112
113
113
113
113
113
114
113
113
114
114
114
114
113
113
112
111
108
106
104
102
98
94
90
85
80
75
68
61
56
48
40
32
24
16
9
1
-7
-13
-17
-22
-25
-29
-30
-31
-31
-31
-28
-24
-18
-12
-5
3
12
21
32
42
52
64
75
85
96
104
114
122
129
136
142
149
154
159
163
166
169
172
173
174
174
174
174
173
172
170
168
166
163
161
158
156
153
150
148
145
142
139
137
134
131
130
128
127
125
124
123
122
120
120
119
119
118
118
118
118
117
117
117
117
117
117
117
117
117
116
115
116
115
114
114
114
114
114
114
114
114
114
114
115
115
115
115
115
115
116
116
116
116
116
116
116
117
117
117
119
118
119
119
119
119
118
117
117
117
118
117
116
116
116
116
116
116
116
117
117
116
116
117
117
117
117
117
116
116
117
117
117
116
116
116
115
115
115
115
115
115
116
116
116
116
116
116
117
117
117
118
118
117
118
118
118
118
118
117
117
117
117
116
116
115
114
114
113
112
112
111
110
109
109
110
109
110
110
110
110
110
111
111
111
111
111
112
113
113
113
113
113
112
112
112
112
113
113
112
112
112
112
112
111
110
110
110
110
110
111
111
110
110
110
110
110
110
112
112
112
112
112
113
112
113
112
112
111
111
111
110
109
109
108
108
108
108
107
107
107
107
107
106
106
106
106
107
107
108
108
108
108
109
109
110
110
110
111
111
111
111
111
111
111
111
111
111
111
111
110
110
109
110
110
109
110
110
110
111
111
111
111
111
111
111
111
112
112
112
112
112
112
112
112
113
113
114
115
115
116
116
117
118
118
118
119
120
120
120
121
121
121
120
120
121
121
121
122
121
121
120
120
120
119
119
118
118
117
117
117
116
117
116
116
116
115
115
115
115
115
115
114
114
114
113
113
113
113
112
112
112
111
109
109
109
109
108
108
108
108
107
107
106
107
107
106
106
106
106
106
106
105
105
104
104
104
104
104
103
102
102
101
100
100
99
98
98
97
97
97
96
96
95
94
94
94
93
93
93
93
93
93
93
93
93
93
94
94
94
94
95
95
95
96
96
97
97
97
98
98
99
99
99
99
99
99
99
98
98
97
97
96
96
95
95
95
95
95
95
95
95
95
95
96
96
96
97
97
97
98
98
98
97
97
97
97
97
96
96
95
94
94
92
92
91
90
91
91
90
89
89
89
89
89
90
90
90
91
92
92
93
93
94
95
96
96
97
97
98
98
98
98
98
98
98
98
99
99
99
100
100
100
100
100
100
100
99
99
100
99
99
98
97
97
97
97
97
96
95
94
94
94
93
93
92
92
92
92
92
91
90
91
90
90
90
90
91
91
91
91
91
92
91
91
90
90
91
90
90
90
90
89
89
89
89
90
90
90
90
90
90
91
91
91
90
91
92
92
92
93
93
92
92
92
93
93
93
94
94
94
94
95
94
95
95
95
94
94
95
95
95
94
94
93
94
94
94
94
94
93
93
94
93
93
93
93
92
92
93
92
92
92
91
92
92
92
91
91
91
90
90
89
89
89
88
87
87
86
85
85
83
82
80
80
79
79
78
78
78
77
76
75
74
74
74
73
73
73
72
72
71
71
70
70
70
69
70
70
70
70
70
71
71
71
71
71
72
72
71
71
70
70
69
68
68
68
68
67
67
66
64
63
62
62
62
61
61
60
60
60
60
60
60
60
60
62
62
63
63
64
64
66
67
67
67
67
68
68
68
68
67
67
67
68
68
69
69
70
71
71
71
72
73
74
74
76
77
78
79
80
80
80
80
81
81
82
82
83
84
83
83
83
84
83
83
83
83
84
84
84
84
84
84
85
86
86
87
88
89
90
90
91
92
92
93
94
93
94
95
95
96
96
97
97
96
97
97
98
98
98
98
97
97
96
97
96
96
96
96
96
95
94
95
94
94
94
94
95
95
95
95
96
95
96
96
96
96
95
95
95
94
93
92
92
91
89
87
85
83
80
77
72
69
64
58
53
48
41
34
26
19
11
3
-4
-13
-20
-28
-34
-39
-44
-47
-51
-52
-53
-51
-50
-47
-42
-36
-31
-23
-14
-6
4
15
26
38
49
59
70
80
90
98
106
115
122
128
133
139
143
146
149
152
153
154
156
156
155
155
154
152
150
148
145
143
139
137
134
131
128
125
122
119
117
114
113
111
110
108
107
106
105
104
104
102
102
102
102
102
102
102
101
101
100
100
100
100
99
99
100
99
99
99
99
98
98
98
98
97
96
96
96
95
95
95
95
95
95
95
95
95
96
96
96
96
96
97
98
98
98
98
98
98
98
98
98
99
99
100
100
100
99
99
99
98
98
98
98
97
97
98
97
96
96
96
97
97
96
96
96
96
96
97
97
97
97
97
97
97
95
95
96
95
95
95
95
95
95
96
96
95
95
95
96
96
96
97
97
97
97
97
97
96
96
96
96
96
95
95
95
94
94
94
93
92
92
92
93
93
92
92
92
91
92
92
93
93
93
93
94
94
95
95
96
96
97
96
96
96
96
96
96
95
95
95
95
95
95
95
94
93
93
93
92
92
90
90
90
90
90
90
89
89
89
90
91
90
90
91
91
91
92
92
91
92
92
92
92
91
91
90
89
89
88
88
87
87
87
87
86
86
86
85
85
86
86
85
85
86
87
87
87
87
88
89
89
90
91
91
92
92
92
93
93
93
93
93
93
94
94
93
93
93
93
92
93
93
93
93
93
93
94
94
94
94
94
94
95
96
95
96
96
96
97
97
97
98
98
99
100
100
101
100
101
102
101
102
102
102
102
102
103
103
103
103
104
104
105
105
105
104
104
104
104
103
104
104
104
104
103
102
101
101
101
100
99
99
98
98
97
96
96
96
95
94
93
93
92
91
92
91
89
89
88
87
86
86
86
85
85
84
84
84
83
83
82
82
81
80
80
79
79
78
77
77
77
77
77
77
77
77
76
76
76
75
75
75
75
75
75
75
75
75
75
75
76
77
76
77
77
77
77
78
79
79
79
79
80
80
80
80
80
80
80
80
81
81
81
81
81
81
81
81
81
81
82
81
82
82
82
82
82
82
83
83
84
85
85
86
86
86
87
87
88
87
87
87
87
87
87
87
86
86
85
85
85
85
85
85
84
83
83
82
82
82
81
81
80
80
78
78
77
77
75
75
75
75
75
74
74
74
74
73
73
73
73
74
74
75
75
76
76
76
77
77
78
79
79
79
80
80
80
80
80
80
80
80
80
80
80
80
79
79
78
79
79
79
79
79
79
79
80
80
80
80
80
80
80
80
80
80
79
79
79
79
79
79
79
79
79
78
78
78
78
78
78
79
79
79
79
79
79
79
79
80
81
80
81
81
81
81
82
81
81
80
80
80
80
80
79
79
78
77
77
77
77
77
77
77
77
76
76
76
76
76
75
76
75
75
75
74
74
73
73
73
73
73
72
73
73
72
73
73
73
72
72
73
72
72
73
73
73
72
72
72
72
73
73
73
72
72
71
71
70
69
68
68
67
66
65
65
64
64
62
62
62
62
61
61
61
60
60
60
60
60
60
60
60
60
61
60
60
60
60
60
60
61
61
61
61
60
60
60
59
59
58
58
57
58
57
56
57
56
56
56
56
56
56
57
57
57
57
58
58
59
59
59
60
60
61
61
60
61
61
62
62
64
64
65
65
66
67
68
69
69
70
72
73
74
75
75
76
77
78
79
79
79
80
80
81
81
82
83
82
82
83
82
82
83
83
83
83
83
83
84
84
84
85
86
86
86
87
87
88
88
89
90
91
91
92
92
92
91
92
92
93
93
93
93
92
92
91
91
90
90
90
89
89
88
88
89
88
88
89
89
90
90
91
92
92
93
93
92
93
93
92
92
91
90
88
86
83
80
76
72
68
64
59
53
47
41
34
27
19
12
4
-5
-13
-21
-27
-34
-40
-45
-49
-52
-54
-55
-54
-52
-50
-47
-42
-37
-31
-23
-14
-5
6
17
28
39
50
60
70
81
90
99
107
115
122
129
134
139
144
147
150
152
154
155
155
156
155
153
152
151
149
147
144
141
138
136
134
130
128
125
123
120
118
116
113
111
110
108
107
107
106
106
105
105
104
104
103
103
103
102
102
102
101
102
101
100
98
97
96
96
96
95
94
94
93
93
93
92
92
92
92
92
92
92
92
92
92
93
93
94
95
94
95
95
96
96
96
96
96
96
96
96
96
96
96
96
96
95
96
96
96
95
95
95
95
95
95
95
96
96
96
97
97
98
98
98
99
99
100
99
100
101
101
101
102
101
101
101
100
100
99
99
99
98
98
97
96
95
95
95
95
95
96
96
96
97
97
97
97
97
97
98
98
98
98
97
97
96
96
96
96
96
96
95
95
95
94
94
94
94
94
94
94
94
93
93
92
92
92
92
92
92
92
92
92
92
92
92
91
91
90
90
90
90
90
91
90
89
90
89
90
90
90
90
90
92
92
92
93
93
93
94
95
95
95
95
95
95
95
96
96
97
96
97
98
98
98
99
99
99
98
99
100
99
100
100
100
100
100
99
100
99
100
100
99
99
98
97
97
96
95
95
95
94
94
93
93
92
92
93
93
94
94
94
95
95
96
96
97
97
98
99
99
99
99
99
100
100
99
100
101
100
101
101
101
100
101
101
101
101
101
102
102
102
102
102
102
103
103
104
104
105
106
107
107
108
108
109
110
110
110
109
110
110
110
109
110
109
109
108
108
108
107
105
105
104
104
103
103
102
102
101
101
101
101
100
99
99
99
99
99
99
99
98
97
96
96
95
94
94
93
93
92
92
91
90
89
88
88
88
88
88
88
88
88
88
89
89
89
89
90
90
90
90
90
89
89
89
89
88
88
88
88
87
86
86
86
85
85
84
84
84
83
82
82
81
81
80
80
81
80
81
81
82
82
82
83
84
84
85
85
86
87
87
88
89
89
90
90
90
91
91
91
91
91
90
91
90
90
89
89
89
88
88
88
88
87
86
87
87
88
89
88
88
88
89
88
88
88
88
88
89
89
89
89
88
88
88
88
88
89
89
89
90
90
90
91
91
91
91
92
92
93
93
93
94
93
93
93
92
92
92
91
91
89
89
88
87
87
86
85
83
83
82
82
81
81
81
81
80
81
81
82
83
83
83
84
85
85
86
87
87
87
87
88
87
88
87
86
86
87
86
86
86
86
86
85
85
84
84
84
84
84
84
84
83
83
83
83
83
84
85
85
86
87
88
89
89
90
90
91
91
92
93
93
93
92
92
92
92
93
92
92
91
90
90
89
89
88
87
87
86
86
85
85
84
84
83
83
83
84
84
84
84
84
84
86
86
86
85
85
87
86
86
87
86
86
84
85
84
84
83
83
83
82
80
81
79
78
78
76
75
75
74
73
73
72
72
71
71
71
70
70
71
71
71
70
70
70
70
70
71
70
71
71
71
70
70
70
71
71
70
70
69
70
69
69
68
68
67
66
65
66
64
63
62
62
61
61
60
60
60
60
60
61
61
61
62
63
63
64
64
66
67
67
67
68
69
69
70
70
71
71
72
73
73
73
74
73
73
73
73
74
74
74
75
74
75
75
76
76
77
77
78
79
80
81
82
83
84
84
85
86
86
86
87
87
88
88
89
90
91
90
91
91
92
93
93
94
94
95
95
96
96
96
96
96
96
96
95
96
96
95
95
95
95
94
94
93
93
93
93
93
93
93
93
93
93
93
93
94
94
95
96
96
96
97
97
98
98
98
99
100
99
100
99
100
100
99
100
100
99
99
99
98
97
95
94
92
91
88
85
82
78
74
69
64
58
52
46
39
32
25
17
9
0
-8
-15
-22
-28
-34
-39
-43
-44
-46
-46
-45
-44
-40
-36
-29
-22
-14
-5
5
14
25
36
47
57
68
78
88
96
105
112
120
126
131
137
142
146
149
153
155
156
157
158
158
158
157
157
155
154
152
150
147
144
142
140
137
135
133
131
128
127
125
123
122
120
119
118
116
116
115
113
113
111
110
110
109
109
108
108
107
106
106
105
104
104
103
103
102
101
101
101
101
101
101
101
101
102
102
103
103
104
104
104
104
104
104
105
106
107
107
107
107
107
107
108
108
108
108
108
107
107
107
106
106
105
105
105
104
105
104
103
102
102
102
102
102
102
102
102
102
102
102
102
102
102
102
103
103
103
103
103
104
105
106
106
107
108
108
108
110
110
109
110
110
109
109
110
110
109
108
108
107
106
105
105
103
103
103
101
101
100
100
100
100
100
100
100
100
100
101
101
101
101
101
102
103
103
104
105
105
105
105
106
106
106
106
106
107
107
107
108
107
107
107
107
107
106
106
106
106
105
105
105
104
104
104
103
103
103
102
101
101
101
101
101
100
101
101
101
101
100
101
101
101
101
101
101
101
101
101
101
101
101
102
102
103
102
102
103
103
104
104
103
103
103
103
102
102
103
102
102
101
101
101
101
101
101
100
100
100
100
100
99
99
99
100
100
101
101
101
101
101
101
101
102
102
102
102
103
103
104
103
104
104
105
106
106
107
107
108
108
108
109
108
109
110
111
111
112
113
114
113
113
114
114
114
114
114
114
115
114
114
113
113
114
114
114
114
115
115
115
114
115
116
115
115
116
116
116
115
115
114
113
113
113
113
112
112
111
110
109
109
108
107
107
106
106
105
104
104
103
102
101
100
100
99
98
97
97
96
95
95
93
92
91
91
89
89
88
88
87
86
85
85
86
86
86
85
84
84
85
84
85
85
85
85
85
86
86
86
86
86
86
87
87
87
88
89
88
89
90
90
91
91
91
92
93
93
94
94
94
93
94
94
95
95
95
95
95
94
94
94
94
93
94
94
94
94
94
93
93
92
92
92
93
93
94
94
95
95
96
96
97
97
97
97
98
98
98
98
97
97
96
95
95
95
94
94
93
93
92
92
91
90
90
89
89
88
89
89
88
87
87
87
87
88
88
88
87
87
87
87
87
88
88
88
88
89
88
89
89
90
90
90
91
91
92
93
93
93
93
94
94
94
94
94
94
93
93
93
93
92
91
91
91
91
90
89
89
89
89
88
88
88
86
86
87
87
86
86
86
86
86
86
87
87
87
88
88
89
89
90
91
91
91
92
92
93
93
93
93
94
93
94
94
94
95
95
95
95
96
95
95
96
95
95
95
95
95
94
93
92
92
91
91
91
90
90
89
89
87
88
88
86
86
86
87
87
88
87
88
88
88
89
90
90
91
92
93
93
93
94
95
94
95
94
94
93
93
92
92
91
89
89
87
86
86
85
83
82
81
80
79
79
78
77
77
76
76
76
75
76
75
75
76
76
76
76
76
76
76
77
76
77
76
75
75
75
74
74
73
73
73
72
72
71
71
71
72
71
70
70
70
70
69
69
68
68
67
67
66
66
65
65
65
66
65
66
66
66
66
66
67
67
67
68
68
68
68
68
68
68
68
68
69
69
69
69
69
70
69
70
70
70
71
71
73
74
74
76
77
78
79
81
82
83
85
86
87
88
89
90
91
91
91
92
93
92
93
93
93
92
92
92
92
92
92
92
93
93
93
93
94
94
94
95
95
96
96
97
98
97
98
99
99
99
100
100
101
102
102
102
102
101
101
101
100
100
100
100
100
100
99
99
99
99
98
98
98
98
98
98
98
98
99
98
99
99
99
99
100
99
99
100
100
101
101
102
101
101
100
99
99
97
95
92
89
86
82
78
73
67
60
54
47
40
31
24
16
7
-1
-8
-16
-22
-29
-34
-38
-41
-43
-44
-44
-43
-40
-36
-31
-25
-18
-10
-1
8
18
29
40
51
61
71
82
91
100
109
117
124
131
138
143
149
153
156
159
161
163
164
164
163
163
162
161
159
158
155
152
149
146
143
141
138
135
132
130
127
124
123
121
119
117
115
114
113
111
110
110
108
108
107
107
107
107
108
108
108
108
109
109
110
111
111
111
111
112
112
112
113
113
113
114
114
114
114
114
114
113
113
113
112
112
112
112
112
111
111
110
109
109
109
108
108
107
107
107
107
107
108
108
108
107
107
107
108
109
109
109
108
109
109
109
109
111
111
111
111
111
110
110
110
109
109
109
109
109
109
110
109
109
109
109
109
110
110
110
111
111
111
111
111
111
111
111
111
112
112
111
110
110
109
110
110
108
108
108
108
107
107
107
107
107
108
108
108
108
109
109
108
109
109
110
110
111
111
111
111
111
111
111
111
111
111
109
110
110
109
108
107
107
107
107
108
107
107
107
107
107
107
107
107
107
107
108
108
108
109
109
108
109
109
109
109
109
110
110
110
111
111
111
111
111
111
111
111
111
111
110
110
108
109
109
108
109
109
109
108
109
109
109
109
109
110
110
110
110
111
111
111
110
111
111
111
111
112
112
112
112
112
112
112
113
113
112
112
113
113
113
113
113
113
114
114
114
114
114
115
115
115
115
115
115
115
116
116
117
117
118
118
118
118
119
120
121
121
121
122
122
122
123
123
123
124
124
125
125
125
125
125
125
125
125
125
125
125
125
125
125
124
124
123
123
122
122
121
120
120
119
119
119
118
118
118
118
118
117
117
117
116
117
116
116
116
116
115
115
114
115
113
114
113
113
112
112
112
111
111
111
110
110
109
108
108
107
106
106
106
105
104
103
103
103
102
102
102
102
101
101
102
102
102
101
102
102
102
102
102
101
102
101
102
101
102
102
103
103
103
103
104
104
103
103
103
104
104
104
103
104
103
103
103
103
104
104
104
104
104
104
104
104
105
105
105
105
105
105
105
106
105
105
105
105
105
106
106
106
106
106
106
107
106
107
106
106
106
106
106
106
105
105
105
106
105
105
105
105
104
104
104
103
102
101
102
102
102
102
101
101
101
100
100
101
101
101
101
101
102
102
103
103
103
103
104
104
105
106
106
106
105
105
106
106
106
106
106
106
107
107
107
107
107
107
106
106
106
106
105
105
105
105
105
105
104
105
105
105
105
105
104
104
104
104
104
104
105
105
105
104
104
105
104
105
105
106
107
107
109
109
110
111
111
111
111
111
111
111
112
112
111
110
110
110
110
109
109
107
107
106
106
105
104
105
104
104
104
104
103
103
103
103
103
103
103
104
104
104
105
106
106
106
106
107
107
107
107
107
107
107
107
107
107
107
108
108
108
108
109
109
109
109
109
109
109
109
109
109
108
108
107
106
106
106
105
105
105
104
103
104
103
103
102
102
102
101
101
101
101
100
100
100
99
99
99
99
98
97
97
97
97
96
96
95
95
94
94
93
93
93
92
92
92
91
91
91
91
91
91
90
90
91
91
90
90
91
91
91
92
92
92
93
94
95
95
95
96
96
97
97
97
97
97
97
97
97
98
97
97
97
96
95
96
96
97
97
97
97
98
98
99
99
100
101
102
103
104
105
106
108
109
110
110
112
113
114
116
116
118
119
120
121
122
123
124
124
124
125
124
125
125
125
126
125
126
126
126
126
126
125
126
126
126
126
127
127
127
127
127
128
128
128
129
129
129
129
130
130
130
131
131
131
132
133
133
134
134
133
133
133
133
133
133
133
132
133
133
133
133
133
133
132
132
132
132
131
131
130
129
128
127
126
125
124
122
120
118
116
112
108
104
99
93
87
81
75
68
60
53
45
37
29
22
15
8
3
-2
-5
-9
-11
-12
-12
-10
-9
-4
0
7
13
21
30
39
48
58
68
80
89
100
110
119
128
137
145
152
159
165
171
175
180
183
186
188
190
191
192
192
192
192
191
190
187
186
183
181
179
176
174
171
168
165
163
160
159
156
154
153
151
149
148
146
144
144
142
140
140
139
138
137
137
136
136
135
135
135
135
134
134
134
134
133
134
134
134
134
134
134
134
134
135
135
134
134
133
133
133
134
133
134
134
134
133
134
134
134
134
134
133
133
133
133
133
132
132
131
131
131
131
130
129
129
129
128
128
128
128
128
128
128
128
128
127
127
126
127
127
127
127
128
128
128
128
128
128
128
127
128
128
128
128
128
127
128
128
128
129
130
130
131
131
131
132
132
133
133
133
133
133
133
133
133
132
132
132
131
131
131
131
130
129
129
129
129
129
128
127
126
126
126
125
125
124
124
124
123
123
123
122
122
121
121
121
120
120
120
119
119
119
120
120
120
119
119
120
119
120
121
121
122
121
122
122
123
123
123
123
123
123
123
123
124
123
123
123
123
123
123
123
123
123
123
123
124
124
123
124
124
125
126
126
126
127
127
127
128
128
129
130
131
130
131
131
130
130
130
130
130
130
129
129
129
129
128
127
127
127
127
126
126
126
126
125
126
126
126
127
126
126
126
125
125
124
124
123
123
123
123
122
122
122
121
121
121
120
120
121
120
121
121
120
120
120
120
119
120
121
120
121
121
121
121
121
122
122
122
123
124
123
124
124
124
125
125
125
125
125
125
125
125
124
123
124
122
122
121
120
120
119
118
118
117
116
114
113
112
112
112
110
110
109
109
109
108
108
107
106
105
104
103
103
102
101
101
100
100
99
99
99
98
97
97
96
96
95
94
93
93
93
92
92
90
89
88
88
88
87
87
86
86
85
85
86
85
85
84
84
83
84
84
83
83
83
82
82
81
82
82
82
82
82
82
82
82
82
82
82
82
82
83
83
83
83
82
83
83
83
84
84
84
85
85
86
87
87
87
89
89
90
90
92
92
92
93
93
94
95
95
96
96
97
97
96
97
97
97
97
97
97
96
97
96
96
96
95
95
94
94
95
95
94
94
94
94
94
95
94
94
94
94
94
94
94
94
94
94
94
94
95
95
96
96
96
97
97
98
98
98
98
100
100
101
101
101
101
102
102
102
102
102
102
102
103
102
102
101
102
102
101
101
102
102
101
102
101
101
102
102
103
104
104
106
106
106
107
107
107
108
108
109
108
108
107
107
106
107
106
106
106
106
106
106
105
105
104
105
105
105
105
105
105
105
106
105
106
106
106
106
106
106
106
106
106
106
106
106
106
106
106
105
104
104
105
104
104
104
105
104
105
105
105
105
106
106
106
106
106
107
107
107
106
106
107
106
106
106
106
106
105
105
105
104
104
104
104
104
104
104
104
102
102
102
102
101
101
102
101
102
102
101
101
101
101
101
100
99
99
98
98
97
96
96
95
95
94
94
94
94
94
94
94
93
94
94
93
93
93
93
93
93
93
92
92
91
91
91
91
91
90
90
90
90
90
91
90
90
89
90
90
89
90
90
90
90
90
90
91
91
91
91
92
92
93
92
93
93
94
94
95
95
96
96
96
97
98
98
99
100
101
101
102
103
104
105
106
107
107
109
110
110
111
111
112
113
114
115
116
117
118
118
119
120
121
122
122
122
123
124
125
125
125
125
126
125
124
124
124
124
124
124
123
123
122
122
121
121
121
120
122
121
121
121
122
122
122
122
123
125
125
126
126
126
127
128
128
129
129
129
130
130
130
131
131
131
132
131
132
133
134
134
134
135
136
136
136
137
136
136
135
134
134
133
131
129
127
125
122
119
116
112
108
103
98
91
85
78
71
63
56
49
41
33
25
18
12
6
2
-2
-5
-7
-7
-7
-6
-4
1
5
10
18
25
34
43
53
64
74
85
96
107
117
127
136
145
154
162
169
177
183
188
193
197
200
202
204
204
204
204
203
202
200
198
195
192
190
186
183
179
176
172
169
166
163
160
158
156
154
152
151
150
149
148
148
148
147
147
148
147
147
147
148
148
148
149
149
149
148
148
148
148
148
148
148
148
147
147
147
147
147
147
147
148
147
147
147
148
147
147
147
147
148
148
147
147
148
148
148
147
146
146
145
146
145
144
144
143
143
142
142
141
141
141
140
140
139
139
139
139
139
139
139
140
140
140
140
141
141
141
141
142
143
143
144
144
145
145
145
145
145
145
146
146
146
145
145
145
144
144
145
145
145
145
144
145
145
145
145
145
145
144
145
144
144
145
145
144
144
144
143
144
143
143
143
144
143
143
143
143
143
142
142
141
142
141
141
141
140
140
140
140
141
142
142
143
143
143
144
145
145
146
147
146
146
147
147
146
146
146
146
145
145
145
145
144
143
143
142
142
141
140
140
140
140
140
140
140
139
140
140
140
140
141
140
141
141
141
141
141
141
141
141
140
140
140
140
140
139
139
140
140
140
141
141
141
141
142
143
143
142
143
144
144
144
145
145
144
144
144
144
145
145
146
146
145
146
146
147
147
147
148
147
148
148
149
149
149
149
149
150
150
151
151
152
152
152
153
153
153
152
152
153
153
152
152
152
151
150
150
150
150
150
150
149
149
149
150
150
150
150
149
150
150
151
151
151
151
151
151
152
152
151
151
151
151
150
150
149
148
147
146
146
145
144
143
142
141
140
139
139
137
137
137
136
136
135
135
135
134
134
134
134
133
133
132
132
131
130
130
130
130
130
129
129
129
129
129
129
129
129
129
129
130
129
130
130
130
129
129
130
130
130
130
131
130
131
131
131
130
129
129
129
128
127
126
126
125
124
124
124
124
123
124
123
123
123
124
124
124
124
125
126
127
127
129
129
130
130
131
131
132
133
133
133
133
133
132
132
133
132
131
131
130
130
129
129
128
128
127
127
127
127
126
126
127
127
128
128
128
128
128
128
128
128
127
128
127
127
127
127
127
127
127
127
127
127
127
127
127
126
126
126
126
126
126
127
126
126
126
126
126
125
125
125
125
126
125
125
125
125
125
125
125
125
125
125
124
125
125
125
125
125
126
126
127
127
126
126
126
126
126
126
126
126
126
126
125
125
124
125
124
124
124
124
124
124
125
125
125
125
125
125
125
125
125
125
125
125
125
126
125
125
125
125
125
125
125
125
126
126
126
126
126
126
126
126
126
125
125
125
125
124
124
124
124
123
123
122
122
122
122
120
120
120
120
121
120
120
120
121
120
121
122
122
122
122
122
122
122
121
121
120
120
120
119
118
118
116
116
115
114
114
113
113
112
112
111
111
111
110
110
109
109
109
109
109
109
108
107
107
107
108
108
108
107
107
107
107
107
106
106
105
105
105
104
105
104
103
102
102
102
102
102
101
101
101
100
100
99
99
99
98
98
98
98
98
98
97
98
98
98
99
100
101
101
102
102
102
102
102
102
102
102
103
102
102
102
100
101
100
100
100
99
