# Simple Text Format
# Sampling Rate (Hz):= 1200.00
# Resolution:= 12
# Labels:= ECG	 II
# Age:=	52
# Gender:=	Masculino
-134
-134
-134
-135
-135
-135
-135
-135
-135
-135
-135
-136
-136
-136
-135
-135
-134
-134
-135
-135
-135
-136
-136
-135
-135
-135
-135
-135
-135
-135
-135
-135
-135
-135
-135
-134
-134
-134
-134
-135
-135
-136
-136
-136
-136
-137
-137
-137
-137
-137
-137
-137
-137
-137
-136
-136
-135
-135
-136
-136
-136
-136
-135
-135
-135
-135
-135
-134
-134
-134
-134
-135
-135
-135
-134
-134
-133
-133
-134
-134
-134
-134
-134
-134
-133
-133
-132
-131
-131
-131
-130
-129
-129
-128
-127
-126
-126
-126
-126
-126
-127
-127
-127
-127
-127
-128
-128
-128
-129
-129
-130
-130
-131
-131
-131
-130
-130
-131
-131
-131
-131
-131
-131
-131
-131
-132
-132
-131
-131
-132
-132
-132
-132
-132
-132
-132
-132
-132
-133
-134
-134
-135
-135
-136
-136
-137
-138
-138
-138
-138
-139
-139
-139
-140
-140
-140
-140
-141
-142
-143
-144
-144
-145
-145
-146
-146
-147
-147
-147
-148
-148
-149
-149
-149
-149
-148
-148
-148
-149
-149
-150
-150
-149
-149
-149
-149
-149
-148
-148
-148
-147
-147
-146
-145
-144
-143
-142
-141
-141
-141
-140
-140
-140
-140
-139
-139
-139
-138
-138
-138
-138
-138
-138
-138
-137
-136
-136
-135
-135
-135
-135
-134
-134
-133
-132
-132
-131
-130
-130
-129
-129
-128
-128
-127
-126
-125
-125
-125
-125
-126
-126
-126
-125
-125
-125
-125
-125
-125
-124
-124
-124
-124
-124
-123
-123
-122
-121
-122
-122
-122
-123
-123
-123
-123
-124
-124
-125
-125
-125
-125
-126
-127
-128
-128
-128
-128
-128
-129
-129
-130
-130
-130
-130
-130
-130
-130
-130
-129
-129
-128
-128
-127
-127
-126
-125
-123
-123
-122
-123
-123
-123
-123
-123
-122
-122
-122
-122
-122
-122
-123
-123
-123
-124
-124
-124
-124
-124
-124
-124
-125
-125
-125
-125
-125
-125
-125
-124
-123
-123
-123
-123
-123
-123
-123
-122
-121
-121
-121
-122
-123
-123
-124
-125
-125
-125
-126
-126
-127
-127
-127
-128
-128
-128
-128
-127
-126
-126
-125
-125
-125
-125
-124
-124
-124
-124
-124
-124
-124
-124
-124
-124
-124
-124
-124
-124
-124
-123
-124
-124
-125
-125
-125
-125
-125
-124
-124
-124
-123
-123
-123
-122
-122
-122
-121
-120
-119
-118
-118
-118
-118
-118
-119
-119
-119
-118
-119
-118
-118
-118
-119
-119
-120
-120
-120
-120
-119
-119
-120
-121
-121
-122
-122
-123
-123
-123
-123
-124
-123
-123
-123
-123
-123
-123
-123
-123
-122
-122
-122
-122
-122
-122
-122
-122
-121
-122
-122
-122
-121
-121
-121
-121
-121
-121
-121
-120
-120
-119
-119
-119
-120
-120
-120
-120
-120
-120
-120
-120
-120
-120
-120
-120
-120
-121
-121
-121
-120
-120
-121
-121
-121
-121
-121
-121
-121
-121
-121
-121
-120
-120
-119
-119
-118
-118
-117
-116
-114
-113
-113
-113
-113
-112
-111
-111
-110
-109
-108
-107
-106
-105
-105
-104
-103
-102
-101
-100
-98
-97
-96
-96
-95
-94
-94
-94
-93
-93
-93
-93
-92
-92
-92
-92
-92
-92
-92
-92
-91
-91
-91
-91
-91
-92
-91
-91
-91
-90
-90
-90
-89
-88
-88
-87
-87
-87
-86
-86
-85
-85
-85
-85
-85
-85
-86
-86
-86
-87
-87
-88
-88
-89
-90
-91
-91
-92
-92
-93
-93
-93
-94
-95
-96
-97
-98
-98
-99
-99
-100
-100
-100
-101
-101
-101
-102
-102
-102
-102
-102
-102
-103
-103
-104
-104
-105
-106
-106
-107
-108
-108
-109
-110
-111
-111
-112
-113
-113
-114
-114
-114
-115
-117
-118
-119
-121
-121
-122
-123
-124
-125
-126
-127
-128
-129
-130
-130
-131
-130
-130
-130
-130
-131
-131
-132
-132
-132
-132
-131
-131
-131
-130
-130
-130
-129
-129
-129
-129
-129
-129
-129
-129
-130
-131
-131
-132
-132
-132
-132
-132
-132
-132
-132
-131
-131
-130
-130
-129
-127
-125
-124
-123
-122
-121
-120
-119
-118
-116
-115
-114
-112
-111
-109
-108
-107
-105
-103
-101
-99
-95
-92
-89
-86
-83
-79
-75
-70
-65
-59
-53
-47
-40
-33
-26
-20
-14
-9
-4
-1
1
3
4
3
1
-1
-4
-9
-15
-22
-30
-39
-49
-60
-71
-82
-94
-105
-116
-126
-135
-144
-153
-161
-169
-176
-183
-188
-193
-197
-200
-203
-205
-206
-207
-207
-207
-206
-204
-202
-199
-196
-193
-191
-188
-184
-181
-177
-173
-170
-167
-163
-160
-156
-154
-151
-148
-146
-144
-142
-139
-137
-136
-136
-135
-135
-134
-134
-134
-133
-133
-133
-132
-132
-132
-131
-131
-131
-131
-130
-130
-129
-130
-130
-130
-131
-131
-131
-131
-131
-131
-131
-131
-131
-131
-132
-132
-132
-132
-132
-131
-131
-131
-132
-132
-132
-132
-132
-132
-131
-131
-130
-130
-129
-129
-129
-129
-128
-128
-127
-126
-125
-125
-125
-126
-126
-126
-126
-126
-126
-127
-127
-127
-127
-127
-128
-128
-128
-129
-128
-128
-128
-128
-129
-129
-130
-130
-130
-130
-130
-130
-130
-130
-130
-130
-130
-130
-129
-129
-128
-128
-127
-127
-127
-128
-128
-128
-128
-128
-128
-128
-127
-127
-127
-127
-127
-127
-127
-127
-127
-126
-126
-127
-127
-128
-129
-129
-129
-129
-129
-130
-130
-130
-130
-130
-130
-130
-129
-129
-128
-126
-125
-125
-125
-124
-123
-123
-122
-121
-121
-120
-120
-119
-119
-119
-119
-119
-119
-119
-119
-119
-119
-120
-121
-122
-123
-123
-124
-124
-125
-126
-127
-127
-127
-128
-128
-128
-128
-128
-128
-127
-127
-127
-127
-128
-128
-128
-128
-128
-128
-128
-128
-128
-128
-128
-129
-129
-129
-129
-129
-128
-128
-128
-128
-128
-128
-128
-128
-127
-127
-127
-127
-126
-125
-125
-125
-125
-124
-124
-124
-123
-123
-123
-124
-124
-125
-126
-126
-126
-127
-127
-128
-128
-128
-129
-129
-130
-130
-130
-129
-129
-129
-129
-130
-130
-130
-130
-130
-130
-131
-131
-131
-131
-131
-132
-132
-133
-133
-133
-133
-133
-133
-133
-134
-135
-135
-136
-136
-137
-137
-137
-137
-137
-137
-137
-137
-137
-137
-137
-137
-136
-136
-136
-136
-137
-137
-137
-136
-136
-136
-136
-136
-136
-135
-135
-135
-134
-134
-134
-133
-132
-131
-130
-130
-130
-129
-129
-129
-128
-127
-127
-126
-125
-124
-124
-124
-124
-123
-123
-122
-121
-120
-120
-120
-120
-120
-120
-120
-119
-119
-119
-118
-118
-117
-117
-117
-117
-116
-116
-115
-114
-113
-113
-114
-114
-114
-114
-114
-114
-114
-114
-113
-113
-113
-113
-113
-113
-113
-113
-113
-112
-112
-112
-113
-113
-114
-114
-114
-114
-115
-115
-116
-116
-116
-116
-117
-117
-117
-117
-117
-117
-117
-117
-118
-118
-119
-119
-119
-119
-119
-119
-119
-118
-118
-119
-119
-118
-118
-118
-117
-117
-116
-117
-117
-117
-117
-117
-117
-117
-117
-117
-117
-117
-117
-117
-117
-117
-117
-117
-116
-116
-116
-116
-116
-116
-116
-116
-116
-116
-116
-116
-115
-115
-115
-115
-115
-115
-114
-114
-114
-113
-112
-112
-113
-113
-113
-114
-114
-114
-114
-114
-114
-114
-114
-114
-114
-114
-114
-114
-113
-112
-112
-112
-112
-112
-112
-112
-112
-112
-112
-111
-111
-111
-110
-110
-110
-110
-110
-110
-109
-108
-108
-108
-109
-110
-110
-110
-110
-110
-110
-110
-110
-110
-110
-111
-111
-111
-111
-111
-111
-110
-109
-109
-109
-110
-109
-109
-109
-109
-109
-108
-108
-108
-107
-107
-107
-107
-107
-107
-107
-106
-106
-106
-107
-108
-108
-109
-110
-110
-111
-112
-112
-112
-113
-113
-114
-114
-115
-115
-114
-114
-113
-113
-113
-114
-114
-114
-113
-113
-112
-112
-111
-110
-110
-110
-110
-110
-110
-110
-109
-109
-108
-109
-109
-110
-110
-111
-111
-111
-111
-111
-111
-111
-111
-111
-111
-110
-110
-109
-108
-107
-106
-106
-106
-106
-106
-106
-105
-104
-104
-103
-102
-101
-100
-99
-99
-98
-97
-96
-95
-93
-92
-91
-90
-90
-90
-89
-89
-88
-88
-87
-87
-87
-86
-86
-86
-86
-86
-86
-85
-85
-84
-84
-84
-85
-85
-85
-85
-84
-84
-83
-83
-82
-81
-81
-80
-80
-79
-78
-77
-76
-75
-75
-75
-75
-75
-75
-75
-75
-75
-76
-76
-77
-77
-78
-79
-80
-80
-81
-82
-82
-83
-84
-85
-86
-87
-87
-88
-88
-88
-89
-89
-89
-90
-91
-91
-92
-92
-92
-92
-92
-93
-94
-95
-97
-98
-99
-99
-100
-101
-102
-103
-103
-104
-105
-106
-106
-107
-107
-108
-107
-108
-108
-109
-110
-111
-112
-112
-113
-113
-114
-114
-115
-115
-116
-116
-117
-117
-117
-117
-116
-116
-117
-117
-118
-119
-120
-120
-120
-121
-122
-122
-122
-122
-123
-123
-124
-124
-125
-125
-124
-124
-124
-125
-125
-125
-125
-125
-125
-124
-124
-123
-122
-122
-121
-121
-120
-119
-118
-117
-116
-115
-115
-114
-114
-113
-112
-111
-111
-110
-110
-109
-108
-107
-106
-105
-103
-102
-100
-98
-95
-93
-91
-89
-86
-83
-81
-77
-73
-69
-64
-59
-53
-47
-42
-36
-31
-25
-19
-14
-9
-6
-4
-4
-4
-5
-6
-9
-12
-16
-22
-29
-37
-46
-56
-66
-76
-87
-98
-108
-118
-127
-137
-146
-155
-163
-170
-176
-182
-187
-191
-194
-196
-198
-200
-201
-201
-201
-200
-199
-196
-194
-192
-190
-188
-185
-182
-179
-176
-172
-169
-166
-163
-159
-156
-153
-151
-148
-145
-143
-140
-138
-136
-134
-133
-132
-131
-130
-129
-128
-128
-127
-126
-126
-126
-126
-126
-126
-126
-125
-124
-124
-124
-125
-125
-125
-126
-126
-126
-126
-126
-127
-126
-126
-127
-127
-127
-127
-127
-126
-126
-126
-126
-127
-127
-128
-128
-128
-127
-127
-127
-127
-126
-126
-126
-126
-126
-125
-125
-124
-124
-123
-123
-123
-123
-123
-123
-123
-123
-122
-122
-122
-122
-122
-122
-122
-122
-122
-122
-121
-121
-121
-121
-122
-122
-123
-123
-124
-124
-124
-125
-125
-125
-125
-126
-126
-126
-126
-126
-126
-125
-125
-125
-126
-126
-126
-126
-126
-126
-126
-127
-127
-127
-127
-127
-128
-128
-128
-128
-128
-128
-128
-128
-129
-129
-130
-130
-130
-130
-129
-129
-128
-127
-127
-127
-126
-126
-125
-124
-123
-122
-122
-122
-122
-122
-123
-123
-123
-124
-124
-125
-126
-126
-126
-126
-127
-127
-127
-127
-126
-125
-124
-124
-124
-124
-124
-124
-123
-123
-122
-122
-122
-122
-122
-122
-122
-123
-123
-123
-123
-123
-123
-123
-124
-124
-124
-125
-125
-124
-124
-124
-124
-123
-123
-122
-122
-122
-121
-121
-120
-119
-119
-119
-119
-119
-120
-120
-120
-120
-121
-121
-122
-122
-123
-123
-124
-125
-125
-125
-125
-125
-125
-126
-127
-128
-129
-129
-129
-130
-130
-131
-131
-131
-131
-131
-130
-130
-130
-130
-130
-129
-129
-129
-130
-130
-130
-131
-131
-132
-132
-133
-134
-135
-136
-137
-138
-140
-141
-142
-142
-143
-143
-144
-145
-146
-146
-147
-147
-146
-146
-146
-145
-144
-143
-142
-142
-141
-140
-140
-139
-137
-137
-136
-136
-136
-137
-137
-137
-137
-137
-138
-138
-137
-137
-137
-137
-137
-137
-136
-135
-134
-134
-133
-133
-133
-132
-132
-131
-130
-129
-129
-128
-127
-126
-125
-125
-124
-123
-123
-122
-121
-120
-120
-120
-120
-120
-120
-119
-119
-119
-120
-120
-120
-120
-120
-121
-121
-121
-121
-120
-120
-120
-120
-121
-121
-121
-121
-120
-120
-119
-119
-119
-119
-118
-118
-118
-117
-117
-117
-116
-116
-115
-115
-116
-116
-117
-117
-117
-118
-118
-118
-118
-118
-119
-119
-119
-120
-120
-120
-119
-119
-119
-119
-120
-120
-121
-121
-121
-121
-121
-122
-122
-121
-121
-121
-122
-122
-122
-122
-121
-121
-120
-120
-120
-120
-121
-121
-121
-121
-121
-121
-121
-121
-121
-121
-121
-121
-121
-121
-121
-120
-120
-120
-120
-120
-121
-121
-121
-120
-120
-121
-120
-120
-120
-119
-119
-119
-119
-119
-118
-118
-117
-118
-118
-118
-119
-119
-119
-119
-120
-120
-120
-120
-120
-120
-120
-120
-120
-120
-119
-119
-118
-118
-118
-118
-118
-117
-117
-116
-116
-116
-116
-115
-115
-115
-114
-114
-114
-114
-113
-112
-112
-112
-112
-113
-113
-113
-114
-114
-114
-114
-114
-114
-114
-114
-115
-115
-115
-115
-115
-115
-115
-115
-116
-116
-116
-117
-117
-117
-117
-117
-117
-117
-117
-117
-117
-118
-118
-118
-118
-118
-118
-118
-118
-119
-119
-119
-120
-120
-120
-120
-120
-120
-119
-119
-119
-119
-118
-118
-117
-116
-115
-115
-116
-116
-116
-116
-116
-115
-115
-115
-115
-115
-115
-115
-116
-116
-116
-116
-116
-116
-116
-116
-116
-117
-117
-118
-118
-118
-118
-119
-119
-118
-118
-118
-118
-118
-118
-117
-116
-115
-115
-115
-115
-115
-115
-115
-115
-115
-115
-115
-115
-115
-115
-115
-116
-116
-116
-116
-116
-115
-114
-114
-114
-114
-114
-113
-112
-111
-110
-109
-108
-106
-105
-104
-103
-102
-100
-99
-98
-96
-95
-95
-95
-95
-94
-94
-94
-94
-94
-94
-94
-94
-94
-95
-95
-96
-96
-96
-96
-96
-96
-96
-96
-96
-95
-95
-94
-93
-93
-92
-91
-90
-89
-87
-86
-85
-84
-83
-81
-80
-78
-78
-78
-79
-79
-80
-80
-81
-82
-83
-84
-85
-86
-88
-90
-91
-93
-94
-95
-96
-97
-98
-100
-101
-101
-102
-103
-103
-104
-104
-104
-104
-104
-104
-104
-104
-104
-104
-104
-104
-104
-105
-106
-107
-108
-109
-110
-110
-111
-112
-113
-114
-114
-115
-116
-117
-118
-119
-120
-120
-121
-122
-123
-125
-126
-127
-128
-129
-130
-131
-132
-133
-134
-135
-136
-136
-136
-136
-135
-134
-134
-134
-134
-134
-134
-133
-133
-132
-132
-131
-131
-130
-130
-130
-129
-129
-129
-129
-128
-128
-127
-128
-128
-129
-129
-130
-130
-131
-131
-131
-132
-132
-132
-132
-133
-133
-133
-133
-132
-131
-130
-130
-129
-129
-128
-127
-126
-124
-122
-121
-119
-116
-114
-112
-110
-107
-105
-102
-99
-96
-92
-89
-86
-82
-77
-73
-67
-62
-56
-51
-45
-39
-33
-28
-24
-21
-18
-17
-16
-16
-17
-19
-23
-28
-34
-41
-49
-58
-68
-79
-90
-100
-111
-122
-133
-143
-153
-162
-169
-176
-183
-189
-195
-200
-204
-208
-210
-212
-213
-214
-214
-214
-213
-212
-211
-209
-207
-205
-202
-198
-195
-192
-189
-186
-182
-179
-175
-172
-169
-166
-163
-160
-158
-155
-153
-151
-149
-147
-146
-144
-143
-142
-142
-142
-142
-143
-143
-143
-143
-143
-143
-142
-142
-142
-143
-143
-143
-143
-142
-142
-141
-141
-140
-140
-140
-139
-139
-139
-139
-139
-139
-139
-139
-139
-138
-138
-138
-138
-138
-138
-138
-138
-139
-140
-140
-141
-141
-141
-141
-142
-142
-141
-141
-141
-142
-142
-142
-142
-141
-141
-141
-141
-141
-142
-142
-142
-142
-142
-142
-142
-142
-141
-141
-141
-141
-141
-141
-140
-140
-139
-138
-138
-138
-138
-138
-138
-138
-138
-138
-138
-138
-138
-138
-138
-139
-139
-139
-139
-139
-139
-139
-139
-140
-141
-141
-142
-142
-142
-142
-143
-143
-143
-143
-143
-143
-143
-143
-142
-141
-141
-140
-140
-140
-140
-140
-140
-140
-140
-139
-139
-139
-139
-139
-140
-141
-141
-141
-141
-141
-141
-141
-141
-142
-142
-143
-143
-143
-143
-143
-143
-143
-143
-142
-142
-142
-142
-141
-141
-140
-139
-139
-139
-139
-139
-140
-140
-140
-140
-140
-140
-140
-140
-140
-140
-139
-139
-139
-138
-137
-137
-136
-136
-137
-137
-138
-137
-137
-137
-137
-137
-137
-137
-137
-137
-138
-138
-139
-139
-139
-138
-138
-139
-140
-141
-141
-142
-143
-143
-144
-144
-145
-145
-145
-146
-146
-146
-147
-147
-146
-146
-146
-146
-146
-147
-147
-147
-147
-147
-146
-147
-147
-146
-146
-147
-147
-148
-148
-148
-148
-147
-147
-147
-148
-149
-150
-151
-152
-152
-153
-154
-155
-155
-156
-157
-158
-159
-160
-161
-161
-162
-162
-163
-164
-165
-165
-166
-166
-166
-166
-166
-166
-166
-166
-165
-165
-165
-164
-164
-163
-162
-161
-161
-161
-160
-160
-159
-158
-157
-156
-156
-155
-153
-153
-152
-151
-151
-150
-149
-148
-147
-146
-145
-145
-145
-145
-145
-145
-144
-144
-144
-144
-144
-143
-143
-143
-143
-143
-142
-142
-141
-140
-140
-141
-141
-141
-141
-141
-140
-140
-140
-140
-139
-139
-139
-139
-139
-139
-139
-139
-138
-138
-138
-139
-140
-140
-140
-141
-141
-141
-141
-142
-142
-142
-143
-143
-144
-144
-144
-144
-144
-144
-145
-146
-147
-148
-148
-149
-149
-149
-149
-148
-148
-148
-148
-148
-147
-147
-146
-145
-144
-143
-143
-143
-142
-142
-142
-141
-141
-141
-142
-142
-142
-142
-142
-142
-143
-143
-143
-143
-142
-142
-143
-143
-143
-143
-143
-143
-143
-143
-143
-143
-142
-141
-141
-141
-140
-140
-139
-139
-138
-137
-137
-137
-137
-137
-137
-137
-137
-137
-137
-137
-137
-137
-137
-137
-137
-138
-138
-137
-137
-137
-137
-137
-138
-138
-139
-139
-139
-139
-139
-139
-138
-139
-139
-139
-139
-139
-139
-139
-139
-139
-139
-140
-140
-141
-141
-141
-141
-141
-141
-141
-141
-140
-140
-140
-140
-139
-139
-138
-137
-137
-137
-137
-137
-138
-138
-138
-138
-138
-138
-138
-138
-139
-139
-140
-140
-140
-140
-140
-139
-139
-139
-139
-139
-139
-139
-139
-138
-138
-138
-138
-137
-137
-137
-137
-136
-136
-136
-135
-134
-134
-134
-135
-135
-135
-136
-136
-136
-137
-137
-137
-137
-137
-138
-138
-138
-138
-139
-138
-138
-138
-138
-139
-139
-140
-140
-140
-140
-140
-140
-140
-140
-140
-139
-139
-139
-139
-139
-138
-137
-137
-137
-137
-138
-138
-138
-138
-138
-138
-138
-138
-138
-139
-139
-139
-139
-140
-140
-139
-139
-139
-139
-140
-140
-140
-140
-140
-140
-139
-139
-139
-138
-138
-137
-137
-137
-137
-136
-136
-135
-134
-133
-133
-133
-132
-132
-132
-131
-131
-130
-130
-129
-128
-127
-127
-126
-125
-124
-123
-122
-121
-120
-120
-120
-120
-120
-119
-119
-119
-119
-118
-118
-118
-117
-117
-117
-117
-117
-116
-115
-114
-114
-114
-114
-114
-113
-113
-112
-112
-112
-111
-110
-109
-109
-108
-108
-107
-106
-105
-104
-103
-103
-103
-103
-103
-103
-103
-102
-102
-103
-103
-103
-103
-104
-104
-105
-106
-106
-107
-107
-108
-109
-110
-112
-113
-115
-116
-117
-118
-119
-120
-121
-122
-123
-124
-125
-126
-126
-126
-126
-127
-128
-129
-129
-130
-131
-131
-131
-131
-131
-132
-132
-133
-133
-134
-134
-134
-135
-135
-134
-135
-136
-137
-138
-139
-140
-142
-143
-144
-144
-145
-145
-146
-147
-148
-148
-149
-149
-148
-148
-147
-147
-148
-148
-148
-148
-148
-148
-147
-147
-147
-147
-147
-147
-148
-148
-148
-149
-149
-149
-149
-150
-151
-151
-152
-152
-153
-153
-153
-153
-153
-153
-153
-153
-153
-153
-152
-151
-150
-149
-148
-147
-147
-146
-145
-144
-143
-142
-140
-139
-138
-136
-134
-133
-131
-129
-128
-126
-124
-121
-118
-116
-114
-111
-108
-105
-101
-96
-91
-86
-80
-74
-68
-62
-56
-50
-44
-38
-33
-29
-26
-24
-24
-25
-26
-29
-33
-37
-43
-50
-58
-67
-77
-87
-98
-110
-121
-132
-143
-152
-162
-171
-180
-188
-195
-202
-208
-213
-218
-221
-224
-226
-228
-229
-230
-230
-229
-228
-226
-224
-222
-220
-217
-215
-213
-210
-207
-203
-200
-197
-194
-191
-188
-185
-182
-180
-177
-175
-172
-169
-167
-165
-164
-163
-162
-161
-160
-159
-159
-158
-158
-157
-157
-156
-156
-156
-156
-156
-155
-155
-155
-155
-155
-155
-156
-155
-155
-155
-155
-155
-155
-154
-154
-154
-153
-153
-153
-153
-153
-152
-152
-152
-152
-152
-152
-152
-152
-152
-152
-152
-152
-151
-151
-151
-151
-151
-151
-151
-150
-150
-149
-149
-150
-150
-150
-150
-150
-150
-150
-150
-150
-150
-150
-150
-150
-150
-150
-149
-149
-148
-147
-147
-148
-148
-148
-148
-148
-148
-148
-148
-148
-148
-148
-148
-149
-149
-149
-149
-149
-148
-148
-148
-149
-149
-149
-149
-149
-148
-148
-148
-148
-147
-147
-146
-146
-146
-145
-145
-144
-144
-143
-144
-144
-144
-145
-145
-145
-146
-146
-146
-147
-147
-147
-147
-147
-147
-147
-147
-146
-146
-145
-146
-146
-146
-146
-146
-146
-145
-145
-145
-145
-144
-144
-144
-143
-143
-143
-142
-142
-141
-140
-140
-140
-141
-141
-141
-141
-141
-141
-142
-142
-142
-142
-142
-143
-143
-143
-144
-143
-143
-142
-143
-143
-143
-143
-143
-143
-143
-142
-142
-142
-141
-141
-141
-140
-140
-140
-140
-139
-138
-138
-138
-138
-139
-139
-139
-140
-140
-140
-140
-140
-140
-140
-141
-142
-142
-143
-143
-143
-142
-142
-143
-144
-144
-145
-145
-146
-146
-146
-146
-146
-146
-146
-146
-146
-146
-146
-146
-145
-145
-144
-144
-145
-146
-146
-147
-147
-148
-148
-149
-149
-150
-150
-150
-151
-151
-152
-152
-152
-152
-152
-153
-153
-154
-155
-155
-156
-156
-157
-158
-158
-158
-159
-159
-160
-160
-161
-161
-161
-161
-161
-161
-161
-160
-160
-159
-158
-157
-156
-156
-155
-154
-153
-152
-151
-150
-149
-148
-146
-145
-144
-143
-143
-143
-143
-142
-142
-142
-141
-141
-141
-141
-141
-141
-141
-141
-141
-141
-140
-140
-140
-140
-140
-140
-139
-139
-139
-139
-138
-138
-137
-137
-136
-135
-135
-134
-133
-132
-131
-130
-129
-129
-129
-129
-129
-128
-128
-128
-128
-128
-129
-129
-129
-129
-130
-130
-131
-131
-131
-131
-131
-132
-133
-133
-134
-135
-135
-136
-136
-136
-137
-137
-137
-138
-138
-139
-139
-139
-139
-139
-139
-139
-140
-141
-141
-141
-141
-141
-141
-141
-141
-140
-139
-138
-138
-137
-137
-136
-135
-134
-133
-133
-132
-132
-132
-132
-132
-132
-132
-132
-133
-133
-133
-134
-134
-135
-135
-136
-136
-136
-136
-136
-137
-137
-138
-138
-138
-138
-137
-137
-137
-136
-135
-134
-134
-133
-133
-132
-132
-130
-130
-130
-130
-130
-130
-130
-130
-130
-130
-130
-130
-130
-130
-130
-130
-130
-130
-130
-130
-129
-129
-129
-129
-130
-130
-130
-130
-129
-129
-130
-130
-130
-130
-130
-130
-131
-131
-131
-131
-130
-130
-130
-131
-131
-131
-132
-132
-132
-131
-131
-131
-131
-131
-131
-131
-131
-131
-130
-130
-129
-129
-129
-129
-130
-130
-130
-130
-130
-129
-129
-129
-128
-128
-128
-128
-127
-127
-127
-127
-126
-125
-125
-125
-126
-126
-126
-126
-126
-127
-127
-127
-127
-127
-127
-127
-127
-127
-127
-127
-126
-126
-126
-127
-128
-128
-129
-129
-129
-129
-130
-130
-130
-130
-130
-130
-131
-130
-130
-130
-129
-128
-128
-128
-128
-128
-128
-128
-127
-127
-127
-126
-126
-126
-126
-127
-127
-127
-128
-127
-127
-127
-128
-128
-129
-130
-130
-130
-130
-130
-130
-130
-130
-129
-129
-128
-128
-127
-127
-126
-124
-123
-122
-122
-121
-121
-120
-119
-118
-118
-117
-116
-115
-114
-113
-113
-113
-112
-112
-111
-111
-110
-110
-111
-112
-112
-112
-112
-112
-113
-113
-113
-113
-113
-113
-113
-113
-112
-112
-111
-109
-108
-107
-106
-106
-105
-104
-103
-102
-101
-100
-98
-97
-96
-95
-94
-93
-92
-91
-90
-88
-88
-87
-88
-88
-88
-88
-89
-89
-90
-91
-92
-93
-94
-95
-97
-98
-100
-101
-103
-104
-105
-106
-108
-110
-111
-112
-113
-114
-115
-115
-116
-116
-116
-116
-116
-116
-116
-116
-115
-115
-115
-115
-116
-117
-118
-119
-120
-121
-122
-124
-126
-127
-128
-130
-132
-134
-135
-137
-138
-138
-139
-140
-141
-142
-143
-143
-144
-144
-144
-144
-144
-143
-143
-143
-144
-144
-143
-143
-143
-142
-142
-142
-143
-143
-144
-144
-144
-144
-144
-145
-145
-145
-145
-145
-146
-146
-146
-146
-145
-144
-144
-144
-144
-145
-145
-145
-145
-145
-145
-144
-144
-144
-143
-143
-143
-143
-143
-142
-141
-140
-140
-139
-139
-139
-138
-137
-136
-135
-134
-132
-131
-128
-126
-124
-121
-118
-115
-112
-108
-104
-100
-96
-92
-87
-82
-77
-71
-65
-59
-53
-47
-42
-37
-33
-30
-28
-26
-26
-26
-27
-29
-33
-38
-44
-51
-59
-68
-78
-89
-100
-111
-122
-133
-144
-155
-165
-174
-182
-189
-195
-201
-207
-213
-217
-220
-223
-226
-227
-229
-229
-229
-229
-228
-227
-226
-224
-222
-220
-217
-214
-210
-207
-205
-202
-199
-196
-193
-190
-187
-184
-181
-178
-175
-173
-171
-169
-168
-166
-165
-163
-162
-161
-161
-160
-160
-160
-159
-159
-158
-158
-158
-157
-157
-157
-157
-157
-156
-156
-156
-155
-155
-155
-156
-156
-157
-157
-158
-158
-158
-159
-159
-159
-159
-159
-159
-159
-159
-159
-158
-157
-157
-156
-156
-156
-156
-155
-155
-155
-155
-154
-154
-153
-153
-153
-153
-153
-153
-153
-153
-152
-152
-153
-153
-154
-154
-154
-155
-155
-155
-155
-155
-155
-155
-155
-155
-156
-156
-156
-155
-155
-154
-154
-155
-155
-156
-156
-157
-157
-157
-158
-158
-158
-158
-158
-159
-159
-159
-159
-159
-159
-159
-159
-160
-161
-161
-161
-162
-162
-162
-162
-163
-162
-162
-162
-162
-162
-162
-162
-161
-160
-160
-159
-159
-159
-159
-159
-158
-158
-158
-157
-157
-156
-156
-156
-155
-155
-155
-154
-154
-153
-152
-153
-153
-154
-154
-154
-154
-154
-154
-154
-155
-154
-154
-154
-155
-155
-155
-155
-155
-155
-155
-155
-156
-156
-157
-157
-157
-157
-157
-157
-157
-157
-157
-157
-157
-157
-156
-156
-155
-154
-153
-153
-154
-154
-154
-154
-154
-154
-154
-154
-155
-155
-155
-156
-156
-157
-157
-158
-158
-158
-158
-159
-160
-161
-161
-162
-162
-163
-163
-163
-163
-163
-163
-163
-163
-164
-163
-163
-163
-162
-162
-162
-162
-162
-163
-163
-163
-163
-163
-163
-163
-163
-164
-164
-165
-165
-166
-166
-167
-167
-168
-169
-170
-171
-171
-172
-173
-173
-174
-174
-175
-175
-175
-176
-176
-176
-177
-177
-176
-176
-176
-176
-177
-177
-178
-178
-178
-178
-179
-179
-180
-180
-180
-180
-180
-180
-179
-179
-179
-178
-177
-177
-177
-177
-177
-177
-177
-177
-177
-177
-176
-176
-175
-175
-175
-175
-174
-174
-173
-171
-171
-170
-170
-170
-169
-169
-168
-167
-167
-166
-165
-164
-163
-163
-163
-163
-163
-162
-162
-161
-161
-161
-161
-161
-161
-161
-161
-161
-161
-161
-161
-161
-161
-161
-161
-161
-160
-160
-160
-159
-158
-158
-159
-159
-159
-159
-160
-160
-160
-161
-161
-161
-161
-161
-162
-162
-162
-162
-162
-162
-162
-162
-163
-164
-164
-164
-165
-165
-165
-165
-165
-165
-165
-165
-165
-165
-165
-165
-165
-164
-164
-165
-165
-166
-166
-167
-167
-167
-168
-168
-169
-169
-169
-169
-169
-169
-169
-169
-169
-168
-168
-168
-169
-169
-169
-169
-169
-169
-169
-169
-169
-169
-169
-169
-169
-169
-168
-168
-167
-166
-166
-166
-166
-166
-166
-166
-165
-165
-165
-165
-165
-165
-165
-165
-165
-166
-166
-166
-166
-165
-165
-166
-166
-167
-167
-168
-168
-168
-168
-168
-167
-167
-166
-166
-166
-165
-165
-164
-163
-162
-162
-162
-161
-161
-161
-161
-160
-160
-159
-160
-160
-160
-160
-160
-161
-161
-161
-162
-162
-162
-162
-163
-164
-165
-166
-167
-167
-167
-168
-168
-168
-168
-168
-168
-168
-169
-169
-169
-168
-167
-167
-168
-168
-169
-169
-169
-169
-169
-169
-169
-168
-168
-167
-167
-166
-166
-165
-165
-164
-162
-162
-161
-161
-162
-162
-162
-163
-163
-163
-164
-164
-164
-165
-166
-167
-168
-169
-169
-170
-170
-170
-170
-171
-172
-172
-172
-172
-172
-172
-171
-171
-170
-169
-168
-168
-167
-166
-166
-165
-164
-164
-164
-164
-164
-164
-165
-165
-165
-166
-166
-167
-167
-168
-168
-169
-170
-170
-170
-170
-170
-170
-171
-171
-172
-172
-172
-172
-172
-172
-173
-173
-173
-173
-173
-174
-174
-174
-173
-172
-171
-171
-170
-170
-170
-170
-170
-169
-169
-168
-167
-166
-165
-164
-163
-162
-161
-160
-159
-157
-156
-154
-153
-153
-152
-152
-151
-150
-149
-148
-148
-147
-147
-146
-146
-146
-145
-145
-144
-143
-142
-142
-142
-142
-143
-143
-143
-144
-143
-143
-143
-143
-142
-142
-142
-142
-142
-141
-141
-140
-139
-139
-138
-138
-138
-137
-137
-136
-136
-135
-135
-135
-135
-135
-135
-136
-136
-137
-137
-138
-138
-139
-140
-142
-144
-145
-146
-148
-149
-150
-151
-152
-153
-154
-155
-156
-157
-158
-158
-159
-158
-159
-159
-160
-161
-161
-161
-161
-161
-161
-162
-162
-162
-162
-163
-163
-163
-164
-164
-164
-164
-165
-166
-167
-168
-169
-170
-171
-171
-172
-173
-174
-174
-175
-176
-177
-177
-178
-178
-178
-178
-178
-179
-180
-182
-182
-183
-183
-183
-183
-184
-184
-185
-185
-186
-186
-187
-187
-187
-186
-186
-185
-186
-186
-187
-187
-188
-188
-189
-189
-189
-189
-189
-189
-189
-190
-190
-190
-189
-189
-188
-187
-187
-187
-187
-186
-186
-185
-184
-183
-182
-180
-179
-177
-176
-174
-173
-171
-169
-167
-165
-163
-161
-159
-157
-154
-152
-149
-146
-142
-139
-135
-130
-124
-119
-113
-107
-101
-95
-88
-82
-76
-71
-66
-63
-61
-59
-59
-59
-61
-64
-67
-71
-77
-84
-93
-102
-112
-122
-133
-143
-154
-165
-177
-188
-198
-208
-217
-225
-233
-240
-246
-252
-257
-261
-265
-267
-269
-270
-271
-270
-270
-269
-268
-267
-265
-263
-260
-257
-254
-251
-248
-244
-240
-236
-232
-229
-225
-222
-218
-215
-212
-209
-207
-206
-204
-202
-201
-200
-199
-198
-197
-197
-197
-197
-197
-197
-197
-196
-196
-195
-195
-195
-196
-196
-196
-196
-196
-196
-196
-196
-196
-195
-195
-195
-195
-195
-194
-194
-193
-192
-191
-191
-191
-191
-191
-191
-191
-191
-190
-190
-190
-189
-189
-189
-189
-189
-189
-189
-189
-189
-188
-189
-190
-190
-191
-191
-192
-192
-193
-193
-194
-194
-194
-194
-194
-194
-194
-194
-193
-192
-191
-191
-192
-192
-192
-192
-192
-192
-192
-192
-192
-192
-192
-192
-192
-193
-193
-193
-193
-193
-193
-193
-194
-194
-195
-195
-195
-194
-194
-194
-194
-194
-193
-193
-193
-193
-192
-192
-191
-191
-190
-190
-191
-191
-192
-192
-192
-192
-192
-193
-193
-193
-193
-193
-193
-193
-193
-193
-193
-192
-192
-192
-192
-192
-192
-192
-192
-192
-192
-192
-192
-191
-191
-191
-190
-190
-190
-189
-189
-188
-187
-187
-188
-188
-188
-188
-188
-188
-188
-188
-188
-188
-188
-189
-189
-190
-190
-190
-189
-189
-189
-189
-189
-189
-189
-189
-189
-188
-188
-188
-187
-187
-186
-186
-186
-185
-185
-185
-185
-185
-185
-185
-186
-187
-187
-188
-188
-188
-188
-188
-189
-188
-189
-189
-189
-189
-190
-190
-189
-189
-188
-189
-189
-190
-190
-191
-191
-191
-192
-193
-193
-193
-193
-194
-194
-194
-195
-195
-195
-194
-194
-194
-194
-195
-195
-195
-195
-195
-195
-195
-195
-195
-196
-196
-197
-197
-197
-197
-197
-197
-197
-197
-198
-199
-200
-201
-202
-202
-203
-204
-204
-205
-205
-206
-207
-208
-209
-209
-209
-209
-209
-210
-210
-210
-210
-210
-210
-210
-209
-208
-208
-206
-206
-205
-204
-203
-202
-201
-199
-198
-197
-196
-196
-196
-196
-196
-195
-195
-195
-195
-195
-194
-193
-193
-193
-192
-192
-192
-191
-190
-189
-189
-189
-188
-188
-188
-187
-187
-186
-186
-185
-184
-184
-184
-183
-183
-182
-182
-181
-180
-180
-180
-180
-180
-180
-180
-180
-180
-180
-180
-180
-180
-180
-181
-181
-181
-182
-182
-181
-181
-181
-181
-181
-181
-182
-182
-182
-182
-182
-182
-182
-182
-182
-182
-183
-183
-183
-184
-183
-183
-183
-184
-185
-186
-186
-187
-187
-187
-187
-187
-187
-187
-186
-186
-186
-186
-186
-186
-185
-184
-184
-184
-184
-184
-184
-184
-185
-184
-184
-184
-184
-184
-184
-184
-184
-184
-183
-183
-182
-181
-180
-180
-180
-180
-180
-180
-179
-179
-178
-178
-177
-176
-176
-176
-176
-176
-176
-176
-176
-175
-175
-176
-176
-177
-178
-178
-179
-179
-180
-180
-180
-180
-180
-181
-181
-181
-181
-180
-180
-179
-179
-179
-179
-179
-179
-179
-179
-179
-179
-178
-178
-178
-177
-177
-177
-176
-176
-175
-175
-174
-173
-173
-173
-174
-174
-174
-175
-175
-175
-176
-176
-177
-177
-178
-179
-179
-180
-180
-180
-179
-179
-180
-180
-181
-181
-181
-181
-181
-181
-180
-180
-179
-179
-178
-178
-177
-177
-176
-175
-174
-174
-174
-174
-174
-174
-174
-174
-174
-174
-174
-174
-174
-175
-175
-175
-176
-176
-176
-176
-176
-176
-176
-176
-177
-177
-177
-176
-176
-176
-175
-175
-175
-174
-174
-174
-173
-173
-173
-172
-172
-171
-172
-172
-173
-173
-174
-174
-174
-175
-175
-176
-176
-177
-177
-178
-178
-178
-177
-177
-176
-176
-176
-177
-177
-177
-177
-177
-176
-176
-176
-176
-176
-176
-176
-176
-176
-176
-176
-176
-175
-175
-175
-176
-176
-176
-176
-176
-176
-176
-175
-175
-174
-174
-173
-173
-172
-171
-170
-169
-167
-166
-165
-165
-164
-163
-162
-161
-160
-159
-159
-158
-157
-156
-155
-155
-154
-154
-153
-153
-152
-151
-151
-152
-152
-152
-152
-152
-151
-151
-151
-151
-151
-150
-150
-150
-149
-149
-148
-147
-146
-145
-144
-144
-144
-143
-143
-142
-141
-141
-140
-140
-139
-139
-138
-138
-138
-138
-138
-138
-138
-138
-139
-141
-142
-143
-144
-146
-147
-148
-149
-151
-151
-152
-154
-155
-156
-157
-157
-158
-158
-158
-159
-160
-161
-161
-161
-162
-162
-162
-163
-164
-164
-165
-166
-167
-167
-168
-169
-169
-169
-170
-171
-172
-174
-175
-176
-177
-178
-178
-179
-179
-179
-180
-180
-180
-180
-180
-180
-180
-179
-179
-179
-180
-181
-181
-181
-182
-182
-182
-183
-183
-183
-183
-184
-184
-185
-185
-185
-185
-184
-184
-184
-185
-185
-185
-185
-185
-185
-185
-184
-184
-183
-183
-183
-183
-183
-183
-182
-181
-180
-180
-180
-180
-180
-179
-179
-178
-177
-177
-176
-175
-174
-173
-172
-171
-169
-168
-167
-165
-163
-162
-160
-159
-158
-156
-154
-152
-149
-147
-144
-141
-137
-133
-129
-125
-120
-114
-108
-102
-95
-89
-83
-78
-73
-69
-66
-64
-62
-62
-63
-64
-67
-70
-75
-81
-88
-96
-105
-115
-124
-135
-146
-157
-168
-179
-189
-199
-208
-216
-223
-230
-236
-242
-247
-251
-254
-257
-259
-260
-260
-260
-260
-260
-259
-258
-257
-255
-252
-250
-247
-244
-241
-237
-234
-230
-227
-223
-220
-216
-212
-208
-206
-203
-200
-198
-196
-194
-192
-191
-190
-188
-187
-186
-185
-185
-185
-184
-184
-184
-183
-183
-183
-184
-184
-184
-184
-184
-184
-184
-185
-185
-184
-184
-184
-185
-185
-185
-185
-185
-185
-185
-185
-186
-186
-187
-187
-188
-188
-188
-188
-188
-187
-187
-186
-186
-186
-185
-185
-184
-183
-182
-181
-181
-181
-181
-180
-180
-180
-180
-181
-181
-181
-181
-181
-181
-181
-181
-182
-181
-181
-181
-181
-181
-181
-181
-181
-181
-180
-179
-179
-178
-177
-177
-177
-177
-177
-176
-176
-175
-175
-174
-175
-176
-176
-177
-178
-178
-179
-179
-180
-180
-179
-179
-179
-179
-180
-180
-180
-180
-179
-178
-178
-178
-177
-177
-177
-177
-177
-177
-177
-176
-176
-176
-176
-176
-176
-176
-176
-176
-175
-175
-176
-176
-177
-178
-178
-178
-178
-178
-179
-179
-179
-179
-179
-179
-178
-178
-177
-176
-175
-175
-174
-174
-173
-173
-172
-172
-171
-171
-170
-170
-169
-169
-169
-169
-169
-169
-169
-168
-168
-168
-168
-169
-169
-170
-170
-170
-170
-170
-170
-169
-169
-169
-169
-168
-168
-168
-167
-166
-166
-165
-165
-166
-166
-167
-167
-167
-167
-168
-168
-169
-169
-170
-170
-171
-171
-172
-172
-172
-172
-172
-173
-174
-175
-175
-175
-175
-175
-175
-175
-176
-176
-176
-177
-177
-177
-177
-177
-177
-177
-177
-177
-178
-178
-179
-179
-179
-179
-179
-180
-180
-179
-179
-180
-180
-180
-180
-179
-179
-178
-178
-179
-179
-180
-180
-181
-181
-181
-181
-181
-181
-181
-181
-181
-181
-181
-180
-180
-180
-179
-178
-178
-179
-179
-179
-179
-179
-179
-179
-178
-178
-178
-177
-178
-178
-177
-177
-177
-176
-175
-175
-175
-175
-175
-175
-175
-174
-174
-173
-173
-173
-172
-171
-171
-170
-170
-169
-169
-167
-166
-165
-164
-164
-163
-163
-163
-162
-161
-161
-160
-159
-158
-157
-157
-157
-157
-157
-156
-156
-156
-155
-156
-156
-157
-157
-158
-158
-158
-158
-158
-159
-159
-159
-159
-159
-159
-158
-158
-158
-157
-156
-156
-156
-157
-157
-157
-157
-157
-157
-157
-157
-156
-157
-157
-158
-158
-158
-158
-158
-158
-158
-158
-159
-159
-160
-160
-160
-160
-160
-160
-160
-160
-159
-159
-159
-158
-158
-157
-156
-155
-154
-154
-153
-153
-153
-153
-152
-152
-152
-152
-152
-151
-152
-152
-152
-153
-153
-153
-153
-152
-152
-153
-153
-154
-154
-153
-153
-153
-152
-152
-151
-150
-150
-149
-149
-148
-148
-147
-146
-145
-144
-144
-144
-145
-145
-146
-146
-146
-146
-146
-146
-146
-146
-146
-147
-147
-147
-147
-146
-146
-145
-145
-146
-146
-146
-146
-146
-146
-146
-147
-147
-146
-146
-146
-146
-146
-146
-145
-145
-144
-144
-144
-144
-144
-144
-144
-144
-144
-143
-143
-143
-142
-142
-142
-142
-142
-141
-141
-140
-139
-139
-139
-139
-139
-140
-140
-140
-140
-140
-141
-141
-141
-141
-141
-142
-142
-142
-143
-142
-142
-142
-142
-142
-143
-143
-143
-143
-143
-142
-142
-141
-140
-140
-140
-140
-140
-139
-139
-139
-138
-138
-138
-138
-139
-139
-139
-140
-140
-140
-140
-140
-140
-140
-140
-140
-140
-140
-139
-138
-137
-136
-136
-136
-136
-136
-137
-137
-137
-136
-136
-136
-136
-136
-136
-137
-137
-137
-138
-138
-138
-138
-138
-138
-138
-138
-138
-138
-137
-137
-137
-137
-136
-135
-134
-134
-133
-132
-131
-129
-128
-127
-126
-125
-124
-124
-124
-123
-122
-121
-120
-119
-118
-117
-117
-117
-116
-115
-114
-113
-112
-111
-111
-111
-111
-110
-110
-110
-109
-109
-108
-108
-107
-106
-106
-105
-104
-104
-103
-102
-100
-99
-99
-98
-97
-97
-97
-96
-95
-95
-94
-94
-93
-92
-92
-92
-93
-93
-93
-93
-93
-94
-95
-96
-98
-99
-101
-103
-104
-106
-107
-109
-109
-110
-112
-112
-113
-114
-115
-115
-115
-115
-116
-116
-116
-116
-116
-116
-116
-117
-117
-117
-117
-118
-119
-120
-120
-121
-122
-122
-123
-124
-125
-127
-128
-129
-131
-132
-132
-133
-134
-135
-136
-136
-137
-138
-138
-138
-139
-139
-138
-138
-139
-140
-140
-141
-141
-142
-142
-143
-143
-143
-143
-143
-143
-143
-143
-142
-142
-142
-141
-141
-141
-141
-141
-142
-142
-142
-142
-142
-142
-142
-141
-141
-141
-142
-142
-141
-141
-141
-140
-139
-139
-139
-139
-138
-138
-137
-137
-136
-135
-134
-132
-131
-130
-129
-128
-126
-125
-123
-121
-119
-117
-116
-114
-113
-111
-108
-105
-102
-100
-96
-93
-89
-86
-82
-77
-71
-66
-59
-53
-47
-42
-37
-32
-29
-26
-24
-22
-22
-23
-25
-28
-32
-37
-43
-50
-58
-67
-76
-86
-97
-108
-120
-131
-142
-152
-161
-170
-178
-185
-191
-197
-202
-206
-210
-212
-214
-216
-216
-216
-216
-216
-215
-214
-213
-211
-209
-206
-203
-201
-198
-195
-191
-188
-185
-182
-178
-175
-171
-168
-164
-162
-159
-157
-155
-153
-151
-149
-148
-147
-146
-144
-144
-143
-143
-143
-143
-143
-142
-142
-142
-142
-142
-142
-143
-143
-143
-143
-142
-142
-141
-140
-140
-139
-139
-138
-138
-137
-136
-135
-134
-134
-134
-134
-134
-134
-134
-134
-134
-134
-134
-134
-134
-135
-135
-135
-135
-135
-134
-134
-133
-134
-134
-134
-134
-134
-134
-134
-133
-133
-133
-132
-132
-132
-132
-132
-132
-131
-131
-130
-130
-130
-130
-131
-131
-132
-132
-132
-132
-132
-132
-132
-132
-132
-132
-132
-132
-131
-131
-130
-129
-129
-129
-128
-128
-128
-128
-127
-127
-127
-127
-127
-127
-127
-127
-128
-128
-129
-129
-129
-130
-131
-132
-132
-133
-134
-134
-135
-135
-135
-135
-134
-134
-133
-133
-132
-131
-130
-129
-128
-127
-127
-127
-126
-126
-126
-126
-126
-126
-126
-127
-127
-127
-127
-127
-128
-128
-128
-128
-128
-128
-128
-128
-128
-128
-128
-127
-127
-126
-126
-125
-125
-125
-125
-125
-125
-124
-124
-123
-123
-123
-123
-123
-124
-124
-125
-125
-125
-125
-126
-125
-125
-125
-125
-125
-125
-124
-124
-124
-123
-123
-123
-124
-124
-124
-125
-125
-124
-124
-125
-125
-124
-124
-125
-125
-125
-125
-125
-125
-124
-124
-124
-125
-125
-125
-125
-125
-125
-126
-126
-126
-126
-127
-127
-128
-129
-129
-129
-129
-129
-129
-130
-131
-131
-132
-132
-132
-132
-132
-133
-133
-132
-132
-132
-132
-132
-132
-132
-132
-131
-131
-131
-132
-132
-133
-134
-134
-135
-136
-137
-137
-138
-138
-139
-139
-140
-140
-140
-140
-139
-139
-139
-139
-140
-140
-140
-139
-139
-139
-139
-139
-138
-138
-138
-138
-137
-137
-137
-136
-136
-135
-135
-136
-135
-135
-135
-134
-134
-133
-132
-132
-131
-130
-130
-130
-129
-129
-128
-127
-126
-126
-126
-126
-126
-126
-126
-125
-125
-124
-124
-123
-122
-121
-121
-120
-119
-118
-117
-116
-115
-114
-113
-113
-112
-112
-112
-112
-112
-112
-112
-112
-112
-113
-113
-114
-114
-115
-115
-115
-115
-115
-116
-117
-117
-118
-118
-118
-118
-118
-118
-117
-116
-116
-115
-115
-115
-114
-114
-114
-113
-113
-113
-113
-113
-114
-114
-115
-116
-116
-117
-117
-118
-118
-119
-119
-120
-120
-120
-119
-119
-118
-119
-119
-119
-119
-119
-119
-118
-118
-118
-117
-117
-116
-116
-116
-115
-115
-115
-114
-114
-113
-113
-113
-113
-114
-114
-114
-114
-114
-114
-114
-113
-114
-114
-114
-114
-114
-114
-114
-113
-113
-114
-114
-114
-115
-115
-115
-115
-115
-115
-115
-114
-114
-114
-113
-113
-113
-112
-111
-110
-110
-109
-110
-110
-110
-110
-110
-110
-109
-109
-109
-108
-108
-109
-109
-109
-109
-109
-109
-108
-108
-108
-109
-109
-109
-110
-110
-109
-110
-110
-110
-110
-110
-110
-111
-111
-111
-111
-110
-109
-109
-110
-110
-111
-112
-112
-112
-112
-112
-113
-113
-113
-113
-113
-114
-113
-113
-113
-113
-112
-112
-113
-113
-114
-114
-114
-114
-114
-114
-114
-114
-113
-113
-113
-113
-114
-114
-114
-113
-113
-113
-113
-114
-114
-114
-115
-115
-114
-114
-114
-113
-112
-112
-112
-112
-111
-111
-110
-109
-108
-108
-107
-107
-107
-107
-107
-107
-107
-107
-108
-108
-108
-108
-109
-109
-109
-109
-110
-110
-109
-109
-110
-111
-111
-111
-112
-112
-112
-112
-112
-111
-111
-110
-110
-110
-110
-109
-108
-107
-106
-105
-104
-104
-103
-102
-100
-99
-98
-97
-96
-95
-94
-93
-93
-92
-91
-90
-90
-89
-88
-88
-88
-89
-89
-90
-90
-90
-91
-91
-91
-91
-90
-90
-91
-90
-90
-89
-89
-88
-87
-86
-86
-85
-85
-84
-84
-83
-83
-82
-82
-81
-80
-79
-79
-79
-78
-77
-77
-76
-75
-74
-74
-74
-74
-74
-75
-75
-75
-75
-76
-76
-77
-78
-79
-80
-81
-82
-83
-84
-85
-86
-87
-89
-90
-92
-93
-94
-94
-95
-96
-96
-96
-96
-97
-97
-97
-97
-97
-97
-97
-97
-98
-99
-100
-101
-102
-102
-103
-104
-105
-106
-106
-107
-109
-110
-111
-112
-113
-113
-114
-114
-115
-116
-117
-117
-118
-118
-118
-118
-119
-119
-118
-118
-118
-118
-118
-118
-118
-117
-117
-117
-117
-118
-118
-119
-120
-121
-121
-122
-123
-123
-124
-124
-125
-125
-126
-125
-125
-125
-124
-124
-124
-125
-125
-125
-124
-124
-123
-122
-122
-121
-120
-119
-119
-118
-118
-117
-116
-115
-114
-114
-113
-113
-113
-112
-112
-111
-109
-108
-107
-105
-102
-100
-98
-96
-92
-89
-85
-81
-76
-72
-67
-61
-56
-50
-43
-37
-30
-24
-18
-12
-6
-2
0
3
4
5
4
3
1
-1
-7
-13
-21
-29
-39
-49
-59
-70
-82
-93
-104
-116
-127
-137
-147
-155
-163
-170
-175
-181
-186
-191
-195
-198
-201
-202
-203
-204
-204
-203
-201
-200
-198
-196
-193
-190
-187
-183
-179
-176
-172
-169
-166
-162
-159
-156
-152
-149
-146
-143
-140
-138
-136
-135
-133
-131
-130
-129
-127
-127
-126
-126
-126
-126
-126
-126
-126
-126
-126
-126
-126
-126
-126
-126
-126
-126
-125
-125
-124
-123
-123
-124
-124
-124
-124
-124
-124
-124
-124
-124
-124
-124
-124
-124
-124
-124
-124
-123
-123
-123
-123
-123
-124
-124
-124
-125
-124
-125
-125
-125
-125
-124
-124
-124
-124
-124
-123
-122
-122
-121
-122
-122
-122
-122
-123
-123
-122
-122
-122
-122
-122
-122
-122
-122
-122
-122
-122
-122
-121
-121
-121
-121
-121
-121
-121
-121
-121
-122
-122
-122
-122
-122
-122
-122
-122
-122
-122
-122
-121
-121
-121
-121
-121
-121
-121
-121
-121
-121
-120
-120
-119
-119
-119
-119
-118
-118
-118
-117
-116
-116
-117
-117
-118
-118
-118
-118
-118
-119
-119
-119
-119
-119
-120
-120
-120
-120
-120
-119
-118
-118
-118
-118
-118
-118
-118
-118
-118
-118
-118
-117
-116
-116
-116
-116
-116
-116
-116
-115
-115
-115
-115
-115
-115
-116
-116
-116
-116
-116
-116
-115
-115
-114
-114
-113
-113
-113
-112
-111
-111
-110
-110
-110
-110
-110
-110
-111
-111
-111
-111
-111
-111
-111
-112
-112
-113
-113
-113
-113
-113
-113
-114
-115
-115
-116
-116
-116
-116
-116
-116
-116
-116
-116
-116
-116
-116
-116
-116
-115
-115
-115
-115
-116
-116
-116
-117
-117
-117
-118
-118
-118
-118
-118
-119
-119
-119
-119
-119
-119
-119
-119
-120
-121
-122
-123
-123
-124
-124
-125
-126
-126
-126
-127
-128
-128
-128
-129
-129
-129
-128
-128
-129
-129
-129
-130
-130
-130
-129
-129
-129
-128
-128
-127
-127
-127
-127
-127
-126
-126
-125
-125
-125
-125
-125
-125
-125
-125
-125
-124
-124
-124
-123
-123
-123
-123
-122
-122
-121
-120
-118
-118
-118
-118
-118
-118
-118
-118
-117
-117
-117
-117
-117
-117
-117
-117
-117
-117
-117
-116
-116
-115
-115
-115
-115
-115
-114
-113
-113
-112
-111
-110
-109
-108
-108
-107
-106
-106
-105
-104
-103
-102
-102
-102
-101
-101
-101
-101
-101
-101
-101
-101
-101
-101
-102
-102
-102
-102
-103
-102
-102
-103
-103
-104
-104
-105
-106
-106
-107
-107
-107
-107
-107
-107
-107
-106
-106
-105
-105
-104
-103
-102
-102
-102
-102
-102
-102
-102
-101
-101
-101
-101
-101
-101
-102
-102
-102
-102
-102
-102
-101
-101
-101
-101
-101
-101
-101
-100
-99
-99
-98
-98
-97
-97
-98
-98
-97
-97
-97
-97
-97
-97
-98
-99
-99
-100
-101
-102
-103
-103
-104
-104
-105
-105
-106
-106
-107
-107
-106
-106
-105
-105
-105
-105
-106
-106
-106
-107
-107
-107
-107
-106
-106
-106
-105
-105
-105
-104
-104
-103
-102
-101
-101
-101
-101
-100
-100
-99
-98
-98
-97
-97
-96
-96
-95
-95
-95
-94
-93
-93
-92
-92
-92
-92
-93
-93
-93
-93
-93
-94
-94
-94
-93
-93
-94
-94
-94
-94
-94
-93
-93
-93
-93
-94
-94
-94
-94
-94
-94
-95
-95
-95
-94
-94
-95
-95
-95
-96
-96
-95
-95
-95
-96
-97
-97
-98
-98
-99
-99
-100
-100
-101
-101
-101
-101
-101
-102
-102
-102
-101
-101
-100
-101
-101
-101
-101
-101
-100
-100
-100
-99
-99
-98
-98
-97
-97
-97
-96
-96
-95
-94
-94
-94
-94
-93
-93
-93
-92
-92
-91
-91
-90
-89
-88
-88
-87
-86
-85
-83
-82
-80
-79
-78
-78
-77
-77
-76
-75
-74
-73
-72
-71
-71
-70
-70
-70
-69
-69
-68
-67
-66
-66
-66
-66
-67
-67
-67
-67
-67
-67
-67
-67
-67
-67
-67
-67
-66
-66
-65
-64
-62
-61
-61
-61
-61
-60
-60
-59
-57
-56
-55
-54
-54
-53
-53
-53
-53
-53
-53
-53
-53
-54
-55
-57
-58
-60
-61
-63
-64
-66
-67
-68
-69
-70
-71
-72
-73
-73
-73
-73
-73
-74
-74
-75
-75
-75
-76
-76
-76
-77
-77
-78
-78
-79
-80
-81
-82
-83
-83
-83
-83
-84
-85
-86
-87
-88
-89
-89
-89
-89
-90
-90
-90
-90
-90
-91
-91
-91
-91
-91
-91
-92
-93
-93
-94
-95
-96
-97
-97
-98
-99
-99
-100
-101
-101
-102
-103
-103
-104
-104
-104
-104
-104
-105
-105
-106
-106
-106
-106
-106
-106
-105
-105
-104
-104
-104
-104
-104
-103
-102
-102
-101
-101
-101
-101
-101
-101
-101
-100
-100
-99
-99
-98
-97
-96
-95
-94
-93
-91
-89
-87
-86
-84
-82
-80
-78
-76
-73
-70
-66
-63
-59
-54
-49
-45
-39
-33
-26
-19
-12
-4
2
9
15
21
26
29
32
34
35
34
33
30
26
21
14
6
-1
-11
-22
-32
-44
-57
-69
-82
-94
-105
-116
-125
-135
-143
-150
-157
-163
-168
-172
-176
-178
-180
-181
-182
-182
-182
-182
-181
-179
-178
-176
-173
-170
-167
-163
-160
-156
-153
-149
-145
-141
-138
-134
-130
-127
-124
-122
-120
-118
-116
-115
-113
-112
-111
-110
-108
-108
-108
-108
-108
-108
-108
-107
-107
-106
-106
-106
-106
-106
-106
-107
-106
-106
-106
-106
-105
-105
-105
-105
-104
-103
-103
-102
-101
-101
-101
-101
-102
-102
-102
-102
-102
-103
-103
-103
-103
-103
-104
-105
-105
-105
-105
-105
-105
-105
-105
-105
-106
-106
-107
-107
-107
-106
-106
-106
-105
-105
-105
-105
-104
-104
-104
-103
-102
-102
-102
-103
-103
-103
-103
-103
-103
-103
-104
-104
-104
-104
-104
-104
-104
-103
-103
-103
-102
-102
-102
-102
-102
-102
-103
-103
-102
-102
-102
-102
-102
-102
-103
-103
-103
-102
-102
-101
-100
-100
-100
-100
-100
-100
-100
-100
-99
-99
-99
-98
-98
-98
-98
-99
-99
-99
-99
-99
-98
-99
-99
-100
-100
-100
-101
-102
-102
-103
-103
-103
-103
-104
-104
-104
-104
-104
-103
-103
-102
-102
-102
-102
-102
-102
-102
-101
-100
-100
-100
-99
-99
-98
-98
-98
-98
-98
-98
-97
-97
-97
-98
-99
-99
-99
-100
-100
-100
-101
-101
-100
-100
-100
-100
-100
-99
-98
-97
-96
-95
-94
-94
-93
-93
-93
-93
-92
-92
-92
-92
-92
-92
-92
-92
-92
-93
-93
-93
-93
-93
-94
-95
-95
-96
-97
-98
-99
-99
-99
-100
-100
-100
-100
-101
-101
-102
-102
-101
-101
-101
-101
-101
-102
-103
-103
-103
-104
-104
-105
-105
-105
-105
-106
-106
-107
-108
-108
-109
-109
-109
-110
-110
-111
-112
-112
-113
-114
-114
-115
-115
-115
-116
-116
-117
-117
-117
-117
-117
-117
-117
-117
-117
-118
-118
-119
-119
-119
-118
-118
-118
-118
-117
-117
-117
-117
-117
-116
-115
-114
-113
-113
-112
-112
-112
-111
-111
-110
-109
-109
-108
-107
-106
-105
-105
-104
-103
-103
-102
-100
-99
-98
-98
-97
-97
-97
-96
-96
-95
-95
-95
-94
-94
-93
-93
-93
-92
-92
-91
-90
-89
-88
-88
-88
-88
-88
-88
-88
-88
-88
-88
-88
-87
-87
-88
-88
-88
-89
-89
-89
-89
-89
-90
-91
-92
-92
-93
-93
-93
-93
-94
-94
-94
-94
-94
-94
-94
-94
-93
-93
-92
-92
-92
-93
-93
-93
-93
-93
-93
-93
-93
-93
-93
-94
-94
-95
-95
-95
-95
-95
-95
-96
-96
-97
-98
-98
-99
-99
-99
-100
-100
-100
-99
-99
-99
-99
-99
-99
-98
-97
-97
-96
-96
-97
-97
-97
-97
-97
-96
-96
-96
-96
-96
-95
-96
-95
-95
-94
-94
-93
-92
-91
-91
-91
-91
-91
-90
-90
-90
-90
-89
-89
-88
-88
-89
-89
-89
-89
-89
-88
-88
-88
-88
-89
-90
-90
-90
-91
-91
-91
-91
-91
-91
-91
-91
-91
-91
-91
-91
-90
-90
-90
-91
-91
-92
-92
-92
-92
-92
-93
-93
-93
-93
-93
-93
-93
-93
-93
-93
-92
-92
-92
-92
-92
-92
-92
-92
-92
-91
-91
-91
-91
-91
-91
-92
-92
-92
-92
-92
-92
-92
-92
-93
-94
-94
-95
-95
-95
-95
-96
-96
-96
-95
-95
-95
-95
-95
-94
-94
-93
-92
-92
-92
-92
-92
-92
-92
-92
-91
-91
-91
-91
-91
-90
-91
-90
-90
-90
-89
-88
-87
-87
-87
-87
-87
-86
-86
-86
-85
-85
-85
-84
-83
-83
-83
-82
-82
-82
-82
-81
-80
-79
-79
-79
-79
-79
-79
-78
-78
-77
-77
-76
-75
-74
-74
-73
-72
-71
-71
-69
-69
-68
-68
-68
-69
-68
-68
-68
-67
-67
-67
-67
-67
-67
-67
-67
-67
-67
-66
-65
-65
-64
-64
-64
-64
-64
-64
-64
-63
-63
-63
-62
-62
-62
-62
-62
-63
-63
-63
-64
-64
-65
-66
-68
-69
-70
-72
-73
-74
-75
-76
-77
-78
-79
-79
-80
-80
-81
-81
-80
-80
-80
-81
-81
-82
-82
-83
-83
-84
-84
-85
-86
-86
-87
-89
-90
-91
-92
-92
-93
-94
-95
-96
-97
-97
-98
-99
-100
-101
-102
-103
-103
-103
-104
-104
-104
-105
-105
-105
-105
-105
-105
-106
-107
-107
-108
-109
-109
-109
-110
-110
-111
-111
-112
-113
-114
-114
-115
-115
-115
-114
-115
-115
-116
-116
-116
-116
-115
-115
-114
-114
-113
-112
-112
-111
-111
-110
-110
-110
-109
-108
-108
-108
-108
-108
-108
-108
-107
-107
-106
-105
-104
-103
-102
-101
-99
-98
-95
-93
-89
-86
-83
-79
-76
-73
-69
-64
-59
-54
-48
-42
-35
-28
-21
-14
-7
0
5
11
16
20
22
23
23
22
20
16
12
7
0
-7
-15
-25
-36
-48
-61
-73
-85
-97
-108
-119
-129
-139
-148
-157
-164
-171
-177
-183
-187
-191
-194
-195
-197
-198
-198
-197
-196
-195
-193
-190
-188
-186
-183
-180
-177
-173
-170
-167
-164
-160
-157
-154
-151
-148
-146
-143
-140
-138
-136
-134
-133
-132
-131
-131
-130
-130
-129
-129
-128
-128
-128
-127
-127
-127
-126
-126
-125
-124
-122
-121
-120
-120
-120
-119
-118
-118
-117
-117
-117
-117
-116
-116
-116
-117
-117
-117
-117
-117
-117
-117
-118
-119
-120
-120
-121
-121
-122
-122
-122
-122
-122
-122
-122
-122
-122
-122
-122
-121
-121
-120
-120
-120
-120
-119
-119
-119
-119
-119
-119
-119
-119
-119
-119
-120
-120
-121
-121
-121
-121
-121
-122
-122
-123
-124
-124
-124
-125
-125
-125
-125
-124
-124
-123
-123
-123
-122
-122
-121
-120
-119
-119
-119
-119
-119
-120
-120
-120
-121
-121
-121
-121
-121
-121
-122
-122
-122
-122
-121
-121
-120
-120
-120
-121
-121
-121
-120
-120
-120
-120
-120
-120
-120
-120
-120
-120
-120
-119
-119
-118
-118
-118
-118
-118
-119
-119
-119
-119
-119
-119
-119
-118
-118
-117
-117
-117
-117
-117
-117
-116
-115
-115
-115
-116
-116
-116
-116
-116
-117
-117
-117
-118
-118
-118
-119
-120
-120
-120
-120
-120
-119
-119
-120
-120
-121
-121
-122
-123
-123
-123
-124
-124
-124
-124
-125
-126
-126
-127
-127
-127
-127
-127
-127
-128
-128
-129
-129
-128
-128
-128
-127
-127
-126
-125
-125
-125
-124
-124
-123
-123
-122
-122
-123
-123
-124
-125
-125
-126
-126
-127
-127
-128
-128
-129
-130
-130
-130
-131
-131
-131
-131
-131
-132
-133
-133
-134
-134
-134
-134
-135
-135
-135
-135
-135
-136
-136
-136
-136
-136
-136
-136
-136
-137
-137
-138
-139
-140
-140
-141
-141
-142
-142
-142
-142
-142
-143
-143
-143
-142
-142
-141
-141
-141
-141
-141
-140
-139
-139
-138
-138
-137
-136
-135
-135
-134
-134
-133
-133
-132
-131
-130
-130
-130
-130
-130
-130
-129
-129
-128
-128
-127
-126
-126
-125
-125
-124
-124
-123
-122
-121
-120
-120
-120
-121
-121
-121
-121
-121
-121
-122
-122
-122
-122
-123
-123
-123
-123
-123
-122
-122
-121
-121
-121
-121
-121
-121
-121
-120
-120
-120
-119
-119
-119
-119
-119
-118
-118
-118
-117
-117
-116
-116
-117
-117
-118
-118
-119
-119
-119
-120
-121
-121
-122
-122
-123
-124
-124
-124
-125
-125
-125
-125
-125
-126
-126
-126
-126
-126
-125
-125
-124
-124
-123
-123
-123
-122
-122
-121
-121
-120
-119
-120
-120
-121
-122
-122
-122
-122
-123
-123
-123
-123
-123
-123
-124
-124
-124
-124
-123
-123
-123
-123
-123
-124
-124
-124
-125
-125
-125
-125
-125
-125
-125
-126
-126
-126
-126
-126
-126
-125
-125
-125
-124
-124
-124
-123
-123
-122
-122
-121
-120
-120
-119
-118
-117
-117
-116
-116
-115
-115
-115
-115
-115
-116
-116
-117
-118
-118
-118
-119
-120
-120
-120
-121
-121
-121
-121
-121
-120
-120
-119
-118
-118
-119
-118
-118
-118
-117
-117
-116
-116
-115
-115
-115
-115
-115
-115
-115
-114
-114
-114
-114
-114
-115
-116
-117
-118
-119
-120
-121
-121
-122
-122
-123
-124
-125
-126
-126
-126
-125
-125
-125
-125
-126
-126
-126
-125
-124
-124
-123
-123
-122
-121
-121
-120
-120
-119
-119
-118
-118
-117
-117
-117
-118
-118
-119
-119
-119
-119
-120
-120
-120
-119
-119
-120
-119
-119
-119
-118
-117
-115
-115
-114
-114
-113
-112
-112
-111
-109
-109
-107
-106
-105
-103
-102
-101
-100
-99
-98
-97
-96
-95
-95
-95
-94
-94
-94
-94
-94
-93
-93
-93
-93
-93
-94
-94
-95
-95
-95
-94
-94
-94
-95
-95
-95
-95
-94
-94
-93
-93
-92
-92
-91
-90
-89
-89
-87
-86
-85
-84
-83
-83
-83
-83
-84
-84
-85
-86
-87
-88
-89
-91
-92
-94
-95
-97
-99
-100
-101
-102
-103
-104
-106
-107
-108
-109
-110
-111
-111
-111
-112
-111
-111
-111
-111
-111
-111
-111
-111
-110
-110
-110
-111
-112
-113
-113
-114
-115
-116
-117
-118
-119
-120
-121
-122
-123
-124
-124
-125
-125
-125
-126
-127
-128
-129
-129
-130
-130
-131
-132
-132
-133
-133
-134
-134
-135
-135
-135
-135
-135
-135
-135
-135
-136
-136
-136
-136
-136
-136
-135
-135
-134
-134
-134
-134
-134
-134
-134
-134
-133
-133
-133
-134
-135
-135
-136
-137
-137
-137
-138
-138
-138
-138
-138
-138
-138
-137
-137
-135
-134
-133
-131
-131
-130
-128
-127
-126
-124
-122
-120
-118
-116
-114
-111
-109
-106
-103
-100
-96
-91
-86
-81
-76
-70
-64
-58
-51
-44
-37
-30
-24
-18
-13
-9
-6
-4
-4
-4
-6
-8
-11
-17
-23
-32
-41
-51
-62
-74
-85
-97
-109
-120
-131
-142
-152
-161
-169
-177
-183
-189
-194
-198
-203
-206
-209
-211
-213
-214
-214
-214
-214
-213
-212
-210
-209
-206
-204
-201
-198
-194
-191
-188
-186
-183
-181
-178
-176
-173
-171
-169
-167
-165
-163
-162
-161
-159
-158
-157
-155
-154
-152
-151
-151
-150
-150
-149
-148
-147
-146
-146
-145
-144
-144
-143
-143
-143
-142
-142
-142
-141
-141
-141
-142
-142
-143
-143
-144
-144
-145
-145
-145
-145
-145
-145
-146
-146
-147
-147
-147
-146
-146
-146
-147
-147
-147
-147
-147
-146
-146
-146
-145
-145
-144
-144
-144
-143
-143
-142
-141
-140
-139
-139
-139
-139
-140
-140
-140
-140
-140
-140
-140
-140
-140
-141
-142
-142
-142
-142
-142
-142
-143
-144
-145
-146
-147
-148
-148
-149
-149
-149
-150
-150
-149
-149
-150
-150
-149
-149
-149
-148
-147
-146
-146
-145
-145
-145
-144
-144
-143
-143
-143
-142
-142
-142
-142
-142
-142
-142
-142
-141
-141
-141
-142
-143
-143
-144
-144
-144
-144
-144
-145
-145
-145
-145
-145
-146
-146
-146
-146
-145
-145
-145
-145
-145
-145
-145
-145
-145
-144
-144
-144
-143
-143
-143
-142
-142
-142
-141
-140
-139
-139
-139
-139
-139
-140
-140
-140
-140
-140
-141
-141
-141
-141
-142
-142
-142
-143
-143
-143
-142
-142
-143
-143
-144
-144
-144
-145
-145
-145
-145
-144
-144
-144
-144
-143
-143
-143
-142
-142
-141
-141
-141
-141
-142
-142
-142
-142
-142
-142
-142
-142
-142
-142
-143
-143
-144
-144
-144
-144
-144
-144
-144
-145
-146
-146
-146
-147
-147
-148
-148
-149
-149
-150
-151
-151
-152
-152
-153
-153
-153
-154
-154
-155
-156
-157
-158
-159
-159
-160
-160
-160
-160
-160
-160
-160
-160
-160
-160
-159
-159
-158
-158
-159
-159
-159
-159
-160
-160
-160
-160
-161
-161
-161
-161
-162
-162
-162
-161
-161
-160
-159
-159
-159
-159
-158
-158
-157
-156
-155
-155
-154
-153
-152
-151
-151
-150
-149
-148
-147
-145
-144
-143
-143
-143
-142
-141
-141
-140
-139
-139
-138
-137
-136
-136
-135
-135
-134
-134
-133
-132
-131
-131
-132
-132
-132
-132
-131
-131
-131
-131
-131
-131
-131
-131
-131
-132
-132
-132
-132
-132
-132
-133
-134
-134
-135
-136
-136
-137
-138
-138
-139
-139
-139
-140
-141
-141
-141
-141
-141
-140
-140
-140
-141
-141
-141
-141
-141
-140
-140
-140
-140
-139
-139
-139
-139
-139
-139
-138
-138
-137
-137
-137
-138
-138
-139
-139
-140
-140
-141
-141
-141
-141
-141
-141
-141
-141
-141
-141
-140
-139
-138
-137
-137
-137
-137
-137
-136
-136
-136
-136
-136
-135
-135
-134
-134
-134
-135
-135
-135
-134
-134
-134
-134
-135
-135
-135
-135
-135
-135
-135
-135
-135
-135
-135
-135
-136
-135
-135
-135
-135
-135
-135
-136
-136
-136
-137
-137
-137
-137
-138
-138
-137
-137
-137
-137
-136
-136
-136
-135
-134
-133
-133
-133
-133
-133
-132
-132
-132
-132
-131
-131
-131
-130
-130
-131
-131
-130
-130
-130
-129
-129
-129
-130
-131
-131
-132
-132
-133
-133
-134
-135
-135
-135
-136
-136
-137
-137
-137
-137
-137
-136
-137
-137
-137
-138
-138
-138
-138
-138
-137
-137
-137
-136
-136
-136
-136
-136
-135
-134
-133
-132
-132
-132
-132
-132
-132
-131
-131
-130
-131
-131
-130
-130
-130
-131
-131
-132
-132
-132
-132
-132
-133
-134
-135
-136
-137
-138
-138
-138
-139
-139
-138
-138
-137
-137
-136
-135
-134
-133
-131
-129
-128
-126
-125
-124
-123
-121
-119
-118
-117
-116
-115
-114
-113
-112
-111
-111
-111
-110
-110
-109
-109
-110
-110
-110
-110
-110
-110
-110
-111
-111
-111
-110
-110
-110
-110
-109
-109
-108
-107
-107
-106
-106
-106
-106
-106
-106
-105
-104
-104
-104
-103
-102
-102
-101
-101
-100
-100
-99
-99
-98
-98
-99
-100
-100
-101
-102
-102
-103
-104
-105
-106
-107
-109
-110
-111
-112
-113
-113
-114
-114
-115
-117
-118
-119
-120
-120
-121
-121
-122
-122
-122
-123
-123
-124
-125
-125
-126
-127
-127
-128
-129
-130
-131
-133
-134
-135
-136
-137
-138
-139
-139
-139
-140
-141
-141
-142
-142
-142
-141
-141
-141
-142
-142
-143
-143
-144
-144
-144
-145
-146
-146
-146
-147
-147
-148
-148
-148
-149
-148
-148
-149
-149
-150
-151
-151
-151
-152
-152
-152
-152
-151
-151
-151
-151
-151
-151
-151
-151
-151
-150
-150
-151
-151
-151
-151
-151
-151
-151
-151
-151
-150
-150
-149
-149
-148
-147
-146
-145
-143
-141
-140
-139
-139
-138
-138
-137
-136
-134
-133
-132
-130
-128
-126
-124
-122
-119
-116
-112
-107
-102
-97
-92
-86
-79
-73
-66
-58
-51
-45
-38
-33
-28
-24
-22
-21
-21
-21
-23
-25
-29
-35
-42
-50
-59
-69
-80
-91
-102
-114
-126
-137
-148
-158
-168
-177
-185
-193
-200
-205
-211
-216
-220
-224
-227
-229
-230
-231
-231
-231
-230
-228
-227
-225
-223
-220
-218
-215
-211
-207
-203
-200
-197
-194
-191
-188
-185
-182
-179
-177
-175
-172
-170
-168
-166
-165
-163
-162
-161
-159
-158
-157
-157
-158
-158
-159
-159
-159
-159
-160
-160
-161
-161
-161
-162
-162
-162
-162
-162
-162
-162
-162
-163
-163
-163
-163
-163
-163
-162
-162
-162
-161
-161
-161
-162
-162
-161
-161
-160
-159
-159
-159
-159
-159
-159
-159
-159
-159
-159
-160
-160
-160
-159
-159
-159
-160
-160
-160
-160
-159
-159
-159
-159
-159
-160
-160
-160
-160
-160
-159
-159
-159
-158
-158
-158
-158
-158
-158
-158
-157
-157
-157
-158
-158
-159
-159
-159
-160
-160
-160
-160
-160
-160
-160
-160
-160
-160
-160
-159
-158
-158
-157
-158
-158
-157
-157
-157
-157
-156
-156
-156
-156
-156
-157
-157
-157
-157
-158
-158
-157
-158
-158
-159
-159
-160
-160
-160
-160
-160
-160
-160
-160
-159
-159
-158
-158
-158
-157
-156
-155
-155
-155
-155
-156
-156
-156
-156
-156
-157
-157
-157
-157
-157
-157
-158
-158
-158
-158
-158
-157
-157
-157
-157
-157
-157
-158
-158
-158
-158
-158
-158
-158
-158
-158
-158
-158
-158
-158
-158
-157
-156
-157
-157
-157
-158
-158
-158
-158
-159
-159
-159
-159
-159
-160
-160
-160
-160
-161
-160
-160
-159
-159
-159
-159
-159
-160
-160
-160
-160
-160
-160
-160
-160
-160
-160
-160
-161
-161
-161
-161
-161
-162
-163
-164
-164
-165
-165
-166
-166
-167
-167
-167
-167
-167
-168
-168
-169
-169
-169
-169
-169
-169
-170
-171
-172
-172
-172
-173
-173
-174
-175
-175
-175
-176
-176
-177
-177
-177
-177
-177
-176
-177
-177
-177
-177
-177
-177
-177
-177
-177
-177
-176
-176
-175
-175
-175
-174
-174
-173
-172
-172
-171
-172
-172
-172
-172
-171
-171
-171
-170
-170
-169
-169
-168
-168
-167
-167
-166
-166
-164
-164
-163
-163
-163
-163
-163
-162
-162
-162
-161
-161
-160
-159
-159
-159
-158
-158
-158
-157
-156
-155
-155
-155
-155
-155
-155
-155
-154
-154
-155
-155
-155
-154
-155
-155
-155
-155
-155
-154
-154
-153
-154
-154
-155
-155
-156
-156
-156
-156
-157
-157
-156
-156
-156
-157
-157
-157
-156
-156
-155
-155
-155
-155
-156
-156
-156
-156
-156
-156
-156
-156
-156
-156
-156
-156
-156
-156
-156
-156
-155
-155
-155
-155
-155
-156
-156
-156
-156
-156
-156
-157
-156
-157
-157
-157
-157
-157
-157
-157
-156
-156
-156
-157
-157
-157
-157
-157
-156
-156
-156
-155
-154
-153
-153
-153
-153
-153
-152
-152
-151
-150
-150
-150
-150
-150
-150
-151
-151
-151
-152
-152
-152
-152
-153
-153
-153
-154
-154
-154
-153
-153
-154
-154
-155
-155
-155
-155
-155
-155
-155
-155
-155
-155
-154
-154
-154
-154
-153
-153
-152
-152
-152
-152
-152
-153
-153
-153
-153
-153
-153
-153
-153
-153
-153
-153
-154
-154
-154
-153
-153
-153
-153
-154
-154
-155
-156
-156
-157
-157
-158
-159
-159
-159
-159
-159
-159
-159
-159
-159
-158
-157
-157
-157
-157
-156
-156
-155
-155
-154
-154
-153
-152
-152
-151
-151
-151
-151
-150
-150
-149
-149
-149
-150
-150
-151
-151
-151
-151
-152
-152
-152
-152
-152
-152
-152
-152
-152
-152
-152
-151
-151
-151
-151
-152
-152
-152
-152
-152
-152
-152
-151
-151
-150
-150
-149
-149
-148
-147
-146
-144
-143
-142
-142
-141
-141
-140
-139
-138
-138
-137
-137
-136
-136
-136
-135
-135
-135
-135
-134
-133
-133
-133
-133
-133
-133
-133
-132
-132
-132
-132
-131
-131
-130
-130
-129
-129
-128
-128
-127
-126
-125
-125
-124
-124
-124
-124
-123
-123
-122
-122
-122
-122
-121
-121
-122
-122
-122
-123
-124
-124
-125
-127
-129
-131
-132
-134
-135
-137
-138
-139
-140
-141
-142
-143
-144
-145
-145
-145
-144
-143
-142
-142
-142
-143
-143
-142
-142
-142
-142
-142
-142
-142
-143
-144
-145
-146
-147
-148
-149
-150
-151
-152
-154
-156
-157
-159
-160
-162
-163
-164
-165
-166
-167
-168
-168
-169
-169
-169
-169
-169
-169
-170
-170
-171
-171
-171
-171
-171
-171
-172
-172
-172
-172
-172
-172
-172
-172
-172
-172
-172
-171
-172
-172
-172
-172
-172
-172
-172
-172
-172
-172
-172
-173
-173
-174
-174
-174
-174
-174
-173
-173
-173
-173
-173
-173
-173
-173
-172
-172
-171
-170
-169
-168
-167
-166
-165
-163
-161
-159
-157
-155
-154
-153
-151
-149
-147
-145
-142
-138
-135
-131
-126
-121
-116
-111
-105
-98
-92
-85
-77
-70
-64
-58
-53
-49
-46
-44
-42
-42
-43
-44
-47
-50
-56
-62
-70
-78
-88
-98
-108
-118
-129
-140
-152
-162
-173
-182
-191
-199
-207
-214
-220
-225
-230
-235
-238
-241
-243
-244
-244
-245
-245
-245
-244
-243
-242
-240
-238
-235
-233
-230
-227
-225
-222
-219
-216
-213
-210
-207
-204
-202
-199
-197
-196
-194
-192
-191
-189
-187
-186
-184
-182
-181
-180
-179
-178
-177
-176
-175
-174
-173
-173
-173
-173
-173
-173
-173
-172
-172
-172
-172
-172
-172
-173
-173
-173
-174
-174
-173
-173
-172
-173
-173
-174
-174
-175
-175
-175
-175
-176
-176
-176
-176
-176
-176
-176
-176
-176
-176
-175
-175
-175
-175
-176
-176
-176
-175
-175
-175
-175
-175
-175
-175
-175
-175
-175
-175
-175
-174
-174
-173
-174
-174
-174
-174
-175
-175
-175
-175
-175
-175
-175
-174
-175
-175
-175
-175
-175
-174
-174
-174
-174
-175
-176
-176
-177
-177
-177
-178
-178
-179
-179
-179
-179
-179
-179
-179
-179
-178
-178
-177
-177
-177
-177
-177
-177
-176
-176
-176
-176
-176
-175
-175
-174
-174
-174
-173
-173
-172
-171
-171
-171
-171
-171
-170
-170
-169
-169
-168
-168
-168
-168
-167
-167
-167
-167
-167
-167
-166
-166
-166
-166
-167
-168
-168
-169
-169
-170
-170
-170
-170
-170
-170
-170
-170
-170
-170
-170
-169
-169
-168
-168
-168
-168
-168
-168
-168
-168
-168
-169
-169
-168
-169
-169
-169
-170
-170
-170
-171
-171
-171
-172
-173
-174
-175
-176
-176
-177
-177
-177
-177
-177
-177
-178
-178
-178
-178
-178
-178
-177
-177
-177
-178
-178
-178
-178
-178
-178
-178
-179
-179
-179
-180
-180
-180
-180
-179
-179
-179
-178
-178
-178
-178
-178
-178
-178
-178
-178
-178
-178
-178
-178
-179
-179
-180
-180
-180
-180
-180
-180
-180
-181
-182
-182
-183
-184
-184
-185
-185
-186
-187
-187
-188
-189
-189
-190
-190
-190
-191
-191
-191
-191
-192
-192
-192
-192
-192
-191
-191
-190
-189
-188
-187
-187
-186
-185
-185
-184
-183
-181
-180
-179
-179
-179
-178
-178
-177
-177
-177
-176
-176
-175
-174
-174
-173
-172
-172
-171
-170
-169
-168
-168
-168
-168
-168
-168
-167
-167
-166
-166
-165
-165
-164
-164
-164
-163
-163
-162
-161
-160
-160
-160
-160
-160
-160
-160
-160
-160
-161
-161
-161
-161
-161
-161
-162
-162
-162
-162
-162
-161
-161
-161
-162
-162
-163
-163
-163
-163
-163
-163
-163
-163
-163
-163
-163
-163
-163
-163
-162
-161
-161
-161
-161
-162
-162
-162
-162
-162
-163
-163
-163
-163
-164
-164
-165
-165
-166
-166
-166
-166
-166
-167
-168
-168
-169
-169
-170
-170
-169
-170
-169
-169
-169
-169
-169
-168
-168
-167
-167
-166
-165
-165
-165
-165
-166
-166
-165
-165
-165
-165
-165
-165
-164
-164
-164
-164
-164
-164
-163
-163
-162
-162
-162
-162
-163
-163
-163
-163
-163
-163
-163
-163
-163
-163
-163
-164
-164
-164
-164
-163
-163
-163
-163
-163
-163
-163
-163
-163
-163
-162
-162
-161
-161
-161
-160
-160
-160
-160
-159
-159
-158
-158
-158
-158
-159
-160
-160
-161
-161
-161
-162
-162
-162
-163
-163
-164
-164
-164
-163
-163
-162
-163
-163
-163
-164
-164
-164
-164
-163
-164
-163
-163
-163
-163
-163
-163
-162
-162
-162
-161
-161
-161
-161
-161
-161
-161
-161
-161
-161
-161
-160
-160
-160
-160
-160
-160
-159
-159
-159
-158
-158
-158
-159
-159
-160
-160
-160
-160
-161
-161
-161
-161
-161
-162
-162
-162
-161
-161
-161
-160
-160
-160
-159
-159
-158
-158
-157
-156
-155
-155
-154
-153
-152
-151
-150
-148
-147
-146
-145
-143
-142
-142
-141
-141
-141
-140
-140
-139
-139
-139
-138
-137
-137
-136
-136
-136
-135
-135
-134
-134
-133
-133
-133
-133
-134
-134
-134
-133
-133
-133
-132
-132
-131
-131
-131
-131
-130
-129
-128
-127
-127
-126
-126
-126
-126
-126
-126
-126
-126
-127
-127
-127
-127
-128
-129
-129
-130
-131
-132
-132
-133
-134
-136
-137
-138
-139
-140
-141
-142
-142
-143
-143
-144
-144
-145
-145
-145
-145
-145
-145
-145
-145
-146
-147
-148
-148
-149
-149
-150
-151
-152
-153
-153
-155
-156
-156
-157
-158
-159
-160
-161
-162
-164
-165
-166
-167
-168
-169
-170
-171
-171
-171
-172
-173
-174
-174
-174
-174
-174
-173
-172
-172
-172
-172
-172
-172
-171
-171
-170
-170
-169
-169
-169
-168
-169
-168
-168
-168
-168
-168
-168
-168
-169
-170
-170
-171
-171
-171
-171
-172
-172
-172
-172
-172
-173
-172
-172
-172
-171
-170
-170
-169
-169
-169
-169
-169
-168
-167
-167
-166
-165
-164
-162
-161
-160
-158
-157
-155
-153
-150
-148
-146
-144
-142
-139
-136
-133
-129
-125
-120
-115
-109
-103
-97
-91
-85
-78
-72
-65
-59
-54
-50
-48
-46
-45
-45
-46
-48
-50
-54
-60
-66
-73
-82
-91
-101
-111
-122
-133
-143
-154
-165
-176
-185
-195
-203
-211
-218
-225
-231
-237
-241
-245
-248
-251
-252
-253
-253
-252
-250
-249
-247
-245
-243
-240
-237
-233
-230
-226
-222
-218
-214
-210
-206
-203
-199
-196
-193
-190
-187
-185
-183
-182
-180
-179
-179
-178
-177
-177
-177
-176
-176
-176
-177
-177
-177
-178
-178
-178
-177
-177
-178
-178
-179
-179
-179
-179
-179
-179
-179
-179
-179
-179
-179
-180
-179
-179
-179
-179
-178
-178
-178
-178
-179
-179
-179
-179
-179
-179
-179
-178
-177
-177
-176
-176
-175
-174
-174
-173
-172
-171
-171
-170
-170
-170
-169
-169
-169
-169
-169
-169
-169
-169
-169
-170
-170
-170
-170
-170
-170
-170
-170
-171
-171
-171
-172
-172
-172
-172
-172
-171
-171
-171
-171
-171
-171
-170
-170
-170
-169
-169
-170
-171
-171
-172
-172
-173
-173
-174
-174
-175
-175
-175
-176
-176
-176
-177
-177
-176
-176
-175
-175
-176
-175
-175
-175
-175
-174
-174
-173
-173
-172
-171
-171
-170
-170
-169
-169
-168
-167
-167
-167
-167
-168
-169
-169
-170
-170
-171
-172
-173
-173
-174
-175
-175
-175
-176
-176
-175
-174
-174
-174
-174
-174
-174
-174
-173
-172
-172
-171
-170
-169
-168
-168
-168
-167
-167
-167
-167
-166
-166
-167
-167
-167
-168
-168
-169
-169
-169
-170
-170
-170
-171
-171
-171
-171
-171
-171
-171
-170
-170
-171
-171
-171
-172
-172
-172
-172
-173
-173
-173
-172
-172
-173
-173
-173
-173
-173
-172
-172
-172
-172
-173
-173
-174
-174
-174
-175
-175
-176
-176
-176
-177
-177
-178
-178
-179
-179
-179
-179
-179
-180
-180
-181
-181
-182
-182
-182
-183
-183
-183
-182
-182
-183
-183
-182
-182
-182
-181
-180
-180
-180
-180
-180
-180
-180
-180
-180
-181
-181
-181
-181
-181
-182
-182
-183
-183
-183
-183
-183
-183
-184
-184
-184
-184
-184
-184
-183
-183
-182
-181
-180
-179
-179
-178
-177
-176
-175
-174
-172
-171
-171
-170
-170
-170
-169
-169
-168
-168
-168
-167
-167
-166
-166
-165
-165
-164
-164
-163
-162
-162
-162
-162
-162
-162
-162
-162
-162
-162
-162
-162
-162
-162
-162
-163
-163
-163
-163
-163
-162
-162
-163
-163
-163
-163
-164
-163
-163
-163
-163
-162
-161
-161
-161
-160
-160
-159
-159
-158
-157
-157
-157
-157
-157
-158
-158
-158
-158
-159
-159
-159
-159
-160
-161
-162
-162
-163
-163
-163
-162
-163
-163
-164
-164
-164
-164
-164
-164
-163
-163
-163
-162
-162
-162
-161
-161
-161
-161
-160
-160
-160
-160
-161
-161
-161
-161
-162
-162
-163
-163
-163
-163
-163
-163
-163
-163
-162
-162
-161
-160
-160
-160
-160
-160
-160
-160
-160
-160
-160
-160
-160
-159
-159
-159
-159
-159
-159
-159
-158
-158
-157
-157
-157
-156
-156
-156
-156
-156
-155
-155
-154
-154
-154
-154
-154
-153
-153
-153
-152
-152
-152
-152
-153
-153
-154
-154
-155
-155
-155
-155
-155
-155
-155
-155
-155
-155
-155
-155
-154
-154
-153
-154
-154
-154
-154
-154
-154
-154
-155
-155
-155
-155
-155
-156
-156
-156
-156
-156
-156
-155
-155
-156
-156
-156
-156
-156
-156
-156
-156
-156
-156
-156
-156
-156
-156
-155
-155
-155
-154
-153
-153
-153
-153
-152
-152
-152
-152
-151
-151
-151
-150
-150
-150
-149
-149
-149
-149
-149
-148
-148
-148
-149
-149
-150
-151
-151
-151
-151
-152
-152
-152
-151
-151
-150
-150
-149
-148
-147
-146
-144
-143
-142
-141
-140
-139
-138
-137
-136
-135
-134
-133
-132
-131
-130
-130
-129
-129
-129
-128
-127
-126
-126
-126
-127
-127
-127
-126
-126
-126
-126
-126
-125
-125
-124
-124
-124
-123
-123
-122
-121
-120
-120
-120
-120
-120
-119
-119
-119
-118
-118
-117
-116
-116
-116
-116
-116
-115
-115
-115
-114
-115
-115
-116
-117
-119
-120
-121
-122
-123
-124
-125
-125
-126
-127
-128
-129
-129
-130
-130
-129
-130
-130
-131
-131
-131
