# Simple Text Format
# Sampling Rate (Hz):= 1200.00
# Resolution:= 12
# Labels:= ECG	 V2
# Age:=	23
# Gender:=	Masculino
-70
-69
-68
-68
-68
-68
-67
-67
-66
-66
-66
-65
-65
-64
-64
-62
-62
-62
-61
-61
-61
-61
-61
-60
-60
-60
-60
-59
-59
-59
-60
-59
-59
-59
-59
-59
-59
-59
-58
-59
-58
-58
-58
-58
-58
-58
-57
-57
-57
-57
-57
-57
-57
-58
-59
-59
-59
-59
-60
-61
-62
-63
-63
-65
-65
-66
-66
-67
-68
-68
-69
-70
-70
-71
-71
-71
-71
-72
-71
-72
-73
-73
-72
-72
-72
-72
-71
-72
-71
-72
-71
-72
-71
-71
-72
-72
-72
-72
-72
-72
-73
-73
-73
-73
-74
-73
-73
-74
-74
-74
-74
-75
-76
-76
-77
-77
-76
-77
-77
-77
-78
-78
-79
-78
-78
-79
-79
-79
-79
-79
-79
-79
-79
-80
-80
-80
-80
-80
-80
-80
-81
-81
-82
-81
-81
-81
-81
-81
-81
-81
-81
-81
-81
-81
-81
-81
-80
-80
-80
-80
-80
-80
-80
-80
-80
-79
-79
-79
-78
-78
-78
-78
-78
-79
-79
-78
-78
-78
-78
-77
-76
-74
-72
-68
-64
-60
-55
-49
-42
-36
-28
-18
-8
3
14
26
38
51
63
76
89
102
115
127
140
151
162
171
180
186
192
197
198
199
197
193
187
178
168
156
141
124
106
85
63
38
13
-14
-42
-72
-102
-131
-160
-189
-217
-244
-269
-293
-315
-336
-355
-372
-386
-398
-408
-415
-421
-424
-427
-426
-426
-422
-418
-412
-405
-398
-389
-380
-370
-360
-350
-339
-329
-318
-307
-296
-286
-276
-265
-255
-245
-236
-226
-216
-206
-197
-187
-179
-170
-161
-154
-147
-139
-131
-124
-118
-111
-105
-99
-95
-89
-86
-81
-77
-75
-71
-69
-67
-64
-63
-61
-60
-59
-58
-57
-55
-54
-53
-53
-52
-51
-51
-51
-50
-49
-49
-49
-48
-48
-47
-47
-46
-46
-45
-45
-44
-43
-43
-42
-42
-41
-41
-40
-40
-40
-39
-39
-39
-39
-37
-38
-37
-37
-36
-36
-35
-36
-35
-35
-34
-33
-34
-33
-33
-32
-32
-31
-31
-31
-30
-30
-30
-30
-29
-29
-29
-28
-27
-27
-27
-27
-26
-26
-26
-25
-25
-24
-23
-23
-22
-22
-22
-21
-20
-20
-19
-19
-18
-17
-17
-16
-16
-15
-14
-14
-13
-12
-12
-11
-10
-10
-9
-8
-7
-7
-6
-5
-3
-2
-1
-1
1
1
2
3
4
5
6
7
8
10
11
12
14
14
16
17
18
20
21
22
24
25
27
28
30
30
33
34
35
36
38
39
41
43
44
46
48
49
50
52
54
56
57
59
61
62
64
65
67
68
70
71
72
74
75
76
78
79
80
81
82
83
84
85
86
87
87
88
89
89
89
90
90
90
90
90
91
90
90
90
90
89
89
88
89
88
87
87
86
85
84
84
83
82
81
80
79
78
77
75
74
72
71
69
69
67
65
63
61
59
57
55
53
51
49
47
45
42
39
37
35
33
31
28
26
24
22
20
17
15
12
10
8
5
4
1
-1
-3
-6
-7
-8
-10
-12
-14
-16
-18
-20
-21
-23
-25
-26
-29
-30
-32
-33
-35
-36
-39
-41
-43
-45
-47
-49
-50
-52
-52
-53
-54
-54
-55
-55
-56
-56
-56
-57
-57
-59
-59
-60
-60
-61
-62
-63
-64
-64
-64
-65
-66
-66
-66
-67
-68
-68
-69
-69
-69
-70
-70
-70
-70
-71
-72
-72
-72
-72
-73
-73
-73
-73
-72
-73
-73
-73
-73
-73
-73
-73
-73
-73
-73
-74
-73
-73
-74
-74
-73
-73
-73
-73
-74
-74
-74
-74
-73
-73
-74
-74
-74
-73
-73
-73
-73
-73
-73
-73
-73
-73
-72
-72
-71
-71
-71
-71
-70
-70
-70
-69
-69
-69
-69
-68
-67
-67
-66
-65
-64
-64
-63
-62
-61
-61
-60
-59
-58
-56
-55
-54
-53
-51
-50
-49
-48
-47
-46
-44
-43
-41
-40
-39
-39
-37
-37
-36
-34
-33
-32
-31
-31
-30
-29
-28
-27
-25
-25
-24
-22
-21
-20
-20
-19
-18
-17
-16
-16
-15
-14
-14
-13
-12
-12
-11
-10
-10
-10
-9
-9
-9
-8
-8
-7
-7
-6
-5
-5
-5
-4
-4
-3
-3
-3
-2
-2
-1
-1
-1
0
-1
0
1
1
0
1
1
1
1
2
2
2
2
2
3
3
3
3
3
4
4
4
4
4
4
4
4
4
4
4
5
5
5
5
6
6
6
6
6
6
6
7
7
7
6
7
7
7
8
8
7
7
8
8
7
7
7
7
8
8
8
9
9
8
9
9
9
9
10
10
10
10
10
10
11
11
11
11
11
11
11
11
11
12
11
11
11
11
11
12
12
12
12
12
11
11
11
11
12
12
12
12
12
12
12
12
12
12
13
12
12
12
12
12
12
12
12
12
12
12
12
12
11
11
10
10
10
10
9
9
9
9
9
9
9
9
8
8
8
8
8
8
9
8
7
8
8
7
7
7
7
7
7
7
7
7
6
6
6
6
6
6
6
6
5
5
5
4
5
4
4
4
4
4
4
4
3
3
3
3
3
3
3
2
2
2
2
2
1
0
0
0
0
0
1
1
0
0
0
1
1
1
1
1
0
1
0
1
1
1
1
1
1
1
1
1
1
0
1
1
1
1
1
1
1
1
1
1
0
0
1
1
1
1
0
0
1
1
0
1
1
1
1
1
1
0
0
1
1
0
0
0
0
0
0
0
0
-1
-1
0
0
0
-1
-1
-1
-1
-2
-2
-1
-2
-2
-2
-2
-2
-2
-2
-2
-3
-3
-3
-3
-3
-3
-4
-5
-4
-5
-5
-5
-5
-5
-5
-5
-5
-5
-5
-5
-4
-4
-3
-3
-2
-2
-2
-1
-2
-1
-1
-1
0
0
0
1
1
1
1
1
1
1
1
1
0
-1
-1
-3
-3
-4
-4
-5
-5
-6
-6
-5
-5
-6
-5
-5
-5
-5
-4
-5
-6
-6
-7
-7
-8
-8
-9
-9
-9
-9
-10
-10
-11
-11
-11
-12
-13
-14
-15
-17
-17
-19
-20
-22
-23
-24
-24
-25
-26
-26
-27
-27
-28
-28
-28
-29
-29
-29
-29
-30
-30
-31
-31
-31
-31
-31
-31
-31
-31
-32
-31
-31
-32
-32
-32
-32
-32
-33
-33
-34
-34
-34
-35
-35
-35
-35
-36
-36
-35
-36
-36
-37
-37
-37
-37
-38
-39
-39
-39
-39
-39
-39
-39
-40
-40
-40
-40
-40
-40
-40
-41
-41
-41
-41
-41
-41
-41
-41
-40
-41
-41
-41
-41
-41
-41
-41
-41
-41
-41
-40
-40
-40
-40
-40
-40
-41
-40
-40
-40
-40
-40
-40
-40
-40
-41
-41
-40
-40
-40
-39
-38
-36
-35
-33
-30
-25
-21
-15
-10
-2
6
14
23
33
44
55
67
80
92
106
119
132
145
158
170
182
193
204
213
222
228
234
238
240
239
237
233
226
218
208
195
180
162
142
120
97
72
44
17
-12
-42
-72
-104
-133
-163
-191
-218
-245
-270
-293
-315
-334
-352
-367
-379
-390
-399
-405
-410
-413
-414
-413
-412
-408
-404
-398
-391
-384
-376
-367
-358
-348
-338
-328
-318
-308
-297
-286
-275
-265
-254
-242
-232
-221
-210
-200
-189
-178
-167
-157
-148
-138
-128
-119
-110
-101
-93
-86
-78
-72
-66
-61
-56
-51
-47
-42
-39
-36
-33
-31
-29
-27
-26
-25
-24
-22
-22
-21
-20
-20
-19
-18
-17
-17
-17
-16
-15
-14
-13
-13
-13
-13
-12
-11
-11
-11
-10
-10
-9
-8
-8
-7
-7
-6
-6
-6
-5
-4
-3
-3
-2
-2
-1
-1
0
0
0
0
1
1
2
2
3
2
3
4
4
4
5
5
6
6
7
7
7
7
8
8
9
10
10
10
11
11
12
12
13
14
14
15
15
16
16
17
17
17
18
19
19
20
20
21
22
22
23
24
25
26
26
27
28
27
28
29
30
31
31
32
34
35
36
36
37
38
39
40
41
42
43
45
46
47
48
49
50
51
52
54
55
56
57
58
60
61
63
64
66
67
69
70
72
73
75
76
78
79
81
82
84
85
86
89
90
91
92
94
96
97
99
100
102
103
104
106
107
108
110
111
112
113
114
115
115
116
117
118
119
120
120
121
122
123
123
123
124
124
124
124
125
125
124
125
124
124
123
124
124
123
123
122
122
121
120
119
118
117
116
114
114
113
111
109
108
107
104
103
102
100
98
96
94
92
90
88
87
84
82
80
78
76
73
71
68
66
63
61
59
56
54
52
50
47
45
43
41
38
36
34
31
29
27
25
23
20
18
15
14
11
10
7
6
4
3
1
-1
-2
-4
-5
-7
-7
-8
-10
-11
-13
-14
-15
-16
-17
-18
-19
-20
-20
-22
-23
-24
-24
-25
-26
-27
-27
-28
-29
-30
-31
-31
-31
-31
-32
-32
-33
-34
-34
-34
-35
-35
-36
-36
-36
-36
-37
-38
-38
-38
-39
-39
-39
-39
-39
-39
-40
-40
-40
-40
-40
-40
-40
-41
-41
-41
-41
-41
-41
-41
-42
-42
-42
-42
-41
-42
-42
-42
-42
-42
-43
-43
-44
-43
-44
-44
-44
-44
-44
-44
-45
-46
-46
-45
-45
-45
-45
-45
-45
-45
-45
-45
-45
-45
-45
-44
-45
-44
-44
-45
-45
-45
-45
-45
-44
-44
-44
-45
-43
-44
-44
-43
-42
-43
-42
-43
-42
-42
-42
-42
-42
-42
-41
-41
-40
-40
-40
-39
-39
-39
-38
-38
-38
-38
-38
-37
-37
-37
-36
-36
-37
-36
-36
-36
-35
-35
-35
-34
-34
-33
-33
-33
-32
-32
-31
-31
-31
-31
-30
-30
-31
-30
-29
-30
-29
-29
-29
-28
-28
-28
-28
-28
-28
-28
-28
-28
-27
-28
-28
-28
-28
-28
-28
-27
-27
-28
-28
-28
-28
-27
-27
-27
-27
-27
-27
-27
-27
-27
-27
-28
-27
-28
-28
-27
-27
-28
-28
-27
-28
-27
-28
-28
-29
-28
-29
-29
-29
-29
-29
-30
-30
-30
-30
-30
-30
-30
-30
-30
-30
-30
-31
-31
-32
-32
-32
-32
-32
-33
-33
-33
-33
-34
-34
-34
-35
-35
-35
-35
-35
-35
-35
-36
-36
-37
-37
-37
-37
-38
-38
-38
-38
-38
-38
-39
-39
-39
-39
-39
-39
-40
-40
-40
-40
-40
-41
-41
-41
-41
-41
-42
-42
-42
-42
-42
-42
-42
-42
-42
-42
-42
-42
-42
-43
-43
-43
-43
-44
-44
-44
-44
-44
-45
-45
-45
-45
-45
-45
-45
-45
-45
-45
-46
-47
-46
-47
-47
-47
-48
-47
-47
-48
-48
-48
-49
-48
-48
-48
-48
-48
-48
-48
-48
-48
-49
-49
-48
-48
-48
-48
-49
-49
-49
-49
-49
-49
-49
-49
-49
-48
-48
-49
-49
-49
-48
-49
-49
-48
-48
-48
-49
-49
-50
-50
-50
-49
-49
-49
-50
-50
-50
-50
-50
-50
-51
-51
-51
-50
-51
-51
-51
-51
-51
-51
-51
-51
-52
-52
-52
-52
-52
-51
-51
-52
-52
-52
-52
-51
-52
-52
-52
-52
-53
-53
-53
-52
-52
-54
-54
-53
-54
-54
-54
-54
-54
-54
-55
-55
-55
-55
-54
-55
-55
-55
-55
-55
-54
-54
-54
-54
-54
-54
-55
-54
-55
-55
-55
-56
-55
-55
-55
-56
-56
-57
-57
-56
-56
-56
-57
-57
-57
-56
-56
-57
-57
-57
-57
-57
-56
-56
-57
-57
-58
-57
-57
-56
-56
-56
-56
-56
-56
-56
-56
-56
-57
-57
-56
-56
-56
-56
-57
-57
-57
-57
-58
-58
-58
-58
-58
-58
-58
-58
-58
-58
-59
-59
-58
-58
-58
-58
-58
-58
-58
-58
-59
-58
-58
-58
-58
-58
-58
-57
-57
-58
-58
-58
-58
-58
-58
-58
-58
-58
-59
-59
-58
-58
-59
-59
-59
-59
-59
-59
-59
-59
-59
-59
-59
-59
-59
-59
-59
-59
-59
-59
-60
-60
-59
-59
-59
-59
-60
-60
-60
-59
-60
-59
-60
-60
-60
-60
-59
-59
-59
-59
-58
-58
-58
-57
-56
-56
-55
-55
-55
-54
-53
-53
-52
-52
-51
-50
-50
-50
-49
-49
-48
-48
-47
-47
-47
-47
-47
-46
-46
-46
-46
-46
-45
-45
-45
-45
-45
-44
-45
-45
-43
-43
-43
-42
-42
-41
-41
-40
-40
-39
-39
-39
-38
-38
-39
-39
-39
-39
-40
-40
-41
-41
-42
-43
-44
-44
-46
-46
-47
-48
-50
-50
-51
-52
-52
-53
-54
-54
-56
-56
-56
-56
-56
-56
-57
-57
-56
-57
-57
-58
-58
-57
-57
-57
-57
-57
-58
-58
-58
-59
-58
-58
-59
-59
-59
-59
-60
-60
-60
-61
-61
-61
-62
-62
-62
-62
-63
-64
-63
-64
-64
-64
-64
-65
-65
-65
-65
-66
-67
-67
-67
-67
-68
-68
-68
-68
-68
-68
-69
-69
-68
-69
-68
-68
-68
-67
-68
-68
-67
-67
-67
-67
-67
-66
-66
-66
-67
-66
-67
-67
-66
-66
-66
-66
-66
-66
-66
-66
-66
-66
-66
-66
-66
-65
-63
-61
-60
-57
-53
-49
-44
-37
-32
-26
-18
-9
1
11
22
34
45
56
68
81
93
105
117
128
140
150
161
169
178
184
190
195
197
198
197
194
190
184
176
164
152
137
120
101
80
57
33
8
-19
-48
-77
-106
-136
-165
-194
-221
-248
-274
-298
-321
-342
-362
-379
-394
-408
-418
-427
-434
-439
-441
-443
-443
-440
-437
-433
-427
-421
-413
-406
-397
-388
-379
-368
-359
-349
-338
-328
-317
-306
-296
-284
-274
-263
-251
-241
-229
-219
-208
-197
-187
-177
-166
-156
-147
-138
-129
-120
-112
-104
-98
-90
-85
-79
-74
-69
-65
-61
-57
-55
-52
-50
-47
-46
-44
-43
-42
-41
-40
-39
-38
-38
-37
-37
-36
-35
-35
-33
-34
-33
-32
-32
-31
-31
-30
-30
-29
-28
-28
-27
-27
-26
-26
-25
-25
-25
-25
-24
-24
-23
-23
-22
-22
-22
-22
-22
-21
-21
-20
-19
-19
-18
-18
-19
-18
-17
-17
-17
-16
-15
-15
-14
-14
-13
-14
-13
-12
-11
-11
-11
-10
-10
-10
-9
-9
-8
-8
-7
-6
-5
-6
-5
-5
-4
-3
-3
-3
-2
-1
0
1
1
2
2
3
3
4
4
5
6
7
7
8
8
9
9
10
11
12
13
13
14
15
16
17
19
20
21
22
23
24
25
26
27
29
29
30
32
33
35
36
37
38
40
41
42
43
44
45
47
49
50
51
52
54
55
56
58
60
62
63
65
66
67
69
70
72
73
75
76
78
79
81
82
83
84
85
88
88
89
92
93
94
95
96
97
98
98
100
100
102
102
103
104
103
104
104
104
104
105
105
106
105
104
105
104
104
103
103
103
102
101
101
100
99
97
97
96
96
94
93
92
91
91
89
88
86
86
84
83
81
80
78
77
74
73
71
69
67
65
63
61
59
57
55
52
50
47
45
43
41
38
36
34
31
28
26
24
21
20
18
16
14
12
9
7
5
3
1
-1
-2
-4
-5
-7
-9
-11
-12
-13
-15
-17
-19
-20
-22
-23
-24
-25
-28
-29
-30
-30
-32
-34
-34
-35
-37
-38
-38
-40
-40
-41
-42
-43
-44
-44
-45
-45
-46
-47
-47
-48
-48
-49
-49
-50
-50
-51
-51
-51
-51
-51
-52
-52
-52
-53
-53
-53
-53
-54
-54
-54
-54
-54
-54
-54
-55
-56
-56
-56
-55
-55
-56
-56
-56
-56
-56
-56
-57
-57
-57
-57
-57
-58
-58
-58
-59
-59
-59
-59
-60
-60
-60
-60
-60
-60
-60
-60
-60
-60
-60
-60
-60
-60
-60
-60
-61
-61
-60
-61
-61
-60
-60
-60
-60
-60
-60
-60
-60
-60
-60
-59
-59
-59
-59
-59
-59
-59
-59
-58
-57
-57
-57
-56
-56
-56
-55
-55
-55
-55
-55
-54
-55
-54
-54
-53
-53
-54
-53
-53
-52
-52
-52
-52
-51
-51
-51
-51
-51
-51
-50
-50
-49
-49
-49
-49
-50
-50
-50
-49
-48
-48
-48
-47
-47
-48
-47
-47
-47
-46
-46
-46
-46
-46
-46
-46
-45
-46
-46
-45
-45
-45
-44
-44
-44
-44
-44
-44
-44
-44
-44
-44
-44
-44
-44
-44
-44
-44
-44
-44
-44
-44
-44
-43
-44
-44
-44
-44
-45
-45
-45
-45
-45
-45
-45
-45
-46
-47
-47
-47
-47
-46
-46
-47
-47
-48
-48
-47
-48
-48
-48
-48
-49
-49
-48
-48
-49
-50
-50
-49
-49
-49
-49
-49
-49
-49
-49
-49
-50
-50
-50
-50
-50
-51
-52
-51
-52
-53
-53
-53
-53
-53
-53
-54
-54
-54
-54
-55
-55
-56
-56
-56
-56
-56
-56
-56
-57
-57
-57
-58
-57
-57
-57
-57
-57
-57
-57
-58
-58
-58
-58
-59
-59
-59
-59
-59
-60
-60
-60
-60
-59
-60
-60
-60
-60
-60
-60
-60
-60
-61
-61
-62
-61
-61
-62
-62
-62
-62
-62
-63
-63
-63
-63
-63
-63
-63
-63
-63
-63
-63
-64
-63
-63
-64
-64
-63
-64
-64
-64
-64
-63
-64
-64
-64
-64
-65
-64
-64
-65
-65
-65
-65
-65
-65
-65
-65
-66
-65
-65
-66
-65
-65
-65
-66
-66
-66
-66
-65
-66
-66
-66
-65
-65
-65
-65
-65
-65
-65
-65
-65
-65
-66
-65
-65
-65
-65
-65
-65
-65
-66
-66
-66
-66
-66
-66
-67
-66
-67
-67
-67
-67
-67
-67
-67
-67
-67
-67
-67
-67
-68
-68
-67
-67
-67
-67
-68
-68
-68
-68
-68
-68
-69
-69
-69
-69
-69
-69
-69
-69
-69
-69
-69
-68
-68
-69
-68
-69
-69
-69
-69
-68
-68
-68
-68
-68
-68
-68
-68
-68
-68
-68
-69
-68
-68
-68
-69
-68
-69
-69
-68
-68
-69
-68
-68
-68
-67
-67
-67
-67
-66
-66
-65
-65
-64
-63
-62
-62
-62
-61
-61
-60
-59
-58
-58
-57
-57
-56
-55
-55
-55
-55
-55
-54
-53
-54
-54
-54
-54
-53
-53
-53
-53
-53
-53
-52
-52
-52
-51
-51
-52
-51
-50
-50
-49
-49
-49
-49
-48
-48
-48
-48
-48
-48
-48
-48
-48
-48
-48
-48
-50
-51
-51
-52
-52
-53
-55
-56
-57
-57
-58
-60
-60
-60
-61
-63
-63
-64
-64
-64
-66
-66
-66
-66
-67
-66
-66
-66
-66
-66
-67
-67
-66
-67
-66
-67
-67
-67
-67
-67
-68
-68
-68
-68
-68
-68
-69
-69
-70
-71
-71
-71
-72
-72
-72
-72
-72
-73
-73
-73
-74
-74
-74
-74
-74
-75
-76
-75
-76
-76
-76
-76
-75
-76
-76
-76
-76
-76
-75
-76
-76
-76
-76
-76
-76
-76
-75
-76
-76
-75
-76
-76
-76
-76
-75
-75
-75
-75
-75
-75
-75
-75
-75
-75
-75
-75
-75
-76
-75
-75
-74
-75
-74
-73
-71
-69
-67
-64
-59
-55
-50
-44
-37
-31
-23
-14
-4
8
18
31
43
56
68
81
94
106
119
132
143
154
163
172
180
186
192
195
196
197
195
191
184
177
167
155
141
125
107
87
66
42
18
-8
-36
-64
-92
-120
-148
-177
-203
-230
-255
-279
-302
-324
-344
-363
-378
-392
-405
-415
-422
-429
-433
-436
-437
-437
-436
-432
-427
-422
-415
-408
-400
-392
-383
-374
-363
-353
-343
-333
-322
-313
-301
-291
-280
-270
-258
-248
-237
-227
-216
-205
-194
-185
-175
-166
-156
-146
-138
-129
-121
-114
-108
-100
-95
-89
-83
-80
-76
-71
-68
-65
-62
-60
-58
-56
-55
-54
-52
-51
-50
-49
-48
-48
-47
-45
-45
-45
-45
-44
-43
-42
-43
-42
-41
-40
-40
-39
-38
-38
-38
-37
-37
-37
-36
-36
-36
-35
-35
-35
-34
-33
-33
-32
-31
-31
-30
-30
-30
-30
-29
-29
-28
-27
-27
-27
-27
-27
-26
-26
-26
-26
-25
-24
-24
-23
-23
-22
-22
-22
-22
-21
-21
-20
-20
-19
-19
-18
-18
-18
-17
-16
-15
-15
-14
-15
-14
-13
-13
-12
-11
-11
-11
-10
-9
-9
-8
-7
-7
-7
-6
-5
-4
-3
-3
-2
-1
0
1
1
2
2
3
4
5
5
7
7
7
9
10
11
11
12
13
14
15
16
17
18
19
21
21
22
24
25
26
28
29
30
31
33
35
36
38
38
41
42
43
45
46
47
49
51
52
53
55
56
58
59
60
62
63
65
66
68
69
70
71
72
74
75
76
78
78
79
81
81
82
83
83
84
85
86
87
87
87
88
89
89
88
88
89
89
89
88
88
88
87
88
87
87
86
85
85
85
83
82
82
81
80
79
78
77
76
74
73
71
70
68
67
66
65
64
62
60
58
56
54
52
51
49
47
45
43
40
39
37
34
32
30
28
26
24
22
20
18
16
13
11
10
7
5
4
1
-1
-3
-5
-6
-8
-9
-11
-12
-14
-15
-17
-19
-21
-22
-24
-25
-27
-28
-29
-31
-32
-34
-35
-36
-38
-39
-40
-41
-43
-43
-45
-45
-46
-47
-47
-49
-49
-50
-51
-51
-52
-52
-53
-54
-55
-54
-55
-55
-56
-56
-56
-57
-57
-58
-58
-59
-59
-59
-59
-59
-59
-60
-60
-61
-61
-61
-61
-61
-62
-62
-62
-62
-63
-62
-63
-63
-63
-63
-63
-63
-64
-64
-64
-64
-64
-64
-65
-65
-65
-64
-65
-65
-65
-66
-65
-65
-65
-65
-65
-65
-65
-65
-66
-66
-66
-66
-65
-65
-65
-65
-65
-65
-65
-65
-65
-65
-65
-65
-64
-64
-64
-64
-65
-64
-64
-64
-64
-63
-63
-64
-63
-62
-62
-62
-62
-62
-62
-62
-61
-61
-61
-61
-61
-61
-60
-61
-60
-60
-59
-59
-58
-58
-59
-58
-58
-58
-58
-57
-57
-57
-56
-56
-56
-57
-56
-56
-55
-56
-55
-55
-54
-54
-54
-54
-54
-54
-54
-54
-53
-53
-53
-53
-53
-53
-53
-53
-53
-53
-53
-52
-52
-51
-51
-51
-51
-52
-52
-51
-52
-52
-52
-52
-52
-51
-52
-51
-52
-52
-51
-51
-51
-51
-51
-51
-52
-52
-52
-52
-52
-52
-52
-51
-52
-52
-53
-52
-52
-52
-52
-53
-53
-53
-53
-53
-53
-54
-54
-54
-54
-54
-55
-55
-54
-55
-55
-55
-55
-55
-55
-55
-55
-55
-56
-56
-56
-57
-57
-57
-56
-58
-58
-58
-57
-58
-58
-58
-58
-58
-58
-59
-59
-59
-59
-59
-59
-60
-60
-60
-60
-61
-61
-61
-61
-61
-62
-62
-61
-61
-62
-61
-61
-62
-62
-62
-62
-62
-62
-62
-62
-62
-62
-62
-62
-63
-62
-62
-62
-62
-62
-62
-62
-63
-63
-62
-63
-63
-63
-63
-64
-64
-64
-64
-63
-64
-64
-64
-63
-63
-64
-64
-63
-64
-64
-63
-64
-64
-64
-64
-64
-64
-64
-65
-64
-65
-65
-65
-65
-65
-65
-65
-65
-65
-65
-66
-66
-67
-66
-67
-67
-67
-67
-67
-68
-68
-68
-68
-68
-68
-68
-68
-68
-68
-68
-68
-68
-68
-68
-68
-68
-68
-68
-68
-68
-69
-69
-68
-68
-68
-68
-68
-68
-68
-68
-67
-67
-68
-68
-68
-67
-66
-66
-66
-65
-65
-65
-64
-63
-63
-63
-62
-61
-60
-60
-60
-59
-58
-58
-58
-57
-57
-56
-56
-56
-56
-56
-55
-55
-55
-55
-55
-55
-55
-55
-55
-55
-55
-55
-54
-54
-54
-55
-54
-54
-54
-53
-53
-53
-53
-53
-52
-52
-51
-52
-52
-53
-52
-53
-53
-54
-54
-55
-55
-56
-58
-58
-60
-60
-61
-62
-62
-64
-65
-65
-65
-65
-67
-67
-67
-68
-68
-68
-68
-68
-69
-69
-69
-69
-69
-69
-69
-69
-69
-68
-69
-69
-69
-68
-69
-68
-69
-69
-69
-69
-70
-70
-71
-70
-70
-71
-71
-71
-71
-72
-72
-72
-72
-73
-73
-73
-73
-74
-74
-74
-75
-75
-75
-75
-75
-76
-76
-76
-76
-76
-76
-76
-77
-76
-77
-76
-76
-77
-77
-77
-77
-77
-77
-76
-77
-77
-77
-77
-77
-76
-76
-76
-76
-75
-76
-76
-76
-76
-75
-75
-76
-76
-76
-75
-75
-75
-75
-75
-75
-75
-75
-74
-74
-72
-71
-69
-66
-63
-59
-54
-50
-44
-37
-30
-21
-11
-1
10
20
33
45
57
70
82
95
108
120
133
145
155
165
173
180
187
192
195
197
196
194
191
184
177
166
155
142
125
108
89
67
44
21
-5
-30
-57
-85
-112
-140
-167
-192
-218
-242
-265
-287
-307
-326
-343
-358
-371
-381
-390
-397
-402
-405
-405
-405
-403
-399
-395
-389
-382
-374
-366
-356
-347
-337
-326
-316
-305
-294
-284
-275
-263
-253
-244
-234
-225
-215
-206
-197
-189
-180
-172
-164
-157
-149
-141
-134
-128
-121
-115
-109
-103
-97
-92
-86
-82
-78
-74
-71
-68
-65
-62
-61
-59
-57
-55
-55
-54
-52
-52
-51
-50
-50
-49
-48
-47
-47
-46
-46
-45
-46
-46
-44
-44
-45
-44
-43
-43
-43
-43
-43
-43
-42
-42
-41
-41
-41
-40
-40
-39
-38
-38
-38
-37
-37
-37
-37
-35
-35
-35
-35
-34
-34
-33
-33
-32
-32
-32
-32
-32
-31
-31
-31
-30
-30
-30
-29
-29
-29
-29
-28
-28
-27
-27
-27
-26
-25
-25
-25
-24
-23
-23
-23
-23
-22
-21
-21
-21
-19
-19
-18
-18
-18
-18
-18
-17
-15
-15
-15
-14
-14
-14
-12
-12
-11
-11
-9
-8
-8
-7
-7
-6
-6
-4
-3
-2
-1
0
1
2
3
3
4
5
6
7
8
9
11
11
11
13
14
16
17
18
19
20
21
23
24
25
27
28
29
31
32
33
34
36
37
39
40
42
43
45
46
47
48
50
51
53
55
56
57
59
60
61
62
64
65
67
68
69
70
71
72
73
74
75
76
76
78
78
78
79
79
79
80
79
79
80
80
80
80
80
80
80
79
79
79
78
78
77
76
75
75
74
73
73
72
70
69
68
67
66
65
63
62
61
59
58
56
54
52
51
49
48
46
44
43
40
39
37
35
33
32
30
28
26
23
21
20
17
15
13
11
9
7
5
2
0
-2
-3
-5
-7
-9
-11
-13
-14
-17
-18
-20
-22
-24
-25
-27
-29
-30
-32
-34
-35
-37
-38
-39
-41
-42
-43
-45
-46
-47
-48
-49
-50
-52
-52
-53
-54
-54
-56
-56
-58
-58
-59
-59
-60
-60
-61
-61
-62
-62
-63
-62
-62
-64
-63
-64
-64
-65
-66
-65
-66
-66
-67
-67
-67
-67
-67
-67
-67
-67
-67
-68
-68
-69
-69
-69
-69
-69
-69
-69
-69
-69
-70
-69
-69
-69
-69
-69
-69
-70
-70
-70
-70
-70
-69
-69
-70
-70
-70
-70
-71
-71
-70
-71
-71
-71
-71
-71
-70
-70
-71
-70
-71
-70
-71
-71
-71
-70
-70
-70
-70
-69
-69
-70
-68
-68
-68
-68
-68
-67
-67
-67
-67
-67
-66
-66
-66
-66
-66
-66
-66
-66
-65
-64
-64
-64
-64
-64
-64
-63
-63
-63
-63
-63
-63
-63
-63
-63
-62
-63
-62
-62
-62
-61
-61
-61
-61
-61
-61
-61
-61
-61
-61
-61
-61
-60
-60
-60
-60
-60
-61
-60
-59
-59
-59
-59
-59
-58
-58
-58
-57
-58
-58
-57
-58
-58
-58
-58
-57
-58
-57
-57
-58
-58
-57
-57
-57
-56
-56
-57
-56
-57
-57
-57
-57
-57
-57
-57
-57
-58
-57
-58
-58
-58
-58
-58
-58
-58
-57
-58
-58
-58
-58
-57
-58
-58
-58
-58
-58
-58
-59
-58
-58
-58
-59
-59
-59
-59
-59
-59
-59
-60
-60
-60
-60
-61
-61
-61
-61
-61
-62
-62
-62
-62
-62
-62
-62
-62
-62
-61
-62
-62
-62
-62
-63
-63
-63
-62
-63
-64
-64
-64
-63
-64
-64
-65
-65
-65
-65
-65
-65
-66
-65
-66
-66
-66
-66
-66
-67
-67
-67
-67
-67
-68
-68
-68
-68
-68
-68
-68
-68
-68
-69
-69
-68
-68
-69
-69
-69
-69
-70
-70
-69
-69
-69
-69
-70
-70
-70
-70
-70
-70
-70
-70
-70
-70
-70
-70
-70
-71
-71
-71
-70
-71
-70
-70
-70
-70
-70
-70
-70
-70
-70
-70
-69
-68
-68
-68
-68
-67
-68
-67
-66
-66
-66
-65
-65
-64
-64
-63
-63
-62
-61
-61
-61
-60
-60
-60
-59
-59
-60
-59
-58
-58
-58
-58
-58
-58
-58
-58
-58
-58
-59
-58
-58
-58
-57
-58
-59
-59
-58
-59
-59
-59
-58
-58
-59
-59
-59
-59
-60
-61
-62
-62
-63
-63
-64
-65
-66
-67
-68
-68
-69
-69
-70
-70
-71
-71
-71
-71
-72
-72
-72
-72
-72
-73
-72
-72
-73
-73
-73
-72
-72
-72
-72
-72
-72
-73
-72
-73
-72
-72
-72
-73
-73
-72
-73
-73
-74
-74
-75
-75
-74
-75
-75
-75
-76
-76
-77
-77
-77
-78
-78
-78
-78
-79
-79
-79
-80
-79
-80
-80
-79
-80
-80
-80
-80
-80
-80
-80
-80
-80
-81
-82
-81
-81
-81
-82
-82
-82
-82
-82
-82
-81
-82
-82
-82
-82
-81
-81
-81
-81
-81
-81
-80
-80
-79
-79
-80
-79
-79
-79
-79
-79
-79
-79
-79
-79
-78
-77
-77
-75
-72
-70
-66
-62
-57
-51
-45
-38
-31
-22
-12
-1
10
22
34
47
59
72
85
98
111
123
135
147
158
167
175
182
188
192
195
196
195
191
185
178
168
156
142
125
107
87
64
40
16
-12
-40
-70
-99
-129
-158
-186
-214
-240
-266
-290
-313
-334
-352
-369
-384
-396
-406
-414
-420
-424
-426
-426
-425
-422
-417
-411
-405
-396
-387
-379
-369
-359
-349
-337
-327
-316
-304
-293
-283
-272
-262
-252
-242
-232
-222
-213
-202
-194
-185
-175
-167
-159
-151
-144
-137
-129
-122
-117
-111
-105
-100
-94
-90
-86
-82
-78
-75
-72
-70
-67
-65
-63
-62
-61
-59
-58
-57
-56
-55
-54
-54
-54
-53
-53
-51
-51
-50
-50
-50
-49
-48
-48
-47
-47
-47
-46
-45
-44
-44
-44
-44
-43
-43
-43
-42
-41
-42
-41
-41
-40
-40
-39
-39
-38
-38
-37
-36
-36
-36
-35
-35
-35
-35
-34
-34
-33
-33
-32
-31
-31
-31
-31
-31
-29
-29
-29
-28
-27
-27
-27
-27
-26
-26
-25
-25
-24
-23
-23
-23
-23
-23
-22
-22
-22
-21
-20
-20
-20
-19
-19
-18
-18
-17
-16
-16
-15
-14
-13
-13
-12
-11
-10
-9
-9
-8
-7
-6
-5
-4
-4
-2
-2
-1
0
2
3
4
5
6
7
8
9
10
12
13
14
15
17
18
19
21
21
23
24
26
28
29
30
32
33
35
36
38
40
41
43
44
46
47
49
50
52
53
55
57
59
60
62
63
65
67
69
70
71
73
74
76
77
79
81
82
83
84
85
86
87
88
89
91
91
92
92
92
93
93
94
95
95
95
95
96
96
95
95
96
95
95
94
95
94
93
93
93
91
91
90
89
88
87
86
85
83
82
80
79
78
76
74
72
71
69
67
65
63
60
58
56
55
52
49
48
45
42
40
38
36
33
31
29
27
24
22
19
16
14
12
10
9
6
4
1
-1
-2
-4
-6
-9
-10
-13
-15
-16
-19
-20
-22
-24
-26
-28
-30
-31
-33
-35
-36
-38
-40
-41
-42
-43
-45
-46
-48
-48
-50
-50
-51
-52
-54
-54
-55
-56
-56
-57
-58
-59
-60
-60
-61
-61
-62
-63
-63
-63
-64
-65
-65
-65
-66
-66
-67
-66
-67
-68
-68
-69
-69
-69
-69
-69
-69
-70
-70
-70
-70
-70
-70
-70
-71
-71
-70
-70
-71
-72
-71
-72
-72
-72
-72
-72
-72
-72
-72
-72
-73
-73
-73
-74
-74
-74
-74
-74
-74
-74
-74
-75
-76
-76
-75
-75
-75
-75
-75
-75
-75
-75
-75
-75
-76
-75
-75
-75
-75
-75
-75
-75
-75
-75
-75
-74
-74
-74
-74
-74
-74
-73
-73
-73
-74
-73
-73
-73
-72
-72
-73
-72
-72
-72
-71
-70
-71
-71
-70
-70
-70
-69
-69
-69
-69
-68
-69
-68
-68
-67
-68
-67
-67
-67
-66
-66
-65
-65
-64
-64
-64
-64
-64
-63
-63
-63
-62
-62
-62
-61
-61
-62
-61
-61
-60
-60
-59
-59
-59
-59
-58
-59
-59
-58
-58
-58
-58
-58
-58
-58
-58
-57
-58
-58
-57
-57
-57
-57
-57
-57
-57
-57
-57
-56
-57
-57
-57
-57
-57
-57
-57
-57
-58
-58
-57
-57
-57
-57
-57
-57
-57
-57
-57
-57
-58
-58
-57
-58
-58
-58
-58
-58
-58
-58
-59
-59
-58
-58
-58
-59
-60
-60
-60
-60
-61
-61
-61
-60
-61
-61
-61
-62
-63
-63
-63
-62
-62
-63
-63
-63
-63
-63
-63
-63
-63
-63
-64
-64
-64
-64
-65
-65
-65
-66
-66
-66
-66
-66
-66
-66
-67
-67
-67
-66
-67
-67
-68
-68
-68
-68
-68
-69
-68
-68
-69
-69
-69
-69
-69
-69
-69
-69
-69
-69
-70
-70
-69
-70
-70
-70
-71
-71
-71
-71
-71
-72
-72
-72
-71
-72
-72
-71
-71
-72
-72
-72
-72
-72
-72
-72
-72
-73
-73
-72
-73
-73
-73
-72
-72
-73
-73
-73
-73
-73
-74
-74
-73
-73
-73
-73
-73
-74
-74
-74
-73
-74
-74
-74
-74
-74
-74
-74
-74
-74
-73
-73
-74
-74
-74
-74
-74
-73
-74
-74
-73
-74
-74
-74
-73
-73
-73
-73
-72
-73
-73
-72
-72
-71
-70
-70
-70
-70
-69
-69
-68
-68
-67
-67
-66
-66
-65
-65
-64
-63
-63
-64
-62
-62
-62
-62
-61
-62
-61
-61
-61
-61
-61
-60
-60
-60
-60
-60
-59
-59
-60
-59
-59
-59
-59
-58
-59
-59
-58
-59
-58
-58
-58
-58
-58
-58
-59
-59
-60
-61
-62
-62
-62
-63
-63
-65
-66
-67
-68
-68
-69
-70
-70
-71
-71
-71
-72
-72
-72
-73
-73
-73
-73
-74
-74
-74
-74
-74
-74
-74
-75
-74
-74
-74
-74
-74
-73
-74
-74
-75
-75
-74
-74
-74
-74
-74
-74
-75
-76
-76
-76
-76
-77
-77
-77
-77
-77
-78
-78
-79
-79
-80
-80
-80
-80
-81
-81
-81
-82
-82
-82
-82
-82
-82
-83
-83
-83
-82
-82
-83
-83
-83
-83
-82
-82
-82
-82
-83
-83
-82
-83
-82
-82
-82
-82
-82
-82
-81
-82
-82
-81
-81
-82
-82
-82
-82
-81
-81
-82
-82
-82
-81
-81
-81
-81
-81
-81
-81
-80
-80
-79
-77
-76
-73
-70
-66
-62
-56
-50
-43
-35
-28
-18
-8
3
15
27
40
52
66
79
92
105
119
131
143
155
164
174
183
190
196
200
202
202
200
196
189
180
169
157
140
123
103
81
57
32
4
-25
-55
-85
-117
-148
-177
-208
-236
-264
-291
-316
-339
-361
-380
-397
-412
-424
-435
-443
-448
-452
-455
-455
-454
-451
-446
-441
-434
-427
-419
-410
-400
-391
-380
-370
-360
-349
-338
-327
-317
-306
-294
-283
-272
-261
-251
-240
-230
-219
-208
-198
-188
-179
-169
-160
-151
-143
-135
-127
-120
-114
-107
-101
-95
-90
-86
-82
-78
-75
-71
-69
-67
-64
-63
-61
-60
-58
-58
-56
-55
-55
-55
-54
-53
-52
-51
-51
-50
-50
-50
-49
-49
-48
-47
-47
-47
-45
-45
-45
-45
-44
-44
-43
-42
-42
-41
-40
-41
-40
-39
-39
-38
-37
-37
-36
-35
-35
-34
-34
-34
-34
-33
-33
-32
-31
-31
-31
-31
-30
-29
-29
-29
-28
-28
-27
-27
-27
-26
-25
-25
-24
-23
-24
-23
-23
-22
-22
-21
-21
-21
-20
-19
-19
-18
-17
-17
-16
-16
-15
-14
-14
-14
-13
-12
-11
-11
-10
-9
-9
-8
-7
-7
-6
-6
-5
-4
-3
-2
-1
-1
1
1
2
3
4
5
6
7
8
9
10
11
12
13
15
16
17
18
19
21
22
23
25
26
28
29
31
33
34
36
37
39
40
41
44
45
46
48
50
51
53
55
56
58
60
61
63
64
67
68
69
71
72
73
75
76
78
79
80
82
83
84
85
87
87
89
90
90
91
91
92
93
93
93
94
95
95
94
95
94
94
95
95
95
94
94
93
93
92
92
91
91
89
88
89
88
86
86
84
83
81
80
79
77
76
75
74
72
70
68
66
64
63
61
59
57
55
53
50
48
45
43
41
38
36
34
31
29
26
24
22
19
17
14
11
9
7
5
2
0
-1
-4
-6
-9
-10
-12
-13
-16
-17
-20
-21
-24
-26
-27
-28
-30
-31
-34
-35
-36
-38
-39
-41
-42
-43
-45
-45
-47
-48
-49
-50
-50
-52
-53
-54
-54
-56
-56
-57
-58
-59
-60
-60
-61
-61
-61
-62
-63
-63
-64
-64
-65
-65
-65
-66
-66
-66
-67
-67
-68
-68
-69
-69
-69
-70
-70
-70
-70
-70
-71
-71
-71
-71
-71
-71
-71
-71
-71
-71
-72
-71
-72
-72
-72
-73
-73
-73
-73
-72
-73
-73
-73
-74
-74
-74
-74
-74
-74
-75
-75
-76
-75
-76
-76
-75
-75
-76
-76
-76
-76
-76
-76
-76
-76
-76
-75
-75
-75
-75
-75
-75
-75
-75
-74
-74
-74
-75
-74
-74
-74
-74
-73
-73
-73
-73
-73
-72
-72
-72
-73
-72
-72
-72
-71
-72
-71
-71
-71
-70
-70
-70
-69
-69
-69
-68
-68
-67
-67
-67
-67
-68
-67
-66
-67
-66
-66
-66
-65
-65
-65
-64
-64
-63
-63
-63
-62
-62
-62
-62
-62
-61
-61
-60
-60
-60
-59
-60
-59
-59
-59
-59
-59
-58
-58
-57
-58
-57
-57
-57
-57
-57
-57
-57
-57
-56
-56
-56
-56
-56
-57
-57
-57
-56
-57
-57
-57
-57
-57
-57
-58
-57
-58
-57
-57
-57
-57
-58
-58
-58
-57
-57
-57
-58
-57
-57
-57
-57
-57
-58
-57
-58
-57
-58
-58
-58
-59
-59
-59
-59
-59
-59
-60
-61
-60
-61
-61
-61
-62
-62
-61
-62
-63
-63
-62
-63
-63
-63
-63
-63
-63
-64
-65
-64
-64
-65
-65
-65
-65
-65
-65
-65
-65
-66
-66
-66
-66
-65
-66
-67
-67
-67
-67
-67
-67
-67
-67
-67
-68
-68
-69
-70
-69
-69
-69
-69
-69
-69
-70
-70
-70
-70
-70
-71
-71
-71
-71
-71
-71
-71
-72
-72
-73
-73
-72
-73
-73
-73
-74
-74
-74
-74
-74
-74
-74
-74
-74
-74
-74
-75
-75
-75
-75
-75
-75
-75
-75
-75
-75
-75
-75
-74
-74
-75
-75
-75
-75
-75
-75
-74
-75
-75
-75
-75
-75
-75
-75
-74
-74
-74
-74
-74
-74
-75
-75
-75
-75
-75
-75
-75
-76
-75
-76
-76
-75
-75
-75
-76
-76
-76
-76
-76
-76
-76
-76
-76
-76
-76
-76
-77
-76
-77
-77
-77
-76
-77
-77
-76
-76
-76
-77
-77
-77
-77
-77
-76
-77
-77
-77
-77
-77
-77
-77
-77
-77
-77
-76
-76
-76
-77
-77
-77
-77
-77
-77
-77
-77
-77
-77
-77
-78
-77
-77
-78
-78
-77
-77
-77
-77
-77
-78
-77
-77
-78
-78
-78
-77
-77
-78
-78
-78
-78
-78
-78
-78
-78
-78
-79
-79
-78
-78
-78
-78
-78
-79
-78
-78
-78
-78
-77
-78
-77
-77
-76
-76
-75
-75
-74
-73
-73
-72
-72
-71
-71
-70
-69
-69
-68
-68
-67
-67
-67
-66
-66
-66
-66
-65
-65
-65
-65
-65
-65
-64
-64
-64
-64
-64
-63
-63
-63
-63
-63
-62
-62
-62
-62
-61
-61
-60
-60
-60
-60
-60
-59
-60
-60
-60
-60
-61
-62
-63
-63
-64
-64
-66
-66
-67
-68
-68
-70
-70
-71
-72
-72
-73
-74
-74
-74
-74
-75
-75
-76
-76
-76
-76
-76
-76
-76
-76
-77
-76
-77
-76
-76
-77
-77
-77
-77
-77
-77
-77
-78
-78
-78
-78
-79
-79
-79
-80
-80
-80
-80
-80
-81
-81
-81
-82
-82
-83
-83
-84
-83
-84
-84
-85
-85
-85
-85
-85
-85
-85
-86
-86
-86
-86
-86
-86
-86
-86
-86
-87
-87
-87
-87
-87
-87
-86
-86
-87
-87
-87
-87
-87
-86
-86
-86
-87
-87
-87
-87
-87
-87
-87
-87
-86
-86
-86
-86
-86
-86
-86
-86
-85
-86
-86
-86
-85
-85
-84
-83
-82
-81
-79
-76
-72
-68
-64
-58
-52
-44
-36
-28
-19
-9
2
14
26
38
51
64
76
90
103
115
127
139
150
160
168
175
182
187
190
191
189
187
182
175
165
154
141
125
107
88
66
43
19
-8
-35
-64
-93
-123
-152
-181
-209
-237
-263
-289
-314
-336
-356
-376
-393
-408
-420
-431
-440
-446
-452
-455
-456
-456
-454
-452
-447
-441
-435
-428
-420
-412
-403
-394
-384
-373
-363
-353
-342
-331
-321
-310
-299
-288
-277
-267
-256
-244
-234
-223
-213
-203
-193
-183
-173
-164
-154
-146
-137
-129
-121
-115
-108
-102
-97
-92
-87
-83
-79
-76
-74
-71
-69
-67
-66
-64
-62
-61
-60
-59
-58
-58
-57
-56
-56
-55
-55
-54
-55
-54
-53
-53
-52
-52
-51
-50
-49
-49
-49
-48
-47
-46
-46
-46
-45
-45
-44
-43
-42
-42
-41
-41
-41
-40
-40
-39
-39
-38
-38
-37
-37
-37
-36
-36
-36
-35
-34
-34
-34
-33
-33
-33
-33
-32
-32
-32
-31
-31
-31
-30
-30
-29
-28
-28
-27
-27
-26
-25
-25
-25
-24
-24
-24
-23
-23
-23
-22
-21
-20
-20
-19
-19
-18
-17
-17
-17
-16
-16
-15
-14
-14
-13
-12
-12
-11
-10
-9
-8
-7
-6
-5
-4
-3
-2
-1
0
1
2
3
4
5
6
7
8
9
10
12
13
14
16
16
18
19
20
21
22
24
26
28
29
30
31
33
34
36
37
39
40
41
43
45
46
48
49
50
52
53
55
57
57
60
61
62
63
65
66
68
68
70
72
72
73
74
76
77
77
78
79
80
80
82
82
81
82
83
83
83
83
83
83
84
84
83
83
83
83
82
82
81
81
80
79
78
78
76
76
75
74
73
72
70
70
69
67
66
64
63
61
60
58
56
55
53
51
50
48
46
44
42
40
38
36
34
32
29
28
25
23
21
19
16
15
12
10
7
5
4
1
-1
-1
-3
-6
-8
-9
-11
-13
-16
-17
-18
-20
-22
-24
-25
-27
-29
-30
-32
-34
-35
-35
-37
-38
-40
-41
-42
-44
-45
-46
-48
-48
-50
-51
-52
-53
-54
-56
-56
-57
-58
-58
-60
-60
-61
-62
-62
-63
-64
-64
-65
-65
-66
-67
-67
-67
-68
-69
-68
-68
-68
-69
-69
-69
-69
-70
-70
-70
-70
-70
-71
-70
-71
-71
-71
-72
-72
-72
-72
-71
-72
-72
-72
-72
-73
-72
-73
-73
-72
-73
-74
-74
-74
-74
-74
-73
-74
-74
-74
-74
-75
-75
-75
-75
-75
-75
-75
-75
-75
-75
-74
-74
-74
-74
-74
-74
-74
-74
-74
-74
-74
-73
-73
-73
-73
-73
-73
-73
-73
-73
-72
-72
-72
-72
-73
-73
-72
-72
-72
-71
-71
-70
-70
-70
-71
-70
-70
-70
-70
-70
-69
-68
-68
-68
-68
-68
-68
-68
-67
-67
-66
-66
-66
-66
-66
-65
-65
-65
-65
-65
-65
-64
-64
-64
-63
-64
-63
-63
-63
-63
-62
-62
-62
-62
-62
-61
-61
-61
-61
-61
-60
-60
-60
-60
-60
-60
-60
-60
-60
-60
-60
-59
-59
-59
-59
-60
-59
-60
-60
-59
-59
-59
-59
-59
-59
-60
-60
-60
-60
-59
-59
-59
-59
-60
-60
-60
-60
-60
-60
-61
-60
-60
-60
-61
-60
-61
-60
-60
-61
-60
-60
-60
-60
-61
-61
-60
-60
-61
-61
-61
-61
-62
-62
-63
-62
-63
-64
-64
-63
-63
-63
-64
-65
-65
-65
-65
-65
-65
-66
-66
-66
-66
-66
-66
-66
-67
-67
-67
-67
-67
-68
-68
-68
-68
-68
-68
-68
-68
-68
-68
-68
-69
-69
-69
-70
-69
-70
-70
-71
-71
-71
-71
-71
-71
-72
-71
-72
-72
-72
-72
-73
-73
-73
-73
-74
-74
-74
-74
-74
-73
-74
-74
-74
-74
-74
-74
-74
-75
-75
-75
-75
-74
-74
-75
-75
-76
-76
-76
-76
-75
-75
-75
-75
-75
-75
-76
-76
-75
-75
-75
-76
-76
-76
-76
-75
-76
-75
-76
-76
-76
-75
-75
-75
-75
-76
-76
-76
-76
-76
-76
-76
-76
-77
-77
-76
-77
-77
-77
-77
-77
-77
-77
-77
-77
-77
-77
-77
-78
-77
-77
-78
-78
-78
-78
-79
-78
-79
-79
-78
-79
-79
-79
-79
-79
-78
-78
-78
-78
-79
-78
-78
-78
-78
-78
-78
-78
-78
-78
-78
-78
-78
-78
-78
-78
-78
-78
-78
-78
-78
-77
-78
-78
-78
-78
-78
-78
-79
-79
-79
-78
-78
-78
-78
-78
-78
-79
-79
-79
-78
-78
-79
-78
-78
-78
-79
-78
-79
-79
-79
-78
-79
-79
-79
-79
-79
-79
-79
-80
-79
-79
-79
-79
-79
-78
-78
-78
-77
-78
-77
-76
-76
-75
-75
-73
-73
-72
-72
-71
-71
-70
-69
-69
-69
-68
-67
-67
-67
-67
-65
-65
-65
-65
-64
-64
-64
-64
-64
-63
-63
-62
-62
-62
-62
-62
-62
-63
-62
-62
-62
-61
-60
-60
-60
-59
-59
-59
-59
-58
-59
-59
-58
-58
-58
-58
-58
-59
-60
-60
-61
-61
-62
-63
-64
-64
-66
-66
-68
-68
-69
-71
-71
-72
-73
-73
-74
-75
-75
-75
-76
-76
-76
-76
-76
-76
-76
-76
-76
-76
-76
-76
-75
-76
-75
-75
-75
-76
-76
-76
-76
-76
-76
-76
-77
-77
-77
-77
-78
-78
-79
-79
-80
-80
-80
-80
-81
-81
-82
-83
-83
-83
-83
-83
-83
-83
-83
-84
-84
-85
-84
-84
-85
-84
-85
-85
-85
-86
-86
-86
-85
-85
-85
-85
-84
-84
-85
-85
-85
-85
-85
-85
-85
-84
-84
-84
-85
-85
-85
-85
-84
-84
-84
-83
-84
-83
-83
-84
-84
-83
-83
-83
-84
-84
-84
-84
-82
-82
-82
-80
-78
-75
-72
-69
-64
-59
-53
-46
-39
-32
-23
-13
-3
9
20
32
44
57
68
81
94
107
119
131
141
151
160
168
174
179
183
185
186
184
181
175
167
157
146
132
116
99
80
59
36
13
-13
-39
-67
-96
-124
-152
-180
-207
-234
-259
-284
-307
-329
-349
-367
-383
-398
-410
-420
-429
-435
-439
-442
-444
-444
-441
-438
-433
-428
-421
-413
-406
-398
-388
-378
-368
-358
-347
-338
-326
-317
-306
-296
-286
-275
-265
-253
-243
-233
-222
-212
-203
-193
-183
-174
-165
-157
-147
-139
-131
-124
-116
-110
-104
-98
-94
-88
-84
-81
-77
-75
-72
-69
-67
-65
-64
-62
-61
-60
-59
-58
-57
-57
-56
-56
-55
-54
-53
-52
-53
-52
-52
-51
-51
-50
-49
-48
-48
-47
-47
-47
-47
-46
-46
-45
-44
-44
-44
-43
-43
-43
-42
-42
-41
-41
-41
-40
-40
-39
-39
-38
-37
-38
-38
-37
-36
-35
-36
-35
-34
-34
-34
-34
-34
-33
-32
-32
-31
-31
-31
-30
-30
-29
-29
-29
-29
-28
-27
-27
-26
-26
-26
-25
-25
-24
-23
-23
-22
-22
-21
-21
-20
-20
-20
-20
-20
-19
-18
-17
-17
-16
-16
-15
-14
-14
-13
-12
-11
-11
-10
-9
-8
-8
-7
-6
-5
-5
-3
-3
-2
-1
0
1
2
3
4
6
7
8
9
10
12
13
14
15
17
18
20
21
22
23
24
25
27
28
29
31
32
34
35
36
38
39
40
41
42
44
45
46
49
49
51
52
53
54
56
57
59
60
61
62
63
65
65
66
68
69
69
70
70
71
71
72
72
73
74
74
74
74
75
75
75
74
75
74
73
73
74
73
73
72
71
70
70
70
69
68
67
66
66
65
63
62
61
60
59
58
57
55
53
52
51
49
47
45
44
43
41
39
37
36
34
32
30
28
26
25
22
21
19
16
14
12
9
8
6
5
2
1
0
-2
-4
-6
-8
-9
-12
-13
-14
-15
-18
-19
-21
-23
-24
-25
-27
-28
-30
-31
-32
-35
-36
-38
-39
-40
-41
-43
-45
-46
-47
-48
-49
-50
-52
-52
-54
-54
-55
-56
-56
-58
-58
-58
-59
-60
-61
-61
-61
-62
-63
-63
-64
-65
-65
-65
-66
-66
-66
-67
-67
-68
-68
-68
-69
-70
-70
-70
-70
-70
-70
-70
-71
-72
-72
-72
-71
-71
-71
-72
-72
-72
-71
-71
-71
-72
-72
-71
-72
-72
-72
-71
-72
-72
-72
-72
-73
-73
-73
-73
-73
-73
-73
-73
-73
-73
-73
-73
-72
-72
-72
-72
-73
-72
-72
-72
-72
-72
-72
-71
-71
-71
-71
-71
-71
-70
-70
-69
-69
-69
-69
-69
-69
-69
-68
-69
-68
-68
-67
-67
-66
-66
-66
-66
-66
-65
-66
-65
-65
-65
-65
-65
-65
-64
-64
-64
-63
-64
-63
-63
-63
-62
-62
-62
-62
-62
-61
-61
-61
-61
-60
-60
-60
-60
-60
-59
-60
-59
-59
-59
-58
-58
-58
-58
-58
-58
-58
-58
-58
-58
-58
-58
-58
-57
-57
-58
-58
-57
-57
-57
-57
-57
-57
-57
-57
-57
-57
-57
-57
-57
-57
-57
-57
-58
-58
-58
-58
-58
-58
-57
-58
-58
-58
-57
-58
-58
-58
-58
-57
-58
-58
-58
-58
-59
-59
-58
-58
-58
-59
-59
-59
-59
-59
-58
-59
-59
-59
-59
-60
-60
-60
-60
-60
-61
-61
-61
-61
-61
-61
-61
-61
-62
-62
-62
-62
-63
-63
-63
-63
-63
-64
-64
-64
-64
-64
-64
-64
-64
-65
-65
-65
-65
-66
-66
-66
-66
-67
-66
-66
-67
-68
-68
-67
-68
-68
-68
-68
-69
-69
-69
-69
-69
-69
-69
-69
-69
-70
-69
-69
-69
-70
-70
-70
-70
-70
-70
-71
-71
-71
-71
-71
-71
-71
-72
-72
-71
-72
-72
-72
-72
-72
-73
-72
-73
-73
-73
-73
-73
-73
-73
-73
-74
-74
-74
-74
-75
-75
-75
-75
-75
-75
-75
-75
-75
-75
-75
-75
-75
-75
-75
-75
-75
-75
-75
-75
-75
-75
-75
-75
-75
-75
-75
-75
-75
-75
-75
-75
-75
-74
-74
-74
-74
-74
-74
-74
-75
-75
-75
-74
-74
-74
-74
-75
-76
-76
-76
-76
-76
-75
-75
-76
-77
-76
-76
-77
-76
-76
-76
-76
-76
-76
-76
-75
-74
-75
-74
-74
-73
-72
-71
-71
-70
-70
-69
-68
-68
-67
-67
-67
-66
-66
-65
-65
-65
-64
-64
-64
-64
-64
-64
-63
-63
-63
-63
-63
-63
-62
-62
-62
-62
-62
-61
-62
-62
-62
-62
-62
-62
-61
-61
-61
-61
-61
-62
-61
-62
-62
-63
-63
-64
-65
-66
-67
-67
-68
-69
-70
-70
-72
-72
-72
-73
-74
-74
-76
-76
-76
-76
-77
-77
-77
-77
-77
-78
-78
-78
-77
-77
-77
-77
-77
-77
-76
-77
-76
-77
-76
-76
-76
-76
-76
-76
-76
-77
-77
-77
-77
-77
-77
-78
-78
-78
-78
-79
-79
-79
-81
-81
-81
-81
-81
-81
-82
-82
-83
-83
-83
-83
-83
-83
-84
-84
-83
-83
-83
-83
-84
-83
-83
-84
-84
-84
-83
-84
-84
-84
-83
-83
-84
-84
-84
-84
-83
-83
-83
-83
-84
-83
-83
-83
-83
-83
-83
-83
-83
-83
-82
-82
-82
-82
-82
-82
-82
-82
-82
-82
-82
-81
-80
-78
-76
-73
-70
-67
-62
-57
-51
-44
-36
-28
-20
-10
2
13
24
37
49
63
75
88
100
113
125
137
147
157
166
174
180
186
189
190
190
188
184
178
170
160
148
135
118
101
81
60
38
13
-12
-39
-67
-94
-122
-150
-177
-203
-229
-253
-277
-298
-318
-337
-354
-368
-381
-391
-400
-406
-410
-413
-413
-412
-410
-406
-401
-394
-387
-378
-370
-361
-350
-340
-330
-319
-308
-298
-288
-277
-266
-256
-247
-237
-227
-218
-208
-200
-191
-183
-175
-166
-159
-152
-144
-137
-130
-124
-118
-112
-106
-101
-95
-91
-86
-83
-79
-76
-73
-71
-68
-66
-64
-62
-61
-60
-58
-58
-56
-55
-55
-54
-54
-54
-53
-53
-52
-51
-51
-51
-50
-50
-49
-49
-49
-48
-47
-48
-48
-47
-46
-46
-45
-45
-44
-44
-43
-43
-43
-42
-42
-41
-42
-41
-41
-41
-40
-40
-39
-39
-38
-37
-37
-37
-36
-36
-36
-35
-35
-34
-34
-34
-33
-33
-32
-32
-31
-31
-31
-31
-30
-29
-29
-28
-28
-28
-28
-27
-27
-26
-26
-26
-25
-25
-25
-24
-24
-23
-23
-23
-23
-22
-21
-20
-19
-19
-20
-19
-18
-18
-17
-16
-15
-14
-13
-13
-12
-11
-11
-10
-9
-7
-7
-6
-5
-4
-3
-2
-2
0
0
1
3
3
4
5
6
6
8
9
10
11
12
14
15
16
17
18
19
21
22
23
24
27
28
29
30
31
33
35
37
38
40
41
43
44
46
47
49
50
52
53
55
56
57
59
60
61
62
63
65
66
67
69
70
70
71
72
73
73
75
75
76
76
76
77
77
78
77
78
77
78
78
78
78
78
77
77
76
76
75
75
74
74
73
72
72
70
70
69
68
67
66
65
64
62
62
61
59
57
55
53
52
50
49
47
45
43
41
40
38
35
33
31
29
28
25
24
21
20
18
15
13
11
10
7
5
3
1
0
-2
-4
-5
-7
-9
-10
-13
-14
-17
-18
-20
-21
-24
-25
-27
-29
-31
-33
-34
-35
-37
-38
-40
-41
-43
-44
-45
-47
-47
-49
-51
-51
-52
-54
-55
-55
-56
-57
-58
-59
-60
-60
-62
-62
-63
-63
-64
-65
-65
-65
-66
-67
-67
-67
-67
-68
-68
-69
-69
-69
-70
-70
-70
-70
-70
-70
-70
-71
-71
-72
-72
-72
-72
-72
-72
-72
-73
-73
-73
-73
-74
-74
-73
-73
-73
-74
-73
-73
-74
-74
-75
-75
-75
-75
-75
-75
-75
-75
-76
-76
-75
-76
-76
-76
-76
-76
-76
-76
-76
-75
-76
-76
-75
-75
-75
-75
-74
-75
-74
-74
-73
-74
-74
-73
-73
-73
-73
-72
-72
-72
-72
-71
-72
-72
-71
-71
-72
-71
-71
-71
-71
-71
-71
-70
-70
-70
-71
-71
-71
-70
-70
-70
-69
-69
-69
-69
-68
-69
-69
-69
-68
-67
-67
-67
-67
-67
-67
-66
-66
-65
-65
-65
-64
-65
-65
-64
-64
-64
-64
-64
-64
-64
-64
-64
-64
-64
-63
-63
-63
-63
-62
-63
-63
-63
-63
-63
-62
-63
-63
-63
-62
-62
-63
-63
-63
-63
-62
-62
-62
-62
-62
-62
-63
-62
-62
-62
-63
-63
-63
-63
-62
-62
-62
-62
-62
-62
-62
-62
-62
-62
-63
-63
-62
-62
-63
-62
-62
-63
-63
-63
-63
-63
-63
-63
-64
-64
-64
-64
-65
-65
-66
-66
-66
-66
-66
-66
-67
-67
-67
-67
-67
-67
-67
-67
-67
-67
-67
-68
-68
-68
-68
-68
-68
-68
-68
-68
-68
-69
-69
-69
-69
-69
-69
-69
-70
-70
-70
-70
-70
-71
-70
-70
-71
-71
-72
-71
-72
-71
-72
-72
-72
-72
-72
-72
-72
-73
-73
-72
-74
-74
-73
-74
-74
-74
-74
-74
-74
-75
-75
-75
-75
-74
-74
-75
-75
-75
-75
-75
-75
-75
-75
-75
-75
-75
-75
-75
-76
-76
-76
-76
-76
-76
-76
-76
-76
-76
-76
-76
-76
-76
-76
-76
-76
-77
-76
-76
-76
-77
-77
-77
-77
-76
-76
-76
-76
-76
-76
-76
-76
-76
-76
-76
-76
-76
-76
-76
-76
-76
-76
-76
-76
-76
-76
-76
-76
-76
-76
-76
-76
-76
-76
-77
-76
-76
-76
-76
-77
-77
-77
-77
-77
-76
-76
-76
-77
-76
-75
-75
-75
-75
-75
-74
-74
-73
-73
-72
-73
-72
-71
-71
-70
-70
-70
-68
-68
-68
-67
-67
-66
-66
-66
-66
-66
-65
-65
-64
-65
-65
-65
-65
-65
-65
-65
-65
-64
-64
-64
-64
-64
-63
-63
-63
-63
-63
-62
-62
-62
-62
-61
-61
-62
-62
-61
-62
-63
-63
-64
-64
-65
-66
-68
-68
-69
-69
-71
-72
-73
-74
-74
-75
-75
-76
-76
-75
-76
-77
-76
-76
-77
-76
-77
-76
-76
-77
-77
-76
-76
-76
-77
-77
-77
-76
-77
-76
-76
-77
-77
-77
-77
-77
-77
-77
-78
-77
-77
-78
-78
-79
-78
-79
-79
-79
-80
-80
-80
-81
-81
-81
-82
-82
-83
-83
-82
-82
-82
-83
-83
-84
-84
-84
-85
-84
-84
-84
-85
-85
-85
-85
-85
-85
-85
-85
-86
-85
-85
-85
-84
-85
-85
-84
-85
-84
-84
-84
-84
-83
-83
-83
-83
-83
-83
-83
-82
-82
-82
-82
-83
-83
-84
-84
-83
-83
-83
-83
-82
-82
-82
-81
-80
-78
-75
-72
-67
-62
-57
-51
-45
-37
-30
-19
-10
1
14
26
38
51
64
77
90
103
116
129
141
152
163
171
179
187
192
195
197
197
195
190
185
175
165
151
136
118
99
78
55
31
4
-25
-54
-85
-115
-145
-175
-203
-231
-258
-283
-307
-330
-351
-369
-385
-400
-411
-421
-428
-433
-437
-438
-439
-437
-433
-428
-422
-415
-407
-398
-390
-380
-369
-359
-349
-337
-327
-316
-305
-295
-284
-274
-263
-254
-244
-233
-224
-213
-203
-194
-185
-176
-168
-159
-151
-144
-136
-129
-122
-115
-109
-104
-99
-94
-89
-85
-80
-77
-74
-71
-69
-67
-64
-63
-62
-60
-59
-58
-57
-56
-55
-55
-54
-54
-53
-52
-52
-51
-50
-50
-49
-48
-49
-48
-48
-47
-46
-46
-45
-44
-44
-44
-44
-44
-42
-43
-42
-42
-40
-40
-40
-39
-39
-38
-38
-38
-38
-37
-37
-36
-36
-36
-35
-35
-35
-34
-33
-32
-32
-32
-32
-31
-30
-30
-30
-29
-29
-28
-27
-27
-27
-26
-26
-25
-25
-25
-24
-23
-23
-22
-22
-22
-22
-21
-21
-20
-20
-20
-19
-19
-17
-17
-17
-17
-15
-14
-14
-13
-12
-12
-11
-10
-10
-9
-7
-7
-6
-5
-5
-3
-2
-2
-2
0
1
2
3
4
5
6
7
8
9
11
11
13
14
16
17
18
20
20
22
23
24
26
27
29
30
32
33
35
37
38
39
40
43
45
46
48
49
51
53
53
55
58
58
61
62
64
65
67
69
70
71
73
74
76
77
78
79
81
81
83
84
85
86
87
87
89
89
90
90
90
91
92
92
92
93
93
93
93
93
92
93
92
92
92
92
91
91
90
89
89
88
88
86
85
84
83
82
81
79
78
76
75
73
72
70
69
68
66
64
62
60
57
56
53
51
49
47
45
42
39
37
35
33
30
28
26
22
21
18
16
13
11
8
6
4
2
1
-2
-5
-6
-9
-11
-13
-15
-16
-19
-20
-22
-24
-25
-28
-29
-31
-32
-34
-35
-37
-39
-40
-42
-43
-44
-46
-47
-48
-49
-50
-51
-52
-53
-54
-55
-56
-57
-58
-58
-59
-59
-61
-62
-62
-62
-62
-64
-64
-64
-65
-65
-65
-66
-67
-67
-68
-67
-67
-68
-69
-69
-69
-69
-70
-69
-70
-70
-70
-71
-71
-71
-71
-71
-71
-71
-72
-72
-72
-72
-72
-72
-73
-73
-73
-73
-73
-73
-74
-74
-74
-74
-74
-74
-74
-74
-74
-74
-74
-74
-74
-75
-75
-75
-75
-75
-76
-76
-76
-76
-76
-76
-76
-76
-76
-77
-77
-77
-76
-77
-77
-77
-76
-77
-77
-77
-76
-76
-76
-76
-75
-75
-75
-75
-75
-75
-75
-74
-74
-74
-74
-74
-74
-73
-73
-73
-73
-72
-72
-71
-71
-71
-70
-70
-70
-70
-68
-69
-68
-68
-68
-68
-67
-67
-67
-66
-66
-65
-65
-64
-64
-64
-63
-63
-63
-63
-63
-62
-63
-63
-61
-61
-61
-61
-61
-60
-60
-60
-60
-60
-60
-60
-60
-59
-59
-58
-58
-59
-59
-59
-58
-59
-58
-58
-58
-58
-57
-57
-57
-57
-57
-57
-57
-57
-57
-57
-57
-57
-57
-57
-57
-57
-57
-57
-58
-57
-57
-57
-56
-56
-57
-57
-56
-57
-57
-57
-57
-57
-57
-57
-58
-58
-57
-58
-58
-58
-59
-59
-59
-59
-59
-59
-59
-59
-59
-60
-60
-60
-60
-60
-60
-60
-61
-61
-61
-61
-62
-62
-62
-62
-62
-63
-63
-63
-63
-64
-64
-64
-64
-64
-65
-65
-66
-65
-66
-65
-66
-66
-66
-66
-67
-67
-67
-67
-67
-68
-68
-68
-67
-68
-68
-68
-69
-69
-70
-69
-69
-70
-70
-70
-70
-70
-70
-70
-70
-70
-71
-70
-70
-70
-70
-71
-71
-72
-71
-72
-72
-72
-72
-72
-72
-72
-72
-72
-72
-73
-73
-73
-72
-73
-73
-73
-74
-73
-74
-73
-74
-74
-74
-73
-73
-73
-73
-73
-73
-73
-73
-73
-73
-74
-74
-74
-73
-74
-74
-74
-74
-73
-73
-74
-74
-74
-74
-74
-75
-74
-74
-75
-75
-75
-75
-75
-75
-75
-75
-75
-76
-76
-76
-75
-75
-75
-75
-75
-75
-75
-75
-75
-75
-75
-75
-75
-76
-76
-76
-76
-76
-76
-76
-75
-76
-76
-76
-76
-76
-76
-76
-77
-76
-77
-77
-77
-76
-77
-77
-77
-77
-77
-77
-76
-76
-76
-76
-76
-76
-77
-77
-76
-76
-76
-76
-76
-77
-76
-76
-76
-77
-77
-76
-76
-76
-76
-76
-76
-76
-76
-76
-76
-76
-76
-76
-77
-77
-78
-77
-77
-77
-77
-77
-77
-77
-77
-77
-77
-77
-78
-78
-78
-77
-77
-77
-77
-78
-77
-78
-77
-77
-78
-78
-77
-77
-77
-77
-77
-77
-77
-77
-77
-77
-77
-77
-77
-78
-78
-78
-78
-78
-77
-77
-78
-78
-78
-78
-78
-78
-77
-77
-77
-78
-77
-77
-78
-78
-79
-78
-78
-78
-79
-79
-79
-79
-78
-78
-78
-78
-79
-79
-79
-78
-79
-79
-79
-79
-79
-79
-80
-79
-79
-79
-78
-79
-79
-79
-78
-78
-78
-78
-78
-77
-77
-76
-76
-76
-75
-74
-74
-73
-73
-72
-71
-71
-71
-70
-69
-68
-68
-67
-67
-67
-67
-66
-66
-66
-66
-65
-65
-65
-65
-65
-65
-65
-64
-64
-64
-64
-65
-64
-64
-63
-64
-63
-63
-62
-62
-61
-61
-60
-60
-60
-58
-58
-59
-59
-59
-58
-58
-59
-59
-59
-59
-60
-62
-63
-63
-64
-65
-66
-66
-68
-68
-69
-70
-71
-71
-72
-72
-74
-73
-74
-74
-75
-74
-75
-76
-76
-75
-75
-75
-75
-75
-75
-75
-75
-76
-76
-76
-76
-76
-76
-76
-77
-77
-78
-78
-78
-79
-79
-79
-79
-79
-79
-80
-81
-81
-81
-81
-82
-82
-82
-82
-83
-83
-83
-83
-84
-84
-83
-84
-84
-84
-84
-84
-85
-84
-84
-84
-84
-85
-85
-84
-84
-84
-85
-85
-85
-85
-85
-84
-84
-84
-84
-84
-84
-84
-84
-84
-85
-84
-84
-84
-83
-83
-84
-83
-84
-83
-83
-83
-82
-83
-83
-83
-82
-81
-79
-78
-76
-72
-68
-64
-59
-53
-47
-40
-32
-24
-14
-5
6
17
29
41
53
65
78
89
102
113
125
135
145
154
163
169
175
179
182
184
183
181
176
170
162
151
138
124
106
87
66
44
20
-7
-35
-64
-94
-124
-154
-183
-212
-240
-267
-294
-319
-342
-364
-383
-401
-415
-429
-440
-448
-455
-459
-461
-462
-461
-459
-455
-450
-443
-436
-429
-420
-411
-402
-392
-382
-371
-361
-350
-340
-329
-317
-307
-296
-285
-274
-263
-252
-241
-231
-221
-210
-200
-189
-180
-170
-161
-151
-143
-135
-128
-119
-113
-107
-101
-96
-90
-86
-81
-78
-74
-71
-69
-66
-65
-63
-62
-60
-59
-57
-56
-56
-56
-55
-55
-53
-52
-51
-51
-50
-50
-49
-49
-48
-47
-47
-46
-45
-44
-44
-44
-42
-42
-42
-41
-40
-40
-39
-38
-38
-38
-37
-37
-37
-36
-35
-35
-34
-34
-34
-34
-33
-33
-33
-33
-32
-31
-31
-30
-30
-29
-29
-28
-28
-27
-27
-27
-27
-26
-26
-25
-25
-24
-24
-23
-23
-23
-23
-23
-22
-22
-21
-21
-20
-20
-18
-19
-18
-17
-16
-16
-16
-16
-14
-14
-14
-13
-12
-11
-10
-10
-9
-8
-8
-6
-6
-5
-4
-3
-2
-1
-1
0
1
2
3
4
5
6
7
8
9
11
12
12
14
15
16
18
19
20
21
23
24
25
27
28
29
30
32
34
34
36
38
40
41
42
44
45
47
48
50
51
53
55
56
58
60
61
62
64
66
67
69
69
72
73
74
75
77
78
79
81
81
82
84
85
86
87
88
90
91
92
92
92
93
94
94
95
95
96
96
95
95
95
95
96
95
95
95
94
94
93
92
92
91
91
90
89
88
87
86
85
84
83
81
80
79
78
77
75
74
72
70
68
66
64
62
60
58
56
55
52
50
48
46
44
42
40
37
35
32
30
28
25
23
21
19
17
14
11
10
7
4
3
0
-1
-2
-4
-6
-9
-10
-13
-14
-16
-18
-19
-21
-23
-25
-26
-28
-30
-31
-33
-35
-35
-36
-38
-40
-41
-42
-43
-44
-45
-46
-47
-49
-49
-50
-51
-52
-53
-54
-54
-55
-56
-57
-57
-58
-58
-58
-59
-59
-61
-61
-61
-61
-62
-62
-62
-63
-64
-64
-64
-64
-64
-65
-65
-65
-65
-65
-65
-65
-65
-66
-66
-66
-67
-67
-67
-66
-67
-68
-68
-67
-68
-68
-68
-68
-68
-68
-68
-68
-68
-69
-69
-69
-69
-69
-69
-70
-69
-70
-70
-70
-69
-69
-69
-70
-70
-70
-70
-70
-70
-69
-69
-70
-70
-70
-70
-69
-70
-70
-70
-69
-69
-69
-69
-69
-69
-69
-69
-69
-69
-69
-68
-68
-67
-67
-67
-67
-67
-66
-67
-66
-66
-65
-65
-65
-64
-64
-64
-64
-64
-64
-64
-63
-63
-63
-63
-62
-63
-62
-62
-61
-61
-60
-60
-60
-60
-59
-60
-59
-58
-58
-57
-58
-57
-57
-57
-57
-56
-56
-55
-56
-55
-54
-54
-55
-54
-54
-54
-54
-54
-54
-54
-53
-53
-53
-53
-53
-53
-53
-53
-53
-52
-52
-52
-52
-52
-52
-52
-52
-52
-52
-52
-52
-51
-51
-51
-52
-52
-52
-52
-51
-52
-52
-52
-52
-52
-52
-52
-52
-52
-52
-52
-52
-53
-53
-53
-54
-54
-54
-54
-55
-54
-55
-55
-55
-55
-55
-55
-55
-56
-56
-56
-56
-56
-57
-57
-57
-57
-58
-58
-57
-57
-58
-58
-58
-58
-58
-58
-58
-58
-59
-59
-59
-60
-60
-60
-61
-61
-61
-61
-61
-62
-62
-62
-62
-62
-62
-62
-63
-63
-63
-63
-63
-63
-63
-64
-64
-64
-65
-65
-64
-65
-65
-65
-65
-66
-66
-66
-66
-66
-66
-66
-66
-67
-67
-67
-67
-68
-68
-68
-68
-68
-68
-68
-68
-68
-68
-68
-68
-69
-68
-68
-69
-69
-69
-69
-68
-69
-69
-69
-69
-69
-69
-69
-69
-69
-69
-69
-70
-70
-70
-70
-70
-69
-69
-69
-70
-70
-70
-70
-70
-70
-70
-70
-70
-70
-70
-69
-70
-70
-70
-70
-70
-70
-70
-70
-70
-70
-71
-70
-70
-71
-71
-71
-71
-71
-71
-71
-71
-71
-71
-71
-71
-71
-71
-71
-72
-71
-72
-72
-71
-72
-72
-72
-72
-72
-71
-71
-71
-71
-71
-71
-72
-72
-72
-72
-71
-72
-73
-73
-72
-72
-72
-72
-72
-72
-72
-72
-72
-73
-73
-73
-73
-73
-73
-73
-73
-73
-73
-73
-72
-73
-72
-72
-72
-72
-72
-71
-72
-71
-72
-72
-72
-72
-72
-72
-72
-72
-73
-72
-72
-72
-72
-72
-72
-72
-72
-72
-71
-72
-72
-72
-72
-72
-72
-73
-73
-73
-73
-73
-73
-73
-73
-73
-73
-73
-73
-73
-73
-73
-73
-73
-73
-73
-73
-73
-73
-73
-73
-73
-73
-72
-72
-72
-73
-73
-73
-73
-73
-73
-73
-73
-73
-73
-74
-74
-73
-74
-74
-74
-74
-74
-74
-74
-74
-74
-74
-74
-74
-74
-74
-73
-74
-74
-74
-74
-74
-74
-75
-75
-75
-75
-75
-74
-74
-74
-74
-74
-74
-73
-74
-73
-73
-73
-72
-71
-72
-71
-71
-71
-70
-70
-69
-69
-68
-67
-67
-67
-66
-66
-66
-65
-65
-65
-64
-63
-63
-63
-63
-62
-62
-61
-61
-61
-61
-60
-60
-60
-59
-60
-59
-59
-58
-58
-58
-58
-58
-58
-58
-58
-57
-57
-58
-57
-57
-58
-58
-58
-59
-59
-59
-60
-60
-61
-62
-63
-63
-65
-65
-65
-66
-67
-67
-68
-68
-69
-70
-70
-71
-71
-71
-72
-72
-73
-72
-73
-73
-74
-74
-74
-73
-74
-73
-74
-73
-74
-74
-74
-74
-75
-75
-75
-75
-76
-75
-75
-75
-75
-75
-76
-76
-76
-76
-76
-76
-77
-76
-76
-77
-77
-77
-77
-77
-78
-78
-78
-78
-78
-78
-78
-79
-79
-79
-79
-80
-80
-80
-80
-80
-80
-81
-81
-81
-81
-81
-81
-82
-82
-82
-82
-82
-82
-82
-82
-81
-81
-81
-81
-81
-81
-81
-81
-81
-81
-81
-81
-81
-80
-81
-81
-80
-80
-81
-80
-80
-80
-80
-80
-80
-80
-80
-80
-80
-79
-79
-79
-79
-78
-78
-76
-74
-72
-70
-66
-62
-58
-52
-46
-39
-32
-24
-16
-5
4
15
27
39
50
63
74
86
98
110
121
131
141
150
158
165
171
175
179
180
180
178
174
169
161
152
140
127
112
95
75
55
32
9
-17
-44
-71
-100
-128
-157
-184
-211
-238
-263
-288
-312
-333
-353
-371
-387
-401
-413
-423
-430
-437
-441
-444
-444
-444
-440
-437
-432
-426
-419
-412
-404
-395
-386
-376
-366
-356
-346
-336
-325
-315
-305
-294
-284
-273
-263
-252
-242
-231
-221
-211
-201
-192
-181
-171
-162
-153
-145
-136
-128
-120
-113
-106
-100
-94
-89
-84
-80
-75
-72
-69
-66
-64
-61
-59
-58
-56
-55
-53
-52
-51
-50
-50
-49
-48
-47
-47
-47
-46
-46
-45
-44
-44
-44
-43
-42
-42
-41
-41
-41
-40
-40
-40
-40
-38
-38
-38
-37
-36
-36
-36
-35
-35
-34
-33
-33
-33
-33
-32
-31
-31
-31
-31
-29
-29
-29
-28
-28
-28
-28
-28
-28
-27
-26
-26
-25
-25
-24
-24
-24
-23
-23
-22
-22
-22
-21
-20
-20
-20
-20
-19
-19
-19
-18
-17
-17
-16
-16
-15
-15
-14
-14
-13
-12
-11
-11
-11
-10
-8
-8
-8
-8
-7
-6
-5
-4
-3
-2
-2
-1
0
1
1
2
3
4
5
6
7
7
8
9
9
11
12
13
14
15
16
17
19
20
21
22
23
25
26
27
28
30
31
32
34
35
37
38
40
41
43
44
46
47
48
49
52
54
55
56
57
59
60
62
63
65
66
68
69
70
72
73
74
75
76
78
79
80
81
82
82
84
85
84
85
86
86
88
88
88
88
88
89
89
89
88
89
89
89
88
89
88
88
86
86
86
85
85
84
84
83
82
81
79
79
77
76
75
75
73
72
70
69
67
66
64
62
61
59
58
56
54
52
50
47
46
44
42
40
37
36
33
31
29
26
24
22
20
18
16
14
11
10
8
6
4
2
-1
-2
-3
-5
-7
-10
-11
-13
-14
-16
-18
-19
-22
-23
-24
-26
-27
-29
-31
-32
-34
-36
-37
-38
-40
-41
-43
-44
-45
-45
-47
-48
-49
-49
-51
-51
-52
-54
-54
-55
-55
-56
-56
-57
-57
-58
-59
-59
-60
-60
-60
-61
-61
-61
-61
-62
-62
-62
-63
-64
-64
-63
-65
-65
-64
-64
-65
-65
-65
-65
-65
-65
-65
-66
-66
-66
-66
-66
-67
-67
-67
-67
-67
-67
-68
-68
-68
-68
-68
-68
-68
-68
-68
-68
-68
-68
-68
-68
-69
-69
-69
-69
-68
-68
-68
-69
-68
-68
-68
-68
-67
-67
-68
-68
-68
-67
-67
-67
-67
-66
-67
-67
-66
-66
-66
-66
-66
-66
-66
-65
-66
-65
-65
-65
-65
-64
-64
-64
-64
-64
-63
-63
-63
-62
-62
-62
-62
-62
-62
-61
-61
-61
-61
-61
-60
-61
-60
-60
-60
-60
-59
-59
-59
-58
-58
-57
-58
-57
-57
-57
-57
-57
-56
-56
-56
-56
-56
-56
-56
-55
-56
-55
-56
-55
-55
-55
-55
-55
-55
-55
-55
-54
-54
-54
-54
-53
-54
-53
-53
-53
-54
-53
-53
-53
-53
-53
-54
-53
-53
-53
-53
-53
-52
-53
-53
-53
-53
-53
-52
-53
-53
-53
-53
-53
-53
-53
-54
-54
-54
-54
-54
-54
-54
-54
-54
-54
-54
-54
-55
-55
-56
-56
-56
-56
-56
-56
-57
-57
-57
-56
-56
-56
-57
-57
-57
-57
-57
-57
-58
-58
-58
-58
-59
-59
-59
-58
-59
-59
-59
-59
-59
-60
-60
-60
-60
-60
-61
-61
-61
-62
-62
-62
-62
-62
-63
-63
-63
-64
-64
-64
-64
-64
-64
-64
-64
-64
-65
-64
-65
-65
-66
-66
-66
-66
-66
-67
-67
-67
-68
-67
-67
-67
-67
-67
-67
-67
-67
-67
-68
-68
-68
-67
-67
-68
-68
-69
-68
-69
-69
-68
-68
-68
-69
-69
-69
-69
-69
-70
-70
-69
-70
-70
-69
-70
-70
-70
-71
-71
-71
-70
-70
-70
-70
-70
-70
-71
-70
-70
-70
-70
-70
-70
-70
-70
-70
-70
-70
-71
-70
-70
-71
-70
-70
-70
-70
-70
-70
-70
-70
-70
-70
-71
-71
-71
-70
-71
-72
-71
-71
-71
-72
-72
-72
-72
-72
-72
-72
-72
-72
-73
-72
-72
-72
-72
-73
-72
-73
-73
-73
-72
-72
-73
-73
-72
-72
-72
-72
-72
-71
-71
-72
-72
-72
-72
-72
-72
-72
-72
-72
-72
-72
-73
-72
-72
-73
-73
-73
-73
-73
-72
-73
-73
-73
-73
-73
-72
-73
-72
-72
-73
-73
-73
-73
-72
-73
-72
-72
-72
-73
-73
-73
-72
-72
-72
-72
-71
-72
-72
-71
-71
-70
-70
-70
-70
-69
-68
-68
-68
-67
-67
-67
-66
-65
-65
-64
-65
-64
-63
-63
-63
-62
-61
-61
-61
-60
-60
-59
-59
-59
-59
-58
-58
-58
-58
-57
-57
-57
-57
-57
-57
-57
-56
-56
-56
-56
-56
-55
-55
-56
-55
-55
-55
-54
-54
-54
-55
-54
-55
-54
-55
-55
-55
-57
-58
-58
-59
-60
-61
-62
-63
-64
-65
-65
-67
-67
-68
-68
-70
-70
-70
-71
-70
-71
-71
-71
-71
-71
-71
-72
-71
-71
-71
-71
-71
-72
-72
-72
-72
-72
-71
-72
-71
-72
-72
-72
-72
-73
-73
-73
-73
-73
-74
-74
-74
-74
-75
-74
-75
-75
-75
-75
-75
-75
-76
-76
-76
-76
-77
-76
-78
-78
-77
-78
-78
-78
-79
-78
-78
-79
-79
-79
-78
-79
-79
-79
-79
-79
-79
-79
-79
-79
-78
-79
-79
-79
-79
-78
-78
-78
-78
-78
-77
-77
-77
-77
-77
-77
-76
-76
-76
-76
-76
-76
-75
-76
-76
-76
-76
-76
-76
-76
-74
-72
-71
-68
-66
-61
-57
-53
-47
-41
-34
-26
-17
-7
4
14
25
37
51
63
76
88
100
112
125
136
147
157
165
173
180
184
188
189
190
188
184
179
172
162
151
138
123
105
87
67
45
23
-3
-28
-54
-81
-108
-135
-163
-189
-215
-239
-263
-286
-306
-327
-344
-361
-375
-387
-397
-406
-412
