# Simple Text Format
# Sampling Rate (Hz):= 1200.00
# Resolution:= 12
# Labels:= ECG	aVF
# Age:=	23
# Gender:=	Masculino
-40
-39
-38
-38
-38
-38
-38
-38
-37
-36
-36
-35
-35
-34
-33
-32
-32
-32
-31
-30
-29
-28
-27
-26
-26
-26
-25
-25
-25
-24
-24
-23
-23
-22
-22
-21
-21
-21
-20
-19
-18
-17
-16
-16
-15
-15
-14
-14
-14
-13
-12
-12
-11
-11
-10
-10
-10
-10
-9
-9
-9
-9
-8
-9
-10
-10
-11
-12
-13
-14
-15
-16
-17
-18
-19
-20
-22
-23
-23
-24
-25
-25
-25
-26
-27
-28
-29
-30
-31
-31
-32
-33
-34
-34
-34
-35
-36
-36
-37
-37
-38
-37
-37
-38
-39
-40
-40
-40
-41
-41
-41
-42
-42
-42
-42
-42
-43
-43
-42
-43
-43
-42
-42
-42
-43
-43
-44
-44
-45
-45
-45
-45
-45
-46
-46
-46
-47
-47
-47
-47
-47
-46
-46
-46
-46
-47
-47
-47
-47
-47
-47
-47
-46
-46
-46
-46
-47
-47
-46
-46
-46
-45
-45
-45
-45
-45
-45
-45
-46
-45
-45
-46
-45
-45
-45
-45
-46
-46
-46
-46
-46
-46
-47
-47
-49
-50
-51
-52
-53
-54
-56
-57
-58
-59
-60
-62
-63
-64
-64
-64
-64
-63
-62
-61
-61
-59
-57
-56
-53
-51
-48
-44
-41
-37
-32
-28
-23
-18
-12
-6
1
10
19
28
38
47
58
68
79
90
101
111
120
129
137
145
151
156
160
163
165
165
164
160
155
148
141
132
122
112
101
90
79
68
57
46
35
24
15
6
-2
-10
-17
-24
-30
-37
-42
-47
-50
-53
-56
-58
-60
-60
-61
-62
-62
-62
-61
-61
-60
-58
-57
-56
-55
-54
-53
-53
-52
-51
-50
-49
-48
-47
-46
-46
-45
-45
-44
-44
-43
-42
-42
-42
-42
-42
-42
-42
-42
-42
-42
-43
-43
-43
-42
-43
-43
-43
-43
-43
-43
-42
-42
-42
-42
-42
-42
-43
-43
-43
-43
-43
-43
-43
-43
-43
-43
-43
-43
-43
-42
-41
-41
-41
-41
-41
-42
-42
-42
-41
-41
-42
-41
-41
-41
-41
-41
-41
-41
-41
-41
-40
-40
-40
-40
-40
-41
-41
-41
-41
-41
-41
-41
-41
-41
-41
-41
-41
-41
-41
-41
-40
-40
-40
-40
-40
-40
-41
-41
-41
-40
-40
-40
-40
-39
-39
-39
-39
-39
-39
-39
-38
-37
-37
-37
-37
-37
-37
-37
-37
-37
-37
-37
-36
-36
-36
-36
-36
-36
-36
-35
-34
-34
-34
-34
-34
-34
-35
-35
-34
-34
-34
-34
-34
-34
-34
-34
-34
-34
-33
-33
-32
-32
-31
-32
-32
-32
-32
-32
-31
-31
-31
-31
-31
-30
-30
-30
-30
-30
-29
-29
-27
-27
-27
-27
-27
-27
-26
-26
-26
-25
-25
-25
-24
-24
-23
-23
-23
-22
-22
-20
-20
-18
-18
-18
-18
-18
-17
-17
-16
-16
-15
-15
-14
-13
-13
-13
-12
-12
-11
-10
-9
-8
-8
-8
-8
-7
-7
-7
-6
-6
-6
-6
-5
-5
-4
-4
-4
-4
-3
-3
-2
-2
-2
-2
-2
-2
-2
-3
-3
-3
-3
-3
-4
-3
-4
-5
-5
-5
-5
-5
-5
-5
-5
-6
-7
-7
-7
-8
-9
-9
-10
-10
-10
-10
-10
-11
-12
-12
-13
-13
-13
-13
-14
-15
-15
-16
-17
-18
-18
-19
-20
-21
-21
-21
-22
-23
-24
-24
-25
-25
-24
-25
-25
-26
-27
-28
-28
-28
-29
-29
-30
-31
-31
-31
-32
-32
-33
-33
-34
-33
-33
-33
-34
-34
-35
-35
-36
-36
-36
-36
-37
-37
-37
-38
-38
-39
-39
-39
-39
-38
-38
-37
-38
-38
-39
-39
-39
-39
-39
-40
-40
-40
-40
-40
-40
-40
-40
-40
-40
-39
-39
-38
-38
-38
-38
-39
-39
-39
-38
-38
-38
-38
-38
-38
-38
-39
-39
-39
-39
-38
-38
-38
-38
-38
-39
-39
-40
-40
-40
-40
-40
-40
-40
-40
-40
-41
-41
-41
-41
-40
-40
-39
-39
-39
-40
-40
-40
-40
-40
-40
-40
-39
-39
-39
-39
-40
-40
-40
-40
-39
-38
-38
-38
-38
-38
-38
-38
-39
-39
-39
-39
-39
-38
-38
-38
-38
-38
-38
-38
-38
-37
-37
-37
-37
-37
-38
-38
-38
-38
-38
-38
-38
-38
-38
-38
-39
-39
-39
-39
-38
-38
-37
-37
-37
-38
-38
-38
-38
-38
-38
-38
-38
-38
-38
-38
-38
-39
-39
-38
-38
-37
-37
-37
-37
-38
-38
-38
-38
-37
-38
-38
-38
-38
-38
-38
-38
-38
-38
-38
-37
-37
-36
-36
-37
-37
-38
-38
-38
-38
-38
-38
-38
-38
-38
-38
-39
-39
-39
-39
-39
-39
-38
-39
-39
-40
-40
-40
-41
-41
-41
-42
-42
-42
-42
-42
-42
-42
-42
-42
-42
-41
-41
-41
-41
-41
-41
-41
-41
-41
-41
-41
-41
-41
-40
-40
-41
-40
-40
-40
-40
-39
-39
-39
-39
-40
-40
-40
-40
-40
-40
-40
-41
-40
-40
-41
-41
-42
-42
-42
-42
-42
-41
-42
-42
-43
-43
-44
-44
-44
-44
-44
-44
-44
-44
-44
-44
-44
-44
-44
-44
-43
-42
-43
-43
-43
-43
-43
-43
-43
-43
-44
-44
-43
-43
-43
-43
-43
-43
-43
-43
-42
-41
-41
-42
-42
-42
-42
-42
-42
-42
-42
-42
-42
-42
-42
-43
-43
-43
-43
-42
-42
-41
-41
-42
-42
-42
-43
-43
-43
-43
-43
-43
-43
-42
-42
-43
-43
-43
-42
-42
-41
-41
-41
-41
-42
-42
-42
-42
-42
-42
-42
-42
-42
-42
-42
-43
-43
-43
-43
-42
-42
-41
-42
-42
-42
-43
-43
-43
-43
-43
-43
-43
-42
-42
-42
-42
-42
-42
-41
-41
-40
-40
-40
-40
-40
-40
-41
-41
-41
-41
-42
-42
-41
-41
-42
-42
-42
-42
-42
-42
-41
-41
-41
-41
-41
-42
-42
-42
-42
-42
-42
-42
-42
-42
-42
-43
-43
-43
-43
-42
-41
-41
-41
-41
-41
-41
-41
-41
-41
-41
-41
-41
-41
-41
-41
-41
-41
-41
-41
-41
-41
-40
-40
-41
-41
-41
-41
-41
-41
-41
-41
-41
-40
-39
-39
-39
-39
-38
-38
-37
-35
-34
-34
-34
-33
-32
-32
-32
-31
-30
-30
-30
-29
-28
-28
-28
-28
-27
-27
-26
-25
-24
-24
-24
-24
-24
-24
-24
-23
-22
-22
-21
-21
-20
-19
-19
-19
-18
-17
-17
-15
-14
-14
-14
-14
-14
-14
-14
-13
-14
-14
-14
-14
-14
-15
-16
-16
-17
-18
-18
-18
-18
-19
-20
-21
-22
-23
-24
-25
-26
-27
-28
-28
-29
-29
-30
-31
-32
-33
-33
-32
-32
-33
-34
-35
-35
-36
-36
-37
-37
-37
-38
-38
-38
-39
-40
-40
-40
-41
-40
-40
-40
-40
-41
-41
-41
-42
-42
-42
-43
-43
-43
-43
-43
-43
-43
-44
-44
-44
-43
-42
-42
-42
-42
-43
-43
-43
-43
-43
-43
-44
-44
-44
-44
-44
-44
-45
-45
-45
-44
-44
-43
-43
-44
-44
-44
-44
-44
-44
-44
-44
-44
-43
-43
-43
-43
-44
-44
-43
-43
-42
-42
-42
-43
-43
-43
-44
-44
-44
-45
-46
-46
-47
-48
-49
-51
-52
-53
-54
-56
-56
-57
-59
-60
-62
-63
-63
-64
-63
-64
-63
-63
-61
-60
-58
-57
-55
-52
-50
-47
-43
-39
-36
-32
-28
-24
-19
-13
-7
0
7
16
25
36
46
55
66
76
87
97
107
116
124
132
137
143
147
150
152
152
151
148
144
139
132
123
115
106
96
86
76
66
56
45
34
25
16
6
-1
-10
-17
-24
-30
-34
-39
-44
-48
-51
-53
-55
-56
-56
-57
-57
-58
-58
-57
-57
-56
-55
-54
-53
-52
-50
-50
-49
-48
-47
-46
-45
-43
-42
-41
-41
-41
-41
-41
-41
-40
-40
-40
-40
-40
-39
-39
-40
-40
-40
-40
-40
-39
-39
-39
-39
-40
-40
-40
-40
-40
-40
-41
-41
-40
-40
-40
-40
-41
-40
-40
-40
-39
-39
-39
-39
-40
-40
-40
-39
-39
-39
-40
-40
-39
-39
-39
-39
-39
-39
-39
-38
-38
-37
-37
-37
-37
-37
-38
-38
-38
-38
-39
-39
-39
-39
-39
-40
-40
-40
-40
-40
-39
-39
-39
-39
-40
-40
-40
-40
-39
-39
-39
-39
-39
-38
-38
-38
-38
-37
-37
-36
-36
-35
-35
-35
-35
-35
-35
-35
-36
-36
-36
-36
-36
-36
-36
-36
-36
-36
-36
-36
-35
-35
-35
-35
-35
-35
-35
-35
-35
-35
-35
-35
-35
-34
-34
-34
-34
-33
-33
-32
-32
-31
-30
-31
-31
-30
-31
-31
-30
-30
-31
-30
-30
-29
-30
-29
-30
-30
-29
-29
-28
-27
-27
-27
-27
-27
-27
-26
-26
-26
-25
-25
-24
-23
-23
-23
-23
-22
-21
-21
-19
-19
-18
-18
-18
-18
-18
-17
-17
-17
-17
-16
-16
-15
-15
-15
-15
-15
-14
-14
-12
-12
-11
-11
-11
-11
-10
-10
-9
-9
-9
-9
-8
-7
-7
-7
-7
-6
-6
-5
-4
-3
-2
-2
-2
-2
-2
-2
-1
-1
-1
-1
-1
0
0
0
0
0
0
1
1
2
2
1
1
1
1
1
0
0
0
0
0
0
0
-1
-2
-2
-2
-2
-2
-2
-3
-4
-4
-5
-6
-6
-6
-7
-8
-8
-8
-9
-9
-10
-11
-11
-12
-12
-12
-12
-13
-14
-15
-16
-16
-17
-17
-18
-19
-20
-20
-20
-21
-22
-23
-23
-24
-24
-24
-24
-24
-25
-26
-26
-27
-27
-28
-28
-28
-29
-29
-29
-29
-29
-29
-30
-30
-29
-29
-28
-29
-29
-29
-29
-30
-30
-30
-30
-31
-31
-31
-31
-31
-31
-32
-32
-32
-32
-31
-31
-31
-32
-32
-33
-33
-33
-33
-34
-34
-34
-34
-34
-34
-35
-35
-35
-35
-34
-33
-33
-33
-33
-33
-33
-33
-33
-32
-32
-33
-33
-32
-32
-32
-32
-33
-32
-32
-32
-31
-31
-31
-31
-32
-32
-32
-33
-32
-33
-33
-33
-32
-32
-32
-33
-33
-33
-33
-33
-32
-31
-31
-32
-32
-32
-32
-32
-32
-32
-32
-32
-32
-32
-32
-32
-32
-32
-32
-32
-31
-31
-30
-31
-31
-31
-31
-31
-31
-31
-32
-32
-31
-31
-31
-31
-31
-31
-31
-31
-30
-29
-29
-30
-30
-30
-30
-30
-30
-30
-31
-31
-30
-30
-30
-30
-30
-30
-30
-30
-29
-29
-29
-29
-29
-30
-30
-30
-30
-30
-30
-30
-30
-29
-29
-30
-30
-30
-30
-30
-29
-29
-29
-29
-29
-30
-30
-30
-30
-30
-31
-31
-31
-31
-31
-31
-31
-31
-31
-31
-30
-30
-30
-30
-31
-31
-31
-31
-31
-31
-31
-31
-31
-31
-31
-32
-32
-33
-33
-32
-32
-32
-32
-32
-33
-33
-33
-33
-33
-33
-33
-34
-33
-33
-33
-33
-34
-34
-34
-33
-33
-32
-32
-33
-33
-34
-34
-34
-34
-34
-34
-34
-34
-34
-34
-35
-35
-35
-35
-34
-33
-33
-33
-33
-34
-34
-34
-34
-34
-34
-34
-34
-34
-33
-33
-34
-34
-34
-34
-34
-34
-33
-34
-34
-35
-35
-35
-35
-35
-35
-35
-36
-36
-35
-35
-36
-36
-36
-35
-35
-34
-34
-34
-34
-34
-34
-34
-34
-34
-35
-35
-35
-35
-35
-35
-35
-35
-35
-35
-35
-34
-34
-34
-34
-35
-35
-35
-35
-35
-35
-36
-36
-36
-35
-36
-36
-37
-37
-37
-36
-36
-36
-36
-36
-36
-36
-37
-37
-36
-36
-37
-37
-36
-36
-36
-36
-36
-36
-36
-36
-35
-35
-35
-35
-35
-36
-36
-36
-36
-36
-36
-37
-36
-36
-36
-36
-37
-36
-36
-36
-35
-35
-35
-35
-35
-35
-36
-36
-35
-36
-36
-36
-36
-35
-35
-36
-36
-36
-36
-35
-34
-34
-34
-34
-35
-35
-35
-35
-35
-35
-35
-36
-35
-35
-35
-35
-36
-35
-35
-35
-34
-34
-34
-34
-34
-34
-34
-35
-35
-35
-35
-35
-35
-35
-35
-35
-36
-35
-35
-35
-34
-34
-34
-34
-34
-35
-35
-35
-35
-36
-36
-36
-36
-36
-36
-37
-37
-37
-36
-36
-35
-35
-35
-36
-36
-36
-36
-36
-36
-36
-36
-36
-36
-36
-36
-36
-36
-36
-36
-36
-35
-35
-35
-36
-36
-36
-36
-36
-36
-36
-37
-37
-36
-36
-36
-37
-37
-37
-36
-36
-35
-35
-35
-35
-35
-36
-36
-36
-36
-36
-36
-36
-36
-36
-36
-36
-36
-36
-36
-36
-35
-35
-35
-36
-36
-36
-36
-37
-37
-37
-37
-37
-37
-37
-37
-37
-38
-37
-37
-36
-35
-35
-35
-35
-34
-34
-34
-33
-33
-32
-32
-31
-30
-29
-29
-29
-28
-27
-26
-26
-25
-23
-23
-22
-22
-22
-22
-22
-21
-21
-21
-21
-20
-20
-20
-20
-20
-20
-19
-18
-17
-16
-16
-16
-16
-15
-15
-15
-14
-14
-14
-13
-12
-11
-11
-11
-11
-11
-10
-10
-9
-9
-8
-9
-9
-10
-10
-11
-11
-12
-13
-14
-14
-15
-16
-17
-18
-19
-19
-20
-20
-21
-21
-23
-24
-25
-26
-27
-27
-28
-28
-29
-30
-30
-30
-31
-32
-32
-32
-33
-32
-32
-33
-33
-34
-34
-35
-35
-35
-36
-36
-36
-36
-37
-37
-37
-38
-38
-38
-38
-37
-37
-37
-38
-38
-38
-38
-38
-38
-38
-39
-39
-39
-38
-38
-39
-39
-39
-39
-38
-38
-37
-37
-38
-39
-39
-39
-39
-40
-40
-40
-40
-40
-40
-41
-41
-41
-41
-41
-41
-40
-39
-39
-40
-40
-40
-40
-40
-39
-40
-40
-40
-39
-39
-39
-40
-41
-41
-41
-42
-42
-42
-43
-45
-46
-48
-49
-51
-52
-54
-56
-57
-58
-59
-60
-61
-62
-62
-63
-62
-61
-60
-60
-59
-58
-57
-55
-54
-51
-49
-46
-44
-40
-36
-32
-28
-24
-18
-12
-5
3
12
22
31
41
52
61
72
82
92
101
110
119
127
134
139
143
147
149
150
150
148
144
139
133
125
117
108
99
90
79
70
60
50
40
31
22
13
5
-2
-9
-15
-21
-27
-32
-36
-40
-44
-46
-48
-50
-51
-52
-52
-52
-53
-52
-52
-51
-50
-48
-47
-46
-46
-45
-44
-43
-43
-42
-41
-41
-40
-40
-39
-38
-39
-39
-39
-38
-38
-37
-36
-36
-36
-36
-37
-37
-37
-37
-37
-37
-37
-37
-36
-37
-37
-37
-37
-37
-37
-37
-36
-36
-37
-37
-37
-37
-38
-38
-38
-38
-38
-38
-38
-37
-38
-38
-38
-38
-37
-37
-36
-36
-36
-37
-37
-37
-37
-37
-37
-38
-38
-38
-37
-37
-38
-38
-38
-38
-38
-37
-37
-37
-37
-37
-37
-37
-37
-37
-37
-37
-37
-37
-37
-37
-37
-37
-37
-37
-37
-36
-36
-36
-36
-37
-37
-37
-37
-37
-36
-37
-37
-36
-36
-36
-36
-37
-36
-36
-36
-35
-34
-34
-34
-34
-35
-34
-34
-34
-34
-34
-34
-34
-33
-33
-34
-34
-34
-34
-33
-32
-32
-32
-32
-32
-32
-32
-32
-32
-32
-32
-32
-32
-31
-31
-31
-32
-32
-31
-31
-30
-30
-30
-30
-30
-30
-30
-30
-31
-30
-30
-30
-29
-29
-29
-28
-29
-28
-28
-27
-26
-25
-25
-25
-25
-25
-25
-25
-25
-24
-25
-25
-24
-24
-23
-24
-23
-23
-22
-22
-21
-20
-20
-19
-19
-19
-18
-17
-17
-16
-16
-15
-14
-14
-13
-12
-12
-12
-11
-10
-9
-9
-8
-8
-8
-8
-7
-7
-7
-7
-7
-7
-6
-5
-5
-5
-5
-5
-5
-4
-3
-2
-2
-2
-2
-2
-2
-2
-2
-2
-2
-2
-2
-2
-2
-2
-2
-3
-2
-2
-2
-1
-2
-2
-3
-3
-3
-4
-3
-4
-5
-5
-5
-5
-6
-6
-7
-7
-7
-8
-8
-8
-8
-8
-9
-10
-11
-11
-12
-12
-14
-14
-15
-15
-15
-16
-17
-18
-18
-19
-18
-18
-19
-19
-20
-21
-22
-22
-23
-23
-24
-24
-24
-24
-25
-25
-26
-27
-27
-27
-27
-27
-28
-28
-29
-29
-30
-31
-31
-31
-32
-32
-32
-33
-33
-33
-34
-34
-34
-34
-34
-33
-33
-34
-34
-34
-35
-35
-35
-35
-35
-35
-35
-35
-35
-35
-35
-35
-35
-34
-34
-33
-33
-34
-34
-34
-34
-34
-34
-34
-34
-35
-35
-34
-34
-35
-35
-35
-35
-35
-34
-34
-34
-34
-35
-35
-35
-35
-35
-35
-35
-35
-35
-35
-35
-35
-35
-35
-35
-34
-34
-33
-33
-33
-33
-33
-34
-34
-34
-34
-34
-34
-34
-34
-34
-34
-34
-34
-34
-34
-33
-33
-33
-33
-34
-34
-34
-34
-34
-34
-34
-34
-33
-33
-33
-33
-34
-34
-34
-33
-33
-33
-33
-33
-33
-33
-33
-34
-34
-34
-34
-34
-34
-34
-34
-34
-34
-34
-34
-34
-34
-33
-33
-33
-33
-33
-34
-34
-34
-34
-34
-34
-33
-33
-33
-33
-33
-33
-33
-33
-32
-32
-31
-32
-32
-32
-32
-32
-33
-33
-33
-33
-33
-33
-33
-33
-33
-34
-34
-34
-33
-33
-33
-33
-34
-34
-34
-34
-35
-35
-35
-35
-35
-35
-35
-35
-36
-36
-35
-35
-34
-34
-34
-34
-34
-35
-35
-35
-35
-35
-35
-35
-35
-35
-35
-35
-35
-36
-36
-35
-35
-34
-34
-35
-35
-35
-35
-36
-36
-36
-36
-36
-36
-36
-36
-36
-36
-37
-37
-36
-36
-35
-35
-36
-36
-36
-36
-37
-37
-37
-37
-37
-37
-37
-37
-37
-37
-37
-37
-37
-37
-36
-36
-36
-37
-37
-37
-38
-38
-38
-38
-38
-38
-38
-38
-39
-39
-39
-39
-39
-39
-38
-38
-39
-39
-39
-39
-39
-39
-39
-39
-39
-39
-39
-39
-39
-39
-39
-39
-38
-38
-37
-37
-37
-37
-37
-37
-37
-37
-37
-37
-37
-37
-37
-37
-38
-38
-38
-38
-38
-38
-37
-37
-38
-38
-38
-38
-39
-39
-39
-39
-39
-39
-39
-39
-39
-39
-39
-39
-39
-38
-38
-38
-38
-38
-39
-39
-39
-39
-39
-39
-39
-39
-39
-39
-39
-39
-39
-39
-39
-38
-38
-37
-38
-38
-38
-38
-38
-38
-38
-38
-38
-38
-38
-38
-38
-38
-38
-38
-38
-38
-37
-37
-37
-37
-37
-37
-37
-37
-37
-38
-38
-38
-37
-37
-38
-38
-38
-39
-38
-38
-38
-38
-38
-38
-38
-38
-39
-39
-39
-39
-39
-39
-38
-38
-39
-39
-39
-39
-39
-38
-38
-38
-38
-38
-39
-39
-39
-39
-39
-39
-39
-39
-38
-38
-38
-37
-37
-36
-35
-34
-33
-32
-32
-31
-31
-30
-30
-29
-28
-28
-28
-27
-26
-26
-26
-26
-25
-25
-24
-23
-22
-22
-22
-22
-21
-21
-21
-20
-20
-19
-19
-19
-18
-17
-17
-17
-16
-15
-15
-14
-13
-12
-12
-12
-12
-12
-12
-12
-12
-12
-13
-13
-13
-13
-14
-15
-15
-16
-16
-16
-16
-17
-18
-19
-20
-20
-21
-22
-23
-24
-25
-25
-25
-26
-27
-28
-28
-29
-29
-29
-29
-29
-30
-31
-32
-33
-33
-34
-35
-36
-37
-37
-37
-38
-39
-39
-39
-39
-40
-39
-39
-39
-39
-40
-40
-40
-41
-41
-41
-41
-41
-41
-41
-41
-41
-41
-41
-42
-42
-41
-41
-41
-41
-41
-41
-42
-42
-42
-42
-42
-43
-43
-42
-42
-42
-43
-43
-43
-43
-42
-42
-41
-42
-42
-42
-42
-43
-43
-43
-43
-43
-43
-42
-42
-42
-43
-42
-42
-42
-42
-41
-41
-41
-42
-42
-43
-44
-44
-45
-46
-47
-48
-49
-50
-52
-54
-55
-57
-58
-59
-60
-61
-62
-64
-64
-65
-66
-66
-66
-65
-65
-64
-62
-60
-59
-57
-55
-52
-49
-45
-41
-37
-33
-28
-24
-18
-12
-5
3
11
21
31
41
53
62
73
83
94
103
113
123
131
138
144
148
152
154
155
155
153
149
145
139
132
124
115
106
97
88
78
69
59
49
39
30
21
12
4
-3
-11
-18
-24
-29
-34
-38
-42
-45
-48
-50
-51
-52
-52
-53
-53
-53
-53
-53
-52
-51
-50
-50
-49
-47
-46
-46
-46
-45
-44
-43
-42
-40
-40
-39
-39
-39
-39
-39
-39
-39
-39
-39
-39
-38
-38
-38
-39
-39
-38
-38
-38
-38
-38
-38
-38
-39
-39
-39
-39
-39
-40
-40
-40
-40
-40
-40
-40
-40
-40
-40
-40
-39
-39
-39
-39
-39
-40
-40
-40
-40
-40
-41
-41
-40
-40
-41
-41
-41
-41
-41
-41
-40
-40
-40
-40
-40
-40
-41
-41
-41
-41
-41
-41
-40
-40
-40
-40
-40
-40
-40
-39
-39
-39
-39
-40
-40
-40
-40
-40
-40
-40
-40
-40
-40
-40
-40
-40
-40
-40
-40
-40
-39
-39
-39
-39
-39
-39
-39
-39
-38
-38
-38
-38
-38
-38
-38
-38
-37
-37
-37
-36
-36
-35
-35
-35
-36
-36
-36
-36
-36
-36
-36
-36
-36
-35
-36
-36
-36
-36
-36
-35
-35
-34
-34
-35
-35
-35
-35
-36
-35
-35
-36
-35
-35
-35
-34
-35
-35
-34
-34
-33
-32
-32
-32
-32
-32
-32
-32
-32
-31
-32
-31
-31
-31
-30
-30
-30
-30
-30
-29
-29
-28
-27
-27
-27
-27
-26
-26
-26
-25
-25
-25
-24
-24
-24
-23
-23
-23
-22
-21
-20
-20
-18
-18
-18
-18
-18
-18
-17
-16
-16
-16
-15
-15
-14
-14
-14
-14
-13
-13
-12
-11
-10
-10
-10
-10
-10
-10
-10
-9
-9
-9
-9
-8
-7
-8
-8
-7
-7
-7
-6
-6
-5
-5
-6
-6
-6
-6
-6
-6
-7
-7
-7
-7
-7
-8
-8
-9
-9
-9
-9
-9
-9
-10
-10
-11
-11
-11
-12
-12
-13
-14
-14
-14
-15
-15
-16
-16
-17
-17
-17
-17
-17
-18
-19
-20
-21
-21
-22
-23
-24
-24
-25
-25
-26
-27
-28
-29
-29
-29
-30
-30
-30
-30
-31
-32
-33
-33
-33
-33
-34
-34
-35
-34
-34
-35
-35
-35
-35
-35
-35
-34
-34
-35
-35
-35
-36
-36
-36
-36
-37
-37
-37
-37
-38
-38
-38
-38
-39
-39
-39
-38
-38
-38
-39
-39
-39
-40
-40
-39
-39
-40
-40
-39
-39
-40
-40
-40
-40
-39
-39
-38
-38
-38
-38
-38
-38
-38
-38
-38
-38
-38
-38
-38
-38
-38
-38
-38
-38
-38
-37
-36
-36
-36
-36
-36
-37
-37
-37
-37
-37
-37
-37
-37
-37
-37
-37
-37
-37
-37
-36
-36
-35
-36
-36
-36
-36
-36
-36
-36
-37
-37
-37
-37
-37
-38
-38
-38
-38
-38
-38
-38
-37
-38
-38
-39
-39
-40
-40
-40
-40
-40
-40
-40
-40
-40
-41
-41
-41
-41
-41
-40
-39
-39
-40
-40
-40
-40
-40
-40
-40
-40
-40
-40
-40
-40
-40
-40
-40
-40
-40
-39
-39
-39
-40
-40
-40
-41
-41
-41
-41
-42
-42
-42
-42
-42
-42
-42
-42
-41
-41
-40
-40
-40
-40
-41
-41
-41
-41
-40
-41
-41
-41
-40
-40
-40
-40
-40
-40
-40
-40
-39
-39
-39
-39
-40
-40
-40
-40
-40
-41
-41
-41
-41
-41
-41
-41
-42
-42
-42
-41
-41
-41
-41
-41
-41
-41
-42
-42
-41
-41
-41
-41
-41
-41
-41
-41
-42
-42
-42
-41
-41
-40
-41
-41
-41
-42
-42
-43
-43
-43
-43
-43
-43
-43
-44
-44
-44
-44
-44
-44
-43
-43
-43
-43
-44
-44
-44
-44
-44
-44
-44
-44
-44
-44
-44
-45
-45
-45
-45
-44
-44
-43
-44
-44
-44
-45
-45
-45
-45
-45
-46
-46
-45
-45
-45
-45
-45
-45
-45
-44
-44
-44
-44
-44
-44
-44
-44
-44
-44
-44
-45
-45
-45
-44
-45
-45
-45
-45
-45
-45
-44
-44
-43
-44
-44
-44
-44
-44
-44
-44
-44
-44
-44
-44
-44
-44
-44
-44
-44
-44
-43
-43
-43
-44
-44
-45
-45
-45
-45
-45
-45
-45
-45
-45
-45
-45
-44
-44
-43
-42
-41
-41
-40
-40
-39
-39
-38
-37
-37
-36
-36
-35
-34
-33
-33
-32
-31
-31
-30
-29
-28
-27
-26
-26
-26
-26
-26
-25
-25
-25
-25
-25
-24
-24
-23
-23
-23
-23
-22
-21
-20
-19
-19
-18
-18
-18
-17
-17
-16
-15
-15
-15
-14
-14
-14
-14
-14
-14
-14
-14
-14
-14
-15
-16
-17
-18
-19
-20
-21
-21
-23
-23
-24
-24
-25
-27
-27
-28
-29
-29
-29
-29
-30
-31
-32
-33
-33
-34
-34
-35
-36
-36
-37
-37
-37
-38
-39
-39
-39
-40
-40
-39
-40
-41
-41
-42
-42
-43
-43
-43
-44
-44
-44
-44
-44
-45
-46
-46
-46
-45
-45
-45
-45
-45
-46
-46
-46
-46
-46
-46
-46
-46
-46
-46
-46
-47
-47
-47
-47
-46
-45
-45
-45
-46
-46
-46
-46
-46
-46
-46
-46
-46
-46
-46
-46
-46
-46
-46
-46
-46
-45
-45
-45
-45
-46
-46
-46
-46
-46
-46
-47
-47
-47
-47
-48
-49
-50
-51
-52
-52
-53
-54
-55
-57
-59
-60
-62
-64
-66
-67
-68
-69
-69
-70
-71
-71
-70
-69
-68
-66
-63
-61
-59
-56
-53
-50
-46
-42
-37
-32
-27
-21
-15
-8
-1
7
15
25
35
46
57
68
80
90
101
111
121
130
138
146
152
157
162
165
167
167
166
163
159
153
147
140
131
122
111
101
90
80
69
59
48
38
28
20
11
2
-6
-13
-20
-26
-31
-35
-40
-44
-48
-51
-53
-55
-56
-57
-58
-58
-58
-58
-58
-58
-57
-57
-56
-54
-52
-51
-50
-50
-49
-48
-48
-47
-46
-46
-45
-44
-44
-43
-43
-43
-42
-42
-41
-41
-40
-39
-39
-39
-40
-40
-40
-40
-40
-40
-40
-41
-40
-40
-41
-41
-41
-41
-41
-41
-40
-40
-40
-41
-41
-42
-42
-42
-42
-42
-43
-43
-43
-42
-43
-43
-43
-43
-43
-42
-42
-41
-41
-41
-41
-41
-41
-42
-42
-42
-42
-42
-42
-41
-42
-42
-42
-42
-42
-42
-41
-41
-41
-41
-41
-41
-41
-41
-41
-41
-41
-41
-40
-40
-40
-40
-40
-40
-40
-39
-38
-38
-38
-39
-39
-39
-38
-38
-38
-38
-39
-39
-38
-38
-38
-39
-38
-38
-38
-38
-37
-37
-37
-37
-38
-38
-38
-38
-38
-38
-38
-38
-38
-38
-38
-37
-37
-37
-37
-37
-36
-35
-35
-35
-35
-35
-35
-35
-35
-35
-35
-34
-34
-34
-34
-34
-34
-34
-33
-32
-32
-31
-30
-31
-31
-31
-31
-30
-30
-30
-30
-30
-29
-29
-29
-29
-29
-29
-28
-28
-27
-26
-26
-26
-26
-26
-26
-26
-25
-25
-25
-24
-23
-23
-23
-23
-22
-22
-21
-21
-20
-19
-18
-18
-18
-17
-17
-17
-16
-15
-15
-15
-14
-14
-14
-13
-13
-12
-12
-11
-10
-10
-9
-9
-9
-9
-9
-9
-9
-8
-9
-8
-8
-7
-7
-7
-7
-7
-7
-6
-5
-5
-5
-5
-5
-5
-5
-5
-5
-5
-6
-6
-5
-6
-6
-6
-7
-7
-7
-6
-6
-6
-6
-7
-8
-8
-9
-9
-9
-10
-10
-11
-11
-11
-12
-12
-13
-13
-13
-14
-13
-13
-14
-15
-16
-16
-17
-17
-18
-18
-19
-19
-20
-20
-21
-21
-22
-23
-23
-24
-23
-24
-24
-25
-26
-27
-28
-28
-29
-30
-30
-31
-31
-31
-32
-32
-32
-32
-33
-33
-32
-32
-32
-33
-33
-33
-34
-34
-34
-34
-34
-34
-34
-33
-34
-34
-35
-35
-35
-35
-34
-34
-34
-34
-35
-35
-35
-35
-35
-35
-36
-36
-35
-35
-35
-35
-35
-35
-35
-35
-34
-34
-34
-34
-35
-35
-35
-35
-35
-35
-35
-36
-35
-35
-35
-36
-36
-36
-35
-35
-34
-34
-34
-34
-34
-34
-34
-34
-34
-34
-34
-34
-33
-33
-33
-33
-34
-34
-34
-34
-33
-33
-33
-34
-34
-34
-35
-35
-35
-35
-35
-35
-35
-35
-35
-35
-35
-34
-34
-33
-33
-32
-32
-32
-32
-32
-32
-32
-32
-32
-32
-32
-32
-32
-32
-32
-32
-32
-32
-32
-31
-31
-31
-32
-32
-33
-33
-33
-33
-33
-34
-34
-34
-34
-34
-35
-35
-35
-34
-34
-33
-32
-32
-33
-33
-33
-33
-33
-32
-32
-33
-32
-32
-32
-32
-32
-32
-32
-32
-32
-31
-31
-31
-32
-32
-32
-32
-32
-32
-32
-33
-33
-32
-32
-32
-33
-33
-33
-33
-33
-32
-31
-32
-32
-32
-33
-33
-33
-33
-33
-33
-33
-33
-33
-34
-34
-34
-35
-34
-34
-33
-33
-33
-34
-34
-34
-35
-35
-35
-35
-35
-35
-35
-35
-35
-36
-36
-36
-35
-35
-34
-33
-33
-34
-34
-34
-34
-34
-34
-34
-34
-34
-34
-34
-34
-35
-35
-35
-35
-35
-34
-34
-34
-34
-35
-35
-35
-35
-35
-35
-35
-35
-35
-34
-34
-35
-35
-35
-35
-34
-34
-33
-33
-34
-34
-34
-34
-34
-34
-34
-34
-35
-34
-34
-35
-35
-35
-35
-35
-35
-34
-34
-34
-35
-36
-36
-36
-36
-36
-36
-37
-37
-36
-36
-36
-36
-35
-35
-34
-34
-32
-31
-30
-30
-30
-30
-29
-28
-27
-27
-26
-25
-24
-23
-23
-22
-22
-21
-21
-20
-19
-18
-17
-17
-17
-17
-17
-16
-16
-16
-15
-15
-14
-13
-13
-13
-12
-11
-11
-10
-9
-8
-7
-7
-7
-7
-6
-6
-6
-5
-5
-5
-5
-5
-5
-6
-6
-7
-7
-7
-7
-8
-8
-10
-11
-12
-13
-14
-15
-16
-17
-18
-19
-19
-20
-21
-22
-23
-23
-24
-24
-24
-25
-26
-27
-28
-28
-29
-30
-30
-31
-32
-32
-32
-33
-33
-34
-35
-35
-35
-35
-34
-34
-35
-36
-36
-36
-37
-37
-37
-38
-38
-38
-38
-38
-38
-39
-39
-39
-39
-38
-38
-38
-38
-39
-39
-39
-39
-39
-40
-40
-40
-40
-40
-40
-40
-40
-41
-41
-40
-40
-39
-39
-40
-40
-40
-40
-40
-40
-40
-41
-41
-41
-40
-41
-41
-41
-41
-41
-41
-40
-40
-40
-40
-41
-41
-41
-41
-41
-41
-41
-42
-43
-43
-44
-45
-47
-47
-48
-49
-50
-51
-52
-54
-56
-58
-59
-60
-60
-61
-62
-61
-61
-60
-60
-58
-57
-55
-53
-50
-46
-43
-39
-36
-32
-28
-23
-18
-13
-7
0
6
14
22
31
41
50
61
72
84
95
107
117
126
135
143
150
156
162
166
168
169
170
168
165
160
153
145
137
128
118
108
97
85
74
62
51
40
29
20
10
1
-7
-15
-22
-29
-35
-40
-45
-49
-51
-54
-56
-58
-60
-61
-61
-61
-61
-60
-60
-59
-57
-56
-54
-53
-52
-51
-49
-48
-46
-44
-43
-43
-42
-41
-41
-40
-40
-40
-40
-39
-39
-38
-38
-38
-38
-38
-38
-38
-37
-37
-37
-38
-38
-38
-39
-39
-39
-39
-39
-39
-39
-39
-39
-39
-40
-40
-39
-39
-38
-38
-38
-38
-38
-39
-39
-39
-39
-39
-39
-39
-38
-38
-38
-38
-38
-38
-38
-38
-37
-37
-37
-37
-37
-37
-37
-37
-37
-37
-37
-37
-36
-36
-36
-37
-37
-37
-37
-36
-35
-35
-35
-35
-35
-35
-35
-35
-35
-35
-35
-35
-35
-34
-34
-34
-34
-34
-34
-33
-33
-32
-32
-33
-33
-33
-33
-33
-33
-33
-34
-34
-34
-34
-34
-34
-34
-34
-34
-34
-33
-33
-33
-33
-33
-33
-33
-33
-33
-33
-33
-33
-32
-32
-32
-32
-31
-31
-31
-31
-30
-29
-29
-29
-29
-29
-29
-29
-28
-28
-29
-28
-27
-27
-27
-27
-27
-27
-26
-25
-24
-24
-23
-23
-23
-23
-23
-22
-22
-22
-21
-21
-21
-20
-20
-20
-20
-19
-19
-18
-17
-17
-16
-17
-16
-16
-16
-16
-15
-15
-15
-15
-14
-13
-13
-13
-12
-12
-11
-10
-8
-8
-7
-7
-6
-6
-6
-5
-5
-4
-4
-4
-3
-2
-2
-2
-2
-1
-1
0
0
1
2
2
2
2
2
2
3
3
3
3
3
4
4
4
4
4
4
4
5
5
5
5
4
4
3
3
3
2
1
1
1
1
0
0
-1
-1
-2
-2
-2
-2
-2
-4
-5
-5
-6
-6
-7
-7
-8
-9
-9
-10
-11
-12
-13
-13
-14
-14
-14
-15
-15
-16
-17
-18
-18
-19
-20
-21
-21
-22
-22
-22
-23
-23
-24
-25
-25
-25
-25
-24
-25
-25
-26
-26
-27
-27
-27
-28
-29
-29
-29
-29
-29
-30
-31
-31
-32
-31
-31
-31
-31
-32
-32
-32
-33
-33
-33
-33
-34
-34
-33
-33
-33
-34
-34
-34
-34
-33
-33
-32
-32
-33
-33
-34
-34
-34
-34
-34
-34
-35
-34
-34
-34
-35
-35
-35
-35
-35
-35
-34
-35
-35
-35
-35
-35
-35
-35
-35
-35
-35
-35
-34
-34
-34
-35
-35
-34
-34
-33
-33
-33
-33
-33
-33
-33
-33
-33
-33
-33
-33
-33
-33
-33
-33
-33
-33
-33
-33
-32
-32
-32
-32
-32
-33
-33
-33
-33
-33
-34
-34
-34
-34
-34
-34
-35
-34
-34
-34
-34
-33
-33
-33
-34
-34
-34
-34
-34
-34
-34
-34
-33
-33
-33
-33
-34
-34
-34
-33
-33
-32
-32
-32
-32
-32
-32
-32
-32
-32
-33
-33
-32
-32
-32
-32
-32
-32
-32
-31
-31
-30
-30
-30
-31
-31
-31
-31
-31
-31
-31
-32
-31
-31
-31
-32
-32
-32
-32
-31
-31
-30
-30
-30
-30
-30
-30
-30
-30
-30
-31
-31
-30
-30
-30
-30
-31
-31
-31
-31
-31
-30
-30
-31
-32
-32
-32
-32
-33
-33
-33
-33
-33
-33
-33
-34
-34
-34
-34
-34
-33
-33
-33
-33
-33
-34
-34
-34
-34
-35
-35
-35
-35
-35
-35
-36
-36
-36
-36
-36
-35
-35
-34
-35
-35
-35
-35
-35
-34
-34
-34
-35
-34
-34
-34
-34
-35
-35
-35
-34
-34
-34
-34
-34
-35
-35
-36
-36
-36
-36
-37
-37
-37
-36
-37
-37
-37
-37
-37
-37
-36
-36
-36
-36
-37
-37
-37
-37
-37
-38
-38
-38
-38
-37
-37
-38
-38
-38
-37
-37
-36
-36
-35
-36
-36
-36
-36
-37
-37
-37
-37
-38
-38
-37
-37
-38
-38
-38
-38
-38
-37
-37
-37
-37
-37
-37
-37
-37
-37
-37
-37
-37
-37
-37
-37
-37
-38
-38
-38
-38
-37
-37
-37
-37
-37
-37
-38
-38
-38
-38
-38
-38
-38
-37
-37
-37
-38
-37
-36
-35
-34
-33
-33
-32
-32
-31
-31
-30
-30
-29
-28
-27
-26
-25
-25
-25
-24
-24
-23
-22
-21
-20
-20
-20
-19
-19
-19
-19
-18
-18
-18
-17
-17
-16
-16
-16
-16
-15
-14
-13
-12
-11
-10
-10
-10
-9
-9
-9
-8
-8
-8
-8
-7
-7
-7
-7
-8
-8
-9
-9
-9
-9
-10
-11
-12
-13
-14
-15
-16
-16
-17
-18
-19
-19
-20
-21
-23
-24
-24
-25
-25
-25
-26
-27
-27
-28
-29
-30
-31
-31
-31
-32
-33
-33
-33
-34
-35
-35
-35
-35
-35
-34
-35
-35
-36
-36
-36
-36
-37
-37
-37
-37
-38
-38
-38
-38
-38
-38
-39
-39
-38
-38
-38
-38
-39
-39
-39
-40
-40
-40
-41
-41
-41
-40
-40
-41
-41
-41
-41
-41
-41
-40
-40
-40
-41
-41
-41
-41
-41
-41
-41
-42
-42
-41
-41
-42
-42
-42
-42
-41
-41
-40
-40
-40
-41
-41
-41
-41
-41
-41
-41
-41
-41
-41
-41
-42
-42
-43
-44
-45
-45
-46
-47
-48
-50
-51
-53
-54
-56
-57
-58
-59
-59
-59
-59
-60
-59
-58
-57
-56
-54
-51
-49
-47
-44
-41
-38
-34
-31
-26
-21
-17
-12
-5
1
8
16
24
34
45
55
66
76
87
97
106
115
123
132
139
144
149
153
156
157
157
155
151
146
140
134
126
117
107
97
86
76
65
55
44
34
24
16
7
-1
-9
-17
-23
-29
-33
-37
-41
-44
-47
-50
-52
-54
-55
-55
-55
-56
-56
-55
-54
-53
-53
-52
-51
-49
-48
-46
-45
-44
-43
-42
-41
-41
-40
-39
-39
-38
-38
-37
-36
-36
-36
-36
-36
-36
-35
-35
-34
-34
-34
-35
-35
-35
-35
-35
-35
-36
-36
-36
-35
-35
-35
-36
-35
-35
-35
-34
-33
-33
-33
-34
-34
-34
-34
-34
-34
-34
-34
-34
-34
-34
-34
-34
-34
-34
-34
-34
-33
-33
-33
-33
-34
-34
-34
-34
-35
-35
-35
-35
-35
-35
-35
-36
-36
-36
-35
-35
-34
-34
-34
-34
-34
-34
-34
-34
-34
-34
-34
-34
-33
-33
-33
-34
-34
-33
-33
-32
-32
-31
-32
-32
-32
-32
-32
-32
-32
-32
-32
-32
-31
-31
-32
-32
-32
-31
-31
-30
-29
-29
-29
-29
-29
-29
-29
-29
-29
-29
-29
-29
-28
-28
-29
-29
-29
-29
-28
-27
-27
-27
-27
-27
-27
-28
-27
-27
-27
-27
-27
-27
-27
-27
-26
-27
-27
-27
-26
-26
-25
-24
-24
-24
-25
-24
-24
-24
-23
-23
-23
-22
-21
-21
-21
-21
-20
-20
-19
-18
-17
-17
-16
-16
-16
-16
-15
-15
-15
-15
-15
-14
-13
-13
-13
-12
-12
-12
-11
-10
-9
-8
-8
-8
-8
-7
-7
-7
-6
-6
-6
-5
-4
-4
-4
-4
-3
-2
-2
-1
0
0
0
1
1
1
1
1
1
1
2
2
3
3
3
3
3
3
4
4
5
5
5
5
5
5
5
5
5
4
5
4
5
4
4
3
3
3
2
2
3
2
1
1
0
0
-1
-1
-2
-3
-4
-4
-4
-5
-5
-6
-7
-7
-8
-8
-8
-8
-9
-10
-11
-12
-13
-13
-14
-15
-15
-16
-16
-17
-18
-19
-19
-20
-20
-20
-20
-21
-21
-22
-23
-23
-24
-24
-25
-25
-26
-26
-26
-26
-27
-27
-28
-28
-28
-28
-28
-28
-28
-29
-30
-30
-30
-30
-30
-31
-31
-31
-32
-32
-32
-32
-32
-32
-32
-31
-31
-31
-31
-31
-31
-31
-31
-31
-30
-31
-31
-31
-30
-30
-31
-31
-31
-31
-31
-30
-30
-29
-30
-30
-30
-31
-31
-31
-31
-31
-32
-32
-31
-32
-32
-32
-32
-32
-31
-31
-30
-30
-30
-30
-30
-31
-31
-31
-31
-31
-31
-31
-31
-31
-31
-31
-31
-31
-30
-30
-29
-29
-29
-29
-30
-30
-30
-30
-30
-30
-31
-31
-30
-30
-31
-31
-31
-31
-31
-30
-30
-29
-29
-30
-30
-30
-30
-30
-30
-30
-30
-30
-29
-29
-30
-30
-30
-30
-30
-30
-29
-29
-29
-30
-30
-30
-31
-31
-31
-31
-31
-31
-31
-30
-31
-31
-31
-30
-30
-30
-29
-28
-29
-29
-29
-29
-29
-29
-29
-30
-30
-30
-29
-29
-30
-30
-30
-30
-30
-30
-29
-29
-29
-29
-29
-29
-30
-30
-30
-30
-30
-30
-30
-29
-30
-30
-30
-30
-30
-29
-29
-28
-28
-28
-28
-28
-28
-28
-28
-28
-29
-28
-28
-28
-28
-29
-29
-29
-29
-28
-27
-27
-28
-28
-29
-29
-29
-29
-29
-29
-30
-30
-29
-29
-30
-30
-30
-30
-30
-30
-29
-29
-30
-30
-31
-31
-31
-31
-31
-32
-32
-32
-32
-31
-32
-32
-32
-32
-32
-32
-31
-30
-30
-30
-30
-30
-30
-30
-30
-30
-30
-30
-30
-30
-30
-31
-31
-31
-31
-31
-30
-30
-31
-31
-32
-32
-32
-33
-33
-33
-33
-33
-33
-33
-33
-34
-34
-33
-33
-33
-32
-31
-31
-32
-32
-32
-32
-32
-32
-32
-32
-32
-32
-32
-33
-33
-34
-34
-34
-34
-33
-33
-33
-34
-34
-34
-35
-35
-35
-35
-35
-35
-35
-35
-35
-35
-35
-35
-35
-34
-34
-33
-33
-33
-34
-34
-34
-34
-34
-34
-34
-34
-33
-33
-33
-34
-34
-34
-34
-33
-33
-33
-33
-33
-34
-34
-35
-35
-35
-36
-36
-36
-36
-36
-37
-37
-37
-37
-37
-37
-36
-36
-36
-36
-37
-37
-37
-36
-36
-36
-36
-36
-36
-36
-36
-36
-36
-36
-36
-36
-35
-35
-36
-36
-36
-37
-37
-37
-37
-37
-37
-37
-37
-37
-37
-38
-38
-38
-38
-37
-37
-36
-36
-37
-37
-37
-37
-37
-36
-36
-37
-36
-36
-36
-36
-36
-36
-36
-35
-34
-33
-33
-32
-32
-31
-31
-31
-31
-30
-29
-29
-28
-27
-26
-26
-26
-25
-24
-23
-22
-21
-20
-20
-20
-20
-19
-19
-19
-18
-18
-18
-17
-17
-17
-17
-17
-16
-16
-15
-14
-13
-13
-12
-12
-12
-12
-12
-11
-11
-11
-11
-10
-10
-9
-9
-9
-9
-9
-9
-9
-8
-8
-8
-9
-9
-10
-11
-11
-12
-12
-13
-14
-14
-15
-16
-17
-18
-19
-20
-20
-21
-21
-22
-23
-24
-25
-26
-26
-27
-27
-28
-29
-29
-30
-30
-31
-31
-32
-32
-32
-32
-32
-32
-32
-33
-34
-34
-34
-35
-35
-35
-35
-35
-35
-35
-36
-36
-36
-36
-36
-35
-35
-35
-36
-36
-36
-37
-37
-37
-37
-37
-37
-37
-37
-38
-38
-38
-38
-38
-38
-37
-37
-37
-37
-38
-38
-38
-39
-39
-39
-39
-39
-38
-38
-38
-39
-39
-39
-39
-39
-38
-38
-38
-38
-38
-38
-39
-39
-39
-39
-39
-39
-39
-39
-39
-39
-39
-39
-39
-39
-39
-39
-40
-41
-42
-44
-45
-46
-47
-49
-50
-52
-53
-54
-56
-57
-58
-59
-60
-60
-59
-59
-59
-58
-58
-57
-56
-54
-53
-50
-48
-45
-42
-39
-35
-31
-27
-23
-17
-11
-4
3
12
20
30
40
50
60
70
81
91
101
111
120
128
135
141
146
151
154
156
157
155
152
147
141
135
127
118
109
100
90
80
70
60
49
40
30
22
13
6
-1
-8
-15
-22
-27
-32
-36
-39
-42
-45
-47
-48
-49
-50
-51
-51
-51
-51
-49
-48
-47
-46
-46
-45
-44
-43
-43
-42
-41
-41
-40
-39
-38
-38
-38
-37
-37
-37
-36
-35
-35
-34
-35
-35
-35
-35
-35
-35
-35
-35
-35
-35
-35
-35
-36
-36
-36
-36
-35
-35
-35
-35
-35
-36
-36
-36
-37
-37
-37
-37
-38
-38
-38
-38
-38
-38
-38
-38
-37
-37
-36
-36
-36
-36
-36
-36
-36
-36
-36
-36
-36
-36
-35
-35
-36
-35
-35
-35
-34
-34
-33
-33
-33
-34
-34
-34
-34
-34
-35
-35
-35
-35
-35
-35
-36
-36
-36
-36
-36
-35
-34
-35
-35
-35
-35
-35
-35
-35
-35
-35
-35
-35
-35
-35
-35
-35
-34
-34
-34
-33
-33
-33
-33
-33
-33
-33
-33
-33
-33
-34
-33
-33
-33
-33
-33
-34
-34
-33
-33
-32
-32
-32
-32
-32
-32
-32
-33
-32
-32
-32
-32
-31
-31
-31
-31
-31
-30
-30
-29
-28
-28
-28
-28
-28
-28
-28
-28
-28
-28
-28
-28
-28
-27
-28
-28
-28
-28
-28
-27
-27
-26
-26
-26
-27
-26
-26
-26
-26
-25
-25
-24
-24
-23
-23
-23
-22
-22
-21
-21
-19
-19
-19
-18
-18
-18
-18
-17
-17
-17
-16
-16
-15
-15
-14
-15
-14
-13
-13
-12
-11
-10
-10
-10
-10
-10
-9
-9
-8
-8
-8
-7
-7
-7
-6
-7
-6
-6
-5
-4
-3
-2
-2
-2
-2
-2
-2
-1
-1
-1
-1
-1
-1
0
-1
-1
-1
-1
-1
-1
0
0
0
-1
-1
-2
-2
-2
-3
-3
-3
-4
-4
-4
-5
-5
-5
-6
-6
-6
-7
-6
-7
-8
-9
-9
-10
-10
-11
-12
-12
-13
-13
-14
-14
-15
-16
-16
-17
-17
-17
-17
-18
-18
-19
-20
-20
-21
-21
-22
-22
-23
-23
-23
-23
-24
-25
-25
-25
-25
-25
-25
-25
-26
-26
-26
-27
-27
-27
-28
-29
-29
-29
-29
-29
-30
-30
-30
-31
-31
-30
-30
-30
-30
-31
-31
-31
-31
-31
-31
-32
-32
-31
-31
-31
-31
-31
-31
-31
-30
-29
-29
-29
-29
-29
-30
-30
-30
-30
-30
-30
-30
-30
-30
-30
-30
-30
-30
-30
-30
-29
-29
-29
-30
-30
-30
-30
-30
-30
-30
-31
-31
-31
-31
-31
-31
-31
-31
-31
-30
-30
-29
-29
-29
-29
-29
-29
-29
-29
-30
-30
-30
-30
-30
-30
-31
-31
-31
-31
-31
-30
-30
-30
-31
-31
-31
-31
-31
-31
-31
-31
-31
-30
-30
-30
-30
-30
-30
-30
-29
-28
-27
-27
-28
-28
-28
-28
-28
-29
-29
-29
-29
-29
-29
-29
-29
-29
-29
-29
-29
-28
-28
-28
-28
-29
-29
-29
-29
-29
-29
-30
-30
-30
-30
-30
-31
-31
-31
-31
-31
-30
-30
-30
-30
-30
-30
-30
-30
-30
-30
-30
-30
-30
-30
-30
-30
-30
-30
-30
-29
-29
-28
-28
-28
-28
-28
-29
-29
-29
-29
-29
-29
-29
-29
-29
-29
-30
-30
-30
-29
-29
-28
-28
-29
-29
-29
-30
-30
-30
-30
-31
-31
-30
-30
-30
-31
-31
-32
-32
-31
-31
-30
-30
-30
-31
-31
-31
-31
-31
-31
-31
-31
-30
-30
-30
-31
-31
-31
-31
-30
-29
-29
-29
-30
-30
-30
-30
-31
-31
-31
-31
-31
-31
-31
-31
-31
-31
-31
-31
-31
-30
-30
-30
-31
-31
-31
-31
-31
-31
-31
-32
-32
-31
-31
-31
-32
-32
-32
-32
-32
-31
-31
-31
-31
-32
-32
-32
-32
-32
-32
-33
-33
-32
-32
-32
-33
-33
-33
-33
-32
-32
-31
-31
-32
-32
-32
-32
-32
-32
-33
-33
-33
-33
-33
-34
-34
-34
-34
-34
-34
-33
-33
-33
-33
-33
-33
-33
-33
-33
-33
-33
-33
-33
-32
-32
-33
-33
-33
-33
-33
-32
-32
-32
-32
-33
-33
-33
-33
-33
-33
-34
-34
-33
-33
-33
-34
-34
-34
-33
-33
-32
-32
-32
-32
-33
-33
-33
-33
-33
-33
-33
-33
-33
-32
-32
-33
-33
-33
-33
-32
-32
-31
-31
-32
-32
-32
-32
-32
-32
-32
-33
-33
-33
-32
-32
-33
-33
-33
-33
-33
-32
-32
-32
-32
-32
-33
-33
-33
-33
-33
-33
-33
-33
-32
-32
-33
-33
-33
-33
-32
-32
-31
-31
-31
-32
-31
-31
-31
-31
-31
-30
-30
-29
-29
-28
-28
-27
-27
-26
-25
-24
-22
-22
-22
-22
-21
-21
-20
-20
-19
-19
-19
-18
-18
-17
-17
-17
-17
-16
-16
-15
-14
-13
-13
-13
-13
-13
-12
-11
-11
-11
-10
-9
-9
-9
-9
-8
-8
-7
-7
-6
-6
-6
-6
-7
-7
-7
-8
-8
-9
-9
-10
-11
-11
-12
-13
-14
-15
-15
-16
-16
-16
-17
-18
-19
-20
-21
-21
-22
-23
-24
-24
-25
-25
-25
-26
-27
-27
-28
-28
-28
-28
-28
-29
-30
-31
-31
-31
-32
-32
-33
-33
-33
-33
-33
-34
-35
-35
-35
-35
-34
-33
-34
-34
-35
-35
-35
-35
-35
-35
-36
-36
-36
-35
-35
-36
-36
-36
-37
-36
-36
-36
-36
-36
-36
-37
-37
-37
-37
-37
-38
-38
-37
-37
-37
-38
-38
-38
-38
-37
-37
-36
-36
-36
-37
-37
-37
-37
-37
-37
-37
-37
-37
-36
-36
-37
-37
-37
-37
-37
-36
-36
-36
-37
-38
-39
-41
-42
-43
-44
-45
-47
-48
-50
-51
-53
-55
-56
-57
-58
-58
-58
-58
-59
-59
-59
-58
-57
-56
-54
-52
-51
-48
-45
-42
-39
-36
-32
-28
-23
-17
-11
-4
2
10
19
28
38
48
58
69
80
91
101
112
121
129
137
144
151
156
161
163
164
164
161
158
154
148
141
133
125
116
107
97
87
77
67
57
48
39
31
22
14
6
-2
-8
-15
-20
-25
-30
-34
-37
-39
-42
-44
-45
-46
-47
-47
-47
-46
-45
-45
-45
-45
-44
-43
-42
-42
-41
-40
-39
-38
-37
-37
-37
-36
-35
-34
-33
-32
-32
-32
-32
-32
-32
-32
-32
-32
-32
-32
-32
-32
-32
-32
-32
-32
-33
-32
-32
-31
-31
-31
-32
-32
-32
-32
-32
-33
-33
-33
-33
-32
-32
-33
-33
-33
-33
-33
-32
-32
-32
-32
-33
-33
-33
-33
-33
-33
-34
-34
-34
-33
-34
-34
-34
-34
-34
-34
-33
-33
-33
-33
-33
-33
-33
-33
-33
-33
-33
-33
-33
-33
-33
-33
-33
-33
-32
-32
-31
-31
-30
-30
-31
-31
-31
-31
-30
-30
-31
-31
-30
-30
-30
-31
-31
-31
-31
-31
-30
-29
-29
-30
-30
-30
-30
-30
-30
-30
-30
-30
-30
-29
-29
-30
-29
-29
-28
-28
-27
-27
-27
-27
-27
-27
-27
-27
-27
-27
-27
-27
-27
-27
-27
-27
-28
-28
-28
-27
-27
-27
-26
-27
-27
-27
-27
-27
-27
-27
-27
-27
-27
-27
-27
-27
-27
-27
-26
-26
-25
-24
-24
-24
-24
-24
-23
-23
-23
-23
-22
-22
-21
-21
-20
-20
-20
-20
-19
-19
-18
-17
-17
-17
-17
-17
-17
-16
-16
-15
-15
-15
-14
-14
-13
-13
-13
-12
-11
-11
-10
-9
-8
-8
-8
-8
-7
-7
-7
-7
-6
-6
-5
-5
-4
-4
-4
-3
-3
-2
-1
0
1
1
1
1
2
2
2
3
3
3
4
4
4
4
4
4
4
4
5
5
5
5
4
4
4
3
3
3
2
1
1
1
1
0
0
-1
-1
-1
-1
-1
-1
-2
-3
-4
-4
-5
-5
-6
-7
-7
-7
-8
-8
-9
-10
-10
-11
-11
-11
-11
-12
-12
-13
-14
-14
-15
-16
-16
-17
-17
-17
-17
-18
-18
-19
-19
-20
-19
-19
-19
-20
-20
-21
-21
-22
-22
-23
-23
-23
-23
-24
-24
-24
-24
-25
-25
-25
-25
-24
-24
-24
-24
-24
-25
-25
-25
-25
-25
-26
-26
-26
-26
-26
-26
-27
-27
-27
-26
-26
-25
-25
-25
-25
-25
-25
-25
-25
-25
-25
-25
-25
-24
-24
-24
-25
-24
-24
-24
-24
-23
-23
-23
-24
-24
-24
-24
-24
-24
-24
-24
-24
-23
-23
-23
-23
-23
-23
-23
-22
-22
-22
-22
-22
-22
-23
-23
-23
-23
-23
-24
-24
-23
-24
-24
-24
-25
-25
-24
-24
-23
-23
-23
-23
-24
-24
-24
-24
-24
-24
-24
-24
-24
-24
-25
-25
-25
-25
-25
-25
-25
-25
-25
-25
-26
-26
-26
-26
-26
-26
-26
-26
-26
-26
-26
-27
-27
-26
-26
-26
-25
-25
-25
-25
-26
-26
-26
-26
-26
-27
-27
-27
-26
-26
-27
-27
-27
-27
-26
-26
-25
-25
-25
-25
-25
-26
-26
-25
-25
-25
-25
-25
-25
-25
-25
-26
-26
-26
-26
-26
-25
-25
-26
-26
-26
-27
-27
-27
-27
-28
-28
-28
-28
-28
-28
-29
-29
-29
-28
-28
-27
-27
-27
-28
-28
-28
-28
-28
-27
-27
-27
-27
-27
-27
-27
-27
-27
-27
-27
-26
-26
-26
-26
-26
-26
-27
-27
-27
-27
-27
-28
-28
-27
-27
-28
-28
-28
-28
-28
-27
-27
-27
-27
-28
-28
-28
-28
-29
-29
-29
-29
-29
-29
-29
-29
-29
-29
-29
-29
-28
-28
-28
-28
-28
-28
-29
-29
-29
-29
-29
-30
-30
-29
-30
-30
-30
-30
-30
-30
-29
-29
-28
-29
-29
-29
-29
-29
-29
-29
-29
-29
-28
-28
-28
-28
-28
-28
-28
-28
-28
-27
-27
-27
-27
-27
-27
-28
-28
-28
-28
-29
-29
-29
-29
-29
-30
-30
-30
-30
-29
-29
-28
-29
-29
-29
-29
-29
-29
-29
-29
-29
-29
-29
-29
-29
-29
-29
-29
-29
-29
-28
-28
-28
-29
-29
-29
-29
-30
-30
-30
-30
-30
-29
-29
-29
-29
-29
-29
-28
-27
-26
-26
-26
-25
-25
-25
-25
-24
-23
-23
-23
-22
-21
-20
-20
-19
-19
-18
-17
-16
-15
-14
-14
-14
-13
-13
-13
-13
-13
-12
-12
-12
-12
-11
-11
-11
-11
-10
-10
-9
-8
-8
-8
-8
-7
-7
-6
-6
-5
-5
-4
-4
-3
-2
-2
-2
-2
-2
-2
-1
-1
-1
-1
-2
-2
-3
-4
-4
-5
-6
-7
-7
-7
-8
-9
-10
-11
-12
-12
-13
-13
-14
-15
-16
-17
-18
-19
-20
-21
-22
-22
-23
-24
-24
-25
-26
-26
-27
-28
-27
-27
-28
-28
-29
-29
-29
-30
-30
-30
-30
-31
-31
-31
-31
-31
-32
-32
-32
-32
-32
-32
-32
-32
-33
-33
-33
-34
-34
-34
-34
-35
-35
-35
-35
-35
-35
-36
-36
-36
-35
-35
-34
-35
-35
-35
-36
-36
-36
-36
-36
-36
-36
-36
-36
-36
-37
-36
-36
-36
-36
-35
-35
-35
-35
-35
-35
-35
-35
-35
-35
-36
-36
-36
-36
-36
-37
-37
-37
-38
-38
-39
-39
-41
-43
-44
-46
-47
-49
-51
-52
-54
-55
-56
-57
-57
-58
-58
-59
-58
-57
-55
-53
-51
-50
-47
-45
-41
-38
-34
-30
-26
-20
-15
-9
-3
3
10
19
28
37
48
59
70
81
92
102
114
124
133
142
150
158
165
170
174
177
178
179
177
175
171
165
158
149
140
131
120
110
99
88
77
66
56
45
35
25
17
8
0
-7
-13
-19
-25
-31
-35
-39
-42
-45
-46
-48
-50
-51
-51
-51
-51
-51
-51
-50
-48
-47
-45
-43
-42
-42
-41
-40
-39
-38
-37
-37
-36
-35
-34
-34
-34
-34
-33
-33
-33
-32
-32
-31
-31
-32
-32
-32
-33
-33
-33
-33
-33
-33
-33
-33
-33
-34
-33
-33
-33
-32
-32
-31
-31
-32
-32
-32
-32
-32
-32
-32
-32
-32
-32
-32
-32
-33
-33
-33
-33
-32
-32
-31
-31
-32
-32
-32
-33
-33
-33
-33
-33
-33
-33
-33
-33
-34
-34
-33
-33
-32
-31
-31
-31
-31
-31
-31
-31
-31
-30
-30
-30
-30
-29
-29
-29
-29
-29
-29
-29
-29
-28
-28
-28
-28
-28
-29
-29
-29
-29
-30
-30
-30
-30
-30
-30
-31
-31
-31
-31
-30
-30
-30
-30
-30
-30
-30
-31
-30
-30
-30
-30
-30
-29
-28
-28
-28
-28
-27
-27
-26
-25
-25
-25
-25
-25
-25
-25
-25
-25
-25
-25
-24
-24
-25
-25
-25
-25
-25
-24
-24
-24
-23
-23
-23
-23
-23
-23
-23
-23
-23
-23
-23
-22
-22
-22
-22
-22
-22
-21
-20
-19
-19
-18
-18
-18
-18
-17
-17
-17
-16
-16
-16
-15
-14
-14
-14
-14
-14
-13
-12
-11
-10
-10
-10
-10
-10
-9
-9
-8
-8
-8
-7
-6
-6
-6
-6
-5
-5
-5
-4
-3
-2
-2
-2
-2
-2
-2
-2
-1
-1
-1
-1
0
0
0
0
0
1
1
2
3
4
4
4
4
4
4
4
4
4
4
4
4
4
4
3
3
3
2
2
3
2
2
1
0
0
0
-1
-1
-2
-2
-3
-3
-3
-3
-5
-5
-6
-6
-6
-6
-6
-6
-7
-8
-9
-9
-10
-11
-11
-12
-12
-13
-13
-14
-15
-16
-17
-17
-17
-17
-17
-18
-19
-20
-21
-22
-22
-22
-23
-24
-24
-24
-25
-25
-26
-26
-26
-27
-26
-26
-26
-26
-27
-27
-27
-28
-28
-28
-28
-29
-29
-28
-28
-28
-29
-29
-29
-29
-29
-28
-28
-28
-28
-28
-29
-29
-29
-29
-29
-29
-30
-29
-30
-30
-30
-30
-30
-30
-30
-29
-29
-29
-29
-30
-30
-30
-30
-30
-30
-30
-30
-29
-29
-29
-29
-29
-29
-29
-28
-27
-26
-26
-26
-27
-27
-27
-27
-27
-27
-27
-27
-27
-27
-28
-28
-29
-29
-29
-29
-28
-28
-28
-28
-29
-29
-29
-29
-29
-30
-30
-30
-29
-29
-29
-29
-29
-29
-29
-28
-28
-27
-27
-27
-27
-27
-27
-27
-27
-27
-27
-27
-26
-26
-26
-26
-27
-27
-27
-26
-26
-26
-26
-26
-27
-27
-27
-27
-27
-27
-27
-27
-27
-26
-27
-27
-27
-27
-27
-26
-26
-25
-25
-26
-26
-27
-27
-27
-27
-27
-27
-27
-26
-26
-26
-27
-27
-27
-27
-27
-26
-25
-25
-25
-26
-26
-26
-27
-27
-27
-27
-27
-27
-27
-27
-27
-27
-27
-26
-26
-25
-25
-24
-25
-25
-25
-25
-25
-25
-25
-25
-25
-24
-24
-24
-24
-24
-24
-24
-24
-23
-22
-22
-23
-23
-23
-24
-24
-24
-25
-25
-26
-26
-26
-26
-27
-27
-27
-28
-28
-27
-27
-27
-28
-28
-28
-28
-29
-29
-29
-29
-29
-28
-28
-28
-28
-28
-28
-28
-27
-26
-26
-26
-26
-26
-26
-26
-26
-26
-26
-26
-27
-27
-26
-27
-27
-28
-28
-28
-28
-27
-27
-27
-28
-28
-28
-29
-29
-29
-29
-29
-29
-29
-29
-29
-29
-29
-29
-29
-29
-28
-28
-28
-28
-28
-28
-29
-29
-29
-29
-29
-29
-29
-29
-29
-29
-30
-29
-29
-29
-28
-28
-28
-28
-29
-29
-29
-29
-29
-29
-29
-29
-29
-29
-29
-29
-29
-29
-29
-28
-28
-27
-27
-27
-28
-28
-28
-28
-28
-28
-29
-29
-29
-28
-28
-29
-29
-29
-29
-29
-28
-28
-28
-29
-29
-29
-29
-30
-29
-29
-29
-29
-28
-28
-28
-28
-27
-27
-26
-25
-24
-23
-22
-22
-22
-21
-20
-19
-18
-18
-18
-17
-16
-16
-15
-15
-14
-14
-13
-12
-11
-10
-10
-10
-10
-10
-10
-10
-9
-9
-9
-9
-8
-8
-7
-7
-7
-7
-7
-6
-5
-4
-4
-4
-4
-4
-4
-3
-3
-3
-3
-3
-3
-3
-3
-3
-3
-4
-4
-4
-4
-5
-5
-6
-7
-7
-8
-9
-10
-11
-12
-13
-14
-15
-16
-17
-19
-19
-20
-20
-20
-21
-21
-22
-23
-24
-24
-25
-25
-26
-27
-27
-27
-27
-28
-28
-29
-29
-29
-29
-28
-28
-28
-29
-29
-30
-30
-30
-30
-30
-31
-31
-31
-31
-32
-32
-32
-32
-32
-32
-32
-32
-32
-33
-33
-34
-34
-34
-34
-34
-35
-35
-35
-35
-35
-36
-36
-36
-36
-35
-35
-34
-34
-35
-35
-35
-35
-35
-35
-35
-35
-35
-35
-35
-35
-35
-35
-35
-35
-35
-34
-34
-34
-34
-35
-35
-35
-35
-35
-36
-37
-37
-38
-38
-39
-40
-41
-42
-43
-45
-45
-46
-47
-49
-51
-52
-53
-54
-55
-55
-56
-56
-55
-54
-53
-52
-51
-48
-46
-43
-40
-36
-33
-30
-26
-21
-17
-11
-6
0
5
13
20
29
38
48
58
69
80
91
103
114
124
133
142
149
157
162
168
171
173
174
174
172
168
162
155
147
138
129
119
108
97
85
73
62
51
40
29
20
11
2
-6
-13
-20
-26
-32
-36
-40
-44
-45
-48
-49
-51
-52
-53
-53
-53
-53
-53
-52
-52
-50
-49
-48
-48
-47
-46
-45
-43
-42
-40
-39
-39
-38
-38
-37
-37
-36
-36
-35
-35
-35
-34
-34
-34
-34
-33
-33
-33
-32
-32
-32
-32
-33
-33
-34
-34
-34
-34
-34
-35
-35
-34
-35
-35
-35
-35
-35
-35
-34
-34
-34
-34
-34
-34
-34
-34
-34
-34
-34
-34
-33
-33
-33
-33
-33
-33
-33
-33
-32
-32
-32
-32
-32
-32
-32
-33
-33
-33
-33
-34
-33
-33
-33
-34
-34
-34
-34
-33
-33
-32
-32
-33
-33
-33
-33
-33
-33
-33
-33
-33
-33
-32
-32
-33
-33
-33
-32
-32
-31
-31
-30
-31
-31
-31
-31
-31
-31
-31
-31
-31
-31
-31
-31
-31
-31
-31
-31
-31
-30
-29
-29
-29
-30
-30
-30
-30
-30
-30
-30
-30
-30
-29
-29
-29
-29
-29
-29
-29
-28
-27
-27
-27
-27
-27
-27
-27
-27
-26
-26
-26
-26
-25
-25
-25
-24
-24
-24
-23
-22
-21
-21
-20
-21
-20
-20
-20
-19
-19
-19
-18
-18
-17
-17
-17
-17
-17
-16
-15
-15
-14
-14
-13
-13
-13
-13
-13
-12
-12
-12
-12
-11
-10
-10
-10
-9
-9
-8
-7
-6
-6
-5
-5
-4
-4
-4
-3
-3
-3
-3
-2
-1
-1
-1
0
0
0
0
1
2
3
4
4
4
4
4
4
5
5
5
5
5
5
6
5
5
5
5
6
6
7
7
6
6
6
6
6
5
6
5
5
5
5
4
4
3
3
3
3
2
3
2
1
0
0
-1
-2
-2
-3
-3
-4
-4
-5
-6
-6
-7
-8
-8
-9
-9
-9
-10
-11
-12
-13
-13
-14
-14
-15
-16
-16
-17
-17
-18
-19
-19
-20
-20
-20
-21
-21
-21
-21
-22
-23
-23
-23
-24
-25
-25
-25
-25
-25
-26
-26
-26
-26
-27
-27
-26
-26
-26
-26
-27
-27
-27
-28
-28
-28
-29
-29
-29
-29
-29
-30
-30
-30
-30
-30
-30
-29
-29
-30
-30
-31
-31
-31
-31
-31
-32
-32
-32
-31
-31
-32
-32
-32
-32
-32
-31
-31
-31
-31
-31
-32
-32
-32
-32
-32
-32
-32
-32
-31
-31
-32
-32
-32
-32
-31
-31
-30
-30
-30
-30
-30
-30
-31
-30
-30
-30
-30
-30
-30
-30
-30
-31
-31
-31
-30
-30
-29
-29
-29
-30
-30
-30
-30
-30
-30
-30
-30
-30
-30
-29
-30
-30
-30
-30
-30
-29
-29
-29
-29
-29
-29
-29
-29
-29
-29
-29
-29
-29
-29
-29
-29
-30
-30
-29
-29
-28
-28
-28
-28
-28
-28
-28
-28
-28
-28
-28
-28
-28
-28
-28
-28
-28
-28
-28
-28
-28
-27
-27
-28
-28
-28
-28
-28
-28
-28
-28
-28
-28
-27
-27
-27
-27
-27
-27
-27
-26
-26
-25
-26
-26
-26
-26
-26
-27
-27
-27
-28
-28
-28
-28
-29
-29
-29
-30
-30
-29
-29
-29
-29
-30
-30
-30
-31
-31
-31
-31
-31
-31
-30
-31
-31
-31
-31
-31
-31
-30
-29
-29
-29
-30
-30
-30
-30
-30
-30
-30
-30
-30
-30
-30
-30
-31
-31
-30
-30
-30
-29
-29
-29
-30
-30
-30
-31
-31
-31
-31
-32
-32
-31
-31
-32
-32
-32
-32
-32
-32
-31
-31
-32
-32
-33
-33
-33
-33
-33
-33
-34
-33
-33
-33
-33
-34
-34
-33
-33
-33
-33
-32
-33
-33
-33
-33
-33
-33
-33
-34
-34
-34
-34
-34
-34
-34
-34
-34
-34
-33
-32
-32
-32
-33
-33
-33
-33
-33
-33
-33
-34
-34
-34
-34
-34
-34
-35
-34
-34
-34
-33
-33
-33
-34
-34
-34
-34
-34
-34
-34
-34
-34
-34
-34
-34
-34
-34
-34
-34
-34
-33
-33
-33
-34
-34
-34
-34
-35
-35
-35
-35
-35
-35
-35
-35
-35
-35
-35
-35
-35
-34
-34
-34
-35
-35
-35
-35
-36
-36
-36
-36
-36
-35
-35
-36
-36
-36
-36
-36
-35
-34
-34
-34
-34
-34
-34
-34
-34
-34
-35
-35
-34
-34
-34
-34
-35
-35
-35
-35
-34
-34
-33
-33
-34
-34
-34
-35
-35
-35
-35
-35
-35
-35
-35
-35
-35
-35
-35
-35
-34
-34
-33
-34
-34
-34
-34
-35
-35
-34
-35
-35
-34
-34
-34
-34
-35
-35
-34
-34
-34
-33
-33
-33
-34
-34
-34
-34
-35
-35
-35
-35
-35
-35
-35
-35
-35
-35
-35
-35
-35
-34
-34
-35
-35
-35
-35
-36
-36
-36
-36
-36
-36
-35
-35
-35
-36
-35
-35
-35
-35
-34
-33
-33
-33
-34
-34
-34
-34
-34
-34
-34
-34
-33
-33
-33
-34
-34
-34
-33
-33
-32
-32
-33
-33
-34
-34
-34
-34
-34
-34
-35
-34
-34
-34
-34
-35
-34
-34
-33
-33
-31
-31
-31
-30
-30
-30
-29
-29
-28
-27
-27
-26
-26
-25
-25
-24
-24
-23
-23
-22
-21
-20
-20
-20
-20
-20
-20
-20
-19
-19
-19
-18
-18
-17
-17
-17
-16
-15
-15
-14
-13
-11
-11
-11
-10
-10
-10
-9
-9
-9
-9
-8
-8
-8
-8
-8
-8
-8
-9
-9
-8
-9
-9
-10
-11
-12
-12
-13
-14
-15
-16
-17
-17
-18
-19
-19
-20
-21
-22
-22
-22
-23
-23
-24
-25
-26
-27
-28
-28
-29
-30
-30
-30
-31
-32
-32
-32
-33
-33
-33
-32
-32
-33
-33
-33
-33
-34
-34
-34
-34
-34
-35
-35
-35
-35
-35
-35
-36
-36
-35
-35
-35
-35
-35
-36
-36
-36
-36
-37
-37
-37
-38
-38
-38
-39
-39
-39
-39
-39
-39
-39
-39
-39
-39
-40
-40
-40
-40
-40
-40
-40
-40
-39
-39
-39
-39
-39
-38
-38
-38
-37
-37
-37
-37
-37
-37
-37
-37
-37
-38
-38
-38
-38
-39
-40
-41
-42
-43
-44
-45
-46
-47
-49
-50
-52
-54
-56
-57
-58
-59
-60
-61
-61
-61
-61
-61
-60
-59
-57
-55
-52
-50
-48
-45
-42
-39
-36
-32
-27
-23
-18
-13
-6
0
7
16
25
35
46
56
67
78
89
98
108
117
125
133
140
146
150
154
156
157
156
153
149
144
137
130
123
114
105
94
84
73
63
53
43
33
24
15
7
0
-8
-15
-21
-27
-32
-35
-38
-41
-44
-47
-49
-50
-51
-52
-52
-52
-53
-52
-51
-50
-50
-49
-48
-47
-46
-44
-43
-42
-41
-40
-39
-39
-38
-38
-37
-36
-36
-35
-35
-35
-35
-35
-35
-34
-34
-34
-33
-33
-33
-33
-34
-34
-34
-35
-35
-35
-36
-36
-36
-36
-36
-37
-37
-37
-37
-37
-36
-36
-36
-36
-36
-36
-37
-37
-36
-36
-36
-36
-35
-35
-35
-35
-35
-35
-35
-34
-33
-33
-33
-33
-33
-33
-33
-33
-33
-33
-34
-34
-34
-34
-34
-35
-35
-35
-35
-34
-34
-33
-33
-34
-34
-34
-34
-35
-34
-34
-35
-35
-34
-34
-34
-35
-34
-34
-34
-34
-33
-32
-32
-33
-33
-33
-33
-33
-33
-33
-33
-33
-32
-32
-32
-32
-32
-32
-32
-31
-31
-30
-30
-30
-30
-30
-30
-30
-30
-30
-30
-30
-30
-30
-30
-30
-30
-30
-30
-30
-29
-29
-29
-29
-29
-30
-30
-30
-29
-30
-30
-29
-29
-29
-29
-29
-29
-28
-28
-28
-27
-26
-26
-26
-26
-26
-26
-26
-25
-25
-25
-24
-24
-23
-23
-23
-22
-22
-21
-21
-20
-19
-19
-19
-19
-19
-19
-19
-19
-19
-19
-19
-18
-18
-17
-18
-17
-17
-16
-16
-15
-14
-14
-13
-13
-12
-12
-11
-10
-10
-10
-9
-8
-7
-7
-6
-6
-5
-5
-4
-2
-2
-1
-1
-1
-1
-1
0
0
0
0
0
0
1
1
0
0
1
1
1
2
3
3
3
3
3
3
2
3
2
2
2
2
2
2
1
2
1
1
1
2
2
1
1
0
0
0
-1
-1
-2
-3
-3
-3
-4
-4
-4
-5
-6
-6
-6
-7
-7
-7
-9
-9
-10
-11
-12
-12
-13
-14
-15
-15
-16
-17
-18
-18
-19
-20
-20
-20
-20
-20
-21
-22
-23
-23
-24
-25
-25
-26
-26
-27
-27
-27
-28
-28
-29
-29
-29
-28
-28
-29
-29
-29
-30
-30
-30
-30
-30
-31
-31
-30
-30
-31
-31
-31
-31
-31
-31
-30
-30
-30
-30
-31
-31
-32
-32
-32
-32
-32
-32
-32
-32
-32
-32
-32
-32
-32
-31
-31
-30
-30
-31
-31
-31
-31
-31
-31
-31
-32
-32
-31
-31
-31
-32
-32
-32
-32
-31
-30
-30
-30
-30
-31
-31
-31
-31
-31
-31
-31
-31
-31
-31
-31
-32
-32
-32
-32
-32
-31
-31
-31
-32
-32
-32
-32
-32
-32
-32
-32
-32
-32
-31
-31
-32
-32
-31
-31
-31
-30
-29
-29
-29
-29
-29
-29
-29
-29
-29
-30
-30
-29
-29
-29
-30
-30
-30
-30
-30
-29
-29
-29
-30
-30
-31
-31
-31
-31
-31
-32
-32
-31
-31
-31
-31
-32
-32
-31
-31
-30
-30
-30
-30
-31
-31
-31
-31
-30
-30
-31
-31
-30
-30
-30
-30
-30
-30
-30
-30
-30
-29
-29
-29
-30
-30
-30
-30
-30
-30
-30
-31
-31
-31
-31
-31
-32
-32
-32
-31
-31
-30
-31
-31
-32
-32
-32
-32
-32
-32
-32
-32
-32
-32
-32
-32
-32
-32
-32
-31
-31
-30
-30
-31
-31
-31
-31
-31
-31
-32
-32
-32
-32
-32
-32
-33
-33
-33
-33
-33
-32
-32
-32
-32
-33
-33
-33
-33
-33
-33
-34
-33
-33
-33
-33
-33
-34
-34
-33
-33
-32
-32
-32
-32
-33
-33
-33
-33
-33
-33
-33
-33
-33
-33
-33
-34
-34
-34
-34
-34
-33
-33
-33
-33
-33
-34
-34
-34
-33
-33
-33
-33
-33
-32
-32
-33
-33
-33
-33
-32
-32
-31
-31
-32
-32
-33
-33
-33
-33
-33
-34
-34
-34
-34
-34
-34
-35
-35
-35
-34
-34
-33
-33
-34
-34
-35
-35
-35
-35
-35
-35
-35
-35
-35
-35
-35
-35
-35
-35
-35
-34
-34
-34
-34
-35
-35
-35
-35
-35
-35
-36
-36
-35
-35
-35
-36
-36
-36
-36
-36
-35
-35
-35
-35
-36
-36
-36
-36
-36
-36
-37
-37
-37
-37
-37
-37
-37
-37
-37
-37
-36
-36
-36
-36
-37
-37
-37
-37
-37
-37
-37
-37
-36
-36
-36
-36
-36
-36
-36
-36
-35
-34
-35
-35
-36
-36
-36
-36
-36
-36
-37
-37
-37
-37
-37
-37
-38
-38
-38
-37
-37
-36
-36
-36
-36
-36
-36
-37
-37
-37
-37
-37
-37
-37
-37
-37
-37
-37
-37
-37
-36
-36
-36
-36
-37
-37
-37
-37
-37
-37
-37
-37
-36
-36
-36
-36
-36
-36
-36
-36
-35
-34
-34
-35
-35
-35
-35
-36
-36
-36
-36
-36
-36
-36
-36
-37
-37
-37
-37
-37
-36
-36
-36
-36
-36
-37
-37
-37
-37
-37
-37
-38
-37
-37
-37
-38
-38
-38
-37
-37
-36
-36
-36
-36
-36
-36
-36
-36
-36
-36
-36
-36
-35
-35
-35
-35
-35
-35
-34
-33
-32
-31
-31
-31
-31
-30
-30
-30
-29
-28
-28
-28
-27
-27
-26
-26
-25
-25
-24
-23
-22
-22
-21
-21
-22
-21
-21
-21
-21
-21
-21
-21
-21
-20
-20
-20
-20
-20
-20
-19
-19
-18
-18
-17
-17
-17
-16
-16
-15
-14
-14
-14
-13
-11
-11
-11
-11
-10
-10
-9
-9
-8
-8
-8
-9
-9
-9
-10
-10
-11
-12
-12
-13
-13
-14
-15
-16
-17
-18
-18
-18
-18
-19
-20
-21
-22
-23
-23
-24
-25
-26
-26
-27
-27
-28
-29
-30
-30
-30
-31
-31
-31
-31
-32
-33
-34
-35
-35
-36
-36
-37
-37
-37
-37
-38
-38
-39
-39
-39
-39
-38
-38
-38
-39
-40
-40
-40
-40
-40
-40
-41
-41
-41
-41
-41
-42
-42
-42
-42
-42
-42
-41
-41
-42
-42
-42
-42
-43
-43
-43
-43
-43
-42
-42
-42
-42
-42
-42
-42
-42
-41
-41
-41
-41
-41
-42
-42
-42
-42
-42
-42
-42
-42
-42
-42
-42
-42
-42
-42
-42
-41
-41
-41
-41
-42
-43
-44
-45
-46
-48
-49
-50
-52
-53
-55
-58
-60
-61
-63
-64
-65
-65
-66
-67
-68
-68
-68
-68
-67
-66
-65
-63
-61
-58
-55
-53
-50
-46
-42
-37
-32
-26
-21
-15
-8
0
8
17
27
38
49
59
70
82
92
101
111
120
128
136
144
149
154
157
158
158
157
153
149
144
137
129
121
112
103
93
82
72
62
52
43
34
26
16
7
0
-8
-15
-22
-28
-33
-37
-41
-44
-46
-49
-51
-53
-53
-54
-54
-54
-54
-53
-53
-52
-52
-51
-50
-49
-49
-48
-47
-46
-45
-45
-44
-44
-43
-42
-41
-40
-40
-40
-39
-39
-39
-39
-39
-39
-39
-40
-39
-39
-40
-40
-40
-41
-41
-41
-40
-40
-40
-40
-41
-41
-41
-41
-42
-42
-42
-42
-42
-42
-41
-42
-42
-41
-41
-40
-40
-39
-39
-40
-40
-40
-40
-40
-41
-41
-41
-42
-42
-41
-41
-42
-43
-43
-43
-43
-42
-42
-42
-42
-42
-42
-42
-43
-42
-42
-42
-42
-41
-41
-41
-41
-41
-41
-41
-41
-40
-39
-39
-39
-39
-39
-39
-39
-39
-39
-39
-39
-39
-38
-38
-39
-39
-39
-38
-38
-37
-37
-37
-37
-38
-38
-38
-38
-38
-38
-38
-38
-38
-37
-37
-37
-37
-37
-37
-36
-35
-34
-34
-34
-35
-34
-34
-34
-35
-35
-35
-35
-35
-34
-34
-35
-35
-35
-35
-35
-34
-33
-33
-34
-34
-34
-34
-34
-33
-34
-33
-33
-33
-33
-32
-32
-32
-32
-32
-31
-30
-29
-29
-29
-29
-28
-28
-28
-28
-28
-28
-27
-27
-26
-26
-26
-26
-26
-25
-25
-23
-23
-22
-22
-22
-22
-22
-21
-21
-21
-20
-20
-19
-19
-19
-18
-19
-18
-17
-17
-16
-15
-14
-14
-14
-14
-13
-13
-13
-12
-12
-12
-11
-11
-10
-10
-10
-10
-9
-9
-8
-7
-6
-6
-6
-6
-6
-5
-5
-5
-5
-4
-4
-4
-3
-3
-3
-3
-2
-3
-1
-1
-1
-1
-1
-2
-2
-2
-2
-3
-3
-3
-3
-3
-4
-4
-5
-5
-5
-6
-6
-5
-6
-7
-7
-7
-8
-9
-9
-10
-10
-11
-11
-12
-13
-13
-15
-15
-16
-16
-16
-17
-17
-18
-19
-20
-20
-21
-22
-22
-23
-23
-24
-24
-24
-25
-25
-26
-26
-26
-26
-26
-26
-27
-27
-28
-29
-29
-29
-29
-30
-31
-31
-31
-31
-32
-32
-33
-33
-32
-32
-32
-32
-32
-33
-33
-33
-34
-34
-34
-35
-35
-35
-35
-35
-35
-35
-35
-35
-35
-34
-33
-33
-33
-33
-34
-34
-34
-34
-34
-34
-34
-34
-34
-33
-33
-34
-34
-34
-33
-33
-32
-32
-32
-32
-32
-32
-33
-33
-33
-33
-33
-33
-32
-32
-33
-33
-33
-33
-33
-32
-32
-32
-32
-32
-33
-33
-33
-33
-33
-33
-33
-33
-33
-33
-33
-33
-33
-33
-33
-32
-32
-32
-32
-32
-32
-32
-33
-33
-32
-33
-33
-33
-33
-33
-33
-33
-33
-33
-33
-32
-32
-32
-32
-33
-33
-33
-33
-33
-33
-33
-33
-33
-33
-32
-33
-33
-33
-32
-32
-31
-31
-30
-31
-31
-31
-31
-32
-32
-32
-32
-33
-32
-32
-32
-33
-33
-33
-33
-33
-33
-33
-32
-33
-33
-33
-33
-34
-34
-34
-34
-34
-34
-34
-34
-34
-34
-34
-34
-34
-33
-33
-33
-33
-33
-33
-33
-34
-34
-33
-33
-34
-33
-33
-33
-34
-34
-34
-34
-34
-34
-33
-33
-33
-34
-34
-34
-35
-35
-35
-35
-35
-35
-35
-35
-35
-36
-36
-36
-36
-35
-35
-35
-35
-35
-35
-36
-36
-36
-36
-36
-36
-36
-36
-36
-36
-36
-36
-36
-36
-36
-35
-35
-35
-35
-35
-35
-35
-35
-35
-35
-36
-35
-35
-35
-36
-36
-36
-36
-36
-36
-36
-35
-36
-36
-36
-36
-37
-37
-36
-36
-37
-36
-36
-36
-36
-37
-37
-36
-36
-36
-35
-35
-35
-35
-35
-35
-36
-36
-36
-36
-36
-36
-36
-35
-36
-36
-35
-35
-35
-35
-34
-34
-34
-35
-35
-35
-35
-35
-35
-36
-36
-36
-36
-36
-37
-37
-37
-37
-37
-37
-36
-36
-37
-37
-37
-38
-38
-38
-38
-38
-38
-38
-38
-38
-38
-39
-39
-39
-38
-38
-37
-37
-37
-37
-37
-37
-38
-38
-37
-38
-38
-38
-37
-37
-38
-38
-38
-38
-38
-37
-37
-36
-37
-37
-37
-37
-37
-37
-37
-37
-38
-38
-37
-37
-37
-38
-38
-38
-37
-37
-36
-36
-36
-36
-37
-37
-37
-37
-37
-37
-37
-37
-37
-37
-37
-37
-37
-37
-37
-36
-36
-35
-35
-36
-36
-36
-36
-36
-36
-36
-36
-36
-36
-36
-36
-36
-36
-36
-36
-35
-35
-34
-34
-35
-35
-35
-35
-34
-34
-34
-33
-33
-32
-32
-32
-31
-31
-30
-29
-28
-27
-26
-26
-25
-25
-25
-24
-24
-23
-23
-23
-22
-22
-21
-21
-21
-21
-21
-20
-20
-19
-18
-18
-18
-18
-17
-17
-17
-16
-16
-16
-15
-15
-14
-13
-13
-13
-12
-11
-10
-9
-9
-8
-8
-8
-8
-9
-9
-9
-9
-10
-10
-10
-11
-12
-12
-13
-14
-14
-14
-14
-15
-16
-17
-18
-18
-19
-20
-21
-22
-23
-23
-24
-24
-25
-26
-27
-27
-28
-29
-28
-29
-30
-31
-31
-32
-33
-34
-34
-35
-36
-36
-36
-36
-37
-37
-37
-38
-38
-37
-37
-37
-37
-37
-37
-38
-38
-39
-38
-38
-38
-39
-38
-39
-39
-39
-39
-39
-39
-39
-38
-38
-39
-39
-40
-40
-40
-40
-41
-41
-42
-42
-42
-42
-42
-43
-43
-43
-43
-43
-42
-42
-42
-42
-42
-42
-42
-42
-42
-42
-42
-41
-41
-40
-40
-40
-40
-40
-40
-39
-38
-38
-38
-39
-40
-40
-41
-42
-43
-45
-46
-47
-48
-49
-51
-53
-55
-57
-58
-59
-60
-61
-63
-64
-65
-65
-66
-66
-66
-65
-65
-63
-62
-60
-58
-56
-54
-51
-48
-44
-40
-34
-30
-25
-20
-14
-7
0
8
17
27
38
48
59
70
82
93
103
114
124
133
142
149
155
159
163
166
167
167
165
162
157
152
145
