# Simple Text Format
# Sampling Rate (Hz):= 1200.00
# Resolution:= 12
# Labels:= ECG	 V3
# Age:=	23
# Gender:=	Masculino
-81
-81
-80
-80
-79
-79
-79
-78
-77
-77
-77
-75
-75
-74
-74
-72
-72
-72
-70
-70
-70
-69
-69
-68
-67
-67
-67
-66
-66
-66
-66
-65
-65
-64
-65
-65
-64
-65
-64
-64
-64
-63
-63
-63
-62
-62
-61
-61
-61
-60
-60
-60
-59
-60
-60
-60
-59
-59
-60
-60
-61
-62
-61
-62
-62
-63
-63
-64
-65
-65
-66
-67
-67
-68
-68
-68
-68
-69
-69
-70
-71
-72
-72
-72
-72
-73
-72
-73
-73
-74
-74
-75
-75
-75
-76
-76
-77
-77
-77
-78
-79
-79
-80
-80
-80
-80
-80
-81
-81
-82
-82
-83
-83
-84
-84
-84
-84
-84
-84
-85
-85
-86
-86
-86
-86
-86
-86
-86
-87
-87
-87
-87
-87
-87
-87
-88
-88
-88
-88
-88
-88
-89
-89
-89
-89
-89
-89
-88
-88
-89
-89
-88
-88
-89
-89
-89
-88
-88
-89
-89
-88
-89
-89
-89
-89
-88
-88
-88
-88
-88
-88
-88
-89
-89
-89
-89
-89
-89
-89
-89
-88
-88
-87
-85
-83
-81
-79
-75
-72
-68
-63
-58
-52
-45
-39
-32
-24
-15
-7
3
12
22
33
43
54
65
75
85
95
103
112
121
127
134
138
142
145
145
145
143
139
134
128
121
112
101
89
74
59
43
24
5
-15
-36
-58
-79
-101
-122
-144
-166
-188
-210
-231
-251
-271
-288
-305
-321
-336
-348
-360
-370
-379
-385
-390
-394
-396
-397
-396
-394
-391
-387
-381
-375
-367
-359
-351
-341
-331
-320
-310
-299
-288
-277
-265
-254
-243
-232
-222
-211
-202
-192
-183
-173
-164
-156
-147
-140
-133
-127
-120
-115
-109
-104
-100
-95
-92
-89
-85
-82
-80
-78
-76
-75
-73
-71
-70
-68
-67
-66
-65
-64
-65
-63
-63
-63
-62
-61
-61
-60
-60
-59
-59
-58
-57
-56
-56
-55
-54
-54
-53
-53
-52
-52
-52
-51
-51
-51
-50
-49
-49
-49
-48
-48
-47
-47
-47
-47
-46
-45
-45
-45
-44
-44
-44
-44
-43
-43
-43
-43
-43
-42
-42
-42
-42
-41
-41
-40
-39
-39
-38
-38
-37
-37
-36
-35
-34
-33
-33
-32
-32
-32
-31
-30
-30
-30
-29
-28
-28
-28
-27
-27
-27
-26
-26
-25
-25
-24
-24
-24
-24
-23
-22
-21
-21
-20
-20
-18
-17
-17
-16
-15
-14
-14
-13
-12
-11
-11
-10
-9
-8
-7
-6
-5
-5
-3
-2
-1
0
1
2
3
4
5
6
8
8
10
11
12
12
14
15
16
17
19
20
21
22
23
24
25
27
28
29
30
31
32
33
35
35
36
37
38
39
40
41
42
43
43
44
45
45
46
47
48
49
49
49
50
50
50
50
50
50
51
50
51
51
50
51
50
50
50
49
49
49
48
47
47
46
45
45
44
43
43
42
41
41
39
38
37
36
35
34
34
32
31
29
28
26
25
23
22
21
19
18
16
14
12
11
10
8
6
5
3
1
0
-2
-3
-4
-7
-8
-10
-12
-13
-15
-16
-17
-20
-21
-22
-24
-25
-27
-29
-30
-32
-33
-34
-37
-37
-40
-41
-42
-43
-44
-45
-47
-48
-50
-50
-52
-53
-54
-55
-56
-57
-58
-59
-60
-61
-62
-64
-64
-65
-65
-66
-67
-67
-68
-69
-69
-70
-71
-71
-71
-73
-73
-73
-74
-74
-75
-75
-76
-76
-76
-77
-77
-77
-77
-78
-78
-78
-78
-78
-79
-79
-79
-79
-79
-80
-80
-80
-80
-80
-80
-80
-80
-80
-80
-81
-81
-81
-81
-82
-82
-82
-82
-83
-83
-84
-84
-84
-84
-84
-85
-85
-86
-85
-85
-85
-85
-86
-86
-86
-86
-86
-86
-86
-85
-86
-86
-85
-85
-85
-85
-84
-84
-85
-84
-84
-84
-84
-84
-84
-84
-83
-83
-83
-83
-83
-84
-84
-83
-83
-83
-82
-82
-82
-82
-81
-81
-82
-82
-81
-81
-81
-81
-81
-81
-81
-81
-81
-80
-80
-80
-79
-80
-80
-80
-79
-79
-78
-78
-78
-77
-77
-77
-77
-77
-76
-76
-76
-76
-76
-75
-75
-75
-75
-74
-74
-74
-74
-74
-74
-75
-75
-75
-75
-74
-75
-74
-74
-74
-74
-74
-74
-73
-74
-73
-73
-73
-73
-73
-73
-73
-74
-74
-73
-73
-74
-73
-73
-74
-74
-73
-73
-73
-73
-73
-73
-73
-74
-74
-74
-74
-74
-74
-74
-75
-75
-75
-75
-76
-75
-75
-75
-75
-75
-75
-75
-75
-75
-75
-75
-76
-76
-76
-76
-77
-77
-77
-77
-77
-77
-77
-77
-77
-77
-77
-78
-78
-78
-78
-78
-78
-78
-78
-78
-79
-79
-79
-79
-79
-79
-79
-79
-79
-79
-80
-80
-80
-80
-81
-81
-81
-81
-82
-82
-82
-83
-83
-84
-83
-83
-83
-83
-83
-84
-84
-84
-84
-85
-85
-85
-84
-85
-85
-85
-85
-86
-85
-86
-86
-85
-86
-86
-86
-86
-86
-86
-86
-86
-87
-87
-87
-87
-87
-87
-88
-89
-88
-88
-88
-89
-89
-89
-89
-89
-89
-89
-89
-90
-90
-90
-90
-90
-90
-89
-90
-90
-90
-90
-90
-90
-90
-90
-90
-90
-90
-90
-90
-91
-91
-91
-90
-90
-90
-91
-91
-92
-91
-91
-92
-92
-92
-92
-92
-92
-92
-92
-92
-93
-93
-93
-93
-93
-94
-94
-95
-94
-95
-95
-95
-95
-95
-95
-95
-95
-95
-95
-95
-95
-96
-96
-95
-95
-95
-96
-96
-97
-96
-97
-97
-96
-96
-96
-96
-97
-97
-97
-97
-97
-97
-98
-97
-97
-98
-97
-98
-98
-98
-98
-98
-98
-98
-98
-98
-99
-99
-99
-100
-99
-99
-100
-100
-100
-100
-100
-101
-100
-101
-101
-101
-100
-101
-101
-101
-101
-101
-100
-100
-101
-101
-100
-100
-100
-100
-100
-100
-100
-100
-100
-99
-99
-99
-99
-98
-98
-98
-98
-98
-98
-99
-98
-98
-98
-98
-98
-98
-99
-98
-99
-99
-98
-98
-98
-98
-98
-97
-97
-97
-97
-96
-95
-95
-94
-93
-93
-92
-92
-92
-90
-90
-89
-88
-88
-87
-86
-86
-86
-86
-85
-85
-85
-84
-84
-84
-84
-84
-84
-84
-84
-83
-83
-83
-83
-82
-82
-81
-81
-80
-80
-79
-79
-78
-77
-77
-76
-76
-75
-75
-74
-74
-73
-73
-73
-73
-73
-73
-73
-73
-74
-74
-75
-75
-77
-77
-78
-79
-80
-80
-82
-81
-82
-83
-83
-84
-85
-85
-86
-86
-88
-88
-88
-89
-90
-90
-91
-91
-91
-91
-92
-92
-93
-93
-94
-94
-94
-95
-95
-95
-96
-96
-97
-97
-98
-98
-98
-99
-100
-100
-100
-100
-100
-100
-101
-101
-102
-102
-102
-102
-104
-104
-104
-104
-104
-105
-105
-105
-106
-106
-106
-106
-106
-106
-106
-107
-107
-107
-106
-106
-106
-107
-106
-106
-107
-107
-107
-106
-107
-107
-107
-107
-106
-106
-106
-106
-106
-106
-106
-106
-106
-105
-105
-105
-105
-105
-105
-105
-105
-105
-105
-104
-104
-104
-104
-103
-102
-101
-100
-98
-96
-94
-91
-89
-84
-80
-76
-71
-65
-59
-53
-45
-39
-31
-22
-12
-3
6
16
25
35
44
54
63
72
80
88
94
100
105
108
111
112
112
111
109
105
99
93
84
76
65
52
39
25
9
-8
-27
-45
-64
-82
-101
-122
-141
-161
-181
-201
-220
-238
-255
-273
-290
-305
-319
-333
-344
-355
-365
-373
-380
-385
-389
-391
-393
-393
-392
-389
-386
-381
-377
-371
-363
-355
-346
-338
-328
-318
-308
-298
-287
-277
-265
-254
-244
-234
-224
-214
-204
-195
-185
-177
-169
-161
-153
-147
-140
-135
-130
-125
-120
-115
-111
-108
-104
-102
-99
-96
-94
-93
-91
-89
-88
-87
-86
-85
-85
-84
-82
-82
-82
-81
-80
-79
-79
-78
-78
-78
-77
-77
-76
-76
-76
-75
-75
-74
-74
-73
-73
-73
-73
-72
-71
-71
-70
-70
-69
-69
-69
-68
-68
-68
-68
-67
-67
-67
-67
-66
-66
-66
-65
-65
-65
-65
-64
-64
-64
-63
-63
-63
-63
-62
-62
-61
-61
-60
-60
-60
-59
-59
-59
-58
-57
-57
-56
-56
-55
-55
-54
-54
-54
-54
-52
-52
-51
-51
-50
-50
-49
-49
-48
-47
-46
-45
-45
-44
-43
-43
-43
-42
-41
-40
-40
-39
-38
-37
-36
-36
-36
-35
-34
-34
-33
-32
-31
-31
-30
-29
-29
-28
-27
-27
-26
-25
-24
-23
-22
-22
-21
-21
-20
-19
-17
-16
-15
-14
-13
-12
-11
-10
-9
-8
-6
-6
-4
-4
-3
-1
-1
1
1
2
3
5
6
6
8
9
10
11
11
12
14
14
15
15
17
17
17
17
18
19
20
20
21
21
22
22
23
23
23
24
24
25
25
25
25
26
26
26
25
26
26
26
26
26
26
26
25
25
24
24
23
22
22
21
20
19
19
18
17
17
16
15
14
13
12
11
10
9
8
7
5
4
3
2
1
0
-2
-3
-4
-6
-7
-9
-10
-11
-12
-14
-15
-16
-18
-19
-21
-22
-24
-26
-27
-28
-30
-32
-34
-36
-37
-39
-40
-42
-43
-44
-45
-47
-48
-49
-51
-52
-54
-54
-55
-57
-58
-59
-60
-61
-62
-63
-63
-65
-65
-66
-67
-68
-69
-70
-70
-71
-72
-73
-73
-75
-75
-77
-77
-78
-77
-78
-79
-80
-80
-80
-80
-81
-82
-82
-83
-83
-83
-83
-84
-84
-84
-85
-85
-85
-85
-85
-85
-86
-86
-86
-86
-86
-86
-86
-87
-87
-87
-87
-87
-87
-87
-88
-88
-88
-87
-86
-87
-87
-87
-87
-86
-87
-87
-87
-86
-87
-87
-87
-87
-88
-87
-88
-89
-89
-88
-88
-88
-88
-88
-87
-87
-88
-88
-88
-88
-88
-87
-88
-87
-87
-88
-88
-87
-88
-88
-87
-87
-87
-87
-86
-87
-87
-86
-86
-86
-85
-86
-85
-85
-85
-86
-85
-85
-85
-85
-84
-84
-84
-84
-84
-84
-83
-83
-84
-84
-84
-83
-83
-83
-83
-83
-84
-83
-83
-83
-83
-83
-82
-82
-82
-82
-81
-81
-80
-81
-80
-80
-80
-80
-79
-79
-80
-79
-79
-79
-79
-78
-78
-78
-78
-78
-78
-78
-78
-78
-78
-78
-78
-79
-79
-79
-79
-79
-79
-79
-79
-79
-79
-79
-79
-79
-78
-78
-79
-78
-78
-78
-78
-78
-78
-78
-78
-78
-78
-77
-77
-77
-77
-77
-77
-77
-77
-77
-78
-77
-78
-77
-77
-78
-78
-78
-78
-79
-79
-78
-78
-78
-78
-78
-78
-78
-79
-79
-80
-80
-80
-80
-79
-80
-81
-80
-81
-81
-81
-81
-82
-82
-82
-82
-82
-82
-82
-82
-82
-82
-82
-82
-82
-83
-83
-83
-83
-83
-83
-83
-83
-83
-83
-83
-83
-84
-84
-84
-85
-84
-85
-85
-85
-85
-85
-86
-86
-86
-86
-86
-86
-86
-86
-86
-86
-85
-85
-85
-85
-86
-86
-85
-86
-86
-86
-85
-86
-86
-86
-86
-86
-86
-86
-86
-86
-86
-86
-87
-87
-86
-86
-87
-87
-87
-86
-87
-88
-87
-87
-88
-88
-88
-88
-88
-88
-88
-88
-88
-88
-89
-89
-89
-89
-89
-89
-90
-90
-90
-90
-90
-90
-90
-90
-90
-90
-90
-91
-90
-91
-90
-91
-90
-90
-90
-90
-91
-92
-92
-92
-91
-91
-91
-91
-91
-92
-92
-92
-92
-92
-93
-93
-93
-93
-93
-93
-94
-94
-94
-95
-94
-94
-95
-95
-95
-95
-95
-95
-95
-95
-96
-96
-96
-96
-96
-96
-97
-97
-97
-97
-97
-97
-97
-98
-98
-97
-98
-98
-98
-98
-98
-98
-99
-99
-99
-99
-98
-99
-100
-100
-99
-99
-99
-99
-99
-99
-99
-99
-100
-99
-100
-100
-99
-100
-99
-99
-100
-101
-100
-101
-101
-100
-100
-100
-100
-101
-100
-100
-100
-100
-101
-100
-100
-101
-100
-100
-100
-101
-101
-101
-100
-100
-100
-100
-99
-99
-100
-100
-100
-100
-100
-100
-100
-100
-100
-100
-101
-100
-101
-101
-102
-101
-101
-101
-101
-101
-101
-101
-101
-102
-102
-102
-101
-101
-101
-101
-102
-101
-102
-102
-102
-102
-102
-102
-101
-101
-101
-101
-101
-101
-102
-102
-101
-101
-101
-101
-102
-101
-102
-102
-101
-101
-102
-102
-102
-102
-102
-102
-102
-102
-102
-102
-102
-102
-102
-102
-102
-102
-103
-103
-103
-103
-103
-103
-103
-103
-103
-103
-103
-102
-103
-102
-103
-103
-103
-103
-102
-102
-102
-102
-101
-101
-101
-100
-100
-100
-99
-99
-99
-98
-97
-97
-97
-96
-95
-94
-95
-94
-93
-93
-93
-92
-91
-91
-91
-91
-91
-91
-90
-89
-90
-89
-89
-89
-89
-89
-88
-88
-88
-88
-86
-86
-85
-85
-85
-83
-83
-83
-82
-81
-80
-80
-80
-80
-80
-80
-79
-80
-81
-80
-81
-81
-81
-82
-82
-83
-84
-84
-85
-86
-87
-87
-88
-89
-89
-90
-90
-91
-92
-92
-93
-93
-93
-94
-95
-94
-94
-95
-95
-96
-96
-96
-96
-97
-97
-97
-98
-98
-99
-100
-100
-99
-101
-101
-101
-101
-102
-102
-103
-103
-103
-103
-104
-104
-104
-104
-105
-105
-105
-105
-106
-106
-106
-107
-107
-108
-109
-111
-112
-112
-112
-112
-112
-111
-110
-109
-107
-107
-106
-105
-104
-104
-104
-104
-104
-105
-106
-106
-106
-107
-107
-108
-107
-107
-108
-108
-108
-108
-109
-109
-108
-108
-108
-108
-108
-108
-108
-108
-108
-108
-108
-107
-107
-106
-105
-104
-104
-102
-100
-98
-96
-92
-90
-87
-83
-79
-74
-69
-64
-57
-51
-44
-38
-30
-21
-14
-4
4
13
21
30
38
46
53
59
66
71
76
79
82
84
85
85
83
81
78
73
67
60
52
44
32
21
8
-6
-21
-38
-54
-71
-88
-104
-123
-141
-159
-176
-195
-212
-230
-248
-263
-279
-294
-308
-321
-333
-343
-352
-361
-368
-373
-378
-381
-383
-384
-383
-383
-380
-377
-373
-368
-363
-355
-348
-341
-332
-323
-314
-304
-294
-283
-274
-264
-253
-243
-234
-224
-215
-206
-198
-190
-182
-176
-168
-163
-156
-151
-146
-141
-137
-133
-129
-125
-122
-119
-116
-112
-109
-106
-104
-102
-100
-99
-98
-98
-100
-100
-101
-101
-102
-103
-102
-103
-103
-102
-101
-100
-99
-97
-96
-95
-94
-94
-94
-94
-94
-94
-94
-95
-95
-96
-97
-97
-97
-97
-97
-97
-97
-97
-97
-97
-97
-97
-97
-97
-97
-98
-99
-99
-99
-99
-100
-99
-99
-98
-98
-97
-97
-97
-96
-96
-95
-95
-96
-96
-96
-96
-96
-96
-95
-95
-94
-94
-93
-93
-92
-92
-91
-90
-89
-89
-88
-88
-88
-87
-87
-87
-87
-86
-87
-86
-86
-86
-85
-84
-84
-83
-83
-82
-82
-82
-81
-81
-81
-80
-80
-79
-79
-78
-76
-76
-75
-74
-73
-72
-71
-70
-69
-67
-66
-66
-65
-64
-63
-62
-61
-60
-59
-58
-57
-57
-56
-55
-53
-52
-51
-50
-49
-47
-47
-46
-45
-44
-43
-42
-41
-40
-39
-38
-37
-35
-34
-33
-31
-30
-29
-27
-26
-25
-25
-24
-22
-23
-22
-20
-20
-19
-19
-18
-17
-16
-16
-15
-16
-14
-13
-13
-12
-13
-12
-12
-12
-13
-12
-12
-11
-12
-12
-12
-12
-12
-12
-12
-12
-12
-13
-12
-13
-13
-14
-14
-15
-15
-16
-17
-17
-18
-17
-18
-18
-19
-19
-19
-19
-19
-20
-21
-21
-22
-23
-24
-25
-25
-27
-28
-28
-29
-30
-31
-32
-33
-34
-35
-35
-36
-38
-38
-39
-41
-43
-45
-46
-48
-50
-51
-52
-53
-54
-56
-57
-58
-59
-61
-61
-62
-63
-65
-66
-67
-69
-70
-71
-73
-75
-76
-77
-78
-79
-80
-80
-82
-82
-83
-83
-84
-86
-86
-87
-88
-89
-90
-91
-92
-93
-94
-95
-95
-95
-96
-96
-96
-96
-96
-96
-96
-97
-97
-98
-98
-99
-100
-101
-101
-101
-102
-102
-101
-102
-101
-101
-101
-101
-101
-101
-100
-100
-101
-101
-102
-103
-103
-103
-103
-104
-105
-104
-104
-104
-103
-103
-103
-103
-102
-102
-102
-102
-102
-103
-104
-104
-104
-104
-106
-106
-106
-106
-106
-105
-105
-104
-104
-104
-103
-103
-102
-102
-102
-103
-104
-104
-104
-105
-105
-105
-105
-105
-105
-104
-104
-103
-103
-103
-103
-103
-102
-102
-103
-103
-103
-104
-104
-104
-104
-104
-104
-104
-104
-104
-103
-103
-102
-102
-102
-101
-102
-102
-102
-101
-102
-103
-103
-103
-103
-103
-103
-103
-103
-102
-102
-101
-101
-101
-101
-100
-100
-100
-100
-100
-101
-102
-102
-102
-102
-102
-102
-101
-101
-101
-100
-99
-99
-98
-98
-98
-98
-98
-98
-98
-98
-99
-99
-99
-99
-99
-98
-98
-98
-97
-97
-96
-96
-96
-96
-96
-96
-96
-96
-97
-96
-97
-97
-97
-97
-97
-97
-97
-97
-97
-97
-96
-96
-96
-96
-96
-96
-96
-96
-96
-97
-98
-98
-99
-98
-98
-98
-99
-99
-98
-97
-97
-97
-97
-96
-96
-97
-97
-96
-97
-97
-98
-99
-99
-99
-99
-99
-99
-98
-98
-97
-97
-97
-96
-96
-96
-96
-97
-98
-98
-99
-100
-101
-101
-101
-101
-101
-102
-102
-101
-101
-100
-100
-100
-100
-100
-100
-100
-100
-101
-102
-102
-102
-103
-103
-103
-103
-103
-103
-102
-102
-102
-102
-101
-101
-102
-102
-102
-103
-104
-105
-105
-105
-105
-105
-105
-105
-105
-104
-104
-103
-103
-103
-103
-103
-104
-104
-104
-105
-105
-106
-106
-106
-107
-107
-106
-106
-106
-106
-105
-105
-105
-105
-105
-105
-105
-105
-105
-105
-105
-106
-105
-106
-105
-105
-106
-106
-106
-106
-106
-106
-106
-106
-106
-106
-106
-106
-106
-106
-107
-107
-107
-107
-108
-107
-107
-107
-108
-107
-107
-107
-107
-107
-107
-107
-107
-107
-107
-107
-107
-107
-107
-108
-107
-107
-108
-107
-107
-107
-107
-107
-107
-107
-107
-107
-107
-107
-107
-108
-108
-108
-109
-109
-109
-109
-110
-110
-110
-110
-111
-111
-111
-112
-113
-113
-113
-114
-114
-115
-115
-116
-116
-116
-116
-116
-117
-117
-117
-117
-117
-117
-117
-117
-117
-117
-117
-117
-117
-118
-117
-117
-118
-117
-117
-116
-116
-115
-116
-116
-116
-116
-116
-116
-115
-115
-116
-115
-115
-115
-116
-115
-116
-116
-115
-115
-116
-115
-115
-115
-115
-114
-114
-114
-114
-114
-113
-113
-112
-112
-111
-111
-111
-110
-110
-110
-108
-108
-108
-107
-107
-106
-105
-105
-105
-105
-105
-104
-103
-104
-104
-103
-104
-103
-103
-102
-102
-102
-102
-100
-100
-100
-99
-99
-99
-97
-97
-96
-95
-95
-95
-94
-93
-93
-93
-92
-92
-91
-91
-91
-91
-91
-90
-91
-92
-92
-92
-93
-93
-93
-95
-96
-96
-97
-98
-98
-98
-99
-100
-101
-101
-102
-102
-103
-104
-104
-105
-105
-106
-106
-106
-107
-107
-107
-108
-108
-108
-109
-109
-110
-110
-110
-110
-110
-111
-111
-112
-112
-112
-113
-113
-114
-115
-115
-115
-115
-116
-116
-116
-116
-116
-116
-116
-117
-118
-118
-118
-118
-118
-119
-120
-120
-120
-121
-121
-120
-120
-121
-121
-121
-121
-121
-121
-121
-121
-121
-121
-122
-122
-122
-121
-121
-122
-121
-121
-121
-121
-120
-120
-120
-120
-120
-119
-119
-119
-119
-119
-119
-119
-119
-119
-120
-119
-119
-119
-119
-118
-119
-118
-117
-116
-115
-113
-111
-108
-105
-102
-99
-94
-90
-84
-78
-72
-65
-57
-49
-42
-33
-25
-16
-7
3
12
21
30
38
46
54
61
66
72
77
80
83
84
85
84
82
79
75
70
63
56
47
36
27
13
0
-15
-31
-46
-64
-80
-98
-115
-133
-152
-171
-189
-207
-225
-242
-260
-276
-291
-306
-320
-332
-344
-354
-364
-371
-377
-383
-386
-389
-390
-390
-389
-387
-383
-379
-375
-369
-362
-355
-347
-338
-330
-321
-311
-302
-292
-282
-272
-262
-252
-242
-233
-224
-215
-206
-198
-189
-182
-175
-169
-161
-156
-150
-145
-141
-136
-132
-128
-125
-122
-120
-117
-115
-113
-112
-110
-109
-107
-106
-105
-105
-104
-102
-102
-101
-101
-101
-100
-98
-99
-98
-97
-96
-96
-95
-94
-94
-94
-93
-93
-93
-92
-92
-92
-91
-91
-91
-91
-90
-89
-89
-88
-88
-88
-87
-88
-87
-87
-87
-86
-86
-85
-85
-85
-85
-84
-84
-84
-84
-83
-83
-82
-82
-82
-82
-82
-82
-82
-81
-81
-81
-81
-80
-80
-79
-80
-79
-79
-78
-77
-77
-76
-77
-76
-76
-75
-75
-74
-73
-73
-72
-72
-72
-71
-70
-70
-70
-69
-69
-68
-67
-67
-66
-65
-64
-64
-64
-64
-63
-63
-62
-62
-62
-61
-61
-61
-60
-59
-58
-59
-58
-57
-57
-56
-56
-55
-55
-54
-53
-53
-52
-51
-50
-50
-48
-48
-47
-46
-45
-43
-42
-41
-41
-39
-38
-38
-36
-36
-35
-33
-32
-31
-30
-29
-28
-27
-26
-25
-24
-23
-22
-21
-21
-20
-19
-19
-18
-17
-16
-15
-14
-14
-13
-12
-12
-11
-11
-10
-9
-9
-8
-7
-7
-7
-7
-5
-5
-6
-6
-5
-5
-5
-5
-5
-5
-6
-5
-5
-5
-6
-6
-6
-6
-7
-7
-7
-7
-8
-8
-8
-9
-9
-10
-9
-11
-11
-12
-13
-13
-13
-14
-15
-16
-17
-18
-19
-20
-21
-22
-23
-24
-25
-26
-27
-28
-30
-31
-32
-34
-35
-36
-37
-38
-40
-41
-43
-45
-45
-47
-48
-49
-52
-53
-54
-56
-57
-59
-60
-61
-62
-63
-64
-66
-67
-69
-70
-71
-72
-74
-75
-75
-77
-78
-79
-80
-82
-83
-84
-84
-86
-87
-87
-89
-89
-90
-91
-91
-93
-93
-94
-95
-95
-96
-96
-98
-99
-99
-99
-100
-100
-102
-102
-102
-102
-103
-104
-104
-105
-105
-105
-105
-106
-106
-107
-107
-108
-109
-109
-108
-108
-109
-109
-109
-109
-110
-110
-110
-111
-111
-111
-110
-110
-112
-112
-112
-112
-112
-112
-112
-112
-112
-111
-111
-111
-111
-112
-111
-111
-112
-111
-111
-111
-111
-112
-112
-112
-112
-112
-112
-112
-111
-111
-111
-111
-111
-111
-111
-112
-112
-111
-111
-111
-111
-111
-111
-111
-111
-111
-110
-110
-110
-111
-110
-110
-109
-109
-109
-110
-110
-109
-109
-109
-109
-109
-110
-110
-109
-110
-110
-109
-109
-109
-109
-108
-109
-109
-109
-109
-109
-108
-108
-108
-108
-108
-108
-108
-108
-108
-107
-108
-108
-107
-107
-107
-107
-108
-108
-108
-108
-107
-107
-107
-107
-107
-108
-107
-107
-107
-108
-107
-107
-107
-107
-106
-106
-106
-106
-106
-106
-105
-106
-106
-106
-105
-106
-105
-105
-105
-105
-105
-104
-104
-104
-103
-103
-104
-104
-104
-104
-104
-104
-104
-104
-103
-104
-104
-105
-103
-104
-104
-104
-104
-104
-105
-105
-105
-105
-105
-106
-105
-105
-105
-106
-106
-105
-106
-106
-106
-106
-105
-105
-105
-105
-105
-106
-105
-105
-105
-105
-105
-105
-106
-106
-106
-105
-106
-106
-106
-105
-105
-105
-106
-106
-105
-106
-106
-106
-106
-107
-106
-106
-108
-108
-108
-108
-108
-109
-109
-108
-108
-109
-108
-108
-109
-109
-109
-109
-109
-109
-109
-109
-109
-109
-109
-109
-110
-109
-109
-109
-110
-110
-110
-110
-111
-111
-110
-111
-111
-111
-111
-112
-112
-112
-113
-112
-113
-113
-113
-113
-112
-113
-113
-113
-113
-113
-113
-113
-113
-114
-113
-113
-114
-114
-114
-114
-114
-115
-115
-114
-114
-114
-114
-114
-114
-114
-115
-115
-116
-115
-116
-116
-116
-116
-116
-117
-117
-117
-117
-117
-117
-117
-117
-117
-117
-117
-117
-117
-118
-118
-118
-117
-117
-117
-118
-118
-118
-119
-118
-118
-118
-118
-118
-118
-118
-118
-118
-118
-118
-119
-118
-118
-117
-117
-117
-117
-116
-117
-115
-115
-115
-114
-113
-113
-112
-112
-111
-110
-109
-109
-109
-108
-108
-107
-107
-106
-106
-106
-105
-105
-105
-105
-105
-105
-105
-105
-105
-104
-104
-105
-103
-103
-103
-104
-103
-103
-103
-102
-102
-101
-101
-101
-100
-100
-99
-99
-99
-99
-99
-99
-99
-99
-99
-99
-100
-100
-101
-101
-102
-102
-103
-104
-104
-105
-106
-105
-106
-106
-107
-107
-108
-109
-109
-110
-110
-110
-111
-111
-112
-111
-112
-113
-113
-113
-113
-113
-114
-114
-115
-115
-116
-115
-116
-117
-117
-117
-118
-119
-120
-120
-120
-121
-121
-121
-121
-122
-122
-123
-123
-123
-123
-124
-124
-124
-124
-125
-126
-126
-126
-125
-125
-126
-126
-126
-126
-126
-126
-126
-127
-126
-126
-126
-126
-127
-127
-127
-127
-127
-127
-126
-127
-127
-127
-126
-127
-126
-126
-126
-126
-125
-126
-126
-126
-126
-125
-125
-126
-126
-126
-126
-125
-125
-126
-126
-126
-126
-125
-125
-125
-124
-124
-123
-121
-120
-118
-115
-114
-111
-107
-102
-97
-92
-86
-80
-74
-66
-58
-50
-43
-35
-25
-15
-6
4
14
24
33
43
51
60
68
75
83
88
92
97
99
100
100
99
97
93
88
82
74
64
54
42
29
14
-3
-20
-38
-57
-77
-97
-118
-139
-160
-182
-204
-225
-246
-267
-286
-305
-323
-339
-354
-367
-380
-390
-399
-407
-413
-417
-420
-422
-422
-420
-417
-414
-408
-403
-395
-388
-381
-371
-361
-352
-342
-332
-321
-310
-300
-289
-279
-269
-259
-249
-240
-229
-221
-213
-204
-196
-188
-181
-173
-167
-160
-154
-149
-144
-140
-135
-131
-127
-124
-122
-118
-116
-114
-113
-111
-110
-108
-107
-106
-105
-104
-103
-102
-101
-101
-100
-101
-100
-99
-98
-99
-98
-97
-97
-97
-97
-97
-96
-96
-95
-94
-94
-93
-93
-92
-92
-91
-90
-90
-90
-89
-89
-89
-87
-87
-87
-87
-86
-85
-85
-84
-84
-83
-84
-84
-83
-83
-83
-83
-82
-82
-82
-81
-81
-81
-81
-80
-80
-79
-78
-78
-77
-76
-76
-76
-75
-75
-74
-74
-74
-74
-73
-73
-72
-71
-71
-71
-71
-70
-70
-70
-69
-68
-67
-67
-66
-67
-66
-65
-65
-64
-64
-63
-62
-62
-61
-61
-60
-60
-59
-58
-57
-56
-55
-55
-54
-53
-52
-52
-51
-50
-49
-48
-48
-46
-46
-46
-44
-43
-42
-41
-40
-39
-38
-38
-37
-36
-35
-34
-33
-32
-31
-30
-29
-29
-27
-27
-26
-24
-23
-22
-21
-20
-20
-19
-18
-17
-16
-14
-13
-12
-11
-10
-9
-9
-7
-7
-6
-5
-4
-3
-3
-2
-2
-1
0
0
0
1
1
1
2
2
1
2
2
2
2
2
2
3
3
3
3
2
3
3
2
3
2
1
1
1
1
0
0
-1
-2
-3
-3
-4
-5
-5
-6
-6
-6
-8
-9
-10
-11
-13
-13
-15
-15
-16
-18
-19
-21
-22
-23
-24
-25
-26
-28
-29
-31
-33
-35
-35
-38
-39
-41
-42
-44
-46
-48
-50
-52
-53
-54
-56
-58
-60
-61
-63
-64
-66
-68
-69
-71
-73
-74
-76
-77
-79
-80
-82
-84
-85
-86
-87
-89
-90
-91
-93
-93
-94
-96
-97
-97
-99
-99
-101
-101
-102
-104
-104
-105
-106
-106
-106
-107
-108
-109
-109
-110
-110
-111
-111
-111
-113
-113
-113
-113
-114
-115
-115
-115
-115
-116
-116
-116
-116
-116
-116
-116
-116
-116
-117
-117
-118
-117
-117
-118
-118
-118
-118
-118
-118
-118
-118
-118
-118
-118
-118
-118
-119
-119
-118
-118
-118
-118
-118
-118
-119
-119
-119
-120
-120
-119
-120
-120
-120
-120
-120
-120
-120
-121
-120
-120
-120
-120
-120
-120
-119
-119
-120
-119
-119
-118
-119
-117
-117
-117
-117
-117
-116
-116
-116
-116
-116
-115
-115
-115
-115
-115
-115
-115
-115
-114
-114
-113
-114
-114
-113
-113
-113
-113
-113
-113
-113
-113
-113
-113
-113
-112
-113
-112
-112
-112
-112
-112
-112
-112
-112
-112
-112
-112
-112
-112
-112
-111
-111
-111
-111
-111
-112
-112
-112
-111
-110
-111
-111
-111
-110
-110
-110
-110
-110
-110
-110
-111
-111
-111
-111
-111
-112
-111
-111
-112
-112
-112
-112
-113
-112
-112
-113
-112
-113
-113
-113
-113
-113
-113
-114
-114
-115
-114
-115
-115
-114
-114
-114
-114
-114
-113
-114
-114
-113
-113
-113
-114
-113
-113
-113
-114
-113
-114
-114
-113
-113
-114
-114
-114
-114
-114
-114
-114
-115
-115
-115
-115
-116
-116
-116
-117
-117
-117
-117
-118
-117
-117
-117
-117
-117
-117
-117
-117
-117
-117
-117
-118
-118
-118
-118
-119
-119
-119
-119
-119
-119
-120
-120
-120
-120
-120
-120
-120
-121
-120
-121
-121
-121
-121
-121
-122
-122
-122
-122
-121
-122
-122
-122
-122
-122
-122
-122
-122
-122
-122
-122
-122
-122
-122
-122
-122
-122
-122
-122
-122
-122
-121
-121
-122
-122
-122
-122
-122
-122
-122
-122
-121
-121
-121
-121
-122
-122
-123
-122
-122
-122
-122
-122
-122
-122
-122
-121
-121
-122
-122
-122
-121
-120
-120
-120
-119
-119
-119
-118
-117
-117
-116
-115
-115
-114
-113
-112
-111
-111
-110
-109
-109
-108
-107
-107
-107
-106
-106
-105
-105
-104
-104
-104
-103
-103
-103
-103
-103
-103
-103
-102
-102
-102
-101
-101
-102
-101
-101
-101
-100
-100
-99
-99
-99
-99
-98
-98
-98
-99
-99
-99
-100
-100
-101
-102
-103
-104
-104
-104
-105
-106
-107
-107
-108
-109
-109
-109
-110
-110
-111
-111
-112
-113
-113
-113
-114
-114
-115
-114
-115
-115
-115
-116
-116
-117
-117
-118
-118
-118
-118
-119
-119
-119
-120
-121
-121
-122
-123
-123
-123
-124
-124
-124
-125
-125
-126
-126
-126
-127
-127
-127
-127
-128
-128
-129
-129
-129
-130
-130
-129
-130
-130
-130
-130
-130
-130
-130
-130
-131
-131
-132
-132
-132
-132
-132
-133
-133
-133
-133
-132
-132
-133
-132
-132
-132
-132
-131
-131
-131
-132
-131
-131
-131
-131
-131
-131
-131
-131
-131
-130
-131
-131
-131
-131
-131
-130
-130
-130
-129
-128
-127
-125
-123
-120
-118
-115
-111
-107
-102
-96
-89
-83
-76
-68
-60
-52
-42
-34
-24
-14
-4
7
17
28
38
47
56
66
74
81
88
94
98
101
103
103
102
99
94
89
82
73
62
51
38
22
4
-14
-33
-53
-73
-95
-117
-139
-161
-184
-207
-229
-251
-273
-294
-314
-332
-350
-366
-381
-395
-407
-418
-426
-433
-439
-443
-445
-447
-446
-444
-441
-436
-431
-425
-416
-408
-399
-390
-379
-369
-359
-347
-336
-324
-312
-302
-290
-279
-268
-258
-247
-237
-228
-218
-209
-201
-193
-185
-179
-171
-165
-160
-153
-149
-143
-139
-136
-132
-129
-126
-123
-121
-118
-116
-114
-112
-111
-110
-109
-109
-108
-107
-106
-105
-104
-104
-103
-103
-102
-101
-101
-100
-100
-100
-99
-98
-98
-97
-98
-97
-97
-96
-96
-95
-95
-95
-94
-94
-93
-93
-92
-91
-91
-91
-90
-90
-89
-89
-89
-88
-88
-88
-87
-86
-87
-86
-85
-85
-84
-85
-84
-83
-83
-83
-82
-81
-81
-80
-80
-80
-80
-79
-78
-77
-77
-76
-76
-75
-75
-74
-74
-74
-73
-72
-73
-72
-72
-72
-71
-71
-70
-69
-69
-68
-67
-67
-66
-65
-65
-64
-63
-63
-62
-61
-60
-60
-59
-59
-57
-57
-57
-56
-54
-53
-52
-51
-51
-50
-49
-48
-47
-46
-45
-45
-44
-43
-42
-41
-40
-40
-38
-37
-36
-35
-34
-33
-32
-31
-30
-29
-28
-26
-26
-25
-23
-22
-21
-19
-19
-17
-17
-15
-14
-13
-12
-11
-10
-8
-6
-5
-4
-4
-2
-1
0
1
2
4
4
5
6
6
7
8
9
9
11
11
11
12
12
12
12
13
13
13
13
13
13
13
13
12
13
13
13
12
13
12
12
11
12
11
11
10
10
9
8
7
7
5
5
4
3
2
1
1
-1
-1
-3
-4
-5
-7
-9
-11
-12
-12
-15
-17
-18
-20
-22
-24
-25
-26
-28
-30
-31
-33
-35
-36
-39
-41
-42
-44
-45
-46
-48
-50
-52
-54
-56
-57
-59
-61
-62
-65
-66
-67
-70
-71
-73
-74
-76
-78
-80
-81
-83
-84
-86
-87
-89
-90
-90
-92
-94
-94
-96
-96
-98
-98
-99
-100
-102
-102
-102
-104
-104
-105
-106
-107
-108
-108
-109
-109
-110
-111
-111
-112
-113
-113
-114
-114
-115
-115
-116
-116
-117
-118
-119
-119
-120
-120
-120
-120
-120
-121
-121
-122
-122
-122
-122
-122
-123
-123
-123
-123
-124
-124
-124
-124
-124
-124
-124
-124
-124
-124
-124
-124
-125
-124
-124
-125
-125
-125
-125
-124
-124
-125
-125
-126
-126
-126
-126
-126
-125
-125
-125
-125
-125
-125
-125
-126
-126
-126
-125
-125
-125
-125
-126
-126
-126
-126
-126
-125
-125
-125
-125
-125
-125
-124
-124
-124
-124
-124
-123
-123
-122
-122
-122
-122
-122
-121
-120
-120
-120
-120
-119
-119
-118
-118
-117
-117
-117
-117
-117
-117
-117
-116
-117
-116
-116
-116
-115
-115
-114
-114
-114
-114
-113
-114
-114
-113
-113
-113
-112
-112
-112
-112
-112
-113
-112
-112
-111
-111
-110
-110
-110
-110
-110
-111
-111
-110
-110
-110
-110
-110
-110
-110
-111
-110
-111
-111
-110
-110
-110
-110
-110
-110
-110
-111
-111
-110
-110
-110
-111
-111
-111
-111
-110
-111
-112
-112
-111
-111
-111
-111
-111
-111
-111
-111
-111
-111
-112
-112
-111
-112
-112
-112
-112
-112
-112
-112
-113
-112
-112
-112
-112
-113
-113
-113
-113
-114
-114
-114
-114
-114
-114
-115
-115
-116
-116
-116
-116
-116
-116
-117
-117
-117
-117
-116
-116
-117
-117
-117
-118
-117
-117
-118
-118
-118
-118
-119
-118
-118
-118
-118
-118
-119
-119
-119
-119
-118
-119
-119
-119
-119
-119
-119
-120
-120
-120
-120
-120
-120
-119
-120
-120
-120
-120
-120
-120
-120
-120
-120
-120
-121
-121
-121
-122
-121
-122
-122
-122
-122
-122
-122
-122
-122
-122
-122
-122
-122
-123
-123
-122
-122
-123
-123
-122
-123
-123
-122
-123
-123
-122
-122
-122
-123
-123
-123
-123
-123
-123
-123
-123
-123
-123
-123
-124
-124
-124
-124
-124
-125
-125
-125
-125
-125
-125
-125
-125
-125
-124
-124
-125
-125
-125
-125
-125
-125
-125
-125
-125
-126
-125
-125
-125
-125
-125
-124
-124
-124
-125
-124
-124
-124
-122
-122
-121
-122
-121
-121
-119
-119
-118
-118
-117
-117
-115
-115
-114
-113
-113
-113
-112
-111
-112
-111
-110
-110
-110
-110
-109
-109
-109
-108
-108
-108
-108
-108
-107
-107
-108
-107
-106
-106
-106
-106
-106
-106
-106
-106
-105
-104
-104
-104
-105
-104
-104
-104
-105
-105
-106
-106
-106
-106
-106
-108
-108
-109
-110
-110
-110
-111
-111
-112
-112
-112
-113
-113
-114
-115
-115
-115
-115
-116
-117
-117
-117
-118
-118
-119
-119
-119
-120
-120
-120
-120
-120
-121
-121
-122
-123
-123
-122
-123
-123
-124
-124
-125
-126
-126
-126
-127
-127
-128
-128
-128
-129
-130
-130
-131
-131
-132
-132
-132
-132
-133
-134
-134
-135
-135
-135
-135
-135
-135
-136
-137
-137
-137
-137
-137
-138
-138
-137
-137
-137
-137
-138
-138
-139
-137
-138
-138
-137
-137
-137
-137
-137
-136
-137
-137
-136
-136
-137
-137
-137
-137
-136
-136
-136
-136
-136
-136
-135
-135
-135
-135
-135
-135
-135
-135
-135
-134
-134
-132
-131
-129
-128
-125
-122
-119
-115
-110
-105
-99
-93
-86
-79
-70
-62
-53
-44
-36
-27
-16
-6
4
14
23
32
42
50
59
66
73
78
82
85
87
87
85
83
78
73
66
59
50
39
25
12
-4
-21
-39
-58
-76
-96
-115
-136
-157
-178
-198
-218
-238
-258
-277
-295
-313
-330
-345
-359
-372
-385
-395
-404
-411
-418
-423
-427
-429
-430
-430
-429
-425
-422
-418
-412
-405
-398
-390
-381
-371
-361
-351
-340
-330
-319
-309
-297
-286
-276
-265
-255
-245
-236
-226
-218
-209
-201
-193
-186
-179
-173
-166
-160
-155
-151
-146
-143
-139
-136
-134
-131
-129
-127
-125
-123
-122
-120
-120
-120
-119
-118
-117
-116
-115
-115
-114
-113
-114
-113
-113
-112
-111
-111
-111
-110
-109
-109
-109
-108
-108
-107
-106
-106
-105
-105
-105
-105
-104
-103
-103
-102
-101
-101
-100
-99
-99
-99
-99
-99
-98
-98
-97
-96
-96
-96
-96
-95
-95
-95
-94
-94
-94
-93
-94
-94
-93
-92
-93
-92
-92
-92
-91
-91
-90
-90
-89
-89
-88
-88
-87
-86
-86
-85
-85
-84
-84
-84
-83
-83
-83
-82
-81
-80
-80
-79
-79
-78
-77
-77
-77
-76
-76
-75
-74
-74
-73
-72
-72
-71
-70
-69
-68
-68
-67
-66
-65
-65
-64
-63
-62
-62
-61
-60
-59
-58
-57
-57
-55
-55
-54
-53
-51
-50
-49
-48
-46
-45
-44
-43
-42
-41
-40
-37
-37
-36
-35
-33
-32
-30
-30
-28
-27
-26
-25
-24
-23
-21
-20
-19
-18
-17
-17
-16
-15
-13
-13
-13
-12
-11
-11
-10
-9
-9
-7
-7
-6
-6
-6
-5
-4
-4
-4
-3
-3
-3
-3
-3
-3
-3
-3
-3
-2
-3
-3
-3
-3
-3
-3
-4
-3
-3
-4
-3
-4
-5
-5
-6
-6
-7
-8
-9
-10
-10
-10
-11
-12
-14
-15
-16
-17
-18
-19
-20
-21
-22
-24
-26
-27
-29
-30
-31
-32
-34
-35
-36
-38
-39
-41
-42
-43
-45
-47
-49
-50
-51
-53
-55
-57
-58
-61
-62
-64
-65
-66
-67
-69
-71
-73
-74
-76
-77
-79
-79
-81
-82
-84
-85
-87
-88
-89
-91
-92
-92
-94
-94
-96
-96
-98
-98
-99
-101
-101
-102
-102
-104
-104
-105
-105
-106
-108
-107
-108
-108
-108
-109
-109
-110
-111
-111
-111
-112
-112
-113
-113
-114
-114
-115
-117
-116
-118
-118
-118
-119
-119
-119
-119
-119
-120
-120
-120
-121
-121
-121
-120
-120
-121
-121
-121
-121
-121
-121
-120
-121
-121
-121
-122
-121
-121
-121
-121
-122
-122
-122
-122
-122
-122
-122
-123
-124
-123
-124
-123
-123
-123
-124
-124
-124
-124
-124
-124
-124
-124
-124
-123
-123
-123
-124
-123
-123
-124
-123
-123
-122
-122
-123
-123
-123
-123
-123
-122
-122
-122
-122
-122
-122
-122
-122
-123
-122
-123
-122
-122
-123
-123
-122
-122
-122
-122
-122
-122
-122
-122
-122
-121
-121
-121
-121
-122
-122
-121
-121
-121
-121
-121
-121
-120
-120
-120
-120
-120
-119
-118
-119
-118
-118
-118
-117
-118
-117
-117
-116
-116
-116
-115
-116
-116
-116
-115
-115
-115
-114
-114
-114
-115
-114
-114
-114
-115
-114
-114
-114
-114
-114
-113
-113
-113
-113
-114
-114
-114
-114
-114
-114
-114
-114
-115
-115
-115
-115
-115
-115
-115
-114
-114
-115
-115
-115
-115
-115
-115
-115
-114
-115
-115
-115
-115
-115
-114
-115
-114
-115
-115
-115
-115
-115
-115
-115
-115
-115
-115
-116
-115
-116
-116
-116
-117
-117
-116
-117
-117
-117
-117
-118
-117
-117
-117
-117
-117
-118
-118
-117
-117
-118
-118
-118
-118
-118
-119
-118
-118
-119
-119
-118
-118
-118
-119
-119
-119
-119
-119
-120
-120
-120
-120
-120
-120
-120
-121
-122
-121
-121
-121
-121
-121
-121
-121
-121
-122
-122
-122
-122
-122
-122
-122
-122
-122
-123
-123
-124
-124
-123
-123
-124
-124
-123
-124
-124
-124
-124
-124
-125
-125
-125
-124
-125
-125
-125
-126
-125
-126
-126
-126
-125
-125
-125
-125
-125
-125
-125
-125
-125
-125
-125
-125
-125
-125
-125
-125
-125
-125
-125
-125
-125
-125
-125
-125
-125
-124
-124
-124
-125
-125
-125
-125
-125
-125
-125
-126
-126
-126
-126
-126
-126
-126
-127
-127
-127
-127
-127
-128
-127
-127
-127
-127
-128
-128
-129
-128
-129
-129
-129
-128
-129
-128
-128
-128
-127
-128
-127
-127
-127
-127
-126
-127
-127
-127
-126
-127
-126
-126
-126
-126
-125
-125
-125
-125
-125
-125
-125
-125
-126
-126
-126
-125
-125
-126
-126
-126
-126
-126
-127
-126
-126
-126
-125
-125
-125
-126
-126
-126
-126
-126
-126
-126
-126
-126
-126
-127
-126
-127
-127
-126
-126
-126
-127
-127
-126
-126
-126
-126
-126
-126
-126
-126
-126
-126
-126
-126
-126
-126
-125
-124
-124
-124
-122
-122
-122
-121
-121
-119
-120
-119
-118
-118
-117
-117
-116
-116
-116
-115
-115
-114
-114
-114
-114
-114
-113
-113
-113
-112
-112
-112
-112
-112
-111
-111
-111
-110
-110
-110
-109
-109
-108
-108
-107
-106
-106
-106
-105
-105
-104
-104
-104
-104
-104
-104
-105
-105
-105
-106
-106
-107
-107
-108
-108
-108
-109
-109
-110
-111
-111
-112
-113
-113
-114
-114
-115
-115
-116
-117
-116
-117
-117
-117
-118
-118
-119
-119
-120
-120
-120
-121
-121
-122
-122
-123
-123
-123
-124
-125
-125
-125
-125
-126
-127
-127
-127
-127
-127
-128
-128
-129
-129
-130
-130
-131
-131
-132
-132
-132
-132
-133
-133
-133
-133
-133
-133
-133
-134
-134
-134
-135
-134
-134
-134
-134
-134
-135
-135
-135
-135
-135
-134
-134
-134
-135
-135
-135
-134
-134
-134
-134
-133
-134
-134
-134
-134
-134
-134
-134
-134
-134
-133
-133
-134
-133
-133
-133
-133
-133
-133
-133
-133
-132
-132
-132
-132
-132
-131
-130
-130
-127
-125
-123
-121
-118
-114
-110
-105
-100
-94
-88
-81
-74
-67
-58
-51
-42
-33
-24
-15
-5
4
13
22
30
38
46
53
59
64
68
72
73
74
73
72
69
65
59
53
46
38
27
17
4
-10
-25
-41
-57
-74
-91
-109
-127
-146
-165
-183
-201
-220
-239
-256
-273
-290
-305
-319
-334
-347
-358
-369
-378
-387
-393
-398
-402
-406
-407
-408
-407
-405
-403
-398
-393
-387
-381
-374
-366
-357
-348
-339
-329
-319
-310
-299
-289
-279
-269
-260
-250
-240
-231
-222
-213
-205
-196
-189
-182
-176
-169
-163
-159
-153
-148
-144
-141
-138
-135
-132
-130
-128
-126
-124
-123
-121
-120
-119
-118
-117
-117
-116
-115
-115
-115
-114
-114
-114
-114
-113
-112
-112
-112
-111
-110
-110
-110
-109
-108
-108
-107
-107
-107
-107
-106
-106
-105
-104
-104
-103
-103
-103
-103
-102
-101
-101
-101
-100
-100
-100
-99
-99
-99
-99
-98
-97
-98
-97
-97
-97
-97
-96
-96
-96
-95
-96
-95
-94
-94
-93
-93
-92
-92
-92
-91
-90
-91
-90
-90
-89
-89
-88
-88
-88
-87
-86
-86
-85
-85
-85
-84
-84
-84
-84
-83
-83
-82
-82
-81
-81
-80
-80
-79
-79
-78
-77
-76
-75
-74
-74
-73
-72
-71
-71
-70
-69
-68
-67
-67
-66
-66
-65
-64
-64
-63
-61
-61
-60
-60
-58
-58
-57
-56
-56
-55
-53
-52
-51
-50
-50
-48
-48
-47
-46
-44
-43
-43
-41
-40
-39
-38
-38
-37
-35
-35
-33
-32
-32
-30
-29
-29
-29
-27
-26
-25
-25
-23
-22
-22
-21
-21
-19
-19
-19
-17
-17
-16
-16
-15
-15
-15
-15
-14
-14
-13
-13
-13
-13
-12
-12
-12
-12
-12
-12
-12
-11
-12
-12
-12
-13
-13
-13
-14
-14
-14
-14
-15
-16
-16
-16
-17
-18
-19
-20
-20
-21
-22
-23
-24
-24
-26
-27
-27
-28
-29
-30
-31
-32
-33
-35
-35
-36
-38
-38
-40
-41
-41
-42
-45
-45
-46
-48
-50
-51
-51
-53
-54
-55
-56
-59
-60
-61
-62
-63
-66
-67
-68
-69
-71
-72
-73
-75
-76
-77
-79
-80
-81
-81
-83
-84
-86
-86
-87
-89
-90
-90
-92
-92
-94
-95
-96
-97
-98
-100
-100
-101
-101
-102
-103
-104
-104
-105
-106
-106
-107
-107
-108
-108
-110
-110
-110
-110
-111
-112
-111
-111
-111
-112
-112
-112
-112
-113
-113
-113
-113
-113
-113
-113
-113
-113
-114
-115
-115
-115
-114
-114
-115
-115
-115
-115
-116
-116
-116
-116
-116
-116
-117
-117
-117
-117
-117
-117
-118
-117
-117
-117
-118
-118
-118
-118
-118
-118
-118
-118
-118
-118
-118
-117
-117
-117
-117
-117
-117
-117
-117
-117
-117
-116
-116
-116
-116
-116
-116
-116
-116
-116
-116
-115
-115
-116
-116
-117
-116
-116
-115
-115
-115
-114
-114
-114
-114
-114
-114
-114
-114
-113
-113
-112
-112
-112
-112
-113
-113
-112
-112
-111
-111
-111
-110
-111
-110
-110
-110
-110
-111
-110
-110
-110
-110
-110
-109
-110
-109
-109
-109
-109
-109
-108
-108
-108
-108
-108
-107
-108
-108
-108
-107
-107
-107
-108
-108
-108
-108
-108
-108
-108
-108
-108
-108
-108
-107
-108
-108
-108
-108
-108
-107
-107
-107
-107
-107
-107
-107
-107
-107
-106
-106
-106
-106
-106
-106
-106
-106
-106
-107
-107
-106
-106
-106
-106
-106
-107
-106
-106
-107
-106
-106
-106
-106
-106
-106
-106
-106
-106
-106
-106
-106
-107
-107
-107
-107
-107
-108
-108
-107
-107
-107
-108
-108
-108
-108
-108
-108
-109
-109
-109
-110
-109
-109
-110
-109
-110
-110
-110
-110
-109
-110
-110
-111
-111
-111
-111
-111
-111
-111
-111
-111
-112
-112
-112
-113
-113
-113
-113
-114
-114
-114
-114
-114
-114
-114
-114
-114
-114
-115
-115
-115
-115
-115
-115
-116
-116
-116
-116
-116
-116
-116
-117
-117
-117
-117
-117
-117
-118
-118
-118
-118
-117
-118
-118
-118
-119
-119
-119
-119
-118
-118
-118
-118
-118
-118
-119
-119
-118
-118
-118
-119
-119
-119
-119
-119
-120
-119
-120
-120
-119
-119
-119
-119
-119
-120
-120
-120
-120
-120
-120
-120
-120
-121
-121
-120
-121
-121
-121
-120
-120
-120
-120
-120
-120
-120
-120
-120
-120
-119
-119
-120
-120
-120
-120
-121
-121
-121
-121
-120
-121
-121
-121
-121
-121
-121
-121
-121
-121
-121
-121
-121
-120
-121
-121
-121
-121
-121
-121
-121
-122
-122
-122
-122
-122
-122
-122
-122
-123
-122
-122
-123
-123
-123
-123
-123
-124
-124
-124
-124
-123
-123
-123
-123
-123
-123
-123
-123
-123
-122
-122
-123
-123
-122
-122
-123
-123
-123
-123
-122
-122
-123
-123
-123
-123
-123
-123
-122
-123
-122
-122
-122
-122
-122
-122
-121
-121
-121
-121
-121
-120
-119
-119
-119
-117
-117
-117
-116
-115
-115
-114
-113
-113
-113
-112
-111
-112
-111
-111
-109
-109
-108
-108
-107
-107
-107
-107
-107
-106
-106
-105
-105
-104
-105
-105
-104
-105
-104
-104
-103
-103
-102
-101
-101
-100
-100
-100
-99
-98
-99
-98
-98
-97
-97
-97
-96
-97
-98
-98
-97
-97
-98
-99
-99
-99
-101
-101
-102
-103
-104
-105
-105
-106
-107
-108
-109
-110
-111
-111
-111
-112
-112
-113
-113
-114
-114
-114
-114
-115
-115
-116
-116
-117
-117
-117
-118
-119
-119
-120
-120
-121
-121
-121
-122
-123
-123
-124
-124
-125
-126
-126
-127
-127
-127
-128
-128
-128
-129
-130
-129
-129
-129
-129
-129
-129
-129
-130
-130
-130
-130
-130
-130
-130
-130
-130
-130
-131
-131
-131
-131
-130
-130
-130
-129
-129
-130
-130
-130
-130
-130
-130
-130
-129
-129
-129
-130
-130
-130
-129
-129
-128
-128
-128
-129
-128
-128
-128
-128
-127
-127
-127
-128
-127
-127
-127
-126
-126
-126
-125
-124
-122
-121
-120
-118
-115
-112
-109
-105
-101
-96
-91
-85
-78
-72
-65
-57
-49
-41
-33
-24
-15
-6
4
13
22
30
38
46
53
60
66
71
75
79
81
81
81
79
76
73
68
63
56
49
39
29
17
4
-11
-26
-42
-58
-75
-92
-110
-129
-147
-166
-184
-203
-221
-239
-256
-272
-288
-303
-317
-330
-342
-353
-362
-370
-377
-382
-386
-389
-391
-392
-391
-389
-386
-383
-377
-373
-366
-359
-352
-344
-336
-326
-318
-308
-298
-289
-279
-269
-261
-251
-242
-233
-224
-216
-207
-198
-191
-184
-177
-171
-165
-159
-154
-148
-144
-141
-136
-134
-131
-128
-125
-123
-121
-119
-118
-116
-115
-114
-113
-113
-112
-112
-111
-111
-110
-109
-110
-109
-109
-108
-109
-108
-107
-107
-106
-106
-105
-106
-105
-105
-105
-104
-103
-104
-103
-103
-103
-103
-102
-102
-101
-100
-101
-100
-100
-99
-99
-98
-98
-98
-98
-97
-96
-96
-96
-95
-95
-95
-95
-95
-95
-94
-94
-93
-93
-93
-92
-92
-92
-92
-92
-92
-91
-91
-90
-90
-89
-89
-89
-89
-88
-88
-87
-87
-86
-86
-85
-85
-84
-84
-84
-84
-83
-82
-82
-81
-81
-81
-81
-80
-80
-80
-79
-78
-78
-77
-77
-77
-76
-76
-76
-75
-74
-75
-73
-73
-72
-72
-71
-71
-70
-69
-68
-67
-67
-66
-65
-64
-63
-62
-61
-61
-60
-58
-57
-56
-55
-55
-54
-54
-52
-51
-50
-49
-48
-47
-46
-45
-44
-43
-42
-41
-40
-39
-38
-37
-36
-35
-34
-34
-33
-32
-31
-30
-28
-27
-27
-26
-25
-23
-23
-23
-21
-20
-20
-19
-19
-18
-18
-17
-17
-16
-16
-16
-16
-15
-14
-15
-15
-15
-14
-15
-15
-15
-14
-15
-15
-15
-15
-16
-16
-16
-16
-17
-17
-18
-18
-18
-19
-20
-20
-21
-21
-21
-22
-23
-24
-24
-25
-27
-28
-28
-29
-29
-30
-31
-33
-33
-34
-35
-37
-39
-39
-40
-42
-42
-43
-45
-46
-48
-49
-50
-51
-52
-54
-54
-55
-56
-58
-58
-59
-61
-63
-63
-64
-65
-66
-68
-69
-70
-71
-72
-73
-74
-76
-77
-78
-80
-80
-82
-83
-84
-85
-86
-88
-89
-90
-91
-92
-93
-95
-95
-96
-97
-97
-98
-99
-100
-100
-101
-101
-102
-104
-104
-104
-104
-106
-107
-107
-108
-109
-109
-110
-110
-110
-111
-111
-112
-112
-112
-113
-114
-114
-114
-114
-114
-114
-115
-115
-116
-116
-116
-115
-115
-115
-116
-116
-115
-115
-115
-115
-116
-116
-115
-116
-116
-116
-116
-116
-116
-117
-116
-117
-117
-118
-118
-118
-118
-118
-118
-119
-118
-119
-118
-118
-118
-119
-119
-119
-119
-119
-119
-119
-119
-119
-119
-119
-119
-118
-118
-119
-118
-118
-117
-117
-117
-117
-117
-117
-118
-117
-117
-117
-116
-116
-115
-115
-115
-114
-115
-115
-114
-115
-114
-114
-114
-113
-114
-114
-113
-113
-113
-112
-113
-113
-113
-113
-113
-112
-112
-112
-113
-112
-112
-113
-113
-112
-113
-112
-112
-112
-112
-112
-112
-111
-111
-111
-111
-110
-110
-110
-111
-111
-110
-111
-111
-110
-110
-111
-110
-111
-111
-111
-111
-111
-111
-111
-111
-112
-112
-112
-112
-112
-113
-113
-113
-113
-113
-113
-114
-114
-114
-114
-114
-114
-114
-114
-114
-114
-113
-113
-114
-114
-113
-113
-113
-113
-113
-113
-114
-114
-113
-113
-113
-114
-114
-113
-114
-113
-113
-114
-114
-114
-114
-115
-115
-115
-116
-115
-116
-116
-116
-116
-116
-116
-116
-116
-116
-116
-116
-117
-117
-117
-117
-117
-117
-117
-118
-117
-118
-118
-118
-118
-118
-119
-119
-119
-119
-119
-119
-120
-120
-120
-120
-120
-121
-121
-121
-121
-121
-121
-121
-121
-121
-121
-121
-121
-121
-121
-120
-121
-121
-121
-121
-121
-121
-121
-121
-122
-121
-122
-121
-122
-122
-122
-122
-122
-122
-122
-123
-123
-123
-124
-124
-124
-124
-124
-124
-124
-125
-125
-125
-125
-124
-124
-124
-125
-125
-125
-125
-125
-126
-126
-125
-125
-125
-125
-125
-125
-125
-126
-125
-125
-124
-124
-125
-124
-124
-124
-124
-124
-124
-124
-123
-124
-124
-124
-124
-123
-123
-123
-123
-123
-122
-122
-122
-122
-122
-122
-122
-122
-122
-122
-122
-122
-122
-122
-122
-123
-123
-124
-123
-123
-123
-123
-123
-124
-124
-124
-124
-124
-123
-123
-123
-123
-123
-123
-123
-122
-122
-122
-121
-121
-120
-119
-118
-118
-117
-116
-116
-115
-115
-114
-113
-113
-112
-112
-111
-111
-111
-110
-110
-109
-109
-109
-109
-108
-108
-108
-108
-108
-108
-107
-107
-107
-107
-107
-106
-106
-106
-106
-105
-105
-105
-103
-103
-103
-102
-102
-102
-102
-102
-102
-102
-102
-102
-103
-103
-104
-104
-105
-105
-106
-106
-108
-108
-109
-110
-111
-111
-113
-113
-114
-115
-116
-116
-117
-117
-118
-119
-120
-120
-120
-120
-121
-121
-121
-122
-122
-123
-122
-124
-124
-123
-124
-124
-125
-125
-126
-126
-127
-127
-128
-127
-128
-129
-129
-129
-129
-130
-130
-131
-132
-132
-132
-132
-132
-133
-133
-134
-134
-134
-135
-134
-134
-134
-135
-135
-135
-135
-135
-135
-135
-135
-135
-136
-136
-136
-136
-136
-137
-136
-136
-136
-136
-136
-136
-136
-136
-136
-136
-136
-136
-136
-136
-136
-136
-136
-136
-136
-136
-136
-135
-135
-135
-134
-134
-134
-134
-135
-135
-135
-135
-135
-134
-133
-133
-131
-130
-129
-126
-124
-121
-117
-113
-108
-104
-98
-91
-85
-78
-70
-62
-53
-44
-36
-26
-16
-7
4
14
24
33
43
51
60
68
74
80
85
90
92
93
94
92
90
85
80
74
66
56
46
34
19
3
-13
-32
-51
-70
-91
-112
-133
-155
-177
-198
-220
-242
-263
-284
-303
-322
-339
-355
-370
-383
-395
-406
-415
-423
-428
-432
-435
-436
-436
-434
-431
-428
-422
-416
-410
-402
-394
-384
-374
-365
-354
-344
-333
-323
-312
-302
-292
-281
-271
-261
-252
-242
-233
-224
-216
-207
-199
-192
-184
-177
-171
-165
-160
-154
-150
-145
-141
-137
-134
-131
-128
-126
-124
-122
-120
-118
-117
-116
-115
-113
-113
-112
-111
-111
-110
-109
-109
-108
-107
-106
-106
-105
-105
-104
-104
-103
-103
-102
-101
-100
-99
-99
-98
-98
-97
-97
-96
-96
-95
-96
-95
-95
-94
-93
-93
-93
-92
-92
-91
-90
-91
-90
-90
-90
-89
-89
-89
-89
-88
-87
-87
-87
-87
-86
-86
-86
-85
-85
-83
-83
-82
-82
-82
-81
-81
-81
-80
-80
-79
-79
-78
-78
-78
-78
-77
-77
-76
-76
-75
-75
-74
-73
-73
-73
-73
-72
-72
-71
-71
-70
-69
-69
-69
-68
-68
-68
-67
-66
-65
-64
-64
-63
-62
-62
-61
-60
-59
-58
-57
-55
-55
-54
-53
-52
-52
-50
-49
-48
-47
-46
-45
-44
-43
-42
-41
-40
-40
-39
-38
-37
-35
-34
-33
-33
-32
-30
-29
-28
-26
-25
-24
-23
-22
-20
-19
-18
-17
-15
-15
-14
-13
-12
-11
-10
-10
-8
-7
-6
-5
-5
-3
-2
-2
-2
-1
0
0
1
1
2
2
2
2
2
2
2
3
2
3
3
3
2
3
2
2
1
1
0
0
0
0
-1
-2
-2
-2
-2
-3
-3
-4
-5
-5
-6
-7
-7
-8
-9
-11
-12
-13
-14
-15
-16
-17
-19
-20
-22
-22
-23
-25
-27
-28
-30
-30
-33
-33
-36
-36
-38
-40
-41
-43
-44
-47
-49
-50
-53
-54
-55
-57
-58
-59
-61
-62
-64
-66
-68
-70
-71
-72
-74
-75
-78
-79
-81
-83
-85
-86
-87
-88
-90
-91
-93
-94
-95
-97
-97
-99
-100
-101
-102
-104
-104
-105
-106
-107
-108
-109
-110
-110
-111
-111
-112
-112
-112
-113
-114
-114
-114
-115
-115
-115
-115
-117
-116
-117
-117
-117
-118
-118
-118
-118
-118
-118
-118
-119
-119
-119
-120
-120
-119
-119
-120
-120
-120
-120
-121
-120
-121
-121
-121
-121
-120
-121
-120
-120
-121
-121
-122
-122
-121
-121
-122
-122
-122
-122
-122
-122
-122
-123
-123
-123
-123
-123
-123
-123
-123
-123
-123
-123
-123
-123
-123
-123
-122
-123
-122
-122
-121
-122
-121
-121
-121
-121
-121
-120
-120
-120
-120
-120
-120
-120
-120
-120
-120
-119
-120
-119
-119
-119
-118
-118
-118
-118
-118
-118
-118
-117
-117
-117
-116
-116
-116
-116
-115
-115
-116
-115
-115
-114
-114
-114
-114
-114
-114
-114
-114
-113
-113
-112
-112
-113
-113
-113
-112
-112
-113
-112
-112
-112
-112
-112
-112
-112
-111
-111
-111
-111
-110
-111
-111
-111
-111
-111
-110
-111
-111
-111
-110
-110
-110
-110
-110
-110
-110
-110
-110
-109
-109
-109
-110
-110
-110
-110
-111
-110
-111
-111
-110
-110
-110
-110
-111
-111
-111
-110
-110
-111
-111
-111
-111
-111
-111
-110
-111
-112
-111
-111
-111
-111
-111
-112
-112
-112
-112
-113
-113
-114
-114
-114
-114
-114
-115
-115
-116
-116
-116
-116
-116
-115
-115
-116
-116
-116
-116
-116
-116
-116
-116
-116
-116
-116
-116
-115
-116
-116
-116
-116
-115
-116
-115
-115
-115
-115
-115
-115
-115
-115
-115
-115
-116
-116
-116
-116
-116
-116
-117
-117
-116
-116
-116
-116
-116
-117
-117
-116
-117
-118
-117
-118
-117
-117
-117
-117
-117
-118
-118
-117
-117
-116
-116
-117
-117
-117
-117
-117
-117
-117
-118
-118
-118
-118
-118
-119
-119
-120
-120
-120
-121
-121
-121
-121
-121
-121
-121
-121
-121
-121
-122
-122
-121
-122
-121
-121
-122
-122
-123
-123
-122
-122
-122
-121
-121
-121
-121
-121
-121
-121
-122
-122
-121
-121
-121
-121
-122
-122
-122
-122
-122
-122
-123
-123
-123
-123
-123
-123
-123
-123
-123
-124
-123
-123
-123
-123
-124
-124
-125
-124
-124
-124
-123
-123
-124
-123
-123
-123
-123
-123
-123
-122
-121
-121
-121
-120
-120
-120
-119
-119
-117
-117
-116
-115
-115
-114
-114
-113
-112
-111
-111
-111
-111
-110
-110
-109
-109
-109
-109
-109
-109
-108
-108
-108
-107
-107
-106
-106
-106
-105
-105
-105
-104
-104
-103
-103
-103
-103
-102
-102
-102
-102
-101
-101
-101
-101
-102
-102
-102
-103
-104
-104
-105
-105
-106
-107
-108
-109
-109
-109
-110
-111
-110
-110
-111
-112
-112
-112
-113
-113
-114
-113
-114
-114
-115
-115
-115
-115
-117
-116
-117
-116
-117
-117
-117
-118
-118
-119
-119
-119
-119
-119
-120
-120
-121
-121
-122
-122
-122
-123
-123
-123
-124
-124
-124
-125
-125
-125
-126
-127
-127
-127
-127
-127
-127
-128
-128
-129
-129
-129
-130
-130
-129
-129
-130
-130
-130
-130
-130
-130
-130
-130
-131
-130
-130
-130
-130
-130
-131
-130
-130
-130
-130
-129
-129
-129
-129
-129
-129
-129
-130
-130
-129
-129
-129
-129
-130
-131
-131
-131
-131
-130
-130
-130
-130
-130
-130
-130
-130
-129
-127
-126
-123
-121
-119
-116
-113
-108
-104
-97
-92
-85
-77
-70
-62
-53
-45
-36
-27
-17
-7
4
14
24
34
44
53
62
70
77
84
90
95
98
100
100
99
96
92
87
80
72
63
51
39
23
7
-12
-30
-50
-70
-91
-112
-134
-156
-177
-200
-222
-243
-264
-285
-304
-323
-341
-357
-372
-386
-399
-410
-419
-427
-433
-438
-440
-442
-444
-442
-440
-436
-432
-425
-419
-411
-403
-393
-384
-374
-363
-353
-342
-330
-319
-307
-295
-284
-273
-263
-252
-242
-232
-223
-214
-205
-197
-188
-182
-175
-169
-162
-156
-151
-146
-142
-137
-134
-131
-128
-125
-123
-121
-118
-117
-115
-114
-113
-112
-111
-110
-109
-108
-107
-107
-106
-105
-104
-104
-103
-103
-102
-102
-102
-101
-100
-99
-99
-98
-98
-98
-98
-97
-97
-97
-96
-95
-95
-94
-94
-93
-93
-93
-93
-93
-92
-92
-91
-91
-91
-90
-90
-90
-89
-88
-87
-86
-87
-86
-86
-85
-84
-84
-84
-83
-82
-81
-82
-82
-80
-81
-80
-79
-79
-79
-78
-77
-77
-77
-76
-75
-75
-75
-74
-73
-74
-73
-73
-72
-71
-72
-71
-70
-69
-69
-67
-67
-67
-67
-66
-65
-65
-63
-63
-62
-61
-61
-60
-59
-59
-59
-57
-56
-55
-55
-54
-53
-52
-51
-50
-49
-48
-47
-46
-45
-43
-42
-41
-40
-40
-38
-38
-37
-35
-34
-33
-32
-31
-30
-28
-27
-26
-25
-24
-22
-21
-20
-19
-18
-16
-15
-14
-14
-12
-12
-10
-9
-8
-7
-5
-4
-3
-2
0
0
2
3
3
4
5
5
7
7
8
9
10
10
11
12
12
12
12
13
13
13
13
13
13
14
13
13
12
13
13
13
13
13
13
12
12
11
12
11
11
10
10
9
8
7
7
5
5
3
3
2
2
1
1
0
-1
-2
-4
-5
-7
-7
-9
-11
-12
-14
-15
-17
-19
-21
-22
-23
-25
-26
-28
-31
-31
-34
-36
-37
-39
-41
-43
-45
-46
-48
-50
-53
-54
-56
-57
-59
-60
-61
-63
-65
-67
-68
-69
-71
-72
-74
-75
-77
-78
-79
-81
-83
-84
-85
-86
-88
-88
-90
-91
-91
-93
-93
-95
-96
-97
-99
-99
-100
-101
-102
-102
-104
-106
-106
-106
-106
-107
-108
-108
-109
-110
-110
-111
-111
-112
-112
-112
-112
-112
-113
-114
-113
-114
-114
-114
-114
-114
-114
-115
-115
-115
-115
-115
-115
-116
-116
-117
-116
-117
-117
-117
-118
-117
-117
-118
-117
-117
-118
-118
-118
-117
-117
-117
-117
-117
-117
-117
-117
-117
-117
-117
-117
-117
-117
-116
-117
-117
-116
-116
-116
-116
-116
-116
-116
-117
-117
-117
-116
-117
-117
-117
-117
-117
-118
-117
-117
-117
-117
-117
-117
-117
-117
-117
-117
-118
-118
-118
-117
-117
-117
-118
-118
-118
-118
-117
-117
-117
-117
-116
-116
-116
-115
-115
-115
-115
-113
-114
-113
-113
-113
-113
-112
-112
-112
-112
-111
-111
-110
-110
-110
-110
-109
-109
-109
-109
-109
-109
-109
-109
-108
-109
-108
-108
-108
-108
-107
-107
-108
-108
-108
-108
-108
-107
-108
-107
-107
-108
-107
-107
-107
-107
-107
-107
-107
-107
-106
-106
-106
-106
-106
-106
-105
-105
-105
-106
-106
-105
-105
-105
-105
-105
-105
-106
-106
-105
-105
-105
-104
-104
-105
-105
-105
-106
-106
-106
-106
-106
-105
-105
-106
-106
-106
-106
-106
-106
-107
-107
-107
-107
-107
-107
-107
-107
-107
-108
-108
-108
-107
-108
-108
-108
-109
-109
-109
-109
-109
-109
-109
-109
-109
-110
-109
-109
-110
-110
-110
-110
-110
-111
-111
-111
-112
-112
-112
-112
-113
-113
-113
-113
-114
-114
-114
-114
-115
-115
-115
-115
-115
-115
-115
-115
-116
-117
-117
-117
-116
-117
-117
-117
-117
-117
-117
-117
-117
-118
-118
-118
-117
-118
-118
-118
-119
-119
-119
-120
-119
-119
-119
-119
-119
-119
-119
-119
-119
-120
-120
-119
-119
-119
-119
-120
-120
-120
-120
-120
-120
-120
-120
-119
-119
-119
-119
-119
-119
-119
-119
-119
-118
-119
-120
-120
-119
-120
-120
-120
-119
-119
-119
-120
-120
-120
-120
-120
-121
-120
-120
-121
-120
-120
-120
-121
-120
-120
-120
-120
-120
-120
-119
-119
-119
-119
-119
-118
-118
-119
-119
-118
-118
-118
-118
-118
-119
-119
-120
-119
-119
-119
-119
-119
-120
-120
-120
-120
-120
-120
-120
-121
-121
-121
-121
-121
-121
-121
-121
-121
-121
-120
-120
-120
-120
-120
-120
-120
-120
-120
-120
-119
-119
-119
-119
-119
-120
-119
-119
-119
-120
-120
-119
-119
-119
-119
-119
-119
-119
-120
-120
-120
-120
-120
-120
-120
-121
-122
-121
-121
-122
-121
-121
-121
-121
-122
-122
-122
-122
-122
-122
-122
-122
-122
-122
-122
-123
-122
-123
-122
-122
-123
-123
-122
-122
-122
-122
-122
-122
-122
-122
-122
-122
-122
-122
-122
-123
-123
-124
-123
-123
-123
-123
-124
-124
-124
-124
-123
-124
-123
-123
-123
-124
-123
-123
-123
-124
-124
-124
-123
-123
-124
-124
-124
-124
-123
-123
-123
-123
-123
-123
-123
-123
-123
-123
-123
-124
-123
-123
-124
-124
-123
-123
-123
-124
-124
-124
-123
-123
-124
-124
-123
-123
-123
-122
-122
-122
-122
-121
-120
-119
-119
-119
-117
-117
-117
-116
-116
-115
-115
-114
-113
-113
-113
-112
-112
-112
-112
-111
-111
-111
-110
-110
-110
-110
-110
-110
-110
-110
-110
-110
-109
-109
-109
-108
-108
-108
-107
-107
-106
-106
-105
-105
-103
-103
-103
-103
-103
-102
-102
-102
-101
-101
-101
-101
-103
-103
-103
-104
-104
-105
-105
-106
-106
-107
-107
-108
-108
-109
-109
-110
-110
-111
-111
-112
-112
-112
-114
-114
-114
-114
-115
-114
-115
-115
-116
-116
-117
-117
-118
-118
-119
-119
-119
-120
-121
-121
-121
-122
-123
-123
-123
-123
-123
-123
-124
-125
-125
-125
-125
-126
-126
-126
-126
-127
-127
-127
-128
-128
-128
-127
-128
-128
-128
-128
-128
-129
-129
-129
-130
-130
-131
-130
-130
-130
-131
-131
-132
-132
-132
-131
-131
-131
-131
-131
-131
-131
-131
-132
-132
-132
-132
-132
-132
-131
-132
-132
-132
-132
-132
-132
-131
-131
-132
-132
-132
-132
-131
-130
-130
-129
-127
-126
-124
-121
-119
-116
-112
-108
-104
-98
-93
-87
-80
-73
-67
-58
-50
-42
-36
-26
-18
-8
0
9
17
26
33
41
47
53
59
63
67
69
70
70
69
67
63
57
51
44
36
25
15
2
-12
-28
-44
-61
-78
-95
-114
-132
-152
-170
-189
-209
-228
-247
-264
-282
-299
-314
-330
-344
-357
-369
-379
-388
-396
-403
-409
-413
-416
-418
-418
-418
-416
-413
-409
-404
-398
-392
-385
-376
-367
-358
-349
-339
-328
-318
-308
-298
-287
-277
-266
-256
-247
-237
-228
-218
-210
-202
-195
-186
-180
-174
-167
-162
-156
-152
-146
-143
-139
-136
-133
-130
-128
-126
-124
-122
-121
-119
-118
-117
-117
-116
-115
-114
-113
-112
-111
-111
-110
-109
-109
-108
-107
-107
-106
-104
-104
-104
-103
-102
-102
-102
-101
-100
-100
-99
-99
-98
-98
-98
-97
-97
-97
-97
-96
-96
-96
-96
-96
-95
-95
-95
-94
-94
-93
-93
-92
-92
-92
-91
-91
-90
-90
-90
-90
-90
-90
-89
-89
-89
-88
-88
-88
-87
-88
-87
-86
-86
-86
-85
-85
-85
-85
-83
-84
-83
-83
-81
-81
-81
-81
-80
-80
-80
-79
-78
-78
-77
-77
-76
-76
-75
-74
-74
-73
-72
-71
-71
-71
-70
-70
-69
-69
-68
-67
-66
-65
-64
-64
-63
-62
-61
-61
-60
-59
-58
-57
-56
-55
-55
-53
-53
-52
-50
-49
-49
-48
-47
-45
-45
-44
-42
-42
-41
-40
-39
-38
-37
-36
-35
-35
-33
-32
-31
-29
-29
-28
-27
-26
-24
-23
-23
-23
-21
-20
-20
-19
-17
-17
-17
-16
-15
-14
-13
-13
-13
-12
-11
-10
-9
-8
-8
-8
-7
-6
-6
-5
-5
-4
-4
-5
-4
-4
-4
-3
-3
-4
-3
-4
-3
-4
-5
-5
-5
-4
-5
-6
-6
-7
-7
-7
-9
-9
-10
-11
-11
-11
-12
-13
-14
-15
-16
-17
-19
-20
-20
-21
-23
-24
-24
-26
-27
-28
-29
-30
-31
-32
-34
-34
-37
-38
-39
-41
-42
-43
-44
-45
-47
-49
-50
-52
-54
-55
-57
-58
-59
-60
-61
-64
-65
-67
-68
-70
-71
-72
-74
-75
-77
-78
-80
-81
-82
-84
-85
-86
-86
-88
-89
-90
-92
-92
-93
-94
-95
-96
-97
-98
-98
-100
-101
-102
-102
-103
-103
-105
-105
-105
-106
-107
-107
-108
-108
-110
-110
-110
-110
-111
-112
-112
-113
-113
-114
-114
-114
-114
-115
-115
-115
-115
-116
-116
-116
-116
-117
-117
-117
-118
-118
-118
-117
-118
-119
-118
-118
-119
-119
-119
-119
-119
-119
-118
-119
-119
-119
-119
-119
-119
-120
-120
-120
-120
-120
-120
-120
-120
-120
-120
-120
-121
-120
-120
-120
-120
-120
-119
-120
-120
-120
-120
-119
-120
-120
-120
-119
-119
-119
-119
-119
-119
-119
-119
-119
-119
-119
-119
-118
-118
-118
-118
-118
-118
-117
-118
-118
-117
-117
-117
-116
-116
-116
-116
-116
-116
-116
-116
-116
-116
-116
-117
-116
-117
-116
-116
-116
-115
-115
-115
-115
-115
-115
-115
-115
-114
-114
-114
-114
-114
-114
-113
-114
-113
-113
-113
-113
-112
-112
-112
-112
-112
-112
-112
-111
-112
-112
-111
-111
-111
-111
-111
-111
-110
-111
-110
-110
-109
-109
-109
-109
-109
-109
-108
-108
-108
-109
-109
-108
-108
-108
-108
-109
-109
-109
-109
-108
-109
-109
-109
-109
-109
-109
-109
-109
-109
-110
-110
-109
-110
-110
-110
-111
-111
-111
-111
-111
-111
-111
-111
-111
-111
-111
-111
-111
-112
-112
-112
-112
-112
-112
-112
-113
-113
-113
-113
-113
-112
-113
-113
-113
-113
-113
-113
-113
-114
-114
-114
-115
-115
-115
-115
-116
-115
-116
-116
-115
-116
-116
-116
-116
-116
-116
-116
-116
-116
-116
-116
-116
-116
-116
-116
-117
-116
-117
-117
-117
-117
-117
-117
-117
-118
-118
-117
-117
-118
-118
-118
-117
-118
-118
-118
-118
-119
-119
-119
-119
-118
-118
-118
-118
-119
-119
-119
-119
-119
-119
-119
-119
-119
-119
-120
-119
-120
-120
-120
-119
-119
-120
-120
-120
-120
-119
-119
-120
-121
-121
-121
-120
-120
-120
-121
-121
-122
-121
-121
-122
-122
-122
-122
-122
-122
-122
-122
-123
-123
-124
-124
-124
-124
-124
-124
-125
-125
-125
-125
-125
-125
-125
-125
-125
-125
-125
-125
-125
-124
-124
-124
-124
-124
-124
-124
-124
-124
-124
-123
-123
-123
-123
-123
-123
-123
-122
-122
-122
-122
-122
-122
-123
-123
-123
-124
-123
-124
-124
-125
-124
-124
-124
-124
-124
-125
-125
-125
-125
-125
-126
-126
-125
-125
-125
-126
-126
-126
-126
-126
-125
-126
-126
-126
-125
-125
-125
-125
-126
-125
-125
-125
-126
-126
-126
-126
-127
-126
-127
-127
-126
-126
-126
-126
-126
-126
-126
-127
-126
-126
-126
-126
-126
-126
-126
-126
-127
-126
-127
-127
-126
-126
-126
-126
-126
-126
-126
-125
-126
-126
-126
-126
-126
-126
-126
-126
-126
-126
-127
-127
-126
-126
-126
-126
-127
-127
-127
-126
-126
-127
-127
-127
-127
-126
-127
-128
-127
-128
-128
-128
-127
-127
-128
-128
-127
-127
-127
-127
-127
-127
-127
-126
-127
-127
-127
-127
-126
-127
-127
-127
-127
-126
-126
-126
-126
-126
-126
-126
-126
-125
-125
-125
-125
-124
-124
-123
-124
-123
-123
-123
-122
-122
-121
-121
-120
-119
-119
-118
-117
-117
-117
-116
-116
-115
-115
-114
-113
-114
-113
-113
-112
-112
-111
-111
-111
-111
-110
-110
-110
-110
-109
-109
-109
-108
-108
-108
-109
-108
-109
-109
-107
-107
-107
-106
-106
-106
-105
-105
-106
-105
-105
-105
-105
-105
-105
-106
-105
-106
-106
-106
-106
-106
-106
-106
-106
-107
-107
-108
-108
-108
-108
-109
-110
-110
-110
-111
-112
-112
-113
-113
-113
-114
-114
-115
-114
-116
-116
-116
-117
-118
-118
-118
-119
-120
-120
-120
-121
-121
-122
-123
-122
-123
-123
-124
-123
-125
-125
-124
-125
-126
-126
-126
-126
-127
-127
-127
-128
-128
-128
-129
-129
-129
-129
-129
-130
-131
-131
-130
-130
-131
-131
-131
-132
-131
-131
-131
-132
-132
-132
-131
-132
-131
-131
-131
-131
-131
-130
-130
-130
-130
-130
-130
-130
-130
-130
-130
-130
-130
-130
-130
-130
-129
-130
-130
-130
-130
-130
-130
-130
-130
-130
-130
-130
-130
-130
-130
-130
-130
-130
-129
-128
-127
-126
-124
-123
-121
-119
-116
-111
-108
-104
-100
-94
-89
-83
-76
-69
-62
-54
-46
-39
-30
-22
-13
-5
3
12
20
28
35
41
47
53
57
61
64
65
66
65
63
61
58
53
47
40
32
24
13
1
-12
-27
-42
-57
-73
-89
-107
-124
-141
-160
-178
-196
-214
-231
-248
-265
-281
-296
-311
-324
-337
-348
-359
-367
-375
-382
-388
-392
-395
-397
-398
-397
-396
-393
-389
-385
-380
-374
-368
-360
-352
-344
-335
-326
-316
-306
-296
-287
-278
-268
-259
-248
-239
-230
-221
-213
-204
-197
-189
-182
-175
-168
-163
-158
-152
-147
-142
-139
-135
-132
-129
-126
-123
-121
-119
-117
-115
-114
-112
-111
-110
-109
-108
-107
-107
-106
-106
-105
-104
-104
-104
-104
-103
-102
-101
-101
-101
-101
-100
-100
-100
-100
-98
-99
-98
-97
-97
-97
-97
-96
-96
-95
-94
-94
-94
-93
-93
-92
-92
-92
-92
-91
-90
-90
-90
-90
-89
-89
-90
-90
-89
-89
-88
-88
-88
-88
-88
-87
-87
-87
-86
-86
-86
-86
-86
-86
-86
-86
-86
-86
-86
-85
-85
-85
-84
-84
-83
-83
-83
-82
-82
-81
-80
-80
-80
-79
-78
-78
-78
-78
-77
-76
-75
-75
-74
-73
-73
-73
-72
-72
-71
-71
-71
-70
-70
-69
-68
-68
-67
-67
-67
-66
-65
-64
-63
-62
-61
-60
-59
-58
-57
-57
-56
-54
-53
-52
-51
-51
-49
-49
-48
-47
-45
-45
-44
-43
-42
-41
-40
-39
-39
-38
-36
-35
-34
-33
-33
-32
-31
-30
-29
-28
-26
-26
-25
-24
-22
-21
-21
-20
-19
-18
-17
-17
-16
-16
-16
-15
-14
-14
-14
-13
-13
-12
-12
-12
-12
-12
-12
-12
-12
-13
-12
-12
-12
-12
-12
-13
-13
-13
-13
-13
-13
-14
-14
-14
-14
-15
-15
-16
-15
-16
-17
-17
-17
-18
-19
-20
-20
-20
-21
-22
-23
-23
-24
-24
-25
-26
-27
-28
-30
-30
-32
-32
-33
-35
-35
-37
-38
-39
-41
-42
-42
-43
-44
-45
-46
-48
-49
-50
-51
-53
-54
-55
-56
-57
-58
-61
-62
-63
-65
-65
-66
-68
-69
-71
-72
-73
-75
-76
-77
-79
-80
-82
-83
-84
-85
-87
-89
-90
-91
-92
-93
-94
-95
-96
-97
-98
-99
-99
-101
-102
-102
-102
-103
-104
-104
-104
-105
-106
-106
-107
-107
-107
-108
-108
-108
-108
-109
-109
-109
-110
-111
-111
-111
-112
-112
-111
-112
-113
-113
-113
-113
-113
-113
-113
-114
-114
-114
-114
-114
-115
-115
-115
-114
-115
-115
-115
-116
-115
-115
-115
-115
-115
-115
-115
-115
-115
-115
-114
-115
-115
-115
-114
-115
-114
-114
-114
-115
-114
-114
-114
-113
-113
-113
-114
-114
-113
-113
-113
-113
-112
-112
-113
-113
-113
-113
-113
-113
-113
-113
-113
-112
-113
-113
-113
-113
-112
-112
-112
-112
-112
-112
-112
-111
-111
-111
-111
-111
-111
-111
-110
-110
-110
-109
-110
-110
-109
-109
-109
-109
-109
-109
-108
-107
-107
-107
-107
-106
-107
-107
-106
-107
-106
-106
-106
-106
-106
-106
-106
-106
-106
-105
-106
-106
-106
-105
-106
-106
-106
-106
-105
-106
-106
-105
-105
-105
-105
-104
-105
-104
-104
-104
-104
-104
-103
-103
-103
-104
-104
-103
-103
-103
-103
-102
-102
-103
-103
-103
-102
-102
-102
-102
-102
-102
-102
-102
-101
-102
-102
-103
-102
-102
-102
-102
-102
-102
-102
-102
-101
-102
-102
-102
-103
-102
-103
-103
-103
-102
-103
-103
-103
-102
-102
-102
-102
-102
-102
-102
-102
-102
-102
-102
-102
-102
-102
-102
-102
-101
-102
-102
-101
-100
-100
-101
-100
-100
-100
-100
-99
-99
-100
-99
-99
-99
-99
-99
-100
-100
-100
-101
-101
-101
-101
-101
-101
-102
-102
-103
-104
-104
-105
-105
-106
-106
-107
-107
-108
-109
-110
-109
-110
-110
-110
-110
-110
-111
-111
-111
-111
-112
-112
-113
-113
-113
-113
-113
-114
-115
-115
-115
-115
-115
-115
-115
-116
-117
-117
-117
-117
-118
-118
-117
-118
-118
-118
-118
-118
-119
-119
-119
-119
-119
-118
-118
-118
-118
-118
-119
-119
-119
-119
-119
-118
-118
-118
-118
-118
-119
-119
-120
-119
-119
-119
-119
-119
-119
-119
-119
-119
-119
-119
-120
-119
-120
-120
-121
-120
-120
-121
-120
-120
-120
-121
-121
-121
-121
-121
-121
-121
-121
-121
-122
-121
-121
-121
-122
-122
-121
-122
-122
-122
-121
-121
-122
-122
-122
-122
-122
-122
-122
-122
-122
-123
-122
-122
-123
-123
-123
-123
-124
-123
-123
-123
-124
-124
-124
-124
-124
-124
-124
-125
-124
-125
-124
-124
-125
-125
-124
-125
-124
-124
-125
-124
-124
-124
-124
-124
-124
-124
-124
-124
-125
-124
-124
-124
-124
-124
-124
-124
-124
-124
-123
-123
-123
-122
-122
-122
-121
-121
-121
-120
-120
-119
-119
-118
-118
-117
-117
-117
-116
-115
-115
-114
-113
-113
-113
-112
-111
-111
-111
-110
-110
-110
-110
-110
-110
-109
-109
-109
-109
-109
-108
-108
-107
-107
-106
-106
-106
-105
-105
-105
-104
-104
-103
-102
-102
-101
-102
-101
-102
-100
-100
-100
-100
-101
-101
-102
-102
-102
-104
-104
-105
-106
-106
-106
-107
-108
-108
-109
-110
-110
-111
-112
-111
-112
-112
-113
-113
-113
-113
-114
-114
-115
-114
-115
-115
-116
-117
-117
-118
-118
-118
-119
-119
-119
-119
-120
-120
-121
-122
-122
-122
-122
-123
-123
-124
-124
-125
-125
-125
-125
-126
-126
-126
-127
-128
-127
-127
-128
-129
-128
-130
-130
-129
-130
-130
-130
-131
-131
-131
-132
-131
-131
-131
-131
-131
-131
-131
-132
-132
-132
-132
-132
-131
-132
-132
-132
-132
-132
-132
-132
-132
-131
-131
-131
-131
-131
-131
-131
-131
-131
-131
-131
-131
-131
-130
-130
-131
-130
-130
-130
-130
-130
-130
-128
-128
-126
-126
-123
-121
-119
-116
-113
-108
-104
-100
-94
-88
-82
-75
-67
-58
-50
-42
-34
-25
-15
-5
4
13
22
30
39
47
54
60
66
71
76
79
81
83
83
81
79
76
71
65
59
51
41
31
20
6
-8
-23
-40
-57
-75
-94
-112
-131
-150
-169
-190
-209
-228
-247
-265
-283
-300
-316
