# Simple Text Format
# Sampling Rate (Hz):= 1200.00
# Resolution:= 12
# Labels:= ECG	 I 
# Age:=	23
# Gender:=	Masculino
-21
-21
-21
-20
-19
-19
-18
-18
-18
-17
-16
-16
-16
-16
-15
-15
-15
-14
-14
-14
-14
-14
-14
-13
-13
-14
-13
-14
-14
-14
-14
-13
-14
-14
-14
-15
-14
-14
-14
-13
-13
-13
-12
-12
-11
-10
-9
-9
-8
-8
-7
-7
-7
-6
-5
-5
-4
-4
-5
-5
-5
-4
-5
-4
-4
-5
-5
-5
-5
-5
-6
-5
-7
-6
-6
-7
-6
-6
-7
-7
-7
-7
-7
-7
-7
-7
-7
-8
-8
-9
-9
-10
-10
-10
-11
-12
-12
-13
-14
-13
-14
-15
-15
-15
-16
-16
-16
-17
-18
-18
-19
-18
-19
-20
-20
-20
-20
-20
-21
-22
-22
-22
-22
-23
-22
-23
-22
-23
-22
-22
-23
-23
-23
-24
-24
-23
-24
-24
-24
-25
-24
-25
-25
-25
-25
-26
-26
-26
-26
-26
-26
-26
-27
-27
-27
-27
-28
-28
-27
-27
-28
-27
-28
-28
-27
-27
-27
-27
-26
-27
-27
-26
-27
-27
-27
-27
-28
-27
-27
-27
-27
-27
-28
-28
-28
-28
-28
-28
-29
-29
-30
-30
-31
-31
-31
-32
-31
-32
-31
-31
-31
-30
-29
-27
-26
-23
-21
-18
-15
-10
-6
-1
4
10
17
24
30
37
44
52
59
66
74
80
86
92
96
99
101
103
105
106
105
103
101
98
94
89
83
77
70
63
56
47
40
33
26
18
11
3
-3
-9
-16
-22
-27
-32
-38
-41
-45
-48
-50
-52
-54
-55
-57
-58
-58
-58
-58
-57
-56
-55
-54
-53
-52
-50
-48
-47
-45
-44
-42
-41
-40
-38
-36
-35
-33
-32
-30
-30
-28
-27
-27
-26
-25
-26
-25
-25
-25
-24
-24
-23
-24
-24
-24
-23
-23
-23
-23
-23
-23
-24
-23
-24
-23
-23
-23
-23
-23
-23
-23
-23
-22
-22
-21
-21
-21
-20
-20
-20
-20
-20
-20
-20
-20
-20
-19
-19
-19
-20
-19
-19
-19
-19
-19
-19
-18
-18
-18
-18
-17
-18
-17
-18
-18
-18
-18
-18
-18
-18
-18
-18
-18
-18
-17
-17
-16
-16
-16
-16
-16
-15
-15
-15
-15
-15
-15
-15
-15
-15
-14
-13
-14
-14
-13
-13
-13
-12
-12
-12
-11
-11
-11
-12
-11
-11
-11
-11
-11
-10
-10
-10
-10
-10
-9
-9
-9
-8
-8
-8
-8
-8
-8
-7
-7
-7
-7
-7
-6
-6
-5
-5
-4
-4
-3
-3
-3
-2
-2
-1
-1
-1
-1
0
0
0
1
2
2
3
3
3
4
5
6
6
7
8
8
9
9
11
12
12
13
14
15
16
16
17
18
19
20
20
22
22
24
25
26
26
27
29
29
29
30
31
33
32
33
34
35
36
37
37
37
39
40
41
40
41
42
43
44
44
45
46
46
47
48
48
49
50
50
50
52
52
53
53
54
53
54
54
54
54
54
54
54
54
54
53
53
53
52
52
52
51
50
49
48
48
47
45
45
44
43
42
40
40
39
37
35
34
34
33
31
30
29
27
25
24
23
22
20
20
18
17
15
14
13
12
11
10
9
8
6
5
5
3
2
1
1
0
-2
-2
-3
-5
-5
-6
-7
-8
-8
-9
-10
-11
-11
-12
-12
-13
-13
-14
-15
-15
-16
-16
-17
-18
-17
-18
-19
-18
-19
-19
-19
-20
-19
-20
-21
-20
-21
-21
-21
-21
-21
-21
-22
-22
-22
-22
-22
-22
-23
-22
-23
-22
-23
-24
-23
-23
-23
-23
-24
-23
-24
-24
-24
-24
-24
-24
-24
-24
-25
-24
-25
-25
-25
-25
-24
-24
-24
-25
-25
-25
-25
-25
-25
-25
-26
-26
-25
-25
-25
-25
-24
-25
-25
-24
-25
-24
-24
-25
-25
-25
-25
-25
-25
-25
-26
-26
-26
-26
-26
-26
-26
-26
-26
-26
-26
-26
-26
-26
-26
-26
-27
-27
-27
-27
-28
-28
-28
-28
-28
-27
-28
-28
-27
-27
-27
-27
-26
-26
-26
-26
-26
-25
-25
-25
-25
-25
-25
-25
-24
-24
-24
-24
-23
-23
-24
-24
-23
-24
-23
-23
-23
-24
-24
-24
-24
-24
-24
-24
-24
-24
-24
-24
-23
-24
-24
-23
-23
-23
-23
-23
-23
-23
-23
-23
-23
-22
-22
-23
-23
-23
-22
-22
-23
-22
-22
-22
-22
-21
-20
-21
-20
-20
-20
-20
-20
-20
-20
-20
-19
-20
-19
-19
-19
-19
-18
-18
-18
-18
-19
-19
-19
-19
-19
-19
-19
-19
-19
-19
-19
-20
-19
-20
-19
-20
-20
-19
-20
-20
-20
-20
-20
-20
-20
-20
-20
-19
-19
-19
-20
-20
-20
-20
-20
-19
-19
-19
-19
-19
-19
-19
-19
-19
-19
-19
-18
-19
-19
-19
-20
-19
-20
-20
-19
-20
-20
-20
-20
-20
-20
-21
-20
-21
-21
-20
-21
-20
-21
-21
-21
-20
-21
-20
-21
-20
-21
-20
-20
-20
-20
-21
-21
-21
-20
-20
-21
-21
-21
-21
-20
-21
-21
-20
-20
-21
-21
-21
-21
-21
-21
-20
-20
-21
-21
-21
-21
-21
-21
-20
-20
-20
-19
-19
-20
-20
-20
-20
-20
-20
-20
-19
-19
-20
-20
-20
-20
-20
-20
-20
-21
-20
-21
-21
-20
-21
-21
-20
-20
-20
-20
-20
-20
-20
-21
-21
-20
-20
-20
-21
-20
-21
-20
-20
-20
-20
-20
-20
-20
-20
-20
-21
-21
-21
-20
-20
-20
-20
-20
-20
-21
-20
-21
-20
-21
-21
-20
-20
-20
-20
-20
-20
-20
-21
-20
-20
-20
-20
-20
-21
-20
-20
-20
-20
-20
-19
-19
-20
-20
-20
-20
-20
-20
-21
-21
-20
-20
-21
-21
-21
-21
-21
-20
-20
-21
-21
-20
-20
-20
-20
-20
-21
-21
-20
-20
-20
-20
-20
-20
-20
-20
-19
-20
-20
-19
-19
-19
-19
-19
-19
-19
-19
-19
-19
-18
-18
-19
-19
-19
-19
-20
-20
-20
-19
-20
-20
-19
-19
-19
-19
-18
-18
-18
-17
-17
-17
-17
-16
-15
-14
-14
-13
-13
-12
-12
-11
-11
-10
-10
-10
-9
-9
-10
-10
-9
-9
-10
-10
-9
-10
-9
-9
-9
-9
-9
-9
-8
-8
-8
-8
-7
-7
-7
-6
-6
-5
-4
-4
-4
-3
-2
-1
-1
-1
-1
1
0
0
0
1
2
1
1
1
1
1
0
1
0
0
0
0
-1
-1
-1
-1
-1
-1
-1
-2
-2
-2
-2
-3
-2
-3
-3
-3
-4
-4
-4
-5
-5
-6
-6
-6
-7
-8
-7
-8
-9
-9
-10
-10
-11
-12
-12
-13
-13
-14
-15
-15
-16
-16
-16
-17
-17
-18
-19
-19
-20
-20
-20
-21
-21
-21
-21
-22
-22
-22
-22
-23
-22
-22
-23
-22
-22
-22
-23
-23
-23
-23
-23
-23
-24
-23
-23
-24
-24
-24
-23
-24
-23
-23
-24
-23
-23
-23
-23
-24
-24
-24
-24
-23
-24
-24
-23
-24
-24
-25
-24
-25
-24
-25
-24
-24
-25
-24
-24
-25
-25
-25
-25
-25
-26
-26
-26
-26
-27
-27
-28
-27
-27
-28
-28
-28
-28
-28
-28
-27
-26
-25
-23
-21
-18
-15
-12
-8
-3
2
8
14
21
28
35
43
50
58
66
74
81
87
94
99
104
108
111
114
115
116
116
114
113
109
106
101
95
89
81
73
65
58
49
40
32
24
15
8
0
-8
-15
-21
-27
-33
-38
-43
-48
-50
-53
-55
-58
-59
-61
-62
-63
-63
-62
-62
-60
-59
-58
-56
-55
-52
-51
-48
-46
-45
-42
-40
-38
-37
-35
-32
-31
-30
-28
-27
-25
-25
-24
-23
-22
-21
-21
-21
-20
-20
-20
-20
-20
-19
-19
-20
-19
-19
-20
-19
-19
-19
-20
-19
-19
-19
-19
-18
-18
-18
-17
-17
-17
-18
-18
-17
-17
-17
-17
-17
-17
-17
-17
-17
-16
-16
-16
-16
-16
-16
-15
-15
-15
-14
-14
-15
-14
-14
-15
-15
-15
-14
-15
-14
-14
-14
-13
-13
-13
-12
-13
-13
-13
-12
-12
-12
-12
-12
-12
-12
-11
-11
-12
-11
-11
-11
-11
-10
-10
-10
-10
-9
-9
-9
-9
-8
-8
-8
-8
-8
-7
-7
-7
-6
-6
-6
-5
-5
-5
-5
-5
-4
-4
-4
-4
-4
-4
-4
-3
-3
-3
-3
-3
-3
-2
-2
-1
-1
-1
-1
-1
0
1
1
2
2
3
4
4
4
5
5
5
6
6
7
8
8
9
10
10
11
11
12
13
12
13
14
15
16
16
17
18
18
19
20
20
21
22
22
23
24
24
25
25
27
27
27
29
30
30
31
32
33
34
35
35
37
37
38
39
40
41
42
43
44
45
45
47
47
48
49
50
51
52
53
53
54
54
55
56
57
57
58
58
58
59
59
60
60
61
60
61
62
62
61
61
61
61
61
61
61
61
61
60
60
60
60
58
58
58
57
56
55
54
54
53
52
50
50
48
47
46
44
43
42
41
39
37
36
35
33
32
30
29
28
26
25
24
22
20
19
18
16
16
15
14
13
11
10
9
8
7
6
5
4
4
2
2
1
0
-1
-1
-3
-4
-5
-5
-7
-7
-8
-9
-10
-10
-10
-11
-11
-12
-12
-13
-14
-13
-14
-14
-15
-16
-16
-16
-16
-17
-17
-18
-18
-17
-18
-19
-18
-18
-19
-19
-19
-19
-19
-19
-20
-20
-20
-20
-20
-21
-20
-20
-21
-21
-21
-21
-21
-21
-21
-21
-21
-21
-21
-22
-21
-21
-21
-22
-21
-22
-22
-22
-22
-22
-22
-22
-22
-22
-22
-22
-22
-22
-21
-21
-20
-20
-21
-21
-21
-21
-22
-21
-21
-21
-21
-22
-21
-21
-22
-22
-21
-22
-23
-22
-22
-22
-23
-23
-23
-23
-23
-23
-23
-24
-24
-23
-23
-23
-23
-23
-23
-23
-23
-23
-23
-23
-23
-23
-23
-23
-23
-23
-23
-24
-23
-24
-23
-23
-23
-23
-23
-23
-23
-23
-22
-22
-22
-22
-22
-22
-21
-21
-22
-22
-21
-21
-21
-21
-21
-21
-21
-20
-20
-19
-20
-20
-19
-20
-20
-20
-19
-21
-21
-20
-21
-20
-20
-20
-21
-20
-20
-20
-20
-20
-20
-20
-20
-19
-19
-19
-19
-19
-18
-18
-18
-18
-18
-17
-17
-18
-17
-17
-17
-17
-17
-17
-17
-16
-17
-17
-17
-17
-17
-17
-17
-16
-16
-17
-16
-16
-16
-16
-16
-16
-17
-17
-17
-17
-17
-17
-17
-18
-18
-17
-18
-18
-18
-17
-18
-18
-18
-18
-18
-17
-17
-18
-17
-17
-17
-17
-18
-17
-17
-17
-17
-17
-17
-16
-17
-16
-16
-16
-16
-17
-17
-17
-17
-18
-17
-18
-18
-18
-18
-19
-19
-18
-18
-19
-18
-18
-18
-18
-18
-18
-18
-18
-18
-17
-17
-18
-17
-17
-17
-18
-18
-17
-18
-18
-18
-18
-18
-19
-19
-19
-19
-20
-20
-19
-19
-20
-20
-20
-19
-20
-19
-20
-20
-19
-19
-19
-19
-19
-19
-20
-20
-20
-20
-20
-20
-21
-21
-21
-21
-20
-21
-20
-20
-21
-20
-20
-20
-20
-19
-19
-20
-20
-20
-19
-20
-19
-20
-20
-20
-19
-20
-20
-20
-20
-20
-21
-20
-20
-21
-21
-20
-20
-21
-21
-21
-21
-21
-21
-21
-21
-21
-22
-22
-21
-21
-22
-22
-22
-22
-21
-21
-22
-21
-21
-21
-21
-22
-21
-21
-21
-21
-20
-20
-20
-21
-21
-20
-20
-21
-20
-20
-20
-20
-20
-20
-20
-20
-20
-20
-21
-21
-21
-21
-21
-20
-20
-21
-21
-21
-21
-21
-22
-21
-22
-21
-21
-22
-21
-21
-22
-21
-22
-21
-21
-21
-21
-21
-20
-20
-20
-20
-20
-20
-20
-20
-19
-20
-19
-19
-20
-19
-19
-19
-19
-19
-19
-19
-19
-19
-20
-19
-19
-19
-20
-20
-20
-20
-20
-21
-21
-21
-22
-22
-22
-22
-22
-22
-22
-22
-22
-23
-23
-22
-22
-22
-21
-21
-21
-21
-21
-21
-21
-21
-20
-20
-20
-20
-19
-19
-19
-20
-20
-19
-20
-20
-20
-20
-20
-21
-20
-21
-20
-20
-20
-21
-20
-20
-20
-20
-20
-20
-20
-20
-20
-20
-21
-21
-21
-21
-21
-21
-21
-21
-20
-21
-21
-21
-22
-22
-21
-21
-21
-22
-22
-22
-21
-22
-21
-21
-21
-21
-20
-20
-20
-19
-19
-18
-17
-17
-17
-16
-15
-15
-15
-14
-14
-13
-13
-13
-12
-12
-11
-12
-11
-11
-10
-10
-10
-10
-10
-10
-10
-9
-10
-10
-10
-10
-10
-9
-9
-9
-9
-9
-8
-8
-7
-7
-6
-5
-5
-4
-3
-3
-3
-3
-2
-2
-2
-1
-2
-1
-2
-1
-1
-1
-2
-1
-2
-1
-2
-2
-2
-3
-2
-2
-2
-2
-2
-3
-3
-3
-2
-3
-2
-3
-4
-4
-4
-4
-4
-5
-5
-6
-6
-7
-8
-8
-9
-9
-10
-11
-11
-12
-12
-12
-13
-14
-14
-15
-16
-16
-17
-17
-18
-18
-19
-20
-20
-21
-21
-21
-22
-22
-22
-22
-23
-23
-23
-23
-23
-24
-24
-24
-24
-24
-24
-24
-24
-24
-25
-25
-25
-25
-25
-24
-24
-25
-25
-24
-25
-25
-25
-25
-25
-26
-25
-25
-25
-25
-26
-26
-25
-25
-26
-26
-26
-26
-26
-25
-26
-26
-26
-27
-27
-27
-27
-28
-28
-29
-28
-29
-29
-29
-30
-30
-30
-31
-30
-31
-32
-32
-32
-32
-32
-31
-31
-30
-29
-28
-27
-25
-23
-20
-17
-13
-10
-5
0
5
11
17
24
31
39
46
54
62
69
77
84
92
98
104
109
113
116
119
120
121
121
120
117
115
111
106
100
93
86
78
69
60
52
43
34
26
17
9
1
-7
-16
-23
-30
-36
-43
-47
-52
-56
-59
-62
-65
-66
-68
-69
-69
-69
-69
-69
-68
-67
-65
-63
-61
-60
-57
-55
-54
-51
-49
-47
-45
-43
-40
-38
-36
-34
-33
-31
-30
-28
-27
-26
-25
-24
-24
-23
-22
-22
-22
-21
-22
-22
-21
-21
-21
-21
-20
-20
-21
-21
-21
-21
-21
-21
-21
-21
-21
-21
-21
-21
-21
-20
-20
-20
-20
-19
-19
-19
-18
-18
-18
-18
-17
-18
-18
-17
-17
-17
-17
-16
-17
-16
-17
-16
-17
-16
-16
-16
-16
-16
-15
-16
-16
-16
-15
-15
-16
-15
-15
-15
-14
-15
-14
-14
-14
-14
-13
-13
-13
-13
-13
-13
-13
-13
-12
-12
-12
-11
-11
-11
-11
-11
-10
-10
-10
-10
-10
-10
-10
-10
-9
-10
-9
-9
-9
-9
-9
-8
-9
-9
-8
-8
-7
-7
-7
-7
-6
-5
-5
-5
-5
-5
-4
-4
-3
-3
-2
-2
-2
-2
-1
-1
0
0
0
1
1
2
3
3
4
4
5
6
5
7
7
8
8
9
9
9
10
10
11
11
13
13
13
14
15
15
16
17
18
18
19
20
21
22
22
23
23
25
26
27
27
28
28
30
31
32
32
33
34
35
36
37
38
39
40
40
41
42
43
45
46
46
47
48
49
50
51
51
52
52
53
53
54
55
55
55
56
56
57
57
57
57
57
57
58
58
58
58
59
59
59
59
58
58
58
58
57
58
57
57
57
57
55
55
55
53
53
53
52
51
49
49
48
47
45
44
43
42
41
40
38
37
36
35
34
32
30
29
28
26
25
24
22
21
20
18
16
16
15
15
13
12
11
10
9
8
7
6
6
5
4
3
2
1
0
-1
-1
-2
-3
-5
-6
-6
-7
-8
-9
-10
-11
-11
-11
-12
-13
-13
-14
-15
-15
-15
-16
-16
-17
-17
-17
-18
-18
-18
-19
-19
-19
-19
-20
-20
-21
-22
-22
-22
-22
-22
-22
-22
-22
-22
-22
-22
-22
-22
-22
-22
-23
-22
-22
-22
-23
-23
-23
-23
-23
-23
-23
-23
-22
-23
-23
-23
-23
-23
-23
-23
-23
-24
-23
-23
-23
-23
-23
-23
-23
-23
-23
-24
-23
-24
-24
-24
-24
-24
-24
-25
-25
-25
-24
-24
-25
-25
-25
-26
-25
-26
-25
-25
-25
-25
-25
-24
-24
-24
-24
-24
-24
-24
-24
-24
-24
-25
-25
-25
-24
-25
-24
-24
-24
-24
-24
-24
-24
-24
-24
-24
-24
-23
-23
-23
-23
-22
-22
-22
-23
-22
-22
-22
-22
-21
-21
-21
-22
-22
-21
-21
-21
-21
-22
-22
-21
-21
-21
-21
-21
-22
-21
-22
-21
-21
-21
-22
-22
-22
-22
-22
-22
-21
-21
-21
-21
-21
-21
-20
-20
-20
-20
-19
-20
-19
-19
-19
-19
-18
-18
-18
-18
-18
-18
-18
-19
-19
-18
-18
-18
-19
-18
-18
-18
-18
-18
-18
-19
-18
-18
-18
-18
-18
-18
-18
-17
-18
-18
-17
-17
-17
-17
-17
-17
-17
-17
-17
-17
-17
-17
-17
-17
-17
-17
-17
-17
-17
-18
-18
-17
-18
-17
-17
-18
-18
-17
-17
-18
-18
-18
-18
-17
-18
-18
-18
-18
-17
-18
-18
-18
-18
-17
-18
-18
-18
-18
-17
-18
-18
-18
-18
-19
-19
-18
-18
-19
-19
-19
-19
-19
-19
-19
-19
-19
-18
-19
-19
-18
-18
-18
-19
-19
-19
-19
-19
-20
-19
-19
-19
-20
-20
-20
-20
-20
-20
-20
-20
-20
-20
-20
-20
-19
-20
-20
-20
-20
-20
-20
-20
-21
-20
-20
-20
-20
-20
-21
-21
-21
-21
-21
-21
-21
-21
-21
-21
-22
-21
-22
-22
-22
-22
-22
-22
-22
-22
-22
-23
-22
-22
-22
-22
-22
-22
-22
-22
-21
-21
-21
-21
-21
-21
-21
-21
-21
-21
-20
-21
-21
-21
-21
-21
-21
-21
-21
-21
-21
-21
-21
-21
-21
-21
-20
-21
-20
-20
-20
-20
-20
-20
-19
-19
-19
-19
-20
-20
-19
-19
-19
-19
-20
-20
-20
-20
-20
-20
-21
-21
-21
-21
-21
-20
-21
-21
-21
-21
-21
-21
-21
-22
-21
-21
-22
-22
-22
-21
-21
-21
-21
-21
-20
-21
-21
-22
-21
-21
-22
-21
-21
-21
-21
-21
-21
-21
-21
-21
-20
-20
-21
-21
-21
-19
-19
-20
-19
-18
-18
-17
-18
-17
-17
-16
-15
-14
-14
-13
-12
-12
-12
-11
-11
-11
-10
-10
-11
-10
-10
-10
-10
-10
-10
-11
-11
-10
-10
-10
-10
-10
-10
-9
-9
-9
-8
-8
-8
-7
-6
-6
-6
-5
-4
-4
-4
-3
-3
-3
-2
-2
-1
-1
-1
-1
0
0
-1
-1
-1
0
-1
0
-1
-1
-1
-1
-1
-1
-1
-1
-1
-1
-2
-2
-2
-2
-3
-4
-4
-4
-5
-4
-5
-5
-7
-7
-7
-7
-8
-8
-9
-9
-10
-12
-12
-12
-13
-14
-14
-14
-15
-15
-16
-17
-18
-18
-18
-18
-19
-19
-20
-20
-20
-20
-22
-22
-22
-22
-23
-23
-23
-24
-24
-24
-24
-24
-24
-25
-25
-24
-24
-25
-25
-25
-24
-24
-25
-25
-25
-25
-25
-25
-26
-25
-26
-25
-26
-25
-25
-25
-26
-26
-26
-26
-26
-26
-27
-27
-27
-26
-27
-27
-27
-26
-27
-27
-27
-27
-27
-27
-28
-27
-27
-27
-27
-28
-28
-29
-28
-28
-29
-28
-29
-29
-28
-28
-29
-28
-27
-27
-26
-25
-24
-21
-18
-16
-13
-9
-5
-1
4
11
17
23
30
38
46
55
62
69
77
85
92
99
104
108
113
116
119
120
121
120
119
117
114
109
104
98
91
84
75
67
57
48
39
30
21
13
3
-5
-13
-21
-28
-35
-42
-47
-53
-57
-61
-64
-67
-68
-71
-72
-73
-73
-73
-71
-71
-71
-69
-68
-66
-64
-62
-59
-57
-55
-53
-50
-48
-45
-43
-41
-38
-36
-35
-33
-31
-30
-28
-28
-26
-26
-25
-24
-23
-23
-23
-23
-22
-22
-22
-22
-22
-22
-21
-21
-21
-22
-22
-21
-21
-21
-20
-20
-20
-21
-20
-20
-19
-19
-19
-20
-20
-20
-20
-20
-19
-19
-19
-19
-19
-18
-18
-18
-17
-17
-17
-16
-16
-16
-16
-16
-16
-16
-15
-15
-16
-16
-16
-16
-16
-16
-16
-16
-16
-15
-15
-15
-14
-14
-14
-14
-14
-14
-13
-13
-13
-13
-13
-13
-13
-13
-12
-12
-12
-12
-12
-12
-12
-11
-11
-11
-11
-11
-10
-10
-9
-9
-9
-9
-9
-8
-8
-8
-8
-8
-7
-6
-6
-6
-5
-5
-5
-5
-4
-4
-4
-4
-3
-3
-2
-3
-2
-1
-1
-1
0
0
0
0
2
2
2
2
2
3
4
4
4
4
5
5
6
7
7
8
9
9
9
10
11
11
12
13
14
14
15
16
16
17
18
19
19
20
22
22
23
24
25
26
27
28
29
29
30
31
33
33
35
36
37
38
38
39
40
42
42
43
45
46
47
47
48
49
49
50
51
51
52
53
55
55
56
57
57
59
59
60
60
60
61
61
62
63
62
62
62
62
62
63
62
62
62
63
63
63
62
62
62
62
61
61
60
60
60
59
58
58
57
57
56
55
54
53
53
52
50
50
49
47
45
44
43
41
40
39
38
35
34
32
31
30
28
27
26
25
23
22
21
20
19
17
16
14
13
12
11
10
9
8
6
5
4
3
1
0
0
-2
-3
-3
-4
-6
-7
-8
-9
-9
-10
-11
-12
-13
-13
-14
-14
-15
-15
-15
-16
-16
-17
-17
-17
-18
-17
-18
-19
-19
-18
-19
-19
-19
-19
-20
-19
-19
-20
-20
-21
-20
-21
-21
-21
-21
-21
-21
-21
-22
-22
-23
-23
-24
-24
-24
-24
-24
-25
-24
-24
-25
-24
-24
-25
-25
-25
-26
-25
-25
-26
-26
-26
-26
-26
-26
-26
-26
-26
-26
-26
-25
-25
-26
-26
-26
-26
-26
-26
-26
-26
-26
-26
-26
-26
-27
-27
-26
-27
-27
-27
-26
-27
-27
-28
-28
-28
-28
-28
-28
-28
-28
-28
-28
-28
-28
-28
-28
-28
-28
-28
-27
-27
-27
-27
-27
-27
-27
-27
-27
-28
-27
-27
-27
-27
-27
-28
-27
-26
-27
-26
-26
-26
-26
-26
-26
-25
-25
-25
-25
-25
-24
-24
-24
-24
-24
-24
-23
-23
-23
-23
-23
-23
-23
-22
-22
-22
-22
-22
-22
-22
-21
-21
-21
-21
-21
-21
-21
-21
-21
-21
-21
-21
-21
-21
-21
-20
-20
-20
-20
-20
-20
-20
-20
-19
-19
-19
-19
-18
-19
-18
-18
-18
-18
-17
-18
-18
-18
-17
-17
-17
-17
-17
-17
-17
-18
-18
-18
-18
-19
-18
-18
-18
-18
-18
-18
-18
-18
-18
-18
-18
-19
-18
-18
-18
-19
-18
-18
-18
-18
-18
-19
-18
-18
-19
-19
-19
-19
-19
-20
-19
-19
-20
-20
-20
-20
-20
-21
-20
-21
-21
-21
-21
-22
-21
-21
-21
-21
-21
-21
-22
-21
-21
-21
-21
-20
-21
-20
-20
-20
-20
-20
-20
-20
-20
-20
-19
-19
-20
-20
-20
-20
-20
-20
-20
-21
-21
-21
-22
-21
-21
-22
-22
-22
-22
-22
-22
-22
-22
-22
-23
-23
-23
-23
-22
-23
-22
-22
-22
-22
-22
-21
-21
-21
-21
-21
-21
-22
-22
-21
-22
-21
-21
-22
-22
-22
-22
-22
-23
-22
-22
-22
-22
-22
-22
-22
-22
-22
-22
-22
-22
-21
-21
-21
-21
-22
-21
-21
-21
-22
-21
-22
-22
-22
-22
-22
-23
-22
-22
-22
-22
-22
-22
-22
-21
-21
-21
-20
-20
-20
-19
-18
-17
-17
-16
-17
-16
-16
-16
-15
-14
-14
-13
-14
-13
-13
-12
-12
-13
-12
-12
-12
-12
-13
-13
-13
-13
-12
-13
-12
-13
-13
-12
-12
-12
-11
-10
-10
-10
-9
-8
-8
-7
-6
-6
-5
-5
-4
-4
-4
-4
-3
-3
-3
-3
-3
-3
-3
-3
-4
-4
-4
-4
-4
-4
-5
-4
-5
-4
-5
-5
-6
-5
-5
-6
-7
-7
-7
-7
-8
-8
-8
-9
-9
-9
-10
-10
-11
-12
-12
-13
-13
-14
-15
-15
-16
-16
-17
-17
-18
-17
-18
-19
-20
-20
-21
-20
-22
-22
-23
-23
-23
-24
-24
-24
-25
-25
-24
-25
-25
-26
-25
-25
-25
-25
-25
-25
-25
-25
-26
-25
-26
-26
-26
-26
-27
-27
-27
-27
-26
-27
-27
-27
-27
-27
-27
-27
-27
-27
-28
-27
-27
-27
-27
-28
-28
-28
-28
-28
-29
-28
-28
-29
-29
-29
-29
-28
-29
-29
-29
-29
-29
-30
-30
-30
-30
-30
-30
-31
-30
-30
-31
-31
-32
-32
-32
-33
-33
-33
-33
-32
-32
-31
-29
-28
-25
-23
-20
-16
-12
-7
-2
4
10
17
24
32
39
46
53
60
68
75
81
87
92
97
101
104
105
106
107
106
104
102
98
94
89
82
75
68
60
52
44
36
27
19
12
3
-4
-11
-18
-25
-32
-37
-42
-47
-52
-55
-58
-60
-62
-64
-65
-65
-66
-65
-67
-66
-65
-64
-62
-61
-60
-59
-57
-55
-53
-51
-49
-47
-46
-43
-42
-40
-38
-37
-35
-33
-32
-30
-29
-28
-27
-27
-26
-25
-25
-24
-25
-24
-24
-23
-24
-23
-24
-24
-23
-23
-23
-22
-22
-22
-22
-22
-22
-23
-22
-22
-22
-22
-22
-21
-21
-21
-22
-21
-21
-21
-21
-21
-20
-20
-20
-20
-19
-20
-20
-20
-19
-20
-19
-19
-18
-18
-19
-18
-18
-17
-17
-17
-17
-17
-16
-16
-16
-17
-17
-16
-17
-16
-16
-16
-16
-16
-16
-16
-16
-16
-16
-16
-15
-15
-15
-15
-14
-14
-14
-13
-13
-13
-13
-13
-13
-12
-13
-13
-13
-13
-12
-12
-12
-11
-11
-11
-11
-10
-10
-11
-10
-9
-10
-9
-9
-9
-8
-7
-8
-7
-7
-6
-6
-6
-6
-6
-5
-5
-4
-4
-4
-4
-3
-3
-3
-2
-2
-2
-1
0
0
1
1
2
3
4
4
4
5
6
6
6
6
8
8
9
9
10
10
11
12
12
14
14
15
15
17
17
18
19
20
21
22
23
24
25
26
27
29
29
31
31
33
33
34
35
36
38
39
39
40
40
42
43
43
43
44
44
46
47
47
48
49
49
50
51
51
51
52
53
54
54
55
54
55
56
55
56
56
57
57
57
57
57
56
56
57
56
56
56
55
55
55
55
54
54
53
53
52
52
51
51
49
49
49
47
47
46
44
43
42
40
39
38
36
34
33
32
31
29
28
26
25
24
22
21
20
19
18
16
15
14
13
11
11
9
8
7
5
4
4
2
1
0
-1
-2
-3
-4
-5
-6
-7
-8
-9
-9
-10
-11
-12
-13
-14
-15
-15
-15
-16
-16
-17
-18
-18
-19
-19
-20
-20
-20
-21
-21
-21
-22
-22
-21
-22
-21
-22
-22
-22
-22
-22
-22
-22
-22
-22
-22
-23
-23
-23
-24
-24
-24
-24
-24
-24
-24
-25
-24
-25
-25
-25
-25
-25
-26
-26
-25
-26
-26
-25
-25
-26
-26
-26
-26
-26
-26
-26
-26
-26
-26
-26
-26
-27
-27
-26
-27
-27
-27
-26
-27
-26
-27
-27
-27
-26
-26
-26
-27
-26
-26
-26
-26
-26
-26
-26
-27
-27
-27
-27
-28
-28
-28
-28
-28
-28
-28
-28
-28
-28
-28
-28
-28
-28
-28
-28
-28
-28
-28
-28
-28
-27
-27
-27
-28
-27
-27
-27
-27
-27
-26
-26
-26
-26
-26
-26
-26
-26
-26
-25
-25
-25
-25
-26
-25
-25
-25
-25
-25
-25
-25
-25
-25
-25
-24
-24
-24
-24
-24
-24
-24
-24
-23
-24
-23
-23
-23
-22
-22
-22
-22
-22
-21
-21
-22
-21
-21
-22
-22
-21
-21
-21
-21
-22
-23
-22
-23
-22
-22
-22
-22
-21
-21
-21
-22
-22
-21
-21
-21
-20
-20
-20
-20
-20
-19
-19
-18
-19
-19
-18
-18
-18
-19
-19
-19
-19
-19
-19
-20
-20
-21
-20
-21
-21
-21
-21
-21
-21
-21
-21
-21
-21
-21
-21
-21
-21
-21
-21
-21
-20
-20
-20
-21
-20
-21
-21
-21
-20
-21
-21
-21
-21
-21
-21
-21
-21
-21
-22
-21
-22
-22
-22
-22
-22
-22
-22
-22
-22
-22
-22
-22
-21
-22
-22
-21
-22
-22
-21
-21
-22
-22
-22
-22
-23
-22
-22
-22
-22
-22
-22
-22
-23
-23
-23
-23
-22
-23
-23
-23
-23
-23
-23
-23
-23
-23
-23
-23
-22
-22
-22
-22
-22
-22
-21
-22
-22
-22
-22
-22
-22
-21
-21
-21
-20
-19
-19
-19
-19
-18
-18
-18
-17
-17
-16
-15
-15
-15
-15
-14
-13
-14
-13
-14
-14
-14
-12
-13
-13
-12
-12
-12
-12
-12
-12
-13
-12
-12
-13
-12
-12
-11
-11
-11
-11
-10
-10
-9
-9
-9
-8
-9
-8
-8
-7
-7
-7
-7
-7
-7
-7
-7
-8
-7
-7
-7
-8
-7
-8
-8
-8
-8
-8
-8
-8
-8
-8
-8
-8
-8
-9
-9
-9
-9
-10
-10
-9
-10
-10
-10
-10
-11
-11
-12
-13
-13
-14
-14
-15
-14
-15
-16
-16
-17
-18
-18
-19
-19
-19
-20
-21
-21
-22
-22
-23
-22
-23
-24
-24
-24
-25
-24
-26
-26
-26
-26
-26
-26
-25
-26
-26
-26
-26
-26
-26
-26
-26
-26
-26
-27
-27
-27
-28
-28
-29
-28
-29
-29
-28
-28
-29
-29
-29
-29
-29
-28
-28
-28
-29
-28
-28
-28
-28
-28
-28
-28
-28
-28
-28
-28
-28
-28
-28
-28
-29
-29
-29
-30
-30
-31
-31
-32
-33
-33
-33
-34
-35
-35
-35
-36
-36
-36
-37
-37
-37
-38
-37
-37
-35
-34
-33
-31
-28
-26
-22
-19
-14
-9
-4
2
8
14
22
28
36
43
51
58
65
71
78
83
87
91
94
97
98
99
99
98
96
93
89
84
80
73
67
60
53
46
38
30
23
16
10
3
-4
-10
-17
-22
-27
-33
-37
-41
-44
-48
-50
-52
-54
-55
-58
-59
-59
-60
-60
-59
-58
-58
-57
-56
-54
-53
-51
-50
-49
-48
-46
-45
-42
-41
-39
-39
-36
-35
-34
-34
-32
-31
-30
-29
-29
-28
-27
-26
-26
-26
-26
-26
-25
-25
-25
-25
-25
-25
-25
-25
-25
-25
-24
-25
-25
-24
-24
-24
-24
-24
-24
-24
-24
-24
-23
-24
-24
-23
-23
-23
-23
-22
-23
-23
-22
-22
-22
-22
-22
-22
-22
-21
-21
-21
-21
-21
-21
-21
-20
-20
-20
-20
-20
-20
-19
-18
-18
-18
-18
-19
-19
-19
-19
-19
-18
-18
-18
-18
-18
-17
-18
-18
-18
-17
-17
-17
-16
-16
-16
-16
-16
-16
-16
-16
-15
-15
-15
-15
-15
-14
-15
-15
-14
-14
-13
-13
-13
-13
-13
-12
-12
-12
-12
-12
-12
-11
-11
-11
-10
-10
-10
-10
-9
-9
-9
-9
-8
-8
-8
-7
-6
-7
-6
-6
-6
-5
-5
-5
-4
-4
-3
-2
-2
-1
0
0
0
1
1
2
3
3
3
4
5
5
6
6
7
7
8
9
9
10
12
12
13
14
14
15
15
16
18
18
20
20
21
22
23
23
24
25
26
27
29
29
30
31
31
32
34
34
35
36
36
37
38
40
40
41
42
43
44
45
46
46
47
48
49
49
50
50
51
51
51
51
51
51
51
51
51
52
52
52
52
51
51
50
50
50
49
49
48
48
48
47
46
46
45
44
43
43
42
41
40
39
38
38
37
35
34
34
32
31
29
28
27
26
25
23
22
21
20
18
17
16
15
14
13
11
10
9
8
6
6
4
3
2
0
-1
-2
-3
-4
-5
-6
-7
-7
-8
-10
-11
-12
-12
-13
-14
-15
-15
-16
-16
-18
-18
-19
-18
-19
-19
-19
-20
-21
-21
-21
-22
-22
-23
-23
-23
-23
-24
-24
-24
-25
-25
-25
-25
-24
-25
-25
-26
-26
-26
-25
-26
-26
-27
-27
-27
-26
-26
-27
-27
-27
-27
-27
-27
-26
-26
-26
-26
-26
-26
-27
-27
-26
-27
-27
-27
-27
-27
-27
-27
-28
-28
-27
-28
-28
-28
-28
-28
-29
-28
-28
-29
-29
-28
-29
-29
-29
-29
-30
-29
-29
-29
-30
-30
-30
-29
-29
-29
-29
-29
-29
-29
-29
-29
-30
-29
-29
-29
-29
-29
-28
-29
-28
-28
-27
-27
-28
-27
-27
-27
-27
-28
-28
-28
-28
-28
-29
-28
-29
-29
-29
-28
-29
-29
-29
-28
-28
-28
-28
-28
-28
-27
-27
-27
-27
-27
-27
-26
-26
-26
-26
-26
-26
-26
-25
-25
-25
-25
-25
-25
-25
-26
-26
-25
-26
-26
-25
-25
-25
-26
-25
-26
-25
-25
-25
-24
-24
-24
-24
-24
-24
-23
-24
-24
-24
-24
-24
-24
-24
-24
-24
-24
-24
-24
-24
-23
-23
-23
-23
-23
-23
-24
-24
-23
-23
-23
-23
-23
-23
-23
-23
-24
-23
-23
-23
-22
-23
-23
-23
-24
-24
-23
-23
-23
-24
-23
-24
-24
-24
-24
-24
-24
-24
-24
-24
-23
-24
-23
-23
-23
-22
-23
-23
-23
-23
-23
-23
-23
-23
-23
-22
-23
-22
-23
-22
-22
-22
-22
-22
-21
-21
-21
-22
-22
-22
-22
-23
-22
-22
-22
-23
-23
-24
-24
-23
-24
-23
-24
-24
-24
-25
-24
-24
-24
-25
-24
-24
-25
-25
-25
-25
-25
-25
-25
-25
-25
-25
-25
-25
-25
-26
-26
-26
-26
-25
-25
-26
-26
-26
-25
-26
-25
-26
-25
-25
-25
-25
-25
-26
-25
-25
-25
-26
-26
-25
-25
-26
-26
-26
-26
-26
-27
-26
-26
-26
-27
-27
-27
-27
-27
-27
-27
-27
-27
-26
-26
-27
-26
-26
-26
-26
-26
-26
-26
-26
-25
-25
-24
-24
-24
-24
-23
-23
-24
-23
-23
-23
-22
-22
-21
-21
-21
-21
-20
-19
-19
-19
-19
-19
-18
-18
-17
-17
-17
-17
-17
-16
-17
-16
-16
-16
-16
-16
-16
-16
-15
-15
-16
-16
-15
-15
-15
-15
-15
-15
-14
-14
-14
-14
-13
-13
-12
-12
-11
-10
-10
-9
-9
-8
-9
-8
-8
-8
-7
-7
-7
-7
-7
-7
-8
-8
-8
-8
-8
-8
-8
-8
-8
-8
-8
-9
-9
-9
-9
-9
-9
-9
-10
-10
-9
-10
-10
-10
-10
-10
-11
-11
-11
-12
-12
-12
-13
-13
-14
-14
-15
-16
-16
-17
-18
-19
-18
-19
-20
-20
-20
-20
-21
-21
-22
-22
-23
-23
-24
-24
-24
-25
-25
-25
-26
-26
-26
-26
-26
-27
-26
-27
-27
-27
-27
-27
-28
-28
-28
-29
-29
-30
-29
-29
-29
-30
-30
-31
-30
-31
-30
-30
-30
-31
-31
-31
-31
-31
-32
-31
-31
-31
-31
-31
-31
-31
-31
-31
-31
-31
-31
-31
-31
-31
-31
-31
-31
-31
-31
-30
-31
-31
-31
-31
-32
-32
-32
-32
-32
-33
-32
-33
-33
-33
-34
-34
-34
-34
-33
-33
-33
-32
-31
-29
-27
-25
-22
-19
-14
-10
-5
1
7
13
20
27
35
42
50
59
66
74
80
87
93
98
104
106
109
110
112
112
111
109
106
102
97
91
85
79
71
62
54
45
37
29
20
13
5
-3
-10
-17
-23
-29
-36
-41
-46
-49
-52
-56
-58
-60
-62
-64
-64
-65
-65
-66
-65
-64
-63
-62
-60
-58
-57
-55
-54
-52
-50
-48
-47
-44
-42
-40
-39
-37
-35
-34
-32
-31
-29
-29
-28
-27
-27
-26
-25
-26
-25
-25
-25
-25
-25
-25
-24
-25
-24
-25
-25
-25
-24
-24
-24
-25
-25
-25
-24
-24
-24
-24
-24
-23
-24
-23
-23
-24
-23
-23
-23
-23
-22
-22
-22
-22
-21
-21
-21
-21
-21
-20
-20
-20
-20
-20
-20
-20
-20
-19
-19
-19
-19
-18
-18
-19
-19
-18
-18
-19
-18
-18
-18
-19
-18
-18
-18
-19
-18
-18
-18
-17
-17
-17
-17
-17
-17
-17
-17
-17
-16
-17
-17
-17
-16
-16
-16
-16
-15
-16
-15
-16
-15
-15
-15
-15
-13
-13
-13
-13
-13
-13
-13
-12
-12
-12
-11
-12
-11
-11
-10
-10
-9
-9
-9
-9
-8
-8
-8
-8
-8
-7
-7
-6
-6
-6
-6
-5
-5
-5
-4
-4
-3
-3
-2
-1
-1
-1
1
1
1
2
2
3
4
4
4
5
6
6
7
9
9
10
11
12
12
13
14
15
16
17
18
18
20
21
22
23
24
25
26
27
28
29
30
31
31
31
32
34
33
35
35
36
37
37
38
39
39
40
41
42
43
44
45
45
46
47
47
48
48
49
49
50
50
51
51
52
52
52
53
53
54
54
53
53
53
53
53
52
53
52
52
52
52
51
51
50
49
49
49
49
48
47
46
46
44
44
43
42
41
40
39
38
37
35
34
33
31
30
29
27
26
25
23
22
21
19
18
16
15
13
12
11
11
10
9
6
6
4
3
3
1
0
0
-2
-3
-4
-4
-5
-6
-7
-8
-9
-10
-11
-12
-13
-13
-13
-14
-15
-15
-16
-17
-17
-17
-18
-19
-19
-19
-20
-21
-20
-21
-22
-22
-22
-23
-22
-23
-23
-24
-24
-24
-25
-25
-25
-25
-25
-25
-26
-26
-26
-27
-27
-27
-27
-27
-28
-28
-28
-28
-27
-27
-27
-27
-27
-28
-28
-28
-27
-27
-28
-28
-28
-28
-28
-29
-28
-29
-28
-29
-29
-28
-29
-29
-29
-29
-28
-28
-29
-28
-28
-28
-28
-28
-27
-28
-27
-27
-27
-27
-27
-28
-27
-27
-27
-27
-27
-28
-28
-28
-28
-28
-28
-28
-29
-29
-29
-29
-29
-29
-28
-28
-29
-29
-29
-29
-28
-28
-29
-29
-28
-28
-28
-28
-28
-29
-28
-29
-28
-28
-28
-28
-28
-28
-28
-28
-28
-28
-29
-29
-28
-29
-29
-29
-29
-29
-29
-29
-29
-29
-29
-29
-29
-29
-29
-29
-29
-29
-30
-29
-30
-29
-30
-29
-29
-30
-29
-29
-28
-28
-29
-29
-29
-29
-29
-28
-28
-28
-29
-29
-28
-28
-28
-28
-28
-28
-28
-28
-28
-27
-27
-27
-26
-26
-26
-26
-26
-26
-26
-25
-26
-25
-25
-24
-24
-25
-24
-24
-23
-23
-23
-23
-23
-23
-23
-23
-24
-23
-23
-24
-23
-24
-24
-24
-24
-24
-25
-25
-24
-24
-24
-24
-24
-25
-25
-25
-24
-24
-25
-25
-24
-25
-25
-25
-25
-25
-25
-25
-24
-25
-24
-24
-24
-25
-25
-24
-24
-24
-24
-25
-25
-25
-25
-25
-25
-26
-25
-25
-25
-25
-25
-25
-25
-25
-25
-25
-25
-25
-25
-25
-25
-26
-26
-26
-26
-26
-25
-26
-26
-26
-26
-26
-25
-26
-26
-26
-27
-27
-27
-27
-27
-26
-26
-27
-27
-26
-26
-27
-27
-26
-26
-27
-27
-27
-27
-27
-27
-27
-27
-27
-28
-27
-28
-28
-28
-28
-27
-27
-27
-27
-27
-27
-26
-26
-26
-27
-27
-27
-26
-26
-27
-27
-27
-27
-28
-27
-28
-27
-27
-27
-28
-28
-27
-27
-27
-27
-27
-27
-27
-27
-27
-26
-26
-26
-27
-27
-27
-27
-27
-27
-27
-27
-27
-27
-27
-28
-27
-27
-27
-27
-28
-27
-27
-27
-27
-27
-27
-27
-27
-27
-26
-26
-26
-25
-25
-25
-25
-25
-25
-24
-25
-25
-25
-25
-25
-25
-25
-25
-24
-24
-25
-24
-24
-24
-24
-25
-25
-25
-25
-25
-25
-25
-25
-26
-26
-25
-26
-25
-25
-26
-26
-26
-25
-25
-25
-25
-24
-25
-25
-25
-25
-25
-24
-24
-24
-23
-23
-22
-22
-21
-21
-21
-20
-20
-20
-19
-18
-18
-17
-17
-16
-16
-16
-16
-15
-15
-15
-15
-14
-14
-14
-13
-13
-13
-13
-13
-13
-13
-13
-12
-12
-12
-12
-12
-11
-11
-11
-10
-9
-9
-9
-8
-8
-7
-7
-6
-6
-7
-6
-5
-5
-5
-5
-5
-5
-4
-5
-5
-5
-5
-5
-5
-4
-5
-5
-5
-5
-5
-5
-5
-5
-5
-5
-6
-6
-6
-6
-6
-6
-6
-7
-8
-8
-9
-8
-9
-9
-10
-11
-12
-13
-13
-13
-14
-15
-15
-16
-16
-17
-17
-17
-18
-19
-19
-20
-20
-21
-21
-21
-22
-23
-23
-23
-24
-24
-24
-25
-25
-25
-26
-25
-25
-26
-26
-26
-26
-27
-27
-27
-27
-28
-28
-28
-28
-29
-28
-29
-29
-29
-29
-29
-29
-29
-30
-30
-30
-30
-30
-31
-31
-31
-31
-31
-31
-32
-32
-31
-32
-32
-31
-31
-31
-31
-31
-31
-31
-31
-31
-31
-31
-31
-31
-31
-31
-31
-31
-31
-31
-31
-31
-31
-32
-32
-33
-33
-34
-33
-34
-34
-35
-34
-35
-35
-35
-34
-34
-33
-31
-30
-27
-25
-22
-18
-15
-10
-5
1
7
13
20
27
35
43
50
59
67
76
83
90
95
102
106
110
114
115
116
116
115
114
112
108
103
97
91
84
75
67
58
49
41
31
23
14
6
-3
-11
-18
-26
-33
-39
-46
-51
-56
-61
-64
-67
-69
-71
-73
-73
-74
-74
-74
-73
-73
-73
-71
-69
-67
-65
-63
-62
-60
-58
-56
-53
-51
-49
-47
-44
-43
-41
-39
-38
-36
-35
-34
-33
-31
-31
-30
-30
-29
-29
-28
-28
-27
-28
-27
-28
-27
-27
-27
-27
-27
-27
-27
-27
-27
-26
-26
-26
-26
-26
-26
-25
-26
-26
-26
-25
-25
-25
-25
-24
-24
-24
-25
-24
-24
-24
-24
-24
-24
-24
-24
-23
-22
-23
-22
-21
-21
-21
-21
-21
-20
-20
-20
-20
-20
-20
-19
-20
-19
-19
-20
-19
-20
-19
-19
-19
-19
-19
-19
-19
-19
-18
-19
-19
-18
-18
-18
-18
-18
-18
-18
-18
-17
-17
-16
-16
-15
-15
-15
-15
-15
-15
-15
-15
-14
-14
-14
-14
-14
-13
-13
-12
-13
-12
-12
-11
-11
-11
-11
-11
-11
-9
-10
-9
-9
-9
-9
-9
-8
-8
-7
-8
-7
-6
-6
-6
-5
-5
-5
-4
-3
-3
-3
-2
-1
-1
0
0
0
1
2
3
3
4
4
6
6
7
8
8
10
10
11
11
12
13
14
14
15
16
16
17
18
19
20
21
22
23
23
24
26
27
28
29
30
31
32
32
33
34
35
36
37
38
38
39
40
41
42
43
44
44
45
47
47
48
49
50
51
51
51
53
53
53
54
54
54
54
55
54
55
55
55
55
55
54
55
54
54
54
53
53
53
53
53
53
53
52
52
51
51
50
50
49
48
47
46
46
44
43
42
42
40
39
37
36
35
34
32
31
30
28
27
26
24
23
22
20
19
18
17
15
14
13
12
12
10
9
8
7
6
4
3
2
1
0
-1
-3
-4
-5
-6
-7
-8
-9
-10
-11
-11
-12
-13
-14
-15
-16
-17
-18
-18
-19
-19
-19
-20
-21
-21
-21
-22
-22
-23
-22
-23
-23
-23
-23
-23
-24
-24
-24
-24
-24
-25
-25
-25
-25
-26
-26
-26
-26
-26
-27
-26
-27
-27
-27
-27
-27
-28
-28
-29
-28
-28
-29
-29
-29
-29
-29
-29
-29
-29
-29
-29
-29
-29
-29
-29
-29
-29
-29
-29
-30
-30
-29
-29
-29
-29
-29
-29
-29
-29
-30
-29
-29
-29
-29
-29
-29
-30
-30
-30
-30
-30
-30
-30
-30
-30
-29
-30
-30
-30
-29
-29
-29
-29
-29
-29
-29
-29
-29
-30
-30
-30
-30
-30
-30
-30
-30
-30
-30
-30
-30
-30
-30
-30
-30
-30
-30
-30
-30
-29
-29
-28
-28
-28
-28
-28
-28
-27
-27
-27
-27
-27
-27
-27
-27
-26
-26
-26
-26
-26
-26
-26
-26
-27
-27
-26
-26
-26
-26
-26
-25
-26
-26
-26
-25
-25
-25
-25
-25
-25
-24
-25
-24
-24
-24
-24
-24
-24
-24
-24
-23
-23
-23
-23
-23
-23
-23
-23
-23
-23
-22
-22
-23
-23
-22
-22
-23
-22
-22
-22
-21
-21
-21
-21
-21
-20
-21
-21
-21
-21
-20
-21
-21
-20
-20
-20
-21
-22
-21
-21
-21
-21
-21
-22
-22
-22
-22
-22
-22
-23
-23
-23
-23
-23
-24
-24
-24
-24
-24
-23
-23
-24
-23
-23
-23
-23
-23
-23
-23
-23
-23
-23
-24
-23
-24
-24
-23
-23
-23
-23
-24
-24
-23
-23
-24
-24
-24
-24
-24
-24
-24
-24
-25
-25
-25
-25
-25
-25
-24
-25
-24
-24
-25
-25
-25
-25
-25
-24
-24
-25
-25
-25
-25
-25
-25
-25
-25
-25
-25
-25
-25
-25
-25
-25
-25
-25
-25
-25
-25
-25
-25
-25
-24
-25
-25
-24
-25
-24
-24
-23
-24
-24
-23
-23
-23
-23
-24
-23
-23
-23
-24
-24
-24
-24
-25
-25
-24
-25
-24
-24
-25
-25
-25
-25
-25
-24
-24
-25
-25
-24
-25
-25
-24
-25
-25
-26
-26
-26
-26
-26
-26
-26
-26
-26
-26
-26
-26
-26
-26
-27
-26
-27
-26
-26
-26
-27
-26
-27
-26
-26
-26
-26
-26
-26
-26
-26
-26
-26
-26
-26
-27
-27
-26
-26
-27
-26
-27
-26
-27
-27
-26
-26
-26
-27
-27
-27
-27
-26
-26
-26
-27
-27
-27
-27
-27
-27
-27
-27
-27
-27
-27
-27
-28
-28
-28
-28
-28
-28
-28
-28
-27
-27
-28
-27
-27
-26
-27
-26
-26
-25
-25
-24
-23
-23
-23
-22
-22
-21
-21
-21
-20
-20
-20
-19
-18
-18
-18
-18
-17
-17
-16
-16
-16
-16
-15
-16
-15
-15
-15
-15
-14
-15
-15
-15
-14
-15
-14
-14
-14
-13
-13
-13
-12
-12
-12
-11
-10
-10
-9
-9
-8
-8
-8
-7
-7
-7
-6
-7
-6
-6
-6
-6
-6
-7
-6
-7
-7
-7
-7
-8
-8
-8
-8
-8
-8
-9
-9
-9
-9
-9
-9
-9
-9
-8
-9
-9
-10
-10
-9
-10
-10
-11
-11
-12
-13
-12
-14
-14
-14
-15
-15
-16
-16
-16
-17
-18
-19
-19
-19
-21
-21
-21
-21
-22
-22
-24
-24
-24
-25
-25
-25
-26
-26
-27
-27
-27
-27
-28
-28
-28
-29
-29
-29
-29
-29
-30
-29
-30
-30
-30
-30
-29
-30
-30
-30
-30
-31
-30
-30
-31
-31
-31
-30
-31
-31
-31
-31
-31
-31
-31
-31
-30
-30
-30
-31
-30
-30
-31
-31
-30
-31
-31
-31
-31
-31
-31
-32
-31
-31
-31
-31
-31
-31
-32
-32
-32
-33
-33
-33
-33
-34
-34
-34
-34
-34
-35
-34
-34
-33
-33
-32
-30
-28
-26
-23
-20
-17
-13
-8
-3
1
7
15
21
28
36
44
51
59
67
75
82
88
94
100
103
109
111
112
114
113
112
110
107
103
99
92
87
78
71
63
54
45
37
28
18
10
1
-8
-16
-24
-31
-38
-44
-50
-56
-60
-65
-68
-71
-72
-74
-76
-77
-78
-77
-77
-77
-75
-75
-75
-72
-70
-69
-67
-65
-63
-60
-58
-55
-53
-50
-48
-46
-44
-42
-40
-38
-37
-35
-34
-33
-32
-32
-31
-31
-29
-29
-29
-29
-28
-28
-28
-28
-28
-28
-28
-28
-28
-28
-28
-28
-28
-29
-29
-28
-28
-28
-28
-27
-27
-26
-26
-26
-27
-27
-26
-26
-26
-26
-25
-25
-26
-25
-25
-25
-26
-25
-25
-25
-25
-24
-24
-24
-23
-23
-23
-24
-23
-23
-23
-22
-22
-23
-22
-22
-22
-22
-22
-22
-22
-22
-21
-21
-21
-21
-21
-21
-21
-20
-20
-20
-20
-20
-20
-19
-19
-19
-18
-17
-17
-16
-16
-16
-16
-15
-15
-14
-14
-15
-15
-15
-14
-14
-14
-14
-14
-14
-13
-13
-12
-12
-12
-11
-11
-11
-11
-11
-11
-10
-11
-11
-10
-9
-9
-9
-9
-9
-8
-8
-8
-7
-7
-6
-5
-5
-5
-5
-3
-3
-2
-2
-1
0
0
0
1
2
2
3
4
4
5
5
6
7
7
7
9
9
10
10
10
12
12
13
14
14
15
16
18
18
20
21
21
22
24
25
26
27
28
29
29
31
32
33
34
34
35
35
36
37
38
38
39
40
41
41
42
43
44
45
45
46
47
47
48
48
49
49
49
50
50
51
51
52
52
51
52
51
52
52
52
52
52
52
52
52
52
52
52
52
51
52
51
51
50
50
49
48
48
47
47
46
45
43
43
42
41
39
38
37
35
34
33
31
30
29
27
25
23
22
21
19
18
17
15
13
13
11
9
9
8
7
6
5
4
2
1
-1
-2
-3
-4
-5
-7
-8
-9
-9
-11
-12
-13
-13
-14
-15
-16
-16
-17
-18
-19
-19
-20
-20
-21
-22
-22
-22
-23
-23
-23
-24
-24
-24
-25
-26
-25
-26
-26
-27
-27
-28
-28
-28
-29
-30
-30
-30
-30
-31
-30
-30
-30
-31
-30
-30
-31
-31
-31
-31
-31
-31
-32
-32
-31
-32
-32
-32
-32
-32
-32
-32
-32
-33
-33
-33
-33
-33
-33
-33
-33
-33
-33
-33
-33
-32
-33
-33
-33
-33
-33
-33
-33
-34
-33
-33
-33
-33
-33
-33
-33
-33
-33
-33
-33
-33
-33
-33
-33
-33
-33
-32
-33
-33
-33
-32
-33
-33
-33
-33
-34
-34
-33
-34
-34
-33
-34
-34
-33
-34
-34
-34
-34
-33
-34
-34
-34
-34
-33
-33
-33
-33
-33
-33
-32
-33
-33
-33
-33
-32
-32
-32
-32
-31
-32
-32
-31
-31
-31
-31
-31
-31
-31
-31
-31
-30
-30
-31
-30
-30
-30
-30
-29
-29
-30
-29
-29
-29
-29
-30
-30
-30
-29
-29
-30
-30
-30
-30
-29
-30
-29
-29
-29
-29
-29
-28
-28
-27
-27
-27
-27
-27
-27
-27
-27
-27
-27
-27
-27
-26
-27
-27
-26
-26
-27
-26
-26
-26
-27
-26
-26
-26
-26
-26
-26
-26
-26
-26
-27
-26
-26
-26
-26
-26
-26
-26
-26
-26
-27
-27
-27
-26
-26
-26
-26
-27
-27
-26
-26
-27
-26
-26
-26
-27
-27
-26
-27
-27
-27
-27
-28
-28
-27
-29
-28
-28
-29
-29
-29
-29
-29
-29
-29
-30
-29
-29
-29
-30
-30
-30
-30
-30
-30
-30
-30
-30
-30
-30
-30
-31
-30
-30
-30
-31
-31
-30
-30
-31
-31
-31
-31
-31
-31
-32
-31
-31
-31
-31
-31
-31
-31
-31
-30
-30
-31
-31
-31
-31
-31
-31
-31
-31
-31
-31
-31
-31
-31
-31
-31
-32
-31
-32
-31
-31
-31
-31
-31
-31
-31
-31
-32
-32
-32
-32
-31
-32
-32
-32
-32
-32
-32
-31
-32
-32
-31
-31
-31
-31
-31
-31
-31
-31
-31
-31
-31
-31
-31
-31
-31
-31
-31
-31
-31
-32
-31
-31
-31
-32
-32
-32
-32
-32
-31
-31
-31
-31
-31
-31
-31
-31
-31
-30
-30
-29
-29
-28
-28
-28
-27
-26
-26
-26
-26
-25
-24
-25
-24
-24
-23
-23
-23
-23
-23
-22
-23
-23
-23
-22
-22
-23
-23
-22
-22
-22
-22
-22
-22
-21
-20
-19
-19
-18
-18
-18
-17
-18
-17
-16
-17
-16
-15
-16
-15
-15
-15
-15
-14
-14
-14
-15
-14
-14
-14
-14
-14
-14
-14
-14
-14
-14
-14
-15
-15
-16
-17
-17
-17
-16
-17
-18
-17
-18
-18
-18
-18
-19
-19
-20
-20
-20
-21
-21
-22
-21
-22
-23
-23
-24
-24
-25
-25
-26
-26
-26
-27
-27
-28
-28
-29
-29
-30
-30
-30
-31
-31
-32
-32
-33
-33
-33
-34
-34
-34
-34
-34
-35
-34
-35
-35
-35
-34
-35
-35
-35
-35
-35
-36
-36
-36
-35
-36
-35
-36
-36
-36
-36
-36
-36
-36
-36
-37
-37
-38
-38
-38
-38
-39
-39
-39
-38
-38
-38
-38
-38
-38
-38
-37
-37
-37
-37
-38
-38
-38
-38
-38
-38
-38
-39
-38
-39
-39
-39
-40
-40
-40
-40
-41
-41
-42
-42
-42
-43
-43
-44
-43
-43
-43
-42
-40
-40
-38
-36
-33
-30
-26
-22
-17
-12
-7
0
6
13
20
27
35
42
49
56
64
71
76
81
86
88
92
93
94
94
93
91
89
85
80
75
69
62
55
48
39
32
24
16
8
1
-7
-14
-21
-28
-34
-40
-46
-51
-56
-59
-63
-65
-68
-70
-72
-72
-73
-73
-73
-72
-73
-72
-72
-70
-69
-67
-66
-64
-63
-61
-59
-58
-56
-54
-53
-50
-49
-47
-45
-44
-42
-40
-39
-38
-37
-36
-36
-35
-35
-34
-34
-34
-34
-34
-34
-34
-34
-34
-34
-34
-34
-35
-34
-34
-34
-34
-35
-35
-35
-34
-34
-34
-33
-33
-33
-33
-33
-33
-33
-32
-32
-32
-31
-31
-31
-31
-31
-30
-30
-30
-30
-30
-30
-30
-30
-29
-30
-29
-29
-28
-29
-29
-28
-28
-29
-29
-29
-29
-29
-29
-29
-28
-28
-27
-28
-27
-27
-27
-27
-27
-26
-26
-26
-26
-25
-25
-25
-25
-25
-25
-25
-25
-25
-25
-24
-24
-24
-24
-24
-23
-23
-23
-23
-23
-23
-22
-22
-22
-22
-22
-23
-22
-22
-22
-21
-21
-20
-20
-20
-19
-19
-19
-18
-17
-17
-16
-16
-16
-16
-15
-15
-14
-14
-13
-14
-13
-13
-12
-12
-12
-12
-10
-10
-10
-10
-10
-10
-9
-9
-8
-8
-7
-6
-6
-5
-5
-4
-4
-2
-2
-1
0
1
1
2
3
4
4
5
6
7
8
10
10
11
13
13
14
15
17
17
18
19
21
22
23
23
24
26
26
27
28
28
28
29
29
31
31
32
33
34
34
35
36
37
37
38
39
39
39
40
40
41
41
42
42
42
43
43
43
43
44
44
44
45
44
44
44
44
44
43
43
43
43
43
43
42
42
41
41
40
40
38
38
37
36
35
34
33
31
30
29
28
26
25
23
22
21
20
19
17
16
15
14
12
10
9
8
7
6
5
4
3
2
0
0
-2
-2
-3
-5
-6
-6
-7
-9
-10
-11
-12
-13
-14
-15
-15
-16
-17
-18
-19
-19
-21
-21
-21
-23
-23
-24
-24
-25
-25
-26
-26
-27
-27
-28
-29
-28
-29
-29
-30
-29
-30
-30
-30
-30
-30
-29
-30
-30
-30
-30
-30
-30
-31
-31
-31
-31
-31
-31
-32
-32
-32
-32
-32
-33
-33
-32
-33
-33
-33
-33
-33
-34
-33
-34
-34
-34
-35
-35
-35
-34
-35
-34
-35
-35
-35
-35
-35
-35
-35
-36
-35
-36
-35
-36
-36
-36
-36
-36
-36
-36
-36
-35
-35
-35
-35
-35
-35
-35
-35
-35
-35
-35
-35
-35
-36
-35
-36
-36
-36
-36
-36
-36
-36
-35
-36
-36
-36
-35
-36
-36
-36
-36
-37
-36
-36
-37
-37
-36
-36
-36
-36
-36
-36
-36
-35
-35
-35
-34
-34
-34
-34
-34
-33
-33
-33
-33
-33
-33
-33
-33
-33
-32
-32
-32
-32
-32
-32
-32
-32
-32
-32
-32
-32
-33
-32
-32
-32
-32
-32
-33
-32
-33
-33
-32
-33
-32
-32
-32
-32
-32
-32
-32
-31
-31
-31
-30
-30
-30
-30
-30
-30
-29
-29
-29
-29
-29
-29
-28
-28
-28
-28
-28
-28
-28
-28
-28
-28
-28
-27
-28
-27
-28
-27
-28
-28
-28
-28
-28
-28
-28
-28
-28
-28
-28
-28
-28
-27
-28
-28
-28
-28
-27
-27
-27
-27
-27
-27
-27
-27
-28
-27
-28
-28
-28
-28
-28
-27
-27
-28
-28
-28
-28
-28
-28
-27
-27
-27
-28
-28
-28
-28
-28
-29
-28
-28
-29
-29
-29
-28
-29
-29
-29
-29
-29
-29
-29
-29
-29
-29
-29
-29
-30
-30
-29
-30
-30
-30
-30
-30
-30
-30
-30
-30
-30
-30
-30
-30
-30
-30
-30
-30
-30
-30
-30
-30
-31
-31
-31
-31
-31
-31
-32
-32
-31
-31
-31
-32
-32
-32
-32
-32
-32
-32
-32
-32
-32
-32
-31
-31
-32
-31
-31
-31
-31
-30
-30
-30
-30
-30
-30
-29
-29
-30
-30
-30
-29
-29
-29
-30
-29
-30
-29
-29
-29
-30
-29
-29
-29
-29
-29
-30
-30
-30
-30
-31
-30
-31
-31
-31
-30
-31
-31
-31
-30
-31
-31
-31
-30
-29
-29
-29
-29
-29
-29
-28
-28
-27
-28
-27
-27
-26
-26
-25
-24
-24
-24
-23
-23
-23
-22
-22
-22
-22
-22
-22
-22
-22
-22
-22
-22
-22
-21
-21
-21
-21
-21
-21
-20
-21
-21
-20
-20
-20
-20
-19
-19
-19
-18
-18
-18
-16
-16
-16
-15
-15
-14
-14
-13
-13
-13
-13
-13
-13
-12
-12
-13
-13
-13
-13
-13
-13
-14
-13
-13
-15
-15
-15
-15
-15
-15
-15
-15
-15
-15
-16
-15
-16
-17
-16
-17
-17
-18
-17
-19
-19
-19
-19
-20
-21
-21
-22
-22
-23
-23
-24
-23
-24
-24
-25
-26
-25
-26
-27
-26
-27
-28
-28
-29
-29
-29
-30
-31
-31
-31
-32
-32
-33
-33
-33
-33
-34
-34
-34
-34
-35
-34
-34
-35
-35
-35
-35
-35
-36
-36
-36
-36
-36
-36
-36
-37
-36
-37
-36
-36
-36
-36
-36
-36
-36
-36
-37
-37
-36
-36
-36
-37
-37
-37
-37
-37
-37
-37
-37
-37
-36
-37
-37
-37
-37
-37
-38
-37
-38
-38
-38
-38
-39
-39
-39
-40
-41
-41
-41
-41
-42
-42
-42
-43
-42
-43
-42
-42
-41
-40
-38
-36
-34
-31
-29
-25
-20
-17
-11
-6
0
7
14
21
27
35
43
50
57
64
71
76
81
84
88
91
92
92
92
92
90
87
84
79
74
68
61
54
46
38
30
22
14
8
0
-8
-14
-21
-27
-33
-39
-45
-49
-53
-57
-59
-62
-64
-66
-68
-69
-69
-70
-71
-71
-70
-69
-68
-67
-65
-63
-62
-61
-59
-57
-56
-55
-52
-51
-49
-48
-46
-45
-44
-42
-41
-40
-39
-39
-38
-37
-36
-36
-36
-35
-34
-35
-35
-34
-34
-34
-34
-34
-33
-33
-33
-33
-33
-33
-33
-32
-32
-32
-32
-32
-32
-31
-32
-32
-31
-32
-31
-31
-31
-31
-31
-31
-31
-30
-31
-31
-31
-30
-30
-30
-30
-30
-30
-29
-29
-29
-29
-29
-29
-28
-28
-28
-28
-28
-28
-27
-27
-27
-26
-27
-27
-27
-26
-27
-26
-26
-26
-26
-25
-25
-25
-24
-25
-25
-24
-24
-24
-24
-24
-24
-24
-23
-23
-23
-23
-23
-24
-24
-24
-23
-23
-23
-23
-23
-22
-23
-22
-22
-21
-21
-21
-21
-21
-20
-20
-20
-20
-19
-18
-18
-18
-18
-17
-17
-17
-16
-16
-16
-15
-14
-14
-14
-14
-14
-13
-13
-13
-13
-13
-13
-12
-12
-11
-12
-11
-11
-10
-10
-9
-8
-7
-7
-6
-6
-5
-4
-4
-3
-2
-2
0
0
1
2
3
4
5
6
6
7
8
8
9
10
11
11
13
13
14
15
15
16
16
18
19
19
21
21
22
23
24
24
24
24
26
26
28
29
29
29
31
31
32
33
34
35
35
36
37
37
38
38
39
39
40
40
41
41
41
41
41
41
41
42
42
42
42
42
43
42
42
42
42
41
41
40
39
39
39
38
38
37
36
36
35
35
34
32
32
31
30
29
28
26
26
25
24
23
21
20
18
17
16
15
13
13
11
10
8
7
6
5
4
3
0
0
-1
-3
-4
-5
-6
-7
-9
-10
-10
-12
-12
-13
-14
-15
-15
-16
-17
-18
-19
-20
-20
-21
-22
-23
-23
-24
-24
-24
-25
-26
-26
-26
-27
-27
-28
-28
-29
-29
-29
-30
-30
-31
-31
-32
-32
-31
-32
-32
-33
-33
-33
-33
-33
-33
-33
-34
-34
-34
-34
-35
-34
-35
-35
-35
-35
-35
-35
-35
-35
-35
-34
-35
-35
-35
-35
-35
-35
-35
-35
-35
-35
-35
-35
-35
-36
-35
-36
-36
-36
-35
-36
-36
-36
-36
-36
-36
-36
-36
-37
-37
-36
-36
-36
-36
-37
-36
-36
-36
-36
-36
-36
-35
-36
-37
-37
-37
-37
-37
-37
-37
-37
-38
-38
-38
-38
-38
-38
-38
-38
-38
-38
-38
-38
-38
-38
-37
-37
-37
-38
-37
-37
-37
-37
-37
-36
-37
-36
-36
-36
-36
-36
-36
-35
-35
-35
-35
-35
-35
-36
-36
-36
-36
-36
-36
-36
-36
-36
-36
-36
-36
-36
-35
-35
-35
-35
-35
-35
-35
-36
-36
-35
-35
-35
-35
-35
-34
-35
-35
-34
-34
-34
-34
-34
-34
-34
-34
-34
-34
-33
-33
-33
-33
-33
-33
-32
-32
-32
-31
-32
-32
-31
-31
-31
-32
-31
-31
-31
-31
-31
-31
-32
-32
-31
-32
-32
-32
-32
-32
-32
-32
-32
-32
-32
-32
-32
-32
-32
-32
-33
-32
-32
-32
-32
-32
-32
-31
-31
-31
-31
-31
-31
-31
-31
-31
-30
-29
-29
-30
-30
-30
-30
-30
-30
-30
-30
-30
-30
-30
-31
-30
-31
-31
-32
-31
-31
-31
-32
-32
-33
-33
-32
-33
-33
-33
-33
-33
-33
-33
-32
-33
-32
-32
-32
-32
-32
-31
-32
-31
-31
-31
-31
-32
-32
-31
-31
-32
-32
-32
-32
-32
-32
-33
-33
-33
-33
-34
-34
-34
-34
-34
-34
-34
-34
-34
-34
-33
-33
-33
-33
-32
-32
-32
-31
-31
-31
-31
-32
-32
-32
-32
-32
-32
-32
-33
-33
-32
-33
-32
-33
-32
-32
-32
-33
-33
-33
-33
-33
-33
-32
-32
-33
-33
-33
-33
-33
-34
-33
-33
-33
-33
-33
-33
-33
-32
-32
-33
-33
-33
-32
-32
-33
-33
-33
-33
-33
-34
-33
-33
-33
-34
-33
-33
-33
-34
-34
-34
-34
-34
-33
-33
-34
-34
-34
-34
-34
-34
-33
-33
-33
-33
-33
-33
-33
-33
-33
-32
-33
-33
-33
-33
-33
-33
-34
-34
-34
-33
-34
-33
-33
-33
-33
-33
-32
-32
-32
-33
-33
-33
-33
-33
-33
-33
-33
-33
-33
-33
-33
-33
-32
-33
-33
-33
-32
-32
-33
-32
-32
-33
-33
-33
-33
-32
-32
-33
-33
-33
-33
-33
-33
-32
-33
-33
-33
-32
-32
-33
-33
-33
-33
-33
-33
-33
-33
-33
-33
-33
-33
-33
-32
-33
-33
-33
-32
-32
-32
-32
-32
-32
-33
-33
-33
-34
-33
-33
-33
-34
-33
-33
-33
-33
-33
-33
-33
-33
-32
-32
-32
-32
-33
-33
-33
-32
-32
-32
-33
-33
-33
-33
-32
-33
-32
-32
-32
-31
-31
-31
-32
-31
-31
-31
-31
-30
-29
-30
-29
-28
-27
-26
-26
-25
-25
-24
-24
-24
-23
-23
-23
-23
-22
-22
-22
-21
-21
-21
-21
-21
-21
-21
-21
-21
-21
-20
-20
-20
-20
-20
-20
-21
-20
-20
-20
-20
-19
-19
-18
-18
-18
-17
-17
-16
-15
-15
-14
-13
-13
-12
-12
-13
-12
-12
-12
-12
-11
-11
-12
-12
-13
-12
-13
-13
-12
-12
-13
-13
-13
-14
-14
-14
-14
-14
-14
-15
-15
-16
-16
-16
-17
-16
-17
-17
-17
-17
-19
-18
-19
-20
-20
-21
-21
-22
-22
-22
-23
-24
-24
-24
-25
-25
-26
-26
-27
-27
-28
-28
-28
-29
-29
-30
-30
-30
-31
-31
-31
-32
-32
-33
-32
-32
-32
-33
-32
-33
-33
-33
-34
-33
-33
-34
-34
-34
-34
-34
-35
-35
-35
-35
-36
-36
-36
-35
-36
-36
-36
-36
-36
-36
-36
-36
-37
-36
-36
-36
-36
-37
-37
-36
-36
-36
-36
-36
-36
-36
-35
-35
-35
-36
-36
-37
-37
-37
-38
-38
-38
-38
-39
-40
-40
-40
-40
-41
-41
-41
-42
-41
-41
-41
-41
-40
-39
-38
-37
-34
-32
-30
-26
-22
-19
-14
-8
-1
5
11
18
26
33
42
49
56
65
72
79
86
91
97
100
105
107
109
110
109
108
106
103
99
94
88
82
74
66
58
48
40
31
22
15
5
-2
-10
-18
-25
-32
-39
-45
-50
-56
-61
-63
-67
-69
-71
-74
-74
-75
-76
-76
-75
-75
-75
-73
-72
-70
-69
-67
-65
-63
-61
-58
-56
-55
-53
-50
-48
-47
-45
-43
-41
-40
-38
-36
-35
-35
-34
-33
-32
-32
-31
-31
-31
-30
-30
-30
-30
-30
-30
-30
-30
-30
-30
-30
-30
-30
-30
-31
-30
-30
-30
-30
-30
-30
-30
-29
-30
-30
-29
-29
-28
-28
-28
-28
-27
-27
-27
-26
-26
-25
-25
-25
-26
-25
-25
-25
-25
-26
-26
-26
-26
-25
-26
-26
-25
-25
-25
-25
-25
-25
-25
-24
-24
-24
-24
-25
-24
-24
-24
-24
-23
-24
-23
-23
-22
-23
-23
-23
-22
-23
-23
-22
-22
-23
-22
-23
-22
-23
-22
-22
-22
-22
-21
-21
-21
-21
-21
-21
-21
-20
-20
-20
-20
-19
-19
-19
-17
-17
-17
-16
-17
-16
-16
-15
-15
-15
-14
-13
-13
-13
-13
-13
-12
-12
-12
-11
-11
-11
-11
-11
-11
-11
-10
-10
-9
-9
-8
-8
-8
-7
-6
-6
-5
-5
-4
-4
-2
-2
-1
-1
0
0
1
2
3
4
4
6
6
7
8
8
9
10
11
12
12
13
14
15
16
17
17
19
19
21
21
23
23
24
24
26
26
27
28
29
30
31
32
32
32
32
34
34
35
36
37
38
39
39
40
40
40
41
41
42
43
43
43
44
44
45
44
45
45
45
45
46
45
45
45
45
44
44
44
44
43
43
42
42
41
41
40
40
40
40
38
38
37
36
35
35
33
33
31
30
29
28
27
26
25
24
22
21
20
19
18
17
16
15
14
12
10
9
8
8
7
5
4
3
1
0
-2
-3
-4
-5
-6
-7
-8
-9
-11
-11
-12
-13
-14
-16
-16
-17
-18
-18
-20
-20
-20
-21
-21
-21
-22
-23
-23
-24
-24
-24
-25
-26
-26
-27
-28
-27
-28
-29
-30
-29
-29
-30
-30
-31
-30
-30
-31
-31
-31
-32
-32
-31
-32
-32
-32
-33
-33
-33
-32
-33
-33
-33
-33
-33
-33
-34
-34
-34
-34
-34
-34
-34
-34
-34
-34
-34
-34
-34
-35
-34
-34
-34
-34
-34
-34
-34
-33
-33
-33
-34
-34
-33
-34
-34
-34
-34
-34
-34
-34
-35
-34
-34
-34
-34
-34
-34
-34
-34
-35
-35
-35
-35
-35
-35
-36
-36
-36
-37
-36
-37
-36
-37
-36
-36
-37
-37
-37
-37
-37
-37
-37
-36
-37
-37
-36
-36
-37
-37
-36
-36
-36
-36
-35
-35
-35
-35
-35
-35
-35
-34
-34
-33
-33
-33
-34
-33
-33
-33
-32
-33
-33
-33
-32
-33
-32
-32
-33
-33
-33
-32
-32
-33
-33
-33
-33
-32
-33
-33
-33
-33
-33
-32
-33
-32
-32
-32
-32
-31
-31
-32
-32
-31
-31
-31
-31
-31
-31
-31
-30
-30
-30
-30
-29
-30
-30
-30
-30
-30
-29
-29
-30
-30
-30
-30
-30
-30
-30
-30
-31
-30
-31
-30
-31
-30
-30
-31
-31
-31
-31
-31
-31
-30
-30
-30
-30
-29
-29
-30
-29
-28
-29
-29
-28
-28
-27
-27
-27
-27
-28
-27
-27
-27
-27
-27
-28
-28
-28
-28
-28
-28
-28
-29
-29
-29
-29
-29
-29
-30
-30
-30
-31
-31
-31
-31
-31
-32
-32
-31
-31
-31
-31
-31
-31
-32
-32
-31
-31
-31
-31
-31
-31
-31
-31
-31
-32
-31
-31
-31
-32
-31
-32
-32
-31
-31
-32
-32
-32
-31
-31
-31
-31
-31
-31
-31
-31
-31
-31
-31
-31
-30
-31
-31
-30
-31
-30
-30
-31
-31
-31
-30
-31
-31
-31
-31
-31
-32
-31
-32
-31
-31
-31
-31
-31
-31
-30
-30
-30
-30
-30
-31
-31
-30
-30
-30
-30
-30
-30
-30
-30
-30
-30
-30
-30
-30
-30
-30
-30
-30
-30
-30
-30
-31
-31
-31
-30
-31
-31
-31
-32
-31
-32
-32
-31
-32
-32
-32
-31
-31
-31
-32
-32
-32
-32
-32
-31
-31
-31
-31
-32
-31
-32
-32
-31
-32
-32
-32
-32
-32
-32
-32
-32
-33
-32
-32
-33
-33
-33
-33
-32
-32
-33
-32
-32
-32
-32
-32
-33
-33
-33
-32
-33
-32
-32
-32
-33
-32
-32
-32
-33
-32
-32
-32
-31
-31
-31
-31
-30
-30
-30
-31
-30
-30
-30
-30
-30
-31
-31
-31
-31
-31
-31
-31
-31
-32
-32
-32
-32
-32
-32
-32
-32
-31
-31
-31
-31
-31
-31
-31
-31
-31
-31
-31
-30
-31
-31
-31
-30
-30
-31
-31
-31
-31
-32
-32
-32
-32
-33
-33
-34
-33
-34
-33
-33
-33
-33
-33
-33
-33
-33
-33
-32
-33
-33
-32
-32
-32
-32
-31
-32
-32
-32
-32
-32
-31
-31
-31
-31
-31
-31
-31
-31
-31
-31
-31
-31
-30
-30
-30
-29
-29
-29
-29
-28
-27
-27
-26
-26
-25
-25
-25
-24
-25
-24
-24
-24
-23
-23
-23
-23
-23
-22
-23
-23
-22
-22
-22
-22
-22
-22
-21
-21
-22
-21
-21
-21
-21
-21
-21
-21
-20
-20
-20
-19
-19
-18
-18
-18
-17
-17
-17
-16
-16
-15
-15
-14
-14
-13
-13
-13
-12
-12
-12
-11
-10
-10
-11
-10
-11
-10
-10
-11
-10
-10
-10
-11
-11
-12
-12
-12
-12
-13
-13
-13
-13
-14
-14
-15
-15
-16
-16
-17
-18
-19
-18
-20
-20
-20
-21
-22
-22
-22
-23
-23
-23
-24
-24
-25
-26
-25
-26
-27
-27
-27
-28
-27
-28
-28
-29
-29
-29
-29
-29
-30
-30
-30
-30
-31
-31
-31
-32
-31
-31
-32
-33
-33
-33
-33
-33
-33
-34
-33
-33
-34
-34
-33
-33
-34
-34
-34
-34
-34
-35
-34
-35
-35
-35
-35
-35
-35
-35
-36
-36
-35
-35
-36
-36
-35
-35
-35
-35
-35
-35
-36
-36
-35
-35
-35
-35
-36
-35
-36
-35
-35
-35
-35
-35
-36
-37
-36
-37
-37
-38
-37
-37
-38
-38
-39
-38
-38
-38
-37
-37
-35
-34
-33
-31
-28
-25
-22
-18
-14
-10
-5
1
7
14
21
28
35
44
52
58
66
74
81
88
93
99
102
106
110
111
112
112
111
109
106
103
97
92
85
78
70
62
53
44
35
27
18
8
0
-8
-17
-24
-32
-39
-45
-51
-57
-61
-65
-68
-71
-73
-75
-77
-77
-78
-78
-78
-77
-76
-74
-73
-71
-69
-68
-65
-63
-61
-58
-56
-53
-51
-49
-48
-45
-43
-41
-40
-38
-37
-36
-35
-34
-33
-32
-32
-31
-31
-30
-30
-30
-29
-29
-29
-29
-29
-29
-29
-28
-29
-29
-28
-28
-29
-28
-28
-28
-28
-28
-28
-27
-28
-27
-27
-27
-26
-26
-26
-26
-26
-26
-25
-26
-26
-25
-25
-25
-25
-25
-25
-24
-24
-24
-23
-23
-24
-24
-23
-24
-24
-23
-23
-23
-22
-22
-22
-22
-22
-22
-22
-21
-21
-21
-21
-20
-20
-20
-19
-19
-19
-19
-19
-19
-19
-18
-18
-18
-18
-17
-18
-17
-17
-17
-16
-16
-16
-16
-16
-16
-16
-16
-16
-16
-16
-16
-15
-15
-15
-15
-15
-15
-14
-14
-13
-13
-13
-13
-12
-12
-12
-11
-11
-11
-11
-10
-10
-9
-9
-9
-9
-9
-8
-7
-7
-7
-6
-6
-6
-6
-6
-5
-5
-4
-4
-3
-2
-2
-2
-1
-1
0
0
1
2
2
3
4
5
5
6
6
7
7
9
10
10
11
12
13
14
14
16
17
17
19
20
20
22
23
23
23
25
25
26
26
27
28
29
30
31
32
33
34
34
35
36
36
37
38
39
39
40
41
42
42
43
44
44
45
45
46
47
48
47
48
48
49
49
50
49
50
49
49
50
50
50
50
50
50
50
50
50
50
50
49
49
48
48
47
47
46
45
45
45
44
43
42
41
40
39
39
37
36
36
35
33
32
31
29
29
27
26
25
24
22
21
20
18
17
16
14
14
13
12
10
9
8
7
6
5
4
2
1
0
-1
-2
-3
-5
-6
-7
-8
-8
-10
-11
-11
-12
-13
-14
-15
-16
-16
-17
-18
-19
-20
-21
-21
-21
-22
-22
-22
-23
-24
-24
-24
-25
-25
-26
-26
-26
-26
-27
-28
-28
-28
-28
-29
-29
-28
-28
-29
-28
-29
-29
-30
-29
-29
-30
-30
-30
-30
-30
-30
-31
-30
-30
-30
-31
-31
-31
-31
-31
-32
-32
-32
-32
-32
-32
-32
-32
-32
-33
-33
-33
-34
-34
-33
-33
-33
-33
-33
-33
-33
-33
-33
-33
-32
-32
-33
-32
-33
-33
-32
-33
-33
-33
-34
-33
-34
-34
-34
-33
-34
-34
-34
-35
-35
-35
-35
-35
-35
-35
-35
-35
-35
-35
-35
-35
-35
-34
-34
-35
-35
-35
-34
-34
-35
-34
-34
-34
-34
-34
-34
-34
-33
-33
-33
-33
-33
-32
-32
-32
-32
-32
-32
-32
-32
-31
-31
-30
-30
-31
-30
-30
-30
-29
-30
-29
-30
-29
-30
-29
-29
-29
-28
-28
-28
-28
-28
-27
-27
-27
-28
-27
-27
-27
-27
-27
-28
-27
-28
-27
-27
-27
-28
-27
-27
-27
-27
-27
-28
-28
-27
-27
-27
-27
-26
-27
-26
-26
-26
-26
-25
-25
-26
-26
-25
-25
-24
-25
-25
-25
-25
-25
-25
-25
-25
-24
-25
-24
-25
-24
-24
-24
-24
-24
-24
-24
-23
-23
-24
-24
-23
-24
-24
-24
-24
-24
-24
-24
-24
-24
-23
-24
-24
-24
-24
-25
-25
-25
-26
-26
-26
-25
-25
-26
-26
-26
-26
-26
-26
-26
-27
-27
-27
-27
-27
-27
-26
-27
-27
-27
-28
-27
-27
-27
-28
-28
-28
-28
-28
-28
-27
-27
-28
-28
-27
-27
-26
-27
-27
-27
-27
-26
-26
-27
-27
-26
-26
-26
-26
-27
-27
-27
-28
-28
-28
-28
-28
-28
-28
-29
-28
-28
-29
-29
-29
-29
-29
-29
-29
-28
-28
-28
-29
-29
-29
-28
-28
-28
-28
-28
-28
-28
-28
-28
-28
-28
-28
-28
-28
-28
-29
-28
-28
-29
-29
-29
-29
-29
-29
-29
-29
-30
-30
-30
-31
-30
-31
-30
-30
-30
-29
-29
-30
-30
-29
-30
-30
-30
-29
-29
-30
-30
-30
-30
-30
-30
-30
-29
-30
-30
-30
-29
-29
-29
-29
-29
-30
-30
-30
-30
-31
-30
-30
-30
-31
-31
-31
-31
-31
-31
-30
-31
-31
-31
-31
-31
-31
-31
-31
-32
-31
-31
-31
-31
-31
-31
-31
-31
-31
-30
-30
-30
-30
-30
-30
-30
-29
-30
-30
-30
-30
-29
-29
-30
-30
-29
-30
-29
-29
-28
-28
-28
-28
-27
-27
-26
-27
-26
-27
-26
-26
-25
-26
-25
-25
-25
-24
-24
-24
-23
-23
-22
-23
-22
-21
-21
-22
-21
-20
-21
-21
-20
-20
-20
-19
-20
-20
-19
-19
-19
-18
-19
-19
-18
-17
-17
-16
-17
-16
-16
-15
-15
-14
-14
-13
-13
-13
-12
-11
-11
-11
-11
-10
-10
-10
-11
-10
-11
-11
-12
-12
-11
-12
-12
-13
-13
-13
-13
-12
-12
-12
-13
-13
-13
-14
-14
-14
-15
-14
-15
-15
-17
-16
-17
-17
-18
-19
-20
-20
-20
-21
-21
-22
-22
-23
-24
-24
-24
-26
-26
-26
-27
-27
-28
-28
-29
-30
-30
-30
-31
-31
-32
-31
-32
-33
-33
-33
-34
-33
-34
-34
-34
-34
-34
-34
-34
-35
-34
-34
-34
-34
-34
-35
-35
-36
-35
-36
-36
-36
-36
-37
-36
-37
-37
-37
-37
-37
-37
-37
-37
-37
-37
-37
-37
-37
-36
-36
-37
-36
-37
-37
-37
-37
-36
-36
-37
-37
-37
-37
-37
-37
-37
-37
-37
-38
-38
-38
-39
-39
-39
-39
-39
-40
-40
-41
-41
-41
-41
-40
-40
-40
-39
-38
-37
-36
-33
-32
-29
-26
-23
-19
-15
-10
-5
1
7
14
21
28
36
43
51
59
66
73
79
85
90
95
99
101
102
104
103
102
100
97
94
89
84
77
69
62
53
44
35
26
17
10
1
