# Simple Text Format
# Sampling Rate (Hz):= 1200.00
# Resolution:= 12
# Labels:= ECG	 V5
# Age:=	23
# Gender:=	Masculino
-24
-24
-23
-23
-22
-22
-22
-22
-20
-20
-20
-19
-19
-18
-18
-17
-16
-16
-15
-15
-14
-14
-14
-13
-13
-12
-12
-11
-11
-12
-12
-11
-11
-11
-11
-11
-11
-12
-11
-12
-12
-11
-10
-11
-11
-11
-10
-11
-11
-10
-11
-11
-10
-11
-11
-12
-11
-11
-11
-12
-12
-13
-12
-13
-13
-13
-13
-13
-14
-14
-14
-14
-14
-14
-14
-14
-14
-15
-15
-15
-16
-16
-15
-15
-15
-15
-15
-15
-15
-15
-15
-16
-16
-16
-17
-16
-17
-17
-17
-18
-18
-19
-20
-20
-20
-20
-21
-22
-22
-23
-23
-24
-25
-26
-27
-27
-27
-28
-28
-28
-29
-31
-31
-32
-32
-33
-33
-33
-34
-34
-34
-34
-34
-34
-34
-35
-35
-35
-35
-35
-36
-37
-37
-37
-37
-37
-37
-36
-36
-37
-37
-36
-37
-37
-37
-37
-36
-36
-36
-36
-35
-36
-36
-36
-35
-35
-35
-34
-34
-34
-34
-34
-34
-34
-35
-35
-34
-36
-36
-36
-37
-39
-40
-40
-42
-44
-46
-47
-50
-53
-56
-59
-62
-65
-68
-72
-75
-78
-82
-84
-87
-88
-89
-89
-88
-86
-83
-80
-74
-68
-60
-49
-38
-26
-12
4
22
40
61
83
105
129
153
178
203
227
251
274
296
316
334
352
366
378
387
394
397
398
395
388
378
364
347
329
307
285
261
235
208
181
152
124
96
69
43
19
-4
-26
-45
-63
-79
-92
-104
-114
-121
-127
-132
-135
-136
-136
-135
-134
-132
-128
-125
-121
-117
-113
-109
-104
-100
-96
-92
-87
-82
-79
-75
-72
-68
-66
-63
-61
-59
-57
-55
-53
-52
-51
-50
-49
-48
-48
-48
-48
-47
-46
-46
-46
-45
-45
-45
-44
-45
-44
-44
-44
-44
-43
-43
-42
-43
-42
-42
-41
-40
-40
-39
-39
-38
-38
-38
-38
-38
-38
-38
-37
-38
-38
-38
-37
-38
-38
-38
-38
-38
-38
-38
-38
-38
-37
-37
-38
-37
-37
-37
-37
-36
-36
-36
-36
-36
-35
-36
-35
-36
-35
-35
-34
-34
-34
-34
-34
-34
-34
-34
-34
-33
-33
-33
-34
-34
-35
-34
-34
-35
-35
-34
-34
-34
-34
-34
-34
-34
-33
-33
-33
-32
-32
-32
-32
-32
-31
-30
-29
-29
-28
-28
-26
-25
-25
-24
-24
-24
-24
-23
-22
-22
-21
-21
-20
-19
-19
-18
-17
-17
-17
-16
-15
-15
-15
-14
-13
-13
-12
-11
-10
-10
-9
-8
-7
-7
-6
-5
-4
-3
-1
0
1
3
4
5
7
9
10
11
13
15
16
18
20
21
23
24
26
28
30
31
34
35
36
38
39
41
43
44
46
48
49
50
52
54
55
57
58
60
61
62
65
66
67
69
71
72
74
74
77
78
78
79
81
81
82
83
84
84
85
85
86
87
87
87
87
86
87
86
87
87
86
85
85
83
83
82
81
80
80
79
78
76
74
73
72
70
69
67
65
63
61
60
58
55
53
50
48
46
44
41
39
37
34
32
30
28
26
24
21
19
16
14
12
9
8
5
3
1
-1
-3
-4
-7
-8
-11
-12
-14
-15
-16
-18
-19
-21
-23
-24
-25
-27
-28
-30
-31
-32
-33
-35
-35
-36
-37
-38
-39
-39
-41
-41
-41
-43
-43
-44
-44
-45
-46
-46
-47
-47
-47
-48
-48
-48
-48
-49
-49
-50
-50
-50
-51
-51
-51
-51
-51
-52
-52
-52
-52
-53
-53
-52
-52
-53
-53
-53
-53
-53
-53
-53
-53
-53
-53
-54
-54
-55
-54
-54
-54
-54
-55
-55
-55
-54
-54
-54
-54
-54
-54
-54
-55
-54
-54
-54
-54
-54
-54
-54
-54
-54
-54
-53
-53
-54
-54
-54
-54
-54
-54
-54
-54
-54
-54
-54
-54
-55
-55
-55
-55
-55
-55
-54
-54
-55
-55
-54
-55
-55
-55
-55
-55
-55
-55
-55
-55
-55
-55
-55
-54
-54
-54
-53
-54
-54
-54
-53
-53
-52
-52
-51
-51
-51
-50
-50
-50
-50
-50
-49
-49
-48
-48
-47
-46
-46
-45
-44
-44
-43
-43
-42
-42
-41
-40
-40
-38
-38
-37
-36
-36
-36
-35
-35
-34
-34
-34
-33
-33
-33
-33
-33
-32
-33
-33
-32
-32
-33
-32
-32
-32
-31
-31
-30
-30
-29
-29
-28
-27
-27
-27
-26
-25
-25
-25
-24
-24
-23
-23
-22
-22
-21
-20
-19
-19
-18
-18
-17
-17
-16
-16
-15
-16
-15
-15
-15
-15
-15
-14
-14
-14
-13
-12
-13
-12
-12
-12
-12
-12
-12
-12
-11
-10
-10
-10
-9
-9
-9
-9
-8
-8
-7
-6
-6
-6
-5
-5
-4
-4
-4
-4
-3
-3
-3
-2
-2
-2
-2
-2
-2
-1
-1
0
0
1
1
1
1
1
1
1
2
2
2
2
3
2
2
3
3
4
4
4
4
4
4
5
5
5
4
4
4
4
4
4
3
3
2
2
2
2
1
1
1
1
1
1
1
1
1
0
0
1
1
1
1
1
0
1
1
1
1
1
1
2
2
2
2
2
2
2
2
3
3
3
3
3
2
3
3
3
3
3
4
4
4
4
5
5
4
4
4
4
5
4
4
4
4
4
4
4
3
4
4
4
4
4
4
4
4
4
5
5
5
5
5
5
5
5
5
5
6
6
6
6
6
6
6
6
6
6
6
6
6
6
7
7
7
7
7
8
8
8
9
9
9
10
9
10
11
11
11
11
12
12
12
12
13
12
13
13
14
13
14
14
14
14
14
14
14
13
14
14
14
13
13
12
12
12
12
12
12
12
12
11
11
11
11
11
10
10
10
10
10
10
10
9
8
9
8
9
9
10
10
10
10
10
11
11
11
12
12
13
13
14
14
15
16
15
16
17
17
19
19
19
20
20
20
20
21
21
21
22
22
22
21
22
21
21
21
22
22
22
22
22
22
22
22
23
22
23
23
24
24
24
24
24
24
25
25
25
26
26
26
26
26
26
27
27
27
27
26
27
26
26
26
26
26
26
26
27
26
26
27
26
27
27
26
27
26
26
26
26
25
25
24
24
24
24
23
23
22
22
21
20
20
19
19
18
17
17
16
15
14
14
13
12
11
11
11
9
9
9
8
7
7
6
6
6
4
3
3
3
3
2
2
2
1
0
0
0
0
0
0
-1
-1
-1
-1
-1
-2
-2
-2
-2
-3
-3
-3
-2
-3
-3
-3
-3
-2
-2
-2
-2
-2
-2
-2
-2
-2
-1
-1
-1
-1
-1
-1
0
0
-1
0
1
1
1
1
2
2
1
0
0
-1
-2
-3
-5
-6
-8
-10
-13
-16
-19
-22
-25
-27
-30
-32
-34
-36
-37
-38
-38
-37
-35
-32
-28
-22
-15
-7
2
14
26
40
56
73
92
113
135
157
180
204
227
252
276
299
321
342
361
379
395
409
421
430
437
439
439
435
428
417
403
387
368
347
323
299
273
246
218
191
162
135
107
81
57
33
12
-7
-25
-40
-53
-64
-74
-82
-88
-92
-94
-96
-96
-94
-92
-90
-87
-83
-78
-73
-69
-64
-59
-54
-48
-44
-39
-34
-31
-27
-23
-20
-16
-14
-11
-8
-6
-3
-1
0
2
3
4
5
6
6
6
7
7
7
7
6
6
6
6
5
4
4
4
5
4
4
3
3
2
2
2
2
1
1
1
1
1
1
0
0
0
0
1
1
1
1
2
2
2
2
2
2
2
2
3
3
3
3
4
3
4
4
3
4
4
4
4
4
5
4
4
4
4
4
5
5
4
4
4
4
3
3
4
4
4
4
4
4
4
4
4
3
4
4
5
5
5
5
5
5
6
6
7
7
8
8
9
8
8
9
9
10
10
10
11
12
12
12
12
13
13
13
14
15
15
16
16
16
16
17
17
17
17
18
19
19
20
20
21
21
22
23
24
25
26
27
28
29
30
31
33
34
36
36
39
39
41
43
44
46
47
49
51
53
55
56
59
61
62
64
66
68
70
72
74
76
78
80
81
83
86
88
91
93
95
98
101
103
105
108
110
113
115
118
121
123
126
129
131
133
135
138
141
143
145
147
150
152
153
155
156
158
159
161
163
164
165
166
167
168
168
170
171
172
172
172
173
173
173
174
175
174
174
174
174
174
174
173
172
172
171
170
170
169
168
167
166
165
164
163
162
160
158
157
155
153
152
150
148
145
143
141
139
137
135
132
131
129
127
124
123
120
117
116
113
112
110
107
105
103
101
100
98
96
95
93
92
90
88
86
85
84
82
80
79
78
77
74
73
71
70
69
68
67
66
64
63
62
62
60
59
58
57
56
56
55
53
52
52
51
50
50
50
50
50
49
49
48
48
48
48
48
48
48
47
47
47
48
47
47
47
47
47
48
47
47
48
48
48
48
48
47
48
47
48
48
48
48
48
48
47
47
48
48
48
48
48
49
49
49
49
50
49
50
50
49
50
50
50
49
50
49
49
49
50
50
49
50
49
49
49
50
49
49
49
49
49
48
48
48
48
48
48
48
48
48
48
48
49
49
49
49
49
49
49
49
50
50
49
49
50
50
50
50
50
51
51
51
52
52
52
53
53
53
53
53
53
54
53
53
54
54
53
53
53
53
53
53
53
53
53
52
52
51
51
51
51
51
50
50
50
50
50
50
49
49
50
50
50
50
50
50
50
50
50
50
50
50
50
50
50
50
51
51
51
51
51
51
52
51
51
51
52
51
52
52
52
52
52
52
52
52
52
53
53
53
53
53
53
52
52
52
52
52
53
53
52
52
53
52
52
52
53
52
53
53
53
53
54
54
54
54
54
55
55
56
55
55
56
55
56
56
56
56
57
57
57
57
56
56
56
55
56
54
55
54
54
53
52
52
51
51
51
51
50
50
49
49
49
48
48
48
47
47
47
46
46
46
46
46
45
45
46
45
45
45
45
45
46
46
45
45
45
45
45
45
45
46
45
45
45
46
45
45
46
46
46
46
46
46
46
46
45
45
45
45
45
45
44
43
44
43
43
43
43
43
43
42
42
42
42
41
42
41
42
42
42
42
42
42
41
42
42
43
43
43
43
44
44
44
44
44
44
44
44
44
44
44
43
44
43
43
43
43
42
42
42
42
42
42
42
41
40
40
40
40
40
39
38
38
38
38
38
38
38
37
36
37
36
36
36
36
36
36
35
35
35
35
35
34
34
34
34
34
34
34
34
34
33
33
32
33
32
32
32
31
32
32
31
30
31
30
30
30
30
30
30
30
31
31
31
31
31
31
32
31
32
32
32
31
31
31
32
32
32
32
33
33
32
32
32
32
31
31
31
31
31
31
30
30
29
29
28
28
27
27
27
26
26
26
25
24
24
23
23
23
23
22
22
22
21
21
21
21
21
21
21
21
21
21
21
20
20
20
20
20
20
20
19
20
19
19
19
20
19
19
19
18
18
18
18
18
18
18
18
18
18
18
17
18
17
17
17
17
17
17
17
17
16
16
16
17
17
17
16
16
15
15
15
15
15
14
14
14
14
15
14
14
14
14
14
14
14
14
13
13
14
14
13
13
14
13
13
13
14
14
14
14
14
14
14
14
14
14
14
15
15
15
15
16
15
15
17
17
17
18
18
19
19
20
20
21
21
21
22
22
22
22
22
21
21
22
21
21
21
20
20
20
20
20
19
19
18
18
18
18
18
17
17
17
15
16
16
15
16
15
15
15
15
14
14
13
13
13
13
12
12
12
11
11
10
9
9
9
8
8
8
8
6
6
6
5
5
5
4
4
3
3
2
2
2
2
1
1
1
1
1
1
1
0
-1
-1
0
0
-1
-1
-1
-1
0
-1
-1
-1
-1
-1
-1
0
0
0
0
0
1
1
1
1
1
2
2
2
2
2
2
2
3
3
4
4
4
5
5
6
6
6
7
7
7
8
8
9
8
7
7
5
4
4
2
0
-2
-4
-7
-9
-12
-15
-18
-21
-24
-26
-28
-30
-31
-32
-31
-30
-28
-25
-20
-15
-8
0
10
21
34
48
64
82
102
121
143
165
189
212
237
262
287
310
333
355
375
394
410
425
437
447
455
458
458
455
449
438
424
408
388
367
344
320
294
268
240
212
184
156
128
102
76
53
30
12
-6
-22
-35
-48
-58
-66
-72
-75
-78
-80
-80
-79
-76
-73
-70
-65
-62
-57
-51
-46
-41
-35
-30
-25
-20
-14
-9
-5
1
4
9
12
17
20
22
26
28
31
32
34
36
38
39
40
41
42
43
44
45
45
45
46
46
47
47
48
49
49
50
50
51
51
52
53
53
54
55
55
56
57
57
58
59
60
60
60
61
61
62
62
62
62
62
63
62
62
63
63
63
64
64
64
63
63
64
64
64
64
65
65
65
66
66
66
67
67
68
69
68
69
70
70
71
72
72
72
74
74
75
75
76
76
76
77
77
77
78
78
79
79
79
80
80
80
79
80
79
79
80
80
80
80
79
80
79
80
80
81
81
82
83
83
84
85
87
87
88
88
90
91
91
92
92
93
94
94
95
97
97
98
99
99
100
101
101
102
102
103
104
104
105
106
106
107
107
108
109
111
112
113
114
115
116
118
119
121
122
123
124
126
127
129
130
132
133
134
137
138
139
142
143
145
146
148
149
150
151
154
154
157
158
159
160
161
162
163
165
166
168
169
171
172
173
175
176
178
178
180
181
182
183
185
185
186
186
188
189
189
190
191
191
191
193
193
193
193
194
194
195
195
195
195
195
194
195
194
195
195
194
194
194
193
193
192
191
190
189
188
187
186
183
183
181
179
176
175
173
170
169
167
165
163
160
158
155
153
151
147
146
144
142
139
136
134
132
130
128
126
123
122
120
118
116
114
113
110
108
107
106
104
101
100
98
96
94
93
91
90
88
87
85
83
82
80
79
78
77
76
74
73
72
71
70
69
68
67
66
66
66
65
65
65
63
63
63
63
61
61
61
61
61
60
60
59
58
58
58
58
58
57
56
56
55
55
55
54
53
53
52
52
51
51
50
49
49
49
49
48
48
47
47
47
47
47
47
47
47
47
47
48
48
48
48
47
47
48
47
47
48
48
48
48
48
48
48
47
47
47
47
47
46
46
45
45
44
44
44
44
44
43
43
43
43
42
42
42
41
41
41
41
40
40
41
40
40
40
40
40
40
41
41
41
41
41
41
41
40
40
41
41
41
41
41
41
40
40
40
41
41
41
41
41
40
40
40
39
40
40
39
39
38
38
38
38
37
37
37
38
38
38
38
38
39
39
39
39
39
39
40
41
41
41
41
41
41
41
42
43
43
43
44
43
43
43
44
43
43
43
43
44
44
43
43
42
42
41
42
42
42
41
40
40
39
39
39
38
38
37
37
36
35
35
35
34
33
32
32
32
32
31
31
31
30
30
30
30
29
29
29
29
27
27
28
27
26
26
26
26
26
26
25
25
24
24
24
24
23
23
23
23
22
22
21
20
20
20
19
19
19
18
18
18
17
17
16
15
15
15
14
13
13
12
12
11
11
11
11
11
10
10
10
10
9
10
10
9
9
9
9
9
9
9
9
8
9
9
8
9
9
9
9
9
9
9
9
9
9
9
9
9
9
9
9
8
9
8
9
9
8
8
8
7
7
7
7
6
6
6
6
6
5
5
4
3
4
3
2
2
2
2
1
0
0
0
0
0
-1
-1
-1
-1
-1
-2
-2
-2
-3
-3
-3
-3
-4
-4
-4
-4
-4
-4
-5
-5
-6
-6
-6
-6
-7
-7
-8
-7
-8
-9
-9
-9
-9
-9
-9
-9
-9
-9
-10
-10
-10
-11
-10
-10
-11
-11
-11
-12
-11
-11
-11
-11
-12
-11
-11
-11
-11
-11
-10
-10
-11
-10
-10
-9
-9
-10
-9
-9
-9
-9
-8
-8
-7
-7
-7
-7
-7
-6
-6
-6
-5
-4
-4
-4
-3
-3
-2
-1
-1
0
1
2
2
3
4
5
6
8
9
9
11
12
13
14
16
16
18
19
19
21
21
22
24
25
25
27
27
28
30
30
31
31
32
33
34
34
34
35
35
36
36
37
38
38
39
40
40
41
42
42
42
43
44
44
46
46
46
47
48
48
49
49
50
50
51
51
52
52
53
53
52
52
53
52
53
53
52
51
51
51
51
50
51
51
50
49
49
49
49
49
47
47
47
47
46
46
46
45
45
45
44
44
44
43
43
43
43
42
43
43
41
41
41
41
41
41
41
40
39
39
39
40
39
39
39
38
38
38
38
37
37
37
37
37
37
35
35
35
34
34
34
34
34
33
33
33
33
33
33
32
32
32
32
31
30
30
31
30
30
30
30
30
30
30
30
30
30
30
31
31
30
30
31
31
31
31
31
30
31
31
31
30
31
30
30
30
28
27
27
25
24
22
20
17
14
12
9
6
3
0
-2
-5
-8
-9
-11
-12
-13
-12
-11
-9
-6
-2
4
11
20
29
40
53
68
85
102
122
142
164
187
211
236
260
285
309
332
355
376
396
414
430
445
456
466
471
475
474
470
462
451
435
418
399
376
353
328
301
274
246
217
188
159
131
105
79
56
34
15
-3
-19
-33
-44
-53
-61
-68
-72
-75
-76
-76
-75
-74
-71
-69
-65
-62
-57
-52
-47
-43
-38
-35
-30
-25
-21
-17
-12
-9
-6
-2
1
4
7
9
11
14
16
17
19
20
22
23
23
24
25
26
27
27
28
28
28
29
30
29
29
29
30
31
30
31
31
32
32
32
33
33
33
33
32
33
33
33
33
34
33
33
34
35
35
35
36
36
37
37
36
36
36
37
37
38
38
38
38
38
38
38
39
38
39
39
39
40
40
40
40
40
40
40
40
40
40
40
40
41
40
40
41
41
42
42
42
42
42
42
42
42
43
43
42
43
43
43
43
43
43
42
43
43
43
43
43
43
44
44
45
45
44
44
45
45
45
46
47
46
46
47
48
49
48
49
50
50
51
51
52
52
53
54
54
55
56
56
57
58
58
58
59
60
61
62
63
63
64
65
65
67
67
68
69
70
71
72
73
74
75
76
77
79
80
81
82
84
85
86
87
88
90
91
92
94
95
96
98
98
100
101
102
104
105
107
109
110
111
112
115
116
116
117
120
121
122
122
124
125
126
127
128
129
130
131
131
133
133
133
135
135
135
136
136
136
136
136
137
136
136
136
136
136
137
137
136
136
135
135
134
134
134
133
132
132
131
130
129
128
126
125
124
122
121
119
118
116
114
113
110
108
107
103
102
100
97
95
92
90
87
85
83
80
78
76
74
71
68
65
63
61
59
55
54
52
49
46
44
42
39
37
35
33
31
28
27
25
23
21
19
18
15
14
12
10
9
8
6
4
2
1
0
-2
-3
-5
-5
-6
-8
-8
-10
-11
-12
-13
-14
-14
-15
-16
-17
-18
-19
-20
-20
-20
-20
-21
-21
-21
-21
-22
-22
-22
-23
-23
-22
-22
-22
-23
-23
-23
-22
-22
-22
-22
-22
-21
-21
-21
-21
-20
-21
-20
-20
-20
-19
-19
-18
-18
-18
-18
-17
-17
-17
-16
-15
-15
-14
-14
-13
-13
-12
-12
-12
-12
-11
-10
-10
-10
-10
-10
-9
-10
-9
-9
-8
-8
-9
-9
-8
-7
-7
-7
-7
-7
-7
-7
-6
-6
-6
-7
-7
-6
-6
-6
-5
-5
-4
-4
-4
-4
-4
-3
-3
-3
-2
-2
-2
-1
-1
-1
-2
-2
-1
0
-1
0
0
1
1
2
1
1
2
2
3
3
4
4
5
5
5
6
6
6
7
7
8
8
9
10
10
10
10
10
11
10
11
11
11
10
11
11
11
10
11
11
11
12
12
12
11
11
11
11
11
12
12
12
13
12
12
11
13
12
13
13
13
13
13
13
13
13
13
13
13
13
13
13
13
14
13
13
13
13
13
14
14
14
14
13
13
13
13
13
13
13
12
12
12
13
12
12
12
12
12
13
12
12
12
12
12
12
12
12
12
12
11
11
10
11
10
10
10
11
11
10
11
11
10
11
11
11
11
11
11
12
12
12
12
12
11
12
13
13
12
12
13
13
13
13
13
13
13
13
13
12
12
12
12
13
12
12
12
13
13
12
12
12
12
12
12
12
12
12
12
12
12
11
11
12
11
11
11
11
11
12
12
12
12
12
11
11
10
11
10
10
10
10
9
9
9
8
8
8
8
8
8
8
8
7
7
7
7
7
7
7
7
7
7
7
6
6
6
7
7
6
6
7
7
7
7
7
6
6
6
6
7
7
7
7
8
7
8
8
8
8
10
10
10
10
10
11
12
11
12
13
12
13
13
13
13
13
14
14
14
14
14
14
13
13
13
14
14
14
15
15
15
15
15
15
15
16
16
16
17
17
18
18
19
19
19
18
19
19
19
19
19
18
18
18
17
17
16
17
16
15
16
15
14
15
14
15
14
14
13
13
13
12
12
11
11
10
9
9
8
7
7
6
5
5
4
3
3
2
1
1
0
-1
-1
-2
-3
-4
-5
-5
-5
-7
-7
-7
-8
-9
-10
-10
-11
-11
-11
-12
-13
-13
-14
-14
-15
-16
-16
-15
-15
-16
-16
-17
-17
-17
-17
-18
-18
-17
-18
-18
-19
-19
-19
-20
-20
-20
-20
-20
-21
-21
-21
-21
-21
-21
-21
-21
-22
-21
-22
-22
-22
-22
-21
-22
-22
-23
-22
-22
-22
-22
-22
-22
-22
-22
-22
-22
-22
-23
-24
-25
-25
-27
-28
-29
-32
-34
-36
-38
-40
-42
-45
-49
-53
-56
-59
-63
-66
-69
-71
-72
-73
-73
-72
-71
-68
-64
-59
-51
-43
-33
-21
-9
6
24
42
62
83
106
130
153
178
204
229
253
277
300
322
342
361
378
392
404
413
419
421
420
416
407
395
380
362
341
320
295
269
242
214
186
157
128
99
71
46
20
-4
-26
-46
-64
-79
-93
-104
-114
-122
-128
-134
-136
-137
-138
-138
-137
-134
-132
-129
-126
-122
-118
-114
-110
-106
-101
-97
-94
-89
-86
-82
-79
-75
-72
-68
-66
-64
-61
-59
-57
-55
-53
-52
-52
-50
-49
-48
-48
-47
-47
-46
-46
-46
-45
-45
-45
-44
-44
-44
-44
-45
-45
-44
-44
-45
-45
-45
-45
-45
-45
-46
-46
-46
-45
-45
-46
-46
-46
-46
-45
-45
-45
-45
-45
-45
-46
-46
-45
-45
-46
-46
-46
-46
-45
-45
-45
-45
-46
-46
-46
-46
-46
-47
-46
-47
-47
-47
-47
-47
-47
-47
-47
-47
-47
-46
-46
-46
-45
-46
-45
-45
-45
-46
-46
-46
-45
-45
-45
-44
-45
-44
-45
-44
-45
-45
-44
-43
-43
-42
-42
-43
-42
-41
-41
-41
-41
-39
-39
-39
-39
-39
-38
-38
-37
-36
-35
-35
-34
-33
-33
-32
-32
-31
-31
-30
-30
-29
-29
-27
-27
-27
-26
-26
-25
-24
-23
-23
-23
-22
-21
-20
-20
-18
-18
-17
-16
-15
-14
-14
-12
-12
-10
-9
-8
-7
-6
-4
-3
-2
-1
1
2
4
5
7
9
10
12
13
15
16
19
20
23
24
26
28
30
31
34
35
37
39
40
42
43
45
46
48
49
51
52
54
55
57
59
60
61
62
64
66
66
68
69
70
71
73
73
74
75
75
75
76
77
77
78
78
78
78
79
78
79
79
78
78
78
77
78
77
76
76
74
74
73
72
71
70
69
68
66
64
62
61
58
56
55
53
51
48
46
43
41
39
37
34
32
29
27
24
22
19
17
15
12
10
8
5
2
0
-2
-5
-7
-9
-11
-13
-16
-18
-19
-22
-24
-26
-29
-30
-32
-35
-36
-38
-40
-41
-44
-45
-47
-48
-49
-50
-52
-52
-54
-55
-56
-57
-58
-58
-59
-61
-61
-61
-62
-64
-65
-65
-66
-66
-67
-67
-67
-68
-68
-69
-69
-69
-69
-70
-70
-71
-71
-71
-72
-72
-73
-72
-73
-73
-73
-73
-73
-73
-73
-73
-74
-74
-75
-74
-74
-74
-74
-75
-75
-75
-76
-76
-76
-77
-76
-77
-77
-77
-77
-78
-78
-78
-79
-78
-79
-79
-80
-80
-80
-79
-80
-81
-81
-81
-81
-82
-81
-81
-81
-81
-81
-81
-82
-82
-83
-83
-83
-83
-83
-83
-84
-84
-85
-85
-85
-84
-84
-85
-85
-85
-85
-85
-85
-85
-86
-85
-85
-85
-84
-84
-83
-84
-82
-82
-81
-80
-79
-79
-78
-77
-76
-75
-74
-74
-73
-72
-71
-70
-69
-68
-67
-67
-66
-65
-63
-62
-62
-61
-60
-59
-58
-56
-55
-55
-54
-53
-53
-52
-52
-51
-50
-50
-48
-48
-48
-47
-46
-45
-44
-43
-42
-43
-41
-41
-41
-40
-39
-39
-38
-38
-38
-38
-37
-38
-37
-36
-36
-35
-35
-34
-34
-34
-34
-33
-32
-32
-32
-32
-32
-31
-32
-31
-31
-31
-30
-30
-31
-31
-30
-30
-30
-30
-30
-31
-31
-31
-31
-32
-32
-32
-33
-33
-33
-33
-34
-34
-34
-34
-34
-34
-34
-34
-35
-35
-35
-36
-37
-37
-37
-37
-38
-39
-38
-38
-38
-39
-39
-39
-40
-40
-40
-40
-40
-41
-40
-41
-41
-41
-41
-41
-41
-41
-42
-42
-41
-42
-42
-42
-42
-42
-42
-42
-43
-43
-44
-44
-44
-44
-44
-44
-45
-44
-45
-45
-44
-44
-44
-44
-45
-45
-45
-45
-45
-45
-46
-46
-45
-45
-46
-46
-46
-47
-47
-47
-47
-47
-47
-47
-47
-47
-47
-47
-47
-47
-47
-47
-47
-46
-46
-46
-45
-45
-46
-45
-44
-44
-44
-43
-43
-42
-42
-41
-41
-40
-40
-40
-40
-39
-39
-39
-39
-38
-39
-38
-38
-38
-38
-38
-37
-37
-38
-38
-38
-37
-38
-37
-37
-37
-36
-36
-37
-37
-36
-36
-36
-35
-34
-34
-34
-34
-33
-33
-33
-33
-33
-33
-34
-34
-34
-35
-35
-36
-36
-36
-36
-36
-37
-37
-37
-38
-38
-38
-39
-39
-39
-40
-41
-41
-41
-41
-43
-43
-44
-44
-44
-45
-45
-46
-46
-47
-47
-48
-48
-49
-49
-50
-50
-50
-52
-52
-53
-54
-54
-55
-54
-55
-56
-56
-56
-56
-58
-58
-58
-59
-59
-59
-59
-61
-61
-61
-62
-62
-62
-62
-62
-63
-63
-63
-63
-63
-63
-63
-63
-64
-64
-65
-65
-65
-65
-65
-66
-66
-66
-66
-65
-65
-66
-66
-66
-66
-65
-65
-65
-65
-65
-65
-64
-64
-64
-64
-65
-64
-65
-65
-64
-65
-65
-65
-66
-66
-66
-66
-68
-68
-69
-71
-73
-75
-76
-78
-81
-84
-87
-90
-93
-96
-100
-103
-107
-110
-114
-116
-119
-121
-122
-123
-122
-121
-118
-115
-111
-105
-97
-88
-77
-65
-50
-35
-18
0
20
42
64
87
111
136
160
184
209
231
253
273
292
309
324
337
347
355
359
360
357
352
342
329
314
296
275
253
229
204
177
150
122
94
67
41
15
-10
-34
-57
-76
-95
-111
-124
-137
-148
-155
-162
-167
-171
-172
-174
-174
-172
-171
-168
-164
-161
-157
-153
-149
-145
-140
-136
-131
-127
-122
-119
-115
-112
-109
-105
-102
-100
-96
-94
-92
-90
-88
-86
-85
-84
-83
-82
-81
-80
-79
-78
-78
-78
-78
-79
-79
-79
-78
-78
-78
-79
-79
-79
-79
-79
-79
-79
-80
-80
-79
-79
-80
-80
-81
-81
-81
-82
-81
-81
-83
-83
-83
-83
-83
-83
-84
-83
-84
-84
-84
-84
-84
-85
-85
-85
-86
-86
-86
-85
-86
-85
-85
-86
-86
-87
-87
-86
-87
-87
-87
-87
-87
-87
-88
-88
-88
-88
-88
-88
-88
-88
-88
-88
-88
-88
-88
-89
-88
-88
-89
-89
-89
-89
-88
-89
-88
-88
-89
-88
-88
-87
-87
-87
-87
-86
-86
-86
-86
-86
-85
-85
-85
-85
-84
-84
-84
-84
-83
-82
-82
-81
-81
-81
-80
-80
-79
-78
-78
-78
-77
-76
-76
-75
-74
-75
-74
-73
-72
-71
-70
-70
-69
-68
-67
-67
-66
-64
-64
-63
-62
-61
-61
-59
-59
-58
-57
-55
-54
-53
-52
-51
-49
-47
-46
-45
-43
-43
-41
-39
-38
-36
-35
-33
-32
-30
-29
-27
-26
-24
-22
-21
-18
-17
-16
-14
-13
-11
-10
-8
-7
-6
-5
-3
-1
0
1
2
4
5
6
7
9
10
11
11
13
13
15
15
16
16
16
17
17
17
17
17
18
18
18
18
17
18
18
17
17
16
15
14
14
14
12
11
11
9
8
7
6
5
3
2
1
0
-3
-4
-7
-9
-11
-12
-14
-15
-18
-20
-23
-25
-28
-30
-32
-35
-37
-40
-42
-44
-47
-49
-51
-54
-56
-59
-61
-63
-65
-67
-69
-72
-75
-76
-77
-79
-82
-83
-85
-86
-89
-90
-91
-92
-95
-96
-96
-98
-99
-100
-102
-103
-105
-106
-107
-107
-108
-110
-110
-111
-112
-113
-113
-114
-115
-115
-116
-116
-117
-118
-119
-119
-120
-120
-120
-120
-120
-121
-121
-121
-121
-121
-121
-122
-122
-122
-122
-122
-123
-123
-123
-124
-123
-123
-124
-124
-123
-123
-123
-123
-124
-124
-124
-124
-124
-124
-124
-124
-124
-124
-124
-125
-126
-126
-125
-125
-125
-126
-126
-126
-126
-126
-127
-127
-128
-128
-128
-128
-128
-129
-130
-129
-130
-131
-131
-130
-131
-131
-131
-132
-132
-132
-132
-133
-133
-133
-133
-133
-134
-134
-135
-135
-135
-135
-135
-135
-136
-136
-136
-136
-136
-136
-136
-137
-137
-137
-138
-138
-138
-139
-139
-139
-139
-140
-139
-139
-139
-139
-139
-139
-139
-140
-140
-139
-139
-139
-139
-139
-139
-139
-139
-140
-139
-139
-139
-139
-139
-139
-139
-139
-139
-140
-140
-139
-139
-140
-139
-139
-139
-140
-140
-140
-140
-140
-140
-140
-139
-139
-139
-139
-139
-140
-140
-139
-139
-139
-140
-139
-139
-139
-139
-139
-140
-140
-139
-139
-139
-139
-138
-138
-138
-138
-138
-138
-138
-138
-138
-138
-138
-138
-138
-138
-138
-138
-138
-138
-137
-137
-137
-138
-138
-137
-137
-137
-138
-137
-137
-137
-137
-137
-137
-138
-138
-138
-138
-137
-137
-138
-138
-138
-137
-137
-137
-137
-138
-138
-138
-138
-139
-139
-140
-139
-140
-140
-140
-140
-140
-140
-141
-141
-141
-141
-141
-141
-141
-141
-142
-142
-142
-142
-142
-142
-142
-142
-142
-142
-141
-142
-142
-142
-142
-141
-141
-141
-141
-141
-141
-141
-141
-141
-142
-141
-141
-141
-141
-141
-141
-141
-141
-141
-140
-140
-140
-140
-140
-140
-140
-139
-139
-139
-139
-139
-140
-138
-139
-138
-138
-137
-137
-137
-137
-136
-135
-135
-135
-134
-133
-132
-132
-131
-131
-131
-130
-130
-129
-129
-128
-128
-127
-127
-126
-126
-125
-125
-124
-124
-124
-124
-124
-123
-123
-123
-123
-123
-122
-123
-122
-122
-121
-121
-121
-121
-120
-120
-120
-120
-120
-119
-118
-118
-117
-118
-117
-117
-116
-115
-115
-115
-114
-114
-113
-113
-112
-111
-111
-111
-110
-110
-110
-109
-109
-109
-109
-109
-109
-108
-108
-107
-107
-107
-107
-107
-106
-107
-107
-106
-106
-105
-105
-104
-105
-104
-103
-103
-102
-101
-101
-101
-100
-99
-99
-99
-98
-98
-98
-98
-97
-97
-97
-98
-98
-98
-98
-97
-97
-98
-97
-97
-98
-97
-97
-97
-97
-98
-98
-97
-97
-98
-98
-98
-98
-98
-98
-99
-99
-99
-99
-99
-100
-100
-99
-100
-100
-101
-102
-102
-101
-102
-102
-102
-103
-103
-104
-105
-104
-105
-106
-106
-106
-106
-106
-107
-108
-108
-109
-109
-109
-109
-109
-110
-111
-111
-111
-111
-111
-111
-111
-111
-112
-112
-112
-111
-111
-111
-112
-111
-111
-111
-111
-111
-111
-111
-111
-110
-111
-110
-110
-110
-109
-109
-109
-109
-109
-109
-108
-108
-109
-108
-108
-108
-107
-108
-108
-108
-108
-107
-107
-107
-106
-106
-106
-106
-106
-106
-107
-107
-108
-108
-110
-110
-112
-114
-115
-117
-119
-122
-124
-127
-130
-133
-136
-138
-141
-144
-146
-148
-149
-149
-149
-148
-146
-144
-139
-133
-127
-118
-108
-97
-84
-70
-54
-36
-18
0
22
43
67
91
115
140
164
185
208
229
248
266
281
297
308
318
323
326
326
322
315
305
290
274
256
234
211
187
162
135
107
80
53
27
-1
-27
-51
-75
-96
-115
-133
-147
-162
-173
-182
-190
-196
-200
-203
-204
-204
-203
-201
-199
-195
-192
-188
-184
-179
-174
-170
-165
-161
-155
-152
-147
-143
-139
-136
-132
-129
-125
-122
-120
-118
-115
-114
-111
-110
-109
-107
-106
-105
-104
-104
-103
-102
-102
-103
-102
-102
-101
-101
-100
-100
-100
-99
-100
-100
-100
-99
-99
-98
-99
-98
-97
-98
-98
-97
-97
-97
-96
-96
-95
-95
-95
-95
-94
-94
-94
-93
-93
-92
-92
-91
-91
-91
-91
-92
-91
-91
-90
-90
-90
-90
-90
-90
-89
-89
-89
-89
-89
-89
-89
-89
-89
-88
-89
-88
-88
-89
-88
-88
-88
-88
-88
-88
-88
-88
-87
-87
-87
-87
-87
-87
-87
-87
-87
-87
-87
-87
-86
-86
-86
-86
-85
-85
-85
-84
-84
-85
-85
-84
-84
-84
-83
-82
-83
-82
-82
-81
-81
-80
-80
-79
-78
-78
-77
-77
-76
-76
-76
-75
-74
-73
-72
-72
-71
-71
-70
-69
-68
-67
-66
-64
-64
-63
-62
-61
-60
-59
-58
-56
-56
-55
-54
-52
-52
-50
-50
-48
-47
-46
-45
-43
-42
-40
-39
-38
-36
-35
-34
-32
-31
-29
-28
-27
-25
-23
-22
-20
-17
-17
-14
-13
-11
-10
-9
-8
-6
-5
-3
-1
1
2
3
5
6
7
9
11
12
13
15
16
18
19
20
21
22
23
24
26
26
27
28
29
30
30
30
31
31
32
33
33
34
34
34
34
34
34
34
34
34
33
33
32
32
30
29
29
28
27
26
25
24
23
22
20
19
17
15
13
11
10
8
5
2
2
-1
-3
-5
-7
-9
-10
-13
-15
-18
-20
-23
-25
-27
-28
-31
-32
-35
-37
-39
-41
-43
-45
-48
-49
-51
-52
-55
-56
-59
-60
-61
-64
-66
-68
-69
-71
-73
-74
-76
-78
-80
-81
-83
-84
-85
-86
-87
-88
-90
-91
-92
-93
-94
-96
-96
-97
-98
-98
-100
-100
-102
-102
-102
-103
-104
-104
-104
-104
-106
-106
-106
-106
-107
-106
-106
-107
-107
-107
-108
-108
-108
-108
-108
-109
-109
-109
-109
-108
-108
-108
-109
-109
-109
-109
-109
-110
-110
-110
-111
-111
-111
-111
-111
-111
-111
-112
-112
-112
-111
-111
-111
-112
-112
-111
-111
-111
-111
-111
-111
-111
-112
-111
-111
-111
-111
-112
-112
-112
-112
-112
-111
-112
-112
-112
-112
-112
-112
-113
-113
-113
-113
-113
-113
-114
-114
-114
-114
-114
-114
-114
-114
-114
-114
-114
-114
-114
-114
-115
-115
-116
-115
-115
-116
-116
-116
-116
-116
-116
-116
-116
-116
-115
-115
-116
-116
-116
-116
-116
-116
-116
-116
-115
-116
-115
-115
-116
-115
-116
-115
-115
-115
-115
-115
-114
-115
-114
-115
-115
-115
-115
-115
-115
-115
-114
-114
-114
-114
-114
-115
-115
-115
-114
-114
-115
-114
-114
-114
-114
-114
-114
-114
-113
-112
-112
-112
-112
-112
-112
-111
-111
-111
-111
-110
-110
-110
-110
-110
-110
-110
-110
-110
-111
-110
-110
-111
-111
-111
-111
-111
-111
-112
-112
-112
-113
-113
-113
-113
-113
-113
-113
-114
-113
-113
-114
-113
-113
-113
-113
-113
-113
-113
-113
-112
-113
-113
-113
-113
-113
-113
-112
-112
-113
-113
-112
-112
-112
-112
-112
-112
-112
-112
-112
-112
-112
-112
-112
-112
-112
-112
-113
-112
-112
-112
-112
-112
-112
-112
-112
-112
-112
-112
-112
-112
-112
-112
-112
-112
-112
-112
-112
-112
-112
-111
-112
-111
-111
-111
-111
-111
-111
-110
-111
-111
-110
-110
-110
-110
-110
-111
-110
-111
-111
-110
-110
-110
-110
-110
-110
-110
-110
-110
-110
-110
-111
-110
-110
-110
-110
-110
-110
-110
-110
-110
-110
-110
-109
-109
-109
-109
-108
-108
-109
-109
-108
-108
-108
-108
-108
-108
-108
-108
-108
-107
-107
-107
-107
-107
-107
-107
-107
-107
-106
-106
-106
-105
-105
-105
-106
-105
-105
-105
-104
-104
-104
-103
-103
-102
-102
-102
-102
-101
-101
-101
-100
-100
-100
-100
-99
-99
-98
-98
-98
-97
-96
-95
-95
-94
-93
-93
-92
-91
-91
-90
-89
-88
-88
-87
-86
-86
-85
-84
-84
-83
-82
-81
-80
-80
-79
-79
-79
-78
-78
-77
-77
-76
-76
-75
-75
-75
-75
-75
-74
-73
-73
-72
-73
-73
-72
-71
-71
-71
-71
-71
-70
-70
-69
-69
-68
-68
-68
-67
-66
-65
-65
-64
-63
-63
-62
-61
-61
-60
-60
-59
-58
-58
-57
-57
-56
-56
-56
-55
-55
-55
-55
-55
-55
-55
-54
-54
-54
-54
-54
-54
-54
-54
-54
-54
-54
-54
-55
-54
-54
-53
-53
-53
-53
-52
-52
-52
-51
-51
-50
-50
-50
-50
-50
-50
-50
-50
-50
-50
-50
-51
-50
-51
-50
-50
-51
-51
-51
-51
-51
-51
-52
-51
-52
-51
-52
-52
-53
-53
-52
-52
-53
-52
-53
-53
-54
-53
-54
-54
-55
-56
-56
-56
-56
-56
-57
-57
-58
-58
-58
-58
-59
-59
-60
-60
-60
-60
-60
-61
-61
-62
-62
-63
-63
-63
-64
-64
-64
-65
-65
-65
-65
-65
-65
-65
-66
-66
-67
-67
-67
-67
-67
-67
-67
-67
-67
-67
-68
-68
-68
-67
-67
-67
-66
-67
-67
-67
-67
-67
-66
-66
-66
-67
-67
-67
-67
-67
-67
-67
-67
-66
-66
-66
-67
-66
-66
-66
-66
-66
-66
-66
-66
-66
-66
-66
-67
-67
-68
-69
-70
-71
-72
-74
-76
-78
-79
-81
-84
-87
-90
-93
-96
-99
-102
-104
-107
-109
-109
-110
-110
-109
-108
-105
-101
-96
-90
-82
-73
-63
-51
-38
-23
-6
12
31
53
74
97
120
145
169
194
217
240
262
283
302
318
334
348
359
366
371
373
370
365
356
344
328
310
290
269
245
220
193
166
138
110
82
54
29
3
-21
-45
-65
-84
-101
-116
-129
-139
-149
-156
-161
-165
-168
-169
-169
-168
-166
-164
-162
-158
-154
-150
-146
-142
-138
-133
-129
-125
-120
-116
-112
-109
-105
-102
-98
-96
-93
-91
-88
-86
-84
-83
-81
-79
-79
-78
-77
-76
-75
-74
-74
-73
-73
-73
-72
-72
-72
-72
-72
-72
-72
-72
-72
-72
-71
-71
-71
-71
-70
-70
-70
-69
-69
-69
-68
-69
-68
-68
-68
-68
-67
-67
-67
-67
-67
-66
-67
-66
-66
-65
-65
-65
-65
-65
-65
-64
-64
-65
-64
-64
-64
-64
-64
-64
-64
-64
-64
-64
-64
-65
-64
-64
-64
-64
-64
-63
-63
-63
-63
-63
-63
-63
-63
-63
-63
-63
-63
-63
-62
-62
-61
-61
-61
-61
-60
-60
-60
-60
-61
-60
-60
-60
-60
-59
-59
-59
-59
-58
-58
-57
-57
-56
-56
-55
-55
-54
-54
-53
-53
-52
-51
-51
-50
-50
-49
-48
-48
-47
-46
-45
-45
-44
-44
-42
-42
-41
-40
-40
-39
-37
-36
-35
-35
-34
-33
-32
-31
-30
-29
-27
-27
-25
-24
-23
-22
-21
-20
-18
-18
-17
-15
-15
-12
-11
-10
-9
-7
-5
-3
-2
0
2
3
5
6
9
10
11
13
15
17
18
20
22
22
24
26
28
29
31
33
34
37
38
39
41
42
44
45
47
48
50
51
51
53
54
54
56
57
58
59
60
60
61
62
62
62
62
63
63
63
63
63
63
62
62
62
62
61
61
60
59
58
57
57
56
53
53
51
50
49
48
45
44
42
40
38
37
35
33
31
30
28
25
24
22
20
18
15
13
12
10
7
6
4
2
0
-2
-4
-6
-6
-7
-9
-11
-13
-14
-15
-17
-18
-19
-21
-21
-23
-24
-25
-26
-27
-29
-29
-30
-30
-30
-32
-32
-32
-33
-33
-34
-34
-34
-35
-35
-36
-36
-36
-35
-35
-36
-35
-35
-35
-35
-35
-35
-34
-34
-34
-34
-33
-33
-33
-33
-32
-32
-32
-33
-33
-32
-31
-31
-31
-31
-30
-30
-30
-30
-29
-29
-28
-28
-29
-28
-28
-28
-27
-27
-27
-26
-26
-25
-26
-26
-25
-25
-25
-25
-25
-25
-25
-25
-24
-24
-24
-24
-24
-24
-24
-24
-25
-24
-24
-24
-24
-24
-24
-24
-24
-24
-24
-24
-24
-24
-24
-24
-25
-26
-25
-25
-25
-25
-25
-24
-24
-24
-25
-25
-25
-25
-25
-25
-24
-24
-24
-24
-24
-25
-25
-25
-24
-24
-24
-24
-23
-24
-24
-23
-24
-24
-24
-24
-24
-24
-24
-24
-24
-24
-24
-24
-24
-24
-24
-24
-23
-23
-23
-23
-23
-23
-23
-22
-22
-22
-22
-22
-22
-21
-22
-21
-22
-21
-21
-20
-20
-20
-19
-20
-20
-20
-20
-20
-19
-19
-19
-19
-19
-19
-20
-19
-19
-18
-18
-18
-18
-18
-18
-17
-17
-18
-18
-18
-17
-17
-17
-17
-17
-17
-17
-16
-17
-16
-16
-16
-16
-16
-15
-15
-15
-15
-15
-15
-15
-16
-16
-16
-15
-16
-16
-16
-15
-15
-15
-16
-16
-16
-16
-16
-16
-16
-16
-16
-17
-17
-17
-17
-16
-17
-17
-17
-17
-16
-17
-17
-17
-17
-17
-17
-18
-17
-17
-17
-17
-18
-17
-18
-18
-18
-19
-19
-19
-19
-19
-19
-19
-19
-19
-19
-19
-19
-19
-19
-19
-19
-19
-19
-20
-19
-20
-19
-19
-19
-19
-19
-19
-19
-19
-19
-19
-19
-19
-19
-19
-19
-19
-19
-19
-20
-20
-20
-19
-19
-19
-19
-19
-19
-19
-19
-19
-19
-19
-19
-19
-19
-19
-19
-19
-19
-19
-19
-19
-19
-18
-18
-18
-18
-18
-18
-18
-18
-18
-18
-17
-17
-18
-18
-17
-17
-18
-18
-17
-17
-17
-17
-17
-17
-17
-17
-17
-17
-17
-17
-17
-17
-17
-18
-18
-18
-18
-18
-18
-19
-19
-19
-19
-19
-19
-19
-19
-20
-20
-20
-20
-20
-20
-20
-21
-21
-21
-21
-21
-22
-22
-22
-22
-22
-22
-22
-22
-23
-23
-23
-24
-24
-24
-24
-24
-25
-25
-25
-25
-25
-25
-25
-25
-25
-25
-26
-26
-26
-26
-26
-26
-26
-26
-27
-27
-27
-27
-27
-27
-27
-28
-28
-28
-28
-28
-28
-28
-28
-27
-27
-28
-27
-27
-27
-27
-27
-26
-27
-27
-26
-26
-26
-25
-24
-24
-24
-24
-23
-24
-23
-23
-23
-23
-22
-22
-23
-23
-23
-22
-22
-22
-22
-22
-22
-22
-22
-22
-22
-23
-22
-22
-22
-22
-23
-22
-23
-23
-23
-22
-22
-21
-21
-21
-20
-20
-19
-19
-19
-19
-19
-18
-17
-17
-17
-17
-18
-18
-18
-18
-18
-18
-18
-18
-18
-19
-19
-20
-20
-20
-21
-20
-21
-22
-22
-23
-23
-23
-23
-23
-24
-23
-24
-24
-24
-24
-25
-25
-25
-25
-26
-26
-27
-27
-28
-28
-29
-30
-31
-30
-31
-32
-32
-33
-34
-34
-35
-36
-37
-38
-38
-40
-40
-41
-42
-44
-44
-46
-48
-48
-49
-50
-50
-51
-52
-53
-55
-55
-56
-56
-57
-58
-58
-59
-59
-60
-61
-62
-62
-62
-62
-62
-62
-62
-63
-64
-64
-64
-64
-65
-65
-65
-65
-65
-65
-66
-67
-66
-66
-66
-66
-66
-66
-67
-66
-66
-67
-67
-66
-67
-67
-67
-67
-67
-67
-67
-67
-68
-68
-69
-69
-70
-72
-73
-74
-76
-78
-80
-83
-86
-89
-92
-95
-98
-102
-104
-107
-111
-112
-113
-113
-113
-112
-111
-107
-103
-98
-91
-83
-73
-61
-48
-33
-17
1
21
42
64
88
112
138
164
190
217
242
266
289
311
330
348
365
379
390
398
403
404
401
395
386
373
358
339
319
297
273
249
223
195
167
140
113
86
60
36
13
-8
-28
-47
-61
-75
-86
-96
-103
-110
-113
-117
-118
-119
-118
-116
-114
-110
-106
-102
-97
-93
-89
-83
-78
-73
-68
-64
-58
-53
-49
-46
-41
-38
-34
-30
-28
-24
-23
-21
-18
-17
-15
-13
-11
-10
-8
-7
-6
-5
-5
-4
-3
-2
-2
-2
-1
0
1
1
1
2
2
3
3
4
5
5
6
7
7
7
7
8
8
9
10
9
10
10
11
11
11
11
12
12
12
13
13
14
14
15
15
15
15
16
16
17
17
18
18
18
18
18
18
19
19
19
20
20
20
20
21
21
20
20
20
21
21
21
22
21
21
21
21
21
22
22
22
22
22
22
22
22
22
22
22
23
23
23
23
23
23
24
24
24
25
25
26
26
26
27
27
28
28
28
29
28
30
30
30
30
31
31
31
32
33
34
34
35
36
37
38
38
39
40
41
42
43
44
45
46
46
46
48
49
50
51
52
53
54
55
57
58
59
59
60
62
63
64
66
67
69
69
70
72
73
75
77
79
80
81
83
85
87
88
90
92
94
95
96
98
99
101
103
104
106
107
109
110
113
114
115
116
118
119
120
122
124
125
126
127
128
128
130
131
132
133
134
134
136
136
137
137
139
138
140
140
140
140
140
141
141
140
140
140
140
141
140
140
139
139
139
138
137
135
135
134
132
132
131
129
127
125
123
122
121
119
116
115
113
111
109
107
105
103
100
98
96
95
92
89
87
85
83
81
79
77
75
73
71
69
67
65
63
61
59
57
55
53
52
50
48
46
44
43
41
40
39
37
36
34
33
32
31
30
28
28
27
26
24
23
22
21
20
20
19
18
18
17
16
16
15
15
13
13
12
12
12
12
11
11
10
9
9
9
9
9
9
8
8
8
8
9
8
8
8
8
7
7
7
8
7
7
7
7
6
6
6
6
6
6
6
6
5
6
5
5
5
5
5
4
4
4
4
4
3
3
3
3
3
3
3
3
2
3
3
3
3
2
2
2
1
0
1
0
0
0
0
0
-1
-1
-1
-2
-2
-2
-3
-3
-3
-3
-3
-4
-4
-4
-5
-4
-4
-5
-5
-5
-5
-5
-5
-5
-5
-6
-6
-5
-6
-6
-6
-6
-6
-6
-6
-6
-6
-6
-6
-5
-5
-5
-5
-5
-5
-5
-5
-5
-6
-6
-5
-5
-6
-5
-5
-6
-5
-5
-5
-4
-4
-4
-5
-5
-5
-4
-4
-5
-4
-4
-4
-4
-4
-5
-5
-4
-4
-4
-4
-3
-3
-3
-3
-3
-3
-3
-3
-3
-2
-2
-2
-2
-3
-3
-3
-3
-3
-2
-3
-3
-3
-3
-3
-3
-3
-3
-4
-3
-4
-5
-5
-5
-5
-6
-6
-6
-6
-6
-6
-6
-6
-7
-7
-7
-7
-8
-8
-8
-8
-8
-9
-9
-9
-10
-10
-10
-10
-10
-11
-11
-11
-12
-12
-12
-13
-13
-14
-14
-14
-15
-16
-16
-16
-17
-18
-18
-18
-19
-19
-19
-19
-19
-19
-19
-20
-20
-21
-21
-21
-21
-22
-22
-23
-23
-24
-24
-25
-25
-25
-25
-25
-26
-26
-27
-27
-27
-28
-28
-28
-28
-29
-29
-29
-29
-30
-30
-29
-29
-29
-30
-30
-30
-30
-31
-31
-32
-32
-32
-32
-32
-33
-33
-33
-33
-34
-34
-33
-33
-33
-34
-34
-34
-34
-34
-34
-35
-35
-35
-36
-36
-36
-36
-36
-37
-37
-37
-37
-37
-37
-37
-38
-38
-38
-38
-38
-39
-39
-39
-39
-39
-40
-40
-41
-41
-42
-42
-42
-42
-42
-42
-43
-44
-44
-44
-44
-44
-44
-44
-44
-45
-45
-45
-45
-45
-45
-45
-45
-45
-44
-43
-44
-43
-43
-43
-42
-42
-41
-41
-41
-41
-41
-40
-41
-41
-40
-40
-40
-40
-40
-40
-39
-40
-40
-40
-40
-41
-40
-40
-39
-39
-40
-39
-39
-39
-39
-39
-38
-38
-37
-37
-37
-36
-36
-36
-35
-36
-35
-35
-35
-35
-35
-35
-36
-36
-36
-36
-36
-36
-37
-37
-36
-37
-38
-37
-38
-38
-38
-38
-38
-38
-39
-38
-38
-39
-39
-39
-39
-39
-39
-40
-40
-40
-40
-40
-40
-41
-41
-41
-41
-41
-42
-42
-42
-43
-43
-43
-44
-44
-44
-44
-45
-45
-45
-45
-46
-46
-48
-48
-48
-48
-49
-49
-50
-51
-51
-51
-52
-52
-52
-52
-53
-53
-53
-53
-54
-54
-54
-54
-54
-55
-56
-56
-55
-56
-57
-56
-56
-56
-57
-57
-57
-57
-57
-57
-58
-58
-58
-58
-58
-58
-58
-59
-59
-59
-59
-59
-59
-58
-58
-58
-58
-58
-58
-58
-58
-59
-59
-58
-58
-58
-60
-60
-61
-63
-64
-65
-67
-69
-71
-73
-77
-80
-82
-86
-90
-92
-96
-98
-101
-103
-104
-104
-105
-104
-102
-99
-95
-88
-82
-72
-63
-52
-38
-23
-7
11
31
52
74
98
121
146
172
196
221
245
269
291
311
330
346
361
373
382
389
392
391
388
381
370
355
338
319
298
274
250
224
197
170
142
115
87
60
35
11
-12
-33
-53
-69
-84
-98
-108
-117
-125
-131
-135
-137
-138
-138
-137
-136
-133
-130
-126
-123
-119
-114
-110
-105
-101
-96
-91
-86
-82
-78
-73
-69
-65
-61
-58
-54
-52
-49
-47
-44
-43
-40
-39
-37
-36
-36
-35
-34
-34
-32
-32
-32
-31
-31
-31
-31
-31
-30
-30
-30
-30
-30
-29
-29
-28
-28
-28
-28
-28
-28
-28
-27
-27
-26
-26
-25
-25
-25
-24
-24
-24
-24
-23
-24
-23
-23
-23
-22
-22
-22
-21
-21
-21
-20
-21
-21
-20
-20
-20
-20
-20
-20
-19
-19
-19
-18
-18
-18
-18
-18
-18
-18
-16
-16
-16
-16
-16
-15
-15
-15
-14
-14
-14
-13
-13
-12
-12
-12
-11
-11
-11
-11
-10
-9
-8
-8
-7
-8
-7
-6
-6
-6
-5
-4
-3
-3
-3
-2
-2
-2
-1
0
1
1
2
3
3
4
5
5
6
6
7
9
9
9
10
11
11
12
13
14
15
16
16
17
18
19
20
21
22
22
24
24
26
27
28
29
29
31
32
34
35
37
38
40
41
42
44
45
46
48
49
51
53
54
55
57
58
60
62
63
65
67
69
71
72
74
76
78
79
81
83
85
86
87
89
90
92
93
95
96
98
99
100
101
103
104
105
105
107
107
108
109
111
111
112
113
113
114
114
115
116
116
117
117
117
118
118
118
118
117
117
117
116
117
116
115
114
113
113
113
111
110
109
108
108
105
105
102
102
100
97
96
94
92
89
86
85
81
79
78
75
73
71
69
67
63
61
58
56
54
52
49
47
44
42
39
36
34
32
30
28
26
24
22
20
19
17
15
14
11
10
8
6
5
4
3
1
0
-2
-3
-4
-5
-6
-8
-8
-9
-10
-11
-12
-13
-14
-14
-14
-15
-16
-16
-17
-17
-17
-18
-18
-18
-18
-19
-19
-19
-20
-21
-21
-22
-22
-22
-22
-23
-23
-24
-24
-24
-25
-26
-26
-26
-26
-26
-27
-27
-27
-29
-28
-30
-30
-30
-31
-31
-32
-33
-33
-34
-34
-34
-35
-36
-36
-37
-37
-38
-38
-39
-39
-40
-40
-40
-40
-41
-41
-41
-42
-42
-42
-42
-42
-42
-42
-42
-43
-42
-42
-42
-42
-42
-42
-43
-43
-43
-43
-44
-43
-44
-44
-44
-44
-44
-44
-44
-44
-45
-45
-45
-45
-45
-45
-45
-45
-45
-45
-45
-46
-46
-46
-46
-45
-45
-45
-46
-46
-46
-46
-46
-45
-45
-45
-45
-46
-46
-46
-46
-46
-47
-47
-47
-47
-47
-47
-48
-48
-48
-48
-48
-48
-48
-49
-49
-49
-49
-50
-49
-50
-50
-50
-50
-49
-50
-50
-50
-50
-50
-50
-50
-49
-50
-50
-50
-50
-50
-50
-51
-50
-50
-50
-50
-49
-49
-49
-49
-49
-49
-49
-49
-49
-49
-49
-49
-49
-49
-48
-48
-49
-49
-49
-49
-49
-49
-49
-49
-50
-50
-50
-50
-51
-51
-51
-51
-51
-52
-52
-53
-53
-53
-53
-53
-53
-52
-53
-53
-53
-53
-54
-53
-54
-54
-53
-54
-54
-54
-54
-54
-54
-55
-54
-54
-55
-54
-54
-54
-55
-55
-55
-55
-55
-55
-55
-56
-56
-57
-56
-57
-57
-58
-58
-58
-57
-58
-58
-58
-58
-58
-58
-59
-60
-59
-60
-60
-59
-59
-59
-60
-60
-61
-60
-60
-60
-60
-60
-60
-60
-60
-60
-60
-61
-61
-62
-62
-62
-62
-63
-63
-64
-64
-64
-65
-65
-66
-66
-66
-67
-67
-67
-67
-68
-68
-69
-68
-70
-69
-69
-70
-71
-71
-71
-71
-71
-71
-71
-71
-71
-71
-71
-71
-72
-72
-72
-72
-72
-72
-72
-73
-73
-73
-73
-73
-73
-74
-74
-73
-74
-73
-73
-73
-73
-73
-73
-73
-73
-72
-72
-73
-73
-73
-73
-72
-71
-71
-71
-71
-70
-70
-69
-69
-69
-69
-68
-67
-66
-66
-65
-65
-64
-63
-63
-61
-60
-59
-58
-57
-56
-55
-54
-52
-51
-51
-50
-49
-48
-47
-46
-46
-45
-45
-45
-44
-43
-43
-42
-41
-40
-40
-39
-39
-37
-37
-36
-35
-34
-33
-32
-32
-31
-30
-29
-29
-28
-26
-25
-25
-24
-24
-23
-22
-22
-22
-22
-21
-21
-21
-21
-21
-21
-21
-20
-20
-20
-19
-18
-18
-19
-18
-18
-18
-18
-18
-18
-18
-18
-18
-18
-18
-18
-19
-19
-19
-19
-19
-19
-19
-20
-20
-20
-20
-20
-20
-20
-21
-21
-21
-21
-21
-22
-21
-22
-22
-21
-22
-22
-22
-22
-22
-22
-23
-24
-24
-24
-24
-24
-24
-24
-25
-25
-26
-26
-27
-26
-26
-26
-27
-27
-27
-26
-26
-26
-26
-26
-27
-26
-26
-26
-25
-26
-26
-25
-25
-25
-24
-24
-24
-24
-23
-23
-23
-23
-23
-23
-23
-23
-23
-23
-23
-23
-23
-23
-23
-23
-22
-22
-22
-22
-23
-23
-24
-24
-25
-26
-26
-27
-28
-30
-33
-34
-37
-39
-42
-45
-47
-50
-53
-56
-59
-61
-63
-65
-65
-64
-63
-62
-58
-55
-49
-42
-34
-25
-15
-1
13
29
47
66
86
106
129
152
176
200
224
248
271
292
313
331
349
364
378
389
398
404
406
406
401
393
383
369
352
333
312
289
265
240
213
185
158
131
104
78
52
29
7
-15
-33
-50
-65
-78
-88
-98
-105
-110
-114
-117
-118
-118
-118
-116
-113
-110
-106
-102
-98
-93
-89
-85
-80
-75
-71
-67
-63
-58
-54
-51
-48
-45
-42
-39
-36
-33
-31
-28
-27
-26
-25
-23
-22
-22
-20
-19
-18
-18
-17
-17
-17
-16
-16
-16
-15
-16
-15
-15
-15
-14
-14
-15
-15
-15
-15
-15
-14
-14
-14
-14
-14
-14
-15
-14
-14
-14
-14
-13
-13
-13
-13
-13
-13
-13
-13
-13
-13
-13
-13
-13
-13
-12
-12
-12
-12
-11
-11
-10
-11
-11
-10
-10
-10
-10
-10
-9
-8
-8
-9
-8
-8
-8
-7
-7
-7
-7
-6
-6
-6
-5
-5
-5
-5
-5
-4
-3
-4
-4
-3
-2
-3
-3
-3
-2
-1
-2
0
0
0
0
0
1
1
2
2
3
4
3
4
5
5
5
5
6
7
7
7
8
9
9
10
11
11
12
13
14
14
15
16
16
17
18
18
19
20
21
22
23
24
25
26
27
28
29
30
32
33
34
35
36
38
39
40
41
43
44
46
47
48
50
52
53
55
56
58
59
61
62
64
65
67
68
70
71
73
75
77
78
81
82
84
85
87
89
91
93
94
96
97
99
100
102
102
104
106
107
108
110
111
112
112
113
114
115
116
116
117
117
117
117
118
117
117
117
117
118
118
118
118
118
118
117
117
116
115
115
114
113
112
111
111
109
107
106
105
104
103
101
100
97
97
94
92
90
88
86
83
81
79
77
75
71
69
66
64
62
59
57
54
52
49
48
46
43
41
38
36
34
32
30
27
25
23
22
20
18
16
14
13
12
10
9
7
5
4
2
1
0
-1
-2
-4
-6
-7
-8
-9
-9
-11
-11
-12
-13
-14
-14
-16
-17
-17
-17
-17
-17
-18
-19
-20
-20
-21
-21
-21
-22
-22
-22
-23
-23
-23
-24
-24
-24
-25
-25
-26
-26
-26
-26
-26
-27
-27
-27
-28
-27
-27
-28
-28
-28
-28
-28
-27
-28
-28
-28
-28
-28
-28
-28
-28
-29
-29
-29
-29
-29
-29
-29
-29
-29
-30
-30
-30
-30
-30
-30
-30
-29
-29
-29
-29
-29
-29
-29
-28
-27
-27
-26
-26
-25
-25
-24
-24
-23
-23
-22
-21
-21
-20
-20
-20
-20
-19
-19
-19
-19
-18
-18
-17
-17
-17
-16
-16
-15
-15
-14
-14
-14
-13
-13
-13
-12
-13
-12
-12
-11
-11
-10
-10
-10
-9
-9
-9
-9
-9
-8
-8
-8
-8
-7
-6
-6
-6
-5
-5
-4
-3
-3
-3
-2
-2
-1
-1
0
1
1
1
2
2
2
3
4
4
4
5
6
6
7
7
7
8
8
9
9
9
9
10
10
10
10
10
11
11
11
12
12
13
13
14
13
13
14
14
14
14
14
15
15
16
15
15
16
16
16
16
16
17
17
17
17
17
18
18
18
18
18
18
19
19
19
18
18
18
18
18
17
18
18
18
18
18
18
18
18
17
17
17
17
17
17
17
16
17
16
17
16
16
17
17
16
16
16
16
16
16
16
16
16
16
16
16
16
15
15
16
16
15
16
16
16
16
16
17
17
16
17
17
17
18
18
18
17
17
18
17
17
18
18
18
18
18
19
19
19
19
19
19
19
19
19
19
19
19
19
19
19
19
19
20
20
20
20
20
20
20
20
20
20
19
19
19
19
19
18
19
19
19
19
18
18
18
18
18
18
19
19
18
18
18
18
18
19
18
18
19
18
18
19
19
19
19
19
20
20
19
19
20
20
20
20
20
19
19
18
19
19
19
19
19
18
18
18
18
18
19
19
18
18
18
18
17
18
17
17
17
18
18
18
18
19
19
19
19
19
19
19
19
20
20
20
19
19
19
19
20
19
19
19
20
20
19
20
20
20
19
19
19
20
19
19
19
18
18
18
18
18
18
18
18
18
18
18
18
17
17
17
17
17
17
17
17
16
16
16
16
16
15
15
15
15
15
15
15
15
14
14
14
14
14
14
14
13
12
12
12
13
13
13
12
12
12
12
12
12
12
12
12
11
12
12
11
10
10
10
10
10
10
10
10
9
10
10
10
10
10
9
10
10
10
10
10
9
9
9
9
9
9
10
10
9
10
10
10
10
10
10
11
11
11
12
12
12
12
13
14
14
14
15
16
16
16
17
17
18
18
19
19
20
20
21
21
20
21
22
22
22
23
23
23
23
24
24
24
24
24
25
25
25
25
26
26
27
27
28
28
29
29
29
30
30
30
30
30
31
30
30
30
30
30
30
28
28
28
26
26
26
26
25
25
24
24
23
23
22
22
21
21
20
20
19
19
19
17
17
17
16
15
15
14
14
13
13
12
11
11
10
9
9
9
7
7
6
6
5
4
4
3
3
3
2
2
0
0
-1
-1
-2
-2
-2
-3
-4
-5
-4
-5
-6
-6
-6
-7
-7
-7
-7
-7
-8
-7
-7
-8
-8
-8
-8
-8
-8
-8
-8
-9
-9
-9
-8
-8
-8
-8
-8
-8
-8
-8
-8
-9
-9
-9
-9
-9
-9
-9
-10
-9
-10
-10
-10
-10
-10
-11
-11
-11
-12
-12
-12
-13
-14
-14
-16
-18
-19
-21
-23
-25
-27
-29
-32
-35
-36
-39
-42
-45
-46
-49
-50
-53
-53
-54
-52
-52
-49
-46
-41
-37
-30
-23
-12
-1
12
26
42
59
78
98
119
141
164
187
211
236
259
282
304
325
344
362
378
393
405
413
421
423
423
420
412
402
388
372
353
332
309
284
259
232
205
177
149
122
95
69
44
21
0
-20
-38
-53
-67
-79
-89
-96
-103
-107
-110
-111
-112
-111
-109
-107
-104
-100
-97
-92
-88
-83
-78
-74
-68
-64
-59
-55
-51
-47
-43
-39
-37
-33
-30
-27
-26
-23
-21
-19
-18
-16
-14
-14
-13
-12
-11
-10
-9
-9
-9
-9
-9
-8
-7
-7
-6
-6
-6
-5
-5
-5
-5
-4
-4
-3
-2
-2
-2
-2
-1
-1
-1
0
0
1
1
2
2
2
2
3
3
4
4
4
4
4
4
5
5
5
5
6
7
7
8
9
9
9
10
11
11
12
12
12
13
13
14
14
14
15
15
16
17
16
17
18
18
18
18
19
19
19
20
20
20
21
22
22
22
22
23
23
23
24
24
24
25
25
26
26
27
28
28
29
29
30
30
31
31
31
32
32
33
34
35
36
36
37
37
38
39
39
40
41
42
43
43
44
44
45
46
46
48
49
49
50
50
52
52
53
55
56
56
57
58
59
60
61
63
63
65
66
67
69
70
71
72
73
75
76
77
78
80
81
83
84
86
87
88
90
91
92
94
96
98
99
101
103
105
106
108
109
110
113
114
116
117
120
120
121
123
124
125
128
129
130
132
132
134
135
136
137
137
139
140
140
142
142
143
143
143
144
145
145
146
147
147
147
147
148
148
148
147
148
148
148
147
147
147
146
146
145
145
145
144
143
141
141
139
138
136
135
133
131
130
128
127
124
122
120
117
115
113
111
109
107
105
102
100
97
94
92
90
88
85
83
80
78
76
74
71
69
66
65
64
61
59
57
55
53
51
50
48
46
44
43
42
39
38
36
35
34
33
31
30
30
28
27
26
25
24
22
21
21
21
19
19
18
17
16
15
14
14
14
13
12
12
11
11
10
10
9
8
8
8
7
6
6
6
5
5
5
5
4
4
4
4
3
3
3
3
2
2
2
2
2
1
1
1
1
0
0
0
1
0
0
-1
-1
-1
-1
-1
-2
-1
-1
-2
-2
-2
-3
-2
-3
-3
-3
-3
-3
-3
-3
-3
-3
-4
-4
-4
-5
-5
-5
-5
-5
-5
-5
-6
-6
-6
-7
-7
-6
-6
-6
-6
-7
-7
-7
-7
-8
-8
-8
-8
-8
-9
-9
-9
-10
-9
-10
-9
-9
-9
-9
-9
-10
-10
-11
-11
-10
-10
-10
-11
-10
-10
-10
-11
-10
-11
-11
-11
-11
-11
-10
-11
-11
-11
-11
-11
-12
-12
-12
-12
-12
-12
-12
-12
-12
-12
-12
-12
-11
-11
-11
-11
-11
-11
-11
-11
-11
-11
-11
-11
-10
-10
-10
-11
-11
-11
-11
-10
-11
-11
-11
-11
-11
-10
-10
-10
-10
-11
-10
-10
-11
-11
-11
-12
-11
-12
-12
-12
-12
-11
-11
-11
-11
-11
-11
-11
-11
-12
-11
-11
-11
-11
-11
-12
-11
-12
-12
-11
-11
-11
-11
-11
-11
-11
-11
-11
-11
-11
-11
-12
-11
-11
-12
-12
-12
-12
-12
-11
-12
-12
-12
-12
-12
-12
-12
-12
-12
-12
-12
-12
-12
-12
-12
-13
-12
-13
-13
-12
-13
-13
-13
-13
-13
-13
-13
-13
-13
-13
-13
-13
-14
-14
-14
-14
-15
-15
-15
-15
-15
-16
-16
-16
-17
-17
-18
-18
-19
-19
-20
-21
-21
-22
-22
-22
-23
-24
-24
-24
-24
-25
-26
-26
-26
-26
-26
-28
-28
-29
-29
-29
-29
-29
-29
-30
-31
-30
-31
-31
-31
-31
-31
-32
-32
-32
-32
-32
-33
-33
-34
-33
-34
-34
-34
-35
-35
-35
-35
-35
-36
-36
-36
-36
-36
-36
-37
-37
-37
-37
-37
-38
-38
-38
-39
-39
-39
-40
-40
-40
-41
-41
-41
-41
-41
-41
-41
-41
-41
-42
-42
-43
-43
-43
-43
-43
-44
-44
-44
-44
-44
-44
-44
-45
-45
-45
-45
-45
-46
-46
-46
-46
-46
-46
-47
-47
-47
-48
-47
-47
-48
-48
-48
-48
-48
-48
-48
-49
-48
-48
-49
-49
-49
-50
-50
-50
-50
-51
-51
-51
-51
-51
-50
-50
-50
-50
-51
-50
-51
-51
-51
-50
-51
-51
-51
-52
-51
-52
-52
-51
-51
-51
-51
-51
-51
-52
-52
-52
-52
-53
-53
-53
-52
-53
-53
-53
-53
-54
-54
-53
-53
-53
-53
-54
-54
-54
-54
-54
-54
-55
-55
-55
-54
-56
-56
-55
-56
-56
-56
-56
-55
-56
-56
-56
-56
-56
-55
-55
-55
-56
-55
-55
-55
-55
-55
-55
-55
-56
-56
-56
-55
-55
-55
-55
-55
-55
-55
-55
-54
-54
-54
-54
-53
-53
-52
-53
-52
-52
-52
-51
-51
-50
-50
-50
-49
-48
-48
-47
-47
-47
-46
-46
-46
-46
-45
-45
-45
-45
-45
-45
-44
-44
-44
-44
-45
-45
-45
-45
-45
-45
-45
-45
-45
-45
-45
-46
-45
-46
-46
-45
-44
-45
-44
-44
-44
-43
-43
-43
-42
-42
-42
-41
-41
-41
-42
-41
-42
-41
-41
-40
-41
-40
-40
-40
-41
-40
-41
-40
-40
-40
-41
-41
-41
-41
-42
-42
-42
-42
-43
-42
-42
-42
-42
-42
-43
-43
-43
-43
-44
-44
-43
-44
-44
-44
-44
-43
-44
-44
-44
-43
-43
-42
-43
-42
-42
-42
-41
-41
-41
-40
-40
-39
-39
-39
-38
-38
-37
-37
-37
-37
-36
-36
-35
-35
-35
-35
-34
-33
-33
-33
-33
-33
-33
-33
-32
-33
-33
-32
-32
-33
-32
-32
-32
-31
-31
-31
-31
-31
-31
-31
-31
-31
-30
-30
-31
-31
-30
-31
-30
-30
-30
-30
-30
-30
-30
-30
-29
-29
-29
-29
-29
-29
-29
-29
-29
-29
-29
-29
-29
-29
-30
-31
-31
-33
-34
-36
-38
-39
-41
-43
-46
-48
-52
-54
-57
-59
-62
-64
-66
-68
-68
-68
-68
-67
-65
-62
-58
-52
-45
-39
-29
-18
-5
8
24
41
60
80
101
123
148
172
195
220
245
268
291
312
333
351
368
382
395
405
412
416
417
413
406
396
383
367
348
327
304
280
254
227
198
171
141
114
86
59
34
10
-12
-33
-52
-68
-82
-94
-105
-113
-120
-125
-129
-131
-131
-131
-130
-128
-125
-121
-117
-114
-110
-106
-102
-96
-91
-87
-82
-78
-73
-70
-65
-62
-59
-55
-53
-50
-47
-45
-43
-41
-40
-38
-37
-35
-34
-33
-33
-32
-31
-31
-30
-30
-30
-30
-29
-29
-29
-29
-29
-29
-28
-28
-28
-28
-27
-27
-27
-27
-28
-27
-27
-26
-26
-26
-25
-25
-25
-24
-24
-24
-24
-24
-23
-23
-22
-22
-23
-22
-22
-22
-21
-22
-22
-21
-21
-22
-21
-21
-21
-22
-22
-23
-23
-23
-22
-22
-22
-22
-23
-23
-23
-23
-22
-23
-23
-23
-22
-23
-23
-23
-23
-23
-24
-23
-23
-23
-23
-23
-23
-23
-22
-22
-22
-21
-21
-22
-21
-21
-20
-20
-20
-20
-20
-19
-19
-18
-18
-17
-17
-17
-16
-16
-16
-16
-16
-15
-15
-14
-13
-13
-13
-13
-13
-12
-11
-11
-10
-10
-9
-8
-8
-7
-7
-6
-6
-5
-4
-3
-3
-2
-1
-1
0
1
3
2
4
5
6
7
8
9
10
11
13
14
15
16
17
18
20
21
22
24
25
27
28
29
32
33
34
36
37
39
40
42
44
45
46
48
50
51
52
55
56
58
60
61
63
64
66
68
69
70
72
73
75
76
78
78
80
80
82
83
85
86
86
88
89
90
90
91
92
93
93
94
95
95
95
95
96
96
96
96
96
96
96
97
97
96
96
95
94
94
93
92
91
90
90
87
86
86
83
82
81
79
78
76
75
72
71
69
67
65
63
60
59
56
54
51
48
47
43
41
39
36
34
31
29
26
23
21
19
15
13
10
7
5
3
0
-2
-5
-7
-9
-10
-13
-13
-15
-17
-19
-21
-22
-24
-26
-27
-28
-30
-31
-32
-34
-35
-37
-38
-39
-40
-40
-42
-42
-43
-44
-45
-46
-46
-47
-49
-49
-49
-51
-51
-51
-52
-53
-53
-53
-54
-54
-54
-55
-56
-56
-56
-56
-57
-57
-58
-58
-58
-58
-58
-59
-60
-59
-60
-60
-60
-60
-60
-60
-60
-60
-60
-60
-61
-61
-61
-61
-62
-61
-62
-62
-63
-62
-62
-62
-62
-62
-62
-63
-63
-63
-63
-64
-64
-63
-64
-65
-65
-65
-65
-66
-66
-66
-67
-67
-67
-68
-68
-68
-68
-68
-68
-68
-69
-69
-70
-70
-70
-70
-70
-71
-71
-71
-72
-72
-72
-72
-72
-73
-73
-73
-74
-74
-74
-74
-75
-74
-74
-74
-74
-75
-74
-75
-75
-75
-75
-75
-75
-75
-75
-76
-76
-75
-76
-76
-75
-76
-76
-77
-76
-76
-77
-77
-77
-77
-77
-77
-77
-77
-77
-77
-76
-77
-76
-77
-77
-77
-77
-77
-77
-77
-78
-78
-78
-78
-78
-78
-78
-78
-79
-79
-79
-79
-79
-78
-78
-79
-79
-79
-79
-79
-79
-80
-80
-80
-80
-79
-79
-79
-79
-79
-79
-79
-79
-80
-80
-80
-80
-80
-80
-81
-80
-81
-81
-81
-80
-80
-80
-81
-81
-81
-81
-80
-81
-81
-81
-81
-81
-82
-82
-82
-81
-82
-82
-82
-82
-82
-83
-82
-83
-83
-83
-83
-83
-83
-84
-83
-83
-83
-83
-84
-84
-84
-84
-84
-84
-83
-83
-83
-83
-83
-83
-84
-83
-84
-84
-85
-84
-85
-85
-85
-86
-86
-85
-86
-86
-86
-86
-85
-85
-85
-85
-85
-85
-86
-86
-85
-85
-85
-86
-86
-87
-86
-87
-87
-86
-86
-86
-87
-87
-87
-87
-87
-88
-88
-87
-88
-88
-87
-87
-87
-87
-88
-88
-87
-86
-86
-85
-85
-85
-84
-85
-84
-84
-84
-84
-83
-83
-83
-83
-83
-83
-84
-84
-84
-83
-84
-84
-84
-85
-85
-85
-85
-86
-86
-87
-87
-88
-89
-89
-89
-90
-91
-91
-91
-91
-92
-92
-93
-93
-93
-93
-94
-94
-94
-95
-95
-95
-95
-95
-95
-95
-96
-96
-96
-96
-95
-96
-96
-96
-96
-96
-96
-96
-96
-96
-96
-96
-96
-95
-95
-95
-95
-95
-94
-93
-93
-93
-93
-92
-92
-91
-90
-90
-90
-88
-88
-87
-87
-86
-85
-84
-84
-83
-82
-82
-81
-80
-80
-79
-78
-77
-77
-76
-76
-75
-74
-73
-73
-72
-72
-71
-71
-70
-69
-68
-67
-67
-66
-65
-65
-64
-63
-63
-62
-61
-61
-60
-59
-59
-58
-58
-57
-56
-56
-55
-55
-54
-53
-53
-52
-52
-51
-51
-50
-50
-50
-50
-49
-49
-48
-49
-48
-48
-48
-48
-47
-46
-46
-46
-46
-45
-44
-44
-44
-43
-43
-42
-41
-41
-40
-40
-40
-40
-38
-38
-38
-37
-38
-38
-38
-38
-38
-39
-39
-39
-39
-39
-39
-40
-40
-40
-40
-41
-41
-41
-41
-41
-41
-41
-42
-41
-42
-42
-43
-43
-43
-43
-44
-44
-45
-45
-46
-46
-47
-46
-47
-47
-48
-48
-49
-49
-50
-50
-51
-51
-51
-52
-52
-53
-53
-54
-54
-55
-55
-56
-56
-56
-56
-57
-57
-57
-57
-58
-58
-59
-59
-59
-59
-59
-60
-60
-60
-60
-61
-60
-60
-60
-61
-61
-61
-61
-62
-62
-62
-62
-62
-61
-62
-62
-62
-63
-62
-63
-63
-62
-62
-62
-62
-62
-63
-63
-63
-62
-62
-62
-62
-62
-62
-61
-61
-62
-62
-62
-62
-62
-63
-63
-62
-63
-64
-66
-66
-68
-69
-71
-73
-75
-77
-81
-83
-86
-89
-93
-96
-97
-100
-102
-104
-105
-105
-104
-104
-101
-98
-94
-89
-81
-74
-64
-53
-40
-26
-10
8
28
48
70
93
116
140
165
190
215
238
260
282
302
321
337
352
363
372
378
381
381
377
370
358
344
327
308
287
263
238
212
