# Simple Text Format
# Sampling Rate (Hz):= 1200.00
# Resolution:= 12
# Labels:= ECG	 V1
# Age:=	23
# Gender:=	Masculino
-136
-136
-135
-136
-135
-135
-135
-135
-134
-135
-135
-134
-134
-133
-133
-132
-132
-132
-131
-131
-130
-130
-130
-129
-129
-129
-129
-128
-128
-128
-128
-127
-127
-127
-127
-127
-127
-127
-126
-127
-126
-126
-126
-126
-126
-126
-125
-126
-126
-126
-126
-127
-127
-128
-129
-129
-129
-130
-131
-132
-133
-134
-134
-136
-136
-137
-138
-139
-140
-140
-141
-142
-142
-143
-143
-144
-144
-145
-144
-145
-146
-146
-146
-145
-145
-145
-144
-144
-144
-144
-143
-143
-143
-142
-143
-142
-142
-142
-141
-142
-141
-141
-141
-140
-141
-140
-139
-140
-139
-139
-139
-140
-139
-140
-140
-139
-139
-139
-139
-139
-139
-139
-139
-139
-139
-139
-139
-139
-139
-139
-139
-139
-139
-139
-139
-140
-139
-139
-140
-140
-140
-141
-141
-141
-141
-141
-141
-141
-141
-141
-141
-141
-141
-141
-141
-141
-141
-141
-141
-141
-140
-141
-141
-141
-140
-140
-140
-139
-139
-139
-139
-139
-139
-139
-139
-139
-139
-140
-139
-139
-138
-137
-136
-134
-132
-129
-126
-122
-119
-115
-110
-105
-99
-93
-87
-80
-73
-66
-59
-52
-46
-40
-33
-28
-22
-16
-12
-8
-5
-4
-3
-2
-4
-6
-9
-14
-19
-26
-34
-43
-53
-64
-75
-87
-99
-112
-126
-139
-152
-167
-180
-193
-207
-219
-232
-243
-253
-262
-270
-277
-284
-290
-295
-299
-302
-304
-305
-306
-307
-306
-306
-303
-302
-298
-295
-292
-288
-285
-281
-277
-272
-268
-264
-260
-255
-251
-247
-243
-238
-234
-230
-226
-222
-217
-212
-208
-203
-199
-195
-190
-187
-183
-179
-175
-171
-167
-164
-161
-157
-155
-152
-150
-147
-145
-144
-141
-140
-139
-137
-136
-134
-134
-134
-133
-132
-131
-130
-130
-129
-129
-128
-128
-129
-127
-127
-128
-127
-127
-127
-127
-127
-126
-127
-126
-126
-125
-125
-124
-124
-124
-124
-123
-123
-123
-123
-122
-123
-123
-123
-121
-122
-121
-121
-121
-121
-120
-121
-121
-121
-120
-120
-121
-120
-120
-120
-120
-119
-119
-119
-119
-119
-119
-119
-119
-119
-119
-119
-118
-118
-118
-118
-118
-118
-118
-118
-118
-117
-117
-117
-117
-117
-118
-117
-117
-117
-117
-117
-116
-116
-116
-116
-116
-116
-115
-115
-115
-115
-115
-115
-115
-115
-115
-114
-114
-115
-115
-114
-113
-113
-113
-113
-113
-113
-113
-113
-112
-112
-112
-112
-112
-111
-112
-111
-111
-111
-111
-111
-110
-110
-110
-110
-110
-110
-109
-109
-109
-109
-108
-108
-108
-109
-108
-109
-109
-108
-108
-108
-108
-108
-108
-108
-107
-106
-107
-107
-106
-106
-106
-106
-105
-106
-106
-106
-106
-106
-106
-106
-105
-106
-106
-107
-107
-108
-107
-108
-108
-108
-109
-110
-110
-110
-111
-111
-112
-113
-113
-114
-114
-114
-115
-115
-116
-117
-117
-118
-118
-119
-120
-121
-121
-122
-123
-123
-124
-124
-125
-126
-126
-126
-127
-128
-128
-129
-129
-130
-130
-130
-131
-132
-133
-134
-134
-135
-135
-136
-136
-136
-136
-138
-138
-138
-138
-138
-139
-139
-139
-140
-139
-139
-139
-140
-140
-140
-140
-140
-140
-140
-140
-140
-140
-140
-139
-139
-139
-138
-139
-138
-139
-138
-138
-139
-138
-138
-138
-138
-137
-137
-137
-137
-136
-137
-136
-136
-136
-135
-136
-135
-135
-135
-135
-135
-135
-135
-135
-134
-135
-134
-134
-134
-134
-133
-133
-133
-133
-133
-133
-132
-133
-132
-132
-132
-132
-132
-132
-132
-132
-131
-132
-132
-132
-131
-132
-132
-132
-132
-131
-132
-132
-132
-132
-131
-132
-132
-132
-131
-132
-131
-131
-131
-131
-131
-132
-131
-131
-131
-131
-131
-131
-131
-131
-131
-132
-132
-132
-131
-131
-132
-132
-132
-131
-131
-131
-131
-132
-132
-131
-132
-132
-132
-132
-131
-131
-132
-131
-131
-131
-131
-131
-130
-131
-131
-131
-131
-131
-131
-131
-131
-131
-131
-131
-131
-131
-132
-132
-132
-131
-131
-131
-131
-131
-131
-131
-131
-131
-131
-130
-130
-130
-130
-130
-130
-130
-130
-130
-129
-129
-128
-128
-129
-129
-129
-128
-128
-127
-127
-127
-126
-126
-126
-126
-126
-126
-126
-126
-127
-126
-126
-126
-125
-125
-125
-125
-125
-125
-126
-125
-126
-126
-126
-126
-125
-126
-125
-125
-126
-125
-125
-125
-125
-125
-125
-125
-125
-125
-125
-125
-125
-126
-126
-125
-125
-126
-125
-125
-125
-125
-125
-125
-125
-125
-125
-124
-124
-125
-125
-125
-124
-124
-125
-125
-125
-125
-125
-125
-126
-126
-126
-125
-125
-126
-125
-125
-125
-126
-126
-126
-127
-126
-127
-127
-127
-128
-127
-128
-127
-127
-127
-128
-128
-128
-128
-128
-128
-129
-129
-129
-128
-128
-128
-128
-129
-129
-129
-129
-129
-128
-128
-128
-128
-128
-128
-128
-128
-128
-128
-128
-128
-128
-129
-129
-128
-129
-130
-130
-130
-129
-129
-129
-129
-129
-129
-130
-130
-130
-130
-130
-129
-130
-130
-130
-130
-130
-130
-130
-130
-129
-130
-129
-129
-129
-129
-129
-129
-129
-130
-129
-129
-129
-130
-130
-130
-131
-131
-131
-130
-131
-131
-131
-131
-131
-131
-131
-131
-132
-132
-132
-132
-132
-132
-131
-132
-133
-132
-132
-133
-132
-132
-132
-132
-132
-132
-132
-132
-132
-132
-132
-132
-132
-132
-132
-132
-133
-132
-132
-132
-132
-132
-132
-131
-132
-131
-131
-131
-132
-132
-132
-131
-131
-132
-132
-132
-132
-133
-133
-133
-133
-133
-133
-133
-133
-133
-133
-133
-133
-133
-133
-133
-132
-132
-132
-132
-133
-132
-133
-133
-132
-132
-132
-132
-132
-132
-132
-132
-132
-133
-133
-133
-133
-133
-132
-133
-133
-133
-133
-133
-133
-133
-133
-133
-133
-133
-134
-134
-133
-133
-134
-134
-134
-134
-134
-134
-134
-134
-134
-134
-133
-134
-134
-134
-134
-133
-133
-133
-133
-134
-133
-133
-133
-133
-133
-133
-133
-133
-133
-133
-133
-133
-133
-133
-133
-133
-132
-133
-133
-133
-133
-133
-133
-133
-133
-134
-134
-134
-135
-134
-134
-134
-134
-134
-134
-133
-133
-133
-133
-132
-132
-132
-131
-130
-130
-130
-129
-130
-129
-128
-128
-127
-127
-127
-126
-126
-126
-126
-125
-126
-126
-125
-125
-125
-125
-125
-126
-125
-125
-125
-125
-125
-125
-125
-125
-125
-125
-124
-124
-124
-124
-123
-123
-123
-122
-123
-123
-123
-123
-123
-123
-123
-123
-123
-124
-124
-124
-125
-126
-127
-128
-128
-130
-130
-132
-133
-134
-135
-136
-136
-137
-139
-139
-140
-140
-140
-141
-141
-141
-141
-141
-141
-141
-140
-141
-141
-140
-139
-139
-138
-138
-137
-138
-137
-136
-137
-136
-135
-135
-135
-135
-134
-135
-135
-135
-135
-135
-134
-134
-135
-134
-134
-134
-134
-134
-134
-134
-134
-135
-136
-135
-135
-135
-135
-136
-135
-136
-136
-136
-136
-136
-136
-136
-136
-136
-136
-136
-135
-136
-136
-135
-135
-136
-135
-135
-135
-135
-135
-135
-135
-134
-134
-134
-134
-134
-134
-134
-134
-135
-134
-134
-135
-135
-135
-135
-135
-135
-136
-136
-135
-135
-136
-135
-134
-133
-133
-132
-129
-127
-125
-121
-119
-114
-110
-106
-101
-95
-90
-84
-78
-71
-65
-58
-51
-45
-39
-33
-28
-23
-18
-14
-10
-7
-6
-5
-5
-6
-9
-12
-16
-21
-28
-35
-43
-53
-63
-74
-86
-98
-110
-124
-136
-150
-163
-176
-190
-202
-214
-225
-235
-245
-254
-262
-269
-275
-281
-285
-288
-291
-294
-295
-296
-296
-296
-295
-294
-292
-290
-287
-284
-281
-279
-275
-272
-268
-264
-261
-258
-255
-251
-247
-243
-240
-236
-231
-227
-224
-219
-215
-210
-205
-201
-196
-192
-187
-183
-179
-174
-170
-166
-163
-159
-156
-152
-150
-147
-145
-143
-140
-138
-136
-135
-134
-132
-130
-129
-129
-129
-127
-127
-126
-125
-126
-125
-125
-124
-124
-124
-124
-123
-123
-123
-122
-123
-123
-123
-122
-122
-122
-122
-122
-121
-121
-121
-121
-121
-120
-121
-120
-120
-119
-119
-119
-118
-118
-118
-118
-117
-118
-118
-118
-117
-117
-117
-117
-116
-117
-116
-116
-117
-116
-116
-116
-117
-117
-117
-118
-118
-118
-118
-118
-117
-116
-116
-115
-114
-114
-114
-113
-112
-111
-111
-111
-110
-110
-110
-110
-109
-110
-109
-108
-107
-106
-105
-104
-102
-102
-100
-100
-99
-98
-98
-98
-99
-101
-101
-102
-103
-104
-104
-105
-105
-105
-105
-104
-105
-104
-104
-104
-103
-103
-103
-103
-103
-103
-103
-103
-103
-104
-104
-103
-103
-102
-102
-102
-101
-101
-100
-100
-100
-99
-99
-99
-99
-99
-99
-99
-99
-99
-99
-100
-98
-99
-99
-98
-98
-98
-98
-98
-98
-98
-98
-99
-98
-99
-99
-99
-100
-100
-100
-100
-101
-101
-101
-101
-102
-102
-102
-103
-103
-104
-104
-105
-105
-106
-106
-107
-108
-108
-108
-109
-109
-110
-110
-110
-111
-112
-113
-113
-113
-114
-115
-116
-115
-116
-117
-118
-119
-119
-120
-121
-120
-121
-122
-123
-123
-124
-125
-125
-126
-126
-127
-128
-129
-130
-131
-132
-131
-132
-133
-134
-134
-135
-135
-136
-137
-137
-137
-138
-138
-139
-139
-139
-140
-140
-140
-139
-139
-140
-140
-139
-140
-139
-139
-139
-139
-139
-139
-140
-140
-140
-140
-140
-140
-140
-139
-139
-139
-138
-139
-138
-138
-137
-136
-137
-136
-136
-136
-135
-135
-135
-134
-135
-134
-133
-134
-134
-133
-133
-132
-133
-133
-132
-131
-132
-131
-132
-132
-131
-131
-131
-131
-131
-131
-131
-130
-131
-130
-130
-130
-130
-130
-129
-130
-130
-129
-130
-130
-130
-130
-130
-130
-131
-130
-130
-130
-130
-129
-129
-130
-129
-130
-129
-129
-129
-129
-129
-130
-130
-130
-129
-130
-130
-130
-130
-130
-131
-130
-131
-130
-131
-130
-130
-131
-131
-130
-131
-132
-132
-132
-132
-132
-132
-132
-131
-131
-131
-131
-130
-130
-130
-129
-130
-129
-129
-129
-130
-129
-130
-130
-130
-130
-130
-130
-129
-130
-130
-129
-128
-129
-128
-129
-129
-129
-129
-129
-129
-129
-129
-129
-129
-129
-129
-129
-129
-128
-128
-128
-128
-128
-128
-127
-127
-127
-127
-128
-128
-128
-128
-129
-129
-129
-128
-128
-128
-127
-127
-126
-125
-125
-125
-124
-125
-125
-124
-124
-125
-125
-125
-125
-125
-125
-125
-124
-124
-123
-122
-122
-122
-122
-121
-121
-121
-121
-121
-122
-122
-122
-122
-122
-122
-123
-122
-121
-121
-120
-119
-118
-117
-116
-116
-116
-116
-116
-117
-118
-118
-120
-120
-120
-120
-121
-121
-121
-120
-119
-120
-119
-119
-118
-119
-118
-118
-119
-119
-120
-119
-120
-120
-120
-120
-119
-119
-119
-119
-119
-119
-119
-119
-120
-120
-119
-119
-120
-120
-120
-120
-121
-121
-120
-121
-121
-121
-121
-121
-121
-120
-121
-121
-121
-121
-121
-121
-122
-122
-122
-122
-122
-122
-123
-122
-122
-122
-122
-122
-123
-122
-122
-123
-122
-123
-123
-122
-123
-123
-124
-123
-124
-124
-123
-123
-123
-123
-123
-124
-123
-123
-123
-123
-123
-123
-123
-124
-124
-124
-123
-124
-124
-124
-124
-124
-124
-124
-124
-124
-124
-124
-125
-126
-125
-126
-127
-127
-127
-126
-127
-128
-127
-127
-128
-128
-128
-128
-128
-128
-127
-127
-127
-128
-128
-128
-128
-127
-127
-127
-128
-128
-128
-128
-128
-128
-127
-127
-127
-127
-126
-127
-127
-127
-126
-127
-126
-126
-125
-125
-126
-126
-127
-127
-126
-126
-126
-126
-126
-126
-126
-126
-126
-126
-127
-127
-126
-126
-127
-127
-127
-127
-127
-127
-127
-127
-127
-127
-127
-127
-127
-127
-126
-127
-127
-127
-126
-126
-126
-127
-127
-127
-128
-128
-127
-127
-127
-128
-128
-127
-128
-128
-128
-128
-128
-128
-128
-128
-128
-128
-128
-128
-129
-128
-128
-128
-127
-127
-127
-127
-127
-127
-128
-127
-128
-128
-127
-128
-127
-127
-128
-129
-128
-129
-129
-129
-129
-129
-129
-129
-129
-128
-128
-129
-129
-129
-128
-129
-128
-128
-128
-129
-129
-129
-128
-128
-127
-127
-127
-127
-127
-127
-127
-127
-128
-128
-127
-127
-127
-127
-128
-128
-128
-128
-129
-129
-129
-129
-129
-129
-129
-128
-128
-129
-129
-129
-129
-128
-129
-129
-129
-128
-129
-129
-129
-129
-129
-129
-128
-128
-128
-128
-128
-128
-129
-129
-128
-128
-128
-128
-129
-128
-129
-129
-128
-128
-129
-129
-129
-129
-129
-129
-129
-129
-129
-129
-129
-129
-129
-129
-129
-129
-129
-129
-130
-129
-129
-129
-129
-129
-129
-129
-129
-128
-129
-129
-129
-129
-129
-129
-129
-128
-129
-129
-128
-128
-128
-127
-127
-127
-126
-126
-126
-125
-125
-125
-124
-124
-123
-122
-123
-122
-122
-122
-121
-121
-120
-120
-120
-120
-120
-120
-120
-119
-120
-119
-119
-119
-119
-119
-119
-118
-119
-119
-118
-118
-118
-118
-118
-117
-117
-117
-117
-117
-116
-117
-116
-117
-117
-117
-117
-118
-119
-118
-120
-120
-120
-122
-122
-123
-124
-125
-126
-127
-129
-129
-130
-131
-132
-133
-134
-135
-136
-136
-137
-137
-137
-137
-138
-137
-137
-137
-136
-137
-137
-136
-135
-135
-135
-134
-135
-134
-134
-134
-133
-132
-133
-132
-132
-131
-132
-131
-131
-131
-131
-131
-131
-131
-130
-130
-131
-131
-131
-131
-131
-131
-131
-131
-131
-131
-131
-132
-132
-133
-132
-132
-133
-133
-133
-133
-132
-133
-133
-133
-133
-133
-133
-132
-132
-132
-132
-132
-132
-132
-132
-131
-131
-130
-130
-130
-131
-131
-131
-131
-131
-131
-131
-131
-131
-131
-131
-131
-131
-131
-132
-131
-132
-131
-130
-129
-128
-127
-125
-123
-120
-115
-113
-109
-104
-100
-95
-89
-83
-77
-71
-65
-59
-52
-46
-42
-36
-31
-26
-22
-17
-14
-12
-10
-9
-9
-10
-12
-15
-19
-24
-29
-35
-44
-53
-62
-73
-84
-96
-108
-120
-133
-146
-159
-171
-184
-196
-208
-220
-230
-240
-249
-258
-265
-271
-277
-282
-286
-290
-292
-294
-294
-295
-294
-293
-292
-289
-287
-284
-281
-279
-275
-272
-269
-265
-262
-257
-255
-251
-247
-244
-239
-236
-233
-229
-225
-221
-217
-213
-208
-205
-200
-196
-191
-188
-183
-179
-175
-171
-166
-163
-159
-155
-152
-149
-146
-143
-140
-138
-136
-134
-132
-131
-129
-128
-126
-126
-125
-124
-124
-123
-122
-121
-121
-121
-121
-120
-120
-120
-120
-119
-119
-119
-118
-118
-118
-118
-117
-117
-117
-116
-117
-116
-116
-116
-115
-115
-115
-115
-115
-115
-115
-114
-114
-114
-114
-114
-114
-114
-114
-114
-113
-113
-113
-112
-112
-113
-113
-112
-112
-112
-112
-112
-111
-111
-111
-111
-112
-111
-111
-111
-110
-111
-111
-111
-111
-111
-111
-111
-111
-110
-110
-110
-110
-110
-110
-111
-110
-111
-111
-110
-110
-110
-109
-109
-109
-109
-109
-110
-109
-109
-109
-109
-109
-109
-109
-110
-109
-110
-110
-109
-109
-109
-109
-108
-108
-108
-107
-106
-106
-106
-106
-105
-105
-105
-105
-105
-104
-104
-104
-104
-103
-103
-103
-102
-102
-102
-102
-102
-102
-102
-102
-102
-101
-102
-102
-102
-102
-102
-102
-102
-101
-101
-101
-101
-101
-101
-101
-101
-101
-101
-101
-101
-101
-101
-101
-101
-101
-101
-102
-100
-101
-102
-101
-101
-101
-101
-101
-101
-102
-102
-102
-103
-102
-103
-103
-103
-105
-105
-106
-106
-107
-106
-107
-107
-108
-109
-109
-110
-111
-112
-112
-113
-114
-115
-115
-116
-117
-118
-118
-119
-120
-120
-121
-122
-123
-122
-123
-124
-125
-125
-125
-126
-126
-127
-127
-127
-128
-128
-129
-129
-129
-130
-130
-130
-131
-131
-131
-131
-132
-133
-133
-133
-133
-134
-134
-134
-135
-135
-135
-135
-136
-136
-135
-135
-135
-135
-135
-135
-135
-135
-136
-135
-134
-134
-134
-134
-134
-134
-134
-133
-133
-133
-133
-132
-132
-132
-132
-131
-132
-131
-131
-130
-130
-130
-130
-129
-129
-129
-128
-128
-127
-128
-127
-127
-127
-126
-126
-126
-125
-125
-125
-125
-124
-125
-124
-124
-124
-125
-124
-124
-124
-123
-124
-123
-123
-124
-123
-123
-123
-124
-124
-123
-123
-123
-123
-123
-123
-124
-123
-123
-122
-122
-123
-122
-122
-122
-122
-122
-122
-122
-122
-122
-122
-122
-122
-122
-123
-122
-123
-122
-123
-123
-123
-123
-122
-122
-122
-122
-122
-122
-122
-122
-121
-121
-121
-122
-122
-123
-122
-122
-122
-122
-122
-121
-121
-121
-121
-121
-121
-121
-121
-121
-121
-121
-121
-121
-121
-121
-121
-121
-120
-120
-120
-120
-120
-120
-119
-119
-119
-119
-119
-119
-119
-119
-119
-118
-119
-119
-119
-119
-118
-118
-118
-118
-118
-118
-118
-117
-118
-118
-118
-117
-117
-117
-117
-117
-118
-118
-118
-118
-117
-117
-117
-116
-116
-117
-117
-117
-117
-116
-116
-117
-116
-116
-116
-117
-116
-117
-117
-117
-116
-116
-116
-116
-116
-116
-116
-117
-117
-117
-117
-117
-117
-117
-118
-118
-118
-119
-119
-118
-118
-118
-118
-118
-119
-119
-119
-119
-119
-120
-120
-120
-119
-119
-120
-120
-120
-121
-121
-121
-120
-120
-120
-121
-120
-120
-120
-120
-120
-120
-120
-120
-120
-120
-119
-120
-120
-121
-121
-120
-120
-120
-120
-119
-119
-119
-119
-119
-119
-120
-120
-120
-119
-120
-121
-120
-121
-121
-121
-121
-121
-121
-121
-122
-122
-122
-121
-121
-122
-122
-122
-122
-122
-122
-122
-122
-122
-122
-122
-123
-122
-122
-122
-122
-122
-122
-121
-122
-122
-122
-122
-122
-122
-122
-123
-123
-124
-123
-123
-123
-123
-124
-124
-124
-124
-124
-124
-124
-124
-124
-124
-125
-125
-125
-125
-125
-126
-125
-125
-126
-126
-125
-125
-125
-125
-125
-125
-125
-125
-126
-126
-126
-125
-126
-126
-125
-126
-125
-126
-125
-125
-126
-126
-126
-126
-126
-126
-126
-126
-126
-126
-126
-126
-126
-126
-126
-126
-126
-126
-126
-126
-126
-126
-126
-126
-126
-126
-126
-126
-126
-126
-126
-125
-126
-126
-126
-126
-126
-126
-126
-126
-127
-127
-126
-126
-126
-126
-126
-126
-127
-127
-126
-126
-126
-126
-127
-126
-127
-127
-127
-126
-126
-126
-126
-126
-126
-126
-126
-126
-127
-127
-126
-126
-126
-126
-127
-127
-127
-127
-127
-127
-127
-127
-127
-127
-127
-127
-126
-127
-127
-127
-126
-126
-126
-127
-126
-126
-127
-127
-126
-126
-126
-125
-126
-126
-126
-126
-126
-127
-126
-126
-127
-127
-127
-127
-127
-126
-127
-127
-127
-126
-127
-127
-126
-126
-126
-126
-126
-126
-125
-126
-125
-125
-124
-124
-124
-123
-124
-123
-123
-123
-121
-121
-121
-120
-120
-120
-119
-120
-119
-119
-119
-119
-118
-118
-119
-118
-119
-119
-119
-118
-118
-118
-118
-118
-118
-118
-117
-117
-118
-117
-117
-117
-116
-116
-117
-116
-116
-116
-116
-116
-116
-116
-116
-116
-116
-117
-117
-117
-119
-120
-120
-121
-122
-122
-124
-125
-127
-127
-129
-130
-131
-131
-132
-134
-134
-136
-136
-136
-137
-137
-138
-137
-137
-137
-137
-136
-136
-136
-136
-135
-134
-135
-134
-134
-133
-133
-132
-131
-132
-131
-132
-131
-131
-130
-130
-131
-131
-131
-130
-130
-131
-131
-130
-130
-130
-130
-130
-131
-131
-131
-131
-131
-131
-132
-132
-132
-132
-132
-132
-132
-131
-132
-132
-132
-132
-132
-131
-131
-132
-132
-131
-132
-132
-132
-131
-132
-133
-132
-133
-132
-132
-132
-132
-132
-132
-132
-131
-131
-132
-132
-131
-131
-131
-131
-131
-131
-130
-130
-130
-130
-129
-129
-128
-126
-126
-124
-121
-119
-116
-113
-110
-107
-102
-97
-92
-87
-81
-75
-69
-62
-56
-49
-44
-39
-33
-27
-23
-18
-14
-11
-9
-7
-6
-8
-10
-12
-16
-20
-26
-32
-40
-48
-58
-67
-78
-90
-101
-114
-126
-138
-151
-163
-175
-187
-198
-210
-219
-229
-238
-245
-253
-259
-264
-270
-274
-277
-280
-282
-282
-284
-283
-283
-282
-281
-279
-277
-274
-271
-268
-265
-261
-258
-254
-251
-247
-243
-240
-236
-233
-230
-225
-222
-218
-215
-211
-207
-203
-200
-195
-190
-186
-182
-178
-175
-171
-166
-163
-159
-155
-153
-150
-146
-144
-141
-138
-137
-135
-133
-131
-129
-128
-127
-126
-125
-125
-124
-123
-123
-122
-122
-121
-122
-121
-120
-120
-120
-121
-121
-120
-120
-120
-120
-119
-119
-119
-119
-118
-118
-118
-118
-119
-118
-118
-118
-118
-117
-118
-118
-117
-117
-117
-116
-116
-116
-116
-115
-116
-116
-116
-116
-116
-116
-115
-115
-116
-116
-115
-116
-115
-116
-116
-115
-115
-115
-115
-115
-115
-115
-115
-115
-115
-114
-115
-115
-115
-114
-114
-115
-114
-114
-113
-113
-113
-114
-113
-113
-113
-113
-112
-112
-112
-112
-112
-112
-112
-111
-112
-112
-112
-111
-111
-111
-111
-111
-111
-111
-110
-111
-111
-111
-111
-111
-111
-111
-110
-111
-111
-111
-110
-110
-110
-110
-110
-110
-110
-110
-109
-109
-110
-109
-109
-109
-109
-109
-109
-108
-109
-109
-108
-108
-108
-108
-107
-108
-107
-107
-108
-107
-107
-107
-107
-107
-107
-107
-106
-107
-107
-107
-107
-107
-107
-107
-107
-107
-107
-107
-108
-108
-108
-108
-108
-108
-109
-109
-109
-110
-110
-111
-111
-112
-112
-112
-112
-113
-114
-115
-114
-115
-116
-117
-117
-117
-118
-119
-119
-120
-121
-121
-122
-123
-123
-124
-125
-125
-126
-127
-127
-128
-129
-129
-130
-131
-132
-132
-132
-134
-134
-135
-136
-136
-135
-136
-136
-137
-138
-138
-139
-139
-139
-140
-140
-140
-140
-141
-140
-141
-142
-142
-142
-143
-143
-143
-143
-143
-143
-142
-143
-143
-142
-143
-142
-141
-142
-141
-141
-141
-141
-140
-139
-139
-139
-138
-137
-137
-137
-137
-136
-136
-136
-136
-135
-134
-135
-134
-134
-133
-133
-133
-133
-131
-131
-132
-131
-131
-130
-130
-129
-128
-129
-128
-128
-128
-127
-126
-126
-126
-126
-126
-125
-125
-125
-125
-125
-124
-124
-124
-124
-124
-124
-124
-124
-123
-123
-123
-123
-124
-124
-124
-124
-123
-123
-124
-123
-123
-123
-124
-124
-124
-124
-124
-123
-123
-123
-124
-124
-125
-124
-124
-124
-125
-124
-124
-124
-124
-124
-123
-124
-123
-123
-123
-123
-122
-122
-122
-122
-123
-122
-123
-122
-122
-122
-121
-121
-121
-121
-121
-121
-121
-121
-122
-121
-121
-121
-121
-122
-122
-122
-122
-122
-122
-122
-122
-123
-123
-122
-122
-122
-122
-123
-123
-123
-122
-122
-122
-122
-123
-123
-122
-123
-122
-122
-121
-121
-121
-120
-121
-120
-120
-120
-120
-120
-119
-119
-119
-119
-119
-120
-120
-119
-119
-120
-119
-119
-119
-119
-119
-120
-120
-120
-120
-120
-119
-119
-120
-120
-120
-120
-120
-120
-121
-121
-121
-120
-121
-120
-120
-119
-120
-120
-120
-120
-120
-120
-120
-120
-121
-120
-120
-120
-121
-121
-120
-120
-120
-120
-120
-120
-120
-121
-121
-121
-120
-121
-121
-120
-120
-121
-121
-120
-121
-121
-121
-121
-121
-121
-121
-121
-121
-122
-122
-122
-121
-122
-122
-122
-121
-122
-122
-122
-122
-122
-122
-121
-121
-121
-122
-122
-122
-123
-123
-122
-122
-123
-123
-123
-123
-123
-124
-124
-123
-123
-123
-124
-124
-123
-123
-123
-123
-123
-124
-123
-123
-124
-124
-124
-124
-124
-125
-124
-124
-124
-124
-124
-124
-125
-124
-124
-124
-124
-124
-124
-123
-123
-123
-123
-123
-124
-123
-123
-122
-123
-123
-123
-123
-123
-123
-123
-123
-123
-123
-123
-124
-124
-124
-124
-124
-124
-125
-125
-124
-124
-125
-124
-124
-124
-124
-124
-124
-125
-125
-125
-124
-124
-125
-125
-124
-125
-125
-125
-125
-125
-124
-124
-124
-124
-124
-125
-125
-125
-125
-125
-125
-125
-125
-125
-126
-126
-126
-126
-126
-126
-126
-126
-126
-126
-126
-126
-126
-126
-126
-126
-126
-126
-126
-126
-126
-126
-127
-126
-126
-125
-126
-126
-125
-125
-125
-125
-125
-125
-125
-125
-125
-124
-124
-124
-124
-123
-124
-123
-122
-122
-122
-121
-121
-120
-120
-120
-119
-119
-119
-119
-117
-117
-117
-117
-116
-116
-117
-116
-115
-115
-115
-115
-115
-116
-116
-116
-115
-115
-116
-115
-115
-115
-115
-115
-115
-115
-115
-115
-115
-115
-116
-115
-115
-115
-116
-116
-117
-117
-118
-118
-119
-119
-120
-121
-122
-123
-124
-125
-125
-127
-128
-128
-129
-131
-131
-132
-132
-133
-133
-134
-135
-135
-136
-135
-135
-136
-136
-136
-135
-135
-135
-134
-135
-134
-133
-133
-133
-132
-132
-132
-131
-131
-130
-130
-130
-130
-129
-130
-129
-128
-129
-128
-128
-128
-128
-128
-128
-128
-128
-128
-128
-128
-128
-128
-128
-129
-129
-129
-129
-128
-129
-129
-129
-129
-129
-129
-130
-130
-129
-130
-130
-130
-130
-130
-131
-130
-131
-130
-130
-131
-131
-130
-130
-130
-130
-130
-130
-130
-129
-130
-130
-130
-130
-129
-129
-130
-130
-130
-130
-129
-129
-130
-130
-130
-130
-130
-129
-129
-128
-128
-127
-125
-124
-121
-118
-116
-113
-109
-104
-99
-93
-87
-81
-76
-69
-62
-56
-49
-44
-37
-30
-24
-18
-12
-8
-4
-1
1
3
3
2
1
-2
-6
-11
-17
-23
-32
-40
-50
-61
-72
-83
-96
-109
-122
-136
-148
-161
-174
-186
-198
-210
-220
-230
-240
-248
-256
-263
-269
-274
-278
-282
-284
-286
-287
-288
-288
-286
-285
-283
-280
-277
-273
-270
-266
-262
-258
-254
-250
-245
-241
-237
-232
-228
-225
-220
-216
-212
-209
-205
-201
-197
-193
-190
-186
-182
-179
-176
-172
-168
-165
-162
-159
-156
-153
-150
-147
-144
-141
-139
-137
-134
-133
-131
-129
-127
-127
-126
-124
-123
-123
-122
-121
-121
-120
-120
-119
-119
-118
-118
-117
-117
-117
-116
-117
-117
-116
-116
-116
-116
-116
-116
-116
-116
-116
-116
-116
-115
-115
-116
-115
-115
-115
-114
-114
-114
-114
-114
-113
-114
-114
-113
-113
-113
-113
-113
-112
-112
-112
-111
-111
-112
-112
-112
-112
-112
-112
-111
-112
-111
-111
-111
-111
-112
-111
-111
-111
-110
-110
-110
-110
-109
-109
-109
-109
-109
-110
-110
-110
-109
-109
-110
-109
-109
-109
-109
-109
-110
-110
-110
-109
-108
-109
-108
-109
-109
-108
-108
-108
-108
-107
-107
-107
-107
-108
-107
-108
-107
-107
-106
-106
-106
-106
-106
-105
-105
-106
-106
-105
-105
-105
-105
-104
-105
-106
-105
-105
-105
-104
-104
-104
-104
-104
-104
-104
-104
-104
-104
-104
-104
-104
-104
-104
-104
-104
-104
-104
-104
-103
-103
-103
-104
-104
-104
-104
-104
-103
-104
-104
-103
-104
-104
-104
-104
-105
-104
-105
-104
-105
-105
-105
-105
-106
-105
-106
-107
-107
-107
-108
-108
-109
-110
-110
-111
-112
-112
-113
-113
-114
-114
-114
-115
-116
-116
-117
-118
-118
-119
-120
-121
-120
-121
-122
-123
-123
-124
-125
-125
-126
-126
-127
-128
-128
-128
-129
-129
-130
-131
-131
-132
-132
-132
-132
-133
-133
-134
-134
-134
-134
-134
-134
-134
-134
-134
-134
-134
-133
-134
-134
-133
-133
-133
-132
-132
-133
-133
-132
-131
-132
-131
-132
-131
-131
-130
-130
-130
-129
-129
-129
-128
-129
-128
-128
-128
-128
-128
-128
-128
-127
-127
-127
-126
-127
-126
-125
-126
-125
-125
-125
-124
-125
-124
-124
-124
-123
-124
-124
-124
-123
-123
-122
-123
-122
-123
-122
-122
-121
-121
-122
-121
-121
-121
-122
-122
-121
-122
-121
-122
-121
-121
-121
-121
-121
-121
-120
-120
-120
-120
-121
-120
-120
-120
-120
-120
-120
-120
-119
-120
-119
-119
-119
-119
-119
-118
-119
-119
-118
-118
-118
-118
-118
-118
-118
-119
-119
-119
-119
-119
-119
-119
-119
-119
-119
-119
-119
-120
-119
-119
-119
-120
-120
-120
-119
-119
-119
-119
-119
-118
-119
-118
-118
-118
-118
-118
-117
-117
-118
-118
-118
-117
-117
-117
-117
-117
-118
-118
-118
-117
-116
-116
-117
-117
-117
-116
-116
-116
-116
-117
-116
-116
-116
-116
-117
-116
-117
-117
-117
-117
-117
-117
-117
-117
-117
-117
-117
-117
-117
-117
-117
-117
-117
-116
-116
-117
-117
-117
-117
-116
-116
-116
-116
-116
-116
-116
-115
-115
-116
-116
-116
-116
-116
-117
-117
-117
-117
-117
-117
-118
-118
-118
-118
-118
-117
-117
-118
-118
-118
-118
-118
-118
-118
-118
-118
-119
-119
-119
-120
-119
-119
-119
-118
-118
-118
-118
-119
-119
-118
-118
-118
-118
-118
-118
-118
-118
-118
-118
-118
-118
-118
-119
-118
-118
-119
-119
-119
-119
-119
-119
-119
-119
-120
-120
-120
-120
-120
-120
-120
-121
-120
-120
-120
-119
-119
-119
-118
-118
-118
-119
-118
-119
-119
-119
-118
-118
-119
-119
-118
-118
-119
-119
-119
-119
-119
-119
-119
-119
-120
-119
-120
-120
-120
-120
-120
-120
-120
-120
-120
-120
-120
-120
-120
-120
-120
-120
-120
-120
-121
-121
-121
-121
-121
-121
-121
-122
-121
-122
-122
-121
-121
-121
-121
-121
-121
-121
-121
-120
-121
-121
-120
-120
-120
-120
-119
-120
-120
-120
-120
-119
-119
-119
-119
-119
-119
-118
-118
-118
-118
-119
-119
-118
-117
-117
-118
-117
-117
-118
-117
-117
-117
-117
-116
-116
-116
-116
-115
-115
-115
-114
-114
-114
-113
-113
-113
-113
-113
-113
-112
-112
-112
-112
-112
-111
-111
-111
-111
-111
-110
-111
-110
-110
-110
-110
-110
-111
-112
-111
-112
-112
-112
-112
-112
-113
-114
-113
-114
-115
-116
-116
-117
-118
-118
-119
-120
-121
-122
-123
-123
-124
-125
-126
-126
-127
-128
-128
-128
-129
-129
-129
-130
-130
-131
-130
-130
-131
-131
-130
-130
-130
-129
-129
-129
-128
-128
-127
-127
-126
-126
-125
-126
-125
-124
-124
-124
-123
-124
-124
-123
-122
-123
-122
-122
-122
-122
-122
-122
-122
-122
-122
-122
-122
-122
-122
-122
-123
-122
-123
-122
-122
-123
-123
-123
-123
-123
-123
-123
-123
-123
-123
-124
-124
-124
-124
-124
-125
-125
-125
-125
-124
-124
-125
-124
-124
-124
-123
-123
-123
-123
-123
-122
-122
-122
-122
-122
-122
-122
-122
-122
-121
-122
-122
-122
-122
-122
-122
-121
-121
-120
-118
-117
-115
-113
-109
-106
-103
-99
-95
-90
-84
-77
-71
-65
-58
-51
-44
-38
-31
-25
-18
-12
-6
-1
5
8
11
12
14
14
13
12
9
5
-1
-7
-14
-22
-32
-43
-54
-66
-78
-92
-104
-119
-132
-147
-161
-174
-188
-200
-213
-224
-235
-244
-254
-262
-269
-275
-280
-284
-287
-290
-291
-293
-293
-293
-292
-291
-287
-285
-282
-278
-274
-271
-266
-263
-258
-252
-249
-244
-239
-235
-231
-226
-222
-218
-214
-209
-205
-200
-195
-191
-186
-181
-177
-173
-169
-165
-161
-157
-153
-150
-147
-144
-141
-138
-135
-133
-130
-128
-126
-124
-123
-121
-120
-118
-117
-117
-116
-115
-114
-113
-113
-112
-112
-112
-112
-112
-111
-110
-110
-111
-110
-110
-109
-109
-109
-109
-109
-108
-108
-107
-107
-107
-107
-107
-107
-107
-106
-106
-106
-106
-106
-106
-106
-105
-105
-104
-105
-105
-104
-104
-104
-104
-105
-104
-105
-104
-104
-103
-104
-103
-103
-103
-102
-103
-103
-102
-102
-102
-101
-101
-101
-101
-101
-101
-101
-101
-100
-100
-100
-99
-99
-99
-99
-99
-99
-99
-99
-98
-99
-99
-99
-99
-99
-99
-99
-99
-99
-99
-98
-98
-98
-98
-98
-97
-97
-97
-97
-97
-97
-97
-97
-97
-96
-97
-97
-97
-96
-95
-95
-95
-95
-95
-95
-94
-94
-94
-94
-94
-93
-93
-93
-93
-92
-93
-92
-92
-92
-91
-91
-91
-91
-91
-91
-90
-90
-90
-90
-90
-90
-89
-90
-89
-89
-89
-90
-89
-89
-89
-89
-89
-89
-88
-88
-88
-89
-89
-89
-89
-89
-89
-89
-89
-89
-89
-90
-90
-90
-90
-91
-91
-90
-91
-92
-92
-93
-93
-94
-93
-94
-94
-95
-95
-95
-96
-97
-98
-97
-98
-99
-100
-99
-100
-101
-102
-102
-103
-103
-104
-105
-105
-106
-107
-108
-109
-110
-110
-111
-112
-112
-113
-114
-114
-114
-115
-115
-116
-117
-118
-118
-117
-119
-119
-119
-120
-120
-121
-120
-120
-121
-121
-121
-121
-121
-121
-122
-122
-122
-122
-121
-120
-121
-121
-121
-121
-121
-120
-120
-121
-120
-121
-120
-120
-120
-120
-120
-120
-120
-120
-120
-119
-120
-119
-119
-119
-120
-119
-118
-118
-118
-118
-118
-117
-117
-116
-116
-116
-116
-116
-115
-116
-115
-115
-115
-115
-115
-115
-115
-115
-114
-115
-115
-114
-115
-115
-114
-114
-114
-114
-114
-114
-113
-114
-114
-114
-114
-114
-114
-113
-113
-113
-113
-113
-113
-112
-112
-113
-113
-113
-112
-112
-113
-113
-113
-113
-113
-113
-113
-113
-113
-113
-113
-113
-114
-113
-114
-114
-114
-114
-114
-114
-114
-114
-114
-115
-115
-115
-115
-114
-114
-114
-114
-114
-114
-113
-113
-113
-114
-114
-113
-113
-113
-113
-113
-113
-114
-114
-113
-113
-113
-113
-113
-113
-113
-113
-113
-113
-113
-113
-112
-112
-112
-112
-113
-112
-112
-112
-112
-111
-112
-112
-112
-111
-111
-111
-111
-111
-111
-111
-112
-111
-111
-112
-112
-112
-112
-112
-112
-111
-111
-111
-111
-111
-111
-112
-112
-111
-111
-111
-111
-110
-110
-110
-110
-111
-110
-110
-110
-109
-109
-109
-109
-109
-109
-109
-109
-109
-109
-109
-109
-109
-109
-109
-109
-109
-109
-109
-109
-109
-109
-109
-109
-109
-108
-109
-109
-108
-109
-109
-109
-109
-109
-109
-109
-110
-110
-110
-110
-110
-109
-109
-109
-109
-109
-109
-109
-109
-110
-110
-109
-110
-110
-110
-110
-109
-110
-109
-110
-109
-109
-109
-109
-110
-110
-109
-109
-109
-110
-110
-109
-109
-109
-109
-110
-110
-111
-111
-111
-110
-110
-111
-111
-111
-111
-111
-111
-111
-111
-111
-112
-111
-111
-111
-112
-111
-112
-112
-112
-112
-111
-112
-112
-112
-112
-112
-112
-111
-111
-111
-112
-112
-112
-112
-112
-113
-112
-112
-113
-112
-112
-113
-113
-113
-112
-112
-112
-112
-112
-112
-112
-113
-113
-113
-113
-112
-113
-113
-113
-113
-113
-113
-113
-113
-113
-113
-113
-113
-113
-113
-113
-113
-113
-113
-113
-113
-114
-113
-114
-113
-113
-113
-113
-114
-114
-114
-113
-114
-114
-114
-113
-113
-113
-113
-114
-115
-114
-114
-114
-115
-115
-115
-115
-115
-115
-115
-115
-116
-115
-115
-116
-115
-115
-115
-116
-115
-116
-116
-115
-116
-116
-116
-115
-115
-115
-115
-114
-115
-115
-115
-114
-114
-113
-113
-113
-113
-113
-113
-112
-111
-111
-111
-110
-110
-110
-110
-109
-108
-108
-109
-107
-107
-107
-107
-106
-107
-106
-106
-106
-106
-106
-105
-105
-105
-105
-105
-104
-105
-105
-105
-105
-105
-105
-105
-105
-105
-105
-106
-105
-105
-106
-106
-107
-106
-107
-108
-108
-109
-110
-111
-111
-112
-112
-114
-115
-116
-117
-118
-119
-120
-120
-121
-122
-122
-123
-123
-124
-125
-125
-125
-125
-126
-126
-125
-125
-125
-125
-125
-125
-124
-124
-123
-123
-122
-122
-122
-121
-122
-121
-121
-120
-120
-119
-119
-119
-119
-119
-119
-119
-119
-119
-119
-118
-118
-118
-118
-118
-118
-119
-118
-118
-118
-118
-119
-119
-118
-119
-119
-118
-119
-119
-119
-119
-119
-119
-119
-119
-119
-120
-120
-119
-119
-119
-119
-119
-120
-120
-119
-120
-119
-119
-119
-119
-119
-119
-118
-119
-119
-119
-119
-119
-119
-119
-119
-118
-119
-119
-119
-119
-119
-118
-118
-118
-118
-118
-118
-117
-117
-117
-116
-115
-113
-112
-109
-107
-104
-101
-97
-93
-88
-82
-77
-71
-65
-59
-51
-45
-39
-32
-25
-20
-12
-7
-1
3
7
11
14
15
17
17
16
13
10
5
0
-8
-15
-23
-34
-44
-55
-67
-79
-92
-107
-120
-134
-147
-161
-175
-187
-200
-211
-222
-232
-242
-250
-257
-263
-269
-273
-277
-280
-283
-284
-285
-285
-285
-284
-282
-279
-277
-274
-272
-269
-265
-262
-259
-254
-251
-247
-243
-240
-236
-232
-228
-224
-220
-216
-211
-208
-202
-198
-193
-188
-184
-178
-175
-170
-166
-161
-157
-153
-149
-145
-142
-138
-135
-132
-128
-126
-124
-122
-120
-118
-117
-116
-114
-113
-112
-111
-111
-111
-110
-110
-110
-110
-109
-109
-108
-108
-107
-107
-107
-108
-107
-107
-106
-106
-106
-107
-106
-106
-106
-106
-106
-106
-105
-105
-104
-104
-104
-104
-104
-104
-103
-103
-102
-102
-101
-101
-101
-101
-100
-101
-101
-101
-100
-100
-100
-99
-100
-100
-100
-99
-99
-99
-99
-99
-98
-99
-99
-99
-98
-98
-98
-98
-98
-98
-97
-97
-97
-97
-97
-97
-97
-96
-96
-96
-96
-95
-95
-95
-96
-95
-95
-95
-95
-95
-94
-94
-94
-94
-94
-93
-93
-93
-94
-94
-93
-93
-93
-93
-92
-93
-92
-92
-92
-92
-92
-92
-91
-91
-91
-91
-91
-91
-91
-91
-90
-90
-90
-90
-90
-89
-90
-90
-89
-89
-89
-88
-88
-88
-88
-87
-87
-87
-87
-87
-86
-86
-86
-87
-86
-86
-86
-86
-86
-85
-85
-85
-85
-85
-84
-84
-84
-84
-84
-85
-85
-85
-84
-85
-85
-85
-85
-85
-86
-85
-86
-86
-86
-86
-87
-87
-88
-88
-89
-89
-89
-89
-90
-91
-91
-92
-93
-93
-94
-94
-95
-96
-97
-96
-97
-98
-99
-99
-100
-101
-101
-102
-103
-103
-104
-104
-106
-107
-107
-108
-109
-109
-109
-110
-111
-111
-112
-113
-113
-113
-114
-114
-115
-116
-117
-117
-118
-118
-119
-119
-119
-119
-119
-120
-120
-120
-120
-121
-121
-121
-122
-121
-121
-121
-122
-122
-121
-122
-122
-122
-121
-121
-120
-120
-120
-120
-119
-120
-119
-119
-118
-118
-117
-117
-117
-117
-117
-116
-116
-116
-115
-115
-114
-115
-114
-114
-113
-113
-114
-113
-113
-112
-113
-112
-112
-112
-112
-112
-111
-111
-111
-110
-110
-110
-110
-110
-109
-109
-109
-109
-109
-109
-108
-108
-108
-109
-108
-109
-109
-108
-109
-108
-108
-108
-107
-108
-108
-108
-108
-108
-107
-107
-107
-107
-107
-108
-107
-107
-107
-107
-108
-108
-108
-108
-108
-108
-108
-108
-109
-109
-109
-109
-109
-109
-109
-110
-111
-110
-111
-110
-110
-110
-110
-110
-110
-110
-110
-110
-110
-110
-109
-109
-109
-109
-109
-108
-108
-109
-108
-108
-108
-108
-108
-108
-108
-108
-108
-107
-108
-108
-108
-107
-107
-107
-108
-108
-108
-108
-107
-107
-108
-107
-107
-107
-107
-107
-106
-106
-106
-106
-106
-105
-105
-105
-105
-106
-106
-105
-105
-106
-106
-105
-105
-105
-105
-105
-105
-105
-104
-104
-104
-104
-104
-103
-103
-104
-103
-103
-103
-103
-103
-102
-103
-103
-103
-103
-102
-103
-102
-102
-102
-102
-102
-102
-102
-102
-102
-102
-102
-102
-102
-101
-101
-101
-102
-102
-102
-103
-102
-102
-103
-103
-103
-103
-103
-104
-103
-104
-103
-103
-103
-103
-104
-104
-104
-104
-103
-104
-104
-103
-104
-103
-103
-103
-104
-103
-104
-103
-104
-104
-104
-104
-104
-104
-104
-104
-104
-104
-105
-104
-105
-104
-105
-105
-105
-104
-105
-105
-105
-105
-105
-105
-105
-105
-105
-105
-105
-105
-105
-105
-105
-105
-105
-105
-105
-105
-105
-105
-106
-105
-105
-105
-104
-105
-105
-105
-105
-105
-106
-106
-105
-105
-106
-106
-106
-107
-108
-107
-107
-107
-107
-107
-107
-108
-108
-108
-108
-108
-108
-109
-108
-108
-108
-108
-108
-109
-109
-109
-109
-108
-109
-109
-108
-109
-109
-109
-109
-109
-109
-109
-109
-109
-109
-109
-109
-109
-109
-109
-109
-109
-109
-109
-109
-108
-109
-108
-108
-108
-108
-108
-109
-109
-109
-109
-108
-109
-109
-109
-109
-109
-109
-109
-109
-109
-109
-109
-108
-108
-109
-109
-109
-109
-109
-109
-109
-110
-109
-110
-109
-109
-109
-109
-110
-110
-110
-109
-109
-109
-109
-109
-108
-108
-108
-108
-109
-109
-109
-109
-109
-109
-109
-109
-109
-108
-108
-109
-109
-109
-109
-109
-108
-109
-109
-109
-109
-109
-109
-109
-109
-108
-108
-108
-108
-108
-108
-108
-108
-108
-109
-109
-109
-109
-109
-109
-109
-109
-108
-109
-109
-109
-109
-109
-108
-108
-108
-109
-109
-109
-109
-110
-109
-109
-109
-109
-110
-110
-110
-110
-110
-110
-110
-110
-111
-111
-110
-110
-110
-110
-110
-110
-110
-110
-110
-110
-109
-109
-109
-109
-108
-108
-108
-107
-106
-106
-106
-105
-105
-104
-104
-104
-103
-103
-102
-103
-102
-102
-102
-101
-101
-101
-101
-101
-100
-100
-100
-100
-100
-99
-99
-100
-99
-99
-99
-99
-99
-99
-100
-99
-99
-99
-99
-99
-99
-99
-99
-99
-99
-100
-100
-100
-101
-101
-102
-102
-103
-104
-105
-105
-106
-107
-108
-109
-109
-110
-112
-112
-113
-114
-114
-116
-116
-116
-117
-117
-118
-119
-120
-120
-119
-120
-120
-119
-120
-119
-119
-119
-119
-118
-118
-118
-117
-117
-117
-116
-116
-116
-116
-116
-115
-114
-114
-114
-114
-114
-114
-114
-113
-113
-114
-114
-113
-114
-114
-114
-114
-115
-114
-115
-114
-115
-115
-115
-115
-115
-115
-114
-115
-115
-115
-116
-115
-115
-115
-115
-115
-115
-116
-116
-116
-115
-115
-115
-115
-116
-116
-116
-115
-116
-115
-115
-115
-116
-116
-116
-116
-116
-115
-116
-115
-115
-114
-114
-115
-114
-114
-114
-114
-113
-114
-114
-113
-113
-113
-113
-112
-112
-111
-110
-109
-106
-104
-102
-99
-96
-92
-88
-83
-78
-73
-67
-61
-55
-48
-42
-37
-31
-24
-18
-12
-7
-2
2
6
9
11
12
12
11
9
6
2
-3
-9
-16
-24
-33
-43
-54
-65
-77
-88
-101
-113
-126
-139
-151
-164
-176
-187
-198
-208
-218
-227
-235
-242
-247
-253
-258
-261
-264
-266
-268
-268
-269
-268
-267
-267
-264
-263
-259
-257
-254
-251
-248
-245
-242
-238
-235
-231
-228
-224
-221
-217
-214
-210
-206
-203
-199
-195
-192
-187
-183
-179
-175
-171
-167
-163
-158
-155
-150
-147
-142
-139
-135
-133
-129
-126
-124
-121
-118
-116
-115
-113
-112
-110
-109
-108
-107
-106
-105
-104
-104
-103
-103
-102
-102
-102
-101
-101
-101
-101
-102
-101
-101
-101
-100
-101
-101
-101
-100
-100
-100
-100
-99
-99
-99
-99
-99
-99
-99
-98
-98
-98
-97
-97
-97
-97
-97
-97
-96
-96
-96
-95
-95
-95
-95
-95
-95
-95
-94
-94
-95
-94
-94
-94
-95
-94
-95
-95
-94
-95
-94
-94
-94
-94
-93
-93
-93
-93
-93
-92
-93
-93
-92
-92
-93
-92
-92
-92
-92
-91
-91
-91
-91
-91
-91
-91
-91
-91
-91
-91
-91
-91
-91
-91
-90
-90
-90
-90
-90
-89
-89
-89
-89
-89
-88
-88
-88
-88
-88
-88
-88
-87
-87
-87
-88
-87
-88
-88
-87
-87
-87
-86
-87
-86
-86
-86
-86
-86
-86
-85
-85
-85
-85
-85
-84
-85
-84
-84
-84
-84
-85
-84
-84
-84
-84
-84
-85
-84
-84
-84
-84
-85
-84
-84
-84
-85
-84
-84
-84
-85
-84
-84
-84
-85
-85
-84
-85
-86
-86
-86
-86
-87
-87
-88
-89
-89
-90
-90
-91
-91
-92
-93
-92
-93
-94
-94
-95
-95
-96
-96
-98
-97
-98
-99
-99
-100
-101
-101
-101
-102
-103
-103
-104
-104
-105
-106
-106
-108
-107
-108
-109
-110
-111
-110
-112
-112
-112
-113
-113
-114
-115
-115
-116
-116
-116
-116
-118
-117
-118
-118
-118
-118
-119
-118
-119
-119
-120
-119
-119
-119
-119
-118
-118
-119
-118
-117
-117
-117
-117
-117
-116
-116
-116
-116
-115
-115
-115
-114
-114
-114
-114
-113
-113
-112
-113
-112
-111
-112
-111
-111
-111
-110
-110
-110
-109
-109
-109
-110
-109
-109
-108
-107
-108
-107
-107
-107
-107
-107
-107
-106
-106
-106
-107
-106
-106
-106
-106
-106
-105
-105
-104
-105
-104
-104
-104
-104
-104
-104
-104
-103
-104
-103
-103
-103
-103
-104
-104
-104
-103
-103
-104
-104
-103
-104
-103
-103
-104
-104
-103
-103
-104
-104
-104
-105
-104
-104
-104
-104
-104
-104
-105
-104
-104
-104
-104
-104
-104
-104
-104
-103
-103
-102
-102
-102
-102
-102
-102
-101
-102
-101
-101
-101
-101
-101
-101
-101
-100
-101
-101
-101
-100
-100
-100
-101
-101
-102
-102
-101
-101
-101
-101
-100
-100
-100
-101
-101
-101
-101
-101
-101
-100
-100
-100
-100
-100
-101
-101
-101
-100
-100
-100
-100
-99
-100
-100
-99
-99
-100
-100
-100
-100
-100
-100
-100
-100
-100
-100
-100
-100
-100
-100
-100
-100
-100
-100
-100
-100
-100
-100
-100
-100
-100
-100
-100
-101
-100
-101
-101
-101
-101
-101
-101
-101
-101
-100
-101
-101
-101
-101
-101
-101
-101
-101
-101
-101
-102
-102
-102
-102
-101
-101
-102
-102
-102
-102
-102
-102
-102
-103
-103
-103
-103
-103
-103
-103
-103
-103
-103
-103
-103
-103
-103
-103
-103
-103
-103
-103
-103
-104
-103
-103
-104
-104
-104
-104
-105
-105
-105
-105
-104
-104
-105
-105
-105
-105
-104
-104
-105
-105
-105
-105
-105
-105
-105
-104
-105
-105
-105
-104
-104
-105
-105
-105
-105
-105
-104
-104
-104
-104
-104
-104
-105
-104
-104
-105
-104
-105
-105
-105
-105
-105
-105
-105
-105
-105
-105
-105
-105
-105
-105
-106
-106
-106
-106
-107
-107
-107
-107
-107
-107
-107
-107
-107
-108
-108
-107
-108
-108
-108
-108
-108
-107
-108
-108
-108
-108
-109
-109
-108
-108
-108
-107
-107
-107
-107
-108
-108
-107
-107
-107
-108
-107
-107
-107
-107
-108
-107
-108
-107
-107
-107
-107
-107
-107
-108
-107
-107
-108
-108
-108
-107
-107
-108
-108
-108
-108
-109
-109
-108
-108
-108
-108
-108
-108
-108
-108
-108
-109
-108
-108
-109
-109
-109
-109
-109
-109
-110
-109
-109
-110
-110
-109
-109
-109
-109
-109
-109
-109
-109
-109
-108
-108
-108
-108
-109
-108
-109
-109
-108
-109
-109
-109
-109
-109
-109
-109
-109
-109
-109
-109
-110
-110
-110
-110
-109
-110
-111
-111
-111
-110
-110
-110
-110
-110
-110
-111
-111
-111
-110
-110
-111
-111
-111
-111
-111
-111
-111
-111
-111
-111
-112
-112
-112
-112
-112
-111
-112
-112
-111
-111
-112
-111
-111
-111
-110
-111
-110
-111
-110
-109
-109
-109
-108
-107
-107
-106
-106
-105
-105
-104
-104
-103
-103
-103
-102
-103
-102
-102
-101
-101
-101
-101
-100
-101
-101
-100
-101
-100
-100
-99
-99
-99
-100
-100
-99
-100
-100
-100
-100
-100
-99
-99
-100
-99
-99
-100
-100
-100
-100
-101
-101
-100
-101
-101
-101
-102
-103
-104
-104
-104
-105
-106
-107
-107
-109
-109
-111
-111
-112
-114
-114
-115
-116
-117
-118
-119
-120
-120
-120
-121
-121
-121
-121
-121
-121
-121
-120
-120
-120
-120
-119
-119
-118
-118
-117
-117
-117
-117
-116
-116
-116
-115
-115
-115
-114
-115
-114
-114
-114
-114
-114
-114
-114
-114
-114
-114
-114
-115
-114
-114
-114
-114
-114
-114
-114
-114
-114
-115
-114
-114
-114
-114
-114
-113
-114
-114
-114
-114
-114
-113
-113
-113
-113
-113
-113
-113
-113
-113
-113
-113
-113
-113
-113
-113
-113
-114
-113
-113
-113
-112
-112
-112
-113
-112
-112
-113
-113
-112
-112
-112
-113
-113
-113
-113
-112
-112
-112
-111
-110
-108
-106
-105
-102
-99
-96
-92
-88
-84
-79
-74
-68
-62
-56
-50
-44
-38
-33
-27
-20
-14
-9
-4
0
4
7
9
10
11
11
9
7
3
-1
-7
-14
-20
-29
-39
-49
-59
-70
-82
-93
-106
-118
-130
-143
-156
-168
-179
-190
-200
-210
-219
-228
-235
-242
-247
-252
-256
-260
-262
-264
-266
-266
-266
-266
-265
-264
-261
-259
-256
-253
-249
-246
-243
-240
-236
-233
-228
-225
-220
-217
-213
-210
-207
-203
-200
-196
-192
-188
-184
-180
-176
-172
-169
-165
-161
-157
-153
-150
-146
-142
-139
-136
-132
-130
-127
-124
-122
-119
-117
-115
-113
-112
-111
-109
-109
-107
-106
-106
-105
-104
-104
-103
-103
-102
-102
-102
-101
-101
-100
-100
-100
-99
-100
-99
-100
-99
-98
-98
-98
-98
-98
-98
-98
-98
-98
-97
-97
-98
-97
-97
-97
-97
-97
-97
-97
-96
-97
-97
-96
-96
-96
-96
-95
-96
-96
-96
-95
-95
-96
-94
-94
-94
-95
-95
-95
-95
-94
-94
-94
-93
-93
-93
-93
-93
-93
-93
-93
-92
-92
-92
-91
-91
-92
-91
-91
-91
-91
-91
-90
-90
-90
-90
-90
-90
-90
-91
-91
-90
-90
-90
-90
-90
-91
-90
-90
-91
-90
-90
-90
-89
-89
-89
-89
-89
-89
-88
-88
-89
-88
-88
-88
-88
-88
-88
-88
-88
-87
-87
-87
-87
-87
-86
-86
-86
-86
-86
-86
-86
-85
-85
-85
-86
-86
-87
-86
-87
-86
-86
-86
-86
-86
-86
-86
-86
-87
-87
-87
-87
-87
-87
-87
-87
-87
-88
-88
-88
-88
-89
-88
-88
-89
-89
-89
-89
-89
-90
-90
-90
-90
-91
-92
-92
-93
-93
-94
-94
-95
-96
-96
-97
-97
-98
-99
-100
-100
-101
-102
-103
-103
-104
-104
-105
-105
-107
-107
-107
-108
-108
-109
-110
-109
-110
-111
-111
-111
-112
-112
-113
-113
-114
-115
-114
-115
-116
-117
-117
-117
-117
-118
-118
-119
-118
-119
-119
-120
-121
-120
-120
-121
-120
-120
-121
-121
-122
-122
-121
-121
-120
-121
-121
-120
-119
-120
-119
-119
-118
-119
-118
-117
-116
-116
-116
-116
-116
-115
-114
-114
-113
-114
-113
-112
-113
-112
-112
-112
-111
-111
-111
-111
-111
-110
-110
-110
-110
-110
-109
-109
-108
-108
-108
-107
-108
-107
-106
-106
-106
-106
-106
-105
-105
-105
-105
-105
-105
-105
-104
-104
-104
-104
-104
-104
-104
-103
-103
-104
-104
-104
-103
-103
-103
-103
-103
-104
-104
-104
-104
-104
-104
-103
-104
-104
-104
-103
-103
-103
-103
-103
-103
-104
-103
-103
-103
-103
-103
-103
-102
-103
-103
-103
-102
-102
-102
-102
-102
-102
-102
-102
-101
-101
-101
-101
-101
-102
-101
-101
-101
-102
-101
-101
-101
-101
-101
-101
-101
-101
-100
-100
-100
-99
-99
-99
-99
-100
-100
-99
-100
-100
-99
-99
-99
-99
-99
-98
-99
-99
-98
-99
-99
-98
-98
-98
-98
-99
-98
-98
-98
-98
-98
-98
-98
-98
-98
-98
-98
-98
-98
-98
-98
-98
-98
-98
-99
-98
-99
-99
-98
-99
-99
-98
-98
-98
-98
-98
-98
-98
-98
-98
-98
-99
-99
-98
-98
-99
-98
-98
-99
-99
-98
-98
-98
-98
-98
-99
-99
-99
-99
-99
-100
-100
-100
-100
-99
-100
-101
-101
-101
-101
-101
-101
-101
-101
-101
-101
-101
-101
-101
-101
-101
-101
-101
-101
-101
-102
-102
-102
-102
-102
-102
-102
-102
-102
-102
-102
-101
-101
-102
-101
-101
-102
-101
-101
-101
-101
-101
-101
-101
-101
-101
-101
-101
-101
-101
-101
-101
-101
-102
-102
-102
-102
-102
-102
-102
-102
-102
-102
-102
-102
-102
-103
-103
-103
-103
-103
-103
-103
-103
-104
-103
-103
-104
-104
-104
-103
-104
-104
-104
-103
-104
-103
-103
-103
-103
-103
-102
-102
-103
-103
-102
-102
-102
-102
-103
-103
-103
-103
-103
-103
-103
-103
-103
-103
-103
-103
-104
-104
-103
-104
-104
-104
-104
-104
-104
-104
-105
-105
-105
-105
-105
-105
-105
-105
-106
-106
-106
-106
-107
-107
-107
-107
-107
-107
-107
-107
-107
-108
-107
-107
-107
-107
-107
-107
-107
-107
-107
-107
-107
-107
-106
-107
-107
-107
-107
-106
-107
-107
-107
-106
-106
-106
-105
-105
-105
-105
-105
-105
-106
-106
-105
-105
-105
-105
-105
-106
-106
-106
-106
-106
-106
-106
-106
-107
-107
-106
-106
-107
-106
-106
-106
-105
-105
-106
-106
-105
-105
-105
-105
-104
-104
-103
-103
-103
-102
-102
-102
-101
-101
-100
-100
-100
-99
-99
-98
-99
-98
-98
-98
-97
-97
-97
-97
-96
-96
-96
-95
-96
-96
-95
-95
-94
-95
-95
-94
-95
-95
-95
-96
-96
-96
-95
-96
-96
-96
-97
-97
-97
-98
-98
-99
-99
-100
-101
-102
-103
-103
-104
-105
-106
-106
-108
-108
-109
-110
-111
-111
-113
-113
-113
-114
-115
-115
-116
-115
-115
-117
-116
-116
-115
-116
-116
-116
-115
-115
-114
-114
-113
-113
-113
-111
-111
-110
-111
-110
-110
-110
-110
-109
-109
-109
-108
-109
-109
-109
-108
-108
-108
-109
-110
-109
-109
-109
-109
-109
-110
-110
-111
-110
-111
-110
-110
-110
-110
-110
-110
-110
-110
-110
-110
-109
-109
-110
-110
-110
-109
-109
-109
-109
-109
-109
-109
-109
-109
-109
-109
-109
-109
-109
-109
-109
-109
-109
-109
-109
-109
-109
-109
-109
-109
-108
-108
-108
-108
-108
-108
-109
-109
-109
-109
-108
-107
-106
-105
-103
-101
-100
-97
-94
-91
-87
-82
-77
-73
-67
-60
-55
-49
-41
-36
-29
-22
-16
-10
-3
2
8
12
16
19
22
23
25
24
22
19
15
11
4
-3
-10
-19
-28
-39
-51
-62
-75
-88
-101
-113
-126
-140
-152
-165
-177
-189
-201
-211
-220
-230
-237
-244
-250
-255
-259
-263
-265
-268
-269
-270
-269
-268
-266
-264
-261
-259
-255
-251
-247
-243
-239
-235
-230
-226
-222
-217
-213
-209
-205
-201
-196
-193
-189
-185
-181
-177
-173
-170
-166
-162
-159
-155
-152
-148
-145
-142
-139
-136
-132
-130
-127
-123
-121
-119
-117
-115
-113
-111
-110
-108
-106
-105
-104
-104
-103
-102
-102
-101
-100
-100
-100
-99
-99
-99
-98
-98
-97
-97
-97
-97
-97
-96
-96
-96
-96
-95
-95
-96
-95
-95
-94
-94
-94
-93
-93
-93
-93
-93
-93
-93
-93
-93
-93
-93
-93
-92
-93
-93
-92
-92
-92
-91
-92
-92
-92
-92
-91
-91
-92
-92
-91
-91
-91
-91
-91
-90
-91
-91
-91
-91
-90
-89
-89
-89
-90
-90
-90
-90
-89
-89
-89
-89
-89
-89
-89
-90
-90
-90
-90
-90
-90
-89
-89
-89
-89
-89
-89
-88
-88
-88
-88
-87
-87
-87
-87
-87
-87
-87
-87
-86
-86
-86
-85
-85
-85
-85
-85
-85
-85
-85
-85
-84
-85
-85
-85
-85
-86
-85
-85
-85
-85
-85
-85
-85
-85
-85
-85
-85
-85
-85
-85
-85
-84
-84
-84
-84
-85
-84
-84
-83
-83
-82
-82
-82
-82
-82
-82
-82
-82
-81
-82
-81
-81
-81
-82
-81
-82
-82
-82
-82
-83
-83
-82
-83
-83
-84
-84
-84
-84
-84
-85
-85
-85
-86
-87
-87
-88
-89
-88
-90
-89
-90
-91
-91
-91
-92
-93
-94
-94
-95
-96
-96
-96
-97
-98
-98
-100
-100
-100
-101
-101
-102
-102
-103
-104
-103
-104
-104
-105
-106
-107
-107
-108
-107
-108
-109
-109
-110
-110
-110
-111
-111
-111
-111
-111
-112
-111
-112
-111
-111
-112
-112
-111
-111
-112
-112
-111
-112
-111
-111
-111
-110
-110
-109
-109
-109
-108
-109
-108
-108
-107
-107
-107
-107
-107
-107
-107
-107
-106
-106
-106
-106
-105
-106
-105
-105
-105
-105
-104
-105
-104
-104
-105
-104
-103
-103
-103
-103
-103
-103
-102
-102
-102
-102
-102
-101
-102
-101
-101
-101
-101
-101
-100
-100
-101
-100
-101
-101
-101
-101
-101
-100
-100
-100
-100
-100
-101
-101
-101
-101
-101
-100
-100
-100
-101
-101
-101
-101
-101
-101
-101
-101
-100
-100
-100
-100
-100
-100
-100
-101
-101
-100
-100
-100
-100
-100
-100
-100
-100
-100
-100
-100
-100
-100
-100
-100
-100
-100
-99
-100
-99
-99
-99
-99
-99
-98
-99
-98
-98
-97
-98
-98
-98
-97
-97
-97
-96
-96
-96
-96
-96
-96
-96
-96
-96
-96
-96
-96
-96
-96
-96
-96
-95
-95
-95
-96
-96
-96
-95
-96
-96
-96
-96
-96
-96
-96
-97
-97
-97
-97
-97
-97
-97
-97
-97
-97
-97
-97
-96
-96
-96
-95
-96
-96
-96
-95
-96
-96
-96
-95
-96
-96
-96
-95
-96
-95
-95
-95
-95
-94
-95
-95
-95
-95
-95
-94
-95
-95
-95
-95
-95
-96
-96
-96
-96
-96
-96
-96
-95
-96
-95
-96
-96
-96
-96
-97
-96
-97
-97
-96
-96
-96
-96
-97
-97
-97
-96
-96
-97
-97
-97
-97
-97
-97
-97
-97
-98
-98
-98
-98
-98
-98
-98
-98
-99
-99
-99
-99
-99
-100
-100
-99
-99
-99
-99
-100
-100
-100
-100
-99
-98
-98
-99
-98
-98
-98
-98
-98
-98
-98
-97
-98
-98
-97
-97
-97
-98
-98
-98
-97
-98
-98
-98
-98
-98
-98
-98
-98
-99
-98
-98
-99
-99
-99
-99
-99
-99
-100
-100
-99
-99
-99
-99
-99
-99
-99
-99
-100
-100
-99
-100
-100
-99
-99
-99
-100
-100
-100
-100
-100
-99
-99
-100
-100
-100
-100
-99
-99
-100
-100
-100
-100
-100
-100
-100
-100
-101
-100
-100
-101
-101
-101
-101
-101
-101
-101
-100
-100
-101
-101
-101
-100
-101
-100
-100
-101
-102
-102
-102
-101
-101
-101
-101
-101
-101
-101
-101
-101
-101
-101
-101
-101
-101
-101
-101
-102
-102
-102
-102
-102
-102
-103
-102
-102
-102
-102
-102
-102
-102
-101
-102
-102
-101
-101
-101
-101
-102
-102
-101
-101
-100
-100
-100
-101
-100
-100
-100
-100
-100
-101
-100
-99
-99
-100
-99
-100
-100
-99
-99
-98
-98
-99
-98
-98
-97
-97
-97
-96
-96
-96
-96
-96
-95
-95
-94
-95
-95
-95
-95
-94
-94
-94
-94
-93
-93
-93
-93
-93
-93
-93
-93
-93
-93
-92
-93
-94
-94
-94
-94
-95
-95
-95
-96
-96
-97
-98
-98
-99
-100
-101
-102
-103
-103
-105
-106
-106
-108
-108
-108
-109
-110
-110
-110
-110
-111
-111
-111
-111
-111
-112
-111
-111
-111
-111
-110
-109
-109
-110
-109
-109
-108
-108
-107
-106
-107
-106
-106
-106
-105
-105
-105
-105
-104
-104
-104
-104
-105
-104
-105
-104
-103
-104
-104
-104
-104
-104
-103
-104
-105
-105
-105
-104
-104
-104
-104
-104
-105
-105
-105
-106
-105
-105
-105
-106
-105
-105
-105
-105
-105
-105
-105
-106
-105
-105
-105
-104
-105
-105
-104
-105
-105
-104
-104
-104
-104
-104
-104
-104
-104
-104
-104
-104
-104
-104
-104
-104
-105
-105
-105
-105
-104
-104
-104
-104
-104
-104
-103
-103
-101
-100
-98
-95
-92
-90
-86
-83
-79
-74
-68
-63
-57
-50
-43
-37
-30
-24
-17
-10
-4
2
9
15
19
24
26
29
31
32
31
30
28
25
20
15
7
0
-10
-19
-30
-41
-53
-65
-78
-92
-106
-120
-134
-148
-162
-175
-187
-199
-210
-220
-228
-237
-245
-251
-256
-262
-265
-267
-270
-271
-272
-271
-271
-270
-268
-265
-262
-259
-255
-252
-249
-245
-241
-237
-233
-228
-224
-220
-216
-212
-208
-204
-200
-196
-192
-187
-183
-178
-173
-169
-164
-160
-156
-152
-148
-145
-141
-137
-133
-129
-127
-124
-121
-118
-115
-113
-110
-109
-106
-105
-104
-103
-101
-100
-99
-98
-97
-96
-95
-95
-95
-94
-94
-94
-93
-92
-92
-92
-91
-91
-91
-90
-91
-90
-90
-90
-90
-89
-89
-88
-88
-88
-89
-89
-88
-88
-88
-88
-87
-86
-86
-86
-86
-86
-86
-86
-86
-86
-86
-86
-86
-86
-85
-85
-85
-85
-84
-84
-84
-84
-84
-84
-83
-83
-83
-83
-83
-82
-82
-83
-83
-82
-83
-82
-82
-83
-82
-82
-82
-82
-82
-82
-82
-82
-82
-82
-82
-82
-82
-82
-81
-81
-82
-82
-81
-81
-81
-80
-80
-80
-80
-80
-79
-79
-78
-79
-78
-78
-78
-77
-77
-77
-78
-77
-77
-76
-76
-76
-76
-75
-75
-75
-74
-74
-74
-73
-73
-72
-72
-72
-72
-72
-72
-72
-72
-72
-72
-72
-72
-71
-72
-71
-70
-71
-71
-71
-70
-70
-70
-70
-70
-70
-69
-70
-70
-69
-69
-68
-68
-68
-69
-68
-68
-68
-68
-67
-68
-67
-67
-68
-68
-68
-69
-69
-69
-69
-69
-70
-70
-70
-70
-71
-72
-72
-72
-72
-73
-74
-74
-75
-75
-76
-77
-78
-78
-78
-79
-80
-79
-80
-81
-82
-82
-82
-83
-83
-84
-85
-86
-86
-87
-88
-89
-89
-90
-91
-91
-92
-92
-92
-93
-93
-94
-95
-96
-97
-96
-98
-98
-99
-99
-99
-100
-101
-102
-102
-102
-103
-103
-103
-104
-104
-105
-105
-105
-105
-105
-106
-105
-105
-105
-105
-106
-105
-106
-105
-105
-104
-104
-104
-103
-103
-103
-102
-103
-102
-102
-101
-101
-101
-100
-101
-101
-101
-100
-100
-100
-99
-99
-99
-98
-98
-98
-98
-98
-98
-98
-97
-98
-97
-97
-96
-98
-98
-97
-97
-96
-96
-96
-95
-96
-95
-95
-95
-95
-95
-95
-94
-94
-94
-94
-94
-94
-94
-94
-93
-94
-94
-93
-94
-94
-93
-93
-93
-93
-93
-93
-93
-93
-93
-93
-93
-93
-93
-93
-93
-93
-92
-93
-93
-93
-93
-92
-92
-92
-93
-93
-92
-92
-92
-93
-93
-94
-93
-93
-93
-94
-94
-94
-94
-94
-94
-94
-95
-95
-96
-96
-96
-96
-96
-96
-97
-96
-97
-97
-97
-97
-97
-97
-97
-97
-97
-97
-97
-98
-98
-98
-97
-97
-97
-97
-97
-98
-97
-97
-97
-97
-97
-96
-96
-96
-96
-95
-95
-95
-95
-94
-95
-94
-94
-94
-95
-94
-95
-95
-94
-94
-94
-94
-93
-93
-93
-93
-93
-93
-94
-94
-93
-94
-94
-93
-93
-93
-94
-94
-93
-93
-93
-94
-93
-93
-93
-93
-93
-93
-93
-93
-94
-93
-93
-94
-94
-93
-94
-94
-94
-94
-93
-93
-93
-93
-93
-93
-93
-93
-94
-94
-93
-93
-93
-93
-94
-93
-94
-94
-93
-93
-93
-92
-92
-93
-92
-92
-93
-93
-93
-93
-92
-92
-92
-93
-93
-92
-93
-93
-93
-93
-93
-93
-93
-93
-93
-93
-93
-93
-94
-94
-93
-93
-93
-93
-94
-94
-94
-94
-94
-94
-94
-94
-94
-94
-94
-93
-93
-93
-93
-93
-93
-93
-92
-92
-93
-93
-93
-93
-92
-93
-93
-93
-92
-93
-93
-93
-93
-93
-94
-94
-94
-93
-93
-94
-94
-94
-95
-95
-95
-94
-95
-95
-95
-95
-95
-94
-94
-94
-95
-95
-94
-94
-94
-94
-95
-95
-96
-95
-96
-96
-96
-96
-95
-95
-95
-95
-95
-95
-96
-96
-95
-95
-95
-95
-95
-96
-95
-95
-95
-96
-95
-95
-95
-95
-95
-95
-95
-95
-95
-95
-95
-95
-96
-96
-96
-95
-96
-96
-96
-95
-95
-95
-96
-96
-96
-96
-96
-96
-95
-95
-96
-96
-96
-96
-96
-95
-96
-96
-96
-96
-96
-96
-96
-95
-95
-95
-95
-95
-95
-95
-95
-95
-95
-95
-95
-95
-96
-96
-96
-96
-96
-95
-95
-96
-96
-96
-96
-96
-96
-96
-96
-96
-96
-96
-97
-96
-97
-97
-97
-97
-97
-97
-97
-97
-97
-97
-96
-97
-97
-97
-97
-96
-96
-96
-97
-97
-96
-97
-96
-97
-96
-96
-96
-96
-96
-96
-95
-96
-96
-96
-96
-96
-96
-96
-96
-97
-98
-97
-97
-97
-97
-98
-98
-98
-98
-98
-98
-99
-99
-99
-99
-99
-99
-99
-99
-100
-99
-100
-99
-99
-100
-100
-99
-99
-99
-99
-98
-98
-99
-98
-98
-98
-98
-98
-98
-98
-99
-99
-98
-98
-98
-98
-98
-98
-98
-98
-98
-98
-97
-98
-97
-98
-97
-98
-98
-99
-99
-99
-99
-99
-100
-100
-99
-100
-99
-99
-99
-99
-100
-100
-100
-100
-100
-100
-100
-101
-100
-101
-101
-101
-101
-100
-100
-101
-101
-100
-100
-100
-100
-100
-100
-99
-99
-98
-98
-98
-98
-97
-97
-96
-96
-96
-95
-95
-95
-94
-94
-93
-94
-93
-92
-92
-92
-91
-91
-92
-92
-91
-91
-91
-90
-90
-90
-91
-90
-90
-90
-90
-91
-90
-90
-91
-91
-90
-91
-90
-90
-90
-90
-90
-90
-90
-89
-89
-89
-89
-89
-89
-89
-90
-90
-90
-90
-91
-93
-94
-94
-95
-96
-97
-97
-99
-99
-101
-101
-103
-103
-105
-105
-106
-106
-107
-107
-108
-108
-108
-109
-109
-108
-108
-108
-107
-107
-106
-107
-106
-106
-105
-105
-104
-104
-104
-103
-104
-103
-103
-103
-103
-103
-103
-102
-102
-102
-101
-101
-102
-102
-102
-102
-102
-102
-101
-101
-102
-102
-102
-102
-103
-102
-102
-103
-103
-102
-102
-102
-103
-103
-103
-103
-103
-103
-103
-103
-103
-103
-103
-104
-104
-104
-104
-103
-103
-103
-103
-103
-103
-103
-103
-103
-103
-103
-103
-103
-102
-102
-103
-102
-103
-102
-102
-102
-102
-102
-102
-102
-102
-101
-100
-99
-99
-96
-94
-92
-89
-86
-83
-79
-75
-70
-65
-60
-54
-48
-42
-37
-30
-24
-18
-13
-7
-2
4
8
12
15
18
19
21
20
20
19
16
12
7
1
-5
-12
-21
-30
-41
-52
-64
-75
-89
-102
-115
-129
-142
-155
-168
-180
-192
-203
-213
-223
-232
-240
-247
-253
-259
-262
-265
-268
-269
-271
-271
-271
-270
-268
-266
-263
-260
-257
-254
-251
-247
-244
-240
-236
-233
-229
-225
-222
-218
-215
-210
-207
-203
-199
-195
-191
-186
-182
-178
-174
-169
-165
-160
-156
-151
-147
-143
-139
-135
-132
-128
-124
-122
-119
-116
-113
-111
-108
-106
-104
-102
-101
-99
-98
-98
-97
-96
-95
-94
-93
-93
-94
-94
-93
-92
-91
-91
-91
-91
-90
-90
-90
-90
-90
-89
-89
-88
-88
-88
-88
-87
-87
-88
-87
-87
-86
-86
-86
-86
-86
-86
-85
-86
-85
-85
-85
-85
-85
-85
-85
-84
-85
-85
-85
-84
-84
-84
-83
-83
-83
-83
-83
-83
-83
-83
-83
-83
-82
-82
-82
-82
-82
-82
-82
-81
-82
-82
-81
-81
-81
-81
-81
-81
-81
-80
-81
-81
-81
-80
-80
-81
-82
-81
-81
-81
-81
-81
-81
-81
-81
-80
-80
-80
-79
-79
-79
-78
-78
-78
-78
-78
-78
-78
-78
-77
-77
-77
-76
-76
-76
-76
-75
-75
-75
-75
-75
-74
-74
-73
-73
-73
-73
-73
-73
-72
-72
-72
-72
-72
-71
-72
-71
-70
-71
-71
-70
-70
-70
-70
-70
-70
-70
-70
-70
-70
-69
-69
-69
-69
-70
-69
-69
-69
-70
-69
-69
-69
-70
-69
-69
-70
-70
-70
-71
-70
-70
-70
-70
-70
-70
-70
-70
-71
-71
-72
-71
-73
-72
-73
-73
-74
-75
-75
-76
-77
-76
-77
-78
-78
-79
-79
-80
-81
-82
-83
-83
-83
-84
-84
-85
-86
-86
-87
-88
-89
-89
-90
-90
-90
-91
-92
-93
-93
-95
-95
-96
-96
-97
-98
-98
-99
-100
-100
-100
-100
-100
-100
-101
-102
-101
-102
-102
-103
-103
-103
-103
-103
-103
-103
-104
-103
-104
-104
-103
-104
-103
-103
-102
-102
-103
-102
-103
-102
-102
-102
-101
-102
-101
-101
-101
-101
-101
-101
-101
-101
-100
-99
-100
-100
-99
-99
-99
-99
-99
-98
-98
-98
-98
-97
-98
-97
-97
-97
-96
-96
-96
-95
-95
-95
-94
-94
-94
-93
-94
-94
-93
-93
-93
-93
-93
-93
-93
-93
-93
-93
-93
-94
-94
-94
-94
-94
-94
-94
-95
-95
-95
-94
-95
-95
-95
-95
-95
-96
-95
-95
-95
-95
-95
-95
-95
-94
-94
-94
-94
-95
-94
-94
-94
-94
-94
-94
-94
-94
-94
-94
-93
-93
-93
-94
-94
-94
-94
-94
-94
-93
-93
-94
-93
-94
-94
-93
-94
-94
-94
-93
-93
-93
-93
-92
-92
-93
-93
-93
-93
-93
-93
-92
-92
-92
-92
-92
-93
-92
-93
-93
-92
-92
-92
-92
-92
-92
-92
-92
-93
-93
-93
-93
-93
-93
-93
-93
-94
-93
-93
-92
-92
-92
-91
-91
-91
-91
-91
-91
-90
-90
-90
-90
-90
-89
-89
-89
-89
-89
-89
-89
-89
-88
-88
-89
-89
-89
-88
-88
-89
-89
-89
-88
-88
-88
-88
-89
-88
-89
-89
-88
-88
-88
-88
-88
-88
-88
-88
-88
-88
-89
-89
-88
-88
-88
-88
-89
-90
-89
-89
-89
-89
-89
-89
-89
-89
-89
-89
-89
-89
-89
-89
-89
-90
-90
-90
-90
-90
-90
-90
-91
-91
-91
-91
-91
-91
-91
-91
-91
-91
-92
-92
-91
-91
-91
-92
-92
-92
-92
-92
-92
-91
-92
-92
-92
-92
-92
-91
-91
-92
-92
-92
-93
-93
-93
-93
-94
-93
-94
-94
-93
-94
-94
-94
-94
-94
-94
-94
-94
-94
-95
-95
-94
-94
-94
-94
-95
-95
-95
-95
-95
-96
-96
-96
-96
-96
-96
-96
-96
-96
-96
-96
-96
-97
-97
-97
-96
-97
-97
-97
-96
-96
-96
-96
-96
-96
-96
-96
-96
-96
-96
-95
-96
-96
-96
-96
-95
-96
-96
-96
-96
-96
-97
-96
-96
-96
-96
-96
-97
-97
-97
-97
-97
-97
-97
-97
-98
-98
-98
-98
-98
-98
-98
-98
-98
-98
-98
-97
-97
-97
-98
-98
-97
-97
-97
-97
-97
-97
-97
-97
-96
-97
-97
-97
-96
-96
-96
-97
-97
-96
-96
-96
-97
-97
-97
-97
-97
-97
-97
-97
-96
-97
-97
-97
-96
-96
-96
-96
-96
-96
-96
-96
-96
-96
-96
-96
-96
-97
-97
-97
-97
-96
-96
-96
-96
-97
-97
-96
-97
-97
-97
-97
-97
-96
-97
-97
-97
-97
-97
-97
-96
-97
-96
-96
-96
-96
-96
-96
-96
-96
-96
-96
-97
-96
-97
-97
-97
-97
-97
-97
-97
-96
-96
-96
-96
-96
-96
-97
-96
-96
-96
-96
-96
-96
-96
-97
-97
-97
-97
-97
-97
-97
-97
-97
-96
-97
-97
-96
-96
-97
-97
-97
-97
-97
-97
-97
-97
-97
-97
-97
-97
-97
-97
-96
-97
-97
-97
-97
-97
-97
-98
-98
-97
-97
-98
-98
-97
-98
-98
-98
-98
-97
-98
-98
-98
-98
-97
-97
-97
-97
-98
-96
-97
-97
-97
-97
-96
-97
-98
-98
-97
-97
-97
-97
-97
-97
-97
-97
-97
-96
-97
-97
-96
-96
-96
-95
-96
-96
-96
-96
-95
-96
-95
-95
-95
-94
-94
-94
-93
-93
-94
-93
-92
-92
-92
-91
-91
-91
-91
-91
-90
-90
-89
-89
-89
-89
-89
-88
-88
-88
-88
-87
-87
-87
-87
-87
-88
-88
-89
-89
-89
-89
-90
-89
-90
-91
-91
-92
-93
-94
-94
-95
-96
-97
-98
-99
-100
-101
-102
-103
-103
-104
-105
-105
-106
-107
-107
-108
-108
-109
-109
-110
-110
-110
-110
-110
-110
-110
-110
-110
-109
-109
-108
-109
-108
-108
-107
-107
-106
-107
-107
-106
-106
-106
-105
-105
-104
-104
-104
-104
-103
-103
-102
-103
-102
-103
-102
-101
-102
-102
-102
-101
-100
-101
-101
-101
-101
-101
-101
-101
-101
-101
-101
-101
-102
-102
-102
-102
-102
-102
-102
-102
-103
-103
-103
-103
-103
-104
-103
-103
-104
-103
-103
-103
-103
-102
-102
-102
-102
-102
-102
-102
-101
-101
-101
-101
-101
-101
-101
-101
-100
-100
-100
-100
-100
-100
-100
-99
-99
-99
-99
-99
-99
-99
-99
-99
-99
-98
-98
-97
-95
-95
-93
-91
-89
-87
-84
-81
-76
-72
-68
-64
-58
-53
-47
-42
-36
-30
-24
-18
-13
-7
-1
4
8
12
15
18
20
21
21
20
19
16
12
7
1
-5
-13
-21
-30
-39
-50
-61
-73
-85
-97
-110
-123
-135
-148
-160
-172
-182
-193
-203
-212
-220
-229
-235
-240
-245
-249
-252
-255
-256
-257
-257
-257
-257
-255
-253
-250
-247
-245
-242
-238
-235
-231
-228
-224
-221
-216
-213
-209
-206
-202
-199
-196
-192
-188
-185
-181
-177
-173
-168
-165
-161
-158
-154
-148
-145
-141
-137
-133
-129
-126
-122
-119
-116
-113
-111
-108
-105
-104
-101
-100
-98
-96
-95
-94
-93
-92
-91
-90
-89
-89
-88
-87
-87
-87
-86
-86
-86
-86
-85
-85
-85
-85
-85
-85
-84
-84
-84
-83
-84
-84
-84
-84
-84
-84
-83
-84
-83
-82
-83
-83
-83
-83
-83
-82
-82
-81
-82
-82
-81
-81
-81
-81
-81
-80
-80
-80
-79
-79
-79
-79
-79
-79
-79
-79
-78
-78
-78
-78
-78
-77
-77
-77
-76
-77
-77
-76
-76
-76
-77
-77
-77
-77
-77
-77
-77
-77
-77
-77
-77
-77
-77
-77
-77
-77
-77
-77
-77
-77
-76
-76
-76
-77
-77
-76
-76
-75
-75
-75
-75
-75
-74
-74
-74
-75
-75
-74
-74
-73
-74
-74
-74
-74
-75
-74
-74
-74
-74
-74
-74
-73
-73
-73
-73
-73
-73
-73
-73
-72
-73
-73
-72
-73
-73
-72
-72
-73
-72
-72
-72
-72
-71
-71
-72
-72
-71
-71
-71
-71
-71
-72
-72
-71
-72
-71
-71
-71
-72
-72
-71
-72
-72
-72
-73
-72
-73
-73
-73
-74
-75
-75
-75
-76
-77
-76
-77
-77
-77
-78
-78
-79
-79
-79
-80
-82
-81
-82
-82
-83
-83
-84
-84
-86
-86
-86
-87
-87
-88
-88
-89
-89
-90
-91
-91
-92
-92
-93
-92
-93
-94
-95
-96
-96
-97
-98
-98
-99
-100
-99
-100
-101
-101
-102
-103
-103
-103
-103
-104
-104
-103
-105
-105
-104
-106
-105
-105
-105
-105
-104
-104
-105
-104
-104
-104
-104
-104
-104
-103
-103
-103
-104
-104
-103
-104
-103
-102
-103
-102
-103
-102
-101
-102
-101
-101
-101
-101
-101
-101
-100
-99
-100
-100
-99
-99
-99
-98
-98
-97
-97
-96
-97
-96
-95
-96
-95
-95
-94
-94
-94
-94
-93
-94
-94
-93
-94
-93
-92
-93
-92
-92
-91
-92
-91
-91
-91
-92
-91
-91
-92
-91
-90
-91
-91
-91
-90
-90
-90
-90
-89
-90
-90
-90
-90
-90
-90
-90
-90
-89
-90
-90
-90
-90
-90
-90
-90
-90
-90
-90
-89
-89
-89
-89
-89
-89
-89
-89
-89
-89
-88
-88
-88
-89
-88
-88
-88
-87
-87
-87
-88
-88
-88
-88
-87
-88
-87
-87
-88
-87
-88
-88
-88
-87
-88
-88
-88
-87
-88
-88
-87
-87
-87
-87
-87
-87
-87
-87
-86
-86
-86
-86
-86
-86
-86
-87
-86
-86
-86
-86
-87
-87
-86
-87
-86
-87
-87
-87
-87
-86
-86
-86
-86
-86
-87
-87
-86
-87
-87
-87
-87
-87
-87
-87
-86
-87
-87
-86
-87
-87
-87
-86
-86
-87
-86
-87
-86
-87
-87
-87
-86
-86
-86
-86
-87
-86
-86
-86
-86
-86
-86
-86
-86
-86
-87
-86
-86
-86
-86
-85
-85
-86
-86
-86
-86
-86
-86
-86
-87
-86
-87
-87
-86
-86
-87
-87
-87
-87
-87
-87
-87
-87
-87
-87
-87
-87
-87
-87
-88
-88
-88
-88
-88
-88
-88
-88
-88
-88
-87
-87
-88
-88
-88
-88
-87
-87
-88
-88
-87
-88
-88
-88
-88
-88
-88
-89
-88
-88
-88
-89
-89
-89
-89
-89
-89
-90
-90
-90
-90
-90
-90
-90
-91
-91
-91
-91
-91
-91
-91
-90
-90
-90
-90
-90
-91
-90
-90
-90
-91
-91
-91
-91
-91
-91
-92
-91
-92
-91
-91
-91
-91
-91
-91
-91
-91
-91
-91
-91
-91
-91
-91
-91
-91
-92
-91
-92
-91
-91
-91
-91
-91
-91
-92
-92
-91
-92
-92
-91
-92
-92
-91
-92
-92
-92
-93
-93
-93
-92
-92
-92
-92
-91
-91
-92
-92
-91
-91
-91
-91
-90
-90
-90
-90
-91
-91
-91
-91
-90
-91
-91
-91
-91
-91
-91
-90
-91
-91
-91
-91
-92
-92
-92
-91
-92
-92
-92
-92
-92
-93
-93
-93
-93
-93
-93
-93
-93
-93
-94
-93
-93
-93
-94
-94
-93
-94
-94
-94
-93
-93
-93
-93
-93
-93
-93
-93
-93
-92
-92
-92
-92
-92
-92
-92
-92
-92
-92
-92
-91
-91
-92
-92
-92
-92
-92
-91
-92
-92
-91
-92
-91
-91
-91
-92
-91
-92
-91
-91
-92
-91
-91
-91
-91
-91
-91
-91
-91
-92
-92
-92
-91
-91
-91
-91
-91
-91
-92
-91
-91
-91
-91
-91
-91
-91
-90
-90
-90
-89
-89
-89
-89
-88
-88
-87
-88
-88
-87
-86
-86
-86
-84
-84
-84
-83
-83
-82
-82
-81
-81
-81
-81
-81
-81
-80
-81
-81
-81
-81
-81
-81
-81
-81
-81
-82
-82
-81
-82
-83
-83
-83
-83
-83
-84
-84
-85
-85
-86
-86
-86
-87
-88
-89
-90
-91
-92
-92
-94
-95
-96
-97
-97
-98
-99
-100
-101
-101
-103
-103
-103
-104
-104
-104
-104
-104
-104
-104
-103
-104
-103
-103
-102
-102
-102
-102
-101
-101
-101
-101
-100
-100
-99
-99
-98
-99
-98
-98
-98
-98
-98
-97
-98
-97
-97
-97
-97
-97
-97
-97
-97
-97
-97
-96
-97
-96
-96
-96
-97
-96
-97
-97
-96
-96
-96
-96
-97
-96
-96
-97
-96
-95
-95
-96
-95
-95
-95
-96
-95
-96
-95
-95
-95
-95
-95
-95
-96
-95
-96
-96
-95
-95
-95
-95
-95
-95
-95
-95
-95
-95
-95
-95
-95
-95
-94
-95
-95
-95
-95
-95
-95
-95
-95
-93
-93
-91
-90
-87
-85
-83
-80
-76
-72
-67
-64
-58
-52
-47
-41
-36
-29
-22
-16
-10
-4
2
8
13
17
21
24
26
28
28
28
26
24
20
15
9
3
-5
-12
-22
-31
-43
-54
-64
-76
-89
-101
-113
-125
-137
-149
-160
-172
-182
-193
-201
-210
-217
-223
-230
-234
-239
-242
-245
-247
-249
-249
