# Simple Text Format
# Sampling Rate (Hz):= 1200.00
# Resolution:= 12
# Labels:= ECG	 V4
# Age:=	23
# Gender:=	Masculino
2
2
2
2
3
3
3
3
4
4
4
5
5
5
5
6
7
7
7
7
8
8
8
9
9
9
9
10
10
9
9
10
10
11
10
10
10
10
11
11
11
11
12
12
12
12
13
13
13
14
14
14
15
14
14
14
15
14
14
14
13
12
12
11
12
11
11
10
10
10
9
8
8
7
8
7
7
6
7
6
5
4
4
5
4
3
4
3
3
2
3
2
2
1
0
1
0
0
0
-1
-1
-2
-2
-2
-3
-3
-3
-4
-4
-5
-5
-6
-6
-7
-8
-8
-8
-8
-9
-9
-10
-10
-11
-11
-11
-11
-11
-11
-12
-12
-12
-12
-12
-12
-12
-13
-12
-12
-12
-13
-13
-14
-14
-14
-14
-14
-14
-14
-14
-14
-14
-14
-14
-15
-15
-15
-15
-15
-15
-15
-15
-16
-16
-16
-15
-15
-15
-15
-15
-15
-15
-15
-16
-16
-16
-16
-16
-17
-18
-18
-18
-19
-19
-18
-18
-18
-18
-17
-16
-16
-15
-14
-12
-10
-8
-6
-3
0
3
7
11
17
23
28
36
43
51
60
69
78
89
101
112
124
137
150
164
177
191
204
218
231
245
258
271
281
290
298
304
308
311
312
311
308
303
296
287
275
260
242
221
197
172
146
119
92
64
35
5
-23
-53
-80
-108
-132
-156
-178
-196
-214
-228
-239
-248
-255
-260
-262
-261
-259
-256
-250
-243
-235
-227
-218
-208
-198
-187
-177
-166
-156
-146
-136
-127
-118
-109
-100
-92
-85
-77
-71
-64
-59
-53
-49
-44
-39
-36
-32
-30
-28
-25
-23
-21
-20
-19
-17
-16
-15
-14
-13
-12
-12
-11
-10
-11
-10
-9
-9
-9
-8
-8
-8
-8
-7
-7
-6
-5
-4
-4
-3
-3
-3
-2
-2
-2
-1
-1
-1
-1
-1
-1
0
0
1
0
1
1
2
1
1
2
3
3
3
4
4
4
5
5
6
6
6
6
7
7
8
8
9
9
10
11
11
12
13
13
14
14
15
16
17
17
18
18
18
19
20
20
21
21
22
22
23
23
24
24
25
25
26
27
27
28
28
28
29
30
31
31
32
33
35
36
37
38
39
40
41
42
43
44
45
46
47
49
49
51
52
52
54
55
56
57
58
59
60
61
63
64
65
66
68
69
70
71
73
74
75
77
78
80
82
83
84
86
87
90
91
92
94
96
97
98
101
102
104
105
106
108
110
111
114
115
116
117
119
120
122
123
125
127
128
128
130
132
132
133
134
135
136
136
138
139
139
140
141
141
141
141
143
143
143
142
143
142
142
143
142
142
142
141
141
141
140
140
139
138
137
136
136
135
134
133
131
130
129
127
125
124
123
121
120
117
116
114
112
110
108
106
104
102
99
97
95
92
89
87
84
81
79
76
74
72
68
66
64
62
59
57
54
52
49
47
45
41
40
36
35
32
31
28
27
24
22
20
19
16
15
13
11
10
8
6
5
3
1
0
-2
-2
-4
-5
-7
-8
-9
-9
-11
-12
-13
-14
-15
-15
-17
-17
-18
-19
-20
-20
-21
-22
-22
-22
-23
-24
-24
-24
-25
-25
-25
-26
-26
-27
-27
-27
-27
-27
-28
-28
-28
-28
-29
-29
-29
-29
-29
-29
-30
-29
-30
-30
-30
-30
-30
-31
-31
-32
-33
-32
-32
-32
-32
-33
-33
-34
-33
-33
-33
-33
-34
-34
-34
-35
-35
-35
-35
-35
-35
-36
-36
-36
-36
-36
-36
-36
-37
-37
-37
-37
-38
-38
-38
-38
-38
-38
-38
-38
-39
-39
-39
-39
-39
-39
-38
-38
-38
-38
-38
-38
-39
-39
-39
-38
-38
-38
-39
-39
-39
-39
-39
-39
-38
-38
-38
-39
-39
-38
-38
-38
-37
-37
-37
-36
-36
-36
-36
-36
-36
-36
-36
-36
-36
-36
-35
-35
-35
-35
-35
-35
-35
-35
-35
-35
-35
-35
-35
-34
-35
-34
-34
-34
-34
-34
-33
-33
-33
-33
-33
-33
-33
-34
-33
-33
-34
-34
-34
-34
-35
-34
-34
-35
-35
-35
-34
-34
-34
-34
-34
-34
-34
-35
-35
-34
-34
-35
-35
-35
-35
-35
-35
-36
-36
-36
-35
-35
-36
-36
-35
-35
-36
-36
-36
-36
-36
-36
-37
-37
-38
-37
-38
-38
-38
-38
-39
-39
-39
-39
-40
-41
-41
-42
-42
-41
-42
-42
-42
-43
-43
-43
-44
-43
-43
-43
-43
-44
-44
-44
-44
-44
-45
-45
-45
-46
-46
-46
-47
-47
-48
-49
-49
-49
-49
-49
-49
-49
-50
-50
-51
-51
-51
-52
-51
-51
-52
-52
-52
-52
-53
-52
-53
-52
-52
-53
-53
-53
-53
-53
-53
-53
-53
-54
-54
-54
-54
-54
-55
-55
-56
-56
-56
-56
-57
-57
-57
-57
-57
-57
-57
-57
-58
-58
-58
-58
-58
-58
-58
-58
-59
-58
-58
-59
-59
-59
-59
-59
-59
-59
-58
-58
-59
-59
-58
-58
-58
-58
-58
-59
-59
-59
-59
-60
-59
-59
-59
-60
-60
-60
-60
-60
-61
-61
-61
-61
-61
-61
-62
-62
-62
-63
-63
-62
-63
-63
-63
-63
-63
-63
-62
-62
-63
-63
-63
-62
-62
-62
-62
-63
-63
-63
-63
-63
-63
-63
-63
-63
-63
-63
-63
-63
-64
-64
-64
-64
-64
-65
-64
-65
-65
-65
-65
-65
-66
-66
-66
-66
-66
-66
-67
-68
-67
-67
-68
-68
-68
-68
-68
-69
-69
-69
-69
-69
-69
-70
-70
-70
-70
-71
-71
-71
-72
-72
-72
-72
-72
-72
-73
-73
-73
-74
-74
-74
-74
-74
-74
-74
-74
-74
-74
-74
-75
-75
-75
-75
-75
-75
-75
-76
-76
-76
-76
-76
-76
-75
-75
-75
-75
-75
-74
-74
-75
-74
-73
-73
-73
-72
-72
-71
-71
-71
-70
-69
-69
-68
-67
-67
-66
-66
-66
-65
-65
-65
-65
-63
-63
-63
-63
-63
-64
-63
-63
-63
-62
-62
-62
-62
-61
-61
-61
-60
-60
-60
-60
-58
-58
-58
-57
-57
-57
-56
-56
-56
-56
-56
-56
-56
-56
-56
-56
-57
-57
-58
-59
-59
-60
-60
-61
-62
-63
-63
-64
-64
-65
-65
-65
-66
-66
-67
-68
-68
-69
-69
-69
-69
-70
-70
-72
-72
-72
-72
-73
-73
-74
-74
-75
-75
-75
-76
-76
-77
-77
-78
-79
-79
-80
-80
-81
-82
-83
-82
-82
-83
-83
-83
-84
-84
-84
-85
-84
-85
-86
-86
-86
-86
-86
-86
-86
-85
-86
-87
-87
-86
-86
-86
-85
-86
-86
-86
-86
-85
-86
-86
-85
-85
-86
-86
-86
-85
-86
-86
-86
-85
-85
-85
-85
-85
-85
-85
-85
-86
-86
-85
-85
-86
-86
-86
-87
-86
-87
-88
-88
-87
-87
-88
-88
-87
-87
-87
-88
-87
-86
-86
-85
-84
-82
-81
-80
-79
-76
-74
-72
-69
-66
-62
-58
-53
-48
-42
-37
-31
-24
-17
-9
0
10
18
29
39
50
60
71
83
94
106
118
130
142
152
164
173
183
191
197
203
206
208
208
207
204
200
195
187
176
164
149
131
111
90
66
42
17
-10
-36
-63
-90
-117
-143
-169
-193
-216
-238
-257
-274
-290
-303
-314
-322
-327
-331
-333
-333
-330
-326
-321
-315
-307
-298
-289
-280
-270
-260
-249
-238
-228
-218
-209
-199
-189
-181
-172
-164
-156
-149
-142
-136
-130
-126
-121
-117
-113
-108
-105
-102
-100
-97
-95
-93
-91
-91
-90
-88
-87
-86
-85
-85
-85
-84
-83
-83
-83
-82
-81
-80
-80
-79
-80
-79
-79
-78
-77
-77
-77
-76
-75
-75
-74
-74
-74
-73
-73
-72
-71
-70
-70
-69
-69
-69
-68
-68
-67
-67
-67
-67
-67
-66
-66
-66
-65
-66
-65
-65
-65
-64
-64
-64
-63
-63
-62
-62
-62
-62
-61
-61
-60
-59
-60
-59
-58
-58
-58
-58
-57
-56
-56
-55
-55
-55
-55
-54
-54
-54
-53
-53
-52
-52
-52
-52
-51
-51
-50
-49
-48
-47
-47
-46
-45
-46
-45
-44
-43
-43
-42
-42
-41
-40
-39
-38
-38
-37
-37
-36
-35
-34
-33
-32
-32
-31
-30
-29
-28
-28
-27
-25
-24
-23
-22
-22
-20
-20
-18
-17
-16
-14
-13
-12
-10
-9
-8
-6
-5
-4
-2
-2
1
2
3
5
6
8
9
10
12
13
14
16
18
19
20
22
23
24
26
27
29
30
32
32
33
34
36
37
39
40
41
42
44
45
46
47
48
50
51
52
53
54
54
56
56
57
56
58
59
59
59
60
61
61
61
61
61
61
60
60
61
61
60
59
59
59
58
58
57
57
56
55
54
53
52
51
51
50
48
47
46
45
43
42
40
38
36
35
33
31
29
28
26
24
22
20
18
16
14
12
9
7
5
3
0
-2
-4
-7
-9
-12
-13
-16
-18
-20
-22
-25
-26
-28
-31
-33
-35
-36
-38
-40
-42
-44
-46
-47
-49
-51
-52
-54
-55
-56
-58
-60
-61
-62
-63
-65
-67
-68
-69
-70
-72
-73
-75
-75
-76
-77
-77
-79
-79
-80
-81
-82
-82
-83
-84
-84
-84
-85
-86
-87
-87
-88
-89
-89
-89
-89
-90
-91
-91
-92
-92
-92
-92
-93
-93
-93
-94
-94
-94
-94
-95
-96
-96
-96
-96
-96
-97
-97
-98
-98
-98
-99
-99
-100
-99
-101
-101
-101
-101
-102
-102
-103
-104
-104
-104
-104
-104
-104
-104
-103
-104
-105
-105
-104
-105
-105
-105
-106
-105
-106
-106
-107
-107
-108
-107
-107
-107
-107
-108
-107
-108
-108
-108
-107
-107
-107
-108
-108
-108
-108
-108
-108
-108
-108
-108
-108
-108
-108
-108
-108
-108
-108
-108
-108
-109
-109
-109
-109
-109
-109
-110
-111
-111
-111
-112
-112
-112
-112
-112
-112
-112
-112
-112
-112
-112
-112
-112
-113
-113
-113
-113
-114
-113
-113
-114
-114
-114
-114
-114
-114
-114
-114
-114
-114
-115
-115
-115
-115
-115
-115
-116
-116
-116
-116
-116
-116
-117
-117
-117
-117
-117
-117
-117
-117
-117
-116
-117
-117
-117
-117
-118
-117
-118
-118
-117
-117
-117
-117
-117
-117
-117
-118
-117
-118
-117
-118
-118
-117
-118
-118
-118
-118
-119
-119
-118
-118
-118
-118
-119
-119
-119
-120
-120
-120
-121
-121
-121
-121
-122
-122
-122
-122
-123
-123
-123
-124
-124
-125
-125
-125
-126
-126
-126
-127
-128
-128
-129
-129
-131
-132
-132
-133
-133
-134
-135
-135
-136
-136
-137
-138
-139
-140
-140
-141
-141
-143
-143
-143
-144
-144
-145
-145
-146
-146
-146
-146
-146
-147
-147
-147
-147
-147
-147
-148
-148
-148
-148
-149
-149
-149
-148
-149
-149
-149
-149
-150
-150
-150
-150
-150
-150
-150
-151
-151
-151
-151
-152
-152
-152
-152
-152
-153
-153
-153
-154
-154
-154
-154
-155
-155
-155
-155
-155
-156
-156
-157
-157
-157
-157
-157
-158
-159
-158
-158
-159
-159
-159
-158
-158
-158
-158
-159
-159
-159
-158
-159
-158
-158
-158
-158
-158
-158
-159
-159
-158
-158
-158
-158
-158
-158
-158
-158
-158
-158
-158
-158
-158
-158
-158
-158
-159
-159
-159
-159
-159
-159
-160
-160
-160
-160
-160
-160
-160
-160
-161
-161
-160
-160
-160
-161
-161
-161
-161
-161
-161
-161
-161
-162
-161
-160
-161
-161
-161
-161
-160
-160
-161
-160
-160
-160
-160
-160
-161
-160
-160
-159
-159
-159
-159
-159
-159
-159
-160
-159
-159
-159
-159
-160
-159
-159
-159
-160
-160
-161
-160
-160
-160
-160
-160
-160
-160
-160
-160
-160
-161
-161
-160
-161
-160
-160
-161
-161
-162
-161
-161
-161
-160
-160
-160
-160
-161
-160
-160
-160
-161
-160
-160
-160
-160
-160
-161
-160
-161
-161
-162
-161
-161
-161
-161
-161
-161
-161
-161
-162
-162
-162
-162
-162
-162
-162
-162
-162
-162
-162
-162
-162
-162
-162
-162
-162
-161
-161
-161
-162
-162
-162
-162
-162
-162
-162
-162
-162
-162
-162
-162
-161
-162
-162
-162
-162
-162
-162
-162
-162
-162
-162
-162
-161
-161
-161
-162
-161
-162
-162
-162
-162
-162
-161
-161
-161
-162
-162
-162
-161
-161
-161
-161
-161
-161
-161
-160
-160
-160
-160
-160
-159
-159
-158
-158
-158
-157
-157
-157
-156
-156
-155
-155
-155
-154
-153
-153
-153
-152
-152
-152
-152
-150
-150
-150
-150
-150
-149
-149
-148
-149
-148
-148
-147
-147
-147
-146
-146
-146
-145
-144
-143
-142
-142
-141
-140
-139
-139
-138
-137
-136
-136
-136
-135
-135
-135
-134
-135
-136
-135
-136
-136
-136
-137
-137
-137
-139
-138
-140
-140
-141
-141
-142
-143
-143
-144
-144
-145
-146
-146
-147
-147
-147
-148
-149
-149
-149
-150
-150
-152
-152
-152
-152
-153
-154
-154
-156
-156
-156
-158
-158
-158
-159
-159
-159
-160
-161
-161
-162
-162
-163
-163
-164
-164
-165
-165
-166
-167
-167
-167
-168
-168
-168
-168
-168
-168
-169
-170
-170
-171
-170
-170
-171
-171
-171
-172
-171
-172
-172
-172
-172
-173
-173
-173
-172
-172
-173
-173
-173
-173
-173
-173
-172
-172
-172
-172
-173
-172
-173
-173
-172
-172
-172
-172
-172
-172
-172
-172
-172
-172
-173
-172
-173
-172
-172
-172
-172
-172
-172
-171
-171
-169
-169
-167
-166
-164
-162
-160
-157
-154
-152
-148
-145
-140
-135
-131
-125
-120
-113
-107
-99
-92
-84
-76
-67
-57
-48
-38
-28
-18
-7
5
16
27
38
50
61
71
81
91
100
107
112
116
119
120
120
118
115
110
104
94
83
69
53
34
13
-10
-34
-58
-83
-108
-134
-160
-186
-212
-236
-260
-283
-304
-324
-341
-357
-370
-380
-390
-396
-401
-403
-403
-402
-398
-394
-388
-381
-374
-365
-356
-346
-336
-327
-317
-307
-297
-288
-278
-269
-260
-252
-244
-236
-229
-222
-216
-209
-204
-199
-194
-190
-186
-183
-179
-177
-174
-172
-169
-167
-166
-165
-163
-162
-161
-160
-159
-159
-158
-158
-157
-157
-157
-156
-156
-155
-155
-154
-154
-154
-154
-154
-153
-152
-153
-152
-152
-151
-151
-150
-150
-150
-149
-150
-149
-149
-148
-148
-148
-148
-147
-147
-147
-146
-146
-145
-145
-144
-144
-144
-143
-143
-143
-143
-142
-141
-141
-140
-140
-140
-140
-139
-139
-138
-137
-138
-138
-137
-137
-137
-136
-136
-136
-135
-134
-134
-134
-134
-134
-133
-133
-133
-132
-132
-131
-130
-130
-129
-129
-128
-128
-128
-127
-127
-126
-126
-125
-124
-124
-124
-123
-123
-122
-121
-120
-119
-118
-117
-117
-116
-114
-112
-112
-111
-110
-109
-108
-107
-106
-105
-104
-104
-103
-101
-100
-99
-98
-97
-96
-95
-93
-92
-92
-91
-90
-88
-87
-86
-84
-84
-82
-81
-80
-79
-77
-75
-74
-73
-72
-70
-69
-68
-66
-65
-63
-62
-60
-59
-57
-56
-54
-54
-52
-50
-49
-48
-45
-44
-42
-41
-40
-38
-37
-36
-34
-33
-31
-30
-29
-27
-27
-26
-25
-24
-23
-21
-20
-19
-18
-18
-16
-16
-15
-15
-14
-13
-13
-12
-11
-12
-11
-12
-11
-10
-10
-10
-10
-10
-10
-10
-10
-10
-11
-11
-11
-11
-11
-12
-13
-13
-14
-15
-16
-16
-17
-18
-19
-20
-21
-22
-23
-25
-26
-28
-30
-31
-32
-35
-36
-38
-41
-43
-45
-47
-49
-51
-53
-55
-57
-59
-62
-64
-66
-68
-71
-73
-74
-76
-79
-82
-84
-86
-88
-89
-92
-94
-96
-97
-99
-101
-103
-104
-107
-108
-109
-110
-112
-115
-116
-117
-119
-121
-122
-123
-124
-126
-127
-129
-130
-131
-133
-134
-135
-136
-137
-138
-139
-141
-141
-142
-144
-145
-145
-146
-146
-147
-148
-148
-149
-150
-150
-150
-151
-153
-153
-153
-153
-153
-154
-154
-155
-156
-156
-156
-156
-156
-157
-157
-158
-158
-158
-158
-158
-159
-159
-159
-159
-159
-159
-160
-161
-160
-160
-160
-161
-161
-161
-161
-161
-161
-161
-161
-161
-161
-161
-160
-160
-160
-160
-160
-161
-161
-160
-161
-161
-161
-160
-160
-160
-160
-160
-160
-160
-161
-161
-161
-161
-161
-161
-161
-161
-162
-162
-161
-161
-161
-161
-160
-160
-160
-160
-160
-160
-160
-160
-159
-160
-159
-159
-158
-159
-159
-159
-159
-158
-158
-158
-158
-158
-158
-158
-158
-158
-158
-158
-157
-157
-157
-157
-157
-157
-158
-158
-157
-156
-156
-156
-156
-155
-156
-156
-156
-156
-155
-155
-156
-155
-155
-155
-156
-155
-156
-156
-155
-155
-155
-155
-155
-155
-155
-155
-155
-155
-156
-156
-156
-156
-156
-156
-157
-156
-157
-157
-157
-157
-157
-156
-156
-157
-157
-157
-157
-157
-158
-158
-157
-157
-157
-157
-158
-158
-159
-159
-159
-158
-158
-158
-159
-159
-159
-159
-159
-159
-160
-160
-159
-160
-160
-160
-160
-161
-162
-162
-162
-162
-162
-162
-162
-162
-162
-162
-162
-162
-163
-163
-163
-163
-164
-164
-163
-164
-165
-165
-165
-165
-165
-165
-166
-166
-166
-166
-166
-167
-167
-168
-167
-167
-167
-168
-168
-169
-168
-168
-169
-169
-169
-169
-169
-169
-169
-169
-170
-170
-170
-170
-171
-171
-171
-171
-172
-172
-172
-172
-172
-172
-173
-173
-173
-173
-173
-173
-173
-173
-174
-174
-175
-174
-174
-175
-175
-176
-175
-175
-176
-176
-176
-176
-176
-176
-176
-176
-176
-177
-177
-177
-177
-177
-177
-178
-177
-178
-178
-178
-178
-178
-179
-179
-179
-179
-179
-179
-179
-179
-179
-179
-179
-179
-179
-179
-179
-180
-179
-180
-180
-180
-180
-180
-180
-180
-180
-180
-180
-180
-181
-181
-180
-180
-180
-180
-181
-180
-181
-181
-181
-180
-181
-181
-181
-181
-180
-180
-180
-180
-181
-180
-180
-180
-180
-180
-180
-180
-180
-180
-180
-180
-179
-179
-179
-179
-179
-179
-179
-180
-180
-180
-180
-180
-180
-181
-181
-182
-181
-182
-182
-181
-182
-183
-183
-183
-183
-183
-182
-183
-183
-183
-182
-182
-182
-183
-182
-182
-183
-183
-182
-182
-182
-182
-182
-182
-182
-182
-182
-183
-182
-182
-183
-183
-183
-183
-184
-183
-184
-184
-184
-183
-184
-184
-183
-183
-183
-183
-182
-182
-181
-181
-181
-180
-179
-179
-178
-178
-178
-177
-177
-176
-175
-175
-174
-173
-173
-173
-172
-172
-171
-171
-171
-171
-170
-170
-170
-169
-170
-169
-169
-169
-168
-168
-168
-167
-167
-167
-166
-166
-166
-165
-164
-164
-163
-163
-163
-162
-161
-161
-161
-161
-160
-160
-160
-160
-160
-159
-159
-159
-161
-161
-161
-161
-161
-162
-163
-163
-164
-164
-165
-166
-166
-166
-166
-168
-168
-169
-169
-169
-170
-170
-171
-171
-172
-172
-172
-173
-174
-174
-174
-175
-175
-176
-176
-177
-177
-178
-178
-178
-179
-180
-181
-181
-181
-181
-182
-183
-184
-184
-185
-185
-186
-186
-186
-187
-187
-187
-187
-188
-189
-189
-189
-189
-189
-191
-191
-191
-191
-192
-192
-191
-191
-192
-192
-192
-192
-192
-192
-192
-193
-193
-193
-193
-193
-193
-193
-193
-194
-193
-193
-193
-193
-193
-192
-192
-192
-192
-192
-192
-192
-192
-191
-191
-191
-191
-191
-191
-191
-191
-190
-191
-190
-191
-190
-190
-190
-190
-188
-188
-187
-186
-185
-184
-183
-181
-179
-176
-174
-170
-166
-162
-158
-153
-148
-142
-136
-128
-122
-114
-106
-98
-89
-79
-69
-60
-50
-39
-28
-17
-6
5
17
29
40
52
62
72
82
90
97
103
106
108
109
109
107
103
98
91
83
71
56
38
19
-3
-26
-50
-75
-100
-126
-152
-178
-205
-231
-256
-280
-303
-324
-344
-360
-376
-388
-399
-408
-415
-418
-420
-420
-419
-415
-411
-404
-398
-390
-382
-373
-363
-353
-344
-334
-323
-314
-304
-295
-286
-277
-268
-261
-253
-245
-239
-233
-227
-222
-216
-211
-208
-204
-200
-196
-193
-191
-188
-186
-184
-183
-181
-180
-179
-177
-177
-175
-176
-175
-173
-173
-173
-173
-172
-171
-171
-171
-170
-169
-169
-168
-168
-167
-167
-167
-166
-166
-166
-165
-165
-165
-164
-164
-164
-164
-163
-162
-162
-161
-161
-161
-160
-161
-160
-160
-160
-159
-158
-158
-158
-157
-157
-157
-156
-156
-156
-155
-155
-154
-154
-154
-153
-153
-153
-153
-152
-152
-151
-151
-151
-151
-150
-150
-150
-150
-149
-148
-148
-147
-148
-147
-147
-146
-146
-145
-144
-145
-144
-143
-143
-143
-142
-142
-141
-141
-140
-139
-139
-138
-137
-136
-135
-134
-134
-133
-133
-132
-131
-130
-130
-128
-128
-128
-126
-125
-124
-124
-123
-122
-121
-120
-119
-118
-117
-116
-114
-114
-113
-112
-111
-109
-108
-107
-106
-105
-103
-102
-100
-99
-99
-96
-95
-95
-92
-91
-90
-88
-87
-86
-84
-82
-81
-80
-78
-77
-75
-73
-72
-70
-69
-67
-66
-64
-63
-61
-60
-58
-57
-55
-54
-52
-51
-50
-49
-48
-46
-45
-43
-42
-41
-40
-39
-37
-36
-36
-35
-33
-32
-32
-32
-30
-30
-30
-29
-28
-28
-27
-27
-27
-26
-26
-26
-25
-25
-26
-25
-25
-25
-26
-26
-26
-27
-27
-28
-28
-29
-28
-29
-30
-31
-32
-33
-34
-35
-36
-37
-38
-39
-41
-42
-43
-45
-48
-49
-50
-53
-54
-56
-58
-60
-62
-64
-67
-69
-70
-73
-75
-77
-80
-82
-84
-87
-89
-92
-93
-96
-98
-100
-101
-104
-106
-109
-110
-112
-114
-117
-119
-120
-123
-124
-126
-128
-130
-131
-133
-134
-136
-138
-139
-141
-142
-144
-145
-146
-148
-149
-150
-151
-152
-153
-154
-156
-157
-158
-159
-160
-160
-162
-162
-163
-163
-164
-165
-166
-167
-167
-168
-168
-168
-169
-169
-170
-171
-172
-172
-172
-171
-172
-172
-172
-173
-173
-173
-173
-174
-174
-174
-173
-174
-175
-175
-175
-175
-175
-175
-175
-175
-175
-175
-175
-175
-175
-176
-175
-176
-176
-176
-175
-176
-176
-176
-177
-177
-177
-177
-177
-176
-176
-176
-177
-177
-177
-177
-177
-177
-177
-177
-177
-177
-177
-177
-178
-178
-178
-178
-178
-178
-177
-178
-178
-177
-177
-177
-177
-178
-178
-177
-177
-177
-177
-177
-177
-177
-176
-177
-176
-176
-175
-175
-175
-174
-175
-175
-174
-174
-174
-174
-173
-173
-173
-173
-173
-174
-174
-174
-173
-174
-173
-173
-173
-173
-173
-173
-173
-174
-173
-173
-173
-172
-172
-173
-173
-172
-173
-172
-173
-172
-172
-172
-172
-171
-171
-171
-171
-171
-171
-170
-171
-171
-171
-170
-171
-170
-170
-170
-170
-170
-170
-169
-169
-169
-168
-169
-169
-169
-169
-169
-169
-169
-169
-168
-168
-169
-169
-168
-169
-169
-169
-168
-168
-169
-169
-168
-169
-169
-169
-169
-169
-169
-169
-169
-169
-169
-170
-170
-169
-169
-169
-169
-169
-169
-170
-170
-170
-171
-171
-171
-171
-172
-172
-172
-172
-173
-173
-173
-173
-173
-173
-174
-175
-174
-174
-174
-175
-175
-175
-175
-175
-176
-176
-177
-176
-177
-177
-177
-177
-177
-177
-177
-177
-178
-178
-178
-178
-178
-178
-178
-177
-177
-177
-177
-178
-178
-178
-178
-177
-178
-178
-178
-178
-178
-178
-178
-178
-178
-179
-178
-179
-179
-179
-179
-179
-180
-180
-180
-180
-179
-180
-180
-180
-180
-180
-180
-181
-181
-181
-181
-181
-181
-181
-181
-181
-182
-182
-181
-181
-181
-180
-180
-180
-180
-180
-180
-180
-181
-180
-181
-181
-181
-181
-181
-182
-181
-182
-182
-182
-182
-182
-182
-182
-182
-182
-182
-182
-183
-183
-183
-182
-183
-183
-183
-183
-184
-184
-184
-184
-183
-184
-184
-184
-184
-184
-183
-184
-184
-184
-184
-184
-183
-183
-183
-182
-182
-182
-181
-181
-181
-180
-179
-179
-178
-178
-178
-177
-176
-176
-176
-175
-175
-174
-174
-173
-173
-173
-172
-172
-172
-172
-172
-172
-172
-172
-172
-171
-172
-172
-171
-171
-171
-171
-170
-170
-170
-169
-169
-168
-168
-168
-167
-167
-166
-166
-166
-166
-166
-166
-166
-166
-166
-166
-166
-167
-168
-168
-169
-168
-169
-170
-170
-170
-171
-171
-171
-171
-172
-172
-172
-173
-173
-174
-174
-174
-175
-175
-176
-176
-176
-177
-177
-178
-178
-178
-179
-180
-180
-180
-181
-181
-182
-182
-182
-183
-184
-184
-185
-185
-185
-186
-185
-185
-186
-187
-187
-187
-188
-188
-188
-188
-188
-189
-189
-189
-190
-191
-191
-190
-190
-191
-191
-191
-192
-192
-192
-192
-192
-192
-192
-192
-192
-193
-193
-193
-193
-193
-193
-193
-194
-193
-193
-193
-193
-193
-193
-193
-193
-193
-193
-193
-193
-193
-192
-192
-193
-193
-193
-193
-192
-192
-193
-193
-193
-193
-193
-193
-193
-192
-193
-193
-192
-193
-192
-191
-191
-191
-190
-189
-187
-186
-184
-181
-180
-177
-174
-171
-167
-163
-158
-152
-147
-140
-133
-126
-117
-109
-100
-90
-79
-68
-56
-44
-32
-19
-6
8
21
36
50
62
76
89
101
111
120
127
133
138
140
141
140
137
132
125
115
103
88
69
47
23
-2
-29
-55
-84
-113
-141
-170
-198
-227
-254
-280
-305
-327
-348
-366
-383
-396
-407
-415
-422
-425
-427
-426
-424
-421
-415
-408
-401
-393
-384
-374
-364
-354
-345
-335
-325
-316
-306
-297
-287
-279
-272
-263
-256
-249
-242
-235
-230
-223
-219
-214
-209
-206
-202
-199
-195
-193
-191
-188
-186
-185
-183
-181
-181
-180
-179
-178
-177
-176
-175
-175
-174
-174
-173
-173
-173
-172
-171
-172
-171
-170
-170
-169
-169
-169
-169
-169
-168
-167
-167
-167
-166
-166
-165
-164
-164
-164
-163
-163
-163
-163
-161
-161
-161
-162
-161
-160
-160
-159
-159
-159
-159
-159
-159
-158
-158
-158
-157
-158
-157
-157
-157
-157
-157
-156
-156
-156
-155
-154
-154
-153
-153
-153
-152
-152
-152
-152
-151
-151
-150
-150
-149
-148
-148
-147
-147
-147
-147
-146
-146
-144
-144
-143
-143
-143
-142
-141
-141
-140
-140
-138
-137
-137
-136
-136
-135
-135
-133
-132
-131
-130
-129
-128
-127
-126
-125
-124
-124
-122
-121
-120
-120
-118
-117
-117
-115
-114
-113
-112
-111
-109
-108
-108
-106
-105
-104
-102
-101
-100
-98
-97
-96
-95
-93
-93
-91
-89
-87
-86
-84
-83
-81
-80
-78
-77
-75
-73
-71
-69
-68
-66
-65
-63
-61
-60
-58
-56
-54
-53
-51
-50
-48
-47
-45
-43
-42
-41
-40
-39
-38
-37
-36
-34
-34
-33
-31
-30
-29
-29
-27
-26
-26
-25
-24
-23
-23
-22
-22
-22
-22
-21
-21
-22
-21
-21
-22
-22
-23
-23
-23
-24
-25
-26
-25
-27
-27
-29
-30
-31
-32
-33
-33
-35
-36
-38
-39
-41
-42
-43
-45
-47
-48
-50
-52
-55
-57
-59
-62
-64
-66
-69
-71
-74
-77
-80
-83
-85
-87
-90
-92
-96
-98
-100
-102
-105
-108
-110
-112
-115
-117
-120
-122
-124
-126
-129
-131
-133
-135
-136
-139
-140
-142
-145
-146
-147
-150
-151
-153
-155
-156
-158
-159
-160
-163
-163
-165
-166
-168
-168
-170
-170
-172
-172
-173
-174
-175
-175
-176
-177
-177
-178
-178
-180
-181
-181
-182
-182
-183
-183
-183
-183
-184
-184
-184
-184
-185
-185
-186
-186
-186
-186
-186
-186
-187
-187
-187
-187
-187
-187
-187
-187
-187
-187
-187
-187
-187
-187
-187
-187
-187
-187
-187
-187
-188
-188
-188
-188
-188
-188
-188
-188
-188
-188
-188
-188
-189
-189
-189
-189
-190
-190
-190
-189
-189
-190
-189
-189
-189
-190
-189
-189
-189
-189
-189
-188
-188
-188
-189
-188
-188
-188
-188
-187
-188
-188
-188
-188
-188
-187
-187
-188
-187
-187
-187
-187
-187
-187
-187
-187
-187
-187
-187
-187
-186
-187
-186
-186
-186
-186
-186
-186
-186
-186
-186
-185
-185
-186
-186
-186
-185
-185
-185
-185
-185
-186
-186
-185
-185
-184
-185
-184
-184
-184
-183
-183
-183
-183
-183
-182
-183
-183
-183
-183
-182
-183
-182
-182
-183
-182
-182
-182
-182
-181
-181
-182
-181
-181
-182
-182
-181
-181
-181
-181
-182
-182
-182
-182
-182
-181
-181
-181
-181
-181
-181
-181
-181
-180
-180
-180
-181
-180
-180
-180
-180
-180
-180
-180
-180
-179
-180
-180
-180
-180
-180
-179
-180
-180
-180
-180
-180
-181
-181
-181
-181
-181
-181
-181
-182
-181
-181
-181
-181
-181
-181
-180
-180
-181
-181
-181
-182
-182
-182
-181
-182
-183
-182
-182
-182
-183
-183
-183
-183
-183
-183
-183
-183
-184
-183
-184
-184
-184
-184
-184
-184
-184
-185
-185
-184
-185
-185
-185
-185
-185
-185
-185
-185
-185
-185
-185
-185
-185
-185
-185
-186
-185
-186
-186
-185
-185
-185
-185
-185
-186
-185
-185
-185
-185
-185
-185
-185
-185
-185
-185
-185
-186
-186
-186
-186
-186
-186
-186
-186
-186
-186
-186
-186
-186
-186
-186
-186
-184
-184
-184
-184
-184
-184
-183
-182
-182
-182
-180
-180
-179
-179
-178
-178
-177
-176
-176
-175
-174
-174
-174
-174
-174
-174
-173
-173
-173
-173
-173
-172
-172
-172
-172
-172
-172
-172
-171
-171
-171
-170
-170
-171
-170
-170
-169
-169
-169
-167
-167
-167
-167
-166
-166
-166
-166
-166
-166
-166
-166
-166
-167
-167
-168
-168
-168
-168
-169
-169
-169
-170
-170
-170
-170
-171
-171
-171
-172
-172
-173
-173
-173
-174
-175
-175
-175
-175
-176
-175
-176
-176
-177
-177
-177
-177
-177
-178
-179
-178
-178
-179
-179
-180
-181
-181
-181
-181
-182
-182
-182
-183
-183
-184
-184
-184
-185
-185
-185
-185
-186
-187
-187
-188
-188
-188
-188
-188
-189
-189
-189
-189
-189
-189
-189
-189
-190
-190
-191
-191
-191
-191
-191
-192
-192
-192
-192
-191
-191
-192
-191
-191
-191
-191
-190
-190
-190
-190
-190
-189
-189
-189
-188
-189
-188
-188
-188
-188
-188
-188
-188
-188
-188
-188
-187
-188
-188
-188
-188
-188
-189
-188
-188
-188
-187
-187
-185
-184
-182
-180
-179
-177
-173
-171
-167
-163
-159
-153
-148
-141
-133
-125
-117
-108
-99
-88
-77
-65
-52
-39
-25
-12
2
17
31
45
60
74
88
101
112
124
132
139
143
147
150
150
149
145
139
130
119
105
88
68
44
19
-7
-35
-63
-92
-122
-152
-181
-211
-240
-267
-293
-318
-340
-360
-379
-393
-406
-416
-422
-428
-430
-430
-428
-425
-420
-413
-405
-397
-387
-378
-367
-356
-346
-335
-324
-314
-304
-294
-285
-276
-267
-258
-251
-243
-237
-230
-224
-218
-214
-208
-204
-199
-196
-193
-189
-187
-184
-182
-181
-178
-177
-175
-173
-172
-171
-170
-170
-170
-169
-168
-167
-166
-166
-166
-165
-164
-164
-163
-163
-162
-162
-161
-160
-160
-159
-159
-159
-159
-158
-157
-157
-157
-157
-156
-156
-156
-155
-155
-154
-154
-153
-153
-152
-152
-152
-152
-151
-151
-151
-150
-150
-150
-149
-148
-148
-148
-148
-148
-147
-147
-146
-146
-145
-145
-145
-145
-144
-144
-144
-143
-143
-142
-142
-141
-141
-141
-140
-140
-140
-139
-138
-139
-138
-138
-137
-136
-137
-136
-135
-135
-134
-133
-133
-132
-131
-130
-129
-129
-128
-127
-126
-125
-125
-124
-123
-122
-122
-121
-120
-118
-117
-116
-115
-114
-113
-112
-111
-110
-109
-108
-107
-105
-104
-103
-102
-101
-100
-99
-98
-96
-94
-93
-92
-90
-89
-88
-86
-85
-83
-82
-80
-79
-77
-76
-74
-73
-71
-70
-67
-66
-64
-62
-61
-59
-57
-55
-53
-52
-51
-49
-47
-45
-43
-42
-39
-38
-36
-35
-34
-32
-31
-29
-28
-26
-24
-23
-22
-21
-19
-19
-17
-16
-15
-14
-12
-11
-10
-10
-10
-8
-7
-7
-6
-5
-5
-5
-4
-3
-3
-3
-3
-3
-3
-3
-3
-3
-4
-4
-5
-5
-6
-6
-7
-8
-8
-9
-10
-12
-13
-15
-16
-17
-18
-20
-22
-23
-25
-28
-29
-31
-32
-35
-37
-39
-41
-44
-46
-49
-51
-54
-56
-58
-60
-63
-65
-68
-71
-74
-76
-79
-81
-83
-87
-89
-91
-94
-95
-98
-101
-103
-106
-108
-109
-112
-114
-116
-118
-121
-122
-123
-125
-128
-129
-131
-132
-134
-135
-136
-138
-140
-141
-142
-143
-144
-145
-147
-148
-149
-150
-151
-152
-152
-154
-154
-155
-156
-157
-157
-158
-158
-159
-160
-160
-160
-162
-162
-163
-164
-164
-164
-164
-164
-165
-165
-165
-165
-165
-165
-166
-166
-166
-166
-166
-167
-167
-166
-167
-167
-167
-167
-167
-167
-167
-167
-166
-167
-167
-167
-167
-168
-167
-167
-167
-167
-167
-167
-168
-168
-168
-168
-168
-168
-168
-168
-168
-168
-168
-168
-168
-168
-168
-168
-168
-168
-168
-169
-169
-169
-169
-169
-169
-169
-169
-169
-169
-169
-168
-168
-168
-169
-169
-168
-168
-168
-168
-168
-168
-168
-168
-167
-167
-167
-167
-167
-167
-166
-166
-166
-166
-166
-166
-166
-166
-166
-165
-166
-165
-165
-165
-165
-164
-164
-163
-163
-163
-163
-163
-163
-162
-162
-162
-161
-161
-161
-160
-161
-161
-160
-160
-160
-159
-159
-159
-159
-159
-158
-159
-159
-158
-159
-159
-158
-158
-158
-158
-159
-158
-159
-159
-158
-158
-158
-158
-158
-158
-157
-158
-158
-157
-157
-157
-158
-158
-158
-158
-157
-158
-158
-158
-158
-157
-157
-157
-157
-157
-157
-156
-156
-156
-157
-157
-156
-157
-157
-157
-157
-156
-157
-157
-157
-157
-156
-156
-156
-157
-157
-157
-157
-157
-157
-157
-157
-157
-157
-157
-158
-158
-159
-159
-158
-158
-158
-159
-159
-159
-159
-158
-158
-159
-159
-159
-160
-160
-160
-160
-160
-160
-161
-161
-161
-161
-161
-161
-162
-162
-162
-162
-162
-162
-162
-162
-163
-163
-163
-163
-163
-164
-164
-164
-164
-164
-164
-165
-165
-165
-164
-164
-164
-164
-165
-165
-164
-165
-165
-165
-166
-165
-166
-166
-165
-166
-166
-166
-166
-166
-166
-166
-166
-166
-167
-167
-167
-167
-167
-167
-167
-168
-168
-167
-168
-168
-168
-168
-168
-169
-168
-168
-168
-168
-169
-168
-168
-168
-168
-168
-168
-169
-168
-168
-168
-168
-168
-168
-168
-168
-168
-168
-168
-168
-168
-168
-168
-168
-168
-168
-168
-168
-168
-168
-168
-168
-168
-168
-167
-167
-167
-167
-166
-166
-167
-166
-166
-165
-164
-164
-163
-164
-163
-163
-162
-161
-161
-161
-160
-160
-159
-159
-158
-157
-157
-157
-156
-156
-157
-156
-155
-156
-156
-156
-156
-156
-156
-155
-155
-156
-156
-156
-155
-155
-156
-155
-155
-154
-155
-154
-154
-154
-153
-153
-152
-151
-151
-151
-151
-150
-150
-150
-150
-151
-151
-151
-151
-151
-151
-152
-152
-153
-153
-153
-154
-155
-154
-155
-156
-156
-157
-156
-157
-158
-158
-158
-158
-159
-160
-160
-160
-160
-161
-161
-162
-161
-162
-162
-163
-162
-162
-163
-163
-164
-165
-165
-164
-165
-165
-166
-166
-167
-168
-168
-168
-169
-170
-170
-170
-170
-171
-172
-172
-173
-173
-174
-174
-174
-174
-175
-176
-176
-176
-177
-176
-177
-177
-177
-178
-178
-178
-177
-177
-178
-178
-178
-177
-177
-177
-177
-177
-178
-178
-177
-178
-178
-177
-177
-177
-177
-177
-176
-177
-177
-177
-176
-177
-177
-177
-177
-176
-176
-176
-176
-176
-175
-175
-175
-175
-175
-175
-175
-175
-175
-175
-175
-175
-174
-174
-174
-174
-173
-172
-171
-170
-169
-167
-165
-163
-161
-158
-154
-151
-147
-142
-137
-132
-125
-119
-112
-105
-97
-88
-79
-69
-58
-48
-36
-25
-14
-2
11
23
34
48
59
72
83
95
105
114
120
127
131
134
135
134
133
129
125
116
106
95
80
62
42
19
-4
-29
-55
-82
-108
-136
-163
-190
-217
-243
-267
-291
-312
-332
-350
-365
-378
-389
-396
-403
-407
-408
-408
-405
-401
-395
-388
-380
-372
-362
-353
-342
-332
-321
-310
-300
-289
-280
-270
-261
-252
-244
-236
-228
-221
-215
-208
-203
-197
-192
-188
-184
-180
-177
-173
-171
-169
-166
-165
-163
-161
-160
-159
-157
-157
-157
-156
-155
-154
-154
-153
-152
-152
-151
-152
-151
-151
-150
-150
-149
-149
-148
-148
-148
-148
-147
-147
-146
-146
-145
-145
-144
-145
-144
-144
-143
-143
-142
-142
-141
-140
-140
-139
-139
-139
-139
-139
-138
-137
-137
-136
-137
-136
-136
-135
-135
-134
-134
-134
-133
-133
-133
-133
-132
-132
-131
-131
-131
-131
-130
-130
-129
-129
-129
-129
-128
-127
-127
-127
-126
-126
-125
-125
-125
-124
-125
-124
-124
-123
-123
-122
-122
-121
-121
-121
-120
-120
-120
-120
-119
-118
-118
-118
-117
-117
-116
-115
-115
-114
-113
-113
-112
-111
-111
-110
-109
-108
-108
-107
-106
-104
-104
-103
-102
-100
-100
-99
-97
-96
-94
-93
-92
-90
-89
-88
-86
-85
-84
-83
-80
-80
-79
-78
-76
-75
-73
-72
-71
-69
-68
-66
-65
-64
-62
-60
-59
-57
-56
-55
-54
-52
-50
-49
-48
-46
-45
-44
-42
-40
-39
-37
-36
-35
-34
-32
-31
-30
-29
-28
-26
-25
-25
-24
-23
-23
-22
-21
-20
-19
-19
-18
-18
-17
-17
-16
-16
-15
-16
-16
-15
-15
-15
-14
-15
-14
-15
-16
-16
-16
-17
-16
-17
-17
-18
-19
-19
-21
-21
-22
-23
-24
-25
-26
-28
-29
-31
-33
-34
-35
-37
-39
-41
-43
-45
-46
-48
-51
-53
-55
-58
-60
-62
-64
-67
-70
-72
-75
-77
-80
-82
-84
-85
-88
-90
-93
-95
-98
-100
-102
-104
-106
-108
-110
-112
-114
-116
-118
-120
-122
-123
-125
-126
-129
-130
-132
-133
-134
-136
-137
-139
-140
-142
-143
-144
-145
-146
-148
-149
-150
-150
-151
-152
-153
-154
-155
-156
-156
-157
-158
-159
-159
-160
-160
-161
-162
-162
-164
-164
-164
-165
-165
-165
-165
-165
-166
-166
-167
-167
-167
-167
-167
-167
-167
-168
-168
-168
-169
-168
-168
-169
-169
-170
-170
-169
-169
-169
-169
-170
-170
-170
-170
-170
-171
-171
-171
-172
-171
-172
-172
-172
-171
-172
-172
-172
-172
-172
-172
-172
-172
-172
-172
-172
-172
-172
-171
-172
-172
-172
-172
-171
-171
-172
-172
-172
-172
-172
-171
-172
-172
-172
-172
-172
-172
-172
-172
-172
-172
-172
-172
-172
-172
-172
-171
-171
-171
-171
-171
-171
-171
-170
-170
-169
-169
-169
-170
-170
-169
-169
-170
-169
-169
-169
-169
-169
-168
-168
-168
-167
-167
-167
-167
-167
-167
-167
-167
-166
-166
-166
-166
-166
-166
-166
-166
-166
-166
-166
-166
-165
-165
-165
-166
-165
-165
-165
-165
-165
-165
-165
-164
-164
-164
-164
-163
-163
-164
-164
-164
-163
-163
-164
-164
-164
-164
-164
-164
-164
-164
-163
-163
-163
-163
-163
-163
-163
-163
-163
-163
-164
-163
-163
-163
-163
-163
-164
-163
-164
-163
-164
-164
-164
-164
-164
-164
-164
-164
-164
-165
-165
-164
-165
-165
-165
-165
-166
-165
-166
-166
-166
-165
-166
-166
-166
-166
-166
-166
-167
-167
-166
-166
-167
-167
-167
-167
-167
-167
-167
-167
-168
-168
-167
-167
-167
-168
-168
-168
-168
-168
-168
-168
-168
-168
-168
-168
-169
-169
-170
-169
-169
-169
-169
-169
-169
-170
-170
-170
-170
-171
-171
-171
-171
-171
-171
-171
-171
-172
-172
-172
-172
-172
-173
-172
-172
-173
-173
-173
-173
-173
-173
-173
-173
-173
-173
-173
-174
-174
-174
-174
-174
-174
-174
-174
-174
-174
-174
-174
-173
-173
-173
-173
-174
-173
-173
-173
-173
-173
-173
-173
-173
-173
-173
-172
-172
-172
-172
-172
-171
-171
-172
-172
-172
-171
-172
-172
-172
-173
-172
-173
-173
-173
-173
-173
-174
-174
-174
-174
-174
-174
-174
-174
-174
-174
-174
-174
-175
-174
-175
-175
-175
-174
-175
-175
-174
-174
-174
-175
-175
-175
-175
-175
-174
-175
-175
-175
-175
-175
-175
-175
-175
-175
-175
-175
-175
-175
-175
-175
-175
-175
-175
-175
-175
-175
-175
-175
-175
-175
-174
-174
-175
-175
-174
-174
-174
-174
-174
-175
-174
-174
-175
-175
-175
-174
-175
-175
-175
-176
-175
-176
-176
-176
-175
-175
-176
-176
-176
-176
-176
-176
-176
-176
-176
-176
-176
-176
-175
-175
-175
-175
-173
-173
-172
-172
-171
-170
-170
-169
-168
-167
-167
-166
-166
-165
-164
-164
-163
-163
-163
-162
-162
-161
-161
-161
-161
-161
-160
-160
-160
-159
-159
-159
-159
-158
-158
-158
-158
-157
-157
-156
-156
-156
-155
-155
-154
-153
-153
-152
-152
-151
-151
-150
-150
-150
-150
-150
-150
-151
-150
-151
-151
-151
-151
-152
-152
-152
-153
-153
-154
-154
-154
-155
-155
-155
-155
-155
-156
-156
-157
-157
-157
-157
-158
-157
-158
-158
-159
-159
-160
-160
-160
-162
-161
-162
-162
-163
-163
-164
-164
-165
-165
-165
-166
-166
-167
-167
-167
-168
-168
-168
-169
-169
-170
-171
-171
-171
-172
-173
-172
-173
-173
-174
-174
-174
-174
-174
-175
-175
-175
-176
-176
-176
-176
-175
-175
-176
-176
-176
-177
-177
-177
-176
-176
-176
-176
-177
-177
-177
-177
-177
-176
-176
-176
-176
-176
-176
-176
-176
-176
-176
-176
-175
-175
-174
-175
-175
-174
-174
-174
-174
-174
-174
-173
-173
-173
-173
-173
-173
-173
-173
-173
-172
-172
-171
-171
-170
-168
-167
-165
-163
-161
-159
-156
-153
-149
-145
-141
-136
-130
-124
-118
-111
-104
-95
-87
-78
-69
-59
-49
-39
-28
-18
-6
5
17
28
40
52
63
73
85
94
104
112
118
123
126
128
127
127
125
120
114
106
95
82
66
48
27
5
-18
-42
-67
-93
-118
-146
-171
-197
-223
-247
-271
-292
-313
-331
-348
-362
-374
-384
-391
-397
-399
-401
-400
-397
-393
-388
-381
-374
-366
-357
-348
-338
-328
-318
-308
-298
-289
-279
-270
-261
-253
-244
-236
-228
-221
-214
-208
-202
-197
-193
-188
-183
-180
-176
-173
-171
-168
-166
-164
-163
-162
-160
-159
-158
-157
-156
-155
-155
-154
-154
-153
-153
-152
-153
-152
-152
-151
-150
-150
-150
-149
-148
-148
-148
-147
-146
-146
-145
-145
-145
-144
-144
-143
-143
-142
-142
-142
-142
-141
-141
-141
-140
-140
-139
-139
-139
-139
-138
-138
-138
-138
-137
-137
-137
-136
-136
-136
-136
-135
-136
-135
-134
-135
-134
-134
-133
-133
-132
-131
-131
-131
-131
-130
-130
-130
-129
-129
-129
-128
-128
-127
-127
-126
-125
-125
-124
-124
-123
-123
-122
-122
-122
-121
-120
-120
-119
-119
-118
-117
-117
-116
-115
-114
-113
-112
-111
-111
-110
-109
-108
-107
-107
-106
-104
-103
-103
-102
-101
-100
-99
-98
-97
-96
-94
-93
-93
-91
-90
-89
-88
-87
-86
-84
-83
-82
-81
-80
-78
-78
-76
-75
-73
-72
-72
-69
-68
-67
-66
-65
-64
-62
-61
-59
-58
-57
-55
-54
-53
-52
-50
-48
-46
-46
-43
-42
-41
-39
-38
-36
-35
-34
-32
-31
-29
-28
-26
-26
-25
-24
-22
-22
-20
-19
-19
-18
-16
-15
-15
-14
-14
-13
-12
-11
-11
-10
-10
-10
-9
-9
-9
-8
-8
-8
-8
-8
-8
-8
-8
-8
-9
-10
-9
-10
-10
-11
-12
-12
-14
-14
-15
-16
-17
-18
-19
-20
-22
-23
-24
-25
-28
-29
-30
-32
-33
-35
-38
-39
-41
-44
-46
-48
-49
-51
-53
-55
-57
-60
-62
-63
-65
-67
-70
-72
-74
-75
-78
-80
-82
-85
-86
-88
-90
-92
-94
-95
-98
-99
-101
-103
-104
-107
-108
-109
-111
-112
-115
-116
-118
-119
-121
-123
-124
-125
-126
-127
-129
-130
-131
-133
-134
-135
-136
-137
-138
-139
-141
-141
-142
-143
-143
-145
-145
-145
-145
-146
-147
-147
-147
-148
-148
-148
-148
-148
-149
-149
-149
-149
-150
-151
-151
-151
-151
-150
-151
-151
-151
-152
-152
-152
-152
-153
-152
-152
-153
-153
-154
-154
-154
-153
-154
-154
-154
-154
-155
-155
-155
-155
-155
-155
-155
-155
-155
-155
-155
-154
-154
-154
-155
-154
-155
-154
-155
-155
-154
-154
-154
-154
-154
-154
-154
-154
-154
-154
-154
-154
-154
-154
-154
-155
-154
-154
-154
-153
-153
-153
-153
-153
-153
-153
-153
-153
-153
-153
-152
-152
-151
-151
-152
-152
-152
-152
-152
-151
-151
-151
-151
-151
-151
-151
-151
-151
-152
-152
-152
-152
-152
-152
-151
-152
-152
-152
-152
-152
-152
-152
-152
-152
-152
-152
-152
-152
-152
-152
-152
-151
-151
-152
-152
-152
-152
-152
-152
-152
-152
-152
-151
-151
-151
-152
-152
-152
-152
-152
-151
-151
-151
-151
-152
-153
-153
-153
-152
-152
-152
-152
-152
-153
-153
-153
-153
-154
-154
-154
-154
-154
-154
-154
-154
-155
-154
-154
-155
-154
-154
-154
-154
-154
-154
-154
-154
-155
-155
-155
-155
-156
-156
-156
-156
-156
-157
-157
-157
-156
-156
-157
-157
-157
-157
-157
-157
-157
-158
-157
-158
-158
-158
-158
-157
-158
-159
-159
-158
-158
-159
-159
-159
-160
-160
-160
-160
-160
-160
-160
-160
-161
-161
-161
-162
-162
-163
-163
-163
-163
-163
-164
-164
-164
-164
-164
-164
-165
-165
-165
-166
-166
-166
-166
-166
-166
-167
-167
-166
-166
-167
-167
-167
-167
-167
-167
-167
-167
-168
-167
-167
-167
-167
-167
-167
-168
-168
-168
-167
-166
-166
-166
-165
-165
-165
-165
-165
-164
-164
-163
-164
-163
-163
-163
-162
-163
-162
-162
-162
-161
-161
-160
-160
-160
-161
-160
-160
-160
-160
-160
-159
-159
-160
-160
-159
-160
-160
-160
-160
-159
-160
-160
-160
-160
-160
-160
-160
-160
-160
-160
-160
-160
-161
-161
-161
-161
-162
-161
-161
-162
-162
-162
-161
-161
-161
-161
-161
-161
-161
-161
-161
-161
-161
-161
-161
-161
-161
-161
-161
-161
-161
-161
-161
-161
-162
-161
-162
-162
-162
-162
-162
-162
-163
-163
-162
-163
-164
-164
-164
-163
-163
-163
-163
-163
-163
-164
-164
-164
-163
-163
-164
-164
-164
-164
-164
-164
-165
-165
-164
-164
-165
-165
-165
-165
-165
-165
-165
-165
-165
-165
-165
-165
-165
-165
-164
-165
-164
-165
-164
-164
-163
-163
-163
-161
-161
-161
-160
-160
-160
-159
-158
-158
-158
-157
-157
-157
-157
-157
-155
-155
-155
-155
-154
-154
-154
-154
-154
-153
-153
-152
-152
-152
-152
-152
-151
-152
-151
-151
-151
-150
-149
-149
-149
-148
-148
-147
-147
-146
-146
-146
-146
-145
-145
-145
-144
-145
-146
-146
-145
-145
-145
-146
-146
-146
-147
-147
-148
-149
-149
-150
-150
-151
-152
-152
-153
-153
-154
-153
-154
-154
-154
-155
-155
-156
-156
-156
-156
-157
-157
-158
-158
-158
-158
-159
-159
-160
-160
-161
-161
-162
-162
-162
-163
-164
-164
-165
-165
-166
-166
-167
-168
-168
-168
-169
-169
-170
-170
-172
-171
-171
-171
-172
-172
-172
-172
-173
-173
-173
-173
-173
-173
-173
-173
-173
-174
-174
-175
-175
-174
-174
-174
-174
-173
-173
-174
-174
-174
-174
-174
-174
-174
-174
-174
-174
-174
-175
-174
-174
-174
-173
-173
-173
-174
-173
-173
-174
-173
-173
-173
-173
-173
-173
-173
-173
-172
-172
-172
-171
-171
-170
-170
-170
-170
-168
-167
-166
-165
-163
-162
-160
-157
-154
-151
-148
-144
-140
-137
-132
-126
-119
-113
-106
-99
-91
-83
-74
-65
-56
-46
-35
-25
-14
-2
9
20
32
44
55
67
78
89
99
109
117
123
127
130
131
131
130
127
122
115
106
95
80
63
44
23
1
-24
-48
-74
-100
-126
-152
-178
-205
-230
-254
-276
-298
-318
-335
-351
-365
-376
-385
-392
-396
-398
-398
-398
-394
-391
-385
-379
-372
-363
-355
-345
-335
-326
-316
-306
-297
-287
-278
-269
-260
-252
-244
-235
-229
-222
-215
-210
-204
-198
-194
-189
-185
-182
-178
-176
-173
-170
-168
-166
-164
-163
-162
-160
-159
-158
-157
-157
-156
-156
-155
-154
-154
-153
-154
-153
-153
-152
-152
-151
-150
-150
-149
-149
-148
-149
-148
-148
-147
-146
-146
-146
-146
-145
-145
-145
-144
-144
-144
-143
-144
-143
-143
-142
-142
-142
-141
-141
-141
-140
-140
-139
-140
-138
-138
-138
-138
-138
-138
-137
-137
-136
-136
-135
-135
-134
-134
-133
-133
-133
-133
-132
-131
-131
-130
-130
-130
-129
-128
-128
-127
-126
-126
-125
-124
-124
-123
-122
-122
-122
-121
-120
-119
-118
-118
-118
-118
-116
-116
-116
-114
-114
-113
-112
-111
-111
-110
-109
-109
-107
-107
-107
-105
-104
-104
-103
-102
-101
-100
-99
-98
-97
-96
-95
-93
-92
-91
-90
-89
-87
-86
-84
-83
-82
-80
-79
-79
-78
-76
-75
-73
-72
-70
-69
-68
-67
-65
-64
-63
-62
-61
-59
-58
-56
-54
-54
-52
-51
-50
-49
-47
-46
-44
-42
-41
-40
-39
-37
-36
-35
-32
-31
-30
-28
-27
-26
-25
-23
-22
-21
-20
-19
-18
-17
-15
-14
-13
-13
-11
-11
-11
-10
-9
-8
-7
-8
-7
-8
-7
-6
-6
-6
-6
-6
-6
-6
-6
-7
-6
-7
-7
-7
-8
-9
-10
-10
-11
-12
-13
-14
-15
-15
-16
-18
-19
-20
-21
-23
-25
-27
-28
-29
-32
-32
-34
-36
-39
-41
-43
-45
-46
-48
-51
-53
-55
-56
-59
-61
-63
-65
-68
-70
-71
-73
-76
-78
-80
-83
-84
-86
-88
-90
-92
-94
-95
-98
-99
-102
-103
-105
-107
-109
-111
-112
-114
-115
-117
-119
-121
-122
-124
-125
-126
-128
-129
-131
-132
-132
-134
-135
-137
-137
-138
-138
-140
-141
-142
-143
-144
-144
-145
-145
-146
-147
-148
-148
-148
-149
-150
-151
-151
-151
-151
-152
-152
-153
-154
-155
-155
-155
-155
-155
-155
-156
-156
-157
-157
-157
-157
-158
-158
-157
-158
-159
-159
-158
-159
-159
-159
-159
-160
-160
-160
-160
-160
-160
-160
-160
-160
-160
-160
-160
-160
-160
-160
-160
-161
-161
-161
-161
-162
-162
-162
-162
-162
-162
-162
-162
-162
-161
-161
-161
-161
-161
-161
-161
-162
-163
-162
-162
-162
-162
-161
-161
-161
-161
-160
-161
-161
-160
-161
-161
-160
-160
-160
-160
-160
-160
-160
-160
-159
-160
-160
-159
-159
-159
-159
-159
-159
-159
-159
-159
-159
-159
-159
-159
-159
-159
-159
-159
-159
-159
-158
-158
-158
-158
-157
-157
-157
-157
-157
-157
-158
-158
-157
-157
-157
-157
-157
-157
-157
-157
-157
-157
-157
-157
-158
-158
-158
-157
-157
-158
-158
-158
-159
-158
-159
-159
-160
-159
-159
-159
-159
-159
-159
-159
-159
-159
-159
-160
-160
-159
-159
-159
-159
-159
-160
-160
-160
-160
-160
-159
-160
-160
-160
-160
-160
-159
-160
-160
-160
-160
-161
-161
-161
-161
-161
-161
-161
-161
-161
-161
-161
-161
-161
-162
-162
-162
-162
-163
-163
-163
-163
-163
-163
-164
-163
-164
-164
-164
-164
-164
-165
-165
-165
-165
-166
-166
-166
-167
-167
-167
-166
-168
-168
-168
-168
-168
-169
-169
-168
-169
-169
-169
-169
-169
-169
-169
-170
-170
-170
-170
-170
-170
-171
-171
-172
-171
-172
-172
-172
-172
-172
-172
-172
-172
-172
-173
-173
-173
-174
-174
-174
-174
-174
-174
-174
-175
-175
-175
-175
-175
-175
-175
-175
-176
-176
-176
-176
-177
-177
-177
-177
-177
-177
-178
-177
-178
-178
-178
-178
-178
-178
-179
-179
-179
-179
-179
-179
-179
-179
-179
-179
-180
-180
-180
-179
-180
-180
-180
-180
-179
-179
-179
-179
-179
-179
-179
-179
-179
-179
-179
-179
-179
-179
-179
-179
-180
-180
-180
-180
-179
-179
-179
-180
-180
-180
-180
-181
-180
-180
-180
-180
-180
-180
-181
-180
-180
-180
-180
-180
-179
-178
-178
-178
-177
-177
-176
-175
-176
-175
-174
-174
-173
-173
-172
-173
-172
-172
-172
-171
-171
-171
-171
-170
-170
-170
-170
-170
-170
-169
-169
-169
-169
-169
-168
-168
-168
-168
-168
-167
-167
-166
-165
-165
-164
-164
-164
-164
-164
-163
-163
-163
-164
-164
-164
-165
-165
-166
-166
-167
-167
-168
-168
-168
-169
-170
-170
-171
-171
-171
-172
-172
-172
-173
-173
-173
-174
-174
-174
-174
-174
-175
-175
-175
-175
-175
-176
-175
-177
-176
-176
-177
-177
-178
-178
-179
-179
-180
-180
-181
-181
-181
-183
-183
-183
-184
-184
-185
-186
-187
-187
-187
-188
-188
-188
-189
-190
-190
-190
-191
-191
-191
-190
-191
-191
-191
-191
-191
-191
-191
-191
-191
-192
-192
-192
-191
-192
-192
-192
-192
-191
-192
-192
-192
-192
-192
-192
-192
-193
-193
-192
-192
-192
-192
-192
-193
-192
-193
-192
-192
-192
-192
-191
-191
-191
-191
-192
-192
-192
-192
-191
-191
-190
-191
-190
-190
-191
-190
-189
-188
-187
-186
-185
-184
-183
-179
-178
-176
-172
-169
-165
-161
-156
-151
-145
-139
-132
-125
-117
-108
-98
-89
-78
-67
-56
-43
-31
-17
-5
9
23
36
50
63
77
90
102
112
121
130
135
139
143
142
142
139
134
126
117
104
89
71
49
25
-1
-28
-55
-83
-112
-141
-170
-198
-226
-253
-280
-305
-327
-348
-367
-383
-397
-407
-416
-422
-425
-426
-427
-424
-420
-414
-408
-400
-392
-383
-373
-363
-353
-343
-333
-323
-313
-304
-295
-285
-276
-268
-260
-253
-245
-239
-232
-226
-220
-215
-211
-206
-202
-198
-195
-192
-189
-187
-185
-183
-182
-180
-179
-177
-176
-176
-175
-174
-174
-173
-173
-172
-171
-171
-171
-170
-170
-169
-169
-168
-168
-167
-167
-167
-167
-166
-166
-165
-164
-164
-164
-163
-163
-163
-163
-162
-162
-162
-161
-161
-161
-160
-160
-160
-159
-159
-158
-157
-158
-158
-157
-157
-157
-156
-156
-156
-156
-155
-155
-155
-155
-154
-155
-155
-155
-154
-153
-153
-153
-152
-152
-152
-152
-152
-151
-151
-150
-150
-149
-149
-149
-149
-148
-148
-147
-147
-146
-146
-145
-144
-144
-144
-143
-142
-142
-141
-140
-139
-138
-138
-138
-137
-136
-136
-135
-134
-133
-132
-131
-130
-129
-128
-127
-127
-125
-125
-124
-122
-121
-121
-120
-118
-118
-117
-116
-114
-113
-112
-111
-110
-109
-107
-106
-105
-104
-103
-101
-100
-98
-96
-95
-94
-93
-91
-89
-87
-86
-84
-82
-81
-79
-78
-76
-74
-73
-71
-70
-67
-66
-65
-63
-61
-61
-59
-57
-55
-54
-52
-50
-48
-47
-46
-45
-43
-42
-40
-39
-37
-36
-35
-35
-33
-32
-31
-30
-29
-27
-27
-26
-26
-24
-24
-23
-23
-22
-22
-22
-21
-20
-20
-20
-20
-21
-20
-20
-20
-20
-21
-21
-22
-22
-22
-22
-23
-25
-26
-27
-28
-29
-29
-31
-33
-34
-36
-36
-37
-39
-41
-43
-44
-45
-48
-49
-52
-53
-55
-58
-60
-62
-64
-67
-70
-71
-75
-77
-79
-82
-84
-86
-89
-91
-94
-97
-100
-103
-105
-107
-110
-112
-116
-118
-120
-123
-126
-127
-130
-132
-134
-136
-138
-140
-141
-143
-145
-146
-149
-150
-152
-154
-155
-156
-157
-159
-160
-162
-163
-163
-165
-166
-167
-168
-169
-170
-171
-172
-172
-174
-174
-174
-175
-177
-176
-177
-178
-178
-179
-179
-180
-180
-180
-180
-181
-182
-182
-182
-183
-183
-183
-183
-183
-183
-184
-184
-184
-184
-185
-185
-185
-185
-185
-185
-185
-184
-186
-185
-186
-186
-186
-186
-186
-186
-187
-186
-187
-187
-187
-187
-187
-187
-188
-188
-188
-188
-188
-188
-188
-188
-188
-188
-188
-189
-188
-189
-188
-188
-188
-188
-188
-188
-188
-188
-188
-187
-187
-187
-188
-187
-188
-187
-187
-187
-188
-187
-187
-187
-188
-187
-187
-187
-187
-187
-188
-187
-187
-187
-187
-187
-187
-187
-187
-187
-186
-187
-187
-187
-187
-186
-186
-186
-186
-186
-186
-185
-185
-184
-184
-184
-183
-184
-184
-184
-183
-184
-184
-184
-183
-184
-184
-184
-183
-184
-183
-183
-183
-183
-183
-183
-183
-183
-183
-183
-183
-183
-183
-183
-183
-182
-183
-183
-183
-183
-183
-182
-182
-182
-182
-182
-182
-182
-182
-182
-182
-182
-182
-182
-181
-181
-181
-180
-181
-181
-181
-180
-180
-181
-181
-181
-181
-181
-181
-180
-181
-182
-181
-182
-182
-182
-182
-182
-182
-183
-183
-183
-183
-184
-185
-185
-185
-185
-185
-186
-186
-186
-187
-187
-187
-186
-186
-187
-187
-187
-187
-188
-188
-188
-188
-188
-188
-188
-188
-188
-188
-189
-189
-189
-188
-189
-189
-189
-189
-189
-189
-189
-189
-190
-189
-190
-190
-191
-191
-190
-191
-191
-191
-191
-191
-191
-191
-191
-191
-192
-192
-192
-193
-193
-192
-193
-193
-193
-193
-193
-193
-194
-194
-194
-194
-193
-193
-194
-194
-194
-194
-194
-194
-194
-194
-194
-194
-194
-194
-194
-195
-196
-195
-195
-196
-195
-195
-195
-195
-196
-196
-195
-196
-196
-196
-196
-196
-197
-196
-196
-197
-197
-198
-198
-197
-197
-197
-197
-197
-197
-197
-196
-196
-197
-197
-197
-196
-196
-196
-196
-197
-197
-197
-198
-197
-197
-198
-198
-198
-198
-198
-198
-198
-199
-198
-199
-199
-199
-199
-199
-199
-200
-200
-200
-199
-198
-198
-198
-199
-198
-197
-197
-197
-197
-197
-196
-195
-195
-194
-193
-194
-193
-193
-192
-191
-190
-190
-189
-189
-188
-188
-187
-186
-185
-186
-186
-186
-185
-185
-184
-185
-184
-185
-185
-185
-185
-185
-185
-184
-184
-184
-183
-183
-183
-183
-182
-182
-182
-180
-180
-181
-180
-179
-179
-180
-179
-178
-178
-179
-179
-179
-179
-179
-180
-181
-181
-181
-181
-183
-183
-184
-184
-185
-185
-185
-186
-185
-185
-186
-186
-186
-186
-187
-186
-187
-187
-187
-187
-188
-188
-188
-189
-190
-190
-190
-190
-191
-191
-191
-192
-192
-193
-193
-193
-194
-194
-195
-195
-195
-196
-196
-197
-197
-198
-198
-198
-199
-200
-200
-200
-200
-201
-202
-202
-203
-203
-203
-203
-203
-204
-204
-205
-206
-206
-207
-207
-207
-207
-208
-208
-208
-208
-208
-208
-208
-208
-209
-208
-208
-208
-208
-208
-209
-207
-208
-207
-207
-207
-207
-207
-206
-206
-206
-206
-206
-206
-206
-205
-205
-205
-206
-206
-206
-206
-206
-205
-205
-205
-205
-204
-205
-205
-205
-205
-205
-205
-204
-203
-203
-203
-202
-201
-200
-198
-197
-194
-191
-189
-186
-182
-179
-175
-170
-166
-159
-153
-145
-139
-130
-122
-113
-102
-92
-81
-70
-57
-45
-32
-18
-5
7
20
34
47
59
72
84
94
102
108
113
116
118
118
116
113
108
101
91
79
63
44
23
-1
-26
-52
-79
-107
-135
-164
-192
-221
-249
-276
-301
-326
-348
-368
-386
-403
-416
-427
-435
-441
-444
-445
-444
-441
-436
-431
-424
-415
-407
-397
-387
-377
-366
-355
-344
-334
-324
-315
-305
-295
-288
-279
-271
-263
-255
-250
-243
-238
-233
-227
-223
-218
-214
-210
-207
-205
-203
-199
-198
-196
-194
-193
-191
-190
-189
-189
-188
-187
-187
-187
-186
-186
-185
-184
-183
-183
-182
-182
-182
-181
-181
-180
-179
-178
-178
-177
-177
-177
-177
-175
-176
-175
-174
-173
-172
-172
-172
-171
-171
-171
-171
-171
-170
-170
-169
-169
-169
-169
-169
-169
-168
-167
-167
-166
-167
-167
-166
-166
-165
-165
-165
-164
-164
-163
-163
-163
-162
-162
-161
-161
-161
-160
-160
-159
-158
-158
-157
-157
-156
-156
-155
-154
-154
-154
-153
-152
-152
-152
-152
-150
-149
-149
-147
-147
-147
-146
-146
-145
-144
-143
-142
-142
-140
-141
-139
-138
-138
-138
-137
-136
-135
-134
-133
-133
-132
-131
-130
-129
-128
-127
-125
-124
-123
-122
-121
-120
-119
-117
-117
-116
-114
-113
-111
-110
-109
-107
-105
-104
-102
-101
-100
-98
-96
-95
-94
-92
-90
-89
-88
-86
-84
-83
-80
-79
-77
-76
-74
-72
-70
-69
-67
-65
-64
-62
-61
-59
-57
-56
-54
-53
-51
-50
-48
-47
-45
-43
-42
-41
-40
-38
-37
-36
-35
-34
-33
-31
-31
-30
-30
-28
-27
-27
-26
-25
-24
-24
-24
-23
-22
-23
-22
-22
-22
-22
-22
-23
-22
-24
-24
-24
-25
-25
-25
-26
-26
-27
-28
-29
-30
-31
-33
-33
-36
-37
-39
-40
-42
-44
-47
-49
-50
-52
-54
-56
-58
-62
-63
-66
-69
-71
-74
-77
-80
-82
-84
-87
-90
-93
-95
-99
-101
-103
-106
-108
-111
-113
-116
-117
-119
-122
-125
-127
-129
-131
-133
-135
-137
-140
-142
-143
-145
-147
-148
-151
-152
-153
-155
-156
-158
-160
-161
-163
-164
-166
-167
-168
-169
-171
-173
-173
-174
-174
-176
-176
-177
-178
-179
-179
-181
-182
-182
-183
-183
-183
-183
-185
-185
-185
-186
-186
-186
-187
-187
-187
-189
-189
-189
-189
-189
-190
-190
-190
-191
-191
-191
-192
-192
-193
-192
-192
-193
-193
-192
-193
-193
-193
-193
-193
-192
-193
-193
-193
-193
-192
-192
-193
-193
-193
-193
-193
-193
-194
-194
-194
-194
-194
-194
-194
-194
-194
-195
-195
-195
-195
-195
-195
-196
-195
-196
-196
-196
-195
-195
-195
-195
-195
-195
-195
-195
-195
-195
-195
-195
-194
-194
-194
-194
-195
-194
-194
-194
-194
-194
-194
-193
-193
-193
-193
-193
-193
-193
-192
-193
-192
-192
-192
-193
-192
-193
-193
-192
-192
-192
-192
-191
-191
-191
-191
-191
-191
-191
-191
-190
-191
-191
-190
-190
-189
-190
-190
-189
-189
-188
-189
-189
-189
-189
-188
-188
-188
-187
-187
-188
-188
-187
-187
-187
-187
-187
-187
-187
-187
-187
-186
-186
-186
-186
-186
-186
-186
-187
-187
-187
-187
-187
-187
-187
-187
-188
-188
-187
-187
-187
-187
-186
-187
-187
-187
-188
-188
-188
-188
-187
-187
-187
-188
-188
-187
-188
-188
-188
-188
-188
-188
-188
-188
-188
-188
-188
-189
-189
-189
-189
-189
-189
-189
-190
-190
-190
-190
-190
-191
-191
-191
-191
-191
-191
-191
-191
-192
-192
-192
-192
-192
-192
-193
-193
-194
-194
-194
-194
-194
-194
-194
-194
-195
-196
-195
-195
-196
-196
-196
-196
-196
-196
-196
-196
-197
-197
-198
-197
-197
-198
-198
-198
-198
-198
-198
-198
-198
-198
-199
-198
-198
-198
-198
-199
-199
-200
-199
-200
-200
-200
-200
-200
-200
-200
-200
-200
-200
-201
-201
-200
-200
-200
-201
-201
-202
-201
-201
-201
-202
-202
-201
-201
-201
-201
-201
-201
-201
-201
-201
-200
-200
-201
-201
-201
-201
-201
-201
-201
-201
-200
-200
-201
-201
-201
-201
-201
-201
-200
-200
-201
-201
-201
-201
-201
-200
-200
-200
-200
-200
-200
-200
-200
-200
-199
-199
-199
-199
-199
-199
-199
-198
-198
-198
-198
-199
-199
-200
-199
-199
-199
-198
-198
-199
-199
-199
-199
-199
-198
-198
-199
-199
-199
-199
-199
-198
-199
-199
-199
-198
-198
-198
-198
-198
-198
-197
-197
-197
-197
-197
-197
-197
-197
-197
-197
-197
-197
-197
-197
-197
-197
-197
-197
-197
-197
-197
-197
-197
-197
-197
-197
-197
-197
-197
-198
-198
-199
-198
-198
-199
-198
-198
-198
-198
-198
-198
-198
-198
-199
-199
-198
-198
-198
-198
-198
-198
-198
-198
-198
-197
-198
-198
-197
-197
-197
-197
-197
-197
-197
-197
-197
-196
-196
-196
-197
-197
-198
-198
-197
-197
-197
-197
-197
-197
-197
-197
-197
-197
-197
-197
-196
-197
-196
-196
-197
-197
-198
-197
-197
-197
-198
-198
-198
-198
-197
-197
-197
-197
-198
-198
-198
-197
-197
-197
-197
-198
-197
-197
-198
-197
-197
-197
-196
-197
-197
-196
-196
-196
-196
-196
-195
-195
-194
-193
-193
-193
-193
-192
-192
-191
-191
-191
-189
-189
-189
-188
-188
-187
-187
-186
-186
-185
-185
-184
-184
-185
-185
-184
-183
-183
-183
-183
-183
-183
-182
-182
-182
-182
-182
-181
-181
-181
-181
-180
-180
-179
-178
-177
-177
-176
-176
-176
-174
-174
-174
-174
-173
-172
-173
-173
-172
-172
-172
-172
-173
-174
-174
-175
-175
-175
-175
-176
-176
-177
-177
-178
-177
-178
-179
-180
-179
-180
-180
-181
-181
-181
-183
-183
-182
-183
-184
-183
-184
-184
-185
-185
-186
-186
-187
-187
-188
-188
-188
-189
-190
-190
-190
-191
-192
-192
-192
-192
-192
-192
-193
-194
-194
-194
-195
-195
-195
-195
-195
-197
-197
-197
-197
-198
-198
-197
-198
-198
-198
-197
-197
-198
-198
-198
-198
-198
-198
-198
-198
-198
-198
-198
-198
-199
-198
-198
-198
-197
-197
-197
-197
-197
-197
-197
-197
-198
-197
-197
-197
-196
-196
-197
-196
-196
-196
-196
-196
-195
-196
-196
-196
-196
-195
-195
-195
-196
-195
-194
-194
-193
-193
-192
-191
-190
-188
-186
-184
-182
-179
-176
-173
-169
-165
-160
-156
-150
-145
-137
-131
-124
-116
-108
-100
-91
-81
-71
-60
-50
-39
-27
-17
-6
6
17
29
39
51
61
71
79
86
91
95
97
98
98
97
93
88
82
72
60
46
29
9
-13
-35
-59
-84
-109
-136
-161
-188
-214
-240
-265
-289
-312
-333
-352
-370
-385
-398
-409
-417
-423
-427
-429
-429
-428
-424
-419
-413
-406
-398
-389
-379
-369
-360
-350
-340
-330
-320
-310
-301
-292
-283
-274
-267
-259
-253
-245
-240
-235
-229
-225
-219
-216
-211
-209
-205
-203
-201
-198
-197
-196
-194
-193
-192
-191
-190
-191
-191
-191
-190
-190
-189
-189
-189
-189
-189
-188
-189
-189
-188
-188
-188
-187
-187
-187
-187
-186
-187
-187
-186
-186
-185
-185
-185
-185
-185
-184
-184
-184
-184
-184
-183
-183
-183
-183
-183
-183
-183
-183
-183
-182
-182
-182
-181
-181
-181
-181
-180
-180
-180
-180
-180
-180
-179
-179
-179
-179
-178
-178
-178
-177
-177
-177
-176
-176
-176
-175
-175
-175
-175
-173
-174
-173
-173
-172
-172
-172
-172
-171
-171
-171
-170
-170
-169
-169
-168
-168
-167
-167
-165
-165
-164
-163
-163
-162
-162
-161
-160
-160
-159
-158
-157
-156
-155
-154
-153
-152
-151
-150
-150
-149
-148
-146
-145
-144
-143
-143
-141
-141
-139
-138
-137
-136
-135
-134
-132
-132
-130
-128
-127
-126
-125
-124
-122
-121
-120
-118
-118
-116
-115
-113
-111
-110
-108
-107
-106
-104
-102
-101
-100
-98
-97
-95
-94
-92
-91
-90
-88
-87
-86
-84
-82
-81
-79
-78
-76
-74
-73
-72
-71
-70
-68
-67
-65
-65
-63
-63
-63
-61
-61
-60
-58
-57
-57
-56
-56
-55
-54
-54
-54
-54
-53
-52
-53
-52
-52
-52
-52
-53
-53
-53
-53
-54
-53
-54
-55
-56
-56
-57
-58
-59
-60
-61
-62
-63
-64
-65
-67
-68
-69
-70
-71
-73
-74
-77
-77
-80
-82
-84
-86
-88
-89
-91
-93
-95
-98
-100
-102
-105
-107
-109
-111
-113
-115
-117
-120
-122
-125
-127
-129
-131
-132
-135
-136
-139
-141
-143
-145
-147
-149
-151
-152
-153
-156
-158
-159
-161
-162
-164
-166
-167
-169
-171
-171
-172
-174
-176
-177
-179
-179
-181
-182
-183
-183
-185
-186
-186
-188
-188
-190
-191
-191
-191
-193
-193
-194
-194
-196
-196
-197
-197
-197
-198
-199
-199
-199
-200
-200
-200
-201
-202
-202
-202
-203
-203
-203
-203
-204
-204
-204
-204
-204
-204
-204
-204
-204
-204
-204
-204
-205
-205
-205
-205
-205
-205
-205
-206
-205
-206
-206
-205
-205
-205
-205
-206
-206
-206
-205
-205
-206
-205
-205
-205
-205
-205
-205
-205
-206
-206
-206
-205
-205
-205
-205
-205
-205
-205
-205
-205
-205
-206
-205
-205
-205
-204
-204
-205
-205
-205
-206
-205
-205
-205
-204
-204
-204
-204
-204
-204
-205
-205
-205
-204
-204
-205
-205
-204
-205
-204
-204
-204
-204
-203
-203
-203
-203
-203
-203
-203
-202
-202
-202
-202
-202
-202
-202
-202
-201
-201
-201
-202
-201
-201
-201
-201
-201
-201
-201
-201
-202
-202
-202
-202
-202
-202
-202
-202
-202
-203
-203
-202
-202
-202
-202
-202
-202
-202
-201
-201
-202
-202
-202
-201
-201
-201
-201
-201
-201
-201
-201
-200
-201
-201
-201
-201
-201
-200
-200
-200
-200
-201
-200
-200
-201
-201
-201
-202
-202
-202
-202
-203
-202
-202
-202
-202
-202
-202
-202
-202
-203
-203
-203
-203
-203
-203
-204
-204
-204
-204
-204
-204
-203
-204
-204
-204
-204
-204
-204
-204
-204
-205
-205
-205
-205
-205
-206
-206
-206
-206
-206
-206
-206
-206
-206
-207
-207
-207
-207
-207
-207
-208
-208
-208
-208
-208
-208
-209
-209
-209
-209
-209
-210
-210
-210
-211
-211
-211
-211
-211
-211
-211
-211
-211
-212
-212
-212
-211
-212
-213
-212
-212
-212
-212
-212
-212
-212
-212
-212
-212
-212
-212
-212
-213
-213
-213
-213
-212
-213
-214
-213
-213
-213
-214
-213
-213
-213
-213
-213
-214
-214
-214
-214
-213
-213
-213
-213
-213
-214
-213
-213
-213
-213
-213
-213
-212
-212
-212
-212
-212
-212
-213
-213
-212
-212
-212
-213
-213
-213
-213
-213
-213
-214
-214
-213
-213
-214
-213
-214
-214
-213
-214
-214
-214
-214
-214
-214
-214
-214
-214
-214
-214
-214
-214
-214
-214
-213
-213
-213
-213
-213
-213
-213
-214
-213
-213
-214
-213
-214
-214
-214
-214
-214
-214
-214
-214
-214
-214
-214
-214
-214
-214
-214
-214
-213
-213
-213
-214
-213
-214
-213
-213
-213
-213
-213
-213
-213
-213
-213
-214
-213
-213
-213
-214
-214
-214
-214
-214
-214
-215
-215
-214
-214
-214
-214
-214
-214
-214
-214
-213
-214
-214
-214
-214
-214
-215
-215
-215
-215
-215
-215
-215
-215
-215
-215
-215
-215
-215
-215
-215
-216
-216
-216
-216
-215
-215
-215
-216
-215
-216
-216
-215
-215
-215
-214
-215
-215
-215
-215
-215
-215
-215
-215
-215
-214
-215
-215
-215
-215
-216
-216
-215
-215
-215
-215
-215
-215
-215
-215
-214
-215
-215
-214
-214
-214
-214
-214
-214
-215
-215
-215
-215
-214
-214
-214
-214
-214
-214
-214
-214
-213
-213
-213
-212
-212
-212
-211
-211
-211
-211
-210
-209
-209
-208
-208
-207
-206
-206
-205
-204
-204
-204
-203
-202
-202
-202
-201
-200
-201
-200
-200
-200
-199
-199
-199
-198
-198
-198
-198
-198
-198
-197
-197
-197
-196
-196
-196
-196
-196
-196
-196
-195
-194
-194
-193
-193
-193
-192
-192
-192
-191
-191
-191
-190
-190
-190
-191
-190
-191
-190
-190
-190
-190
-190
-190
-189
-190
-190
-191
-190
-190
-190
-191
-191
-192
-191
-192
-192
-193
-193
-194
-193
-194
-194
-195
-194
-195
-195
-196
-196
-198
-198
-198
-199
-200
-200
-200
-201
-201
-202
-203
-202
-203
-203
-204
-204
-204
-204
-204
-205
-205
-206
-206
-205
-206
-206
-207
-207
-207
-207
-207
-208
-208
-208
-208
-209
-210
-210
-209
-210
-210
-210
-210
-211
-211
-211
-212
-212
-213
-212
-212
-213
-213
-213
-213
-212
-212
-212
-212
-212
-212
-213
-212
-212
-212
-212
-212
-212
-212
-212
-212
-211
-211
-211
-211
-211
-211
-211
-210
-210
-210
-210
-210
-210
-209
-209
-209
-210
-209
-210
-209
-209
-209
-209
-208
-208
-208
-207
-206
-204
-203
-202
-201
-198
-196
-193
-191
-187
-184
-179
-175
-171
-165
-159
-152
-146
-139
-131
-123
-115
-105
-97
-86
-76
-65
-54
-43
-32
-21
-9
2
14
26
38
48
58
68
76
82
87
91
92
93
92
90
86
80
72
61
47
31
12
-8
-31
-54
-79
-104
-129
-156
-182
-209
-234
-260
-284
-307
-329
-350
-368
-384
-398
-410
-419
-426
-431
-434
-435
-434
-432
-428
-423
-416
-409
-401
-393
-383
-374
-363
-354
-345
-336
-327
-316
-308
-299
-290
-283
-275
-268
-261
-255
-248
-243
-238
-233
-228
-224
-220
-217
-214
-211
-209
-206
-204
-202
-201
-199
-198
-196
-195
-194
-193
-193
-192
-191
-191
-190
-190
-189
-188
-188
-188
-188
-187
-186
-185
-185
-185
-185
-184
-184
-184
-184
-182
-183
-182
-181
-181
-181
-181
-180
-180
-179
-179
-178
-179
-178
-177
-177
-176
-177
-176
-175
-174
-174
-174
-173
-173
-173
-173
-173
-173
-172
-171
-171
-170
-170
-170
-170
-169
-169
-168
-168
-168
-167
-167
-167
-166
-166
-166
-166
-166
-165
-165
-164
-164
-164
-163
-163
-162
-162
-162
-160
-160
-160
-159
-159
-157
-157
-157
-156
-156
-155
-154
-153
-152
-151
-150
-149
-148
-148
-147
-147
-146
-145
-144
-142
-142
-141
-140
-140
-139
-138
-137
-136
-135
-134
-133
-132
-131
-130
-129
-129
-127
-126
-125
-124
-123
-122
-120
-119
-118
-117
-115
-115
-112
-111
-110
-109
-108
-106
-105
-104
-102
-101
-99
-98
-97
-96
-94
-93
-91
-90
-88
-87
-85
-84
-81
-80
-79
-77
-76
-74
-73
-71
-70
-69
-68
-66
-64
-64
-63
-60
-60
-58
-57
-56
-55
-54
-53
-52
-52
-51
-50
-49
-48
-48
-47
-47
-46
-46
-45
-45
-44
-44
-44
-43
-43
-43
-43
-43
-43
-43
-44
-44
-43
-44
-44
-45
-46
-46
-47
-47
-48
-49
-50
-50
-51
-53
-54
-55
-57
-58
-59
-60
-62
-64
-64
-67
-69
-70
-73
-74
-76
-77
-79
-80
-82
-85
-87
-88
-90
-92
-94
-96
-98
-100
-102
-105
-107
-108
-111
-113
-114
-117
-118
-121
-123
-125
-127
-129
-130
-133
-135
-137
-139
-141
-142
-145
-147
-149
-150
-152
-153
-155
-156
-158
-159
-161
-162
-162
-164
-166
-166
-167
-168
-169
-170
-171
-172
-173
-174
-175
-175
-175
-176
-177
-177
-177
-179
-179
-179
-180
-181
-181
-181
-182
-183
-182
-183
-184
-184
-184
-184
-184
-184
-184
-185
-186
-185
-186
-186
-186
-186
-186
-186
-186
-187
-187
-188
-187
-188
-188
-187
-187
-188
-188
-188
-188
-188
-188
-188
-188
-188
-188
-189
-188
-188
-188
-189
-188
-188
-188
-188
-188
-187
-188
-188
-188
-187
-187
-187
-187
-187
-187
-187
-187
-187
-187
-186
-187
-187
-187
-186
-187
-187
-187
-186
-186
-186
-186
-186
-186
-186
-186
-185
-185
-185
-186
-185
-186
-186
-185
-185
-185
-185
-185
-185
-184
-185
-185
-185
-185
-185
-184
-184
-184
-184
-184
-183
-183
-183
-183
-183
-183
-183
-183
-182
-182
-182
-182
-182
-182
-182
-182
-182
-182
-181
-181
-182
-181
-181
-181
-182
-181
-181
-180
-180
-180
-179
-180
-179
-179
-179
-179
-179
-179
-179
-179
-179
-180
-179
-180
-179
-179
-179
-179
-180
-180
-180
-180
-180
-179
-179
-180
-180
-180
-180
-179
-179
-180
-180
-180
-179
-179
-179
-179
-179
-179
-179
-179
-179
-179
-179
-180
-180
-180
-180
-180
-179
-180
-180
-180
-180
-179
-179
-180
-180
-180
-180
-180
-180
-180
-180
-180
-180
-181
-181
-181
-180
-181
-181
-181
-181
-180
-181
-181
-181
-182
-182
-182
-182
-183
-183
-183
-183
-183
-183
-183
-184
-184
-184
-184
-184
-184
-184
-183
-183
-184
-183
-184
-184
-184
-184
-185
-184
-185
-185
-185
-185
-186
-185
-186
-186
-186
-185
-185
-185
-185
-185
-185
-185
-186
-186
-185
-185
-185
-185
-185
-186
-186
-186
-186
-185
-185
-185
-186
-186
-186
-186
-186
-186
-186
-186
-187
-186
-186
-186
-186
-186
-187
-187
-187
-186
-186
-186
-186
-186
-186
-187
-186
-186
-187
-186
-186
-186
-186
-186
-186
-186
-187
-187
-186
-186
-187
-187
-186
-186
-186
-186
-186
-186
-186
-187
-186
-187
-187
-187
-187
-187
-188
-187
-187
-187
-188
-188
-188
-188
-188
-188
-188
-188
-188
-188
-188
-188
-188
-188
-188
-187
-188
-188
-188
-187
-187
-188
-187
-187
-187
-187
-187
-187
-186
-186
-186
-186
-186
-186
-186
-186
-186
-186
-186
-186
-186
-187
-186
-186
-187
-187
-187
-187
-187
-186
-187
-187
-187
-187
-187
-187
-187
-186
-186
-187
-187
-186
-186
-186
-186
-186
-186
-186
-186
-186
-186
-186
-186
-186
-186
-185
-186
-186
-185
-185
-185
-184
-184
-184
-184
-183
-182
-182
-181
-181
-181
-180
-179
-179
-178
-178
-178
-177
-177
-176
-176
-174
-174
-174
-173
-173
-172
-172
-171
-171
-171
-171
-171
-171
-170
-170
-170
-170
-170
-169
-169
-168
-168
-168
-168
-167
-166
-166
-166
-165
-165
-165
-164
-164
-162
-163
-162
-162
-161
-161
-160
-160
-161
-161
-161
-161
-161
-163
-163
-163
-164
-164
-164
-165
-165
-166
-166
-168
-167
-168
-169
-168
-169
-169
-170
-169
-170
-170
-171
-171
-172
-171
-172
-172
-173
-174
-174
-175
-175
-175
-176
-176
-177
-177
-178
-178
-179
-179
-179
-180
-180
-181
-181
-181
-182
-182
-182
-183
-183
-184
-184
-184
-184
-185
-184
-184
-184
-185
-185
-186
-186
-185
-186
-186
-186
-186
-186
-186
-187
-187
-186
-186
-187
-186
-186
-186
-187
-187
-187
-187
-187
-186
-187
-187
-187
-187
-187
-187
-187
-187
-187
-186
-186
-186
-187
-187
-186
-186
-186
-186
-186
-185
-185
-185
-185
-185
-185
-185
-184
-185
-185
-184
-184
-184
-183
-184
-182
-182
-181
-180
-179
-177
-175
-174
-172
-169
-167
-164
-161
-156
-152
-147
-142
-137
-131
-123
-116
-109
-101
-93
-84
-74
-65
-55
-44
-33
-23
-11
1
14
26
38
50
62
73
85
96
105
113
119
125
128
130
130
129
125
121
113
104
93
78
61
41
19
-5
-29
-55
-81
-108
-135
