# Simple Text Format
# Sampling Rate (Hz):= 1200.00
# Resolution:= 12
# Labels:= ECG	 V3
# Age:=	57
# Gender:=	Feminino
229
228
227
228
227
228
228
228
227
227
227
229
228
228
229
228
228
228
230
229
230
230
229
230
230
231
231
230
230
231
231
232
232
232
232
232
232
232
234
234
234
235
235
237
239
241
243
245
248
251
256
260
265
269
275
280
287
294
301
309
316
324
333
341
351
360
369
377
386
395
404
413
420
426
433
438
443
447
449
451
451
450
447
443
439
433
425
416
405
394
382
369
355
340
324
308
291
275
259
242
225
208
194
179
165
153
141
130
120
112
105
100
96
92
90
90
90
92
94
98
102
106
111
118
124
131
139
146
152
160
167
176
182
188
193
199
204
209
215
219
222
225
228
231
233
236
237
239
239
240
241
242
242
242
242
242
242
242
243
243
243
242
242
242
242
242
242
243
242
242
243
243
244
244
244
244
245
245
245
245
245
245
245
246
246
246
247
247
246
246
247
247
248
248
248
247
248
249
250
250
250
249
250
250
251
251
251
251
251
251
252
252
252
252
252
252
252
252
253
253
252
252
252
252
252
253
253
253
253
253
254
254
254
254
253
254
254
254
255
255
255
254
255
256
256
256
256
257
257
258
258
259
259
259
259
258
260
260
261
261
259
260
260
261
261
262
262
262
261
261
262
263
262
263
262
263
263
264
264
264
264
264
264
265
265
266
266
266
266
267
267
268
269
268
268
269
269
270
270
271
270
270
270
269
270
270
270
270
269
269
269
270
270
269
270
269
269
270
271
271
271
271
272
272
273
274
274
275
274
275
276
277
277
277
277
277
277
278
279
279
279
278
279
280
280
279
280
280
280
281
281
282
283
282
283
282
283
284
285
285
285
286
286
287
288
288
289
289
288
289
291
292
292
292
292
292
293
294
294
294
294
294
295
294
296
296
296
296
296
296
298
299
299
299
299
299
299
300
301
301
300
301
300
301
301
301
301
301
301
301
301
301
302
301
300
300
301
301
302
301
301
300
299
300
300
301
300
300
300
300
300
300
300
300
299
299
299
299
299
300
299
299
298
299
299
299
298
298
296
296
297
297
296
296
295
294
294
294
294
293
291
291
290
290
290
289
289
288
287
287
286
286
286
284
284
283
283
283
282
281
280
279
278
278
278
277
276
275
274
274
273
273
272
272
270
269
269
268
267
266
266
264
263
263
263
262
261
260
259
259
258
257
257
255
255
253
254
253
253
252
251
250
249
248
249
248
248
246
246
246
247
247
246
246
245
244
245
244
245
244
244
244
243
243
244
244
244
243
243
243
244
243
243
242
241
241
242
241
242
241
241
240
240
240
240
240
239
239
238
238
238
239
239
238
238
238
238
239
239
240
239
239
239
240
241
241
240
241
241
241
242
243
243
243
242
242
243
243
244
243
243
242
242
243
243
244
243
243
242
243
243
243
243
243
242
243
243
243
244
243
243
242
242
242
244
243
243
242
243
242
244
244
244
244
243
243
243
244
244
244
243
242
243
243
244
244
244
243
243
243
244
244
244
244
243
244
244
244
244
244
244
244
244
245
245
246
245
245
246
246
246
248
247
247
247
247
247
247
248
247
247
247
246
246
246
247
246
246
246
246
246
246
246
246
246
246
245
245
246
245
244
244
244
245
245
244
244
244
244
244
245
246
245
245
245
245
245
247
246
246
246
246
246
246
247
246
247
246
247
246
246
246
247
245
245
244
244
244
244
244
243
242
242
242
243
242
241
241
240
241
241
241
240
241
239
239
240
240
241
240
240
240
240
240
242
242
241
241
241
242
242
243
242
242
243
243
243
243
243
243
242
242
242
242
243
242
242
242
242
242
242
242
241
241
240
240
240
240
240
240
239
239
239
239
240
240
240
239
239
240
240
240
241
240
240
240
240
241
241
240
240
240
240
240
241
241
240
240
239
239
240
240
241
240
240
240
241
241
242
242
241
242
242
244
245
244
244
244
244
245
245
246
245
245
245
245
245
246
245
245
243
244
243
244
244
245
244
244
244
245
245
246
245
245
245
245
246
246
247
246
246
246
246
246
247
247
246
247
247
246
247
247
247
246
246
247
246
247
246
246
245
244
244
244
244
244
243
242
241
242
241
241
240
239
238
237
237
237
237
236
236
235
236
236
236
236
235
235
235
236
236
237
236
236
236
237
237
237
238
237
237
237
237
237
238
238
237
237
237
237
237
238
237
236
235
235
235
236
235
235
234
234
234
234
235
235
233
233
233
233
234
233
233
232
232
232
233
233
233
233
233
232
232
233
233
233
234
234
234
234
235
235
234
234
234
234
236
236
236
235
236
235
236
237
237
237
237
237
238
238
239
240
241
241
241
243
244
245
247
249
251
253
256
260
264
268
272
277
283
290
296
303
310
318
325
335
344
353
362
371
380
389
398
409
418
426
433
440
447
452
458
462
464
465
465
464
462
458
454
448
439
431
421
410
398
384
370
355
340
324
309
293
276
260
242
227
212
197
184
171
158
147
138
129
122
116
111
106
104
104
104
106
108
110
114
118
124
130
136
142
149
155
162
169
177
183
189
194
200
205
211
216
220
223
227
230
232
236
238
239
241
241
243
243
245
245
246
246
246
247
248
248
248
248
248
248
249
249
249
250
249
249
250
251
251
251
252
251
252
253
254
256
256
255
256
256
257
258
259
258
258
258
259
259
260
261
260
260
261
261
262
264
264
263
264
264
264
266
265
266
266
266
267
268
268
269
269
268
268
269
270
270
270
269
269
270
270
269
269
269
269
269
268
269
270
269
268
268
269
270
270
270
271
271
271
271
272
272
273
273
273
273
273
275
275
275
275
275
275
275
276
276
276
276
275
276
276
277
277
276
276
276
277
278
278
277
277
277
279
279
280
281
280
280
280
281
281
281
282
282
282
282
282
282
284
283
283
283
283
284
285
286
286
286
285
285
287
287
287
288
287
288
288
288
289
288
288
287
288
289
289
290
290
289
289
289
290
291
291
291
291
291
291
292
293
293
294
293
294
296
296
297
297
297
298
298
300
300
301
301
302
301
302
304
304
305
306
305
307
307
308
308
309
309
308
310
310
310
310
310
310
310
311
311
312
313
311
311
312
313
313
314
314
314
313
314
314
315
316
315
315
315
316
317
317
317
317
317
318
319
319
320
319
319
319
319
320
320
319
319
319
318
319
319
319
319
318
318
318
318
320
319
319
319
319
319
319
319
319
319
318
318
318
318
318
317
316
316
316
316
316
316
316
315
313
313
313
313
312
311
310
310
309
309
308
307
307
306
306
305
305
305
303
302
302
301
300
300
299
297
296
296
295
294
294
293
292
291
290
289
289
288
287
286
285
283
283
282
282
280
279
278
277
277
276
275
273
273
272
271
271
270
269
268
267
267
266
266
265
264
264
263
262
262
261
261
260
259
259
259
258
258
257
256
255
255
255
254
253
252
252
251
251
251
250
249
249
248
248
248
248
248
248
247
247
247
247
248
247
247
246
246
246
247
246
247
246
246
246
247
246
247
247
247
246
247
247
246
246
245
245
245
245
246
245
246
245
245
245
246
246
247
246
245
245
245
246
246
246
245
245
245
245
245
246
245
245
245
245
246
247
247
246
246
246
247
247
247
248
246
246
247
248
248
249
248
248
248
248
249
249
250
249
249
250
250
250
251
251
251
251
251
251
252
252
252
252
251
252
253
252
252
252
252
251
252
252
252
251
251
251
251
251
252
252
251
251
250
251
251
252
252
252
251
251
252
252
252
253
251
251
252
252
252
252
251
251
252
252
252
252
252
252
251
251
250
252
251
250
250
249
249
249
250
250
249
248
248
248
249
250
249
249
249
249
248
249
250
249
249
249
250
250
250
251
250
250
249
250
251
251
251
250
249
250
249
249
250
249
248
248
248
248
248
248
247
247
247
247
248
248
247
247
247
246
246
246
246
245
245
245
245
245
245
244
244
244
243
244
244
244
244
244
244
243
244
244
245
244
244
243
244
244
245
245
245
244
244
245
245
246
246
245
244
244
245
245
245
244
245
243
243
244
244
244
243
243
242
243
243
243
244
243
243
242
243
242
243
242
242
242
242
242
242
243
242
241
242
241
242
242
242
241
241
241
241
241
242
241
240
240
241
241
242
242
241
241
241
242
242
243
243
243
243
243
244
244
244
243
243
243
244
245
244
245
245
244
245
246
246
246
247
246
246
246
247
247
247
247
247
247
247
247
248
248
247
247
247
247
248
248
247
248
247
247
247
248
247
247
246
246
246
246
247
246
246
246
246
246
246
246
246
245
245
244
244
244
243
243
242
240
240
240
240
239
239
237
237
236
237
236
236
235
234
234
235
235
234
234
234
233
234
233
234
234
234
233
233
234
234
235
235
235
234
234
234
234
234
234
233
232
233
233
232
232
232
231
231
231
231
231
231
230
229
229
229
229
229
229
229
228
228
228
229
228
227
227
227
227
228
229
228
228
227
227
227
229
228
228
228
228
228
229
229
230
229
229
229
229
230
231
231
230
230
230
231
231
231
231
231
231
231
232
233
234
235
236
238
240
243
246
250
252
256
261
265
271
277
282
289
296
303
311
320
329
337
347
356
366
376
385
394
403
411
420
428
435
442
447
452
456
458
461
462
462
459
455
452
447
439
431
421
409
397
384
370
356
340
324
307
290
274
256
241
224
208
192
178
165
153
143
132
123
115
109
105
101
99
97
97
97
100
104
109
113
118
124
130
137
143
151
157
164
170
177
183
190
196
201
206
210
215
219
222
226
228
229
232
234
236
238
238
239
239
240
241
242
241
242
241
241
242
242
243
243
243
242
243
244
244
245
245
244
244
245
245
246
246
246
246
245
246
247
248
249
248
249
249
250
251
251
251
251
251
251
253
252
253
253
252
253
252
254
254
253
254
254
254
254
256
255
256
256
255
256
256
256
257
257
256
257
257
257
257
257
258
257
257
259
259
260
260
260
260
260
261
262
262
261
261
262
263
264
264
264
265
264
265
266
267
267
267
267
267
267
268
268
268
268
268
267
268
268
269
269
269
269
269
270
271
270
271
271
270
271
271
271
271
272
271
271
272
272
273
273
273
273
273
274
275
275
275
275
274
275
276
276
277
276
275
276
276
277
277
277
277
277
277
278
279
279
279
279
279
280
280
280
281
281
281
281
281
282
282
283
282
283
283
285
286
286
286
286
286
287
287
288
289
289
289
289
289
290
291
291
291
292
292
293
294
294
295
294
294
294
295
295
297
296
296
296
297
297
298
298
297
298
298
299
300
301
300
300
300
300
301
301
301
301
301
301
302
301
302
303
303
303
303
304
305
305
306
305
305
305
306
307
307
307
306
307
307
308
308
308
309
308
309
309
309
310
309
309
309
309
309
310
310
309
308
308
308
308
309
308
307
307
307
307
307
307
307
306
305
305
305
306
305
305
304
304
303
304
304
303
303
303
303
303
303
303
302
301
300
300
300
299
298
298
296
296
295
294
294
293
291
291
289
289
289
287
287
285
284
283
282
282
280
279
278
277
275
274
274
273
271
271
269
269
267
267
266
264
263
261
261
260
259
257
257
255
255
253
253
252
251
249
249
248
247
247
245
244
243
243
242
241
240
239
238
237
237
236
235
235
233
233
232
232
232
232
230
230
229
229
229
228
227
227
226
225
226
226
225
225
224
224
224
223
223
223
222
222
221
222
221
221
221
220
220
219
220
220
220
220
219
219
220
220
220
220
220
219
220
220
221
221
221
220
219
220
219
220
220
219
219
218
218
219
218
218
217
217
217
216
217
217
216
217
215
215
216
216
217
216
216
215
216
216
216
216
217
215
216
216
216
217
216
216
216
215
216
216
216
217
216
216
217
217
218
217
217
217
218
217
218
219
219
219
217
217
218
218
219
219
219
218
219
220
220
219
219
219
219
219
219
220
220
219
218
218
219
219
220
219
219
218
219
219
220
220
219
218
219
218
219
219
219
218
219
218
219
219
219
219
218
218
218
218
219
219
219
218
218
218
218
219
218
217
217
216
216
216
217
216
216
216
216
216
216
216
216
216
215
216
216
217
216
216
215
215
216
216
216
217
216
216
216
216
217
216
216
215
215
215
215
215
214
213
213
213
212
213
213
213
212
213
212
213
213
214
213
212
213
213
213
213
213
214
213
213
213
214
215
214
214
213
214
214
214
214
213
213
213
213
213
213
212
212
212
211
212
212
212
211
210
209
210
210
211
211
210
210
210
209
210
210
210
209
209
209
209
210
210
209
209
209
210
210
210
211
210
210
210
210
211
211
211
211
211
210
211
211
211
211
211
211
211
212
212
212
211
211
210
211
211
210
210
210
209
209
210
210
210
210
209
209
209
210
209
210
209
209
208
209
209
210
209
209
208
209
209
210
210
211
211
210
210
211
212
212
212
212
212
213
212
213
212
212
212
212
212
213
213
212
212
212
212
214
214
214
213
213
213
214
214
215
215
215
215
215
216
216
216
216
216
215
216
216
217
217
217
216
216
216
217
217
217
216
215
215
215
216
216
215
215
214
214
214
214
213
212
211
210
210
210
209
208
208
208
207
207
207
207
206
205
205
205
206
205
204
204
204
204
204
204
205
205
204
204
204
204
206
205
204
205
205
205
205
206
206
205
206
205
206
205
205
204
204
204
203
203
203
203
202
202
202
201
202
202
201
200
199
199
199
199
199
199
198
198
198
198
199
198
198
198
198
198
199
199
199
198
198
198
199
198
198
198
198
197
197
197
198
197
197
196
196
196
197
197
197
196
197
197
197
199
199
199
199
200
201
202
204
206
207
210
213
215
219
223
227
231
235
240
246
252
260
266
273
281
289
298
307
316
324
333
343
351
360
369
378
385
392
399
405
411
415
418
420
420
419
418
416
413
407
399
392
383
372
361
349
334
319
304
288
272
256
238
221
204
188
172
157
142
128
115
103
93
85
78
71
66
62
59
59
59
60
62
64
68
73
77
83
90
96
102
108
116
123
130
137
143
148
154
160
166
170
174
178
181
184
187
190
193
194
196
197
199
201
201
202
203
202
203
204
205
204
205
205
204
204
206
206
206
206
206
206
208
208
209
209
209
208
208
209
209
210
209
209
210
210
211
211
211
212
211
211
212
213
214
214
214
214
214
215
215
215
215
215
215
215
215
216
216
215
215
215
215
216
216
216
216
215
215
216
216
216
216
216
215
215
216
216
216
216
216
217
217
218
218
218
218
217
218
219
219
219
218
219
218
219
219
220
220
220
220
221
221
222
222
221
221
222
222
223
224
223
223
223
224
223
224
225
225
225
225
225
225
226
227
226
226
226
226
226
226
226
226
226
226
226
227
226
226
226
226
226
226
227
228
228
228
228
228
229
230
230
230
230
230
231
232
232
233
233
234
233
234
235
236
236
236
236
236
237
237
239
238
238
238
238
240
239
240
240
240
241
241
242
242
243
242
242
242
244
244
244
244
243
244
244
246
246
246
247
246
247
247
248
249
249
248
249
249
250
251
251
251
251
252
252
252
254
253
254
254
254
254
255
256
256
256
256
257
257
258
258
258
258
258
259
260
260
261
261
261
261
262
263
264
263
263
264
264
264
265
266
266
266
265
266
266
267
267
267
267
267
268
268
268
268
268
267
267
268
269
268
268
267
267
267
268
268
268
267
267
267
267
268
268
267
267
266
266
267
266
266
265
264
264
265
264
265
265
265
263
263
263
263
264
263
262
262
261
262
261
261
260
259
258
257
257
257
255
254
253
252
251
251
250
248
247
245
245
244
243
241
239
238
236
237
235
235
234
232
231
229
229
229
227
226
224
223
222
222
221
220
219
218
216
215
215
215
213
212
212
210
210
210
209
208
207
206
206
205
204
204
202
201
200
200
200
199
198
197
197
196
196
196
195
194
194
193
193
192
192
191
191
190
190
191
191
191
191
190
190
190
191
191
191
191
191
190
191
191
192
192
192
191
191
192
192
193
192
192
191
192
191
192
193
192
191
191
191
191
190
190
190
190
189
190
190
190
189
189
189
189
189
190
190
189
189
189
189
190
189
189
189
189
188
189
190
189
189
189
188
188
188
187
188
187
186
186
185
186
185
185
184
183
183
183
183
183
182
182
182
183
183
184
184
184
184
183
184
184
185
184
184
184
184
185
184
185
184
184
184
184
185
185
184
185
184
184
184
184
184
184
183
183
183
184
184
183
184
183
184
184
184
185
184
185
185
184
185
185
185
185
185
185
185
184
185
186
185
185
184
185
185
185
185
185
184
184
185
185
185
184
185
183
184
184
185
185
184
184
184
184
184
185
185
184
184
184
184
183
184
183
183
183
183
183
184
183
183
183
183
183
183
184
184
184
184
184
183
183
184
184
183
183
183
184
184
184
183
183
183
183
183
183
183
182
182
182
182
182
182
182
181
180
180
180
180
180
180
180
179
179
179
179
179
179
177
178
177
177
177
178
177
177
177
176
177
178
177
177
177
177
178
178
179
178
178
178
179
179
179
179
178
178
178
179
179
179
178
178
177
178
178
179
178
178
177
177
177
177
177
177
176
176
176
176
176
176
175
175
174
175
175
175
175
174
174
173
174
174
174
173
173
172
173
173
174
173
173
173
173
173
174
174
174
173
173
173
174
174
173
173
172
172
172
172
172
173
172
172
173
173
174
174
174
174
174
174
175
176
176
176
175
176
177
177
177
178
178
178
178
179
179
179
180
179
179
178
179
179
179
179
179
179
179
179
180
180
180
180
180
181
181
182
182
182
182
183
182
183
183
183
182
182
183
183
184
183
183
182
182
182
183
183
182
182
181
181
180
180
180
179
178
177
177
177
177
177
177
176
175
175
175
175
175
175
173
173
173
173
173
173
172
172
171
172
173
172
172
171
171
172
172
173
173
173
172
172
172
172
173
172
171
170
171
170
170
170
169
169
168
168
169
168
168
167
167
167
166
167
167
167
166
166
166
166
167
167
166
166
166
166
167
167
167
166
166
166
166
166
167
166
165
164
165
165
165
165
165
165
165
166
167
167
166
166
165
167
167
167
167
167
167
167
167
167
168
167
167
167
167
168
168
169
169
169
170
170
171
172
174
175
177
179
182
186
190
194
198
202
207
213
220
227
234
240
248
257
266
275
283
293
300
309
318
328
336
344
351
359
365
371
376
381
384
384
385
384
383
380
376
370
363
353
344
334
323
310
295
280
264
249
233
217
199
182
166
150
134
119
106
92
80
70
61
52
46
40
35
32
30
30
31
33
35
38
42
47
53
59
66
72
77
84
92
98
106
112
117
123
129
136
140
146
149
153
157
160
164
166
168
170
171
172
174
175
176
177
176
177
177
178
179
178
178
178
177
177
178
179
178
179
178
178
178
178
179
179
179
179
179
180
181
181
182
182
182
183
183
183
184
184
184
184
185
185
186
185
185
185
185
186
186
187
186
186
186
186
186
186
187
187
187
186
187
187
187
187
188
188
188
188
189
188
189
189
188
189
189
190
190
189
189
189
190
190
190
190
190
190
190
190
191
191
192
191
191
192
192
192
192
192
191
192
191
191
193
193
193
192
192
194
194
194
195
195
194
194
196
196
196
196
196
196
197
197
198
199
199
198
199
200
201
202
201
201
200
202
202
202
202
203
202
202
202
203
204
204
203
203
203
204
204
205
204
204
204
204
205
206
206
206
205
206
206
206
207
207
207
207
207
208
209
209
209
209
209
209
210
210
210
210
210
210
211
211
212
213
212
212
212
213
213
214
215
214
214
215
216
216
217
217
217
217
218
218
219
220
220
220
220
221
221
222
223
223
223
223
223
224
225
225
225
225
225
227
227
227
227
228
228
229
230
230
230
230
230
230
230
231
231
230
231
230
231
232
231
232
232
231
231
232
233
233
233
233
233
233
234
234
234
234
233
233
234
235
235
235
235
235
236
236
237
237
237
237
236
237
237
237
238
237
236
236
237
237
236
237
236
235
235
236
236
235
235
235
233
233
233
234
233
232
232
231
231
230
231
230
229
228
228
228
228
228
227
226
225
225
224
225
224
223
222
221
221
219
219
218
217
216
215
214
214
213
211
210
208
208
207
206
205
203
202
201
200
199
198
197
196
195
193
193
193
191
191
189
189
187
186
186
186
184
183
182
181
180
180
179
177
176
176
175
174
174
172
172
171
170
169
169
168
167
166
165
164
165
164
164
162
161
162
162
162
161
161
160
160
159
159
160
159
159
158
158
158
159
158
159
158
158
158
158
158
159
158
158
157
158
158
158
158
158
157
156
157
158
157
157
156
157
156
157
157
157
156
156
156
156
156
155
155
155
154
154
154
154
155
154
154
154
155
154
155
155
155
155
154
155
155
155
155
155
155
154
154
155
155
155
155
154
155
155
156
156
156
156
155
155
157
156
156
156
155
155
156
157
157
157
156
157
156
157
157
157
156
156
156
156
156
157
156
155
154
155
154
155
155
155
155
155
155
155
155
155
155
155
155
155
155
156
155
155
155
155
155
156
156
155
156
155
156
155
157
156
156
155
155
155
155
155
155
155
154
154
154
156
155
156
155
155
154
155
155
155
156
154
155
155
155
155
155
154
154
154
153
154
154
154
153
154
154
154
154
154
154
153
153
153
154
154
154
153
153
152
152
153
153
152
152
151
150
150
150
150
150
149
149
149
149
148
149
147
147
147
148
148
148
148
147
148
148
148
149
149
149
148
148
149
149
148
148
148
147
147
147
147
147
146
147
146
146
147
147
146
146
146
145
146
146
146
146
145
145
145
145
146
145
146
146
145
146
147
147
146
146
145
146
145
146
146
146
145
145
145
145
145
144
144
144
143
144
143
144
144
143
142
142
142
142
142
141
141
141
141
141
142
141
142
142
141
141
142
143
143
142
142
142
142
143
143
142
142
142
141
141
142
142
141
141
140
141
141
141
141
140
140
140
140
140
140
140
140
139
140
140
140
140
140
140
140
140
141
142
142
142
141
141
142
142
142
143
142
142
143
143
144
144
144
144
145
145
146
147
146
146
146
146
147
147
148
148
148
148
148
148
148
149
149
149
149
149
150
150
150
150
150
150
150
151
151
151
151
150
150
151
151
152
150
150
150
150
150
151
151
150
149
149
150
149
149
149
148
148
148
147
148
147
146
146
146
145
146
146
145
144
143
143
142
143
142
142
141
140
140
141
141
142
141
141
140
141
141
142
142
141
141
141
142
141
142
141
140
139
140
139
140
140
138
138
138
137
138
139
138
138
137
137
136
137
137
137
137
136
137
136
137
137
137
136
137
137
137
138
137
137
136
137
137
137
138
137
136
137
137
137
138
138
138
138
138
138
139
140
140
139
140
139
140
140
140
140
139
140
139
139
140
140
140
140
140
140
141
141
141
142
141
142
143
145
147
147
149
151
154
156
160
163
166
170
174
180
186
192
198
204
211
219
228
236
244
254
262
271
279
289
298
307
315
322
330
337
344
349
353
356
357
358
357
356
353
348
342
334
326
317
306
293
280
266
251
235
219
202
186
168
151
135
119
104
89
74
61
49
38
29
21
14
8
3
0
-2
-1
-1
0
3
6
10
16
22
27
34
40
47
54
61
68
74
80
87
92
99
104
110
114
118
122
125
129
132
134
136
137
138
140
141
142
143
144
143
144
144
145
145
145
145
145
145
145
147
146
147
146
146
147
148
148
149
148
149
150
150
151
152
152
152
152
153
153
153
154
154
153
153
153
154
155
154
154
154
154
154
155
156
155
155
155
155
155
155
156
156
155
155
156
156
156
157
156
156
156
156
157
158
158
158
158
158
159
159
159
158
159
158
159
159
159
159
159
158
159
159
160
159
160
159
159
159
160
160
161
161
161
161
161
162
163
163
163
163
163
163
164
164
164
164
163
163
163
163
164
163
162
163
163
163
165
165
165
164
164
166
166
167
167
167
167
167
169
170
170
170
170
170
170
171
171
172
171
171
171
171
172
172
172
172
172
172
173
173
173
173
173
173
174
174
174
175
174
174
174
174
176
175
176
175
175
176
176
177
177
177
177
177
178
179
180
180
179
179
180
181
182
182
182
182
182
182
183
183
184
184
184
184
184
186
186
186
186
187
187
188
188
188
189
188
189
189
191
191
191
191
191
191
192
192
193
194
194
194
194
195
196
196
197
196
196
198
198
199
199
198
198
198
199
199
199
200
199
199
199
199
199
199
200
199
199
199
199
200
199
200
199
199
199
200
200
201
199
200
200
200
201
201
201
201
201
200
201
200
200
199
199
199
198
198
199
199
198
197
198
198
198
198
197
196
196
196
196
196
195
194
193
193
193
193
193
192
191
190
189
190
189
189
189
188
187
187
186
187
185
185
184
183
183
183
183
181
181
179
179
179
177
177
176
174
173
172
171
170
169
167
166
165
164
163
162
161
159
158
157
157
157
156
155
153
153
151
152
151
150
149
147
147
146
145
144
144
142
142
140
140
139
138
137
136
135
134
134
133
132
131
130
129
129
128
127
128
126
126
125
125
125
126
125
123
122
123
122
122
122
121
120
119
120
119
120
119
119
118
118
118
119
119
119
117
118
118
118
118
117
117
117
116
116
117
117
117
116
116
116
116
117
117
116
116
115
115
116
116
115
115
114
114
113
113
114
113
113
113
113
113
113
112
112
110
110
110
111
111
110
110
109
110
109
110
111
110
110
110
110
111
111
112
111
111
111
112
112
113
113
112
111
111
111
112
112
113
112
111
112
113
113
113
112
111
112
111
112
113
112
111
111
111
111
112
112
111
111
111
112
112
112
112
112
111
111
111
112
112
112
111
111
111
111
112
111
112
111
112
112
112
113
112
112
112
112
111
111
112
111
111
110
110
110
111
110
110
110
109
110
110
110
110
110
109
108
109
109
109
109
109
108
108
108
109
108
108
107
108
107
108
108
108
108
107
107
106
107
108
107
106
106
106
107
107
107
106
106
106
106
107
107
107
106
106
106
106
106
106
105
106
105
104
105
106
105
105
105
105
105
105
105
105
105
104
104
104
104
104
104
102
102
102
102
103
103
102
101
101
101
101
102
102
100
101
100
101
100
101
101
100
99
99
100
100
101
100
100
100
100
100
101
101
101
100
99
100
100
100
100
100
99
99
100
100
100
100
99
99
98
100
100
99
99
98
98
99
98
99
98
97
97
97
96
96
96
95
95
95
95
95
95
95
95
94
94
95
95
95
95
94
94
94
94
95
95
95
95
96
96
98
98
98
98
98
97
98
98
99
98
98
97
97
98
98
98
98
97
97
97
98
98
98
98
97
98
98
100
100
100
99
100
100
101
102
102
102
102
103
103
104
105
105
105
104
105
104
105
106
106
105
104
105
105
106
106
106
105
105
104
105
105
105
104
103
103
102
102
101
101
99
98
98
97
96
96
95
93
93
92
93
92
91
91
90
89
89
89
88
88
87
87
87
87
88
88
88
88
88
88
89
90
90
90
90
89
91
91
90
91
91
90
91
91
91
91
91
89
89
90
89
90
90
88
88
88
88
88
88
87
87
86
86
87
87
87
87
86
86
86
87
87
86
86
85
85
86
87
87
86
86
85
86
87
87
86
87
86
87
87
88
88
89
89
89
89
89
89
89
89
89
89
89
90
90
91
91
91
92
93
94
95
96
97
98
100
103
105
108
111
114
117
122
127
133
138
144
150
157
164
172
181
190
198
207
215
225
235
245
254
262
270
279
287
294
301
307
310
315
318
320
321
320
318
314
310
304
296
288
278
267
254
242
228
214
199
182
165
149
133
117
101
85
69
54
39
27
15
4
-7
-17
-25
-31
-35
-39
-42
-44
-44
-42
-41
-36
-33
-28
-23
-18
-11
-4
3
10
17
23
29
36
42
49
54
59
63
67
71
76
79
82
85
87
89
91
93
93
94
94
95
95
96
97
98
97
97
98
98
99
99
98
98
98
98
99
99
99
99
99
99
100
101
101
100
101
100
101
102
103
103
103
103
104
104
104
105
105
106
105
106
107
108
108
108
108
109
109
109
110
110
111
110
110
110
110
111
111
111
110
111
110
111
112
112
111
110
111
111
112
113
113
113
113
113
115
115
115
115
115
114
115
115
116
116
116
116
116
116
117
117
117
116
116
116
117
117
117
117
117
117
117
119
119
120
119
119
119
120
122
122
122
122
122
123
123
123
124
123
123
123
123
124
124
124
124
123
123
124
125
125
124
124
124
124
125
125
125
125
124
124
124
125
125
126
125
125
125
126
127
127
128
128
128
129
129
130
131
131
131
132
133
133
135
135
134
135
136
136
137
137
138
138
137
138
138
138
140
139
139
139
140
140
142
142
141
142
142
143
144
144
145
145
144
145
146
146
147
147
146
146
146
147
147
147
147
147
147
148
150
151
150
150
150
150
152
152
153
153
153
153
154
155
155
155
155
155
155
156
157
157
157
157
157
158
158
159
159
159
159
159
159
161
161
161
160
161
161
163
163
163
163
163
163
164
165
164
165
164
164
164
164
164
165
164
163
164
163
164
164
164
163
162
162
162
162
162
162
162
160
160
160
160
161
159
159
159
159
160
160
160
160
159
159
158
159
159
159
159
158
158
157
158
158
157
156
155
155
154
155
154
153
152
151
150
150
150
149
147
146
145
144
144
143
143
142
140
139
139
139
138
137
136
135
134
134
133
133
131
130
129
129
127
127
126
124
124
123
123
123
122
121
119
118
118
117
117
115
115
113
113
113
112
112
111
111
110
110
110
110
110
109
108
108
108
107
108
107
106
106
105
105
106
105
105
104
103
103
103
103
103
102
101
101
100
101
101
100
100
100
99
99
99
99
99
99
98
98
99
99
99
99
98
98
97
98
98
98
97
97
98
97
98
98
98
98
97
98
99
99
99
99
98
99
99
99
99
98
99
98
99
98
99
99
100
99
99
99
99
100
99
100
99
100
99
100
100
99
99
99
99
100
100
101
100
100
100
100
100
101
101
101
100
100
101
100
101
101
99
100
100
100
101
100
101
99
100
100
101
102
101
101
101
101
101
102
102
102
102
102
101
101
102
101
101
101
101
100
101
101
101
100
100
99
99
100
100
100
99
99
99
99
100
100
99
99
99
99
100
100
100
100
100
99
100
100
101
100
100
99
98
99
99
100
99
99
99
98
99
100
99
99
98
98
98
99
99
98
98
98
98
98
99
99
98
98
98
97
97
98
98
97
96
96
97
96
96
96
95
95
95
95
96
95
96
95
95
96
96
96
97
97
97
97
97
98
98
98
97
97
98
98
98
98
98
98
98
98
99
99
99
98
98
97
97
98
97
96
97
96
95
96
96
96
95
94
94
95
94
95
95
94
93
94
93
94
95
94
93
93
93
94
94
95
95
94
94
94
95
95
95
95
94
94
94
95
95
94
94
94
94
94
94
94
94
93
94
93
94
94
94
94
93
94
94
95
95
95
95
94
94
95
95
95
95
95
95
95
96
97
96
96
95
96
96
97
97
96
96
96
96
96
97
97
97
97
97
98
98
99
99
98
98
98
99
99
99
99
98
98
99
99
99
99
99
99
99
100
101
101
102
102
102
102
103
103
103
104
103
103
104
104
104
104
104
103
103
103
103
103
104
103
103
102
102
103
102
102
101
100
100
101
101
100
100
99
99
99
98
99
98
98
96
96
96
96
95
94
94
93
93
93
93
94
93
93
93
93
93
93
94
93
94
94
95
95
95
95
96
95
96
97
97
97
97
97
97
98
98
98
98
98
97
97
97
97
97
97
95
95
95
95
95
96
95
95
95
95
96
96
96
95
95
95
95
96
97
96
96
96
95
97
97
97
97
97
96
96
97
98
98
98
97
97
97
98
98
98
97
97
98
98
98
98
98
99
99
99
100
100
101
101
101
101
102
102
103
104
104
105
107
110
112
114
117
119
123
127
132
137
142
147
152
159
166
174
182
190
197
206
216
226
235
244
254
263
272
281
291
299
307
313
319
324
329
333
336
336
336
335
332
329
324
316
308
299
288
276
264
251
236
220
203
188
171
155
138
120
104
88
73
59
45
32
21
10
0
-8
-14
-20
-23
-27
-30
-30
-29
-27
-25
-21
-17
-13
-7
-1
6
13
19
26
33
40
47
53
58
63
68
74
79
83
88
90
93
96
98
100
103
103
104
105
106
107
108
108
108
109
108
108
108
109
109
108
108
109
110
110
111
111
111
111
111
112
113
114
114
114
115
114
115
116
116
115
116
115
116
117
118
118
118
118
118
119
120
119
120
119
119
119
120
121
120
121
121
120
121
122
122
122
122
122
122
123
124
125
124
125
125
124
125
126
126
126
125
125
125
126
126
126
125
124
124
126
126
127
126
126
126
126
126
128
127
127
127
127
128
129
129
129
130
129
129
130
131
131
132
132
131
131
132
132
133
132
132
132
132
133
134
134
133
133
134
134
135
136
135
135
135
134
135
135
136
136
135
135
135
136
136
136
136
136
136
137
137
137
137
137
137
137
138
139
139
139
139
140
140
141
142
142
142
143
143
143
144
146
145
145
146
146
148
148
149
149
149
149
149
149
151
151
151
151
151
151
152
152
152
152
152
152
153
153
154
154
153
154
155
155
156
156
156
157
157
158
159
160
160
160
160
161
162
162
163
163
163
162
163
164
165
165
165
165
166
166
167
168
167
167
167
167
168
169
169
169
170
170
170
170
171
171
171
171
171
173
173
174
174
174
174
174
175
175
175
175
175
176
175
176
176
176
176
176
176
177
177
177
177
177
176
176
177
176
177
177
176
176
176
175
176
176
175
175
175
175
176
176
175
175
174
174
174
174
174
173
173
173
172
172
172
172
171
170
170
170
170
169
169
168
167
166
166
165
165
164
163
163
162
161
161
160
159
158
157
157
155
154
154
151
150
149
148
147
146
145
143
142
140
140
139
138
136
134
134
133
132
132
131
129
128
127
126
126
125
124
123
122
121
121
121
120
118
118
117
117
117
116
115
114
113
113
112
112
112
110
109
109
108
108
107
107
105
104
104
104
104
103
102
101
100
100
101
100
99
99
98
98
97
97
97
96
96
96
96
96
96
95
96
95
94
94
94
95
95
95
93
94
94
95
94
94
94
94
94
94
95
95
94
94
93
93
93
93
93
93
92
92
92
93
93
93
92
92
92
93
93
92
93
91
92
92
92
92
92
92
91
91
91
92
92
92
92
91
92
92
93
92
93
93
92
93
93
94
93
93
93
93
94
94
95
95
95
95
95
96
97
97
97
97
96
97
98
98
97
97
97
97
97
98
98
98
97
97
97
98
97
97
98
97
97
97
98
97
98
97
97
96
96
97
97
97
97
96
97
97
98
98
98
98
97
98
98
99
99
98
98
97
98
98
98
98
97
97
97
97
98
98
97
96
96
96
96
97
96
96
95
95
96
95
95
96
95
95
95
96
96
96
96
96
96
95
95
96
96
95
95
95
95
96
95
95
94
94
94
95
95
94
94
94
93
93
93
93
93
92
91
91
92
92
92
91
91
91
92
92
92
92
92
92
91
91
92
92
92
92
92
92
92
92
93
93
92
92
93
93
93
93
93
92
92
92
92
92
92
91
91
90
91
91
91
91
90
89
90
91
91
91
90
90
89
89
90
91
90
89
89
89
89
89
90
89
89
88
89
89
90
89
89
89
88
88
89
88
88
88
87
86
87
87
88
87
88
87
87
88
88
88
87
87
88
87
88
88
88
88
87
87
87
88
87
87
87
87
87
87
87
86
86
85
86
85
86
86
85
85
84
86
86
87
86
87
87
87
88
89
89
89
90
90
91
91
91
92
92
91
92
91
92
93
93
92
92
92
93
94
93
93
93
93
93
94
94
95
94
94
94
95
95
96
96
96
96
96
97
98
98
99
98
98
98
98
98
99
98
98
97
97
98
98
98
98
97
97
97
96
96
96
95
94
94
93
93
93
92
92
91
91
91
92
91
91
91
90
91
91
92
92
92
92
92
93
93
93
93
93
92
92
93
93
93
93
92
92
93
92
92
92
91
91
90
90
91
91
90
90
89
89
89
89
89
88
88
88
88
89
89
88
88
88
87
88
88
88
88
87
86
86
87
88
88
87
86
87
87
88
88
88
88
88
88
87
89
89
88
88
88
88
88
89
89
89
89
89
89
90
90
90
90
91
91
91
93
93
94
94
95
96
98
100
102
104
107
109
113
118
121
126
130
135
141
147
154
162
169
176
185
194
203
212
222
231
240
249
259
268
276
285
292
299
305
311
317
320
323
323
323
323
321
317
312
305
297
288
278
266
253
239
224
209
192
176
158
141
124
106
89
73
58
44
30
16
5
-6
-14
-22
-28
-33
-37
-39
-40
-39
-38
-35
-32
-28
-23
-19
-12
-5
1
8
14
20
28
35
42
47
52
57
63
67
72
76
79
82
85
88
90
93
94
96
97
98
99
101
101
102
101
102
102
103
103
104
103
103
103
103
103
104
104
104
104
104
105
105
106
106
106
105
105
105
107
107
106
106
106
107
108
108
108
109
108
108
110
110
111
111
111
111
111
111
112
113
113
112
112
113
113
114
113
113
113
113
114
113
114
114
113
113
113
114
115
114
114
113
114
114
114
115
115
114
114
114
116
115
116
115
115
115
115
116
116
116
116
115
116
116
117
117
118
118
117
117
119
119
120
120
120
121
120
121
121
122
122
120
121
121
121
121
121
121
120
121
121
121
122
121
121
121
121
122
122
123
123
122
123
124
124
125
125
125
125
125
127
127
128
128
128
129
128
129
130
130
130
130
129
130
130
130
130
130
130
131
131
131
132
131
132
131
131
132
132
133
133
132
132
133
134
135
135
135
135
135
136
137
138
137
137
137
138
138
139
138
139
138
139
139
140
141
141
141
142
142
142
144
145
145
145
144
146
146
147
147
147
147
147
148
148
149
149
149
149
150
151
152
153
152
153
153
153
154
154
154
155
155
155
155
156
156
156
156
156
155
156
157
157
156
157
156
156
157
157
157
157
157
158
158
158
159
159
158
159
159
159
159
160
160
159
159
158
159
159
159
159
158
158
158
159
159
158
158
158
159
159
159
159
160
159
158
158
159
159
158
158
158
156
156
157
157
156
155
155
155
154
154
153
153
152
151
151
150
150
149
148
147
146
146
145
145
144
143
142
141
142
140
140
139
137
136
135
135
134
133
131
130
129
128
126
125
124
122
121
120
119
118
117
116
113
112
111
111
110
108
106
105
103
102
102
101
100
99
98
97
97
96
96
94
93
92
91
91
91
91
89
88
87
86
86
86
85
84
83
83
83
82
82
81
81
79
79
79
79
79
78
77
77
76
76
77
76
75
75
74
74
74
75
74
73
73
72
73
73
73
73
71
71
71
72
72
71
71
71
71
71
72
72
71
70
70
70
70
70
70
70
69
68
68
68
69
69
68
68
68
68
69
69
69
69
68
69
70
70
70
70
70
70
70
71
70
71
71
70
70
70
71
71
71
71
71
71
70
70
70
70
69
69
69
69
69
69
68
69
69
69
70
69
69
68
69
68
69
69
69
68
68
68
68
69
69
69
68
68
68
69
69
70
69
69
69
69
69
69
69
68
68
68
69
68
68
69
68
68
68
68
68
68
67
67
66
67
67
68
68
67
66
66
67
67
67
67
66
67
67
67
67
68
67
67
67
66
67
67
67
67
66
66
66
66
67
66
65
66
66
66
67
67
66
66
65
65
66
66
65
65
65
65
65
65
65
66
65
65
65
66
66
66
66
66
65
66
66
66
66
66
66
66
66
66
67
67
66
66
66
67
66
66
66
66
65
65
65
65
65
64
63
64
64
64
64
64
63
63
63
63
64
64
64
63
63
63
64
64
64
63
63
63
64
64
64
64
63
63
63
63
63
63
62
62
61
61
61
61
61
60
60
60
60
61
60
60
60
61
60
61
61
62
62
62
61
62
62
62
62
62
62
61
62
62
62
61
61
61
61
61
61
61
61
61
60
60
60
60
60
59
59
58
59
59
58
59
58
58
58
59
59
59
59
59
59
59
60
60
60
60
60
59
60
60
60
61
60
60
60
61
62
62
61
62
62
62
63
63
63
63
63
63
64
64
65
65
65
66
66
66
67
68
68
67
68
68
68
68
68
69
69
69
69
69
69
70
70
69
70
70
69
69
69
68
68
68
68
68
67
68
67
66
67
66
67
67
66
65
66
66
66
66
65
64
64
63
63
63
63
62
62
61
61
61
61
60
60
59
59
59
60
59
59
58
58
58
59
59
59
58
58
58
59
59
59
59
59
58
59
60
60
60
60
60
60
59
60
60
59
59
59
58
59
60
59
59
58
58
57
58
58
57
58
57
56
57
57
57
57
57
57
57
57
57
57
58
58
58
59
58
58
59
59
60
59
60
60
60
61
60
59
60
60
61
60
61
61
61
61
63
61
62
62
62
62
63
63
65
65
64
65
65
67
68
69
70
71
74
76
79
82
85
88
91
96
102
106
113
120
126
132
141
149
158
167
176
185
194
204
214
224
232
240
248
256
263
271
277
281
284
286
288
288
287
284
279
274
267
259
251
241
229
215
201
186
171
155
139
122
104
88
71
55
39
24
8
-6
-19
-30
-40
-48
-57
-63
-69
-73
-74
-75
-75
-75
-73
-70
-67
-61
-55
-50
-43
-37
-30
-23
-15
-8
-2
4
10
16
22
27
33
37
41
45
48
52
55
56
58
60
61
63
64
65
65
66
66
66
67
67
68
68
68
68
68
68
69
70
70
69
70
71
71
72
72
72
72
72
73
74
74
74
74
74
75
75
77
76
77
77
77
78
78
79
79
79
78
79
79
79
80
79
80
79
80
80
81
81
80
80
80
80
81
82
81
81
81
82
81
82
82
81
82
82
82
82
82
82
83
83
83
84
84
84
85
85
84
84
84
86
85
85
85
84
85
85
86
86
86
85
86
86
86
87
87
87
86
86
87
87
88
88
88
88
88
89
89
89
90
89
90
90
91
92
92
92
92
92
93
93
94
94
93
94
94
95
95
95
95
95
95
97
97
98
98
97
97
97
99
99
98
99
98
99
99
100
101
101
101
100
101
101
102
102
103
103
103
103
104
105
106
106
105
105
106
107
107
107
108
108
108
108
109
110
109
109
109
110
110
111
111
111
110
111
111
112
113
114
114
114
114
115
116
117
118
118
118
118
118
120
119
119
119
119
119
121
120
120
120
121
121
122
123
123
123
123
123
124
125
126
126
127
127
128
128
129
130
131
131
132
132
133
134
135
135
134
135
135
136
137
137
137
136
136
137
138
138
138
138
138
137
138
138
138
138
138
138
138
138
138
138
137
137
137
137
137
137
137
136
136
136
136
137
137
137
137
137
137
137
138
138
138
137
137
137
138
137
138
137
137
137
137
137
137
136
135
134
135
134
133
132
132
130
129
129
128
128
127
125
125
124
122
122
122
120
119
118
117
117
116
115
114
113
111
111
110
110
109
108
106
106
105
105
104
103
101
99
99
98
97
96
95
94
93
93
91
91
90
89
87
86
86
86
85
84
82
81
81
80
79
79
77
76
74
74
74
73
72
71
70
70
69
68
69
68
66
66
66
66
67
66
65
64
64
65
64
64
64
64
64
64
64
64
64
64
63
63
63
62
63
63
62
61
61
61
61
62
61
60
60
60
60
61
60
61
60
59
60
59
60
60
59
59
58
59
59
60
59
59
58
58
58
59
59
59
59
58
58
58
58
59
58
58
58
59
58
59
59
58
58
58
58
59
59
59
58
58
58
58
59
59
59
59
59
58
59
59
59
59
59
59
60
60
60
60
59
59
58
60
59
60
58
59
58
59
59
59
59
59
58
58
58
59
60
59
59
58
58
59
59
59
59
57
58
58
58
58
58
57
58
58
58
59
59
59
58
58
58
59
60
59
59
59
59
59
60
59
59
59
58
58
58
58
58
58
57
57
57
58
57
57
57
56
57
56
58
58
58
58
58
58
59
59
60
60
59
59
59
60
59
59
59
58
58
59
58
59
58
57
57
57
57
57
57
56
55
55
55
55
55
54
54
54
53
54
54
54
53
53
53
53
54
55
55
55
54
54
55
56
56
56
55
55
55
55
55
56
56
56
55
55
55
56
55
56
56
55
55
55
55
55
55
55
54
55
55
55
55
55
55
55
55
56
55
55
55
54
55
56
56
56
55
55
54
55
55
56
55
54
55
55
55
56
56
55
55
54
54
55
55
55
54
54
54
54
55
54
54
54
54
55
55
55
56
55
55
55
56
56
57
57
56
56
57
57
57
57
57
57
56
57
58
57
57
57
57
56
57
57
58
58
57
57
57
57
58
58
58
59
59
59
59
60
60
61
61
62
62
62
63
64
63
63
63
64
64
65
65
65
64
65
66
67
67
67
67
67
67
68
69
69
68
69
69
69
70
71
70
70
71
71
71
72
72
72
72
72
72
71
72
72
72
71
71
72
71
72
71
71
70
70
70
70
69
69
68
67
67
66
66
66
65
65
64
64
64
64
63
63
62
63
62
63
63
62
62
62
63
63
63
63
63
62
63
63
64
63
64
64
63
64
64
64
65
64
64
63
64
63
63
64
63
63
63
63
63
63
62
63
62
61
62
62
62
61
61
61
60
62
62
61
60
60
60
61
61
61
60
60
59
60
60
61
61
61
60
61
61
61
61
61
61
60
60
61
62
62
62
62
62
62
62
63
63
63
63
63
63
63
64
64
64
64
64
65
65
66
67
67
68
69
70
73
76
78
80
82
85
89
93
98
103
108
113
121
127
135
143
150
159
167
176
186
195
203
213
221
230
239
248
254
261
266
272
277
280
282
283
283
281
278
274
269
262
253
243
232
220
208
193
179
162
146
130
114
97
80
64
47
30
16
1
-12
-24
-36
-46
-55
-62
-68
-72
-76
-78
-79
-78
-76
-74
-70
-65
-60
-55
-48
-42
-34
-26
-20
-14
-6
1
8
15
20
25
31
35
41
45
49
52
55
57
59
63
64
65
67
68
68
69
70
71
71
71
71
72
72
73
72
73
73
73
73
74
75
75
74
75
74
75
76
76
75
75
76
76
76
76
76
77
76
77
77
76
77
77
78
78
78
78
80
80
80
80
80
80
82
82
83
82
82
83
83
84
84
84
84
84
84
84
84
85
84
84
84
83
84
84
84
84
84
84
85
84
85
85
85
85
84
85
85
86
85
85
85
86
86
87
87
87
87
87
88
89
90
90
90
90
90
91
91
92
91
91
91
92
92
93
93
92
92
92
93
94
94
95
94
94
94
94
95
95
94
94
94
95
95
96
96
97
97
96
97
98
98
99
99
99
99
100
100
100
100
100
100
100
101
101
102
102
102
102
102
103
103
104
103
104
104
104
105
105
104
105
104
105
105
106
107
106
107
106
108
107
109
109
109
109
109
109
111
111
111
111
111
112
113
113
113
113
113
114
114
116
116
116
115
115
115
116
116
116
116
116
116
117
117
118
118
118
118
119
119
120
121
121
121
121
121
123
123
124
124
124
124
124
126
126
127
126
127
128
128
128
129
129
129
129
129
129
130
130
130
130
129
129
130
131
130
130
130
130
131
131
131
132
131
131
131
132
133
133
132
131
132
133
133
134
134
133
133
133
134
134
134
134
134
134
133
134
134
134
134
133
133
133
133
133
132
133
132
131
131
132
131
131
130
129
128
129
128
127
127
126
124
124
124
123
122
122
121
120
121
120
119
119
118
117
117
116
116
114
114
112
112
111
110
109
109
108
107
106
106
106
105
103
101
100
99
98
97
96
94
93
92
91
91
90
89
87
86
86
84
84
84
83
82
80
79
79
79
78
77
75
75
74
74
74
73
72
71
70
70
70
69
68
67
66
65
65
64
64
62
62
61
61
61
61
61
61
60
59
59
60
61
61
61
60
60
60
61
61
61
60
60
60
60
61
61
61
60
60
61
62
62
61
61
60
60
60
60
60
60
59
58
59
59
59
59
58
57
58
58
58
58
57
57
57
57
57
58
57
57
57
57
57
58
58
58
58
57
58
59
59
60
59
59
60
60
60
60
61
60
60
60
60
61
61
61
60
61
60
60
61
60
61
60
59
59
59
59
60
60
59
58
58
59
59
60
59
59
59
59
61
61
60
61
60
60
61
61
61
60
59
60
59
59
60
60
60
59
60
60
61
61
61
60
61
61
62
62
62
62
62
62
62
62
62
63
62
62
62
62
63
62
62
61
61
60
60
60
60
60
59
59
59
60
60
59
59
60
59
59
60
60
60
59
60
60
60
60
60
59
60
59
60
60
60
60
60
60
60
60
60
60
59
59
59
59
58
58
57
57
57
56
56
57
56
56
56
54
54
55
55
56
55
55
54
54
54
55
55
54
53
53
53
54
54
54
53
53
53
53
54
54
54
54
52
52
53
53
53
53
52
51
52
52
53
52
52
52
52
52
52
52
53
52
52
52
52
53
53
53
53
52
53
53
54
54
53
54
54
54
55
54
55
53
53
53
53
53
53
52
51
51
51
51
51
50
50
50
50
50
51
52
51
51
51
52
52
53
54
54
54
54
54
55
57
57
56
57
57
58
58
59
58
58
58
58
58
57
58
58
57
57
57
57
57
58
58
56
57
57
58
58
57
58
58
58
58
58
58
58
58
57
58
59
59
59
59
59
59
60
60
61
61
62
61
62
63
63
63
63
63
63
64
64
64
65
64
65
65
65
65
66
65
64
65
64
65
64
65
63
62
62
62
61
62
61
60
59
59
58
58
57
57
55
55
54
54
53
53
53
52
51
52
52
51
51
51
50
51
51
52
52
51
52
52
51
52
52
52
52
51
50
51
51
51
50
50
50
50
50
50
50
49
49
48
48
48
48
48
47
47
46
46
46
46
46
46
45
46
45
46
46
46
46
46
46
46
47
47
48
46
47
48
48
48
48
48
48
49
49
50
49
49
49
49
49
49
50
50
50
50
49
50
50
51
51
50
51
51
51
52
52
52
52
52
53
54
55
56
57
57
59
62
64
67
69
72
76
79
84
89
94
99
105
111
118
126
133
142
149
158
167
175
185
194
203
212
221
229
237
246
253
258
264
269
273
276
278
279
277
275
272
267
261
255
246
236
224
213
200
187
172
157
140
124
107
91
75
58
42
26
11
-2
-16
-27
-38
-48
-56
-64
-70
-73
-77
-79
-81
-80
-79
-77
-73
-69
-64
-60
-53
-47
-39
-33
-25
-20
-13
-5
2
8
15
20
25
30
34
39
44
47
49
52
55
57
59
61
62
63
64
64
65
66
67
66
66
66
66
67
67
67
67
67
67
67
68
68
68
69
69
69
70
71
72
72
73
73
73
74
75
75
75
75
76
76
77
77
77
77
77
77
78
78
78
78
78
79
79
78
78
79
79
79
79
80
79
80
79
79
79
79
80
81
82
81
81
81
81
82
82
82
82
83
83
83
84
83
83
84
85
84
85
86
86
86
86
85
86
86
86
87
87
87
87
87
87
87
88
87
87
87
87
88
88
87
87
87
87
87
88
87
87
87
87
87
87
88
87
87
87
88
88
89
90
90
89
90
90
92
92
92
92
92
92
93
94
95
95
95
95
96
96
97
97
97
97
97
98
97
98
98
97
98
97
98
98
98
99
99
98
99
100
101
100
100
100
100
101
101
102
102
102
102
103
104
105
105
105
105
107
107
108
109
110
109
109
110
110
112
111
112
111
112
112
113
113
114
114
113
114
114
114
115
115
115
115
116
116
116
117
117
117
117
117
118
119
120
120
120
120
121
122
122
122
122
122
122
123
123
124
123
123
123
124
124
125
125
125
125
125
125
126
127
127
128
127
127
127
128
128
129
128
129
128
129
129
129
129
129
129
129
130
130
130
130
128
129
129
129
129
130
129
129
129
130
130
130
129
129
129
129
130
129
129
130
128
128
129
129
129
128
127
127
126
125
125
125
124
123
123
122
122
123
122
121
119
119
119
119
119
117
117
116
116
116
116
116
115
113
112
113
112
112
111
110
109
109
109
109
108
107
105
104
104
103
103
102
101
101
99
99
98
97
96
96
94
93
93
92
92
91
90
88
87
88
87
87
85
85
84
84
83
83
82
82
80
80
79
79
78
77
76
75
75
75
75
74
73
73
71
72
71
72
70
70
70
69
69
70
69
69
68
67
67
67
68
68
67
67
66
67
67
67
67
67
67
67
67
67
67
67
66
66
65
67
67
67
67
65
66
66
66
66
66
66
65
65
66
65
66
66
65
65
66
66
67
66
67
66
66
67
68
68
69
68
68
68
68
69
69
68
68
68
68
69
69
69
68
68
67
67
68
68
68
68
67
67
68
68
68
67
66
66
67
67
68
68
69
68
68
69
70
71
71
71
71
71
72
73
72
72
72
73
73
72
73
73
72
73
73
72
72
72
71
71
72
72
71
72
72
71
71
71
72
72
71
72
72
73
73
72
72
73
72
72
73
73
73
73
74
73
72
73
72
73
73
73
73
72
72
73
73
73
73
73
72
72
72
72
73
72
72
71
72
72
72
72
72
71
72
72
73
73
72
72
72
72
73
72
72
72
71
71
71
71
71
71
71
70
69
69
70
70
70
70
69
69
69
69
69
68
68
67
68
69
69
69
69
68
68
69
69
71
70
70
70
70
70
70
70
70
70
70
70
70
70
70
70
70
70
71
71
72
72
71
70
71
72
72
72
72
71
71
72
72
72
72
72
71
72
72
72
72
72
71
71
71
71
71
71
70
71
70
70
71
71
71
71
70
70
70
71
72
71
71
71
71
72
72
72
72
72
72
73
73
73
73
74
74
74
74
75
75
76
75
75
76
76
76
77
76
76
75
75
76
76
77
77
76
76
76
77
78
78
77
76
77
78
78
78
78
78
78
78
78
79
79
79
79
78
79
80
80
80
80
79
80
81
81
82
82
82
82
82
83
83
83
84
84
84
85
86
87
87
87
86
86
87
88
88
86
86
85
85
86
85
85
84
83
83
82
82
82
81
80
79
78
78
78
77
77
76
75
75
75
75
76
75
74
74
75
75
76
76
75
76
76
77
77
78
77
77
77
78
78
78
78
78
78
78
78
79
79
78
78
77
77
77
77
76
76
75
74
75
75
75
74
74
74
73
73
74
74
74
73
74
73
73
74
74
74
73
74
74
75
75
75
75
74
74
75
75
76
76
76
76
76
76
77
77
76
76
77
76
78
78
78
78
77
77
78
79
80
80
79
81
81
82
83
84
85
86
88
90
92
95
98
101
104
107
113
118
123
128
133
139
145
153
161
169
177
185
194
203
212
222
231
239
247
256
265
273
280
287
292
297
301
304
307
307
307
305
302
297
293
285
278
268
257
245
233
220
205
190
173
157
141
125
109
93
76
61
45
32
18
7
-5
-16
-24
-33
-39
-44
-47
-50
-51
-51
-51
-48
-45
-41
-38
-32
-27
-19
-13
-6
0
8
14
21
28
36
41
48
53
57
62
65
70
74
76
79
80
83
85
87
87
88
89
89
91
92
92
91
92
91
91
91
91
91
91
91
90
91
91
91
92
91
91
92
92
93
94
94
94
94
95
95
95
96
96
95
96
96
97
98
98
98
98
98
99
99
100
100
100
99
99
100
101
101
101
100
100
100
101
101
101
102
102
101
103
103
104
104
104
104
105
105
106
106
107
106
106
107
107
108
108
109
108
108
109
110
109
109
109
109
109
109
109
110
109
109
108
109
109
110
109
109
109
109
110
111
111
111
111
110
110
111
112
112
112
112
112
112
113
114
114
114
114
114
115
115
115
115
116
116
116
116
117
117
117
117
116
117
118
118
118
118
119
119
119
121
121
121
120
121
120
121
121
122
121
121
121
121
122
123
123
123
122
122
123
123
124
124
124
123
124
125
126
126
125
125
126
126
127
128
128
128
128
129
129
130
130
131
130
131
131
132
132
132
132
131
132
132
132
133
133
133
133
134
134
135
136
135
135
134
135
135
137
137
136
136
137
137
137
138
139
139
140
140
141
142
142
142
142
143
144
145
146
146
146
146
147
147
147
148
149
148
149
149
149
151
150
150
149
149
149
150
149
150
149
149
148
149
148
149
149
148
148
148
148
148
149
148
148
148
148
148
148
148
147
147
147
147
147
147
147
146
146
146
147
147
147
147
146
146
146
145
146
145
145
144
144
143
144
144
142
142
141
140
141
139
139
139
137
136
136
135
134
132
131
130
129
129
128
127
127
125
124
123
124
122
122
121
120
118
118
117
116
115
114
112
111
110
110
110
109
107
106
106
105
104
104
103
101
100
99
98
97
97
95
94
93
92
92
90
89
89
87
87
86
85
85
84
83
82
81
81
81
81
79
79
78
79
79
79
79
79
78
79
79
79
79
79
78
77
78
78
78
77
77
77
76
77
76
77
76
75
75
75
75
75
75
75
74
73
73
73
74
73
73
73
73
72
74
73
73
73
73
73
73
74
73
73
73
72
72
73
73
73
72
72
72
72
73
73
72
72
72
71
73
73
72
73
73
72
72
72
73
73
72
72
72
72
72
73
72
72
72
72
72
72
73
72
71
72
71
73
72
73
72
71
72
72
74
74
74
74
74
74
75
76
76
76
75
76
76
76
77
76
76
75
75
76
76
76
75
75
75
76
76
76
76
76
75
76
75
77
76
76
76
76
75
76
77
76
76
76
76
75
76
76
76
76
74
75
74
74
75
75
74
73
74
74
75
74
75
75
74
75
75
76
76
75
75
75
76
76
75
76
75
74
75
75
75
76
75
75
74
75
74
75
75
75
75
74
75
75
76
75
75
74
74
75
75
75
75
74
75
74
75
75
75
74
74
73
74
74
74
73
73
72
72
71
72
72
71
71
71
71
71
72
72
70
70
70
70
70
70
70
69
70
69
69
69
70
69
69
68
69
69
69
69
69
69
68
69
68
69
68
67
67
67
67
67
67
67
67
66
67
67
67
67
67
67
67
67
68
68
68
67
66
66
66
67
67
67
66
66
66
66
66
65
65
66
66
66
65
65
65
65
65
65
65
65
65
64
63
63
64
64
64
63
63
64
63
64
63
63
63
62
62
63
63
63
63
63
63
64
63
65
65
66
65
65
65
66
67
67
67
67
67
68
68
69
69
69
69
68
69
69
70
70
69
69
69
70
70
70
70
70
70
70
70
71
70
70
70
70
71
71
72
71
70
70
70
70
71
71
71
70
69
69
69
69
69
68
68
67
68
67
68
67
66
65
65
64
64
64
63
62
61
61
60
60
60
59
58
58
58
58
58
57
57
56
56
57
57
57
57
57
57
57
58
58
58
58
58
59
59
59
60
60
59
59
59
59
59
59
58
57
56
57
57
57
56
55
55
54
54
54
54
53
52
52
51
52
52
52
52
51
50
50
50
51
51
50
50
50
50
51
52
52
52
51
51
52
52
52
53
52
52
52
53
53
53
53
53
53
53
53
54
54
54
54
54
54
55
55
55
55
55
56
57
59
59
61
62
63
66
68
71
73
76
80
84
89
95
100
106
112
118
126
134
143
151
160
168
177
188
197
207
215
224
232
240
248
256
264
269
273
277
280
282
282
282
280
277
272
266
259
251
241
229
217
204
190
174
159
142
125
109
92
76
60
44
27
11
-3
-16
-27
-38
-48
-56
-65
-70
-73
-77
-78
-79
-79
-77
-74
-70
-65
-60
-56
-49
-43
-36
-29
-21
-15
-9
-2
5
11
17
22
27
31
36
39
43
48
50
53
55
56
58
60
61
63
63
64
64
65
64
65
65
65
65
66
66
66
66
66
66
66
67
67
68
67
68
68
69
68
69
69
69
69
69
70
70
71
71
71
71
71
72
73
73
73
73
73
74
74
74
74
75
74
75
75
76
77
76
76
76
76
78
77
78
78
78
78
78
78
79
79
78
77
78
78
79
79
80
79
79
79
79
80
81
81
80
80
81
81
82
82
82
81
81
81
82
82
83
82
82
82
83
83
84
84
84
84
84
85
85
85
86
86
85
86
87
87
88
87
88
88
88
89
90
89
89
89
89
90
90
90
90
90
89
89
89
90
90
90
90
90
90
90
92
91
91
91
91
92
92
93
92
93
93
94
94
95
95
95
95
95
96
97
97
97
97
97
98
98
99
99
99
99
100
100
101
102
102
102
102
102
103
103
104
104
104
103
104
104
105
105
105
105
105
106
106
107
107
107
108
108
109
111
111
112
112
112
113
114
115
116
116
115
115
116
117
118
118
118
118
119
119
120
120
121
121
120
121
122
123
123
123
123
124
123
125
125
125
125
125
125
125
126
126
127
126
126
126
127
127
128
127
127
127
127
128
129
129
129
128
129
129
130
131
131
130
129
130
131
130
131
130
130
130
130
130
131
130
130
130
130
130
131
131
130
130
130
130
130
130
130
130
129
129
129
128
129
128
129
127
127
127
127
127
126
126
126
124
125
125
124
123
122
122
121
120
119
118
118
116
115
115
113
113
112
110
109
108
107
106
105
104
103
101
100
100
99
98
98
97
96
95
95
94
92
90
90
89
88
88
87
85
84
83
81
81
80
79
77
76
75
75
74
73
72
71
70
69
68
68
67
66
65
64
63
63
64
63
61
61
61
61
61
