# Simple Text Format
# Sampling Rate (Hz):= 1200.00
# Resolution:= 12
# Labels:= ECG	 V1
# Age:=	57
# Gender:=	Feminino
381
380
380
380
380
380
380
380
379
379
379
380
380
379
380
379
379
379
380
380
380
380
379
379
379
380
380
379
379
379
379
380
380
380
379
379
379
379
380
380
379
380
380
381
382
384
385
386
388
389
392
394
396
398
400
403
405
407
410
411
413
414
415
414
415
414
413
410
408
404
401
397
392
385
379
372
365
358
351
344
335
328
320
313
306
300
294
289
283
279
275
273
271
269
267
267
266
266
267
267
269
269
271
273
274
277
279
281
283
285
286
289
291
293
295
297
299
302
304
307
308
310
312
315
317
320
323
325
327
331
334
338
340
344
346
349
351
354
358
360
362
363
365
367
368
370
371
372
373
373
374
374
374
375
374
374
374
375
375
375
375
375
374
375
375
375
375
376
375
375
376
377
378
378
378
378
379
379
379
380
380
380
379
380
380
380
381
381
380
380
380
380
381
381
380
379
379
380
380
380
379
377
377
376
377
376
376
375
374
373
373
372
372
371
371
370
369
369
369
368
367
366
366
366
365
365
365
364
364
364
364
365
365
364
363
363
363
363
363
363
363
361
362
362
363
363
362
362
363
363
363
364
364
364
364
363
364
364
365
365
364
365
364
364
364
365
365
365
364
364
365
365
365
366
365
366
366
367
367
368
368
368
368
369
369
370
370
371
371
371
372
372
373
372
372
372
372
373
373
373
372
371
371
370
371
370
370
369
368
368
367
368
368
367
367
366
366
366
367
367
367
367
367
368
368
370
370
371
370
371
372
373
373
374
374
373
374
375
376
376
376
375
376
376
376
375
375
375
375
375
375
375
375
374
374
373
372
373
373
372
371
372
371
371
372
371
371
370
369
369
370
370
370
369
369
369
369
369
368
368
368
367
367
366
367
367
366
365
365
365
365
365
365
365
364
363
363
363
363
362
361
361
360
360
359
359
358
357
357
357
356
356
356
354
353
353
353
353
353
352
352
351
350
350
350
350
349
349
349
349
349
349
349
348
348
348
348
348
348
348
348
347
346
347
347
347
346
345
344
344
344
344
343
343
343
342
342
341
342
341
340
340
339
340
340
340
340
339
339
339
339
339
339
339
338
338
338
339
338
338
338
337
337
337
337
336
337
336
336
336
335
336
336
336
335
335
335
336
336
336
336
335
335
335
336
336
336
335
335
336
336
336
337
336
336
336
337
338
338
338
338
338
338
337
339
338
339
338
338
339
340
340
340
341
340
340
342
341
343
342
343
344
344
345
346
347
348
348
349
349
351
351
353
353
352
353
354
354
355
356
356
355
355
356
355
355
355
354
353
353
353
354
353
353
352
352
351
351
352
352
351
350
349
349
350
350
349
349
349
348
349
349
349
349
348
348
348
348
349
348
348
347
347
347
348
348
348
348
347
349
348
349
350
350
349
350
350
351
351
351
351
350
351
351
353
352
353
352
352
352
353
353
353
353
352
353
353
353
354
354
354
353
353
353
354
354
354
353
353
353
353
354
354
354
352
353
352
352
353
352
352
351
351
351
351
352
351
351
351
350
351
352
351
351
351
350
350
350
351
350
350
350
349
349
349
350
349
349
349
349
349
349
350
350
349
349
349
349
349
349
348
348
348
349
348
348
348
348
348
347
349
349
349
349
349
349
349
351
351
350
350
351
352
352
353
353
354
353
354
355
355
355
356
355
355
355
355
355
355
355
354
354
354
354
354
354
353
353
352
352
353
353
352
353
352
352
353
353
353
353
353
353
353
353
354
354
353
353
353
353
353
354
353
353
353
353
353
353
353
353
352
352
352
352
353
352
351
351
351
351
351
351
351
350
350
350
350
350
350
350
349
349
350
350
350
351
351
350
350
351
352
352
353
353
353
353
353
354
355
354
354
354
354
354
355
355
354
354
354
354
355
355
356
354
354
354
355
355
356
356
355
355
355
356
357
356
356
355
355
355
356
356
355
355
354
355
354
354
354
353
352
353
352
352
352
353
352
352
351
352
352
352
352
351
351
350
351
351
351
350
350
349
349
349
349
348
347
347
347
346
346
346
346
345
344
345
344
345
344
344
343
343
343
343
343
343
342
343
342
343
343
343
343
342
342
341
342
342
343
342
342
341
342
343
343
343
343
342
343
344
344
345
345
346
345
346
347
347
348
348
349
349
349
350
351
351
351
351
352
352
352
354
354
354
353
353
353
355
354
355
354
354
354
354
355
356
355
355
355
355
355
356
355
355
355
355
355
355
356
356
356
355
355
357
357
357
357
357
357
357
358
358
358
358
358
358
360
360
360
359
360
359
359
360
360
360
360
359
360
360
361
361
362
362
363
363
364
365
366
367
368
368
370
372
374
376
378
379
381
384
386
388
389
390
391
392
393
393
393
392
389
387
384
382
378
373
368
362
356
349
344
337
330
322
314
308
301
295
289
284
278
274
270
267
265
262
261
259
260
259
260
262
263
264
265
268
270
273
276
279
280
282
285
287
290
292
295
296
298
301
304
307
309
311
313
315
317
320
322
324
327
328
331
333
336
338
340
342
344
346
349
352
353
354
356
357
358
361
362
362
363
362
364
364
365
365
365
365
365
365
366
366
365
365
365
365
365
365
365
365
365
364
365
365
365
365
365
365
365
365
366
368
368
367
367
367
368
369
369
368
368
368
368
369
370
370
369
369
369
370
371
372
372
371
371
372
371
373
372
372
372
372
373
373
373
373
373
372
372
372
373
373
372
372
372
372
372
371
371
371
370
370
370
370
371
370
369
369
369
370
370
371
371
371
371
371
372
372
372
372
372
372
372
373
374
374
374
373
373
373
374
374
373
373
372
373
373
374
374
373
372
372
373
374
373
373
372
372
373
373
373
374
374
373
373
373
374
374
374
374
373
373
373
373
374
373
373
372
373
373
374
374
374
374
373
373
374
374
374
375
374
374
374
374
375
374
374
373
374
375
376
376
377
375
375
375
376
377
377
376
375
376
375
375
376
376
376
375
374
375
375
376
375
374
374
374
375
375
374
374
374
373
373
374
374
374
374
373
374
374
374
373
373
373
372
372
372
372
371
370
370
370
370
369
370
370
368
368
367
368
368
368
368
367
366
367
366
366
367
366
365
365
365
365
365
365
364
364
364
364
364
364
363
363
362
362
363
362
362
361
360
360
360
359
359
359
358
358
357
357
358
357
357
357
357
357
356
357
356
356
355
355
355
355
355
354
354
353
353
354
354
354
354
353
352
351
352
352
351
351
350
350
350
350
350
349
349
349
349
349
349
350
349
349
349
349
349
350
350
349
348
349
349
349
350
350
350
350
351
351
351
352
352
352
352
351
352
353
353
353
353
353
353
354
354
355
354
355
354
355
356
356
356
356
356
357
357
357
357
357
358
358
358
358
358
358
359
359
359
360
360
360
360
361
361
361
361
362
362
361
362
362
362
363
363
363
363
363
363
364
365
365
366
366
366
367
367
369
369
369
369
370
370
371
371
372
371
372
371
373
373
374
374
374
374
375
375
375
376
376
376
376
377
378
378
379
379
379
380
381
381
382
381
381
381
381
382
382
382
381
380
380
381
380
381
380
379
379
379
379
380
380
379
379
378
379
379
379
379
378
378
378
379
380
381
380
380
380
381
382
383
383
383
383
384
384
384
385
384
384
384
384
384
384
384
383
383
382
382
382
381
381
381
380
380
380
379
380
379
379
378
378
378
378
379
378
377
377
377
377
378
378
378
378
377
378
378
378
379
378
377
378
378
378
379
378
378
379
378
379
379
379
379
378
378
377
379
378
378
377
377
376
376
377
377
376
376
375
376
376
377
377
377
376
377
376
377
377
377
376
376
377
377
377
378
377
377
377
377
378
378
378
377
376
377
376
376
377
376
376
375
375
376
376
376
375
375
375
375
376
376
376
376
376
375
375
375
376
375
375
375
375
375
375
375
375
375
374
375
375
376
375
375
375
375
376
376
376
376
377
376
376
376
377
377
377
377
377
378
378
378
378
378
377
377
378
378
378
377
378
377
377
378
378
378
378
378
378
379
379
380
381
381
381
381
382
382
383
384
383
384
384
385
385
386
386
386
386
386
387
387
387
387
387
388
388
388
389
388
388
388
389
389
390
391
390
390
390
391
391
391
392
392
391
391
392
392
392
391
391
390
391
391
391
391
390
389
389
390
390
389
389
389
388
388
388
388
388
387
387
386
386
385
386
385
384
383
383
382
383
383
382
382
381
380
379
380
380
379
378
378
377
377
378
377
377
377
376
376
377
377
376
376
376
375
375
375
375
375
374
373
374
374
374
374
374
373
373
373
375
374
375
375
375
376
376
377
377
378
378
378
380
380
381
382
383
382
383
385
385
386
387
387
386
387
387
387
388
388
388
387
387
387
387
387
387
386
386
386
387
387
387
387
386
386
386
387
387
387
387
386
386
386
387
387
386
386
385
385
386
387
386
386
385
385
385
386
385
386
385
385
386
386
387
387
386
386
386
387
387
389
388
388
388
388
389
389
389
389
388
388
389
389
390
391
391
392
394
395
397
399
401
402
403
406
408
411
414
416
418
420
422
424
426
428
428
429
429
428
427
426
423
419
415
410
406
400
394
386
378
371
363
356
349
342
333
325
319
312
306
300
295
290
285
282
280
278
277
275
274
274
274
274
276
277
279
280
282
285
288
291
293
295
297
300
303
306
308
310
313
315
318
321
325
327
329
332
335
338
341
345
347
350
353
356
358
362
365
368
370
372
375
378
380
382
383
384
386
387
388
390
390
391
391
392
393
394
393
394
393
394
395
394
396
396
396
395
395
397
397
398
397
397
397
397
397
399
399
399
399
398
399
399
400
401
400
400
401
401
402
403
403
402
403
403
404
404
404
404
404
404
404
405
405
405
405
405
405
405
406
406
407
406
405
406
407
407
407
407
406
407
406
406
407
407
407
406
406
408
407
409
408
409
409
409
410
411
411
411
411
411
412
413
413
413
414
413
413
414
415
415
415
414
414
415
415
415
415
415
414
413
413
413
414
413
413
413
413
414
414
414
415
414
413
414
415
415
415
415
415
415
416
416
417
418
417
418
418
418
419
419
420
420
418
419
419
419
420
418
418
418
418
418
418
417
417
416
416
416
417
417
416
416
416
416
416
415
416
416
415
415
415
415
415
416
414
414
414
415
416
416
416
415
415
415
415
416
416
416
415
416
415
416
417
416
416
416
415
416
417
417
417
416
416
415
416
415
416
414
414
413
413
413
413
413
411
411
411
411
411
411
410
409
409
408
409
408
408
408
407
407
407
406
406
406
406
405
405
405
405
406
405
405
404
403
404
404
403
403
402
402
402
402
402
401
401
401
400
400
400
400
399
398
398
398
397
398
397
396
395
395
395
394
394
393
393
392
391
392
391
391
391
390
389
389
389
390
389
389
388
388
387
388
388
388
387
387
387
387
387
387
386
386
385
385
385
385
384
384
383
383
382
382
383
382
381
381
381
381
382
381
381
381
380
380
380
381
381
381
380
381
380
380
381
381
381
381
381
381
381
382
382
381
381
381
382
382
382
382
382
382
382
382
383
383
382
382
382
383
383
384
383
384
383
384
385
385
385
385
385
385
386
386
386
387
386
386
387
387
387
388
387
387
387
388
387
387
387
387
386
386
387
387
387
387
387
386
386
386
387
387
386
386
386
386
387
386
387
386
386
386
386
387
386
387
386
386
387
387
388
388
388
388
388
389
389
390
390
389
389
389
389
390
390
389
389
389
389
389
389
390
389
389
389
389
389
389
389
390
389
388
389
390
390
390
390
389
390
390
390
390
391
390
390
390
390
391
390
391
390
390
390
390
391
391
390
391
391
391
392
392
392
392
392
392
393
394
394
393
392
392
393
393
394
394
394
394
395
395
396
396
396
396
396
397
397
398
398
399
398
398
399
400
400
400
400
399
400
400
401
401
400
400
400
399
400
400
399
399
399
398
398
398
398
398
396
396
396
396
397
397
396
396
395
396
396
396
395
395
394
394
394
394
395
394
394
394
395
394
395
396
395
395
395
396
397
398
398
398
398
399
400
400
401
401
401
401
402
402
403
403
403
402
402
403
403
403
402
402
401
401
401
402
402
402
401
402
402
402
402
403
402
401
402
402
402
402
402
402
401
401
401
401
401
400
400
399
399
400
400
400
399
399
398
398
398
398
398
397
397
396
397
397
397
396
396
395
396
396
397
397
396
396
396
396
397
396
397
396
396
396
396
397
398
397
397
397
398
399
399
400
400
399
399
400
401
401
401
400
400
400
401
400
401
401
401
401
401
402
402
403
402
403
402
403
404
404
404
404
404
404
404
405
405
405
404
404
404
405
404
404
404
403
402
402
402
402
401
401
399
399
399
400
400
399
399
399
398
399
399
399
398
398
398
398
398
398
398
397
396
396
396
396
396
395
395
395
394
396
395
395
395
394
394
394
394
394
394
393
393
393
393
393
393
392
391
390
390
390
390
389
389
388
386
386
387
386
386
385
384
384
384
385
384
384
384
384
384
385
385
385
385
385
385
386
386
387
387
387
387
387
388
388
389
388
389
389
389
390
390
390
390
391
391
392
392
393
394
393
394
394
395
397
397
397
398
398
399
400
400
401
401
402
401
403
402
403
403
403
403
403
403
403
403
404
404
404
404
405
405
405
404
404
405
405
405
405
406
405
406
405
405
406
406
406
406
406
406
407
407
407
406
406
406
406
406
406
406
405
404
404
404
405
404
403
402
402
402
403
403
403
402
402
402
402
404
403
404
403
404
405
405
407
408
409
411
413
414
416
418
421
423
425
427
430
432
435
437
439
440
442
443
445
445
445
443
443
441
438
435
432
426
421
415
408
402
395
387
378
369
360
352
345
337
328
320
313
306
300
294
290
284
280
277
275
272
271
270
268
268
269
270
271
273
274
276
278
280
283
287
288
291
295
297
301
304
307
311
313
317
320
323
327
331
334
337
340
344
348
351
354
357
359
362
366
369
372
373
375
377
379
380
382
384
385
386
386
388
389
389
390
390
390
390
391
391
391
391
391
390
390
391
390
390
390
389
389
390
390
391
390
390
389
389
390
390
391
390
390
390
389
390
391
391
391
390
390
390
391
391
391
391
391
391
391
390
390
390
389
389
390
389
390
389
388
388
388
388
388
387
388
387
386
386
387
387
387
387
386
385
385
386
386
386
386
385
385
385
386
386
386
386
385
385
386
386
386
385
385
384
385
385
386
386
386
386
386
386
387
387
386
386
386
387
388
388
387
388
388
388
388
388
389
390
389
389
389
389
390
391
390
390
390
390
390
389
389
389
389
388
388
389
389
388
388
388
388
388
389
389
389
389
389
389
390
391
391
390
390
390
391
391
392
392
392
392
391
392
392
393
393
392
392
392
393
393
394
392
393
392
392
393
393
393
393
392
393
393
394
393
394
393
393
393
394
393
393
393
392
392
392
393
393
392
393
391
392
391
391
392
392
391
390
390
391
391
391
390
390
390
390
390
390
390
389
389
388
388
389
389
389
388
387
387
387
388
387
387
386
385
385
385
385
385
384
384
383
383
383
383
382
382
381
381
380
380
380
379
378
377
377
377
377
376
375
375
374
374
374
374
374
373
373
372
373
373
373
372
372
372
372
373
373
372
372
372
372
372
372
373
372
371
371
371
371
371
370
370
369
369
369
369
369
370
370
368
368
368
369
370
369
369
369
369
370
370
370
369
369
368
369
369
370
369
368
368
368
369
369
369
368
368
368
368
368
369
368
368
368
367
368
368
369
369
369
369
369
370
371
371
371
370
370
371
371
372
372
372
372
372
371
372
373
372
372
373
373
373
374
374
374
373
373
374
374
374
375
374
373
373
374
374
375
374
374
374
374
374
375
375
375
375
374
375
375
375
375
375
375
375
376
376
377
377
377
377
377
378
379
380
379
380
379
380
381
381
381
382
381
381
383
382
384
383
383
383
383
383
384
384
384
383
383
383
383
383
383
383
382
382
382
382
383
382
381
382
382
382
383
383
383
382
383
383
384
384
384
384
384
384
385
386
386
386
386
386
386
387
386
387
386
386
386
385
386
386
386
385
384
385
384
384
385
385
385
384
386
386
386
387
387
387
386
387
387
388
387
387
387
387
388
387
388
388
388
387
388
388
388
388
388
387
387
387
387
387
386
386
386
385
386
386
385
385
384
385
385
384
386
385
385
385
385
385
385
385
386
385
385
385
384
385
386
385
385
385
385
385
386
386
386
385
385
386
386
386
386
386
385
386
385
386
386
385
385
385
385
385
385
385
384
384
384
384
383
384
383
383
382
382
382
382
382
382
383
382
382
383
383
384
384
384
384
383
384
385
385
385
385
385
386
386
386
386
386
386
387
387
387
387
387
387
387
388
388
388
388
387
387
387
386
387
388
387
387
387
387
387
387
387
387
386
387
386
386
387
387
387
386
386
386
387
387
387
387
386
387
387
388
389
388
388
388
389
389
389
390
389
389
389
389
389
390
389
389
389
389
389
390
389
389
388
388
388
388
388
388
387
387
387
387
388
388
387
387
386
387
387
388
387
387
387
387
388
388
388
388
387
387
387
387
388
388
388
388
387
387
388
388
387
386
386
386
386
386
386
386
385
384
384
385
384
385
385
385
385
386
386
386
387
387
387
386
387
388
389
388
388
387
388
388
388
388
388
387
388
388
388
387
388
387
386
385
386
385
385
385
384
384
384
383
384
384
383
383
383
383
382
383
383
382
382
382
381
381
381
381
379
378
379
378
378
377
376
375
375
374
375
375
374
374
373
373
373
373
373
372
372
371
372
372
372
373
373
372
372
372
373
374
374
374
373
373
374
374
375
374
374
374
374
374
376
375
376
375
376
376
377
378
378
379
378
379
379
380
381
380
380
380
381
380
381
381
381
381
381
381
382
382
382
382
382
382
382
383
383
383
383
383
383
383
384
384
384
384
384
384
385
385
385
385
385
385
385
386
386
386
385
385
385
385
386
386
386
385
385
387
387
388
387
388
387
388
388
389
389
388
389
389
389
389
390
389
389
389
389
390
390
391
391
392
392
392
393
393
395
395
397
398
399
402
404
406
408
410
412
415
418
420
423
424
426
428
430
431
431
431
430
428
427
425
422
418
413
408
401
395
389
383
375
367
359
350
343
335
327
319
312
304
297
292
287
282
277
273
270
268
267
266
264
263
263
264
264
266
268
270
272
274
277
279
282
285
288
291
294
297
301
305
308
311
313
317
321
324
328
331
334
337
342
345
349
352
354
357
360
364
367
370
372
375
377
379
381
383
385
386
386
387
389
389
390
391
391
391
392
392
393
393
393
393
392
392
393
394
394
394
394
393
394
393
395
394
395
394
394
395
396
396
396
396
397
397
397
398
398
398
398
398
398
398
399
398
398
398
398
398
398
398
398
397
397
397
397
397
397
397
397
396
397
397
397
397
397
397
397
397
398
398
398
398
397
398
398
399
399
398
397
397
398
398
398
397
397
397
397
397
397
397
398
396
396
396
396
396
396
395
395
395
394
394
395
395
395
394
394
395
396
396
396
396
395
396
397
397
397
397
397
397
397
397
398
399
399
398
399
399
399
400
400
399
398
399
399
399
399
399
399
398
398
399
399
399
398
398
398
398
398
399
398
398
398
398
398
399
399
399
398
398
398
398
399
398
398
398
398
398
398
399
398
398
398
397
398
398
398
397
397
397
397
397
397
398
396
396
396
396
396
397
397
396
396
396
397
397
397
396
395
395
395
395
395
396
395
395
395
395
395
395
395
395
394
394
394
394
394
394
394
393
393
394
393
393
393
393
393
393
393
393
392
392
391
391
390
391
390
389
389
387
387
388
387
387
386
386
385
385
385
385
385
384
383
383
383
384
383
382
381
381
381
381
382
381
381
380
381
381
380
381
381
380
379
380
380
379
380
379
378
378
378
378
378
378
378
376
376
377
377
376
376
376
374
374
374
375
374
373
373
372
372
372
372
372
371
370
370
371
371
372
371
371
370
370
370
371
371
370
370
370
370
369
370
370
370
369
369
369
369
369
369
368
368
368
368
368
368
367
368
367
367
367
367
367
368
367
367
367
368
368
369
368
369
368
369
369
371
370
370
370
370
371
371
372
371
371
372
372
372
374
373
373
373
372
373
373
374
373
373
372
372
374
374
374
373
373
373
374
374
374
375
374
374
374
375
376
375
375
375
375
375
376
376
376
375
376
376
376
377
377
377
377
377
377
377
377
378
378
377
377
378
378
378
378
378
378
378
378
379
379
378
378
378
379
379
378
378
378
378
377
378
378
378
377
377
377
378
377
378
378
378
378
377
378
378
378
378
378
378
378
378
379
379
378
379
378
379
379
380
380
379
380
379
380
381
382
382
383
383
384
386
387
388
389
390
391
392
394
395
397
398
399
400
401
403
404
405
405
405
406
406
408
408
408
408
409
409
409
410
410
410
410
410
410
410
411
411
410
410
410
410
411
411
410
411
410
411
410
411
411
411
410
410
410
410
410
410
409
409
409
409
410
410
410
409
410
409
410
410
410
410
409
409
410
410
410
409
409
409
408
408
409
409
408
408
408
409
409
409
409
410
408
409
408
409
409
410
409
409
408
408
409
409
408
408
407
407
407
407
407
406
406
405
406
406
405
405
404
404
404
404
404
405
405
404
405
404
405
405
406
406
405
405
406
406
405
405
406
405
405
405
405
405
405
405
404
404
405
405
405
405
405
404
405
405
405
405
405
405
405
405
406
405
405
405
405
406
406
407
406
406
405
406
406
407
407
406
406
406
406
407
407
406
406
406
406
406
406
407
407
406
406
406
406
406
406
406
406
406
406
406
407
406
406
406
406
406
406
408
407
406
406
407
407
407
407
407
406
406
406
406
406
406
405
405
405
405
406
406
405
405
405
405
404
404
405
405
404
404
404
404
405
405
404
404
404
404
405
406
406
406
405
405
405
405
405
405
405
404
404
404
404
404
404
403
403
403
403
404
403
402
402
401
402
402
402
402
401
401
401
401
401
401
401
401
400
400
401
401
401
401
401
401
400
401
401
401
400
399
398
399
398
398
396
395
395
394
394
395
394
394
392
392
393
392
392
393
392
392
393
392
393
393
393
393
393
393
394
395
395
395
394
394
394
395
394
394
394
393
393
394
395
396
396
395
395
396
396
397
398
398
398
399
399
399
400
400
400
399
400
400
401
401
401
401
401
401
402
403
403
403
402
403
403
404
404
404
404
404
405
404
405
405
406
405
405
406
406
407
406
406
405
405
406
406
406
405
405
404
405
405
405
405
405
405
405
405
405
406
406
405
406
405
406
405
405
405
405
405
405
405
406
405
405
405
405
405
406
406
406
406
406
407
407
409
411
411
412
413
415
416
419
420
422
423
425
428
432
433
436
437
439
441
443
444
444
445
444
444
442
441
439
436
433
428
423
418
413
407
400
393
385
377
370
362
355
348
340
332
326
321
315
309
305
301
297
295
293
290
289
288
288
287
288
289
290
291
292
294
296
298
301
303
305
308
310
313
317
320
322
326
328
332
336
339
342
346
348
351
355
358
362
365
367
370
373
377
379
382
384
386
389
390
393
394
396
397
397
398
399
400
401
402
402
402
402
403
404
404
404
404
404
403
404
405
405
405
404
405
405
405
406
406
406
406
407
406
407
408
408
408
408
408
408
409
409
409
408
408
407
408
408
408
407
407
407
407
407
408
407
407
407
407
407
406
406
406
406
405
406
406
406
407
406
406
406
406
407
407
407
408
408
407
409
409
409
408
409
408
408
408
409
408
409
407
408
407
408
407
407
407
406
406
407
406
406
406
406
406
406
406
407
406
407
406
406
406
407
407
407
407
406
406
406
405
406
405
404
404
404
404
405
405
405
404
404
405
405
406
405
405
405
405
406
407
407
407
406
405
405
405
405
405
404
404
402
402
403
402
401
401
400
399
399
398
398
398
397
396
396
395
394
394
393
392
391
391
391
390
390
389
388
387
387
387
387
386
386
385
385
385
386
385
384
383
383
384
384
383
383
382
382
381
382
381
381
381
380
379
378
379
378
379
378
378
377
377
377
376
376
375
374
374
375
374
373
372
371
371
370
370
370
370
369
368
367
368
367
367
367
366
365
366
365
365
365
364
363
363
363
362
362
362
361
361
360
360
359
359
358
357
356
355
355
355
354
354
352
352
351
351
351
351
349
349
348
348
347
347
346
346
345
344
344
344
343
342
341
341
340
340
340
340
340
339
338
338
338
339
337
337
336
336
336
336
335
334
333
333
333
332
333
332
331
330
329
330
330
330
330
330
328
329
329
329
328
328
328
327
328
328
329
328
328
327
327
328
327
328
327
326
326
326
326
326
326
325
325
324
324
325
325
324
324
324
324
324
325
326
326
325
326
326
327
327
327
328
327
328
328
328
328
329
329
329
329
329
330
330
330
330
330
330
330
330
330
330
330
329
330
330
329
330
329
329
329
329
330
331
330
330
329
330
330
331
331
331
330
330
331
331
332
332
332
332
332
332
333
333
334
332
333
333
333
333
333
332
332
331
332
333
332
333
331
332
331
331
332
332
331
331
331
330
332
331
330
330
330
330
330
330
330
330
329
330
330
330
330
329
329
328
328
328
328
328
328
327
326
327
326
327
327
327
326
326
326
326
327
327
326
326
326
326
326
327
327
325
325
325
324
325
325
326
325
324
324
325
325
325
325
324
324
323
324
325
324
324
323
323
323
324
324
323
322
322
323
323
323
323
323
322
322
321
322
322
322
322
322
322
322
322
321
322
321
322
321
322
322
322
322
321
321
320
320
320
320
320
319
318
319
319
318
318
318
317
317
317
317
317
317
316
316
316
316
316
316
315
315
315
315
315
315
315
314
314
314
314
314
314
314
314
313
312
313
314
313
312
312
311
312
312
312
311
311
311
311
312
312
312
311
311
310
311
311
311
310
310
309
309
309
310
309
309
309
309
308
308
308
308
308
308
307
306
306
307
307
305
305
305
305
306
305
304
304
304
304
304
305
305
303
304
303
303
303
303
304
303
302
302
303
303
303
302
302
302
302
303
303
303
303
302
301
302
301
302
302
301
300
300
301
301
301
301
300
300
299
301
300
300
300
299
299
300
300
300
300
299
299
299
299
299
299
298
298
298
297
298
298
298
297
297
296
297
297
297
296
296
296
296
296
296
296
296
296
296
296
297
298
297
298
297
296
297
297
297
297
296
295
295
295
295
295
294
293
293
293
293
293
292
292
291
291
291
292
292
292
291
291
291
291
291
291
291
290
291
290
290
291
291
290
289
289
288
288
288
287
286
285
285
284
284
283
283
282
281
281
281
282
281
280
280
280
280
279
280
280
278
278
278
278
278
278
278
277
277
277
278
279
278
279
278
278
278
279
279
279
279
278
278
279
280
280
280
281
281
281
282
283
283
283
284
283
285
285
285
286
286
286
286
287
287
288
288
287
287
289
288
290
289
288
288
288
288
288
289
288
287
287
287
287
287
288
287
286
286
286
287
287
286
286
285
285
286
286
286
285
285
284
284
285
284
284
285
283
284
284
285
285
285
285
285
285
284
285
285
284
284
284
284
285
285
285
285
285
286
286
287
288
289
289
289
291
293
294
296
297
299
300
302
305
307
309
311
313
314
316
317
319
320
320
320
319
319
317
315
312
309
304
299
294
289
283
276
268
262
255
248
242
235
228
221
216
211
206
202
199
196
193
192
190
190
190
190
190
191
193
194
196
198
199
201
203
206
208
210
210
211
213
214
217
219
220
221
223
225
227
230
231
234
235
237
240
242
245
247
249
251
253
255
258
261
263
265
267
269
270
273
274
276
278
279
280
281
282
283
283
283
284
284
285
286
286
286
287
287
287
288
288
288
288
288
289
289
289
290
289
289
289
290
290
291
290
290
290
290
290
291
291
291
291
291
291
291
291
291
291
291
291
291
292
292
291
291
291
291
292
292
292
293
291
291
291
291
291
291
291
291
291
290
290
291
291
291
289
290
290
290
291
291
291
290
291
292
292
292
292
292
291
292
292
292
292
292
292
292
292
293
292
293
291
291
291
292
292
291
291
291
290
290
291
291
292
291
290
290
290
292
292
291
291
291
292
292
292
292
292
291
291
291
292
291
291
291
290
290
291
292
292
291
290
290
290
291
291
291
290
290
289
289
290
290
290
290
289
289
289
290
290
290
290
290
290
290
291
292
291
291
292
292
292
293
293
293
293
293
294
294
294
294
294
292
293
293
293
294
293
292
291
292
292
293
292
291
291
291
292
292
292
293
292
291
291
292
291
292
292
291
290
290
290
291
290
290
290
289
289
290
291
290
290
289
289
290
290
290
290
289
289
289
290
289
290
289
289
288
288
288
288
288
287
286
287
286
286
286
285
285
284
283
284
284
284
282
282
282
283
283
282
282
281
281
281
281
281
281
280
280
279
279
279
279
278
277
277
276
277
276
276
276
275
274
274
274
274
274
274
272
272
272
272
272
271
271
271
271
271
272
271
272
271
271
270
271
271
271
271
271
271
270
271
271
271
270
270
270
270
271
270
271
270
269
269
269
270
270
269
269
269
268
269
269
270
269
269
269
270
270
270
270
271
270
271
271
271
272
271
271
271
271
271
272
272
271
272
271
272
273
273
273
273
273
273
274
275
274
275
275
275
276
276
277
277
278
277
278
279
280
280
281
281
281
282
282
283
282
283
283
283
282
284
284
284
283
283
283
284
284
285
284
284
284
283
284
284
284
284
284
283
283
284
283
283
283
283
283
284
284
284
285
284
284
283
284
284
284
283
283
284
284
284
285
284
284
283
283
284
284
285
284
284
284
284
284
284
284
284
283
284
283
284
284
284
284
283
284
284
284
284
285
284
284
284
284
284
284
284
284
284
285
285
285
285
285
284
284
284
285
285
285
284
284
284
284
284
284
283
283
283
282
283
283
283
282
282
283
283
284
283
283
283
283
283
284
284
283
283
283
282
283
283
283
283
283
282
282
282
282
282
281
281
280
281
281
281
281
280
281
280
280
281
281
281
281
281
281
282
283
283
283
283
282
283
283
283
283
283
281
281
282
282
283
282
282
282
282
282
283
282
283
282
282
282
283
283
283
283
283
283
283
284
284
283
283
284
283
283
285
285
283
283
283
284
284
283
283
283
283
283
283
284
283
284
283
283
284
284
284
285
285
285
285
285
286
287
286
285
285
286
286
286
286
287
287
286
287
287
288
288
287
287
287
286
287
287
287
287
286
286
287
287
287
286
285
286
286
286
287
287
286
286
286
285
286
287
286
286
285
285
286
286
286
287
286
286
286
286
286
286
286
285
285
286
286
286
285
285
285
285
285
285
285
284
284
284
284
285
285
285
286
285
286
285
287
286
287
287
286
286
287
287
287
288
288
287
287
288
289
288
288
287
287
287
287
287
286
285
286
285
285
285
285
285
284
283
284
284
284
284
283
282
283
283
282
282
282
282
281
282
282
281
281
281
281
281
282
282
282
282
282
281
281
281
281
281
281
280
279
279
280
279
278
278
277
275
275
275
275
275
274
274
273
273
274
273
273
272
271
271
272
272
272
272
272
272
272
272
273
272
272
272
272
272
272
272
272
272
271
271
272
272
273
273
273
273
274
274
275
276
275
276
277
278
280
280
280
281
281
282
283
283
284
284
285
285
286
287
287
288
288
288
288
288
289
290
289
288
289
288
289
289
290
289
290
290
290
291
291
291
291
291
291
291
292
292
291
292
292
291
292
293
292
292
292
292
291
292
293
292
292
291
292
292
292
293
292
292
292
292
293
293
293
294
295
295
296
297
298
299
299
300
301
302
303
304
306
306
307
309
311
313
314
316
317
320
321
324
326
328
330
331
334
335
337
339
340
340
340
341
341
340
338
336
333
329
325
322
317
311
304
298
291
284
278
271
264
256
249
242
236
230
224
219
214
210
206
204
203
201
199
197
197
197
198
199
199
200
201
203
205
207
209
210
212
213
216
218
220
223
225
226
228
231
234
236
238
240
242
245
248
251
254
256
259
262
265
268
271
274
276
278
281
284
286
289
290
291
292
294
295
296
297
297
297
298
298
299
299
299
300
299
299
299
300
300
299
299
299
300
300
300
300
301
300
300
301
302
302
302
302
302
302
302
303
303
302
303
302
302
302
303
303
303
303
303
303
303
302
303
302
303
302
303
304
304
304
304
304
304
305
305
306
306
306
306
307
307
308
307
308
308
307
307
307
307
307
306
306
305
306
305
305
304
303
303
304
303
304
304
304
304
303
303
304
304
304
303
303
304
304
304
304
304
303
302
303
303
303
303
303
302
302
302
302
302
301
302
301
301
301
302
302
301
301
302
302
302
303
303
302
302
302
302
302
303
303
302
302
302
302
301
302
302
301
301
301
302
302
301
301
301
301
302
303
304
303
303
304
305
306
307
308
309
310
311
312
313
315
316
316
317
318
320
321
322
323
324
324
324
325
327
327
327
328
327
327
329
328
329
328
328
327
328
328
328
328
326
327
326
326
326
326
325
325
324
324
324
324
324
323
323
322
322
321
321
320
319
317
317
316
317
316
315
314
313
313
312
312
311
310
309
308
309
309
308
307
307
307
306
306
306
306
306
306
306
307
307
308
309
309
309
309
310
310
311
311
311
312
312
313
313
312
312
312
312
312
313
312
312
311
311
310
310
309
309
309
308
308
307
307
307
307
307
306
307
307
308
308
307
307
307
307
307
306
306
306
305
305
303
303
303
302
301
299
300
299
299
297
297
296
295
294
294
294
293
292
292
292
291
291
290
290
290
289
290
290
289
288
289
287
287
287
287
286
286
286
286
285
285
286
286
286
285
284
285
285
285
286
286
286
286
286
286
286
286
287
286
286
286
286
287
287
286
287
287
287
288
288
287
287
287
288
288
289
289
288
287
288
287
288
288
288
287
286
286
287
287
287
287
286
286
285
286
287
286
286
285
286
285
286
285
285
285
285
285
285
286
286
286
286
285
285
286
287
287
286
285
286
286
286
286
286
286
286
286
286
287
286
286
285
285
285
284
284
284
284
283
283
283
284
284
284
283
283
283
284
284
284
284
283
283
284
284
284
284
284
284
283
284
284
285
284
284
283
283
284
284
283
283
283
282
283
282
283
282
282
282
281
281
281
282
282
281
281
281
281
281
282
282
281
281
281
282
281
281
281
280
280
280
280
281
280
279
279
279
280
279
279
279
279
277
277
278
277
278
277
276
275
276
275
276
275
275
274
274
274
274
275
274
274
273
273
273
274
274
273
273
273
273
273
273
274
273
272
272
273
273
273
273
272
272
272
272
273
272
272
272
271
272
271
271
272
271
271
271
271
271
271
271
271
271
270
270
271
271
270
270
270
269
270
270
269
269
269
269
269
270
269
269
269
269
268
268
269
269
268
268
267
268
268
268
268
268
268
268
269
269
269
269
269
268
268
269
269
269
268
268
268
268
268
269
268
268
267
268
268
268
268
267
266
267
266
266
266
266
265
265
264
265
265
265
265
265
264
264
265
265
265
265
264
264
264
265
265
264
264
263
263
263
263
263
263
262
262
262
262
263
262
262
262
262
261
262
262
262
262
262
260
261
262
262
262
262
262
262
262
263
263
262
262
263
262
263
263
263
263
261
262
261
262
262
261
261
260
260
260
260
260
259
259
259
258
259
259
258
257
257
257
257
258
257
258
258
257
258
258
258
258
258
258
258
259
258
258
258
257
257
256
257
257
257
256
255
255
255
255
255
254
254
254
253
254
254
255
254
254
254
254
254
254
255
254
254
253
254
254
254
254
252
252
252
251
251
251
249
249
248
247
248
247
247
247
246
246
246
245
245
245
245
244
244
244
244
244
244
244
243
244
244
245
245
244
245
244
246
246
247
247
247
247
247
248
249
249
249
250
249
249
250
251
251
251
250
250
252
252
252
253
252
253
252
252
253
253
253
253
253
253
254
254
255
254
254
254
255
255
256
256
256
256
255
256
256
256
256
256
255
255
255
256
256
256
255
255
255
256
256
256
256
256
256
255
256
257
256
255
255
255
255
255
255
255
255
254
255
255
255
255
255
255
255
256
257
257
257
257
258
259
260
262
263
265
266
267
270
273
275
277
279
281
284
286
289
291
293
294
296
297
298
298
298
298
295
293
290
287
283
278
273
267
260
253
246
239
231
223
214
207
199
192
184
177
170
164
158
153
149
145
142
139
136
135
133
133
132
132
132
133
134
136
139
140
142
144
147
150
154
157
159
162
166
170
174
177
181
184
188
190
195
199
202
206
209
212
216
220
224
227
230
233
235
238
240
243
245
247
248
250
252
254
254
256
256
257
258
260
261
261
260
261
262
262
263
264
264
264
264
264
265
265
266
267
266
267
268
268
270
270
270
269
270
270
272
272
272
272
272
273
273
274
274
275
274
274
275
275
276
275
275
276
276
276
277
277
278
277
277
278
278
279
279
279
280
280
281
281
282
282
282
282
282
282
283
283
283
282
282
282
282
283
283
282
281
281
282
281
282
281
280
280
279
280
280
280
280
280
280
280
281
281
282
282
281
281
282
282
284
284
284
284
284
285
285
285
285
284
284
284
284
283
283
283
282
282
282
282
282
282
281
281
281
282
281
282
282
281
281
282
282
283
283
283
282
282
283
283
283
283
283
284
283
283
284
284
284
283
283
283
283
283
283
283
283
283
283
284
284
284
284
284
284
285
285
285
285
284
284
284
285
285
285
284
284
284
283
284
285
284
284
283
283
283
284
283
283
282
283
283
283
284
284
284
285
285
285
287
287
288
288
287
289
289
290
290
291
290
291
291
291
292
292
292
291
291
292
292
292
291
291
290
289
289
289
288
288
286
286
285
285
284
283
282
281
280
280
280
280
278
278
277
277
277
276
276
276
276
275
275
275
276
276
275
276
275
275
276
277
277
276
276
276
276
276
276
276
275
274
274
275
274
273
272
272
272
271
271
270
270
269
268
267
267
267
266
265
265
263
263
263
263
262
262
261
261
261
261
260
260
259
259
259
259
259
259
258
258
258
259
259
259
259
260
259
260
262
262
263
263
263
263
263
264
265
265
265
265
264
264
263
263
263
262
262
261
261
262
261
261
259
259
258
260
260
260
259
258
258
258
259
259
260
261
261
261
262
262
264
263
264
263
264
265
265
266
265
264
264
264
264
265
265
264
264
264
264
264
265
264
264
264
264
264
265
265
265
264
265
265
265
266
266
265
265
265
265
265
265
264
264
264
263
263
263
263
263
261
261
261
261
260
260
259
259
259
259
259
259
258
258
257
257
257
257
257
257
256
255
255
255
256
256
255
255
255
255
256
256
256
256
255
256
257
258
258
258
257
258
257
259
258
259
259
259
258
258
260
259
260
260
260
260
260
259
259
259
259
258
259
259
259
259
258
258
259
259
259
259
258
258
258
257
258
258
258
258
257
256
256
257
257
257
256
256
255
255
255
256
255
254
254
254
254
254
254
253
253
253
254
253
253
254
253
253
253
253
253
254
253
253
252
252
252
253
253
251
251
250
250
250
250
250
249
248
248
248
248
248
247
247
246
245
246
246
245
245
244
244
244
244
244
244
242
242
242
242
243
243
242
242
241
241
242
241
241
241
240
240
241
240
241
241
240
240
241
241
241
241
241
241
241
241
242
242
242
242
242
242
242
242
242
242
242
242
242
242
242
242
242
241
240
240
240
240
239
239
238
238
238
237
237
237
236
236
236
235
236
235
235
234
234
234
234
234
234
233
233
232
233
233
232
232
231
231
231
230
230
231
229
229
228
227
228
227
228
226
226
225
226
226
225
225
225
225
225
225
225
226
225
225
225
225
225
226
225
225
225
225
225
225
226
225
225
225
226
226
226
227
227
227
226
227
227
228
228
228
227
227
228
228
228
229
228
228
227
228
228
229
228
228
227
228
227
228
227
227
226
225
225
226
225
225
225
223
223
224
224
223
223
223
222
222
222
222
222
221
220
221
221
221
221
222
221
222
221
222
223
223
224
223
224
224
225
226
226
226
227
227
228
228
228
229
229
228
229
228
228
227
227
226
225
225
225
224
222
222
221
220
219
219
218
218
217
216
216
216
216
216
215
215
214
214
215
215
215
214
214
214
214
214
215
215
215
214
215
215
216
216
217
216
216
216
218
218
218
217
218
218
219
220
220
220
221
221
222
223
224
224
224
225
225
225
226
226
226
226
227
226
228
228
228
228
228
228
228
228
229
228
229
228
228
229
229
229
229
229
229
229
229
229
230
230
229
229
230
230
230
231
231
230
230
230
231
231
230
230
229
229
229
230
229
229
230
229
229
230
230
230
230
230
230
230
231
232
232
231
231
232
233
234
235
236
236
238
240
241
244
246
247
249
252
255
258
261
264
266
268
271
274
275
278
279
279
278
278
278
277
273
270
265
261
256
251
245
237
229
221
213
206
198
189
180
172
164
156
150
144
138
131
127
122
119
116
114
112
110
109
109
109
110
111
112
113
115
117
121
124
126
130
132
135
140
143
148
151
154
158
161
166
170
173
178
181
185
189
193
197
200
204
207
210
213
217
220
222
225
226
229
231
233
234
235
236
237
239
240
241
241
242
242
242
242
243
243
244
244
244
244
244
245
245
245
244
245
245
246
247
246
246
246
246
247
247
248
247
247
247
248
248
249
249
249
250
250
250
250
251
251
251
250
251
251
251
251
251
251
250
251
251
252
252
251
251
251
251
251
252
252
251
251
252
251
252
252
251
251
251
251
251
251
251
251
251
250
251
251
251
252
251
250
250
250
251
250
250
250
249
249
249
250
249
249
248
249
249
248
249
249
249
248
248
249
249
249
250
249
249
249
249
249
249
250
249
249
249
249
250
250
250
249
249
250
250
250
250
249
249
249
249
249
249
249
249
249
250
250
251
251
250
250
250
251
251
251
251
251
251
251
251
252
252
252
251
252
252
252
252
252
252
252
251
251
252
252
252
250
250
250
250
250
250
250
249
249
248
248
249
248
247
247
247
247
247
247
246
245
245
245
245
245
246
246
245
244
245
245
245
246
245
245
244
244
245
243
243
242
242
241
242
241
241
240
240
239
240
240
240
240
239
238
239
239
239
239
238
239
238
238
238
238
239
237
238
237
238
238
238
238
236
236
235
236
236
236
235
234
233
233
234
233
233
232
232
231
231
231
231
230
230
229
228
229
228
227
226
226
225
225
224
225
224
223
223
222
222
223
222
222
222
221
221
221
221
221
221
220
220
220
220
220
221
219
219
220
220
220
221
220
219
219
220
220
220
220
220
220
219
220
220
221
222
221
221
222
221
222
224
223
223
222
223
223
223
224
223
223
222
223
223
223
223
223
222
223
223
224
224
224
224
223
224
224
225
224
225
224
224
225
225
226
226
227
226
226
227
228
228
228
228
228
228
229
229
229
229
228
228
228
228
228
228
228
228
228
228
228
229
229
228
228
229
229
230
229
229
229
228
229
229
229
229
230
229
230
230
230
230
231
230
230
230
229
230
230
228
228
227
227
227
228
227
226
225
225
225
225
225
225
225
223
224
223
224
223
223
222
222
222
222
222
222
221
221
221
221
221
222
222
222
221
221
221
222
222
222
222
221
222
222
223
223
223
222
222
222
223
224
223
223
223
223
223
223
223
223
222
222
221
222
222
222
221
221
221
221
221
221
222
220
220
219
220
220
220
219
220
219
219
219
220
219
219
219
219
219
219
220
219
219
218
217
218
218
218
218
217
217
217
217
217
217
216
216
217
217
218
217
218
217
217
217
217
218
218
218
217
217
217
217
217
216
216
216
215
215
215
215
214
214
214
214
215
215
215
215
214
214
214
216
216
217
217
217
217
219
218
219
220
219
219
219
220
219
219
219
218
218
218
217
218
217
216
216
215
215
216
216
215
214
215
215
215
216
215
215
216
215
216
217
217
217
218
218
218
219
220
220
220
220
220
220
221
221
222
221
220
221
220
220
221
221
221
220
220
221
221
221
222
221
221
221
221
220
220
220
220
219
219
219
219
218
218
217
217
217
217
217
216
216
215
215
216
216
216
216
216
215
216
216
217
217
216
217
217
218
218
218
218
218
217
218
219
218
218
218
218
217
217
218
218
217
217
217
218
218
218
218
218
218
218
218
219
220
220
219
219
220
220
220
220
220
221
220
221
221
221
221
221
221
220
220
220
220
220
220
219
218
218
219
219
218
218
218
217
218
219
219
219
218
219
219
219
220
220
220
219
220
220
220
221
221
220
220
220
221
221
221
220
220
219
220
220
221
221
219
220
219
219
219
219
219
218
218
218
218
219
218
217
217
216
216
215
215
216
215
214
214
214
213
214
213
213
212
212
212
212
212
212
211
210
211
211
211
212
211
212
211
212
213
213
213
213
213
214
215
216
216
216
217
217
218
219
219
220
220
220
221
221
222
222
223
223
223
223
224
224
225
225
225
225
225
225
225
226
226
226
226
226
227
227
227
227
227
227
228
229
228
228
229
228
228
230
230
230
230
230
230
231
231
231
231
231
231
231
232
233
233
233
233
233
234
234
234
234
234
234
234
234
236
235
235
235
236
235
236
236
236
236
236
236
236
236
237
236
236
236
236
236
237
237
238
238
239
239
240
242
245
246
247
248
250
253
255
257
260
261
263
266
268
270
272
273
274
275
275
276
275
274
272
269
266
263
259
254
248
242
236
229
222
215
208
200
192
184
178
171
163
157
150
144
139
135
130
128
124
121
119
117
116
116
116
116
115
117
118
120
122
123
126
127
130
133
136
139
141
144
148
151
154
158
162
165
168
172
175
179
183
186
189
193
196
199
203
205
208
211
212
216
218
220
222
223
224
226
229
230
230
232
232
233
233
234
236
236
236
236
237
237
238
238
238
238
238
238
239
240
240
239
239
239
240
240
240
239
239
239
239
239
239
239
239
238
239
238
239
240
240
241
241
241
241
243
244
243
243
243
244
245
246
247
246
246
247
247
248
249
249
249
248
248
249
249
250
249
249
249
248
249
249
249
249
249
248
249
249
249
249
249
249
248
249
249
250
249
249
249
249
249
250
250
250
250
250
251
252
252
252
252
252
252
253
253
254
253
253
253
253
253
254
254
253
253
253
253
254
254
254
253
253
253
252
254
253
253
253
253
253
254
255
256
256
257
257
259
260
261
262
263
264
264
266
266
267
268
267
267
268
269
268
269
269
269
268
267
268
267
268
266
266
265
264
265
264
263
263
262
261
261
262
262
261
261
260
260
260
261
261
260
260
260
260
261
261
260
260
260
260
260
260
260
260
260
260
260
261
260
260
259
259
259
259
258
258
258
257
257
257
257
257
257
256
256
256
256
256
256
256
256
256
256
256
256
257
257
256
255
255
256
256
257
256
255
256
255
255
256
255
254
254
254
253
254
253
253
252
251
250
250
250
249
249
248
247
247
247
247
247
246
245
244
245
245
245
243
242
243
242
242
243
242
241
241
240
241
241
241
240
240
240
239
240
239
239
239
238
238
238
237
237
237
237
236
235
235
235
235
235
234
233
233
233
232
232
232
231
230
230
231
231
231
231
230
230
232
232
232
233
233
233
233
234
234
234
235
235
235
235
236
237
237
237
237
237
238
239
239
239
239
239
239
240
240
241
241
241
242
243
244
245
246
246
247
248
249
251
252
254
254
255
255
257
258
259
259
259
260
260
261
262
261
262
261
261
261
262
261
261
260
260
259
259
258
258
257
258
257
257
257
257
257
257
256
255
256
256
257
257
257
257
257
257
258
259
258
258
258
259
258
260
259
260
259
260
260
261
261
261
261
260
260
260
260
260
260
259
258
258
258
259
259
259
258
259
259
260
260
260
261
261
262
262
264
264
265
266
267
268
269
271
272
273
272
274
275
276
276
276
276
276
277
277
277
277
276
275
275
275
275
275
274
273
273
272
272
273
272
273
272
271
271
271
271
271
271
270
268
268
268
267
267
266
265
264
264
264
263
262
262
260
259
260
259
258
257
256
255
254
254
254
253
253
252
252
252
252
252
252
251
251
251
251
251
251
251
250
250
250
250
249
250
249
248
248
249
249
248
248
247
246
246
245
245
245
244
244
244
244
244
243
243
243
243
243
243
244
244
244
244
244
244
244
245
245
245
246
245
246
247
247
247
248
249
249
250
251
252
253
254
255
256
256
257
258
259
259
259
260
262
262
262
262
261
261
261
261
261
260
260
258
258
258
258
258
257
257
257
257
258
258
259
259
260
261
262
263
264
266
267
267
267
269
270
270
271
271
270
271
272
273
273
273
272
272
272
272
272
273
271
271
271
271
271
272
272
272
271
272
273
274
274
273
274
275
275
276
277
278
277
278
279
280
280
281
281
281
282
282
282
284
283
284
284
284
285
287
288
288
288
288
289
290
291
292
292
293
292
293
294
296
296
296
297
296
298
298
299
299
299
299
299
299
299
299
299
299
298
299
298
299
300
299
298
299
299
299
300
299
300
300
299
299
300
300
299
300
299
299
300
301
300
300
300
300
300
301
302
301
302
302
302
303
303
303
303
302
301
302
302
302
302
301
301
301
300
300
300
299
298
299
298
299
298
299
297
297
297
297
297
298
298
297
297
297
297
298
298
299
298
298
298
298
299
299
299
299
299
300
301
300
301
301
301
302
302
304
305
304
305
306
306
307
308
308
309
308
308
309
310
311
311
311
312
312
313
314
315
315
316
315
315
317
317
318
318
318
318
318
319
319
320
319
319
320
320
321
321
321
322
322
323
323
324
324
325
324
324
325
325
325
326
326
326
327
327
328
328
327
327
328
328
328
329
329
329
329
328
328
329
330
330
329
329
330
330
331
331
331
332
332
333
333
335
335
336
336
337
339
340
343
344
345
347
349
352
355
357
359
361
363
366
368
369
372
372
372
373
372
372
371
369
366
363
359
355
351
345
338
332
326
318
311
305
298
290
283
276
270
264
260
255
251
246
244
242
241
240
240
239
238
239
240
241
243
245
245
248
250
252
255
257
259
261
263
265
268
270
272
273
276
278
280
283
286
287
289
292
294
298
300
303
304
307
310
313
315
318
321
322
325
327
329
332
334
335
336
338
340
341
342
343
344
344
344
346
347
348
347
347
347
347
347
348
348
348
347
347
347
348
348
348
348
349
348
349
349
350
350
351
351
351
351
352
352
352
352
352
352
352
353
353
353
352
352
353
353
353
353
353
353
353
353
353
354
353
352
353
353
353
353
352
352
352
352
352
353
354
353
353
352
353
353
353
353
353
353
353
353
354
354
353
354
354
354
354
355
356
355
355
355
356
356
356
357
356
356
356
356
356
357
357
356
356
356
356
356
356
355
355
355
355
355
355
354
354
354
353
353
353
354
353
353
353
353
353
354
354
355
354
354
354
356
356
355
355
355
355
356
356
357
357
356
356
356
357
358
358
357
357
357
357
356
357
357
356
356
355
356
356
356
356
356
355
356
356
356
356
356
355
355
356
356
357
357
356
356
357
357
357
357
357
357
358
358
359
359
360
359
359
359
359
360
359
359
359
359
358
358
359
358
358
358
357
357
357
358
357
357
356
356
356
356
356
356
355
355
354
355
355
355
355
354
354
354
355
354
354
354
353
353
353
353
353
352
352
351
351
351
351
351
351
350
350
349
350
350
350
350
349
348
348
348
348
348
347
347
346
347
346
346
345
345
344
344
344
344
344
343
342
342
342
341
341
341
340
340
339
340
340
340
339
339
338
339
339
338
338
339
337
337
337
337
337
337
336
335
335
334
334
334
333
332
332
332
332
333
332
332
330
331
331
331
331
330
330
330
330
330
331
331
331
330
330
331
331
331
332
331
331
331
332
333
333
333
332
332
332
332
333
333
332
333
332
332
334
334
334
334
334
334
334
335
336
336
336
335
336
337
337
338
337
337
338
339
339
339
340
340
339
339
340
340
340
340
340
340
340
341
341
341
340
341
340
341
341
343
342
342
342
342
342
343
343
343
343
342
343
343
344
345
344
345
344
345
345
346
346
347
346
346
347
347
347
348
347
347
347
348
348
349
349
348
349
349
350
350
350
350
350
350
350
350
351
351
350
350
351
350
352
351
352
351
351
351
352
353
353
352
352
352
352
353
353
352
352
352
352
353
353
353
352
352
352
352
352
352
352
352
351
351
352
352
352
351
351
351
351
351
351
351
352
351
351
352
353
353
353
354
353
353
353
355
354
354
354
354
354
353
354
354
353
353
353
352
352
352
352
351
351
351
351
351
351
350
350
350
350
350
350
351
350
350
350
350
351
351
351
351
351
351
352
352
353
352
352
352
351
352
352
352
353
352
352
353
353
353
353
354
353
353
353
353
354
353
353
353
353
354
354
354
354
353
353
353
354
354
354
353
353
353
354
354
354
354
353
353
353
353
353
353
353
353
352
353
353
354
354
354
353
353
353
354
353
353
353
352
353
353
354
353
353
353
353
353
354
355
354
354
354
354
355
355
355
355
354
354
355
355
355
355
355
355
355
355
355
356
356
355
354
354
356
356
356
355
354
355
355
355
355
355
355
354
355
355
355
355
356
355
355
355
355
355
356
354
355
354
354
355
355
355
355
354
354
354
355
356
355
355
355
355
356
356
356
356
356
356
356
357
357
357
357
357
357
357
358
358
358
358
358
358
359
359
359
358
359
357
358
359
358
359
359
358
358
358
359
359
359
358
357
358
358
358
358
358
357
357
357
357
357
357
356
356
355
356
356
356
356
356
355
355
355
355
355
355
354
354
354
354
354
353
354
353
352
352
352
353
352
351
351
350
350
350
350
349
349
347
347
348
347
346
346
345
345
345
345
345
344
344
344
343
344
344
344
345
344
344
344
345
346
347
347
347
348
349
350
351
352
351
352
353
354
355
356
355
356
356
357
357
358
358
358
359
359
359
360
360
360
361
360
360
361
361
361
361
360
360
361
361
362
361
361
361
361
361
362
362
362
362
363
362
362
363
363
363
363
363
364
364
364
364
364
363
363
364
365
365
365
365
366
365
365
366
366
366
365
365
365
366
366
366
365
364
364
365
365
366
366
365
366
366
366
367
368
369
369
370
372
373
376
377
379
380
382
385
388
390
392
393
395
396
399
400
402
402
402
402
401
400
399
397
393
389
385
381
376
371
365
358
351
345
338
331
323
317
310
303
296
292
286
282
278
275
271
270
269
268
267
266
267
267
269
270
271
272
274
276
278
281
283
285
286
289
290
292
294
297
298
300
302
304
306
309
310
312
314
316
319
321
324
327
330
331
335
337
341
343
346
349
350
353
355
358
360
360
362
363
365
366
367
367
368
368
368
370
371
372
371
371
371
371
371
371
371
371
371
370
371
371
371
372
370
370
370
371
371
372
372
371
372
372
372
372
373
373
372
373
372
373
374
374
373
374
374
374
374
375
374
374
373
373
374
374
374
374
374
373
373
373
373
373
373
373
372
373
372
373
372
372
372
372
372
373
373
373
372
372
372
372
373
373
373
372
372
373
373
373
372
372
372
372
371
371
372
371
371
370
370
371
371
370
370
370
371
371
371
372
372
372
371
371
371
372
372
372
372
371
371
372
373
372
372
372
371
371
371
372
371
371
371
371
371
372
372
372
371
371
371
372
372
372
372
372
372
372
374
374
374
373
373
373
374
373
374
373
372
372
372
372
373
372
372
370
370
371
371
371
371
370
369
369
370
370
370
369
368
368
369
369
369
369
369
369
369
369
369
369
369
369
368
368
368
369
368
368
367
367
367
367
367
366
366
366
366
366
366
366
365
364
363
363
363
364
363
363
362
362
362
361
362
362
362
361
361
362
362
362
361
361
361
361
361
362
361
360
360
360
360
359
359
359
358
358
358
357
358
357
357
356
355
354
354
353
354
353
352
351
351
350
350
350
349
348
348
347
347
347
346
346
346
346
345
346
345
344
343
343
344
343
343
343
342
342
342
343
343
343
342
342
341
341
341
341
341
340
340
340
339
339
339
338
338
337
336
337
336
337
337
335
335
335
335
335
334
334
333
333
334
334
333
334
333
333
333
334
334
334
334
334
333
334
334
334
334
335
334
334
334
334
335
335
334
334
335
335
336
337
336
335
336
336
336
336
337
336
336
336
336
337
337
337
337
336
337
336
337
338
337
337
337
337
338
338
338
338
338
338
339
340
340
340
341
341
342
343
343
343
344
343
343
343
344
344
344
344
344
343
344
344
344
344
343
343
343
344
344
344
344
344
343
343
343
344
344
344
344
344
343
345
345
344
345
345
344
345
346
345
346
346
345
345
346
346
347
346
346
347
346
347
347
346
346
346
345
346
347
346
346
346
346
345
345
346
345
344
344
344
344
344
345
344
344
344
343
344
344
344
343
343
344
343
344
344
345
343
343
344
344
345
345
346
345
345
345
346
346
347
347
346
346
346
346
346
345
345
344
344
344
344
344
343
342
342
343
343
343
343
342
341
341
341
342
342
341
341
341
340
341
342
341
341
341
341
340
341
341
341
341
340
340
340
340
340
340
340
339
339
339
340
339
340
340
339
340
339
340
340
339
339
339
340
340
339
340
340
339
339
339
339
340
339
339
339
339
339
340
340
340
340
339
340
340
341
340
340
340
339
340
340
340
341
340
340
340
340
340
340
340
340
339
340
340
340
339
339
339
338
338
339
339
338
338
338
339
338
339
339
339
339
339
339
339
339
339
339
339
339
339
339
340
339
339
339
339
340
340
340
339
339
339
339
339
339
338
338
337
337
337
337
337
337
337
336
337
337
337
337
337
337
337
336
337
337
337
337
336
336
336
337
337
337
337
336
336
337
337
336
336
336
336
336
336
337
336
336
336
336
336
336
337
336
335
335
336
336
337
336
336
336
335
336
336
336
335
335
334
335
335
335
335
335
335
335
334
336
336
336
336
336
335
336
336
336
336
335
335
336
335
336
335
335
335
334
334
334
334
334
333
333
332
332
332
332
332
331
331
331
330
331
330
330
329
329
329
329
329
328
327
326
326
326
326
326
325
324
324
323
323
323
322
322
322
321
322
321
322
322
321
321
321
321
321
321
321
321
320
321
320
321
321
321
320
321
321
321
322
322
322
321
322
323
323
324
324
324
324
325
326
326
327
327
328
328
329
329
330
331
330
331
331
331
332
332
332
332
331
332
332
332
332
331
332
331
331
332
332
331
331
331
331
331
331
332
332
331
331
331
331
332
332
332
332
332
332
332
333
333
333
332
332
333
333
333
334
334
333
333
333
333
333
334
333
333
333
333
334
334
334
334
334
334
334
334
334
334
333
334
335
337
338
338
339
340
342
343
346
347
348
351
353
355
359
361
363
365
367
370
372
373
375
376
376
376
376
375
374
371
368
364
360
355
350
345
338
330
322
315
307
300
292
284
276
268
262
254
248
242
236
231
227
224
220
218
216
214
213
212
213
214
215
215
217
218
220
224
226
228
232
233
237
241
243
247
250
253
256
260
264
267
271
274
277
281
285
288
292
295
298
301
305
307
311
313
316
318
320
322
325
327
329
330
331
332
333
335
336
337
338
338
338
339
339
340
339
340
339
340
340
340
340
340
340
340
340
341
342
341
341
341
341
341
342
341
341
341
341
341
342
342
342
342
341
342
342
343
343
343
343
342
343
343
343
343
343
343
343
343
343
344
344
344
344
344
345
345
346
345
345
345
345
345
345
346
345
344
344
344
345
345
346
345
344
344
344
345
346
345
345
345
345
344
345
345
345
344
344
343
344
344
344
343
343
343
344
344
345
344
344
344
344
344
344
345
345
344
344
344
345
345
346
345
345
345
345
345
346
346
345
345
345
346
345
345
345
345
344
344
343
344
344
343
343
343
343
343
344
344
343
343
343
343
343
343
342
343
342
343
343
343
343
343
343
343
344
344
344
343
343
343
344
344
344
345
345
344
345
344
345
346
346
345
346
346
346
346
347
347
346
345
345
345
346
346
346
345
345
345
345
345
344
344
344
343
344
345
345
345
344
344
345
344
345
345
345
344
343
343
344
344
343
343
343
343
343
343
343
343
342
341
341
342
341
341
341
340
340
339
340
339
339
338
338
337
336
336
336
336
335
334
333
334
333
334
332
332
331
331
331
331
331
330
329
329
328
329
329
328
327
326
326
326
325
326
324
323
323
323
322
323
322
322
320
320
320
321
320
320
319
319
319
319
319
318
318
317
317
317
316
317
316
316
315
315
314
315
315
314
315
314
313
314
314
314
313
313
313
313
312
312
312
311
310
310
311
310
311
311
310
309
310
309
309
310
310
310
309
309
310
310
311
311
311
311
312
313
313
313
312
312
313
314
314
314
314
314
313
313
314
314
314
313
313
313
314
314
314
314
314
314
313
313
314
314
314
314
314
313
313
315
315
314
314
315
315
315
