# Simple Text Format
# Sampling Rate (Hz):= 1200.00
# Resolution:= 12
# Labels:= ECG	 V6
# Age:=	57
# Gender:=	Feminino
379
378
377
377
377
378
378
378
377
377
377
379
379
378
379
378
378
379
380
380
380
380
379
379
380
381
381
380
380
380
380
381
381
381
380
380
380
379
380
380
378
378
377
376
376
376
375
374
374
374
375
375
376
376
377
379
382
385
389
394
399
405
412
420
431
441
452
464
478
492
508
526
542
559
577
594
612
630
646
662
677
690
702
713
722
729
733
735
735
732
728
722
713
703
690
676
661
645
628
610
592
572
554
536
517
500
483
467
452
438
425
413
403
393
385
378
371
367
362
360
356
354
352
353
353
353
355
355
356
359
360
363
365
366
367
369
370
371
373
374
374
374
375
376
376
377
376
376
376
375
375
375
375
374
373
373
372
372
372
372
371
370
369
370
370
369
369
369
368
368
368
369
370
369
369
369
369
369
369
369
369
369
369
369
369
369
370
370
369
369
369
370
371
370
370
369
370
371
371
371
371
370
370
370
371
371
371
370
370
370
371
371
371
371
371
370
370
371
371
371
370
370
370
370
370
371
370
370
370
370
371
371
371
371
370
371
370
371
371
371
371
369
370
371
371
371
370
370
371
371
371
372
372
371
372
371
372
372
373
373
371
372
371
372
372
373
373
373
372
372
372
373
373
373
372
373
373
373
373
373
373
373
373
373
374
374
374
374
374
374
375
375
376
376
376
376
376
377
377
378
377
376
376
376
377
376
376
376
375
375
375
376
376
375
376
375
375
375
376
375
375
375
376
376
377
378
378
378
377
378
379
379
379
380
380
379
380
381
382
382
381
381
382
382
383
382
383
383
383
384
384
385
386
385
386
385
385
386
387
387
387
387
387
388
389
389
390
390
389
390
391
392
393
392
392
393
394
394
395
395
395
395
397
397
398
399
399
399
400
400
402
403
404
404
404
405
406
407
408
408
408
409
409
410
410
411
411
412
412
413
413
414
414
414
414
414
415
415
416
416
416
416
416
416
418
418
418
418
419
419
420
421
421
422
422
422
423
424
425
426
426
426
426
427
427
428
428
428
427
428
429
429
429
429
428
427
428
428
428
428
427
426
426
427
427
426
426
425
425
425
425
425
425
424
424
423
424
424
423
423
422
421
420
420
420
419
419
417
417
416
416
416
414
414
412
411
411
410
409
408
407
406
405
404
404
403
402
400
399
399
398
398
397
396
395
394
394
393
393
392
391
390
389
388
388
387
386
385
384
384
384
384
383
383
381
380
381
380
380
379
378
378
377
377
377
377
376
375
375
374
375
374
374
373
372
372
372
372
372
372
371
370
370
370
370
370
369
369
368
368
368
368
368
367
367
367
366
367
367
367
366
366
365
366
367
367
366
366
366
366
367
367
368
368
367
367
367
367
368
368
367
366
367
367
367
368
367
367
366
367
367
367
367
367
366
366
366
366
366
366
365
364
364
364
365
364
365
363
364
363
365
365
365
365
364
365
365
365
366
365
365
364
364
365
366
365
366
365
364
364
365
366
366
366
365
366
366
366
366
365
366
366
366
367
367
368
367
367
368
368
368
369
369
369
369
369
369
369
370
369
369
369
368
368
369
369
368
369
369
369
369
370
370
370
369
369
369
369
369
368
368
367
367
368
367
367
367
366
366
366
367
367
367
367
367
367
367
368
368
367
367
367
368
367
369
368
368
367
368
368
368
368
368
367
367
367
366
366
367
366
366
365
365
365
366
366
365
364
364
364
365
365
364
365
363
363
364
364
365
364
364
364
363
364
365
365
364
364
364
364
364
366
365
365
365
365
365
365
365
365
364
364
364
364
365
363
363
363
362
362
362
362
361
360
360
359
359
359
359
359
358
357
358
358
358
358
358
358
358
359
360
360
360
360
360
361
361
362
363
362
362
362
362
362
363
363
362
361
361
361
362
362
363
362
362
362
363
363
363
364
363
364
364
365
366
366
366
366
366
367
367
368
367
368
367
368
368
368
368
367
366
367
366
367
366
367
366
366
366
367
367
368
367
367
367
367
368
369
370
369
369
370
371
371
372
372
372
373
374
374
375
376
376
376
376
377
377
378
378
378
377
377
377
377
377
377
376
376
374
375
375
375
374
373
372
371
371
371
371
370
370
369
369
369
369
369
368
366
366
367
367
367
365
365
364
364
364
363
363
362
361
360
359
360
359
359
358
358
357
357
357
357
357
356
355
355
355
356
356
356
355
354
355
355
356
356
354
354
354
354
355
354
354
353
353
353
353
353
352
352
352
351
351
352
352
352
352
351
351
352
352
352
352
351
351
352
353
353
353
352
352
352
352
353
353
353
353
352
352
352
353
352
352
351
350
350
349
348
347
346
345
343
343
343
343
343
343
344
346
349
352
356
361
366
372
380
389
400
411
423
436
450
467
485
503
522
541
560
580
599
619
638
656
672
687
702
715
725
733
740
742
743
742
738
732
722
711
697
684
667
651
633
613
593
571
550
530
510
491
472
453
436
421
406
394
382
371
360
352
346
340
336
333
329
327
325
324
325
325
325
327
327
329
331
333
335
336
337
338
340
342
344
344
345
345
346
347
348
349
348
349
348
348
348
349
348
348
347
347
347
347
347
346
345
345
344
344
344
344
344
343
342
343
343
343
342
343
342
342
343
344
345
344
343
344
344
344
346
346
345
345
344
345
345
347
346
346
346
346
347
348
349
349
348
349
350
349
351
350
351
351
350
351
352
352
352
352
351
351
351
352
352
351
351
351
351
351
350
350
350
349
349
349
349
350
350
349
349
349
350
350
351
351
351
351
351
352
352
352
352
352
353
352
354
354
354
354
353
353
353
354
354
354
353
353
353
353
355
355
353
353
353
354
355
355
354
354
354
355
356
356
357
357
357
357
357
357
357
358
358
358
357
357
357
359
358
358
357
358
359
360
360
360
360
359
360
361
361
361
362
361
361
362
362
362
362
361
360
361
362
362
363
363
362
361
361
362
363
363
362
362
362
362
362
363
363
363
362
363
364
365
366
365
365
365
366
367
367
367
367
368
368
369
370
370
371
372
371
373
373
374
374
375
375
374
376
376
376
376
376
376
376
377
377
378
379
377
378
378
379
380
381
381
381
381
382
382
383
384
384
384
385
386
387
388
389
389
390
390
392
393
394
393
394
394
395
396
397
397
397
397
397
398
399
400
400
400
400
401
401
403
403
404
404
405
406
406
407
407
408
408
409
409
411
411
411
411
411
411
412
413
413
413
413
412
412
413
413
413
413
412
413
412
413
413
412
412
412
412
413
413
413
412
412
412
412
412
413
412
411
410
411
410
410
410
409
409
408
408
407
407
406
405
405
404
402
402
401
400
399
397
396
396
395
394
393
392
392
390
390
390
389
388
388
386
386
386
385
385
384
383
382
382
381
380
379
379
378
377
377
376
375
373
373
372
371
370
369
368
367
366
365
365
364
363
362
362
361
361
361
361
360
361
360
359
360
360
361
361
360
359
359
359
360
359
359
358
358
357
358
357
357
357
356
355
355
355
354
354
353
352
352
352
352
351
351
350
350
350
351
351
351
350
350
349
350
351
350
351
350
350
350
351
351
351
350
350
350
350
351
351
352
351
350
350
350
351
350
351
349
349
349
350
350
351
350
350
349
350
351
351
351
351
351
352
351
352
352
352
352
352
352
352
352
353
352
352
351
352
352
352
352
352
351
351
351
351
352
351
352
351
351
351
352
353
352
353
352
353
354
355
355
355
355
355
356
356
357
357
356
356
357
357
357
357
356
356
356
356
357
357
357
357
356
356
355
357
356
356
355
355
355
354
355
355
354
354
353
354
354
356
355
355
355
355
355
356
356
356
355
355
356
357
357
357
356
356
356
357
358
358
358
357
356
357
357
357
357
357
356
356
356
357
357
356
355
355
356
355
356
356
355
355
354
354
353
353
353
352
352
351
351
351
351
351
351
350
350
350
351
351
351
351
350
350
351
351
352
351
352
351
351
351
352
352
352
351
351
352
352
353
352
352
351
351
352
352
352
351
351
350
350
351
351
351
351
350
350
350
351
351
351
351
350
350
351
351
351
351
350
350
351
351
351
352
351
350
351
350
351
351
350
350
350
350
350
350
350
349
348
348
349
349
350
350
349
349
348
349
350
350
350
350
349
350
350
351
351
351
351
350
351
352
352
353
353
353
354
355
356
356
356
356
356
356
358
358
359
358
358
359
359
359
360
360
360
360
360
360
362
362
361
362
362
362
363
364
364
364
364
364
365
365
366
366
366
366
366
367
368
368
368
368
368
368
368
368
367
367
366
365
366
366
366
365
364
363
363
362
363
362
361
361
360
359
359
359
358
358
357
356
356
355
355
355
354
353
352
353
352
353
352
352
350
350
350
350
350
350
349
348
348
348
347
347
347
346
345
345
346
345
345
344
343
343
343
343
343
343
343
341
342
342
342
342
341
341
341
341
342
343
342
342
341
341
341
342
342
342
342
341
342
343
343
343
343
343
343
343
344
345
344
344
344
343
344
344
344
344
343
342
342
341
341
341
340
339
339
338
337
337
337
336
336
337
337
339
340
342
345
348
352
357
364
371
379
388
399
410
424
438
453
469
485
504
524
543
563
582
601
621
640
658
676
692
706
718
729
738
743
747
748
746
741
735
727
716
703
688
671
654
635
615
596
575
553
532
512
493
475
457
440
424
409
395
384
373
364
355
347
341
336
332
330
328
325
324
324
324
325
326
326
328
328
330
331
333
334
335
336
336
338
339
340
340
340
340
341
341
341
342
340
341
340
340
340
341
340
340
338
338
339
338
339
339
338
337
337
338
337
338
337
336
336
336
336
337
337
336
336
335
335
336
337
337
336
336
337
337
338
338
338
337
338
337
339
338
339
339
338
338
338
339
339
339
339
339
338
339
340
340
340
340
339
341
341
341
341
341
340
341
340
341
341
340
340
339
340
341
340
341
341
341
341
340
341
342
342
341
341
342
342
343
343
343
343
342
342
344
344
344
344
344
344
344
345
345
345
345
345
344
344
344
345
345
345
345
344
346
346
346
346
346
345
346
346
346
346
346
346
345
346
346
347
347
346
346
347
347
348
348
348
348
347
348
348
348
349
347
347
347
348
348
348
348
348
348
348
348
349
349
349
349
349
350
350
350
351
351
350
350
351
352
352
353
352
352
353
354
355
356
355
355
355
356
356
357
357
357
357
357
357
358
359
358
358
358
358
360
360
361
361
360
360
360
361
361
362
361
362
361
362
362
363
363
362
363
363
365
365
366
366
366
366
366
367
368
368
369
369
369
370
370
371
372
372
373
374
375
376
377
378
378
379
379
380
382
382
383
383
384
385
386
387
387
389
389
390
391
392
393
393
393
393
394
395
396
396
396
396
396
397
397
398
398
398
398
398
399
399
400
400
400
400
400
402
403
403
403
403
403
404
405
406
406
406
407
407
407
409
409
408
408
408
408
408
408
408
407
406
406
406
405
406
405
404
404
403
403
403
402
402
401
400
400
399
400
399
398
397
397
396
395
395
395
393
393
392
392
391
391
390
388
387
386
385
385
384
382
381
380
379
378
378
377
375
374
373
373
372
371
370
369
367
367
366
366
365
364
363
362
362
361
360
360
358
357
357
356
356
355
354
353
353
352
352
351
350
350
348
347
347
347
346
345
345
344
344
343
343
343
342
342
341
341
341
341
341
340
339
339
339
339
339
339
338
338
338
338
338
338
339
337
338
338
338
338
338
336
336
336
335
336
335
335
334
333
333
333
333
333
332
332
332
331
332
332
331
332
331
331
331
332
332
332
331
330
331
331
331
331
331
330
330
330
330
330
329
330
329
329
329
329
329
330
329
329
330
330
331
330
331
331
331
331
332
333
333
333
332
332
333
333
333
333
333
333
333
334
334
333
334
334
333
333
334
334
334
334
333
333
334
334
335
334
334
333
334
334
335
335
334
334
335
334
335
335
335
334
335
335
335
335
335
336
334
335
335
335
336
336
336
336
335
336
336
337
336
336
335
335
335
336
336
336
336
336
336
336
337
337
337
337
337
337
338
338
338
337
337
337
338
338
338
339
338
338
338
338
339
338
338
337
337
337
337
337
336
335
335
335
335
336
335
335
334
335
335
335
336
337
336
336
337
337
337
338
338
339
339
339
339
340
340
339
339
339
339
340
340
340
339
339
338
338
338
338
337
337
337
336
336
336
336
335
335
334
334
334
335
335
334
334
334
333
334
334
334
333
333
333
333
334
334
333
334
334
335
335
335
336
336
336
335
336
337
338
338
337
337
337
338
337
337
338
337
337
337
338
338
338
337
337
336
337
337
336
337
336
335
336
336
337
336
336
334
335
335
336
335
336
335
335
334
335
335
336
335
336
335
335
336
337
337
337
338
338
338
339
340
340
340
340
341
342
341
342
342
342
342
342
343
343
343
343
342
343
343
344
344
344
343
343
343
344
344
344
344
343
343
344
345
345
345
345
345
345
346
347
348
348
348
349
349
349
351
351
351
351
350
351
351
352
352
352
352
352
352
353
353
352
351
351
350
350
350
350
349
348
348
348
348
347
347
346
345
345
345
345
344
343
343
343
342
342
342
342
342
340
340
340
340
341
340
339
339
339
339
338
338
338
337
337
336
337
336
336
335
334
334
333
333
333
333
332
332
331
331
331
331
330
329
328
328
328
328
328
328
327
327
326
326
327
327
327
327
327
327
328
328
328
328
328
327
328
328
328
328
327
326
327
327
328
327
327
325
325
325
326
326
326
325
325
325
325
326
326
326
325
325
325
325
325
326
325
325
325
324
325
325
326
326
326
327
329
331
335
337
341
345
351
358
366
375
384
394
407
420
435
450
467
484
501
520
539
559
578
597
614
631
647
662
677
688
698
705
711
714
715
714
711
703
695
684
672
658
643
626
607
588
570
550
531
511
492
473
455
438
424
409
394
382
370
359
351
343
336
330
324
320
317
314
313
312
311
310
309
310
311
312
313
313
313
314
317
318
319
318
319
320
320
321
321
322
322
323
322
323
324
323
323
323
322
322
322
322
321
321
320
319
319
320
319
319
319
317
317
318
318
319
318
317
316
317
317
317
318
317
317
317
317
319
319
319
320
319
319
320
321
322
322
322
322
322
322
322
322
322
321
321
322
321
322
322
321
321
320
320
321
320
321
320
319
319
320
320
321
321
320
319
320
321
321
321
321
321
321
321
322
323
323
323
322
322
323
323
323
322
323
322
323
323
324
324
324
324
324
324
325
325
324
324
324
325
326
326
325
326
325
326
325
326
327
327
326
326
326
326
326
327
327
326
326
326
326
326
326
326
325
325
325
326
325
325
324
324
324
325
325
326
325
325
325
326
326
327
328
327
327
326
327
328
328
329
329
329
329
329
330
331
330
330
330
330
331
331
332
331
331
331
331
332
332
332
332
331
332
333
333
333
334
333
333
333
334
334
334
334
334
334
335
336
336
336
337
336
337
337
338
338
339
338
338
339
340
340
340
340
340
341
342
342
343
343
343
343
344
344
345
346
347
346
347
348
349
349
349
350
350
351
351
353
354
355
355
355
356
358
359
360
360
360
361
362
363
364
365
365
366
366
367
368
369
369
370
370
371
372
373
373
374
374
374
375
376
377
377
377
377
378
379
380
380
381
381
381
382
382
383
384
384
384
384
384
386
386
386
386
386
386
387
387
388
389
389
388
388
389
389
390
390
390
390
390
391
391
391
391
391
390
390
390
390
390
388
388
388
388
388
387
386
386
384
384
384
383
382
380
380
378
378
377
376
376
374
373
372
372
372
371
370
368
367
367
366
366
365
364
363
362
361
360
360
359
358
358
356
356
356
355
354
352
351
351
349
349
348
346
345
344
344
343
342
340
340
338
337
337
337
336
335
334
333
333
333
332
331
330
330
330
330
330
330
330
330
329
329
330
330
331
330
330
330
330
331
331
331
331
330
329
330
330
331
329
329
329
329
328
329
329
328
327
327
326
326
326
325
325
325
324
324
324
324
323
322
322
322
322
323
323
322
321
321
321
322
322
321
321
321
321
321
322
321
321
321
320
320
320
319
319
318
318
317
317
317
317
316
316
314
315
314
314
315
314
314
314
315
316
316
317
316
316
316
317
317
318
317
317
317
317
317
317
317
316
316
315
316
316
316
315
315
315
314
315
315
314
314
314
313
313
314
314
314
314
313
314
315
314
316
315
316
316
315
316
316
316
316
316
315
315
315
316
316
315
315
314
315
315
315
315
315
314
315
315
315
316
315
316
314
315
315
316
317
316
316
316
315
316
317
317
316
316
316
316
315
316
315
315
315
315
315
315
315
315
315
315
314
315
315
315
315
315
315
315
315
315
315
315
315
315
316
316
316
316
316
315
316
316
316
316
316
315
316
316
316
317
316
315
315
315
314
315
315
314
314
314
314
314
313
313
313
312
312
312
312
312
312
311
311
311
311
312
312
311
311
311
312
312
313
314
313
313
313
314
315
314
315
314
314
314
314
315
315
314
314
313
314
313
314
314
313
312
312
312
312
312
312
311
311
311
310
311
311
310
310
309
310
310
310
310
310
310
309
310
310
311
310
309
309
309
309
311
310
310
310
310
309
310
310
310
309
309
309
310
310
309
309
309
308
308
309
309
310
309
310
310
311
312
312
313
313
313
313
314
315
316
316
315
315
317
317
317
317
318
317
318
319
319
319
320
319
319
319
319
319
319
319
319
319
319
319
320
320
320
320
320
321
321
322
322
322
322
323
323
324
324
324
324
324
325
325
326
326
327
326
327
327
329
329
328
328
328
328
328
328
328
328
327
326
326
327
327
326
326
325
324
324
325
325
324
324
323
323
322
322
323
322
321
321
320
320
321
320
320
319
319
319
319
319
319
318
317
317
317
316
316
315
314
313
313
312
312
311
310
309
309
308
308
308
307
307
306
306
306
307
306
306
305
305
305
305
306
306
305
305
305
305
306
306
306
306
305
305
305
305
306
305
304
303
304
304
304
304
304
303
303
304
305
305
305
305
304
305
306
306
306
305
306
306
306
306
307
306
306
306
305
306
306
307
306
306
305
304
305
304
304
302
302
301
301
302
301
302
302
302
303
305
307
310
313
317
321
327
334
342
350
360
370
382
395
410
425
441
457
475
493
511
531
550
568
584
601
616
631
644
655
664
671
674
677
678
677
672
665
655
644
632
619
604
586
568
550
531
511
493
474
456
437
420
405
390
376
363
352
341
331
323
316
311
305
300
296
293
291
290
290
288
288
288
289
289
291
291
291
292
294
296
297
298
299
299
300
301
302
302
303
303
302
302
303
303
303
303
302
302
301
301
302
301
300
300
299
299
299
300
299
299
298
297
298
297
298
297
297
296
297
297
298
298
298
298
298
298
298
299
299
299
298
298
298
298
299
299
298
298
298
298
298
299
298
297
297
297
297
297
298
298
297
297
297
298
298
298
298
298
298
298
299
299
299
299
298
299
299
300
300
299
299
299
300
300
300
300
300
300
300
300
301
301
301
300
300
300
300
300
300
299
299
299
298
298
299
299
299
298
298
299
300
300
300
300
299
300
301
301
301
301
301
301
301
302
302
303
303
302
303
303
304
305
304
304
303
304
304
304
304
304
304
304
303
304
304
304
303
303
303
303
304
305
304
304
304
304
304
305
305
304
304
304
304
304
305
305
305
305
305
305
306
307
306
306
306
306
307
307
306
306
306
306
307
307
307
308
307
307
307
308
308
309
309
308
309
309
311
311
311
311
311
311
312
312
313
314
314
314
314
315
315
316
317
317
317
317
318
319
319
319
320
320
321
322
323
323
323
324
325
325
326
327
327
328
328
329
329
330
330
330
330
330
331
332
332
333
333
333
334
335
336
336
337
337
337
338
339
341
341
341
342
342
344
345
347
347
347
348
350
351
352
353
354
354
354
355
356
357
358
357
357
358
359
359
359
360
360
359
359
361
361
361
362
362
361
361
362
363
363
362
362
362
362
362
363
363
363
362
363
363
364
365
364
364
363
363
363
364
364
363
363
362
362
361
362
361
360
359
358
358
358
357
355
354
353
352
351
351
350
348
347
346
345
344
343
342
342
340
339
339
339
338
338
336
336
334
334
333
334
332
331
330
330
329
329
328
326
325
325
325
324
323
321
321
319
318
318
317
317
315
314
313
312
312
311
311
309
308
308
308
308
307
307
305
305
304
304
305
304
303
303
303
302
303
302
303
301
301
302
301
301
302
301
301
300
300
300
300
300
300
299
298
299
299
299
299
298
298
298
298
298
298
297
297
297
297
296
296
295
295
294
294
294
294
294
293
292
292
293
292
292
292
292
291
290
291
291
291
290
290
290
289
289
290
289
289
289
288
288
289
289
289
288
288
287
288
289
288
288
288
287
287
288
288
289
289
288
288
288
288
288
289
288
288
287
287
287
288
288
286
286
286
286
286
287
286
286
286
286
286
287
287
287
287
286
287
287
288
287
287
287
287
287
288
288
287
288
287
288
287
289
288
289
288
288
288
288
288
287
287
287
287
287
288
288
288
287
287
287
287
287
288
288
287
287
288
288
288
288
287
287
287
287
288
288
288
287
288
288
289
289
289
289
288
289
288
289
289
290
288
288
288
288
289
289
288
288
287
287
287
287
287
286
286
285
286
286
286
286
285
285
285
286
286
286
287
286
286
286
287
288
288
288
287
287
288
288
288
287
288
286
286
286
286
286
286
286
286
285
286
286
286
286
285
285
285
285
286
285
285
285
285
285
286
285
285
285
285
286
286
287
286
286
285
286
286
287
287
286
286
285
285
286
286
285
285
284
284
284
283
284
284
283
283
282
282
282
283
282
282
282
282
282
283
283
283
283
283
283
284
285
285
283
283
284
284
284
285
284
284
283
283
283
284
283
282
282
282
282
283
283
282
282
282
282
281
281
282
282
281
281
281
281
282
282
281
281
281
281
282
284
283
283
283
283
283
283
284
284
284
284
284
284
285
285
285
285
285
286
287
287
287
287
287
287
288
288
289
289
289
289
289
290
290
290
291
291
291
291
292
292
292
293
293
293
293
294
295
295
295
295
295
296
296
297
296
296
297
297
298
299
299
299
298
298
299
298
299
299
298
298
299
298
299
299
298
298
298
298
298
298
298
297
296
296
296
296
296
295
294
293
293
293
294
294
293
292
291
292
292
292
292
291
290
290
290
289
289
288
287
286
286
285
285
285
283
283
282
282
282
283
282
281
280
280
280
281
280
280
280
279
280
280
280
280
280
280
280
280
280
281
279
279
279
279
279
279
279
278
277
277
277
278
278
277
277
277
277
277
278
278
279
278
278
278
279
278
278
279
278
279
278
279
280
279
279
279
279
279
280
280
279
279
278
278
278
279
278
277
277
276
276
276
276
276
275
275
276
278
280
282
284
287
290
296
302
308
315
324
332
343
354
367
382
396
412
427
444
463
481
499
517
534
550
565
580
594
606
616
624
629
633
636
636
632
627
620
610
600
587
573
558
541
523
505
487
468
449
431
412
395
379
364
350
336
324
313
302
293
287
280
274
270
265
262
261
260
258
258
257
258
259
260
261
262
263
264
264
267
268
269
270
271
272
271
273
274
274
274
273
272
273
273
273
273
273
272
272
271
272
272
271
271
270
269
269
270
270
270
268
269
269
269
269
269
269
269
269
269
270
271
270
270
270
270
270
270
270
270
270
270
269
270
270
270
270
269
269
269
270
271
270
270
270
270
270
270
270
270
270
269
270
271
271
271
270
271
270
271
272
272
272
272
272
272
273
273
273
272
272
271
272
271
272
271
272
270
271
271
272
271
271
271
270
270
271
271
271
272
271
272
271
272
273
272
273
272
272
273
273
273
273
272
271
272
271
271
272
270
270
270
270
270
271
271
271
270
270
272
272
273
273
272
273
273
274
276
276
276
276
275
276
276
276
277
276
277
276
276
277
277
277
277
276
277
277
277
277
277
277
277
277
277
277
278
278
278
278
278
279
279
279
279
279
279
279
280
280
281
280
280
280
281
282
282
281
281
281
282
283
282
283
282
282
282
283
283
284
284
284
283
283
285
285
286
286
286
286
287
288
288
288
288
288
289
290
290
290
290
290
290
291
291
292
293
293
293
293
294
295
296
296
296
297
298
299
300
301
301
301
302
303
303
304
305
305
306
306
307
308
309
309
310
310
310
312
313
313
314
313
314
315
316
317
318
317
318
319
320
321
322
322
322
323
323
324
324
325
325
325
326
326
327
328
328
329
329
329
330
331
332
331
331
331
332
333
333
332
332
332
332
333
333
333
333
333
332
332
333
333
334
334
334
333
333
333
334
333
333
333
332
333
333
334
332
332
331
331
330
329
329
328
326
326
325
324
323
322
321
320
319
318
317
316
314
313
312
311
310
310
310
309
307
307
306
306
305
305
304
302
302
301
301
300
300
298
298
296
296
296
295
294
292
292
291
290
289
288
287
285
284
284
283
282
282
281
280
279
279
279
280
279
277
276
276
276
276
276
275
274
274
275
274
274
274
273
272
272
272
272
272
272
271
271
271
271
271
270
270
269
268
269
270
269
269
268
268
268
268
268
268
267
267
266
266
267
267
265
265
265
264
263
263
263
262
262
262
262
261
261
261
260
258
258
258
258
258
257
257
256
256
256
257
257
256
256
255
256
256
256
257
256
256
255
256
256
257
256
255
255
254
254
255
255
255
254
254
254
255
255
255
254
253
254
254
255
255
255
254
254
254
254
255
256
255
255
255
256
256
257
257
257
256
257
257
258
258
258
258
258
258
258
258
258
258
258
258
258
258
258
258
258
258
257
257
257
257
256
257
255
255
255
256
255
255
255
254
255
255
256
256
255
255
254
255
255
255
255
255
255
255
255
256
255
256
255
256
256
256
256
256
256
256
256
255
256
257
256
255
254
254
255
255
255
254
254
253
254
254
254
254
253
253
252
253
253
253
252
253
252
252
252
253
252
252
252
253
252
253
253
253
253
253
253
253
253
253
253
252
251
251
251
252
252
251
250
251
250
250
251
251
249
250
249
250
250
250
250
250
249
249
250
250
250
249
249
249
249
250
250
250
250
249
248
249
249
249
249
248
247
247
248
248
248
248
247
246
246
247
247
247
246
245
246
246
246
247
246
245
245
245
245
245
245
244
245
244
244
245
245
245
245
245
244
245
245
246
245
244
244
244
244
245
245
245
245
245
246
247
248
247
247
247
246
247
248
248
248
247
247
247
247
248
247
247
247
246
247
248
248
248
248
248
248
248
250
250
250
249
250
251
251
252
252
253
252
253
253
254
255
256
255
255
256
256
257
258
258
258
258
259
259
261
261
261
261
261
261
262
263
262
262
262
261
261
261
261
261
259
259
259
258
258
257
256
255
254
254
255
255
253
253
252
251
251
251
250
249
249
248
248
248
248
248
247
247
247
246
247
247
247
247
246
245
246
246
245
245
244
243
244
244
244
243
243
241
241
241
241
242
241
239
239
239
239
239
239
238
237
236
236
237
237
237
236
235
235
235
236
236
235
235
234
234
235
235
235
235
235
234
235
236
235
235
236
234
235
235
236
236
237
236
236
235
235
235
236
235
234
235
235
235
235
235
234
234
234
234
235
235
234
233
232
231
232
231
231
230
230
229
230
232
233
235
237
239
243
247
253
260
267
275
284
294
306
320
334
348
364
380
397
416
434
453
471
487
505
521
537
552
565
576
585
592
597
600
600
598
593
586
578
567
556
542
526
509
491
473
454
435
416
395
377
357
341
324
309
293
279
266
255
246
237
229
222
216
212
208
207
205
204
203
203
204
205
207
209
210
211
212
215
217
219
220
221
222
223
224
226
226
226
227
227
227
228
228
228
227
227
227
226
226
226
226
225
225
225
224
225
224
223
223
223
223
223
222
223
222
222
221
222
223
223
222
222
222
222
222
223
224
223
223
224
224
224
225
225
225
225
226
226
227
227
227
227
227
228
228
229
229
229
228
228
228
228
228
227
227
226
227
226
226
227
226
226
225
225
225
226
227
226
226
225
226
227
227
227
227
226
225
226
226
226
226
226
226
226
226
226
226
227
226
226
226
227
227
227
227
228
227
227
229
229
230
229
229
230
230
232
232
232
232
232
232
232
232
233
232
231
231
231
232
232
231
231
230
230
231
232
231
231
230
230
230
231
230
230
230
229
229
229
230
229
230
229
229
229
229
231
230
231
231
231
232
232
233
234
233
234
234
235
235
236
236
235
236
236
237
238
238
238
238
237
238
238
238
240
239
239
239
240
240
241
241
241
241
242
242
243
243
244
244
243
243
244
244
245
245
244
244
244
244
245
245
245
245
245
245
247
248
248
248
247
247
249
249
250
250
249
250
250
251
251
252
252
252
252
253
254
255
255
255
255
257
257
258
259
259
260
260
261
262
263
264
263
264
264
266
267
267
267
267
268
268
270
270
271
270
271
272
272
272
274
273
274
275
275
276
276
277
277
277
277
278
278
279
279
280
279
279
279
280
281
281
281
281
282
283
284
284
285
284
284
284
286
286
286
286
286
287
286
287
288
287
287
287
286
286
288
287
287
287
286
286
286
287
286
285
284
284
283
283
283
283
282
281
280
280
280
279
278
278
276
276
276
275
274
273
272
270
270
268
269
268
266
265
264
264
264
263
262
261
259
259
259
258
257
257
255
254
254
254
253
252
251
250
250
250
250
249
248
247
246
246
245
245
243
243
242
241
240
241
241
240
239
238
238
238
238
238
237
236
236
235
236
236
235
235
235
234
233
234
233
232
232
231
231
231
231
230
230
229
229
228
228
228
228
226
226
226
226
226
227
226
226
225
225
226
227
227
226
226
226
227
227
227
226
227
226
227
227
228
228
228
228
227
228
228
229
228
229
228
229
228
229
229
229
229
229
228
229
230
230
230
230
229
229
230
230
230
230
230
230
230
230
230
230
229
229
229
229
230
229
229
228
228
229
229
230
230
229
229
229
229
231
230
230
230
231
230
231
231
231
230
230
230
230
230
230
231
230
230
229
229
230
229
229
228
229
228
228
229
229
228
228
228
228
230
230
230
230
229
228
229
229
229
229
229
227
227
228
228
229
228
228
228
228
229
229
229
229
228
228
228
229
229
229
228
228
227
228
229
229
228
227
227
227
227
228
227
226
225
226
226
226
225
225
225
224
224
224
225
224
225
224
224
224
224
225
225
225
225
225
226
226
227
226
225
225
226
226
226
226
226
226
225
226
226
227
227
225
225
225
224
225
225
224
225
223
223
224
223
224
223
221
222
222
221
222
222
221
221
221
221
221
222
221
220
220
220
221
221
222
222
221
221
221
222
222
222
222
221
221
221
222
222
221
221
221
220
220
220
221
220
219
219
219
220
220
220
220
219
220
219
221
220
221
220
219
219
220
220
221
221
221
220
221
221
222
222
222
221
221
221
222
223
222
221
222
222
221
222
222
222
222
222
223
223
224
224
223
223
223
224
224
224
224
224
224
225
226
226
226
226
226
226
228
229
229
229
229
229
229
230
231
231
232
231
231
232
233
233
234
234
234
233
234
235
236
237
236
236
236
237
238
238
238
238
237
237
238
238
239
238
238
238
238
237
238
237
237
236
236
236
236
235
234
234
233
232
232
232
232
231
230
230
230
230
230
230
229
229
229
229
229
229
228
228
227
227
228
227
227
226
226
225
226
226
226
226
225
224
224
224
224
224
223
221
221
221
221
221
221
220
220
219
219
220
220
219
219
219
218
218
219
219
218
218
218
217
218
219
219
218
218
217
217
217
218
218
217
216
216
216
216
217
216
215
215
215
215
215
215
215
215
215
215
216
216
216
216
216
215
216
216
215
215
214
213
213
213
213
212
212
211
211
211
212
212
214
215
216
219
222
227
232
237
244
252
262
273
285
298
312
328
344
362
382
401
421
441
461
481
501
521
539
556
571
585
597
608
616
621
623
623
620
615
608
599
587
572
556
539
521
502
482
460
439
417
396
376
357
337
319
302
286
272
259
247
237
227
218
212
207
202
198
196
194
192
191
192
193
194
195
196
198
200
202
204
206
206
208
209
211
212
214
213
213
214
214
214
215
214
213
213
213
212
213
212
211
211
210
209
209
209
209
208
208
208
208
208
208
208
209
208
208
208
209
210
210
210
210
209
210
211
211
210
210
209
210
210
211
211
211
211
211
211
212
211
212
211
211
211
211
212
211
212
211
211
211
212
212
212
212
212
212
213
214
214
214
214
214
213
215
215
215
214
214
214
213
214
214
214
213
212
212
213
213
214
213
213
213
213
213
215
214
214
214
214
215
215
216
216
216
215
216
216
217
217
217
217
216
217
218
218
218
217
217
216
217
217
219
219
218
218
219
219
220
220
220
219
219
219
220
219
220
220
219
219
219
219
219
219
219
218
218
218
219
219
218
217
217
217
218
219
219
218
218
219
219
220
220
220
220
221
221
221
222
223
223
223
223
224
225
226
226
226
226
226
226
226
227
227
227
227
226
226
228
227
228
227
227
228
229
229
230
230
229
230
231
231
232
232
233
233
233
234
235
236
236
236
237
237
238
238
238
239
239
238
239
239
241
241
241
241
242
242
243
245
244
244
244
245
246
247
248
248
248
249
249
250
251
251
252
252
253
254
255
256
257
257
258
259
260
260
261
262
262
263
263
265
265
265
266
266
267
268
269
269
269
269
269
270
271
271
272
272
272
272
273
273
274
275
275
275
277
277
279
280
279
280
280
281
281
281
282
282
282
282
282
283
284
284
283
282
283
284
284
284
284
284
283
283
284
284
284
283
283
283
283
283
283
282
282
281
281
281
280
279
279
277
276
276
275
274
273
273
272
270
269
269
268
267
266
264
264
264
263
263
262
261
260
259
258
258
257
257
255
255
254
254
254
253
252
251
251
250
250
249
248
247
247
246
245
245
245
243
242
241
240
240
240
239
237
236
235
235
235
234
233
232
232
231
232
231
230
230
229
229
228
228
228
227
227
226
226
226
226
225
225
225
224
224
224
224
224
224
222
223
223
223
223
223
223
222
222
222
223
222
221
221
220
220
220
220
219
220
218
218
218
219
219
218
217
217
218
218
218
218
218
217
217
217
217
217
217
217
216
216
216
216
217
216
216
215
216
216
216
216
216
216
215
216
215
217
216
216
216
215
216
216
217
217
217
216
217
217
218
219
218
218
218
219
220
220
219
219
219
219
220
220
221
221
219
219
220
221
220
221
221
221
220
221
221
221
222
222
221
221
221
221
222
222
222
221
222
222
223
223
223
223
222
223
223
224
224
223
222
222
223
223
223
223
222
222
222
222
222
223
222
221
222
222
222
223
222
222
222
221
222
221
222
223
222
222
222
223
223
223
223
223
224
223
223
224
224
223
223
223
222
224
223
222
222
222
222
223
223
222
222
222
221
221
221
222
222
220
220
220
221
221
221
220
220
221
221
221
222
222
222
222
221
221
222
222
222
222
222
221
222
222
223
222
222
221
222
223
222
223
222
221
221
220
220
221
220
220
219
219
219
219
219
219
219
218
218
219
219
219
219
219
218
219
220
220
220
219
219
219
219
219
220
219
219
218
219
219
220
219
219
219
219
219
220
219
219
218
218
217
218
218
219
218
219
218
218
218
219
219
218
218
218
218
219
219
219
219
218
218
218
218
218
218
218
218
218
218
218
218
217
217
217
216
217
218
217
217
216
218
218
219
218
219
219
219
220
220
221
221
221
222
222
223
223
224
224
224
224
224
225
226
226
226
225
226
226
227
227
227
227
227
227
227
228
228
228
228
228
228
228
229
230
229
230
230
231
232
233
233
232
233
234
234
234
235
234
235
234
234
235
235
236
236
235
235
236
236
236
236
235
234
234
234
234
234
233
233
232
232
232
232
231
231
231
229
230
230
231
230
229
229
228
229
229
228
228
227
226
226
226
226
226
224
223
223
223
223
223
222
221
221
219
219
220
219
218
218
217
217
217
217
218
217
217
216
217
217
217
217
217
217
217
217
217
217
217
217
216
216
216
216
217
216
214
215
215
216
216
215
215
215
215
214
215
216
215
214
214
214
214
215
215
215
214
214
215
215
215
215
215
215
215
215
216
215
215
214
214
214
214
214
214
213
212
211
212
213
213
213
213
214
216
218
222
225
229
233
240
248
256
265
276
288
299
314
329
346
362
380
398
417
435
455
474
492
510
525
540
555
568
578
587
592
596
598
597
594
589
581
571
559
545
531
514
497
479
459
439
420
401
382
364
345
328
312
298
284
272
261
249
240
232
226
220
216
212
208
205
203
203
203
202
202
202
202
203
205
206
206
207
208
209
209
210
211
211
211
212
212
213
214
213
214
213
213
214
215
215
214
213
213
213
213
213
213
212
211
211
210
210
210
210
210
209
208
209
209
209
209
208
207
207
207
208
208
207
207
207
207
208
208
208
208
208
208
209
209
210
210
209
210
210
210
211
211
211
211
211
211
211
212
212
211
211
211
211
211
212
211
211
211
211
211
212
211
211
211
211
211
211
212
212
211
211
211
211
211
212
211
211
210
210
211
211
211
211
210
210
211
211
211
212
212
211
211
212
212
213
213
213
213
212
213
213
214
214
212
212
213
213
213
212
212
211
212
212
212
213
212
212
212
212
214
214
214
214
214
214
215
216
217
217
217
216
217
218
218
219
219
219
219
219
219
220
220
220
220
219
219
219
219
219
219
219
219
219
220
220
220
220
220
220
221
221
221
221
220
220
221
222
222
222
222
222
222
222
223
224
224
224
224
224
224
226
225
225
225
225
226
226
227
227
227
227
227
228
230
230
230
230
229
230
230
232
232
232
231
232
232
233
234
234
234
235
235
237
238
239
239
240
240
240
242
242
243
244
244
244
245
246
246
247
247
247
247
249
249
250
250
251
251
251
252
253
253
254
254
255
256
256
258
259
258
260
260
261
262
263
263
264
264
264
265
266
266
267
267
266
267
269
269
269
269
269
270
270
271
272
272
272
272
272
273
274
274
274
274
273
274
275
275
275
275
275
275
275
276
276
276
275
275
276
276
276
277
276
275
275
275
275
275
275
274
273
273
274
273
273
273
271
270
270
270
269
269
268
267
266
265
264
264
263
262
261
260
260
259
259
257
255
255
253
253
252
251
249
248
246
245
244
243
243
242
240
240
239
238
238
236
236
234
234
234
233
233
232
230
230
229
229
229
228
227
226
226
226
225
225
224
223
222
221
221
221
221
220
218
218
217
217
217
217
215
215
215
215
215
215
214
213
213
212
212
212
212
212
210
210
210
211
210
210
210
210
210
210
210
210
209
208
208
208
208
208
207
207
206
205
205
205
206
205
204
204
204
204
205
204
204
204
203
203
204
204
204
204
203
204
203
204
204
204
204
203
203
203
204
204
204
204
203
203
203
203
202
202
201
201
201
201
201
201
200
200
200
200
200
200
199
199
199
198
199
199
199
199
198
198
198
199
199
200
199
199
199
199
200
201
200
200
200
200
200
200
200
200
199
200
200
200
199
200
199
199
199
198
199
199
198
198
197
197
197
198
198
197
197
197
198
198
198
199
198
198
198
199
199
200
200
199
200
199
200
200
200
200
199
199
199
200
200
200
198
199
199
199
199
200
199
199
198
198
198
198
198
198
197
198
198
198
198
199
198
198
199
199
200
200
200
200
200
200
201
201
201
201
201
201
201
201
202
202
201
201
201
202
201
202
202
201
200
201
201
201
201
200
200
200
201
200
201
201
200
200
201
200
202
201
201
200
200
200
200
201
201
200
200
199
200
200
199
199
198
198
198
198
198
198
197
197
196
196
196
196
196
195
195
195
196
196
196
195
196
196
196
197
197
198
198
198
197
198
198
199
199
199
199
199
199
199
200
199
199
199
199
200
200
200
200
200
199
199
199
199
199
198
198
197
198
198
197
198
197
197
197
197
197
198
197
197
197
197
197
198
198
197
197
197
197
197
198
198
197
197
197
198
199
198
198
198
198
198
199
200
200
200
200
200
201
202
202
203
203
203
203
204
205
205
206
205
206
206
206
207
207
207
207
207
207
207
208
208
208
208
209
209
209
210
210
209
210
210
211
212
211
212
212
212
212
212
213
213
213
213
213
213
214
214
213
213
212
212
212
212
212
211
211
210
209
210
210
208
208
207
207
207
207
206
206
205
205
204
205
205
204
203
203
202
203
203
203
202
202
201
202
202
202
202
201
201
200
200
201
200
199
198
198
197
198
198
197
196
195
194
194
194
194
193
193
192
191
192
192
191
191
190
190
190
190
190
191
191
190
191
191
192
192
193
192
192
192
192
193
193
193
192
191
192
192
193
192
193
193
193
192
194
194
194
194
194
194
194
194
195
195
193
193
193
194
193
192
191
190
190
189
189
189
189
188
187
188
189
190
193
195
197
201
206
212
218
226
235
244
254
267
281
296
310
326
343
361
379
399
418
436
454
471
488
505
520
533
544
553
560
566
570
572
571
565
559
551
541
529
516
501
483
466
448
429
411
391
372
353
335
318
302
287
272
259
246
235
226
217
210
203
196
192
187
185
183
181
180
179
179
179
180
181
181
182
183
184
185
186
187
188
188
188
189
190
191
190
190
190
190
191
191
192
191
191
190
189
189
189
189
189
188
187
187
187
187
187
187
185
186
186
186
187
187
186
186
186
187
187
188
187
186
186
187
187
188
188
188
188
188
189
188
189
189
189
188
188
188
188
189
188
189
188
188
188
189
189
188
188
189
189
189
190
190
190
189
190
190
191
191
190
190
190
190
190
190
190
190
190
190
191
192
192
192
192
191
191
191
192
192
192
191
190
191
191
192
191
191
189
190
190
190
191
190
190
189
189
190
190
191
191
190
190
191
191
191
191
192
191
192
192
193
194
194
194
194
194
194
194
195
195
194
194
194
194
194
194
194
194
194
195
194
195
195
194
194
194
195
196
195
195
195
195
195
195
196
196
196
195
196
196
197
197
198
198
198
198
198
199
200
200
199
199
200
200
200
201
201
201
201
201
201
202
202
201
201
202
201
202
202
202
201
202
203
203
204
205
205
205
205
206
206
208
208
208
208
209
209
210
209
210
209
209
210
211
210
210
210
210
210
212
213
213
213
213
213
214
216
216
217
218
219
219
220
221
223
224
223
225
225
227
229
229
230
230
230
231
232
233
234
234
234
234
235
237
237
238
238
238
237
238
239
240
240
240
241
241
242
242
242
242
243
243
244
244
245
246
246
246
247
247
249
250
251
251
251
252
253
254
255
255
255
255
256
257
257
258
258
258
259
259
260
261
260
260
260
260
260
260
260
260
259
258
259
258
259
259
257
257
257
256
256
257
255
255
254
254
254
253
253
252
251
250
250
250
249
249
248
246
247
245
246
245
244
243
241
241
240
240
238
238
236
235
235
234
233
232
231
230
229
228
228
227
226
224
223
222
222
221
220
218
217
215
215
215
214
213
211
211
210
209
208
209
208
206
206
206
206
206
206
205
204
203
204
203
203
203
204
203
203
203
203
203
203
202
201
201
200
201
201
199
199
198
199
198
199
198
197
197
197
197
197
197
198
197
196
197
196
197
197
196
195
195
195
195
196
195
194
194
194
194
194
195
194
193
192
192
192
192
192
192
191
191
191
191
191
191
190
190
190
190
190
191
190
190
190
190
190
191
191
191
190
190
190
191
191
190
190
191
191
191
191
191
192
191
191
190
191
191
191
190
191
190
190
190
191
190
190
190
190
190
191
191
191
190
189
189
190
190
190
190
189
189
190
190
190
190
189
190
190
191
191
191
192
191
191
191
192
193
192
192
192
192
192
193
193
192
192
192
191
191
191
191
190
190
190
190
191
191
191
191
189
190
190
191
192
192
192
192
192
194
194
195
196
194
195
195
196
196
196
196
195
195
196
195
196
195
194
194
194
194
194
194
193
192
192
192
192
192
191
191
191
190
191
191
191
191
191
191
191
193
193
194
193
193
193
193
194
195
196
195
194
195
194
194
195
195
195
194
194
194
195
195
195
195
194
194
194
194
194
194
194
193
194
194
194
194
194
193
193
194
194
194
194
194
193
194
195
195
195
195
194
194
194
194
195
195
194
194
194
195
195
195
195
195
194
194
195
194
194
194
193
193
193
194
193
193
193
193
193
193
194
194
193
193
193
194
194
195
195
194
194
195
194
195
195
194
195
194
194
195
195
194
194
194
193
193
193
194
194
194
193
193
193
194
194
194
194
194
194
195
196
197
198
197
198
198
199
200
201
201
200
201
202
202
203
203
203
202
203
204
205
205
204
205
204
205
205
206
206
205
206
205
206
206
207
206
206
207
207
208
209
209
210
210
210
211
211
212
213
213
213
213
214
214
215
215
215
214
214
215
215
214
215
213
213
213
212
212
212
211
211
210
210
210
210
210
209
208
209
208
209
209
208
208
208
209
209
209
209
209
207
208
207
208
207
207
207
205
206
206
205
205
204
204
203
203
202
201
202
200
200
200
199
199
199
198
198
197
197
197
197
197
196
196
195
195
196
196
196
195
195
194
195
196
195
195
195
194
195
195
196
195
195
195
195
195
195
196
195
195
194
194
195
196
195
195
194
195
194
194
195
195
195
195
194
195
195
195
195
195
194
194
195
194
195
195
194
194
193
193
194
194
194
193
193
193
193
194
194
196
196
197
201
204
208
212
217
224
231
239
250
260
271
284
298
313
329
346
363
380
398
416
435
453
470
486
500
514
526
537
546
552
556
557
557
554
550
542
533
521
508
494
478
462
444
426
407
387
369
350
332
316
298
283
268
256
244
233
223
213
205
199
194
190
186
184
182
181
180
180
180
182
181
182
183
184
186
188
188
189
190
190
192
192
193
193
193
193
193
195
195
194
195
194
193
193
193
194
193
193
192
192
192
193
192
192
192
192
191
192
193
193
192
192
191
192
192
192
191
191
191
190
190
190
190
191
189
190
189
190
190
191
191
191
191
191
192
193
192
192
192
192
193
194
194
194
193
194
194
195
195
195
195
194
194
195
195
195
195
195
194
193
194
194
194
193
193
193
194
193
193
193
193
193
192
193
193
193
192
192
192
192
192
193
193
193
193
193
194
195
196
196
197
197
197
198
198
199
199
198
199
199
199
200
200
199
199
198
199
200
200
199
198
198
198
198
199
198
198
197
198
198
198
199
199
199
199
199
200
201
201
202
202
202
201
202
202
202
203
202
202
202
203
202
203
203
203
202
202
203
203
204
203
203
203
203
204
204
203
203
202
203
203
204
204
204
204
204
205
205
206
206
206
206
206
207
208
209
208
208
208
209
210
210
210
210
210
211
211
213
213
213
212
212
212
213
213
213
214
213
214
214
214
215
215
216
216
216
216
217
218
218
219
219
220
221
222
223
223
223
224
224
226
227
228
228
228
229
230
231
232
232
232
232
234
234
235
236
236
236
236
236
237
238
238
239
238
239
240
241
242
243
243
243
243
245
246
247
247
246
248
249
249
251
251
251
252
252
254
255
256
256
256
257
257
259
259
260
261
261
261
261
262
263
263
264
263
263
263
265
265
265
264
264
264
265
265
265
264
264
262
263
263
263
263
263
262
262
263
262
262
263
261
261
261
261
261
260
260
259
258
257
257
257
256
255
254
254
253
253
253
252
250
249
248
247
246
246
244
243
242
241
241
240
239
237
236
235
234
234
233
233
231
230
228
228
228
227
226
224
224
223
223
222
221
221
219
218
218
218
217
216
215
214
214
213
213
212
211
211
210
210
209
209
209
208
207
206
206
207
208
207
207
206
206
206
206
207
206
205
204
205
204
205
204
205
204
204
204
204
204
204
203
202
202
202
202
201
201
200
199
199
199
199
199
198
197
197
197
198
197
196
196
196
195
195
196
195
195
194
194
194
194
195
194
194
193
194
194
195
195
195
195
195
195
196
196
196
195
195
195
195
196
196
195
194
194
193
193
194
193
194
193
192
192
192
192
192
192
191
191
191
192
191
192
192
192
192
192
194
193
193
193
192
192
193
193
193
192
192
192
191
192
192
192
192
191
191
191
192
192
193
192
192
193
193
193
194
194
193
194
194
194
194
195
194
195
195
196
196
196
196
195
195
195
195
195
195
195
194
194
195
195
195
194
194
195
194
194
195
195
195
195
195
195
195
196
196
195
196
195
196
196
196
196
196
196
196
197
197
197
197
197
197
197
196
196
196
196
195
194
195
196
195
195
194
193
193
194
194
195
194
194
193
193
193
194
194
193
193
193
193
194
194
194
194
194
194
194
194
194
195
194
193
193
194
194
193
193
193
192
192
192
193
192
192
191
191
191
192
191
192
191
191
191
192
192
192
192
192
191
192
192
193
193
192
192
193
193
193
193
193
192
192
191
191
191
191
190
189
189
188
188
189
187
187
187
187
187
188
189
188
188
189
189
189
191
191
192
192
191
192
193
195
195
195
195
195
196
196
197
196
196
196
196
196
195
196
195
195
194
194
194
194
195
194
193
194
194
194
194
193
194
194
194
193
194
194
194
194
193
194
195
196
195
195
195
196
197
197
198
198
200
199
200
202
203
203
203
204
203
204
205
206
207
206
207
207
208
209
209
209
209
210
210
210
210
211
210
209
209
210
209
210
210
209
209
208
208
208
208
208
207
206
206
205
205
205
205
203
203
203
203
202
202
201
201
201
201
201
201
200
200
200
199
199
199
198
198
196
196
196
196
195
194
194
193
193
193
193
193
192
192
190
190
191
190
190
189
189
188
187
187
187
188
187
186
186
186
186
186
186
186
186
187
186
187
188
188
187
187
188
188
188
188
188
188
188
189
189
189
188
188
188
188
188
189
188
188
187
186
187
187
188
188
187
187
187
187
187
188
187
187
187
187
187
188
187
186
185
185
185
185
185
184
184
184
184
185
186
187
188
190
193
196
200
205
212
217
224
233
242
254
266
279
292
307
323
340
358
376
393
411
428
445
461
478
493
505
516
527
534
541
545
546
545
541
536
529
520
509
497
482
466
449
432
414
395
376
356
338
320
303
286
271
256
242
229
218
208
199
191
183
177
172
168
165
163
161
160
160
160
162
162
164
164
166
168
171
172
174
176
176
178
179
180
182
183
183
183
183
184
184
184
185
184
184
183
184
184
184
183
183
181
181
181
182
181
181
180
180
180
181
180
180
180
181
180
181
181
182
182
183
183
182
183
184
184
184
184
184
184
184
185
185
184
184
184
185
185
185
185
184
185
185
184
185
185
184
183
183
184
183
183
183
182
182
182
182
183
184
183
183
182
183
183
184
184
184
184
184
184
185
185
184
185
185
185
186
186
187
186
187
186
187
187
187
188
188
187
187
187
187
188
188
187
187
187
187
187
187
186
185
185
186
185
185
185
184
184
184
184
184
184
184
184
183
184
184
185
185
186
185
186
186
188
188
188
188
188
188
189
190
190
191
190
191
191
191
193
193
193
192
192
193
192
192
192
192
192
191
192
192
192
192
192
191
192
192
193
192
193
192
191
192
193
193
193
193
194
194
195
195
195
195
196
197
197
198
199
200
199
200
200
200
201
201
201
201
202
201
202
203
203
203
203
203
203
203
205
205
205
204
205
206
206
207
208
208
208
208
209
210
211
211
211
212
212
213
214
214
214
214
214
215
215
216
216
216
216
217
217
218
218
219
219
220
220
221
223
223
224
224
224
225
226
227
227
227
228
228
229
229
230
230
230
231
231
233
233
234
234
233
234
235
236
236
237
237
238
238
240
241
241
241
242
242
244
245
245
246
247
247
247
248
249
250
250
250
250
250
250
251
251
250
250
250
250
250
251
251
251
249
250
250
250
250
249
249
248
249
249
249
249
248
247
246
247
246
246
245
244
243
243
243
243
242
242
240
239
239
238
237
236
235
235
233
232
233
232
231
230
229
228
227
227
227
226
225
223
223
224
223
223
221
221
220
221
220
219
219
218
216
216
215
215
214
213
212
210
210
209
209
208
206
206
204
205
204
205
203
202
202
201
201
201
200
200
200
199
199
199
199
199
198
198
197
198
198
198
198
198
197
197
197
197
196
197
195
195
194
195
195
195
195
194
194
194
194
194
194
193
193
193
193
193
193
193
193
193
193
193
194
194
194
193
193
193
194
195
195
194
193
193
194
194
194
193
193
192
193
193
193
193
192
192
191
191
192
192
192
192
191
191
192
192
192
191
191
191
192
192
193
193
194
193
193
195
196
196
197
197
196
197
197
199
199
198
198
198
199
198
199
200
199
198
198
198
198
198
198
197
197
197
197
198
198
197
196
196
197
197
197
198
197
197
197
197
198
198
198
198
198
198
199
199
199
199
198
198
198
199
199
199
199
198
198
199
199
200
199
199
199
199
199
200
200
200
200
200
201
201
201
202
202
201
202
202
203
203
202
202
202
201
202
202
201
201
200
200
200
200
199
199
199
198
198
198
199
199
199
199
198
199
199
200
199
199
199
198
199
200
201
200
200
199
199
199
200
201
201
200
200
200
200
200
200
199
198
198
199
199
199
198
198
198
198
199
198
199
199
198
197
198
199
199
199
198
198
198
199
199
199
199
199
198
198
198
199
199
199
198
198
197
197
198
198
197
197
196
196
197
196
196
196
194
194
195
196
196
195
195
194
194
195
196
195
196
196
195
196
196
197
197
197
197
197
198
199
199
199
199
199
200
200
200
201
200
200
199
199
200
200
201
200
200
200
200
201
201
201
201
200
201
202
202
203
203
202
202
203
203
204
204
203
203
203
203
204
205
204
204
204
204
205
206
206
207
206
207
207
208
209
209
210
210
210
212
213
214
214
214
214
214
215
216
216
215
215
214
214
215
215
214
214
213
212
212
212
212
211
211
209
209
209
209
208
209
207
207
207
207
207
208
207
206
206
208
207
208
208
207
207
207
207
207
207
206
206
205
205
205
204
203
202
202
201
200
200
200
199
198
197
197
197
197
195
195
194
193
193
194
194
192
192
192
192
192
193
193
192
192
192
192
192
193
193
193
192
192
193
193
193
193
193
192
192
192
193
192
192
192
192
191
192
192
192
191
190
190
190
191
191
191
190
189
189
190
191
191
192
190
191
191
191
191
191
190
189
189
189
188
189
188
188
187
187
188
188
190
190
192
194
197
202
206
213
219
227
236
246
258
271
285
299
315
333
352
372
392
411
430
450
470
489
507
523
539
552
564
573
582
586
589
588
585
580
573
564
552
538
521
505
487
468
448
427
405
384
363
343
324
306
288
270
255
240
228
217
207
197
189
182
176
172
169
166
164
163
162
163
164
165
166
168
169
171
173
176
178
180
181
182
184
185
187
188
187
188
188
189
189
189
189
188
188
187
188
188
188
187
186
185
185
184
184
183
183
182
182
182
182
182
182
181
181
181
181
182
182
182
182
182
183
183
183
183
184
183
183
183
184
185
185
184
184
184
184
185
185
185
184
183
184
185
185
185
184
184
183
183
184
184
184
184
184
183
185
184
185
185
185
185
185
186
187
187
187
187
186
187
187
189
189
189
188
188
189
190
189
189
188
188
188
188
188
189
188
187
186
187
187
188
186
186
186
186
186
187
187
187
186
185
186
186
187
187
187
187
186
186
187
188
188
188
188
188
188
189
189
188
189
189
190
190
191
191
190
190
190
190
191
191
191
191
191
192
192
193
193
193
192
193
192
193
193
194
193
192
193
192
193
194
193
193
192
192
193
193
193
194
193
193
193
194
195
195
193
193
194
194
194
195
195
195
195
196
196
196
197
197
197
197
197
197
198
198
198
197
197
198
198
199
199
199
199
199
200
200
201
200
200
200
201
201
202
203
203
202
203
204
204
205
206
207
207
208
209
210
211
212
212
213
214
215
217
217
217
218
219
220
220
221
222
222
223
223
224
225
225
226
225
225
226
227
227
228
228
228
227
228
228
229
229
230
230
230
231
231
232
232
232
233
234
234
236
236
236
236
237
238
238
239
239
239
240
241
242
243
243
244
244
244
245
245
246
246
246
246
247
246
247
248
247
247
247
246
247
247
247
247
245
245
246
245
244
244
243
242
242
242
242
241
241
239
239
239
240
239
239
237
237
236
236
235
235
234
233
232
231
230
229
229
228
227
225
225
224
224
223
222
220
220
218
218
217
216
214
213
212
211
210
209
208
208
206
206
204
204
203
202
201
200
199
199
198
197
196
195
194
195
195
194
193
193
192
192
193
193
192
192
191
190
190
190
190
189
189
188
188
188
187
187
186
185
185
185
185
184
184
184
183
182
182
182
182
182
181
181
180
180
181
181
180
180
180
179
180
180
180
180
180
179
178
179
179
179
178
178
178
177
178
178
177
177
177
176
177
177
176
177
176
176
175
175
176
176
175
175
175
175
175
175
175
174
174
173
174
174
174
173
173
174
173
175
174
175
174
174
175
175
176
176
176
176
177
176
177
178
178
179
178
179
178
178
179
179
178
178
178
178
179
179
178
177
178
178
178
179
179
179
178
178
178
180
180
180
180
180
179
180
181
180
180
180
180
180
181
181
181
181
180
180
180
180
180
180
180
179
180
180
181
180
180
180
180
181
181
181
182
181
181
180
181
181
180
181
181
179
179
180
180
180
180
179
179
179
179
180
180
180
180
179
180
180
181
180
180
180
180
181
181
181
181
180
181
181
181
182
181
181
181
180
181
181
181
180
180
179
179
178
179
179
178
178
177
178
177
178
178
177
177
177
177
177
177
177
177
177
177
177
177
178
177
177
177
177
178
178
178
177
177
177
177
177
177
176
176
176
176
176
176
176
175
175
175
176
176
176
176
176
176
176
176
177
177
177
176
175
175
175
176
176
176
175
175
175
175
175
174
174
174
174
174
174
174
174
173
173
173
174
174
174
173
172
172
173
174
174
173
173
173
172
173
173
173
173
172
172
173
172
173
173
173
173
174
174
175
175
176
176
176
176
176
177
178
178
177
177
179
179
180
180
180
180
180
180
181
182
181
181
181
181
182
182
182
183
182
182
183
183
183
183
183
183
183
184
185
186
186
185
185
186
186
187
188
188
188
188
189
189
189
189
189
189
189
190
190
191
191
189
189
189
188
188
188
187
187
186
186
185
185
185
184
183
183
183
182
182
182
181
180
180
181
180
181
180
179
179
180
180
179
179
179
179
178
179
178
178
178
177
176
176
176
176
175
174
173
171
172
171
171
170
169
169
168
167
168
167
166
165
165
165
165
165
165
165
164
164
164
163
164
164
163
163
163
163
164
165
164
164
163
163
164
164
164
165
164
163
164
164
164
164
164
164
163
163
164
165
164
164
164
164
164
164
164
164
164
163
163
163
164
163
163
162
161
161
161
161
160
159
160
159
160
162
163
165
166
169
173
178
184
190
198
205
215
226
239
252
266
281
298
315
333
352
373
391
410
428
447
465
481
497
511
523
533
542
548
552
553
551
547
541
533
523
511
496
480
463
445
427
408
389
368
348
328
310
293
276
259
244
229
217
206
195
186
177
170
164
160
156
153
151
148
147
147
147
147
148
148
148
149
151
151
153
153
154
154
155
155
156
157
157
157
157
156
156
157
157
158
157
156
156
156
155
156
155
155
154
155
155
155
154
154
154
153
154
154
155
155
154
154
154
154
155
154
154
153
153
153
154
154
154
154
153
153
153
154
154
154
154
153
154
154
154
154
154
153
153
154
154
155
155
155
155
155
156
156
157
156
156
156
156
156
157
157
156
155
155
156
156
156
157
156
156
156
156
157
158
157
157
157
157
157
158
158
158
157
157
156
157
157
157
156
156
156
157
157
157
157
157
156
157
157
157
157
158
157
157
158
158
158
159
158
159
159
159
159
160
160
159
159
159
160
160
160
159
159
158
158
158
158
158
158
157
157
157
158
159
159
158
158
158
159
159
159
158
159
159
160
160
160
160
160
161
161
162
163
163
162
162
162
164
164
164
165
165
165
165
165
166
167
167
166
166
166
167
167
168
167
167
166
166
166
167
167
167
166
167
167
167
168
168
168
168
168
169
171
171
172
172
172
173
173
175
176
176
175
176
176
178
178
178
179
179
180
180
181
182
183
183
182
183
185
185
186
186
186
187
187
189
189
189
190
190
190
191
191
192
193
193
193
193
194
195
196
196
197
197
198
199
200
201
202
202
203
204
206
207
207
207
207
208
210
210
211
211
211
211
212
213
214
214
214
214
215
215
217
217
217
218
218
219
219
220
220
221
220
221
222
222
223
223
224
223
224
223
225
225
225
226
226
225
225
226
226
225
225
224
224
224
223
223
222
221
220
220
219
220
219
217
216
216
215
214
214
213
212
211
210
210
210
209
209
208
207
207
207
206
205
203
203
202
202
201
200
199
198
196
195
194
193
192
191
189
188
188
187
186
185
184
182
180
180
179
178
178
177
175
174
174
174
173
172
171
171
171
171
