# Simple Text Format
# Sampling Rate (Hz):= 1200.00
# Resolution:= 12
# Labels:= ECG	aVR
# Age:=	40
# Gender:=	Feminino
-264
-264
-263
-264
-265
-265
-265
-264
-263
-263
-264
-265
-264
-265
-264
-263
-263
-264
-265
-265
-264
-264
-264
-265
-265
-266
-266
-267
-266
-266
-268
-268
-269
-269
-269
-269
-269
-271
-271
-271
-270
-270
-270
-271
-271
-271
-271
-271
-270
-270
-270
-271
-270
-269
-269
-268
-269
-270
-270
-270
-269
-269
-269
-270
-272
-272
-272
-272
-271
-271
-273
-273
-274
-274
-273
-273
-273
-274
-274
-274
-274
-272
-272
-272
-273
-273
-273
-272
-272
-272
-272
-272
-272
-271
-271
-270
-271
-272
-272
-272
-272
-271
-272
-272
-274
-274
-274
-274
-274
-275
-275
-276
-276
-276
-276
-275
-275
-276
-277
-277
-277
-276
-276
-276
-278
-277
-278
-277
-277
-277
-278
-278
-278
-278
-277
-277
-277
-278
-278
-279
-277
-277
-277
-278
-278
-278
-277
-277
-276
-277
-277
-278
-278
-278
-278
-277
-277
-278
-278
-278
-278
-278
-278
-279
-280
-280
-280
-279
-279
-279
-279
-280
-280
-280
-278
-279
-279
-279
-280
-280
-280
-279
-279
-280
-280
-280
-280
-280
-279
-279
-280
-281
-281
-281
-280
-280
-280
-280
-281
-281
-281
-279
-279
-280
-281
-281
-281
-280
-280
-280
-281
-282
-283
-282
-281
-281
-281
-282
-283
-284
-283
-282
-282
-283
-283
-284
-284
-283
-283
-282
-283
-283
-283
-282
-282
-281
-281
-282
-282
-282
-282
-282
-281
-282
-282
-283
-283
-283
-283
-283
-284
-285
-285
-285
-284
-284
-285
-286
-286
-286
-285
-285
-285
-284
-285
-286
-286
-285
-283
-284
-284
-284
-285
-284
-283
-283
-283
-283
-285
-285
-283
-283
-283
-284
-285
-286
-286
-286
-285
-285
-286
-287
-287
-287
-287
-286
-286
-287
-287
-287
-287
-286
-287
-287
-288
-288
-287
-287
-286
-287
-287
-288
-289
-288
-288
-287
-287
-288
-289
-289
-288
-288
-287
-287
-289
-289
-289
-289
-288
-288
-288
-289
-289
-288
-287
-287
-287
-288
-288
-288
-288
-288
-287
-288
-289
-289
-289
-288
-288
-288
-288
-290
-290
-289
-289
-289
-289
-289
-291
-291
-289
-289
-289
-290
-290
-291
-291
-290
-290
-289
-290
-291
-290
-290
-289
-289
-289
-290
-290
-290
-289
-289
-289
-289
-290
-291
-291
-289
-289
-289
-290
-291
-291
-291
-291
-290
-290
-292
-292
-293
-292
-292
-292
-293
-294
-294
-294
-294
-294
-294
-295
-296
-296
-295
-295
-294
-294
-295
-296
-295
-295
-294
-294
-294
-294
-293
-292
-289
-287
-286
-285
-286
-285
-283
-279
-275
-273
-269
-266
-262
-257
-252
-249
-247
-245
-244
-242
-239
-236
-234
-233
-234
-233
-232
-232
-233
-235
-238
-243
-246
-248
-251
-254
-258
-261
-265
-268
-271
-273
-277
-280
-283
-286
-288
-289
-290
-292
-294
-296
-297
-298
-298
-298
-299
-301
-301
-302
-303
-303
-305
-307
-310
-312
-314
-315
-317
-319
-321
-325
-327
-328
-330
-333
-336
-339
-341
-343
-343
-343
-343
-345
-345
-344
-344
-343
-341
-341
-340
-340
-338
-335
-333
-331
-330
-328
-327
-325
-323
-321
-319
-318
-318
-317
-317
-315
-315
-316
-317
-318
-319
-320
-321
-322
-324
-327
-329
-331
-332
-333
-335
-338
-340
-341
-342
-342
-342
-344
-345
-346
-346
-346
-345
-344
-345
-345
-345
-344
-342
-341
-340
-340
-340
-340
-338
-337
-335
-335
-335
-334
-332
-330
-329
-329
-328
-328
-327
-327
-325
-325
-324
-324
-323
-323
-321
-320
-319
-318
-318
-318
-317
-316
-314
-313
-313
-313
-312
-311
-310
-308
-308
-309
-308
-308
-308
-307
-306
-306
-307
-307
-308
-307
-307
-306
-307
-308
-309
-309
-309
-309
-309
-309
-311
-311
-310
-310
-309
-310
-310
-311
-311
-309
-308
-308
-308
-308
-308
-307
-306
-305
-304
-304
-304
-303
-301
-300
-299
-299
-299
-299
-298
-297
-296
-296
-297
-297
-297
-297
-296
-297
-296
-298
-298
-298
-298
-297
-296
-297
-297
-298
-298
-298
-297
-297
-297
-298
-298
-298
-297
-297
-296
-298
-299
-299
-300
-299
-300
-301
-303
-305
-307
-309
-310
-313
-317
-320
-325
-329
-333
-337
-342
-348
-353
-359
-365
-371
-377
-384
-391
-399
-406
-412
-418
-424
-430
-436
-441
-445
-447
-449
-450
-452
-451
-450
-447
-443
-437
-432
-426
-419
-411
-403
-393
-383
-375
-366
-357
-348
-339
-329
-322
-315
-310
-304
-297
-292
-287
-285
-282
-281
-279
-277
-276
-275
-276
-277
-278
-279
-279
-280
-282
-283
-285
-286
-287
-288
-289
-290
-290
-292
-293
-293
-293
-294
-295
-296
-296
-296
-296
-295
-295
-294
-294
-293
-292
-290
-289
-289
-288
-287
-285
-281
-277
-274
-272
-269
-265
-262
-259
-255
-255
-253
-252
-250
-248
-247
-246
-246
-248
-250
-252
-253
-256
-259
-263
-267
-270
-273
-275
-278
-280
-283
-286
-289
-290
-290
-292
-292
-294
-295
-295
-294
-293
-293
-294
-294
-294
-293
-293
-293
-294
-294
-295
-296
-296
-295
-296
-297
-298
-300
-300
-301
-300
-300
-301
-302
-303
-302
-302
-301
-302
-302
-302
-301
-300
-298
-297
-296
-296
-296
-295
-294
-294
-293
-293
-293
-294
-294
-294
-294
-296
-297
-299
-300
-300
-300
-301
-302
-304
-305
-305
-306
-306
-307
-308
-309
-308
-308
-307
-306
-306
-307
-307
-307
-306
-306
-305
-305
-306
-307
-307
-306
-304
-303
-303
-304
-303
-302
-301
-300
-299
-300
-301
-300
-299
-298
-297
-297
-297
-296
-296
-295
-295
-295
-297
-299
-299
-299
-299
-299
-300
-300
-302
-303
-303
-303
-304
-304
-306
-307
-307
-307
-308
-309
-310
-311
-313
-314
-314
-315
-316
-317
-319
-320
-320
-320
-321
-322
-324
-324
-324
-324
-325
-324
-325
-326
-326
-326
-325
-325
-326
-327
-327
-327
-327
-326
-326
-327
-327
-328
-328
-328
-328
-328
-329
-330
-331
-331
-331
-331
-332
-333
-334
-335
-335
-335
-336
-337
-338
-340
-340
-342
-342
-343
-344
-346
-348
-348
-349
-349
-350
-352
-354
-355
-355
-356
-356
-357
-359
-360
-361
-361
-362
-362
-364
-366
-367
-367
-368
-368
-369
-371
-373
-374
-374
-375
-374
-375
-377
-377
-378
-377
-377
-376
-376
-377
-377
-377
-376
-376
-375
-376
-375
-376
-374
-373
-373
-373
-373
-374
-374
-373
-373
-373
-373
-374
-374
-373
-372
-373
-372
-373
-373
-373
-372
-371
-370
-370
-370
-370
-370
-368
-366
-366
-365
-365
-365
-362
-361
-360
-358
-358
-357
-356
-354
-351
-349
-349
-348
-347
-346
-343
-342
-341
-340
-339
-339
-337
-336
-335
-334
-335
-334
-333
-332
-331
-330
-329
-330
-330
-330
-329
-329
-329
-329
-330
-329
-329
-328
-327
-328
-328
-328
-328
-328
-327
-326
-325
-326
-326
-326
-325
-325
-325
-325
-326
-326
-326
-325
-325
-325
-326
-327
-328
-328
-327
-327
-328
-328
-329
-329
-328
-328
-328
-328
-328
-328
-327
-326
-325
-325
-325
-325
-324
-323
-322
-321
-321
-321
-321
-320
-320
-318
-318
-318
-318
-318
-318
-317
-316
-316
-316
-317
-315
-315
-315
-314
-314
-314
-314
-314
-314
-313
-313
-314
-314
-315
-314
-314
-313
-314
-316
-316
-316
-316
-316
-316
-316
-317
-318
-318
-317
-317
-316
-317
-318
-318
-318
-317
-316
-316
-316
-316
-316
-315
-315
-314
-314
-314
-315
-315
-313
-313
-313
-314
-315
-315
-315
-315
-315
-315
-316
-317
-317
-317
-317
-317
-317
-319
-319
-320
-319
-319
-319
-320
-321
-322
-321
-320
-320
-320
-321
-321
-321
-320
-320
-319
-319
-319
-319
-319
-317
-317
-317
-317
-317
-318
-317
-316
-316
-316
-317
-317
-317
-316
-316
-315
-316
-316
-317
-316
-316
-316
-316
-316
-318
-318
-318
-317
-317
-317
-318
-318
-318
-319
-318
-318
-318
-320
-320
-321
-321
-321
-321
-322
-323
-324
-323
-323
-323
-323
-324
-325
-325
-325
-324
-324
-324
-325
-325
-325
-324
-323
-323
-324
-324
-325
-324
-323
-323
-323
-323
-324
-324
-323
-323
-322
-322
-322
-322
-321
-321
-320
-320
-321
-321
-320
-321
-320
-319
-319
-320
-321
-321
-320
-320
-319
-319
-321
-321
-321
-320
-320
-320
-321
-321
-322
-321
-320
-320
-320
-321
-321
-321
-320
-318
-319
-318
-318
-319
-319
-318
-318
-317
-317
-318
-318
-318
-317
-316
-317
-318
-319
-318
-318
-317
-317
-317
-317
-318
-318
-318
-317
-317
-317
-319
-318
-318
-317
-316
-317
-317
-317
-317
-316
-316
-315
-315
-316
-316
-315
-315
-314
-314
-315
-315
-315
-315
-314
-313
-314
-315
-315
-315
-315
-314
-314
-314
-315
-315
-314
-313
-313
-313
-313
-313
-314
-312
-312
-311
-311
-311
-312
-312
-312
-310
-310
-310
-311
-312
-311
-310
-310
-310
-310
-310
-311
-311
-311
-310
-310
-311
-312
-311
-311
-311
-310
-310
-310
-311
-311
-311
-310
-310
-311
-311
-311
-311
-310
-309
-309
-310
-310
-310
-309
-308
-308
-307
-308
-308
-307
-307
-307
-307
-307
-308
-308
-308
-307
-306
-307
-308
-308
-309
-308
-308
-307
-308
-309
-308
-309
-308
-307
-307
-308
-308
-309
-308
-308
-307
-307
-309
-309
-309
-308
-307
-307
-307
-308
-308
-309
-308
-307
-307
-308
-308
-308
-308
-307
-306
-307
-308
-308
-308
-308
-308
-307
-307
-307
-308
-308
-306
-306
-306
-307
-308
-308
-308
-307
-308
-307
-308
-309
-309
-308
-308
-308
-309
-310
-310
-311
-309
-309
-309
-310
-310
-310
-309
-308
-307
-308
-308
-308
-308
-306
-306
-305
-304
-304
-305
-304
-303
-303
-302
-302
-302
-302
-302
-302
-302
-302
-302
-303
-302
-302
-302
-301
-302
-303
-304
-304
-304
-304
-304
-305
-305
-306
-306
-305
-305
-306
-306
-306
-306
-306
-305
-304
-305
-305
-305
-304
-304
-303
-303
-303
-305
-304
-304
-304
-303
-304
-304
-305
-305
-305
-304
-304
-305
-305
-306
-306
-306
-305
-305
-306
-306
-306
-305
-305
-303
-304
-305
-305
-304
-303
-303
-302
-303
-303
-303
-302
-302
-302
-302
-302
-304
-303
-303
-303
-302
-303
-303
-304
-304
-303
-303
-302
-303
-303
-304
-304
-302
-301
-301
-302
-302
-302
-302
-301
-301
-301
-302
-303
-302
-301
-301
-301
-300
-301
-301
-301
-300
-300
-300
-300
-301
-300
-300
-299
-299
-299
-300
-300
-300
-300
-299
-299
-300
-300
-301
-300
-300
-300
-300
-301
-302
-302
-302
-302
-301
-301
-302
-302
-302
-302
-300
-301
-300
-301
-301
-301
-301
-300
-300
-301
-301
-302
-302
-301
-300
-301
-302
-304
-303
-304
-304
-304
-306
-307
-308
-308
-309
-310
-311
-311
-313
-314
-315
-315
-315
-316
-317
-318
-318
-317
-317
-317
-318
-318
-320
-320
-319
-318
-318
-320
-320
-320
-320
-320
-320
-320
-321
-322
-322
-321
-320
-321
-321
-321
-321
-321
-320
-319
-318
-319
-318
-318
-317
-317
-316
-316
-315
-316
-315
-314
-313
-313
-313
-313
-313
-313
-311
-311
-310
-310
-310
-310
-309
-307
-307
-306
-306
-306
-305
-304
-302
-302
-300
-300
-300
-299
-298
-296
-295
-295
-294
-294
-292
-291
-289
-289
-290
-289
-288
-288
-287
-286
-286
-287
-286
-287
-286
-285
-285
-286
-287
-287
-287
-287
-286
-286
-287
-287
-287
-286
-286
-285
-284
-286
-285
-285
-284
-283
-283
-284
-284
-284
-284
-283
-282
-282
-283
-284
-284
-283
-283
-283
-283
-284
-285
-284
-284
-283
-283
-284
-284
-284
-284
-282
-282
-282
-282
-283
-282
-282
-281
-281
-281
-281
-282
-281
-281
-280
-281
-282
-283
-283
-284
-284
-284
-285
-287
-289
-291
-293
-294
-297
-301
-304
-309
-313
-316
-320
-325
-330
-337
-342
-348
-353
-359
-366
-374
-381
-388
-394
-400
-406
-413
-419
-424
-429
-431
-434
-437
-439
-439
-440
-438
-435
-431
-427
-422
-416
-408
-400
-390
-381
-372
-363
-353
-343
-333
-323
-315
-307
-300
-294
-287
-281
-276
-272
-270
-268
-266
-264
-261
-261
-261
-263
-264
-264
-264
-265
-266
-269
-270
-272
-272
-273
-273
-274
-276
-278
-278
-278
-278
-277
-278
-279
-279
-280
-280
-278
-278
-279
-279
-280
-279
-279
-279
-279
-279
-280
-279
-278
-278
-277
-277
-278
-278
-279
-278
-277
-277
-278
-279
-278
-278
-277
-277
-277
-278
-278
-277
-277
-277
-276
-277
-277
-277
-277
-276
-276
-275
-277
-277
-278
-277
-277
-276
-277
-278
-278
-278
-278
-277
-277
-277
-277
-278
-278
-277
-277
-277
-277
-278
-277
-278
-276
-277
-276
-277
-278
-278
-278
-277
-277
-277
-278
-278
-279
-278
-277
-278
-278
-279
-280
-279
-279
-280
-279
-280
-280
-280
-280
-279
-279
-279
-280
-280
-280
-279
-279
-279
-278
-279
-279
-279
-278
-278
-278
-278
-278
-278
-278
-277
-277
-277
-279
-278
-279
-278
-277
-278
-278
-279
-280
-279
-279
-278
-279
-280
-281
-281
-281
-279
-280
-280
-281
-282
-282
-282
-281
-282
-282
-283
-283
-283
-282
-282
-282
-283
-282
-282
-282
-281
-281
-281
-281
-282
-282
-280
-280
-279
-280
-281
-281
-281
-281
-280
-281
-282
-282
-282
-282
-282
-282
-282
-283
-284
-284
-284
-284
-285
-285
-286
-287
-286
-286
-287
-287
-288
-288
-289
-288
-288
-288
-288
-290
-290
-291
-290
-290
-290
-292
-292
-293
-293
-293
-292
-293
-294
-295
-296
-295
-295
-295
-296
-296
-298
-298
-298
-297
-298
-299
-300
-301
-301
-301
-302
-303
-303
-305
-305
-305
-305
-305
-306
-308
-308
-308
-309
-310
-310
-312
-313
-314
-315
-315
-315
-316
-318
-319
-320
-320
-320
-320
-321
-323
-323
-323
-324
-323
-324
-325
-325
-326
-326
-326
-326
-327
-327
-328
-328
-328
-328
-328
-329
-330
-331
-332
-332
-332
-333
-333
-335
-336
-336
-336
-336
-336
-337
-338
-338
-338
-337
-337
-338
-338
-338
-338
-338
-337
-337
-337
-337
-338
-337
-336
-335
-336
-336
-335
-335
-335
-333
-332
-332
-332
-331
-330
-329
-328
-327
-326
-326
-324
-323
-322
-320
-319
-318
-317
-316
-314
-312
-311
-310
-309
-309
-307
-305
-304
-303
-302
-303
-301
-300
-298
-297
-296
-296
-295
-294
-293
-292
-291
-291
-290
-290
-289
-288
-286
-286
-285
-286
-285
-285
-283
-283
-283
-283
-283
-282
-282
-280
-279
-279
-279
-280
-279
-278
-277
-276
-276
-277
-277
-276
-276
-275
-275
-276
-276
-275
-275
-275
-274
-275
-275
-276
-275
-275
-274
-274
-274
-275
-276
-275
-275
-274
-274
-275
-275
-274
-274
-273
-273
-273
-274
-274
-273
-273
-273
-273
-273
-274
-274
-274
-274
-273
-274
-275
-275
-275
-275
-275
-274
-275
-275
-276
-276
-275
-275
-275
-275
-276
-275
-274
-274
-273
-272
-273
-273
-273
-272
-271
-271
-271
-272
-272
-272
-271
-271
-272
-272
-273
-274
-274
-274
-273
-274
-275
-276
-276
-276
-275
-275
-275
-276
-276
-276
-276
-274
-274
-275
-276
-276
-276
-276
-275
-275
-276
-277
-277
-276
-275
-275
-276
-276
-276
-277
-276
-276
-275
-276
-276
-277
-276
-276
-276
-277
-277
-277
-277
-277
-276
-275
-276
-276
-277
-277
-276
-276
-276
-276
-276
-276
-276
-275
-275
-275
-276
-275
-275
-275
-275
-275
-274
-276
-276
-276
-276
-275
-276
-276
-276
-277
-276
-276
-275
-276
-276
-276
-276
-276
-275
-275
-275
-276
-276
-275
-275
-274
-274
-276
-276
-276
-276
-276
-275
-276
-277
-277
-277
-276
-276
-276
-276
-276
-277
-277
-276
-275
-275
-276
-276
-276
-276
-275
-275
-275
-276
-276
-277
-275
-275
-274
-275
-276
-276
-276
-276
-275
-275
-276
-277
-277
-277
-276
-276
-276
-276
-277
-277
-277
-276
-276
-276
-277
-278
-277
-277
-276
-276
-277
-277
-277
-278
-276
-276
-276
-276
-276
-276
-276
-275
-274
-275
-275
-275
-274
-274
-273
-273
-273
-274
-273
-274
-273
-273
-273
-274
-274
-274
-274
-273
-274
-274
-275
-275
-275
-275
-274
-274
-275
-276
-276
-276
-275
-275
-275
-275
-276
-275
-275
-273
-273
-273
-274
-274
-275
-273
-273
-273
-274
-274
-275
-275
-275
-274
-274
-275
-276
-276
-276
-275
-275
-276
-276
-277
-276
-276
-275
-275
-275
-276
-275
-274
-274
-273
-274
-274
-274
-274
-272
-272
-271
-271
-271
-272
-272
-271
-270
-270
-271
-272
-272
-273
-272
-273
-273
-275
-276
-275
-275
-276
-277
-277
-279
-281
-281
-281
-281
-282
-283
-284
-285
-285
-284
-284
-284
-285
-285
-283
-282
-281
-280
-280
-280
-280
-279
-279
-278
-278
-279
-280
-280
-280
-279
-280
-281
-283
-284
-284
-285
-285
-286
-287
-288
-289
-289
-289
-289
-289
-290
-290
-290
-289
-289
-288
-289
-289
-289
-289
-288
-288
-287
-287
-287
-288
-287
-287
-286
-286
-287
-287
-287
-287
-287
-286
-287
-287
-288
-288
-286
-286
-286
-286
-286
-286
-285
-285
-284
-283
-284
-284
-283
-283
-281
-281
-281
-282
-282
-281
-280
-280
-279
-279
-280
-280
-279
-279
-279
-279
-279
-280
-281
-280
-279
-279
-279
-280
-279
-279
-279
-278
-278
-278
-279
-280
-279
-279
-278
-279
-279
-280
-281
-280
-280
-280
-281
-281
-282
-282
-281
-281
-281
-282
-282
-282
-281
-281
-280
-279
-279
-279
-279
-278
-277
-276
-277
-277
-277
-277
-276
-275
-275
-275
-276
-276
-276
-276
-275
-275
-276
-276
-276
-275
-275
-274
-275
-275
-275
-275
-273
-273
-272
-272
-272
-272
-271
-271
-270
-270
-270
-270
-270
-269
-269
-268
-269
-271
-270
-271
-270
-270
-270
-270
-270
-271
-270
-270
-270
-270
-270
-271
-271
-271
-269
-269
-270
-270
-271
-270
-269
-269
-268
-269
-269
-270
-270
-269
-269
-269
-270
-271
-271
-270
-270
-269
-270
-271
-271
-270
-270
-269
-268
-269
-269
-270
-270
-269
-270
-270
-270
-271
-271
-271
-270
-270
-270
-271
-271
-272
-271
-270
-270
-271
-271
-272
-271
-270
-269
-269
-269
-270
-270
-269
-268
-267
-268
-268
-268
-268
-267
-267
-267
-266
-267
-267
-266
-266
-265
-265
-266
-267
-267
-267
-266
-266
-266
-266
-267
-268
-266
-266
-265
-266
-267
-267
-267
-266
-266
-266
-266
-267
-267
-267
-266
-265
-266
-267
-268
-268
-268
-268
-268
-269
-270
-272
-272
-272
-273
-274
-275
-276
-277
-277
-277
-277
-278
-279
-280
-280
-281
-280
-280
-281
-281
-283
-282
-283
-282
-283
-284
-284
-285
-286
-285
-286
-287
-287
-288
-289
-289
-287
-288
-289
-289
-289
-290
-288
-288
-287
-288
-287
-287
-287
-286
-285
-285
-285
-284
-284
-283
-282
-281
-281
-281
-281
-280
-278
-278
-278
-277
-278
-277
-276
-275
-274
-274
-274
-273
-272
-271
-270
-269
-268
-268
-268
-267
-265
-263
-263
-263
-263
-262
-261
-259
-259
-258
-258
-258
-257
-256
-255
-254
-254
-254
-254
-253
-253
-253
-252
-252
-253
-252
-252
-251
-250
-251
-251
-251
-251
-250
-249
-249
-249
-249
-250
-249
-248
-248
-248
-248
-248
-248
-247
-247
-246
-247
-247
-248
-247
-247
-246
-246
-246
-247
-247
-247
-246
-246
-246
-247
-247
-248
-248
-248
-247
-249
-249
-250
-251
-250
-249
-250
-250
-251
-252
-251
-250
-249
-250
-250
-251
-252
-250
-251
-250
-251
-253
-254
-254
-255
-255
-256
-258
-261
-264
-266
-269
-272
-276
-280
-284
-289
-293
-298
-304
-309
-316
-323
-329
-336
-342
-349
-356
-365
-372
-378
-383
-389
-395
-400
-404
-407
-409
-409
-409
-409
-408
-405
-400
-394
-387
-380
-371
-363
-354
-344
-334
-323
-313
-303
-294
-285
-276
-267
-259
-252
-247
-242
-237
-233
-229
-227
-225
-225
-224
-223
-223
-223
-223
-225
-227
-228
-229
-230
-231
-232
-234
-235
-237
-236
-237
-237
-238
-240
-241
-240
-240
-240
-239
-240
-241
-241
-240
-240
-240
-240
-241
-240
-241
-240
-239
-240
-240
-240
-241
-240
-240
-239
-239
-240
-241
-241
-240
-240
-239
-240
-240
-240
-240
-239
-238
-238
-238
-239
-238
-239
-237
-237
-237
-237
-238
-239
-238
-238
-237
-238
-239
-239
-239
-238
-237
-238
-237
-238
-238
-238
-237
-237
-236
-237
-237
-237
-236
-236
-235
-236
-237
-237
-237
-236
-235
-236
-235
-237
-237
-237
-236
-235
-235
-236
-236
-237
-236
-236
-235
-236
-236
-237
-236
-236
-236
-235
-236
-237
-237
-236
-236
-236
-235
-235
-236
-236
-236
-235
-235
-235
-236
-236
-236
-235
-234
-234
-235
-235
-236
-235
-234
-234
-234
-235
-235
-236
-235
-234
-235
-234
-235
-236
-237
-236
-236
-235
-236
-237
-237
-238
-237
-237
-237
-238
-239
-239
-239
-239
-238
-239
-240
-240
-239
-239
-238
-238
-238
-238
-239
-238
-237
-237
-236
-236
-237
-237
-236
-236
-235
-235
-236
-236
-236
-236
-235
-235
-236
-236
-237
-237
-237
-238
-238
-239
-240
-240
-241
-241
-240
-241
-242
-243
-243
-243
-241
-242
-242
-243
-243
-244
-242
-242
-243
-244
-244
-244
-245
-244
-244
-245
-245
-246
-246
-246
-246
-245
-246
-247
-248
-248
-248
-247
-248
-249
-250
-251
-250
-250
-250
-251
-253
-254
-254
-255
-254
-255
-256
-257
-258
-258
-259
-258
-259
-261
-261
-262
-262
-262
-262
-263
-264
-266
-266
-265
-265
-266
-267
-268
-270
-269
-270
-269
-271
-271
-273
-274
-274
-274
-275
-276
-276
-278
-278
-278
-277
-278
-278
-280
-281
-280
-279
-279
-280
-280
-281
-281
-282
-281
-280
-281
-282
-282
-282
-282
-282
-282
-283
-283
-284
-283
-283
-283
-283
-283
-283
-283
-283
-282
-282
-282
-282
-281
-281
-279
-278
-277
-277
-277
-276
-275
-273
-273
-272
-272
-271
-271
-269
-267
-266
-265
-265
-264
-263
-261
-259
-257
-257
-256
-255
-254
-251
-249
-248
-247
-247
-245
-245
-242
-241
-240
-239
-239
-238
-235
-234
-233
-233
-232
-232
-230
-229
-227
-227
-227
-227
-227
-225
-224
-224
-224
-223
-223
-222
-222
-220
-220
-219
-220
-219
-218
-217
-216
-216
-216
-217
-216
-215
-215
-214
-213
-214
-214
-214
-213
-212
-212
-213
-213
-214
-213
-213
-213
-213
-214
-215
-215
-214
-214
-214
-214
-214
-215
-214
-214
-213
-213
-214
-214
-214
-213
-213
-212
-212
-212
-212
-213
-212
-211
-211
-211
-211
-212
-211
-211
-210
-209
-210
-211
-211
-210
-210
-209
-209
-210
-210
-210
-209
-209
-208
-209
-209
-209
-209
-209
-208
-207
-208
-208
-209
-209
-208
-208
-208
-209
-210
-211
-210
-210
-209
-210
-211
-211
-211
-210
-210
-210
-210
-210
-211
-210
-210
-209
-209
-209
-210
-209
-210
-208
-208
-208
-209
-210
-209
-209
-208
-208
-209
-210
-210
-210
-209
-209
-209
-209
-210
-210
-209
-209
-208
-209
-209
-209
-209
-207
-207
-207
-206
-207
-207
-207
-206
-205
-206
-207
-207
-207
-206
-206
-206
-206
-208
-207
-207
-207
-207
-206
-207
-208
-207
-208
-207
-206
-206
-207
-207
-207
-207
-206
-206
-206
-207
-206
-207
-205
-205
-204
-205
-205
-205
-205
-204
-204
-204
-204
-205
-205
-204
-204
-204
-204
-205
-205
-205
-204
-204
-204
-204
-205
-206
-205
-205
-204
-204
-205
-205
-205
-204
-204
-203
-204
-204
-204
-204
-203
-202
-202
-202
-203
-203
-203
-202
-202
-202
-203
-203
-203
-203
-203
-202
-203
-204
-204
-203
-203
-203
-202
-203
-203
-203
-203
-201
-201
-202
-201
-201
-202
-201
-200
-200
-199
-201
-200
-200
-199
-199
-198
-199
-199
-199
-199
-198
-197
-197
-198
-199
-199
-199
-197
-197
-198
-198
-198
-198
-198
-198
-197
-197
-198
-198
-197
-197
-196
-196
-196
-196
-196
-195
-195
-194
-193
-194
-194
-193
-193
-192
-191
-191
-192
-193
-192
-191
-191
-191
-191
-192
-192
-191
-191
-191
-191
-192
-193
-192
-192
-191
-192
-192
-193
-193
-193
-192
-191
-191
-192
-192
-192
-191
-191
-190
-191
-191
-191
-190
-189
-188
-188
-188
-188
-189
-188
-187
-186
-186
-187
-187
-188
-188
-187
-186
-187
-188
-188
-188
-187
-186
-187
-187
-187
-188
-188
-187
-187
-187
-187
-188
-188
-187
-187
-187
-186
-187
-187
-187
-185
-185
-184
-185
-185
-185
-184
-183
-182
-182
-183
-182
-182
-181
-181
-180
-181
-181
-181
-181
-180
-180
-179
-180
-181
-181
-181
-179
-179
-179
-180
-180
-181
-181
-179
-180
-179
-179
-180
-179
-179
-179
-178
-179
-179
-179
-178
-177
-176
-176
-176
-177
-177
-175
-174
-174
-175
-175
-175
-174
-174
-173
-173
-174
-174
-174
-174
-173
-172
-172
-173
-174
-174
-174
-173
-173
-173
-174
-174
-174
-173
-173
-173
-173
-173
-174
-173
-173
-173
-173
-173
-174
-174
-173
-172
-171
-172
-172
-172
-172
-171
-170
-170
-170
-171
-170
-170
-169
-168
-168
-168
-169
-169
-168
-167
-168
-168
-169
-170
-169
-168
-168
-168
-169
-169
-169
-170
-169
-169
-169
-170
-170
-170
-169
-169
-168
-167
-167
-168
-166
-166
-165
-164
-164
-164
-164
-163
-162
-162
-162
-161
-162
-162
-161
-161
-160
-161
-162
-162
-162
-161
-161
-161
-161
-162
-163
-162
-161
-161
-162
-161
-162
-163
-163
-161
-161
-162
-162
-162
-163
-161
-161
-161
-160
-161
-162
-161
-160
-159
-159
-159
-159
-159
-158
-158
-157
-157
-158
-158
-157
-157
-157
-157
-157
-158
-158
-157
-157
-157
-157
-158
-158
-159
-158
-158
-158
-158
-159
-159
-158
-158
-157
-157
-156
-157
-157
-157
-156
-156
-156
-156
-156
-156
-155
-155
-154
-155
-155
-155
-155
-154
-153
-153
-154
-154
-155
-154
-154
-154
-154
-154
-155
-154
-154
-153
-153
-153
-153
-154
-153
-153
-153
-152
-153
-153
-153
-152
-152
-151
-152
-152
-153
-153
-152
-151
-151
-152
-152
-152
-152
-151
-151
-152
-151
-153
-153
-152
-152
-151
-151
-152
-152
-153
-152
-152
-151
-152
-153
-153
-153
-153
-152
-152
-153
-154
-155
-155
-155
-155
-156
-157
-159
-161
-161
-162
-162
-164
-165
-167
-168
-167
-168
-168
-169
-170
-171
-171
-171
-172
-172
-173
-173
-174
-173
-173
-173
-174
-174
-175
-175
-175
-174
-175
-175
-177
-177
-177
-177
-176
-176
-177
-177
-177
-176
-176
-174
-174
-175
-174
-174
-173
-172
-171
-171
-171
-171
-169
-168
-167
-167
-167
-167
-167
-165
-164
-164
-163
-164
-163
-162
-161
-159
-158
-158
-158
-158
-157
-155
-154
-154
-153
-154
-153
-151
-151
-150
-149
-150
-149
-149
-148
-147
-146
-146
-146
-146
-145
-145
-144
-144
-145
-145
-145
-145
-143
-144
-143
-144
-144
-143
-143
-142
-141
-142
-142
-143
-142
-142
-141
-141
-142
-142
-142
-142
-141
-141
-141
-142
-143
-142
-142
-142
-141
-142
-142
-143
-142
-142
-141
-141
-142
-142
-143
-142
-142
-142
-142
-143
-143
-143
-143
-143
-142
-142
-144
-144
-143
-143
-143
-143
-144
-144
-144
-144
-144
-144
-144
-146
-146
-147
-147
-148
-149
-151
-154
-156
-158
-161
-164
-167
-172
-177
-182
-185
-190
-195
-201
-206
-213
-219
-224
-231
-237
-245
-253
-260
-266
-273
-279
-285
-291
-297
-302
-304
-306
-308
-309
-310
-309
-306
-302
-298
-291
-286
-279
-271
-262
-252
-242
-233
-223
-214
-205
-195
-186
-177
-169
-163
-156
-150
-144
-139
-135
-132
-131
-129
-127
-125
-125
-125
-126
-128
-129
-129
-131
-132
-134
-136
-138
-139
-140
-140
-142
-144
-146
-146
-146
-146
-147
-147
-148
-149
-150
-149
-149
-148
-149
-150
-150
-149
-149
-148
-149
-149
-150
-149
-150
-149
-149
-148
-149
-150
-150
-150
-150
-149
-150
-151
-151
-151
-151
-150
-150
-151
-151
-152
-151
-151
-150
-151
-151
-152
-151
-151
-151
-150
-150
-151
-151
-151
-151
-150
-150
-151
-151
-152
-152
-152
-151
-151
-152
-153
-154
-153
-153
-153
-152
-154
-154
-154
-154
-154
-153
-153
-155
-155
-154
-154
-154
-154
-154
-155
-155
-155
-155
-154
-155
-156
-156
-156
-155
-155
-155
-156
-156
-157
-156
-156
-155
-155
-156
-157
-157
-157
-156
-155
-156
-157
-158
-157
-156
-156
-156
-156
-158
-158
-158
-157
-157
-157
-158
-158
-159
-160
-159
-159
-159
-161
-160
-160
-160
-160
-160
-160
-161
-161
-161
-160
-160
-159
-161
-161
-161
-162
-161
-161
-161
-163
-163
-164
-163
-163
-162
-163
-165
-165
-165
-165
-165
-166
-166
-166
-167
-168
-167
-167
-168
-168
-169
-169
-169
-169
-169
-170
-170
-171
-170
-170
-170
-170
-170
-172
-171
-172
-170
-170
-171
-171
-172
-172
-171
-171
-171
-172
-173
-174
-173
-173
-173
-173
-175
-175
-176
-177
-177
-177
-178
-180
-180
-180
-181
-181
-181
-182
-183
-184
-184
-184
-184
-185
-186
-187
-187
-187
-187
-187
-189
-189
-191
-191
-191
-192
-192
-194
-195
-196
-196
-197
-198
-199
-200
-202
-203
-203
-204
-204
-206
-207
-208
-209
-208
-209
-209
-211
-212
-212
-212
-212
-212
-213
-214
-215
-216
-216
-216
-216
-218
-219
-219
-220
-221
-220
-222
-222
-225
-225
-226
-225
-226
-227
-228
-230
-231
-231
-231
-231
-232
-233
-234
-234
-233
-233
-233
-234
-234
-236
-235
-234
-234
-235
-235
-235
-235
-235
-235
-234
-234
-235
-234
-234
-233
-233
-232
-232
-232
-231
-230
-229
-228
-227
-228
-227
-226
-225
-223
-222
-221
-221
-221
-219
-218
-216
-215
-214
-214
-213
-212
-210
-208
-207
-207
-206
-205
-203
-201
-200
-199
-199
-197
-196
-195
-193
-192
-192
-191
-191
-190
-188
-187
-187
-186
-187
-187
-185
-185
-184
-184
-184
-184
-183
-183
-181
-180
-181
-181
-181
-180
-179
-178
-177
-177
-178
-177
-176
-176
-175
-174
-176
-175
-174
-174
-174
-173
-174
-174
-175
-174
-174
-173
-173
-174
-175
-175
-175
-174
-174
-174
-176
-176
-175
-175
-174
-175
-175
-177
-177
-177
-176
-176
-177
-177
-178
-177
-178
-177
-176
-177
-177
-178
-178
-176
-175
-175
-175
-176
-175
-175
-174
-174
-174
-174
-174
-175
-174
-174
-174
-175
-175
-176
-176
-176
-176
-176
-177
-177
-178
-178
-176
-177
-177
-177
-177
-178
-177
-177
-176
-177
-177
-177
-177
-176
-176
-176
-177
-177
-178
-178
-177
-177
-177
-179
-179
-180
-179
-179
-179
-179
-180
-181
-181
-180
-179
-179
-180
-180
-180
-179
-179
-178
-179
-180
-180
-180
-180
-179
-179
-180
-181
-181
-181
-181
-180
-180
-181
-181
-182
-182
-180
-181
-180
-180
-181
-181
-181
-180
-179
-180
-181
-182
-181
-180
-180
-180
-181
-181
-182
-181
-181
-181
-182
-182
-183
-183
-183
-182
-183
-183
-184
-185
-185
-184
-183
-183
-183
-184
-185
-184
-183
-182
-183
-183
-184
-184
-183
-183
-182
-183
-183
-184
-184
-184
-183
-183
-184
-185
-185
-185
-185
-185
-186
-186
-187
-186
-187
-186
-186
-186
-187
-187
-187
-187
-186
-185
-186
-187
-186
-187
-186
-185
-185
-185
-186
-186
-185
-185
-184
-184
-186
-186
-185
-184
-184
-184
-184
-184
-185
-184
-183
-184
-184
-184
-184
-185
-185
-184
-184
-185
-185
-186
-186
-186
-185
-185
-186
-187
-187
-188
-188
-187
-187
-189
-189
-189
-190
-189
-188
-189
-189
-190
-190
-189
-188
-188
-189
-189
-189
-188
-188
-187
-186
-187
-187
-187
-186
-186
-185
-185
-186
-187
-186
-185
-185
-185
-186
-186
-187
-188
-186
-187
-187
-188
-189
-190
-189
-189
-188
-189
-190
-191
-191
-190
-189
-189
-190
-190
-190
-190
-189
-188
-188
-189
-189
-189
-189
-187
-187
-188
-188
-189
-188
-188
-187
-188
-187
-188
-189
-188
-188
-187
-188
-189
-189
-190
-189
-189
-190
-189
-191
-191
-191
-191
-190
-190
-191
-191
-192
-192
-191
-191
-190
-191
-191
-191
-191
-190
-189
-190
-190
-190
-190
-190
-189
-189
-190
-191
-191
-190
-191
-190
-190
-191
-192
-192
-192
-191
-192
-192
-193
-193
-193
-193
-192
-192
-192
-193
-193
-193
-192
-192
-192
-193
-193
-194
-193
-193
-193
-194
-194
-194
-195
-194
-194
-194
-194
-195
-195
-194
-194
-193
-193
-194
-194
-194
-194
-192
-193
-192
-194
-194
-193
-193
-193
-193
-194
-194
-195
-194
-194
-193
-194
-195
-195
-196
-195
-195
-195
-196
-196
-197
-197
-196
-195
-196
-196
-196
-197
-196
-196
-195
-196
-197
-197
-197
-197
-196
-196
-197
-197
-198
-198
-197
-197
-197
-197
-198
-197
-197
-197
-196
-197
-197
-198
-197
-197
-196
-196
-195
-197
-196
-196
-196
-195
-195
-195
-196
-197
-196
-196
-196
-196
-197
-197
-198
-198
-197
-198
-198
-199
-199
-199
-199
-199
-198
-198
-200
-200
-199
-198
-199
-198
-199
-199
-199
-198
-198
-197
-198
-199
-198
-199
-198
-198
-197
-198
-198
-199
-198
-198
-198
-198
-199
-199
-199
-199
-198
-198
-199
-199
-200
-200
-200
-199
-199
-200
-200
-201
-200
-199
-200
-200
-200
-201
-201
-201
-200
-200
-200
-201
-202
-201
-201
-200
-201
-200
-202
-201
-202
-201
-201
-201
-201
-202
-202
-202
-201
-201
-202
-202
-203
-203
-202
-202
-201
-202
-202
-203
-203
-202
-202
-202
-202
-203
-203
-202
-202
-201
-200
-201
-202
-201
-200
-200
-199
-199
-200
-200
-199
-199
-198
-198
-198
-200
-199
-200
-198
-199
-199
-200
-200
-201
-200
-201
-200
-201
-202
-203
-202
-202
-201
-202
-202
-203
-204
-203
-203
-202
-203
-203
-204
-204
-203
-202
-203
-203
-204
-204
-205
-203
-204
-204
-204
-205
-206
-205
-205
-205
-206
-206
-206
-206
-206
-205
-205
-206
-207
-208
-208
-209
-209
-210
-210
-211
-213
-213
-213
-213
-215
-216
-217
-218
-218
-219
-220
-220
-221
-223
-223
-223
-224
-225
-226
-228
-229
-228
-229
-228
-229
-231
-231
-231
-231
-232
-231
-232
-233
-233
-233
-232
-232
-231
-231
-232
-232
-230
-229
-228
-228
-229
-228
-228
-226
-225
-225
-225
-225
-225
-225
-224
-223
-223
-223
-223
-223
-223
-221
-221
-221
-221
-221
-221
-219
-218
-217
-217
-217
-217
-216
-214
-213
-212
-212
-211
-211
-210
-208
-207
-207
-206
-205
-204
-203
-201
-201
-200
-201
-200
-199
-199
-199
-199
-198
-199
-199
-198
-198
-198
-198
-199
-199
-199
-199
-198
-198
-198
-199
-200
-200
-199
-200
-200
-200
-201
-201
-201
-201
-200
-201
-202
-202
-202
-201
-201
-201
-201
-202
-202
-201
-200
-200
-200
-200
-201
-201
-201
-200
-199
-200
-200
-201
-200
-200
-199
-200
-200
-201
-201
-201
-201
-200
-200
-202
-202
-202
-203
-202
-202
-204
-204
-206
-205
-206
-207
-207
-209
-212
-214
-215
-217
-219
-223
-228
-231
-236
-239
-243
-248
-254
-261
-267
-273
-279
-286
-292
-301
-309
-316
-322
-328
-335
-342
-348
-353
-358
-361
-363
-364
-365
-365
-365
-362
-358
-353
-348
-342
-335
-327
-319
-309
-298
-289
-279
-271
-261
-251
-242
-233
-225
-219
-213
-207
-201
-195
-192
-188
-187
-185
-184
-182
-182
-182
-184
-185
-186
-187
-189
-190
-192
-194
-196
-197
-198
-199
-201
-202
-204
-205
-206
-205
-206
-206
-207
-208
-208
-208
-206
-207
-206
-207
-207
-207
-206
-206
-205
-205
-206
-206
-205
-205
-204
-204
-205
-205
-206
-206
-206
-205
-206
-207
-208
-207
-207
-207
-206
-207
-208
-208
-209
-209
-208
-208
-209
-209
-210
-209
-209
-208
-209
-209
-209
-209
-208
-208
-207
-207
-207
-207
-207
-206
-206
-206
-206
-206
-207
-207
-207
-206
-207
-208
-208
-209
-209
-209
-209
-210
-211
-211
-211
-211
-210
-211
-212
-212
-212
-212
-212
-211
-212
-212
-212
-212
-211
-210
-210
-210
-211
-211
-211
-209
-209
-210
-210
-211
-211
-211
-211
-210
-211
-211
-211
-211
-211
-211
-211
-211
-212
-212
-212
-212
-211
-211
-212
-213
-213
-214
-212
-213
-213
-214
-215
-214
-214
-214
-214
-215
-216
-216
-216
-215
-215
-215
-217
-217
-217
-216
-216
-216
-216
-217
-218
-218
-217
-217
-217
-218
-219
-219
-219
-219
-219
-219
-220
-220
-221
-220
-219
-220
-221
-221
-221
-221
-221
-220
-221
-221
-222
-222
-222
-222
-221
-221
-222
-223
-223
-224
-223
-223
-224
-225
-226
-226
-225
-225
-224
-225
-226
-227
-227
-227
-226
-227
-228
-229
-230
-230
-230
-230
-231
-231
-233
-233
-233
-233
-233
-234
-236
-236
-237
-237
-236
-236
-238
-239
-239
-240
-239
-240
-241
-242
-242
-243
-243
-243
-243
-245
-246
-247
-248
-249
-248
-250
-251
-253
-254
-254
-254
-255
-256
-258
-259
-259
-260
-261
-261
-262
-263
-264
-265
-264
-265
-265
-266
-267
-268
-268
-268
-268
-269
-270
-272
-272
-272
-273
-273
-274
-275
-276
-276
-276
-277
-277
-278
-279
-280
-280
-279
-280
-280
-281
-281
-282
-282
-281
-281
-282
-283
-283
-284
-283
-282
-283
-283
-285
-284
-284
-284
-283
-283
-284
-284
-284
-283
-282
-281
-281
-281
-280
-279
-278
-276
-276
-276
-275
-275
-273
-271
-270
-269
-269
-268
-267
-265
-262
-261
-260
-260
-258
-257
-255
-254
-252
-251
-251
-250
-249
-247
-247
-245
-245
-245
-244
-243
-242
-241
-241
-241
-241
-239
-238
-237
-237
-236
-235
-235
-233
-232
-231
-230
-230
-229
-228
-226
-225
-224
-224
-224
-224
-223
-222
-221
-221
-222
-222
-222
-222
-222
-221
-221
-221
-222
-222
-221
-221
-220
-221
-221
-222
-221
-220
-219
-219
-219
-220
-219
-219
-218
-218
-219
-219
-220
-220
-219
-219
-219
-219
-220
-220
-221
-221
-220
-220
-221
-221
-221
-221
-220
-219
-219
-220
-219
-219
-219
-218
-217
-217
-218
-217
-218
-216
-216
-216
-216
-216
-217
-217
-216
-216
-216
-217
-217
-218
-217
-217
-217
-218
-218
-219
-219
-219
-218
-218
-219
-220
-220
-220
-219
-219
-219
-220
-220
-220
-219
-219
-219
-219
-220
-220
-220
-219
-219
-219
-220
-220
-221
-220
-219
-220
-220
-221
-222
-222
-221
-220
-220
-221
-221
-221
-221
-220
-220
-220
-221
-221
-222
-221
-221
-221
-221
-222
-222
-222
-221
-221
-220
-221
-221
-221
-222
-220
-220
-220
-221
-221
-222
-221
-221
-220
-221
-222
-222
-222
-222
-222
-221
-222
-223
-223
-223
-223
-223
-223
-223
-224
-224
-224
-224
-223
-224
-224
-225
-224
-224
-223
-224
-223
-224
-225
-224
-223
-223
-223
-223
-224
-224
-224
-223
-222
-223
-223
-224
-223
-223
-222
-222
-222
-223
-223
-223
-222
-222
-222
-222
-223
-223
-223
-222
-221
-222
-223
-223
-223
-223
-222
-222
-222
-223
-223
-224
-222
-223
-222
-223
-223
-224
-223
-222
-223
-223
-224
-224
-224
-224
-223
-223
-223
-224
-224
-224
-223
-223
-223
-224
-224
-223
-224
-222
-222
-222
-223
-223
-223
-223
-221
-222
-222
-223
-223
-223
-223
-222
-222
-222
-224
-224
-223
-223
-222
-223
-223
-224
-224
-223
-223
-222
-223
-224
-224
-223
-223
-222
-222
-223
-224
-224
-223
-222
-222
-223
-223
-223
-223
-223
-222
-222
-222
-223
-223
-222
-222
-222
-222
-222
-223
-222
-223
-221
-221
-221
-222
-222
-223
-221
-221
-220
-221
-222
-222
-222
-221
-221
-221
-221
-222
-221
-221
-221
-221
-221
-222
-223
-222
-222
-221
-221
-222
-222
-223
-223
-222
-222
-222
-222
-223
-224
-223
-223
-222
-222
-223
-223
-223
-223
-221
-221
-222
-222
-223
-222
-221
-221
-221
-222
-222
-222
-222
-221
-221
-221
-222
-223
-223
-222
-221
-222
-222
-223
-223
-224
-222
-223
-223
-224
-224
-225
-224
-223
-223
-223
-223
-224
-224
-224
-223
-223
-223
-223
-224
-223
-222
-221
-222
-222
-223
-224
-223
-223
-223
-223
-224
-225
-225
-226
-224
-225
-226
-226
-228
-227
-226
-226
-226
-226
-226
-227
-226
-225
-224
-224
-225
-225
-225
-224
-222
-222
-222
-222
-222
-223
-221
-221
-221
-222
-223
-224
-223
-223
-222
-222
-224
-224
-224
-224
-223
-223
-224
-224
-225
-225
-224
-225
-225
-225
-226
-227
-226
-226
-226
-226
-227
-228
-228
-227
-227
-226
-227
-228
-228
-228
-227
-227
-227
-227
-227
-228
-227
-226
-226
-226
-227
-227
-227
-226
-226
-225
-226
-226
-227
-227
-226
-225
-225
-226
-227
-228
-227
-227
-227
-227
-227
-228
-228
-228
-227
-226
-227
-227
-228
-228
-227
-227
-227
-227
-227
-228
-227
-227
-227
-227
-228
-228
-228
-227
-227
-226
-227
-228
-228
-228
-228
-228
-228
-228
-229
-228
-228
-228
-227
-227
-228
-228
-228
-228
-227
-227
-227
-228
-228
-228
-227
-227
-227
-227
-228
-228
-228
-228
-228
-228
-229
-229
-229
-229
-227
-228
-227
-228
-228
-228
-228
-228
-228
-228
-229
-229
-229
-228
-228
-228
-229
-230
-230
-230
-229
-229
-230
-230
-231
-231
-230
-230
-230
-231
-231
-232
-231
-231
-230
-231
-231
-232
-232
-231
-229
-230
-229
-229
-230
-230
-229
-229
-229
-229
-229
-230
-230
-229
-229
-229
-230
-231
-231
-231
-230
-230
-230
-231
-231
-231
-231
-231
-231
-231
-232
-232
-233
-232
-232
-233
-233
-235
-236
-235
-236
-236
-237
-239
-240
-241
-241
-241
-242
-244
-245
-247
-246
-247
-247
-247
-248
-250
-250
-250
-249
-250
-250
-251
-253
-253
-252
-253
-253
-255
-255
-256
-256
-256
-256
-256
-258
-258
-258
-258
-257
-256
-257
-258
-257
-257
-256
-255
-255
-255
-255
-255
-255
-253
-253
-252
-253
-254
-253
-252
-251
-250
-250
-251
-250
-250
-248
-248
-247
-247
-247
-247
-246
-245
-244
-243
-243
-243
-242
-240
-240
-238
-237
-238
-237
-236
-234
-233
-232
-232
-232
-232
-231
-229
-229
-229
-228
-228
-228
-227
-226
-226
-226
-226
-227
-227
-226
-226
-226
-227
-227
-228
-228
-228
-227
-227
-229
-229
-229
-228
-228
-227
-228
-228
-228
-227
-227
-226
-226
-227
-227
-228
-228
-226
-226
-227
-227
-228
-229
-228
-228
-227
-227
-229
-229
-229
-228
-228
-229
-230
-230
-230
-231
-230
-229
-230
-230
-230
-231
-230
-229
-228
-229
-229
-230
-229
-229
-228
-229
-229
-230
-231
-232
-232
-233
-234
-238
-240
-242
-244
-246
-249
-253
-258
-262
-267
-272
-275
-281
-286
-293
-298
-305
-310
-316
-323
-331
-337
-344
-350
-355
-360
-365
-370
-375
-377
-378
-379
-379
-379
-378
-376
-373
-367
-362
-356
-349
-342
-333
-324
-315
-305
-297
-288
-279
-271
-262
-253
-247
-240
-236
-231
-226
-222
-217
-215
-214
-213
-211
-210
-209
-209
-210
-211
-213
-214
-215
-215
-217
-220
-222
-224
-224
-225
-226
-227
-229
-231
-231
-232
-233
-233
-234
-235
-235
-236
-236
-236
-236
-236
-238
-237
-238
-237
-237
-237
-237
-238
-238
-237
-236
-236
-236
-237
-237
-237
-236
-236
-237
-238
-238
-239
-239
-239
-239
-239
-241
-242
-242
-242
-242
-241
-242
-242
-243
-242
-242
-241
-240
-240
-239
-238
-236
-234
-232
-231
-230
-230
-229
-227
-226
-224
-224
-223
-224
-224
-223
-223
-223
-224
-225
-226
-227
-228
-228
-229
-231
-233
-235
-236
-236
-237
-238
-239
-240
-241
-241
-240
-241
-241
-242
-243
-242
-242
-241
-242
-242
-242
-242
-241
-241
-241
-240
-241
-242
-242
-241
-240
-240
-241
-242
-243
-244
-244
-244
-244
-246
-247
-249
-249
-250
-251
-253
-255
-256
-258
-258
-258
-259
-261
-262
-262
-263
-263
-263
-265
-266
-267
-269
-269
-269
-268
-269
-269
-269
-269
-269
-269
-269
-270
-270
-270
-269
-267
-266
-265
-265
-264
-262
-259
-257
-255
-253
-252
-251
-249
-248
-246
-245
-245
-244
-244
-243
-243
-243
-243
-245
-245
-245
-246
-246
-246
-247
-249
-250
-250
-250
-252
-252
-253
-255
-255
-257
-256
-256
-257
-258
-259
-260
-259
-259
-258
-259
-261
-261
-261
-261
-262
-262
-262
-263
-263
-264
-263
-264
-264
-265
-265
-266
-266
-266
-266
-267
-268
-269
-269
-269
-269
-269
-271
-272
-273
-273
-273
-273
-273
-275
-276
-277
-277
-277
-277
-278
-279
-281
-281
-281
-281
-282
-283
-284
-286
-286
-286
-286
-287
-288
-290
-290
-290
-290
-291
-292
-293
-295
-295
-295
-296
-296
-297
-298
-299
-299
-299
-300
-300
-301
-303
-302
-303
-302
-302
-303
-304
-304
-305
-305
-304
-305
-305
-306
-307
-307
-307
-306
-307
-307
-309
-308
-309
-307
-308
-309
-309
-309
-309
-309
-308
-308
-308
-309
-309
-309
-307
-307
-306
-306
-306
-306
-305
-303
-302
-302
-301
-301
-300
-298
-296
-295
-294
-293
-292
-291
-289
-287
-285
-284
-283
-283
-280
-279
-277
-276
-276
-275
-274
-272
-270
-270
-269
-269
-269
-268
-266
-265
-264
-264
-264
-263
-261
-260
-260
-259
-258
-258
-257
-256
-255
-254
-254
-254
-254
-253
-252
-251
-250
-251
-250
-250
-250
-248
-248
-248
-248
-249
-247
-247
-246
-246
-246
-246
-246
-246
-245
-244
-244
-245
-246
-246
-245
-244
-243
-243
-244
-244
-244
-244
-242
-243
-242
-244
-243
-243
-243
-242
-242
-242
-243
-243
-243
-241
-241
-241
-242
-242
-242
-242
-240
-241
-241
-243
-242
-242
-242
-242
-242
-243
-244
-244
-243
-243
-243
-243
-243
-244
-243
-243
-242
-243
-243
-243
-244
-243
-242
-241
-242
-242
-242
-242
-241
-241
-240
-241
-241
-243
-242
-242
-241
-242
-241
-243
-243
-243
-243
-243
-243
-244
-244
-244
-244
-244
-243
-243
-244
-244
-244
-243
-243
-243
-242
-243
-244
-243
-243
-242
-242
-242
-243
-243
-242
-242
-241
-242
-242
-242
-242
-242
-241
-242
-242
-242
-243
-243
-243
-242
-242
-244
-244
-245
-245
-244
-244
-244
-246
-246
-246
-247
-247
-246
-247
-248
-247
-247
-247
-246
-246
-246
-246
-246
-245
-245
-244
-244
-244
-245
-244
-243
-243
-243
-244
-244
-245
-245
-244
-244
-245
-245
-246
-246
-246
-245
-245
-246
-246
-247
-247
-246
-246
-246
-247
-248
-248
-248
-247
-246
-247
-248
-248
-248
-247
-247
-247
-248
-248
-248
-248
-248
-246
-247
-247
-248
-248
-247
-246
-246
-245
-247
-247
-246
-246
-245
-244
-245
-245
-247
-247
-246
-245
-245
-245
-247
-246
-246
-246
-246
-246
-246
-247
-247
-246
-246
-246
-246
-246
-247
-247
-246
-245
-245
-245
-246
-247
-247
-245
-245
-246
-246
-246
-247
-247
-246
-246
-247
-248
-248
-248
-248
-248
-248
-249
-251
-251
-252
-250
-250
-251
-252
-253
-253
-253
-251
-251
-252
-252
-252
-252
-251
-251
-250
-250
-250
-251
-251
-250
-249
-249
-249
-249
-250
-249
-249
-248
-249
-250
-250
-250
-249
-249
-249
-248
-250
-250
-249
-248
-248
-247
-248
-249
-248
-247
-246
-246
-245
-246
-247
-246
-245
-244
-245
-245
-245
-246
-246
-246
-245
-245
-247
-247
-248
-247
-246
-246
-246
-247
-247
-247
-246
-246
-245
-245
-245
-246
-245
-244
-244
-244
-244
-244
-244
-244
-243
-243
-243
-244
-245
-245
-245
-244
-244
-244
-246
-246
-246
-245
-245
-246
-246
-247
-247
-247
-246
-247
-247
-247
-247
-247
-247
-247
-246
-247
-247
-247
-247
-247
-246
-246
-247
-247
-247
-246
-245
-245
-245
-245
-246
-245
-245
-245
-245
-245
-246
-246
-247
-246
-246
-246
-247
-247
-247
-248
-246
-247
-247
-247
-248
-247
-247
-246
-247
-247
-247
-248
-247
-246
-246
-245
-247
-247
-247
-246
-245
-245
-244
-246
-246
-246
-245
-244
-245
-244
-245
-246
-245
-244
-244
-244
-244
-245
-245
-246
-244
-244
-245
-246
-247
-247
-247
-246
-246
-247
-247
-248
-249
-247
-247
-248
-249
-249
-250
-249
-248
-247
-247
-249
-249
-248
-248
-246
-246
-247
-247
-248
-247
-246
-245
-245
-246
-247
-247
-246
-246
-245
-245
-246
-246
-245
-245
-245
-244
-245
-245
-246
-246
-245
-244
-244
-246
-246
-246
-245
-245
-244
-245
-246
-247
-247
-245
-245
-245
-245
-246
-246
-245
-245
-245
-245
-245
-245
-245
-245
-244
-244
-244
-244
-245
-245
-245
-244
-244
-245
-246
-246
-246
-245
-245
-245
-246
-246
-246
-246
-245
-245
-245
-245
-245
-246
-245
-245
-245
-245
-246
-246
-246
-245
-245
-245
-246
-247
-247
-246
-246
-245
-245
-247
-247
-247
-246
-245
-245
-246
-246
-246
-246
-245
-245
-245
-246
-246
-246
-246
-245
-244
-245
-246
-246
-247
-246
-245
-245
-245
-245
-247
-246
-246
-245
-245
-246
-246
-245
-244
-244
-243
-243
-244
-245
-245
-244
-244
-245
-244
-246
-247
-247
-247
-246
-247
-248
-249
-250
-250
-251
-251
-251
-252
-254
-254
-255
-255
-255
-257
-258
-259
-259
-259
-259
-260
-261
-262
-263
-262
-263
-262
-263
-264
-265
-266
-266
-266
-266
-267
-269
-270
-270
-270
-270
-270
-271
-272
-271
-271
-271
-270
-270
-270
-270
-270
-269
-268
-267
-267
-267
-266
-266
-265
-264
-264
-264
-264
-264
-264
-263
-263
-262
-263
-263
-263
-262
-261
-262
-262
-262
-263
-262
-261
-260
-260
-259
-260
-258
-258
-256
-254
-253
-253
-253
-252
-250
-248
-247
-246
-246
-245
-244
-243
-241
-241
-240
-241
-240
-240
-238
-238
-238
-239
-239
-239
-239
-238
-238
-239
-239
-240
-239
-238
-238
-238
-239
-239
-240
-240
-239
-238
-238
-239
-239
-239
-238
-238
-238
-239
-240
-240
-240
-239
-238
-238
-239
-239
-240
-239
-238
-237
-239
-239
-239
-239
-239
-238
-238
-238
-239
-239
-239
-239
-239
-239
-239
-239
-240
-239
-239
-238
-238
-238
-239
-239
-239
-238
-238
-239
-240
-241
-242
-242
-243
-243
-246
-248
-251
-252
-255
-258
-261
-266
-270
-274
-278
-282
-288
-293
-299
-306
-312
-318
-324
-330
-338
-345
-353
-360
-365
-371
-377
-383
-387
-392
-395
-395
-397
-398
-399
-398
-396
-391
-386
-381
-375
-368
-360
-352
-342
-332
-323
-313
-305
-295
-285
-276
-268
-261
-255
-248
-243
-238
-233
-229
-227
-225
-224
-223
-222
-222
-222
-224
-226
-226
-227
-228
-230
-232
-234
-235
-237
-237
-238
-239
-241
-241
-242
-242
-242
-242
-242
-242
-242
-242
-242
-241
-240
-241
-241
-241
-241
-240
-240
-239
-241
-241
-241
-241
-241
-240
-240
-241
-241
-242
-241
-240
-240
-241
-241
-241
-241
-241
-241
-241
-241
-242
-242
-241
-241
-240
-240
-241
-241
-241
-240
-240
-239
-240
-240
-241
-241
-240
-240
-240
-241
-241
-242
-241
-241
-241
-241
-242
-243
-243
-243
-242
-242
-243
-243
-244
-244
-243
-243
-243
-244
-244
-244
-243
-243
-242
-242
-243
-244
-246
-246
-245
-245
-247
-248
-249
-249
-249
-250
-250
-251
-253
-253
-254
-252
-253
-253
-253
-254
-254
-253
-252
-251
-251
-251
-251
-250
-250
-248
-249
-249
-249
-249
-248
-247
-247
-247
-247
-248
-248
-248
-247
-247
-248
-248
-249
-249
-249
-249
-248
-250
-250
-250
-249
-249
-249
-249
-249
-250
-250
-249
-249
-248
-248
-249
-249
-250
-249
-249
-249
-249
-249
-250
-250
-249
-249
-249
-251
-251
-252
-252
-252
-251
-252
-254
-254
-254
-254
-254
-255
-255
-256
-257
-256
-256
-256
-256
-257
-258
-259
-259
-257
-258
-259
-259
-259
-259
-259
-259
-259
-260
-260
-261
-261
-260
-261
-261
-261
-262
-263
-262
-262
-262
-262
-263
-264
-264
-264
-264
-264
-265
-266
-266
-267
-267
-266
-267
-268
-270
-270
-271
-270
-271
-272
-273
-274
-274
-274
-275
-275
-276
-277
-278
-278
-278
-278
-279
-279
-281
-282
-282
-282
-282
-284
-285
-286
-287
-287
-287
-288
-289
-291
-291
-292
-291
-292
-293
-293
-295
-296
-296
-296
-296
-297
-298
-299
-300
-300
-300
-300
-302
-303
-304
-305
-304
-304
-304
-306
-307
-307
-307
-307
-307
-308
-310
-310
-310
-311
-310
-310
-312
-312
-313
-312
-311
-311
-311
-311
-312
-312
-312
-311
-310
-310
-310
-310
-310
-308
-308
-308
-307
-307
-306
-305
-302
-299
-298
-296
-295
-295
-293
-292
-291
-290
-289
-288
-287
-285
-284
-283
-283
-285
-284
-285
-284
-284
-284
-285
-287
-287
-287
-287
-286
-287
-288
-288
-288
-287
-286
-285
-285
-285
-284
-283
-281
-280
-280
-279
-279
-278
-277
-275
-275
-273
-274
-274
-273
-272
-270
-269
-270
-270
-270
-269
-268
-267
-267
-267
-267
-266
-266
-264
-265
-264
-265
-264
-264
-263
-262
-262
-263
-263
-263
-262
-262
-261
-261
-261
-262
-262
-261
-261
-261
-261
-262
-263
-263
-262
-261
-261
-261
-263
-262
-262
-262
-261
-261
-262
-262
-262
-261
-260
-260
-260
-260
-261
-261
-260
-259
-259
-260
-260
-260
-259
-259
-258
-258
-258
-258
-259
-258
-257
-255
-256
-255
-255
-255
-253
-252
-252
-252
-252
-252
-251
-250
-249
-247
-247
-248
-248
-247
-245
-245
-245
-246
-246
-246
-246
-244
-244
-244
-244
-245
-244
-243
-243
-243
-243
-244
-244
-243
-243
-243
-243
-243
-244
-244
-244
-244
-244
-245
-245
-246
-246
-246
-245
-244
-246
-246
-246
-246
-246
-246
-245
-247
-247
-247
-247
-246
-246
-247
-247
-247
-247
-246
-246
-246
-246
-247
-247
-246
-246
-246
-246
-248
-248
-248
-248
-248
-248
-248
-250
-249
-250
-249
-249
-249
-249
-250
-250
-249
-249
-248
-249
-249
-249
-249
-248
-248
-247
-247
-248
-248
-247
-246
-245
-245
-246
-246
-247
-245
-245
-246
-245
-246
-247
-247
-246
-246
-246
-247
-247
-248
-247
-247
-246
-246
-247
-247
-247
-247
-245
-245
-245
-245
-245
-245
-244
-243
-243
-244
-244
-245
-244
-244
-244
-244
-244
-245
-245
-244
-244
-244
-245
-245
-246
-246
-245
-245
-244
-245
-246
-245
-246
-244
-244
-244
-244
-246
-245
-245
-245
-244
-245
-246
-246
-246
-245
-245
-245
-246
-246
-246
-245
-244
-244
-244
-243
-243
-244
-242
-242
-241
-241
-241
-242
-241
-241
-240
-239
-241
-241
-241
-241
-240
-240
-240
-241
-242
-242
-242
-242
-241
-242
-243
-243
-244
-244
-243
-242
-243
-244
-243
-242
-242
-241
-241
-241
-241
-242
-241
-239
-239
-239
-239
-240
-240
-239
-239
-238
-239
-241
-240
-241
-240
-239
-240
-240
-242
-242
-242
-242
-241
-243
-244
-245
-245
-244
-243
-244
-245
-246
-246
-246
-247
-246
-246
-247
-248
-248
-248
-246
-246
-247
-246
-247
-247
-246
-246
-246
-246
-247
-248
-247
-246
-246
-246
-247
-248
-249
-249
-249
-249
-250
-251
-252
-252
-252
-252
-252
-253
-253
-254
-253
-252
-251
-251
-252
-252
-252
-251
-249
-249
-249
-250
-249
-249
-249
-247
-247
-248
-248
-249
-248
-248
-248
-248
-249
-250
-250
-249
-249
-249
-250
-250
-251
-251
-250
-250
-249
-249
-249
-250
-249
-248
-247
-247
-248
-248
-247
-246
-246
-245
-245
-245
-246
-245
-245
-244
-244
-245
-246
-245
-245
-244
-244
-244
-246
-246
-246
-246
-246
-246
-246
-246
-247
-247
-246
-246
-246
-247
-247
-248
-247
-247
-246
-246
-247
-247
-248
-248
-247
-247
-247
-247
-248
-248
-247
-246
-247
-247
-247
-247
-247
-246
-245
-245
-245
-245
-245
-244
-243
-243
-243
-243
-244
-244
-243
-242
-242
-243
-243
-244
-243
-243
-242
-242
-241
-243
-242
-241
-241
-240
-240
-240
-240
-240
-240
-238
-238
-239
-240
-239
-239
-239
-238
-238
-239
-239
-240
-240
-239
-239
-240
-241
-241
-241
-241
-241
-240
-241
-242
-242
-242
-242
-242
-242
-243
-243
-243
-243
-242
-242
-242
-243
-244
-243
-243
-242
-241
-242
-243
-242
-242
-242
-241
-241
-242
-242
-243
-242
-241
-241
-241
-242
-243
-243
-242
-242
-241
-242
-243
-243
-243
-243
-241
-241
-242
-242
-242
-241
-241
-240
-240
-241
-241
-240
-240
-239
-239
-239
-240
-240
-240
-239
-239
-238
-239
-240
-240
-239
-239
-240
-240
-240
-241
-241
-240
-240
-241
-241
-242
-242
-242
-241
-241
-241
-241
-241
-241
-241
-240
-241
-240
-242
-242
-242
-242
-241
-242
-242
-243
-244
-244
-244
-243
-243
-244
-244
-244
-244
-243
-243
-243
-243
-244
-245
-244
-243
-243
-244
-245
-245
-245
-246
-245
-246
-248
-249
-250
-251
-250
-251
-253
-254
-256
-256
-257
-257
-258
-259
-260
-261
-263
-262
-262
-263
-264
-265
-265
-266
-266
-265
-266
-267
-268
-268
-268
-267
-268
-268
-268
-269
-268
-268
-267
-266
-266
-267
-266
-266
-264
-264
-264
-264
-264
-264
-262
-261
-260
-261
-262
-261
-261
-260
-259
-259
-259
-260
-260
-258
-258
-257
-257
-258
-258
-258
-256
-256
-256
-255
-256
-255
-254
-253
-251
-250
-249
-249
-249
-247
-246
-244
-244
-243
-243
-241
-240
-239
-238
-238
-238
-238
-237
-235
-235
-234
-235
-235
-235
-234
-234
-233
-233
-234
-235
-235
-235
-234
-234
-235
-235
-236
-236
-236
-236
-235
-236
-237
-237
-236
-236
-236
-236
-237
-237
-238
-237
-236
-235
-236
-237
-236
-236
-236
-234
-234
-234
-234
-235
-234
-233
-233
-233
-234
-234
-235
-234
-234
-233
-234
-235
-236
-236
-236
-234
-234
-236
-236
-236
-236
-235
-235
-236
-237
-238
-239
-240
-240
-240
-242
-245
-247
-249
-251
-253
-257
-260
-266
-269
-274
-278
-283
-289
-295
-302
-308
-315
-321
-328
-335
-343
-350
-358
-364
-370
-376
-382
-388
-392
-395
-397
-398
-399
-400
-398
-396
-392
-387
-381
-375
-368
-360
-351
-341
-330
-321
-312
-303
-293
-284
-273
-265
-257
-250
-244
-239
-233
-228
-225
-223
-221
-220
-218
-217
-216
-217
-217
-219
-220
-221
-222
-223
-224
-226
-227
-229
-229
-230
-230
-232
-233
-235
-234
-234
-233
-233
-234
-235
-235
-235
-234
-234
-234
-234
-234
-234
-234
-232
-233
-232
-234
-233
-233
-232
-232
-231
-232
-232
-233
-233
-232
-232
-233
-233
-234
-234
-234
-234
-233
-234
-235
-236
-235
-235
-234
-234
-235
-235
-236
-235
-235
-235
-235
-235
-237
-236
-235
-235
-234
-234
-234
-234
-234
-233
-233
-232
-232
-233
-233
-233
-233
-232
-232
-233
-233
-234
-234
-234
-233
-234
-235
-236
-236
-235
-235
-236
-236
-237
-237
-236
-236
-235
-235
-237
-237
-237
-237
-235
-235
-236
-237
-237
-237
-237
-235
-236
-236
-238
-238
-238
-238
-237
-237
-238
-239
-239
-238
-238
-238
-237
-239
-239
-238
-237
-237
-237
-237
-239
-238
-238
-238
-238
-238
-238
-239
-240
-240
-239
-240
-240
-242
-242
-243
-243
-242
-243
-244
-245
-247
-247
-247
-247
-247
-249
-250
-250
-251
-249
-250
-250
-250
-251
-250
-250
-249
-248
-248
-249
-249
-248
-247
-247
-246
-247
-247
-247
-247
-246
-247
-247
-249
-249
-249
-249
-249
-249
-250
-251
-252
-251
-251
-251
-252
-253
-253
-254
-253
-253
-253
-254
-255
-256
-256
-256
-255
-256
-257
-258
-259
-259
-259
-259
-260
-262
-262
-263
-263
-262
-263
-264
-265
-265
-265
-265
-264
-265
-265
-266
-267
-267
-267
-267
-267
-269
-269
-270
-270
-271
-272
-272
-274
-276
-276
-276
-277
-278
-279
-281
-283
-283
-283
-283
-284
-286
-287
-288
-288
-289
-289
-290
-291
-291
-292
-291
-292
-292
-293
-294
-294
-294
-294
-294
-295
-295
-296
-297
-297
-297
-298
-298
-299
-300
-300
-301
-300
-301
-301
-303
-303
-303
-303
-304
-304
-305
-306
-307
-307
-306
-306
-307
-308
-309
-309
-308
-309
-309
-309
-309
-310
-310
-309
-309
-308
-309
-309
-310
-309
-308
-308
-308
-308
-308
-308
-306
-305
-304
-304
-304
-304
-303
-301
-299
-299
-298
-297
-297
-295
-293
-291
-290
-289
-289
-286
-285
-283
-281
-280
-279
-279
-277
-275
-273
-273
-272
-271
-271
-269
-267
-266
-266
-266
-265
-264
-262
-261
-260
-260
-259
-259
-258
-256
-256
-256
-255
-255
-254
-254
-252
-252
-252
-252
-252
-251
-251
-249
-249
-248
-249
-250
-249
-248
-247
-247
-248
-247
-247
-247
-246
-245
-246
-246
-246
-246
-245
-245
-245
-245
-246
-246
-246
-245
-245
-245
-245
-245
-246
-246
-245
-245
-246
-246
-247
-246
-245
-245
-244
-245
-246
-246
-245
-245
-244
-245
-246
-246
-246
-246
-246
-245
-246
-246
-246
-246
-246
-245
-245
-246
-246
-246
-246
-245
-245
-245
-245
-246
-246
-246
-245
-245
-246
-246
-247
-246
-245
-245
-245
-246
-247
-247
-247
-246
-246
-246
-246
-247
-247
-247
-246
-245
-246
-246
-246
-245
-245
-244
-244
-245
-245
-246
-246
-245
-245
-245
-246
-247
-247
-247
-247
-246
-247
-247
-248
-248
-247
-246
-246
-247
-247
-247
-247
-247
-246
-246
-246
-247
-247
-247
-247
-246
-246
-248
-247
-247
-247
-246
-247
-247
-248
-248
-248
-247
-247
-247
-248
-248
-249
-248
-248
-248
-248
-249
-249
-249
-249
-248
-248
-248
-249
-250
-249
-248
-248
-248
-248
-249
-249
-249
-249
-248
-249
-249
-250
-250
-249
-249
-249
-249
-251
-251
-250
-250
-249
-250
-251
-251
-251
-250
-250
-249
-250
-250
-251
-250
-249
-248
-248
-248
-248
-249
-248
-248
-247
-247
-247
-249
-248
-248
-248
-247
-248
-249
-249
-249
-249
-248
-247
-248
-249
-249
-248
-248
-247
-247
-248
-248
-249
-249
-248
-248
-249
-249
-250
-250
-250
-248
-249
-248
-249
-250
-250
-249
-249
-249
-249
-250
-250
-250
-249
-249
-249
-250
-250
-250
-249
-248
-248
-248
-249
-249
-249
-248
-247
-247
-247
-249
-248
-249
-247
-247
-247
-248
-248
-248
-247
-247
-247
-247
-247
-247
-248
-247
-247
-247
-247
-248
-248
-247
-247
-246
-247
-248
-248
-248
-248
-247
-247
-248
-248
-249
-248
-248
-248
-248
-249
-250
-250
-250
-250
-249
-250
-251
-251
-251
-250
-250
-250
-250
-250
-250
-250
-249
-248
-248
-248
-248
-248
-248
-246
-247
-246
-246
-247
-247
-247
-246
-246
-247
-247
-248
-248
-248
-248
-248
-249
-249
-250
-250
-249
-250
-250
-250
-251
-251
-250
-250
-249
-250
-250
-251
-251
-250
-250
-250
-250
-251
-251
-250
-250
-249
-250
-250
-251
-251
-251
-249
-250
-250
-250
-251
-251
-250
-250
-249
-249
-251
-250
-250
-249
-248
-249
-250
-251
-251
-250
-250
-249
-250
-250
-251
-251
-250
-250
-250
-251
-251
-252
-251
-251
-250
-251
-251
-252
-252
-251
-250
-250
-250
-250
-250
-250
-249
-249
-249
-249
-250
-250
-250
-250
-249
-250
-251
-251
-251
-251
-250
-250
-250
-251
-251
-251
-251
-250
-250
-251
-251
-251
-250
-250
-250
-250
-251
-251
-251
-250
-250
-249
-250
-250
-250
-251
-249
-249
-249
-249
-250
-251
-250
-250
-249
-250
-251
-251
-251
-250
-249
-249
-249
-250
-250
-250
-249
-249
-249
-249
-250
-249
-249
-249
-248
-248
-248
-249
-249
-248
-248
-248
-249
-249
-250
-250
-249
-250
-250
-250
-251
-252
-251
-251
-250
-251
-251
-252
-253
-252
-250
-251
-250
-252
-252
-251
-250
-250
-250
-250
-251
-251
-250
-250
-249
-249
-249
-250
-250
-249
-248
-248
-248
-249
-249
-249
-249
-249
-249
-249
-250
-251
-250
-249
-250
-250
-251
-252
-252
-251
-251
-251
-251
-251
-253
-252
-251
-251
-251
-252
-252
-252
-252
-252
-251
-251
-252
-252
-252
-252
-251
-252
-252
-252
-253
-253
-253
-252
-253
-253
-254
-254
-254
-253
-252
-253
-254
-254
-254
-253
-252
-251
-251
-252
-252
-252
-252
-250
-251
-251
-253
-252
-252
-252
-251
-251
-253
-253
-253
-252
-251
-251
-251
-252
-252
-252
-250
-250
-249
-251
-251
-251
-251
-250
-250
-250
-250
-251
-251
-250
-250
-250
-250
-250
-251
-251
-250
-250
-250
-251
-251
-251
-251
-250
-249
-250
-250
-250
-250
-250
-249
-249
-250
-251
-252
-252
-252
-252
-252
-254
-255
-256
-256
-257
-258
-259
-261
-263
-264
-264
-265
-265
-267
-268
-269
-269
-270
-270
-270
-271
-271
-272
-272
-272
-271
-272
-272
-274
-273
-273
-272
-272
-273
-274
-275
-275
-275
-275
-275
-276
-276
-277
-277
-277
-277
-277
-277
-278
-278
-277
-276
-275
-274
-275
-275
-274
-273
-272
-271
-271
-272
-272
-271
-270
-269
-269
-270
-269
-270
-268
-267
-267
-267
-267
-267
-267
-265
-264
-264
-263
-263
-263
-262
-260
-259
-258
-258
-257
-256
-254
-252
-251
-250
-250
-250
-249
-247
-247
-246
-246
-246
-246
-245
-245
-243
-243
-244
-244
-244
-244
-244
-243
-243
-244
-245
-245
-244
-244
-244
-244
-244
-245
-245
-244
-244
-243
-245
-245
-246
-245
-245
-244
-244
-244
-245
-244
-244
-243
-243
-243
-243
-244
-244
-243
-243
-243
-243
-244
-244
-244
-243
-243
-243
-243
-245
-244
-244
-244
-244
-245
-247
-247
-247
-246
-246
-246
-247
-248
-247
-247
-247
-246
-246
-247
-248
-248
-248
-249
-250
-251
-254
-256
-258
-259
-261
-265
-270
-274
-279
-283
-287
-291
-296
-304
-310
-317
-322
-329
-337
-344
-352
-360
-367
-373
-380
-386
-392
-398
-402
-404
-407
-408
-409
-409
-409
-407
-403
-398
-393
-387
-379
-372
-363
-353
-342
-333
-324
-315
-305
-294
-285
-276
-269
-263
-256
-251
-244
-239
-235
-233
-232
-230
-229
-228
-226
-227
-228
-230
-231
-231
-232
-233
-234
-236
-238
-240
-240
-240
-242
-243
-245
-246
-246
-247
-247
-247
-248
-249
-249
-249
-249
-248
-249
-249
-250
-249
-249
-248
-248
-248
-248
-249
-249
-247
-247
-247
-247
-248
-247
-247
-245
-245
-245
-245
-246
-245
-245
-245
-245
-244
-246
-246
-246
-245
-245
-245
-246
-247
-247
-246
-246
-245
-245
-246
-247
-247
-247
-247
-247
-247
-248
-248
-248
-248
-248
-248
-249
-250
-250
-250
-249
-249
-249
-249
-251
-251
-249
-249
-249
-250
-250
-251
-251
-249
-249
-250
-250
-250
-250
-250
-249
-249
-249
-250
-251
-251
-251
-250
-250
-251
-251
-252
-253
-252
-251
-252
-253
-253
-253
-253
-252
-252
-252
-252
-253
-252
-252
-251
-251
-251
-252
-252
-251
-251
-250
-251
-252
-252
-252
-252
-252
-251
-251
-253
-253
-253
-252
-252
-252
-252
-253
-254
-254
-252
-252
-252
-254
-254
-254
-254
-253
-253
-254
-254
-256
-256
-255
-255
-255
-256
-257
-258
-258
-258
-257
-258
-258
-259
-259
-258
-258
-258
-258
-258
-259
-259
-258
-258
-259
-259
-260
-260
-260
-261
-260
-260
-262
-262
-263
-262
-262
-262
-262
-263
-263
-264
-264
-263
-263
-264
-264
-265
-265
-264
-264
-264
-265
-266
-267
-266
-266
-266
-267
-267
-269
-269
-269
-268
-269
-270
-271
-272
-272
-273
-273
-274
-276
-276
-277
-278
-278
-278
-279
-280
-282
-283
-282
-282
-284
-285
-286
-287
-287
-288
-288
-288
-290
-290
-291
-291
-291
-291
-291
-293
-294
-294
-295
-294
-294
-295
-296
-297
-298
-297
-297
-298
-299
-301
-301
-301
-301
-301
-301
-303
-304
-305
-305
-306
-306
-307
-309
-310
-311
-310
-311
-311
-313
-314
-314
-315
-315
-314
-315
-316
-317
-317
-316
-316
-316
-316
-316
-317
-317
-316
-315
-315
-316
-317
-317
-316
-316
-315
-315
-315
-316
-316
-314
-313
-312
-313
-313
-312
-311
-310
-308
-307
-307
-306
-304
-304
-301
-300
-299
-298
-297
-297
-295
-293
-292
-291
-291
-290
-289
-288
-286
-285
-284
-284
-282
-281
-279
-278
-276
-276
-275
-273
-272
-270
-268
-267
-267
-266
-265
-263
-262
-261
-261
-260
-260
-259
-258
-257
-257
-257
-257
-256
-255
-255
-254
-254
-254
-255
-254
-252
-252
-251
-252
-252
-251
-250
-249
-248
-248
-249
-249
-249
-247
-247
-246
-247
-247
-247
-246
-246
-245
-245
-246
-246
-247
-246
-245
-245
-246
-246
-247
-247
-246
-246
-247
-246
-247
-248
-248
-248
-247
-247
-248
-248
-248
-248
-247
-247
-247
-248
-248
-247
-247
-247
-246
-247
-247
-246
-246
-246
-245
-244
-245
-245
-246
-246
-244
-244
-244
-244
-245
-245
-245
-245
-244
-245
-245
-246
-246
-246
-246
-246
-247
-248
-248
-247
-247
-246
-246
-248
-248
-247
-247
-246
-246
-246
-246
-246
-246
-245
-244
-244
-245
-245
-245
-245
-244
-244
-244
-245
-246
-246
-246
-245
-245
-246
-247
-247
-248
-247
-247
-247
-248
-248
-249
-248
-247
-247
-247
-247
-247
-247
-247
-246
-245
-246
-246
-247
-246
-246
-244
-244
-245
-246
-245
-245
-244
-244
-244
-244
-245
-246
-244
-244
-244
-245
-246
-246
-247
-247
-246
-247
-247
-248
-248
-248
-247
-247
-247
-248
-249
-249
-248
-247
-247
-247
-248
-248
-248
-247
-247
-247
-247
-248
-247
-247
-245
-245
-244
-245
-245
-245
-244
-244
-243
-244
-244
-245
-244
-243
-243
-243
-243
-244
-243
-244
-243
-242
-243
-243
-245
-245
-244
-244
-244
-244
-245
-246
-246
-245
-244
-244
-245
-245
-245
-245
-244
-243
-243
-244
-245
-245
-245
-243
-243
-243
-243
-244
-244
-243
-242
-242
-242
-243
-242
-243
-241
-241
-241
-241
-241
-241
-240
-240
-240
-240
-241
-242
-242
-241
-241
-241
-242
-242
-242
-241
-241
-241
-241
-242
-242
-242
-241
-240
-240
-241
-241
-242
-241
-240
-240
-240
-241
-241
-241
-241
-240
-240
-241
-241
-241
-241
-241
-240
-239
-240
-240
-240
-240
-240
-238
-238
-239
-239
-239
-239
-237
-237
-237
-238
-238
-238
-238
-236
-237
-238
-238
-238
-238
-237
-237
-237
-238
-238
-239
-238
-238
-238
-237
-237
-238
-238
-237
-237
-237
-238
-238
-239
-238
-238
-237
-237
-238
-238
-239
-238
-238
-237
-236
-236
-238
-237
-237
-235
-236
-235
-236
-236
-236
-236
-235
-235
-236
-237
-237
-236
-236
-236
-236
-237
-238
-238
-238
-237
-238
-237
-238
-239
-239
-237
-237
-237
-237
-238
-237
-236
-236
-235
-235
-236
-236
-236
-235
-234
-234
-234
-234
-235
-235
-235
-234
-235
-234
-236
-236
-235
-234
-234
-234
-234
-235
-235
-234
-233
-233
-233
-234
-234
-234
-233
-233
-233
-233
-233
-233
-232
-232
-231
-231
-231
-233
-232
-231
-231
-230
-231
-232
-233
-232
-232
-232
-232
-233
-233
-234
-235
-233
-234
-234
-235
-235
-236
-235
-235
-234
-235
-235
-236
-236
-235
-234
-234
-234
-235
-235
-234
-233
-232
-232
-232
-232
-232
-232
-232
-231
-231
-231
-231
-231
-231
-229
-229
-230
-231
-231
-230
-230
-229
-229
-230
-230
-231
-230
-229
-230
-231
-231
-232
-232
-232
-231
-232
-232
-233
-233
-233
-232
-232
-232
-233
-234
-234
-233
-232
-232
-232
-232
-232
-232
-231
-230
-230
-230
-231
-230
-230
-229
-229
-228
-229
-229
-229
-229
-229
-228
-228
-229
-230
-230
-229
-228
-229
-230
-230
-230
-230
-229
-228
-229
-229
-230
-230
-230
-228
-229
-228
-229
-229
-229
-229
-228
-228
-228
-229
-228
-228
-227
-226
-226
-226
-226
-226
-225
-225
-224
-225
-225
-226
-226
-225
-225
-226
-226
-227
-228
-228
-228
-227
-228
-229
-229
-229
-229
-229
-228
-228
-229
-229
-229
-228
-228
-227
-228
-228
-229
-228
-227
-226
-226
-226
-227
-227
-227
-226
-226
-226
-226
-227
-227
-226
-226
-226
-226
-226
-227
-226
-226
-225
-226
-226
-226
-227
-227
-227
-226
-227
-228
-228
-228
-228
-228
-228
-230
-230
-231
-231
-232
-231
-232
-234
-235
-236
-236
-237
-237
-238
-240
-240
-241
-242
-242
-242
-244
-246
-246
-247
-246
-247
-247
-248
-249
-250
-249
-249
-248
-249
-249
-251
-251
-250
-250
-250
-250
-250
-250
-250
-248
-248
-247
-248
-248
-247
-247
-246
-246
-246
-245
-246
-246
-245
-244
-243
-244
-244
-245
-244
-243
-242
-242
-242
-243
-242
-242
-241
-240
-240
-239
-240
-239
-237
-237
-235
-235
-234
-233
-232
-230
-229
-227
-226
-226
-225
-223
-221
-220
-220
-219
-219
-219
-217
-217
-216
-216
-216
-216
-216
-215
-214
-215
-216
-216
-217
-215
-215
-215
-215
-216
-216
-217
-216
-216
-215
-216
-216
-216
-216
-214
-214
-214
-213
-214
-214
-213
-212
-212
-212
-213
-213
-213
-212
-212
-212
-213
-213
-214
-213
-213
-213
-213
-214
-215
-215
-214
-214
-215
-214
-216
-216
-216
-215
-215
-214
-214
-214
-215
-214
-213
-213
-212
-213
-214
-213
-213
-213
-213
-214
-215
-217
-218
-219
-219
-221
-224
-227
-230
-233
-236
-239
-243
-248
-252
-258
-263
-267
-272
-279
-285
-292
-299
-306
-312
-319
-327
-335
-342
-347
-352
-357
-361
-366
-369
-371
-372
-371
-370
-368
-366
-362
-357
-351
-343
-335
-327
-318
-309
-299
-289
-278
-268
-260
-252
-244
-236
-228
-221
-215
-210
-206
-202
-199
-195
-193
-192
-192
-192
-192
-191
-191
-192
-194
-195
-197
-198
-199
-200
-202
-203
-205
-207
-208
-209
-209
-211
-211
-212
-213
-212
-212
-212
-212
-214
-214
-213
-213
-212
-212
-213
-213
-213
-213
-212
-212
-213
-213
-214
-213
-213
-213
-212
-213
-213
-214
-214
-214
-213
-213
-214
-215
-215
-214
-213
-213
-214
-214
-214
-214
-214
-212
-213
-213
-213
-214
-213
-212
-213
-212
-213
-213
-214
-214
-213
-213
-213
-213
-214
-214
-214
-213
-213
-214
-214
-214
-215
-213
-214
-213
-214
-215
-215
-214
-213
-214
-214
-214
-215
-214
-213
-213
-213
-214
-214
-215
-214
-214
-213
-214
-215
-215
-215
-215
-215
-215
-215
-216
-216
-217
-217
-215
-216
-216
-217
-218
-217
-217
-217
-216
-217
-217
-218
-217
-217
-216
-216
-216
-217
-217
-215
-214
-214
-214
-214
-215
-214
-213
-213
-213
-214
-214
-215
-214
-214
-214
-215
-215
-216
-216
-216
-216
-216
-217
-217
-218
-218
-217
-218
-218
-218
-218
-219
-219
-218
-219
-218
-220
-220
-219
-219
-218
-219
-219
-220
-221
-220
-220
-220
-221
-222
-223
-224
-224
-224
-224
-225
-226
-227
-227
-226
-226
-227
-228
-228
-228
-229
-228
-228
-228
-230
-230
-231
-231
-230
-231
-232
-232
-233
-233
-233
-233
-233
-234
-235
-236
-235
-235
-236
-236
-238
-238
-239
-239
-240
-240
-241
-243
-243
-244
-244
-244
-245
-246
-248
-248
-249
-249
-249
-250
-251
-253
-253
-254
-253
-254
-255
-256
-256
-257
-256
-257
-257
-257
-258
-259
-259
-259
-260
-260
-261
-262
-263
-263
-263
-264
-265
-266
-268
-268
-268
-269
-269
-270
-272
-272
-273
-274
-274
-274
-276
-277
-278
-278
-278
-278
-279
-280
-281
-281
-282
-281
-282
-283
-284
-285
-286
-285
-285
-286
-287
-287
-288
-288
-288
-288
-288
-289
-290
-290
-288
-288
-288
-289
-289
-289
-289
-288
-288
-287
-288
-288
-288
-287
-286
-285
-286
-286
-286
-285
-284
-282
-281
-280
-280
-279
-278
-276
-275
-273
-273
-272
-271
-269
-268
-267
-266
-265
-264
-263
-260
-258
-257
-257
-256
-256
-254
-252
-251
-249
-250
-249
-248
-247
-246
-244
-243
-243
-242
-241
-240
-238
-237
-237
-237
-237
-236
-235
-234
-234
-233
-234
-234
-233
-231
-231
-231
-232
-232
-231
-231
-229
-229
-229
-229
-230
-229
-229
-227
-227
-228
-228
-228
-227
-227
-226
-226
-226
-227
-226
-226
-226
-225
-226
-226
-227
-226
-226
-226
-226
-226
-227
-227
-226
-226
-226
-226
-227
-227
-227
-227
-226
-226
-226
-228
-228
-227
-227
-228
-228
-229
-230
-229
-230
-229
-229
-230
-231
-232
-231
-231
-231
-231
-231
-233
-232
-232
-231
-231
-231
-231
-231
-231
-230
-229
-229
-229
-229
-230
-229
-228
-227
-227
-228
-228
-229
-229
-229
-228
-228
-230
-230
-231
-231
-231
-231
-232
-233
-234
-235
-235
-236
-237
-238
-239
-240
-241
-241
-242
-242
-243
-245
-246
-247
-247
-247
-249
-249
-250
-251
-250
-250
-250
-251
-252
-254
-254
-254
-255
-255
-256
-257
-258
-258
-258
-257
-257
-258
-258
-258
-258
-257
-256
-255
-254
-253
-251
-249
-247
-246
-245
-245
-244
-242
-241
-240
-238
-238
-237
-236
-235
-234
-233
-232
-233
-233
-232
-232
-231
-231
-230
-231
-231
-230
-230
-229
-229
-230
-230
-230
-229
-229
-228
-229
-230
-230
-230
-230
-229
-230
-231
-231
-232
-231
-231
-231
-232
-232
-233
-233
-233
-233
-233
-234
-234
-235
-235
-235
-234
-235
-236
-237
-237
-236
-236
-236
-237
-238
-238
-238
-237
-237
-237
-238
-239
-240
-239
-239
-239
-239
-239
-240
-240
-239
-239
-238
-239
-240
-240
-240
-239
-238
-238
-237
-238
-238
-237
-236
-236
-235
-235
-235
-235
-234
-234
-233
-233
-233
-233
-233
-233
-231
-232
-231
-232
-232
-233
-232
-231
-232
-233
-233
-234
-234
-233
-233
-233
-234
-234
-234
-234
-233
-232
-233
-233
-233
-232
-232
-231
-231
-231
-231
-231
-230
-230
-229
-229
-229
-230
-230
-229
-228
-228
-228
-229
-230
-229
-228
-228
-228
-229
-230
-230
-229
-229
-229
-229
-229
-230
-230
-229
-229
-228
-228
-228
-229
-229
-227
-226
-226
-226
-227
-226
-225
-225
-224
-224
-224
-224
-224
-224
-223
-223
-223
-225
-225
-225
-225
-225
-224
-225
-225
-226
-225
-225
-225
-225
-226
-226
-226
-225
-224
-224
-224
-225
-224
-225
-224
-223
-223
-223
-224
-224
-224
-223
-222
-222
-223
-223
-223
-223
-222
-222
-222
-223
-224
-224
-223
-223
-223
-224
-224
-224
-225
-223
-223
-223
-223
-224
-224
-222
-222
-221
-221
-221
-222
-221
-220
-219
-219
-218
-218
-219
-218
-218
-218
-218
-218
-219
-219
-218
-217
-218
-218
-218
-219
-218
-218
-218
-217
-218
-218
-218
-218
-217
-216
-216
-217
-217
-217
-216
-215
-214
-215
-215
-216
-216
-214
-214
-214
-215
-215
-216
-215
-215
-215
-215
-216
-217
-217
-217
-215
-215
-215
-216
-216
-217
-215
-215
-214
-215
-216
-216
-216
-215
-215
-215
-215
-216
-216
-216
-215
-215
-215
-215
-216
-216
-214
-214
-214
-214
-215
-214
-214
-213
-212
-213
-213
-214
-213
-212
-212
-211
-211
-213
-214
-213
-213
-211
-212
-213
-213
-213
-213
-212
-212
-212
-213
-213
-213
-213
-212
-211
-211
-211
-212
-212
-211
-211
-210
-210
-211
-211
-210
-210
-209
-209
-209
-209
-209
-208
-207
-207
-207
-207
