# Simple Text Format
# Sampling Rate (Hz):= 1200.00
# Resolution:= 12
# Labels:= ECG	 V2
# Age:=	40
# Gender:=	Feminino
-58
-58
-58
-58
-58
-58
-58
-57
-57
-57
-57
-58
-57
-58
-57
-56
-56
-56
-58
-58
-57
-57
-56
-57
-57
-57
-57
-57
-57
-57
-58
-58
-59
-58
-58
-58
-59
-59
-59
-60
-59
-59
-58
-59
-60
-59
-59
-59
-58
-58
-58
-60
-59
-59
-59
-58
-58
-58
-58
-58
-58
-58
-58
-58
-58
-59
-59
-58
-58
-59
-59
-59
-60
-60
-59
-59
-60
-60
-60
-60
-60
-60
-59
-59
-59
-60
-60
-60
-59
-59
-59
-60
-60
-59
-59
-58
-59
-59
-60
-60
-59
-59
-59
-60
-61
-61
-61
-61
-61
-60
-61
-61
-61
-61
-61
-61
-61
-62
-62
-62
-62
-61
-61
-61
-62
-62
-62
-62
-62
-62
-62
-63
-62
-62
-62
-61
-61
-62
-62
-62
-62
-62
-61
-61
-61
-62
-62
-62
-61
-62
-62
-62
-62
-61
-61
-61
-61
-61
-62
-62
-62
-61
-61
-61
-62
-62
-62
-61
-61
-61
-61
-62
-61
-62
-61
-60
-61
-61
-61
-61
-61
-60
-60
-61
-61
-61
-61
-61
-60
-60
-61
-62
-62
-61
-61
-61
-61
-61
-61
-61
-61
-61
-61
-61
-62
-62
-62
-62
-61
-61
-61
-62
-62
-61
-60
-61
-61
-61
-61
-61
-61
-61
-60
-61
-61
-61
-61
-61
-61
-60
-61
-61
-61
-60
-60
-60
-59
-59
-59
-59
-59
-59
-58
-59
-59
-60
-60
-59
-59
-59
-60
-60
-60
-60
-60
-59
-59
-61
-61
-61
-60
-59
-59
-60
-59
-60
-60
-59
-59
-59
-59
-59
-59
-59
-58
-58
-58
-58
-58
-58
-58
-58
-57
-58
-58
-59
-59
-58
-58
-58
-58
-58
-60
-59
-58
-58
-58
-58
-59
-59
-58
-58
-58
-58
-59
-58
-59
-58
-58
-58
-59
-59
-59
-58
-58
-58
-57
-57
-59
-59
-57
-57
-57
-58
-58
-58
-57
-57
-56
-56
-56
-57
-58
-57
-56
-56
-57
-57
-57
-57
-57
-56
-57
-57
-58
-58
-58
-57
-57
-58
-58
-58
-58
-58
-58
-58
-58
-59
-59
-59
-58
-58
-58
-58
-59
-58
-58
-58
-56
-56
-57
-57
-57
-56
-56
-56
-55
-55
-55
-55
-55
-55
-55
-55
-55
-56
-56
-56
-56
-56
-56
-56
-57
-57
-56
-56
-57
-57
-57
-57
-56
-56
-56
-57
-57
-57
-57
-56
-56
-57
-57
-57
-57
-57
-57
-56
-56
-57
-57
-57
-57
-56
-55
-56
-56
-55
-54
-53
-51
-50
-49
-49
-48
-47
-45
-43
-40
-38
-35
-33
-28
-26
-24
-23
-22
-21
-18
-16
-15
-13
-13
-13
-12
-12
-12
-12
-14
-17
-19
-21
-23
-25
-27
-30
-32
-35
-37
-39
-40
-42
-44
-47
-48
-49
-50
-51
-51
-52
-54
-54
-54
-54
-55
-56
-56
-57
-57
-57
-57
-58
-60
-62
-63
-64
-65
-66
-68
-69
-71
-72
-74
-75
-76
-78
-80
-82
-82
-82
-82
-82
-82
-82
-82
-81
-80
-79
-77
-76
-75
-73
-70
-67
-66
-64
-62
-60
-58
-55
-53
-52
-50
-49
-48
-47
-46
-45
-45
-45
-45
-46
-46
-46
-46
-47
-48
-50
-50
-50
-51
-52
-53
-55
-55
-55
-55
-55
-56
-57
-58
-58
-58
-57
-58
-58
-58
-58
-57
-57
-57
-57
-57
-58
-58
-58
-57
-57
-57
-57
-58
-58
-57
-57
-57
-58
-59
-59
-60
-60
-60
-60
-60
-61
-62
-61
-60
-60
-61
-61
-61
-61
-61
-61
-61
-61
-62
-61
-61
-61
-61
-61
-61
-62
-62
-62
-62
-62
-62
-63
-64
-63
-64
-63
-63
-64
-64
-64
-64
-64
-64
-64
-64
-64
-64
-64
-64
-64
-64
-64
-63
-63
-63
-63
-63
-62
-63
-62
-62
-61
-59
-60
-60
-60
-58
-58
-57
-57
-56
-56
-56
-55
-55
-55
-54
-54
-55
-54
-54
-54
-53
-54
-54
-54
-55
-54
-53
-53
-53
-53
-53
-52
-52
-50
-49
-49
-49
-48
-46
-43
-42
-40
-39
-36
-35
-32
-30
-27
-25
-22
-21
-17
-14
-11
-8
-5
-3
0
3
5
7
10
11
11
13
13
14
13
11
8
4
-1
-7
-13
-20
-29
-38
-47
-58
-67
-79
-90
-102
-115
-127
-138
-149
-161
-171
-182
-193
-202
-211
-218
-226
-232
-238
-244
-248
-251
-254
-256
-256
-256
-255
-252
-248
-243
-238
-232
-225
-217
-209
-199
-190
-180
-171
-161
-150
-140
-131
-121
-112
-104
-96
-88
-80
-74
-67
-63
-58
-53
-49
-46
-43
-41
-39
-37
-35
-34
-32
-32
-30
-28
-28
-26
-26
-24
-23
-22
-21
-19
-17
-14
-12
-10
-7
-6
-3
-1
2
3
4
5
6
7
9
10
10
9
8
7
5
4
2
0
-2
-4
-6
-8
-8
-11
-13
-15
-16
-17
-17
-17
-18
-18
-19
-19
-17
-17
-17
-17
-17
-16
-17
-17
-15
-15
-16
-17
-17
-16
-16
-16
-16
-17
-18
-18
-19
-18
-18
-19
-20
-19
-20
-18
-18
-18
-18
-18
-17
-16
-15
-14
-13
-13
-12
-12
-11
-10
-10
-10
-10
-10
-9
-9
-9
-10
-10
-11
-11
-11
-10
-11
-12
-13
-13
-14
-14
-13
-14
-15
-15
-15
-15
-14
-12
-13
-13
-13
-13
-11
-11
-11
-11
-10
-11
-10
-9
-9
-7
-7
-7
-6
-4
-4
-2
-2
-2
-2
-1
-1
1
2
3
3
3
4
5
5
5
5
5
5
4
5
6
6
6
5
5
6
6
6
6
6
6
6
7
7
7
6
5
5
5
6
6
5
5
5
4
5
5
7
6
6
7
7
8
8
10
9
10
10
11
12
14
15
15
15
16
17
19
20
20
20
21
21
22
24
24
25
25
25
26
27
28
29
30
29
30
31
32
33
33
34
33
34
35
36
36
36
36
37
38
39
39
40
40
40
41
41
43
43
44
44
44
44
44
46
45
45
45
45
45
45
46
46
46
45
46
46
46
46
46
46
45
46
46
48
48
48
48
48
49
49
50
51
50
51
50
51
52
52
52
51
51
51
50
51
50
49
49
47
46
46
45
44
43
42
40
40
39
37
36
34
33
32
32
30
29
27
25
24
22
21
21
19
17
16
14
13
12
11
9
7
5
4
3
2
1
-2
-3
-5
-7
-8
-9
-11
-12
-14
-15
-16
-18
-18
-21
-22
-24
-26
-26
-28
-29
-30
-32
-34
-34
-35
-36
-38
-38
-40
-41
-41
-41
-42
-43
-43
-44
-44
-45
-45
-45
-46
-47
-48
-48
-48
-48
-49
-50
-50
-51
-51
-51
-52
-53
-53
-54
-54
-54
-54
-54
-54
-55
-54
-54
-54
-53
-53
-53
-54
-53
-52
-51
-51
-50
-51
-51
-51
-49
-49
-49
-49
-49
-50
-49
-48
-48
-48
-48
-48
-48
-48
-47
-47
-47
-48
-48
-49
-47
-48
-48
-48
-49
-49
-49
-48
-49
-49
-49
-50
-50
-50
-50
-49
-50
-50
-50
-50
-50
-49
-48
-48
-48
-49
-49
-47
-47
-48
-48
-48
-47
-46
-46
-46
-46
-47
-46
-46
-46
-46
-46
-46
-46
-47
-46
-46
-46
-47
-47
-47
-48
-47
-47
-47
-48
-48
-49
-48
-48
-48
-48
-48
-48
-49
-49
-49
-48
-48
-48
-48
-48
-48
-47
-47
-47
-47
-47
-47
-47
-46
-46
-46
-47
-46
-46
-46
-46
-45
-46
-46
-46
-46
-46
-45
-45
-46
-47
-46
-46
-46
-46
-46
-46
-47
-47
-47
-47
-47
-48
-48
-48
-48
-48
-47
-48
-48
-49
-49
-49
-49
-49
-50
-51
-51
-52
-51
-51
-52
-52
-52
-53
-53
-53
-52
-53
-54
-54
-54
-53
-53
-53
-53
-54
-54
-54
-54
-53
-53
-54
-54
-54
-54
-53
-54
-54
-54
-54
-54
-54
-54
-54
-54
-54
-54
-54
-54
-53
-54
-54
-54
-54
-54
-53
-53
-54
-54
-54
-54
-54
-54
-54
-54
-54
-55
-55
-54
-54
-54
-55
-55
-55
-54
-54
-55
-54
-55
-56
-55
-54
-54
-54
-55
-55
-56
-55
-55
-55
-55
-55
-56
-56
-55
-55
-54
-55
-56
-55
-55
-55
-55
-55
-56
-56
-56
-55
-55
-55
-55
-56
-56
-56
-55
-55
-55
-55
-56
-56
-56
-56
-56
-56
-56
-56
-55
-56
-56
-55
-55
-55
-55
-55
-55
-55
-54
-55
-55
-55
-55
-55
-55
-55
-55
-55
-55
-55
-55
-54
-55
-55
-55
-55
-55
-54
-54
-54
-55
-55
-54
-54
-54
-54
-55
-55
-55
-55
-54
-54
-55
-55
-56
-55
-55
-55
-55
-56
-56
-57
-56
-55
-55
-55
-55
-56
-56
-56
-55
-54
-54
-55
-55
-55
-54
-53
-53
-53
-53
-54
-54
-53
-53
-53
-53
-53
-54
-54
-54
-53
-54
-54
-55
-55
-55
-53
-54
-54
-54
-55
-55
-55
-55
-55
-55
-56
-56
-56
-55
-55
-55
-55
-55
-55
-55
-55
-55
-55
-55
-55
-55
-54
-54
-54
-54
-55
-55
-55
-55
-54
-54
-55
-56
-55
-54
-54
-54
-55
-55
-55
-54
-54
-54
-54
-55
-55
-55
-55
-55
-54
-55
-56
-56
-56
-56
-56
-55
-55
-57
-56
-56
-56
-56
-55
-56
-56
-57
-56
-56
-55
-55
-56
-56
-55
-55
-54
-54
-54
-54
-54
-55
-54
-53
-53
-54
-54
-54
-54
-53
-52
-53
-54
-54
-54
-53
-53
-53
-54
-54
-55
-54
-54
-54
-54
-54
-55
-55
-56
-55
-55
-55
-56
-56
-56
-55
-55
-55
-54
-55
-56
-55
-55
-54
-54
-54
-54
-55
-55
-55
-54
-54
-54
-55
-55
-54
-55
-55
-54
-55
-55
-55
-55
-55
-55
-55
-55
-56
-56
-54
-54
-55
-55
-54
-55
-54
-54
-54
-54
-54
-54
-55
-54
-53
-53
-55
-55
-54
-54
-54
-54
-54
-54
-55
-55
-54
-54
-54
-53
-54
-54
-54
-54
-53
-53
-53
-53
-54
-53
-53
-53
-53
-53
-54
-53
-53
-53
-53
-52
-54
-53
-53
-53
-52
-52
-52
-53
-53
-52
-53
-52
-52
-52
-52
-52
-52
-51
-51
-51
-51
-52
-52
-52
-52
-52
-52
-52
-53
-52
-52
-52
-53
-53
-54
-54
-52
-52
-52
-51
-53
-52
-52
-51
-50
-50
-51
-51
-50
-50
-49
-48
-49
-49
-49
-48
-47
-47
-46
-46
-46
-46
-46
-45
-45
-44
-45
-45
-45
-45
-44
-44
-45
-45
-45
-45
-45
-43
-44
-43
-44
-43
-43
-43
-42
-42
-42
-43
-43
-43
-42
-42
-42
-42
-43
-44
-43
-43
-43
-43
-44
-44
-45
-44
-45
-45
-45
-45
-46
-46
-45
-47
-47
-47
-48
-48
-49
-48
-49
-49
-51
-51
-52
-52
-51
-52
-53
-53
-54
-53
-53
-53
-53
-53
-54
-54
-54
-53
-52
-53
-53
-54
-54
-54
-53
-53
-54
-54
-54
-54
-54
-54
-54
-54
-55
-54
-54
-54
-54
-54
-54
-55
-54
-55
-54
-54
-55
-55
-55
-55
-54
-54
-55
-54
-55
-54
-54
-54
-53
-53
-53
-53
-53
-52
-52
-52
-52
-52
-52
-52
-52
-51
-51
-52
-52
-53
-53
-52
-53
-52
-53
-53
-53
-53
-53
-53
-53
-53
-53
-53
-53
-52
-52
-52
-53
-52
-51
-50
-49
-49
-48
-47
-46
-43
-42
-39
-38
-36
-35
-32
-30
-28
-24
-23
-20
-17
-13
-10
-6
-4
-2
0
2
5
6
9
9
9
10
10
8
7
5
1
-4
-10
-16
-23
-31
-40
-50
-60
-70
-81
-93
-104
-118
-130
-142
-154
-165
-176
-188
-198
-209
-217
-226
-232
-239
-245
-250
-255
-258
-260
-262
-263
-262
-261
-259
-255
-251
-245
-239
-232
-226
-217
-208
-198
-189
-179
-169
-160
-149
-138
-128
-120
-110
-102
-94
-87
-79
-72
-66
-62
-57
-53
-49
-45
-43
-41
-39
-37
-36
-35
-34
-33
-32
-31
-31
-30
-29
-29
-29
-29
-30
-29
-28
-27
-27
-27
-26
-27
-26
-25
-25
-25
-25
-25
-25
-24
-24
-24
-23
-23
-24
-23
-23
-22
-22
-22
-22
-22
-22
-21
-21
-21
-21
-21
-21
-21
-20
-20
-20
-20
-20
-20
-19
-19
-19
-18
-19
-19
-18
-18
-18
-18
-18
-18
-18
-17
-17
-17
-16
-17
-17
-16
-16
-16
-15
-16
-16
-16
-16
-15
-15
-15
-15
-15
-15
-15
-14
-15
-14
-15
-15
-15
-15
-13
-13
-13
-13
-14
-13
-12
-12
-12
-12
-11
-11
-11
-10
-9
-9
-9
-10
-10
-9
-9
-8
-8
-8
-9
-8
-8
-7
-7
-8
-8
-8
-7
-7
-7
-6
-7
-7
-6
-6
-6
-6
-6
-6
-6
-5
-5
-5
-5
-5
-6
-5
-4
-4
-3
-3
-3
-2
-2
-1
-1
0
1
0
0
1
2
2
4
3
4
4
4
6
6
6
6
7
7
8
9
10
10
10
10
10
11
13
13
14
13
14
14
15
16
16
16
17
16
18
19
20
20
20
20
21
22
22
23
23
24
25
25
27
28
29
29
29
31
32
33
34
34
35
36
37
38
39
40
41
41
42
42
44
45
45
46
47
48
48
50
50
52
52
52
53
55
55
56
56
56
56
57
58
59
59
59
59
59
60
60
61
61
61
61
61
63
63
64
64
64
65
66
66
67
67
67
67
67
68
68
69
68
69
68
68
69
68
68
67
66
65
65
65
65
64
63
62
62
62
61
61
60
58
57
57
57
55
54
52
51
50
48
47
45
44
42
40
38
37
36
33
32
29
27
25
24
22
20
17
15
14
12
10
9
7
5
2
1
-1
-1
-3
-5
-7
-9
-11
-12
-14
-15
-17
-18
-20
-21
-22
-23
-25
-26
-27
-28
-29
-30
-30
-31
-33
-33
-34
-34
-35
-36
-37
-38
-39
-40
-40
-40
-41
-41
-42
-43
-43
-43
-42
-43
-44
-44
-44
-44
-44
-44
-44
-45
-45
-45
-45
-44
-45
-45
-45
-46
-46
-45
-46
-46
-47
-47
-48
-47
-47
-48
-48
-48
-48
-48
-47
-48
-48
-48
-48
-48
-48
-47
-48
-47
-49
-48
-48
-48
-48
-48
-48
-49
-49
-49
-49
-49
-49
-49
-50
-50
-50
-49
-50
-50
-51
-51
-50
-50
-50
-49
-50
-50
-50
-50
-49
-48
-49
-49
-48
-48
-48
-47
-46
-47
-46
-47
-46
-46
-46
-45
-47
-47
-47
-47
-47
-47
-47
-48
-48
-48
-48
-48
-48
-49
-49
-49
-48
-48
-48
-48
-48
-48
-48
-48
-47
-48
-47
-47
-48
-48
-47
-46
-46
-47
-47
-47
-47
-46
-46
-47
-47
-47
-48
-47
-47
-47
-48
-48
-48
-48
-48
-47
-47
-47
-47
-48
-48
-47
-47
-47
-47
-47
-47
-47
-46
-47
-46
-47
-48
-48
-47
-46
-46
-47
-47
-47
-47
-47
-47
-48
-48
-48
-49
-48
-48
-48
-48
-49
-49
-48
-48
-48
-48
-48
-49
-48
-49
-48
-48
-48
-48
-49
-49
-49
-49
-49
-49
-51
-51
-51
-50
-50
-49
-50
-50
-51
-51
-51
-51
-51
-51
-51
-52
-51
-52
-52
-52
-53
-53
-53
-53
-53
-53
-54
-54
-54
-54
-53
-54
-54
-54
-54
-55
-55
-54
-54
-54
-54
-55
-55
-55
-54
-55
-55
-56
-56
-57
-57
-56
-56
-57
-58
-58
-58
-58
-57
-58
-58
-58
-58
-58
-58
-57
-57
-57
-58
-57
-57
-56
-56
-56
-57
-57
-57
-56
-56
-57
-57
-58
-58
-58
-57
-58
-57
-58
-59
-59
-58
-58
-59
-59
-59
-60
-59
-59
-59
-59
-60
-60
-60
-58
-58
-58
-58
-58
-59
-58
-58
-58
-58
-59
-59
-59
-58
-58
-58
-59
-59
-60
-60
-60
-60
-59
-60
-60
-61
-60
-60
-61
-61
-61
-61
-62
-61
-61
-60
-61
-61
-61
-61
-61
-59
-60
-60
-60
-60
-60
-60
-59
-59
-60
-61
-61
-61
-61
-61
-62
-63
-63
-64
-64
-64
-64
-65
-65
-66
-67
-67
-67
-68
-69
-69
-69
-70
-69
-69
-69
-69
-69
-69
-68
-67
-68
-67
-68
-68
-67
-67
-66
-66
-66
-68
-68
-68
-67
-68
-68
-69
-70
-71
-71
-71
-72
-73
-73
-73
-74
-74
-74
-74
-74
-75
-75
-75
-75
-74
-75
-75
-75
-75
-74
-74
-74
-74
-75
-75
-74
-73
-74
-74
-74
-74
-74
-74
-73
-73
-73
-74
-74
-74
-74
-74
-73
-73
-74
-73
-73
-73
-72
-72
-72
-72
-72
-72
-72
-71
-71
-71
-71
-71
-71
-71
-70
-70
-71
-71
-71
-71
-71
-71
-71
-72
-71
-71
-70
-70
-71
-71
-71
-70
-70
-70
-69
-70
-70
-71
-70
-70
-70
-70
-70
-72
-71
-72
-72
-71
-72
-72
-72
-72
-72
-71
-72
-72
-72
-72
-72
-71
-71
-70
-70
-70
-70
-70
-69
-68
-69
-69
-69
-68
-67
-67
-67
-67
-67
-68
-67
-67
-67
-67
-67
-67
-68
-68
-67
-67
-67
-67
-68
-68
-67
-66
-66
-67
-67
-67
-66
-66
-65
-65
-65
-65
-65
-66
-65
-65
-66
-66
-66
-67
-65
-65
-66
-66
-67
-67
-67
-67
-67
-67
-67
-68
-68
-68
-68
-67
-68
-68
-69
-69
-69
-68
-68
-69
-69
-68
-69
-69
-69
-69
-69
-70
-70
-70
-69
-69
-69
-70
-70
-70
-70
-69
-69
-70
-70
-70
-69
-70
-69
-69
-69
-70
-69
-70
-69
-69
-68
-70
-69
-69
-69
-68
-68
-69
-69
-69
-69
-68
-68
-68
-68
-68
-68
-69
-67
-67
-68
-68
-68
-68
-67
-67
-66
-67
-67
-67
-67
-66
-66
-66
-66
-66
-67
-67
-67
-66
-66
-67
-67
-68
-67
-66
-66
-67
-67
-67
-67
-67
-66
-66
-67
-67
-67
-67
-67
-66
-67
-66
-67
-66
-65
-65
-65
-64
-64
-64
-63
-63
-62
-62
-61
-61
-61
-61
-60
-59
-59
-59
-59
-59
-58
-58
-57
-58
-58
-57
-57
-56
-55
-56
-56
-57
-56
-56
-55
-56
-55
-56
-56
-56
-56
-56
-56
-57
-57
-58
-58
-58
-58
-59
-59
-60
-61
-60
-61
-61
-61
-63
-63
-63
-64
-63
-64
-64
-65
-65
-66
-67
-67
-67
-68
-68
-69
-69
-69
-69
-70
-70
-70
-71
-70
-70
-69
-70
-71
-71
-71
-71
-71
-71
-71
-71
-72
-72
-71
-71
-72
-72
-72
-73
-73
-72
-72
-72
-73
-73
-73
-72
-72
-72
-72
-73
-72
-73
-72
-72
-71
-73
-72
-72
-72
-71
-70
-71
-71
-72
-71
-71
-70
-70
-70
-71
-71
-71
-70
-70
-70
-70
-70
-71
-70
-69
-70
-69
-70
-71
-70
-70
-70
-70
-71
-71
-71
-71
-71
-71
-71
-72
-72
-72
-72
-71
-71
-71
-70
-70
-69
-68
-67
-66
-65
-64
-62
-59
-57
-55
-53
-51
-48
-46
-43
-39
-37
-33
-30
-27
-23
-19
-17
-14
-12
-10
-9
-7
-5
-5
-4
-6
-7
-11
-13
-18
-24
-31
-39
-48
-58
-68
-79
-89
-102
-115
-128
-141
-154
-167
-181
-193
-205
-218
-228
-238
-247
-257
-265
-273
-279
-284
-287
-291
-293
-295
-296
-295
-292
-289
-285
-281
-276
-268
-261
-252
-242
-234
-224
-215
-204
-193
-182
-171
-161
-151
-141
-132
-122
-113
-106
-99
-93
-86
-81
-75
-71
-68
-65
-62
-59
-56
-54
-54
-52
-52
-52
-50
-49
-48
-48
-49
-48
-48
-47
-47
-46
-46
-46
-47
-46
-45
-45
-45
-44
-44
-44
-43
-42
-42
-42
-42
-41
-41
-41
-40
-40
-40
-39
-40
-39
-39
-39
-39
-39
-40
-39
-39
-39
-38
-38
-38
-39
-38
-38
-37
-38
-37
-38
-37
-38
-36
-36
-36
-36
-35
-36
-36
-35
-35
-35
-35
-35
-34
-34
-34
-33
-34
-34
-35
-34
-33
-33
-33
-33
-34
-33
-33
-32
-32
-31
-32
-32
-32
-31
-30
-31
-31
-31
-31
-31
-29
-29
-30
-29
-30
-30
-29
-28
-28
-28
-28
-28
-27
-26
-26
-25
-26
-26
-25
-25
-24
-24
-24
-25
-24
-24
-24
-23
-23
-23
-24
-23
-24
-23
-23
-23
-23
-23
-23
-23
-22
-22
-22
-22
-22
-21
-21
-20
-20
-20
-20
-19
-20
-18
-17
-17
-17
-17
-16
-16
-14
-14
-14
-13
-13
-12
-12
-10
-10
-10
-9
-10
-9
-8
-7
-7
-6
-7
-6
-6
-5
-4
-4
-4
-3
-3
-2
-1
0
0
0
0
2
2
3
5
5
5
6
7
8
9
10
10
11
11
13
14
14
15
15
16
17
18
19
20
21
21
22
23
25
26
26
27
27
29
29
30
32
32
32
33
34
35
36
37
37
39
39
40
41
43
43
44
44
44
46
47
48
49
49
50
50
51
52
53
54
53
54
55
55
55
55
56
56
56
56
58
59
58
58
59
59
59
60
60
60
60
60
60
61
61
61
61
60
60
60
61
61
60
60
60
60
59
59
59
58
57
57
56
55
55
54
53
51
50
49
48
47
46
44
42
42
40
39
37
35
33
31
29
29
27
24
23
20
17
16
15
13
10
8
6
4
3
1
-1
-3
-5
-7
-8
-10
-10
-13
-14
-16
-18
-18
-20
-20
-22
-24
-25
-26
-27
-28
-28
-30
-32
-33
-33
-34
-35
-36
-37
-38
-38
-39
-40
-40
-41
-42
-43
-43
-43
-43
-44
-44
-45
-45
-46
-46
-45
-45
-46
-47
-46
-47
-46
-47
-47
-47
-48
-48
-48
-48
-47
-48
-48
-49
-48
-48
-48
-48
-50
-50
-50
-50
-50
-50
-51
-51
-51
-51
-51
-50
-50
-51
-51
-52
-51
-51
-51
-51
-51
-52
-51
-51
-51
-50
-51
-51
-51
-51
-51
-50
-50
-50
-51
-51
-50
-49
-50
-50
-50
-50
-50
-50
-49
-49
-49
-50
-50
-50
-49
-49
-49
-49
-50
-49
-50
-50
-49
-49
-50
-50
-50
-50
-49
-50
-49
-50
-50
-51
-49
-49
-48
-49
-49
-49
-48
-48
-47
-47
-48
-48
-48
-47
-47
-47
-47
-47
-47
-47
-47
-46
-47
-47
-48
-47
-47
-47
-46
-46
-47
-47
-46
-47
-45
-46
-45
-45
-46
-45
-44
-44
-44
-44
-44
-44
-44
-43
-43
-43
-44
-44
-44
-45
-44
-44
-45
-45
-45
-45
-45
-44
-45
-45
-46
-46
-46
-46
-46
-46
-46
-46
-46
-46
-45
-44
-45
-45
-45
-45
-44
-44
-43
-44
-44
-44
-44
-42
-42
-42
-42
-43
-44
-43
-43
-43
-43
-44
-44
-44
-43
-43
-43
-43
-44
-44
-44
-44
-43
-43
-44
-44
-45
-44
-44
-44
-44
-44
-45
-45
-45
-44
-45
-45
-45
-46
-46
-46
-46
-46
-46
-48
-48
-47
-47
-48
-48
-49
-48
-49
-49
-48
-48
-48
-49
-49
-49
-48
-49
-49
-49
-49
-49
-49
-49
-48
-49
-49
-50
-49
-49
-49
-48
-49
-50
-49
-49
-49
-48
-48
-48
-49
-49
-49
-49
-48
-48
-49
-49
-49
-49
-48
-48
-49
-49
-48
-49
-48
-48
-48
-48
-48
-48
-47
-47
-46
-47
-47
-47
-47
-46
-46
-46
-47
-47
-47
-46
-47
-47
-47
-47
-47
-47
-48
-47
-47
-48
-48
-48
-48
-48
-48
-48
-48
-49
-49
-48
-48
-48
-48
-48
-48
-48
-48
-47
-47
-47
-47
-48
-47
-46
-46
-46
-46
-46
-46
-46
-46
-45
-45
-45
-46
-45
-45
-46
-45
-45
-46
-47
-46
-46
-45
-46
-46
-47
-47
-47
-47
-47
-47
-47
-47
-47
-47
-47
-47
-46
-47
-47
-47
-47
-45
-46
-45
-46
-46
-46
-45
-45
-45
-44
-45
-44
-44
-43
-43
-43
-43
-44
-43
-43
-42
-43
-42
-43
-43
-43
-42
-42
-43
-43
-42
-43
-43
-43
-42
-43
-43
-42
-43
-41
-41
-41
-41
-41
-41
-41
-41
-41
-41
-41
-41
-41
-41
-40
-40
-41
-41
-41
-41
-40
-40
-40
-40
-40
-41
-41
-40
-40
-40
-41
-41
-41
-40
-40
-40
-41
-41
-41
-40
-41
-39
-40
-40
-41
-40
-40
-40
-39
-39
-40
-40
-40
-39
-39
-39
-39
-39
-40
-39
-39
-38
-38
-38
-38
-38
-37
-37
-37
-37
-37
-38
-38
-37
-38
-37
-37
-38
-38
-38
-38
-37
-38
-38
-39
-39
-39
-39
-39
-39
-39
-40
-40
-39
-39
-38
-38
-39
-38
-38
-38
-36
-36
-36
-36
-36
-36
-34
-34
-34
-35
-35
-35
-35
-34
-34
-35
-35
-35
-34
-34
-34
-34
-35
-35
-35
-34
-34
-34
-34
-35
-35
-35
-35
-35
-34
-34
-35
-35
-35
-35
-35
-34
-34
-34
-34
-33
-34
-33
-33
-33
-33
-33
-32
-32
-32
-32
-32
-32
-32
-32
-31
-31
-31
-32
-31
-32
-31
-31
-31
-31
-32
-33
-33
-32
-32
-32
-33
-33
-34
-33
-33
-33
-32
-34
-33
-33
-32
-32
-32
-32
-32
-32
-32
-31
-31
-31
-31
-32
-31
-31
-30
-29
-30
-30
-31
-30
-30
-30
-30
-30
-30
-30
-31
-29
-30
-30
-30
-31
-30
-30
-30
-30
-30
-31
-31
-31
-30
-30
-30
-31
-31
-31
-31
-30
-30
-30
-30
-30
-30
-29
-29
-28
-29
-29
-30
-30
-28
-28
-29
-29
-30
-29
-30
-28
-29
-29
-29
-29
-28
-28
-27
-27
-27
-27
-26
-25
-25
-24
-24
-24
-24
-23
-23
-22
-22
-22
-22
-22
-22
-22
-21
-21
-22
-22
-21
-21
-20
-20
-21
-20
-21
-20
-20
-19
-19
-18
-18
-19
-19
-18
-17
-18
-18
-19
-19
-19
-19
-20
-20
-21
-21
-21
-22
-22
-22
-23
-24
-24
-24
-24
-25
-24
-25
-27
-27
-28
-27
-28
-29
-30
-30
-30
-31
-32
-31
-32
-32
-33
-33
-33
-33
-34
-34
-35
-35
-35
-35
-34
-35
-35
-36
-36
-36
-36
-35
-36
-36
-37
-37
-37
-35
-36
-36
-37
-36
-37
-36
-35
-36
-37
-36
-37
-37
-36
-36
-36
-36
-36
-36
-35
-35
-34
-35
-35
-36
-35
-35
-34
-34
-35
-35
-35
-34
-34
-34
-34
-35
-35
-35
-35
-35
-35
-35
-35
-35
-35
-35
-35
-35
-36
-36
-36
-36
-36
-35
-35
-35
-36
-36
-35
-34
-35
-35
-35
-34
-34
-33
-31
-31
-30
-29
-27
-25
-24
-21
-20
-18
-16
-13
-10
-8
-4
-2
0
4
7
12
15
17
20
22
25
27
30
31
32
31
31
31
29
27
24
18
12
5
-4
-11
-21
-32
-43
-55
-68
-80
-93
-106
-120
-135
-148
-160
-173
-185
-196
-207
-217
-227
-235
-241
-248
-252
-258
-262
-264
-265
-265
-264
-263
-260
-255
-251
-244
-237
-229
-220
-212
-202
-192
-182
-170
-159
-149
-138
-128
-117
-107
-97
-88
-80
-73
-66
-58
-52
-47
-42
-38
-35
-32
-29
-26
-24
-23
-21
-20
-20
-18
-17
-17
-17
-16
-16
-15
-14
-14
-14
-14
-15
-14
-13
-12
-13
-12
-12
-12
-13
-12
-12
-12
-12
-13
-12
-12
-11
-11
-11
-11
-11
-11
-11
-10
-10
-10
-10
-10
-10
-10
-9
-9
-9
-9
-9
-9
-7
-7
-8
-8
-8
-9
-7
-8
-8
-8
-8
-8
-8
-8
-7
-8
-8
-8
-7
-7
-7
-7
-6
-7
-7
-7
-7
-6
-6
-6
-6
-7
-6
-5
-5
-5
-5
-5
-6
-6
-4
-5
-5
-5
-5
-4
-4
-4
-4
-4
-4
-4
-4
-3
-3
-2
-3
-2
-3
-2
-1
-1
-1
-1
-2
-1
-1
-1
0
0
-1
0
-1
1
0
1
1
0
0
1
1
2
2
2
1
2
3
3
4
4
3
3
4
4
5
5
5
5
6
7
7
8
7
7
7
7
9
9
9
9
9
9
10
10
11
11
11
11
11
12
13
13
14
13
14
14
16
16
17
17
17
18
18
19
20
21
21
20
21
23
24
24
24
25
25
26
27
27
28
28
28
29
30
30
31
31
32
32
33
34
35
36
37
37
37
38
39
40
41
41
42
42
44
45
46
47
47
47
48
49
50
51
51
51
51
52
53
54
54
54
54
55
55
57
58
59
59
58
60
61
62
62
63
64
63
64
66
67
67
67
67
68
68
70
70
70
70
70
70
71
71
71
71
70
70
70
71
70
70
70
70
69
70
70
70
69
68
68
68
67
68
68
67
66
66
64
65
64
63
62
60
60
59
58
57
56
54
53
52
51
50
48
47
45
43
41
40
39
37
35
33
30
29
28
26
23
21
19
18
16
14
13
10
8
6
5
3
1
0
-2
-4
-6
-7
-8
-10
-12
-13
-15
-16
-17
-18
-18
-20
-21
-23
-24
-25
-26
-27
-28
-30
-31
-32
-31
-32
-33
-34
-35
-35
-36
-36
-36
-37
-38
-39
-38
-38
-38
-38
-39
-40
-39
-40
-39
-40
-39
-40
-41
-41
-40
-40
-40
-41
-41
-42
-42
-42
-42
-42
-43
-44
-43
-44
-43
-43
-43
-44
-45
-45
-45
-44
-45
-45
-46
-46
-46
-46
-46
-46
-46
-47
-47
-47
-46
-47
-47
-47
-48
-48
-47
-47
-46
-47
-47
-47
-47
-47
-46
-46
-47
-47
-47
-47
-47
-46
-47
-48
-48
-48
-47
-47
-47
-48
-48
-49
-48
-48
-47
-48
-48
-48
-48
-47
-47
-46
-47
-47
-47
-46
-47
-46
-46
-46
-47
-48
-47
-47
-46
-46
-47
-48
-47
-48
-47
-47
-47
-47
-48
-48
-47
-47
-47
-46
-47
-46
-47
-46
-46
-46
-46
-46
-47
-47
-47
-46
-47
-47
-48
-48
-47
-46
-46
-47
-47
-47
-47
-47
-47
-46
-46
-47
-47
-47
-46
-47
-46
-47
-47
-47
-46
-46
-46
-46
-47
-48
-47
-47
-47
-47
-48
-48
-48
-48
-48
-48
-48
-48
-48
-48
-48
-47
-47
-47
-48
-48
-48
-47
-48
-47
-48
-49
-49
-48
-48
-49
-49
-49
-50
-50
-50
-50
-50
-51
-51
-52
-53
-52
-52
-52
-52
-53
-53
-53
-52
-52
-52
-54
-53
-53
-53
-52
-53
-53
-53
-53
-53
-52
-52
-53
-53
-53
-53
-54
-52
-53
-53
-54
-54
-53
-54
-54
-53
-53
-54
-54
-54
-53
-54
-54
-54
-54
-55
-54
-54
-54
-55
-55
-55
-55
-55
-55
-56
-56
-57
-57
-57
-57
-57
-58
-58
-59
-59
-60
-59
-60
-59
-60
-61
-61
-60
-60
-59
-59
-60
-59
-60
-59
-59
-58
-59
-59
-58
-58
-58
-57
-58
-58
-59
-58
-58
-58
-58
-58
-58
-59
-58
-58
-58
-59
-60
-60
-60
-60
-60
-60
-60
-62
-61
-61
-61
-61
-61
-62
-63
-63
-63
-62
-62
-62
-62
-62
-63
-62
-62
-62
-62
-63
-63
-63
-62
-62
-62
-63
-63
-63
-64
-63
-63
-63
-64
-64
-65
-64
-64
-64
-64
-65
-65
-65
-65
-65
-65
-64
-66
-65
-65
-65
-64
-64
-65
-66
-65
-65
-64
-64
-65
-65
-65
-65
-65
-64
-64
-65
-65
-66
-65
-64
-65
-65
-65
-66
-65
-66
-66
-65
-65
-67
-66
-66
-66
-65
-66
-66
-67
-67
-66
-66
-65
-66
-67
-67
-66
-67
-67
-66
-66
-66
-67
-67
-67
-66
-65
-66
-67
-66
-67
-66
-66
-66
-66
-67
-66
-66
-66
-66
-66
-66
-67
-67
-66
-66
-66
-66
-67
-67
-67
-66
-66
-67
-67
-67
-67
-67
-67
-66
-67
-67
-67
-67
-67
-66
-67
-66
-67
-67
-67
-67
-66
-66
-66
-68
-67
-67
-67
-67
-67
-68
-68
-68
-68
-67
-67
-68
-68
-69
-68
-67
-68
-68
-68
-69
-69
-68
-68
-68
-67
-68
-68
-68
-68
-66
-67
-67
-68
-68
-68
-68
-67
-67
-67
-69
-68
-68
-68
-68
-68
-69
-69
-69
-69
-69
-69
-69
-69
-69
-70
-68
-69
-68
-69
-69
-69
-68
-68
-69
-68
-69
-68
-69
-68
-68
-68
-68
-68
-69
-68
-68
-68
-68
-69
-69
-69
-69
-69
-68
-69
-69
-70
-70
-69
-69
-69
-70
-70
-70
-69
-69
-69
-69
-70
-70
-70
-70
-70
-69
-69
-69
-70
-70
-70
-69
-69
-70
-70
-70
-70
-69
-69
-69
-69
-70
-70
-70
-69
-70
-70
-71
-71
-71
-71
-71
-70
-71
-72
-71
-71
-72
-71
-71
-71
-71
-72
-71
-71
-70
-71
-70
-71
-71
-71
-69
-70
-70
-70
-70
-71
-70
-70
-70
-70
-70
-71
-70
-70
-71
-70
-71
-72
-72
-72
-71
-70
-71
-72
-71
-72
-71
-71
-71
-71
-71
-71
-71
-70
-71
-71
-71
-72
-71
-71
-71
-71
-72
-72
-72
-72
-72
-71
-71
-71
-72
-72
-72
-72
-71
-71
-71
-72
-71
-70
-70
-69
-69
-68
-69
-68
-66
-66
-65
-65
-65
-64
-64
-63
-62
-62
-63
-63
-62
-62
-62
-62
-62
-62
-62
-62
-61
-60
-61
-61
-61
-61
-60
-60
-59
-60
-60
-59
-59
-59
-59
-58
-59
-59
-60
-60
-60
-60
-60
-60
-62
-62
-62
-63
-63
-64
-65
-65
-66
-66
-66
-67
-68
-68
-69
-70
-70
-70
-72
-72
-73
-74
-74
-74
-74
-75
-76
-76
-76
-76
-77
-76
-77
-78
-78
-78
-78
-77
-78
-78
-78
-79
-78
-78
-78
-78
-79
-79
-78
-78
-77
-78
-78
-78
-79
-78
-77
-77
-78
-77
-78
-78
-77
-77
-77
-76
-78
-78
-78
-77
-76
-77
-76
-78
-77
-77
-78
-77
-77
-78
-78
-79
-78
-78
-79
-78
-80
-79
-79
-79
-79
-78
-79
-79
-79
-79
-78
-77
-77
-78
-78
-77
-78
-77
-77
-76
-77
-77
-77
-76
-76
-75
-76
-76
-75
-75
-74
-73
-73
-72
-71
-70
-68
-66
-64
-62
-60
-58
-56
-54
-51
-47
-45
-42
-39
-35
-32
-28
-25
-22
-19
-16
-14
-11
-10
-8
-8
-7
-8
-8
-10
-14
-18
-24
-31
-38
-46
-55
-65
-76
-87
-100
-111
-124
-137
-150
-164
-177
-190
-203
-215
-226
-237
-248
-258
-267
-274
-280
-287
-291
-296
-300
-301
-303
-303
-301
-300
-297
-292
-286
-279
-272
-265
-257
-248
-238
-227
-216
-205
-195
-185
-174
-164
-153
-144
-135
-127
-119
-112
-104
-98
-91
-87
-83
-79
-76
-73
-70
-68
-66
-65
-64
-62
-61
-59
-59
-59
-58
-57
-57
-55
-55
-55
-55
-55
-54
-54
-53
-52
-53
-53
-53
-52
-52
-52
-52
-52
-52
-51
-51
-50
-51
-50
-51
-50
-50
-49
-49
-49
-50
-50
-49
-49
-48
-48
-48
-48
-49
-49
-48
-47
-47
-46
-47
-46
-46
-45
-45
-45
-46
-46
-45
-45
-44
-45
-44
-45
-45
-45
-45
-44
-44
-44
-45
-45
-44
-44
-43
-43
-43
-44
-44
-44
-43
-43
-42
-42
-43
-43
-42
-41
-41
-40
-41
-41
-41
-40
-40
-39
-40
-40
-40
-39
-39
-38
-38
-38
-38
-38
-37
-37
-37
-36
-36
-36
-36
-35
-35
-35
-35
-35
-35
-35
-35
-34
-34
-34
-35
-35
-34
-34
-33
-32
-33
-33
-33
-32
-32
-32
-31
-31
-31
-30
-30
-30
-29
-30
-29
-29
-28
-28
-28
-27
-27
-28
-27
-26
-26
-26
-26
-26
-25
-25
-24
-24
-23
-23
-23
-22
-21
-20
-19
-19
-19
-19
-18
-17
-16
-16
-15
-15
-15
-13
-13
-12
-11
-11
-11
-10
-9
-8
-8
-7
-7
-7
-6
-4
-3
-3
-3
-2
-1
-1
0
1
2
2
2
2
4
5
5
6
7
7
8
9
10
11
11
12
13
14
15
17
17
18
18
20
21
22
23
24
24
24
25
26
27
27
28
28
29
29
30
31
31
31
32
33
33
35
36
35
36
36
37
39
39
40
41
41
41
42
42
43
43
44
44
44
45
45
46
45
45
45
46
46
46
46
46
45
45
45
46
45
45
45
44
45
45
45
44
44
43
43
42
42
42
41
40
39
37
37
37
35
34
33
32
30
29
29
27
26
24
22
21
20
19
17
16
13
12
10
9
8
5
3
1
-1
-2
-4
-5
-7
-9
-11
-12
-14
-15
-17
-19
-22
-23
-24
-26
-28
-29
-32
-33
-35
-36
-36
-38
-39
-41
-43
-44
-45
-44
-46
-48
-48
-49
-50
-50
-50
-51
-52
-53
-53
-53
-52
-53
-53
-55
-55
-55
-55
-56
-56
-56
-58
-57
-58
-58
-59
-58
-60
-60
-60
-60
-60
-59
-59
-60
-60
-59
-59
-58
-58
-59
-60
-59
-60
-59
-59
-59
-59
-60
-60
-60
-60
-60
-60
-62
-62
-62
-61
-62
-62
-62
-63
-63
-62
-62
-61
-62
-62
-62
-62
-61
-61
-60
-61
-60
-61
-60
-59
-59
-59
-60
-60
-60
-60
-59
-59
-59
-60
-60
-60
-60
-60
-60
-60
-61
-61
-60
-60
-60
-60
-60
-60
-61
-60
-59
-59
-59
-60
-60
-60
-59
-59
-58
-58
-59
-59
-59
-58
-57
-57
-59
-59
-58
-59
-58
-58
-58
-59
-59
-58
-58
-58
-58
-57
-57
-58
-58
-57
-57
-57
-57
-58
-57
-57
-56
-56
-56
-56
-57
-57
-56
-55
-56
-55
-55
-56
-56
-55
-55
-55
-55
-56
-56
-56
-55
-55
-56
-56
-56
-56
-56
-56
-56
-56
-57
-57
-57
-56
-57
-57
-57
-57
-58
-57
-56
-57
-56
-58
-58
-58
-57
-57
-56
-57
-57
-57
-57
-57
-57
-57
-57
-58
-58
-58
-58
-57
-58
-58
-58
-58
-58
-57
-58
-57
-58
-58
-59
-58
-58
-58
-58
-59
-59
-59
-59
-59
-58
-59
-59
-59
-59
-59
-59
-59
-60
-60
-60
-59
-60
-59
-60
-60
-60
-61
-60
-60
-60
-60
-61
-61
-60
-60
-61
-60
-60
-61
-61
-61
-61
-61
-61
-61
-61
-61
-61
-61
-60
-61
-61
-61
-61
-61
-60
-61
-61
-62
-61
-61
-60
-60
-61
-61
-61
-62
-62
-61
-61
-62
-62
-62
-62
-62
-61
-62
-62
-63
-62
-62
-61
-61
-62
-62
-62
-63
-61
-62
-62
-62
-62
-62
-62
-62
-61
-62
-62
-62
-62
-61
-61
-61
-61
-62
-62
-62
-62
-61
-61
-61
-61
-62
-62
-61
-61
-61
-61
-62
-62
-62
-61
-61
-62
-62
-63
-62
-61
-61
-61
-62
-63
-62
-62
-62
-62
-61
-62
-63
-62
-61
-61
-61
-61
-62
-62
-62
-62
-61
-61
-62
-62
-62
-61
-61
-60
-61
-61
-62
-61
-61
-60
-61
-61
-61
-61
-61
-60
-61
-61
-60
-61
-61
-60
-61
-61
-60
-62
-61
-61
-61
-61
-61
-61
-61
-62
-61
-61
-61
-61
-61
-61
-61
-61
-60
-60
-61
-61
-60
-61
-61
-61
-60
-60
-62
-61
-62
-62
-61
-61
-62
-62
-62
-62
-62
-61
-62
-62
-62
-62
-62
-61
-61
-61
-61
-61
-61
-60
-60
-60
-60
-60
-60
-59
-58
-58
-58
-58
-58
-59
-58
-57
-58
-58
-59
-58
-59
-58
-58
-58
-58
-59
-59
-58
-59
-58
-58
-60
-60
-60
-60
-59
-59
-60
-60
-60
-61
-61
-60
-61
-61
-61
-61
-61
-61
-61
-61
-61
-61
-61
-60
-60
-60
-60
-61
-60
-60
-60
-59
-60
-60
-60
-60
-59
-59
-59
-59
-59
-60
-59
-60
-59
-59
-60
-60
-61
-60
-60
-60
-60
-61
-61
-61
-61
-60
-61
-60
-61
-61
-61
-61
-60
-60
-61
-61
-61
-61
-60
-60
-61
-61
-61
-61
-61
-61
-61
-61
-62
-62
-61
-61
-61
-61
-61
-62
-61
-61
-60
-60
-61
-61
-60
-60
-60
-60
-59
-59
-60
-60
-60
-59
-58
-59
-60
-59
-60
-59
-59
-59
-59
-60
-60
-60
-59
-59
-59
-59
-60
-60
-60
-60
-60
-60
-60
-61
-61
-61
-60
-60
-61
-61
-61
-61
-61
-61
-61
-61
-62
-62
-61
-61
-61
-61
-61
-61
-62
-61
-61
-61
-60
-60
-61
-61
-60
-60
-59
-59
-60
-60
-59
-59
-59
-59
-59
-59
-59
-59
-59
-59
-59
-59
-59
-60
-60
-60
-59
-60
-60
-60
-60
-60
-60
-60
-60
-61
-60
-60
-59
-59
-58
-59
-59
-58
-58
-57
-57
-56
-56
-56
-56
-56
-55
-55
-55
-55
-55
-54
-54
-54
-53
-54
-54
-53
-53
-52
-53
-52
-53
-53
-52
-51
-51
-51
-51
-51
-52
-51
-51
-50
-51
-51
-52
-52
-52
-52
-52
-53
-53
-54
-54
-54
-54
-54
-55
-56
-56
-57
-57
-57
-58
-59
-59
-60
-61
-60
-61
-62
-62
-63
-64
-64
-64
-65
-66
-66
-66
-66
-66
-66
-67
-67
-67
-67
-67
-67
-67
-66
-68
-68
-67
-67
-67
-66
-67
-67
-68
-67
-67
-66
-66
-66
-66
-66
-66
-66
-66
-66
-66
-67
-66
-66
-66
-66
-67
-68
-68
-68
-68
-68
-68
-69
-69
-69
-68
-68
-68
-68
-68
-68
-68
-67
-67
-66
-66
-67
-67
-67
-66
-66
-66
-67
-67
-67
-66
-66
-67
-67
-67
-67
-67
-67
-67
-67
-67
-67
-68
-67
-66
-66
-65
-66
-66
-65
-64
-62
-61
-61
-60
-58
-56
-55
-52
-51
-49
-47
-45
-43
-40
-37
-35
-33
-30
-27
-24
-20
-17
-14
-12
-10
-7
-4
-2
0
0
2
1
2
0
-2
-4
-9
-14
-21
-26
-34
-42
-51
-61
-71
-83
-93
-105
-117
-130
-142
-154
-166
-177
-188
-199
-210
-220
-228
-236
-244
-250
-256
-261
-266
-270
-272
-272
-273
-272
-270
-268
-264
-259
-253
-247
-240
-232
-224
-214
-203
-193
-183
-174
-164
-155
-144
-135
-126
-118
-110
-103
-96
-89
-83
-78
-75
-71
-67
-64
-61
-59
-57
-56
-55
-54
-52
-51
-52
-52
-51
-51
-51
-49
-49
-49
-49
-49
-49
-48
-47
-47
-47
-47
-47
-46
-47
-46
-46
-46
-46
-47
-47
-46
-46
-46
-46
-46
-47
-46
-46
-46
-46
-46
-46
-46
-45
-45
-44
-43
-42
-42
-41
-39
-38
-37
-37
-36
-35
-35
-33
-32
-31
-32
-32
-31
-30
-30
-30
-31
-32
-33
-33
-34
-33
-35
-36
-37
-38
-38
-38
-38
-40
-41
-41
-41
-41
-41
-41
-41
-42
-41
-42
-40
-40
-40
-40
-40
-40
-39
-39
-38
-37
-37
-37
-37
-37
-35
-35
-36
-36
-36
-37
-36
-36
-37
-37
-38
-38
-38
-39
-39
-40
-41
-42
-43
-44
-43
-44
-45
-46
-46
-46
-46
-46
-47
-47
-48
-48
-48
-47
-47
-47
-48
-48
-48
-46
-46
-46
-46
-46
-45
-45
-43
-42
-42
-41
-40
-39
-36
-35
-33
-32
-30
-29
-27
-26
-24
-24
-22
-22
-21
-20
-20
-18
-18
-18
-19
-19
-17
-17
-17
-17
-17
-18
-17
-17
-17
-16
-17
-17
-17
-17
-16
-16
-15
-15
-16
-15
-15
-14
-13
-13
-13
-13
-12
-12
-11
-10
-10
-9
-9
-8
-8
-6
-5
-5
-5
-4
-3
-2
0
0
1
1
2
3
5
4
5
7
7
7
9
10
11
11
12
12
14
14
16
16
17
18
18
19
20
21
21
21
22
22
23
24
24
25
25
25
26
26
27
27
27
27
28
28
29
30
29
29
30
29
31
31
31
31
31
31
32
32
32
33
33
32
32
33
33
33
32
32
31
31
31
32
31
30
29
28
29
28
28
27
26
25
24
23
22
21
20
19
18
17
16
14
14
12
10
8
8
6
4
4
1
-1
-3
-4
-4
-7
-8
-10
-12
-13
-14
-15
-16
-19
-20
-22
-23
-24
-25
-27
-28
-31
-32
-33
-33
-35
-37
-38
-40
-42
-43
-43
-44
-45
-47
-48
-49
-50
-50
-52
-52
-53
-54
-54
-54
-55
-56
-57
-58
-58
-58
-58
-59
-59
-60
-61
-61
-61
-60
-61
-62
-63
-63
-63
-62
-63
-63
-64
-65
-65
-65
-65
-65
-65
-66
-66
-66
-66
-65
-65
-67
-67
-66
-66
-66
-66
-66
-66
-66
-65
-65
-65
-65
-65
-65
-65
-65
-65
-65
-65
-65
-66
-66
-65
-65
-66
-66
-66
-67
-67
-66
-66
-66
-66
-67
-67
-66
-66
-66
-67
-67
-67
-67
-66
-66
-66
-66
-66
-67
-66
-66
-65
-66
-66
-66
-65
-65
-65
-64
-64
-65
-65
-65
-65
-64
-64
-65
-65
-65
-65
-65
-65
-65
-66
-66
-66
-66
-66
-65
-65
-66
-66
-66
-65
-65
-64
-64
-65
-65
-64
-64
-64
-63
-64
-64
-64
-64
-63
-63
-62
-64
-64
-64
-63
-62
-62
-63
-64
-63
-63
-63
-63
-64
-64
-64
-65
-64
-64
-64
-64
-64
-65
-65
-65
-65
-65
-66
-65
-66
-66
-66
-65
-65
-65
-66
-66
-66
-65
-65
-66
-66
-66
-66
-65
-65
-65
-66
-66
-66
-67
-67
-67
-67
-68
-68
-69
-69
-69
-68
-68
-69
-70
-70
-70
-70
-70
-71
-71
-71
-71
-71
-70
-71
-71
-72
-72
-72
-72
-72
-71
-71
-73
-73
-72
-71
-72
-72
-72
-73
-73
-72
-72
-72
-72
-73
-72
-72
-72
-71
-72
-72
-73
-73
-72
-72
-72
-73
-73
-73
-73
-73
-73
-73
-74
-75
-75
-74
-74
-74
-74
-75
-76
-76
-75
-75
-75
-75
-76
-76
-76
-76
-75
-75
-75
-76
-76
-76
-75
-75
-76
-76
-78
-78
-78
-77
-78
-78
-78
-79
-79
-79
-79
-79
-80
-81
-81
-81
-81
-80
-81
-81
-81
-81
-81
-80
-81
-81
-81
-81
-81
-80
-79
-80
-80
-80
-81
-80
-79
-80
-79
-80
-81
-81
-80
-80
-79
-80
-81
-81
-81
-81
-80
-80
-80
-80
-81
-80
-80
-79
-79
-79
-80
-80
-78
-78
-78
-79
-79
-79
-79
-79
-79
-79
-79
-80
-79
-79
-79
-78
-78
-80
-80
-80
-79
-79
-79
-80
-80
-80
-80
-80
-80
-80
-80
-80
-81
-81
-79
-80
-80
-80
-81
-81
-80
-80
-81
-81
-81
-81
-82
-82
-81
-81
-82
-83
-83
-83
-82
-82
-82
-83
-83
-83
-83
-83
-82
-83
-83
-83
-83
-83
-81
-81
-83
-83
-83
-82
-82
-82
-81
-82
-83
-83
-81
-81
-81
-82
-83
-82
-83
-82
-82
-83
-83
-83
-84
-83
-83
-83
-84
-84
-84
-84
-84
-83
-84
-84
-84
-84
-85
-84
-84
-84
-84
-84
-85
-84
-83
-83
-83
-83
-83
-83
-82
-82
-82
-83
-83
-83
-82
-82
-82
-82
-82
-82
-82
-82
-82
-82
-82
-82
-84
-84
-83
-83
-83
-84
-84
-85
-85
-84
-84
-85
-85
-85
-85
-85
-85
-84
-84
-85
-85
-85
-84
-83
-83
-84
-84
-84
-85
-83
-83
-83
-84
-84
-84
-83
-83
-83
-83
-83
-83
-84
-82
-82
-83
-82
-84
-83
-83
-83
-83
-83
-83
-84
-84
-84
-84
-83
-84
-84
-85
-85
-85
-84
-83
-84
-85
-84
-85
-84
-84
-84
-85
-86
-86
-85
-85
-85
-85
-85
-85
-85
-84
-85
-85
-85
-85
-86
-85
-85
-84
-84
-85
-85
-85
-85
-85
-84
-84
-85
-86
-85
-85
-85
-84
-85
-86
-86
-86
-86
-85
-85
-86
-86
-87
-86
-86
-86
-86
-86
-86
-86
-86
-86
-85
-86
-86
-86
-86
-86
-85
-86
-86
-86
-86
-86
-86
-86
-86
-86
-87
-87
-86
-86
-85
-86
-87
-87
-86
-86
-85
-85
-85
-86
-86
-85
-85
-84
-85
-85
-85
-86
-85
-85
-85
-86
-86
-87
-87
-87
-85
-85
-86
-86
-86
-86
-84
-84
-84
-83
-83
-83
-82
-81
-81
-81
-81
-81
-81
-80
-80
-79
-79
-80
-79
-80
-79
-79
-79
-79
-79
-80
-79
-78
-79
-79
-79
-80
-80
-80
-80
-80
-80
-81
-81
-81
-81
-80
-81
-81
-82
-82
-82
-82
-82
-82
-83
-84
-84
-84
-84
-84
-84
-86
-86
-86
-86
-86
-88
-88
-89
-90
-90
-90
-91
-92
-93
-93
-94
-94
-93
-93
-94
-95
-95
-95
-95
-95
-95
-95
-95
-95
-95
-94
-94
-94
-94
-95
-95
-94
-94
-94
-94
-95
-95
-95
-94
-95
-95
-95
-95
-95
-95
-95
-96
-95
-96
-96
-96
-96
-96
-96
-97
-97
-96
-96
-96
-95
-95
-96
-96
-96
-96
-96
-95
-96
-96
-96
-96
-96
-96
-96
-96
-97
-97
-97
-97
-96
-96
-97
-97
-97
-96
-97
-96
-97
-97
-98
-97
-96
-96
-96
-96
-96
-95
-95
-93
-92
-91
-90
-90
-87
-85
-83
-81
-79
-77
-75
-73
-70
-67
-64
-61
-60
-56
-52
-49
-46
-43
-41
-40
-38
-35
-33
-33
-33
-32
-33
-34
-36
-38
-42
-47
-54
-61
-68
-76
-85
-95
-105
-117
-128
-140
-152
-164
-178
-190
-203
-214
-226
-237
-247
-257
-267
-276
-284
-289
-295
-301
-305
-308
-311
-312
-312
-311
-310
-308
-305
-300
-294
-287
-281
-273
-265
-257
-248
-236
-226
-216
-207
-197
-188
-178
-168
-158
-151
-143
-136
-129
-122
-116
-110
-106
-102
-98
-95
-92
-88
-86
-85
-84
-83
-81
-79
-78
-78
-78
-78
-77
-76
-75
-76
-76
-76
-76
-76
-75
-74
-74
-75
-75
-74
-74
-73
-73
-73
-73
-73
-73
-73
-72
-72
-72
-72
-71
-71
-70
-69
-69
-70
-70
-70
-68
-68
-68
-68
-68
-68
-68
-67
-67
-66
-67
-68
-67
-67
-66
-66
-66
-66
-67
-67
-66
-66
-67
-66
-66
-67
-67
-66
-66
-66
-66
-66
-66
-65
-65
-65
-65
-65
-67
-67
-67
-67
-67
-68
-68
-69
-69
-69
-69
-69
-70
-70
-71
-70
-69
-69
-69
-69
-69
-68
-68
-66
-66
-65
-65
-65
-65
-64
-63
-62
-62
-62
-61
-61
-60
-60
-60
-59
-60
-60
-58
-58
-58
-58
-59
-58
-58
-58
-57
-58
-58
-58
-58
-57
-57
-56
-56
-56
-56
-56
-55
-55
-54
-55
-55
-55
-55
-54
-54
-54
-54
-54
-55
-55
-54
-54
-54
-54
-55
-54
-54
-53
-54
-53
-54
-54
-54
-53
-53
-53
-53
-53
-53
-52
-51
-51
-51
-50
-50
-50
-49
-48
-47
-47
-47
-47
-46
-45
-44
-44
-43
-44
-42
-42
-41
-40
-40
-39
-39
-38
-37
-37
-36
-35
-35
-34
-33
-32
-31
-30
-30
-29
-29
-28
-26
-26
-24
-25
-24
-24
-23
-21
-21
-20
-20
-20
-18
-18
-16
-15
-15
-15
-14
-12
-12
-10
-9
-9
-9
-8
-7
-6
-5
-4
-4
-4
-3
-2
-1
-1
0
0
1
1
2
2
4
3
3
4
4
5
5
6
5
6
6
7
7
8
8
7
7
8
8
8
8
8
7
7
8
8
8
7
6
6
5
6
5
5
4
3
2
2
1
1
1
0
-2
-3
-4
-5
-6
-7
-8
-10
-11
-13
-13
-15
-18
-20
-21
-22
-23
-24
-25
-26
-28
-30
-32
-34
-35
-36
-39
-41
-43
-44
-47
-48
-51
-54
-57
-59
-61
-64
-67
-70
-73
-76
-78
-80
-82
-85
-86
-88
-90
-91
-93
-93
-95
-97
-98
-99
-100
-100
-101
-101
-103
-104
-104
-104
-104
-105
-107
-108
-108
-107
-107
-109
-109
-109
-110
-110
-110
-110
-110
-110
-110
-111
-110
-110
-110
-110
-111
-111
-111
-111
-110
-110
-110
-112
-111
-111
-111
-110
-110
-111
-112
-112
-112
-112
-111
-112
-112
-112
-112
-112
-112
-112
-112
-112
-113
-113
-112
-111
-111
-112
-112
-112
-112
-111
-110
-111
-112
-111
-111
-111
-110
-110
-110
-110
-110
-109
-109
-107
-107
-107
-107
-108
-107
-106
-105
-106
-105
-105
-105
-103
-102
-102
-102
-102
-102
-101
-101
-99
-99
-99
-99
-98
-98
-97
-97
-96
-96
-97
-96
-96
-95
-95
-95
-95
-95
-95
-94
-94
-94
-94
-95
-95
-94
-94
-93
-94
-94
-94
-94
-94
-94
-93
-93
-94
-93
-93
-93
-93
-92
-92
-92
-93
-93
-92
-92
-92
-92
-92
-92
-92
-91
-91
-92
-92
-92
-92
-91
-91
-91
-91
-92
-92
-91
-91
-90
-91
-91
-92
-92
-91
-91
-91
-92
-92
-92
-92
-91
-91
-91
-92
-92
-92
-92
-91
-92
-92
-92
-92
-92
-92
-91
-92
-92
-91
-91
-92
-90
-91
-91
-91
-91
-91
-91
-91
-91
-91
-91
-92
-92
-91
-91
-91
-92
-92
-93
-92
-92
-91
-91
-92
-92
-91
-91
-91
-90
-90
-90
-91
-90
-90
-89
-89
-90
-91
-90
-91
-91
-91
-91
-91
-92
-92
-92
-92
-93
-93
-94
-94
-94
-94
-93
-94
-94
-95
-95
-95
-94
-95
-94
-94
-95
-95
-94
-94
-94
-94
-95
-95
-95
-95
-95
-95
-95
-95
-96
-96
-96
-96
-96
-96
-96
-96
-96
-95
-95
-96
-96
-96
-96
-96
-95
-95
-95
-96
-96
-96
-95
-95
-95
-96
-97
-97
-96
-96
-96
-97
-97
-97
-97
-97
-96
-97
-97
-97
-97
-97
-96
-96
-96
-96
-96
-96
-96
-96
-95
-96
-96
-96
-96
-96
-95
-95
-96
-97
-96
-97
-96
-96
-96
-96
-97
-97
-97
-97
-97
-98
-99
-99
-99
-99
-99
-100
-101
-101
-101
-102
-102
-102
-102
-103
-103
-104
-103
-103
-103
-104
-104
-105
-105
-104
-104
-103
-103
-105
-104
-105
-104
-104
-104
-105
-105
-106
-106
-106
-106
-107
-107
-108
-108
-108
-108
-108
-109
-109
-110
-109
-109
-109
-109
-109
-109
-108
-109
-107
-107
-107
-108
-108
-108
-107
-107
-106
-106
-108
-107
-108
-108
-108
-107
-107
-109
-109
-108
-107
-108
-108
-108
-108
-108
-108
-107
-106
-106
-106
-107
-106
-106
-105
-105
-105
-105
-106
-105
-105
-104
-105
-105
-105
-106
-105
-105
-105
-105
-106
-106
-106
-106
-106
-105
-106
-106
-106
-106
-106
-105
-106
-106
-107
-107
-106
-106
-105
-106
-107
-106
-107
-106
-105
-105
-106
-107
-107
-107
-107
-107
-107
-107
-107
-108
-108
-106
-107
-107
-107
-108
-107
-107
-106
-106
-105
-106
-106
-105
-105
-104
-104
-104
-105
-105
-104
-104
-104
-104
-104
-105
-104
-104
-103
-103
-103
-104
-104
-103
-103
-102
-103
-103
-103
-103
-102
-102
-102
-102
-102
-102
-102
-101
-101
-101
-101
-102
-101
-101
-101
-100
-101
-102
-102
-102
-102
-102
-101
-102
-103
-102
-103
-103
-102
-102
-103
-103
-104
-103
-103
-103
-103
-103
-104
-103
-104
-103
-103
-103
-104
-104
-104
-103
-103
-103
-103
-104
-104
-104
-104
-103
-104
-104
-104
-104
-104
-104
-104
-104
-104
-104
-104
-104
-104
-104
-104
-104
-104
-104
-104
-103
-103
-104
-104
-103
-103
-103
-102
-103
-103
-104
-103
-103
-102
-102
-102
-102
-103
-103
-102
-102
-102
-102
-103
-103
-102
-102
-103
-103
-103
-104
-103
-103
-103
-103
-103
-103
-104
-104
-103
-104
-103
-103
-104
-105
-104
-104
-103
-104
-105
-105
-105
-105
-104
-103
-104
-105
-105
-104
-104
-103
-104
-104
-104
-103
-103
-102
-102
-102
-101
-102
-101
-100
-99
-98
-98
-98
-98
-97
-97
-96
-96
-96
-97
-96
-96
-96
-95
-96
-96
-96
-96
-95
-95
-95
-95
-96
-96
-95
-95
-95
-95
-95
-95
-95
-95
-94
-94
-94
-95
-94
-95
-95
-94
-94
-95
-95
-96
-95
-95
-96
-96
-97
-98
-98
-98
-98
-99
-99
-101
-100
-101
-101
-102
-103
-104
-104
-105
-106
-106
-106
-108
-108
-109
-110
-110
-110
-111
-111
-112
-112
-112
-112
-111
-112
-112
-112
-113
-113
-112
-112
-113
-113
-113
-113
-112
-111
-112
-112
-112
-112
-112
-111
-111
-111
-112
-112
-112
-111
-111
-111
-112
-112
-113
-113
-112
-112
-111
-112
-113
-113
-113
-113
-112
-113
-112
-113
-113
-113
-113
-113
-113
-113
-113
-113
-112
-112
-112
-111
-112
-112
-112
-111
-111
-111
-110
-111
-111
-110
-110
-110
-111
-111
-111
-111
-111
-110
-111
-110
-111
-111
-110
-109
-108
-107
-106
-106
-105
-103
-100
-98
-96
-94
-93
-89
-87
-84
-81
-79
-75
-72
-68
-64
-61
-57
-56
-53
-51
-49
-46
-46
-45
-45
-46
-47
-49
-51
-55
-60
-66
-74
-82
-90
-100
-109
-121
-132
-145
-156
-170
-182
-195
-209
-222
-234
-247
-258
-268
-279
-290
-299
-307
-314
-319
-324
-330
-333
-336
-337
-337
-337
-335
-333
-329
-324
-318
-311
-303
-296
-288
-278
-269
-258
-246
-236
-225
-215
-204
-193
-183
-174
-165
-157
-149
-142
-135
-128
-123
-118
-114
-111
-107
-104
-101
-99
-97
-96
-95
-94
-91
-91
-90
-90
-89
-89
-88
-87
-86
-87
-87
-87
-86
-85
-85
-84
-84
-84
-85
-84
-83
-83
-82
-83
-83
-83
-82
-82
-82
-82
-83
-82
-83
-82
-81
-81
-82
-82
-82
-82
-81
-81
-81
-81
-81
-81
-80
-80
-79
-79
-79
-79
-78
-78
-77
-78
-77
-78
-77
-76
-76
-76
-77
-76
-77
-76
-76
-76
-76
-76
-77
-77
-77
-76
-76
-76
-76
-76
-77
-77
-75
-75
-76
-76
-76
-76
-75
-75
-74
-74
-74
-74
-73
-73
-73
-72
-73
-73
-73
-73
-72
-72
-72
-72
-71
-72
-72
-71
-71
-71
-71
-70
-71
-70
-69
-69
-69
-69
-69
-68
-68
-68
-68
-68
-67
-67
-67
-66
-67
-67
-67
-67
-67
-67
-67
-67
-67
-68
-68
-68
-68
-68
-68
-67
-68
-68
-67
-66
-66
-66
-66
-65
-64
-64
-62
-61
-61
-61
-60
-59
-59
-58
-56
-57
-57
-56
-56
-54
-54
-53
-53
-53
-52
-52
-51
-50
-50
-50
-50
-50
-49
-47
-47
-48
-47
-46
-46
-45
-44
-44
-44
-44
-43
-42
-41
-41
-40
-40
-40
-39
-38
-38
-37
-37
-36
-36
-35
-34
-33
-33
-32
-31
-30
-29
-27
-27
-26
-26
-25
-23
-22
-21
-20
-20
-20
-18
-17
-16
-15
-15
-15
-14
-13
-12
-12
-11
-10
-10
-10
-9
-8
-7
-7
-7
-7
-6
-4
-4
-3
-3
-2
-1
-1
1
1
3
3
3
4
5
5
6
6
6
6
7
7
9
8
9
8
8
8
8
10
9
9
9
9
8
9
9
8
9
8
7
7
8
7
6
6
5
4
3
3
2
2
0
-2
-2
-3
-4
-6
-7
-9
-11
-12
-13
-15
-17
-19
-21
-23
-25
-27
-28
-31
-33
-36
-37
-39
-41
-42
-45
-47
-49
-51
-52
-54
-56
-58
-60
-61
-63
-64
-65
-67
-69
-71
-73
-74
-75
-76
-79
-80
-81
-82
-83
-84
-85
-86
-88
-89
-89
-89
-90
-91
-93
-94
-94
-94
-95
-95
-96
-96
-98
-98
-98
-98
-99
-100
-101
-101
-101
-101
-102
-103
-103
-104
-103
-103
-104
-104
-104
-106
-106
-106
-106
-105
-106
-106
-106
-106
-106
-106
-106
-107
-107
-107
-107
-107
-107
-107
-108
-108
-108
-108
-108
-107
-108
-108
-109
-108
-108
-108
-107
-108
-108
-108
-109
-107
-108
-108
-108
-108
-108
-108
-108
-108
-108
-108
-108
-108
-108
-108
-108
-108
-108
-108
-107
-107
-107
-106
-107
-107
-107
-107
-107
-106
-107
-107
-108
-107
-107
-107
-107
-106
-108
-107
-108
-106
-107
-107
-107
-108
-107
-107
-106
-106
-106
-106
-106
-107
-105
-105
-105
-106
-106
-106
-105
-105
-105
-105
-105
-105
-106
-105
-105
-104
-105
-105
-105
-105
-105
-104
-104
-105
-105
-105
-104
-104
-103
-103
-103
-105
-104
-103
-103
-103
-102
-103
-103
-103
-103
-102
-102
-102
-102
-103
-102
-102
-102
-102
-102
-103
-103
-103
-103
-102
-103
-103
-103
-103
-103
-103
-103
-104
-103
-104
-104
-104
-103
-104
-104
-104
-104
-104
-104
-104
-104
-104
-105
-105
-104
-104
-103
-104
-105
-106
-105
-105
-104
-104
-104
-105
-106
-105
-105
-104
-105
-105
-105
-105
-105
-105
-104
-105
-105
-105
-105
-104
-104
-105
-105
-105
-106
-105
-104
-105
-104
-105
-105
-105
-105
-105
-105
-105
-105
-105
-106
-106
-105
-105
-106
-107
-106
-107
-107
-106
-107
-107
-108
-108
-108
-108
-107
-108
-108
-109
-109
-108
-108
-108
-108
-109
-110
-109
-108
-109
-108
-110
-109
-109
-108
-108
-109
-108
-108
-109
-109
-108
-108
-109
-109
-109
-109
-109
-109
-108
-108
-109
-109
-109
-109
-109
-108
-109
-110
-110
-109
-109
-110
-110
-110
-110
-111
-110
-110
-110
-110
-111
-112
-112
-110
-110
-110
-111
-111
-111
-111
-111
-110
-111
-111
-111
-112
-112
-112
-111
-112
-112
-113
-112
-112
-112
-111
-112
-112
-112
-111
-111
-110
-110
-110
-110
-111
-110
-109
-109
-109
-109
-110
-110
-109
-109
-109
-110
-111
-112
-112
-111
-111
-112
-112
-112
-113
-114
-113
-113
-114
-114
-114
-114
-114
-114
-113
-114
-114
-114
-114
-113
-113
-113
-113
-114
-114
-114
-113
-113
-113
-113
-113
-114
-112
-112
-113
-113
-113
-113
-113
-113
-113
-113
-113
-113
-114
-114
-113
-113
-113
-113
-113
-113
-114
-113
-113
-114
-114
-114
-114
-114
-114
-114
-113
-115
-114
-115
-113
-114
-113
-114
-114
-114
-113
-114
-113
-114
-114
-114
-114
-113
-113
-114
-114
-115
-115
-115
-115
-114
-115
-115
-116
-116
-116
-115
-115
-115
-115
-116
-116
-115
-115
-114
-114
-115
-115
-115
-115
-114
-114
-114
-115
-114
-114
-114
-114
-114
-115
-115
-114
-114
-114
-114
-114
-115
-115
-115
-115
-114
-114
-114
-114
-114
-114
-113
-113
-113
-115
-115
-114
-113
-113
-113
-113
-115
-114
-114
-114
-114
-114
-115
-115
-115
-115
-115
-114
-114
-115
-115
-115
-115
-115
-115
-115
-115
-116
-115
-115
-115
-115
-116
-116
-116
-115
-115
-115
-115
-116
-115
-115
-115
-115
-115
-114
-115
-115
-115
-114
-113
-114
-114
-115
-114
-113
-114
-113
-114
-114
-114
-114
-114
-114
-114
-114
-115
-115
-116
-115
-115
-115
-116
-116
-116
-116
-115
-115
-115
-116
-116
-116
-116
-115
-115
-115
-116
-116
-116
-115
-115
-116
-116
-116
-116
-116
-116
-116
-116
-116
-117
-117
-117
-116
-117
-117
-117
-117
-117
-117
-116
-116
-116
-115
-115
-115
-115
-114
-114
-114
-115
-114
-114
-114
-114
-115
-115
-115
-115
-115
-115
-115
-116
-116
-116
-115
-115
-115
-115
-115
-115
-115
-115
-115
-114
-114
-115
-116
-114
-114
-114
-115
-115
-115
-115
-115
-114
-114
-115
-115
-116
-115
-115
-115
-114
-114
-115
-116
-115
-115
-114
-115
-115
-115
-115
-114
-114
-114
-114
-115
-115
-115
-113
-113
-113
-113
-113
-113
-113
-113
-111
-111
-111
-111
-111
-110
-110
-109
-109
-109
-109
-109
-108
-107
-107
-107
-107
-107
-106
-105
-105
-105
-106
-106
-105
-105
-104
-103
-104
-104
-104
-104
-103
-103
-103
-104
-104
-105
-105
-105
-105
-106
-106
-107
-107
-108
-108
-108
-108
-110
-110
-111
-110
-110
-111
-112
-113
-113
-114
-114
-114
-116
-116
-118
-118
-118
-118
-119
-119
-120
-121
-121
-121
-121
-121
-122
-123
-122
-123
-122
-122
-123
-123
-123
-123
-123
-122
-122
-123
-123
-124
-123
-123
-123
-122
-123
-123
-123
-124
-122
-122
-122
-123
-123
-123
-123
-123
-122
-122
-123
-123
-123
-123
-123
-123
-123
-123
-123
-123
-123
-123
-122
-122
-123
-123
-122
-122
-122
-123
-123
-123
-123
-123
-122
-121
-122
-122
-123
-123
-122
-122
-122
-122
-123
-122
-122
-122
-121
-121
-121
-122
-122
-122
-121
-121
-121
-122
-121
-121
-119
-119
-117
-118
-116
-115
-113
-111
-108
-106
-105
-102
-101
-98
-94
-92
-89
-86
-83
-79
-76
-72
-69
-67
-64
-62
-59
-56
-55
-54
-54
-55
-54
-56
-58
-62
-66
-73
-79
-86
-95
-103
-114
-125
-136
-149
-161
-173
-186
-200
-214
-228
-241
-253
-264
-276
-287
-298
-308
-316
-323
-329
-335
-340
-345
-347
-349
-349
-349
-348
-345
-342
-337
-332
-325
-317
-310
-302
-293
-282
-272
-261
-251
-240
-229
-219
-208
-198
-188
-178
-171
-163
-155
-148
-141
-135
-131
-126
-123
-119
-117
-114
-112
-110
-109
-108
-107
-105
-105
-104
-103
-104
-103
-102
-102
-101
-102
-101
-101
-100
-100
-99
-99
-99
-97
-97
-97
-96
-95
-95
-95
-95
-94
-94
-92
-92
-93
-93
-93
-93
-92
-92
-92
-92
-93
-93
-92
-92
-92
-92
-92
-92
-93
-92
-92
-92
-92
-92
-93
-93
-92
-92
-91
-91
-93
-92
-92
-91
-90
-90
-90
-90
-90
-89
-89
-89
-89
-89
-89
-88
-88
-88
-88
-88
-88
-88
-87
-87
-86
-86
-87
-87
-87
-86
-86
-86
-86
-87
-86
-87
-85
-86
-85
-86
-86
-86
-86
-84
-84
-84
-84
-85
-84
-83
-83
-82
-82
-82
-81
-82
-80
-80
-80
-80
-80
-80
-79
-79
-79
-79
-79
-78
-79
-77
-77
-77
-76
-77
-77
-76
-76
-75
-75
-75
-76
-76
-74
-74
-74
-72
-73
-73
-73
-72
-71
-70
-71
-71
-71
-70
-70
-69
-69
-68
-69
-69
-67
-66
-66
-66
-65
-66
-66
-64
-63
-63
-63
-62
-63
-62
-60
-60
-60
-59
-59
-58
-58
-57
-57
-56
-55
-56
-54
-54
-53
-52
-51
-51
-51
-51
-49
-48
-48
-47
-47
-46
-46
-45
-43
-43
-42
-41
-41
-40
-39
-38
-38
-37
-37
-36
-34
-33
-33
-32
-32
-31
-30
-29
-28
-27
-27
-27
-26
-25
-24
-23
-23
-22
-21
-21
-19
-18
-18
-17
-17
-16
-15
-14
-12
-12
-11
-11
-10
-9
-7
-6
-7
-7
-6
-5
-4
-3
-2
-2
-2
-2
-1
0
0
1
1
1
1
2
2
3
2
2
2
2
2
2
2
2
1
1
2
2
1
2
1
1
1
1
1
0
0
0
-1
-1
-2
-2
-2
-4
-5
-6
-6
-7
-8
-9
-11
-12
-14
-15
-16
-17
-19
-21
-22
-24
-25
-27
-28
-30
-32
-34
-36
-37
-38
-39
-42
-44
-45
-48
-49
-51
-52
-55
-57
-59
-60
-61
-63
-65
-67
-69
-70
-71
-72
-74
-76
-77
-79
-79
-80
-82
-82
-84
-86
-87
-87
-88
-88
-89
-91
-91
-92
-91
-93
-93
-93
-95
-95
-95
-95
-96
-97
-97
-98
-98
-98
-98
-99
-99
-100
-100
-100
-100
-100
-100
-100
-101
-101
-101
-101
-101
-101
-102
-102
-102
-102
-102
-102
-102
-103
-103
-102
-103
-102
-102
-103
-104
-104
-103
-103
-103
-103
-104
-104
-104
-104
-104
-103
-103
-105
-105
-104
-103
-103
-103
-103
-104
-104
-104
-104
-103
-104
-104
-103
-103
-103
-103
-102
-102
-104
-103
-103
-102
-102
-102
-102
-103
-104
-102
-102
-103
-102
-104
-104
-104
-104
-104
-103
-105
-105
-104
-104
-104
-103
-103
-103
-103
-103
-103
-102
-101
-102
-102
-102
-101
-100
-100
-100
-100
-100
-100
-99
-99
-99
-99
-99
-99
-99
-99
-99
-100
-99
-101
-101
-101
-101
-100
-100
-101
-102
-101
-102
-101
-101
-101
-101
-101
-101
-101
-99
-100
-99
-99
-100
-99
-98
-98
-98
-98
-98
-98
-97
-97
-96
-96
-96
-97
-97
-97
-96
-96
-97
-97
-97
-98
-98
-97
-98
-98
-98
-98
-99
-98
-99
-99
-99
-99
-99
-99
-99
-98
-99
-99
-99
-99
-98
-98
-98
-98
-98
-99
-99
-98
-97
-97
-97
-99
-98
-97
-97
-97
-97
-98
-98
-99
-98
-97
-97
-98
-99
-98
-99
-98
-99
-99
-99
-99
-99
-100
-100
-100
-100
-100
-101
-101
-101
-101
-101
-101
-102
-102
-102
-101
-101
-101
-102
-102
-102
-101
-101
-101
-101
-101
-102
-102
-101
-102
-102
-102
-102
-102
-102
-101
-101
-101
-102
-102
-102
-101
-101
-101
-101
-102
-102
-102
-102
-102
-102
-102
-103
-103
-103
-103
-103
-103
-103
-104
-104
-104
-102
-103
-103
-103
-103
-104
-102
-102
-102
-103
-103
-103
-102
-102
-102
-102
-102
-102
-102
-102
-101
-101
-100
-100
-101
-101
-100
-100
-100
-100
-101
-101
-100
-100
-99
-99
-100
-100
-101
-101
-100
-100
-100
-100
-101
-101
-100
-100
-100
-101
-101
-101
-101
-101
-101
-101
-101
-102
-102
-101
-101
-101
-102
-102
-102
-103
-103
-101
-101
-102
-102
-102
-102
-101
-100
-101
-101
-101
-100
-100
-100
-100
-100
-100
-100
-100
-100
-100
-100
-100
-100
-101
-101
-101
-100
-101
-101
-101
-101
-101
-101
-101
-100
-101
-101
-101
-101
-101
-100
-100
-102
-101
-101
-100
-100
-100
-100
-100
-101
-101
-99
-99
-100
-100
-101
-101
-101
-99
-100
-100
-100
-100
-100
-100
-100
-99
-99
-100
-100
-99
-100
-99
-100
-100
-100
-100
-100
-99
-99
-100
-100
-99
-99
-99
-98
-97
-98
-98
-98
-98
-97
-98
-97
-98
-97
-98
-98
-98
-98
-98
-99
-98
-99
-99
-98
-98
-99
-99
-99
-99
-99
-99
-99
-99
-99
-99
-99
-99
-98
-98
-99
-100
-99
-98
-98
-98
-99
-99
-99
-99
-98
-98
-98
-98
-98
-98
-98
-97
-97
-97
-97
-97
-98
-96
-96
-96
-96
-97
-97
-97
-96
-96
-96
-96
-97
-97
-97
-96
-97
-97
-98
-98
-97
-97
-97
-97
-97
-97
-97
-97
-97
-96
-96
-96
-96
-96
-95
-94
-94
-95
-95
-95
-94
-94
-93
-93
-94
-94
-94
-94
-94
-93
-93
-94
-94
-94
-94
-94
-94
-94
-95
-95
-94
-95
-94
-95
-94
-95
-95
-95
-95
-95
-95
-96
-96
-96
-95
-95
-94
-95
-95
-95
-94
-94
-93
-93
-93
-93
-93
-92
-92
-92
-92
-92
-93
-93
-92
-92
-92
-92
-93
-93
-93
-93
-93
-93
-94
-94
-94
-94
-93
-93
-93
-93
-94
-94
-93
-92
-93
-92
-92
-93
-92
-92
-91
-91
-91
-91
-92
-91
-92
-91
-91
-91
-91
-91
-91
-91
-91
-91
-91
-92
-91
-91
-90
-91
-91
-91
-91
-90
-90
-90
-90
-91
-90
-90
-90
-90
-89
-89
-90
-89
-88
-87
-86
-86
-85
-86
-85
-85
-84
-84
-84
-84
-84
-84
-84
-84
-84
-84
-84
-84
-84
-83
-83
-83
-83
-83
-83
-82
-82
-82
-81
-82
-81
-82
-82
-81
-81
-81
-82
-82
-82
-82
-81
-82
-82
-83
-84
-84
-84
-84
-85
-86
-86
-87
-87
-88
-88
-90
-90
-91
-92
-92
-92
-93
-94
-96
-97
-96
-97
-98
-98
-99
-99
-99
-99
-99
-100
-100
-100
-99
-100
-99
-98
-98
-98
-98
-97
-98
-97
-96
-97
-97
-97
-97
-97
-96
-96
-97
-97
-97
-97
-97
-97
-96
-97
-97
-98
-98
-97
-96
-98
-98
-97
-98
-97
-97
-97
-97
-97
-97
-96
-96
-96
-96
-95
-95
-96
-95
-95
-94
-95
-95
-95
-95
-95
-94
-94
-94
-95
-95
-95
-95
-95
-95
-96
-96
-96
-96
-96
-95
-96
-96
-96
-96
-96
-94
-94
-94
-94
-93
-92
-90
-89
-87
-86
-85
-83
-80
-78
-76
-75
-72
-70
-68
-65
-62
-59
-56
-54
-50
-47
-44
-41
-38
-35
-34
-32
-29
-28
-27
-26
-27
-28
-31
-32
-35
-41
-47
-54
-62
-71
-79
-88
-99
-110
-121
-134
-146
-158
-171
-183
-195
-208
-219
-231
-241
-251
-260
-269
-277
-285
-290
-295
-299
-304
-306
-309
-308
-308
-306
-303
-300
-295
-290
-283
-275
-267
-258
-250
-240
-230
-220
-209
-199
-189
-179
-169
-159
-151
-142
-135
-128
-121
-115
-110
-103
-99
-96
-92
-90
-86
-85
-81
-80
-79
-78
-77
-75
-74
-74
-73
-73
-72
-72
-71
-70
-71
-70
-70
-71
-70
-69
-69
-70
-69
-69
-69
-69
-69
-68
-68
-69
-69
-68
-68
-68
-67
-68
-68
-68
-67
-67
-66
-66
-65
-65
-66
-65
-65
-64
-64
-64
-64
-64
-64
-63
-63
-63
-63
-63
-63
-62
-61
-61
-62
-62
-62
-61
-61
-61
-61
-62
-61
-61
-61
-60
-60
-60
-60
-60
-60
-59
-59
-59
-59
-59
-59
-59
-59
-58
-58
-58
-59
-59
-58
-57
-57
-57
-57
-57
-58
-57
-57
-57
-56
-57
-57
-57
-56
-56
-55
-56
-56
-55
-55
-55
-54
-54
-54
-55
-54
-53
-53
-52
-52
-52
-52
-52
-50
-50
-50
-50
-50
-50
-50
-49
-49
-49
-50
-49
-49
-49
-48
-48
-49
-49
-50
-49
-48
-47
-48
-48
-48
-47
-47
-47
-46
-47
-47
-46
-45
-45
-44
-44
-43
-44
-43
-43
-43
-42
-42
-41
-42
-41
-40
-40
-40
-40
-40
-39
-39
-39
-38
-38
-37
-37
-37
-37
-35
-34
-34
-33
-34
-33
-32
-32
-31
-31
-30
-30
-29
-28
-26
-26
-25
-26
-25
-25
-24
-23
-23
-23
-22
-22
-22
-20
-19
-19
-19
-18
-18
-17
-16
-15
-14
-14
-14
-13
-12
-12
-11
-11
-10
-9
-8
-7
-6
-5
-5
-4
-3
-1
0
1
1
2
2
3
5
7
7
7
8
8
9
9
10
10
11
10
11
11
13
12
13
13
12
13
14
14
14
14
14
15
15
16
15
15
15
15
15
16
16
17
15
16
15
15
15
15
14
14
13
13
13
12
12
12
10
10
9
9
8
7
6
4
4
2
2
1
-1
-2
-4
-5
-6
-8
-9
-11
-13
-15
-16
-18
-18
-21
-22
-24
-26
-27
-29
-30
-32
-34
-37
-38
-40
-42
-43
-44
-47
-48
-49
-52
-52
-53
-54
-57
-58
-59
-60
-61
-62
-64
-65
-66
-67
-68
-69
-69
-71
-72
-73
-73
-73
-74
-75
-76
-77
-77
-78
-78
-79
-80
-81
-81
-81
-81
-82
-82
-84
-84
-84
-84
-84
-84
-85
-86
-86
-86
-86
-87
-87
-87
-87
-87
-88
-86
-87
-88
-88
-88
-88
-88
-88
-87
-88
-88
-89
-88
-88
-88
-88
-89
-89
-89
-90
-90
-89
-90
-89
-90
-90
-89
-89
-90
-90
-90
-90
-91
-91
-90
-91
-91
-91
-91
-91
-91
-91
-91
-91
-92
-92
-92
-91
-91
-91
-92
-92
-93
-91
-91
-91
-91
-91
-91
-92
-90
-91
-90
-90
-90
-91
-90
-90
-89
-89
-89
-90
-90
-89
-89
-89
-89
-90
-90
-90
-90
-89
-90
-92
-91
-92
-92
-92
-93
-94
-94
-95
-95
-95
-95
-96
-96
-97
-98
-99
-98
-99
-99
-99
-100
-100
-100
-100
-100
-101
-101
-101
-102
-102
-102
-102
-103
-105
-104
-104
-104
-104
-104
-105
-105
-105
-105
-104
-104
-103
-103
-102
-101
-99
-98
-96
-96
-96
-95
-95
-94
-92
-92
-91
-90
-90
-89
-88
-88
-87
-88
-87
-87
-87
-86
-86
-87
-87
-86
-87
-86
-86
-86
-87
-87
-87
-87
-87
-86
-87
-87
-88
-88
-87
-88
-88
-88
-89
-89
-89
-88
-89
-89
-90
-91
-91
-91
-90
-90
-91
-91
-92
-92
-92
-92
-93
-93
-94
-94
-95
-95
-95
-94
-96
-96
-97
-96
-95
-95
-96
-97
-97
-98
-96
-96
-96
-97
-98
-97
-98
-97
-97
-97
-97
-97
-97
-97
-96
-95
-95
-96
-96
-95
-95
-94
-94
-95
-95
-95
-94
-94
-94
-93
-93
-94
-94
-93
-93
-93
-92
-94
-93
-93
-94
-92
-93
-93
-94
-94
-94
-94
-93
-93
-94
-94
-94
-94
-94
-93
-93
-94
-94
-94
-93
-92
-93
-93
-93
-92
-93
-92
-92
-92
-92
-92
-92
-92
-92
-91
-91
-92
-92
-92
-92
-91
-91
-92
-92
-92
-92
-92
-92
-92
-92
-92
-92
-92
-92
-91
-91
-92
-92
-92
-90
-90
-90
-90
-90
-91
-90
-90
-89
-89
-89
-90
-90
-90
-90
-89
-90
-90
-91
-90
-90
-90
-90
-91
-91
-92
-91
-91
-91
-91
-92
-92
-92
-91
-91
-90
-91
-91
-92
-91
-91
-91
-91
-91
-91
-91
-90
-91
-90
-90
-91
-90
-90
-90
-89
-89
-89
-90
-90
-90
-90
-90
-90
-90
-91
-91
-91
-91
-91
-91
-91
-91
-91
-90
-90
-90
-89
-90
-90
-89
-89
-89
-88
-89
-89
-88
-89
-87
-87
-88
-89
-89
-89
-89
-88
-88
-88
-89
-89
-89
-89
-88
-88
-88
-89
-89
-89
-88
-87
-87
-89
-88
-88
-87
-87
-87
-88
-88
-88
-88
-87
-87
-87
-87
-88
-88
-88
-88
-87
-87
-87
-88
-88
-88
-87
-86
-87
-87
-87
-88
-87
-87
-87
-87
-87
-88
-87
-87
-87
-87
-88
-88
-88
-88
-88
-87
-87
-88
-88
-87
-87
-87
-86
-86
-86
-87
-86
-86
-85
-85
-85
-86
-84
-84
-84
-84
-84
-84
-85
-85
-84
-84
-84
-84
-84
-85
-85
-85
-85
-85
-85
-85
-85
-85
-85
-85
-85
-85
-85
-85
-85
-84
-84
-84
-85
-85
-84
-84
-83
-83
-84
-84
-83
-83
-82
-82
-82
-82
