# Simple Text Format
# Sampling Rate (Hz):= 1200.00
# Resolution:= 12
# Labels:= ECG	III
# Age:=	40
# Gender:=	Feminino
440
439
438
439
441
442
442
442
441
441
442
443
444
443
441
441
441
442
443
443
442
441
440
441
442
443
443
441
440
440
441
442
442
441
439
438
438
439
441
441
440
439
438
439
440
442
442
441
440
440
442
443
444
444
442
442
442
443
445
445
444
442
442
442
443
444
444
443
442
442
443
444
444
443
442
441
441
443
444
444
443
442
442
443
444
445
445
444
443
443
445
446
446
446
444
444
444
445
446
446
445
444
443
444
445
446
446
445
443
443
444
446
446
445
443
442
442
443
444
444
443
442
441
442
443
444
443
442
441
441
442
444
445
444
443
442
442
443
445
445
444
443
442
443
445
446
446
445
444
443
445
446
446
445
443
442
442
443
444
444
442
441
440
440
441
442
441
440
439
439
440
441
442
441
440
439
439
441
442
442
441
440
440
441
443
444
444
443
442
442
443
444
444
443
442
441
441
442
443
443
441
440
440
440
441
442
442
440
439
439
440
441
441
440
439
438
438
439
440
439
438
437
436
437
438
439
439
438
437
438
439
440
441
440
439
438
439
440
442
442
441
439
439
439
440
441
440
438
437
437
438
439
439
437
436
435
434
435
437
437
436
435
435
436
438
439
439
439
438
438
440
442
442
442
441
440
441
442
443
443
442
441
440
440
441
441
441
439
437
437
438
439
438
437
435
434
434
435
436
436
435
434
433
434
435
436
436
435
434
434
436
437
437
436
435
434
435
436
437
437
436
435
435
436
437
438
438
437
436
437
438
439
439
438
437
436
436
437
438
438
437
435
434
434
435
436
435
434
432
432
434
435
435
434
432
431
431
432
433
433
432
431
430
431
432
433
433
432
431
432
433
435
436
435
434
433
434
435
437
437
436
435
435
436
437
437
437
436
434
434
435
436
436
435
433
432
432
433
434
433
432
430
430
430
431
432
432
431
429
429
430
431
431
430
429
428
428
429
430
430
429
428
428
429
431
434
436
438
440
442
446
449
451
453
457
462
469
478
487
495
503
509
515
520
526
531
535
539
542
546
550
553
555
554
552
549
545
540
535
529
521
513
507
501
496
491
484
477
470
464
460
456
452
447
442
438
436
435
434
432
429
426
424
424
424
424
422
419
416
413
410
408
404
399
394
389
385
382
379
374
368
362
356
352
349
346
343
340
338
338
339
341
342
342
343
344
347
352
357
362
366
370
375
381
388
395
400
405
409
414
420
426
430
431
432
432
433
435
436
435
432
429
426
424
423
420
417
413
408
405
403
401
399
395
392
390
388
389
389
389
387
386
386
387
389
391
391
391
391
392
394
396
397
396
396
396
397
399
401
402
402
401
401
402
403
404
403
402
401
401
402
404
404
404
403
402
403
405
407
407
407
406
406
408
409
411
411
410
410
410
411
412
412
410
408
407
406
406
406
405
403
401
400
400
401
401
400
399
397
397
398
399
399
398
397
397
397
399
401
401
401
400
400
402
404
406
407
407
407
408
411
413
414
414
414
414
415
417
419
420
419
418
418
419
421
422
423
422
421
422
423
425
425
425
424
424
424
426
428
428
427
426
426
428
429
430
431
430
429
430
431
433
434
433
432
432
433
434
436
436
435
434
434
434
436
436
435
433
431
431
431
430
429
426
423
420
419
418
418
417
414
413
412
412
412
412
411
410
408
408
409
410
411
410
409
408
409
410
412
412
411
410
410
411
412
413
413
413
414
415
418
421
423
424
425
426
427
430
433
434
435
435
436
438
440
442
443
442
441
441
442
443
442
441
439
437
437
438
438
437
435
432
431
431
431
431
431
429
428
429
432
436
438
438
438
438
440
444
449
453
457
462
468
475
483
491
497
501
504
507
512
516
520
522
523
523
523
522
520
516
510
503
497
491
486
481
474
468
461
456
452
449
445
440
436
433
432
433
433
433
432
432
432
433
435
436
436
434
433
433
434
435
434
433
430
428
427
426
425
424
421
419
418
418
418
419
418
417
416
416
418
420
422
423
424
425
428
430
433
434
434
435
436
438
440
441
440
438
436
434
434
434
433
431
428
425
423
422
422
420
417
414
412
412
413
414
414
414
414
415
417
419
419
419
417
416
416
418
419
419
419
419
420
422
424
427
429
429
429
430
431
433
434
434
434
434
436
439
442
443
442
441
440
439
439
439
438
436
435
435
436
436
435
433
431
429
429
429
429
428
426
423
421
420
420
419
416
413
410
409
408
408
406
404
402
400
399
399
400
400
398
397
398
399
401
402
402
402
402
403
405
407
408
407
407
407
407
409
410
410
409
408
408
409
410
410
410
408
407
407
408
408
408
406
404
402
402
403
403
402
399
397
396
396
396
397
396
394
392
392
392
393
392
391
389
388
388
389
390
389
387
385
384
384
385
385
384
382
381
380
381
381
381
379
377
376
376
377
378
379
378
377
378
380
382
384
385
385
385
387
389
392
393
394
394
394
396
398
400
401
401
401
401
403
405
406
406
406
405
406
408
410
410
410
409
409
409
411
413
413
413
412
413
414
416
417
418
417
417
418
420
422
423
422
422
422
422
424
426
426
426
425
425
426
428
429
428
427
426
426
427
428
428
427
425
424
424
424
424
423
421
418
417
417
417
416
415
412
410
409
410
410
409
407
405
404
404
405
406
405
403
401
400
400
401
401
400
398
397
396
396
396
395
393
390
388
387
388
388
388
386
384
384
385
387
388
388
388
388
389
391
393
395
395
394
395
396
399
401
402
401
401
401
402
404
405
405
405
404
404
406
407
408
407
405
405
405
406
407
406
405
403
403
403
404
405
404
403
402
402
403
404
404
403
401
400
401
402
403
403
402
401
402
403
404
405
405
405
404
405
406
408
408
408
406
406
406
408
409
409
408
406
406
406
407
407
406
405
403
403
404
405
404
403
401
400
400
401
402
401
400
398
398
399
400
401
401
400
399
400
401
402
403
402
401
400
401
403
404
404
404
403
403
405
406
407
407
406
405
406
407
409
409
408
407
406
406
408
408
408
407
405
405
406
407
407
407
406
404
404
405
406
406
405
403
402
402
403
404
403
401
399
398
398
399
399
398
397
395
396
397
398
398
396
395
394
394
395
396
396
395
394
394
395
396
397
397
396
395
395
396
397
397
396
395
395
395
397
398
398
397
396
396
397
399
400
399
398
398
398
400
401
401
400
399
398
398
399
400
400
399
398
398
399
400
401
401
400
399
400
401
403
403
403
402
401
402
404
405
405
404
403
403
404
405
405
405
403
402
402
403
403
403
401
400
399
399
400
400
400
399
398
397
398
399
400
400
399
398
399
400
402
402
402
401
400
401
403
404
404
403
402
402
403
405
406
405
404
404
404
405
406
407
405
404
403
404
405
407
407
406
405
405
407
408
409
410
409
409
410
412
413
414
413
413
412
413
414
415
415
414
413
413
413
414
414
413
411
410
410
411
411
411
409
407
406
406
408
408
408
407
406
406
407
409
410
410
410
410
411
413
414
415
414
413
413
414
415
416
416
415
413
413
414
415
415
414
413
412
412
413
414
413
412
411
410
410
411
412
411
410
408
408
409
410
411
410
409
408
408
409
411
411
410
409
408
409
410
412
411
411
410
410
411
412
413
412
411
410
410
411
412
412
411
409
409
409
410
411
411
410
409
408
409
410
411
410
409
407
408
408
409
409
408
406
405
405
405
406
405
404
403
402
403
404
405
405
404
404
404
406
408
409
408
407
407
408
410
411
411
410
409
409
410
412
412
412
410
409
409
410
411
410
409
407
406
406
406
407
406
405
403
403
403
404
404
403
402
401
401
402
404
404
403
402
402
403
405
406
406
405
405
405
406
407
408
408
407
406
406
408
408
408
407
405
403
403
404
404
403
401
399
399
399
400
401
400
399
398
398
399
401
401
400
399
398
399
400
402
402
400
399
399
400
401
402
402
401
400
400
402
403
403
402
401
400
401
402
403
403
402
402
402
402
404
404
404
402
401
402
403
403
403
402
400
399
400
401
402
402
400
399
399
400
401
402
402
400
400
400
401
402
402
401
400
399
399
400
401
400
398
397
396
397
397
397
397
395
394
394
395
396
396
395
394
393
394
395
396
396
395
394
394
395
396
397
397
396
396
396
398
399
400
399
397
397
397
399
400
400
398
397
397
398
399
399
399
397
396
397
398
399
399
398
397
396
397
398
399
399
398
398
398
399
400
400
400
398
397
398
399
399
399
398
396
395
395
395
396
395
393
391
391
391
392
392
391
389
387
387
388
388
388
386
384
383
382
383
384
383
382
381
380
381
382
383
383
382
381
382
384
385
386
385
384
383
384
386
387
386
385
384
384
385
386
387
386
385
384
384
385
386
386
385
383
382
382
383
384
383
381
380
380
381
382
383
382
381
381
381
383
384
385
384
383
383
384
385
386
386
385
384
384
385
386
386
385
383
382
382
382
383
382
380
379
377
378
378
379
379
377
376
376
377
379
379
379
378
378
378
380
381
382
381
380
379
380
382
383
384
383
383
383
385
387
388
389
388
388
390
392
394
395
395
394
394
395
396
397
397
396
394
394
394
394
394
392
390
388
388
388
389
389
387
386
385
385
386
386
385
384
382
381
381
382
381
379
377
375
373
373
372
370
367
364
361
359
359
358
356
354
352
351
352
354
355
356
356
356
358
361
363
365
365
366
367
369
371
373
374
374
374
374
375
376
377
376
375
374
374
375
375
375
373
371
370
370
371
372
371
369
368
368
369
370
370
370
368
367
367
369
369
369
368
367
366
366
367
368
367
365
364
364
364
365
366
365
364
363
364
365
366
366
365
363
363
363
365
366
365
364
363
364
365
366
366
366
365
364
365
366
368
368
367
366
365
366
368
369
369
368
367
367
368
369
370
369
368
367
368
368
369
369
367
365
364
364
365
366
365
363
362
361
362
363
363
362
360
359
360
361
362
362
361
360
360
361
362
363
363
362
361
361
362
364
365
364
363
363
363
365
366
366
364
363
362
362
363
364
363
361
360
359
360
361
361
360
359
358
358
359
359
359
357
356
355
355
356
357
356
355
354
353
354
355
356
356
355
354
355
357
358
358
357
356
356
357
358
359
359
358
357
358
359
360
361
360
359
358
358
359
360
360
359
357
356
357
358
358
358
356
355
355
356
356
357
356
354
353
354
355
356
355
354
353
352
352
353
354
353
352
350
350
351
352
353
352
351
350
351
352
353
353
352
351
350
350
352
353
352
351
350
350
351
352
352
351
350
349
349
350
351
351
350
349
348
348
349
350
350
348
347
346
347
348
348
347
345
344
344
345
346
345
344
342
342
342
343
344
344
343
342
343
344
346
347
347
346
346
347
349
350
351
350
348
348
348
350
350
350
349
347
347
348
349
349
348
347
346
347
348
349
350
349
348
348
349
350
352
352
351
351
351
352
354
355
355
355
354
355
356
358
358
357
356
356
357
358
360
360
359
358
359
360
362
364
364
363
363
365
367
368
369
368
368
367
368
370
371
371
370
369
369
370
371
372
371
370
369
370
371
372
372
371
369
369
369
370
371
370
369
368
367
368
368
368
367
366
365
365
366
367
367
365
364
364
364
366
367
367
366
366
366
368
369
370
370
369
369
369
371
372
372
370
369
368
369
370
370
370
368
367
367
368
369
369
369
367
367
367
369
370
370
369
368
367
368
369
370
370
368
367
367
368
369
370
369
367
366
367
367
368
368
366
365
364
365
366
367
366
365
364
365
366
367
368
368
367
367
368
369
371
371
370
369
369
369
371
372
371
370
369
369
370
371
371
371
369
369
369
370
371
371
369
368
367
368
369
370
370
369
368
368
369
370
370
370
369
368
369
370
371
371
370
369
369
369
371
372
371
370
369
370
371
372
373
372
371
371
371
373
374
374
373
372
372
373
374
375
375
374
373
373
374
376
376
376
375
374
375
376
378
378
377
375
375
376
377
378
378
376
376
375
376
378
378
378
377
376
377
379
380
380
379
378
377
378
379
380
380
379
378
378
379
380
381
380
379
378
378
379
380
380
380
378
378
379
380
381
381
379
378
378
379
380
380
380
378
378
378
379
380
379
378
376
376
376
377
378
378
377
376
376
377
378
379
379
378
377
378
380
380
380
379
378
377
378
379
379
379
377
376
376
377
378
378
377
376
376
377
378
380
380
379
378
378
379
381
382
382
381
380
381
382
383
384
383
382
381
381
382
383
383
381
380
379
380
381
382
382
381
380
380
381
382
383
383
382
381
382
384
385
386
385
384
384
384
386
386
385
384
383
382
383
384
384
383
381
380
380
381
381
381
379
378
377
377
378
379
378
377
376
376
378
379
380
380
379
378
379
381
382
383
382
381
381
382
384
385
384
383
382
382
383
384
384
383
381
379
378
378
379
378
376
373
371
370
370
369
367
364
362
361
360
361
361
359
358
357
358
359
361
362
362
363
363
365
367
368
368
367
367
367
368
369
369
368
366
364
363
362
361
360
357
354
351
350
350
350
348
346
344
344
345
346
346
346
345
344
345
347
348
348
348
347
347
348
350
351
352
351
350
351
352
354
355
354
353
352
353
354
355
355
354
353
353
353
355
356
356
355
355
356
357
359
360
360
360
360
361
363
364
365
364
363
363
364
365
366
366
364
363
363
364
365
365
365
364
363
363
365
366
366
365
363
363
363
364
365
364
363
362
361
362
363
363
362
361
360
360
362
363
363
362
361
360
361
363
365
366
365
365
366
368
370
372
372
372
372
373
375
377
377
376
375
374
375
376
377
377
375
374
374
375
376
376
376
375
374
375
377
378
378
378
377
377
378
380
382
382
381
381
381
382
384
384
384
383
382
382
383
384
383
382
380
379
379
380
381
380
378
377
377
378
379
379
379
378
377
377
379
379
379
378
376
376
376
378
378
377
376
374
374
375
375
375
374
373
372
372
373
374
374
373
372
372
372
374
374
374
372
371
371
372
373
374
373
372
371
372
373
374
373
372
371
370
371
372
373
373
372
372
372
374
375
376
376
376
376
377
379
380
381
380
379
379
380
381
382
382
381
380
380
381
382
382
381
380
379
379
380
380
379
378
377
376
376
377
378
377
376
375
375
376
377
378
377
376
376
376
378
379
379
378
377
377
377
379
379
379
378
377
377
379
380
381
381
380
380
381
383
384
384
383
382
382
382
384
384
384
383
382
382
383
384
384
383
382
381
381
382
383
382
381
380
379
379
380
380
379
378
377
376
377
378
378
377
375
373
373
373
374
373
371
369
368
368
369
369
368
366
364
363
364
365
365
364
363
362
363
365
366
366
366
365
365
366
368
369
369
368
368
368
369
371
371
371
370
369
369
370
371
370
369
367
366
367
368
368
368
366
365
365
366
367
368
367
366
366
367
368
370
370
369
368
368
369
370
371
371
370
369
369
371
372
372
372
371
370
370
372
373
372
371
370
369
370
371
371
370
369
367
367
367
368
367
366
363
362
361
362
362
361
360
358
357
358
359
359
359
358
358
358
360
362
363
364
363
364
365
367
369
370
369
369
369
370
372
373
374
373
372
373
374
376
376
376
374
373
374
374
375
374
373
371
370
370
371
371
370
368
366
365
365
365
364
362
360
358
357
357
357
355
352
349
347
346
346
345
342
339
337
335
335
335
335
335
334
334
336
338
340
342
342
343
345
347
351
354
356
357
358
360
362
365
367
367
367
367
368
369
370
369
368
366
365
365
365
365
364
362
360
360
360
361
361
360
358
357
357
357
358
357
356
354
353
353
354
355
354
353
352
352
352
354
354
354
353
352
353
355
356
356
356
355
354
355
357
358
357
356
355
355
356
357
357
356
355
354
354
355
355
355
354
352
351
352
353
354
353
352
351
352
353
354
354
354
352
352
352
353
354
354
353
352
351
352
353
353
353
351
350
350
351
352
353
352
351
350
351
352
353
352
351
349
348
348
349
349
348
347
345
345
346
346
346
345
344
343
343
344
345
345
344
343
342
343
345
345
345
344
343
343
343
344
345
344
342
341
342
342
343
341
339
337
336
336
336
336
335
332
331
330
330
331
331
329
327
326
326
327
328
328
327
326
325
326
328
329
329
328
327
328
330
331
332
332
331
331
332
333
334
334
333
332
331
331
332
332
330
328
327
326
326
326
326
325
323
322
322
323
323
322
321
320
319
320
321
322
321
320
319
318
319
320
320
319
318
317
317
318
319
318
317
315
314
314
315
315
314
313
312
311
312
313
313
312
311
310
310
311
311
311
309
308
307
307
309
309
309
307
306
306
307
308
309
308
307
306
307
308
309
309
308
306
305
306
307
307
307
305
304
303
304
304
304
303
302
301
301
302
303
303
301
300
299
300
301
301
301
300
299
299
300
301
302
301
300
300
300
301
302
302
300
299
298
299
300
301
300
299
299
299
300
302
302
302
301
301
303
305
306
307
306
306
306
307
309
311
310
310
309
310
311
313
313
313
312
312
313
314
315
315
315
314
314
314
316
317
317
316
316
316
318
319
320
319
318
318
319
320
321
321
320
319
319
319
321
321
321
319
318
318
318
319
319
318
316
315
315
317
317
317
315
314
313
314
315
316
316
315
314
314
316
317
318
318
317
317
318
320
321
321
319
318
317
317
318
319
318
316
314
314
314
315
315
314
312
311
311
312
313
313
311
310
309
309
311
311
310
309
308
308
309
310
311
310
309
308
309
310
311
311
309
308
308
308
309
310
310
308
308
308
309
310
311
310
309
308
309
310
312
312
311
310
310
311
312
313
312
311
310
310
310
311
311
311
309
308
308
309
310
309
308
307
306
307
308
309
309
307
307
307
308
309
310
309
308
307
308
309
309
309
307
306
305
305
305
306
305
304
303
303
304
305
306
306
305
304
305
307
308
309
308
307
307
308
310
311
311
309
308
309
309
310
311
310
309
308
308
309
310
310
308
307
306
306
307
308
307
305
304
304
305
306
306
305
304
303
303
305
306
305
304
303
303
303
305
306
305
304
303
303
304
305
305
304
303
303
303
305
305
305
304
303
302
303
304
305
305
303
302
302
303
304
305
304
303
302
303
304
305
305
303
302
301
302
303
303
302
300
299
299
299
300
300
299
297
296
296
297
298
298
296
295
294
295
296
297
297
296
295
295
296
298
298
298
297
297
298
299
300
300
298
297
296
297
297
298
297
295
294
294
294
295
294
293
292
291
291
292
293
292
291
289
289
290
291
292
292
291
291
291
293
294
295
294
293
293
294
295
296
296
294
293
292
292
293
293
292
290
288
288
288
289
289
288
286
284
284
285
285
284
282
280
279
280
281
281
280
279
278
278
279
280
280
280
279
278
279
281
282
283
282
281
280
281
283
283
282
281
280
280
280
281
281
279
277
276
276
276
276
275
274
272
271
271
272
272
270
269
267
267
268
269
269
268
266
265
266
267
268
267
266
265
264
265
266
267
266
265
264
264
265
266
267
266
265
264
264
266
266
266
264
263
262
262
263
264
263
262
260
260
261
262
262
261
260
259
260
262
262
262
261
259
259
259
261
261
260
259
258
258
258
259
259
258
256
255
255
256
256
256
254
252
251
251
252
252
251
249
248
248
248
249
249
248
247
246
246
247
248
248
246
245
244
245
246
247
246
244
243
243
244
245
245
245
243
243
243
244
245
244
243
242
241
242
243
244
243
242
241
241
242
243
243
242
240
239
239
239
239
238
236
234
233
233
234
234
232
230
229
229
229
230
230
230
229
228
230
232
233
234
233
233
233
234
236
237
237
236
235
235
236
237
237
236
235
234
234
235
235
235
233
231
230
230
231
231
230
229
227
227
228
228
228
227
226
225
225
226
226
225
224
222
221
222
223
223
223
221
221
221
222
223
223
223
221
221
222
223
224
224
222
221
221
221
222
223
222
220
219
219
219
220
219
218
216
215
216
217
217
216
215
213
213
214
215
216
215
214
213
213
214
216
216
216
215
215
215
217
218
218
217
216
216
216
218
218
218
216
215
215
216
217
218
217
216
215
216
218
218
218
217
215
215
215
216
217
216
215
214
213
214
215
215
214
212
211
211
212
213
212
210
208
207
208
209
209
208
207
206
206
207
208
209
208
207
206
207
209
210
210
209
209
208
209
210
211
211
209
209
209
210
211
211
210
209
208
209
210
211
211
210
208
208
209
210
210
210
208
207
207
209
210
210
210
209
208
209
210
211
210
209
208
207
208
209
210
209
207
206
206
207
208
208
207
205
204
205
205
206
205
203
201
200
200
201
201
200
198
196
196
196
197
197
196
194
193
194
195
196
196
195
194
194
194
196
197
197
196
196
196
198
199
200
200
199
199
200
201
202
202
201
200
200
201
202
203
202
201
200
200
201
202
202
201
200
199
200
201
202
202
201
200
200
200
202
202
202
200
200
200
201
202
203
202
201
200
201
202
202
202
201
199
199
199
200
201
200
199
198
198
199
200
201
200
199
199
200
201
202
202
201
201
201
202
203
204
204
203
203
203
205
207
208
208
207
207
209
210
212
212
212
211
211
212
213
214
214
213
212
212
213
213
213
212
210
209
209
210
209
208
206
203
202
202
203
203
202
200
198
198
198
198
197
196
194
193
193
193
193
192
190
187
186
185
185
184
183
180
178
177
177
177
177
176
175
175
177
179
182
183
184
185
187
190
193
197
199
200
201
204
207
209
211
212
211
211
213
214
215
215
213
212
211
211
211
212
210
208
207
206
207
207
207
206
204
204
204
205
206
206
205
204
203
204
205
206
205
204
203
204
205
206
206
205
203
202
203
204
204
204
202
201
200
201
202
203
202
201
200
201
202
203
204
204
203
203
205
206
208
208
207
206
206
207
208
209
208
207
206
207
208
209
209
209
207
207
208
209
210
210
209
207
207
208
209
210
210
209
208
209
210
212
212
212
211
210
211
213
214
213
212
211
210
211
212
213
212
211
210
210
211
212
212
211
210
210
211
212
213
213
212
211
211
212
213
214
213
212
211
212
213
214
214
213
212
211
212
213
214
214
212
211
211
212
213
214
213
212
211
212
213
214
214
213
212
211
212
213
214
213
212
210
210
210
211
212
211
210
209
209
210
212
212
211
210
210
211
212
213
213
212
211
210
211
212
213
212
211
210
211
212
213
214
213
212
212
213
214
215
215
214
213
212
213
215
215
215
213
212
212
213
214
214
213
211
210
211
211
212
212
210
209
208
209
210
211
210
209
208
208
209
210
210
210
208
208
208
210
210
210
209
207
207
207
208
209
208
206
205
205
206
207
207
206
205
204
205
206
207
207
206
205
204
205
207
208
208
207
207
207
209
210
211
211
210
210
211
212
214
214
213
212
211
212
213
214
213
212
211
211
212
213
213
212
211
210
211
212
213
213
212
211
211
212
214
215
215
215
214
215
217
218
220
220
219
219
221
223
224
224
224
223
223
224
226
228
228
227
227
228
229
231
232
232
232
232
234
236
237
238
237
237
237
238
240
241
241
241
240
241
242
244
245
245
244
244
245
246
248
248
247
246
246
247
249
249
249
248
247
247
248
249
249
248
247
246
247
248
248
248
247
246
246
247
248
249
249
248
248
248
250
251
252
252
251
251
252
253
254
254
253
251
251
251
252
253
252
251
250
250
250
251
252
251
250
249
250
251
252
252
251
250
249
250
251
252
251
250
249
249
250
251
252
251
250
250
251
252
253
253
253
252
252
253
255
256
256
255
255
255
256
258
258
258
257
256
256
258
258
258
257
255
255
255
257
257
257
256
255
255
256
258
258
258
257
257
257
259
260
260
258
257
257
257
258
259
258
257
256
256
257
258
259
258
257
257
258
260
261
261
260
260
260
261
263
264
264
263
262
262
263
264
264
263
262
261
261
262
263
263
261
260
260
261
262
263
263
262
261
262
264
266
267
267
266
266
267
268
269
269
268
267
266
267
268
268
268
266
265
265
266
267
268
267
266
265
266
268
269
269
269
268
269
270
272
273
273
272
272
272
274
275
276
276
274
274
274
276
276
276
275
273
272
273
273
274
272
271
269
269
270
271
272
271
270
269
270
271
272
272
271
270
270
271
273
274
273
272
272
272
274
275
276
276
275
275
276
277
279
279
278
277
277
278
280
281
281
280
279
279
280
282
282
281
280
280
280
282
282
282
280
279
278
278
279
280
279
277
276
276
277
278
278
277
276
276
276
278
279
279
279
278
278
279
281
282
282
281
281
282
283
285
286
286
285
285
286
288
289
289
288
286
286
286
288
288
287
286
284
284
284
285
285
284
283
282
282
283
283
283
282
281
280
281
283
284
283
283
282
283
284
286
287
287
286
286
287
288
289
290
289
288
287
288
290
291
290
289
288
288
289
290
290
290
288
287
288
289
290
290
288
287
286
287
288
288
287
286
285
286
287
288
289
289
288
288
289
290
292
292
291
290
290
291
293
294
294
293
292
293
294
295
296
295
294
293
294
295
296
296
295
294
293
294
295
296
296
295
294
294
295
296
297
296
295
295
295
297
298
297
296
295
295
295
297
298
298
296
296
296
297
298
299
299
298
297
298
299
300
300
298
297
297
297
298
299
298
297
296
296
297
298
298
298
297
296
297
298
299
299
299
298
297
298
300
300
300
299
298
298
299
300
301
300
299
298
299
300
301
301
300
299
299
299
301
302
302
301
300
300
302
303
304
304
303
303
304
305
306
306
305
304
303
304
305
305
304
303
302
302
303
304
304
303
302
301
302
303
304
305
304
303
303
304
305
307
307
306
305
306
307
309
310
310
309
308
309
311
312
311
310
309
308
309
310
310
310
308
307
307
307
308
308
308
306
306
306
308
308
308
307
306
306
306
308
309
309
308
307
307
308
309
310
309
308
308
309
310
311
311
309
308
307
308
309
310
309
308
307
307
308
309
310
309
308
307
307
309
309
309
308
307
306
307
308
309
309
307
307
307
308
309
310
310
309
309
310
312
313
313
312
311
311
312
313
315
314
313
313
313
314
315
316
315
314
313
314
315
316
315
314
313
313
313
315
315
315
313
313
313
314
315
315
315
313
313
313
315
315
315
314
312
311
312
313
314
313
312
311
311
312
313
313
313
311
311
311
313
314
314
313
312
312
312
314
314
314
313
312
313
314
316
317
317
316
316
317
319
320
321
320
319
319
320
322
323
323
322
321
321
322
322
323
322
320
320
320
321
322
322
320
319
318
318
319
320
319
318
317
317
318
319
319
319
317
316
316
317
318
317
316
314
313
313
314
314
313
311
310
309
310
310
310
309
308
307
307
308
309
309
308
306
306
307
308
309
309
308
308
308
310
312
313
312
312
311
313
314
316
316
315
314
313
314
315
316
316
314
313
313
315
316
316
316
315
315
316
317
319
319
319
318
317
318
319
321
321
320
319
319
320
320
321
320
319
318
318
319
320
320
318
317
316
317
318
319
319
318
317
317
318
319
320
319
318
318
319
320
321
322
321
320
319
320
321
322
322
321
320
320
321
323
324
323
322
322
323
326
327
328
328
327
328
329
331
333
333
332
332
332
333
334
335
334
332
330
330
329
329
327
324
321
318
317
317
317
316
314
312
311
311
312
311
310
309
308
309
310
311
311
309
308
307
307
308
308
307
305
304
303
304
305
305
305
304
304
306
308
311
312
313
314
315
318
321
324
325
326
327
329
331
333
334
334
333
333
333
334
335
334
332
330
328
328
328
328
326
324
322
322
322
323
323
323
322
321
322
323
325
325
324
323
323
324
325
326
326
325
324
324
325
326
326
325
323
322
322
323
323
323
321
319
318
318
319
320
319
317
316
316
316
318
318
318
317
316
317
319
320
320
320
319
319
321
323
324
324
323
323
323
324
326
326
326
324
324
324
325
326
325
324
323
322
322
323
324
324
322
322
322
323
324
325
324
323
322
323
325
326
326
325
324
323
324
325
326
325
324
322
322
323
324
325
324
323
322
323
325
326
326
325
323
323
324
325
327
326
325
324
324
325
326
326
325
324
323
323
324
324
324
323
321
320
321
321
322
321
320
318
318
319
320
321
320
318
317
318
319
319
319
318
316
315
315
316
317
316
314
313
313
313
315
315
315
314
313
313
315
316
316
315
314
313
314
315
316
316
315
314
314
315
316
316
315
314
313
313
314
315
315
314
312
312
312
314
314
314
313
312
312
313
314
315
314
313
312
313
314
314
314
313
311
310
310
311
312
311
309
308
308
308
309
310
309
308
307
307
309
310
310
309
307
306
307
308
308
307
305
304
303
304
305
305
304
302
301
301
301
302
302
300
299
298
299
300
301
301
300
299
300
301
302
303
302
301
300
300
302
303
302
301
299
299
299
300
300
300
298
297
297
298
299
299
299
298
297
298
300
302
302
301
301
300
301
302
304
303
302
302
302
304
305
306
306
305
305
306
307
309
309
309
308
308
310
312
314
314
314
314
314
316
318
319
320
320
320
321
323
325
325
325
324
324
325
327
329
329
328
327
328
329
330
331
330
329
327
328
328
329
328
327
325
324
324
324
325
324
323
322
321
322
324
324
324
323
323
324
325
327
327
327
326
326
327
328
329
329
327
326
326
326
327
328
327
325
324
325
326
327
327
326
324
324
325
326
327
327
326
326
326
327
329
330
329
328
327
327
328
328
328
326
325
324
324
325
326
325
323
322
322
323
324
325
325
324
324
325
326
328
328
327
326
326
327
329
330
329
328
327
327
327
328
328
327
326
324
324
325
326
325
324
322
321
321
322
323
322
321
320
320
321
322
323
323
322
321
322
323
325
325
324
323
323
324
325
326
326
325
324
324
325
326
327
327
326
325
325
326
327
327
326
325
325
325
327
328
328
326
326
326
326
328
328
328
327
326
327
328
329
329
328
327
327
327
329
330
329
328
327
326
327
328
328
328
327
326
326
327
328
328
327
325
324
324
325
326
326
324
323
323
324
325
326
326
325
324
325
326
327
328
327
326
325
326
328
329
329
328
327
327
328
329
330
329
328
328
328
330
331
332
331
330
329
330
331
332
331
330
329
329
330
331
331
330
329
328
328
329
330
330
329
327
327
327
329
330
329
328
327
328
329
330
331
331
330
329
330
331
332
332
331
330
329
330
331
332
331
330
329
329
329
331
332
331
330
329
330
331
332
332
331
330
329
329
331
331
331
329
328
328
328
329
329
329
327
326
327
328
329
329
328
327
326
326
327
328
328
327
326
326
327
329
329
329
328
327
327
329
330
330
329
327
327
327
329
330
330
328
327
327
328
329
330
329
328
327
328
329
330
329
328
327
326
326
327
327
327
326
325
325
326
327
328
328
327
326
327
328
329
330
329
328
328
329
330
331
331
330
329
329
330
331
331
330
329
328
328
329
330
330
329
328
327
327
329
329
329
328
327
326
327
328
329
328
327
326
326
328
329
329
328
326
325
326
327
328
327
326
325
324
325
327
327
327
326
325
325
326
327
327
325
324
323
323
324
325
325
323
322
321
322
323
323
323
321
321
321
322
323
323
321
320
319
319
320
321
321
321
320
320
322
324
325
325
324
324
325
327
328
329
329
328
328
329
331
332
331
330
329
328
328
329
329
329
327
326
326
327
328
328
327
325
325
325
326
327
327
326
325
325
326
328
329
328
327
326
326
328
329
329
328
326
326
326
327
328
328
327
325
325
327
328
329
329
328
328
329
330
332
332
332
331
330
331
332
333
333
331
330
330
330
331
331
331
329
327
327
328
329
328
327
325
325
325
326
327
327
326
325
325
326
328
328
328
327
327
327
329
330
331
330
328
328
328
329
330
330
328
327
327
328
329
330
330
329
328
328
329
330
330
329
328
327
328
329
330
331
330
329
329
330
332
332
332
331
331
331
333
335
335
335
334
333
334
335
336
336
334
333
333
334
335
336
335
334
333
333
334
335
335
333
332
331
331
332
333
333
332
330
330
331
332
333
332
331
330
331
332
333
333
333
332
331
332
334
335
335
334
333
333
334
336
337
337
336
335
336
337
338
338
337
336
335
336
337
338
338
337
335
335
336
337
338
337
336
335
335
336
337
337
336
334
334
334
335
336
336
335
334
334
335
336
337
338
337
337
338
340
341
342
341
340
339
340
342
343
343
342
341
341
341
342
343
342
341
340
340
341
342
342
341
339
338
338
339
340
340
338
337
337
337
338
338
337
336
334
334
335
335
335
333
331
330
330
331
332
331
330
328
328
329
330
331
330
329
328
329
330
332
333
332
331
331
332
333
335
335
334
334
334
335
336
337
337
336
335
335
337
338
338
337
336
335
335
336
337
337
336
334
334
335
336
337
336
335
334
334
335
337
337
336
335
334
335
336
338
338
337
336
336
337
338
339
339
338
337
337
338
339
339
338
337
336
336
337
338
338
336
335
334
335
337
338
337
337
336
337
338
340
341
340
340
340
341
343
345
346
345
345
345
347
349
350
351
350
349
350
351
353
353
352
351
350
350
351
352
351
349
348
347
347
347
347
345
343
341
341
341
342
342
341
339
338
338
338
338
338
336
335
334
335
336
336
335
334
333
333
334
335
336
335
333
333
333
335
336
337
337
338
339
342
345
347
348
349
350
352
355
357
359
359
359
359
360
362
363
363
361
360
359
359
359
359
358
356
354
353
353
353
352
350
347
345
345
345
346
345
343
341
340
340
341
342
341
340
338
339
340
341
341
340
339
338
338
339
340
340
338
336
335
335
336
335
334
332
330
330
330
331
330
329
327
326
326
328
329
330
329
329
331
334
339
343
346
349
351
354
358
362
365
366
367
369
371
374
376
377
376
375
374
374
374
373
371
367
364
362
360
359
356
353
349
346
345
344
344
343
340
338
337
338
338
339
338
337
336
336
338
340
340
340
339
339
340
342
343
343
342
342
342
343
344
344
343
341
339
338
338
338
337
334
331
327
325
323
322
319
315
312
310
309
309
308
307
305
302
301
301
301
299
297
295
294
295
296
298
298
297
295
295
296
298
300
301
302
303
305
309
313
317
320
322
325
328
332
337
340
341
342
344
347
350
352
352
351
350
351
351
352
352
350
348
347
346
346
347
346
344
341
340
341
341
342
341
340
339
339
340
341
341
340
339
338
338
339
340
340
339
337
337
338
339
340
339
338
337
337
338
340
340
339
338
337
337
338
339
339
338
337
336
337
339
339
339
338
337
338
339
340
341
340
339
338
338
340
341
341
340
339
339
339
340
341
341
339
338
338
340
341
341
340
338
337
337
338
339
338
337
335
335
335
336
337
336
335
333
333
334
335
336
335
334
334
334
336
338
338
337
336
337
338
340
341
341
340
340
340
342
343
344
343
342
341
341
343
344
344
343
342
342
344
345
346
347
346
345
346
348
350
351
351
350
350
351
353
355
355
355
355
355
357
359
361
361
361
361
362
364
366
367
366
365
365
365
367
368
368
367
366
365
366
367
367
367
366
365
365
366
367
367
366
364
363
363
365
366
366
364
363
362
363
364
364
364
363
361
362
363
364
364
363
362
361
361
362
363
364
363
362
361
362
364
365
365
364
363
363
364
365
365
364
363
362
362
363
364
364
363
362
361
362
363
364
364
363
361
361
363
364
364
363
362
361
361
363
364
364
363
362
361
362
363
364
364
363
361
361
362
363
363
362
361
359
359
361
362
362
361
360
359
360
362
363
363
362
362
362
364
366
367
366
365
364
365
366
367
367
365
364
363
364
364
365
364
362
360
360
361
362
362
361
359
358
358
359
361
361
360
359
359
361
362
363
364
363
362
363
364
366
366
366
365
364
365
366
368
368
367
366
365
366
368
368
368
367
366
366
367
368
368
367
366
364
364
365
366
366
365
363
363
363
365
366
366
365
364
364
366
368
368
368
367
366
367
369
370
370
370
368
368
369
370
371
370
369
367
367
368
369
369
367
366
365
365
366
367
367
366
365
364
365
366
367
367
367
366
366
367
368
369
368
366
365
365
367
368
368
367
366
365
366
367
368
368
368
367
368
369
371
372
371
370
370
370
372
373
373
373
371
371
372
373
374
374
373
371
371
372
373
373
372
370
369
369
370
371
371
369
368
367
368
369
369
369
368
367
367
368
370
370
369
368
366
366
367
368
368
366
365
364
365
365
366
365
364
362
361
362
363
363
361
360
359
359
361
362
363
362
361
361
362
364
365
365
364
364
364
366
368
369
368
367
366
366
367
369
369
368
367
367
368
369
370
371
370
369
370
371
373
374
374
373
373
374
375
377
377
377
376
375
376
378
379
378
377
376
376
377
379
379
378
377
376
376
377
379
379
378
377
377
378
380
381
381
380
379
379
381
382
382
381
380
379
379
380
381
381
379
378
377
378
379
380
379
378
377
377
378
379
380
379
378
377
377
378
380
380
378
377
377
377
379
380
380
379
378
378
379
381
381
380
379
378
379
380
381
382
381
379
379
380
381
382
381
380
379
379
380
382
382
381
380
379
379
380
381
382
381
380
379
381
382
383
383
383
381
382
383
384
385
385
384
383
384
385
387
387
387
386
385
386
388
389
389
388
387
387
388
389
389
387
386
384
384
384
385
385
383
381
381
381
382
382
381
380
378
378
379
380
381
380
378
378
378
379
381
382
381
380
380
381
382
383
383
382
382
382
383
385
385
385
383
382
382
383
384
384
383
381
380
381
382
383
382
381
380
380
381
382
382
382
380
380
380
381
382
383
382
381
381
382
383
384
384
383
381
381
382
384
384
383
382
381
381
382
384
384
383
381
381
381
382
383
383
382
381
381
382
384
384
383
382
381
381
382
384
384
383
381
381
382
383
385
385
384
383
384
385
387
387
386
385
384
384
385
386
386
385
384
383
383
384
385
384
383
381
380
381
382
382
381
379
378
378
379
380
381
380
379
379
380
382
383
384
383
383
383
385
387
388
388
387
386
386
388
389
389
388
386
385
386
386
387
387
385
384
384
385
386
386
385
383
382
382
384
385
386
385
384
384
385
387
388
389
388
387
387
389
390
391
390
389
388
388
389
390
390
389
387
386
386
387
387
386
385
383
383
384
385
386
385
383
382
383
384
386
386
385
384
384
385
387
388
388
387
385
385
386
387
387
385
383
381
380
381
381
380
378
376
374
374
374
375
374
372
371
371
372
373
374
373
372
372
373
374
376
377
377
377
377
379
381
382
383
383
382
382
384
385
386
385
384
383
382
383
385
385
383
382
381
381
382
383
383
382
381
381
382
384
384
383
382
382
382
383
385
385
384
382
382
382
383
384
384
383
382
382
383
385
385
384
383
382
381
382
384
384
383
381
381
381
382
382
382
381
379
379
381
382
383
382
381
380
381
382
384
385
385
384
384
386
388
390
391
391
391
392
394
396
397
398
397
397
398
399
401
402
401
400
399
400
401
401
400
398
397
396
397
398
398
397
396
395
394
395
396
395
393
392
390
390
391
390
389
387
384
383
382
382
380
377
374
371
368
368
367
366
364
362
362
363
364
366
367
367
367
368
371
374
376
377
378
378
380
382
385
386
386
385
385
385
387
388
387
386
385
385
385
386
387
386
384
383
383
384
386
386
385
384
384
384
386
387
387
386
384
384
385
386
386
385
383
382
382
383
385
385
384
383
382
383
384
386
386
385
383
383
385
386
387
386
385
384
384
385
387
387
386
384
384
385
386
387
387
386
385
384
385
386
387
386
384
382
382
383
384
384
382
381
380
381
382
383
383
382
381
381
383
384
385
385
383
382
382
382
382
381
379
377
376
375
375
375
374
372
369
368
368
369
369
367
366
364
365
366
368
369
369
369
369
371
373
375
376
376
376
377
379
381
383
382
382
381
381
383
384
384
383
382
381
381
382
383
382
380
379
378
379
380
380
380
378
377
377
379
380
381
380
379
379
380
381
382
383
382
381
381
383
384
384
383
382
381
380
381
382
382
381
379
378
378
379
380
380
379
377
377
379
380
380
380
378
377
377
378
379
379
377
376
375
375
376
376
376
374
372
372
373
374
374
373
372
371
371
372
374
375
374
373
373
374
376
377
377
376
375
375
376
377
378
377
375
374
374
374
375
375
373
372
371
371
372
373
374
373
371
371
372
373
373
373
371
371
371
372
373
373
372
371
371
371
372
373
373
372
371
371
372
373
374
373
372
371
371
372
373
373
372
370
370
370
371
372
371
370
368
368
369
370
370
369
368
367
366
367
368
369
368
366
366
366
367
368
368
367
366
366
367
368
369
369
368
368
369
371
373
373
373
372
373
374
376
378
379
378
377
377
379
381
382
383
384
386
389
392
394
395
394
393
393
395
397
399
399
398
396
396
396
395
394
391
387
383
380
378
376
374
370
366
364
362
362
362
361
359
357
356
356
357
358
357
356
355
355
356
357
358
357
356
355
356
357
357
357
357
356
356
357
358
359
358
356
355
355
356
358
358
357
356
355
356
357
359
359
358
356
356
357
358
359
359
357
357
357
358
359
359
358
357
356
357
358
359
359
358
357
357
358
359
360
359
357
356
356
357
358
358
357
356
355
355
356
357
357
356
354
354
355
357
358
358
357
356
357
358
360
361
361
361
362
363
366
368
369
370
370
371
373
375
377
377
377
377
378
380
382
383
383
382
382
383
384
385
386
385
385
385
386
388
389
389
388
387
387
388
389
389
388
387
386
387
388
388
388
387
385
385
385
386
386
385
383
382
382
382
384
384
383
381
381
382
383
384
384
383
382
382
383
385
386
385
384
383
383
384
385
385
384
383
382
382
383
384
384
383
381
381
382
383
384
383
382
381
381
382
384
385
384
383
382
383
385
386
386
386
385
385
387
389
389
389
388
386
386
387
388
389
388
386
385
386
387
387
387
386
384
384
385
386
386
386
385
384
384
385
387
388
387
386
386
387
389
390
391
391
390
390
391
392
393
392
391
389
389
390
391
391
390
388
387
387
388
389
389
388
387
387
388
389
390
389
388
387
387
388
389
390
389
387
386
387
387
388
388
387
385
384
385
386
387
386
385
383
383
384
386
386
386
385
384
385
386
387
388
387
386
386
387
388
389
388
386
385
385
385
386
386
385
383
382
382
383
384
384
383
382
382
383
385
386
386
385
384
385
386
388
389
389
388
388
388
390
390
391
390
388
388
388
389
390
389
387
386
385
386
387
387
385
383
382
381
381
381
381
380
378
377
376
376
376
374
371
369
368
368
369
368
367
366
365
365
366
367
367
366
365
365
366
367
367
367
366
364
364
364
365
365
363
361
359
359
359
359
358
356
354
354
354
356
356
356
355
354
354
355
357
358
358
358
358
359
361
363
363
363
362
362
363
364
364
364
362
360
360
360
361
361
360
358
357
357
358
359
359
358
357
357
358
360
361
361
360
360
360
361
363
364
364
363
363
364
366
367
368
367
366
366
367
369
370
369
368
367
366
367
368
368
367
365
365
365
366
367
367
366
364
364
365
366
367
366
365
364
364
364
366
366
365
363
363
363
364
365
365
365
364
363
364
366
367
366
365
365
365
367
369
370
370
369
369
370
372
373
373
373
372
372
373
374
375
374
373
373
372
374
375
376
376
375
374
375
377
378
379
378
378
378
379
381
382
382
381
380
380
381
382
383
381
380
379
379
379
380
380
379
377
376
377
378
379
378
376
375
375
375
377
377
376
375
374
375
376
377
378
377
376
376
377
379
380
380
379
378
378
379
380
381
380
379
378
379
380
380
381
380
378
378
379
380
381
380
379
378
378
379
381
382
382
381
381
382
383
385
386
386
385
385
387
388
389
389
388
387
387
387
388
389
388
386
385
385
386
387
387
386
384
383
384
385
386
385
384
383
383
384
386
386
385
384
383
384
385
386
386
385
384
383
384
385
385
385
383
382
382
383
384
384
384
382
382
382
384
385
385
385
384
384
385
387
388
388
387
386
386
387
389
390
389
388
388
388
390
391
392
391
390
390
391
392
392
391
390
388
388
389
390
390
389
387
386
386
387
388
388
387
386
385
386
388
389
388
387
387
387
388
389
390
389
388
387
387
388
389
389
388
387
386
387
387
388
387
385
383
382
382
383
383
382
380
379
378
379
379
379
378
376
375
376
377
378
378
377
377
377
378
380
381
381
380
380
381
383
385
386
386
385
385
387
388
389
389
388
387
386
387
388
389
388
386
386
386
386
387
387
386
385
384
385
386
386
386
384
383
382
383
384
384
384
382
382
382
383
385
385
385
384
384
385
387
388
388
387
387
387
388
390
391
390
389
388
388
389
391
391
390
388
388
388
389
389
389
387
386
386
387
389
390
390
390
390
391
393
395
397
397
397
398
400
403
405
405
405
405
405
406
407
408
407
405
403
402
402
401
400
397
394
392
392
392
392
390
389
387
386
386
386
386
385
383
382
382
383
384
384
382
381
380
380
380
380
379
376
374
372
371
371
371
369
368
367
368
370
372
373
374
374
374
377
380
382
384
385
386
387
390
393
395
395
395
395
396
397
398
399
398
397
396
396
397
397
397
395
394
394
394
396
396
395
394
393
393
395
396
396
395
394
393
394
395
396
395
394
392
392
393
394
394
393
392
391
391
392
393
393
393
391
391
391
393
393
393
391
390
390
390
392
392
392
391
390
391
392
393
394
394
393
393
395
397
398
398
398
397
397
398
400
401
401
399
399
399
399
400
400
399
397
396
396
397
397
396
394
392
391
392
393
393
392
391
390
390
391
393
393
393
392
392
393
395
396
396
395
394
393
394
395
396
395
393
392
393
394
395
395
394
393
393
394
395
397
397
396
395
395
396
397
398
398
396
395
395
396
397
396
395
393
391
391
391
391
389
387
384
382
382
382
381
379
377
375
374
374
374
374
373
372
371
372
374
375
376
375
375
375
377
379
381
381
381
381
382
383
385
386
385
384
383
384
385
385
384
383
381
380
380
381
381
380
378
377
377
377
378
379
378
377
376
377
378
379
378
377
376
375
375
376
377
376
374
373
373
373
374
374
373
372
371
371
373
374
374
373
372
371
372
374
374
374
373
372
372
373
374
374
374
372
371
372
372
373
372
370
369
368
368
369
369
368
367
366
366
367
368
369
368
367
367
368
370
372
372
372
371
372
373
375
376
376
375
375
375
376
378
378
377
376
375
376
377
377
377
375
374
373
374
375
376
375
374
373
373
375
376
377
377
376
376
377
379
380
380
380
379
379
380
382
383
383
382
381
382
383
384
385
384
383
382
383
385
386
385
385
384
384
385
386
387
387
386
386
387
388
390
391
391
391
391
392
394
395
396
395
395
395
396
398
399
399
398
398
398
400
402
403
403
402
402
403
405
407
407
407
406
406
407
408
409
409
408
407
407
409
410
410
409
408
407
407
408
409
409
407
406
405
406
407
407
406
405
404
404
405
406
407
406
405
405
405
407
408
408
407
405
405
406
407
408
407
406
405
405
406
408
408
407
406
405
405
406
407
407
406
404
404
404
405
405
404
403
402
402
403
404
404
404
403
402
403
405
406
406
405
404
404
405
407
408
408
407
406
407
408
409
410
409
408
407
407
409
409
409
408
406
406
406
407
408
407
406
405
405
406
407
408
407
406
406
407
408
410
410
409
408
408
408
410
411
410
409
408
408
409
410
411
410
409
408
409
410
411
411
410
409
408
409
411
412
412
411
410
411
412
413
414
414
413
413
414
415
416
416
415
414
413
414
415
416
415
414
413
413
413
415
415
415
413
413
413
415
416
416
415
414
414
414
416
417
417
416
415
415
417
418
418
418
417
416
417
418
419
419
418
416
416
416
417
418
418
417
416
416
417
418
418
418
417
416
417
418
419
420
419
418
418
418
420
421
420
419
418
418
420
421
422
422
421
421
421
423
424
424
423
422
422
423
425
426
426
424
424
424
424
426
426
425
424
423
423
425
425
425
423
422
421
422
423
423
423
422
421
421
422
423
423
423
422
421
422
423
424
425
424
423
422
423
424
425
425
423
423
423
424
425
426
425
424
424
424
426
427
427
426
425
425
425
427
428
427
426
425
425
426
427
428
428
427
426
426
427
428
428
427
426
426
426
428
428
428
426
425
424
425
426
426
425
423
422
422
423
424
424
422
421
420
421
423
424
424
423
423
423
425
427
428
428
428
427
428
430
431
431
430
428
428
428
430
430
430
428
427
426
427
428
428
427
426
425
425
426
427
427
426
425
424
424
426
427
427
426
425
425
426
427
428
428
427
426
426
428
429
428
427
426
425
425
426
427
427
426
425
425
426
427
428
427
426
426
426
428
429
429
429
427
427
427
428
429
429
428
427
427
427
428
429
428
427
426
427
428
429
429
429
427
427
427
429
430
429
428
427
427
428
429
430
429
427
426
426
427
428
428
426
425
424
424
425
426
426
425
424
424
425
427
428
428
427
426
427
429
430
431
430
429
428
429
430
432
431
430
429
429
430
431
431
430
429
428
428
429
431
431
430
428
428
428
429
431
431
430
429
429
430
431
432
432
431
430
431
432
433
433
432
430
429
429
430
431
430
429
427
427
428
429
429
429
427
426
427
428
429
429
429
428
427
428
429
431
431
430
429
429
430
431
432
432
431
430
430
432
433
433
432
430
430
430
431
432
432
430
429
429
430
431
431
431
430
428
429
430
431
431
430
429
428
429
430
431
431
430
429
429
429
430
431
430
429
428
428
429
430
430
429
428
427
427
428
429
428
427
426
425
426
427
428
428
427
426
426
427
429
429
428
427
427
427
428
429
428
427
426
425
426
427
428
428
427
426
426
427
429
429
429
428
428
429
430
432
433
432
431
432
433
435
436
437
436
435
435
436
437
437
436
434
433
433
434
434
434
432
431
430
431
432
432
432
431
430
431
432
434
434
434
433
432
433
434
435
435
434
433
432
433
434
435
434
432
430
430
431
431
431
430
429
428
429
430
432
432
431
431
431
432
434
435
435
435
434
435
436
437
438
437
436
435
435
436
437
437
435
433
433
433
434
435
434
433
431
431
432
433
433
431
429
428
428
428
429
428
426
425
424
424
425
425
424
422
421
420
421
422
421
420
418
417
417
418
419
419
418
417
417
418
420
421
421
421
420
421
423
425
426
426
426
425
426
428
429
429
428
427
426
427
428
429
428
427
426
426
427
428
428
426
425
424
424
426
427
427
426
425
425
426
428
429
429
428
427
428
429
431
431
431
429
429
429
431
432
432
431
430
430
431
432
433
433
432
431
431
432
433
434
433
431
430
431
432
432
432
430
429
428
429
429
430
429
428
427
428
429
431
432
431
431
431
432
434
437
438
438
438
439
441
443
445
445
444
444
444
445
446
445
443
441
439
438
437
437
435
432
429
427
427
427
427
426
425
423
423
424
425
425
424
422
421
421
422
423
422
421
419
417
417
418
417
416
414
412
411
411
411
411
410
408
408
409
411
414
415
416
416
418
420
423
426
428
429
430
432
435
437
439
440
439
439
440
442
443
443
441
440
439
439
439
439
438
435
433
433
433
433
433
431
429
428
427
428
428
428
427
426
425
426
428
429
429
428
427
427
429
431
432
431
430
430
430
432
433
434
432
431
431
432
433
433
433
432
430
430
430
431
431
430
429
428
428
429
430
430
428
427
427
428
429
430
430
429
428
429
430
431
432
431
429
428
429
430
431
431
430
429
428
429
430
431
431
430
429
429
431
432
433
432
431
430
430
431
432
432
431
429
429
429
430
430
429
428
426
426
427
428
428
427
426
425
425
426
427
428
427
426
426
427
429
430
430
429
428
428
429
430
430
429
427
426
426
427
428
427
426
424
423
424
425
425
425
424
422
422
423
424
424
423
422
421
421
422
423
423
422
420
420
420
421
421
421
419
418
417
418
419
419
418
417
415
415
416
417
417
416
414
413
414
415
416
416
415
414
414
415
416
417
416
414
413
413
415
416
416
415
414
414
414
416
416
416
416
415
415
416
417
417
416
414
413
413
414
415
415
413
412
411
411
412
412
412
410
409
408
409
410
410
409
407
406
406
406
407
407
406
404
403
403
404
405
404
403
401
400
401
402
402
401
399
398
398
399
400
400
399
398
398
398
400
401
401
401
400
400
402
403
404
403
402
401
402
403
404
404
403
401
400
400
401
402
401
400
398
398
398
400
400
399
397
396
396
397
399
399
398
397
397
398
400
401
401
401
400
400
402
403
404
404
403
402
403
404
406
407
406
406
406
407
409
411
411
411
410
411
413
415
416
415
415
414
415
416
418
418
417
416
415
416
417
418
418
417
416
416
418
419
420
419
418
417
418
419
421
422
421
420
420
422
423
424
425
424
423
423
424
426
426
425
424
422
422
423
424
424
422
420
420
420
421
421
421
420
418
418
419
420
421
420
419
418
418
419
421
421
420
419
419
419
421
422
422
421
420
420
421
422
423
422
420
419
419
420
421
421
420
418
417
418
418
419
419
417
416
416
417
418
418
417
416
415
415
415
416
416
415
413
413
413
415
416
416
415
414
414
415
416
416
415
414
413
413
414
415
414
413
411
411
411
412
412
412
411
409
409
409
410
411
410
409
408
408
409
411
412
411
410
410
411
413
415
415
415
414
414
415
417
418
417
416
415
415
415
416
416
415
413
412
412
413
414
413
412
411
410
411
412
413
412
410
409
409
410
412
412
411
410
410
410
412
413
414
413
412
412
414
415
416
416
415
414
414
416
417
417
416
415
414
414
415
416
415
413
412
411
412
413
413
412
410
409
409
410
411
411
410
408
408
408
410
411
411
410
409
409
410
411
412
411
410
409
410
411
412
413
412
410
410
411
412
413
413
412
411
411
412
413
414
413
411
410
409
410
411
411
409
407
406
406
407
407
407
406
404
404
405
406
407
406
405
404
404
405
406
406
405
404
404
404
406
407
407
406
404
404
406
407
408
407
406
405
405
406
408
408
408
406
406
407
408
409
409
408
406
406
407
408
409
408
406
405
404
405
406
406
405
404
403
403
404
405
405
404
402
402
403
404
404
404
402
401
401
402
404
404
403
402
402
402
404
404
404
403
402
402
403
404
404
403
402
401
400
401
402
402
401
400
399
399
400
401
401
400
398
398
399
400
401
400
398
397
397
398
399
399
398
396
395
395
396
397
397
395
394
394
395
397
397
397
395
394
394
396
397
398
397
396
395
396
398
399
399
398
397
396
397
398
399
398
396
395
394
395
396
396
394
392
391
392
392
393
393
392
391
391
392
393
394
394
393
392
392
393
395
396
395
394
394
394
396
397
397
395
394
393
394
395
395
394
392
391
391
392
393
393
392
390
390
390
391
392
393
392
391
391
392
394
395
394
393
392
392
392
393
394
392
391
390
390
390
391
391
389
387
386
387
388
388
387
386
384
384
385
386
387
386
385
384
385
386
387
387
386
385
385
386
387
387
387
385
384
384
385
386
386
385
383
383
383
385
386
386
385
384
384
385
386
387
386
385
384
384
385
386
386
386
384
383
383
384
385
385
383
382
381
382
383
384
383
382
381
381
381
382
383
382
381
380
381
383
384
384
384
383
383
384
385
386
385
384
383
382
383
384
384
383
381
380
380
381
381
381
380
378
377
377
378
378
377
375
374
373
374
375
375
373
372
371
372
373
374
375
374
373
373
375
377
378
379
378
378
378
380
382
382
382
381
380
381
382
383
383
382
380
379
380
381
381
379
377
376
375
375
376
376
374
373
372
373
374
375
375
374
372
372
373
375
375
375
374
373
373
374
375
376
375
373
373
373
374
375
375
374
373
373
374
376
376
376
375
374
373
374
376
376
375
373
372
373
373
374
374
373
371
370
371
372
373
372
371
370
370
371
372
373
372
371
371
371
373
374
374
373
372
372
372
373
374
373
372
371
370
371
372
373
372
371
370
371
372
373
373
373
371
371
373
374
375
375
374
373
372
373
374
374
372
371
369
369
370
370
369
367
365
364
363
364
363
361
359
357
355
355
355
354
353
351
349
349
350
351
351
350
349
349
351
353
355
355
355
355
356
358
361
362
362
362
362
363
364
366
366
366
364
364
365
366
366
365
364
362
361
361
362
361
360
358
357
356
357
358
357
356
355
354
355
356
357
357
356
355
355
356
358
359
358
358
357
358
359
361
361
360
359
359
359
360
361
360
359
357
356
357
358
359
358
356
355
356
357
358
359
358
357
357
358
360
361
361
360
359
360
361
363
364
364
363
363
363
365
366
367
367
366
366
367
368
369
369
367
366
365
365
366
365
363
361
358
357
356
356
354
352
350
348
348
349
349
348
346
344
343
343
344
344
343
342
341
342
343
344
344
343
342
342
342
344
345
344
343
342
342
342
344
345
345
345
345
347
349
351
353
353
353
354
356
358
360
361
360
360
361
362
364
365
364
363
362
361
362
362
361
359
357
356
355
356
356
354
352
351
350
350
351
351
350
349
348
348
349
350
351
350
349
348
349
350
351
350
349
347
346
347
348
348
346
345
344
344
344
345
345
344
343
342
343
344
345
344
343
342
341
342
344
344
344
342
341
342
343
344
344
343
342
341
342
344
345
344
343
342
342
343
345
346
345
344
343
344
345
347
347
347
346
345
346
348
349
349
348
347
347
347
349
349
348
347
346
346
347
348
348
347
345
344
345
346
346
345
343
342
341
342
343
343
342
340
339
340
341
342
343
342
341
341
342
344
345
345
345
344
344
346
348
349
349
348
347
348
349
350
351
350
348
348
349
350
350
350
349
347
346
347
348
348
347
346
345
345
346
348
348
347
346
345
346
347
348
348
347
346
345
346
347
347
346
345
344
344
344
345
345
345
343
342
343
344
345
345
344
343
342
343
345
346
345
344
344
344
345
346
346
345
344
343
343
344
344
344
342
341
340
340
341
341
340
338
337
336
337
338
338
336
335
334
334
335
336
335
334
332
331
332
333
334
333
332
331
331
332
333
334
333
332
332
333
335
336
336
336
335
335
336
338
339
339
338
337
337
338
340
340
339
338
337
337
339
339
338
337
335
334
334
335
336
335
333
332
332
333
334
335
334
333
332
333
334
336
336
335
334
334
335
337
338
337
336
336
337
338
340
340
340
339
339
340
342
343
343
342
341
341
341
343
344
343
342
341
342
343
344
345
345
344
344
345
347
348
349
348
348
348
350
352
354
355
355
355
356
358
360
362
362
361
361
363
365
366
367
366
366
366
367
368
369
369
368
367
368
369
370
371
370
369
369
370
371
372
372
371
370
370
371
372
373
373
371
371
371
372
373
373
373
372
371
372
373
374
374
373
372
372
373
374
375
374
373
372
372
373
375
375
374
373
372
373
374
375
374
373
371
370
371
372
372
372
370
369
369
370
371
371
370
369
369
369
371
372
372
371
370
369
370
371
372
372
370
369
369
370
371
372
371
370
369
369
370
370
370
368
367
366
366
367
368
367
366
365
365
366
368
369
368
368
367
368
370
371
371
371
370
370
371
372
373
373
371
370
370
371
372
372
371
369
368
368
368
368
366
364
361
359
359
359
358
356
354
351
350
350
349
348
345
342
340
339
340
340
339
337
335
333
332
332
331
329
326
323
322
322
322
322
321
319
319
320
321
322
322
321
320
321
324
328
332
336
339
341
344
348
351
354
356
357
359
363
366
370
372
373
373
374
376
378
379
380
379
378
379
380
381
382
382
381
380
381
382
383
383
382
381
380
380
381
382
382
381
380
380
381
383
383
382
381
379
379
380
380
380
378
377
375
375
376
376
374
372
370
369
369
369
369
368
366
364
364
365
366
365
364
363
362
362
362
363
362
361
359
359
360
361
362
362
360
360
360
361
363
363
362
361
361
362
363
365
365
364
363
364
365
367
368
368
367
366
367
369
370
370
369
368
367
368
369
370
369
367
366
365
365
366
366
365
364
363
363
364
365
364
363
362
362
363
364
366
366
365
365
365
367
369
370
370
369
369
369
370
371
371
370
369
368
368
369
369
368
366
364
364
364
365
365
364
362
361
361
362
363
363
362
360
360
360
362
363
363
363
362
362
364
365
366
366
365
365
365
367
368
368
366
365
364
364
365
365
365
363
361
361
361
362
362
362
360
359
359
361
362
362
361
360
359
359
360
362
361
360
359
359
360
361
361
361
359
358
358
359
360
360
359
357
356
356
357
357
356
355
353
352
353
354
354
353
352
351
351
352
353
353
352
351
350
351
352
353
353
352
351
351
352
354
354
354
353
351
351
352
353
353
352
350
349
349
350
350
350
348
347
346
347
348
349
348
347
346
346
347
349
349
348
347
346
346
348
349
349
348
346
346
347
348
349
348
346
345
345
346
347
347
345
344
343
342
343
344
343
342
340
340
340
341
341
341
339
337
337
338
339
338
337
335
335
335
336
337
337
336
335
335
336
337
338
338
337
336
337
338
339
340
339
337
336
336
337
337
337
335
334
333
333
334
334
333
332
330
330
331
332
332
331
329
329
329
330
331
331
330
329
329
330
331
332
332
331
331
331
332
334
334
333
332
331
331
332
