# Simple Text Format
# Sampling Rate (Hz):= 1200.00
# Resolution:= 12
# Labels:= ECG	 V5
# Age:=	69
# Gender:=	Feminino
-227
-218
-210
-203
-199
-195
-195
-194
-196
-199
-205
-212
-220
-231
-242
-256
-269
-285
-301
-318
-336
-355
-374
-393
-412
-431
-451
-468
-487
-504
-520
-535
-550
-563
-574
-584
-593
-601
-608
-614
-617
-620
-622
-623
-622
-620
-617
-614
-610
-605
-600
-595
-589
-584
-577
-573
-566
-561
-556
-550
-546
-541
-537
-534
-530
-526
-524
-522
-520
-517
-516
-515
-514
-512
-512
-512
-511
-511
-512
-511
-511
-511
-511
-511
-511
-511
-510
-510
-510
-510
-510
-510
-509
-509
-509
-507
-507
-507
-507
-507
-507
-506
-506
-506
-506
-505
-505
-505
-506
-506
-506
-507
-507
-507
-507
-507
-507
-505
-505
-505
-505
-505
-505
-504
-504
-504
-503
-503
-502
-502
-501
-501
-500
-501
-501
-500
-500
-500
-500
-500
-500
-500
-501
-500
-500
-500
-501
-501
-501
-501
-501
-500
-500
-500
-500
-499
-499
-499
-498
-498
-497
-496
-495
-495
-494
-494
-493
-493
-492
-492
-491
-491
-491
-491
-490
-490
-490
-490
-489
-489
-489
-489
-489
-489
-489
-488
-488
-488
-488
-488
-487
-487
-487
-487
-486
-486
-486
-486
-486
-485
-485
-486
-485
-485
-484
-484
-484
-482
-482
-482
-481
-481
-481
-480
-479
-479
-478
-478
-478
-477
-477
-477
-477
-475
-475
-475
-475
-475
-475
-475
-474
-474
-474
-473
-473
-473
-473
-472
-471
-471
-470
-469
-468
-469
-468
-467
-466
-465
-465
-464
-463
-463
-462
-461
-461
-460
-459
-458
-458
-456
-456
-456
-454
-454
-453
-452
-451
-450
-450
-449
-448
-446
-446
-445
-444
-443
-442
-441
-440
-439
-437
-437
-436
-435
-433
-432
-431
-430
-429
-427
-426
-425
-424
-423
-421
-419
-418
-417
-416
-415
-414
-413
-410
-409
-408
-407
-406
-405
-404
-401
-400
-399
-398
-397
-396
-395
-394
-392
-392
-391
-390
-389
-388
-388
-386
-386
-386
-385
-383
-383
-382
-381
-381
-380
-379
-379
-379
-378
-377
-377
-376
-375
-374
-374
-373
-373
-372
-372
-372
-371
-371
-370
-369
-369
-369
-368
-368
-369
-369
-369
-368
-368
-369
-368
-368
-369
-369
-369
-370
-370
-370
-371
-370
-371
-371
-372
-373
-373
-374
-374
-376
-377
-377
-379
-380
-381
-382
-383
-384
-385
-387
-389
-390
-392
-393
-394
-396
-398
-400
-402
-402
-405
-407
-408
-410
-412
-414
-415
-417
-418
-421
-422
-423
-425
-427
-429
-430
-432
-433
-435
-436
-438
-439
-440
-441
-443
-444
-445
-447
-448
-449
-450
-451
-453
-454
-454
-455
-457
-457
-459
-460
-461
-462
-464
-464
-465
-467
-467
-468
-469
-470
-471
-472
-472
-474
-474
-475
-475
-477
-477
-477
-477
-479
-479
-479
-479
-480
-480
-481
-481
-481
-482
-482
-482
-482
-482
-482
-484
-484
-484
-484
-485
-485
-485
-485
-485
-485
-485
-485
-485
-486
-486
-485
-486
-486
-486
-486
-487
-487
-488
-488
-489
-488
-488
-488
-490
-490
-490
-490
-490
-490
-490
-490
-490
-490
-489
-489
-489
-489
-488
-488
-488
-488
-488
-488
-487
-487
-487
-488
-488
-487
-487
-487
-488
-488
-488
-488
-488
-488
-488
-488
-488
-487
-487
-487
-487
-487
-487
-487
-487
-487
-487
-486
-486
-486
-486
-487
-487
-486
-486
-486
-487
-487
-487
-487
-487
-487
-487
-487
-488
-488
-488
-488
-488
-489
-489
-490
-489
-489
-489
-489
-490
-490
-490
-490
-490
-490
-490
-490
-490
-490
-489
-489
-489
-489
-489
-489
-488
-488
-488
-488
-489
-489
-488
-488
-488
-488
-488
-488
-489
-488
-488
-488
-487
-488
-488
-488
-487
-487
-488
-488
-488
-487
-488
-488
-488
-489
-489
-488
-489
-490
-490
-490
-490
-490
-491
-491
-491
-491
-491
-491
-491
-491
-491
-490
-491
-491
-490
-491
-490
-490
-490
-490
-490
-490
-489
-489
-490
-489
-489
-490
-490
-490
-491
-491
-491
-490
-490
-491
-491
-491
-491
-491
-492
-491
-492
-492
-493
-493
-492
-492
-492
-493
-493
-493
-493
-493
-493
-493
-494
-494
-494
-494
-494
-494
-494
-494
-494
-495
-495
-495
-495
-495
-495
-495
-495
-495
-495
-495
-495
-495
-496
-496
-495
-496
-496
-496
-496
-496
-496
-496
-496
-496
-495
-495
-496
-496
-496
-496
-495
-495
-495
-495
-495
-495
-494
-494
-495
-495
-495
-495
-494
-494
-494
-494
-494
-494
-494
-494
-494
-494
-495
-495
-494
-494
-494
-495
-495
-495
-495
-495
-495
-495
-495
-495
-495
-495
-495
-495
-495
-494
-494
-495
-495
-495
-495
-495
-495
-494
-494
-495
-495
-495
-494
-494
-495
-495
-495
-495
-495
-495
-495
-495
-495
-495
-494
-494
-494
-494
-495
-495
-495
-495
-496
-496
-496
-496
-496
-496
-496
-496
-496
-496
-496
-497
-497
-497
-496
-496
-496
-497
-496
-496
-496
-497
-496
-496
-495
-495
-496
-496
-495
-495
-496
-495
-495
-495
-495
-495
-495
-495
-495
-495
-495
-494
-494
-494
-494
-494
-494
-495
-495
-495
-495
-496
-496
-496
-496
-496
-497
-497
-497
-496
-496
-496
-496
-496
-496
-495
-495
-495
-495
-495
-495
-495
-495
-494
-494
-494
-494
-494
-494
-494
-494
-495
-495
-494
-494
-494
-494
-494
-494
-494
-494
-494
-494
-494
-495
-495
-494
-494
-494
-493
-494
-494
-494
-494
-494
-494
-494
-494
-494
-494
-494
-494
-495
-494
-494
-495
-495
-494
-494
-494
-494
-495
-495
-495
-495
-496
-495
-495
-496
-495
-495
-495
-496
-495
-496
-496
-496
-495
-496
-496
-496
-496
-496
-495
-495
-495
-495
-495
-494
-494
-494
-494
-494
-494
-493
-493
-493
-494
-493
-493
-493
-492
-493
-493
-493
-493
-493
-493
-493
-493
-493
-494
-494
-494
-494
-493
-493
-494
-494
-494
-493
-494
-494
-494
-493
-494
-494
-493
-493
-493
-493
-493
-493
-493
-493
-492
-492
-492
-492
-492
-492
-492
-492
-492
-492
-492
-492
-493
-493
-493
-493
-493
-493
-493
-493
-493
-492
-492
-492
-492
-491
-491
-491
-490
-490
-489
-489
-489
-489
-489
-490
-489
-489
-489
-489
-489
-488
-488
-488
-489
-489
-488
-488
-489
-488
-488
-488
-489
-488
-488
-487
-487
-486
-486
-485
-484
-484
-483
-483
-483
-482
-481
-482
-481
-480
-479
-479
-478
-479
-478
-478
-477
-477
-477
-476
-476
-476
-475
-475
-474
-474
-474
-474
-473
-473
-472
-471
-471
-470
-470
-471
-470
-470
-470
-469
-469
-469
-468
-469
-468
-469
-469
-469
-469
-469
-469
-469
-469
-469
-470
-470
-470
-470
-470
-471
-470
-471
-471
-472
-472
-472
-472
-472
-473
-472
-472
-472
-473
-474
-474
-474
-474
-475
-476
-475
-476
-477
-477
-477
-479
-478
-480
-480
-481
-482
-482
-483
-483
-484
-484
-485
-485
-486
-486
-487
-486
-486
-486
-487
-488
-488
-488
-488
-488
-488
-488
-489
-489
-489
-488
-488
-489
-489
-489
-489
-490
-490
-490
-490
-490
-490
-490
-490
-490
-490
-490
-490
-490
-490
-490
-490
-490
-490
-489
-489
-489
-489
-489
-489
-489
-488
-488
-487
-486
-485
-484
-483
-481
-478
-475
-472
-468
-463
-458
-452
-445
-438
-430
-421
-411
-400
-389
-377
-363
-350
-337
-323
-309
-294
-280
-267
-252
-239
-226
-213
-202
-190
-182
-173
-166
-161
-158
-155
-155
-156
-159
-163
-169
-177
-186
-197
-208
-222
-236
-251
-268
-285
-303
-321
-340
-358
-377
-395
-413
-430
-447
-463
-479
-492
-505
-517
-528
-537
-546
-553
-558
-562
-566
-568
-569
-568
-567
-565
-562
-558
-555
-550
-545
-540
-535
-530
-525
-519
-515
-510
-506
-502
-497
-495
-491
-488
-486
-484
-482
-480
-479
-478
-476
-475
-475
-474
-474
-473
-473
-473
-472
-473
-473
-473
-472
-472
-472
-472
-472
-472
-472
-472
-472
-472
-472
-471
-471
-471
-471
-471
-471
-471
-470
-470
-470
-470
-469
-469
-469
-469
-469
-469
-468
-468
-468
-467
-467
-467
-466
-466
-466
-466
-466
-466
-466
-466
-466
-466
-466
-466
-466
-466
-466
-467
-466
-466
-466
-466
-465
-465
-465
-465
-465
-465
-465
-465
-463
-463
-463
-463
-463
-463
-463
-463
-463
-462
-462
-462
-462
-462
-462
-462
-462
-462
-462
-461
-461
-461
-461
-461
-461
-461
-461
-461
-461
-460
-459
-459
-458
-459
-459
-458
-458
-457
-456
-456
-456
-456
-455
-455
-455
-454
-454
-453
-453
-453
-453
-452
-452
-451
-451
-451
-452
-450
-450
-450
-450
-450
-449
-449
-449
-449
-448
-448
-448
-448
-448
-446
-446
-446
-446
-445
-445
-444
-444
-444
-444
-444
-442
-442
-442
-442
-442
-441
-441
-441
-441
-440
-440
-440
-440
-439
-439
-439
-439
-438
-437
-437
-437
-436
-436
-436
-435
-435
-434
-434
-433
-432
-431
-431
-430
-429
-429
-428
-428
-426
-426
-425
-424
-424
-422
-422
-421
-419
-419
-418
-417
-416
-415
-415
-413
-413
-411
-411
-410
-408
-407
-406
-405
-404
-403
-402
-400
-399
-398
-397
-396
-395
-394
-392
-391
-390
-388
-387
-385
-384
-384
-382
-380
-379
-378
-376
-375
-374
-373
-371
-370
-370
-368
-367
-367
-366
-364
-363
-363
-362
-361
-360
-360
-359
-358
-357
-357
-356
-355
-354
-354
-353
-352
-351
-350
-349
-348
-348
-347
-346
-346
-345
-344
-344
-343
-343
-343
-341
-341
-341
-341
-341
-341
-341
-341
-341
-341
-341
-340
-341
-341
-341
-341
-341
-342
-342
-343
-344
-344
-345
-345
-346
-348
-348
-349
-349
-351
-351
-352
-353
-355
-356
-357
-357
-359
-360
-362
-362
-363
-364
-366
-367
-368
-370
-371
-372
-374
-375
-376
-378
-379
-380
-381
-384
-385
-386
-387
-389
-390
-391
-393
-395
-396
-398
-399
-401
-402
-404
-405
-407
-409
-410
-411
-413
-414
-415
-416
-417
-419
-420
-421
-422
-424
-425
-426
-427
-428
-429
-429
-430
-431
-433
-434
-434
-435
-435
-436
-437
-437
-439
-439
-439
-440
-440
-441
-441
-442
-442
-442
-444
-444
-444
-445
-445
-446
-446
-447
-447
-447
-448
-448
-447
-448
-448
-448
-448
-448
-448
-449
-448
-448
-448
-448
-448
-448
-448
-448
-448
-448
-448
-448
-448
-448
-448
-449
-449
-449
-449
-449
-450
-450
-450
-450
-450
-450
-450
-450
-451
-451
-451
-451
-451
-452
-452
-452
-452
-452
-452
-453
-453
-453
-453
-453
-452
-452
-452
-452
-452
-452
-452
-451
-450
-450
-451
-451
-451
-450
-450
-450
-450
-451
-451
-451
-451
-451
-451
-452
-452
-452
-453
-453
-453
-453
-453
-454
-454
-454
-454
-455
-454
-454
-454
-454
-454
-454
-454
-453
-453
-453
-453
-453
-452
-453
-452
-452
-452
-453
-453
-453
-453
-453
-453
-453
-453
-454
-454
-454
-454
-454
-455
-455
-455
-456
-456
-455
-455
-456
-456
-456
-455
-455
-455
-455
-455
-455
-454
-454
-454
-455
-454
-454
-454
-454
-454
-455
-455
-455
-454
-455
-455
-456
-455
-455
-455
-455
-456
-456
-456
-456
-457
-457
-457
-457
-457
-457
-457
-457
-457
-457
-458
-458
-458
-458
-459
-459
-459
-459
-459
-460
-461
-461
-460
-461
-461
-461
-462
-461
-461
-461
-462
-461
-461
-461
-461
-461
-461
-461
-461
-461
-461
-461
-460
-460
-460
-461
-461
-461
-461
-462
-462
-462
-462
-463
-463
-463
-463
-464
-463
-463
-464
-464
-464
-464
-464
-465
-465
-465
-465
-466
-466
-466
-466
-466
-466
-466
-467
-467
-467
-468
-468
-467
-467
-468
-468
-468
-467
-468
-468
-468
-467
-467
-467
-467
-467
-467
-467
-467
-467
-466
-467
-467
-467
-468
-467
-467
-467
-467
-468
-468
-467
-468
-468
-468
-468
-468
-468
-468
-468
-468
-468
-468
-467
-467
-467
-467
-467
-467
-468
-468
-468
-468
-468
-468
-468
-468
-468
-468
-468
-469
-469
-469
-470
-470
-470
-471
-470
-470
-470
-470
-470
-471
-471
-470
-470
-471
-471
-471
-470
-470
-470
-470
-470
-470
-470
-470
-470
-470
-469
-469
-469
-468
-468
-468
-468
-468
-468
-467
-467
-467
-467
-467
-467
-468
-468
-468
-469
-469
-469
-469
-469
-469
-470
-470
-470
-471
-471
-472
-472
-472
-472
-471
-471
-471
-471
-471
-471
-471
-471
-470
-471
-470
-471
-471
-471
-471
-471
-471
-471
-472
-472
-471
-471
-471
-472
-471
-471
-471
-471
-471
-471
-471
-471
-471
-470
-470
-470
-470
-470
-470
-471
-471
-471
-471
-471
-471
-471
-471
-471
-471
-471
-470
-470
-470
-470
-470
-469
-469
-469
-469
-470
-469
-469
-469
-469
-469
-469
-469
-469
-469
-469
-470
-470
-469
-469
-470
-470
-470
-469
-469
-469
-469
-469
-470
-470
-470
-470
-469
-469
-469
-470
-470
-470
-470
-470
-470
-470
-470
-470
-470
-470
-470
-470
-470
-470
-470
-470
-470
-470
-470
-470
-470
-470
-469
-469
-469
-468
-469
-469
-468
-468
-468
-468
-468
-468
-468
-468
-468
-467
-467
-467
-467
-468
-468
-468
-468
-468
-468
-468
-468
-468
-468
-468
-468
-468
-467
-467
-467
-468
-468
-468
-468
-468
-468
-468
-468
-468
-468
-468
-468
-468
-468
-469
-469
-468
-468
-468
-468
-468
-468
-469
-469
-469
-468
-468
-468
-468
-468
-468
-468
-468
-468
-468
-468
-467
-467
-467
-467
-467
-467
-466
-466
-467
-467
-466
-466
-466
-466
-466
-466
-466
-466
-466
-466
-467
-467
-467
-467
-467
-467
-467
-467
-467
-468
-468
-468
-468
-469
-469
-469
-469
-469
-469
-469
-469
-469
-469
-468
-468
-468
-469
-468
-468
-468
-467
-468
-467
-466
-467
-466
-465
-465
-465
-465
-465
-465
-465
-465
-465
-464
-464
-463
-464
-464
-463
-463
-463
-463
-463
-462
-462
-462
-462
-462
-461
-461
-460
-460
-459
-459
-458
-458
-457
-457
-456
-456
-455
-455
-454
-454
-453
-452
-452
-452
-452
-452
-451
-451
-450
-450
-450
-449
-449
-448
-448
-448
-448
-448
-447
-447
-447
-447
-446
-446
-446
-446
-446
-446
-447
-447
-447
-447
-448
-448
-449
-449
-450
-451
-452
-452
-452
-453
-453
-453
-454
-455
-455
-455
-455
-455
-455
-456
-456
-456
-456
-456
-456
-456
-457
-458
-458
-458
-458
-459
-460
-460
-460
-460
-462
-461
-463
-462
-464
-464
-464
-465
-465
-465
-465
-465
-466
-466
-466
-467
-467
-467
-467
-466
-467
-467
-467
-467
-467
-468
-467
-467
-467
-467
-467
-467
-466
-466
-466
-466
-466
-466
-465
-465
-465
-465
-465
-465
-464
-464
-464
-464
-463
-463
-463
-463
-463
-461
-461
-461
-460
-460
-459
-458
-457
-456
-454
-452
-449
-445
-441
-436
-431
-425
-419
-411
-403
-394
-384
-373
-361
-348
-336
-322
-309
-295
-282
-268
-254
-240
-227
-213
-201
-188
-178
-167
-159
-152
-145
-141
-138
-138
-138
-141
-144
-150
-156
-165
-176
-187
-200
-215
-231
-247
-264
-281
-300
-318
-337
-355
-374
-392
-410
-427
-443
-459
-472
-486
-497
-508
-518
-525
-532
-537
-543
-546
-547
-548
-548
-546
-544
-540
-536
-532
-527
-521
-516
-511
-505
-500
-494
-489
-484
-479
-475
-471
-467
-463
-460
-458
-455
-453
-451
-449
-448
-448
-447
-446
-445
-445
-444
-444
-444
-444
-444
-443
-443
-443
-443
-443
-443
-442
-442
-441
-441
-441
-441
-441
-441
-441
-441
-440
-440
-440
-440
-440
-440
-439
-439
-440
-440
-440
-440
-439
-439
-439
-439
-439
-438
-438
-438
-437
-438
-437
-437
-437
-436
-436
-436
-436
-435
-435
-435
-435
-434
-434
-434
-434
-433
-433
-433
-433
-433
-433
-433
-433
-433
-432
-432
-432
-431
-431
-431
-431
-431
-431
-431
-431
-431
-430
-429
-429
-429
-428
-428
-428
-428
-428
-428
-428
-428
-427
-426
-426
-425
-425
-425
-425
-424
-424
-424
-423
-423
-423
-421
-421
-420
-421
-420
-420
-419
-420
-419
-419
-419
-419
-418
-419
-419
-418
-418
-419
-418
-418
-418
-418
-418
-418
-418
-418
-417
-417
-417
-416
-417
-416
-416
-414
-414
-413
-413
-413
-413
-413
-411
-411
-411
-411
-410
-410
-410
-409
-409
-408
-407
-407
-406
-407
-406
-405
-405
-404
-404
-403
-403
-402
-402
-401
-401
-401
-399
-399
-398
-398
-397
-397
-395
-395
-394
-394
-393
-393
-392
-391
-390
-389
-388
-388
-386
-386
-385
-384
-383
-382
-381
-380
-379
-378
-377
-377
-375
-374
-374
-373
-371
-370
-369
-368
-367
-367
-365
-364
-363
-362
-361
-359
-358
-357
-356
-355
-353
-352
-350
-349
-348
-347
-346
-345
-344
-343
-341
-340
-339
-338
-336
-335
-333
-332
-331
-330
-329
-328
-326
-325
-323
-323
-321
-320
-319
-318
-318
-317
-316
-315
-314
-313
-312
-310
-310
-309
-308
-308
-306
-305
-305
-304
-304
-303
-302
-302
-302
-301
-301
-300
-300
-301
-301
-301
-301
-302
-301
-301
-302
-302
-302
-303
-303
-303
-303
-304
-304
-304
-304
-304
-304
-304
-304
-304
-305
-304
-304
-305
-305
-306
-306
-306
-308
-308
-308
-310
-310
-311
-312
-313
-314
-316
-317
-318
-319
-320
-322
-323
-324
-325
-327
-328
-330
-332
-333
-334
-336
-338
-340
-341
-342
-344
-345
-348
-349
-351
-352
-353
-355
-356
-358
-360
-361
-362
-364
-365
-367
-368
-369
-371
-372
-373
-374
-376
-377
-378
-379
-381
-382
-383
-384
-385
-385
-387
-388
-389
-389
-391
-391
-392
-393
-394
-395
-395
-397
-398
-398
-399
-399
-400
-400
-401
-401
-402
-402
-403
-404
-404
-403
-404
-403
-404
-404
-403
-404
-404
-403
-404
-404
-404
-404
-404
-404
-404
-404
-404
-405
-405
-406
-406
-406
-407
-407
-407
-407
-408
-408
-408
-409
-409
-409
-409
-409
-409
-408
-408
-408
-408
-407
-408
-408
-408
-407
-407
-407
-407
-407
-406
-406
-406
-407
-407
-407
-408
-408
-407
-407
-407
-408
-408
-408
-408
-408
-408
-408
-409
-409
-408
-408
-408
-408
-408
-408
-408
-408
-407
-407
-407
-407
-406
-406
-406
-406
-406
-406
-404
-404
-404
-404
-404
-403
-403
-403
-403
-402
-402
-402
-402
-402
-402
-402
-402
-403
-403
-403
-402
-403
-403
-403
-403
-403
-403
-403
-404
-403
-403
-403
-403
-402
-403
-403
-402
-402
-402
-401
-401
-401
-401
-400
-400
-399
-399
-399
-399
-399
-399
-399
-399
-399
-399
-400
-400
-400
-400
-400
-400
-400
-400
-400
-401
-401
-400
-400
-400
-400
-400
-400
-400
-399
-399
-400
-400
-399
-400
-400
-399
-400
-400
-400
-399
-399
-400
-400
-400
-400
-400
-400
-400
-401
-400
-400
-400
-400
-400
-400
-400
-401
-400
-401
-401
-401
-401
-401
-402
-402
-402
-402
-402
-403
-403
-404
-403
-403
-404
-404
-404
-404
-404
-404
-404
-404
-404
-404
-404
-403
-404
-404
-404
-404
-405
-405
-404
-404
-404
-404
-404
-404
-404
-405
-405
-405
-405
-405
-404
-404
-404
-404
-405
-405
-404
-404
-404
-404
-404
-404
-404
-403
-403
-404
-403
-403
-403
-402
-402
-402
-402
-402
-402
-402
-402
-402
-402
-402
-402
-401
-402
-402
-401
-402
-401
-402
-402
-401
-402
-402
-403
-402
-402
-402
-403
-403
-402
-402
-402
-402
-402
-402
-402
-403
-402
-403
-402
-403
-403
-403
-403
-403
-403
-403
-403
-403
-403
-403
-403
-404
-403
-403
-403
-403
-403
-403
-404
-404
-403
-403
-404
-404
-403
-403
-404
-403
-403
-403
-403
-403
-402
-402
-402
-402
-401
-402
-401
-400
-400
-399
-399
-399
-399
-398
-398
-398
-398
-398
-399
-399
-398
-398
-398
-398
-398
-398
-398
-398
-399
-399
-399
-399
-399
-399
-399
-398
-398
-398
-399
-398
-398
-398
-397
-398
-398
-398
-398
-398
-398
-398
-399
-399
-398
-398
-399
-399
-399
-400
-400
-400
-400
-401
-401
-401
-401
-401
-401
-401
-401
-402
-401
-400
-400
-401
-401
-400
-400
-400
-399
-399
-399
-399
-398
-398
-397
-397
-398
-397
-397
-397
-398
-398
-397
-397
-397
-397
-397
-397
-397
-398
-398
-398
-398
-398
-398
-398
-398
-398
-398
-398
-398
-398
-398
-398
-398
-399
-399
-399
-399
-399
-399
-399
-399
-398
-398
-398
-398
-398
-398
-398
-397
-398
-398
-397
-397
-398
-397
-397
-397
-398
-398
-398
-397
-397
-397
-398
-397
-397
-397
-398
-398
-397
-397
-397
-397
-398
-398
-398
-398
-398
-398
-398
-398
-399
-399
-399
-398
-398
-398
-398
-399
-399
-398
-398
-398
-398
-398
-398
-397
-397
-397
-397
-397
-397
-396
-396
-396
-396
-396
-396
-396
-396
-396
-395
-396
-396
-395
-395
-396
-396
-396
-397
-397
-397
-397
-397
-398
-398
-398
-398
-398
-399
-399
-399
-399
-399
-400
-399
-399
-399
-399
-399
-398
-398
-399
-398
-398
-398
-398
-397
-398
-397
-397
-397
-397
-397
-396
-396
-396
-396
-396
-395
-395
-395
-395
-395
-395
-395
-395
-393
-393
-393
-392
-392
-392
-392
-391
-391
-391
-390
-390
-389
-389
-389
-389
-389
-388
-388
-389
-388
-388
-388
-388
-388
-388
-387
-387
-387
-386
-386
-385
-385
-384
-383
-383
-382
-382
-381
-381
-380
-380
-379
-379
-379
-379
-378
-378
-378
-377
-377
-377
-377
-378
-378
-378
-377
-377
-377
-377
-377
-378
-378
-378
-378
-379
-378
-379
-379
-380
-380
-380
-381
-381
-382
-382
-383
-383
-384
-385
-385
-385
-385
-385
-386
-386
-387
-387
-388
-389
-388
-390
-390
-391
-391
-392
-392
-393
-393
-393
-395
-394
-395
-396
-396
-396
-396
-397
-397
-397
-397
-397
-398
-397
-397
-397
-397
-397
-397
-397
-397
-397
-397
-397
-398
-398
-398
-398
-399
-398
-398
-398
-398
-399
-399
-399
-399
-399
-398
-398
-398
-397
-398
-398
-397
-397
-396
-396
-396
-395
-395
-395
-395
-394
-394
-393
-392
-391
-390
-388
-386
-384
-381
-377
-374
-369
-363
-356
-349
-342
-334
-324
-314
-302
-290
-278
-264
-251
-236
-221
-206
-192
-177
-162
-148
-134
-121
-108
-96
-85
-76
-68
-61
-55
-53
-50
-50
-52
-55
-60
-67
-74
-85
-96
-108
-124
-139
-155
-172
-189
-208
-226
-245
-265
-284
-304
-321
-339
-357
-372
-388
-402
-415
-427
-437
-448
-456
-463
-470
-474
-477
-479
-480
-480
-478
-476
-474
-470
-466
-462
-457
-452
-447
-441
-436
-431
-426
-420
-416
-411
-407
-403
-399
-396
-393
-391
-389
-387
-384
-383
-382
-381
-381
-380
-379
-379
-379
-379
-379
-379
-379
-379
-379
-379
-379
-379
-379
-379
-379
-379
-379
-379
-379
-379
-377
-377
-378
-377
-376
-376
-376
-376
-376
-376
-376
-376
-375
-375
-375
-375
-374
-374
-375
-375
-375
-375
-375
-376
-375
-375
-376
-376
-376
-376
-376
-376
-376
-375
-375
-376
-375
-375
-374
-374
-373
-374
-373
-373
-373
-372
-372
-372
-371
-371
-370
-370
-369
-369
-369
-369
-369
-368
-368
-368
-368
-367
-367
-366
-366
-366
-366
-366
-366
-366
-366
-366
-367
-366
-366
-366
-367
-367
-367
-366
-366
-366
-366
-367
-367
-367
-366
-366
-366
-366
-366
-365
-365
-365
-363
-363
-363
-363
-362
-362
-361
-361
-361
-361
-360
-360
-360
-360
-360
-359
-359
-359
-359
-358
-358
-358
-357
-357
-357
-356
-356
-356
-355
-355
-355
-355
-355
-354
-354
-354
-354
-354
-354
-353
-353
-353
-353
-353
-352
-351
-351
-351
-351
-350
-350
-349
-348
-348
-348
-347
-346
-346
-345
-344
-343
-343
-343
-341
-341
-340
-339
-338
-338
-337
-336
-335
-335
-333
-333
-332
-332
-330
-329
-329
-328
-326
-325
-325
-324
-323
-323
-321
-320
-319
-318
-317
-316
-315
-314
-313
-311
-311
-309
-308
-307
-305
-304
-302
-301
-299
-298
-297
-295
-294
-293
-292
-290
-289
-287
-286
-286
-284
-283
-281
-281
-280
-278
-278
-277
-276
-275
-274
-273
-272
-271
-270
-269
-268
-267
-266
-265
-265
-264
-264
-262
-261
-260
-260
-258
-258
-258
-256
-256
-255
-255
-254
-254
-252
-251
-251
-250
-251
-250
-249
-249
-248
-248
-248
-248
-247
-247
-247
-247
-246
-246
-246
-247
-247
-247
-247
-247
-248
-248
-248
-248
-248
-249
-249
-250
-250
-251
-251
-252
-253
-252
-253
-254
-255
-255
-257
-258
-259
-260
-261
-263
-264
-265
-266
-268
-269
-270
-272
-273
-274
-276
-278
-279
-280
-281
-283
-284
-285
-286
-287
-289
-290
-291
-292
-293
-294
-295
-297
-298
-300
-301
-303
-304
-305
-307
-308
-310
-312
-313
-315
-316
-318
-319
-320
-322
-323
-323
-325
-326
-327
-328
-329
-330
-332
-332
-332
-334
-334
-335
-336
-336
-337
-337
-338
-339
-339
-340
-341
-341
-342
-342
-342
-342
-342
-344
-344
-344
-344
-345
-345
-345
-345
-345
-346
-346
-346
-347
-346
-346
-346
-347
-347
-347
-347
-347
-347
-347
-347
-347
-348
-348
-348
-348
-348
-348
-348
-349
-348
-348
-348
-348
-348
-348
-348
-348
-348
-349
-348
-348
-348
-348
-348
-347
-348
-348
-347
-347
-347
-347
-346
-346
-346
-346
-346
-346
-346
-346
-346
-346
-346
-346
-346
-345
-345
-345
-345
-345
-345
-345
-345
-345
-345
-345
-345
-344
-344
-344
-343
-343
-343
-343
-342
-342
-342
-342
-342
-341
-341
-341
-341
-340
-340
-341
-341
-340
-340
-339
-339
-340
-340
-339
-339
-339
-338
-338
-338
-338
-338
-337
-337
-337
-337
-337
-337
-338
-337
-337
-337
-337
-337
-338
-337
-337
-337
-337
-337
-337
-338
-338
-338
-338
-337
-337
-337
-337
-337
-337
-336
-336
-336
-335
-335
-334
-334
-334
-334
-333
-332
-332
-332
-331
-331
-331
-331
-331
-331
-330
-330
-330
-330
-330
-330
-330
-331
-331
-331
-332
-332
-333
-333
-334
-334
-334
-334
-334
-334
-336
-336
-336
-335
-335
-335
-336
-336
-335
-335
-335
-335
-335
-335
-334
-334
-334
-334
-334
-334
-333
-333
-333
-332
-332
-333
-333
-333
-333
-333
-333
-333
-334
-334
-334
-334
-335
-335
-335
-335
-335
-335
-335
-335
-335
-335
-335
-335
-334
-334
-334
-333
-334
-334
-334
-333
-333
-333
-333
-333
-333
-332
-332
-332
-332
-332
-332
-333
-333
-333
-333
-333
-334
-333
-333
-333
-333
-333
-333
-333
-333
-332
-332
-332
-332
-332
-332
-332
-332
-332
-331
-331
-331
-331
-330
-330
-330
-330
-330
-329
-329
-329
-329
-328
-328
-327
-327
-327
-327
-326
-327
-326
-326
-326
-326
-326
-325
-325
-325
-325
-325
-326
-326
-326
-325
-325
-326
-326
-326
-326
-326
-327
-327
-327
-327
-327
-328
-327
-327
-327
-327
-327
-327
-326
-326
-325
-325
-325
-325
-325
-324
-325
-325
-325
-324
-324
-324
-324
-324
-324
-324
-324
-324
-324
-324
-324
-324
-324
-324
-324
-324
-324
-324
-324
-323
-323
-323
-323
-323
-323
-323
-322
-322
-322
-322
-321
-321
-321
-321
-320
-320
-321
-321
-320
-320
-320
-319
-319
-320
-320
-319
-319
-320
-319
-319
-319
-319
-319
-319
-318
-318
-319
-319
-319
-319
-319
-318
-318
-318
-318
-318
-318
-318
-317
-317
-317
-316
-316
-316
-316
-316
-316
-316
-316
-316
-316
-316
-315
-315
-316
-316
-316
-316
-316
-317
-317
-317
-317
-317
-316
-316
-316
-316
-316
-316
-315
-315
-315
-314
-314
-314
-314
-314
-313
-314
-314
-313
-313
-313
-313
-312
-312
-312
-312
-312
-312
-312
-312
-313
-313
-313
-313
-313
-313
-313
-312
-312
-312
-313
-313
-313
-313
-312
-312
-313
-312
-312
-311
-312
-312
-311
-311
-311
-310
-310
-310
-310
-309
-310
-310
-310
-309
-309
-309
-309
-309
-308
-308
-308
-309
-308
-309
-309
-309
-308
-308
-308
-309
-309
-309
-309
-308
-308
-308
-308
-308
-308
-308
-307
-308
-308
-307
-307
-307
-307
-307
-306
-306
-306
-306
-306
-306
-306
-306
-306
-306
-306
-307
-306
-306
-306
-306
-306
-305
-305
-305
-305
-305
-305
-305
-305
-304
-304
-304
-304
-304
-304
-304
-304
-304
-304
-304
-304
-304
-304
-305
-305
-305
-305
-305
-305
-305
-305
-305
-305
-305
-304
-304
-304
-304
-303
-303
-303
-302
-303
-302
-302
-302
-302
-302
-301
-301
-301
-301
-301
-300
-300
-300
-301
-300
-300
-300
-299
-299
-299
-298
-298
-297
-296
-297
-297
-296
-295
-295
-294
-294
-294
-293
-293
-292
-292
-292
-291
-291
-290
-289
-289
-288
-287
-287
-287
-286
-286
-285
-284
-284
-283
-283
-282
-282
-280
-280
-280
-280
-279
-279
-279
-279
-278
-278
-278
-278
-278
-278
-278
-279
-279
-279
-279
-278
-278
-278
-278
-278
-279
-278
-279
-279
-279
-279
-280
-280
-280
-281
-282
-281
-281
-282
-283
-283
-284
-284
-284
-284
-284
-285
-285
-285
-286
-286
-286
-287
-288
-287
-288
-289
-289
-290
-290
-291
-291
-292
-293
-293
-294
-294
-294
-295
-296
-296
-296
-297
-297
-296
-296
-297
-297
-297
-297
-297
-297
-297
-297
-297
-297
-297
-297
-297
-297
-297
-297
-298
-298
-297
-297
-298
-298
-298
-297
-297
-297
-297
-297
-296
-296
-296
-296
-295
-294
-294
-293
-294
-293
-292
-291
-290
-289
-288
-286
-286
-283
-280
-278
-275
-271
-266
-262
-257
-250
-243
-235
-226
-217
-207
-196
-183
-171
-158
-145
-131
-117
-103
-89
-75
-61
-48
-35
-22
-11
1
11
20
28
34
39
41
43
43
42
39
34
28
20
10
0
-12
-26
-40
-56
-72
-89
-106
-124
-143
-162
-180
-198
-216
-233
-250
-266
-280
-294
-307
-318
-328
-337
-344
-352
-357
-360
-363
-365
-365
-364
-362
-360
-357
-354
-348
-344
-339
-334
-328
-322
-318
-312
-308
-303
-299
-294
-291
-288
-285
-282
-280
-277
-275
-273
-272
-272
-270
-270
-270
-270
-269
-268
-268
-268
-268
-268
-268
-268
-268
-268
-267
-267
-267
-267
-266
-266
-266
-265
-264
-264
-264
-263
-263
-263
-263
-263
-261
-261
-261
-261
-261
-260
-260
-260
-260
-259
-258
-258
-257
-257
-257
-257
-257
-257
-256
-256
-255
-255
-255
-254
-254
-253
-254
-253
-253
-253
-253
-253
-252
-252
-253
-253
-252
-252
-251
-251
-251
-251
-250
-250
-250
-250
-250
-250
-250
-248
-248
-248
-248
-247
-247
-246
-246
-246
-246
-245
-245
-245
-245
-244
-243
-243
-243
-243
-243
-243
-242
-242
-242
-243
-242
-242
-242
-242
-242
-241
-241
-242
-242
-242
-240
-240
-240
-240
-239
-239
-239
-238
-238
-237
-237
-236
-236
-235
-235
-235
-234
-233
-233
-232
-232
-232
-232
-232
-232
-231
-231
-231
-231
-231
-230
-230
-230
-229
-229
-228
-228
-228
-228
-227
-227
-226
-225
-225
-224
-224
-224
-223
-223
-222
-222
-222
-221
-221
-220
-219
-219
-219
-219
-217
-217
-216
-216
-215
-214
-214
-213
-212
-212
-211
-210
-209
-208
-208
-207
-206
-204
-204
-203
-202
-201
-200
-199
-199
-198
-198
-197
-195
-195
-194
-194
-192
-191
-191
-190
-189
-188
-187
-186
-185
-184
-182
-182
-180
-179
-178
-177
-175
-174
-172
-171
-170
-169
-168
-167
-166
-165
-163
-162
-160
-159
-158
-158
-157
-155
-155
-154
-152
-151
-150
-149
-148
-147
-146
-145
-144
-144
-143
-142
-141
-140
-139
-138
-137
-137
-136
-135
-135
-134
-134
-134
-133
-133
-133
-132
-131
-131
-130
-130
-128
-128
-128
-127
-127
-126
-125
-125
-124
-124
-123
-123
-122
-122
-122
-121
-121
-121
-120
-121
-121
-121
-121
-121
-122
-122
-122
-122
-123
-123
-123
-124
-125
-125
-126
-126
-127
-129
-129
-130
-131
-131
-132
-133
-134
-135
-136
-137
-138
-139
-141
-142
-143
-144
-145
-146
-149
-150
-151
-153
-154
-155
-156
-158
-159
-160
-162
-163
-165
-166
-167
-169
-170
-172
-173
-175
-176
-177
-179
-181
-183
-183
-185
-187
-188
-190
-191
-191
-193
-194
-195
-197
-198
-198
-199
-200
-202
-202
-203
-204
-204
-206
-207
-207
-208
-209
-209
-210
-211
-212
-212
-213
-214
-215
-215
-216
-216
-217
-217
-218
-218
-218
-219
-219
-220
-219
-219
-220
-220
-219
-220
-220
-219
-220
-220
-219
-220
-220
-219
-220
-220
-220
-220
-220
-220
-220
-220
-221
-221
-221
-221
-221
-222
-222
-222
-222
-223
-223
-223
-223
-223
-223
-223
-223
-223
-223
-224
-224
-224
-224
-224
-223
-223
-224
-224
-224
-224
-224
-224
-224
-224
-224
-224
-224
-225
-224
-224
-225
-225
-223
-223
-223
-223
-223
-224
-224
-224
-224
-223
-223
-224
-224
-224
-223
-223
-223
-223
-223
-223
-223
-224
-224
-223
-223
-224
-224
-223
-223
-223
-223
-223
-223
-222
-222
-222
-222
-222
-223
-223
-223
-222
-222
-221
-221
-221
-222
-221
-221
-221
-221
-220
-220
-220
-220
-220
-220
-220
-220
-220
-220
-220
-220
-220
-220
-221
-221
-221
-221
-222
-222
-223
-223
-223
-223
-223
-224
-224
-224
-225
-224
-224
-224
-224
-224
-224
-224
-224
-224
-224
-224
-223
-223
-223
-222
-222
-222
-222
-222
-221
-222
-222
-221
-221
-220
-221
-222
-222
-222
-222
-222
-222
-222
-223
-223
-223
-224
-224
-224
-224
-224
-223
-224
-224
-224
-224
-223
-223
-223
-224
-224
-224
-224
-224
-225
-225
-225
-225
-224
-225
-225
-226
-226
-226
-226
-227
-226
-226
-226
-227
-226
-226
-225
-225
-225
-225
-224
-224
-225
-224
-224
-223
-223
-223
-222
-222
-222
-222
-222
-222
-222
-222
-223
-223
-223
-223
-223
-223
-224
-224
-225
-225
-225
-224
-225
-225
-225
-226
-225
-226
-226
-226
-226
-226
-225
-225
-225
-225
-225
-224
-224
-225
-224
-224
-224
-224
-223
-223
-223
-223
-223
-223
-222
-222
-222
-222
-222
-222
-222
-222
-222
-222
-222
-223
-222
-222
-222
-222
-222
-222
-222
-223
-223
-223
-222
-223
-223
-222
-222
-222
-222
-223
-223
-223
-222
-222
-222
-222
-221
-221
-221
-221
-221
-221
-221
-221
-221
-221
-221
-221
-221
-221
-221
-222
-222
-222
-222
-222
-223
-223
-223
-222
-222
-222
-222
-222
-222
-222
-222
-222
-221
-221
-221
-221
-220
-220
-220
-220
-219
-220
-220
-220
-220
-220
-220
-220
-220
-220
-220
-221
-221
-221
-221
-221
-221
-221
-221
-221
-221
-221
-221
-221
-221
-221
-221
-220
-220
-220
-220
-220
-220
-220
-220
-219
-219
-219
-219
-219
-220
-220
-219
-219
-220
-220
-220
-220
-221
-221
-221
-221
-221
-221
-221
-221
-221
-221
-221
-220
-219
-219
-219
-219
-219
-219
-219
-219
-218
-218
-218
-217
-217
-217
-217
-217
-217
-218
-217
-217
-217
-217
-217
-217
-217
-217
-217
-217
-216
-216
-217
-216
-216
-216
-216
-215
-215
-216
-216
-217
-217
-217
-217
-217
-218
-218
-218
-219
-218
-218
-219
-220
-220
-221
-220
-220
-220
-220
-220
-220
-220
-220
-219
-220
-220
-219
-219
-219
-219
-218
-219
-218
-218
-218
-218
-218
-218
-218
-218
-218
-218
-217
-218
-218
-217
-217
-217
-217
-217
-216
-216
-216
-216
-216
-216
-216
-215
-215
-215
-215
-215
-215
-215
-216
-215
-215
-215
-215
-215
-215
-215
-215
-215
-215
-215
-215
-214
-214
-214
-214
-214
-214
-213
-213
-213
-213
-213
-213
-213
-213
-213
-212
-212
-213
-213
-213
-213
-213
-213
-213
-213
-213
-213
-212
-212
-213
-213
-213
-211
-211
-211
-211
-212
-212
-211
-211
-211
-211
-211
-211
-211
-210
-210
-210
-211
-211
-210
-210
-211
-211
-210
-210
-210
-210
-210
-210
-209
-209
-209
-209
-209
-208
-208
-208
-208
-208
-208
-207
-207
-207
-207
-207
-207
-207
-207
-206
-207
-207
-206
-206
-206
-206
-205
-205
-205
-204
-204
-204
-204
-202
-202
-202
-201
-200
-200
-199
-199
-198
-198
-197
-197
-196
-196
-195
-194
-194
-194
-193
-193
-193
-192
-192
-192
-192
-191
-190
-190
-190
-189
-189
-188
-187
-187
-186
-186
-185
-185
-184
-184
-183
-183
-182
-183
-182
-182
-181
-181
-181
-181
-181
-181
-180
-181
-181
-181
-182
-182
-182
-182
-182
-182
-182
-183
-183
-183
-183
-183
-183
-183
-183
-183
-183
-183
-184
-184
-184
-185
-185
-185
-185
-185
-186
-187
-187
-188
-188
-190
-190
-191
-192
-192
-193
-194
-195
-195
-195
-197
-197
-197
-198
-199
-199
-199
-199
-199
-199
-199
-200
-200
-200
-199
-199
-199
-199
-198
-198
-198
-198
-198
-198
-198
-198
-198
-197
-197
-197
-197
-197
-197
-197
-197
-197
-197
-197
-197
-197
-196
-196
-196
-196
-196
-196
-195
-195
-195
-195
-194
-194
-193
-193
-192
-191
-190
-188
-186
-183
-181
-177
-173
-168
-162
-157
-151
-143
-134
-126
-116
-106
-95
-83
-71
-58
-46
-33
-19
-6
7
20
34
46
59
71
82
92
101
109
116
121
125
127
127
126
123
119
114
107
98
88
76
63
50
35
19
2
-15
-33
-50
-68
-85
-104
-121
-138
-154
-170
-184
-198
-211
-223
-232
-242
-251
-257
-262
-267
-269
-271
-271
-271
-269
-266
-263
-260
-255
-251
-245
-240
-234
-229
-224
-218
-213
-208
-204
-199
-196
-192
-188
-186
-183
-181
-179
-177
-176
-175
-174
-173
-173
-171
-171
-171
-171
-170
-170
-170
-171
-171
-171
-170
-170
-170
-170
-170
-170
-170
-169
-169
-169
-169
-169
-170
-170
-170
-169
-169
-169
-169
-169
-169
-169
-169
-169
-169
-169
-168
-168
-168
-168
-168
-168
-168
-168
-168
-167
-167
-167
-167
-167
-167
-167
-166
-166
-166
-166
-165
-165
-165
-165
-165
-164
-164
-164
-163
-163
-163
-163
-162
-162
-161
-162
-162
-161
-161
-161
-161
-161
-160
-160
-160
-160
-160
-160
-160
-159
-159
-158
-158
-158
-158
-158
-158
-158
-157
-157
-156
-157
-156
-156
-155
-156
-155
-155
-154
-154
-153
-153
-152
-153
-153
-151
-151
-151
-151
-150
-150
-150
-150
-150
-149
-149
-148
-148
-148
-148
-148
-146
-146
-146
-146
-145
-145
-145
-145
-145
-145
-144
-145
-145
-144
-145
-145
-145
-145
-145
-144
-144
-144
-144
-144
-144
-143
-143
-142
-142
-141
-141
-140
-139
-138
-138
-137
-136
-135
-135
-134
-133
-133
-132
-131
-131
-130
-130
-128
-128
-128
-128
-127
-126
-126
-125
-125
-125
-124
-124
-123
-123
-122
-122
-121
-120
-120
-119
-118
-118
-116
-116
-115
-114
-114
-112
-111
-110
-109
-108
-107
-106
-104
-103
-103
-102
-100
-99
-98
-97
-96
-95
-94
-93
-92
-91
-90
-89
-88
-87
-85
-85
-84
-82
-81
-80
-79
-78
-76
-75
-74
-73
-72
-70
-69
-68
-66
-65
-65
-63
-62
-61
-59
-58
-57
-56
-55
-54
-53
-53
-52
-51
-50
-48
-48
-47
-47
-46
-46
-45
-44
-43
-43
-43
-42
-41
-41
-40
-39
-39
-38
-38
-37
-36
-36
-35
-35
-34
-34
-34
-34
-34
-34
-34
-34
-34
-34
-33
-34
-34
-34
-35
-35
-35
-36
-36
-37
-37
-38
-39
-39
-40
-41
-43
-44
-44
-45
-46
-47
-49
-51
-52
-53
-55
-56
-57
-58
-59
-62
-62
-64
-65
-66
-67
-69
-70
-71
-72
-73
-75
-76
-78
-79
-80
-82
-83
-84
-86
-87
-89
-90
-92
-94
-95
-96
-97
-98
-100
-101
-102
-104
-105
-106
-107
-108
-109
-110
-111
-112
-114
-114
-116
-117
-118
-119
-120
-121
-122
-123
-124
-126
-127
-128
-129
-130
-130
-131
-132
-132
-132
-134
-134
-135
-135
-135
-135
-135
-136
-136
-137
-137
-137
-137
-137
-137
-137
-137
-137
-138
-138
-138
-138
-139
-139
-138
-139
-139
-140
-140
-140
-141
-141
-140
-140
-141
-141
-142
-142
-142
-143
-143
-143
-143
-144
-144
-143
-144
-144
-144
-144
-144
-145
-146
-146
-145
-145
-146
-146
-146
-147
-146
-146
-147
-147
-147
-147
-147
-147
-146
-146
-146
-146
-147
-147
-147
-147
-146
-146
-146
-145
-145
-145
-145
-145
-145
-145
-145
-144
-144
-144
-144
-144
-145
-145
-145
-145
-145
-145
-145
-145
-145
-145
-145
-146
-146
-146
-146
-146
-146
-146
-147
-147
-147
-147
-147
-147
-147
-147
-147
-146
-146
-146
-146
-147
-147
-146
-146
-147
-146
-146
-146
-146
-146
-146
-146
-146
-146
-146
-146
-146
-147
-147
-147
-147
-147
-147
-147
-147
-147
-147
-147
-147
-147
-147
-147
-147
-147
-146
-147
-147
-147
-146
-147
-147
-147
-147
-147
-147
-147
-147
-148
-148
-148
-148
-149
-149
-149
-149
-149
-149
-149
-149
-150
-149
-150
-149
-150
-150
-150
-150
-150
-151
-151
-151
-151
-151
-151
-151
-151
-152
-152
-152
-152
-152
-152
-152
-153
-153
-153
-153
-154
-154
-154
-154
-155
-155
-155
-155
-155
-155
-155
-155
-156
-156
-155
-155
-155
-156
-155
-155
-155
-155
-156
-156
-156
-156
-156
-156
-156
-156
-156
-156
-156
-156
-156
-155
-155
-156
-156
-156
-157
-157
-157
-157
-158
-158
-158
-158
-158
-158
-158
-158
-159
-159
-159
-158
-158
-159
-159
-159
-159
-159
-159
-159
-159
-159
-159
-160
-160
-160
-160
-160
-159
-159
-159
-159
-159
-160
-159
-159
-159
-159
-158
-158
-157
-158
-157
-157
-156
-156
-156
-155
-155
-155
-155
-155
-154
-155
-155
-155
-156
-155
-155
-155
-156
-156
-156
-157
-156
-157
-157
-157
-157
-157
-157
-158
-158
-158
-158
-158
-158
-157
-157
-157
-156
-157
-157
-157
-157
-157
-156
-156
-156
-156
-157
-157
-157
-157
-156
-156
-156
-156
-156
-156
-156
-156
-155
-155
-154
-155
-155
-154
-154
-154
-154
-154
-153
-153
-153
-153
-153
-153
-153
-153
-153
-153
-153
-152
-152
-152
-152
-152
-152
-152
-152
-152
-151
-151
-151
-151
-151
-151
-150
-150
-151
-151
-151
-151
-151
-151
-151
-152
-151
-152
-152
-151
-152
-152
-151
-151
-152
-152
-152
-152
-152
-152
-152
-152
-153
-152
-152
-152
-151
-151
-151
-150
-151
-150
-150
-149
-149
-149
-149
-149
-148
-148
-148
-148
-147
-147
-147
-147
-147
-147
-147
-147
-147
-147
-147
-147
-146
-147
-147
-147
-146
-146
-146
-147
-147
-147
-146
-146
-146
-146
-146
-146
-146
-146
-145
-144
-144
-144
-144
-144
-143
-143
-143
-143
-143
-143
-142
-142
-142
-143
-143
-143
-143
-143
-143
-142
-142
-142
-142
-142
-142
-141
-141
-141
-141
-140
-140
-140
-140
-140
-140
-140
-141
-141
-140
-140
-140
-140
-140
-141
-140
-140
-140
-140
-140
-140
-140
-139
-139
-139
-139
-139
-139
-139
-140
-140
-139
-139
-139
-139
-139
-139
-139
-139
-139
-139
-139
-139
-138
-138
-138
-138
-137
-137
-138
-137
-137
-136
-136
-137
-136
-136
-137
-136
-136
-136
-136
-136
-135
-136
-136
-136
-136
-135
-135
-135
-135
-135
-135
-135
-135
-135
-135
-135
-135
-135
-135
-134
-135
-134
-134
-134
-133
-133
-133
-133
-133
-133
-133
-133
-132
-132
-133
-133
-132
-132
-133
-133
-132
-132
-132
-131
-131
-131
-130
-131
-130
-130
-129
-129
-128
-128
-127
-127
-126
-125
-125
-124
-123
-123
-123
-122
-121
-121
-121
-121
-120
-120
-119
-119
-118
-118
-118
-117
-118
-117
-117
-116
-116
-115
-115
-115
-114
-113
-114
-112
-112
-111
-111
-111
-110
-110
-109
-109
-109
-108
-108
-107
-107
-108
-108
-108
-107
-108
-108
-108
-109
-109
-109
-109
-110
-110
-110
-111
-111
-112
-112
-112
-113
-114
-114
-114
-114
-115
-115
-116
-116
-117
-117
-117
-117
-118
-118
-119
-120
-120
-121
-121
-121
-122
-123
-123
-124
-124
-124
-124
-126
-125
-126
-126
-126
-126
-127
-127
-127
-127
-127
-128
-128
-128
-129
-129
-129
-129
-129
-128
-128
-128
-128
-128
-129
-129
-129
-129
-129
-129
-128
-128
-128
-128
-128
-128
-128
-128
-127
-127
-127
-127
-127
-128
-127
-127
-127
-127
-127
-126
-126
-126
-126
-125
-125
-124
-123
-122
-120
-118
-115
-112
-108
-103
-98
-92
-87
-79
-72
-63
-53
-43
-32
-20
-8
5
19
33
46
60
74
88
102
116
128
141
153
164
173
182
188
194
197
198
199
196
194
189
182
174
165
153
140
126
111
94
77
59
41
23
4
-15
-34
-52
-70
-88
-105
-121
-136
-150
-162
-174
-183
-193
-201
-208
-213
-218
-220
-222
-223
-223
-221
-218
-214
-212
-207
-202
-197
-192
-186
-180
-175
-169
-164
-159
-154
-149
-145
-141
-137
-134
-131
-128
-125
-123
-120
-119
-118
-117
-116
-114
-114
-113
-112
-112
-112
-111
-112
-112
-112
-111
-112
-113
-112
-112
-112
-113
-113
-112
-113
-113
-112
-113
-113
-113
-112
-113
-112
-112
-111
-111
-111
-110
-110
-110
-109
-109
-109
-109
-109
-108
-108
-108
-107
-107
-107
-107
-107
-107
-107
-107
-107
-107
-107
-107
-107
-106
-106
-106
-105
-105
-105
-104
-104
-103
-103
-103
-102
-102
-102
-101
-100
-100
-100
-100
-99
-98
-98
-98
-98
-97
-97
-97
-97
-96
-96
-96
-96
-95
-95
-95
-95
-96
-95
-95
-95
-95
-95
-95
-95
-95
-95
-94
-94
-95
-94
-94
-94
-94
-94
-94
-93
-93
-93
-93
-92
-92
-90
-91
-91
-90
-90
-90
-89
-88
-88
-88
-87
-87
-87
-87
-86
-86
-86
-86
-86
-85
-85
-85
-85
-84
-84
-84
-84
-84
-83
-83
-82
-82
-81
-81
-80
-80
-79
-79
-78
-77
-76
-76
-75
-74
-74
-74
-72
-72
-72
-72
-72
-71
-70
-70
-70
-70
-69
-69
-69
-68
-67
-66
-66
-65
-65
-64
-63
-62
-61
-60
-59
-58
-57
-56
-55
-54
-52
-51
-50
-49
-49
-48
-47
-46
-45
-43
-42
-41
-40
-39
-37
-36
-34
-34
-33
-32
-30
-29
-28
-28
-26
-26
-25
-25
-23
-23
-22
-21
-20
-19
-18
-17
-17
-16
-14
-14
-13
-12
-11
-10
-8
-6
-5
-4
-3
-2
-1
1
1
3
4
6
7
8
9
9
10
11
12
12
13
14
14
15
16
16
16
17
18
18
18
19
19
19
19
20
20
20
20
21
21
21
22
22
22
23
23
23
23
23
23
24
24
24
24
23
23
23
23
22
23
23
22
22
21
22
20
20
19
19
17
16
15
15
13
12
11
10
9
7
7
5
4
3
2
0
-1
-1
-3
-4
-5
-6
-8
-9
-10
-12
-12
-14
-16
-17
-18
-19
-20
-22
-24
-25
-27
-28
-29
-30
-32
-33
-34
-35
-36
-38
-40
-41
-42
-43
-43
-45
-46
-46
-48
-48
-49
-50
-51
-52
-52
-54
-55
-56
-57
-59
-59
-61
-62
-63
-64
-66
-66
-67
-69
-70
-70
-71
-71
-72
-73
-73
-73
-74
-73
-73
-74
-74
-74
-74
-74
-75
-75
-75
-75
-75
-76
-76
-76
-76
-77
-78
-78
-78
-79
-79
-79
-80
-80
-80
-80
-80
-80
-81
-81
-81
-81
-81
-82
-82
-82
-82
-82
-81
-82
-82
-82
-82
-82
-82
-82
-81
-81
-81
-81
-82
-82
-82
-82
-81
-81
-81
-81
-81
-81
-80
-80
-80
-80
-80
-80
-79
-79
-80
-80
-80
-79
-79
-79
-79
-79
-79
-80
-79
-80
-79
-80
-80
-80
-81
-81
-80
-80
-81
-81
-81
-81
-81
-80
-80
-81
-80
-80
-79
-80
-80
-79
-80
-80
-79
-80
-80
-79
-79
-79
-79
-79
-79
-79
-79
-79
-79
-79
-79
-78
-78
-78
-78
-79
-78
-78
-78
-78
-78
-78
-78
-78
-78
-78
-77
-77
-77
-77
-77
-77
-78
-78
-78
-78
-78
-79
-79
-79
-80
-80
-80
-80
-81
-81
-82
-82
-83
-83
-83
-82
-83
-83
-83
-83
-83
-83
-83
-83
-83
-84
-84
-84
-84
-84
-84
-84
-84
-84
-84
-85
-84
-84
-84
-84
-84
-84
-84
-84
-84
-85
-85
-85
-85
-85
-85
-85
-85
-85
-86
-85
-85
-85
-85
-86
-86
-86
-86
-86
-86
-87
-87
-87
-87
-87
-87
-87
-87
-87
-87
-87
-87
-87
-86
-87
-87
-87
-87
-88
-88
-87
-87
-88
-88
-88
-89
-89
-89
-90
-90
-90
-90
-90
-90
-90
-90
-90
-89
-90
-90
-90
-90
-89
-89
-90
-90
-90
-89
-89
-88
-88
-88
-88
-88
-89
-89
-88
-88
-88
-88
-88
-88
-88
-88
-88
-88
-89
-89
-89
-88
-88
-89
-89
-89
-89
-89
-89
-89
-90
-90
-90
-90
-90
-90
-90
-90
-90
-90
-90
-90
-90
-89
-89
-89
-89
-88
-89
-89
-89
-89
-89
-89
-89
-88
-88
-88
-88
-88
-88
-88
-88
-88
-89
-88
-88
-88
-88
-88
-88
-88
-88
-87
-87
-87
-87
-86
-86
-86
-86
-86
-87
-87
-86
-86
-86
-86
-86
-86
-85
-85
-85
-85
-85
-85
-86
-86
-86
-86
-86
-86
-86
-86
-86
-86
-85
-86
-86
-86
-86
-86
-86
-86
-85
-85
-84
-84
-84
-84
-84
-83
-83
-83
-82
-82
-83
-82
-82
-81
-81
-81
-81
-81
-81
-81
-81
-81
-81
-81
-81
-82
-83
-83
-83
-82
-83
-83
-83
-83
-83
-83
-83
-83
-83
-83
-83
-84
-84
-84
-83
-83
-84
-84
-84
-84
-84
-83
-83
-83
-83
-84
-84
-84
-84
-84
-84
-84
-83
-83
-83
-84
-83
-83
-82
-82
-82
-82
-82
-82
-82
-81
-81
-80
-80
-80
-80
-80
-80
-79
-79
-80
-79
-79
-79
-79
-78
-78
-78
-78
-77
-77
-77
-77
-77
-77
-77
-77
-77
-77
-76
-76
-76
-76
-76
-76
-76
-76
-76
-75
-75
-76
-76
-76
-76
-76
-77
-77
-77
-77
-77
-78
-78
-78
-78
-77
-77
-77
-77
-78
-77
-77
-76
-76
-76
-75
-75
-75
-75
-74
-75
-75
-75
-74
-74
-74
-74
-73
-73
-73
-74
-74
-73
-73
-73
-73
-73
-73
-74
-74
-73
-73
-74
-74
-74
-74
-74
-74
-74
-74
-74
-74
-74
-75
-74
-74
-75
-75
-74
-74
-74
-74
-74
-74
-74
-74
-73
-73
-73
-74
-74
-74
-74
-73
-74
-73
-73
-72
-73
-72
-72
-72
-71
-71
-71
-71
-70
-69
-69
-68
-68
-67
-67
-66
-66
-65
-65
-65
-64
-63
-63
-63
-62
-61
-61
-61
-60
-60
-60
-59
-59
-59
-59
-59
-58
-58
-58
-57
-57
-57
-56
-56
-56
-56
-55
-55
-54
-54
-54
-54
-53
-53
-52
-52
-52
-51
-51
-51
-51
-51
-51
-51
-51
-51
-51
-51
-51
-50
-51
-51
-51
-51
-52
-52
-53
-53
-53
-53
-54
-54
-55
-55
-55
-57
-57
-58
-59
-59
-59
-61
-61
-62
-62
-62
-63
-64
-65
-65
-66
-66
-67
-67
-67
-68
-69
-68
-70
-70
-70
-70
-71
-71
-71
-71
-71
-71
-72
-72
-72
-73
-73
-73
-73
-73
-73
-73
-74
-74
-74
-73
-74
-74
-74
-74
-74
-74
-74
-74
-74
-74
-74
-74
-75
-74
-74
-74
-75
-74
-74
-75
-74
-74
-74
-74
-74
-74
-74
-74
-74
-74
-73
-73
-72
-71
-70
-68
-67
-65
-63
-59
-55
-51
-47
-42
-35
-28
-19
-10
-1
9
20
32
45
58
71
85
99
113
127
141
156
169
183
195
207
217
227
236
243
248
252
254
255
255
252
248
243
236
228
216
205
192
177
162
145
128
110
93
74
56
37
18
0
-17
-34
-50
-65
-79
-92
-104
-115
-125
-133
-141
-147
-152
-155
-158
-159
-159
-158
-156
-154
-150
-146
-142
-137
-132
-126
-121
-115
-110
-105
-99
-95
-90
-86
-81
-78
-74
-71
-69
-67
-65
-63
-62
-61
-59
-59
-58
-58
-58
-59
-59
-58
-58
-59
-59
-60
-60
-60
-60
-60
-60
-60
-60
-60
-61
-60
-60
-60
-59
-60
-59
-59
-59
-59
-58
-59
-58
-58
-58
-58
-57
-58
-58
-57
-57
-57
-57
-57
-57
-57
-57
-56
-56
-57
-57
-57
-57
-56
-56
-56
-56
-56
-56
-56
-55
-55
-55
-54
-54
-54
-54
-54
-54
-52
-52
-53
-52
-51
-50
-51
-51
-50
-50
-50
-49
-49
-49
-49
-48
-47
-47
-47
-47
-47
-47
-47
-48
-47
-48
-48
-48
-48
-49
-49
-49
-49
-49
-50
-50
-50
-50
-49
-48
-48
-48
-47
-47
-46
-46
-46
-45
-44
-44
-43
-43
-43
-43
-43
-43
-43
-41
-42
-42
-42
-42
-42
-42
-42
-42
-42
-42
-42
-42
-41
-41
-40
-41
-41
-40
-40
-39
-39
-38
-38
-38
-38
-37
-37
-37
-37
-37
-37
-37
-37
-37
-37
-37
-37
-37
-35
-35
-35
-34
-34
-34
-33
-32
-32
-30
-30
-29
-29
-29
-27
-27
-27
-26
-25
-25
-25
-23
-22
-22
-21
-21
-20
-20
-19
-18
-17
-17
-16
-15
-15
-14
-13
-12
-11
-10
-9
-8
-7
-6
-5
-4
-3
-2
0
1
2
3
4
5
6
7
9
10
10
12
13
14
14
16
17
18
19
20
21
22
23
24
26
26
27
28
29
30
31
33
34
34
36
37
37
37
38
40
41
42
43
43
44
45
45
47
48
48
49
50
51
52
53
53
54
54
54
55
56
57
56
57
57
57
58
58
59
58
58
59
58
58
58
58
58
58
58
59
59
58
58
58
58
58
58
57
57
57
56
56
55
55
55
54
53
52
51
50
50
49
48
47
44
43
42
41
39
38
37
36
35
33
32
30
29
28
26
25
23
22
20
19
18
17
15
14
13
11
9
8
7
5
4
3
2
0
-1
-3
-4
-5
-6
-8
-9
-11
-13
-14
-15
-15
-17
-18
-19
-20
-22
-22
-23
-25
-25
-27
-28
-28
-30
-30
-32
-32
-34
-34
-36
-36
-37
-38
-38
-39
-39
-41
-41
-41
-42
-43
-44
-44
-44
-45
-45
-45
-46
-46
-46
-46
-47
-47
-48
-48
-48
-48
-48
-48
-48
-48
-48
-48
-49
-49
-49
-49
-49
-49
-49
-49
-49
-49
-49
-48
-48
-48
-48
-48
-48
-48
-48
-48
-48
-48
-48
-48
-48
-48
-49
-49
-49
-48
-48
-50
-50
-50
-50
-50
-49
-49
-49
-49
-49
-49
-49
-49
-49
-49
-49
-49
-50
-49
-49
-49
-49
-49
-49
-49
-49
-48
-48
-48
-48
-49
-49
-49
-48
-48
-49
-49
-49
-49
-49
-50
-50
-50
-51
-51
-51
-51
-51
-51
-52
-51
-51
-51
-51
-50
-50
-50
-50
-49
-49
-49
-49
-48
-48
-48
-48
-48
-48
-48
-48
-48
-48
-48
-49
-49
-49
-49
-50
-50
-50
-50
-51
-51
-51
-51
-51
-50
-51
-51
-52
-52
-52
-52
-53
-53
-53
-52
-53
-53
-53
-53
-53
-54
-53
-53
-53
-54
-53
-53
-53
-53
-53
-53
-53
-53
-53
-52
-53
-53
-53
-53
-53
-53
-53
-53
-53
-53
-52
-52
-52
-52
-53
-53
-53
-53
-53
-53
-54
-53
-53
-53
-53
-54
-54
-55
-55
-54
-54
-55
-56
-56
-56
-56
-56
-56
-56
-57
-57
-57
-58
-58
-57
-58
-59
-59
-59
-60
-60
-60
-60
-60
-60
-60
-60
-61
-61
-61
-60
-60
-60
-61
-61
-61
-61
-61
-60
-60
-60
-60
-60
-60
-60
-60
-60
-60
-60
-60
-60
-60
-60
-60
-60
-60
-61
-61
-61
-61
-61
-61
-61
-61
-61
-61
-61
-61
-62
-62
-62
-62
-62
-62
-62
-62
-63
-63
-63
-62
-62
-63
-63
-63
-63
-63
-63
-62
-63
-63
-63
-63
-63
-62
-62
-62
-63
-62
-62
-62
-61
-61
-61
-61
-61
-62
-61
-61
-61
-61
-61
-61
-61
-61
-62
-62
-62
-62
-61
-62
-63
-63
-63
-63
-63
-63
-63
-63
-64
-64
-64
-64
-64
-64
-63
-63
-64
-64
-64
-64
-64
-64
-64
-64
-64
-64
-64
-64
-64
-64
-64
-65
-65
-65
-65
-65
-65
-65
-66
-65
-65
-65
-65
-65
-65
-65
-65
-65
-65
-65
-65
-65
-65
-65
-65
-65
-65
-65
-65
-65
-65
-65
-65
-66
-65
-65
-66
-66
-66
-66
-66
-67
-67
-67
-67
-68
-68
-67
-68
-68
-69
-68
-69
-69
-69
-69
-69
-69
-69
-69
-69
-69
-68
-68
-68
-68
-68
-68
-67
-67
-67
-67
-66
-66
-66
-66
-65
-65
-66
-66
-66
-66
-65
-66
-66
-66
-66
-66
-66
-66
-66
-67
-68
-68
-68
-68
-68
-68
-68
-68
-69
-69
-68
-68
-69
-68
-68
-68
-68
-69
-69
-68
-68
-68
-68
-68
-69
-69
-69
-68
-68
-68
-68
-68
-68
-68
-68
-68
-68
-68
-69
-69
-69
-69
-69
-69
-69
-68
-69
-69
-69
-69
-69
-69
-69
-69
-69
-69
-68
-69
-69
-69
-68
-68
-68
-69
-68
-68
-69
-68
-68
-68
-68
-68
-69
-69
-69
-69
-68
-68
-68
-68
-68
-68
-69
-69
-69
-69
-68
-68
-68
-68
-68
-68
-68
-68
-68
-68
-68
-68
-68
-68
-68
-68
-68
-68
-68
-68
-68
-67
-67
-68
-68
-68
-68
-68
-68
-68
-68
-69
-69
-68
-68
-68
-69
-69
-68
-68
-68
-68
-68
-69
-68
-68
-69
-69
-68
-68
-69
-69
-68
-69
-69
-68
-68
-68
-67
-68
-67
-66
-66
-66
-66
-65
-66
-66
-64
-64
-64
-64
-64
-64
-64
-64
-63
-63
-63
-63
-63
-63
-63
-62
-62
-61
-61
-60
-60
-60
-60
-58
-58
-58
-58
-57
-56
-56
-56
-55
-55
-54
-54
-53
-53
-53
-52
-52
-51
-51
-50
-50
-49
-49
-49
-49
-48
-48
-48
-47
-48
-47
-47
-47
-47
-47
-47
-48
-48
-48
-48
-47
-48
-48
-48
-48
-49
-49
-48
-49
-49
-49
-49
-50
-50
-50
-51
-51
-51
-52
-52
-52
-53
-53
-53
-53
-54
-54
-55
-55
-56
-57
-57
-58
-58
-59
-59
-60
-60
-61
-61
-62
-62
-63
-63
-65
-65
-65
-66
-66
-67
-67
-67
-68
-68
-68
-68
-69
-69
-69
-69
-69
-69
-69
-69
-70
-70
-70
-70
-69
-70
-70
-70
-70
-70
-70
-70
-70
-70
-70
-70
-71
-71
-71
-71
-71
-70
-71
-70
-71
-71
-71
-71
-71
-71
-71
-70
-70
-70
-69
-69
-68
-67
-65
-63
-62
-59
-56
-54
-49
-44
-39
-33
-27
-19
-11
-2
7
17
28
40
52
64
77
90
104
116
129
142
156
170
181
193
205
215
223
231
238
244
247
249
250
249
246
241
236
228
220
209
197
183
168
153
136
119
102
85
67
48
30
12
-6
-23
-39
-55
-69
-82
-95
-106
-115
-125
-133
-139
-144
-149
-151
-152
-153
-153
-151
-148
-145
-141
-137
-131
-126
-121
-116
-110
-104
-99
-94
-89
-84
-81
-76
-74
-70
-67
-64
-62
-61
-59
-58
-57
-56
-56
-55
-56
-55
-55
-55
-56
-55
-55
-55
-55
-55
-55
-54
-55
-55
-54
-55
-54
-54
-54
-54
-54
-53
-53
-53
-53
-53
-54
-54
-54
-53
-52
-52
-53
-53
-52
-53
-53
-53
-53
-52
-52
-52
-51
-51
-51
-51
-50
-51
-49
-49
-49
-49
-49
-47
-47
-47
-47
-46
-46
-46
-46
-46
-46
-46
-47
-47
-47
-47
-47
-47
-47
-47
-48
-48
-48
-48
-47
-46
-46
-46
-46
-46
-45
-45
-45
-45
-45
-45
-43
-43
-43
-44
-44
-43
-43
-43
-43
-43
-43
-43
-43
-43
-43
-43
-43
-43
-42
-42
-42
-42
-41
-40
-40
-40
-40
-39
-40
-40
-40
-39
-39
-39
-39
-39
-39
-39
-38
-38
-38
-38
-38
-38
-37
-37
-37
-37
-37
-37
-37
-37
-37
-37
-36
-36
-36
-35
-34
-34
-34
-34
-33
-32
-31
-31
-31
-30
-30
-29
-28
-28
-27
-27
-26
-26
-26
-25
-25
-24
-24
-24
-23
-23
-22
-23
-23
-22
-21
-20
-20
-19
-18
-18
-17
-16
-16
-15
-14
-13
-13
-13
-11
-11
-9
-9
-8
-8
-7
-6
-6
-5
-4
-4
-3
-2
-1
-1
0
1
2
3
5
5
6
8
8
10
11
12
13
15
16
17
17
19
20
21
22
23
24
25
26
26
28
29
30
30
31
32
33
35
36
36
37
38
40
40
41
42
42
43
44
45
46
46
47
48
48
49
50
50
51
51
52
52
53
53
54
54
55
55
56
56
57
57
57
58
58
58
58
59
59
59
59
59
60
60
60
60
60
61
60
60
60
60
60
59
59
58
58
57
57
57
56
55
54
54
53
53
52
51
50
49
49
47
47
46
45
44
42
41
40
39
37
36
35
34
33
31
30
28
26
25
24
22
21
19
18
16
14
13
12
10
8
7
5
4
2
1
-1
-2
-3
-4
-5
-7
-7
-9
-10
-11
-12
-13
-14
-15
-17
-17
-19
-19
-21
-21
-23
-23
-25
-26
-27
-28
-28
-30
-31
-32
-33
-34
-35
-36
-36
-37
-38
-38
-39
-39
-40
-41
-42
-42
-42
-43
-43
-44
-44
-44
-44
-46
-46
-46
-46
-46
-48
-48
-48
-48
-49
-49
-49
-49
-49
-49
-50
-50
-50
-50
-50
-50
-50
-51
-51
-51
-51
-52
-52
-52
-52
-52
-52
-52
-53
-54
-54
-54
-54
-54
-55
-55
-55
-56
-55
-56
-56
-56
-56
-56
-56
-57
-57
-56
-57
-57
-57
-57
-56
-56
-56
-56
-56
-55
-55
-55
-56
-55
-55
-55
-55
-54
-55
-55
-55
-56
-56
-55
-55
-55
-56
-56
-55
-55
-56
-56
-55
-56
-57
-57
-57
-57
-56
-56
-57
-57
-57
-57
-57
-57
-57
-57
-57
-57
-58
-57
-57
-58
-57
-57
-57
-58
-58
-58
-58
-58
-58
-59
-59
-59
-60
-60
-60
-60
-60
-60
-61
-61
-61
-61
-61
-61
-62
-61
-61
-62
-62
-62
-62
-62
-62
-62
-62
-62
-62
-62
-62
-62
-63
-63
-63
-63
-63
-63
-64
-64
-64
-64
-64
-64
-65
-65
-65
-65
-65
-65
-65
-65
-65
-65
-65
-65
-65
-65
-65
-65
-66
-66
-66
-67
-67
-67
-66
-67
-67
-67
-67
-68
-68
-68
-68
-69
-70
-70
-69
-70
-70
-70
-70
-71
-71
-71
-71
-71
-71
-73
-73
-73
-73
-74
-74
-74
-74
-75
-75
-75
-75
-75
-76
-76
-76
-76
-76
-76
-77
-77
-77
-77
-77
-76
-77
-77
-77
-77
-77
-77
-77
-77
-78
-78
-78
-78
-78
-78
-78
-78
-78
-79
-79
-80
-80
-80
-80
-80
-80
-80
-81
-81
-81
-81
-81
-80
-80
-80
-80
-80
-80
-80
-80
-80
-80
-79
-80
-80
-80
-80
-79
-80
-80
-81
-80
-81
-81
-81
-82
-82
-82
-82
-82
-82
-82
-83
-83
-83
-83
-83
-83
-83
-83
-83
-83
-83
-83
-83
-83
-83
-83
-83
-83
-83
-82
-82
-82
-82
-82
-82
-82
-82
-83
-83
-82
-82
-82
-82
-83
-82
-82
-82
-83
-83
-83
-83
-83
-83
-83
-83
-84
-84
-85
-85
-85
-85
-85
-85
-85
-85
-85
-85
-86
-86
-86
-86
-85
-85
-85
-85
-85
-85
-85
-85
-85
-85
-85
-85
-85
-84
-84
-84
-85
-84
-84
-84
-84
-84
-84
-84
-84
-84
-84
-84
-84
-85
-85
-85
-84
-85
-85
-85
-85
-86
-86
-87
-87
-87
-87
-87
-87
-87
-87
-87
-87
-87
-87
-87
-87
-87
-87
-88
-88
-88
-88
-88
-88
-88
-88
-88
-88
-88
-88
-89
-89
-89
-89
-89
-89
-89
-89
-88
-88
-89
-89
-89
-90
-89
-89
-89
-89
-89
-89
-89
-90
-90
-90
-90
-90
-91
-90
-90
-90
-91
-91
-91
-90
-90
-90
-90
-90
-90
-90
-90
-90
-90
-90
-89
-90
-90
-90
-90
-90
-89
-89
-89
-89
-89
-90
-90
-90
-90
-90
-90
-90
-91
-91
-90
-91
-91
-91
-91
-92
-92
-92
-92
-92
-92
-92
-92
-92
-92
-92
-93
-93
-93
-92
-92
-92
-92
-92
-93
-93
-93
-92
-92
-92
-92
-92
-92
-92
-92
-93
-93
-93
-93
-93
-93
-93
-93
-94
-93
-93
-94
-94
-94
-94
-94
-94
-94
-94
-94
-94
-94
-94
-94
-94
-94
-94
-94
-95
-95
-95
-95
-94
-94
-94
-94
-94
-93
-94
-94
-93
-94
-94
-94
-95
-95
-95
-95
-94
-95
-96
-96
-96
-96
-97
-97
-98
-98
-97
-98
-98
-98
-99
-98
-97
-97
-98
-98
-98
-97
-97
-97
-97
-96
-97
-96
-96
-96
-95
-95
-95
-95
-94
-94
-94
-94
-94
-93
-92
-92
-92
-91
-91
-90
-91
-91
-90
-89
-89
-88
-88
-88
-87
-86
-87
-85
-86
-84
-84
-84
-83
-83
-82
-82
-82
-82
-82
-82
-82
-82
-83
-83
-83
-83
-83
-84
-84
-84
-84
-85
-85
-86
-86
-86
-86
-87
-88
-88
-88
-88
-89
-89
-90
-90
-91
-91
-91
-92
-93
-93
-94
-94
-95
-96
-97
-98
-99
-99
-99
-101
-101
-102
-103
-103
-104
-106
-106
-107
-108
-109
-109
-109
-111
-111
-111
-112
-113
-113
-114
-114
-114
-114
-114
-115
-114
-115
-115
-116
-116
-116
-116
-117
-117
-117
-118
-118
-118
-118
-118
-119
-119
-120
-120
-120
-119
-120
-120
-120
-120
-120
-120
-120
-120
-121
-120
-120
-120
-120
-120
-120
-119
-120
-120
-120
-119
-119
-119
-119
-119
-118
-118
-117
-117
-115
-114
-112
-109
-106
-102
-97
-92
-86
-80
-73
-64
-56
-46
-36
-24
-13
0
13
27
41
55
68
83
96
110
123
135
147
158
167
177
183
188
192
194
194
193
190
185
179
171
161
150
137
123
108
91
74
56
38
19
1
-18
-38
-55
-72
-90
-108
-123
-137
-151
-164
-175
-185
-194
-201
-208
-213
-217
-220
-222
-221
-222
-220
-217
-214
-210
-205
-200
-195
-190
-185
-178
-173
-167
-162
-157
-152
-147
-143
-138
-134
-131
-128
-125
-122
-120
-118
-117
-116
-115
-114
-113
-113
-112
-112
-112
-112
-112
-112
-112
-112
-111
-112
-112
-111
-111
-111
-111
-111
-111
-111
-111
-110
-110
-110
-109
-109
-109
-109
-109
-109
-109
-109
-109
-109
-109
-109
-108
-108
-108
-108
-107
-107
-107
-106
-105
-105
-104
-105
-104
-103
-103
-102
-102
-101
-102
-101
-101
-101
-101
-100
-100
-100
-100
-100
-100
-100
-100
-100
-101
-100
-100
-101
-101
-101
-101
-100
-100
-100
-100
-100
-99
-99
-99
-99
-99
-99
-99
-99
-98
-98
-99
-98
-98
-99
-98
-98
-98
-97
-98
-98
-98
-97
-96
-96
-96
-96
-95
-95
-95
-95
-94
-94
-93
-93
-93
-93
-93
-93
-92
-92
-92
-92
-92
-92
-92
-92
-91
-91
-91
-90
-90
-90
-90
-89
-89
-89
-89
-89
-88
-88
-88
-88
-87
-86
-86
-86
-86
-86
-85
-85
-86
-86
-85
-85
-85
-84
-84
-83
-82
-82
-81
-80
-80
-80
-79
-79
-78
-77
-77
-76
-75
-75
-75
-74
-73
-73
-73
-72
-72
-72
-71
-70
-69
-69
-68
-67
-66
-66
-65
-65
-64
-63
-63
-62
-61
-60
-61
-60
-59
-58
-57
-56
-55
-54
-54
-53
-52
-52
-50
-50
-49
-48
-47
-46
-45
-44
-44
-42
-42
-40
-40
-39
-38
-38
-36
-36
-34
-33
-32
-30
-29
-29
-28
-27
-26
-25
-24
-23
-22
-21
-20
-19
-18
-17
-16
-15
-14
-13
-12
-11
-10
-9
-9
-8
-7
-6
-6
-5
-4
-4
-3
-1
-2
0
0
1
1
1
2
2
3
3
3
3
4
4
4
4
4
5
5
5
5
5
5
5
5
5
5
4
5
5
5
5
5
5
5
5
5
4
4
4
3
3
3
2
2
1
0
-1
-2
-3
-4
-5
-6
-7
-9
-10
-12
-13
-15
-16
-17
-18
-20
-22
-23
-25
-25
-26
-28
-29
-31
-32
-33
-35
-36
-37
-39
-41
-41
-43
-44
-45
-46
-48
-49
-50
-51
-53
-54
-56
-57
-59
-61
-62
-63
-64
-65
-67
-69
-70
-71
-72
-73
-75
-76
-78
-79
-79
-81
-82
-82
-84
-84
-86
-86
-86
-88
-89
-90
-90
-91
-92
-93
-94
-94
-95
-96
-97
-97
-98
-99
-100
-100
-101
-101
-101
-102
-102
-102
-103
-103
-104
-103
-104
-103
-104
-104
-104
-104
-104
-104
-104
-104
-104
-104
-105
-105
-105
-105
-106
-106
-106
-106
-107
-107
-107
-107
-108
-108
-109
-109
-109
-109
-109
-110
-110
-109
-109
-109
-109
-110
-110
-110
-110
-110
-110
-110
-110
-110
-110
-110
-110
-110
-111
-111
-111
-111
-111
-111
-110
-111
-111
-111
-112
-112
-112
-111
-111
-112
-112
-111
-112
-112
-112
-112
-112
-112
-112
-112
-112
-112
-112
-112
-112
-112
-111
-112
-112
-112
-112
-112
-111
-111
-111
-111
-111
-111
-111
-110
-110
-111
-111
-111
-111
-110
-110
-110
-111
-111
-110
-110
-110
-111
-111
-111
-111
-111
-110
-110
-111
-111
-111
-111
-111
-110
-110
-111
-111
-111
-110
-110
-111
-111
-111
-111
-111
-112
-113
-113
-113
-113
-113
-114
-113
-113
-114
-114
-114
-114
-115
-115
-115
-116
-116
-116
-116
-116
-116
-116
-116
-116
-116
-117
-117
-116
-116
-116
-117
-117
-117
-117
-118
-118
-118
-118
-118
-119
-119
-120
-120
-120
-119
-120
-120
-120
-120
-121
-120
-120
-120
-120
-120
-120
-120
-121
-120
-120
-120
-119
-119
-119
-119
-120
-119
-119
-119
-118
-118
-118
-117
-118
-118
-118
-118
-117
-117
-118
-118
-118
-118
-118
-118
-118
-118
-117
-118
-118
-118
-118
-119
-119
-119
-119
-119
-119
-119
-119
-119
-119
-119
-119
-119
-119
-120
-120
-120
-120
-120
-120
-120
-120
-120
-120
-120
-120
-121
-120
-120
-120
-120
-120
-120
-120
-120
-120
-120
-119
-119
-119
-120
-119
-119
-119
-119
-118
-118
-118
-118
-118
-118
-118
-118
-118
-118
-118
-118
-118
-118
-117
-118
-118
-118
-118
-118
-118
-117
-117
-117
-117
-117
-117
-117
-117
-117
-117
-117
-117
-117
-117
-117
-117
-117
-117
-117
-116
-116
-116
-116
-116
-116
-116
-116
-116
-115
-115
-115
-115
-115
-115
-115
-115
-114
-114
-114
-114
-115
-114
-114
-114
-114
-114
-114
-114
-114
-114
-114
-114
-114
-114
-114
-114
-114
-114
-114
-114
-114
-114
-114
-114
-115
-115
-115
-115
-114
-114
-114
-114
-115
-115
-115
-114
-114
-114
-114
-113
-113
-113
-112
-112
-113
-112
-112
-112
-112
-112
-112
-112
-111
-111
-111
-111
-111
-111
-111
-111
-112
-112
-112
-111
-112
-112
-112
-112
-112
-112
-112
-111
-111
-111
-111
-111
-110
-110
-111
-111
-111
-111
-110
-111
-111
-110
-111
-111
-111
-111
-111
-111
-111
-111
-111
-111
-111
-111
-112
-112
-112
-112
-113
-113
-113
-112
-112
-112
-112
-112
-113
-112
-112
-112
-112
-111
-111
-111
-111
-110
-110
-110
-110
-110
-110
-110
-110
-110
-110
-110
-110
-110
-111
-111
-111
-112
-112
-112
-112
-112
-112
-112
-112
-112
-112
-112
-112
-112
-111
-111
-112
-111
-111
-112
-112
-112
-112
-112
-112
-112
-112
-112
-112
-113
-112
-112
-112
-113
-113
-113
-113
-113
-113
-112
-113
-113
-113
-112
-112
-112
-113
-113
-112
-112
-112
-112
-112
-112
-113
-113
-113
-113
-113
-112
-112
-113
-113
-113
-113
-113
-113
-113
-113
-114
-114
-114
-114
-114
-114
-113
-114
-114
-114
-113
-113
-114
-113
-113
-112
-113
-112
-112
-111
-112
-111
-111
-111
-110
-110
-110
-110
-110
-110
-109
-109
-109
-109
-109
-109
-108
-107
-107
-107
-107
-107
-107
-107
-106
-106
-106
-106
-106
-106
-106
-106
-106
-106
-106
-105
-105
-105
-104
-104
-105
-104
-104
-104
-104
-102
-102
-102
-102
-101
-100
-100
-100
-100
-99
-99
-99
-99
-99
-98
-97
-97
-97
-97
-97
-96
-96
-97
-97
-96
-96
-96
-96
-96
-96
-97
-96
-97
-97
-97
-97
-98
-97
-98
-98
-99
-99
-100
-100
-101
-101
-101
-101
-102
-102
-102
-101
-102
-103
-102
-103
-104
-104
-104
-105
-105
-105
-106
-107
-107
-108
-109
-109
-110
-111
-111
-112
-112
-113
-113
-114
-114
-115
-115
-115
-115
-116
-115
-115
-116
-116
-116
-117
-118
-118
-118
-118
-118
-120
-120
-120
-120
-120
-120
-120
-121
-121
-121
-121
-120
-120
-120
-120
-120
-120
-119
-119
-118
-118
-118
-117
-117
-117
-117
-116
-116
-115
-115
-115
-114
-114
-113
-112
-110
-109
-106
-104
-101
-97
-92
-87
-81
-75
-68
-60
-51
-40
-29
-18
-5
8
21
36
50
65
79
94
108
122
136
149
161
173
184
194
202
209
214
217
220
220
219
216
211
205
197
188
177
165
150
136
120
104
85
67
49
30
11
-8
-27
-46
-63
-80
-96
-111
-125
-138
-150
-161
-170
-178
-185
-192
-196
-199
-201
-202
-201
-200
-198
-196
-192
-188
-183
-178
-173
-167
-162
-156
-151
-146
-140
-136
-131
-127
-123
-120
-117
-113
-111
-109
-107
-104
-103
-102
-102
-101
-101
-99
-99
-99
-99
-99
-99
-98
-98
-98
-98
-98
-98
-98
-98
-98
-97
-97
-97
-97
-96
-96
-95
-95
-95
-95
-95
-94
-93
-93
-93
-93
-93
-93
-92
-92
-93
-92
-92
-93
-93
-92
-92
-93
-93
-93
-93
-93
-93
-93
-93
-93
-93
-93
-93
-92
-92
-92
-92
-91
-91
-91
-91
-91
-91
-91
-89
-89
-89
-89
-90
-90
-89
-89
-89
-88
-88
-88
-88
-88
-87
-87
-86
-86
-86
-86
-85
-85
-85
-85
-84
-84
-83
-83
-83
-83
-83
-82
-82
-82
-82
-82
-82
-81
-81
-80
-80
-80
-80
-80
-80
-80
-80
-80
-80
-80
-79
-79
-78
-78
-78
-78
-78
-77
-77
-77
-76
-76
-75
-75
-75
-75
-75
-73
-73
-73
-73
-72
-72
-72
-72
-71
-71
-70
-70
-70
-69
-69
-69
-68
-68
-68
-68
-67
-67
-67
-66
-66
-65
-65
-65
-64
-64
-64
-62
-61
-61
-60
-60
-60
-58
-57
-57
-56
-56
-54
-53
-52
-52
-51
-50
-50
-49
-48
-48
-47
-47
-46
-46
-44
-44
-43
-42
-42
-40
-40
-39
-38
-37
-37
-36
-35
-35
-34
-33
-32
-31
-30
-28
-27
-26
-25
-24
-23
-22
-21
-20
-19
-17
-16
-15
-13
-12
-11
-11
-10
-9
-7
-6
-5
-3
-2
-1
0
2
3
4
5
6
7
8
10
11
12
13
14
15
15
16
18
19
20
20
21
22
24
24
25
25
27
27
27
29
29
30
31
32
33
33
35
36
36
37
38
38
39
40
40
40
41
41
42
42
42
42
42
42
42
41
41
41
40
40
39
39
38
38
38
37
36
36
34
33
33
32
31
31
30
29
29
27
26
25
24
24
23
21
20
18
18
17
16
14
13
12
11
9
8
7
6
5
4
2
1
-1
-1
-2
-3
-5
-6
-7
-10
-11
-13
-14
-15
-17
-19
-20
-21
-22
-25
-26
-27
-29
-30
-31
-32
-34
-35
-36
-38
-39
-40
-41
-42
-43
-43
-44
-45
-46
-46
-47
-48
-49
-50
-50
-52
-52
-54
-54
-55
-55
-56
-57
-57
-58
-58
-59
-60
-60
-61
-61
-61
-62
-62
-62
-63
-63
-63
-63
-63
-63
-64
-64
-64
-63
-63
-65
-65
-65
-65
-65
-65
-65
-65
-65
-65
-66
-66
-66
-66
-66
-66
-66
-66
-66
-66
-66
-66
-66
-66
-66
-66
-66
-66
-66
-66
-66
-65
-66
-65
-65
-67
-67
-67
-67
-67
-67
-67
-67
-67
-68
-68
-68
-67
-67
-67
-68
-68
-68
-68
-68
-67
-67
-67
-67
-67
-67
-67
-66
-66
-66
-66
-66
-66
-66
-65
-65
-65
-65
-65
-65
-65
-66
-65
-65
-66
-66
-65
-65
-65
-65
-65
-64
-64
-64
-64
-64
-64
-64
-64
-64
-64
-63
-63
-63
-63
-64
-64
-64
-63
-63
-63
-63
-63
-63
-63
-62
-62
-62
-62
-62
-62
-62
-62
-61
-61
-61
-61
-61
-61
-62
-62
-62
-62
-62
-62
-62
-62
-62
-63
-63
-63
-63
-63
-63
-63
-62
-63
-63
-63
-63
-62
-62
-62
-63
-63
-62
-62
-63
-63
-63
-63
-63
-63
-63
-64
-64
-64
-64
-63
-64
-64
-64
-64
-65
-65
-65
-66
-66
-66
-66
-66
-67
-67
-67
-67
-67
-67
-68
-68
-68
-68
-68
-68
-69
-69
-69
-69
-69
-70
-70
-70
-69
-70
-70
-71
-71
-71
-71
-71
-72
-72
-72
-71
-72
-72
-72
-72
-72
-72
-72
-72
-72
-72
-72
-72
-72
-72
-72
-71
-71
-71
-71
-72
-72
-71
-71
-71
-71
-72
-72
-72
-72
-72
-73
-73
-73
-73
-73
-73
-74
-74
-74
-74
-74
-74
-74
-74
-74
-74
-74
-73
-73
-73
-73
-73
-73
-73
-72
-72
-72
-72
-72
-72
-71
-71
-71
-71
-71
-71
-71
-70
-70
-71
-71
-71
-71
-71
-70
-70
-70
-70
-70
-70
-71
-71
-70
-70
-70
-70
-71
-71
-71
-71
-72
-72
-72
-71
-72
-72
-72
-73
-73
-73
-73
-75
-75
-75
-75
-75
-75
-75
-75
-75
-75
-75
-75
-74
-74
-75
-75
-75
-74
-74
-75
-75
-74
-74
-75
-75
-74
-74
-75
-74
-74
-75
-75
-74
-74
-74
-74
-74
-74
-74
-74
-73
-73
-74
-74
-74
-75
-74
-74
-74
-75
-75
-75
-74
-75
-75
-75
-75
-75
-75
-75
-75
-76
-76
-76
-76
-76
-76
-76
-75
-75
-75
-75
-75
-75
-75
-74
-74
-74
-74
-74
-74
-73
-73
-73
-73
-73
-73
-73
-74
-74
-74
-74
-74
-74
-74
-73
-73
-73
-73
-72
-72
-72
-72
-72
-72
-71
-71
-71
-72
-72
-72
-71
-72
-72
-72
-72
-73
-73
-73
-73
-74
-74
-74
-74
-74
-74
-74
-75
-75
-75
-74
-75
-74
-74
-74
