# Simple Text Format
# Sampling Rate (Hz):= 1200.00
# Resolution:= 12
# Labels:= ECG	 V3
# Age:=	69
# Gender:=	Feminino
211
218
225
231
234
237
237
237
234
230
224
217
208
197
185
171
158
141
125
108
91
72
53
35
16
-3
-22
-40
-57
-74
-89
-104
-118
-131
-142
-152
-161
-168
-175
-181
-184
-187
-188
-189
-188
-186
-183
-180
-175
-171
-166
-161
-155
-150
-143
-139
-132
-127
-122
-117
-113
-108
-104
-101
-97
-93
-92
-89
-87
-85
-84
-83
-82
-81
-80
-80
-80
-80
-81
-80
-80
-81
-81
-81
-81
-81
-81
-81
-81
-81
-81
-81
-81
-80
-80
-79
-79
-79
-80
-80
-79
-79
-79
-79
-79
-79
-79
-79
-80
-80
-80
-81
-81
-81
-81
-81
-81
-80
-80
-80
-80
-80
-80
-80
-80
-80
-80
-79
-79
-79
-78
-78
-78
-79
-78
-78
-78
-78
-78
-79
-79
-79
-80
-79
-80
-80
-80
-81
-81
-81
-82
-81
-81
-81
-81
-81
-81
-81
-81
-80
-80
-80
-78
-78
-78
-78
-77
-77
-76
-76
-76
-76
-76
-76
-76
-76
-76
-76
-75
-75
-75
-75
-75
-75
-75
-74
-74
-74
-74
-74
-74
-74
-74
-74
-74
-74
-73
-73
-73
-73
-73
-73
-73
-73
-72
-72
-72
-71
-70
-70
-70
-70
-69
-69
-68
-68
-68
-68
-68
-67
-66
-66
-66
-65
-65
-65
-65
-65
-65
-65
-65
-65
-65
-65
-64
-65
-64
-64
-63
-63
-62
-62
-61
-62
-61
-61
-59
-59
-58
-58
-57
-57
-57
-56
-55
-55
-54
-54
-54
-53
-53
-52
-51
-51
-50
-49
-48
-48
-47
-46
-45
-44
-43
-42
-41
-41
-40
-38
-38
-37
-35
-35
-34
-33
-31
-30
-29
-29
-28
-26
-26
-25
-23
-22
-21
-19
-18
-18
-17
-15
-14
-13
-12
-11
-10
-9
-8
-7
-6
-4
-3
-2
0
0
1
2
3
5
5
6
7
8
9
9
10
11
11
12
13
14
14
15
15
16
17
16
17
18
18
19
19
20
21
21
22
22
22
22
22
23
23
23
25
25
25
25
25
24
24
24
24
24
24
24
24
24
23
23
23
22
22
21
22
21
20
19
19
18
17
17
15
14
14
12
11
10
9
8
6
5
3
1
0
-1
-3
-4
-6
-8
-10
-12
-13
-15
-17
-19
-20
-22
-25
-26
-27
-29
-31
-33
-34
-36
-38
-40
-41
-43
-43
-45
-46
-48
-49
-51
-52
-53
-54
-56
-58
-59
-60
-61
-62
-64
-65
-66
-67
-69
-69
-71
-72
-73
-74
-76
-77
-78
-79
-80
-80
-82
-82
-84
-85
-85
-87
-87
-87
-88
-89
-90
-90
-90
-92
-92
-92
-93
-94
-94
-94
-95
-95
-96
-97
-97
-97
-97
-97
-98
-99
-99
-99
-100
-100
-100
-100
-100
-100
-100
-101
-101
-101
-101
-101
-101
-102
-101
-102
-102
-102
-104
-104
-104
-103
-103
-104
-105
-105
-105
-105
-105
-105
-105
-105
-105
-105
-105
-104
-104
-104
-104
-104
-104
-104
-104
-104
-104
-104
-103
-104
-104
-103
-104
-104
-105
-105
-105
-105
-105
-105
-105
-105
-105
-104
-104
-105
-105
-105
-105
-105
-105
-105
-106
-105
-105
-105
-105
-106
-106
-105
-106
-106
-106
-106
-106
-106
-107
-107
-106
-107
-108
-108
-109
-109
-109
-109
-109
-110
-110
-110
-110
-110
-111
-111
-112
-112
-112
-112
-112
-112
-112
-112
-111
-111
-111
-112
-112
-112
-111
-112
-112
-112
-113
-112
-112
-112
-112
-112
-112
-112
-113
-113
-113
-113
-113
-113
-113
-113
-113
-113
-114
-114
-115
-114
-114
-115
-115
-116
-116
-116
-116
-117
-118
-118
-119
-119
-119
-119
-120
-120
-121
-121
-121
-121
-121
-121
-122
-121
-121
-122
-122
-122
-121
-122
-122
-122
-122
-121
-122
-122
-122
-123
-123
-124
-124
-124
-125
-124
-124
-125
-125
-126
-126
-126
-127
-127
-127
-128
-128
-128
-128
-128
-128
-129
-129
-129
-130
-130
-130
-130
-131
-131
-131
-131
-131
-131
-131
-132
-132
-133
-133
-133
-133
-133
-133
-134
-134
-134
-134
-134
-134
-135
-135
-136
-135
-136
-136
-136
-137
-137
-136
-137
-137
-137
-137
-137
-137
-138
-138
-138
-138
-138
-138
-138
-138
-138
-138
-138
-139
-139
-139
-139
-139
-139
-139
-139
-139
-140
-140
-140
-140
-140
-140
-140
-140
-140
-140
-141
-141
-141
-142
-141
-141
-141
-142
-142
-142
-142
-142
-142
-141
-141
-141
-142
-142
-142
-142
-142
-143
-142
-142
-142
-142
-143
-142
-142
-142
-143
-143
-143
-143
-143
-143
-144
-144
-144
-143
-143
-143
-144
-144
-144
-145
-145
-145
-145
-145
-146
-146
-146
-146
-145
-146
-146
-146
-147
-147
-147
-147
-147
-146
-147
-147
-147
-146
-147
-147
-148
-147
-147
-147
-147
-147
-147
-148
-147
-147
-148
-148
-147
-148
-148
-148
-148
-148
-148
-148
-148
-148
-148
-148
-149
-149
-149
-149
-150
-150
-150
-151
-151
-151
-151
-151
-151
-151
-151
-151
-151
-152
-151
-151
-151
-151
-151
-151
-151
-150
-150
-150
-150
-150
-150
-150
-150
-151
-152
-152
-152
-151
-151
-151
-152
-152
-152
-152
-152
-153
-153
-153
-153
-153
-153
-153
-152
-153
-153
-153
-154
-154
-154
-154
-154
-154
-154
-154
-154
-155
-155
-155
-155
-155
-155
-155
-155
-155
-156
-156
-156
-157
-157
-156
-157
-157
-157
-157
-157
-158
-157
-158
-158
-159
-158
-158
-159
-159
-159
-159
-159
-159
-159
-159
-159
-158
-158
-159
-159
-159
-159
-159
-158
-158
-159
-159
-159
-159
-159
-160
-160
-160
-160
-160
-160
-160
-160
-160
-162
-162
-162
-163
-162
-162
-163
-163
-164
-163
-163
-164
-164
-164
-164
-164
-164
-164
-164
-164
-164
-164
-165
-165
-165
-165
-165
-165
-165
-165
-166
-166
-166
-166
-166
-166
-167
-168
-168
-168
-168
-168
-169
-169
-169
-169
-169
-169
-168
-168
-168
-168
-168
-167
-167
-167
-167
-167
-167
-168
-168
-168
-168
-168
-168
-168
-169
-169
-169
-169
-169
-170
-170
-170
-170
-170
-171
-170
-171
-170
-170
-169
-169
-169
-168
-168
-167
-167
-167
-166
-166
-166
-166
-165
-164
-164
-164
-164
-164
-163
-163
-163
-163
-163
-163
-163
-163
-162
-162
-162
-162
-162
-162
-162
-161
-161
-161
-160
-161
-161
-160
-161
-161
-160
-160
-161
-160
-161
-160
-161
-161
-162
-162
-162
-162
-163
-163
-163
-164
-164
-165
-165
-164
-165
-165
-166
-166
-167
-167
-168
-168
-168
-169
-169
-169
-169
-170
-171
-171
-171
-172
-172
-174
-173
-174
-175
-175
-176
-177
-177
-179
-179
-180
-181
-181
-182
-183
-184
-184
-185
-186
-186
-187
-188
-187
-187
-188
-188
-189
-190
-190
-190
-190
-190
-190
-191
-191
-191
-191
-191
-192
-192
-192
-192
-193
-193
-193
-193
-193
-193
-193
-193
-193
-193
-193
-194
-194
-194
-194
-194
-194
-194
-194
-194
-194
-194
-194
-194
-194
-194
-193
-193
-192
-191
-190
-189
-187
-184
-182
-178
-174
-170
-165
-159
-152
-145
-137
-128
-119
-108
-98
-86
-73
-61
-49
-35
-22
-8
5
18
31
43
56
68
78
88
96
104
110
114
116
118
117
116
112
108
101
93
83
72
61
47
33
17
1
-16
-33
-50
-69
-87
-105
-123
-140
-156
-173
-188
-203
-216
-228
-240
-250
-259
-267
-274
-279
-283
-286
-288
-288
-287
-286
-283
-280
-276
-272
-267
-262
-258
-253
-247
-242
-237
-232
-228
-224
-219
-215
-212
-209
-206
-204
-202
-200
-199
-198
-197
-195
-195
-195
-194
-194
-193
-193
-194
-193
-193
-193
-194
-193
-193
-193
-193
-193
-193
-193
-193
-193
-193
-193
-192
-192
-192
-192
-192
-192
-192
-191
-191
-191
-191
-191
-191
-191
-191
-191
-190
-190
-190
-190
-190
-189
-189
-189
-189
-190
-190
-190
-190
-190
-190
-190
-190
-191
-191
-191
-192
-192
-192
-192
-192
-192
-192
-192
-192
-192
-193
-193
-193
-193
-193
-192
-192
-192
-192
-192
-192
-192
-192
-192
-191
-191
-192
-192
-191
-192
-192
-192
-192
-192
-192
-192
-192
-192
-192
-192
-192
-193
-193
-193
-192
-191
-191
-191
-192
-191
-191
-191
-190
-190
-190
-190
-190
-189
-189
-189
-189
-188
-188
-188
-188
-188
-188
-188
-187
-187
-187
-188
-187
-187
-186
-186
-186
-186
-186
-186
-186
-185
-185
-185
-185
-185
-184
-184
-184
-184
-183
-183
-183
-183
-183
-183
-183
-182
-181
-181
-181
-181
-181
-181
-181
-181
-180
-180
-180
-180
-180
-180
-180
-180
-179
-178
-178
-178
-177
-177
-177
-177
-176
-176
-176
-175
-174
-173
-173
-172
-172
-171
-171
-171
-169
-169
-168
-168
-167
-165
-165
-164
-163
-162
-162
-161
-160
-160
-159
-158
-158
-156
-156
-155
-153
-153
-152
-151
-150
-149
-149
-147
-146
-145
-145
-143
-142
-141
-140
-139
-138
-137
-136
-135
-133
-133
-131
-130
-129
-128
-127
-126
-125
-124
-122
-122
-121
-120
-119
-119
-118
-117
-116
-116
-115
-115
-114
-113
-113
-112
-111
-112
-111
-110
-109
-110
-109
-108
-107
-106
-106
-105
-105
-104
-104
-103
-103
-103
-102
-102
-102
-102
-101
-101
-101
-101
-101
-101
-101
-101
-102
-102
-102
-102
-102
-103
-103
-103
-104
-104
-105
-105
-106
-107
-108
-108
-109
-111
-112
-112
-113
-115
-116
-117
-118
-120
-121
-121
-122
-124
-125
-127
-128
-129
-130
-132
-133
-134
-136
-137
-138
-140
-142
-143
-145
-147
-148
-149
-152
-153
-154
-156
-158
-159
-161
-162
-164
-165
-168
-169
-171
-172
-174
-176
-177
-179
-180
-181
-183
-184
-186
-187
-188
-190
-191
-192
-193
-195
-196
-197
-198
-199
-200
-201
-202
-203
-205
-205
-206
-207
-207
-208
-209
-209
-211
-211
-212
-212
-213
-214
-214
-215
-216
-216
-217
-217
-218
-219
-219
-220
-220
-221
-221
-221
-222
-222
-222
-223
-223
-223
-223
-223
-223
-224
-223
-223
-223
-223
-223
-223
-224
-224
-224
-224
-225
-224
-225
-225
-225
-226
-226
-227
-227
-227
-228
-228
-229
-229
-228
-229
-229
-230
-230
-230
-231
-231
-231
-231
-232
-232
-232
-232
-233
-233
-233
-233
-233
-233
-232
-232
-232
-232
-232
-232
-232
-231
-231
-231
-231
-231
-231
-231
-231
-231
-231
-231
-231
-232
-232
-232
-232
-232
-232
-232
-233
-233
-233
-233
-233
-234
-234
-233
-233
-234
-234
-234
-234
-234
-234
-234
-234
-233
-233
-233
-233
-233
-232
-232
-232
-232
-232
-232
-232
-233
-233
-233
-233
-232
-232
-233
-233
-234
-234
-234
-234
-234
-234
-235
-235
-235
-234
-235
-235
-234
-234
-234
-233
-233
-233
-233
-232
-232
-232
-232
-232
-232
-231
-231
-231
-232
-232
-232
-231
-233
-233
-233
-232
-233
-233
-233
-233
-233
-234
-234
-234
-234
-235
-235
-235
-235
-235
-235
-235
-235
-236
-236
-236
-236
-237
-237
-237
-237
-237
-238
-238
-238
-237
-238
-238
-238
-239
-238
-238
-238
-239
-238
-238
-238
-238
-238
-238
-238
-238
-237
-237
-237
-236
-236
-236
-237
-237
-236
-236
-237
-238
-237
-237
-238
-238
-238
-238
-239
-238
-238
-239
-239
-239
-239
-240
-240
-240
-240
-240
-241
-241
-241
-240
-240
-241
-240
-241
-241
-241
-242
-242
-241
-241
-242
-242
-242
-241
-242
-242
-241
-241
-241
-241
-241
-241
-241
-241
-241
-241
-240
-240
-240
-241
-241
-240
-240
-240
-241
-241
-241
-240
-241
-241
-241
-241
-241
-241
-241
-241
-241
-241
-241
-240
-240
-240
-240
-240
-240
-240
-241
-241
-241
-241
-241
-241
-241
-241
-241
-241
-242
-242
-242
-242
-242
-242
-243
-243
-242
-242
-242
-242
-243
-243
-242
-242
-242
-242
-242
-242
-242
-242
-241
-241
-241
-241
-241
-241
-241
-240
-240
-240
-239
-239
-239
-239
-239
-239
-239
-238
-238
-238
-238
-239
-239
-239
-240
-240
-240
-240
-240
-241
-241
-241
-241
-242
-243
-243
-243
-243
-243
-243
-243
-243
-243
-242
-242
-242
-242
-242
-242
-243
-242
-242
-242
-243
-243
-243
-243
-243
-244
-244
-243
-243
-244
-244
-243
-243
-243
-243
-243
-243
-243
-243
-243
-243
-243
-243
-243
-243
-243
-244
-244
-244
-244
-244
-244
-244
-244
-244
-244
-244
-244
-244
-243
-243
-243
-243
-243
-243
-243
-244
-243
-243
-243
-243
-243
-244
-244
-244
-244
-244
-244
-245
-244
-244
-244
-244
-245
-244
-244
-244
-244
-244
-244
-244
-245
-245
-244
-244
-244
-245
-246
-246
-246
-246
-246
-246
-247
-247
-247
-247
-247
-247
-248
-248
-248
-248
-248
-248
-248
-248
-248
-248
-247
-247
-247
-247
-248
-247
-247
-247
-247
-246
-247
-247
-247
-247
-247
-247
-247
-247
-247
-247
-248
-248
-248
-248
-248
-248
-248
-248
-248
-248
-249
-249
-248
-248
-248
-249
-249
-249
-249
-249
-249
-249
-249
-249
-249
-249
-249
-249
-249
-249
-249
-249
-249
-249
-249
-250
-250
-250
-250
-250
-249
-250
-250
-250
-250
-250
-250
-250
-250
-249
-249
-249
-249
-249
-249
-249
-249
-249
-248
-249
-249
-249
-248
-248
-248
-249
-249
-249
-248
-248
-248
-249
-249
-249
-249
-249
-249
-249
-249
-250
-250
-250
-251
-250
-251
-252
-251
-252
-251
-251
-251
-251
-251
-251
-251
-251
-251
-251
-251
-251
-251
-250
-251
-250
-249
-250
-249
-249
-249
-249
-249
-249
-249
-249
-249
-248
-248
-248
-248
-248
-248
-247
-247
-247
-248
-248
-247
-247
-247
-247
-247
-246
-246
-246
-246
-245
-244
-244
-244
-243
-243
-242
-242
-242
-241
-241
-241
-239
-239
-239
-239
-239
-238
-238
-238
-237
-237
-237
-236
-236
-235
-235
-235
-235
-235
-234
-234
-234
-234
-233
-233
-234
-234
-234
-234
-235
-235
-235
-235
-236
-236
-238
-238
-239
-239
-241
-241
-241
-243
-243
-243
-244
-245
-245
-246
-246
-246
-247
-248
-248
-249
-249
-249
-249
-250
-251
-251
-252
-252
-253
-253
-255
-255
-256
-256
-258
-258
-259
-259
-261
-262
-262
-263
-264
-264
-264
-265
-266
-266
-267
-268
-268
-268
-268
-268
-270
-270
-270
-270
-270
-271
-271
-271
-271
-272
-272
-272
-272
-272
-272
-272
-272
-273
-272
-272
-272
-272
-272
-272
-272
-272
-272
-272
-271
-271
-271
-271
-271
-270
-270
-270
-269
-269
-268
-267
-266
-265
-263
-262
-259
-255
-251
-247
-242
-236
-230
-223
-215
-207
-197
-187
-176
-164
-153
-140
-127
-115
-102
-89
-77
-64
-52
-41
-29
-18
-8
1
8
14
20
23
25
24
23
20
16
10
3
-6
-17
-29
-40
-55
-71
-87
-104
-121
-140
-158
-176
-194
-212
-230
-248
-265
-280
-295
-309
-322
-333
-343
-353
-360
-367
-372
-377
-380
-381
-382
-381
-380
-378
-374
-370
-365
-360
-355
-350
-345
-339
-333
-328
-323
-318
-313
-309
-305
-301
-297
-294
-292
-290
-288
-285
-284
-283
-282
-281
-281
-279
-279
-279
-279
-279
-279
-279
-279
-279
-279
-279
-279
-279
-279
-279
-278
-278
-278
-278
-279
-279
-279
-279
-278
-279
-279
-279
-279
-279
-279
-279
-280
-280
-280
-280
-280
-280
-280
-280
-280
-280
-280
-280
-279
-280
-280
-280
-280
-279
-279
-279
-279
-279
-279
-279
-279
-278
-278
-278
-278
-278
-278
-278
-278
-278
-278
-278
-278
-278
-278
-278
-278
-277
-277
-277
-278
-278
-278
-278
-278
-278
-277
-277
-277
-277
-276
-277
-277
-277
-276
-276
-277
-277
-276
-276
-276
-275
-275
-276
-276
-275
-275
-275
-275
-275
-274
-273
-273
-273
-273
-273
-273
-272
-273
-273
-272
-273
-273
-272
-273
-273
-273
-273
-273
-273
-273
-273
-273
-273
-274
-274
-274
-273
-274
-274
-273
-274
-273
-273
-272
-272
-271
-271
-271
-271
-271
-270
-270
-270
-270
-270
-270
-269
-269
-269
-268
-268
-267
-267
-268
-267
-267
-266
-266
-266
-265
-265
-265
-264
-264
-264
-264
-262
-262
-262
-262
-261
-261
-260
-260
-259
-259
-258
-258
-258
-258
-256
-256
-255
-255
-254
-253
-253
-252
-252
-251
-250
-249
-249
-248
-248
-247
-246
-245
-244
-244
-242
-242
-241
-240
-239
-239
-237
-237
-236
-235
-234
-233
-232
-231
-230
-229
-228
-227
-225
-224
-223
-222
-222
-221
-220
-219
-217
-217
-216
-215
-214
-213
-211
-211
-210
-209
-208
-207
-206
-206
-204
-204
-202
-202
-201
-200
-200
-199
-199
-198
-197
-196
-196
-194
-194
-193
-193
-192
-191
-190
-190
-190
-189
-189
-189
-188
-188
-188
-187
-187
-187
-188
-188
-188
-188
-189
-189
-189
-189
-190
-190
-191
-191
-192
-192
-193
-193
-193
-194
-193
-194
-194
-194
-195
-195
-195
-196
-196
-197
-198
-198
-199
-200
-201
-202
-203
-204
-205
-206
-207
-208
-210
-211
-213
-214
-215
-217
-219
-220
-221
-223
-224
-227
-228
-230
-231
-233
-235
-237
-238
-240
-242
-244
-246
-247
-249
-250
-252
-254
-255
-257
-259
-260
-263
-264
-265
-268
-269
-271
-272
-274
-275
-276
-278
-279
-281
-282
-285
-286
-286
-288
-289
-290
-292
-293
-293
-294
-296
-297
-298
-299
-301
-302
-302
-304
-305
-305
-307
-307
-308
-309
-310
-310
-311
-312
-313
-314
-314
-313
-314
-314
-315
-315
-315
-316
-316
-316
-317
-317
-317
-317
-317
-318
-318
-318
-319
-319
-320
-321
-321
-322
-323
-323
-323
-324
-324
-325
-326
-326
-327
-327
-327
-328
-328
-327
-327
-327
-328
-328
-329
-329
-329
-329
-329
-329
-329
-329
-329
-329
-329
-329
-330
-330
-331
-331
-331
-331
-331
-332
-332
-333
-333
-333
-334
-334
-335
-335
-335
-335
-335
-335
-336
-336
-336
-336
-336
-336
-336
-336
-336
-336
-336
-336
-336
-336
-335
-335
-335
-336
-336
-335
-336
-336
-336
-335
-336
-336
-336
-336
-336
-336
-336
-338
-338
-338
-338
-339
-339
-339
-339
-340
-340
-340
-341
-341
-341
-341
-341
-341
-342
-342
-342
-342
-342
-342
-341
-341
-341
-341
-342
-341
-341
-341
-342
-342
-342
-342
-342
-343
-343
-343
-344
-344
-344
-345
-345
-345
-345
-345
-346
-346
-346
-346
-346
-346
-346
-346
-346
-346
-346
-347
-347
-347
-347
-348
-347
-348
-348
-349
-348
-348
-349
-349
-349
-350
-350
-350
-350
-351
-351
-351
-351
-351
-351
-352
-352
-352
-352
-353
-354
-354
-354
-355
-355
-355
-356
-356
-356
-357
-358
-358
-358
-358
-359
-359
-359
-359
-360
-361
-361
-361
-361
-361
-361
-361
-362
-362
-362
-362
-363
-363
-362
-363
-363
-363
-364
-364
-364
-364
-364
-365
-365
-365
-365
-365
-365
-365
-366
-366
-366
-366
-366
-366
-367
-367
-367
-366
-367
-367
-366
-367
-367
-367
-367
-367
-367
-367
-368
-368
-368
-368
-368
-368
-368
-368
-369
-369
-369
-370
-370
-371
-371
-371
-372
-372
-372
-373
-373
-373
-374
-374
-374
-374
-374
-374
-374
-375
-375
-375
-375
-376
-375
-376
-376
-377
-376
-377
-377
-377
-378
-377
-378
-378
-378
-379
-379
-379
-379
-379
-380
-380
-381
-381
-380
-381
-381
-381
-381
-381
-382
-382
-382
-382
-381
-381
-381
-381
-382
-381
-381
-382
-381
-381
-381
-381
-381
-381
-381
-381
-381
-381
-381
-381
-382
-382
-381
-382
-382
-381
-382
-382
-382
-382
-382
-383
-383
-383
-383
-383
-383
-382
-382
-383
-384
-383
-383
-383
-383
-384
-384
-384
-384
-384
-384
-385
-386
-386
-386
-386
-387
-387
-388
-389
-389
-389
-389
-390
-390
-390
-390
-391
-391
-391
-391
-392
-392
-391
-391
-391
-391
-390
-390
-390
-389
-389
-389
-389
-388
-388
-388
-388
-388
-387
-388
-388
-388
-388
-387
-388
-388
-388
-388
-388
-388
-390
-390
-389
-389
-390
-390
-390
-390
-390
-390
-390
-390
-391
-391
-391
-391
-391
-391
-392
-392
-392
-392
-392
-392
-392
-392
-392
-392
-392
-393
-392
-392
-393
-392
-392
-392
-393
-393
-393
-393
-393
-393
-393
-392
-393
-393
-393
-392
-392
-393
-393
-393
-393
-393
-393
-393
-394
-394
-394
-394
-394
-394
-394
-395
-395
-395
-395
-395
-395
-395
-395
-396
-396
-396
-396
-396
-396
-396
-396
-395
-395
-395
-395
-395
-394
-394
-394
-394
-394
-394
-394
-394
-394
-394
-394
-394
-394
-394
-394
-395
-395
-395
-396
-396
-396
-397
-397
-397
-398
-399
-398
-399
-399
-400
-399
-400
-400
-401
-400
-400
-401
-401
-400
-400
-400
-401
-400
-400
-400
-400
-399
-400
-400
-399
-399
-399
-399
-398
-399
-399
-399
-399
-399
-399
-399
-399
-398
-398
-399
-399
-398
-398
-398
-397
-397
-397
-396
-396
-396
-396
-395
-395
-395
-395
-395
-394
-395
-394
-394
-395
-395
-395
-394
-394
-394
-394
-394
-394
-394
-393
-393
-392
-392
-391
-391
-390
-390
-390
-389
-389
-389
-389
-388
-388
-388
-388
-387
-387
-388
-387
-387
-387
-387
-388
-388
-388
-388
-388
-388
-388
-388
-389
-389
-389
-389
-390
-389
-390
-390
-391
-391
-392
-392
-392
-394
-394
-394
-395
-396
-397
-397
-397
-398
-398
-399
-399
-400
-400
-402
-403
-402
-404
-404
-405
-405
-406
-407
-407
-408
-408
-410
-409
-410
-411
-411
-411
-411
-413
-413
-412
-413
-413
-414
-414
-414
-414
-414
-414
-414
-414
-415
-415
-415
-416
-416
-417
-417
-417
-418
-418
-418
-418
-418
-419
-419
-419
-419
-419
-419
-419
-419
-419
-420
-419
-419
-419
-419
-418
-418
-418
-418
-418
-418
-417
-417
-416
-415
-414
-413
-411
-409
-407
-404
-400
-397
-393
-387
-381
-374
-368
-359
-350
-340
-329
-318
-306
-293
-280
-266
-252
-238
-225
-210
-196
-183
-170
-157
-145
-134
-124
-116
-109
-103
-98
-96
-95
-96
-98
-102
-107
-114
-122
-133
-145
-157
-172
-187
-203
-221
-238
-256
-274
-293
-312
-331
-350
-367
-385
-402
-417
-432
-445
-458
-469
-479
-489
-497
-504
-510
-514
-517
-519
-519
-519
-517
-515
-512
-509
-504
-500
-495
-490
-485
-479
-474
-469
-464
-458
-454
-449
-445
-441
-438
-435
-432
-430
-428
-426
-423
-422
-421
-420
-420
-420
-418
-418
-418
-418
-418
-418
-418
-418
-418
-418
-418
-418
-418
-418
-418
-417
-417
-418
-418
-417
-416
-416
-416
-416
-415
-414
-414
-415
-415
-415
-415
-415
-415
-415
-415
-415
-414
-414
-414
-415
-415
-415
-416
-416
-416
-416
-416
-417
-417
-417
-417
-417
-417
-417
-417
-418
-417
-417
-417
-416
-416
-417
-416
-416
-416
-415
-415
-414
-414
-414
-413
-413
-412
-412
-412
-411
-411
-410
-410
-410
-410
-409
-409
-409
-409
-409
-409
-409
-409
-409
-409
-409
-410
-410
-410
-409
-410
-410
-410
-410
-410
-410
-410
-411
-411
-411
-411
-411
-411
-411
-410
-410
-410
-410
-409
-409
-409
-409
-408
-408
-407
-407
-407
-407
-407
-407
-407
-407
-407
-406
-406
-406
-406
-406
-405
-405
-405
-405
-404
-404
-404
-404
-403
-403
-403
-403
-403
-403
-403
-402
-402
-402
-402
-402
-402
-402
-402
-401
-401
-400
-400
-400
-400
-400
-399
-398
-398
-398
-397
-397
-396
-396
-395
-394
-394
-393
-393
-392
-391
-391
-389
-389
-388
-388
-387
-387
-386
-384
-384
-384
-383
-382
-381
-381
-380
-378
-378
-377
-376
-376
-375
-374
-373
-372
-372
-371
-370
-369
-368
-367
-366
-365
-364
-363
-362
-361
-360
-358
-357
-355
-354
-354
-352
-351
-350
-349
-347
-347
-345
-344
-344
-342
-342
-340
-340
-339
-337
-338
-337
-336
-335
-334
-334
-333
-332
-332
-331
-330
-329
-329
-328
-328
-327
-327
-325
-325
-324
-324
-322
-322
-322
-321
-321
-320
-320
-320
-319
-318
-318
-317
-317
-318
-317
-317
-317
-316
-316
-316
-316
-316
-316
-316
-316
-316
-316
-316
-317
-317
-318
-318
-319
-319
-320
-320
-320
-321
-321
-322
-323
-324
-324
-325
-326
-327
-327
-328
-329
-330
-331
-333
-334
-335
-336
-337
-340
-341
-342
-344
-346
-347
-348
-350
-352
-353
-355
-357
-358
-360
-361
-363
-364
-365
-367
-368
-370
-370
-371
-373
-375
-376
-377
-379
-380
-382
-383
-385
-387
-388
-390
-391
-394
-395
-396
-398
-400
-402
-403
-404
-406
-407
-408
-410
-411
-412
-414
-414
-416
-417
-418
-418
-420
-421
-421
-423
-424
-424
-425
-426
-427
-427
-428
-430
-430
-431
-431
-432
-432
-433
-434
-435
-435
-435
-437
-437
-437
-437
-437
-439
-439
-439
-440
-440
-441
-441
-442
-442
-443
-443
-443
-443
-444
-444
-445
-445
-446
-447
-446
-447
-447
-448
-448
-448
-448
-449
-449
-449
-449
-449
-449
-449
-450
-450
-450
-450
-451
-451
-451
-451
-451
-451
-451
-451
-451
-451
-451
-451
-452
-452
-452
-453
-453
-453
-453
-453
-454
-454
-454
-454
-454
-454
-454
-455
-455
-455
-455
-456
-456
-456
-456
-456
-456
-456
-456
-456
-456
-455
-456
-456
-457
-457
-456
-456
-456
-456
-456
-457
-458
-457
-457
-457
-457
-457
-458
-458
-458
-458
-458
-458
-458
-458
-458
-458
-458
-458
-458
-459
-459
-460
-460
-460
-460
-461
-461
-461
-462
-461
-462
-462
-462
-463
-463
-464
-464
-464
-464
-465
-465
-465
-466
-466
-466
-465
-465
-465
-465
-465
-465
-465
-465
-465
-464
-464
-464
-464
-464
-465
-465
-465
-465
-465
-465
-465
-465
-466
-466
-466
-467
-468
-468
-469
-469
-470
-471
-472
-472
-473
-473
-474
-474
-474
-476
-476
-477
-476
-476
-477
-478
-478
-477
-477
-478
-478
-478
-478
-477
-477
-478
-478
-478
-478
-478
-478
-478
-478
-478
-479
-479
-480
-480
-481
-481
-481
-482
-482
-483
-483
-484
-485
-485
-485
-486
-486
-487
-486
-487
-487
-487
-488
-487
-488
-488
-488
-488
-488
-489
-488
-488
-489
-489
-489
-490
-490
-490
-490
-490
-490
-491
-492
-492
-492
-492
-492
-493
-493
-494
-494
-494
-494
-494
-494
-494
-494
-495
-495
-495
-495
-495
-495
-495
-496
-496
-496
-496
-496
-496
-496
-496
-496
-496
-497
-497
-497
-497
-497
-497
-496
-496
-497
-497
-497
-498
-497
-497
-498
-498
-498
-498
-498
-499
-499
-499
-500
-500
-501
-500
-500
-501
-501
-502
-502
-503
-504
-504
-504
-504
-505
-506
-506
-506
-506
-507
-507
-507
-506
-506
-506
-506
-506
-506
-507
-507
-507
-507
-508
-507
-507
-507
-508
-508
-508
-508
-509
-509
-509
-509
-509
-510
-510
-510
-510
-511
-511
-511
-511
-512
-512
-512
-512
-512
-513
-513
-513
-513
-513
-513
-513
-513
-513
-513
-513
-513
-514
-514
-515
-515
-515
-515
-515
-516
-516
-516
-516
-517
-516
-516
-517
-517
-518
-518
-517
-518
-518
-518
-519
-519
-519
-518
-519
-519
-519
-519
-519
-519
-519
-519
-519
-519
-519
-519
-519
-519
-519
-520
-520
-520
-520
-520
-521
-521
-522
-522
-523
-523
-523
-524
-524
-525
-525
-525
-525
-525
-525
-525
-525
-526
-525
-525
-525
-526
-526
-526
-526
-526
-526
-527
-527
-527
-527
-527
-527
-527
-527
-527
-528
-528
-528
-528
-529
-529
-529
-530
-530
-530
-530
-530
-530
-530
-530
-532
-532
-532
-532
-532
-532
-533
-533
-533
-533
-534
-534
-534
-534
-534
-534
-534
-534
-534
-534
-534
-534
-534
-534
-534
-534
-534
-534
-534
-534
-534
-535
-534
-535
-535
-535
-535
-536
-536
-537
-537
-537
-537
-537
-537
-537
-538
-538
-538
-538
-538
-539
-538
-538
-538
-538
-538
-538
-538
-538
-539
-539
-539
-538
-538
-539
-539
-539
-540
-540
-539
-540
-540
-540
-541
-540
-540
-540
-541
-541
-541
-541
-541
-541
-541
-542
-542
-542
-542
-542
-543
-543
-543
-543
-544
-544
-544
-544
-545
-545
-545
-545
-546
-546
-546
-546
-546
-546
-546
-546
-546
-546
-546
-546
-546
-546
-547
-547
-547
-547
-547
-547
-547
-547
-547
-547
-548
-547
-547
-548
-548
-547
-548
-548
-547
-547
-548
-547
-547
-547
-546
-546
-547
-546
-546
-546
-545
-545
-545
-545
-545
-544
-544
-544
-544
-543
-543
-543
-542
-542
-542
-541
-542
-541
-541
-540
-540
-540
-539
-539
-539
-538
-537
-537
-537
-537
-537
-537
-537
-537
-536
-537
-537
-537
-536
-537
-537
-538
-538
-538
-538
-539
-539
-539
-539
-539
-540
-540
-541
-541
-541
-541
-542
-543
-543
-544
-545
-545
-545
-546
-547
-547
-548
-549
-549
-550
-550
-550
-551
-552
-552
-553
-553
-554
-555
-555
-556
-557
-558
-558
-558
-560
-560
-561
-562
-563
-563
-564
-564
-566
-566
-566
-567
-568
-568
-568
-568
-569
-570
-570
-570
-570
-570
-570
-571
-571
-571
-571
-571
-572
-572
-572
-573
-573
-573
-573
-573
-574
-574
-574
-574
-574
-574
-575
-575
-574
-574
-574
-575
-574
-574
-574
-573
-574
-574
-573
-572
-572
-571
-570
-569
-568
-566
-564
-562
-559
-555
-551
-547
-542
-536
-529
-522
-513
-504
-495
-485
-473
-461
-448
-436
-423
-409
-396
-383
-370
-357
-344
-332
-320
-310
-299
-290
-282
-275
-270
-266
-264
-264
-264
-266
-270
-275
-282
-291
-301
-312
-324
-338
-353
-369
-385
-402
-419
-437
-456
-474
-492
-509
-527
-544
-560
-575
-589
-603
-615
-626
-635
-644
-652
-659
-663
-667
-670
-671
-671
-670
-668
-666
-663
-660
-654
-650
-645
-640
-635
-629
-625
-619
-615
-610
-606
-602
-599
-595
-592
-590
-588
-586
-584
-582
-582
-581
-580
-580
-580
-580
-580
-579
-579
-580
-580
-580
-580
-581
-581
-581
-580
-581
-581
-581
-581
-581
-581
-581
-580
-580
-580
-580
-580
-581
-581
-581
-580
-580
-580
-580
-580
-580
-580
-580
-580
-580
-579
-579
-579
-579
-579
-580
-580
-580
-580
-580
-580
-579
-579
-579
-579
-579
-580
-580
-580
-579
-580
-580
-580
-580
-581
-581
-581
-581
-581
-581
-581
-581
-581
-581
-581
-581
-582
-582
-582
-581
-581
-581
-581
-581
-581
-581
-580
-580
-580
-580
-580
-580
-580
-580
-579
-579
-580
-580
-579
-579
-579
-579
-580
-580
-579
-580
-580
-580
-580
-580
-580
-581
-581
-581
-580
-580
-580
-580
-580
-580
-580
-579
-579
-579
-578
-578
-578
-577
-577
-577
-577
-576
-575
-575
-575
-576
-576
-576
-576
-576
-576
-576
-576
-575
-575
-575
-575
-574
-574
-574
-574
-574
-574
-574
-574
-573
-573
-573
-572
-572
-572
-571
-571
-571
-571
-571
-571
-570
-569
-569
-569
-569
-569
-568
-567
-567
-566
-566
-565
-565
-565
-564
-563
-563
-562
-562
-560
-561
-560
-559
-558
-557
-557
-556
-556
-555
-554
-554
-554
-553
-553
-552
-551
-551
-550
-549
-548
-548
-547
-547
-545
-545
-544
-543
-542
-540
-540
-538
-537
-537
-536
-534
-533
-532
-531
-530
-528
-527
-526
-526
-525
-523
-522
-521
-520
-519
-518
-517
-517
-516
-515
-513
-512
-512
-511
-510
-509
-508
-508
-507
-506
-505
-505
-504
-503
-503
-502
-501
-501
-500
-500
-499
-499
-499
-498
-498
-498
-498
-497
-496
-496
-496
-495
-494
-494
-494
-494
-493
-492
-492
-492
-491
-491
-491
-491
-490
-490
-490
-490
-490
-489
-489
-490
-490
-491
-491
-491
-491
-492
-492
-493
-493
-494
-494
-495
-496
-496
-497
-498
-499
-500
-501
-502
-503
-504
-505
-506
-507
-508
-509
-510
-511
-512
-515
-516
-517
-519
-520
-522
-524
-526
-526
-529
-531
-532
-533
-535
-536
-537
-540
-541
-543
-544
-545
-547
-548
-550
-552
-553
-554
-556
-558
-560
-561
-562
-564
-566
-567
-569
-570
-571
-573
-574
-574
-576
-577
-578
-579
-580
-582
-582
-583
-584
-585
-587
-587
-588
-589
-590
-590
-591
-592
-593
-593
-594
-595
-596
-597
-597
-598
-599
-599
-600
-600
-600
-601
-601
-602
-602
-602
-603
-603
-603
-604
-604
-603
-604
-604
-604
-605
-605
-605
-606
-606
-606
-606
-607
-607
-607
-608
-608
-609
-609
-609
-610
-610
-610
-611
-611
-612
-612
-612
-613
-613
-613
-613
-613
-613
-613
-614
-614
-614
-614
-615
-615
-615
-616
-616
-616
-616
-617
-617
-617
-616
-617
-617
-618
-618
-618
-618
-618
-618
-618
-618
-618
-618
-618
-618
-618
-619
-619
-619
-619
-619
-619
-619
-619
-619
-619
-619
-619
-619
-619
-620
-620
-621
-621
-621
-621
-621
-621
-621
-621
-622
-622
-621
-621
-621
-622
-622
-622
-623
-623
-622
-622
-622
-622
-622
-623
-623
-623
-623
-623
-623
-623
-623
-623
-623
-623
-623
-624
-624
-624
-624
-625
-625
-625
-626
-626
-626
-627
-628
-628
-629
-629
-629
-630
-630
-630
-631
-631
-632
-631
-631
-632
-632
-632
-632
-632
-632
-632
-632
-632
-631
-631
-631
-631
-631
-631
-632
-632
-630
-631
-631
-631
-631
-631
-631
-632
-632
-632
-633
-633
-633
-633
-634
-634
-634
-635
-636
-636
-636
-636
-636
-637
-637
-637
-637
-637
-637
-637
-638
-638
-638
-638
-639
-639
-639
-639
-640
-639
-640
-640
-641
-641
-642
-642
-642
-641
-642
-642
-643
-643
-643
-642
-642
-642
-641
-641
-641
-641
-641
-641
-640
-640
-640
-640
-640
-640
-640
-640
-640
-640
-641
-641
-641
-642
-642
-642
-643
-643
-644
-644
-644
-645
-644
-645
-645
-646
-646
-646
-646
-646
-647
-647
-647
-647
-646
-646
-646
-646
-646
-646
-647
-646
-646
-646
-647
-646
-645
-646
-646
-646
-646
-646
-646
-646
-646
-646
-646
-646
-646
-646
-646
-647
-647
-646
-647
-647
-647
-647
-648
-648
-648
-648
-649
-648
-648
-649
-648
-648
-648
-648
-649
-649
-649
-648
-648
-648
-648
-648
-648
-648
-648
-648
-648
-648
-648
-649
-649
-649
-649
-649
-649
-649
-650
-651
-651
-651
-651
-651
-652
-652
-651
-651
-651
-651
-651
-652
-652
-652
-651
-651
-651
-651
-651
-651
-651
-651
-650
-650
-651
-651
-651
-651
-651
-651
-652
-652
-652
-652
-652
-652
-652
-653
-653
-653
-653
-653
-653
-653
-653
-653
-653
-653
-653
-653
-653
-653
-653
-653
-653
-653
-653
-653
-652
-653
-653
-653
-653
-654
-654
-654
-654
-655
-655
-655
-655
-656
-656
-656
-657
-657
-657
-657
-657
-657
-657
-657
-657
-656
-656
-656
-656
-656
-656
-656
-656
-655
-655
-656
-656
-656
-656
-656
-656
-656
-656
-656
-656
-656
-656
-656
-656
-656
-656
-656
-656
-655
-656
-656
-655
-655
-655
-655
-655
-655
-656
-656
-656
-656
-657
-657
-658
-659
-659
-659
-660
-660
-660
-661
-661
-661
-663
-663
-663
-663
-663
-663
-663
-664
-664
-663
-663
-664
-663
-663
-663
-663
-663
-663
-662
-662
-663
-663
-663
-663
-663
-663
-663
-663
-663
-664
-664
-664
-663
-664
-664
-664
-664
-664
-664
-664
-664
-664
-664
-664
-664
-663
-664
-664
-664
-664
-665
-664
-665
-665
-665
-665
-665
-665
-665
-665
-666
-666
-665
-665
-665
-666
-665
-666
-666
-665
-665
-665
-666
-666
-666
-666
-666
-666
-666
-666
-666
-667
-667
-667
-667
-667
-668
-668
-668
-668
-667
-668
-669
-669
-669
-668
-668
-668
-668
-669
-669
-669
-669
-669
-669
-669
-669
-669
-669
-669
-669
-670
-670
-670
-670
-671
-671
-671
-671
-671
-671
-672
-672
-671
-672
-672
-672
-672
-671
-671
-672
-672
-672
-672
-672
-672
-672
-673
-674
-674
-673
-674
-674
-675
-675
-675
-674
-674
-674
-674
-674
-674
-674
-674
-674
-674
-673
-673
-673
-673
-672
-672
-672
-672
-671
-671
-671
-671
-670
-670
-669
-669
-669
-669
-669
-669
-669
-668
-669
-669
-669
-668
-668
-668
-667
-667
-667
-667
-666
-666
-666
-665
-665
-665
-665
-664
-664
-664
-663
-664
-663
-663
-663
-663
-663
-663
-663
-663
-663
-664
-664
-664
-666
-666
-666
-667
-667
-667
-667
-669
-669
-669
-669
-670
-670
-670
-671
-671
-672
-672
-673
-673
-674
-675
-675
-675
-676
-676
-677
-679
-679
-680
-681
-683
-683
-684
-685
-686
-687
-688
-689
-690
-690
-692
-692
-693
-694
-695
-695
-695
-696
-696
-697
-697
-697
-698
-698
-698
-698
-698
-699
-698
-698
-698
-699
-699
-699
-699
-699
-700
-700
-700
-700
-700
-701
-701
-701
-701
-702
-702
-702
-702
-702
-702
-702
-702
-703
-703
-703
-702
-703
-703
-703
-703
-703
-702
-702
-702
-701
-700
-698
-696
-694
-692
-689
-685
-680
-675
-670
-664
-657
-649
-641
-632
-622
-612
-601
-588
-577
-564
-552
-539
-527
-515
-503
-490
-479
-467
-456
-446
-437
-429
-422
-417
-413
-410
-409
-410
-412
-416
-420
-426
-434
-443
-454
-466
-479
-493
-508
-525
-542
-558
-577
-594
-612
-629
-647
-665
-681
-697
-712
-726
-740
-753
-764
-773
-782
-790
-796
-801
-805
-808
-809
-809
-809
-806
-804
-800
-797
-792
-788
-782
-777
-771
-766
-761
-754
-750
-745
-741
-736
-733
-729
-725
-723
-721
-718
-716
-715
-713
-712
-711
-711
-710
-709
-709
-709
-709
-708
-708
-708
-709
-709
-709
-708
-708
-708
-708
-708
-708
-708
-708
-708
-708
-708
-708
-709
-709
-709
-709
-709
-709
-709
-709
-710
-710
-710
-710
-710
-710
-710
-709
-709
-709
-709
-710
-710
-710
-710
-709
-709
-709
-709
-710
-710
-710
-709
-709
-709
-709
-709
-709
-708
-709
-709
-709
-709
-708
-708
-708
-709
-708
-708
-708
-707
-708
-708
-708
-708
-708
-708
-708
-707
-707
-707
-708
-707
-707
-707
-707
-707
-706
-707
-707
-707
-707
-707
-707
-707
-706
-706
-707
-706
-706
-706
-706
-706
-706
-706
-705
-705
-705
-704
-705
-705
-704
-704
-704
-703
-703
-703
-703
-703
-703
-703
-702
-701
-701
-701
-701
-701
-700
-700
-700
-700
-699
-699
-699
-699
-699
-699
-698
-699
-699
-699
-699
-699
-699
-700
-700
-700
-700
-700
-700
-700
-700
-699
-699
-699
-698
-698
-697
-697
-696
-696
-695
-694
-694
-693
-693
-692
-692
-691
-691
-691
-690
-690
-690
-688
-688
-688
-688
-687
-686
-686
-686
-686
-686
-685
-685
-685
-684
-683
-683
-682
-682
-681
-680
-680
-680
-678
-678
-677
-676
-676
-674
-673
-672
-672
-671
-670
-669
-667
-666
-665
-664
-663
-662
-661
-660
-659
-658
-657
-656
-655
-655
-654
-652
-651
-651
-649
-649
-648
-646
-645
-644
-643
-642
-641
-640
-639
-638
-637
-636
-634
-633
-632
-631
-631
-629
-629
-628
-626
-625
-624
-623
-622
-621
-621
-620
-619
-618
-617
-616
-615
-615
-615
-614
-614
-613
-612
-611
-611
-610
-610
-609
-609
-608
-608
-607
-607
-607
-606
-606
-605
-605
-604
-604
-604
-604
-604
-605
-605
-605
-605
-605
-605
-605
-605
-605
-606
-606
-607
-607
-608
-609
-609
-610
-611
-611
-612
-613
-614
-616
-617
-618
-619
-620
-621
-623
-624
-626
-627
-629
-630
-631
-633
-634
-636
-637
-639
-640
-641
-642
-644
-646
-647
-648
-649
-650
-651
-654
-655
-656
-657
-659
-660
-662
-663
-665
-666
-668
-670
-671
-673
-674
-675
-677
-678
-679
-681
-681
-683
-684
-685
-686
-688
-688
-690
-691
-692
-693
-695
-695
-696
-698
-699
-700
-700
-701
-703
-704
-705
-706
-707
-708
-709
-710
-710
-711
-712
-713
-713
-714
-714
-714
-715
-716
-716
-717
-717
-718
-718
-718
-718
-718
-718
-718
-719
-720
-720
-720
-720
-721
-720
-721
-721
-721
-722
-722
-722
-723
-722
-722
-724
-724
-724
-724
-724
-726
-726
-726
-726
-727
-727
-727
-728
-729
-729
-729
-729
-730
-731
-731
-730
-731
-731
-732
-732
-733
-732
-733
-733
-734
-734
-734
-735
-735
-734
-734
-734
-735
-736
-736
-736
-736
-736
-736
-736
-736
-735
-735
-736
-736
-736
-736
-736
-737
-737
-737
-737
-737
-738
-738
-738
-739
-739
-739
-739
-739
-739
-739
-740
-741
-741
-741
-741
-741
-741
-742
-742
-742
-742
-742
-743
-743
-743
-743
-744
-743
-743
-743
-744
-744
-745
-744
-744
-745
-745
-745
-745
-745
-746
-746
-746
-746
-746
-746
-747
-747
-748
-748
-748
-748
-748
-748
-749
-749
-749
-749
-749
-749
-749
-750
-750
-750
-750
-750
-751
-751
-750
-750
-751
-751
-751
-752
-752
-752
-752
-752
-753
-753
-753
-754
-754
-755
-754
-755
-754
-755
-754
-755
-755
-755
-755
-755
-755
-755
-756
-756
-756
-756
-757
-757
-757
-757
-757
-757
-757
-759
-759
-759
-759
-760
-760
-760
-761
-761
-761
-761
-763
-763
-763
-763
-763
-763
-764
-764
-764
-764
-764
-764
-765
-765
-764
-764
-765
-765
-764
-764
-765
-765
-765
-765
-766
-766
-766
-766
-767
-767
-767
-767
-767
-768
-768
-767
-767
-768
-768
-768
-769
-770
-770
-770
-770
-771
-771
-771
-771
-771
-772
-772
-772
-772
-772
-772
-772
-772
-773
-773
-773
-773
-773
-773
-773
-773
-774
-774
-775
-775
-775
-775
-775
-775
-775
-775
-775
-776
-776
-776
-776
-776
-776
-776
-775
-776
-775
-775
-775
-775
-775
-775
-775
-775
-775
-775
-774
-775
-775
-776
-776
-775
-776
-776
-777
-777
-778
-778
-778
-778
-779
-779
-779
-780
-780
-780
-780
-781
-781
-781
-781
-781
-781
-781
-781
-782
-782
-782
-782
-782
-782
-782
-782
-782
-783
-783
-783
-783
-783
-784
-784
-784
-784
-784
-784
-784
-784
-784
-783
-784
-784
-784
-784
-785
-785
-785
-785
-785
-785
-785
-785
-785
-786
-786
-786
-786
-786
-786
-787
-787
-787
-787
-787
-787
-787
-787
-787
-787
-787
-787
-787
-787
-787
-787
-788
-789
-789
-789
-789
-790
-790
-790
-790
-791
-791
-791
-791
-792
-791
-792
-792
-793
-793
-793
-794
-794
-794
-794
-795
-795
-795
-795
-795
-795
-795
-795
-795
-795
-795
-795
-795
-795
-795
-795
-795
-795
-795
-796
-795
-795
-796
-795
-796
-796
-796
-796
-797
-797
-797
-797
-797
-798
-798
-798
-798
-798
-799
-800
-800
-800
-800
-800
-800
-800
-801
-801
-801
-801
-800
-800
-801
-801
-801
-801
-800
-800
-801
-801
-801
-801
-801
-801
-802
-803
-803
-803
-803
-803
-803
-803
-803
-803
-804
-804
-804
-804
-804
-804
-804
-804
-804
-804
-804
-804
-804
-805
-805
-805
-805
-805
-806
-806
-806
-807
-806
-806
-806
-807
-807
-807
-807
-808
-808
-808
-808
-808
-808
-808
-809
-810
-809
-809
-810
-810
-810
-810
-810
-811
-811
-811
-811
-811
-811
-811
-811
-811
-811
-811
-812
-811
-811
-811
-811
-811
-811
-811
-812
-812
-811
-811
-812
-812
-811
-812
-812
-813
-813
-812
-813
-813
-813
-813
-813
-814
-814
-814
-814
-815
-814
-815
-815
-815
-815
-815
-815
-815
-814
-815
-815
-815
-815
-815
-815
-815
-815
-815
-815
-816
-815
-816
-816
-816
-815
-816
-816
-815
-815
-815
-815
-815
-815
-814
-814
-814
-814
-813
-813
-813
-813
-812
-812
-811
-811
-811
-811
-811
-809
-809
-809
-810
-809
-809
-808
-809
-808
-808
-808
-807
-808
-807
-807
-807
-807
-806
-806
-806
-805
-804
-805
-804
-803
-803
-803
-803
-803
-802
-802
-802
-802
-801
-801
-801
-801
-802
-802
-802
-802
-803
-803
-803
-805
-805
-805
-806
-807
-807
-808
-809
-809
-811
-811
-811
-813
-813
-814
-814
-815
-815
-816
-817
-818
-818
-819
-819
-820
-820
-821
-822
-822
-823
-824
-824
-825
-826
-827
-827
-828
-829
-829
-830
-831
-831
-831
-832
-832
-833
-833
-833
-834
-834
-834
-835
-835
-836
-836
-836
-837
-837
-837
-837
-837
-837
-837
-837
-838
-838
-838
-838
-838
-838
-838
-838
-838
-839
-839
-839
-839
-839
-839
-839
-839
-839
-840
-840
-839
-839
-840
-840
-840
-840
-840
-840
-839
-839
-839
-839
-838
-837
-835
-833
-830
-828
-824
-819
-814
-809
-803
-797
-789
-781
-771
-761
-750
-739
-727
-715
-702
-689
-676
-663
-650
-637
-625
-611
-600
-588
-577
-567
-559
-551
-546
-541
-539
-538
-539
-542
-545
-550
-558
-565
-575
-587
-601
-614
-630
-646
-663
-681
-699
-717
-736
-755
-774
-792
-810
-827
-844
-860
-875
-889
-900
-912
-922
-931
-939
-946
-951
-956
-958
-960
-960
-961
-959
-956
-952
-950
-945
-940
-935
-930
-924
-918
-913
-907
-902
-897
-892
-887
-883
-878
-874
-872
-868
-866
-863
-861
-858
-857
-856
-855
-854
-852
-852
-851
-850
-850
-850
-850
-850
-850
-850
-850
-850
-851
-850
-851
-851
-852
-852
-851
-852
-852
-852
-853
-852
-852
-852
-853
-852
-852
-852
-851
-851
-851
-851
-851
-851
-850
-850
-850
-850
-850
-851
-851
-850
-850
-850
-850
-850
-850
-850
-850
-850
-850
-850
-850
-850
-850
-850
-850
-850
-850
-849
-849
-849
-849
-848
-848
-848
-848
-848
-847
-846
-847
-846
-846
-845
-845
-845
-845
-845
-845
-845
-845
-845
-844
-844
-845
-845
-844
-844
-844
-844
-845
-845
-845
-845
-845
-845
-846
-846
-846
-846
-845
-845
-846
-846
-846
-846
-846
-846
-846
-846
-846
-846
-846
-845
-845
-844
-845
-844
-844
-844
-844
-843
-842
-842
-842
-842
-842
-842
-842
-841
-841
-841
-841
-841
-840
-841
-841
-841
-840
-840
-840
-840
-840
-840
-840
-839
-839
-839
-838
-838
-838
-837
-837
-836
-836
-835
-835
-834
-834
-833
-833
-832
-832
-832
-832
-832
-831
-831
-831
-831
-831
-831
-831
-831
-831
-829
-829
-829
-828
-829
-828
-827
-827
-826
-825
-824
-823
-823
-822
-821
-820
-819
-818
-818
-817
-817
-816
-815
-814
-814
-812
-811
-811
-810
-809
-808
-807
-805
-804
-804
-803
-801
-801
-800
-799
-798
-798
-797
-796
-795
-794
-793
-792
-792
-791
-790
-789
-789
-788
-787
-787
-786
-785
-784
-783
-781
-779
-779
-778
-777
-776
-775
-773
-773
-771
-771
-769
-768
-768
-767
-766
-766
-765
-765
-764
-764
-763
-763
-763
-762
-762
-762
-761
-761
-761
-761
-760
-760
-760
-760
-760
-760
-760
-760
-759
-759
-759
-759
-759
-759
-758
-758
-759
-759
-759
-759
-758
-759
-759
-759
-759
-760
-760
-760
-761
-760
-761
-761
-762
-763
-762
-764
-765
-766
-766
-768
-769
-770
-771
-773
-774
-775
-777
-777
-779
-780
-782
-783
-785
-785
-787
-788
-789
-791
-792
-794
-795
-797
-798
-799
-801
-802
-803
-806
-807
-808
-810
-811
-814
-816
-817
-819
-821
-823
-824
-826
-828
-829
-830
-832
-833
-835
-836
-838
-839
-840
-841
-842
-843
-844
-845
-846
-848
-848
-850
-850
-852
-853
-854
-856
-857
-858
-860
-861
-862
-863
-865
-866
-866
-868
-869
-870
-870
-871
-871
-872
-873
-873
-874
-873
-873
-874
-874
-874
-875
-875
-876
-876
-876
-876
-876
-877
-877
-878
-878
-879
-879
-879
-880
-881
-881
-881
-882
-882
-882
-883
-883
-883
-883
-884
-884
-884
-884
-885
-885
-885
-885
-886
-885
-886
-886
-886
-886
-886
-886
-886
-886
-886
-887
-887
-887
-888
-888
-888
-888
-888
-888
-888
-888
-888
-888
-888
-888
-889
-888
-888
-888
-888
-889
-889
-889
-889
-888
-888
-888
-889
-889
-889
-889
-890
-890
-890
-891
-891
-891
-892
-891
-891
-892
-892
-892
-892
-892
-892
-892
-892
-892
-892
-891
-892
-892
-892
-892
-892
-892
-892
-892
-892
-892
-892
-892
-892
-893
-893
-893
-893
-893
-893
-894
-893
-893
-893
-894
-894
-893
-894
-894
-894
-894
-894
-895
-895
-895
-895
-895
-895
-895
-895
-895
-895
-896
-896
-896
-896
-896
-898
-898
-898
-899
-899
-899
-900
-900
-901
-902
-902
-903
-903
-904
-903
-903
-904
-904
-904
-904
-905
-905
-905
-905
-906
-906
-906
-906
-907
-907
-907
-907
-908
-908
-908
-908
-908
-908
-908
-908
-909
-909
-909
-910
-910
-910
-911
-911
-912
-912
-912
-912
-912
-913
-913
-913
-913
-913
-914
-914
-914
-914
-914
-914
-915
-915
-916
-916
-916
-916
-916
-916
-916
-916
-917
-917
-917
-917
-917
-918
-918
-918
-919
-919
-919
-919
-919
-920
-920
-921
-922
-922
-923
-923
-923
-923
-924
-924
-924
-924
-924
-924
-925
-925
-925
-925
-925
-925
-926
-925
-925
-925
-925
-924
-924
-924
-925
-925
-925
-926
-925
-926
-926
-925
-926
-926
-926
-926
-927
-927
-927
-927
-927
-927
-927
-929
-929
-929
-929
-929
-929
-929
-930
-930
-930
-930
-930
-931
-931
-931
-931
-931
-931
-931
-931
-932
-932
-931
-931
-931
-932
-932
-932
-932
-932
-932
-932
-932
-932
-932
-933
-933
-933
-933
-933
-934
-934
-933
-933
-934
-934
-934
-934
-934
-934
-934
-934
-935
-935
-934
-934
-934
-934
-934
-935
-935
-935
-935
-935
-935
-935
-935
-935
-936
-936
-936
-936
-936
-937
-937
-937
-938
-938
-938
-938
-938
-938
-938
-938
-940
-940
-940
-940
-940
-940
-941
-940
-940
-940
-940
-940
-940
-940
-940
-940
-941
-940
-940
-940
-940
-940
-940
-940
-940
-940
-940
-940
-940
-940
-940
-940
-941
-941
-942
-942
-942
-942
-942
-943
-943
-943
-943
-944
-944
-944
-944
-944
-944
-944
-945
-945
-946
-945
-945
-946
-946
-946
-946
-947
-946
-946
-946
-947
-948
-948
-948
-948
-948
-948
-948
-948
-948
-948
-949
-949
-949
-948
-948
-948
-949
-949
-948
-948
-948
-948
-948
-948
-948
-948
-948
-948
-948
-948
-948
-948
-948
-948
-948
-948
-948
-948
-948
-948
-948
-948
-948
-948
-948
-948
-948
-948
-949
-948
-948
-948
-948
-948
-949
-949
-949
-949
-948
-949
-950
-950
-950
-950
-950
-951
-951
-952
-952
-952
-953
-953
-953
-953
-952
-953
-953
-953
-953
-953
-953
-952
-952
-952
-951
-952
-952
-952
-951
-951
-951
-952
-951
-951
-951
-951
-951
-951
-951
-951
-951
-951
-951
-951
-952
-952
-952
-953
-952
-952
-952
-953
-953
-953
-954
-954
-954
-954
-954
-954
-954
-955
-955
-954
-955
-955
-955
-955
-955
-955
-955
-956
-955
-955
-955
-955
-955
-955
-956
-957
-957
-957
-957
-957
-957
-957
-956
-957
-957
-957
-957
-956
-956
-956
-956
-956
-955
-955
-954
-954
-953
-954
-953
-953
-952
-952
-951
-951
-950
-950
-950
-949
-948
-948
-948
-948
-948
-948
-947
-947
-948
-948
-947
-947
-947
-947
-947
-946
-946
-946
-946
-946
-945
-945
-945
-944
-944
-944
-944
-943
-943
-942
-942
-942
-942
-942
-942
-942
-942
-942
-942
-942
-942
-942
-942
-942
-942
-943
-943
-943
-943
-945
-945
-946
-946
-946
-947
-947
-947
-949
-949
-949
-951
-951
-952
-953
-953
-954
-955
-956
-956
-957
-957
-958
-959
-960
-961
-961
-962
-962
-963
-963
-963
-965
-964
-965
-966
-966
-966
-967
-967
-967
-968
-968
-968
-969
-969
-969
-970
-970
-970
-971
-971
-971
-971
-972
-972
-972
-972
-972
-972
-972
-973
-972
-972
-973
-972
-973
-973
-973
-974
-974
-973
-974
-974
-974
-974
-974
-975
-974
-974
-975
-975
-975
-975
-975
-976
-976
-975
-975
-974
-974
-973
-972
-970
-969
-966
-965
-961
-957
-953
-948
-943
-936
-929
-920
-912
-903
-893
-882
-871
-858
-846
-834
-820
-807
-793
-780
-767
-753
-741
-728
-717
-706
-697
-687
-680
-673
-669
-666
-664
-664
-665
-668
-672
-678
-686
-694
-706
-717
-730
-745
-760
-776
-793
-811
-828
-846
-864
-882
-901
-918
-936
-952
-969
-983
-997
-1009
-1021
-1032
-1041
-1049
-1056
-1062
-1067
-1070
-1072
-1073
-1073
-1072
-1069
-1067
-1063
-1059
-1055
-1050
-1045
-1039
-1033
-1028
-1023
-1018
-1012
-1008
-1003
-998
-994
-991
-987
-984
-982
-980
-978
-976
-974
-974
-972
-972
-971
-971
-971
-971
-971
-970
-971
-972
-972
-972
-972
-972
-972
-972
-972
-972
-972
-971
-972
-971
-971
-971
-970
-971
-970
-969
-970
-969
-969
-969
-969
-968
-968
-968
-968
-968
-968
-967
-967
-967
-967
-967
-966
-966
-966
-966
-966
-966
-966
-966
-966
-966
-965
-965
-965
-965
-965
-965
-965
-964
-964
-964
-964
-963
-964
-964
-964
-962
-962
-963
-963
-961
-961
-961
-961
-961
-961
-960
-960
-960
-960
-960
-960
-959
-959
-959
-959
-959
-959
-958
-959
-958
-959
-959
-959
-959
-960
-960
-960
-960
-960
-960
-960
-960
-960
-959
-959
-958
-958
-957
-957
-956
-956
-956
-955
-955
-954
-953
-953
-953
-953
-953
-952
-952
-951
-951
-951
-951
-951
-951
-951
-951
-951
-950
-950
-950
-950
-949
-949
-948
-949
-948
-947
-947
-946
-946
-945
-945
-945
-944
-944
-944
-943
-943
-943
-943
-942
-942
-942
-942
-942
-941
-941
-940
-940
-940
-939
-939
-939
-938
-937
-937
-935
-935
-934
-934
-934
-933
-933
-932
-931
-931
-931
-930
-929
-928
-928
-927
-927
-926
-926
-925
-924
-924
-923
-922
-922
-921
-920
-920
-919
-918
-917
-916
-915
-914
-913
-912
-911
-910
-909
-907
-906
-905
-904
-903
-902
-901
-901
-899
-898
-898
-896
-895
-895
-894
-892
-891
-891
-889
-888
-888
-887
-886
-885
-883
-883
-882
-881
-880
-879
-878
-877
-876
-876
-874
-874
-873
-873
-872
-870
-870
-869
-868
-867
-867
-866
-866
-864
-864
-863
-862
-861
-861
-859
-859
-858
-858
-857
-857
-856
-855
-855
-855
-855
-855
-854
-854
-853
-853
-854
-853
-853
-854
-854
-854
-853
-853
-853
-853
-853
-853
-853
-853
-854
-854
-854
-854
-854
-855
-855
-856
-857
-857
-857
-858
-859
-860
-861
-862
-863
-864
-865
-866
-867
-869
-870
-871
-872
-874
-875
-876
-878
-879
-881
-882
-884
-885
-886
-888
-889
-891
-892
-894
-895
-896
-897
-899
-900
-901
-903
-905
-906
-908
-909
-910
-912
-913
-914
-916
-918
-919
-920
-921
-923
-925
-926
-928
-929
-930
-931
-933
-934
-935
-936
-938
-938
-939
-941
-942
-943
-944
-945
-946
-947
-948
-949
-950
-950
-952
-952
-954
-954
-954
-955
-955
-957
-957
-957
-958
-959
-960
-960
-960
-961
-961
-962
-962
-962
-963
-963
-963
-964
-965
-965
-965
-965
-965
-966
-966
-966
-966
-966
-967
-966
-966
-966
-966
-966
-965
-965
-965
-965
-965
-964
-965
-965
-965
-965
-965
-965
-965
-966
-966
-966
-966
-966
-966
-966
-967
-968
-968
-967
-967
-968
-968
-969
-969
-969
-969
-968
-968
-968
-967
-968
-968
-968
-968
-968
-968
-968
-968
-967
-968
-968
-968
-968
-968
-968
-968
-967
-967
-967
-967
-968
-968
-967
-967
-967
-968
-967
-967
-968
-967
-968
-968
-968
-968
-968
-968
-968
-968
-968
-969
-968
-968
-968
-968
-967
-967
-967
-968
-967
-967
-967
-967
-966
-966
-966
-966
-966
-966
-966
-966
-966
-966
-966
-966
-966
-966
-966
-967
-967
-966
-966
-967
-967
-967
-967
-968
-967
-967
-967
-968
-969
-968
-969
-969
-970
-970
-969
-969
-970
-970
-970
-970
-970
-970
-970
-970
-970
-970
-970
-969
-970
-970
-969
-970
-969
-969
-969
-970
-969
-969
-969
-969
-969
-969
-969
-969
-969
-969
-969
-969
-969
-969
-969
-969
-969
-969
-969
-969
-969
-969
-969
-969
-969
-970
-970
-971
-970
-970
-971
-971
-971
-971
-971
-971
-971
-971
-972
-972
-972
-973
-973
-973
-973
-973
-974
-974
-975
-975
-975
-975
-975
-975
-975
-975
-975
-975
-975
-974
-975
-975
-975
-975
-975
-975
-975
-974
-974
-974
-974
-974
-974
-974
-974
-974
-974
-973
-973
-973
-973
-973
-973
-973
-974
-974
-974
-974
-974
-974
-974
-974
-974
-973
-974
-974
-974
-974
-974
-974
-975
-974
-974
-974
-974
-975
-975
-975
-974
-974
-975
-974
-974
-975
-974
-974
-974
-974
-974
-974
-974
-973
-973
-973
-972
-973
-973
-973
-972
-971
-971
-971
-971
-971
-972
-971
-971
-971
-971
-971
-971
-971
-971
-971
-971
-971
-971
-970
-971
-971
-971
-972
-972
-972
-972
-971
-971
-972
-971
-971
-971
-971
-971
-971
-970
-971
-971
-971
-971
-971
-970
-970
-970
-970
-970
-970
-970
-970
-970
-970
-970
-970
-970
-970
-970
-970
-970
-970
-970
-970
-969
-969
-969
-969
-969
-969
-969
-968
-968
-968
-968
-968
-968
-968
-968
-967
-968
-967
-967
-968
-967
-967
-968
-967
-967
-968
-968
-967
-967
-968
-969
-968
-968
-968
-969
-968
-968
-969
-968
-969
-969
-970
-969
-969
-969
-969
-969
-968
-968
-968
-968
-967
-967
-967
-967
-967
-967
-966
-966
-966
-965
-965
-965
-965
-964
-964
-964
-964
-964
-964
-964
-963
-964
-964
-964
-964
-964
-964
-964
-964
-965
-965
-965
-965
-965
-965
-965
-965
-965
-965
-966
-965
-965
-965
-965
-965
-965
-965
-965
-965
-964
-965
-964
-964
-965
-965
-965
-965
-964
-964
-964
-964
-964
-964
-964
-964
-964
-964
-964
-964
-964
-964
-964
-964
-964
-964
-963
-963
-963
-963
-963
-963
-963
-963
-964
-964
-964
-963
-963
-963
-963
-963
-963
-962
-963
-963
-962
-963
-963
-963
-962
-962
-962
-963
-963
-963
-963
-962
-962
-962
-962
-962
-963
-963
-963
-963
-964
-963
-963
-963
-963
-963
-963
-963
-963
-963
-963
-963
-963
-963
-963
-963
-963
-963
-963
-963
-963
-963
-962
-963
-963
-963
-963
-963
-964
-964
-964
-964
-964
-964
-964
-964
-964
-964
-964
-964
-964
-963
-964
-964
-964
-963
-963
-964
-963
-963
-963
-964
-964
-962
-963
-963
-963
-962
-962
-962
-962
-961
-961
-961
-960
-960
-960
-960
-960
-959
-959
-958
-958
-958
-958
-958
-958
-957
-958
-958
-958
-957
-957
-957
-956
-956
-956
-956
-955
-955
-955
-954
-953
-953
-953
-953
-952
-951
-951
-951
-950
-950
-949
-949
-948
-948
-948
-947
-947
-946
-946
-945
-945
-944
-944
-943
-943
-943
-943
-943
-942
-943
-942
-942
-942
-942
-942
-942
-942
-942
-942
-942
-942
-943
-943
-942
-942
-943
-943
-942
-943
-943
-943
-942
-943
-943
-943
-944
-944
-944
-945
-945
-946
-947
-947
-948
-948
-949
-949
-950
-950
-951
-952
-952
-952
-953
-953
-954
-954
-955
-955
-956
-956
-957
-957
-958
-959
-959
-959
-960
-960
-960
-961
-961
-961
-962
-962
-962
-963
-963
-963
-963
-964
-964
-964
-964
-964
-964
-964
-964
-964
-965
-965
-965
-965
-966
-966
-966
-966
-966
-966
-966
-967
-967
-967
-967
-967
-967
-967
-966
-967
-967
-967
-968
-968
-967
-967
-967
-967
-967
-967
-966
-965
-964
-963
-961
-960
-957
-954
-951
-946
-941
-937
-931
-925
-918
-910
-901
-892
-882
-872
-860
-849
-837
-826
-813
-800
-788
-776
-764
-751
-739
-728
-717
-707
-698
-690
-683
-677
-673
-670
-669
-669
-671
-674
-679
-685
-693
-701
-712
-725
-738
-753
-768
-784
-801
-818
-835
-853
-871
-889
-906
-924
-940
-956
-971
-986
-998
-1010
-1022
-1031
-1039
-1047
-1053
-1058
-1062
-1064
-1065
-1066
-1065
-1063
-1060
-1057
-1053
-1049
-1043
-1038
-1033
-1027
-1021
-1015
-1010
-1005
-1001
-996
-992
-988
-985
-982
-979
-976
-974
-972
-971
-970
-969
-969
-969
-968
-968
-967
-968
-968
-969
-968
-968
-968
-969
-969
-969
-968
-969
-969
-968
-969
-968
-968
-968
-968
-968
-968
-967
-967
-967
-967
-968
-968
-968
-967
-967
-967
-968
-968
-967
-967
-968
-968
-968
-967
-967
-967
-967
-967
-967
-966
-965
-966
-965
-965
-964
-964
-964
-963
-963
-963
-963
-963
-962
-962
-962
-962
-963
-963
-964
-964
-964
-965
-965
-965
-965
-965
-965
-965
-965
-965
-964
-965
-964
-964
-964
-964
-964
-964
-963
-963
-963
-963
-962
-962
-962
-962
-962
-962
-962
-962
-962
-962
-962
-962
-962
-962
-962
-962
-962
-961
-961
-961
-961
-961
-960
-959
-959
-959
-959
-958
-959
-959
-959
-959
-958
-958
-958
-958
-958
-958
-958
-958
-958
-958
-958
-959
-958
-958
-958
-958
-958
-958
-958
-958
-958
-958
-957
-957
-957
-957
-956
-956
-956
-956
-955
-954
-953
-953
-953
-953
-952
-951
-951
-950
-950
-950
-949
-949
-949
-949
-949
-948
-948
-948
-948
-948
-947
-948
-948
-948
-946
-946
-946
-944
-944
-944
-944
-942
-942
-942
-940
-940
-940
-940
-938
-938
-937
-936
-936
-935
-935
-935
-934
-933
-933
-933
-932
-931
-930
-930
-929
-928
-927
-927
-925
-924
-924
-922
-921
-920
-919
-919
-918
-916
-915
-914
-913
-911
-911
-910
-909
-908
-907
-906
-905
-905
-903
-902
-901
-901
-900
-899
-898
-897
-896
-895
-894
-894
-892
-891
-891
-890
-890
-889
-889
-887
-887
-886
-886
-885
-884
-884
-883
-883
-882
-882
-881
-881
-881
-880
-880
-879
-879
-878
-878
-877
-877
-876
-876
-876
-876
-875
-875
-875
-874
-874
-874
-874
-873
-873
-873
-873
-873
-872
-872
-873
-873
-872
-873
-873
-874
-874
-875
-875
-875
-876
-876
-877
-878
-878
-879
-879
-880
-881
-882
-883
-883
-884
-885
-885
-887
-887
-889
-890
-891
-891
-893
-894
-895
-896
-897
-899
-900
-901
-903
-904
-905
-906
-907
-910
-911
-912
-914
-915
-916
-917
-920
-921
-923
-924
-925
-926
-927
-928
-929
-930
-931
-933
-933
-935
-935
-937
-937
-938
-939
-940
-941
-941
-943
-943
-944
-945
-946
-946
-948
-949
-950
-950
-951
-952
-953
-954
-955
-955
-957
-957
-958
-958
-959
-960
-960
-960
-961
-961
-963
-963
-963
-963
-963
-964
-964
-964
-964
-965
-965
-965
-965
-965
-966
-966
-967
-967
-967
-967
-967
-967
-967
-967
-967
-967
-967
-967
-968
-968
-967
-968
-968
-968
-968
-969
-969
-969
-969
-969
-969
-969
-970
-970
-970
-971
-970
-970
-971
-971
-971
-971
-971
-971
-971
-971
-971
-971
-971
-971
-970
-969
-970
-970
-970
-970
-970
-969
-969
-969
-968
-968
-968
-967
-968
-968
-968
-967
-967
-967
-967
-967
-967
-967
-968
-967
-967
-967
-967
-968
-967
-967
-967
-968
-967
-967
-968
-968
-968
-968
-967
-967
-968
-967
-967
-967
-967
-967
-966
-967
-966
-966
-966
-966
-966
-967
-966
-966
-966
-966
-966
-966
-966
-966
-966
-966
-966
-966
-967
-967
-967
-967
-967
-967
-967
-967
-966
-966
-966
-966
-967
-966
-966
-967
-967
-967
-967
-967
-967
-967
-967
-967
-967
-967
-967
-967
-967
-967
-968
-967
-967
-967
-967
-967
-967
-967
-967
-967
-966
-966
-966
-966
-966
-966
-965
-965
-965
-965
-965
-964
-964
-964
-964
-964
-964
-964
-965
-965
-965
-965
-964
-964
-964
-964
-964
-964
-965
-965
-965
-965
-965
-965
-965
-966
-965
-965
-965
-966
-966
-966
-966
-966
-966
-966
-966
-966
-967
-967
-967
-967
-967
-967
-967
-967
-967
-967
-967
-967
-967
-967
-967
-967
-967
-967
-967
-966
-966
-966
-966
-966
-966
-965
-966
-965
-965
-965
-966
-965
-965
-965
-965
-965
-965
-965
-965
-966
-966
-967
-967
-966
-966
-966
-966
-966
-966
-966
-966
-966
-966
-965
-965
-965
-965
-965
-964
-964
-964
-964
-964
-963
-963
-963
-963
-963
-963
-963
-963
-964
-963
-963
-964
-964
-965
-964
-964
-965
-965
-964
-964
-965
-965
-965
-965
-965
-965
-964
-964
-964
-965
-964
-964
-964
-964
-964
-964
-964
-964
-963
-963
-963
-963
-963
-963
-963
-963
-963
-963
-963
-962
-962
-962
-962
-963
-962
-962
-962
-962
-962
-962
-962
-962
-962
-962
-962
-962
-962
-963
-963
-963
-963
-963
-963
-963
-963
-963
-963
-963
-963
-963
-963
-962
-962
-962
-962
-962
-962
-962
-962
-962
-962
-962
-962
-962
-961
-961
-961
-962
-961
-961
-961
-960
-960
-960
-960
-960
-960
-960
-960
-960
-960
-960
-960
-960
-960
-960
-960
-960
-961
-960
-961
-961
-961
-961
-961
-961
-961
-960
-960
-960
-960
-960
-959
-959
-959
-959
-960
-960
-959
-959
-959
-959
-959
-958
-958
-958
-958
-958
-958
-958
-958
-958
-958
-958
-958
-958
-957
-957
-957
-957
-957
-958
-957
-957
-957
-957
-957
-957
-957
-958
-957
-957
-957
-957
-958
-958
-957
-957
-958
-957
-957
-957
-957
-957
-956
-956
-956
-956
-956
-956
-956
-956
-955
-955
-955
-955
-955
-955
-954
-954
-954
-954
-954
-954
-954
-955
-955
-955
-955
-955
-955
-955
-955
-955
-955
-956
-956
-956
-956
-956
-956
-956
-956
-956
-956
-956
-956
-956
-957
-957
-956
-956
-956
-956
-956
-956
-957
-957
-957
-956
-956
-956
-956
-956
-955
-955
-955
-956
-956
-956
-956
-956
-956
-956
-956
-956
-955
-955
-956
-956
-956
-956
-956
-956
-956
-956
-956
-956
-956
-956
-956
-956
-956
-956
-956
-956
-956
-956
-956
-955
-955
-955
-955
-955
-954
-955
-955
-954
-954
-955
-955
-955
-955
-955
-955
-955
-955
-956
-956
-956
-956
-956
-956
-957
-957
-957
-958
-958
-957
-957
-957
-956
-956
-956
-956
-956
-955
-955
-954
-955
-954
-954
-953
-952
-953
-952
-951
-951
-951
-950
-950
-949
-949
-949
-948
-948
-947
-947
-946
-946
-945
-946
-945
-944
-943
-943
-942
-942
-941
-940
-940
-940
-938
-939
-937
-937
-936
-936
-935
-934
-934
-934
-933
-933
-933
-933
-933
-933
-933
-933
-933
-933
-933
-933
-933
-933
-933
-933
-934
-934
-934
-934
-934
-935
-935
-935
-935
-935
-935
-937
-937
-937
-937
-937
-937
-938
-938
-939
-939
-940
-940
-941
-942
-942
-942
-942
-943
-944
-944
-944
-945
-945
-947
-947
-947
-948
-948
-948
-949
-950
-950
-950
-950
-951
-951
-951
-951
-951
-951
-951
-951
-950
-951
-951
-951
-951
-951
-951
-951
-951
-951
-951
-951
-951
-951
-951
-952
-952
-952
-952
-951
-951
-952
-951
-951
-951
-951
-950
-950
-950
-950
-949
-949
-949
-949
-949
-949
-947
-948
-948
-948
-947
-947
-946
-946
-946
-945
-944
-943
-943
-941
-940
-938
-935
-932
-928
-923
-918
-912
-906
-899
-891
-882
-872
-861
-850
-839
-826
-813
-800
-786
-773
-760
-746
-734
-720
-708
-697
-685
-675
-666
-657
-651
-646
-643
-642
-642
-644
-647
-652
-659
-667
-676
-688
-700
-714
-729
-745
-762
-779
-797
-816
-833
-852
-871
-889
-906
-923
-940
-955
-968
-982
-994
-1004
-1014
-1023
-1029
-1035
-1040
-1043
-1046
-1048
-1047
-1047
-1045
-1041
-1038
-1034
-1029
-1024
-1019
-1013
-1008
-1001
-996
-989
-984
-979
-974
-968
-964
-960
-955
-952
-948
-945
-943
-940
-938
-937
-935
-934
-933
-933
-932
-932
-931
-931
-931
-931
-931
-931
-931
-931
-931
-931
-930
-930
-930
-930
-929
-930
-930
-929
-929
-929
-929
-928
-928
-928
-928
-927
-927
-927
-927
-927
-927
-927
-927
-926
-925
-926
-925
-925
-925
-924
-924
-923
-922
-922
-922
-921
-921
-920
-920
-919
-919
-919
-919
-918
-918
-918
-917
-918
-918
-918
-918
-918
-918
-918
-918
-919
-918
-918
-919
-919
-919
-919
-918
-918
-917
-917
-917
-917
-917
-916
-917
-917
-916
-917
-916
-916
-916
-916
-916
-915
-916
-916
-915
-915
-915
-915
-915
-915
-915
-914
-913
-913
-913
-913
-913
-913
-912
-912
-912
-911
-911
-911
-911
-911
-910
-910
-910
-909
-909
-909
-909
-909
-909
-908
-908
-907
-907
-907
-906
-906
-906
-905
-905
-905
-905
-904
-903
-903
-903
-903
-902
-902
-901
-901
-901
-900
-900
-900
-900
-899
-899
-899
-899
-898
-897
-896
-896
-895
-894
-894
-894
-893
-893
-892
-891
-890
-890
-889
-889
-888
-887
-886
-886
-886
-885
-885
-884
-884
-882
-882
-881
-881
-879
-879
-878
-878
-877
-877
-876
-875
-874
-873
-873
-873
-872
-872
-870
-869
-868
-867
-867
-866
-865
-865
-864
-862
-862
-861
-860
-859
-858
-857
-856
-855
-854
-853
-851
-851
-849
-848
-848
-846
-845
-843
-843
-842
-840
-839
-838
-837
-836
-835
-834
-833
-832
-831
-830
-829
-828
-827
-826
-825
-824
-823
-822
-821
-820
-819
-818
-817
-816
-815
-814
-814
-813
-812
-812
-811
-809
-810
-808
-807
-807
-806
-806
-805
-805
-805
-804
-804
-804
-803
-803
-803
-803
-803
-802
-802
-802
-802
-802
-801
-801
-801
-801
-801
-801
-800
-800
-800
-800
-800
-800
-800
-800
-801
-801
-801
-801
-802
-802
-802
-802
-803
-804
-805
-805
-807
-808
-808
-809
-810
-811
-813
-814
-816
-817
-818
-819
-820
-821
-822
-824
-825
-827
-828
-828
-830
-831
-833
-834
-835
-837
-838
-839
-841
-843
-844
-846
-847
-848
-849
-851
-852
-853
-854
-856
-858
-859
-860
-863
-864
-865
-866
-867
-868
-869
-871
-872
-873
-874
-875
-877
-877
-879
-879
-880
-881
-882
-882
-884
-884
-885
-885
-886
-887
-888
-888
-889
-890
-890
-891
-892
-892
-893
-894
-895
-894
-895
-896
-897
-897
-897
-898
-898
-899
-898
-898
-899
-899
-899
-899
-899
-899
-899
-899
-899
-899
-899
-899
-898
-898
-898
-898
-898
-899
-899
-899
-899
-899
-899
-899
-899
-899
-899
-899
-899
-899
-900
-900
-900
-900
-900
-900
-900
-900
-900
-899
-899
-899
-899
-899
-899
-899
-899
-899
-899
-899
-899
-899
-899
-899
-899
-899
-899
-899
-899
-899
-898
-898
-898
-898
-898
-898
-899
-898
-898
-898
-898
-897
-897
-897
-897
-897
-897
-896
-896
-897
-897
-897
-896
-896
-896
-895
-895
-896
-895
-895
-895
-895
-895
-894
-894
-894
-894
-893
-893
-893
-893
-893
-893
-893
-893
-893
-893
-892
-893
-893
-892
-892
-892
-893
-893
-892
-892
-893
-892
-892
-892
-892
-892
-892
-892
-891
-891
-891
-891
-891
-891
-891
-892
-892
-892
-891
-891
-891
-892
-892
-892
-892
-892
-893
-892
-892
-893
-893
-893
-893
-893
-893
-893
-894
-894
-894
-894
-894
-894
-894
-894
-894
-894
-894
-894
-893
-893
-893
-894
-894
-894
-894
-894
-894
-895
-894
-894
-895
-895
-896
-896
-896
-896
-896
-896
-896
-897
-897
-896
-896
-897
-897
-897
-897
-896
-897
-897
-897
-896
-896
-895
-896
-895
-896
-896
-896
-895
-895
-895
-895
-894
-895
-895
-895
-895
-894
-894
-894
-895
-895
-895
-895
-894
-895
-895
-894
-894
-895
-895
-895
-895
-895
-896
-896
-896
-896
-896
-896
-896
-896
-896
-896
-896
-896
-897
-896
-896
-896
-896
-896
-896
-896
-896
-896
-896
-896
-897
-896
-896
-896
-896
-896
-896
-896
-896
-896
-896
-896
-896
-896
-897
-896
-896
-896
-896
-896
-896
-896
-896
-896
-896
-895
-895
-896
-896
-896
-896
-896
-896
-896
-896
-896
-896
-896
-897
-897
-896
-896
-896
-896
-897
-897
-897
-897
-897
-897
-897
-897
-897
-897
-897
-897
-897
-897
-897
-897
-897
-897
-896
-897
-897
-897
-897
-897
-896
-896
-896
-896
-896
-896
-896
-896
-895
-896
-896
-896
-896
-895
-895
-895
-895
-895
-895
-896
-896
-895
-895
-895
-896
-896
-896
-896
-896
-896
-896
-896
-896
-896
-895
-895
-896
-896
-896
-896
-896
-896
-896
-896
-896
-896
-896
-896
-896
-895
-895
-895
-895
-894
-894
-894
-894
-894
-894
-894
-893
-893
-893
-894
-893
-893
-893
-893
-893
-893
-893
-893
-893
-894
-894
-893
-893
-893
-893
-893
-893
-893
-893
-893
-893
-893
-892
-892
-892
-892
-892
-892
-892
-892
-892
-892
-892
-892
-893
-893
-893
-893
-893
-892
-892
-892
-892
-892
-892
-892
-893
-893
-892
-893
-893
-894
-894
-893
-893
-893
-893
-893
-893
-892
-892
-892
-892
-891
-890
-891
-891
-890
-889
-889
-889
-889
-889
-889
-889
-889
-889
-889
-889
-889
-890
-890
-890
-891
-891
-891
-891
-891
-890
-891
-891
-891
-891
-891
-890
-890
-890
-889
-890
-889
-890
-890
-890
-890
-890
-890
-889
-889
-889
-889
-890
-890
-889
-889
-889
-890
-890
-890
-890
-890
-890
-889
-889
-889
-889
-889
-888
-888
-889
-889
-888
-888
-887
-888
-888
-887
-888
-888
-888
-888
-888
-887
-888
-888
-888
-888
-887
-888
-888
-888
-888
-888
-888
-888
-888
-888
-888
-888
-888
-888
-888
-888
-887
-888
-887
-887
-886
-887
-886
-886
-885
-886
-885
-885
-885
-884
-884
-884
-883
-883
-884
-883
-883
-882
-882
-882
-882
-881
-881
-881
-880
-880
-880
-881
-880
-879
-879
-879
-879
-879
-879
-879
-879
-879
-879
-879
-878
-878
-878
-877
-877
-878
-877
-877
-876
-876
-875
-875
-875
-875
-873
-873
-873
-872
-872
-872
-871
-871
-871
-870
-869
-869
-869
-868
-868
-868
-867
-867
-868
-867
-867
-867
-867
-866
-867
-867
-868
-868
-868
-868
-869
-868
-869
-869
-870
-870
-871
-871
-871
-871
-872
-872
-872
-872
-873
-874
-874
-873
-873
-874
-874
-875
-875
-876
-876
-876
-877
-877
-878
-879
-879
-880
-881
-881
-882
-882
-883
-883
-884
-884
-885
-885
-886
-886
-886
-886
-887
-887
-886
-886
-887
-887
-887
-888
-888
-888
-889
-889
-889
-890
-891
-891
-891
-891
-891
-891
-892
-892
-892
-892
-891
-891
-891
-891
-891
-891
-890
-890
-890
-889
-889
-888
-888
-888
-888
-887
-887
-886
-886
-885
-885
-884
-883
-882
-881
-879
-877
-875
-871
-867
-863
-857
-851
-846
-838
-830
-821
-811
-801
-789
-777
-765
-752
-738
-725
-710
-696
-683
-669
-657
-643
-631
-619
-608
-598
-589
-581
-576
-571
-569
-567
-567
-568
-572
-577
-584
-592
-601
-612
-624
-639
-653
-669
-685
-703
-721
-739
-757
-776
-795
-813
-831
-849
-865
-881
-896
-909
-922
-934
-944
-953
-961
-968
-974
-977
-981
-983
-983
-982
-981
-979
-976
-972
-968
-963
-958
-952
-947
-941
-935
-930
-925
-919
-914
-909
-905
-901
-898
-895
-891
-889
-887
-885
-882
-881
-881
-880
-880
-879
-878
-878
-878
-878
-878
-878
-878
-878
-878
-878
-878
-878
-878
-878
-878
-877
-877
-877
-878
-877
-877
-876
-876
-876
-876
-876
-876
-875
-875
-874
-875
-875
-875
-875
-875
-875
-875
-875
-876
-876
-875
-875
-876
-876
-876
-876
-876
-877
-877
-877
-877
-877
-877
-877
-877
-877
-877
-876
-875
-875
-875
-876
-876
-875
-875
-874
-874
-874
-874
-874
-875
-874
-874
-874
-873
-874
-874
-873
-873
-873
-873
-872
-872
-873
-873
-872
-872
-872
-872
-871
-871
-871
-871
-871
-870
-870
-870
-870
-870
-870
-870
-870
-869
-869
-868
-869
-869
-869
-869
-868
-868
-868
-868
-869
-869
-868
-868
-868
-868
-868
-868
-868
-867
-867
-867
-867
-867
-866
-866
-866
-866
-866
-864
-864
-864
-864
-864
-864
-863
-863
-863
-862
-862
-862
-862
-861
-861
-861
-861
-861
-860
-860
-860
-860
-860
-860
-859
-859
-859
-859
-858
-858
-858
-856
-856
-856
-855
-855
-855
-853
-852
-853
-852
-852
-850
-849
-849
-848
-848
-848
-847
-847
-846
-846
-846
-846
-845
-845
-844
-844
-842
-842
-842
-841
-840
-839
-839
-838
-838
-837
-836
-835
-834
-834
-833
-832
-831
-829
-829
-828
-827
-826
-825
-825
-824
-823
-822
-820
-819
-819
-817
-816
-815
-815
-814
-813
-811
-810
-810
-809
-808
-806
-805
-804
-803
-802
-801
-800
-800
-799
-798
-797
-796
-795
-794
-794
-793
-792
-791
-790
-789
-789
-788
-788
-786
-786
-785
-785
-784
-784
-784
-782
-782
-781
-781
-780
-779
-779
-778
-777
-777
-776
-776
-775
-775
-774
-774
-774
-773
-773
-772
-772
-773
-772
-772
-772
-772
-774
-774
-774
-775
-775
-776
-776
-777
-777
-778
-779
-779
-780
-782
-783
-783
-784
-785
-786
-787
-787
-788
-790
-791
-792
-793
-794
-795
-796
-797
-799
-799
-801
-802
-804
-805
-806
-807
-809
-810
-811
-812
-814
-815
-817
-817
-819
-820
-821
-822
-825
-826
-827
-829
-831
-833
-834
-835
-838
-839
-841
-842
-843
-845
-847
-848
-850
-852
-853
-854
-856
-857
-858
-860
-861
-862
-863
-864
-865
-866
-868
-869
-870
-871
-872
-873
-874
-875
-876
-878
-878
-880
-880
-882
-882
-882
-884
-884
-885
-886
-886
-887
-888
-889
-889
-890
-890
-890
-891
-891
-892
-892
-892
-893
-893
-893
-893
-894
-893
-893
-895
-895
-895
-895
-895
-896
-896
-896
-897
-897
-897
-897
-898
-898
-898
-898
-899
-899
-899
-899
-899
-900
-900
-900
-900
-900
-901
-901
-901
-901
-901
-901
-902
-901
-901
-902
-902
-903
-903
-903
-903
-903
-904
-904
-905
-905
-905
-905
-905
-905
-905
-906
-906
-906
-906
-906
-906
-906
-906
-906
-906
-907
-907
-907
-907
-907
-907
-907
-908
-907
-907
-907
-908
-908
-908
-908
-909
-908
-909
-909
-909
-909
-909
-909
-909
-909
-909
-910
-910
-910
-910
-910
-910
-910
-910
-910
-910
-910
-910
-910
-911
-911
-911
-912
-912
-912
-912
-912
-912
-912
-911
-911
-912
-912
-912
-912
-912
-912
-912
-912
-912
-912
-912
-912
-913
-913
-913
-914
-914
-914
-914
-914
-914
-916
-916
-916
-916
-916
-916
-917
-916
-917
-917
-917
-917
-916
-917
-917
-917
-918
-917
-917
-918
-918
-918
-918
-918
-919
-919
-920
-920
-920
-920
-920
-921
-921
-921
-921
-923
-923
-923
-923
-923
-924
-924
-924
-925
-925
-925
-926
-926
-926
-926
-926
-927
-927
-927
-928
-928
-928
-928
-929
-929
-929
-930
-930
-929
-930
-930
-931
-931
-931
-931
-932
-932
-933
-933
-932
-932
-933
-933
-933
-933
-933
-934
-934
-934
-934
-934
-934
-933
-933
-933
-933
-933
-933
-933
-934
-934
-933
-933
-934
-934
-934
-935
-934
-935
-935
-935
-936
-936
-936
-937
-937
-937
-937
-937
-937
-938
-938
-937
-937
-938
-938
-937
-937
-937
-937
-937
-937
-937
-937
-936
-936
-936
-936
-936
-936
-935
-935
-935
-935
-935
-935
-935
-934
-934
-935
-935
-935
-935
-935
-934
-934
-934
-934
-934
-934
-935
-935
-935
-935
-935
-935
-936
-936
-936
-936
-937
-937
-937
-937
-938
-938
-938
-939
-939
-939
-939
-940
-940
-940
-940
-940
-940
-940
-941
-941
-941
-941
-941
-940
-941
-941
-941
-941
-941
-941
-941
-942
-941
-941
-942
-942
-942
-942
-942
-942
-942
-942
-943
-942
-942
-942
-942
-942
-942
-942
-942
-942
-942
-942
-942
-942
-943
-943
-943
-943
-943
-943
-944
-943
-943
-943
-943
-944
-943
-943
-944
-944
-944
-944
-944
-944
-944
-944
-944
-944
-944
-943
-943
-943
-944
-943
-943
-943
-944
-943
-943
-943
-943
-943
-943
-943
-943
-943
-943
-943
-944
-944
-944
-944
-944
-944
-943
-943
-943
-943
-943
-943
-943
-943
-943
-943
-943
-943
-943
-943
-943
-943
-943
-943
-944
-943
-944
-944
-945
-944
-945
-945
-945
-945
-945
-945
-945
-945
-946
-946
-946
-946
-946
-946
-945
-946
