# Simple Text Format
# Sampling Rate (Hz):= 1200.00
# Resolution:= 12
# Labels:= ECG	 V1
# Age:=	69
# Gender:=	Feminino
-127
-136
-144
-153
-163
-172
-182
-191
-200
-209
-217
-225
-233
-240
-247
-252
-256
-262
-265
-268
-270
-273
-274
-274
-275
-274
-274
-272
-270
-269
-266
-263
-261
-258
-254
-250
-245
-241
-237
-232
-226
-221
-216
-211
-204
-199
-192
-186
-179
-173
-167
-161
-154
-149
-141
-137
-130
-125
-120
-114
-109
-104
-100
-97
-93
-88
-86
-83
-81
-78
-76
-75
-74
-72
-71
-70
-70
-70
-69
-68
-68
-68
-67
-67
-67
-67
-66
-65
-65
-65
-65
-65
-64
-64
-64
-62
-62
-62
-63
-63
-63
-63
-63
-63
-63
-63
-63
-63
-64
-64
-64
-64
-64
-64
-64
-64
-64
-63
-63
-63
-63
-63
-63
-63
-63
-63
-63
-62
-62
-62
-62
-62
-61
-62
-62
-62
-62
-62
-63
-63
-63
-63
-64
-63
-63
-63
-63
-64
-64
-64
-64
-64
-64
-64
-64
-64
-64
-64
-63
-63
-63
-63
-61
-61
-61
-61
-61
-61
-61
-61
-61
-61
-61
-61
-61
-61
-61
-61
-60
-60
-60
-61
-61
-61
-61
-60
-60
-60
-60
-61
-61
-61
-61
-61
-61
-61
-61
-61
-61
-61
-61
-62
-62
-62
-62
-62
-62
-61
-61
-61
-61
-61
-61
-61
-60
-60
-60
-60
-60
-59
-60
-60
-60
-59
-59
-60
-60
-60
-60
-60
-61
-61
-61
-61
-61
-62
-62
-62
-62
-62
-61
-61
-61
-62
-62
-62
-61
-61
-61
-61
-60
-61
-61
-61
-61
-61
-60
-61
-61
-60
-61
-61
-60
-60
-61
-60
-60
-60
-60
-60
-60
-59
-59
-59
-59
-59
-59
-58
-59
-59
-58
-58
-58
-58
-58
-58
-58
-58
-58
-58
-58
-59
-58
-58
-58
-58
-58
-58
-58
-58
-58
-58
-58
-58
-59
-59
-59
-59
-59
-58
-59
-59
-59
-59
-60
-60
-60
-60
-60
-60
-61
-60
-61
-61
-61
-62
-62
-62
-62
-62
-62
-62
-62
-63
-63
-64
-64
-64
-64
-64
-64
-64
-64
-65
-65
-65
-65
-66
-67
-67
-67
-67
-66
-67
-67
-68
-68
-69
-69
-69
-70
-70
-70
-70
-71
-71
-71
-72
-72
-72
-73
-73
-72
-73
-73
-74
-74
-74
-74
-74
-76
-76
-75
-76
-77
-77
-77
-77
-77
-77
-78
-78
-78
-78
-78
-78
-78
-79
-79
-79
-78
-79
-79
-79
-79
-79
-80
-80
-79
-79
-80
-80
-79
-79
-80
-80
-80
-80
-79
-80
-79
-79
-79
-79
-79
-79
-78
-78
-79
-78
-78
-78
-77
-78
-77
-77
-77
-78
-76
-77
-77
-77
-76
-77
-77
-76
-77
-77
-76
-77
-76
-77
-77
-76
-77
-77
-77
-76
-77
-77
-76
-76
-77
-77
-76
-76
-77
-76
-76
-76
-76
-76
-76
-76
-75
-75
-75
-76
-76
-76
-75
-75
-75
-75
-75
-74
-74
-74
-74
-74
-74
-74
-73
-73
-74
-73
-73
-73
-73
-74
-74
-74
-73
-73
-73
-74
-74
-74
-74
-74
-74
-74
-74
-73
-73
-73
-72
-72
-72
-72
-71
-71
-71
-71
-70
-70
-70
-70
-70
-70
-69
-69
-69
-70
-70
-70
-70
-70
-71
-71
-71
-71
-70
-70
-70
-71
-71
-71
-71
-71
-71
-72
-71
-71
-71
-71
-71
-71
-71
-71
-71
-71
-71
-71
-71
-71
-71
-70
-70
-71
-71
-71
-71
-71
-71
-71
-72
-72
-71
-71
-71
-72
-72
-72
-72
-72
-72
-72
-72
-72
-72
-71
-71
-71
-71
-71
-71
-71
-71
-71
-71
-71
-71
-71
-71
-70
-70
-70
-70
-71
-71
-71
-70
-70
-71
-70
-70
-69
-70
-70
-70
-71
-70
-70
-70
-70
-71
-71
-71
-71
-71
-72
-72
-72
-72
-72
-72
-73
-73
-73
-73
-73
-73
-72
-72
-73
-72
-72
-73
-72
-72
-72
-72
-72
-72
-71
-71
-72
-71
-71
-72
-72
-72
-72
-73
-73
-72
-72
-72
-73
-73
-73
-73
-74
-73
-73
-73
-74
-74
-73
-73
-73
-73
-74
-74
-74
-74
-74
-74
-74
-74
-74
-74
-74
-74
-74
-74
-74
-75
-75
-75
-75
-75
-75
-75
-75
-75
-75
-76
-76
-76
-76
-76
-76
-76
-76
-76
-76
-77
-76
-76
-76
-76
-76
-76
-76
-77
-77
-77
-77
-77
-77
-77
-77
-77
-77
-76
-77
-77
-77
-77
-76
-76
-76
-76
-76
-76
-76
-76
-75
-75
-75
-75
-75
-75
-75
-75
-75
-75
-76
-76
-75
-75
-76
-76
-76
-76
-76
-76
-76
-76
-76
-77
-77
-77
-77
-77
-77
-76
-76
-76
-77
-77
-76
-76
-76
-76
-77
-77
-77
-77
-77
-77
-77
-77
-76
-76
-76
-76
-77
-77
-77
-77
-78
-78
-78
-78
-78
-78
-78
-77
-77
-77
-77
-78
-78
-78
-78
-77
-77
-78
-77
-77
-77
-78
-78
-78
-77
-77
-77
-77
-76
-77
-77
-77
-77
-77
-78
-77
-77
-78
-78
-78
-78
-78
-78
-78
-78
-78
-78
-79
-79
-78
-78
-79
-79
-79
-80
-80
-80
-80
-80
-79
-79
-79
-80
-80
-80
-79
-79
-79
-79
-79
-79
-79
-79
-79
-79
-79
-79
-79
-79
-79
-79
-80
-80
-80
-80
-79
-79
-79
-79
-80
-80
-80
-80
-80
-80
-80
-79
-79
-80
-79
-79
-80
-80
-80
-80
-80
-80
-80
-80
-80
-80
-80
-81
-81
-80
-81
-81
-81
-80
-80
-80
-81
-81
-81
-81
-82
-81
-81
-81
-81
-81
-81
-81
-81
-81
-82
-82
-81
-82
-82
-82
-82
-82
-82
-82
-81
-81
-81
-81
-80
-81
-81
-80
-80
-80
-80
-79
-80
-80
-79
-79
-79
-80
-80
-79
-79
-79
-79
-80
-80
-80
-81
-81
-81
-81
-80
-81
-81
-81
-82
-81
-81
-82
-82
-81
-82
-82
-81
-81
-82
-82
-81
-81
-81
-81
-81
-81
-81
-81
-81
-82
-82
-82
-82
-82
-82
-82
-83
-83
-83
-83
-83
-83
-83
-84
-84
-83
-83
-83
-83
-83
-82
-82
-82
-81
-81
-81
-81
-81
-81
-82
-81
-81
-81
-81
-81
-81
-81
-81
-82
-82
-81
-82
-82
-82
-82
-82
-83
-82
-82
-82
-82
-81
-81
-80
-79
-79
-78
-78
-78
-77
-76
-77
-76
-75
-75
-74
-74
-74
-74
-73
-73
-73
-73
-73
-74
-73
-73
-73
-74
-74
-75
-75
-76
-76
-76
-76
-77
-77
-78
-79
-79
-80
-81
-81
-82
-83
-83
-84
-84
-85
-85
-86
-86
-86
-85
-86
-86
-86
-87
-86
-87
-86
-86
-86
-86
-86
-86
-86
-86
-86
-86
-85
-86
-85
-85
-85
-86
-85
-85
-85
-85
-85
-85
-84
-85
-84
-84
-84
-85
-84
-85
-85
-85
-84
-85
-85
-85
-85
-85
-85
-86
-86
-86
-87
-86
-86
-86
-86
-87
-87
-87
-87
-87
-87
-87
-88
-88
-88
-88
-88
-89
-89
-89
-89
-90
-89
-89
-89
-89
-89
-89
-89
-89
-89
-89
-90
-90
-90
-90
-90
-90
-90
-89
-89
-90
-90
-90
-91
-91
-91
-92
-92
-91
-92
-92
-92
-92
-92
-92
-92
-91
-91
-91
-90
-90
-90
-90
-89
-90
-90
-90
-91
-91
-92
-94
-96
-99
-103
-108
-113
-118
-125
-132
-139
-148
-156
-165
-175
-184
-194
-205
-215
-226
-236
-246
-255
-264
-272
-280
-287
-293
-300
-304
-308
-312
-315
-317
-318
-319
-319
-318
-317
-314
-311
-308
-305
-301
-296
-291
-286
-281
-275
-269
-262
-256
-248
-242
-235
-228
-220
-214
-206
-199
-192
-186
-178
-172
-166
-160
-154
-148
-142
-137
-132
-128
-123
-118
-115
-111
-108
-105
-102
-100
-98
-96
-94
-92
-91
-90
-88
-87
-86
-85
-85
-84
-83
-83
-83
-81
-81
-81
-80
-80
-80
-79
-79
-78
-78
-77
-77
-77
-76
-76
-76
-76
-75
-74
-74
-74
-73
-73
-73
-73
-73
-72
-72
-72
-71
-71
-70
-70
-70
-69
-69
-69
-69
-69
-69
-69
-69
-69
-69
-69
-69
-69
-70
-70
-70
-69
-69
-69
-69
-69
-69
-69
-69
-69
-69
-68
-68
-67
-67
-67
-67
-67
-67
-67
-67
-67
-66
-66
-66
-66
-66
-66
-66
-66
-66
-66
-66
-66
-65
-65
-65
-65
-65
-66
-66
-65
-65
-64
-64
-63
-64
-64
-64
-64
-62
-62
-62
-62
-62
-62
-62
-62
-61
-61
-61
-61
-61
-61
-61
-61
-60
-61
-61
-62
-61
-61
-61
-61
-61
-61
-61
-61
-61
-61
-61
-61
-61
-61
-60
-60
-60
-61
-60
-60
-60
-60
-60
-60
-60
-60
-60
-60
-60
-60
-61
-61
-61
-61
-60
-61
-61
-61
-61
-61
-61
-62
-62
-61
-61
-61
-61
-61
-61
-61
-61
-61
-61
-61
-61
-61
-61
-60
-60
-61
-61
-61
-60
-60
-60
-60
-61
-60
-60
-60
-60
-60
-60
-60
-60
-60
-61
-60
-61
-60
-61
-61
-60
-61
-61
-61
-61
-61
-62
-62
-62
-62
-62
-63
-63
-63
-63
-63
-63
-63
-63
-62
-62
-63
-62
-63
-63
-63
-62
-63
-63
-63
-62
-63
-63
-63
-64
-65
-65
-64
-65
-65
-66
-66
-67
-67
-67
-67
-68
-69
-69
-69
-69
-70
-70
-69
-69
-69
-69
-69
-69
-70
-70
-70
-70
-70
-70
-70
-71
-71
-70
-71
-71
-71
-72
-72
-73
-73
-73
-74
-74
-74
-75
-75
-75
-75
-76
-76
-77
-77
-78
-78
-79
-79
-79
-81
-81
-81
-81
-82
-82
-83
-83
-84
-84
-84
-84
-85
-85
-86
-86
-85
-85
-86
-85
-85
-86
-85
-85
-85
-85
-85
-85
-85
-84
-84
-84
-84
-84
-83
-84
-83
-83
-82
-83
-82
-83
-82
-83
-82
-82
-82
-81
-82
-82
-81
-81
-81
-81
-81
-81
-82
-81
-81
-81
-82
-82
-81
-82
-82
-82
-82
-82
-82
-83
-83
-83
-83
-82
-82
-82
-82
-83
-83
-82
-82
-82
-82
-81
-82
-82
-81
-82
-82
-81
-82
-82
-82
-82
-82
-82
-82
-82
-82
-81
-81
-81
-81
-80
-80
-79
-80
-80
-79
-79
-79
-78
-78
-78
-78
-78
-78
-78
-77
-77
-77
-78
-78
-78
-78
-78
-78
-79
-79
-79
-79
-78
-78
-79
-79
-79
-79
-79
-79
-79
-79
-79
-79
-79
-79
-79
-79
-79
-79
-79
-78
-77
-77
-77
-77
-77
-77
-77
-76
-76
-76
-76
-76
-76
-76
-76
-76
-76
-76
-76
-76
-76
-76
-76
-77
-77
-77
-78
-78
-78
-78
-78
-78
-78
-78
-78
-78
-78
-78
-78
-78
-78
-78
-77
-76
-76
-76
-76
-76
-75
-76
-75
-75
-75
-75
-75
-75
-75
-76
-76
-75
-75
-76
-76
-76
-77
-77
-77
-77
-77
-78
-78
-78
-77
-78
-78
-77
-77
-77
-76
-76
-76
-76
-75
-75
-75
-75
-75
-74
-74
-74
-74
-75
-75
-75
-75
-76
-76
-76
-76
-76
-76
-76
-77
-77
-77
-77
-78
-78
-78
-78
-78
-78
-78
-78
-78
-78
-79
-79
-78
-78
-79
-79
-79
-79
-79
-79
-79
-79
-79
-79
-79
-79
-80
-79
-79
-79
-79
-78
-78
-78
-78
-78
-79
-79
-79
-79
-78
-78
-78
-77
-77
-78
-78
-78
-78
-79
-79
-78
-79
-79
-79
-80
-80
-80
-79
-79
-80
-80
-80
-80
-80
-80
-80
-80
-81
-81
-81
-81
-81
-80
-81
-81
-81
-81
-81
-82
-82
-82
-82
-83
-82
-82
-82
-82
-82
-82
-82
-82
-81
-81
-81
-81
-81
-81
-81
-80
-81
-81
-81
-81
-80
-81
-81
-81
-81
-82
-81
-81
-82
-82
-82
-82
-82
-82
-82
-82
-82
-81
-81
-81
-81
-81
-81
-81
-81
-81
-81
-81
-81
-81
-81
-81
-81
-81
-82
-82
-82
-83
-83
-83
-83
-84
-84
-84
-84
-84
-84
-84
-85
-84
-84
-84
-85
-85
-84
-84
-84
-84
-84
-84
-84
-84
-84
-83
-83
-82
-82
-82
-81
-81
-81
-81
-81
-80
-80
-79
-79
-79
-80
-80
-80
-80
-80
-81
-81
-81
-81
-82
-82
-82
-82
-84
-84
-84
-84
-85
-85
-85
-84
-84
-84
-84
-84
-84
-84
-84
-85
-84
-84
-84
-84
-84
-84
-84
-84
-84
-84
-83
-83
-83
-83
-82
-82
-82
-82
-82
-82
-82
-82
-82
-81
-81
-81
-82
-82
-82
-83
-83
-83
-83
-83
-83
-83
-83
-83
-83
-83
-83
-83
-83
-83
-83
-83
-83
-83
-83
-84
-83
-83
-83
-83
-83
-83
-83
-83
-83
-84
-84
-84
-83
-84
-84
-84
-84
-83
-83
-83
-83
-83
-83
-83
-83
-83
-83
-82
-82
-83
-83
-83
-83
-83
-83
-83
-83
-83
-83
-83
-83
-84
-84
-84
-84
-84
-84
-84
-84
-84
-84
-84
-83
-83
-83
-83
-83
-83
-83
-83
-82
-82
-83
-83
-83
-82
-82
-82
-82
-82
-82
-83
-83
-83
-83
-83
-83
-82
-83
-83
-83
-83
-83
-83
-82
-82
-82
-82
-82
-82
-82
-82
-82
-82
-82
-82
-82
-82
-82
-82
-82
-82
-82
-81
-81
-82
-82
-82
-82
-82
-82
-82
-81
-82
-82
-82
-82
-82
-82
-82
-81
-81
-81
-81
-81
-81
-81
-81
-80
-80
-80
-81
-81
-80
-80
-80
-80
-81
-81
-80
-80
-80
-80
-81
-80
-80
-80
-80
-80
-80
-80
-80
-81
-81
-81
-81
-81
-82
-82
-82
-81
-82
-82
-82
-82
-82
-82
-82
-82
-82
-82
-82
-82
-81
-82
-81
-81
-81
-81
-80
-80
-80
-80
-80
-80
-80
-80
-80
-80
-80
-79
-79
-79
-78
-78
-78
-78
-78
-77
-76
-76
-76
-76
-75
-74
-74
-74
-73
-72
-72
-72
-71
-70
-70
-70
-69
-69
-69
-69
-67
-68
-68
-68
-68
-69
-69
-69
-70
-70
-71
-71
-72
-71
-72
-73
-74
-75
-75
-75
-76
-77
-77
-78
-78
-79
-79
-79
-80
-81
-81
-81
-82
-82
-83
-83
-84
-84
-84
-84
-84
-85
-85
-85
-85
-85
-85
-84
-84
-84
-83
-84
-83
-83
-82
-81
-81
-80
-81
-80
-80
-79
-79
-79
-80
-79
-79
-79
-80
-79
-80
-80
-81
-81
-81
-81
-82
-82
-82
-82
-83
-83
-83
-84
-84
-84
-84
-83
-84
-84
-84
-84
-84
-85
-85
-84
-84
-84
-84
-84
-84
-84
-84
-84
-84
-84
-83
-83
-83
-83
-83
-83
-82
-82
-82
-82
-82
-82
-82
-83
-83
-82
-82
-83
-83
-83
-84
-84
-84
-84
-84
-85
-85
-84
-84
-84
-83
-83
-84
-84
-84
-84
-84
-85
-86
-85
-88
-88
-90
-93
-97
-101
-106
-111
-117
-124
-131
-138
-147
-154
-164
-173
-182
-192
-202
-213
-222
-232
-242
-250
-258
-266
-274
-280
-286
-291
-297
-300
-304
-306
-308
-309
-310
-310
-309
-308
-307
-304
-301
-298
-294
-290
-285
-281
-276
-269
-264
-257
-251
-245
-237
-230
-223
-215
-208
-200
-192
-185
-178
-170
-163
-157
-151
-144
-138
-132
-127
-121
-117
-112
-108
-104
-101
-98
-95
-92
-89
-87
-85
-84
-83
-81
-79
-78
-77
-76
-75
-75
-74
-74
-73
-72
-72
-71
-71
-71
-70
-69
-69
-69
-68
-68
-68
-68
-68
-67
-67
-67
-68
-67
-67
-67
-67
-68
-68
-67
-67
-67
-67
-66
-66
-66
-66
-65
-65
-64
-64
-64
-64
-63
-63
-63
-62
-62
-62
-62
-62
-61
-61
-61
-61
-61
-61
-61
-60
-60
-61
-61
-61
-61
-61
-61
-61
-61
-61
-60
-60
-61
-61
-61
-61
-61
-61
-61
-61
-61
-61
-60
-60
-61
-61
-60
-60
-60
-61
-60
-60
-60
-59
-60
-60
-60
-59
-59
-59
-59
-59
-59
-57
-57
-57
-58
-57
-57
-57
-57
-57
-57
-57
-57
-57
-58
-58
-58
-58
-59
-59
-59
-59
-59
-59
-59
-60
-60
-60
-60
-61
-60
-61
-60
-60
-59
-59
-59
-59
-59
-59
-59
-58
-59
-59
-59
-59
-59
-59
-59
-59
-59
-59
-59
-59
-60
-60
-60
-60
-60
-60
-61
-61
-61
-61
-61
-61
-62
-61
-61
-61
-61
-62
-62
-61
-61
-61
-61
-61
-62
-62
-62
-61
-61
-62
-62
-61
-62
-62
-61
-62
-62
-61
-61
-61
-61
-62
-62
-61
-61
-62
-62
-61
-61
-61
-61
-62
-62
-61
-62
-62
-63
-63
-62
-62
-63
-63
-63
-64
-64
-63
-64
-64
-65
-65
-66
-66
-66
-66
-67
-67
-67
-67
-67
-66
-66
-67
-67
-67
-67
-67
-68
-67
-68
-67
-67
-67
-68
-68
-68
-69
-69
-68
-69
-69
-69
-69
-69
-70
-70
-69
-70
-70
-70
-71
-71
-71
-71
-72
-72
-72
-73
-73
-74
-75
-75
-76
-77
-77
-78
-79
-79
-80
-81
-82
-82
-83
-84
-84
-84
-85
-85
-86
-85
-86
-86
-87
-86
-86
-87
-87
-87
-87
-87
-88
-88
-88
-89
-88
-89
-88
-89
-89
-90
-90
-90
-90
-90
-91
-91
-91
-91
-91
-91
-92
-92
-92
-92
-92
-93
-93
-93
-93
-93
-93
-94
-94
-94
-94
-93
-94
-94
-94
-95
-94
-94
-94
-94
-95
-94
-94
-94
-94
-94
-93
-93
-93
-93
-93
-94
-94
-93
-93
-93
-92
-93
-93
-93
-93
-93
-93
-94
-93
-94
-94
-94
-95
-95
-95
-95
-95
-96
-95
-96
-95
-96
-95
-96
-96
-95
-94
-95
-94
-94
-93
-93
-93
-92
-92
-92
-91
-91
-91
-91
-90
-90
-90
-90
-90
-91
-91
-91
-91
-91
-92
-91
-92
-92
-92
-93
-93
-93
-93
-93
-93
-93
-92
-92
-92
-92
-92
-92
-92
-92
-92
-91
-91
-91
-91
-91
-91
-91
-91
-91
-91
-92
-92
-91
-91
-91
-91
-92
-92
-92
-92
-92
-92
-92
-92
-92
-92
-92
-92
-92
-92
-92
-92
-92
-92
-92
-92
-92
-91
-91
-92
-92
-92
-90
-90
-90
-90
-91
-90
-90
-90
-90
-89
-89
-89
-89
-89
-89
-89
-89
-90
-90
-90
-90
-91
-90
-90
-90
-91
-91
-90
-91
-91
-91
-91
-91
-91
-92
-91
-91
-91
-91
-91
-90
-90
-90
-90
-90
-89
-89
-89
-89
-89
-89
-89
-89
-89
-89
-89
-90
-90
-90
-90
-90
-90
-90
-90
-91
-91
-91
-91
-91
-91
-92
-92
-92
-92
-91
-92
-93
-92
-92
-93
-92
-92
-93
-93
-92
-92
-93
-93
-93
-93
-93
-93
-93
-94
-93
-93
-93
-93
-93
-94
-93
-94
-94
-95
-95
-95
-95
-95
-95
-95
-96
-96
-96
-97
-97
-98
-97
-97
-98
-98
-98
-98
-99
-99
-99
-99
-98
-98
-98
-98
-99
-99
-99
-99
-99
-99
-98
-99
-99
-99
-99
-99
-99
-99
-99
-99
-99
-100
-100
-100
-100
-99
-100
-100
-100
-100
-100
-100
-101
-101
-101
-100
-100
-101
-100
-101
-101
-100
-100
-101
-101
-101
-101
-101
-101
-101
-101
-101
-101
-101
-102
-101
-101
-101
-101
-102
-102
-102
-102
-102
-103
-103
-103
-102
-103
-103
-103
-103
-103
-103
-103
-103
-103
-104
-103
-104
-103
-104
-104
-104
-104
-104
-104
-104
-105
-104
-104
-105
-105
-105
-105
-105
-104
-104
-104
-104
-105
-105
-104
-105
-105
-105
-105
-105
-105
-105
-105
-105
-105
-105
-105
-105
-105
-105
-104
-105
-105
-104
-104
-104
-103
-103
-103
-103
-103
-104
-104
-104
-104
-105
-104
-104
-105
-104
-104
-105
-104
-104
-105
-105
-105
-105
-104
-104
-104
-103
-103
-102
-103
-102
-102
-102
-102
-103
-103
-103
-103
-103
-103
-103
-104
-104
-104
-104
-105
-105
-105
-106
-106
-107
-106
-107
-107
-107
-107
-107
-107
-107
-106
-107
-107
-106
-106
-106
-106
-105
-105
-105
-105
-105
-105
-105
-104
-105
-104
-104
-105
-104
-105
-105
-105
-105
-105
-105
-105
-105
-105
-105
-105
-106
-106
-106
-106
-106
-106
-105
-105
-105
-105
-105
-105
-105
-105
-105
-105
-105
-105
-105
-106
-106
-105
-105
-105
-105
-105
-104
-105
-104
-105
-104
-104
-105
-104
-104
-103
-104
-104
-104
-104
-104
-104
-104
-103
-104
-104
-104
-103
-104
-104
-104
-105
-104
-104
-104
-104
-105
-105
-105
-105
-105
-105
-105
-105
-106
-106
-106
-106
-106
-106
-105
-106
-106
-105
-105
-106
-106
-106
-106
-105
-105
-105
-105
-104
-104
-104
-104
-104
-104
-104
-104
-104
-104
-104
-103
-104
-104
-104
-104
-105
-105
-105
-105
-105
-106
-106
-106
-106
-107
-107
-107
-107
-108
-108
-108
-108
-109
-109
-108
-108
-108
-108
-108
-108
-108
-108
-108
-107
-108
-107
-107
-107
-107
-106
-106
-106
-106
-105
-105
-106
-106
-106
-105
-105
-105
-105
-104
-104
-105
-105
-104
-104
-104
-103
-103
-102
-102
-102
-101
-101
-101
-100
-100
-100
-100
-99
-99
-98
-98
-98
-98
-98
-98
-98
-98
-98
-98
-98
-98
-98
-98
-98
-98
-98
-98
-99
-99
-99
-100
-100
-101
-101
-101
-102
-103
-104
-103
-104
-105
-105
-106
-106
-107
-108
-108
-108
-108
-108
-108
-108
-108
-109
-109
-109
-109
-109
-109
-109
-109
-109
-109
-109
-109
-108
-109
-109
-109
-109
-109
-110
-109
-109
-109
-109
-108
-108
-108
-108
-109
-109
-108
-109
-109
-109
-109
-109
-109
-109
-109
-109
-110
-109
-110
-110
-110
-110
-109
-110
-110
-109
-109
-109
-110
-110
-109
-109
-109
-109
-108
-108
-108
-108
-108
-109
-109
-109
-109
-108
-109
-109
-109
-109
-109
-109
-109
-109
-109
-109
-108
-108
-108
-107
-108
-108
-107
-107
-107
-107
-107
-107
-107
-108
-108
-108
-108
-108
-108
-108
-108
-108
-108
-108
-108
-107
-107
-107
-106
-105
-105
-105
-105
-105
-105
-105
-105
-105
-106
-107
-108
-111
-113
-117
-120
-125
-131
-137
-143
-150
-158
-165
-174
-183
-191
-200
-211
-220
-229
-238
-247
-256
-263
-271
-278
-285
-289
-295
-299
-303
-306
-308
-310
-311
-311
-311
-310
-309
-307
-304
-302
-298
-296
-291
-287
-283
-278
-274
-269
-264
-260
-254
-248
-242
-236
-231
-224
-218
-212
-206
-200
-194
-189
-183
-177
-171
-165
-160
-155
-149
-145
-140
-136
-132
-128
-124
-121
-118
-116
-113
-110
-108
-107
-106
-105
-104
-102
-101
-101
-100
-100
-99
-99
-98
-98
-98
-97
-97
-97
-96
-96
-96
-95
-96
-95
-95
-93
-93
-93
-93
-91
-91
-91
-91
-91
-91
-90
-90
-90
-90
-90
-90
-89
-89
-89
-90
-90
-90
-90
-91
-90
-90
-91
-91
-91
-91
-91
-91
-91
-91
-90
-91
-90
-90
-90
-89
-89
-89
-89
-89
-88
-88
-88
-87
-87
-86
-85
-86
-85
-85
-85
-84
-84
-83
-83
-83
-83
-83
-83
-82
-82
-82
-82
-83
-83
-82
-82
-82
-83
-84
-83
-83
-84
-84
-84
-85
-85
-85
-85
-86
-86
-86
-86
-86
-86
-86
-85
-85
-85
-85
-84
-84
-84
-84
-83
-83
-82
-82
-82
-82
-82
-82
-82
-82
-82
-81
-81
-81
-81
-81
-81
-81
-81
-81
-80
-80
-80
-80
-80
-80
-81
-81
-81
-81
-81
-81
-81
-82
-82
-82
-82
-82
-82
-82
-82
-81
-81
-81
-81
-81
-81
-80
-80
-80
-80
-80
-79
-79
-79
-78
-79
-79
-79
-78
-78
-78
-77
-77
-77
-77
-77
-77
-77
-76
-76
-76
-76
-75
-75
-75
-75
-74
-74
-74
-74
-75
-75
-74
-74
-74
-74
-74
-74
-74
-74
-74
-74
-74
-73
-74
-74
-74
-74
-73
-73
-72
-72
-73
-72
-73
-72
-73
-72
-73
-72
-73
-73
-73
-73
-73
-73
-74
-73
-74
-75
-75
-75
-75
-75
-75
-75
-75
-75
-75
-75
-75
-75
-76
-76
-76
-75
-76
-76
-76
-75
-76
-76
-75
-76
-76
-77
-77
-77
-76
-76
-76
-76
-78
-78
-78
-78
-78
-78
-79
-80
-80
-80
-81
-81
-81
-82
-82
-83
-83
-84
-84
-85
-85
-86
-86
-85
-86
-86
-86
-86
-87
-87
-87
-87
-87
-86
-87
-87
-87
-87
-88
-88
-88
-88
-88
-89
-89
-89
-89
-90
-90
-90
-91
-91
-91
-91
-92
-91
-92
-91
-91
-91
-90
-90
-90
-90
-89
-89
-89
-88
-88
-87
-88
-87
-86
-86
-87
-86
-86
-86
-86
-86
-86
-86
-87
-86
-87
-86
-86
-87
-86
-86
-86
-87
-86
-87
-86
-86
-86
-86
-85
-86
-85
-85
-86
-85
-84
-84
-84
-84
-84
-83
-84
-84
-83
-83
-83
-82
-82
-82
-82
-82
-81
-82
-81
-81
-81
-80
-81
-80
-80
-81
-80
-80
-80
-81
-80
-80
-80
-80
-80
-80
-80
-80
-80
-81
-81
-81
-81
-81
-82
-82
-81
-82
-82
-82
-82
-82
-82
-82
-81
-82
-82
-81
-81
-81
-81
-80
-81
-80
-80
-80
-79
-79
-79
-79
-79
-79
-79
-79
-79
-80
-79
-79
-80
-80
-80
-80
-80
-80
-80
-80
-80
-80
-80
-81
-81
-81
-81
-81
-81
-80
-80
-80
-80
-80
-79
-80
-80
-80
-80
-79
-79
-79
-79
-79
-79
-80
-80
-80
-79
-79
-79
-80
-80
-80
-80
-80
-79
-79
-79
-79
-79
-79
-79
-79
-79
-80
-80
-80
-80
-80
-80
-81
-81
-81
-80
-81
-81
-81
-81
-81
-82
-82
-82
-81
-81
-81
-81
-82
-81
-81
-81
-81
-80
-80
-80
-80
-80
-80
-80
-79
-79
-79
-79
-79
-79
-79
-79
-79
-79
-78
-78
-79
-79
-79
-79
-80
-80
-81
-81
-82
-82
-83
-84
-84
-84
-84
-85
-85
-85
-86
-87
-87
-86
-86
-86
-87
-87
-86
-86
-86
-86
-86
-86
-85
-85
-85
-85
-85
-85
-84
-84
-84
-84
-83
-84
-84
-84
-84
-85
-85
-84
-85
-85
-85
-86
-87
-87
-87
-87
-87
-87
-88
-87
-87
-87
-87
-88
-87
-87
-87
-86
-86
-87
-87
-86
-86
-86
-87
-87
-87
-87
-87
-87
-87
-87
-87
-88
-89
-89
-89
-89
-90
-90
-90
-90
-90
-90
-90
-90
-90
-90
-90
-90
-90
-90
-90
-90
-90
-90
-90
-90
-89
-89
-89
-89
-89
-89
-89
-89
-89
-89
-89
-89
-89
-87
-87
-87
-87
-87
-88
-87
-87
-87
-87
-87
-87
-87
-87
-87
-87
-87
-88
-88
-87
-87
-88
-88
-88
-88
-89
-90
-90
-89
-89
-89
-90
-90
-90
-90
-91
-90
-90
-90
-90
-90
-90
-90
-90
-90
-90
-90
-90
-90
-90
-90
-90
-90
-90
-90
-90
-90
-90
-90
-90
-90
-90
-90
-90
-90
-90
-90
-90
-90
-90
-90
-90
-90
-90
-90
-90
-90
-90
-90
-90
-90
-90
-89
-89
-89
-89
-90
-90
-89
-89
-89
-89
-88
-89
-89
-89
-89
-89
-88
-88
-88
-89
-89
-89
-88
-88
-88
-88
-89
-89
-89
-88
-88
-88
-88
-88
-88
-88
-88
-88
-88
-87
-87
-87
-87
-87
-87
-88
-88
-88
-87
-87
-87
-87
-88
-88
-88
-88
-89
-89
-89
-89
-89
-89
-88
-88
-89
-89
-89
-89
-88
-88
-88
-88
-88
-88
-87
-87
-87
-88
-87
-87
-87
-87
-87
-87
-86
-86
-86
-86
-87
-87
-87
-87
-87
-87
-88
-88
-88
-87
-87
-87
-87
-88
-88
-88
-88
-88
-88
-88
-88
-88
-87
-88
-88
-87
-87
-87
-87
-87
-87
-87
-86
-86
-86
-86
-85
-85
-86
-86
-86
-85
-85
-86
-86
-85
-86
-86
-86
-86
-86
-86
-87
-87
-87
-87
-86
-86
-86
-87
-86
-86
-86
-86
-86
-86
-86
-86
-86
-86
-85
-85
-85
-85
-85
-85
-84
-85
-85
-85
-85
-85
-86
-85
-85
-85
-85
-85
-84
-84
-84
-84
-85
-85
-85
-85
-84
-84
-84
-84
-84
-85
-85
-85
-85
-85
-86
-86
-86
-86
-86
-87
-87
-87
-87
-87
-87
-87
-87
-87
-87
-87
-87
-86
-86
-86
-86
-85
-85
-86
-86
-86
-85
-85
-85
-85
-85
-85
-85
-85
-85
-85
-86
-86
-85
-85
-86
-85
-85
-85
-84
-85
-84
-83
-83
-84
-83
-83
-82
-81
-81
-81
-81
-80
-80
-79
-79
-79
-78
-78
-77
-77
-76
-76
-76
-76
-76
-76
-76
-76
-76
-76
-76
-77
-77
-77
-78
-78
-80
-80
-81
-82
-83
-83
-84
-85
-86
-86
-87
-88
-89
-89
-89
-89
-90
-90
-90
-90
-89
-90
-90
-90
-90
-90
-90
-90
-91
-90
-91
-91
-91
-91
-91
-92
-91
-92
-92
-92
-91
-91
-91
-91
-91
-90
-90
-90
-90
-90
-89
-90
-90
-90
-90
-89
-91
-90
-91
-91
-91
-91
-91
-92
-93
-93
-93
-93
-94
-94
-94
-94
-95
-95
-95
-95
-95
-95
-95
-95
-95
-95
-95
-95
-95
-95
-95
-95
-96
-96
-95
-96
-96
-96
-97
-96
-96
-96
-97
-97
-96
-96
-96
-96
-95
-96
-96
-96
-97
-96
-96
-96
-96
-96
-97
-96
-97
-97
-96
-97
-97
-97
-96
-97
-97
-97
-97
-97
-97
-97
-98
-98
-98
-99
-100
-102
-103
-106
-109
-114
-119
-125
-130
-138
-145
-153
-162
-171
-180
-189
-200
-210
-221
-232
-242
-252
-261
-271
-279
-287
-295
-301
-307
-313
-317
-321
-325
-327
-328
-329
-330
-329
-328
-326
-324
-321
-318
-314
-309
-305
-300
-294
-288
-282
-276
-270
-263
-256
-249
-242
-234
-227
-219
-212
-205
-199
-191
-184
-178
-171
-165
-158
-153
-147
-142
-137
-132
-128
-124
-120
-117
-113
-111
-108
-105
-103
-101
-100
-98
-97
-97
-96
-95
-94
-93
-93
-92
-92
-92
-91
-91
-91
-89
-90
-89
-89
-88
-88
-87
-87
-85
-85
-84
-84
-84
-84
-83
-83
-82
-82
-81
-81
-81
-81
-81
-81
-80
-80
-79
-79
-79
-78
-78
-79
-79
-78
-78
-78
-78
-77
-77
-77
-76
-76
-77
-76
-76
-76
-77
-76
-76
-76
-77
-77
-76
-76
-76
-76
-76
-75
-75
-75
-75
-75
-75
-75
-75
-73
-73
-73
-73
-73
-73
-72
-72
-72
-72
-72
-72
-72
-72
-73
-72
-72
-72
-73
-73
-73
-73
-73
-74
-74
-74
-74
-74
-74
-74
-74
-74
-75
-75
-75
-74
-74
-74
-74
-73
-73
-73
-72
-72
-72
-71
-71
-70
-70
-70
-70
-70
-69
-69
-69
-69
-69
-69
-69
-69
-69
-69
-70
-70
-70
-70
-70
-70
-69
-69
-69
-69
-69
-69
-69
-69
-68
-68
-68
-67
-68
-68
-67
-67
-66
-67
-67
-67
-67
-66
-66
-66
-66
-67
-66
-66
-66
-65
-65
-65
-65
-65
-65
-65
-64
-64
-64
-63
-64
-64
-63
-62
-62
-62
-62
-62
-61
-61
-62
-62
-62
-62
-61
-62
-62
-62
-61
-62
-62
-62
-62
-62
-62
-62
-61
-62
-61
-61
-61
-61
-61
-61
-60
-60
-60
-60
-60
-59
-59
-60
-60
-60
-59
-60
-59
-60
-60
-61
-61
-61
-61
-61
-61
-61
-61
-61
-61
-62
-62
-62
-62
-62
-62
-62
-62
-63
-63
-63
-63
-63
-63
-63
-64
-64
-64
-65
-65
-66
-66
-67
-66
-66
-66
-67
-66
-67
-67
-67
-67
-67
-67
-67
-67
-67
-67
-67
-67
-68
-68
-68
-68
-68
-68
-69
-69
-69
-69
-70
-70
-70
-71
-71
-71
-71
-71
-72
-72
-72
-73
-73
-73
-74
-74
-74
-74
-74
-74
-74
-74
-75
-75
-75
-75
-75
-76
-75
-75
-75
-75
-76
-77
-77
-76
-77
-77
-76
-76
-76
-76
-75
-76
-75
-76
-75
-75
-75
-74
-74
-74
-74
-73
-74
-74
-74
-74
-74
-74
-74
-74
-74
-74
-73
-74
-73
-73
-73
-73
-72
-72
-72
-72
-72
-71
-71
-70
-71
-71
-71
-70
-70
-70
-70
-70
-69
-69
-69
-69
-69
-69
-69
-69
-69
-69
-69
-68
-68
-68
-68
-68
-68
-67
-67
-67
-66
-67
-66
-65
-66
-66
-65
-66
-65
-65
-65
-65
-65
-64
-64
-64
-64
-64
-64
-64
-64
-64
-64
-64
-64
-64
-64
-64
-64
-65
-65
-65
-64
-64
-64
-64
-63
-64
-64
-64
-64
-64
-64
-64
-65
-65
-65
-65
-64
-64
-65
-64
-64
-64
-64
-65
-64
-64
-64
-64
-63
-63
-63
-63
-63
-63
-63
-63
-62
-62
-62
-63
-63
-62
-62
-62
-61
-61
-61
-61
-61
-62
-62
-62
-62
-62
-62
-61
-61
-61
-61
-61
-61
-60
-60
-60
-61
-61
-61
-61
-61
-60
-60
-60
-60
-60
-61
-60
-60
-60
-60
-60
-60
-60
-59
-59
-59
-59
-60
-60
-60
-60
-60
-60
-60
-60
-60
-60
-61
-62
-62
-62
-62
-62
-63
-63
-63
-64
-64
-64
-64
-64
-64
-64
-64
-65
-65
-65
-65
-65
-64
-63
-63
-63
-63
-63
-62
-63
-63
-62
-63
-62
-62
-62
-62
-62
-63
-63
-63
-63
-64
-64
-64
-64
-64
-65
-66
-66
-66
-66
-66
-66
-67
-67
-67
-67
-66
-66
-66
-67
-67
-67
-68
-68
-68
-68
-68
-69
-68
-68
-69
-69
-70
-70
-70
-70
-70
-70
-70
-71
-70
-70
-69
-69
-69
-69
-68
-68
-69
-68
-68
-68
-67
-67
-67
-67
-67
-66
-67
-67
-67
-67
-67
-67
-68
-68
-68
-68
-69
-69
-70
-70
-70
-70
-70
-70
-71
-72
-71
-72
-72
-72
-72
-72
-72
-72
-72
-72
-72
-72
-72
-73
-72
-72
-72
-72
-72
-71
-72
-71
-72
-71
-71
-71
-71
-71
-71
-71
-71
-71
-71
-71
-72
-72
-71
-71
-71
-72
-72
-72
-72
-72
-72
-73
-72
-72
-73
-72
-72
-72
-73
-73
-73
-73
-72
-72
-73
-73
-73
-73
-73
-73
-73
-73
-73
-72
-73
-73
-73
-73
-73
-73
-73
-74
-74
-74
-74
-75
-75
-75
-75
-74
-74
-74
-75
-75
-75
-75
-75
-75
-74
-74
-74
-74
-74
-74
-74
-74
-74
-75
-75
-75
-75
-75
-75
-75
-75
-76
-76
-76
-76
-76
-76
-77
-77
-77
-77
-76
-77
-77
-77
-77
-77
-77
-77
-76
-76
-76
-76
-76
-76
-76
-76
-75
-76
-76
-75
-75
-76
-76
-76
-76
-77
-77
-77
-77
-78
-78
-78
-78
-78
-78
-78
-78
-78
-78
-78
-78
-77
-77
-77
-77
-77
-77
-77
-77
-76
-76
-76
-76
-76
-76
-76
-76
-76
-76
-75
-76
-76
-76
-76
-75
-75
-75
-76
-76
-75
-75
-76
-75
-75
-75
-75
-75
-75
-76
-76
-76
-76
-77
-77
-77
-78
-78
-78
-79
-79
-79
-80
-80
-80
-81
-81
-81
-81
-81
-81
-81
-81
-81
-81
-81
-81
-80
-81
-80
-81
-80
-81
-80
-80
-80
-80
-81
-81
-81
-81
-81
-81
-81
-81
-81
-81
-80
-81
-81
-81
-81
-81
-81
-81
-81
-81
-81
-80
-81
-80
-81
-81
-80
-81
-81
-81
-81
-81
-81
-82
-82
-82
-82
-82
-82
-82
-82
-82
-81
-82
-82
-82
-82
-82
-82
-81
-82
-82
-82
-82
-82
-83
-82
-82
-83
-83
-84
-83
-83
-84
-84
-84
-84
-85
-84
-84
-85
-85
-85
-84
-84
-84
-84
-85
-85
-85
-85
-85
-85
-86
-86
-86
-85
-85
-86
-86
-86
-86
-86
-86
-86
-86
-86
-86
-86
-86
-86
-86
-86
-86
-86
-86
-85
-85
-86
-86
-86
-86
-86
-86
-86
-87
-88
-88
-88
-88
-88
-89
-89
-89
-89
-88
-88
-88
-88
-88
-88
-88
-88
-88
-87
-87
-87
-87
-86
-86
-86
-86
-85
-85
-84
-84
-83
-83
-82
-82
-82
-82
-81
-81
-81
-80
-80
-80
-80
-79
-79
-79
-80
-80
-80
-80
-80
-80
-81
-81
-82
-82
-83
-84
-84
-85
-85
-87
-87
-88
-89
-90
-90
-91
-92
-92
-92
-93
-94
-94
-95
-95
-96
-96
-96
-96
-96
-97
-96
-96
-96
-96
-96
-95
-95
-95
-95
-95
-95
-95
-95
-94
-94
-94
-94
-93
-93
-94
-94
-94
-94
-95
-95
-95
-95
-95
-96
-96
-96
-96
-96
-97
-97
-97
-98
-98
-98
-98
-98
-99
-99
-99
-99
-99
-99
-99
-100
-100
-100
-99
-99
-99
-99
-99
-100
-100
-100
-99
-99
-99
-99
-100
-100
-100
-100
-100
-100
-100
-100
-100
-101
-100
-100
-100
-101
-101
-101
-100
-101
-101
-101
-102
-102
-102
-103
-103
-103
-103
-103
-103
-103
-103
-103
-102
-101
-101
-101
-101
-100
-99
-99
-99
-98
-99
-99
-99
-100
-101
-104
-106
-110
-116
-121
-126
-133
-140
-148
-157
-166
-175
-185
-196
-207
-217
-229
-240
-252
-263
-273
-282
-291
-300
-307
-315
-322
-327
-332
-337
-341
-343
-345
-346
-346
-345
-345
-343
-339
-336
-332
-327
-323
-318
-313
-306
-300
-293
-285
-278
-271
-263
-255
-246
-239
-230
-222
-215
-208
-200
-193
-185
-178
-172
-165
-159
-153
-147
-142
-138
-133
-129
-125
-121
-118
-115
-112
-110
-108
-106
-104
-103
-101
-100
-98
-98
-97
-97
-95
-95
-95
-94
-94
-94
-92
-92
-92
-91
-91
-90
-90
-89
-89
-89
-88
-88
-89
-88
-88
-88
-87
-87
-86
-86
-87
-86
-86
-86
-85
-85
-85
-84
-84
-84
-84
-84
-84
-84
-84
-83
-83
-83
-83
-83
-83
-83
-82
-82
-82
-82
-81
-81
-81
-82
-81
-81
-81
-80
-80
-79
-80
-80
-79
-79
-79
-79
-79
-79
-79
-79
-79
-79
-78
-78
-78
-78
-78
-78
-78
-77
-77
-77
-77
-77
-77
-77
-77
-77
-76
-76
-76
-76
-76
-76
-75
-76
-76
-76
-75
-75
-75
-75
-75
-76
-76
-75
-75
-75
-75
-75
-75
-75
-75
-75
-74
-74
-73
-73
-73
-73
-73
-72
-72
-72
-72
-72
-72
-72
-72
-72
-72
-72
-72
-73
-73
-73
-74
-74
-74
-75
-75
-75
-75
-75
-76
-76
-76
-76
-76
-76
-75
-75
-75
-75
-74
-74
-74
-73
-73
-73
-73
-73
-72
-72
-72
-72
-72
-72
-71
-72
-72
-72
-72
-71
-71
-72
-72
-72
-72
-72
-72
-73
-72
-72
-72
-72
-72
-72
-72
-72
-72
-72
-71
-72
-72
-71
-71
-71
-71
-71
-71
-71
-70
-70
-70
-70
-70
-70
-70
-70
-70
-70
-70
-71
-71
-71
-71
-71
-71
-72
-71
-72
-72
-72
-72
-72
-72
-72
-72
-72
-72
-72
-72
-72
-72
-72
-72
-72
-73
-72
-73
-73
-72
-72
-72
-72
-72
-72
-72
-73
-73
-73
-73
-72
-73
-73
-74
-74
-74
-74
-74
-74
-74
-75
-75
-75
-75
-75
-75
-75
-75
-75
-75
-75
-75
-75
-75
-75
-76
-76
-76
-77
-78
-78
-78
-78
-79
-78
-79
-79
-79
-80
-80
-81
-81
-81
-82
-82
-82
-82
-83
-83
-83
-85
-85
-85
-85
-85
-86
-87
-87
-87
-87
-88
-88
-88
-88
-88
-90
-89
-89
-89
-89
-89
-89
-89
-89
-89
-88
-88
-88
-89
-88
-88
-88
-88
-88
-88
-88
-88
-88
-88
-88
-88
-88
-87
-87
-87
-87
-86
-87
-86
-86
-86
-86
-85
-86
-85
-85
-86
-85
-85
-86
-85
-85
-86
-86
-86
-86
-86
-87
-87
-87
-87
-87
-87
-87
-87
-87
-86
-87
-87
-87
-86
-86
-85
-85
-85
-84
-85
-84
-84
-84
-84
-83
-83
-83
-82
-83
-83
-83
-83
-83
-83
-82
-83
-83
-83
-83
-83
-84
-84
-83
-83
-84
-83
-83
-83
-83
-84
-83
-83
-83
-83
-83
-83
-84
-83
-83
-83
-83
-84
-84
-84
-83
-83
-83
-84
-84
-84
-84
-84
-84
-84
-84
-84
-84
-84
-83
-83
-83
-83
-84
-83
-83
-83
-83
-82
-82
-82
-81
-81
-82
-81
-81
-81
-81
-81
-81
-81
-80
-80
-81
-81
-81
-81
-81
-81
-81
-80
-80
-80
-80
-81
-81
-81
-81
-81
-81
-81
-81
-81
-81
-81
-81
-81
-81
-81
-81
-80
-80
-80
-80
-81
-81
-80
-80
-81
-80
-80
-81
-81
-81
-81
-81
-81
-81
-81
-81
-81
-82
-82
-82
-82
-82
-82
-83
-83
-82
-82
-82
-82
-82
-82
-82
-82
-82
-81
-82
-82
-82
-82
-83
-83
-83
-83
-83
-83
-84
-84
-84
-85
-85
-85
-86
-86
-86
-87
-86
-87
-86
-87
-87
-87
-88
-87
-87
-87
-88
-88
-88
-88
-88
-88
-88
-88
-88
-87
-87
-88
-88
-87
-87
-88
-88
-87
-88
-88
-88
-88
-89
-89
-89
-89
-89
-89
-89
-90
-90
-90
-90
-90
-90
-91
-90
-90
-90
-91
-90
-90
-91
-91
-91
-91
-92
-92
-92
-92
-92
-92
-92
-92
-92
-92
-92
-91
-91
-92
-92
-92
-93
-93
-93
-93
-93
-93
-94
-94
-94
-94
-94
-94
-95
-95
-95
-94
-94
-95
-95
-95
-96
-95
-95
-95
-95
-95
-95
-96
-96
-96
-96
-95
-95
-95
-95
-95
-95
-95
-95
-95
-95
-95
-94
-95
-94
-94
-94
-94
-93
-93
-93
-93
-93
-93
-93
-93
-92
-93
-93
-93
-94
-93
-93
-93
-94
-94
-94
-95
-94
-94
-95
-95
-95
-95
-95
-95
-95
-95
-95
-95
-95
-95
-95
-95
-95
-96
-96
-96
-96
-96
-96
-96
-96
-96
-97
-97
-97
-97
-97
-97
-97
-97
-97
-97
-97
-97
-97
-97
-96
-96
-96
-96
-96
-96
-96
-96
-96
-96
-96
-96
-96
-96
-96
-96
-96
-96
-96
-96
-96
-96
-96
-96
-96
-96
-96
-96
-96
-95
-95
-95
-95
-95
-95
-95
-96
-96
-96
-96
-96
-96
-97
-97
-96
-97
-97
-97
-97
-97
-97
-97
-97
-98
-98
-98
-98
-98
-98
-98
-99
-98
-98
-98
-98
-97
-97
-97
-97
-96
-96
-96
-96
-96
-96
-96
-95
-95
-95
-95
-95
-95
-95
-94
-95
-95
-95
-95
-95
-95
-96
-96
-96
-97
-96
-96
-96
-96
-96
-97
-97
-97
-97
-97
-96
-96
-96
-97
-97
-97
-96
-96
-96
-96
-96
-96
-96
-96
-96
-96
-96
-96
-96
-96
-96
-98
-98
-98
-98
-98
-97
-97
-97
-97
-98
-97
-97
-97
-97
-97
-97
-96
-96
-96
-96
-96
-97
-97
-97
-98
-97
-97
-97
-98
-98
-98
-97
-97
-97
-97
-97
-97
-97
-97
-97
-97
-97
-97
-97
-97
-98
-98
-97
-97
-97
-98
-98
-98
-98
-98
-99
-99
-99
-99
-99
-99
-99
-99
-99
-99
-100
-99
-99
-99
-99
-100
-100
-100
-100
-100
-100
-100
-100
-100
-100
-100
-101
-101
-101
-100
-100
-100
-101
-101
-100
-100
-100
-100
-100
-100
-100
-101
-100
-99
-100
-99
-100
-99
-99
-99
-99
-99
-99
-99
-99
-100
-99
-99
-100
-100
-100
-100
-100
-100
-99
-100
-100
-99
-99
-98
-98
-99
-98
-97
-97
-97
-96
-95
-94
-95
-94
-93
-93
-92
-91
-91
-91
-90
-89
-89
-89
-89
-88
-88
-88
-88
-88
-88
-89
-88
-89
-88
-89
-90
-90
-90
-90
-91
-91
-90
-92
-91
-92
-92
-93
-93
-93
-94
-94
-95
-95
-95
-96
-96
-96
-98
-98
-98
-99
-100
-100
-100
-101
-102
-102
-102
-103
-103
-103
-104
-104
-104
-104
-104
-105
-105
-104
-104
-104
-104
-104
-104
-104
-104
-103
-103
-103
-102
-102
-102
-102
-102
-102
-102
-102
-102
-103
-103
-103
-103
-103
-103
-104
-104
-104
-104
-104
-105
-105
-105
-105
-105
-106
-107
-107
-107
-107
-108
-108
-108
-108
-108
-107
-107
-107
-107
-108
-108
-108
-108
-108
-108
-108
-108
-108
-108
-107
-107
-107
-107
-107
-107
-107
-107
-107
-108
-107
-107
-107
-107
-107
-107
-108
-108
-108
-108
-109
-109
-109
-109
-109
-109
-108
-108
-108
-107
-106
-105
-106
-106
-105
-105
-104
-104
-105
-106
-106
-107
-108
-110
-113
-116
-120
-125
-130
-135
-142
-148
-155
-162
-170
-178
-187
-196
-206
-215
-225
-235
-243
-251
-261
-268
-275
-282
-289
-294
-299
-303
-307
-310
-313
-314
-316
-316
-316
-315
-315
-313
-311
-309
-307
-305
-301
-298
-294
-291
-287
-283
-278
-274
-269
-264
-258
-254
-247
-242
-235
-230
-224
-218
-212
-206
-200
-194
-188
-182
-176
-171
-166
-161
-157
-152
-147
-144
-141
-137
-134
-132
-128
-126
-125
-123
-122
-119
-118
-117
-116
-115
-115
-113
-113
-113
-113
-112
-112
-113
-112
-112
-111
-112
-112
-111
-112
-112
-111
-112
-111
-111
-110
-111
-110
-110
-109
-109
-109
-108
-108
-108
-107
-107
-107
-106
-106
-106
-106
-106
-105
-105
-105
-105
-105
-105
-105
-105
-105
-105
-105
-105
-105
-105
-105
-105
-105
-104
-104
-104
-104
-104
-104
-104
-104
-104
-104
-103
-102
-103
-103
-103
-102
-102
-102
-102
-102
-102
-101
-101
-101
-101
-101
-101
-101
-100
-100
-100
-100
-101
-101
-101
-101
-101
-101
-101
-101
-101
-101
-101
-101
-102
-102
-102
-102
-102
-102
-102
-102
-102
-102
-102
-102
-101
-100
-101
-101
-100
-100
-100
-100
-99
-99
-99
-99
-99
-99
-99
-98
-99
-99
-99
-100
-99
-100
-100
-100
-100
-100
-100
-100
-100
-101
-101
-101
-101
-101
-101
-100
-100
-100
-100
-100
-99
-99
-99
-98
-98
-98
-98
-97
-97
-97
-97
-98
-97
-97
-97
-97
-97
-97
-97
-97
-97
-96
-96
-96
-96
-97
-97
-97
-97
-97
-96
-96
-96
-96
-96
-95
-95
-94
-94
-94
-94
-94
-94
-94
-94
-94
-93
-93
-93
-93
-93
-92
-92
-91
-91
-92
-92
-91
-91
-91
-92
-91
-92
-92
-92
-91
-91
-91
-92
-92
-92
-92
-92
-93
-93
-92
-93
-93
-93
-93
-93
-94
-93
-93
-93
-93
-93
-93
-92
-93
-92
-92
-92
-92
-92
-92
-92
-92
-92
-93
-93
-93
-93
-93
-93
-94
-95
-95
-95
-95
-95
-95
-95
-96
-96
-96
-96
-96
-97
-97
-97
-97
-98
-98
-98
-99
-98
-99
-99
-100
-100
-101
-100
-100
-101
-101
-101
-102
-102
-102
-103
-102
-102
-103
-103
-103
-102
-104
-104
-104
-104
-105
-105
-106
-106
-107
-107
-107
-108
-108
-108
-108
-109
-109
-109
-109
-110
-109
-109
-110
-109
-110
-109
-110
-109
-109
-109
-109
-109
-109
-109
-108
-108
-108
-109
-108
-108
-108
-108
-109
-109
-108
-108
-108
-107
-107
-107
-107
-107
-106
-106
-105
-105
-105
-104
-104
-103
-103
-103
-102
-102
-101
-101
-101
-100
-101
-101
-100
-101
-101
-101
-101
-102
-102
-102
-102
-102
-102
-102
-102
-102
-102
-102
-101
-101
-100
-100
-100
-99
-99
-99
-98
-99
-99
-98
-98
-97
-98
-98
-97
-97
-98
-98
-97
-97
-98
-98
-97
-97
-97
-97
-97
-97
-96
-96
-96
-96
-96
-96
-96
-97
-97
-97
-96
-95
-96
-96
-96
-96
-96
-96
-96
-96
-96
-95
-96
-96
-96
-96
-96
-95
-95
-95
-95
-95
-95
-94
-94
-94
-94
-94
-94
-93
-93
-94
-93
-93
-93
-92
-92
-92
-92
-92
-92
-92
-92
-92
-92
-92
-92
-92
-93
-92
-92
-92
-92
-92
-92
-92
-92
-92
-92
-92
-92
-92
-92
-92
-92
-92
-92
-92
-93
-92
-92
-92
-92
-92
-92
-92
-92
-92
-92
-92
-92
-92
-92
-92
-92
-92
-92
-92
-92
-92
-92
-92
-92
-92
-92
-92
-92
-92
-92
-91
-91
-91
-91
-92
-92
-91
-91
-91
-92
-92
-92
-92
-92
-92
-93
-93
-94
-94
-94
-95
-95
-95
-94
-94
-94
-95
-95
-95
-95
-95
-95
-95
-96
-95
-95
-95
-95
-95
-95
-95
-95
-95
-95
-94
-94
-94
-94
-94
-94
-94
-94
-94
-95
-95
-95
-94
-95
-95
-95
-95
-95
-96
-96
-95
-95
-95
-96
-96
-96
-96
-96
-96
-97
-97
-97
-97
-97
-97
-97
-96
-96
-96
-96
-96
-97
-96
-96
-97
-97
-97
-98
-98
-97
-97
-98
-98
-98
-99
-99
-99
-100
-100
-100
-100
-100
-100
-100
-100
-100
-100
-100
-100
-100
-100
-100
-100
-100
-100
-100
-100
-100
-99
-99
-99
-99
-100
-100
-100
-100
-100
-100
-100
-100
-100
-100
-100
-101
-101
-101
-101
-101
-101
-101
-102
-102
-102
-102
-102
-102
-102
-103
-103
-103
-103
-103
-103
-103
-103
-104
-104
-104
-104
-104
-104
-104
-104
-103
-103
-104
-104
-104
-104
-104
-104
-104
-104
-104
-103
-104
-104
-104
-104
-104
-104
-104
-103
-103
-104
-104
-104
-104
-104
-104
-104
-104
-104
-104
-104
-104
-104
-104
-104
-105
-105
-105
-105
-105
-105
-105
-105
-105
-105
-105
-105
-105
-105
-106
-106
-106
-106
-106
-106
-107
-107
-107
-107
-106
-107
-107
-107
-107
-107
-107
-107
-106
-106
-106
-106
-106
-106
-106
-106
-106
-106
-105
-105
-105
-105
-105
-105
-105
-105
-105
-105
-105
-105
-105
-105
-105
-105
-105
-107
-107
-107
-107
-107
-108
-108
-108
-108
-109
-109
-109
-109
-109
-109
-109
-110
-110
-110
-109
-109
-110
-110
-110
-110
-110
-109
-109
-109
-109
-110
-110
-109
-109
-109
-109
-109
-109
-109
-109
-109
-109
-109
-108
-108
-108
-108
-108
-108
-108
-108
-108
-107
-107
-107
-107
-107
-107
-107
-107
-108
-108
-107
-107
-107
-107
-107
-107
-106
-106
-106
-106
-106
-106
-106
-106
-106
-106
-106
-105
-105
-105
-105
-105
-105
-105
-104
-105
-104
-104
-105
-105
-105
-105
-105
-106
-106
-106
-106
-106
-107
-107
-107
-107
-107
-107
-107
-107
-108
-107
-108
-107
-107
-107
-106
-106
-107
-107
-106
-106
-106
-106
-105
-106
-105
-105
-105
-105
-105
-106
-106
-105
-105
-105
-106
-106
-105
-106
-106
-106
-107
-108
-108
-108
-108
-108
-108
-108
-108
-109
-109
-109
-110
-109
-109
-110
-110
-109
-109
-110
-110
-110
-109
-109
-109
-109
-109
-109
-110
-110
-110
-110
-110
-111
-111
-111
-110
-111
-111
-111
-111
-111
-111
-111
-111
-111
-110
-110
-110
-110
-109
-109
-108
-108
-107
-107
-107
-107
-105
-105
-105
-105
-104
-104
-104
-104
-103
-103
-103
-103
-103
-103
-103
-103
-103
-103
-103
-104
-104
-104
-104
-105
-106
-106
-107
-106
-107
-108
-109
-109
-111
-111
-112
-113
-113
-114
-114
-115
-116
-116
-117
-117
-117
-117
-118
-118
-118
-118
-118
-118
-118
-119
-118
-119
-119
-119
-119
-119
-119
-120
-120
-120
-121
-121
-122
-122
-122
-122
-123
-123
-123
-123
-123
-122
-123
-124
-124
-124
-124
-124
-124
-123
-123
-124
-123
-124
-124
-124
-124
-125
-124
-124
-125
-125
-124
-125
-125
-125
-126
-126
-126
-126
-126
-127
-127
-127
-128
-128
-127
-128
-128
-128
-129
-128
-129
-129
-129
-129
-129
-129
-130
-130
-129
-129
-130
-130
-130
-130
-131
-130
-130
-131
-131
-132
-132
-132
-133
-133
-133
-134
-134
-134
-134
-134
-134
-135
-134
-135
-134
-133
-133
-133
-132
-132
-131
-130
-130
-130
-130
-131
-131
-131
-133
-135
-137
-139
-143
-147
-153
-157
-164
-170
-178
-186
-195
-204
-213
-222
-232
-243
-253
-263
-273
-282
-292
-300
-309
-315
-324
-330
-335
-340
-345
-349
-352
-355
-356
-357
-357
-357
-356
-354
-352
-350
-347
-344
-340
-336
-332
-327
-322
-317
-311
-306
-300
-294
-288
-282
-275
-268
-262
-256
-248
-242
-236
-230
-223
-216
-210
-204
-198
-193
-187
-182
-177
-172
-167
-163
-159
-156
-153
-150
-147
-144
-142
-141
-138
-137
-137
-136
-135
-135
-134
-132
-132
-133
-133
-133
-132
-132
-132
-132
-132
-131
-131
-131
-131
-131
-130
-130
-129
-130
-129
-128
-129
-128
-128
-128
-128
-127
-127
-126
-126
-126
-126
-125
-125
-125
-125
-125
-124
-124
-124
-123
-123
-123
-123
-123
-123
-123
-122
-122
-122
-122
-122
-122
-122
-122
-121
-121
-121
-121
-121
-121
-121
-120
-119
-120
-120
-118
-118
-119
-118
-118
-118
-117
-117
-117
-117
-117
-117
-116
-116
-116
-116
-116
-116
-116
-118
-117
-117
-117
-117
-118
-119
-119
-119
-119
-119
-119
-119
-119
-119
-118
-118
-118
-118
-117
-117
-117
-117
-117
-116
-116
-116
-115
-115
-116
-116
-115
-115
-115
-114
-114
-114
-115
-115
-115
-115
-115
-115
-115
-115
-115
-115
-114
-114
-114
-114
-114
-113
-113
-113
-112
-112
-112
-112
-112
-112
-112
-112
-111
-111
-111
-111
-111
-111
-111
-112
-112
-112
-111
-111
-112
-111
-111
-111
-112
-111
-111
-110
-111
-110
-110
-111
-110
-110
-110
-110
-110
-110
-110
-109
-109
-109
-109
-109
-109
-109
-109
-108
-108
-108
-108
-108
-108
-108
-108
-107
-107
-107
-107
-107
-106
-106
-106
-106
-106
-106
-105
-105
-105
-105
-105
-105
-105
-105
-104
-105
-105
-105
-105
-105
-106
-105
-105
-106
-105
-105
-106
-106
-106
-106
-106
-106
-106
-106
-106
-106
-106
-106
-106
-107
-106
-106
-106
-108
-108
-107
-107
-107
-107
-107
-107
-107
-107
-106
-107
-107
-106
-107
-107
-106
-106
-106
-107
-107
-107
-107
-106
-106
-108
-108
-108
-108
-108
-108
-108
-109
-109
-109
-110
-111
-111
-111
-111
-111
-111
-111
-111
-112
-112
-112
-112
-113
-113
-113
-113
-113
-114
-114
-114
-113
-114
-114
-114
-115
-115
-115
-116
-116
-116
-116
-118
-118
-118
-118
-119
-119
-119
-119
-119
-120
-119
-120
-120
-120
-120
-120
-120
-120
-120
-120
-120
-119
-120
-119
-119
-119
-120
-119
-119
-118
-118
-118
-118
-117
-117
-117
-117
-116
-116
-116
-116
-115
-116
-115
-115
-114
-114
-114
-114
-113
-113
-113
-112
-113
-112
-112
-113
-112
-112
-112
-112
-112
-112
-112
-113
-112
-113
-112
-112
-112
-112
-112
-112
-112
-111
-112
-112
-112
-111
-111
-111
-111
-111
-111
-111
-111
-111
-111
-112
-111
-111
-111
-111
-111
-110
-110
-110
-109
-110
-110
-109
-109
-108
-108
-107
-107
-107
-107
-107
-105
-105
-105
-105
-105
-105
-105
-105
-105
-105
-106
-106
-106
-106
-106
-106
-107
-107
-106
-106
-107
-107
-107
-107
-107
-107
-107
-107
-107
-106
-106
-106
-106
-106
-106
-106
-106
-106
-105
-105
-105
-105
-105
-105
-105
-105
-104
-104
-104
-103
-104
-104
-104
-104
-103
-104
-104
-103
-104
-104
-105
-104
-104
-105
-105
-105
-105
-105
-105
-106
-105
-105
-105
-105
-104
-104
-105
-105
-104
-104
-104
-104
-104
-104
-104
-104
-104
-104
-104
-104
-104
-103
-103
-104
-104
-103
-103
-104
-104
-104
-104
-105
-105
-105
-105
-105
-104
-104
-105
-105
-106
-105
-106
-106
-106
-107
-106
-106
-106
-107
-107
-107
-107
-107
-107
-106
-107
-107
-106
-106
-107
-106
-106
-107
-106
-106
-106
-106
-106
-106
-106
-106
-106
-106
-106
-106
-106
-105
-105
-105
-106
-106
-106
-106
-106
-106
-106
-107
-106
-106
-106
-106
-106
-107
-107
-108
-107
-107
-108
-108
-108
-108
-108
-108
-108
-108
-109
-109
-108
-109
-109
-109
-110
-110
-110
-110
-111
-111
-111
-111
-111
-112
-112
-112
-112
-112
-113
-112
-112
-112
-112
-113
-113
-113
-113
-112
-112
-112
-112
-112
-112
-112
-112
-112
-112
-112
-112
-112
-112
-112
-112
-113
-113
-113
-113
-113
-113
-113
-114
-114
-114
-113
-114
-114
-114
-114
-115
-115
-115
-114
-114
-114
-114
-115
-115
-115
-115
-115
-115
-115
-115
-116
-116
-115
-115
-116
-115
-116
-116
-115
-115
-115
-114
-115
-115
-115
-115
-114
-114
-114
-114
-114
-115
-114
-114
-114
-114
-114
-114
-114
-114
-114
-115
-115
-115
-114
-116
-116
-116
-116
-116
-117
-117
-117
-117
-118
-118
-117
-117
-118
-118
-118
-118
-118
-118
-118
-118
-118
-118
-118
-117
-117
-117
-117
-117
-117
-118
-118
-118
-118
-118
-118
-118
-119
-119
-119
-119
-119
-119
-119
-119
-119
-119
-119
-119
-119
-119
-119
-119
-119
-119
-119
-119
-119
-119
-119
-119
-119
-118
-119
-119
-118
-119
-119
-120
-119
-119
-120
-121
-121
-120
-120
-121
-121
-121
-121
-121
-122
-122
-123
-123
-123
-123
-122
-122
-122
-123
-123
-123
-122
-122
-123
-123
-123
-123
-122
-122
-122
-122
-122
-122
-122
-122
-122
-121
-122
-122
-122
-122
-122
-122
-122
-122
-122
-122
-122
-122
-122
-123
-123
-124
-124
-124
-124
-124
-124
-124
-125
-125
-124
-124
-125
-125
-125
-125
-125
-125
-125
-125
-125
-125
-125
-126
-126
-127
-127
-126
-126
-126
-126
-127
-127
-127
-127
-127
-127
-127
-128
-128
-128
-128
-128
-128
-128
-127
-128
-128
-128
-128
-128
-128
-128
-128
-128
-128
-127
-127
-128
-128
-127
-127
-127
-128
-128
-128
-128
-128
-128
-128
-128
-128
-130
-130
-130
-130
-130
-130
-130
-130
-131
-131
-131
-132
-132
-132
-132
-132
-132
-132
-132
-132
-132
-132
-132
-132
-132
-132
-132
-132
-132
-132
-132
-132
-132
-132
-132
-132
-132
-132
-133
-133
-133
-134
-134
-134
-134
-135
-135
-135
-135
-135
-136
-136
-136
-136
-136
-136
-137
-137
-137
-137
-138
-137
-137
-137
-138
-138
-137
-138
-137
-137
-137
-137
-136
-137
-136
-136
-135
-135
-135
-135
-136
-135
-134
-134
-134
-134
-134
-135
-135
-135
-134
-134
-135
-135
-135
-135
-135
-134
-133
-133
-133
-132
-132
-132
-132
-131
-130
-130
-130
-129
-129
-128
-128
-128
-128
-127
-127
-126
-126
-126
-126
-126
-126
-126
-126
-126
-127
-127
-127
-128
-129
-129
-130
-130
-132
-132
-133
-134
-135
-136
-137
-137
-138
-139
-139
-139
-141
-141
-141
-141
-142
-141
-141
-141
-141
-141
-140
-141
-140
-140
-140
-140
-140
-140
-140
-140
-141
-141
-141
-141
-141
-140
-140
-140
-141
-141
-140
-140
-140
-140
-140
-140
-139
-139
-139
-139
-139
-139
-139
-140
-139
-139
-139
-139
-139
-139
-140
-140
-140
-139
-139
-140
-141
-141
-141
-141
-141
-141
-141
-141
-141
-141
-141
-141
-142
-142
-141
-141
-142
-142
-142
-142
-142
-142
-142
-143
-142
-142
-142
-142
-141
-142
-141
-141
-142
-142
-142
-143
-142
-143
-143
-143
-144
-144
-144
-145
-145
-145
-145
-145
-145
-144
-144
-143
-142
-142
-141
-142
-141
-141
-140
-140
-140
-141
-140
-142
-143
-146
-148
-151
-156
-160
-166
-171
-177
-185
-193
-201
-209
-219
-228
-238
-248
-259
-269
-279
-289
-299
-309
-318
-326
-333
-340
-348
-354
-360
-364
-368
-371
-374
-374
-375
-376
-375
-373
-372
-369
-365
-362
-358
-353
-348
-343
-337
-331
-324
-318
-310
-304
-296
-289
-282
-275
-267
-259
-252
-245
-238
-230
-224
-217
-211
-204
-197
-192
-186
-182
-176
-172
-167
-164
-160
-156
-153
-150
-148
-146
-144
-142
-141
-140
-138
-138
-136
-136
-136
-135
-134
-134
-133
-133
-133
-132
-131
-131
-130
-130
-130
-129
-128
-128
-127
-127
-127
-126
-125
-125
-124
-125
-125
-125
-123
-123
-123
-124
-123
-123
-123
-123
-123
-123
-122
-122
-121
-121
-121
-121
-121
-120
-120
-119
-119
-119
-118
-118
-117
-117
-117
-116
-116
-116
-116
-115
-115
-115
-115
-116
-116
-116
-117
-116
-116
-116
-116
-117
-117
-116
-116
-115
-115
-115
-115
-115
-115
-114
-114
-114
-114
-114
-114
-113
-113
-113
-113
-113
-112
-112
-113
-113
-113
-113
-113
-113
-113
-113
-113
-113
-112
-112
-112
-112
-112
-111
-111
-110
-110
-110
-110
-111
-111
-111
-111
-111
-111
-111
-111
-111
-111
-111
-111
-111
-111
-112
-112
-111
-112
-112
-112
-112
-112
-112
-112
-113
-113
-112
-112
-113
-113
-112
-112
-112
-112
-112
-110
-110
-110
-110
-110
-110
-109
-109
-109
-109
-109
-109
-109
-109
-109
-109
-109
-109
-109
-109
-109
-109
-110
-110
-110
-109
-110
-110
-109
-109
-109
-109
-108
-108
-108
-108
-108
-108
-108
-108
-108
-107
-107
-107
-107
-108
-108
-108
-107
-108
-108
-109
-108
-108
-108
-108
-108
-108
-108
-107
-107
-108
-107
-107
-107
-107
-107
-107
-106
-106
-106
-106
-106
-106
-106
-106
-106
-106
-106
-107
-107
-106
-107
-107
-107
-108
-108
-108
-108
-108
-108
-108
-109
-108
-108
-108
-109
-109
-110
-110
-110
-110
-110
-110
-110
-110
-111
-111
-111
-111
-111
-112
-112
-112
-112
-112
-112
-112
-112
-112
-113
-113
-113
-113
-113
-113
-114
-114
-114
-114
-114
-114
-114
-114
-115
-115
-115
-115
-115
-115
-115
-116
-115
-116
-116
-117
-117
-118
-118
-118
-118
-118
-120
-120
-120
-120
-120
-121
-121
-122
-121
-121
-122
-121
-121
-121
-121
-121
-121
-121
-120
-121
-121
-121
-120
-120
-120
-120
-120
-120
-120
-120
-120
-119
-120
-120
-120
-120
-120
-120
-119
-120
-120
-120
-120
-119
-119
-119
-119
-118
-117
-117
-117
-116
-116
-115
-116
-115
-114
-114
-113
-113
-112
-113
-112
-112
-111
-111
-110
-111
-110
-110
-110
-109
-110
-110
-109
-110
-109
-110
-109
-109
-109
-110
-109
-109
-109
-110
-109
-110
-110
-109
-109
-108
-109
-109
-108
-108
-109
-108
-108
-108
-107
-108
-108
-107
-107
-107
-107
-107
-106
-106
-106
-105
-105
-105
-105
-105
-104
-104
-105
-104
-104
-104
-104
-104
-104
-104
-104
-104
-103
-104
-104
-104
-104
-103
-103
-104
-104
-104
-104
-103
-103
-103
-103
-103
-102
-102
-102
-102
-101
-101
-101
-101
-101
-100
-100
-100
-99
-99
-99
-98
-98
-98
-98
-98
-98
-98
-97
-97
-97
-97
-98
-98
-97
-97
-97
-97
-97
-96
-97
-97
-97
-96
-97
-97
-97
-97
-97
-96
-96
-97
-96
-96
-96
-96
-96
-95
-96
-95
-95
-95
-95
-95
-96
-94
-94
-95
-95
-95
-95
-95
-95
-95
-95
-96
-96
-96
-96
-96
-97
-97
-97
-97
-97
-97
-97
-96
-96
-97
-96
-96
-97
-97
-97
-97
-97
-97
-97
-97
-97
-97
-98
-98
-98
-98
-98
-99
-98
-98
-98
-98
-98
-98
-98
-99
-99
-99
-99
-99
-99
-98
-98
-98
-98
-98
-98
-97
-97
-97
-97
-97
-97
-97
-97
-98
-98
-98
-98
-97
-97
-98
-98
-98
-98
-98
-98
-98
-98
-99
-99
-99
-100
-99
-99
-99
-100
-100
-100
-100
-99
-99
-100
-100
-100
-100
-101
-101
-101
-101
-101
-101
-101
-100
-101
-101
-101
-101
-101
-101
-101
-101
-101
-101
-101
-101
-101
-102
-101
-101
-101
-102
-102
-101
-101
-102
-102
-102
-102
-102
-102
-102
-102
-102
-102
-102
-103
-104
-103
-103
-103
-103
-103
-103
-103
-103
-103
-103
-102
-102
-102
-102
-101
-101
-101
-101
-101
-101
-100
-100
-100
-100
-100
-99
-99
-100
-101
-100
-100
-100
-100
-101
-101
-101
-101
-101
-100
-100
-101
-101
-101
-101
-101
-101
-100
-100
-100
-101
-100
-100
-100
-100
-101
-100
-100
-100
-100
-100
-100
-100
-100
-100
-100
-100
-100
-100
-101
-100
-100
-100
-100
-101
-100
-100
-100
-100
-100
-101
-101
-101
-101
-101
-101
-101
-101
-102
-102
-102
-102
-102
-102
-102
-102
-102
-102
-102
-102
-102
-102
-102
-102
-102
-102
-101
-102
-102
-102
-102
-102
-102
-102
-101
-101
-101
-101
-101
-101
-101
-101
-101
-100
-100
-100
-100
-100
-100
-100
-101
-101
-101
-101
-100
-101
-101
-101
-101
-102
-101
-103
-103
-103
-103
-103
-103
-103
-102
-102
-102
-102
-102
-102
-102
-101
-101
-102
-102
-102
-102
-101
-101
-101
-101
-101
-101
-101
-101
-101
-102
-102
-102
-102
-102
-102
-102
-101
-101
-101
-102
-102
-102
-102
-102
-102
-102
-102
-102
-102
-103
-102
-102
-102
-102
-103
-103
-103
-103
-104
-104
-104
-104
-104
-104
-104
-104
-104
-104
-104
-104
-104
-104
-103
-103
-103
-103
-103
-103
-102
-102
-102
-103
-103
-103
-103
-103
-103
-103
-103
-103
-103
-103
-102
-103
-103
-103
-103
-103
-103
-103
-103
-103
-103
-103
-103
-103
-103
-103
-104
-104
-104
-104
-104
-104
-104
-104
-105
-105
-105
-104
-104
-104
-104
-104
-103
-103
-103
-104
-104
-104
-104
-104
-104
-104
-105
-105
-104
-104
-105
-105
-105
-105
-105
-105
-106
-106
-106
-106
-106
-106
-106
-106
-106
-106
-106
-106
-106
-106
-106
-105
-105
-105
-106
-106
-105
-105
-105
-104
-105
-105
-105
-105
-106
-106
-106
-105
-105
-106
-107
-107
-107
-107
-107
-108
-108
-108
-109
-109
-109
-109
-109
-108
-108
-108
-108
-109
-108
-108
-107
-107
-107
-107
-106
-105
-106
-105
-104
-104
-104
-103
-103
-102
-102
-102
-101
-101
-101
-100
-100
-99
-99
-100
-99
-99
-98
-98
-97
-98
-97
-97
-96
-97
-96
-97
-96
-96
-96
-96
-97
-96
-97
-98
-98
-99
-100
-101
-102
-103
-104
-105
-106
-107
-108
-108
-109
-110
-110
-111
-112
-112
-113
-113
-113
-114
-114
-114
-114
-114
-114
-115
-115
-114
-114
-114
-114
-114
-114
-114
-114
-114
-114
-114
-114
-114
-114
-113
-114
-114
-113
-113
-113
-113
-114
-114
-114
-114
-114
-114
-114
-114
-114
-114
-114
-115
-115
-115
-115
-115
-114
-115
-115
-114
-114
-115
-115
-115
-115
-115
-115
-116
-116
-116
-116
-116
-116
-116
-117
-117
-117
-117
-117
-116
-117
-117
-117
-117
-117
-116
-116
-116
-117
-116
-116
-116
-116
-116
-116
-115
-115
-115
-116
-115
-115
-116
-116
-116
-116
-117
-117
-118
-118
-119
-119
-119
-119
-118
-118
-118
-118
-118
-118
-117
-117
-117
-117
-117
-118
-119
-120
-121
-122
-125
-128
-132
-137
-141
-147
-154
-160
-167
-175
-183
-191
-201
-210
-220
-230
-239
-248
-258
-267
-275
-283
-291
-298
-304
-310
-315
-319
-323
-326
-328
-329
-330
-331
-331
-329
-329
-327
-325
-322
-319
-316
-312
-308
-304
-298
-293
-288
-282
-277
-272
-265
-259
-253
-246
-239
-233
-226
-220
-213
-206
-201
-193
-188
-181
-175
-170
-165
-159
-155
-150
-146
-141
-138
-134
-131
-128
-126
-124
-122
-120
-119
-118
-116
-115
-115
-114
-114
-113
-113
-113
-112
-111
-111
-111
-110
-110
-109
-110
-109
-109
-109
-108
-108
-108
-108
-107
-107
-106
-106
-106
-106
-105
-106
-106
-105
-106
-105
-105
-104
-104
-104
-103
-103
-103
-102
-101
-101
-100
-100
-100
-99
-99
-98
-98
-97
-98
-97
-97
-97
-97
-96
-97
-97
-97
-97
-98
-97
-98
-98
-98
-98
-98
-98
-99
-99
-99
-98
-98
-98
-98
-98
-97
-97
-97
-97
-97
-97
-97
-97
-97
-97
-97
-97
-97
-97
-97
-97
-97
-97
-97
-97
-98
-98
-97
-97
-97
-97
-97
-97
-97
-97
-96
-96
-96
-96
-96
-96
-96
-96
-96
-96
-96
-96
-96
-96
-96
-96
-95
-95
-95
-95
-95
-95
-95
-95
-95
-95
-95
-96
-95
-95
-95
-95
-96
-95
-95
-95
-95
-96
-95
-95
-96
-96
-96
-96
-96
-96
-96
-95
-95
-95
-95
-95
-94
-95
-95
-95
-94
-94
-94
-94
-93
-94
-94
-93
-93
-93
-93
-93
-94
-94
-94
-93
-93
-93
-93
-92
-92
-92
-91
-91
-91
-91
-91
-91
-91
-90
-91
-91
-91
-90
-90
-90
-90
-90
-90
-91
-91
-91
-90
-91
-91
-91
-91
-91
-91
-91
-92
-91
-92
-91
-91
-91
-91
-92
-91
-91
-91
-91
-91
-91
-91
-91
-91
-92
-92
-92
-92
-92
-92
-92
-92
-92
-92
-92
-92
-92
-92
-92
-92
-92
-92
-92
-92
-92
-92
-92
-93
-93
-93
-93
-93
-92
-93
-93
-93
-93
-93
-93
-94
-94
-94
-94
-95
-95
-95
-96
-96
-96
-97
-96
-96
-97
-97
-98
-98
-98
-99
-99
-100
-100
-100
-100
-100
-100
-101
-101
-101
-101
-102
-102
-102
-102
-102
-102
-102
-102
-102
-103
-103
-103
-104
-104
-104
-104
-104
-104
-105
-106
-107
-107
-107
-107
-108
-108
-108
-109
-108
-109
-109
-108
-109
-108
-109
-109
-109
-109
-109
-108
-109
-109
-109
-109
-109
-109
-108
-109
-108
-108
-108
-108
-108
-108
-108
-109
-109
-108
-108
-108
-108
-107
-108
-108
-108
-108
-107
-108
-107
-108
-107
-107
-107
-107
-106
-106
-105
-106
-105
-105
-105
-105
-105
-105
-105
-105
-104
-104
-104
-105
-105
-105
-104
-105
-105
-106
-105
-105
-105
-105
-105
-105
-105
-105
-105
-105
-105
-105
-105
-105
-105
-105
-105
-105
-104
-104
-104
-104
-104
-104
-104
-104
-104
-103
-103
-103
-103
-103
-103
-103
-103
-103
-103
-103
-103
-103
-103
-103
-103
-103
-103
-103
-103
-103
-103
-103
-103
-103
-103
-103
-103
-104
-104
-104
-104
-104
-104
-104
-104
-104
-104
-104
-104
-103
-103
-103
-103
-103
-103
-103
-102
-102
-102
-103
-102
-102
-102
-102
-102
-102
-102
-103
-104
-104
-104
-104
-104
-104
-104
-104
-105
-104
-104
-104
-104
-104
-104
-104
-104
-104
-104
-104
-103
-103
-104
-104
-104
-104
-104
-103
-103
-104
-104
-103
-103
-103
-104
-104
-104
-104
-105
-104
-104
-104
-104
-105
-105
-105
-104
-104
-105
-105
-105
-105
-105
-106
-106
-106
-106
-106
-106
-107
-107
-106
-106
-106
-107
-107
-107
-107
-107
-107
-107
-107
-108
-108
-109
-109
-109
-109
-109
-109
-109
-109
-110
-110
-110
-110
-110
-110
-110
-111
-110
-110
-111
-111
-111
-111
-111
-111
-111
-112
-112
-112
-113
-112
-112
-112
-113
-113
-113
-112
-113
-113
-113
-113
-113
-113
-114
-114
-114
-114
-113
-113
-113
-113
-114
-113
-113
-113
-113
-112
-112
-112
-112
-112
-112
-112
-111
-112
-112
-112
-112
-112
-113
-112
-112
-113
-112
-112
-113
-113
-113
-113
-113
-114
-114
-114
-114
-114
-114
-115
-115
-115
-115
-115
-115
-116
-116
-116
-116
-116
-116
-117
-117
-117
-117
-117
-117
-118
-118
-118
-118
-118
-118
-118
-118
-118
-118
-118
-118
-118
-118
-119
-119
-118
-118
-118
-118
-118
-118
-118
-118
-118
-118
-118
-118
-118
-118
-118
-118
-119
-118
-118
-118
-119
-119
-119
-119
-118
-118
-119
-119
-119
-119
-119
-119
-119
-119
-119
-118
-118
-118
-118
-119
-119
-119
-119
-119
-119
-119
-119
-120
-120
-120
-120
-120
-119
-120
-120
-120
-120
-120
-120
-120
-119
-120
-120
-120
-120
-119
-119
-119
-119
-119
-119
-119
-119
-119
-119
-119
-120
-120
-120
-120
-120
-120
-120
-120
-120
-120
-120
-120
-121
-121
-121
-121
-120
-120
-120
-120
-121
-121
-121
-121
-121
-120
-120
-120
-120
-120
-119
-119
-120
-120
-119
-119
-119
-119
-119
-120
-119
-119
-119
-118
-118
-118
-118
-118
-118
-119
-119
-118
-118
-118
-118
-118
-118
-118
-118
-118
-118
-118
-118
-117
-117
-117
-118
-118
-118
-118
-118
-119
-118
-118
-119
-119
-119
-119
-119
-118
-118
-118
-118
-118
-118
-118
-118
-119
-118
-118
-119
-119
-119
-118
-117
-117
-117
-117
-117
-116
-116
-116
-116
-115
-115
-116
-115
-114
-114
-114
-114
-114
-114
-114
-114
-114
-114
-114
-114
-114
-115
-115
-115
-116
-116
-116
-116
-115
-115
-116
-116
-116
-116
-116
-115
-115
-115
-115
-116
-115
-115
-115
-115
-115
-116
-116
-115
-115
-115
-115
-116
-116
-115
-116
-116
-116
-116
-116
-116
-116
-117
-116
-116
-116
-116
-116
-115
-115
-116
-115
-115
-115
-114
-115
-114
-114
-115
-115
-114
-114
-115
-114
-114
-114
-115
-115
-114
-115
-115
-115
-115
-115
-116
-116
-115
-115
-115
-115
-116
-116
-115
-115
-115
-115
-115
-114
-114
-114
-114
-113
-112
-113
-112
-112
-112
-111
-112
-112
-111
-111
-111
-110
-110
-109
-109
-109
-109
-108
-108
-108
-108
-107
-107
-108
-108
-106
-106
-106
-106
-106
-106
-105
-105
-105
-105
-106
-105
-105
-105
-104
-104
-104
-103
-103
-104
-104
-103
-103
-103
-104
-103
-103
-104
-104
-104
-105
-105
-106
-107
-107
-107
-108
-108
-109
-110
-110
-110
-111
-112
-112
-113
-113
-113
-113
-114
-114
-115
-114
-115
-115
-115
-115
-115
-115
-116
-115
-116
-116
-116
-115
-116
-115
-115
-114
-115
-115
-114
-113
-112
-113
-112
-112
-112
-112
-111
-111
-111
-110
-110
-111
-110
-111
-111
-111
-111
-111
-111
-111
-112
-112
-112
-112
-112
-113
-113
-113
-113
-113
-112
-112
-112
-112
-112
-113
-113
-113
-113
-114
-114
-115
-115
-115
-115
-115
-115
-115
-116
-116
-116
-116
-115
-115
-115
-115
-115
-115
-115
-115
-114
-114
-114
-114
-114
-114
-114
-113
-114
-114
-114
-114
-115
-115
-115
-116
-116
-116
-116
-116
-116
-115
-115
-114
-113
-114
-114
-113
-113
-113
-113
-113
-113
-113
-115
-115
-117
-120
-123
-127
-132
-137
-143
-150
-157
-164
-172
-180
-188
-198
-207
-217
-226
-236
-245
-255
-264
-272
-279
-286
-293
-299
-305
-309
-313
-316
-320
-322
-323
-324
-324
-324
-323
-322
-320
-318
-315
-312
-308
-305
-301
-297
-293
-288
-283
-279
-273
-268
-263
-257
-251
-245
-239
-233
-227
-221
-214
-208
-202
-196
-190
-184
-178
-173
-166
-162
-156
-152
-148
-144
-140
-136
-133
-130
-128
-125
-123
-122
-120
-119
-118
-117
-116
-116
-115
-115
-114
-114
-114
-114
-114
-113
-113
-113
-113
-113
-112
-112
-112
-112
-111
-111
-111
-110
-110
-110
-110
-109
-108
-108
-107
-108
-108
-107
-107
-107
-108
-107
-107
-108
-108
-107
-107
-108
-108
-108
-108
-108
-108
-108
-108
-108
-108
-108
-108
-108
-108
-108
-108
-107
-108
-108
-108
-108
-108
-108
-107
-107
-107
-107
-108
-108
-107
-107
-108
-107
-107
-108
-107
-108
-107
-108
-107
-107
-108
-108
-107
-107
-107
-108
-107
-107
-107
-107
-107
-107
-107
-107
-107
-107
-107
-107
-107
-107
-107
-106
-106
-106
-106
-107
-107
-107
-107
-107
-107
-108
-107
-107
-107
-107
-108
-108
-108
-107
-108
-108
-108
-109
-108
-108
-108
-108
-108
-107
-108
-108
-108
-108
-108
-108
-108
-108
-108
-108
-109
-108
-108
-108
-108
-108
-109
-109
-109
-109
-109
-109
-109
-109
-109
-110
-110
-110
-110
-110
-109
-109
-109
-109
-110
-110
-108
-108
-109
-109
-109
-108
-108
-108
-108
-108
-108
-108
-109
-108
-109
-109
-110
-109
-110
-109
-110
-109
-110
-110
-110
-110
-109
-110
-110
-110
-110
-109
-109
-109
-109
-109
-109
-109
-108
-109
-109
-109
-109
-109
-109
-109
-110
-110
-109
-109
-110
-109
-109
-110
-110
-110
-111
-110
-110
-111
-111
-111
-111
-111
-111
-111
-111
-111
-111
-111
-111
-111
-111
-111
-111
-112
-112
-112
-112
-112
-112
-112
-113
-113
-113
-112
-113
-113
-114
-113
-114
-114
-114
-114
-114
-114
-114
-113
-114
-113
-113
-113
-113
-113
-113
-113
-112
-112
-113
-112
-112
-112
-111
-112
-112
-112
-112
-113
-114
-114
-115
-115
-116
-117
-117
-118
-119
-119
-120
-120
-121
-122
-123
-123
-124
-124
-124
-125
-125
-125
-126
-126
-126
-126
-127
-127
-127
-127
-128
-128
-128
-128
-129
-129
-129
-128
-129
-129
-128
-128
-128
-127
-128
-127
-127
-126
-126
-125
-125
-125
-124
-125
-124
-125
-124
-124
-124
-124
-124
-124
-123
-124
-124
-123
-124
-124
-123
-123
-124
-123
-123
-123
-123
-123
-123
-123
-122
-122
-123
-122
-122
-122
-121
-121
-121
-121
-121
-121
-121
-121
-120
-120
-120
-119
-120
-119
-120
-119
-119
-119
-118
-119
-119
-119
-118
-118
-118
-118
-118
-118
-118
-118
-118
-118
-117
-117
-116
-116
-117
-117
-117
-117
-116
-116
-116
-116
-116
-116
-116
-115
-115
-115
-115
-115
-115
-115
-114
-114
-114
-114
-114
-113
-113
-113
-114
-114
-113
-113
-113
-112
-113
-112
-112
-114
-114
-114
-114
-114
-114
-114
-114
-114
-115
-115
-115
-114
-115
-115
-115
-115
-115
-115
-115
-115
-115
-114
-114
-114
-114
-114
-114
-113
-113
-113
-113
-113
-113
-112
-112
-112
-112
-112
-112
-112
-113
-112
-113
-113
-113
-113
-113
-113
-113
-113
-113
-113
-113
-113
-113
-113
-113
-113
-113
-113
-112
-112
-112
-112
-113
-113
-112
-112
-112
-112
-112
-112
-112
-111
-111
-111
-111
-111
-111
-111
-111
-111
-111
-111
-110
-110
-111
-111
-111
-111
-111
-111
-111
-111
-111
-111
-111
-111
-111
-111
-111
-111
-111
-111
-110
-110
-110
-110
-110
-109
-110
-110
-110
-110
-109
-109
-110
-109
-109
-109
-109
-109
-110
-110
-110
-110
-110
-109
-110
-110
-110
-110
-111
-111
-111
-111
-111
-111
-111
-111
-112
-112
-112
-112
-112
-112
-112
-112
-112
-112
-112
-112
-112
-112
-112
-112
-112
-112
-112
-113
-112
-112
-113
-113
-113
-113
-113
-114
-114
-114
-115
-114
-114
-114
-114
-114
-114
-115
-115
-114
-114
-114
-114
-114
-114
-113
-113
-113
-113
-112
-112
-112
-112
-112
-112
-112
-112
-112
-112
-112
-112
-112
-113
-113
-113
-113
-113
-113
-113
-113
-113
-114
-114
-114
-114
-113
-114
-114
-113
-113
-113
-113
-113
-113
-113
-113
-112
-111
-111
-111
-112
-112
-111
-111
-111
-111
-111
-111
-111
-110
-110
-110
-110
-110
-110
-110
-109
-109
-109
-109
-109
-109
-109
-109
-109
-109
-108
-108
-109
-109
-109
-109
-109
-109
-109
-109
-109
-109
-109
-110
-110
-110
-110
-111
-111
-111
-111
-111
-111
-111
-111
-111
-111
-112
-112
-111
-111
-111
-111
-111
-110
-110
-111
-111
-110
-110
-110
-111
-110
-110
-110
-109
-110
-110
-110
-109
-109
-109
-109
-109
-109
-109
-110
-109
-109
-109
-109
-109
-109
-109
-109
-109
-109
-109
-110
-109
-109
-109
-109
-109
-109
-109
-109
-109
-109
-109
-109
-109
-109
-109
-109
-109
-109
-108
-108
-108
-108
-108
-107
-107
-107
-107
-106
-106
-106
-106
-106
-106
-106
-106
-106
-106
-106
-106
-106
-106
-106
-106
-106
-106
-106
-106
-105
-105
-105
-105
-105
-104
-104
-104
-104
-104
-104
-104
-103
-104
-104
-103
-104
-104
-104
-104
-104
-104
-104
-104
-104
-104
-104
-104
-104
-104
-104
-104
-104
-104
-103
-104
