# Simple Text Format
# Sampling Rate (Hz):= 1200.00
# Resolution:= 12
# Labels:= ECG	III
# Age:=	69
# Gender:=	Feminino
-181
-182
-182
-183
-183
-183
-184
-184
-185
-185
-185
-185
-186
-186
-186
-186
-185
-185
-184
-183
-181
-179
-176
-173
-169
-164
-159
-153
-147
-140
-134
-127
-120
-113
-107
-101
-95
-89
-85
-81
-77
-74
-72
-71
-70
-70
-71
-72
-73
-75
-78
-80
-83
-86
-88
-91
-93
-95
-97
-99
-101
-102
-104
-105
-106
-106
-107
-107
-108
-108
-108
-108
-107
-107
-107
-107
-106
-106
-106
-105
-105
-104
-104
-104
-104
-104
-104
-103
-103
-103
-103
-103
-103
-103
-103
-103
-103
-103
-103
-103
-103
-103
-103
-103
-103
-103
-103
-103
-103
-103
-103
-103
-102
-102
-102
-102
-102
-102
-102
-102
-102
-102
-102
-102
-102
-102
-102
-102
-102
-102
-103
-103
-103
-103
-103
-103
-103
-103
-103
-103
-102
-102
-102
-101
-101
-101
-101
-100
-100
-100
-100
-99
-99
-99
-99
-99
-99
-99
-100
-100
-100
-100
-100
-100
-101
-101
-101
-102
-102
-102
-102
-102
-102
-102
-102
-102
-102
-102
-101
-101
-101
-100
-100
-100
-100
-99
-99
-99
-99
-99
-99
-98
-98
-98
-98
-98
-98
-98
-99
-99
-99
-99
-99
-100
-100
-100
-100
-100
-100
-100
-100
-100
-100
-100
-100
-100
-100
-100
-100
-99
-99
-99
-99
-98
-98
-98
-97
-97
-97
-97
-96
-96
-96
-96
-96
-97
-97
-97
-97
-97
-98
-98
-98
-99
-99
-99
-99
-99
-99
-99
-99
-98
-98
-98
-97
-97
-97
-97
-97
-97
-96
-96
-96
-96
-96
-95
-95
-95
-95
-95
-95
-95
-95
-95
-95
-95
-95
-94
-94
-94
-94
-94
-94
-94
-94
-94
-94
-94
-94
-94
-94
-94
-94
-94
-94
-94
-94
-94
-94
-93
-93
-93
-93
-93
-93
-93
-93
-93
-93
-93
-93
-92
-92
-92
-92
-92
-92
-92
-92
-92
-91
-91
-91
-91
-90
-90
-90
-90
-90
-90
-90
-91
-91
-91
-91
-92
-92
-92
-92
-93
-93
-93
-94
-94
-94
-94
-94
-95
-95
-95
-95
-95
-95
-95
-95
-95
-95
-95
-95
-95
-95
-95
-95
-94
-94
-94
-94
-94
-94
-94
-94
-94
-93
-93
-93
-93
-93
-93
-93
-93
-93
-93
-92
-92
-92
-92
-92
-92
-91
-91
-91
-91
-91
-91
-91
-91
-91
-91
-91
-91
-90
-90
-90
-90
-90
-90
-90
-90
-90
-90
-90
-90
-90
-90
-90
-91
-91
-91
-92
-92
-92
-93
-93
-94
-94
-94
-95
-95
-95
-95
-95
-95
-95
-96
-96
-96
-96
-96
-95
-95
-95
-95
-95
-95
-95
-95
-95
-95
-95
-95
-96
-96
-96
-96
-96
-96
-96
-96
-96
-96
-96
-97
-97
-97
-97
-98
-98
-99
-99
-99
-99
-100
-100
-100
-101
-101
-101
-102
-102
-102
-102
-102
-102
-102
-102
-101
-101
-101
-101
-101
-100
-100
-100
-99
-99
-98
-98
-98
-98
-98
-98
-98
-97
-97
-97
-97
-97
-97
-97
-97
-97
-97
-97
-97
-97
-98
-98
-98
-98
-98
-98
-98
-99
-99
-99
-99
-99
-99
-100
-100
-99
-99
-99
-99
-99
-99
-99
-99
-99
-99
-99
-99
-99
-99
-99
-99
-99
-99
-99
-99
-99
-99
-98
-98
-98
-98
-98
-98
-97
-97
-97
-96
-96
-96
-96
-96
-96
-95
-95
-95
-95
-95
-94
-94
-94
-94
-95
-95
-95
-95
-95
-95
-95
-95
-95
-95
-95
-96
-96
-96
-96
-96
-96
-96
-96
-96
-96
-96
-96
-96
-96
-97
-97
-97
-98
-98
-98
-98
-98
-98
-98
-99
-99
-99
-100
-100
-100
-99
-99
-99
-98
-98
-98
-98
-98
-98
-97
-97
-97
-97
-96
-96
-96
-96
-96
-96
-96
-96
-96
-96
-96
-96
-96
-96
-96
-97
-97
-97
-98
-98
-98
-99
-99
-99
-100
-100
-100
-101
-101
-101
-102
-102
-102
-102
-102
-102
-101
-101
-101
-101
-101
-100
-100
-99
-99
-99
-98
-98
-98
-98
-98
-98
-97
-97
-97
-97
-97
-97
-97
-97
-97
-97
-97
-97
-97
-97
-97
-97
-98
-98
-98
-98
-98
-98
-98
-98
-98
-98
-98
-98
-98
-98
-97
-97
-97
-97
-97
-97
-97
-97
-96
-96
-96
-96
-95
-95
-95
-95
-95
-95
-95
-95
-95
-95
-95
-95
-95
-96
-96
-96
-96
-96
-96
-96
-96
-96
-97
-97
-97
-97
-97
-97
-97
-97
-97
-97
-97
-97
-97
-98
-98
-98
-98
-99
-99
-99
-99
-99
-99
-99
-99
-99
-100
-100
-100
-100
-100
-100
-100
-99
-99
-99
-99
-98
-98
-98
-98
-98
-98
-98
-98
-98
-98
-98
-97
-97
-97
-97
-97
-97
-96
-96
-96
-96
-96
-96
-96
-96
-96
-96
-95
-95
-95
-95
-96
-96
-96
-96
-96
-97
-97
-97
-98
-98
-98
-98
-98
-98
-98
-98
-98
-97
-97
-97
-96
-96
-96
-96
-95
-95
-95
-95
-95
-95
-96
-96
-96
-96
-96
-96
-96
-96
-96
-96
-97
-97
-96
-96
-96
-96
-96
-96
-95
-95
-95
-95
-95
-95
-94
-94
-94
-94
-94
-94
-94
-94
-94
-94
-95
-95
-95
-95
-95
-94
-95
-95
-95
-95
-95
-96
-95
-95
-95
-95
-95
-95
-95
-95
-95
-95
-95
-94
-94
-94
-94
-94
-94
-94
-94
-94
-94
-94
-94
-94
-94
-95
-95
-95
-96
-96
-96
-96
-96
-96
-96
-96
-96
-96
-96
-95
-95
-94
-94
-94
-94
-93
-93
-93
-92
-92
-92
-92
-92
-92
-92
-92
-92
-93
-93
-93
-93
-94
-94
-95
-95
-95
-95
-95
-95
-96
-96
-96
-96
-97
-97
-97
-97
-97
-97
-97
-97
-97
-97
-97
-97
-97
-97
-97
-96
-96
-96
-95
-95
-95
-94
-94
-94
-93
-93
-93
-92
-92
-92
-92
-92
-92
-92
-92
-93
-93
-93
-93
-93
-93
-93
-93
-93
-93
-93
-93
-94
-94
-93
-93
-93
-93
-93
-93
-93
-93
-93
-93
-93
-94
-94
-94
-95
-95
-95
-96
-96
-96
-96
-97
-97
-97
-97
-97
-97
-97
-97
-97
-97
-97
-96
-96
-95
-94
-93
-93
-92
-91
-91
-90
-90
-90
-89
-89
-88
-87
-87
-87
-86
-86
-86
-87
-87
-88
-88
-88
-88
-89
-89
-89
-90
-90
-91
-91
-92
-92
-92
-93
-93
-93
-93
-93
-93
-93
-93
-93
-93
-93
-93
-93
-93
-93
-93
-93
-93
-93
-93
-93
-93
-92
-92
-93
-93
-94
-94
-95
-95
-96
-97
-97
-98
-99
-99
-100
-100
-101
-101
-102
-102
-103
-103
-103
-104
-104
-104
-104
-104
-104
-103
-103
-103
-102
-102
-101
-101
-101
-101
-100
-100
-99
-99
-98
-98
-97
-97
-97
-96
-96
-96
-95
-95
-95
-95
-95
-94
-94
-94
-94
-95
-95
-95
-95
-95
-96
-96
-96
-97
-97
-97
-97
-97
-97
-97
-97
-98
-98
-98
-98
-98
-98
-98
-98
-98
-98
-97
-97
-97
-97
-97
-96
-96
-96
-96
-96
-96
-96
-96
-96
-96
-96
-96
-96
-96
-96
-97
-97
-98
-99
-100
-101
-102
-104
-105
-107
-109
-111
-113
-116
-118
-121
-124
-127
-130
-133
-136
-139
-141
-144
-146
-148
-150
-152
-153
-155
-156
-156
-157
-157
-157
-158
-158
-158
-159
-160
-160
-161
-162
-163
-164
-165
-166
-167
-167
-168
-168
-168
-167
-166
-165
-162
-159
-155
-151
-146
-141
-135
-129
-123
-116
-110
-104
-98
-92
-86
-82
-77
-74
-71
-69
-67
-66
-66
-66
-67
-68
-69
-71
-73
-75
-77
-79
-81
-82
-84
-86
-87
-88
-89
-90
-90
-91
-91
-91
-91
-91
-91
-90
-90
-90
-89
-89
-88
-88
-88
-87
-87
-87
-86
-86
-86
-86
-86
-86
-86
-86
-86
-86
-86
-86
-86
-86
-86
-86
-86
-86
-86
-85
-85
-85
-85
-85
-85
-85
-85
-85
-85
-85
-85
-86
-86
-86
-86
-86
-86
-86
-86
-86
-86
-86
-86
-85
-85
-85
-85
-84
-84
-84
-84
-83
-83
-83
-83
-83
-83
-83
-83
-83
-83
-83
-83
-83
-83
-83
-83
-83
-83
-83
-83
-83
-83
-83
-83
-82
-82
-82
-81
-81
-81
-81
-81
-81
-81
-81
-81
-81
-81
-81
-81
-81
-81
-81
-81
-81
-82
-82
-82
-82
-82
-82
-82
-81
-81
-81
-80
-80
-80
-80
-80
-81
-81
-80
-80
-80
-80
-80
-80
-80
-79
-79
-79
-79
-79
-79
-79
-79
-79
-79
-79
-79
-79
-79
-79
-79
-79
-79
-78
-78
-78
-78
-78
-78
-78
-77
-77
-77
-77
-77
-77
-76
-76
-76
-76
-76
-75
-75
-75
-75
-75
-75
-75
-75
-75
-74
-74
-74
-74
-74
-74
-74
-74
-74
-74
-74
-73
-73
-73
-73
-73
-73
-72
-72
-72
-72
-72
-72
-72
-71
-71
-71
-71
-71
-70
-70
-70
-70
-69
-69
-69
-69
-69
-69
-69
-69
-69
-68
-68
-68
-68
-68
-68
-68
-68
-69
-69
-69
-70
-70
-70
-71
-71
-72
-72
-72
-72
-72
-72
-73
-73
-73
-73
-73
-73
-72
-72
-72
-72
-72
-72
-72
-72
-72
-72
-73
-73
-73
-73
-74
-74
-75
-75
-76
-76
-76
-77
-77
-78
-78
-78
-78
-79
-79
-79
-79
-79
-79
-79
-79
-79
-79
-79
-79
-79
-79
-79
-79
-79
-79
-79
-78
-78
-78
-77
-77
-77
-77
-77
-77
-76
-76
-76
-75
-75
-75
-75
-75
-75
-76
-76
-76
-76
-76
-76
-76
-76
-76
-77
-77
-77
-77
-77
-78
-78
-78
-78
-78
-79
-79
-79
-79
-80
-80
-80
-80
-81
-81
-81
-81
-82
-82
-82
-82
-83
-83
-83
-83
-83
-84
-84
-84
-84
-84
-84
-84
-84
-85
-85
-85
-85
-85
-85
-85
-85
-86
-86
-86
-86
-86
-86
-86
-86
-86
-86
-86
-86
-86
-86
-86
-86
-86
-86
-86
-87
-87
-87
-87
-87
-87
-88
-88
-88
-89
-89
-89
-89
-90
-90
-91
-91
-91
-92
-92
-93
-93
-93
-94
-94
-94
-94
-95
-95
-95
-95
-96
-96
-96
-96
-96
-96
-95
-95
-95
-95
-95
-94
-94
-94
-94
-94
-94
-94
-94
-94
-94
-93
-93
-93
-93
-93
-93
-93
-93
-93
-92
-92
-92
-92
-92
-92
-92
-92
-92
-92
-91
-91
-91
-91
-91
-91
-91
-91
-91
-91
-90
-90
-90
-90
-89
-89
-89
-89
-89
-88
-88
-88
-88
-88
-89
-89
-89
-89
-89
-89
-89
-89
-90
-90
-90
-90
-91
-91
-91
-91
-91
-91
-91
-91
-91
-91
-91
-91
-90
-90
-90
-89
-89
-89
-89
-89
-88
-88
-88
-88
-88
-88
-88
-88
-88
-88
-88
-88
-88
-88
-88
-88
-89
-89
-89
-90
-90
-91
-91
-91
-92
-92
-92
-93
-93
-93
-94
-94
-95
-95
-95
-95
-95
-95
-95
-94
-94
-94
-94
-93
-93
-93
-93
-93
-93
-92
-92
-92
-92
-92
-92
-92
-92
-92
-93
-93
-93
-93
-94
-94
-94
-94
-95
-95
-95
-95
-95
-95
-95
-95
-95
-95
-95
-95
-94
-94
-94
-94
-94
-94
-94
-94
-94
-94
-94
-94
-94
-94
-95
-95
-95
-95
-95
-96
-96
-96
-96
-96
-96
-95
-95
-95
-95
-95
-95
-95
-94
-94
-94
-93
-93
-93
-93
-93
-93
-93
-92
-92
-93
-93
-93
-94
-94
-94
-95
-95
-95
-95
-96
-96
-96
-97
-97
-97
-98
-98
-98
-99
-99
-99
-99
-99
-99
-99
-99
-99
-98
-98
-98
-97
-97
-97
-97
-96
-96
-96
-96
-95
-95
-95
-95
-94
-94
-94
-94
-94
-94
-95
-95
-95
-95
-95
-95
-95
-95
-95
-95
-95
-95
-95
-95
-95
-96
-96
-96
-95
-95
-95
-95
-94
-94
-95
-95
-95
-95
-95
-95
-95
-95
-95
-94
-94
-94
-94
-94
-94
-94
-94
-94
-94
-95
-95
-95
-95
-95
-96
-96
-97
-97
-97
-98
-98
-99
-99
-100
-100
-100
-100
-100
-100
-100
-100
-100
-100
-99
-99
-99
-99
-99
-98
-98
-98
-98
-98
-97
-97
-97
-97
-97
-97
-97
-97
-97
-97
-97
-98
-98
-98
-98
-98
-98
-98
-98
-98
-98
-98
-98
-98
-97
-97
-97
-97
-97
-97
-97
-97
-97
-97
-97
-98
-98
-98
-98
-98
-98
-98
-98
-98
-98
-98
-98
-98
-98
-98
-98
-98
-98
-98
-98
-98
-98
-98
-98
-98
-98
-98
-98
-98
-98
-98
-98
-98
-98
-97
-97
-97
-97
-97
-97
-97
-96
-96
-96
-96
-96
-96
-96
-96
-96
-96
-96
-96
-96
-96
-97
-97
-97
-97
-97
-97
-97
-97
-97
-97
-97
-97
-97
-97
-97
-97
-97
-97
-97
-97
-97
-97
-97
-97
-97
-97
-98
-98
-98
-98
-99
-99
-99
-99
-100
-100
-100
-100
-100
-100
-101
-101
-101
-101
-101
-100
-100
-100
-100
-100
-100
-99
-99
-99
-99
-99
-99
-99
-98
-98
-98
-99
-99
-99
-99
-99
-99
-99
-99
-99
-99
-99
-99
-99
-99
-99
-99
-98
-98
-98
-98
-98
-98
-97
-97
-97
-97
-97
-97
-96
-96
-96
-96
-96
-97
-97
-97
-97
-97
-97
-98
-98
-98
-98
-98
-99
-99
-99
-99
-99
-100
-100
-100
-100
-100
-100
-100
-101
-101
-101
-101
-101
-101
-100
-100
-100
-100
-100
-100
-99
-99
-98
-98
-97
-97
-97
-97
-97
-97
-97
-97
-97
-97
-97
-97
-97
-97
-98
-98
-99
-99
-100
-100
-101
-101
-101
-101
-101
-101
-101
-101
-101
-101
-101
-101
-101
-101
-100
-100
-100
-99
-99
-98
-98
-98
-97
-97
-96
-96
-96
-96
-95
-95
-95
-95
-94
-94
-94
-95
-95
-95
-95
-95
-95
-96
-96
-96
-96
-96
-97
-97
-97
-98
-98
-98
-98
-98
-99
-99
-99
-99
-99
-99
-99
-99
-99
-99
-99
-100
-100
-100
-101
-101
-101
-102
-102
-103
-103
-104
-104
-104
-105
-105
-106
-106
-106
-106
-106
-107
-107
-107
-107
-107
-107
-107
-107
-107
-106
-106
-106
-106
-106
-106
-105
-105
-105
-104
-104
-104
-103
-103
-103
-102
-102
-101
-101
-101
-100
-100
-100
-100
-100
-100
-100
-100
-101
-101
-101
-101
-101
-101
-101
-102
-102
-102
-102
-102
-102
-102
-102
-102
-102
-102
-102
-102
-102
-102
-102
-102
-101
-101
-101
-101
-101
-101
-100
-100
-100
-100
-100
-99
-99
-99
-99
-99
-99
-99
-99
-99
-99
-100
-100
-101
-102
-103
-104
-106
-107
-109
-111
-113
-116
-118
-121
-124
-127
-130
-133
-136
-140
-143
-147
-150
-153
-157
-160
-162
-165
-167
-170
-171
-173
-174
-175
-176
-177
-178
-179
-180
-182
-183
-184
-185
-186
-187
-189
-190
-191
-191
-192
-192
-192
-191
-190
-187
-185
-181
-177
-171
-165
-158
-150
-143
-135
-127
-119
-111
-104
-97
-90
-84
-79
-74
-71
-68
-66
-65
-65
-65
-66
-68
-70
-72
-74
-77
-79
-82
-84
-87
-89
-90
-92
-93
-94
-94
-94
-95
-95
-95
-95
-95
-94
-94
-94
-94
-93
-93
-93
-93
-93
-93
-92
-92
-92
-92
-92
-92
-92
-92
-92
-92
-92
-92
-92
-91
-91
-91
-91
-90
-90
-90
-89
-89
-89
-89
-89
-89
-89
-89
-88
-88
-88
-89
-89
-89
-89
-89
-90
-90
-91
-91
-91
-92
-92
-92
-93
-93
-93
-93
-93
-93
-93
-93
-93
-93
-93
-93
-93
-93
-93
-93
-93
-93
-93
-93
-93
-93
-93
-93
-93
-94
-94
-94
-94
-94
-94
-94
-94
-94
-94
-93
-93
-93
-93
-93
-92
-92
-92
-91
-91
-91
-91
-90
-90
-90
-89
-89
-89
-89
-89
-89
-89
-89
-89
-90
-90
-90
-90
-91
-91
-91
-92
-92
-93
-93
-93
-93
-93
-93
-93
-93
-93
-93
-93
-93
-93
-92
-92
-91
-91
-90
-90
-89
-89
-89
-88
-88
-88
-88
-88
-88
-87
-87
-87
-87
-87
-87
-87
-87
-87
-87
-87
-87
-87
-88
-88
-88
-88
-88
-88
-88
-88
-88
-88
-88
-88
-88
-87
-87
-88
-88
-88
-88
-88
-88
-87
-87
-87
-87
-87
-87
-87
-87
-87
-87
-86
-86
-86
-85
-85
-85
-84
-84
-84
-84
-84
-84
-83
-83
-83
-83
-83
-83
-83
-83
-83
-83
-83
-83
-83
-83
-84
-84
-84
-84
-85
-85
-85
-85
-85
-85
-85
-85
-85
-85
-85
-85
-85
-86
-86
-87
-87
-87
-87
-87
-88
-88
-88
-89
-89
-89
-89
-90
-90
-90
-90
-90
-90
-91
-91
-91
-91
-91
-91
-90
-90
-90
-90
-90
-90
-90
-90
-90
-90
-90
-90
-91
-91
-91
-91
-91
-91
-91
-91
-91
-91
-91
-91
-91
-91
-91
-91
-91
-90
-90
-90
-90
-90
-89
-89
-88
-88
-88
-87
-87
-87
-87
-87
-87
-87
-87
-87
-88
-88
-88
-89
-89
-90
-90
-91
-91
-92
-92
-92
-92
-92
-92
-92
-92
-92
-92
-92
-92
-92
-92
-92
-92
-92
-92
-91
-91
-91
-91
-91
-92
-92
-92
-92
-92
-92
-92
-93
-93
-93
-93
-93
-93
-93
-93
-92
-92
-92
-92
-92
-92
-91
-91
-91
-91
-91
-90
-90
-90
-90
-90
-91
-91
-91
-92
-92
-92
-93
-93
-93
-93
-94
-95
-95
-96
-96
-97
-97
-98
-98
-99
-99
-100
-101
-101
-102
-103
-104
-104
-105
-105
-106
-106
-106
-107
-107
-107
-107
-107
-107
-107
-107
-107
-106
-106
-106
-105
-105
-105
-105
-104
-104
-103
-103
-103
-103
-103
-103
-103
-103
-103
-103
-103
-103
-103
-103
-104
-104
-104
-104
-104
-104
-104
-104
-104
-104
-104
-104
-104
-104
-104
-104
-103
-103
-103
-102
-102
-102
-102
-102
-101
-101
-101
-101
-101
-101
-101
-101
-101
-101
-101
-101
-101
-101
-101
-101
-101
-101
-101
-101
-101
-101
-101
-101
-101
-101
-101
-101
-101
-101
-100
-100
-100
-100
-100
-100
-100
-100
-100
-101
-101
-101
-101
-101
-101
-101
-101
-102
-102
-102
-102
-102
-102
-102
-102
-102
-103
-103
-103
-103
-103
-103
-104
-104
-104
-104
-104
-104
-103
-103
-103
-103
-103
-103
-103
-103
-103
-103
-103
-103
-103
-103
-103
-103
-103
-103
-104
-104
-104
-104
-105
-105
-105
-105
-105
-105
-105
-106
-106
-105
-105
-105
-104
-104
-104
-104
-103
-103
-103
-103
-103
-103
-103
-103
-103
-104
-104
-104
-105
-105
-106
-106
-107
-107
-108
-108
-108
-108
-108
-108
-108
-108
-108
-108
-108
-107
-107
-107
-106
-106
-106
-106
-106
-106
-106
-106
-106
-106
-107
-107
-107
-107
-108
-108
-108
-108
-108
-108
-108
-108
-108
-108
-108
-108
-108
-108
-108
-109
-109
-109
-109
-109
-110
-110
-110
-110
-110
-110
-110
-110
-110
-110
-110
-110
-110
-109
-109
-108
-108
-108
-108
-108
-108
-108
-107
-107
-107
-107
-107
-108
-108
-108
-108
-109
-109
-109
-110
-110
-110
-110
-111
-111
-111
-111
-111
-111
-112
-112
-112
-112
-112
-112
-111
-111
-110
-110
-109
-108
-108
-108
-107
-107
-106
-106
-105
-105
-105
-105
-105
-104
-104
-104
-105
-105
-105
-105
-106
-106
-106
-106
-106
-106
-105
-105
-106
-106
-106
-106
-107
-107
-107
-107
-107
-107
-108
-108
-109
-109
-109
-110
-110
-111
-111
-111
-111
-111
-111
-111
-111
-110
-110
-110
-109
-109
-109
-108
-108
-108
-107
-107
-107
-106
-106
-106
-106
-106
-106
-106
-106
-106
-107
-107
-107
-107
-107
-108
-108
-108
-108
-108
-108
-108
-108
-108
-108
-108
-108
-108
-108
-108
-108
-108
-108
-108
-108
-108
-108
-108
-108
-108
-108
-109
-109
-109
-109
-109
-109
-109
-109
-109
-109
-109
-109
-109
-109
-109
-108
-108
-108
-107
-107
-106
-106
-106
-105
-105
-105
-105
-104
-104
-104
-104
-104
-104
-104
-104
-105
-105
-105
-105
-105
-105
-105
-105
-105
-105
-105
-105
-105
-105
-105
-105
-105
-105
-105
-106
-106
-106
-107
-107
-108
-108
-108
-109
-109
-109
-110
-110
-111
-111
-111
-111
-111
-111
-110
-110
-110
-110
-109
-109
-109
-109
-109
-108
-108
-108
-108
-108
-108
-108
-108
-108
-108
-108
-108
-107
-107
-107
-107
-107
-107
-107
-108
-108
-108
-108
-108
-108
-108
-108
-108
-108
-108
-108
-108
-108
-108
-108
-108
-108
-108
-108
-108
-109
-109
-109
-109
-110
-110
-110
-110
-110
-110
-109
-109
-109
-109
-109
-109
-108
-108
-107
-107
-106
-106
-105
-105
-105
-105
-104
-104
-104
-104
-105
-105
-105
-106
-106
-107
-107
-108
-108
-109
-109
-109
-109
-109
-109
-109
-109
-109
-108
-108
-108
-108
-108
-107
-107
-107
-107
-107
-107
-107
-106
-106
-106
-106
-107
-107
-107
-107
-107
-107
-107
-107
-106
-106
-105
-104
-104
-103
-103
-103
-103
-102
-102
-102
-102
-102
-102
-102
-102
-103
-103
-104
-104
-104
-105
-105
-106
-106
-107
-107
-107
-108
-108
-108
-108
-108
-108
-108
-108
-108
-108
-108
-108
-109
-109
-109
-110
-110
-110
-111
-111
-111
-112
-112
-113
-114
-114
-115
-116
-116
-116
-116
-116
-116
-116
-116
-117
-117
-117
-117
-116
-116
-115
-115
-114
-114
-114
-113
-112
-112
-111
-111
-111
-110
-110
-110
-109
-109
-109
-108
-108
-108
-108
-108
-108
-109
-109
-109
-109
-109
-109
-109
-110
-110
-110
-111
-111
-111
-111
-111
-111
-111
-111
-111
-111
-111
-111
-112
-112
-112
-111
-111
-111
-111
-111
-111
-111
-111
-111
-111
-111
-112
-112
-112
-112
-112
-112
-112
-112
-113
-113
-113
-113
-114
-114
-115
-115
-116
-117
-118
-119
-120
-122
-124
-126
-128
-130
-133
-135
-138
-141
-144
-147
-150
-154
-157
-160
-163
-166
-169
-171
-174
-176
-177
-179
-180
-181
-181
-182
-182
-182
-182
-182
-182
-182
-182
-182
-183
-183
-183
-184
-184
-183
-183
-183
-182
-181
-180
-178
-176
-173
-170
-166
-161
-156
-150
-144
-138
-132
-125
-119
-113
-107
-102
-97
-92
-88
-85
-82
-80
-79
-78
-78
-79
-80
-81
-83
-85
-87
-89
-91
-93
-95
-97
-99
-100
-102
-103
-104
-104
-105
-105
-106
-106
-106
-106
-106
-106
-105
-105
-105
-105
-104
-104
-104
-103
-103
-103
-103
-103
-103
-103
-103
-103
-103
-103
-103
-103
-103
-104
-104
-104
-104
-104
-105
-105
-105
-105
-105
-106
-106
-106
-106
-106
-106
-106
-106
-106
-105
-105
-105
-104
-104
-104
-103
-103
-102
-101
-101
-101
-100
-100
-100
-100
-100
-99
-100
-100
-100
-100
-101
-101
-101
-102
-102
-102
-102
-103
-103
-103
-104
-104
-104
-104
-103
-103
-103
-102
-102
-102
-102
-102
-102
-102
-102
-102
-102
-102
-101
-101
-101
-101
-101
-101
-102
-102
-102
-102
-102
-102
-102
-101
-101
-101
-101
-101
-101
-101
-101
-101
-101
-101
-101
-101
-101
-101
-101
-101
-101
-101
-100
-100
-100
-100
-100
-100
-100
-100
-100
-100
-100
-99
-99
-99
-99
-99
-99
-99
-100
-100
-100
-100
-100
-100
-100
-100
-100
-99
-99
-99
-99
-98
-98
-98
-98
-98
-97
-97
-97
-98
-98
-97
-97
-97
-97
-97
-97
-97
-97
-97
-97
-97
-97
-97
-97
-96
-96
-96
-96
-96
-95
-95
-95
-95
-95
-95
-95
-95
-95
-95
-95
-95
-95
-95
-95
-94
-94
-94
-94
-94
-94
-94
-94
-94
-94
-94
-94
-94
-94
-94
-94
-95
-95
-95
-94
-94
-94
-94
-95
-95
-95
-94
-94
-94
-94
-94
-93
-93
-93
-92
-92
-92
-92
-91
-91
-91
-91
-90
-90
-91
-91
-91
-91
-91
-91
-92
-92
-92
-92
-93
-93
-93
-93
-94
-94
-94
-94
-94
-94
-94
-94
-94
-94
-94
-94
-94
-94
-94
-94
-94
-94
-94
-94
-95
-95
-95
-95
-95
-95
-95
-95
-95
-95
-95
-95
-95
-95
-95
-95
-95
-94
-94
-94
-94
-94
-94
-93
-93
-93
-93
-93
-93
-93
-93
-93
-93
-93
-93
-93
-93
-93
-93
-93
-93
-93
-93
-93
-93
-93
-93
-93
-93
-93
-93
-93
-93
-93
-94
-94
-95
-95
-96
-96
-96
-97
-97
-98
-98
-99
-99
-100
-100
-100
-100
-100
-101
-101
-101
-101
-101
-101
-101
-101
-101
-101
-101
-101
-101
-101
-101
-101
-101
-101
-102
-102
-102
-102
-103
-103
-104
-104
-104
-105
-105
-105
-105
-106
-106
-106
-107
-107
-107
-107
-108
-108
-108
-108
-108
-108
-108
-109
-109
-109
-109
-109
-110
-110
-110
-110
-111
-111
-111
-111
-112
-112
-112
-112
-112
-113
-113
-113
-113
-113
-113
-113
-112
-112
-112
-111
-111
-110
-110
-110
-109
-109
-108
-108
-108
-108
-108
-108
-108
-109
-109
-109
-110
-110
-111
-111
-112
-113
-113
-113
-114
-114
-114
-114
-114
-114
-114
-114
-114
-113
-113
-113
-112
-112
-112
-112
-112
-112
-112
-112
-111
-111
-111
-111
-110
-110
-110
-110
-110
-111
-111
-111
-110
-110
-110
-110
-110
-109
-109
-109
-109
-109
-109
-109
-109
-110
-110
-110
-110
-111
-111
-111
-111
-111
-112
-112
-112
-112
-112
-112
-112
-113
-113
-113
-113
-112
-112
-112
-111
-111
-111
-111
-111
-111
-110
-110
-110
-110
-110
-110
-110
-110
-110
-110
-110
-110
-110
-111
-111
-111
-111
-111
-111
-112
-112
-112
-112
-112
-112
-112
-112
-113
-113
-113
-113
-113
-113
-113
-113
-113
-113
-113
-113
-113
-113
-113
-112
-112
-112
-111
-111
-111
-111
-111
-111
-110
-110
-110
-110
-110
-110
-110
-109
-109
-109
-110
-110
-110
-110
-110
-110
-110
-110
-110
-110
-110
-110
-110
-110
-111
-111
-111
-112
-112
-112
-112
-112
-112
-113
-113
-113
-113
-113
-113
-113
-113
-113
-113
-113
-113
-113
-112
-112
-112
-112
-112
-112
-111
-111
-111
-111
-111
-111
-111
-110
-110
-110
-110
-110
-110
-110
-110
-110
-110
-110
-110
-110
-110
-110
-110
-110
-110
-110
-110
-110
-110
-110
-110
-110
-110
-110
-110
-110
-110
-110
-110
-110
-110
-110
-111
-111
-111
-111
-111
-111
-111
-111
-111
-111
-111
-111
-111
-111
-111
-111
-111
-111
-111
-111
-112
-112
-112
-112
-112
-112
-111
-111
-111
-111
-111
-111
-111
-111
-110
-110
-110
-110
-110
-110
-110
-110
-110
-110
-110
-110
-110
-110
-110
-110
-111
-111
-111
-111
-111
-111
-111
-111
-111
-111
-111
-112
-112
-112
-112
-112
-111
-111
-111
-111
-111
-111
-111
-111
-111
-112
-112
-112
-112
-112
-112
-112
-112
-112
-112
-112
-112
-112
-112
-112
-112
-112
-112
-112
-112
-112
-112
-112
-112
-112
-113
-113
-113
-113
-113
-113
-113
-114
-114
-114
-114
-114
-114
-113
-113
-113
-113
-112
-112
-112
-112
-112
-112
-112
-112
-112
-111
-111
-111
-111
-112
-112
-112
-112
-112
-113
-113
-113
-113
-113
-113
-113
-113
-113
-113
-113
-113
-113
-113
-113
-113
-113
-113
-112
-112
-112
-112
-112
-112
-112
-111
-111
-111
-111
-111
-111
-111
-111
-111
-111
-112
-112
-112
-112
-113
-113
-113
-113
-113
-113
-114
-114
-114
-114
-114
-114
-113
-113
-113
-113
-113
-113
-113
-112
-113
-113
-113
-113
-113
-113
-113
-113
-113
-113
-114
-114
-114
-115
-115
-115
-116
-116
-116
-116
-116
-116
-116
-115
-115
-115
-115
-114
-114
-114
-114
-114
-113
-113
-113
-112
-112
-112
-112
-112
-112
-113
-113
-113
-113
-113
-113
-113
-114
-114
-114
-115
-115
-115
-115
-116
-116
-116
-116
-116
-116
-116
-116
-116
-116
-116
-116
-116
-116
-116
-115
-115
-115
-115
-115
-115
-115
-114
-114
-114
-114
-114
-114
-114
-114
-114
-114
-114
-114
-114
-114
-114
-114
-114
-114
-114
-113
-113
-113
-113
-113
-113
-113
-112
-112
-112
-113
-113
-113
-113
-113
-113
-113
-113
-113
-114
-114
-114
-114
-114
-115
-115
-115
-115
-115
-115
-115
-116
-116
-116
-115
-115
-115
-114
-114
-113
-113
-113
-112
-112
-112
-111
-111
-110
-109
-109
-108
-108
-107
-107
-107
-107
-106
-106
-106
-106
-106
-106
-106
-107
-107
-107
-107
-108
-108
-108
-109
-109
-110
-110
-111
-111
-111
-112
-112
-113
-113
-113
-113
-114
-114
-114
-114
-114
-114
-114
-114
-114
-114
-114
-114
-114
-114
-114
-114
-115
-115
-115
-116
-116
-117
-117
-118
-119
-119
-120
-120
-121
-122
-122
-123
-123
-123
-124
-124
-124
-124
-124
-124
-124
-123
-123
-122
-122
-121
-121
-120
-120
-119
-118
-117
-117
-116
-116
-115
-115
-114
-114
-114
-113
-113
-113
-113
-113
-113
-113
-114
-114
-114
-114
-115
-115
-115
-115
-116
-116
-116
-115
-115
-115
-115
-115
-115
-115
-115
-115
-114
-114
-114
-113
-113
-112
-112
-112
-111
-111
-111
-111
-110
-110
-110
-110
-110
-110
-110
-110
-110
-111
-111
-111
-112
-112
-113
-113
-114
-115
-116
-117
-119
-120
-121
-122
-124
-125
-127
-129
-131
-133
-136
-138
-141
-143
-146
-149
-151
-154
-157
-159
-161
-163
-166
-167
-169
-170
-171
-172
-172
-173
-173
-173
-173
-174
-174
-174
-175
-176
-177
-177
-178
-180
-181
-182
-183
-184
-185
-186
-186
-185
-184
-183
-180
-177
-173
-169
-164
-158
-152
-146
-140
-133
-127
-120
-114
-108
-103
-98
-94
-90
-87
-85
-84
-83
-83
-84
-85
-86
-87
-89
-91
-93
-95
-98
-100
-101
-103
-105
-106
-107
-108
-109
-109
-109
-109
-109
-109
-109
-109
-108
-108
-107
-107
-107
-106
-106
-106
-105
-105
-105
-105
-105
-105
-105
-105
-105
-105
-105
-105
-105
-105
-105
-105
-105
-105
-105
-105
-105
-105
-105
-105
-105
-105
-105
-104
-104
-104
-104
-104
-104
-104
-104
-104
-104
-105
-105
-105
-105
-105
-105
-105
-106
-106
-106
-106
-106
-107
-107
-107
-107
-107
-108
-108
-108
-108
-107
-107
-107
-107
-108
-108
-108
-108
-108
-108
-107
-107
-107
-107
-107
-107
-107
-107
-107
-107
-107
-107
-107
-107
-107
-106
-106
-106
-105
-105
-105
-104
-104
-104
-104
-104
-103
-103
-102
-102
-102
-102
-102
-102
-102
-102
-102
-102
-102
-102
-102
-102
-102
-102
-103
-103
-103
-103
-104
-104
-104
-104
-104
-104
-104
-104
-104
-104
-104
-103
-103
-103
-103
-103
-103
-102
-102
-102
-102
-102
-102
-102
-102
-102
-102
-102
-102
-102
-102
-102
-102
-102
-101
-101
-101
-100
-100
-99
-99
-99
-98
-98
-98
-98
-97
-97
-97
-96
-96
-96
-96
-96
-96
-96
-96
-97
-97
-97
-97
-97
-97
-98
-98
-98
-98
-98
-99
-99
-99
-99
-99
-100
-100
-100
-100
-99
-99
-99
-99
-98
-98
-98
-98
-98
-97
-97
-97
-97
-96
-96
-95
-95
-95
-95
-95
-95
-95
-94
-94
-94
-94
-94
-94
-94
-94
-94
-93
-93
-93
-93
-93
-93
-93
-93
-94
-94
-94
-94
-94
-95
-95
-95
-95
-96
-96
-96
-97
-97
-97
-98
-98
-98
-98
-98
-99
-99
-99
-99
-99
-98
-98
-98
-98
-98
-97
-97
-97
-97
-97
-97
-97
-97
-97
-97
-97
-97
-98
-98
-98
-99
-99
-99
-99
-100
-100
-100
-100
-101
-101
-101
-101
-101
-101
-101
-101
-101
-101
-101
-100
-100
-100
-100
-100
-100
-100
-100
-100
-100
-100
-100
-100
-99
-99
-99
-99
-99
-99
-99
-99
-99
-99
-99
-99
-99
-99
-98
-98
-98
-98
-98
-99
-99
-99
-99
-99
-100
-100
-101
-101
-102
-102
-103
-103
-104
-104
-105
-105
-106
-106
-107
-107
-107
-108
-108
-108
-108
-108
-108
-109
-109
-109
-109
-109
-110
-110
-110
-110
-110
-111
-111
-111
-111
-111
-111
-111
-111
-111
-111
-111
-111
-111
-110
-110
-111
-111
-111
-111
-111
-111
-111
-111
-112
-112
-113
-113
-114
-114
-114
-115
-115
-116
-116
-116
-117
-117
-118
-118
-118
-118
-119
-119
-119
-119
-119
-119
-118
-118
-118
-118
-118
-118
-118
-118
-118
-118
-118
-118
-118
-118
-118
-118
-118
-118
-118
-118
-118
-118
-118
-118
-118
-118
-118
-118
-118
-118
-118
-118
-117
-117
-117
-116
-116
-115
-115
-115
-115
-115
-115
-115
-115
-115
-115
-115
-115
-115
-115
-115
-115
-115
-116
-116
-116
-116
-116
-116
-116
-116
-116
-116
-116
-116
-116
-116
-115
-115
-115
-115
-115
-115
-114
-114
-114
-114
-114
-114
-114
-114
-114
-114
-114
-114
-114
-115
-115
-115
-115
-115
-115
-116
-116
-116
-116
-116
-116
-116
-116
-116
-116
-116
-116
-116
-116
-116
-116
-116
-116
-116
-116
-116
-116
-116
-116
-115
-115
-115
-115
-114
-114
-114
-114
-114
-114
-114
-114
-114
-114
-114
-114
-114
-114
-115
-115
-115
-116
-116
-116
-117
-117
-117
-117
-117
-117
-118
-118
-118
-117
-117
-117
-117
-117
-117
-117
-117
-117
-117
-117
-117
-117
-117
-117
-118
-118
-118
-118
-118
-119
-119
-119
-118
-118
-118
-118
-118
-118
-118
-118
-117
-117
-117
-117
-117
-117
-116
-116
-116
-117
-117
-117
-117
-117
-117
-117
-118
-118
-119
-119
-119
-120
-120
-120
-120
-121
-121
-121
-121
-121
-121
-120
-120
-120
-120
-120
-120
-119
-119
-119
-118
-118
-118
-117
-117
-117
-116
-115
-115
-114
-114
-114
-114
-114
-114
-114
-115
-115
-115
-115
-115
-116
-116
-117
-117
-118
-118
-119
-120
-120
-121
-121
-121
-122
-122
-122
-122
-122
-122
-122
-121
-121
-121
-121
-120
-120
-120
-120
-120
-119
-119
-119
-119
-119
-118
-118
-118
-117
-117
-117
-117
-117
-117
-117
-116
-116
-116
-116
-116
-116
-116
-116
-116
-116
-117
-117
-117
-117
-118
-118
-118
-118
-118
-118
-118
-118
-118
-118
-118
-118
-118
-117
-117
-117
-117
-117
-117
-117
-117
-117
-117
-117
-117
-117
-118
-118
-118
-118
-118
-118
-118
-118
-118
-118
-118
-118
-118
-118
-118
-118
-118
-118
-117
-117
-117
-117
-117
-116
-116
-116
-116
-116
-116
-116
-116
-116
-116
-116
-116
-116
-116
-116
-116
-116
-116
-116
-117
-117
-117
-117
-117
-118
-118
-118
-118
-118
-118
-118
-118
-118
-118
-118
-118
-118
-118
-118
-118
-118
-117
-117
-117
-117
-117
-117
-117
-117
-117
-117
-117
-117
-117
-117
-117
-117
-117
-117
-116
-116
-116
-116
-116
-115
-115
-115
-115
-115
-115
-114
-114
-114
-114
-114
-114
-114
-114
-115
-115
-115
-115
-115
-115
-115
-115
-115
-115
-115
-116
-116
-116
-116
-116
-116
-116
-116
-116
-116
-116
-116
-116
-116
-115
-115
-115
-115
-114
-114
-113
-113
-113
-112
-112
-112
-112
-112
-112
-112
-112
-112
-113
-113
-113
-114
-114
-114
-115
-115
-115
-115
-115
-115
-115
-115
-115
-115
-114
-114
-113
-113
-112
-112
-111
-111
-110
-110
-109
-109
-109
-109
-109
-109
-109
-110
-110
-110
-111
-111
-112
-112
-113
-113
-114
-114
-114
-115
-115
-115
-115
-115
-115
-114
-114
-114
-113
-113
-112
-112
-112
-112
-111
-111
-111
-111
-111
-111
-111
-111
-111
-111
-111
-111
-111
-111
-111
-111
-111
-111
-111
-111
-111
-110
-110
-110
-110
-110
-109
-109
-109
-109
-109
-109
-109
-109
-109
-109
-108
-108
-108
-108
-108
-108
-108
-109
-109
-109
-109
-109
-109
-109
-109
-109
-109
-110
-110
-110
-110
-110
-110
-110
-111
-111
-111
-111
-111
-111
-111
-110
-110
-110
-110
-110
-109
-109
-109
-108
-108
-107
-107
-106
-106
-105
-105
-104
-104
-104
-103
-103
-103
-102
-102
-102
-102
-102
-102
-102
-102
-103
-103
-104
-104
-105
-105
-106
-106
-107
-107
-107
-108
-109
-109
-110
-111
-111
-112
-112
-112
-112
-112
-113
-113
-113
-114
-114
-114
-115
-115
-115
-115
-115
-115
-116
-116
-117
-117
-117
-117
-117
-118
-118
-118
-118
-118
-117
-117
-117
-117
-116
-116
-116
-116
-115
-115
-114
-114
-113
-113
-112
-112
-111
-111
-111
-111
-111
-110
-110
-110
-110
-110
-110
-110
-110
-110
-110
-110
-109
-109
-109
-109
-109
-109
-110
-110
-110
-110
-110
-110
-110
-110
-110
-110
-110
-110
-110
-110
-110
-110
-110
-110
-109
-109
-109
-109
-109
-109
-109
-108
-108
-108
-108
-107
-107
-107
-107
-107
-107
-107
-107
-107
-107
-107
-108
-108
-109
-109
-110
-112
-113
-115
-116
-118
-120
-122
-124
-126
-128
-131
-134
-136
-139
-142
-145
-148
-150
-152
-154
-157
-159
-160
-162
-163
-164
-164
-164
-164
-164
-164
-164
-163
-163
-164
-164
-165
-166
-167
-169
-170
-171
-173
-175
-177
-178
-180
-181
-182
-182
-181
-180
-178
-176
-172
-168
-163
-158
-151
-145
-138
-131
-124
-117
-111
-104
-99
-94
-89
-85
-82
-80
-78
-77
-77
-77
-78
-79
-80
-82
-84
-86
-88
-90
-93
-95
-96
-98
-99
-100
-101
-102
-103
-103
-103
-104
-104
-104
-104
-104
-103
-103
-103
-103
-102
-102
-102
-102
-101
-101
-101
-101
-101
-101
-101
-101
-101
-101
-101
-101
-101
-101
-101
-101
-101
-101
-101
-101
-101
-101
-101
-102
-102
-102
-102
-102
-102
-102
-102
-102
-102
-102
-102
-101
-101
-101
-100
-100
-100
-99
-99
-99
-99
-98
-98
-98
-98
-97
-97
-97
-98
-98
-98
-98
-99
-99
-99
-99
-100
-100
-100
-100
-100
-101
-101
-101
-101
-100
-100
-100
-99
-99
-99
-98
-98
-98
-98
-98
-98
-97
-97
-97
-97
-97
-97
-97
-98
-98
-99
-99
-99
-99
-100
-100
-100
-101
-101
-101
-101
-101
-102
-102
-102
-102
-102
-101
-101
-101
-101
-101
-101
-101
-101
-101
-101
-101
-101
-100
-100
-100
-100
-100
-99
-99
-99
-99
-98
-98
-98
-97
-97
-96
-96
-95
-95
-95
-95
-95
-95
-95
-94
-94
-94
-94
-94
-94
-94
-94
-95
-95
-95
-95
-96
-96
-96
-96
-97
-97
-97
-97
-97
-97
-97
-97
-97
-96
-96
-96
-96
-95
-95
-95
-94
-94
-93
-93
-92
-92
-92
-91
-91
-91
-91
-90
-90
-90
-90
-90
-89
-89
-89
-89
-89
-89
-89
-89
-89
-90
-90
-90
-90
-90
-90
-90
-90
-90
-90
-90
-90
-90
-90
-90
-90
-90
-90
-90
-89
-89
-89
-89
-88
-88
-89
-89
-89
-89
-89
-90
-90
-90
-91
-91
-92
-92
-92
-93
-93
-94
-94
-94
-95
-95
-96
-96
-96
-96
-96
-96
-96
-96
-95
-95
-95
-95
-95
-95
-95
-95
-95
-95
-95
-95
-95
-95
-95
-96
-96
-96
-96
-97
-97
-97
-97
-98
-98
-98
-98
-98
-99
-99
-99
-99
-99
-99
-98
-98
-98
-98
-98
-98
-98
-98
-98
-98
-97
-97
-97
-97
-97
-97
-97
-97
-97
-96
-96
-96
-96
-96
-96
-96
-96
-96
-96
-96
-96
-96
-95
-96
-96
-96
-96
-96
-96
-96
-96
-96
-96
-96
-96
-96
-96
-96
-95
-95
-95
-94
-94
-94
-93
-93
-93
-93
-93
-93
-94
-94
-94
-94
-95
-96
-96
-97
-97
-98
-98
-99
-100
-100
-101
-101
-102
-102
-102
-102
-101
-101
-101
-101
-100
-100
-100
-99
-99
-99
-99
-99
-99
-99
-99
-99
-99
-99
-100
-100
-101
-101
-102
-102
-103
-103
-103
-104
-104
-104
-104
-105
-105
-105
-105
-105
-105
-104
-104
-104
-103
-103
-103
-103
-103
-102
-102
-102
-102
-103
-103
-103
-103
-103
-103
-104
-104
-104
-104
-105
-105
-105
-105
-105
-106
-106
-106
-105
-105
-105
-105
-104
-104
-103
-103
-103
-103
-103
-102
-102
-102
-102
-102
-102
-102
-103
-103
-103
-103
-104
-104
-104
-105
-105
-105
-106
-106
-106
-106
-106
-106
-106
-106
-106
-106
-106
-106
-106
-106
-106
-106
-106
-106
-106
-106
-106
-106
-106
-106
-106
-106
-106
-106
-106
-106
-106
-106
-106
-106
-106
-106
-106
-105
-105
-105
-105
-105
-105
-104
-104
-105
-105
-105
-105
-105
-105
-105
-105
-105
-105
-105
-105
-105
-105
-106
-106
-106
-106
-106
-106
-107
-107
-107
-107
-107
-107
-108
-108
-108
-109
-109
-109
-110
-110
-110
-111
-111
-111
-111
-111
-111
-111
-111
-111
-111
-111
-110
-110
-110
-109
-109
-108
-108
-107
-107
-107
-106
-106
-105
-105
-105
-105
-105
-105
-105
-105
-105
-105
-105
-105
-105
-105
-106
-106
-106
-106
-107
-107
-107
-108
-108
-108
-108
-109
-109
-109
-109
-109
-109
-109
-109
-109
-109
-109
-109
-109
-109
-109
-108
-108
-108
-107
-107
-107
-107
-106
-106
-106
-106
-106
-106
-106
-106
-106
-106
-106
-106
-106
-106
-106
-106
-106
-106
-106
-106
-106
-106
-106
-106
-106
-106
-106
-106
-105
-105
-105
-105
-105
-105
-105
-105
-104
-104
-104
-104
-103
-103
-103
-103
-102
-102
-102
-102
-102
-103
-103
-103
-103
-104
-104
-105
-105
-106
-106
-107
-108
-109
-109
-110
-110
-111
-111
-111
-111
-111
-111
-111
-111
-111
-110
-110
-110
-109
-109
-108
-108
-108
-108
-107
-107
-107
-106
-106
-106
-106
-106
-106
-106
-106
-106
-106
-106
-106
-106
-106
-106
-107
-107
-107
-107
-107
-107
-107
-107
-107
-107
-107
-107
-107
-107
-107
-107
-107
-107
-107
-107
-107
-107
-107
-107
-107
-107
-108
-108
-108
-108
-108
-108
-108
-109
-109
-109
-109
-109
-109
-109
-109
-109
-109
-109
-109
-109
-109
-109
-109
-109
-109
-109
-109
-109
-109
-109
-109
-109
-109
-109
-109
-109
-109
-109
-109
-109
-109
-108
-108
-108
-107
-107
-106
-106
-106
-105
-105
-105
-105
-104
-104
-104
-104
-105
-105
-105
-105
-106
-106
-107
-107
-108
-109
-109
-110
-110
-110
-111
-111
-111
-111
-110
-110
-110
-110
-109
-109
-109
-109
-108
-108
-108
-108
-108
-108
-108
-108
-108
-108
-108
-108
-108
-108
-108
-108
-108
-108
-108
-108
-108
-108
-108
-108
-108
-108
-108
-108
-108
-108
-108
-108
-107
-107
-107
-107
-107
-108
-108
-108
-108
-108
-108
-108
-108
-108
-108
-108
-109
-109
-109
-109
-110
-110
-110
-110
-110
-110
-110
-110
-110
-110
-110
-109
-109
-109
-108
-108
-108
-108
-107
-107
-107
-107
-107
-107
-107
-107
-107
-107
-107
-107
-107
-107
-107
-107
-107
-107
-106
-106
-106
-106
-106
-106
-105
-105
-105
-105
-105
-105
-104
-104
-104
-104
-104
-104
-105
-105
-105
-105
-105
-106
-106
-106
-107
-107
-107
-107
-107
-107
-106
-106
-106
-105
-105
-105
-105
-104
-104
-104
-104
-104
-104
-104
-104
-104
-104
-105
-105
-106
-107
-107
-108
-108
-109
-110
-110
-110
-110
-110
-110
-110
-109
-109
-109
-108
-108
-108
-107
-107
-107
-107
-106
-106
-106
-106
-106
-107
-107
-107
-108
-108
-109
-109
-109
-110
-110
-110
-111
-111
-111
-111
-111
-111
-111
-110
-110
-110
-109
-109
-109
-108
-108
-108
-107
-107
-107
-106
-106
-106
-106
-106
-106
-106
-106
-106
-107
-107
-107
-107
-108
-108
-109
-109
-109
-110
-110
-111
-111
-112
-112
-113
-113
-114
-114
-115
-115
-116
-116
-116
-116
-117
-117
-117
-118
-118
-118
-119
-119
-119
-119
-118
-118
-118
-118
-117
-117
-117
-116
-116
-116
-116
-115
-115
-114
-113
-113
-112
-112
-111
-111
-110
-110
-110
-109
-109
-108
-108
-108
-107
-107
-107
-107
-107
-107
-107
-107
-107
-107
-107
-107
-107
-107
-107
-107
-107
-107
-107
-107
-108
-108
-108
-108
-108
-108
-108
-108
-108
-108
-108
-108
-108
-108
-108
-108
-108
-108
-108
-108
-107
-107
-107
-106
-106
-106
-106
-106
-106
-106
-106
-106
-106
-107
-107
-107
-108
-109
-110
-111
-113
-115
-116
-118
-120
-122
-124
-126
-129
-131
-134
-137
-140
-143
-146
-149
-152
-156
-158
-161
-163
-166
-168
-170
-171
-173
-174
-176
-177
-178
-178
-179
-180
-180
-181
-181
-181
-182
-181
-181
-181
-181
-180
-179
-178
-176
-174
-171
-168
-164
-159
-154
-148
-141
-134
-127
-120
-112
-105
-97
-90
-83
-77
-71
-65
-60
-56
-53
-51
-49
-48
-48
-48
-49
-51
-53
-55
-57
-59
-61
-64
-66
-69
-71
-73
-75
-77
-78
-79
-80
-81
-81
-82
-82
-82
-82
-82
-82
-82
-82
-82
-82
-81
-81
-81
-80
-80
-80
-79
-79
-78
-78
-78
-77
-77
-77
-77
-77
-76
-76
-76
-75
-75
-75
-76
-76
-76
-76
-76
-77
-77
-77
-78
-78
-78
-78
-78
-79
-79
-79
-79
-79
-79
-79
-79
-79
-79
-79
-79
-79
-79
-79
-79
-78
-78
-78
-78
-78
-78
-78
-78
-78
-78
-78
-78
-78
-78
-78
-78
-78
-78
-78
-79
-79
-79
-79
-79
-79
-79
-79
-79
-79
-79
-79
-78
-78
-78
-78
-77
-77
-77
-77
-77
-77
-77
-77
-77
-77
-77
-76
-76
-76
-77
-77
-77
-77
-77
-77
-77
-77
-77
-77
-77
-77
-77
-77
-77
-77
-78
-78
-78
-78
-78
-78
-78
-78
-78
-78
-78
-78
-78
-77
-77
-77
-77
-76
-76
-75
-75
-75
-74
-74
-74
-74
-73
-73
-73
-73
-73
-73
-73
-73
-73
-73
-73
-73
-73
-74
-74
-74
-74
-74
-74
-74
-74
-74
-74
-74
-74
-74
-74
-74
-74
-74
-74
-74
-74
-74
-74
-74
-74
-75
-75
-75
-75
-75
-76
-76
-76
-76
-76
-76
-76
-76
-76
-76
-76
-76
-76
-76
-77
-77
-77
-77
-77
-77
-77
-76
-76
-76
-76
-76
-76
-76
-76
-76
-76
-76
-75
-75
-75
-75
-75
-76
-76
-76
-76
-76
-76
-77
-77
-77
-78
-78
-78
-78
-79
-79
-79
-79
-79
-79
-80
-80
-79
-79
-79
-79
-79
-79
-79
-79
-79
-79
-79
-79
-79
-80
-80
-80
-80
-80
-81
-81
-81
-81
-81
-81
-81
-81
-81
-81
-80
-80
-80
-80
-80
-79
-79
-79
-79
-78
-78
-78
-78
-78
-78
-78
-78
-78
-78
-77
-77
-77
-77
-77
-77
-77
-76
-76
-76
-76
-75
-75
-75
-75
-74
-74
-74
-74
-74
-74
-74
-74
-75
-75
-75
-75
-76
-76
-77
-77
-78
-78
-78
-79
-79
-79
-80
-80
-80
-81
-81
-81
-81
-81
-81
-81
-81
-81
-81
-80
-80
-80
-79
-79
-78
-78
-78
-78
-78
-78
-78
-78
-78
-78
-78
-79
-79
-79
-80
-81
-81
-82
-83
-83
-84
-84
-85
-86
-86
-87
-87
-87
-88
-88
-88
-88
-88
-88
-88
-88
-87
-87
-87
-87
-87
-87
-86
-86
-86
-86
-86
-86
-86
-86
-86
-86
-87
-87
-88
-88
-88
-89
-89
-89
-89
-89
-89
-89
-90
-90
-90
-90
-90
-90
-89
-89
-89
-89
-89
-89
-89
-88
-88
-88
-88
-88
-88
-88
-87
-87
-87
-87
-87
-87
-88
-88
-88
-88
-88
-88
-88
-88
-88
-88
-88
-89
-89
-89
-89
-89
-89
-89
-89
-90
-90
-90
-90
-90
-91
-91
-91
-91
-92
-92
-92
-92
-92
-92
-91
-91
-90
-90
-90
-90
-90
-90
-89
-89
-89
-89
-89
-89
-89
-89
-89
-90
-90
-90
-90
-91
-91
-91
-92
-92
-92
-93
-93
-93
-93
-93
-93
-94
-94
-94
-94
-94
-94
-94
-94
-94
-94
-94
-93
-93
-93
-93
-93
-93
-92
-92
-92
-93
-93
-93
-93
-93
-93
-93
-94
-94
-94
-95
-95
-95
-95
-95
-96
-96
-96
-96
-96
-95
-95
-95
-94
-94
-94
-94
-94
-93
-93
-93
-93
-93
-93
-93
-93
-93
-93
-94
-94
-94
-95
-95
-95
-95
-95
-95
-95
-95
-95
-95
-95
-95
-95
-95
-95
-95
-94
-94
-94
-94
-94
-95
-95
-95
-95
-95
-96
-96
-96
-96
-96
-97
-97
-97
-97
-97
-97
-98
-98
-98
-98
-98
-98
-98
-98
-98
-98
-98
-98
-98
-98
-98
-97
-97
-97
-97
-97
-96
-96
-96
-96
-96
-95
-95
-95
-95
-95
-95
-95
-95
-95
-95
-95
-96
-96
-96
-96
-97
-97
-97
-97
-98
-98
-98
-98
-98
-98
-98
-98
-98
-98
-98
-98
-97
-97
-97
-97
-97
-96
-96
-96
-96
-96
-96
-96
-96
-96
-96
-96
-96
-96
-96
-96
-96
-96
-96
-96
-97
-97
-97
-97
-97
-97
-97
-97
-97
-97
-97
-98
-98
-98
-98
-98
-99
-99
-99
-99
-99
-99
-99
-100
-100
-100
-100
-100
-100
-100
-100
-100
-100
-99
-99
-99
-99
-99
-99
-99
-99
-99
-99
-99
-99
-98
-98
-98
-98
-98
-98
-98
-98
-98
-98
-98
-98
-98
-98
-98
-98
-98
-98
-98
-98
-98
-98
-99
-99
-99
-99
-99
-99
-99
-99
-100
-100
-100
-100
-100
-100
-100
-100
-100
-100
-100
-100
-100
-100
-101
-101
-101
-100
-100
-100
-100
-100
-100
-100
-100
-100
-100
-100
-100
-100
-100
-100
-100
-100
-100
-100
-100
-100
-100
-101
-101
-101
-101
-101
-100
-100
-100
-100
-100
-100
-100
-100
-100
-99
-99
-98
-98
-97
-96
-96
-96
-96
-96
-96
-97
-97
-97
-97
-97
-97
-98
-98
-98
-98
-99
-99
-99
-100
-100
-100
-101
-101
-101
-101
-101
-101
-100
-100
-100
-100
-100
-100
-100
-100
-101
-101
-101
-101
-101
-102
-102
-102
-102
-102
-103
-103
-103
-103
-103
-103
-103
-103
-103
-102
-102
-102
-102
-102
-102
-102
-102
-102
-101
-101
-101
-101
-101
-101
-101
-101
-101
-101
-101
-101
-101
-101
-101
-100
-100
-100
-100
-99
-99
-99
-98
-98
-98
-98
-97
-97
-97
-97
-97
-97
-97
-97
-97
-97
-97
-97
-97
-97
-97
-98
-98
-98
-98
-98
-99
-99
-99
-99
-99
-99
-99
-99
-99
-99
-99
-99
-99
-99
-99
-99
-99
-99
-99
-98
-98
-98
-98
-98
-97
-97
-97
-97
-97
-97
-97
-97
-97
-97
-97
-97
-97
-97
-97
-98
-98
-98
-99
-99
-99
-99
-99
-99
-99
-99
-99
-99
-99
-99
-99
-99
-99
-98
-98
-97
-97
-97
-97
-97
-97
-96
-96
-96
-95
-95
-95
-94
-94
-94
-94
-95
-95
-95
-95
-95
-95
-96
-96
-96
-96
-97
-97
-97
-97
-98
-98
-98
-98
-99
-99
-99
-99
-98
-98
-98
-98
-98
-99
-99
-99
-99
-100
-100
-101
-101
-101
-102
-102
-103
-103
-104
-104
-105
-105
-106
-106
-106
-106
-106
-106
-106
-106
-106
-106
-106
-106
-106
-105
-105
-105
-104
-104
-103
-103
-102
-102
-101
-101
-100
-100
-99
-99
-99
-99
-99
-98
-98
-98
-99
-99
-99
-99
-100
-100
-101
-101
-101
-102
-102
-102
-102
-103
-103
-103
-103
-102
-102
-102
-102
-101
-101
-101
-100
-100
-100
-99
-99
-98
-98
-98
-98
-98
-98
-97
-97
-97
-97
-96
-96
-95
-95
-95
-95
-95
-95
-94
-94
-94
-94
-94
-94
-94
-95
-95
-96
-96
-98
-99
-100
-102
-103
-105
-107
-109
-111
-113
-115
-118
-120
-123
-126
-129
-132
-135
-138
-140
-142
-145
-147
-149
-151
-153
-154
-155
-156
-157
-157
-158
-158
-158
-159
-159
-160
-161
-161
-162
-163
-164
-165
-166
-167
-168
-169
-169
-170
-170
-169
-168
-166
-164
-161
-157
-152
-147
-141
-135
-129
-122
-116
-109
-102
-96
-90
-84
-78
-73
-69
-66
-64
-62
-61
-61
-61
-61
-62
-64
-65
-67
-69
-71
-74
-76
-78
-79
-81
-83
-84
-85
-86
-86
-87
-87
-87
-88
-88
-88
-87
-87
-87
-87
-86
-86
-86
-86
-85
-85
-85
-85
-85
-85
-84
-84
-84
-84
-84
-84
-85
-85
-85
-85
-85
-85
-86
-86
-86
-87
-87
-87
-88
-88
-88
-89
-89
-89
-89
-89
-88
-88
-88
-88
-88
-88
-87
-87
-87
-86
-86
-86
-86
-86
-86
-85
-85
-85
-85
-85
-85
-85
-85
-85
-85
-85
-86
-86
-86
-86
-86
-86
-87
-87
-87
-87
-88
-88
-88
-88
-89
-89
-89
-89
-89
-89
-89
-89
-88
-88
-88
-88
-88
-88
-87
-87
-87
-86
-86
-86
-86
-86
-86
-86
-85
-85
-85
-85
-85
-85
-85
-85
-84
-84
-84
-84
-84
-84
-84
-84
-83
-83
-83
-83
-83
-83
-83
-83
-82
-82
-82
-81
-81
-81
-81
-81
-81
-81
-81
-81
-81
-82
-82
-83
-83
-83
-84
-84
-84
-85
-85
-85
-85
-85
-85
-85
-85
-85
-85
-85
-85
-85
-85
-85
-85
-85
-84
-84
-84
-83
-83
-83
-83
-83
-83
-82
-82
-81
-81
-81
-81
-80
-80
-80
-79
-79
-79
-79
-79
-79
-79
-79
-79
-79
-79
-79
-79
-79
-79
-79
-79
-80
-80
-80
-80
-80
-81
-81
-81
-81
-81
-81
-82
-82
-82
-82
-82
-82
-82
-82
-82
-82
-82
-82
-82
-81
-81
-81
-81
-81
-80
-80
-80
-80
-80
-80
-80
-80
-80
-80
-81
-81
-81
-81
-82
-82
-82
-83
-83
-83
-83
-84
-84
-84
-84
-84
-84
-85
-85
-85
-85
-85
-85
-85
-85
-85
-85
-85
-86
-86
-86
-86
-86
-86
-86
-86
-87
-87
-87
-87
-87
-87
-87
-87
-88
-88
-88
-88
-88
-88
-88
-88
-88
-88
-88
-88
-88
-88
-88
-88
-89
-89
-89
-89
-89
-89
-89
-89
-89
-89
-88
-88
-88
-88
-88
-88
-88
-88
-88
-88
-88
-88
-88
-88
-88
-89
-89
-89
-90
-90
-90
-90
-91
-91
-91
-92
-92
-92
-92
-92
-93
-92
-92
-92
-92
-92
-92
-92
-92
-92
-91
-91
-91
-91
-91
-91
-91
-91
-92
-92
-92
-92
-92
-92
-92
-93
-93
-94
-94
-94
-94
-95
-95
-96
-96
-97
-97
-97
-98
-98
-98
-99
-99
-99
-100
-100
-100
-101
-101
-101
-102
-102
-102
-102
-102
-102
-102
-102
-101
-101
-101
-101
-101
-101
-101
-101
-101
-101
-101
-101
-101
-101
-102
-102
-102
-102
-103
-103
-103
-104
-104
-104
-104
-104
-105
-105
-105
-105
-105
-105
-105
-105
-105
-105
-105
-104
-104
-104
-104
-104
-104
-104
-104
-104
-104
-103
-103
-103
-103
-103
-103
-103
-103
-103
-103
-102
-102
-102
-102
-102
-102
-102
-101
-101
-101
-101
-101
-101
-101
-101
-101
-101
-101
-100
-101
-101
-101
-101
-101
-101
-101
-101
-102
-102
-102
-103
-103
-103
-103
-103
-104
-104
-104
-104
-104
-104
-104
-104
-104
-104
-104
-103
-103
-103
-103
-103
-103
-103
-103
-103
-103
-103
-103
-103
-103
-103
-103
-103
-103
-103
-104
-104
-104
-104
-104
-104
-105
-105
-105
-105
-105
-105
-105
-104
-104
-104
-104
-103
-102
-102
-102
-102
-102
-102
-101
-101
-101
-101
-101
-101
-102
-102
-102
-103
-103
-104
-104
-105
-105
-106
-106
-107
-107
-107
-108
-108
-108
-108
-109
-109
-109
-109
-109
-109
-109
-109
-109
-109
-109
-109
-109
-109
-109
-109
-109
-108
-108
-108
-108
-108
-107
-107
-107
-106
-106
-107
-107
-107
-107
-107
-107
-107
-107
-108
-108
-108
-109
-109
-109
-109
-110
-110
-110
-110
-110
-110
-110
-110
-110
-110
-110
-110
-110
-109
-109
-109
-109
-109
-109
-109
-109
-109
-109
-108
-109
-109
-109
-109
-109
-109
-109
-109
-109
-109
-109
-109
-109
-109
-109
-109
-109
-108
-108
-108
-108
-108
-108
-107
-107
-107
-106
-106
-106
-106
-106
-106
-105
-105
-105
-105
-106
-106
-106
-106
-107
-107
-107
-108
-108
-108
-109
-109
-110
-110
-111
-111
-111
-112
-112
-112
-113
-113
-113
-113
-113
-113
-113
-113
-113
-113
-112
-112
-112
-112
-111
-111
-111
-111
-111
-111
-111
-111
-110
-110
-110
-110
-110
-110
-109
-109
-109
-110
-110
-110
-110
-110
-110
-110
-110
-110
-111
-111
-111
-111
-111
-112
-112
-112
-112
-112
-112
-112
-112
-112
-112
-112
-112
-112
-112
-111
-111
-111
-111
-111
-111
-111
-111
-111
-111
-112
-112
-112
-112
-112
-112
-112
-112
-112
-112
-112
-111
-111
-111
-110
-110
-110
-110
-109
-109
-109
-109
-108
-108
-108
-108
-108
-108
-108
-108
-109
-109
-109
-110
-110
-110
-110
-111
-111
-111
-111
-111
-111
-111
-111
-111
-111
-110
-110
-110
-110
-110
-110
-110
-110
-110
-110
-110
-110
-111
-111
-111
-111
-112
-112
-112
-112
-113
-113
-113
-113
-113
-113
-113
-114
-114
-114
-114
-114
-114
-114
-114
-114
-114
-114
-113
-113
-113
-113
-113
-113
-113
-112
-112
-112
-112
-111
-111
-110
-110
-109
-109
-109
-109
-109
-109
-109
-108
-108
-108
-108
-108
-108
-108
-108
-109
-109
-109
-109
-109
-109
-109
-108
-108
-108
-108
-108
-109
-108
-108
-108
-108
-108
-108
-108
-108
-108
-108
-108
-108
-109
-109
-110
-110
-110
-111
-111
-111
-111
-111
-111
-111
-111
-110
-110
-110
-110
-110
-110
-109
-109
-109
-109
-109
-109
-108
-108
-108
-108
-108
-108
-108
-108
-108
-108
-108
-108
-108
-108
-108
-108
-108
-108
-108
-107
-107
-107
-106
-106
-106
-106
-106
-106
-105
-105
-105
-104
-104
-104
-104
-104
-105
-105
-104
-104
-104
-104
-104
-104
-104
-105
-105
-105
-105
-105
-105
-106
-106
-106
-106
-107
-107
-108
-108
-108
-108
-109
-109
-109
-110
-110
-110
-110
-110
-110
-110
-110
-110
-110
-109
-109
-109
-108
-108
-108
-108
-107
-107
-107
-107
-107
-106
-106
-106
-106
-105
-105
-105
-105
-105
-105
-105
-105
-105
-105
-105
-105
-105
-105
-105
-105
-105
-106
-106
-107
-107
-108
-108
-108
-109
-109
-109
-109
-110
-110
-110
-110
-110
-111
-111
-111
-111
-111
-112
-112
-113
-113
-113
-114
-115
-115
-116
-117
-117
-118
-119
-119
-120
-120
-121
-121
-122
-122
-122
-122
-122
-122
-121
-121
-120
-120
-120
-119
-119
-118
-118
-118
-117
-116
-116
-115
-115
-114
-114
-113
-113
-113
-112
-112
-112
-112
-111
-111
-111
-111
-111
-111
-111
-111
-111
-111
-112
-112
-112
-112
-112
-112
-112
-113
-113
-113
-113
-113
-113
-113
-114
-114
-114
-114
-114
-114
-114
-114
-114
-114
-114
-114
-114
-114
-113
-113
-112
-112
-111
-111
-110
-110
-109
-109
-109
-109
-109
-109
-110
-110
-110
-111
-112
-113
-114
-116
-118
-120
-122
-124
-126
-129
-131
-133
-136
-139
-141
-144
-146
-149
-152
-154
-157
-159
-161
-163
-165
-166
-167
-168
-169
-170
-170
-171
-171
-172
-172
-172
-172
-173
-173
-174
-175
-176
-178
-179
-180
-182
-183
-185
-186
-187
-187
-187
-186
-185
-183
-181
-177
-173
-169
-164
-158
-152
-145
-138
-131
-124
-118
-112
-106
-101
-97
-93
-89
-87
-85
-83
-82
-82
-83
-84
-85
-87
-89
-91
-93
-95
-97
-99
-101
-102
-104
-105
-106
-107
-107
-108
-108
-108
-108
-108
-107
-107
-106
-106
-105
-104
-104
-103
-103
-103
-103
-102
-102
-102
-102
-102
-103
-103
-103
-104
-105
-105
-106
-106
-107
-107
-108
-108
-108
-108
-108
-108
-108
-107
-107
-107
-107
-107
-106
-106
-105
-105
-105
-105
-104
-104
-104
-104
-104
-104
-104
-105
-105
-105
-105
-105
-105
-105
-105
-105
-106
-106
-106
-106
-106
-106
-106
-106
-106
-106
-106
-106
-105
-105
-106
-106
-106
-106
-106
-106
-105
-105
-105
-105
-105
-105
-105
-105
-105
-105
-105
-105
-105
-104
-104
-104
-104
-104
-103
-103
-103
-103
-103
-103
-103
-103
-103
-103
-103
-103
-103
-103
-103
-103
-103
-103
-103
-103
-103
-103
-104
-104
-104
-104
-104
-104
-104
-104
-104
-104
-104
-104
-104
-104
-104
-104
-103
-103
-103
-103
-103
-102
-102
-102
-102
-102
-101
-101
-101
-100
-100
-100
-100
-100
-100
-100
-100
-100
-100
-100
-100
-100
-100
-100
-100
-100
-101
-101
-101
-101
-100
-100
-100
-100
-100
-100
-100
-100
-100
-100
-100
-99
-99
-99
-99
-99
-99
-99
-99
-98
-98
-98
-98
-98
-97
-97
-97
-97
-97
-97
-97
-97
-97
-96
-96
-96
-96
-95
-95
-95
-95
-95
-96
-96
-96
-95
-95
-95
-95
-94
-94
-94
-94
-94
-94
-94
-94
-94
-94
-94
-94
-95
-95
-95
-95
-95
-95
-95
-95
-95
-95
-95
-95
-95
-95
-95
-95
-95
-95
-95
-95
-95
-95
-95
-95
-95
-95
-95
-95
-96
-96
-96
-96
-96
-96
-96
-96
-97
-97
-97
-97
-97
-98
-98
-98
-98
-99
-99
-99
-99
-99
-99
-99
-99
-100
-100
-100
-100
-100
-100
-100
-100
-100
-99
-99
-99
-99
-98
-98
-98
-97
-97
-97
-97
-97
-97
-97
-97
-97
-97
-97
-97
-97
-97
-97
-97
-98
-98
-99
-99
-100
-100
-101
-101
-101
-101
-102
-102
-102
-102
-102
-102
-103
-103
-103
-103
-103
-103
-103
-103
-103
-103
-103
-103
-102
-102
-102
-102
-103
-103
-103
-103
-103
-103
-103
-103
-103
-104
-104
-105
-105
-106
-106
-107
-107
-108
-109
-109
-110
-111
-111
-112
-112
-113
-113
-113
-114
-114
-114
-114
-115
-115
-115
-116
-116
-116
-116
-116
-116
-116
-116
-116
-117
-117
-117
-118
-118
-118
-118
-119
-119
-119
-119
-120
-120
-120
-120
-120
-121
-121
-121
-121
-121
-121
-121
-122
-122
-122
-122
-122
-122
-122
-122
-122
-122
-122
-122
-122
-122
-122
-122
-122
-122
-122
-122
-123
-123
-123
-123
-123
-122
-122
-122
-121
-121
-121
-121
-120
-120
-120
-120
-120
-120
-120
-120
-119
-119
-119
-119
-119
-119
-120
-120
-120
-120
-120
-120
-120
-121
-121
-121
-121
-121
-120
-120
-120
-119
-119
-119
-118
-118
-118
-118
-118
-117
-117
-117
-117
-116
-116
-116
-116
-116
-117
-117
-117
-118
-118
-118
-119
-119
-119
-120
-120
-121
-121
-122
-122
-122
-123
-123
-123
-123
-123
-123
-123
-123
-123
-123
-123
-123
-123
-123
-123
-123
-123
-123
-123
-122
-122
-122
-122
-122
-123
-123
-122
-122
-123
-123
-123
-122
-122
-122
-122
-122
-122
-122
-122
-122
-122
-122
-122
-122
-121
-121
-121
-121
-122
-122
-122
-122
-122
-122
-122
-122
-122
-122
-122
-122
-123
-123
-123
-123
-124
-124
-124
-124
-124
-124
-124
-124
-124
-124
-124
-123
-123
-123
-123
-123
-123
-123
-123
-123
-123
-123
-123
-123
-124
-124
-124
-125
-125
-125
-125
-125
-125
-125
-125
-125
-125
-125
-125
-125
-125
-124
-124
-124
-123
-123
-123
-123
-123
-122
-122
-122
-123
-123
-123
-123
-123
-123
-123
-124
-124
-124
-125
-125
-125
-126
-126
-126
-126
-127
-127
-127
-127
-127
-127
-127
-127
-127
-127
-127
-126
-126
-126
-126
-126
-126
-126
-126
-126
-126
-125
-125
-126
-126
-126
-126
-126
-126
-126
-126
-126
-126
-126
-126
-126
-126
-126
-126
-126
-125
-125
-125
-125
-125
-124
-124
-124
-124
-124
-124
-124
-124
-124
-124
-124
-124
-124
-124
-124
-125
-125
-125
-125
-126
-126
-126
-126
-127
-127
-127
-127
-127
-127
-127
-127
-127
-127
-127
-127
-127
-127
-126
-126
-126
-125
-125
-125
-125
-125
-125
-124
-124
-124
-124
-124
-124
-124
-124
-124
-124
-124
-124
-125
-125
-125
-125
-125
-125
-125
-125
-125
-124
-124
-124
-124
-124
-125
-125
-124
-124
-124
-124
-125
-125
-125
-125
-125
-126
-126
-126
-126
-126
-127
-127
-127
-127
-127
-127
-126
-126
-125
-125
-125
-124
-124
-124
-124
-124
-124
-123
-123
-123
-123
-123
-123
-123
-123
-123
-124
-124
-124
-124
-124
-124
-124
-124
-125
-125
-125
-125
-125
-125
-126
-126
-126
-126
-126
-126
-126
-126
-126
-126
-126
-126
-126
-126
-126
-126
-126
-126
-126
-126
-125
-125
-125
-125
-125
-125
-125
-126
-126
-126
-126
-126
-126
-126
-127
-127
-127
-127
-127
-127
-127
-127
-128
-128
-128
-128
-128
-128
-128
-128
-127
-127
-127
-127
-127
-127
-127
-127
-127
-127
-127
-127
-127
-127
-127
-127
-127
-127
-126
-126
-126
-126
-126
-125
-125
-125
-125
-126
-126
-126
-126
-125
-125
-125
-125
-125
-125
-125
-125
-125
-125
-125
-125
-125
-125
-125
-125
-125
-125
-125
-125
-125
-125
-125
-125
-126
-126
-126
-126
-126
-126
-126
-126
-126
-126
-126
-127
-127
-127
-127
-127
-127
-127
-127
-127
-127
-127
-127
-127
-127
-127
-127
-127
-127
-127
-127
-127
-127
-126
-126
-126
-126
-126
-126
-125
-125
-125
-124
-124
-124
-124
-124
-124
-123
-123
-123
-123
-123
-123
-123
-123
-123
-124
-124
-124
-124
-124
-124
-124
-124
-124
-124
-124
-124
-124
-124
-123
-123
-122
-122
-121
-120
-120
-119
-119
-118
-117
-116
-116
-115
-115
-114
-114
-114
-114
-114
-114
-114
-114
-115
-115
-115
-115
-116
-116
-117
-117
-118
-118
-119
-119
-120
-120
-120
-120
-121
-121
-121
-121
-122
-122
-122
-122
-123
-123
-123
-123
-123
-123
-124
-124
-124
-124
-124
-125
-125
-126
-126
-126
-127
-127
-128
-128
-128
-129
-129
-129
-130
-130
-130
-131
-131
-131
-130
-130
-130
-130
-129
-128
-128
-127
-127
-127
-126
-126
-126
-125
-125
-124
-123
-123
-122
-122
-122
-121
-121
-121
-121
-121
-121
-120
-120
-120
-120
-120
-120
-119
-119
-119
-118
-118
-118
-118
-118
-118
-118
-118
-118
-118
-118
-118
-118
-118
-119
-119
-119
-119
-119
-119
-119
-119
-119
-120
-120
-120
-119
-119
-119
-119
-118
-118
-118
-118
-118
-118
-117
-117
-117
-117
-116
-116
-116
-117
-117
-117
-118
-118
-119
-119
-120
-121
-122
-124
-125
-127
-128
-130
-132
-135
-137
-140
-143
-146
-150
-154
-158
-161
-165
-169
-173
-177
-180
-184
-187
-190
-193
-195
-197
-199
-201
-202
-204
-205
-205
-206
-207
-207
-208
-208
-209
-209
-209
-209
-209
-209
-208
-207
-205
-203
-200
-196
-192
-188
-182
-176
-170
-163
-156
-148
-140
-132
-124
-117
-110
-103
-97
-92
-87
-83
-80
-77
-76
-75
-75
-76
-77
-79
-81
-83
-85
-88
-90
-93
-95
-98
-100
-102
-103
-105
-106
-107
-107
-108
-108
-109
-109
-109
-109
-109
-109
-109
-109
-109
-109
-108
-108
-108
-108
-108
-108
-108
-107
-107
-107
-107
-106
-106
-105
-105
-104
-104
-104
-104
-104
-104
-104
-104
-103
-103
-103
-103
-103
-103
-104
-104
-104
-104
-105
-105
-105
-106
-106
-107
-107
-108
-108
-109
-109
-110
-110
-111
-111
-112
-112
-112
-113
-113
-113
-113
-113
-112
-112
-112
-111
-111
-111
-110
-110
-109
-109
-108
-108
-107
-107
-107
-107
-106
-106
-106
-106
-106
-106
-106
-106
-106
-106
-107
-107
-107
-107
-108
-108
-108
-109
-109
-109
-110
-110
-110
-110
-109
-109
-109
-109
-109
-109
-109
-109
-109
-109
-109
-109
-109
-108
-108
-108
-108
-108
-108
-108
-109
-109
-109
-109
-109
-108
-108
-108
-108
-108
-108
-108
-108
-108
-108
-108
-108
-108
-108
-107
-107
-107
-106
-106
-106
-106
-105
-105
-105
-104
-104
-103
-103
-102
-102
-102
-102
-102
-102
-102
-103
-103
-103
-103
-104
-104
-105
-105
-105
-106
-106
-106
-107
-107
-107
-107
-107
-107
-107
-107
-107
-107
-107
-107
-107
-106
-106
-106
-106
-107
-107
-107
-107
-107
-108
-108
-108
-109
-109
-109
-109
-109
-109
-109
-109
-109
-109
-109
-109
-108
-108
-108
-107
-107
-107
-106
-106
-106
-106
-105
-105
-105
-104
-104
-104
-104
-104
-104
-104
-104
-104
-104
-104
-104
-104
-105
-105
-105
-105
-106
-106
-106
-107
-107
-107
-107
-108
-108
-108
-108
-109
-109
-109
-109
-110
-110
-110
-110
-110
-111
-111
-111
-111
-112
-112
-112
-112
-112
-112
-112
-113
-113
-113
-113
-113
-113
-113
-113
-113
-113
-113
-113
-112
-112
-112
-112
-111
-111
-111
-111
-111
-110
-110
-110
-110
-110
-110
-110
-110
-110
-110
-110
-110
-111
-111
-111
-111
-111
-112
-112
-112
-112
-112
-112
-111
-111
-111
-112
-112
-112
-112
-111
-111
-111
-111
-111
-111
-111
-112
-112
-112
-113
-113
-113
-114
-114
-114
-114
-114
-115
-115
-115
-116
-116
-116
-116
-116
-116
-116
-116
-116
-116
-116
-116
-116
-116
-116
-115
-115
-115
-115
-115
-115
-115
-115
-115
-116
-116
-116
-116
-117
-117
-117
-118
-118
-119
-119
-119
-120
-120
-120
-120
-120
-120
-120
-119
-119
-119
-119
-118
-118
-117
-117
-117
-117
-117
-117
-117
-117
-118
-118
-118
-118
-119
-119
-120
-120
-121
-122
-122
-123
-123
-123
-123
-124
-124
-124
-124
-124
-123
-124
-124
-124
-124
-124
-124
-124
-124
-124
-124
-124
-124
-124
-123
-123
-123
-123
-123
-123
-123
-123
-123
-123
-123
-123
-123
-123
-122
-122
-123
-123
-123
-123
-123
-123
-123
-123
-123
-123
-123
-123
-123
-123
-123
-123
-123
-123
-123
-123
-123
-123
-123
-122
-122
-122
-122
-122
-122
-122
-122
-122
-122
-122
-122
-122
-122
-122
-122
-122
-122
-122
-122
-122
-122
-122
-122
-122
-122
-122
-123
-123
-123
-123
-124
-124
-124
-124
-124
-125
-125
-125
-125
-125
-125
-125
-126
-126
-126
-126
-126
-125
-125
-125
-125
-125
-125
-125
-125
-125
-125
-125
-125
-125
-125
-125
-126
-126
-126
-126
-126
-126
-126
-126
-126
-127
-127
-126
-126
-126
-126
-126
-126
-125
-125
-125
-126
-126
-126
-126
-126
-126
-126
-126
-126
-126
-126
-127
-127
-127
-127
-128
-128
-128
-128
-128
-128
-128
-127
-127
-127
-126
-126
-126
-126
-125
-125
-125
-125
-124
-124
-124
-124
-124
-123
-123
-123
-123
-124
-124
-124
-124
-125
-125
-126
-126
-127
-127
-127
-127
-127
-128
-128
-128
-129
-129
-129
-129
-129
-128
-128
-128
-128
-128
-128
-127
-127
-127
-127
-127
-126
-126
-126
-126
-126
-126
-126
-126
-126
-126
-126
-126
-126
-126
-126
-126
-126
-127
-127
-127
-127
-127
-127
-127
-127
-127
-127
-127
-127
-127
-128
-128
-128
-128
-128
-128
-128
-127
-127
-127
-128
-128
-128
-128
-128
-129
-129
-129
-129
-129
-129
-129
-129
-129
-129
-129
-129
-129
-129
-128
-128
-128
-127
-127
-127
-126
-126
-126
-126
-125
-125
-125
-124
-124
-124
-124
-124
-124
-124
-124
-124
-124
-124
-124
-124
-124
-124
-124
-125
-125
-125
-125
-126
-126
-126
-126
-126
-126
-126
-126
-126
-126
-126
-126
-126
-126
-126
-126
-125
-125
-125
-125
-124
-124
-124
-124
-124
-124
-124
-124
-124
-124
-124
-124
-124
-124
-124
-124
-124
-124
-124
-124
-124
-125
-125
-125
-125
-124
-124
-124
-124
-125
-125
-125
-125
-125
-125
-125
-126
-126
-126
-126
-126
-127
-127
-127
-127
-127
-127
-128
-128
-127
-127
-127
-127
-127
-127
-127
-127
-126
-126
-126
-125
-125
-125
-125
-125
-125
-125
-125
-125
-125
-125
-125
-126
-126
-126
-127
-127
-127
-127
-127
-127
-127
-128
-128
-128
-128
-128
-128
-127
-127
-127
-127
-127
-126
-126
-126
-126
-125
-125
-124
-124
-124
-124
-124
-124
-124
-124
-124
-124
-124
-124
-124
-124
-124
-125
-125
-125
-125
-125
-125
-125
-125
-125
-125
-124
-124
-124
-124
-124
-124
-124
-124
-125
-125
-125
-125
-125
-125
-126
-126
-126
-126
-126
-127
-127
-127
-127
-128
-128
-128
-127
-127
-127
-127
-127
-127
-126
-126
-126
-126
-125
-125
-125
-124
-124
-124
-124
-124
-124
-123
-123
-124
-124
-124
-124
-124
-125
-125
-125
-125
-126
-126
-127
-127
-127
-128
-128
-128
-128
-128
-127
-127
-127
-126
-126
-125
-125
-124
-124
-124
-123
-123
-123
-123
-123
-123
-123
-124
-124
-124
-125
-125
-126
-126
-127
-127
-128
-128
-128
-128
-129
-129
-129
-128
-128
-128
-128
-127
-127
-127
-126
-126
-125
-125
-125
-125
-124
-124
-124
-124
-124
-124
-124
-124
-123
-123
-123
-123
-123
-123
-122
-122
-122
-122
-122
-121
-121
-121
-121
-120
-120
-120
-120
-120
-120
-120
-120
-120
-120
-120
-120
-121
-121
-121
-122
-122
-122
-122
-123
-123
-123
-123
-123
-124
-124
-125
-125
-126
-126
-127
-127
-128
-128
-129
-129
-130
-130
-131
-132
-132
-133
-134
-134
-135
-135
-136
-136
-136
-136
-136
-137
-137
-137
-137
-137
-137
-136
-136
-136
-135
-135
-135
-134
-134
-133
-133
-132
-132
-132
-131
-131
-130
-130
-129
-129
-129
-128
-128
-128
-127
-127
-127
-127
-127
-127
-127
-127
-127
-127
-127
-127
-127
-127
-128
-128
-128
-128
-128
-128
-128
-128
-128
-128
-128
-128
-129
-129
-129
-129
-129
-129
-129
-129
-129
-129
-129
-129
-129
-129
-130
-130
-130
-130
-129
-129
-129
-129
-129
-129
-130
-130
-130
-130
-131
-132
-133
-134
-135
-137
-138
-140
-142
-144
-146
-149
-151
-154
-157
-160
-164
-167
-170
-173
-176
-179
-182
-184
-187
-189
-190
-192
-193
-194
-194
-195
-195
-196
-196
-196
-197
-197
-197
-197
-198
-198
-198
-199
-199
-199
-200
-200
-199
-198
-197
-195
-193
-190
-187
-182
-178
-172
-166
-160
-153
-146
-139
-133
-126
-120
-114
-108
-103
-99
-95
-92
-89
-87
-87
-86
-87
-88
-89
-91
-93
-95
-98
-100
-102
-105
-107
-109
-111
-113
-114
-115
-116
-116
-116
-116
-117
-117
-117
-116
-116
-116
-115
-115
-115
-114
-114
-114
-113
-113
-113
-113
-113
-113
-113
-113
-113
-112
-112
-112
-112
-112
-112
-112
-111
-111
-112
-112
-112
-112
-112
-112
-112
-112
-112
-113
-113
-113
-113
-113
-113
-114
-114
-114
-114
-113
-113
-113
-113
-113
-113
-113
-113
-112
-112
-112
-112
-111
-111
-111
-111
-111
-111
-111
-110
-110
-110
-110
-110
-110
-110
-110
-109
-109
-109
-109
-108
-108
-108
-107
-107
-107
-106
-106
-105
-105
-105
-104
-104
-104
-104
-104
-103
-103
-103
-103
-103
-103
-103
-103
-103
-103
-103
-103
-103
-103
-103
-103
-103
-102
-102
-102
-102
-102
-102
-102
-101
-101
-101
-101
-100
-100
-100
-100
-100
-100
-100
-99
-99
-99
-99
-99
-99
-98
-98
-98
-98
-98
-98
-98
-98
-98
-98
-98
-98
-98
-99
-99
-99
-99
-99
-100
-100
-100
-100
-100
-99
-99
-100
-100
-100
-100
-100
-100
-100
-100
-100
-100
-100
-100
-100
-100
-101
-101
-101
-101
-102
-102
-102
-102
-102
-102
-102
-102
-102
-102
-101
-101
-101
-100
-100
-100
-99
-99
-98
-98
-98
-97
-97
-97
-96
-96
-96
-96
-96
-96
-96
-96
-96
-96
-96
-96
-96
-96
-97
-97
-97
-97
-97
-98
-98
-98
-98
-98
-98
-98
-98
-98
-98
-98
-98
-98
-98
-98
-99
-99
-99
-99
-100
-100
-100
-100
-100
-101
-101
-101
-101
-101
-101
-102
-102
-102
-102
-102
-102
-102
-102
-102
-102
-102
-102
-102
-102
-101
-101
-101
-101
-101
-101
-102
-102
-102
-103
-103
-103
-104
-104
-104
-105
-105
-105
-106
-107
-107
-108
-108
-108
-109
-109
-109
-109
-109
-109
-109
-109
-108
-108
-108
-107
-107
-107
-107
-106
-106
-106
-106
-106
-105
-105
-105
-105
-105
-105
-105
-105
-105
-105
-105
-105
-105
-105
-105
-105
-104
-104
-104
-104
-104
-104
-104
-105
-105
-105
-105
-105
-105
-106
-106
-106
-107
-107
-107
-107
-107
-107
-108
-108
-108
-108
-108
-108
-108
-107
-107
-107
-107
-108
-108
-108
-108
-107
-108
-108
-108
-108
-108
-108
-108
-108
-108
-108
-108
-108
-108
-108
-108
-108
-108
-108
-108
-109
-109
-109
-110
-110
-111
-111
-111
-112
-112
-112
-113
-113
-113
-113
-114
-114
-114
-114
-114
-114
-114
-114
-114
-114
-114
-113
-113
-114
-113
-113
-113
-114
-114
-114
-114
-114
-114
-114
-114
-114
-114
-114
-114
-114
-114
-114
-114
-114
-114
-114
-114
-114
-114
-114
-114
-114
-115
-115
-115
-115
-115
-115
-115
-116
-115
-115
-115
-115
-115
-115
-115
-115
-115
-115
-115
-114
-114
-114
-113
-113
-113
-113
-113
-113
-113
-113
-113
-113
-113
-113
-113
-113
-113
-113
-113
-113
-113
-113
-113
-113
-113
-113
-113
-113
-113
-113
-113
-113
-112
-112
-112
-112
-112
-112
-112
-112
-112
-112
-112
-112
-112
-112
-112
-112
-112
-112
-112
-112
-112
-112
-112
-112
-112
-113
-113
-113
-113
-113
-113
-113
-113
-114
-114
-114
-114
-114
-114
-115
-115
-115
-115
-115
-115
-115
-115
-115
-115
-115
-114
-114
-114
-114
-115
-115
-115
-115
-115
-115
-115
-115
-115
-115
-116
-116
-116
-116
-116
-116
-116
-116
-116
-116
-116
-117
-117
-117
-117
-117
-117
-117
-116
-116
-116
-116
-116
-117
-117
-117
-117
-117
-117
-117
-117
-117
-117
-117
-117
-117
-117
-117
-117
-117
-117
-117
-117
-117
-117
-117
-117
-117
-116
-116
-116
-116
-116
-116
-116
-116
-116
-115
-115
-115
-114
-114
-113
-113
-113
-113
-112
-112
-112
-112
-112
-112
-112
-112
-112
-112
-112
-112
-112
-112
-113
-113
-113
-114
-114
-114
-114
-114
-114
-114
-113
-113
-113
-113
-112
-112
-111
-111
-111
-111
-110
-110
-110
-110
-110
-109
-109
-109
-109
-109
-109
-110
-110
-110
-111
-111
-111
-111
-111
-111
-111
-111
-111
-111
-111
-111
-111
-111
-111
-111
-111
-111
-111
-111
-111
-110
-110
-110
-110
-110
-110
-110
-111
-111
-111
-111
-111
-111
-111
-111
-111
-112
-112
-112
-112
-112
-112
-113
-113
-113
-113
-114
-114
-114
-114
-114
-114
-114
-114
-114
-114
-114
-114
-114
-114
-114
-114
-113
-113
-113
-113
-113
-113
-113
-113
-112
-112
-112
-112
-111
-111
-111
-111
-110
-110
-110
-110
-109
-109
-109
-108
-108
-108
-108
-108
-108
-108
-108
-108
-108
-108
-108
-108
-108
-108
-108
-108
-108
-108
-108
-107
-107
-107
-107
-106
-106
-106
-105
-105
-105
-105
-105
-105
-105
-105
-105
-105
-105
-105
-106
-106
-106
-107
-107
-107
-108
-108
-108
-108
-108
-108
-108
-108
-108
-108
-108
-108
-108
-108
-108
-108
-108
-108
-107
-107
-107
-107
-108
-108
-108
-108
-108
-108
-108
-108
-108
-108
-108
-108
-107
-107
-107
-106
-106
-105
-105
-105
-104
-104
-104
-104
-104
-104
-104
-104
-104
-104
-104
-104
-105
-105
-105
-106
