# Simple Text Format
# Sampling Rate (Hz):= 1200.00
# Resolution:= 12
# Labels:= ECG	 V6
# Age:=	69
# Gender:=	Feminino
-614
-603
-592
-583
-576
-569
-566
-562
-562
-563
-566
-571
-577
-586
-596
-608
-620
-635
-650
-666
-684
-703
-721
-740
-760
-779
-799
-818
-836
-855
-872
-888
-904
-918
-931
-943
-953
-963
-972
-979
-984
-989
-993
-996
-997
-998
-997
-996
-994
-991
-989
-985
-981
-978
-973
-971
-966
-962
-959
-955
-952
-948
-945
-943
-940
-936
-935
-933
-932
-929
-928
-928
-927
-926
-925
-925
-925
-925
-925
-925
-925
-925
-925
-925
-926
-926
-925
-925
-925
-926
-926
-925
-925
-925
-925
-924
-924
-924
-925
-925
-924
-924
-924
-924
-924
-924
-923
-923
-925
-925
-925
-925
-925
-925
-925
-925
-925
-924
-924
-924
-924
-924
-924
-923
-923
-923
-922
-922
-921
-921
-921
-920
-920
-921
-921
-921
-921
-921
-921
-921
-922
-922
-922
-922
-923
-923
-923
-924
-924
-924
-925
-924
-924
-924
-924
-924
-924
-923
-923
-923
-922
-922
-920
-920
-920
-919
-919
-918
-918
-917
-917
-917
-917
-917
-917
-916
-916
-916
-916
-916
-916
-916
-916
-916
-916
-915
-915
-915
-915
-915
-915
-915
-915
-915
-914
-914
-914
-914
-914
-913
-913
-914
-914
-913
-913
-913
-912
-911
-911
-911
-911
-910
-910
-910
-909
-909
-909
-908
-908
-907
-907
-907
-907
-906
-906
-906
-905
-905
-905
-905
-905
-905
-904
-904
-903
-904
-903
-903
-902
-902
-901
-900
-900
-900
-900
-899
-897
-897
-897
-896
-895
-895
-895
-894
-893
-893
-892
-891
-891
-890
-889
-889
-887
-887
-887
-885
-885
-884
-883
-882
-882
-880
-879
-878
-878
-877
-876
-875
-874
-874
-872
-872
-871
-870
-868
-868
-867
-867
-866
-865
-864
-864
-862
-861
-860
-859
-858
-857
-857
-855
-854
-853
-852
-851
-850
-849
-848
-846
-845
-843
-842
-841
-840
-839
-838
-837
-836
-834
-833
-832
-831
-829
-829
-828
-827
-827
-826
-825
-824
-823
-823
-822
-821
-821
-820
-820
-820
-819
-818
-818
-817
-816
-815
-815
-814
-814
-813
-814
-813
-812
-812
-811
-810
-810
-810
-809
-809
-809
-809
-809
-809
-809
-809
-808
-808
-809
-809
-809
-809
-809
-809
-810
-809
-810
-810
-810
-811
-811
-812
-812
-814
-814
-814
-816
-817
-818
-819
-819
-820
-821
-823
-825
-826
-827
-828
-829
-831
-833
-834
-836
-836
-839
-840
-842
-843
-844
-847
-848
-849
-850
-852
-853
-855
-856
-858
-860
-861
-862
-863
-865
-866
-868
-868
-870
-871
-873
-874
-875
-877
-878
-879
-880
-881
-883
-884
-885
-886
-888
-888
-890
-891
-892
-893
-895
-895
-896
-897
-898
-898
-900
-900
-902
-902
-903
-904
-905
-905
-906
-907
-908
-908
-908
-910
-910
-910
-910
-912
-912
-912
-912
-912
-914
-914
-914
-914
-914
-914
-915
-915
-916
-916
-916
-916
-916
-916
-915
-916
-916
-916
-916
-916
-916
-915
-916
-916
-916
-916
-916
-916
-917
-917
-917
-917
-917
-917
-918
-918
-918
-918
-918
-918
-918
-918
-917
-917
-917
-916
-916
-916
-915
-915
-915
-915
-915
-914
-914
-914
-913
-914
-914
-913
-913
-913
-913
-913
-913
-913
-912
-912
-912
-912
-912
-911
-911
-910
-910
-910
-910
-910
-909
-909
-910
-909
-909
-909
-909
-909
-909
-908
-908
-908
-908
-908
-908
-909
-909
-909
-908
-909
-910
-910
-910
-910
-910
-910
-910
-911
-911
-910
-910
-910
-911
-911
-911
-911
-910
-910
-910
-910
-910
-909
-908
-908
-908
-908
-908
-908
-907
-907
-907
-906
-907
-907
-906
-906
-906
-905
-905
-905
-906
-906
-905
-905
-905
-905
-905
-905
-904
-904
-905
-905
-905
-904
-904
-905
-905
-905
-905
-905
-905
-906
-906
-906
-906
-906
-906
-906
-906
-907
-907
-907
-907
-906
-906
-906
-906
-906
-905
-906
-906
-905
-905
-905
-905
-905
-904
-904
-904
-904
-904
-905
-905
-905
-905
-905
-905
-905
-905
-905
-905
-906
-905
-906
-906
-905
-906
-906
-906
-906
-906
-906
-906
-906
-906
-906
-906
-906
-906
-905
-906
-906
-906
-906
-906
-906
-905
-905
-905
-906
-906
-906
-906
-906
-906
-906
-906
-906
-906
-906
-906
-906
-907
-907
-906
-906
-906
-906
-906
-906
-905
-905
-905
-905
-905
-905
-905
-905
-905
-905
-905
-904
-904
-904
-904
-904
-903
-903
-904
-904
-904
-903
-903
-903
-903
-903
-903
-903
-903
-903
-903
-903
-903
-903
-903
-903
-902
-902
-902
-902
-903
-903
-903
-902
-903
-903
-902
-902
-902
-902
-902
-902
-901
-902
-902
-902
-902
-902
-902
-901
-901
-901
-901
-901
-900
-901
-901
-900
-900
-900
-900
-900
-900
-900
-900
-900
-899
-899
-899
-899
-899
-899
-899
-899
-899
-899
-899
-899
-899
-899
-900
-899
-899
-899
-899
-900
-900
-899
-899
-899
-899
-899
-899
-898
-898
-899
-899
-898
-897
-897
-897
-897
-897
-897
-897
-896
-897
-897
-897
-896
-897
-897
-897
-897
-896
-896
-896
-896
-896
-896
-896
-897
-897
-896
-896
-897
-897
-897
-898
-898
-898
-898
-898
-897
-897
-897
-897
-897
-898
-897
-897
-896
-896
-896
-896
-896
-895
-895
-895
-895
-895
-894
-894
-894
-894
-895
-895
-895
-895
-894
-894
-894
-895
-895
-895
-895
-895
-895
-895
-895
-894
-895
-895
-894
-894
-894
-894
-894
-894
-894
-894
-894
-894
-894
-894
-894
-895
-894
-894
-895
-895
-894
-894
-894
-894
-895
-895
-895
-895
-895
-895
-895
-895
-894
-894
-895
-895
-894
-894
-895
-895
-894
-894
-894
-894
-894
-894
-894
-893
-893
-893
-892
-892
-891
-892
-892
-891
-891
-891
-890
-890
-891
-890
-890
-889
-889
-890
-890
-890
-889
-889
-889
-889
-889
-889
-890
-890
-890
-890
-890
-890
-890
-890
-891
-890
-890
-891
-891
-890
-890
-890
-890
-890
-890
-890
-889
-889
-889
-889
-889
-889
-888
-888
-888
-888
-888
-888
-888
-888
-888
-888
-889
-889
-889
-889
-889
-889
-889
-889
-889
-889
-889
-888
-888
-888
-887
-887
-887
-886
-886
-886
-886
-885
-885
-886
-886
-886
-886
-886
-886
-886
-886
-886
-886
-886
-885
-886
-886
-886
-885
-886
-886
-885
-885
-885
-885
-884
-884
-883
-882
-882
-881
-881
-881
-879
-879
-879
-878
-878
-877
-876
-876
-876
-876
-875
-874
-875
-874
-874
-874
-873
-873
-872
-872
-872
-871
-871
-871
-870
-869
-869
-869
-868
-868
-868
-866
-866
-866
-865
-865
-865
-864
-865
-864
-864
-865
-865
-864
-864
-864
-865
-864
-864
-865
-865
-865
-865
-865
-865
-865
-866
-865
-866
-866
-867
-867
-866
-867
-867
-866
-866
-868
-868
-868
-868
-869
-869
-870
-869
-870
-871
-871
-871
-873
-872
-874
-874
-875
-875
-876
-877
-877
-878
-878
-879
-879
-880
-880
-881
-880
-880
-880
-880
-881
-881
-881
-881
-881
-881
-880
-881
-881
-881
-880
-880
-881
-881
-881
-881
-882
-881
-881
-881
-881
-881
-881
-881
-881
-881
-881
-881
-881
-881
-881
-881
-881
-881
-880
-880
-880
-880
-880
-880
-880
-880
-879
-879
-877
-876
-875
-874
-872
-870
-867
-864
-860
-856
-851
-846
-839
-832
-824
-815
-806
-796
-785
-773
-759
-746
-733
-718
-703
-688
-673
-658
-641
-627
-611
-596
-583
-568
-557
-546
-536
-527
-521
-515
-512
-510
-510
-511
-514
-520
-527
-535
-545
-557
-570
-584
-599
-616
-633
-651
-670
-688
-707
-726
-745
-763
-780
-798
-814
-829
-843
-858
-870
-881
-891
-900
-908
-914
-920
-924
-927
-928
-929
-929
-928
-926
-925
-921
-919
-916
-912
-909
-905
-901
-897
-894
-891
-888
-884
-882
-880
-877
-875
-873
-872
-871
-869
-869
-867
-866
-866
-865
-864
-863
-864
-864
-863
-863
-863
-863
-862
-862
-862
-862
-862
-862
-862
-862
-862
-861
-861
-861
-861
-861
-861
-860
-860
-860
-859
-859
-859
-859
-859
-858
-858
-858
-858
-858
-857
-857
-857
-856
-856
-856
-855
-855
-855
-855
-855
-855
-855
-855
-855
-855
-855
-855
-855
-855
-855
-855
-854
-854
-854
-854
-853
-853
-853
-853
-853
-853
-852
-852
-851
-851
-851
-851
-851
-851
-851
-851
-851
-850
-850
-850
-851
-850
-850
-850
-850
-850
-850
-850
-850
-850
-849
-849
-849
-849
-849
-849
-849
-849
-848
-847
-847
-848
-848
-847
-847
-846
-846
-846
-846
-846
-845
-845
-845
-844
-844
-844
-843
-843
-843
-843
-843
-842
-841
-841
-842
-841
-840
-840
-840
-840
-840
-839
-839
-839
-838
-838
-838
-838
-838
-836
-836
-836
-836
-835
-835
-835
-835
-834
-834
-834
-833
-833
-833
-833
-832
-832
-832
-832
-832
-831
-831
-831
-831
-831
-831
-831
-830
-830
-829
-829
-829
-828
-828
-827
-827
-827
-826
-826
-825
-824
-823
-823
-822
-821
-821
-820
-820
-818
-818
-817
-817
-816
-815
-814
-814
-812
-812
-811
-811
-809
-809
-808
-807
-807
-805
-805
-804
-803
-802
-801
-801
-799
-799
-798
-797
-796
-795
-794
-793
-792
-791
-790
-789
-787
-786
-785
-784
-782
-782
-780
-779
-778
-777
-775
-774
-773
-772
-770
-769
-769
-767
-767
-766
-765
-763
-763
-762
-761
-760
-759
-759
-758
-757
-756
-756
-755
-754
-753
-753
-752
-751
-750
-749
-748
-747
-746
-746
-745
-744
-744
-743
-743
-742
-742
-742
-741
-740
-740
-740
-740
-740
-740
-740
-740
-740
-740
-739
-739
-740
-739
-739
-740
-740
-740
-741
-741
-742
-742
-742
-743
-745
-745
-745
-746
-747
-748
-748
-749
-751
-752
-752
-753
-754
-755
-757
-757
-758
-758
-760
-761
-762
-764
-765
-765
-767
-768
-769
-771
-772
-773
-774
-777
-778
-779
-780
-782
-783
-784
-785
-787
-788
-791
-792
-794
-795
-797
-798
-799
-801
-802
-803
-805
-806
-808
-808
-809
-811
-812
-813
-814
-816
-816
-817
-818
-819
-820
-820
-821
-822
-824
-824
-825
-826
-826
-827
-827
-828
-829
-830
-830
-831
-831
-832
-832
-834
-834
-834
-835
-836
-836
-837
-837
-838
-838
-839
-839
-839
-840
-840
-839
-840
-840
-840
-840
-840
-839
-840
-840
-840
-840
-839
-839
-839
-839
-839
-839
-840
-840
-839
-839
-840
-840
-840
-840
-840
-841
-841
-841
-841
-842
-842
-841
-842
-842
-842
-842
-842
-843
-843
-843
-843
-843
-844
-844
-844
-844
-844
-844
-844
-844
-844
-843
-843
-843
-843
-843
-843
-843
-842
-842
-842
-842
-842
-842
-841
-842
-842
-842
-842
-842
-843
-843
-843
-842
-843
-843
-843
-844
-844
-844
-844
-843
-844
-844
-843
-843
-844
-843
-843
-843
-843
-843
-843
-843
-842
-841
-841
-842
-842
-841
-841
-841
-841
-841
-841
-841
-842
-842
-842
-842
-841
-842
-843
-843
-843
-843
-843
-843
-843
-843
-844
-844
-843
-843
-843
-843
-843
-842
-842
-841
-841
-840
-840
-840
-839
-839
-839
-839
-838
-838
-838
-838
-839
-839
-839
-838
-839
-839
-839
-838
-838
-839
-839
-839
-839
-839
-840
-840
-840
-840
-840
-841
-841
-841
-841
-840
-840
-841
-841
-841
-841
-842
-842
-842
-842
-842
-843
-842
-842
-842
-842
-842
-842
-842
-841
-841
-842
-842
-840
-840
-840
-840
-840
-840
-840
-840
-840
-840
-839
-839
-839
-838
-839
-839
-839
-839
-840
-840
-839
-840
-840
-841
-841
-841
-841
-840
-840
-841
-841
-841
-841
-841
-841
-841
-842
-842
-842
-842
-842
-842
-841
-842
-842
-842
-842
-842
-843
-843
-843
-842
-843
-843
-843
-842
-843
-843
-843
-842
-842
-842
-842
-842
-842
-842
-842
-842
-842
-842
-842
-842
-843
-842
-842
-842
-842
-843
-843
-842
-842
-842
-842
-842
-842
-842
-842
-842
-842
-841
-841
-841
-840
-840
-840
-840
-840
-840
-840
-840
-840
-840
-840
-840
-840
-840
-840
-840
-840
-841
-841
-841
-841
-840
-841
-841
-840
-840
-840
-840
-840
-840
-840
-840
-840
-840
-839
-839
-839
-839
-839
-839
-839
-839
-839
-838
-838
-838
-837
-837
-837
-837
-836
-836
-837
-836
-836
-835
-835
-835
-835
-835
-836
-836
-836
-836
-836
-836
-836
-836
-836
-836
-836
-837
-838
-838
-838
-838
-837
-837
-837
-837
-836
-836
-836
-836
-836
-836
-836
-837
-836
-836
-836
-836
-837
-837
-837
-837
-837
-837
-837
-837
-837
-837
-836
-836
-836
-836
-836
-835
-835
-835
-835
-834
-834
-834
-834
-834
-833
-834
-834
-834
-834
-833
-833
-833
-833
-833
-833
-832
-832
-832
-832
-832
-831
-831
-831
-831
-831
-832
-831
-830
-830
-831
-831
-831
-831
-831
-831
-831
-831
-831
-831
-831
-831
-831
-831
-830
-830
-830
-830
-830
-830
-831
-831
-830
-830
-830
-830
-831
-831
-831
-831
-831
-831
-831
-831
-831
-831
-831
-831
-831
-831
-831
-831
-831
-831
-831
-831
-831
-830
-830
-830
-830
-829
-829
-830
-830
-829
-829
-829
-828
-829
-829
-829
-828
-828
-828
-828
-828
-828
-828
-828
-829
-829
-829
-829
-828
-828
-828
-828
-828
-828
-828
-827
-827
-827
-828
-828
-828
-828
-828
-828
-827
-827
-827
-827
-827
-827
-827
-827
-827
-827
-826
-826
-826
-826
-826
-826
-826
-826
-826
-825
-825
-826
-826
-826
-826
-826
-826
-825
-825
-825
-825
-825
-825
-824
-824
-824
-824
-823
-824
-823
-823
-823
-823
-822
-823
-823
-822
-822
-822
-822
-822
-822
-822
-822
-822
-822
-822
-823
-823
-823
-823
-824
-823
-824
-825
-824
-825
-824
-824
-824
-824
-824
-824
-824
-824
-824
-824
-824
-823
-823
-822
-822
-822
-821
-821
-821
-820
-820
-820
-820
-820
-820
-820
-819
-819
-819
-819
-818
-818
-819
-818
-818
-818
-818
-818
-817
-817
-817
-817
-817
-816
-816
-815
-815
-814
-814
-814
-814
-812
-812
-812
-811
-811
-811
-810
-810
-808
-808
-808
-807
-807
-806
-806
-805
-805
-804
-804
-802
-802
-801
-801
-800
-800
-800
-798
-798
-798
-798
-797
-797
-797
-797
-797
-796
-797
-797
-797
-797
-798
-798
-799
-800
-801
-801
-802
-802
-802
-804
-804
-804
-804
-806
-806
-806
-806
-806
-806
-807
-807
-807
-807
-807
-807
-807
-809
-809
-809
-809
-810
-810
-811
-811
-812
-812
-814
-813
-815
-814
-816
-816
-816
-817
-817
-817
-818
-818
-819
-819
-819
-820
-820
-819
-819
-819
-820
-820
-820
-820
-820
-821
-821
-821
-820
-820
-820
-820
-820
-820
-820
-820
-820
-820
-819
-819
-819
-819
-819
-819
-818
-818
-818
-818
-817
-817
-817
-817
-816
-815
-815
-814
-814
-813
-812
-811
-810
-809
-807
-805
-802
-799
-795
-791
-786
-780
-774
-767
-759
-750
-740
-730
-719
-706
-695
-680
-667
-653
-639
-624
-609
-594
-579
-564
-550
-535
-522
-509
-498
-489
-480
-473
-467
-464
-461
-461
-462
-465
-470
-477
-485
-495
-506
-519
-534
-549
-565
-582
-600
-618
-637
-656
-674
-693
-712
-730
-747
-763
-778
-792
-805
-817
-829
-838
-847
-854
-861
-866
-870
-873
-874
-875
-875
-873
-871
-869
-866
-863
-859
-856
-852
-848
-844
-840
-836
-832
-829
-826
-823
-820
-818
-815
-813
-812
-809
-808
-807
-807
-806
-806
-804
-804
-803
-803
-803
-803
-803
-803
-803
-803
-803
-802
-802
-802
-802
-801
-801
-801
-801
-801
-801
-801
-801
-800
-800
-800
-800
-800
-800
-799
-799
-800
-800
-800
-800
-800
-800
-800
-800
-800
-800
-799
-799
-799
-799
-799
-799
-799
-799
-798
-798
-798
-798
-798
-798
-798
-797
-797
-797
-797
-796
-796
-796
-796
-796
-796
-796
-796
-796
-796
-795
-795
-795
-795
-794
-795
-795
-795
-794
-794
-794
-793
-793
-793
-793
-792
-792
-793
-793
-792
-792
-792
-792
-791
-791
-791
-790
-790
-790
-790
-789
-789
-789
-789
-789
-788
-787
-787
-786
-787
-786
-786
-786
-786
-786
-785
-786
-786
-785
-786
-786
-786
-785
-786
-786
-786
-786
-786
-786
-786
-786
-786
-785
-786
-786
-785
-785
-785
-785
-783
-783
-782
-782
-782
-782
-782
-781
-781
-781
-780
-780
-780
-779
-779
-778
-778
-778
-777
-776
-777
-776
-776
-775
-775
-774
-774
-773
-773
-773
-772
-772
-771
-770
-770
-769
-769
-769
-768
-767
-767
-766
-766
-766
-766
-765
-765
-764
-763
-763
-763
-761
-761
-761
-760
-759
-759
-757
-757
-756
-756
-755
-755
-753
-752
-752
-751
-750
-749
-748
-747
-747
-746
-744
-744
-743
-742
-742
-740
-739
-738
-737
-736
-735
-734
-732
-731
-730
-729
-728
-727
-726
-725
-723
-723
-722
-721
-720
-718
-716
-715
-714
-713
-712
-711
-710
-709
-707
-707
-705
-704
-703
-703
-702
-701
-700
-700
-698
-697
-696
-695
-694
-693
-692
-692
-690
-689
-689
-688
-688
-687
-687
-686
-686
-685
-685
-685
-684
-685
-685
-685
-685
-686
-686
-686
-686
-686
-687
-687
-687
-687
-688
-688
-688
-687
-688
-687
-688
-687
-687
-688
-688
-687
-687
-687
-687
-688
-688
-688
-689
-690
-690
-691
-691
-692
-693
-694
-694
-696
-697
-698
-699
-700
-702
-703
-704
-705
-706
-708
-710
-711
-712
-713
-715
-717
-718
-719
-720
-722
-723
-725
-726
-728
-729
-730
-732
-733
-735
-737
-738
-740
-741
-742
-744
-745
-747
-748
-749
-750
-752
-753
-754
-755
-757
-759
-760
-760
-761
-762
-763
-765
-766
-766
-767
-768
-769
-770
-771
-772
-773
-774
-775
-776
-776
-777
-778
-779
-779
-780
-780
-781
-781
-782
-783
-783
-783
-783
-783
-784
-784
-783
-784
-784
-784
-785
-785
-785
-785
-785
-785
-785
-785
-785
-786
-786
-787
-787
-788
-788
-788
-788
-788
-789
-789
-790
-790
-790
-790
-790
-790
-791
-790
-790
-790
-789
-789
-790
-790
-790
-789
-789
-789
-789
-789
-789
-789
-789
-789
-790
-790
-791
-791
-791
-791
-792
-792
-792
-793
-793
-793
-793
-794
-794
-794
-794
-794
-794
-794
-794
-794
-794
-794
-793
-793
-793
-792
-792
-792
-792
-792
-792
-792
-790
-790
-790
-790
-790
-789
-790
-790
-790
-789
-789
-789
-789
-789
-789
-789
-789
-790
-790
-790
-789
-790
-790
-790
-790
-790
-790
-790
-791
-791
-790
-790
-790
-790
-791
-790
-790
-790
-790
-789
-789
-789
-789
-789
-789
-788
-788
-788
-788
-788
-789
-789
-789
-789
-789
-789
-789
-789
-789
-789
-789
-789
-789
-789
-790
-789
-789
-789
-788
-788
-788
-788
-788
-788
-788
-788
-788
-788
-788
-788
-788
-788
-788
-788
-787
-788
-788
-788
-788
-788
-788
-788
-787
-788
-788
-787
-787
-787
-787
-787
-787
-788
-787
-788
-788
-789
-789
-789
-789
-789
-790
-790
-790
-791
-791
-792
-791
-792
-792
-792
-792
-792
-793
-792
-792
-792
-792
-791
-791
-791
-792
-791
-791
-791
-791
-791
-790
-790
-790
-790
-791
-790
-790
-790
-790
-790
-790
-790
-790
-790
-790
-790
-791
-791
-790
-790
-790
-790
-790
-790
-790
-789
-789
-789
-789
-789
-789
-788
-788
-788
-788
-788
-788
-788
-788
-788
-788
-788
-787
-787
-788
-787
-787
-787
-787
-788
-787
-787
-788
-787
-788
-788
-787
-787
-788
-788
-787
-787
-787
-787
-787
-787
-787
-787
-787
-787
-787
-787
-787
-788
-787
-787
-787
-788
-788
-788
-788
-788
-789
-789
-789
-789
-789
-789
-789
-789
-790
-790
-789
-789
-789
-789
-789
-788
-789
-789
-788
-788
-788
-788
-787
-787
-787
-786
-785
-786
-785
-784
-784
-783
-783
-782
-782
-782
-782
-782
-782
-782
-782
-782
-781
-781
-781
-781
-781
-781
-781
-781
-781
-781
-782
-782
-781
-781
-781
-780
-780
-780
-780
-779
-779
-779
-779
-779
-779
-779
-779
-779
-779
-778
-780
-780
-779
-779
-780
-780
-780
-782
-782
-782
-782
-783
-782
-782
-782
-782
-782
-782
-781
-782
-782
-780
-780
-780
-780
-779
-778
-778
-777
-777
-777
-776
-775
-775
-774
-774
-775
-774
-774
-774
-774
-775
-774
-774
-774
-774
-774
-775
-775
-776
-776
-776
-776
-776
-776
-776
-776
-776
-776
-776
-776
-776
-776
-776
-776
-776
-776
-776
-776
-776
-775
-775
-775
-775
-774
-774
-774
-773
-774
-773
-772
-773
-772
-772
-771
-772
-771
-771
-771
-771
-771
-771
-770
-770
-770
-770
-769
-770
-770
-770
-770
-769
-769
-769
-769
-770
-770
-770
-770
-770
-770
-770
-770
-770
-770
-770
-770
-770
-769
-769
-770
-770
-769
-768
-768
-768
-768
-768
-766
-766
-766
-765
-765
-765
-764
-764
-764
-764
-764
-764
-763
-763
-763
-763
-763
-763
-763
-763
-764
-764
-764
-764
-764
-765
-765
-765
-765
-766
-766
-765
-766
-766
-767
-766
-766
-766
-767
-766
-766
-766
-766
-766
-765
-765
-765
-765
-765
-765
-764
-764
-764
-764
-763
-763
-763
-762
-761
-761
-761
-761
-761
-760
-760
-759
-759
-758
-758
-758
-758
-756
-756
-756
-755
-755
-754
-754
-753
-753
-753
-752
-752
-751
-751
-751
-751
-751
-750
-750
-750
-750
-750
-750
-750
-750
-749
-749
-748
-748
-747
-747
-746
-745
-744
-743
-743
-742
-741
-740
-740
-739
-739
-738
-737
-737
-737
-736
-736
-736
-735
-734
-735
-735
-735
-735
-735
-734
-734
-734
-733
-733
-734
-734
-734
-733
-734
-734
-734
-734
-735
-734
-735
-735
-735
-737
-737
-737
-737
-738
-739
-739
-739
-739
-740
-740
-740
-741
-741
-743
-743
-742
-744
-744
-745
-745
-746
-746
-747
-747
-748
-749
-748
-749
-749
-750
-750
-750
-751
-751
-750
-750
-750
-751
-751
-750
-750
-750
-750
-750
-750
-750
-750
-750
-751
-751
-751
-751
-751
-752
-752
-752
-752
-752
-752
-752
-752
-752
-752
-751
-751
-751
-750
-751
-750
-750
-749
-749
-748
-748
-747
-747
-747
-746
-746
-745
-744
-743
-742
-741
-739
-737
-735
-732
-728
-725
-721
-715
-709
-703
-696
-688
-678
-668
-657
-646
-633
-620
-606
-591
-576
-560
-546
-529
-513
-497
-482
-466
-451
-436
-423
-412
-401
-391
-383
-377
-372
-369
-368
-369
-371
-376
-381
-390
-400
-410
-424
-438
-452
-469
-486
-504
-522
-541
-562
-580
-600
-619
-637
-655
-672
-689
-704
-718
-731
-743
-755
-765
-773
-782
-787
-793
-797
-799
-802
-802
-802
-801
-799
-797
-794
-791
-788
-785
-780
-777
-773
-769
-765
-762
-758
-754
-751
-748
-746
-744
-742
-740
-738
-736
-735
-734
-733
-732
-732
-731
-730
-730
-730
-730
-730
-730
-730
-729
-729
-729
-729
-729
-729
-729
-728
-728
-729
-728
-728
-727
-726
-727
-727
-725
-725
-725
-726
-726
-725
-725
-725
-725
-725
-725
-725
-724
-724
-724
-724
-724
-725
-725
-725
-724
-725
-725
-725
-725
-725
-725
-724
-724
-724
-723
-724
-723
-723
-722
-722
-721
-721
-721
-720
-720
-720
-719
-719
-718
-718
-717
-717
-716
-716
-716
-716
-716
-715
-715
-715
-715
-714
-714
-714
-714
-714
-714
-714
-714
-713
-713
-713
-714
-714
-714
-713
-714
-714
-713
-713
-713
-713
-712
-713
-713
-713
-712
-712
-712
-712
-711
-711
-710
-710
-709
-709
-708
-708
-707
-707
-706
-706
-706
-706
-705
-705
-705
-705
-705
-704
-703
-703
-703
-703
-702
-702
-701
-701
-701
-700
-700
-699
-699
-699
-698
-698
-698
-698
-698
-697
-697
-697
-697
-697
-697
-697
-696
-696
-696
-695
-694
-694
-694
-694
-693
-692
-692
-691
-691
-690
-689
-688
-688
-687
-686
-686
-685
-684
-683
-683
-681
-680
-680
-679
-678
-678
-677
-675
-675
-674
-674
-672
-672
-671
-670
-669
-668
-667
-666
-666
-665
-663
-663
-662
-661
-660
-659
-658
-657
-656
-655
-654
-652
-651
-650
-649
-647
-645
-644
-642
-641
-641
-639
-638
-636
-636
-634
-633
-631
-631
-630
-628
-628
-626
-625
-625
-623
-623
-622
-621
-620
-619
-618
-617
-616
-616
-615
-614
-613
-612
-611
-610
-610
-609
-608
-607
-606
-605
-604
-604
-603
-602
-601
-601
-600
-600
-599
-598
-597
-596
-596
-596
-596
-595
-594
-594
-593
-593
-593
-593
-592
-592
-592
-591
-591
-591
-591
-591
-591
-592
-592
-592
-592
-592
-592
-592
-592
-593
-593
-593
-594
-594
-595
-595
-595
-595
-596
-597
-597
-599
-600
-600
-601
-602
-604
-605
-606
-607
-609
-609
-610
-612
-613
-614
-615
-617
-618
-619
-620
-622
-622
-623
-625
-625
-627
-628
-628
-630
-631
-632
-633
-635
-636
-637
-638
-640
-641
-642
-643
-645
-647
-648
-649
-651
-652
-654
-656
-657
-659
-659
-660
-662
-664
-664
-666
-666
-668
-669
-670
-670
-672
-673
-673
-675
-675
-676
-676
-677
-678
-678
-679
-680
-681
-681
-681
-682
-682
-682
-683
-684
-684
-684
-685
-685
-685
-685
-685
-686
-686
-686
-687
-686
-686
-686
-687
-687
-687
-687
-687
-687
-687
-687
-688
-688
-689
-689
-689
-689
-689
-690
-690
-690
-690
-690
-690
-691
-691
-691
-691
-690
-691
-691
-691
-691
-691
-691
-691
-691
-691
-691
-690
-690
-690
-690
-690
-689
-689
-690
-690
-690
-690
-689
-689
-690
-690
-689
-689
-689
-689
-689
-689
-689
-689
-689
-689
-689
-689
-689
-689
-689
-688
-688
-688
-688
-688
-687
-687
-687
-687
-688
-686
-686
-686
-686
-686
-686
-687
-686
-686
-686
-685
-685
-686
-686
-685
-685
-685
-684
-684
-684
-684
-684
-683
-683
-683
-683
-684
-684
-684
-684
-684
-684
-684
-684
-685
-684
-684
-684
-685
-685
-685
-686
-686
-686
-686
-686
-685
-685
-686
-686
-685
-685
-685
-685
-684
-684
-684
-683
-683
-683
-682
-682
-681
-681
-681
-681
-681
-681
-681
-681
-680
-680
-680
-680
-680
-681
-681
-682
-682
-682
-683
-683
-684
-685
-685
-685
-686
-686
-686
-686
-688
-688
-688
-687
-687
-687
-688
-688
-687
-687
-687
-687
-687
-687
-686
-686
-686
-686
-686
-686
-686
-686
-685
-685
-685
-686
-686
-686
-685
-686
-686
-686
-687
-687
-687
-687
-688
-688
-688
-688
-689
-689
-689
-688
-688
-688
-689
-689
-688
-688
-688
-688
-688
-688
-688
-687
-687
-687
-687
-688
-688
-688
-688
-688
-688
-687
-687
-688
-688
-688
-688
-688
-689
-689
-689
-689
-689
-688
-688
-688
-688
-688
-688
-688
-688
-688
-688
-688
-688
-687
-687
-687
-687
-687
-687
-686
-686
-686
-686
-686
-686
-686
-685
-685
-685
-684
-683
-683
-683
-683
-684
-683
-682
-682
-682
-682
-682
-682
-682
-682
-682
-682
-683
-683
-682
-683
-683
-683
-684
-684
-684
-685
-685
-685
-685
-685
-686
-686
-686
-686
-686
-686
-685
-685
-685
-684
-684
-684
-684
-684
-683
-684
-684
-684
-683
-683
-683
-683
-683
-684
-684
-684
-684
-684
-684
-684
-684
-684
-684
-684
-684
-684
-684
-684
-684
-684
-684
-683
-683
-683
-683
-683
-683
-682
-682
-682
-682
-682
-681
-681
-681
-682
-682
-682
-681
-681
-681
-681
-681
-681
-681
-681
-681
-680
-681
-681
-681
-681
-681
-680
-680
-680
-680
-681
-681
-681
-680
-680
-680
-680
-680
-680
-679
-679
-679
-679
-678
-678
-678
-678
-678
-678
-679
-678
-678
-678
-678
-678
-678
-679
-679
-679
-679
-679
-679
-679
-679
-679
-679
-678
-678
-678
-678
-678
-678
-677
-678
-677
-677
-677
-677
-677
-677
-676
-677
-677
-677
-677
-676
-676
-676
-676
-676
-676
-676
-676
-677
-677
-677
-677
-677
-678
-678
-678
-678
-677
-677
-677
-678
-678
-678
-678
-678
-677
-678
-678
-678
-677
-678
-678
-678
-677
-677
-677
-677
-677
-677
-676
-676
-677
-677
-676
-676
-676
-676
-676
-675
-675
-675
-676
-675
-676
-676
-676
-676
-675
-675
-676
-676
-676
-676
-676
-676
-675
-676
-676
-675
-675
-675
-675
-675
-675
-675
-675
-674
-674
-674
-674
-674
-674
-674
-673
-674
-674
-674
-674
-675
-675
-674
-674
-674
-675
-675
-674
-674
-674
-674
-674
-674
-674
-674
-673
-673
-673
-673
-673
-673
-673
-673
-673
-673
-673
-673
-673
-673
-673
-673
-673
-674
-674
-674
-673
-673
-673
-673
-673
-673
-673
-673
-673
-672
-672
-672
-671
-672
-672
-671
-671
-671
-671
-671
-670
-670
-670
-670
-669
-670
-670
-670
-669
-669
-669
-668
-668
-669
-668
-668
-667
-667
-667
-667
-666
-666
-665
-664
-664
-664
-664
-663
-663
-662
-662
-661
-661
-660
-660
-659
-658
-658
-657
-657
-657
-656
-655
-655
-654
-653
-653
-652
-652
-650
-650
-650
-649
-648
-648
-648
-648
-647
-647
-647
-647
-646
-647
-647
-647
-647
-647
-647
-647
-647
-647
-647
-646
-647
-647
-647
-647
-648
-648
-648
-649
-649
-649
-650
-650
-650
-651
-652
-652
-653
-653
-653
-654
-654
-655
-655
-655
-656
-656
-657
-657
-658
-658
-659
-660
-660
-661
-660
-662
-662
-663
-664
-664
-664
-665
-665
-666
-667
-667
-667
-668
-668
-668
-668
-668
-668
-668
-668
-668
-668
-668
-668
-669
-669
-669
-669
-669
-669
-669
-669
-670
-670
-669
-670
-670
-670
-670
-670
-670
-670
-670
-670
-669
-669
-669
-669
-668
-668
-668
-667
-668
-667
-666
-665
-665
-664
-663
-661
-660
-658
-656
-654
-651
-647
-643
-640
-634
-628
-622
-614
-606
-597
-587
-577
-565
-553
-540
-527
-512
-497
-482
-467
-452
-437
-421
-406
-390
-377
-363
-350
-338
-327
-318
-310
-304
-300
-296
-294
-295
-297
-301
-307
-315
-324
-335
-347
-361
-376
-392
-409
-426
-444
-464
-482
-502
-520
-540
-558
-576
-593
-609
-624
-638
-651
-663
-674
-684
-694
-701
-706
-712
-715
-718
-719
-719
-719
-719
-717
-714
-711
-708
-704
-701
-696
-694
-689
-686
-682
-679
-675
-673
-670
-667
-665
-663
-662
-659
-658
-657
-657
-655
-655
-655
-655
-654
-653
-653
-653
-653
-653
-654
-654
-654
-654
-652
-653
-653
-653
-652
-652
-652
-652
-651
-651
-650
-650
-650
-650
-650
-650
-649
-648
-648
-648
-648
-648
-648
-647
-647
-647
-646
-646
-645
-645
-645
-645
-645
-645
-645
-644
-644
-644
-643
-643
-643
-642
-643
-643
-642
-642
-643
-642
-642
-642
-643
-643
-642
-642
-642
-641
-641
-641
-641
-641
-641
-641
-641
-641
-641
-640
-640
-640
-639
-639
-639
-639
-639
-638
-638
-638
-638
-637
-637
-637
-636
-636
-636
-636
-636
-636
-635
-635
-636
-636
-635
-635
-635
-635
-635
-635
-635
-636
-636
-636
-634
-634
-634
-634
-634
-633
-633
-633
-632
-632
-631
-631
-630
-630
-630
-629
-629
-628
-627
-627
-627
-627
-627
-627
-627
-627
-626
-626
-626
-626
-626
-625
-625
-624
-624
-624
-624
-624
-623
-623
-623
-622
-622
-621
-620
-620
-620
-619
-619
-618
-618
-618
-618
-618
-617
-617
-616
-616
-616
-615
-615
-614
-614
-613
-613
-612
-612
-611
-611
-610
-609
-609
-607
-608
-607
-606
-605
-604
-603
-603
-602
-601
-600
-600
-599
-599
-598
-597
-596
-595
-595
-593
-593
-592
-592
-591
-589
-589
-588
-587
-586
-585
-584
-583
-582
-581
-581
-579
-578
-577
-576
-575
-573
-573
-572
-571
-570
-568
-568
-566
-566
-565
-564
-563
-562
-561
-560
-559
-558
-557
-556
-555
-554
-553
-552
-551
-550
-549
-548
-547
-546
-545
-544
-543
-543
-542
-541
-541
-540
-539
-539
-539
-538
-538
-538
-536
-536
-535
-535
-534
-533
-533
-533
-532
-531
-530
-530
-530
-529
-529
-528
-528
-527
-527
-527
-526
-526
-525
-526
-526
-526
-526
-526
-526
-526
-526
-527
-527
-527
-527
-528
-528
-529
-529
-530
-530
-532
-532
-533
-533
-534
-535
-535
-536
-537
-538
-539
-540
-541
-543
-543
-544
-546
-547
-548
-550
-552
-552
-554
-556
-557
-557
-559
-560
-561
-563
-564
-566
-566
-568
-570
-570
-572
-574
-575
-576
-578
-579
-581
-583
-583
-585
-587
-588
-590
-591
-591
-593
-594
-595
-597
-598
-599
-599
-600
-602
-603
-603
-604
-605
-607
-607
-608
-609
-610
-610
-611
-612
-613
-613
-614
-615
-616
-616
-617
-617
-618
-618
-619
-619
-619
-619
-620
-621
-620
-620
-621
-621
-620
-621
-621
-620
-621
-621
-620
-621
-621
-621
-621
-621
-621
-621
-621
-621
-622
-622
-622
-623
-623
-623
-623
-624
-624
-624
-624
-624
-625
-625
-625
-625
-625
-625
-624
-624
-624
-625
-625
-625
-625
-625
-625
-625
-626
-626
-626
-626
-626
-626
-626
-625
-626
-626
-626
-627
-626
-626
-627
-627
-626
-626
-626
-626
-626
-626
-626
-626
-626
-626
-626
-627
-626
-626
-626
-625
-625
-625
-625
-625
-625
-626
-626
-626
-626
-626
-626
-625
-625
-625
-625
-625
-625
-624
-624
-624
-624
-624
-624
-624
-624
-623
-623
-623
-623
-622
-623
-623
-622
-622
-622
-622
-622
-622
-621
-621
-621
-621
-622
-622
-622
-622
-622
-622
-622
-622
-622
-622
-623
-624
-624
-624
-624
-624
-624
-624
-624
-625
-625
-625
-625
-625
-625
-625
-625
-625
-625
-625
-625
-625
-624
-623
-623
-623
-623
-622
-622
-623
-622
-621
-622
-622
-622
-622
-621
-621
-622
-622
-622
-622
-622
-622
-622
-622
-622
-622
-623
-623
-623
-623
-623
-623
-624
-623
-623
-623
-623
-623
-622
-623
-623
-623
-624
-624
-624
-624
-624
-624
-624
-624
-625
-625
-625
-626
-626
-626
-625
-625
-625
-626
-626
-626
-625
-625
-625
-624
-624
-623
-624
-624
-623
-623
-622
-622
-622
-622
-621
-621
-621
-621
-621
-621
-622
-622
-622
-622
-622
-622
-623
-623
-623
-623
-624
-623
-623
-623
-624
-624
-624
-624
-624
-624
-624
-624
-624
-624
-623
-623
-623
-623
-623
-623
-623
-622
-622
-622
-622
-621
-622
-621
-621
-621
-621
-621
-620
-620
-620
-620
-620
-620
-620
-620
-621
-621
-620
-620
-620
-620
-620
-620
-620
-621
-621
-621
-620
-621
-621
-620
-620
-620
-620
-620
-620
-620
-620
-619
-619
-619
-619
-619
-619
-619
-619
-619
-619
-618
-619
-619
-619
-619
-619
-618
-619
-620
-620
-620
-620
-620
-620
-621
-621
-620
-620
-620
-620
-620
-620
-620
-619
-619
-619
-619
-618
-618
-618
-617
-617
-617
-616
-617
-617
-617
-617
-617
-617
-616
-616
-617
-617
-617
-617
-617
-617
-617
-617
-617
-618
-617
-617
-617
-617
-617
-617
-618
-618
-617
-617
-617
-617
-617
-617
-617
-617
-616
-617
-616
-616
-616
-617
-617
-617
-616
-617
-617
-617
-617
-618
-618
-617
-617
-617
-617
-617
-617
-617
-617
-617
-617
-615
-615
-615
-615
-615
-615
-615
-615
-614
-613
-613
-613
-613
-613
-613
-613
-613
-613
-612
-612
-612
-612
-613
-612
-612
-612
-612
-612
-611
-611
-611
-610
-610
-610
-610
-610
-610
-611
-611
-611
-611
-612
-612
-612
-613
-613
-613
-614
-613
-613
-614
-615
-615
-615
-615
-615
-615
-615
-615
-615
-615
-615
-614
-614
-614
-613
-613
-612
-613
-612
-612
-611
-611
-611
-611
-611
-611
-611
-611
-611
-611
-611
-611
-611
-610
-610
-610
-610
-610
-609
-609
-609
-609
-609
-609
-609
-608
-608
-607
-608
-608
-607
-608
-608
-608
-608
-608
-608
-608
-608
-608
-608
-607
-608
-608
-607
-607
-607
-607
-607
-607
-607
-606
-606
-605
-606
-606
-606
-606
-606
-606
-605
-605
-605
-606
-606
-605
-605
-605
-605
-606
-606
-606
-605
-605
-605
-605
-605
-604
-604
-604
-604
-604
-604
-604
-604
-604
-603
-603
-603
-604
-603
-603
-603
-604
-604
-603
-604
-604
-604
-603
-603
-603
-603
-603
-604
-603
-603
-603
-603
-603
-602
-601
-602
-602
-601
-601
-601
-600
-600
-600
-601
-600
-600
-600
-600
-601
-600
-600
-600
-599
-599
-599
-599
-599
-598
-598
-598
-598
-596
-596
-596
-596
-594
-594
-594
-593
-592
-592
-591
-591
-590
-590
-589
-589
-589
-589
-588
-588
-588
-587
-587
-586
-586
-585
-585
-584
-584
-584
-583
-582
-582
-581
-580
-580
-579
-579
-578
-577
-577
-576
-575
-575
-575
-574
-574
-574
-573
-573
-573
-573
-572
-573
-573
-573
-574
-574
-574
-574
-574
-574
-574
-575
-575
-575
-575
-575
-575
-575
-575
-575
-575
-576
-576
-576
-577
-577
-577
-577
-577
-578
-578
-579
-580
-580
-581
-582
-582
-583
-584
-584
-586
-586
-587
-587
-588
-589
-589
-589
-591
-591
-591
-591
-591
-591
-591
-592
-592
-592
-592
-592
-592
-592
-592
-591
-590
-590
-590
-590
-590
-590
-590
-589
-589
-589
-589
-589
-589
-589
-589
-589
-589
-589
-589
-589
-589
-588
-588
-588
-588
-588
-588
-587
-587
-587
-587
-586
-586
-586
-585
-585
-584
-583
-581
-579
-577
-575
-572
-568
-564
-559
-554
-548
-541
-533
-524
-515
-506
-495
-484
-471
-458
-445
-431
-416
-402
-388
-373
-358
-343
-328
-314
-300
-287
-275
-264
-254
-246
-238
-233
-229
-228
-227
-228
-231
-236
-242
-250
-261
-272
-285
-298
-314
-331
-347
-365
-383
-402
-421
-440
-459
-477
-494
-512
-528
-544
-559
-573
-584
-596
-607
-615
-623
-630
-635
-639
-641
-644
-644
-643
-642
-641
-638
-636
-632
-628
-624
-621
-617
-612
-608
-605
-601
-597
-595
-592
-589
-587
-585
-583
-581
-580
-579
-578
-577
-576
-576
-574
-574
-574
-574
-573
-573
-573
-573
-574
-574
-573
-573
-573
-573
-573
-573
-573
-572
-572
-572
-572
-572
-573
-573
-572
-572
-572
-571
-571
-571
-572
-571
-571
-571
-570
-570
-570
-570
-569
-569
-569
-569
-570
-570
-570
-569
-569
-569
-569
-569
-569
-569
-568
-568
-568
-568
-567
-567
-566
-567
-566
-566
-565
-565
-564
-564
-564
-564
-563
-563
-562
-563
-563
-562
-562
-562
-562
-562
-562
-562
-562
-562
-561
-562
-562
-562
-562
-561
-561
-561
-561
-561
-561
-561
-561
-560
-560
-560
-560
-559
-559
-560
-559
-559
-558
-558
-557
-557
-557
-557
-557
-556
-555
-555
-555
-555
-554
-554
-554
-553
-553
-553
-552
-552
-552
-551
-551
-550
-550
-550
-550
-549
-549
-549
-549
-550
-550
-549
-549
-550
-549
-549
-550
-550
-550
-550
-550
-549
-549
-549
-549
-549
-549
-548
-548
-548
-547
-546
-546
-545
-544
-544
-543
-542
-542
-541
-541
-540
-540
-539
-539
-538
-538
-537
-536
-536
-536
-535
-535
-534
-534
-533
-533
-533
-532
-532
-532
-532
-530
-530
-529
-529
-528
-527
-527
-526
-525
-525
-523
-523
-522
-521
-520
-519
-518
-517
-516
-515
-514
-513
-512
-511
-510
-509
-508
-507
-506
-505
-504
-503
-503
-502
-501
-499
-498
-498
-496
-495
-495
-493
-492
-491
-490
-489
-487
-486
-485
-484
-483
-481
-480
-479
-477
-476
-476
-474
-473
-472
-470
-469
-468
-467
-466
-465
-464
-464
-463
-462
-461
-460
-459
-459
-458
-458
-457
-457
-455
-455
-454
-454
-453
-452
-452
-451
-450
-449
-449
-448
-447
-447
-446
-445
-444
-444
-443
-443
-443
-443
-443
-443
-443
-443
-443
-442
-442
-442
-442
-443
-443
-443
-444
-444
-445
-445
-446
-446
-447
-447
-448
-449
-450
-451
-452
-452
-453
-455
-456
-457
-458
-460
-460
-461
-462
-463
-465
-465
-467
-468
-469
-469
-471
-472
-473
-474
-475
-476
-477
-479
-480
-481
-482
-483
-484
-486
-487
-488
-490
-491
-493
-494
-495
-496
-497
-499
-500
-501
-502
-503
-505
-505
-507
-507
-509
-509
-511
-512
-512
-514
-515
-516
-516
-518
-519
-520
-520
-521
-523
-524
-525
-526
-527
-527
-528
-529
-529
-529
-531
-531
-531
-532
-532
-532
-532
-532
-532
-533
-532
-533
-533
-532
-532
-532
-532
-532
-532
-532
-532
-532
-532
-532
-532
-532
-532
-533
-533
-533
-533
-533
-532
-532
-533
-533
-533
-533
-533
-534
-534
-534
-534
-534
-534
-534
-535
-535
-534
-534
-534
-535
-535
-535
-535
-535
-535
-535
-536
-536
-535
-536
-536
-536
-536
-536
-536
-536
-535
-535
-535
-535
-536
-535
-535
-535
-534
-534
-534
-533
-533
-532
-533
-533
-532
-532
-532
-532
-532
-532
-531
-531
-532
-532
-532
-532
-532
-531
-531
-531
-531
-531
-530
-531
-531
-531
-530
-530
-530
-530
-529
-529
-529
-529
-529
-529
-529
-529
-529
-528
-528
-528
-528
-528
-528
-527
-527
-528
-527
-527
-527
-527
-527
-527
-526
-526
-526
-526
-526
-526
-527
-526
-526
-526
-526
-525
-526
-526
-526
-525
-525
-525
-525
-526
-525
-525
-525
-524
-525
-525
-524
-524
-525
-524
-524
-524
-524
-524
-524
-524
-524
-524
-524
-524
-525
-525
-524
-524
-524
-524
-523
-524
-524
-523
-524
-523
-523
-523
-523
-523
-523
-523
-523
-523
-523
-523
-523
-523
-522
-523
-523
-522
-522
-523
-522
-522
-523
-523
-522
-522
-523
-523
-523
-523
-522
-522
-522
-522
-522
-522
-522
-522
-522
-522
-521
-521
-521
-521
-520
-520
-520
-520
-520
-520
-520
-520
-520
-520
-520
-520
-520
-520
-520
-520
-519
-519
-519
-519
-519
-519
-520
-520
-520
-520
-520
-520
-520
-520
-520
-519
-519
-519
-519
-520
-520
-519
-519
-519
-519
-520
-520
-519
-519
-520
-519
-519
-520
-520
-520
-520
-520
-520
-520
-520
-519
-520
-519
-520
-519
-520
-519
-519
-518
-518
-517
-517
-517
-516
-515
-515
-515
-514
-514
-514
-514
-514
-513
-513
-513
-514
-514
-513
-513
-513
-514
-514
-515
-515
-514
-515
-515
-515
-515
-515
-515
-515
-515
-515
-515
-515
-515
-515
-515
-514
-514
-515
-515
-514
-514
-514
-514
-514
-514
-513
-514
-514
-514
-514
-514
-514
-514
-514
-514
-514
-514
-514
-513
-513
-512
-513
-512
-512
-512
-512
-512
-511
-511
-510
-510
-510
-510
-510
-510
-509
-509
-509
-509
-509
-509
-509
-509
-509
-509
-509
-508
-508
-508
-508
-508
-508
-508
-508
-508
-508
-509
-508
-508
-508
-508
-509
-509
-509
-508
-509
-509
-508
-509
-509
-508
-508
-508
-509
-509
-509
-509
-509
-508
-508
-509
-508
-508
-508
-508
-507
-507
-507
-507
-507
-506
-506
-506
-506
-506
-506
-505
-505
-505
-505
-504
-504
-504
-503
-503
-503
-503
-503
-503
-503
-503
-503
-503
-504
-504
-503
-503
-503
-503
-504
-504
-504
-503
-503
-503
-503
-503
-503
-503
-503
-502
-502
-502
-501
-501
-501
-500
-500
-500
-500
-500
-500
-500
-500
-500
-501
-501
-501
-501
-500
-500
-500
-500
-499
-500
-499
-499
-499
-498
-498
-498
-498
-497
-497
-497
-497
-497
-498
-498
-498
-497
-497
-497
-498
-498
-498
-497
-497
-497
-497
-497
-497
-497
-497
-497
-497
-497
-497
-496
-496
-497
-497
-496
-496
-496
-496
-496
-496
-496
-496
-496
-496
-496
-496
-495
-494
-494
-494
-494
-494
-495
-493
-493
-493
-492
-493
-493
-492
-493
-492
-492
-492
-492
-492
-491
-492
-492
-492
-492
-491
-491
-491
-491
-491
-491
-491
-491
-491
-491
-491
-491
-491
-491
-490
-490
-490
-490
-489
-488
-489
-488
-488
-488
-488
-488
-488
-487
-487
-488
-488
-487
-487
-487
-487
-486
-486
-486
-485
-485
-484
-484
-484
-484
-483
-482
-483
-482
-481
-480
-480
-480
-479
-478
-478
-477
-477
-477
-476
-475
-475
-475
-475
-474
-474
-473
-473
-472
-472
-472
-471
-471
-470
-470
-469
-469
-468
-467
-467
-466
-465
-465
-464
-463
-463
-462
-462
-461
-460
-460
-459
-459
-458
-458
-457
-457
-458
-457
-457
-457
-457
-457
-457
-458
-458
-458
-458
-459
-459
-459
-461
-461
-462
-462
-462
-463
-464
-464
-464
-465
-465
-465
-467
-467
-467
-467
-468
-468
-469
-469
-470
-470
-471
-471
-472
-472
-473
-473
-474
-474
-475
-475
-475
-477
-476
-476
-476
-477
-477
-477
-477
-477
-477
-477
-478
-478
-478
-478
-478
-478
-478
-478
-478
-478
-478
-478
-478
-478
-478
-478
-478
-478
-478
-478
-477
-477
-477
-477
-477
-477
-477
-477
-477
-477
-477
-477
-477
-476
-477
-477
-477
-476
-476
-476
-476
-475
-475
-475
-474
-473
-471
-470
-467
-465
-462
-458
-454
-449
-444
-439
-432
-424
-416
-406
-396
-385
-373
-361
-348
-334
-320
-306
-291
-276
-261
-246
-230
-216
-201
-186
-173
-162
-150
-142
-133
-127
-123
-120
-119
-119
-121
-127
-132
-140
-150
-162
-173
-188
-203
-219
-236
-255
-272
-292
-311
-330
-349
-368
-386
-403
-420
-436
-451
-464
-478
-489
-500
-509
-518
-525
-531
-535
-539
-542
-544
-544
-544
-542
-541
-538
-536
-532
-529
-525
-521
-517
-513
-509
-505
-502
-498
-495
-491
-488
-486
-483
-481
-479
-477
-474
-473
-472
-471
-470
-469
-468
-468
-466
-466
-466
-465
-465
-466
-466
-465
-465
-467
-466
-466
-466
-467
-467
-466
-467
-467
-466
-467
-467
-467
-467
-468
-467
-467
-467
-466
-466
-466
-466
-465
-465
-465
-465
-464
-464
-464
-464
-464
-463
-463
-463
-463
-463
-463
-463
-463
-463
-463
-463
-463
-463
-463
-462
-462
-462
-461
-461
-461
-460
-460
-459
-459
-459
-458
-458
-457
-456
-457
-456
-456
-455
-454
-454
-454
-454
-453
-453
-453
-453
-452
-452
-452
-452
-451
-451
-451
-451
-452
-452
-452
-452
-452
-452
-452
-452
-452
-452
-452
-451
-452
-452
-452
-452
-452
-452
-452
-452
-452
-451
-451
-451
-451
-449
-450
-449
-449
-449
-448
-448
-447
-447
-446
-446
-446
-446
-446
-445
-445
-445
-445
-445
-444
-444
-444
-444
-443
-442
-442
-442
-442
-441
-441
-441
-440
-440
-439
-439
-438
-437
-437
-436
-435
-435
-434
-434
-433
-433
-432
-431
-431
-431
-431
-431
-430
-430
-430
-430
-430
-430
-430
-429
-429
-427
-427
-426
-426
-426
-425
-424
-423
-422
-421
-420
-419
-418
-417
-416
-415
-414
-413
-412
-411
-411
-410
-409
-408
-407
-405
-405
-404
-403
-402
-401
-400
-398
-397
-397
-396
-394
-393
-393
-392
-391
-390
-390
-389
-388
-387
-386
-385
-384
-384
-383
-382
-382
-381
-379
-379
-378
-377
-376
-375
-374
-371
-370
-369
-368
-367
-366
-364
-363
-362
-361
-359
-358
-357
-356
-355
-355
-354
-353
-352
-352
-351
-350
-350
-349
-349
-348
-348
-347
-347
-346
-346
-346
-346
-346
-345
-345
-345
-345
-344
-344
-344
-343
-343
-343
-342
-342
-342
-342
-342
-342
-340
-340
-340
-340
-340
-340
-340
-340
-340
-339
-339
-340
-340
-340
-339
-341
-341
-342
-342
-343
-344
-345
-345
-347
-347
-348
-349
-350
-352
-352
-354
-354
-356
-356
-358
-359
-359
-361
-361
-363
-363
-365
-366
-367
-368
-369
-370
-372
-373
-374
-375
-376
-379
-380
-381
-383
-385
-386
-388
-389
-390
-391
-392
-393
-394
-396
-397
-398
-399
-400
-401
-402
-402
-404
-404
-405
-407
-407
-408
-409
-410
-412
-412
-414
-416
-416
-418
-420
-420
-421
-423
-424
-425
-426
-427
-428
-428
-429
-429
-430
-430
-430
-431
-430
-430
-430
-430
-431
-431
-431
-432
-432
-431
-431
-431
-432
-432
-433
-433
-434
-434
-434
-434
-436
-436
-436
-437
-437
-437
-437
-438
-438
-438
-438
-438
-438
-439
-439
-439
-439
-439
-439
-438
-439
-439
-439
-440
-439
-439
-439
-439
-439
-439
-439
-439
-439
-439
-439
-439
-438
-438
-438
-438
-438
-438
-437
-437
-438
-437
-437
-437
-437
-437
-437
-437
-437
-436
-436
-436
-436
-436
-437
-436
-437
-436
-437
-437
-437
-437
-437
-436
-437
-437
-437
-437
-437
-437
-436
-436
-436
-436
-436
-435
-436
-435
-435
-436
-435
-435
-435
-435
-435
-435
-435
-435
-435
-435
-435
-435
-435
-435
-435
-435
-434
-434
-434
-434
-434
-433
-433
-433
-433
-433
-433
-433
-433
-433
-433
-433
-433
-433
-433
-432
-432
-433
-433
-433
-433
-433
-434
-434
-434
-435
-435
-435
-435
-435
-436
-436
-437
-437
-437
-437
-436
-436
-436
-436
-436
-436
-436
-436
-436
-435
-436
-436
-435
-435
-435
-435
-435
-435
-435
-435
-435
-434
-434
-434
-434
-434
-434
-435
-435
-435
-435
-435
-435
-434
-435
-435
-434
-434
-434
-434
-434
-434
-433
-433
-434
-433
-433
-433
-433
-432
-433
-433
-433
-433
-433
-433
-433
-433
-433
-432
-432
-433
-433
-432
-432
-433
-433
-433
-434
-434
-433
-433
-433
-433
-434
-434
-435
-435
-435
-435
-435
-435
-435
-435
-435
-435
-434
-434
-435
-434
-434
-434
-433
-433
-434
-434
-433
-433
-433
-431
-431
-431
-431
-431
-432
-432
-431
-431
-432
-431
-431
-431
-431
-431
-431
-431
-431
-432
-431
-431
-431
-432
-432
-432
-432
-432
-432
-432
-433
-433
-432
-432
-432
-432
-432
-432
-432
-432
-431
-431
-431
-431
-430
-430
-430
-429
-430
-430
-430
-430
-430
-430
-429
-429
-429
-429
-429
-429
-429
-429
-429
-429
-430
-429
-429
-429
-429
-429
-429
-429
-428
-428
-428
-428
-428
-427
-427
-427
-427
-426
-427
-427
-427
-427
-426
-426
-426
-426
-426
-426
-426
-426
-426
-426
-426
-426
-426
-426
-426
-426
-426
-426
-426
-426
-426
-427
-427
-427
-427
-427
-427
-427
-426
-426
-426
-426
-426
-425
-425
-425
-425
-425
-424
-425
-425
-424
-424
-424
-423
-423
-423
-423
-423
-423
-423
-423
-423
-422
-422
-424
-424
-423
-423
-423
-424
-424
-424
-424
-424
-424
-425
-425
-425
-425
-425
-426
-426
-426
-425
-426
-426
-427
-427
-427
-428
-427
-427
-427
-427
-428
-428
-428
-428
-428
-428
-428
-428
-427
-427
-428
-428
-427
-427
-426
-426
-426
-426
-426
-426
-426
-426
-425
-425
-425
-425
-425
-425
-425
-424
-425
-425
-425
-425
-425
-424
-424
-424
-424
-423
-423
-423
-423
-423
-423
-423
-423
-423
-423
-422
-423
-423
-423
-423
-423
-423
-423
-423
-422
-422
-424
-424
-424
-424
-424
-425
-425
-425
-425
-425
-426
-426
-426
-426
-425
-425
-426
-426
-426
-426
-426
-425
-426
-426
-425
-425
-425
-425
-425
-425
-425
-425
-425
-425
-425
-425
-424
-424
-424
-425
-425
-425
-424
-424
-425
-425
-425
-426
-426
-426
-425
-426
-426
-426
-426
-426
-426
-426
-427
-427
-427
-427
-428
-427
-427
-428
-428
-427
-427
-427
-427
-428
-427
-427
-427
-427
-427
-427
-428
-428
-428
-428
-428
-428
-428
-427
-427
-427
-427
-427
-427
-426
-426
-426
-426
-426
-424
-424
-424
-424
-423
-423
-422
-422
-420
-420
-420
-420
-418
-418
-418
-418
-416
-416
-416
-416
-415
-415
-415
-414
-415
-414
-414
-414
-413
-413
-413
-412
-412
-412
-411
-411
-411
-410
-410
-409
-408
-408
-408
-407
-407
-406
-406
-406
-405
-405
-405
-404
-404
-404
-404
-404
-404
-404
-404
-404
-404
-405
-405
-405
-405
-405
-405
-406
-407
-407
-407
-407
-407
-409
-409
-409
-410
-411
-412
-412
-413
-413
-415
-415
-416
-416
-417
-417
-419
-419
-420
-421
-421
-422
-422
-422
-423
-424
-424
-425
-425
-426
-426
-427
-427
-427
-427
-427
-427
-428
-428
-428
-429
-428
-428
-428
-428
-429
-429
-429
-429
-429
-429
-429
-429
-429
-430
-429
-430
-430
-429
-430
-430
-430
-430
-431
-430
-430
-430
-431
-430
-430
-430
-430
-430
-430
-430
-430
-430
-430
-430
-430
-429
-429
-428
-427
-426
-425
-423
-422
-420
-418
-415
-411
-407
-403
-397
-391
-385
-376
-368
-359
-349
-338
-327
-314
-301
-288
-274
-259
-244
-229
-214
-198
-183
-168
-154
-139
-127
-114
-103
-93
-85
-78
-73
-69
-66
-66
-67
-70
-76
-82
-91
-101
-112
-125
-139
-155
-171
-189
-206
-225
-243
-262
-281
-300
-318
-336
-354
-370
-385
-399
-413
-426
-437
-447
-456
-464
-471
-476
-481
-484
-486
-487
-487
-487
-485
-483
-481
-478
-475
-470
-467
-463
-459
-456
-451
-448
-444
-440
-437
-434
-431
-429
-427
-425
-423
-421
-420
-419
-417
-417
-417
-417
-416
-416
-416
-415
-415
-416
-416
-416
-416
-416
-416
-416
-416
-416
-415
-415
-416
-415
-415
-414
-414
-414
-414
-413
-414
-413
-413
-414
-413
-413
-413
-412
-412
-412
-413
-412
-412
-412
-412
-412
-412
-412
-412
-411
-412
-412
-412
-412
-412
-411
-411
-411
-411
-411
-411
-410
-410
-409
-409
-409
-408
-408
-409
-408
-408
-407
-406
-407
-406
-405
-404
-405
-404
-404
-404
-403
-403
-403
-403
-402
-402
-401
-401
-401
-401
-401
-401
-401
-402
-401
-402
-402
-402
-402
-403
-403
-403
-403
-403
-403
-403
-403
-403
-402
-402
-402
-402
-400
-400
-400
-400
-399
-398
-398
-398
-397
-397
-397
-397
-397
-396
-396
-395
-395
-395
-396
-396
-396
-396
-396
-395
-395
-395
-395
-395
-395
-394
-394
-395
-394
-394
-393
-393
-393
-393
-392
-392
-392
-392
-392
-391
-391
-391
-391
-391
-391
-391
-390
-390
-390
-390
-389
-389
-389
-388
-387
-387
-387
-386
-385
-384
-384
-383
-383
-383
-382
-382
-382
-381
-380
-380
-380
-378
-378
-377
-377
-377
-376
-376
-375
-374
-374
-373
-373
-372
-371
-371
-370
-369
-368
-367
-367
-366
-364
-363
-362
-362
-361
-360
-358
-357
-356
-355
-354
-353
-352
-352
-350
-349
-349
-347
-346
-346
-345
-343
-343
-342
-340
-339
-339
-338
-337
-336
-334
-333
-332
-331
-330
-329
-328
-327
-326
-326
-324
-323
-322
-322
-321
-320
-319
-318
-317
-316
-316
-315
-314
-313
-312
-312
-310
-310
-309
-308
-307
-307
-306
-306
-305
-305
-303
-303
-303
-303
-302
-302
-302
-301
-301
-301
-301
-300
-301
-301
-301
-300
-300
-300
-300
-300
-300
-300
-300
-300
-300
-300
-301
-301
-301
-301
-302
-302
-303
-303
-303
-304
-304
-305
-306
-307
-308
-309
-309
-310
-312
-313
-314
-315
-317
-317
-318
-320
-320
-322
-323
-325
-325
-326
-328
-329
-330
-331
-333
-334
-335
-336
-338
-339
-340
-341
-344
-345
-346
-347
-348
-350
-351
-352
-353
-356
-357
-358
-359
-361
-362
-363
-365
-366
-367
-368
-370
-371
-372
-373
-375
-376
-376
-378
-379
-380
-382
-382
-384
-384
-386
-386
-388
-388
-389
-390
-391
-391
-392
-393
-393
-394
-395
-395
-396
-397
-397
-398
-398
-398
-399
-399
-399
-400
-400
-401
-401
-401
-402
-403
-403
-403
-403
-403
-403
-404
-404
-404
-405
-405
-404
-404
-404
-404
-404
-404
-404
-404
-404
-403
-403
-403
-403
-403
-403
-403
-403
-403
-403
-403
-403
-403
-403
-403
-405
-405
-405
-404
-404
-405
-405
-405
-405
-405
-405
-405
-405
-405
-404
-404
-404
-404
-404
-405
-405
-405
-405
-404
-404
-404
-404
-404
-404
-404
-404
-403
-403
-403
-403
-404
-404
-404
-404
-404
-405
-404
-404
-405
-405
-405
-405
-405
-406
-406
-406
-406
-406
-406
-407
-406
-406
-406
-406
-405
-406
-406
-406
-405
-405
-405
-405
-405
-405
-405
-405
-405
-405
-405
-405
-405
-405
-404
-405
-405
-405
-405
-406
-406
-406
-406
-407
-407
-407
-408
-408
-407
-407
-408
-408
-409
-408
-409
-409
-409
-409
-409
-409
-409
-409
-409
-409
-409
-409
-409
-409
-409
-409
-408
-408
-409
-408
-408
-408
-408
-408
-407
-408
-408
-408
-408
-407
-407
-407
-408
-408
-408
-408
-408
-408
-408
-408
-408
-408
-409
-409
-409
-409
-408
-408
-408
-409
-409
-409
-409
-410
-409
-409
-410
-410
-410
-410
-410
-410
-410
-410
-410
-410
-410
-411
-411
-411
-412
-412
-412
-412
-413
-413
-413
-413
-413
-413
-413
-413
-413
-413
-414
-413
-413
-413
-413
-413
-414
-414
-414
-413
-413
-413
-413
-413
-413
-414
-414
-414
-414
-413
-413
-413
-413
-414
-414
-414
-414
-414
-414
-414
-414
-414
-414
-415
-415
-414
-414
-415
-415
-415
-415
-416
-416
-415
-415
-415
-415
-416
-416
-416
-416
-416
-417
-417
-416
-417
-417
-416
-416
-417
-416
-417
-417
-416
-416
-416
-415
-416
-416
-416
-416
-415
-414
-415
-415
-415
-415
-414
-415
-415
-414
-414
-415
-415
-415
-415
-415
-415
-415
-414
-415
-415
-415
-415
-415
-416
-415
-415
-415
-416
-416
-415
-415
-415
-415
-415
-415
-416
-416
-416
-416
-416
-416
-416
-416
-416
-416
-416
-416
-416
-416
-416
-416
-417
-417
-417
-417
-417
-417
-417
-417
-417
-417
-416
-416
-416
-416
-416
-416
-416
-416
-416
-415
-415
-415
-416
-416
-416
-416
-416
-416
-416
-416
-416
-416
-416
-416
-417
-417
-417
-417
-417
-418
-418
-418
-418
-418
-418
-418
-419
-418
-419
-419
-420
-420
-420
-419
-419
-419
-419
-419
-419
-419
-418
-418
-418
-418
-418
-418
-417
-417
-416
-416
-416
-416
-416
-415
-415
-415
-416
-416
-415
-415
-415
-416
-416
-416
-416
-416
-416
-416
-416
-417
-417
-418
-418
-418
-418
-418
-418
-418
-418
-419
-418
-418
-418
-418
-418
-418
-418
-418
-418
-417
-418
-417
-417
-418
-418
-418
-418
-417
-417
-417
-417
-417
-417
-417
-417
-417
-417
-417
-418
-417
-417
-417
-417
-417
-417
-417
-417
-417
-417
-416
-416
-416
-417
-417
-417
-417
-416
-416
-416
-416
-416
-416
-416
-416
-416
-415
-416
-416
-416
-416
-415
-415
-416
-416
-416
-416
-415
-416
-416
-416
-416
-416
-416
-416
-416
-417
-416
-416
-416
-416
-416
-416
-416
-415
-415
-415
-415
-415
-415
-415
-415
-415
-415
-415
-415
-415
-415
-414
-414
-414
-414
-415
-415
-415
-415
-415
-415
-415
-415
-414
-414
-414
-415
-415
-414
-414
-414
-414
-414
-414
-414
-414
-415
-414
-414
-414
-415
-415
-414
-414
-414
-414
-414
-413
-413
-414
-412
-412
-412
-412
-412
-411
-412
-412
-410
-410
-410
-410
-410
-410
-410
-410
-409
-409
-409
-409
-409
-409
-408
-407
-407
-407
-407
-406
-406
-406
-406
-405
-405
-404
-404
-403
-403
-403
-403
-402
-402
-401
-401
-400
-400
-399
-399
-399
-398
-398
-397
-396
-396
-395
-395
-394
-394
-394
-393
-392
-393
-392
-392
-392
-392
-392
-391
-391
-391
-391
-391
-390
-391
-391
-391
-391
-391
-391
-390
-391
-390
-390
-390
-391
-390
-390
-391
-391
-391
-392
-392
-392
-393
-394
-394
-394
-395
-395
-396
-396
-397
-398
-398
-399
-399
-400
-400
-401
-401
-402
-402
-403
-403
-404
-404
-405
-405
-406
-406
-406
-407
-407
-407
-407
-407
-407
-407
-408
-408
-408
-408
-408
-408
-408
-408
-408
-408
-407
-407
-407
-408
-408
-407
-407
-408
-408
-408
-408
-408
-408
-408
-409
-409
-409
-409
-409
-408
-409
-408
-409
-409
-409
-409
-409
-408
-408
-408
-408
-407
-407
-406
-405
-404
-403
-401
-400
-397
-394
-391
-387
-382
-377
-371
-366
-359
-351
-342
-333
-323
-312
-300
-289
-276
-264
-250
-235
-222
-207
-193
-177
-162
-148
-133
-120
-106
-95
-84
-74
-65
-59
-53
-49
-46
-46
-48
-51
-56
-62
-70
-81
-93
-106
-121
-136
-153
-170
-187
-205
-225
-243
-262
-281
-299
-317
-334
-350
-365
-379
-393
-404
-415
-425
-434
-441
-447
-452
-455
-458
-460
-461
-459
-458
-456
-454
-450
-447
-443
-439
-435
-429
-425
-422
-418
-414
-411
-407
-405
-402
-399
-397
-395
-393
-392
-391
-390
-389
-389
-388
-388
-387
-388
-388
-388
-387
-387
-387
-387
-387
-387
-386
-387
-387
-386
-387
-386
-386
-386
-385
-386
-385
-385
-384
-384
-384
-384
-384
-384
-383
-382
-382
-383
-383
-382
-382
-382
-382
-382
-381
-381
-380
-380
-380
-380
-380
-378
-379
-377
-377
-377
-377
-377
-375
-375
-375
-375
-374
-374
-374
-374
-374
-374
-374
-375
-376
-376
-376
-376
-376
-375
-375
-376
-376
-376
-375
-374
-374
-374
-373
-373
-373
-372
-372
-372
-371
-371
-371
-370
-369
-369
-369
-369
-368
-368
-368
-368
-368
-368
-368
-367
-367
-367
-367
-367
-366
-366
-366
-366
-365
-364
-364
-363
-363
-363
-362
-363
-362
-362
-362
-362
-361
-361
-361
-360
-360
-360
-359
-359
-359
-359
-359
-358
-358
-358
-358
-357
-357
-357
-357
-357
-357
-355
-355
-355
-355
-354
-353
-353
-353
-352
-351
-350
-349
-349
-348
-348
-346
-346
-345
-345
-344
-344
-343
-343
-342
-342
-341
-341
-341
-340
-340
-339
-340
-340
-339
-338
-337
-337
-336
-335
-335
-334
-333
-332
-332
-331
-330
-330
-329
-328
-328
-326
-326
-325
-324
-324
-323
-323
-321
-321
-320
-320
-318
-318
-317
-316
-315
-314
-313
-311
-310
-310
-308
-307
-305
-305
-304
-303
-301
-300
-299
-298
-296
-295
-294
-293
-292
-291
-290
-289
-288
-286
-285
-284
-283
-282
-282
-281
-279
-278
-277
-276
-275
-273
-273
-272
-271
-271
-270
-269
-268
-267
-266
-266
-265
-264
-263
-263
-262
-261
-261
-260
-260
-259
-259
-258
-257
-257
-256
-255
-255
-254
-254
-253
-253
-252
-252
-252
-251
-251
-250
-250
-250
-250
-249
-249
-249
-249
-248
-248
-248
-248
-248
-248
-248
-248
-249
-249
-249
-249
-249
-249
-251
-251
-251
-252
-252
-252
-253
-254
-255
-255
-256
-256
-257
-258
-258
-260
-261
-261
-262
-264
-265
-265
-266
-267
-269
-270
-270
-272
-273
-274
-275
-276
-278
-279
-280
-282
-283
-284
-285
-287
-288
-290
-291
-292
-293
-295
-296
-297
-298
-299
-301
-302
-303
-304
-306
-306
-307
-308
-309
-310
-311
-312
-312
-314
-314
-315
-316
-317
-318
-319
-320
-320
-322
-323
-323
-325
-325
-326
-327
-327
-327
-329
-329
-329
-329
-330
-330
-332
-332
-332
-332
-332
-333
-333
-333
-333
-334
-334
-334
-334
-335
-336
-336
-336
-336
-336
-337
-337
-337
-337
-337
-337
-337
-338
-338
-338
-338
-338
-338
-338
-338
-338
-338
-338
-339
-339
-339
-339
-339
-340
-340
-340
-340
-339
-340
-340
-341
-341
-341
-340
-340
-341
-341
-341
-340
-340
-340
-340
-339
-340
-340
-340
-340
-339
-339
-339
-339
-338
-338
-338
-337
-338
-338
-338
-338
-338
-337
-337
-337
-337
-337
-337
-336
-336
-336
-336
-337
-336
-336
-336
-336
-335
-335
-336
-336
-336
-336
-335
-335
-336
-335
-335
-336
-335
-335
-335
-335
-335
-335
-335
-335
-335
-336
-335
-335
-335
-335
-335
-335
-335
-335
-335
-335
-335
-335
-335
-335
-335
-335
-335
-335
-335
-335
-335
-334
-334
-334
-335
-334
-334
-335
-335
-335
-335
-334
-334
-334
-334
-334
-334
-334
-334
-334
-334
-334
-335
-334
-334
-334
-334
-334
-334
-334
-334
-334
-334
-334
-334
-333
-333
-333
-333
-333
-332
-332
-332
-331
-331
-331
-331
-331
-331
-331
-331
-331
-331
-331
-330
-330
-330
-330
-330
-330
-330
-330
-330
-330
-331
-331
-331
-332
-331
-331
-331
-332
-332
-332
-332
-332
-331
-332
-332
-332
-332
-333
-333
-333
-332
-333
-333
-333
-332
-332
-332
-333
-333
-332
-332
-332
-332
-332
-332
-331
-331
-331
-331
-331
-331
-330
-331
-330
-330
-330
-330
-330
-330
-330
-330
-330
-330
-330
-331
-331
-331
-332
-332
-331
-331
-332
-332
-332
-332
-332
-332
-332
-331
-330
-330
-330
-330
-329
-329
-329
-329
-328
-328
-327
-327
-327
-327
-327
-327
-327
-327
-328
-327
-327
-327
-327
-329
-328
-328
-328
-328
-328
-328
-329
-329
-329
-328
-328
-328
-328
-327
-327
-328
-327
-327
-327
-326
-327
-327
-326
-326
-326
-326
-326
-325
-325
-325
-325
-325
-325
-325
-325
-324
-324
-324
-324
-324
-324
-324
-324
-324
-324
-324
-324
-324
-324
-324
-324
-324
-324
-325
-325
-324
-324
-324
-324
-324
-324
-324
-324
-324
-324
-324
-324
-323
-323
-323
-323
-322
-322
-322
-322
-322
-322
-322
-321
-321
-321
-320
-320
-321
-320
-320
-320
-320
-320
-320
-319
-319
-319
-319
-319
-319
-320
-320
-320
-319
-319
-319
-319
-319
-320
-319
-321
-321
-320
-320
-320
-320
-320
-320
-319
-319
-319
-319
-319
-319
-318
-318
-319
-319
-318
-318
-318
-318
-318
-317
-317
-317
-317
-317
-317
-317
-317
-316
-316
-316
-316
-316
-315
-315
-315
-315
-315
-315
-315
-315
-315
-315
-315
-314
-314
-315
-315
-314
-314
-314
-315
-315
-314
-314
-315
-314
-314
-314
-314
-314
-313
-313
-313
-313
-313
-313
-313
-313
-312
-312
-312
-312
-312
-312
-311
-310
-310
-310
-310
-311
-311
-311
-311
-311
-310
-311
-311
-311
-310
-310
-310
-310
-310
-310
-310
-310
-310
-310
-310
-310
-309
-309
-309
-309
-310
-310
-309
-309
-309
-309
-308
-308
-309
-309
-309
-308
-308
-308
-308
-307
-307
-307
-307
-308
-308
-308
-308
-308
-308
-308
-308
-307
-306
-306
-307
-307
-307
-307
-307
-307
-307
-307
-307
-307
-307
-307
-307
-307
-307
-306
-306
-306
-306
-306
-306
-305
-305
-305
-305
-305
-304
-304
-304
-304
-304
-304
-304
-304
-304
-304
-304
-303
-303
-304
-304
-304
-304
-304
-304
-305
-305
-305
-306
-305
-305
-305
-305
-304
-304
-304
-304
-304
-303
-303
-302
-302
-301
-302
-301
-300
-300
-299
-299
-299
-298
-298
-298
-297
-297
-297
-296
-295
-295
-294
-294
-293
-293
-293
-292
-292
-291
-290
-289
-289
-289
-288
-287
-287
-285
-286
-284
-284
-283
-283
-282
-281
-280
-280
-280
-280
-279
-279
-279
-279
-279
-279
-279
-279
-279
-279
-279
-279
-279
-279
-279
-279
-279
-279
-279
-280
-280
-280
-280
-280
-280
-281
-281
-281
-281
-281
-282
-282
-283
-283
-284
-284
-285
-286
-287
-287
-288
-288
-290
-290
-291
-291
-292
-293
-294
-295
-295
-296
-297
-297
-297
-298
-299
-299
-299
-300
-301
-301
-301
-301
-300
-301
-301
-301
-301
-301
-301
-302
-302
-302
-302
-302
-303
-303
-303
-303
-303
-303
-304
-304
-304
-304
-304
-304
-305
-305
-305
-305
-305
-305
-305
-305
-305
-304
-304
-304
-304
-304
-304
-303
-303
-303
-303
-302
-302
-302
-302
-301
-301
-300
-299
-299
-297
-296
-294
-291
-288
-285
-281
-276
-270
-264
-257
-249
-240
-231
-220
-209
-198
-185
-172
-158
-143
-129
-115
-99
-85
-70
-56
-42
-28
-15
-3
8
17
25
31
36
39
41
41
38
34
28
21
11
0
-13
-26
-41
-56
-73
-91
-109
-127
-147
-166
-185
-203
-221
-239
-255
-269
-284
-298
-310
-321
-332
-340
-348
-355
-360
-365
-369
-370
-372
-372
-371
-370
-368
-366
-363
-360
-356
-353
-348
-345
-341
-337
-333
-330
-326
-323
-319
-316
-313
-311
-308
-306
-304
-302
-301
-300
-299
-298
-297
-296
-296
-295
-295
-295
-295
-295
-295
-295
-294
-294
-295
-294
-294
-294
-294
-294
-294
-294
-294
-294
-293
-293
-293
-293
-293
-292
-292
-292
-292
-293
-292
-292
-292
-292
-291
-291
-291
-290
-290
-290
-289
-289
-288
-288
-287
-287
-287
-286
-286
-285
-285
-284
-285
-284
-284
-284
-284
-283
-283
-283
-283
-284
-284
-283
-283
-284
-284
-284
-284
-284
-284
-284
-284
-283
-283
-283
-283
-283
-283
-283
-282
-283
-283
-282
-283
-282
-282
-282
-282
-282
-281
-282
-281
-281
-281
-280
-280
-280
-280
-280
-279
-279
-279
-278
-278
-278
-278
-278
-277
-277
-277
-277
-277
-277
-276
-276
-276
-276
-275
-275
-275
-275
-275
-275
-274
-274
-274
-274
-273
-273
-273
-272
-272
-272
-272
-272
-270
-270
-270
-270
-270
-269
-269
-269
-269
-269
-268
-268
-268
-268
-267
-267
-267
-267
-267
-265
-265
-265
-264
-263
-263
-263
-263
-262
-261
-261
-260
-259
-258
-259
-258
-257
-257
-256
-256
-256
-256
-255
-255
-254
-253
-253
-253
-252
-251
-251
-251
-250
-250
-249
-249
-248
-247
-247
-247
-246
-246
-244
-244
-243
-242
-241
-241
-240
-240
-239
-238
-237
-237
-235
-235
-234
-233
-232
-232
-230
-230
-229
-228
-226
-226
-225
-224
-223
-222
-221
-220
-219
-218
-217
-216
-215
-214
-213
-212
-211
-210
-210
-209
-207
-206
-206
-205
-204
-203
-202
-201
-200
-199
-198
-197
-197
-196
-195
-195
-194
-193
-192
-192
-190
-190
-189
-188
-188
-187
-187
-186
-186
-185
-185
-185
-185
-184
-184
-184
-184
-184
-183
-183
-183
-183
-183
-182
-182
-182
-182
-182
-182
-181
-181
-181
-181
-181
-181
-181
-181
-181
-181
-181
-181
-182
-182
-182
-182
-182
-183
-184
-184
-186
-186
-187
-188
-189
-189
-191
-192
-194
-195
-196
-197
-198
-199
-200
-202
-203
-204
-205
-205
-207
-208
-210
-210
-211
-213
-214
-214
-216
-218
-219
-220
-221
-222
-223
-225
-226
-227
-228
-230
-231
-232
-234
-236
-237
-238
-240
-241
-242
-243
-245
-246
-247
-248
-249
-251
-252
-254
-254
-255
-257
-257
-258
-259
-260
-261
-261
-262
-264
-264
-265
-266
-267
-268
-268
-269
-270
-271
-272
-273
-273
-274
-275
-276
-276
-277
-277
-277
-278
-278
-278
-278
-278
-279
-278
-279
-278
-278
-278
-279
-278
-278
-278
-278
-278
-278
-278
-278
-278
-279
-279
-279
-279
-279
-280
-280
-280
-281
-281
-281
-282
-282
-282
-283
-283
-283
-283
-283
-283
-283
-283
-283
-283
-283
-283
-283
-283
-283
-283
-284
-284
-284
-284
-284
-284
-284
-285
-285
-285
-285
-286
-285
-285
-286
-286
-286
-287
-287
-286
-286
-286
-287
-286
-286
-286
-286
-286
-286
-286
-286
-286
-286
-286
-286
-286
-286
-285
-285
-286
-286
-286
-286
-286
-286
-286
-285
-285
-285
-285
-285
-285
-285
-286
-285
-285
-285
-285
-285
-285
-286
-286
-285
-285
-285
-286
-286
-286
-286
-286
-285
-285
-286
-286
-286
-286
-286
-285
-286
-286
-286
-286
-286
-286
-287
-287
-287
-287
-287
-287
-288
-288
-288
-288
-288
-289
-289
-289
-289
-290
-290
-290
-290
-291
-291
-292
-292
-292
-291
-291
-291
-292
-292
-292
-292
-292
-292
-292
-292
-292
-293
-293
-293
-294
-294
-294
-295
-294
-295
-296
-296
-297
-297
-297
-297
-297
-297
-297
-298
-298
-297
-297
-297
-298
-298
-298
-297
-298
-298
-297
-297
-296
-296
-296
-296
-297
-296
-296
-296
-296
-296
-295
-295
-296
-296
-296
-296
-295
-296
-296
-296
-297
-297
-297
-297
-297
-297
-297
-297
-297
-298
-298
-298
-298
-299
-299
-299
-299
-299
-299
-300
-300
-300
-300
-300
-299
-300
-300
-300
-300
-300
-300
-300
-300
-300
-300
-299
-299
-300
-300
-300
-299
-299
-299
-299
-299
-299
-299
-299
-299
-299
-299
-300
-299
-299
-299
-299
-299
-299
-299
-299
-299
-299
-299
-299
-299
-300
-300
-300
-301
-301
-300
-300
-301
-301
-301
-301
-301
-300
-300
-301
-301
-301
-301
-301
-301
-301
-301
-301
-301
-300
-300
-300
-300
-300
-300
-300
-300
-300
-300
-300
-300
-300
-300
-300
-300
-299
-299
-299
-299
-299
-299
-299
-299
-298
-298
-298
-299
-299
-298
-298
-298
-298
-298
-298
-298
-298
-298
-298
-298
-299
-299
-299
-299
-299
-299
-299
-299
-299
-299
-299
-299
-300
-300
-300
-300
-299
-299
-299
-299
-300
-300
-300
-299
-299
-299
-299
-298
-298
-298
-297
-297
-298
-297
-297
-297
-297
-297
-297
-298
-296
-296
-296
-296
-296
-297
-297
-297
-297
-297
-298
-297
-297
-297
-297
-297
-297
-297
-297
-297
-297
-297
-297
-296
-296
-296
-297
-297
-297
-296
-296
-297
-297
-296
-297
-297
-297
-297
-297
-296
-296
-296
-296
-296
-297
-297
-297
-298
-297
-298
-298
-298
-299
-298
-298
-298
-298
-298
-298
-297
-297
-297
-297
-296
-296
-297
-297
-295
-295
-295
-295
-295
-295
-295
-295
-295
-295
-295
-294
-294
-295
-295
-295
-296
-296
-296
-296
-295
-295
-296
-296
-296
-296
-295
-295
-295
-295
-295
-295
-295
-295
-295
-295
-295
-296
-296
-295
-295
-295
-295
-296
-296
-295
-295
-296
-296
-296
-296
-296
-296
-296
-295
-296
-296
-296
-295
-295
-295
-295
-295
-295
-295
-294
-295
-294
-294
-295
-295
-295
-295
-295
-294
-294
-294
-295
-295
-294
-294
-295
-294
-295
-295
-295
-295
-295
-294
-294
-294
-295
-294
-294
-293
-293
-294
-293
-292
-292
-292
-292
-291
-290
-291
-290
-290
-290
-290
-290
-290
-289
-289
-290
-289
-289
-288
-288
-288
-288
-287
-287
-287
-287
-287
-286
-287
-287
-285
-285
-285
-285
-285
-285
-285
-285
-285
-285
-285
-284
-284
-284
-283
-284
-284
-283
-283
-283
-283
-281
-281
-281
-281
-280
-279
-279
-279
-278
-278
-278
-277
-277
-276
-275
-275
-274
-274
-273
-273
-273
-272
-273
-272
-272
-272
-271
-271
-271
-271
-272
-272
-272
-272
-273
-272
-273
-273
-274
-274
-275
-275
-275
-275
-276
-276
-277
-277
-278
-278
-278
-277
-278
-279
-278
-280
-280
-280
-281
-281
-282
-282
-282
-284
-283
-285
-285
-286
-286
-287
-287
-288
-288
-289
-290
-290
-290
-291
-291
-291
-291
-292
-291
-291
-292
-292
-292
-293
-293
-294
-294
-294
-294
-296
-296
-296
-296
-296
-297
-297
-298
-298
-297
-297
-297
-297
-297
-297
-297
-297
-296
-296
-296
-295
-295
-294
-294
-294
-294
-293
-293
-293
-292
-292
-291
-291
-290
-289
-288
-286
-284
-282
-279
-275
-271
-266
-260
-255
-248
-240
-231
-221
-211
-199
-187
-174
-161
-147
-133
-118
-102
-87
-72
-58
-42
-28
-13
1
14
26
37
45
54
60
65
68
70
69
66
62
56
49
39
29
15
2
-13
-28
-46
-63
-81
-101
-120
-140
-159
-179
-198
-215
-232
-248
-264
-278
-291
-304
-315
-324
-333
-341
-347
-352
-357
-359
-361
-362
-362
-361
-360
-357
-355
-351
-348
-344
-341
-337
-333
-330
-325
-322
-318
-315
-313
-310
-308
-305
-303
-301
-300
-298
-297
-296
-296
-295
-295
-294
-294
-293
-293
-293
-293
-293
-293
-293
-293
-292
-292
-292
-293
-293
-292
-292
-292
-293
-292
-292
-292
-292
-292
-292
-292
-292
-291
-291
-291
-291
-291
-291
-291
-291
-292
-291
-291
-292
-292
-291
-291
-292
-292
-292
-293
-293
-293
-293
-293
-293
-294
-294
-294
-294
-294
-294
-294
-293
-293
-293
-293
-294
-294
-293
-292
-293
-293
-293
-293
-293
-292
-292
-293
-292
-292
-292
-292
-292
-291
-292
-291
-291
-291
-291
-290
-290
-290
-290
-289
-289
-289
-289
-289
-289
-288
-288
-288
-289
-288
-288
-288
-288
-288
-287
-287
-287
-287
-287
-287
-287
-287
-287
-287
-287
-286
-286
-286
-286
-286
-286
-286
-285
-285
-286
-286
-286
-285
-285
-285
-285
-284
-283
-283
-283
-283
-283
-283
-283
-282
-282
-281
-281
-281
-281
-281
-280
-280
-280
-280
-279
-279
-279
-279
-279
-279
-278
-278
-278
-278
-278
-278
-277
-276
-276
-275
-275
-275
-274
-273
-272
-272
-272
-271
-269
-269
-268
-268
-267
-267
-266
-266
-265
-265
-264
-264
-263
-263
-262
-262
-261
-260
-260
-259
-258
-257
-257
-256
-256
-255
-254
-253
-252
-252
-251
-250
-249
-247
-247
-246
-245
-244
-243
-243
-242
-241
-240
-238
-237
-236
-234
-234
-233
-232
-231
-230
-228
-228
-227
-226
-225
-223
-222
-221
-220
-219
-218
-217
-216
-215
-214
-213
-212
-211
-210
-209
-208
-207
-205
-205
-204
-203
-202
-202
-200
-199
-199
-198
-197
-197
-196
-195
-194
-193
-193
-192
-190
-190
-189
-188
-187
-186
-186
-185
-184
-184
-183
-183
-182
-182
-181
-180
-181
-180
-180
-180
-180
-181
-181
-181
-181
-181
-182
-182
-182
-183
-183
-183
-184
-184
-186
-186
-187
-187
-188
-188
-188
-189
-189
-191
-192
-192
-193
-194
-195
-195
-196
-198
-198
-199
-200
-202
-203
-204
-205
-206
-207
-208
-209
-210
-210
-212
-213
-214
-215
-216
-216
-218
-219
-220
-222
-223
-225
-226
-227
-229
-230
-232
-233
-234
-236
-237
-238
-240
-241
-242
-243
-245
-245
-246
-248
-249
-250
-251
-252
-253
-254
-255
-256
-257
-257
-258
-259
-260
-261
-262
-263
-264
-265
-265
-266
-266
-266
-268
-268
-269
-269
-269
-270
-270
-272
-272
-272
-272
-272
-273
-273
-273
-273
-273
-274
-274
-274
-274
-274
-273
-274
-275
-275
-275
-275
-275
-275
-275
-275
-275
-275
-275
-275
-275
-275
-275
-275
-275
-275
-275
-275
-275
-275
-275
-275
-275
-274
-275
-275
-275
-275
-274
-274
-275
-274
-274
-275
-275
-275
-275
-275
-275
-275
-275
-276
-276
-276
-277
-276
-276
-276
-276
-276
-276
-276
-276
-276
-276
-276
-276
-276
-276
-276
-275
-275
-275
-275
-275
-275
-275
-274
-274
-274
-274
-274
-274
-274
-274
-273
-274
-274
-274
-273
-273
-273
-273
-272
-272
-272
-272
-272
-272
-271
-271
-271
-271
-271
-271
-271
-270
-270
-271
-271
-271
-270
-270
-270
-270
-270
-270
-269
-269
-269
-268
-268
-268
-268
-268
-268
-267
-267
-267
-267
-267
-267
-267
-267
-267
-267
-267
-267
-267
-266
-266
-267
-267
-267
-267
-267
-267
-267
-266
-267
-266
-266
-266
-266
-266
-266
-266
-266
-265
-265
-266
-266
-266
-266
-266
-266
-266
-266
-266
-266
-266
-266
-267
-266
-266
-266
-267
-267
-267
-267
-267
-267
-267
-267
-268
-268
-268
-268
-269
-269
-269
-269
-269
-269
-269
-269
-269
-270
-270
-270
-270
-270
-270
-270
-270
-270
-270
-270
-271
-270
-270
-270
-271
-271
-271
-270
-270
-270
-271
-271
-271
-271
-271
-271
-271
-270
-270
-270
-270
-270
-269
-269
-269
-269
-269
-269
-269
-268
-268
-268
-268
-269
-269
-268
-269
-269
-269
-269
-269
-269
-269
-269
-269
-269
-269
-270
-270
-269
-269
-269
-270
-269
-269
-268
-268
-268
-268
-268
-268
-268
-267
-267
-267
-267
-267
-267
-266
-266
-265
-265
-265
-265
-265
-264
-264
-264
-264
-264
-264
-263
-263
-263
-263
-262
-262
-262
-263
-263
-262
-262
-262
-262
-263
-263
-263
-263
-264
-263
-263
-263
-264
-264
-264
-265
-265
-265
-265
-266
-265
-265
-265
-265
-265
-265
-265
-265
-265
-265
-265
-264
-264
-264
-264
-265
-264
-264
-264
-264
-264
-264
-264
-264
-263
-264
-264
-263
-263
-264
-264
-263
-263
-263
-263
-263
-263
-263
-263
-262
-262
-262
-262
-262
-263
-263
-263
-263
-263
-263
-263
-262
-262
-262
-262
-263
-262
-262
-262
-263
-263
-263
-263
-262
-262
-262
-262
-262
-262
-261
-261
-261
-261
-261
-260
-260
-260
-260
-260
-259
-259
-259
-259
-259
-259
-259
-259
-259
-259
-259
-259
-259
-259
-259
-258
-257
-257
-257
-257
-257
-257
-256
-256
-256
-256
-256
-256
-256
-256
-256
-255
-256
-256
-256
-256
-257
-258
-257
-258
-258
-258
-258
-259
-258
-258
-258
-259
-259
-258
-258
-258
-258
-257
-258
