# Simple Text Format
# Sampling Rate (Hz):= 1200.00
# Resolution:= 12
# Labels:= ECG	 V5
# Age:=	80
# Gender:=	Feminino
12
13
14
16
16
16
17
18
20
21
22
23
24
25
27
28
30
31
32
34
35
37
39
40
41
42
43
44
46
48
49
50
51
52
54
57
58
60
61
62
64
66
67
70
70
71
72
73
75
77
79
80
80
82
83
85
86
86
87
87
88
89
91
91
92
92
93
93
95
97
97
98
99
99
101
102
103
104
104
105
105
105
107
107
107
106
105
106
105
105
104
102
101
100
99
98
96
95
92
90
89
87
86
84
82
79
76
74
73
71
69
66
64
62
60
58
57
54
52
49
47
46
44
42
39
37
35
32
31
30
28
24
21
19
16
15
13
10
8
5
2
1
-1
-2
-5
-7
-8
-9
-11
-11
-12
-13
-13
-14
-13
-14
-13
-13
-13
-15
-14
-14
-13
-14
-14
-14
-15
-15
-15
-15
-15
-16
-16
-17
-17
-17
-18
-19
-19
-21
-21
-20
-21
-22
-23
-25
-25
-25
-25
-26
-27
-26
-28
-27
-28
-27
-28
-28
-29
-29
-30
-29
-29
-29
-29
-29
-30
-29
-29
-29
-29
-29
-29
-29
-30
-29
-29
-30
-29
-28
-28
-29
-28
-28
-28
-27
-27
-26
-26
-27
-26
-25
-25
-26
-26
-25
-25
-25
-25
-27
-27
-27
-27
-28
-29
-30
-31
-31
-32
-31
-33
-33
-35
-34
-34
-33
-32
-32
-32
-32
-31
-30
-30
-29
-29
-28
-28
-27
-27
-26
-26
-26
-27
-27
-27
-27
-27
-28
-29
-30
-31
-30
-31
-32
-32
-33
-34
-34
-33
-33
-33
-33
-33
-32
-32
-31
-31
-30
-30
-30
-30
-30
-29
-29
-29
-29
-29
-29
-29
-28
-29
-30
-30
-29
-29
-29
-29
-29
-29
-30
-30
-29
-29
-28
-29
-29
-29
-29
-29
-29
-29
-30
-30
-30
-31
-30
-31
-32
-32
-33
-33
-32
-32
-32
-32
-32
-33
-33
-32
-32
-32
-32
-32
-32
-32
-31
-30
-30
-30
-31
-30
-29
-28
-28
-28
-28
-28
-28
-27
-26
-26
-27
-28
-27
-26
-26
-26
-26
-26
-27
-26
-26
-25
-25
-26
-26
-26
-27
-26
-26
-26
-27
-27
-27
-27
-27
-26
-26
-27
-28
-28
-27
-26
-27
-27
-29
-28
-29
-29
-29
-28
-30
-30
-30
-30
-31
-30
-32
-32
-33
-33
-33
-33
-32
-33
-33
-33
-34
-33
-33
-33
-33
-33
-33
-32
-31
-31
-31
-31
-31
-30
-30
-30
-30
-30
-30
-31
-31
-30
-29
-29
-30
-31
-31
-31
-30
-30
-30
-30
-31
-30
-30
-30
-29
-30
-30
-30
-30
-29
-29
-28
-28
-28
-28
-28
-27
-26
-26
-27
-28
-27
-27
-27
-26
-27
-28
-28
-28
-27
-26
-26
-27
-27
-27
-26
-25
-24
-25
-25
-25
-25
-23
-23
-22
-23
-23
-22
-22
-22
-20
-21
-20
-20
-20
-19
-17
-17
-16
-17
-17
-17
-15
-14
-14
-14
-14
-14
-14
-13
-13
-13
-13
-13
-13
-13
-13
-13
-14
-14
-14
-14
-14
-13
-13
-13
-14
-14
-13
-13
-13
-13
-14
-14
-14
-15
-14
-14
-15
-15
-15
-16
-16
-16
-16
-17
-19
-19
-20
-21
-21
-22
-23
-25
-25
-25
-25
-26
-26
-27
-29
-29
-29
-29
-30
-30
-30
-31
-31
-31
-31
-31
-33
-33
-34
-34
-34
-34
-35
-35
-37
-37
-37
-38
-38
-38
-39
-40
-40
-39
-39
-39
-40
-40
-39
-38
-38
-37
-36
-37
-37
-37
-36
-35
-35
-35
-36
-36
-36
-36
-35
-36
-36
-37
-37
-38
-37
-37
-38
-38
-38
-37
-37
-37
-37
-37
-37
-38
-37
-36
-36
-36
-36
-36
-37
-36
-36
-36
-36
-37
-37
-37
-37
-37
-37
-37
-38
-39
-38
-38
-37
-38
-38
-38
-39
-38
-38
-38
-38
-39
-39
-38
-38
-37
-38
-38
-39
-38
-38
-37
-37
-37
-38
-37
-37
-37
-36
-35
-36
-36
-36
-36
-35
-34
-33
-33
-33
-33
-33
-32
-33
-33
-34
-35
-35
-34
-35
-35
-36
-37
-38
-38
-37
-36
-35
-34
-31
-28
-26
-20
-15
-8
-1
8
19
30
44
58
73
88
104
123
141
160
179
197
215
233
249
265
280
293
303
313
321
327
333
335
334
331
328
320
312
302
289
275
259
243
226
207
187
167
146
124
103
82
62
43
23
4
-14
-29
-44
-58
-70
-82
-91
-100
-106
-111
-115
-118
-119
-120
-118
-116
-113
-109
-106
-102
-97
-92
-86
-82
-77
-73
-69
-65
-61
-57
-54
-51
-49
-48
-45
-43
-40
-40
-40
-39
-39
-38
-36
-35
-35
-36
-36
-36
-36
-36
-36
-35
-36
-36
-36
-36
-35
-35
-35
-36
-37
-36
-36
-35
-35
-36
-36
-37
-36
-36
-35
-36
-36
-36
-36
-36
-35
-35
-36
-36
-37
-36
-36
-35
-36
-36
-36
-37
-37
-35
-36
-35
-35
-35
-35
-34
-34
-33
-34
-34
-34
-34
-33
-33
-33
-33
-33
-33
-33
-32
-31
-32
-32
-32
-32
-32
-31
-30
-31
-31
-31
-31
-30
-29
-29
-30
-30
-30
-29
-29
-29
-28
-29
-29
-29
-28
-29
-28
-28
-28
-28
-28
-28
-28
-27
-26
-28
-27
-26
-26
-25
-26
-26
-27
-26
-25
-25
-26
-25
-26
-26
-26
-26
-26
-25
-26
-26
-26
-26
-25
-24
-25
-25
-26
-25
-25
-24
-23
-24
-23
-24
-23
-22
-22
-21
-22
-22
-21
-21
-20
-19
-18
-19
-18
-18
-18
-16
-16
-16
-17
-17
-16
-16
-15
-14
-15
-15
-15
-14
-14
-14
-14
-14
-14
-13
-13
-11
-11
-10
-10
-9
-8
-7
-5
-5
-4
-4
-4
-3
-1
0
0
0
1
1
2
4
4
4
5
4
5
6
7
7
7
8
8
9
10
11
11
12
12
13
15
15
16
17
18
19
20
22
23
24
25
26
27
29
31
32
33
35
36
37
39
42
43
45
46
47
49
50
53
54
55
56
58
60
62
64
65
66
67
68
69
72
73
74
75
76
78
79
81
81
81
82
82
84
85
85
86
86
87
89
90
90
91
92
92
93
93
93
94
94
94
94
95
94
95
95
94
94
93
93
93
92
92
90
90
88
87
86
85
84
83
81
80
78
77
76
74
72
70
68
66
64
62
59
57
55
53
52
50
47
44
42
39
38
35
33
31
28
27
25
23
20
19
17
14
12
10
9
7
6
3
2
-1
-1
-3
-4
-6
-9
-10
-12
-12
-13
-15
-17
-18
-18
-18
-20
-21
-21
-22
-23
-24
-24
-24
-25
-25
-25
-26
-26
-26
-26
-26
-27
-28
-29
-28
-28
-29
-29
-30
-31
-31
-31
-31
-31
-31
-32
-32
-32
-32
-32
-32
-32
-33
-33
-32
-32
-32
-32
-33
-33
-34
-33
-33
-33
-34
-34
-35
-34
-34
-33
-34
-34
-34
-35
-34
-34
-34
-34
-34
-35
-35
-35
-35
-35
-35
-35
-36
-35
-35
-35
-36
-37
-37
-37
-37
-37
-38
-38
-39
-39
-39
-40
-39
-39
-39
-40
-40
-40
-39
-39
-39
-40
-39
-39
-40
-38
-38
-37
-38
-38
-38
-37
-37
-37
-37
-37
-38
-37
-37
-36
-37
-37
-38
-38
-38
-37
-38
-37
-38
-38
-39
-38
-38
-37
-37
-38
-37
-37
-36
-36
-36
-36
-36
-36
-36
-34
-35
-34
-35
-36
-35
-35
-34
-35
-35
-35
-36
-35
-35
-35
-34
-35
-35
-35
-35
-34
-34
-34
-35
-35
-35
-35
-35
-35
-36
-35
-36
-35
-35
-35
-35
-35
-36
-36
-36
-35
-36
-36
-36
-37
-36
-36
-36
-35
-36
-37
-37
-37
-35
-35
-35
-35
-35
-35
-35
-35
-34
-33
-33
-33
-33
-34
-32
-32
-33
-33
-33
-33
-32
-32
-32
-33
-33
-34
-34
-34
-34
-34
-34
-34
-34
-34
-33
-33
-35
-35
-35
-35
-34
-34
-34
-34
-34
-34
-34
-34
-33
-34
-34
-34
-34
-34
-34
-34
-34
-35
-36
-35
-35
-35
-36
-36
-37
-37
-37
-37
-37
-38
-38
-38
-38
-38
-38
-39
-39
-39
-40
-39
-39
-39
-39
-38
-39
-39
-39
-38
-38
-39
-39
-39
-39
-39
-38
-37
-37
-37
-37
-37
-37
-35
-36
-36
-36
-37
-37
-36
-37
-36
-38
-38
-38
-38
-38
-38
-40
-40
-41
-40
-40
-40
-40
-40
-41
-40
-40
-39
-39
-38
-38
-39
-38
-38
-37
-36
-36
-37
-37
-37
-36
-36
-36
-36
-36
-36
-36
-34
-35
-34
-35
-35
-34
-33
-32
-32
-32
-32
-31
-31
-30
-29
-29
-29
-30
-29
-29
-28
-28
-28
-28
-30
-29
-29
-28
-28
-28
-29
-30
-29
-29
-28
-28
-28
-28
-28
-28
-26
-26
-26
-26
-25
-25
-25
-25
-24
-24
-24
-25
-25
-24
-23
-24
-24
-24
-24
-23
-23
-23
-23
-24
-25
-25
-25
-24
-24
-24
-24
-24
-24
-24
-23
-23
-22
-24
-23
-23
-22
-21
-20
-20
-21
-21
-19
-19
-19
-19
-20
-20
-20
-19
-19
-20
-21
-23
-23
-23
-24
-24
-26
-27
-28
-29
-30
-31
-31
-32
-33
-34
-34
-35
-34
-35
-37
-37
-38
-38
-38
-38
-38
-40
-40
-40
-40
-40
-40
-40
-41
-41
-42
-41
-41
-42
-43
-43
-44
-43
-43
-43
-43
-44
-44
-45
-44
-44
-43
-44
-44
-44
-43
-42
-41
-41
-41
-40
-41
-40
-40
-40
-39
-40
-40
-41
-40
-40
-40
-40
-42
-42
-42
-42
-42
-42
-42
-44
-44
-43
-43
-42
-43
-44
-43
-43
-43
-41
-41
-42
-42
-42
-41
-40
-40
-40
-40
-40
-40
-39
-39
-38
-38
-39
-39
-39
-39
-39
-39
-38
-38
-39
-38
-38
-38
-37
-38
-38
-38
-37
-36
-36
-36
-37
-38
-38
-37
-37
-36
-36
-37
-36
-36
-36
-35
-35
-35
-36
-35
-36
-36
-36
-36
-36
-38
-37
-38
-38
-38
-40
-39
-40
-38
-37
-35
-32
-30
-26
-22
-16
-8
1
10
21
32
45
60
75
92
109
127
144
164
183
201
220
236
252
267
281
294
306
314
322
326
329
332
330
328
323
315
307
296
285
272
257
241
223
205
187
168
148
128
109
89
70
53
35
19
4
-12
-25
-36
-47
-57
-65
-73
-79
-84
-87
-89
-90
-90
-90
-89
-87
-84
-81
-78
-76
-72
-69
-65
-61
-57
-55
-52
-50
-47
-45
-42
-39
-38
-36
-35
-33
-32
-31
-30
-30
-30
-29
-29
-29
-28
-27
-28
-28
-28
-28
-28
-29
-29
-29
-30
-30
-30
-29
-29
-30
-30
-30
-30
-30
-30
-30
-30
-31
-31
-31
-30
-31
-31
-31
-32
-32
-32
-32
-32
-33
-33
-33
-33
-33
-33
-33
-33
-32
-32
-32
-31
-30
-30
-30
-30
-29
-28
-27
-26
-26
-25
-26
-25
-23
-23
-23
-24
-25
-24
-24
-24
-24
-25
-26
-26
-26
-26
-26
-26
-26
-26
-26
-25
-25
-25
-25
-25
-24
-24
-24
-23
-23
-22
-23
-23
-23
-23
-22
-22
-22
-23
-23
-23
-22
-22
-21
-21
-22
-22
-20
-20
-19
-18
-19
-19
-18
-18
-17
-18
-17
-17
-18
-17
-16
-16
-15
-16
-16
-17
-16
-15
-16
-15
-16
-16
-16
-15
-15
-15
-15
-16
-16
-15
-15
-15
-15
-16
-16
-16
-15
-15
-14
-14
-14
-14
-14
-12
-12
-11
-11
-11
-10
-9
-9
-7
-6
-6
-6
-5
-4
-3
-2
-2
-2
-2
-1
0
0
1
1
1
1
1
2
3
3
3
3
4
5
6
5
6
6
5
6
7
8
9
9
9
10
12
13
14
15
15
16
16
18
19
20
21
22
23
24
25
27
28
29
29
30
32
33
35
35
37
37
39
40
42
43
44
46
47
49
51
52
54
54
56
57
59
60
62
63
65
66
66
69
71
72
73
73
74
76
77
78
80
81
81
83
85
86
88
88
89
90
91
92
93
95
96
96
97
98
99
101
101
101
101
103
104
105
106
106
107
107
107
107
108
108
108
107
106
106
106
105
105
103
101
100
99
98
97
95
93
90
87
86
84
82
80
77
75
73
72
70
67
66
63
61
59
57
56
53
51
48
46
45
43
41
38
36
33
31
28
27
25
22
19
17
15
13
11
10
8
5
4
4
3
2
0
-1
-3
-3
-4
-4
-6
-6
-8
-9
-8
-8
-9
-10
-12
-13
-14
-15
-15
-16
-17
-18
-20
-20
-20
-19
-20
-22
-22
-23
-23
-21
-21
-22
-22
-22
-22
-22
-22
-21
-22
-22
-23
-23
-23
-23
-23
-23
-23
-24
-24
-23
-23
-23
-24
-24
-24
-24
-24
-24
-24
-24
-25
-25
-25
-26
-26
-27
-28
-29
-29
-28
-29
-29
-30
-31
-31
-31
-31
-30
-31
-32
-31
-32
-31
-32
-31
-31
-30
-30
-30
-29
-28
-28
-28
-28
-28
-28
-27
-27
-27
-27
-27
-27
-26
-27
-26
-28
-28
-28
-29
-29
-30
-31
-31
-32
-33
-33
-34
-33
-34
-35
-35
-36
-36
-35
-35
-35
-35
-35
-34
-34
-33
-33
-33
-34
-33
-32
-32
-31
-31
-31
-32
-32
-31
-31
-30
-31
-31
-31
-31
-30
-30
-30
-30
-31
-31
-31
-31
-31
-32
-33
-34
-34
-34
-34
-34
-35
-36
-37
-37
-36
-37
-37
-37
-37
-37
-37
-36
-37
-36
-36
-37
-36
-36
-34
-34
-34
-34
-34
-34
-34
-33
-33
-34
-34
-34
-34
-34
-34
-35
-35
-35
-35
-35
-34
-34
-34
-35
-34
-33
-33
-32
-32
-31
-33
-32
-31
-31
-31
-32
-33
-34
-34
-34
-34
-35
-37
-37
-38
-39
-38
-39
-39
-39
-40
-40
-40
-38
-38
-38
-38
-38
-38
-36
-35
-35
-35
-35
-34
-33
-32
-32
-32
-32
-32
-32
-31
-32
-31
-31
-30
-30
-30
-30
-31
-31
-30
-31
-32
-32
-32
-33
-34
-35
-35
-37
-37
-37
-38
-39
-39
-40
-40
-40
-39
-39
-39
-40
-40
-39
-38
-37
-37
-37
-36
-36
-36
-34
-34
-34
-34
-35
-35
-35
-35
-35
-35
-37
-37
-37
-36
-37
-37
-37
-38
-38
-37
-36
-36
-36
-36
-37
-36
-35
-34
-33
-33
-33
-32
-32
-30
-30
-29
-29
-29
-28
-28
-27
-27
-27
-27
-27
-27
-26
-26
-26
-26
-26
-26
-26
-24
-24
-24
-24
-25
-24
-24
-23
-22
-22
-23
-22
-22
-22
-21
-21
-21
-21
-21
-21
-21
-21
-21
-21
-21
-21
-21
-21
-21
-21
-23
-22
-22
-22
-21
-21
-21
-22
-21
-20
-21
-19
-19
-20
-20
-20
-19
-19
-20
-19
-20
-21
-21
-21
-22
-23
-23
-24
-26
-26
-26
-27
-28
-29
-31
-31
-32
-32
-32
-33
-34
-35
-35
-35
-35
-35
-36
-37
-38
-38
-37
-38
-38
-39
-41
-41
-41
-41
-41
-42
-43
-44
-44
-44
-45
-45
-45
-47
-47
-46
-46
-45
-45
-46
-46
-45
-44
-44
-43
-43
-43
-43
-42
-42
-40
-41
-42
-42
-42
-41
-41
-40
-41
-41
-42
-42
-42
-42
-42
-43
-43
-44
-44
-44
-44
-44
-45
-45
-45
-45
-44
-45
-45
-46
-47
-46
-46
-46
-46
-46
-47
-48
-47
-47
-47
-47
-47
-47
-47
-45
-46
-44
-45
-45
-44
-44
-42
-42
-41
-40
-40
-40
-41
-39
-39
-38
-39
-40
-40
-40
-39
-38
-38
-39
-40
-39
-38
-38
-39
-39
-39
-39
-40
-39
-38
-38
-38
-39
-40
-39
-40
-39
-40
-40
-41
-42
-42
-41
-43
-43
-44
-46
-46
-45
-45
-44
-43
-43
-41
-36
-33
-29
-23
-17
-10
-1
9
20
32
46
59
75
92
109
127
146
164
184
202
221
240
257
272
286
299
310
321
329
335
338
339
339
336
331
325
316
305
292
277
262
246
228
208
187
167
145
124
102
80
59
39
19
1
-16
-32
-48
-63
-76
-87
-97
-104
-111
-117
-121
-123
-124
-123
-122
-120
-117
-114
-111
-106
-101
-96
-92
-88
-83
-78
-74
-69
-65
-61
-58
-56
-54
-50
-48
-46
-45
-43
-43
-42
-39
-39
-39
-38
-38
-38
-38
-37
-38
-38
-39
-39
-39
-38
-38
-38
-39
-39
-40
-39
-39
-39
-39
-39
-39
-39
-39
-37
-37
-37
-37
-37
-37
-37
-36
-36
-36
-37
-36
-37
-35
-35
-35
-36
-36
-35
-35
-36
-35
-35
-35
-35
-35
-35
-35
-35
-35
-34
-35
-34
-35
-35
-35
-35
-35
-35
-35
-35
-35
-35
-35
-35
-35
-35
-35
-35
-35
-35
-35
-35
-35
-35
-36
-35
-35
-35
-35
-35
-35
-35
-34
-34
-34
-33
-33
-33
-32
-32
-33
-32
-31
-30
-30
-30
-30
-30
-30
-29
-28
-29
-29
-30
-29
-29
-29
-28
-29
-29
-30
-28
-28
-28
-28
-28
-28
-27
-27
-26
-26
-25
-25
-25
-24
-24
-23
-23
-23
-23
-24
-24
-24
-23
-24
-24
-26
-26
-25
-25
-25
-25
-27
-26
-27
-26
-25
-25
-25
-25
-25
-24
-23
-22
-21
-21
-20
-19
-18
-16
-15
-15
-15
-14
-13
-13
-13
-12
-12
-12
-12
-11
-11
-11
-11
-11
-11
-10
-10
-9
-9
-8
-9
-8
-8
-7
-5
-4
-3
-2
-1
0
1
3
4
4
5
6
8
9
11
11
13
12
15
16
17
18
19
19
20
21
22
24
25
25
26
27
29
30
31
33
33
34
35
38
38
40
41
42
44
45
46
48
50
51
53
55
57
59
61
62
63
64
66
68
70
71
72
72
74
74
76
77
78
78
78
79
80
82
83
83
84
84
85
86
88
89
89
90
90
91
93
93
94
94
94
95
95
96
96
97
97
96
96
96
96
96
95
95
93
92
92
91
90
88
86
85
83
83
81
79
76
74
72
71
68
67
64
61
59
57
54
53
50
47
44
42
39
38
35
33
30
27
25
23
21
19
16
13
11
9
7
6
4
2
-1
-3
-4
-6
-7
-9
-11
-12
-14
-15
-16
-17
-17
-19
-20
-21
-21
-21
-22
-23
-23
-23
-24
-24
-24
-25
-26
-25
-26
-25
-26
-26
-28
-29
-29
-29
-29
-30
-31
-31
-32
-32
-33
-33
-33
-34
-34
-35
-35
-34
-35
-35
-35
-36
-36
-36
-35
-35
-36
-36
-36
-37
-36
-37
-37
-37
-38
-38
-38
-38
-38
-38
-38
-39
-39
-40
-39
-39
-40
-41
-41
-41
-41
-41
-41
-42
-42
-43
-42
-42
-42
-42
-42
-43
-43
-42
-42
-42
-42
-42
-42
-42
-41
-41
-41
-42
-42
-42
-42
-41
-40
-40
-40
-41
-42
-41
-41
-40
-41
-41
-41
-42
-40
-40
-41
-40
-41
-41
-41
-40
-40
-39
-40
-40
-39
-40
-39
-38
-39
-39
-40
-40
-39
-39
-39
-40
-41
-41
-40
-40
-39
-40
-41
-41
-41
-41
-40
-40
-40
-40
-41
-40
-40
-39
-40
-39
-39
-40
-39
-39
-39
-38
-38
-38
-38
-38
-37
-37
-36
-37
-37
-36
-36
-36
-35
-35
-35
-36
-35
-34
-33
-33
-33
-34
-34
-35
-34
-35
-34
-35
-36
-36
-35
-35
-36
-37
-37
-38
-37
-37
-37
-37
-37
-38
-37
-38
-36
-37
-36
-37
-37
-37
-36
-35
-35
-35
-35
-36
-35
-35
-34
-34
-35
-35
-35
-34
-34
-34
-35
-35
-36
-35
-35
-35
-35
-35
-36
-36
-36
-36
-36
-36
-37
-37
-37
-38
-37
-37
-38
-38
-39
-40
-40
-39
-40
-40
-40
-40
-40
-40
-39
-39
-39
-40
-39
-39
-38
-38
-38
-38
-38
-39
-38
-37
-37
-38
-38
-39
-39
-38
-38
-38
-38
-39
-39
-39
-39
-39
-39
-40
-40
-39
-39
-39
-38
-38
-39
-40
-39
-39
-39
-39
-39
-41
-41
-40
-40
-40
-40
-40
-41
-40
-40
-40
-40
-40
-40
-41
-40
-39
-40
-39
-39
-40
-39
-39
-38
-38
-38
-39
-39
-39
-37
-37
-36
-37
-37
-37
-36
-36
-35
-35
-35
-35
-35
-34
-34
-33
-33
-34
-33
-33
-32
-31
-31
-32
-32
-32
-31
-31
-30
-30
-30
-30
-30
-29
-29
-29
-29
-28
-28
-28
-27
-27
-26
-27
-26
-25
-25
-24
-23
-22
-23
-23
-23
-22
-21
-22
-21
-22
-23
-22
-21
-22
-21
-21
-22
-22
-22
-22
-22
-22
-22
-24
-23
-23
-22
-23
-22
-23
-23
-23
-22
-22
-23
-22
-24
-24
-23
-23
-24
-24
-24
-24
-26
-26
-26
-27
-27
-27
-28
-29
-29
-29
-30
-31
-31
-32
-33
-33
-34
-34
-36
-36
-38
-37
-38
-38
-39
-40
-41
-41
-41
-41
-41
-41
-42
-42
-42
-42
-42
-42
-42
-42
-42
-42
-41
-41
-41
-41
-42
-42
-41
-41
-42
-42
-42
-43
-43
-43
-43
-43
-44
-45
-45
-44
-44
-44
-44
-44
-45
-45
-45
-44
-44
-44
-45
-45
-45
-45
-44
-44
-44
-46
-46
-45
-46
-46
-47
-47
-47
-48
-48
-48
-47
-47
-48
-47
-47
-47
-46
-46
-47
-47
-46
-45
-45
-45
-45
-44
-45
-44
-43
-43
-43
-44
-44
-44
-43
-43
-42
-43
-43
-44
-44
-43
-43
-43
-43
-43
-43
-43
-42
-41
-42
-42
-42
-41
-41
-41
-40
-40
-41
-41
-41
-40
-39
-39
-39
-40
-40
-40
-40
-40
-40
-41
-42
-42
-42
-42
-42
-43
-44
-44
-45
-44
-43
-42
-41
-40
-37
-34
-29
-24
-17
-10
-2
7
19
31
45
58
73
89
105
123
141
160
178
196
214
232
248
264
277
290
299
309
316
322
326
327
327
323
319
313
305
294
281
268
252
236
220
202
184
164
144
124
104
84
64
46
27
10
-5
-20
-34
-47
-59
-69
-78
-86
-91
-96
-99
-102
-103
-104
-103
-100
-97
-95
-92
-90
-86
-81
-77
-73
-70
-67
-63
-59
-55
-53
-50
-48
-46
-45
-44
-41
-41
-40
-39
-39
-39
-38
-37
-37
-38
-38
-38
-37
-37
-37
-37
-36
-37
-37
-36
-36
-35
-35
-36
-36
-36
-35
-34
-34
-35
-35
-34
-34
-34
-34
-34
-33
-35
-34
-34
-34
-34
-34
-35
-35
-35
-35
-35
-36
-36
-36
-37
-36
-35
-36
-36
-36
-36
-37
-37
-37
-37
-37
-36
-36
-36
-35
-36
-36
-34
-34
-35
-34
-34
-33
-33
-34
-34
-33
-33
-33
-34
-33
-33
-33
-33
-33
-33
-33
-33
-33
-34
-33
-32
-32
-32
-31
-32
-32
-31
-31
-32
-31
-31
-31
-30
-31
-30
-30
-29
-30
-29
-29
-28
-28
-27
-27
-27
-27
-26
-26
-25
-25
-25
-25
-25
-24
-23
-23
-23
-24
-24
-23
-22
-22
-22
-22
-22
-22
-22
-21
-20
-21
-22
-21
-22
-21
-20
-20
-21
-21
-22
-22
-22
-21
-21
-22
-22
-22
-21
-21
-20
-21
-20
-21
-20
-20
-19
-19
-18
-18
-18
-17
-17
-15
-14
-14
-15
-14
-13
-12
-12
-11
-11
-10
-10
-8
-7
-7
-6
-7
-6
-6
-5
-4
-4
-3
-3
-3
-2
-1
0
0
0
0
1
1
3
3
5
4
5
6
8
9
9
10
10
11
13
14
15
16
17
17
19
20
21
22
23
24
25
26
27
29
31
32
33
33
35
37
38
39
41
42
43
45
47
48
48
50
51
53
54
56
58
59
60
61
62
64
66
67
68
69
70
71
74
75
75
77
77
78
81
81
83
84
84
84
85
86
87
88
88
87
88
88
89
90
90
89
89
89
91
91
91
90
90
89
90
90
90
90
89
88
88
88
88
87
86
84
83
82
81
80
79
76
75
72
70
69
67
64
61
58
57
54
52
50
47
43
40
38
36
34
31
29
26
23
22
19
17
15
13
10
8
7
6
3
2
0
-2
-3
-3
-4
-5
-7
-9
-10
-11
-11
-12
-14
-15
-17
-18
-19
-19
-21
-22
-23
-23
-24
-25
-26
-26
-26
-27
-28
-29
-29
-29
-29
-30
-32
-31
-32
-31
-31
-33
-33
-33
-33
-33
-33
-33
-33
-34
-34
-34
-33
-33
-33
-34
-34
-33
-33
-33
-33
-33
-35
-34
-35
-35
-35
-36
-37
-38
-39
-39
-39
-39
-40
-41
-41
-42
-41
-41
-41
-42
-41
-42
-42
-40
-40
-39
-40
-39
-39
-39
-38
-37
-37
-37
-37
-37
-37
-36
-36
-37
-37
-37
-37
-37
-36
-36
-36
-37
-38
-37
-37
-37
-38
-38
-39
-39
-38
-39
-39
-41
-41
-42
-42
-41
-41
-42
-42
-43
-43
-42
-42
-42
-43
-42
-43
-43
-43
-41
-41
-41
-41
-41
-40
-40
-39
-39
-39
-39
-40
-39
-39
-39
-39
-40
-40
-41
-41
-40
-41
-41
-42
-42
-43
-42
-43
-43
-44
-44
-44
-44
-44
-44
-44
-45
-45
-45
-45
-45
-45
-46
-46
-46
-45
-45
-44
-44
-44
-45
-45
-43
-43
-43
-43
-43
-43
-44
-43
-43
-43
-43
-43
-43
-43
-43
-43
-43
-43
-45
-45
-45
-45
-45
-45
-47
-47
-47
-47
-47
-47
-48
-47
-47
-47
-46
-46
-45
-45
-45
-44
-43
-43
-42
-42
-42
-42
-42
-41
-41
-41
-42
-42
-43
-43
-43
-43
-43
-45
-45
-46
-46
-46
-46
-46
-47
-47
-48
-47
-46
-47
-48
-48
-48
-48
-47
-48
-47
-47
-47
-47
-47
-47
-46
-47
-47
-47
-47
-47
-46
-47
-47
-48
-48
-47
-47
-47
-47
-47
-47
-48
-46
-46
-46
-46
-46
-46
-46
-45
-45
-45
-44
-44
-44
-44
-42
-43
-43
-43
-44
-45
-44
-44
-44
-45
-46
-47
-47
-48
-47
-48
-48
-49
-48
-48
-49
-48
-48
-48
-48
-48
-47
-47
-45
-46
-47
-46
-46
-46
-44
-44
-45
-45
-45
-44
-44
-43
-43
-43
-43
-43
-42
-41
-41
-41
-41
-41
-41
-39
-38
-38
-39
-39
-39
-38
-38
-37
-36
-36
-36
-35
-35
-34
-33
-33
-33
-33
-33
-32
-32
-31
-32
-32
-32
-32
-31
-31
-31
-32
-32
-32
-32
-32
-32
-32
-33
-33
-33
-33
-33
-33
-33
-34
-34
-34
-33
-32
-32
-33
-33
-33
-33
-32
-31
-32
-32
-32
-31
-30
-30
-30
-30
-30
-30
-30
-30
-31
-30
-30
-30
-31
-31
-33
-34
-34
-35
-35
-36
-37
-38
-39
-40
-42
-43
-44
-44
-44
-45
-46
-47
-47
-48
-48
-49
-49
-50
-51
-51
-51
-50
-50
-51
-51
-51
-50
-50
-49
-49
-50
-50
-51
-51
-51
-50
-50
-51
-51
-52
-52
-51
-52
-53
-53
-54
-54
-53
-52
-53
-53
-53
-53
-52
-52
-51
-51
-51
-52
-52
-50
-49
-49
-50
-50
-49
-49
-48
-49
-48
-49
-49
-49
-49
-49
-48
-48
-49
-49
-49
-49
-48
-49
-49
-50
-50
-50
-50
-50
-50
-51
-52
-52
-51
-51
-51
-50
-52
-51
-52
-51
-51
-51
-50
-50
-50
-49
-49
-49
-49
-49
-50
-49
-48
-48
-47
-48
-48
-47
-47
-48
-48
-47
-48
-47
-46
-47
-47
-46
-46
-46
-46
-46
-45
-45
-45
-45
-46
-46
-46
-46
-46
-46
-47
-48
-48
-48
-48
-49
-48
-47
-47
-45
-41
-37
-32
-28
-22
-15
-6
4
15
27
40
54
70
87
104
123
141
159
178
196
215
232
249
264
277
290
301
311
319
324
328
328
326
324
319
313
304
292
280
265
250
234
217
197
177
156
135
114
94
73
52
32
13
-6
-22
-38
-52
-67
-79
-91
-99
-107
-113
-118
-123
-124
-125
-124
-122
-120
-118
-115
-111
-107
-102
-97
-93
-89
-85
-80
-76
-72
-68
-65
-62
-60
-57
-54
-51
-51
-49
-48
-47
-45
-44
-42
-41
-40
-40
-39
-39
-37
-37
-37
-36
-37
-37
-37
-37
-37
-38
-38
-38
-38
-37
-38
-39
-39
-40
-40
-41
-40
-41
-41
-41
-41
-41
-41
-40
-40
-40
-40
-40
-40
-39
-38
-39
-39
-39
-39
-39
-39
-38
-38
-39
-39
-39
-39
-38
-38
-39
-40
-40
-39
-38
-38
-37
-38
-37
-37
-36
-35
-34
-35
-34
-34
-34
-33
-32
-32
-32
-32
-33
-33
-33
-32
-33
-32
-32
-32
-32
-31
-30
-31
-32
-31
-32
-30
-30
-29
-29
-29
-29
-29
-28
-27
-27
-28
-28
-27
-26
-26
-26
-26
-26
-27
-27
-27
-26
-26
-26
-26
-26
-25
-24
-24
-24
-24
-23
-23
-23
-22
-21
-22
-23
-22
-23
-22
-22
-22
-23
-23
-24
-24
-23
-23
-24
-24
-24
-25
-25
-23
-24
-23
-23
-22
-22
-21
-20
-19
-19
-19
-18
-17
-16
-15
-15
-14
-14
-13
-11
-11
-10
-10
-10
-10
-9
-9
-9
-8
-8
-8
-7
-6
-5
-4
-4
-3
-3
-3
-2
0
0
1
1
2
3
3
4
4
5
5
5
7
8
10
10
10
10
11
12
14
14
15
16
16
17
19
21
22
22
23
25
27
29
31
32
33
35
36
39
40
42
43
44
45
47
49
51
51
53
54
56
58
59
61
62
64
63
66
67
68
70
71
72
73
75
77
78
80
81
81
83
85
87
88
89
89
91
92
93
95
96
96
97
98
99
101
102
102
103
104
104
106
107
107
108
109
109
110
110
110
111
111
109
109
109
108
108
106
104
102
102
100
100
98
96
93
92
90
89
87
86
84
81
80
78
76
74
73
71
68
65
64
63
60
58
56
53
50
49
46
44
41
38
35
33
31
28
26
23
21
19
16
15
14
11
9
7
6
5
4
4
2
0
0
-2
-2
-3
-4
-5
-7
-8
-10
-10
-11
-13
-15
-17
-18
-18
-19
-21
-22
-23
-24
-25
-25
-25
-25
-26
-26
-27
-27
-26
-26
-26
-27
-27
-27
-26
-26
-27
-28
-29
-29
-30
-30
-30
-31
-32
-33
-33
-33
-33
-34
-34
-35
-35
-36
-36
-35
-35
-36
-36
-36
-35
-35
-35
-36
-36
-36
-37
-36
-36
-36
-37
-38
-39
-38
-38
-39
-39
-39
-40
-41
-41
-41
-40
-40
-41
-42
-41
-40
-40
-41
-40
-41
-41
-41
-41
-41
-40
-40
-41
-42
-41
-41
-42
-41
-42
-42
-42
-41
-41
-40
-40
-40
-41
-40
-40
-39
-39
-40
-40
-39
-39
-39
-37
-38
-38
-38
-38
-38
-37
-37
-37
-36
-36
-36
-36
-34
-34
-35
-36
-36
-36
-36
-36
-37
-37
-38
-38
-38
-37
-38
-39
-39
-40
-40
-39
-39
-39
-39
-39
-39
-38
-37
-36
-37
-37
-37
-36
-36
-34
-35
-34
-35
-36
-35
-34
-34
-34
-34
-34
-34
-34
-34
-33
-33
-33
-33
-33
-32
-31
-30
-31
-31
-31
-31
-31
-31
-31
-32
-33
-33
-32
-33
-32
-33
-34
-35
-34
-34
-34
-35
-34
-35
-36
-36
-35
-35
-36
-36
-37
-36
-37
-36
-36
-37
-38
-38
-39
-38
-38
-38
-38
-39
-39
-39
-38
-38
-38
-38
-38
-38
-38
-37
-37
-36
-36
-37
-36
-36
-35
-34
-35
-36
-35
-36
-35
-35
-35
-36
-36
-36
-37
-37
-37
-38
-39
-40
-39
-39
-39
-40
-40
-42
-42
-42
-42
-42
-42
-43
-43
-43
-43
-42
-42
-42
-42
-43
-42
-42
-42
-42
-41
-42
-42
-41
-41
-41
-41
-41
-41
-40
-41
-40
-40
-40
-40
-40
-39
-39
-39
-38
-39
-39
-39
-38
-38
-37
-37
-38
-39
-38
-38
-37
-38
-37
-38
-38
-38
-38
-37
-37
-37
-37
-37
-37
-37
-36
-36
-36
-37
-37
-36
-36
-36
-35
-36
-35
-35
-33
-32
-32
-33
-32
-32
-31
-30
-29
-28
-28
-28
-27
-26
-25
-24
-24
-25
-25
-25
-24
-24
-23
-24
-24
-25
-25
-25
-25
-25
-25
-25
-25
-25
-25
-24
-24
-24
-25
-25
-24
-24
-23
-24
-24
-24
-24
-24
-23
-24
-23
-24
-24
-24
-25
-24
-25
-26
-27
-27
-27
-27
-26
-27
-28
-29
-28
-28
-28
-28
-30
-30
-31
-31
-31
-32
-33
-34
-35
-34
-35
-35
-36
-37
-38
-39
-39
-40
-41
-41
-42
-44
-44
-44
-43
-44
-44
-45
-45
-44
-44
-42
-42
-42
-42
-42
-41
-41
-40
-41
-41
-41
-41
-42
-41
-41
-41
-43
-44
-44
-44
-44
-44
-45
-45
-46
-46
-46
-46
-46
-46
-47
-47
-47
-46
-45
-46
-45
-46
-46
-45
-44
-44
-44
-44
-45
-44
-44
-43
-44
-45
-45
-46
-45
-45
-45
-46
-47
-47
-48
-47
-47
-47
-47
-48
-47
-47
-47
-47
-46
-45
-46
-45
-44
-44
-43
-43
-42
-42
-41
-40
-39
-39
-39
-39
-39
-38
-38
-37
-38
-38
-38
-39
-39
-39
-38
-39
-40
-40
-41
-40
-40
-40
-41
-42
-41
-42
-41
-41
-41
-42
-42
-43
-42
-42
-42
-42
-43
-43
-43
-43
-43
-42
-43
-43
-42
-41
-40
-37
-36
-33
-29
-25
-20
-12
-4
3
12
23
34
48
63
78
94
110
129
147
166
185
203
220
237
253
269
283
296
306
314
321
327
331
332
331
328
321
314
304
293
281
266
250
233
215
196
177
158
137
116
95
75
55
37
18
1
-17
-30
-44
-57
-67
-78
-86
-95
-101
-104
-107
-108
-109
-108
-107
-104
-101
-97
-94
-90
-86
-82
-77
-72
-67
-63
-60
-57
-55
-52
-49
-46
-45
-43
-43
-41
-39
-38
-37
-38
-38
-38
-38
-38
-37
-37
-37
-37
-38
-37
-36
-37
-37
-37
-38
-37
-36
-35
-35
-34
-35
-34
-34
-32
-33
-32
-33
-33
-33
-32
-31
-32
-33
-33
-34
-34
-33
-33
-33
-34
-34
-34
-34
-34
-34
-33
-34
-34
-34
-33
-32
-32
-32
-32
-33
-32
-30
-30
-30
-30
-31
-30
-31
-30
-30
-30
-31
-31
-31
-31
-31
-30
-30
-30
-30
-30
-29
-29
-28
-28
-28
-29
-28
-27
-26
-26
-26
-26
-25
-25
-25
-25
-25
-27
-26
-27
-26
-26
-27
-27
-27
-28
-28
-27
-27
-27
-28
-28
-28
-27
-27
-26
-26
-27
-26
-25
-24
-23
-23
-22
-23
-22
-21
-20
-19
-20
-19
-19
-19
-17
-17
-16
-17
-17
-17
-18
-17
-17
-17
-17
-17
-17
-17
-17
-17
-18
-18
-18
-18
-18
-17
-17
-17
-17
-16
-15
-15
-15
-13
-13
-14
-13
-13
-11
-10
-10
-10
-10
-10
-9
-8
-8
-9
-8
-8
-8
-7
-7
-7
-6
-7
-6
-6
-5
-4
-4
-3
-4
-2
-2
0
1
2
2
4
5
6
8
9
10
10
11
12
14
14
15
15
15
17
18
19
19
20
21
21
23
24
25
26
27
27
29
30
32
34
34
36
37
37
39
40
41
42
42
43
45
46
48
50
50
51
52
54
55
58
58
60
61
62
64
67
68
70
72
72
74
76
78
79
80
82
82
84
86
87
88
89
90
90
92
93
94
94
95
96
98
99
100
101
101
101
102
103
103
104
103
103
103
103
103
104
103
103
101
100
100
100
99
99
97
96
95
95
93
92
91
89
87
86
85
84
82
80
77
75
73
72
69
68
65
62
60
58
56
53
51
48
45
43
41
39
37
35
32
29
27
26
24
23
19
18
15
14
13
11
9
7
5
4
3
2
1
0
-3
-3
-4
-4
-5
-6
-7
-8
-9
-10
-10
-11
-13
-14
-16
-16
-17
-17
-18
-19
-21
-21
-22
-21
-21
-23
-23
-24
-23
-23
-23
-23
-23
-24
-24
-24
-24
-23
-23
-23
-24
-25
-24
-24
-24
-24
-25
-26
-26
-26
-24
-25
-25
-25
-25
-25
-25
-25
-24
-24
-25
-25
-25
-24
-23
-25
-25
-25
-25
-25
-25
-24
-25
-25
-25
-26
-27
-26
-27
-27
-28
-28
-29
-29
-28
-28
-29
-29
-30
-30
-29
-29
-29
-29
-30
-31
-30
-29
-28
-29
-29
-29
-28
-28
-27
-27
-28
-29
-29
-29
-29
-29
-29
-30
-30
-30
-30
-29
-30
-30
-30
-31
-30
-30
-30
-30
-30
-31
-30
-30
-29
-29
-29
-29
-29
-28
-28
-27
-27
-27
-27
-27
-27
-26
-26
-26
-27
-27
-27
-27
-27
-26
-26
-28
-28
-28
-28
-28
-28
-29
-29
-29
-29
-29
-29
-30
-30
-30
-31
-31
-30
-31
-31
-32
-33
-32
-31
-31
-31
-33
-33
-34
-33
-33
-33
-33
-33
-33
-33
-32
-31
-31
-30
-32
-31
-31
-30
-30
-29
-29
-29
-29
-29
-28
-27
-27
-27
-29
-29
-28
-28
-29
-28
-30
-30
-31
-30
-31
-31
-32
-32
-33
-32
-33
-33
-33
-34
-34
-34
-34
-34
-34
-34
-34
-34
-34
-34
-33
-33
-33
-33
-33
-33
-31
-32
-31
-32
-32
-31
-31
-30
-30
-30
-32
-32
-32
-32
-32
-33
-33
-34
-35
-34
-34
-34
-34
-35
-36
-36
-35
-35
-35
-36
-36
-36
-36
-34
-34
-34
-34
-34
-34
-34
-33
-33
-33
-34
-34
-33
-33
-32
-32
-33
-33
-34
-34
-34
-34
-33
-34
-34
-35
-34
-34
-34
-34
-35
-36
-36
-35
-35
-35
-35
-35
-36
-36
-35
-35
-35
-36
-35
-35
-35
-34
-33
-34
-34
-34
-35
-34
-34
-34
-34
-34
-35
-34
-34
-34
-34
-34
-35
-35
-35
-34
-34
-34
-34
-34
-34
-33
-32
-31
-32
-31
-32
-31
-30
-30
-29
-29
-29
-29
-28
-28
-27
-27
-27
-28
-28
-28
-27
-27
-28
-28
-29
-28
-28
-28
-28
-28
-28
-28
-27
-26
-26
-26
-25
-25
-25
-25
-23
-23
-22
-22
-22
-22
-20
-20
-20
-19
-19
-19
-19
-17
-17
-17
-18
-18
-18
-17
-17
-16
-17
-17
-17
-18
-18
-17
-18
-19
-19
-20
-20
-19
-20
-20
-22
-22
-23
-23
-23
-24
-25
-26
-26
-27
-27
-27
-28
-29
-29
-30
-30
-29
-29
-30
-31
-31
-32
-32
-32
-31
-32
-34
-34
-34
-35
-35
-35
-37
-37
-39
-39
-39
-39
-40
-41
-42
-42
-42
-42
-42
-43
-44
-44
-44
-44
-43
-43
-45
-45
-45
-45
-44
-44
-45
-45
-45
-45
-45
-44
-44
-44
-45
-44
-45
-44
-44
-44
-44
-44
-43
-43
-42
-42
-41
-42
-41
-41
-41
-40
-40
-40
-40
-41
-41
-39
-39
-40
-40
-41
-41
-41
-41
-41
-41
-42
-42
-43
-43
-42
-42
-43
-43
-43
-43
-43
-42
-42
-43
-43
-42
-41
-40
-40
-40
-41
-42
-42
-40
-40
-40
-40
-41
-42
-42
-42
-41
-42
-42
-43
-43
-43
-42
-42
-43
-43
-43
-42
-41
-40
-39
-39
-39
-38
-37
-37
-36
-36
-36
-37
-37
-37
-37
-37
-38
-39
-40
-41
-40
-41
-42
-42
-41
-41
-39
-37
-33
-29
-24
-19
-11
-3
7
18
30
42
55
70
87
104
121
139
156
174
192
210
228
244
258
272
284
295
306
313
320
324
325
326
324
321
315
307
297
285
273
259
244
228
210
191
171
153
134
114
93
72
54
35
17
0
-16
-31
-45
-58
-70
-78
-87
-95
-100
-105
-108
-109
-109
-108
-107
-105
-104
-100
-96
-91
-87
-83
-79
-75
-71
-66
-62
-58
-55
-53
-49
-48
-45
-43
-41
-40
-39
-37
-36
-34
-33
-34
-33
-33
-33
-32
-33
-33
-33
-34
-34
-33
-34
-34
-34
-34
-35
-35
-34
-34
-34
-34
-35
-35
-34
-34
-33
-33
-34
-34
-34
-33
-32
-32
-32
-32
-32
-32
-31
-31
-31
-30
-31
-31
-31
-30
-30
-30
-31
-31
-32
-32
-31
-31
-32
-31
-33
-32
-32
-32
-32
-31
-32
-32
-32
-32
-31
-31
-31
-32
-32
-31
-31
-31
-31
-31
-31
-31
-32
-30
-30
-30
-30
-31
-30
-30
-28
-28
-29
-28
-28
-27
-26
-25
-25
-25
-25
-24
-24
-23
-23
-23
-24
-24
-24
-24
-24
-24
-24
-25
-25
-24
-23
-23
-23
-23
-23
-23
-22
-21
-22
-22
-22
-23
-22
-22
-21
-21
-21
-22
-22
-21
-21
-21
-21
-20
-20
-20
-19
-19
-19
-19
-19
-19
-18
-18
-17
-17
-17
-17
-17
-15
-15
-14
-13
-14
-14
-13
-12
-12
-11
-12
-12
-11
-10
-10
-10
-9
-10
-11
-9
-9
-9
-8
-8
-9
-9
-8
-7
-6
-6
-5
-5
-4
-4
-2
-2
-1
-2
-1
-1
0
0
2
2
2
2
2
3
3
4
5
4
6
6
8
9
9
10
10
12
14
16
17
18
19
20
20
22
24
26
28
29
30
31
33
35
35
36
38
39
40
43
44
46
47
49
50
53
55
56
58
59
60
62
65
66
67
69
69
71
73
75
76
77
77
77
78
80
80
81
81
82
82
84
85
86
87
87
88
89
91
93
93
95
95
96
97
100
102
103
104
104
105
106
106
107
107
108
107
107
107
107
106
105
104
102
101
100
99
97
95
93
91
89
88
86
84
82
79
77
75
74
72
69
67
64
62
60
59
56
53
51
49
47
44
42
40
38
36
33
31
30
29
27
23
22
20
18
16
15
13
10
8
6
5
3
2
0
-1
-3
-3
-4
-6
-7
-9
-11
-12
-13
-14
-15
-15
-17
-19
-19
-20
-21
-22
-23
-24
-25
-26
-26
-26
-27
-28
-28
-28
-28
-28
-28
-29
-29
-30
-29
-29
-29
-30
-30
-31
-31
-32
-32
-32
-33
-33
-34
-34
-34
-34
-35
-36
-36
-37
-37
-37
-37
-37
-37
-37
-37
-37
-36
-35
-36
-36
-37
-36
-36
-35
-35
-35
-35
-36
-35
-35
-36
-35
-36
-36
-36
-37
-37
-36
-37
-38
-38
-38
-38
-38
-38
-38
-39
-39
-39
-39
-39
-39
-40
-39
-39
-40
-40
-39
-40
-40
-40
-41
-41
-40
-41
-41
-41
-42
-41
-41
-42
-42
-42
-43
-43
-42
-42
-42
-42
-42
-42
-42
-41
-40
-40
-40
-40
-40
-39
-38
-38
-38
-38
-39
-39
-39
-39
-38
-39
-40
-40
-41
-40
-40
-40
-40
-42
-42
-42
-42
-42
-41
-42
-43
-42
-42
-42
-41
-41
-41
-41
-41
-40
-40
-40
-40
-40
-39
-40
-39
-39
-39
-39
-40
-40
-40
-40
-39
-40
-39
-40
-40
-39
-39
-39
-39
-40
-39
-39
-39
-38
-39
-39
-39
-40
-40
-39
-39
-39
-41
-41
-41
-42
-42
-42
-42
-42
-43
-43
-42
-43
-43
-44
-44
-45
-44
-44
-43
-43
-44
-44
-43
-43
-42
-43
-43
-43
-44
-43
-43
-42
-43
-43
-44
-44
-44
-43
-44
-44
-45
-45
-46
-45
-45
-46
-47
-47
-48
-48
-48
-47
-48
-49
-48
-48
-48
-47
-47
-48
-47
-48
-47
-46
-46
-47
-47
-46
-47
-47
-47
-46
-47
-47
-48
-48
-47
-47
-48
-48
-48
-49
-48
-48
-48
-48
-48
-49
-49
-49
-48
-49
-48
-49
-49
-49
-49
-49
-49
-49
-50
-50
-51
-49
-50
-49
-50
-50
-51
-50
-50
-49
-49
-50
-49
-49
-49
-48
-47
-48
-48
-48
-47
-47
-46
-45
-46
-46
-46
-45
-44
-44
-44
-44
-44
-44
-44
-43
-43
-43
-44
-43
-44
-42
-42
-42
-42
-43
-43
-43
-42
-42
-42
-42
-43
-43
-42
-42
-41
-41
-42
-42
-41
-41
-40
-41
-40
-41
-40
-41
-39
-39
-39
-39
-40
-38
-38
-37
-37
-37
-37
-38
-37
-37
-36
-36
-37
-37
-37
-37
-37
-36
-37
-37
-37
-37
-37
-36
-37
-37
-38
-39
-38
-38
-38
-39
-40
-40
-41
-41
-41
-42
-42
-43
-44
-45
-44
-45
-45
-46
-47
-47
-47
-48
-48
-49
-50
-52
-53
-54
-53
-54
-55
-56
-57
-58
-58
-58
-59
-60
-60
-61
-60
-60
-60
-59
-61
-60
-60
-60
-60
-60
-60
-59
-60
-60
-60
-59
-59
-60
-60
-60
-61
-59
-60
-59
-60
-60
-60
-60
-59
-59
-59
-60
-60
-60
-59
-59
-59
-59
-59
-60
-59
-59
-58
-59
-59
-60
-60
-60
-60
-60
-61
-60
-61
-61
-61
-60
-60
-60
-60
-61
-60
-59
-60
-60
-60
-60
-60
-60
-60
-59
-59
-59
-58
-58
-57
-57
-56
-57
-57
-57
-56
-56
-55
-55
-56
-56
-56
-56
-55
-56
-57
-57
-58
-57
-57
-56
-57
-58
-58
-58
-57
-57
-57
-57
-58
-58
-58
-57
-57
-56
-56
-56
-55
-56
-54
-54
-54
-55
-55
-56
-55
-56
-55
-56
-56
-58
-57
-57
-55
-53
-51
-49
-46
-42
-38
-32
-24
-18
-8
2
14
28
42
57
73
89
107
125
143
163
180
198
215
232
248
263
276
287
296
305
309
314
317
316
313
309
301
293
283
271
257
242
225
208
189
170
150
129
108
87
67
46
27
8
-9
-26
-42
-57
-69
-82
-92
-102
-110
-116
-121
-124
-126
-127
-126
-126
-124
-120
-116
-112
-108
-105
-100
-96
-90
-86
-82
-79
-75
-72
-69
-65
-63
-61
-59
-58
-57
-54
-53
-52
-52
-52
-52
-50
-50
-49
-50
-50
-50
-50
-50
-49
-48
-49
-49
-49
-49
-47
-48
-47
-48
-48
-48
-48
-48
-47
-48
-49
-49
-49
-48
-48
-48
-48
-49
-48
-49
-48
-47
-48
-48
-48
-47
-47
-47
-46
-45
-46
-47
-46
-45
-45
-46
-46
-45
-45
-45
-45
-45
-44
-45
-45
-45
-44
-44
-43
-44
-45
-45
-45
-44
-44
-44
-44
-44
-44
-44
-44
-43
-43
-43
-43
-44
-43
-42
-42
-42
-42
-42
-42
-41
-40
-40
-41
-41
-40
-39
-39
-38
-39
-39
-39
-39
-39
-38
-38
-38
-38
-39
-39
-38
-38
-38
-38
-39
-39
-39
-38
-38
-38
-39
-39
-39
-39
-38
-38
-38
-37
-37
-36
-35
-34
-33
-33
-34
-33
-32
-32
-31
-31
-31
-31
-31
-30
-30
-29
-29
-30
-29
-29
-29
-28
-28
-28
-29
-28
-28
-27
-27
-26
-26
-26
-25
-24
-24
-23
-23
-23
-23
-22
-21
-21
-20
-20
-20
-19
-18
-17
-16
-16
-16
-16
-16
-14
-14
-13
-14
-14
-14
-13
-13
-12
-13
-12
-12
-12
-11
-11
-10
-9
-9
-9
-8
-7
-5
-4
-3
-2
-1
0
2
4
5
7
7
9
11
12
13
15
14
15
16
17
19
20
21
22
23
24
25
27
28
29
30
31
33
35
36
37
39
39
41
43
45
47
48
49
51
53
54
56
59
60
61
62
64
65
66
68
69
70
71
72
75
76
76
77
78
79
81
83
83
83
84
85
86
87
88
88
88
89
89
89
89
90
90
89
89
89
89
90
89
88
87
87
87
87
86
86
84
83
82
82
80
80
79
76
76
74
74
72
71
69
67
66
64
63
61
60
57
54
52
50
49
47
44
42
39
37
36
33
31
28
25
23
21
19
17
15
12
9
8
7
6
4
2
0
-2
-3
-4
-6
-7
-9
-10
-11
-13
-13
-15
-17
-19
-21
-21
-23
-23
-25
-26
-26
-27
-28
-28
-29
-29
-30
-30
-31
-30
-30
-30
-30
-31
-30
-30
-30
-29
-30
-30
-31
-31
-31
-31
-31
-31
-32
-33
-33
-33
-33
-34
-33
-35
-36
-36
-36
-36
-36
-37
-37
-38
-38
-37
-37
-36
-37
-37
-38
-37
-36
-37
-36
-36
-36
-36
-36
-36
-35
-35
-35
-36
-35
-34
-34
-34
-34
-35
-35
-34
-34
-34
-35
-35
-35
-36
-36
-36
-36
-36
-37
-37
-38
-37
-38
-38
-38
-39
-38
-38
-38
-37
-37
-37
-37
-38
-38
-36
-36
-36
-37
-36
-36
-36
-35
-35
-35
-36
-36
-35
-35
-34
-35
-35
-35
-35
-35
-35
-35
-35
-35
-35
-35
-34
-34
-34
-35
-35
-36
-35
-35
-34
-35
-35
-36
-36
-36
-36
-36
-36
-38
-37
-38
-37
-38
-38
-38
-38
-37
-37
-37
-36
-36
-37
-36
-36
-36
-34
-34
-34
-34
-34
-34
-33
-33
-33
-33
-34
-34
-34
-34
-34
-34
-35
-35
-35
-35
-35
-34
-34
-35
-35
-35
-34
-34
-34
-34
-34
-35
-35
-33
-33
-34
-33
-33
-33
-33
-33
-33
-33
-33
-33
-33
-33
-32
-33
-33
-34
-34
-34
-34
-33
-34
-35
-36
-36
-36
-35
-35
-36
-36
-36
-36
-36
-35
-35
-36
-36
-35
-35
-34
-34
-34
-35
-34
-35
-35
-33
-34
-35
-34
-34
-34
-33
-33
-33
-33
-33
-33
-33
-33
-32
-33
-33
-32
-32
-32
-31
-31
-31
-32
-33
-32
-31
-32
-32
-32
-32
-33
-32
-31
-32
-32
-33
-34
-34
-34
-34
-34
-35
-35
-36
-36
-35
-35
-35
-37
-37
-37
-37
-36
-35
-36
-37
-36
-36
-35
-34
-35
-35
-35
-35
-34
-33
-33
-33
-33
-33
-33
-33
-32
-32
-32
-33
-33
-33
-32
-32
-31
-32
-31
-31
-30
-30
-29
-30
-29
-29
-29
-28
-27
-27
-26
-26
-26
-26
-26
-24
-25
-24
-25
-24
-24
-23
-23
-22
-22
-22
-22
-21
-20
-20
-19
-19
-19
-19
-19
-17
-18
-18
-18
-18
-18
-17
-17
-18
-18
-19
-19
-19
-19
-19
-19
-20
-20
-21
-20
-20
-20
-20
-20
-20
-20
-19
-18
-17
-17
-17
-17
-15
-15
-15
-14
-15
-14
-14
-13
-12
-12
-11
-11
-12
-11
-10
-10
-11
-13
-13
-15
-15
-15
-16
-18
-19
-20
-22
-23
-24
-25
-26
-29
-29
-30
-31
-31
-32
-32
-34
-35
-34
-34
-34
-35
-35
-35
-35
-35
-34
-34
-35
-35
-34
-34
-34
-35
-35
-35
-35
-36
-35
-35
-36
-36
-37
-37
-37
-37
-37
-37
-37
-38
-38
-37
-36
-36
-35
-36
-36
-36
-36
-35
-34
-35
-35
-35
-35
-35
-34
-34
-35
-37
-36
-36
-36
-35
-36
-36
-36
-36
-36
-36
-35
-36
-36
-36
-36
-36
-35
-35
-35
-35
-35
-34
-33
-33
-33
-33
-33
-33
-31
-31
-30
-31
-30
-31
-31
-30
-30
-30
-30
-30
-31
-31
-30
-30
-30
-31
-32
-32
-32
-31
-31
-32
-33
-32
-33
-33
-31
-31
-32
-32
-32
-32
-31
-31
-31
-31
-31
-31
-31
-31
-30
-31
-31
-32
-32
-32
-33
-32
-33
-34
-35
-36
-36
-35
-36
-36
-36
-36
-35
-33
-31
-29
-26
-22
-17
-12
-4
3
11
21
33
45
59
73
88
104
120
137
155
174
192
209
226
243
258
274
287
298
309
317
324
329
333
334
333
330
325
317
308
298
285
271
256
240
222
205
186
167
147
126
106
86
67
48
30
13
-4
-18
-31
-44
-55
-66
-74
-82
-87
-91
-93
-95
-96
-97
-95
-93
-89
-86
-83
-80
-76
-71
-66
-63
-58
-54
-51
-49
-46
-43
-40
-38
-37
-36
-34
-32
-30
-29
-29
-29
-29
-28
-28
-27
-27
-28
-28
-29
-29
-29
-28
-29
-29
-30
-30
-30
-29
-29
-30
-30
-30
-29
-28
-28
-27
-27
-27
-27
-26
-26
-25
-24
-25
-25
-25
-24
-24
-23
-23
-23
-24
-24
-24
-23
-24
-25
-25
-25
-25
-25
-25
-24
-25
-25
-25
-25
-24
-24
-24
-24
-25
-23
-23
-22
-23
-23
-23
-22
-22
-21
-20
-19
-19
-20
-20
-19
-18
-17
-16
-17
-17
-17
-16
-16
-16
-17
-17
-17
-17
-16
-17
-17
-17
-19
-18
-18
-17
-17
-17
-17
-17
-18
-17
-16
-15
-15
-15
-14
-13
-13
-12
-11
-12
-12
-13
-11
-11
-11
-11
-12
-12
-12
-13
-12
-12
-14
-14
-14
-14
-14
-13
-13
-14
-14
-15
-14
-12
-12
-12
-11
-11
-11
-10
-9
-9
-9
-9
-10
-9
-8
-7
-7
-6
-7
-6
-5
-4
-3
-3
-3
-3
-3
-2
-1
-1
0
0
0
0
1
1
2
2
2
2
2
3
4
4
4
4
5
6
7
7
8
8
8
9
10
12
12
12
13
13
14
16
16
16
15
15
15
16
17
18
17
18
18
19
20
22
23
23
24
26
28
30
32
34
35
37
39
41
43
46
47
47
49
51
53
55
55
56
57
57
59
61
63
64
63
65
65
66
67
69
69
71
71
72
75
76
77
78
79
80
83
84
86
87
88
89
90
93
95
96
98
98
99
100
102
104
104
106
106
106
107
109
110
111
110
110
110
112
112
113
112
112
112
112
112
112
112
111
110
110
110
110
110
109
108
107
106
105
105
103
100
99
97
96
94
92
90
88
85
84
82
80
77
74
72
68
66
64
62
61
57
55
53
50
49
47
45
42
41
38
37
35
34
32
29
27
25
23
22
20
17
16
14
12
11
10
7
5
3
2
1
0
-1
-2
-4
-6
-7
-7
-7
-8
-9
-9
-11
-11
-11
-11
-12
-12
-13
-14
-14
-13
-13
-14
-14
-15
-15
-16
-15
-16
-17
-17
-18
-18
-18
-17
-17
-19
-18
-19
-18
-18
-18
-18
-18
-19
-18
-18
-17
-17
-18
-18
-18
-17
-17
-18
-18
-19
-20
-21
-20
-21
-21
-22
-23
-24
-24
-24
-24
-24
-24
-25
-25
-25
-24
-24
-25
-25
-25
-25
-24
-24
-23
-22
-24
-24
-24
-24
-24
-24
-26
-26
-26
-27
-27
-26
-26
-27
-27
-27
-27
-26
-26
-26
-26
-25
-25
-24
-24
-24
-24
-24
-24
-24
-22
-22
-23
-22
-24
-23
-23
-22
-23
-23
-24
-24
-25
-24
-24
-24
-25
-25
-25
-26
-25
-24
-25
-25
-25
-24
-24
-24
-23
-23
-23
-23
-22
-22
-22
-21
-22
-22
-22
-22
-22
-22
-22
-22
-24
-24
-24
-24
-24
-25
-25
-27
-27
-26
-25
-25
-26
-27
-26
-27
-26
-26
-27
-27
-28
-28
-27
-28
-27
-27
-27
-28
-27
-27
-26
-27
-27
-28
-27
-28
-28
-28
-27
-27
-28
-28
-28
-27
-27
-27
-28
-28
-28
-28
-28
-27
-28
-28
-28
-28
-27
-27
-27
-27
-27
-27
-26
-25
-26
-26
-26
-26
-26
-25
-25
-25
-24
-25
-26
-26
-25
-25
-26
-27
-27
-27
-27
-27
-27
-28
-28
-28
-29
-29
-28
-28
-28
-28
-28
-27
-27
-27
-27
-27
-27
-28
-27
-27
-27
-28
-28
-29
-30
-29
-29
-29
-30
-31
-32
-32
-32
-31
-31
-31
-33
-33
-31
-31
-30
-31
-31
-31
-31
-30
-30
-30
-30
-30
-30
-30
-30
-29
-29
-30
-30
-30
-30
-30
-29
-30
-30
-31
-31
-30
-30
-30
-30
-30
-30
-30
-29
-28
-28
-29
-29
-28
-28
-28
-28
-27
-26
-27
-27
-26
-25
-24
-24
-24
-24
-25
-24
-24
-23
-24
-24
-24
-23
-23
-22
-21
-22
-22
-21
-21
-19
-19
-19
-19
-19
-19
-17
-18
-17
-17
-17
-17
-15
-16
-15
-15
-15
-15
-15
-15
-15
-15
-15
-15
-15
-14
-14
-15
-15
-16
-16
-16
-16
-16
-16
-16
-17
-18
-18
-17
-18
-18
-18
-17
-18
-18
-17
-17
-17
-18
-18
-18
-18
-17
-18
-18
-18
-20
-20
-20
-21
-21
-22
-24
-23
-24
-26
-27
-27
-28
-30
-30
-30
-31
-31
-32
-33
-34
-34
-34
-34
-35
-35
-35
-36
-35
-35
-35
-35
-35
-36
-36
-36
-36
-35
-36
-37
-37
-38
-38
-38
-39
-40
-40
-41
-42
-42
-42
-42
-44
-44
-44
-44
-45
-44
-45
-45
-45
-45
-44
-44
-44
-44
-44
-44
-43
-43
-42
-41
-41
-41
-41
-40
-40
-40
-41
-40
-41
-41
-40
-40
-40
-41
-42
-43
-42
-42
-42
-42
-43
-44
-44
-44
-43
-43
-43
-43
-44
-44
-43
-43
-43
-44
-44
-43
-43
-42
-41
-41
-40
-40
-40
-39
-38
-37
-38
-37
-38
-36
-36
-35
-35
-35
-36
-37
-37
-36
-36
-36
-38
-39
-39
-39
-38
-39
-39
-41
-41
-41
-41
-41
-41
-42
-43
-44
-43
-44
-44
-45
-45
-45
-45
-46
-45
-45
-44
-43
-42
-41
-38
-34
-30
-26
-21
-14
-6
3
14
25
37
51
65
82
99
116
135
152
171
190
209
226
244
260
274
286
298
309
317
323
328
330
330
329
325
319
310
299
287
274
259
243
225
207
187
166
146
125
103
82
60
39
20
2
-15
-31
-48
-63
-75
-87
-96
-105
-112
-117
-122
-125
-125
-125
-124
-123
-120
-117
-113
-108
-103
-98
-94
-89
-85
-79
-75
-71
-66
-62
-60
-57
-54
-51
-48
-46
-45
-44
-43
-41
-40
-39
-39
-39
-40
-39
-38
-39
-39
-39
-39
-40
-39
-39
-40
-40
-40
-41
-41
-41
-40
-40
-40
-40
-40
-39
-39
-38
-38
-38
-38
-38
-38
-37
-37
-36
-37
-37
-36
-36
-35
-34
-34
-35
-35
-34
-33
-33
-33
-33
-34
-34
-33
-33
-33
-34
-35
-35
-35
-35
-35
-35
-35
-36
-37
-36
-36
-36
-36
-37
-37
-37
-37
-37
-37
-36
-36
-36
-36
-34
-34
-33
-33
-32
-32
-31
-30
-30
-29
-29
-30
-29
-29
-28
-27
-27
-27
-27
-27
-27
-26
-27
-28
-28
-29
-29
-28
-28
-29
-30
-30
-30
-30
-29
-30
-30
-31
-30
-30
-31
-30
-30
-29
-30
-29
-29
-29
-28
-27
-27
-27
-27
-26
-24
-24
-24
-24
-24
-23
-23
-21
-22
-21
-21
-22
-21
-21
-21
-20
-20
-21
-20
-20
-20
-19
-20
-21
-21
-21
-20
-20
-20
-19
-20
-20
-19
-18
-17
-17
-17
-17
-16
-15
-14
-13
-13
-13
-12
-11
-10
-9
-9
-9
-9
-9
-8
-7
-7
-7
-6
-7
-7
-5
-4
-4
-3
-3
-3
-2
0
0
2
2
2
3
4
6
7
9
9
10
11
13
15
15
16
16
17
19
21
22
22
24
24
26
26
28
29
30
31
31
32
34
35
36
37
38
39
41
42
44
45
46
48
49
51
52
54
55
56
57
58
60
62
63
65
65
67
68
70
72
73
74
75
76
77
79
79
81
81
81
82
84
85
86
86
86
86
87
88
88
89
89
89
90
90
90
91
91
91
90
90
89
90
90
89
88
87
87
87
86
86
84
83
82
81
81
79
78
76
74
72
71
70
68
64
63
60
58
56
54
52
49
46
43
41
39
37
35
32
29
26
24
22
21
18
15
14
11
10
8
6
4
2
0
-2
-2
-4
-6
-8
-10
-11
-12
-14
-14
-15
-17
-18
-19
-19
-20
-20
-21
-22
-23
-24
-24
-24
-24
-25
-27
-27
-27
-27
-28
-28
-30
-30
-31
-31
-32
-32
-32
-34
-34
-34
-34
-34
-35
-36
-36
-37
-37
-37
-37
-37
-37
-38
-38
-37
-37
-37
-37
-38
-37
-38
-36
-37
-37
-38
-37
-38
-38
-37
-37
-37
-39
-38
-39
-38
-38
-38
-38
-39
-39
-39
-38
-38
-39
-39
-40
-40
-40
-40
-40
-41
-42
-42
-42
-42
-42
-42
-43
-43
-43
-43
-43
-42
-42
-42
-43
-42
-42
-41
-41
-41
-40
-41
-40
-40
-38
-39
-39
-39
-40
-39
-38
-39
-39
-40
-40
-40
-40
-40
-39
-40
-41
-41
-41
-42
-41
-42
-42
-43
-42
-43
-43
-42
-43
-43
-44
-44
-43
-43
-43
-43
-44
-44
-43
-43
-42
-42
-42
-42
-42
-41
-41
-40
-40
-40
-40
-40
-40
-39
-39
-38
-39
-39
-38
-38
-37
-37
-37
-38
-38
-38
-38
-37
-37
-38
-39
-39
-39
-39
-40
-40
-40
-41
-40
-41
-41
-41
-42
-42
-43
-43
-43
-42
-43
-43
-43
-42
-42
-41
-41
-41
-41
-41
-41
-40
-40
-39
-40
-39
-39
-38
-38
-37
-37
-37
-38
-38
-37
-38
-37
-37
-39
-39
-38
-38
-38
-38
-39
-39
-39
-40
-38
-39
-38
-39
-39
-40
-39
-39
-39
-40
-40
-40
-40
-40
-40
-40
-40
-41
-41
-41
-40
-41
-41
-42
-42
-42
-42
-42
-41
-41
-42
-42
-42
-41
-41
-41
-42
-42
-42
-42
-42
-41
-42
-42
-43
-42
-42
-42
-43
-43
-43
-43
-43
-41
-42
-42
-42
-42
-42
-42
-40
-41
-40
-41
-41
-41
-41
-40
-40
-41
-41
-42
-41
-41
-40
-41
-41
-43
-43
-43
-42
-43
-42
-43
-43
-43
-43
-43
-43
-44
-44
-44
-44
-43
-43
-43
-43
-44
-45
-45
-45
-44
-44
-45
-45
-45
-44
-44
-44
-44
-44
-45
-44
-42
-42
-41
-41
-42
-41
-40
-39
-38
-38
-38
-37
-37
-37
-36
-35
-36
-36
-36
-36
-34
-34
-34
-34
-35
-35
-34
-33
-34
-33
-34
-34
-34
-33
-33
-32
-32
-33
-32
-32
-31
-31
-30
-30
-31
-31
-30
-29
-29
-30
-29
-30
-30
-29
-28
-28
-29
-29
-29
-28
-28
-28
-28
-28
-29
-29
-29
-29
-28
-28
-29
-29
-29
-29
-29
-29
-29
-29
-29
-27
-28
-27
-27
-27
-27
-27
-26
-26
-27
-26
-28
-28
-28
-28
-29
-29
-30
-32
-32
-33
-34
-34
-34
-37
-37
-37
-38
-38
-38
-39
-40
-41
-42
-42
-42
-42
-43
-44
-45
-44
-45
-45
-45
-45
-47
-46
-46
-46
-47
-47
-49
-49
-50
-50
-50
-50
-50
-52
-52
-52
-52
-51
-52
-52
-53
-53
-51
-52
-51
-51
-50
-50
-50
-49
-47
-48
-46
-47
-47
-46
-44
-44
-44
-44
-44
-44
-44
-44
-43
-44
-44
-44
-44
-45
-44
-44
-45
-46
-47
-47
-46
-47
-47
-47
-48
-48
-48
-48
-47
-48
-48
-49
-48
-48
-47
-47
-47
-47
-46
-46
-44
-44
-43
-43
-43
-43
-42
-41
-41
-41
-41
-42
-42
-42
-40
-41
-41
-42
-41
-41
-41
-41
-41
-42
-42
-42
-41
-41
-41
-40
-40
-41
-40
-40
-40
-40
-40
-41
-40
-41
-41
-40
-41
-42
-43
-44
-45
-45
-46
-46
-48
-48
-48
-48
-48
-47
-46
-45
-43
-39
-35
-30
-25
-18
-10
-1
10
22
35
49
63
79
96
114
132
150
169
187
205
222
241
256
270
284
294
305
312
319
324
326
325
323
319
313
306
296
286
272
258
242
226
208
190
171
150
131
111
92
72
53
34
16
0
-14
-29
-42
-53
-65
-74
-82
-88
-93
-97
-99
-101
-102
-100
-98
-96
-94
-91
-87
-83
-80
-76
-71
-67
-64
-62
-58
-55
-52
-50
-48
-47
-46
-44
-42
-41
-40
-40
-40
-40
-39
-38
-38
-38
-38
-38
-38
-37
-36
-36
-36
-37
-37
-37
-36
-35
-36
-36
-36
-35
-35
-35
-35
-36
-36
-36
-35
-34
-34
-34
-35
-35
-35
-35
-33
-33
-33
-34
-34
-35
-35
-34
-34
-35
-35
-35
-34
-34
-34
-34
-34
-35
-35
-35
-33
-34
-33
-35
-34
-34
-33
-33
-33
-33
-34
-33
-33
-32
-32
-32
-32
-32
-32
-31
-31
-31
-30
-30
-30
-30
-29
-29
-29
-29
-29
-29
-28
-27
-28
-27
-28
-27
-27
-27
-27
-26
-27
-27
-27
-27
-26
-25
-25
-27
-27
-27
-27
-26
-25
-25
-26
-25
-25
-24
-24
-24
-23
-23
-22
-22
-22
-21
-21
-22
-22
-21
-20
-20
-19
-19
-20
-20
-20
-20
-19
-20
-19
-20
-20
-20
-20
-19
-18
-19
-19
-19
-19
-18
-18
-18
-18
-18
-19
-19
-18
-17
-18
-18
-18
-18
-17
-18
-17
-17
-17
-17
-16
-15
-15
-13
-13
-13
-13
-12
-10
-9
-9
-9
-8
-8
-7
-5
-5
-5
-5
-4
-3
-2
-1
0
-1
1
1
2
3
4
5
5
6
7
9
10
11
12
12
13
13
15
17
17
18
19
19
21
23
24
24
25
25
27
28
29
30
31
32
32
33
36
36
38
39
39
41
42
44
46
47
49
50
52
54
56
58
59
60
61
64
66
68
70
71
71
73
75
76
77
79
79
80
81
82
83
84
83
84
85
85
86
88
89
88
89
90
92
94
95
95
96
96
98
99
100
101
102
102
103
103
105
106
107
107
106
106
106
107
107
105
105
103
103
101
101
100
98
95
94
93
92
91
89
87
85
82
81
80
78
76
73
71
70
67
66
63
61
57
56
53
51
49
46
44
41
39
37
35
32
30
28
24
22
21
19
18
16
13
12
10
10
8
7
6
3
2
1
1
-1
-2
-4
-4
-6
-6
-6
-7
-8
-9
-10
-10
-10
-11
-12
-12
-14
-14
-14
-14
-14
-15
-16
-16
-16
-16
-16
-17
-18
-19
-18
-18
-18
-17
-18
-18
-19
-19
-19
-19
-18
-18
-19
-20
-19
-19
-20
-19
-20
-20
-21
-21
-20
-20
-20
-21
-22
-22
-21
-21
-21
-22
-22
-22
-22
-23
-22
-22
-22
-23
-23
-22
-22
-21
-21
-22
-22
-22
-22
-21
-20
-21
-21
-22
-22
-22
-22
-22
-22
-23
-24
-24
-24
-24
-25
-26
-27
-27
-27
-27
-27
-28
-28
-29
-28
-27
-27
-27
-27
-27
-26
-26
-24
-24
-23
-23
-23
-22
-21
-21
-20
-20
-21
-21
-21
-21
-21
-21
-21
-22
-22
-22
-22
-23
-22
-23
-24
-24
-24
-23
-23
-23
-24
-24
-24
-24
-24
-24
-25
-25
-25
-24
-23
-24
-24
-25
-26
-26
-25
-25
-25
-25
-27
-26
-27
-26
-26
-27
-27
-28
-28
-27
-27
-27
-27
-27
-28
-28
-26
-26
-26
-26
-26
-25
-25
-25
-24
-24
-24
-25
-25
-24
-24
-24
-25
-25
-25
-26
-25
-24
-25
-25
-26
-25
-26
-25
-25
-25
-25
-24
-24
-24
-23
-23
-23
-23
-24
-23
-24
-23
-22
-23
-24
-23
-23
-23
-23
-24
-24
-24
-25
-25
-25
-24
-24
-24
-25
-25
-24
-23
-23
-24
-24
-24
-24
-23
-23
-23
-23
-23
-23
-23
-23
-23
-23
-23
-24
-23
-23
-23
-23
-24
-25
-25
-26
-26
-25
-25
-26
-27
-27
-27
-26
-25
-25
-25
-25
-24
-24
-23
-22
-22
-22
-22
-22
-22
-21
-21
-21
-22
-22
-22
-22
-22
-22
-23
-23
-24
-24
-23
-23
-24
-25
-25
-26
-24
-24
-24
-25
-25
-25
-25
-25
-25
-24
-25
-25
-25
-25
-24
-24
-24
-24
-24
-24
-23
-22
-21
-21
-22
-21
-20
-18
-19
-18
-18
-18
-19
-17
-17
-16
-17
-17
-16
-16
-16
-15
-15
-16
-16
-16
-15
-15
-14
-13
-14
-14
-14
-13
-13
-13
-13
-13
-13
-13
-13
-12
-12
-12
-12
-12
-12
-11
-11
-11
-11
-11
-11
-11
-10
-10
-10
-10
-11
-10
-10
-9
-9
-10
-10
-9
-9
-9
-8
-9
-9
-10
-10
-9
-9
-9
-9
-10
-11
-10
-10
-10
-10
-11
-12
-12
-11
-11
-11
-11
-12
-12
-13
-12
-12
-12
-13
-13
-14
-15
-15
-16
-16
-18
-19
-20
-21
-22
-22
-22
-24
-25
-26
-26
-26
-27
-28
-29
-30
-30
-30
-30
-29
-30
-30
-30
-30
-29
-30
-29
-30
-30
-30
-30
-30
-29
-30
-30
-31
-30
-30
-30
-30
-31
-31
-31
-31
-31
-31
-31
-31
-31
-31
-30
-29
-29
-30
-30
-30
-29
-28
-28
-28
-28
-29
-29
-29
-29
-29
-30
-30
-31
-32
-32
-32
-33
-33
-35
-36
-35
-35
-36
-36
-36
-36
-36
-35
-35
-35
-34
-34
-34
-34
-33
-32
-32
-32
-32
-32
-31
-30
-30
-29
-30
-31
-31
-30
-30
-30
-29
-30
-30
-29
-29
-29
-28
-28
-28
-29
-29
-29
-27
-28
-28
-28
-28
-28
-27
-27
-27
-27
-29
-29
-28
-28
-28
-29
-30
-30
-31
-31
-31
-31
-32
-34
-34
-34
-35
-35
-35
-36
-35
-34
-33
-31
-29
-25
-22
-18
-12
-6
3
12
22
32
45
59
74
90
107
125
142
160
179
199
218
235
252
267
283
297
310
320
328
335
340
341
343
340
337
330
322
311
299
286
271
253
234
215
196
176
155
134
111
89
68
48
29
10
-8
-24
-40
-54
-66
-77
-87
-95
-103
-108
-111
-113
-114
-114
-114
-112
-109
-105
-101
-96
-92
-87
-82
-78
-73
-68
-63
-60
-57
-54
-50
-47
-45
-43
-41
-40
-38
-37
-35
-35
-34
-34
-34
-33
-32
-32
-33
-32
-32
-33
-33
-32
-32
-32
-33
-33
-33
-33
-32
-32
-32
-32
-32
-32
-31
-30
-30
-30
-31
-30
-31
-30
-29
-29
-30
-30
-30
-30
-29
-29
-30
-30
-31
-30
-30
-30
-30
-31
-31
-31
-31
-31
-30
-30
-31
-31
-32
-31
-31
-30
-29
-30
-30
-30
-30
-29
-29
-29
-29
-29
-29
-28
-28
-28
-29
-28
-28
-27
-27
-27
-28
-27
-27
-27
-27
-27
-27
-27
-27
-27
-27
-27
-26
-26
-26
-26
-26
-25
-25
-24
-24
-24
-24
-24
-23
-22
-22
-23
-23
-23
-22
-22
-22
-22
-22
-22
-22
-21
-21
-20
-20
-21
-21
-20
-20
-20
-20
-19
-20
-20
-20
-20
-19
-20
-20
-21
-21
-20
-20
-20
-21
-21
-21
-21
-21
-20
-20
-21
-20
-21
-20
-20
-19
-19
-19
-19
-18
-17
-16
-15
-15
-15
-15
-15
-14
-14
-13
-14
-14
-13
-13
-12
-11
-12
-11
-12
-11
-10
-9
-8
-8
-7
-7
-6
-5
-4
-3
-2
-2
-1
-1
0
2
2
2
2
2
3
5
5
6
6
6
7
8
9
10
10
10
11
13
13
15
17
17
18
18
20
21
24
24
25
26
27
29
30
32
33
33
34
35
36
38
39
40
42
43
45
46
48
48
50
51
51
54
55
56
57
59
59
61
63
64
66
66
67
68
70
71
73
74
74
75
77
78
80
81
81
81
82
83
84
85
85
86
87
87
89
89
90
90
91
91
92
93
94
94
93
93
93
94
95
95
95
94
93
92
92
92
92
91
90
88
87
87
86
85
82
80
78
76
75
73
71
68
66
64
63
61
59
55
52
50
47
46
43
42
38
36
33
31
29
27
24
22
20
18
16
14
13
11
8
6
4
3
2
0
-2
-4
-6
-7
-7
-8
-10
-12
-14
-15
-16
-17
-18
-19
-21
-23
-23
-23
-24
-25
-25
-27
-27
-28
-28
-28
-29
-30
-30
-30
-31
-31
-30
-31
-32
-33
-33
-32
-32
-33
-34
-34
-35
-35
-35
-36
-36
-37
-38
-39
-39
-38
-39
-40
-40
-42
-41
-41
-41
-41
-41
-42
-41
-41
-41
-41
-40
-41
-41
-41
-41
-39
-40
-40
-40
-41
-41
-40
-41
-41
-41
-42
-43
-42
-43
-43
-43
-44
-44
-44
-44
-43
-43
-43
-43
-44
-44
-42
-42
-42
-42
-43
-43
-43
-43
-42
-42
-43
-44
-45
-45
-43
-44
-43
-45
-45
-45
-44
-44
-44
-45
-45
-46
-45
-44
-44
-45
-45
-46
-46
-46
-45
-45
-45
-45
-46
-46
-46
-45
-45
-45
-45
-45
-46
-45
-44
-45
-45
-45
-45
-44
-44
-44
-44
-44
-44
-43
-43
-43
-43
-42
-43
-43
-42
-42
-42
-43
-43
-43
-44
-43
-43
-43
-44
-44
-45
-45
-44
-44
-45
-45
-45
-45
-45
-44
-43
-43
-43
-43
-43
-42
-42
-41
-41
-41
-41
-41
-40
-40
-39
-39
-40
-41
-40
-40
-40
-40
-42
-41
-42
-42
-42
-42
-43
-43
-44
-44
-43
-44
-44
-45
-45
-45
-45
-45
-45
-45
-45
-47
-47
-46
-46
-46
-46
-47
-47
-47
-46
-46
-46
-47
-47
-46
-47
-46
-46
-47
-47
-47
-47
-47
-47
-46
-47
-47
-47
-47
-47
-47
-47
-47
-48
-48
-47
-47
-46
-47
-46
-46
-46
-46
-45
-45
-45
-46
-46
-47
-46
-46
-46
-47
-47
-48
-49
-49
-48
-48
-50
-50
-51
-51
-51
-50
-50
-50
-51
-51
-49
-49
-49
-49
-50
-50
-50
-50
-50
-49
-51
-51
-51
-51
-51
-50
-51
-51
-52
-51
-51
-50
-50
-50
-51
-50
-50
-49
-49
-48
-48
-48
-47
-47
-46
-45
-46
-46
-46
-47
-45
-45
-45
-46
-46
-46
-46
-45
-45
-45
-45
-45
-45
-45
-44
-43
-44
-45
-45
-44
-44
-44
-43
-43
-43
-43
-43
-42
-42
-42
-42
-43
-42
-42
-41
-40
-41
-41
-40
-40
-39
-38
-38
-38
-39
-39
-38
-37
-37
-37
-37
-37
-37
-37
-36
-35
-36
-36
-36
-36
-35
-34
-35
-35
-35
-35
-34
-34
-33
-34
-34
-34
-34
-34
-33
-34
-34
-34
-34
-34
-33
-33
-33
-34
-34
-35
-34
-34
-34
-34
-34
-35
-35
-35
-34
-34
-34
-34
-36
-35
-35
-35
-37
-38
-38
-39
-40
-40
-41
-42
-42
-44
-45
-46
-46
-46
-48
-49
-49
-50
-50
-50
-51
-51
-52
-53
-52
-52
-52
-52
-53
-53
-52
-52
-52
-52
-52
-53
-53
-54
-53
-53
-53
-54
-54
-55
-56
-55
-56
-57
-57
-58
-58
-58
-57
-57
-57
-58
-58
-58
-58
-58
-57
-58
-57
-57
-57
-56
-56
-56
-56
-57
-56
-56
-55
-55
-55
-56
-56
-55
-54
-54
-54
-54
-55
-54
-55
-54
-53
-53
-54
-54
-54
-54
-53
-53
-53
-54
-54
-54
-53
-54
-53
-54
-54
-55
-55
-55
-55
-55
-55
-56
-55
-55
-55
-55
-55
-55
-55
-54
-54
-54
-53
-53
-53
-53
-53
-52
-52
-52
-52
-52
-52
-52
-51
-51
-51
-51
-51
-50
-50
-50
-50
-50
-51
-51
-51
-51
-51
-51
-52
-53
-53
-54
-53
-54
-54
-55
-55
-56
-55
-54
-53
-53
-50
-48
-43
-39
-35
-29
-22
-14
-4
8
20
33
47
62
78
95
113
131
149
166
184
202
219
235
250
263
274
284
293
300
305
307
308
306
303
297
290
281
270
257
243
228
212
194
177
157
137
117
98
78
60
41
22
6
-10
-24
-38
-51
-63
-74
-83
-91
-96
-101
-104
-107
-109
-109
-109
-107
-104
-102
-99
-96
-92
-89
-85
-80
-78
-74
-71
-69
-65
-63
-61
-59
-58
-57
-55
-53
-52
-51
-51
-52
-52
-52
-51
-51
-51
-51
-51
-51
-51
-51
-51
-51
-51
-51
-50
-49
-48
-47
-47
-47
-46
-46
-44
-44
-43
-43
-43
-42
-42
-42
-41
-42
-43
-43
-43
-43
-43
-42
-43
-44
-45
-45
-45
-45
-45
-45
-46
-46
-45
-45
-45
-44
-45
-45
-45
-44
-44
-43
-43
-44
-43
-43
-42
-42
-41
-41
-41
-41
-40
-40
-39
-40
-40
-40
-39
-39
-39
-39
-39
-40
-40
-40
-39
-40
-40
-40
-40
-41
-40
-40
-39
-39
-39
-40
-39
-38
-37
-37
-36
-35
-36
-35
-34
-34
-34
-33
-32
-32
-33
-33
-32
-33
-33
-33
-33
-33
-33
-33
-33
-33
-33
-32
-33
-33
-32
-32
-32
-32
-31
-31
-31
-30
-29
-30
-30
-30
-30
-29
-29
-29
-29
-29
-29
-28
-28
-29
-29
-29
-28
-27
-27
-27
-27
-26
-26
-26
-25
-25
-23
-24
-24
-23
-23
-22
-22
-23
-22
-22
-22
-21
-21
-20
-22
-21
-21
-20
-20
-19
-20
-20
-20
-19
-19
-18
-17
-16
-16
-15
-14
-12
-11
-10
-10
-8
-7
-5
-5
-3
-3
-2
-2
-1
0
2
2
3
3
3
4
6
6
6
7
7
8
9
11
12
12
13
14
16
17
19
20
21
