# Simple Text Format
# Sampling Rate (Hz):= 1200.00
# Resolution:= 12
# Labels:= ECG	 V6
# Age:=	80
# Gender:=	Feminino
0
0
1
3
2
2
3
3
5
6
7
7
8
9
10
11
12
14
14
15
17
18
20
20
21
22
23
24
26
28
28
29
30
30
32
34
35
36
37
37
39
40
41
42
42
42
43
44
45
47
49
49
48
50
51
53
53
53
53
53
54
55
56
57
57
57
57
58
59
61
61
62
63
63
65
67
68
69
69
70
70
71
72
72
72
72
71
71
71
71
71
69
67
66
65
64
63
62
59
57
56
54
54
52
50
48
45
44
43
43
41
39
38
36
35
33
32
30
29
27
25
25
23
22
19
18
16
15
14
13
11
9
6
4
2
2
0
-2
-3
-6
-8
-8
-9
-10
-13
-14
-15
-15
-17
-17
-18
-19
-19
-19
-18
-19
-18
-18
-18
-19
-19
-18
-17
-18
-17
-18
-18
-19
-18
-18
-18
-19
-19
-20
-20
-20
-20
-21
-22
-24
-24
-24
-24
-25
-26
-26
-26
-26
-26
-27
-27
-27
-28
-27
-27
-27
-27
-27
-28
-27
-28
-28
-28
-27
-28
-28
-28
-28
-28
-27
-27
-28
-29
-29
-29
-27
-28
-29
-28
-28
-28
-28
-27
-27
-27
-27
-27
-26
-26
-26
-26
-25
-25
-26
-26
-25
-25
-25
-25
-27
-27
-27
-27
-27
-29
-29
-30
-30
-31
-30
-32
-32
-33
-32
-32
-31
-30
-31
-31
-30
-30
-29
-28
-28
-28
-28
-27
-26
-26
-26
-26
-25
-25
-26
-26
-26
-27
-27
-27
-29
-29
-29
-29
-30
-30
-31
-32
-32
-32
-32
-32
-33
-33
-33
-32
-31
-31
-30
-31
-31
-31
-30
-29
-29
-29
-29
-29
-29
-28
-27
-28
-29
-29
-28
-28
-28
-27
-28
-28
-29
-29
-28
-28
-27
-28
-29
-29
-28
-28
-28
-29
-29
-30
-30
-30
-29
-30
-30
-31
-31
-31
-30
-30
-30
-30
-30
-30
-30
-29
-29
-29
-29
-29
-29
-29
-28
-27
-27
-27
-28
-28
-27
-27
-27
-27
-27
-28
-28
-28
-27
-27
-28
-29
-28
-27
-27
-26
-27
-27
-28
-27
-26
-25
-25
-26
-26
-26
-26
-25
-24
-24
-26
-26
-26
-26
-25
-25
-25
-25
-26
-26
-26
-25
-26
-27
-28
-28
-29
-29
-29
-29
-30
-31
-31
-31
-31
-31
-32
-33
-33
-33
-33
-32
-32
-33
-33
-32
-33
-31
-31
-31
-31
-31
-31
-29
-29
-29
-28
-29
-28
-28
-28
-28
-28
-29
-28
-29
-29
-29
-28
-28
-30
-31
-31
-30
-30
-30
-30
-30
-31
-31
-31
-31
-30
-31
-31
-32
-31
-31
-30
-29
-30
-30
-30
-29
-28
-28
-28
-29
-29
-28
-27
-27
-27
-27
-28
-27
-27
-26
-25
-26
-26
-26
-26
-25
-24
-23
-23
-23
-23
-24
-22
-21
-21
-22
-22
-21
-22
-21
-20
-21
-20
-20
-20
-19
-18
-17
-17
-17
-18
-17
-16
-15
-15
-15
-14
-15
-14
-13
-12
-13
-13
-13
-13
-12
-12
-12
-12
-13
-13
-13
-12
-12
-12
-12
-13
-13
-12
-12
-12
-12
-13
-13
-13
-14
-14
-14
-14
-15
-15
-16
-16
-16
-16
-17
-18
-19
-19
-20
-20
-21
-22
-23
-23
-23
-24
-24
-24
-26
-27
-28
-27
-27
-28
-28
-28
-29
-29
-29
-29
-29
-31
-31
-32
-32
-31
-32
-32
-33
-34
-34
-34
-35
-35
-35
-36
-37
-36
-36
-35
-36
-36
-36
-36
-35
-34
-33
-33
-33
-34
-33
-33
-32
-32
-32
-32
-33
-32
-32
-32
-32
-32
-33
-33
-33
-33
-33
-33
-34
-34
-33
-33
-33
-33
-33
-33
-34
-33
-33
-33
-33
-33
-33
-34
-33
-33
-33
-34
-34
-34
-35
-34
-34
-34
-35
-35
-36
-36
-35
-35
-35
-36
-36
-36
-36
-36
-35
-36
-36
-36
-36
-35
-35
-36
-36
-36
-35
-34
-34
-34
-34
-34
-33
-33
-32
-32
-31
-31
-31
-31
-31
-30
-30
-29
-29
-29
-28
-28
-28
-29
-28
-30
-30
-31
-30
-30
-30
-31
-33
-34
-34
-34
-34
-34
-34
-33
-32
-30
-28
-25
-21
-17
-12
-6
1
9
17
27
35
45
57
69
81
93
105
116
128
139
151
161
171
179
187
194
200
207
210
213
214
214
213
211
208
203
197
189
182
174
164
154
143
131
118
106
93
80
68
54
41
28
17
6
-5
-14
-24
-33
-41
-47
-53
-58
-62
-66
-68
-69
-70
-69
-69
-68
-67
-65
-62
-59
-57
-54
-52
-50
-47
-45
-43
-41
-39
-38
-38
-36
-35
-33
-33
-33
-33
-33
-32
-31
-30
-30
-31
-32
-32
-32
-32
-32
-31
-33
-33
-32
-32
-32
-31
-32
-32
-33
-32
-32
-31
-32
-32
-32
-33
-32
-31
-31
-31
-32
-32
-31
-31
-31
-31
-31
-32
-32
-32
-31
-31
-32
-32
-32
-33
-33
-32
-32
-32
-32
-32
-31
-31
-31
-30
-31
-31
-31
-31
-29
-30
-30
-29
-29
-29
-28
-29
-28
-29
-28
-28
-28
-28
-27
-27
-28
-27
-27
-27
-27
-26
-27
-27
-27
-27
-26
-27
-27
-26
-27
-26
-27
-27
-26
-25
-26
-26
-26
-26
-25
-25
-24
-24
-25
-25
-24
-24
-23
-24
-25
-26
-25
-24
-24
-25
-25
-25
-26
-26
-26
-26
-25
-27
-27
-26
-26
-26
-25
-25
-26
-26
-26
-25
-24
-23
-24
-23
-24
-23
-22
-22
-21
-22
-22
-21
-21
-20
-19
-19
-19
-19
-19
-18
-17
-17
-17
-17
-17
-17
-16
-16
-15
-16
-16
-16
-15
-15
-15
-15
-15
-16
-15
-14
-13
-13
-12
-13
-12
-11
-11
-9
-9
-9
-9
-9
-8
-6
-5
-6
-6
-6
-5
-4
-3
-3
-2
-2
-3
-2
-1
0
0
0
0
0
1
2
3
2
3
3
4
6
6
7
8
8
9
10
12
12
13
14
14
15
17
18
19
20
21
22
23
25
26
27
29
29
30
32
32
35
35
35
36
37
39
41
42
43
43
44
45
46
48
50
50
50
51
53
54
55
56
55
55
56
57
58
58
59
59
60
61
62
62
63
63
63
64
63
64
65
65
65
65
65
65
66
65
65
65
64
64
63
63
62
61
61
59
58
58
57
56
55
53
52
51
50
49
47
46
44
43
41
40
39
36
35
33
32
31
30
28
26
25
22
21
20
18
17
14
14
13
11
9
9
7
4
3
1
1
0
-1
-3
-4
-7
-7
-8
-9
-10
-13
-13
-15
-15
-15
-17
-18
-18
-19
-19
-20
-21
-21
-21
-23
-23
-23
-22
-23
-24
-24
-25
-25
-24
-24
-24
-25
-26
-27
-26
-26
-26
-27
-28
-28
-29
-29
-28
-29
-29
-29
-30
-29
-29
-29
-30
-30
-30
-30
-29
-29
-29
-29
-30
-30
-30
-30
-30
-29
-30
-30
-31
-30
-30
-29
-30
-29
-30
-30
-29
-29
-29
-29
-29
-30
-30
-30
-29
-30
-29
-30
-30
-30
-30
-30
-30
-31
-32
-32
-32
-32
-32
-33
-33
-34
-34
-35
-34
-34
-34
-35
-36
-35
-35
-34
-34
-35
-34
-35
-35
-33
-33
-33
-34
-34
-34
-33
-32
-33
-32
-33
-33
-33
-33
-32
-33
-33
-33
-34
-33
-32
-33
-32
-33
-34
-34
-33
-33
-32
-32
-32
-32
-31
-31
-31
-31
-31
-31
-31
-31
-29
-30
-29
-30
-31
-30
-31
-30
-30
-30
-31
-31
-30
-31
-30
-30
-31
-31
-31
-31
-30
-30
-31
-32
-32
-32
-32
-32
-31
-32
-32
-33
-32
-32
-32
-32
-32
-32
-33
-32
-32
-32
-33
-33
-34
-33
-33
-33
-32
-33
-34
-34
-34
-32
-32
-32
-32
-33
-33
-33
-32
-32
-31
-31
-31
-32
-32
-30
-30
-31
-31
-31
-31
-30
-30
-30
-31
-31
-32
-32
-31
-31
-32
-32
-32
-32
-31
-31
-31
-32
-33
-33
-33
-31
-32
-32
-32
-31
-32
-31
-31
-30
-31
-31
-31
-31
-31
-31
-31
-31
-32
-33
-32
-32
-31
-32
-32
-34
-33
-33
-33
-33
-34
-34
-34
-35
-35
-34
-35
-35
-36
-36
-36
-35
-35
-35
-35
-36
-36
-36
-35
-35
-36
-36
-36
-36
-36
-35
-34
-34
-34
-34
-34
-33
-32
-33
-33
-33
-33
-33
-33
-33
-33
-34
-34
-35
-34
-34
-34
-36
-36
-37
-37
-36
-36
-36
-36
-37
-36
-36
-35
-35
-34
-34
-35
-34
-34
-33
-33
-32
-33
-33
-33
-31
-31
-31
-31
-32
-31
-31
-30
-30
-30
-30
-31
-30
-29
-28
-28
-29
-28
-28
-28
-27
-26
-26
-26
-27
-27
-27
-26
-26
-26
-26
-28
-27
-27
-26
-26
-26
-27
-28
-27
-27
-26
-26
-26
-26
-26
-26
-24
-24
-24
-24
-23
-23
-23
-22
-22
-22
-22
-22
-22
-21
-20
-20
-20
-20
-21
-20
-19
-19
-19
-20
-21
-20
-20
-20
-19
-20
-20
-20
-20
-19
-19
-18
-18
-20
-19
-19
-18
-18
-17
-17
-18
-18
-17
-17
-17
-17
-18
-19
-18
-18
-18
-19
-20
-21
-22
-22
-22
-22
-24
-25
-26
-26
-27
-28
-29
-29
-30
-31
-31
-32
-31
-32
-33
-34
-34
-34
-34
-34
-34
-36
-36
-36
-36
-36
-36
-36
-37
-38
-38
-38
-38
-39
-39
-40
-41
-40
-40
-40
-40
-41
-41
-42
-41
-40
-40
-41
-41
-40
-39
-39
-38
-37
-37
-37
-37
-37
-36
-36
-36
-36
-37
-37
-37
-37
-37
-37
-39
-39
-40
-39
-39
-39
-40
-41
-42
-40
-41
-40
-41
-42
-41
-41
-41
-39
-39
-40
-40
-40
-39
-38
-38
-38
-38
-39
-38
-37
-37
-37
-36
-38
-37
-37
-37
-37
-37
-36
-37
-37
-37
-36
-36
-35
-37
-37
-37
-36
-36
-35
-36
-36
-37
-37
-37
-36
-36
-36
-37
-36
-36
-36
-35
-35
-36
-36
-36
-36
-36
-36
-36
-36
-38
-37
-38
-38
-38
-40
-39
-40
-39
-39
-37
-36
-35
-33
-31
-27
-23
-17
-13
-6
0
8
17
26
37
47
58
69
81
94
106
118
128
139
149
159
168
177
184
190
195
199
203
205
206
205
203
200
197
193
188
181
174
166
157
148
138
127
115
104
93
81
70
59
48
36
25
16
7
-2
-10
-17
-24
-31
-36
-40
-44
-47
-49
-52
-53
-54
-53
-53
-52
-52
-51
-50
-48
-46
-44
-43
-42
-42
-40
-39
-37
-35
-35
-34
-33
-32
-32
-31
-30
-30
-31
-30
-30
-30
-30
-28
-29
-30
-30
-30
-30
-30
-30
-31
-32
-32
-32
-31
-31
-32
-32
-32
-32
-32
-32
-32
-32
-33
-33
-33
-32
-32
-33
-33
-33
-33
-33
-33
-32
-33
-34
-34
-34
-33
-34
-34
-33
-33
-33
-32
-32
-32
-32
-32
-31
-30
-31
-30
-30
-30
-28
-28
-28
-27
-27
-27
-28
-27
-27
-27
-28
-27
-28
-28
-28
-28
-27
-27
-28
-28
-29
-29
-28
-28
-28
-28
-28
-28
-28
-27
-27
-28
-27
-28
-28
-28
-28
-29
-29
-28
-28
-28
-28
-28
-28
-27
-27
-28
-28
-26
-26
-25
-24
-25
-25
-25
-24
-24
-24
-24
-24
-25
-24
-23
-23
-23
-23
-24
-24
-24
-22
-23
-23
-23
-23
-23
-22
-22
-22
-22
-23
-24
-23
-22
-22
-22
-23
-23
-23
-22
-22
-21
-21
-21
-21
-21
-20
-19
-19
-19
-19
-18
-18
-17
-16
-15
-15
-16
-15
-14
-13
-13
-13
-13
-13
-13
-11
-11
-11
-11
-11
-10
-10
-9
-8
-7
-7
-7
-7
-5
-5
-5
-5
-5
-6
-6
-4
-4
-3
-4
-4
-3
-3
-2
-1
-1
-1
-1
-1
1
2
2
3
3
4
5
6
8
9
9
9
10
11
13
14
14
15
16
17
17
19
20
21
22
23
24
26
27
28
29
30
31
32
33
35
36
37
37
38
40
42
43
43
43
44
45
46
47
49
49
49
51
52
53
54
55
55
56
56
57
58
60
60
60
60
61
62
64
64
64
64
65
66
67
68
68
68
68
69
69
70
70
69
69
68
68
68
67
66
65
63
62
62
60
60
58
56
54
52
51
50
48
47
44
43
42
41
40
38
37
34
33
31
31
30
28
27
24
23
22
21
20
17
16
14
12
10
9
8
6
3
1
0
-1
-2
-3
-5
-7
-8
-8
-8
-10
-11
-12
-13
-14
-14
-14
-15
-15
-17
-17
-16
-16
-16
-17
-19
-20
-20
-21
-21
-22
-23
-23
-24
-24
-24
-24
-24
-25
-25
-25
-26
-25
-25
-25
-25
-24
-24
-25
-24
-24
-24
-25
-25
-25
-25
-25
-25
-25
-25
-25
-26
-25
-25
-26
-26
-26
-25
-26
-27
-27
-26
-26
-28
-28
-27
-27
-27
-29
-30
-30
-30
-30
-30
-30
-31
-31
-31
-31
-32
-31
-32
-33
-33
-33
-33
-32
-32
-32
-32
-32
-31
-31
-31
-31
-30
-29
-29
-29
-29
-29
-28
-28
-28
-28
-27
-27
-26
-27
-27
-28
-28
-28
-28
-29
-29
-30
-30
-30
-31
-31
-32
-32
-33
-34
-34
-34
-34
-34
-34
-35
-34
-34
-34
-34
-34
-34
-34
-33
-33
-32
-32
-32
-33
-32
-31
-31
-30
-31
-31
-31
-31
-29
-29
-30
-30
-30
-30
-30
-30
-30
-31
-32
-33
-33
-33
-33
-33
-34
-34
-35
-35
-34
-34
-35
-35
-35
-35
-34
-33
-34
-34
-34
-35
-34
-34
-32
-33
-33
-33
-33
-33
-34
-33
-33
-34
-35
-35
-35
-35
-35
-36
-37
-37
-37
-37
-36
-36
-36
-36
-36
-35
-34
-33
-33
-32
-33
-32
-31
-31
-30
-31
-31
-32
-32
-32
-31
-32
-33
-34
-34
-35
-34
-35
-35
-35
-36
-36
-36
-35
-35
-36
-37
-36
-37
-36
-35
-35
-36
-36
-36
-35
-34
-34
-34
-35
-35
-35
-34
-33
-33
-33
-33
-32
-32
-32
-31
-32
-31
-32
-32
-32
-32
-32
-33
-33
-34
-35
-35
-34
-35
-36
-37
-37
-37
-37
-36
-36
-37
-37
-37
-36
-36
-35
-35
-35
-35
-35
-35
-33
-33
-34
-34
-35
-34
-34
-34
-35
-35
-37
-37
-37
-36
-37
-37
-38
-38
-38
-37
-36
-37
-36
-37
-38
-37
-36
-35
-35
-35
-35
-34
-34
-33
-32
-32
-32
-32
-31
-31
-30
-30
-30
-30
-30
-30
-29
-28
-29
-28
-28
-28
-27
-26
-26
-25
-26
-26
-25
-25
-23
-23
-23
-23
-23
-23
-22
-21
-21
-22
-22
-22
-22
-21
-21
-21
-21
-21
-21
-21
-21
-20
-21
-22
-22
-22
-22
-21
-21
-21
-22
-21
-21
-21
-20
-20
-21
-21
-21
-20
-20
-20
-20
-21
-22
-23
-23
-23
-24
-25
-26
-27
-28
-27
-29
-30
-31
-33
-33
-34
-34
-35
-36
-36
-37
-38
-37
-37
-37
-38
-39
-39
-39
-39
-39
-40
-40
-42
-42
-42
-41
-41
-42
-43
-44
-43
-43
-44
-44
-45
-46
-46
-46
-45
-44
-45
-46
-46
-45
-45
-44
-44
-43
-43
-43
-43
-42
-41
-41
-43
-43
-43
-42
-42
-41
-41
-42
-42
-42
-42
-42
-42
-43
-43
-44
-44
-43
-43
-44
-44
-45
-45
-45
-44
-45
-45
-46
-47
-47
-46
-46
-47
-47
-48
-49
-48
-48
-48
-48
-48
-48
-48
-46
-47
-46
-46
-46
-45
-45
-43
-43
-42
-41
-41
-41
-41
-40
-40
-39
-40
-41
-41
-41
-40
-40
-40
-40
-42
-40
-40
-40
-41
-41
-42
-41
-42
-41
-41
-40
-41
-41
-43
-41
-42
-42
-42
-42
-43
-43
-44
-43
-44
-45
-46
-47
-47
-47
-47
-46
-46
-47
-46
-44
-41
-39
-36
-33
-29
-24
-18
-12
-4
4
12
22
32
43
54
66
77
90
101
114
127
138
149
159
168
176
185
192
198
202
205
207
209
209
208
205
202
197
191
184
177
169
159
148
136
125
113
100
86
73
60
47
34
22
11
-2
-12
-23
-32
-41
-49
-56
-62
-67
-71
-74
-75
-77
-78
-78
-78
-77
-75
-73
-70
-68
-67
-64
-61
-59
-55
-53
-50
-49
-48
-46
-44
-43
-42
-41
-40
-40
-39
-38
-37
-38
-37
-38
-38
-38
-38
-39
-39
-40
-40
-40
-40
-40
-40
-41
-41
-41
-41
-41
-40
-41
-41
-41
-40
-40
-38
-38
-38
-38
-38
-38
-37
-37
-37
-36
-37
-37
-37
-36
-36
-36
-37
-37
-36
-36
-36
-36
-36
-36
-36
-35
-35
-35
-35
-35
-34
-34
-34
-34
-34
-34
-34
-34
-34
-34
-33
-33
-34
-34
-34
-34
-34
-34
-34
-34
-34
-35
-35
-35
-35
-36
-35
-35
-35
-35
-36
-36
-36
-35
-35
-34
-35
-35
-34
-34
-34
-34
-34
-34
-32
-33
-33
-33
-33
-33
-32
-32
-32
-32
-34
-33
-33
-33
-33
-34
-34
-34
-33
-33
-33
-33
-33
-33
-33
-32
-31
-31
-30
-31
-30
-29
-29
-27
-27
-27
-28
-28
-28
-27
-27
-27
-28
-29
-29
-29
-28
-28
-28
-30
-29
-30
-29
-29
-28
-28
-29
-28
-27
-27
-25
-25
-25
-25
-24
-22
-21
-20
-20
-20
-19
-19
-18
-18
-18
-18
-18
-19
-18
-17
-18
-18
-18
-18
-17
-17
-16
-16
-16
-17
-17
-16
-15
-14
-12
-12
-11
-11
-10
-9
-7
-7
-7
-5
-5
-3
-2
-1
-1
1
0
2
3
4
4
5
5
6
7
8
9
9
9
10
10
12
13
14
14
14
16
17
18
19
20
20
22
22
23
24
26
27
28
29
31
33
34
36
37
37
38
40
41
43
43
44
45
46
46
47
49
49
49
49
50
51
52
53
53
53
53
54
55
56
56
57
58
58
58
60
60
61
61
61
62
62
63
63
64
64
63
63
63
63
62
62
61
60
59
59
58
57
55
53
53
51
51
49
48
46
44
42
42
40
39
37
34
33
31
29
28
26
24
22
21
18
18
16
14
11
9
8
6
5
3
1
-1
-3
-4
-5
-7
-8
-10
-12
-13
-14
-15
-17
-18
-20
-21
-22
-23
-24
-24
-25
-26
-27
-28
-28
-27
-28
-29
-29
-29
-29
-29
-29
-30
-30
-29
-30
-29
-30
-30
-31
-32
-33
-32
-32
-33
-34
-34
-36
-36
-37
-37
-36
-37
-37
-38
-38
-37
-37
-38
-38
-39
-38
-39
-38
-38
-39
-39
-39
-40
-39
-39
-39
-40
-40
-40
-40
-40
-40
-40
-40
-41
-41
-42
-41
-41
-42
-42
-42
-42
-42
-42
-42
-43
-44
-44
-44
-44
-43
-43
-44
-44
-44
-43
-43
-43
-43
-43
-43
-42
-42
-42
-42
-42
-42
-42
-43
-42
-41
-41
-41
-42
-43
-42
-42
-41
-42
-42
-42
-43
-42
-42
-42
-42
-43
-44
-43
-43
-43
-42
-43
-43
-42
-43
-41
-41
-42
-42
-43
-43
-42
-41
-41
-42
-43
-43
-42
-42
-41
-41
-42
-43
-43
-43
-42
-42
-42
-42
-43
-42
-42
-41
-42
-41
-42
-42
-42
-41
-42
-41
-41
-41
-41
-41
-40
-40
-39
-40
-40
-40
-39
-39
-38
-38
-38
-39
-38
-37
-36
-36
-37
-37
-37
-38
-38
-38
-37
-39
-39
-39
-39
-39
-40
-40
-41
-42
-41
-41
-41
-41
-41
-42
-41
-42
-40
-41
-41
-41
-41
-41
-40
-40
-39
-39
-39
-40
-39
-39
-38
-38
-39
-39
-39
-38
-38
-38
-38
-39
-39
-39
-38
-38
-37
-38
-38
-38
-39
-38
-38
-39
-39
-39
-39
-40
-39
-39
-39
-40
-41
-42
-41
-40
-41
-41
-42
-42
-41
-41
-40
-41
-41
-41
-41
-41
-40
-41
-40
-41
-41
-41
-40
-40
-40
-40
-41
-42
-42
-41
-41
-41
-42
-42
-42
-42
-42
-42
-42
-43
-43
-43
-42
-42
-42
-42
-42
-43
-42
-42
-42
-42
-42
-43
-44
-43
-42
-43
-43
-43
-43
-43
-42
-42
-42
-42
-42
-43
-42
-42
-42
-41
-42
-42
-41
-42
-40
-40
-41
-41
-41
-41
-40
-40
-39
-40
-39
-39
-39
-38
-38
-37
-37
-37
-38
-37
-36
-36
-36
-36
-36
-36
-36
-34
-34
-35
-35
-35
-35
-35
-34
-34
-34
-34
-34
-33
-33
-33
-33
-32
-32
-32
-31
-31
-30
-31
-30
-29
-29
-27
-27
-26
-27
-27
-27
-26
-25
-25
-25
-26
-26
-25
-24
-25
-24
-24
-25
-25
-25
-24
-24
-25
-25
-26
-25
-25
-24
-24
-24
-25
-25
-25
-24
-24
-24
-24
-26
-26
-26
-25
-26
-26
-27
-28
-29
-29
-29
-29
-30
-31
-32
-32
-32
-32
-33
-34
-34
-35
-36
-36
-37
-37
-39
-39
-40
-40
-40
-40
-41
-42
-43
-43
-43
-42
-43
-43
-43
-44
-43
-43
-44
-43
-44
-44
-44
-44
-43
-43
-43
-43
-44
-44
-43
-43
-44
-44
-45
-45
-46
-45
-46
-46
-47
-48
-48
-47
-47
-48
-48
-48
-49
-49
-49
-48
-48
-48
-50
-49
-49
-49
-48
-48
-48
-50
-50
-49
-50
-49
-50
-51
-51
-51
-51
-51
-51
-51
-51
-50
-50
-50
-49
-49
-50
-50
-49
-48
-48
-48
-48
-47
-48
-47
-46
-46
-46
-47
-47
-47
-46
-46
-45
-46
-46
-47
-47
-47
-46
-46
-46
-47
-47
-46
-46
-45
-46
-46
-47
-46
-46
-45
-45
-45
-45
-45
-45
-44
-44
-43
-44
-44
-45
-44
-44
-44
-44
-45
-46
-46
-46
-46
-46
-47
-48
-48
-49
-48
-48
-48
-48
-48
-46
-45
-41
-38
-34
-31
-27
-21
-14
-7
2
10
18
28
38
49
61
73
83
96
107
119
129
140
149
159
165
173
179
185
189
193
195
195
195
195
193
189
183
178
171
164
158
149
140
130
119
107
96
85
72
61
49
37
27
16
5
-5
-15
-22
-31
-38
-44
-49
-54
-58
-62
-65
-66
-66
-67
-67
-67
-67
-66
-63
-61
-61
-59
-58
-56
-54
-51
-50
-49
-48
-47
-46
-46
-44
-44
-43
-43
-43
-43
-42
-42
-42
-43
-43
-44
-43
-42
-42
-42
-42
-42
-43
-42
-42
-41
-41
-43
-42
-42
-41
-41
-41
-42
-42
-41
-41
-41
-40
-40
-40
-41
-41
-41
-40
-40
-40
-41
-41
-41
-41
-41
-42
-42
-43
-44
-43
-42
-42
-42
-43
-43
-44
-44
-43
-43
-43
-43
-43
-43
-42
-41
-41
-40
-41
-41
-40
-40
-39
-39
-40
-41
-40
-40
-39
-40
-40
-40
-40
-41
-41
-41
-41
-41
-42
-42
-42
-41
-40
-40
-40
-41
-41
-40
-40
-40
-40
-41
-40
-40
-40
-39
-39
-38
-40
-39
-39
-38
-38
-37
-37
-37
-38
-36
-36
-36
-35
-36
-36
-36
-35
-34
-34
-35
-36
-35
-35
-34
-34
-34
-34
-34
-34
-34
-33
-32
-33
-33
-33
-33
-33
-32
-32
-33
-34
-34
-34
-34
-34
-33
-34
-35
-35
-34
-33
-33
-34
-33
-34
-33
-33
-32
-31
-31
-31
-30
-29
-29
-28
-27
-26
-27
-26
-25
-25
-25
-24
-23
-23
-22
-22
-21
-21
-21
-22
-21
-21
-20
-19
-19
-19
-19
-19
-19
-18
-17
-17
-17
-18
-17
-16
-15
-15
-14
-14
-13
-12
-11
-11
-10
-9
-10
-9
-7
-7
-6
-5
-5
-5
-3
-3
-2
-1
-1
-1
1
1
2
4
5
6
6
7
8
9
11
12
13
14
14
16
18
19
19
20
22
23
24
26
27
28
28
29
30
32
33
33
34
34
36
36
38
39
39
40
40
42
44
44
45
46
46
46
47
47
48
48
48
47
48
49
49
50
50
49
49
49
50
50
50
50
50
49
51
51
50
51
50
49
49
49
49
49
49
47
46
45
44
44
43
41
40
38
36
35
34
32
29
27
26
24
23
21
18
16
13
12
10
9
7
5
3
1
0
-1
-3
-4
-5
-7
-9
-9
-10
-12
-13
-14
-14
-15
-16
-16
-17
-18
-20
-21
-21
-21
-22
-23
-25
-27
-28
-28
-29
-30
-32
-33
-33
-34
-34
-34
-35
-35
-36
-37
-37
-37
-36
-36
-37
-38
-37
-37
-36
-36
-37
-37
-37
-37
-36
-36
-36
-36
-37
-37
-37
-36
-36
-36
-37
-37
-37
-36
-36
-36
-36
-38
-37
-37
-37
-38
-38
-40
-40
-41
-41
-41
-41
-42
-42
-42
-43
-42
-42
-42
-43
-42
-43
-43
-41
-41
-40
-41
-41
-41
-40
-40
-39
-39
-39
-39
-39
-39
-38
-38
-38
-39
-38
-38
-38
-37
-37
-37
-38
-38
-38
-37
-37
-38
-38
-39
-39
-38
-39
-39
-41
-41
-42
-42
-41
-41
-42
-42
-42
-43
-41
-41
-41
-42
-41
-42
-42
-42
-41
-40
-41
-41
-41
-40
-40
-39
-40
-40
-41
-41
-41
-41
-40
-40
-42
-42
-42
-42
-41
-41
-42
-42
-42
-42
-42
-42
-42
-42
-43
-43
-42
-42
-42
-42
-43
-43
-43
-43
-42
-42
-44
-44
-45
-44
-43
-42
-43
-43
-44
-44
-43
-42
-42
-42
-42
-42
-43
-42
-42
-42
-42
-41
-41
-41
-41
-41
-40
-41
-42
-42
-42
-41
-42
-42
-43
-44
-44
-43
-43
-43
-44
-44
-44
-44
-43
-43
-43
-43
-43
-42
-41
-41
-40
-40
-40
-40
-40
-39
-39
-39
-39
-39
-39
-39
-39
-39
-39
-41
-41
-42
-42
-41
-41
-42
-42
-43
-44
-43
-43
-44
-45
-45
-45
-45
-44
-45
-45
-45
-45
-44
-44
-43
-43
-43
-43
-43
-42
-42
-41
-42
-43
-43
-43
-42
-42
-42
-42
-42
-43
-43
-42
-41
-41
-41
-42
-42
-42
-40
-40
-40
-40
-40
-39
-39
-38
-38
-38
-38
-39
-40
-38
-39
-38
-39
-40
-41
-41
-42
-41
-42
-43
-44
-43
-43
-44
-43
-43
-44
-44
-44
-43
-42
-41
-42
-42
-42
-42
-41
-39
-39
-39
-39
-39
-38
-38
-37
-37
-37
-37
-37
-36
-36
-35
-35
-36
-36
-36
-35
-33
-34
-34
-35
-35
-34
-34
-33
-32
-32
-33
-31
-31
-31
-29
-29
-29
-29
-28
-28
-28
-26
-27
-27
-27
-26
-25
-25
-25
-26
-26
-26
-25
-25
-25
-25
-25
-26
-26
-25
-26
-26
-25
-25
-25
-25
-26
-25
-25
-26
-25
-25
-25
-24
-23
-24
-24
-24
-24
-23
-23
-23
-23
-24
-24
-24
-24
-25
-24
-26
-26
-27
-27
-28
-29
-30
-31
-31
-33
-34
-35
-35
-37
-38
-38
-39
-39
-39
-40
-40
-41
-41
-42
-41
-42
-42
-43
-44
-43
-43
-43
-43
-43
-43
-43
-42
-42
-41
-41
-41
-42
-43
-43
-42
-42
-42
-43
-43
-44
-44
-44
-45
-46
-46
-47
-48
-47
-47
-48
-48
-49
-49
-48
-48
-48
-47
-48
-48
-48
-46
-45
-44
-44
-44
-43
-43
-42
-42
-41
-41
-41
-41
-41
-41
-41
-41
-41
-42
-42
-42
-42
-43
-43
-44
-45
-44
-44
-44
-44
-46
-46
-46
-45
-45
-44
-44
-45
-45
-45
-44
-44
-44
-44
-44
-44
-43
-42
-42
-42
-43
-44
-43
-43
-43
-42
-43
-42
-42
-42
-42
-42
-41
-43
-43
-42
-42
-42
-41
-41
-41
-42
-42
-40
-41
-40
-40
-41
-41
-41
-42
-42
-42
-44
-44
-45
-45
-45
-46
-45
-45
-46
-45
-43
-41
-38
-37
-33
-30
-25
-19
-12
-5
3
10
21
31
42
54
65
76
88
100
113
124
136
146
155
165
173
183
190
195
200
202
204
206
206
206
204
199
195
189
183
177
168
158
148
136
124
112
100
88
74
61
48
35
23
11
0
-12
-22
-32
-40
-47
-54
-60
-66
-70
-73
-74
-75
-76
-77
-77
-76
-75
-73
-71
-69
-67
-66
-63
-60
-58
-55
-53
-52
-51
-49
-46
-44
-43
-42
-41
-40
-38
-37
-36
-35
-35
-35
-34
-34
-33
-33
-33
-33
-34
-34
-34
-34
-34
-35
-35
-35
-35
-34
-34
-35
-35
-36
-36
-36
-36
-36
-37
-37
-37
-36
-37
-36
-36
-36
-36
-36
-36
-35
-34
-34
-35
-35
-35
-35
-34
-34
-33
-35
-34
-34
-34
-33
-33
-33
-34
-34
-34
-33
-33
-32
-33
-33
-32
-32
-31
-31
-32
-31
-31
-31
-30
-29
-29
-29
-29
-30
-29
-29
-28
-29
-28
-28
-28
-28
-26
-26
-27
-27
-27
-28
-26
-26
-25
-26
-26
-26
-26
-26
-25
-25
-26
-26
-25
-25
-24
-24
-25
-25
-26
-26
-25
-25
-25
-25
-26
-26
-26
-25
-25
-25
-25
-25
-25
-25
-24
-23
-24
-24
-24
-24
-23
-23
-23
-23
-23
-23
-23
-22
-22
-22
-23
-23
-23
-23
-21
-22
-22
-22
-21
-21
-21
-20
-19
-20
-19
-19
-18
-17
-16
-16
-16
-16
-15
-14
-13
-13
-13
-13
-13
-13
-12
-12
-11
-11
-12
-11
-10
-10
-9
-9
-8
-8
-8
-7
-6
-5
-5
-5
-4
-4
-3
-2
-2
-2
-2
-2
0
1
2
2
2
1
2
3
4
3
4
4
4
5
6
8
8
9
9
11
12
14
15
17
17
18
19
21
22
24
24
26
26
27
29
31
31
32
33
34
36
37
39
39
40
40
41
42
43
45
45
46
47
48
50
51
52
52
53
54
55
57
58
59
59
60
61
62
64
64
65
64
66
66
68
69
69
70
70
70
72
72
73
74
75
75
75
76
76
77
77
76
75
76
75
75
74
72
70
70
68
68
67
65
63
62
60
58
58
57
54
52
51
49
48
47
46
45
43
41
40
39
38
36
35
32
31
30
29
27
25
23
20
19
17
15
14
12
10
8
6
6
5
2
1
0
-1
-2
-3
-3
-4
-5
-6
-7
-7
-8
-8
-9
-11
-11
-12
-12
-13
-15
-17
-18
-19
-19
-19
-20
-21
-23
-24
-24
-24
-23
-24
-25
-25
-25
-25
-24
-24
-24
-25
-25
-25
-24
-24
-24
-25
-25
-25
-26
-25
-26
-26
-26
-27
-27
-27
-27
-27
-27
-28
-28
-28
-28
-27
-27
-28
-28
-27
-27
-27
-27
-28
-27
-27
-28
-28
-28
-27
-28
-29
-30
-30
-29
-30
-30
-30
-31
-32
-32
-32
-31
-31
-32
-32
-31
-31
-30
-31
-30
-31
-31
-31
-30
-30
-30
-30
-30
-31
-31
-31
-31
-31
-31
-31
-31
-31
-30
-29
-30
-30
-31
-30
-30
-29
-29
-30
-30
-29
-29
-29
-28
-28
-28
-28
-28
-28
-27
-27
-27
-27
-27
-26
-26
-25
-25
-26
-27
-27
-27
-27
-27
-28
-28
-29
-29
-28
-28
-28
-29
-29
-30
-30
-29
-29
-29
-29
-29
-29
-28
-27
-27
-27
-27
-27
-27
-26
-25
-26
-25
-26
-27
-27
-25
-26
-25
-25
-26
-26
-25
-25
-25
-24
-25
-24
-24
-24
-22
-21
-22
-22
-22
-22
-21
-22
-22
-22
-23
-23
-22
-23
-22
-23
-24
-25
-24
-24
-24
-24
-24
-24
-25
-25
-25
-25
-25
-26
-26
-26
-26
-25
-25
-26
-27
-27
-28
-27
-26
-27
-27
-27
-28
-27
-27
-26
-27
-27
-27
-26
-27
-25
-25
-25
-25
-26
-25
-25
-24
-23
-24
-25
-25
-25
-24
-24
-24
-25
-25
-25
-26
-26
-26
-27
-27
-28
-28
-28
-28
-28
-28
-30
-30
-30
-30
-30
-30
-31
-31
-31
-31
-30
-30
-30
-30
-31
-30
-30
-30
-30
-30
-30
-30
-30
-29
-29
-29
-29
-29
-29
-29
-28
-28
-28
-28
-27
-27
-26
-26
-25
-26
-26
-26
-25
-25
-24
-24
-25
-26
-25
-25
-24
-25
-25
-26
-26
-26
-26
-26
-25
-25
-26
-26
-26
-26
-25
-25
-25
-26
-26
-25
-24
-25
-24
-25
-24
-24
-23
-21
-21
-22
-22
-22
-21
-20
-19
-18
-18
-18
-17
-16
-15
-14
-14
-14
-15
-14
-14
-13
-12
-13
-13
-14
-14
-14
-14
-14
-14
-14
-14
-14
-14
-13
-12
-12
-13
-13
-13
-12
-11
-12
-12
-12
-13
-12
-11
-12
-12
-13
-13
-13
-14
-13
-14
-16
-16
-16
-16
-16
-16
-17
-17
-18
-18
-17
-18
-18
-19
-19
-20
-20
-20
-21
-22
-22
-23
-22
-23
-23
-24
-24
-26
-27
-27
-28
-29
-29
-30
-31
-32
-32
-31
-32
-32
-34
-33
-33
-33
-32
-31
-31
-32
-32
-31
-31
-30
-31
-31
-31
-32
-32
-31
-31
-31
-33
-33
-34
-33
-33
-33
-34
-34
-35
-35
-35
-35
-35
-35
-36
-35
-35
-34
-34
-35
-34
-35
-35
-34
-33
-33
-33
-34
-34
-34
-33
-33
-33
-34
-35
-35
-34
-34
-35
-36
-36
-37
-37
-37
-37
-36
-37
-37
-37
-37
-36
-36
-35
-35
-36
-35
-34
-34
-33
-33
-33
-32
-32
-30
-30
-30
-30
-31
-30
-30
-30
-29
-30
-30
-30
-31
-31
-31
-30
-31
-32
-32
-32
-32
-32
-32
-32
-33
-33
-33
-32
-31
-32
-33
-33
-33
-32
-32
-32
-32
-33
-33
-33
-32
-33
-32
-33
-34
-33
-32
-32
-31
-30
-29
-27
-25
-22
-17
-13
-9
-5
3
9
17
26
35
45
54
66
77
89
101
113
124
134
146
156
167
176
183
190
196
202
207
210
212
213
211
209
206
202
198
192
184
176
167
158
149
139
127
115
102
90
78
67
54
43
30
20
9
0
-8
-17
-25
-34
-40
-45
-49
-52
-55
-56
-57
-58
-58
-57
-57
-55
-54
-53
-51
-48
-46
-44
-42
-41
-40
-38
-36
-34
-34
-33
-33
-32
-31
-30
-30
-30
-31
-31
-31
-31
-30
-31
-31
-31
-31
-30
-30
-31
-31
-31
-32
-31
-31
-29
-29
-29
-30
-29
-29
-27
-28
-27
-28
-28
-28
-27
-27
-27
-28
-29
-29
-29
-29
-29
-28
-29
-30
-30
-30
-29
-29
-28
-30
-30
-29
-28
-28
-27
-27
-27
-28
-27
-26
-26
-26
-26
-26
-26
-26
-26
-25
-26
-27
-27
-27
-27
-27
-26
-26
-27
-26
-26
-25
-25
-25
-25
-25
-25
-24
-24
-23
-22
-22
-23
-22
-22
-22
-21
-22
-23
-23
-23
-23
-23
-24
-24
-24
-25
-25
-25
-24
-25
-26
-26
-26
-25
-25
-25
-25
-25
-25
-24
-23
-22
-22
-21
-22
-21
-20
-19
-18
-19
-18
-18
-18
-17
-16
-15
-16
-16
-16
-16
-16
-15
-15
-15
-16
-16
-16
-16
-16
-16
-17
-17
-17
-17
-16
-16
-16
-17
-16
-15
-15
-15
-13
-13
-14
-13
-13
-11
-10
-10
-10
-10
-10
-9
-9
-8
-9
-9
-9
-9
-8
-8
-8
-8
-8
-7
-7
-6
-6
-6
-5
-6
-4
-4
-2
-1
0
0
1
3
4
5
6
6
6
7
7
9
9
10
9
10
11
11
12
13
13
14
14
15
16
16
17
17
17
18
19
21
22
22
24
24
25
26
27
27
28
28
29
30
31
32
33
34
34
35
37
38
40
40
42
43
43
45
48
49
50
51
52
53
55
57
58
58
59
60
61
62
63
64
64
65
65
67
68
68
68
69
70
71
72
73
74
74
73
74
75
76
76
76
75
75
75
75
76
75
74
72
72
71
71
71
70
69
68
67
67
66
65
65
63
61
60
59
59
57
56
54
52
51
51
48
47
45
42
41
40
38
37
35
32
30
28
27
25
24
22
20
18
17
16
14
14
11
10
7
7
7
5
4
3
1
0
-1
-1
-1
-2
-4
-4
-5
-5
-5
-6
-7
-8
-8
-9
-9
-10
-11
-12
-13
-13
-14
-14
-15
-16
-17
-18
-18
-17
-17
-19
-19
-20
-19
-19
-19
-19
-19
-19
-19
-19
-19
-18
-18
-19
-19
-20
-19
-19
-19
-19
-20
-20
-20
-20
-19
-19
-20
-20
-20
-20
-20
-19
-19
-19
-19
-20
-20
-19
-18
-19
-20
-20
-20
-20
-20
-19
-20
-20
-20
-21
-21
-21
-21
-22
-22
-23
-23
-23
-22
-22
-23
-23
-23
-23
-23
-22
-22
-23
-24
-24
-23
-23
-22
-22
-22
-23
-22
-21
-21
-21
-21
-23
-23
-22
-22
-22
-22
-23
-24
-23
-23
-23
-23
-24
-24
-25
-24
-24
-24
-23
-23
-24
-24
-24
-22
-22
-22
-22
-22
-22
-22
-20
-20
-21
-20
-20
-20
-20
-20
-20
-20
-20
-21
-20
-20
-20
-20
-21
-21
-21
-21
-21
-21
-22
-22
-22
-22
-21
-21
-22
-22
-22
-23
-23
-22
-23
-23
-24
-25
-25
-24
-23
-23
-25
-26
-26
-26
-25
-25
-25
-25
-26
-25
-25
-23
-23
-23
-24
-23
-23
-23
-22
-22
-22
-22
-21
-21
-21
-20
-20
-20
-21
-22
-21
-21
-22
-22
-23
-23
-24
-23
-24
-24
-25
-25
-27
-25
-26
-26
-26
-26
-27
-27
-27
-26
-26
-26
-26
-26
-26
-26
-25
-25
-25
-25
-25
-25
-23
-24
-23
-24
-24
-23
-23
-22
-22
-22
-24
-24
-24
-24
-23
-24
-24
-26
-26
-25
-25
-25
-25
-26
-27
-27
-27
-26
-26
-27
-28
-28
-28
-26
-26
-26
-27
-27
-27
-27
-26
-26
-26
-27
-27
-26
-26
-25
-25
-26
-26
-27
-27
-26
-26
-26
-26
-26
-27
-26
-26
-25
-25
-26
-26
-27
-25
-25
-25
-25
-25
-26
-25
-25
-25
-25
-26
-26
-26
-25
-25
-25
-26
-26
-26
-27
-27
-26
-27
-28
-28
-29
-29
-28
-28
-28
-29
-29
-29
-29
-28
-28
-27
-28
-27
-27
-26
-25
-24
-24
-23
-24
-23
-22
-21
-21
-21
-21
-21
-20
-20
-20
-19
-20
-21
-21
-21
-21
-21
-21
-22
-23
-22
-22
-22
-22
-22
-22
-21
-20
-19
-19
-19
-17
-17
-17
-16
-15
-14
-14
-14
-14
-13
-12
-12
-12
-11
-11
-11
-11
-10
-10
-10
-11
-11
-11
-10
-10
-10
-10
-10
-10
-11
-10
-10
-11
-11
-11
-12
-12
-11
-12
-12
-13
-14
-15
-14
-14
-15
-16
-17
-17
-18
-18
-19
-19
-21
-21
-21
-21
-21
-21
-22
-23
-24
-25
-25
-25
-25
-26
-27
-27
-27
-28
-28
-29
-30
-31
-32
-32
-32
-32
-32
-34
-34
-34
-34
-35
-35
-36
-36
-36
-36
-36
-35
-35
-36
-37
-37
-37
-36
-36
-36
-36
-36
-36
-35
-35
-35
-35
-35
-35
-35
-34
-33
-34
-34
-34
-34
-34
-32
-32
-32
-33
-32
-32
-32
-32
-32
-32
-32
-33
-33
-32
-31
-32
-32
-33
-33
-33
-33
-33
-33
-33
-34
-34
-34
-34
-33
-34
-34
-34
-34
-34
-33
-33
-35
-35
-34
-33
-33
-33
-33
-34
-34
-34
-33
-33
-33
-33
-34
-35
-34
-34
-33
-34
-34
-35
-35
-34
-34
-34
-34
-34
-34
-34
-33
-32
-31
-31
-31
-31
-31
-30
-29
-29
-30
-31
-31
-31
-31
-31
-32
-33
-34
-35
-34
-34
-36
-36
-36
-37
-36
-35
-32
-31
-28
-25
-21
-16
-10
-3
4
12
19
28
39
50
61
72
82
94
105
117
129
139
149
158
167
175
183
189
195
200
203
205
207
208
206
204
201
195
191
186
179
172
162
153
143
134
123
112
100
87
76
64
52
41
30
18
7
-3
-12
-20
-28
-35
-41
-47
-51
-54
-56
-57
-59
-60
-61
-60
-59
-58
-57
-55
-53
-52
-49
-47
-45
-43
-41
-40
-38
-37
-35
-33
-33
-33
-32
-30
-30
-29
-28
-29
-29
-29
-29
-28
-29
-29
-30
-31
-31
-30
-31
-31
-32
-31
-32
-32
-32
-32
-31
-32
-32
-32
-32
-32
-30
-30
-31
-31
-31
-29
-29
-28
-28
-28
-27
-28
-27
-26
-26
-25
-26
-27
-26
-26
-26
-26
-27
-28
-28
-28
-28
-28
-29
-28
-30
-30
-29
-29
-29
-29
-29
-30
-29
-29
-28
-28
-28
-29
-29
-28
-27
-27
-28
-28
-28
-28
-28
-27
-27
-27
-27
-28
-28
-27
-26
-27
-27
-26
-26
-25
-25
-24
-24
-24
-24
-23
-23
-23
-23
-23
-23
-24
-24
-24
-24
-24
-25
-25
-26
-25
-24
-24
-24
-24
-25
-24
-24
-23
-23
-23
-23
-24
-24
-23
-22
-22
-22
-23
-23
-22
-22
-22
-22
-22
-22
-22
-21
-21
-21
-21
-21
-21
-21
-20
-19
-19
-20
-19
-19
-17
-17
-17
-16
-16
-16
-16
-15
-14
-14
-14
-14
-14
-13
-13
-13
-13
-13
-14
-13
-13
-13
-12
-13
-13
-14
-12
-12
-11
-11
-11
-11
-10
-10
-9
-9
-8
-9
-8
-8
-8
-7
-6
-6
-7
-6
-6
-5
-5
-5
-5
-5
-4
-4
-3
-2
-2
-1
-1
0
2
4
5
5
6
7
7
9
11
12
14
15
16
16
18
20
20
20
22
22
23
25
26
27
27
29
30
32
34
35
36
36
37
40
42
43
44
45
46
47
49
51
52
52
52
52
52
54
54
54
55
54
55
56
56
57
57
57
57
58
59
61
61
62
62
62
63
65
66
67
68
68
69
69
70
71
70
71
71
71
71
72
71
71
70
69
68
68
66
65
64
62
60
59
57
55
54
52
50
48
46
45
44
41
40
37
35
34
33
31
29
27
25
25
23
21
20
18
17
15
14
13
13
11
9
7
7
5
4
3
2
-1
-2
-3
-4
-6
-7
-8
-10
-11
-11
-12
-13
-14
-16
-17
-18
-19
-19
-20
-20
-22
-23
-23
-23
-24
-25
-26
-26
-27
-27
-27
-27
-28
-29
-29
-29
-29
-29
-29
-29
-29
-30
-30
-29
-29
-30
-31
-31
-32
-32
-32
-32
-33
-34
-34
-34
-34
-34
-34
-36
-36
-37
-37
-36
-36
-36
-36
-36
-36
-35
-35
-34
-34
-34
-34
-34
-33
-33
-32
-32
-32
-33
-32
-32
-32
-31
-32
-32
-32
-32
-32
-32
-32
-33
-33
-33
-33
-33
-33
-33
-34
-34
-34
-34
-34
-35
-35
-35
-35
-35
-35
-35
-36
-36
-37
-37
-37
-36
-37
-38
-38
-39
-38
-38
-38
-39
-39
-40
-40
-40
-38
-39
-38
-39
-39
-39
-37
-36
-37
-37
-37
-37
-36
-35
-34
-34
-35
-35
-35
-36
-35
-35
-36
-36
-36
-36
-37
-37
-37
-37
-38
-38
-37
-39
-39
-38
-38
-38
-38
-39
-38
-37
-37
-37
-37
-37
-36
-36
-36
-36
-36
-35
-36
-35
-35
-35
-36
-36
-36
-36
-36
-36
-36
-36
-36
-36
-35
-36
-36
-36
-35
-35
-35
-35
-35
-35
-35
-34
-35
-36
-35
-35
-35
-36
-37
-37
-37
-37
-38
-38
-38
-38
-38
-38
-38
-39
-39
-39
-39
-38
-39
-39
-38
-38
-38
-38
-37
-37
-37
-36
-37
-37
-36
-36
-36
-36
-36
-37
-37
-36
-37
-37
-38
-38
-38
-39
-39
-39
-40
-41
-40
-41
-41
-42
-41
-42
-41
-41
-41
-41
-41
-40
-41
-40
-40
-39
-38
-39
-39
-38
-38
-38
-38
-38
-37
-38
-38
-39
-39
-39
-38
-39
-39
-39
-40
-39
-40
-40
-40
-40
-40
-40
-40
-40
-40
-40
-40
-40
-40
-40
-41
-41
-40
-41
-41
-42
-41
-41
-41
-41
-41
-42
-42
-41
-41
-41
-41
-41
-41
-41
-39
-39
-40
-40
-40
-39
-39
-38
-38
-38
-38
-38
-38
-37
-36
-36
-37
-37
-36
-36
-35
-35
-36
-36
-36
-36
-34
-34
-35
-35
-35
-35
-36
-35
-35
-35
-35
-36
-36
-34
-34
-34
-34
-34
-34
-33
-33
-32
-32
-32
-33
-32
-32
-30
-30
-29
-30
-30
-29
-28
-27
-27
-27
-27
-27
-26
-27
-25
-25
-26
-26
-27
-27
-26
-26
-26
-27
-27
-26
-27
-26
-27
-28
-28
-29
-29
-29
-29
-29
-31
-31
-32
-32
-32
-33
-33
-35
-35
-36
-36
-36
-36
-37
-39
-38
-39
-39
-39
-41
-42
-43
-44
-45
-44
-46
-46
-48
-48
-49
-49
-49
-50
-51
-51
-52
-51
-51
-51
-51
-52
-51
-52
-51
-51
-51
-51
-50
-51
-51
-51
-50
-50
-51
-52
-51
-52
-51
-51
-50
-52
-52
-52
-52
-50
-50
-50
-51
-51
-51
-50
-50
-50
-50
-50
-51
-50
-50
-49
-50
-50
-51
-51
-51
-51
-51
-52
-51
-52
-52
-52
-51
-51
-52
-52
-52
-51
-50
-51
-51
-52
-51
-51
-51
-51
-50
-50
-50
-50
-49
-49
-49
-48
-49
-49
-49
-48
-48
-47
-47
-48
-48
-48
-47
-47
-48
-48
-49
-49
-49
-49
-47
-48
-49
-49
-49
-49
-48
-48
-48
-49
-49
-49
-48
-48
-48
-47
-48
-47
-48
-46
-46
-46
-47
-48
-48
-48
-48
-48
-49
-49
-51
-50
-51
-50
-49
-48
-48
-47
-44
-42
-39
-35
-31
-26
-20
-13
-5
4
13
23
33
44
55
67
79
90
102
113
124
135
146
155
163
171
178
183
188
193
194
195
195
193
191
188
184
178
171
163
156
146
137
126
114
101
89
77
65
53
40
28
15
4
-7
-17
-26
-35
-44
-51
-57
-63
-67
-71
-74
-76
-78
-79
-78
-77
-76
-75
-75
-72
-70
-67
-65
-63
-62
-60
-58
-56
-54
-53
-52
-52
-51
-50
-48
-48
-47
-48
-48
-48
-47
-46
-46
-47
-47
-47
-47
-47
-46
-46
-46
-47
-46
-46
-45
-45
-45
-46
-46
-46
-46
-46
-45
-46
-47
-48
-47
-47
-47
-46
-46
-48
-47
-47
-47
-46
-47
-47
-48
-47
-46
-46
-45
-45
-46
-46
-45
-45
-45
-45
-45
-45
-45
-45
-44
-44
-44
-45
-44
-44
-44
-43
-43
-44
-44
-44
-45
-43
-43
-43
-43
-44
-44
-44
-43
-43
-43
-43
-44
-44
-43
-43
-42
-43
-43
-43
-43
-42
-42
-41
-42
-42
-42
-41
-40
-40
-41
-41
-41
-41
-41
-41
-40
-41
-41
-42
-42
-42
-42
-41
-41
-42
-43
-43
-42
-42
-43
-44
-44
-44
-44
-43
-43
-43
-43
-43
-42
-41
-40
-40
-39
-40
-39
-38
-38
-37
-37
-37
-37
-37
-36
-36
-36
-36
-36
-36
-36
-35
-35
-35
-35
-36
-35
-35
-34
-34
-34
-34
-33
-32
-32
-31
-31
-31
-31
-31
-30
-29
-29
-29
-28
-28
-28
-26
-26
-25
-25
-25
-25
-25
-24
-23
-23
-24
-24
-25
-24
-24
-23
-24
-23
-24
-24
-23
-23
-23
-22
-22
-22
-22
-20
-19
-18
-18
-17
-16
-15
-13
-11
-11
-9
-9
-8
-6
-5
-4
-2
-3
-2
-1
-1
1
2
2
3
4
4
5
7
7
8
8
9
10
12
13
13
14
15
16
17
19
20
21
22
23
25
26
27
29
30
30
31
33
34
34
35
36
37
38
38
40
41
42
42
43
44
45
47
47
47
47
48
49
50
50
51
51
51
51
51
51
52
52
51
51
51
51
52
51
50
49
49
49
49
49
48
47
46
45
45
44
43
42
40
40
39
39
38
37
35
33
33
32
31
29
28
26
24
22
21
20
18
16
15
12
11
10
8
6
5
2
1
-1
-2
-4
-5
-7
-9
-10
-11
-11
-13
-14
-16
-17
-18
-18
-19
-20
-22
-23
-23
-25
-25
-26
-28
-30
-31
-32
-33
-33
-34
-35
-36
-37
-38
-38
-38
-38
-39
-39
-40
-39
-39
-38
-38
-40
-39
-39
-39
-37
-38
-38
-39
-39
-38
-38
-38
-38
-39
-40
-40
-40
-40
-41
-40
-42
-43
-43
-43
-42
-43
-43
-44
-44
-45
-43
-43
-43
-44
-44
-44
-44
-43
-43
-43
-43
-43
-43
-43
-42
-41
-41
-42
-42
-41
-41
-41
-41
-41
-41
-41
-40
-40
-40
-41
-41
-41
-42
-41
-41
-42
-42
-42
-43
-43
-43
-43
-43
-43
-44
-43
-43
-43
-43
-42
-43
-43
-43
-43
-42
-42
-42
-43
-42
-42
-42
-41
-41
-42
-42
-42
-42
-41
-41
-41
-42
-42
-42
-42
-41
-41
-42
-42
-42
-42
-41
-41
-41
-42
-42
-43
-42
-42
-41
-42
-43
-44
-44
-44
-44
-44
-44
-45
-45
-45
-45
-45
-45
-45
-46
-45
-45
-44
-44
-43
-45
-43
-43
-43
-41
-41
-41
-42
-42
-41
-41
-41
-41
-41
-42
-42
-42
-42
-41
-42
-43
-43
-43
-43
-43
-43
-43
-43
-44
-44
-42
-43
-43
-43
-43
-43
-43
-42
-42
-42
-42
-42
-42
-42
-42
-42
-42
-42
-42
-42
-41
-40
-41
-42
-42
-42
-42
-42
-41
-42
-43
-44
-44
-44
-43
-43
-44
-44
-44
-44
-44
-44
-44
-44
-44
-43
-43
-42
-42
-42
-42
-42
-42
-42
-41
-42
-42
-41
-41
-41
-40
-40
-40
-40
-40
-41
-40
-40
-39
-40
-40
-40
-40
-40
-39
-38
-39
-40
-40
-39
-39
-39
-39
-39
-40
-40
-39
-39
-40
-40
-41
-41
-42
-42
-42
-42
-43
-43
-44
-44
-43
-43
-43
-44
-44
-44
-44
-44
-43
-43
-44
-44
-43
-42
-42
-42
-42
-42
-42
-42
-41
-41
-41
-41
-41
-41
-41
-41
-41
-41
-42
-42
-42
-41
-41
-41
-41
-41
-41
-40
-40
-39
-39
-39
-39
-38
-37
-36
-36
-35
-35
-36
-36
-35
-34
-34
-34
-35
-34
-34
-33
-33
-32
-33
-32
-32
-32
-31
-31
-30
-31
-30
-30
-30
-28
-29
-28
-28
-28
-28
-27
-27
-27
-27
-28
-28
-27
-28
-28
-27
-28
-28
-29
-28
-28
-28
-28
-28
-28
-28
-28
-27
-26
-26
-26
-26
-25
-25
-25
-25
-25
-24
-24
-23
-22
-22
-21
-22
-22
-21
-20
-20
-21
-22
-23
-24
-24
-25
-26
-28
-29
-30
-32
-33
-34
-35
-36
-39
-39
-40
-41
-41
-42
-42
-43
-45
-43
-44
-44
-44
-45
-45
-44
-44
-43
-43
-44
-44
-44
-44
-43
-44
-44
-44
-44
-45
-44
-44
-45
-45
-46
-46
-46
-46
-46
-46
-46
-48
-48
-47
-46
-46
-45
-46
-46
-46
-46
-45
-44
-45
-45
-45
-45
-45
-44
-44
-44
-46
-45
-45
-45
-44
-44
-45
-45
-45
-45
-45
-44
-45
-45
-45
-45
-45
-45
-44
-45
-45
-45
-45
-45
-44
-44
-45
-45
-45
-44
-44
-43
-44
-43
-44
-44
-43
-43
-43
-43
-42
-43
-43
-41
-42
-41
-42
-42
-43
-43
-42
-42
-43
-44
-44
-44
-44
-43
-43
-44
-44
-44
-44
-43
-42
-43
-43
-43
-43
-43
-42
-42
-42
-43
-43
-44
-44
-44
-44
-44
-45
-46
-47
-47
-47
-47
-48
-49
-49
-48
-47
-46
-45
-44
-42
-39
-35
-30
-26
-22
-16
-9
-1
8
16
26
35
45
56
67
79
90
100
111
122
132
142
151
159
166
172
179
183
189
192
193
194
193
190
188
185
180
175
168
161
152
144
135
125
114
102
91
79
68
55
44
32
20
10
-1
-11
-20
-30
-38
-44
-50
-55
-59
-63
-66
-70
-71
-71
-70
-70
-70
-69
-68
-66
-64
-62
-59
-58
-56
-55
-53
-52
-51
-50
-50
-49
-48
-46
-45
-44
-44
-44
-44
-43
-43
-43
-42
-43
-43
-44
-44
-44
-43
-44
-44
-45
-45
-45
-45
-45
-45
-45
-45
-44
-44
-44
-43
-43
-43
-43
-42
-42
-42
-41
-41
-41
-41
-40
-40
-39
-39
-39
-40
-40
-40
-39
-40
-41
-41
-42
-42
-41
-41
-41
-42
-42
-42
-42
-41
-41
-41
-41
-42
-41
-40
-40
-40
-40
-40
-40
-39
-38
-38
-37
-37
-38
-38
-37
-36
-35
-35
-35
-35
-36
-34
-34
-34
-35
-35
-35
-34
-34
-35
-35
-35
-37
-36
-36
-36
-36
-36
-37
-37
-38
-38
-37
-37
-38
-38
-38
-37
-37
-37
-36
-37
-37
-38
-36
-36
-36
-36
-36
-36
-36
-36
-35
-35
-36
-35
-35
-35
-35
-34
-34
-35
-35
-35
-34
-33
-32
-33
-32
-32
-32
-31
-31
-31
-30
-31
-32
-31
-31
-30
-30
-30
-30
-30
-29
-29
-28
-28
-28
-28
-28
-27
-26
-26
-25
-25
-25
-24
-23
-23
-22
-23
-23
-23
-22
-22
-21
-21
-21
-21
-20
-19
-19
-18
-18
-18
-18
-18
-17
-16
-16
-16
-15
-15
-15
-14
-14
-14
-15
-15
-15
-14
-13
-13
-14
-14
-13
-13
-12
-10
-10
-10
-10
-8
-6
-4
-3
-1
-1
1
3
5
7
9
9
9
10
12
14
15
15
16
16
16
18
19
21
21
20
22
22
23
24
25
25
26
26
27
29
30
31
31
32
32
34
35
36
37
37
38
38
40
42
43
44
44
45
46
48
49
50
51
51
51
52
54
55
56
56
55
56
57
57
58
57
57
57
58
58
58
58
58
56
56
56
57
56
56
54
53
52
52
52
50
48
47
44
44
42
41
39
38
35
34
33
32
30
28
26
24
23
21
20
19
16
15
14
12
11
10
8
6
5
3
2
2
0
-1
-4
-5
-7
-7
-8
-10
-12
-13
-15
-16
-17
-18
-20
-22
-24
-25
-25
-26
-27
-28
-29
-31
-32
-32
-32
-32
-33
-34
-34
-34
-34
-33
-34
-33
-34
-34
-34
-32
-32
-32
-32
-32
-32
-33
-32
-33
-33
-33
-34
-34
-34
-34
-35
-37
-37
-38
-37
-38
-38
-38
-38
-39
-39
-38
-39
-39
-39
-39
-38
-38
-38
-38
-38
-38
-38
-39
-38
-38
-39
-39
-39
-40
-40
-40
-40
-40
-40
-41
-41
-40
-40
-40
-40
-41
-41
-40
-40
-40
-39
-38
-40
-40
-40
-40
-40
-40
-41
-42
-42
-43
-43
-42
-42
-43
-43
-43
-44
-43
-43
-43
-44
-43
-43
-43
-42
-42
-43
-43
-43
-43
-42
-42
-42
-41
-43
-42
-42
-41
-41
-42
-42
-42
-43
-42
-42
-41
-42
-43
-42
-43
-42
-42
-42
-43
-43
-42
-42
-41
-41
-40
-40
-41
-40
-39
-39
-38
-39
-39
-39
-39
-38
-38
-38
-39
-40
-40
-41
-40
-41
-42
-42
-44
-44
-44
-43
-43
-44
-45
-45
-46
-45
-45
-45
-46
-47
-47
-46
-46
-45
-45
-45
-46
-45
-44
-43
-44
-43
-44
-44
-44
-44
-44
-43
-43
-43
-44
-44
-42
-43
-43
-43
-44
-43
-43
-43
-43
-43
-43
-43
-43
-42
-42
-42
-42
-42
-42
-42
-41
-41
-42
-42
-42
-43
-42
-42
-42
-42
-43
-43
-44
-43
-43
-43
-45
-45
-45
-45
-44
-45
-45
-45
-45
-45
-45
-44
-44
-44
-44
-44
-43
-43
-42
-43
-42
-43
-43
-42
-42
-43
-43
-44
-44
-45
-45
-45
-45
-45
-47
-47
-47
-47
-47
-46
-47
-48
-48
-47
-46
-46
-46
-47
-47
-46
-46
-45
-45
-45
-45
-45
-45
-45
-44
-44
-45
-46
-45
-45
-45
-44
-45
-45
-46
-46
-45
-45
-45
-45
-46
-46
-45
-44
-44
-44
-45
-45
-44
-44
-43
-43
-43
-43
-43
-43
-42
-41
-40
-40
-41
-40
-41
-40
-40
-39
-40
-40
-40
-39
-39
-38
-37
-38
-38
-37
-37
-36
-35
-35
-35
-35
-35
-34
-34
-33
-33
-33
-33
-31
-30
-30
-30
-30
-30
-30
-29
-28
-28
-29
-29
-29
-28
-28
-28
-29
-29
-30
-30
-30
-30
-30
-30
-32
-33
-32
-32
-32
-32
-32
-32
-33
-33
-32
-32
-32
-32
-33
-33
-32
-32
-32
-33
-33
-34
-35
-35
-35
-35
-36
-38
-37
-38
-39
-40
-40
-42
-43
-43
-43
-44
-43
-44
-45
-46
-46
-46
-46
-47
-47
-47
-48
-47
-47
-47
-47
-47
-48
-48
-48
-47
-47
-48
-49
-49
-50
-50
-50
-51
-52
-52
-53
-54
-54
-54
-54
-56
-55
-56
-56
-56
-56
-56
-56
-56
-56
-55
-54
-55
-55
-55
-54
-54
-53
-52
-52
-52
-52
-52
-51
-51
-50
-51
-50
-51
-51
-50
-50
-50
-51
-52
-52
-52
-52
-52
-51
-53
-54
-54
-54
-53
-53
-54
-54
-55
-55
-54
-54
-54
-55
-55
-55
-55
-54
-53
-53
-52
-52
-51
-51
-50
-49
-49
-48
-49
-48
-47
-47
-47
-47
-48
-49
-48
-48
-48
-49
-50
-51
-51
-51
-51
-51
-52
-54
-53
-54
-54
-54
-54
-55
-55
-56
-56
-56
-56
-57
-56
-57
-57
-57
-56
-56
-56
-56
-55
-54
-53
-51
-48
-45
-43
-39
-34
-28
-23
-16
-10
-1
7
18
28
39
50
61
72
85
97
108
120
131
140
149
157
166
173
179
183
188
190
192
193
191
189
185
180
175
169
162
153
144
134
122
111
100
86
74
61
47
34
21
10
-1
-13
-24
-34
-44
-52
-60
-67
-73
-78
-83
-85
-87
-88
-90
-90
-90
-88
-86
-85
-82
-81
-78
-76
-73
-71
-69
-66
-64
-63
-61
-59
-57
-55
-54
-54
-53
-52
-51
-51
-50
-50
-50
-51
-51
-50
-50
-51
-51
-52
-52
-52
-51
-52
-52
-52
-53
-53
-52
-52
-52
-52
-52
-52
-51
-51
-50
-50
-50
-50
-50
-50
-50
-50
-49
-50
-50
-50
-49
-48
-48
-47
-49
-48
-47
-47
-46
-46
-46
-47
-47
-46
-46
-45
-46
-47
-47
-47
-47
-47
-48
-47
-48
-49
-49
-48
-48
-49
-50
-49
-50
-50
-49
-49
-48
-48
-49
-48
-46
-46
-46
-45
-45
-44
-44
-44
-43
-42
-43
-43
-43
-43
-42
-41
-41
-42
-42
-41
-41
-41
-42
-42
-43
-43
-44
-43
-43
-44
-45
-44
-45
-45
-44
-44
-44
-45
-45
-45
-45
-44
-44
-44
-44
-44
-44
-44
-43
-42
-42
-42
-43
-42
-41
-41
-41
-41
-41
-41
-40
-39
-39
-39
-39
-39
-38
-38
-38
-37
-37
-38
-38
-37
-37
-36
-38
-38
-38
-38
-37
-37
-37
-37
-37
-37
-36
-36
-35
-35
-35
-35
-34
-33
-33
-32
-32
-32
-31
-30
-29
-29
-28
-28
-28
-29
-28
-27
-27
-27
-26
-27
-27
-26
-25
-25
-24
-24
-24
-23
-22
-21
-20
-20
-20
-20
-19
-17
-16
-15
-15
-14
-13
-12
-11
-11
-10
-10
-9
-8
-6
-6
-6
-5
-4
-3
-3
-1
-1
0
0
1
1
2
3
4
5
5
6
7
8
9
10
11
12
13
15
16
17
18
18
19
20
21
23
24
26
26
27
28
30
31
32
33
34
34
36
37
38
39
40
39
40
42
43
44
43
44
44
45
46
46
46
46
46
46
46
47
47
47
47
46
46
46
47
47
45
44
44
44
44
43
43
42
41
39
40
39
38
37
35
34
32
31
31
29
26
25
23
21
19
19
17
14
12
10
8
7
5
4
1
-1
-3
-5
-6
-6
-8
-10
-11
-12
-13
-15
-16
-18
-19
-21
-22
-22
-23
-25
-27
-28
-29
-29
-30
-30
-31
-33
-34
-35
-35
-35
-35
-36
-36
-37
-37
-37
-37
-38
-38
-40
-39
-40
-39
-40
-41
-42
-42
-43
-43
-43
-43
-43
-45
-46
-45
-45
-45
-46
-47
-47
-48
-48
-47
-47
-47
-47
-48
-47
-47
-47
-47
-47
-47
-47
-47
-46
-47
-47
-47
-47
-47
-48
-47
-47
-47
-48
-48
-48
-48
-47
-47
-47
-48
-48
-47
-47
-46
-47
-47
-48
-48
-48
-47
-48
-48
-50
-49
-49
-49
-49
-49
-50
-51
-51
-51
-51
-50
-50
-50
-51
-51
-51
-49
-50
-50
-49
-50
-49
-49
-47
-48
-48
-48
-49
-48
-48
-48
-49
-49
-49
-49
-49
-49
-49
-50
-50
-51
-51
-51
-51
-52
-52
-52
-52
-52
-52
-51
-52
-52
-53
-53
-53
-52
-52
-52
-53
-53
-52
-52
-51
-50
-50
-50
-51
-50
-49
-48
-48
-48
-48
-48
-48
-48
-47
-47
-47
-47
-47
-46
-46
-46
-46
-47
-47
-47
-47
-47
-47
-47
-49
-49
-49
-49
-50
-50
-51
-51
-51
-51
-51
-51
-52
-52
-53
-53
-53
-52
-52
-52
-53
-52
-52
-50
-51
-51
-51
-50
-50
-49
-49
-48
-49
-48
-48
-47
-47
-46
-46
-46
-47
-47
-46
-47
-46
-46
-48
-48
-47
-47
-47
-47
-48
-48
-49
-49
-48
-48
-48
-48
-49
-49
-48
-48
-48
-49
-50
-49
-50
-49
-49
-49
-49
-51
-50
-50
-50
-50
-51
-51
-51
-52
-52
-51
-51
-51
-52
-52
-52
-51
-51
-51
-52
-52
-52
-52
-52
-52
-52
-52
-53
-53
-53
-52
-53
-53
-53
-54
-53
-52
-52
-52
-52
-52
-52
-52
-50
-51
-51
-51
-51
-51
-51
-51
-50
-51
-52
-52
-52
-51
-51
-52
-52
-54
-54
-54
-53
-54
-53
-55
-54
-54
-54
-54
-54
-55
-55
-55
-55
-54
-54
-54
-54
-55
-55
-55
-55
-54
-54
-55
-55
-56
-55
-54
-54
-54
-54
-55
-54
-53
-53
-52
-52
-52
-52
-50
-50
-49
-49
-49
-48
-49
-48
-47
-47
-47
-47
-47
-47
-46
-46
-46
-46
-46
-47
-46
-45
-45
-45
-45
-45
-45
-44
-44
-44
-44
-44
-43
-44
-42
-42
-41
-41
-41
-42
-40
-40
-40
-40
-40
-40
-40
-39
-38
-37
-38
-39
-38
-37
-37
-37
-37
-37
-38
-38
-38
-38
-37
-37
-38
-38
-38
-38
-38
-38
-38
-38
-38
-37
-37
-36
-36
-36
-36
-37
-36
-36
-36
-36
-37
-38
-38
-38
-39
-38
-40
-41
-42
-42
-43
-43
-44
-46
-46
-47
-47
-47
-48
-48
-49
-50
-51
-51
-52
-52
-53
-54
-54
-54
-54
-54
-54
-55
-56
-55
-56
-55
-56
-56
-58
-58
-58
-58
-58
-58
-58
-60
-60
-60
-60
-59
-60
-60
-61
-61
-59
-60
-59
-59
-59
-58
-59
-57
-56
-56
-55
-55
-55
-54
-53
-53
-53
-53
-54
-53
-53
-53
-53
-54
-54
-54
-54
-54
-54
-54
-55
-56
-57
-56
-56
-56
-57
-57
-58
-58
-58
-58
-57
-58
-58
-59
-58
-58
-57
-57
-57
-57
-57
-57
-55
-55
-54
-54
-54
-54
-53
-52
-52
-52
-52
-52
-52
-52
-51
-52
-52
-53
-52
-52
-52
-52
-52
-53
-53
-53
-52
-53
-52
-52
-52
-53
-52
-52
-52
-52
-52
-53
-53
-53
-53
-52
-53
-54
-55
-56
-56
-56
-56
-56
-58
-59
-59
-59
-59
-59
-59
-59
-58
-56
-53
-50
-47
-42
-39
-33
-27
-20
-12
-4
5
14
24
35
47
58
69
81
92
103
116
126
136
145
152
160
166
173
177
181
182
184
184
183
181
178
174
169
163
156
149
140
132
122
110
100
88
77
65
54
41
30
20
9
-2
-11
-20
-29
-37
-44
-50
-56
-61
-65
-68
-71
-72
-72
-73
-74
-74
-73
-72
-71
-69
-67
-66
-65
-64
-63
-61
-60
-59
-59
-58
-58
-58
-56
-56
-55
-55
-56
-55
-55
-53
-54
-54
-55
-54
-54
-53
-52
-52
-52
-52
-52
-52
-51
-50
-51
-51
-51
-51
-50
-50
-50
-51
-52
-52
-52
-51
-51
-51
-53
-53
-53
-53
-52
-52
-52
-53
-53
-54
-53
-53
-53
-54
-54
-54
-53
-52
-52
-52
-52
-53
-53
-53
-51
-52
-52
-53
-53
-53
-52
-52
-52
-52
-52
-52
-52
-50
-50
-50
-50
-51
-51
-49
-49
-48
-48
-48
-49
-48
-47
-46
-47
-47
-46
-46
-46
-45
-46
-46
-46
-46
-46
-46
-47
-46
-47
-47
-47
-47
-46
-46
-46
-48
-48
-49
-48
-48
-47
-47
-48
-47
-48
-47
-47
-47
-47
-46
-46
-46
-46
-45
-45
-45
-45
-44
-44
-43
-42
-42
-42
-43
-43
-43
-42
-42
-42
-43
-43
-43
-42
-42
-41
-42
-42
-43
-42
-42
-42
-43
-43
-43
-44
-43
-43
-42
-43
-43
-43
-43
-42
-42
-42
-42
-41
-41
-40
-39
-39
-38
-37
-38
-38
-36
-35
-34
-34
-34
-34
-33
-33
-31
-31
-31
-31
-31
-31
-29
-29
-28
-28
-27
-27
-25
-25
-24
-23
-23
-22
-22
-21
-20
-19
-19
-19
-18
-18
-17
-15
-15
-15
-15
-14
-12
-11
-11
-11
-10
-10
-9
-8
-7
-6
-6
-5
-5
-4
-2
-2
0
0
0
1
2
4
5
6
7
8
9
11
13
14
15
15
16
19
20
21
23
24
24
26
27
28
29
30
29
30
31
32
33
34
33
34
34
35
36
38
38
37
37
38
40
42
43
43
44
43
45
45
47
47
48
48
49
49
51
51
52
52
51
51
52
52
52
51
51
49
49
48
48
47
46
44
43
42
42
41
40
38
36
34
33
33
31
29
27
25
24
22
21
19
18
14
13
11
10
8
5
3
1
0
-2
-3
-6
-7
-9
-11
-13
-13
-15
-15
-17
-19
-19
-20
-20
-20
-21
-21
-23
-24
-24
-23
-24
-24
-26
-26
-28
-27
-27
-28
-29
-29
-29
-30
-30
-31
-32
-32
-33
-34
-34
-33
-33
-35
-35
-35
-35
-35
-35
-36
-37
-37
-37
-36
-36
-35
-36
-36
-36
-36
-36
-36
-35
-35
-36
-36
-36
-35
-36
-36
-37
-37
-38
-37
-36
-36
-36
-37
-38
-38
-37
-38
-38
-38
-38
-38
-39
-39
-38
-38
-38
-39
-39
-38
-37
-36
-37
-37
-37
-37
-37
-35
-35
-36
-36
-37
-37
-37
-36
-37
-37
-37
-38
-38
-37
-38
-39
-39
-40
-40
-40
-39
-40
-41
-41
-41
-41
-40
-40
-40
-40
-40
-39
-39
-38
-38
-37
-37
-37
-36
-35
-35
-34
-34
-34
-35
-35
-35
-35
-35
-35
-35
-36
-36
-36
-36
-36
-36
-38
-38
-38
-37
-37
-37
-39
-39
-39
-38
-38
-38
-39
-39
-39
-38
-37
-37
-37
-38
-39
-39
-38
-39
-38
-39
-39
-39
-39
-39
-39
-40
-40
-40
-40
-39
-40
-40
-40
-40
-40
-39
-39
-39
-39
-38
-38
-37
-37
-37
-37
-37
-36
-37
-37
-37
-37
-36
-37
-37
-37
-37
-37
-36
-37
-37
-38
-37
-38
-38
-37
-37
-37
-37
-37
-37
-37
-37
-37
-37
-37
-37
-38
-37
-37
-38
-38
-38
-38
-37
-37
-38
-38
-38
-38
-38
-38
-37
-37
-37
-39
-38
-37
-37
-36
-37
-38
-37
-38
-37
-37
-37
-37
-37
-38
-38
-37
-37
-38
-37
-39
-38
-38
-37
-38
-38
-39
-39
-40
-40
-39
-39
-40
-40
-40
-40
-39
-38
-38
-38
-38
-37
-36
-36
-35
-35
-35
-35
-35
-35
-34
-35
-35
-36
-36
-36
-36
-36
-37
-38
-38
-40
-39
-39
-39
-40
-41
-41
-42
-41
-40
-40
-41
-41
-41
-40
-40
-40
-39
-39
-39
-39
-39
-37
-37
-37
-37
-37
-37
-36
-35
-35
-35
-36
-35
-34
-33
-33
-33
-33
-34
-35
-33
-33
-33
-33
-33
-33
-33
-33
-32
-32
-33
-33
-33
-32
-31
-30
-30
-30
-30
-30
-29
-29
-29
-29
-28
-28
-28
-28
-27
-27
-27
-27
-27
-26
-26
-26
-26
-26
-26
-26
-26
-25
-25
-25
-25
-26
-25
-25
-24
-24
-25
-25
-24
-24
-24
-23
-23
-24
-25
-25
-23
-23
-23
-23
-24
-24
-24
-23
-24
-24
-24
-26
-26
-25
-25
-25
-26
-26
-26
-27
-27
-26
-26
-27
-28
-29
-30
-30
-31
-31
-32
-33
-34
-35
-36
-36
-36
-37
-39
-40
-40
-40
-41
-42
-43
-44
-43
-43
-43
-43
-43
-44
-44
-43
-43
-43
-42
-43
-44
-43
-43
-43
-43
-43
-43
-44
-43
-43
-42
-42
-44
-44
-44
-44
-43
-43
-44
-44
-44
-44
-43
-42
-42
-43
-43
-43
-43
-42
-42
-41
-42
-43
-42
-43
-43
-42
-43
-43
-44
-45
-45
-45
-46
-46
-47
-48
-48
-48
-48
-48
-49
-48
-48
-48
-47
-47
-46
-46
-47
-46
-46
-45
-44
-44
-44
-44
-43
-42
-42
-41
-42
-43
-43
-42
-41
-42
-41
-41
-41
-41
-41
-41
-40
-40
-41
-41
-41
-41
-40
-40
-41
-41
-40
-40
-39
-40
-39
-40
-41
-41
-40
-40
-40
-41
-41
-41
-42
-42
-42
-42
-42
-44
-44
-44
-45
-45
-45
-46
-46
-46
-46
-45
-44
-42
-41
-39
-36
-32
-27
-23
-17
-11
-4
6
15
25
35
46
56
68
80
94
106
117
128
139
150
160
171
179
186
192
197
201
204
205
206
204
202
198
194
188
182
173
164
154
144
133
122
110
96
82
69
56
44
31
19
7
-5
-15
-25
-33
-42
-49
-56
-62
-66
-70
-72
-74
-77
-78
-77
-77
-75
-73
-72
-69
-67
-65
-62
-59
-57
-55
-54
-52
-50
-49
-47
-45
-45
-44
-43
-42
-42
-42
-42
-42
-42
-41
-41
-40
-41
-41
-41
-42
-41
-41
-41
-41
-41
-41
-41
-41
-41
-40
-41
-41
-41
-41
-39
-39
-39
-39
-40
-39
-40
-39
-39
-39
-40
-40
-40
-39
-39
-39
-39
-39
-40
-39
-39
-39
-39
-40
-40
-40
-40
-40
-39
-39
-40
-40
-41
-40
-40
-39
-38
-39
-40
-39
-39
-38
-38
-38
-38
-38
-38
-37
-36
-36
-37
-37
-37
-36
-35
-36
-36
-35
-36
-36
-36
-36
-35
-36
-36
-36
-36
-36
-35
-35
-36
-36
-36
-35
-34
-34
-34
-34
-34
-33
-33
-32
-32
-32
-32
-32
-31
-31
-31
-31
-31
-31
-31
-30
-30
-29
-29
-30
-30
-29
-29
-29
-29
-29
-29
-30
-30
-29
-29
-30
-31
-31
-31
-31
-30
-31
-31
-31
-32
-31
-31
-31
-31
-31
-30
-31
-30
-30
-29
-29
-29
-29
-28
-27
-27
-26
-26
-26
-26
-26
-25
-25
-24
-25
-25
-24
-25
-23
-23
-23
-22
-23
-23
-22
-21
-20
-20
-20
-20
-18
-18
-16
-16
-16
-16
-15
-14
-14
-13
-13
-13
-13
-13
-12
-11
-11
-10
-10
-10
-9
-9
-7
-7
-6
-7
-6
-5
-4
-3
-1
-1
-1
0
1
2
4
4
5
5
6
8
8
10
10
10
11
11
12
13
14
15
16
16
18
19
20
21
22
22
23
25
27
27
28
29
29
30
32
33
34
34
34
36
37
38
39
40
40
40
42
43
44
45
44
45
45
46
47
48
48
49
49
49
51
51
52
52
53
52
54
54
55
55
55
54
55
55
56
56
57
56
54
54
54
54
55
54
52
50
50
50
50
48
46
44
43
41
41
39
38
35
33
33
32
30
28
26
24
21
19
19
17
16
13
12
9
7
6
4
3
1
-1
-2
-3
-5
-6
-7
-10
-11
-12
-13
-14
-15
-17
-18
-20
-20
-20
-21
-22
-24
-26
-26
-26
-28
-28
-29
-30
-31
-31
-31
-33
-33
-32
-34
-34
-35
-35
-35
-35
-36
-36
-36
-36
-36
-35
-36
-37
-38
-38
-37
-37
-38
-38
-39
-40
-40
-40
-40
-40
-41
-42
-42
-43
-42
-42
-43
-44
-45
-44
-44
-44
-44
-44
-44
-44
-44
-43
-43
-43
-43
-43
-43
-43
-41
-41
-42
-42
-43
-42
-42
-42
-42
-43
-44
-45
-44
-45
-45
-45
-46
-46
-45
-45
-45
-45
-45
-45
-45
-45
-44
-43
-44
-44
-45
-45
-45
-45
-44
-44
-45
-45
-46
-46
-45
-45
-45
-46
-46
-46
-46
-46
-46
-47
-47
-47
-47
-45
-45
-46
-46
-47
-47
-47
-46
-46
-46
-46
-47
-47
-47
-46
-46
-46
-46
-46
-46
-46
-45
-45
-46
-46
-46
-45
-44
-45
-44
-45
-45
-44
-43
-43
-43
-43
-43
-43
-43
-42
-42
-43
-43
-43
-44
-43
-43
-43
-43
-44
-45
-45
-44
-44
-44
-44
-45
-44
-45
-44
-43
-42
-43
-43
-43
-41
-41
-40
-40
-40
-40
-40
-39
-39
-39
-39
-40
-40
-40
-39
-39
-40
-41
-41
-41
-41
-41
-41
-42
-42
-43
-43
-42
-42
-42
-44
-44
-44
-43
-43
-44
-43
-44
-45
-45
-45
-44
-45
-44
-45
-45
-45
-44
-44
-44
-45
-45
-44
-45
-44
-44
-45
-45
-45
-45
-45
-45
-44
-44
-45
-45
-45
-44
-44
-45
-45
-46
-46
-45
-45
-44
-44
-44
-44
-44
-44
-42
-43
-43
-43
-43
-44
-43
-43
-43
-44
-44
-45
-46
-45
-44
-45
-47
-47
-47
-47
-47
-46
-47
-47
-48
-47
-45
-45
-45
-45
-47
-47
-47
-47
-47
-46
-48
-48
-48
-48
-47
-47
-48
-48
-48
-48
-48
-47
-47
-47
-47
-47
-47
-45
-45
-45
-45
-45
-44
-43
-43
-42
-42
-43
-43
-43
-42
-42
-42
-43
-43
-43
-42
-42
-42
-41
-42
-42
-42
-42
-40
-40
-41
-42
-42
-42
-41
-41
-40
-40
-40
-40
-40
-39
-39
-39
-40
-40
-39
-39
-38
-37
-38
-38
-37
-38
-36
-36
-36
-35
-36
-36
-35
-35
-34
-34
-35
-34
-34
-34
-33
-32
-33
-33
-33
-33
-31
-30
-31
-31
-31
-30
-30
-29
-28
-29
-29
-29
-29
-29
-28
-28
-29
-29
-28
-29
-28
-28
-28
-29
-29
-30
-29
-29
-29
-29
-30
-31
-31
-31
-29
-30
-30
-30
-32
-31
-31
-31
-32
-34
-34
-35
-35
-35
-36
-37
-38
-39
-40
-41
-40
-41
-42
-44
-44
-44
-44
-44
-45
-45
-46
-47
-46
-46
-46
-46
-46
-47
-46
-46
-46
-46
-46
-47
-47
-48
-48
-47
-47
-48
-49
-49
-50
-50
-50
-51
-52
-52
-52
-52
-52
-51
-52
-53
-52
-53
-52
-52
-51
-52
-51
-51
-51
-50
-50
-50
-51
-51
-51
-51
-50
-49
-50
-51
-50
-50
-49
-49
-49
-49
-50
-50
-50
-49
-48
-49
-49
-50
-49
-49
-49
-48
-49
-49
-49
-49
-49
-49
-48
-49
-50
-51
-50
-50
-50
-50
-50
-51
-51
-51
-50
-51
-51
-51
-51
-50
-50
-50
-50
-49
-49
-50
-49
-48
-49
-49
-49
-49
-49
-48
-48
-47
-47
-48
-47
-47
-46
-47
-47
-47
-47
-48
-47
-47
-47
-47
-48
-48
-49
-49
-48
-49
-49
-50
-51
-52
-52
-51
-51
-51
-50
-49
-46
-44
-41
-38
-35
-31
-25
-18
-11
-2
5
15
24
35
46
58
69
80
91
102
114
125
135
145
152
160
168
174
180
183
186
187
188
188
186
183
180
174
168
162
154
146
138
127
116
105
94
83
72
61
48
37
26
16
6
-3
-11
-20
-29
-36
-42
-47
-51
-56
-59
-63
-64
-65
-65
-65
-66
-65
-64
-63
-62
-59
-59
-57
-56
-55
-53
-51
-51
-50
-50
-50
-49
-48
-47
-47
-47
-48
-48
-48
-48
-48
-48
-49
-48
-49
-49
-48
-48
-49
-49
-49
-48
-47
-46
-45
-46
-45
-45
-44
-43
-43
-42
-42
-42
-41
-41
-41
-40
-41
-41
-41
-41
-41
-41
-41
-42
-42
-43
-43
-43
-43
-43
-43
-44
-44
-43
-43
-43
-43
-44
-43
-44
-43
-43
-42
-42
-44
-43
-42
-42
-42
-42
-41
-41
-41
-41
-40
-40
-40
-41
-40
-40
-40
-40
-40
-40
-40
-40
-41
-40
-40
-41
-41
-41
-42
-41
-41
-40
-40
-41
-41
-41
-40
-39
-39
-39
-38
-38
-38
-37
-36
-36
-36
-36
-36
-36
-36
-35
-36
-36
-37
-37
-37
-37
-37
-37
-37
-37
-37
-37
-37
-36
-37
-37
-37
-37
-36
-36
-36
-36
-37
-37
-36
-36
-35
-35
-35
-36
-35
-35
-35
-35
-35
-36
-35
-35
-34
-34
-34
-34
-33
-33
-32
-31
-31
-30
-30
-30
-29
-29
-28
-29
-29
-28
-29
-28
-28
-28
-28
-29
-28
-28
-28
-28
-27
-28
-28
-29
-28
-27
-27
-26
-25
-25
-25
-24
-22
-21
-21
-21
-19
-18
-17
-16
-15
-16
-15
-14
-14
-13
-12
-12
-11
-11
-11
-10
-9
-9
-9
-9
-9
-8
-7
-6
-5
-5
-4
-3
-2
-1
0
1
1
