# Simple Text Format
# Sampling Rate (Hz):= 1200.00
# Resolution:= 12
# Labels:= ECG	aVL
# Age:=	66
# Gender:=	Feminino
153
153
153
152
151
150
151
151
151
151
151
150
149
150
151
151
150
149
148
147
147
147
146
145
143
140
138
137
136
133
131
129
127
125
125
124
122
121
121
121
123
124
126
128
132
135
140
146
152
159
165
171
180
188
197
206
215
223
233
243
254
264
274
282
291
300
308
316
324
329
333
336
339
341
342
342
340
336
332
328
323
317
310
302
293
285
276
267
258
248
238
228
219
211
204
196
188
181
174
168
163
158
153
148
143
140
137
133
130
128
124
122
120
119
117
115
113
112
110
108
108
107
106
104
103
101
100
100
99
98
98
96
96
96
97
97
96
97
97
97
99
100
101
103
104
105
107
110
112
113
115
117
118
120
123
126
127
128
130
132
134
137
138
140
140
142
143
144
145
146
146
146
147
148
149
150
149
148
148
148
149
150
150
150
149
150
149
150
150
150
149
149
149
149
150
150
150
149
149
149
150
150
151
150
151
151
151
152
152
153
152
152
152
153
153
153
153
152
152
153
154
154
154
154
153
154
153
155
155
155
154
155
154
155
155
156
156
155
155
156
156
157
157
156
156
155
156
156
156
157
157
156
155
155
156
156
156
155
155
155
155
156
156
155
155
154
154
155
155
156
155
154
155
155
156
156
156
156
156
157
158
158
159
158
158
158
159
159
159
159
158
158
157
158
158
159
158
158
157
158
158
159
160
160
159
159
160
162
162
163
162
163
163
164
165
165
165
165
165
166
167
167
168
167
167
167
168
169
170
169
169
169
169
170
172
172
172
172
172
173
175
176
177
176
177
177
179
179
180
180
181
181
182
182
184
185
185
185
186
187
188
189
190
191
191
191
193
195
196
196
197
196
198
199
199
200
200
201
201
202
203
205
205
206
205
206
207
208
209
210
209
210
210
212
212
212
213
212
213
212
213
214
215
214
214
214
215
216
216
216
214
214
213
214
214
213
212
211
210
210
209
209
208
207
206
204
204
203
202
201
200
198
197
196
196
195
193
192
190
189
189
188
187
186
184
183
183
182
180
180
178
176
175
175
174
174
172
171
170
169
168
168
167
166
164
164
164
163
162
162
160
159
158
159
158
158
156
155
154
155
155
156
155
154
153
153
153
153
153
152
151
151
151
151
152
152
151
150
150
150
150
151
151
150
150
150
150
150
150
149
149
148
148
148
147
147
146
146
145
145
145
146
146
145
144
144
145
145
145
145
144
144
143
144
145
144
144
143
143
144
145
145
145
145
145
145
146
146
147
146
147
146
146
147
147
147
148
147
147
148
148
148
148
148
148
148
148
149
149
148
149
148
148
149
149
150
149
149
149
149
149
150
149
149
148
147
148
149
149
148
148
146
146
147
148
146
146
145
146
146
147
146
146
146
145
146
146
147
147
147
146
145
145
145
146
146
146
145
145
146
145
146
146
146
145
145
146
146
147
146
146
145
146
146
147
147
146
146
145
146
145
146
145
145
144
144
145
145
145
145
143
143
143
144
143
143
143
142
143
143
144
143
144
143
143
143
143
144
144
144
142
143
141
142
142
141
141
140
140
141
141
142
141
140
139
139
140
140
140
140
139
139
139
140
140
140
140
139
139
139
140
141
140
140
139
139
140
140
140
140
138
139
138
139
139
139
139
138
138
138
138
139
138
138
137
137
138
139
139
139
138
139
139
139
140
140
139
139
139
140
140
141
142
141
141
142
142
143
143
143
143
142
142
143
143
142
142
141
141
141
142
142
142
141
141
140
141
141
141
141
141
140
140
141
141
141
141
141
141
141
143
142
143
142
142
142
142
143
143
142
142
141
141
142
143
143
141
141
141
140
140
141
141
141
141
140
141
141
141
141
141
140
141
141
141
141
141
140
140
140
140
141
140
140
139
139
139
140
140
139
139
138
139
139
139
140
139
139
139
139
139
140
139
139
138
138
139
139
140
140
139
139
139
139
139
139
138
138
138
138
139
140
140
139
138
138
138
139
140
139
139
139
139
140
140
140
141
140
140
140
141
141
142
141
141
141
142
142
142
142
142
141
141
141
142
142
141
141
141
141
142
142
141
141
141
141
141
141
141
140
140
139
139
139
139
139
138
137
138
137
138
138
137
137
136
137
137
138
138
139
138
138
139
139
140
140
140
140
140
141
141
142
142
141
141
142
142
142
142
142
141
141
141
141
141
141
139
139
138
138
138
139
138
138
136
136
138
138
138
138
137
137
137
139
139
139
139
139
139
140
140
140
140
140
140
140
141
142
142
141
141
140
140
140
141
140
140
140
140
141
140
140
140
140
138
138
139
138
139
138
138
137
137
137
137
138
136
136
135
136
137
137
136
136
135
136
137
136
137
136
136
135
136
137
136
137
136
136
136
137
138
138
138
138
138
138
139
140
140
140
140
141
141
142
143
143
143
142
143
143
144
145
146
145
146
145
146
146
146
146
146
145
146
146
145
145
145
143
143
143
143
143
143
141
140
141
141
142
142
141
141
141
141
142
143
143
142
141
142
143
143
144
144
143
142
142
143
143
143
142
141
140
139
139
140
139
139
138
136
136
137
136
136
135
135
135
135
136
136
136
135
135
135
135
136
136
137
136
136
136
137
138
137
137
136
137
137
136
136
136
135
136
135
136
136
136
134
134
134
135
135
135
136
135
135
135
136
136
136
136
135
134
135
136
136
136
135
135
135
136
136
136
136
136
135
136
136
136
136
136
134
133
133
133
132
130
129
127
126
125
122
121
119
117
114
112
112
110
110
108
107
107
107
109
110
112
113
116
119
124
129
134
139
144
150
157
165
172
181
188
196
204
212
221
230
239
246
254
263
270
278
285
290
294
298
300
303
305
305
304
302
299
295
292
287
280
272
265
257
250
242
234
225
216
207
198
191
184
178
169
164
157
151
147
142
137
132
128
124
121
118
115
113
110
108
105
105
102
101
99
97
95
94
93
93
91
89
88
87
87
87
85
85
83
82
82
83
82
82
82
83
83
83
85
86
87
87
89
91
92
95
97
98
100
101
102
105
107
109
110
111
113
115
117
118
119
120
121
122
124
125
126
127
127
127
128
129
130
130
130
130
130
130
131
132
132
132
131
132
133
133
134
133
134
133
134
135
136
136
136
136
136
137
137
138
137
138
137
137
137
138
138
137
137
137
137
137
138
137
137
136
136
136
137
137
137
138
137
138
138
139
139
140
139
139
139
140
141
141
140
140
140
140
140
141
140
140
140
140
140
141
141
141
140
140
140
141
142
142
141
141
141
141
141
142
141
141
141
141
141
142
141
142
141
140
141
141
142
142
141
142
142
142
143
143
144
143
143
144
144
145
146
145
145
145
146
147
147
147
147
146
146
147
147
148
147
147
147
147
147
148
149
148
147
148
149
149
150
150
150
150
150
151
151
152
152
151
152
153
153
155
155
156
155
156
156
158
158
159
159
159
159
160
161
161
162
162
163
164
164
165
166
166
166
166
167
169
170
170
171
171
172
173
174
175
176
176
176
177
178
179
181
181
181
182
183
185
187
187
188
187
189
190
191
192
193
193
193
195
196
197
197
198
197
198
198
199
200
200
200
199
199
200
200
200
200
200
199
199
199
200
200
200
198
198
199
198
198
198
197
196
195
196
195
195
195
193
192
191
191
191
191
190
188
187
187
186
186
185
184
182
181
179
179
178
176
175
174
172
171
171
169
168
166
165
165
164
164
163
161
159
159
158
158
158
157
156
155
155
155
156
155
154
152
151
151
151
152
151
150
149
148
149
148
148
147
146
145
145
145
145
145
144
143
143
142
142
143
142
141
141
141
141
141
142
141
140
141
141
142
142
142
142
141
141
142
142
143
143
142
141
141
141
142
142
141
140
140
140
140
141
141
140
140
140
140
140
141
141
141
140
140
141
141
142
141
141
141
141
142
143
143
142
142
142
142
143
143
143
143
142
142
142
143
144
143
143
142
143
143
144
143
143
142
142
143
143
144
143
143
142
141
142
143
143
142
141
141
141
141
142
142
141
141
141
141
142
142
142
142
142
142
142
143
144
143
142
143
143
144
144
144
144
143
144
143
145
145
144
143
143
143
144
144
144
144
144
143
144
144
145
145
144
144
144
144
145
146
145
145
144
145
144
145
145
145
145
144
144
145
146
146
145
145
145
145
146
146
146
145
146
146
145
147
147
146
146
146
147
147
148
148
147
148
147
148
148
149
148
148
147
147
148
148
148
148
147
147
148
148
149
148
149
148
147
147
148
149
148
149
148
148
148
148
149
149
148
148
148
149
150
150
149
149
149
149
151
150
151
150
150
150
151
150
151
151
150
150
150
150
151
151
151
149
149
149
150
150
150
150
149
149
149
150
150
150
149
149
150
150
151
151
151
151
151
152
153
153
153
153
153
154
154
154
155
154
154
153
154
155
155
156
154
154
153
154
154
154
154
153
152
152
152
152
152
153
151
151
152
152
153
152
153
152
152
152
154
155
154
154
154
154
155
155
156
156
155
155
155
156
157
156
155
155
155
155
155
155
155
155
154
154
154
154
154
154
152
152
153
154
154
154
154
153
153
154
155
155
155
154
155
155
155
156
156
156
156
156
157
157
158
158
158
157
157
158
158
159
159
158
159
159
158
159
158
158
157
156
157
158
157
157
157
155
155
155
155
155
155
154
154
153
153
154
154
153
153
153
153
155
154
155
155
155
155
156
156
156
156
156
155
155
156
156
156
155
155
154
154
155
155
155
155
154
154
155
156
156
156
156
155
155
156
156
157
157
156
157
157
158
159
159
158
158
158
159
159
160
159
159
159
159
159
160
160
159
159
159
159
159
160
159
159
158
157
158
159
159
158
158
157
157
157
157
158
158
157
157
158
158
159
159
159
158
158
159
159
159
160
158
158
158
158
159
158
158
156
156
155
156
156
155
155
154
154
154
155
155
155
155
155
155
155
156
156
156
156
156
156
157
158
158
158
158
158
159
159
159
160
160
159
159
160
161
161
161
161
162
162
163
164
164
163
163
163
164
165
165
165
164
164
164
163
164
163
163
162
162
162
163
162
162
161
160
160
161
162
162
162
162
162
162
162
163
163
162
162
162
163
163
164
164
163
162
162
162
163
162
162
162
162
161
161
162
161
160
159
159
160
160
159
159
159
159
159
158
159
160
159
158
157
158
158
159
159
158
157
157
158
158
158
158
157
157
157
158
158
158
157
157
156
156
156
156
157
156
156
156
157
157
158
157
157
157
157
157
157
157
158
157
156
156
157
157
159
158
158
157
158
158
158
158
158
158
158
158
159
160
159
158
158
157
156
155
154
153
151
149
147
146
144
142
140
137
135
135
133
133
132
131
131
131
132
135
137
138
140
144
148
153
158
164
169
175
182
189
196
204
210
218
226
233
242
250
258
265
272
280
288
294
300
305
310
312
315
318
319
320
319
317
315
312
308
304
298
292
284
278
270
263
255
247
238
231
223
217
209
203
197
190
183
178
172
168
163
159
155
151
148
145
143
141
138
136
135
133
132
131
129
127
126
124
124
123
122
121
119
118
117
117
116
116
115
113
113
114
114
114
114
114
114
115
116
118
119
120
120
121
124
126
127
129
131
132
134
136
139
140
141
142
143
144
146
148
150
151
151
152
153
155
156
157
157
158
159
160
162
162
163
163
164
164
165
166
166
166
166
167
167
168
168
167
167
167
167
168
168
168
167
166
165
165
165
166
165
165
164
164
165
165
166
166
165
166
166
167
168
168
168
168
168
168
169
170
170
170
170
170
170
171
172
171
170
170
170
171
171
171
171
170
171
171
171
172
172
172
171
172
172
173
173
173
173
172
172
173
174
174
173
173
173
173
173
174
174
173
173
173
173
174
175
175
174
174
174
175
176
176
176
176
175
175
175
175
175
174
174
174
175
174
175
174
174
174
174
175
175
175
175
174
174
174
176
176
176
177
176
177
178
178
179
179
179
179
179
181
181
181
181
181
180
181
182
183
183
183
182
183
183
184
184
184
184
184
184
186
187
188
187
187
188
189
189
190
191
191
192
192
194
194
196
197
197
198
199
199
201
202
202
202
203
204
205
207
207
207
206
207
208
210
211
212
212
211
212
213
214
214
215
214
215
215
217
217
218
218
218
218
219
220
221
221
221
221
221
223
223
223
224
224
223
224
225
226
225
224
225
224
224
225
226
225
225
224
224
225
225
225
224
223
222
222
222
221
220
220
218
218
218
217
217
216
215
213
213
212
212
212
210
208
207
206
206
205
204
202
201
199
199
198
198
196
194
192
191
190
190
189
188
186
185
183
182
182
181
180
178
178
177
177
177
176
175
174
173
174
174
173
172
171
170
170
171
170
170
169
168
167
167
168
167
167
166
166
165
165
166
166
165
164
164
164
165
166
166
165
165
165
166
166
166
166
165
166
165
166
167
167
166
166
165
165
165
166
165
164
164
164
164
164
165
164
163
164
164
164
165
165
166
165
164
164
164
165
165
164
164
164
165
165
165
165
163
164
163
164
164
164
164
163
164
163
164
165
165
164
163
164
165
166
166
166
165
165
165
165
166
166
166
165
165
165
165
166
166
165
165
164
165
165
166
166
166
165
165
166
166
166
166
165
165
165
166
167
167
167
166
166
166
167
167
167
167
167
167
167
168
168
167
166
167
166
167
168
167
167
166
166
167
166
166
167
165
165
165
166
166
166
165
164
164
164
165
165
165
165
164
164
164
166
166
166
165
166
165
166
167
167
166
166
165
166
167
167
167
167
166
166
167
167
167
168
167
166
167
168
169
169
168
169
168
169
169
169
169
168
168
169
169
170
171
170
171
170
170
172
171
172
172
171
171
171
171
172
172
171
171
171
172
172
173
172
171
170
170
171
171
171
171
169
170
170
170
170
170
169
170
170
170
171
171
171
171
170
170
171
172
172
172
171
171
172
172
172
172
172
171
171
171
172
172
172
171
171
171
172
172
172
172
171
172
171
172
173
172
172
171
172
173
174
174
174
173
173
172
173
174
174
173
173
172
172
173
173
173
172
172
171
172
173
173
174
173
173
174
174
175
175
175
174
173
174
175
174
175
174
173
174
174
175
174
175
174
173
174
174
175
175
174
173
172
172
172
173
172
171
171
172
171
172
172
171
171
170
171
171
172
172
172
171
171
171
172
172
172
172
172
172
173
174
173
173
172
173
172
173
173
173
174
173
172
173
173
174
173
173
173
172
173
174
173
173
173
172
173
174
174
174
174
173
173
173
173
174
173
173
173
173
173
174
174
173
173
173
173
173
174
173
173
172
172
172
173
172
173
172
171
171
173
173
173
173
172
171
172
173
173
173
173
173
172
173
174
173
174
173
173
173
173
174
174
173
173
173
174
174
175
175
174
174
174
174
174
175
174
175
174
175
175
176
176
175
175
174
174
175
175
175
175
174
174
173
174
174
174
173
173
173
174
174
174
174
173
173
173
175
174
175
174
174
174
175
176
175
176
174
175
175
175
175
175
175
174
174
174
174
174
174
173
173
172
173
172
172
172
172
171
171
172
172
173
172
172
172
172
174
174
174
174
173
174
174
174
176
175
175
175
176
177
177
177
177
178
177
178
179
180
180
180
180
180
180
182
181
182
182
181
182
183
183
183
183
182
182
182
183
183
183
183
182
181
182
181
181
181
181
180
180
180
181
181
181
179
180
180
180
181
181
180
179
179
179
180
180
179
179
178
178
179
178
179
178
177
177
176
177
177
177
176
175
175
175
176
175
175
175
174
174
175
174
174
174
174
173
174
174
174
174
174
173
173
173
173
174
173
173
172
173
173
173
174
173
173
172
172
173
174
174
173
173
172
173
172
173
173
172
172
172
173
173
173
172
172
171
172
172
172
172
171
170
170
170
170
171
170
169
168
168
168
169
169
168
167
166
166
166
165
164
162
161
159
157
157
155
153
150
149
148
147
146
145
144
143
142
144
145
147
148
150
153
156
160
164
170
175
180
187
195
203
211
219
228
236
244
254
264
273
283
291
300
308
316
324
331
337
341
344
348
350
350
351
350
346
344
340
336
330
324
317
309
302
294
285
276
268
259
250
242
235
227
220
213
206
199
193
188
184
178
173
168
164
161
158
154
151
148
146
143
142
140
139
136
135
133
132
130
130
128
127
125
124
124
124
123
123
121
121
121
121
122
123
123
122
123
125
126
127
129
130
130
132
134
135
137
139
140
142
143
146
149
150
151
153
155
157
159
162
163
163
165
166
167
169
171
172
172
173
174
176
177
177
177
178
178
179
181
182
181
180
181
181
180
182
182
181
181
181
181
182
181
182
181
180
180
180
180
181
180
179
179
179
179
179
179
180
178
179
179
180
180
180
180
180
180
180
182
181
182
182
181
181
183
184
184
184
184
184
185
185
186
186
187
187
187
186
188
188
187
187
186
186
186
187
187
186
186
185
185
186
186
186
187
186
186
187
187
187
188
187
187
188
188
189
189
189
189
189
189
189
190
190
190
190
190
191
191
192
191
192
191
191
192
192
193
193
192
193
192
193
194
194
193
193
192
192
193
194
193
193
192
192
193
194
195
194
194
195
195
196
197
197
197
197
196
198
198
199
199
199
199
199
200
200
200
201
200
201
202
202
203
204
203
204
204
206
207
208
209
209
209
209
211
212
213
212
213
213
214
215
216
216
217
218
218
218
220
221
223
222
223
224
226
228
229
229
229
230
231
232
233
234
235
235
236
236
238
238
238
239
238
238
239
241
241
241
241
241
242
244
245
245
244
244
244
245
246
247
246
246
246
245
246
246
246
246
245
244
244
244
245
244
243
242
241
240
241
241
239
239
237
237
237
236
235
233
232
231
231
230
230
229
228
226
225
225
224
223
222
220
219
218
217
216
215
213
212
211
210
210
209
207
206
205
203
202
202
200
199
198
196
195
194
194
194
192
191
190
190
189
189
188
187
187
187
187
187
187
186
185
184
184
184
184
184
183
183
182
181
181
182
182
181
180
179
179
180
180
180
179
178
178
178
180
180
179
178
179
179
180
180
180
180
180
180
180
180
180
180
180
179
178
179
179
179
178
178
178
178
179
179
179
178
178
178
178
179
179
179
178
178
177
178
178
179
178
178
177
177
177
178
178
178
177
177
177
178
178
178
177
178
178
179
179
179
179
179
178
179
179
180
180
180
180
180
180
181
181
180
180
179
179
179
179
179
179
178
178
179
179
179
179
178
177
177
178
179
179
179
178
178
178
178
179
179
179
179
178
178
179
180
179
179
178
177
178
178
178
178
178
177
177
177
177
177
177
176
176
176
177
178
178
177
177
177
179
179
179
180
179
178
178
179
179
180
179
179
178
179
179
179
178
177
177
176
177
177
177
176
176
176
176
176
177
176
177
176
176
177
177
178
178
179
178
178
179
179
179
179
179
177
177
178
178
178
177
176
176
176
177
178
177
176
176
176
176
177
177
177
177
177
177
178
178
178
178
177
178
178
179
179
179
178
178
178
178
180
180
180
179
178
179
180
180
180
180
179
179
178
180
179
179
179
179
178
178
179
179
179
178
177
177
178
179
179
178
177
177
178
179
179
179
178
178
178
178
179
180
179
178
177
177
178
178
179
178
177
176
177
177
178
177
177
176
176
176
177
177
176
176
176
176
176
177
176
176
175
175
175
176
177
177
176
175
175
176
176
176
176
175
175
175
176
175
175
175
175
175
175
176
177
176
176
175
175
177
177
177
177
177
176
176
176
177
177
177
176
176
177
177
177
177
176
176
176
175
176
177
176
176
175
175
175
176
176
175
175
174
174
175
175
175
174
175
175
175
176
176
175
175
175
175
175
176
176
176
175
174
175
176
176
176
175
174
174
174
175
176
175
175
174
174
175
175
175
176
175
174
175
175
175
176
175
174
174
175
175
176
176
175
175
175
175
175
175
175
174
174
175
175
175
175
174
174
173
174
174
174
174
173
172
173
174
174
174
173
173
174
174
175
176
176
175
176
176
177
178
178
178
178
177
177
177
177
177
177
176
176
176
177
178
177
176
176
176
177
177
177
177
176
176
176
177
178
178
177
177
177
178
178
178
178
178
177
177
177
178
178
178
177
177
177
177
178
178
177
176
176
176
176
177
177
177
176
177
177
178
178
178
178
177
177
178
177
178
177
177
176
177
178
178
178
177
176
176
177
177
178
177
177
176
176
176
177
177
176
176
176
177
177
178
178
178
177
177
177
177
178
177
177
177
177
178
178
178
178
178
178
179
180
181
181
181
181
182
182
184
184
185
185
185
186
186
188
188
188
187
187
188
188
189
189
188
188
188
187
188
188
187
187
186
186
186
185
185
185
184
184
184
185
185
185
185
184
185
185
186
185
185
184
184
184
184
185
185
184
183
184
184
185
184
184
183
183
182
183
183
184
183
182
181
182
183
182
182
181
180
180
181
181
181
181
181
180
180
180
180
180
180
179
178
178
179
178
178
178
177
177
178
178
178
178
178
177
178
179
179
179
179
179
178
178
178
179
178
179
178
178
179
179
179
179
178
178
178
178
178
178
177
177
176
176
176
177
177
176
176
175
175
176
176
176
174
174
174
173
173
172
171
168
167
165
164
163
161
158
156
154
153
151
150
148
147
146
146
146
147
149
150
153
155
159
163
168
173
178
185
192
199
208
217
226
235
243
253
263
273
283
292
302
310
319
328
336
342
348
352
356
359
361
362
361
359
357
353
349
344
338
331
322
314
305
297
288
279
269
260
251
242
235
227
220
212
205
199
193
188
183
178
173
168
164
161
159
156
153
150
147
146
144
143
141
139
136
135
134
134
132
131
130
129
127
127
127
126
125
124
123
123
123
124
124
124
124
125
126
127
128
130
130
131
133
136
138
140
141
142
144
147
150
152
154
155
156
157
160
162
164
165
166
167
169
170
172
173
173
173
173
174
175
176
176
176
176
176
177
178
178
178
178
177
178
178
179
179
178
178
179
179
180
179
180
179
179
179
180
180
180
181
180
179
180
181
183
183
182
183
182
183
184
184
185
184
185
185
186
187
186
186
185
185
184
185
185
184
183
183
183
182
183
183
183
181
180
180
181
181
182
182
181
182
182
183
184
184
183
184
184
184
185
186
186
186
185
185
186
185
185
186
185
184
184
185
184
185
184
184
183
184
185
184
185
185
184
184
185
186
186
185
185
184
184
185
185
185
185
185
185
186
186
187
187
186
186
187
187
189
189
188
189
189
189
190
191
191
191
190
191
191
192
193
193
193
193
193
194
195
196
195
195
195
196
197
197
197
198
198
198
200
200
201
201
202
202
203
204
205
206
206
205
206
207
208
209
209
210
209
210
211
212
213
214
214
215
216
216
218
219
218
219
219
220
221
222
223
222
223
223
224
225
226
226
227
227
228
230
231
232
233
233
234
235
237
238
239
239
240
241
243
243
244
245
245
245
245
246
247
247
246
246
245
245
245
245
245
244
243
243
243
243
242
242
240
240
238
239
238
237
237
235
234
234
234
233
232
231
230
229
228
229
227
226
225
224
223
222
221
220
219
217
215
214
213
213
211
209
208
206
206
205
205
203
202
201
200
200
199
198
197
195
194
194
194
193
193
191
190
190
189
190
188
187
187
185
186
186
185
185
184
184
183
182
182
182
181
181
181
181
181
181
182
181
181
181
181
181
181
181
181
180
179
179
180
179
178
178
177
177
177
176
176
175
175
174
173
174
174
174
173
174
173
174
174
174
174
173
174
174
175
176
176
176
175
176
175
177
177
176
177
176
176
176
177
177
177
177
176
175
176
176
176
176
175
175
175
176
176
176
176
175
175
175
176
176
176
175
175
175
176
177
176
177
176
177
176
177
178
178
177
176
176
176
176
176
176
176
175
175
175
176
175
176
175
174
175
175
176
176
175
174
174
174
175
176
175
174
174
174
174
174
174
174
173
173
173
173
174
174
173
173
173
172
173
173
173
173
172
172
173
173
173
173
173
172
172
173
174
173
173
172
173
173
173
173
174
172
173
173
173
174
174
174
173
173
174
174
175
175
174
173
173
172
174
173
173
173
172
173
173
174
174
174
173
173
173
174
175
174
175
174
174
175
175
175
175
174
174
174
174
175
175
174
174
173
173
173
174
174
174
173
173
173
173
173
173
172
172
171
173
173
173
173
172
172
172
172
173
173
173
172
172
172
173
173
173
173
172
173
174
174
175
174
174
173
174
175
175
175
175
173
173
173
174
174
174
173
172
172
173
173
173
172
172
172
172
173
172
172
172
171
171
171
172
172
171
170
170
170
171
171
171
171
170
170
170
171
171
171
170
170
170
170
170
171
171
169
170
170
170
171
171
170
169
169
169
169
170
170
169
169
169
169
169
170
169
169
169
169
170
169
170
170
170
169
170
171
170
171
170
169
169
169
170
169
169
168
168
167
168
169
169
168
167
166
167
167
168
168
167
166
166
167
167
168
168
168
167
168
168
168
169
168
167
168
168
169
168
168
168
166
166
167
166
167
166
165
164
165
166
166
166
166
165
165
165
167
167
167
167
167
167
167
168
169
168
168
167
168
169
169
169
169
169
168
168
168
169
168
168
168
167
168
167
168
167
166
166
166
166
167
166
166
165
164
165
165
165
165
165
164
164
165
165
166
166
166
165
166
166
167
168
167
168
167
168
168
169
168
167
168
167
168
168
168
167
167
166
167
168
167
168
167
166
166
166
167
167
167
166
166
166
166
167
167
165
165
165
164
165
165
165
164
164
164
164
163
164
164
163
163
162
163
164
164
164
163
163
164
164
165
165
165
165
164
165
166
167
166
166
166
167
167
167
169
168
168
168
169
169
170
171
171
171
172
172
173
174
174
174
173
174
175
175
176
175
175
174
175
175
175
175
175
175
174
173
174
174
173
173
172
172
173
173
173
172
173
172
172
173
174
173
173
173
173
173
173
174
174
173
173
173
173
174
173
172
171
171
171
171
171
171
170
169
169
168
169
169
169
169
168
168
168
168
168
167
167
167
167
167
168
167
167
166
166
166
166
167
166
166
165
165
164
165
165
165
164
164
164
165
165
166
165
164
165
165
166
166
166
165
166
166
166
167
168
167
166
166
167
167
167
168
167
167
167
168
168
168
167
167
166
165
166
166
166
164
163
162
162
161
160
159
157
155
152
151
150
148
146
144
141
140
139
138
138
136
136
136
137
138
141
143
145
147
151
155
161
167
173
180
187
195
203
211
220
229
237
247
256
267
277
286
295
303
311
320
327
333
339
343
346
348
350
351
351
349
346
342
337
332
326
319
311
302
293
286
277
268
259
249
240
231
224
217
209
202
194
188
182
177
173
167
162
157
153
150
148
145
142
139
135
133
132
130
128
126
124
123
121
120
120
119
117
114
113
113
112
112
111
109
108
108
108
108
109
109
109
110
111
112
114
116
117
118
120
122
125
127
128
130
131
134
135
139
141
142
143
144
147
148
151
152
153
153
154
155
157
159
160
160
161
161
162
164
164
164
164
164
164
165
165
165
166
165
165
165
166
166
166
165
165
165
166
166
167
166
166
166
166
167
167
167
167
167
166
167
168
168
168
168
167
167
167
168
168
168
167
167
168
168
169
170
169
168
169
169
169
170
169
170
169
169
169
170
169
169
168
168
168
169
169
169
168
168
168
169
169
169
170
169
168
168
169
169
169
169
168
169
168
169
170
170
170
170
170
170
171
172
172
171
171
171
172
173
173
173
173
173
172
173
174
174
173
173
173
174
174
175
175
175
174
174
175
176
177
176
176
176
176
177
177
177
177
177
177
177
178
178
177
178
177
177
178
179
179
179
179
178
179
179
181
181
180
181
181
182
182
183
184
183
183
184
185
186
186
186
186
187
187
188
190
190
190
190
190
192
193
194
194
195
195
196
196
198
199
199
199
200
202
202
204
204
205
206
206
207
209
210
210
211
211
212
213
214
215
215
215
215
216
218
219
220
220
220
221
221
223
224
224
224
225
225
226
227
227
228
228
228
228
229
229
230
229
229
228
229
229
229
229
229
228
227
228
227
227
227
225
224
224
224
224
223
222
221
220
219
218
218
216
214
214
212
211
210
209
208
207
206
204
204
204
203
201
199
198
197
196
196
195
193
191
190
190
189
189
187
185
183
183
182
182
181
180
179
178
177
177
176
174
174
172
172
171
171
171
170
168
168
168
168
168
167
166
165
165
164
164
165
164
163
162
162
162
162
162
161
160
160
160
160
160
160
160
159
158
158
159
158
159
157
157
156
157
157
157
156
155
154
155
155
157
156
156
155
155
155
156
156
156
155
155
155
155
156
156
155
155
155
156
155
156
156
155
154
154
155
155
155
155
154
155
155
155
155
155
155
155
155
155
156
156
156
156
156
156
156
158
157
157
157
156
156
157
157
158
157
157
157
157
158
159
159
159
159
159
159
160
160
160
160
159
159
159
160
159
159
158
158
158
158
159
159
159
157
157
158
158
159
158
158
157
157
158
158
158
158
156
156
156
156
157
157
155
155
155
156
156
156
156
155
154
154
155
155
155
154
154
154
155
156
156
156
156
155
155
156
156
157
157
157
156
157
156
158
158
157
156
157
156
157
158
158
157
157
157
157
158
158
158
157
157
157
157
157
157
156
156
156
156
157
157
157
156
156
156
157
157
158
157
157
157
158
158
159
159
159
159
158
159
159
160
160
160
159
159
160
160
160
161
160
159
160
160
161
160
160
159
159
159
160
160
160
160
158
158
159
159
159
160
158
159
159
158
159
159
158
158
158
158
158
159
159
158
158
158
158
159
160
159
158
157
157
158
159
159
158
158
157
158
158
159
159
158
157
157
157
158
159
158
157
157
157
157
158
158
157
157
157
157
158
158
158
157
157
157
157
158
159
158
157
157
157
157
158
158
157
157
156
157
158
158
157
158
157
158
158
159
159
159
157
157
157
157
158
158
157
157
157
158
158
158
158
158
157
158
158
159
159
159
158
158
158
157
158
158
158
156
156
157
156
157
156
155
155
155
155
155
155
155
154
153
153
154
155
155
154
154
154
154
155
155
156
155
154
154
155
155
156
155
155
154
154
155
155
155
154
154
154
155
155
156
156
155
155
155
157
157
158
158
157
156
156
157
158
157
158
157
157
157
157
158
157
157
156
156
157
157
157
156
155
156
155
155
156
156
155
155
155
155
156
156
157
156
155
155
157
158
157
157
157
156
156
157
157
157
157
156
156
157
157
157
157
156
155
155
156
156
156
156
155
155
155
155
156
155
155
154
154
155
156
157
156
156
156
156
156
157
158
157
157
156
156
157
157
158
157
156
156
156
157
157
156
156
156
155
156
155
155
155
154
154
153
154
154
154
154
153
153
153
154
155
154
154
153
153
154
154
155
155
155
154
154
155
156
156
156
156
156
157
159
160
160
160
161
161
161
163
164
165
164
165
165
167
167
167
167
166
166
167
167
168
168
167
167
166
166
167
167
166
166
165
165
165
165
165
164
163
163
164
164
164
164
163
162
162
162
162
163
163
162
161
161
162
162
162
161
160
160
161
161
161
161
160
160
159
160
160
160
160
158
158
158
158
158
158
158
156
156
156
156
157
157
156
155
155
157
157
157
156
156
156
156
156
156
156
157
156
156
156
157
157
156
156
155
155
157
157
157
156
156
156
156
157
157
157
156
156
156
156
157
157
158
157
156
156
157
157
157
157
156
156
156
155
156
156
155
154
153
153
154
154
153
152
150
148
147
147
145
142
140
138
136
135
133
131
128
126
125
123
123
122
122
123
123
123
127
130
133
137
140
146
151
158
166
173
182
190
198
208
218
228
238
248
258
268
279
290
299
308
316
324
330
337
342
346
349
350
350
350
349
347
344
339
333
327
320
313
305
296
287
277
268
259
250
241
232
222
214
207
200
192
186
178
171
166
161
156
152
147
143
138
135
132
130
127
124
121
119
118
116
115
113
111
110
108
108
107
105
103
102
100
100
99
99
98
98
97
96
97
98
99
100
99
100
101
103
105
107
108
109
111
112
114
117
119
120
121
124
126
129
131
133
134
136
138
140
141
143
144
145
146
146
149
150
151
151
151
152
153
154
155
155
154
155
155
155
156
156
155
155
155
155
156
157
157
157
156
156
157
157
158
158
158
157
157
159
159
159
159
158
158
158
158
159
158
158
157
157
157
157
158
158
157
157
157
157
158
158
157
157
157
157
157
158
158
158
158
158
159
160
159
160
159
159
160
160
161
161
161
160
161
161
161
162
162
162
160
160
161
161
162
162
162
161
161
161
163
163
163
163
162
163
163
164
164
164
163
163
164
164
164
164
163
163
162
162
163
164
164
164
163
164
164
165
165
164
165
165
166
167
168
168
168
168
168
169
170
170
170
170
169
169
169
170
170
170
169
169
171
171
172
171
172
172
172
172
174
174
175
174
175
176
177
178
179
178
178
179
180
180
181
182
182
182
183
183
185
185
186
186
187
187
187
189
189
190
191
191
193
194
195
196
196
196
197
198
199
200
201
201
202
202
203
204
205
205
204
206
207
208
210
210
209
210
211
212
213
214
215
215
215
216
217
217
219
218
219
219
220
221
221
222
222
221
221
222
223
223
223
222
221
221
222
221
221
220
219
218
219
218
218
217
217
215
214
214
214
213
212
211
210
209
208
207
206
205
204
203
202
201
201
199
197
196
195
194
193
192
191
190
188
187
186
186
185
183
181
180
180
179
178
177
175
174
173
173
173
172
171
169
167
167
166
166
165
164
162
162
161
162
161
160
160
159
158
158
158
157
156
156
155
155
154
154
153
153
151
151
152
152
152
152
151
150
150
150
151
151
150
150
149
150
150
150
150
150
149
149
149
150
150
150
149
149
148
149
149
149
149
147
147
147
148
147
148
147
146
146
147
146
147
146
146
146
146
146
147
147
147
146
147
147
148
149
149
148
148
148
148
149
149
149
149
148
148
148
148
149
148
148
148
148
149
149
148
148
147
147
148
149
149
149
149
148
148
149
149
150
149
149
148
148
148
148
147
147
146
146
147
147
148
147
147
147
147
147
148
148
148
147
147
147
148
148
148
147
147
147
147
147
147
146
146
145
145
146
146
146
146
145
145
145
145
146
146
145
145
145
146
146
147
147
147
146
146
147
148
148
147
147
146
146
146
146
147
145
145
145
144
145
145
145
144
143
143
143
144
144
143
143
143
143
144
144
145
143
143
143
143
144
144
145
143
143
144
144
144
144
144
143
143
143
144
144
144
143
142
143
144
144
144
144
144
143
144
144
145
145
144
143
143
144
143
144
144
144
143
143
143
144
144
144
143
142
142
143
143
143
143
142
142
142
142
143
143
142
142
142
141
142
142
142
141
141
140
142
142
142
142
141
141
141
141
142
142
142
141
142
143
144
145
144
144
144
144
145
145
145
145
145
144
144
143
144
143
143
142
142
142
142
142
142
141
140
140
141
142
141
141
141
141
141
141
142
142
142
141
141
141
141
142
141
141
140
140
141
140
141
140
140
139
139
140
140
140
139
139
140
140
141
141
141
141
140
141
142
143
143
143
142
142
142
142
143
142
142
141
141
141
142
142
141
140
141
140
141
141
141
141
141
140
140
141
141
142
140
141
141
141
142
142
141
141
140
140
140
140
140
140
139
138
139
140
139
139
139
138
138
137
137
137
137
137
136
136
137
136
136
135
135
134
134
135
136
136
135
135
135
136
136
137
136
137
136
136
137
138
138
137
137
137
138
138
139
139
138
137
137
138
138
138
138
137
137
137
137
138
138
137
137
137
137
137
137
137
137
136
136
137
137
137
137
137
136
136
137
137
136
136
136
135
135
136
135
136
135
135
134
134
135
135
135
134
133
134
133
134
134
133
133
132
132
133
132
133
131
131
131
131
131
132
131
131
130
130
131
131
132
130
130
130
130
130
130
131
129
129
129
130
132
132
131
131
131
131
132
134
134
134
134
135
135
136
137
137
137
137
138
138
140
140
140
140
139
140
140
141
141
140
139
139
139
139
140
139
139
138
138
138
138
138
137
137
136
136
135
136
135
136
135
134
135
135
136
135
134
134
133
134
134
134
134
133
132
132
133
133
132
131
131
129
130
129
129
129
127
127
126
127
127
127
126
126
126
126
126
127
127
127
127
126
127
127
128
128
127
127
127
127
128
128
128
127
127
127
127
128
128
127
126
126
126
126
126
126
126
126
126
126
127
128
127
126
126
126
127
127
127
126
126
125
126
127
126
126
126
126
126
126
127
127
126
125
124
125
125
125
125
123
123
122
120
119
118
116
114
112
110
109
108
106
103
101
99
98
97
97
96
95
95
95
96
99
100
102
105
108
112
118
124
130
136
143
149
158
166
174
183
191
200
208
217
227
237
245
253
260
268
275
282
287
291
294
296
298
299
299
298
296
291
288
282
277
271
264
255
247
239
230
223
214
204
196
187
180
172
166
158
151
145
139
133
129
124
120
115
111
107
105
102
100
98
95
92
91
89
89
86
85
83
82
80
79
79
77
75
74
73
74
73
72
71
71
70
70
70
71
71
71
72
72
74
75
77
77
78
79
81
83
85
87
89
90
91
94
96
97
99
100
101
103
104
106
108
109
109
110
112
113
115
117
117
117
118
118
120
121
122
121
122
121
122
123
124
123
123
122
122
123
123
123
122
122
121
122
121
122
122
122
122
121
122
122
122
122
122
122
122
123
124
125
125
124
124
124
125
125
125
125
124
124
124
124
125
125
125
124
125
126
126
126
127
126
126
127
127
128
128
128
128
127
128
128
128
127
127
127
127
127
128
127
128
127
127
127
128
128
128
128
127
127
128
129
128
128
128
127
127
128
128
128
129
128
128
128
130
130
129
129
129
128
129
130
131
130
129
129
130
130
131
131
130
130
129
129
129
130
129
129
129
129
129
130
131
130
130
129
129
130
132
132
132
132
132
132
133
134
134
134
134
134
135
135
136
136
136
136
136
137
138
139
138
139
138
139
139
140
141
140
140
140
140
141
142
142
142
142
143
144
145
146
146
146
147
148
149
151
151
151
153
153
155
156
157
157
158
158
159
160
162
162
162
163
163
164
164
165
166
166
166
165
166
167
167
168
167
167
167
168
169
169
170
169
169
170
171
172
172
173
173
174
173
174
175
175
175
174
175
175
175
175
174
174
173
173
173
173
172
171
169
169
168
168
168
167
166
164
163
163
162
161
161
159
157
157
156
155
154
152
151
150
149
149
148
147
144
143
143
142
142
141
140
139
138
138
137
137
136
135
133
132
131
132
131
130
128
126
126
125
125
124
124
122
121
121
120
119
118
118
116
115
115
115
115
114
113
112
112
112
113
113
112
111
110
111
111
110
110
109
109
109
109
109
109
110
109
108
107
109
108
109
108
109
108
108
109
110
109
108
107
107
108
109
108
109
108
107
108
108
109
109
108
107
107
107
107
108
108
106
106
106
106
107
106
106
105
105
106
106
107
106
106
105
105
105
106
106
106
106
106
105
107
107
108
107
107
106
106
107
107
107
107
107
107
106
106
107
106
106
105
105
104
105
105
104
104
104
104
104
105
105
105
105
104
104
105
106
106
105
105
105
105
105
105
104
104
103
103
103
103
104
102
102
101
101
102
102
102
101
101
101
101
102
103
103
102
102
103
103
105
105
105
104
105
104
105
105
105
104
104
104
104
104
104
104
103
102
102
103
103
103
102
102
101
101
101
102
101
101
100
100
100
100
101
101
100
99
100
101
101
101
101
100
100
101
102
103
103
102
102
102
102
102
103
102
103
102
103
103
103
103
103
102
102
103
103
103
104
103
102
102
102
102
102
101
101
100
100
100
101
101
100
100
100
100
102
101
101
101
101
102
103
103
104
104
103
103
103
104
104
104
104
103
103
103
104
103
102
102
100
100
100
100
101
100
99
98
99
99
100
101
100
100
100
100
101
101
102
101
100
100
101
102
102
101
101
100
100
100
100
100
99
98
97
98
98
98
98
97
97
96
97
97
97
97
96
97
96
97
98
98
97
97
97
96
97
98
98
97
98
97
97
97
98
97
97
97
97
97
98
98
98
96
97
97
98
97
98
97
97
96
96
97
96
96
95
94
95
95
95
95
95
94
94
94
95
94
94
93
93
93
93
93
93
94
93
93
93
94
95
95
94
94
94
95
95
95
95
95
95
95
95
96
96
96
95
95
95
95
96
96
95
94
95
94
95
96
95
94
93
93
93
93
93
93
93
93
93
93
94
94
93
93
93
93
94
95
94
94
93
93
93
94
94
93
92
91
92
92
92
92
92
91
91
91
92
91
92
91
91
91
92
92
92
91
91
91
91
92
92
92
92
91
91
91
92
92
92
91
91
91
91
91
91
91
90
90
91
90
91
90
90
89
90
89
90
90
89
89
88
89
88
89
90
89
89
88
89
90
89
90
89
89
89
89
90
90
91
90
90
89
90
91
91
91
91
90
91
92
92
92
93
92
93
93
95
95
95
95
95
95
96
97
97
97
97
96
96
97
96
96
95
95
94
93
93
94
93
92
91
90
91
91
91
90
89
89
90
90
90
90
89
90
90
90
90
91
91
90
90
90
90
91
90
90
89
89
89
89
89
90
89
88
88
88
88
88
88
88
87
87
87
87
87
86
86
85
86
85
86
86
85
86
85
86
86
87
86
85
85
85
86
86
87
86
86
86
86
87
88
88
87
86
86
87
86
87
87
86
85
85
85
85
85
84
84
83
83
84
84
84
83
82
82
83
83
83
83
82
81
81
81
82
81
80
78
78
77
76
76
74
73
71
69
67
66
65
64
62
61
60
61
62
61
61
62
63
65
68
72
74
78
82
87
92
98
104
111
117
123
130
138
146
153
160
167
175
183
191
199
206
212
217
222
227
230
233
235
235
234
234
233
231
228
223
217
211
205
199
192
184
177
168
160
153
146
139
132
124
117
110
104
100
94
89
84
79
77
73
70
68
64
61
59
57
57
55
53
52
51
49
49
48
48
47
45
45
44
44
43
42
41
40
39
38
37
37
36
36
35
34
35
35
35
35
36
36
37
38
40
42
42
43
44
46
48
50
52
53
56
57
59
61
63
65
65
67
68
70
72
73
73
73
74
76
77
78
78
78
78
78
79
79
79
80
78
79
79
80
80
80
80
79
79
80
80
80
80
79
80
80
81
81
82
82
82
81
82
84
84
84
84
84
85
85
86
87
87
86
87
87
86
87
88
87
87
86
87
87
88
87
88
86
86
87
87
87
87
87
86
85
86
86
86
85
84
85
84
85
85
85
84
84
84
85
85
85
85
85
84
84
85
85
85
85
85
85
85
86
87
87
86
85
86
85
86
86
86
86
86
86
86
88
88
87
88
87
88
89
89
91
90
90
90
91
91
91
92
91
91
91
90
91
91
91
90
89
90
91
91
91
91
91
91
91
93
93
93
93
93
93
94
95
96
95
96
96
96
97
98
98
98
97
98
98
100
100
100
101
100
101
102
103
104
104
104
105
106
107
108
109
108
109
109
110
112
112
112
112
113
113
114
116
116
116
116
116
117
117
118
120
119
120
120
121
123
123
123
124
124
124
125
126
127
126
127
127
127
129
130
130
129
129
130
130
131
132
132
131
132
132
132
132
133
133
132
133
133
134
134
134
134
134
134
135
135
135
135
133
133
132
132
131
132
130
130
129
128
129
128
127
125
124
123
122
122
120
120
118
116
115
115
114
114
112
110
109
107
108
107
106
105
103
102
102
102
101
100
100
98
97
97
97
97
95
94
93
93
92
92
91
90
89
89
88
87
87
86
85
83
83
82
82
81
80
80
79
78
78
78
78
77
77
75
76
76
76
75
75
75
74
75
75
76
76
75
75
75
75
75
76
75
75
75
76
77
78
77
76
77
76
77
77
77
77
77
76
76
76
77
76
75
74
74
75
75
75
75
74
74
73
74
75
75
75
75
75
75
77
77
77
77
76
76
77
77
77
76
76
75
75
75
76
76
75
74
74
74
74
74
73
73
72
72
73
74
75
74
73
73
73
74
74
75
74
74
74
75
75
76
76
76
76
76
76
77
76
77
76
76
76
75
76
76
75
75
74
74
75
75
75
75
73
74
74
75
75
75
75
74
75
75
76
76
76
75
74
75
76
76
76
76
75
74
75
75
75
76
74
75
75
74
75
75
74
74
74
74
75
75
75
75
75
75
75
76
75
75
74
75
75
74
75
75
75
74
73
74
75
75
76
75
75
74
75
75
75
76
75
75
75
75
75
75
74
74
74
74
75
75
75
74
74
73
73
74
74
73
73
72
72
73
74
74
73
73
73
73
74
74
76
75
75
75
75
76
77
77
77
76
77
76
77
78
77
77
77
78
78
78
79
78
77
77
78
78
78
78
78
77
77
78
78
78
78
78
77
77
78
78
77
77
77
77
77
78
78
78
78
77
77
78
78
78
77
78
77
77
78
79
79
78
77
77
78
79
79
78
78
77
77
77
78
78
77
77
76
76
77
76
76
76
75
74
75
75
75
76
75
75
75
75
76
76
75
74
75
75
77
78
78
77
77
77
77
79
79
79
79
79
79
79
79
79
79
79
78
77
78
79
79
78
77
77
77
77
77
77
76
76
76
77
77
77
76
76
76
75
76
76
76
76
75
75
76
75
76
76
74
74
73
74
75
75
75
74
74
74
75
76
76
75
75
75
75
76
76
77
76
76
76
76
76
76
75
75
74
75
75
75
75
74
74
74
74
75
75
75
74
75
75
74
75
76
75
75
74
75
75
76
76
76
75
75
75
76
76
75
75
74
75
75
76
76
75
75
75
76
76
76
76
75
75
75
75
76
76
75
74
75
75
75
76
76
75
76
75
75
76
77
77
77
76
76
77
78
79
78
77
77
77
76
77
77
77
77
76
76
76
76
76
74
74
73
74
74
74
73
73
72
72
72
73
73
73
73
73
73
73
74
75
74
74
74
74
76
76
76
75
76
76
77
77
77
78
78
78
79
79
80
80
80
80
80
81
82
83
83
82
82
82
82
82
82
82
81
81
82
82
81
81
81
80
80
80
80
81
80
79
80
80
79
80
81
80
79
80
79
80
81
81
81
81
81
81
82
81
81
81
80
81
81
81
81
80
79
79
79
79
79
79
79
78
77
77
78
77
78
77
76
76
77
77
77
76
76
76
75
76
76
76
75
75
75
75
76
75
76
75
74
74
75
76
76
75
75
74
75
76
76
76
76
75
74
75
75
76
75
74
75
75
74
75
75
75
74
74
74
75
76
76
76
75
75
76
76
76
76
76
75
75
75
75
75
73
72
71
71
71
70
68
66
65
63
62
61
59
58
57
55
53
52
52
52
51
51
52
53
55
57
60
62
65
68
73
79
85
90
96
103
110
117
126
134
141
149
158
167
175
184
193
200
207
214
221
227
232
235
239
240
241
242
242
240
238
233
229
224
219
212
206
197
189
181
173
166
158
150
141
133
125
118
112
106
99
93
87
83
79
75
70
67
63
59
57
55
52
51
48
46
45
44
43
42
41
39
38
38
37
36
36
34
34
33
32
33
33
32
31
31
31
31
32
32
32
33
33
34
36
37
39
40
40
42
44
45
47
49
50
52
53
55
58
60
61
62
64
65
67
69
70
71
71
73
74
75
77
77
77
77
78
79
80
80
80
79
79
80
80
81
81
81
81
81
81
83
82
83
82
81
82
83
83
83
83
83
83
82
83
84
84
83
84
84
84
85
86
85
84
84
84
84
85
85
85
84
84
85
85
86
87
86
86
86
86
87
88
88
87
87
88
88
89
89
88
88
88
88
88
89
88
88
87
87
88
88
89
89
88
88
88
89
89
90
89
89
89
89
91
91
91
92
91
91
92
92
93
92
92
91
91
92
93
93
93
92
92
93
93
94
93
94
93
92
93
94
94
94
94
93
93
93
95
95
94
94
94
94
95
96
96
95
96
96
97
98
98
99
98
98
99
100
100
100
100
100
100
100
101
102
102
102
102
102
103
103
104
105
104
105
105
106
107
108
107
108
108
110
110
112
112
112
112
113
114
115
115
116
116
116
116
117
119
119
120
119
120
121
122
124
124
125
124
126
127
129
130
131
130
131
132
132
134
134
135
136
136
137
139
140
140
140
140
140
142
143
143
143
143
144
144
145
145
145
146
146
146
145
146
147
147
146
146
146
146
147
147
146
145
145
144
144
145
144
143
142
142
142
141
141
140
139
138
137
137
137
137
135
133
133
131
131
130
129
127
125
124
123
124
122
121
120
118
117
116
115
115
113
112
111
109
109
108
108
107
105
105
104
104
103
102
102
100
100
99
100
99
98
97
96
95
96
95
95
94
93
93
92
93
93
93
92
91
91
91
92
91
90
90
90
89
89
90
89
89
88
87
87
87
88
88
87
86
86
87
87
87
86
86
85
86
87
87
87
87
86
85
86
87
87
88
87
87
87
87
88
87
88
87
86
87
88
87
87
87
86
86
87
87
88
88
87
86
86
87
87
87
87
86
86
85
86
86
87
86
86
86
86
87
87
87
86
86
86
86
87
87
86
85
85
85
85
86
87
86
86
86
86
88
88
88
89
88
89
90
92
92
92
92
91
91
92
93
92
91
91
91
91
91
92
91
90
90
89
89
90
90
89
88
89
89
89
90
89
89
88
88
88
89
89
89
88
88
88
88
88
89
88
88
88
88
89
89
89
88
88
88
89
89
90
89
89
88
88
89
89
89
89
88
88
87
88
89
88
87
87
87
87
88
88
88
88
87
87
88
89
89
90
89
89
90
90
91
91
91
90
90
91
92
93
93
92
92
92
93
92
93
93
92
92
92
93
93
93
93
92
92
92
93
93
93
93
92
92
92
93
93
93
92
91
91
92
92
92
92
91
91
92
92
93
93
93
92
92
93
93
93
94
92
92
92
93
93
93
93
94
93
93
94
95
94
93
93
93
94
94
94
93
93
92
92
93
94
94
93
93
93
94
94
95
95
94
94
94
94
95
95
95
95
94
95
95
96
96
95
95
95
95
96
96
96
97
96
96
96
97
98
97
96
96
95
96
97
97
96
96
96
95
96
97
96
95
95
95
96
96
96
96
95
96
96
96
96
96
96
96
96
96
97
97
97
97
96
96
97
97
97
97
97
96
96
96
97
97
96
96
96
96
97
97
97
96
96
96
96
97
97
96
96
96
96
97
97
98
97
97
97
97
98
98
98
97
98
98
98
99
99
99
98
98
97
98
98
98
98
97
97
96
98
97
98
98
97
97
98
98
98
98
98
97
97
98
98
99
98
98
98
98
99
99
99
99
98
98
98
98
99
99
98
98
98
98
99
99
98
98
98
99
99
100
99
99
98
98
99
98
99
99
98
97
98
99
99
99
99
98
98
99
99
100
100
100
99
99
100
101
101
100
100
99
99
100
100
100
100
99
98
99
99
100
100
100
100
100
100
100
101
101
101
100
101
102
101
101
101
100
100
100
101
100
101
99
99
99
98
99
99
98
98
97
98
97
98
99
97
97
97
97
98
98
98
96
96
96
96
96
96
95
95
94
94
94
95
95
95
95
95
95
96
96
97
98
97
98
99
100
101
102
101
102
103
103
105
105
105
106
106
106
108
108
108
108
108
108
109
109
109
109
109
108
108
108
109
109
108
107
107
107
108
107
107
107
106
106
106
106
107
106
105
104
105
105
106
106
105
105
105
106
106
106
106
106
105
106
106
107
107
106
106
105
105
105
105
105
104
103
103
103
103
104
104
103
102
102
102
102
102
103
102
101
101
102
103
102
101
101
101
102
102
102
102
102
102
102
103
103
103
103
102
102
102
102
103
103
102
102
101
102
102
103
103
101
101
101
102
102
102
102
101
100
100
101
101
101
101
100
100
101
102
102
102
102
101
101
101
101
102
101
100
99
99
99
99
98
96
94
92
91
90
88
86
84
82
80
79
77
76
74
73
72
71
72
73
74
75
76
79
83
87
92
96
101
106
113
120
128
137
145
152
161
170
180
189
200
208
217
227
236
244
253
260
266
271
275
280
283
284
285
284
281
279
276
273
268
261
254
246
239
231
222
214
204
194
186
178
170
162
154
145
138
130
125
119
113
108
101
97
94
90
86
83
80
77
74
72
71
69
67
65
63
62
60
60
59
57
55
54
53
53
52
50
50
48
48
48
48
49
48
48
48
49
49
51
52
52
53
55
56
59
61
63
64
65
67
70
73
74
76
77
79
81
83
86
88
88
89
90
92
94
95
96
98
98
98
99
100
101
101
101
101
101
102
103
103
102
102
102
103
103
104
104
103
103
103
105
105
105
105
105
105
106
106
107
107
107
107
107
107
108
108
108
109
108
108
108
109
109
108
108
108
108
109
109
109
108
108
107
108
109
110
109
109
109
109
110
111
111
111
111
111
111
112
113
113
112
111
111
112
113
113
113
113
112
112
113
112
112
112
111
112
112
112
113
113
113
112
112
113
113
114
114
114
113
113
114
115
115
114
114
114
114
114
115
115
114
114
114
115
115
116
116
116
116
117
117
118
118
119
118
118
119
120
120
121
121
121
121
121
122
122
122
122
121
122
122
123
123
123
122
123
123
123
124
124
124
124
125
125
127
128
128
128
128
129
130
131
132
132
133
133
133
135
136
136
136
135
135
137
138
139
139
139
138
139
140
141
141
142
141
142
143
144
144
146
145
146
147
148
149
151
152
152
153
154
156
157
158
159
160
160
161
162
164
165
165
165
165
166
168
168
169
168
169
168
169
170
170
171
171
170
171
172
173
172
172
171
172
172
173
174
174
174
173
172
173
174
174
173
171
171
170
170
169
169
167
167
166
166
165
165
164
162
161
159
159
158
158
156
154
153
153
151
151
150
149
147
146
144
143
143
142
140
138
138
137
137
136
136
134
133
131
131
131
130
128
127
126
125
126
124
123
122
121
120
120
120
119
118
117
116
116
116
115
115
114
113
113
113
113
113
113
112
111
111
111
111
112
111
110
109
109
109
109
109
108
107
107
108
108
109
109
108
108
107
108
108
109
108
108
108
107
109
108
108
108
108
107
108
108
108
108
108
107
107
108
108
108
107
107
107
107
107
107
108
107
107
107
107
108
108
108
107
107
107
108
109
109
108
107
107
108
109
110
110
109
109
109
109
110
110
110
110
109
109
109
110
110
110
109
109
109
110
110
109
110
109
109
109
110
110
110
109
109
109
109
110
110
110
110
109
109
110
109
110
109
109
109
109
110
110
110
109
109
109
109
110
110
110
109
110
109
110
111
111
110
110
109
110
110
111
111
110
111
110
111
111
112
112
111
110
110
111
111
111
110
110
110
110
110
110
110
109
108
108
109
109
109
109
109
108
108
108
109
109
109
108
109
110
110
110
110
110
109
109
109
110
110
110
109
109
109
109
110
110
110
109
109
109
110
111
110
110
110
110
110
111
112
111
110
110
110
111
112
112
111
111
111
112
113
113
114
113
113
114
114
115
115
114
114
114
114
114
115
114
114
113
113
113
114
113
113
112
111
111
111
112
111
110
109
109
109
110
110
109
109
109
109
110
110
111
111
111
110
110
112
112
113
113
112
112
112
113
113
113
113
112
112
113
113
113
113
113
112
112
113
112
113
112
112
111
112
112
113
113
112
112
112
112
112
113
113
113
113
112
113
114
114
113
113
112
113
113
114
114
113
113
112
113
113
114
113
113
112
112
113
113
113
113
113
112
113
114
114
114
114
113
113
114
114
115
115
115
114
114
114
115
115
114
114
113
113
113
114
113
113
112
112
112
113
113
113
112
112
113
114
114
115
114
114
114
114
115
115
115
115
114
114
115
114
115
114
113
113
112
112
112
112
111
110
110
110
110
111
110
109
110
110
110
111
110
111
110
110
111
112
112
112
113
113
112
113
113
114
114
114
114
114
114
115
116
115
115
115
115
116
116
116
115
116
115
116
116
116
116
115
114
114
114
115
114
114
114
113
113
114
114
114
114
113
113
114
114
114
114
114
114
114
114
115
115
115
115
114
114
115
115
115
115
114
113
113
113
114
113
112
113
112
113
113
113
113
112
112
112
113
113
113
112
112
112
112
112
113
113
113
112
112
113
114
115
114
113
114
114
114
115
115
116
115
114
115
116
116
115
116
115
115
116
116
117
116
116
116
116
116
117
117
117
117
116
116
116
117
116
116
115
115
115
116
116
116
116
115
115
116
116
116
116
116
115
115
115
116
116
115
115
115
116
115
116
115
115
115
115
117
117
117
117
117
116
117
118
119
118
118
118
119
119
120
120
120
120
120
120
121
122
122
122
122
122
123
123
123
123
124
123
124
125
125
125
125
125
124
125
126
127
126
126
125
126
126
126
127
126
125
125
125
125
126
125
125
125
124
124
124
126
125
124
124
124
124
125
125
125
124
123
124
124
124
125
125
124
124
123
123
123
123
123
122
121
121
121
121
121
120
120
120
120
121
121
120
120
120
120
120
121
121
121
120
119
120
120
121
120
119
119
119
119
119
120
119
118
118
118
118
119
119
118
118
118
118
119
119
119
119
119
119
120
120
120
120
120
119
120
120
121
121
120
120
119
120
120
120
120
120
119
119
119
120
119
119
117
117
117
116
115
113
111
109
107
105
104
102
99
97
95
93
91
90
89
88
87
86
87
88
90
92
94
97
100
105
111
117
123
130
136
145
153
162
172
180
190
199
209
218
229
239
248
257
265
273
280
287
292
294
298
299
301
302
301
300
296
292
287
282
276
269
261
251
242
234
225
217
208
198
189
181
172
165
157
150
142
136
130
125
121
115
111
105
102
99
96
94
91
88
85
83
81
81
80
78
76
74
73
72
71
70
68
67
65
65
65
65
64
63
62
62
62
63
63
63
64
64
66
67
69
70
70
72
73
75
77
79
80
81
82
85
87
90
91
93
94
96
97
100
102
104
105
106
107
110
111
113
114
114
114
116
117
118
118
119
119
119
120
120
121
121
121
120
119
120
121
121
120
120
119
120
121
121
121
121
121
121
121
122
122
122
123
122
122
123
124
123
124
123
122
122
122
123
123
123
122
122
123
123
123
123
123
122
121
122
123
123
123
123
122
123
123
124
124
124
124
123
124
124
125
125
124
123
123
124
125
125
126
125
124
124
125
126
126
126
125
126
126
127
128
128
128
128
128
128
129
130
130
129
129
129
129
130
131
130
130
129
129
129
130
130
129
129
128
128
129
129
128
127
127
127
127
128
129
128
128
128
129
129
130
130
130
131
130
131
132
132
133
133
134
133
134
136
136
136
135
136
136
138
138
138
138
138
139
138
139
140
140
140
140
140
141
142
142
143
142
143
144
145
146
146
145
146
146
147
149
150
150
151
151
152
153
155
156
156
155
157
158
159
160
161
162
162
163
163
164
165
166
166
166
167
169
169
171
171
171
171
171
173
174
174
174
173
174
175
175
176
175
176
175
176
176
178
178
178
178
178
179
179
180
181
181
181
181
181
181
182
182
182
181
181
182
181
181
180
180
179
178
179
178
177
176
175
174
174
173
172
172
170
169
168
168
167
167
166
164
163
163
162
162
162
160
158
157
156
156
154
154
152
151
150
149
148
148
146
144
143
143
142
142
140
140
138
137
137
136
135
134
133
132
131
130
131
130
129
127
126
126
126
126
125
125
124
124
123
122
122
122
121
120
119
120
120
120
119
118
118
118
118
118
118
117
116
116
116
117
116
117
116
115
116
116
117
118
118
117
117
117
118
119
119
118
118
118
118
119
120
120
119
118
119
120
120
121
120
119
119
120
120
121
121
120
121
120
120
120
120
120
119
119
118
119
119
119
119
118
117
118
118
118
118
117
117
117
118
118
118
118
117
117
117
117
119
119
119
118
118
118
119
119
119
119
119
119
120
120
121
120
120
119
120
121
121
121
121
120
119
120
120
121
120
120
119
120
119
119
119
120
118
118
118
119
119
118
118
117
117
116
117
117
117
117
116
116
116
116
117
116
116
116
116
117
118
117
118
117
117
118
118
119
119
119
119
119
119
119
120
120
119
118
119
119
120
120
119
119
119
119
120
120
120
120
119
119
119
119
119
120
118
119
119
119
120
119
120
118
118
119
119
119
119
118
117
117
118
119
119
119
118
118
119
119
119
120
120
120
119
119
120
121
121
121
120
121
121
121
121
121
121
120
121
121
122
121
122
121
120
121
122
121
121
121
120
119
120
120
120
120
119
119
119
120
120
120
120
119
119
119
120
120
121
120
120
120
120
120
121
120
120
120
120
120
120
120
120
119
118
119
119
120
119
118
118
118
117
118
117
117
116
115
116
116
116
116
117
115
115
115
115
116
116
115
115
115
116
117
118
117
117
116
116
117
118
118
117
117
117
117
119
119
119
118
118
118
119
119
119
119
119
118
118
119
120
120
121
120
