# Simple Text Format
# Sampling Rate (Hz):= 1200.00
# Resolution:= 12
# Labels:= ECG	 II
# Age:=	66
# Gender:=	Feminino
112
110
110
110
111
111
110
109
109
109
110
111
111
110
110
110
111
112
113
113
113
113
114
116
118
119
119
118
118
119
121
122
123
123
122
122
123
124
124
123
122
121
121
121
122
122
122
121
122
124
126
129
132
134
137
141
146
151
157
161
165
168
172
175
179
182
183
183
184
184
184
183
180
176
171
166
162
157
151
145
138
131
125
121
116
112
107
102
98
95
93
91
89
87
85
83
83
84
85
84
84
83
84
85
87
88
88
87
87
88
89
90
91
90
89
89
89
90
90
89
88
87
86
87
88
88
87
85
85
85
86
87
87
86
86
86
87
88
88
87
86
85
85
86
88
88
88
88
88
89
91
92
93
93
93
95
97
99
101
102
103
104
105
108
110
112
112
113
113
115
117
119
121
121
121
122
123
125
125
125
125
124
125
126
127
128
127
126
126
126
127
128
128
127
126
125
126
127
128
127
126
125
124
125
126
126
125
124
123
124
125
126
126
126
125
125
126
127
127
127
126
125
125
126
127
128
127
126
126
126
127
128
127
126
125
125
126
127
127
126
125
124
124
125
127
127
126
125
125
126
128
129
129
129
129
129
130
131
132
132
131
130
130
131
132
132
131
130
129
130
130
131
130
129
128
128
129
131
131
131
130
129
130
131
132
133
132
131
131
132
133
135
135
135
135
135
135
136
136
136
135
134
134
136
137
137
137
136
135
136
137
138
139
138
138
138
139
140
141
140
140
139
140
141
142
143
142
142
142
142
144
145
145
144
144
144
145
147
147
147
146
146
146
147
148
148
148
147
146
147
149
150
150
149
149
149
150
151
152
152
151
151
151
153
154
155
154
154
154
155
156
157
158
158
157
158
159
160
161
160
159
159
159
160
161
162
161
160
159
160
161
162
162
162
161
161
162
163
164
163
163
163
164
165
167
167
167
166
167
168
169
171
171
170
170
170
171
172
172
171
169
169
168
169
170
169
168
167
167
167
168
168
168
167
166
166
167
168
168
167
166
165
165
166
167
167
166
164
163
164
164
164
164
163
161
161
161
161
161
159
157
156
156
157
157
157
156
154
153
154
155
155
155
154
153
152
153
153
153
152
151
150
150
151
152
152
150
149
148
148
148
149
148
147
146
146
147
147
147
146
145
144
144
145
146
146
145
143
143
143
144
144
144
142
141
141
141
142
142
141
139
138
138
139
139
139
138
137
136
136
137
138
137
137
136
135
136
137
137
137
136
135
135
136
137
137
136
135
135
135
136
137
137
136
135
135
136
137
137
136
135
134
134
135
136
136
136
135
134
135
136
136
136
136
135
136
137
138
139
138
137
137
137
138
139
139
139
138
138
139
141
141
141
140
140
139
140
141
142
141
140
139
139
140
141
140
139
138
137
138
139
139
139
137
136
136
137
137
137
136
135
135
135
136
137
137
136
135
134
135
137
137
137
137
136
136
137
138
138
138
137
137
137
138
139
139
138
137
137
138
139
140
140
140
139
139
140
141
142
141
140
139
140
141
142
142
141
140
140
140
141
142
141
140
139
139
140
141
141
140
139
138
138
138
139
139
138
137
137
138
139
139
139
138
137
137
138
139
140
139
138
138
138
140
141
141
140
139
139
140
141
142
142
142
141
141
142
143
143
142
141
141
141
142
143
143
142
141
141
142
143
144
144
143
142
142
143
144
144
144
143
142
142
143
144
144
143
142
142
143
144
145
145
144
143
143
144
145
144
143
142
141
142
143
144
143
142
141
141
141
142
143
143
142
141
141
142
143
143
142
142
141
142
143
144
144
143
142
142
143
144
145
145
145
144
144
145
146
146
145
143
143
142
143
144
143
142
141
140
141
142
142
142
140
139
139
140
141
141
140
139
139
139
140
141
141
141
140
140
141
142
142
142
142
141
142
143
144
145
144
143
143
143
144
145
145
144
143
143
144
145
146
146
145
144
144
145
146
146
145
144
144
144
144
145
144
143
142
142
143
144
144
144
142
141
141
142
143
142
141
140
139
140
141
142
142
141
139
139
139
140
140
140
139
138
138
139
140
140
139
138
137
137
138
139
139
138
137
136
137
138
139
138
137
137
137
138
139
140
139
138
137
137
138
139
140
139
138
139
140
141
142
142
141
140
141
142
143
143
142
141
141
141
141
142
142
140
139
139
140
141
141
140
139
138
138
139
140
140
139
138
138
138
140
141
141
140
139
139
140
141
141
141
140
139
138
139
139
139
138
136
135
135
136
137
136
135
134
134
135
136
137
137
137
136
137
138
140
140
140
139
139
140
142
143
143
142
141
142
143
144
145
146
145
145
146
147
148
149
148
148
148
148
150
151
151
150
149
150
151
152
153
153
152
151
152
153
154
155
154
154
154
155
156
158
158
158
158
158
160
162
164
164
164
164
165
166
167
168
167
167
167
168
169
170
169
168
167
167
168
168
168
168
166
165
165
166
166
166
165
163
163
163
163
163
163
161
160
160
161
162
162
162
161
160
160
161
161
161
160
158
158
158
158
158
157
156
154
154
154
154
154
153
151
150
149
150
150
149
147
146
145
145
145
146
145
143
142
141
142
143
143
142
141
141
141
142
142
142
141
140
140
141
142
142
142
140
139
139
140
141
142
141
140
140
140
141
141
141
140
139
139
140
141
142
141
140
139
139
140
141
141
141
140
139
140
141
141
141
140
139
138
139
140
140
140
138
137
137
138
139
139
139
138
138
139
140
142
142
142
141
141
142
144
145
145
144
143
144
145
145
146
145
144
143
143
143
144
143
142
142
142
144
146
149
151
153
155
160
165
170
176
180
185
189
194
199
203
206
207
208
209
210
210
210
207
203
199
195
191
187
181
175
168
162
156
151
147
141
136
131
127
124
122
120
117
115
112
112
111
112
112
111
110
110
111
113
114
115
114
113
113
114
115
116
115
114
113
113
114
115
115
115
113
112
112
113
113
112
111
110
109
110
111
111
111
110
109
108
109
110
110
109
108
108
108
109
110
110
109
108
108
108
110
111
111
111
111
113
115
117
119
120
120
121
123
126
128
130
130
131
132
134
136
138
139
139
140
141
143
144
145
145
144
144
145
147
147
147
146
145
145
145
146
147
146
145
144
143
144
145
145
144
143
142
143
144
144
144
143
143
143
143
145
146
145
145
144
145
146
146
147
146
145
145
145
146
147
146
145
144
143
144
144
145
144
143
143
144
145
146
146
146
145
144
145
147
148
148
147
147
147
148
149
149
149
148
148
148
149
150
151
150
149
149
149
150
151
150
149
148
147
148
148
149
148
147
146
146
147
148
148
148
147
147
148
149
150
150
149
148
149
149
151
151
151
150
149
149
150
151
151
150
149
148
149
150
150
150
149
148
148
148
149
150
150
149
149
150
152
153
154
154
153
153
154
155
156
156
155
155
155
156
157
158
157
156
155
156
156
157
157
156
155
155
156
157
158
158
157
156
156
157
158
159
159
158
158
159
161
162
163
163
162
163
164
166
167
167
167
167
168
169
170
171
170
170
170
171
172
173
174
174
173
173
174
175
175
175
174
173
173
174
175
176
175
174
174
175
176
177
178
178
177
177
178
180
180
180
179
179
179
180
181
182
182
181
181
181
182
183
183
182
181
181
182
183
184
183
183
182
182
182
183
183
183
181
181
181
182
182
182
181
180
179
179
180
180
179
177
176
175
175
175
175
174
173
172
172
173
173
173
172
171
171
171
172
172
172
171
170
170
170
171
171
171
169
168
168
169
169
169
168
167
166
167
167
167
166
164
163
162
162
163
162
161
159
158
158
159
159
159
158
157
156
157
157
158
157
156
155
155
156
157
157
156
155
154
154
155
155
155
155
154
154
154
155
155
154
153
152
152
153
154
155
154
153
152
153
154
155
155
154
153
152
153
154
154
153
152
152
152
152
154
154
153
152
152
152
154
155
155
155
154
154
155
156
157
156
155
154
153
154
155
155
154
153
153
153
154
155
155
155
154
154
155
156
156
156
155
154
154
155
156
156
155
154
153
153
154
154
154
153
152
152
152
153
154
153
152
151
151
152
153
154
153
152
152
152
153
154
154
154
153
153
153
154
155
154
153
152
152
153
155
155
155
154
154
155
156
157
158
157
157
157
159
161
161
161
160
160
160
161
162
162
161
160
160
160
161
162
162
161
160
160
161
162
162
162
161
160
160
161
162
163
162
161
161
161
162
163
163
162
161
161
162
163
163
162
161
160
159
160
160
160
159
158
158
158
160
160
161
160
159
159
160
161
162
161
160
160
160
161
163
163
162
162
161
162
163
164
164
164
163
163
164
166
166
166
165
164
164
166
167
167
167
166
166
167
168
169
169
168
167
167
168
169
169
168
167
166
166
167
168
169
168
167
167
167
168
169
170
169
168
168
169
170
171
171
170
169
170
171
172
173
172
171
171
172
173
173
173
172
171
171
172
173
173
172
171
170
169
170
170
170
169
168
168
168
169
170
170
170
169
169
170
171
171
171
170
170
170
171
172
172
172
171
170
171
172
173
173
172
171
171
172
173
173
173
172
171
171
172
173
173
172
171
170
171
171
172
172
171
170
170
171
172
173
172
170
170
169
170
171
171
170
169
168
169
169
170
170
169
168
167
168
169
169
169
168
167
167
168
169
169
168
167
167
168
169
170
170
169
168
168
169
170
171
170
170
169
170
171
172
172
172
171
170
171
172
173
173
172
171
170
171
172
171
170
169
168
168
168
169
169
168
167
166
167
168
168
168
168
167
167
168
169
170
169
168
168
168
169
170
170
169
167
167
167
169
169
170
169
168
168
169
170
170
170
169
169
169
170
171
171
171
170
170
171
172
173
173
172
171
171
172
173
173
172
171
170
171
172
173
173
172
171
171
172
173
174
175
174
174
174
176
177
178
177
177
177
177
179
180
181
181
180
180
181
183
184
185
184
184
184
185
187
187
187
186
186
187
188
190
190
190
189
189
190
192
193
193
193
192
193
194
195
196
195
194
194
194
195
196
196
196
194
194
195
195
196
196
195
194
193
194
195
194
193
192
191
190
191
191
191
190
189
188
189
190
191
190
189
188
188
188
189
189
188
187
186
186
186
187
186
185
183
181
181
182
182
181
179
178
177
177
177
177
176
174
173
173
174
175
174
173
172
172
172
173
173
173
171
170
170
170
171
171
170
168
167
167
167
168
168
166
165
165
165
166
166
166
165
164
164
165
166
167
166
165
164
164
165
166
166
165
163
163
164
165
165
165
164
163
164
165
166
166
166
165
164
164
165
166
166
165
164
164
165
167
168
168
167
166
167
168
170
171
170
170
170
171
173
174
175
174
173
174
175
176
176
176
175
174
174
174
175
175
174
173
173
175
177
180
182
184
185
189
193
199
204
208
212
216
221
225
229
232
234
234
235
235
236
235
233
229
225
220
216
211
206
200
193
186
180
176
171
166
160
155
150
147
145
144
142
140
137
136
136
136
136
136
135
135
135
137
138
139
138
137
137
137
137
138
138
136
135
134
135
135
136
135
134
133
133
134
134
134
133
132
131
131
132
133
133
132
132
131
132
133
133
133
131
130
130
131
131
131
131
130
129
129
130
132
132
132
132
132
134
136
138
139
139
140
142
144
147
149
149
150
151
153
155
157
159
159
159
159
161
163
164
164
164
163
163
164
165
166
165
164
163
163
164
165
165
164
163
163
163
164
165
164
163
163
163
164
165
165
164
163
162
163
163
164
164
163
162
162
163
164
164
164
163
162
162
163
164
164
163
162
162
162
163
164
165
164
163
163
164
165
166
166
165
165
165
166
167
168
167
166
165
165
166
167
167
166
165
165
165
166
167
167
167
166
166
167
168
168
167
166
166
166
166
167
166
165
164
164
165
166
166
166
165
164
164
165
166
166
166
165
165
165
167
168
168
168
167
167
168
169
169
169
168
167
167
168
169
169
168
167
166
166
167
168
168
168
167
167
168
170
171
171
170
170
170
172
173
174
173
172
172
173
174
175
175
174
174
174
174
175
176
176
175
174
174
175
176
176
176
175
174
174
175
176
176
175
175
175
176
177
178
178
178
178
179
180
181
181
181
181
181
182
184
185
185
185
184
185
186
187
188
188
188
187
188
189
191
191
190
190
190
190
192
193
193
192
191
191
192
194
195
195
194
194
194
195
196
196
195
195
194
195
196
197
197
196
196
196
197
198
199
198
198
197
197
198
199
199
198
197
196
197
198
198
198
197
196
196
196
197
197
197
196
195
195
195
196
195
194
193
192
192
192
193
192
190
189
188
188
188
188
187
185
184
184
184
184
184
182
181
180
180
180
181
181
180
179
178
179
179
179
179
178
177
178
179
179
179
177
176
175
175
175
176
175
173
172
172
172
173
173
172
171
170
170
170
171
171
170
168
167
167
167
168
167
166
165
165
165
166
166
166
165
164
164
165
166
166
165
163
163
163
163
164
164
162
161
161
162
163
163
162
161
160
160
160
161
161
160
158
158
158
159
160
159
158
157
157
158
159
160
159
159
158
158
159
159
159
158
158
158
158
159
160
160
159
159
159
160
161
161
160
159
158
158
159
160
159
158
157
157
157
158
158
157
156
155
155
156
157
157
157
157
156
157
158
158
158
157
156
156
157
158
158
158
157
156
156
156
157
158
157
156
156
156
158
158
158
158
157
157
158
159
161
161
160
160
160
161
162
163
163
162
161
162
162
163
162
161
160
159
159
159
160
159
157
156
156
156
157
157
157
156
155
155
156
157
157
156
155
155
156
157
157
157
156
156
156
157
158
159
158
158
157
158
159
160
160
159
159
159
159
161
161
161
160
159
160
160
161
161
160
159
158
158
159
159
159
158
156
156
156
157
157
157
156
155
155
156
157
158
158
157
157
157
159
160
160
159
158
158
159
160
160
160
159
158
158
158
159
159
158
157
155
155
156
156
155
153
152
151
152
152
152
151
150
149
149
150
151
152
151
150
150
151
152
153
153
152
152
152
152
153
154
153
152
152
152
153
154
155
154
154
153
154
155
156
155
155
154
154
156
157
158
158
157
156
157
158
159
159
159
158
157
158
159
159
159
157
156
155
156
156
156
156
154
154
154
154
155
155
154
152
152
152
153
154
154
153
153
153
153
154
155
154
153
152
153
154
155
155
154
154
153
153
154
155
154
153
152
151
152
153
154
153
152
151
151
152
153
153
152
151
151
151
153
154
153
152
152
151
152
153
153
153
152
151
151
152
153
153
152
151
151
151
152
153
152
151
150
149
149
150
151
150
149
148
149
150
151
151
151
150
149
150
151
151
151
150
149
149
150
151
151
151
150
149
149
150
151
151
150
150
149
150
151
152
152
151
150
150
151
152
152
152
151
150
151
151
152
152
152
151
150
151
152
153
152
151
150
150
151
152
152
151
150
149
149
150
150
150
149
148
148
149
149
150
149
148
147
147
147
148
149
149
148
147
148
149
150
151
150
150
149
150
151
152
152
151
150
151
152
153
154
154
153
153
153
154
156
156
156
155
155
156
158
159
159
158
157
158
159
160
161
161
160
160
160
162
163
164
164
163
164
165
166
167
166
166
165
165
167
168
169
168
167
166
167
168
169
169
168
168
167
168
169
169
169
168
167
167
168
169
170
169
168
167
167
168
169
169
168
167
167
167
168
168
167
165
164
164
165
165
166
164
163
162
162
162
163
162
161
160
159
159
160
159
158
157
155
154
154
155
155
153
151
150
150
150
151
150
149
148
147
147
148
148
147
146
145
145
145
146
146
146
144
144
145
146
147
147
147
146
146
147
148
149
148
147
147
146
147
148
148
147
146
146
146
147
148
148
148
147
147
148
149
150
149
148
148
148
149
150
151
150
150
149
150
150
151
151
150
149
148
148
149
149
149
147
146
146
147
148
148
148
147
146
147
149
150
151
151
150
150
152
153
154
154
154
153
153
154
155
155
154
153
152
152
153
154
154
154
153
154
156
159
162
164
166
169
172
178
184
189
193
197
201
206
211
215
218
219
220
221
222
222
221
218
214
209
205
200
195
190
183
176
169
163
158
153
148
142
136
131
128
126
124
121
118
115
114
114
114
114
113
112
112
112
114
115
115
115
114
113
114
115
116
115
114
113
113
113
114
114
113
111
111
111
112
113
113
113
112
111
112
113
113
112
111
110
110
110
111
111
110
108
107
108
108
109
109
108
107
107
108
110
111
111
111
112
113
115
118
120
121
122
124
126
129
132
134
135
135
137
139
141
143
144
144
144
145
147
148
149
149
148
148
148
149
150
150
149
148
148
149
150
150
149
148
147
148
148
149
150
149
148
148
148
149
150
150
149
149
149
150
151
152
151
150
149
148
149
150
150
149
148
147
148
148
149
149
149
148
147
148
149
149
148
147
147
147
148
150
150
149
148
148
149
150
151
151
150
150
150
151
152
152
151
150
149
149
150
151
151
151
149
149
150
151
151
152
151
150
150
151
152
152
152
151
150
151
152
153
153
152
151
151
151
152
153
153
152
151
151
152
153
154
153
152
152
152
153
154
154
153
152
152
153
154
155
155
155
154
154
154
155
156
155
154
154
154
155
156
157
156
155
155
156
157
158
158
158
157
157
158
159
160
160
159
158
158
159
161
161
161
160
160
160
162
162
163
162
162
162
163
164
165
164
163
163
163
164
166
166
165
165
165
166
167
168
169
168
168
168
169
170
171
170
169
169
169
170
171
172
171
170
170
171
172
173
173
173
172
173
174
176
177
176
176
176
176
177
179
179
179
178
178
179
180
181
181
180
179
179
180
182
182
181
180
180
180
181
182
182
181
180
180
181
182
183
183
182
181
180
181
181
181
180
179
178
178
178
179
179
178
176
176
176
177
177
177
176
175
174
175
176
176
175
174
173
173
173
174
173
172
170
169
170
170
171
170
169
167
167
167
167
167
166
164
163
163
163
164
164
162
161
160
160
161
161
161
160
159
159
159
160
160
158
157
156
156
156
157
157
155
154
154
154
154
155
155
153
152
152
153
153
154
153
152
151
151
151
152
152
151
149
149
149
150
151
151
150
149
148
149
150
150
149
148
148
148
149
150
150
149
148
148
148
149
150
149
148
147
147
147
148
148
147
145
145
144
145
145
145
143
142
141
142
143
144
144
144
143
143
144
146
146
146
145
145
145
146
148
148
147
146
146
147
148
149
149
148
147
147
148
149
149
148
147
146
146
146
147
147
146
144
144
144
145
146
145
145
144
143
144
146
146
145
145
144
145
146
147
147
146
145
145
146
148
148
149
148
147
147
148
149
149
148
147
146
147
147
149
149
148
147
147
148
148
149
149
148
147
148
149
150
150
150
149
148
148
149
150
150
150
149
148
149
150
150
150
149
148
147
148
149
149
148
147
146
147
148
149
149
148
147
147
148
150
151
151
151
150
150
152
153
154
153
152
152
152
153
154
154
153
152
152
153
154
155
155
154
153
153
154
155
156
155
154
154
154
155
156
156
155
154
154
154
155
155
155
154
153
153
154
155
154
153
152
151
151
151
152
152
151
150
150
151
152
153
153
152
152
152
153
154
155
155
154
154
154
155
156
156
155
154
154
154
155
155
155
154
153
152
153
153
153
152
151
150
149
150
151
151
149
148
148
148
149
150
150
149
149
149
150
151
151
151
150
150
150
152
153
153
152
151
151
152
153
153
153
152
151
151
152
153
153
152
150
150
149
150
151
151
150
149
149
149
150
150
150
149
149
149
150
150
151
150
149
148
148
149
150
150
149
148
148
148
150
150
150
149
148
148
149
150
150
149
148
147
147
147
148
148
147
146
146
147
148
149
148
147
146
147
148
149
149
149
148
148
148
150
151
150
149
148
148
149
150
151
151
150
149
149
150
151
151
150
148
147
148
148
149
149
148
147
147
148
149
150
150
149
149
149
150
151
151
151
150
149
150
151
152
151
150
149
149
150
151
151
151
150
148
148
149
150
150
149
148
147
147
147
148
148
147
146
146
147
148
148
148
147
146
147
148
149
150
149
148
148
148
149
150
150
150
149
149
150
151
151
151
150
148
148
149
150
150
150
148
147
147
148
149
148
147
146
146
147
148
148
148
147
146
146
147
147
147
146
145
145
145
146
147
148
147
146
146
146
148
148
148
148
147
148
149
151
151
151
150
150
150
151
153
153
152
151
152
153
154
154
154
153
152
152
153
154
154
154
153
152
153
154
155
155
154
153
154
155
157
158
158
158
157
158
160
162
162
162
162
162
163
164
166
166
165
165
165
166
167
168
168
167
166
167
168
169
169
168
167
166
167
167
168
168
167
166
166
167
168
168
168
167
165
165
166
166
166
165
163
162
162
162
163
162
160
158
157
157
157
157
156
155
153
153
153
153
153
151
150
149
148
149
150
149
148
147
146
147
147
147
147
146
144
144
145
145
145
144
142
141
141
142
143
142
141
139
139
140
140
141
141
140
139
139
140
141
141
140
139
139
139
140
141
141
140
138
138
139
140
140
140
139
138
137
138
139
139
138
136
136
136
137
138
138
137
136
136
137
138
139
139
138
138
138
139
140
140
139
138
138
138
139
140
140
139
138
139
140
141
142
143
142
142
143
144
146
146
146
145
145
145
146
146
146
145
143
143
143
144
144
144
143
142
143
145
148
150
151
153
156
160
166
171
176
180
184
188
193
198
201
203
204
204
205
206
206
204
201
196
192
187
183
178
171
164
157
151
146
141
136
131
125
120
117
114
112
110
107
105
103
103
103
104
104
103
102
103
104
106
107
107
106
106
106
108
109
109
108
107
106
106
106
107
106
105
104
103
103
104
104
103
102
101
101
102
102
102
101
99
99
99
100
100
100
98
97
97
98
99
99
99
98
98
98
100
101
102
102
102
102
104
106
108
109
110
110
112
114
117
119
120
121
122
124
126
128
129
129
129
129
130
132
133
133
132
132
132
133
134
134
134
133
132
132
133
134
134
133
132
131
132
133
133
133
132
131
131
132
133
133
133
132
132
132
133
134
133
133
132
131
132
133
134
134
133
132
133
134
135
136
135
134
134
134
135
136
136
135
134
134
134
135
135
135
134
133
133
134
135
136
135
134
134
134
135
136
136
135
134
134
135
136
136
136
134
133
133
134
135
135
135
134
133
134
135
136
135
135
134
133
134
136
137
137
136
136
136
137
138
139
139
138
137
137
138
139
139
138
137
136
137
137
138
138
137
136
136
137
138
139
139
138
138
139
140
141
142
141
140
140
141
143
144
143
142
142
142
143
144
145
144
144
143
143
144
145
145
144
143
143
143
145
146
146
145
144
145
146
147
148
148
148
148
148
150
151
151
150
149
149
150
151
152
152
151
150
150
151
152
153
152
152
151
152
153
154
154
153
152
152
153
155
156
156
156
156
156
158
159
161
161
160
160
161
162
164
164
164
163
163
164
165
166
165
164
164
164
165
166
166
166
165
164
165
166
167
167
166
165
165
166
167
168
167
166
165
165
166
167
167
167
166
165
165
166
167
166
165
164
163
163
164
164
164
162
161
161
162
162
163
162
161
160
161
161
162
161
160
159
158
159
159
160
159
158
157
156
157
157
157
156
154
153
153
153
153
152
151
150
149
149
150
150
150
148
147
147
147
148
148
147
146
145
145
146
146
146
145
143
143
143
144
145
144
143
141
141
142
143
143
143
142
141
141
142
142
142
141
139
139
139
140
140
139
138
137
137
137
138
138
138
137
136
136
137
138
138
137
136
136
136
137
138
137
136
135
135
136
137
137
137
136
135
135
136
136
135
134
133
132
133
133
134
133
132
131
131
132
133
134
133
132
131
132
133
133
133
132
132
131
132
133
134
133
132
132
132
133
134
134
134
133
133
133
134
135
134
133
132
131
132
133
133
132
131
130
130
130
131
131
131
130
130
130
131
132
132
131
131
131
131
132
133
132
131
131
132
133
134
134
133
132
131
131
132
133
133
132
131
130
131
132
133
133
132
132
133
134
135
136
136
135
135
136
137
138
138
137
136
136
137
138
139
138
137
136
136
136
136
136
135
134
133
133
134
135
134
133
132
132
132
133
134
133
133
132
133
134
135
136
136
135
135
136
137
138
138
137
136
136
137
139
139
138
137
137
137
138
139
139
138
137
136
137
137
138
137
136
135
134
135
135
135
135
133
132
133
134
135
136
135
135
134
135
137
137
137
137
136
136
137
138
139
138
138
137
137
138
139
139
139
138
137
138
139
139
139
138
137
137
137
139
139
139
138
137
137
138
139
140
139
138
138
138
139
140
139
138
137
137
138
139
140
139
139
138
138
139
140
140
140
139
139
140
141
142
142
141
140
140
140
141
141
140
139
138
138
139
140
140
139
137
137
137
138
139
138
138
137
137
138
140
141
140
140
139
140
142
143
144
144
144
143
144
145
146
145
144
144
144
144
145
145
144
143
142
142
142
143
143
142
141
141
141
142
142
142
141
140
140
141
141
142
141
140
139
139
140
141
141
140
138
138
138
139
139
139
138
137
137
138
139
139
139
138
138
139
140
141
142
141
141
140
141
142
143
142
142
141
140
141
142
142
141
139
139
139
140
141
141
140
139
139
139
140
141
140
139
138
137
138
139
139
138
137
137
137
138
139
139
138
137
137
137
138
139
138
137
136
136
137
138
138
138
137
136
136
137
138
138
138
137
137
137
138
139
139
138
137
137
137
138
139
138
138
137
138
139
140
140
140
140
140
141
143
144
143
143
143
143
145
147
148
148
147
147
148
149
150
151
151
150
150
152
153
154
154
153
153
153
154
156
157
157
156
156
157
159
161
162
162
161
162
163
165
166
166
165
164
165
166
167
168
167
165
164
164
164
165
164
164
162
162
162
163
163
162
160
159
159
159
160
160
159
158
157
157
158
159
159
158
157
156
157
158
158
157
155
154
153
153
154
154
153
151
150
150
151
151
151
150
148
147
147
147
147
146
144
143
142
142
143
143
141
140
139
139
140
140
140
139
137
137
137
138
138
138
136
136
135
136
137
137
136
135
134
135
136
136
136
135
134
134
135
136
137
137
136
135
136
136
137
138
137
136
135
136
137
138
138
137
136
136
136
137
137
136
134
133
133
133
134
135
134
133
132
133
134
135
135
135
134
134
135
136
136
136
135
134
134
135
136
137
137
136
136
137
138
139
139
139
138
138
139
140
140
140
139
138
138
138
139
140
139
139
139
141
144
147
150
152
154
158
163
168
174
178
182
186
190
194
198
201
202
203
203
204
204
203
201
196
191
187
182
178
172
166
159
152
146
141
136
131
126
121
117
114
112
111
109
106
104
103
103
103
104
103
102
102
102
103
105
105
105
104
104
105
106
107
107
106
106
105
106
107
108
107
105
104
104
104
105
105
104
103
102
102
103
103
102
101
99
98
99
100
100
99
97
96
96
97
98
98
98
98
98
99
101
103
105
105
106
108
110
113
115
116
117
118
120
122
125
126
127
127
128
130
132
134
134
134
134
134
135
136
137
137
136
135
135
136
137
138
137
136
135
136
137
138
139
138
137
138
139
140
140
140
139
138
138
139
140
141
140
139
138
139
140
141
141
141
140
139
140
141
141
140
138
138
138
138
139
140
139
137
137
137
138
138
138
137
136
135
136
137
138
137
137
136
136
137
138
139
138
137
137
138
140
140
141
140
139
139
140
141
142
141
140
140
140
141
142
142
141
140
140
140
141
142
142
142
141
140
141
142
142
141
139
139
138
139
140
140
140
138
138
139
140
140
141
140
140
140
141
142
143
143
142
141
141
143
144
145
144
143
143
143
144
145
145
145
144
144
145
146
146
146
145
144
144
145
147
147
146
145
145
146
147
147
148
147
146
147
148
149
150
149
149
148
148
149
151
151
151
150
150
151
153
154
154
153
152
152
153
155
156
156
155
155
155
156
158
159
158
158
158
159
161
162
162
162
162
162
163
165
165
165
164
164
164
165
166
166
165
164
164
165
167
168
168
168
167
167
169
170
171
170
170
169
170
171
172
173
172
171
171
171
172
173
173
172
171
171
172
173
173
172
171
170
170
171
172
172
172
170
170
170
171
172
171
171
169
169
169
170
170
169
167
166
166
166
167
166
165
163
162
162
163
163
163
162
160
160
160
161
161
160
159
158
158
159
160
160
159
158
157
157
158
159
158
157
156
156
156
157
157
156
155
154
154
154
154
154
152
151
150
150
150
150
150
149
147
147
147
147
147
146
144
143
143
144
144
144
143
142
141
142
143
143
143
142
141
140
141
141
141
140
139
138
137
138
138
138
136
135
134
134
135
136
136
135
134
134
135
136
136
136
135
134
134
135
136
137
136
135
135
136
137
138
138
138
137
137
137
138
139
138
137
136
136
137
138
138
137
136
135
135
136
136
136
136
135
134
135
136
136
135
134
134
134
135
136
136
135
134
134
135
136
137
137
136
136
135
136
137
137
136
135
135
135
136
137
137
136
134
134
134
135
135
135
134
133
133
134
135
135
134
133
132
132
133
135
135
134
133
133
134
135
136
137
136
136
136
137
139
139
139
138
137
137
138
139
139
138
137
137
137
138
138
138
137
136
136
137
137
138
137
136
136
136
137
138
138
137
136
136
136
137
138
138
138
137
137
137
138
138
138
137
136
136
137
138
138
138
137
137
137
139
139
140
139
138
138
139
140
140
140
139
138
138
140
141
141
140
139
139
140
141
141
142
141
140
140
142
143
143
143
142
141
141
142
143
143
142
141
141
142
143
144
144
143
142
142
143
144
145
144
143
142
142
143
144
144
143
142
142
142
143
143
143
142
141
140
141
142
141
140
139
138
139
140
141
141
139
138
138
138
139
140
140
139
138
138
139
140
140
139
138
137
137
137
138
138
137
136
136
137
138
138
138
137
136
136
137
139
139
138
138
137
137
138
139
140
139
138
138
138
139
140
140
139
139
138
139
140
140
140
139
139
139
140
141
142
141
140
139
140
141
142
142
141
140
141
142
143
143
142
141
140
140
141
142
142
141
139
139
140
141
141
141
141
140
140
141
142
142
141
140
139
140
140
141
141
140
139
138
139
140
140
140
140
139
139
139
140
141
140
139
139
140
141
142
143
142
141
141
142
143
143
143
143
142
141
142
143
143
142
141
141
141
142
143
143
142
141
140
141
141
142
142
141
140
140
141
142
142
141
140
139
140
141
141
141
140
140
139
141
142
143
143
142
141
141
142
143
143
142
141
140
140
141
142
143
142
141
141
142
143
144
144
143
142
142
144
145
145
145
144
144
144
145
146
146
145
144
144
144
146
147
147
146
145
146
146
147
148
147
146
146
147
148
150
150
150
149
149
150
151
152
153
152
152
152
154
155
156
155
154
154
154
156
157
157
156
155
156
157
158
159
159
159
159
159
161
162
163
163
162
162
163
165
166
166
165
165
165
166
167
168
168
168
167
167
168
169
169
168
167
166
166
167
168
167
166
165
164
164
165
165
164
163
161
161
161
161
161
160
158
157
156
156
157
156
154
153
152
152
152
152
151
150
148
148
148
148
148
146
145
143
143
143
144
143
142
141
140
141
141
141
141
140
139
139
140
141
141
140
139
138
138
139
139
139
138
136
136
137
138
138
138
137
135
135
136
136
136
135
134
133
133
134
135
135
134
132
132
133
134
134
134
134
133
133
133
134
134
133
132
131
132
132
133
133
132
131
131
132
133
134
134
133
133
133
134
135
135
135
134
134
134
136
137
137
136
136
136
137
139
140
141
140
140
140
141
142
142
141
140
139
139
140
140
139
138
136
136
136
137
138
138
138
139
141
144
148
151
154
157
161
166
172
178
182
185
188
191
194
198
200
201
200
199
197
196
194
190
185
179
173
168
163
158
152
145
139
133
129
125
121
117
113
109
106
105
103
102
100
98
96
96
97
97
98
97
97
97
99
100
101
102
101
101
101
102
103
103
103
101
101
101
101
102
101
100
98
97
97
97
97
96
95
94
93
94
94
93
92
91
90
90
91
91
91
91
90
90
91
93
94
95
95
95
96
99
101
103
104
105
106
108
111
114
116
117
117
119
122
124
126
127
128
128
129
131
132
133
132
132
132
132
133
134
134
132
131
131
131
132
133
132
131
131
131
132
133
133
132
131
130
131
132
133
133
132
131
131
132
133
134
134
133
133
133
134
135
135
134
133
132
132
133
134
134
133
132
132
133
134
135
134
133
132
132
133
134
134
133
132
131
132
133
134
134
133
132
132
132
133
134
134
133
132
132
134
135
135
134
133
133
133
134
135
135
133
132
132
133
134
134
134
133
132
132
134
135
135
134
133
132
132
133
134
134
133
132
132
133
134
134
134
133
132
132
133
134
134
134
133
132
132
133
134
134
133
132
132
133
134
135
134
133
132
133
134
135
135
134
133
133
133
135
136
136
135
134
135
136
137
138
139
138
137
138
139
140
140
140
139
139
139
141
142
142
141
140
141
142
143
144
144
143
143
143
145
146
146
146
145
145
146
147
148
148
147
147
147
148
149
150
151
150
150
151
152
153
154
153
152
152
152
153
155
155
154
153
153
154
155
155
155
154
153
154
155
156
157
156
156
155
156
158
159
159
159
158
159
160
162
162
162
162
161
161
162
163
163
162
161
160
161
162
162
162
161
160
160
161
162
162
162
161
159
159
160
160
160
159
157
157
157
157
158
158
156
155
155
155
156
156
156
155
154
154
155
155
155
154
153
152
152
153
154
153
152
151
150
151
151
151
150
149
148
148
148
149
149
147
146
145
145
146
146
145
144
143
142
143
144
144
144
142
141
141
142
143
143
142
140
140
140
140
141
140
139
138
138
138
139
139
138
136
135
135
135
135
135
133
132
131
131
131
132
131
130
128
128
128
129
129
129
128
127
128
129
130
130
130
129
129
129
130
132
132
131
131
131
132
133
134
134
133
132
132
133
134
134
133
132
131
131
132
132
132
130
129
128
129
130
130
129
128
127
127
128
129
129
128
127
126
127
128
129
129
128
127
128
128
130
130
130
130
129
129
131
131
131
130
129
129
129
130
130
130
129
129
129
130
131
131
131
130
129
130
131
132
132
131
130
129
129
130
131
131
130
129
129
130
131
131
130
129
128
129
129
130
130
130
129
129
129
130
131
131
130
130
130
131
132
132
132
132
131
132
133
134
134
133
132
131
132
132
133
133
131
131
131
131
132
133
133
132
131
132
133
134
134
133
133
133
134
135
136
136
135
135
135
136
137
137
137
136
135
134
135
135
135
134
132
131
131
132
133
132
131
130
130
130
131
132
132
131
130
131
132
133
133
132
132
132
132
134
135
135
134
133
133
134
135
136
136
135
134
135
135
136
136
135
134
134
134
135
136
135
134
133
133
134
134
135
134
133
133
133
134
135
134
134
133
133
133
134
135
135
134
133
133
134
136
136
136
135
135
135
136
137
136
135
134
133
134
135
135
134
133
132
131
131
132
132
132
131
130
130
132
132
132
131
131
130
131
132
133
133
132
131
132
133
134
134
133
132
131
130
131
132
132
131
130
129
129
130
131
131
130
129
129
130
131
132
132
131
130
130
132
132
132
131
131
130
131
131
132
131
130
129
129
130
131
131
131
130
129
130
131
132
132
131
130
130
130
132
132
132
131
131
131
132
133
133
133
132
131
131
132
132
132
131
129
129
129
130
131
131
130
129
129
129
130
131
131
130
130
131
132
133
133
132
131
130
131
132
133
132
131
130
130
131
132
132
132
131
130
130
131
131
131
130
128
128
128
129
129
129
127
127
127
127
128
128
128
127
126
127
128
129
129
128
127
127
128
130
131
130
130
129
129
130
132
133
133
132
131
132
133
134
133
133
132
132
132
133
134
134
133
132
132
133
134
135
134
134
133
134
135
136
136
135
134
134
135
136
137
137
136
135
136
137
139
140
140
139
139
140
141
143
143
143
144
144
145
147
148
148
148
148
149
150
151
152
152
151
151
151
152
153
152
151
150
150
150
151
151
150
149
148
148
149
149
150
149
148
148
149
150
151
151
150
149
148
149
150
151
150
149
149
149
150
151
151
150
149
148
148
148
148
147
146
144
143
142
142
142
140
138
136
135
135
136
135
134
133
131
131
131
132
131
130
129
129
129
130
131
130
129
128
128
129
130
130
130
129
128
128
129
129
128
127
126
125
126
127
127
126
125
124
124
124
125
125
124
122
121
121
122
123
122
121
120
120
120
121
121
121
120
119
119
119
120
121
120
120
119
119
120
121
120
119
118
118
118
119
119
119
117
116
116
117
118
118
117
116
116
117
119
120
120
120
120
120
121
122
123
123
123
122
123
124
125
125
125
124
123
123
124
125
125
124
124
125
127
130
133
136
138
141
145
151
156
161
165
169
172
176
180
183
185
185
185
185
185
185
183
179
174
169
164
160
155
150
143
137
131
126
121
117
112
107
102
98
95
94
92
90
87
86
85
85
86
86
86
86
85
86
88
89
89
88
87
87
88
89
89
88
87
86
85
86
86
86
85
83
82
82
83
83
83
82
81
80
81
82
83
82
81
80
80
81
82
82
82
81
81
81
82
83
83
82
81
81
82
84
85
86
86
87
88
90
92
94
95
95
96
98
101
103
104
105
105
107
109
111
113
113
113
113
114
115
117
117
117
117
116
117
118
119
119
118
117
117
117
118
119
118
117
117
117
118
118
119
118
117
117
117
118
119
118
117
116
116
116
117
118
117
116
115
115
116
116
117
116
115
115
115
116
117
117
116
115
115
116
117
118
118
117
116
116
117
118
118
118
117
117
117
118
118
118
117
116
115
116
117
118
117
116
115
115
116
117
117
117
116
115
115
116
117
117
116
115
115
116
117
118
117
116
115
115
116
117
117
117
116
116
116
117
117
116
115
114
114
115
116
117
116
115
115
115
117
118
119
119
118
118
119
120
121
121
121
120
120
121
122
122
122
121
120
121
122
122
123
122
121
121
122
123
124
123
122
122
122
122
124
124
124
123
123
124
125
126
127
127
126
126
127
129
130
130
129
128
128
130
131
132
132
131
130
131
131
132
132
132
131
130
131
132
133
133
132
132
132
133
134
136
136
135
135
136
138
140
141
141
141
141
142
144
145
145
145
144
145
146
147
148
148
147
147
147
148
149
150
149
148
148
149
150
150
150
149
149
149
149
150
151
150
149
149
149
150
151
152
151
151
150
151
152
153
153
152
151
151
152
152
153
152
151
150
150
151
152
152
151
150
150
150
151
151
150
148
147
146
147
147
147
146
144
143
143
143
143
143
141
140
139
139
139
139
138
137
136
135
136
136
137
136
134
133
133
134
135
135
134
133
132
132
133
133
132
131
130
130
130
131
131
130
128
127
127
127
127
127
126
124
123
124
124
124
123
122
121
120
121
122
122
121
120
120
120
121
121
121
121
120
119
120
120
121
120
119
118
118
118
119
119
118
117
116
117
117
118
119
118
118
117
118
119
120
120
119
118
117
118
119
120
120
119
118
118
119
120
119
118
117
116
117
118
118
117
116
115
115
115
116
116
115
113
113
113
114
115
116
115
114
114
115
116
116
116
115
114
114
115
116
116
115
114
114
114
115
116
116
116
115
115
115
116
117
117
116
115
116
116
118
118
117
116
116
116
117
118
118
117
116
116
116
117
117
116
115
114
114
114
115
116
115
114
113
114
115
116
117
116
116
115
116
118
119
119
118
118
118
119
120
121
120
119
118
119
120
121
121
120
119
119
120
121
121
121
120
119
119
120
121
121
121
120
120
120
121
122
122
122
121
121
121
122
123
122
121
119
119
120
120
120
120
118
117
118
118
119
119
118
117
117
117
118
119
118
117
117
117
117
119
119
119
118
117
117
118
119
120
120
119
119
120
121
122
121
121
120
121
122
123
124
123
122
121
121
122
123
123
123
122
122
122
123
123
123
121
121
120
121
122
123
122
121
121
122
122
123
123
123
122
122
123
124
124
124
122
121
121
122
123
123
122
121
121
122
123
124
124
124
123
123
124
125
126
125
125
124
124
125
126
126
125
124
124
124
125
126
126
125
123
123
123
124
125
124
123
122
122
122
123
124
123
122
121
122
123
124
124
123
122
121
122
123
123
122
121
120
120
120
121
122
121
120
119
120
121
122
122
122
121
121
122
123
123
123
122
122
122
123
124
125
124
122
121
121
122
122
122
121
120
119
120
121
121
120
119
118
118
118
119
120
119
118
118
118
119
120
120
120
119
119
120
122
122
122
121
120
120
121
122
122
121
121
120
121
122
123
123
123
122
122
123
124
125
124
124
123
123
124
125
126
125
124
123
124
125
126
126
126
125
125
125
127
127
127
126
125
125
126
127
127
127
126
125
126
127
128
128
128
127
127
128
129
130
130
129
128
129
130
131
132
131
131
131
131
132
133
134
133
132
132
133
134
135
135
134
133
134
135
137
137
137
137
137
138
139
141
141
141
141
141
142
144
145
145
144
143
143
144
145
146
145
144
144
144
146
146
146
146
144
144
145
146
146
145
144
143
143
143
144
144
143
141
140
140
141
141
141
140
139
139
139
140
140
140
138
137
137
137
138
138
137
135
135
135
135
136
135
133
132
131
131
131
131
130
128
126
126
126
126
126
124
122
121
121
122
123
123
122
121
120
121
122
122
122
121
120
120
121
122
122
122
120
120
120
121
121
121
120
118
118
118
119
119
118
117
116
116
116
117
117
116
115
115
116
117
118
118
118
117
117
117
119
119
119
118
117
117
117
118
118
118
117
116
117
118
119
119
119
118
118
119
121
122
122
122
122
123
124
126
126
125
124
124
124
125
125
125
125
124
123
123
124
123
122
121
120
119
120
122
124
124
125
127
131
135
139
144
148
152
157
163
169
174
178
180
183
185
188
190
191
190
187
185
182
179
175
170
164
156
150
144
139
133
126
119
112
107
104
101
98
95
91
89
88
88
88
87
87
86
87
88
90
91
92
91
91
92
93
95
95
95
94
93
93
94
94
93
92
91
90
90
91
90
89
88
87
86
87
88
88
87
85
85
85
86
86
86
86
85
84
85
86
86
86
85
84
84
85
87
87
87
87
87
89
91
94
95
96
96
97
100
102
104
105
105
106
107
109
111
112
112
112
112
113
115
116
116
116
115
115
116
117
118
117
116
116
116
118
119
120
120
119
119
120
121
122
123
122
121
121
122
123
123
123
122
121
121
121
122
122
120
119
119
120
121
122
122
121
120
120
121
122
122
122
121
121
121
122
123
123
122
120
120
121
122
123
123
123
122
122
122
123
124
123
122
122
122
123
124
125
124
123
122
123
124
125
125
124
123
123
123
124
125
124
123
122
122
122
123
124
123
121
121
121
122
123
123
123
122
122
123
124
125
125
124
123
124
125
126
127
126
125
125
126
127
128
128
127
127
127
128
129
129
129
128
127
127
128
130
130
129
128
128
129
130
131
131
130
130
130
131
132
132
132
131
131
131
132
133
134
133
133
133
133
134
135
135
135
134
134
135
136
136
136
135
134
135
135
137
137
136
136
136
137
139
140
140
140
140
140
141
143
144
144
143
143
144
145
146
147
147
146
146
147
148
149
149
148
148
148
149
151
151
151
150
150
150
151
153
154
153
153
153
154
155
156
156
156
155
155
156
157
158
157
156
155
155
157
158
159
158
157
157
158
159
160
160
160
159
160
161
163
163
163
162
162
162
163
164
164
163
162
161
162
162
163
163
162
160
160
160
161
160
159
158
157
156
156
157
157
155
154
153
153
154
154
153
152
150
150
150
151
151
150
149
147
147
147
148
148
146
145
145
145
146
146
146
145
144
143
143
144
144
143
141
141
140
141
142
141
140
138
137
137
138
138
137
136
135
134
134
134
134
132
130
129
129
129
131
131
130
128
128
128
129
130
130
130
129
129
130
132
132
132
131
130
130
130
131
131
130
129
128
129
129
130
129
128
127
127
127
128
128
127
126
125
125
126
127
127
126
125
125
125
126
127
127
127
126
126
127
128
128
128
126
126
125
126
127
127
126
125
124
124
125
125
125
124
123
122
123
124
124
124
123
122
122
123
124
124
123
122
121
122
123
124
124
123
122
122
123
125
125
124
124
123
123
124
125
126
125
124
124
125
126
126
126
126
125
125
126
127
127
127
126
125
125
126
127
127
126
125
125
126
127
128
128
127
126
126
127
128
128
128
127
126
126
127
128
128
127
126
125
126
127
128
128
127
126
126
128
129
129
129
128
127
128
129
130
131
130
129
129
130
131
132
132
132
131
130
131
132
132
131
130
130
130
131
132
132
131
130
130
131
132
133
133
132
132
132
133
134
135
135
134
133
134
135
136
136
135
134
134
135
136
136
136
135
134
134
135
136
136
136
135
134
134
135
135
135
134
133
133
133
134
135
135
135
134
134
135
136
136
135
134
133
133
135
136
136
135
134
134
135
136
136
136
136
135
134
135
136
136
135
134
134
134
135
135
135
134
133
132
133
134
134
134
133
132
132
133
134
134
133
132
131
131
132
133
133
132
131
131
132
133
134
134
133
132
132
132
133
134
133
132
132
132
133
134
134
133
133
132
133
135
136
136
135
135
135
136
138
138
137
136
136
136
137
138
138
137
135
134
135
135
136
135
134
133
132
133
134
134
133
132
131
131
132
133
133
132
131
131
132
133
133
133
133
132
132
132
133
133
133
131
131
131
131
132
132
131
130
129
130
131
132
132
131
130
130
131
132
132
132
131
130
130
131
132
132
131
130
129
130
131
132
132
131
130
130
131
132
132
132
131
130
131
132
133
134
133
132
132
133
135
135
136
135
134
134
135
136
136
136
135
134
134
135
136
136
134
133
132
133
133
134
134
133
132
132
133
134
134
133
132
132
132
134
135
135
135
134
134
135
137
138
138
137
137
137
138
140
140
140
139
138
138
139
141
141
141
140
140
141
142
143
143
142
142
143
144
146
147
146
145
145
146
147
148
149
149
148
149
150
151
152
153
152
151
151
152
154
154
154
153
152
152
153
154
154
153
152
152
153
153
154
153
152
151
151
152
153
153
152
150
149
149
150
150
150
148
147
146
146
147
148
148
147
146
146
147
147
148
147
145
144
144
145
146
146
145
144
143
143
143
143
142
140
138
138
138
138
138
136
135
133
133
133
133
133
131
130
129
130
130
131
131
130
129
129
129
130
130
129
128
127
127
127
128
128
127
126
125
126
127
127
127
127
126
126
126
127
127
127
126
125
125
126
127
127
126
125
124
124
125
126
126
125
124
123
124
125
125
124
123
123
123
124
125
125
124
123
123
124
126
127
127
126
126
126
127
128
129
129
128
128
129
130
132
132
132
131
131
132
134
134
134
133
132
132
132
133
133
131
130
129
129
129
130
131
131
131
132
135
139
142
146
149
153
157
163
169
174
178
181
185
188
192
196
197
198
197
196
195
194
191
187
181
175
169
164
159
153
145
138
131
126
121
117
112
107
102
99
97
95
94
92
91
89
89
89
91
91
91
90
90
91
92
94
94
94
93
93
94
95
95
95
94
93
92
93
93
93
92
90
89
89
89
90
90
89
88
88
89
90
90
90
89
88
88
89
90
90
89
87
87
87
88
89
89
88
87
87
88
90
92
93
93
93
95
97
100
102
103
103
104
106
109
111
113
113
113
114
116
118
119
120
120
120
120
122
123
123
122
121
121
121
122
124
124
123
122
121
122
123
123
123
122
121
121
122
124
124
123
121
120
120
121
122
122
121
120
120
120
121
122
122
121
120
120
121
121
121
121
119
119
119
119
120
120
119
118
118
118
119
120
120
119
118
118
119
120
120
120
119
119
119
120
121
121
120
119
119
120
121
121
121
120
119
118
119
120
120
119
118
117
117
118
119
119
118
117
117
117
118
119
119
118
118
118
120
121
122
122
121
120
121
122
123
123
122
122
122
123
124
124
124
123
122
122
123
124
124
123
122
122
122
123
124
124
124
123
123
124
125
126
126
126
125
125
126
128
128
127
127
126
126
127
129
129
128
127
127
128
129
130
129
129
128
128
129
130
130
130
129
128
128
129
131
131
130
129
129
130
132
133
133
133
133
133
134
135
136
135
134
134
135
136
137
138
137
137
137
138
139
140
140
139
139
139
141
142
143
143
142
142
143
144
146
146
146
146
146
147
149
150
150
150
149
149
150
152
152
151
150
150
150
151
152
152
151
150
150
150
151
152
151
151
150
150
151
153
153
152
151
150
151
152
153
153
152
151
150
151
151
152
151
150
148
148
149
149
149
147
146
144
144
144
145
144
143
141
141
141
142
142
141
140
139
139
140
140
140
139
138
137
137
138
139
138
137
136
135
135
136
136
135
134
133
132
133
133
133
131
129
128
128
129
129
129
127
126
125
125
126
126
125
123
122
121
122
122
122
121
119
118
118
118
119
119
118
116
116
117
118
119
119
118
117
117
118
119
119
119
118
117
118
119
120
120
119
118
117
118
119
119
119
118
117
117
118
119
119
118
117
116
116
117
117
117
116
115
115
115
116
117
117
116
115
116
117
118
118
117
116
116
116
117
118
118
117
116
116
116
117
117
117
115
114
114
115
116
116
115
114
113
113
114
115
115
115
114
114
115
116
117
117
117
116
116
117
118
118
118
117
116
116
117
118
118
117
116
116
116
117
118
118
117
116
115
116
117
116
116
114
114
114
115
116
116
114
113
112
113
114
115
115
115
114
114
115
116
117
116
115
115
115
116
117
117
116
115
115
116
117
118
117
117
116
116
117
118
118
117
116
115
115
116
117
117
116
115
115
116
117
118
118
117
116
116
118
119
119
119
118
118
118
119
120
121
120
119
119
120
121
121
121
120
119
119
120
121
121
119
118
117
117
118
119
119
117
116
115
116
117
117
117
116
115
115
116
117
117
116
115
114
115
116
117
117
116
115
115
116
117
117
117
116
115
115
116
118
118
117
116
116
116
117
118
118
118
117
116
117
118
119
119
119
118
118
119
120
120
120
118
118
118
119
120
120
119
118
118
119
120
121
120
119
118
118
119
120
120
119
118
117
117
118
119
119
117
116
116
116
117
118
117
116
116
116
117
118
118
117
116
116
116
117
119
119
118
117
117
118
119
120
120
119
118
119
120
120
120
119
118
117
117
118
119
119
118
117
117
117
118
118
118
117
116
116
117
118
118
118
116
116
116
117
118
118
117
116
116
117
118
119
119
118
117
118
119
120
120
119
118
118
118
119
120
120
119
118
118
118
119
120
119
118
117
117
118
119
119
117
116
115
116
117
117
117
116
115
115
115
116
117
117
116
115
116
117
118
118
117
117
116
117
118
119
119
118
117
117
118
119
120
120
119
118
118
119
120
120
120
119
118
119
120
121
121
120
119
119
120
121
121
121
120
119
119
120
121
121
120
119
118
118
118
119
119
118
117
116
117
118
119
119
118
117
117
118
119
119
118
117
117
118
119
120
120
119
117
117
118
119
119
119
118
117
117
118
118
118
117
116
115
116
117
118
118
117
116
116
117
118
119
120
119
119
120
121
123
123
123
123
123
124
125
127
128
127
127
127
129
130
131
131
131
130
131
132
134
134
134
133
133
134
136
137
138
137
136
137
138
139
140
140
139
139
139
141
142
142
141
140
139
139
139
140
139
138
137
137
137
138
139
138
137
136
136
136
137
136
135
134
133
133
134
134
134
132
131
130
130
131
131
131
129
128
128
128
129
129
128
126
125
125
126
126
126
124
122
122
121
122
121
120
119
117
116
116
117
116
115
113
112
112
112
113
112
111
109
109
110
111
111
111
111
110
110
111
112
112
112
111
110
111
112
113
113
112
111
111
112
113
113
112
111
110
110
111
112
111
110
109
108
108
109
110
109
108
107
107
108
109
109
109
108
107
107
108
109
109
108
107
107
107
108
109
109
107
106
106
107
108
109
109
108
108
108
110
111
111
111
110
110
111
113
114
115
114
113
113
113
114
115
115
114
113
112
113
113
113
112
111
110
111
112
114
116
117
119
122
126
130
135
139
143
147
152
157
162
166
168
169
171
172
174
174
173
170
167
163
160
156
151
145
139
132
126
121
116
111
104
98
93
90
87
85
82
79
76
75
74
74
74
73
72
72
72
74
75
76
76
75
75
75
77
78
78
77
76
76
77
78
79
78
77
76
76
76
77
77
75
74
73
73
74
75
75
74
72
72
72
73
73
73
71
71
71
71
72
72
71
70
70
70
71
73
73
73
72
73
75
77
79
80
81
82
84
86
89
90
91
92
93
95
98
100
101
101
101
102
104
106
107
107
107
106
106
107
108
108
108
106
106
106
107
107
107
106
105
105
105
106
107
106
105
104
104
105
106
106
105
104
103
103
104
105
104
103
102
102
103
104
105
104
104
103
103
103
104
105
104
104
104
105
106
107
107
106
105
105
106
107
108
107
106
106
106
106
107
107
107
106
105
105
106
107
107
106
105
105
106
107
108
108
107
107
107
108
109
109
108
107
106
106
108
109
108
107
106
106
107
108
108
108
107
106
106
107
108
108
108
107
106
106
107
108
108
106
105
105
106
107
107
107
106
105
106
107
108
108
107
107
106
107
108
109
110
109
108
109
110
111
112
112
111
111
111
112
113
114
113
112
112
112
113
114
114
113
113
113
114
116
117
117
116
116
116
118
119
119
119
118
118
119
120
121
121
120
119
119
120
121
122
122
122
121
122
123
124
124
124
123
123
124
125
127
127
127
127
127
129
130
131
131
131
130
131
132
133
133
132
132
131
132
133
134
133
132
131
131
132
134
135
135
134
134
135
136
137
138
137
137
138
139
140
141
141
140
140
140
140
141
142
141
140
139
139
139
140
140
139
137
136
136
137
138
137
136
135
136
136
137
138
138
137
137
137
138
138
138
137
135
135
134
135
135
135
133
132
131
132
132
132
131
129
128
128
128
129
128
127
126
125
125
125
126
125
124
123
123
123
124
124
124
122
121
121
122
122
122
121
119
118
118
119
119
118
116
115
114
114
115
115
115
113
112
112
113
113
113
112
111
110
110
111
112
111
110
109
109
109
110
110
109
108
107
106
107
108
107
106
105
105
105
106
107
106
105
104
104
105
106
107
107
106
105
106
107
108
108
107
106
106
106
107
108
108
107
106
106
106
107
107
107
106
106
106
107
107
107
106
105
104
105
106
107
106
105
104
104
105
105
106
105
104
103
103
104
104
104
103
102
101
102
103
104
104
103
102
102
103
104
105
104
104
103
104
105
106
106
105
105
104
104
105
106
106
105
105
105
106
107
108
107
107
106
106
107
108
107
106
105
104
104
105
106
105
104
103
103
104
105
105
105
104
103
104
105
106
106
105
104
104
105
106
107
107
106
105
105
105
106
106
106
105
104
104
106
107
106
106
105
104
104
106
106
106
105
104
105
106
107
108
108
107
107
107
108
108
108
107
106
106
107
108
108
108
107
106
106
106
107
107
107
106
106
106
107
109
109
108
107
107
108
109
110
110
109
108
108
109
110
111
110
109
109
109
110
110
110
109
108
107
107
108
109
108
107
106
106
106
107
107
107
106
105
105
106
107
107
106
105
105
105
107
107
107
106
105
105
106
107
107
107
106
105
105
106
107
106
106
105
104
105
106
106
106
106
105
106
107
108
109
109
108
108
108
109
110
110
109
107
107
107
108
108
107
106
104
104
104
104
105
104
103
102
102
103
104
103
102
101
100
101
102
102
102
102
101
101
102
103
103
103
102
101
101
102
103
103
102
101
100
101
102
102
102
101
100
100
101
102
102
102
101
100
101
102
102
102
101
100
100
100
101
101
101
100
99
100
101
102
102
102
101
100
100
102
102
102
102
101
100
100
101
102
101
99
98
98
98
98
98
98
97
96
96
97
98
98
97
96
95
96
97
99
99
98
97
97
98
100
100
100
99
99
99
100
101
100
99
98
98
98
99
100
99
98
97
97
97
98
98
98
97
96
96
96
97
96
95
94
93
93
94
95
95
94
93
93
94
95
96
96
95
95
95
97
98
98
97
97
97
97
99
99
99
98
97
97
98
99
99
99
97
96
97
97
98
97
96
95
94
94
95
95
95
94
93
93
93
94
94
94
93
92
93
94
95
95
94
94
94
94
95
96
96
95
94
94
96
97
97
97
96
95
95
96
97
97
96
94
94
95
96
96
96
95
94
94
95
96
96
96
95
94
95
96
97
97
97
96
96
97
98
99
99
99
98
99
100
102
102
102
101
101
102
103
104
104
104
103
103
103
104
105
105
104
103
103
104
106
106
106
106
106
107
108
109
110
109
108
108
109
110
111
110
109
108
109
109
110
110
110
108
107
107
108
108
108
108
107
107
107
108
109
109
108
108
109
110
111
112
112
111
110
110
111
111
111
109
108
107
107
108
108
107
105
104
103
103
104
104
103
102
100
100
101
101
100
99
97
96
96
96
96
95
93
91
90
90
90
89
88
86
85
84
85
85
84
83
82
81
81
82
82
82
81
80
81
82
83
83
83
82
82
82
83
84
84
83
82
82
82
83
84
84
83
82
82
83
84
84
83
82
81
81
82
83
83
82
81
81
81
82
83
82
81
80
80
81
82
83
82
81
81
81
83
83
83
82
82
81
82
83
84
84
83
82
83
84
86
87
87
86
86
87
89
90
90
89
89
89
89
90
91
90
89
88
88
89
90
90
91
90
91
93
96
99
102
104
106
110
115
120
126
130
133
137
141
145
149
151
153
152
152
152
151
150
147
142
137
133
128
124
119
113
106
100
94
90
85
81
76
71
67
64
62
61
58
55
53
51
50
50
51
50
50
50
50
52
53
54
54
54
54
55
56
57
56
55
54
54
54
55
55
54
53
51
51
51
51
51
50
49
48
48
48
49
48
47
46
45
45
46
47
46
45
44
44
45
46
47
46
46
46
47
49
51
52
52
52
53
55
57
60
61
62
63
64
67
69
71
72
72
72
74
76
77
78
78
77
77
78
79
80
80
79
78
79
80
81
81
81
80
79
79
80
81
81
80
79
79
79
81
81
81
80
79
79
80
81
81
81
80
79
80
81
81
81
80
80
80
80
81
82
82
81
80
80
82
83
83
83
82
82
82
84
84
84
83
83
82
83
84
85
84
83
82
82
83
83
83
83
82
81
82
83
83
83
81
80
80
80
81
82
81
80
80
80
81
83
83
83
82
82
83
84
85
84
83
83
82
83
84
85
84
83
83
83
83
84
84
83
82
82
82
83
84
84
83
82
82
83
84
85
84
83
83
83
85
86
86
86
86
85
86
87
88
87
86
86
86
86
87
88
87
86
85
85
86
87
88
87
86
86
86
88
88
88
87
86
86
88
89
90
91
90
90
90
91
92
93
93
92
92
93
94
95
95
95
94
94
94
95
96
96
95
95
95
96
97
98
97
97
97
98
99
100
100
100
99
100
101
102
103
103
102
102
102
104
105
106
106
105
105
105
106
107
106
105
105
104
105
106
107
106
105
105
106
107
108
108
108
107
107
107
108
109
109
108
107
107
107
109
110
109
108
107
107
108
109
109
108
107
107
108
109
109
109
108
106
106
106
107
107
106
105
104
104
104
105
105
104
102
101
102
102
102
102
101
99
99
99
99
99
98
97
96
95
96
97
97
96
94
93
93
94
94
93
91
90
89
89
89
89
88
87
85
85
86
86
86
85
83
83
83
84
84
83
82
81
81
81
82
83
82
81
80
80
81
81
81
81
80
79
80
81
81
80
79
78
78
78
79
80
80
79
78
78
79
80
80
80
78
78
78
79
79
79
78
77
76
76
77
77
76
74
73
73
73
74
74
73
71
70
71
71
72
71
70
69
68
69
70
70
70
69
68
69
69
70
70
70
69
68
69
70
70
70
69
68
68
68
69
70
69
68
67
67
68
69
70
70
69
68
68
69
69
69
68
67
67
68
69
69
68
67
67
67
68
69
70
69
69
69
70
71
72
72
72
71
71
72
73
74
73
72
71
71
72
73
73
72
71
70
71
72
72
72
71
70
69
70
71
71
70
69
68
69
69
70
70
70
68
68
68
69
69
68
67
67
67
67
69
70
69
69
68
69
70
72
72
72
71
71
72
73
74
74
73
72
71
72
72
73
72
70
69
69
69
69
69
69
68
67
68
69
70
70
69
69
69
70
72
73
73
72
72
72
74
75
76
76
75
75
75
76
77
76
75
74
73
74
75
75
75
74
73
73
74
75
75
74
73
73
74
75
75
75
74
73
73
74
75
75
75
74
73
74
75
76
76
76
75
74
75
76
76
76
74
73
73
74
75
75
74
73
72
72
73
74
74
73
72
71
72
72
73
72
70
69
69
70
71
71
70
69
68
68
69
70
71
70
70
70
71
72
73
73
72
72
72
73
74
75
75
74
74
74
75
76
77
76
75
74
75
76
76
75
75
74
73
74
74
