# Simple Text Format
# Sampling Rate (Hz):= 1200.00
# Resolution:= 12
# Labels:= ECG	 V6
# Age:=	66
# Gender:=	Feminino
-44
-44
-44
-45
-45
-45
-45
-44
-43
-44
-45
-44
-44
-44
-44
-44
-43
-44
-43
-43
-43
-42
-42
-42
-42
-41
-40
-40
-40
-39
-40
-39
-38
-38
-37
-37
-36
-36
-35
-33
-31
-29
-28
-27
-24
-21
-18
-15
-10
-5
0
5
11
18
25
33
41
48
56
64
71
78
84
88
91
94
96
97
97
96
92
89
83
77
71
62
54
44
34
24
15
5
-5
-15
-24
-34
-40
-48
-55
-61
-68
-73
-78
-82
-84
-88
-91
-93
-94
-96
-96
-96
-96
-97
-96
-96
-95
-95
-94
-95
-94
-94
-94
-93
-93
-92
-93
-94
-93
-93
-92
-92
-93
-93
-93
-92
-91
-91
-91
-91
-91
-91
-90
-89
-89
-88
-88
-88
-88
-87
-86
-85
-85
-85
-84
-83
-82
-81
-81
-80
-79
-78
-76
-75
-74
-72
-71
-71
-69
-67
-66
-64
-63
-62
-61
-61
-59
-58
-57
-57
-56
-56
-54
-53
-53
-52
-53
-52
-52
-51
-51
-50
-50
-50
-51
-50
-50
-49
-49
-49
-50
-50
-50
-50
-49
-49
-49
-50
-49
-49
-48
-48
-49
-49
-50
-50
-49
-49
-49
-49
-50
-50
-50
-49
-49
-49
-49
-50
-50
-49
-49
-48
-48
-49
-49
-49
-48
-48
-47
-47
-47
-48
-48
-48
-47
-47
-47
-48
-48
-48
-48
-48
-48
-48
-49
-49
-48
-48
-48
-49
-49
-49
-50
-49
-49
-49
-49
-50
-49
-49
-49
-48
-49
-50
-50
-50
-49
-49
-49
-49
-50
-49
-50
-50
-49
-48
-49
-49
-49
-48
-48
-48
-47
-48
-48
-48
-47
-47
-47
-47
-48
-48
-47
-48
-47
-47
-48
-48
-48
-47
-47
-46
-47
-47
-47
-47
-46
-46
-47
-47
-47
-48
-47
-47
-46
-46
-47
-46
-47
-47
-46
-46
-45
-46
-45
-45
-44
-44
-43
-43
-43
-42
-42
-41
-41
-40
-40
-39
-39
-39
-38
-37
-37
-37
-37
-36
-36
-36
-35
-35
-35
-35
-35
-35
-33
-34
-33
-33
-32
-32
-31
-30
-30
-30
-29
-29
-28
-27
-26
-25
-26
-25
-24
-24
-22
-22
-22
-21
-21
-21
-20
-19
-19
-20
-19
-19
-18
-18
-18
-17
-18
-17
-17
-16
-16
-16
-15
-16
-15
-15
-13
-13
-13
-12
-12
-12
-12
-11
-11
-10
-11
-11
-11
-11
-11
-10
-11
-11
-11
-11
-11
-11
-11
-11
-12
-12
-12
-12
-11
-12
-12
-12
-12
-12
-13
-12
-13
-14
-14
-14
-14
-15
-15
-16
-16
-17
-17
-18
-18
-19
-20
-21
-21
-21
-22
-23
-23
-25
-26
-26
-26
-26
-27
-28
-29
-30
-30
-31
-31
-32
-33
-34
-35
-35
-35
-36
-37
-38
-38
-39
-39
-39
-40
-40
-41
-41
-42
-42
-42
-43
-44
-44
-45
-44
-44
-44
-44
-46
-46
-45
-45
-46
-46
-46
-47
-47
-47
-48
-48
-49
-49
-50
-50
-51
-50
-50
-51
-52
-52
-51
-51
-52
-52
-52
-53
-53
-53
-52
-53
-53
-53
-53
-54
-53
-53
-53
-53
-54
-54
-53
-53
-52
-52
-53
-53
-53
-53
-53
-53
-54
-54
-55
-54
-54
-54
-54
-55
-55
-56
-56
-56
-56
-57
-57
-58
-58
-58
-58
-58
-58
-59
-60
-60
-59
-59
-58
-59
-59
-59
-58
-58
-58
-58
-58
-58
-58
-57
-57
-57
-57
-57
-57
-57
-56
-56
-56
-56
-56
-56
-56
-56
-56
-56
-56
-56
-57
-57
-56
-57
-56
-58
-57
-58
-58
-58
-58
-60
-60
-60
-60
-59
-60
-60
-60
-60
-60
-60
-60
-60
-61
-60
-60
-61
-60
-59
-59
-60
-59
-59
-59
-58
-58
-57
-58
-58
-58
-58
-57
-56
-57
-57
-57
-57
-57
-57
-57
-57
-57
-57
-57
-56
-56
-55
-56
-56
-56
-56
-55
-54
-55
-55
-56
-55
-55
-55
-55
-54
-55
-55
-54
-54
-55
-54
-55
-55
-55
-55
-54
-54
-54
-54
-54
-54
-54
-54
-54
-54
-54
-54
-53
-53
-53
-53
-53
-53
-53
-54
-54
-54
-54
-54
-55
-54
-54
-53
-53
-54
-54
-54
-53
-53
-52
-53
-53
-54
-54
-53
-53
-52
-53
-53
-54
-54
-53
-53
-53
-53
-55
-55
-54
-54
-53
-54
-54
-54
-55
-54
-54
-53
-54
-54
-54
-53
-53
-54
-53
-54
-54
-54
-54
-54
-53
-54
-54
-54
-55
-54
-54
-54
-55
-55
-55
-55
-54
-55
-55
-55
-56
-56
-55
-55
-54
-54
-54
-55
-55
-54
-54
-54
-54
-55
-55
-54
-54
-54
-54
-54
-54
-54
-54
-54
-54
-54
-55
-55
-56
-55
-55
-54
-55
-55
-56
-56
-56
-56
-56
-56
-57
-57
-56
-56
-56
-56
-56
-56
-56
-55
-55
-55
-55
-56
-56
-57
-56
-55
-56
-56
-56
-55
-56
-55
-55
-55
-56
-56
-56
-56
-55
-56
-55
-55
-56
-56
-55
-55
-55
-55
-55
-56
-56
-56
-55
-55
-56
-56
-56
-55
-55
-55
-55
-56
-56
-56
-55
-55
-55
-55
-56
-56
-56
-55
-56
-56
-56
-56
-56
-56
-56
-56
-57
-58
-57
-57
-57
-57
-58
-58
-58
-58
-58
-58
-57
-57
-57
-58
-58
-57
-57
-57
-57
-57
-57
-58
-57
-56
-56
-56
-57
-56
-56
-55
-56
-56
-56
-56
-56
-56
-55
-55
-56
-56
-56
-57
-56
-56
-56
-56
-57
-57
-56
-56
-55
-55
-56
-56
-57
-57
-56
-56
-56
-56
-57
-56
-57
-56
-56
-56
-57
-56
-57
-56
-56
-56
-56
-56
-56
-56
-56
-56
-56
-57
-58
-58
-58
-57
-58
-58
-59
-58
-58
-58
-59
-59
-59
-59
-59
-59
-59
-58
-58
-58
-59
-58
-57
-57
-57
-57
-57
-56
-56
-55
-55
-55
-55
-55
-54
-54
-54
-54
-54
-54
-54
-53
-54
-53
-53
-53
-54
-53
-53
-52
-52
-53
-53
-53
-52
-52
-52
-52
-52
-53
-52
-52
-52
-51
-51
-51
-52
-51
-51
-50
-49
-50
-50
-49
-49
-48
-47
-47
-46
-46
-45
-45
-45
-43
-44
-43
-43
-43
-43
-42
-41
-42
-42
-43
-42
-42
-43
-43
-43
-44
-45
-44
-45
-44
-45
-46
-46
-46
-46
-46
-46
-46
-46
-47
-47
-47
-48
-48
-48
-48
-48
-48
-48
-49
-49
-49
-50
-50
-50
-50
-50
-50
-51
-52
-51
-51
-52
-52
-53
-53
-53
-53
-53
-54
-54
-56
-56
-56
-56
-57
-56
-57
-59
-59
-59
-60
-60
-60
-61
-62
-62
-62
-62
-62
-62
-63
-64
-63
-63
-63
-63
-64
-64
-65
-64
-64
-63
-64
-64
-65
-65
-65
-65
-64
-64
-64
-65
-64
-63
-63
-62
-63
-62
-62
-62
-62
-61
-61
-62
-62
-62
-62
-62
-62
-62
-62
-63
-63
-63
-63
-64
-63
-64
-64
-65
-65
-64
-64
-65
-65
-65
-65
-66
-65
-65
-66
-66
-65
-65
-65
-64
-64
-63
-64
-63
-63
-62
-61
-60
-60
-58
-57
-55
-53
-50
-49
-46
-43
-39
-34
-29
-24
-18
-12
-5
3
11
19
27
35
45
54
63
71
78
84
89
93
97
99
99
99
97
92
88
82
76
68
57
48
36
25
14
4
-8
-19
-30
-41
-50
-59
-67
-76
-84
-91
-96
-101
-106
-110
-114
-117
-120
-121
-122
-123
-124
-124
-125
-124
-124
-123
-122
-122
-122
-121
-121
-119
-119
-119
-118
-118
-118
-117
-117
-116
-117
-117
-116
-116
-116
-115
-114
-114
-114
-114
-113
-112
-111
-111
-111
-111
-110
-110
-109
-107
-107
-107
-107
-106
-105
-104
-103
-103
-103
-102
-101
-99
-99
-97
-97
-95
-95
-93
-91
-90
-89
-87
-87
-84
-84
-82
-80
-80
-79
-78
-77
-76
-74
-73
-73
-73
-72
-71
-71
-70
-70
-70
-71
-70
-70
-69
-69
-69
-70
-69
-69
-69
-69
-69
-70
-70
-70
-70
-71
-70
-71
-71
-71
-71
-71
-70
-70
-71
-71
-70
-71
-70
-69
-69
-69
-70
-69
-69
-69
-68
-69
-69
-69
-69
-69
-68
-68
-69
-69
-69
-69
-69
-68
-68
-69
-69
-69
-69
-69
-69
-69
-69
-69
-69
-69
-68
-68
-68
-69
-69
-69
-67
-68
-68
-68
-68
-68
-67
-67
-67
-67
-67
-67
-67
-67
-67
-67
-67
-67
-68
-67
-67
-67
-67
-67
-68
-69
-68
-68
-68
-68
-69
-68
-68
-68
-68
-68
-68
-68
-68
-68
-67
-67
-67
-67
-67
-67
-66
-66
-66
-65
-65
-65
-64
-64
-64
-64
-65
-65
-65
-64
-64
-64
-63
-63
-64
-63
-63
-62
-62
-62
-61
-62
-61
-61
-61
-60
-60
-60
-60
-60
-59
-59
-58
-59
-59
-59
-59
-58
-57
-56
-57
-57
-56
-55
-54
-54
-53
-53
-52
-51
-50
-49
-48
-48
-47
-46
-46
-45
-44
-44
-43
-44
-43
-42
-42
-42
-41
-42
-42
-40
-40
-40
-39
-39
-38
-38
-38
-37
-36
-36
-35
-34
-33
-32
-31
-30
-29
-29
-28
-27
-27
-26
-26
-25
-25
-25
-24
-24
-23
-23
-23
-24
-23
-22
-23
-23
-22
-23
-22
-23
-22
-22
-22
-23
-23
-23
-23
-23
-23
-22
-23
-23
-24
-23
-22
-22
-24
-24
-24
-23
-24
-23
-24
-25
-25
-26
-26
-26
-26
-27
-28
-28
-28
-29
-29
-30
-32
-32
-34
-33
-34
-34
-36
-36
-37
-38
-38
-39
-40
-40
-41
-42
-42
-43
-43
-44
-45
-46
-46
-46
-46
-47
-48
-49
-50
-50
-51
-51
-52
-52
-54
-54
-55
-55
-54
-56
-56
-57
-58
-58
-58
-59
-59
-60
-61
-61
-60
-60
-61
-61
-62
-62
-63
-63
-62
-62
-64
-64
-64
-65
-64
-65
-65
-65
-66
-67
-66
-66
-66
-66
-67
-68
-67
-67
-67
-67
-67
-68
-68
-67
-67
-67
-68
-68
-69
-69
-68
-68
-69
-69
-69
-70
-71
-71
-70
-70
-71
-71
-72
-71
-71
-71
-71
-72
-72
-72
-71
-71
-71
-72
-72
-72
-72
-72
-71
-72
-72
-72
-72
-72
-72
-72
-72
-73
-72
-72
-72
-72
-71
-71
-71
-72
-71
-71
-71
-71
-71
-71
-71
-71
-71
-70
-70
-71
-72
-72
-71
-71
-70
-71
-71
-71
-72
-71
-71
-71
-71
-72
-71
-71
-71
-71
-70
-71
-71
-71
-70
-70
-70
-71
-71
-71
-71
-71
-71
-71
-71
-71
-71
-71
-71
-70
-70
-71
-71
-71
-70
-69
-69
-69
-69
-69
-69
-68
-68
-68
-67
-68
-68
-67
-67
-67
-67
-67
-68
-68
-67
-66
-66
-67
-67
-67
-66
-66
-66
-66
-66
-67
-66
-66
-65
-65
-65
-65
-65
-65
-65
-64
-63
-64
-64
-64
-64
-63
-63
-63
-64
-64
-64
-64
-64
-63
-64
-64
-64
-64
-64
-63
-64
-64
-64
-64
-64
-64
-63
-63
-64
-63
-64
-63
-62
-62
-63
-63
-63
-63
-63
-62
-62
-63
-62
-62
-62
-62
-63
-63
-63
-63
-63
-63
-62
-61
-62
-62
-63
-63
-62
-62
-62
-61
-62
-63
-62
-62
-62
-62
-62
-63
-62
-63
-63
-62
-63
-63
-64
-64
-64
-64
-64
-64
-65
-65
-64
-64
-64
-64
-63
-65
-64
-64
-63
-63
-63
-63
-64
-64
-63
-63
-63
-62
-62
-62
-63
-62
-62
-63
-62
-63
-63
-63
-63
-63
-63
-63
-64
-64
-63
-63
-63
-63
-64
-64
-64
-63
-63
-63
-64
-64
-64
-63
-63
-63
-64
-64
-64
-64
-64
-63
-62
-63
-63
-63
-63
-62
-62
-62
-63
-63
-63
-63
-62
-62
-62
-62
-63
-63
-63
-62
-62
-63
-63
-63
-63
-63
-62
-63
-63
-63
-63
-63
-63
-62
-63
-64
-64
-63
-64
-63
-64
-64
-64
-64
-63
-63
-62
-62
-63
-63
-63
-62
-62
-62
-62
-62
-63
-62
-62
-62
-62
-62
-62
-62
-62
-62
-61
-61
-63
-63
-63
-62
-62
-62
-62
-62
-63
-63
-62
-62
-62
-63
-63
-63
-63
-63
-62
-62
-63
-63
-63
-63
-63
-63
-63
-63
-64
-64
-63
-63
-63
-64
-64
-64
-63
-63
-63
-63
-64
-63
-64
-63
-63
-63
-64
-64
-65
-64
-64
-65
-65
-65
-65
-65
-65
-65
-64
-65
-65
-66
-65
-65
-64
-64
-65
-65
-65
-64
-65
-64
-65
-64
-64
-64
-64
-64
-64
-64
-64
-65
-65
-64
-63
-63
-64
-64
-63
-63
-62
-61
-61
-61
-61
-60
-60
-59
-59
-59
-58
-58
-58
-57
-57
-56
-57
-57
-57
-57
-56
-55
-55
-56
-56
-56
-56
-56
-55
-55
-55
-55
-55
-54
-54
-53
-54
-54
-53
-53
-51
-51
-51
-51
-51
-50
-50
-49
-48
-48
-48
-49
-48
-47
-47
-47
-47
-48
-48
-48
-47
-47
-48
-49
-49
-49
-49
-49
-49
-49
-50
-51
-51
-51
-51
-51
-52
-53
-53
-54
-54
-54
-54
-54
-55
-55
-55
-54
-55
-55
-56
-56
-56
-56
-56
-56
-57
-56
-57
-58
-58
-57
-58
-58
-59
-59
-59
-59
-59
-59
-59
-60
-60
-61
-60
-61
-61
-62
-62
-64
-64
-63
-64
-65
-65
-65
-65
-65
-65
-66
-65
-66
-66
-66
-66
-66
-65
-66
-66
-66
-66
-65
-65
-65
-65
-65
-65
-64
-64
-64
-64
-65
-65
-64
-64
-63
-64
-64
-65
-64
-64
-64
-64
-65
-65
-65
-65
-65
-64
-64
-65
-65
-66
-66
-65
-66
-66
-66
-66
-66
-65
-65
-64
-65
-65
-65
-64
-63
-62
-62
-63
-62
-62
-61
-60
-60
-59
-58
-58
-56
-55
-52
-51
-48
-46
-43
-39
-34
-29
-24
-17
-10
-3
6
15
24
32
41
51
60
70
78
87
93
98
103
108
110
111
110
108
104
99
93
87
77
67
57
45
33
22
10
-2
-13
-25
-36
-47
-57
-66
-75
-83
-90
-96
-101
-106
-110
-114
-118
-119
-122
-122
-123
-123
-124
-124
-123
-123
-122
-121
-121
-121
-120
-119
-119
-118
-117
-117
-117
-116
-116
-116
-115
-114
-114
-114
-114
-113
-112
-112
-112
-112
-112
-111
-110
-109
-109
-108
-109
-108
-107
-108
-107
-106
-106
-105
-104
-103
-102
-101
-101
-100
-99
-98
-97
-95
-94
-92
-91
-90
-88
-87
-85
-83
-83
-81
-80
-78
-76
-75
-73
-72
-73
-71
-70
-69
-68
-68
-67
-68
-67
-66
-66
-66
-66
-66
-66
-66
-65
-65
-65
-65
-66
-65
-64
-64
-64
-65
-65
-65
-65
-65
-64
-65
-65
-66
-66
-65
-65
-66
-65
-66
-67
-67
-66
-65
-65
-66
-65
-66
-65
-65
-65
-65
-65
-65
-65
-65
-64
-64
-63
-64
-64
-64
-63
-64
-64
-63
-64
-64
-64
-64
-63
-63
-64
-64
-64
-63
-63
-63
-63
-63
-62
-62
-62
-62
-61
-62
-62
-62
-62
-61
-60
-60
-61
-61
-61
-61
-61
-61
-61
-61
-62
-62
-62
-62
-62
-63
-63
-64
-64
-63
-63
-63
-63
-63
-63
-63
-62
-61
-61
-61
-61
-61
-61
-60
-60
-61
-61
-61
-61
-60
-60
-60
-60
-60
-60
-60
-58
-59
-59
-59
-59
-58
-58
-57
-56
-57
-57
-56
-56
-56
-55
-55
-55
-56
-55
-55
-55
-54
-53
-54
-54
-54
-53
-53
-52
-53
-52
-52
-51
-51
-50
-50
-50
-50
-49
-49
-48
-48
-47
-47
-46
-46
-45
-44
-44
-44
-44
-44
-43
-42
-41
-41
-40
-41
-40
-38
-38
-36
-36
-36
-35
-35
-33
-33
-31
-31
-30
-30
-29
-29
-27
-27
-27
-27
-26
-25
-24
-24
-24
-23
-24
-23
-23
-22
-21
-22
-22
-21
-22
-21
-21
-20
-21
-20
-20
-20
-19
-19
-18
-18
-19
-19
-18
-17
-17
-18
-18
-18
-18
-17
-18
-17
-19
-19
-19
-19
-19
-20
-20
-21
-21
-22
-22
-22
-23
-23
-24
-25
-25
-25
-25
-25
-26
-26
-27
-28
-27
-27
-28
-29
-30
-30
-30
-30
-31
-32
-33
-34
-34
-35
-35
-36
-36
-38
-39
-38
-39
-39
-40
-42
-42
-43
-42
-43
-44
-44
-46
-47
-47
-47
-48
-48
-48
-49
-50
-50
-50
-51
-51
-52
-53
-53
-53
-53
-54
-54
-55
-56
-56
-56
-57
-57
-57
-58
-58
-58
-59
-58
-59
-60
-61
-60
-60
-61
-61
-61
-61
-61
-61
-61
-62
-61
-63
-63
-63
-63
-64
-63
-64
-64
-65
-65
-65
-66
-66
-67
-66
-67
-67
-67
-66
-66
-67
-67
-67
-65
-65
-64
-64
-64
-65
-64
-64
-64
-64
-64
-64
-64
-64
-64
-63
-63
-64
-64
-65
-64
-64
-64
-64
-64
-64
-63
-63
-62
-63
-63
-63
-64
-63
-63
-64
-64
-64
-64
-65
-64
-64
-64
-64
-65
-65
-66
-66
-65
-66
-67
-67
-67
-67
-66
-66
-67
-67
-67
-67
-66
-66
-66
-67
-67
-67
-67
-67
-66
-66
-67
-66
-67
-66
-67
-66
-66
-66
-67
-67
-66
-65
-64
-65
-65
-65
-64
-64
-63
-63
-63
-63
-63
-63
-62
-62
-61
-62
-62
-61
-61
-61
-60
-61
-61
-62
-61
-61
-61
-60
-61
-61
-61
-61
-61
-61
-61
-61
-61
-61
-61
-61
-60
-60
-61
-60
-61
-59
-59
-59
-59
-60
-59
-60
-58
-58
-58
-58
-58
-59
-58
-58
-57
-58
-58
-59
-58
-58
-58
-58
-59
-59
-59
-59
-58
-59
-59
-59
-59
-59
-58
-58
-58
-58
-58
-59
-58
-57
-57
-57
-57
-57
-57
-57
-57
-57
-57
-57
-57
-57
-57
-56
-56
-56
-56
-57
-56
-56
-56
-56
-57
-57
-57
-57
-56
-56
-57
-58
-57
-58
-58
-58
-57
-58
-58
-58
-58
-58
-58
-58
-58
-58
-58
-58
-58
-57
-57
-58
-57
-57
-57
-56
-56
-56
-57
-57
-56
-56
-56
-56
-57
-57
-56
-57
-56
-57
-57
-57
-57
-57
-56
-57
-57
-56
-57
-57
-57
-57
-58
-57
-58
-58
-59
-58
-59
-58
-59
-59
-60
-60
-60
-60
-59
-60
-60
-60
-60
-60
-60
-60
-60
-60
-59
-60
-60
-59
-59
-59
-59
-60
-59
-58
-58
-58
-58
-59
-58
-58
-58
-57
-58
-58
-59
-58
-58
-58
-58
-59
-59
-59
-59
-58
-59
-58
-58
-59
-58
-58
-58
-58
-58
-59
-58
-58
-58
-57
-58
-58
-57
-57
-57
-56
-57
-56
-57
-57
-57
-56
-56
-56
-56
-57
-57
-56
-56
-55
-56
-56
-56
-56
-56
-55
-55
-56
-56
-56
-56
-56
-55
-56
-56
-56
-57
-56
-57
-56
-57
-58
-58
-58
-58
-58
-58
-58
-58
-59
-58
-58
-59
-59
-59
-59
-59
-59
-58
-59
-58
-59
-59
-59
-59
-58
-58
-58
-58
-59
-58
-58
-59
-58
-59
-59
-59
-59
-59
-59
-59
-60
-59
-60
-59
-59
-59
-58
-60
-59
-59
-59
-58
-58
-59
-59
-59
-59
-58
-57
-58
-59
-58
-59
-57
-57
-57
-58
-57
-58
-57
-57
-56
-57
-56
-56
-56
-56
-55
-55
-55
-55
-56
-55
-55
-55
-54
-55
-55
-54
-54
-54
-53
-54
-54
-54
-55
-54
-53
-53
-54
-54
-54
-53
-53
-52
-52
-52
-52
-52
-51
-50
-49
-50
-49
-50
-49
-48
-48
-47
-47
-48
-47
-47
-46
-46
-46
-45
-46
-45
-45
-45
-44
-44
-44
-44
-44
-43
-43
-42
-42
-43
-42
-42
-41
-41
-41
-41
-42
-41
-41
-40
-41
-42
-42
-43
-42
-43
-42
-42
-43
-45
-44
-45
-45
-45
-45
-45
-46
-46
-46
-46
-46
-46
-46
-47
-47
-47
-46
-47
-48
-48
-48
-49
-49
-48
-49
-50
-51
-51
-52
-52
-52
-52
-54
-54
-55
-55
-55
-55
-56
-57
-57
-57
-58
-57
-57
-58
-58
-59
-58
-58
-58
-59
-59
-60
-60
-59
-59
-59
-59
-60
-59
-60
-59
-59
-58
-59
-59
-59
-59
-58
-58
-58
-59
-59
-59
-59
-58
-59
-59
-59
-59
-59
-59
-58
-58
-58
-59
-59
-59
-58
-57
-58
-58
-59
-59
-58
-58
-57
-58
-58
-59
-58
-58
-59
-59
-59
-59
-60
-60
-59
-59
-60
-60
-60
-60
-59
-60
-59
-58
-59
-59
-59
-57
-57
-56
-55
-56
-54
-53
-51
-49
-48
-45
-43
-40
-36
-32
-27
-22
-16
-9
-2
6
14
21
30
38
47
55
63
71
77
83
87
91
94
96
96
95
93
89
84
79
72
64
54
43
34
23
13
2
-9
-20
-29
-39
-48
-56
-64
-72
-79
-85
-90
-94
-98
-101
-105
-107
-109
-110
-110
-111
-111
-111
-112
-112
-112
-110
-110
-110
-109
-109
-109
-108
-107
-106
-106
-106
-106
-105
-104
-104
-105
-105
-105
-104
-103
-103
-103
-102
-102
-102
-102
-100
-100
-100
-100
-100
-99
-98
-97
-96
-96
-96
-95
-94
-93
-92
-92
-91
-90
-89
-88
-87
-85
-83
-82
-81
-80
-78
-76
-75
-75
-73
-72
-71
-70
-68
-67
-66
-66
-66
-64
-63
-62
-62
-61
-62
-61
-61
-61
-60
-61
-60
-61
-61
-60
-60
-59
-59
-60
-60
-59
-59
-58
-58
-59
-59
-58
-58
-57
-58
-57
-58
-58
-58
-58
-58
-58
-58
-58
-58
-58
-57
-57
-57
-58
-58
-58
-58
-57
-57
-57
-58
-57
-57
-57
-57
-57
-57
-57
-57
-58
-58
-57
-57
-58
-58
-58
-57
-57
-57
-57
-58
-58
-58
-57
-57
-57
-57
-57
-58
-58
-57
-57
-56
-57
-57
-57
-56
-56
-55
-55
-55
-56
-56
-56
-55
-54
-55
-55
-56
-55
-55
-55
-55
-56
-56
-56
-56
-56
-56
-56
-56
-57
-57
-56
-56
-56
-57
-57
-57
-56
-56
-55
-55
-55
-55
-54
-54
-54
-54
-53
-54
-54
-54
-53
-53
-53
-53
-54
-53
-53
-53
-53
-53
-53
-53
-52
-52
-52
-52
-52
-52
-53
-52
-51
-51
-51
-50
-51
-50
-50
-49
-49
-49
-49
-49
-48
-48
-47
-47
-47
-46
-47
-46
-46
-44
-44
-44
-44
-43
-43
-42
-41
-40
-41
-40
-40
-39
-38
-38
-38
-37
-38
-37
-37
-35
-35
-35
-35
-35
-34
-33
-33
-32
-32
-32
-31
-31
-30
-29
-29
-29
-28
-28
-27
-27
-26
-26
-26
-25
-25
-24
-23
-23
-23
-22
-22
-22
-21
-22
-21
-21
-21
-21
-20
-20
-20
-19
-19
-20
-19
-19
-18
-19
-19
-19
-19
-19
-19
-19
-19
-19
-19
-20
-20
-20
-20
-21
-21
-22
-22
-22
-22
-22
-23
-23
-24
-23
-24
-24
-24
-25
-26
-27
-26
-26
-27
-27
-28
-29
-29
-29
-30
-29
-31
-31
-32
-32
-32
-33
-33
-34
-34
-35
-35
-36
-36
-37
-38
-38
-39
-38
-39
-39
-40
-41
-42
-43
-42
-43
-43
-45
-45
-45
-46
-45
-45
-47
-47
-48
-48
-47
-48
-48
-49
-50
-50
-50
-49
-49
-50
-51
-51
-51
-51
-51
-51
-52
-52
-53
-53
-52
-53
-53
-54
-54
-54
-54
-54
-54
-55
-55
-56
-55
-56
-56
-56
-56
-57
-57
-57
-57
-56
-57
-57
-58
-58
-57
-57
-57
-57
-57
-58
-57
-57
-56
-57
-56
-57
-56
-56
-55
-54
-55
-54
-55
-54
-54
-54
-53
-54
-54
-54
-54
-54
-54
-54
-54
-54
-54
-54
-54
-54
-54
-54
-54
-55
-55
-55
-55
-55
-55
-55
-55
-55
-55
-55
-55
-54
-55
-55
-55
-54
-55
-55
-55
-55
-55
-55
-55
-55
-55
-56
-55
-55
-55
-56
-55
-55
-56
-55
-55
-54
-55
-55
-55
-55
-55
-54
-54
-55
-55
-55
-55
-54
-55
-55
-55
-56
-56
-55
-55
-55
-54
-55
-55
-55
-54
-54
-54
-53
-54
-54
-54
-54
-54
-53
-54
-53
-54
-53
-53
-52
-52
-52
-52
-52
-52
-51
-51
-52
-51
-52
-52
-52
-51
-51
-51
-52
-52
-51
-50
-51
-49
-50
-50
-50
-50
-50
-49
-49
-49
-49
-49
-48
-48
-49
-48
-49
-48
-48
-47
-48
-47
-48
-48
-48
-49
-48
-47
-48
-48
-49
-49
-49
-48
-48
-49
-49
-49
-48
-48
-48
-48
-48
-48
-48
-47
-47
-47
-47
-48
-47
-48
-47
-47
-47
-47
-48
-48
-47
-47
-47
-47
-48
-48
-48
-47
-48
-48
-49
-49
-49
-49
-49
-48
-48
-48
-48
-48
-48
-48
-47
-47
-47
-48
-48
-47
-46
-46
-47
-47
-47
-47
-47
-46
-47
-47
-48
-48
-48
-48
-48
-48
-48
-49
-49
-49
-48
-48
-49
-50
-49
-49
-49
-49
-49
-49
-49
-49
-48
-48
-48
-48
-48
-48
-48
-48
-48
-48
-48
-48
-48
-48
-48
-47
-47
-48
-48
-49
-49
-49
-48
-49
-49
-49
-49
-49
-49
-49
-50
-50
-50
-50
-50
-50
-50
-50
-51
-51
-50
-50
-50
-51
-52
-52
-52
-51
-51
-51
-52
-52
-52
-52
-52
-52
-52
-52
-53
-52
-52
-52
-51
-51
-52
-52
-52
-51
-51
-51
-51
-52
-51
-52
-51
-51
-52
-52
-52
-52
-51
-52
-51
-52
-52
-52
-52
-53
-53
-53
-53
-54
-54
-53
-54
-53
-53
-54
-54
-54
-54
-54
-53
-53
-54
-54
-53
-54
-53
-53
-53
-53
-54
-54
-53
-52
-52
-53
-53
-54
-53
-53
-52
-53
-53
-53
-54
-53
-53
-53
-52
-53
-53
-53
-52
-52
-52
-53
-53
-53
-53
-52
-53
-53
-52
-53
-53
-53
-53
-53
-53
-54
-54
-54
-54
-53
-53
-53
-54
-54
-54
-53
-53
-52
-53
-53
-53
-52
-53
-53
-52
-53
-54
-54
-53
-54
-54
-54
-54
-54
-55
-55
-54
-55
-56
-56
-55
-55
-55
-55
-55
-55
-55
-55
-55
-55
-55
-55
-55
-55
-54
-54
-54
-54
-54
-55
-54
-53
-53
-53
-54
-54
-53
-53
-53
-52
-52
-52
-52
-52
-52
-52
-51
-52
-52
-52
-52
-51
-51
-51
-51
-52
-52
-52
-53
-52
-52
-53
-53
-53
-52
-52
-52
-51
-52
-52
-51
-50
-50
-50
-49
-49
-48
-48
-48
-47
-47
-46
-46
-46
-45
-44
-44
-43
-44
-43
-43
-42
-41
-41
-41
-42
-41
-40
-40
-40
-40
-40
-40
-40
-40
-40
-39
-39
-40
-40
-40
-39
-40
-40
-40
-41
-41
-41
-41
-42
-42
-42
-44
-44
-43
-44
-44
-44
-46
-45
-46
-46
-46
-47
-47
-47
-48
-48
-47
-48
-48
-48
-49
-49
-49
-49
-49
-50
-50
-50
-51
-50
-50
-51
-51
-52
-52
-53
-52
-53
-53
-53
-54
-54
-54
-54
-54
-55
-56
-56
-56
-56
-56
-57
-56
-58
-57
-57
-58
-57
-57
-58
-58
-59
-59
-58
-57
-58
-59
-58
-58
-58
-58
-58
-59
-59
-59
-59
-58
-58
-58
-59
-59
-59
-59
-59
-58
-59
-59
-60
-59
-58
-58
-58
-58
-58
-59
-59
-58
-57
-57
-59
-58
-58
-58
-58
-57
-58
-58
-58
-59
-59
-59
-58
-59
-59
-59
-58
-58
-58
-58
-57
-57
-57
-56
-55
-54
-53
-53
-53
-52
-50
-49
-47
-45
-43
-41
-38
-35
-31
-27
-22
-17
-11
-4
3
9
16
24
32
40
49
57
64
69
75
78
82
85
85
86
84
82
78
73
67
61
52
44
34
24
14
4
-6
-16
-27
-36
-44
-53
-61
-68
-75
-81
-86
-91
-95
-98
-102
-105
-107
-108
-109
-109
-109
-110
-110
-110
-110
-109
-109
-109
-109
-109
-108
-108
-107
-107
-107
-108
-107
-107
-107
-106
-106
-107
-107
-107
-106
-106
-105
-105
-105
-106
-104
-104
-103
-102
-102
-102
-102
-101
-100
-99
-99
-99
-98
-98
-97
-97
-95
-95
-94
-93
-92
-91
-89
-89
-88
-87
-85
-84
-83
-81
-79
-78
-77
-76
-75
-73
-71
-70
-69
-68
-67
-66
-64
-64
-63
-62
-63
-62
-61
-61
-60
-60
-61
-60
-61
-60
-60
-60
-60
-61
-61
-61
-60
-61
-60
-61
-62
-62
-61
-61
-61
-62
-62
-62
-62
-62
-61
-62
-62
-62
-63
-61
-61
-61
-61
-61
-61
-61
-60
-60
-59
-59
-60
-60
-59
-59
-59
-59
-59
-59
-59
-59
-58
-58
-59
-59
-60
-60
-60
-59
-60
-60
-60
-60
-61
-60
-60
-60
-60
-61
-61
-60
-60
-60
-60
-61
-61
-61
-61
-61
-61
-61
-62
-61
-61
-61
-60
-60
-60
-61
-61
-60
-60
-59
-59
-59
-59
-59
-58
-58
-58
-59
-58
-58
-57
-57
-57
-58
-58
-58
-58
-57
-57
-58
-57
-58
-58
-59
-57
-58
-57
-58
-58
-58
-58
-58
-57
-57
-57
-57
-57
-57
-55
-56
-55
-55
-56
-55
-55
-54
-55
-55
-54
-55
-55
-54
-54
-54
-54
-54
-54
-54
-54
-53
-53
-53
-53
-52
-52
-52
-51
-51
-50
-51
-50
-49
-48
-48
-48
-48
-47
-46
-46
-45
-45
-44
-44
-43
-42
-42
-42
-42
-41
-41
-41
-40
-39
-40
-39
-40
-39
-39
-37
-38
-37
-37
-37
-36
-35
-34
-34
-34
-34
-33
-32
-31
-30
-30
-29
-28
-28
-27
-26
-25
-25
-26
-25
-25
-24
-23
-23
-24
-23
-24
-23
-23
-23
-23
-24
-24
-24
-23
-23
-24
-24
-24
-24
-24
-24
-24
-24
-24
-25
-25
-25
-24
-25
-25
-25
-26
-26
-26
-26
-26
-26
-26
-27
-27
-27
-27
-27
-28
-29
-29
-30
-29
-29
-29
-31
-32
-32
-32
-32
-33
-34
-35
-35
-36
-36
-36
-37
-38
-39
-40
-40
-41
-41
-41
-43
-43
-44
-44
-45
-45
-45
-46
-46
-46
-47
-47
-48
-48
-50
-50
-51
-50
-51
-51
-52
-53
-53
-53
-53
-54
-54
-56
-56
-57
-56
-56
-57
-58
-58
-59
-59
-58
-59
-59
-60
-60
-60
-60
-60
-60
-60
-61
-61
-62
-61
-61
-62
-63
-63
-63
-63
-63
-63
-63
-65
-64
-64
-64
-64
-64
-65
-65
-66
-66
-66
-66
-66
-66
-67
-67
-67
-66
-66
-67
-67
-67
-67
-67
-67
-67
-67
-67
-67
-67
-67
-67
-67
-67
-67
-67
-66
-66
-67
-66
-67
-67
-67
-67
-66
-67
-67
-68
-68
-68
-67
-68
-68
-68
-68
-69
-68
-69
-68
-69
-69
-69
-70
-69
-69
-69
-69
-69
-70
-70
-69
-69
-69
-70
-70
-70
-69
-69
-68
-69
-69
-68
-68
-68
-67
-67
-68
-68
-68
-68
-68
-67
-67
-68
-68
-68
-68
-68
-68
-68
-68
-68
-67
-67
-67
-67
-67
-67
-67
-66
-66
-65
-65
-65
-65
-65
-65
-65
-65
-64
-64
-65
-65
-64
-64
-63
-64
-64
-64
-64
-63
-64
-64
-64
-64
-64
-63
-63
-63
-63
-63
-63
-63
-63
-62
-62
-62
-63
-63
-63
-62
-63
-62
-63
-63
-62
-63
-62
-61
-62
-62
-62
-61
-61
-62
-61
-61
-61
-62
-61
-61
-60
-61
-61
-61
-61
-61
-61
-60
-61
-61
-61
-61
-60
-61
-60
-61
-61
-61
-60
-60
-61
-61
-61
-61
-61
-61
-61
-61
-62
-62
-62
-62
-62
-61
-62
-62
-62
-62
-62
-62
-61
-62
-63
-63
-63
-62
-62
-62
-62
-63
-63
-62
-62
-63
-62
-62
-62
-63
-62
-62
-62
-62
-63
-63
-62
-63
-63
-62
-62
-63
-62
-63
-62
-62
-62
-62
-63
-62
-63
-62
-61
-62
-63
-63
-63
-63
-63
-63
-62
-63
-63
-63
-63
-62
-62
-63
-63
-63
-64
-63
-63
-64
-63
-64
-64
-64
-64
-64
-64
-65
-64
-65
-64
-63
-64
-64
-64
-64
-64
-63
-64
-63
-63
-63
-64
-64
-63
-62
-63
-63
-63
-63
-62
-63
-63
-62
-63
-63
-63
-63
-62
-63
-64
-63
-64
-64
-64
-64
-65
-65
-65
-65
-65
-64
-65
-65
-66
-66
-66
-66
-66
-66
-67
-66
-67
-67
-67
-67
-67
-67
-68
-67
-67
-66
-66
-67
-67
-67
-67
-66
-66
-66
-66
-67
-66
-66
-65
-66
-65
-65
-66
-65
-65
-65
-65
-65
-66
-65
-66
-66
-65
-65
-65
-66
-66
-66
-66
-65
-66
-66
-65
-66
-65
-65
-65
-65
-65
-65
-65
-64
-64
-64
-64
-65
-65
-64
-64
-63
-64
-65
-64
-65
-64
-64
-64
-65
-65
-66
-65
-65
-66
-66
-67
-67
-67
-67
-67
-67
-68
-68
-67
-68
-67
-67
-67
-67
-67
-67
-67
-66
-66
-66
-66
-66
-66
-66
-65
-65
-64
-65
-64
-65
-64
-63
-63
-63
-63
-63
-63
-62
-62
-62
-62
-63
-62
-62
-62
-61
-61
-61
-62
-61
-61
-60
-60
-60
-60
-60
-60
-59
-59
-58
-58
-58
-58
-57
-57
-57
-56
-56
-55
-56
-54
-54
-54
-53
-54
-54
-53
-53
-52
-52
-52
-53
-52
-53
-52
-52
-52
-52
-52
-53
-53
-52
-52
-53
-54
-54
-54
-53
-54
-55
-55
-55
-55
-56
-56
-56
-56
-57
-58
-57
-58
-57
-58
-59
-60
-60
-60
-60
-60
-60
-61
-62
-62
-62
-62
-63
-62
-63
-64
-63
-63
-63
-63
-64
-64
-64
-64
-64
-64
-64
-65
-65
-65
-66
-66
-66
-66
-67
-67
-67
-67
-66
-68
-67
-68
-68
-68
-67
-68
-67
-68
-68
-68
-69
-68
-67
-68
-68
-69
-68
-67
-68
-68
-68
-69
-68
-68
-68
-68
-68
-69
-70
-70
-69
-70
-69
-70
-70
-71
-71
-71
-72
-72
-73
-73
-73
-73
-73
-73
-74
-74
-74
-74
-73
-74
-74
-74
-74
-74
-74
-74
-74
-73
-73
-74
-74
-72
-71
-71
-71
-70
-70
-70
-68
-67
-66
-65
-65
-64
-62
-60
-58
-56
-55
-52
-50
-46
-42
-38
-33
-27
-21
-15
-8
0
7
15
23
30
38
46
53
60
64
68
71
74
76
76
73
71
66
61
55
48
40
30
20
9
0
-10
-20
-30
-39
-49
-58
-67
-75
-82
-88
-95
-99
-104
-108
-111
-114
-117
-119
-120
-121
-122
-122
-121
-122
-123
-123
-122
-122
-121
-120
-121
-120
-120
-119
-119
-119
-118
-119
-119
-118
-118
-118
-118
-118
-118
-118
-117
-116
-117
-116
-115
-116
-115
-114
-114
-114
-113
-113
-112
-111
-110
-109
-109
-109
-109
-108
-107
-106
-106
-105
-104
-103
-102
-101
-100
-97
-97
-96
-94
-93
-91
-90
-88
-87
-86
-85
-84
-82
-80
-80
-80
-79
-78
-77
-76
-76
-76
-76
-76
-75
-74
-74
-74
-75
-75
-74
-74
-74
-73
-74
-74
-74
-74
-74
-73
-73
-73
-74
-74
-73
-73
-73
-73
-74
-74
-73
-73
-73
-73
-74
-74
-75
-75
-74
-73
-74
-74
-75
-75
-74
-74
-74
-74
-75
-75
-75
-74
-73
-74
-73
-74
-74
-74
-73
-73
-73
-74
-74
-74
-74
-73
-73
-74
-74
-74
-74
-74
-73
-73
-74
-74
-74
-74
-74
-74
-73
-74
-74
-74
-74
-74
-73
-73
-74
-74
-74
-74
-72
-73
-73
-73
-72
-72
-73
-73
-72
-73
-73
-73
-72
-73
-73
-72
-73
-73
-73
-72
-72
-73
-73
-74
-73
-73
-73
-73
-72
-73
-73
-74
-73
-72
-72
-72
-72
-72
-72
-71
-71
-71
-71
-72
-71
-71
-70
-70
-70
-70
-70
-70
-69
-69
-69
-69
-68
-68
-68
-68
-68
-67
-67
-67
-67
-67
-67
-66
-65
-65
-66
-66
-65
-64
-64
-64
-63
-63
-63
-63
-62
-61
-61
-61
-60
-61
-60
-59
-60
-59
-59
-59
-59
-57
-57
-57
-57
-57
-57
-55
-55
-54
-54
-54
-54
-53
-52
-52
-51
-51
-51
-51
-49
-49
-47
-48
-47
-47
-47
-46
-46
-45
-45
-45
-44
-44
-44
-43
-43
-42
-42
-43
-42
-42
-41
-41
-41
-42
-41
-41
-40
-39
-40
-41
-41
-41
-40
-40
-40
-40
-40
-40
-40
-40
-40
-40
-40
-40
-41
-39
-40
-40
-40
-40
-42
-42
-41
-42
-42
-42
-43
-44
-44
-44
-44
-45
-45
-46
-46
-47
-46
-47
-47
-48
-49
-48
-49
-49
-49
-50
-51
-51
-51
-51
-51
-52
-52
-53
-54
-54
-53
-55
-55
-56
-56
-58
-58
-57
-58
-59
-60
-60
-60
-60
-60
-61
-62
-62
-63
-63
-63
-63
-64
-65
-65
-66
-66
-66
-66
-67
-68
-68
-68
-68
-68
-68
-69
-70
-70
-70
-70
-70
-70
-70
-71
-71
-72
-71
-72
-72
-74
-73
-73
-73
-74
-74
-74
-75
-75
-75
-75
-75
-75
-76
-76
-76
-76
-76
-76
-77
-77
-78
-77
-77
-77
-77
-78
-78
-78
-78
-79
-78
-78
-79
-79
-80
-79
-79
-79
-80
-80
-80
-80
-80
-79
-79
-80
-80
-80
-80
-80
-79
-80
-81
-80
-80
-80
-79
-80
-80
-81
-81
-80
-80
-79
-79
-80
-80
-81
-81
-81
-81
-81
-82
-82
-82
-81
-81
-81
-81
-82
-82
-82
-82
-81
-81
-81
-81
-81
-81
-81
-80
-81
-81
-81
-81
-81
-81
-81
-80
-80
-81
-80
-80
-80
-80
-80
-80
-80
-80
-80
-79
-79
-80
-80
-79
-80
-79
-79
-79
-79
-79
-79
-78
-78
-78
-78
-79
-79
-77
-77
-77
-77
-78
-77
-78
-77
-77
-76
-76
-77
-77
-76
-76
-75
-75
-75
-76
-76
-75
-75
-74
-75
-75
-75
-75
-74
-73
-73
-73
-73
-73
-72
-72
-72
-73
-73
-73
-73
-73
-72
-73
-73
-73
-74
-74
-74
-73
-73
-75
-75
-75
-74
-74
-75
-75
-75
-75
-75
-75
-74
-73
-74
-74
-74
-74
-73
-73
-73
-73
-73
-73
-72
-72
-71
-71
-72
-71
-71
-70
-70
-70
-70
-70
-69
-69
-69
-68
-68
-69
-68
-68
-67
-67
-66
-66
-67
-66
-66
-66
-65
-65
-65
-66
-65
-65
-64
-64
-64
-64
-64
-64
-64
-64
-63
-63
-63
-63
-63
-63
-63
-63
-64
-64
-64
-64
-64
-64
-64
-64
-65
-65
-64
-64
-65
-65
-64
-65
-65
-65
-65
-64
-65
-65
-66
-66
-65
-65
-65
-65
-65
-65
-66
-65
-65
-64
-65
-66
-66
-66
-65
-65
-65
-66
-66
-66
-66
-66
-66
-66
-67
-67
-67
-67
-67
-67
-67
-68
-68
-68
-67
-68
-68
-69
-69
-69
-68
-69
-69
-69
-70
-70
-71
-70
-71
-70
-71
-71
-72
-72
-72
-72
-72
-72
-73
-73
-72
-72
-72
-72
-73
-73
-73
-72
-73
-72
-73
-73
-73
-73
-73
-73
-74
-74
-75
-74
-74
-74
-74
-74
-75
-74
-75
-75
-74
-74
-75
-75
-75
-76
-75
-75
-75
-75
-76
-76
-76
-76
-76
-77
-76
-77
-77
-76
-76
-75
-76
-76
-76
-76
-75
-76
-75
-76
-76
-76
-76
-75
-75
-76
-76
-76
-76
-75
-75
-75
-75
-76
-76
-76
-75
-75
-75
-76
-75
-75
-76
-75
-75
-76
-76
-76
-76
-75
-76
-76
-77
-77
-77
-76
-77
-76
-76
-77
-77
-77
-77
-77
-77
-77
-77
-77
-77
-76
-77
-76
-77
-77
-77
-77
-77
-76
-77
-77
-77
-77
-77
-76
-76
-77
-77
-77
-77
-77
-76
-76
-76
-76
-76
-75
-75
-75
-75
-75
-76
-75
-75
-74
-74
-74
-74
-73
-73
-72
-71
-72
-71
-71
-71
-71
-70
-70
-70
-70
-69
-69
-69
-68
-68
-68
-68
-68
-67
-66
-67
-66
-65
-66
-66
-66
-64
-65
-64
-65
-64
-64
-64
-64
-64
-64
-64
-64
-64
-64
-64
-64
-65
-65
-66
-66
-66
-66
-67
-67
-68
-68
-68
-68
-68
-69
-69
-69
-69
-69
-69
-69
-70
-70
-70
-70
-70
-70
-71
-71
-71
-72
-71
-72
-72
-73
-73
-74
-74
-74
-74
-74
-74
-75
-75
-75
-75
-75
-75
-76
-77
-77
-76
-77
-77
-77
-78
-79
-78
-79
-80
-80
-80
-82
-82
-82
-83
-83
-83
-83
-84
-84
-84
-84
-84
-85
-85
-85
-85
-85
-84
-85
-84
-85
-85
-85
-85
-84
-84
-84
-84
-84
-84
-83
-83
-84
-84
-84
-84
-84
-84
-84
-85
-85
-85
-85
-84
-84
-85
-85
-85
-85
-85
-85
-85
-85
-85
-86
-85
-85
-85
-85
-86
-86
-86
-85
-85
-85
-85
-85
-84
-84
-84
-83
-83
-83
-82
-82
-80
-79
-78
-77
-76
-75
-74
-72
-70
-68
-66
-63
-60
-56
-51
-46
-41
-36
-30
-24
-17
-10
-2
4
11
18
24
31
36
39
42
44
44
45
43
42
37
33
27
21
13
5
-3
-12
-22
-32
-41
-50
-59
-68
-76
-85
-92
-99
-105
-110
-115
-120
-124
-127
-130
-131
-134
-136
-137
-137
-137
-137
-136
-137
-137
-137
-137
-136
-136
-135
-134
-135
-135
-135
-134
-134
-133
-134
-134
-134
-135
-134
-134
-133
-133
-134
-133
-134
-133
-132
-132
-132
-132
-131
-130
-130
-128
-129
-128
-128
-127
-125
-125
-124
-124
-124
-123
-122
-121
-121
-120
-119
-118
-117
-116
-115
-114
-113
-112
-111
-109
-108
-106
-105
-103
-104
-102
-101
-100
-98
-97
-97
-97
-96
-95
-94
-93
-93
-92
-93
-92
-92
-92
-91
-92
-92
-92
-92
-92
-91
-91
-92
-92
-92
-92
-91
-92
-92
-92
-92
-92
-92
-92
-92
-92
-93
-92
-92
-92
-92
-92
-92
-92
-92
-92
-90
-91
-91
-91
-92
-92
-91
-91
-91
-91
-92
-91
-92
-91
-91
-91
-92
-92
-92
-92
-92
-91
-92
-91
-91
-92
-91
-91
-90
-91
-91
-91
-91
-91
-90
-91
-91
-91
-91
-91
-91
-91
-91
-91
-92
-92
-92
-92
-91
-91
-92
-91
-91
-90
-90
-90
-90
-90
-90
-90
-90
-89
-90
-90
-91
-90
-90
-90
-89
-90
-90
-91
-90
-91
-90
-90
-91
-90
-90
-90
-89
-88
-88
-89
-88
-88
-88
-88
-87
-88
-88
-87
-88
-87
-87
-87
-86
-86
-86
-86
-86
-85
-85
-85
-86
-86
-85
-85
-84
-85
-85
-85
-85
-84
-84
-84
-84
-85
-85
-84
-84
-83
-84
-84
-84
-83
-83
-83
-82
-81
-82
-82
-81
-80
-80
-79
-79
-79
-78
-78
-78
-77
-77
-76
-76
-76
-75
-74
-74
-73
-74
-74
-72
-72
-71
-71
-71
-70
-69
-69
-68
-67
-66
-67
-66
-65
-64
-64
-63
-63
-63
-64
-63
-63
-61
-61
-62
-62
-62
-62
-61
-61
-60
-60
-61
-60
-59
-59
-58
-59
-58
-58
-58
-57
-57
-57
-57
-57
-57
-56
-56
-55
-55
-56
-56
-56
-55
-56
-55
-56
-57
-56
-57
-56
-57
-58
-58
-58
-59
-59
-59
-59
-59
-61
-61
-61
-61
-61
-62
-63
-64
-64
-64
-64
-64
-65
-65
-66
-66
-66
-67
-67
-67
-68
-68
-69
-69
-70
-70
-71
-71
-73
-73
-73
-74
-74
-75
-76
-76
-77
-76
-77
-77
-78
-79
-80
-79
-80
-80
-80
-80
-81
-81
-82
-82
-83
-83
-83
-83
-84
-84
-84
-85
-86
-86
-86
-87
-87
-87
-87
-89
-89
-89
-89
-89
-90
-91
-92
-92
-92
-92
-92
-93
-94
-94
-94
-94
-94
-94
-95
-95
-96
-96
-96
-95
-96
-96
-96
-96
-95
-95
-95
-95
-95
-95
-95
-96
-95
-95
-95
-96
-96
-96
-96
-96
-96
-97
-98
-97
-97
-97
-97
-97
-97
-98
-98
-97
-96
-97
-97
-98
-98
-97
-98
-98
-97
-98
-98
-97
-97
-97
-97
-98
-98
-98
-98
-98
-98
-97
-98
-99
-99
-100
-99
-99
-99
-100
-101
-101
-100
-100
-100
-100
-100
-101
-101
-101
-101
-100
-101
-101
-101
-101
-101
-100
-100
-100
-100
-100
-100
-98
-99
-99
-99
-99
-98
-98
-98
-98
-98
-98
-98
-99
-97
-97
-97
-97
-98
-98
-97
-97
-97
-97
-97
-98
-98
-97
-97
-97
-97
-97
-98
-98
-97
-97
-97
-97
-98
-98
-97
-96
-96
-96
-96
-97
-96
-96
-95
-95
-96
-96
-96
-95
-94
-94
-94
-95
-94
-94
-95
-94
-94
-94
-94
-94
-94
-94
-93
-94
-93
-94
-95
-94
-93
-94
-94
-95
-94
-95
-94
-94
-94
-94
-94
-94
-94
-93
-93
-93
-93
-94
-93
-93
-93
-92
-92
-92
-93
-93
-92
-91
-91
-92
-92
-92
-91
-91
-92
-92
-92
-92
-93
-93
-92
-92
-92
-93
-94
-94
-93
-93
-93
-93
-93
-93
-94
-94
-93
-93
-94
-94
-94
-94
-94
-93
-93
-94
-94
-95
-94
-93
-93
-93
-93
-94
-93
-93
-92
-93
-94
-94
-94
-93
-94
-93
-94
-94
-94
-95
-94
-94
-94
-94
-94
-95
-95
-95
-95
-94
-95
-95
-95
-94
-94
-94
-95
-95
-94
-94
-94
-93
-94
-93
-93
-94
-94
-93
-93
-93
-94
-94
-94
-94
-94
-94
-94
-94
-95
-95
-95
-94
-94
-95
-94
-95
-95
-94
-94
-94
-94
-94
-94
-94
-93
-93
-94
-94
-93
-93
-93
-92
-93
-93
-94
-94
-94
-93
-94
-94
-94
-95
-95
-95
-94
-94
-95
-95
-95
-94
-94
-94
-94
-94
-94
-95
-94
-94
-94
-94
-94
-94
-94
-94
-94
-93
-94
-95
-95
-94
-95
-95
-95
-95
-95
-95
-95
-95
-94
-94
-95
-95
-95
-95
-94
-95
-94
-95
-95
-95
-95
-94
-94
-94
-95
-94
-95
-94
-93
-93
-94
-94
-94
-94
-94
-94
-94
-94
-95
-95
-94
-94
-93
-94
-95
-95
-95
-95
-94
-94
-95
-95
-96
-95
-96
-95
-95
-96
-95
-95
-96
-96
-96
-96
-96
-96
-96
-95
-96
-95
-96
-96
-95
-95
-95
-95
-95
-95
-94
-95
-94
-93
-93
-93
-94
-94
-93
-92
-92
-92
-92
-93
-92
-92
-92
-92
-92
-93
-92
-92
-92
-92
-91
-92
-92
-92
-91
-91
-91
-90
-90
-90
-91
-90
-89
-88
-89
-89
-88
-88
-87
-86
-86
-86
-86
-86
-85
-83
-83
-83
-83
-83
-82
-81
-81
-81
-81
-81
-81
-80
-80
-80
-79
-80
-81
-81
-81
-81
-81
-81
-82
-82
-83
-83
-83
-83
-82
-84
-84
-84
-83
-83
-83
-84
-84
-84
-85
-84
-84
-84
-85
-85
-86
-85
-86
-86
-86
-87
-88
-88
-88
-88
-89
-89
-90
-90
-90
-91
-91
-91
-91
-91
-91
-92
-91
-91
-91
-91
-92
-92
-93
-92
-92
-92
-93
-94
-93
-94
-94
-95
-95
-97
-96
-97
-96
-97
-97
-97
-98
-98
-97
-97
-98
-97
-97
-98
-99
-97
-98
-98
-99
-99
-99
-99
-99
-99
-99
-99
-100
-99
-99
-99
-99
-99
-99
-99
-99
-98
-97
-97
-98
-98
-98
-97
-97
-97
-97
-97
-98
-98
-98
-98
-98
-98
-99
-99
-100
-100
-99
-100
-100
-100
-101
-101
-101
-101
-101
-100
-101
-100
-99
-98
-98
-97
-97
-97
-96
-93
-93
-92
-90
-90
-89
-86
-84
-81
-80
-77
-74
-70
-67
-62
-56
-50
-44
-38
-30
-22
-14
-6
3
11
19
27
34
41
46
50
54
57
58
60
59
56
52
47
40
34
25
15
6
-5
-16
-26
-37
-47
-58
-68
-79
-87
-95
-103
-110
-117
-123
-128
-133
-137
-139
-142
-145
-147
-148
-149
-149
-150
-150
-151
-151
-150
-149
-149
-148
-149
-149
-149
-149
-148
-147
-147
-147
-147
-147
-146
-145
-145
-145
-144
-145
-143
-143
-142
-141
-141
-141
-140
-140
-138
-138
-137
-137
-136
-136
-135
-134
-134
-134
-133
-132
-132
-131
-130
-129
-129
-127
-127
-126
-124
-122
-121
-121
-120
-119
-118
-116
-114
-114
-112
-111
-110
-108
-106
-105
-104
-104
-103
-102
-101
-100
-99
-99
-99
-98
-98
-97
-98
-97
-97
-98
-97
-97
-97
-97
-97
-97
-97
-97
-96
-97
-97
-97
-98
-97
-98
-97
-97
-97
-97
-97
-96
-95
-95
-94
-95
-94
-94
-94
-93
-93
-93
-93
-93
-92
-92
-91
-92
-92
-92
-92
-93
-92
-93
-93
-93
-94
-93
-94
-93
-93
-93
-94
-94
-95
-94
-94
-94
-93
-94
-94
-94
-92
-92
-92
-92
-92
-93
-92
-92
-92
-92
-92
-92
-92
-92
-91
-92
-92
-92
-92
-92
-92
-92
-92
-91
-92
-92
-92
-92
-91
-91
-91
-91
-92
-91
-91
-90
-90
-90
-91
-91
-90
-90
-90
-89
-90
-90
-89
-89
-88
-88
-88
-88
-89
-88
-88
-88
-87
-88
-88
-87
-86
-86
-86
-86
-86
-86
-86
-85
-85
-85
-85
-86
-85
-85
-84
-84
-84
-84
-84
-83
-83
-82
-82
-82
-82
-82
-82
-81
-81
-80
-80
-80
-80
-79
-78
-79
-78
-78
-78
-77
-77
-76
-76
-75
-76
-75
-75
-74
-73
-72
-72
-72
-71
-71
-70
-70
-69
-69
-68
-67
-66
-65
-64
-64
-64
-63
-62
-61
-60
-60
-60
-59
-58
-57
-57
-56
-55
-55
-55
-54
-53
-53
-51
-51
-51
-51
-50
-50
-49
-49
-49
-50
-49
-49
-48
-48
-47
-48
-48
-48
-47
-46
-46
-46
-46
-46
-46
-46
-45
-44
-44
-44
-45
-44
-43
-43
-44
-45
-45
-44
-44
-44
-44
-44
-45
-45
-46
-45
-45
-46
-47
-47
-47
-48
-48
-49
-49
-50
-52
-52
-52
-52
-53
-54
-55
-56
-56
-57
-58
-58
-60
-60
-61
-63
-62
-64
-64
-65
-65
-66
-66
-66
-66
-67
-68
-68
-69
-69
-70
-69
-71
-71
-71
-72
-71
-72
-72
-74
-73
-74
-74
-74
-74
-76
-76
-77
-76
-77
-77
-78
-78
-79
-80
-80
-80
-80
-81
-82
-82
-83
-83
-82
-84
-84
-85
-84
-85
-85
-85
-86
-86
-87
-88
-88
-88
-88
-89
-89
-90
-89
-89
-90
-90
-89
-90
-91
-90
-90
-89
-90
-90
-90
-89
-89
-88
-88
-89
-89
-88
-89
-88
-89
-89
-90
-90
-90
-90
-90
-91
-92
-92
-93
-93
-94
-94
-93
-94
-94
-95
-94
-94
-94
-94
-94
-94
-94
-93
-93
-94
-93
-94
-94
-93
-93
-93
-92
-93
-93
-94
-94
-94
-93
-93
-94
-94
-94
-94
-93
-94
-94
-94
-94
-94
-94
-94
-94
-94
-95
-94
-94
-94
-93
-93
-93
-94
-94
-94
-93
-93
-93
-94
-94
-94
-94
-93
-94
-94
-94
-94
-95
-94
-94
-94
-95
-96
-95
-95
-94
-94
-94
-95
-95
-95
-94
-93
-93
-93
-93
-92
-92
-92
-91
-90
-90
-90
-90
-90
-89
-89
-89
-89
-89
-89
-89
-88
-89
-88
-88
-89
-88
-89
-89
-89
-89
-89
-89
-89
-88
-89
-89
-89
-88
-88
-87
-87
-86
-87
-88
-87
-87
-86
-86
-85
-86
-85
-85
-86
-85
-85
-85
-86
-86
-87
-86
-86
-86
-87
-87
-86
-87
-86
-86
-86
-85
-85
-86
-85
-85
-85
-85
-85
-85
-84
-84
-83
-84
-84
-84
-84
-83
-83
-83
-83
-83
-83
-83
-83
-83
-82
-83
-83
-83
-83
-83
-83
-83
-84
-84
-85
-84
-85
-84
-85
-85
-86
-86
-86
-86
-85
-85
-86
-85
-85
-86
-85
-84
-85
-85
-86
-85
-85
-84
-84
-84
-85
-84
-85
-85
-84
-84
-84
-85
-84
-85
-84
-84
-84
-85
-85
-85
-84
-84
-84
-84
-85
-86
-85
-85
-85
-85
-85
-86
-86
-86
-86
-87
-86
-87
-87
-87
-86
-86
-86
-87
-86
-87
-86
-85
-85
-85
-85
-86
-85
-85
-85
-85
-85
-86
-85
-85
-85
-85
-85
-85
-85
-86
-85
-85
-84
-85
-85
-85
-85
-84
-84
-84
-85
-85
-85
-84
-84
-84
-84
-84
-85
-84
-84
-84
-85
-85
-85
-85
-85
-86
-85
-85
-85
-86
-86
-86
-86
-85
-85
-86
-86
-86
-85
-85
-85
-85
-85
-85
-85
-85
-85
-85
-85
-85
-85
-85
-85
-85
-85
-85
-85
-86
-86
-85
-86
-85
-86
-86
-86
-86
-86
-86
-86
-86
-85
-86
-85
-85
-85
-85
-85
-86
-85
-85
-84
-85
-85
-86
-86
-85
-85
-85
-84
-84
-85
-84
-84
-84
-84
-84
-84
-85
-84
-84
-85
-84
-84
-85
-85
-84
-84
-83
-84
-84
-84
-84
-83
-84
-82
-82
-83
-82
-82
-81
-81
-81
-81
-80
-80
-79
-79
-78
-79
-79
-78
-78
-76
-76
-75
-76
-75
-76
-75
-73
-73
-73
-73
-73
-73
-72
-71
-70
-71
-71
-70
-70
-69
-70
-69
-69
-70
-69
-69
-69
-68
-68
-68
-69
-68
-67
-68
-68
-68
-69
-68
-68
-68
-67
-67
-68
-69
-69
-68
-68
-69
-69
-70
-70
-70
-71
-70
-70
-71
-71
-72
-71
-71
-71
-71
-72
-72
-72
-73
-73
-72
-73
-74
-74
-75
-75
-75
-75
-76
-77
-78
-77
-78
-78
-78
-79
-80
-80
-80
-80
-80
-80
-81
-81
-81
-81
-81
-81
-82
-82
-82
-82
-81
-82
-82
-82
-83
-84
-83
-83
-83
-83
-83
-84
-85
-85
-85
-84
-85
-86
-86
-85
-85
-85
-85
-85
-86
-86
-85
-85
-85
-84
-85
-85
-86
-85
-84
-84
-85
-85
-86
-86
-85
-85
-85
-86
-86
-86
-85
-85
-85
-85
-85
-85
-85
-84
-84
-83
-84
-84
-83
-83
-83
-83
-83
-84
-83
-83
-83
-83
-83
-84
-84
-84
-84
-82
-81
-80
-79
-77
-76
-72
-69
-65
-61
-56
-51
-44
-38
-30
-21
-12
-3
6
17
28
37
47
57
65
73
82
88
94
97
100
100
100
98
94
89
82
75
65
55
44
32
20
7
-5
-18
-30
-43
-55
-66
-77
-86
-96
-103
-111
-118
-124
-130
-134
-138
-140
-143
-143
-145
-146
-146
-147
-146
-145
-145
-144
-144
-144
-142
-141
-141
-141
-141
-140
-139
-139
-138
-137
-138
-138
-138
-138
-137
-136
-135
-136
-136
-135
-135
-134
-133
-133
-133
-133
-133
-132
-131
-130
-130
-129
-129
-128
-127
-126
-125
-125
-124
-124
-121
-120
-119
-117
-117
-116
-114
-112
-111
-110
-108
-107
-106
-105
-102
-101
-99
-98
-97
-97
-96
-94
-93
-92
-92
-91
-90
-90
-88
-88
-88
-88
-88
-87
-87
-86
-86
-86
-87
-87
-86
-86
-86
-86
-86
-87
-88
-87
-87
-87
-88
-88
-89
-88
-88
-88
-88
-88
-88
-89
-88
-88
-87
-86
-87
-86
-86
-86
-84
-84
-84
-84
-84
-83
-83
-82
-82
-83
-83
-83
-82
-82
-82
-83
-83
-84
-83
-84
-83
-83
-84
-84
-85
-84
-84
-84
-84
-84
-84
-84
-84
-83
-83
-83
-84
-83
-83
-83
-82
-82
-83
-83
-83
-83
-83
-82
-82
-83
-83
-83
-82
-83
-82
-83
-83
-84
-84
-83
-83
-83
-83
-84
-83
-83
-83
-83
-83
-83
-83
-83
-83
-82
-81
-82
-82
-82
-82
-81
-80
-80
-81
-81
-82
-81
-81
-80
-80
-81
-80
-80
-79
-79
-78
-79
-78
-79
-78
-78
-77
-76
-76
-76
-76
-75
-74
-74
-74
-73
-73
-72
-72
-70
-70
-70
-70
-70
-70
-69
-69
-68
-68
-68
-68
-68
-67
-66
-66
-66
-66
-66
-65
-64
-63
-62
-62
-62
-61
-60
-59
-59
-59
-58
-57
-55
-54
-53
-52
-53
-52
-52
-50
-50
-49
-49
-50
-49
-48
-48
-47
-47
-47
-46
-46
-45
-45
-44
-44
-43
-43
-43
-41
-41
-40
-39
-39
-38
-38
-37
-36
-36
-36
-36
-36
-35
-35
-35
-34
-34
-34
-34
-33
-33
-33
-32
-32
-33
-32
-32
-32
-31
-31
-32
-32
-32
-32
-32
-32
-33
-33
-33
-34
-34
-34
-34
-36
-37
-37
-38
-38
-38
-40
-41
-42
-42
-42
-43
-44
-44
-45
-46
-47
-46
-48
-48
-49
-50
-50
-51
-51
-52
-52
-53
-54
-54
-54
-55
-54
-56
-56
-57
-58
-57
-58
-59
-60
-60
-61
-60
-61
-61
-63
-63
-64
-64
-64
-64
-65
-66
-67
-67
-68
-68
-68
-69
-69
-71
-72
-71
-72
-73
-74
-74
-75
-75
-76
-76
-77
-78
-78
-79
-79
-79
-79
-80
-80
-81
-81
-81
-81
-81
-81
-81
-81
-81
-80
-80
-80
-80
-81
-81
-80
-80
-80
-80
-81
-81
-81
-81
-81
-81
-81
-82
-82
-82
-82
-83
-83
-83
-83
-84
-84
-84
-84
-83
-85
-85
-85
-84
-85
-84
-84
-85
-85
-84
-84
-84
-84
-84
-84
-84
-84
-84
-84
-84
-84
-85
-84
-84
-84
-84
-85
-85
-85
-85
-85
-85
-85
-85
-86
-86
-86
-86
-85
-86
-86
-87
-87
-86
-86
-86
-86
-86
-86
-85
-84
-85
-85
-85
-85
-85
-85
-84
-84
-85
-85
-86
-86
-85
-85
-85
-85
-85
-86
-85
-85
-84
-84
-85
-85
-85
-84
-84
-84
-84
-84
-84
-84
-84
-83
-83
-84
-85
-85
-84
-84
-83
-83
-84
-84
-84
-84
-83
-83
-82
-83
-82
-82
-82
-81
-81
-81
-82
-81
-81
-80
-80
-80
-80
-80
-81
-80
-80
-80
-80
-81
-80
-80
-80
-80
-80
-80
-80
-81
-81
-80
-79
-79
-80
-80
-80
-79
-79
-79
-79
-80
-79
-79
-80
-79
-79
-79
-80
-80
-79
-79
-79
-80
-79
-79
-79
-79
-79
-79
-79
-79
-80
-79
-78
-78
-78
-79
-79
-79
-78
-78
-78
-79
-79
-80
-80
-79
-80
-80
-80
-81
-82
-82
-81
-80
-80
-80
-80
-80
-81
-79
-79
-79
-79
-79
-79
-78
-77
-77
-77
-77
-78
-78
-77
-77
-77
-78
-78
-78
-79
-78
-78
-78
-78
-79
-79
-78
-78
-79
-78
-78
-79
-79
-79
-78
-78
-79
-79
-79
-78
-78
-77
-77
-78
-78
-79
-78
-78
-78
-79
-79
-79
-79
-79
-79
-79
-79
-80
-80
-80
-80
-80
-80
-81
-81
-81
-81
-80
-81
-81
-81
-82
-82
-81
-80
-80
-81
-81
-80
-81
-79
-80
-80
-80
-80
-80
-80
-80
-80
-80
-80
-81
-81
-81
-81
-81
-80
-81
-82
-81
-81
-80
-80
-81
-81
-81
-81
-80
-79
-80
-80
-80
-79
-79
-78
-78
-79
-80
-80
-79
-79
-78
-78
-79
-79
-79
-79
-79
-79
-80
-80
-81
-81
-80
-81
-81
-81
-81
-82
-81
-81
-81
-81
-82
-82
-82
-82
-81
-81
-81
-82
-81
-81
-81
-80
-81
-81
-81
-81
-80
-80
-80
-80
-81
-81
-80
-80
-80
-80
-80
-80
-81
-80
-80
-80
-80
-80
-80
-81
-81
-80
-80
-80
-80
-80
-80
-81
-81
-81
-81
-82
-82
-82
-82
-82
-82
-82
-83
-82
-83
-83
-82
-82
-82
-82
-82
-82
-81
-82
-81
-81
-81
-81
-80
-80
-80
-79
-79
-79
-79
-77
-78
-78
-78
-78
-77
-77
-76
-76
-76
-77
-76
-76
-75
-76
-75
-76
-76
-75
-75
-74
-74
-73
-73
-73
-73
-72
-72
-70
-70
-70
-71
-69
-69
-69
-68
-68
-67
-67
-67
-66
-66
-65
-66
-66
-65
-65
-65
-64
-64
-64
-65
-65
-65
-64
-64
-65
-65
-65
-66
-66
-65
-65
-65
-66
-66
-67
-67
-67
-67
-68
-68
-68
-67
-68
-68
-68
-69
-69
-68
-69
-68
-68
-69
-69
-70
-70
-70
-70
-70
-71
-72
-72
-72
-72
-72
-73
-75
-75
-76
-75
-75
-76
-77
-78
-78
-78
-78
-79
-78
-80
-79
-79
-80
-80
-80
-80
-81
-81
-81
-81
-80
-80
-81
-81
-81
-81
-81
-81
-82
-82
-82
-82
-81
-81
-81
-81
-82
-82
-82
-82
-81
-81
-82
-82
-82
-81
-81
-82
-81
-82
-82
-82
-82
-81
-82
-82
-83
-84
-83
-83
-82
-83
-84
-84
-84
-84
-83
-83
-84
-84
-84
-84
-84
-83
-83
-83
-84
-84
-84
-83
-83
-82
-82
-82
-81
-81
-80
-80
-80
-79
-80
-79
-77
-77
-76
-75
-74
-72
-71
-68
-65
-63
-60
-56
-52
-46
-40
-35
-28
-20
-13
-4
5
15
23
33
41
50
58
67
74
78
83
87
89
90
90
88
85
79
73
66
57
48
37
26
14
3
-8
-20
-31
-42
-53
-64
-74
-82
-91
-98
-105
-112
-118
-122
-125
-129
-131
-134
-136
-137
-138
-138
-138
-138
-139
-138
-138
-137
-137
-136
-136
-136
-136
-136
-135
-134
-134
-134
-134
-134
-134
-133
-133
-133
-132
-133
-132
-132
-130
-130
-130
-130
-130
-129
-128
-127
-126
-126
-125
-124
-123
-123
-121
-121
-121
-120
-119
-118
-116
-116
-115
-114
-113
-111
-109
-108
-106
-105
-103
-102
-100
-98
-97
-96
-95
-94
-92
-91
-89
-88
-87
-87
-87
-86
-85
-84
-84
-84
-84
-84
-84
-83
-83
-83
-83
-83
-83
-83
-83
-83
-83
-83
-84
-83
-84
-84
-84
-84
-84
-84
-83
-83
-82
-82
-83
-82
-82
-82
-81
-81
-82
-82
-81
-81
-81
-80
-80
-80
-80
-80
-79
-79
-79
-80
-81
-80
-80
-80
-79
-80
-81
-80
-80
-81
-80
-80
-80
-80
-81
-81
-80
-79
-80
-79
-80
-80
-80
-79
-78
-79
-78
-78
-79
-78
-78
-78
-78
-79
-79
-79
-79
-78
-78
-78
-79
-79
-79
-79
-79
-79
-79
-80
-79
-79
-79
-78
-78
-78
-79
-78
-78
-78
-78
-77
-78
-78
-78
-77
-77
-76
-76
-77
-76
-76
-76
-76
-76
-76
-77
-77
-76
-76
-75
-75
-76
-76
-76
-76
-76
-75
-75
-76
-76
-75
-75
-74
-74
-75
-74
-74
-73
-73
-72
-72
-72
-72
-72
-71
-70
-70
-70
-70
-70
-70
-69
-68
-68
-69
-68
-68
-68
-67
-67
-67
-66
-65
-66
-64
-63
-63
-63
-62
-62
-62
-60
-60
-59
-59
-59
-57
-57
-56
-56
-54
-55
-54
-53
-53
-52
-51
-51
-50
-50
-49
-48
-48
-47
-46
-47
-45
-45
-44
-43
-43
-42
-42
-41
-41
-40
-39
-39
-39
-39
-38
-38
-37
-36
-37
-36
-36
-35
-35
-34
-34
-35
-34
-34
-34
-32
-32
-33
-33
-33
-33
-32
-33
-32
-33
-32
-33
-33
-32
-32
-33
-34
-34
-35
-34
-35
-35
-35
-36
-37
-37
-37
-38
-38
-38
-40
-39
-40
-40
-40
-41
-42
-42
-43
-43
-43
-44
-45
-46
-46
-46
-47
-47
-47
-48
-48
-49
-50
-50
-50
-51
-51
-52
-53
-53
-53
-54
-55
-55
-56
-57
-57
-57
-58
-58
-60
-60
-61
-61
-60
-61
-62
-63
-63
-64
-64
-64
-65
-65
-66
-67
-68
-67
-68
-69
-70
-69
-70
-70
-71
-71
-71
-72
-72
-71
-71
-71
-72
-72
-72
-73
-72
-73
-73
-73
-74
-74
-74
-73
-74
-74
-74
-74
-74
-75
-75
-74
-75
-75
-76
-76
-76
-75
-76
-76
-77
-77
-76
-76
-76
-77
-77
-78
-78
-77
-77
-77
-78
-78
-79
-77
-78
-78
-77
-78
-78
-79
-79
-78
-77
-78
-79
-79
-79
-79
-78
-78
-79
-79
-80
-80
-80
-80
-80
-81
-80
-80
-81
-80
-80
-80
-80
-80
-81
-80
-79
-79
-80
-80
-79
-79
-79
-78
-78
-78
-79
-79
-78
-77
-77
-77
-77
-77
-77
-77
-76
-76
-77
-77
-77
-77
-77
-76
-77
-77
-77
-78
-78
-78
-77
-77
-77
-78
-78
-78
-77
-78
-78
-79
-78
-78
-78
-77
-77
-77
-78
-77
-77
-76
-76
-76
-76
-75
-75
-75
-75
-74
-74
-74
-74
-74
-73
-73
-73
-73
-72
-72
-72
-72
-71
-71
-72
-72
-71
-71
-71
-71
-71
-72
-71
-71
-71
-71
-71
-71
-71
-71
-71
-71
-70
-70
-71
-71
-71
-70
-70
-70
-70
-71
-71
-71
-70
-70
-70
-69
-70
-70
-70
-69
-69
-69
-69
-70
-70
-69
-68
-69
-68
-69
-69
-69
-69
-69
-69
-69
-68
-68
-69
-68
-68
-68
-68
-69
-69
-68
-68
-67
-68
-68
-69
-69
-68
-68
-68
-68
-69
-68
-69
-69
-68
-69
-69
-69
-69
-69
-69
-70
-69
-70
-70
-70
-69
-69
-69
-69
-69
-69
-70
-70
-69
-69
-69
-70
-70
-69
-69
-69
-69
-69
-69
-70
-70
-69
-69
-70
-70
-70
-70
-69
-70
-70
-71
-70
-70
-70
-70
-70
-70
-70
-70
-71
-70
-70
-70
-69
-69
-70
-70
-69
-69
-69
-70
-70
-70
-69
-70
-70
-70
-71
-71
-71
-71
-70
-71
-71
-72
-72
-72
-72
-72
-72
-73
-73
-73
-73
-71
-71
-72
-73
-72
-72
-72
-72
-72
-72
-72
-72
-71
-72
-71
-71
-71
-71
-71
-71
-71
-71
-71
-71
-71
-71
-71
-70
-71
-71
-72
-72
-71
-71
-71
-71
-71
-72
-72
-72
-71
-70
-71
-72
-71
-71
-71
-72
-72
-72
-72
-72
-72
-72
-71
-72
-73
-73
-73
-73
-73
-73
-73
-73
-73
-73
-73
-74
-73
-74
-74
-74
-75
-74
-73
-73
-73
-74
-74
-73
-73
-73
-73
-74
-73
-73
-73
-71
-71
-72
-72
-72
-71
-71
-72
-71
-71
-72
-72
-72
-72
-72
-72
-73
-73
-73
-73
-73
-73
-73
-74
-74
-73
-73
-73
-73
-74
-74
-73
-73
-73
-73
-72
-73
-73
-72
-72
-71
-72
-72
-72
-73
-72
-72
-71
-71
-71
-72
-72
-71
-71
-72
-71
-72
-72
-72
-71
-72
-72
-72
-73
-73
-72
-72
-71
-71
-71
-71
-71
-71
-71
-70
-71
-71
-71
-71
-70
-70
-69
-69
-69
-69
-69
-69
-68
-68
-68
-68
-66
-66
-65
-65
-65
-65
-65
-65
-64
-64
-64
-64
-63
-63
-62
-62
-62
-62
-61
-61
-61
-61
-60
-60
-59
-60
-59
-59
-58
-58
-58
-58
-58
-58
-57
-56
-56
-56
-57
-56
-57
-57
-56
-56
-56
-58
-57
-57
-57
-57
-58
-58
-59
-60
-60
-60
-61
-62
-62
-63
-63
-63
-63
-64
-65
-65
-66
-66
-66
-66
-66
-65
-66
-66
-66
-65
-65
-65
-65
-65
-66
-65
-65
-64
-65
-66
-66
-66
-66
-66
-67
-68
-68
-69
-68
-69
-69
-70
-71
-72
-72
-72
-72
-73
-74
-74
-75
-75
-74
-75
-74
-75
-76
-76
-75
-75
-75
-75
-75
-76
-76
-76
-75
-75
-76
-76
-76
-76
-76
-76
-76
-76
-76
-76
-75
-75
-76
-76
-76
-76
-77
-76
-76
-76
-76
-77
-76
-76
-76
-77
-77
-77
-76
-76
-76
-76
-75
-76
-76
-77
-77
-77
-76
-76
-76
-77
-76
-76
-75
-75
-76
-75
-76
-76
-75
-75
-75
-75
-74
-75
-74
-73
-72
-71
-72
-72
-71
-70
-68
-67
-66
-65
-63
-61
-58
-55
-51
-47
-43
-39
-33
-26
-19
-12
-5
3
10
17
26
35
42
49
54
60
64
68
71
72
72
70
67
63
58
52
44
36
27
17
8
-3
-14
-24
-34
-44
-54
-64
-71
-80
-87
-95
-101
-107
-111
-115
-119
-122
-125
-127
-128
-128
-129
-130
-131
-131
-131
-130
-130
-130
-129
-129
-128
-127
-127
-126
-126
-126
-126
-126
-125
-125
-125
-125
-125
-125
-125
-124
-124
-124
-124
-124
-124
-122
-122
-122
-121
-121
-121
-120
-119
-119
-118
-118
-118
-117
-116
-115
-114
-113
-113
-112
-111
-110
-109
-108
-106
-106
-104
-103
-102
-100
-99
-98
-96
-94
-94
-92
-90
-89
-88
-88
-87
-85
-84
-84
-83
-83
-84
-83
-82
-82
-82
-82
-81
-81
-81
-81
-80
-80
-80
-80
-80
-79
-79
-79
-79
-79
-80
-80
-79
-79
-79
-80
-80
-80
-80
-79
-79
-79
-80
-80
-80
-80
-80
-80
-80
-80
-80
-80
-80
-79
-80
-81
-81
-81
-80
-80
-80
-80
-81
-80
-80
-80
-80
-80
-80
-81
-80
-81
-81
-80
-80
-81
-80
-80
-79
-79
-79
-79
-79
-79
-78
-78
-77
-77
-78
-78
-78
-78
-77
-77
-77
-77
-77
-77
-77
-77
-76
-77
-77
-78
-77
-77
-78
-78
-78
-78
-78
-78
-78
-78
-79
-79
-79
-79
-79
-78
-78
-79
-79
-79
-78
-78
-78
-77
-78
-77
-77
-78
-77
-76
-76
-76
-77
-76
-75
-75
-75
-75
-75
-75
-75
-74
-74
-74
-74
-74
-74
-74
-74
-73
-73
-73
-73
-73
-73
-72
-72
-71
-72
-71
-71
-70
-70
-69
-69
-69
-69
-68
-68
-68
-68
-67
-67
-66
-66
-65
-65
-65
-65
-65
-64
-64
-64
-63
-64
-63
-63
-63
-61
-61
-61
-60
-61
-60
-59
-59
-58
-57
-58
-57
-56
-55
-54
-54
-53
-54
-52
-53
-51
-51
-50
-50
-50
-49
-49
-47
-48
-48
-47
-48
-47
-47
-46
-46
-46
-45
-45
-45
-45
-44
-43
-44
-43
-43
-42
-42
-41
-41
-41
-42
-41
-41
-40
-40
-41
-41
-40
-41
-40
-39
-40
-41
-41
-41
-40
-41
-40
-41
-42
-42
-42
-42
-43
-43
-43
-44
-44
-45
-45
-45
-46
-46
-47
-47
-47
-48
-48
-49
-50
-50
-50
-51
-50
-51
-52
-52
-53
-53
-54
-53
-54
-55
-55
-56
-57
-56
-57
-58
-59
-60
-60
-59
-60
-60
-61
-61
-62
-63
-63
-63
-64
-64
-65
-66
-66
-67
-66
-67
-67
-69
-69
-69
-69
-70
-70
-71
-71
-71
-71
-72
-72
-73
-74
-74
-73
-73
-74
-74
-75
-75
-76
-75
-75
-75
-76
-76
-77
-78
-78
-77
-77
-79
-78
-79
-78
-79
-78
-79
-79
-80
-79
-79
-78
-79
-79
-80
-80
-80
-79
-79
-78
-79
-79
-79
-79
-78
-78
-78
-79
-79
-79
-79
-79
-79
-79
-79
-80
-80
-80
-79
-79
-79
-80
-79
-79
-80
-79
-80
-80
-80
-81
-80
-80
-80
-81
-80
-81
-80
-81
-81
-80
-81
-82
-82
-81
-81
-82
-81
-81
-82
-82
-81
-81
-81
-82
-82
-82
-82
-81
-81
-81
-81
-82
-82
-81
-81
-80
-81
-80
-81
-81
-80
-80
-80
-80
-80
-80
-80
-80
-79
-79
-80
-80
-80
-80
-80
-79
-79
-80
-79
-80
-78
-78
-78
-79
-79
-80
-79
-78
-79
-78
-79
-79
-79
-79
-78
-77
-78
-78
-77
-77
-77
-76
-75
-76
-77
-76
-75
-75
-75
-75
-75
-74
-75
-74
-73
-73
-73
-73
-74
-74
-72
-72
-73
-72
-73
-73
-73
-72
-72
-72
-72
-73
-73
-72
-72
-72
-73
-73
-73
-73
-73
-72
-73
-72
-73
-74
-73
-72
-73
-73
-73
-73
-73
-73
-73
-73
-72
-73
-73
-73
-73
-73
-73
-73
-74
-74
-74
-74
-74
-74
-74
-75
-75
-75
-74
-74
-75
-75
-75
-74
-74
-74
-73
-74
-74
-74
-73
-73
-73
-73
-74
-73
-73
-73
-73
-73
-73
-73
-74
-73
-73
-72
-73
-73
-73
-73
-73
-73
-73
-73
-73
-73
-74
-73
-73
-73
-73
-73
-74
-74
-73
-72
-72
-72
-73
-73
-73
-73
-72
-73
-73
-73
-73
-72
-72
-72
-72
-72
-72
-72
-72
-72
-71
-72
-73
-72
-73
-73
-72
-72
-73
-73
-73
-73
-74
-73
-74
-75
-76
-76
-75
-75
-75
-75
-76
-76
-77
-76
-76
-76
-77
-77
-77
-76
-76
-76
-76
-77
-76
-76
-76
-76
-76
-75
-75
-76
-75
-75
-74
-75
-75
-76
-75
-75
-74
-74
-74
-74
-75
-76
-75
-75
-75
-75
-75
-76
-75
-75
-75
-76
-76
-75
-75
-75
-74
-74
-74
-75
-74
-74
-73
-73
-73
-73
-74
-74
-73
-74
-73
-73
-73
-74
-74
-74
-73
-74
-74
-75
-75
-74
-74
-74
-74
-75
-75
-76
-76
-76
-75
-76
-76
-76
-76
-76
-76
-76
-76
-76
-77
-76
-76
-76
-76
-76
-77
-77
-76
-76
-75
-76
-77
-76
-76
-76
-76
-76
-76
-76
-77
-76
-75
-75
-75
-75
-76
-75
-75
-75
-74
-75
-75
-74
-74
-74
-74
-73
-74
-74
-75
-75
-75
-75
-75
-76
-76
-76
-76
-76
-76
-76
-76
-77
-77
-77
-77
-77
-78
-78
-79
-78
-78
-79
-79
-79
-80
-80
-80
-79
-80
-80
-80
-80
-79
-79
-78
-79
-78
-79
-79
-78
-78
-78
-78
-78
-78
-78
-77
-77
-77
-77
-77
-77
-77
-77
-77
-76
-77
-77
-78
-77
-77
-76
-76
-77
-77
-77
-77
-77
-77
-77
-77
-77
-77
-76
-76
-76
-77
-77
-76
-76
-76
-75
-76
-76
-75
-76
-75
-74
-74
-74
-74
-74
-74
-73
-71
-72
-71
-72
-71
-71
-70
-70
-70
-70
-69
-70
-69
-69
-68
-68
-69
-68
-68
-68
-67
-66
-67
-67
-67
-66
-66
-66
-66
-66
-66
-66
-66
-65
-65
-66
-66
-66
-67
-66
-66
-66
-66
-67
-66
-67
-66
-67
-66
-66
-67
-67
-67
-67
-67
-67
-68
-69
-69
-70
-69
-70
-71
-71
-72
-71
-71
-71
-72
-72
-73
-74
-73
-73
-73
-73
-73
-74
-75
-74
-74
-74
-75
-76
-76
-76
-76
-76
-77
-77
-79
-79
-80
-80
-79
-81
-81
-82
-81
-82
-82
-81
-82
-82
-83
-82
-82
-81
-82
-82
-82
-82
-82
-81
-81
-80
-81
-81
-81
-81
-80
-79
-80
-80
-81
-81
-80
-80
-81
-81
-82
-83
-83
-83
-84
-84
-85
-85
-85
-85
-85
-85
-85
-85
-86
-85
-85
-84
-84
-85
-85
-85
-85
-85
-84
-84
-84
-85
-85
-84
-83
-84
-84
-84
-84
-84
-84
-84
-84
-83
-84
-84
-83
-83
-82
-82
-82
-82
-81
-80
-79
-78
-77
-77
-76
-74
-72
-70
-69
-67
-65
-63
-58
-54
-50
-45
-40
-34
-28
-20
-13
-5
2
9
17
24
31
37
43
48
51
53
56
57
57
54
51
47
42
36
28
20
11
2
-9
-19
-29
-38
-47
-58
-67
-76
-84
-91
-99
-105
-112
-117
-122
-126
-129
-132
-135
-137
-139
-139
-139
-140
-140
-140
-140
-140
-140
-138
-138
-137
-137
-137
-137
-136
-135
-135
-135
-135
-136
-135
-134
-134
-133
-134
-134
-134
-134
-133
-133
-133
-132
-133
-132
-132
-130
-130
-130
-130
-129
-128
-127
-127
-126
-126
-126
-125
-124
-122
-121
-120
-119
-118
-117
-116
-114
-113
-111
-111
-109
-108
-106
-104
-103
-102
-102
-100
-99
-98
-97
-96
-96
-96
-95
-93
-93
-92
-91
-92
-92
-91
-90
-90
-91
-91
-91
-92
-91
-90
-90
-90
-91
-91
-91
-90
-90
-90
-90
-90
-91
-90
-89
-89
-89
-90
-90
-90
-90
-89
-89
-89
-89
-90
-90
-89
-89
-88
-89
-89
-89
-89
-87
-87
-87
-87
-88
-87
-87
-86
-85
-86
-85
-86
-85
-85
-84
-83
-84
-85
-84
-85
-84
-83
-83
-84
-84
-85
-84
-83
-84
-84
-85
-85
-85
-85
-85
-85
-86
-86
-86
-86
-85
-85
-85
-86
-85
-86
-85
-85
-85
-85
-85
-85
-85
-84
-84
-84
-85
-85
-84
-85
-84
-84
-84
-84
-85
-85
-85
-86
-85
-85
-86
-86
-86
-86
-85
-86
-85
-85
-86
-86
-85
-85
-85
-85
-85
-85
-85
-85
-84
-84
-85
-84
-84
-83
-83
-82
-82
-82
-82
-82
-81
-80
-79
-80
-79
-79
-78
-77
-76
-77
-76
-76
-76
-76
-76
-75
-75
-76
-75
-75
-75
-74
-75
-75
-75
-75
-75
-75
-75
-74
-75
-75
-74
-73
-72
-73
-73
-72
-72
-70
-69
-69
-68
-68
-67
-67
-66
-65
-64
-63
-64
-63
-62
-61
-61
-60
-59
-60
-59
-58
-57
-57
-57
-57
-56
-56
-55
-55
-54
-54
-54
-54
-53
-52
-52
-51
-51
-51
-51
-51
-51
-50
-50
-51
-51
-51
-50
-50
-49
-50
-50
-50
-50
-49
-49
-49
-48
-49
-48
-49
-48
-48
-48
-48
-49
-48
-49
-49
-48
-48
-49
-50
-49
-49
-49
-49
-50
-51
-52
-52
-51
-52
-53
-53
-54
-54
-55
-55
-55
-56
-57
-59
-58
-59
-59
-59
-60
-61
-62
-62
-62
-63
-64
-64
-65
-66
-66
-67
-67
-68
-68
-68
-70
-69
-70
-70
-71
-72
-73
-73
-73
-74
-75
-76
-77
-78
-78
-78
-78
-79
-80
-80
-81
-81
-82
-82
-83
-83
-83
-84
-83
-84
-84
-84
-85
-86
-85
-85
-85
-85
-86
-86
-86
-86
-85
-85
-86
-87
-87
-86
-86
-86
-86
-88
-89
-89
-89
-88
-89
-89
-89
-90
-90
-91
-90
-91
-92
-92
-93
-93
-93
-93
-94
-93
-94
-94
-93
-93
-93
-93
-93
-93
-93
-92
-92
-91
-92
-91
-92
-91
-91
-90
-90
-90
-91
-91
-90
-90
-90
-90
-90
-91
-91
-90
-90
-90
-91
-92
-91
-92
-91
-92
-92
-92
-94
-93
-94
-93
-94
-95
-95
-96
-96
-96
-96
-96
-96
-95
-96
-96
-95
-95
-94
-95
-94
-94
-94
-93
-92
-92
-92
-92
-92
-91
-91
-91
-91
-91
-92
-92
-92
-91
-92
-93
-93
-93
-93
-93
-93
-93
-93
-93
-92
-92
-92
-91
-91
-91
-91
-91
-90
-89
-89
-90
-90
-90
-89
-89
-89
-90
-90
-90
-90
-90
-89
-89
-90
-90
-89
-90
-88
-89
-88
-89
-88
-88
-87
-87
-87
-87
-87
-87
-86
-86
-86
-86
-86
-86
-86
-85
-85
-85
-85
-86
-86
-86
-86
-85
-85
-85
-86
-85
-85
-85
-84
-84
-85
-85
-85
-85
-85
-85
-85
-86
-86
-86
-86
-86
-86
-87
-87
-86
-87
-87
-86
-87
-86
-87
-87
-87
-86
-86
-87
-87
-86
-87
-87
-86
-86
-86
-86
-87
-86
-86
-86
-86
-86
-86
-87
-86
-86
-86
-86
-86
-87
-87
-87
-86
-87
-86
-88
-88
-88
-88
-87
-87
-88
-88
-89
-88
-88
-88
-87
-88
-88
-88
-88
-88
-87
-88
-88
-88
-88
-88
-88
-88
-89
-89
-90
-89
-89
-88
-89
-89
-89
-89
-89
-89
-89
-88
-89
-89
-89
-89
-88
-88
-88
-89
-88
-88
-88
-87
-88
-89
-89
-89
-89
-89
-89
-89
-89
-90
-90
-89
-89
-89
-90
-91
