# Simple Text Format
# Sampling Rate (Hz):= 1200.00
# Resolution:= 12
# Labels:= ECG	 I 
# Age:=	66
# Gender:=	Feminino
209
208
208
207
207
206
206
206
206
206
206
206
205
205
206
206
206
205
205
204
204
204
203
203
202
200
198
196
195
193
192
190
189
187
186
185
184
183
183
183
184
185
187
189
193
196
201
207
213
221
228
236
246
255
266
277
288
299
312
324
337
348
360
370
381
391
400
408
416
421
425
428
429
429
428
425
421
415
408
401
392
383
373
363
351
341
330
318
307
296
285
274
264
255
247
238
230
223
217
210
205
200
195
191
187
184
181
177
174
172
169
167
166
164
162
160
158
157
155
153
152
151
149
148
147
145
144
143
142
141
141
140
140
139
140
140
140
141
141
141
142
143
144
146
148
149
151
154
156
158
161
163
165
167
170
174
176
178
181
183
186
189
191
194
195
198
199
201
202
204
205
206
208
209
210
211
211
211
211
211
212
212
213
213
213
214
213
213
213
213
213
213
213
213
213
213
213
213
213
213
213
213
213
213
214
214
214
214
214
215
215
215
215
216
216
216
216
216
216
217
217
217
217
217
217
218
217
218
218
218
218
219
218
218
218
219
219
219
219
219
219
219
219
219
220
219
219
219
219
220
221
221
220
220
221
221
221
221
221
221
221
221
221
221
221
220
220
220
220
221
220
220
220
220
220
220
221
222
222
223
223
223
224
224
224
225
225
225
225
225
225
226
225
226
226
227
226
226
225
226
226
226
227
228
228
228
229
230
230
231
231
232
233
233
234
234
235
235
236
236
237
237
238
238
238
239
239
240
241
240
241
242
242
242
244
244
245
246
246
247
248
249
250
250
251
251
253
253
253
254
256
256
257
257
259
260
260
261
262
263
264
265
266
268
268
269
270
272
273
274
275
275
277
278
278
279
280
281
282
282
283
285
285
286
286
287
288
288
289
290
290
291
291
293
293
293
294
294
295
294
295
296
297
297
298
298
299
299
300
300
299
300
299
299
299
298
298
297
296
296
294
294
292
292
291
289
288
287
286
285
284
282
281
280
279
278
277
276
274
273
272
271
270
269
268
267
266
264
262
262
260
258
257
257
255
255
253
252
251
249
247
246
245
245
243
243
242
240
239
239
238
237
236
236
235
234
233
232
231
231
231
231
230
230
229
229
228
228
227
226
225
226
225
225
225
225
225
224
224
223
223
223
223
223
223
223
223
222
222
221
221
220
220
219
218
218
217
217
216
216
215
215
215
215
214
214
214
214
213
213
213
213
212
213
213
212
212
212
212
213
213
213
213
213
214
214
214
214
215
214
215
215
215
215
215
215
216
216
216
216
216
215
215
216
216
216
216
217
216
216
217
216
216
217
217
218
218
218
219
218
218
219
218
218
218
217
218
218
218
218
219
217
217
217
218
216
216
216
217
217
217
216
216
216
216
216
216
216
216
216
216
215
215
214
214
214
215
214
214
214
213
214
214
214
214
214
214
214
214
214
215
214
215
215
215
215
215
215
214
215
214
215
214
214
214
214
214
214
214
214
213
213
213
214
213
213
213
213
214
214
214
213
214
214
214
214
214
214
214
214
213
214
212
212
212
211
211
211
211
211
211
211
210
209
209
209
209
209
209
209
209
209
209
209
209
209
209
209
209
209
209
210
209
210
210
210
210
210
210
210
209
210
209
210
210
210
210
210
210
209
209
210
209
209
209
209
209
210
210
210
210
211
211
211
211
211
211
211
211
212
212
212
213
213
213
214
214
214
214
215
215
215
215
215
215
214
214
214
213
213
213
213
213
213
213
212
212
212
212
212
212
212
212
212
212
212
212
213
213
212
214
213
214
214
214
214
214
214
214
214
214
214
214
215
215
215
214
214
214
213
212
213
212
213
213
212
212
212
211
212
212
211
212
211
211
211
211
211
211
210
210
211
210
210
210
210
210
210
210
210
210
209
210
210
210
211
211
211
212
211
211
212
211
211
211
211
211
211
212
212
212
212
212
212
211
211
211
211
211
211
211
212
212
211
211
210
210
210
211
211
211
211
211
211
211
211
212
212
211
211
211
211
212
212
212
212
213
212
212
212
212
211
211
211
211
211
211
211
211
211
211
211
210
210
211
211
210
210
209
209
209
209
208
208
208
208
207
207
208
207
207
207
206
206
206
207
207
207
208
209
209
209
210
210
210
211
211
212
212
212
212
213
213
212
212
213
212
212
212
212
212
212
211
211
210
210
209
209
208
208
207
208
207
208
207
207
208
208
208
208
208
208
208
209
209
208
209
209
209
209
208
208
208
208
209
208
209
209
209
209
209
209
209
209
209
209
209
210
210
211
210
210
210
211
210
210
210
209
210
210
210
210
210
210
210
211
210
210
210
210
211
211
210
211
211
212
212
211
212
212
212
212
213
213
212
213
213
213
214
214
215
215
216
216
217
217
218
219
219
220
221
223
223
224
225
226
226
226
227
227
228
229
230
230
231
230
230
230
230
230
230
229
230
229
228
228
228
226
226
226
225
225
225
223
222
223
222
222
222
222
222
222
222
223
223
223
223
222
223
223
222
223
223
222
221
221
221
220
220
219
218
217
216
215
215
214
214
213
211
210
210
209
209
208
208
208
207
207
207
207
207
207
206
206
207
207
208
207
207
207
207
208
208
208
207
208
207
206
206
206
206
207
206
206
206
206
205
205
205
205
205
205
206
206
206
206
206
206
206
206
206
205
206
206
206
206
206
206
206
206
206
205
206
206
205
206
205
205
205
205
204
203
203
202
201
200
199
198
197
196
193
192
190
189
187
185
184
182
182
181
180
180
180
181
182
184
185
188
191
195
200
205
211
217
225
233
242
250
261
271
281
292
302
314
325
336
346
356
366
374
382
390
395
399
403
404
405
405
403
400
396
390
383
376
368
358
348
339
328
318
308
298
287
277
267
257
249
240
234
225
220
213
207
202
197
193
189
185
182
178
175
172
170
168
166
163
162
159
158
156
155
153
152
150
149
147
146
145
143
143
142
140
140
139
138
138
138
137
136
137
138
138
138
139
140
141
142
144
146
147
149
151
152
155
157
158
161
163
166
168
170
173
175
177
179
181
183
185
187
189
191
192
194
195
196
198
199
200
201
202
202
203
203
203
204
205
206
205
206
206
206
207
206
207
207
207
208
208
208
208
209
209
209
209
209
209
210
209
209
209
210
210
209
210
210
210
210
210
210
210
209
210
209
210
210
210
211
211
211
211
211
211
212
211
212
211
212
213
213
213
213
213
213
213
213
213
214
214
214
214
215
215
215
215
215
215
215
216
216
216
216
217
216
216
217
216
216
217
216
216
216
215
216
215
215
215
215
215
215
215
216
216
216
217
217
218
218
218
219
219
219
221
220
221
221
222
222
222
222
222
222
222
222
222
222
222
222
222
222
222
222
223
222
222
223
224
224
225
225
226
227
227
228
228
229
229
229
230
231
231
233
233
234
234
235
235
236
236
237
237
238
238
238
239
239
240
241
242
243
243
243
244
245
245
246
247
248
249
250
252
252
254
255
255
257
258
259
260
261
262
263
265
266
266
268
268
270
272
273
274
274
276
277
278
279
280
281
281
283
283
284
284
285
285
286
286
286
287
288
288
288
288
289
289
289
289
290
289
289
289
290
290
290
289
289
290
289
289
289
288
288
287
287
286
286
286
285
284
283
283
282
282
281
280
279
279
277
277
276
275
273
272
270
269
268
266
265
264
262
260
259
257
256
254
253
252
251
250
249
248
246
246
244
244
244
243
242
241
241
241
241
240
239
238
237
237
236
236
235
235
234
233
233
232
231
231
230
229
228
227
227
226
225
225
224
223
222
222
221
221
221
221
220
220
220
220
219
220
220
220
220
220
220
220
220
220
220
220
220
220
219
219
219
219
219
218
218
218
217
217
217
217
217
217
218
217
217
217
218
218
218
218
218
218
218
218
218
218
218
218
219
219
218
219
219
219
219
219
219
220
220
220
220
220
221
221
221
221
221
221
221
220
220
220
220
220
220
221
220
220
220
219
220
220
220
220
219
219
219
219
219
219
219
219
219
219
219
219
219
219
219
219
219
219
220
219
219
220
220
220
220
220
220
220
221
220
221
221
220
220
220
220
221
221
221
221
221
221
221
221
221
221
221
222
222
222
222
223
223
223
223
224
223
224
224
225
226
225
225
225
226
226
226
226
226
226
226
226
226
226
227
227
226
227
227
227
227
227
228
228
228
228
228
229
229
229
229
230
229
229
229
229
229
229
229
229
229
229
229
229
229
228
229
228
227
227
227
228
227
229
228
229
228
228
229
229
229
229
229
229
230
230
230
231
231
230
232
231
232
232
232
232
233
232
233
233
233
233
233
233
233
233
234
233
233
233
233
233
234
234
234
234
233
234
234
234
234
234
234
234
234
234
235
235
236
236
237
237
237
237
238
239
239
238
239
239
239
239
240
240
240
241
240
240
240
240
240
240
240
240
239
239
238
238
238
239
238
238
238
238
238
237
238
237
237
237
238
239
238
239
239
239
240
240
241
241
241
241
241
241
242
241
241
241
241
241
241
240
241
241
241
241
240
240
240
240
239
239
240
240
240
240
240
240
240
240
241
240
241
240
241
241
241
241
241
242
242
243
243
242
243
243
243
243
243
243
243
243
244
243
244
244
243
243
242
242
242
241
242
242
241
241
241
240
240
239
239
239
239
239
239
238
238
238
238
238
238
239
238
240
239
240
241
241
241
242
242
241
242
242
242
242
242
242
241
241
241
240
239
240
239
239
239
239
239
239
240
239
240
240
239
239
240
240
241
241
241
242
242
242
243
243
243
243
243
244
243
244
243
244
244
244
244
244
244
244
244
244
244
244
245
244
244
244
243
244
244
244
244
244
244
244
243
243
244
244
244
244
244
244
244
245
245
245
245
245
245
245
246
245
245
246
245
246
245
246
245
245
244
245
245
244
245
244
245
245
245
245
246
247
247
248
247
248
248
249
250
250
250
250
251
252
252
253
253
254
254
254
255
256
256
256
257
257
258
258
259
260
260
260
261
261
261
261
261
262
262
262
263
262
262
262
261
261
260
260
260
259
259
259
258
257
257
256
256
256
257
256
257
257
258
257
257
257
257
256
257
257
257
257
257
257
256
256
255
255
255
253
253
253
253
252
251
251
250
249
248
248
248
247
246
246
246
247
246
245
245
246
245
245
244
245
244
244
244
243
243
243
243
242
242
242
241
241
241
241
241
241
240
240
239
239
239
238
239
239
239
240
240
240
240
239
240
240
240
240
239
239
240
240
239
239
239
239
241
241
241
240
241
241
240
240
241
241
241
241
241
242
242
242
242
241
240
238
238
237
236
235
232
231
229
228
227
224
223
222
220
220
220
219
219
219
220
222
224
225
228
232
235
240
245
252
258
265
273
281
289
299
307
318
328
337
348
358
369
378
387
396
405
411
418
423
428
430
432
433
432
430
427
423
418
412
405
397
388
380
370
361
350
341
330
321
311
303
294
287
278
271
265
258
251
246
240
236
231
228
224
221
217
214
212
210
207
205
204
201
200
198
197
195
194
192
191
190
189
188
186
185
184
183
182
182
181
180
180
180
180
180
180
181
181
182
182
183
184
186
186
187
190
191
192
194
196
198
200
202
205
206
208
210
212
214
216
218
221
223
225
227
228
230
232
234
235
237
239
240
242
242
244
245
246
246
247
248
248
248
249
250
250
250
250
249
249
250
250
250
250
250
249
248
248
247
247
248
247
247
247
247
247
247
247
248
247
248
248
249
249
249
250
250
250
250
251
251
251
252
252
252
252
252
253
252
252
252
253
253
253
253
253
253
254
254
254
255
255
255
255
256
256
256
256
256
256
256
256
256
257
257
256
256
257
257
257
257
257
257
257
257
257
257
258
258
257
258
257
258
258
258
259
259
258
258
258
257
257
257
257
257
258
257
258
257
258
258
258
259
259
259
259
259
259
259
260
260
260
261
261
262
262
262
262
262
263
263
263
265
265
265
265
266
266
267
267
268
268
269
269
270
270
270
270
271
271
272
272
273
274
275
274
275
276
277
277
277
278
279
280
280
282
282
283
284
285
286
287
287
289
290
290
291
292
293
294
296
297
297
297
298
299
301
302
303
304
304
305
306
306
307
308
308
309
309
311
311
312
313
314
314
314
315
316
316
317
318
318
319
319
319
320
321
321
322
322
323
322
322
323
322
322
323
323
323
323
323
323
323
323
323
323
322
322
321
321
320
319
319
318
318
317
316
315
315
314
312
312
311
310
310
308
307
306
305
304
303
302
300
299
297
296
295
294
292
290
289
287
285
285
283
282
280
279
277
275
274
273
272
270
270
268
268
267
266
265
265
264
264
264
262
262
261
260
260
260
259
259
259
258
257
256
256
255
255
254
254
253
252
252
252
251
251
251
250
251
251
251
250
251
251
251
250
250
250
249
250
249
249
250
250
249
249
248
248
248
248
247
247
247
247
247
246
247
246
245
246
246
245
246
246
247
247
246
245
245
245
245
244
245
245
245
244
244
244
243
244
243
243
243
243
243
243
244
243
244
244
244
244
243
244
244
245
245
245
245
245
245
245
246
246
246
246
246
245
245
245
245
245
245
244
244
244
245
245
245
244
244
244
244
244
244
244
244
244
245
245
246
246
245
245
245
245
245
246
246
246
246
246
246
246
245
245
246
245
245
246
245
246
245
245
246
245
245
246
245
246
246
246
246
246
246
245
246
246
246
246
246
246
246
245
245
246
246
246
245
246
245
245
245
245
244
245
244
245
245
245
245
245
245
245
245
245
245
246
246
245
246
246
247
247
247
248
248
248
248
248
248
248
248
249
249
250
251
250
252
251
251
252
251
252
252
252
252
251
251
251
251
251
251
251
251
250
251
250
250
249
249
249
249
249
249
248
249
249
249
249
249
249
250
250
250
250
250
251
251
250
250
251
251
251
251
251
251
251
251
250
250
250
249
249
248
248
248
248
247
247
247
247
247
247
247
247
248
247
247
248
248
248
248
249
249
250
250
250
250
250
249
249
250
250
250
250
250
249
250
250
250
250
250
249
250
250
250
252
252
252
253
253
253
254
254
254
253
254
254
253
254
254
253
254
253
253
252
253
252
251
252
251
252
252
251
251
250
249
248
249
248
248
248
249
248
249
249
248
248
248
248
248
248
249
249
249
249
248
249
249
249
249
250
249
250
250
249
249
249
250
249
249
249
249
250
250
249
249
249
250
249
250
250
249
249
250
249
249
250
249
250
250
250
250
250
250
250
249
249
250
249
249
250
249
249
249
249
248
248
249
248
248
248
248
248
248
248
248
248
247
248
248
247
247
248
248
248
248
248
247
248
248
248
248
248
249
248
248
249
248
249
249
249
249
249
249
249
249
249
249
250
250
250
251
250
250
250
250
250
250
250
251
251
251
251
251
251
251
251
250
250
250
250
250
250
249
249
248
248
248
249
248
248
248
248
248
248
248
247
248
248
249
248
249
249
249
250
250
251
250
251
250
251
251
251
250
251
251
251
251
251
251
251
251
250
251
250
251
250
250
250
251
251
251
251
251
252
252
252
253
253
254
254
254
255
255
256
256
256
258
258
258
259
259
260
260
260
261
262
262
262
263
263
264
264
265
265
264
266
265
266
267
266
267
267
267
267
267
267
267
267
267
267
267
267
267
266
266
265
265
265
265
264
264
263
263
263
264
262
263
262
262
262
262
261
261
260
260
260
260
259
259
258
257
258
256
256
255
255
255
253
253
252
252
251
251
250
250
250
249
249
249
248
248
248
247
247
247
247
246
247
246
246
247
247
247
247
247
246
247
247
247
247
247
247
247
247
247
247
246
246
246
247
247
247
247
246
247
246
247
247
247
247
247
247
247
247
247
247
247
247
247
247
247
246
246
246
245
245
245
244
244
243
243
242
242
242
242
241
240
240
240
238
238
237
236
235
233
232
230
229
227
226
225
224
223
222
221
221
220
221
222
223
224
227
230
233
237
241
247
253
260
268
277
286
296
305
317
328
339
351
363
374
386
397
408
417
426
434
442
448
452
455
457
457
455
454
450
444
439
432
424
415
406
396
386
376
365
353
342
332
322
312
303
294
285
277
270
263
256
250
244
240
234
230
226
222
219
215
211
208
206
204
201
199
197
196
193
192
190
189
186
186
184
183
182
181
181
180
179
179
178
178
177
177
177
178
178
178
179
180
180
181
183
184
185
187
188
189
191
193
195
198
199
202
205
207
209
212
215
218
220
224
226
228
231
233
235
237
240
242
243
245
246
248
249
250
251
252
253
254
255
256
255
255
256
256
255
256
256
256
256
256
256
256
255
256
255
255
255
255
254
255
254
254
254
254
254
254
254
255
254
255
255
255
255
254
255
255
255
255
256
255
256
256
256
256
258
258
258
258
259
259
259
259
260
260
261
262
262
261
262
262
262
262
262
262
261
262
262
262
262
261
261
261
261
261
262
262
262
263
262
262
263
263
263
264
264
264
264
265
265
265
265
265
265
266
266
267
267
267
267
268
267
268
268
268
268
268
269
269
269
270
269
269
270
270
270
270
269
269
269
270
270
270
270
270
271
271
272
271
272
273
273
273
274
274
275
275
275
276
276
277
277
278
278
278
279
279
279
280
280
281
282
282
282
283
283
285
285
287
287
288
289
290
290
291
292
293
294
294
295
296
296
297
298
298
299
301
301
301
303
304
306
306
307
309
310
312
313
314
314
316
316
317
318
319
320
321
322
322
323
323
324
325
325
325
326
327
328
328
329
330
330
332
333
333
333
334
334
335
335
336
336
336
337
336
336
336
336
336
336
335
335
334
335
334
334
333
332
331
331
331
330
330
329
329
328
327
325
324
323
322
321
320
319
318
317
316
315
314
312
311
310
309
308
307
305
304
302
301
300
299
298
297
296
294
293
292
290
288
287
285
284
283
282
280
279
278
278
276
275
274
273
271
271
270
269
269
269
268
268
267
266
266
265
265
264
264
264
263
263
262
260
260
260
260
259
259
258
257
257
257
257
256
256
256
255
256
256
256
255
256
256
256
256
256
256
256
256
256
255
255
255
255
255
254
254
254
253
253
253
253
253
253
253
253
253
253
253
253
253
253
253
253
253
252
252
252
253
252
252
251
251
250
251
250
251
250
250
249
249
249
249
249
250
250
251
251
251
251
252
251
252
252
253
253
253
254
254
254
254
254
254
254
254
254
253
253
253
253
253
253
253
253
252
252
251
251
251
251
251
251
251
251
251
251
251
251
251
251
252
251
251
252
252
252
252
252
251
251
251
251
251
252
251
252
251
251
251
251
251
251
250
251
251
252
251
252
252
253
253
253
254
253
253
253
253
253
254
254
254
253
254
254
253
252
252
252
251
252
252
251
251
251
251
251
251
251
250
251
251
251
251
251
251
252
253
253
253
253
253
253
253
254
253
253
254
253
253
253
253
253
253
253
254
253
253
253
253
253
253
253
254
254
255
255
255
255
255
255
255
256
256
256
256
256
256
256
256
256
257
257
257
257
256
257
257
257
257
257
257
256
255
256
255
255
255
255
254
254
254
254
255
254
254
254
254
255
255
255
254
255
256
256
256
256
256
256
256
256
256
257
256
256
255
255
255
255
255
255
254
253
253
253
253
252
252
252
252
251
251
251
250
251
251
251
251
252
251
251
251
251
251
251
252
252
252
252
252
252
252
252
252
252
252
252
252
251
251
251
252
252
251
251
252
251
251
251
251
252
252
252
252
252
251
251
251
252
252
252
251
252
252
252
251
251
251
251
251
250
250
251
250
251
250
250
250
250
250
250
250
249
249
249
249
249
248
249
249
249
249
249
249
249
250
249
249
249
250
250
250
249
250
250
250
250
250
250
249
249
249
250
250
250
250
250
250
250
250
251
251
250
250
249
249
250
249
249
249
249
249
250
250
250
250
250
250
250
250
250
250
250
251
250
250
250
250
250
249
249
249
249
249
249
248
249
249
248
248
248
248
249
249
249
250
250
249
250
250
251
251
251
252
252
251
251
251
250
251
251
251
251
251
251
252
251
251
251
251
252
252
252
252
252
252
252
252
252
252
252
252
252
253
252
252
252
252
252
251
251
251
251
252
251
251
251
251
251
251
251
250
250
249
249
250
250
250
250
251
251
251
251
251
252
251
251
252
251
252
252
253
252
253
253
253
253
253
253
253
253
253
254
254
254
253
253
253
253
253
253
253
253
254
254
254
255
255
255
255
254
254
255
255
256
256
256
257
257
257
258
259
259
260
261
262
263
263
264
265
265
267
267
268
269
269
270
270
271
272
272
272
272
272
272
272
273
272
272
272
271
271
271
271
271
270
270
270
268
268
268
267
267
267
267
266
266
266
266
266
265
265
264
264
263
263
262
262
262
262
261
260
261
260
260
259
258
258
258
257
257
257
257
257
256
255
256
256
254
254
254
253
253
253
252
252
252
252
252
251
251
250
250
250
249
249
249
249
248
248
248
248
248
248
248
248
248
248
248
249
249
248
248
249
249
248
248
248
248
247
248
248
248
248
247
247
247
247
247
247
247
246
246
246
246
246
246
245
246
246
246
246
245
245
245
245
245
244
244
244
243
242
242
241
239
238
237
235
234
233
230
229
227
226
224
223
221
220
219
219
219
219
221
222
225
227
231
235
239
245
251
259
267
275
285
295
306
318
329
341
353
365
377
389
401
411
421
430
438
445
451
455
458
460
459
458
455
451
446
439
431
423
414
404
393
382
371
360
348
338
326
316
306
296
288
279
272
264
257
251
245
239
235
230
226
222
218
214
212
209
207
205
202
200
198
196
194
192
190
188
187
186
184
183
182
181
179
178
178
177
176
175
174
174
173
174
174
174
174
175
175
176
177
179
180
181
183
185
187
189
191
193
195
198
201
203
206
208
210
212
215
217
220
222
225
227
229
231
233
235
236
237
238
239
240
241
241
242
243
243
243
244
244
245
245
244
245
245
245
245
245
245
246
246
246
245
246
246
246
246
246
246
246
247
247
246
247
247
249
249
249
250
249
250
250
250
251
251
252
252
253
253
253
253
253
253
252
252
252
251
251
251
251
250
250
250
250
249
248
248
248
248
249
249
249
250
250
250
251
251
251
252
252
252
252
253
254
254
253
253
253
252
252
253
253
252
252
252
251
252
252
252
251
252
252
251
252
253
253
253
253
254
254
254
254
254
254
254
254
254
254
255
255
255
255
255
256
255
255
256
256
257
257
257
258
259
259
259
260
261
261
261
262
262
262
263
264
265
265
265
265
266
267
267
267
268
268
269
269
269
270
271
271
272
272
273
273
275
275
276
277
277
279
279
279
280
281
282
283
283
285
285
286
286
287
288
289
290
291
292
292
293
294
294
295
296
296
297
298
299
299
300
300
301
301
302
303
305
305
306
308
309
310
312
313
315
316
317
318
320
320
322
323
325
325
326
327
328
328
328
328
329
329
329
329
328
328
328
327
328
327
327
327
326
326
325
325
324
324
322
322
321
320
320
319
318
318
317
316
315
314
314
312
311
311
309
308
307
306
305
303
302
301
300
298
297
295
294
293
292
290
289
287
286
285
284
283
282
281
280
279
278
276
276
274
273
272
271
270
270
268
267
266
265
265
263
262
262
260
261
260
259
259
258
258
257
256
255
255
254
254
254
254
254
253
254
253
253
254
253
253
252
252
252
252
251
251
251
250
249
249
248
248
248
246
246
245
245
244
243
243
243
243
242
243
242
243
243
242
242
242
243
243
244
244
244
244
244
245
244
245
245
244
245
245
245
245
245
245
245
245
244
243
243
243
242
243
242
242
242
242
242
242
242
242
242
242
242
242
242
242
242
242
242
243
242
243
243
244
243
243
244
244
244
243
243
243
243
243
243
243
243
242
242
242
241
242
242
241
241
241
241
241
240
240
240
240
240
241
240
240
240
240
240
240
240
240
239
240
239
239
240
240
240
240
240
239
239
239
239
239
239
239
239
239
238
239
239
239
239
239
240
240
240
240
241
241
241
241
242
241
242
242
242
242
242
243
242
243
243
243
243
243
242
241
241
240
241
240
240
240
240
240
240
240
240
240
240
240
240
241
241
241
242
242
242
243
243
243
243
243
243
243
243
243
243
243
244
243
242
242
243
243
243
243
243
242
242
241
242
241
241
240
241
241
240
241
240
240
240
239
239
240
240
240
240
240
241
240
241
242
241
242
243
242
243
243
243
243
243
244
244
244
244
243
243
243
243
243
243
243
242
242
242
242
242
241
242
242
242
242
241
241
241
241
241
241
241
241
240
240
240
240
240
240
240
240
240
240
240
241
240
240
240
240
240
240
240
241
241
240
241
241
241
241
241
240
240
240
239
239
239
239
239
239
239
239
238
239
238
238
239
238
239
238
239
239
240
240
240
241
240
241
241
241
241
241
242
241
241
241
241
240
240
241
241
240
240
239
239
239
239
239
238
238
238
238
238
239
239
239
238
239
239
238
239
239
238
239
239
239
238
238
238
237
237
237
235
236
235
235
234
235
235
235
235
235
235
235
235
236
236
237
237
238
238
238
239
239
239
239
239
239
240
240
239
240
240
239
239
238
239
238
238
239
238
238
237
238
237
236
237
236
236
236
235
235
235
234
234
234
234
234
234
234
234
234
234
235
235
235
235
235
235
235
236
236
237
236
237
237
237
236
236
237
236
237
237
237
236
236
236
237
237
236
237
236
235
236
235
236
236
236
236
236
236
236
237
237
236
237
237
236
237
237
237
237
238
238
238
237
238
238
238
238
238
239
239
239
240
240
240
241
241
242
242
242
243
243
244
244
245
245
246
247
248
248
248
250
250
251
251
252
252
252
254
254
255
256
256
256
256
256
256
256
256
257
256
257
256
257
256
256
255
255
255
255
255
254
253
253
253
252
252
252
252
252
252
251
251
252
251
251
251
251
250
250
250
250
250
249
249
249
249
249
249
248
248
247
246
245
245
244
243
243
242
241
241
241
239
239
239
239
239
238
238
238
237
237
236
236
236
236
235
236
235
235
235
235
234
234
234
234
234
233
233
232
232
232
233
232
233
233
233
233
234
233
233
234
234
234
234
234
234
235
235
235
235
236
235
235
235
235
234
234
235
234
234
235
235
235
234
234
234
234
233
234
233
233
232
231
230
230
229
227
226
225
223
221
220
218
216
215
213
211
210
209
207
207
206
206
206
207
208
210
212
214
217
221
225
231
237
244
252
261
270
279
288
299
311
321
334
345
358
370
381
392
402
412
421
429
435
441
445
448
449
448
447
445
440
435
428
420
412
402
392
382
370
359
349
338
327
316
305
296
286
277
269
261
254
246
240
234
228
224
218
214
210
206
203
200
197
195
192
189
187
185
183
181
179
178
177
175
173
172
171
169
167
166
165
164
163
162
161
160
159
159
158
158
159
159
160
161
161
162
164
166
167
169
171
174
176
178
181
183
187
188
192
195
197
200
202
205
207
210
212
214
216
217
219
221
223
225
226
228
228
229
231
231
232
232
233
233
233
233
233
234
234
234
234
234
234
234
234
234
235
235
235
236
236
236
236
236
237
236
236
237
237
237
237
238
237
238
238
238
238
238
238
238
238
238
238
238
237
238
239
238
238
239
239
238
239
238
239
238
238
238
238
237
237
237
237
237
238
237
237
237
237
238
238
238
238
239
239
238
239
239
239
239
239
239
240
239
239
240
240
241
241
241
241
241
242
242
242
242
242
243
244
243
244
244
244
243
243
244
243
243
243
243
244
243
244
245
245
244
245
245
246
247
247
247
248
248
248
248
248
249
249
250
249
250
250
249
250
250
250
251
251
251
252
252
251
252
252
253
253
253
255
255
255
255
256
257
257
257
258
259
259
260
260
261
262
262
263
264
264
265
266
266
268
268
269
270
272
272
273
273
274
275
276
277
278
280
280
282
282
283
285
286
286
288
289
290
292
292
293
294
295
296
297
298
298
299
300
301
302
303
303
304
304
305
306
307
308
309
309
310
311
311
313
313
314
313
314
314
315
315
315
315
315
315
315
315
315
315
314
314
313
313
313
312
311
310
310
309
308
308
307
306
305
303
303
301
300
300
298
297
295
294
293
292
291
289
288
287
286
284
283
281
280
278
277
276
275
273
272
271
269
269
267
266
264
263
262
261
260
260
259
258
257
256
255
253
253
252
251
250
249
249
248
247
247
246
246
245
244
243
242
242
240
240
240
239
238
237
237
237
236
236
235
234
234
233
232
232
232
232
231
230
230
230
229
230
229
229
228
228
228
227
227
226
225
225
225
226
225
225
224
224
223
224
223
223
223
223
223
223
223
223
223
223
223
224
223
223
223
223
222
223
223
223
223
223
223
224
224
224
224
224
224
224
225
224
225
224
224
225
225
225
225
226
225
225
225
224
224
225
225
225
225
225
225
225
225
226
226
227
227
227
227
227
227
228
228
228
228
227
228
227
227
227
227
226
226
227
227
227
226
226
226
225
226
225
226
225
225
225
225
225
225
224
224
223
223
223
223
222
223
223
223
223
223
223
223
222
223
223
223
223
223
224
224
225
225
225
225
225
225
225
225
225
226
226
226
225
226
225
226
226
226
225
226
225
225
226
226
226
226
226
226
226
226
226
226
226
226
226
226
226
225
225
225
225
226
225
225
225
225
225
226
226
227
226
227
227
228
228
228
228
229
229
228
229
229
229
229
230
230
230
230
230
230
231
231
230
231
231
231
230
231
231
231
231
231
231
231
231
230
230
230
230
230
231
230
231
231
230
230
230
230
230
231
230
230
230
230
230
230
230
230
230
231
230
230
229
229
229
230
229
229
229
228
228
228
228
229
228
228
228
227
227
228
227
227
227
227
227
227
227
227
227
227
227
227
227
227
226
226
226
226
226
227
227
226
226
226
226
226
226
226
227
226
226
227
227
226
227
227
228
228
228
228
228
227
227
227
227
228
227
227
227
227
228
228
228
228
228
228
229
229
229
229
229
229
229
229
228
228
229
229
228
228
228
227
227
226
226
226
226
226
225
225
225
225
224
224
225
225
225
225
225
225
225
225
225
226
225
225
225
225
225
225
225
225
224
224
225
225
225
224
224
225
225
225
226
226
226
226
227
228
228
229
229
229
228
228
229
229
228
229
229
229
228
228
229
228
228
228
228
228
228
227
227
226
227
226
226
226
226
226
226
226
226
226
226
227
227
226
226
227
228
227
228
228
228
228
228
228
228
228
228
228
228
228
227
227
227
226
227
227
227
227
227
227
227
227
227
227
226
227
227
227
228
228
229
228
229
229
229
229
229
230
229
230
230
230
230
230
231
230
230
230
230
230
230
230
230
231
230
231
230
230
230
230
230
230
230
230
230
231
231
231
231
231
232
231
232
232
232
232
232
233
234
234
234
234
235
236
236
237
237
238
239
240
241
242
243
244
244
244
246
247
248
248
249
249
251
251
251
251
251
251
251
251
251
251
251
251
250
249
250
249
248
249
248
247
247
246
246
245
244
244
244
243
243
242
241
241
240
239
239
239
239
238
237
237
237
236
236
235
234
234
234
234
233
233
232
232
231
231
231
230
231
229
229
229
228
228
228
228
227
227
226
226
226
226
226
225
225
226
225
225
225
225
225
225
225
224
224
225
224
224
224
224
224
223
223
223
223
224
223
223
223
223
223
223
224
224
224
223
223
223
223
223
223
224
223
223
223
223
223
223
223
223
223
223
222
223
223
222
222
221
221
221
221
220
220
219
217
215
215
213
211
210
208
207
205
203
201
199
197
196
194
193
192
192
193
193
193
196
198
201
205
209
215
220
227
236
244
254
264
274
285
297
309
321
334
347
359
372
384
395
405
415
424
431
437
442
445
447
447
445
443
439
434
428
421
412
403
393
383
372
361
350
338
327
316
305
294
285
274
265
257
249
240
234
227
220
215
210
205
201
197
193
189
186
183
181
178
175
173
171
170
167
166
164
162
161
159
158
156
154
152
151
149
148
147
146
145
145
144
143
143
144
144
145
145
146
147
149
150
152
154
156
158
160
162
165
167
170
172
176
178
182
184
187
190
193
196
199
200
203
205
207
209
210
213
214
216
217
217
219
219
220
221
221
221
222
222
221
222
222
221
221
222
221
222
223
223
223
223
223
223
223
223
224
224
224
224
225
225
225
225
225
225
225
225
226
225
225
225
225
224
224
224
224
224
224
224
224
224
224
224
224
225
224
224
224
224
225
225
225
226
226
225
226
226
226
227
227
227
227
227
227
228
228
228
228
228
229
228
228
228
228
229
229
229
229
229
228
229
229
230
230
229
230
230
230
230
231
231
231
231
231
230
230
230
230
229
229
229
230
231
231
230
231
231
231
231
231
232
232
233
234
234
234
235
235
235
236
236
236
237
237
237
236
236
236
237
237
237
237
238
238
239
238
240
240
240
240
241
242
243
243
244
246
246
247
248
248
248
249
250
250
251
252
253
253
254
254
255
256
257
258
259
259
259
261
261
263
264
264
266
267
268
269
270
270
271
272
273
274
275
276
277
278
278
279
281
281
281
283
284
284
286
286
286
288
289
289
290
291
292
293
293
294
294
294
296
296
297
298
298
299
299
300
301
301
301
302
302
303
303
303
302
302
303
302
302
301
301
300
300
299
298
298
298
296
295
295
294
293
293
292
291
290
289
287
286
285
284
283
282
280
280
278
276
275
274
272
271
270
269
268
266
265
264
263
262
261
259
258
257
256
254
253
252
251
250
249
249
247
247
245
243
242
241
240
239
238
237
237
235
235
234
233
233
232
231
230
230
228
228
228
227
227
225
225
224
224
223
223
223
222
222
222
221
221
220
220
220
220
219
220
219
219
218
218
218
218
217
217
216
216
216
216
215
215
214
214
213
213
213
212
212
212
212
211
212
212
211
211
212
211
212
211
211
212
212
212
213
213
213
213
214
214
215
215
215
215
215
215
215
215
215
215
215
214
214
213
213
213
213
213
213
213
213
213
212
212
212
212
212
213
212
213
213
213
213
213
213
214
213
214
213
213
213
213
212
213
212
212
212
212
213
212
212
212
212
212
213
213
213
213
213
213
213
213
213
213
213
213
213
212
212
211
211
211
211
211
211
211
211
211
211
210
210
210
211
210
210
210
211
211
212
212
212
212
212
212
213
213
213
213
212
212
212
212
213
212
212
212
211
211
211
211
210
210
210
209
210
210
209
209
210
210
210
210
211
210
210
210
210
211
211
212
211
211
212
212
212
212
212
212
212
212
212
212
211
211
210
211
211
210
210
210
210
210
210
210
210
210
209
209
209
210
209
209
210
210
210
210
209
210
210
210
210
210
210
210
210
210
210
210
210
210
210
210
211
210
210
210
209
209
209
209
209
209
208
209
209
209
209
208
209
208
208
209
209
209
209
209
210
211
212
211
211
212
212
212
212
212
212
213
212
212
211
212
211
211
211
210
210
209
209
209
209
208
207
208
208
207
207
207
207
207
207
207
207
208
207
207
207
207
207
207
207
207
207
207
206
207
207
207
206
206
206
206
205
205
205
206
206
206
206
206
206
206
207
207
208
208
208
208
208
208
208
208
207
208
207
207
207
208
207
207
206
207
206
206
206
206
206
207
206
206
206
206
207
206
207
207
207
207
207
206
207
206
206
206
206
206
206
206
205
206
206
205
205
205
204
204
203
202
202
202
202
202
202
202
201
201
200
200
200
200
200
201
202
201
202
202
202
202
202
202
203
203
202
203
203
203
203
203
203
204
204
204
204
204
203
203
203
202
202
202
202
202
202
201
202
202
201
201
201
201
201
200
201
201
201
201
201
201
201
201
202
202
201
202
202
201
201
202
202
202
202
201
202
202
202
201
201
201
201
201
201
200
201
200
200
200
200
200
200
199
200
199
200
199
199
199
199
198
199
199
199
199
199
199
199
200
199
200
200
200
200
200
201
200
201
201
202
204
204
204
205
205
205
206
208
209
209
210
211
211
212
213
213
213
214
214
214
215
215
215
216
215
215
215
215
215
215
214
214
214
213
214
214
214
214
214
213
213
212
212
212
212
211
210
211
210
211
211
210
210
210
210
209
208
208
207
207
206
206
205
204
203
202
202
201
200
199
199
197
197
196
195
195
193
193
192
192
192
192
191
191
192
191
191
191
191
192
192
191
192
192
192
192
192
192
191
191
191
191
191
191
191
190
190
190
190
189
189
189
188
187
187
187
187
188
187
187
187
188
187
187
187
187
187
187
187
186
186
186
186
187
186
186
186
187
186
186
186
186
185
185
184
185
184
183
183
182
182
181
179
177
176
175
174
172
170
169
168
166
164
162
161
160
159
158
158
157
158
158
159
161
162
164
167
171
175
180
186
193
200
208
216
226
235
245
256
267
278
289
300
312
323
333
343
352
361
368
375
380
384
387
388
388
386
384
380
376
369
363
354
346
337
327
316
306
295
284
274
263
252
243
233
225
216
209
201
194
188
182
176
172
167
163
159
156
152
149
146
144
142
140
137
135
133
132
129
128
126
125
123
121
120
118
117
116
115
115
114
112
112
112
112
111
111
111
111
112
113
113
115
116
118
118
119
121
123
124
126
128
130
132
134
137
139
141
143
145
147
150
152
154
156
158
160
162
164
166
168
171
172
173
175
175
177
178
179
179
181
180
181
182
182
182
182
182
182
182
182
182
181
181
181
181
180
181
181
181
181
181
181
181
181
181
181
182
181
182
182
183
183
183
183
183
183
183
183
183
182
183
182
182
183
183
183
183
184
184
184
184
185
185
185
186
186
186
186
187
187
186
187
187
187
186
186
186
186
186
186
185
186
186
186
186
186
186
186
186
186
186
187
187
186
186
186
186
186
186
186
186
187
187
187
187
188
188
187
187
188
187
188
188
189
188
188
188
188
188
188
188
188
188
188
187
187
188
187
188
188
189
189
189
190
190
190
190
190
191
192
192
193
193
193
193
194
194
195
195
195
196
196
196
197
197
198
198
198
198
199
200
199
201
200
201
201
202
203
203
203
204
204
204
205
206
207
207
208
209
209
210
211
212
213
214
215
216
217
217
219
219
221
222
222
223
224
225
226
226
228
228
229
230
231
232
232
233
234
235
236
236
237
238
238
239
239
240
240
241
241
242
243
243
243
244
245
246
246
247
248
249
248
248
249
250
250
249
250
250
250
250
249
249
249
248
248
248
247
246
245
245
244
244
243
243
242
241
240
239
238
237
237
235
234
233
232
230
229
228
227
226
225
224
223
222
220
219
218
216
216
214
214
213
212
211
209
209
208
207
205
204
202
202
201
200
198
196
195
194
193
192
192
190
190
189
187
186
185
185
184
183
182
182
181
180
180
179
178
178
178
178
177
177
176
176
175
174
174
173
173
173
172
171
171
172
171
170
169
170
169
169
169
170
169
169
169
170
169
169
168
168
169
169
168
169
168
168
168
168
168
168
167
167
167
166
166
166
167
165
165
166
165
166
165
165
165
165
166
166
166
165
165
165
165
165
166
165
165
166
166
165
166
166
166
166
166
165
165
165
165
165
165
165
165
164
163
164
163
163
163
163
162
162
162
162
162
162
162
162
162
162
163
163
162
162
162
163
163
163
163
163
163
163
163
162
162
162
162
161
161
162
160
161
160
160
160
160
160
160
160
160
160
160
161
161
161
161
161
161
162
162
162
162
163
162
162
162
162
162
162
163
162
162
162
162
162
162
162
162
162
162
162
162
162
161
161
161
161
161
161
161
160
160
161
161
161
160
161
161
161
161
161
161
161
162
162
163
163
163
163
163
163
163
164
163
164
164
164
164
163
163
163
162
162
163
162
162
163
162
162
162
161
161
161
160
160
160
159
159
160
160
159
160
160
160
161
160
160
160
161
162
163
163
164
164
164
164
164
165
164
165
165
165
165
165
165
164
163
163
162
162
162
161
162
161
161
160
161
160
161
161
161
161
162
161
162
162
163
162
162
162
163
163
163
163
163
162
162
161
161
161
160
160
159
159
159
159
159
159
159
158
159
159
159
159
159
160
159
160
160
160
160
160
160
159
159
160
160
160
161
160
160
159
160
159
159
160
159
159
159
159
159
158
159
159
159
158
159
159
159
158
158
158
157
157
157
156
156
156
155
155
155
155
155
155
155
154
154
154
154
154
154
154
154
155
155
155
155
155
156
156
156
156
157
157
156
156
156
156
156
156
156
156
156
156
156
156
155
155
155
155
154
154
155
154
154
155
154
154
153
153
153
153
153
153
154
154
154
154
154
154
154
154
154
154
155
155
155
155
155
155
155
155
155
155
154
154
154
154
154
154
154
154
154
154
154
153
154
154
154
154
155
155
155
154
155
155
155
155
155
155
155
155
155
155
155
155
155
155
155
155
155
155
155
155
155
155
156
155
155
155
155
155
156
155
156
156
155
155
155
156
155
155
156
156
156
156
157
157
156
157
157
158
158
158
159
159
160
160
161
160
161
162
162
162
163
163
164
164
164
164
165
165
166
166
167
167
167
168
168
168
169
169
169
170
170
169
169
169
168
168
167
167
166
165
164
164
163
163
162
161
161
161
161
160
159
159
160
159
159
159
158
159
159
159
158
159
159
158
158
158
157
157
156
156
155
155
154
153
152
153
152
151
151
150
149
149
149
149
149
149
148
148
147
147
147
146
147
146
146
146
146
147
146
147
146
147
146
146
146
146
146
145
146
145
146
146
145
146
146
146
145
145
145
145
144
145
145
145
144
144
144
144
144
143
144
143
143
143
143
143
142
141
141
142
142
141
142
141
141
141
141
141
140
140
139
139
138
137
137
136
135
134
132
130
128
127
126
125
124
123
124
124
123
123
124
125
126
129
132
134
138
143
149
154
161
168
177
185
193
202
212
222
232
242
252
262
272
281
291
299
306
312
318
322
324
326
326
325
322
319
315
309
303
295
287
278
268
259
248
238
229
219
209
201
192
184
176
168
161
154
148
143
138
133
129
125
123
119
116
114
111
109
107
105
104
102
100
99
98
96
95
94
93
92
91
90
89
88
87
85
85
84
83
82
80
80
79
79
78
77
78
78
77
78
79
79
80
81
82
84
85
87
88
90
92
94
97
99
103
105
107
109
112
115
116
119
121
123
125
127
128
129
130
132
133
134
135
136
136
136
137
137
137
138
137
138
138
138
138
138
139
139
139
140
140
140
140
140
141
142
142
142
143
143
144
143
144
145
145
145
145
145
146
145
146
147
147
147
148
148
147
147
148
148
148
147
148
148
149
148
149
148
148
148
147
147
148
148
148
147
148
147
147
146
146
147
146
146
146
146
146
146
147
147
147
146
147
147
147
147
147
147
147
147
147
148
147
148
148
148
147
147
148
147
147
147
147
147
148
148
148
149
149
149
150
150
151
151
151
153
153
153
154
154
154
154
155
155
155
155
154
155
155
155
155
154
155
155
155
155
155
156
156
156
157
157
158
158
159
159
159
160
161
161
162
162
162
163
164
164
164
164
165
165
167
167
167
168
168
169
170
170
171
172
172
173
174
175
175
177
176
178
178
178
180
180
181
182
183
183
184
186
186
187
188
188
189
189
190
192
192
193
194
195
196
196
197
198
199
199
199
200
201
201
203
203
203
204
205
205
205
206
207
207
208
209
209
209
210
210
210
210
211
211
211
212
212
212
212
212
213
213
214
214
214
214
214
213
213
212
212
211
212
211
212
211
210
210
209
208
207
206
205
204
203
201
201
199
198
197
196
194
194
192
191
189
187
187
186
184
183
182
181
180
179
178
177
177
175
174
173
172
172
170
170
169
168
167
166
165
164
163
163
161
160
160
159
158
156
156
155
154
153
152
152
151
150
149
149
148
148
148
146
146
145
145
144
144
144
143
143
143
143
143
142
142
141
140
140
141
140
141
141
141
141
142
141
141
142
141
142
142
142
142
143
142
142
142
142
141
140
140
140
140
140
139
140
139
139
138
138
139
139
139
139
139
139
140
140
140
140
140
140
140
140
140
139
139
139
139
139
139
139
139
138
138
138
137
137
136
136
136
136
136
137
137
136
136
136
136
136
136
136
136
136
136
137
137
137
137
138
138
138
138
138
137
138
138
138
138
137
137
137
137
138
137
136
137
137
137
137
136
137
137
137
137
138
138
137
138
138
139
139
139
139
138
139
139
139
139
139
139
138
138
138
138
139
138
139
139
138
138
138
138
138
138
138
139
138
138
139
139
139
139
139
138
138
138
139
139
138
138
138
139
139
138
139
139
139
140
140
140
140
140
140
140
141
141
141
141
141
141
140
140
140
140
140
140
140
140
140
140
139
139
139
139
139
139
139
139
139
140
140
140
140
141
141
141
141
143
143
143
143
143
143
144
145
145
144
145
144
144
145
145
145
145
146
146
145
146
146
145
145
145
145
145
145
145
145
145
146
145
145
146
146
145
145
145
145
144
145
145
145
145
145
145
146
146
145
145
146
146
145
145
146
145
145
145
146
146
146
145
145
145
146
145
145
145
144
144
144
144
144
144
144
143
143
143
142
142
142
142
141
141
141
141
142
142
142
142
142
142
142
141
141
142
142
143
144
144
144
144
144
144
146
145
146
147
147
147
147
147
147
147
148
147
146
146
147
147
147
146
146
146
145
144
145
144
144
144
144
144
143
143
143
143
142
142
142
142
142
142
142
142
141
142
142
141
141
140
141
141
141
141
141
141
141
141
142
142
141
141
141
141
141
141
142
142
142
142
142
141
141
141
141
140
141
141
140
140
140
140
140
140
140
140
140
140
141
141
140
140
141
141
141
140
141
141
141
142
142
142
142
142
142
142
142
143
142
143
143
143
143
143
143
143
144
144
143
143
143
143
143
142
143
142
142
141
142
142
142
142
142
142
143
142
142
142
143
143
144
144
144
145
145
146
146
146
146
146
145
146
146
146
147
146
146
146
145
145
144
145
144
145
144
144
144
144
144
144
143
144
145
145
146
147
146
146
147
148
148
148
149
149
150
151
151
151
152
153
153
153
153
154
155
155
156
156
156
156
157
157
157
158
158
159
160
159
159
159
158
158
158
158
158
158
158
157
156
156
156
155
155
154
154
154
153
153
154
154
153
153
154
154
153
154
153
153
153
153
154
154
154
154
154
153
153
153
152
152
151
150
150
149
148
148
147
147
146
146
146
145
144
143
143
142
143
142
142
142
142
142
142
141
141
141
140
140
140
140
139
139
139
139
139
138
139
139
138
138
139
139
139
138
139
138
139
139
139
139
139
139
138
138
138
138
137
137
138
138
137
137
137
137
137
137
136
137
138
138
138
138
138
138
138
138
138
139
139
139
138
138
138
137
136
136
136
135
134
133
131
131
129
128
127
125
124
124
122
120
119
118
118
117
118
119
119
120
122
125
127
130
134
139
145
151
158
166
174
183
192
203
213
223
234
245
256
266
277
287
296
305
313
320
326
330
333
336
336
335
333
330
325
320
313
306
297
288
278
269
258
248
237
227
217
208
199
189
180
171
164
157
151
144
139
133
129
124
120
116
113
110
106
104
102
99
98
96
94
93
91
90
88
88
86
85
84
82
81
81
79
79
78
77
77
77
77
76
76
76
76
76
76
77
78
78
79
80
81
83
84
85
87
88
89
91
93
95
98
100
102
105
108
110
112
115
117
119
121
123
126
127
130
131
132
134
135
136
137
138
139
140
140
141
141
141
141
141
142
142
142
143
143
143
144
143
144
144
143
144
144
144
144
144
145
145
144
144
144
144
144
145
145
145
145
146
145
145
145
145
145
145
145
146
145
145
146
145
146
147
146
146
146
146
146
147
147
147
147
148
148
148
148
148
148
148
148
148
149
148
148
148
148
148
148
149
149
149
149
149
149
149
149
149
149
149
149
150
150
150
151
151
151
151
151
152
151
151
151
151
151
152
152
153
153
153
154
154
154
154
155
155
154
154
155
155
156
156
155
155
155
156
156
156
156
156
156
156
157
157
157
158
158
159
160
160
161
161
161
162
163
163
163
163
164
164
164
165
165
165
166
167
167
167
167
168
169
169
170
170
171
171
172
172
173
173
175
175
176
176
177
178
179
179
180
180
181
182
183
183
184
186
186
187
187
188
189
189
191
192
193
193
195
196
198
199
200
200
201
202
202
204
204
206
207
208
209
210
211
212
212
213
213
215
216
216
217
218
219
219
220
220
220
221
222
222
221
221
222
222
222
222
222
222
222
222
221
221
221
220
220
220
219
219
219
219
218
217
216
216
215
215
214
213
213
212
211
209
209
207
206
204
203
202
200
199
197
197
194
193
192
191
189
188
186
186
184
183
182
180
179
178
178
177
175
175
174
173
172
171
171
170
169
168
168
167
166
165
164
163
163
162
161
161
160
160
158
158
157
157
157
156
156
155
155
154
153
153
153
152
151
151
150
150
149
148
148
147
147
147
146
146
146
146
145
145
145
145
145
146
146
146
146
146
146
145
146
146
146
147
147
147
147
147
147
146
147
147
146
147
147
146
146
146
146
146
146
146
146
146
146
145
145
145
145
145
145
144
145
144
144
144
145
145
145
145
145
145
145
145
145
145
145
145
145
145
144
144
144
144
143
143
144
144
144
144
144
145
145
145
146
146
147
148
149
149
150
150
150
150
151
151
150
150
150
150
150
150
150
149
149
149
148
148
148
148
147
147
148
148
148
148
147
147
147
146
146
146
146
146
146
146
146
145
145
145
145
145
146
146
147
146
146
146
146
147
147
147
148
147
147
147
147
147
147
147
147
147
147
146
147
147
146
146
146
146
146
146
146
146
146
146
146
146
147
147
148
148
148
149
149
149
149
150
150
150
151
151
152
152
152
152
153
153
152
153
153
153
153
153
153
153
153
153
153
153
152
152
152
152
152
152
152
151
151
151
151
151
150
150
150
150
150
150
150
150
150
150
150
151
151
151
151
151
151
151
152
151
151
151
151
151
151
151
153
152
152
152
153
152
152
152
152
153
153
152
152
152
152
152
153
153
153
153
153
153
154
153
154
154
154
154
154
154
154
154
155
155
155
155
155
155
155
155
155
155
155
155
155
155
156
156
156
155
155
156
155
155
155
154
154
155
155
155
155
155
154
154
155
154
154
155
155
155
155
155
155
155
156
156
156
155
156
156
156
156
156
156
156
156
156
156
156
156
156
156
156
156
155
155
155
155
155
155
155
155
155
155
155
155
155
155
155
155
155
155
155
155
156
156
156
156
157
157
157
157
157
157
157
157
157
158
158
158
158
158
158
158
158
157
157
157
157
157
157
157
155
156
155
156
157
156
156
156
156
156
156
156
156
156
156
156
157
157
157
157
157
158
157
158
158
158
158
157
157
158
158
158
158
158
158
158
158
158
158
158
159
159
159
159
159
159
159
159
158
159
159
159
158
159
159
159
159
159
159
159
159
159
159
159
159
159
159
159
160
159
159
159
159
159
159
159
159
159
159
158
158
158
159
159
160
160
160
160
159
160
160
161
160
161
161
160
160
160
159
159
159
159
158
159
158
158
158
157
157
157
157
157
157
158
157
158
159
158
159
159
159
160
160
160
159
160
160
160
160
160
160
160
160
160
160
160
161
161
162
162
162
163
163
164
166
166
167
168
168
170
171
171
172
173
173
175
175
176
177
177
177
178
178
178
178
178
178
178
178
178
178
178
178
177
177
177
177
176
176
175
175
175
174
174
174
173
173
172
172
172
171
171
170
171
170
170
170
169
170
170
170
169
169
169
169
168
169
168
168
168
167
167
166
165
165
164
163
162
162
161
161
160
160
160
159
159
158
158
157
157
158
158
157
157
158
158
157
157
157
157
158
158
157
158
158
159
159
159
159
159
159
159
159
158
158
158
158
158
158
157
157
157
157
157
156
156
156
156
156
156
156
156
155
155
155
155
155
155
155
155
155
156
156
156
156
156
156
155
154
155
155
154
154
154
153
153
152
151
150
148
147
145
143
142
141
139
138
136
134
133
131
130
130
129
129
130
130
132
133
136
139
143
147
152
157
163
171
179
188
198
208
217
229
240
252
263
276
287
298
310
320
329
339
346
353
358
362
365
367
366
365
362
357
352
346
339
331
322
312
302
291
280
269
259
248
237
227
218
208
200
191
182
175
167
161
155
149
145
139
135
132
128
124
121
119
116
113
111
109
107
106
104
103
101
99
98
97
95
94
93
91
90
89
87
87
86
86
85
84
85
84
85
85
86
85
87
88
88
89
91
92
94
96
98
100
102
104
107
109
111
114
116
119
121
124
127
130
131
134
135
138
140
142
144
147
148
149
150
151
152
153
154
155
155
156
156
156
156
156
156
157
156
157
157
157
157
157
158
158
158
158
158
159
159
159
159
159
160
160
160
160
160
160
160
161
161
160
160
160
160
160
160
161
160
161
161
161
160
160
160
160
161
162
162
162
163
163
163
164
164
164
165
165
165
165
166
166
165
165
165
166
166
166
166
166
166
166
166
165
165
165
165
166
166
166
167
167
167
167
167
167
167
167
167
168
168
167
168
168
168
168
168
168
168
168
168
168
168
168
168
169
169
169
169
170
170
171
170
171
171
172
172
172
173
173
173
174
175
175
175
175
176
175
176
176
176
177
177
177
178
178
178
179
179
179
180
180
180
181
182
182
183
184
184
185
185
186
187
188
189
189
191
192
192
193
194
194
195
195
195
197
197
198
199
199
199
200
200
201
201
202
202
203
204
205
205
207
207
208
209
210
211
213
214
215
217
218
220
221
222
224
225
226
227
228
229
231
231
232
232
232
234
234
235
235
236
235
235
236
236
237
238
238
239
239
240
240
240
240
241
241
242
243
244
244
244
243
243
244
244
243
242
242
241
240
239
239
237
237
236
236
234
233
232
231
230
228
227
226
226
224
223
222
222
220
220
219
218
216
215
213
211
211
209
208
206
206
204
203
202
202
200
199
197
196
195
194
192
192
190
189
189
187
186
185
184
183
182
182
181
180
179
178
178
177
176
176
175
174
174
174
173
172
172
172
171
170
169
169
169
168
168
167
167
166
165
165
165
164
164
164
164
164
164
164
164
163
163
163
164
163
163
163
162
163
162
161
162
162
161
161
161
161
161
161
161
160
161
160
160
160
160
161
161
160
160
161
161
161
161
161
161
161
161
161
161
161
162
162
162
161
161
161
162
162
163
163
163
163
163
162
163
162
163
163
163
162
162
162
162
163
162
162
162
162
162
161
162
161
161
161
161
161
161
161
161
161
161
161
161
162
162
162
161
162
161
162
162
162
162
162
163
162
162
162
162
162
162
163
163
163
163
164
163
164
164
164
164
164
163
163
163
163
163
163
164
163
163
163
164
164
164
163
163
163
163
163
163
163
163
163
162
162
163
162
162
162
162
162
162
162
162
161
161
161
161
161
162
162
162
163
163
162
162
163
162
162
162
162
163
163
163
163
163
163
164
164
164
163
163
163
163
164
164
164
164
164
164
164
165
164
164
164
164
164
165
165
165
166
166
166
167
167
168
168
168
169
169
169
169
169
169
170
169
169
170
169
169
168
168
168
168
167
167
166
166
165
165
165
164
163
163
163
163
163
163
162
162
163
163
163
163
164
164
165
164
164
165
165
166
166
166
166
166
166
166
166
166
166
165
166
166
165
166
166
165
165
166
165
166
166
166
166
167
166
167
167
167
167
167
167
166
167
167
167
167
166
166
166
166
165
165
165
165
165
165
165
165
165
164
164
164
164
164
164
163
163
164
164
164
164
165
164
165
165
165
165
165
165
165
165
165
165
166
166
165
165
165
165
165
165
165
164
164
164
164
164
164
163
163
163
163
163
163
163
163
164
164
164
165
165
165
165
165
166
165
165
166
165
165
166
165
165
164
164
164
163
162
161
161
160
159
159
159
159
159
158
158
159
159
159
159
158
159
159
160
161
161
161
161
162
163
162
163
163
164
164
164
165
164
164
164
165
164
165
165
165
165
165
165
164
165
164
165
165
164
164
163
163
162
162
162
161
161
161
161
161
161
161
161
161
161
161
162
162
162
162
163
163
163
163
164
164
164
165
164
164
164
164
164
164
164
163
163
162
162
162
161
162
161
161
161
160
160
160
160
160
160
160
160
159
159
159
159
159
159
160
160
160
160
160
161
162
161
161
162
162
162
162
162
164
164
163
164
164
164
163
164
164
164
164
163
164
164
164
164
164
164
164
164
165
165
164
164
164
164
164
164
164
164
164
164
164
165
165
165
165
166
165
166
166
167
166
166
166
167
167
167
167
167
168
167
168
167
167
168
168
169
169
169
169
170
169
170
171
172
172
172
173
174
174
174
174
175
175
176
175
176
176
177
177
177
177
178
177
177
177
178
177
178
179
179
179
179
179
179
180
180
181
181
181
181
182
182
182
182
181
181
181
181
180
180
179
179
179
178
178
177
178
177
176
176
176
176
176
175
175
175
174
174
174
173
173
173
172
172
171
170
169
168
168
167
166
165
164
164
163
163
163
162
162
162
162
161
161
161
161
161
161
162
162
162
161
162
161
162
161
161
161
161
161
160
161
160
160
160
160
160
160
160
160
160
160
160
160
160
160
160
161
161
161
161
161
161
161
161
161
161
161
161
161
161
161
161
161
161
161
162
161
161
160
161
160
160
159
159
159
158
156
155
153
152
151
149
147
145
143
142
140
138
136
135
134
133
132
132
132
133
134
136
139
142
145
151
156
163
170
178
186
196
205
215
227
238
250
262
274
285
298
310
321
332
341
350
356
363
368
370
373
373
372
371
368
364
358
352
344
335
326
316
306
294
283
272
261
251
240
229
220
210
200
192
183
175
167
162
155
150
146
140
137
132
129
126
123
121
119
116
114
111
109
108
107
105
104
102
100
99
97
96
94
93
91
90
90
89
88
87
87
86
86
86
86
86
87
88
89
90
91
92
93
95
97
98
100
102
104
106
108
111
113
116
118
121
123
126
128
131
134
136
139
141
143
146
147
149
151
152
153
155
156
157
157
158
159
159
160
160
160
161
161
161
160
161
161
161
160
160
160
161
161
161
161
161
162
162
162
162
162
162
163
163
163
164
164
163
164
164
163
163
162
163
163
163
163
163
164
164
163
163
164
164
163
164
164
164
164
165
164
165
165
166
165
166
166
166
166
166
166
166
166
165
165
166
166
166
167
167
166
166
166
166
166
166
166
167
167
167
168
168
169
170
170
170
170
171
172
171
172
171
171
172
172
172
172
172
171
171
172
172
171
171
170
170
170
170
169
169
169
169
169
169
170
170
170
171
171
171
172
172
173
174
173
174
175
175
176
177
178
177
177
179
179
179
179
180
180
181
181
181
181
182
183
182
182
183
183
184
184
184
185
185
185
187
187
188
190
190
191
191
191
192
193
194
195
196
197
198
199
200
201
202
203
203
203
205
206
207
208
209
210
211
212
212
213
214
215
216
216
217
219
219
221
222
222
223
223
224
225
225
226
226
227
228
228
229
228
229
229
229
229
231
230
231
231
232
232
232
233
234
235
235
235
235
235
236
236
236
236
236
236
235
235
234
235
234
233
233
232
231
230
230
229
228
227
226
226
225
224
223
222
220
220
219
218
217
216
215
214
214
212
211
210
208
207
205
205
203
202
201
200
198
198
196
194
193
192
191
190
188
188
187
186
185
183
182
181
180
179
178
176
176
175
174
172
171
170
170
169
168
168
167
167
166
164
164
164
163
162
161
161
161
161
160
159
160
159
159
158
158
158
157
157
157
157
156
157
157
156
156
156
156
157
157
157
157
157
158
158
158
158
158
158
158
158
159
159
159
158
159
159
159
159
158
158
158
158
157
158
158
157
158
157
157
156
155
156
155
155
154
154
154
153
154
153
152
153
153
152
153
152
152
152
153
153
152
153
152
152
152
152
153
153
153
153
153
153
153
153
153
153
154
154
155
155
155
154
155
154
155
155
155
155
155
155
154
154
154
155
154
154
154
155
154
154
154
155
154
154
154
155
155
154
154
154
154
153
153
153
153
153
153
153
152
152
152
152
152
152
152
153
153
152
153
153
153
153
153
153
154
154
154
154
154
153
154
154
154
153
153
153
154
154
153
154
154
154
155
154
155
155
155
155
155
155
155
156
155
156
156
156
156
155
156
154
155
155
154
154
154
153
152
152
153
153
153
153
153
153
154
154
154
155
155
156
156
156
156
157
157
158
158
159
159
159
159
159
159
159
159
159
159
158
159
159
158
159
159
158
158
158
158
157
157
157
157
157
157
157
157
157
157
157
157
157
157
157
157
157
158
158
158
158
158
158
158
158
158
158
158
157
157
157
157
157
156
156
156
156
155
155
155
155
154
154
153
153
152
152
152
151
151
151
152
151
151
150
150
150
150
150
150
151
151
152
153
153
153
153
153
153
154
154
154
154
155
155
156
156
156
156
156
157
157
157
156
157
157
156
156
157
157
157
158
157
