# Simple Text Format
# Sampling Rate (Hz):= 1200.00
# Resolution:= 12
# Labels:= ECG	 V2
# Age:=	83
# Gender:=	Feminino
-172
-173
-173
-174
-174
-174
-175
-175
-175
-175
-175
-175
-175
-175
-175
-175
-174
-174
-174
-175
-175
-175
-174
-174
-173
-173
-172
-171
-171
-170
-170
-169
-169
-168
-167
-167
-167
-167
-167
-168
-168
-168
-169
-169
-170
-171
-173
-172
-174
-175
-176
-176
-178
-179
-179
-180
-180
-181
-182
-182
-183
-182
-182
-181
-182
-182
-181
-180
-180
-179
-179
-178
-178
-177
-176
-176
-174
-174
-174
-173
-172
-172
-171
-170
-170
-170
-169
-168
-168
-167
-167
-166
-166
-166
-166
-165
-166
-166
-166
-166
-166
-167
-167
-167
-168
-167
-167
-167
-167
-167
-167
-166
-167
-168
-168
-168
-168
-169
-169
-169
-169
-171
-171
-171
-172
-173
-174
-174
-174
-175
-175
-175
-176
-176
-177
-178
-178
-178
-179
-180
-180
-181
-181
-182
-182
-183
-183
-183
-184
-184
-184
-184
-185
-186
-186
-186
-187
-187
-187
-186
-187
-187
-187
-187
-186
-186
-186
-185
-185
-185
-185
-184
-184
-184
-184
-183
-184
-183
-184
-184
-185
-186
-186
-186
-186
-186
-186
-186
-186
-186
-185
-185
-185
-185
-184
-184
-185
-185
-184
-185
-184
-185
-184
-184
-184
-184
-184
-184
-184
-184
-183
-184
-183
-183
-183
-182
-181
-180
-181
-180
-180
-180
-180
-179
-179
-179
-178
-177
-178
-177
-177
-177
-178
-178
-178
-178
-178
-178
-178
-178
-179
-178
-179
-179
-180
-180
-181
-180
-181
-180
-180
-180
-180
-180
-179
-180
-179
-178
-177
-177
-175
-174
-173
-172
-172
-171
-172
-172
-173
-175
-177
-180
-185
-191
-199
-207
-218
-230
-242
-256
-271
-287
-305
-323
-342
-362
-382
-402
-423
-443
-461
-479
-495
-509
-523
-536
-546
-556
-563
-568
-572
-575
-575
-574
-570
-566
-559
-553
-545
-536
-527
-517
-507
-497
-486
-476
-466
-456
-446
-437
-427
-418
-409
-400
-392
-384
-374
-367
-358
-350
-341
-333
-324
-317
-310
-303
-296
-288
-282
-277
-270
-264
-258
-253
-248
-242
-238
-234
-230
-226
-222
-218
-214
-211
-208
-204
-201
-197
-194
-192
-188
-186
-182
-179
-176
-173
-170
-167
-164
-162
-159
-156
-154
-152
-150
-148
-145
-144
-142
-141
-140
-139
-138
-138
-136
-136
-135
-135
-133
-133
-133
-132
-131
-131
-131
-131
-131
-130
-130
-131
-130
-130
-131
-130
-131
-131
-131
-130
-130
-130
-130
-130
-130
-130
-129
-129
-129
-129
-128
-128
-129
-129
-128
-129
-128
-127
-127
-127
-127
-126
-126
-126
-126
-126
-126
-125
-126
-126
-126
-126
-126
-125
-125
-125
-124
-124
-124
-123
-123
-123
-122
-122
-122
-122
-122
-122
-121
-121
-121
-121
-121
-121
-121
-121
-121
-120
-120
-119
-118
-118
-118
-117
-116
-115
-114
-113
-113
-112
-111
-111
-110
-110
-110
-109
-109
-109
-109
-108
-108
-108
-108
-107
-107
-106
-105
-105
-104
-103
-103
-102
-101
-100
-98
-96
-95
-93
-92
-90
-88
-86
-85
-83
-81
-79
-78
-77
-76
-75
-74
-74
-72
-72
-71
-70
-70
-69
-69
-68
-67
-66
-66
-65
-64
-63
-63
-62
-61
-60
-60
-58
-58
-56
-55
-53
-52
-51
-50
-47
-46
-44
-43
-41
-40
-38
-37
-36
-35
-34
-33
-33
-32
-31
-31
-31
-31
-31
-31
-31
-32
-32
-32
-32
-33
-34
-34
-35
-36
-37
-38
-39
-40
-41
-42
-43
-44
-46
-47
-48
-49
-51
-52
-54
-56
-57
-58
-59
-61
-63
-64
-65
-67
-70
-71
-74
-75
-77
-78
-80
-82
-84
-85
-87
-88
-91
-93
-94
-97
-99
-101
-104
-106
-108
-111
-113
-115
-117
-119
-121
-124
-125
-127
-129
-131
-133
-135
-136
-138
-140
-141
-143
-144
-146
-147
-148
-149
-151
-151
-152
-153
-154
-156
-156
-157
-158
-159
-160
-161
-162
-162
-163
-164
-165
-165
-165
-166
-166
-167
-167
-167
-167
-167
-167
-167
-167
-168
-168
-168
-170
-170
-171
-171
-172
-172
-173
-174
-174
-175
-175
-175
-175
-176
-176
-175
-175
-174
-174
-174
-173
-173
-173
-173
-173
-172
-172
-171
-171
-170
-170
-170
-169
-169
-169
-168
-167
-167
-167
-167
-166
-167
-167
-167
-167
-167
-166
-166
-167
-166
-167
-167
-167
-166
-167
-167
-167
-168
-168
-168
-167
-168
-168
-167
-167
-167
-167
-167
-167
-166
-166
-167
-167
-166
-165
-165
-165
-165
-165
-164
-164
-164
-164
-163
-164
-163
-163
-163
-163
-162
-162
-161
-161
-160
-159
-158
-159
-158
-158
-158
-158
-158
-159
-160
-161
-161
-162
-163
-164
-165
-166
-167
-168
-168
-170
-171
-171
-172
-172
-172
-172
-172
-172
-172
-172
-171
-170
-170
-169
-169
-168
-168
-167
-167
-166
-165
-165
-165
-166
-166
-166
-166
-166
-166
-166
-166
-166
-166
-166
-167
-166
-166
-166
-166
-165
-165
-166
-165
-164
-164
-164
-164
-164
-164
-165
-164
-164
-164
-164
-164
-164
-163
-164
-164
-164
-163
-163
-163
-163
-164
-164
-164
-164
-164
-164
-165
-165
-165
-165
-165
-165
-165
-165
-164
-164
-163
-163
-163
-163
-163
-162
-162
-162
-162
-162
-162
-161
-162
-161
-161
-161
-160
-159
-159
-158
-158
-157
-157
-156
-157
-156
-155
-155
-154
-155
-155
-154
-154
-153
-153
-152
-152
-152
-152
-152
-152
-152
-152
-153
-153
-154
-155
-155
-156
-157
-159
-160
-161
-162
-163
-165
-166
-166
-168
-169
-170
-171
-172
-173
-173
-173
-174
-175
-175
-176
-176
-176
-177
-178
-178
-178
-178
-178
-178
-177
-177
-177
-177
-177
-177
-176
-176
-176
-176
-175
-176
-175
-175
-174
-175
-175
-174
-174
-175
-175
-175
-175
-175
-175
-175
-175
-176
-176
-177
-177
-177
-177
-177
-177
-177
-176
-176
-175
-175
-174
-173
-173
-171
-171
-171
-171
-171
-171
-170
-171
-171
-170
-170
-171
-171
-170
-171
-170
-171
-171
-171
-171
-171
-171
-171
-172
-172
-172
-173
-173
-173
-173
-174
-173
-173
-173
-172
-171
-172
-171
-171
-170
-170
-169
-169
-169
-168
-168
-168
-168
-167
-167
-167
-167
-167
-167
-167
-167
-168
-168
-168
-168
-167
-167
-168
-168
-169
-168
-169
-169
-168
-168
-166
-166
-166
-165
-165
-166
-165
-168
-169
-173
-176
-182
-188
-197
-207
-219
-232
-246
-261
-278
-296
-314
-334
-354
-376
-398
-421
-442
-464
-482
-501
-517
-532
-547
-558
-569
-578
-584
-588
-591
-591
-590
-587
-581
-574
-567
-558
-550
-540
-530
-519
-509
-497
-486
-475
-464
-454
-444
-434
-424
-415
-405
-396
-386
-376
-367
-358
-349
-340
-331
-322
-314
-307
-298
-291
-283
-275
-268
-262
-255
-248
-242
-237
-231
-226
-220
-215
-210
-206
-202
-199
-195
-192
-189
-186
-184
-180
-177
-176
-173
-171
-168
-167
-164
-161
-159
-156
-155
-152
-149
-146
-144
-142
-140
-137
-135
-134
-132
-131
-130
-129
-129
-128
-127
-127
-126
-126
-126
-126
-126
-126
-124
-125
-124
-125
-125
-124
-124
-124
-123
-123
-122
-121
-122
-120
-120
-120
-119
-119
-118
-117
-117
-117
-117
-118
-117
-118
-119
-119
-120
-120
-120
-121
-121
-121
-121
-122
-122
-122
-122
-122
-122
-122
-122
-121
-121
-121
-121
-120
-119
-119
-119
-117
-117
-116
-116
-114
-115
-113
-113
-112
-112
-111
-111
-111
-110
-110
-110
-109
-110
-109
-109
-109
-108
-108
-108
-108
-107
-107
-108
-107
-106
-106
-106
-105
-106
-105
-105
-105
-104
-103
-102
-101
-100
-99
-98
-96
-95
-94
-92
-91
-90
-87
-86
-86
-85
-83
-83
-82
-81
-81
-79
-79
-78
-77
-76
-75
-74
-74
-72
-72
-70
-70
-69
-69
-68
-68
-67
-65
-65
-64
-63
-62
-61
-61
-59
-58
-57
-55
-54
-53
-51
-49
-49
-47
-46
-45
-44
-43
-42
-41
-40
-39
-38
-37
-36
-35
-33
-32
-31
-29
-28
-28
-27
-26
-26
-25
-24
-23
-23
-23
-23
-22
-22
-22
-22
-22
-22
-22
-22
-23
-23
-24
-25
-26
-27
-28
-29
-30
-31
-31
-33
-33
-34
-34
-36
-37
-38
-38
-40
-41
-42
-43
-45
-46
-48
-49
-51
-52
-54
-56
-58
-59
-61
-62
-64
-67
-69
-71
-73
-75
-77
-80
-83
-86
-88
-91
-94
-97
-100
-102
-105
-107
-109
-111
-113
-115
-117
-119
-120
-123
-124
-126
-128
-129
-131
-132
-134
-136
-137
-139
-140
-141
-143
-143
-145
-145
-147
-147
-149
-150
-150
-151
-151
-152
-153
-154
-155
-155
-156
-156
-156
-157
-157
-157
-157
-157
-156
-157
-157
-157
-157
-157
-157
-157
-157
-156
-156
-157
-157
-157
-157
-157
-157
-157
-156
-155
-156
-155
-154
-154
-154
-153
-152
-152
-152
-152
-152
-150
-150
-150
-150
-150
-151
-151
-151
-152
-152
-151
-151
-152
-152
-152
-152
-153
-153
-154
-154
-155
-155
-154
-154
-155
-154
-155
-154
-154
-153
-153
-154
-154
-154
-153
-154
-154
-154
-154
-155
-155
-155
-156
-155
-156
-155
-155
-153
-153
-152
-152
-151
-151
-150
-150
-150
-151
-151
-151
-152
-152
-152
-152
-154
-154
-154
-154
-155
-156
-156
-157
-158
-157
-158
-158
-158
-158
-158
-158
-158
-158
-158
-157
-157
-157
-156
-156
-155
-155
-154
-153
-153
-153
-152
-152
-151
-150
-149
-148
-148
-147
-147
-147
-145
-145
-144
-145
-144
-144
-144
-144
-144
-145
-145
-145
-145
-146
-146
-147
-147
-148
-149
-149
-149
-150
-150
-150
-151
-150
-150
-149
-149
-149
-149
-148
-148
-147
-147
-148
-148
-147
-148
-146
-146
-146
-145
-145
-145
-145
-145
-144
-144
-145
-145
-145
-146
-146
-146
-147
-147
-147
-147
-148
-148
-149
-149
-149
-149
-148
-148
-147
-147
-146
-147
-146
-145
-145
-145
-145
-144
-144
-144
-144
-144
-143
-143
-143
-143
-142
-142
-142
-143
-142
-142
-142
-142
-141
-141
-141
-141
-141
-140
-139
-139
-138
-138
-137
-136
-136
-135
-135
-134
-133
-132
-132
-133
-132
-132
-133
-133
-134
-135
-135
-137
-137
-138
-139
-139
-141
-142
-143
-144
-145
-146
-147
-148
-149
-150
-151
-152
-152
-154
-154
-154
-155
-155
-155
-155
-156
-156
-156
-157
-157
-158
-157
-158
-157
-158
-157
-158
-157
-158
-158
-157
-157
-156
-155
-155
-154
-153
-152
-151
-151
-150
-149
-149
-149
-148
-148
-148
-148
-149
-149
-150
-150
-150
-151
-151
-152
-152
-152
-153
-153
-154
-154
-154
-154
-155
-155
-154
-155
-155
-155
-154
-154
-154
-154
-153
-153
-152
-152
-152
-152
-152
-152
-153
-152
-153
-152
-153
-153
-154
-153
-154
-153
-153
-153
-153
-153
-151
-151
-152
-151
-151
-151
-151
-151
-151
-151
-151
-151
-151
-151
-152
-152
-152
-152
-152
-151
-150
-151
-151
-150
-151
-150
-150
-150
-151
-150
-150
-150
-149
-149
-147
-146
-145
-144
-144
-143
-144
-145
-146
-149
-152
-155
-162
-168
-176
-185
-197
-209
-223
-238
-256
-273
-292
-313
-334
-356
-378
-400
-422
-444
-464
-483
-501
-517
-532
-545
-557
-567
-575
-581
-585
-586
-587
-584
-581
-576
-569
-561
-553
-544
-533
-523
-512
-501
-491
-478
-467
-456
-445
-434
-423
-412
-401
-391
-382
-371
-361
-352
-343
-333
-324
-316
-308
-300
-293
-285
-277
-270
-263
-257
-250
-245
-238
-233
-226
-221
-216
-210
-205
-201
-196
-192
-187
-183
-179
-175
-172
-168
-165
-161
-158
-155
-151
-148
-145
-143
-140
-137
-135
-132
-130
-128
-127
-125
-124
-122
-121
-119
-118
-117
-116
-115
-113
-112
-111
-110
-109
-108
-108
-107
-106
-105
-105
-105
-105
-105
-105
-106
-106
-106
-106
-106
-106
-106
-106
-106
-106
-107
-106
-106
-107
-107
-108
-107
-107
-107
-107
-107
-107
-107
-106
-105
-104
-104
-103
-102
-102
-102
-101
-101
-101
-101
-101
-102
-101
-102
-101
-102
-102
-102
-102
-101
-102
-102
-102
-102
-101
-101
-101
-100
-99
-99
-99
-98
-97
-96
-96
-95
-95
-94
-94
-93
-93
-92
-92
-91
-90
-89
-88
-87
-87
-87
-86
-86
-85
-85
-85
-84
-84
-83
-83
-82
-81
-81
-80
-79
-79
-78
-77
-76
-76
-75
-74
-74
-72
-72
-71
-71
-70
-69
-68
-68
-67
-66
-65
-64
-63
-62
-62
-60
-60
-59
-59
-58
-58
-57
-57
-56
-56
-55
-53
-53
-52
-51
-50
-49
-48
-47
-46
-45
-43
-41
-40
-38
-37
-36
-34
-33
-31
-30
-28
-27
-26
-24
-24
-22
-21
-21
-20
-20
-19
-18
-18
-18
-17
-17
-17
-17
-17
-17
-17
-17
-17
-18
-17
-17
-16
-17
-16
-17
-16
-17
-18
-17
-18
-19
-19
-20
-20
-21
-21
-22
-22
-21
-22
-22
-23
-24
-25
-26
-27
-28
-29
-30
-32
-33
-34
-35
-36
-37
-39
-39
-41
-43
-44
-46
-49
-51
-54
-56
-58
-61
-63
-66
-69
-73
-75
-78
-81
-84
-86
-89
-92
-94
-97
-98
-100
-102
-103
-105
-106
-107
-109
-110
-112
-113
-115
-116
-117
-119
-120
-121
-122
-123
-124
-124
-125
-127
-128
-128
-129
-131
-132
-132
-133
-133
-135
-135
-136
-137
-137
-138
-138
-138
-138
-139
-139
-139
-139
-139
-140
-139
-139
-140
-140
-141
-141
-141
-141
-142
-142
-142
-142
-143
-143
-143
-143
-144
-144
-144
-144
-144
-144
-145
-145
-145
-145
-145
-145
-145
-144
-145
-145
-144
-143
-143
-142
-142
-141
-141
-141
-140
-140
-140
-140
-140
-139
-140
-139
-140
-140
-140
-141
-140
-141
-142
-142
-142
-142
-142
-142
-142
-142
-143
-143
-143
-143
-143
-143
-142
-143
-143
-143
-143
-143
-143
-143
-142
-142
-142
-142
-142
-142
-142
-141
-142
-141
-142
-141
-141
-140
-141
-140
-140
-139
-139
-139
-139
-139
-139
-139
-139
-139
-140
-141
-141
-141
-141
-141
-141
-141
-141
-141
-141
-141
-141
-141
-141
-141
-140
-141
-141
-140
-141
-141
-141
-142
-142
-142
-143
-143
-144
-143
-144
-144
-144
-143
-144
-144
-143
-144
-143
-143
-143
-144
-143
-144
-145
-144
-145
-145
-146
-146
-145
-146
-146
-146
-146
-145
-145
-146
-145
-145
-146
-145
-144
-145
-145
-144
-144
-144
-144
-144
-143
-143
-144
-143
-142
-142
-142
-143
-143
-143
-143
-143
-144
-144
-145
-145
-145
-145
-146
-146
-147
-147
-147
-147
-147
-147
-147
-147
-147
-146
-146
-146
-146
-145
-145
-144
-144
-144
-144
-142
-142
-141
-140
-139
-139
-139
-138
-138
-138
-138
-138
-138
-138
-138
-139
-139
-139
-140
-139
-138
-139
-139
-138
-138
-137
-137
-137
-137
-137
-136
-136
-136
-136
-137
-137
-138
-138
-138
-140
-140
-141
-141
-142
-142
-144
-144
-146
-146
-148
-148
-149
-149
-150
-151
-152
-152
-152
-152
-152
-153
-153
-152
-152
-152
-153
-152
-153
-152
-151
-151
-151
-150
-150
-151
-151
-151
-151
-152
-152
-152
-152
-152
-152
-153
-153
-153
-154
-154
-155
-155
-156
-156
-157
-157
-158
-157
-157
-157
-157
-156
-157
-156
-156
-156
-155
-154
-154
-154
-154
-153
-153
-153
-153
-153
-153
-154
-154
-153
-153
-152
-152
-151
-151
-150
-150
-151
-150
-150
-150
-150
-150
-150
-151
-151
-151
-152
-153
-152
-153
-154
-154
-154
-155
-155
-155
-155
-156
-156
-156
-156
-156
-156
-156
-156
-156
-156
-157
-157
-156
-156
-156
-156
-156
-155
-155
-155
-155
-155
-154
-154
-154
-153
-154
-154
-153
-152
-152
-152
-152
-151
-151
-150
-150
-148
-147
-146
-146
-145
-144
-144
-145
-146
-147
-150
-153
-157
-162
-169
-177
-185
-195
-206
-218
-232
-246
-263
-280
-298
-317
-337
-357
-378
-397
-415
-435
-451
-467
-482
-495
-508
-518
-527
-534
-540
-544
-545
-546
-544
-541
-537
-532
-526
-519
-511
-502
-493
-484
-474
-464
-453
-443
-433
-423
-412
-403
-392
-382
-372
-362
-352
-342
-333
-324
-315
-306
-298
-289
-281
-274
-267
-259
-252
-245
-239
-233
-227
-222
-218
-213
-209
-205
-201
-199
-195
-192
-189
-185
-183
-179
-176
-172
-170
-167
-163
-160
-157
-154
-151
-148
-145
-142
-139
-135
-133
-130
-129
-126
-125
-123
-121
-121
-119
-118
-118
-117
-117
-117
-116
-117
-117
-117
-117
-118
-119
-119
-119
-119
-119
-119
-120
-120
-120
-120
-120
-119
-119
-119
-119
-118
-118
-118
-118
-118
-118
-118
-117
-117
-117
-116
-115
-115
-114
-114
-113
-113
-112
-112
-112
-112
-111
-111
-112
-111
-111
-112
-113
-111
-113
-113
-113
-113
-112
-112
-112
-112
-112
-113
-112
-112
-111
-111
-111
-112
-112
-112
-111
-111
-111
-111
-111
-111
-111
-111
-110
-110
-110
-108
-108
-108
-107
-107
-105
-106
-105
-105
-105
-103
-103
-102
-102
-101
-101
-100
-100
-99
-99
-99
-99
-98
-98
-97
-97
-96
-96
-96
-96
-95
-94
-93
-92
-92
-92
-90
-89
-89
-88
-87
-86
-86
-85
-84
-84
-83
-82
-81
-81
-79
-78
-78
-76
-76
-75
-74
-72
-70
-69
-67
-66
-65
-63
-62
-61
-60
-59
-59
-58
-57
-56
-56
-56
-55
-54
-54
-54
-53
-53
-53
-52
-53
-52
-52
-52
-50
-51
-50
-49
-48
-48
-47
-46
-45
-43
-42
-41
-40
-40
-38
-38
-37
-37
-37
-37
-38
-38
-38
-38
-39
-39
-40
-40
-41
-41
-42
-42
-43
-44
-45
-47
-47
-48
-50
-52
-53
-54
-56
-58
-59
-60
-61
-64
-65
-66
-68
-69
-71
-72
-73
-74
-77
-77
-79
-81
-83
-84
-87
-87
-89
-91
-93
-94
-97
-99
-101
-103
-106
-107
-110
-112
-114
-116
-119
-121
-123
-124
-127
-129
-131
-133
-134
-135
-136
-136
-137
-138
-138
-138
-139
-139
-139
-140
-140
-141
-141
-142
-142
-143
-143
-144
-145
-146
-146
-148
-148
-149
-149
-150
-151
-151
-152
-152
-152
-153
-153
-153
-154
-154
-154
-154
-153
-154
-154
-153
-153
-152
-152
-151
-151
-151
-151
-152
-152
-152
-152
-152
-152
-153
-153
-154
-155
-155
-155
-155
-155
-156
-156
-156
-156
-156
-156
-156
-157
-157
-157
-157
-157
-157
-158
-157
-158
-158
-157
-158
-157
-158
-157
-156
-157
-156
-156
-156
-157
-157
-157
-158
-158
-158
-158
-158
-158
-158
-158
-158
-158
-159
-159
-158
-158
-158
-159
-158
-158
-159
-159
-159
-159
-159
-159
-158
-158
-157
-157
-157
-157
-156
-156
-155
-156
-156
-156
-156
-156
-156
-156
-156
-156
-156
-156
-156
-156
-156
-156
-156
-155
-155
-155
-155
-155
-154
-153
-154
-153
-153
-153
-153
-153
-153
-153
-153
-154
-153
-154
-155
-155
-155
-156
-156
-157
-157
-157
-158
-159
-158
-158
-159
-159
-159
-159
-158
-158
-157
-157
-156
-155
-155
-154
-153
-153
-152
-152
-151
-152
-152
-152
-152
-152
-152
-153
-152
-153
-154
-154
-155
-156
-156
-156
-156
-157
-157
-158
-158
-159
-159
-160
-160
-161
-161
-160
-160
-161
-160
-160
-160
-160
-160
-160
-160
-160
-160
-158
-158
-159
-158
-158
-159
-158
-159
-159
-159
-158
-158
-158
-158
-158
-157
-157
-156
-155
-156
-156
-156
-156
-156
-156
-156
-156
-156
-156
-156
-156
-156
-156
-156
-155
-156
-155
-155
-154
-154
-154
-154
-154
-154
-154
-153
-154
-154
-154
-155
-155
-156
-157
-157
-159
-160
-160
-161
-162
-162
-163
-164
-165
-165
-166
-166
-166
-166
-166
-165
-166
-165
-164
-164
-163
-162
-162
-161
-161
-160
-160
-159
-160
-160
-160
-161
-161
-161
-161
-162
-162
-163
-162
-163
-164
-164
-165
-164
-165
-166
-167
-166
-167
-167
-168
-168
-169
-168
-168
-169
-169
-169
-168
-168
-169
-168
-168
-167
-168
-167
-167
-167
-167
-167
-167
-167
-166
-167
-166
-166
-166
-165
-166
-165
-164
-164
-164
-165
-164
-165
-164
-164
-165
-165
-165
-166
-166
-166
-166
-167
-167
-167
-168
-168
-167
-167
-167
-166
-166
-166
-165
-165
-164
-164
-163
-163
-163
-163
-162
-162
-162
-163
-162
-161
-162
-161
-161
-160
-160
-160
-160
-160
-160
-161
-161
-161
-162
-162
-162
-162
-162
-162
-162
-162
-162
-160
-160
-160
-160
-161
-162
-162
-164
-166
-168
-171
-174
-179
-186
-191
-200
-209
-218
-229
-241
-253
-268
-283
-298
-315
-331
-348
-366
-384
-401
-417
-433
-446
-459
-471
-481
-489
-498
-503
-508
-511
-511
-509
-507
-504
-498
-492
-484
-477
-469
-460
-450
-440
-430
-420
-412
-402
-393
-385
-375
-367
-359
-351
-343
-335
-328
-321
-314
-307
-301
-295
-289
-283
-276
-270
-264
-258
-252
-246
-240
-234
-229
-225
-219
-215
-210
-206
-202
-199
-195
-192
-190
-187
-184
-182
-179
-177
-174
-172
-170
-168
-165
-164
-162
-160
-158
-156
-155
-153
-152
-150
-149
-148
-146
-145
-143
-142
-140
-139
-138
-137
-136
-135
-134
-134
-133
-132
-132
-132
-132
-132
-132
-133
-133
-133
-133
-133
-133
-134
-134
-134
-134
-133
-133
-132
-132
-132
-131
-131
-131
-132
-131
-130
-130
-130
-131
-130
-129
-129
-129
-129
-128
-128
-128
-128
-128
-128
-128
-128
-128
-128
-128
-128
-128
-128
-129
-129
-128
-128
-128
-128
-128
-128
-128
-128
-128
-127
-127
-127
-126
-126
-125
-124
-123
-122
-122
-121
-120
-119
-118
-117
-116
-116
-115
-115
-114
-115
-114
-114
-114
-114
-115
-115
-115
-117
-117
-117
-118
-117
-117
-117
-117
-117
-116
-116
-115
-115
-114
-113
-112
-111
-111
-110
-108
-107
-106
-105
-104
-102
-101
-99
-98
-97
-96
-95
-94
-93
-93
-92
-91
-91
-90
-90
-89
-88
-88
-87
-86
-85
-84
-83
-81
-80
-80
-78
-77
-75
-74
-72
-71
-70
-68
-68
-66
-65
-64
-63
-61
-60
-59
-58
-57
-56
-56
-55
-55
-54
-54
-53
-52
-51
-51
-51
-51
-50
-49
-49
-49
-47
-47
-46
-45
-45
-44
-44
-43
-44
-43
-43
-44
-44
-44
-45
-46
-47
-48
-48
-49
-49
-50
-51
-52
-53
-53
-54
-55
-57
-57
-58
-59
-61
-63
-64
-64
-65
-67
-68
-69
-71
-72
-74
-75
-78
-79
-81
-83
-85
-86
-89
-91
-92
-94
-97
-99
-101
-103
-104
-107
-109
-110
-111
-114
-115
-118
-119
-121
-123
-125
-127
-129
-130
-133
-135
-136
-139
-140
-142
-144
-145
-146
-148
-149
-150
-151
-152
-152
-153
-154
-154
-155
-155
-157
-157
-157
-159
-159
-159
-160
-160
-161
-162
-162
-163
-163
-163
-165
-164
-165
-165
-166
-166
-167
-168
-168
-168
-169
-170
-169
-168
-169
-168
-168
-168
-168
-170
-170
-171
-173
-174
-174
-176
-177
-177
-178
-178
-179
-179
-180
-181
-181
-181
-181
-181
-181
-181
-180
-179
-179
-178
-177
-176
-177
-176
-176
-176
-175
-175
-176
-175
-175
-175
-175
-175
-176
-176
-175
-176
-177
-177
-177
-178
-178
-178
-179
-178
-180
-178
-179
-179
-179
-179
-179
-179
-178
-178
-178
-177
-177
-177
-177
-177
-176
-176
-176
-175
-176
-174
-174
-174
-173
-174
-174
-173
-174
-174
-173
-174
-173
-173
-174
-174
-174
-175
-176
-175
-176
-176
-176
-176
-176
-175
-175
-175
-175
-174
-174
-174
-174
-174
-174
-174
-175
-174
-175
-176
-177
-176
-177
-177
-178
-178
-179
-179
-179
-180
-181
-181
-182
-182
-182
-183
-183
-183
-184
-183
-183
-183
-183
-183
-182
-181
-181
-180
-180
-180
-180
-179
-178
-177
-177
-177
-176
-175
-175
-175
-174
-174
-172
-172
-171
-171
-171
-170
-171
-171
-170
-170
-171
-170
-171
-171
-172
-172
-172
-172
-173
-173
-172
-172
-172
-171
-171
-171
-171
-171
-170
-169
-169
-168
-168
-167
-168
-167
-167
-168
-167
-167
-168
-167
-167
-167
-167
-167
-167
-167
-167
-168
-167
-168
-169
-168
-168
-168
-168
-168
-167
-167
-167
-167
-166
-166
-165
-165
-165
-165
-165
-164
-164
-165
-165
-165
-166
-167
-167
-168
-169
-169
-169
-170
-172
-172
-173
-173
-173
-174
-174
-174
-175
-175
-176
-176
-177
-177
-177
-178
-178
-179
-179
-179
-180
-180
-179
-179
-179
-180
-180
-180
-180
-180
-182
-182
-183
-183
-183
-183
-183
-183
-183
-182
-182
-182
-182
-181
-181
-180
-180
-179
-179
-178
-178
-177
-177
-176
-175
-175
-174
-174
-173
-173
-173
-172
-172
-171
-171
-172
-172
-172
-172
-172
-172
-172
-172
-173
-173
-173
-174
-174
-174
-174
-174
-174
-174
-174
-174
-174
-173
-173
-173
-173
-173
-172
-173
-173
-172
-172
-172
-171
-170
-170
-169
-169
-169
-167
-168
-168
-168
-168
-167
-167
-167
-167
-167
-168
-169
-169
-169
-170
-170
-170
-170
-171
-171
-171
-171
-172
-172
-173
-173
-173
-174
-174
-175
-175
-175
-176
-176
-176
-177
-177
-177
-177
-178
-177
-176
-176
-174
-173
-172
-171
-170
-168
-168
-168
-168
-168
-170
-172
-175
-177
-182
-189
-197
-206
-216
-229
-242
-257
-273
-290
-308
-328
-347
-369
-389
-410
-431
-451
-469
-486
-502
-516
-529
-541
-551
-560
-566
-571
-574
-576
-577
-575
-573
-569
-564
-558
-551
-544
-536
-528
-519
-509
-500
-491
-482
-472
-463
-453
-443
-434
-425
-415
-405
-396
-385
-376
-366
-357
-349
-339
-331
-322
-314
-305
-297
-290
-282
-275
-268
-261
-255
-248
-243
-238
-232
-227
-222
-217
-213
-209
-204
-200
-195
-192
-188
-184
-180
-177
-173
-169
-166
-164
-161
-157
-155
-152
-150
-148
-145
-142
-141
-138
-136
-134
-133
-131
-130
-129
-128
-127
-127
-127
-127
-126
-125
-126
-125
-125
-125
-125
-124
-124
-124
-124
-124
-124
-123
-123
-123
-123
-123
-122
-123
-123
-123
-123
-123
-124
-124
-124
-124
-124
-125
-125
-126
-127
-127
-127
-128
-128
-128
-129
-129
-130
-129
-129
-129
-128
-128
-127
-127
-126
-125
-124
-123
-122
-121
-120
-119
-119
-119
-119
-119
-118
-119
-118
-119
-118
-119
-119
-119
-120
-120
-120
-121
-121
-121
-121
-120
-120
-120
-120
-119
-119
-118
-118
-117
-115
-113
-112
-111
-109
-108
-107
-106
-103
-103
-102
-101
-100
-99
-99
-99
-98
-97
-97
-95
-94
-93
-93
-93
-91
-91
-90
-89
-89
-88
-88
-88
-87
-87
-87
-87
-87
-86
-86
-86
-86
-85
-84
-83
-83
-82
-81
-80
-78
-77
-75
-74
-73
-71
-69
-68
-66
-65
-62
-61
-60
-58
-57
-56
-54
-53
-51
-50
-49
-48
-47
-46
-45
-43
-43
-41
-41
-40
-40
-39
-39
-38
-38
-37
-37
-36
-36
-36
-36
-35
-35
-35
-35
-36
-35
-36
-36
-37
-36
-37
-38
-38
-37
-37
-37
-37
-36
-37
-37
-37
-37
-38
-39
-41
-42
-43
-43
-45
-46
-48
-49
-50
-52
-53
-55
-57
-60
-61
-63
-66
-68
-70
-73
-74
-77
-79
-80
-83
-84
-87
-89
-91
-92
-95
-96
-98
-99
-102
-103
-105
-106
-108
-110
-112
-114
-116
-119
-121
-123
-125
-127
-129
-131
-133
-135
-136
-138
-139
-140
-142
-144
-145
-147
-147
-149
-149
-151
-151
-152
-153
-154
-154
-155
-155
-155
-155
-156
-156
-156
-158
-157
-158
-159
-160
-161
-161
-162
-161
-162
-163
-164
-164
-165
-166
-166
-166
-166
-166
-167
-167
-166
-167
-166
-167
-166
-167
-167
-167
-168
-168
-167
-167
-167
-167
-168
-168
-168
-168
-168
-168
-169
-169
-169
-169
-170
-169
-169
-169
-169
-169
-168
-169
-169
-168
-167
-167
-166
-165
-165
-165
-164
-163
-163
-163
-162
-162
-162
-161
-160
-160
-160
-161
-160
-160
-160
-160
-159
-160
-160
-160
-160
-160
-161
-162
-162
-163
-164
-163
-164
-165
-165
-165
-165
-165
-166
-166
-166
-166
-165
-165
-165
-165
-164
-164
-163
-163
-162
-162
-162
-161
-161
-160
-160
-160
-160
-159
-159
-159
-159
-159
-159
-160
-160
-161
-161
-162
-163
-164
-163
-164
-165
-165
-165
-165
-165
-166
-165
-166
-165
-165
-165
-166
-166
-166
-166
-166
-166
-167
-166
-167
-167
-166
-166
-167
-167
-167
-167
-167
-168
-168
-168
-168
-169
-169
-169
-169
-169
-169
-169
-169
-169
-169
-169
-169
-168
-168
-167
-167
-168
-168
-168
-168
-168
-168
-169
-168
-168
-169
-168
-170
-169
-170
-170
-170
-170
-169
-169
-169
-169
-168
-168
-168
-168
-168
-168
-169
-169
-169
-169
-170
-170
-170
-170
-170
-170
-170
-170
-171
-170
-170
-171
-171
-171
-171
-171
-171
-172
-171
-171
-170
-170
-170
-169
-169
-169
-168
-167
-167
-166
-165
-164
-163
-163
-161
-161
-160
-160
-159
-159
-159
-159
-159
-158
-159
-159
-160
-160
-161
-163
-164
-165
-167
-168
-170
-172
-173
-175
-177
-178
-180
-181
-182
-182
-183
-183
-183
-184
-184
-184
-184
-183
-183
-184
-183
-183
-183
-183
-182
-182
-181
-180
-181
-180
-179
-179
-178
-178
-178
-178
-177
-177
-177
-177
-178
-178
-178
-179
-180
-181
-182
-182
-183
-183
-184
-185
-185
-186
-187
-188
-188
-189
-190
-190
-190
-191
-191
-191
-191
-192
-192
-191
-191
-191
-191
-191
-190
-190
-189
-189
-189
-187
-187
-187
-186
-186
-186
-185
-185
-184
-184
-183
-183
-182
-182
-183
-182
-182
-182
-181
-182
-182
-182
-183
-183
-184
-184
-184
-184
-185
-185
-184
-185
-186
-185
-185
-185
-185
-184
-184
-184
-184
-183
-184
-183
-182
-183
-183
-183
-182
-182
-182
-182
-182
-182
-183
-182
-182
-182
-182
-182
-181
-180
-180
-179
-178
-179
-178
-178
-179
-180
-182
-184
-187
-191
-196
-202
-210
-218
-229
-241
-254
-269
-285
-302
-321
-340
-361
-382
-403
-425
-447
-468
-488
-506
-523
-538
-553
-566
-577
-586
-594
-600
-605
-608
-607
-606
-603
-599
-593
-586
-579
-570
-560
-551
-540
-529
-518
-508
-497
-486
-476
-466
-455
-445
-435
-425
-416
-406
-397
-388
-380
-370
-362
-354
-345
-336
-329
-321
-314
-306
-298
-292
-285
-279
-273
-267
-262
-256
-250
-246
-240
-235
-230
-226
-221
-217
-213
-209
-206
-202
-198
-196
-192
-189
-186
-183
-181
-178
-175
-173
-171
-170
-167
-165
-164
-161
-159
-158
-156
-155
-153
-151
-150
-150
-149
-147
-146
-146
-145
-145
-144
-144
-144
-143
-143
-142
-142
-141
-141
-141
-140
-140
-140
-140
-141
-140
-141
-141
-140
-140
-140
-140
-139
-140
-139
-139
-138
-139
-138
-138
-138
-138
-138
-138
-138
-139
-139
-139
-139
-138
-138
-138
-139
-140
-139
-139
-139
-139
-138
-137
-137
-136
-135
-134
-134
-133
-133
-131
-131
-130
-130
-130
-130
-129
-129
-129
-128
-129
-130
-131
-132
-133
-134
-134
-136
-137
-137
-137
-137
-137
-137
-136
-136
-135
-134
-133
-132
-131
-130
-128
-126
-125
-124
-123
-124
-123
-121
-121
-119
-119
-118
-117
-115
-115
-114
-114
-112
-112
-110
-109
-108
-107
-106
-105
-103
-102
-102
-100
-100
-98
-98
-96
-95
-95
-94
-92
-91
-90
-89
-88
-87
-86
-86
-85
-85
-84
-83
-82
-81
-80
-80
-78
-78
-76
-75
-74
-73
-71
-70
-69
-68
-65
-64
-63
-63
-61
-61
-59
-58
-57
-56
-55
-53
-52
-51
-50
-50
-49
-49
-48
-49
-49
-49
-49
-49
-49
-49
-49
-50
-51
-51
-52
-52
-53
-53
-54
-53
-54
-55
-55
-57
-58
-59
-59
-61
-62
-62
-64
-65
-66
-66
-67
-69
-69
-71
-71
-72
-73
-75
-77
-78
-79
-81
-82
-84
-87
-89
-91
-93
-95
-97
-100
-101
-104
-105
-108
-109
-111
-114
-116
-118
-119
-121
-124
-126
-127
-130
-132
-134
-136
-138
-141
-142
-145
-147
-149
-151
-153
-155
-157
-159
-161
-163
-165
-166
-167
-169
-170
-171
-172
-173
-174
-174
-175
-176
-176
-176
-177
-177
-178
-178
-179
-179
-180
-180
-180
-181
-181
-182
-182
-182
-182
-182
-182
-182
-182
-182
-182
-181
-182
-181
-181
-181
-180
-181
-181
-180
-180
-180
-180
-180
-180
-180
-180
-179
-180
-179
-180
-180
-180
-180
-180
-180
-180
-180
-181
-182
-182
-182
-182
-183
-183
-183
-183
-183
-183
-183
-183
-182
-183
-183
-183
-183
-183
-183
-183
-183
-183
-183
-182
-182
-182
-182
-180
-180
-180
-180
-179
-178
-178
-177
-177
-176
-176
-176
-175
-175
-174
-174
-174
-173
-173
-173
-173
-172
-172
-172
-172
-173
-172
-172
-173
-174
-174
-175
-175
-176
-177
-177
-179
-179
-180
-179
-180
-180
-181
-181
-182
-182
-182
-183
-183
-183
-183
-182
-182
-182
-181
-181
-179
-179
-178
-177
-177
-176
-175
-174
-175
-174
-174
-174
-173
-173
-172
-173
-172
-173
-173
-173
-173
-175
-175
-176
-175
-176
-176
-175
-176
-176
-176
-177
-177
-178
-178
-178
-179
-179
-179
-180
-180
-179
-179
-180
-180
-179
-178
-179
-178
-177
-176
-176
-176
-176
-175
-175
-175
-175
-176
-175
-175
-175
-175
-175
-175
-175
-175
-175
-175
-176
-176
-176
-176
-176
-176
-175
-176
-176
-176
-175
-175
-175
-174
-174
-174
-173
-172
-172
-171
-170
-169
-169
-169
-168
-168
-167
-167
-167
-167
-167
-166
-166
-166
-166
-165
-166
-165
-165
-165
-165
-165
-165
-165
-165
-166
-166
-166
-165
-166
-166
-167
-166
-167
-168
-168
-168
-169
-170
-171
-171
-172
-173
-174
-175
-177
-178
-178
-180
-181
-182
-182
-184
-184
-184
-184
-184
-183
-183
-183
-183
-184
-185
-184
-185
-186
-185
-186
-186
-186
-186
-186
-187
-187
-188
-187
-187
-187
-187
-187
-187
-187
-186
-186
-185
-186
-186
-186
-185
-186
-186
-186
-187
-187
-187
-187
-187
-187
-186
-186
-187
-186
-186
-186
-186
-186
-186
-186
-186
-186
-185
-185
-184
-185
-184
-184
-183
-183
-183
-182
-183
-183
-183
-182
-182
-183
-183
-183
-183
-183
-183
-184
-184
-184
-185
-184
-185
-185
-186
-185
-186
-185
-185
-186
-185
-185
-185
-185
-185
-184
-184
-184
-184
-183
-183
-183
-182
-182
-182
-181
-182
-181
-182
-181
-181
-183
-183
-184
-183
-184
-184
-185
-185
-186
-186
-186
-186
-186
-184
-184
-184
-182
-181
-179
-178
-177
-177
-178
-178
-180
-181
-184
-189
-194
-201
-209
-219
-230
-242
-256
-271
-288
-306
-325
-346
-367
-389
-412
-435
-457
-478
-497
-517
-534
-551
-566
-579
-591
-601
-609
-616
-620
-623
-622
-621
-618
-614
-608
-602
-595
-586
-577
-567
-557
-546
-534
-522
-511
-500
-488
-478
-467
-456
-445
-434
-424
-413
-404
-394
-385
-375
-365
-356
-347
-339
-331
-322
-314
-307
-300
-293
-286
-279
-273
-267
-261
-255
-250
-246
-242
-237
-233
-229
-225
-220
-216
-212
-207
-204
-200
-196
-192
-189
-185
-181
-179
-175
-172
-169
-167
-164
-161
-159
-156
-155
-153
-150
-148
-147
-145
-144
-143
-143
-142
-142
-141
-140
-140
-139
-139
-139
-140
-139
-140
-139
-139
-139
-139
-139
-139
-138
-138
-138
-138
-138
-139
-138
-139
-139
-139
-139
-139
-138
-139
-137
-137
-137
-136
-136
-135
-135
-134
-133
-133
-132
-132
-132
-132
-133
-132
-132
-132
-132
-133
-133
-133
-133
-133
-133
-133
-133
-133
-133
-134
-134
-134
-134
-134
-134
-133
-134
-134
-133
-133
-133
-133
-132
-132
-131
-130
-130
-130
-129
-128
-128
-127
-126
-126
-125
-124
-123
-123
-122
-122
-120
-119
-120
-119
-118
-117
-117
-117
-116
-116
-116
-116
-115
-114
-114
-114
-114
-114
-113
-114
-112
-112
-110
-109
-107
-106
-106
-104
-104
-103
-101
-101
-99
-98
-97
-97
-95
-95
-94
-93
-93
-92
-91
-90
-90
-89
-88
-88
-87
-86
-84
-83
-83
-82
-81
-80
-78
-78
-76
-74
-73
-71
-70
-69
-68
-66
-65
-64
-62
-61
-60
-59
-57
-57
-56
-54
-54
-54
-53
-53
-53
-52
-51
-51
-51
-51
-50
-50
-50
-51
-52
-51
-52
-52
-52
-52
-52
-52
-52
-52
-52
-52
-53
-53
-53
-53
-53
-54
-55
-55
-57
-57
-59
-60
-62
-63
-65
-67
-69
-70
-72
-75
-77
-78
-80
-83
-84
-85
-87
-90
-92
-94
-95
-97
-99
-101
-103
-106
-107
-108
-110
-111
-113
-114
-116
-119
-120
-122
-124
-126
-127
-130
-132
-134
-136
-137
-140
-142
-144
-145
-147
-149
-150
-152
-152
-154
-156
-157
-158
-160
-161
-163
-164
-167
-168
-169
-171
-171
-172
-173
-174
-176
-177
-178
-178
-180
-181
-181
-182
-182
-182
-183
-184
-185
-185
-186
-186
-187
-187
-186
-185
-186
-185
-186
-186
-185
-185
-185
-184
-184
-183
-183
-183
-182
-182
-182
-182
-182
-182
-182
-182
-182
-182
-182
-182
-183
-182
-182
-182
-182
-182
-182
-182
-182
-183
-183
-183
-183
-183
-183
-182
-183
-182
-182
-182
-181
-181
-180
-180
-181
-180
-180
-180
-180
-181
-181
-181
-180
-180
-180
-180
-179
-179
-178
-177
-177
-177
-176
-176
-175
-174
-174
-173
-173
-172
-172
-172
-171
-170
-170
-170
-171
-170
-170
-171
-171
-172
-172
-172
-173
-173
-174
-175
-176
-177
-176
-177
-177
-177
-177
-178
-178
-178
-177
-177
-177
-177
-176
-176
-176
-175
-176
-175
-176
-175
-176
-175
-176
-175
-175
-175
-175
-175
-175
-174
-174
-175
-174
-175
-174
-174
-174
-175
-175
-175
-175
-176
-176
-177
-177
-177
-178
-179
-178
-178
-179
-179
-178
-178
-178
-178
-178
-178
-176
-176
-176
-175
-173
-173
-173
-172
-171
-171
-170
-171
-171
-171
-171
-171
-171
-171
-173
-173
-174
-174
-175
-175
-176
-177
-176
-177
-176
-176
-176
-176
-175
-175
-175
-175
-175
-175
-175
-176
-175
-175
-175
-175
-175
-174
-175
-174
-174
-174
-173
-172
-171
-172
-170
-170
-169
-169
-168
-168
-167
-167
-167
-167
-167
-167
-167
-167
-166
-166
-166
-166
-165
-165
-165
-165
-165
-164
-164
-165
-164
-164
-164
-165
-166
-166
-166
-166
-167
-167
-167
-168
-170
-170
-172
-174
-175
-176
-177
-179
-180
-181
-183
-184
-185
-186
-187
-187
-188
-187
-187
-187
-187
-187
-187
-186
-186
-186
-186
-186
-186
-186
-184
-185
-184
-184
-184
-184
-184
-184
-184
-184
-184
-184
-184
-184
-183
-184
-184
-184
-185
-185
-185
-185
-186
-186
-187
-187
-186
-186
-187
-187
-187
-187
-186
-186
-187
-186
-187
-187
-187
-187
-186
-187
-186
-186
-187
-185
-185
-185
-186
-186
-186
-186
-187
-187
-187
-187
-187
-187
-188
-187
-187
-186
-186
-186
-185
-185
-184
-183
-182
-182
-182
-181
-180
-180
-179
-180
-180
-180
-180
-181
-182
-182
-182
-183
-183
-185
-185
-185
-185
-185
-185
-185
-184
-185
-185
-185
-185
-185
-185
-185
-185
-183
-183
-183
-182
-181
-180
-179
-177
-175
-174
-173
-173
-172
-172
-173
-175
-177
-181
-186
-192
-199
-209
-220
-232
-245
-260
-277
-294
-313
-334
-355
-378
-400
-423
-447
-469
-491
-512
-532
-551
-568
-584
-599
-611
-622
-632
-639
-643
-647
-648
-648
-647
-644
-639
-634
-627
-620
-611
-601
-591
-580
-569
-558
-546
-534
-523
-510
-497
-485
-473
-461
-449
-436
-426
-414
-403
-393
-381
-372
-362
-352
-342
-333
-324
-316
-307
-300
-291
-284
-277
-269
-263
-257
-250
-245
-239
-234
-229
-225
-220
-215
-211
-206
-202
-198
-194
-189
-185
-182
-178
-175
-173
-170
-168
-164
-163
-160
-158
-157
-154
-153
-152
-151
-150
-150
-148
-147
-146
-146
-146
-145
-144
-145
-144
-144
-144
-144
-144
-144
-144
-144
-143
-143
-142
-142
-142
-142
-141
-141
-140
-139
-139
-138
-138
-138
-137
-137
-138
-137
-137
-137
-137
-138
-138
-138
-138
-138
-139
-138
-139
-138
-139
-139
-138
-139
-139
-138
-138
-138
-138
-138
-137
-137
-136
-137
-136
-135
-136
-135
-134
-134
-134
-133
-133
-133
-133
-134
-134
-134
-133
-133
-133
-133
-133
-133
-132
-131
-132
-131
-130
-131
-130
-129
-129
-127
-127
-126
-126
-125
-124
-123
-123
-123
-122
-121
-121
-120
-119
-119
-118
-117
-117
-118
-117
-117
-117
-117
-117
-117
-117
-117
-117
-116
-116
-116
-115
-115
-115
-114
-113
-112
-111
-110
-109
-107
-106
-104
-104
-102
-101
-100
-98
-96
-95
-94
-92
-91
-90
-89
-88
-86
-85
-84
-83
-81
-81
-80
-78
-78
-76
-76
-74
-73
-72
-71
-70
-69
-68
-67
-66
-65
-65
-63
-63
-62
-62
-61
-60
-59
-59
-58
-58
-58
-58
-57
-56
-56
-56
-55
-55
-56
-56
-57
-57
-58
-59
-60
-61
-62
-63
-64
-65
-66
-67
-69
-70
-71
-71
-73
-73
-74
-75
-76
-77
-77
-78
-79
-80
-82
-82
-84
-86
-86
-88
-89
-90
-91
-92
-94
-95
-96
-98
-100
-102
-104
-106
-108
-110
-112
-115
-116
-118
-120
-121
-123
-126
-127
-129
-132
-134
-136
-138
-140
-142
-145
-147
-149
-151
-154
-156
-157
-159
-162
-164
-165
-167
-168
-169
-170
-171
-172
-173
-173
-174
-175
-175
-176
-177
-177
-178
-178
-179
-179
-179
-180
-180
-181
-181
-181
-181
-182
-182
-183
-183
-184
-183
-183
-184
-184
-184
-184
-185
-184
-184
-184
-184
-183
-184
-184
-184
-183
-183
-183
-182
-183
-182
-182
-182
-182
-182
-182
-182
-183
-182
-183
-182
-183
-183
-183
-183
-183
-183
-183
-184
-185
-185
-185
-185
-186
-185
-186
-186
-186
-185
-185
-184
-184
-183
-182
-183
-182
-182
-182
-182
-181
-181
-182
-182
-181
-182
-181
-182
-182
-182
-182
-182
-182
-183
-183
-183
-182
-182
-182
-182
-182
-182
-182
-183
-183
-183
-183
-183
-184
-184
-184
-182
-182
-183
-182
-181
-182
-181
-181
-180
-180
-180
-180
-180
-179
-180
-180
-180
-179
-179
-178
-178
-178
-178
-177
-177
-177
-176
-176
-176
-176
-176
-176
-176
-176
-175
-175
-174
-175
-174
-174
-173
-173
-173
-173
-173
-172
-173
-172
-172
-172
-172
-173
-173
-173
-174
-174
-174
-175
-175
-175
-176
-176
-177
-177
-177
-177
-178
-178
-179
-179
-179
-179
-180
-180
-180
-181
-181
-180
-180
-180
-180
-180
-180
-180
-179
-179
-179
-179
-179
-179
-178
-178
-178
-178
-178
-177
-177
-176
-176
-175
-175
-174
-174
-173
-172
-173
-172
-173
-172
-172
-172
-172
-172
-172
-173
-174
-174
-174
-175
-175
-175
-175
-175
-175
-175
-175
-175
-174
-174
-174
-174
-173
-172
-172
-171
-171
-170
-169
-169
-168
-168
-167
-167
-166
-167
-167
-167
-168
-168
-169
-170
-171
-172
-174
-176
-177
-178
-180
-181
-182
-184
-185
-185
-186
-187
-188
-187
-188
-187
-187
-187
-188
-188
-188
-187
-187
-187
-187
-187
-187
-187
-186
-185
-185
-184
-184
-184
-184
-184
-184
-184
-184
-184
-184
-184
-184
-183
-183
-182
-183
-182
-182
-182
-182
-182
-182
-182
-182
-183
-183
-183
-184
-185
-185
-185
-186
-186
-186
-187
-188
-187
-188
-188
-188
-188
-187
-187
-186
-186
-185
-185
-184
-184
-183
-183
-182
-182
-182
-181
-181
-181
-180
-180
-181
-181
-181
-182
-182
-183
-184
-185
-185
-186
-187
-188
-188
-189
-189
-190
-190
-190
-190
-190
-189
-188
-189
-188
-187
-187
-187
-187
-186
-186
-185
-185
-185
-184
-185
-184
-184
-184
-184
-183
-183
-183
-183
-183
-183
-182
-182
-182
-182
-182
-180
-181
-181
-180
-181
-182
-183
-184
-186
-189
-192
-198
-203
-210
-218
-227
-237
-249
-262
-276
-292
-308
-325
-343
-361
-380
-400
-419
-438
-456
-473
-488
-503
-516
-527
-538
-546
-553
-559
-563
-564
-564
-563
-559
-554
-547
-540
-532
-523
-514
-504
-493
-484
-473
-463
-452
-443
-433
-423
-414
-405
-396
-388
-379
-371
-362
-355
-347
-339
-331
-322
-315
-307
-299
-292
-286
-279
-271
-265
-260
-254
-249
-244
-240
-235
-231
-227
-224
-220
-218
-214
-211
-209
-206
-204
-201
-199
-196
-193
-191
-188
-186
-183
-180
-178
-176
-173
-171
-169
-166
-165
-163
-162
-160
-158
-156
-155
-154
-152
-151
-150
-150
-150
-149
-149
-150
-149
-149
-148
-148
-148
-148
-148
-150
-150
-150
-150
-151
-152
-152
-153
-154
-155
-156
-155
-155
-155
-155
-155
-154
-154
-153
-153
-153
-153
-151
-151
-151
-150
-148
-148
-148
-147
-147
-146
-146
-146
-145
-144
-144
-144
-144
-144
-144
-145
-145
-146
-146
-147
-147
-148
-149
-149
-149
-149
-149
-149
-149
-149
-148
-147
-147
-147
-146
-145
-146
-145
-144
-144
-143
-143
-143
-142
-142
-142
-141
-141
-140
-139
-139
-138
-137
-137
-136
-136
-136
-135
-136
-135
-135
-135
-136
-136
-135
-135
-136
-135
-135
-134
-134
-134
-133
-133
-132
-132
-132
-131
-131
-132
-132
-131
-130
-130
-129
-128
-128
-127
-126
-125
-125
-123
-122
-121
-119
-118
-116
-114
-114
-112
-111
-110
-109
-108
-107
-105
-105
-104
-102
-102
-101
-99
-99
-98
-97
-96
-95
-93
-93
-93
-91
-90
-89
-89
-89
-87
-87
-86
-85
-84
-84
-83
-82
-82
-81
-81
-80
-80
-80
-80
-81
-81
-81
-81
-80
-81
-81
-80
-80
-79
-79
-78
-78
-78
-78
-79
-79
-79
-79
-80
-80
-81
-82
-83
-84
-85
-86
-88
-89
-91
-92
-94
-95
-96
-98
-100
-101
-102
-104
-106
-106
-108
-110
-112
-113
-114
-116
-118
-119
-121
-123
-124
-126
-127
-129
-131
-133
-136
-137
-140
-142
-144
-146
-149
-151
-153
-155
-156
-158
-160
-161
-162
-163
-164
-165
-166
-167
-168
-169
-169
-171
-171
-173
-174
-174
-174
-175
-175
-176
-176
-177
-177
-178
-178
-179
-179
-180
-181
-181
-182
-183
-183
-184
-184
-185
-186
-187
-187
-187
-187
-187
-187
-188
-188
-188
-188
-189
-188
-188
-188
-188
-188
-188
-188
-188
-188
-189
-188
-188
-189
-189
-190
-189
-190
-191
-192
-192
-193
-193
-195
-195
-195
-195
-195
-195
-196
-196
-196
-196
-196
-196
-194
-193
-193
-193
-191
-191
-190
-190
-189
-189
-188
-188
-187
-187
-186
-186
-185
-185
-184
-184
-183
-183
-183
-182
-182
-182
-182
-182
-183
-183
-184
-184
-185
-185
-186
-185
-185
-186
-186
-186
-187
-187
-187
-188
-188
-188
-189
-189
-189
-190
-189
-189
-189
-190
-189
-190
-189
-189
-189
-189
-190
-190
-191
-190
-191
-190
-190
-191
-190
-190
-191
-191
-190
-191
-191
-191
-191
-190
-190
-189
-188
-188
-188
-187
-187
-187
-186
-186
-186
-186
-186
-186
-186
-187
-187
-188
-189
-190
-191
-192
-192
-193
-193
-194
-195
-195
-196
-197
-198
-198
-198
-198
-198
-198
-198
-198
-197
-196
-195
-195
-194
-193
-192
-193
-191
-192
-192
-191
-192
-191
-192
-192
-192
-191
-192
-192
-192
-193
-193
-192
-193
-193
-193
-193
-193
-193
-193
-194
-194
-195
-196
-197
-197
-197
-197
-198
-198
-199
-199
-200
-201
-201
-201
-201
-202
-203
-203
-204
-204
-204
-204
-205
-205
-204
-204
-204
-204
-203
-203
-202
-202
-202
-201
-200
-201
-200
-200
-200
-200
-200
-200
-201
-201
-201
-201
-201
-201
-202
-202
-202
-202
-202
-202
-202
-202
-202
-202
-202
-201
-201
-201
-200
-200
-199
-199
-199
-199
-199
-198
-199
-198
-198
-198
-197
-197
-198
-197
-197
-197
-197
-198
-198
-199
-199
-200
-200
-200
-201
-201
-201
-201
-200
-201
-201
-201
-201
-201
-201
-201
-201
-201
-201
-201
-201
-201
-201
-201
-201
-202
-202
-202
-202
-202
-201
-201
-201
-201
-202
-203
-203
-204
-204
-205
-205
-206
-206
-206
-205
-205
-205
-205
-205
-205
-205
-204
-204
-203
-203
-202
-203
-203
-202
-201
-201
-200
-199
-198
-198
-197
-197
-196
-196
-195
-196
-195
-195
-195
-196
-196
-196
-197
-198
-198
-198
-200
-200
-199
-199
-199
-200
-199
-201
-201
-202
-203
-204
-205
-207
-210
-213
-218
-223
-229
-237
-244
-254
-263
-275
-286
-299
-312
-327
-342
-358
-374
-390
-407
-423
-437
-449
-463
-473
-483
-491
-499
-505
-509
-511
-511
-509
-506
-501
-495
-488
-479
-470
-461
-451
-441
-430
-420
-409
-399
-389
-380
-371
-362
-354
-346
-339
-332
-326
-320
-314
-308
-302
-297
-292
-287
-283
-279
-274
-269
-266
-262
-257
-253
-248
-245
-241
-237
-234
-231
-227
-225
-222
-220
-218
-215
-214
-212
-211
-208
-206
-205
-203
-202
-201
-199
-197
-195
-194
-192
-191
-189
-188
-187
-186
-185
-184
-183
-183
-182
-181
-180
-179
-179
-178
-178
-177
-176
-175
-175
-174
-174
-175
-174
-174
-175
-175
-175
-175
-175
-174
-174
-175
-175
-175
-175
-174
-174
-173
-173
-173
-173
-172
-172
-172
-172
-171
-171
-171
-170
-169
-169
-168
-168
-167
-167
-166
-166
-166
-166
-166
-166
-166
-166
-166
-166
-166
-167
-168
-169
-168
-169
-170
-170
-170
-170
-170
-170
-169
-169
-169
-169
-168
-168
-168
-168
-168
-168
-167
-167
-167
-166
-166
-166
-165
-164
-164
-163
-163
-163
-163
-162
-162
-161
-161
-160
-160
-160
-160
-159
-158
-158
-157
-157
-157
-156
-156
-155
-154
-155
-154
-154
-153
-153
-153
-152
-152
-152
-152
-153
-152
-152
-152
-153
-152
-151
-150
-150
-150
-149
-148
-148
-147
-146
-146
-145
-144
-143
-141
-140
-139
-138
-136
-134
-134
-131
-130
-128
-127
-125
-123
-123
-121
-120
-119
-118
-116
-116
-115
-114
-114
-113
-114
-114
-113
-113
-112
-112
-111
-111
-110
-110
-109
-109
-108
-108
-107
-107
-106
-105
-104
-104
-102
-101
-100
-100
-99
-98
-97
-97
-96
-95
-95
-95
-94
-95
-95
-95
-95
-96
-96
-96
-97
-98
-99
-100
-100
-102
-102
-103
-104
-104
-107
-108
-109
-111
-112
-114
-115
-116
-117
-118
-119
-121
-122
-124
-125
-126
-127
-129
-129
-131
-132
-133
-134
-135
-138
-139
-141
-143
-145
-147
-149
-151
-153
-155
-157
-159
-161
-163
-165
-167
-169
-170
-172
-173
-175
-176
-178
-179
-180
-181
-182
-183
-183
-184
-184
-185
-185
-186
-187
-187
-188
-189
-190
-191
-192
-193
-194
-195
-196
-196
-197
-197
-198
-197
-198
-197
-198
-197
-198
-197
-197
-197
-196
-196
-196
-196
-196
-195
-195
-196
-195
-195
-196
-196
-196
-196
-196
-196
-197
-196
-196
-197
-197
-197
-196
-197
-197
-198
-198
-199
-199
-199
-199
-199
-199
-199
-198
-199
-198
-199
-199
-199
-199
-199
-199
-200
-199
-199
-198
-199
-199
-199
-198
-198
-198
-197
-197
-197
-197
-196
-196
-196
-196
-195
-196
-196
-195
-194
-194
-194
-193
-193
-193
-193
-193
-193
-192
-192
-192
-192
-192
-192
-192
-193
-193
-194
-195
-194
-195
-195
-195
-195
-194
-194
-194
-193
-193
-192
-192
-192
-192
-191
-190
-191
-191
-191
-192
-192
-192
-192
-192
-193
-193
-194
-196
-196
-197
-196
-197
-197
-197
-198
-199
-198
-199
-199
-199
-199
-198
-199
-199
-198
-198
-198
-198
-197
-196
-196
-196
-195
-195
-195
-196
-196
-195
-196
-195
-196
-196
-195
-196
-196
-197
-196
-197
-197
-197
-198
-197
-197
-198
-199
-198
-199
-199
-200
-201
-201
-200
-201
-201
-201
-200
-201
-201
-200
-200
-200
-200
-200
-200
-200
-199
-200
-200
-201
-201
-202
-202
-202
-202
-203
-204
-204
-204
-205
-206
-206
-207
-207
-208
-208
-208
-208
-208
-208
-209
-209
-209
-209
-209
-208
-208
-207
-207
-206
-206
-205
-205
-205
-203
-204
-204
-203
-203
-203
-203
-202
-202
-202
-202
-202
-202
-202
-201
-200
-200
-200
-199
-199
-198
-198
-197
-198
-198
-198
-197
-198
-197
-198
-197
-197
-197
-198
-197
-198
-198
-197
-197
-198
-197
-197
-197
-197
-197
-197
-197
-197
-197
-197
-197
-197
-197
-197
-197
-196
-196
-197
-196
-196
-196
-196
-197
-197
-197
-196
-196
-197
-196
-196
-196
-196
-195
-195
-195
-194
-194
-194
-193
-194
-193
-193
-194
-194
-194
-194
-195
-194
-195
-196
-195
-196
-196
-196
-196
-197
-196
-197
-196
-196
-196
-196
-196
-196
-197
-196
-196
-196
-196
-195
-195
-195
-194
-193
-193
-192
-193
-191
-191
-191
-191
-190
-190
-189
-189
-190
-189
-189
-190
-190
-191
-191
-191
-190
-190
-191
-189
-190
-189
-189
-188
-188
-188
-188
-189
-190
-191
-193
-195
-197
-201
-205
-210
-216
-223
-231
-240
-251
-262
-276
-289
-303
-318
-334
-351
-369
-386
-404
-421
-439
-454
-468
-482
-495
-505
-515
-522
-530
-534
-538
-539
-540
-538
-533
-529
-523
-516
-509
-499
-491
-481
-471
-460
-450
-441
-430
-421
-411
-402
-394
-385
-377
-369
-361
-354
-346
-339
-332
-325
-319
-312
-305
-299
-291
-285
-280
-273
-269
-262
-258
-253
-249
-244
-240
-236
-233
-230
-227
-224
-222
-219
-217
-215
-211
-209
-206
-204
-201
-198
-195
-193
-189
-187
-185
-182
-180
-178
-176
-173
-171
-169
-167
-166
-165
-163
-162
-160
-159
-159
-158
-158
-158
-157
-157
-157
-157
-156
-157
-157
-156
-156
-157
-157
-157
-156
-156
-155
-155
-155
-155
-154
-154
-154
-153
-154
-153
-153
-153
-152
-153
-153
-152
-152
-151
-151
-151
-151
-151
-150
-150
-149
-149
-149
-149
-148
-148
-149
-147
-147
-147
-146
-145
-145
-145
-144
-143
-143
-142
-142
-142
-142
-142
-141
-141
-141
-141
-141
-141
-140
-140
-141
-141
-141
-141
-141
-141
-141
-141
-141
-140
-140
-140
-140
-139
-139
-140
-139
-139
-139
-139
-139
-138
-137
-137
-135
-135
-134
-134
-134
-133
-133
-133
-132
-131
-131
-130
-130
-129
-128
-127
-126
-125
-124
-123
-122
-121
-119
-118
-117
-116
-115
-113
-113
-112
-111
-111
-110
-110
-109
-108
-108
-106
-106
-105
-105
-104
-102
-101
-100
-99
-98
-97
-96
-95
-94
-92
-90
-90
-88
-88
-86
-85
-84
-83
-81
-80
-78
-77
-75
-74
-73
-72
-71
-70
-69
-68
-67
-66
-65
-64
-63
-62
-61
-60
-59
-58
-57
-57
-57
-56
-56
-57
-56
-57
-57
-58
-59
-59
-61
-61
-62
-63
-64
-64
-64
-64
-65
-65
-65
-65
-65
-65
-65
-66
-66
-67
-67
-67
-67
-68
-69
-70
-71
-72
-73
-74
-76
-77
-79
-81
-83
-86
-88
-90
-93
-95
-98
-101
-103
-106
-108
-110
-113
-115
-117
-120
-121
-124
-126
-128
-130
-132
-134
-135
-138
-139
-142
-144
-145
-147
-148
-150
-151
-152
-154
-155
-157
-158
-159
-160
-162
-163
-164
-163
-164
-166
-167
-168
-169
-171
-172
-173
-174
-175
-176
-176
-177
-177
-178
-179
-180
-180
-181
-181
-182
-183
-183
-184
-184
-184
-184
-184
-184
-183
-183
-183
-183
-182
-182
-182
-182
-181
-182
-181
-181
-181
-181
-180
-181
-181
-181
-181
-180
-180
-180
-180
-180
-180
-180
-179
-179
-179
-179
-179
-180
-180
-180
-180
-180
-180
-180
-180
-179
-179
-180
-179
-178
-178
-178
-177
-177
-176
-177
-176
-176
-176
-176
-176
-175
-175
-175
-175
-176
-175
-175
-176
-175
-174
-174
-175
-175
-174
-175
-175
-176
-175
-176
-177
-177
-177
-176
-177
-176
-177
-177
-177
-177
-176
-175
-175
-175
-175
-174
-174
-174
-174
-174
-174
-174
-174
-175
-175
-175
-175
-175
-176
-176
-176
-177
-177
-177
-177
-178
-177
-177
-177
-177
-177
-177
-177
-177
-177
-177
-176
-175
-175
-175
-175
-175
-175
-176
-176
-177
-177
-176
-177
-177
-178
-178
-177
-177
-177
-177
-176
-176
-175
-176
-175
-174
-174
-173
-172
-172
-171
-171
-171
-171
-171
-171
-171
-170
-170
-170
-170
-171
-170
-171
-171
-171
-171
-170
-171
-171
-171
-171
-172
-172
-172
-172
-173
-173
-173
-173
-173
-172
-173
-173
-172
-172
-172
-173
-173
-173
-173
-173
-174
-175
-175
-174
-174
-174
-174
-174
-173
-173
-173
-173
-172
-173
-173
-173
-173
-174
-174
-175
-175
-176
-178
-178
-179
-179
-181
-181
-182
-182
-183
-183
-183
-184
-184
-184
-184
-184
-184
-185
-184
-184
-183
-183
-183
-183
-183
-182
-182
-182
-181
-181
-181
-181
-181
-181
-181
-181
-182
-182
-182
-183
-183
-183
-182
-182
-182
-182
-182
-182
-181
-182
-181
-182
-182
-182
-182
-182
-183
-183
-183
-183
-182
-183
-183
-184
-184
-183
-183
-183
-184
-183
-183
-183
-183
-183
-184
-183
-183
-183
-183
-183
-183
-183
-183
-183
-183
-183
-182
-182
-183
-182
-182
-182
-182
-182
-182
-182
-182
-181
-182
-182
-182
-182
-182
-182
-181
-181
-181
-181
-180
-180
-180
-180
-180
-181
-181
-181
-181
-181
-181
-182
-182
-182
-183
-184
-184
-184
-184
-184
-184
-184
-184
-184
-183
-183
-182
-182
-181
-181
-180
-179
-179
-178
-177
-176
-174
-173
-171
-169
-168
-166
-166
-166
-167
-168
-170
-172
-176
-180
-187
-194
-203
-212
-224
-236
-251
-265
-281
-300
-318
-337
-357
-377
-398
-419
-440
-460
-479
-496
-513
-527
-540
-552
-562
-570
-578
-583
-586
-588
-587
-584
-581
-576
-570
-563
-555
-547
-537
-529
-520
-509
-499
-490
-480
-469
-460
-451
-441
-431
-422
-412
-403
-394
-386
-377
-368
-359
-351
-343
-334
-327
-319
-311
-303
-295
-288
-282
-275
-268
-262
-255
-249
-244
-239
-233
-229
-225
-221
-217
-214
-210
-206
-202
-199
-195
-192
-188
-186
-182
-180
-176
-173
-170
-167
-164
-162
-159
-157
-155
-152
-151
-149
-147
-146
-145
-144
-142
-141
-140
-140
-140
-139
-139
-138
-137
-137
-137
-136
-137
-136
-137
-137
-137
-137
-137
-137
-137
-137
-137
-137
-138
-138
-138
-137
-137
-136
-136
-136
-136
-136
-136
-136
-136
-136
-135
-135
-134
-134
-134
-134
-133
-134
-133
-134
-134
-135
-134
-135
-134
-134
-134
-133
-133
-132
-131
-131
-130
-128
-127
-127
-125
-124
-124
-123
-123
-123
-122
-122
-122
-122
-122
-122
-123
-123
-123
-124
-125
-124
-125
-124
-124
-124
-123
-123
-122
-122
-121
-121
-120
-120
-119
-119
-117
-117
-116
-116
-115
-115
-114
-114
-113
-112
-112
-111
-110
-110
-109
-108
-108
-108
-108
-106
-106
-105
-104
-103
-102
-101
-100
-99
-98
-97
-95
-94
-92
-91
-90
-89
-88
-87
-87
-85
-84
-83
-83
-81
-80
-79
-78
-78
-76
-75
-75
-74
-73
-72
-72
-70
-70
-69
-68
-67
-65
-63
-63
-61
-59
-58
-56
-54
-52
-50
-49
-48
-46
-46
-45
-44
-43
-43
-42
-43
-43
-42
-42
-43
-43
-44
-44
-45
-45
-45
-46
-46
-46
-47
-47
-47
-47
-47
-48
-48
-49
-49
-49
-49
-49
-49
-49
-49
-49
-49
-50
-51
-51
-52
-52
-53
-55
-56
-58
-58
-60
-61
-63
-66
-68
-69
-72
-73
-75
-77
-80
-82
-85
-86
-89
-92
-95
-97
-100
-103
-105
-108
-110
-112
-114
-116
-118
-119
-121
-123
-124
-127
-128
-130
-131
-134
-135
-137
-138
-141
-143
-144
-146
-148
-150
-152
-154
-155
-157
-158
-160
-161
-162
-163
-164
-165
-166
-166
-167
-167
-168
-168
-169
-169
-169
-170
-170
-170
-170
-170
-170
-170
-170
-171
-172
-171
-172
-172
-173
-173
-173
-173
-174
-174
-174
-174
-174
-174
-174
-174
-174
-175
-176
-175
-175
-175
-175
-175
-175
-175
-174
-174
-174
-173
-172
-172
-171
-170
-170
-168
-168
-167
-167
-167
-167
-167
-167
-167
-166
-167
-167
-167
-167
-167
-167
-168
-168
-168
-167
-167
-167
-167
-167
-167
-167
-167
-167
-167
-167
-167
-167
-168
-168
-168
-169
-169
-169
-169
-169
-169
-170
-170
-170
-170
-171
-171
-171
-171
-171
-171
-171
-171
-170
-171
-171
-171
-171
-170
-170
-170
-169
-169
-168
-168
-168
-168
-168
-168
-168
-168
-167
-167
-167
-167
-167
-166
-167
-166
-166
-165
-165
-166
-166
-166
-166
-166
-167
-166
-167
-167
-166
-166
-166
-165
-165
-164
-164
-163
-163
-162
-162
-162
-161
-161
-162
-162
-162
-163
-163
-164
-164
-166
-167
-167
-168
-169
-170
-171
-171
-172
-173
-173
-174
-175
-174
-175
-175
-174
-173
-173
-173
-172
-172
-171
-171
-171
-169
-170
-168
-168
-167
-166
-166
-165
-164
-164
-164
-163
-163
-163
-163
-162
-162
-161
-161
-160
-160
-159
-159
-157
-158
-158
-158
-157
-158
-158
-158
-158
-158
-159
-159
-160
-161
-161
-161
-162
-162
-163
-163
-164
-163
-163
-163
-164
-164
-164
-166
-165
-167
-167
-167
-168
-168
-168
-169
-169
-170
-170
-169
-170
-170
-171
-172
-172
-172
-172
-173
-174
-175
-175
-175
-175
-175
-176
-175
-176
-175
-176
-175
-175
-175
-175
-175
-175
-175
-174
-175
-175
-175
-176
-176
-176
-177
-177
-178
-178
-178
-178
-179
-179
-180
-180
-179
-179
-179
-179
-179
-180
-180
-179
-179
-178
-178
-178
-178
-177
-177
-176
-176
-175
-174
-174
-174
-173
-172
-172
-172
-171
-171
-171
-171
-172
-171
-172
-172
-172
-173
-172
-172
-173
-172
-173
-174
-174
-175
-175
-176
-176
-176
-177
-177
-177
-176
-177
-176
-177
-176
-177
-176
-176
-175
-175
-175
-174
-174
-174
-174
-174
-174
-174
-174
-174
-174
-174
-174
-173
-173
-172
-171
-172
-171
-170
-170
-170
-170
-170
-170
-170
-170
-170
-171
-171
-171
-170
-170
-170
-170
-169
-168
-168
-167
-167
-166
-166
-167
-168
-170
-172
-176
-180
-186
-194
-203
-212
-224
-236
-250
-265
-282
-300
-319
-339
-360
-382
-404
-427
-448
-469
-489
-507
-524
-540
-554
-566
-577
-585
-592
-596
-600
-601
-600
-598
-594
-589
-583
-576
-569
-560
-551
-541
-532
-522
-511
-501
-491
-481
-470
-461
-451
-441
-431
-422
-412
-402
-393
-384
-376
-366
-357
-349
-339
-331
-323
-314
-306
-298
-290
-283
-275
-269
-263
-257
-250
-245
-239
-235
-229
-224
-221
-216
-212
-208
-204
-200
-195
-192
-188
-185
-181
-177
-173
-170
-166
-162
-159
-156
-153
-150
-147
-144
-142
-140
-138
-136
-135
-133
-133
-132
-132
-131
-130
-131
-131
-131
-131
-131
-132
-134
-134
-135
-136
-136
-136
-137
-137
-136
-136
-135
-135
-134
-133
-133
-133
-132
-132
-132
-130
-130
-130
-131
-131
-131
-130
-131
-131
-131
-130
-130
-129
-129
-128
-129
-128
-127
-126
-126
-126
-126
-125
-124
-125
-124
-123
-124
-123
-122
-123
-122
-121
-121
-120
-120
-120
-119
-119
-118
-118
-118
-118
-118
-116
-116
-116
-115
-114
-114
-113
-113
-112
-112
-111
-111
-112
-112
-112
-112
-111
-112
-113
-112
-113
-113
-114
-113
-113
-113
-113
-113
-113
-112
-111
-111
-111
-110
-109
-109
-108
-108
-108
-107
-106
-106
-105
-104
-103
-102
-101
-100
-99
-98
-97
-96
-95
-94
-93
-91
-90
-89
-87
-86
-84
-83
-82
-80
-79
-78
-76
-74
-73
-72
-70
-68
-66
-65
-63
-62
-60
-59
-58
-57
-55
-54
-53
-52
-51
-49
-48
-46
-45
-43
-43
-40
-40
-39
-38
-37
-37
-37
-36
-37
-37
-37
-36
-37
-37
-37
-37
-39
-40
-41
-42
-44
-44
-44
-46
-46
-47
-47
-48
-48
-49
-48
-49
-49
-49
-49
-48
-49
-48
-48
-48
-49
-48
-49
-50
-50
-52
-52
-53
-55
-56
-58
-59
-60
-62
-63
-65
-66
-68
-70
-72
-74
-75
-78
-80
-81
-84
-87
-88
-90
-93
-96
-98
-101
-104
-105
-107
-110
-111
-114
-115
-117
-119
-120
-123
-124
-126
-128
-129
-131
-134
-135
-137
-139
-140
-142
-143
-146
-147
-148
-150
-152
-153
-154
-156
-157
-158
-159
-160
-161
-162
-163
-163
-164
-164
-164
-164
-164
-164
-165
-165
-165
-166
-166
-166
-167
-167
-167
-167
-167
-167
-168
-168
-168
-169
-168
-168
-168
-168
-168
-168
-167
-168
-168
-168
-168
-169
-169
-169
-169
-169
-170
-169
-169
-169
-169
-169
-169
-168
-168
-168
-167
-167
-166
-166
-166
-165
-165
-165
-164
-163
-162
-162
-160
-161
-160
-159
-160
-160
-160
-161
-161
-161
-163
-164
-164
-165
-166
-167
-168
-169
-170
-171
-172
-172
-173
-173
-174
-173
-173
-173
-172
-171
-171
-169
-169
-169
-167
-167
-166
-166
-165
-165
-164
-163
-163
-162
-161
-161
-160
-159
-159
-158
-158
-157
-158
-158
-158
-159
-160
-160
-160
-161
-161
-162
-162
-163
-163
-164
-164
-164
-165
-165
-165
-165
-166
-166
-167
-166
-166
-166
-166
-166
-166
-165
-165
-165
-164
-164
-164
-164
-163
-162
-162
-162
-162
-162
-161
-161
-161
-161
-161
-161
-161
-161
-161
-161
-160
-160
-159
-159
-159
-159
-158
-158
-159
-159
-160
-161
-161
-161
-161
-161
-162
-162
-163
-163
-163
-163
-163
-163
-164
-164
-164
-165
-164
-166
-166
-165
-166
-165
-165
-165
-166
-165
-164
-165
-164
-165
-164
-163
-164
-163
-163
-164
-163
-163
-163
-163
-163
-162
-161
-161
-161
-160
-159
-159
-158
-158
-157
-156
-155
-155
-154
-154
-154
-153
-154
-153
-153
-153
-152
-151
-151
-150
-149
-148
-148
-148
-148
-149
-149
-150
-151
-153
-155
-156
-158
-160
-162
-164
-166
-169
-170
-173
-175
-177
-178
-179
-179
-181
-180
-181
-180
-180
-179
-179
-178
-178
-177
-176
-175
-174
-173
-173
-173
-171
-171
-171
-171
-170
-171
-170
-170
-170
-170
-170
-170
-171
-171
-171
-172
-172
-173
-173
-173
-173
-174
-174
-174
-174
-174
-174
-175
-175
-176
-176
-176
-177
-176
-177
-177
-177
-177
-176
-176
-175
-175
-175
-174
-174
-174
-173
-173
-172
-172
-172
-172
-171
-171
-171
-170
-170
-171
-170
-170
-170
-170
-170
-170
-171
-171
-172
-172
-172
-172
-173
-173
-174
-174
-174
-176
-175
-176
-176
-176
-176
-175
-176
-176
-174
-174
-175
-174
-173
-173
-172
-171
-170
-171
-169
-169
-168
-169
-168
-167
-167
-167
-167
-166
-166
-167
-167
-168
-168
-169
-169
-170
-170
-170
-170
-169
-169
-168
-168
-167
-166
-166
-166
-167
-168
-170
-172
-177
-182
-188
-196
-206
-217
-230
-244
-259
-275
-293
-312
-331
-353
-375
-397
-419
-442
-464
-484
-503
-521
-537
-552
-565
-577
-587
-596
-602
-607
-611
-611
-610
-608
-604
-598
-591
-584
-576
-568
-558
-548
-539
-528
-517
-507
-497
-485
-475
-465
-454
-444
-433
-423
-412
-401
-391
-380
-370
-361
-352
-342
-333
-324
-316
-308
-299
-291
-283
-276
-269
-262
-255
-248
-243
-237
-232
-226
-222
-217
-213
-209
-205
-202
-198
-196
-192
-190
-187
-184
-182
-179
-176
-173
-171
-169
-166
-164
-161
-159
-156
-154
-152
-149
-147
-145
-143
-142
-140
-139
-137
-136
-135
-134
-132
-131
-130
-130
-129
-128
-128
-128
-128
-127
-127
-127
-127
-128
-128
-128
-128
-128
-127
-126
-126
-126
-126
-125
-126
-126
-126
-126
-127
-126
-127
-126
-126
-126
-126
-126
-126
-126
-126
-126
-126
-126
-126
-126
-126
-126
-126
-126
-126
-126
-126
-126
-125
-124
-124
-124
-124
-123
-122
-121
-121
-119
-119
-118
-116
-116
-115
-114
-114
-113
-114
-115
-115
-116
-116
-117
-118
-118
-119
-119
-118
-119
-119
-120
-120
-120
-119
-120
-118
-119
-117
-117
-116
-115
-114
-112
-110
-108
-107
-106
-105
-103
-102
-101
-100
-99
-98
-97
-96
-96
-94
-94
-93
-92
-91
-90
-89
-88
-87
-85
-85
-84
-83
-82
-81
-81
-79
-78
-77
-77
-77
-75
-75
-75
-73
-73
-73
-71
-70
-69
-69
-67
-66
-65
-63
-63
-62
-61
-61
-60
-59
-58
-58
-56
-55
-55
-55
-53
-53
-53
-51
-50
-49
-48
-47
-46
-45
-44
-44
-42
-42
-41
-40
-40
-39
-38
-37
-37
-36
-36
-35
-34
-35
-34
-34
-35
-36
-37
-37
-39
-39
-40
-42
-42
-43
-44
-46
-47
-48
-49
-51
-52
-53
-54
-56
-57
-58
-60
-61
-63
-65
-67
-67
-69
-71
-72
-73
-75
-77
-78
-80
-81
-84
-85
-86
-88
-89
-91
-92
-95
-96
-98
-100
-101
-103
-105
-106
-108
-109
-111
-114
-117
-119
-122
-124
-127
-130
-133
-135
-139
-142
-146
-148
-151
-154
-156
-158
-161
-162
-164
-165
-165
-166
-166
-166
-165
-165
-164
-163
-163
-162
-162
-161
-160
-160
-159
-159
-158
-158
-157
-157
-158
-158
-157
-158
-158
-159
-159
-160
-160
-161
-162
-162
-162
-164
-164
-165
-165
-166
-166
-166
-167
-167
-167
-167
-168
-168
-169
-169
-169
-169
-169
-170
-170
-170
-170
-169
-170
-170
-170
-170
-169
-168
-168
-169
-168
-168
-168
-168
-168
-169
-169
-168
-169
-168
-168
-168
-167
-168
-168
-167
-167
-168
-167
-167
-167
-167
-167
-167
-166
-166
-167
-166
-166
-166
-166
-166
-166
-166
-167
-166
-166
-166
-166
-166
-166
-166
-167
-166
-166
-167
-167
-168
-168
-167
-168
-169
-169
-168
-168
-168
-168
-169
-168
-168
-169
-169
-169
-169
-169
-169
-169
-169
-169
-169
-168
-168
-167
-167
-167
-165
-165
-165
-164
-164
-164
-164
-164
-164
-164
-165
-165
-165
-166
-166
-166
-167
-167
-168
-168
-168
-168
-168
-167
-166
-164
-164
-163
-162
-161
-160
-160
-160
-160
-159
-160
-161
-161
-161
-162
-162
-163
-165
-165
-168
-169
-171
-172
-173
-175
-176
-177
-178
-178
-178
-177
-176
-176
-176
-174
-173
-172
-170
-169
-169
-168
-167
-166
-165
-165
-164
-164
-164
-162
-162
-162
-161
-160
-160
-160
-159
-158
-157
-157
-156
-155
-155
-154
-154
-154
-153
-153
-153
-153
-153
-153
-153
-152
-152
-152
-153
-153
-153
-154
-154
-154
-155
-156
-157
-158
-158
-159
-160
-161
-162
-163
-163
-164
-165
-167
-167
-168
-169
-170
-170
-171
-172
-172
-173
-173
-174
-175
-175
-176
-176
-177
-178
-178
-177
-177
-177
-176
-176
-176
-176
-176
-175
-176
-176
-177
-177
-178
-178
-177
-177
-178
-177
-177
-177
-177
-177
-177
-177
-177
-177
-176
-176
-176
-176
-175
-176
-176
-177
-177
-177
-178
-179
-179
-179
-180
-181
-180
-181
-181
-182
-182
-182
-182
-182
-182
-181
-180
-180
-179
-177
-176
-175
-176
-174
-174
-173
-173
-172
-172
-171
-171
-171
-172
-171
-171
-172
-173
-173
-174
-174
-174
-174
-175
-175
-174
-174
-173
-173
-172
-173
-171
-171
-172
-171
-171
-172
-172
-172
-173
-173
-174
-174
-175
-176
-177
-177
-179
-180
-180
-181
-182
-182
-182
-182
-182
-182
-182
-181
-181
-179
-179
-178
-178
-176
-175
-175
-173
-172
-171
-170
-169
-167
-167
-166
-165
-166
-166
-167
-169
-171
-174
-177
-182
-188
-196
-206
-216
-228
-241
-255
-270
-287
-306
-325
-346
-367
-389
-411
-433
-454
-473
-492
-509
-526
-541
-553
-565
-576
-583
-591
-595
-597
-598
-596
-595
-590
-585
-578
-571
-562
-553
-544
-534
-523
-512
-501
-490
-479
-469
-457
-447
-436
-426
-415
-406
-395
-386
-377
-368
-359
-350
-342
-332
-324
-316
-308
-300
-292
-285
-278
-271
-264
-257
-251
-245
-239
-233
-229
-224
-219
-215
-211
-207
-203
-200
-197
-193
-190
-187
-185
-182
-180
-178
-175
-173
-171
-168
-167
-165
-162
-159
-157
-154
-152
-149
-148
-145
-143
-141
-139
-138
-136
-136
-135
-134
-135
-135
-135
-136
-135
-136
-136
-137
-137
-137
-137
-137
-138
-137
-138
-138
-138
-138
-138
-137
-137
-137
-137
-137
-137
-137
-136
-136
-136
-135
-135
-134
-134
-133
-133
-133
-132
-132
-133
-132
-133
-132
-133
-132
-132
-133
-133
-133
-133
-133
-133
-133
-133
-133
-133
-133
-133
-133
-132
-132
-132
-132
-132
-131
-131
-131
-131
-131
-130
-130
-130
-130
-129
-129
-128
-128
-127
-127
-127
-126
-126
-126
-126
-125
-124
-124
-124
-123
-121
-121
-120
-119
-119
-118
-118
-119
-118
-118
-118
-118
-117
-117
-117
-116
-117
-117
-116
-116
-115
-115
-114
-114
-113
-112
-111
-110
-110
-109
-108
-108
-106
-106
-105
-105
-103
-103
-102
-100
-100
-99
-98
-97
-96
-96
-95
-94
-94
-93
-91
-91
-89
-88
-88
-86
-85
-85
-84
-83
-81
-80
-78
-76
-75
-73
-72
-70
-69
-69
-67
-67
-66
-66
-66
-66
-66
-65
-66
-65
-65
-66
-66
-66
-66
-66
-66
-66
-66
-66
-65
-65
-65
-65
-64
-64
-64
-63
-63
-62
-63
-62
-62
-62
-62
-62
-62
-63
-65
-65
-67
-69
-70
-72
-74
-76
-77
-79
-81
-82
-84
-85
-87
-88
-89
-91
-92
-94
-94
-95
-96
-97
-98
-99
-100
-102
-104
-106
-107
-110
-111
-114
-116
-117
-119
-120
-123
-126
-128
-130
-132
-134
-136
-139
-141
-142
-144
-146
-147
-148
-150
-150
-151
-153
-153
-154
-155
-156
-157
-158
-159
-160
-161
-161
-163
-163
-164
-165
-166
-166
-166
-168
-169
-169
-170
-170
-170
-171
-171
-172
-172
-173
-174
-174
-175
-175
-175
-175
-176
-177
-176
-176
-176
-176
-176
-176
-176
-176
-175
-176
-175
-175
-175
-175
-175
-174
-174
-174
-175
-175
-175
-175
-175
-175
-175
-175
-175
-176
-175
-175
-176
-176
-176
-176
-177
-176
-177
-177
-177
-176
-175
-175
-175
-174
-173
-172
-172
-172
-171
-171
-171
-171
-171
-171
-172
-171
-172
-173
-173
-173
-174
-175
-176
-175
-176
-176
-178
-178
-178
-179
-179
-180
-180
-180
-181
-181
-182
-182
-182
-182
-181
-180
-180
-180
-179
-179
-178
-178
-177
-177
-177
-176
-176
-176
-176
-176
-176
-176
-176
-177
-177
-177
-178
-179
-179
-180
-181
-181
-181
-182
-182
-182
-182
-182
-182
-182
-182
-182
-182
-181
-180
-179
-178
-177
-177
-176
-175
-175
-175
-175
-174
-175
-175
-175
-176
-176
-177
-177
-178
-178
-178
-179
-179
-179
-180
-179
-180
-180
-180
-181
-181
-182
-181
-181
-181
-182
-182
-182
-182
-182
-182
-182
-181
-182
-181
-181
-180
-180
-181
-181
-181
-181
-180
-181
-181
-181
-180
-181
-181
-181
-181
-181
-180
-181
-180
-180
-180
-180
-179
-180
-179
-179
-178
-178
-178
-178
-178
-178
-178
-177
-177
-178
-178
-177
-178
-178
-178
-178
-178
-178
-177
-178
-178
-178
-179
-180
-180
-180
-180
-181
-181
-181
-182
-182
-182
-183
-183
-183
-184
-184
-185
-184
-184
-185
-185
-185
-186
-187
-186
-186
-187
-186
-187
-186
-187
-186
-187
-186
-187
-187
-187
-189
-189
-189
-190
-190
-190
-190
-190
-190
-189
-189
-188
-188
-187
-186
-185
-185
-184
-184
-183
-184
-184
-184
-185
-185
-186
-186
-187
-187
-187
-187
-187
-189
-189
-188
-189
-190
-190
-190
-190
-189
-190
-189
-189
-188
-187
-186
-185
-183
-182
-182
-182
-181
-181
-182
-182
-183
-183
-182
-183
-184
-185
-186
-188
-188
-189
-189
-190
-191
-191
-191
-191
-191
-191
-191
-190
-190
-189
-188
-189
-189
-188
-188
-188
-188
-187
-187
-187
-187
-186
-186
-186
-186
-186
-186
-186
-186
-185
-185
-184
-184
-184
-185
-185
-184
-185
-185
-185
-185
-186
-185
-185
-185
-186
-186
-185
-185
-186
-186
-185
-184
-183
-183
-182
-182
-182
-182
-183
-184
-184
-187
-190
-193
-197
-202
-209
-216
-226
-236
-246
-259
-273
-287
-302
-318
-336
-353
-372
-389
-407
-424
-440
-453
-467
-479
-490
-498
-507
-513
-519
-522
-524
-523
-522
-517
-512
-506
-498
-490
-481
-472
-461
-452
-442
-432
-423
-414
-406
-397
-390
-381
-375
-367
-360
-354
-347
-340
-334
-327
-321
-314
-309
-302
-295
-289
-283
-276
-269
-263
-257
-251
-246
-240
-236
-231
-227
-223
-219
-215
-212
-209
-206
-204
-202
-200
-197
-195
-193
-192
-190
-188
-185
-184
-182
-180
-178
-176
-174
-172
-170
-168
-167
-165
-163
-162
-160
-159
-158
-158
-158
-158
-157
-156
-156
-156
-156
-155
-154
-154
-154
-154
-154
-154
-153
-153
-152
-152
-152
-151
-151
-151
-152
-151
-152
-151
-152
-151
-152
-152
-153
-153
-154
-154
-154
-154
-154
-155
-155
-155
-156
-156
-156
-156
-156
-156
-156
-157
-157
-157
-156
-156
-155
-155
-154
-153
-153
-153
-152
-152
-151
-151
-151
-150
-150
-150
-150
-149
-149
-148
-148
-147
-147
-146
-146
-146
-146
-145
-146
-145
-145
-145
-145
-145
-146
-146
-146
-146
-147
-147
-148
-148
-148
-148
-148
-148
-147
-147
-147
-146
-146
-146
-145
-145
-143
-143
-142
-141
-139
-138
-137
-136
-135
-134
-132
-132
-130
-130
-128
-128
-126
-126
-125
-124
-124
-123
-123
-123
-122
-121
-121
-119
-119
-118
-117
-116
-115
-114
-114
-113
-112
-111
-110
-110
-110
-108
-108
-106
-105
-104
-103
-101
-100
-100
-99
-98
-97
-95
-94
-93
-92
-92
-91
-90
-89
-89
-88
-88
-88
-88
-87
-87
-86
-86
-85
-85
-84
-84
-84
-83
-83
-82
-82
-81
-80
-80
-79
-78
-77
-77
-76
-76
-76
-75
-75
-75
-76
-76
-78
-78
-80
-81
-83
-83
-85
-87
-88
-90
-91
-93
-94
-95
-97
-97
-98
-99
-101
-101
-102
-103
-103
-105
-106
-106
-108
-107
-109
-109
-111
-112
-114
-115
-117
-119
-120
-122
-124
-127
-130
-132
-135
-138
-140
-144
-146
-149
-153
-155
-158
-160
-162
-164
-166
-168
-169
-170
-171
-172
-173
-174
-175
-175
-177
-177
-178
-178
-178
-179
-179
-179
-180
-180
-180
-180
-181
-180
-181
-181
-182
-183
-183
-184
-185
-186
-187
-188
-188
-189
-190
-190
-191
-192
-192
-193
-193
-193
-193
-193
-193
-194
-193
-192
-192
-193
-192
-191
-191
-190
-190
-189
-189
-188
-187
-187
-187
-187
-187
-187
-187
-187
-188
-188
-188
-188
-189
-190
-190
-191
-191
-191
-191
-191
-191
-192
-191
-191
-190
-190
-190
-189
-189
-189
-189
-190
-190
-190
-190
-190
-192
-192
-192
-192
-194
-194
-194
-194
-194
-194
-194
-194
-194
-193
-193
-193
-192
-193
-191
-191
-191
-190
-189
-188
-187
-187
-187
-187
-188
-188
-188
-188
-188
-189
-189
-190
-190
-190
-191
-191
-191
-192
-192
-192
-191
-191
-190
-190
-189
-187
-186
