# Simple Text Format
# Sampling Rate (Hz):= 1200.00
# Resolution:= 12
# Labels:= ECG	III
# Age:=	83
# Gender:=	Feminino
-25
-24
-23
-22
-21
-20
-20
-20
-20
-20
-20
-20
-20
-20
-20
-20
-19
-19
-19
-19
-19
-19
-19
-19
-19
-19
-20
-20
-21
-22
-23
-24
-25
-27
-28
-29
-30
-31
-31
-31
-31
-30
-30
-30
-30
-30
-30
-29
-28
-28
-27
-26
-25
-24
-24
-24
-23
-23
-22
-22
-21
-20
-19
-18
-18
-17
-16
-16
-15
-15
-15
-15
-14
-14
-14
-14
-14
-14
-15
-15
-15
-15
-16
-17
-18
-19
-20
-21
-23
-24
-25
-27
-27
-28
-29
-30
-31
-31
-31
-31
-31
-31
-31
-31
-31
-31
-30
-30
-30
-30
-31
-31
-32
-32
-32
-33
-33
-34
-34
-35
-35
-36
-37
-38
-38
-39
-40
-41
-42
-43
-44
-46
-47
-47
-48
-49
-50
-50
-50
-50
-50
-49
-49
-50
-49
-49
-49
-49
-49
-48
-48
-48
-48
-48
-48
-48
-48
-48
-48
-47
-47
-46
-46
-45
-44
-43
-42
-41
-40
-39
-38
-37
-36
-35
-34
-33
-32
-31
-30
-29
-28
-28
-28
-28
-28
-28
-28
-29
-29
-30
-30
-31
-31
-31
-30
-30
-30
-30
-29
-29
-28
-27
-26
-24
-23
-21
-20
-19
-18
-17
-17
-17
-16
-16
-16
-16
-16
-16
-17
-17
-18
-18
-19
-20
-21
-22
-22
-23
-24
-25
-26
-26
-27
-27
-27
-27
-28
-28
-27
-27
-26
-25
-25
-24
-24
-24
-24
-25
-26
-26
-28
-29
-29
-30
-31
-32
-32
-33
-33
-34
-33
-32
-31
-29
-27
-24
-21
-18
-14
-11
-7
-3
0
4
9
13
17
21
24
26
28
29
28
27
25
21
16
10
2
-7
-20
-35
-52
-71
-92
-115
-139
-164
-191
-219
-247
-277
-308
-339
-370
-400
-430
-459
-487
-512
-537
-559
-580
-598
-614
-627
-638
-647
-653
-657
-659
-659
-657
-654
-650
-643
-636
-628
-618
-608
-597
-585
-572
-559
-546
-532
-517
-502
-487
-472
-456
-440
-425
-409
-394
-378
-363
-348
-334
-319
-305
-291
-277
-263
-250
-237
-224
-211
-199
-187
-175
-163
-152
-142
-131
-122
-113
-104
-96
-89
-83
-77
-72
-67
-62
-58
-55
-52
-50
-47
-45
-43
-42
-41
-40
-39
-39
-39
-38
-38
-38
-38
-37
-37
-37
-36
-36
-35
-35
-34
-33
-32
-31
-30
-29
-28
-28
-27
-27
-26
-26
-26
-25
-25
-24
-24
-24
-24
-24
-24
-23
-23
-22
-23
-23
-23
-23
-24
-24
-24
-25
-26
-26
-27
-27
-28
-28
-28
-27
-27
-27
-26
-26
-26
-26
-26
-26
-26
-26
-26
-26
-26
-26
-26
-26
-26
-26
-26
-26
-26
-26
-26
-26
-27
-27
-27
-27
-27
-27
-27
-28
-28
-28
-28
-28
-28
-28
-28
-27
-27
-26
-26
-25
-24
-23
-22
-22
-21
-21
-20
-20
-20
-19
-19
-18
-18
-18
-18
-17
-17
-17
-16
-17
-17
-17
-17
-18
-18
-18
-18
-19
-20
-20
-20
-21
-22
-22
-22
-21
-21
-20
-20
-19
-19
-19
-18
-17
-16
-15
-14
-14
-13
-12
-11
-11
-10
-9
-8
-8
-7
-6
-4
-4
-3
-2
-2
-2
-1
-1
-1
-2
-2
-2
-3
-3
-3
-4
-4
-4
-4
-4
-4
-4
-5
-4
-4
-4
-5
-5
-5
-6
-7
-7
-7
-7
-7
-8
-8
-8
-8
-8
-8
-8
-9
-9
-9
-9
-9
-9
-10
-10
-11
-12
-12
-12
-12
-13
-13
-13
-14
-14
-15
-16
-17
-18
-20
-21
-23
-24
-26
-27
-28
-29
-31
-32
-34
-35
-36
-37
-38
-38
-38
-39
-39
-39
-39
-39
-39
-40
-40
-41
-42
-43
-44
-45
-46
-47
-47
-47
-48
-48
-48
-49
-50
-50
-50
-50
-50
-50
-50
-51
-51
-51
-51
-51
-51
-51
-51
-51
-50
-50
-50
-50
-51
-51
-51
-52
-52
-53
-54
-54
-55
-56
-56
-57
-58
-58
-59
-59
-59
-59
-59
-58
-58
-58
-57
-57
-57
-57
-57
-57
-57
-56
-56
-55
-55
-55
-54
-54
-54
-54
-53
-53
-53
-52
-52
-52
-52
-53
-53
-54
-54
-55
-55
-56
-57
-57
-58
-59
-59
-60
-60
-60
-60
-60
-60
-60
-61
-61
-62
-62
-62
-62
-62
-62
-61
-61
-60
-60
-60
-59
-59
-58
-58
-57
-57
-56
-56
-55
-55
-55
-54
-54
-53
-53
-53
-52
-52
-51
-51
-50
-49
-49
-49
-48
-48
-48
-49
-49
-49
-49
-49
-49
-50
-50
-50
-50
-50
-50
-50
-50
-49
-48
-48
-47
-46
-45
-44
-44
-43
-42
-42
-41
-40
-40
-39
-38
-38
-37
-36
-36
-35
-34
-34
-34
-33
-33
-33
-34
-34
-34
-34
-35
-35
-35
-35
-35
-35
-35
-35
-35
-35
-35
-35
-36
-36
-36
-36
-37
-37
-38
-38
-39
-40
-40
-41
-42
-42
-42
-42
-42
-42
-42
-42
-41
-41
-41
-41
-40
-40
-40
-39
-39
-39
-38
-38
-38
-38
-38
-37
-37
-37
-37
-37
-36
-36
-36
-36
-36
-36
-36
-37
-37
-37
-37
-38
-38
-38
-38
-38
-37
-36
-36
-35
-35
-34
-34
-34
-33
-33
-33
-33
-33
-32
-32
-33
-33
-33
-33
-34
-34
-35
-36
-37
-38
-40
-41
-42
-44
-45
-47
-49
-50
-51
-53
-54
-55
-55
-56
-56
-56
-56
-57
-57
-57
-57
-58
-58
-59
-59
-60
-60
-61
-61
-61
-62
-62
-63
-63
-64
-64
-64
-64
-65
-65
-65
-65
-65
-66
-66
-66
-66
-67
-67
-67
-67
-67
-66
-66
-65
-64
-62
-61
-60
-59
-58
-57
-56
-55
-54
-53
-52
-51
-50
-50
-50
-49
-49
-49
-49
-49
-49
-49
-49
-50
-50
-50
-50
-51
-51
-51
-52
-52
-52
-51
-51
-51
-50
-49
-48
-47
-46
-45
-44
-43
-42
-41
-40
-39
-38
-38
-38
-38
-38
-38
-38
-38
-38
-38
-38
-39
-39
-40
-40
-41
-42
-43
-43
-44
-44
-45
-45
-45
-46
-46
-46
-46
-46
-45
-45
-44
-43
-42
-42
-41
-40
-40
-39
-39
-39
-39
-39
-38
-38
-38
-38
-38
-38
-37
-37
-37
-36
-36
-35
-33
-32
-30
-28
-26
-23
-20
-18
-15
-12
-9
-6
-3
0
3
6
9
12
13
14
14
14
12
10
6
1
-4
-12
-23
-35
-50
-68
-87
-107
-130
-154
-179
-205
-233
-262
-291
-321
-352
-382
-412
-441
-468
-495
-520
-543
-564
-583
-599
-613
-625
-634
-642
-647
-650
-652
-652
-650
-647
-643
-637
-630
-622
-614
-604
-594
-583
-572
-560
-547
-533
-519
-504
-489
-474
-458
-442
-426
-410
-394
-379
-363
-347
-332
-317
-301
-287
-272
-258
-243
-229
-216
-203
-190
-178
-166
-155
-144
-134
-124
-115
-106
-98
-91
-83
-76
-70
-64
-59
-54
-49
-45
-41
-38
-35
-33
-31
-28
-26
-25
-23
-22
-22
-21
-21
-21
-20
-20
-19
-18
-18
-17
-17
-16
-16
-16
-16
-15
-15
-16
-16
-17
-17
-18
-18
-18
-18
-19
-19
-19
-19
-19
-19
-19
-19
-19
-19
-18
-18
-18
-18
-18
-18
-18
-18
-18
-18
-18
-18
-17
-17
-16
-15
-14
-13
-12
-11
-10
-9
-8
-7
-6
-5
-5
-4
-3
-3
-3
-3
-3
-3
-3
-3
-3
-3
-4
-4
-4
-5
-5
-6
-7
-8
-9
-9
-10
-11
-12
-12
-13
-13
-14
-15
-15
-15
-15
-14
-14
-14
-14
-14
-14
-14
-15
-14
-14
-14
-14
-13
-13
-12
-12
-11
-10
-10
-9
-9
-8
-7
-7
-7
-7
-6
-6
-6
-5
-5
-4
-4
-3
-3
-2
-2
-1
0
0
0
1
1
2
2
2
3
2
2
2
2
2
3
3
4
4
5
5
6
6
6
6
6
6
6
6
5
5
5
5
4
4
3
3
3
2
2
2
1
1
0
0
0
0
0
0
0
0
0
0
0
0
0
0
1
2
3
4
6
7
9
10
11
12
13
13
13
13
13
13
12
12
12
11
10
9
8
7
5
4
2
1
0
-2
-4
-5
-7
-9
-11
-12
-14
-16
-18
-19
-21
-22
-23
-24
-25
-26
-26
-26
-26
-26
-27
-27
-27
-28
-28
-28
-28
-28
-28
-27
-27
-27
-26
-26
-26
-26
-26
-26
-26
-26
-27
-27
-28
-29
-29
-30
-31
-32
-33
-34
-35
-36
-37
-37
-38
-38
-39
-39
-40
-41
-42
-42
-43
-44
-45
-45
-46
-46
-46
-46
-46
-46
-46
-45
-45
-45
-45
-44
-44
-44
-44
-43
-43
-43
-43
-43
-42
-43
-42
-42
-42
-41
-41
-40
-40
-40
-40
-39
-39
-39
-39
-39
-40
-40
-40
-40
-41
-41
-41
-42
-42
-42
-43
-43
-43
-43
-43
-43
-44
-44
-45
-45
-46
-46
-46
-46
-46
-47
-47
-47
-46
-46
-45
-44
-44
-43
-42
-41
-41
-40
-40
-40
-40
-40
-40
-41
-41
-41
-42
-42
-42
-42
-42
-42
-42
-42
-41
-41
-40
-40
-39
-38
-37
-36
-35
-33
-31
-30
-28
-26
-24
-23
-21
-19
-18
-18
-17
-16
-16
-16
-16
-16
-17
-18
-18
-19
-20
-21
-23
-23
-24
-25
-26
-26
-26
-27
-27
-27
-28
-28
-29
-29
-29
-29
-29
-28
-28
-28
-28
-27
-26
-25
-24
-23
-22
-21
-19
-18
-17
-16
-15
-15
-14
-14
-14
-13
-13
-13
-12
-12
-12
-12
-12
-12
-12
-13
-13
-13
-13
-13
-13
-13
-14
-14
-15
-15
-16
-17
-17
-17
-17
-18
-18
-18
-18
-18
-18
-18
-18
-18
-17
-17
-17
-17
-17
-17
-17
-17
-17
-16
-15
-15
-14
-14
-14
-14
-13
-13
-13
-13
-13
-13
-13
-13
-13
-13
-12
-13
-13
-13
-13
-13
-13
-13
-13
-14
-14
-15
-15
-16
-17
-18
-20
-21
-23
-25
-26
-28
-30
-31
-32
-33
-34
-35
-36
-37
-38
-38
-39
-39
-40
-40
-40
-40
-40
-39
-39
-39
-39
-38
-38
-38
-37
-37
-37
-37
-37
-37
-37
-37
-38
-39
-40
-41
-42
-43
-43
-44
-45
-45
-44
-44
-43
-42
-41
-40
-39
-38
-37
-36
-34
-33
-31
-31
-30
-29
-29
-29
-29
-29
-29
-29
-29
-29
-29
-29
-30
-31
-31
-32
-33
-33
-33
-34
-34
-34
-35
-35
-35
-35
-35
-34
-34
-33
-32
-32
-32
-31
-31
-31
-31
-31
-30
-30
-30
-30
-30
-30
-30
-29
-29
-28
-27
-27
-26
-26
-25
-24
-23
-22
-22
-21
-21
-20
-20
-20
-19
-19
-19
-19
-18
-18
-18
-18
-18
-18
-18
-19
-19
-20
-21
-21
-22
-22
-23
-23
-23
-23
-23
-23
-22
-22
-21
-19
-18
-16
-15
-12
-10
-8
-6
-3
0
2
5
8
12
15
19
22
26
29
32
35
37
38
39
39
38
37
34
30
25
18
10
1
-10
-24
-41
-59
-80
-101
-125
-149
-175
-202
-230
-259
-288
-319
-349
-380
-409
-438
-466
-492
-516
-538
-559
-577
-592
-606
-617
-626
-633
-637
-640
-640
-639
-636
-632
-627
-620
-613
-604
-594
-584
-572
-560
-548
-534
-521
-507
-492
-478
-463
-448
-433
-418
-403
-388
-373
-359
-345
-331
-317
-303
-289
-276
-262
-249
-235
-221
-207
-194
-181
-169
-157
-145
-134
-124
-113
-104
-94
-85
-77
-69
-62
-56
-50
-45
-41
-36
-32
-29
-26
-24
-22
-20
-19
-19
-18
-18
-18
-19
-19
-19
-19
-19
-19
-19
-19
-19
-19
-19
-19
-19
-19
-18
-18
-18
-17
-17
-17
-17
-16
-16
-16
-16
-16
-15
-15
-14
-13
-12
-11
-11
-10
-10
-10
-9
-9
-9
-9
-8
-8
-8
-8
-8
-8
-8
-8
-8
-8
-9
-9
-10
-10
-10
-10
-10
-11
-11
-11
-11
-11
-11
-11
-11
-11
-10
-10
-10
-9
-8
-8
-7
-7
-6
-6
-6
-6
-5
-5
-5
-5
-5
-5
-5
-5
-4
-4
-4
-3
-3
-3
-3
-3
-4
-4
-5
-5
-6
-7
-8
-9
-9
-10
-11
-12
-13
-13
-13
-13
-13
-14
-14
-14
-14
-14
-15
-15
-14
-14
-14
-14
-13
-13
-13
-12
-11
-10
-9
-8
-7
-6
-5
-3
-2
-2
-1
0
0
0
0
0
0
0
0
0
0
1
1
2
2
3
3
4
4
5
5
6
7
7
8
9
10
11
12
14
15
16
17
18
19
20
20
21
22
22
23
23
23
23
22
22
22
20
19
18
17
16
14
13
12
10
9
7
5
3
1
0
-2
-4
-6
-8
-9
-10
-11
-11
-11
-12
-12
-12
-12
-12
-12
-12
-12
-12
-12
-12
-12
-12
-12
-13
-13
-13
-14
-14
-14
-14
-14
-14
-14
-14
-14
-14
-15
-15
-16
-16
-17
-19
-20
-21
-22
-24
-26
-27
-29
-30
-32
-33
-34
-36
-38
-39
-40
-42
-43
-44
-44
-45
-46
-47
-47
-47
-48
-48
-48
-48
-47
-46
-45
-45
-44
-44
-43
-43
-43
-43
-43
-44
-44
-44
-44
-45
-45
-46
-46
-47
-47
-48
-48
-49
-49
-49
-50
-50
-50
-51
-51
-52
-52
-52
-52
-52
-52
-53
-53
-53
-53
-53
-53
-53
-54
-54
-55
-56
-56
-57
-58
-58
-59
-59
-59
-60
-60
-59
-59
-58
-58
-56
-55
-54
-53
-52
-51
-51
-50
-50
-50
-50
-49
-49
-49
-49
-49
-50
-51
-51
-52
-52
-52
-52
-52
-52
-52
-53
-53
-53
-53
-53
-54
-53
-53
-53
-52
-52
-51
-51
-50
-49
-49
-48
-48
-47
-46
-46
-45
-45
-45
-45
-45
-44
-44
-45
-45
-45
-44
-44
-44
-43
-43
-44
-44
-44
-43
-43
-43
-42
-42
-42
-42
-42
-41
-41
-40
-40
-39
-38
-38
-37
-36
-36
-36
-35
-35
-35
-36
-36
-36
-37
-38
-38
-39
-40
-40
-41
-41
-41
-41
-41
-40
-40
-40
-39
-38
-37
-37
-36
-36
-36
-36
-35
-35
-36
-36
-36
-36
-36
-37
-37
-37
-37
-38
-38
-39
-40
-40
-41
-42
-42
-42
-42
-42
-42
-42
-42
-41
-41
-40
-39
-38
-38
-37
-36
-36
-36
-36
-36
-36
-36
-36
-35
-35
-35
-35
-35
-35
-35
-35
-35
-35
-35
-35
-35
-35
-35
-36
-37
-37
-38
-39
-39
-40
-41
-42
-43
-44
-44
-45
-45
-45
-46
-47
-47
-47
-47
-48
-48
-49
-50
-51
-51
-51
-52
-52
-52
-53
-53
-53
-54
-54
-55
-56
-57
-58
-58
-59
-60
-61
-62
-63
-64
-64
-65
-66
-67
-67
-67
-67
-67
-67
-66
-66
-66
-65
-65
-65
-65
-65
-65
-66
-66
-67
-67
-68
-69
-69
-70
-70
-70
-70
-71
-71
-71
-71
-70
-70
-70
-69
-69
-69
-68
-67
-66
-65
-64
-63
-61
-60
-59
-57
-56
-55
-54
-54
-53
-53
-52
-52
-52
-51
-50
-50
-50
-50
-50
-50
-49
-49
-49
-49
-49
-49
-49
-49
-49
-50
-50
-50
-51
-51
-52
-52
-53
-53
-54
-54
-54
-54
-53
-53
-53
-52
-52
-51
-50
-49
-49
-49
-48
-48
-48
-47
-47
-47
-46
-46
-46
-46
-46
-46
-46
-47
-47
-47
-47
-47
-47
-46
-46
-46
-46
-46
-46
-46
-45
-44
-44
-43
-42
-41
-41
-40
-40
-39
-39
-38
-37
-36
-35
-33
-31
-29
-26
-23
-20
-16
-13
-8
-4
0
4
7
11
13
15
16
17
17
16
14
11
7
2
-3
-11
-20
-32
-45
-60
-78
-97
-118
-140
-163
-188
-214
-241
-269
-298
-327
-357
-386
-415
-443
-470
-496
-520
-542
-562
-580
-596
-610
-621
-630
-636
-641
-645
-646
-646
-645
-642
-637
-631
-624
-616
-606
-596
-586
-574
-562
-550
-537
-523
-510
-495
-481
-466
-452
-437
-423
-407
-392
-376
-361
-345
-330
-315
-300
-284
-269
-255
-241
-228
-215
-202
-190
-178
-167
-156
-146
-136
-127
-119
-112
-105
-98
-92
-86
-81
-75
-71
-67
-62
-58
-55
-52
-49
-47
-46
-44
-43
-41
-40
-39
-38
-37
-36
-36
-35
-34
-34
-33
-33
-33
-34
-34
-34
-35
-35
-35
-35
-36
-36
-36
-37
-37
-36
-36
-35
-35
-34
-34
-33
-32
-31
-31
-30
-30
-30
-30
-29
-28
-28
-28
-27
-27
-27
-26
-26
-26
-26
-25
-25
-25
-25
-25
-25
-25
-25
-26
-26
-26
-26
-26
-26
-26
-26
-27
-27
-27
-27
-27
-27
-27
-27
-27
-27
-27
-28
-28
-28
-28
-27
-27
-27
-26
-25
-25
-24
-23
-23
-22
-22
-22
-22
-22
-22
-22
-23
-24
-25
-25
-26
-27
-28
-28
-28
-28
-28
-28
-28
-28
-28
-27
-27
-27
-26
-25
-25
-24
-23
-22
-22
-21
-20
-19
-18
-17
-16
-15
-14
-14
-13
-13
-12
-12
-12
-12
-12
-12
-12
-12
-12
-12
-12
-12
-12
-12
-12
-12
-12
-12
-11
-10
-9
-9
-7
-6
-6
-5
-4
-3
-3
-2
0
1
2
4
5
6
7
7
8
8
9
9
9
9
9
8
8
7
6
6
5
5
5
4
4
4
3
3
2
1
0
0
0
-1
-2
-3
-4
-5
-6
-6
-7
-8
-8
-9
-9
-9
-10
-10
-10
-10
-11
-11
-12
-12
-13
-14
-15
-15
-16
-18
-19
-21
-22
-23
-24
-25
-27
-28
-30
-31
-32
-33
-34
-35
-36
-37
-37
-37
-38
-38
-38
-37
-37
-36
-35
-35
-35
-35
-35
-35
-35
-35
-36
-37
-38
-39
-40
-42
-43
-45
-47
-48
-50
-51
-52
-54
-55
-57
-58
-59
-61
-62
-62
-63
-64
-64
-64
-65
-65
-65
-66
-65
-65
-64
-63
-62
-62
-61
-61
-60
-59
-59
-59
-58
-59
-59
-59
-59
-59
-59
-59
-59
-59
-59
-59
-59
-59
-60
-60
-60
-60
-61
-61
-61
-62
-62
-63
-63
-64
-65
-65
-66
-66
-66
-65
-65
-64
-64
-63
-62
-62
-61
-61
-60
-59
-59
-58
-57
-56
-56
-55
-55
-54
-54
-53
-52
-52
-53
-53
-54
-54
-55
-56
-57
-59
-60
-61
-61
-62
-63
-63
-64
-64
-64
-64
-63
-63
-63
-62
-61
-60
-59
-57
-56
-55
-54
-53
-52
-51
-50
-49
-48
-46
-46
-45
-44
-44
-44
-44
-44
-44
-45
-45
-46
-47
-48
-49
-50
-51
-52
-53
-53
-54
-54
-54
-54
-53
-53
-52
-51
-50
-50
-49
-48
-47
-46
-46
-45
-44
-43
-43
-42
-41
-40
-39
-38
-38
-38
-38
-38
-38
-39
-39
-40
-41
-42
-42
-43
-44
-45
-46
-47
-48
-49
-49
-49
-49
-50
-49
-49
-49
-49
-49
-49
-49
-50
-50
-49
-49
-49
-49
-48
-48
-48
-48
-48
-48
-48
-48
-47
-47
-47
-47
-47
-47
-48
-48
-48
-48
-47
-47
-46
-46
-45
-45
-44
-44
-43
-43
-42
-42
-41
-41
-41
-41
-41
-41
-40
-41
-41
-42
-42
-42
-43
-43
-43
-44
-45
-46
-46
-47
-48
-49
-50
-51
-52
-53
-53
-54
-55
-55
-56
-56
-56
-56
-56
-56
-56
-56
-55
-55
-56
-56
-57
-58
-58
-59
-59
-59
-59
-59
-59
-59
-59
-59
-60
-60
-61
-61
-62
-63
-64
-65
-65
-66
-67
-68
-69
-70
-71
-71
-72
-72
-73
-73
-72
-72
-71
-70
-69
-68
-67
-66
-65
-64
-63
-62
-61
-60
-59
-58
-57
-56
-55
-54
-54
-53
-53
-52
-52
-52
-52
-52
-53
-54
-55
-55
-56
-56
-57
-58
-59
-60
-60
-61
-61
-61
-61
-61
-61
-60
-60
-60
-59
-59
-58
-58
-57
-56
-55
-54
-53
-53
-52
-51
-50
-49
-49
-48
-47
-47
-47
-47
-48
-48
-48
-48
-49
-49
-49
-49
-49
-49
-48
-48
-48
-48
-48
-49
-49
-50
-51
-51
-52
-52
-53
-53
-53
-54
-54
-55
-55
-55
-55
-55
-54
-54
-53
-52
-51
-49
-48
-46
-44
-42
-40
-37
-34
-31
-28
-24
-21
-17
-13
-9
-4
-1
2
6
9
11
13
14
14
14
13
12
10
7
3
-1
-7
-15
-25
-37
-52
-68
-87
-107
-127
-150
-174
-200
-227
-255
-285
-314
-344
-374
-404
-432
-459
-485
-509
-531
-551
-568
-584
-597
-608
-616
-622
-626
-628
-629
-628
-625
-620
-615
-608
-601
-592
-582
-572
-562
-551
-540
-528
-515
-502
-489
-475
-462
-448
-434
-421
-407
-392
-378
-363
-348
-333
-319
-304
-290
-276
-262
-248
-235
-222
-209
-197
-186
-175
-164
-154
-145
-136
-127
-120
-112
-105
-99
-93
-87
-82
-77
-73
-69
-66
-63
-61
-59
-57
-55
-54
-53
-51
-51
-50
-49
-49
-48
-47
-47
-46
-45
-45
-44
-43
-42
-41
-41
-40
-40
-40
-39
-39
-38
-38
-38
-37
-36
-35
-35
-34
-33
-33
-33
-33
-33
-33
-33
-33
-33
-34
-34
-34
-35
-35
-35
-35
-35
-35
-35
-35
-35
-35
-35
-35
-35
-35
-34
-34
-34
-35
-35
-35
-35
-35
-35
-35
-36
-36
-37
-37
-37
-37
-37
-37
-37
-37
-37
-37
-37
-37
-37
-36
-36
-35
-34
-32
-31
-30
-28
-27
-25
-24
-23
-22
-21
-21
-20
-20
-20
-21
-21
-22
-22
-24
-25
-25
-26
-27
-28
-28
-28
-29
-29
-29
-29
-30
-30
-30
-30
-30
-30
-30
-30
-30
-30
-29
-29
-29
-28
-28
-27
-27
-26
-25
-25
-25
-24
-24
-23
-22
-22
-21
-20
-20
-19
-17
-16
-15
-14
-13
-12
-11
-10
-9
-9
-8
-8
-8
-7
-7
-7
-6
-6
-6
-5
-5
-5
-4
-3
-3
-2
-1
0
0
0
1
1
1
2
2
2
3
3
3
3
4
4
4
4
4
3
2
2
2
2
2
2
2
2
1
0
0
0
-1
-2
-2
-2
-2
-2
-2
-2
-2
-2
-3
-3
-4
-5
-6
-6
-7
-8
-9
-9
-11
-11
-12
-13
-14
-15
-16
-17
-18
-19
-19
-20
-22
-23
-24
-26
-28
-29
-31
-32
-33
-35
-36
-37
-39
-40
-41
-42
-42
-43
-43
-44
-45
-45
-46
-47
-47
-48
-48
-48
-47
-47
-46
-45
-44
-42
-41
-40
-39
-38
-37
-36
-35
-34
-33
-33
-32
-32
-31
-31
-31
-30
-30
-30
-30
-29
-29
-29
-29
-29
-30
-30
-31
-31
-31
-31
-32
-33
-33
-33
-34
-34
-35
-35
-35
-36
-36
-35
-35
-34
-33
-33
-32
-32
-31
-31
-30
-30
-29
-28
-27
-27
-26
-25
-24
-23
-22
-21
-21
-20
-19
-18
-18
-17
-17
-16
-16
-16
-15
-15
-14
-14
-13
-13
-13
-13
-13
-13
-13
-12
-12
-11
-12
-12
-12
-13
-13
-14
-14
-14
-15
-15
-15
-15
-15
-14
-13
-13
-12
-12
-11
-11
-11
-10
-10
-9
-9
-9
-8
-8
-7
-6
-5
-4
-3
-3
-2
-1
-1
0
0
0
1
1
1
2
2
2
3
3
3
3
4
4
4
4
4
5
5
5
5
6
5
5
5
5
5
5
6
6
6
7
8
9
10
11
13
14
15
16
18
19
19
20
20
21
21
21
21
20
20
19
18
18
17
16
15
14
13
12
11
10
9
7
7
5
4
3
1
0
0
-1
-1
-2
-3
-4
-5
-6
-7
-7
-8
-9
-10
-12
-13
-14
-16
-17
-17
-18
-18
-19
-19
-19
-18
-18
-17
-16
-15
-14
-13
-12
-11
-10
-8
-7
-6
-5
-3
-2
-1
0
0
0
1
2
3
3
4
4
5
5
4
4
4
4
3
3
2
1
0
0
0
-1
-1
-2
-2
-2
-2
-2
-2
-2
-2
-2
-3
-3
-3
-4
-4
-4
-5
-5
-5
-5
-5
-6
-6
-6
-7
-7
-7
-8
-8
-8
-9
-9
-10
-10
-10
-11
-12
-12
-12
-12
-12
-12
-13
-13
-13
-14
-14
-15
-16
-16
-17
-17
-18
-19
-19
-20
-21
-22
-23
-23
-24
-24
-24
-24
-24
-24
-24
-25
-25
-25
-25
-26
-26
-26
-26
-27
-27
-27
-27
-27
-27
-27
-27
-27
-27
-27
-27
-27
-28
-28
-28
-28
-28
-29
-28
-28
-29
-29
-28
-28
-27
-26
-25
-24
-23
-22
-22
-21
-21
-21
-21
-20
-20
-20
-20
-20
-20
-20
-19
-19
-19
-19
-19
-18
-18
-18
-17
-17
-17
-17
-17
-18
-18
-18
-19
-19
-20
-20
-21
-21
-21
-22
-22
-22
-22
-23
-23
-23
-23
-23
-22
-21
-21
-19
-18
-17
-15
-14
-11
-9
-5
-1
3
7
12
17
22
27
31
36
40
43
46
49
52
54
55
55
56
55
53
50
47
42
35
27
16
4
-11
-28
-48
-69
-92
-117
-143
-170
-198
-227
-257
-288
-319
-350
-380
-409
-438
-464
-489
-511
-532
-550
-566
-580
-591
-599
-605
-609
-612
-612
-610
-607
-602
-596
-588
-580
-571
-561
-550
-539
-528
-516
-504
-492
-480
-467
-454
-441
-428
-415
-402
-388
-375
-361
-347
-334
-320
-307
-293
-279
-266
-253
-239
-226
-213
-200
-188
-175
-163
-152
-140
-129
-119
-109
-99
-90
-82
-74
-67
-61
-55
-50
-45
-41
-38
-34
-31
-28
-26
-24
-21
-19
-17
-15
-13
-11
-10
-9
-8
-6
-6
-5
-4
-3
-3
-3
-2
-3
-3
-3
-4
-4
-4
-5
-6
-6
-7
-8
-8
-9
-10
-10
-11
-12
-13
-14
-14
-13
-13
-13
-13
-12
-12
-11
-10
-9
-7
-6
-4
-3
-2
-1
0
0
0
0
0
0
0
-1
-1
-1
-2
-3
-3
-4
-5
-7
-8
-9
-11
-12
-14
-15
-16
-16
-17
-17
-17
-17
-17
-16
-16
-15
-14
-13
-12
-11
-10
-8
-7
-6
-6
-5
-5
-4
-4
-4
-5
-5
-6
-7
-7
-8
-9
-10
-10
-11
-11
-11
-11
-11
-12
-12
-12
-12
-12
-11
-11
-10
-9
-7
-5
-4
-2
-1
0
1
2
3
4
6
7
7
8
8
9
9
9
9
9
9
9
9
10
10
10
10
10
10
10
9
9
9
9
9
9
9
9
8
8
8
9
9
10
10
10
11
11
11
11
11
11
11
11
11
11
11
11
12
13
14
14
15
16
17
17
18
19
19
19
19
19
19
18
18
18
18
18
17
17
17
16
16
15
14
14
13
12
12
11
11
10
9
8
7
6
5
4
2
1
0
-1
-2
-2
-3
-4
-5
-6
-7
-9
-10
-11
-12
-13
-14
-15
-15
-15
-16
-16
-16
-16
-16
-15
-15
-15
-14
-13
-13
-12
-12
-12
-12
-12
-12
-12
-12
-13
-14
-14
-15
-15
-16
-17
-17
-18
-19
-20
-20
-21
-21
-22
-23
-23
-24
-24
-24
-25
-24
-24
-23
-23
-23
-22
-22
-21
-21
-21
-21
-21
-21
-22
-22
-23
-24
-25
-26
-28
-29
-30
-30
-31
-31
-31
-32
-32
-33
-33
-33
-33
-33
-33
-32
-32
-32
-31
-30
-29
-29
-27
-26
-25
-24
-22
-21
-21
-20
-19
-18
-18
-18
-18
-17
-18
-18
-18
-18
-19
-20
-20
-21
-22
-22
-23
-24
-25
-25
-25
-25
-26
-26
-27
-27
-28
-28
-28
-28
-28
-28
-28
-28
-27
-27
-26
-26
-25
-25
-24
-24
-24
-25
-25
-25
-26
-26
-25
-25
-25
-24
-24
-23
-23
-22
-20
-19
-18
-16
-15
-13
-11
-10
-8
-7
-6
-6
-5
-4
-3
-3
-2
-1
-1
0
0
0
0
0
0
0
0
0
0
0
-1
-1
0
0
0
0
1
2
3
5
6
8
9
10
11
13
14
15
16
17
18
18
19
19
19
19
19
19
19
19
18
18
17
17
16
16
15
14
13
11
10
9
8
7
6
5
5
5
5
6
7
8
9
10
11
13
14
15
17
18
19
21
22
24
25
25
26
26
26
26
26
26
26
25
25
24
23
22
22
21
20
20
20
20
20
20
21
22
22
23
25
26
27
28
30
31
32
33
33
33
33
33
33
32
31
30
29
28
27
26
25
24
22
20
19
18
16
15
14
13
12
11
11
10
10
10
10
10
10
11
12
12
12
12
13
13
13
13
13
13
13
12
12
12
12
11
11
10
10
10
10
10
10
10
10
10
9
9
9
9
8
8
9
9
10
10
11
11
12
12
13
14
15
16
17
18
19
20
20
21
22
22
23
23
23
24
24
24
25
25
26
27
27
28
28
29
29
29
29
29
29
29
29
29
29
30
30
30
31
31
31
31
30
30
30
31
31
31
31
30
30
29
29
29
28
28
28
28
28
28
28
29
29
30
31
32
32
33
34
34
34
34
35
35
35
36
37
37
38
39
40
40
40
40
40
40
40
39
39
39
39
39
39
40
40
40
41
42
43
45
47
50
52
55
58
62
66
70
74
78
82
85
89
92
95
97
98
99
100
99
98
96
93
88
82
73
62
49
33
14
-5
-27
-50
-74
-100
-128
-157
-187
-218
-250
-282
-313
-344
-374
-402
-429
-454
-477
-498
-517
-533
-547
-558
-567
-574
-578
-580
-580
-578
-574
-568
-562
-554
-546
-536
-525
-515
-503
-491
-479
-466
-454
-440
-426
-412
-398
-383
-369
-354
-339
-323
-308
-292
-277
-261
-246
-231
-216
-201
-187
-172
-159
-145
-131
-119
-106
-94
-82
-70
-59
-48
-38
-29
-20
-12
-4
2
9
15
21
26
31
35
38
41
44
46
48
50
51
53
54
54
54
54
54
54
53
52
52
52
51
52
52
52
52
52
53
53
54
55
57
57
58
59
61
62
62
63
64
64
64
65
65
65
65
65
65
65
65
65
65
65
65
66
66
66
66
67
67
67
67
67
67
66
65
64
63
62
61
59
58
56
54
53
52
50
49
48
47
46
45
44
44
44
45
47
49
51
53
56
59
62
64
67
70
72
74
76
78
79
79
80
81
81
82
82
82
82
81
81
80
79
78
77
76
75
74
73
72
70
69
68
68
67
67
67
67
67
68
68
69
70
70
71
72
73
74
75
75
76
77
78
79
79
80
81
82
82
83
84
85
85
86
86
87
87
87
88
88
88
87
88
88
88
88
88
88
88
89
90
90
91
91
92
92
93
93
93
93
93
93
93
92
92
92
92
92
92
92
92
93
93
93
93
94
94
94
94
94
94
94
94
95
95
95
95
95
95
95
95
95
94
93
93
92
91
90
89
88
87
85
84
82
80
78
77
75
73
72
71
70
69
67
66
65
64
63
62
61
60
59
59
58
58
58
58
58
58
58
58
57
57
57
57
57
56
56
55
55
54
53
53
52
52
51
51
50
50
50
50
51
51
51
51
51
51
51
51
50
50
49
49
48
47
46
46
46
46
46
46
47
47
46
47
47
48
48
48
48
49
49
49
49
49
48
48
48
48
48
48
48
48
47
47
47
46
46
45
45
44
44
43
43
43
42
42
42
42
42
41
41
41
40
40
40
40
39
39
39
39
39
39
40
40
41
42
43
44
45
46
47
48
49
50
51
52
52
53
53
53
52
51
51
50
49
48
48
47
47
47
46
46
45
45
45
45
45
45
44
44
44
45
45
46
46
47
47
48
49
50
52
53
54
55
56
57
58
58
59
59
59
60
60
60
60
60
60
60
60
60
60
59
58
58
57
57
56
56
55
55
54
53
52
52
52
53
54
55
56
57
58
59
60
61
63
64
65
66
67
67
68
68
69
69
69
69
69
69
69
69
69
69
69
69
69
69
68
68
68
67
66
66
66
65
65
64
64
63
62
62
62
61
61
61
60
60
59
58
58
57
57
56
57
57
57
57
58
59
60
61
62
63
64
65
66
67
67
68
69
69
70
70
71
71
71
71
71
71
72
72
72
71
71
71
70
70
69
69
68
67
67
67
66
66
65
65
65
65
64
64
65
64
64
63
63
62
61
60
59
57
55
54
52
50
48
47
45
44
43
42
41
40
39
39
38
38
38
37
37
37
37
37
38
38
38
39
39
40
40
40
41
42
42
43
44
45
45
46
46
46
46
46
47
47
48
48
49
49
50
51
52
52
52
53
53
52
52
52
51
50
50
50
49
49
49
49
49
49
49
50
50
50
50
51
51
52
53
53
54
54
54
54
54
53
53
53
53
52
52
52
52
51
51
52
52
53
54
55
55
56
57
59
60
62
63
64
66
67
69
70
71
72
73
73
73
73
73
72
71
70
68
67
66
65
64
63
63
62
62
62
62
62
62
63
64
64
65
65
66
67
68
69
71
72
74
76
79
82
85
89
92
96
99
103
106
110
113
116
118
120
121
123
123
123
121
119
116
112
107
100
92
82
69
55
38
18
-2
-24
-48
-74
-102
-130
-160
-191
-222
-252
-283
-313
-343
-371
-398
-423
-447
-468
-486
-503
-517
-529
-538
-545
-550
-552
-553
-551
-549
-544
-538
-531
-522
-513
-502
-491
-480
-467
-454
-441
-427
-414
-400
-386
-372
-357
-342
-327
-312
-297
-282
-267
-253
-238
-223
-209
-195
-181
-167
-153
-140
-127
-114
-102
-91
-79
-68
-58
-48
-38
-28
-19
-10
-2
5
12
19
25
31
36
40
44
48
51
54
57
59
62
63
65
66
67
68
69
71
71
72
73
74
75
76
76
77
77
78
78
79
79
79
80
81
82
83
84
84
85
85
86
87
88
89
89
89
89
89
89
89
88
88
88
87
87
87
87
87
86
86
86
86
86
86
86
86
86
86
87
87
88
89
89
91
92
93
95
97
98
99
100
101
102
102
102
102
101
101
100
99
98
96
95
94
92
91
90
88
87
85
83
82
81
80
80
79
79
79
79
80
80
81
82
83
84
85
86
88
89
90
91
92
92
93
93
94
94
94
94
93
93
92
91
91
90
90
90
90
89
89
89
89
90
90
90
91
91
91
92
93
94
94
95
97
98
99
100
101
102
103
104
105
106
106
107
107
106
106
106
105
105
104
104
105
105
106
106
107
108
108
108
109
110
110
111
112
114
115
116
118
119
119
120
121
122
123
123
124
124
123
123
122
121
119
117
114
112
110
108
106
105
103
102
101
101
100
100
100
100
100
100
100
101
101
101
102
102
102
102
102
102
101
99
98
97
96
95
94
93
93
92
91
90
89
88
87
86
84
83
82
81
80
80
79
78
78
77
77
76
75
75
74
73
72
72
71
70
69
68
68
68
67
67
67
67
67
67
67
68
68
69
70
70
70
71
71
71
71
71
71
71
71
70
70
70
69
69
69
68
68
67
67
66
66
65
64
63
62
61
61
60
60
59
59
59
59
59
60
60
60
60
60
60
60
61
61
62
62
62
63
63
63
63
64
64
64
65
65
65
64
64
63
62
61
60
59
58
57
56
56
55
54
53
53
53
53
54
54
55
56
57
58
58
59
60
60
61
61
62
62
62
62
62
62
62
62
61
61
61
61
61
61
61
61
60
60
60
60
59
59
59
59
59
60
61
61
62
63
64
64
65
66
66
66
67
67
68
68
68
69
69
69
70
71
71
72
73
74
74
75
75
76
76
75
75
75
75
74
74
73
72
71
70
70
70
69
69
69
68
68
68
68
68
68
68
69
70
70
71
71
72
72
72
72
73
73
74
75
75
75
76
76
76
76
76
76
76
75
75
76
76
76
77
78
79
80
81
83
83
84
85
86
87
87
88
88
88
88
89
89
89
88
88
88
88
87
87
86
85
84
84
83
82
81
79
78
77
76
75
74
73
72
72
71
71
71
71
71
70
70
70
70
70
71
71
71
71
71
71
70
70
69
68
68
68
67
67
67
67
66
65
65
64
63
62
61
60
58
57
56
55
54
54
53
53
53
53
53
53
53
54
54
54
54
54
55
55
55
55
55
55
55
55
55
55
56
56
56
57
57
57
57
57
56
56
56
56
56
56
56
56
56
56
56
56
55
56
56
56
57
57
58
59
59
60
60
60
61
61
62
62
63
64
65
65
66
67
68
69
69
70
71
71
71
71
71
70
69
69
69
68
68
68
68
68
68
67
67
67
67
67
67
67
67
67
68
68
69
69
70
70
70
71
72
73
74
75
76
76
77
77
77
78
77
77
77
77
77
76
75
75
74
73
73
73
72
72
73
73
73
74
74
75
76
77
79
80
82
84
87
90
93
96
99
102
106
109
113
116
119
122
124
125
126
126
125
124
121
117
113
106
98
89
78
65
49
31
12
-9
-31
-55
-80
-107
-134
-163
-193
-222
-252
-282
-311
-339
-366
-391
-414
-436
-455
-472
-487
-499
-510
-517
-523
-526
-528
-528
-526
-523
-518
-512
-505
-498
-489
-480
-469
-458
-447
-434
-421
-408
-394
-380
-366
-352
-338
-323
-308
-293
-278
-263
-248
-233
-218
-203
-189
-174
-160
-145
-132
-118
-105
-93
-80
-69
-58
-48
-38
-28
-19
-11
-3
3
10
16
23
29
34
40
44
48
52
56
59
62
65
67
70
72
73
75
77
79
80
82
83
85
86
87
88
88
88
89
89
89
88
88
88
87
86
85
84
83
82
82
81
81
81
80
81
81
81
82
83
84
85
86
87
87
88
88
89
89
90
90
91
91
91
91
91
91
91
91
91
91
91
91
90
90
90
90
90
90
90
90
90
91
91
92
92
93
93
93
93
93
93
93
93
92
92
92
91
91
91
91
91
91
91
91
92
92
92
92
92
91
91
91
91
91
90
90
90
90
89
89
89
89
88
88
88
88
88
88
89
89
89
89
88
88
88
88
88
88
88
88
89
90
91
92
93
94
95
96
98
98
99
100
100
101
101
102
102
102
102
103
103
103
104
104
105
106
106
107
109
110
111
112
113
114
115
116
117
118
118
119
120
121
122
122
122
123
123
123
123
123
123
123
123
122
121
121
121
120
120
120
121
121
121
121
121
121
122
122
122
122
122
122
121
121
120
119
119
118
117
117
116
115
114
113
112
111
110
108
107
105
103
101
100
98
95
93
90
88
85
83
82
81
80
79
78
76
75
74
73
72
71
70
70
70
70
70
70
69
69
69
68
68
68
68
68
68
69
69
69
69
69
69
69
69
69
69
69
69
68
68
68
68
68
68
68
69
69
69
70
70
70
70
70
71
71
71
71
71
71
71
70
70
70
69
69
68
67
66
65
64
63
62
62
61
60
58
58
57
56
56
56
57
57
58
58
59
59
60
61
61
62
63
63
63
64
64
64
64
63
63
63
63
62
62
61
60
59
58
58
57
56
54
54
53
52
51
50
50
49
49
49
49
49
49
50
51
52
53
54
55
55
56
57
57
58
58
59
59
60
60
61
61
61
62
62
62
62
62
62
62
62
62
62
61
60
60
59
59
59
58
59
59
60
60
61
62
62
63
64
64
65
65
66
66
67
67
68
69
69
69
69
69
69
69
69
69
69
69
68
68
67
67
66
66
66
65
65
64
64
64
64
65
65
66
67
67
67
68
68
69
69
69
70
70
70
70
70
70
70
70
70
71
71
70
71
71
72
72
73
74
74
74
74
74
73
73
73
73
73
73
73
73
73
73
73
73
73
73
73
73
72
72
72
71
71
71
70
70
69
69
69
69
70
70
71
72
72
73
74
75
76
76
76
76
76
75
75
75
74
74
73
71
70
68
67
65
63
61
60
58
57
55
54
53
52
51
50
50
49
48
48
48
48
48
49
49
49
49
49
48
48
47
46
45
43
42
41
40
39
39
39
39
38
38
38
38
38
39
39
39
39
40
40
41
41
42
43
43
43
44
44
45
46
46
47
48
48
49
49
50
50
50
50
51
51
51
51
51
51
51
52
52
53
53
54
55
55
56
57
57
57
57
57
57
57
56
56
56
56
56
56
56
56
56
56
56
56
56
56
56
56
56
56
57
57
57
57
58
58
58
58
58
58
58
58
58
58
59
59
59
59
58
57
56
55
54
53
53
52
52
52
52
52
53
53
54
54
55
56
57
57
58
58
59
59
60
61
61
62
63
65
66
67
69
71
74
76
80
83
87
91
95
98
102
106
109
113
116
119
121
123
124
125
125
124
122
119
115
110
104
96
86
74
60
43
24
3
-18
-41
-66
-91
-118
-146
-176
-205
-236
-266
-296
-326
-355
-382
-409
-433
-455
-475
-493
-508
-521
-531
-539
-545
-548
-550
-549
-547
-543
-538
-532
-524
-515
-506
-495
-484
-473
-461
-449
-436
-423
-410
-397
-383
-368
-354
-339
-324
-309
-294
-279
-264
-250
-235
-221
-207
-193
-179
-165
-151
-138
-125
-112
-99
-87
-75
-63
-52
-42
-32
-22
-13
-4
3
11
17
24
29
34
39
43
47
50
53
55
58
60
62
63
65
66
68
69
70
70
71
71
71
71
71
70
70
70
71
71
72
72
72
72
71
71
72
72
73
73
74
74
74
74
74
74
75
75
76
77
78
79
79
79
79
79
79
79
79
79
79
79
79
79
79
79
79
79
80
80
80
80
80
80
80
80
80
80
80
80
80
80
79
79
78
78
78
77
77
78
78
78
79
79
79
80
80
80
80
80
81
81
80
80
79
79
78
77
77
76
76
76
76
76
76
77
78
78
79
79
80
81
81
82
83
84
85
86
87
88
89
89
90
91
91
91
92
92
92
92
92
91
91
90
90
89
89
88
88
88
89
89
89
89
89
89
90
90
90
90
91
91
92
92
93
94
94
95
95
96
96
97
98
100
101
101
103
103
104
104
105
105
105
105
106
106
106
106
107
107
107
108
108
108
108
108
109
109
109
109
109
108
108
107
106
106
105
104
104
104
103
103
103
102
102
101
101
101
100
99
98
97
96
95
95
94
93
91
90
89
87
86
85
83
82
80
79
77
76
74
73
71
70
69
68
67
66
65
64
64
63
63
63
63
62
62
62
62
61
61
61
60
59
59
58
58
57
57
56
56
55
54
54
53
52
52
51
51
50
49
48
48
47
46
46
45
45
45
45
46
47
48
49
51
52
53
54
54
55
55
56
56
56
56
56
56
56
55
54
54
53
52
52
51
51
50
50
49
48
47
46
45
44
43
42
41
41
40
39
39
39
38
38
38
38
38
38
39
39
40
40
40
40
40
40
40
40
41
41
42
42
42
43
43
43
43
43
43
43
43
43
42
41
41
40
40
40
39
39
39
39
39
39
39
39
39
39
39
39
39
39
39
39
39
39
39
38
38
38
38
38
38
39
39
39
39
40
40
40
40
40
40
39
40
40
41
42
43
44
45
46
47
48
49
51
52
53
55
56
57
58
58
58
59
59
60
60
60
60
60
59
59
59
59
58
58
58
57
57
56
55
55
54
54
54
54
53
53
53
53
53
53
54
55
55
56
57
59
59
60
61
61
62
62
64
65
66
66
67
68
68
69
70
70
71
71
72
72
72
72
72
72
71
70
70
69
69
68
68
68
68
68
68
68
67
67
67
67
67
66
66
65
64
63
63
63
62
61
61
60
59
59
58
57
57
56
56
55
55
54
53
52
51
50
50
50
49
49
49
49
50
50
50
50
50
49
50
50
49
49
49
49
49
49
49
50
50
50
50
50
51
51
51
51
51
50
51
51
51
52
52
51
51
51
50
50
49
49
48
48
48
48
49
49
49
49
49
49
48
48
47
47
46
45
44
44
43
42
42
41
41
41
41
41
42
42
43
43
44
44
45
45
45
46
46
47
47
47
47
47
48
48
49
49
50
50
51
52
52
52
52
51
51
51
51
51
51
51
51
51
51
51
51
51
50
49
49
48
47
46
45
44
43
43
43
42
42
41
41
41
42
43
44
45
46
47
48
49
51
52
54
56
58
61
65
69
73
77
81
86
90
95
99
104
108
112
117
121
125
128
131
133
134
134
134
133
131
128
124
118
110
99
85
70
53
35
15
-5
-28
-53
-80
-108
-138
-168
-199
-230
-260
-290
-319
-346
-372
-395
-417
-436
-453
-468
-480
-490
-498
-504
-507
-509
-509
-508
-505
-500
-494
-487
-479
-471
-461
-451
-440
-429
-417
-406
-394
-382
-370
-357
-345
-332
-319
-305
-291
-277
-263
-249
-236
-222
-208
-195
-181
-168
-155
-142
-128
-116
-103
-91
-80
-69
-58
-49
-39
-30
-22
-14
-6
0
7
13
19
25
29
33
37
40
42
45
46
48
49
49
50
51
51
51
52
52
52
53
54
54
54
55
55
56
56
57
57
58
58
58
59
59
59
60
60
61
61
61
61
61
61
60
61
61
61
61
61
61
61
60
60
60
59
59
59
59
59
60
61
61
61
62
62
63
63
63
63
63
63
63
63
63
63
63
63
63
64
64
65
66
66
67
67
68
68
68
68
67
67
67
67
67
67
67
67
66
66
65
64
63
62
61
61
60
60
59
59
59
58
58
58
58
57
57
57
57
57
58
59
59
59
60
61
62
63
64
65
66
66
67
68
69
69
70
71
72
73
74
76
77
78
78
79
80
80
80
81
81
80
79
79
79
78
78
79
79
79
80
80
81
81
81
82
83
83
84
85
85
86
86
87
88
89
90
91
92
93
94
96
97
97
98
98
98
98
98
97
97
96
94
93
92
91
89
88
87
86
85
84
84
82
81
80
80
79
79
78
78
78
79
79
79
80
80
80
80
80
80
80
80
80
79
79
78
77
76
75
74
72
71
69
67
65
63
61
60
58
56
55
54
52
51
50
49
48
47
47
46
46
45
45
45
45
46
46
46
46
46
47
47
47
47
47
47
47
47
46
46
45
44
43
42
41
41
41
41
41
42
42
43
43
43
44
44
44
45
45
44
44
43
43
43
42
41
41
41
40
40
40
40
39
39
39
40
40
40
41
41
42
42
43
43
43
43
43
43
43
43
43
43
42
42
42
41
40
39
38
37
36
35
34
34
33
33
33
33
33
33
33
34
34
34
34
34
33
33
33
33
32
31
30
29
28
27
26
25
24
23
22
22
22
21
21
21
21
20
20
20
20
20
21
22
22
22
23
23
24
25
26
27
27
28
28
29
30
30
30
31
31
31
31
31
31
31
31
31
30
30
30
30
30
29
30
30
30
30
30
29
29
29
30
30
31
31
32
32
33
33
34
35
35
36
37
37
38
38
38
39
39
39
39
40
40
40
41
42
42
43
44
45
46
46
47
48
48
48
48
48
48
48
48
48
48
47
47
47
47
47
47
47
47
48
48
49
49
50
50
51
51
51
52
52
53
53
54
54
55
55
56
56
57
57
58
59
59
59
59
59
59
58
58
58
58
57
57
56
55
55
54
53
52
51
50
48
47
45
44
42
41
39
38
37
35
34
33
32
31
31
31
31
31
31
31
32
32
32
32
32
32
32
33
34
34
34
35
36
36
36
36
37
36
36
35
35
34
33
32
32
30
29
28
28
27
26
25
25
25
25
26
27
27
27
28
29
29
30
30
30
30
30
30
30
30
30
30
29
29
29
29
29
28
28
27
27
27
27
27
27
28
28
29
30
30
31
32
33
34
35
36
37
38
38
39
40
40
40
40
40
39
38
38
37
36
35
34
33
32
31
31
31
31
30
30
30
30
30
30
30
30
29
29
30
30
30
30
31
31
31
32
33
33
33
33
33
33
33
34
34
34
35
35
36
37
38
40
42
45
48
52
56
61
65
70
75
79
84
89
94
98
103
106
110
112
114
116
117
116
115
113
110
105
98
89
77
63
47
28
9
-12
-35
-59
-84
-111
-140
-169
-200
-230
-260
-290
-318
-346
-372
-397
-419
-440
-458
-474
-489
-501
-511
-518
-523
-526
-528
-528
-525
-522
-517
-511
-504
-496
-487
-478
-467
-457
-446
-435
-424
-413
-401
-389
-376
-364
-351
-338
-325
-312
-298
-285
-271
-258
-245
-231
-217
-204
-190
-177
-164
-151
-139
-127
-115
-103
-92
-81
-70
-60
-51
-41
-32
-24
-17
-10
-3
1
6
11
15
19
22
25
27
29
30
32
33
34
35
36
37
37
38
38
38
38
38
38
38
38
39
39
39
40
40
41
41
42
43
43
44
44
45
45
46
47
47
48
48
48
48
48
48
48
48
48
49
49
50
50
51
52
52
52
53
53
53
53
53
53
53
53
53
52
52
52
52
52
52
52
52
52
52
52
52
51
51
50
49
48
47
46
45
45
45
45
44
44
44
43
43
43
43
44
44
45
45
45
46
46
46
46
47
47
48
48
49
50
50
51
51
52
52
52
53
53
53
54
54
54
54
54
54
53
53
53
52
52
52
53
53
53
53
54
54
55
55
55
55
55
56
56
57
57
58
58
59
60
61
62
63
63
64
64
65
65
66
66
66
66
67
67
67
67
67
67
67
66
66
67
67
67
67
67
67
67
66
66
66
65
65
64
65
65
65
65
66
66
67
67
68
69
69
70
70
70
70
70
70
70
70
69
69
69
68
67
67
66
66
65
65
64
64
63
62
61
60
59
58
57
56
55
54
52
51
49
48
47
46
45
45
44
44
43
43
43
42
42
42
41
41
40
39
39
38
37
37
36
35
35
34
34
33
32
31
30
30
29
28
28
27
26
25
24
22
22
22
22
22
22
22
21
21
20
20
20
19
19
19
20
20
21
22
22
23
23
24
25
26
27
29
29
30
30
31
31
30
30
30
29
28
27
26
24
23
22
21
20
19
18
17
16
15
15
14
14
14
14
14
14
14
14
14
14
14
15
15
16
16
17
17
18
18
18
18
18
18
18
17
17
17
16
16
16
15
15
14
14
14
13
13
13
13
12
12
12
11
10
10
9
9
8
8
8
8
9
9
10
11
12
12
13
14
15
17
18
19
20
21
22
22
22
23
23
23
23
24
24
25
25
26
26
26
26
26
26
26
27
27
27
27
27
27
27
27
28
28
29
29
30
31
31
31
31
32
32
32
32
32
32
32
32
32
32
31
32
32
32
33
33
34
34
34
35
36
36
36
36
36
36
36
35
35
35
34
33
33
33
32
32
32
32
31
32
32
32
33
33
34
35
35
36
37
38
39
39
40
41
42
42
42
43
43
43
43
43
42
41
41
40
40
39
39
39
38
38
38
39
39
39
40
41
41
41
41
41
41
41
40
40
39
39
38
37
36
36
35
34
33
32
31
30
29
29
28
27
26
25
25
24
23
22
21
21
20
19
19
18
17
17
17
17
16
16
16
16
16
15
15
15
15
15
15
15
14
14
15
15
15
15
16
16
17
18
19
19
19
19
19
19
19
19
19
19
18
18
19
19
19
19
20
20
20
20
21
21
21
21
22
22
22
23
24
25
25
25
26
26
27
27
28
29
29
30
30
30
29
29
28
27
27
26
26
25
25
24
24
24
24
24
24
24
24
24
24
24
24
24
24
24
24
23
23
22
21
20
20
20
19
19
19
19
19
19
19
19
19
19
19
19
20
21
21
22
22
23
24
24
25
26
27
28
29
31
32
34
35
37
38
40
43
45
49
52
55
58
62
65
69
72
76
79
82
85
88
90
91
91
90
88
86
83
79
74
67
59
49
36
21
4
-14
-34
-57
-80
-105
-132
-160
-189
-219
-249
-280
-311
-341
-370
-398
-425
-449
-471
-492
-510
-525
-538
-549
-558
-564
-568
-570
-571
-569
-566
-562
-557
-550
-543
-535
-525
-515
-504
-492
-480
-468
-455
-442
-428
-414
-399
-385
-371
-356
-342
-328
-313
-298
-283
-268
-253
-238
-223
-209
-195
-181
-167
-155
-142
-129
-118
-106
-96
-85
-76
-67
-58
-50
-43
-36
-29
-23
-16
-11
-5
0
3
7
10
13
16
19
21
23
25
26
28
29
30
30
31
31
32
32
33
34
34
35
36
37
37
38
38
38
38
37
38
38
38
38
39
39
39
39
39
40
40
40
40
41
41
41
41
42
42
42
42
43
43
43
43
44
44
45
45
45
45
45
45
45
44
44
44
43
43
42
41
41
40
38
38
37
37
38
38
38
39
39
40
41
41
42
43
44
45
45
46
47
47
48
49
50
51
52
52
53
53
53
53
52
52
51
50
49
49
48
48
47
47
46
46
45
45
45
45
45
46
46
47
48
48
49
49
50
50
50
50
50
50
49
49
49
49
50
50
50
51
51
52
52
53
53
53
54
54
55
55
55
56
56
57
57
58
58
58
59
59
60
60
61
61
62
62
62
62
62
62
63
64
64
65
66
67
68
69
70
71
71
72
73
74
74
74
74
74
74
74
74
74
74
73
73
73
73
72
72
72
71
71
70
69
69
68
67
66
65
63
62
61
60
59
58
57
55
54
53
52
50
49
48
46
45
44
42
41
40
38
37
36
35
34
33
32
32
31
31
31
31
30
30
30
29
29
28
27
26
25
24
23
22
21
21
20
20
19
19
19
19
19
19
20
20
20
20
21
21
22
23
23
24
25
26
27
27
28
29
29
30
30
30
30
30
30
30
30
29
29
28
28
27
26
26
26
25
25
24
24
23
23
23
22
22
21
21
21
20
19
19
18
17
17
16
16
15
15
14
14
13
12
12
11
10
9
8
7
7
6
6
5
5
4
4
5
5
5
6
6
7
7
7
8
8
8
8
8
8
8
7
7
7
7
7
7
7
8
8
9
9
10
11
11
12
12
12
12
12
12
12
13
13
13
14
15
15
16
16
16
17
17
18
18
19
19
19
19
19
19
19
19
19
19
20
20
20
21
21
22
22
22
22
22
22
22
22
22
21
21
21
20
20
19
19
19
19
19
20
20
20
20
19
19
19
19
19
18
18
18
18
18
18
18
19
19
19
20
21
22
23
24
25
26
27
28
29
30
31
32
33
34
35
36
37
38
38
38
39
39
39
40
40
40
40
40
40
39
39
38
38
38
38
38
38
39
38
38
38
38
38
38
38
37
36
36
35
35
34
33
32
31
30
29
29
28
28
27
27
27
27
27
27
27
27
27
27
26
25
24
24
23
22
22
21
21
20
20
19
19
18
17
16
15
15
14
13
13
12
11
11
10
9
9
8
8
7
6
5
5
4
4
4
3
2
1
1
0
0
0
0
0
0
0
0
1
2
3
4
5
7
8
10
11
13
15
16
18
19
20
21
21
21
21
21
21
21
20
20
20
19
18
17
16
14
13
11
10
9
8
7
6
5
5
4
4
3
3
3
3
2
1
1
1
0
0
1
1
2
2
3
4
4
5
6
7
8
9
11
12
14
16
18
19
20
20
21
21
21
21
21
21
20
20
20
20
20
20
20
20
20
20
20
20
19
19
19
19
19
18
18
18
18
17
17
17
17
17
17
17
17
17
17
18
18
19
19
20
21
22
24
26
29
32
35
39
42
46
50
54
58
62
66
70
73
76
78
79
79
78
77
74
70
66
60
52
42
30
16
0
-20
-41
-63
-87
-113
-140
-168
-198
-229
-260
-292
-323
-354
-384
-412
-439
-465
-488
-508
-527
-544
-558
-569
-578
-585
-590
-592
-593
-592
-590
-586
-581
-575
-568
-559
-550
-541
-530
-519
-508
-496
-484
-470
-457
-443
-429
-415
-400
-386
-371
-356
-341
-325
-310
-294
-279
-263
-248
-232
-217
-203
-189
-175
-162
-149
-137
-125
-114
-103
-93
-83
-74
-66
-59
-52
-45
-39
-34
-28
-23
-19
-15
-11
-7
-4
-1
1
3
5
7
9
12
13
16
18
20
22
23
25
26
27
28
29
30
30
30
30
29
29
29
29
29
28
28
28
28
29
29
30
30
31
31
32
32
32
32
33
33
33
33
33
33
33
32
32
32
32
32
32
31
31
30
30
30
29
29
28
28
27
26
26
25
25
24
23
23
23
23
23
23
24
24
24
25
25
25
25
25
25
24
25
25
25
25
26
26
27
28
28
29
30
30
31
32
32
33
34
34
34
34
35
35
35
36
36
36
36
36
36
36
36
36
36
36
35
35
35
34
34
33
32
32
32
32
32
33
33
33
34
34
35
35
36
37
38
38
39
40
41
41
42
43
43
44
45
46
47
48
49
49
50
51
52
52
53
52
52
51
49
48
47
47
46
45
45
45
45
45
45
45
45
45
46
47
48
49
51
52
54
56
58
60
61
63
64
65
66
66
67
68
68
69
69
69
68
68
67
66
65
64
64
62
61
59
58
57
56
55
55
54
53
51
50
49
47
46
44
43
41
39
38
37
35
34
33
32
31
30
30
29
28
26
25
24
23
21
20
18
17
16
15
14
12
11
10
9
8
7
7
7
6
6
6
7
8
8
9
9
10
10
11
12
12
13
14
14
15
16
17
17
17
17
17
17
17
16
15
15
13
12
11
10
9
8
7
6
6
5
5
4
3
2
2
1
0
0
0
0
-1
-1
-1
-1
-2
-2
-2
-3
-3
-3
-3
-3
-3
-3
-2
-2
-2
-2
-2
-2
-2
-3
-2
-2
-2
-2
-2
-2
-1
-1
-1
-1
-1
-2
-3
-3
-4
-4
-4
-5
-5
-5
-6
-6
-6
-7
-7
-7
-7
-7
-6
-5
-4
-3
-2
-1
0
0
0
1
2
3
3
4
5
5
6
6
7
8
9
9
10
10
10
10
10
9
9
8
7
6
6
5
5
4
4
4
3
3
3
3
3
3
4
4
5
5
6
6
7
7
8
8
9
9
9
10
10
10
11
12
13
13
14
15
15
15
16
15
15
15
15
15
15
14
14
15
15
16
16
17
17
17
18
18
17
17
17
17
17
16
17
17
17
17
17
17
17
17
17
17
17
17
17
17
17
17
16
15
14
13
12
11
10
10
9
9
8
8
8
9
9
9
10
10
10
11
11
12
13
14
15
16
17
17
18
19
19
20
20
21
21
21
21
21
21
21
21
21
21
20
20
20
19
19
18
18
17
16
15
14
11
9
6
4
1
0
-3
-5
-8
-10
-12
-14
-16
-18
-20
-22
-23
-23
-23
-23
-22
-21
-20
-18
-17
-16
-15
-14
-14
-12
-11
-10
-9
-8
-7
-6
-6
-5
-5
-5
-5
-5
-6
-6
-7
-8
-10
-11
-12
-14
-14
-14
-15
-15
-15
-16
-16
-16
-15
-15
-14
-13
-12
-10
-9
-8
-7
-6
-5
-5
-4
-3
-2
-1
0
0
1
3
4
5
5
5
6
7
7
8
8
8
7
7
6
6
6
5
4
4
3
3
3
2
1
0
0
0
0
0
0
0
0
0
0
0
0
0
0
0
0
1
1
2
2
2
3
3
3
3
3
3
2
2
2
1
0
0
-1
-3
-4
-5
-6
-7
-7
-8
-8
-9
-9
-10
-10
-11
-11
-11
-11
-10
-9
-8
-7
-5
-4
-2
0
2
4
6
8
10
12
15
18
21
24
27
31
34
38
41
45
48
52
55
58
60
61
62
62
61
59
57
53
48
41
33
23
11
-2
-18
-36
-56
-78
-101
-125
-151
-178
-206
-235
-264
-294
-324
-353
-383
-411
-438
-464
-488
-510
-530
-547
-563
-576
-586
-594
-600
-604
-606
-606
-605
-602
-598
-593
-586
-579
-571
-562
-552
-542
-531
-519
-507
-495
-482
-468
-454
-440
-426
-412
-397
-382
-368
-353
-338
-323
-309
-294
-279
-264
-250
-236
-222
-208
-194
-181
-167
-155
-143
-131
-119
-108
-97
-87
-78
-69
-61
-53
-45
-38
-32
-26
-20
-14
-9
-4
0
2
5
8
10
12
13
14
15
15
16
16
16
15
15
15
15
14
14
14
14
13
12
12
12
12
13
13
13
14
14
15
16
16
17
17
18
19
20
21
22
23
24
25
25
26
26
26
26
26
26
26
26
26
25
24
24
23
23
23
23
22
21
19
18
16
14
13
11
9
7
6
5
4
3
3
3
3
3
4
5
7
8
9
11
12
14
16
18
19
20
22
23
23
24
24
25
25
26
27
27
27
27
28
28
29
29
29
30
30
30
30
30
30
30
30
30
30
31
31
31
30
29
28
28
27
26
25
24
23
23
22
22
21
21
21
21
21
21
22
23
23
24
25
25
26
27
28
28
29
30
31
32
33
33
34
35
36
37
38
39
40
42
43
44
45
46
46
47
47
47
48
48
49
49
50
50
51
51
52
53
54
54
55
55
55
55
55
54
54
53
53
53
52
52
51
50
50
49
49
48
47
47
46
46
45
45
44
44
43
42
41
41
40
40
39
39
38
38
38
39
38
38
37
37
36
35
34
33
32
30
29
28
26
24
21
19
17
14
12
9
7
4
1
0
-3
-5
-7
-8
-10
-11
-11
-11
-11
-11
-10
-9
-8
-6
-5
-3
-1
0
1
3
5
6
7
8
8
8
9
9
8
8
7
7
6
5
5
4
3
1
0
0
-1
-2
-4
-5
-7
-9
-10
-12
-13
-14
-15
-16
-17
-18
-19
-19
-19
-20
-20
-19
-19
-19
-19
-19
-20
-20
-20
-19
-19
-19
-18
-17
-16
-15
-14
-13
-12
-12
-11
-10
-10
-10
-9
-9
-8
-8
-8
-8
-9
-9
-10
-10
-10
-11
-11
-11
-12
-13
-13
-13
-13
-13
-14
-14
-14
-15
-14
-14
-14
-13
-13
-13
-12
-12
-11
-10
-9
-9
-8
-7
-6
-6
-6
-5
-5
-5
-5
-5
-5
-6
-6
-6
-6
-7
-7
-7
-7
-7
-7
-7
-6
-6
-5
-5
-5
-6
-6
-5
-5
-4
-3
-2
-1
0
1
2
3
4
5
6
6
7
7
8
8
8
9
9
9
9
8
8
8
8
8
8
8
8
9
9
8
8
7
7
5
4
3
2
1
0
-1
-2
-3
-4
-5
-6
-7
-8
-9
-10
-11
-11
-12
-12
-11
-11
-10
-9
-7
-6
-4
-2
-1
0
2
4
6
7
9
10
10
11
11
11
11
10
10
9
8
7
6
5
4
3
2
1
1
0
0
0
0
0
0
0
0
0
0
0
0
0
0
1
1
2
2
2
1
1
0
0
0
0
-1
-2
-3
-4
-5
-5
-6
-7
-8
-9
-9
-9
-10
-10
-10
-11
-11
-12
-12
-13
-14
-15
-16
-17
-19
-19
-20
-21
-21
-21
-21
-21
-21
-21
-22
-22
-22
-22
-22
-21
-21
-21
-21
-21
-21
-21
-21
-21
-22
-22
-23
-23
-24
-24
-24
-25
-25
-25
-25
-25
-25
-25
-25
-25
-25
-24
-23
-23
-22
-21
-20
-19
-17
-16
-15
-14
-13
-13
-12
-11
-11
-11
-10
-10
-10
-10
-11
-11
-11
-12
-12
-12
-12
-12
-12
-12
-12
-12
-13
-13
-14
-14
-14
-14
-14
-13
-13
-13
-13
-12
-11
-11
-9
-8
-8
-7
-6
-5
-5
-5
-5
-5
-6
-8
-9
-10
-11
-13
-14
-14
-15
-16
-15
-15
-15
-14
-13
-12
-11
-9
-8
-6
-5
-3
-1
0
2
4
5
7
8
8
8
9
8
8
7
6
5
4
2
1
0
-1
-2
-3
-3
-3
-3
-2
0
0
2
5
8
10
14
18
21
25
29
32
35
37
39
40
40
40
39
37
34
30
24
17
8
-3
-18
-34
-54
-75
-97
-121
-147
-174
-202
-230
-260
-290
-320
-350
-380
-409
-436
-463
-488
-511
-531
-550
-566
-580
-591
-600
-607
-612
-615
-616
-615
-613
-609
-604
-598
-590
-581
-571
-561
-550
-538
-525
-512
-499
-485
-471
-457
-443
-428
-413
-398
-384
-369
-355
-340
-325
-311
-296
-281
-267
-253
-239
-225
-212
-199
-186
-173
-161
-150
-138
-127
-117
-107
-97
-88
-79
-70
-62
-55
-49
-43
-37
-32
-28
-24
-21
-18
-15
-13
-10
-8
-6
-4
-3
-1
0
0
1
1
2
2
3
3
3
3
2
1
0
0
0
-1
-2
-3
-3
-3
-4
-4
-3
-3
-3
-3
-2
-2
-1
0
0
0
0
1
2
2
3
3
3
4
4
4
5
5
5
6
6
7
7
7
7
7
6
6
6
6
5
6
6
6
6
6
6
7
7
7
7
7
7
7
6
6
6
6
6
6
6
6
7
7
7
7
8
8
8
8
9
9
9
9
9
9
9
9
9
8
8
7
7
7
7
7
7
7
6
6
6
6
6
6
6
5
5
5
5
5
5
5
6
6
7
8
9
10
11
12
14
15
15
16
17
18
18
19
20
20
21
21
22
23
24
24
25
25
25
25
26
26
25
25
25
25
25
25
25
26
26
27
28
28
29
30
30
31
31
32
33
34
35
35
36
36
36
36
36
36
35
34
34
34
33
33
32
31
30
29
28
27
25
24
23
22
21
20
19
19
18
18
17
17
17
17
17
17
17
17
18
18
17
16
15
14
13
12
11
10
8
7
5
4
2
1
0
-1
-2
-3
-3
-4
-5
-6
-6
-7
-7
-7
-7
-7
-7
-7
-7
-6
-6
-6
-6
-6
-7
-7
-7
-8
-9
-11
-12
-13
-14
-16
-17
-18
-20
-21
-22
-23
-24
-25
-26
-26
-27
-28
-27
-27
-27
-27
-27
-27
-27
-27
-26
-26
-26
-25
-24
-24
-23
-22
-22
-21
-21
-21
-20
-21
-22
-23
-24
-25
-27
-28
-29
-30
-31
-33
-33
-34
-34
-35
-35
-35
-35
-35
-34
-34
-34
-33
-33
-32
-32
-31
-31
-31
-30
-30
-30
-29
-29
-29
-30
-30
-31
-31
-32
-32
-33
-33
-34
-35
-35
-36
-36
-37
-38
-38
-38
-38
-37
-36
-36
-35
-35
-34
-33
-33
-32
-31
-31
-30
-30
-30
-30
-30
-30
-30
-30
-29
-29
-29
-28
-28
-27
-27
-27
-27
-27
-27
-28
-28
-29
-29
-29
-30
-30
-30
-30
-30
-30
-30
-30
-29
-28
-27
-26
-26
-25
-24
-24
-23
-23
-22
-21
-21
-20
-20
-19
-19
-19
-19
-19
-19
-20
-20
-20
-20
-20
-20
-20
-20
-20
-20
-19
-19
-19
-18
-17
-17
-16
-15
-15
-14
-14
-13
-13
-13
-13
-14
-14
-15
-16
-17
-18
-19
-21
-22
-23
-24
-25
-26
-26
-27
-27
-27
-26
-26
-25
-25
-24
-23
-22
-21
-19
-17
-16
-14
-12
-10
-9
-7
-5
-4
-3
-2
-2
-2
-2
-2
-3
-4
-5
-6
-7
-8
-8
-9
-10
-10
-11
-11
-11
-11
-11
-11
-11
-11
-11
-12
-12
-12
-13
-13
-14
-15
-16
-17
-18
-19
-20
-21
-22
-23
-24
-25
-26
-28
-29
-31
-33
-34
-36
-38
-39
-41
-43
-45
-47
-48
-50
-51
-51
-52
-53
-53
-53
-53
-53
-52
-52
-51
-51
-50
-49
-48
-47
-46
-45
-44
-43
-42
-41
-40
-39
-38
-37
-37
-37
-37
-37
-37
-38
-38
-39
-40
-41
-42
-43
-43
-44
-45
-46
-47
-48
-49
-50
-50
-51
-51
-51
-51
-51
-51
-51
-50
-49
-47
-45
-43
-42
-40
-39
-37
-36
-34
-32
-31
-29
-28
-27
-26
-26
-25
-25
-25
-25
-24
-24
-23
-23
-22
-22
-21
-21
-21
-21
-21
-21
-22
-22
-22
-22
-22
-22
-23
-23
-24
-25
-26
-26
-27
-27
-27
-27
-27
-27
-27
-28
-28
-28
-28
-29
-29
-28
-28
-28
-27
-26
-26
-25
-25
-24
-23
-23
-23
-23
-23
-23
-24
-24
-24
-25
-25
-26
-26
-27
-27
-26
-25
-24
-22
-20
-18
-15
-12
-8
-5
-1
2
6
11
15
20
24
27
31
34
37
39
41
42
42
42
40
38
34
29
22
12
0
-14
-31
-50
-70
-91
-115
-140
-166
-194
-223
-253
-284
-314
-345
-375
-404
-432
-459
-484
-506
-527
-545
-560
-573
-583
-591
-597
-600
-600
-599
-596
-592
-586
-579
-571
-562
-552
-542
-532
-520
-509
-498
-486
-475
-463
-451
-439
-427
-414
-402
-389
-376
-363
-351
-338
-324
-311
-298
-285
-272
-259
-247
-234
-220
-207
-195
-182
-169
-157
-145
-134
-123
-112
-103
-93
-84
-76
-69
-62
-56
-51
-47
-43
-39
-36
-33
-31
-30
-28
-27
-27
-26
-26
-26
-25
-25
-24
-25
-25
-25
-26
-27
-27
-27
-27
-27
-27
-27
-27
-27
-26
-26
-25
-25
-24
-24
-23
-23
-23
-23
-22
-22
-22
-22
-22
-22
-22
-22
-22
-22
-21
-20
-20
-19
-19
-18
-18
-18
-18
-18
-18
-18
-18
-18
-17
-17
-17
-17
-17
-17
-17
-18
-18
-18
-18
-18
-19
-19
-20
-20
-21
-21
-22
-22
-23
-24
-24
-25
-25
-24
-24
-23
-22
-21
-20
-19
-19
-18
-18
-17
-15
-14
-13
-12
-11
-11
-10
-10
-10
-9
-9
-8
-8
-8
-8
-8
-8
-9
-10
-11
-12
-13
-14
-15
-16
-17
-18
-18
-18
-18
-19
-19
-19
-19
-18
-18
-17
-16
-16
-15
-15
-14
-14
-13
-12
-11
-10
-9
-8
-7
-5
-4
-4
-3
-3
-3
-2
-2
-2
-1
-1
0
0
0
0
0
0
0
0
0
0
0
0
1
1
2
3
4
4
4
4
4
4
4
4
4
4
4
5
5
5
6
6
6
6
6
6
6
5
5
5
5
4
4
4
3
3
2
2
1
1
1
1
1
0
0
0
0
-1
-2
-3
-5
-6
-7
-8
-9
-10
-10
-11
-11
-12
-13
-13
-14
-15
-16
-18
-19
-20
-22
-23
-24
-25
-26
-27
-28
-29
-31
-32
-32
-33
-33
-33
-34
-34
-34
-34
-34
-35
-35
-35
-36
-36
-37
-38
-38
-39
-39
-39
-40
-40
-40
-40
-40
-40
-41
-41
-42
-42
-43
-43
-44
-45
-46
-47
-48
-49
-50
-51
-52
-53
-53
-54
-55
-56
-57
-58
-59
-60
-60
-60
-60
-60
-59
-59
-58
-58
-57
-56
-55
-55
-54
-53
-52
-51
-50
-49
-49
-49
-49
-49
-49
-50
-50
-51
-52
-53
-53
-54
-54
-54
-54
-54
-54
-53
-53
-52
-52
-52
-52
-53
-53
-53
-54
-54
-54
-54
-54
-54
-54
-54
-54
-54
-55
-55
-56
-56
-57
-57
-58
-58
-58
-58
-58
-58
-59
-59
-59
-58
-58
-57
-56
-56
-55
-54
-52
-51
-50
-49
-48
-47
-47
-47
-46
-46
-46
-45
-45
-44
-44
-43
-43
-42
-43
-43
-44
-44
-45
-46
-46
-47
-47
-48
-48
-48
-48
