# Simple Text Format
# Sampling Rate (Hz):= 1200.00
# Resolution:= 12
# Labels:= ECG	 V6
# Age:=	83
# Gender:=	Feminino
-109
-109
-108
-108
-107
-106
-106
-105
-105
-104
-103
-103
-102
-102
-102
-101
-100
-100
-100
-101
-101
-102
-101
-101
-101
-102
-102
-102
-103
-103
-104
-104
-105
-106
-107
-107
-109
-109
-110
-110
-111
-110
-111
-111
-111
-111
-111
-110
-110
-109
-108
-107
-106
-105
-104
-103
-102
-101
-101
-101
-100
-99
-99
-98
-98
-99
-98
-97
-97
-96
-96
-96
-95
-94
-94
-94
-93
-93
-93
-93
-93
-93
-92
-92
-92
-92
-91
-91
-91
-90
-90
-90
-90
-90
-90
-89
-89
-89
-88
-88
-88
-88
-88
-87
-87
-86
-86
-86
-85
-84
-83
-82
-82
-82
-81
-80
-80
-80
-79
-79
-78
-79
-79
-78
-79
-78
-78
-78
-78
-78
-77
-78
-78
-78
-79
-79
-79
-80
-80
-81
-81
-82
-82
-83
-84
-84
-84
-85
-85
-86
-86
-86
-87
-88
-88
-89
-90
-90
-91
-90
-91
-92
-93
-93
-93
-94
-94
-94
-94
-95
-95
-94
-94
-95
-95
-94
-95
-94
-95
-94
-95
-95
-96
-95
-96
-96
-97
-97
-98
-98
-98
-98
-99
-99
-99
-99
-100
-100
-100
-100
-99
-100
-99
-99
-98
-97
-96
-95
-95
-94
-92
-92
-91
-90
-90
-90
-89
-89
-89
-89
-90
-90
-91
-91
-93
-93
-93
-94
-95
-95
-95
-96
-97
-97
-97
-97
-97
-97
-97
-97
-97
-96
-95
-95
-94
-94
-94
-92
-92
-91
-90
-90
-88
-89
-88
-88
-88
-88
-88
-88
-88
-88
-88
-87
-87
-86
-86
-84
-83
-81
-79
-76
-73
-70
-66
-61
-56
-50
-43
-35
-26
-16
-6
5
17
29
43
58
73
89
105
121
136
152
167
181
195
208
220
231
239
246
251
254
255
255
252
248
241
234
224
213
201
188
173
158
142
126
110
94
79
63
48
34
19
6
-6
-18
-28
-38
-47
-55
-63
-70
-76
-82
-87
-91
-96
-101
-104
-108
-110
-113
-116
-118
-120
-122
-123
-124
-124
-126
-126
-126
-126
-126
-126
-124
-124
-124
-123
-123
-122
-121
-120
-119
-118
-117
-116
-115
-114
-112
-112
-112
-111
-111
-111
-111
-110
-111
-111
-112
-111
-112
-112
-113
-113
-113
-112
-112
-113
-113
-113
-113
-113
-112
-112
-111
-111
-112
-111
-110
-110
-109
-109
-108
-107
-105
-104
-103
-102
-101
-100
-100
-98
-97
-96
-95
-94
-93
-93
-93
-92
-92
-92
-91
-91
-92
-92
-92
-91
-92
-92
-93
-93
-93
-95
-96
-96
-97
-97
-98
-98
-98
-98
-99
-99
-99
-99
-100
-100
-99
-99
-100
-99
-99
-99
-99
-99
-100
-99
-100
-101
-101
-101
-101
-101
-100
-100
-100
-101
-101
-101
-100
-100
-100
-100
-99
-99
-99
-97
-97
-97
-96
-95
-94
-94
-92
-92
-92
-91
-90
-90
-88
-88
-87
-87
-87
-88
-88
-89
-89
-89
-89
-89
-89
-90
-89
-89
-89
-89
-89
-89
-89
-89
-89
-89
-89
-89
-90
-89
-89
-88
-89
-89
-89
-89
-89
-88
-88
-88
-87
-88
-87
-88
-88
-88
-88
-88
-88
-89
-88
-88
-87
-87
-87
-87
-86
-85
-85
-84
-84
-83
-83
-82
-81
-81
-81
-81
-81
-81
-80
-81
-81
-81
-81
-80
-80
-80
-80
-80
-80
-80
-80
-80
-80
-80
-81
-81
-81
-81
-82
-81
-81
-81
-82
-81
-81
-81
-81
-81
-81
-81
-81
-80
-80
-80
-80
-79
-79
-79
-80
-80
-80
-80
-80
-80
-80
-81
-82
-81
-82
-82
-83
-84
-83
-84
-85
-85
-86
-87
-87
-88
-88
-88
-88
-88
-87
-87
-87
-86
-86
-86
-86
-86
-85
-85
-85
-84
-85
-84
-85
-84
-84
-84
-85
-84
-84
-84
-83
-84
-83
-83
-82
-82
-81
-81
-81
-80
-80
-80
-80
-80
-79
-79
-79
-80
-79
-79
-80
-80
-80
-80
-81
-81
-81
-81
-83
-83
-83
-83
-83
-82
-82
-82
-81
-80
-79
-78
-77
-77
-76
-74
-74
-73
-72
-72
-72
-72
-72
-73
-73
-74
-74
-75
-75
-76
-77
-77
-77
-78
-79
-79
-80
-80
-81
-81
-82
-83
-83
-84
-84
-84
-84
-84
-84
-84
-85
-85
-85
-84
-85
-85
-85
-85
-85
-85
-85
-86
-86
-85
-85
-85
-85
-86
-86
-85
-85
-85
-85
-85
-84
-84
-84
-84
-84
-83
-84
-83
-83
-82
-82
-81
-82
-82
-82
-82
-82
-82
-82
-81
-81
-81
-83
-83
-83
-83
-84
-84
-85
-86
-88
-88
-89
-90
-90
-91
-91
-91
-92
-91
-91
-91
-90
-90
-89
-89
-88
-88
-87
-87
-86
-85
-85
-85
-84
-83
-83
-84
-84
-84
-83
-83
-83
-83
-84
-84
-84
-85
-85
-86
-86
-87
-87
-87
-87
-88
-87
-87
-87
-87
-87
-87
-87
-87
-86
-86
-85
-85
-85
-85
-85
-84
-83
-83
-81
-81
-80
-79
-78
-78
-77
-76
-76
-76
-75
-75
-76
-76
-76
-76
-77
-77
-78
-78
-79
-79
-80
-80
-80
-80
-79
-79
-79
-79
-79
-79
-78
-77
-77
-77
-76
-76
-74
-74
-73
-72
-72
-70
-69
-68
-67
-66
-65
-64
-63
-63
-62
-61
-60
-60
-60
-60
-59
-59
-58
-58
-57
-57
-57
-56
-57
-56
-56
-56
-56
-56
-55
-55
-55
-55
-56
-56
-56
-57
-57
-57
-58
-58
-59
-60
-61
-62
-63
-63
-64
-65
-65
-66
-67
-68
-68
-69
-69
-70
-70
-69
-69
-68
-68
-68
-67
-66
-66
-65
-65
-64
-63
-64
-64
-63
-63
-64
-64
-64
-64
-65
-66
-66
-66
-67
-67
-68
-69
-69
-69
-69
-70
-71
-71
-72
-72
-72
-73
-73
-73
-72
-72
-72
-72
-71
-71
-70
-70
-69
-69
-70
-70
-70
-70
-70
-71
-71
-71
-71
-72
-72
-72
-72
-72
-72
-73
-73
-73
-73
-73
-73
-74
-73
-73
-74
-74
-74
-74
-74
-74
-74
-74
-73
-73
-73
-72
-72
-72
-71
-71
-71
-71
-71
-71
-71
-72
-71
-72
-71
-72
-73
-72
-73
-73
-74
-74
-75
-75
-74
-74
-75
-75
-76
-76
-77
-77
-77
-77
-76
-75
-74
-73
-72
-70
-67
-66
-63
-61
-58
-55
-50
-47
-41
-36
-30
-22
-15
-7
3
13
24
36
49
64
79
95
110
127
142
158
173
187
201
213
224
235
244
252
256
259
260
259
256
251
244
234
224
212
199
185
171
155
139
123
106
90
74
59
44
31
17
5
-6
-17
-27
-37
-45
-52
-59
-65
-72
-76
-82
-86
-89
-93
-97
-99
-102
-104
-107
-108
-111
-112
-112
-113
-115
-116
-116
-117
-117
-117
-118
-119
-117
-117
-117
-116
-115
-114
-113
-112
-109
-108
-106
-105
-102
-99
-97
-95
-93
-92
-89
-88
-86
-85
-84
-83
-83
-83
-82
-82
-82
-82
-83
-83
-84
-85
-85
-85
-86
-86
-87
-88
-87
-88
-88
-87
-88
-87
-87
-87
-86
-86
-86
-85
-85
-84
-84
-83
-83
-84
-84
-83
-84
-85
-85
-86
-87
-87
-88
-88
-88
-88
-90
-89
-89
-89
-90
-89
-89
-89
-89
-88
-88
-88
-86
-86
-85
-84
-82
-81
-80
-79
-77
-77
-75
-75
-74
-73
-73
-73
-73
-72
-72
-73
-73
-74
-74
-74
-74
-74
-75
-75
-76
-76
-76
-77
-77
-77
-77
-78
-78
-79
-79
-79
-79
-79
-78
-78
-78
-78
-77
-77
-77
-76
-76
-75
-75
-74
-73
-73
-74
-74
-73
-74
-74
-74
-74
-74
-74
-74
-74
-73
-73
-73
-73
-73
-73
-72
-72
-71
-72
-71
-72
-72
-71
-71
-71
-71
-71
-71
-71
-70
-71
-71
-70
-70
-70
-70
-70
-70
-70
-70
-70
-70
-71
-71
-71
-71
-71
-70
-70
-70
-69
-69
-68
-68
-67
-66
-67
-66
-66
-67
-67
-67
-67
-67
-68
-68
-68
-68
-68
-68
-68
-68
-68
-69
-69
-69
-70
-69
-70
-69
-70
-70
-70
-69
-69
-69
-68
-68
-67
-67
-66
-65
-64
-65
-64
-63
-62
-62
-61
-61
-60
-60
-59
-59
-59
-59
-58
-57
-57
-57
-57
-58
-58
-58
-58
-59
-59
-60
-62
-62
-63
-63
-65
-66
-67
-67
-68
-68
-69
-69
-69
-70
-70
-70
-71
-70
-70
-70
-70
-70
-70
-70
-69
-68
-69
-68
-67
-67
-66
-66
-65
-64
-63
-63
-64
-63
-63
-63
-63
-64
-64
-65
-65
-65
-66
-66
-67
-67
-67
-67
-67
-67
-67
-67
-67
-66
-66
-65
-65
-64
-63
-62
-63
-62
-61
-60
-59
-60
-59
-58
-57
-58
-57
-57
-57
-58
-57
-58
-58
-59
-60
-61
-60
-61
-62
-62
-63
-64
-64
-64
-65
-65
-64
-64
-65
-65
-65
-65
-65
-65
-65
-65
-66
-66
-66
-66
-66
-66
-66
-66
-66
-66
-66
-67
-67
-67
-68
-68
-68
-69
-68
-69
-70
-69
-70
-69
-70
-69
-69
-68
-68
-68
-68
-68
-68
-68
-68
-69
-69
-69
-69
-70
-70
-70
-70
-71
-70
-70
-69
-69
-69
-68
-68
-68
-67
-67
-66
-66
-65
-66
-66
-66
-66
-66
-66
-67
-67
-67
-67
-67
-67
-66
-66
-66
-66
-65
-66
-65
-64
-64
-63
-63
-63
-62
-62
-61
-61
-60
-61
-60
-60
-60
-60
-60
-60
-61
-61
-61
-61
-62
-63
-63
-64
-65
-65
-65
-66
-65
-66
-66
-66
-65
-65
-65
-65
-65
-64
-64
-62
-62
-62
-62
-61
-61
-60
-59
-59
-58
-57
-57
-57
-56
-56
-55
-56
-56
-56
-57
-57
-57
-57
-57
-57
-58
-58
-58
-58
-58
-58
-57
-57
-56
-55
-55
-54
-54
-53
-52
-51
-51
-50
-49
-49
-48
-48
-48
-47
-47
-46
-46
-45
-46
-46
-46
-46
-46
-46
-47
-47
-47
-47
-48
-48
-47
-47
-47
-47
-47
-45
-45
-44
-43
-43
-42
-40
-39
-38
-38
-37
-35
-35
-34
-34
-33
-33
-33
-32
-32
-32
-31
-32
-33
-32
-32
-33
-34
-34
-34
-35
-36
-37
-38
-39
-40
-40
-40
-41
-40
-40
-41
-41
-41
-40
-41
-41
-41
-40
-40
-39
-40
-39
-39
-38
-39
-39
-39
-39
-39
-39
-39
-39
-40
-40
-41
-42
-43
-44
-46
-47
-48
-49
-50
-51
-52
-52
-54
-54
-54
-54
-54
-55
-54
-54
-54
-54
-54
-53
-53
-52
-52
-52
-51
-52
-52
-52
-51
-51
-51
-50
-49
-49
-48
-47
-47
-46
-46
-46
-46
-44
-44
-43
-43
-43
-43
-42
-42
-42
-42
-41
-41
-41
-41
-41
-41
-41
-41
-42
-43
-43
-43
-44
-44
-45
-46
-46
-48
-48
-48
-49
-49
-49
-49
-50
-50
-50
-51
-51
-51
-51
-52
-51
-52
-52
-51
-51
-50
-50
-49
-47
-47
-45
-44
-42
-40
-38
-35
-31
-28
-24
-20
-15
-10
-3
3
10
17
27
36
46
57
70
83
98
113
127
143
158
172
186
199
212
223
234
243
252
258
262
264
264
262
258
252
244
234
223
210
196
181
165
148
132
114
98
80
64
49
34
20
6
-7
-18
-30
-40
-50
-58
-65
-72
-78
-84
-89
-93
-95
-99
-101
-104
-105
-107
-107
-108
-108
-108
-108
-108
-107
-108
-107
-107
-107
-107
-106
-104
-104
-103
-101
-100
-98
-97
-95
-93
-91
-90
-87
-85
-82
-80
-77
-75
-72
-71
-69
-66
-64
-63
-61
-61
-60
-59
-58
-58
-58
-59
-59
-59
-60
-60
-61
-61
-62
-64
-65
-66
-67
-68
-68
-69
-70
-69
-69
-69
-69
-69
-69
-68
-67
-66
-67
-66
-66
-65
-64
-64
-62
-62
-61
-60
-59
-58
-57
-56
-55
-54
-55
-54
-54
-53
-53
-54
-54
-55
-55
-56
-55
-57
-58
-58
-59
-59
-60
-61
-61
-62
-62
-62
-63
-62
-62
-62
-62
-62
-62
-61
-61
-61
-60
-59
-59
-59
-58
-57
-56
-56
-55
-54
-53
-52
-53
-52
-51
-51
-51
-51
-51
-51
-51
-51
-51
-51
-51
-52
-51
-51
-52
-52
-52
-52
-52
-52
-52
-54
-53
-53
-54
-54
-55
-55
-55
-56
-56
-56
-56
-56
-56
-56
-56
-55
-55
-56
-56
-56
-57
-57
-58
-58
-59
-58
-58
-59
-60
-60
-60
-61
-61
-60
-60
-60
-59
-58
-58
-57
-57
-56
-55
-54
-53
-52
-50
-49
-48
-46
-46
-44
-43
-43
-42
-42
-42
-41
-41
-41
-41
-41
-42
-42
-42
-44
-44
-44
-45
-46
-45
-45
-45
-46
-45
-46
-46
-46
-46
-46
-46
-47
-46
-47
-47
-47
-47
-48
-48
-47
-47
-47
-47
-49
-50
-50
-50
-50
-51
-51
-53
-54
-54
-55
-56
-56
-57
-57
-57
-58
-58
-59
-60
-60
-61
-61
-60
-61
-61
-61
-61
-62
-62
-61
-60
-60
-59
-58
-58
-57
-57
-55
-54
-54
-52
-52
-51
-50
-50
-49
-49
-49
-49
-50
-49
-49
-50
-50
-50
-49
-50
-49
-50
-50
-50
-50
-50
-51
-52
-51
-52
-52
-53
-53
-52
-53
-52
-53
-53
-52
-52
-52
-52
-52
-52
-52
-53
-53
-53
-54
-54
-55
-56
-56
-57
-58
-59
-59
-60
-61
-61
-61
-61
-62
-62
-62
-62
-61
-61
-61
-61
-60
-60
-59
-59
-59
-58
-59
-58
-58
-57
-57
-57
-57
-58
-58
-60
-60
-61
-63
-64
-65
-65
-66
-66
-68
-69
-69
-71
-70
-70
-71
-71
-70
-69
-69
-68
-66
-65
-65
-64
-63
-63
-62
-61
-61
-61
-61
-60
-60
-60
-60
-60
-59
-59
-59
-60
-60
-61
-61
-61
-63
-63
-64
-64
-65
-65
-66
-66
-66
-66
-67
-66
-66
-67
-66
-67
-67
-66
-66
-67
-67
-67
-67
-68
-68
-68
-69
-69
-69
-70
-70
-70
-70
-70
-70
-70
-70
-70
-70
-69
-69
-69
-67
-66
-66
-65
-64
-63
-64
-63
-62
-61
-62
-62
-61
-62
-62
-62
-63
-63
-63
-64
-65
-65
-65
-66
-66
-66
-66
-66
-66
-66
-66
-64
-64
-64
-64
-63
-64
-63
-63
-63
-63
-62
-62
-62
-62
-63
-62
-62
-62
-62
-61
-62
-62
-62
-63
-63
-63
-63
-64
-64
-65
-65
-66
-66
-67
-67
-68
-68
-68
-68
-68
-68
-68
-68
-68
-67
-67
-67
-66
-65
-65
-64
-63
-63
-63
-61
-61
-60
-59
-58
-58
-57
-57
-57
-56
-57
-57
-57
-57
-57
-59
-58
-59
-60
-59
-58
-59
-59
-59
-58
-58
-57
-57
-56
-55
-54
-53
-52
-51
-51
-50
-50
-49
-48
-49
-47
-47
-46
-47
-46
-46
-45
-46
-46
-47
-47
-47
-47
-48
-49
-50
-51
-51
-51
-52
-53
-53
-53
-53
-53
-55
-54
-55
-55
-55
-57
-57
-57
-57
-59
-59
-59
-59
-60
-60
-60
-60
-60
-60
-61
-61
-61
-61
-61
-62
-62
-63
-63
-63
-63
-64
-64
-64
-65
-66
-65
-66
-66
-67
-67
-67
-66
-66
-67
-67
-67
-67
-67
-68
-67
-67
-68
-68
-67
-67
-66
-66
-66
-65
-64
-64
-64
-63
-63
-63
-63
-63
-63
-63
-62
-63
-63
-63
-63
-64
-64
-64
-65
-65
-65
-65
-66
-66
-67
-67
-66
-67
-67
-67
-68
-68
-68
-69
-69
-68
-68
-68
-68
-68
-68
-68
-68
-68
-68
-68
-68
-68
-67
-68
-69
-68
-68
-68
-68
-69
-69
-69
-68
-69
-68
-68
-68
-68
-67
-66
-65
-64
-62
-61
-59
-57
-54
-50
-47
-42
-37
-31
-24
-16
-7
3
12
23
36
50
64
79
94
110
127
141
157
172
186
201
213
226
237
247
254
259
263
265
264
263
258
253
245
237
226
215
203
190
176
162
149
134
120
106
93
79
66
54
42
31
19
10
0
-9
-18
-25
-32
-38
-44
-51
-56
-60
-64
-69
-73
-76
-80
-83
-86
-89
-91
-94
-95
-97
-99
-101
-102
-103
-104
-104
-104
-104
-104
-104
-104
-103
-104
-104
-103
-103
-103
-103
-102
-102
-102
-101
-102
-101
-101
-101
-100
-100
-99
-99
-99
-98
-98
-97
-95
-95
-94
-94
-92
-92
-92
-91
-90
-89
-89
-88
-88
-87
-86
-86
-86
-85
-84
-85
-85
-84
-84
-84
-85
-84
-84
-85
-84
-85
-85
-85
-85
-86
-85
-86
-86
-87
-87
-88
-88
-89
-89
-90
-92
-91
-92
-93
-94
-94
-95
-95
-95
-95
-95
-95
-95
-94
-94
-94
-93
-93
-92
-92
-91
-92
-91
-91
-90
-90
-90
-90
-90
-90
-90
-90
-90
-89
-90
-89
-89
-89
-88
-89
-88
-89
-88
-89
-89
-88
-88
-88
-88
-87
-87
-87
-87
-86
-87
-87
-87
-87
-88
-88
-89
-89
-90
-90
-91
-91
-92
-91
-92
-92
-92
-91
-91
-91
-91
-90
-90
-90
-90
-89
-90
-89
-89
-89
-89
-88
-88
-89
-88
-88
-88
-88
-87
-87
-87
-87
-87
-88
-88
-88
-88
-89
-89
-90
-90
-90
-89
-90
-90
-90
-89
-90
-90
-89
-90
-90
-89
-90
-89
-89
-89
-88
-89
-89
-88
-88
-88
-87
-87
-86
-85
-85
-84
-83
-83
-83
-83
-82
-82
-82
-82
-83
-83
-83
-83
-83
-83
-84
-85
-85
-85
-87
-87
-87
-88
-89
-90
-91
-91
-93
-93
-94
-95
-95
-97
-96
-97
-97
-98
-97
-97
-98
-97
-97
-97
-96
-96
-97
-95
-95
-95
-96
-95
-96
-95
-95
-95
-94
-94
-94
-94
-94
-94
-94
-93
-94
-93
-93
-93
-93
-92
-92
-91
-91
-91
-91
-90
-89
-88
-87
-86
-84
-83
-81
-80
-80
-79
-77
-77
-76
-75
-74
-74
-74
-73
-73
-73
-74
-74
-74
-75
-75
-76
-77
-77
-78
-79
-80
-81
-81
-83
-83
-84
-86
-86
-87
-87
-87
-87
-88
-87
-86
-86
-85
-84
-84
-83
-82
-82
-81
-80
-80
-79
-79
-79
-78
-79
-79
-78
-79
-79
-78
-79
-80
-80
-81
-81
-82
-83
-84
-85
-86
-86
-87
-88
-89
-89
-90
-91
-91
-92
-92
-93
-93
-93
-94
-94
-94
-94
-95
-95
-95
-95
-95
-95
-95
-95
-95
-94
-94
-93
-92
-92
-92
-90
-89
-89
-89
-88
-87
-87
-87
-87
-87
-87
-87
-86
-87
-86
-87
-86
-87
-86
-87
-87
-88
-89
-89
-89
-90
-90
-91
-91
-91
-92
-92
-92
-92
-92
-92
-91
-91
-91
-90
-90
-89
-88
-87
-88
-87
-87
-86
-86
-86
-86
-86
-85
-86
-85
-86
-86
-86
-87
-87
-87
-88
-88
-87
-88
-89
-88
-88
-89
-88
-88
-88
-88
-88
-88
-87
-87
-87
-87
-86
-86
-87
-86
-86
-86
-87
-88
-88
-89
-90
-90
-92
-91
-92
-92
-92
-92
-93
-93
-93
-93
-93
-92
-92
-92
-91
-91
-90
-90
-89
-88
-87
-86
-85
-83
-82
-81
-80
-79
-78
-78
-77
-77
-75
-75
-75
-74
-74
-75
-74
-75
-76
-77
-76
-77
-78
-78
-79
-79
-79
-80
-79
-81
-81
-82
-83
-83
-84
-85
-85
-85
-86
-87
-87
-86
-86
-85
-85
-84
-83
-82
-81
-79
-78
-76
-75
-74
-73
-71
-70
-68
-67
-66
-66
-65
-65
-65
-65
-66
-65
-66
-67
-67
-68
-68
-69
-70
-70
-71
-71
-72
-72
-72
-73
-73
-72
-73
-72
-72
-72
-71
-72
-71
-71
-71
-71
-71
-72
-72
-72
-73
-73
-74
-75
-75
-75
-76
-77
-77
-78
-78
-79
-80
-81
-81
-82
-82
-83
-83
-84
-84
-84
-84
-85
-85
-83
-83
-83
-82
-82
-82
-82
-81
-81
-80
-81
-82
-81
-81
-82
-83
-83
-83
-84
-83
-84
-85
-84
-84
-85
-85
-85
-86
-86
-85
-86
-87
-87
-88
-87
-87
-87
-88
-88
-88
-87
-87
-86
-86
-85
-85
-85
-85
-85
-85
-85
-85
-85
-85
-86
-86
-86
-87
-87
-89
-89
-89
-89
-89
-90
-89
-89
-90
-90
-90
-90
-91
-91
-90
-90
-90
-90
-90
-89
-88
-88
-87
-87
-85
-85
-83
-82
-81
-80
-79
-78
-76
-74
-72
-69
-67
-65
-60
-57
-53
-47
-41
-35
-27
-19
-10
1
11
23
37
51
66
82
98
114
131
147
163
179
196
210
225
238
250
261
270
277
282
286
288
288
285
282
277
270
263
254
244
232
221
208
195
183
169
157
143
130
118
105
93
82
71
60
50
40
30
21
14
5
-2
-9
-16
-22
-28
-34
-41
-45
-51
-55
-59
-64
-69
-73
-77
-81
-85
-88
-91
-93
-96
-98
-100
-102
-104
-104
-106
-107
-108
-110
-110
-111
-112
-112
-112
-113
-113
-113
-113
-113
-113
-112
-112
-111
-111
-111
-110
-110
-110
-109
-109
-109
-109
-109
-109
-110
-110
-110
-110
-110
-110
-110
-111
-111
-112
-112
-112
-112
-112
-113
-113
-113
-113
-114
-115
-114
-114
-114
-114
-114
-113
-113
-112
-112
-111
-110
-109
-108
-108
-107
-106
-106
-106
-106
-106
-106
-106
-106
-107
-107
-107
-107
-107
-107
-107
-107
-107
-107
-109
-109
-109
-109
-110
-110
-110
-110
-110
-110
-111
-111
-112
-112
-113
-113
-114
-114
-114
-114
-115
-115
-116
-116
-116
-116
-116
-117
-117
-116
-117
-116
-115
-115
-113
-112
-111
-110
-109
-108
-107
-105
-105
-104
-103
-102
-101
-100
-99
-98
-98
-97
-96
-97
-96
-95
-95
-94
-95
-95
-95
-96
-96
-97
-98
-99
-100
-101
-102
-103
-103
-105
-106
-107
-106
-107
-107
-106
-107
-108
-107
-107
-107
-106
-106
-106
-106
-105
-106
-105
-105
-105
-105
-104
-104
-104
-103
-103
-104
-104
-105
-105
-105
-105
-106
-106
-106
-107
-107
-108
-108
-108
-108
-109
-108
-108
-107
-107
-107
-106
-106
-106
-106
-105
-105
-105
-105
-105
-105
-106
-106
-107
-107
-107
-107
-107
-108
-108
-109
-109
-109
-110
-111
-111
-112
-112
-113
-113
-113
-113
-112
-113
-113
-112
-112
-112
-111
-110
-111
-110
-109
-109
-108
-107
-108
-107
-106
-106
-106
-106
-106
-105
-105
-105
-104
-103
-103
-104
-103
-104
-103
-103
-103
-103
-103
-104
-103
-103
-104
-103
-104
-103
-102
-103
-102
-101
-101
-101
-100
-100
-99
-98
-98
-98
-97
-97
-97
-98
-97
-97
-98
-98
-98
-98
-98
-99
-99
-99
-100
-99
-99
-100
-99
-99
-99
-99
-99
-99
-99
-99
-99
-99
-100
-100
-100
-101
-101
-101
-102
-102
-104
-104
-104
-106
-106
-106
-108
-108
-108
-108
-107
-108
-106
-106
-106
-105
-103
-103
-102
-101
-101
-99
-98
-99
-98
-97
-97
-98
-97
-98
-98
-97
-98
-98
-97
-98
-98
-98
-99
-99
-100
-99
-100
-101
-102
-102
-103
-104
-104
-106
-106
-107
-107
-108
-108
-109
-109
-110
-110
-110
-110
-110
-110
-111
-111
-111
-112
-111
-112
-112
-111
-112
-111
-111
-112
-111
-112
-113
-112
-113
-114
-113
-114
-114
-114
-115
-116
-116
-117
-117
-116
-117
-117
-117
-116
-116
-114
-114
-114
-112
-112
-111
-110
-110
-110
-109
-110
-110
-109
-110
-111
-112
-112
-113
-113
-114
-115
-116
-117
-117
-118
-119
-119
-120
-120
-120
-121
-121
-120
-120
-120
-119
-119
-118
-118
-117
-115
-115
-114
-113
-114
-113
-112
-111
-111
-110
-111
-110
-110
-109
-110
-109
-110
-109
-109
-108
-108
-108
-108
-107
-107
-106
-106
-106
-104
-104
-104
-104
-103
-102
-102
-102
-102
-100
-100
-100
-99
-99
-99
-98
-98
-98
-97
-97
-97
-97
-97
-98
-98
-97
-98
-98
-97
-98
-97
-97
-96
-97
-96
-95
-95
-95
-95
-95
-95
-96
-95
-96
-95
-96
-96
-96
-96
-97
-97
-96
-97
-97
-97
-97
-97
-98
-96
-96
-96
-95
-95
-95
-94
-93
-92
-92
-90
-88
-87
-87
-86
-84
-83
-82
-81
-81
-80
-80
-80
-80
-80
-81
-82
-82
-83
-83
-85
-85
-85
-87
-87
-87
-87
-87
-89
-89
-89
-89
-89
-90
-90
-90
-90
-90
-89
-90
-90
-89
-88
-88
-89
-89
-89
-89
-89
-89
-90
-90
-90
-91
-90
-92
-92
-92
-92
-92
-92
-92
-92
-92
-92
-92
-92
-92
-93
-92
-92
-93
-93
-93
-94
-94
-95
-95
-96
-97
-98
-98
-98
-98
-98
-98
-99
-99
-99
-98
-98
-98
-98
-97
-96
-96
-96
-95
-95
-94
-93
-92
-92
-91
-91
-91
-90
-90
-90
-91
-91
-90
-91
-91
-91
-92
-93
-93
-94
-93
-94
-94
-94
-94
-94
-94
-93
-92
-93
-92
-92
-91
-91
-92
-91
-91
-91
-91
-92
-92
-92
-92
-92
-92
-93
-93
-93
-93
-94
-92
-93
-92
-92
-91
-90
-89
-88
-87
-85
-84
-82
-79
-75
-72
-69
-64
-60
-54
-48
-41
-34
-25
-16
-6
5
18
30
44
59
75
91
107
122
138
153
168
182
195
206
218
227
234
239
241
243
243
240
235
229
221
213
202
190
178
166
152
138
123
109
95
80
67
53
39
26
14
2
-9
-20
-30
-40
-50
-57
-65
-73
-79
-85
-90
-95
-100
-104
-108
-111
-114
-116
-119
-121
-122
-124
-125
-125
-125
-126
-125
-124
-124
-122
-121
-120
-119
-119
-117
-116
-115
-115
-114
-112
-111
-110
-110
-110
-109
-108
-107
-107
-106
-105
-106
-105
-105
-105
-105
-106
-106
-107
-107
-107
-107
-108
-108
-108
-108
-109
-108
-108
-108
-108
-108
-107
-107
-106
-107
-106
-106
-106
-107
-107
-107
-107
-108
-109
-108
-108
-109
-109
-110
-110
-111
-111
-112
-112
-112
-111
-112
-112
-112
-112
-111
-111
-110
-109
-109
-107
-107
-106
-106
-105
-105
-104
-104
-104
-104
-104
-105
-105
-105
-105
-106
-106
-107
-106
-106
-107
-107
-107
-106
-106
-106
-106
-105
-104
-102
-102
-101
-100
-99
-99
-97
-97
-96
-95
-94
-94
-94
-93
-92
-92
-92
-91
-92
-92
-93
-93
-93
-94
-95
-95
-96
-97
-96
-97
-97
-97
-98
-96
-97
-97
-96
-95
-95
-95
-94
-94
-93
-93
-93
-93
-92
-92
-92
-92
-92
-91
-91
-91
-91
-91
-90
-90
-90
-90
-91
-91
-92
-91
-91
-92
-91
-90
-91
-91
-91
-90
-90
-91
-91
-90
-90
-90
-90
-91
-91
-91
-90
-91
-91
-91
-91
-91
-91
-91
-91
-91
-90
-90
-90
-89
-89
-89
-87
-87
-87
-86
-86
-86
-86
-86
-86
-85
-86
-86
-86
-86
-86
-85
-85
-85
-85
-85
-85
-86
-86
-87
-88
-89
-90
-90
-91
-91
-93
-93
-93
-94
-94
-95
-96
-96
-96
-97
-97
-97
-97
-98
-97
-98
-98
-97
-98
-97
-98
-97
-97
-97
-97
-96
-97
-96
-97
-97
-96
-96
-96
-96
-96
-96
-97
-97
-97
-96
-96
-96
-96
-95
-95
-95
-94
-93
-92
-92
-91
-91
-91
-91
-90
-91
-90
-90
-90
-90
-90
-91
-90
-91
-90
-91
-90
-90
-90
-90
-91
-90
-90
-90
-91
-91
-91
-91
-90
-90
-89
-89
-89
-88
-89
-88
-87
-88
-87
-88
-89
-88
-90
-89
-90
-90
-91
-92
-92
-93
-93
-93
-94
-94
-94
-94
-93
-93
-92
-91
-90
-89
-89
-88
-88
-87
-86
-86
-86
-86
-86
-85
-86
-86
-86
-85
-86
-86
-87
-87
-88
-88
-88
-89
-89
-90
-90
-91
-91
-91
-91
-92
-93
-92
-92
-92
-92
-91
-91
-91
-91
-91
-91
-91
-91
-91
-91
-92
-91
-91
-91
-91
-91
-91
-92
-93
-93
-93
-93
-93
-93
-94
-94
-94
-95
-95
-96
-96
-96
-95
-95
-95
-95
-95
-94
-94
-93
-93
-94
-94
-93
-94
-95
-96
-96
-96
-97
-98
-98
-98
-99
-100
-100
-100
-101
-101
-102
-102
-102
-102
-102
-102
-103
-103
-102
-102
-102
-102
-102
-102
-102
-101
-100
-100
-100
-100
-100
-99
-99
-99
-98
-98
-98
-98
-98
-97
-97
-97
-97
-97
-97
-96
-96
-97
-97
-97
-97
-97
-98
-99
-99
-100
-100
-101
-101
-102
-102
-102
-102
-102
-103
-103
-103
-104
-102
-102
-101
-101
-100
-100
-99
-99
-99
-98
-97
-97
-97
-97
-97
-97
-97
-97
-97
-97
-96
-96
-96
-95
-95
-94
-94
-94
-94
-93
-94
-94
-93
-94
-94
-93
-93
-92
-93
-92
-92
-91
-91
-90
-90
-89
-89
-88
-88
-88
-87
-87
-86
-87
-86
-86
-86
-86
-86
-85
-85
-85
-85
-84
-84
-85
-84
-84
-84
-84
-84
-85
-84
-84
-85
-85
-85
-85
-84
-84
-84
-83
-83
-83
-83
-82
-82
-81
-81
-82
-82
-82
-82
-82
-82
-82
-81
-81
-82
-83
-82
-83
-84
-84
-85
-86
-86
-86
-88
-89
-90
-91
-92
-94
-95
-96
-97
-98
-99
-100
-100
-101
-101
-101
-102
-103
-103
-103
-103
-104
-103
-104
-105
-104
-104
-105
-105
-104
-104
-104
-104
-104
-104
-104
-104
-104
-103
-102
-102
-102
-102
-102
-102
-102
-102
-102
-102
-101
-101
-101
-101
-102
-102
-101
-101
-101
-102
-102
-102
-102
-102
-103
-103
-103
-103
-103
-103
-102
-103
-103
-102
-102
-102
-102
-101
-101
-101
-101
-100
-101
-100
-100
-100
-100
-100
-100
-100
-100
-99
-99
-99
-99
-99
-99
-99
-99
-99
-100
-99
-99
-100
-100
-101
-100
-100
-99
-99
-97
-94
-92
-88
-84
-80
-75
-68
-62
-55
-47
-38
-29
-18
-6
6
19
33
49
64
79
95
110
126
140
155
168
181
193
203
213
220
225
228
230
228
225
220
213
204
194
183
170
156
142
126
111
94
78
62
46
30
16
1
-12
-25
-37
-48
-59
-69
-78
-86
-94
-101
-106
-111
-117
-121
-125
-129
-132
-135
-137
-140
-142
-143
-145
-147
-146
-147
-147
-147
-147
-147
-146
-145
-145
-144
-144
-143
-142
-142
-141
-140
-139
-139
-138
-137
-136
-136
-135
-134
-132
-132
-131
-130
-129
-128
-127
-126
-126
-125
-124
-124
-124
-123
-123
-123
-123
-123
-123
-123
-123
-123
-123
-123
-123
-122
-122
-122
-121
-121
-120
-120
-120
-119
-119
-118
-117
-116
-115
-115
-114
-114
-113
-113
-111
-112
-111
-111
-110
-110
-110
-110
-110
-111
-111
-112
-112
-112
-112
-113
-114
-114
-115
-115
-116
-116
-117
-117
-118
-120
-121
-123
-125
-126
-128
-129
-131
-132
-133
-134
-134
-134
-135
-134
-133
-132
-131
-130
-128
-126
-124
-120
-118
-116
-112
-109
-106
-104
-101
-99
-97
-96
-94
-94
-93
-92
-93
-93
-93
-94
-95
-97
-100
-102
-103
-105
-106
-109
-110
-111
-112
-113
-114
-115
-115
-115
-115
-114
-115
-114
-113
-112
-110
-110
-109
-108
-107
-105
-105
-104
-104
-103
-103
-102
-102
-102
-102
-102
-103
-103
-104
-104
-106
-106
-106
-106
-107
-107
-108
-107
-108
-107
-107
-107
-107
-106
-106
-106
-106
-105
-105
-105
-105
-104
-105
-104
-104
-104
-104
-104
-103
-103
-103
-103
-102
-102
-102
-102
-102
-102
-102
-102
-102
-102
-101
-101
-101
-101
-101
-101
-101
-102
-102
-101
-100
-100
-101
-100
-100
-100
-101
-100
-101
-102
-101
-102
-103
-103
-103
-103
-104
-103
-104
-103
-103
-103
-104
-105
-104
-105
-105
-105
-105
-106
-106
-106
-107
-106
-107
-108
-108
-109
-109
-110
-110
-111
-113
-114
-115
-114
-115
-116
-116
-116
-116
-116
-115
-114
-113
-113
-112
-111
-109
-108
-105
-104
-102
-101
-99
-99
-97
-97
-96
-95
-95
-94
-94
-94
-94
-94
-94
-94
-95
-96
-96
-97
-97
-98
-99
-99
-100
-101
-102
-102
-103
-103
-104
-105
-104
-105
-105
-105
-104
-104
-104
-103
-103
-103
-102
-102
-102
-101
-102
-101
-101
-100
-101
-100
-100
-100
-100
-99
-99
-99
-98
-99
-99
-99
-98
-98
-98
-98
-98
-99
-99
-99
-99
-100
-100
-101
-101
-102
-102
-102
-103
-104
-104
-105
-106
-106
-107
-107
-108
-109
-109
-110
-110
-110
-110
-110
-110
-109
-109
-108
-108
-108
-107
-107
-107
-107
-107
-107
-107
-107
-107
-107
-107
-107
-107
-107
-107
-107
-107
-107
-107
-107
-107
-106
-107
-107
-108
-107
-108
-108
-108
-109
-109
-110
-110
-110
-109
-109
-109
-109
-109
-109
-109
-109
-109
-109
-109
-109
-109
-109
-109
-108
-109
-108
-109
-109
-109
-109
-109
-109
-109
-110
-111
-111
-112
-112
-113
-113
-114
-115
-116
-116
-117
-117
-118
-118
-119
-118
-119
-118
-117
-117
-117
-117
-116
-116
-115
-114
-113
-112
-111
-111
-110
-109
-107
-106
-106
-105
-104
-103
-103
-103
-102
-102
-102
-103
-103
-103
-103
-104
-105
-106
-106
-107
-107
-107
-108
-108
-107
-108
-107
-107
-106
-106
-105
-104
-103
-103
-101
-100
-100
-99
-97
-97
-96
-95
-95
-95
-93
-93
-93
-93
-92
-92
-92
-92
-93
-93
-93
-94
-94
-95
-95
-95
-96
-96
-96
-96
-97
-96
-96
-96
-96
-96
-96
-96
-95
-95
-95
-94
-93
-93
-92
-92
-91
-90
-91
-90
-89
-88
-88
-88
-88
-88
-89
-89
-90
-90
-91
-91
-92
-93
-93
-93
-95
-95
-95
-95
-94
-94
-94
-95
-94
-94
-94
-94
-94
-94
-93
-93
-93
-92
-92
-91
-92
-92
-92
-90
-90
-91
-91
-91
-91
-91
-91
-92
-92
-94
-95
-96
-96
-98
-99
-100
-102
-103
-104
-104
-105
-106
-106
-106
-108
-108
-108
-108
-109
-109
-109
-110
-110
-110
-109
-109
-108
-108
-108
-108
-108
-108
-108
-107
-108
-108
-109
-109
-109
-110
-110
-111
-111
-111
-111
-111
-111
-110
-110
-108
-107
-106
-105
-103
-103
-100
-99
-98
-96
-95
-94
-93
-93
-91
-91
-91
-92
-92
-92
-93
-94
-95
-97
-97
-99
-100
-101
-102
-103
-105
-107
-108
-108
-109
-109
-110
-109
-110
-110
-109
-108
-108
-107
-107
-106
-104
-103
-101
-99
-97
-95
-93
-90
-88
-84
-81
-78
-73
-69
-63
-58
-52
-45
-38
-29
-20
-11
0
11
22
36
48
62
75
90
105
118
131
144
155
167
177
186
193
198
202
204
204
202
198
191
183
173
160
148
133
119
104
88
71
55
38
22
6
-9
-24
-38
-52
-65
-77
-87
-98
-107
-116
-124
-130
-136
-141
-145
-150
-152
-156
-158
-160
-162
-163
-163
-164
-164
-164
-164
-164
-164
-164
-163
-163
-162
-161
-159
-158
-157
-156
-155
-153
-151
-150
-149
-148
-145
-145
-143
-141
-140
-140
-139
-139
-139
-138
-138
-138
-137
-137
-137
-136
-137
-136
-137
-136
-137
-136
-136
-135
-134
-133
-132
-131
-129
-128
-125
-124
-122
-120
-118
-116
-114
-113
-112
-111
-110
-109
-109
-109
-109
-109
-110
-110
-110
-111
-110
-111
-112
-113
-113
-114
-115
-116
-117
-117
-118
-119
-120
-120
-122
-122
-122
-123
-123
-124
-123
-123
-123
-123
-122
-122
-122
-120
-120
-120
-119
-118
-118
-118
-117
-117
-117
-117
-116
-116
-116
-116
-116
-115
-115
-115
-115
-115
-115
-115
-115
-115
-115
-115
-116
-116
-116
-116
-117
-118
-117
-117
-118
-118
-118
-118
-118
-118
-117
-118
-118
-118
-118
-117
-117
-117
-117
-117
-117
-117
-116
-116
-115
-114
-114
-114
-115
-114
-115
-115
-115
-116
-116
-117
-117
-118
-118
-118
-119
-119
-119
-120
-119
-120
-120
-120
-120
-120
-120
-119
-118
-117
-117
-116
-115
-114
-113
-112
-111
-110
-109
-107
-107
-106
-105
-104
-104
-104
-104
-105
-105
-106
-106
-107
-108
-108
-109
-110
-111
-112
-112
-112
-112
-112
-111
-111
-110
-109
-109
-108
-108
-107
-106
-105
-105
-104
-104
-103
-104
-103
-104
-104
-105
-106
-106
-106
-107
-108
-109
-110
-111
-111
-113
-113
-114
-114
-114
-114
-115
-114
-114
-115
-114
-114
-113
-113
-112
-111
-111
-111
-111
-111
-110
-110
-110
-111
-110
-111
-111
-110
-110
-110
-110
-110
-110
-111
-111
-110
-111
-111
-111
-112
-112
-113
-113
-113
-114
-115
-115
-115
-116
-116
-116
-117
-117
-118
-119
-119
-120
-120
-121
-121
-121
-123
-123
-122
-123
-122
-122
-122
-121
-121
-120
-119
-118
-118
-118
-117
-116
-115
-115
-115
-115
-115
-115
-114
-114
-115
-115
-114
-114
-114
-114
-114
-115
-114
-114
-115
-115
-114
-115
-115
-115
-115
-115
-116
-116
-116
-117
-117
-118
-118
-118
-118
-119
-119
-118
-118
-118
-118
-119
-119
-118
-118
-119
-118
-118
-117
-117
-117
-116
-116
-115
-115
-115
-115
-115
-115
-115
-116
-117
-117
-118
-119
-120
-120
-121
-121
-122
-122
-123
-122
-122
-122
-121
-121
-122
-122
-121
-120
-120
-120
-120
-120
-120
-120
-120
-120
-119
-120
-120
-121
-121
-121
-122
-122
-123
-124
-124
-126
-125
-126
-127
-128
-128
-128
-128
-128
-128
-128
-128
-127
-127
-126
-125
-124
-124
-122
-122
-122
-121
-121
-120
-121
-120
-121
-120
-121
-121
-121
-122
-123
-123
-123
-123
-123
-125
-124
-125
-125
-125
-125
-126
-126
-126
-126
-126
-126
-126
-125
-125
-125
-124
-123
-123
-123
-123
-121
-121
-120
-120
-121
-121
-120
-120
-120
-120
-119
-119
-119
-119
-119
-119
-119
-120
-120
-120
-121
-120
-120
-120
-120
-119
-120
-119
-120
-119
-118
-118
-117
-116
-115
-115
-114
-113
-112
-111
-111
-110
-110
-110
-109
-110
-110
-110
-110
-110
-110
-110
-111
-111
-112
-112
-112
-113
-112
-113
-113
-113
-113
-112
-112
-111
-111
-111
-110
-109
-109
-108
-107
-106
-105
-104
-103
-102
-101
-100
-99
-99
-98
-97
-97
-97
-96
-96
-95
-96
-96
-95
-95
-95
-95
-95
-94
-95
-96
-96
-97
-98
-98
-99
-100
-100
-101
-102
-103
-103
-104
-104
-105
-105
-105
-104
-103
-103
-103
-103
-102
-102
-102
-102
-102
-102
-102
-102
-102
-103
-103
-104
-104
-105
-105
-106
-106
-106
-107
-107
-108
-108
-108
-109
-109
-110
-110
-111
-111
-112
-113
-113
-114
-114
-114
-115
-115
-115
-116
-117
-116
-116
-117
-117
-117
-117
-117
-117
-116
-116
-116
-116
-116
-114
-114
-114
-115
-114
-114
-114
-115
-115
-115
-115
-115
-116
-117
-117
-117
-117
-117
-117
-118
-117
-117
-116
-116
-116
-115
-114
-114
-113
-112
-112
-111
-111
-111
-111
-111
-110
-110
-110
-109
-110
-109
-109
-108
-108
-108
-108
-108
-108
-109
-109
-109
-109
-110
-110
-111
-110
-110
-110
-111
-110
-110
-110
-110
-109
-109
-108
-107
-106
-103
-102
-100
-96
-94
-90
-87
-82
-77
-72
-66
-59
-51
-42
-32
-22
-11
1
14
27
42
55
69
83
96
109
121
133
143
152
161
168
172
175
177
175
171
165
157
147
136
123
109
94
78
62
45
28
11
-6
-22
-37
-52
-66
-79
-91
-102
-113
-123
-130
-139
-146
-152
-158
-162
-166
-170
-172
-174
-176
-177
-177
-178
-178
-177
-177
-177
-176
-175
-175
-173
-172
-171
-170
-169
-168
-166
-165
-163
-161
-160
-158
-156
-154
-152
-151
-149
-147
-146
-145
-144
-142
-141
-140
-139
-139
-137
-136
-136
-136
-135
-135
-134
-133
-133
-133
-133
-133
-132
-133
-133
-132
-132
-133
-132
-133
-133
-133
-132
-132
-132
-132
-132
-132
-132
-132
-131
-130
-130
-129
-130
-129
-129
-129
-129
-128
-129
-129
-128
-129
-128
-127
-127
-127
-127
-126
-127
-126
-127
-127
-126
-127
-127
-126
-127
-127
-127
-127
-127
-128
-127
-128
-128
-128
-128
-128
-128
-127
-128
-127
-127
-127
-127
-127
-127
-127
-126
-125
-125
-125
-124
-123
-122
-121
-122
-121
-120
-121
-120
-120
-120
-119
-119
-119
-119
-120
-119
-120
-120
-121
-121
-122
-122
-122
-122
-123
-122
-122
-123
-123
-123
-123
-123
-123
-123
-123
-124
-124
-124
-123
-123
-123
-122
-123
-123
-122
-122
-122
-123
-123
-123
-123
-124
-123
-124
-124
-124
-125
-124
-124
-124
-124
-122
-122
-122
-122
-121
-120
-120
-119
-118
-117
-117
-117
-116
-116
-116
-116
-115
-115
-115
-115
-115
-114
-114
-114
-114
-113
-114
-113
-114
-114
-114
-114
-114
-114
-114
-114
-114
-115
-115
-115
-114
-114
-115
-115
-115
-116
-116
-116
-117
-116
-117
-117
-117
-118
-118
-118
-118
-118
-118
-119
-118
-118
-117
-118
-117
-116
-116
-117
-116
-116
-116
-116
-116
-117
-117
-118
-118
-118
-118
-118
-119
-119
-119
-120
-120
-120
-121
-121
-121
-122
-122
-123
-123
-123
-124
-124
-124
-125
-125
-126
-126
-126
-126
-127
-127
-127
-127
-128
-128
-129
-129
-129
-130
-130
-130
-129
-129
-130
-129
-129
-129
-128
-128
-127
-126
-126
-125
-124
-124
-123
-123
-123
-123
-122
-122
-121
-121
-121
-121
-121
-121
-122
-122
-122
-122
-122
-122
-123
-123
-124
-124
-124
-125
-126
-126
-127
-128
-127
-128
-128
-128
-127
-127
-127
-127
-127
-127
-126
-126
-126
-125
-125
-124
-125
-124
-124
-123
-123
-123
-123
-122
-122
-122
-121
-121
-122
-122
-121
-122
-123
-123
-123
-123
-124
-124
-124
-125
-125
-125
-125
-125
-126
-126
-125
-126
-126
-126
-127
-127
-127
-127
-127
-128
-128
-128
-128
-128
-129
-128
-128
-128
-128
-128
-128
-128
-127
-127
-126
-127
-127
-126
-127
-127
-128
-128
-128
-129
-129
-130
-130
-129
-130
-131
-131
-131
-132
-133
-133
-133
-134
-134
-135
-135
-135
-135
-136
-136
-135
-136
-134
-134
-134
-134
-132
-132
-131
-130
-129
-128
-128
-127
-127
-126
-125
-125
-124
-124
-124
-123
-122
-122
-122
-121
-122
-121
-121
-121
-121
-121
-121
-121
-122
-122
-122
-123
-124
-124
-126
-126
-126
-127
-127
-128
-128
-127
-128
-128
-128
-129
-129
-128
-128
-128
-127
-127
-126
-126
-125
-125
-124
-124
-123
-123
-122
-122
-121
-122
-122
-122
-122
-123
-123
-123
-123
-124
-124
-124
-124
-124
-124
-123
-123
-123
-122
-121
-121
-120
-120
-119
-119
-119
-118
-118
-117
-117
-118
-117
-117
-118
-117
-117
-117
-118
-118
-117
-118
-117
-117
-118
-117
-117
-116
-116
-116
-115
-114
-114
-112
-111
-111
-110
-108
-108
-106
-106
-104
-103
-103
-102
-102
-101
-101
-102
-102
-102
-103
-103
-104
-104
-104
-105
-106
-106
-106
-107
-108
-107
-108
-108
-108
-108
-110
-110
-110
-110
-110
-111
-111
-111
-112
-112
-112
-112
-113
-112
-112
-113
-113
-113
-114
-114
-115
-115
-115
-116
-116
-116
-116
-116
-117
-117
-117
-117
-118
-118
-118
-118
-118
-119
-119
-119
-120
-121
-120
-120
-120
-120
-120
-120
-120
-119
-119
-119
-119
-118
-118
-118
-118
-118
-118
-119
-119
-120
-121
-122
-122
-123
-123
-124
-124
-124
-125
-125
-126
-126
-126
-126
-125
-126
-126
-125
-125
-124
-125
-125
-124
-124
-124
-124
-123
-124
-123
-124
-123
-123
-123
-123
-123
-124
-124
-125
-125
-126
-125
-126
-126
-126
-126
-126
-126
-126
-125
-124
-124
-124
-125
-124
-125
-124
-124
-125
-125
-125
-124
-125
-125
-123
-123
-122
-121
-119
-117
-114
-111
-109
-105
-100
-95
-90
-83
-76
-68
-59
-50
-40
-28
-16
-3
11
26
41
57
73
89
105
121
136
153
167
182
195
207
216
225
231
235
238
239
238
235
230
224
217
208
197
186
174
161
148
133
119
105
91
77
63
49
37
24
13
0
-10
-20
-29
-37
-46
-52
-59
-66
-73
-79
-83
-88
-93
-98
-102
-105
-109
-112
-115
-117
-119
-121
-124
-125
-127
-129
-131
-133
-135
-136
-138
-139
-140
-141
-143
-144
-144
-146
-147
-147
-148
-149
-148
-149
-150
-151
-151
-150
-150
-150
-150
-150
-150
-150
-151
-150
-150
-150
-150
-150
-149
-148
-148
-147
-147
-146
-147
-146
-146
-145
-145
-146
-146
-146
-147
-148
-148
-148
-148
-148
-149
-149
-149
-149
-149
-149
-150
-150
-149
-149
-150
-149
-148
-148
-148
-147
-147
-147
-147
-146
-146
-145
-145
-145
-145
-146
-147
-147
-148
-149
-150
-151
-152
-153
-153
-154
-154
-154
-154
-153
-153
-153
-152
-151
-151
-151
-150
-149
-149
-148
-147
-147
-146
-146
-146
-146
-146
-146
-146
-146
-145
-145
-145
-144
-143
-144
-143
-144
-143
-143
-144
-144
-144
-145
-146
-147
-147
-148
-149
-149
-150
-150
-150
-151
-151
-151
-151
-151
-152
-152
-152
-153
-153
-153
-153
-153
-153
-153
-153
-153
-153
-152
-153
-153
-153
-153
-154
-154
-154
-153
-154
-154
-154
-154
-155
-155
-155
-154
-154
-154
-153
-153
-152
-151
-151
-151
-150
-149
-149
-148
-148
-149
-148
-147
-147
-147
-147
-147
-147
-147
-147
-147
-148
-148
-148
-148
-148
-148
-149
-149
-150
-150
-151
-152
-152
-152
-152
-152
-152
-152
-152
-151
-150
-149
-149
-149
-148
-148
-147
-147
-146
-146
-145
-145
-145
-145
-144
-144
-144
-144
-144
-144
-143
-144
-143
-143
-143
-143
-144
-143
-144
-144
-143
-144
-144
-144
-144
-143
-143
-143
-143
-143
-143
-142
-142
-141
-142
-142
-141
-141
-141
-141
-141
-141
-141
-142
-142
-142
-142
-142
-142
-143
-142
-143
-143
-142
-142
-143
-142
-143
-142
-142
-142
-141
-141
-141
-140
-138
-138
-137
-136
-135
-135
-134
-134
-133
-133
-133
-133
-134
-134
-135
-135
-136
-137
-137
-138
-139
-140
-139
-140
-139
-138
-138
-137
-137
-136
-135
-135
-134
-133
-133
-132
-131
-131
-130
-130
-130
-131
-130
-130
-131
-132
-133
-133
-134
-135
-136
-136
-138
-138
-139
-140
-140
-141
-141
-142
-142
-142
-142
-143
-142
-142
-141
-141
-141
-141
-140
-140
-139
-140
-139
-139
-139
-139
-139
-138
-137
-137
-137
-136
-135
-135
-134
-134
-134
-133
-132
-133
-132
-132
-133
-133
-134
-135
-135
-135
-136
-136
-136
-137
-138
-138
-138
-139
-139
-140
-140
-141
-142
-143
-144
-144
-144
-145
-145
-147
-147
-147
-148
-148
-148
-149
-150
-150
-151
-150
-150
-150
-149
-150
-149
-149
-150
-149
-148
-148
-148
-147
-147
-146
-146
-145
-145
-145
-145
-144
-145
-145
-145
-145
-145
-145
-145
-145
-146
-146
-147
-147
-148
-149
-150
-150
-150
-150
-151
-151
-151
-152
-152
-153
-153
-154
-153
-154
-154
-154
-154
-154
-154
-153
-152
-152
-151
-151
-150
-150
-149
-149
-150
-149
-149
-148
-149
-148
-148
-147
-148
-147
-147
-147
-147
-145
-146
-145
-145
-144
-144
-143
-143
-143
-143
-143
-143
-143
-143
-143
-142
-142
-141
-141
-140
-140
-139
-138
-137
-137
-136
-135
-134
-134
-133
-132
-131
-131
-130
-129
-128
-129
-128
-127
-127
-126
-127
-127
-127
-127
-128
-129
-129
-129
-130
-130
-131
-132
-132
-132
-132
-132
-132
-133
-132
-132
-131
-131
-130
-130
-129
-129
-129
-129
-128
-129
-129
-129
-129
-129
-129
-129
-130
-130
-131
-131
-131
-132
-133
-133
-133
-134
-134
-135
-135
-136
-137
-138
-140
-140
-141
-142
-143
-144
-145
-145
-146
-145
-146
-146
-147
-147
-147
-148
-148
-148
-149
-149
-149
-150
-150
-151
-150
-150
-151
-151
-151
-151
-152
-151
-151
-151
-152
-152
-152
-151
-152
-152
-152
-151
-152
-151
-151
-150
-150
-150
-150
-150
-150
-151
-150
-151
-151
-152
-152
-153
-154
-154
-154
-155
-155
-154
-154
-155
-154
-154
-153
-152
-151
-151
-150
-150
-149
-148
-148
-147
-148
-147
-147
-147
-148
-148
-148
-148
-148
-149
-149
-150
-150
-151
-150
-150
-150
-149
-149
-147
-146
-143
-141
-138
-134
-130
-124
-118
-111
-103
-94
-84
-73
-61
-49
-35
-21
-6
11
28
43
60
77
94
111
128
145
162
178
192
205
218
228
238
246
252
256
259
261
261
259
257
253
248
241
234
226
218
208
199
189
179
168
157
147
136
125
114
103
92
80
69
59
48
37
27
17
8
-3
-12
-21
-30
-39
-48
-56
-64
-72
-80
-86
-93
-98
-105
-109
-114
-119
-124
-128
-132
-137
-139
-142
-146
-149
-152
-154
-157
-159
-162
-164
-166
-168
-170
-172
-173
-174
-175
-176
-177
-178
-178
-179
-179
-180
-180
-180
-181
-180
-181
-182
-182
-182
-182
-182
-181
-181
-181
-181
-180
-179
-178
-177
-176
-175
-174
-174
-172
-172
-171
-171
-170
-170
-170
-169
-168
-168
-168
-168
-168
-169
-169
-169
-171
-171
-171
-172
-173
-173
-174
-174
-174
-175
-177
-178
-177
-178
-179
-179
-180
-179
-179
-178
-177
-177
-176
-176
-176
-176
-176
-176
-177
-176
-176
-176
-177
-176
-176
-176
-176
-175
-175
-174
-174
-174
-174
-173
-173
-172
-172
-171
-171
-170
-170
-169
-168
-168
-168
-169
-169
-170
-171
-171
-171
-173
-173
-174
-174
-175
-177
-177
-179
-179
-181
-182
-182
-182
-183
-184
-184
-184
-184
-184
-184
-184
-183
-183
-183
-182
-182
-181
-181
-180
-178
-178
-177
-176
-174
-173
-173
-171
-171
-169
-169
-168
-168
-168
-168
-168
-169
-169
-170
-171
-172
-173
-175
-175
-177
-179
-179
-180
-180
-181
-181
-181
-181
-182
-181
-181
-182
-182
-182
-181
-181
-181
-179
-179
-178
-177
-176
-175
-174
-173
-172
-172
-171
-169
-169
-168
-167
-167
-167
-167
-167
-167
-168
-168
-169
-168
-169
-170
-170
-171
-171
-172
-172
-172
-173
-173
-173
-173
-172
-172
-171
-170
-168
-167
-165
-164
-163
-162
-160
-159
-157
-156
-154
-154
-152
-151
-149
-149
-149
-148
-149
-149
-150
-150
-151
-152
-153
-153
-155
-155
-157
-158
-159
-160
-160
-161
-161
-161
-161
-161
-161
-161
-160
-160
-160
-159
-158
-158
-157
-157
-156
-157
-156
-156
-156
-157
-158
-159
-159
-160
-161
-161
-161
-161
-161
-160
-159
-158
-158
-156
-155
-153
-153
-151
-150
-150
-148
-148
-148
-147
-147
-146
-145
-146
-145
-145
-146
-146
-147
-146
-147
-147
-148
-147
-147
-148
-148
-148
-147
-148
-149
-149
-149
-151
-151
-152
-151
-152
-152
-152
-151
-152
-152
-152
-152
-152
-152
-152
-153
-153
-153
-154
-153
-153
-154
-154
-154
-154
-154
-154
-155
-155
-155
-155
-155
-155
-156
-155
-155
-156
-155
-154
-154
-153
-152
-151
-151
-150
-150
-149
-148
-148
-147
-146
-146
-146
-146
-147
-147
-148
-149
-149
-149
-150
-150
-151
-151
-151
-152
-152
-153
-153
-154
-154
-154
-153
-154
-155
-155
-155
-155
-156
-156
-155
-156
-156
-156
-157
-158
-158
-158
-157
-158
-157
-157
-157
-157
-156
-156
-156
-155
-155
-154
-155
-155
-154
-153
-153
-153
-153
-152
-152
-152
-152
-152
-153
-153
-154
-154
-155
-154
-155
-155
-155
-156
-156
-157
-156
-156
-156
-156
-156
-156
-156
-156
-156
-156
-156
-156
-157
-157
-158
-157
-157
-158
-158
-157
-158
-157
-156
-156
-156
-155
-155
-154
-153
-153
-153
-152
-152
-151
-151
-151
-150
-148
-148
-147
-146
-145
-144
-143
-143
-142
-141
-141
-140
-138
-137
-136
-135
-135
-134
-133
-132
-131
-129
-129
-128
-128
-127
-127
-126
-127
-127
-126
-126
-127
-127
-127
-127
-127
-128
-128
-128
-128
-128
-128
-128
-127
-127
-126
-126
-125
-125
-125
-125
-124
-124
-124
-124
-123
-123
-123
-124
-123
-124
-124
-125
-124
-126
-126
-126
-127
-128
-127
-129
-129
-129
-130
-131
-133
-134
-135
-135
-136
-137
-137
-138
-138
-138
-138
-140
-140
-140
-141
-141
-142
-141
-141
-141
-141
-141
-140
-140
-140
-139
-139
-139
-139
-137
-137
-137
-137
-137
-137
-137
-138
-138
-138
-139
-140
-140
-140
-141
-141
-141
-141
-141
-140
-140
-139
-139
-138
-138
-137
-136
-136
-135
-135
-135
-134
-134
-133
-133
-133
-133
-132
-131
-132
-131
-132
-132
-132
-132
-132
-132
-132
-132
-132
-133
-132
-133
-133
-133
-134
-134
-134
-133
-133
-134
-133
-134
-134
-134
-134
-135
-134
-135
-134
-134
-134
-134
-132
-131
-130
-129
-128
-125
-121
-118
-113
-109
-102
-97
-89
-80
-70
-60
-48
-36
-22
-7
9
25
43
61
78
96
115
133
152
169
187
203
218
231
243
254
262
269
273
276
278
277
275
271
266
259
250
242
231
219
207
195
182
169
157
144
130
118
105
92
80
67
56
45
34
25
14
5
-4
-13
-21
-30
-38
-46
-53
-61
-67
-75
-81
-87
-92
-98
-102
-107
-111
-114
-118
-121
-124
-127
-129
-132
-135
-136
-139
-141
-143
-145
-147
-149
-149
-151
-152
-152
-153
-154
-154
-154
-154
-154
-155
-154
-155
-154
-153
-153
-152
-152
-151
-151
-151
-150
-149
-149
-148
-148
-147
-147
-146
-146
-145
-145
-143
-144
-144
-143
-143
-142
-142
-143
-142
-142
-143
-142
-143
-142
-143
-143
-143
-143
-143
-143
-143
-144
-144
-145
-144
-145
-145
-144
-144
-144
-143
-143
-143
-142
-142
-141
-140
-140
-139
-140
-139
-138
-138
-138
-138
-138
-137
-137
-137
-137
-137
-138
-137
-138
-138
-138
-138
-139
-139
-139
-139
-140
-140
-141
-141
-142
-142
-142
-142
-142
-142
-141
-141
-141
-140
-139
-138
-138
-138
-137
-137
-137
-137
-136
-137
-136
-137
-136
-137
-137
-136
-136
-136
-136
-136
-136
-136
-136
-135
-136
-135
-135
-135
-135
-135
-135
-135
-135
-135
-134
-135
-134
-134
-134
-134
-134
-133
-133
-133
-133
-132
-133
-133
-134
-134
-133
-133
-134
-134
-134
-134
-134
-134
-135
-134
-134
-134
-134
-133
-133
-132
-132
-131
-131
-131
-131
-130
-130
-130
-130
-130
-130
-129
-129
-129
-128
-128
-128
-128
-128
-128
-128
-127
-128
-128
-129
-129
-128
-129
-127
-127
-128
-127
-126
-126
-125
-125
-124
-123
-123
-123
-122
-122
-122
-122
-122
-122
-121
-121
-121
-122
-122
-122
-122
-122
-123
-123
-123
-123
-124
-124
-125
-124
-125
-126
-125
-125
-126
-125
-126
-126
-126
-126
-125
-125
-125
-124
-124
-123
-124
-122
-123
-122
-121
-122
-121
-122
-122
-121
-121
-121
-121
-120
-120
-120
-119
-120
-120
-120
-120
-121
-121
-122
-121
-122
-123
-124
-125
-125
-127
-127
-127
-126
-127
-126
-126
-125
-124
-124
-123
-122
-121
-121
-119
-118
-118
-116
-115
-114
-113
-112
-111
-110
-109
-108
-108
-108
-107
-108
-108
-108
-108
-109
-109
-110
-110
-110
-111
-112
-113
-113
-114
-114
-115
-115
-115
-116
-116
-117
-116
-116
-116
-116
-116
-116
-116
-116
-115
-115
-114
-114
-114
-114
-113
-113
-113
-112
-111
-111
-111
-110
-110
-110
-110
-110
-111
-111
-111
-112
-112
-112
-112
-113
-113
-113
-114
-114
-113
-113
-114
-114
-113
-114
-114
-115
-114
-114
-115
-115
-114
-114
-114
-113
-113
-113
-113
-113
-113
-112
-112
-112
-113
-112
-113
-112
-113
-113
-114
-113
-114
-115
-116
-116
-116
-116
-117
-117
-118
-118
-118
-119
-119
-120
-119
-120
-120
-120
-120
-120
-121
-121
-122
-122
-121
-121
-121
-121
-121
-121
-121
-121
-121
-122
-122
-122
-122
-122
-122
-122
-121
-121
-120
-120
-119
-119
-118
-118
-117
-117
-116
-115
-115
-115
-115
-115
-115
-116
-116
-117
-118
-118
-118
-118
-118
-119
-118
-118
-119
-118
-118
-117
-117
-117
-116
-116
-115
-114
-113
-113
-112
-111
-111
-110
-109
-107
-107
-106
-105
-105
-104
-104
-104
-104
-103
-103
-103
-103
-103
-101
-101
-101
-100
-100
-99
-99
-98
-99
-97
-98
-97
-96
-96
-96
-96
-95
-95
-95
-96
-95
-95
-94
-95
-94
-94
-93
-93
-92
-92
-92
-91
-91
-91
-90
-90
-91
-91
-91
-91
-91
-92
-93
-93
-94
-94
-95
-95
-95
-96
-96
-97
-98
-99
-100
-100
-101
-102
-102
-103
-103
-102
-103
-103
-103
-103
-103
-103
-103
-103
-103
-103
-103
-103
-103
-104
-103
-104
-104
-103
-104
-104
-105
-106
-106
-106
-107
-108
-108
-109
-109
-110
-111
-111
-111
-111
-112
-112
-111
-112
-112
-111
-111
-110
-110
-109
-109
-108
-107
-107
-106
-106
-106
-106
-105
-106
-106
-106
-107
-108
-109
-110
-111
-111
-112
-113
-114
-115
-115
-116
-117
-117
-118
-118
-118
-118
-118
-117
-117
-116
-115
-115
-114
-113
-112
-111
-110
-109
-108
-108
-108
-106
-107
-107
-107
-107
-108
-108
-109
-110
-110
-110
-110
-110
-111
-110
-110
-109
-107
-106
-105
-102
-100
-98
-95
-92
-88
-85
-81
-76
-71
-65
-58
-52
-44
-35
-27
-17
-6
6
20
34
48
62
77
92
107
122
137
152
166
179
192
203
213
222
228
234
237
237
236
233
228
222
213
205
193
180
168
154
139
124
109
94
79
64
50
37
23
10
-2
-14
-25
-35
-44
-53
-61
-68
-76
-82
-88
-93
-98
-103
-108
-111
-115
-118
-121
-123
-126
-128
-130
-131
-133
-134
-135
-137
-137
-137
-137
-137
-137
-137
-136
-136
-135
-135
-134
-133
-132
-131
-130
-129
-128
-127
-126
-125
-125
-124
-123
-124
-124
-123
-123
-123
-123
-123
-123
-123
-123
-123
-123
-123
-124
-123
-124
-124
-125
-125
-125
-125
-125
-125
-125
-125
-125
-125
-126
-125
-125
-125
-125
-125
-125
-125
-125
-125
-124
-124
-124
-124
-124
-124
-122
-122
-121
-121
-119
-119
-118
-118
-118
-118
-117
-117
-116
-117
-117
-117
-117
-118
-118
-119
-119
-119
-119
-120
-119
-120
-121
-120
-120
-121
-121
-121
-120
-120
-120
-119
-119
-119
-118
-117
-117
-115
-115
-113
-113
-111
-109
-109
-107
-107
-107
-107
-106
-107
-107
-107
-106
-106
-107
-107
-107
-108
-108
-108
-108
-109
-110
-110
-110
-110
-110
-110
-111
-110
-110
-109
-109
-109
-108
-108
-107
-107
-107
-106
-106
-105
-105
-104
-104
-104
-104
-105
-105
-106
-107
-107
-107
-108
-109
-108
-109
-109
-109
-110
-109
-109
-109
-109
-109
-109
-109
-109
-109
-109
-110
-109
-109
-108
-109
-109
-108
-107
-107
-106
-105
-104
-105
-104
-103
-104
-103
-103
-102
-103
-102
-102
-103
-102
-102
-103
-103
-104
-104
-105
-105
-105
-106
-106
-106
-106
-107
-107
-107
-107
-107
-107
-107
-107
-106
-105
-105
-104
-104
-103
-103
-101
-101
-101
-100
-100
-99
-100
-100
-100
-101
-101
-102
-101
-103
-103
-104
-103
-105
-104
-105
-105
-105
-105
-106
-105
-106
-107
-107
-107
-107
-108
-108
-108
-108
-108
-108
-109
-109
-109
-110
-109
-109
-110
-110
-109
-109
-109
-108
-108
-107
-107
-105
-104
-103
-101
-100
-99
-97
-95
-94
-93
-91
-90
-89
-88
-87
-87
-87
-86
-87
-87
-88
-88
-89
-90
-91
-92
-93
-93
-94
-95
-96
-96
-96
-98
-98
-98
-99
-99
-100
-100
-100
-100
-100
-99
-99
-98
-98
-98
-98
-98
-98
-99
-99
-99
-99
-98
-99
-99
-98
-99
-98
-99
-98
-98
-97
-97
-97
-96
-96
-95
-95
-94
-94
-94
-94
-94
-94
-95
-94
-95
-95
-96
-96
-96
-97
-98
-98
-99
-99
-100
-100
-101
-101
-102
-103
-103
-104
-105
-106
-106
-107
-108
-108
-109
-110
-110
-110
-110
-110
-109
-109
-109
-108
-107
-107
-106
-106
-104
-104
-103
-102
-102
-101
-101
-100
-100
-100
-100
-100
-99
-99
-100
-100
-100
-100
-101
-102
-102
-103
-104
-104
-104
-105
-105
-105
-105
-106
-106
-105
-105
-105
-106
-106
-106
-106
-106
-106
-106
-106
-107
-106
-106
-107
-107
-107
-107
-108
-108
-109
-109
-110
-110
-110
-110
-111
-111
-110
-111
-110
-111
-110
-110
-110
-109
-109
-108
-107
-106
-104
-104
-103
-102
-101
-100
-98
-98
-97
-96
-94
-93
-93
-91
-90
-90
-89
-89
-87
-88
-87
-88
-87
-87
-87
-88
-88
-88
-89
-89
-90
-90
-91
-91
-91
-90
-91
-90
-90
-89
-89
-88
-87
-87
-87
-85
-85
-84
-84
-83
-83
-82
-82
-82
-82
-81
-80
-80
-79
-79
-78
-78
-76
-76
-75
-75
-74
-74
-75
-74
-75
-75
-74
-75
-75
-74
-75
-75
-76
-76
-76
-76
-76
-77
-78
-78
-79
-79
-79
-80
-81
-82
-81
-82
-82
-83
-83
-84
-85
-86
-86
-86
-86
-87
-88
-88
-89
-89
-90
-91
-91
-92
-93
-93
-94
-93
-94
-93
-93
-93
-93
-93
-93
-92
-91
-91
-90
-90
-89
-89
-89
-88
-88
-87
-87
-87
-86
-86
-86
-85
-84
-85
-84
-85
-85
-85
-85
-86
-88
-88
-90
-91
-93
-95
-96
-98
-100
-101
-103
-103
-104
-105
-105
-106
-106
-106
-106
-105
-105
-104
-102
-101
-99
-97
-96
-94
-92
-91
-89
-88
-86
-85
-84
-84
-83
-83
-83
-83
-83
-84
-84
-85
-85
-86
-86
-87
-88
-88
-89
-89
-89
-91
-91
-92
-92
-93
-94
-95
-96
-96
-97
-97
-98
-98
-98
-97
-97
-97
-97
-95
-94
-94
-92
-91
-89
-87
-85
-82
-79
-76
-73
-70
-66
-62
-58
-52
-47
-40
-33
-25
-17
-8
2
13
24
37
49
62
77
92
106
120
134
147
160
173
185
197
206
215
220
224
227
226
225
220
213
205
195
184
172
158
143
128
113
97
80
64
49
32
17
3
-11
-25
-37
-49
-60
-69
-80
-87
-95
-103
-108
-114
-119
-124
-126
-130
-132
-134
-135
-137
-138
-139
-138
-139
-138
-139
-138
-136
-136
-134
-133
-132
-131
-130
-128
-128
-127
-126
-125
-124
-123
-123
-122
-121
-121
-121
-121
-121
-121
-121
-121
-120
-120
-120
-121
-120
-120
-120
-119
-119
-118
-117
-116
-116
-114
-113
-112
-112
-111
-109
-109
-107
-106
-105
-104
-103
-102
-101
-100
-98
-98
-97
-98
-97
-98
-98
-97
-98
-99
-100
-101
-102
-102
-103
-104
-105
-105
-106
-105
-105
-105
-106
-105
-104
-104
-103
-103
-102
-102
-101
-100
-99
-99
-99
-99
-98
-98
-98
-97
-98
-97
-97
-97
-97
-98
-97
-97
-98
-99
-99
-98
-98
-99
-98
-98
-98
-98
-97
-97
-97
-97
-98
-99
-99
-99
-100
-99
-100
-100
-100
-101
-101
-102
-101
-101
-101
-102
-102
-102
-102
-101
-101
-101
-100
-100
-101
-100
-101
-101
-101
-102
-102
-103
-103
-104
-104
-105
-106
-105
-105
-106
-106
-107
-106
-106
-105
-104
-104
-102
-101
-100
-99
-98
-96
-94
-93
-91
-89
-88
-87
-85
-83
-83
-82
-81
-82
-81
-81
-82
-83
-82
-83
-83
-84
-85
-86
-87
-88
-90
-91
-94
-94
-96
-98
-99
-101
-102
-104
-104
-106
-107
-107
-107
-107
-106
-105
-104
-103
-101
-99
-96
-95
-92
-89
-87
-84
-83
-80
-79
-77
-76
-74
-74
-74
-73
-73
-73
-74
-74
-75
-76
-77
-78
-80
-82
-83
-85
-86
-87
-88
-90
-91
-91
-92
-92
-92
-92
-92
-93
-92
-92
-91
-91
-91
-91
-90
-90
-90
-90
-90
-90
-91
-92
-92
-93
-93
-93
-93
-93
-93
-93
-94
-94
-94
-95
-95
-96
-96
-96
-96
-97
-96
-96
-96
-96
-95
-95
-95
-95
-94
-94
-94
-93
-92
-92
-92
-91
-90
-90
-90
-89
-89
-89
-88
-88
-88
-87
-87
-87
-88
-87
-87
-88
-87
-87
-88
-88
-89
-89
-89
-89
-89
-89
-89
-90
-90
-90
-89
-90
-89
-89
-89
-90
-90
-90
-90
-91
-92
-92
-93
-93
-94
-93
-94
-94
-94
-95
-95
-94
-94
-94
-94
-94
-94
-94
-94
-94
-94
-95
-96
-96
-97
-99
-99
-101
-101
-101
-103
-103
-103
-104
-104
-104
-105
-105
-105
-105
-103
-103
-102
-101
-100
-99
-98
-96
-94
-93
-92
-90
-89
-88
-87
-86
-86
-85
-85
-85
-84
-85
-84
-85
-85
-86
-87
-87
-87
-89
-89
-90
-91
-91
-92
-92
-93
-93
-94
-94
-94
-96
-96
-96
-95
-95
-95
-95
-94
-94
-93
-93
-92
-91
-92
-90
-90
-90
-90
-91
-91
-91
-91
-92
-92
-93
-93
-93
-94
-94
-94
-95
-95
-96
-95
-95
-95
-95
-96
-96
-95
-96
-95
-94
-94
-94
-93
-93
-92
-91
-90
-89
-88
-87
-87
-86
-86
-85
-85
-85
-86
-86
-86
-86
-86
-87
-87
-88
-89
-89
-91
-91
-92
-93
-95
-96
-97
-99
-99
-101
-102
-102
-102
-102
-102
-102
-102
-101
-99
-98
-96
-95
-93
-91
-89
-87
-85
-84
-81
-80
-78
-78
-77
-75
-74
-74
-74
-73
-73
-73
-73
-74
-74
-74
-74
-75
-75
-76
-76
-76
-77
-77
-78
-78
-78
-79
-79
-79
-79
-79
-79
-79
-78
-78
-77
-77
-77
-77
-78
-77
-77
-76
-76
-75
-74
-73
-72
-71
-70
-69
-68
-67
-65
-64
-63
-62
-61
-61
-60
-60
-60
-60
-61
-61
-61
-62
-62
-63
-65
-65
-66
-67
-68
-69
-71
-71
-73
-73
-75
-76
-77
-78
-79
-79
-80
-81
-82
-83
-83
-84
-85
-85
-85
-86
-85
-86
-86
-86
-87
-88
-88
-88
-87
-88
-88
-88
-87
-86
-86
-86
-86
-85
-85
-85
-85
-84
-84
-83
-83
-84
-84
-84
-84
-84
-84
-84
-84
-84
-84
-84
-84
-84
-85
-85
-85
-86
-86
-86
-87
-87
-87
-88
-89
-89
-90
-90
-90
-90
-90
-90
-90
-91
-91
-91
-91
-92
-92
-92
-93
-93
-93
-94
-95
-94
-95
-94
-95
-94
-93
-92
-92
-91
-89
-89
-88
-87
-86
-84
-84
-83
-82
-82
-82
-82
-81
-82
-82
-82
-82
-81
-81
-81
-81
-80
-78
-76
-74
-71
-68
-63
-58
-52
-46
-38
-30
-20
-10
0
13
25
38
53
68
83
99
115
130
144
158
171
183
193
203
211
218
223
225
226
225
221
216
209
200
189
177
163
150
134
118
102
85
69
52
37
22
7
-7
-20
-32
-44
-54
-64
-73
-81
-88
-95
-102
-106
-111
-115
-119
-123
-125
-128
-130
-132
-134
-135
-137
-137
-137
-138
-138
-137
-137
-137
-136
-135
-134
-134
-133
-132
-131
-130
-129
-127
-126
-125
-124
-122
-121
-120
-118
-116
-115
-113
-112
-111
-110
-108
-107
-106
-105
-105
-103
-103
-102
-102
-103
-102
-102
-102
-102
-103
-103
-104
-104
-105
-105
-105
-106
-106
-107
-108
-108
-108
-108
-107
-107
-105
-105
-104
-103
-102
-101
-101
-99
-99
-99
-97
-97
-97
-96
-96
-96
-95
-95
-95
-96
-96
-96
-97
-97
-97
-98
-99
-99
-100
-101
-101
-102
-103
-103
-103
-105
-105
-106
-106
-106
-106
-107
-106
-107
-106
-106
-107
-106
-106
-106
-104
-104
-104
-103
-103
-101
-100
-100
-98
-97
-95
-93
-92
-91
-90
-89
-87
-86
-87
-85
-86
-85
-85
-85
-85
-85
-85
-84
-84
-85
-85
-86
-86
-86
-88
-88
-90
-90
-90
-91
-92
-92
-93
-94
-94
-94
-95
-95
-94
-94
-93
-93
-93
-92
-91
-90
-90
-88
-87
-86
-87
-86
-85
-86
-86
-85
-86
-87
-86
-86
-87
-87
-87
-88
-88
-88
-89
-90
-90
-91
-91
-91
-90
-91
-90
-90
-90
-89
-88
-88
-88
-86
-85
-85
-83
-83
-82
-82
-81
-82
-81
-82
-82
-82
-82
-83
-83
-83
-84
-85
-85
-86
-86
-88
-88
-89
-90
-91
-93
-93
-94
-95
-95
-96
-96
-96
-97
-97
-97
-97
-96
-96
-96
-95
-95
-95
-95
-94
-94
-94
-94
-95
-95
-94
-94
-95
-95
-95
-95
-96
-95
-95
-95
-96
-97
-96
-97
-96
-97
-98
-99
-99
-99
-100
-100
-101
-101
-101
-101
-101
-101
-101
-101
-99
-100
-99
-98
-97
-96
-95
-95
-94
-94
-93
-91
-91
-90
-89
-89
-88
-88
-87
-86
-86
-85
-85
-84
-84
-83
-83
-83
-83
-83
-83
-83
-83
-83
-83
-83
-83
-83
-83
-84
-84
-84
-85
-85
-86
-86
-88
-88
-90
-90
-91
-91
-93
-93
-94
-94
-95
-95
-95
-96
-95
-95
-94
-94
-93
-93
-92
-93
-92
-91
-91
-90
-90
-89
-88
-88
-88
-88
-88
-86
-86
-86
-87
-87
-87
-88
-89
-89
-91
-92
-93
-94
-95
-96
-96
-97
-99
-99
-100
-100
-102
-102
-103
-103
-103
-103
-103
-102
-102
-102
-102
-101
-101
-100
-99
-98
-98
-98
-97
-96
-96
-96
-95
-96
-96
-97
-97
-99
-100
-102
-103
-104
-105
-106
-107
-108
-108
-108
-108
-108
-108
-107
-106
-106
-105
-103
-102
-100
-98
-97
-96
-93
-92
-90
-89
-88
-87
-87
-86
-86
-87
-87
-88
-88
-89
-90
-91
-92
-93
-94
-95
-96
-97
-98
-99
-99
-101
-101
-101
-102
-103
-104
-105
-106
-108
-109
-111
-112
-114
-115
-116
-116
-117
-118
-118
-118
-117
-116
-115
-114
-112
-109
-107
-104
-102
-99
-96
-93
-91
-89
-87
-85
-83
-82
-80
-80
-80
-79
-79
-79
-79
-79
-80
-81
-82
-82
-83
-84
-84
-85
-86
-85
-86
-85
-85
-85
-84
-85
-85
-84
-83
-83
-82
-82
-81
-81
-81
-82
-81
-81
-82
-82
-82
-83
-83
-82
-82
-83
-84
-83
-83
-84
-84
-83
-83
-84
-84
-84
-84
-84
-85
-84
-85
-85
-85
-84
-85
-85
-85
-85
-86
-86
-86
-86
-87
-87
-87
-87
-87
-87
-87
-87
-87
-88
-88
-88
-87
-87
-87
-87
-87
-87
-87
-87
-88
-89
-90
-91
-92
-94
-94
-95
-96
-98
-99
-99
-100
-101
-101
-101
-101
-101
-102
-102
-102
-101
-101
-100
-100
-100
-100
-99
-98
-98
-98
-97
-97
-97
-97
-96
-97
-97
-98
-99
-98
-99
-100
-100
-100
-100
-101
-101
-100
-100
-100
-101
-100
-101
-101
-101
-101
-101
-100
-100
-100
-101
-100
-100
-101
-101
-101
-102
-101
-102
-102
-102
-103
-102
-102
-102
-103
-103
-104
-104
-105
-106
-106
-107
-108
-108
-108
-109
-109
-110
-110
-110
-109
-110
-109
-109
-108
-107
-106
-106
-104
-104
-103
-102
-102
-102
-101
-101
-100
-101
-101
-101
-101
-102
-102
-102
-103
-104
-104
-105
-104
-105
-105
-106
-106
-105
-104
-103
-101
-98
-95
-92
-88
-84
-79
-73
-66
-59
-51
-41
-31
-20
-9
3
16
29
44
58
74
89
104
118
131
144
157
168
178
188
194
200
204
206
205
202
199
192
184
175
165
154
141
128
114
100
85
70
56
41
28
14
1
-11
-23
-35
-45
-56
-66
-74
-82
-90
-97
-102
-108
-113
-117
-121
-125
-129
-132
-135
-137
-139
-141
-142
-143
-144
-145
-146
-146
-145
-146
-145
-145
-145
-145
-143
-143
-142
-142
-141
-140
-140
-139
-139
-138
-137
-138
-137
-136
-135
-135
-135
-135
-134
-135
-135
-135
-136
-136
-136
-137
-137
-138
-138
-140
-140
-141
-141
-141
-141
-141
-140
-139
-138
-137
-136
-135
-133
-133
-132
-131
-129
-129
-128
-127
-127
-127
-127
-127
-128
-128
-128
-129
-130
-131
-131
-132
-132
-134
-134
-134
-135
-136
-136
-137
-136
-137
-136
-135
-135
-135
-134
-134
-133
-132
-130
-129
-129
-128
-126
-126
-125
-125
-124
-124
-124
-124
-125
-125
-126
-127
-127
-127
-128
-129
-130
-130
-131
-131
-132
-132
-133
-134
-134
-134
-135
-136
-136
-136
-137
-137
-137
-136
-136
-136
-136
-135
-135
-135
-137
-137
-137
-137
-138
-137
-137
-137
-137
-138
-138
-136
-136
-135
-135
-134
-134
-133
-132
-132
-130
-130
-129
-129
-128
-127
-127
-127
-127
-126
-127
-127
-127
-127
-127
-128
-128
-128
-129
-129
-130
-131
-131
-132
-133
-133
-133
-134
-134
-135
-135
-135
-136
-135
-135
-134
-134
-133
-133
-133
-132
-132
-132
-131
-132
-132
-133
-133
-134
-135
-135
-137
-137
-138
-139
-140
-140
-141
-141
-141
-141
-142
-141
-141
-140
-140
-139
-138
-138
-137
-136
-136
-134
-134
-133
-132
-132
-131
-131
-130
-130
-131
-131
-133
-134
-134
-135
-137
-138
-139
-140
-141
-141
-143
-143
-143
-144
-144
-144
-144
-145
-144
-144
-144
-144
-144
-143
-143
-143
-142
-142
-141
-141
-139
-139
-138
-137
-136
-135
-134
-134
-133
-132
-132
-130
-130
-129
-129
-127
-127
-126
-126
-125
-125
-124
-124
-124
-122
-123
-123
-124
-124
-125
-125
-126
-127
-128
-129
-130
-131
-131
-132
-132
-133
-134
-134
-135
-135
-134
-134
-134
-133
-133
-132
-132
-131
-130
-130
-128
-127
-127
-126
-126
-125
-125
-124
-123
-123
-123
-123
-123
-122
-123
-123
-123
-123
-124
-124
-124
-124
-125
-126
-127
-127
-127
-128
-127
-128
-128
-129
-130
-129
-130
-131
-130
-131
-131
-132
-132
-133
-133
-133
-133
-133
-133
-133
-133
-132
-132
-132
-132
-132
-132
-132
-133
-133
-133
-134
-134
-134
-135
-135
-136
-137
-138
-138
-138
-138
-138
-139
-139
-139
-139
-139
-139
-139
-139
-139
-139
-138
-138
-138
-138
-137
-137
-136
-137
-137
-137
-137
-137
-137
-138
-139
-139
-140
-142
-142
-143
-144
-144
-145
-146
-145
-145
-146
-146
-145
-145
-145
-145
-144
-143
-142
-141
-140
-138
-137
-136
-135
-134
-133
-131
-130
-130
-128
-128
-127
-126
-126
-126
-126
-126
-126
-127
-128
-129
-130
-131
-132
-132
-133
-134
-134
-135
-135
-135
-135
-135
-136
-135
-136
-136
-136
-137
-137
-137
-138
-139
-139
-139
-139
-139
-139
-139
-138
-138
-138
-137
-136
-136
-136
-136
-135
-134
-133
-134
-133
-132
-131
-131
-131
-131
-131
-130
-129
-130
-129
-129
-129
-129
-129
-129
-129
-129
-129
-129
-129
-129
-129
-129
-128
-127
-126
-127
-126
-125
-125
-125
-124
-123
-123
-122
-121
-121
-120
-119
-120
-120
-119
-119
-118
-118
-118
-118
-119
-119
-118
-118
-119
-119
-120
-120
-121
-120
-121
-122
-122
-122
-124
-124
-124
-124
-124
-124
-124
-123
-124
-123
-123
-122
-122
-121
-121
-121
-121
-120
-121
-121
-121
-121
-121
-122
-122
-123
-123
-125
-125
-126
-126
-127
-127
-128
-129
-130
-131
-132
-133
-134
-135
-134
-135
-134
-135
-134
-134
-135
-134
-133
-133
-134
-133
-132
-132
-131
-133
-132
-133
-134
-134
-134
-135
-135
-135
-136
-137
-137
-138
-138
-139
-140
-140
-139
-139
-139
-139
-139
-138
-136
-135
-134
-132
-131
-129
-128
-126
-125
-123
-122
-122
-121
-120
-120
-121
-122
-123
-124
-125
-126
-127
-129
-130
-131
-132
-133
-133
-134
-135
-135
-136
-136
-136
-136
-135
-135
-135
-135
-134
-133
-134
-134
-134
-133
-134
-133
-133
-133
-133
-133
-134
-134
-135
-136
-136
-136
-136
-136
-136
-137
-137
-136
-136
-135
-134
-134
-133
-130
-128
-125
-121
-117
-113
-108
-101
-95
-88
-79
-69
-58
-46
-33
-19
-4
12
28
44
62
80
97
114
132
148
164
179
192
204
216
224
232
237
241
243
244
243
240
236
230
224
216
207
197
186
175
163
152
140
128
116
104
92
81
70
60
50
40
30
21
12
3
-6
-14
-22
-30
-38
-46
-53
-60
-68
-76
-83
-89
-94
-100
-106
-110
-115
-120
-124
-128
-130
-132
-135
-137
-139
-140
-141
-143
-144
-144
-145
-145
-146
-146
-146
-146
-147
-147
-147
-148
-148
-148
-149
-150
-150
-152
-152
-153
-154
-155
-156
-157
-157
-158
-159
-160
-160
-161
-162
-163
-163
-163
-164
-164
-165
-166
-167
-167
-167
-167
-167
-166
-166
-165
-165
-165
-164
-163
-162
-161
-160
-161
-160
-159
-159
-158
-158
-158
-157
-157
-158
-158
-158
-159
-159
-159
-159
-159
-159
-159
-159
-160
-160
-160
-160
-160
-159
-159
-160
-160
-160
-161
-161
-161
-161
-161
-161
-161
-161
-161
-162
-162
-163
-163
-163
-163
-163
-163
-163
-163
-163
-163
-163
-163
-163
-163
-163
-162
-162
-162
-160
-160
-160
-160
-160
-160
-159
-160
-159
-159
-159
-159
-158
-158
-159
-159
-160
-160
-160
-161
-161
-163
-163
-165
-165
-166
-167
-168
-169
-169
-170
-171
-171
-171
-171
-170
-170
-169
-167
-167
-165
-164
-163
-162
-161
-161
-160
-159
-160
-159
-159
-158
-158
-158
-158
-158
-158
-159
-159
-159
-160
-160
-160
-160
-161
-163
-163
-164
-164
-165
-165
-166
-166
-167
-167
-167
-167
-167
-167
-167
-167
-166
-166
-166
-165
-164
-165
-164
-163
-163
-162
-163
-162
-162
-161
-161
-162
-161
-161
-162
-162
-163
-164
-165
-166
-167
-168
-168
-169
-170
-170
-171
-171
-172
-172
-172
-172
-171
-171
-171
-171
-171
-171
-171
-171
-172
-172
-172
-173
-173
-174
-174
-175
-175
-176
-176
-176
-176
-175
-175
-174
-174
-173
-172
-171
-170
-168
-167
-166
-164
-163
-162
-160
-159
-157
-156
-155
-154
-153
-153
-152
-151
-150
-151
-150
-150
-151
-152
-152
-153
-153
-153
-154
-154
-155
-155
-155
-155
-156
-156
-157
-157
-157
-158
-157
-158
-158
-158
-158
-159
-158
-159
-159
-159
-159
-160
-160
-159
-159
-159
-160
-159
-159
-160
-159
-159
-160
-160
-160
-159
-159
-159
-159
-158
-158
-157
-156
-156
-155
-155
-155
-154
-154
-153
-154
-153
-153
-153
-153
-153
-153
-153
-154
-153
-153
-153
-153
-155
-155
-155
-155
-156
-156
-156
-157
-158
-158
-159
-160
-161
-161
-162
-163
-163
-163
-163
-164
-164
-164
-163
-163
-163
-164
-164
-164
-163
-163
-163
-163
-163
-162
-162
-162
-161
-161
-160
-159
-159
-159
-159
-159
-159
-159
-159
-159
-160
-160
-161
-161
-161
-162
-162
-163
-164
-164
-165
-165
-166
-165
-166
-166
-165
-165
