# Simple Text Format
# Sampling Rate (Hz):= 1200.00
# Resolution:= 12
# Labels:= ECG	 V3
# Age:=	71
# Gender:=	Masculino
-219
-222
-224
-225
-227
-227
-227
-225
-224
-221
-218
-216
-212
-209
-206
-203
-200
-198
-195
-194
-192
-193
-192
-193
-194
-197
-199
-202
-206
-209
-211
-214
-217
-219
-220
-220
-219
-217
-213
-209
-204
-197
-188
-179
-168
-156
-144
-130
-116
-100
-85
-69
-53
-36
-19
-3
13
29
45
62
78
95
110
126
140
154
168
181
193
204
214
223
232
239
244
249
252
253
254
253
251
248
244
238
231
222
213
202
190
178
165
151
136
121
106
91
75
60
44
29
15
1
-14
-27
-39
-51
-63
-73
-84
-92
-100
-107
-113
-119
-123
-128
-131
-134
-136
-138
-140
-142
-143
-144
-144
-145
-145
-146
-146
-147
-148
-148
-149
-149
-151
-151
-152
-152
-153
-153
-154
-155
-156
-156
-157
-157
-158
-158
-158
-159
-159
-160
-160
-160
-161
-161
-161
-162
-163
-163
-163
-163
-163
-164
-164
-164
-164
-164
-164
-164
-165
-165
-165
-165
-165
-165
-165
-165
-165
-165
-165
-165
-165
-165
-165
-165
-165
-165
-165
-165
-165
-165
-165
-165
-166
-166
-166
-166
-166
-167
-167
-167
-167
-167
-168
-168
-168
-168
-168
-168
-169
-169
-169
-169
-169
-170
-170
-170
-170
-170
-171
-171
-171
-171
-171
-171
-171
-172
-172
-172
-171
-171
-173
-173
-173
-173
-173
-174
-174
-174
-174
-175
-175
-175
-176
-176
-176
-177
-177
-177
-178
-178
-179
-179
-179
-180
-180
-181
-181
-181
-182
-182
-182
-183
-184
-184
-185
-185
-185
-186
-187
-187
-188
-188
-189
-189
-190
-190
-191
-192
-192
-193
-193
-194
-195
-195
-196
-196
-197
-198
-198
-199
-200
-201
-201
-202
-203
-204
-205
-206
-207
-208
-209
-210
-211
-212
-213
-214
-215
-216
-218
-219
-220
-221
-222
-223
-224
-225
-226
-227
-228
-230
-230
-231
-232
-233
-234
-235
-236
-238
-239
-240
-241
-242
-243
-245
-246
-247
-247
-248
-250
-250
-251
-253
-253
-254
-255
-256
-256
-258
-259
-259
-260
-260
-261
-261
-262
-263
-263
-264
-265
-266
-266
-267
-267
-268
-268
-269
-269
-269
-270
-270
-270
-271
-271
-271
-271
-271
-271
-271
-271
-271
-271
-270
-270
-269
-268
-268
-267
-267
-266
-265
-264
-264
-263
-261
-260
-259
-258
-257
-255
-254
-253
-252
-250
-249
-247
-246
-245
-243
-241
-239
-238
-236
-235
-233
-231
-230
-228
-227
-224
-223
-221
-219
-217
-215
-214
-211
-210
-209
-206
-205
-204
-202
-201
-200
-199
-197
-195
-194
-193
-192
-191
-189
-188
-187
-186
-185
-184
-183
-182
-181
-180
-179
-179
-177
-176
-175
-174
-174
-173
-172
-172
-171
-170
-170
-169
-168
-168
-167
-167
-167
-166
-165
-165
-165
-165
-164
-163
-163
-162
-162
-161
-161
-160
-160
-160
-160
-159
-158
-158
-157
-157
-157
-157
-156
-156
-155
-155
-154
-154
-153
-153
-152
-152
-153
-152
-152
-151
-151
-151
-150
-150
-150
-149
-149
-149
-148
-148
-148
-147
-147
-147
-147
-147
-146
-146
-146
-146
-145
-145
-145
-145
-145
-144
-144
-144
-144
-144
-143
-143
-143
-143
-143
-142
-142
-142
-142
-142
-142
-142
-140
-140
-140
-140
-140
-140
-140
-139
-139
-139
-139
-139
-139
-139
-139
-139
-138
-138
-138
-138
-138
-138
-138
-138
-138
-138
-139
-139
-138
-138
-138
-138
-138
-139
-139
-139
-138
-138
-138
-138
-138
-138
-138
-138
-138
-138
-138
-138
-137
-137
-137
-138
-138
-138
-138
-138
-138
-138
-139
-139
-139
-139
-139
-139
-139
-140
-140
-140
-140
-140
-140
-140
-140
-140
-141
-141
-141
-141
-141
-141
-141
-141
-141
-141
-141
-141
-142
-142
-142
-142
-143
-143
-143
-143
-143
-143
-143
-143
-143
-143
-143
-143
-143
-143
-143
-143
-143
-143
-143
-143
-143
-143
-143
-144
-144
-144
-144
-144
-144
-144
-144
-144
-144
-145
-145
-145
-145
-145
-145
-146
-145
-145
-145
-145
-145
-146
-146
-146
-146
-146
-146
-146
-146
-147
-147
-147
-147
-147
-147
-147
-147
-147
-147
-147
-147
-147
-148
-148
-148
-147
-147
-147
-147
-147
-147
-147
-147
-147
-147
-147
-147
-147
-147
-147
-147
-147
-147
-147
-148
-148
-148
-148
-148
-148
-148
-148
-149
-149
-148
-148
-148
-148
-148
-148
-147
-147
-147
-147
-147
-147
-147
-147
-148
-148
-148
-148
-148
-148
-148
-148
-148
-148
-148
-148
-148
-147
-147
-147
-147
-147
-147
-147
-147
-147
-147
-147
-146
-146
-146
-146
-147
-147
-146
-146
-146
-146
-146
-146
-146
-146
-146
-146
-146
-146
-146
-146
-146
-146
-146
-146
-146
-146
-146
-147
-147
-147
-147
-147
-147
-147
-148
-148
-148
-148
-148
-148
-148
-148
-148
-148
-148
-148
-148
-148
-147
-147
-147
-147
-147
-147
-147
-147
-147
-147
-147
-146
-146
-146
-146
-146
-146
-146
-146
-146
-146
-145
-145
-145
-145
-145
-145
-145
-145
-144
-144
-144
-144
-144
-144
-144
-145
-145
-145
-145
-145
-144
-144
-144
-144
-144
-144
-144
-144
-145
-145
-145
-145
-145
-145
-145
-145
-145
-145
-145
-145
-145
-145
-145
-145
-145
-145
-145
-145
-145
-144
-144
-144
-144
-144
-144
-144
-144
-144
-144
-145
-145
-145
-145
-145
-145
-145
-145
-145
-145
-145
-145
-144
-144
-145
-145
-145
-145
-145
-145
-145
-145
-145
-145
-145
-145
-145
-145
-145
-145
-145
-145
-145
-145
-145
-146
-146
-146
-146
-145
-145
-146
-146
-145
-145
-145
-145
-145
-145
-145
-145
-145
-145
-145
-145
-144
-144
-144
-144
-144
-144
-144
-144
-144
-144
-144
-144
-144
-144
-144
-144
-143
-143
-143
-143
-142
-142
-142
-142
-142
-142
-142
-142
-142
-141
-141
-140
-140
-140
-139
-139
-139
-139
-137
-137
-137
-137
-137
-136
-136
-136
-136
-135
-134
-134
-134
-134
-134
-134
-134
-133
-134
-133
-133
-134
-133
-133
-134
-133
-134
-133
-133
-134
-133
-134
-134
-134
-134
-134
-134
-135
-135
-135
-135
-136
-136
-136
-136
-136
-137
-137
-139
-139
-140
-140
-141
-141
-142
-143
-143
-144
-145
-145
-146
-146
-147
-148
-147
-148
-147
-148
-147
-148
-148
-148
-148
-147
-148
-148
-148
-148
-148
-148
-148
-148
-148
-148
-148
-149
-149
-150
-150
-150
-151
-151
-152
-152
-152
-153
-153
-153
-153
-154
-154
-154
-154
-154
-154
-154
-154
-154
-154
-155
-155
-155
-155
-155
-155
-154
-154
-154
-154
-154
-155
-155
-155
-155
-155
-154
-153
-153
-153
-153
-153
-153
-153
-152
-152
-152
-152
-152
-151
-151
-151
-151
-151
-151
-151
-151
-151
-151
-151
-151
-151
-151
-151
-151
-151
-151
-151
-152
-151
-151
-151
-151
-151
-151
-151
-151
-151
-151
-151
-151
-151
-151
-151
-151
-151
-151
-151
-151
-151
-151
-151
-151
-151
-151
-151
-151
-151
-151
-151
-150
-150
-150
-150
-150
-150
-150
-150
-149
-149
-149
-149
-149
-149
-149
-149
-149
-149
-149
-149
-148
-148
-148
-148
-148
-148
-148
-148
-148
-148
-147
-146
-146
-145
-145
-144
-144
-143
-142
-141
-139
-137
-136
-135
-133
-132
-130
-129
-127
-125
-124
-122
-121
-120
-120
-120
-119
-120
-121
-121
-123
-125
-127
-130
-133
-136
-140
-143
-148
-153
-157
-162
-167
-171
-177
-181
-186
-190
-194
-198
-201
-204
-206
-208
-208
-209
-209
-208
-207
-204
-202
-199
-197
-193
-191
-187
-185
-182
-181
-179
-179
-179
-179
-180
-182
-185
-188
-190
-194
-197
-200
-203
-206
-207
-209
-209
-209
-207
-204
-200
-195
-188
-180
-171
-160
-149
-137
-124
-110
-96
-80
-65
-50
-34
-18
-2
14
30
46
62
77
93
108
122
137
151
164
177
189
200
210
220
228
236
242
247
251
254
255
255
254
251
247
243
237
230
221
213
202
189
178
164
150
136
121
106
92
76
62
47
32
18
6
-8
-21
-33
-44
-54
-64
-74
-81
-88
-95
-101
-106
-110
-114
-116
-118
-121
-122
-124
-125
-127
-128
-128
-129
-128
-129
-131
-131
-131
-132
-132
-133
-134
-135
-135
-136
-136
-137
-137
-138
-139
-139
-140
-140
-141
-141
-142
-142
-142
-144
-144
-144
-144
-145
-145
-145
-145
-145
-145
-145
-145
-147
-147
-147
-147
-147
-147
-148
-148
-148
-148
-149
-149
-149
-150
-150
-150
-150
-151
-151
-151
-151
-152
-152
-152
-152
-153
-153
-153
-153
-153
-153
-153
-153
-153
-154
-154
-154
-154
-154
-154
-154
-154
-155
-155
-155
-155
-155
-156
-156
-156
-156
-157
-157
-157
-158
-159
-159
-159
-159
-160
-159
-159
-160
-160
-160
-161
-161
-161
-161
-162
-162
-162
-162
-163
-162
-163
-163
-163
-163
-163
-163
-164
-164
-164
-164
-165
-165
-165
-167
-167
-167
-168
-168
-168
-169
-169
-169
-170
-171
-172
-172
-173
-173
-174
-174
-175
-175
-176
-177
-177
-178
-178
-179
-179
-179
-181
-181
-181
-182
-183
-183
-185
-185
-186
-187
-188
-188
-189
-190
-190
-191
-192
-193
-195
-195
-195
-196
-198
-199
-200
-201
-202
-203
-204
-205
-205
-206
-208
-209
-210
-211
-212
-213
-215
-216
-216
-217
-218
-220
-221
-222
-223
-225
-225
-226
-227
-228
-229
-231
-232
-232
-233
-234
-236
-237
-237
-238
-239
-241
-242
-242
-243
-244
-244
-246
-247
-247
-248
-248
-250
-250
-251
-252
-252
-254
-254
-255
-255
-256
-256
-256
-257
-257
-257
-258
-258
-258
-259
-259
-259
-259
-259
-259
-259
-259
-259
-259
-259
-258
-258
-258
-258
-257
-256
-256
-256
-255
-254
-253
-252
-252
-251
-250
-249
-248
-247
-246
-244
-243
-242
-240
-239
-237
-236
-235
-233
-231
-230
-228
-226
-225
-223
-222
-220
-218
-216
-215
-212
-211
-209
-207
-206
-204
-203
-201
-200
-197
-196
-194
-193
-192
-190
-189
-187
-185
-184
-183
-182
-180
-178
-177
-176
-175
-174
-173
-172
-170
-169
-168
-167
-166
-165
-163
-163
-162
-161
-160
-159
-159
-158
-157
-157
-156
-155
-155
-154
-153
-154
-153
-152
-152
-151
-151
-150
-149
-150
-149
-149
-148
-148
-147
-146
-146
-145
-145
-145
-144
-144
-143
-144
-143
-143
-142
-142
-142
-142
-142
-141
-140
-140
-139
-139
-139
-138
-138
-137
-137
-136
-136
-136
-135
-135
-135
-135
-135
-134
-134
-134
-134
-134
-134
-134
-133
-133
-133
-133
-132
-132
-132
-132
-132
-131
-131
-131
-131
-131
-130
-130
-130
-130
-129
-129
-129
-129
-129
-129
-128
-128
-128
-128
-128
-128
-128
-127
-127
-127
-127
-127
-127
-128
-128
-128
-127
-127
-127
-127
-127
-127
-127
-128
-128
-128
-128
-128
-127
-127
-127
-127
-127
-127
-127
-127
-126
-126
-126
-126
-125
-125
-125
-125
-124
-124
-124
-124
-124
-124
-125
-125
-125
-125
-125
-126
-126
-126
-126
-126
-127
-127
-127
-127
-127
-126
-127
-127
-127
-127
-127
-127
-127
-127
-127
-127
-127
-127
-127
-127
-127
-127
-126
-126
-127
-127
-127
-127
-128
-128
-128
-128
-128
-128
-128
-128
-129
-129
-129
-129
-129
-129
-129
-129
-129
-130
-130
-130
-130
-130
-130
-130
-130
-131
-130
-130
-130
-130
-130
-130
-130
-130
-130
-130
-130
-130
-130
-129
-130
-130
-130
-130
-130
-130
-130
-130
-130
-130
-130
-130
-131
-131
-131
-130
-130
-130
-131
-131
-131
-131
-131
-131
-131
-131
-131
-131
-131
-131
-131
-131
-131
-130
-130
-130
-130
-130
-130
-130
-129
-129
-129
-129
-129
-129
-129
-129
-129
-129
-129
-129
-129
-129
-129
-129
-129
-129
-129
-129
-129
-129
-129
-129
-129
-129
-129
-129
-129
-129
-129
-129
-130
-130
-130
-130
-130
-130
-130
-130
-130
-130
-130
-130
-130
-130
-130
-130
-130
-130
-130
-130
-130
-130
-130
-130
-130
-130
-130
-130
-130
-130
-130
-130
-130
-130
-130
-129
-129
-129
-128
-128
-128
-128
-128
-128
-128
-128
-128
-128
-128
-128
-129
-129
-129
-129
-129
-129
-128
-128
-129
-129
-129
-129
-129
-129
-129
-129
-129
-129
-129
-128
-128
-128
-128
-128
-128
-128
-128
-128
-128
-128
-128
-127
-127
-127
-127
-128
-128
-128
-128
-128
-128
-128
-128
-128
-128
-128
-129
-129
-129
-129
-129
-130
-131
-131
-131
-131
-130
-130
-130
-130
-130
-130
-130
-130
-129
-130
-130
-130
-130
-130
-129
-129
-129
-129
-129
-129
-129
-129
-129
-129
-130
-130
-130
-130
-129
-129
-129
-129
-129
-129
-129
-129
-129
-129
-129
-129
-129
-129
-129
-129
-129
-129
-129
-129
-129
-129
-129
-129
-129
-129
-129
-129
-129
-129
-129
-129
-129
-129
-130
-130
-129
-129
-129
-129
-129
-129
-128
-128
-128
-128
-127
-127
-127
-127
-127
-127
-127
-127
-127
-127
-127
-127
-127
-127
-127
-127
-127
-128
-128
-128
-128
-128
-128
-128
-128
-128
-128
-128
-128
-128
-128
-128
-127
-127
-127
-127
-127
-126
-126
-126
-126
-126
-127
-127
-127
-126
-126
-127
-127
-127
-127
-127
-127
-127
-127
-126
-127
-127
-127
-127
-127
-127
-128
-127
-127
-127
-127
-127
-127
-127
-127
-127
-126
-126
-126
-125
-124
-124
-124
-124
-123
-123
-123
-123
-122
-122
-121
-121
-121
-120
-119
-119
-119
-119
-119
-119
-118
-118
-118
-118
-118
-118
-118
-118
-117
-117
-117
-117
-117
-117
-118
-117
-117
-117
-117
-117
-116
-117
-116
-116
-117
-116
-117
-117
-116
-117
-117
-117
-117
-118
-118
-118
-119
-119
-119
-119
-121
-121
-122
-122
-122
-123
-123
-124
-125
-125
-126
-127
-127
-127
-129
-128
-129
-130
-130
-130
-131
-132
-131
-132
-131
-132
-131
-132
-131
-131
-132
-131
-131
-131
-132
-132
-132
-132
-132
-132
-132
-133
-133
-134
-134
-134
-135
-135
-135
-136
-137
-137
-137
-137
-137
-137
-137
-138
-138
-138
-138
-138
-138
-138
-137
-137
-137
-137
-137
-137
-137
-137
-137
-136
-136
-136
-136
-136
-136
-136
-136
-136
-136
-136
-135
-135
-135
-135
-135
-135
-135
-135
-135
-135
-135
-135
-135
-135
-135
-135
-135
-134
-134
-134
-134
-134
-134
-134
-134
-134
-134
-134
-134
-134
-134
-134
-135
-135
-134
-134
-134
-134
-135
-135
-134
-134
-134
-134
-134
-134
-134
-134
-134
-134
-134
-133
-133
-133
-133
-133
-132
-133
-133
-133
-132
-132
-132
-132
-132
-131
-131
-131
-131
-131
-130
-130
-130
-130
-130
-130
-130
-129
-129
-129
-128
-128
-128
-128
-128
-128
-128
-128
-127
-127
-127
-126
-126
-125
-125
-124
-123
-122
-121
-120
-119
-117
-115
-114
-112
-111
-109
-108
-107
-104
-103
-102
-101
-100
-100
-101
-101
-101
-103
-103
-105
-107
-110
-113
-117
-120
-124
-129
-133
-139
-144
-149
-154
-160
-165
-170
-175
-180
-184
-188
-191
-194
-196
-197
-197
-198
-197
-196
-194
-193
-190
-187
-184
-182
-180
-177
-175
-174
-172
-172
-171
-172
-173
-175
-178
-181
-184
-186
-189
-192
-195
-197
-198
-198
-198
-196
-193
-190
-184
-177
-168
-159
-149
-137
-124
-110
-96
-82
-65
-50
-33
-17
0
17
34
51
68
85
102
118
134
150
165
180
194
208
222
234
247
257
268
278
285
292
298
302
306
308
308
307
306
303
298
292
285
277
267
256
244
231
218
203
188
172
156
139
123
107
91
74
59
44
28
14
1
-11
-23
-35
-45
-54
-62
-70
-76
-83
-88
-92
-96
-99
-102
-103
-105
-107
-107
-109
-110
-110
-110
-111
-112
-112
-113
-113
-114
-114
-115
-115
-116
-116
-117
-117
-118
-119
-119
-120
-122
-121
-122
-122
-123
-123
-124
-124
-125
-126
-127
-127
-127
-128
-128
-128
-128
-129
-129
-129
-129
-130
-131
-131
-131
-131
-132
-132
-132
-132
-133
-133
-133
-133
-133
-133
-134
-134
-134
-134
-134
-134
-134
-134
-134
-134
-134
-135
-135
-135
-135
-135
-135
-135
-136
-136
-136
-136
-136
-136
-136
-137
-137
-137
-137
-137
-137
-137
-138
-138
-138
-138
-139
-139
-139
-139
-139
-139
-139
-139
-140
-140
-140
-140
-141
-141
-140
-141
-141
-141
-142
-142
-142
-143
-143
-143
-144
-144
-144
-145
-145
-145
-146
-146
-146
-146
-147
-147
-149
-149
-149
-149
-149
-150
-151
-151
-152
-152
-153
-153
-154
-154
-155
-155
-156
-156
-157
-158
-159
-159
-160
-161
-161
-161
-161
-162
-163
-163
-164
-165
-165
-166
-167
-167
-168
-169
-169
-170
-171
-172
-172
-173
-174
-175
-176
-177
-178
-178
-179
-180
-182
-183
-184
-185
-186
-187
-189
-189
-191
-191
-192
-193
-195
-196
-197
-198
-198
-199
-201
-202
-203
-204
-205
-206
-207
-208
-210
-211
-212
-212
-214
-215
-216
-216
-217
-219
-220
-221
-222
-223
-224
-225
-226
-227
-228
-229
-230
-231
-232
-233
-234
-235
-236
-237
-237
-238
-238
-239
-241
-241
-242
-242
-243
-243
-244
-244
-244
-245
-245
-245
-245
-245
-245
-245
-245
-245
-245
-245
-245
-244
-244
-244
-243
-243
-241
-241
-240
-239
-239
-238
-236
-235
-235
-233
-232
-231
-230
-228
-227
-225
-224
-222
-221
-220
-218
-217
-216
-214
-212
-211
-210
-208
-206
-205
-203
-202
-200
-199
-198
-195
-194
-193
-191
-190
-188
-187
-185
-183
-182
-181
-179
-178
-177
-175
-174
-173
-171
-169
-168
-167
-166
-164
-163
-162
-161
-160
-159
-158
-157
-156
-155
-154
-153
-151
-151
-150
-150
-148
-148
-148
-147
-145
-145
-145
-145
-143
-142
-142
-142
-141
-140
-140
-140
-140
-139
-138
-137
-138
-137
-137
-136
-136
-135
-135
-135
-134
-134
-133
-133
-132
-133
-133
-132
-132
-131
-131
-131
-130
-130
-130
-130
-129
-129
-129
-128
-128
-128
-127
-127
-127
-126
-126
-126
-126
-125
-125
-125
-124
-124
-124
-123
-123
-123
-123
-123
-122
-122
-122
-122
-122
-122
-122
-121
-121
-120
-120
-120
-120
-120
-120
-119
-119
-119
-119
-119
-119
-119
-119
-119
-119
-118
-118
-118
-118
-118
-118
-118
-118
-118
-118
-118
-118
-118
-118
-117
-117
-117
-117
-117
-117
-117
-117
-117
-117
-116
-116
-116
-115
-116
-116
-116
-116
-116
-116
-116
-116
-115
-115
-115
-115
-115
-114
-114
-114
-114
-114
-114
-114
-114
-114
-114
-114
-114
-114
-114
-115
-115
-115
-115
-115
-115
-115
-115
-115
-115
-116
-116
-117
-117
-117
-117
-117
-117
-117
-118
-118
-118
-118
-118
-118
-118
-118
-118
-119
-119
-119
-119
-119
-119
-119
-119
-119
-119
-119
-119
-119
-120
-120
-120
-119
-119
-119
-119
-119
-119
-119
-119
-119
-119
-119
-120
-120
-120
-120
-120
-120
-120
-120
-120
-120
-120
-120
-120
-120
-119
-119
-119
-119
-119
-119
-120
-120
-120
-120
-120
-120
-120
-120
-120
-121
-121
-122
-122
-122
-122
-122
-122
-122
-123
-122
-122
-122
-122
-122
-122
-122
-122
-122
-122
-122
-122
-122
-122
-122
-122
-122
-122
-122
-122
-122
-122
-122
-122
-121
-121
-122
-121
-121
-121
-121
-121
-121
-121
-121
-121
-121
-121
-122
-122
-122
-122
-122
-122
-122
-121
-121
-121
-122
-122
-122
-122
-122
-122
-123
-123
-123
-123
-123
-123
-123
-122
-122
-123
-123
-123
-123
-123
-122
-122
-122
-122
-122
-122
-121
-122
-122
-122
-122
-122
-122
-122
-122
-122
-122
-122
-122
-122
-122
-121
-121
-121
-121
-121
-120
-120
-120
-120
-119
-120
-120
-120
-119
-119
-119
-119
-119
-119
-119
-119
-119
-119
-119
-119
-119
-119
-119
-120
-120
-120
-120
-120
-120
-120
-119
-119
-119
-119
-119
-119
-119
-119
-119
-119
-118
-118
-118
-118
-118
-119
-118
-118
-118
-118
-118
-118
-118
-118
-118
-119
-118
-118
-118
-118
-119
-119
-119
-119
-119
-118
-118
-118
-118
-118
-118
-118
-119
-119
-118
-118
-118
-118
-118
-118
-118
-117
-117
-117
-117
-117
-118
-118
-118
-118
-118
-119
-119
-119
-119
-119
-119
-119
-119
-119
-119
-119
-119
-119
-119
-119
-119
-119
-119
-119
-119
-119
-118
-118
-118
-118
-119
-119
-119
-119
-118
-118
-118
-118
-118
-118
-118
-118
-118
-118
-118
-118
-119
-119
-119
-119
-119
-118
-118
-118
-118
-119
-119
-119
-119
-119
-119
-119
-119
-119
-120
-120
-119
-119
-119
-119
-120
-120
-120
-120
-120
-121
-121
-121
-120
-121
-121
-121
-121
-121
-121
-121
-122
-121
-121
-121
-121
-120
-121
-121
-121
-120
-120
-120
-119
-119
-119
-118
-118
-118
-118
-118
-117
-117
-117
-117
-117
-116
-115
-115
-115
-115
-114
-114
-114
-113
-113
-112
-112
-112
-111
-111
-111
-111
-111
-110
-110
-110
-110
-110
-109
-110
-110
-110
-109
-110
-110
-109
-110
-110
-109
-110
-109
-110
-110
-110
-110
-110
-111
-110
-111
-110
-111
-111
-112
-111
-111
-112
-112
-112
-113
-114
-114
-115
-116
-116
-117
-117
-118
-119
-120
-120
-121
-122
-123
-123
-124
-124
-125
-125
-125
-126
-127
-127
-127
-127
-127
-127
-127
-126
-127
-126
-126
-127
-125
-126
-126
-126
-126
-126
-126
-125
-125
-125
-126
-126
-127
-127
-127
-128
-128
-128
-129
-129
-129
-130
-131
-131
-132
-132
-132
-132
-132
-133
-133
-133
-133
-133
-133
-133
-133
-132
-132
-132
-132
-132
-132
-130
-130
-130
-131
-131
-130
-130
-130
-130
-130
-130
-130
-130
-129
-129
-129
-129
-129
-128
-128
-128
-129
-128
-128
-128
-128
-128
-127
-127
-127
-128
-128
-127
-127
-127
-127
-127
-127
-126
-126
-126
-126
-126
-126
-125
-125
-125
-125
-125
-125
-126
-125
-125
-125
-125
-125
-125
-125
-125
-125
-125
-125
-125
-125
-125
-125
-125
-125
-125
-125
-125
-125
-125
-125
-125
-125
-124
-125
-125
-125
-125
-125
-126
-126
-126
-126
-126
-126
-126
-125
-125
-125
-125
-125
-124
-124
-124
-124
-123
-123
-122
-121
-120
-118
-116
-115
-113
-112
-110
-109
-107
-105
-104
-102
-99
-99
-97
-96
-95
-94
-94
-94
-94
-96
-97
-98
-101
-104
-106
-110
-113
-117
-122
-127
-132
-137
-142
-147
-152
-158
-164
-168
-174
-178
-183
-186
-190
-192
-194
-195
-196
-196
-195
-193
-191
-189
-186
-182
-179
-176
-173
-169
-166
-163
-162
-160
-159
-158
-159
-160
-162
-164
-166
-169
-171
-173
-175
-178
-178
-179
-178
-177
-174
-170
-165
-159
-151
-142
-132
-120
-108
-94
-80
-66
-50
-34
-19
-2
14
32
49
66
82
99
116
133
148
164
179
195
209
224
238
251
263
275
285
295
304
312
318
323
327
329
330
331
330
327
323
317
309
301
291
280
268
255
240
225
209
193
176
158
141
123
106
89
72
56
40
25
11
-3
-15
-28
-38
-49
-58
-66
-73
-80
-86
-90
-94
-98
-100
-103
-105
-105
-106
-107
-108
-109
-109
-110
-110
-111
-111
-112
-112
-113
-114
-114
-115
-116
-116
-117
-117
-118
-120
-120
-121
-122
-122
-123
-123
-124
-125
-125
-126
-126
-127
-127
-128
-128
-128
-128
-129
-129
-129
-129
-130
-130
-130
-130
-130
-130
-130
-130
-130
-130
-130
-130
-130
-130
-130
-130
-130
-129
-130
-130
-130
-130
-130
-130
-131
-131
-131
-131
-132
-131
-131
-131
-131
-131
-131
-132
-132
-132
-132
-132
-132
-132
-133
-133
-133
-133
-133
-134
-134
-133
-133
-134
-134
-134
-134
-134
-134
-134
-135
-135
-135
-135
-136
-136
-136
-136
-137
-138
-138
-138
-138
-138
-138
-139
-139
-140
-140
-140
-141
-141
-141
-141
-142
-142
-142
-142
-142
-143
-143
-143
-143
-143
-144
-144
-144
-145
-145
-145
-146
-146
-146
-147
-147
-147
-147
-148
-148
-149
-149
-149
-149
-150
-151
-152
-151
-152
-152
-153
-153
-154
-155
-155
-156
-157
-157
-158
-159
-159
-160
-160
-161
-161
-162
-162
-163
-164
-164
-165
-166
-166
-168
-168
-168
-170
-171
-172
-173
-174
-175
-176
-177
-178
-179
-180
-181
-182
-183
-184
-185
-187
-188
-189
-190
-191
-193
-194
-195
-196
-197
-199
-200
-201
-201
-202
-203
-204
-206
-207
-208
-209
-209
-210
-211
-211
-213
-214
-215
-215
-216
-216
-217
-218
-218
-219
-219
-221
-221
-222
-222
-223
-223
-223
-225
-225
-225
-226
-226
-226
-226
-227
-227
-227
-227
-227
-227
-227
-227
-227
-227
-226
-225
-225
-225
-225
-223
-223
-222
-222
-221
-220
-219
-218
-218
-217
-215
-214
-213
-212
-210
-209
-208
-207
-205
-204
-203
-202
-200
-198
-197
-195
-194
-193
-191
-190
-188
-187
-185
-184
-183
-181
-180
-178
-177
-176
-175
-173
-171
-170
-168
-167
-165
-164
-162
-161
-159
-158
-157
-155
-155
-152
-151
-150
-149
-148
-147
-146
-146
-145
-144
-143
-141
-141
-140
-139
-139
-138
-137
-137
-136
-135
-135
-134
-133
-132
-132
-131
-130
-130
-129
-128
-128
-127
-126
-126
-125
-125
-124
-124
-123
-123
-122
-122
-121
-121
-120
-120
-120
-120
-120
-119
-119
-119
-118
-118
-118
-117
-117
-117
-117
-116
-116
-116
-116
-115
-115
-115
-115
-115
-114
-114
-114
-114
-114
-113
-113
-113
-113
-112
-112
-112
-112
-112
-112
-111
-111
-111
-110
-110
-110
-110
-110
-110
-110
-110
-110
-109
-109
-109
-109
-109
-109
-109
-109
-109
-109
-109
-109
-109
-109
-109
-109
-109
-109
-109
-109
-109
-109
-109
-109
-110
-110
-110
-109
-109
-109
-109
-109
-109
-108
-108
-108
-108
-108
-108
-108
-108
-108
-108
-108
-108
-108
-108
-108
-108
-108
-108
-108
-108
-108
-108
-108
-108
-108
-108
-107
-107
-107
-107
-107
-107
-107
-107
-107
-107
-107
-107
-107
-107
-107
-107
-107
-107
-107
-107
-107
-107
-107
-107
-108
-108
-108
-108
-108
-108
-108
-108
-108
-108
-108
-108
-108
-108
-108
-108
-108
-108
-108
-108
-108
-108
-108
-108
-108
-108
-107
-107
-107
-107
-107
-107
-107
-107
-107
-107
-107
-107
-107
-107
-107
-107
-107
-107
-108
-108
-108
-108
-108
-108
-108
-108
-108
-109
-109
-109
-109
-108
-108
-108
-109
-109
-109
-109
-109
-109
-109
-109
-109
-109
-109
-109
-109
-108
-108
-108
-108
-108
-109
-109
-109
-109
-109
-109
-109
-109
-109
-109
-109
-109
-109
-109
-109
-109
-109
-109
-109
-109
-109
-109
-109
-109
-109
-108
-108
-108
-108
-108
-108
-108
-108
-108
-108
-108
-108
-108
-108
-108
-108
-108
-108
-108
-108
-108
-108
-108
-108
-108
-108
-108
-108
-108
-107
-107
-107
-108
-107
-108
-108
-108
-108
-108
-108
-108
-108
-108
-108
-108
-108
-108
-108
-107
-107
-107
-107
-107
-107
-107
-107
-107
-107
-107
-107
-107
-107
-107
-107
-107
-108
-108
-108
-108
-108
-108
-108
-108
-108
-108
-108
-108
-108
-108
-108
-108
-108
-107
-107
-107
-106
-106
-106
-107
-107
-106
-106
-106
-106
-105
-105
-105
-105
-105
-105
-105
-105
-105
-105
-105
-105
-105
-105
-105
-105
-105
-105
-105
-105
-105
-105
-105
-104
-104
-104
-103
-103
-103
-103
-103
-102
-102
-102
-102
-102
-101
-101
-101
-101
-101
-100
-100
-100
-100
-100
-100
-99
-100
-100
-100
-100
-99
-99
-100
-100
-100
-100
-100
-100
-100
-100
-100
-100
-100
-100
-100
-100
-100
-101
-101
-101
-100
-100
-100
-100
-100
-100
-100
-100
-100
-99
-99
-99
-99
-99
-99
-98
-98
-98
-98
-99
-98
-98
-98
-98
-97
-97
-97
-97
-97
-97
-97
-97
-96
-96
-96
-96
-96
-96
-96
-96
-95
-95
-95
-95
-95
-95
-95
-95
-95
-95
-95
-95
-95
-95
-94
-94
-94
-94
-94
-94
-94
-94
-94
-94
-94
-94
-93
-93
-93
-93
-93
-93
-93
-93
-93
-93
-93
-92
-92
-92
-92
-92
-91
-91
-91
-89
-89
-89
-89
-88
-88
-88
-87
-87
-86
-86
-85
-84
-84
-83
-83
-83
-83
-81
-81
-81
-80
-80
-80
-79
-79
-79
-79
-78
-78
-78
-78
-78
-78
-78
-78
-78
-78
-78
-77
-78
-77
-78
-77
-78
-77
-78
-77
-78
-78
-78
-78
-78
-79
-79
-80
-79
-79
-80
-81
-81
-81
-82
-83
-83
-84
-85
-85
-86
-86
-86
-87
-88
-89
-89
-89
-89
-90
-91
-91
-92
-91
-92
-92
-93
-92
-93
-93
-93
-93
-92
-93
-93
-93
-93
-94
-94
-94
-94
-95
-95
-96
-96
-96
-97
-97
-97
-98
-98
-99
-99
-100
-100
-101
-102
-102
-102
-102
-102
-104
-104
-104
-104
-104
-104
-105
-105
-105
-105
-105
-105
-105
-105
-105
-105
-105
-105
-105
-105
-105
-105
-105
-105
-105
-105
-105
-106
-106
-106
-106
-106
-106
-106
-105
-105
-105
-105
-106
-106
-106
-106
-106
-106
-106
-106
-106
-106
-106
-106
-106
-106
-107
-107
-107
-107
-107
-107
-107
-107
-107
-107
-107
-107
-108
-107
-107
-107
-108
-108
-108
-108
-109
-109
-109
-110
-110
-110
-110
-109
-109
-110
-110
-110
-110
-110
-110
-110
-111
-111
-111
-111
-111
-111
-111
-111
-111
-111
-111
-111
-110
-111
-111
-111
-111
-111
-111
-111
-111
-111
-111
-111
-111
-110
-110
-110
-109
-108
-107
-106
-105
-104
-103
-102
-100
-99
-97
-96
-95
-93
-92
-91
-90
-89
-88
-88
-87
-88
-88
-89
-90
-92
-93
-95
-98
-101
-103
-107
-111
-115
-119
-123
-128
-132
-136
-140
-144
-148
-152
-155
-158
-161
-163
-163
-164
-164
-163
-162
-159
-157
-153
-149
-145
-141
-136
-131
-126
-122
-118
-113
-111
-109
-106
-104
-104
-104
-105
-106
-108
-111
-113
-115
-118
-120
-122
-124
-123
-123
-122
-119
-116
-110
-104
-97
-88
-78
-68
-55
-43
-29
-16
-2
13
28
44
59
75
91
106
122
138
153
168
183
197
211
223
236
247
258
269
277
285
292
297
302
305
307
307
306
304
301
297
291
284
276
267
257
245
232
219
205
190
176
161
145
129
114
99
84
69
53
39
26
13
2
-9
-21
-30
-39
-47
-55
-61
-67
-71
-75
-79
-82
-84
-86
-88
-90
-90
-91
-92
-93
-93
-94
-94
-94
-94
-95
-95
-96
-96
-97
-98
-99
-99
-100
-100
-101
-102
-102
-103
-104
-104
-105
-105
-106
-107
-107
-108
-109
-109
-110
-110
-110
-111
-111
-111
-112
-112
-112
-113
-113
-113
-114
-114
-114
-114
-114
-114
-114
-115
-115
-115
-116
-116
-117
-117
-117
-117
-117
-117
-118
-118
-118
-119
-119
-119
-119
-120
-120
-120
-121
-121
-121
-122
-122
-122
-122
-123
-123
-123
-123
-122
-123
-123
-123
-123
-123
-123
-123
-123
-123
-124
-124
-124
-124
-124
-124
-125
-126
-125
-125
-125
-126
-126
-127
-128
-127
-128
-128
-128
-130
-129
-129
-130
-130
-131
-131
-132
-132
-133
-133
-134
-134
-134
-135
-135
-136
-136
-137
-137
-137
-138
-138
-139
-139
-140
-140
-141
-140
-141
-141
-142
-142
-142
-143
-143
-144
-144
-145
-145
-146
-146
-147
-148
-149
-148
-150
-150
-151
-152
-152
-153
-154
-154
-156
-157
-158
-159
-159
-160
-161
-162
-163
-164
-165
-166
-168
-167
-169
-170
-171
-172
-173
-174
-175
-175
-176
-178
-179
-180
-180
-181
-182
-183
-184
-185
-186
-187
-187
-189
-190
-191
-192
-194
-193
-195
-196
-197
-198
-199
-200
-202
-203
-204
-204
-205
-207
-208
-209
-209
-210
-211
-213
-213
-214
-214
-215
-217
-217
-217
-219
-219
-220
-220
-221
-222
-222
-223
-224
-224
-224
-225
-225
-227
-227
-227
-228
-228
-228
-229
-229
-229
-229
-229
-229
-230
-229
-229
-229
-228
-228
-228
-227
-227
-225
-225
-224
-223
-222
-222
-221
-219
-218
-217
-216
-214
-213
-212
-210
-209
-208
-207
-205
-203
-202
-201
-199
-197
-196
-195
-192
-191
-190
-188
-186
-184
-182
-181
-179
-177
-176
-174
-173
-172
-170
-168
-166
-165
-163
-162
-161
-158
-157
-156
-155
-154
-152
-151
-149
-148
-147
-146
-144
-143
-142
-141
-140
-138
-137
-136
-135
-135
-134
-133
-132
-131
-130
-130
-129
-129
-128
-127
-127
-126
-126
-125
-125
-124
-123
-123
-122
-121
-122
-121
-120
-120
-119
-119
-119
-118
-118
-118
-117
-116
-116
-116
-116
-115
-115
-115
-114
-114
-114
-113
-113
-113
-112
-112
-112
-111
-111
-110
-110
-110
-110
-109
-109
-109
-108
-108
-108
-107
-107
-107
-107
-107
-107
-106
-106
-106
-106
-106
-106
-105
-105
-105
-104
-104
-104
-104
-103
-103
-103
-104
-104
-104
-104
-104
-104
-104
-104
-104
-103
-103
-103
-103
-103
-103
-103
-103
-103
-103
-104
-104
-104
-104
-104
-103
-103
-103
-103
-103
-103
-103
-103
-103
-103
-103
-103
-103
-103
-103
-103
-103
-103
-103
-103
-103
-103
-103
-103
-103
-103
-103
-103
-103
-103
-103
-103
-104
-104
-105
-105
-105
-105
-105
-105
-105
-105
-105
-104
-104
-104
-104
-105
-105
-105
-105
-105
-106
-106
-106
-106
-106
-106
-107
-107
-107
-107
-107
-107
-107
-107
-107
-107
-108
-108
-108
-108
-108
-108
-108
-108
-108
-108
-108
-109
-109
-109
-109
-109
-110
-110
-110
-110
-111
-111
-112
-112
-112
-112
-112
-112
-112
-112
-113
-113
-113
-113
-113
-113
-113
-113
-113
-114
-114
-114
-114
-114
-114
-114
-114
-114
-114
-114
-115
-115
-115
-115
-115
-115
-115
-115
-116
-116
-116
-115
-115
-116
-116
-116
-116
-116
-117
-117
-117
-117
-117
-117
-117
-117
-117
-117
-118
-118
-119
-119
-119
-119
-119
-119
-120
-120
-120
-120
-122
-122
-123
-123
-123
-124
-124
-125
-125
-126
-126
-127
-127
-128
-128
-129
-129
-129
-130
-129
-129
-129
-129
-130
-130
-130
-130
-130
-130
-130
-130
-130
-130
-130
-130
-130
-130
-130
-130
-130
-130
-130
-131
-131
-131
-131
-132
-132
-132
-133
-133
-133
-134
-134
-134
-134
-135
-136
-136
-136
-136
-137
-137
-137
-137
-137
-137
-137
-137
-137
-137
-137
-137
-137
-137
-137
-137
-137
-138
-138
-138
-138
-138
-138
-138
-139
-139
-139
-139
-139
-139
-139
-139
-139
-139
-139
-139
-139
-139
-140
-140
-140
-140
-140
-140
-140
-140
-140
-140
-140
-141
-141
-141
-141
-141
-141
-141
-141
-141
-141
-141
-141
-141
-141
-141
-141
-141
-141
-141
-141
-141
-141
-141
-142
-142
-142
-142
-142
-142
-142
-142
-142
-142
-142
-142
-142
-142
-142
-142
-142
-142
-142
-142
-142
-142
-142
-142
-141
-141
-141
-141
-141
-141
-141
-140
-140
-140
-140
-140
-140
-140
-140
-140
-140
-140
-140
-140
-140
-140
-140
-140
-141
-141
-141
-141
-141
-142
-142
-142
-142
-142
-143
-143
-143
-143
-143
-143
-144
-144
-144
-144
-144
-144
-144
-144
-144
-143
-143
-143
-144
-144
-144
-144
-144
-144
-144
-144
-144
-145
-145
-145
-145
-145
-145
-145
-145
-146
-146
-146
-146
-146
-146
-146
-146
-147
-147
-147
-147
-147
-147
-147
-147
-147
-147
-147
-147
-147
-147
-147
-148
-147
-147
-147
-147
-147
-147
-147
-147
-147
-147
-147
-147
-147
-147
-148
-148
-148
-148
-148
-148
-147
-147
-148
-148
-148
-148
-147
-147
-148
-148
-147
-147
-147
-147
-147
-148
-148
-148
-148
-147
-147
-147
-147
-146
-146
-146
-146
-146
-146
-146
-146
-145
-145
-145
-145
-145
-145
-144
-144
-144
-144
-143
-143
-143
-143
-142
-142
-142
-141
-141
-141
-141
-141
-141
-141
-140
-140
-140
-140
-139
-140
-140
-140
-139
-140
-139
-140
-140
-139
-140
-140
-141
-141
-141
-141
-141
-141
-142
-141
-141
-141
-141
-142
-142
-142
-142
-143
-143
-144
-145
-145
-145
-146
-146
-147
-148
-148
-149
-150
-151
-151
-151
-152
-153
-153
-153
-153
-154
-154
-154
-153
-154
-153
-153
-153
-154
-153
-154
-154
-153
-153
-154
-154
-154
-154
-154
-154
-154
-154
-156
-156
-157
-157
-157
-158
-158
-158
-158
-159
-159
-159
-159
-159
-159
-159
-160
-160
-160
-160
-159
-159
-159
-159
-160
-159
-159
-159
-159
-158
-158
-158
-158
-157
-157
-157
-157
-157
-157
-157
-156
-156
-156
-156
-155
-155
-155
-154
-154
-154
-154
-154
-154
-154
-154
-154
-154
-154
-154
-154
-155
-155
-155
-154
-154
-154
-154
-154
-154
-154
-154
-154
-154
-154
-154
-153
-153
-153
-153
-153
-153
-153
-153
-154
-154
-154
-154
-154
-154
-153
-153
-153
-153
-153
-153
-153
-153
-153
-153
-153
-153
-152
-152
-152
-151
-151
-151
-151
-151
-151
-151
-151
-151
-151
-151
-151
-150
-150
-150
-150
-149
-149
-149
-149
-149
-149
-149
-148
-148
-148
-147
-147
-146
-145
-143
-142
-141
-140
-139
-138
-136
-135
-134
-132
-130
-128
-127
-126
-125
-124
-123
-123
-123
-123
-123
-125
-126
-128
-130
-133
-136
-139
-143
-146
-151
-156
-160
-165
-170
-174
-179
-185
-189
-193
-196
-200
-203
-205
-208
-208
-210
-209
-209
-207
-205
-204
-201
-197
-195
-192
-189
-187
-185
-183
-181
-181
-180
-181
-182
-184
-186
-189
-191
-195
-197
-200
-203
-206
-208
-210
-210
-209
-208
-205
-201
-196
-189
-180
-172
-162
-150
-138
-126
-112
-98
-82
-67
-52
-35
-21
-5
11
26
41
57
71
86
100
114
127
140
152
163
174
184
192
201
208
215
220
225
228
230
232
232
231
229
226
222
217
211
203
194
185
175
164
152
140
127
114
101
86
72
58
45
32
17
5
-6
-19
-30
-42
-51
-61
-69
-78
-85
-91
-97
-102
-107
-109
-113
-116
-118
-120
-120
-122
-123
-124
-125
-125
-125
-125
-126
-126
-126
-127
-127
-127
-127
-128
-129
-129
-129
-131
-131
-131
-131
-132
-133
-133
-134
-134
-134
-134
-136
-136
-136
-137
-137
-137
-137
-138
-138
-138
-140
-140
-140
-141
-141
-141
-142
-142
-141
-142
-142
-142
-142
-142
-143
-143
-143
-143
-143
-143
-143
-143
-143
-143
-144
-144
-144
-144
-144
-144
-144
-144
-145
-145
-146
-146
-146
-146
-146
-146
-146
-146
-146
-146
-146
-147
-147
-147
-147
-147
-147
-148
-148
-148
-148
-148
-148
-148
-148
-149
-149
-149
-149
-149
-150
-150
-150
-150
-150
-150
-151
-151
-152
-151
-152
-152
-152
-153
-153
-154
-154
-153
-153
-153
-154
-155
-154
-154
-155
-155
-156
-156
-156
-156
-156
-157
-157
-157
-158
-158
-158
-159
-159
-160
-161
-161
-162
-162
-163
-163
-162
-163
-165
-164
-164
-165
-166
-166
-166
-168
-167
-168
-169
-169
-169
-171
-171
-172
-173
-173
-174
-175
-175
-176
-177
-177
-178
-179
-181
-182
-182
-183
-184
-185
-186
-186
-188
-189
-190
-191
-192
-193
-194
-195
-197
-198
-199
-199
-201
-202
-203
-204
-205
-206
-207
-208
-209
-209
-211
-212
-213
-214
-214
-215
-215
-217
-218
-218
-219
-219
-221
-221
-222
-222
-223
-224
-225
-225
-226
-228
-228
-229
-229
-230
-230
-232
-233
-233
-234
-234
-235
-235
-236
-236
-237
-237
-238
-238
-239
-239
-238
-239
-239
-239
-239
-239
-239
-239
-239
-239
-238
-238
-238
-238
-237
-237
-237
-236
-235
-234
-234
-233
-233
-232
-231
-230
-229
-229
-227
-226
-225
-223
-222
-222
-220
-219
-218
-216
-214
-213
-212
-210
-209
-207
-205
-204
-202
-200
-199
-196
-195
-193
-192
-190
-188
-187
-184
-183
-181
-180
-178
-176
-175
-174
-172
-171
-169
-167
-166
-165
-163
-162
-161
-160
-159
-158
-157
-155
-154
-153
-152
-151
-150
-149
-148
-147
-146
-146
-144
-143
-142
-142
-141
-140
-139
-139
-138
-137
-136
-136
-136
-134
-134
-133
-133
-133
-133
-132
-131
-132
-131
-131
-130
-130
-129
-129
-128
-128
-127
-127
-127
-127
-126
-125
-125
-124
-124
-123
-123
-122
-121
-121
-120
-120
-119
-118
-118
-118
-118
-117
-115
-115
-115
-114
-115
-114
-114
-113
-112
-113
-112
-112
-112
-112
-111
-111
-111
-111
-111
-111
-111
-111
-111
-111
-111
-111
-111
-111
-110
-110
-110
-109
-109
-109
-108
-108
-108
-108
-107
-107
-107
-107
-106
-106
-106
-106
-105
-105
-105
-105
-105
-104
-104
-104
-104
-104
-104
-104
-104
-104
-104
-104
-104
-104
-105
-105
-105
-105
-105
-104
-104
-104
-104
-104
-104
-104
-104
-104
-103
-103
-102
-103
-103
-103
-103
-103
-102
-102
-102
-102
-102
-102
-102
-102
-102
-102
-102
-102
-102
-102
-101
-101
-100
-100
-100
-100
-100
-100
-100
-100
-100
-100
-100
-100
-100
-100
-99
-99
-99
-99
-99
-99
-99
-99
-99
-99
-99
-99
-99
-99
-99
-99
-99
-99
-99
-98
-98
-98
-99
-99
-99
-99
-99
-99
-99
-99
-99
-99
-99
-99
-100
-100
-100
-100
-100
-99
-99
-99
-99
-99
-99
-99
-99
-99
-99
-99
-99
-99
-99
-99
-99
-99
-99
-99
-99
-99
-99
-100
-100
-100
-100
-100
-100
-100
-100
-100
-100
-100
-100
-100
-100
-100
-100
-100
-100
-100
-100
-100
-100
-100
-100
-100
-101
-101
-101
-101
-101
-101
-101
-101
-101
-101
-100
-100
-100
-100
-100
-99
-99
-99
-99
-99
-99
-98
-98
-98
-98
-98
-98
-98
-98
-98
-99
-99
-99
-98
-98
-98
-98
-98
-98
-98
-98
-97
-97
-96
-96
-96
-96
-96
-96
-95
-95
-95
-95
-95
-94
-94
-94
-94
-93
-93
-93
-93
-94
-94
-93
-93
-93
-93
-93
-93
-93
-93
-93
-93
-93
-93
-94
-94
-94
-94
-93
-93
-93
-93
-93
-93
-94
-94
-93
-93
-93
-92
-92
-92
-92
-91
-92
-92
-92
-92
-92
-92
-92
-92
-92
-92
-92
-92
-92
-92
-92
-92
-92
-92
-92
-92
-92
-91
-91
-91
-91
-91
-91
-90
-90
-90
-90
-90
-90
-90
-90
-90
-90
-89
-89
-89
-89
-89
-89
-89
-89
-89
-89
-89
-89
-88
-88
-88
-88
-88
-88
-88
-87
-87
-87
-87
-87
-87
-87
-87
-87
-87
-87
-87
-87
-86
-87
-87
-87
-87
-87
-87
-87
-87
-87
-87
-87
-87
-87
-87
-87
-87
-87
-87
-88
-88
-88
-88
-87
-87
-87
-87
-87
-87
-87
-87
-87
-87
-87
-87
-87
-87
-88
-88
-88
-87
-87
-87
-87
-87
-88
-88
-87
-87
-87
-87
-87
-87
-88
-88
-88
-88
-88
-88
-88
-88
-88
-88
-88
-88
-88
-88
-88
-88
-88
-88
-88
-87
-87
-87
-87
-87
-87
-87
-87
-87
-87
-87
-87
-87
-87
-87
-87
-87
-87
-87
-88
-88
-88
-88
-88
-88
-89
-89
-89
-89
-89
-89
-89
-89
-89
-89
-88
-88
-88
-89
-89
-89
-89
-87
-87
-87
-87
-87
-87
-87
-87
-87
-87
-87
-87
-86
-86
-86
-85
-85
-85
-84
-84
-84
-84
-84
-83
-83
-83
-83
-82
-82
-82
-82
-82
-81
-81
-81
-81
-81
-81
-80
-80
-80
-80
-80
-79
-79
-79
-79
-79
-79
-79
-79
-79
-78
-79
-78
-78
-78
-78
-78
-78
-77
-77
-77
-77
-78
-78
-78
-79
-79
-79
-79
-79
-79
-81
-81
-81
-81
-82
-82
-83
-83
-84
-84
-85
-86
-86
-87
-88
-88
-89
-90
-89
-90
-91
-92
-91
-92
-92
-92
-92
-93
-92
-92
-92
-91
-92
-92
-91
-91
-91
-91
-91
-91
-91
-91
-92
-92
-92
-92
-92
-93
-93
-93
-94
-94
-94
-95
-95
-95
-95
-97
-97
-97
-97
-97
-97
-97
-98
-98
-98
-98
-98
-97
-97
-97
-97
-97
-97
-96
-96
-96
-95
-95
-95
-95
-95
-94
-94
-94
-94
-94
-93
-93
-93
-93
-92
-92
-92
-92
-92
-92
-92
-92
-91
-91
-91
-91
-91
-91
-91
-91
-91
-91
-92
-91
-91
-91
-91
-91
-91
-90
-90
-90
-90
-90
-90
-90
-89
-89
-89
-89
-89
-89
-89
-89
-89
-88
-88
-88
-88
-89
-89
-89
-89
-88
-88
-88
-88
-88
-88
-88
-87
-87
-87
-86
-86
-86
-86
-85
-85
-85
-85
-85
-85
-85
-85
-85
-85
-85
-85
-85
-85
-83
-83
-83
-82
-82
-81
-80
-79
-78
-77
-75
-74
-71
-71
-68
-66
-65
-63
-61
-60
-58
-57
-56
-55
-54
-54
-53
-54
-55
-56
-58
-59
-62
-65
-68
-71
-76
-80
-85
-89
-94
-99
-104
-109
-114
-119
-124
-129
-133
-137
-141
-143
-145
-148
-148
-148
-148
-147
-146
-143
-141
-138
-136
-133
-130
-127
-125
-123
-122
-121
-120
-121
-122
-123
-125
-128
-130
-133
-136
-139
-142
-143
-146
-147
-146
-145
-143
-140
-135
-129
-122
-113
-104
-93
-81
-68
-54
-41
-25
-10
7
24
41
58
75
92
109
126
143
159
175
192
207
222
238
252
265
278
291
302
312
322
331
340
346
352
356
359
361
361
361
359
356
351
346
339
330
320
309
298
285
272
257
243
227
211
194
178
162
146
130
113
98
84
69
56
43
32
20
11
1
-6
-14
-20
-26
-31
-35
-39
-42
-44
-46
-48
-49
-50
-51
-52
-52
-52
-53
-53
-54
-54
-54
-55
-56
-56
-57
-58
-58
-58
-59
-60
-61
-61
-62
-63
-63
-64
-64
-65
-65
-66
-66
-67
-67
-68
-69
-69
-70
-70
-70
-71
-71
-72
-72
-72
-72
-73
-74
-74
-74
-74
-75
-75
-75
-76
-76
-76
-76
-78
-78
-78
-79
-79
-79
-80
-80
-80
-80
-81
-81
-82
-82
-82
-83
-83
-84
-84
-84
-85
-85
-84
-85
-85
-85
-86
-86
-86
-86
-86
-86
-86
-86
-87
-87
-87
-87
-88
-88
-88
-89
-89
-90
-90
-90
-91
-91
-91
-92
-92
-92
-93
-93
-94
-94
-94
-95
-95
-95
-96
-96
-96
-97
-97
-98
-98
-98
-98
-99
-99
-101
-101
-102
-103
-102
-103
-103
-104
-104
-106
-107
-106
-107
-107
-109
-109
-110
-110
-111
-111
-112
-112
-113
-113
-114
-115
-115
-116
-116
-117
-118
-118
-119
-121
-120
-122
-123
-124
-124
-125
-126
-127
-127
-128
-129
-130
-131
-132
-132
-133
-135
-135
-137
-139
-139
-140
-141
-142
-143
-145
-146
-146
-149
-150
-151
-152
-153
-154
-156
-156
-157
-158
-160
-161
-162
-163
-165
-166
-167
-169
-170
-170
-171
-172
-173
-174
-176
-176
-178
-179
-180
-181
-182
-183
-183
-184
-185
-186
-188
-188
-189
-190
-190
-191
-193
-194
-194
-195
-195
-196
-197
-197
-199
-199
-200
-200
-201
-201
-202
-202
-203
-203
-204
-204
-204
-205
-205
-206
-206
-205
-206
-206
-206
-206
-205
-205
-205
-205
-205
-204
-203
-203
-202
-202
-201
-201
-199
-199
-198
-196
-196
-195
-193
-192
-191
-189
-188
-186
-185
-184
-183
-182
-180
-178
-177
-175
-174
-172
-171
-170
-168
-167
-166
-165
-163
-162
-160
-159
-158
-157
-156
-153
-152
-151
-150
-148
-147
-146
-144
-143
-142
-140
-139
-138
-137
-135
-134
-133
-132
-131
-130
-129
-128
-126
-125
-125
-124
-123
-122
-121
-121
-120
-119
-119
-118
-117
-117
-116
-116
-115
-115
-114
-114
-113
-113
-112
-112
-112
-111
-111
-110
-109
-108
-108
-108
-108
-107
-106
-106
-105
-105
-104
-104
-103
-104
-103
-103
-102
-102
-101
-101
-102
-102
-100
-100
-100
-100
-100
-100
-100
-99
-99
-99
-99
-99
-99
-98
-98
-98
-98
-98
-96
-96
-96
-96
-95
-95
-95
-96
-96
-95
-95
-95
-95
-95
-95
-94
-94
-94
-94
-93
-93
-93
-93
-93
-92
-92
-92
-92
-92
-92
-92
-92
-92
-92
-92
-93
-93
-93
-93
-93
-93
-93
-93
-93
-93
-93
-93
-93
-93
-93
-93
-93
-93
-93
-93
-93
-93
-93
-93
-93
-93
-93
-93
-93
-93
-93
-93
-93
-94
-94
-94
-94
-94
-94
-94
-94
-94
-94
-94
-95
-94
-94
-94
-94
-94
-94
-94
-94
-95
-95
-95
-95
-96
-96
-96
-96
-96
-96
-96
-96
-97
-97
-98
-98
-98
-99
-99
-99
-99
-99
-99
-100
-100
-100
-100
-100
-100
-100
-99
-100
-100
-100
-100
-100
-100
-100
-100
-100
-100
-100
-100
-100
-100
-101
-101
-101
-101
-101
-101
-101
-101
-101
-102
-103
-103
-103
-103
-103
-103
-103
-103
-104
-105
-105
-105
-105
-105
-105
-105
-105
-105
-105
-104
-105
-105
-105
-105
-105
-105
-106
-106
-106
-106
-107
-107
-107
-107
-108
-108
-108
-108
-109
-109
-110
-110
-110
-110
-110
-110
-109
-109
-109
-109
-109
-109
-110
-110
-110
-110
-110
-110
-109
-109
-109
-109
-109
-109
-109
-110
-110
-110
-110
-110
-110
-110
-110
-110
-110
-110
-111
-111
-111
-111
-111
-112
-112
-112
-112
-112
-113
-113
-113
-113
-113
-113
-113
-113
-113
-113
-113
-113
-113
-114
-114
-114
-114
-114
-114
-114
-113
-113
-113
-114
-114
-114
-114
-114
-114
-114
-113
-113
-113
-113
-113
-114
-114
-114
-115
-115
-115
-115
-115
-115
-115
-115
-115
-115
-115
-116
-116
-116
-116
-116
-116
-116
-116
-116
-116
-116
-116
-116
-116
-117
-117
-117
-117
-117
-117
-117
-118
-117
-117
-117
-117
-118
-119
-119
-119
-119
-118
-118
-118
-118
-118
-119
-119
-119
-119
-119
-119
-119
-119
-119
-119
-119
-119
-119
-119
-119
-119
-119
-119
-119
-119
-119
-119
-119
-119
-119
-119
-119
-119
-119
-119
-119
-119
-120
-120
-120
-120
-120
-120
-120
-120
-120
-121
-120
-120
-120
-120
-120
-120
-121
-121
-121
-121
-121
-121
-121
-121
-122
-122
-122
-122
-122
-122
-122
-122
-122
-122
-123
-123
-123
-123
-123
-123
-123
-123
-123
-123
-123
-123
-123
-123
-123
-123
-123
-123
-123
-123
-123
-123
-123
-123
-123
-123
-123
-123
-123
-123
-124
-125
-125
-125
-125
-125
-125
-125
-125
-125
-125
-125
-125
-125
-125
-125
-125
-125
-125
-125
-125
-125
-125
-124
-124
-124
-124
-124
-124
-124
-125
-125
-124
-124
-124
-124
-124
-125
-125
-125
-125
-125
-125
-125
-124
-124
-125
-125
-125
-124
-124
-124
-124
-124
-124
-124
-124
-123
-123
-123
-123
-122
-122
-122
-120
-120
-120
-120
-119
-119
-119
-119
-118
-118
-118
-118
-118
-117
-117
-117
-117
-117
-117
-117
-117
-117
-117
-118
-118
-117
-118
-117
-117
-118
-117
-117
-118
-117
-118
-118
-117
-118
-118
-118
-118
-119
-119
-119
-119
-119
-120
-120
-121
-121
-123
-123
-123
-123
-125
-126
-126
-126
-127
-129
-129
-129
-129
-130
-131
-132
-131
-132
-133
-132
-133
-133
-133
-133
-134
-133
-134
-133
-133
-134
-133
-133
-134
-134
-133
-133
-133
-133
-133
-133
-134
-134
-134
-135
-135
-135
-135
-136
-136
-136
-136
-138
-138
-138
-138
-138
-138
-138
-138
-138
-138
-138
-139
-139
-139
-139
-139
-139
-139
-139
-139
-139
-138
-138
-138
-138
-138
-138
-138
-137
-138
-138
-138
-138
-138
-138
-137
-137
-137
-137
-137
-137
-137
-137
-137
-137
-137
-137
-136
-136
-136
-136
-136
-136
-135
-135
-135
-135
-135
-135
-135
-135
-135
-135
-135
-135
-134
-134
-134
-134
-134
-134
-134
-134
-134
-134
-134
-135
-135
-135
-135
-135
-135
-135
-135
-135
-136
-136
-135
-135
-135
-135
-135
-136
-136
-135
-135
-135
-135
-135
-135
-135
-135
-135
-135
-135
-135
-135
-135
-135
-135
-134
-134
-134
-134
-135
-135
-135
-135
-134
-134
-133
-132
-131
-130
-130
-129
-128
-126
-125
-124
-122
-121
-119
-117
-115
-114
-112
-111
-110
-109
-108
-106
-107
-107
-107
-107
-108
-109
-111
-112
-115
-118
-121
-125
-130
-134
-138
-143
-148
-153
-158
-163
-169
-174
-179
-183
-187
-191
-194
-197
-198
-200
-201
-201
-200
-198
-197
-194
-192
-189
-186
-182
-180
-177
-174
-172
-170
-169
-168
-168
-168
-169
-171
-173
-176
-178
-182
-184
-187
-189
-190
-191
-191
-191
-188
-184
-180
-175
-168
-159
-149
-138
-127
-114
-101
-87
-71
-57
-40
-24
-9
8
25
41
58
74
90
105
121
136
152
166
180
194
207
220
231
243
252
261
269
276
282
287
290
291
292
291
289
288
282
277
270
263
254
243
232
219
206
192
178
163
147
132
116
100
84
68
53
38
24
11
-2
-15
-27
-38
-48
-58
-66
-74
-81
-86
-92
-96
-100
-104
-106
-108
-110
-111
-112
-113
-113
-114
-114
-115
-115
-116
-116
-117
-117
-118
-119
-119
-120
-121
-122
-122
-123
-123
-124
-124
-125
-125
-126
-126
-127
-127
-128
-128
-128
-129
-129
-129
-130
-130
-130
-131
-131
-131
-132
-132
-132
-132
-133
-133
-133
-133
-133
-134
-134
-134
-134
-134
-134
-134
-134
-135
-136
-136
-136
-136
-136
-136
-136
-136
-136
-136
-137
-137
-137
-137
-137
-137
-137
-136
-136
-137
-136
-136
-136
-136
-136
-136
-136
-136
-136
-136
-136
-136
-136
-136
-136
-137
-137
-138
-138
-138
-138
-138
-138
-138
-139
-139
-140
-141
-141
-141
-141
-142
-142
-142
-143
-142
-142
-143
-144
-144
-145
-145
-144
-144
-145
-146
-146
-146
-146
-147
-147
-147
-148
-148
-147
-148
-148
-148
-149
-149
-150
-150
-151
-152
-152
-153
-153
-154
-155
-154
-155
-156
-156
-157
-157
-158
-158
-159
-159
-160
-160
-161
-161
-162
-162
-163
-165
-165
-166
-166
-167
-169
-169
-170
-171
-171
-173
-174
-175
-175
-176
-178
-179
-180
-180
-181
-183
-184
-185
-185
-187
-188
-189
-190
-192
-192
-193
-194
-196
-197
-197
-199
-200
-201
-202
-204
-204
-205
-206
-208
-209
-209
-210
-212
-213
-214
-214
-216
-217
-218
-219
-221
-221
-222
-223
-224
-224
-225
-226
-228
-229
-229
-230
-231
-231
-232
-233
-234
-235
-236
-236
-237
-238
-238
-239
-239
-239
-240
-240
-241
-241
-241
-242
-242
-242
-242
-243
-243
-243
-243
-243
-242
-242
-242
-241
-241
-240
-240
-239
-239
-238
-237
-236
-235
-235
-233
-232
-231
-230
-228
-227
-227
-225
-224
-223
-220
-219
-218
-217
-215
-214
-213
-211
-209
-208
-206
-205
-203
-201
-200
-198
-197
-195
-194
-192
-191
-189
-187
-187
-184
-183
-182
-180
-179
-177
-175
-174
-173
-172
-170
-168
-167
-166
-165
-163
-163
-161
-160
-159
-158
-157
-156
-155
-154
-153
-152
-151
-150
-150
-149
-148
-147
-146
-145
-145
-144
-143
-143
-142
-141
-141
-141
-141
-139
-139
-138
-137
-138
-137
-136
-136
-135
-135
-134
-134
-134
-133
-133
-133
-133
-132
-131
-131
-131
-131
-130
-130
-130
-129
-129
-129
-128
-128
-128
-127
-127
-127
-126
-126
-126
-126
-125
-125
-125
-125
-124
-124
-124
-124
-123
-123
-123
-122
-122
-122
-122
-122
-122
-121
-121
-121
-121
-121
-120
-120
-120
-120
-120
-120
-120
-119
-119
-119
-119
-119
-119
-119
-119
-118
-118
-118
-118
-118
-118
-118
-118
-118
-117
-117
-117
-117
-117
-117
-117
-117
-117
-117
-117
-117
-117
-117
-116
-116
-116
-116
-117
-117
-117
-117
-117
-116
-116
-116
-116
-116
-116
-116
-116
-116
-116
-116
-117
-117
-117
-117
-117
-117
-117
-116
-116
-116
-116
-116
-117
-117
-117
-117
-117
-117
-117
-117
-117
-117
-118
-118
-118
-118
-118
-118
-118
-118
-118
-118
-119
-119
-119
-119
-119
-119
-119
-119
-119
-120
-120
-121
-121
-121
-121
-121
-122
-122
-122
-122
-122
-122
-122
-122
-122
-122
-122
-122
-122
-123
-123
-122
-122
-122
-123
-123
-123
-123
-123
-123
-123
-123
-123
-123
-123
-123
-123
-123
-123
-122
-122
-122
-122
-122
-122
-122
-122
-122
-122
-122
-122
-122
-122
-122
-123
-123
-123
-123
-123
-123
-123
-123
-123
-123
-123
-123
-123
-124
-124
-124
-124
-124
-124
-125
-125
-125
-125
-125
-125
-125
-125
-125
-126
-126
-126
-126
-126
-126
-126
-126
-126
-126
-126
-126
-126
-126
-126
-126
-125
-125
-125
-125
-125
-125
-125
-125
-125
-125
-125
-125
-125
-125
-125
-125
-125
-125
-125
-125
-125
-125
-125
-125
-124
-124
-124
-124
-124
-124
-124
-124
-124
-124
-124
-124
-124
-124
-124
-124
-124
-124
-124
-124
-124
-124
-124
-124
-124
-124
-124
-124
-124
-124
-123
-123
-124
-124
-124
-124
-124
-124
-124
-124
-124
-124
-124
-124
-124
-124
-124
-124
-124
-125
-125
-125
-125
-126
-126
-126
-125
-125
-125
-125
-125
-125
-125
-124
-124
-124
-124
-124
-124
-124
-124
-124
-124
-124
-124
-124
-124
-124
-124
-124
-124
-125
-125
-125
-125
-125
-125
-125
-125
-125
-125
-126
-126
-126
-126
-126
-126
-126
-126
-126
-126
-126
-126
-126
-126
-126
-126
-127
-127
-127
-127
-127
-127
-126
-126
-127
-127
-127
-127
-127
-127
-127
-127
-127
-127
-127
-127
-127
-127
-127
-127
-127
-127
-127
-127
-127
-127
-127
-127
-127
-127
-127
-126
-126
-127
-127
-127
-127
-127
-127
-127
-127
-127
-127
-126
-126
-127
-127
-127
-127
-127
-127
-126
-126
-126
-126
-126
-126
-126
-126
-126
-126
-126
-126
-126
-125
-125
-125
-125
-125
-125
-125
-125
-124
-124
-124
-124
-124
-124
-124
-124
-124
-124
-124
-125
-125
-125
-125
-125
-125
-125
-125
-125
-125
-125
-125
-125
-125
-125
-125
-126
-126
-125
-125
-125
-125
-125
-125
-125
-125
-125
-125
-125
-124
-124
-124
-124
-124
-124
-122
-122
-122
-122
-121
-120
-120
-119
-119
-118
-118
-118
-117
-117
-116
-116
-116
-115
-114
-114
-114
-114
-114
-113
-113
-113
-113
-113
-114
-114
-114
-113
-113
-113
-113
-113
-113
-113
-112
-112
-113
-112
-112
-112
-112
-112
-113
-113
-113
-113
-113
-113
-114
-114
-115
-115
-115
-116
-116
-116
-117
-117
-117
-117
-117
-117
-118
-118
-118
-119
-120
-121
-121
-121
-122
-122
-123
-123
-124
-123
-124
-124
-124
-125
-125
-125
-125
-125
-125
-124
-125
-125
-126
-125
-125
-126
-126
-126
-126
-126
-127
-126
-128
-128
-128
-128
-128
-128
-129
-129
-129
-129
-129
-129
-129
-130
-130
-130
-130
-130
-130
-130
-131
-131
-131
-131
-131
-131
-131
-131
-131
-131
-131
-131
-131
-131
-131
-131
-132
-131
-131
-131
-131
-131
-130
-131
-131
-131
-131
-131
-130
-130
-131
-131
-131
-131
-131
-131
-131
-131
-131
-131
-131
-131
-130
-130
-130
-130
-131
-131
-130
-130
-130
-130
-130
-130
-130
-129
-129
-129
-129
-129
-129
-129
-128
-128
-128
-128
-127
-127
-127
-127
-127
-127
-127
-127
-127
-126
-126
-126
-126
-126
-126
-125
-125
-125
-125
-125
-125
-125
-124
-124
-124
-124
-124
-124
-123
-123
-123
-123
-123
-123
-123
-122
-122
-122
-122
-122
-121
-121
-121
-121
-121
-121
-120
-120
-119
-119
-118
-116
-116
-114
-113
-112
-111
-109
-108
-106
-105
-103
-101
-100
-98
-97
-96
-95
-94
-94
-94
-94
-95
-96
-97
-99
-102
-103
-107
-110
-114
-118
-122
-127
-132
-137
-141
-146
-151
-155
-160
-165
-168
-172
-175
-177
-179
-180
-181
-182
-181
-180
-178
-176
-173
-171
-167
-165
-162
-160
-157
-156
-154
-154
-153
-154
-155
-156
-158
-160
-163
-166
-170
-172
-175
-177
-180
-180
-181
-181
-179
-176
-172
-167
-161
-152
-144
-134
-123
-110
-98
-85
-70
-55
-40
-25
-10
6
23
40
55
71
86
101
116
131
146
159
172
185
197
208
219
228
236
245
252
257
262
265
266
267
267
265
262
259
254
248
241
233
224
214
202
192
178
166
153
139
126
111
97
83
70
55
42
30
16
5
-7
-17
-27
-37
-45
-54
-61
-67
-73
-78
-82
-86
-89
-92
-94
-96
-97
-98
-99
-100
-100
-100
-101
-101
-101
-102
-102
-103
-103
-103
-104
-104
-105
-106
-106
-106
-108
-108
-109
-109
-110
-110
-111
-111
-112
-112
-113
-113
-114
-114
-115
-115
-116
-116
-117
-117
-118
-118
-119
-119
-119
-119
-119
-120
-120
-120
-121
-121
-121
-121
-122
-122
-122
-122
-122
-122
-122
-122
-122
-122
-123
-123
-123
-123
-124
-124
-124
-124
-124
-124
-124
-124
-124
-124
-124
-124
-125
-125
-125
-125
-126
-126
-126
-126
-127
-127
-126
-126
-127
-127
-127
-128
-128
-128
-129
-129
-129
-129
-130
-130
-130
-129
-130
-130
-130
-131
-132
-132
-132
-132
-133
-133
-133
-133
-134
-134
-134
-135
-135
-135
-136
-136
-136
-137
-137
-137
-138
-138
-139
-140
-139
-139
-141
-141
-141
-142
-142
-143
-143
-143
-144
-145
-145
-146
-147
-147
-147
-148
-149
-150
-149
-150
-151
-152
-152
-153
-153
-154
-155
-155
-156
-156
-157
-157
-158
-159
-159
-160
-161
-162
-163
-164
-165
-167
-167
-168
-169
-170
-171
-172
-173
-174
-176
-177
-178
-179
-181
-181
-182
-183
-184
-185
-186
-187
-189
-189
-191
-192
-193
-194
-195
-196
-197
-199
-200
-201
-202
-203
-204
-206
-207
-208
-209
-210
-211
-212
-214
-214
-215
-216
-216
-218
-219
-219
-220
-221
-221
-223
-224
-224
-225
-226
-227
-228
-228
-229
-229
-231
-231
-232
-232
-232
-233
-233
-234
-235
-235
-235
-235
-235
-236
-236
-236
-236
-236
-236
-236
-235
-235
-235
-235
-235
-234
-233
-233
-233
-232
-231
-231
-229
-229
-228
-226
-226
-225
-224
-223
-222
-221
-219
-218
-217
-215
-214
-213
-211
-210
-209
-207
-206
-205
-204
-202
-201
-199
-197
-196
-195
-193
-192
-190
-189
-187
-186
-183
-182
-181
-179
-178
-177
-175
-173
-172
-171
-170
-168
-167
-165
-164
-162
-161
-160
-159
-158
-157
-156
-155
-154
-153
-152
-151
-150
-150
-149
-148
-148
-147
-147
-146
-145
-145
-144
-144
-143
-142
-143
-141
-142
-141
-140
-140
-139
-139
-139
-139
-138
-138
-137
-137
-136
-136
-135
-135
-135
-134
-134
-133
-133
-133
-133
-132
-132
-132
-132
-131
-131
-132
-131
-130
-130
-130
-131
-131
-131
-131
-130
-130
-129
-129
-129
-129
-129
-129
-129
-129
-129
-129
-129
-129
-129
-129
-129
-128
-128
-128
-128
-127
-127
-127
-127
-127
-126
-126
-126
-126
-125
-125
-125
-125
-125
-124
-124
-124
-124
-124
-124
-124
-123
-123
-123
-123
-123
-123
-124
-124
-124
-124
-124
-124
-124
-124
-124
-124
-124
-124
-124
-124
-124
-124
-124
-125
-125
-125
-125
-125
-125
-125
-125
-125
-125
-125
-125
-125
-125
-125
-125
-124
-124
-124
-124
-124
-124
-124
-124
-123
-123
-123
-123
-123
-124
-124
-124
-124
-124
-125
-125
-125
-125
-125
-125
-125
-125
-125
-126
-126
-125
-125
-125
-125
-125
-125
-126
-126
-126
-126
-127
-127
-127
-127
-127
-128
-128
-128
-128
-128
-128
-128
-128
-128
-128
-128
-128
-128
-128
-128
-129
-129
-129
-129
-129
-129
-129
-129
-130
-131
-131
-131
-131
-131
-131
-131
-131
-131
-131
-131
-131
-131
-131
-132
-132
-132
-132
-132
-132
-132
-132
-132
-132
-132
-132
-132
-132
-132
-132
-132
-132
-132
-132
-132
-132
-133
-133
-132
-132
-132
-132
-132
-132
-132
-132
-132
-132
-132
-132
-133
-133
-133
-133
-133
-133
-133
-133
-133
-133
-133
-133
-134
-134
-134
-134
-134
-134
-135
-135
-135
-135
-135
-135
-135
-135
-135
-135
-135
-135
-135
-136
-136
-136
-136
-136
-136
-136
-136
-136
-136
-136
-136
-136
-136
-136
-136
-136
-136
-136
-136
-135
-135
-135
-135
-135
-135
-136
-136
-136
-135
-135
-135
-135
-136
-136
-136
-136
-136
-136
-136
-136
-136
-135
-135
-135
-135
-135
-135
-135
-136
-136
-136
-136
-136
-136
-136
-136
-136
-136
-137
-137
-137
-137
-137
-137
-137
-137
-137
-137
-137
-137
-137
-137
-137
-137
-137
-137
-137
-137
-137
-137
-137
-137
-137
-136
-136
-136
-136
-136
-136
-136
-137
-137
-137
-137
-136
-136
-136
-136
-137
-137
-137
-137
-137
-137
-137
-137
-136
-136
-136
-136
-136
-136
-137
-136
-136
-136
-136
-136
-136
-136
-136
-136
-136
-136
-137
-137
-137
-137
-137
-137
-137
-137
-137
-138
-138
-138
-138
-138
-139
-139
-139
-139
-139
-139
-139
-138
-139
-139
-139
-139
-139
-139
-139
-140
-140
-140
-140
-140
-140
-140
-140
-140
-140
-140
-140
-140
-140
-140
-140
-140
-141
-141
-140
-140
-140
-140
-140
-141
-141
-141
-141
-142
-142
-142
-142
-142
-142
-142
-142
-142
-142
-143
-143
-143
-143
-143
-143
-143
-143
-143
-141
-142
-142
-142
-142
-142
-141
-141
-141
-140
-140
-140
-140
-141
-141
-141
-141
-140
-140
-140
-140
-141
-141
-141
-141
-140
-140
-140
-139
-139
-139
-139
-139
-139
-139
-139
-139
-139
-138
-138
-138
-138
-137
-137
-138
-138
-138
-137
-137
-136
-136
-136
-135
-135
-135
-134
-134
-134
-133
-133
-133
-132
-132
-131
-131
-131
-131
-131
-130
-130
-130
-130
-129
-130
-130
-130
-130
-130
-129
-129
-129
-129
-129
-129
-128
-129
-129
-129
-129
-129
-129
-129
-129
-128
-128
-129
-129
-129
-129
-129
-129
-129
-129
-129
-130
-130
-131
-131
-132
-132
-133
-133
-135
-135
-136
-136
-137
-138
-139
-139
-140
-141
-142
-142
-143
-143
-143
-143
-143
-144
-143
-143
-142
-143
-142
-143
-142
-142
-141
-142
-141
-141
-141
-141
-142
-142
-142
-142
-143
-143
-143
-143
-144
-144
-145
-145
-147
-147
-147
-148
-148
-148
-148
-148
-149
-149
-149
-150
-150
-150
-150
-150
-150
-150
-149
-149
-149
-149
-148
-148
-148
-149
-148
-148
-148
-148
-148
-147
-147
-147
-147
-147
-146
-146
-147
-147
-147
-147
-147
-147
-147
-147
-147
-146
-146
-145
-145
-145
-145
-145
-145
-145
-145
-145
-145
-145
-145
-145
-145
-145
-146
-146
-145
-145
-145
-145
-145
-145
-145
-145
-145
-145
-145
-144
-145
-145
-145
-145
-145
-144
-143
-144
-144
-144
-144
-144
-144
-144
-144
-144
-144
-144
-144
-144
-144
-144
-144
-144
-144
-144
-144
-144
-143
-143
-143
-142
-142
-141
-141
-141
-141
-141
-140
-140
-140
-140
-139
-139
-140
-139
-139
-137
-136
-136
-135
-134
-133
-131
-130
-128
-126
-125
-123
-121
-119
-117
-116
-114
-113
-112
-111
-111
-111
-110
-112
-112
-113
-114
-117
-120
-123
-126
-131
-134
-139
-144
-149
-154
-159
-165
-171
-176
-181
-186
-190
-195
-199
-201
-204
-206
-208
-208
-209
-208
-208
-206
-203
-201
-198
-195
-193
-191
-189
-186
-184
-184
-183
-183
-184
-185
-187
-189
-192
-194
-198
-200
-203
-205
-208
-209
-210
-209
-207
-205
-201
-196
-189
-182
-173
-163
-152
-139
-126
-113
-98
-82
-66
-50
-33
-17
-1
17
34
50
68
84
100
116
132
148
163
178
192
206
218
230
241
252
261
269
276
282
286
290
292
292
292
290
287
283
278
271
263
254
243
232
220
206
192
178
163
147
132
116
100
84
69
52
38
23
9
-3
-16
-29
-39
-50
-60
-68
-76
-83
-89
-94
-98
-102
-105
-108
-110
-112
-113
-114
-115
-117
-117
-117
-118
-119
-119
-119
-120
-120
-120
-121
-121
-121
-122
-122
-123
-124
-124
-124
-125
-126
-126
-127
-127
-128
-128
-129
-129
-130
-130
-131
-131
-132
-132
-132
-133
-133
-133
-133
-133
-134
-134
-134
-134
-134
-134
-134
-135
-136
-136
-136
-136
-137
-137
-137
-137
-136
-136
-137
-137
-137
-137
-137
-137
-137
-137
-137
-137
-137
-137
-137
-137
-138
-138
-137
-137
-137
-137
-137
-137
-138
-138
-138
-138
-138
-139
-139
-139
-139
-140
-140
-140
-140
-140
-141
-141
-141
-141
-141
-141
-142
-142
-142
-142
-142
-142
-142
-142
-143
-143
-143
-143
-143
-143
-143
-145
-145
-145
-145
-145
-145
-146
-146
-146
-146
-147
-147
-147
-148
-148
-148
-149
-149
-149
-150
-150
-151
-151
-151
-152
-152
-153
-153
-154
-154
-154
-155
-156
-157
-157
-158
-159
-159
-160
-160
-161
-162
-162
-163
-164
-164
-165
-165
-166
-167
-167
-168
-170
-170
-171
-172
-172
-173
-174
-175
-176
-176
-177
-178
-178
-180
-180
-181
-182
-183
-184
-185
-186
-186
-187
-188
-188
-190
-191
-192
-193
-193
-194
-196
-197
-198
-199
-200
-201
-202
-202
-203
-204
-205
-206
-206
-208
-208
-209
-209
-210
-210
-210
-212
-212
-213
-213
-214
-215
-215
-216
-216
-217
-217
-218
-218
-219
-220
-221
-221
-222
-222
-222
-222
-224
-224
-224
-224
-225
-225
-225
-225
-225
-225
-226
-227
-227
-227
-227
-227
-226
-226
-226
-226
-226
-226
-226
-225
-225
-225
-224
-223
-223
-222
-222
-221
-221
-219
-218
-218
-217
-216
-214
-213
-213
-212
-210
-209
-208
-207
-205
-204
-203
-201
-200
-199
-197
-196
-195
-193
-192
-191
-189
-187
-186
-184
-183
-182
-180
-179
-178
-176
-175
-174
-172
-171
-169
-169
-167
-165
-164
-163
-162
-161
-159
-158
-157
-156
-155
-154
-153
-152
-151
-150
-150
-149
-148
-147
-147
-146
-144
-144
-143
-143
-142
-142
-141
-141
-139
-139
-139
-138
-138
-136
-136
-136
-136
-135
-135
-134
-134
-133
-133
-133
-132
-132
-132
-132
-132
-132
-130
-130
-131
-130
-130
-130
-129
-129
-129
-128
-128
-128
-127
-127
-127
-126
-126
-126
-126
-126
-125
-125
-125
-125
-125
-125
-125
-125
-125
-125
-125
-124
-124
-123
-123
-123
-123
-123
-123
-123
-123
-123
-122
-122
-122
-122
-123
-122
-122
-122
-122
-122
-122
-121
-121
-121
-122
-122
-122
-122
-122
-122
-122
-121
-121
-121
-122
-122
-121
-121
-122
-122
-122
-122
-122
-121
-122
-122
-122
-122
-122
-122
-122
-122
-122
-122
-123
-123
-123
-123
-123
-124
-123
-123
-123
-123
-123
-123
-123
-123
-122
-122
-122
-122
-122
-122
-122
-122
-122
-122
-122
-122
-122
-122
-122
-122
-122
-123
-123
-123
-123
-123
-123
-124
-124
-124
-124
-124
-124
-124
-125
-125
-125
-125
-126
-126
-126
-126
-126
-126
-126
-126
-126
-126
-126
-126
-127
-127
-127
-127
-127
-127
-127
-127
-127
-127
-128
-128
-128
-128
-129
-129
-129
-129
-129
-129
-129
-129
-129
-130
-130
-130
-130
-130
-130
-130
-130
-131
-131
-131
-131
-131
-131
-132
-132
-132
-132
-132
-132
-133
-133
-133
-134
-134
-134
-133
-133
-133
-134
-134
-134
-133
-133
-133
-133
-133
-134
-134
-134
-134
-135
-135
-135
-135
-135
-135
-135
-135
-136
-136
-136
-136
-136
-136
-136
-136
-137
-137
-137
-137
-137
-137
-137
-137
-137
-137
-137
-137
-137
-137
-137
-137
-137
-138
-138
-138
-138
-138
-138
-138
-138
-138
-138
-138
-139
-139
-139
-139
-139
-138
-138
-139
-139
-139
-139
-139
-139
-140
-140
-140
-140
-140
-140
-140
-140
-139
-139
-140
-140
-140
-140
-140
-140
-141
-141
-141
-140
-140
-141
-141
-142
-141
-141
-141
-142
-142
-142
-142
-142
-143
-143
-143
-143
-143
-143
-144
-144
-144
-143
-143
-143
-144
-144
-144
-144
-144
-144
-144
-143
-143
-143
-143
-143
-143
-143
-143
-143
-142
-142
-142
-143
-143
-143
-143
-143
-143
-143
-143
-143
-143
-143
-143
-143
-144
-143
-143
-143
-143
-143
-143
-143
-143
-143
-143
-144
-144
-144
-144
-144
-144
-144
-144
-145
-145
-145
-145
-145
-145
-145
-145
-145
-145
-145
-145
-145
-145
-145
-145
-145
-144
-145
-145
-145
-145
-145
-145
-145
-145
-144
-144
-144
-144
-144
-144
-143
-143
-144
-144
-144
-144
-144
-144
-145
-144
-144
-144
-144
-144
-144
-144
-145
-145
-145
-145
-145
-145
-144
-144
-144
-144
-144
-144
-144
-144
-144
-144
-143
-143
-143
-143
-143
-143
-143
-143
-143
-143
-143
-143
-143
-143
-143
-143
-143
-144
-144
-144
-144
-143
-143
-144
-144
-144
-144
-144
-143
-143
-143
-143
-143
-143
-143
-143
-143
-142
-142
-142
-142
-142
-142
-142
-142
-143
-142
-142
-142
-142
-142
-141
-142
-142
-142
-141
-141
-141
-142
-140
-140
-140
-140
-140
-139
-138
-138
-138
-137
-137
-137
-136
-135
-135
-134
-134
-134
-133
-133
-132
-132
-132
-132
-132
-131
-131
-131
-131
-130
-130
-130
-130
-130
-130
-129
-130
-129
-129
-129
-129
-130
-129
-129
-129
-128
-129
-129
-129
-129
-129
-129
-130
-129
-130
-130
-130
-130
-130
-131
-131
-132
-132
-134
-134
-134
-135
-136
-136
-136
-137
-137
-138
-139
-139
-140
-140
-141
-142
-142
-142
-142
-143
-143
-144
-143
-143
-144
-143
-144
-143
-143
-144
-143
-144
-144
-143
-143
-144
-144
-144
-144
-144
-144
-144
-145
-145
-146
-146
-146
-146
-146
-147
-147
-147
-147
-148
-148
-148
-148
-149
-149
-149
-149
-150
-150
-150
-150
-150
-150
-150
-151
-151
-151
-151
-151
-150
-150
-150
-150
-150
-150
-149
-149
-149
-150
-150
-150
-150
-150
-149
-149
-149
-149
-149
-149
-149
-148
-148
-148
-148
-148
-148
-148
-148
-147
-147
-148
-148
-148
-148
-147
-147
-147
-147
-147
-147
-147
-147
-147
-147
-147
-147
-147
-147
-147
-147
-147
-147
-147
-147
-147
-147
-147
-147
-147
-147
-147
-147
-147
-146
-146
-146
-146
-146
-147
-147
-147
-147
-147
-147
-146
-146
-146
-146
-146
-146
-146
-145
-145
-145
-145
-145
-145
-145
-144
-144
-144
-144
-144
-144
-144
-144
-144
-144
-143
-142
-142
-141
-140
-140
-139
-138
-136
-135
-134
-132
-131
-129
-128
-126
-125
-123
-121
-120
-119
-117
-116
-116
-115
-115
-115
-116
-117
-118
-120
-122
-125
-128
-132
-135
-139
-144
-150
-154
-160
-164
-170
-175
-181
-185
-190
-194
-199
-203
-206
-208
-211
-212
-213
-213
-212
-210
-208
-206
-204
-201
-198
-195
-192
-189
-186
-184
-182
-181
-180
-180
-181
-182
-184
-186
-189
-191
-194
-196
-198
-201
-202
-202
-202
-200
-199
-194
-189
-183
-176
-167
-156
-145
-133
-120
-107
-92
-76
-60
-44
-28
-10
6
24
42
59
76
93
110
127
144
159
174
189
205
217
231
243
254
264
275
283
290
296
301
304
306
307
307
305
302
296
291
284
275
266
255
242
229
216
200
186
169
152
136
119
102
85
69
53
37
22
7
-7
-19
-31
-44
-54
-64
-73
-81
-89
-95
-100
-105
-109
-113
-115
-117
-119
-120
-122
-123
-123
-123
-124
-124
-124
-125
-125
-125
-126
-126
-126
-127
-127
-129
-129
-130
-130
-131
-132
-132
-132
-133
-134
-134
-135
-136
-136
-137
-138
-138
-138
-139
-139
-139
-139
-139
-140
-140
-140
-140
-140
-140
-140
-140
-140
-140
-140
-140
-141
-141
-142
-142
-142
-142
-142
-142
-142
-142
-143
-143
-143
-143
-143
-144
-144
-144
-144
-144
-145
-145
-145
-145
-145
-145
-146
-146
-146
-146
-146
-146
-146
-146
-146
-146
-145
-145
-145
-145
-145
-145
-145
-145
-145
-145
-145
-145
-145
-145
-146
-146
-147
-147
-147
-147
-146
-147
-147
-147
-148
-148
-148
-148
-149
-149
-149
-150
-150
-150
-151
-151
-151
-151
-151
-152
-152
-152
-153
-153
-153
-154
-154
-154
-153
-154
-155
-154
-155
-155
-155
-157
-156
-156
-158
-158
-159
-159
-160
-160
-161
-161
-162
-162
-163
-163
-164
-166
-166
-166
-167
-168
-168
-169
-169
-170
-171
-171
-172
-172
-173
-174
-175
-175
-176
-177
-178
-179
-179
-181
-182
-183
-184
-185
-186
-186
-188
-189
-190
-191
-192
-193
-195
-196
-197
-198
-198
-199
-200
-201
-203
-204
-205
-205
-206
-207
-208
-210
-210
-211
-212
-213
-214
-216
-217
-217
-218
-219
-220
-221
-223
-224
-224
-225
-226
-227
-229
-230
-230
-231
-232
-233
-234
-235
-235
-236
-237
-238
-239
-239
-240
-240
-241
-242
-242
-243
-243
-243
-243
-243
-244
-244
-244
-244
-245
-245
-244
-244
-244
-244
-244
-243
-243
-242
-242
-242
-241
-241
-240
-239
-238
-238
-237
-235
-236
-234
-233
-232
-231
-230
-228
-227
-226
-225
-223
-222
-221
-220
-218
-217
-216
-214
-213
-211
-210
-209
-207
-206
-204
-203
-202
-200
-199
-196
-195
-194
-192
-191
-189
-188
-187
-185
-184
-183
-181
-179
-178
-177
-176
-175
-173
-173
-171
-171
-170
-169
-168
-167
-166
-165
-165
-164
-163
-162
-162
-161
-160
-159
-160
-158
-158
-157
-156
-157
-155
-154
-153
-154
-153
-152
-151
-151
-151
-150
-150
-149
-149
-148
-148
-147
-147
-146
-146
-145
-145
-144
-144
-143
-143
-142
-142
-142
-142
-142
-141
-141
-140
-140
-140
-139
-139
-139
-138
-138
-138
-138
-137
-137
-137
-137
-137
-137
-137
-137
-137
-137
-137
-135
-135
-135
-135
-135
-135
-135
-134
-134
-133
-133
-133
-133
-133
-133
-132
-132
-132
-132
-131
-131
-131
-132
-132
-131
-131
-131
-131
-131
-131
-130
-130
-130
-130
-130
-130
-130
-130
-130
-130
-130
-130
-130
-130
-130
-131
-130
-130
-130
-130
-131
-131
-131
-131
-131
-131
-131
-131
-131
-131
-131
-131
-131
-131
-131
-131
-131
-131
-131
-132
-132
-132
-132
-132
-131
-131
-131
-130
-130
-131
-131
-131
-131
-131
-131
-131
-131
-131
-131
-131
-131
-131
-131
-131
-130
-130
-130
-130
-130
-130
-130
-130
-130
-131
-131
-131
-131
-131
-131
-131
-131
-131
-132
-132
-132
-132
-132
-132
-132
-132
-132
-132
-132
-132
-132
-132
-132
-132
-132
-132
-132
-132
-132
-133
-133
-133
-134
-134
-134
-134
-134
-134
-135
-135
-135
-135
-136
-136
-136
-136
-136
-136
-137
-137
-137
-137
-137
-137
-137
-137
-138
-138
-138
-138
-138
-138
-138
-139
-138
-138
-138
-138
-138
-139
-139
-139
-139
-138
-138
-138
-139
-139
-139
-139
-138
-138
-138
-139
-139
-139
-138
-138
-138
-138
-139
-139
-139
-139
-139
-139
-139
-139
-139
-140
-140
