# Simple Text Format
# Sampling Rate (Hz):= 1200.00
# Resolution:= 12
# Labels:= ECG	aVL
# Age:=	71
# Gender:=	Masculino
22
30
39
47
55
64
72
80
87
96
103
109
116
123
128
134
139
143
147
150
153
155
156
157
157
156
155
153
150
147
144
138
134
128
122
115
107
99
91
82
74
65
56
47
37
28
20
10
2
-7
-15
-22
-29
-36
-43
-49
-55
-60
-66
-71
-75
-80
-84
-88
-91
-95
-98
-101
-103
-106
-108
-110
-113
-115
-116
-118
-121
-122
-124
-125
-126
-127
-127
-129
-129
-129
-130
-130
-129
-128
-128
-127
-125
-125
-123
-122
-120
-118
-116
-115
-112
-111
-108
-106
-104
-102
-100
-98
-96
-94
-93
-91
-89
-87
-85
-84
-83
-81
-79
-78
-77
-75
-74
-72
-72
-70
-68
-68
-67
-66
-65
-64
-64
-63
-63
-62
-62
-62
-61
-61
-61
-60
-60
-60
-60
-59
-59
-59
-59
-59
-58
-58
-58
-58
-58
-58
-58
-57
-57
-57
-57
-57
-57
-57
-57
-57
-57
-57
-57
-56
-56
-56
-56
-56
-56
-56
-55
-55
-55
-55
-55
-55
-55
-54
-54
-54
-54
-54
-53
-53
-52
-52
-52
-52
-52
-51
-51
-51
-51
-51
-51
-51
-51
-51
-51
-51
-51
-51
-51
-51
-51
-51
-51
-51
-51
-50
-50
-50
-50
-50
-50
-50
-50
-50
-50
-50
-50
-50
-50
-50
-49
-49
-48
-48
-48
-48
-48
-47
-47
-47
-47
-47
-46
-46
-46
-45
-45
-45
-45
-44
-44
-44
-44
-44
-44
-43
-42
-42
-42
-42
-42
-42
-42
-41
-41
-41
-41
-41
-40
-39
-39
-39
-39
-38
-38
-38
-37
-36
-35
-35
-35
-34
-34
-33
-32
-32
-32
-31
-31
-30
-30
-28
-28
-28
-27
-27
-26
-25
-25
-24
-24
-23
-22
-22
-21
-19
-19
-18
-17
-17
-16
-15
-15
-14
-13
-13
-12
-11
-11
-10
-10
-9
-9
-8
-7
-7
-6
-5
-5
-4
-4
-3
-2
-2
-1
0
0
1
2
2
3
4
4
5
5
6
6
7
7
8
8
9
9
10
10
10
11
11
11
11
12
12
12
12
12
12
13
13
13
13
13
13
13
13
13
13
12
12
12
12
11
10
10
9
9
8
8
7
7
6
6
5
4
3
3
2
1
0
0
-1
-2
-3
-3
-4
-5
-6
-7
-7
-9
-9
-10
-10
-11
-12
-13
-14
-16
-17
-17
-18
-19
-20
-21
-22
-23
-24
-25
-26
-27
-28
-29
-30
-31
-31
-33
-34
-35
-36
-36
-37
-38
-38
-39
-40
-40
-42
-42
-43
-43
-44
-44
-45
-45
-46
-47
-48
-48
-48
-49
-49
-49
-50
-50
-51
-51
-51
-52
-52
-52
-52
-53
-53
-53
-52
-52
-53
-53
-53
-53
-53
-54
-55
-55
-55
-55
-55
-56
-56
-56
-57
-57
-57
-57
-57
-57
-57
-57
-58
-58
-58
-58
-58
-58
-58
-58
-59
-59
-59
-59
-59
-59
-59
-59
-59
-60
-60
-60
-60
-60
-60
-60
-60
-60
-60
-60
-60
-60
-60
-61
-61
-61
-61
-61
-61
-61
-61
-61
-61
-61
-62
-62
-62
-62
-62
-62
-62
-62
-62
-62
-62
-62
-63
-63
-63
-63
-63
-63
-63
-63
-63
-63
-64
-64
-64
-64
-64
-64
-64
-64
-64
-64
-64
-64
-64
-64
-64
-64
-64
-63
-64
-64
-64
-64
-63
-63
-63
-63
-63
-64
-64
-64
-64
-64
-64
-64
-64
-64
-64
-63
-63
-63
-63
-63
-63
-63
-63
-63
-63
-64
-64
-64
-64
-64
-64
-64
-64
-63
-63
-63
-63
-62
-62
-62
-62
-62
-62
-62
-62
-61
-61
-61
-61
-61
-61
-61
-61
-61
-60
-60
-60
-60
-60
-60
-60
-60
-60
-60
-60
-60
-60
-59
-59
-59
-59
-59
-59
-59
-59
-59
-59
-59
-59
-59
-59
-59
-59
-59
-59
-60
-60
-60
-60
-59
-59
-59
-59
-60
-60
-60
-60
-60
-60
-60
-60
-60
-60
-60
-60
-60
-60
-60
-60
-60
-60
-59
-59
-59
-59
-59
-59
-59
-59
-59
-59
-59
-59
-60
-59
-59
-59
-59
-59
-59
-59
-59
-59
-59
-59
-59
-59
-59
-59
-59
-59
-59
-59
-59
-59
-59
-60
-60
-60
-60
-60
-60
-60
-60
-60
-60
-60
-60
-60
-60
-60
-60
-60
-60
-60
-60
-60
-60
-60
-60
-60
-60
-60
-60
-60
-60
-60
-60
-61
-61
-60
-60
-60
-60
-60
-60
-60
-60
-60
-59
-59
-59
-59
-59
-59
-59
-59
-59
-58
-58
-58
-58
-58
-58
-58
-58
-58
-58
-58
-58
-58
-58
-58
-58
-58
-58
-59
-59
-59
-59
-59
-59
-59
-59
-59
-59
-59
-59
-59
-59
-59
-59
-59
-59
-59
-59
-59
-59
-59
-60
-60
-59
-59
-59
-59
-59
-59
-59
-59
-59
-59
-59
-59
-59
-59
-59
-59
-59
-58
-58
-58
-58
-58
-58
-58
-58
-58
-58
-58
-57
-57
-57
-57
-57
-57
-57
-58
-58
-57
-57
-57
-57
-57
-58
-58
-58
-58
-58
-58
-58
-59
-59
-59
-59
-59
-59
-59
-59
-59
-59
-59
-59
-59
-59
-59
-59
-59
-59
-59
-58
-58
-58
-58
-58
-58
-58
-58
-58
-58
-58
-58
-58
-58
-58
-58
-58
-58
-58
-58
-58
-58
-58
-58
-58
-58
-58
-57
-57
-57
-57
-57
-57
-57
-57
-57
-58
-58
-58
-58
-58
-58
-58
-58
-58
-58
-58
-58
-57
-57
-57
-57
-56
-56
-57
-57
-57
-57
-57
-57
-57
-57
-57
-57
-56
-56
-56
-56
-56
-56
-56
-56
-56
-56
-56
-56
-56
-56
-55
-55
-55
-55
-55
-55
-56
-56
-56
-55
-56
-56
-57
-57
-56
-57
-57
-58
-57
-58
-58
-58
-58
-59
-58
-58
-59
-59
-58
-58
-59
-59
-59
-58
-58
-59
-59
-59
-58
-58
-59
-59
-59
-59
-59
-59
-59
-60
-59
-60
-60
-61
-60
-61
-61
-61
-61
-62
-61
-61
-62
-61
-61
-61
-61
-61
-60
-60
-60
-60
-59
-59
-58
-58
-58
-57
-57
-56
-56
-55
-54
-54
-53
-53
-52
-52
-51
-51
-50
-49
-49
-48
-48
-47
-47
-47
-47
-47
-46
-46
-46
-46
-46
-47
-46
-47
-47
-48
-48
-48
-48
-49
-49
-49
-49
-50
-50
-50
-50
-50
-50
-50
-51
-51
-51
-51
-51
-51
-51
-51
-51
-52
-52
-52
-52
-52
-52
-52
-52
-52
-51
-51
-51
-52
-52
-52
-52
-52
-51
-51
-51
-51
-51
-51
-50
-50
-50
-50
-50
-50
-50
-50
-50
-50
-51
-51
-50
-50
-50
-50
-50
-50
-50
-50
-51
-51
-51
-51
-51
-51
-50
-50
-50
-50
-50
-51
-51
-51
-51
-51
-50
-50
-50
-50
-50
-50
-50
-50
-50
-50
-50
-50
-50
-49
-49
-49
-49
-49
-48
-48
-48
-48
-49
-49
-49
-49
-49
-49
-49
-49
-49
-49
-49
-49
-49
-49
-49
-49
-48
-48
-48
-48
-48
-48
-48
-48
-48
-48
-48
-48
-48
-48
-48
-49
-49
-49
-49
-49
-49
-49
-50
-50
-50
-50
-51
-51
-52
-52
-53
-53
-54
-56
-56
-57
-58
-59
-60
-61
-62
-63
-64
-64
-64
-65
-66
-65
-65
-64
-62
-61
-59
-57
-54
-50
-47
-43
-39
-32
-28
-22
-16
-9
-1
6
15
24
32
41
50
58
67
76
85
93
101
109
118
125
132
140
145
152
157
162
166
170
173
175
177
178
179
179
179
177
175
173
169
165
161
155
149
143
136
128
121
112
104
94
85
76
67
58
49
40
30
22
12
4
-4
-12
-19
-26
-32
-38
-44
-49
-55
-60
-64
-69
-73
-76
-79
-82
-86
-88
-91
-94
-96
-98
-101
-102
-104
-107
-109
-110
-111
-113
-114
-114
-115
-116
-116
-117
-117
-117
-116
-115
-115
-113
-112
-111
-110
-108
-105
-104
-102
-100
-98
-96
-93
-91
-89
-88
-85
-83
-81
-79
-77
-76
-74
-72
-71
-69
-67
-66
-64
-63
-61
-61
-59
-57
-57
-55
-55
-54
-52
-51
-50
-50
-50
-49
-48
-48
-47
-47
-47
-45
-45
-45
-45
-45
-44
-44
-44
-44
-44
-44
-44
-43
-43
-43
-43
-43
-44
-44
-43
-43
-43
-43
-43
-43
-43
-43
-43
-42
-42
-42
-42
-42
-42
-42
-42
-42
-42
-42
-42
-42
-42
-42
-42
-42
-42
-42
-42
-42
-42
-42
-42
-42
-40
-40
-40
-40
-40
-40
-40
-40
-39
-39
-39
-39
-39
-39
-39
-39
-39
-39
-39
-38
-38
-38
-38
-38
-38
-38
-37
-37
-37
-37
-37
-37
-37
-37
-37
-37
-37
-37
-36
-36
-36
-36
-36
-36
-36
-35
-34
-34
-34
-34
-34
-34
-33
-33
-33
-32
-32
-32
-32
-31
-31
-31
-31
-30
-30
-30
-29
-29
-29
-28
-28
-28
-28
-27
-27
-27
-27
-26
-25
-25
-25
-24
-24
-24
-24
-23
-22
-22
-22
-22
-21
-20
-19
-19
-19
-18
-18
-17
-17
-16
-15
-15
-14
-14
-13
-13
-13
-13
-12
-12
-11
-10
-9
-9
-8
-8
-7
-7
-6
-4
-4
-3
-2
-2
-1
0
1
1
2
3
4
4
5
6
7
8
9
10
10
11
11
12
13
13
14
15
15
16
16
17
18
18
19
19
20
21
21
22
22
23
24
24
25
25
25
26
26
26
27
27
27
27
27
27
27
27
27
27
26
26
26
26
26
26
25
25
25
25
24
24
24
23
23
22
22
21
21
20
19
19
18
17
17
15
14
13
13
12
11
10
9
8
7
7
6
5
4
3
2
1
0
-1
-2
-3
-4
-5
-6
-7
-8
-9
-10
-11
-12
-12
-14
-14
-15
-16
-17
-17
-18
-19
-21
-21
-22
-22
-23
-24
-24
-25
-26
-26
-27
-28
-29
-29
-30
-31
-31
-32
-32
-33
-33
-34
-34
-35
-35
-36
-36
-36
-37
-38
-38
-39
-39
-39
-40
-40
-40
-40
-42
-42
-42
-42
-43
-43
-43
-43
-43
-44
-44
-44
-44
-45
-45
-45
-46
-46
-46
-46
-46
-46
-46
-46
-46
-46
-46
-46
-46
-46
-47
-47
-47
-47
-47
-47
-47
-47
-47
-47
-47
-47
-47
-47
-47
-48
-48
-48
-48
-48
-48
-48
-48
-49
-49
-49
-49
-49
-49
-50
-50
-50
-50
-50
-51
-51
-51
-51
-51
-51
-51
-52
-51
-51
-52
-52
-52
-52
-53
-53
-53
-53
-52
-52
-53
-53
-53
-53
-53
-53
-54
-54
-54
-54
-54
-54
-54
-54
-54
-54
-54
-54
-54
-54
-54
-54
-53
-52
-52
-52
-52
-52
-52
-52
-52
-51
-51
-51
-51
-51
-50
-50
-50
-50
-50
-50
-50
-49
-49
-49
-49
-49
-49
-49
-49
-49
-49
-49
-49
-49
-49
-49
-50
-50
-50
-50
-50
-50
-50
-50
-50
-50
-49
-49
-49
-49
-49
-49
-49
-49
-49
-48
-48
-48
-48
-48
-48
-48
-48
-48
-48
-48
-48
-48
-48
-48
-48
-48
-48
-48
-48
-48
-48
-48
-48
-48
-48
-48
-48
-47
-48
-48
-48
-48
-48
-48
-48
-47
-47
-47
-47
-47
-47
-47
-47
-48
-48
-47
-47
-47
-47
-47
-47
-47
-47
-47
-47
-48
-48
-48
-49
-49
-49
-49
-49
-49
-49
-49
-49
-49
-49
-49
-49
-49
-49
-48
-48
-47
-47
-47
-47
-47
-47
-47
-47
-47
-47
-46
-46
-46
-46
-46
-47
-47
-47
-47
-47
-47
-47
-47
-47
-47
-47
-48
-48
-48
-48
-48
-48
-48
-48
-48
-49
-49
-49
-49
-49
-49
-49
-49
-49
-48
-49
-49
-49
-49
-49
-49
-49
-49
-49
-49
-49
-49
-49
-49
-49
-49
-49
-49
-49
-49
-48
-48
-48
-48
-48
-48
-48
-48
-48
-48
-48
-48
-48
-49
-49
-49
-49
-49
-49
-49
-49
-49
-49
-49
-49
-49
-49
-49
-49
-49
-49
-50
-50
-49
-49
-49
-49
-49
-49
-50
-49
-49
-49
-49
-49
-48
-48
-48
-48
-48
-48
-48
-48
-48
-48
-48
-48
-48
-48
-48
-48
-48
-48
-48
-48
-48
-48
-48
-48
-49
-49
-49
-49
-49
-49
-49
-49
-48
-48
-48
-48
-47
-47
-47
-47
-47
-47
-47
-47
-47
-48
-48
-48
-48
-47
-47
-47
-47
-47
-47
-47
-47
-47
-47
-47
-47
-46
-46
-46
-47
-47
-47
-47
-47
-47
-47
-47
-47
-47
-47
-47
-47
-47
-47
-47
-47
-47
-47
-47
-47
-47
-47
-47
-47
-47
-47
-47
-47
-47
-47
-48
-48
-48
-48
-48
-48
-48
-48
-48
-48
-48
-48
-48
-48
-48
-48
-47
-47
-47
-47
-47
-47
-47
-47
-47
-47
-47
-47
-47
-47
-47
-47
-47
-47
-47
-47
-47
-48
-48
-48
-48
-48
-48
-48
-48
-48
-48
-48
-47
-47
-47
-47
-47
-47
-47
-47
-47
-46
-46
-46
-46
-46
-46
-46
-46
-46
-46
-46
-46
-46
-47
-47
-47
-47
-47
-47
-46
-46
-47
-47
-47
-47
-47
-48
-48
-48
-48
-49
-48
-48
-48
-49
-49
-49
-49
-49
-50
-50
-49
-50
-50
-50
-50
-50
-50
-50
-50
-50
-50
-51
-51
-50
-50
-51
-51
-51
-51
-51
-51
-51
-51
-51
-51
-52
-51
-51
-52
-51
-52
-52
-51
-52
-51
-52
-52
-51
-52
-51
-51
-52
-51
-51
-51
-51
-51
-50
-50
-50
-50
-49
-49
-50
-49
-48
-48
-48
-47
-46
-46
-45
-45
-44
-44
-43
-43
-42
-41
-41
-41
-41
-41
-40
-40
-41
-40
-41
-40
-41
-40
-41
-41
-42
-42
-42
-43
-43
-43
-44
-44
-44
-44
-44
-45
-45
-45
-45
-45
-45
-46
-46
-45
-45
-45
-45
-45
-45
-45
-46
-45
-45
-45
-45
-45
-45
-44
-44
-44
-44
-44
-44
-44
-44
-43
-43
-43
-43
-43
-43
-43
-43
-43
-43
-43
-43
-44
-44
-44
-44
-44
-44
-44
-44
-44
-44
-44
-44
-44
-44
-44
-44
-44
-44
-44
-44
-44
-44
-44
-44
-44
-44
-44
-44
-44
-44
-44
-45
-45
-45
-45
-44
-44
-44
-45
-45
-45
-44
-45
-45
-45
-45
-45
-45
-45
-45
-45
-45
-45
-44
-44
-44
-44
-44
-43
-43
-43
-43
-43
-42
-43
-42
-42
-43
-43
-43
-43
-43
-43
-43
-43
-43
-43
-43
-43
-43
-43
-43
-43
-42
-42
-42
-42
-43
-43
-43
-44
-44
-44
-44
-44
-44
-45
-45
-46
-47
-48
-48
-49
-50
-50
-52
-53
-54
-55
-55
-56
-58
-58
-59
-59
-59
-60
-60
-59
-58
-57
-56
-55
-52
-49
-47
-44
-40
-35
-31
-26
-20
-14
-8
0
7
15
24
31
40
48
58
66
75
84
92
101
109
117
124
132
139
145
152
158
163
168
172
176
178
181
182
184
184
184
183
182
180
176
173
169
165
159
153
146
139
132
124
116
108
98
89
80
71
61
52
43
34
24
16
7
0
-8
-15
-22
-27
-33
-39
-43
-48
-53
-57
-61
-64
-68
-71
-74
-77
-79
-82
-85
-87
-90
-92
-93
-96
-98
-100
-101
-103
-104
-105
-106
-107
-108
-109
-109
-109
-109
-109
-107
-107
-106
-105
-103
-102
-101
-98
-97
-94
-93
-91
-88
-87
-85
-83
-80
-79
-77
-75
-74
-72
-70
-69
-67
-65
-64
-63
-61
-59
-58
-57
-55
-54
-53
-52
-51
-50
-48
-48
-47
-46
-46
-45
-44
-43
-43
-42
-42
-42
-41
-41
-41
-41
-41
-40
-40
-40
-40
-40
-40
-40
-40
-40
-39
-39
-39
-39
-39
-39
-38
-38
-38
-38
-38
-38
-38
-38
-38
-38
-38
-38
-38
-38
-38
-38
-38
-38
-38
-37
-37
-37
-37
-37
-37
-37
-37
-36
-36
-36
-36
-37
-36
-36
-36
-35
-35
-35
-35
-34
-34
-34
-34
-34
-34
-34
-34
-34
-34
-34
-34
-34
-34
-34
-34
-33
-33
-33
-33
-33
-33
-32
-32
-32
-32
-33
-33
-33
-31
-31
-31
-31
-31
-31
-31
-30
-30
-30
-30
-29
-29
-29
-29
-28
-28
-28
-28
-27
-27
-26
-26
-26
-26
-25
-25
-25
-25
-25
-24
-24
-24
-23
-23
-23
-23
-22
-22
-21
-21
-20
-20
-20
-19
-19
-19
-19
-19
-19
-19
-19
-19
-19
-17
-17
-17
-17
-16
-16
-15
-15
-14
-14
-14
-13
-12
-12
-11
-11
-10
-9
-9
-8
-8
-7
-7
-6
-5
-4
-3
-3
-2
-1
-1
0
0
1
2
3
3
5
6
6
7
8
8
9
10
10
11
12
13
12
13
13
14
15
15
16
16
17
18
18
19
19
20
20
21
21
22
22
24
24
24
25
25
25
26
26
26
26
26
26
26
27
27
27
27
27
27
27
27
27
27
27
27
26
26
26
26
26
25
25
25
24
24
23
23
23
21
20
20
19
18
18
17
16
15
14
13
13
12
11
10
8
7
6
5
4
3
2
1
0
-1
-2
-3
-4
-5
-6
-7
-8
-9
-9
-11
-12
-13
-14
-14
-14
-15
-15
-16
-17
-17
-19
-20
-20
-21
-22
-23
-24
-24
-25
-26
-26
-28
-28
-29
-29
-30
-30
-31
-32
-32
-33
-33
-33
-34
-34
-35
-35
-35
-36
-37
-37
-37
-37
-38
-38
-39
-39
-40
-40
-40
-40
-41
-41
-41
-42
-42
-42
-43
-43
-43
-43
-43
-43
-43
-44
-44
-44
-44
-44
-44
-44
-44
-45
-45
-45
-45
-45
-45
-45
-45
-46
-46
-47
-47
-47
-47
-47
-48
-48
-48
-48
-48
-48
-48
-48
-48
-48
-48
-48
-48
-48
-48
-48
-48
-48
-48
-48
-48
-49
-49
-49
-49
-49
-49
-49
-49
-50
-50
-50
-50
-50
-50
-50
-50
-50
-50
-50
-50
-50
-50
-50
-50
-51
-51
-51
-51
-50
-50
-50
-50
-50
-50
-50
-50
-49
-49
-49
-49
-49
-49
-49
-49
-49
-49
-49
-49
-50
-50
-50
-50
-49
-49
-49
-49
-49
-49
-49
-49
-49
-49
-49
-48
-48
-47
-47
-47
-47
-47
-47
-46
-46
-46
-46
-47
-46
-46
-46
-46
-47
-47
-47
-47
-47
-46
-46
-46
-46
-46
-46
-46
-46
-45
-45
-45
-45
-44
-45
-45
-45
-45
-45
-45
-45
-44
-45
-45
-45
-45
-45
-45
-45
-45
-45
-45
-45
-45
-45
-45
-45
-45
-45
-44
-44
-44
-44
-44
-44
-44
-44
-44
-44
-44
-43
-43
-43
-43
-43
-43
-43
-43
-43
-43
-43
-43
-43
-43
-44
-44
-44
-44
-44
-44
-44
-44
-44
-44
-44
-44
-45
-45
-44
-45
-45
-45
-45
-45
-45
-45
-45
-44
-45
-45
-45
-45
-44
-44
-44
-44
-44
-44
-44
-44
-44
-44
-44
-44
-44
-44
-45
-45
-45
-45
-45
-45
-45
-44
-44
-45
-45
-45
-44
-44
-44
-44
-44
-44
-44
-44
-44
-43
-43
-43
-43
-43
-43
-43
-44
-44
-44
-44
-44
-44
-45
-45
-45
-45
-45
-45
-45
-45
-45
-45
-44
-44
-45
-45
-45
-45
-45
-44
-44
-44
-44
-44
-44
-44
-45
-45
-45
-44
-44
-44
-44
-43
-43
-43
-43
-43
-43
-43
-43
-43
-43
-43
-43
-44
-43
-43
-43
-43
-42
-42
-42
-42
-42
-42
-42
-42
-42
-42
-42
-42
-42
-42
-42
-42
-42
-42
-42
-43
-43
-43
-43
-43
-43
-44
-44
-44
-44
-44
-44
-44
-44
-44
-44
-44
-43
-43
-43
-43
-43
-43
-43
-43
-43
-43
-43
-43
-43
-43
-43
-43
-43
-43
-43
-43
-42
-43
-43
-43
-43
-43
-43
-43
-43
-43
-43
-42
-42
-42
-42
-42
-42
-42
-42
-42
-43
-43
-43
-43
-43
-43
-43
-43
-43
-43
-43
-43
-43
-43
-43
-43
-43
-43
-43
-43
-43
-43
-43
-43
-42
-42
-42
-42
-42
-42
-42
-41
-41
-41
-41
-42
-42
-42
-42
-41
-41
-42
-42
-42
-42
-42
-42
-42
-42
-43
-43
-42
-42
-42
-42
-42
-42
-42
-42
-43
-42
-42
-42
-42
-42
-42
-42
-42
-42
-42
-42
-41
-41
-41
-41
-42
-42
-42
-42
-42
-42
-42
-42
-43
-43
-43
-43
-42
-43
-43
-43
-43
-43
-43
-42
-43
-43
-43
-42
-43
-43
-43
-42
-42
-42
-42
-43
-43
-43
-42
-43
-43
-43
-43
-43
-43
-43
-44
-44
-43
-43
-44
-44
-43
-44
-44
-44
-43
-43
-44
-44
-44
-44
-44
-45
-44
-44
-44
-44
-45
-45
-44
-45
-45
-45
-45
-46
-45
-46
-46
-46
-46
-46
-46
-47
-46
-47
-47
-47
-47
-47
-47
-47
-47
-46
-46
-46
-46
-46
-45
-46
-45
-44
-44
-44
-42
-42
-41
-41
-40
-39
-39
-38
-38
-37
-36
-36
-36
-35
-35
-35
-35
-34
-34
-34
-35
-34
-35
-35
-36
-36
-35
-36
-37
-37
-37
-38
-38
-38
-38
-38
-38
-38
-39
-39
-39
-39
-40
-40
-40
-40
-40
-40
-40
-40
-40
-40
-40
-40
-40
-40
-40
-40
-40
-40
-40
-40
-39
-39
-39
-39
-39
-39
-39
-39
-39
-38
-38
-38
-38
-38
-38
-38
-38
-38
-38
-38
-38
-38
-38
-38
-38
-38
-38
-38
-38
-38
-38
-38
-38
-38
-38
-38
-38
-38
-37
-37
-37
-37
-37
-37
-37
-37
-37
-38
-38
-38
-38
-38
-37
-38
-38
-38
-38
-38
-39
-39
-38
-38
-38
-39
-39
-39
-39
-39
-39
-39
-39
-39
-37
-37
-37
-37
-37
-37
-37
-36
-37
-37
-37
-37
-37
-37
-36
-36
-36
-36
-36
-36
-36
-36
-36
-36
-36
-36
-37
-37
-37
-37
-36
-36
-36
-36
-36
-37
-37
-37
-37
-37
-38
-38
-38
-39
-40
-41
-41
-42
-43
-44
-45
-46
-46
-47
-48
-49
-49
-50
-50
-50
-50
-50
-49
-48
-46
-44
-43
-40
-37
-34
-30
-27
-23
-17
-12
-7
0
6
13
21
28
35
43
51
58
67
74
82
90
97
105
112
119
126
133
139
144
149
154
159
162
165
168
170
172
173
173
173
171
170
168
165
161
157
153
148
142
135
128
121
113
105
97
89
80
71
62
53
46
37
28
20
13
5
-2
-9
-16
-20
-26
-30
-36
-40
-44
-48
-52
-55
-59
-61
-64
-66
-69
-71
-73
-74
-77
-78
-80
-82
-83
-84
-86
-87
-88
-90
-91
-91
-93
-93
-94
-94
-94
-94
-94
-94
-93
-92
-91
-90
-89
-87
-86
-84
-83
-80
-79
-77
-75
-73
-71
-69
-68
-65
-63
-62
-60
-58
-58
-56
-54
-52
-51
-49
-48
-47
-45
-44
-43
-42
-40
-40
-39
-38
-37
-37
-36
-35
-34
-33
-33
-33
-33
-32
-32
-32
-32
-31
-31
-31
-31
-31
-31
-31
-31
-30
-30
-30
-30
-30
-30
-30
-30
-30
-30
-30
-30
-30
-30
-30
-29
-29
-29
-29
-28
-28
-28
-28
-28
-28
-27
-27
-27
-27
-27
-27
-26
-26
-26
-26
-27
-27
-27
-27
-27
-27
-28
-28
-28
-28
-28
-28
-29
-29
-29
-29
-29
-29
-29
-29
-29
-28
-28
-28
-28
-28
-28
-28
-28
-28
-27
-27
-27
-26
-26
-26
-26
-26
-26
-26
-25
-25
-25
-25
-25
-24
-24
-24
-24
-23
-23
-23
-22
-22
-21
-21
-21
-20
-19
-19
-19
-18
-18
-18
-18
-17
-16
-16
-16
-16
-16
-15
-15
-14
-14
-14
-14
-14
-12
-12
-12
-12
-12
-12
-12
-12
-12
-12
-12
-11
-11
-10
-10
-10
-10
-10
-10
-9
-8
-8
-8
-8
-7
-7
-6
-6
-6
-5
-4
-4
-3
-3
-2
-1
-1
-1
0
0
1
2
2
2
3
3
3
5
5
5
6
6
7
7
8
8
9
9
10
10
11
12
12
13
13
14
14
15
16
16
17
17
17
18
18
19
19
20
20
21
21
22
22
23
23
24
24
24
26
26
27
27
27
28
28
28
29
28
28
29
29
29
29
30
30
30
30
30
30
30
30
29
29
29
29
28
28
28
28
27
27
27
27
26
26
25
25
24
24
23
22
22
21
21
20
19
18
18
17
16
15
14
14
13
12
10
9
8
7
6
5
4
3
2
2
1
0
-1
-2
-3
-4
-4
-5
-6
-6
-6
-7
-8
-8
-9
-11
-12
-12
-13
-14
-15
-15
-16
-17
-18
-19
-19
-20
-21
-21
-22
-23
-24
-24
-25
-25
-26
-26
-28
-28
-28
-29
-29
-29
-30
-30
-31
-31
-31
-31
-32
-32
-33
-33
-33
-33
-33
-34
-34
-34
-34
-34
-35
-35
-35
-35
-36
-36
-36
-37
-37
-37
-37
-37
-37
-37
-38
-38
-38
-38
-38
-38
-38
-38
-39
-39
-39
-40
-40
-40
-41
-41
-41
-41
-41
-42
-42
-42
-42
-42
-42
-42
-42
-42
-43
-43
-43
-43
-43
-43
-43
-43
-43
-43
-43
-43
-43
-43
-43
-44
-44
-44
-44
-44
-44
-44
-44
-44
-44
-44
-44
-44
-44
-44
-44
-44
-44
-44
-44
-44
-44
-44
-44
-44
-44
-45
-45
-45
-44
-44
-44
-45
-45
-45
-45
-45
-45
-45
-45
-45
-45
-45
-45
-45
-45
-45
-45
-45
-45
-45
-45
-45
-45
-45
-45
-45
-45
-45
-45
-44
-44
-44
-44
-44
-44
-44
-44
-44
-43
-43
-43
-43
-43
-43
-43
-43
-43
-43
-43
-43
-43
-43
-43
-43
-43
-43
-43
-42
-42
-42
-42
-42
-42
-42
-42
-42
-42
-42
-42
-43
-43
-43
-43
-43
-43
-43
-43
-43
-43
-43
-43
-43
-43
-43
-43
-43
-43
-43
-43
-44
-44
-44
-44
-44
-44
-44
-44
-44
-44
-44
-44
-44
-45
-45
-45
-45
-45
-45
-45
-45
-45
-46
-46
-46
-45
-45
-45
-45
-45
-46
-46
-46
-46
-46
-46
-46
-46
-46
-46
-46
-46
-46
-47
-47
-47
-47
-47
-47
-47
-47
-47
-47
-47
-47
-47
-47
-47
-47
-47
-47
-47
-47
-47
-48
-48
-48
-48
-48
-48
-48
-48
-48
-48
-48
-48
-48
-48
-48
-48
-48
-48
-48
-48
-49
-49
-49
-49
-49
-49
-49
-49
-50
-50
-50
-50
-50
-50
-50
-50
-50
-51
-51
-51
-51
-51
-51
-51
-51
-51
-51
-51
-51
-51
-51
-51
-51
-51
-51
-51
-51
-51
-51
-51
-51
-51
-51
-51
-52
-52
-52
-52
-51
-51
-51
-51
-51
-51
-51
-51
-51
-51
-51
-51
-51
-51
-51
-51
-51
-52
-52
-52
-52
-52
-52
-51
-51
-51
-51
-51
-51
-51
-51
-51
-51
-51
-51
-51
-51
-51
-52
-52
-52
-52
-52
-52
-52
-52
-52
-52
-52
-52
-51
-51
-51
-51
-51
-51
-51
-52
-52
-52
-52
-52
-52
-52
-52
-52
-52
-53
-53
-53
-53
-53
-53
-53
-53
-53
-54
-54
-53
-53
-53
-53
-53
-52
-53
-53
-53
-53
-52
-52
-52
-52
-52
-52
-52
-52
-52
-52
-51
-51
-51
-51
-52
-52
-52
-52
-52
-52
-52
-52
-52
-52
-52
-52
-52
-52
-52
-52
-52
-52
-52
-51
-51
-51
-52
-52
-52
-52
-52
-52
-52
-52
-52
-52
-52
-51
-51
-51
-51
-51
-51
-51
-50
-50
-50
-50
-50
-50
-50
-50
-50
-50
-50
-50
-50
-50
-50
-51
-51
-51
-51
-51
-51
-51
-51
-51
-51
-51
-51
-51
-51
-51
-51
-51
-50
-50
-50
-50
-50
-51
-50
-50
-50
-50
-51
-50
-50
-51
-51
-50
-51
-51
-51
-51
-52
-51
-52
-52
-52
-52
-53
-52
-52
-53
-53
-53
-53
-53
-54
-54
-54
-54
-54
-54
-54
-55
-55
-55
-56
-56
-56
-56
-56
-57
-57
-57
-57
-58
-58
-59
-58
-59
-60
-59
-60
-60
-60
-60
-60
-61
-60
-60
-60
-60
-60
-60
-59
-59
-58
-58
-58
-57
-56
-56
-55
-54
-54
-52
-52
-52
-51
-50
-49
-49
-49
-47
-47
-47
-46
-46
-46
-45
-45
-44
-45
-44
-45
-45
-45
-45
-45
-46
-45
-45
-46
-46
-46
-46
-46
-47
-47
-47
-47
-47
-47
-47
-47
-47
-47
-47
-48
-47
-47
-47
-47
-47
-46
-46
-46
-47
-47
-47
-46
-46
-46
-46
-46
-46
-46
-46
-47
-47
-47
-47
-47
-47
-47
-47
-47
-47
-47
-47
-46
-46
-46
-46
-46
-46
-46
-46
-46
-46
-46
-46
-45
-45
-45
-45
-45
-45
-45
-45
-44
-44
-44
-44
-44
-44
-43
-43
-43
-43
-43
-43
-43
-44
-44
-44
-44
-44
-43
-44
-44
-44
-44
-44
-44
-44
-45
-45
-45
-45
-45
-45
-45
-45
-45
-45
-45
-45
-45
-45
-45
-45
-45
-45
-45
-45
-45
-45
-45
-45
-45
-45
-45
-45
-45
-45
-45
-45
-45
-45
-45
-45
-45
-45
-46
-46
-46
-46
-46
-47
-47
-47
-47
-48
-48
-48
-50
-50
-50
-51
-51
-53
-53
-54
-55
-57
-57
-58
-58
-60
-60
-60
-60
-60
-61
-60
-59
-58
-56
-54
-52
-49
-46
-41
-38
-34
-28
-23
-18
-12
-5
1
8
15
23
30
38
46
53
61
69
75
83
90
97
104
110
117
123
128
134
138
142
146
149
153
155
156
158
159
160
159
157
156
153
149
146
141
136
131
124
117
111
102
95
86
78
69
60
50
42
32
24
16
7
-2
-9
-17
-23
-31
-37
-43
-48
-54
-59
-64
-68
-72
-75
-79
-81
-85
-87
-89
-91
-93
-94
-97
-98
-99
-101
-102
-103
-104
-104
-105
-106
-106
-106
-106
-106
-106
-105
-105
-104
-103
-102
-102
-100
-98
-98
-96
-94
-93
-91
-89
-88
-86
-84
-83
-81
-79
-78
-76
-74
-72
-71
-69
-67
-66
-64
-63
-61
-59
-59
-57
-55
-55
-53
-53
-51
-50
-49
-49
-48
-47
-46
-45
-45
-44
-45
-45
-44
-44
-44
-44
-43
-43
-43
-43
-43
-43
-43
-43
-43
-43
-43
-43
-42
-42
-42
-42
-42
-42
-42
-42
-42
-42
-42
-42
-42
-42
-42
-42
-41
-41
-41
-41
-41
-41
-41
-40
-41
-41
-41
-41
-41
-40
-40
-40
-40
-40
-40
-39
-38
-38
-38
-38
-38
-38
-38
-38
-38
-38
-37
-37
-37
-37
-37
-37
-37
-37
-37
-37
-37
-37
-37
-37
-37
-37
-37
-37
-37
-37
-37
-37
-36
-36
-35
-35
-35
-35
-35
-34
-34
-34
-34
-34
-34
-33
-32
-32
-32
-32
-32
-32
-32
-30
-30
-30
-30
-30
-30
-30
-30
-30
-30
-30
-30
-30
-30
-30
-29
-28
-28
-28
-28
-28
-28
-28
-26
-26
-26
-26
-25
-25
-24
-23
-23
-23
-22
-22
-21
-21
-20
-19
-19
-19
-18
-18
-17
-17
-17
-16
-16
-15
-15
-15
-14
-14
-13
-13
-13
-11
-11
-10
-10
-9
-9
-8
-8
-6
-6
-5
-5
-5
-4
-4
-3
-2
-2
-1
0
0
1
2
2
4
5
6
6
7
8
8
9
10
10
11
13
13
14
14
15
16
16
17
17
18
19
19
20
20
21
21
22
22
23
24
23
24
24
25
25
26
26
26
26
27
27
28
28
28
29
29
28
28
28
28
28
28
28
28
28
27
27
27
26
26
25
25
24
24
24
23
22
22
21
21
20
20
19
18
18
17
16
16
14
13
13
12
11
10
9
9
8
7
5
4
3
2
1
0
0
-1
-2
-3
-4
-5
-6
-6
-7
-9
-9
-9
-10
-11
-11
-12
-13
-13
-14
-14
-15
-16
-17
-18
-18
-19
-19
-20
-20
-21
-21
-21
-22
-22
-23
-23
-23
-25
-25
-25
-26
-26
-26
-26
-27
-28
-28
-28
-29
-29
-29
-30
-30
-30
-30
-30
-31
-31
-31
-31
-31
-32
-31
-31
-31
-31
-31
-31
-31
-31
-32
-32
-33
-33
-33
-33
-33
-33
-33
-33
-33
-33
-33
-33
-33
-33
-33
-33
-33
-33
-33
-34
-34
-35
-35
-35
-35
-35
-35
-35
-35
-35
-35
-36
-36
-36
-36
-36
-36
-37
-37
-37
-37
-37
-37
-37
-37
-37
-37
-37
-37
-37
-37
-37
-37
-37
-37
-37
-37
-38
-38
-38
-38
-38
-38
-38
-38
-39
-39
-39
-39
-39
-39
-39
-40
-40
-40
-40
-40
-40
-40
-41
-40
-40
-40
-40
-40
-40
-40
-40
-40
-40
-40
-40
-40
-40
-40
-39
-40
-40
-40
-40
-40
-40
-40
-40
-39
-39
-39
-39
-39
-39
-39
-39
-39
-39
-39
-38
-38
-38
-38
-37
-37
-37
-37
-37
-37
-37
-38
-38
-38
-38
-37
-37
-37
-37
-37
-37
-37
-37
-37
-37
-37
-36
-36
-36
-36
-36
-35
-35
-35
-35
-35
-35
-35
-35
-34
-34
-34
-34
-34
-34
-33
-33
-33
-33
-33
-33
-33
-33
-33
-33
-33
-33
-33
-33
-34
-34
-34
-34
-34
-34
-34
-34
-34
-34
-33
-33
-34
-34
-34
-34
-33
-33
-33
-33
-33
-33
-32
-32
-33
-33
-33
-32
-32
-32
-32
-32
-32
-32
-32
-32
-33
-33
-33
-33
-33
-33
-33
-34
-33
-33
-33
-33
-33
-32
-32
-32
-32
-32
-32
-32
-31
-32
-32
-32
-32
-32
-32
-32
-33
-33
-33
-33
-33
-33
-33
-33
-33
-33
-33
-34
-34
-34
-34
-34
-34
-34
-32
-32
-32
-32
-32
-32
-32
-32
-32
-32
-32
-32
-32
-32
-32
-32
-31
-31
-32
-32
-32
-32
-32
-32
-32
-32
-32
-32
-32
-32
-32
-33
-33
-33
-33
-33
-33
-33
-33
-33
-33
-33
-33
-32
-32
-32
-32
-32
-32
-32
-32
-32
-32
-32
-32
-32
-32
-32
-32
-32
-32
-32
-32
-32
-32
-32
-32
-32
-31
-31
-31
-31
-31
-31
-31
-31
-31
-31
-31
-31
-31
-31
-31
-31
-30
-30
-30
-30
-30
-30
-30
-30
-30
-30
-31
-31
-32
-32
-32
-32
-32
-32
-32
-32
-32
-32
-32
-31
-31
-32
-32
-32
-32
-31
-31
-31
-31
-31
-31
-31
-31
-31
-30
-30
-30
-30
-30
-30
-30
-30
-30
-30
-30
-30
-30
-30
-30
-31
-31
-31
-31
-31
-31
-31
-31
-31
-31
-31
-31
-31
-31
-31
-31
-31
-31
-30
-30
-30
-30
-30
-30
-30
-30
-30
-30
-30
-30
-30
-30
-30
-30
-30
-30
-30
-30
-30
-30
-30
-30
-30
-31
-31
-30
-30
-30
-30
-30
-30
-30
-30
-30
-30
-30
-30
-30
-30
-30
-30
-30
-30
-29
-29
-29
-29
-29
-29
-29
-29
-29
-29
-29
-29
-29
-29
-29
-28
-28
-28
-28
-28
-28
-28
-28
-28
-28
-28
-28
-28
-28
-28
-29
-29
-29
-28
-28
-28
-28
-28
-28
-28
-28
-28
-28
-28
-28
-28
-28
-28
-28
-28
-28
-28
-27
-27
-28
-27
-27
-27
-27
-27
-27
-27
-27
-27
-27
-27
-27
-28
-28
-28
-28
-28
-28
-29
-29
-29
-29
-30
-30
-30
-30
-31
-30
-30
-31
-31
-31
-30
-30
-31
-31
-30
-30
-30
-30
-30
-30
-30
-30
-31
-30
-30
-30
-31
-31
-32
-31
-32
-32
-32
-32
-33
-32
-33
-33
-32
-33
-33
-32
-32
-32
-32
-31
-31
-31
-31
-31
-31
-30
-30
-29
-29
-29
-29
-28
-28
-27
-26
-26
-25
-25
-24
-24
-24
-23
-22
-22
-21
-21
-20
-20
-20
-19
-20
-20
-20
-20
-20
-20
-21
-21
-21
-21
-21
-22
-22
-22
-23
-23
-24
-25
-25
-25
-25
-25
-25
-26
-26
-26
-26
-26
-26
-26
-26
-26
-26
-26
-26
-26
-25
-25
-25
-25
-25
-25
-25
-25
-24
-24
-24
-24
-24
-25
-25
-25
-25
-25
-25
-25
-25
-25
-25
-25
-25
-25
-25
-25
-25
-25
-25
-25
-25
-25
-25
-25
-25
-24
-24
-24
-25
-25
-25
-24
-24
-24
-25
-25
-25
-25
-25
-25
-25
-25
-25
-25
-25
-25
-25
-25
-25
-25
-25
-25
-25
-25
-25
-25
-25
-25
-25
-25
-25
-25
-25
-25
-25
-24
-24
-24
-24
-24
-24
-24
-24
-23
-23
-23
-23
-23
-23
-23
-23
-23
-23
-24
-24
-24
-24
-24
-24
-23
-23
-23
-23
-23
-23
-23
-23
-23
-23
-24
-24
-24
-24
-25
-25
-25
-26
-26
-28
-28
-28
-29
-30
-30
-31
-33
-34
-35
-36
-36
-38
-39
-39
-39
-39
-39
-38
-39
-37
-36
-34
-31
-30
-27
-23
-19
-14
-9
-4
2
10
16
23
32
39
48
56
65
74
83
92
100
109
118
126
134
142
150
157
164
171
176
183
188
192
195
199
201
203
205
206
206
206
204
203
201
197
193
188
183
178
171
164
157
148
141
131
123
114
104
95
86
76
67
57
48
39
30
22
14
5
-2
-9
-15
-21
-27
-32
-37
-42
-46
-50
-54
-58
-61
-64
-67
-70
-72
-74
-77
-79
-81
-83
-85
-87
-88
-90
-91
-92
-93
-94
-94
-94
-95
-95
-94
-94
-92
-92
-91
-90
-88
-87
-84
-83
-80
-79
-76
-74
-71
-69
-66
-64
-62
-60
-57
-55
-53
-51
-49
-47
-45
-43
-41
-40
-38
-36
-36
-34
-32
-31
-30
-28
-27
-27
-26
-25
-24
-23
-22
-22
-22
-22
-22
-21
-21
-22
-21
-21
-21
-20
-20
-21
-21
-20
-20
-20
-20
-19
-19
-19
-20
-19
-19
-19
-19
-19
-19
-18
-18
-18
-18
-18
-18
-18
-18
-17
-17
-17
-17
-17
-17
-17
-17
-17
-17
-17
-17
-17
-17
-16
-16
-16
-16
-16
-16
-16
-16
-16
-16
-16
-16
-15
-15
-15
-15
-15
-15
-15
-15
-15
-15
-15
-15
-15
-14
-14
-14
-14
-13
-13
-13
-13
-12
-12
-12
-12
-12
-11
-11
-11
-10
-10
-10
-10
-10
-10
-11
-10
-10
-10
-10
-10
-10
-9
-9
-9
-9
-9
-8
-8
-8
-8
-7
-7
-7
-7
-7
-6
-6
-6
-5
-5
-5
-5
-5
-4
-4
-4
-4
-4
-3
-3
-3
-3
-1
-1
-1
-1
-1
0
1
1
1
2
2
2
3
4
4
5
5
5
6
6
8
8
8
9
9
10
10
11
11
13
13
14
14
15
15
16
16
17
17
18
19
19
20
21
21
22
23
24
25
25
26
27
28
29
30
31
32
33
34
35
35
36
37
38
39
39
40
41
42
42
43
43
44
45
45
46
46
47
48
48
49
49
50
50
51
51
51
52
51
51
52
52
52
53
53
54
54
54
54
54
54
54
54
55
55
55
55
55
55
55
55
54
54
54
53
52
52
51
51
50
50
49
49
48
46
46
45
44
43
43
42
41
40
39
38
37
36
35
35
34
33
32
31
30
29
28
27
26
25
24
23
21
20
19
18
17
16
15
14
13
12
11
11
10
9
7
6
6
5
5
4
3
2
1
0
0
-1
-1
-3
-3
-4
-5
-5
-6
-7
-7
-8
-9
-9
-10
-10
-11
-12
-12
-14
-14
-14
-15
-15
-15
-16
-16
-16
-16
-17
-17
-17
-17
-18
-18
-18
-19
-19
-19
-19
-20
-20
-20
-20
-20
-20
-20
-20
-21
-21
-21
-21
-21
-21
-21
-21
-21
-21
-21
-21
-21
-21
-21
-21
-22
-21
-21
-21
-22
-22
-22
-22
-22
-22
-22
-22
-23
-24
-24
-24
-24
-24
-24
-25
-25
-25
-25
-25
-26
-26
-26
-26
-26
-25
-25
-25
-25
-25
-25
-26
-26
-26
-26
-26
-25
-25
-24
-24
-24
-24
-24
-24
-24
-24
-24
-24
-25
-25
-25
-25
-25
-25
-25
-25
-25
-25
-25
-25
-25
-25
-25
-25
-25
-25
-25
-25
-25
-25
-26
-26
-26
-25
-25
-25
-25
-25
-25
-25
-25
-24
-24
-24
-24
-24
-24
-23
-23
-23
-24
-24
-24
-24
-24
-24
-24
-24
-24
-24
-23
-23
-23
-23
-23
-23
-23
-23
-22
-22
-22
-22
-22
-22
-22
-22
-22
-22
-22
-22
-22
-22
-22
-23
-23
-23
-23
-23
-23
-23
-23
-23
-23
-23
-23
-23
-23
-23
-24
-24
-24
-24
-24
-24
-24
-24
-25
-25
-25
-25
-25
-25
-24
-24
-24
-24
-24
-25
-25
-24
-24
-24
-24
-24
-24
-24
-23
-23
-23
-23
-23
-23
-23
-23
-23
-23
-23
-23
-24
-24
-24
-24
-24
-24
-24
-25
-25
-25
-25
-25
-25
-25
-25
-25
-25
-25
-25
-25
-25
-25
-25
-25
-25
-25
-25
-25
-25
-25
-25
-25
-25
-25
-25
-25
-25
-25
-25
-26
-26
-26
-26
-26
-26
-25
-25
-25
-25
-25
-25
-25
-25
-25
-24
-24
-24
-24
-24
-24
-24
-24
-24
-24
-24
-25
-25
-25
-25
-25
-24
-24
-24
-24
-24
-24
-24
-24
-24
-24
-25
-25
-25
-25
-25
-25
-25
-25
-25
-25
-25
-25
-26
-26
-26
-26
-26
-26
-26
-26
-26
-25
-25
-25
-25
-25
-25
-25
-25
-25
-25
-25
-25
-25
-25
-26
-25
-25
-25
-25
-25
-25
-25
-25
-25
-25
-25
-24
-24
-24
-24
-24
-24
-24
-24
-24
-24
-24
-24
-24
-24
-23
-23
-24
-24
-24
-24
-24
-24
-24
-24
-24
-24
-24
-24
-24
-24
-24
-24
-24
-24
-24
-24
-24
-24
-24
-24
-24
-24
-24
-24
-24
-24
-24
-24
-24
-24
-24
-24
-24
-24
-24
-24
-24
-24
-24
-24
-24
-24
-24
-24
-24
-24
-24
-24
-24
-24
-24
-24
-24
-24
-24
-24
-24
-24
-24
-24
-24
-24
-24
-24
-24
-24
-24
-24
-24
-23
-23
-23
-23
-23
-23
-23
-23
-23
-23
-23
-23
-23
-22
-22
-22
-22
-22
-22
-22
-23
-23
-23
-23
-23
-23
-24
-24
-24
-24
-24
-24
-24
-23
-23
-23
-23
-23
-23
-23
-23
-23
-24
-24
-24
-23
-23
-23
-23
-23
-23
-23
-24
-24
-24
-24
-24
-24
-23
-23
-23
-23
-23
-23
-24
-23
-23
-23
-23
-23
-23
-23
-23
-22
-22
-22
-22
-22
-22
-22
-22
-22
-22
-21
-21
-21
-21
-20
-20
-20
-20
-20
-20
-20
-20
-21
-21
-21
-21
-21
-21
-21
-22
-21
-21
-22
-22
-21
-22
-22
-22
-23
-22
-22
-22
-22
-21
-22
-22
-22
-22
-23
-22
-22
-22
-23
-23
-23
-23
-23
-23
-23
-23
-24
-23
-23
-24
-23
-24
-24
-24
-24
-24
-24
-24
-24
-24
-25
-24
-25
-25
-24
-24
-24
-24
-24
-24
-24
-23
-23
-22
-22
-21
-22
-21
-20
-19
-20
-19
-19
-18
-18
-17
-17
-16
-17
-17
-16
-16
-16
-15
-15
-14
-14
-14
-14
-14
-13
-14
-13
-13
-14
-13
-13
-14
-14
-14
-13
-14
-14
-14
-15
-15
-15
-15
-15
-15
-16
-16
-16
-17
-17
-17
-17
-17
-17
-17
-18
-18
-18
-18
-18
-19
-19
-19
-19
-19
-18
-18
-19
-19
-19
-19
-19
-19
-19
-17
-17
-17
-17
-17
-17
-17
-17
-17
-16
-16
-16
-16
-16
-16
-16
-16
-16
-15
-15
-15
-15
-15
-15
-15
-15
-15
-15
-15
-15
-15
-15
-15
-15
-15
-16
-16
-15
-16
-16
-16
-16
-17
-17
-17
-18
-18
-18
-19
-19
-19
-19
-19
-19
-19
-19
-19
-19
-19
-19
-19
-18
-18
-18
-18
-18
-17
-17
-17
-16
-16
-16
-16
-16
-16
-16
-16
-16
-16
-16
-16
-16
-16
-16
-16
-15
-15
-15
-16
-16
-16
-16
-16
-17
-17
-17
-17
-18
-18
-18
-18
-19
-20
-21
-21
-22
-22
-23
-23
-25
-26
-26
-27
-27
-28
-29
-29
-30
-30
-30
-29
-30
-29
-28
-26
-25
-23
-20
-17
-13
-10
-6
-1
5
11
17
23
31
39
46
54
62
72
80
88
97
105
113
121
130
137
145
153
160
166
173
178
184
188
192
196
200
202
205
206
207
207
207
206
205
202
199
196
192
187
182
175
169
162
154
146
137
129
120
111
102
93
83
74
65
56
47
39
31
23
16
10
2
-3
-9
-14
-19
-22
-26
-30
-33
-37
-40
-43
-45
-48
-50
-52
-54
-56
-59
-60
-62
-64
-66
-67
-69
-70
-71
-73
-73
-74
-75
-75
-75
-75
-75
-75
-74
-73
-72
-72
-70
-69
-68
-66
-64
-62
-61
-59
-57
-55
-53
-51
-49
-47
-45
-44
-42
-40
-38
-36
-34
-33
-32
-30
-28
-27
-26
-24
-23
-22
-21
-19
-19
-19
-18
-16
-15
-15
-14
-14
-13
-13
-12
-12
-11
-11
-11
-12
-12
-12
-12
-11
-11
-11
-11
-11
-11
-11
-11
-11
-11
-11
-11
-11
-11
-11
-11
-10
-10
-10
-10
-10
-10
-9
-9
-9
-9
-9
-9
-9
-9
-8
-8
-8
-8
-7
-7
-7
-7
-7
-7
-7
-7
-7
-7
-7
-7
-7
-7
-7
-7
-7
-7
-6
-6
-6
-6
-7
-7
-7
-6
-6
-6
-6
-6
-6
-5
-5
-5
-5
-5
-5
-4
-4
-4
-3
-3
-3
-3
-3
-3
-3
-3
-2
-2
-2
-2
-2
-2
-2
-2
0
0
0
0
0
0
1
1
2
2
2
2
2
2
2
3
3
3
3
4
4
4
4
4
5
5
5
5
5
6
6
6
6
8
8
8
8
9
9
10
10
10
11
11
12
13
13
13
14
14
15
15
16
17
18
18
19
19
20
20
21
22
22
23
23
24
25
25
26
26
26
26
28
28
29
29
29
30
30
31
32
32
34
35
35
36
37
38
39
40
40
41
42
43
44
44
45
46
46
47
47
48
49
50
50
50
51
51
52
52
52
53
53
54
54
54
55
55
56
56
56
57
57
57
58
58
58
59
59
59
59
59
59
59
60
60
60
59
58
58
58
58
57
57
58
57
57
56
56
55
55
54
54
53
52
51
51
50
49
48
48
47
46
45
44
43
42
41
40
39
38
37
37
36
36
34
33
32
31
30
29
29
28
27
26
25
24
24
23
22
21
20
19
18
18
17
16
16
15
14
13
13
12
10
9
9
8
7
7
6
5
5
4
4
3
3
2
2
1
1
1
0
0
0
-2
-2
-2
-3
-3
-3
-3
-4
-4
-5
-6
-6
-6
-6
-7
-7
-7
-7
-9
-9
-9
-9
-10
-10
-10
-10
-10
-10
-10
-10
-11
-11
-11
-11
-11
-12
-12
-12
-12
-12
-12
-13
-12
-12
-13
-13
-13
-13
-13
-13
-13
-14
-14
-14
-14
-14
-14
-15
-15
-15
-15
-15
-16
-16
-16
-16
-16
-16
-16
-16
-16
-16
-16
-16
-16
-16
-16
-16
-16
-16
-16
-16
-16
-16
-16
-16
-16
-16
-16
-15
-15
-15
-15
-15
-15
-15
-15
-15
-15
-15
-15
-15
-15
-15
-15
-15
-14
-14
-14
-14
-14
-14
-14
-14
-14
-13
-13
-13
-13
-13
-13
-13
-13
-13
-13
-13
-13
-13
-13
-13
-13
-13
-13
-13
-13
-13
-13
-13
-13
-13
-13
-13
-13
-13
-13
-13
-13
-13
-13
-13
-12
-12
-12
-12
-12
-12
-12
-12
-12
-12
-12
-12
-11
-11
-12
-12
-12
-12
-12
-12
-12
-12
-12
-12
-12
-12
-10
-10
-10
-10
-11
-11
-11
-11
-11
-11
-11
-11
-11
-11
-11
-11
-11
-11
-10
-10
-11
-11
-11
-11
-11
-11
-11
-11
-11
-10
-11
-11
-11
-11
-11
-11
-11
-12
-12
-12
-12
-12
-12
-12
-12
-12
-12
-12
-11
-11
-11
-11
-11
-11
-11
-11
-11
-11
-11
-11
-11
-11
-11
-11
-11
-11
-11
-12
-12
-12
-12
-12
-12
-12
-12
-11
-11
-11
-11
-11
-11
-11
-11
-11
-11
-11
-10
-11
-11
-11
-11
-11
-11
-11
-11
-11
-11
-11
-11
-11
-11
-11
-11
-11
-11
-11
-11
-11
-11
-11
-12
-12
-12
-12
-12
-12
-12
-12
-12
-12
-12
-12
-12
-12
-12
-12
-12
-12
-12
-12
-12
-12
-12
-12
-12
-11
-11
-11
-11
-11
-11
-11
-11
-12
-12
-11
-11
-11
-11
-11
-11
-11
-11
-11
-11
-11
-11
-11
-11
-11
-11
-11
-11
-11
-11
-11
-11
-11
-11
-11
-11
-11
-11
-11
-11
-11
-11
-11
-10
-10
-10
-10
-10
-10
-10
-10
-11
-11
-11
-11
-12
-12
-12
-12
-12
-13
-13
-13
-13
-13
-13
-13
-12
-12
-12
-12
-12
-12
-12
-12
-11
-11
-11
-11
-11
-11
-11
-11
-11
-11
-11
-11
-11
-11
-11
-11
-11
-11
-11
-11
-11
-11
-11
-11
-10
-10
-10
-10
-10
-10
-10
-10
-11
-11
-11
-11
-11
-11
-11
-11
-11
-11
-11
-11
-11
-11
-11
-11
-11
-11
-10
-11
-11
-11
-11
-11
-11
-11
-11
-11
-11
-11
-11
-11
-11
-10
-10
-10
-10
-10
-10
-10
-10
-10
-10
-9
-9
-9
-9
-9
-9
-9
-10
-10
-10
-10
-10
-10
-10
-10
-12
-12
-12
-12
-12
-12
-12
-12
-12
-12
-11
-11
-11
-11
-11
-11
-11
-11
-11
-11
-9
-9
-9
-9
-9
-9
-9
-9
-9
-9
-9
-9
-9
-9
-9
-9
-9
-9
-9
-9
-10
-9
-9
-9
-10
-10
-10
-11
-10
-10
-11
-11
-10
-10
-10
-10
-10
-10
-11
-10
-10
-11
-10
-10
-11
-11
-10
-10
-11
-11
-11
-11
-10
-11
-11
-11
-12
-12
-12
-12
-12
-12
-13
-13
-13
-13
-13
-13
-13
-14
-13
-14
-14
-13
-14
-14
-14
-14
-14
-14
-13
-13
-13
-12
-12
-12
-12
-11
-11
-11
-10
-10
-9
-9
-9
-8
-7
-8
-7
-7
-6
-5
-4
-4
-3
-3
-3
-3
-3
-2
-2
-2
-2
-2
-2
-2
-2
-2
-2
-2
-2
-2
-3
-3
-3
-3
-3
-4
-4
-4
-4
-4
-4
-4
-5
-5
-5
-5
-5
-5
-5
-6
-6
-6
-6
-6
-6
-6
-6
-6
-5
-5
-6
-6
-6
-6
-6
-6
-6
-5
-5
-5
-5
-5
-5
-5
-5
-5
-5
-5
-6
-6
-5
-5
-6
-6
-5
-5
-5
-5
-5
-5
-5
-5
-5
-4
-4
-4
-5
-5
-5
-5
-5
-5
-5
-5
-5
-5
-5
-5
-5
-5
-5
-5
-5
-5
-5
-5
-5
-5
-5
-5
-5
-5
-5
-5
-4
-4
-4
-4
-4
-4
-3
-3
-3
-4
-4
-4
-4
-4
-4
-4
-3
-3
-4
-4
-4
-4
-4
-4
-5
-4
-4
-4
-4
-4
-4
-4
-4
-5
-5
-5
-5
-5
-4
-4
-4
-4
-4
-4
-4
-4
-5
-5
-5
-5
-5
-7
-7
-8
-8
-9
-9
-10
-11
-11
-13
-14
-15
-15
-15
-15
-16
-16
-16
-16
-16
-15
-15
-15
-14
-12
-9
-6
-3
0
4
8
13
18
23
29
37
43
51
58
66
74
82
91
99
107
116
123
132
140
148
155
162
169
176
182
188
193
198
203
206
210
213
215
217
218
218
218
218
216
214
211
207
202
198
192
185
179
171
164
155
147
138
129
120
111
101
92
83
74
64
56
48
40
31
24
17
10
4
-2
-7
-11
-16
-20
-24
-28
-32
-35
-38
-41
-43
-46
-48
-50
-51
-53
-54
-57
-58
-59
-60
-62
-62
-63
-64
-65
-65
-65
-65
-65
-64
-64
-63
-63
-62
-61
-59
-58
-57
-55
-54
-51
-50
-48
-46
-45
-42
-40
-39
-37
-35
-33
-32
-30
-28
-26
-25
-24
-22
-20
-18
-18
-16
-14
-14
-12
-12
-10
-9
-8
-7
-7
-6
-5
-4
-4
-4
-3
-3
-2
-1
-1
-1
0
0
0
0
0
1
1
1
1
1
1
1
1
1
1
1
1
1
2
2
2
2
2
2
3
3
3
3
3
3
3
3
3
3
3
2
2
2
2
2
3
3
3
3
3
3
3
3
3
3
3
3
3
3
3
3
3
4
4
5
5
5
5
6
6
6
7
7
7
7
7
8
8
8
8
9
9
9
9
10
10
10
10
10
10
10
11
11
11
11
11
11
11
11
11
11
11
11
12
12
12
12
13
13
13
14
14
14
14
14
14
15
15
15
16
16
16
16
17
17
17
17
18
18
18
18
19
20
20
20
20
20
21
21
22
22
22
22
23
24
24
25
25
25
26
26
27
27
28
28
29
30
30
31
31
32
33
33
34
35
35
36
36
37
38
38
39
40
40
41
42
42
43
44
45
46
46
47
48
49
50
51
51
52
53
54
55
56
56
57
58
59
59
60
61
61
62
63
64
64
65
66
66
67
67
68
68
69
69
70
70
70
71
71
72
72
72
73
73
73
73
74
74
74
74
74
74
74
74
74
74
74
74
74
74
74
73
73
73
72
72
71
71
70
70
69
68
68
67
66
66
65
64
64
63
62
61
60
60
59
58
57
56
55
54
53
52
52
51
50
49
48
47
46
45
43
42
41
40
39
38
37
36
35
34
33
32
31
30
29
28
27
26
25
24
23
23
22
21
20
20
19
18
18
17
17
16
15
15
15
13
13
12
12
12
11
11
11
9
9
9
9
9
8
7
7
7
7
7
7
7
6
6
5
5
5
5
5
5
4
4
4
4
4
3
3
3
2
2
2
2
1
1
0
0
0
0
0
-1
-1
-1
-1
-2
-2
-2
-2
-2
-2
-2
-2
-2
-2
-2
-3
-4
-4
-4
-4
-4
-5
-5
-5
-5
-5
-5
-6
-6
-7
-7
-7
-7
-7
-7
-7
-8
-7
-7
-7
-7
-7
-7
-7
-7
-7
-6
-7
-7
-7
-7
-7
-7
-7
-7
-7
-7
-7
-7
-7
-7
-7
-7
-7
-7
-7
-6
-6
-6
-6
-6
-6
-6
-6
-6
-6
-6
-6
-6
-6
-6
-6
-6
-6
-6
-6
-6
-6
-6
-7
-7
-7
-7
-6
-6
-6
-6
-6
-5
-5
-5
-5
-5
-5
-5
-5
-5
-5
-5
-5
-5
-5
-5
-5
-5
-5
-5
-5
-5
-5
-4
-4
-4
-4
-4
-3
-3
-3
-3
-3
-2
-2
-2
-2
-1
-1
-1
-1
-1
-1
-1
0
0
0
0
0
0
0
0
0
0
0
0
0
0
0
0
0
0
0
0
0
0
0
0
0
0
1
1
1
1
1
1
1
1
1
1
1
1
1
1
1
1
1
1
1
1
1
1
0
0
0
0
0
0
0
1
1
1
1
1
1
2
2
1
1
1
1
2
2
2
2
2
2
2
2
2
1
1
1
1
1
1
1
1
1
1
1
0
1
1
1
1
1
1
1
1
1
1
1
1
1
1
2
2
2
2
2
2
2
2
2
2
2
2
2
2
1
1
1
1
1
1
1
1
1
1
1
1
1
1
1
1
1
1
1
2
2
1
1
1
1
1
1
1
1
1
1
1
0
0
1
1
1
1
1
1
0
0
0
1
1
1
1
1
1
1
1
1
1
0
0
0
0
0
0
0
0
0
0
1
1
1
1
1
1
1
1
1
1
1
1
1
1
1
1
1
1
2
1
1
1
1
1
1
1
1
1
0
0
0
1
1
1
1
1
1
1
1
1
1
1
1
1
1
1
1
2
2
2
1
1
1
1
1
1
1
1
1
1
1
1
1
1
1
1
1
1
1
1
1
1
1
1
1
1
1
1
1
1
1
0
0
0
0
0
0
0
0
0
0
-1
-1
-1
-1
-1
-1
-1
-1
-1
-1
-1
0
0
0
0
0
0
2
2
2
2
2
2
2
3
3
3
3
3
3
3
3
3
2
2
2
2
2
2
2
2
2
2
2
2
2
2
2
2
2
1
1
1
1
1
2
2
2
2
2
2
2
2
1
1
1
1
1
1
1
1
1
2
2
2
1
1
1
1
1
1
1
1
1
1
1
0
1
0
1
1
0
0
1
1
1
0
0
1
1
1
1
0
0
0
0
1
0
0
0
-1
-1
-1
-1
-2
-1
-2
-2
-2
-2
-2
-1
-1
-1
-1
0
-1
-1
-1
-1
-1
-1
-1
-1
0
0
0
0
0
0
1
2
2
2
3
3
5
5
6
6
7
8
8
9
10
10
11
12
12
12
13
13
13
13
13
13
13
12
12
11
11
11
10
10
10
9
8
8
8
7
7
7
6
6
6
5
5
5
5
5
5
5
5
5
5
5
5
5
5
6
5
5
5
5
5
5
5
5
6
5
5
5
5
5
5
5
5
5
5
5
5
6
6
6
5
5
5
6
6
6
6
6
6
6
6
6
5
5
5
5
5
4
4
4
5
4
4
4
4
4
4
4
3
3
3
3
3
4
4
4
4
4
4
4
4
5
5
5
5
5
5
5
5
5
5
5
5
5
4
4
4
4
4
3
3
4
4
3
3
3
3
3
3
3
3
3
3
3
3
3
3
3
3
3
3
3
3
3
3
3
2
2
2
2
1
0
-1
-1
-2
-2
-3
-4
-5
-6
-7
-8
-9
-9
-11
-12
-12
-13
-13
-13
-12
-12
-12
-11
-9
-7
-5
-3
1
4
9
13
18
24
30
36
43
51
59
67
75
83
92
101
109
118
127
136
144
152
162
169
177
184
191
197
204
209
214
218
222
226
228
230
231
232
233
232
232
230
227
224
220
216
211
206
199
192
185
176
169
160
151
142
133
123
113
104
94
84
75
66
57
48
40
31
24
17
10
4
-2
-7
-12
-16
-21
-25
-29
-33
-35
-39
-41
-44
-48
-50
-52
-54
-56
-58
-60
-62
-63
-64
-66
-67
-68
-68
-68
-69
-70
-69
-69
-68
-67
-66
-65
-64
-62
-61
-59
-57
-55
-54
-51
-49
-47
-45
-43
-41
-38
-36
-35
-33
-30
-28
-26
-25
-23
-21
-19
-18
-16
-15
-14
-12
-11
-9
-9
-8
-7
-6
-4
-4
-3
-2
-2
-2
-1
0
1
0
1
1
1
2
2
2
2
2
3
3
3
2
2
2
3
3
3
3
3
3
3
3
3
3
3
3
3
3
2
2
3
3
3
3
3
3
3
3
3
3
3
3
4
4
4
4
4
4
4
4
4
5
5
5
5
5
5
5
6
6
6
6
6
6
6
6
6
6
6
6
6
6
6
7
7
7
7
8
8
8
9
9
9
9
9
9
9
9
10
10
10
10
11
11
11
11
11
11
11
12
12
12
12
12
13
13
13
13
13
13
14
14
14
14
14
15
15
16
16
17
17
17
17
18
18
18
18
18
19
19
19
20
20
20
20
21
21
22
22
23
23
24
24
24
25
26
26
27
27
28
28
30
30
30
31
31
32
32
34
34
35
35
36
36
37
39
39
40
40
41
42
42
43
44
44
45
46
46
47
48
49
50
50
51
52
52
54
54
55
55
56
57
58
58
59
59
60
61
61
62
63
63
64
65
65
66
66
67
68
68
69
69
70
70
71
71
72
73
73
74
74
74
75
74
75
75
75
76
76
76
76
75
76
76
76
76
76
75
75
75
75
75
74
74
73
73
72
72
71
70
70
69
68
67
66
66
65
64
63
62
61
60
60
59
58
57
56
55
54
53
52
51
50
49
48
47
46
45
44
43
42
41
40
39
38
37
36
35
33
32
31
29
28
27
26
25
24
23
22
21
21
20
19
18
18
17
16
16
15
14
14
12
12
11
11
10
10
10
9
9
8
8
6
6
6
5
5
5
4
4
4
4
3
2
2
2
1
1
1
1
2
1
1
1
1
1
1
0
0
0
0
0
0
0
-1
-1
-1
-1
-2
-2
-2
-2
-2
-3
-4
-4
-4
-4
-4
-4
-4
-4
-4
-4
-5
-5
-5
-5
-5
-5
-6
-6
-6
-6
-6
-7
-7
-7
-7
-8
-8
-8
-8
-8
-8
-9
-9
-9
-9
-9
-9
-9
-9
-9
-9
-9
-9
-9
-9
-9
-9
-9
-9
-9
-9
-8
-8
-8
-8
-8
-9
-9
-9
-9
-9
-9
-9
-9
-9
-9
-9
-9
-9
-9
-9
-9
-9
-9
-9
-9
-9
-9
-9
-9
-9
-9
-9
-9
-9
-8
-8
-8
-8
-7
-7
-7
-6
-6
-6
-6
-6
-5
-5
-5
-5
-5
-5
-5
-5
-5
-5
-6
-5
-5
-5
-5
-5
-6
-6
-6
-6
-6
-5
-5
-5
-5
-5
-5
-5
-5
-5
-5
-5
-5
-5
-4
-3
-3
-4
-4
-4
-4
-4
-4
-4
-4
-3
-3
-3
-3
-4
-4
-3
-3
-3
-3
-3
-3
-3
-3
-3
-3
-3
-3
-3
-3
-3
-3
-3
-3
-3
-3
-3
-3
-3
-3
-3
-3
-3
-3
-3
-3
-3
-2
-2
-2
-2
-2
-2
-2
-2
-2
-2
-2
-2
-2
-2
-1
-2
-2
-2
-2
-2
-2
-2
-2
-2
-2
-2
-2
-2
-2
-2
-2
-2
-2
-2
-2
-2
-3
-3
-3
-3
-3
-3
-3
-3
-3
-3
-3
-3
-3
-3
-3
-3
-3
-3
-4
-4
-4
-4
-4
-4
-4
-4
-4
-4
-4
-4
-4
-4
-3
-3
-4
-4
-4
-4
-4
-4
-4
-4
-4
-4
-3
-3
-4
-4
-4
-3
-3
-3
-3
-2
-2
-2
-3
-3
-3
-3
-3
-3
-3
-3
-3
-2
-2
-2
-2
-2
-2
-2
-3
-3
-3
-3
-3
-3
-3
-3
-3
-3
-3
-3
-3
-3
-3
-3
-3
-4
-4
-4
-4
-4
-4
-4
-3
-3
-3
-3
-3
-3
-3
-3
-4
-4
-4
-4
-4
-4
-4
-4
-4
-4
-4
-4
-4
-4
-4
-5
-5
-5
-5
-5
-5
-5
-5
-5
-5
-5
-4
-4
-4
-4
-4
-4
-3
-3
-3
-3
-3
-3
-3
-3
-2
-2
-2
-2
-2
-2
-2
-3
-3
-3
-3
-3
-3
-3
-3
-3
-3
-3
-3
-3
-3
-3
-3
-3
-3
-4
-4
-4
-4
-4
-3
-3
-3
-3
-3
-3
-3
-3
-3
-3
-3
-3
-3
-3
-3
-3
-3
-2
-2
-2
-3
-3
-3
-3
-2
-2
-2
-3
-3
-3
-3
-3
-3
-3
-3
-3
-3
-3
-3
-3
-3
-3
-3
-3
-3
-3
-3
-4
-4
-4
-4
-3
-3
-3
-3
-3
-2
-2
-2
-2
-2
-2
-2
-1
-1
-1
-1
-1
-2
-2
-2
-1
-1
-1
-1
-2
-2
-2
-2
-2
-2
-2
-2
-2
-2
-2
-2
-2
-2
-2
-2
-2
-2
-2
-2
-3
-3
-3
-3
-4
-3
-4
-4
-5
-4
-5
-5
-6
-5
-5
-6
-6
-6
-5
-5
-6
-6
-6
-5
-5
-5
-5
-6
-6
-6
-6
-6
-6
-6
-6
-6
-7
-6
-6
-7
-6
-6
-6
-6
-6
-6
-6
-6
-7
-6
-6
-6
-6
-6
-5
-5
-5
-5
-5
-5
-5
-4
-5
-4
-4
-3
-3
-3
-2
-2
-1
0
0
0
1
2
3
3
3
5
5
5
6
6
6
7
6
7
6
7
6
6
5
5
5
4
4
4
4
3
3
3
3
2
1
1
1
1
1
1
1
0
0
0
0
0
0
0
1
1
1
1
0
0
0
1
1
1
1
1
1
2
2
2
2
2
3
3
3
3
3
4
4
4
4
4
4
4
4
3
3
3
3
3
3
3
3
3
3
3
2
2
2
2
2
2
2
2
2
2
2
2
2
1
1
2
2
1
1
1
1
1
1
1
1
1
1
0
1
2
2
2
2
2
2
2
2
2
2
2
3
3
3
3
3
3
3
3
3
3
3
3
3
3
3
3
3
3
3
3
4
4
4
4
4
4
4
4
4
4
4
4
4
3
3
3
2
2
2
1
1
0
-1
-1
-2
-4
-5
-6
-7
-8
-8
-9
-11
-12
-12
-12
-13
-14
-13
-13
-12
-12
-10
-8
-6
-3
-1
3
7
12
17
22
28
34
41
48
56
63
72
81
89
98
106
115
124
132
142
150
158
166
174
181
189
195
202
207
213
218
222
226
229
232
234
235
236
236
235
234
232
230
226
222
218
213
207
200
193
186
178
170
162
152
143
134
125
115
106
97
87
78
69
61
52
44
37
29
22
16
9
4
-1
-6
-10
-14
-18
-22
-25
-28
-31
-33
-35
-38
-40
-42
-45
-46
-48
-50
-52
-53
-55
-55
-57
-58
-58
-59
-60
-60
-60
-60
-59
-59
-58
-57
-57
-55
-54
-52
-50
-48
-47
-44
-43
-41
-38
-36
-34
-32
-30
-28
-26
-24
-22
-20
-18
-17
-15
-15
-14
-12
-10
-9
-7
-6
-5
-3
-3
-1
0
1
2
3
4
4
5
5
6
7
7
8
8
8
9
10
10
10
11
11
11
11
11
11
12
12
12
12
12
12
12
12
12
12
12
12
12
12
12
12
11
11
11
11
11
11
12
12
12
12
12
12
12
13
13
13
14
14
14
15
15
15
15
16
16
16
16
16
16
17
17
17
17
17
17
17
17
17
18
19
19
19
19
19
19
19
19
19
19
19
19
19
19
19
19
19
19
19
20
21
21
21
21
21
21
21
21
21
21
22
22
22
22
23
23
23
23
24
24
24
25
26
26
27
27
27
27
29
29
29
29
30
30
30
31
31
32
32
32
33
33
33
34
34
34
35
35
35
35
36
36
36
37
38
38
39
39
39
40
40
41
42
42
43
43
44
44
45
46
46
47
47
48
49
49
50
52
52
53
54
55
55
56
57
57
58
59
60
61
61
62
63
63
64
65
65
66
66
67
68
69
69
70
71
71
72
73
73
74
75
75
76
77
77
79
79
80
80
81
81
81
82
82
84
84
84
85
85
85
85
86
86
86
86
87
87
86
87
87
87
88
88
88
88
88
88
88
88
87
87
87
87
87
86
86
86
85
85
84
84
83
82
82
81
80
80
79
78
78
77
76
75
75
73
72
71
70
70
69
68
67
66
65
64
63
62
61
60
59
58
57
56
55
54
53
52
51
50
49
48
47
46
45
44
43
43
41
40
39
38
38
37
36
35
34
34
33
32
31
31
30
29
29
28
28
27
27
26
25
25
24
24
24
23
23
22
22
22
21
21
21
20
20
20
20
20
19
19
18
18
18
18
18
18
17
16
16
16
16
16
15
15
15
14
14
14
14
14
14
14
12
12
12
12
12
12
12
12
12
12
12
12
12
12
12
12
12
12
12
11
11
11
11
11
11
11
10
10
10
10
10
10
10
10
10
10
10
10
10
9
9
9
9
9
10
10
10
10
10
9
9
9
9
9
9
9
9
9
9
9
9
8
8
9
8
8
8
8
7
7
7
7
7
7
7
7
7
7
7
6
6
7
7
7
8
8
8
9
9
9
10
10
10
11
11
12
12
13
13
13
13
13
13
13
13
13
13
13
13
13
13
13
13
13
13
13
13
13
13
13
13
13
13
14
13
13
13
13
13
14
15
15
15
15
15
15
15
15
15
15
15
15
15
16
16
16
16
16
16
16
16
16
16
16
16
16
16
16
16
16
16
16
15
15
15
15
14
15
15
15
15
15
15
15
15
15
15
15
15
15
15
14
14
14
14
15
15
15
15
15
16
15
15
15
16
16
16
16
16
16
16
16
16
16
16
16
16
16
17
17
17
17
17
17
17
17
17
17
17
17
17
17
17
17
17
17
17
17
16
16
16
16
16
16
16
16
15
15
15
15
15
15
15
15
15
15
15
15
15
15
15
15
16
16
16
16
16
16
16
15
15
15
15
15
15
15
15
15
14
14
15
15
15
14
14
14
14
15
15
14
14
15
14
15
15
14
14
15
15
15
15
15
14
14
14
13
13
13
13
14
14
13
13
13
13
13
13
13
14
14
14
14
14
14
14
14
13
13
14
14
14
14
14
14
14
15
15
15
15
15
15
15
15
15
15
15
15
14
14
14
14
14
14
14
14
14
14
14
14
15
15
14
14
14
14
14
14
15
15
14
14
14
14
15
15
15
15
15
15
15
15
15
14
14
15
15
15
15
15
15
15
16
16
16
16
16
16
16
16
15
16
16
16
16
16
16
16
16
16
16
16
16
16
17
17
16
17
17
17
16
16
16
16
16
16
16
17
17
17
16
16
16
16
16
16
16
16
16
16
16
16
16
16
16
16
16
17
17
16
16
16
17
17
17
17
17
17
16
16
16
16
16
16
16
16
17
17
17
17
17
17
18
18
18
17
17
17
17
18
17
17
17
16
17
16
16
16
15
16
16
15
15
15
15
14
14
14
15
14
14
14
14
14
14
14
15
14
14
14
14
14
14
14
14
14
14
14
13
13
13
13
13
12
13
12
11
12
11
10
11
10
10
10
10
10
9
9
9
8
9
9
8
8
9
8
8
8
8
8
8
8
9
9
9
10
11
11
11
12
13
13
14
14
16
16
17
18
18
19
19
21
21
21
22
22
23
23
24
23
24
23
23
23
23
22
22
22
22
21
21
21
20
20
20
20
19
19
19
19
19
19
19
19
19
19
19
19
19
18
18
18
18
18
18
18
18
18
18
18
18
18
18
18
18
18
18
18
18
18
18
18
19
19
18
18
18
18
18
18
18
18
18
18
18
18
19
19
19
19
19
18
18
18
19
19
20
20
20
20
20
20
20
20
20
20
20
20
20
20
20
20
20
20
20
21
21
21
21
21
21
21
21
21
21
20
20
20
20
20
20
20
20
20
21
21
21
21
21
21
21
21
21
21
21
21
21
22
22
22
22
22
21
21
22
22
22
22
22
21
21
21
21
21
21
21
21
20
20
20
19
19
19
19
17
17
16
16
15
14
13
13
12
10
10
9
9
8
7
7
7
8
7
8
10
11
12
15
18
20
23
27
32
36
42
47
54
60
66
73
81
88
96
103
112
119
127
135
143
150
158
166
172
180
186
192
198
204
209
214
218
222
226
228
230
232
233
233
233
232
231
229
226
223
219
213
208
202
196
189
182
173
166
156
148
139
130
121
112
103
95
86
77
70
62
55
47
41
35
28
23
18
14
9
5
1
-2
-6
-9
-11
-13
-17
-19
-20
-21
-23
-25
-26
-29
-30
-32
-32
-34
-35
-35
-37
-37
-38
-39
-39
-39
-40
-39
-39
-38
-37
-37
-36
-34
-33
-31
-30
-28
-27
-26
-24
-22
-22
-19
-18
-16
-15
-13
-11
-10
-8
-6
-4
-2
-2
0
2
3
4
6
7
9
9
11
12
12
14
15
15
16
17
18
18
19
19
19
20
20
20
20
20
20
20
20
20
20
20
20
21
21
21
21
21
21
21
21
21
21
21
22
22
22
22
22
22
23
23
23
23
23
23
24
24
24
24
24
24
24
25
25
25
25
25
25
25
25
25
25
25
25
25
25
25
25
24
24
24
24
24
24
24
24
24
24
24
24
24
25
25
25
25
25
25
25
26
26
26
26
26
26
26
27
27
27
27
27
27
28
28
28
28
28
28
28
28
28
28
28
28
29
29
29
29
29
29
29
30
30
30
30
31
32
32
32
32
32
32
33
34
34
34
34
35
35
35
36
36
36
37
37
37
39
39
39
39
40
40
40
41
41
41
42
42
43
43
44
45
45
45
46
46
47
48
48
49
49
50
50
52
52
53
54
54
55
55
56
56
57
58
58
60
60
61
62
62
63
63
64
64
65
65
66
66
67
68
69
69
70
71
71
72
72
73
74
75
75
76
76
78
79
79
80
80
81
81
82
82
83
83
84
83
83
84
84
84
85
85
84
84
85
85
85
85
85
86
86
86
86
86
86
86
86
86
86
86
86
86
85
85
85
84
84
83
83
82
82
81
80
80
79
78
77
76
75
74
74
73
72
70
70
69
68
67
66
65
64
63
62
60
59
58
57
56
56
55
54
53
52
51
50
49
48
47
47
46
45
44
43
42
41
40
39
38
37
36
36
35
34
33
33
32
31
30
29
29
28
28
26
26
25
25
25
24
23
23
23
22
22
22
21
20
20
20
20
20
19
19
19
18
18
18
17
17
17
17
15
15
15
15
15
15
14
14
14
13
13
13
13
13
13
13
13
13
12
12
12
12
12
12
12
12
12
12
11
11
11
11
11
10
10
10
10
10
10
9
9
9
9
8
9
9
9
9
8
8
8
8
7
7
7
7
7
6
7
7
7
7
7
7
7
6
6
6
7
7
7
7
7
7
7
7
7
7
7
7
7
7
7
7
7
7
7
7
7
7
7
7
7
7
7
6
6
6
6
6
6
6
6
6
6
6
6
6
6
5
5
5
6
6
6
6
6
6
6
6
7
7
7
7
7
7
7
7
8
8
8
7
7
7
8
8
8
8
8
8
8
8
8
8
8
8
9
9
9
9
9
10
10
10
10
10
10
10
10
11
11
11
11
11
12
13
13
13
13
13
13
13
13
13
13
13
13
13
13
12
12
12
12
12
12
12
12
12
12
12
12
12
12
12
12
12
12
12
12
12
11
11
11
11
11
12
11
11
11
11
11
12
12
12
12
12
12
12
12
12
13
13
13
13
14
14
14
13
13
13
13
13
12
13
13
13
13
12
12
12
12
13
13
13
13
13
12
12
