# Simple Text Format
# Sampling Rate (Hz):= 1200.00
# Resolution:= 12
# Labels:= ECG	 I 
# Age:=	71
# Gender:=	Masculino
3
12
22
32
41
51
60
70
78
88
96
103
111
118
124
130
135
139
143
146
148
149
149
149
148
146
144
140
136
131
127
120
114
107
100
92
83
75
66
57
48
39
30
21
11
3
-5
-14
-22
-30
-38
-44
-51
-57
-63
-69
-74
-79
-85
-89
-93
-98
-102
-105
-108
-112
-115
-118
-120
-123
-125
-127
-130
-133
-134
-136
-139
-140
-142
-144
-145
-146
-146
-148
-148
-148
-149
-149
-148
-147
-146
-145
-143
-142
-140
-138
-136
-133
-131
-129
-126
-124
-121
-118
-116
-113
-111
-109
-107
-105
-104
-102
-100
-98
-96
-95
-94
-92
-91
-90
-89
-88
-87
-86
-86
-85
-83
-83
-83
-82
-81
-81
-81
-80
-81
-80
-80
-80
-79
-80
-80
-79
-79
-79
-79
-78
-78
-78
-78
-78
-77
-77
-77
-77
-77
-77
-77
-76
-76
-76
-76
-76
-76
-76
-76
-76
-76
-76
-76
-75
-74
-74
-74
-74
-74
-74
-73
-73
-73
-73
-73
-73
-73
-72
-72
-72
-72
-72
-71
-71
-70
-70
-70
-70
-70
-69
-69
-69
-69
-69
-69
-69
-69
-69
-69
-68
-68
-68
-68
-68
-68
-68
-68
-68
-68
-67
-67
-67
-67
-67
-67
-67
-66
-66
-66
-66
-66
-66
-66
-66
-65
-65
-64
-64
-64
-64
-64
-63
-62
-62
-62
-62
-61
-61
-61
-60
-60
-60
-60
-59
-59
-58
-58
-58
-58
-57
-56
-56
-56
-56
-56
-56
-55
-54
-54
-54
-54
-54
-53
-52
-52
-52
-52
-50
-50
-50
-49
-48
-47
-47
-47
-45
-45
-44
-43
-43
-43
-41
-41
-40
-40
-38
-38
-38
-37
-36
-35
-34
-34
-33
-33
-32
-31
-31
-30
-28
-28
-27
-26
-26
-25
-24
-24
-23
-22
-22
-21
-19
-19
-18
-18
-17
-17
-16
-15
-15
-14
-13
-13
-12
-12
-10
-9
-9
-8
-7
-7
-6
-5
-5
-4
-4
-4
-3
-2
-1
-1
-1
-1
0
0
1
1
2
2
2
4
4
4
4
5
5
5
5
5
5
6
6
5
5
5
5
5
5
5
5
4
4
4
4
3
2
2
1
1
0
0
-1
-1
-2
-2
-3
-4
-5
-5
-6
-7
-8
-8
-10
-11
-12
-12
-13
-14
-15
-16
-16
-18
-18
-19
-19
-21
-22
-23
-24
-26
-27
-27
-28
-29
-31
-32
-33
-34
-35
-36
-37
-38
-39
-40
-41
-42
-42
-44
-45
-46
-47
-47
-48
-49
-50
-51
-52
-52
-54
-54
-55
-56
-57
-57
-58
-58
-59
-60
-61
-61
-61
-63
-63
-63
-64
-64
-65
-65
-65
-66
-67
-67
-67
-68
-68
-69
-68
-68
-69
-69
-70
-70
-70
-71
-72
-73
-73
-73
-73
-74
-74
-74
-75
-75
-75
-75
-76
-76
-76
-76
-77
-77
-77
-77
-77
-77
-77
-77
-78
-78
-78
-78
-79
-79
-79
-79
-79
-80
-80
-80
-80
-81
-81
-81
-81
-81
-81
-81
-81
-81
-81
-82
-82
-82
-82
-82
-82
-82
-82
-82
-81
-81
-82
-82
-82
-82
-82
-82
-82
-82
-82
-82
-82
-82
-83
-83
-83
-83
-83
-83
-83
-83
-83
-83
-84
-85
-85
-85
-85
-85
-85
-85
-85
-85
-85
-84
-84
-84
-84
-84
-84
-83
-84
-84
-83
-83
-82
-82
-82
-82
-81
-82
-82
-82
-82
-82
-82
-82
-82
-82
-82
-81
-81
-81
-81
-82
-82
-82
-82
-82
-82
-83
-83
-83
-83
-83
-83
-83
-83
-82
-82
-82
-82
-81
-81
-81
-81
-81
-81
-81
-81
-80
-80
-80
-80
-80
-80
-80
-80
-80
-79
-79
-79
-79
-79
-79
-79
-79
-79
-79
-79
-79
-79
-78
-78
-78
-78
-78
-78
-78
-78
-78
-78
-78
-78
-78
-78
-78
-78
-78
-78
-79
-79
-79
-79
-78
-78
-78
-78
-79
-79
-79
-79
-79
-78
-78
-78
-78
-78
-78
-78
-78
-78
-78
-78
-78
-78
-77
-77
-77
-77
-77
-78
-78
-78
-78
-78
-78
-78
-79
-78
-78
-78
-78
-78
-78
-78
-78
-78
-78
-78
-78
-78
-78
-78
-78
-78
-79
-79
-79
-79
-79
-80
-80
-80
-80
-80
-80
-80
-80
-80
-80
-79
-79
-79
-79
-79
-79
-79
-79
-79
-79
-79
-79
-79
-79
-80
-80
-80
-80
-80
-80
-80
-80
-81
-81
-80
-80
-80
-80
-80
-80
-80
-80
-81
-80
-80
-80
-80
-80
-80
-80
-80
-80
-79
-79
-79
-79
-79
-79
-79
-79
-79
-79
-79
-79
-79
-79
-79
-79
-79
-79
-80
-80
-80
-80
-80
-80
-80
-80
-80
-80
-80
-80
-80
-80
-80
-80
-80
-80
-80
-80
-80
-80
-80
-81
-81
-80
-80
-80
-80
-80
-80
-80
-80
-80
-80
-80
-80
-80
-80
-80
-80
-80
-79
-79
-79
-79
-79
-79
-79
-79
-79
-79
-79
-78
-78
-78
-78
-78
-78
-78
-79
-79
-78
-78
-78
-78
-78
-79
-79
-79
-79
-79
-79
-79
-80
-80
-80
-80
-80
-80
-80
-80
-80
-80
-80
-80
-80
-80
-80
-80
-80
-80
-80
-79
-79
-79
-79
-79
-79
-79
-79
-79
-79
-79
-79
-79
-79
-79
-79
-79
-79
-79
-79
-79
-79
-79
-79
-79
-79
-79
-79
-79
-79
-79
-79
-79
-79
-79
-79
-80
-80
-80
-80
-80
-80
-80
-80
-80
-80
-80
-80
-79
-79
-79
-79
-78
-78
-79
-79
-79
-79
-79
-79
-79
-79
-79
-79
-78
-78
-78
-78
-78
-78
-78
-78
-78
-78
-78
-78
-78
-78
-77
-77
-77
-77
-77
-77
-77
-77
-77
-76
-77
-77
-77
-77
-76
-77
-76
-77
-76
-77
-76
-76
-76
-76
-75
-75
-75
-75
-74
-74
-74
-74
-74
-73
-73
-73
-73
-73
-72
-72
-73
-73
-72
-72
-72
-72
-72
-72
-71
-72
-71
-72
-71
-71
-71
-71
-70
-71
-70
-69
-70
-69
-69
-68
-68
-68
-67
-67
-67
-67
-66
-66
-65
-65
-65
-64
-65
-64
-64
-64
-63
-63
-63
-63
-63
-63
-63
-63
-63
-62
-63
-63
-63
-63
-63
-64
-65
-65
-65
-65
-66
-66
-67
-68
-68
-69
-70
-71
-71
-72
-72
-73
-73
-74
-74
-75
-75
-75
-75
-75
-75
-75
-77
-77
-77
-77
-77
-77
-77
-77
-77
-78
-78
-78
-78
-78
-78
-79
-79
-79
-78
-78
-78
-79
-79
-79
-79
-79
-78
-78
-78
-78
-78
-78
-77
-77
-77
-77
-77
-77
-77
-76
-76
-76
-77
-77
-76
-76
-76
-76
-76
-76
-76
-76
-77
-77
-77
-77
-77
-77
-76
-76
-76
-76
-76
-77
-77
-77
-77
-77
-76
-76
-76
-76
-76
-76
-76
-76
-76
-76
-76
-76
-76
-75
-75
-75
-75
-75
-74
-74
-74
-74
-75
-75
-75
-75
-75
-74
-74
-74
-74
-74
-74
-74
-74
-74
-74
-74
-73
-73
-73
-73
-73
-73
-73
-73
-73
-73
-73
-73
-73
-73
-73
-74
-74
-74
-74
-73
-73
-73
-74
-74
-74
-74
-75
-75
-77
-77
-78
-78
-79
-81
-81
-82
-84
-85
-86
-87
-88
-89
-90
-91
-91
-92
-93
-92
-93
-92
-90
-89
-87
-86
-83
-79
-76
-72
-68
-61
-57
-51
-44
-37
-29
-21
-11
-2
7
17
27
37
47
57
67
77
86
95
105
113
121
129
135
142
148
153
156
160
163
164
165
165
165
164
162
159
156
152
147
142
136
129
122
115
107
98
90
81
72
62
53
44
35
26
18
9
0
-8
-17
-25
-32
-39
-46
-52
-57
-63
-68
-73
-78
-83
-87
-91
-95
-98
-101
-104
-108
-109
-112
-115
-117
-120
-123
-124
-126
-129
-131
-132
-133
-136
-137
-137
-138
-139
-139
-140
-139
-139
-138
-137
-136
-134
-132
-131
-129
-126
-123
-121
-119
-116
-114
-111
-108
-106
-103
-102
-99
-97
-95
-93
-91
-90
-88
-87
-86
-85
-83
-82
-81
-80
-79
-79
-77
-76
-76
-75
-75
-74
-73
-72
-71
-71
-71
-70
-69
-69
-68
-68
-68
-66
-66
-66
-66
-66
-65
-65
-65
-65
-65
-65
-65
-64
-64
-64
-64
-64
-65
-65
-64
-64
-64
-64
-64
-65
-65
-65
-65
-64
-64
-64
-64
-64
-64
-64
-64
-64
-64
-64
-64
-64
-64
-63
-63
-63
-63
-63
-63
-63
-63
-63
-63
-63
-61
-61
-61
-61
-61
-61
-61
-61
-60
-60
-60
-60
-60
-60
-60
-60
-60
-60
-60
-59
-59
-59
-59
-58
-58
-58
-58
-58
-58
-58
-58
-57
-57
-57
-57
-57
-57
-57
-56
-56
-56
-56
-55
-55
-55
-54
-53
-53
-52
-52
-52
-52
-51
-51
-51
-50
-50
-50
-50
-49
-49
-49
-49
-48
-48
-48
-47
-47
-47
-46
-46
-46
-46
-44
-44
-44
-44
-43
-42
-42
-42
-41
-40
-40
-40
-39
-38
-38
-37
-37
-36
-35
-34
-34
-34
-32
-32
-31
-31
-30
-29
-29
-28
-28
-27
-26
-26
-26
-25
-25
-24
-23
-22
-22
-21
-21
-19
-19
-18
-16
-16
-15
-14
-14
-13
-11
-10
-10
-9
-8
-7
-7
-6
-5
-4
-3
-2
-1
-1
0
0
1
2
2
3
4
4
5
5
6
7
8
9
9
10
11
11
12
12
13
14
13
14
14
14
15
15
15
16
16
16
16
16
16
16
16
16
16
15
15
15
15
15
15
14
14
14
14
13
12
12
11
11
10
10
9
9
8
7
7
6
5
5
3
2
1
1
0
-1
-2
-3
-4
-6
-6
-7
-8
-9
-10
-11
-12
-13
-14
-15
-16
-17
-18
-19
-20
-21
-22
-23
-24
-25
-25
-27
-27
-28
-29
-31
-31
-32
-33
-35
-35
-36
-36
-37
-39
-39
-40
-41
-41
-42
-43
-44
-44
-45
-46
-46
-47
-47
-48
-48
-49
-49
-50
-50
-52
-52
-52
-53
-54
-54
-55
-56
-56
-57
-57
-58
-58
-60
-60
-61
-61
-62
-62
-63
-63
-63
-64
-64
-64
-65
-66
-66
-66
-67
-67
-67
-67
-68
-68
-68
-68
-68
-68
-69
-69
-69
-69
-70
-70
-70
-70
-71
-71
-71
-71
-71
-71
-71
-71
-71
-71
-71
-72
-72
-72
-72
-72
-72
-72
-72
-73
-73
-73
-73
-73
-73
-74
-74
-74
-74
-74
-75
-75
-75
-75
-75
-75
-75
-76
-75
-75
-76
-76
-76
-75
-76
-76
-76
-76
-75
-75
-76
-76
-76
-76
-76
-76
-77
-77
-77
-77
-77
-77
-77
-77
-77
-77
-77
-77
-77
-77
-77
-77
-76
-75
-75
-75
-75
-75
-75
-75
-75
-74
-74
-74
-74
-74
-73
-73
-73
-73
-73
-73
-73
-72
-72
-72
-72
-72
-72
-72
-72
-72
-72
-72
-72
-72
-72
-72
-73
-73
-73
-73
-73
-73
-73
-73
-72
-72
-71
-71
-71
-71
-71
-71
-71
-71
-71
-70
-70
-70
-70
-70
-70
-70
-70
-70
-70
-70
-70
-70
-70
-70
-70
-70
-70
-70
-71
-71
-71
-71
-71
-71
-71
-71
-71
-70
-71
-71
-71
-71
-71
-71
-71
-70
-71
-71
-71
-71
-71
-71
-71
-72
-72
-71
-71
-71
-72
-72
-72
-72
-72
-72
-72
-73
-73
-73
-74
-74
-74
-74
-74
-74
-74
-74
-74
-74
-74
-74
-74
-74
-74
-73
-73
-72
-72
-72
-72
-72
-72
-72
-71
-71
-71
-70
-70
-70
-70
-70
-71
-71
-71
-71
-71
-71
-71
-71
-71
-71
-71
-72
-72
-73
-73
-73
-73
-73
-73
-73
-74
-74
-74
-74
-74
-75
-75
-75
-75
-74
-75
-75
-75
-75
-75
-75
-75
-75
-75
-75
-75
-75
-75
-75
-75
-75
-75
-75
-75
-75
-74
-74
-74
-74
-74
-74
-74
-74
-74
-74
-74
-73
-73
-74
-74
-74
-74
-74
-74
-74
-74
-74
-74
-74
-74
-75
-75
-75
-75
-75
-75
-76
-76
-75
-75
-75
-75
-75
-75
-76
-75
-75
-75
-75
-75
-74
-74
-74
-74
-74
-74
-74
-74
-74
-74
-74
-74
-74
-74
-74
-74
-74
-74
-74
-74
-74
-74
-74
-74
-75
-75
-75
-75
-75
-75
-75
-75
-74
-74
-74
-74
-73
-73
-73
-73
-73
-73
-73
-73
-73
-74
-74
-74
-74
-73
-73
-73
-73
-73
-73
-73
-73
-73
-73
-73
-73
-72
-72
-72
-73
-73
-73
-73
-73
-73
-73
-73
-73
-73
-73
-73
-73
-73
-73
-73
-73
-73
-73
-73
-73
-73
-73
-73
-73
-73
-73
-73
-73
-72
-72
-73
-73
-73
-73
-73
-73
-73
-73
-73
-73
-73
-73
-73
-73
-74
-74
-73
-73
-73
-73
-73
-73
-73
-73
-73
-73
-73
-73
-73
-73
-73
-73
-73
-73
-73
-72
-72
-73
-73
-73
-73
-73
-73
-73
-73
-73
-73
-73
-72
-72
-72
-72
-72
-72
-73
-73
-73
-72
-72
-72
-72
-72
-72
-72
-72
-72
-72
-72
-72
-72
-73
-72
-72
-72
-72
-72
-71
-71
-72
-72
-72
-72
-71
-72
-72
-72
-72
-73
-72
-72
-72
-72
-72
-72
-72
-71
-72
-72
-71
-71
-71
-71
-71
-70
-70
-70
-70
-70
-69
-70
-70
-69
-69
-70
-69
-69
-69
-69
-69
-69
-69
-69
-68
-69
-68
-68
-68
-67
-68
-67
-66
-66
-65
-65
-65
-64
-64
-63
-63
-63
-62
-62
-61
-61
-61
-60
-60
-60
-60
-59
-59
-60
-59
-59
-59
-59
-58
-58
-58
-58
-58
-58
-58
-58
-58
-58
-58
-58
-59
-60
-60
-60
-61
-62
-62
-63
-63
-64
-64
-65
-66
-67
-67
-68
-69
-70
-70
-71
-71
-72
-72
-72
-73
-73
-74
-74
-74
-74
-75
-75
-74
-74
-74
-75
-75
-75
-75
-76
-75
-75
-75
-75
-75
-75
-74
-74
-75
-75
-75
-75
-74
-74
-73
-73
-73
-73
-73
-73
-73
-73
-73
-73
-73
-73
-74
-74
-74
-74
-74
-74
-74
-74
-74
-74
-74
-75
-75
-75
-75
-75
-75
-75
-75
-75
-75
-75
-75
-75
-75
-75
-75
-75
-75
-75
-75
-76
-75
-75
-75
-74
-74
-74
-74
-74
-74
-73
-74
-74
-73
-73
-73
-73
-73
-73
-73
-73
-73
-72
-72
-72
-72
-73
-72
-72
-72
-72
-72
-71
-72
-71
-71
-72
-72
-72
-72
-71
-71
-71
-71
-71
-71
-71
-70
-70
-70
-70
-70
-69
-69
-69
-69
-70
-70
-70
-71
-71
-71
-71
-71
-71
-73
-73
-74
-75
-76
-76
-78
-79
-79
-81
-82
-83
-85
-85
-86
-88
-88
-89
-90
-90
-91
-91
-90
-90
-89
-88
-87
-85
-82
-80
-77
-73
-68
-64
-59
-53
-47
-41
-33
-25
-17
-7
1
11
20
31
40
51
61
71
81
90
100
108
117
125
132
140
146
152
157
161
165
167
169
170
171
170
169
167
165
162
157
153
148
143
136
129
121
113
105
97
88
80
70
61
52
43
33
25
16
7
-2
-10
-18
-25
-32
-39
-45
-50
-55
-61
-65
-69
-74
-78
-82
-85
-89
-92
-95
-98
-100
-103
-106
-108
-111
-114
-115
-118
-120
-123
-124
-126
-127
-128
-130
-131
-132
-133
-133
-133
-133
-133
-131
-131
-129
-128
-126
-124
-123
-120
-118
-115
-114
-111
-108
-107
-104
-102
-99
-98
-96
-94
-92
-90
-88
-87
-86
-84
-83
-82
-80
-79
-78
-77
-76
-75
-74
-74
-73
-72
-71
-71
-71
-70
-70
-69
-69
-68
-68
-67
-67
-67
-66
-66
-66
-66
-66
-65
-64
-64
-64
-64
-64
-64
-64
-64
-63
-63
-63
-63
-63
-63
-62
-63
-63
-63
-63
-63
-63
-63
-63
-63
-63
-63
-63
-63
-63
-63
-63
-63
-63
-62
-62
-62
-62
-62
-62
-62
-62
-61
-61
-61
-61
-62
-61
-61
-61
-60
-60
-60
-61
-60
-60
-60
-60
-60
-60
-60
-60
-60
-60
-60
-59
-59
-59
-59
-59
-58
-58
-58
-57
-57
-57
-56
-56
-56
-56
-56
-56
-56
-54
-54
-54
-53
-53
-53
-53
-52
-52
-52
-52
-51
-51
-50
-50
-49
-49
-49
-49
-48
-48
-47
-47
-47
-47
-46
-46
-46
-45
-45
-44
-44
-44
-43
-43
-43
-43
-42
-42
-41
-41
-40
-40
-40
-39
-39
-39
-39
-39
-39
-38
-38
-38
-38
-36
-36
-36
-35
-34
-34
-33
-33
-31
-31
-31
-30
-29
-28
-27
-27
-26
-25
-25
-24
-24
-22
-22
-21
-20
-19
-18
-18
-17
-16
-15
-14
-14
-13
-12
-11
-11
-9
-8
-8
-7
-6
-6
-5
-4
-4
-3
-2
-1
-2
-1
-1
0
1
1
2
2
3
4
4
5
5
6
6
7
7
8
8
10
10
10
11
11
11
12
12
12
13
13
13
13
14
14
14
14
14
14
14
14
14
14
14
14
13
13
13
13
13
12
12
12
10
10
9
9
9
7
6
6
5
4
3
2
1
0
-1
-2
-2
-3
-4
-5
-7
-8
-8
-9
-10
-11
-12
-13
-14
-15
-16
-17
-18
-19
-20
-21
-22
-23
-23
-25
-26
-27
-28
-28
-28
-29
-30
-31
-32
-32
-34
-35
-35
-37
-38
-39
-40
-40
-42
-43
-43
-45
-45
-46
-47
-48
-48
-49
-50
-50
-51
-52
-52
-53
-53
-54
-54
-54
-55
-56
-56
-57
-57
-58
-58
-59
-59
-60
-60
-60
-61
-62
-62
-62
-63
-63
-63
-64
-64
-65
-65
-65
-65
-65
-66
-66
-66
-67
-67
-67
-67
-67
-68
-68
-68
-69
-69
-69
-69
-69
-70
-70
-71
-71
-71
-71
-71
-72
-72
-72
-72
-72
-72
-72
-72
-72
-72
-72
-72
-72
-72
-72
-72
-72
-72
-72
-72
-72
-74
-74
-74
-74
-74
-74
-74
-74
-75
-75
-75
-75
-75
-75
-75
-75
-75
-75
-75
-75
-75
-75
-75
-74
-75
-75
-75
-75
-74
-74
-74
-74
-74
-74
-74
-74
-73
-73
-73
-73
-73
-73
-73
-73
-73
-73
-73
-73
-74
-74
-74
-74
-73
-73
-73
-73
-73
-73
-73
-73
-72
-72
-72
-71
-71
-70
-70
-70
-70
-69
-69
-68
-68
-68
-68
-69
-68
-68
-68
-68
-69
-69
-69
-69
-69
-68
-68
-68
-68
-68
-68
-69
-69
-68
-68
-68
-68
-67
-68
-68
-68
-68
-68
-68
-68
-67
-68
-68
-68
-68
-68
-68
-68
-68
-68
-68
-68
-68
-68
-68
-68
-68
-68
-67
-67
-67
-67
-67
-67
-67
-67
-67
-67
-67
-66
-66
-66
-66
-66
-66
-66
-66
-66
-66
-66
-66
-66
-66
-67
-67
-67
-67
-67
-67
-67
-67
-67
-67
-67
-67
-68
-68
-67
-68
-68
-68
-68
-68
-69
-69
-69
-68
-69
-69
-69
-69
-69
-69
-69
-69
-69
-69
-69
-69
-69
-69
-69
-69
-69
-69
-69
-69
-69
-69
-69
-69
-69
-68
-68
-69
-69
-69
-68
-68
-68
-68
-68
-68
-69
-69
-69
-68
-68
-68
-68
-68
-68
-68
-69
-69
-69
-69
-69
-69
-70
-70
-69
-69
-69
-69
-69
-69
-69
-69
-68
-68
-69
-69
-69
-69
-69
-68
-69
-69
-69
-69
-69
-69
-70
-70
-70
-69
-69
-69
-69
-68
-68
-68
-68
-68
-68
-68
-68
-68
-68
-68
-68
-69
-68
-68
-68
-68
-67
-68
-68
-68
-68
-68
-68
-68
-68
-68
-68
-68
-68
-68
-68
-68
-68
-68
-68
-69
-69
-69
-69
-69
-69
-69
-69
-69
-69
-69
-69
-69
-69
-69
-69
-69
-68
-68
-68
-68
-69
-69
-69
-69
-69
-69
-69
-69
-69
-69
-69
-68
-68
-68
-68
-68
-67
-68
-68
-68
-67
-67
-67
-67
-67
-67
-67
-66
-66
-66
-67
-67
-67
-67
-67
-67
-68
-68
-68
-68
-68
-69
-69
-69
-69
-69
-69
-69
-69
-69
-69
-69
-69
-69
-69
-69
-69
-69
-69
-69
-68
-68
-68
-67
-67
-67
-67
-66
-66
-66
-66
-66
-66
-66
-66
-65
-65
-66
-66
-66
-66
-66
-66
-66
-66
-67
-67
-66
-66
-66
-67
-67
-67
-67
-67
-68
-67
-67
-67
-67
-67
-67
-67
-67
-67
-67
-67
-66
-66
-66
-66
-67
-67
-67
-67
-67
-67
-67
-67
-67
-67
-67
-67
-66
-67
-67
-67
-67
-66
-66
-65
-66
-65
-65
-64
-65
-64
-64
-63
-63
-63
-63
-63
-63
-63
-62
-63
-62
-62
-62
-62
-62
-61
-62
-62
-61
-61
-61
-61
-60
-61
-60
-60
-59
-59
-60
-60
-59
-59
-59
-60
-59
-59
-59
-59
-59
-59
-58
-59
-58
-58
-58
-58
-57
-57
-57
-56
-56
-55
-55
-55
-54
-54
-54
-54
-53
-53
-52
-52
-52
-51
-51
-51
-51
-51
-50
-51
-50
-50
-50
-50
-49
-49
-49
-49
-49
-49
-50
-49
-50
-50
-50
-50
-51
-51
-52
-52
-53
-53
-53
-54
-55
-55
-56
-57
-58
-58
-58
-59
-60
-61
-61
-62
-62
-62
-62
-63
-63
-63
-64
-64
-64
-64
-65
-65
-65
-65
-65
-65
-65
-65
-66
-66
-66
-66
-66
-66
-66
-66
-66
-66
-66
-66
-65
-64
-64
-64
-64
-64
-64
-64
-64
-63
-63
-63
-63
-63
-63
-63
-63
-63
-63
-63
-63
-63
-63
-63
-64
-64
-64
-64
-64
-64
-64
-64
-64
-64
-64
-64
-64
-64
-63
-64
-64
-64
-64
-64
-64
-64
-64
-65
-64
-64
-64
-64
-63
-64
-64
-64
-64
-63
-64
-64
-63
-63
-63
-64
-64
-63
-63
-63
-63
-63
-63
-63
-61
-61
-61
-61
-61
-61
-61
-60
-61
-61
-61
-61
-61
-61
-60
-60
-60
-60
-60
-60
-60
-60
-60
-60
-60
-60
-61
-61
-61
-61
-60
-60
-60
-60
-60
-61
-61
-61
-61
-61
-62
-62
-62
-63
-64
-65
-65
-67
-68
-69
-70
-71
-72
-73
-74
-75
-75
-76
-77
-77
-77
-77
-76
-76
-74
-72
-71
-68
-65
-62
-58
-55
-51
-45
-40
-34
-27
-20
-13
-4
4
12
22
31
40
50
59
68
78
87
96
105
113
121
129
136
142
147
153
158
161
164
166
168
169
169
168
167
164
162
158
154
149
144
138
132
125
117
109
101
93
84
76
67
58
49
40
31
24
15
7
-1
-8
-15
-22
-28
-35
-39
-44
-48
-53
-57
-61
-65
-69
-71
-75
-77
-80
-82
-85
-87
-90
-91
-94
-95
-98
-100
-101
-103
-105
-107
-108
-110
-112
-112
-114
-115
-116
-116
-116
-116
-116
-115
-114
-113
-111
-110
-108
-106
-104
-102
-100
-97
-95
-93
-90
-88
-86
-83
-82
-79
-77
-76
-74
-72
-72
-70
-68
-67
-66
-64
-63
-62
-61
-60
-59
-59
-57
-57
-56
-56
-55
-55
-54
-53
-53
-52
-52
-52
-52
-51
-51
-51
-52
-51
-51
-51
-51
-51
-51
-51
-51
-50
-50
-50
-50
-50
-50
-50
-50
-50
-50
-49
-49
-49
-49
-49
-48
-48
-48
-48
-47
-47
-47
-47
-47
-47
-45
-45
-45
-45
-45
-45
-44
-44
-44
-44
-45
-45
-45
-45
-45
-45
-46
-46
-45
-45
-45
-45
-46
-46
-46
-46
-47
-47
-47
-47
-47
-46
-46
-46
-46
-46
-46
-46
-45
-45
-44
-44
-44
-43
-43
-43
-43
-43
-42
-42
-41
-41
-41
-41
-41
-40
-40
-40
-40
-39
-39
-39
-38
-38
-37
-37
-37
-36
-35
-35
-35
-34
-33
-33
-33
-32
-31
-31
-30
-30
-30
-29
-29
-28
-27
-27
-27
-27
-25
-25
-25
-25
-25
-25
-25
-24
-24
-24
-24
-23
-23
-22
-22
-21
-21
-21
-21
-20
-19
-19
-18
-18
-17
-17
-16
-15
-15
-14
-13
-13
-11
-11
-10
-9
-9
-8
-7
-7
-6
-5
-5
-4
-3
-3
-3
-1
-1
-1
0
0
1
2
3
3
4
4
4
4
5
6
6
7
7
8
8
9
10
10
11
11
11
12
12
13
13
14
14
15
15
16
17
18
18
19
19
19
21
21
22
22
22
23
23
23
24
23
23
24
24
24
24
25
24
24
24
24
24
24
24
23
23
23
23
22
22
22
22
21
21
21
21
20
20
19
19
18
18
17
16
16
15
15
14
13
12
12
11
10
9
8
8
7
6
4
3
2
1
0
-1
-2
-3
-4
-4
-5
-6
-7
-8
-9
-10
-10
-11
-12
-12
-12
-14
-15
-15
-16
-18
-19
-19
-20
-21
-22
-23
-24
-25
-26
-27
-27
-28
-30
-30
-31
-32
-33
-33
-35
-35
-36
-36
-38
-38
-38
-39
-39
-40
-41
-41
-42
-42
-42
-42
-43
-43
-44
-44
-44
-44
-44
-46
-46
-46
-46
-46
-47
-47
-47
-47
-49
-49
-49
-50
-50
-50
-50
-51
-51
-51
-52
-52
-52
-52
-52
-53
-53
-53
-54
-54
-54
-55
-55
-55
-56
-56
-56
-56
-56
-57
-57
-57
-58
-58
-58
-58
-58
-58
-59
-59
-59
-59
-59
-59
-59
-59
-58
-58
-58
-58
-58
-58
-58
-59
-59
-59
-59
-59
-59
-59
-59
-59
-59
-59
-59
-59
-59
-59
-60
-60
-60
-60
-60
-60
-60
-60
-60
-60
-60
-61
-61
-61
-60
-60
-60
-61
-61
-61
-61
-61
-60
-60
-60
-60
-60
-60
-60
-60
-60
-60
-60
-60
-60
-60
-60
-60
-60
-60
-60
-60
-60
-60
-60
-59
-59
-59
-59
-59
-59
-59
-59
-59
-58
-58
-58
-58
-58
-58
-58
-58
-58
-57
-57
-57
-57
-57
-57
-57
-57
-57
-57
-56
-56
-56
-56
-56
-56
-56
-56
-56
-56
-56
-56
-57
-57
-57
-57
-57
-57
-57
-57
-57
-58
-58
-58
-58
-58
-58
-58
-58
-58
-58
-58
-59
-59
-59
-59
-59
-59
-59
-59
-59
-59
-59
-59
-59
-60
-60
-60
-60
-60
-60
-60
-60
-60
-61
-61
-61
-60
-60
-60
-60
-60
-61
-61
-61
-61
-61
-61
-62
-62
-62
-62
-62
-62
-62
-63
-63
-63
-63
-63
-63
-63
-63
-63
-63
-63
-63
-63
-63
-63
-63
-63
-63
-63
-63
-63
-64
-64
-64
-64
-64
-64
-64
-64
-64
-64
-64
-64
-64
-64
-64
-64
-64
-64
-64
-64
-65
-65
-65
-65
-65
-65
-65
-65
-66
-66
-66
-66
-66
-66
-66
-66
-66
-67
-68
-68
-68
-68
-68
-68
-68
-68
-68
-68
-68
-68
-68
-68
-67
-67
-67
-67
-67
-67
-67
-67
-67
-67
-67
-67
-68
-68
-68
-68
-67
-67
-67
-67
-67
-67
-67
-67
-67
-67
-67
-67
-67
-67
-67
-67
-67
-68
-68
-68
-68
-68
-68
-67
-68
-68
-68
-68
-68
-68
-68
-68
-68
-68
-68
-68
-68
-68
-69
-69
-69
-69
-69
-69
-69
-68
-68
-68
-68
-68
-67
-67
-67
-67
-67
-67
-66
-67
-67
-67
-67
-67
-67
-67
-67
-67
-67
-68
-68
-69
-69
-69
-69
-69
-69
-69
-70
-70
-69
-69
-70
-70
-70
-69
-70
-70
-70
-70
-69
-69
-69
-69
-69
-69
-69
-69
-69
-69
-68
-68
-68
-68
-68
-68
-68
-68
-68
-68
-68
-68
-68
-68
-68
-68
-68
-68
-68
-68
-68
-69
-69
-68
-68
-68
-69
-69
-69
-69
-69
-69
-69
-69
-69
-69
-69
-68
-68
-68
-68
-68
-68
-68
-67
-67
-67
-67
-66
-66
-66
-67
-67
-67
-67
-67
-67
-67
-67
-68
-68
-68
-68
-68
-68
-68
-68
-68
-68
-68
-68
-68
-68
-68
-68
-68
-67
-67
-67
-66
-66
-67
-66
-66
-66
-65
-66
-65
-65
-65
-65
-64
-65
-64
-64
-64
-64
-63
-64
-63
-63
-63
-63
-62
-62
-62
-62
-62
-62
-62
-62
-62
-62
-62
-62
-62
-62
-63
-62
-62
-63
-63
-63
-63
-63
-63
-63
-63
-62
-63
-63
-63
-62
-63
-63
-62
-62
-62
-62
-61
-61
-62
-61
-61
-61
-60
-60
-60
-59
-59
-59
-59
-59
-58
-58
-58
-57
-57
-57
-56
-56
-57
-57
-56
-56
-57
-57
-56
-56
-57
-57
-57
-58
-58
-58
-58
-59
-59
-60
-61
-61
-61
-62
-63
-62
-63
-64
-64
-65
-65
-65
-66
-66
-66
-67
-67
-67
-67
-67
-67
-67
-67
-68
-67
-67
-67
-68
-68
-67
-67
-67
-68
-68
-68
-68
-68
-68
-68
-68
-68
-68
-68
-69
-69
-69
-69
-69
-69
-69
-69
-69
-69
-69
-69
-68
-68
-68
-68
-68
-68
-68
-68
-67
-67
-67
-67
-66
-66
-66
-66
-66
-66
-66
-66
-65
-65
-65
-66
-66
-66
-65
-65
-65
-65
-65
-65
-65
-66
-66
-66
-66
-66
-65
-66
-66
-66
-66
-66
-66
-65
-66
-66
-66
-66
-66
-66
-66
-66
-66
-66
-66
-66
-66
-66
-66
-66
-66
-66
-66
-66
-66
-66
-66
-65
-65
-65
-65
-65
-65
-65
-65
-65
-65
-65
-65
-65
-65
-65
-66
-66
-66
-66
-66
-67
-67
-67
-68
-69
-69
-69
-71
-71
-72
-73
-73
-75
-75
-77
-78
-80
-80
-82
-82
-84
-84
-85
-85
-85
-86
-85
-84
-83
-81
-79
-77
-74
-71
-66
-63
-58
-52
-46
-40
-34
-26
-19
-11
-3
7
15
24
34
43
52
62
70
79
88
96
104
111
119
126
132
138
142
146
150
153
156
158
158
159
159
158
156
153
151
146
141
137
130
124
118
110
103
96
87
79
70
62
53
45
35
27
18
10
3
-5
-14
-20
-27
-33
-40
-46
-51
-56
-62
-66
-71
-75
-79
-82
-87
-89
-93
-96
-98
-101
-103
-105
-109
-110
-112
-114
-116
-118
-119
-119
-121
-122
-122
-123
-123
-123
-123
-121
-121
-120
-118
-117
-116
-113
-111
-110
-108
-105
-103
-101
-99
-97
-95
-93
-91
-89
-87
-86
-84
-83
-81
-80
-79
-77
-76
-75
-74
-72
-71
-71
-70
-68
-68
-67
-67
-65
-65
-64
-64
-63
-63
-62
-61
-61
-60
-61
-61
-60
-60
-60
-60
-59
-59
-59
-59
-59
-59
-59
-59
-59
-59
-59
-59
-58
-58
-58
-58
-58
-58
-58
-58
-58
-58
-57
-57
-57
-57
-57
-57
-56
-57
-57
-57
-57
-57
-57
-56
-57
-57
-57
-57
-57
-56
-56
-56
-56
-56
-56
-55
-54
-54
-54
-54
-53
-53
-53
-53
-53
-53
-52
-52
-52
-52
-52
-52
-51
-51
-51
-51
-51
-51
-51
-51
-51
-51
-51
-51
-51
-51
-51
-51
-50
-50
-49
-49
-49
-49
-49
-48
-48
-47
-47
-47
-47
-46
-45
-45
-45
-44
-44
-44
-44
-42
-42
-42
-42
-42
-42
-42
-41
-41
-41
-41
-41
-41
-41
-41
-40
-39
-39
-39
-39
-38
-38
-38
-36
-36
-36
-35
-34
-34
-33
-32
-31
-31
-30
-30
-29
-29
-28
-27
-27
-27
-26
-26
-25
-25
-25
-24
-24
-23
-23
-23
-21
-21
-20
-20
-20
-18
-18
-17
-16
-15
-15
-14
-14
-12
-12
-11
-11
-11
-10
-10
-9
-8
-7
-6
-5
-5
-4
-3
-3
-1
0
1
1
2
3
4
5
6
6
7
9
9
10
10
11
12
12
13
13
14
15
16
17
16
17
17
18
18
19
20
19
20
20
21
20
21
21
21
21
22
22
22
22
22
23
23
22
22
22
22
22
22
21
21
21
20
20
20
19
19
18
19
18
18
18
17
16
15
14
14
13
13
12
11
11
10
9
9
7
6
6
5
3
2
1
1
0
-1
-3
-4
-5
-6
-7
-8
-9
-10
-11
-12
-13
-14
-15
-15
-16
-18
-18
-18
-19
-20
-20
-21
-23
-23
-24
-24
-25
-26
-27
-28
-28
-29
-29
-30
-30
-31
-31
-32
-33
-33
-34
-34
-34
-36
-36
-36
-37
-38
-38
-38
-39
-40
-41
-41
-42
-42
-43
-44
-44
-44
-45
-45
-46
-46
-46
-47
-47
-48
-47
-47
-47
-48
-48
-48
-48
-48
-49
-49
-50
-50
-50
-50
-50
-50
-50
-50
-50
-50
-50
-50
-50
-51
-51
-51
-51
-51
-51
-52
-52
-53
-53
-53
-53
-54
-54
-54
-54
-54
-54
-55
-55
-55
-55
-55
-55
-56
-56
-56
-56
-55
-55
-55
-55
-55
-55
-55
-56
-56
-56
-56
-56
-56
-56
-56
-56
-57
-57
-57
-57
-57
-57
-57
-57
-58
-58
-58
-58
-58
-58
-57
-58
-58
-58
-58
-58
-58
-58
-59
-58
-58
-58
-58
-58
-58
-58
-58
-58
-58
-58
-58
-58
-58
-58
-57
-58
-58
-58
-58
-58
-58
-58
-58
-57
-57
-57
-57
-57
-57
-57
-57
-57
-57
-57
-56
-56
-56
-56
-55
-55
-55
-55
-55
-55
-55
-56
-56
-56
-56
-55
-55
-55
-55
-55
-55
-55
-55
-55
-55
-56
-55
-55
-55
-55
-55
-54
-54
-54
-54
-54
-54
-54
-54
-53
-53
-53
-53
-53
-53
-52
-52
-52
-52
-52
-52
-52
-52
-53
-53
-53
-53
-53
-53
-54
-54
-54
-54
-54
-55
-55
-55
-55
-55
-54
-54
-55
-55
-55
-55
-54
-54
-54
-54
-54
-54
-53
-53
-54
-54
-54
-53
-53
-53
-53
-53
-53
-53
-53
-53
-54
-54
-54
-54
-54
-54
-54
-55
-54
-54
-54
-54
-54
-53
-54
-54
-54
-54
-54
-54
-53
-54
-54
-54
-54
-54
-54
-54
-55
-55
-56
-56
-55
-55
-55
-55
-55
-55
-55
-56
-56
-56
-56
-56
-56
-56
-54
-54
-54
-54
-54
-54
-54
-53
-53
-53
-53
-53
-53
-53
-53
-53
-52
-52
-53
-53
-53
-53
-53
-53
-54
-54
-54
-54
-54
-54
-54
-55
-55
-55
-55
-55
-55
-55
-55
-55
-55
-55
-55
-54
-54
-54
-54
-54
-54
-54
-54
-54
-54
-54
-54
-54
-54
-54
-54
-54
-54
-54
-54
-54
-54
-54
-54
-54
-53
-53
-53
-53
-53
-53
-53
-53
-53
-53
-53
-53
-53
-53
-53
-53
-52
-52
-52
-52
-52
-52
-52
-52
-52
-52
-53
-53
-54
-54
-54
-54
-54
-55
-55
-55
-55
-55
-55
-54
-54
-55
-55
-55
-55
-54
-54
-54
-54
-54
-54
-54
-54
-54
-53
-53
-53
-53
-52
-52
-53
-53
-53
-53
-53
-53
-53
-53
-53
-54
-54
-54
-54
-54
-54
-54
-54
-54
-54
-54
-54
-54
-54
-54
-54
-54
-54
-53
-53
-53
-53
-53
-53
-53
-53
-53
-53
-53
-53
-53
-53
-53
-53
-53
-53
-53
-53
-53
-53
-53
-53
-53
-54
-54
-53
-53
-53
-53
-53
-53
-53
-53
-53
-53
-53
-53
-53
-53
-53
-53
-53
-53
-52
-52
-52
-52
-52
-52
-52
-52
-52
-52
-52
-52
-52
-52
-52
-51
-51
-51
-51
-51
-51
-51
-51
-51
-50
-50
-50
-50
-50
-50
-51
-51
-51
-50
-50
-50
-50
-50
-51
-51
-51
-51
-51
-51
-51
-51
-51
-51
-51
-51
-51
-51
-50
-50
-51
-50
-50
-50
-50
-50
-49
-49
-49
-49
-49
-49
-49
-49
-49
-49
-49
-49
-49
-49
-49
-49
-49
-49
-49
-49
-48
-49
-48
-48
-49
-48
-48
-47
-47
-47
-47
-46
-46
-46
-45
-45
-45
-45
-45
-46
-45
-45
-45
-45
-45
-46
-45
-45
-45
-45
-45
-45
-44
-45
-44
-43
-44
-43
-42
-42
-41
-41
-40
-40
-40
-39
-39
-39
-38
-38
-38
-38
-38
-38
-38
-38
-37
-37
-37
-37
-37
-37
-38
-38
-38
-37
-38
-38
-38
-38
-39
-39
-39
-40
-41
-41
-42
-42
-43
-44
-45
-45
-45
-46
-47
-48
-48
-49
-49
-51
-52
-52
-52
-53
-53
-53
-54
-54
-54
-54
-54
-54
-54
-55
-55
-55
-55
-55
-55
-54
-54
-54
-54
-54
-54
-54
-54
-53
-54
-54
-54
-54
-55
-55
-55
-55
-55
-55
-55
-55
-56
-56
-56
-56
-56
-56
-56
-56
-56
-56
-55
-55
-55
-55
-55
-55
-54
-54
-54
-54
-54
-54
-53
-53
-53
-54
-53
-53
-53
-53
-53
-53
-53
-53
-53
-53
-53
-53
-53
-53
-53
-53
-53
-53
-53
-53
-54
-54
-54
-54
-54
-54
-54
-54
-54
-54
-52
-52
-52
-52
-52
-52
-52
-52
-51
-51
-51
-51
-51
-51
-51
-51
-51
-51
-52
-52
-52
-52
-52
-52
-51
-51
-51
-51
-51
-51
-51
-51
-51
-51
-52
-52
-52
-52
-53
-53
-53
-54
-54
-56
-56
-56
-57
-59
-59
-60
-62
-63
-65
-66
-66
-68
-69
-69
-69
-70
-70
-69
-70
-68
-67
-66
-63
-62
-59
-55
-51
-46
-41
-36
-30
-22
-16
-8
1
9
19
28
38
48
58
68
78
88
98
108
117
126
135
143
151
158
164
171
176
180
183
186
188
189
190
190
188
187
184
182
178
173
167
161
155
148
140
132
124
115
107
97
89
79
70
61
52
43
34
25
16
8
0
-7
-14
-22
-28
-34
-40
-45
-50
-55
-59
-63
-67
-71
-74
-78
-81
-84
-87
-90
-92
-94
-97
-99
-102
-104
-106
-109
-110
-112
-114
-115
-116
-117
-118
-118
-119
-119
-118
-118
-116
-116
-114
-113
-111
-109
-106
-104
-101
-99
-96
-93
-90
-87
-84
-81
-79
-77
-74
-72
-70
-68
-66
-64
-62
-61
-59
-58
-56
-55
-55
-53
-52
-51
-50
-49
-48
-48
-47
-47
-46
-45
-44
-44
-44
-44
-45
-44
-44
-45
-44
-44
-45
-44
-44
-45
-45
-44
-44
-45
-45
-44
-44
-44
-45
-44
-44
-44
-44
-44
-44
-43
-43
-43
-43
-43
-43
-43
-43
-42
-42
-42
-42
-42
-42
-42
-42
-42
-42
-42
-42
-42
-41
-40
-40
-40
-40
-40
-40
-40
-40
-40
-40
-40
-40
-39
-39
-39
-39
-39
-39
-39
-39
-39
-39
-39
-39
-40
-39
-39
-39
-39
-38
-38
-38
-38
-37
-36
-36
-36
-36
-35
-35
-35
-34
-34
-34
-34
-33
-33
-34
-33
-33
-33
-32
-32
-32
-31
-31
-30
-30
-30
-29
-29
-29
-29
-28
-27
-27
-27
-27
-26
-26
-26
-25
-25
-25
-25
-25
-24
-24
-24
-24
-24
-23
-23
-23
-23
-21
-21
-21
-20
-20
-19
-18
-18
-18
-17
-16
-16
-15
-14
-14
-13
-12
-12
-11
-11
-9
-9
-9
-8
-8
-6
-6
-5
-5
-3
-3
-2
-2
-1
-1
0
0
2
2
3
4
4
5
6
6
7
8
9
10
10
11
12
13
14
15
16
17
18
19
20
20
21
21
22
23
24
25
26
26
26
28
28
29
30
30
31
31
32
33
32
33
33
34
34
35
35
35
36
35
35
36
36
36
37
37
38
38
38
38
38
39
39
39
40
40
40
40
40
40
40
40
39
39
39
38
37
37
36
36
34
34
33
33
32
30
30
29
28
27
27
26
25
24
23
22
21
20
19
19
18
17
16
15
14
13
12
11
10
8
7
7
5
4
2
1
0
-1
-2
-3
-4
-5
-6
-6
-7
-8
-10
-11
-11
-13
-13
-14
-15
-16
-17
-18
-19
-20
-20
-22
-22
-23
-24
-24
-26
-27
-27
-28
-29
-29
-30
-30
-31
-32
-32
-34
-34
-34
-35
-35
-35
-36
-36
-37
-37
-38
-38
-38
-38
-39
-39
-39
-40
-41
-41
-41
-42
-42
-42
-42
-43
-43
-43
-43
-44
-44
-44
-44
-44
-44
-45
-45
-45
-45
-45
-45
-45
-45
-45
-45
-46
-45
-45
-45
-46
-46
-46
-46
-47
-47
-47
-47
-48
-49
-49
-49
-49
-50
-50
-51
-51
-51
-51
-51
-52
-52
-52
-52
-52
-51
-51
-51
-51
-51
-51
-52
-51
-51
-51
-51
-50
-50
-49
-49
-49
-49
-49
-49
-49
-49
-49
-49
-50
-50
-50
-50
-50
-50
-50
-50
-50
-50
-50
-50
-50
-50
-50
-50
-50
-50
-50
-50
-50
-49
-50
-50
-50
-49
-49
-49
-49
-49
-48
-48
-48
-47
-47
-47
-48
-48
-48
-47
-47
-47
-48
-48
-48
-48
-48
-48
-48
-48
-48
-48
-47
-47
-47
-47
-47
-46
-46
-46
-45
-45
-45
-45
-45
-45
-45
-45
-45
-45
-45
-45
-45
-45
-45
-46
-46
-46
-46
-46
-46
-46
-46
-47
-47
-47
-47
-47
-47
-47
-48
-48
-48
-48
-48
-49
-49
-49
-50
-50
-50
-50
-51
-51
-50
-50
-50
-50
-50
-51
-51
-50
-50
-50
-50
-50
-50
-50
-49
-49
-49
-49
-49
-49
-49
-49
-49
-49
-50
-50
-51
-51
-51
-51
-51
-51
-51
-52
-52
-52
-52
-52
-52
-52
-52
-52
-52
-52
-52
-52
-52
-52
-52
-52
-53
-53
-53
-53
-53
-53
-53
-53
-53
-53
-53
-53
-53
-53
-53
-54
-54
-54
-53
-53
-53
-52
-52
-52
-52
-52
-52
-52
-52
-52
-51
-51
-51
-51
-51
-51
-51
-51
-51
-51
-51
-52
-52
-52
-52
-52
-51
-51
-51
-51
-51
-51
-51
-51
-51
-51
-52
-52
-52
-52
-52
-52
-53
-53
-53
-53
-53
-53
-54
-54
-54
-54
-54
-54
-54
-54
-54
-53
-53
-53
-53
-53
-53
-53
-53
-53
-54
-54
-54
-54
-54
-55
-54
-54
-54
-54
-55
-55
-55
-55
-55
-55
-55
-54
-54
-54
-54
-54
-54
-53
-53
-53
-53
-53
-53
-53
-53
-52
-52
-53
-53
-53
-53
-53
-53
-53
-53
-53
-53
-53
-53
-53
-53
-53
-53
-53
-53
-53
-53
-53
-53
-53
-53
-53
-53
-53
-53
-53
-53
-53
-53
-52
-52
-52
-52
-52
-52
-52
-52
-52
-52
-52
-52
-52
-52
-52
-52
-52
-52
-52
-52
-52
-52
-52
-52
-52
-52
-52
-52
-52
-52
-52
-52
-52
-52
-52
-53
-53
-53
-53
-53
-53
-52
-52
-52
-52
-52
-52
-52
-52
-51
-51
-51
-51
-51
-50
-50
-50
-50
-50
-50
-50
-51
-51
-51
-51
-51
-51
-52
-52
-52
-52
-52
-52
-52
-51
-51
-51
-51
-51
-51
-51
-51
-51
-52
-52
-52
-51
-51
-51
-51
-51
-51
-51
-52
-52
-52
-52
-52
-52
-51
-51
-51
-51
-51
-51
-52
-51
-51
-51
-51
-51
-51
-51
-51
-50
-50
-50
-50
-50
-50
-50
-49
-49
-49
-48
-48
-48
-48
-47
-47
-47
-47
-47
-47
-47
-46
-47
-47
-47
-47
-47
-47
-46
-47
-46
-46
-46
-46
-45
-46
-46
-45
-46
-45
-45
-44
-44
-43
-44
-44
-43
-43
-44
-43
-43
-43
-44
-44
-43
-43
-43
-43
-43
-42
-43
-42
-41
-42
-41
-41
-41
-40
-40
-39
-39
-38
-38
-38
-38
-37
-37
-37
-36
-36
-35
-35
-35
-35
-35
-34
-34
-34
-34
-33
-34
-33
-33
-32
-33
-33
-33
-33
-33
-33
-33
-33
-34
-35
-35
-35
-36
-36
-36
-36
-37
-37
-38
-38
-38
-39
-39
-39
-40
-40
-40
-41
-41
-42
-41
-42
-42
-42
-43
-44
-44
-44
-44
-44
-45
-45
-45
-46
-46
-46
-47
-47
-47
-47
-48
-48
-49
-49
-49
-50
-50
-51
-51
-51
-50
-50
-51
-51
-51
-51
-51
-51
-51
-49
-49
-49
-49
-49
-48
-48
-48
-48
-47
-47
-47
-47
-47
-47
-47
-47
-47
-46
-46
-46
-46
-46
-46
-46
-46
-46
-46
-46
-46
-45
-45
-45
-45
-45
-46
-46
-45
-46
-46
-46
-45
-46
-46
-46
-47
-47
-47
-48
-48
-48
-48
-48
-48
-48
-48
-48
-48
-48
-48
-48
-47
-47
-47
-47
-47
-46
-46
-46
-45
-45
-45
-45
-45
-45
-44
-44
-44
-44
-44
-44
-44
-44
-44
-44
-43
-43
-43
-44
-44
-44
-44
-44
-45
-45
-45
-45
-46
-46
-46
-46
-47
-48
-49
-49
-50
-51
-52
-52
-54
-55
-55
-57
-57
-58
-59
-59
-60
-61
-61
-60
-61
-60
-60
-58
-57
-55
-52
-50
-46
-43
-39
-34
-28
-22
-15
-9
0
8
16
25
34
45
54
64
74
84
93
103
113
122
131
140
148
155
163
169
175
180
184
188
191
193
195
195
196
195
193
191
189
185
181
177
171
165
159
151
144
136
128
119
110
101
92
83
74
66
56
47
39
30
22
15
7
0
-7
-12
-19
-24
-29
-34
-38
-41
-44
-48
-51
-55
-57
-60
-62
-65
-67
-69
-72
-74
-77
-78
-81
-83
-86
-87
-89
-91
-92
-94
-95
-96
-97
-97
-97
-98
-98
-97
-96
-95
-94
-93
-91
-90
-88
-86
-83
-81
-79
-77
-75
-72
-70
-68
-66
-64
-61
-60
-58
-56
-55
-53
-51
-50
-49
-47
-46
-45
-44
-43
-42
-41
-40
-39
-39
-39
-38
-36
-36
-36
-35
-35
-34
-34
-33
-34
-33
-33
-33
-34
-34
-34
-34
-33
-34
-34
-34
-34
-34
-34
-34
-34
-34
-33
-33
-33
-33
-33
-33
-32
-32
-32
-32
-31
-31
-30
-30
-30
-30
-30
-30
-30
-30
-29
-29
-29
-29
-29
-29
-29
-29
-29
-29
-29
-29
-29
-29
-29
-29
-29
-29
-29
-29
-29
-29
-28
-28
-28
-28
-28
-28
-28
-27
-27
-27
-26
-26
-26
-25
-25
-24
-24
-24
-24
-23
-23
-23
-22
-22
-22
-22
-22
-22
-22
-22
-21
-21
-20
-20
-20
-20
-20
-20
-18
-18
-18
-18
-18
-17
-16
-16
-15
-15
-15
-14
-14
-14
-14
-13
-13
-13
-13
-12
-12
-12
-12
-12
-11
-11
-10
-10
-10
-9
-9
-9
-9
-7
-7
-7
-7
-6
-5
-4
-4
-4
-3
-3
-2
-1
-1
-1
0
1
2
2
3
4
5
5
6
7
8
8
9
10
10
12
12
13
14
14
15
16
16
16
18
18
19
19
20
21
21
22
23
23
25
26
26
27
28
29
30
31
31
32
33
34
35
35
36
37
38
39
39
40
41
42
42
42
43
43
45
45
45
46
46
47
47
47
48
48
49
48
48
49
49
49
50
50
50
51
51
51
51
51
51
51
52
52
52
51
50
50
50
50
49
49
50
49
49
48
48
47
47
46
46
45
44
44
44
43
42
41
41
40
39
38
37
36
35
34
33
32
31
30
30
29
29
27
26
25
24
23
22
21
20
19
18
17
16
15
14
13
12
11
10
9
9
7
6
6
5
4
3
3
2
0
-1
-1
-2
-3
-3
-4
-5
-5
-6
-6
-8
-8
-9
-9
-10
-10
-10
-11
-11
-11
-13
-13
-13
-14
-14
-15
-15
-16
-16
-17
-18
-18
-18
-19
-20
-20
-20
-20
-22
-22
-22
-22
-23
-23
-23
-24
-24
-24
-24
-24
-25
-25
-26
-26
-26
-27
-27
-27
-28
-28
-28
-29
-28
-28
-29
-29
-29
-29
-29
-29
-29
-30
-30
-30
-30
-30
-30
-31
-31
-31
-31
-31
-32
-32
-32
-32
-32
-32
-32
-33
-33
-33
-33
-33
-33
-33
-33
-33
-33
-33
-33
-32
-32
-32
-32
-32
-32
-32
-32
-31
-31
-31
-31
-31
-31
-31
-31
-31
-30
-30
-30
-30
-30
-30
-30
-30
-29
-29
-29
-29
-29
-28
-28
-28
-28
-27
-27
-27
-27
-27
-27
-27
-27
-27
-27
-27
-27
-27
-27
-27
-27
-27
-27
-27
-27
-27
-27
-27
-27
-27
-27
-27
-26
-26
-26
-26
-26
-26
-26
-26
-25
-25
-25
-25
-26
-26
-26
-26
-26
-26
-26
-26
-25
-25
-26
-26
-26
-26
-26
-26
-26
-26
-26
-26
-26
-26
-24
-24
-24
-24
-25
-25
-25
-24
-24
-24
-24
-24
-24
-24
-24
-24
-24
-24
-23
-23
-24
-24
-24
-24
-24
-24
-24
-25
-25
-24
-25
-25
-25
-25
-26
-26
-26
-27
-27
-27
-27
-27
-27
-27
-27
-27
-27
-27
-26
-26
-26
-26
-26
-25
-25
-25
-25
-25
-25
-25
-25
-26
-26
-26
-26
-26
-26
-27
-27
-27
-27
-27
-27
-27
-27
-26
-26
-26
-26
-26
-26
-25
-25
-25
-25
-25
-24
-25
-25
-25
-25
-25
-25
-25
-24
-24
-24
-24
-24
-24
-24
-24
-24
-24
-24
-25
-25
-25
-25
-25
-26
-26
-26
-26
-26
-26
-27
-27
-27
-27
-27
-27
-27
-27
-27
-27
-27
-27
-27
-27
-26
-26
-26
-26
-26
-25
-25
-25
-25
-24
-24
-24
-24
-25
-25
-24
-24
-24
-24
-24
-24
-24
-24
-24
-24
-24
-24
-24
-24
-25
-25
-25
-25
-25
-25
-25
-25
-25
-25
-24
-24
-24
-24
-24
-24
-24
-24
-24
-23
-23
-23
-23
-23
-23
-23
-23
-24
-24
-24
-24
-25
-25
-25
-25
-25
-26
-26
-26
-26
-26
-27
-27
-26
-26
-26
-26
-26
-26
-26
-26
-25
-25
-25
-25
-25
-25
-25
-25
-25
-25
-25
-25
-25
-25
-25
-25
-25
-25
-25
-24
-24
-24
-24
-24
-23
-23
-23
-23
-23
-23
-23
-23
-23
-23
-23
-23
-23
-23
-23
-23
-23
-23
-23
-23
-23
-23
-23
-23
-23
-23
-22
-23
-23
-23
-23
-23
-23
-23
-23
-23
-23
-23
-23
-23
-23
-22
-22
-22
-22
-22
-22
-22
-22
-22
-22
-21
-21
-21
-21
-21
-21
-21
-22
-22
-22
-22
-23
-23
-23
-23
-25
-25
-25
-25
-25
-26
-26
-26
-25
-25
-24
-24
-24
-24
-24
-24
-24
-24
-24
-24
-22
-22
-22
-22
-22
-22
-22
-22
-22
-22
-22
-22
-22
-22
-22
-22
-22
-22
-22
-22
-23
-22
-22
-22
-23
-22
-22
-23
-22
-22
-22
-22
-21
-20
-20
-20
-20
-19
-20
-19
-18
-19
-18
-18
-18
-18
-17
-17
-18
-17
-17
-17
-16
-17
-17
-16
-17
-17
-17
-17
-17
-17
-18
-17
-17
-17
-16
-16
-16
-16
-15
-16
-15
-14
-14
-14
-13
-13
-13
-12
-11
-10
-10
-9
-9
-8
-8
-7
-7
-7
-6
-6
-6
-6
-6
-6
-5
-6
-6
-6
-6
-5
-5
-6
-5
-6
-7
-7
-8
-8
-9
-9
-10
-10
-11
-12
-12
-13
-13
-13
-14
-14
-15
-15
-16
-16
-16
-17
-17
-17
-18
-18
-18
-18
-19
-19
-19
-20
-20
-20
-20
-21
-21
-21
-21
-22
-22
-22
-22
-22
-21
-21
-22
-22
-22
-22
-22
-22
-22
-21
-21
-22
-22
-22
-22
-22
-22
-22
-22
-22
-23
-23
-22
-22
-23
-23
-22
-22
-22
-22
-22
-21
-21
-21
-21
-20
-20
-20
-21
-21
-21
-21
-20
-20
-20
-20
-20
-20
-20
-20
-20
-20
-20
-21
-21
-21
-21
-21
-21
-21
-21
-21
-21
-21
-20
-20
-19
-19
-19
-19
-19
-19
-18
-18
-18
-19
-19
-19
-18
-18
-18
-18
-17
-17
-18
-17
-17
-17
-17
-17
-18
-17
-17
-17
-17
-17
-17
-17
-17
-18
-18
-18
-18
-18
-17
-18
-18
-18
-18
-18
-18
-18
-19
-19
-19
-19
-19
-21
-21
-22
-22
-23
-24
-25
-26
-26
-28
-29
-30
-30
-30
-30
-31
-32
-32
-32
-32
-31
-31
-31
-30
-28
-26
-23
-20
-17
-13
-9
-4
1
6
12
20
27
35
43
52
61
70
80
89
99
109
118
128
138
147
155
164
172
180
186
193
199
204
209
212
216
218
219
220
220
219
218
217
213
210
206
200
194
188
181
173
166
157
149
140
131
122
113
104
95
86
77
69
60
51
44
36
29
21
15
9
2
-3
-9
-13
-17
-21
-25
-29
-32
-36
-39
-42
-45
-47
-50
-52
-54
-56
-58
-59
-62
-64
-65
-66
-68
-68
-70
-71
-72
-72
-73
-73
-73
-72
-72
-71
-71
-70
-68
-66
-64
-63
-61
-59
-56
-54
-52
-50
-48
-45
-43
-41
-39
-37
-35
-34
-32
-30
-28
-28
-27
-25
-24
-22
-22
-21
-19
-19
-18
-18
-16
-16
-15
-14
-14
-14
-13
-12
-12
-12
-11
-11
-11
-10
-10
-10
-9
-9
-9
-9
-9
-8
-8
-8
-8
-8
-8
-8
-8
-7
-7
-7
-7
-7
-6
-6
-6
-6
-6
-6
-5
-5
-5
-5
-5
-5
-5
-5
-5
-5
-5
-6
-6
-6
-6
-6
-5
-6
-6
-6
-6
-6
-6
-6
-6
-6
-6
-6
-6
-5
-5
-5
-5
-4
-4
-3
-2
-2
-2
-1
-1
-1
1
1
1
1
1
2
2
2
2
3
2
2
2
3
3
3
3
3
3
3
4
4
4
4
4
4
4
4
4
5
5
5
6
6
6
6
7
7
7
8
8
8
8
8
8
10
10
10
11
11
11
11
13
13
13
13
14
14
15
15
16
17
17
18
18
18
19
19
20
20
21
21
22
23
23
24
24
24
26
26
27
27
28
28
29
30
30
31
31
32
33
33
34
35
35
36
36
37
38
38
39
40
40
41
42
42
43
44
45
46
46
47
48
49
50
51
51
52
53
54
55
56
56
57
58
59
59
60
61
61
62
63
64
64
66
66
66
67
67
69
69
70
70
71
71
71
72
72
73
73
73
74
74
74
73
74
74
74
74
74
74
74
74
74
74
74
74
74
74
74
73
73
73
72
72
71
71
70
70
69
68
68
67
66
66
65
64
64
63
62
61
60
60
59
58
57
56
55
54
53
52
52
51
50
49
48
47
46
45
43
42
41
40
39
38
36
35
34
33
32
31
30
29
28
27
26
25
24
23
22
22
21
20
19
19
18
17
17
16
15
14
13
13
13
11
11
10
10
9
8
8
8
6
6
6
5
5
4
3
3
3
2
2
2
2
1
1
0
0
0
0
-1
-1
-2
-2
-2
-2
-2
-3
-3
-3
-4
-4
-4
-4
-5
-5
-6
-6
-6
-6
-6
-8
-8
-8
-8
-9
-9
-9
-9
-10
-10
-10
-10
-10
-10
-10
-11
-12
-12
-12
-12
-12
-14
-14
-14
-14
-14
-14
-15
-15
-16
-16
-16
-16
-16
-16
-16
-17
-16
-16
-16
-16
-16
-15
-15
-15
-15
-14
-15
-15
-15
-14
-14
-14
-14
-14
-14
-14
-14
-14
-14
-14
-14
-14
-14
-14
-14
-13
-13
-13
-13
-13
-13
-13
-13
-13
-13
-13
-13
-13
-13
-13
-13
-13
-13
-13
-13
-13
-13
-13
-14
-14
-14
-14
-13
-13
-14
-14
-14
-13
-13
-13
-13
-13
-13
-13
-13
-13
-13
-13
-13
-13
-13
-13
-13
-12
-12
-12
-12
-12
-12
-11
-11
-11
-11
-11
-10
-10
-9
-9
-9
-8
-8
-8
-8
-7
-7
-8
-8
-8
-8
-8
-7
-7
-7
-7
-7
-7
-7
-7
-7
-7
-7
-7
-7
-7
-7
-7
-7
-7
-7
-7
-7
-7
-7
-7
-7
-7
-6
-6
-6
-6
-7
-7
-7
-7
-7
-7
-7
-7
-7
-7
-7
-7
-7
-7
-7
-7
-7
-7
-8
-8
-7
-7
-7
-7
-7
-6
-6
-6
-7
-7
-7
-6
-6
-7
-7
-7
-7
-7
-7
-7
-7
-7
-7
-7
-7
-7
-8
-8
-8
-8
-8
-8
-8
-8
-8
-8
-8
-9
-8
-9
-9
-9
-9
-8
-8
-8
-8
-8
-8
-8
-8
-8
-7
-7
-7
-7
-7
-7
-7
-7
-7
-7
-7
-7
-7
-7
-8
-8
-8
-8
-8
-8
-8
-8
-8
-7
-7
-7
-8
-8
-8
-8
-8
-8
-8
-7
-7
-8
-8
-8
-8
-8
-9
-9
-9
-9
-9
-9
-10
-10
-9
-9
-9
-9
-9
-9
-10
-10
-11
-10
-10
-10
-10
-10
-10
-10
-10
-10
-10
-11
-11
-11
-11
-11
-11
-11
-11
-11
-11
-10
-10
-10
-10
-10
-10
-10
-10
-10
-10
-10
-10
-10
-10
-10
-10
-10
-10
-9
-10
-10
-10
-10
-10
-11
-11
-11
-11
-12
-12
-12
-11
-11
-11
-11
-11
-11
-11
-11
-11
-11
-11
-11
-11
-11
-11
-11
-10
-10
-10
-11
-11
-11
-11
-11
-11
-11
-11
-11
-11
-11
-11
-11
-11
-11
-11
-11
-10
-11
-11
-11
-11
-11
-11
-11
-11
-11
-11
-11
-11
-11
-12
-12
-12
-12
-12
-12
-12
-12
-12
-12
-13
-13
-14
-14
-14
-14
-14
-14
-13
-13
-13
-12
-12
-12
-12
-12
-12
-10
-10
-10
-10
-10
-10
-10
-9
-9
-9
-9
-9
-9
-9
-9
-9
-10
-10
-10
-10
-10
-10
-10
-11
-11
-11
-11
-11
-11
-11
-11
-11
-11
-12
-12
-12
-12
-12
-11
-12
-12
-12
-12
-12
-12
-12
-13
-13
-13
-13
-13
-13
-13
-13
-13
-12
-12
-12
-13
-12
-12
-12
-12
-11
-11
-11
-10
-10
-9
-10
-9
-9
-8
-8
-8
-8
-7
-7
-6
-7
-7
-6
-6
-6
-5
-6
-6
-6
-6
-5
-6
-6
-5
-6
-6
-6
-5
-6
-5
-5
-5
-5
-5
-4
-3
-3
-2
-2
-1
-2
-2
-1
-1
-1
-1
-1
-1
0
0
0
0
0
0
0
1
1
1
1
1
2
2
2
2
2
2
2
2
2
2
2
2
2
1
1
1
0
0
-1
-1
-2
-3
-4
-5
-6
-6
-7
-7
-8
-9
-10
-11
-11
-12
-12
-13
-14
-14
-14
-15
-15
-15
-15
-15
-15
-15
-15
-15
-15
-15
-15
-15
-15
-14
-15
-15
-15
-15
-15
-15
-15
-15
-14
-15
-15
-15
-15
-16
-16
-16
-16
-16
-16
-16
-17
-16
-16
-16
-17
-17
-17
-16
-17
-17
-17
-17
-17
-17
-17
-17
-18
-18
-18
-17
-17
-18
-18
-18
-17
-18
-18
-18
-18
-17
-17
-17
-18
-18
-18
-18
-18
-17
-17
-17
-17
-17
-17
-17
-17
-16
-16
-17
-17
-17
-17
-17
-17
-17
-17
-17
-17
-17
-18
-18
-17
-17
-17
-18
-18
-17
-17
-18
-17
-17
-17
-17
-17
-17
-16
-16
-16
-16
-16
-16
-16
-16
-16
-16
-16
-16
-16
-15
-15
-15
-17
-17
-17
-17
-18
-19
-20
-20
-21
-22
-23
-24
-25
-26
-27
-29
-30
-30
-32
-33
-33
-34
-35
-35
-34
-34
-34
-33
-32
-30
-28
-26
-22
-19
-14
-10
-5
1
7
13
20
28
37
45
54
63
72
82
92
102
112
122
132
141
152
160
169
177
185
192
199
205
210
214
218
221
223
224
224
224
224
222
220
217
213
208
203
198
191
185
177
169
161
152
144
135
126
117
108
98
89
80
71
62
53
45
37
29
22
14
8
2
-5
-10
-15
-20
-24
-28
-33
-36
-40
-44
-46
-50
-52
-55
-59
-61
-63
-65
-68
-70
-72
-74
-76
-77
-79
-80
-81
-82
-82
-83
-84
-83
-83
-82
-81
-80
-79
-77
-75
-74
-71
-69
-67
-65
-62
-59
-57
-55
-52
-50
-47
-44
-43
-41
-38
-36
-34
-33
-31
-29
-27
-26
-24
-23
-22
-20
-20
-18
-18
-17
-16
-16
-14
-14
-14
-13
-13
-13
-12
-12
-11
-12
-11
-11
-11
-11
-11
-11
-11
-11
-10
-10
-10
-11
-11
-11
-10
-10
-10
-10
-10
-10
-10
-10
-10
-10
-10
-9
-9
-9
-10
-10
-9
-9
-9
-9
-9
-8
-8
-8
-8
-8
-8
-8
-7
-7
-7
-7
-7
-7
-7
-7
-7
-7
-7
-7
-7
-7
-7
-7
-6
-6
-6
-6
-6
-6
-6
-6
-6
-5
-5
-5
-5
-5
-5
-4
-4
-4
-3
-2
-2
-2
-1
-1
-1
-1
0
0
0
0
1
1
1
1
2
2
2
2
2
2
2
3
3
3
3
3
4
4
4
5
5
5
6
6
6
6
6
7
7
8
8
9
9
9
9
10
10
10
10
10
11
11
11
12
13
13
13
14
14
15
15
16
16
18
18
18
19
20
20
21
22
23
23
25
25
25
27
27
28
28
30
30
31
32
33
33
34
36
36
37
37
38
39
39
40
41
41
43
44
44
45
46
47
48
49
50
51
51
53
53
54
54
55
57
58
58
59
59
60
61
60
61
62
62
63
64
64
65
65
66
67
67
68
68
69
69
70
70
71
72
72
73
73
73
74
73
74
74
74
75
74
74
74
73
74
74
74
73
73
72
72
72
72
72
71
71
70
70
69
69
68
67
67
66
65
64
63
64
63
62
61
60
59
58
58
57
56
55
54
53
52
51
50
49
48
47
46
45
44
42
41
40
39
38
37
36
35
34
33
32
30
29
28
26
25
24
23
21
20
19
18
17
17
16
15
14
14
13
12
12
11
10
10
8
8
7
7
6
6
6
4
4
3
3
1
1
1
-1
-1
-1
-2
-2
-3
-3
-4
-5
-6
-6
-7
-7
-8
-8
-7
-8
-8
-8
-8
-9
-9
-10
-10
-10
-10
-10
-10
-10
-11
-11
-11
-11
-13
-13
-13
-13
-13
-14
-15
-15
-15
-15
-16
-16
-16
-16
-16
-16
-17
-17
-17
-17
-17
-17
-18
-18
-18
-18
-18
-19
-19
-19
-19
-20
-20
-20
-20
-20
-20
-21
-21
-21
-21
-20
-20
-20
-20
-20
-20
-20
-20
-20
-20
-20
-21
-21
-21
-21
-21
-20
-20
-20
-20
-20
-21
-21
-21
-21
-21
-21
-21
-21
-21
-21
-21
-21
-21
-21
-21
-22
-22
-22
-22
-22
-22
-22
-22
-22
-22
-22
-22
-22
-22
-20
-20
-20
-20
-19
-19
-19
-17
-17
-17
-17
-17
-16
-16
-16
-16
-16
-16
-16
-16
-16
-16
-17
-16
-16
-16
-16
-16
-17
-17
-17
-17
-17
-16
-16
-16
-16
-16
-16
-16
-15
-15
-15
-15
-15
-15
-14
-13
-13
-14
-14
-14
-14
-14
-14
-15
-15
-14
-14
-14
-14
-15
-15
-14
-14
-14
-15
-15
-15
-15
-15
-15
-15
-15
-15
-15
-16
-16
-16
-16
-16
-16
-16
-16
-16
-16
-16
-16
-16
-16
-15
-15
-15
-15
-14
-14
-14
-14
-14
-14
-14
-14
-14
-14
-15
-15
-15
-15
-14
-15
-15
-15
-15
-15
-16
-16
-16
-16
-16
-16
-16
-16
-16
-16
-16
-16
-16
-16
-16
-16
-17
-17
-17
-16
-16
-16
-16
-16
-17
-17
-17
-17
-17
-17
-17
-17
-17
-17
-18
-18
-18
-18
-18
-18
-18
-18
-18
-18
-18
-18
-18
-18
-17
-17
-18
-18
-18
-18
-18
-18
-18
-18
-18
-18
-17
-17
-18
-18
-18
-17
-17
-18
-18
-17
-17
-17
-18
-18
-18
-18
-18
-18
-18
-18
-18
-17
-17
-17
-17
-17
-17
-17
-18
-17
-17
-17
-17
-17
-17
-17
-17
-17
-18
-18
-18
-18
-18
-18
-18
-19
-19
-19
-19
-19
-19
-19
-18
-18
-18
-18
-18
-18
-18
-18
-19
-19
-19
-19
-19
-19
-19
-19
-19
-19
-19
-19
-19
-19
-19
-20
-20
-20
-20
-20
-20
-20
-20
-20
-20
-20
-19
-19
-19
-19
-19
-19
-18
-18
-18
-18
-19
-19
-18
-18
-17
-17
-17
-17
-17
-17
-17
-19
-19
-19
-19
-19
-19
-19
-19
-19
-19
-19
-19
-19
-19
-19
-19
-19
-19
-19
-19
-19
-19
-19
-18
-18
-18
-18
-17
-17
-17
-17
-17
-17
-17
-17
-17
-17
-17
-17
-18
-17
-17
-17
-18
-18
-18
-19
-18
-18
-18
-19
-19
-19
-19
-19
-19
-20
-20
-20
-20
-20
-20
-20
-20
-20
-20
-20
-20
-20
-20
-21
-21
-21
-20
-19
-19
-19
-19
-19
-18
-18
-18
-18
-18
-18
-18
-17
-17
-17
-17
-17
-18
-18
-18
-18
-18
-18
-18
-19
-19
-19
-19
-20
-20
-20
-20
-20
-20
-19
-19
-19
-19
-19
-18
-18
-18
-18
-18
-18
-18
-18
-17
-18
-17
-18
-17
-18
-17
-18
-17
-18
-17
-17
-17
-17
-17
-16
-16
-16
-16
-16
-15
-15
-15
-15
-16
-16
-15
-15
-15
-15
-15
-15
-15
-15
-14
-14
-14
-13
-13
-12
-12
-12
-11
-11
-11
-11
-10
-10
-10
-9
-9
-8
-8
-8
-8
-8
-8
-8
-7
-8
-7
-7
-7
-7
-7
-7
-7
-6
-6
-6
-7
-7
-6
-6
-7
-7
-6
-7
-7
-7
-8
-8
-8
-9
-9
-10
-10
-11
-12
-13
-13
-14
-15
-15
-16
-16
-17
-17
-17
-18
-19
-20
-20
-20
-21
-21
-21
-21
-22
-22
-22
-22
-22
-23
-23
-22
-22
-22
-22
-23
-23
-23
-22
-22
-22
-22
-22
-22
-21
-21
-21
-21
-21
-20
-20
-20
-20
-21
-20
-20
-20
-20
-20
-20
-20
-20
-21
-21
-21
-21
-21
-21
-21
-21
-21
-21
-21
-22
-22
-22
-22
-22
-22
-22
-22
-22
-22
-22
-22
-22
-23
-23
-22
-22
-23
-23
-23
-23
-23
-23
-22
-22
-22
-22
-23
-22
-21
-21
-21
-21
-21
-21
-20
-21
-21
-21
-21
-20
-20
-19
-19
-19
-19
-19
-19
-19
-19
-19
-19
-19
-19
-19
-19
-19
-19
-19
-19
-18
-18
-18
-18
-18
-18
-18
-18
-18
-18
-18
-18
-18
-19
-19
-19
-20
-20
-20
-21
-21
-23
-24
-24
-25
-27
-28
-29
-30
-32
-32
-33
-35
-36
-36
-37
-38
-39
-38
-39
-38
-38
-36
-35
-33
-31
-29
-25
-22
-17
-12
-7
-1
5
12
20
28
36
45
55
64
74
84
94
104
114
125
134
144
153
162
170
179
186
194
200
206
211
215
219
222
224
226
226
226
225
223
221
217
214
209
204
199
192
185
177
170
162
154
145
137
127
118
109
100
91
82
74
65
56
48
41
33
26
19
12
6
0
-6
-11
-15
-20
-24
-27
-31
-35
-38
-41
-44
-46
-49
-52
-54
-57
-60
-62
-64
-67
-69
-71
-73
-74
-76
-78
-78
-79
-80
-80
-80
-80
-79
-79
-78
-77
-76
-74
-72
-70
-67
-65
-63
-60
-59
-56
-53
-51
-48
-46
-44
-42
-40
-38
-36
-35
-33
-32
-30
-31
-30
-28
-27
-26
-25
-24
-23
-22
-22
-21
-20
-19
-19
-18
-17
-17
-16
-16
-15
-14
-14
-13
-13
-13
-12
-11
-11
-11
-9
-9
-9
-9
-9
-9
-8
-8
-8
-8
-8
-8
-8
-8
-8
-8
-8
-8
-8
-8
-8
-8
-9
-9
-9
-9
-9
-9
-8
-9
-9
-9
-9
-9
-9
-8
-8
-9
-8
-8
-8
-7
-7
-7
-7
-6
-6
-5
-5
-5
-5
-4
-4
-4
-3
-3
-3
-3
-3
-3
-2
-1
-1
-1
-1
-1
-1
-1
-1
-1
-1
-1
-1
-1
-1
-1
-1
-1
-1
-1
0
1
1
1
1
1
1
1
1
1
1
2
2
2
2
3
3
3
3
5
5
5
6
7
7
8
9
9
9
11
11
11
11
13
13
13
14
14
15
15
15
16
16
16
17
17
17
18
18
18
18
19
20
20
21
22
22
23
23
24
25
25
26
27
27
28
28
29
29
31
32
32
33
33
34
35
35
36
38
38
39
40
41
41
42
43
44
45
46
47
48
48
49
51
51
52
53
53
54
54
55
56
57
57
58
59
59
60
61
61
62
63
63
64
65
65
67
67
68
68
70
70
70
71
71
73
73
73
74
74
74
74
75
75
75
75
76
76
75
76
76
76
77
76
76
76
76
76
76
76
75
75
75
75
75
74
74
74
73
73
72
72
71
70
70
69
68
68
66
65
65
64
63
62
62
60
59
58
57
57
56
55
53
52
51
50
49
48
47
46
45
44
43
42
41
40
39
38
37
36
35
34
33
32
31
30
29
29
27
26
25
24
23
22
21
20
19
18
17
16
15
14
13
12
12
11
10
9
9
8
7
7
6
6
6
5
5
4
4
4
3
3
3
2
2
1
1
1
0
0
-1
-1
-1
-2
-2
-2
-3
-4
-4
-5
-5
-5
-6
-6
-6
-7
-7
-8
-8
-8
-8
-8
-10
-10
-10
-10
-10
-10
-10
-10
-10
-11
-11
-11
-11
-11
-11
-11
-11
-11
-11
-12
-12
-12
-12
-12
-12
-12
-12
-12
-12
-12
-12
-12
-12
-13
-13
-13
-13
-13
-13
-14
-14
-14
-14
-14
-14
-14
-14
-14
-14
-15
-15
-15
-15
-15
-15
-15
-15
-15
-15
-15
-14
-15
-15
-14
-15
-15
-15
-15
-15
-15
-15
-15
-16
-16
-16
-16
-16
-16
-16
-17
-17
-16
-16
-17
-16
-16
-16
-15
-15
-14
-13
-13
-13
-12
-12
-11
-11
-10
-10
-10
-9
-9
-9
-9
-9
-9
-9
-9
-9
-9
-9
-9
-9
-9
-9
-9
-9
-10
-10
-10
-10
-10
-10
-9
-10
-10
-10
-10
-10
-9
-8
-8
-8
-8
-8
-8
-8
-7
-7
-7
-7
-7
-7
-6
-6
-6
-6
-6
-6
-7
-7
-7
-7
-7
-7
-7
-7
-8
-8
-8
-8
-8
-9
-9
-9
-9
-10
-9
-9
-9
-9
-9
-9
-9
-9
-9
-9
-9
-9
-9
-9
-10
-10
-10
-10
-9
-9
-10
-10
-10
-9
-10
-10
-10
-9
-9
-9
-9
-9
-9
-9
-9
-9
-9
-9
-9
-9
-9
-8
-8
-8
-8
-8
-8
-8
-8
-8
-8
-8
-9
-9
-9
-9
-9
-9
-9
-9
-9
-10
-10
-10
-11
-11
-11
-11
-11
-12
-12
-12
-12
-12
-12
-12
-12
-12
-12
-12
-12
-12
-12
-12
-12
-11
-11
-11
-11
-11
-11
-11
-12
-12
-11
-11
-11
-11
-11
-11
-11
-12
-12
-12
-12
-12
-13
-13
-13
-14
-13
-13
-14
-14
-14
-15
-14
-15
-16
-16
-15
-16
-16
-16
-16
-17
-17
-17
-18
-18
-18
-18
-17
-17
-18
-18
-17
-17
-17
-17
-17
-16
-16
-16
-16
-16
-16
-16
-16
-17
-17
-16
-16
-16
-16
-16
-17
-17
-16
-16
-16
-16
-16
-16
-16
-16
-16
-16
-16
-15
-16
-16
-16
-16
-16
-16
-16
-16
-16
-16
-17
-17
-16
-16
-17
-17
-17
-17
-18
-18
-17
-17
-18
-18
-18
-18
-17
-17
-17
-17
-17
-17
-17
-16
-16
-17
-17
-16
-16
-16
-15
-15
-15
-15
-14
-14
-14
-14
-14
-14
-14
-14
-15
-14
-14
-15
-15
-15
-15
-15
-15
-16
-16
-16
-16
-16
-15
-15
-16
-15
-15
-15
-16
-16
-16
-16
-15
-15
-15
-14
-14
-14
-15
-15
-14
-14
-14
-14
-14
-14
-14
-14
-14
-14
-14
-15
-15
-15
-15
-14
-14
-15
-15
-15
-14
-15
-15
-15
-15
-15
-16
-16
-16
-16
-16
-16
-16
-16
-15
-15
-15
-15
-15
-15
-14
-14
-14
-15
-14
-14
-14
-13
-14
-13
-13
-14
-13
-14
-13
-13
-14
-13
-13
-14
-14
-14
-13
-14
-14
-14
-13
-14
-14
-14
-13
-13
-13
-13
-12
-13
-13
-12
-12
-12
-12
-12
-11
-11
-11
-11
-11
-11
-11
-11
-10
-11
-10
-11
-11
-10
-10
-11
-10
-10
-10
-9
-9
-9
-9
-9
-9
-9
-8
-8
-8
-8
-7
-8
-7
-7
-7
-7
-7
-7
-6
-6
-6
-5
-5
-5
-5
-5
-4
-4
-4
-4
-3
-3
-3
-2
-3
-3
-3
-2
-2
-3
-3
-3
-3
-3
-3
-4
-4
-6
-6
-7
-7
-8
-9
-9
-10
-11
-11
-12
-13
-13
-14
-14
-15
-15
-15
-15
-15
-16
-16
-16
-16
-16
-16
-15
-15
-16
-16
-16
-16
-16
-16
-16
-16
-16
-16
-16
-16
-16
-16
-16
-16
-16
-16
-16
-16
-17
-17
-17
-16
-16
-17
-17
-17
-17
-17
-17
-17
-17
-17
-17
-17
-17
-16
-16
-16
-16
-15
-16
-16
-16
-15
-15
-14
-14
-14
-14
-13
-13
-13
-13
-13
-13
-13
-13
-13
-13
-13
-13
-13
-13
-13
-12
-12
-12
-12
-12
-12
-12
-12
-12
-12
-13
-13
-13
-13
-13
-13
-13
-13
-13
-13
-13
-13
-13
-13
-13
-13
-13
-12
-12
-12
-12
-12
-11
-11
-11
-11
-10
-11
-11
-10
-10
-10
-10
-9
-10
-10
-10
-10
-10
-10
-10
-10
-11
-11
-11
-12
-12
-13
-13
-15
-15
-16
-17
-18
-19
-20
-21
-22
-24
-24
-26
-26
-27
-28
-28
-29
-28
-29
-28
-27
-26
-25
-23
-20
-18
-15
-11
-7
-3
4
9
16
22
29
37
45
53
62
71
81
90
100
109
119
128
137
147
155
164
171
179
186
193
198
204
208
212
216
218
219
221
221
220
219
217
215
212
207
203
198
191
185
178
171
163
155
146
138
128
120
110
101
92
84
75
67
58
50
43
36
29
22
16
11
5
0
-4
-8
-12
-16
-20
-22
-26
-29
-31
-33
-37
-39
-40
-42
-44
-46
-48
-51
-53
-55
-56
-58
-60
-60
-62
-63
-64
-66
-66
-66
-67
-66
-66
-65
-64
-63
-62
-60
-58
-56
-54
-52
-50
-49
-47
-44
-44
-41
-40
-37
-36
-34
-32
-31
-29
-27
-26
-24
-24
-22
-21
-20
-19
-18
-17
-16
-16
-14
-14
-14
-12
-12
-12
-11
-10
-10
-10
-9
-9
-9
-8
-8
-8
-8
-8
-8
-8
-7
-7
-7
-7
-7
-6
-6
-6
-6
-6
-6
-6
-6
-6
-5
-5
-4
-4
-4
-4
-4
-4
-3
-3
-3
-3
-3
-3
-2
-2
-2
-2
-2
-2
-3
-2
-2
-2
-2
-2
-2
-2
-2
-2
-2
-2
-2
-2
-2
-2
-2
-3
-3
-3
-3
-3
-2
-2
-2
-2
-2
-2
-2
-2
-1
-1
-1
-1
-1
-1
-1
1
1
1
1
1
1
1
2
2
2
2
2
2
3
3
3
3
3
3
4
4
4
4
4
4
5
5
5
5
6
6
6
7
7
7
8
9
10
10
10
10
11
11
12
13
13
13
13
14
15
15
16
16
16
17
17
17
19
19
19
19
20
20
20
21
21
22
23
23
24
24
25
26
26
26
28
28
29
30
30
32
32
33
33
35
35
36
37
37
38
39
40
40
41
42
42
44
44
45
46
46
47
47
48
49
50
50
51
51
52
53
54
54
55
56
56
58
58
59
60
61
61
62
62
64
65
65
66
66
67
67
68
68
69
69
70
69
69
70
70
69
70
70
69
69
70
70
70
69
69
70
70
70
70
71
71
71
71
71
71
71
71
71
70
71
71
70
70
69
69
68
68
67
65
65
64
63
62
61
60
59
58
57
56
54
54
53
52
50
49
48
47
46
45
43
42
41
40
39
39
38
37
36
35
34
34
33
32
31
31
30
29
28
28
27
26
25
24
23
22
21
21
20
19
17
17
16
15
14
13
12
11
11
9
9
7
7
7
6
5
5
5
3
3
3
2
1
1
1
1
0
-1
-1
-1
-2
-2
-2
-3
-4
-4
-4
-6
-6
-6
-6
-7
-7
-8
-8
-8
-9
-9
-9
-9
-9
-10
-10
-10
-10
-11
-11
-11
-12
-12
-12
-12
-12
-12
-12
-13
-13
-13
-13
-13
-14
-15
-15
-15
-14
-14
-15
-15
-15
-15
-16
-15
-15
-15
-15
-16
-16
-15
-15
-16
-16
-16
-16
-16
-17
-16
-16
-16
-16
-16
-16
-16
-17
-17
-17
-16
-16
-16
-16
-16
-16
-16
-16
-16
-16
-17
-17
-17
-16
-16
-16
-16
-16
-16
-16
-16
-16
-16
-16
-16
-16
-16
-17
-16
-16
-16
-16
-17
-17
-17
-17
-17
-17
-17
-17
-17
-18
-18
-18
-17
-17
-17
-17
-17
-17
-17
-17
-16
-16
-16
-16
-16
-15
-15
-15
-14
-14
-14
-14
-14
-14
-13
-13
-13
-12
-12
-12
-12
-12
-12
-12
-12
-12
-11
-11
-11
-11
-12
-11
-11
-11
-11
-11
-11
-11
-11
-10
-10
-10
-10
-10
-9
-8
-8
-8
-8
-8
-8
-8
-8
-8
-8
-8
-8
-8
-8
-9
-9
-9
-9
-9
-10
-10
-10
-10
-10
-10
-10
-10
-10
-10
-10
-10
-10
-10
-10
-10
-11
-11
-11
-12
-12
-11
-12
-12
-12
-12
-13
-12
-12
-12
-12
-12
-12
-11
-11
-11
-10
-10
-9
-9
-8
-8
-8
-8
-8
-8
-8
-8
-9
-8
-8
-8
-8
-9
-9
-9
-9
-9
-9
-9
-9
-9
-10
-10
