# Simple Text Format
# Sampling Rate (Hz):= 1200.00
# Resolution:= 12
# Labels:= ECG	III
# Age:=	26
# Gender:=	Masculino
-72
-73
-73
-72
-72
-72
-71
-71
-71
-70
-70
-70
-69
-69
-69
-69
-69
-70
-70
-70
-70
-71
-71
-71
-71
-72
-72
-72
-71
-71
-71
-71
-71
-71
-71
-71
-71
-71
-71
-71
-71
-71
-72
-71
-71
-71
-71
-71
-70
-70
-70
-70
-70
-70
-70
-70
-70
-70
-71
-71
-71
-71
-71
-71
-71
-71
-71
-70
-70
-70
-70
-70
-70
-70
-70
-70
-70
-71
-71
-71
-71
-71
-71
-71
-71
-71
-71
-70
-70
-70
-70
-70
-69
-70
-70
-70
-70
-71
-71
-71
-72
-72
-72
-73
-72
-72
-72
-72
-72
-72
-72
-71
-71
-71
-71
-70
-70
-71
-71
-71
-71
-71
-71
-71
-71
-72
-72
-72
-72
-72
-72
-72
-73
-73
-74
-74
-74
-75
-75
-75
-75
-76
-76
-76
-76
-76
-76
-76
-75
-75
-75
-75
-74
-74
-74
-74
-75
-75
-75
-75
-75
-76
-76
-76
-76
-76
-76
-76
-76
-76
-76
-76
-76
-77
-77
-78
-78
-79
-80
-80
-81
-81
-82
-82
-82
-82
-82
-82
-82
-82
-82
-82
-82
-82
-81
-81
-81
-81
-81
-81
-81
-81
-81
-81
-80
-80
-80
-80
-80
-80
-81
-81
-81
-81
-81
-82
-82
-83
-83
-83
-83
-84
-84
-84
-84
-83
-83
-82
-82
-81
-81
-80
-79
-79
-78
-78
-77
-77
-77
-77
-76
-76
-76
-76
-75
-75
-75
-74
-74
-73
-73
-73
-73
-72
-72
-72
-72
-73
-73
-72
-72
-72
-72
-72
-71
-71
-71
-70
-70
-69
-69
-69
-68
-68
-68
-67
-67
-67
-67
-67
-67
-67
-66
-66
-66
-65
-65
-64
-63
-63
-63
-62
-61
-61
-61
-61
-61
-61
-61
-60
-60
-60
-60
-60
-60
-59
-59
-59
-59
-59
-59
-58
-58
-58
-58
-58
-58
-58
-58
-58
-58
-59
-59
-59
-58
-58
-58
-58
-58
-58
-58
-57
-57
-57
-57
-57
-58
-58
-58
-58
-58
-59
-59
-59
-59
-59
-59
-59
-59
-59
-59
-59
-59
-60
-60
-60
-60
-61
-61
-61
-61
-61
-61
-61
-61
-61
-61
-60
-60
-59
-59
-58
-58
-58
-58
-57
-57
-57
-57
-57
-56
-57
-57
-56
-56
-56
-56
-55
-55
-55
-55
-55
-55
-55
-55
-55
-55
-56
-56
-56
-56
-56
-56
-56
-56
-56
-55
-55
-55
-55
-55
-54
-54
-54
-54
-54
-54
-55
-55
-55
-55
-56
-56
-56
-56
-56
-56
-55
-55
-55
-55
-55
-55
-55
-55
-55
-55
-55
-55
-55
-55
-56
-56
-56
-56
-56
-56
-55
-55
-55
-55
-55
-54
-54
-54
-54
-54
-54
-54
-54
-53
-54
-54
-54
-53
-53
-53
-53
-52
-52
-52
-52
-52
-52
-52
-52
-52
-52
-52
-52
-53
-53
-53
-53
-53
-53
-53
-53
-53
-53
-53
-52
-52
-52
-53
-53
-53
-53
-53
-54
-53
-54
-54
-54
-54
-54
-54
-53
-53
-53
-53
-53
-52
-52
-52
-53
-53
-53
-54
-54
-54
-54
-55
-55
-55
-55
-55
-55
-55
-55
-55
-54
-54
-54
-54
-54
-54
-54
-54
-54
-54
-54
-54
-54
-54
-54
-53
-53
-53
-53
-53
-53
-53
-53
-53
-53
-53
-53
-54
-54
-54
-54
-54
-54
-54
-54
-54
-54
-53
-53
-53
-53
-52
-52
-52
-52
-52
-52
-53
-53
-53
-53
-53
-53
-53
-53
-52
-52
-51
-51
-51
-51
-51
-51
-51
-51
-51
-51
-52
-52
-52
-52
-52
-52
-52
-52
-52
-52
-52
-52
-52
-52
-51
-51
-51
-52
-52
-52
-52
-52
-52
-52
-53
-52
-52
-52
-52
-52
-51
-51
-51
-51
-51
-51
-51
-51
-51
-52
-52
-52
-52
-52
-52
-52
-52
-52
-52
-52
-52
-52
-52
-51
-51
-51
-51
-52
-52
-52
-52
-52
-52
-52
-53
-52
-52
-52
-52
-51
-51
-51
-51
-50
-50
-50
-50
-50
-50
-50
-50
-50
-50
-50
-50
-50
-50
-50
-50
-50
-49
-49
-49
-49
-49
-49
-49
-49
-49
-50
-50
-50
-50
-50
-51
-51
-51
-51
-51
-51
-50
-50
-50
-50
-50
-50
-50
-50
-50
-50
-50
-50
-50
-50
-50
-50
-50
-50
-50
-49
-49
-49
-49
-49
-49
-50
-50
-50
-50
-51
-51
-51
-51
-51
-52
-52
-51
-51
-51
-50
-50
-50
-50
-49
-49
-48
-48
-48
-48
-48
-49
-49
-49
-49
-49
-49
-49
-49
-49
-49
-49
-49
-49
-48
-48
-48
-48
-48
-48
-49
-49
-49
-49
-49
-50
-50
-49
-49
-49
-49
-48
-48
-48
-48
-48
-48
-48
-48
-48
-48
-49
-49
-48
-49
-49
-49
-49
-48
-48
-48
-48
-48
-47
-47
-47
-47
-47
-47
-47
-47
-47
-47
-47
-47
-48
-48
-47
-47
-47
-47
-46
-46
-46
-46
-46
-46
-46
-46
-46
-46
-47
-46
-46
-46
-46
-46
-46
-46
-45
-45
-45
-44
-44
-44
-43
-43
-43
-43
-43
-44
-44
-44
-44
-44
-45
-45
-45
-45
-45
-44
-44
-44
-44
-43
-43
-43
-43
-43
-42
-43
-43
-43
-42
-43
-43
-42
-42
-42
-42
-42
-42
-43
-43
-43
-43
-44
-44
-45
-46
-46
-47
-48
-48
-49
-50
-50
-50
-51
-51
-51
-51
-51
-51
-51
-50
-50
-50
-50
-50
-50
-50
-49
-49
-49
-48
-48
-47
-47
-46
-45
-45
-44
-44
-44
-43
-43
-43
-43
-43
-43
-43
-43
-43
-44
-44
-44
-44
-44
-44
-44
-44
-44
-44
-44
-44
-44
-44
-44
-44
-45
-45
-45
-45
-45
-45
-45
-45
-45
-44
-44
-44
-43
-43
-43
-42
-42
-42
-42
-42
-42
-43
-42
-42
-42
-43
-42
-42
-42
-42
-41
-41
-41
-41
-41
-41
-41
-41
-41
-41
-42
-42
-42
-42
-43
-43
-43
-43
-44
-44
-43
-43
-43
-42
-42
-41
-40
-40
-40
-40
-40
-40
-40
-40
-40
-41
-41
-41
-42
-42
-42
-43
-43
-44
-44
-44
-44
-44
-43
-43
-41
-39
-37
-33
-28
-23
-17
-10
-3
4
12
21
30
39
48
57
64
70
75
78
81
82
82
81
79
75
70
64
57
48
40
30
20
10
0
-10
-20
-29
-38
-46
-54
-61
-66
-71
-75
-78
-81
-83
-84
-84
-84
-84
-83
-82
-80
-78
-76
-74
-72
-70
-68
-66
-64
-62
-60
-58
-57
-55
-54
-52
-51
-50
-49
-49
-48
-48
-47
-47
-47
-47
-48
-48
-48
-48
-48
-48
-48
-48
-48
-47
-47
-47
-46
-46
-46
-45
-45
-45
-45
-45
-45
-46
-46
-46
-46
-46
-46
-46
-46
-46
-46
-46
-46
-46
-46
-46
-46
-46
-46
-46
-46
-46
-46
-46
-46
-47
-47
-46
-46
-46
-46
-45
-45
-45
-45
-45
-45
-45
-45
-45
-45
-45
-45
-45
-45
-46
-46
-45
-45
-45
-45
-44
-44
-44
-44
-43
-43
-43
-43
-43
-43
-43
-43
-43
-43
-43
-43
-43
-43
-43
-43
-43
-43
-43
-43
-43
-43
-43
-44
-44
-44
-45
-45
-45
-46
-46
-46
-46
-46
-46
-46
-46
-46
-46
-46
-46
-46
-46
-45
-45
-46
-46
-46
-46
-46
-46
-46
-46
-46
-46
-46
-46
-46
-46
-46
-46
-46
-46
-47
-47
-47
-48
-48
-48
-48
-49
-49
-49
-49
-49
-49
-48
-48
-49
-48
-48
-48
-49
-49
-49
-49
-50
-50
-50
-51
-51
-51
-51
-51
-51
-51
-51
-51
-51
-51
-50
-51
-51
-51
-52
-52
-53
-53
-53
-53
-54
-54
-54
-54
-54
-54
-54
-54
-54
-54
-54
-54
-54
-54
-55
-55
-56
-56
-56
-57
-57
-58
-58
-58
-58
-59
-59
-59
-60
-60
-60
-60
-60
-60
-61
-61
-61
-61
-61
-61
-61
-61
-61
-60
-60
-60
-59
-59
-59
-59
-58
-58
-58
-58
-59
-59
-59
-59
-59
-59
-60
-60
-60
-59
-59
-59
-58
-58
-58
-57
-56
-56
-55
-55
-54
-54
-54
-53
-53
-52
-52
-52
-52
-51
-51
-51
-50
-50
-50
-50
-49
-49
-49
-49
-48
-48
-48
-48
-48
-47
-47
-47
-46
-46
-45
-44
-44
-43
-43
-42
-41
-41
-41
-41
-41
-40
-40
-40
-39
-39
-39
-38
-37
-36
-35
-34
-33
-33
-32
-31
-30
-29
-29
-28
-28
-28
-28
-28
-27
-28
-28
-28
-28
-28
-29
-29
-29
-29
-30
-30
-30
-30
-30
-31
-31
-31
-32
-32
-32
-32
-33
-33
-32
-32
-32
-32
-32
-32
-32
-32
-31
-31
-32
-32
-32
-32
-33
-33
-33
-33
-33
-33
-33
-33
-33
-33
-32
-32
-32
-32
-31
-31
-31
-31
-31
-31
-31
-31
-31
-31
-31
-31
-31
-31
-30
-30
-29
-29
-29
-29
-28
-28
-28
-27
-27
-26
-26
-26
-26
-27
-27
-27
-27
-27
-27
-26
-26
-26
-26
-26
-26
-27
-27
-27
-27
-28
-28
-28
-29
-29
-30
-30
-30
-31
-31
-31
-31
-32
-32
-32
-33
-33
-34
-34
-35
-35
-36
-36
-36
-36
-36
-36
-35
-34
-34
-33
-32
-31
-31
-30
-29
-29
-29
-28
-28
-28
-29
-29
-29
-29
-30
-30
-30
-30
-29
-29
-29
-29
-29
-28
-28
-28
-28
-28
-28
-28
-28
-28
-28
-28
-28
-28
-28
-28
-27
-27
-27
-27
-26
-26
-26
-26
-26
-26
-26
-26
-26
-26
-26
-26
-26
-26
-26
-26
-26
-26
-26
-26
-26
-26
-26
-26
-27
-27
-27
-28
-28
-29
-29
-29
-30
-30
-29
-29
-29
-29
-29
-29
-29
-29
-28
-28
-28
-28
-28
-28
-28
-28
-28
-28
-28
-28
-27
-27
-27
-27
-26
-27
-27
-27
-26
-26
-26
-27
-27
-27
-27
-28
-28
-28
-29
-29
-28
-28
-28
-27
-27
-27
-27
-26
-26
-26
-25
-25
-25
-25
-26
-26
-26
-26
-26
-26
-26
-26
-25
-25
-25
-25
-25
-25
-25
-25
-25
-25
-25
-26
-26
-26
-26
-27
-27
-27
-27
-28
-28
-28
-27
-27
-28
-28
-28
-28
-28
-28
-29
-29
-29
-29
-29
-30
-30
-30
-30
-29
-29
-29
-29
-29
-28
-28
-28
-27
-27
-27
-27
-27
-27
-27
-26
-26
-26
-26
-26
-26
-26
-25
-25
-25
-25
-25
-24
-24
-25
-25
-26
-26
-27
-28
-28
-29
-29
-29
-29
-30
-30
-29
-29
-29
-29
-29
-29
-29
-29
-29
-28
-29
-29
-28
-28
-28
-28
-28
-28
-28
-28
-27
-27
-27
-27
-27
-27
-27
-27
-27
-27
-28
-28
-28
-28
-28
-28
-28
-28
-28
-28
-28
-28
-28
-28
-27
-27
-27
-27
-27
-27
-27
-28
-28
-28
-28
-28
-28
-28
-28
-28
-27
-27
-27
-27
-27
-27
-27
-27
-27
-27
-27
-28
-28
-28
-28
-29
-29
-29
-29
-29
-29
-29
-29
-29
-29
-29
-28
-28
-28
-28
-29
-29
-29
-29
-29
-29
-29
-29
-28
-28
-28
-27
-27
-27
-26
-26
-26
-26
-26
-26
-26
-26
-26
-26
-27
-27
-27
-28
-28
-28
-28
-28
-28
-28
-28
-28
-28
-28
-28
-28
-28
-28
-28
-27
-27
-27
-27
-27
-26
-26
-25
-25
-25
-25
-25
-25
-25
-25
-26
-26
-26
-27
-27
-27
-28
-29
-29
-30
-30
-31
-31
-31
-31
-32
-32
-32
-32
-33
-33
-33
-34
-34
-34
-34
-34
-34
-33
-33
-32
-32
-31
-30
-30
-29
-29
-28
-28
-27
-27
-27
-27
-27
-27
-27
-27
-28
-28
-28
-28
-28
-27
-27
-27
-27
-27
-27
-27
-27
-27
-27
-27
-27
-28
-28
-28
-28
-28
-28
-28
-28
-28
-28
-28
-28
-28
-28
-28
-28
-28
-28
-28
-29
-29
-28
-28
-29
-28
-28
-28
-28
-27
-27
-26
-26
-26
-26
-26
-26
-26
-26
-26
-26
-26
-26
-27
-27
-27
-27
-27
-28
-27
-27
-27
-27
-27
-27
-27
-27
-27
-26
-26
-26
-26
-25
-25
-25
-25
-25
-26
-26
-26
-26
-27
-27
-28
-28
-29
-30
-31
-31
-31
-32
-32
-31
-30
-29
-27
-24
-20
-15
-10
-3
2
9
16
24
32
40
49
56
63
69
74
78
80
81
82
81
80
77
74
69
63
56
48
39
30
21
11
2
-7
-16
-25
-32
-40
-46
-51
-56
-59
-62
-65
-66
-68
-69
-69
-69
-68
-67
-66
-65
-63
-62
-60
-58
-56
-54
-52
-50
-48
-46
-45
-43
-41
-40
-39
-38
-37
-37
-36
-36
-36
-36
-36
-36
-36
-36
-36
-36
-36
-36
-35
-35
-35
-35
-35
-35
-34
-35
-35
-35
-35
-36
-36
-36
-36
-36
-36
-36
-36
-36
-36
-35
-35
-35
-35
-35
-35
-35
-35
-35
-35
-36
-36
-36
-36
-36
-37
-37
-37
-37
-36
-36
-36
-36
-36
-36
-35
-36
-36
-36
-36
-36
-36
-36
-37
-37
-37
-37
-37
-37
-37
-37
-36
-37
-36
-36
-36
-37
-37
-37
-37
-37
-37
-37
-37
-37
-37
-37
-37
-37
-37
-36
-36
-36
-36
-36
-36
-36
-36
-37
-37
-37
-38
-38
-38
-39
-39
-39
-39
-40
-40
-39
-39
-40
-40
-39
-39
-40
-40
-40
-40
-41
-41
-41
-41
-41
-41
-41
-41
-41
-41
-40
-40
-40
-40
-40
-40
-40
-41
-41
-41
-42
-42
-42
-43
-43
-44
-44
-44
-45
-45
-45
-45
-46
-46
-46
-47
-47
-48
-48
-49
-49
-50
-50
-50
-51
-51
-51
-51
-51
-51
-51
-51
-51
-52
-52
-52
-52
-53
-53
-54
-54
-55
-55
-56
-56
-56
-57
-57
-57
-57
-57
-57
-57
-57
-57
-57
-58
-58
-58
-58
-59
-59
-59
-59
-60
-60
-60
-60
-61
-61
-61
-61
-61
-62
-62
-62
-62
-63
-63
-64
-65
-65
-65
-66
-67
-67
-68
-68
-68
-68
-69
-69
-69
-69
-69
-70
-70
-70
-70
-71
-71
-72
-72
-72
-72
-72
-72
-72
-71
-71
-70
-70
-70
-69
-69
-69
-68
-68
-68
-68
-68
-68
-68
-68
-68
-68
-68
-67
-67
-67
-66
-66
-66
-66
-65
-65
-65
-64
-64
-64
-64
-64
-64
-63
-63
-63
-62
-62
-61
-60
-59
-59
-58
-57
-57
-56
-56
-55
-55
-55
-55
-55
-54
-54
-54
-54
-53
-53
-52
-52
-51
-51
-51
-50
-50
-50
-50
-49
-49
-49
-49
-49
-49
-49
-49
-49
-49
-49
-49
-49
-48
-48
-48
-48
-47
-47
-47
-47
-48
-48
-48
-48
-48
-48
-48
-48
-48
-48
-48
-48
-47
-47
-47
-47
-47
-47
-47
-47
-47
-48
-48
-49
-49
-49
-50
-50
-50
-50
-51
-51
-50
-51
-51
-51
-51
-51
-51
-51
-51
-51
-52
-52
-52
-52
-52
-52
-52
-52
-52
-52
-51
-51
-51
-51
-51
-51
-51
-51
-51
-51
-52
-52
-52
-53
-53
-53
-53
-53
-53
-53
-53
-53
-53
-53
-52
-52
-52
-53
-53
-53
-53
-53
-53
-53
-54
-54
-53
-53
-53
-53
-52
-52
-52
-52
-52
-52
-52
-52
-52
-52
-53
-53
-53
-53
-53
-53
-53
-53
-52
-52
-52
-52
-52
-51
-51
-51
-51
-51
-51
-51
-52
-52
-52
-52
-52
-53
-53
-53
-53
-53
-52
-52
-53
-53
-53
-53
-53
-54
-54
-54
-55
-55
-55
-55
-56
-56
-56
-56
-55
-55
-55
-54
-54
-54
-53
-53
-53
-53
-53
-53
-53
-53
-53
-53
-53
-53
-53
-53
-53
-53
-53
-53
-53
-53
-53
-53
-53
-53
-54
-54
-54
-55
-55
-55
-55
-55
-55
-55
-55
-55
-54
-54
-54
-54
-54
-54
-54
-54
-54
-54
-54
-54
-54
-54
-54
-54
-54
-54
-54
-54
-53
-53
-54
-54
-53
-53
-53
-54
-54
-54
-54
-55
-55
-55
-55
-55
-55
-55
-55
-55
-54
-54
-54
-54
-54
-54
-54
-55
-55
-55
-56
-56
-56
-56
-57
-57
-57
-57
-57
-56
-56
-56
-56
-55
-55
-55
-54
-54
-54
-54
-54
-54
-54
-54
-54
-54
-54
-54
-54
-53
-53
-53
-53
-53
-53
-53
-53
-53
-54
-54
-54
-54
-54
-55
-55
-55
-55
-55
-55
-54
-54
-54
-54
-53
-53
-53
-53
-53
-53
-53
-54
-54
-54
-54
-54
-54
-54
-54
-54
-54
-53
-53
-53
-53
-53
-53
-53
-54
-54
-54
-55
-55
-55
-55
-55
-55
-56
-56
-56
-56
-55
-55
-56
-56
-55
-55
-55
-56
-56
-56
-56
-57
-56
-57
-57
-57
-57
-56
-56
-56
-56
-55
-55
-55
-55
-55
-55
-55
-55
-56
-56
-56
-56
-56
-56
-56
-56
-56
-56
-55
-55
-55
-55
-55
-54
-54
-54
-54
-54
-55
-55
-55
-55
-55
-55
-55
-55
-55
-55
-55
-54
-54
-54
-53
-53
-53
-53
-52
-52
-52
-53
-53
-52
-52
-53
-53
-52
-52
-52
-52
-52
-52
-52
-51
-51
-51
-51
-51
-51
-51
-51
-51
-51
-51
-51
-51
-51
-51
-51
-51
-51
-51
-51
-51
-51
-51
-52
-52
-53
-53
-54
-55
-55
-55
-56
-56
-57
-57
-57
-57
-57
-57
-58
-58
-58
-58
-58
-58
-58
-59
-59
-59
-59
-60
-60
-60
-59
-59
-59
-58
-58
-57
-57
-57
-56
-56
-55
-55
-55
-55
-55
-55
-55
-55
-55
-55
-55
-55
-55
-54
-54
-54
-54
-54
-54
-54
-54
-55
-55
-55
-55
-56
-56
-56
-56
-56
-56
-56
-56
-56
-56
-56
-56
-56
-56
-56
-56
-56
-56
-57
-57
-57
-57
-57
-58
-58
-57
-57
-57
-57
-56
-56
-56
-56
-55
-55
-55
-55
-55
-55
-55
-55
-55
-55
-55
-55
-55
-55
-55
-55
-55
-55
-55
-54
-54
-53
-53
-53
-52
-52
-53
-53
-52
-52
-53
-53
-53
-53
-54
-54
-54
-54
-55
-55
-56
-56
-57
-57
-57
-57
-57
-56
-54
-52
-49
-45
-41
-36
-30
-24
-17
-9
-1
6
15
23
31
38
44
48
52
54
56
57
56
55
52
48
43
37
30
21
13
3
-5
-15
-25
-35
-44
-53
-62
-70
-76
-82
-87
-92
-95
-98
-101
-102
-103
-104
-104
-104
-103
-102
-101
-99
-98
-96
-95
-93
-91
-89
-87
-85
-83
-81
-79
-77
-76
-74
-73
-72
-71
-70
-69
-68
-68
-67
-67
-67
-67
-66
-67
-66
-66
-66
-66
-66
-66
-66
-66
-66
-66
-66
-66
-66
-66
-67
-67
-67
-67
-67
-67
-67
-67
-67
-67
-67
-66
-66
-66
-66
-66
-66
-66
-66
-66
-66
-67
-67
-67
-67
-67
-67
-67
-67
-67
-67
-67
-67
-68
-68
-67
-67
-68
-68
-68
-68
-68
-69
-69
-69
-69
-69
-69
-69
-69
-68
-68
-68
-68
-68
-67
-67
-67
-67
-67
-67
-67
-67
-67
-68
-68
-68
-68
-68
-68
-67
-67
-67
-67
-67
-67
-67
-67
-67
-67
-68
-68
-69
-69
-69
-69
-70
-69
-69
-69
-69
-69
-69
-69
-69
-68
-68
-68
-68
-68
-68
-68
-68
-68
-68
-68
-68
-68
-68
-68
-68
-68
-68
-68
-68
-67
-67
-68
-68
-68
-69
-69
-69
-69
-70
-70
-70
-70
-70
-70
-69
-69
-69
-69
-69
-68
-68
-68
-69
-69
-69
-70
-70
-70
-70
-71
-71
-71
-71
-72
-72
-71
-72
-72
-72
-72
-72
-73
-73
-73
-74
-75
-75
-75
-76
-76
-77
-77
-77
-77
-78
-78
-78
-78
-78
-78
-78
-78
-78
-78
-79
-79
-79
-80
-80
-80
-80
-80
-80
-80
-80
-80
-80
-80
-81
-81
-81
-81
-81
-82
-82
-83
-83
-83
-83
-84
-84
-84
-84
-84
-84
-84
-84
-84
-84
-84
-84
-84
-84
-84
-84
-84
-84
-84
-84
-84
-84
-84
-84
-83
-83
-83
-82
-82
-82
-81
-81
-81
-81
-81
-81
-81
-81
-81
-81
-82
-82
-81
-81
-81
-81
-80
-80
-79
-79
-79
-78
-78
-78
-77
-77
-77
-77
-77
-76
-76
-75
-75
-74
-73
-73
-72
-71
-71
-70
-70
-69
-69
-69
-69
-68
-69
-69
-68
-68
-68
-68
-68
-68
-68
-67
-67
-67
-67
-66
-66
-66
-66
-65
-65
-65
-65
-65
-65
-65
-65
-65
-64
-64
-64
-64
-63
-63
-63
-63
-62
-62
-62
-62
-62
-63
-63
-63
-63
-64
-64
-64
-64
-64
-65
-65
-64
-65
-65
-65
-65
-65
-65
-65
-65
-65
-66
-66
-66
-66
-66
-66
-66
-66
-66
-66
-65
-65
-65
-64
-64
-64
-63
-63
-63
-63
-63
-63
-63
-63
-63
-63
-63
-63
-63
-63
-63
-63
-63
-63
-63
-63
-63
-63
-64
-64
-64
-65
-65
-66
-66
-66
-66
-67
-67
-67
-67
-67
-67
-67
-67
-67
-67
-67
-68
-68
-68
-69
-69
-69
-69
-69
-69
-69
-69
-69
-68
-68
-68
-68
-68
-67
-68
-68
-68
-68
-68
-68
-68
-68
-68
-68
-68
-68
-68
-68
-67
-67
-67
-67
-67
-67
-67
-68
-68
-68
-69
-69
-69
-70
-70
-70
-70
-70
-70
-70
-69
-69
-69
-69
-68
-68
-68
-68
-67
-67
-67
-67
-67
-67
-67
-67
-67
-67
-66
-66
-66
-66
-66
-66
-66
-66
-66
-67
-67
-67
-68
-68
-68
-69
-69
-69
-69
-69
-69
-69
-68
-68
-68
-68
-68
-67
-67
-67
-67
-68
-68
-68
-68
-68
-68
-68
-67
-67
-67
-67
-67
-67
-67
-67
-67
-67
-67
-67
-68
-68
-69
-69
-69
-69
-70
-70
-70
-70
-70
-70
-69
-69
-69
-69
-69
-68
-69
-69
-69
-69
-69
-69
-69
-69
-70
-70
-70
-70
-70
-70
-70
-70
-70
-70
-70
-70
-70
-70
-70
-71
-71
-71
-71
-72
-72
-72
-72
-72
-72
-72
-71
-71
-71
-71
-70
-70
-70
-70
-70
-70
-70
-70
-70
-70
-70
-70
-70
-70
-70
-70
-70
-69
-69
-69
-69
-69
-69
-69
-69
-69
-70
-70
-70
-70
-71
-71
-70
-70
-70
-70
-69
-69
-69
-69
-69
-69
-69
-69
-69
-69
-70
-70
-70
-70
-71
-71
-71
-71
-71
-71
-70
-70
-71
-71
-70
-71
-71
-71
-71
-71
-72
-72
-72
-72
-72
-73
-73
-73
-73
-73
-72
-72
-72
-72
-71
-71
-71
-71
-71
-71
-71
-71
-71
-71
-72
-72
-72
-71
-71
-71
-71
-70
-70
-70
-70
-70
-70
-70
-70
-70
-70
-71
-71
-71
-71
-71
-71
-71
-71
-71
-71
-71
-71
-71
-71
-71
-72
-72
-72
-72
-73
-73
-73
-74
-74
-74
-74
-73
-73
-73
-72
-72
-72
-72
-71
-71
-71
-71
-71
-71
-71
-71
-70
-70
-70
-70
-70
-70
-70
-70
-70
-69
-70
-70
-69
-69
-70
-70
-70
-71
-71
-71
-72
-72
-72
-72
-73
-73
-73
-73
-73
-72
-72
-72
-72
-72
-72
-72
-73
-73
-73
-73
-73
-74
-74
-74
-74
-74
-74
-74
-74
-74
-73
-73
-73
-73
-73
-73
-73
-73
-73
-73
-72
-72
-72
-72
-72
-72
-72
-72
-71
-71
-71
-71
-71
-70
-71
-71
-71
-71
-71
-72
-72
-72
-72
-72
-72
-72
-72
-72
-72
-71
-71
-71
-71
-71
-71
-71
-71
-71
-71
-71
-71
-71
-71
-71
-71
-71
-71
-71
-71
-71
-71
-71
-71
-72
-72
-73
-73
-74
-75
-75
-76
-76
-77
-77
-78
-78
-78
-78
-78
-78
-79
-79
-79
-79
-79
-80
-80
-80
-81
-81
-81
-81
-81
-81
-81
-81
-81
-80
-80
-79
-79
-79
-78
-78
-77
-77
-77
-77
-77
-77
-76
-76
-77
-77
-76
-76
-76
-76
-76
-76
-76
-76
-76
-76
-76
-76
-77
-77
-78
-78
-78
-78
-79
-79
-79
-79
-79
-79
-78
-78
-78
-78
-78
-78
-78
-78
-78
-78
-78
-78
-78
-78
-78
-78
-78
-78
-77
-77
-77
-77
-77
-76
-76
-76
-76
-76
-75
-75
-76
-76
-75
-76
-76
-76
-75
-75
-75
-75
-75
-74
-74
-74
-74
-74
-74
-74
-74
-74
-74
-74
-74
-73
-73
-73
-72
-72
-72
-72
-71
-71
-71
-72
-72
-72
-73
-73
-74
-75
-76
-76
-77
-77
-77
-77
-77
-76
-75
-72
-69
-66
-61
-56
-50
-43
-37
-30
-22
-14
-5
2
11
19
25
30
35
38
41
42
42
41
38
34
29
23
15
6
-3
-13
-24
-35
-46
-57
-67
-77
-86
-94
-102
-108
-113
-117
-121
-123
-125
-127
-128
-128
-128
-128
-127
-126
-124
-122
-120
-118
-115
-113
-110
-108
-105
-102
-100
-98
-96
-94
-92
-91
-90
-89
-89
-88
-87
-86
-86
-86
-85
-85
-84
-84
-84
-84
-84
-83
-83
-83
-83
-83
-83
-84
-84
-84
-84
-84
-85
-85
-85
-84
-84
-84
-84
-84
-84
-84
-83
-83
-83
-83
-83
-83
-84
-84
-84
-84
-84
-84
-84
-84
-84
-84
-83
-83
-83
-83
-83
-83
-83
-83
-83
-83
-83
-83
-83
-83
-84
-84
-84
-84
-84
-84
-83
-83
-83
-83
-83
-83
-83
-84
-84
-84
-85
-85
-85
-85
-86
-86
-86
-86
-86
-86
-85
-85
-85
-85
-84
-84
-84
-84
-84
-84
-84
-84
-84
-84
-85
-85
-84
-84
-84
-84
-84
-84
-84
-84
-83
-83
-83
-84
-84
-84
-84
-84
-84
-84
-85
-85
-84
-84
-84
-84
-84
-84
-84
-84
-83
-83
-84
-84
-84
-84
-85
-85
-85
-85
-86
-86
-86
-86
-87
-87
-87
-87
-87
-87
-87
-86
-86
-87
-87
-87
-87
-88
-88
-88
-88
-88
-88
-88
-88
-88
-88
-88
-88
-88
-88
-88
-88
-88
-89
-89
-89
-89
-89
-90
-90
-90
-90
-90
-90
-90
-90
-90
-90
-90
-90
-90
-90
-90
-91
-91
-92
-92
-92
-93
-93
-93
-93
-94
-94
-94
-94
-94
-94
-94
-93
-93
-93
-93
-93
-93
-94
-94
-94
-94
-94
-94
-94
-94
-94
-94
-94
-94
-94
-94
-94
-93
-94
-94
-94
-94
-94
-94
-95
-95
-95
-95
-95
-95
-94
-94
-94
-93
-93
-93
-93
-92
-92
-92
-92
-92
-92
-92
-91
-91
-91
-91
-91
-90
-90
-89
-89
-88
-88
-88
-87
-87
-86
-86
-86
-86
-86
-86
-86
-86
-86
-86
-86
-85
-85
-85
-84
-84
-83
-83
-82
-82
-82
-82
-81
-81
-81
-81
-80
-80
-80
-79
-79
-79
-78
-78
-77
-77
-77
-77
-76
-76
-76
-76
-76
-76
-76
-76
-76
-76
-77
-77
-76
-76
-76
-76
-75
-75
-74
-74
-74
-73
-73
-73
-73
-73
-73
-73
-73
-73
-73
-73
-73
-72
-72
-72
-72
-72
-72
-71
-71
-71
-71
-72
-72
-72
-72
-72
-73
-73
-73
-74
-74
-73
-74
-74
-73
-73
-73
-73
-73
-73
-73
-73
-74
-74
-74
-74
-75
-75
-75
-75
-75
-75
-75
-75
-75
-74
-74
-74
-74
-74
-74
-74
-74
-74
-74
-74
-74
-75
-75
-75
-75
-74
-74
-74
-74
-74
-74
-73
-73
-73
-73
-73
-73
-73
-73
-73
-73
-73
-73
-73
-73
-73
-73
-73
-72
-72
-72
-72
-72
-72
-72
-72
-72
-72
-72
-72
-72
-72
-72
-72
-72
-72
-72
-71
-71
-71
-71
-71
-70
-70
-70
-71
-71
-71
-71
-72
-72
-72
-72
-73
-73
-73
-73
-72
-72
-72
-72
-72
-71
-71
-71
-71
-71
-71
-71
-71
-71
-71
-72
-72
-71
-71
-71
-71
-71
-71
-71
-70
-70
-70
-70
-70
-70
-70
-71
-71
-71
-71
-71
-71
-71
-71
-71
-71
-70
-70
-70
-70
-70
-69
-70
-70
-70
-70
-70
-70
-70
-70
-70
-70
-70
-70
-70
-70
-70
-70
-70
-69
-69
-69
-69
-69
-69
-70
-70
-70
-70
-71
-71
-71
-71
-71
-71
-71
-71
-70
-70
-70
-70
-70
-70
-71
-71
-71
-71
-71
-71
-72
-72
-72
-72
-72
-72
-72
-72
-72
-73
-73
-73
-73
-73
-73
-73
-73
-74
-74
-74
-74
-75
-75
-75
-75
-75
-75
-74
-74
-74
-74
-74
-74
-74
-74
-74
-74
-74
-74
-74
-74
-75
-75
-75
-75
-75
-75
-74
-74
-74
-74
-74
-74
-74
-75
-75
-75
-75
-75
-75
-76
-76
-76
-76
-76
-76
-76
-76
-76
-76
-76
-75
-75
-76
-76
-76
-76
-77
-77
-77
-77
-78
-78
-78
-78
-78
-78
-78
-78
-78
-78
-78
-78
-78
-79
-79
-79
-79
-79
-79
-80
-80
-80
-80
-79
-79
-79
-79
-79
-79
-79
-79
-79
-79
-79
-79
-79
-80
-80
-80
-80
-81
-81
-81
-81
-81
-81
-80
-80
-80
-79
-79
-79
-79
-79
-79
-79
-79
-79
-79
-79
-79
-79
-79
-79
-79
-79
-79
-79
-79
-78
-78
-78
-78
-79
-79
-79
-79
-80
-80
-80
-80
-81
-80
-80
-81
-81
-80
-80
-80
-80
-80
-80
-80
-80
-80
-80
-80
-81
-81
-81
-81
-82
-82
-81
-81
-81
-81
-81
-81
-81
-81
-81
-81
-81
-81
-81
-81
-82
-82
-82
-82
-82
-82
-81
-81
-81
-81
-80
-80
-80
-80
-80
-80
-80
-80
-80
-80
-81
-81
-81
-81
-81
-81
-81
-81
-81
-81
-81
-81
-81
-80
-80
-80
-80
-80
-80
-80
-81
-80
-81
-81
-81
-81
-80
-80
-80
-79
-79
-79
-78
-78
-78
-78
-78
-78
-77
-78
-78
-78
-78
-78
-78
-78
-78
-78
-78
-78
-78
-78
-77
-77
-77
-77
-77
-77
-77
-77
-77
-77
-77
-77
-77
-76
-76
-76
-75
-75
-74
-74
-74
-73
-73
-73
-74
-74
-74
-75
-75
-76
-76
-77
-77
-78
-78
-78
-79
-79
-79
-80
-80
-80
-80
-81
-81
-82
-82
-82
-82
-83
-83
-83
-83
-82
-82
-81
-81
-80
-80
-79
-79
-78
-77
-77
-77
-77
-76
-76
-76
-76
-76
-76
-76
-76
-76
-76
-76
-76
-75
-76
-76
-75
-76
-76
-76
-77
-77
-77
-78
-78
-78
-78
-79
-79
-78
-78
-79
-78
-78
-78
-78
-78
-78
-78
-78
-78
-78
-78
-78
-78
-78
-78
-78
-78
-78
-77
-77
-77
-76
-76
-76
-75
-75
-75
-74
-74
-74
-74
-75
-75
-75
-75
-75
-75
-75
-75
-76
-76
-76
-76
-76
-76
-76
-77
-78
-78
-78
-78
-78
-78
-78
-78
-78
-78
-77
-77
-77
-76
-76
-76
-76
-76
-76
-77
-77
-78
-78
-78
-79
-79
-79
-79
-78
-77
-76
-74
-71
-68
-64
-59
-53
-46
-39
-32
-24
-16
-6
2
11
20
29
36
43
48
53
56
58
59
58
56
53
48
42
35
26
16
6
-4
-16
-27
-39
-50
-61
-70
-80
-88
-95
-102
-107
-112
-116
-119
-121
-123
-125
-126
-126
-126
-125
-124
-123
-121
-120
-117
-115
-112
-109
-107
-104
-101
-99
-96
-94
-92
-90
-89
-87
-86
-85
-84
-83
-83
-82
-81
-81
-81
-81
-80
-80
-80
-80
-80
-80
-80
-81
-81
-81
-81
-82
-82
-82
-82
-83
-82
-82
-82
-82
-82
-82
-82
-82
-82
-82
-82
-82
-82
-82
-83
-83
-83
-83
-83
-83
-83
-83
-83
-83
-83
-82
-82
-82
-82
-81
-82
-82
-82
-82
-82
-83
-83
-83
-83
-84
-83
-83
-83
-83
-83
-83
-83
-83
-83
-83
-83
-83
-83
-83
-84
-84
-84
-84
-84
-84
-84
-84
-84
-84
-84
-83
-83
-83
-82
-82
-83
-83
-83
-83
-83
-84
-84
-84
-84
-85
-85
-85
-85
-85
-85
-85
-85
-85
-85
-85
-85
-86
-86
-86
-86
-86
-86
-86
-87
-87
-86
-86
-86
-86
-86
-85
-85
-85
-85
-85
-85
-86
-86
-86
-87
-87
-88
-88
-89
-89
-89
-90
-90
-90
-90
-90
-90
-90
-90
-90
-91
-91
-91
-91
-92
-92
-92
-92
-93
-93
-93
-93
-93
-93
-93
-93
-93
-93
-92
-92
-92
-93
-93
-93
-93
-93
-93
-93
-93
-93
-93
-93
-93
-93
-93
-93
-93
-93
-93
-93
-94
-94
-94
-95
-95
-96
-96
-96
-97
-97
-97
-97
-98
-98
-98
-98
-98
-98
-97
-97
-98
-98
-98
-98
-98
-99
-99
-99
-99
-99
-99
-99
-99
-99
-99
-99
-99
-99
-99
-99
-99
-99
-99
-99
-99
-100
-100
-100
-100
-100
-99
-99
-99
-99
-98
-98
-97
-97
-96
-96
-96
-96
-96
-95
-95
-95
-95
-95
-95
-96
-96
-95
-96
-96
-96
-95
-95
-95
-95
-95
-95
-96
-96
-96
-96
-96
-96
-96
-96
-96
-95
-95
-94
-94
-93
-92
-92
-91
-91
-90
-90
-89
-89
-89
-89
-89
-89
-89
-89
-89
-89
-88
-88
-88
-88
-87
-87
-87
-87
-87
-87
-87
-87
-87
-87
-88
-88
-88
-88
-88
-88
-88
-88
-88
-88
-87
-87
-87
-87
-87
-87
-87
-87
-87
-87
-87
-87
-87
-87
-87
-87
-87
-87
-87
-87
-86
-86
-86
-86
-86
-86
-86
-86
-86
-87
-87
-87
-87
-88
-88
-88
-88
-88
-88
-88
-87
-87
-87
-87
-87
-87
-87
-87
-87
-88
-88
-88
-88
-88
-89
-88
-88
-88
-88
-88
-88
-88
-88
-88
-88
-88
-88
-88
-88
-88
-89
-89
-89
-89
-89
-89
-89
-89
-89
-88
-88
-88
-88
-88
-88
-88
-88
-88
-88
-89
-89
-89
-89
-90
-90
-90
-90
-90
-90
-90
-90
-90
-90
-89
-89
-89
-89
-89
-89
-90
-90
-90
-90
-90
-91
-90
-90
-90
-90
-90
-90
-90
-90
-90
-90
-90
-90
-90
-90
-90
-91
-91
-91
-91
-91
-91
-91
-91
-91
-91
-90
-90
-90
-90
-90
-90
-90
-90
-90
-90
-90
-90
-91
-91
-91
-91
-91
-91
-91
-91
-91
-91
-90
-90
-90
-91
-91
-91
-91
-91
-91
-91
-91
-92
-92
-91
-91
-91
-91
-90
-90
-90
-89
-89
-89
-89
-89
-89
-89
-89
-89
-89
-90
-90
-90
-90
-90
-90
-91
-90
-90
-90
-90
-90
-90
-90
-90
-91
-91
-91
-91
-91
-91
-91
-91
-91
-90
-90
-90
-90
-90
-89
-89
-89
-89
-89
-89
-89
-89
-89
-89
-89
-89
-89
-90
-89
-89
-90
-90
-89
-89
-89
-89
-89
-89
-89
-89
-89
-90
-90
-90
-91
-91
-91
-91
-91
-91
-91
-91
-91
-91
-91
-90
-90
-90
-90
-90
-90
-90
-90
-91
-91
-91
-91
-91
-91
-91
-91
-91
-91
-91
-91
-91
-91
-91
-91
-91
-91
-91
-91
-91
-91
-92
-92
-92
-92
-91
-91
-91
-91
-90
-90
-90
-89
-89
-89
-89
-89
-89
-89
-90
-90
-90
-90
-90
-90
-90
-90
-90
-90
-90
-90
-90
-90
-90
-90
-90
-91
-91
-91
-92
-92
-92
-92
-92
-92
-92
-92
-92
-92
-92
-92
-92
-91
-91
-91
-92
-92
-92
-92
-92
-92
-92
-93
-93
-93
-93
-93
-93
-92
-92
-92
-92
-91
-91
-91
-92
-92
-92
-92
-92
-92
-92
-93
-93
-93
-93
-92
-92
-92
-92
-92
-92
-92
-91
-91
-92
-92
-91
-92
-92
-92
-92
-92
-92
-92
-91
-91
-91
-90
-90
-90
-90
-89
-89
-89
-89
-89
-89
-89
-89
-89
-89
-89
-89
-89
-88
-88
-88
-88
-87
-87
-87
-87
-87
-87
-87
-88
-88
-88
-89
-89
-89
-89
-90
-90
-89
-89
-89
-89
-89
-89
-88
-88
-87
-87
-87
-87
-87
-87
-87
-87
-87
-88
-88
-88
-88
-88
-89
-89
-89
-89
-90
-90
-90
-91
-92
-92
-93
-94
-95
-95
-96
-96
-97
-97
-97
-97
-97
-97
-96
-96
-96
-95
-95
-95
-95
-94
-94
-93
-93
-93
-92
-92
-92
-92
-91
-91
-91
-90
-90
-90
-89
-89
-89
-89
-89
-90
-90
-90
-91
-91
-91
-91
-92
-92
-91
-91
-91
-91
-91
-91
-91
-90
-90
-90
-90
-90
-90
-90
-91
-91
-91
-91
-91
-91
-91
-91
-92
-91
-91
-91
-91
-91
-91
-91
-91
-91
-91
-92
-92
-92
-92
-92
-92
-92
-92
-92
-91
-91
-91
-90
-90
-90
-90
-90
-90
-90
-89
-90
-90
-90
-90
-90
-91
-91
-91
-90
-90
-90
-89
-89
-89
-88
-88
-88
-88
-88
-88
-88
-89
-89
-89
-89
-89
-89
-89
-89
-89
-88
-87
-86
-85
-84
-82
-80
-77
-74
-70
-66
-60
-54
-47
-40
-32
-24
-15
-5
4
14
24
33
41
47
53
57
60
61
62
60
58
54
48
41
32
23
12
1
-10
-22
-34
-46
-58
-69
-80
-90
-100
-108
-115
-121
-126
-130
-134
-137
-138
-139
-139
-139
-138
-137
-135
-133
-130
-127
-124
-122
-119
-116
-113
-111
-108
-106
-104
-102
-101
-99
-97
-96
-95
-94
-92
-92
-91
-90
-90
-89
-89
-89
-89
-89
-90
-90
-90
-90
-90
-90
-90
-90
-90
-89
-89
-89
-89
-89
-89
-89
-89
-89
-89
-89
-90
-90
-90
-90
-90
-90
-90
-89
-89
-89
-89
-89
-88
-88
-88
-88
-88
-88
-88
-88
-88
-88
-88
-89
-89
-88
-88
-88
-88
-88
-87
-87
-87
-87
-87
-87
-87
-87
-87
-87
-87
-87
-87
-87
-88
-87
-87
-87
-87
-87
-86
-86
-86
-86
-86
-86
-86
-86
-86
-87
-87
-87
-87
-87
-88
-88
-87
-87
-87
-87
-87
-86
-86
-86
-86
-86
-86
-86
-85
-85
-86
-86
-86
-86
-86
-86
-86
-85
-85
-85
-85
-85
-85
-84
-84
-85
-85
-85
-85
-85
-86
-86
-86
-86
-87
-87
-86
-86
-86
-86
-86
-86
-86
-86
-85
-85
-85
-85
-85
-86
-86
-86
-86
-86
-86
-86
-86
-86
-86
-86
-86
-86
-86
-86
-86
-86
-86
-87
-87
-87
-88
-88
-88
-89
-89
-89
-88
-88
-88
-88
-88
-88
-88
-87
-87
-87
-87
-87
-87
-88
-88
-88
-88
-89
-89
-89
-89
-89
-89
-89
-89
-89
-89
-89
-89
-89
-89
-89
-89
-90
-90
-90
-90
-90
-91
-91
-91
-91
-91
-90
-90
-90
-90
-90
-90
-90
-90
-90
-90
-91
-91
-91
-91
-91
-91
-91
-91
-91
-90
-90
-90
-89
-89
-88
-88
-88
-88
-88
-88
-88
-88
-88
-88
-88
-88
-88
-88
-88
-88
-88
-87
-87
-87
-86
-86
-86
-86
-85
-85
-85
-85
-85
-85
-85
-85
-84
-84
-84
-84
-83
-83
-83
-83
-83
-82
-82
-83
-83
-83
-83
-83
-83
-83
-83
-83
-83
-83
-82
-82
-82
-81
-81
-81
-80
-80
-79
-79
-79
-79
-79
-80
-80
-80
-80
-80
-80
-79
-79
-79
-79
-79
-78
-78
-78
-78
-78
-79
-79
-79
-79
-80
-80
-80
-80
-80
-80
-80
-80
-80
-80
-80
-80
-80
-79
-79
-79
-79
-79
-79
-79
-79
-79
-79
-79
-79
-79
-79
-79
-79
-78
-78
-78
-78
-78
-78
-78
-78
-78
-78
-79
-79
-79
-79
-79
-79
-79
-79
-79
-79
-78
-78
-78
-78
-78
-78
-78
-78
-78
-78
-78
-78
-78
-78
-79
-79
-78
-78
-78
-78
-78
-78
-77
-77
-77
-77
-77
-77
-77
-77
-77
-78
-78
-78
-78
-78
-78
-78
-78
-78
-78
-77
-77
-77
-77
-77
-77
-77
-77
-77
-77
-78
-78
-78
-78
-78
-78
-78
-78
-78
-77
-77
-77
-77
-77
-76
-76
-76
-76
-76
-76
-77
-77
-77
-77
-77
-77
-76
-76
-76
-76
-75
-75
-75
-75
-75
-75
-75
-75
-75
-75
-76
-76
-76
-76
-77
-76
-76
-76
-76
-76
-76
-76
-76
-76
-76
-76
-76
-76
-76
-77
-77
-77
-77
-78
-78
-78
-78
-78
-78
-77
-77
-77
-77
-77
-77
-77
-77
-77
-77
-77
-78
-78
-78
-78
-78
-78
-78
-78
-77
-77
-77
-77
-77
-76
-76
-76
-77
-77
-77
-77
-77
-77
-77
-77
-78
-77
-77
-77
-77
-77
-77
-77
-77
-77
-77
-77
-77
-77
-77
-77
-78
-78
-78
-78
-78
-78
-78
-78
-78
-78
-78
-77
-77
-77
-77
-77
-78
-78
-78
-78
-79
-79
-79
-79
-80
-80
-80
-80
-80
-80
-79
-79
-79
-79
-79
-79
-79
-79
-79
-80
-80
-80
-80
-80
-80
-80
-80
-81
-81
-81
-80
-81
-81
-80
-80
-81
-81
-81
-81
-81
-82
-82
-82
-82
-82
-82
-82
-82
-82
-81
-81
-81
-81
-81
-81
-81
-81
-82
-82
-82
-83
-83
-83
-84
-84
-84
-84
-84
-84
-84
-84
-84
-84
-83
-83
-83
-83
-84
-84
-84
-84
-84
-85
-85
-85
-85
-85
-85
-85
-85
-85
-85
-85
-85
-85
-85
-85
-85
-85
-85
-85
-86
-86
-86
-86
-86
-86
-86
-86
-85
-85
-85
-85
-85
-85
-85
-85
-85
-85
-85
-86
-86
-86
-86
-86
-86
-86
-86
-86
-85
-85
-85
-85
-84
-84
-84
-84
-84
-84
-84
-84
-84
-84
-84
-84
-84
-84
-84
-84
-84
-84
-84
-84
-84
-84
-84
-84
-84
-84
-84
-85
-85
-85
-85
-86
-86
-85
-85
-85
-85
-85
-84
-84
-84
-84
-84
-84
-84
-84
-85
-85
-85
-85
-85
-85
-85
-85
-85
-85
-85
-85
-84
-84
-84
-84
-84
-84
-84
-84
-84
-84
-84
-84
-85
-85
-84
-84
-84
-84
-83
-83
-83
-83
-83
-82
-82
-83
-83
-83
-83
-83
-84
-84
-84
-84
-84
-84
-84
-84
-84
-84
-84
-84
-83
-83
-83
-83
-83
-83
-83
-83
-83
-83
-83
-84
-83
-83
-83
-83
-83
-83
-83
-83
-83
-83
-83
-83
-84
-84
-84
-85
-85
-85
-85
-85
-85
-85
-85
-85
-85
-84
-84
-84
-83
-83
-83
-83
-84
-84
-84
-84
-84
-84
-85
-85
-84
-84
-84
-84
-84
-83
-83
-83
-83
-83
-83
-82
-82
-82
-82
-83
-83
-83
-83
-83
-83
-83
-83
-83
-83
-83
-83
-83
-83
-83
-83
-83
-83
-83
-83
-83
-83
-83
-83
-83
-83
-82
-82
-82
-82
-82
-82
-82
-82
-82
-82
-82
-83
-83
-84
-85
-85
-86
-87
-87
-88
-88
-88
-89
-89
-89
-89
-89
-89
-89
-90
-90
-90
-91
-91
-91
-91
-91
-91
-91
-91
-91
-90
-90
-89
-89
-89
-88
-88
-87
-87
-87
-86
-86
-86
-87
-86
-86
-86
-86
-86
-86
-86
-86
-85
-85
-85
-85
-84
-84
-84
-85
-85
-85
-85
-85
-85
-86
-86
-86
-86
-86
-86
-86
-85
-85
-85
-85
-84
-84
-84
-84
-84
-84
-84
-85
-84
-84
-85
-85
-85
-84
-84
-84
-84
-84
-84
-84
-84
-83
-83
-84
-84
-84
-84
-84
-85
-85
-85
-85
-85
-85
-85
-85
-85
-84
-85
-85
-84
-84
-84
-84
-84
-84
-84
-84
-83
-83
-83
-82
-82
-82
-82
-81
-81
-81
-81
-81
-81
-82
-82
-83
-83
-84
-84
-85
-85
-85
-84
-84
-82
-80
-77
-74
-69
-64
-58
-51
-44
-36
-28
-19
-10
0
9
18
26
34
40
45
49
52
54
54
53
51
47
42
36
28
19
9
-1
-12
-23
-35
-46
-57
-68
-78
-87
-95
-102
-108
-113
-118
-121
-124
-126
-128
-129
-129
-129
-128
-128
-127
-125
-123
-121
-119
-117
-114
-112
-109
-107
-104
-102
-100
-98
-97
-95
-94
-93
-92
-92
-91
-91
-90
-90
-90
-90
-89
-89
-89
-89
-89
-89
-89
-88
-88
-88
-88
-88
-88
-89
-89
-89
-89
-89
-89
-89
-89
-89
-89
-88
-88
-88
-88
-88
-87
-87
-87
-88
-88
-88
-88
-88
-88
-89
-89
-89
-89
-89
-89
-88
-88
-88
-88
-88
-88
-88
-88
-88
-89
-89
-89
-90
-90
-90
-90
-90
-90
-90
-90
-89
-89
-89
-89
-89
-89
-89
-89
-89
-89
-89
-89
-89
-89
-90
-90
-90
-90
-90
-90
-89
-89
-89
-89
-89
-89
-89
-89
-89
-89
-90
-90
-90
-90
-90
-91
-90
-90
-90
-90
-90
-90
-90
-90
-90
-90
-90
-90
-90
-90
-91
-91
-91
-92
-92
-92
-93
-93
-93
-93
-93
-93
-93
-93
-92
-92
-92
-92
-92
-92
-93
-93
-93
-93
-93
-94
-94
-94
-94
-94
-94
-94
-94
-94
-94
-94
-95
-95
-95
-96
-96
-96
-97
-97
-97
-98
-98
-98
-98
-98
-98
-98
-98
-98
-97
-97
-97
-97
-98
-98
-98
-98
-98
-99
-99
-99
-99
-99
-99
-99
-99
-99
-99
-100
-99
-99
-100
-100
-100
-100
-101
-101
-102
-102
-102
-103
-103
-103
-103
-104
-104
-103
-104
-104
-104
-104
-104
-105
-105
-105
-106
-106
-106
-107
-107
-107
-107
-107
-107
-107
-107
-106
-106
-106
-106
-106
-106
-106
-106
-106
-106
-106
-106
-106
-106
-106
-106
-106
-106
-106
-105
-105
-105
-105
-105
-105
-104
-104
-104
-104
-105
-105
-105
-104
-104
-104
-104
-104
-104
-103
-103
-102
-102
-101
-101
-100
-100
-100
-99
-99
-99
-99
-99
-98
-98
-98
-98
-98
-97
-97
-96
-96
-95
-95
-95
-94
-94
-94
-93
-93
-93
-93
-93
-92
-92
-92
-92
-91
-91
-91
-90
-90
-90
-90
-89
-89
-89
-89
-89
-89
-89
-89
-89
-89
-89
-89
-89
-89
-89
-88
-88
-87
-87
-87
-87
-86
-86
-86
-86
-86
-87
-87
-87
-87
-87
-87
-87
-87
-87
-87
-86
-86
-86
-86
-86
-86
-86
-86
-86
-86
-86
-87
-87
-87
-87
-87
-87
-87
-88
-88
-87
-87
-87
-87
-87
-87
-87
-87
-87
-88
-88
-89
-89
-89
-89
-89
-89
-89
-89
-89
-89
-88
-88
-88
-88
-87
-87
-87
-87
-87
-88
-88
-88
-88
-88
-88
-89
-89
-89
-89
-89
-88
-89
-89
-88
-88
-88
-88
-89
-89
-89
-89
-89
-89
-89
-89
-89
-89
-89
-89
-88
-88
-88
-88
-88
-87
-87
-87
-87
-87
-88
-88
-88
-88
-89
-89
-89
-89
-89
-89
-89
-88
-88
-88
-88
-88
-88
-88
-88
-89
-89
-89
-89
-89
-89
-89
-89
-88
-88
-88
-87
-87
-87
-87
-86
-86
-86
-86
-86
-86
-86
-86
-86
-86
-86
-87
-87
-87
-87
-87
-86
-86
-86
-86
-86
-86
-86
-86
-86
-86
-86
-87
-87
-87
-87
-87
-87
-87
-87
-87
-87
-87
-87
-87
-87
-86
-86
-87
-87
-87
-87
-88
-88
-88
-88
-88
-88
-88
-88
-88
-87
-87
-87
-87
-86
-86
-86
-86
-86
-86
-86
-86
-86
-86
-86
-87
-87
-87
-87
-87
-87
-86
-86
-87
-86
-86
-86
-87
-87
-87
-87
-88
-88
-88
-88
-88
-88
-88
-88
-88
-87
-87
-87
-87
-87
-86
-86
-87
-87
-87
-87
-88
-88
-88
-88
-89
-89
-89
-89
-89
-89
-89
-89
-89
-88
-88
-88
-89
-89
-89
-89
-90
-90
-90
-90
-90
-91
-91
-90
-90
-90
-90
-90
-90
-90
-89
-89
-89
-89
-89
-90
-90
-90
-90
-90
-90
-90
-89
-89
-89
-89
-89
-89
-89
-88
-88
-88
-88
-88
-88
-88
-89
-89
-89
-89
-89
-89
-89
-89
-89
-89
-89
-89
-89
-89
-89
-89
-89
-89
-90
-90
-90
-91
-91
-91
-91
-91
-91
-91
-91
-90
-90
-90
-90
-89
-89
-89
-89
-89
-89
-89
-89
-89
-89
-90
-90
-90
-90
-90
-90
-90
-89
-89
-89
-89
-89
-89
-89
-89
-89
-90
-90
-90
-90
-90
-91
-91
-91
-91
-91
-90
-90
-90
-90
-90
-90
-90
-90
-90
-90
-90
-91
-90
-90
-91
-91
-91
-90
-90
-90
-90
-90
-89
-90
-89
-89
-89
-89
-89
-89
-90
-90
-90
-90
-91
-91
-91
-91
-91
-91
-90
-90
-90
-90
-90
-89
-89
-90
-90
-90
-90
-90
-90
-90
-90
-91
-91
-91
-91
-90
-90
-90
-90
-90
-90
-89
-90
-90
-90
-90
-90
-91
-91
-91
-91
-91
-91
-91
-91
-91
-91
-91
-91
-91
-91
-91
-91
-92
-92
-92
-92
-93
-93
-93
-93
-94
-94
-94
-94
-94
-93
-93
-93
-93
-93
-92
-92
-93
-93
-93
-93
-93
-93
-93
-94
-94
-94
-94
-94
-94
-94
-94
-94
-94
-94
-94
-94
-95
-95
-95
-95
-96
-96
-96
-96
-96
-96
-96
-96
-96
-96
-95
-95
-95
-94
-94
-94
-94
-94
-94
-94
-94
-94
-94
-95
-95
-95
-95
-95
-95
-94
-94
-94
-94
-94
-94
-94
-94
-94
-95
-95
-95
-95
-95
-96
-96
-96
-96
-96
-96
-96
-96
-96
-96
-95
-95
-95
-95
-95
-95
-95
-96
-96
-96
-96
-96
-96
-96
-96
-96
-96
-96
-96
-96
-96
-96
-96
-96
-96
-96
-96
-96
-96
-96
-96
-96
-96
-96
-95
-95
-95
-94
-94
-94
-94
-94
-94
-94
-94
-94
-95
-96
-96
-96
-97
-97
-98
-98
-99
-99
-99
-99
-100
-100
-100
-100
-101
-101
-101
-102
-102
-102
-102
-102
-102
-102
-102
-102
-101
-101
-101
-100
-100
-99
-99
-98
-98
-98
-97
-97
-97
-97
-97
-97
-97
-97
-97
-97
-96
-96
-96
-96
-96
-96
-96
-96
-96
-96
-96
-96
-97
-97
-97
-97
-97
-98
-98
-98
-98
-98
-97
-97
-97
-97
-96
-96
-96
-96
-96
-96
-96
-96
-96
-96
-96
-96
-96
-96
-95
-95
-95
-95
-94
-94
-94
-94
-94
-94
-95
-95
-95
-95
-95
-95
-96
-96
-96
-96
-96
-95
-95
-95
-94
-94
-94
-94
-94
-94
-94
-94
-94
-94
-93
-93
-93
-93
-93
-93
-93
-93
-93
-93
-94
-94
-95
-95
-96
-97
-98
-98
-99
-100
-101
-101
-101
-101
-100
-99
-96
-93
-90
-85
-80
-74
-67
-59
-52
-43
-34
-25
-15
-5
3
13
21
27
33
38
42
44
45
45
44
41
37
31
24
15
6
-3
-14
-25
-36
-47
-59
-69
-79
-89
-97
-104
-111
-116
-121
-126
-129
-131
-133
-135
-136
-137
-137
-137
-136
-135
-133
-132
-130
-128
-125
-123
-121
-118
-116
-114
-112
-110
-108
-106
-105
-104
-103
-102
-101
-100
-99
-98
-98
-97
-96
-96
-95
-94
-94
-94
-93
-93
-93
-93
-93
-93
-93
-94
-94
-94
-94
-94
-94
-93
-93
-93
-93
-92
-92
-92
-92
-92
-92
-92
-92
-92
-92
-92
-92
-92
-92
-92
-92
-92
-92
-92
-91
-91
-91
-91
-91
-90
-90
-90
-90
-90
-90
-90
-90
-90
-91
-91
-91
-91
-91
-91
-91
-90
-90
-90
-90
-90
-90
-90
-90
-90
-91
-91
-91
-91
-92
-92
-92
-92
-91
-91
-91
-91
-90
-90
-90
-90
-90
-89
-89
-89
-89
-90
-90
-89
-90
-90
-90
-90
-89
-89
-89
-89
-88
-89
-88
-88
-88
-88
-88
-88
-89
-89
-89
-89
-90
-90
-90
-90
-90
-90
-90
-90
-90
-90
-90
-90
-90
-90
-91
-91
-91
-91
-91
-91
-92
-92
-92
-92
-92
-92
-92
-91
-91
-91
-91
-91
-91
-92
-92
-92
-92
-93
-93
-93
-93
-93
-93
-93
-93
-93
-92
-92
-92
-92
-92
-91
-91
-91
-91
-91
-92
-92
-93
-93
-93
-93
-94
-94
-94
-94
-95
-95
-95
-95
-95
-95
-96
-96
-97
-97
-98
-99
-99
-100
-100
-101
-101
-101
-101
-101
-101
-101
-101
-101
-101
-100
-100
-100
-100
-100
-100
-101
-101
-101
-101
-101
-101
-101
-101
-101
-101
-101
-101
-101
-101
-100
-100
-100
-100
-100
-100
-101
-100
-100
-100
-100
-100
-100
-100
-100
-100
-99
-99
-99
-99
-98
-98
-98
-98
-98
-99
-99
-99
-98
-98
-98
-98
-98
-98
-97
-97
-96
-96
-95
-95
-94
-94
-94
-93
-93
-93
-93
-93
-93
-93
-93
-93
-92
-92
-92
-91
-91
-91
-90
-90
-89
-89
-89
-89
-89
-89
-89
-88
-88
-87
-87
-86
-86
-85
-85
-84
-83
-83
-82
-81
-81
-80
-80
-80
-79
-79
-80
-79
-79
-79
-79
-79
-79
-78
-78
-78
-77
-77
-77
-77
-77
-77
-77
-77
-77
-77
-77
-78
-78
-78
-78
-78
-78
-78
-78
-78
-78
-78
-78
-78
-78
-78
-78
-78
-78
-78
-78
-78
-78
-78
-78
-78
-78
-78
-78
-77
-77
-77
-77
-76
-76
-76
-76
-76
-76
-76
-76
-76
-76
-76
-76
-76
-76
-76
-76
-76
-75
-75
-75
-75
-75
-75
-75
-75
-75
-75
-76
-76
-76
-76
-76
-76
-76
-76
-76
-75
-75
-75
-75
-75
-74
-74
-74
-74
-75
-75
-75
-76
-76
-76
-76
-76
-76
-76
-76
-76
-75
-75
-75
-75
-75
-75
-75
-75
-76
-76
-76
-76
-76
-77
-77
-77
-77
-77
-77
-77
-76
-76
-76
-76
-75
-75
-75
-75
-75
-75
-75
-75
-75
-75
-75
-75
-75
-75
-74
-74
-74
-74
-74
-74
-73
-73
-73
-73
-74
-74
-74
-74
-74
-74
-75
-75
-75
-75
-75
-75
-74
-74
-75
-74
-74
-74
-74
-74
-75
-75
-75
-75
-75
-75
-76
-76
-75
-75
-75
-75
-74
-74
-74
-74
-74
-74
-74
-74
-74
-74
-75
-75
-75
-75
-76
-76
-76
-76
-76
-76
-76
-76
-76
-76
-75
-75
-75
-76
-76
-76
-76
-76
-76
-76
-77
-77
-76
-76
-76
-76
-75
-75
-75
-75
-75
-74
-74
-75
-75
-75
-75
-75
-75
-75
-76
-76
-75
-75
-75
-75
-75
-75
-75
-75
-74
-74
-74
-74
-74
-75
-75
-75
-75
-75
-75
-75
-75
-75
-75
-75
-74
-74
-75
-75
-74
-75
-75
-75
-75
-76
-76
-76
-76
-77
-77
-77
-77
-77
-77
-77
-77
-77
-77
-76
-76
-76
-76
-76
-76
-76
-77
-77
-77
-77
-77
-77
-77
-77
-77
-77
-76
-76
-76
-76
-76
-76
-76
-76
-76
-76
-76
-76
-76
-77
-77
-77
-77
-77
-77
-77
-76
-76
-76
-76
-76
-76
-77
-77
-77
-77
-78
-78
-78
-78
-78
-78
-78
-78
-78
-78
-78
-78
-78
-78
-77
-77
-78
-78
-78
-78
-78
-78
-78
-78
-78
-78
-78
-78
-78
-78
-77
-77
-78
-77
-77
-77
-77
-77
-78
-78
-78
-79
-79
-79
-80
-80
-80
-80
-80
-80
-79
-79
-79
-79
-79
-79
-79
-80
-80
-80
-80
-81
-81
-81
-81
-81
-81
-81
-81
-81
-80
-80
-80
-80
-79
-79
-79
-79
-79
-79
-79
-79
-79
-79
-79
-79
-79
-79
-79
-78
-78
-78
-78
-78
-78
-78
-78
-78
-78
-78
-79
-79
-79
-79
-80
-80
-80
-80
-80
-80
-80
-80
-80
-80
-80
-80
-80
-80
-80
-80
-80
-80
-79
-79
-79
-79
-79
-79
-79
-78
-78
-77
-77
-77
-77
-77
-78
-78
-78
-79
-80
-80
-81
-82
-82
-83
-83
-84
-85
-85
-85
-86
-87
-87
-87
-88
-88
-88
-89
-89
-90
-90
-90
-90
-90
-90
-89
-89
-88
-87
-86
-86
-86
-85
-84
-84
-84
-83
-83
-83
-83
-83
-83
-83
-83
-83
-83
-83
-83
-83
-83
-83
-83
-83
-83
-83
-84
-84
-84
-84
-85
-85
-85
-85
-86
-86
-86
-86
-85
-85
-85
-85
-85
-84
-84
-84
-84
-84
-84
-84
-85
-85
-84
-85
-85
-85
-84
-84
-84
-84
-83
-83
-83
-82
-82
-82
-82
-82
-82
-83
-83
-83
-83
-83
-84
-84
-84
-84
-84
-84
-84
-84
-84
-84
-84
-84
-84
-84
-84
-84
-84
-84
-84
-84
-84
-84
-84
-84
-84
-84
-84
-84
-85
-85
-85
-85
-85
-85
-85
-86
-86
-86
-85
-84
-83
-81
-78
-75
-71
-65
-59
-53
-46
-38
-29
-20
-11
-1
8
18
27
36
44
50
55
58
61
63
63
62
59
55
49
42
34
24
13
2
-9
-21
-34
-46
-58
-69
-80
-89
-98
-105
-112
-117
-122
-126
-129
-131
-133
-134
-134
-134
-134
-133
-132
-130
-128
-126
-124
-121
-118
-115
-113
-110
-107
-105
-103
-101
-99
-97
-96
-95
-94
-93
-93
-92
-91
-91
-91
-91
-90
-90
-90
-90
-90
-89
-89
-89
-89
-89
-89
-89
-89
-90
-90
-90
-90
-90
-91
-91
-90
-90
-90
-90
-90
-90
-90
-90
-89
-89
-89
-89
-89
-89
-90
-90
-90
-90
-90
-90
-90
-90
-89
-89
-89
-88
-88
-88
-88
-88
-88
-88
-88
-88
-88
-88
-88
-88
-88
-88
-88
-88
-88
-88
-87
-87
-87
-87
-87
-87
-87
-87
-87
-87
-87
-87
-87
-87
-88
-88
-88
-88
-88
-87
-87
-87
-87
-87
-87
-87
-87
-87
-88
-88
-88
-88
-88
-89
-89
-89
-89
-89
-89
-89
-88
-88
-88
-88
-88
-88
-88
-88
-88
-88
-89
-89
-89
-89
-89
-89
-89
-89
-89
-89
-89
-89
-89
-89
-89
-89
-89
-89
-89
-90
-90
-90
-90
-91
-91
-91
-91
-91
-91
-91
-91
-91
-91
-91
-90
-90
-90
-91
-91
-91
-92
-92
-92
-92
-92
-93
-93
-93
-93
-93
-93
-93
-94
-94
-94
-94
-94
-94
-94
-94
-95
-95
-95
-95
-95
-95
-95
-95
-95
-94
-94
-94
-94
-94
-94
-94
-94
-94
-95
-95
-96
-96
-96
-97
-97
-98
-98
-98
-98
-98
-98
-98
-98
-98
-98
-98
-98
-98
-98
-98
-99
-99
-99
-99
-100
-100
-100
-100
-99
-99
-99
-99
-99
-99
-98
-98
-98
-98
-98
-98
-99
-99
-98
-98
-99
-98
-98
-98
-98
-98
-97
-97
-97
-97
-97
-97
-97
-97
-97
-97
-97
-97
-97
-97
-97
-97
-96
-96
-96
-95
-95
-94
-94
-94
-93
-93
-93
-93
-92
-92
-92
-92
-92
-92
-92
-92
-91
-91
-91
-90
-89
-89
-89
-88
-87
-87
-87
-86
-86
-86
-86
-86
-86
-85
-85
-85
-85
-84
-84
-83
-83
-83
-83
-82
-82
-82
-82
-82
-82
-82
-82
-82
-82
-82
-82
-82
-82
-82
-82
-82
-82
-82
-82
-81
-81
-81
-81
-81
-81
-81
-82
-82
-82
-82
-82
-82
-82
-82
-82
-82
-81
-81
-81
-81
-81
-80
-80
-80
-80
-80
-81
-81
-80
-80
-80
-80
-80
-80
-80
-79
-79
-79
-79
-79
-79
-79
-79
-79
-79
-80
-80
-81
-81
-81
-82
-82
-82
-82
-82
-82
-81
-81
-82
-81
-81
-81
-81
-81
-81
-81
-81
-81
-81
-81
-81
-81
-81
-81
-81
-81
-81
-80
-81
-80
-80
-80
-80
-80
-80
-80
-81
-81
-81
-81
-81
-81
-81
-81
-81
-81
-80
-80
-80
-80
-79
-79
-79
-79
-79
-80
-80
-80
-80
-80
-81
-81
-81
-81
-81
-81
-80
-80
-80
-80
-80
-80
-80
-80
-80
-80
-80
-80
-80
-80
-80
-80
-80
-80
-80
-80
-80
-79
-80
-79
-79
-79
-79
-79
-79
-79
-80
-80
-80
-80
-80
-80
-80
-80
-79
-79
-79
-79
-79
-79
-78
-78
-78
-78
-78
-79
-79
-79
-79
-79
-79
-79
-79
-79
-79
-79
-78
-78
-78
-78
-78
-78
-78
-78
-78
-78
-79
-79
-79
-79
-79
-79
-79
-79
-79
-79
-78
-78
-78
-78
-78
-78
-78
-78
-78
-78
-78
-79
-79
-79
-79
-80
-79
-79
-80
-80
-79
-79
-79
-79
-79
-79
-79
-79
-79
-79
-80
-80
-80
-80
-80
-80
-80
-80
-80
-79
-79
-79
-79
-79
-79
-79
-79
-79
-79
-79
-80
-80
-80
-80
-80
-80
-80
-80
-80
-80
-80
-80
-80
-80
-80
-80
-80
-80
-80
-81
-81
-82
-82
-82
-82
-82
-83
-83
-83
-83
-82
-82
-82
-82
-82
-82
-82
-82
-82
-83
-83
-83
-83
-83
-84
-84
-84
-83
-83
-83
-83
-83
-83
-83
-83
-83
-83
-83
-83
-83
-84
-84
-84
-84
-84
-84
-84
-84
-84
-84
-84
-84
-84
-84
-83
-83
-84
-84
-84
-84
-84
-85
-85
-85
-85
-86
-86
-86
-86
-86
-85
-85
-85
-85
-85
-85
-85
-85
-85
-85
-85
-85
-85
-85
-86
-86
-85
-85
-85
-85
-85
-85
-85
-85
-85
-85
-85
-85
-85
-85
-86
-86
-86
-86
-87
-87
-87
-87
-87
-87
-87
-87
-87
-87
-87
-87
-87
-87
-87
-87
-88
-88
-88
-88
-89
-89
-89
-89
-89
-88
-88
-88
-88
-87
-87
-87
-87
-87
-87
-87
-88
-88
-87
-88
-88
-88
-88
-88
-88
-88
-88
-88
-88
-88
-87
-87
-87
-88
-88
-88
-89
-89
-89
-89
-89
-89
-89
-88
-88
-88
-87
-87
-87
-87
-86
-86
-86
-85
-85
-85
-85
-85
-85
-85
-85
-85
-85
-85
-85
-84
-84
-84
-84
-84
-84
-84
-84
-85
-85
-85
-86
-86
-86
-86
-87
-87
-87
-87
-87
-86
-86
-85
-85
-85
-84
-84
-84
-85
-85
-85
-85
-85
-85
-85
-86
-86
-86
-86
-87
-87
-87
-87
-88
-88
-88
-88
-89
-89
-90
-90
-91
-92
-92
-93
-93
-94
-94
-94
-94
-94
-94
-94
-94
-94
-93
-93
-93
-93
-93
-93
-93
-93
-92
-92
-92
-92
-92
-92
-91
-91
-91
-90
-90
-90
-90
-89
-90
-90
-90
-90
-90
-91
-91
-91
-91
-91
-91
-91
-91
-91
-90
-90
-90
-90
-90
-89
-90
-90
-90
-90
-90
-90
-90
-91
-91
-91
-91
-91
-91
-91
-90
-90
-91
-91
-90
-90
-90
-91
-91
-91
-91
-92
-92
-92
-92
-92
-92
-92
-92
-92
-91
-91
-91
-91
-91
-90
-91
-91
-91
-91
-91
-91
-91
-92
-92
-92
-92
-92
-91
-91
-90
-90
-89
-89
-89
-88
-89
-89
-89
-89
-90
-91
-91
-92
-92
-93
-94
-94
-95
-95
-95
-95
-94
-94
-93
-91
-90
-87
-83
-79
-74
-68
-61
-54
-47
-39
-30
-21
-11
-2
7
15
22
28
33
37
40
41
41
39
36
32
27
20
11
2
-6
-17
-27
-38
-49
-59
-70
-80
-89
-97
-105
-112
-118
-123
-127
-131
-133
-136
-137
-138
-138
-138
-137
-136
-134
-132
-130
-127
-125
-122
-120
-118
-115
-113
-112
-110
-108
-107
-105
-104
-103
-102
-101
-100
-99
-98
-98
-97
-97
-96
-96
-96
-96
-96
-97
-97
-97
-97
-97
-97
-97
-97
-97
-97
-96
-96
-96
-96
-96
-95
-95
-95
-95
-95
-96
-96
-96
-96
-96
-96
-96
-96
-96
-96
-96
-96
-96
-95
-95
-95
-95
-95
-95
-95
-95
-95
-95
-95
-95
-95
-95
-94
-94
-94
-93
-93
-93
-93
-93
-93
-93
-93
-93
-93
-94
-94
-94
-94
-94
-94
-94
-94
-94
-94
-93
-93
-93
-93
-92
-92
-92
-92
-92
-92
-92
-92
-92
-92
-92
-93
-92
-92
-92
-92
-92
-92
-92
-92
-92
-92
-92
-93
-93
-93
-94
-94
-94
-95
-96
-96
-96
-96
-96
-96
-96
-96
-96
-96
-96
-96
-97
-97
-97
-97
-97
-97
-97
-97
-98
-98
-98
-98
-98
-98
-97
-97
-97
-97
-97
-97
-97
-97
-98
-98
-98
-99
-99
-99
-99
-99
-99
-99
-99
-99
-99
-99
-99
-98
-98
-98
-98
-98
-98
-98
-98
-99
-99
-99
-99
-99
-99
-99
-99
-99
-99
-99
-100
-100
-100
-100
-100
-101
-101
-102
-102
-103
-103
-103
-104
-104
-104
-104
-104
-104
-104
-104
-104
-104
-104
-104
-104
-104
-104
-104
-104
-104
-104
-104
-105
-105
-105
-104
-104
-104
-104
-104
-104
-104
-104
-104
-104
-105
-105
-105
-106
-106
-106
-106
-107
-107
-107
-107
-107
-107
-107
-107
-107
-107
-107
-107
-107
-107
-107
-107
-107
-107
-107
-107
-107
-107
-106
-106
-105
-105
-104
-104
-103
-103
-102
-101
-101
-101
-101
-100
-100
-100
-100
-99
-99
-99
-98
-98
-97
-97
-96
-95
-95
-94
-94
-93
-93
-93
-93
-92
-92
-92
-91
-91
-91
-91
-91
-90
-90
-90
-89
-89
-88
-88
-87
-87
-87
-87
-86
-86
-86
-86
-86
-85
-85
-85
-84
-84
-83
-83
-82
-82
-81
-81
-80
-80
-80
-80
-80
-80
-80
-80
-80
-80
-81
-81
-81
-80
-80
-80
-80
-80
-79
-79
-79
-79
-79
-79
-79
-79
-79
-79
-79
-79
-79
-80
-79
-79
-79
-79
-79
-79
-79
-79
-78
-78
-79
-79
-79
-79
-79
-79
-80
-80
-80
-80
-80
-80
-80
-80
-80
-80
-80
-80
-80
-79
-80
-80
-80
-80
-80
-80
-80
-80
-81
-81
-81
-80
-80
-81
-80
-80
-80
-80
-80
-80
-80
-80
-81
-81
-81
-81
-82
-82
-82
-82
-82
-82
-82
-82
-81
-81
-81
-81
-80
-80
-80
-81
-81
-81
-81
-81
-81
-81
-81
-81
-81
-81
-81
-81
-81
-80
-80
-80
-80
-79
-79
-79
-79
-79
-79
-79
-79
-80
-80
-80
-80
-79
-79
-79
-79
-79
-79
-79
-78
-78
-78
-79
-79
-79
-79
-79
-80
-80
-80
-80
-80
-80
-80
-80
-79
-79
-79
-79
-79
-79
-79
-79
-79
-79
-80
-80
-80
-80
-80
-80
-80
-80
-80
-80
-80
-79
-80
-79
-79
-79
-79
-79
-79
-79
-80
-80
-80
-80
-80
-80
-80
-80
-80
-80
-80
-79
-79
-79
-79
-79
-79
-79
-79
-79
-79
-79
-79
-79
-79
-79
-79
-79
-79
-79
-78
-78
-78
-78
-78
-78
-78
-78
-78
-79
-79
-79
-79
-79
-80
-80
-80
-80
-80
-80
-80
-79
-79
-79
-79
-78
-78
-78
-78
-78
-79
-79
-79
-79
-79
-79
-79
-79
-79
-79
-79
-79
-79
-78
-78
-78
-78
-78
-78
-78
-78
-78
-78
-78
-79
-79
-78
-78
-78
-78
-78
-77
-77
-77
-77
-77
-77
-78
-78
-78
-79
-79
-79
-80
-80
-80
-80
-80
-80
-80
-80
-80
-79
-79
-79
-79
-79
-79
-79
-79
-79
-79
-79
-79
-79
-79
-79
-79
-79
-79
-78
-78
-78
-78
-77
-77
-77
-78
-77
-78
-78
-78
-78
-78
-78
-78
-78
-78
-78
-78
-77
-77
-77
-77
-77
-76
-76
-77
-76
-76
-77
-77
-77
-77
-77
-77
-77
-76
-76
-76
-76
-75
-75
-75
-75
-74
-74
-74
-74
-74
-75
-75
-75
-75
-75
-75
-75
-75
-75
-75
-75
-75
-75
-75
-75
-75
-75
-76
-76
-76
-76
-76
-76
-76
-77
-77
-76
-76
-76
-76
-75
-75
-75
-74
-74
-74
-74
-74
-74
-75
-75
-76
-76
-76
-77
-77
-78
-78
-78
-79
-79
-79
-80
-80
-81
-81
-82
-82
-83
-83
-84
-84
-85
-85
-86
-86
-86
-86
-86
-85
-85
-84
-84
-83
-83
-82
-82
-82
-82
-81
-81
-81
-80
-80
-80
-80
-79
-79
-78
-78
-78
-77
-77
-77
-76
-76
-76
-77
-77
-77
-77
-77
-77
-78
-78
-78
-78
-77
-77
-77
-77
-77
-76
-76
-76
-76
-76
-76
-76
-76
-76
-76
-76
-76
-77
-77
-77
-76
-76
-76
-76
-76
-76
-76
-75
-75
-75
-75
-75
-75
-75
-75
-75
-76
-76
-76
-76
-76
-76
-76
-76
-76
-76
-76
-75
-75
-76
-76
-76
-77
-77
-77
-77
-77
-76
-76
-75
-74
-74
-74
-73
-73
-73
-73
-73
-73
-74
-74
-75
-76
-77
-78
-78
-79
-80
-80
-80
-79
-78
-77
-75
-72
-68
-64
-58
-52
-46
-39
-31
-23
-15
-6
3
12
20
28
35
41
45
49
51
53
53
52
49
46
40
34
26
17
8
-2
-12
-23
-34
-44
-54
-64
-73
-81
-88
-94
-100
-104
-108
-112
-115
-117
-118
-119
-120
-120
-119
-119
-118
-116
-114
-112
-109
-107
-105
-102
-100
-98
-96
-94
-92
-91
-90
-88
-87
-87
-86
-85
-85
-85
-84
-83
-83
-83
-82
-82
-82
-82
-81
-81
-81
-81
-81
-81
-82
-82
-82
-82
-82
-83
-82
-82
-82
-82
-82
-82
-82
-82
-81
-81
-81
-82
-82
-82
-82
-82
-82
-82
-83
-83
-83
-83
-83
-83
-83
-83
-83
-82
-82
-82
-83
-83
-83
-83
-83
-83
-83
-84
-84
-84
-84
-84
-84
-83
-83
-83
-83
-83
-83
-83
-83
-83
-83
-83
-83
-83
-83
-84
-84
-84
-84
-84
-84
-83
-83
-83
-83
-83
-82
-82
-82
-82
-82
-82
-82
-83
-83
-83
-83
-83
-83
-83
-83
-83
-83
-83
-83
-83
-82
-82
-82
-83
-83
-83
-83
-84
-84
-84
-84
-84
-84
-84
-84
-84
-84
-84
-84
-84
-84
-84
-84
-85
-85
-85
-85
-86
-86
-86
-87
-87
-87
-87
-87
-87
-87
-87
-87
-88
-87
-88
-88
-88
-89
-89
-90
-90
-91
-91
-91
-92
-92
-92
-92
-92
-92
-92
-93
-93
-93
-93
-93
-94
-94
-94
-95
-95
-95
-96
-96
-96
-96
-96
-96
-97
-97
-97
-97
-97
-97
-97
-97
-97
-98
-98
-98
-99
-99
-99
-100
-100
-100
-100
-101
-101
-101
-101
-101
-101
-101
-101
-102
-102
-102
-103
-103
-104
-104
-105
-105
-106
-106
-106
-107
-107
-107
-107
-108
-108
-108
-108
-108
-108
-108
-109
-109
-109
-109
-109
-109
-109
-109
-108
-108
-108
-107
-107
-107
-106
-106
-105
-105
-105
-105
-105
-105
-105
-104
-104
-105
-104
-104
-104
-103
-103
-103
-102
-102
-101
-101
-100
-100
-100
-99
-99
-99
-99
-98
-98
-98
-98
-98
-97
-96
-96
-95
-95
-95
-94
-94
-93
-93
-93
-92
-92
-92
-92
-92
-92
-91
-91
-91
-90
-90
-89
-89
-88
-88
-87
-86
-86
-85
-85
-85
-84
-84
-84
-84
-84
-84
-84
-84
-83
-83
-83
-83
-83
-83
-82
-82
-82
-82
-82
-82
-82
-83
-83
-83
-83
-84
-84
-84
-83
-83
-83
-83
-83
-83
-83
-82
-82
-82
-83
-83
-83
-83
-83
-83
-83
-83
-83
-83
-83
-83
-83
-82
-82
-82
-82
-81
-81
-81
-82
-82
-82
-82
-82
-82
-82
-82
-83
-82
-82
-82
-82
-82
-81
-81
-81
-81
-81
-81
-81
-81
-81
-81
-81
-81
-81
-82
-82
-82
-82
-82
-82
-81
-81
-81
-81
-81
-80
-81
-81
-81
-81
-81
-81
-81
-81
-82
-82
-81
-81
-81
-81
-80
-80
-80
-80
-80
-79
-79
-80
-80
-80
-80
-80
-80
-81
-81
-81
-81
-81
-80
-80
-80
-80
-80
-80
-79
-79
-79
-79
-79
-79
-79
-79
-79
-79
-79
-79
-79
-79
-79
-79
-78
-78
-78
-78
-78
-77
-78
-78
-78
-78
-78
-79
-79
-79
-79
-79
-79
-79
-79
-80
-80
-80
-80
-80
-79
-79
-79
-80
-80
-80
-80
-80
-80
-80
-80
-80
-80
-80
-79
-79
-79
-78
-78
-78
-77
-77
-77
-77
-77
-77
-78
-78
-78
-78
-78
-79
-78
-78
-78
-78
-77
-77
-77
-77
-76
-76
-76
-76
-76
-76
-76
-77
-77
-77
-77
-78
-77
-77
-77
-78
-78
-78
-78
-78
-78
-78
-78
-78
-78
-78
-79
-79
-79
-79
-79
-79
-79
-79
-79
-79
-78
-78
-78
-78
-77
-77
-77
-77
-77
-77
-78
-78
-78
-78
-79
-79
-79
-79
-79
-79
-79
-79
-79
-79
-78
-78
-78
-79
-79
-79
-79
-79
-79
-78
-79
-78
-78
-78
-78
-77
-77
-76
-76
-75
-75
-75
-74
-74
-74
-74
-74
-74
-74
-74
-74
-74
-74
-73
-73
-73
-72
-72
-72
-71
-71
-71
-70
-70
-70
-70
-70
-70
-70
-70
-70
-70
-70
-70
-69
-69
-69
-69
-68
-68
-68
-67
-67
-67
-67
-66
-66
-66
-66
-66
-66
-66
-65
-65
-64
-64
-64
-63
-63
-63
-63
-63
-63
-63
-63
-64
-64
-65
-66
-66
-67
-68
-69
-69
-70
-71
-71
-71
-72
-73
-73
-73
-74
-74
-75
-75
-75
-76
-76
-76
-76
-76
-76
-76
-75
-75
-74
-74
-74
-73
-73
-72
-72
-72
-71
-71
-71
-71
-71
-71
-71
-71
-71
-70
-70
-70
-70
-69
-69
-69
-68
-68
-68
-68
-68
-68
-68
-68
-68
-69
-69
-69
-69
-69
-69
-69
-69
-68
-68
-68
-68
-68
-68
-68
-68
-68
-68
-68
-68
-68
-68
-68
-68
-67
-67
-67
-67
-66
-66
-66
-66
-65
-65
-65
-65
-65
-65
-66
-66
-66
-66
-66
-66
-66
-66
-65
-65
-65
-65
-65
-64
-64
-64
-65
-65
-65
-65
-65
-65
-65
-65
-65
-65
-65
-65
-65
-65
-65
-65
-65
-66
-66
-66
-67
-67
-67
-68
-68
-68
-68
-67
-66
-64
-62
-59
-56
-51
-46
-40
-34
-26
-18
-10
-2
7
16
26
35
44
52
58
64
68
71
74
74
74
73
70
65
60
53
44
35
25
14
2
-8
-20
-31
-42
-52
-61
-69
-77
-84
-89
-94
-99
-102
-104
-107
-108
-109
-110
-110
-110
-109
-108
-106
-105
-103
-100
-98
-96
-93
-90
-88
-85
-83
-81
-79
-77
-76
-74
-73
-72
-71
-70
-70
-69
-69
-69
-68
-68
-68
-68
-68
-68
-68
-67
-67
-68
-68
-68
-68
-69
-69
-69
-69
-69
-69
-69
-68
-68
-68
-68
-67
-67
-67
-66
-66
-66
-66
-66
-66
-66
-66
-66
-66
-66
-66
-66
-66
-66
-66
-66
-65
-65
-65
-65
-65
-65
-65
-66
-66
-66
-67
-67
-67
-67
-68
-68
-68
-68
-68
-68
-68
-68
-68
-67
-67
-68
-68
-68
-68
-68
-69
-69
-69
-69
-69
-69
-69
-68
-68
-68
-68
-67
-67
-67
-66
-66
-66
-66
-66
-66
-66
-66
-66
-67
-67
-67
-66
-66
-66
-66
-66
-66
-66
-66
-66
-66
-66
-66
-67
-67
-67
-67
-68
-68
-68
-68
-68
-68
-68
-68
-68
-68
-68
-67
-67
-68
-68
-68
-69
-69
-70
-70
-70
-71
-71
-71
-71
-71
-72
-72
-72
-72
-72
-72
-72
-72
-72
-72
-72
-73
-73
-73
-74
-74
-74
-74
-74
-74
-75
-74
-74
-74
-74
-74
-74
-74
-75
-75
-75
-75
-75
-76
-76
-76
-76
-76
-76
-76
-77
-77
-76
-76
-77
-77
-77
-77
-78
-78
-78
-79
-79
-79
-80
-80
-81
-81
-81
-81
-81
-81
-81
-81
-81
-81
-81
-81
-81
-81
-81
-81
-82
-82
-82
-82
-82
-82
-82
-82
-82
-82
-82
-82
-82
-82
-82
-83
-83
-83
-84
-84
-84
-85
-85
-85
-86
-86
-85
-85
-85
-85
-84
-84
-84
-83
-82
-82
-82
-82
-81
-81
-81
-80
-80
-80
-80
-80
-80
-80
-79
-79
-78
-78
-77
-77
-76
-76
-76
-76
-76
-76
-76
-75
-75
-75
-74
-74
-73
-73
-72
-71
-71
-70
-70
-69
-69
-69
-69
-69
-68
-69
-69
-69
-69
-69
-69
-69
-69
-68
-68
-68
-68
-68
-67
-67
-67
-67
-67
-66
-66
-66
-66
-66
-66
-66
-67
-66
-66
-66
-66
-66
-65
-65
-65
-65
-65
-65
-65
-65
-66
-66
-66
-66
-67
-67
-67
-67
-67
-67
-67
-67
-67
-66
-66
-66
-66
-66
-66
-66
-66
-66
-66
-66
-66
-67
-67
-67
-66
-66
-66
-66
-66
-66
-65
-65
-65
-65
-66
-66
-66
-66
-67
-67
-67
-67
-68
-68
-67
-68
-68
-67
-67
-67
-67
-67
-67
-67
-67
-67
-68
-68
-68
-68
-68
-69
-69
-69
-69
-69
-69
-68
-68
-68
-68
-68
-68
-68
-68
-68
-68
-68
-69
-69
-69
-69
-69
-69
-69
-69
-69
-69
-69
-68
-68
-68
-68
-68
-68
-68
-68
-69
-69
-69
-69
-69
-69
-69
-69
-69
-69
-69
-69
-69
-69
-69
-69
-69
-69
-69
-69
-69
-69
-69
-69
-69
-70
-69
-69
-69
-69
-69
-69
-69
-69
-69
-69
-69
-69
-69
-69
-69
-70
-70
-70
-70
-70
-70
-70
-70
-69
-69
-69
-69
-69
-68
-68
-68
-68
-68
-69
-69
-69
-69
-69
-69
-69
-69
-69
-69
-69
-69
-68
-68
-68
-68
-67
-67
-68
-68
-68
-68
-68
-69
-69
-69
-69
-69
-69
-69
-69
-69
-69
-69
-69
-69
-69
-69
-69
-70
-70
-70
-70
-70
-71
-71
-71
-71
-70
-70
-70
-70
-69
-69
-69
-69
-68
-69
-69
-69
-69
-69
-69
-70
-70
-70
-70
-70
-70
-70
-70
-69
-69
-69
-69
-69
-69
-69
-69
-69
-68
-68
-69
-69
-69
-69
-69
-69
-69
-68
-68
-68
-68
-68
-68
-67
-67
-67
-67
-68
-68
-68
-68
-68
-68
-69
-69
-69
-69
-69
-69
-69
-69
-69
-69
-69
-69
-69
-69
-69
-69
-69
-69
-69
-69
-70
-70
-69
-69
-69
-69
-68
-68
-68
-67
-67
-67
-66
-66
-66
-66
-66
-66
-65
-65
-65
-65
-64
-64
-63
-63
-62
-62
-61
-61
-60
-60
-60
-59
-59
-59
-59
-59
-59
-59
-59
-59
-59
-59
-59
-59
-58
-58
-58
-57
-57
-57
-56
-56
-56
-56
-56
-56
-56
-56
-56
-56
-56
-56
-55
-55
-55
-55
-55
-55
-55
-55
-55
-55
-56
-56
-57
-57
-58
-58
-59
-60
-60
-60
-61
-61
-62
-62
-62
-63
-63
-63
-64
-65
-65
-66
-66
-67
-68
-68
-68
-69
-69
-69
-69
-69
-69
-69
-69
-68
-68
-68
-68
-68
-68
-67
-68
-68
-68
-68
-68
-68
-68
-67
-67
-67
-67
-66
-66
-66
-66
-66
-66
-66
-66
-66
-66
-67
-67
-67
-67
-67
-67
-67
-66
-66
-66
-66
-66
-66
-65
-65
-65
-65
-65
-65
-66
-66
-66
-66
-66
-66
-66
-66
-66
-66
-66
-66
-66
-66
-65
-65
-66
-66
-66
-66
-66
-66
-66
-66
-67
-67
-67
-66
-66
-66
-66
-66
-65
-65
-65
-65
-65
-65
-65
-65
-65
-66
-66
-65
-66
-66
-65
-65
-65
-65
-65
-65
-65
-65
-65
-66
-66
-66
-67
-67
-67
-68
-68
-67
-67
-67
-66
-64
-62
-60
-57
-53
-49
-44
-37
-31
-23
-16
-7
1
10
19
29
38
47
56
63
69
73
77
79
81
80
79
76
71
65
58
49
39
28
17
5
-6
-18
-30
-42
-52
-62
-71
-79
-86
-93
-98
-103
-106
-109
-112
-113
-114
-115
