# Simple Text Format
# Sampling Rate (Hz):= 1200.00
# Resolution:= 12
# Labels:= ECG	 II
# Age:=	26
# Gender:=	Masculino
-90
-90
-90
-89
-88
-88
-87
-87
-86
-86
-85
-85
-84
-84
-84
-84
-84
-84
-85
-85
-85
-85
-86
-86
-86
-86
-86
-86
-85
-85
-85
-84
-84
-83
-83
-83
-82
-82
-82
-81
-80
-80
-79
-78
-78
-77
-76
-76
-75
-75
-74
-74
-73
-73
-73
-73
-73
-73
-74
-74
-74
-75
-75
-75
-75
-75
-75
-74
-74
-74
-74
-73
-73
-73
-73
-73
-73
-73
-73
-72
-72
-72
-72
-72
-72
-73
-73
-73
-73
-73
-73
-73
-73
-73
-74
-74
-74
-74
-75
-75
-75
-75
-74
-74
-73
-73
-72
-71
-70
-69
-69
-68
-67
-67
-66
-66
-65
-65
-65
-64
-64
-64
-64
-64
-63
-63
-63
-62
-62
-61
-61
-61
-60
-60
-59
-59
-58
-58
-57
-56
-55
-54
-53
-52
-51
-49
-48
-47
-46
-45
-44
-43
-42
-41
-40
-40
-39
-38
-38
-37
-37
-36
-36
-35
-34
-33
-32
-31
-30
-30
-29
-28
-27
-27
-27
-27
-27
-27
-27
-27
-28
-28
-29
-29
-29
-29
-28
-28
-27
-26
-26
-24
-23
-22
-20
-19
-17
-16
-15
-13
-11
-10
-8
-6
-5
-3
-2
0
0
2
3
4
6
7
7
8
9
9
9
9
9
9
9
9
9
9
9
9
9
9
9
10
10
10
10
10
10
10
11
11
11
11
11
12
12
12
12
13
13
13
12
12
12
11
10
9
7
6
4
2
1
0
-2
-4
-6
-8
-10
-12
-14
-17
-19
-21
-23
-25
-28
-30
-32
-34
-37
-39
-40
-42
-44
-46
-47
-49
-50
-52
-53
-54
-56
-57
-59
-60
-62
-64
-66
-68
-69
-71
-72
-74
-75
-76
-77
-78
-79
-79
-80
-80
-81
-81
-80
-81
-81
-81
-81
-82
-82
-83
-83
-84
-84
-85
-85
-85
-85
-85
-85
-85
-85
-85
-85
-85
-85
-85
-85
-85
-86
-85
-85
-85
-85
-85
-85
-85
-85
-85
-85
-85
-86
-86
-86
-87
-87
-88
-88
-89
-89
-89
-89
-89
-89
-88
-88
-87
-86
-86
-85
-85
-84
-84
-84
-84
-84
-84
-85
-85
-86
-87
-87
-88
-89
-89
-90
-90
-90
-91
-91
-91
-91
-91
-91
-91
-92
-92
-92
-92
-93
-93
-93
-94
-94
-94
-94
-94
-94
-94
-94
-94
-94
-93
-93
-93
-93
-92
-92
-92
-93
-92
-92
-92
-92
-92
-92
-92
-92
-91
-91
-91
-90
-90
-90
-90
-90
-90
-90
-90
-90
-90
-90
-90
-90
-90
-90
-90
-90
-90
-89
-89
-89
-89
-89
-89
-89
-89
-88
-88
-88
-87
-87
-86
-86
-85
-85
-84
-83
-82
-82
-81
-81
-81
-81
-82
-82
-82
-83
-83
-85
-86
-87
-88
-89
-90
-91
-91
-92
-93
-93
-93
-94
-94
-94
-94
-94
-95
-95
-95
-95
-95
-96
-96
-96
-96
-96
-96
-96
-96
-96
-97
-97
-97
-97
-97
-97
-98
-98
-98
-98
-99
-98
-99
-99
-99
-98
-98
-98
-97
-97
-96
-96
-95
-95
-95
-94
-94
-94
-93
-93
-93
-92
-92
-92
-92
-91
-91
-91
-90
-90
-90
-90
-90
-90
-90
-90
-90
-91
-91
-91
-92
-92
-92
-93
-93
-93
-93
-93
-93
-93
-93
-93
-92
-92
-92
-93
-93
-93
-93
-94
-94
-93
-94
-94
-94
-94
-94
-94
-93
-93
-92
-92
-91
-90
-89
-89
-88
-87
-87
-87
-86
-86
-86
-85
-85
-85
-85
-85
-85
-86
-86
-87
-87
-88
-89
-90
-91
-93
-94
-96
-97
-98
-99
-99
-100
-100
-100
-101
-101
-100
-100
-100
-100
-99
-99
-98
-98
-97
-97
-97
-96
-96
-95
-95
-94
-93
-93
-92
-92
-91
-91
-91
-91
-91
-91
-91
-92
-92
-93
-94
-95
-95
-96
-97
-98
-98
-98
-99
-99
-99
-99
-99
-99
-98
-98
-98
-98
-98
-98
-99
-99
-99
-99
-99
-98
-98
-97
-97
-96
-95
-95
-95
-94
-94
-93
-93
-94
-94
-94
-94
-94
-94
-95
-95
-95
-96
-96
-96
-96
-96
-96
-97
-96
-96
-96
-96
-95
-95
-95
-95
-94
-93
-93
-93
-92
-91
-90
-89
-89
-88
-87
-87
-87
-86
-86
-86
-86
-85
-86
-86
-86
-87
-87
-87
-88
-88
-88
-89
-89
-89
-90
-91
-91
-91
-91
-92
-93
-93
-94
-96
-96
-97
-98
-98
-99
-99
-99
-99
-99
-99
-99
-99
-99
-98
-98
-98
-98
-97
-97
-97
-97
-97
-96
-96
-96
-96
-95
-95
-95
-94
-94
-94
-94
-94
-94
-94
-94
-94
-94
-95
-95
-95
-95
-95
-95
-95
-95
-94
-94
-94
-93
-93
-93
-92
-92
-92
-93
-93
-93
-94
-94
-93
-93
-93
-93
-92
-92
-91
-90
-90
-89
-89
-88
-87
-86
-86
-85
-84
-84
-83
-82
-82
-82
-81
-81
-80
-80
-80
-79
-78
-78
-78
-77
-77
-76
-76
-76
-75
-74
-74
-73
-72
-70
-69
-68
-66
-64
-62
-60
-59
-58
-57
-56
-55
-55
-55
-55
-55
-55
-56
-57
-59
-61
-63
-65
-67
-68
-70
-71
-73
-74
-75
-76
-77
-78
-79
-80
-81
-82
-83
-83
-83
-84
-84
-84
-84
-85
-85
-85
-85
-85
-85
-86
-86
-86
-86
-87
-87
-88
-88
-89
-89
-90
-90
-90
-90
-90
-90
-89
-89
-88
-88
-88
-87
-87
-87
-87
-87
-87
-88
-88
-88
-89
-89
-90
-90
-91
-92
-92
-93
-93
-94
-95
-95
-95
-96
-96
-96
-96
-96
-96
-95
-95
-95
-94
-93
-93
-92
-92
-91
-91
-91
-91
-91
-91
-92
-92
-93
-94
-95
-95
-96
-97
-97
-98
-98
-99
-99
-99
-98
-98
-98
-97
-95
-94
-94
-93
-92
-91
-91
-91
-90
-90
-90
-90
-90
-90
-90
-90
-91
-91
-92
-93
-93
-94
-95
-96
-97
-98
-98
-98
-98
-97
-96
-95
-93
-91
-88
-85
-81
-77
-72
-67
-61
-55
-48
-42
-34
-26
-18
-8
2
13
24
37
50
62
75
88
101
113
126
137
149
159
167
174
179
183
185
185
183
179
173
166
156
145
133
119
104
89
73
56
40
24
7
-7
-23
-37
-51
-63
-74
-84
-92
-99
-105
-109
-113
-115
-116
-117
-117
-116
-115
-113
-111
-108
-105
-102
-99
-96
-93
-90
-87
-84
-81
-79
-77
-76
-74
-73
-73
-72
-72
-72
-72
-73
-75
-77
-79
-80
-82
-84
-85
-86
-87
-88
-89
-89
-89
-89
-89
-89
-88
-87
-86
-85
-84
-83
-82
-80
-79
-78
-77
-76
-76
-75
-75
-74
-74
-74
-75
-75
-76
-76
-77
-78
-79
-80
-81
-82
-83
-84
-85
-85
-85
-85
-85
-85
-84
-84
-84
-83
-82
-82
-81
-81
-81
-81
-81
-80
-80
-80
-80
-79
-79
-79
-78
-78
-77
-77
-77
-76
-76
-76
-75
-75
-75
-75
-75
-75
-74
-74
-74
-73
-73
-73
-72
-72
-72
-71
-71
-71
-70
-70
-70
-70
-70
-70
-71
-71
-71
-71
-71
-71
-71
-70
-70
-69
-68
-68
-67
-66
-65
-64
-63
-62
-61
-59
-58
-57
-55
-54
-53
-52
-51
-50
-50
-49
-49
-49
-49
-49
-49
-50
-51
-51
-52
-53
-54
-55
-56
-56
-57
-57
-56
-56
-55
-54
-53
-52
-50
-49
-48
-47
-46
-46
-46
-45
-45
-45
-45
-45
-45
-45
-45
-45
-45
-45
-45
-44
-44
-44
-44
-43
-43
-43
-42
-41
-41
-40
-39
-39
-38
-38
-37
-36
-35
-34
-32
-31
-30
-29
-27
-26
-25
-24
-23
-22
-22
-21
-20
-19
-18
-17
-16
-15
-14
-13
-12
-11
-11
-10
-9
-8
-7
-6
-5
-5
-4
-2
-1
0
1
2
4
6
8
10
12
14
16
18
20
22
24
25
26
27
27
28
28
29
29
29
29
29
28
28
28
28
27
27
27
27
27
26
26
24
23
22
21
20
19
18
18
17
15
14
12
11
9
7
5
4
2
0
0
-2
-4
-6
-7
-9
-10
-12
-13
-14
-16
-17
-18
-19
-21
-22
-23
-25
-26
-27
-29
-30
-32
-33
-34
-35
-36
-36
-37
-37
-37
-38
-38
-39
-40
-40
-41
-42
-43
-44
-45
-46
-47
-49
-50
-51
-53
-54
-55
-57
-58
-59
-59
-60
-61
-61
-61
-61
-61
-61
-61
-62
-62
-63
-63
-64
-65
-65
-66
-66
-67
-68
-69
-70
-71
-72
-74
-75
-76
-77
-79
-80
-81
-82
-82
-83
-83
-83
-83
-82
-82
-81
-80
-79
-79
-78
-77
-76
-76
-76
-76
-76
-76
-76
-76
-76
-77
-77
-77
-77
-77
-76
-76
-76
-76
-76
-76
-75
-75
-75
-74
-74
-74
-73
-73
-73
-74
-74
-73
-73
-72
-72
-71
-71
-71
-71
-71
-71
-71
-71
-71
-71
-72
-72
-72
-73
-74
-74
-75
-75
-76
-76
-76
-77
-78
-78
-79
-79
-80
-80
-81
-82
-82
-83
-83
-83
-83
-83
-83
-82
-82
-81
-81
-81
-81
-80
-80
-79
-79
-79
-79
-79
-80
-80
-79
-79
-79
-79
-79
-78
-77
-77
-76
-75
-75
-74
-74
-73
-73
-73
-73
-73
-74
-74
-74
-74
-75
-75
-75
-76
-76
-76
-76
-76
-75
-75
-74
-74
-74
-73
-73
-73
-73
-73
-73
-73
-73
-73
-73
-73
-72
-72
-72
-73
-73
-74
-74
-75
-76
-76
-77
-78
-78
-79
-80
-80
-81
-82
-82
-82
-82
-82
-82
-82
-83
-82
-82
-82
-82
-82
-82
-82
-82
-82
-82
-82
-81
-81
-80
-80
-79
-79
-78
-78
-78
-78
-78
-78
-78
-78
-78
-79
-79
-80
-80
-80
-81
-80
-80
-80
-79
-78
-78
-77
-77
-77
-76
-76
-75
-75
-74
-74
-73
-73
-73
-73
-73
-72
-72
-72
-72
-72
-71
-71
-71
-71
-71
-72
-72
-72
-73
-74
-74
-75
-75
-76
-77
-78
-78
-79
-79
-80
-80
-80
-81
-81
-81
-81
-81
-81
-81
-81
-81
-81
-81
-80
-80
-80
-79
-78
-78
-77
-76
-75
-75
-74
-73
-72
-72
-72
-72
-72
-72
-71
-71
-71
-72
-72
-72
-72
-72
-72
-72
-73
-73
-73
-73
-73
-74
-75
-75
-76
-77
-78
-78
-79
-80
-80
-81
-81
-81
-82
-82
-82
-82
-82
-82
-82
-82
-82
-82
-82
-82
-82
-82
-81
-81
-81
-80
-79
-79
-78
-77
-77
-77
-76
-76
-76
-76
-76
-77
-77
-77
-77
-77
-78
-79
-79
-79
-80
-80
-80
-79
-79
-80
-79
-79
-79
-79
-79
-79
-80
-80
-80
-80
-80
-80
-80
-80
-80
-80
-80
-79
-79
-80
-79
-79
-79
-80
-80
-80
-80
-80
-80
-80
-81
-81
-81
-81
-81
-81
-81
-80
-80
-80
-79
-79
-78
-78
-77
-77
-77
-76
-76
-75
-74
-74
-73
-72
-71
-70
-68
-67
-66
-65
-63
-62
-61
-61
-60
-59
-59
-59
-59
-59
-59
-60
-60
-60
-60
-60
-60
-60
-61
-61
-61
-61
-61
-61
-61
-61
-61
-61
-60
-60
-59
-59
-58
-58
-57
-57
-56
-56
-56
-56
-55
-55
-55
-56
-56
-57
-57
-58
-58
-58
-59
-59
-60
-61
-61
-62
-62
-62
-62
-63
-63
-63
-64
-65
-65
-66
-67
-68
-68
-69
-69
-70
-70
-71
-71
-71
-71
-71
-71
-71
-71
-70
-70
-71
-71
-71
-72
-73
-74
-74
-75
-76
-77
-78
-79
-80
-81
-81
-82
-83
-84
-85
-86
-86
-87
-87
-88
-88
-89
-89
-89
-89
-89
-88
-88
-87
-87
-86
-85
-85
-84
-84
-83
-83
-84
-84
-84
-84
-85
-85
-85
-86
-86
-86
-86
-86
-86
-86
-86
-86
-86
-85
-85
-85
-85
-85
-85
-85
-85
-85
-85
-85
-85
-84
-84
-84
-84
-83
-83
-84
-83
-83
-83
-83
-83
-83
-84
-84
-85
-85
-85
-85
-85
-85
-84
-83
-82
-81
-80
-78
-76
-74
-71
-68
-65
-60
-56
-51
-45
-38
-31
-23
-14
-3
7
19
31
45
58
71
85
100
114
128
141
154
166
176
186
193
199
203
205
205
203
200
194
187
177
165
152
137
122
105
88
70
53
35
18
1
-13
-28
-41
-54
-64
-74
-82
-88
-93
-97
-100
-101
-102
-102
-101
-100
-98
-96
-93
-90
-88
-85
-83
-80
-78
-76
-73
-72
-70
-69
-68
-68
-67
-67
-67
-68
-68
-69
-70
-70
-71
-72
-72
-73
-73
-73
-73
-73
-73
-74
-74
-73
-73
-74
-74
-74
-74
-75
-75
-75
-75
-75
-75
-75
-75
-74
-74
-73
-73
-73
-72
-72
-71
-71
-71
-70
-70
-70
-70
-70
-70
-70
-70
-70
-70
-70
-70
-69
-69
-69
-69
-69
-69
-69
-70
-70
-70
-70
-70
-70
-71
-71
-71
-71
-70
-70
-70
-69
-68
-68
-67
-66
-65
-65
-64
-63
-62
-62
-61
-60
-60
-59
-59
-59
-58
-58
-58
-57
-57
-57
-57
-58
-58
-59
-59
-60
-61
-61
-62
-62
-63
-63
-63
-63
-63
-62
-62
-61
-61
-60
-59
-59
-58
-57
-57
-57
-56
-57
-56
-56
-56
-56
-56
-55
-55
-54
-53
-52
-51
-51
-51
-50
-50
-50
-49
-49
-49
-48
-48
-47
-47
-47
-47
-47
-47
-47
-47
-47
-46
-46
-46
-46
-46
-46
-46
-47
-47
-47
-47
-47
-47
-47
-47
-47
-47
-47
-47
-46
-46
-45
-45
-44
-43
-43
-42
-41
-41
-40
-39
-39
-38
-37
-36
-35
-34
-32
-31
-29
-28
-27
-26
-25
-24
-23
-22
-21
-20
-20
-19
-18
-18
-17
-16
-15
-14
-13
-12
-11
-10
-9
-8
-7
-6
-5
-4
-3
-3
-2
-1
0
0
1
2
3
4
4
5
6
6
7
7
8
8
9
9
9
9
9
10
10
11
11
12
12
13
14
15
16
17
18
19
20
21
21
22
22
22
22
21
21
21
20
19
19
18
16
15
14
12
11
9
8
6
4
2
0
-1
-4
-6
-7
-9
-11
-13
-15
-16
-18
-19
-20
-22
-23
-24
-25
-27
-28
-30
-31
-33
-35
-36
-38
-39
-41
-42
-44
-45
-46
-47
-48
-48
-49
-50
-51
-52
-53
-54
-56
-57
-59
-60
-62
-64
-65
-67
-68
-70
-72
-73
-75
-77
-79
-80
-81
-82
-83
-84
-85
-86
-87
-87
-87
-87
-87
-87
-87
-86
-86
-85
-85
-85
-86
-86
-86
-87
-87
-88
-89
-90
-91
-92
-94
-95
-96
-97
-98
-99
-100
-100
-100
-100
-100
-100
-100
-100
-100
-99
-99
-99
-99
-99
-98
-98
-97
-97
-97
-96
-96
-95
-94
-94
-94
-93
-92
-92
-92
-91
-91
-92
-92
-92
-93
-93
-93
-93
-94
-94
-94
-94
-95
-95
-95
-95
-95
-94
-94
-94
-94
-93
-93
-92
-92
-91
-91
-91
-91
-91
-90
-90
-90
-90
-91
-91
-91
-92
-93
-94
-95
-97
-98
-99
-100
-101
-102
-102
-102
-101
-101
-100
-99
-98
-97
-95
-93
-92
-91
-90
-90
-90
-90
-90
-90
-91
-91
-92
-93
-94
-95
-97
-98
-100
-102
-103
-104
-106
-107
-108
-109
-110
-111
-111
-111
-112
-112
-111
-111
-110
-110
-109
-108
-107
-107
-106
-105
-104
-104
-104
-103
-103
-103
-103
-103
-103
-103
-103
-103
-103
-103
-103
-102
-102
-102
-102
-102
-102
-102
-101
-101
-101
-102
-102
-101
-101
-100
-100
-99
-99
-98
-98
-97
-97
-97
-97
-97
-97
-97
-97
-98
-98
-99
-99
-99
-100
-100
-100
-100
-100
-99
-99
-98
-97
-97
-96
-96
-95
-95
-95
-95
-95
-96
-96
-97
-98
-99
-100
-102
-103
-104
-105
-106
-107
-108
-109
-109
-110
-110
-111
-111
-111
-111
-111
-111
-111
-110
-110
-110
-109
-109
-108
-107
-107
-106
-106
-105
-105
-105
-105
-105
-105
-105
-105
-105
-104
-104
-104
-104
-104
-104
-103
-103
-103
-103
-102
-102
-102
-102
-102
-102
-103
-103
-103
-103
-103
-103
-103
-103
-103
-103
-102
-102
-101
-101
-101
-101
-100
-100
-100
-99
-99
-99
-99
-98
-98
-97
-97
-96
-96
-95
-95
-94
-94
-94
-94
-94
-95
-95
-96
-97
-98
-99
-100
-101
-102
-103
-104
-105
-106
-106
-107
-107
-107
-106
-106
-105
-104
-103
-102
-101
-100
-99
-98
-97
-97
-96
-96
-96
-96
-96
-96
-96
-96
-97
-97
-98
-99
-100
-102
-103
-104
-106
-107
-108
-109
-109
-110
-110
-109
-109
-108
-107
-107
-106
-105
-104
-103
-102
-102
-101
-101
-101
-100
-99
-99
-98
-97
-97
-96
-95
-94
-93
-92
-92
-91
-90
-89
-88
-88
-87
-87
-87
-86
-86
-86
-86
-85
-85
-84
-84
-83
-82
-82
-81
-80
-80
-79
-78
-77
-77
-76
-76
-76
-75
-75
-75
-75
-75
-75
-75
-75
-75
-76
-76
-77
-77
-78
-78
-79
-80
-81
-82
-83
-84
-84
-85
-86
-86
-86
-86
-86
-86
-86
-86
-86
-86
-86
-86
-86
-86
-86
-86
-86
-87
-87
-88
-89
-90
-91
-92
-93
-93
-95
-96
-97
-98
-100
-101
-103
-104
-106
-107
-109
-109
-110
-111
-111
-112
-112
-111
-111
-110
-110
-109
-109
-108
-108
-107
-107
-106
-106
-106
-106
-105
-105
-105
-105
-104
-104
-105
-105
-105
-105
-106
-106
-106
-106
-107
-108
-108
-109
-110
-111
-111
-111
-112
-112
-112
-112
-112
-112
-111
-111
-111
-110
-110
-109
-109
-109
-108
-108
-108
-108
-108
-107
-107
-107
-106
-106
-105
-104
-103
-102
-101
-100
-100
-99
-98
-98
-97
-97
-97
-97
-97
-97
-97
-97
-97
-97
-96
-96
-95
-94
-92
-90
-88
-85
-82
-78
-73
-68
-62
-55
-47
-38
-28
-17
-6
6
19
32
45
59
72
86
99
112
124
135
145
152
158
162
164
165
163
159
154
146
136
125
112
98
82
66
49
32
14
-2
-19
-36
-52
-66
-80
-92
-103
-112
-120
-126
-131
-135
-137
-138
-138
-137
-135
-133
-130
-127
-124
-120
-117
-114
-111
-109
-107
-105
-103
-101
-100
-98
-97
-97
-97
-97
-97
-98
-99
-100
-101
-101
-102
-103
-103
-104
-104
-104
-104
-104
-104
-103
-103
-102
-102
-102
-101
-101
-100
-100
-100
-100
-99
-99
-99
-98
-98
-98
-97
-97
-96
-96
-95
-94
-94
-94
-93
-93
-92
-92
-92
-93
-93
-94
-94
-94
-95
-95
-95
-96
-96
-96
-96
-96
-97
-97
-96
-96
-96
-95
-95
-95
-94
-94
-93
-93
-92
-92
-91
-90
-90
-89
-88
-88
-88
-88
-88
-88
-89
-89
-89
-90
-90
-91
-91
-91
-91
-91
-90
-90
-89
-88
-87
-86
-85
-84
-83
-82
-81
-80
-80
-80
-81
-81
-81
-81
-82
-82
-82
-83
-83
-84
-84
-84
-85
-85
-85
-86
-86
-86
-85
-85
-85
-85
-84
-84
-83
-83
-82
-81
-80
-80
-78
-78
-77
-76
-75
-74
-73
-73
-72
-71
-71
-70
-69
-68
-68
-67
-66
-65
-65
-64
-63
-62
-62
-62
-61
-61
-61
-61
-60
-60
-60
-60
-60
-60
-60
-59
-58
-57
-56
-55
-54
-52
-51
-50
-49
-48
-47
-46
-46
-45
-44
-44
-44
-44
-44
-44
-44
-45
-45
-45
-44
-44
-44
-44
-44
-43
-43
-42
-42
-41
-40
-39
-37
-36
-34
-32
-30
-27
-25
-23
-20
-17
-15
-13
-11
-10
-9
-8
-8
-7
-7
-7
-7
-7
-7
-7
-7
-7
-8
-8
-8
-8
-9
-9
-9
-8
-8
-7
-7
-6
-6
-6
-5
-4
-4
-3
-2
-1
0
0
1
2
3
3
4
5
5
6
6
6
5
5
4
3
2
1
0
0
-1
-2
-3
-4
-6
-8
-9
-11
-13
-15
-17
-19
-21
-23
-24
-26
-28
-30
-32
-33
-35
-36
-38
-39
-41
-42
-43
-44
-46
-47
-48
-50
-51
-52
-53
-55
-56
-58
-59
-60
-62
-63
-65
-66
-68
-69
-71
-73
-75
-77
-78
-81
-83
-84
-86
-87
-89
-90
-91
-91
-92
-92
-92
-92
-92
-92
-91
-91
-91
-91
-91
-91
-92
-92
-92
-93
-93
-94
-95
-95
-96
-97
-98
-99
-100
-101
-102
-103
-104
-105
-106
-107
-108
-109
-109
-110
-111
-111
-111
-111
-111
-111
-110
-110
-110
-109
-108
-108
-107
-107
-106
-106
-105
-104
-104
-103
-103
-103
-103
-102
-102
-102
-102
-102
-102
-103
-103
-104
-104
-105
-106
-106
-107
-107
-107
-108
-108
-108
-108
-107
-107
-106
-105
-105
-104
-104
-103
-103
-103
-103
-103
-104
-105
-106
-106
-107
-109
-109
-110
-111
-111
-112
-112
-113
-113
-113
-113
-113
-113
-113
-112
-112
-112
-112
-111
-111
-111
-110
-110
-109
-109
-108
-108
-108
-108
-108
-109
-109
-109
-110
-111
-112
-112
-113
-114
-114
-115
-115
-115
-115
-115
-115
-115
-114
-114
-114
-113
-113
-112
-112
-112
-111
-111
-111
-111
-111
-111
-111
-111
-111
-111
-111
-110
-110
-111
-111
-110
-111
-111
-111
-111
-112
-112
-112
-113
-113
-113
-114
-114
-114
-114
-115
-115
-115
-115
-115
-114
-114
-115
-115
-115
-115
-115
-115
-114
-114
-114
-114
-113
-113
-113
-112
-112
-111
-111
-110
-110
-109
-109
-109
-109
-110
-110
-110
-110
-110
-110
-110
-110
-109
-109
-108
-107
-107
-107
-107
-106
-106
-106
-106
-106
-106
-106
-106
-106
-106
-106
-106
-106
-106
-106
-106
-105
-105
-105
-105
-105
-105
-106
-107
-108
-109
-110
-111
-112
-113
-114
-115
-116
-117
-118
-118
-119
-119
-120
-120
-120
-119
-119
-119
-119
-119
-119
-119
-119
-119
-118
-118
-118
-118
-117
-117
-117
-117
-117
-116
-116
-116
-116
-116
-116
-116
-116
-116
-116
-116
-115
-115
-114
-114
-113
-113
-112
-112
-111
-110
-110
-109
-109
-108
-108
-107
-107
-107
-107
-107
-108
-109
-109
-109
-109
-110
-110
-110
-111
-111
-112
-112
-113
-113
-114
-114
-114
-115
-114
-114
-114
-113
-113
-112
-111
-111
-110
-110
-110
-110
-110
-110
-110
-111
-111
-112
-113
-114
-115
-116
-117
-118
-118
-119
-119
-119
-119
-119
-118
-118
-117
-117
-117
-117
-117
-116
-117
-116
-116
-116
-116
-116
-116
-116
-116
-116
-116
-116
-116
-116
-116
-116
-116
-116
-116
-116
-116
-117
-116
-116
-116
-116
-115
-115
-115
-114
-113
-113
-113
-112
-112
-111
-111
-111
-111
-111
-111
-111
-111
-111
-111
-111
-110
-110
-110
-110
-110
-110
-111
-111
-111
-111
-111
-111
-111
-111
-111
-112
-112
-112
-113
-113
-112
-112
-112
-112
-111
-111
-111
-111
-111
-111
-111
-111
-111
-112
-112
-113
-113
-113
-114
-114
-115
-115
-116
-116
-116
-116
-117
-117
-117
-117
-117
-117
-117
-118
-118
-118
-118
-118
-118
-117
-117
-116
-115
-114
-113
-111
-110
-109
-108
-107
-106
-105
-104
-103
-102
-102
-100
-99
-98
-97
-96
-95
-94
-92
-91
-90
-88
-87
-86
-85
-84
-84
-84
-84
-84
-84
-84
-84
-85
-85
-86
-86
-87
-88
-89
-90
-91
-92
-93
-94
-96
-97
-98
-99
-101
-102
-104
-105
-106
-108
-108
-109
-110
-111
-111
-111
-112
-112
-112
-112
-112
-113
-113
-113
-113
-113
-113
-114
-114
-114
-114
-114
-114
-114
-114
-114
-114
-114
-114
-114
-115
-115
-115
-116
-117
-117
-117
-118
-118
-119
-119
-119
-120
-120
-120
-120
-121
-121
-121
-121
-121
-122
-122
-123
-123
-124
-124
-124
-125
-125
-125
-125
-125
-124
-124
-123
-123
-122
-122
-121
-120
-120
-119
-119
-118
-118
-117
-117
-116
-115
-115
-114
-114
-115
-115
-116
-117
-117
-118
-119
-120
-121
-122
-124
-125
-127
-128
-129
-131
-132
-133
-133
-133
-133
-133
-133
-133
-132
-131
-131
-130
-130
-129
-128
-128
-127
-127
-126
-126
-125
-124
-123
-122
-121
-120
-118
-117
-115
-114
-112
-110
-107
-105
-102
-100
-96
-92
-87
-82
-76
-70
-63
-55
-46
-36
-25
-14
-1
10
24
37
50
63
77
90
103
115
126
136
144
150
154
157
157
156
153
147
139
130
118
104
89
72
55
37
19
1
-16
-34
-51
-67
-82
-96
-108
-119
-128
-136
-143
-148
-152
-154
-156
-156
-156
-155
-153
-150
-148
-145
-143
-139
-136
-133
-129
-125
-122
-119
-117
-114
-113
-111
-110
-109
-108
-108
-107
-107
-106
-106
-106
-106
-106
-107
-108
-108
-109
-110
-110
-111
-112
-113
-115
-116
-117
-118
-120
-121
-122
-123
-124
-124
-124
-124
-124
-124
-123
-123
-122
-122
-121
-121
-120
-120
-119
-119
-118
-118
-118
-117
-117
-116
-116
-115
-115
-114
-114
-114
-114
-113
-113
-113
-113
-114
-114
-114
-114
-114
-114
-114
-114
-114
-113
-112
-112
-111
-110
-109
-108
-107
-106
-106
-105
-105
-105
-105
-105
-104
-104
-105
-105
-106
-106
-107
-107
-108
-108
-109
-109
-109
-110
-110
-110
-111
-111
-111
-111
-111
-111
-111
-110
-110
-109
-108
-108
-107
-106
-105
-104
-104
-103
-103
-102
-102
-101
-101
-101
-101
-101
-100
-100
-99
-99
-98
-98
-97
-97
-96
-96
-95
-94
-94
-93
-93
-92
-92
-92
-92
-92
-92
-92
-91
-91
-91
-91
-91
-91
-91
-91
-90
-90
-90
-90
-90
-90
-90
-90
-89
-89
-88
-87
-86
-85
-84
-82
-81
-80
-80
-79
-78
-77
-77
-76
-76
-75
-75
-75
-74
-74
-74
-74
-74
-73
-73
-72
-71
-70
-70
-69
-68
-66
-66
-64
-63
-62
-61
-60
-59
-59
-58
-57
-57
-56
-55
-54
-53
-52
-52
-51
-50
-50
-49
-49
-48
-48
-47
-47
-46
-45
-44
-43
-42
-41
-39
-38
-36
-35
-34
-32
-31
-29
-28
-27
-26
-25
-25
-24
-23
-22
-21
-20
-19
-18
-17
-16
-15
-14
-12
-11
-9
-8
-7
-6
-5
-3
-3
-2
-1
-1
0
-1
-1
-2
-3
-4
-5
-6
-7
-9
-11
-13
-16
-19
-22
-25
-28
-31
-34
-36
-39
-41
-43
-45
-46
-48
-49
-50
-51
-52
-53
-54
-55
-56
-57
-58
-59
-60
-61
-62
-64
-65
-66
-68
-69
-70
-71
-72
-74
-75
-76
-77
-79
-80
-82
-83
-85
-86
-88
-89
-91
-92
-93
-94
-95
-96
-96
-97
-98
-99
-99
-100
-101
-101
-102
-103
-104
-104
-105
-105
-106
-107
-107
-107
-107
-107
-107
-107
-108
-108
-108
-108
-108
-108
-108
-108
-108
-108
-108
-109
-109
-109
-109
-109
-109
-109
-109
-109
-109
-110
-110
-110
-111
-111
-112
-112
-112
-113
-113
-113
-114
-114
-114
-113
-113
-113
-113
-113
-114
-114
-114
-114
-114
-114
-115
-115
-115
-116
-116
-116
-117
-117
-117
-116
-116
-115
-114
-113
-112
-111
-110
-109
-109
-109
-109
-108
-109
-109
-109
-110
-110
-111
-112
-112
-113
-114
-114
-115
-116
-116
-117
-117
-118
-118
-118
-118
-119
-119
-118
-118
-118
-118
-117
-117
-117
-116
-116
-115
-115
-115
-114
-114
-114
-114
-114
-115
-115
-115
-115
-115
-116
-116
-116
-115
-116
-116
-115
-115
-115
-115
-115
-115
-115
-115
-115
-115
-115
-115
-115
-115
-115
-115
-114
-113
-112
-112
-110
-109
-109
-108
-107
-107
-108
-108
-108
-108
-109
-109
-110
-110
-112
-113
-113
-114
-115
-116
-116
-117
-117
-118
-117
-117
-117
-116
-116
-115
-115
-115
-114
-113
-113
-112
-111
-110
-109
-108
-107
-107
-106
-106
-106
-105
-106
-106
-106
-106
-106
-107
-107
-107
-108
-108
-109
-109
-110
-111
-111
-112
-113
-113
-114
-114
-115
-116
-117
-118
-119
-120
-121
-122
-123
-123
-124
-124
-124
-124
-124
-123
-123
-122
-121
-121
-120
-120
-120
-119
-119
-119
-118
-118
-118
-118
-117
-117
-116
-116
-115
-114
-114
-113
-113
-112
-112
-112
-111
-112
-112
-113
-114
-114
-115
-115
-115
-116
-116
-117
-117
-118
-119
-120
-120
-121
-121
-122
-123
-123
-124
-124
-124
-125
-125
-125
-125
-125
-125
-124
-124
-123
-123
-123
-122
-122
-122
-122
-121
-121
-121
-121
-121
-121
-121
-121
-121
-121
-121
-121
-121
-121
-121
-121
-121
-120
-121
-121
-121
-120
-120
-120
-119
-119
-118
-117
-116
-115
-113
-113
-112
-111
-111
-111
-111
-111
-111
-112
-112
-114
-115
-116
-117
-119
-121
-122
-123
-124
-125
-126
-126
-127
-127
-127
-127
-127
-127
-127
-127
-126
-126
-126
-125
-125
-125
-125
-125
-125
-125
-126
-126
-126
-126
-127
-126
-127
-127
-127
-128
-128
-128
-129
-129
-128
-128
-128
-127
-126
-126
-125
-125
-125
-125
-125
-125
-125
-126
-126
-127
-127
-128
-129
-130
-131
-132
-133
-134
-135
-135
-136
-135
-135
-135
-135
-134
-133
-133
-133
-132
-132
-132
-131
-131
-131
-131
-130
-130
-129
-129
-128
-128
-127
-127
-127
-126
-126
-126
-126
-126
-126
-126
-126
-126
-126
-126
-126
-126
-126
-125
-125
-125
-125
-125
-124
-124
-124
-124
-124
-124
-124
-124
-124
-123
-123
-124
-124
-124
-123
-123
-122
-122
-121
-120
-118
-117
-116
-115
-113
-112
-110
-109
-107
-104
-102
-100
-98
-96
-94
-94
-93
-93
-92
-92
-92
-93
-93
-95
-96
-98
-100
-102
-104
-106
-108
-110
-112
-113
-114
-115
-115
-115
-114
-114
-114
-113
-112
-112
-112
-111
-111
-111
-111
-110
-110
-111
-111
-111
-111
-111
-112
-112
-112
-112
-112
-112
-112
-113
-113
-114
-114
-115
-115
-116
-116
-116
-117
-117
-117
-118
-118
-118
-118
-119
-119
-119
-119
-120
-121
-121
-122
-122
-123
-123
-124
-124
-125
-125
-125
-125
-125
-125
-125
-125
-125
-125
-125
-125
-126
-126
-126
-126
-127
-127
-127
-127
-128
-128
-128
-128
-128
-128
-128
-128
-128
-128
-128
-129
-129
-129
-129
-129
-129
-129
-129
-130
-130
-130
-130
-130
-130
-129
-129
-129
-129
-129
-129
-129
-130
-130
-130
-130
-131
-131
-131
-131
-132
-132
-131
-132
-132
-131
-131
-131
-131
-131
-132
-132
-133
-133
-133
-134
-134
-134
-134
-135
-135
-134
-134
-133
-133
-132
-131
-130
-128
-126
-124
-122
-120
-117
-114
-111
-108
-103
-99
-94
-88
-81
-74
-66
-57
-47
-37
-26
-14
-1
11
24
37
51
64
78
91
104
116
127
137
145
152
157
160
162
161
158
153
145
134
121
106
90
72
53
34
14
-5
-25
-45
-64
-82
-100
-116
-131
-144
-155
-165
-172
-178
-183
-186
-188
-188
-187
-186
-183
-180
-177
-173
-169
-164
-160
-156
-151
-147
-143
-139
-136
-133
-130
-128
-126
-124
-123
-122
-121
-120
-120
-120
-119
-119
-119
-119
-119
-119
-119
-119
-119
-120
-120
-121
-121
-122
-122
-122
-122
-123
-123
-123
-123
-122
-122
-122
-121
-121
-121
-120
-119
-119
-118
-118
-117
-117
-117
-118
-118
-118
-119
-119
-119
-119
-119
-119
-119
-119
-119
-119
-120
-120
-120
-121
-121
-121
-121
-121
-121
-121
-121
-120
-120
-119
-119
-118
-118
-117
-116
-116
-115
-114
-114
-113
-113
-112
-112
-112
-112
-112
-112
-112
-112
-112
-112
-112
-112
-111
-111
-112
-112
-112
-113
-114
-114
-114
-115
-115
-116
-116
-117
-117
-117
-117
-116
-116
-116
-115
-115
-114
-114
-113
-113
-112
-112
-111
-111
-110
-109
-109
-108
-107
-106
-105
-104
-102
-101
-99
-98
-96
-94
-92
-91
-90
-90
-90
-91
-92
-92
-93
-93
-94
-95
-95
-96
-98
-99
-100
-101
-103
-103
-104
-105
-105
-105
-105
-106
-106
-105
-105
-105
-104
-103
-102
-101
-100
-99
-98
-97
-96
-95
-94
-93
-93
-92
-91
-90
-90
-89
-88
-88
-87
-87
-86
-85
-84
-83
-82
-81
-80
-79
-79
-78
-77
-77
-76
-75
-75
-74
-73
-72
-71
-70
-69
-68
-67
-66
-65
-63
-62
-61
-59
-58
-57
-56
-55
-55
-54
-53
-52
-51
-51
-50
-49
-48
-47
-46
-45
-44
-43
-42
-41
-41
-40
-39
-38
-37
-36
-35
-34
-33
-32
-31
-29
-28
-27
-25
-24
-23
-21
-20
-19
-18
-18
-17
-17
-17
-17
-17
-18
-19
-20
-20
-22
-23
-24
-26
-27
-29
-31
-33
-35
-37
-39
-42
-44
-46
-49
-51
-53
-55
-56
-58
-59
-60
-61
-62
-63
-64
-65
-66
-67
-69
-70
-72
-73
-74
-76
-77
-79
-80
-82
-83
-85
-87
-88
-90
-91
-93
-94
-95
-96
-98
-99
-100
-101
-102
-103
-104
-104
-105
-105
-105
-105
-105
-104
-104
-104
-104
-104
-104
-105
-107
-108
-110
-111
-113
-115
-117
-119
-122
-124
-127
-129
-131
-133
-135
-136
-138
-139
-140
-140
-141
-141
-141
-141
-141
-141
-140
-140
-140
-139
-139
-138
-138
-137
-136
-136
-135
-135
-134
-134
-134
-134
-134
-134
-134
-135
-135
-135
-136
-136
-135
-135
-135
-135
-134
-134
-134
-134
-134
-134
-135
-135
-135
-136
-136
-137
-137
-138
-139
-139
-139
-139
-140
-140
-140
-140
-140
-141
-140
-141
-141
-141
-141
-141
-142
-142
-142
-142
-143
-143
-143
-143
-143
-143
-143
-143
-143
-142
-142
-142
-142
-141
-141
-141
-141
-140
-140
-140
-140
-139
-139
-138
-138
-138
-138
-137
-138
-138
-137
-137
-138
-138
-138
-138
-139
-139
-139
-139
-139
-139
-138
-138
-137
-136
-136
-135
-134
-133
-133
-132
-132
-133
-133
-134
-134
-135
-136
-137
-139
-140
-141
-142
-144
-145
-146
-147
-147
-148
-148
-149
-149
-149
-149
-149
-148
-148
-148
-147
-147
-146
-145
-144
-142
-141
-140
-139
-138
-137
-136
-135
-134
-134
-133
-133
-133
-132
-132
-132
-133
-133
-133
-134
-134
-135
-136
-137
-138
-138
-139
-140
-141
-142
-143
-143
-144
-144
-145
-145
-145
-145
-145
-144
-143
-143
-142
-141
-140
-139
-139
-138
-138
-139
-139
-139
-139
-139
-140
-140
-140
-141
-141
-141
-141
-141
-140
-140
-139
-138
-137
-136
-135
-134
-133
-133
-133
-133
-133
-134
-134
-135
-135
-135
-136
-137
-137
-138
-140
-141
-142
-143
-144
-145
-146
-146
-147
-148
-148
-148
-148
-148
-147
-147
-146
-146
-145
-145
-144
-144
-143
-143
-142
-142
-142
-142
-142
-143
-143
-143
-143
-143
-143
-143
-143
-143
-142
-142
-142
-141
-140
-140
-139
-139
-139
-138
-138
-138
-138
-138
-138
-138
-138
-138
-138
-139
-139
-139
-139
-139
-140
-140
-141
-141
-142
-142
-143
-143
-143
-143
-143
-143
-142
-142
-141
-140
-139
-138
-137
-136
-135
-134
-134
-134
-134
-133
-134
-134
-134
-134
-134
-134
-135
-135
-135
-136
-136
-137
-137
-138
-138
-139
-139
-140
-140
-140
-141
-142
-142
-143
-144
-145
-145
-145
-145
-146
-146
-145
-146
-146
-145
-145
-145
-145
-145
-145
-145
-145
-145
-145
-145
-145
-144
-144
-143
-143
-142
-142
-142
-141
-140
-140
-139
-139
-139
-138
-137
-137
-136
-136
-135
-134
-134
-133
-132
-131
-131
-130
-129
-128
-127
-127
-126
-126
-125
-124
-124
-124
-123
-122
-121
-120
-119
-118
-117
-117
-116
-115
-115
-114
-113
-113
-113
-113
-113
-114
-115
-116
-117
-118
-119
-121
-122
-123
-124
-125
-125
-126
-127
-127
-128
-129
-129
-130
-131
-131
-132
-132
-132
-132
-132
-132
-132
-132
-132
-132
-131
-131
-131
-130
-129
-129
-128
-128
-127
-126
-126
-125
-125
-124
-124
-124
-124
-124
-124
-124
-125
-125
-127
-128
-130
-131
-133
-135
-137
-139
-141
-144
-146
-147
-149
-151
-152
-152
-153
-154
-154
-153
-153
-153
-152
-151
-151
-151
-150
-150
-150
-150
-150
-150
-150
-150
-150
-150
-150
-150
-150
-150
-150
-150
-150
-150
-150
-150
-150
-150
-150
-150
-150
-150
-150
-150
-149
-149
-149
-148
-148
-147
-146
-146
-145
-145
-144
-144
-144
-143
-143
-143
-143
-143
-143
-143
-143
-143
-143
-143
-143
-143
-143
-142
-142
-142
-142
-142
-142
-141
-141
-140
-139
-138
-136
-134
-131
-128
-124
-120
-115
-109
-103
-96
-89
-82
-74
-66
-56
-46
-35
-24
-12
0
12
24
37
49
62
74
86
97
108
117
125
131
135
137
138
136
133
127
119
109
98
84
70
54
37
19
1
-16
-34
-52
-70
-86
-102
-117
-131
-143
-153
-162
-170
-176
-180
-183
-185
-185
-185
-183
-181
-178
-175
-172
-168
-164
-160
-157
-153
-150
-147
-144
-141
-139
-137
-135
-134
-132
-131
-129
-128
-127
-127
-126
-126
-125
-125
-125
-125
-125
-125
-125
-125
-125
-125
-125
-124
-124
-123
-122
-121
-120
-119
-118
-116
-116
-115
-115
-115
-115
-115
-116
-116
-117
-118
-119
-120
-121
-122
-124
-125
-127
-128
-130
-131
-132
-134
-135
-136
-136
-137
-137
-137
-137
-137
-136
-135
-134
-133
-132
-130
-129
-128
-126
-124
-123
-122
-121
-120
-119
-118
-118
-118
-117
-117
-117
-116
-116
-116
-116
-116
-116
-116
-116
-116
-116
-116
-116
-117
-117
-117
-117
-117
-117
-117
-117
-116
-116
-115
-115
-114
-113
-112
-112
-111
-110
-110
-109
-109
-108
-108
-107
-107
-106
-105
-105
-104
-103
-102
-102
-101
-101
-101
-100
-100
-99
-99
-100
-100
-100
-100
-100
-101
-101
-101
-101
-101
-101
-100
-100
-99
-98
-97
-97
-96
-95
-94
-94
-93
-92
-91
-91
-90
-90
-89
-88
-87
-87
-86
-85
-84
-83
-82
-81
-80
-78
-78
-77
-76
-75
-75
-74
-74
-73
-73
-73
-72
-72
-72
-71
-71
-71
-71
-70
-70
-69
-69
-69
-69
-69
-68
-68
-68
-67
-67
-66
-65
-64
-63
-62
-61
-59
-58
-56
-55
-53
-52
-50
-49
-47
-46
-45
-43
-42
-41
-40
-38
-37
-36
-35
-34
-34
-34
-33
-33
-33
-33
-33
-33
-32
-32
-33
-32
-32
-32
-31
-30
-29
-28
-27
-26
-24
-23
-21
-20
-18
-17
-15
-14
-13
-12
-11
-10
-9
-8
-7
-6
-5
-5
-4
-4
-3
-3
-3
-2
-3
-3
-4
-5
-6
-7
-8
-9
-11
-12
-14
-16
-17
-19
-20
-22
-23
-25
-27
-28
-30
-32
-34
-36
-37
-39
-41
-43
-45
-46
-48
-49
-50
-51
-53
-53
-54
-55
-56
-57
-58
-59
-61
-62
-63
-64
-65
-67
-68
-69
-71
-72
-74
-75
-77
-78
-79
-80
-81
-83
-84
-86
-88
-89
-91
-93
-94
-96
-98
-99
-101
-102
-103
-104
-105
-106
-106
-107
-107
-108
-108
-108
-109
-109
-109
-109
-109
-109
-109
-109
-109
-108
-108
-107
-107
-106
-106
-106
-105
-105
-104
-104
-104
-104
-104
-104
-104
-104
-104
-104
-104
-104
-104
-103
-103
-103
-103
-103
-103
-103
-102
-102
-103
-103
-103
-103
-103
-103
-103
-104
-104
-103
-103
-103
-103
-102
-102
-101
-101
-100
-100
-99
-99
-98
-98
-99
-99
-100
-100
-101
-101
-101
-101
-102
-102
-102
-103
-103
-103
-104
-104
-104
-105
-105
-105
-105
-105
-104
-104
-103
-103
-102
-101
-101
-101
-100
-100
-100
-100
-100
-100
-101
-101
-102
-102
-103
-104
-105
-106
-107
-108
-109
-109
-110
-110
-110
-109
-109
-109
-108
-108
-108
-107
-107
-107
-107
-107
-107
-107
-107
-107
-107
-107
-107
-107
-107
-107
-108
-108
-108
-108
-108
-109
-109
-109
-109
-110
-109
-109
-110
-110
-110
-109
-109
-109
-108
-108
-107
-107
-106
-106
-105
-105
-104
-104
-104
-104
-103
-103
-102
-102
-101
-100
-99
-98
-98
-97
-97
-97
-97
-97
-97
-97
-98
-98
-99
-100
-101
-102
-103
-104
-105
-106
-106
-107
-108
-108
-108
-108
-108
-107
-107
-107
-106
-105
-105
-105
-104
-104
-103
-103
-102
-101
-101
-100
-100
-99
-100
-100
-100
-100
-101
-102
-102
-103
-104
-105
-106
-107
-108
-109
-109
-109
-110
-110
-110
-110
-110
-110
-109
-109
-109
-109
-108
-108
-108
-109
-108
-108
-108
-108
-108
-107
-107
-107
-107
-106
-106
-106
-105
-105
-105
-105
-105
-104
-104
-104
-104
-105
-105
-106
-106
-106
-106
-107
-107
-107
-107
-108
-108
-108
-109
-110
-110
-111
-112
-112
-112
-113
-113
-113
-113
-113
-112
-112
-111
-110
-110
-109
-108
-108
-107
-107
-106
-106
-105
-104
-104
-104
-104
-104
-103
-103
-103
-102
-102
-102
-101
-101
-101
-101
-101
-101
-101
-102
-102
-102
-102
-102
-103
-103
-104
-104
-105
-105
-106
-106
-106
-107
-107
-108
-108
-109
-110
-111
-112
-113
-113
-113
-114
-115
-115
-115
-115
-115
-114
-114
-114
-113
-113
-113
-113
-112
-112
-112
-112
-112
-112
-112
-111
-111
-111
-110
-110
-109
-109
-108
-108
-108
-107
-107
-107
-108
-108
-108
-108
-109
-109
-109
-110
-110
-111
-111
-111
-111
-111
-111
-111
-110
-110
-110
-110
-110
-110
-110
-110
-110
-110
-110
-110
-110
-109
-109
-109
-109
-108
-108
-107
-107
-106
-105
-105
-105
-104
-104
-103
-103
-102
-102
-101
-100
-100
-99
-98
-96
-95
-93
-92
-91
-91
-90
-90
-90
-91
-91
-92
-94
-95
-97
-98
-100
-101
-103
-104
-106
-108
-109
-111
-112
-113
-114
-114
-115
-115
-115
-114
-114
-114
-114
-113
-113
-112
-112
-111
-111
-110
-109
-109
-109
-109
-109
-109
-109
-109
-109
-110
-110
-110
-110
-110
-110
-110
-110
-109
-109
-108
-107
-107
-106
-106
-105
-105
-104
-104
-104
-104
-103
-103
-103
-102
-102
-102
-101
-101
-100
-99
-98
-98
-97
-96
-96
-95
-95
-94
-94
-94
-94
-93
-93
-93
-92
-92
-91
-91
-91
-90
-90
-89
-88
-88
-87
-86
-86
-86
-85
-85
-84
-84
-83
-83
-83
-82
-82
-82
-81
-81
-80
-80
-79
-79
-79
-78
-78
-78
-77
-77
-77
-76
-76
-76
-76
-77
-78
-79
-80
-81
-82
-83
-85
-87
-88
-91
-93
-95
-98
-101
-103
-106
-108
-110
-111
-112
-113
-114
-114
-115
-115
-115
-115
-114
-114
-113
-113
-112
-112
-111
-111
-110
-110
-110
-109
-109
-109
-108
-108
-107
-107
-106
-106
-107
-107
-107
-108
-109
-110
-111
-111
-112
-113
-114
-114
-115
-115
-115
-115
-116
-116
-116
-116
-115
-115
-115
-115
-114
-114
-114
-114
-114
-114
-114
-114
-114
-114
-114
-114
-113
-113
-113
-113
-113
-113
-113
-113
-113
-113
-113
-114
-114
-114
-114
-114
-114
-114
-114
-114
-113
-113
-112
-112
-111
-110
-109
-108
-107
-106
-105
-104
-103
-101
-100
-98
-97
-95
-93
-92
-91
-90
-89
-89
-88
-86
-85
-84
-83
-81
-80
-78
-75
-72
-68
-64
-58
-51
-43
-34
-24
-12
0
11
25
38
52
66
79
93
107
119
131
141
150
157
162
166
168
167
165
161
155
146
136
124
110
95
79
62
45
27
10
-7
-24
-40
-55
-70
-83
-94
-104
-113
-121
-127
-131
-134
-137
-138
-138
-138
-136
-135
-132
-130
-127
-123
-120
-116
-112
-109
-105
-102
-99
-96
-93
-91
-89
-88
-88
-87
-88
-88
-89
-90
-91
-93
-94
-96
-97
-99
-101
-103
-104
-106
-107
-108
-110
-110
-111
-111
-112
-111
-111
-110
-109
-108
-107
-106
-105
-104
-103
-102
-101
-100
-99
-98
-98
-98
-98
-97
-97
-97
-97
-97
-97
-97
-96
-96
-95
-94
-93
-92
-92
-91
-91
-90
-90
-90
-90
-90
-91
-92
-94
-95
-96
-98
-99
-100
-102
-103
-104
-105
-105
-106
-107
-107
-108
-108
-108
-108
-108
-108
-107
-107
-106
-106
-105
-105
-104
-103
-103
-102
-101
-101
-100
-99
-99
-98
-98
-97
-97
-96
-96
-95
-95
-94
-94
-93
-93
-92
-92
-91
-91
-91
-90
-90
-89
-89
-89
-88
-88
-88
-88
-87
-87
-86
-86
-85
-84
-84
-83
-83
-83
-83
-82
-82
-82
-82
-82
-82
-83
-83
-83
-84
-84
-84
-84
-83
-83
-82
-82
-81
-80
-80
-79
-79
-78
-78
-77
-77
-77
-77
-77
-77
-78
-78
-78
-78
-78
-78
-77
-77
-77
-77
-76
-76
-75
-75
-75
-74
-74
-74
-73
-72
-72
-71
-71
-70
-69
-68
-66
-65
-64
-63
-62
-61
-60
-59
-58
-57
-57
-56
-55
-54
-53
-52
-51
-50
-49
-48
-47
-46
-44
-43
-42
-41
-40
-39
-38
-37
-37
-36
-36
-35
-34
-33
-32
-31
-30
-29
-28
-26
-25
-24
-22
-21
-19
-18
-17
-15
-14
-13
-12
-11
-11
-10
-10
-9
-9
-9
-9
-9
-9
-9
-9
-10
-10
-11
-11
-11
-12
-12
-12
-12
-11
-11
-10
-10
-9
-9
-8
-8
-7
-7
-7
-8
-8
-10
-11
-13
-15
-17
-19
-22
-25
-28
-30
-33
-35
-38
-40
-42
-44
-46
-48
-50
-51
-53
-54
-56
-57
-58
-60
-61
-62
-63
-64
-65
-66
-66
-67
-68
-69
-71
-72
-73
-75
-77
-78
-80
-82
-83
-85
-86
-88
-89
-90
-91
-92
-93
-94
-94
-95
-95
-95
-96
-96
-97
-97
-98
-99
-100
-101
-102
-103
-104
-105
-105
-106
-107
-107
-108
-109
-109
-109
-109
-110
-110
-110
-109
-109
-110
-109
-109
-109
-109
-109
-109
-108
-108
-108
-107
-107
-107
-107
-108
-108
-109
-110
-110
-111
-112
-112
-113
-114
-115
-116
-116
-117
-118
-118
-118
-119
-119
-120
-120
-120
-121
-121
-121
-121
-121
-121
-121
-121
-121
-121
-120
-119
-118
-117
-117
-116
-115
-115
-114
-114
-114
-114
-114
-114
-114
-114
-114
-115
-115
-116
-116
-117
-117
-117
-118
-118
-118
-118
-118
-119
-119
-119
-119
-119
-119
-118
-118
-118
-118
-117
-117
-116
-116
-115
-115
-115
-114
-114
-113
-113
-113
-113
-112
-112
-112
-112
-111
-111
-111
-110
-109
-109
-108
-108
-108
-108
-109
-109
-110
-111
-112
-113
-114
-115
-116
-118
-119
-121
-122
-123
-124
-125
-125
-126
-126
-126
-126
-125
-125
-124
-124
-123
-123
-123
-122
-122
-121
-121
-121
-121
-120
-120
-120
-120
-119
-119
-119
-119
-119
-119
-119
-119
-119
-119
-120
-120
-120
-120
-121
-121
-121
-120
-120
-120
-119
-119
-119
-118
-117
-116
-116
-115
-114
-114
-113
-113
-113
-113
-113
-113
-113
-113
-113
-113
-113
-113
-114
-114
-114
-115
-116
-116
-117
-118
-118
-119
-119
-119
-120
-120
-120
-120
-119
-119
-118
-118
-118
-117
-116
-116
-116
-116
-116
-116
-117
-117
-117
-117
-118
-118
-119
-119
-119
-119
-119
-120
-120
-121
-121
-121
-122
-123
-123
-124
-125
-125
-125
-126
-126
-126
-126
-126
-127
-127
-127
-127
-127
-126
-126
-126
-126
-125
-125
-125
-125
-124
-123
-123
-123
-122
-121
-120
-119
-118
-118
-117
-117
-116
-116
-116
-116
-117
-117
-118
-119
-120
-120
-121
-122
-123
-124
-124
-125
-125
-126
-126
-126
-127
-127
-127
-127
-127
-127
-127
-127
-126
-125
-125
-125
-124
-123
-122
-121
-120
-119
-118
-117
-116
-115
-115
-115
-115
-116
-116
-116
-116
-117
-117
-118
-118
-119
-119
-120
-120
-121
-122
-122
-123
-123
-123
-124
-124
-124
-125
-125
-126
-126
-126
-126
-127
-127
-126
-126
-126
-125
-125
-124
-124
-123
-123
-123
-123
-122
-122
-122
-122
-121
-121
-121
-121
-120
-120
-119
-119
-119
-119
-119
-119
-119
-120
-120
-120
-121
-121
-122
-122
-122
-123
-123
-123
-123
-123
-123
-122
-121
-120
-119
-118
-117
-117
-117
-117
-117
-117
-117
-117
-117
-117
-118
-118
-118
-119
-119
-120
-120
-120
-121
-121
-121
-121
-122
-122
-122
-123
-124
-124
-125
-125
-126
-126
-126
-127
-127
-128
-128
-128
-129
-129
-129
-129
-129
-129
-129
-129
-129
-129
-129
-129
-130
-129
-129
-129
-128
-128
-127
-127
-127
-127
-127
-127
-127
-127
-127
-127
-127
-127
-128
-128
-128
-128
-128
-128
-128
-128
-128
-128
-128
-128
-128
-129
-129
-129
-129
-130
-130
-130
-130
-130
-131
-130
-130
-130
-129
-129
-128
-128
-128
-127
-127
-127
-127
-127
-127
-127
-127
-127
-127
-128
-128
-128
-128
-128
-128
-128
-128
-128
-129
-128
-128
-128
-128
-128
-127
-127
-127
-126
-125
-124
-123
-122
-121
-119
-117
-116
-114
-112
-111
-110
-109
-108
-107
-107
-107
-108
-109
-109
-110
-111
-112
-113
-114
-115
-116
-117
-118
-119
-119
-120
-120
-120
-120
-119
-119
-118
-118
-117
-115
-114
-113
-112
-110
-109
-107
-106
-104
-103
-102
-101
-100
-99
-99
-99
-99
-100
-100
-101
-102
-103
-104
-106
-107
-109
-110
-112
-113
-115
-117
-118
-119
-121
-122
-123
-124
-125
-126
-127
-127
-128
-129
-129
-130
-130
-130
-130
-130
-130
-131
-131
-131
-131
-132
-133
-133
-134
-135
-136
-136
-137
-137
-137
-138
-138
-138
-137
-137
-137
-137
-136
-136
-136
-135
-135
-135
-135
-135
-135
-135
-135
-135
-134
-134
-134
-133
-133
-132
-132
-132
-132
-131
-131
-131
-131
-131
-131
-132
-132
-132
-133
-133
-133
-133
-133
-134
-134
-134
-134
-135
-135
-135
-135
-135
-136
-136
-137
-137
-138
-138
-138
-138
-139
-138
-138
-138
-137
-137
-136
-136
-135
-135
-134
-134
-133
-133
-133
-132
-132
-131
-130
-130
-129
-128
-127
-126
-125
-124
-123
-122
-120
-118
-116
-114
-112
-109
-106
-103
-99
-95
-90
-85
-78
-72
-64
-56
-46
-36
-26
-15
-3
9
21
33
46
59
71
83
95
106
115
123
130
135
138
140
139
137
133
127
118
108
96
82
67
51
35
17
0
-17
-34
-52
-68
-83
-98
-111
-122
-132
-141
-149
-155
-159
-163
-165
-167
-167
-167
-166
-165
-162
-160
-158
-155
-152
-149
-145
-142
-139
-136
-134
-131
-129
-127
-126
-125
-124
-123
-122
-121
-120
-120
-120
-119
-119
-118
-117
-117
-116
-115
-114
-113
-112
-111
-111
-110
-109
-109
-109
-109
-109
-109
-109
-109
-109
-110
-110
-111
-111
-112
-113
-113
-114
-115
-115
-116
-116
-117
-117
-116
-115
-115
-114
-113
-113
-113
-112
-112
-112
-112
-111
-111
-110
-110
-111
-111
-112
-113
-114
-115
-116
-117
-118
-119
-119
-119
-119
-119
-119
-119
-119
-118
-118
-117
-117
-116
-116
-116
-116
-115
-114
-114
-114
-113
-112
-111
-110
-109
-108
-108
-107
-106
-105
-105
-105
-104
-104
-104
-104
-104
-103
-103
-103
-103
-102
-102
-102
-101
-101
-100
-100
-99
-99
-98
-98
-97
-97
-97
-96
-96
-95
-95
-95
-94
-94
-93
-93
-92
-91
-91
-91
-91
-91
-91
-91
-91
-91
-91
-91
-91
-91
-91
-91
-90
-89
-88
-87
-86
-84
-83
-82
-81
-81
-81
-81
-81
-81
-80
-81
-81
-81
-81
-82
-83
-83
-84
-85
-85
-85
-85
-86
-85
-85
-85
-84
-83
-82
-82
-81
-79
-78
-76
-75
-73
-72
-70
-68
-67
-66
-65
-64
-63
-62
-61
-61
-60
-60
-60
-61
-61
-61
-61
-61
-61
-61
-61
-60
-59
-58
-58
-57
-56
-54
-53
-52
-51
-50
-49
-48
-47
-46
-45
-44
-43
-42
-41
-40
-39
-38
-37
-36
-34
-33
-32
-31
-31
-30
-29
-28
-27
-26
-25
-24
-23
-21
-20
-19
-17
-15
-14
-13
-12
-11
-10
-10
-9
-9
-9
-10
-10
-10
-11
-12
-12
-13
-14
-15
-15
-16
-17
-17
-18
-18
-19
-20
-20
-21
-21
-22
-23
-24
-25
-26
-28
-29
-31
-33
-35
-37
-39
-41
-43
-46
-48
-51
-54
-56
-59
-62
-64
-65
-67
-69
-71
-72
-74
-75
-76
-76
-77
-78
-79
-80
-81
-82
-83
-84
-86
-87
-88
-90
-91
-93
-94
-95
-96
-97
-97
-98
-99
-100
-100
-101
-101
-102
-102
-102
-102
-103
-103
-102
-103
-103
-102
-102
-101
-101
-100
-98
-98
-98
-98
-98
-99
-100
-102
-103
-104
-106
-107
-108
-110
-111
-113
-114
-116
-118
-119
-120
-121
-122
-122
-122
-123
-123
-123
-123
-123
-123
-123
-122
-122
-122
-121
-121
-121
-120
-120
-119
-119
-119
-118
-118
-118
-118
-118
-118
-118
-118
-118
-118
-118
-118
-118
-117
-117
-116
-116
-115
-114
-114
-114
-113
-113
-113
-113
-113
-113
-113
-114
-114
-114
-114
-115
-115
-115
-115
-115
-115
-115
-115
-115
-115
-115
-115
-115
-116
-116
-116
-116
-117
-117
-118
-118
-118
-119
-119
-119
-119
-119
-120
-120
-120
-120
-120
-120
-120
-120
-120
-120
-120
-120
-120
-119
-119
-118
-118
-117
-116
-116
-116
-115
-115
-115
-115
-115
-115
-115
-115
-115
-114
-114
-114
-114
-114
-114
-113
-113
-113
-113
-113
-113
-113
-112
-113
-113
-113
-114
-114
-115
-115
-116
-116
-117
-117
-117
-117
-117
-117
-117
-116
-116
-116
-115
-115
-115
-116
-116
-116
-116
-117
-117
-117
-118
-118
-118
-118
-118
-118
-118
-117
-117
-117
-116
-116
-115
-114
-114
-114
-114
-114
-114
-114
-114
-114
-115
-115
-115
-115
-115
-116
-116
-117
-118
-119
-120
-121
-121
-122
-122
-122
-122
-122
-122
-122
-121
-121
-121
-120
-120
-119
-119
-118
-117
-117
-117
-116
-116
-116
-116
-116
-116
-116
-115
-115
-115
-115
-114
-114
-113
-113
-112
-112
-111
-111
-111
-112
-112
-113
-114
-115
-116
-117
-117
-118
-119
-119
-120
-120
-121
-122
-123
-124
-124
-125
-125
-126
-126
-127
-127
-126
-126
-126
-125
-125
-124
-124
-123
-122
-122
-121
-121
-120
-120
-120
-120
-120
-120
-121
-121
-121
-121
-122
-122
-122
-122
-123
-123
-122
-122
-123
-123
-122
-123
-123
-123
-123
-123
-124
-124
-124
-124
-124
-124
-124
-124
-123
-123
-122
-122
-122
-121
-121
-121
-121
-120
-120
-121
-121
-121
-121
-121
-121
-120
-120
-119
-119
-119
-118
-118
-117
-116
-115
-114
-114
-113
-112
-111
-110
-110
-110
-110
-111
-112
-113
-113
-114
-115
-115
-117
-118
-120
-121
-123
-125
-127
-129
-130
-132
-133
-134
-135
-135
-135
-135
-135
-134
-133
-132
-130
-129
-128
-126
-125
-124
-123
-122
-121
-121
-120
-119
-118
-118
-118
-117
-117
-117
-117
-116
-116
-116
-116
-116
-116
-116
-117
-117
-118
-118
-118
-118
-118
-118
-118
-118
-117
-116
-115
-114
-113
-112
-111
-110
-109
-108
-107
-106
-105
-104
-104
-103
-102
-102
-102
-101
-101
-101
-101
-101
-101
-102
-102
-103
-103
-104
-105
-106
-107
-108
-109
-110
-110
-111
-112
-113
-113
-114
-114
-114
-114
-115
-115
-115
-115
-115
-115
-115
-116
-116
-116
-116
-117
-117
-117
-118
-118
-118
-118
-118
-119
-119
-120
-120
-120
-121
-121
-122
-122
-123
-123
-124
-124
-124
-124
-124
-123
-123
-123
-122
-122
-122
-122
-121
-121
-121
-121
-121
-121
-122
-123
-124
-126
-127
-128
-129
-130
-131
-132
-133
-134
-135
-136
-137
-138
-139
-140
-141
-142
-142
-143
-143
-143
-143
-143
-142
-142
-141
-140
-140
-139
-138
-137
-136
-136
-135
-135
-134
-134
-134
-134
-134
-134
-134
-134
-134
-134
-134
-134
-134
-134
-135
-135
-135
-135
-136
-136
-136
-136
-136
-136
-136
-136
-136
-135
-135
-134
-133
-132
-130
-129
-127
-125
-122
-119
-117
-113
-110
-106
-101
-96
-90
-83
-76
-68
-59
-49
-39
-28
-15
-3
9
22
36
49
62
76
89
101
113
123
133
140
146
151
153
153
152
149
143
136
127
115
102
87
71
54
35
17
-1
-20
-38
-56
-74
-90
-105
-119
-132
-142
-152
-160
-166
-171
-175
-177
-178
-178
-178
-176
-174
-172
-169
-165
-162
-158
-154
-151
-147
-143
-139
-136
-133
-130
-127
-125
-123
-121
-120
-119
-118
-118
-117
-117
-117
-117
-117
-117
-117
-118
-118
-118
-119
-119
-120
-120
-121
-122
-122
-123
-124
-124
-124
-124
-124
-124
-124
-124
-123
-123
-122
-122
-121
-121
-120
-120
-120
-119
-119
-119
-119
-119
-119
-119
-120
-120
-120
-120
-120
-120
-120
-120
-120
-120
-119
-119
-120
-119
-119
-119
-119
-118
-117
-117
-116
-115
-114
-113
-112
-112
-111
-110
-110
-109
-108
-108
-108
-108
-108
-108
-109
-110
-110
-111
-112
-112
-113
-114
-114
-114
-114
-114
-114
-114
-114
-114
-114
-114
-113
-113
-113
-113
-112
-112
-111
-110
-110
-109
-108
-107
-106
-105
-105
-104
-103
-102
-102
-101
-101
-101
-101
-101
-101
-101
-101
-101
-100
-100
-100
-100
-100
-100
-101
-101
-100
-100
-100
-100
-100
-100
-100
-100
-100
-100
-99
-99
-98
-98
-97
-96
-95
-94
-94
-93
-92
-92
-91
-91
-91
-91
-91
-90
-90
-90
-90
-90
-89
-89
-89
-88
-87
-86
-86
-85
-84
-83
-82
-81
-80
-80
-79
-78
-77
-75
-74
-73
-72
-71
-70
-69
-68
-67
-67
-66
-65
-64
-64
-63
-63
-62
-62
-62
-61
-60
-60
-59
-57
-56
-55
-54
-52
-51
-50
-48
-47
-45
-45
-44
-43
-43
-43
-42
-42
-41
-41
-41
-41
-40
-40
-39
-38
-37
-37
-36
-34
-33
-32
-31
-31
-30
-29
-29
-28
-27
-26
-25
-24
-23
-22
-22
-21
-20
-20
-20
-19
-19
-19
-19
-19
-20
-20
-21
-21
-21
-22
-22
-23
-23
-24
-24
-25
-25
-26
-27
-28
-29
-30
-31
-32
-33
-35
-36
-37
-39
-40
-42
-44
-45
-47
-48
-49
-51
-52
-54
-55
-57
-59
-61
-62
-64
-66
-68
-70
-71
-73
-74
-76
-77
-78
-79
-79
-80
-81
-81
-82
-82
-83
-83
-83
-84
-85
-86
-87
-88
-90
-91
-92
-94
-95
-96
-98
-100
-101
-103
-105
-107
-109
-111
-113
-114
-116
-118
-119
-120
-121
-121
-121
-122
-122
-122
-121
-121
-121
-121
-121
-120
-120
-121
-121
-121
-121
-121
-121
-121
-122
-122
-122
-122
-123
-123
-123
-123
-123
-122
-122
-122
-122
-122
-122
-122
-122
-122
-121
-121
-121
-121
-121
-121
-120
-120
-120
-119
-119
-119
-119
-119
-119
-120
-120
-120
-121
-121
-121
-121
-121
-121
-121
-121
-121
-120
-120
-119
-119
-118
-118
-118
-118
-118
-118
-118
-118
-118
-118
-118
-118
-119
-118
-118
-118
-118
-117
-116
-116
-115
-115
-114
-114
-114
-114
-114
-115
-115
-116
-116
-117
-117
-118
-119
-119
-120
-121
-122
-123
-123
-124
-124
-125
-125
-125
-125
-125
-125
-124
-124
-124
-123
-123
-123
-122
-122
-122
-122
-122
-122
-122
-122
-122
-123
-123
-124
-124
-125
-125
-125
-126
-126
-125
-125
-125
-124
-124
-123
-122
-122
-121
-120
-120
-119
-119
-119
-119
-119
-118
-118
-118
-118
-118
-117
-117
-117
-116
-116
-116
-116
-116
-116
-116
-116
-116
-117
-117
-117
-117
-117
-118
-118
-119
-119
-119
-119
-118
-118
-118
-118
-118
-118
-119
-119
-119
-119
-119
-119
-119
-120
-120
-120
-120
-120
-120
-119
-119
-119
-120
-120
-120
-120
-121
-121
-121
-122
-123
-123
-124
-124
-125
-125
-125
-125
-125
-125
-125
-124
-124
-123
-123
-122
-122
-121
-121
-121
-120
-120
-119
-119
-119
-119
-119
-118
-118
-118
-118
-118
-118
-118
-117
-117
-117
-117
-117
-117
-118
-118
-117
-118
-118
-118
-118
-118
-118
-118
-119
-119
-120
-120
-120
-121
-122
-123
-123
-124
-125
-126
-126
-127
-128
-128
-128
-128
-128
-128
-128
-127
-127
-127
-127
-126
-126
-126
-126
-127
-127
-127
-128
-128
-129
-129
-129
-129
-129
-129
-129
-129
-129
-128
-128
-127
-127
-127
-126
-126
-126
-125
-125
-124
-124
-124
-124
-124
-124
-124
-124
-124
-124
-125
-125
-126
-127
-128
-129
-130
-131
-132
-132
-133
-134
-134
-134
-135
-135
-135
-134
-134
-133
-133
-132
-132
-131
-131
-130
-130
-130
-129
-129
-129
-128
-128
-128
-128
-128
-127
-127
-127
-127
-127
-127
-127
-128
-128
-128
-128
-129
-129
-129
-129
-129
-129
-129
-128
-128
-128
-128
-127
-127
-127
-127
-127
-128
-128
-128
-129
-130
-130
-130
-131
-132
-132
-133
-133
-133
-133
-133
-133
-133
-133
-133
-132
-132
-132
-132
-132
-132
-132
-132
-131
-131
-131
-131
-130
-130
-130
-129
-128
-128
-127
-126
-126
-125
-125
-124
-123
-123
-122
-121
-121
-120
-119
-118
-118
-117
-116
-114
-113
-112
-111
-110
-109
-108
-107
-107
-106
-106
-106
-106
-106
-106
-106
-105
-105
-105
-105
-104
-105
-105
-105
-106
-106
-107
-107
-108
-108
-109
-110
-110
-111
-111
-112
-113
-113
-113
-113
-113
-113
-113
-113
-112
-112
-112
-113
-113
-114
-115
-115
-116
-116
-117
-118
-118
-119
-120
-121
-122
-123
-124
-124
-125
-125
-126
-126
-127
-127
-128
-128
-128
-128
-128
-128
-128
-128
-128
-128
-128
-129
-130
-130
-131
-132
-133
-135
-136
-137
-139
-140
-141
-142
-143
-144
-144
-145
-145
-145
-144
-144
-143
-142
-141
-141
-140
-140
-139
-139
-139
-139
-139
-139
-139
-139
-140
-140
-140
-140
-141
-141
-142
-142
-142
-143
-143
-144
-144
-145
-145
-145
-145
-145
-146
-145
-145
-145
-144
-144
-143
-142
-141
-140
-140
-139
-138
-138
-137
-137
-136
-136
-135
-135
-135
-134
-134
-134
-134
-133
-133
-133
-133
-133
-133
-133
-134
-134
-134
-133
-133
-133
-131
-130
-129
-128
-125
-123
-120
-117
-113
-108
-103
-97
-90
-83
-75
-67
-57
-47
-36
-24
-12
0
13
26
39
53
66
79
92
104
114
123
131
136
140
142
141
138
133
126
117
106
94
80
65
49
32
15
-1
-19
-36
-53
-69
-84
-98
-111
-123
-133
-142
-149
-155
-160
-163
-165
-166
-166
-166
-164
-162
-160
-158
-155
-152
-149
-146
-144
-141
-139
-137
-136
-134
-132
-131
-130
-129
-128
-128
-127
-126
-126
-126
-125
-125
-125
-125
-125
-125
-126
-126
-126
-126
-127
-127
-128
-128
-128
-128
-128
-127
-127
-127
-127
-127
-127
-127
-127
-127
-127
-127
-127
-126
-126
-126
-125
-124
-123
-122
-121
-119
-118
-116
-115
-113
-112
-111
-110
-109
-109
-109
-109
-110
-111
-112
-113
-114
-115
-116
-117
-118
-120
-122
-124
-125
-127
-128
-129
-130
-131
-132
-132
-132
-132
-132
-131
-131
-130
-129
-128
-127
-126
-125
-124
-122
-121
-121
-120
-119
-118
-118
-117
-117
-116
-116
-115
-115
-114
-114
-113
-113
-112
-112
-112
-111
-111
-111
-111
-111
-111
-111
-111
-110
-110
-110
-110
-110
-110
-109
-109
-108
-108
-108
-107
-107
-107
-107
-107
-107
-107
-107
-107
-107
-107
-107
-107
-107
-107
-107
-107
-107
-107
-107
-106
-106
-105
-105
-105
-105
-105
-105
-105
-104
-104
-104
-103
-102
-101
-100
-99
-98
-96
-95
-94
-93
-91
-90
-89
-89
-88
-88
-87
-87
-86
-86
-85
-85
-84
-84
-83
-83
-82
-82
-81
-80
-80
-79
-78
-77
-76
-75
-74
-73
-71
-70
-68
-66
-65
-63
-62
-60
-60
-60
-59
-59
-58
-58
-58
-58
-58
-59
-59
-60
-61
-62
-62
-62
-62
-62
-61
-60
-59
-58
-57
-55
-54
-52
-51
-49
-47
-46
-45
-43
-42
-41
-40
-39
-38
-38
-37
-36
-35
-35
-34
-34
-34
-34
-34
-34
-34
-34
-35
-34
-34
-34
-34
-33
-33
-32
-32
-31
-30
-30
-29
-28
-28
-28
-28
-28
-28
-29
-29
-30
-30
-31
-32
-32
-33
-34
-35
-36
-37
-38
-40
-41
-42
-44
-46
-47
-49
-51
-53
-55
-57
-59
-61
-63
-65
-66
-68
-69
-71
-73
-74
-76
-77
-79
-80
-81
-83
-84
-85
-86
-87
-88
-88
-88
-88
-88
-87
-87
-87
-87
-88
-88
-90
-91
-93
-94
-96
-98
-100
-102
-104
-107
-110
-113
-116
-118
-120
-122
-124
-126
-127
-128
-129
-130
-130
-131
-130
-131
-130
-130
-129
-129
-128
-127
-126
-125
-125
-124
-123
-122
-121
-121
-121
-121
-122
-122
-122
-122
-123
-123
-123
-124
-125
-125
-125
-126
-126
-127
-127
-127
-128
-128
-128
-128
-128
-129
-129
-129
-130
-130
-130
-130
-130
-130
-129
-129
-129
-129
-128
-128
-128
-127
-127
-127
-127
-127
-127
-127
-127
-127
-127
-127
-127
-127
-127
-127
-127
-127
-126
-126
-126
-126
-126
-126
-126
-126
-126
-127
-127
-127
-128
-128
-128
-128
-128
-129
-129
-128
-128
-128
-127
-127
-126
-125
-125
-124
-123
-123
-122
-121
-119
-119
-118
-117
-116
-115
-114
-114
-113
-114
-115
-116
-117
-118
-120
-121
-123
-125
-127
-129
-131
-133
-135
-136
-138
-139
-140
-140
-140
-141
-140
-140
-139
-139
-139
-138
-137
-137
-136
-136
-136
-135
-135
-135
-134
-134
-133
-133
-133
-132
-132
-132
-132
-132
-132
-132
-132
-132
-132
-132
-132
-133
-133
-132
-132
-132
-132
-131
-131
-131
-130
-130
-130
-130
-130
-129
-129
-130
-130
-130
-130
-130
-130
-130
-130
-130
-130
-129
-129
-129
-129
-129
-129
-129
-129
-129
-129
-129
-130
-130
-130
-130
-130
-130
-129
-129
-129
-129
-128
-128
-128
-127
-126
-126
-126
-125
-125
-124
-124
-123
-123
-123
-122
-122
-121
-120
-120
-119
-119
-119
-119
-119
-120
-120
-120
-121
-121
-122
-122
-123
-123
-124
-125
-126
-127
-128
-129
-130
-130
-131
-131
-132
-133
-134
-135
-136
-136
-137
-138
-139
-140
-140
-140
-140
-140
-140
-139
-138
-138
-137
-136
-136
-135
-134
-134
-133
-133
-132
-132
-131
-131
-131
-130
-130
-130
-129
-129
-128
-128
-128
-128
-128
-128
-128
-128
-128
-128
-129
-129
-130
-130
-130
-131
-131
-131
-131
-131
-131
-131
-131
-131
-130
-130
-130
-129
-129
-128
-128
-128
-127
-126
-126
-125
-123
-122
-121
-120
-119
-118
-117
-116
-115
-114
-113
-112
-111
-111
-111
-111
-111
-112
-112
-113
-113
-112
-112
-113
-112
-112
-112
-112
-111
-110
-110
-109
-108
-107
-106
-105
-104
-104
-104
-103
-103
-102
-102
-101
-101
-101
-102
-102
-103
-104
-106
-107
-109
-110
-112
-113
-114
-116
-117
-118
-119
-119
-120
-120
-120
-121
-121
-121
-121
-121
-121
-122
-122
-122
-123
-123
-123
-124
-124
-124
-125
-125
-125
-125
-125
-125
-125
-125
-125
-125
-126
-126
-127
-127
-128
-128
-129
-129
-130
-131
-131
-131
-131
-131
-131
-132
-132
-132
-132
-132
-132
-132
-132
-132
-132
-132
-132
-132
-132
-131
-131
-130
-130
-129
-129
-128
-128
-128
-128
-128
-128
-128
-129
-129
-130
-130
-131
-132
-132
-133
-133
-134
-134
-135
-135
-136
-136
-136
-136
-136
-136
-137
-137
-137
-137
-137
-136
-136
-137
-137
-136
-136
-137
-137
-136
-136
-136
-136
-136
-136
-137
-137
-137
-137
-138
-138
-138
-138
-139
-138
-138
-137
-137
-136
-135
-135
-134
-132
-131
-129
-128
-126
-124
-122
-119
-117
-113
-109
-105
-100
-94
-88
-81
-73
-64
-54
-44
-32
-20
-8
4
17
30
44
57
70
84
97
109
120
130
138
145
149
153
154
153
150
145
138
128
116
103
88
72
55
38
20
1
-16
-34
-51
-67
-83
-97
-109
-121
-130
-138
-145
-151
-155
-158
-160
-161
-161
-160
-158
-156
-154
-151
-147
-144
-141
-137
-134
-132
-129
-126
-124
-122
-120
-119
-117
-117
-116
-116
-116
-116
-116
-116
-116
-116
-116
-117
-117
-118
-118
-119
-119
-120
-121
-121
-122
-122
-123
-123
-124
-124
-124
-124
-124
-124
-123
-123
-122
-122
-122
-122
-122
-122
-122
-122
-122
-123
-123
-123
-123
-124
-124
-124
-124
-125
-125
-125
-125
-125
-125
-125
-124
-125
-125
-125
-124
-124
-125
-124
-124
-124
-124
-124
-123
-123
-122
-121
-120
-119
-118
-116
-115
-114
-113
-112
-111
-110
-109
-108
-107
-107
-107
-107
-106
-106
-105
-105
-105
-105
-105
-106
-106
-107
-108
-109
-109
-111
-112
-113
-114
-115
-116
-116
-117
-117
-117
-118
-118
-118
-118
-118
-118
-118
-118
-118
-118
-118
-117
-117
-116
-116
-115
-114
-113
-113
-112
-111
-110
-109
-108
-107
-107
-106
-106
-105
-105
-104
-104
-103
-103
-103
-103
-102
-102
-101
-101
-100
-99
-99
-98
-97
-97
-96
-96
-96
-95
-95
-95
-94
-94
-94
-93
-93
-92
-91
-91
-90
-89
-89
-88
-87
-87
-86
-86
-85
-85
-85
-84
-84
-84
-84
-83
-82
-81
-81
-80
-79
-78
-77
-76
-75
-74
-73
-72
-71
-70
-69
-68
-67
-66
-65
-64
-63
-62
-62
-61
-60
-59
-59
-59
-58
-58
-57
-57
-57
-57
-56
-56
-55
-55
-54
-53
-51
-50
-49
-48
-47
-46
-45
-44
-43
-42
-41
-40
-40
-39
-39
-39
-39
-39
-39
-39
-39
-39
-38
-38
-37
-36
-35
-34
-33
-32
-31
-30
-29
-29
-28
-27
-27
-26
-26
-26
-26
-26
-27
-27
-28
-29
-29
-30
-31
-32
-34
-36
-38
-39
-41
-43
-45
-47
-49
-51
-53
-54
-56
-57
-58
-59
-61
-62
-63
-64
-66
-67
-68
-69
-70
-72
-73
-74
-75
-77
-78
-79
-81
-82
-83
-85
-86
-88
-89
-91
-93
-95
-97
-99
-102
-104
-106
-108
-110
-112
-113
-115
-117
-118
-119
-120
-121
-122
-122
-123
-124
-125
-125
-126
-126
-127
-127
-127
-128
-128
-128
-128
-128
-128
-128
-128
-128
-129
-129
-129
-130
-131
-131
-132
-133
-134
-134
-135
-136
-136
-137
-137
-137
-137
-137
-137
-137
-136
-136
-136
-136
-136
-135
-135
-135
-135
-135
-134
-134
-134
-134
-133
-133
-133
-132
-132
-132
-131
-131
-131
-131
-131
-131
-131
-131
-131
-131
-131
-132
-132
-131
-131
-131
-130
-130
-130
-130
-130
-130
-130
-130
-131
-131
-131
-131
-132
-133
-134
-134
-135
-135
-136
-136
-136
-136
-136
-136
-136
-135
-135
-135
-135
-134
-134
-133
-133
-133
-132
-132
-132
-132
-131
-131
-131
-131
-131
-131
-131
-131
-131
-131
-132
-132
-133
-134
-134
-135
-136
-136
-136
-136
-136
-136
-136
-135
-135
-135
-134
-134
-133
-133
-133
-132
-132
-132
-132
-132
-132
-132
-132
-132
-132
-132
-132
-131
-131
-131
-131
-131
-130
-130
-131
-131
-132
-133
-133
-134
-134
-135
-135
-136
-136
-136
-136
-137
-137
-137
-138
-138
-138
-138
-138
-138
-138
-138
-138
-137
-137
-137
-136
-136
-135
-135
-134
-134
-133
-133
-133
-132
-132
-132
-132
-132
-132
-133
-133
-133
-133
-134
-134
-134
-134
-135
-135
-135
-135
-135
-135
-135
-135
-135
-136
-136
-136
-137
-137
-137
-137
-137
-137
-137
-136
-136
-136
-136
-135
-135
-134
-134
-134
-133
-133
-133
-133
-134
-134
-134
-135
-135
-135
-135
-135
-135
-135
-135
-135
-135
-135
-134
-134
-134
-134
-133
-133
-133
-132
-132
-131
-130
-130
-129
-128
-127
-126
-125
-125
-124
-124
-123
-123
-122
-122
-122
-122
-122
-122
-122
-122
-123
-123
-122
-122
-121
-121
-120
-120
-119
-118
-117
-117
-116
-115
-114
-114
-114
-114
-113
-113
-113
-113
-113
-112
-112
-112
-112
-112
-112
-112
-112
-112
-112
-112
-111
-111
-111
-111
-110
-110
-110
-109
-109
-108
-107
-107
-106
-105
-104
-104
-103
-102
-102
-103
-103
-103
-103
-104
-104
-105
-105
-106
-107
-107
-108
-109
-109
-110
-111
-111
-112
-112
-113
-114
-114
-115
-116
-116
-117
-117
-118
-118
-118
-118
-118
-119
-119
-119
-119
-119
-119
-120
-120
-121
-121
-122
-123
-124
-125
-126
-127
-128
-128
-129
-129
-130
-130
-130
-130
-130
-130
-129
-129
-129
-129
-128
-128
-128
-127
-127
-126
-126
-125
-124
-124
-123
-123
-123
-123
-123
-123
-123
-123
-124
-125
-125
-126
-127
-128
-129
-129
-130
-131
-131
-131
-132
-131
-131
-131
-131
-130
-129
-129
-128
-127
-126
-125
-124
-123
-122
-122
-122
-122
-122
-122
-122
-122
-122
-122
-122
-123
-124
-125
-127
-128
-129
-131
-132
-133
-134
-134
-135
-135
-135
-134
-134
-133
-131
-130
-128
-126
-124
-121
-118
-115
-111
-107
-103
-98
-92
-86
-80
-72
-64
-55
-45
-34
-22
-10
2
15
28
40
53
66
79
92
104
115
125
133
140
145
148
150
149
147
143
137
129
119
107
94
79
63
47
30
12
-5
-23
-40
-57
-72
-86
-100
-112
-123
-132
-140
-146
-152
-156
-159
-161
-161
-161
-160
-159
-156
-154
-151
-147
-144
-140
-136
-132
-127
-123
-119
-116
-112
-110
-107
-106
-105
-104
-104
-105
-105
-105
-106
-107
-108
-109
-111
-112
-114
-115
-117
-119
-120
-121
-122
-123
-123
-124
-124
-125
-124
-124
-123
-123
-122
-121
-120
-119
-118
-116
-115
-114
-113
-111
-110
-110
-109
-108
-107
-106
-106
-105
-105
-105
-105
-105
-105
-105
-105
-105
-105
-105
-105
-105
-106
-106
-107
-107
-108
-109
-109
-109
-110
-110
-109
-109
-109
-108
-108
-107
-107
-106
-105
-104
-104
-104
-103
-103
-103
-104
-104
-104
-104
-104
-104
-104
-104
-104
-103
-103
-103
-103
-103
-103
-103
-102
-102
-102
-101
-101
-100
-100
-99
-99
-98
-97
-97
-96
-95
-94
-94
-93
-93
-92
-92
-92
-92
-92
-92
-92
-92
-92
-93
-93
-93
-93
-93
-93
-92
-92
-92
-91
-91
-90
-90
-89
-89
-88
-88
-88
-87
-87
-87
-86
-85
-84
-84
-83
-83
-83
-82
-82
-82
-81
-81
-81
-81
-81
-81
-81
-82
-82
-82
-82
-82
-81
-81
-81
-80
-79
-79
-78
-77
-76
-76
-76
-75
-75
-74
-74
-73
-73
-72
-71
-70
-69
-68
-67
-66
-65
-63
-62
-61
-59
-58
-57
-56
-55
-54
-53
-51
-51
-50
-49
-48
-47
-46
-45
-44
-43
-42
-41
-40
-40
-39
-39
-38
-37
-37
-36
-36
-35
-35
-34
-34
-33
-32
-32
-31
-30
-29
-29
-28
-27
-27
-26
-26
-25
-25
-25
-24
-24
-23
-22
-21
-20
-19
-18
-17
-16
-16
-15
-14
-14
-14
-13
-13
-13
-14
-14
-15
-15
-16
-17
-17
-18
-19
-20
-20
-21
-22
-23
-24
-25
-26
-28
-29
-30
-32
-33
-35
-36
-38
-40
-42
-43
-44
-46
-47
-48
-49
-51
-52
-54
-56
-58
-60
-62
-64
-67
-69
-71
-74
-76
-78
-81
-83
-85
-87
-89
-91
-92
-94
-95
-97
-98
-100
-101
-102
-104
-104
-105
-107
-107
-108
-109
-109
-110
-110
-111
-112
-112
-113
-113
-114
-115
-116
-116
-117
-118
-118
-119
-119
-119
-119
-119
-119
-119
-119
-119
-118
-118
-118
-117
-117
-117
-117
-117
-117
-117
-117
-118
-118
-118
-119
-119
-119
-119
-119
-119
-120
-120
-120
-120
-121
-122
-122
-123
-124
-125
-126
-126
-127
-127
-128
-128
-128
-128
-128
-128
-128
-128
-128
-128
-128
-128
-128
-128
-129
-129
-129
-129
-130
-130
-130
-130
-129
-129
-129
-129
-129
-129
-129
-129
-129
-129
-129
-129
-129
-129
-129
-129
-129
-129
-129
-129
-128
-128
-128
-127
-127
-127
-127
-127
-127
-127
-127
-127
-128
-128
-128
-128
-128
-129
-129
-128
-128
-128
-128
-127
-127
-126
-125
-124
-123
-122
-121
-120
-119
-119
-118
-118
-118
-118
-118
-118
-119
-120
-120
-121
-122
-124
-125
-127
-129
-130
-132
-134
-136
-137
-138
-139
-140
-141
-141
-141
-140
-140
-139
-139
-138
-138
-137
-136
-135
-135
-134
-134
-133
-133
-133
-133
-133
-133
-132
-132
-131
-131
-130
-130
-129
-129
-128
-128
-128
-128
-128
-128
-128
-128
-128
-128
-129
-129
-129
-129
-129
-130
-129
-129
-129
-129
-128
-128
-128
-128
-128
-128
-129
-129
-129
-129
-129
-129
-129
-128
-128
-128
-128
-128
-128
-128
-128
-128
-128
-128
-128
-128
-128
-128
-127
-127
-127
-127
-126
-125
-125
-124
-124
-123
-123
-124
-123
-124
-124
-125
-125
-126
-126
-127
-128
-129
-130
-131
-132
-133
-133
-134
-134
-134
-134
-133
-132
-132
-131
-131
-130
-129
-128
-128
-127
-126
-126
-125
-125
-124
-124
-123
-123
-123
-123
-124
-124
-124
-125
-125
-126
-127
-128
-129
-130
-131
-132
-132
-132
-132
-132
-132
-132
-132
-131
-131
-130
-129
-129
-129
-128
-128
-127
-127
-126
-126
-125
-125
-124
-123
-122
-120
-119
-117
-116
-114
-112
-110
-109
-107
-106
-104
-103
-103
-102
-103
-103
-104
-104
-104
-105
-105
-106
-107
-108
-109
-110
-111
-112
-113
-114
-114
-115
-115
-114
-114
-113
-112
-111
-109
-108
-106
-105
-103
-102
-101
-100
-99
-98
-98
-98
-98
-98
-99
-99
-99
-100
-101
-102
-103
-103
-104
-105
-106
-107
-108
-108
-109
-110
-111
-112
-113
-114
-115
-115
-116
-117
-117
-117
-117
-117
-118
-118
-118
-118
-118
-118
-119
-119
-120
-120
-121
-121
-122
-123
-123
-124
-125
-125
-125
-125
-126
-126
-126
-125
-125
-125
-124
-124
-123
-123
-123
-123
-124
-124
-125
-126
-127
-127
-128
-129
-129
-130
-131
-132
-133
-134
-134
-135
-136
-136
-137
-137
-137
-137
-137
-137
-137
-136
-135
-135
-134
-134
-133
-133
-133
-132
-132
-133
-133
-133
-133
-133
-134
-134
-134
-135
-135
-135
-135
-135
-135
-135
-134
-134
-134
-133
-133
-132
-132
-132
-131
-131
-131
-131
-131
-131
-130
-130
-130
-130
-129
-129
-128
-128
-127
-126
-124
-123
-122
-120
-118
-115
-112
-109
-105
-100
-96
-90
-83
-76
-68
-59
-49
-39
-27
-15
-2
9
22
36
49
63
76
89
102
114
125
134
142
148
153
155
156
154
150
144
135
125
112
98
82
65
47
29
10
-8
-27
-46
-63
-80
-96
-111
-124
-135
-146
-154
-160
-166
-170
-172
-174
-174
