# Simple Text Format
# Sampling Rate (Hz):= 1200.00
# Resolution:= 12
# Labels:= ECG	 V4
# Age:=	26
# Gender:=	Masculino
-236
-235
-235
-234
-234
-234
-233
-233
-233
-232
-231
-232
-232
-231
-231
-231
-231
-230
-230
-229
-229
-229
-228
-228
-228
-227
-227
-227
-227
-226
-226
-225
-225
-224
-224
-223
-223
-222
-221
-220
-220
-219
-219
-217
-217
-217
-217
-217
-216
-215
-215
-215
-214
-214
-213
-213
-212
-212
-212
-212
-211
-211
-210
-210
-210
-210
-209
-209
-209
-209
-208
-207
-207
-206
-205
-205
-205
-205
-204
-203
-202
-202
-201
-200
-200
-201
-200
-199
-199
-199
-198
-198
-197
-197
-197
-197
-196
-195
-194
-193
-193
-192
-190
-191
-189
-189
-188
-187
-187
-186
-185
-184
-184
-183
-181
-181
-180
-179
-178
-178
-177
-176
-175
-174
-173
-173
-173
-171
-171
-170
-169
-169
-168
-167
-166
-165
-164
-163
-161
-159
-158
-157
-156
-154
-153
-152
-151
-150
-149
-148
-146
-145
-144
-143
-142
-141
-140
-138
-136
-135
-134
-133
-132
-131
-129
-128
-127
-125
-124
-123
-122
-120
-119
-117
-116
-115
-114
-112
-110
-109
-108
-107
-106
-105
-104
-103
-101
-100
-99
-98
-97
-96
-95
-93
-91
-90
-88
-87
-86
-84
-82
-81
-79
-79
-77
-75
-74
-73
-72
-71
-71
-69
-69
-67
-66
-66
-65
-64
-64
-64
-63
-64
-64
-64
-65
-64
-64
-65
-66
-67
-67
-67
-68
-69
-69
-70
-71
-71
-72
-73
-73
-74
-75
-77
-78
-80
-82
-83
-85
-86
-88
-90
-92
-94
-96
-99
-101
-104
-107
-110
-112
-115
-117
-121
-124
-127
-131
-133
-137
-140
-143
-147
-149
-153
-156
-158
-161
-163
-166
-169
-171
-174
-176
-179
-181
-184
-187
-189
-191
-194
-196
-199
-202
-204
-207
-208
-211
-214
-215
-217
-220
-221
-224
-225
-227
-228
-231
-232
-233
-234
-236
-237
-238
-239
-239
-240
-241
-241
-241
-243
-243
-243
-243
-245
-245
-245
-246
-246
-247
-247
-248
-248
-249
-249
-249
-250
-250
-250
-251
-250
-250
-251
-251
-251
-251
-251
-251
-251
-252
-251
-251
-251
-251
-252
-251
-251
-251
-251
-251
-251
-251
-250
-250
-249
-249
-249
-250
-249
-250
-250
-249
-250
-250
-251
-251
-251
-251
-251
-251
-252
-252
-252
-252
-253
-253
-253
-253
-254
-254
-254
-254
-254
-254
-254
-255
-254
-254
-254
-253
-253
-253
-253
-253
-253
-253
-253
-252
-252
-252
-252
-252
-252
-252
-252
-252
-251
-251
-252
-252
-251
-251
-251
-251
-251
-251
-251
-251
-250
-250
-250
-250
-250
-250
-250
-250
-249
-249
-249
-248
-248
-248
-248
-247
-247
-247
-247
-247
-248
-248
-248
-248
-248
-247
-247
-247
-247
-247
-246
-246
-246
-245
-245
-244
-244
-244
-244
-244
-244
-243
-243
-243
-243
-243
-243
-243
-243
-245
-244
-244
-245
-245
-246
-246
-246
-248
-248
-248
-248
-248
-248
-249
-249
-249
-249
-250
-249
-249
-249
-249
-249
-249
-250
-250
-250
-250
-250
-250
-250
-250
-251
-251
-252
-251
-251
-251
-252
-252
-252
-251
-252
-251
-252
-252
-252
-252
-253
-253
-252
-253
-253
-253
-253
-253
-253
-253
-253
-253
-253
-253
-253
-252
-252
-252
-253
-253
-253
-253
-252
-253
-253
-253
-253
-253
-253
-253
-253
-254
-254
-253
-253
-253
-253
-254
-254
-255
-255
-255
-255
-255
-255
-255
-256
-256
-256
-256
-256
-256
-256
-257
-257
-256
-257
-257
-257
-257
-257
-256
-257
-257
-256
-256
-257
-257
-256
-256
-256
-256
-256
-255
-255
-255
-255
-253
-253
-254
-254
-254
-254
-255
-255
-255
-255
-255
-255
-256
-256
-257
-257
-258
-258
-259
-259
-259
-259
-259
-260
-261
-261
-261
-261
-261
-261
-262
-262
-261
-260
-260
-260
-260
-260
-259
-259
-259
-258
-258
-258
-258
-258
-257
-257
-257
-258
-258
-258
-258
-259
-259
-259
-259
-260
-260
-260
-261
-261
-261
-262
-262
-262
-263
-263
-263
-262
-262
-262
-262
-262
-262
-261
-261
-261
-261
-261
-260
-260
-261
-261
-261
-260
-260
-260
-260
-259
-259
-259
-259
-259
-259
-260
-259
-259
-259
-259
-258
-258
-260
-260
-260
-260
-259
-260
-261
-260
-260
-261
-261
-261
-261
-261
-261
-261
-260
-259
-259
-259
-259
-258
-258
-258
-258
-257
-257
-257
-257
-257
-257
-256
-256
-256
-255
-255
-256
-255
-255
-255
-256
-256
-256
-256
-257
-257
-258
-257
-258
-258
-258
-259
-259
-258
-259
-259
-259
-260
-260
-260
-260
-260
-260
-260
-261
-261
-261
-261
-260
-260
-260
-260
-260
-260
-260
-260
-260
-259
-259
-259
-259
-260
-260
-260
-260
-260
-260
-260
-260
-260
-260
-260
-260
-259
-260
-260
-259
-260
-260
-260
-260
-259
-259
-259
-259
-259
-258
-258
-259
-258
-258
-258
-258
-257
-258
-258
-257
-256
-257
-257
-256
-256
-255
-254
-255
-254
-254
-253
-253
-253
-252
-251
-250
-250
-249
-248
-247
-247
-246
-246
-245
-245
-244
-244
-244
-243
-243
-243
-243
-242
-241
-241
-241
-240
-239
-239
-238
-237
-237
-236
-235
-234
-233
-232
-232
-232
-231
-231
-230
-230
-230
-230
-230
-230
-231
-231
-231
-232
-234
-234
-236
-236
-238
-238
-240
-242
-242
-243
-244
-245
-246
-246
-247
-247
-248
-248
-248
-249
-249
-249
-249
-251
-251
-251
-252
-252
-253
-253
-253
-254
-254
-254
-254
-255
-255
-255
-256
-256
-256
-256
-255
-255
-256
-255
-256
-256
-256
-257
-256
-256
-256
-257
-257
-257
-257
-257
-257
-258
-258
-258
-259
-260
-260
-261
-261
-261
-262
-262
-263
-263
-262
-262
-262
-263
-262
-262
-261
-261
-261
-261
-261
-261
-260
-260
-261
-260
-260
-260
-260
-260
-260
-260
-260
-260
-261
-260
-261
-260
-260
-260
-260
-261
-261
-260
-261
-261
-261
-261
-260
-260
-259
-258
-258
-257
-257
-256
-256
-256
-255
-255
-255
-254
-254
-254
-254
-254
-254
-255
-254
-253
-254
-253
-252
-251
-249
-246
-243
-239
-235
-230
-224
-218
-211
-204
-196
-187
-177
-168
-158
-147
-135
-124
-113
-101
-90
-79
-68
-58
-48
-39
-29
-21
-13
-6
0
6
12
15
19
22
23
22
19
16
9
-1
-12
-26
-42
-59
-78
-98
-119
-142
-166
-189
-213
-237
-260
-282
-303
-323
-341
-356
-370
-381
-390
-396
-399
-401
-399
-397
-392
-386
-378
-370
-361
-352
-342
-332
-321
-311
-301
-291
-282
-273
-265
-258
-250
-245
-239
-234
-230
-227
-224
-221
-219
-218
-218
-216
-215
-216
-216
-217
-217
-217
-219
-220
-219
-220
-221
-221
-221
-222
-222
-222
-222
-222
-221
-221
-220
-219
-219
-217
-217
-216
-215
-214
-214
-213
-212
-212
-212
-212
-212
-211
-211
-211
-211
-210
-211
-210
-210
-210
-210
-209
-210
-210
-210
-210
-209
-209
-208
-208
-208
-208
-208
-207
-207
-207
-206
-206
-206
-205
-204
-203
-203
-202
-203
-202
-201
-201
-201
-201
-200
-200
-200
-200
-199
-199
-198
-198
-198
-197
-196
-196
-196
-195
-195
-193
-193
-193
-193
-193
-193
-193
-192
-192
-191
-190
-190
-190
-190
-189
-188
-188
-187
-187
-186
-186
-185
-184
-183
-183
-183
-182
-181
-180
-180
-178
-178
-176
-176
-175
-173
-173
-171
-171
-170
-169
-168
-168
-168
-167
-166
-166
-166
-165
-165
-165
-165
-164
-164
-163
-163
-162
-162
-160
-160
-160
-159
-158
-157
-156
-155
-154
-153
-152
-151
-149
-148
-148
-147
-146
-145
-144
-143
-143
-142
-141
-141
-140
-139
-139
-138
-136
-136
-135
-134
-133
-132
-131
-130
-128
-127
-126
-124
-123
-121
-120
-119
-118
-116
-116
-114
-113
-112
-111
-110
-108
-107
-106
-105
-102
-102
-99
-98
-97
-95
-94
-92
-91
-90
-89
-87
-85
-84
-83
-82
-80
-79
-78
-77
-76
-74
-73
-72
-71
-70
-69
-69
-68
-67
-66
-65
-65
-64
-63
-62
-62
-61
-61
-61
-59
-59
-59
-59
-59
-59
-59
-60
-60
-61
-62
-62
-63
-64
-65
-65
-66
-67
-68
-69
-71
-72
-73
-75
-76
-78
-79
-81
-82
-85
-87
-89
-92
-93
-96
-98
-101
-103
-106
-108
-110
-113
-116
-118
-120
-123
-125
-128
-131
-134
-137
-139
-142
-145
-147
-150
-153
-155
-157
-160
-162
-165
-168
-170
-172
-176
-177
-180
-183
-185
-188
-190
-193
-195
-197
-199
-201
-204
-206
-208
-209
-212
-213
-214
-216
-217
-218
-219
-221
-222
-223
-223
-224
-225
-225
-226
-226
-227
-227
-227
-228
-228
-229
-229
-231
-231
-232
-232
-233
-235
-236
-237
-238
-238
-239
-240
-240
-241
-242
-242
-242
-243
-243
-243
-242
-242
-242
-242
-242
-242
-242
-241
-241
-241
-240
-240
-239
-239
-239
-239
-239
-239
-239
-239
-238
-239
-239
-240
-240
-240
-240
-241
-241
-242
-242
-242
-242
-243
-243
-243
-243
-244
-244
-244
-244
-244
-244
-245
-245
-245
-245
-245
-245
-245
-245
-245
-245
-244
-244
-244
-244
-244
-243
-243
-243
-243
-242
-243
-242
-242
-242
-242
-242
-241
-241
-241
-241
-241
-240
-240
-240
-239
-239
-239
-238
-238
-238
-239
-238
-238
-239
-239
-239
-239
-239
-240
-240
-240
-239
-239
-239
-239
-239
-239
-239
-238
-238
-238
-238
-237
-237
-237
-236
-236
-236
-236
-235
-235
-235
-235
-235
-236
-236
-236
-236
-236
-236
-237
-237
-237
-237
-238
-238
-237
-237
-238
-238
-237
-237
-237
-237
-237
-237
-237
-237
-237
-237
-237
-237
-237
-237
-237
-238
-238
-238
-239
-239
-240
-239
-239
-240
-240
-240
-240
-240
-241
-241
-241
-241
-241
-241
-242
-242
-242
-242
-241
-242
-242
-242
-242
-242
-242
-243
-243
-243
-243
-244
-243
-244
-244
-245
-244
-245
-246
-246
-245
-246
-246
-247
-247
-247
-246
-247
-247
-247
-247
-247
-247
-247
-246
-246
-247
-246
-246
-246
-247
-247
-246
-246
-246
-246
-246
-246
-246
-246
-246
-245
-245
-246
-246
-246
-247
-247
-247
-247
-247
-247
-247
-247
-247
-248
-248
-248
-248
-249
-249
-250
-250
-250
-250
-251
-251
-251
-252
-252
-252
-252
-252
-251
-251
-251
-251
-251
-251
-251
-250
-251
-251
-251
-251
-252
-252
-252
-252
-253
-252
-253
-253
-253
-253
-253
-253
-252
-253
-253
-252
-252
-252
-252
-252
-252
-252
-252
-252
-252
-252
-252
-252
-252
-251
-252
-251
-252
-252
-252
-252
-252
-252
-253
-253
-254
-254
-254
-254
-255
-255
-255
-255
-256
-255
-256
-256
-255
-256
-256
-256
-256
-256
-255
-255
-256
-255
-255
-255
-256
-256
-256
-255
-255
-255
-255
-255
-255
-255
-254
-254
-254
-254
-255
-255
-255
-255
-255
-256
-256
-256
-256
-256
-256
-256
-256
-257
-257
-257
-257
-257
-257
-257
-257
-258
-257
-258
-258
-258
-258
-258
-258
-258
-258
-258
-257
-258
-258
-258
-257
-257
-256
-256
-256
-255
-255
-255
-255
-255
-255
-255
-253
-253
-253
-253
-252
-252
-251
-250
-250
-249
-249
-248
-248
-247
-247
-246
-246
-244
-243
-243
-243
-242
-241
-240
-240
-239
-239
-238
-238
-238
-238
-237
-237
-237
-237
-237
-236
-236
-236
-236
-236
-236
-236
-236
-235
-235
-235
-235
-234
-234
-235
-235
-234
-235
-235
-236
-237
-237
-237
-237
-238
-239
-239
-240
-240
-241
-242
-242
-243
-243
-244
-245
-246
-247
-248
-249
-249
-249
-250
-250
-251
-251
-251
-253
-253
-253
-254
-254
-254
-254
-254
-255
-255
-255
-256
-255
-256
-256
-256
-256
-256
-256
-256
-256
-257
-257
-257
-257
-258
-258
-259
-259
-259
-261
-261
-262
-262
-262
-263
-264
-264
-264
-265
-265
-265
-265
-266
-266
-266
-266
-266
-265
-265
-265
-265
-265
-264
-264
-264
-265
-265
-264
-264
-264
-264
-264
-265
-264
-263
-264
-264
-264
-264
-264
-264
-264
-264
-264
-264
-264
-264
-264
-264
-264
-264
-263
-263
-263
-263
-262
-262
-262
-262
-262
-262
-261
-261
-261
-260
-260
-260
-260
-259
-259
-258
-258
-258
-256
-255
-253
-251
-248
-245
-242
-238
-233
-227
-221
-214
-207
-199
-190
-182
-172
-162
-151
-141
-130
-119
-108
-97
-87
-76
-67
-58
-48
-40
-33
-26
-18
-13
-6
-2
2
4
6
6
5
1
-5
-13
-23
-36
-50
-66
-83
-102
-123
-145
-168
-190
-213
-237
-259
-282
-303
-323
-341
-357
-372
-384
-394
-401
-406
-409
-408
-406
-402
-397
-390
-381
-373
-363
-353
-342
-332
-322
-311
-302
-292
-284
-275
-268
-261
-255
-250
-245
-241
-237
-235
-232
-230
-229
-227
-226
-226
-226
-225
-225
-226
-226
-226
-226
-226
-226
-226
-226
-226
-227
-227
-226
-227
-227
-226
-226
-227
-226
-226
-226
-226
-225
-225
-225
-224
-224
-224
-224
-224
-222
-222
-222
-221
-221
-221
-220
-219
-219
-218
-218
-217
-217
-216
-216
-216
-216
-216
-215
-215
-215
-215
-214
-214
-214
-213
-213
-212
-212
-211
-212
-211
-211
-211
-210
-210
-210
-210
-208
-209
-208
-208
-207
-207
-206
-206
-205
-204
-203
-203
-202
-202
-202
-201
-200
-200
-200
-200
-200
-199
-199
-199
-199
-199
-198
-199
-198
-198
-198
-198
-197
-197
-197
-197
-196
-196
-196
-194
-194
-194
-193
-192
-191
-191
-190
-189
-189
-188
-187
-186
-186
-185
-184
-184
-183
-182
-182
-180
-180
-179
-179
-178
-178
-177
-176
-176
-175
-174
-173
-171
-171
-170
-170
-169
-168
-168
-167
-167
-166
-165
-164
-164
-164
-163
-162
-161
-161
-159
-158
-158
-156
-155
-154
-154
-153
-152
-151
-151
-150
-149
-148
-147
-145
-144
-143
-142
-141
-139
-138
-137
-136
-134
-132
-131
-130
-128
-127
-125
-124
-123
-121
-120
-119
-118
-116
-115
-114
-112
-111
-109
-108
-107
-106
-105
-103
-102
-101
-100
-98
-97
-96
-95
-93
-92
-91
-90
-88
-87
-86
-83
-83
-82
-80
-79
-78
-77
-77
-76
-75
-74
-73
-73
-72
-71
-71
-70
-70
-69
-69
-69
-68
-68
-68
-69
-68
-68
-68
-68
-68
-68
-68
-69
-69
-69
-69
-70
-71
-71
-72
-73
-74
-75
-77
-78
-79
-82
-83
-85
-88
-89
-92
-94
-96
-99
-101
-104
-106
-109
-112
-114
-117
-119
-123
-125
-129
-131
-134
-137
-141
-143
-146
-149
-151
-154
-156
-159
-161
-164
-166
-168
-171
-173
-176
-177
-179
-181
-184
-186
-188
-189
-191
-193
-196
-197
-198
-201
-202
-204
-205
-208
-209
-211
-212
-215
-216
-218
-220
-222
-223
-225
-226
-228
-229
-230
-231
-232
-233
-234
-234
-235
-235
-235
-236
-236
-235
-236
-236
-237
-237
-237
-238
-238
-238
-238
-239
-240
-240
-240
-241
-241
-242
-242
-243
-243
-243
-244
-245
-245
-245
-245
-245
-246
-246
-246
-245
-245
-245
-245
-245
-245
-245
-244
-244
-244
-244
-244
-244
-244
-244
-244
-244
-244
-244
-244
-244
-244
-243
-244
-244
-244
-244
-243
-243
-244
-244
-244
-244
-245
-245
-245
-245
-245
-244
-244
-244
-244
-243
-242
-242
-242
-242
-242
-242
-242
-242
-241
-241
-241
-242
-242
-242
-242
-243
-243
-243
-244
-243
-244
-244
-245
-245
-244
-244
-244
-244
-244
-244
-244
-244
-243
-242
-242
-241
-241
-241
-241
-241
-240
-240
-240
-240
-239
-240
-240
-241
-241
-242
-243
-243
-244
-245
-245
-246
-246
-246
-246
-246
-246
-246
-246
-245
-246
-245
-245
-245
-245
-244
-244
-243
-243
-244
-243
-243
-243
-243
-243
-242
-242
-242
-242
-242
-242
-242
-242
-242
-242
-242
-241
-241
-241
-241
-242
-242
-241
-241
-241
-241
-241
-241
-241
-241
-240
-240
-240
-240
-240
-241
-240
-240
-241
-241
-241
-241
-242
-242
-242
-242
-243
-243
-243
-243
-243
-243
-243
-243
-243
-244
-243
-243
-243
-243
-243
-243
-243
-243
-243
-243
-243
-243
-244
-244
-244
-244
-246
-246
-247
-247
-248
-248
-249
-249
-250
-250
-250
-251
-251
-251
-251
-250
-251
-250
-250
-250
-251
-251
-251
-251
-251
-251
-252
-251
-251
-252
-252
-252
-252
-252
-252
-252
-252
-251
-251
-251
-252
-252
-252
-252
-253
-253
-253
-252
-252
-252
-252
-252
-253
-253
-253
-253
-253
-253
-253
-253
-253
-253
-254
-254
-255
-254
-254
-254
-255
-255
-255
-255
-254
-254
-254
-254
-253
-253
-253
-253
-253
-253
-252
-252
-252
-252
-252
-253
-253
-253
-253
-254
-254
-253
-254
-254
-255
-255
-254
-255
-255
-257
-257
-257
-257
-258
-258
-258
-257
-257
-256
-256
-256
-256
-254
-254
-254
-254
-254
-254
-254
-253
-253
-254
-254
-254
-254
-254
-256
-256
-256
-257
-257
-257
-258
-258
-258
-259
-258
-258
-258
-258
-258
-257
-257
-257
-256
-256
-255
-254
-254
-253
-252
-252
-252
-250
-250
-249
-249
-247
-247
-247
-247
-246
-246
-245
-245
-245
-244
-244
-244
-243
-243
-243
-242
-242
-242
-242
-241
-241
-240
-240
-240
-240
-239
-239
-239
-238
-238
-238
-238
-237
-237
-236
-236
-236
-236
-236
-236
-236
-237
-237
-238
-238
-239
-240
-240
-241
-242
-243
-244
-244
-246
-246
-247
-248
-248
-249
-250
-250
-250
-251
-251
-251
-252
-252
-253
-253
-254
-254
-254
-254
-254
-253
-253
-253
-253
-254
-254
-254
-254
-256
-256
-256
-257
-258
-259
-259
-260
-262
-262
-262
-263
-264
-265
-265
-265
-266
-267
-267
-267
-267
-268
-268
-267
-267
-267
-268
-268
-268
-267
-268
-266
-266
-266
-267
-266
-266
-265
-265
-265
-265
-265
-266
-266
-266
-267
-267
-267
-267
-267
-267
-267
-267
-267
-267
-267
-267
-267
-266
-266
-266
-266
-267
-266
-266
-266
-266
-266
-265
-265
-265
-265
-265
-265
-264
-265
-264
-264
-264
-263
-263
-263
-263
-262
-262
-262
-261
-262
-260
-260
-259
-258
-257
-256
-255
-252
-249
-247
-243
-239
-235
-230
-224
-217
-210
-203
-194
-186
-177
-167
-157
-146
-134
-123
-113
-101
-90
-79
-68
-58
-50
-40
-33
-25
-17
-11
-5
0
4
7
9
11
9
7
1
-7
-16
-29
-43
-60
-78
-98
-118
-140
-164
-188
-212
-236
-261
-283
-305
-327
-346
-365
-380
-393
-404
-412
-418
-420
-420
-419
-416
-411
-403
-395
-386
-376
-366
-355
-344
-333
-322
-311
-302
-292
-284
-275
-268
-261
-254
-249
-244
-240
-238
-234
-232
-231
-230
-229
-228
-228
-227
-227
-227
-227
-227
-228
-227
-227
-227
-227
-227
-227
-228
-227
-227
-226
-226
-226
-225
-225
-224
-223
-223
-222
-222
-221
-221
-220
-219
-219
-219
-218
-218
-218
-218
-218
-217
-216
-215
-215
-215
-215
-214
-214
-214
-214
-214
-213
-213
-213
-213
-213
-212
-213
-213
-212
-211
-211
-210
-210
-209
-209
-208
-208
-208
-206
-206
-206
-205
-205
-204
-204
-204
-204
-204
-203
-202
-203
-203
-202
-202
-201
-201
-201
-201
-201
-200
-199
-199
-199
-198
-198
-197
-196
-196
-196
-194
-194
-193
-193
-192
-191
-192
-191
-190
-190
-189
-189
-188
-188
-188
-188
-188
-188
-187
-187
-187
-186
-186
-185
-184
-184
-183
-182
-181
-180
-180
-179
-178
-177
-177
-176
-176
-175
-175
-173
-173
-172
-172
-170
-169
-168
-168
-167
-166
-166
-164
-164
-163
-163
-161
-161
-159
-158
-158
-157
-156
-155
-154
-153
-152
-151
-150
-149
-147
-146
-145
-144
-142
-141
-140
-138
-137
-136
-134
-133
-132
-131
-129
-127
-126
-125
-123
-122
-122
-121
-119
-118
-117
-116
-116
-114
-113
-112
-111
-110
-109
-108
-107
-106
-104
-102
-100
-99
-97
-96
-94
-92
-90
-89
-87
-85
-83
-81
-80
-78
-77
-76
-74
-74
-72
-72
-70
-70
-68
-67
-66
-66
-65
-65
-64
-64
-63
-64
-63
-63
-62
-61
-61
-61
-60
-60
-60
-59
-59
-59
-59
-58
-58
-58
-58
-59
-59
-60
-60
-60
-61
-62
-63
-64
-65
-66
-67
-68
-70
-72
-74
-76
-78
-80
-82
-84
-87
-90
-93
-95
-98
-101
-105
-107
-110
-113
-116
-119
-122
-125
-128
-131
-134
-137
-140
-143
-146
-149
-152
-155
-157
-160
-163
-166
-168
-171
-173
-175
-179
-180
-184
-186
-188
-191
-193
-197
-199
-202
-204
-206
-208
-211
-213
-214
-216
-219
-220
-222
-223
-225
-227
-228
-229
-231
-232
-233
-234
-235
-236
-237
-237
-238
-238
-239
-239
-239
-239
-240
-241
-241
-241
-243
-243
-244
-245
-246
-246
-247
-248
-248
-249
-250
-250
-251
-251
-252
-252
-252
-252
-253
-253
-253
-253
-254
-254
-253
-254
-254
-253
-253
-253
-252
-252
-252
-252
-252
-251
-251
-251
-250
-250
-250
-250
-250
-251
-251
-251
-251
-251
-251
-251
-251
-252
-252
-252
-252
-252
-252
-252
-252
-251
-251
-251
-251
-250
-250
-250
-250
-250
-249
-249
-249
-249
-250
-249
-249
-250
-250
-249
-250
-250
-250
-251
-252
-252
-252
-252
-252
-252
-252
-252
-252
-252
-252
-251
-251
-251
-250
-249
-249
-249
-249
-249
-249
-248
-248
-248
-248
-248
-248
-248
-248
-249
-249
-250
-249
-249
-250
-250
-250
-250
-250
-250
-250
-250
-251
-251
-251
-251
-250
-250
-250
-250
-249
-249
-248
-248
-248
-248
-248
-248
-248
-249
-249
-249
-248
-249
-250
-250
-250
-251
-251
-251
-251
-251
-252
-252
-252
-251
-251
-252
-252
-252
-252
-252
-253
-253
-253
-253
-252
-252
-252
-252
-251
-252
-252
-251
-250
-250
-250
-250
-250
-250
-250
-250
-250
-250
-250
-250
-251
-250
-250
-250
-251
-251
-250
-250
-250
-250
-251
-251
-251
-251
-251
-251
-251
-251
-251
-251
-252
-252
-252
-252
-252
-252
-252
-252
-252
-252
-252
-252
-252
-252
-252
-252
-253
-253
-253
-253
-253
-253
-253
-254
-254
-255
-255
-255
-256
-256
-257
-257
-257
-258
-259
-259
-260
-260
-260
-260
-261
-261
-261
-261
-261
-261
-261
-261
-261
-261
-260
-260
-260
-260
-260
-260
-261
-261
-261
-261
-261
-261
-261
-261
-261
-261
-262
-262
-262
-262
-262
-262
-261
-261
-261
-261
-261
-261
-261
-260
-260
-260
-260
-260
-260
-259
-260
-259
-259
-259
-259
-260
-260
-260
-260
-261
-261
-261
-261
-261
-261
-262
-262
-262
-262
-262
-262
-262
-262
-262
-262
-262
-262
-261
-261
-261
-261
-261
-261
-261
-262
-262
-262
-262
-262
-263
-263
-263
-264
-264
-265
-265
-266
-266
-266
-267
-267
-267
-267
-267
-267
-267
-267
-267
-267
-267
-266
-266
-266
-266
-265
-265
-265
-265
-265
-265
-265
-265
-265
-265
-265
-265
-265
-264
-264
-264
-265
-265
-265
-265
-265
-265
-265
-265
-265
-265
-265
-265
-266
-266
-266
-266
-266
-266
-266
-266
-265
-265
-266
-266
-265
-265
-266
-266
-266
-266
-267
-266
-267
-267
-267
-268
-267
-267
-267
-267
-267
-267
-267
-267
-266
-266
-266
-266
-266
-266
-266
-266
-265
-265
-265
-265
-265
-264
-264
-264
-263
-264
-264
-263
-263
-263
-264
-264
-263
-264
-264
-264
-264
-264
-264
-264
-264
-263
-263
-263
-262
-262
-262
-261
-261
-261
-260
-259
-259
-259
-258
-257
-256
-256
-255
-254
-254
-252
-252
-252
-250
-250
-249
-249
-248
-247
-247
-246
-246
-245
-245
-244
-244
-243
-243
-243
-242
-242
-241
-241
-240
-240
-240
-239
-240
-240
-240
-240
-240
-242
-242
-242
-244
-244
-245
-246
-248
-248
-250
-250
-251
-253
-254
-254
-256
-256
-258
-258
-259
-260
-261
-261
-261
-262
-262
-262
-262
-263
-263
-263
-263
-262
-262
-263
-263
-263
-263
-263
-263
-262
-262
-262
-262
-263
-263
-263
-263
-264
-264
-264
-264
-264
-264
-264
-265
-265
-266
-266
-266
-267
-267
-267
-268
-268
-268
-268
-268
-269
-269
-269
-270
-269
-269
-269
-270
-270
-270
-270
-270
-270
-270
-270
-270
-269
-270
-270
-270
-270
-269
-269
-268
-268
-268
-268
-267
-267
-268
-268
-267
-268
-269
-269
-269
-269
-269
-270
-270
-270
-269
-270
-270
-270
-270
-270
-271
-271
-270
-270
-270
-270
-270
-270
-270
-269
-269
-269
-269
-268
-267
-267
-267
-266
-266
-265
-264
-263
-261
-260
-258
-256
-253
-250
-245
-241
-236
-230
-223
-216
-207
-200
-190
-180
-171
-159
-149
-138
-127
-115
-103
-92
-81
-69
-59
-48
-39
-29
-20
-12
-5
4
10
15
20
24
26
27
26
23
18
9
-1
-15
-30
-47
-65
-85
-107
-131
-154
-179
-204
-229
-254
-278
-301
-323
-345
-362
-379
-393
-403
-410
-416
-418
-419
-418
-413
-407
-399
-391
-382
-372
-360
-350
-338
-328
-317
-308
-298
-289
-279
-271
-265
-258
-252
-247
-242
-239
-235
-232
-230
-228
-226
-225
-225
-224
-223
-223
-223
-224
-224
-225
-225
-225
-225
-227
-226
-227
-227
-228
-228
-228
-228
-228
-228
-228
-228
-228
-228
-227
-227
-227
-227
-225
-225
-225
-224
-223
-222
-222
-221
-220
-220
-220
-219
-219
-217
-217
-217
-217
-216
-216
-216
-216
-216
-216
-216
-215
-215
-215
-214
-214
-214
-213
-214
-213
-213
-212
-212
-211
-210
-210
-209
-208
-208
-207
-206
-206
-205
-204
-203
-202
-202
-201
-200
-200
-201
-200
-200
-200
-200
-200
-199
-199
-199
-199
-199
-198
-199
-199
-198
-198
-198
-197
-197
-197
-195
-195
-195
-195
-194
-193
-193
-192
-192
-191
-191
-190
-190
-188
-187
-186
-186
-185
-185
-184
-184
-183
-182
-181
-181
-181
-180
-180
-179
-178
-177
-177
-176
-174
-174
-173
-173
-172
-171
-170
-170
-169
-168
-168
-167
-167
-166
-166
-165
-164
-163
-163
-162
-162
-160
-159
-159
-158
-156
-155
-154
-152
-151
-149
-149
-148
-147
-145
-145
-144
-142
-140
-140
-138
-137
-135
-134
-133
-132
-131
-130
-129
-128
-127
-126
-125
-124
-123
-121
-120
-119
-116
-115
-114
-113
-110
-109
-108
-106
-105
-104
-103
-101
-100
-99
-97
-96
-95
-93
-92
-91
-90
-89
-88
-86
-85
-83
-82
-81
-78
-78
-77
-75
-74
-73
-72
-70
-70
-68
-67
-66
-65
-65
-63
-63
-62
-62
-61
-60
-60
-60
-59
-59
-58
-58
-58
-58
-58
-58
-58
-58
-57
-58
-57
-58
-58
-58
-58
-59
-60
-61
-62
-65
-66
-68
-69
-71
-73
-75
-78
-81
-83
-86
-89
-92
-95
-98
-100
-103
-106
-110
-113
-115
-119
-122
-125
-127
-131
-134
-137
-140
-143
-146
-149
-151
-154
-157
-160
-163
-165
-168
-172
-174
-176
-179
-181
-185
-187
-189
-192
-194
-197
-198
-201
-202
-205
-206
-209
-211
-213
-214
-216
-218
-220
-222
-223
-224
-226
-227
-228
-230
-231
-232
-233
-235
-236
-236
-237
-237
-239
-240
-239
-240
-241
-241
-242
-243
-243
-243
-244
-244
-245
-245
-245
-245
-245
-245
-245
-245
-246
-247
-246
-247
-247
-247
-247
-247
-248
-249
-249
-249
-249
-250
-250
-250
-250
-250
-250
-250
-250
-251
-250
-250
-250
-251
-251
-251
-251
-251
-251
-251
-251
-252
-252
-251
-251
-251
-251
-252
-251
-251
-250
-250
-251
-250
-250
-250
-250
-250
-249
-249
-249
-249
-249
-249
-249
-249
-250
-250
-250
-250
-250
-251
-251
-252
-252
-252
-252
-253
-253
-252
-252
-252
-252
-251
-251
-251
-251
-250
-250
-250
-250
-250
-249
-249
-249
-249
-249
-248
-249
-248
-248
-248
-249
-248
-248
-248
-248
-247
-248
-248
-247
-249
-248
-248
-248
-248
-248
-249
-249
-249
-248
-248
-248
-248
-248
-248
-247
-247
-247
-246
-246
-246
-246
-246
-246
-246
-246
-246
-246
-246
-246
-246
-247
-247
-248
-248
-248
-249
-249
-249
-250
-251
-251
-252
-252
-252
-253
-253
-253
-253
-253
-253
-252
-252
-252
-252
-252
-251
-250
-250
-251
-250
-250
-250
-250
-249
-249
-250
-250
-250
-250
-250
-250
-250
-251
-251
-251
-251
-251
-253
-253
-253
-254
-254
-254
-255
-256
-256
-256
-256
-257
-256
-257
-257
-256
-257
-257
-258
-257
-257
-258
-257
-257
-258
-258
-258
-258
-257
-258
-258
-258
-258
-258
-258
-258
-258
-258
-258
-258
-258
-258
-258
-258
-258
-257
-258
-258
-258
-258
-258
-258
-257
-258
-258
-257
-257
-257
-258
-258
-258
-258
-258
-259
-259
-260
-260
-260
-260
-262
-262
-261
-262
-262
-262
-262
-262
-263
-263
-263
-263
-263
-263
-262
-262
-263
-263
-263
-262
-262
-263
-262
-261
-261
-261
-261
-261
-260
-260
-260
-260
-260
-260
-260
-260
-260
-260
-260
-260
-260
-260
-260
-260
-260
-260
-260
-260
-260
-260
-259
-259
-258
-258
-259
-258
-258
-259
-259
-259
-259
-259
-259
-259
-260
-261
-261
-261
-262
-262
-262
-264
-264
-264
-265
-264
-265
-265
-264
-264
-264
-264
-264
-263
-263
-263
-262
-262
-262
-262
-262
-262
-262
-262
-262
-262
-262
-262
-262
-263
-263
-263
-263
-264
-264
-263
-263
-263
-263
-263
-263
-263
-262
-263
-263
-263
-263
-263
-264
-264
-264
-264
-264
-265
-265
-264
-265
-265
-265
-265
-265
-266
-267
-267
-267
-267
-267
-267
-267
-267
-267
-267
-266
-266
-266
-266
-265
-265
-265
-265
-264
-264
-264
-264
-263
-263
-263
-264
-264
-263
-263
-263
-263
-263
-263
-263
-264
-264
-264
-264
-264
-264
-264
-263
-263
-263
-263
-263
-263
-263
-263
-262
-262
-261
-261
-260
-259
-258
-258
-258
-257
-257
-256
-256
-255
-255
-254
-254
-252
-252
-251
-251
-249
-249
-247
-247
-246
-244
-244
-242
-241
-241
-240
-240
-240
-240
-239
-239
-239
-239
-239
-240
-239
-240
-241
-241
-241
-242
-242
-243
-244
-244
-245
-245
-245
-246
-245
-246
-247
-247
-247
-247
-249
-248
-248
-250
-250
-250
-250
-251
-251
-252
-253
-253
-254
-254
-255
-256
-256
-257
-257
-257
-257
-258
-259
-259
-259
-260
-260
-260
-260
-260
-261
-261
-261
-262
-263
-263
-263
-263
-263
-264
-265
-265
-265
-265
-265
-266
-266
-266
-267
-267
-268
-269
-269
-269
-269
-270
-270
-270
-271
-271
-271
-271
-271
-271
-272
-272
-271
-271
-272
-272
-271
-271
-272
-271
-271
-271
-271
-271
-271
-271
-271
-271
-271
-270
-270
-270
-270
-269
-269
-269
-270
-270
-270
-269
-270
-270
-270
-270
-270
-270
-270
-270
-270
-269
-269
-269
-269
-268
-269
-269
-267
-268
-268
-268
-268
-267
-267
-267
-266
-266
-267
-266
-266
-266
-265
-265
-265
-266
-265
-264
-263
-262
-261
-258
-255
-251
-247
-242
-236
-230
-222
-215
-207
-197
-187
-176
-166
-154
-142
-130
-119
-106
-94
-82
-71
-60
-49
-38
-29
-19
-11
-2
6
13
20
25
30
33
36
36
35
32
25
16
5
-9
-25
-43
-63
-84
-107
-132
-158
-184
-211
-237
-263
-289
-313
-335
-357
-375
-391
-405
-415
-423
-427
-430
-428
-426
-421
-414
-406
-397
-387
-376
-365
-354
-342
-332
-322
-311
-301
-293
-284
-276
-269
-263
-257
-252
-247
-243
-240
-237
-235
-233
-231
-230
-229
-228
-228
-228
-228
-228
-228
-228
-228
-228
-228
-228
-228
-228
-228
-227
-228
-228
-227
-227
-226
-226
-226
-226
-225
-224
-224
-224
-224
-224
-223
-222
-221
-221
-220
-220
-220
-219
-219
-218
-218
-218
-217
-217
-217
-217
-217
-216
-216
-216
-216
-216
-215
-215
-215
-214
-214
-214
-214
-213
-212
-211
-211
-210
-210
-210
-208
-208
-208
-207
-206
-206
-205
-204
-204
-203
-203
-202
-202
-201
-201
-201
-201
-200
-200
-200
-199
-199
-200
-199
-198
-199
-198
-198
-197
-198
-197
-196
-196
-196
-195
-195
-194
-194
-193
-193
-192
-191
-191
-191
-190
-190
-189
-188
-187
-186
-185
-185
-184
-183
-182
-181
-180
-180
-178
-178
-176
-176
-174
-173
-172
-170
-169
-168
-167
-167
-166
-166
-165
-164
-164
-163
-163
-163
-162
-163
-162
-162
-162
-162
-161
-161
-160
-159
-158
-158
-157
-155
-154
-153
-151
-150
-150
-148
-147
-146
-144
-143
-143
-141
-140
-138
-138
-136
-135
-134
-133
-131
-130
-128
-127
-126
-124
-123
-122
-120
-120
-118
-116
-115
-114
-113
-111
-110
-108
-105
-105
-102
-101
-99
-97
-95
-94
-92
-91
-89
-88
-85
-84
-82
-81
-80
-77
-76
-75
-73
-72
-70
-69
-67
-66
-64
-63
-62
-60
-60
-59
-57
-57
-56
-55
-54
-53
-52
-51
-50
-49
-49
-47
-47
-47
-46
-45
-45
-45
-44
-43
-44
-43
-42
-43
-43
-43
-43
-43
-43
-44
-44
-45
-46
-47
-48
-50
-51
-53
-55
-56
-59
-61
-63
-66
-69
-71
-74
-76
-79
-82
-85
-87
-90
-93
-96
-99
-102
-105
-108
-111
-114
-118
-121
-124
-128
-130
-133
-137
-140
-144
-146
-150
-153
-156
-159
-162
-166
-168
-172
-175
-178
-180
-183
-186
-188
-190
-192
-194
-196
-198
-200
-202
-203
-204
-206
-208
-209
-211
-212
-213
-214
-216
-217
-220
-221
-223
-224
-226
-226
-228
-230
-231
-232
-234
-236
-238
-238
-240
-242
-242
-243
-244
-245
-246
-246
-246
-246
-247
-248
-247
-246
-246
-247
-246
-247
-247
-247
-247
-247
-247
-247
-247
-247
-247
-247
-246
-246
-246
-247
-247
-247
-247
-246
-247
-246
-247
-247
-247
-247
-247
-247
-247
-247
-247
-247
-247
-247
-246
-246
-247
-247
-247
-248
-247
-248
-248
-248
-248
-249
-249
-249
-249
-249
-249
-249
-249
-248
-248
-249
-248
-248
-248
-247
-247
-247
-247
-247
-246
-247
-247
-246
-246
-247
-247
-247
-245
-245
-245
-246
-244
-244
-244
-244
-244
-244
-244
-244
-244
-244
-243
-244
-244
-243
-243
-244
-244
-244
-244
-243
-243
-243
-242
-242
-242
-242
-242
-242
-241
-241
-241
-240
-240
-240
-240
-240
-240
-240
-240
-240
-241
-241
-241
-241
-242
-242
-242
-243
-243
-245
-245
-245
-245
-246
-246
-247
-246
-246
-246
-245
-245
-245
-245
-245
-245
-244
-245
-244
-244
-244
-244
-244
-244
-244
-243
-243
-243
-243
-243
-243
-242
-242
-243
-243
-243
-243
-243
-243
-244
-245
-245
-246
-246
-246
-246
-247
-247
-248
-248
-248
-248
-248
-248
-247
-247
-248
-248
-247
-248
-248
-249
-248
-248
-249
-248
-248
-249
-250
-250
-250
-250
-250
-250
-250
-251
-250
-251
-252
-252
-252
-252
-252
-252
-252
-252
-251
-251
-251
-251
-250
-250
-250
-251
-251
-251
-251
-251
-251
-252
-253
-253
-254
-254
-255
-255
-256
-256
-256
-256
-257
-257
-257
-257
-257
-257
-257
-257
-257
-257
-256
-257
-257
-257
-257
-257
-256
-256
-256
-256
-255
-256
-256
-256
-255
-255
-256
-256
-256
-256
-256
-256
-256
-257
-256
-256
-257
-257
-257
-256
-256
-257
-257
-257
-257
-257
-257
-258
-258
-258
-258
-258
-258
-258
-258
-258
-259
-259
-259
-258
-259
-259
-258
-258
-258
-258
-258
-258
-257
-257
-257
-257
-257
-257
-256
-256
-256
-256
-256
-256
-256
-255
-255
-255
-255
-255
-256
-256
-256
-256
-256
-257
-257
-257
-258
-258
-258
-259
-259
-259
-259
-260
-259
-259
-260
-260
-260
-260
-260
-260
-260
-260
-260
-260
-260
-259
-259
-259
-259
-258
-259
-258
-258
-258
-257
-257
-256
-256
-256
-256
-255
-255
-255
-255
-254
-254
-254
-253
-253
-252
-251
-251
-250
-250
-248
-248
-248
-247
-247
-246
-246
-245
-245
-244
-244
-244
-243
-242
-242
-241
-240
-240
-239
-238
-238
-237
-236
-236
-235
-235
-235
-235
-235
-234
-234
-233
-233
-233
-233
-235
-235
-235
-236
-237
-238
-238
-240
-241
-241
-243
-243
-244
-245
-246
-247
-248
-248
-249
-249
-250
-251
-251
-251
-252
-252
-252
-252
-253
-253
-253
-254
-254
-254
-254
-254
-254
-255
-255
-254
-254
-254
-253
-253
-253
-253
-253
-254
-253
-253
-254
-254
-255
-256
-256
-258
-258
-259
-259
-260
-262
-263
-263
-265
-265
-266
-267
-267
-268
-268
-268
-268
-269
-269
-269
-268
-268
-268
-268
-268
-268
-267
-267
-267
-267
-266
-266
-266
-266
-266
-266
-266
-266
-266
-266
-266
-266
-266
-266
-266
-266
-266
-266
-266
-266
-265
-265
-265
-266
-266
-265
-265
-265
-264
-265
-265
-265
-265
-264
-264
-263
-262
-262
-262
-261
-261
-261
-261
-261
-260
-260
-260
-260
-260
-260
-259
-258
-257
-256
-254
-252
-249
-245
-241
-235
-230
-223
-216
-208
-200
-190
-180
-170
-159
-147
-135
-123
-111
-98
-86
-74
-62
-51
-40
-29
-19
-10
-2
6
15
21
27
32
37
40
42
42
41
37
31
22
10
-4
-20
-38
-58
-80
-103
-128
-155
-181
-208
-235
-261
-287
-313
-336
-357
-376
-392
-406
-416
-423
-428
-430
-428
-425
-420
-413
-405
-395
-384
-373
-361
-349
-337
-326
-315
-304
-293
-283
-275
-266
-258
-252
-246
-241
-236
-233
-229
-227
-225
-223
-223
-221
-221
-220
-220
-219
-219
-219
-219
-219
-219
-219
-219
-219
-219
-219
-219
-218
-218
-217
-217
-216
-215
-215
-215
-214
-214
-213
-213
-212
-212
-212
-212
-211
-212
-212
-212
-213
-212
-213
-213
-213
-214
-214
-215
-214
-214
-213
-214
-213
-213
-212
-212
-211
-210
-210
-209
-209
-207
-207
-206
-206
-205
-205
-203
-203
-203
-201
-201
-200
-200
-200
-199
-198
-197
-197
-197
-197
-196
-196
-196
-196
-196
-195
-195
-194
-194
-193
-194
-193
-193
-192
-191
-191
-191
-189
-189
-189
-189
-188
-188
-187
-186
-186
-186
-185
-185
-183
-183
-182
-181
-181
-179
-179
-178
-178
-176
-176
-176
-175
-175
-174
-173
-173
-172
-171
-170
-170
-169
-169
-169
-168
-167
-166
-166
-165
-165
-164
-163
-163
-162
-162
-161
-160
-159
-158
-157
-156
-156
-155
-153
-152
-151
-150
-148
-147
-146
-145
-144
-143
-142
-140
-139
-137
-136
-135
-134
-133
-131
-130
-129
-127
-126
-125
-123
-122
-121
-120
-120
-119
-118
-116
-115
-114
-112
-111
-110
-109
-107
-106
-104
-102
-102
-99
-98
-97
-95
-94
-93
-91
-90
-88
-87
-85
-83
-81
-80
-77
-76
-74
-72
-70
-68
-66
-65
-63
-62
-60
-58
-57
-56
-55
-54
-53
-52
-51
-50
-48
-48
-47
-46
-45
-44
-42
-41
-41
-39
-39
-38
-38
-37
-36
-36
-35
-35
-34
-34
-33
-33
-33
-32
-32
-32
-31
-32
-33
-34
-34
-35
-36
-37
-39
-39
-41
-42
-44
-46
-47
-48
-51
-53
-55
-57
-60
-62
-64
-68
-70
-73
-76
-79
-82
-86
-88
-92
-95
-98
-102
-104
-108
-112
-114
-118
-121
-125
-128
-131
-135
-138
-141
-144
-147
-150
-153
-156
-159
-162
-164
-167
-170
-173
-175
-177
-180
-182
-185
-188
-190
-193
-195
-196
-199
-201
-204
-205
-207
-210
-211
-213
-215
-216
-218
-219
-220
-221
-224
-225
-226
-228
-229
-230
-230
-231
-232
-233
-233
-234
-234
-235
-235
-235
-236
-236
-236
-237
-237
-238
-238
-238
-238
-239
-239
-240
-239
-239
-239
-239
-239
-240
-240
-240
-240
-240
-240
-240
-240
-239
-240
-240
-240
-241
-241
-241
-241
-241
-241
-241
-241
-241
-241
-241
-241
-241
-241
-240
-241
-241
-241
-241
-241
-240
-240
-240
-240
-239
-239
-239
-239
-238
-239
-239
-239
-238
-238
-238
-238
-240
-240
-240
-240
-240
-240
-240
-241
-241
-240
-240
-240
-240
-241
-239
-239
-239
-239
-239
-238
-238
-238
-238
-239
-239
-239
-239
-238
-239
-239
-239
-239
-238
-239
-239
-240
-240
-240
-241
-240
-241
-241
-241
-241
-241
-241
-241
-241
-240
-239
-239
-239
-238
-239
-239
-239
-238
-238
-238
-238
-238
-238
-238
-238
-238
-238
-238
-238
-238
-238
-238
-238
-239
-238
-238
-238
-238
-238
-238
-238
-239
-239
-238
-239
-239
-239
-239
-239
-238
-238
-238
-238
-238
-238
-238
-238
-238
-238
-237
-237
-237
-237
-237
-237
-237
-238
-237
-237
-237
-238
-238
-238
-238
-239
-239
-239
-240
-240
-240
-241
-241
-241
-242
-242
-242
-242
-243
-243
-243
-243
-243
-242
-241
-242
-241
-241
-241
-241
-241
-240
-240
-240
-241
-241
-241
-241
-242
-242
-242
-243
-243
-243
-243
-244
-244
-245
-245
-246
-246
-247
-247
-247
-248
-248
-248
-249
-248
-248
-248
-248
-248
-248
-248
-249
-248
-248
-248
-248
-248
-248
-248
-248
-249
-249
-249
-249
-248
-248
-249
-249
-249
-248
-247
-248
-248
-247
-247
-247
-247
-247
-247
-248
-247
-248
-248
-249
-249
-249
-249
-249
-250
-250
-250
-251
-250
-250
-250
-250
-250
-250
-250
-250
-250
-250
-250
-250
-249
-249
-249
-249
-249
-249
-249
-247
-247
-248
-248
-248
-247
-247
-247
-247
-248
-248
-248
-248
-248
-248
-248
-248
-248
-248
-248
-248
-248
-247
-248
-248
-248
-248
-248
-248
-248
-249
-249
-250
-250
-250
-250
-250
-251
-251
-251
-252
-252
-252
-251
-252
-252
-253
-253
-253
-252
-253
-253
-253
-252
-252
-252
-252
-252
-252
-252
-252
-252
-252
-251
-251
-251
-250
-250
-250
-251
-251
-251
-251
-250
-250
-250
-250
-250
-250
-250
-250
-249
-249
-250
-250
-250
-250
-250
-250
-250
-251
-251
-250
-250
-251
-250
-250
-250
-250
-251
-251
-251
-251
-251
-251
-251
-251
-251
-251
-252
-252
-251
-251
-251
-252
-252
-252
-251
-250
-250
-250
-250
-250
-249
-248
-248
-248
-247
-247
-247
-246
-246
-246
-246
-245
-245
-245
-246
-246
-246
-246
-246
-247
-247
-248
-248
-249
-250
-251
-252
-252
-254
-254
-254
-254
-254
-255
-255
-255
-254
-254
-254
-254
-253
-253
-253
-254
-253
-253
-253
-253
-253
-253
-253
-253
-253
-253
-252
-252
-252
-252
-252
-252
-251
-251
-251
-251
-250
-250
-250
-249
-249
-249
-249
-248
-248
-247
-247
-246
-246
-245
-245
-244
-244
-243
-243
-241
-241
-241
-240
-239
-239
-239
-237
-237
-237
-237
-235
-235
-235
-235
-234
-234
-233
-233
-233
-233
-233
-233
-232
-232
-232
-232
-232
-231
-231
-231
-230
-230
-230
-229
-228
-228
-228
-228
-228
-228
-228
-228
-229
-229
-230
-229
-230
-230
-231
-231
-231
-231
-231
-232
-232
-233
-233
-233
-234
-235
-235
-236
-237
-238
-238
-240
-240
-241
-243
-244
-244
-246
-247
-247
-248
-249
-250
-250
-250
-252
-252
-252
-253
-253
-254
-253
-254
-254
-253
-253
-254
-254
-253
-254
-253
-253
-254
-254
-254
-254
-254
-254
-255
-255
-254
-254
-255
-255
-255
-255
-255
-256
-256
-256
-255
-256
-256
-256
-257
-257
-257
-257
-257
-257
-258
-258
-257
-257
-257
-257
-257
-257
-257
-256
-256
-256
-256
-256
-256
-256
-256
-256
-255
-255
-255
-255
-255
-256
-255
-255
-255
-255
-255
-255
-255
-255
-255
-254
-254
-254
-254
-254
-254
-253
-253
-253
-253
-252
-251
-251
-250
-250
-249
-248
-248
-246
-246
-244
-242
-240
-238
-234
-232
-229
-224
-219
-214
-209
-201
-195
-187
-179
-170
-161
-151
-141
-130
-120
-109
-98
-87
-77
-66
-55
-44
-35
-25
-17
-7
1
9
16
22
27
32
35
37
38
36
31
26
15
4
-10
-25
-43
-62
-83
-105
-129
-152
-178
-202
-227
-252
-275
-297
-319
-338
-355
-369
-381
-390
-397
-400
-402
-400
-398
-393
-386
-378
-369
-359
-349
-337
-327
-316
-305
-296
-285
-275
-266
-258
-251
-244
-238
-232
-227
-223
-219
-217
-214
-214
-211
-211
-211
-210
-211
-210
-211
-212
-212
-213
-215
-215
-216
-216
-216
-217
-217
-217
-217
-217
-216
-216
-215
-215
-213
-213
-213
-212
-211
-210
-210
-210
-209
-209
-207
-207
-206
-207
-205
-204
-204
-203
-203
-203
-203
-201
-201
-201
-201
-200
-200
-199
-198
-198
-198
-198
-197
-197
-196
-197
-196
-197
-197
-197
-196
-197
-197
-198
-198
-197
-197
-197
-198
-198
-197
-197
-196
-196
-195
-195
-194
-194
-193
-193
-192
-192
-192
-190
-190
-190
-189
-189
-188
-188
-187
-186
-186
-185
-185
-184
-183
-183
-181
-181
-180
-180
-180
-179
-178
-178
-177
-177
-176
-176
-176
-174
-173
-173
-172
-172
-171
-170
-170
-169
-168
-167
-167
-166
-166
-164
-164
-163
-163
-163
-162
-162
-161
-160
-159
-159
-158
-157
-157
-156
-156
-155
-154
-154
-152
-152
-151
-151
-150
-148
-148
-147
-146
-145
-145
-144
-143
-143
-142
-141
-140
-139
-138
-138
-137
-136
-136
-135
-134
-133
-132
-131
-130
-129
-128
-127
-126
-125
-124
-122
-120
-119
-118
-117
-115
-115
-113
-112
-111
-109
-108
-107
-106
-103
-102
-101
-99
-98
-97
-94
-93
-92
-91
-89
-88
-87
-85
-84
-83
-81
-80
-79
-78
-76
-75
-74
-72
-72
-71
-69
-67
-67
-66
-64
-64
-63
-62
-60
-60
-58
-58
-57
-56
-56
-54
-54
-52
-52
-52
-52
-50
-51
-51
-51
-51
-52
-52
-52
-53
-53
-53
-54
-54
-54
-55
-56
-56
-57
-56
-57
-58
-59
-60
-60
-61
-63
-64
-65
-67
-69
-71
-72
-74
-76
-79
-82
-84
-87
-90
-93
-96
-98
-102
-105
-109
-112
-115
-118
-121
-124
-128
-130
-134
-136
-139
-142
-144
-147
-150
-152
-154
-157
-159
-162
-164
-166
-168
-171
-173
-176
-179
-181
-183
-185
-187
-190
-191
-194
-195
-197
-198
-200
-202
-204
-205
-207
-208
-209
-210
-212
-213
-214
-216
-216
-217
-219
-219
-220
-222
-222
-223
-225
-225
-226
-227
-227
-228
-230
-230
-231
-231
-231
-232
-232
-232
-232
-232
-232
-232
-232
-232
-232
-232
-232
-233
-233
-232
-232
-232
-233
-234
-234
-234
-234
-235
-234
-235
-235
-235
-234
-235
-235
-235
-235
-237
-237
-236
-237
-237
-238
-238
-238
-238
-238
-238
-238
-238
-238
-238
-238
-237
-238
-238
-238
-238
-237
-237
-237
-236
-235
-235
-235
-235
-235
-234
-234
-233
-233
-233
-234
-233
-233
-233
-233
-233
-234
-234
-234
-234
-234
-235
-235
-234
-234
-234
-235
-234
-233
-233
-234
-234
-232
-233
-232
-232
-232
-232
-231
-231
-231
-231
-231
-231
-231
-231
-230
-230
-230
-229
-229
-229
-229
-228
-228
-228
-229
-229
-229
-229
-229
-230
-230
-231
-231
-231
-232
-231
-232
-233
-233
-233
-234
-235
-235
-235
-235
-236
-236
-236
-236
-237
-237
-237
-235
-235
-235
-235
-235
-235
-234
-234
-234
-234
-234
-234
-235
-234
-234
-234
-234
-234
-234
-234
-234
-234
-234
-235
-235
-235
-235
-234
-234
-235
-235
-235
-236
-235
-235
-235
-236
-235
-235
-235
-235
-234
-234
-234
-234
-235
-235
-235
-235
-235
-236
-236
-236
-237
-237
-238
-238
-238
-240
-240
-240
-241
-241
-241
-242
-242
-242
-242
-243
-243
-243
-244
-243
-243
-244
-244
-244
-243
-244
-244
-244
-244
-243
-244
-244
-244
-244
-245
-245
-245
-245
-246
-246
-246
-246
-246
-246
-247
-247
-248
-248
-248
-248
-248
-248
-248
-249
-249
-249
-250
-250
-250
-251
-251
-251
-251
-252
-251
-251
-251
-251
-251
-251
-251
-251
-251
-251
-251
-250
-250
-249
-249
-249
-249
-248
-248
-249
-249
-249
-248
-248
-248
-248
-249
-248
-248
-249
-249
-249
-250
-251
-251
-251
-251
-251
-252
-253
-253
-253
-253
-253
-253
-253
-253
-253
-253
-253
-253
-252
-253
-253
-252
-252
-252
-252
-252
-251
-252
-252
-252
-252
-251
-251
-251
-251
-251
-252
-251
-251
-251
-251
-252
-253
-253
-253
-253
-253
-253
-253
-254
-254
-253
-253
-253
-254
-254
-253
-253
-253
-253
-253
-254
-254
-253
-253
-253
-254
-254
-254
-254
-254
-253
-252
-253
-252
-252
-252
-252
-252
-252
-252
-251
-251
-252
-252
-252
-252
-253
-253
-253
-253
-254
-254
-253
-254
-254
-255
-255
-255
-255
-255
-255
-255
-255
-255
-254
-254
-253
-253
-254
-254
-254
-254
-253
-253
-253
-253
-252
-252
-253
-254
-253
-254
-255
-255
-255
-255
-256
-256
-255
-255
-255
-256
-255
-255
-256
-256
-256
-255
-255
-255
-255
-256
-256
-256
-256
-256
-256
-256
-256
-255
-255
-255
-255
-255
-255
-255
-254
-254
-255
-255
-255
-254
-254
-255
-255
-255
-255
-255
-255
-255
-255
-255
-255
-255
-255
-255
-255
-255
-255
-255
-255
-255
-256
-256
-255
-256
-256
-255
-255
-255
-254
-255
-254
-254
-254
-254
-254
-254
-254
-254
-254
-254
-254
-254
-254
-254
-254
-255
-255
-255
-255
-255
-255
-255
-255
-255
-255
-255
-255
-255
-255
-255
-255
-255
-254
-254
-254
-253
-253
-252
-252
-251
-250
-249
-248
-248
-247
-245
-245
-244
-243
-242
-242
-241
-240
-239
-239
-238
-237
-237
-237
-236
-236
-236
-236
-236
-236
-236
-236
-236
-236
-237
-237
-237
-236
-237
-237
-237
-237
-235
-235
-235
-235
-234
-234
-233
-232
-233
-232
-233
-232
-233
-232
-232
-232
-233
-233
-233
-234
-234
-234
-235
-235
-236
-237
-237
-238
-240
-240
-242
-242
-243
-244
-245
-246
-247
-248
-250
-250
-250
-251
-251
-251
-251
-252
-251
-252
-252
-252
-252
-252
-252
-252
-252
-252
-252
-252
-252
-253
-253
-253
-254
-254
-254
-255
-256
-256
-256
-257
-258
-258
-258
-259
-259
-259
-260
-260
-261
-261
-261
-261
-260
-260
-260
-260
-260
-260
-260
-260
-260
-260
-259
-260
-260
-260
-260
-259
-259
-259
-259
-259
-259
-260
-259
-259
-259
-259
-259
-259
-259
-259
-259
-259
-259
-259
-259
-259
-259
-259
-260
-260
-259
-259
-259
-259
-260
-259
-259
-259
-260
-259
-259
-259
-258
-258
-258
-258
-258
-258
-257
-257
-256
-256
-256
-255
-254
-253
-253
-251
-249
-247
-244
-241
-238
-233
-228
-222
-215
-209
-201
-193
-183
-173
-163
-153
-141
-131
-118
-108
-95
-83
-72
-61
-50
-39
-29
-19
-11
-3
6
13
20
27
32
37
40
42
42
40
36
29
18
6
-8
-24
-43
-63
-84
-108
-132
-156
-181
-207
-233
-257
-282
-305
-326
-345
-363
-376
-388
-397
-404
-407
-408
-407
-404
-400
-393
-385
-376
-367
-357
-347
-335
-325
-316
-306
-296
-287
-278
-270
-264
-257
-251
-246
-241
-237
-233
-231
-228
-226
-225
-223
-222
-220
-220
-220
-220
-220
-219
-220
-219
-219
-219
-219
-219
-219
-218
-218
-217
-217
-217
-217
-216
-216
-216
-215
-215
-215
-216
-215
-216
-216
-215
-215
-216
-216
-215
-215
-214
-214
-213
-213
-213
-211
-211
-211
-210
-210
-209
-209
-209
-209
-209
-208
-207
-208
-208
-207
-207
-207
-207
-207
-207
-207
-208
-208
-207
-207
-207
-206
-206
-206
-206
-206
-205
-205
-203
-203
-203
-203
-201
-201
-200
-199
-199
-199
-198
-197
-196
-196
-196
-195
-195
-195
-194
-193
-192
-192
-191
-191
-190
-190
-190
-189
-189
-189
-187
-187
-187
-187
-185
-186
-185
-184
-184
-183
-182
-181
-181
-180
-179
-178
-177
-177
-176
-175
-175
-174
-173
-173
-172
-171
-171
-171
-170
-169
-168
-168
-167
-166
-165
-164
-165
-164
-162
-161
-161
-159
-159
-157
-157
-155
-155
-154
-153
-153
-152
-151
-150
-150
-149
-149
-148
-147
-147
-146
-147
-146
-146
-145
-144
-144
-143
-141
-140
-139
-138
-136
-135
-133
-132
-130
-128
-127
-124
-123
-121
-120
-118
-116
-115
-114
-112
-111
-109
-108
-107
-105
-103
-103
-101
-100
-99
-98
-97
-96
-95
-92
-92
-91
-90
-87
-86
-85
-83
-81
-80
-79
-76
-75
-74
-73
-71
-69
-68
-66
-66
-65
-63
-63
-62
-60
-60
-58
-58
-56
-55
-55
-54
-54
-52
-52
-51
-50
-50
-49
-49
-48
-48
-47
-46
-46
-47
-46
-46
-47
-46
-46
-47
-48
-48
-49
-49
-50
-51
-53
-54
-55
-57
-58
-60
-61
-63
-65
-66
-69
-70
-72
-74
-76
-77
-80
-82
-84
-87
-90
-93
-96
-100
-103
-106
-109
-113
-117
-120
-124
-127
-131
-135
-138
-141
-145
-148
-151
-154
-156
-160
-163
-165
-168
-171
-173
-175
-178
-180
-183
-185
-187
-189
-191
-193
-196
-197
-200
-202
-205
-206
-208
-210
-212
-214
-216
-218
-219
-221
-222
-223
-224
-224
-226
-227
-228
-228
-229
-229
-230
-229
-230
-231
-230
-231
-231
-231
-232
-233
-233
-234
-235
-235
-236
-236
-237
-237
-238
-239
-240
-240
-242
-243
-243
-245
-245
-245
-246
-246
-246
-246
-246
-246
-246
-246
-246
-246
-245
-244
-245
-245
-245
-245
-244
-244
-244
-244
-245
-245
-244
-244
-244
-244
-243
-243
-243
-243
-243
-243
-243
-243
-243
-242
-243
-243
-243
-243
-242
-242
-242
-242
-242
-241
-241
-241
-241
-241
-240
-240
-240
-240
-240
-240
-240
-239
-239
-239
-239
-239
-238
-238
-239
-239
-238
-238
-238
-238
-239
-239
-239
-239
-240
-240
-241
-241
-241
-241
-242
-242
-242
-242
-242
-242
-242
-242
-242
-242
-241
-240
-241
-241
-241
-240
-240
-240
-240
-240
-239
-239
-239
-239
-240
-240
-239
-239
-238
-238
-238
-238
-238
-239
-238
-238
-238
-238
-238
-238
-239
-239
-239
-239
-239
-240
-240
-240
-240
-240
-241
-242
-242
-242
-243
-243
-243
-243
-243
-243
-244
-244
-244
-244
-244
-244
-243
-243
-244
-244
-244
-244
-244
-244
-244
-244
-245
-245
-245
-245
-246
-245
-245
-245
-245
-245
-244
-245
-245
-245
-245
-245
-245
-246
-246
-246
-247
-247
-248
-248
-249
-249
-250
-251
-251
-251
-251
-251
-251
-251
-252
-252
-251
-251
-251
-251
-252
-252
-251
-251
-252
-251
-251
-251
-251
-251
-251
-251
-251
-251
-251
-251
-251
-252
-252
-252
-252
-252
-252
-253
-253
-253
-253
-253
-253
-253
-253
-253
-253
-254
-254
-254
-255
-255
-255
-255
-255
-256
-256
-256
-257
-257
-258
-258
-258
-257
-258
-258
-257
-257
-257
-257
-257
-257
-258
-257
-257
-258
-257
-257
-257
-257
-257
-257
-257
-257
-257
-257
-257
-258
-258
-258
-258
-258
-258
-258
-259
-259
-259
-259
-259
-259
-259
-259
-258
-258
-259
-258
-258
-258
-258
-258
-258
-258
-258
-258
-258
-258
-258
-258
-258
-259
-259
-259
-258
-258
-258
-258
-258
-258
-258
-257
-258
-257
-257
-257
-257
-257
-257
-256
-256
-255
-254
-254
-254
-254
-252
-253
-253
-253
-253
-254
-254
-254
-254
-255
-255
-256
-256
-257
-258
-259
-259
-260
-260
-261
-261
-261
-261
-262
-262
-262
-262
-262
-261
-261
-260
-260
-259
-259
-258
-258
-257
-257
-256
-255
-254
-254
-254
-252
-251
-251
-251
-250
-250
-249
-248
-248
-247
-247
-247
-247
-246
-247
-246
-246
-245
-245
-244
-244
-244
-244
-244
-243
-242
-242
-242
-241
-241
-240
-240
-240
-239
-238
-238
-237
-236
-236
-235
-235
-235
-235
-235
-235
-236
-235
-236
-236
-236
-237
-239
-239
-239
-241
-241
-242
-242
-243
-243
-244
-244
-246
-246
-246
-247
-248
-248
-248
-249
-249
-250
-250
-250
-250
-251
-251
-251
-251
-251
-252
-252
-252
-253
-253
-253
-253
-254
-255
-255
-255
-256
-256
-256
-257
-257
-257
-257
-257
-258
-258
-258
-258
-258
-258
-258
-259
-259
-259
-260
-260
-260
-261
-261
-261
-261
-260
-261
-261
-261
-262
-263
-263
-263
-264
-264
-264
-264
-265
-265
-265
-266
-266
-266
-266
-267
-267
-266
-267
-266
-267
-266
-266
-265
-265
-265
-264
-265
-265
-264
-264
-263
-263
-263
-263
-262
-262
-262
-261
-261
-261
-260
-260
-260
-260
-260
-260
-260
-260
-261
-261
-261
-260
-260
-260
-260
-260
-259
-259
-259
-258
-257
-256
-254
-251
-249
-246
-241
-237
-231
-226
-219
-211
-203
-194
-185
-175
-163
-152
-140
-128
-116
-104
-91
-79
-67
-56
-44
-34
-24
-14
-5
3
12
20
26
32
37
42
45
46
46
42
37
30
18
6
-10
-27
-46
-67
-89
-113
-138
-165
-191
-217
-242
-269
-294
-316
-339
-358
-375
-389
-402
-410
-416
-420
-420
-418
-414
-408
-401
-393
-383
-373
-361
-350
-339
-328
-316
-306
-295
-286
-277
-269
-262
-254
-248
-243
-238
-234
-230
-227
-224
-222
-220
-219
-218
-217
-217
-217
-217
-217
-217
-217
-217
-218
-218
-218
-218
-218
-219
-218
-218
-219
-218
-218
-217
-217
-216
-216
-216
-215
-215
-215
-214
-214
-213
-213
-212
-212
-211
-211
-211
-210
-209
-209
-209
-209
-209
-209
-209
-209
-207
-207
-208
-207
-207
-207
-207
-207
-207
-206
-206
-206
-205
-204
-203
-203
-202
-201
-200
-200
-199
-199
-199
-197
-197
-197
-197
-196
-196
-195
-195
-194
-194
-193
-193
-193
-193
-192
-193
-192
-192
-192
-192
-191
-191
-191
-191
-190
-190
-189
-189
-188
-187
-187
-185
-186
-184
-184
-183
-183
-182
-182
-181
-180
-180
-179
-178
-178
-177
-176
-176
-175
-174
-173
-172
-172
-171
-170
-170
-169
-169
-168
-168
-167
-167
-166
-166
-165
-164
-164
-163
-162
-161
-160
-160
-159
-158
-157
-157
-156
-155
-154
-154
-152
-151
-151
-149
-148
-148
-147
-146
-144
-144
-142
-141
-140
-139
-139
-137
-136
-135
-134
-133
-131
-131
-129
-128
-127
-125
-124
-123
-121
-120
-118
-116
-114
-113
-112
-110
-109
-108
-106
-105
-103
-102
-101
-100
-98
-97
-95
-94
-93
-91
-90
-88
-87
-85
-84
-82
-80
-79
-77
-76
-74
-73
-71
-69
-67
-66
-65
-63
-62
-60
-59
-58
-56
-56
-55
-54
-52
-52
-51
-50
-49
-49
-48
-47
-45
-45
-44
-44
-42
-42
-42
-42
-40
-40
-40
-39
-39
-39
-39
-38
-39
-39
-39
-38
-38
-39
-39
-40
-41
-42
-43
-44
-45
-46
-47
-48
-50
-52
-53
-56
-57
-60
-62
-64
-66
-69
-71
-73
-75
-78
-80
-84
-86
-90
-92
-96
-99
-103
-106
-109
-112
-116
-119
-122
-126
-129
-133
-135
-139
-141
-145
-149
-151
-153
-157
-159
-162
-165
-168
-171
-173
-175
-177
-180
-182
-185
-187
-188
-190
-191
-194
-196
-197
-200
-201
-204
-205
-208
-209
-212
-213
-216
-217
-219
-220
-222
-224
-225
-227
-228
-228
-230
-231
-231
-231
-232
-234
-234
-235
-235
-235
-235
-236
-237
-236
-236
-237
-238
-238
-238
-238
-238
-238
-238
-238
-239
-239
-239
-240
-240
-241
-241
-241
-241
-241
-241
-241
-240
-240
-240
-239
-239
-239
-238
-238
-238
-239
-239
-239
-239
-238
-239
-238
-239
-239
-239
-240
-240
-240
-239
-239
-239
-239
-239
-238
-238
-238
-238
-238
-238
-238
-237
-237
-238
-238
-237
-237
-237
-237
-236
-236
-236
-236
-236
-236
-236
-236
-236
-236
-235
-235
-235
-236
-235
-235
-234
-234
-234
-234
-234
-234
-234
-234
-235
-234
-234
-234
-234
-236
-236
-236
-236
-236
-238
-238
-237
-237
-237
-237
-237
-237
-237
-237
-236
-235
-235
-236
-236
-236
-236
-236
-236
-236
-237
-237
-237
-237
-237
-236
-237
-237
-237
-237
-236
-236
-236
-236
-237
-236
-236
-236
-236
-236
-236
-236
-236
-235
-235
-236
-235
-235
-234
-234
-234
-234
-234
-235
-235
-235
-234
-235
-235
-235
-235
-235
-235
-235
-235
-236
-235
-235
-236
-235
-235
-235
-236
-236
-237
-237
-236
-236
-237
-237
-237
-237
-237
-237
-237
-237
-237
-238
-238
-238
-238
-238
-238
-238
-238
-239
-239
-239
-239
-240
-240
-240
-240
-240
-240
-241
-241
-241
-242
-242
-242
-242
-242
-243
-243
-243
-244
-243
-243
-243
-243
-244
-244
-242
-243
-242
-242
-242
-242
-242
-242
-242
-242
-242
-243
-243
-243
-243
-243
-243
-243
-243
-243
-243
-243
-244
-243
-243
-243
-243
-243
-243
-244
-244
-244
-244
-245
-245
-245
-245
-245
-245
-246
-246
-246
-247
-246
-246
-246
-247
-247
-247
-247
-247
-247
-247
-248
-248
-248
-248
-248
-247
-247
-247
-247
-248
-247
-247
-247
-247
-248
-248
-248
-248
-248
-248
-248
-249
-249
-248
-248
-248
-248
-248
-248
-248
-247
-247
-247
-246
-246
-247
-247
-247
-247
-247
-246
-247
-247
-248
-248
-248
-248
-249
-249
-249
-249
-249
-249
-249
-250
-250
-250
-250
-250
-250
-251
-251
-250
-250
-250
-250
-250
-250
-248
-248
-248
-247
-247
-247
-247
-247
-247
-247
-247
-247
-247
-247
-247
-247
-247
-247
-247
-246
-246
-246
-247
-246
-246
-246
-246
-246
-246
-246
-246
-246
-246
-245
-245
-246
-246
-246
-246
-246
-246
-247
-247
-247
-247
-248
-248
-247
-248
-248
-248
-248
-248
-248
-248
-248
-248
-248
-248
-248
-247
-247
-247
-246
-246
-246
-245
-245
-245
-244
-244
-244
-244
-243
-242
-242
-241
-241
-240
-240
-239
-238
-237
-237
-235
-235
-234
-234
-233
-232
-232
-231
-231
-230
-229
-229
-228
-228
-227
-226
-226
-224
-224
-224
-224
-223
-223
-222
-222
-222
-222
-221
-221
-221
-222
-222
-222
-223
-223
-224
-224
-225
-225
-226
-226
-227
-227
-228
-229
-229
-230
-230
-231
-231
-232
-233
-232
-232
-233
-233
-233
-234
-234
-235
-235
-235
-236
-236
-237
-238
-238
-238
-240
-240
-241
-241
-241
-242
-243
-243
-243
-243
-242
-242
-243
-243
-242
-242
-243
-243
-243
-244
-244
-244
-245
-245
-246
-246
-247
-248
-248
-248
-249
-250
-251
-251
-252
-252
-252
-252
-253
-253
-253
-253
-253
-253
-253
-252
-252
-252
-252
-252
-251
-251
-251
-251
-251
-251
-252
-252
-252
-252
-252
-252
-252
-252
-252
-252
-252
-253
-252
-252
-251
-252
-252
-251
-251
-250
-250
-250
-249
-249
-249
-248
-248
-248
-248
-247
-246
-246
-246
-246
-244
-244
-244
-244
-243
-243
-243
-244
-244
-243
-243
-243
-242
-242
-241
-239
-238
-236
-233
-230
-226
-221
-216
-211
-203
-197
-190
-181
-172
-163
-154
-143
-132
-121
-111
-99
-88
-77
-65
-55
-44
-33
-24
-16
-7
1
8
15
21
26
32
35
37
38
37
34
30
22
11
-1
-15
-32
-49
-69
-90
-113
-137
-162
-186
-210
-234
-259
-282
-304
-324
-342
-357
-371
-382
-390
-394
-397
-398
-395
-392
-386
-378
-370
-361
-351
-340
-329
-319
-308
-297
-287
-277
-268
-259
-252
-245
-239
-232
-227
-222
-219
-216
-213
-212
-210
-210
-208
-208
-208
-208
-207
-207
-207
-207
-208
-208
-208
-208
-207
-207
-208
-208
-208
-208
-208
-207
-207
-206
-206
-206
-206
-206
-205
-205
-204
-204
-203
-203
-203
-202
-201
-200
-200
-199
-199
-198
-198
-196
-196
-195
-195
-193
-193
-193
-192
-192
-192
-191
-191
-192
-191
-191
-191
-192
-192
-192
-193
-193
-194
-194
-195
-195
-196
-196
-195
-196
-196
-196
-195
-195
-194
-194
-193
-193
-193
-192
-192
-191
-191
-190
-190
-189
-188
-188
-187
-186
-185
-184
-184
-183
-182
-182
-180
-180
-180
-179
-179
-178
-178
-176
-176
-175
-175
-175
-174
-173
-172
-171
-170
-169
-169
-168
-168
-167
-167
-166
-166
-166
-164
-164
-163
-164
-163
-162
-162
-161
-160
-159
-159
-158
-157
-157
-156
-156
-155
-155
-155
-154
-153
-152
-152
-151
-150
-149
-149
-148
-148
-146
-145
-144
-143
-143
-141
-141
-140
-139
-138
-136
-136
-134
-134
-132
-131
-130
-130
-128
-128
-127
-125
-124
-123
-122
-121
-121
-119
-118
-117
-116
-115
-115
-114
-111
-110
-109
-107
-106
-104
-102
-101
-99
-97
-95
-94
-91
-90
-88
-87
-86
-85
-84
-83
-82
-80
-79
-78
-77
-76
-74
-74
-73
-72
-71
-70
-69
-69
-67
-66
-65
-64
-63
-61
-61
-60
-58
-56
-55
-54
-52
-52
-51
-50
-49
-48
-48
-48
-47
-47
-47
-47
-47
-47
-47
-47
-47
-47
-47
-47
-47
-47
-47
-47
-47
-48
-48
-49
-50
-51
-52
-53
-53
-55
-56
-57
-59
-59
-62
-63
-65
-67
-68
-70
-72
-75
-77
-80
-83
-85
-87
-90
-94
-96
-98
-102
-104
-108
-110
-114
-116
-120
-123
-126
-129
-132
-136
-138
-141
-145
-147
-151
-153
-156
-159
-161
-163
-166
-168
-170
-172
-174
-176
-178
-180
-181
-183
-184
-186
-188
-189
-191
-193
-194
-196
-198
-200
-201
-203
-205
-206
-208
-210
-212
-214
-216
-218
-220
-222
-224
-225
-225
-227
-228
-229
-229
-230
-230
-231
-230
-231
-231
-231
-231
-231
-231
-231
-232
-231
-232
-232
-231
-232
-232
-232
-233
-233
-233
-233
-233
-233
-232
-233
-233
-234
-234
-234
-234
-235
-236
-236
-236
-236
-236
-236
-236
-236
-236
-235
-236
-236
-236
-235
-235
-235
-234
-234
-235
-234
-234
-234
-234
-234
-234
-234
-234
-234
-233
-233
-232
-232
-232
-231
-231
-231
-231
-231
-232
-232
-232
-232
-232
-231
-231
-231
-232
-232
-231
-231
-231
-230
-230
-230
-230
-230
-230
-231
-231
-230
-230
-230
-230
-230
-229
-229
-229
-228
-228
-228
-227
-226
-226
-226
-226
-225
-225
-224
-224
-225
-225
-225
-225
-225
-226
-226
-227
-227
-228
-229
-229
-230
-231
-231
-231
-232
-232
-233
-234
-234
-234
-234
-234
-235
-234
-233
-233
-233
-233
-233
-232
-232
-232
-231
-231
-231
-231
-232
-232
-232
-231
-231
-231
-232
-232
-232
-232
-232
-232
-232
-232
-232
-232
-233
-233
-232
-232
-232
-233
-233
-233
-234
-233
-234
-234
-234
-234
-234
-234
-234
-234
-234
-234
-234
-234
-235
-235
-235
-236
-236
-236
-237
-237
-237
-237
-237
-237
-237
-237
-237
-236
-236
-236
-237
-237
-237
-236
-236
-237
-237
-237
-237
-238
-237
-238
-238
-238
-237
-237
-237
-237
-237
-237
-237
-237
-237
-237
-237
-237
-237
-238
-238
-237
-238
-239
-239
-239
-239
-239
-239
-239
-240
-240
-239
-240
-241
-241
-241
-242
-243
-243
-243
-244
-244
-245
-245
-246
-246
-246
-247
-247
-247
-248
-248
-248
-248
-248
-249
-249
-248
-248
-248
-248
-248
-248
-248
-248
-247
-247
-247
-247
-247
-247
-246
-245
-246
-246
-246
-246
-245
-246
-246
-246
-246
-246
-246
-246
-246
-246
-247
-247
-247
-247
-246
-246
-246
-246
-247
-246
-247
-247
-247
-247
-247
-246
-246
-246
-246
-245
-245
-245
-244
-243
-243
-243
-242
-242
-240
-240
-240
-239
-239
-238
-238
-236
-236
-235
-234
-233
-234
-233
-233
-232
-231
-231
-231
-230
-230
-230
-230
-230
-229
-229
-229
-228
-227
-227
-227
-227
-225
-225
-225
-224
-224
-224
-223
-224
-224
-224
-223
-224
-225
-225
-226
-227
-228
-228
-230
-230
-231
-232
-233
-234
-234
-235
-236
-236
-238
-238
-238
-239
-240
-240
-241
-241
-241
-242
-242
-242
-243
-243
-243
-243
-244
-244
-245
-245
-245
-245
-246
-245
-246
-246
-246
-247
-247
-247
-247
-247
-247
-247
-248
-248
-249
-249
-249
-250
-249
-250
-250
-251
-251
-252
-253
-253
-253
-253
-254
-254
-254
-254
-254
-255
-255
-254
-254
-254
-254
-253
-254
-254
-254
-254
-254
-254
-254
-254
-254
-253
-253
-253
-254
-253
-253
-254
-254
-254
-254
-254
-254
-255
-255
-255
-255
-255
-255
-255
-255
-254
-254
-254
-254
-254
-254
-254
-253
-254
-255
-255
-254
-254
-254
-254
-254
-254
-255
-255
-254
-254
-254
-254
-254
-253
-253
-252
-252
-251
-250
-249
-246
-244
-242
-238
-234
-228
-223
-216
-210
-203
-195
-187
-176
-166
-156
-146
-135
-123
-112
-101
-89
-78
-67
-56
-46
-36
-27
-18
-10
-2
5
10
16
20
24
26
27
26
24
19
12
3
-10
-23
-40
-57
-76
-96
-118
-142
-166
-190
-215
-239
-263
-286
-308
-328
-347
-364
-378
-389
-398
-405
-409
-409
-408
-405
-400
-393
-385
-375
-366
-355
-344
-334
-322
-312
-301
-291
-281
-272
-265
-257
-251
-244
-238
-233
-229
-225
-223
-220
-218
-217
-215
-215
-213
-213
-213
-213
-213
-213
-214
-214
-214
-214
-215
-215
-214
-214
-215
-214
-214
-214
-213
-214
-213
-212
-212
-212
-212
-212
-211
-211
-210
-210
-210
-210
-210
-209
-209
-208
-208
-207
-208
-207
-207
-207
-207
-206
-206
-206
-206
-205
-205
-204
-204
-204
-203
-203
-202
-202
-201
-201
-200
-200
-200
-199
-199
-198
-198
-197
-197
-196
-195
-195
-194
-193
-193
-191
-191
-190
-189
-189
-188
-187
-187
-187
-187
-186
-186
-186
-185
-185
-185
-185
-185
-185
-184
-184
-184
-184
-184
-183
-184
-183
-183
-183
-182
-182
-183
-183
-182
-182
-181
-180
-180
-180
-179
-179
-178
-177
-177
-175
-174
-173
-173
-171
-171
-170
-170
-168
-168
-167
-166
-165
-165
-164
-163
-162
-161
-161
-160
-159
-158
-157
-157
-156
-154
-154
-153
-153
-152
-151
-150
-149
-148
-148
-147
-146
-145
-144
-143
-142
-141
-140
-139
-138
-137
-136
-134
-134
-133
-132
-131
-130
-128
-127
-125
-124
-124
-121
-120
-120
-118
-116
-115
-114
-113
-112
-110
-109
-108
-106
-105
-104
-101
-100
-98
-97
-94
-93
-91
-90
-88
-86
-85
-84
-83
-82
-80
-79
-78
-77
-77
-76
-75
-73
-72
-71
-70
-69
-68
-67
-66
-65
-64
-63
-62
-61
-60
-60
-59
-57
-57
-56
-54
-54
-53
-52
-52
-51
-51
-50
-50
-49
-49
-49
-48
-49
-49
-48
-48
-48
-48
-48
-48
-48
-48
-48
-49
-49
-49
-49
-50
-51
-52
-53
-54
-56
-57
-59
-61
-63
-66
-68
-69
-72
-74
-77
-79
-82
-84
-88
-91
-93
-97
-99
-102
-105
-108
-111
-114
-117
-120
-122
-126
-128
-130
-133
-136
-138
-141
-143
-145
-149
-151
-154
-157
-159
-162
-164
-167
-170
-172
-175
-177
-180
-182
-185
-188
-189
-192
-194
-196
-198
-200
-203
-204
-207
-208
-210
-212
-213
-215
-216
-217
-218
-219
-220
-220
-222
-222
-223
-223
-224
-224
-225
-226
-226
-227
-228
-228
-229
-230
-230
-231
-232
-232
-232
-233
-233
-234
-234
-235
-235
-235
-235
-236
-236
-236
-237
-237
-236
-236
-237
-237
-236
-236
-236
-236
-236
-236
-236
-236
-236
-236
-235
-236
-236
-236
-236
-236
-236
-236
-236
-236
-236
-236
-236
-236
-235
-235
-235
-236
-236
-236
-236
-236
-235
-235
-235
-235
-235
-236
-236
-235
-235
-235
-235
-235
-235
-235
-235
-236
-235
-236
-236
-236
-236
-236
-236
-236
-236
-235
-235
-234
-234
-234
-233
-233
-233
-233
-233
-232
-232
-232
-232
-232
-232
-232
-232
-232
-233
-233
-233
-233
-233
-233
-233
-234
-234
-234
-234
-234
-234
-234
-234
-234
-235
-235
-235
-235
-234
-235
-235
-235
-235
-235
-235
-234
-234
-234
-234
-233
-233
-233
-233
-233
-233
-233
-234
-234
-234
-234
-233
-233
-234
-234
-234
-235
-235
-235
-235
-235
-235
-236
-236
-235
-236
-237
-236
-236
-238
-237
-237
-237
-237
-237
-237
-238
-238
-237
-237
-236
-236
-237
-237
-237
-236
-237
-237
-238
-238
-238
-238
-238
-238
-238
-238
-238
-239
-239
-239
-238
-238
-238
-239
-239
-240
-240
-240
-240
-240
-240
-241
-240
-240
-240
-240
-241
-241
-242
-242
-242
-242
-242
-242
-242
-242
-243
-243
-244
-243
-244
-244
-244
-244
-244
-244
-244
-244
-244
-244
-244
-244
-244
-245
-245
-245
-245
-245
-245
-245
-245
-245
-245
-246
-245
-245
-245
-245
-245
-244
-244
-244
-244
-244
-244
-243
-244
-244
-243
-244
-244
-244
-243
-243
-243
-243
-242
-242
-241
-241
-240
-240
-239
-239
-238
-238
-237
-237
-236
-236
-235
-234
-234
-233
-232
-232
-232
-231
-231
-231
-230
-230
-230
-229
-229
-229
-229
-229
-229
-229
-229
-228
-228
-228
-228
-228
-228
-228
-227
-226
-226
-226
-227
-226
-227
-227
-227
-227
-227
-227
-228
-229
-229
-230
-230
-230
-231
-232
-232
-234
-234
-235
-236
-236
-238
-239
-239
-240
-241
-241
-242
-242
-243
-243
-244
-244
-244
-245
-245
-245
-244
-244
-245
-245
-245
-246
-246
-247
-247
-247
-248
-248
-249
-249
-249
-249
-249
-250
-251
-251
-252
-252
-253
-253
-254
-254
-255
-255
-256
-256
-257
-256
-256
-256
-257
-257
-257
-256
-256
-256
-256
-256
-255
-255
-255
-255
-255
-255
-255
-255
-255
-256
-256
-256
-256
-257
-256
-257
-257
-257
-257
-258
-259
-259
-259
-259
-259
-259
-259
-259
-259
-258
-258
-258
-257
-256
-256
-255
-255
-254
-253
-253
-253
-254
-254
-254
-254
-254
-254
-254
-255
-255
-256
-257
-256
-256
-257
-256
-257
-257
-256
-255
-254
-253
-251
-248
-246
-242
-238
-232
-227
-221
-213
-205
-197
-188
-179
-169
-158
-147
-135
-123
-111
-100
-88
-76
-64
-53
-42
-32
-22
-14
-5
3
10
15
22
26
30
33
33
33
30
24
15
5
-9
-23
-40
-60
-80
-102
-125
-149
-175
-200
-226
-251
-275
-300
-322
-343
-362
-378
-393
-404
-412
-418
-421
-421
-420
-416
-411
-404
-394
-385
-375
-363
-352
-340
-329
-318
-307
-297
-287
-278
-268
-261
-253
-246
-240
-236
-230
-227
-223
-221
-219
-217
-216
-215
-214
-214
-215
-215
-215
-216
-216
-217
-217
-218
-219
-219
-219
-219
-219
-220
-219
-219
-219
-219
-218
-218
-217
-217
-216
-216
-216
-215
-214
-214
-213
-213
-211
-211
-210
-210
-208
-208
-207
-207
-206
-206
-205
-205
-205
-205
-205
-204
-203
-203
-203
-203
-203
-203
-202
-202
-202
-201
-201
-200
-200
-200
-200
-199
-199
-197
-197
-197
-197
-196
-195
-195
-194
-193
-193
-193
-192
-191
-191
-190
-190
-189
-189
-189
-189
-188
-188
-188
-187
-187
-187
-187
-186
-186
-185
-185
-183
-183
-182
-182
-181
-181
-180
-179
-179
-178
-177
-177
-176
-176
-176
-174
-174
-173
-172
-173
-172
-171
-171
-170
-169
-168
-168
-167
-167
-166
-166
-165
-165
-164
-163
-162
-161
-161
-160
-159
-158
-156
-156
-155
-153
-152
-152
-150
-149
-149
-148
-147
-147
-146
-146
-145
-144
-143
-142
-141
-140
-139
-138
-138
-137
-136
-135
-133
-132
-132
-130
-130
-129
-127
-126
-125
-124
-122
-121
-120
-117
-116
-115
-113
-112
-111
-109
-108
-106
-105
-103
-102
-100
-99
-97
-95
-94
-92
-89
-88
-86
-84
-82
-80
-78
-77
-76
-73
-72
-71
-69
-68
-67
-65
-64
-63
-61
-60
-58
-57
-56
-54
-53
-52
-51
-49
-48
-47
-47
-46
-44
-43
-43
-42
-41
-40
-39
-38
-38
-37
-37
-36
-36
-36
-36
-36
-35
-35
-34
-34
-35
-34
-35
-36
-36
-37
-37
-37
-38
-39
-40
-41
-42
-43
-45
-46
-48
-49
-52
-54
-56
-58
-60
-62
-64
-67
-70
-72
-75
-78
-81
-83
-86
-90
-92
-96
-99
-102
-106
-109
-113
-116
-119
-123
-126
-130
-133
-136
-140
-142
-146
-149
-152
-155
-158
-161
-165
-168
-170
-174
-176
-179
-183
-185
-187
-190
-192
-195
-197
-198
-201
-202
-204
-206
-207
-210
-211
-213
-214
-215
-217
-218
-220
-222
-223
-224
-225
-226
-227
-228
-229
-229
-230
-231
-231
-232
-232
-233
-233
-234
-234
-235
-234
-235
-235
-235
-236
-236
-236
-236
-236
-236
-237
-237
-237
-237
-238
-238
-238
-238
-238
-239
-240
-239
-239
-239
-240
-240
-240
-240
-240
-240
-240
-240
-240
-240
-240
-240
-240
-240
-240
-240
-240
-240
-241
-241
-240
-240
-240
-240
-239
-239
-239
-238
-239
-239
-239
-239
-239
-239
-238
-238
-238
-238
-238
-238
-238
-238
-238
-238
-238
-238
-238
-238
-238
-237
-237
-238
-237
-237
-237
-237
-237
-237
-238
-238
-238
-238
-238
-238
-238
-237
-237
-237
-237
-238
-238
-237
-237
-237
-237
-238
-238
-238
-237
-237
-237
-236
-235
-235
-234
-234
-234
-234
-234
-233
-234
-234
-234
-235
-235
-236
-236
-237
-237
-238
-239
-239
-239
-239
-240
-241
-240
-240
-241
-241
-241
-241
-241
-240
-241
-241
-241
-241
-240
-241
-240
-240
-240
-240
-240
-239
-239
-240
-239
-239
-240
-240
-240
-240
-240
-241
-240
-240
-241
-241
-241
-241
-241
-241
-241
-241
-241
-241
-242
-241
-241
-241
-241
-241
-241
-241
-241
-241
-241
-241
-240
-240
-241
-241
-241
-241
-241
-241
-241
-241
-241
-242
-242
-242
-243
-242
-243
-243
-243
-244
-244
-244
-244
-244
-244
-244
-244
-244
-244
-244
-244
-244
-244
-244
-244
-244
-245
-245
-245
-246
-246
-246
-246
-246
-246
-247
-247
-248
-248
-248
-249
-250
-250
-250
-251
-251
-251
-252
-251
-251
-251
-251
-251
-251
-250
-250
-250
-249
-250
-249
-249
-249
-250
-250
-250
-250
-250
-250
-250
-251
-250
-250
-251
-251
-251
-251
-251
-251
-252
-252
-252
-252
-252
-252
-252
-252
-252
-252
-251
-252
-252
-251
-250
-250
-250
-249
-248
-248
-247
-247
-246
-246
-245
-244
-243
-242
-242
-241
-240
-239
-238
-237
-237
-235
-235
-234
-233
-234
-233
-233
-233
-233
-233
-233
-233
-234
-235
-235
-235
-236
-236
-236
-236
-236
-237
-237
-236
-236
-236
-236
-235
-235
-235
-234
-234
-234
-234
-234
-234
-234
-234
-234
-235
-235
-235
-236
-236
-236
-237
-238
-239
-239
-240
-241
-242
-243
-244
-245
-245
-245
-246
-246
-247
-247
-248
-248
-248
-248
-248
-249
-249
-249
-249
-249
-249
-250
-250
-250
-251
-251
-251
-251
-251
-252
-253
-253
-253
-253
-254
-255
-255
-255
-256
-256
-256
-257
-256
-256
-256
-257
-257
-257
-257
-257
-256
-256
-256
-257
-257
-257
-257
-259
-259
-259
-260
-260
-261
-261
-262
-262
-262
-263
-263
-263
-263
-262
-262
-262
-262
-261
-261
-261
-261
-260
-260
-260
-260
-260
-259
-259
-260
-260
-260
-259
-259
-259
-259
-259
-259
-259
-259
-259
-260
-260
-260
-259
-259
-259
-259
-259
-258
-258
-258
-258
-257
-257
-257
-256
-256
-255
-255
-254
-254
-251
-250
-248
-245
-242
-237
-233
-228
-221
-214
-206
-197
-189
-179
-168
-157
-146
-135
-123
-110
-98
-85
-74
-62
-50
-39
-29
-19
-10
-1
7
16
22
29
34
38
43
44
45
43
39
33
24
12
-3
-19
-38
-58
-80
-103
-128
-154
-181
-208
-234
-259
-286
-310
-333
-354
-373
-389
-403
-413
-421
-425
-426
-426
-423
-418
-411
-402
