# Simple Text Format
# Sampling Rate (Hz):= 1200.00
# Resolution:= 12
# Labels:= ECG	 V2
# Age:=	26
# Gender:=	Masculino
-333
-332
-331
-329
-329
-328
-327
-326
-326
-325
-324
-323
-323
-322
-322
-321
-321
-320
-319
-318
-318
-318
-317
-316
-316
-315
-314
-314
-314
-313
-312
-311
-310
-309
-309
-308
-307
-307
-306
-304
-304
-303
-302
-301
-301
-300
-300
-299
-298
-298
-297
-297
-295
-295
-294
-293
-293
-292
-292
-291
-291
-290
-289
-289
-288
-288
-287
-287
-286
-286
-285
-284
-283
-283
-282
-281
-281
-281
-280
-278
-278
-277
-276
-276
-275
-276
-275
-274
-274
-273
-273
-272
-272
-271
-272
-271
-270
-269
-268
-267
-267
-266
-264
-265
-263
-262
-262
-260
-259
-259
-258
-256
-256
-255
-253
-252
-252
-251
-249
-249
-248
-246
-245
-244
-242
-242
-241
-240
-239
-238
-237
-236
-235
-233
-232
-231
-229
-228
-226
-224
-223
-221
-219
-217
-216
-214
-213
-212
-210
-209
-207
-206
-204
-202
-201
-200
-199
-196
-195
-194
-192
-191
-190
-189
-187
-186
-185
-183
-182
-180
-179
-177
-176
-174
-173
-172
-171
-169
-167
-166
-166
-164
-164
-163
-162
-161
-160
-159
-159
-158
-158
-157
-157
-155
-154
-154
-153
-153
-152
-151
-150
-150
-149
-149
-148
-147
-147
-146
-147
-147
-147
-147
-147
-146
-147
-147
-148
-148
-149
-149
-151
-152
-154
-155
-157
-157
-159
-161
-163
-165
-167
-168
-171
-173
-174
-177
-179
-181
-183
-186
-187
-190
-192
-195
-197
-200
-203
-205
-208
-211
-213
-216
-219
-222
-225
-228
-231
-234
-237
-240
-242
-246
-248
-252
-254
-258
-262
-264
-268
-270
-274
-277
-280
-283
-287
-289
-292
-294
-296
-299
-301
-303
-305
-308
-310
-313
-314
-316
-318
-320
-322
-323
-326
-327
-329
-330
-332
-334
-335
-336
-338
-339
-341
-342
-343
-343
-345
-346
-347
-347
-348
-349
-350
-350
-351
-351
-351
-351
-351
-352
-353
-353
-353
-354
-353
-353
-353
-353
-353
-353
-353
-353
-354
-353
-353
-353
-353
-352
-353
-352
-351
-352
-351
-351
-351
-351
-351
-351
-351
-351
-350
-350
-350
-351
-350
-350
-350
-350
-350
-349
-349
-349
-349
-347
-348
-348
-348
-347
-347
-347
-346
-347
-347
-347
-347
-347
-347
-347
-347
-348
-346
-347
-347
-347
-347
-347
-347
-347
-347
-347
-346
-346
-346
-346
-346
-346
-345
-345
-344
-344
-344
-344
-344
-344
-344
-344
-343
-343
-343
-343
-343
-343
-343
-343
-342
-341
-341
-341
-340
-340
-340
-339
-339
-338
-338
-338
-338
-337
-337
-336
-336
-336
-336
-336
-335
-335
-335
-334
-334
-334
-333
-333
-333
-332
-332
-332
-332
-332
-332
-332
-332
-332
-331
-331
-331
-330
-330
-329
-329
-329
-327
-327
-326
-326
-326
-325
-325
-325
-324
-324
-323
-323
-323
-323
-323
-323
-324
-324
-324
-325
-325
-326
-326
-326
-327
-327
-327
-328
-328
-328
-329
-328
-328
-328
-328
-328
-328
-327
-327
-327
-326
-327
-327
-327
-327
-327
-327
-326
-326
-327
-327
-327
-327
-327
-327
-328
-328
-327
-327
-328
-327
-328
-328
-328
-328
-328
-328
-327
-328
-328
-328
-328
-328
-328
-328
-328
-328
-328
-328
-328
-327
-327
-327
-327
-327
-328
-328
-327
-328
-328
-328
-328
-329
-329
-329
-329
-331
-330
-330
-330
-331
-330
-331
-332
-332
-332
-332
-332
-332
-332
-332
-332
-333
-333
-333
-333
-333
-332
-333
-333
-332
-333
-333
-333
-334
-334
-333
-333
-334
-333
-333
-333
-334
-333
-333
-333
-332
-332
-332
-332
-332
-331
-330
-330
-331
-331
-331
-331
-332
-332
-332
-333
-333
-333
-334
-334
-335
-335
-336
-336
-337
-337
-337
-337
-337
-337
-338
-338
-338
-338
-338
-338
-338
-338
-336
-336
-336
-336
-335
-335
-335
-335
-334
-333
-333
-333
-333
-333
-333
-333
-333
-333
-333
-333
-333
-334
-334
-334
-334
-335
-335
-335
-336
-336
-337
-337
-337
-338
-338
-338
-338
-337
-338
-338
-337
-337
-337
-337
-337
-337
-336
-336
-336
-336
-336
-336
-336
-336
-336
-336
-336
-335
-335
-335
-335
-335
-335
-336
-335
-335
-335
-335
-335
-335
-336
-336
-336
-336
-335
-335
-336
-336
-336
-336
-336
-336
-336
-336
-336
-336
-335
-334
-334
-334
-335
-334
-334
-334
-333
-333
-333
-333
-333
-333
-333
-332
-332
-332
-331
-331
-332
-332
-332
-332
-332
-332
-332
-333
-333
-333
-334
-334
-334
-334
-334
-335
-335
-335
-336
-336
-336
-336
-336
-336
-336
-336
-336
-337
-337
-337
-337
-337
-337
-337
-337
-337
-336
-336
-336
-336
-336
-336
-336
-336
-336
-336
-336
-336
-335
-335
-335
-335
-335
-335
-335
-335
-335
-334
-335
-334
-333
-334
-333
-333
-333
-332
-332
-332
-332
-332
-331
-331
-331
-331
-331
-331
-331
-330
-331
-331
-329
-329
-330
-329
-328
-328
-328
-327
-327
-326
-326
-325
-324
-324
-323
-321
-321
-320
-319
-317
-317
-316
-315
-315
-314
-314
-313
-312
-312
-311
-310
-310
-310
-309
-309
-308
-308
-307
-307
-307
-306
-305
-305
-304
-304
-304
-303
-303
-303
-304
-304
-305
-305
-306
-306
-307
-308
-309
-311
-312
-313
-315
-317
-317
-319
-320
-322
-323
-324
-326
-326
-326
-328
-328
-329
-329
-330
-329
-330
-330
-330
-331
-331
-331
-331
-332
-333
-333
-334
-334
-334
-334
-335
-335
-335
-335
-335
-336
-335
-335
-335
-335
-334
-334
-333
-333
-333
-332
-333
-333
-332
-333
-332
-332
-332
-332
-332
-332
-331
-331
-331
-332
-332
-332
-332
-334
-334
-334
-334
-334
-335
-335
-336
-336
-336
-335
-335
-336
-336
-336
-334
-334
-334
-334
-334
-334
-333
-333
-333
-332
-332
-332
-332
-332
-332
-332
-333
-333
-333
-332
-333
-333
-332
-332
-333
-334
-334
-333
-333
-333
-333
-333
-332
-332
-332
-331
-331
-330
-330
-330
-330
-330
-329
-329
-329
-329
-329
-328
-328
-327
-326
-325
-322
-319
-316
-312
-306
-301
-293
-285
-276
-266
-255
-245
-235
-225
-216
-207
-199
-192
-185
-182
-179
-180
-182
-188
-197
-209
-225
-245
-267
-293
-323
-355
-389
-427
-466
-507
-550
-592
-634
-677
-718
-757
-794
-829
-862
-890
-915
-938
-956
-970
-981
-987
-988
-985
-979
-969
-957
-940
-921
-901
-877
-853
-827
-801
-775
-748
-721
-695
-669
-644
-619
-596
-573
-551
-530
-510
-491
-473
-457
-441
-427
-413
-399
-387
-375
-364
-354
-345
-336
-328
-319
-313
-306
-301
-296
-292
-288
-284
-281
-279
-277
-275
-273
-273
-271
-271
-271
-270
-270
-270
-270
-269
-269
-269
-268
-268
-267
-267
-266
-265
-264
-263
-262
-261
-260
-258
-257
-256
-254
-254
-253
-251
-250
-250
-249
-249
-249
-248
-248
-247
-247
-247
-247
-247
-246
-247
-246
-246
-246
-246
-246
-246
-245
-245
-244
-244
-244
-244
-244
-243
-243
-242
-242
-241
-241
-240
-240
-238
-238
-238
-238
-237
-236
-236
-236
-236
-235
-235
-234
-234
-233
-233
-232
-232
-231
-231
-230
-230
-229
-229
-228
-227
-226
-226
-226
-226
-225
-225
-224
-224
-223
-222
-222
-222
-221
-220
-220
-219
-218
-218
-217
-217
-216
-215
-214
-214
-213
-213
-211
-210
-210
-208
-208
-206
-206
-205
-203
-202
-201
-200
-199
-198
-197
-197
-197
-195
-195
-194
-194
-193
-193
-193
-192
-191
-192
-191
-190
-190
-189
-188
-187
-186
-185
-185
-183
-182
-180
-179
-178
-176
-175
-173
-172
-171
-169
-168
-167
-165
-164
-164
-163
-162
-161
-160
-159
-158
-157
-155
-154
-153
-152
-151
-150
-148
-147
-145
-144
-143
-140
-139
-137
-136
-135
-134
-132
-131
-129
-128
-127
-125
-124
-123
-121
-120
-119
-117
-116
-114
-113
-112
-111
-110
-108
-107
-106
-106
-104
-103
-103
-102
-102
-101
-100
-100
-100
-100
-98
-98
-98
-98
-98
-98
-98
-98
-98
-98
-98
-99
-99
-99
-99
-100
-100
-101
-102
-102
-103
-105
-106
-107
-109
-110
-112
-114
-116
-119
-121
-123
-126
-128
-130
-133
-135
-138
-141
-145
-147
-150
-153
-156
-159
-162
-165
-168
-172
-175
-178
-182
-185
-189
-192
-196
-199
-203
-205
-208
-211
-215
-218
-220
-224
-226
-229
-233
-235
-238
-241
-243
-246
-248
-251
-254
-256
-257
-260
-262
-264
-266
-268
-270
-272
-273
-275
-278
-280
-282
-283
-286
-287
-288
-290
-292
-294
-296
-297
-298
-300
-301
-302
-303
-305
-305
-306
-307
-308
-309
-309
-309
-310
-311
-311
-311
-311
-311
-311
-312
-312
-312
-312
-313
-313
-313
-314
-314
-316
-316
-317
-318
-318
-318
-320
-320
-321
-321
-322
-322
-323
-323
-323
-323
-323
-323
-323
-323
-323
-323
-323
-323
-323
-322
-323
-322
-322
-322
-322
-322
-321
-321
-321
-321
-322
-322
-323
-323
-322
-323
-324
-324
-324
-324
-324
-324
-324
-325
-324
-324
-324
-324
-324
-324
-323
-323
-323
-323
-323
-322
-322
-322
-321
-321
-321
-321
-320
-320
-319
-320
-319
-319
-318
-319
-318
-317
-318
-318
-317
-317
-317
-317
-316
-316
-316
-316
-316
-315
-314
-314
-313
-313
-312
-312
-311
-311
-311
-310
-310
-311
-310
-310
-310
-309
-309
-309
-309
-308
-307
-307
-307
-306
-306
-305
-305
-304
-304
-303
-302
-302
-302
-300
-300
-300
-300
-299
-299
-299
-299
-298
-299
-299
-299
-299
-298
-298
-299
-299
-299
-299
-299
-299
-298
-298
-298
-298
-298
-298
-298
-298
-297
-297
-297
-297
-297
-297
-297
-297
-296
-296
-296
-297
-297
-297
-297
-297
-298
-298
-298
-298
-298
-298
-298
-298
-299
-298
-298
-299
-299
-299
-299
-299
-299
-300
-299
-300
-300
-300
-300
-301
-301
-301
-302
-302
-302
-302
-302
-302
-303
-303
-303
-304
-304
-304
-304
-304
-304
-305
-305
-305
-304
-305
-305
-305
-305
-305
-305
-305
-304
-305
-305
-305
-305
-306
-306
-307
-306
-307
-307
-307
-307
-308
-308
-308
-309
-308
-308
-309
-309
-310
-310
-310
-310
-311
-311
-311
-311
-311
-311
-312
-312
-311
-311
-312
-312
-313
-313
-313
-313
-314
-313
-313
-314
-314
-314
-314
-314
-314
-314
-314
-313
-314
-314
-314
-314
-314
-314
-314
-314
-314
-315
-314
-314
-314
-314
-314
-314
-314
-314
-314
-314
-313
-313
-313
-313
-313
-313
-313
-313
-314
-314
-314
-314
-315
-315
-315
-316
-316
-316
-316
-316
-317
-316
-317
-317
-317
-317
-318
-318
-318
-319
-319
-319
-319
-319
-319
-319
-319
-318
-319
-319
-318
-318
-318
-318
-318
-318
-317
-317
-318
-317
-317
-317
-318
-318
-318
-318
-318
-318
-318
-318
-318
-318
-318
-317
-317
-317
-319
-319
-319
-318
-318
-319
-319
-319
-319
-319
-319
-319
-319
-320
-320
-320
-319
-319
-319
-319
-320
-320
-319
-319
-320
-319
-319
-319
-319
-319
-319
-319
-318
-319
-318
-318
-318
-317
-317
-317
-316
-316
-316
-316
-315
-315
-315
-314
-313
-312
-312
-311
-310
-309
-309
-307
-306
-306
-305
-303
-303
-301
-301
-299
-299
-297
-296
-295
-295
-294
-292
-291
-291
-290
-289
-289
-288
-288
-288
-287
-287
-287
-287
-287
-287
-287
-288
-288
-289
-290
-290
-291
-291
-292
-293
-294
-294
-295
-296
-297
-298
-299
-300
-301
-303
-303
-304
-305
-305
-307
-307
-308
-308
-309
-309
-309
-311
-310
-311
-312
-312
-313
-314
-314
-314
-314
-315
-315
-316
-316
-316
-317
-317
-318
-317
-318
-318
-317
-318
-318
-318
-318
-318
-318
-318
-318
-318
-317
-318
-318
-318
-318
-318
-318
-318
-318
-319
-319
-320
-320
-320
-321
-322
-322
-322
-323
-324
-324
-324
-324
-325
-325
-325
-324
-325
-325
-325
-325
-325
-324
-324
-324
-324
-324
-323
-323
-323
-323
-323
-323
-323
-323
-323
-323
-324
-323
-323
-323
-323
-324
-324
-324
-323
-323
-324
-324
-324
-324
-324
-324
-324
-324
-324
-323
-323
-323
-323
-323
-323
-323
-323
-323
-323
-322
-322
-322
-321
-321
-320
-319
-317
-315
-312
-308
-305
-299
-293
-286
-278
-270
-260
-250
-239
-227
-216
-205
-194
-185
-176
-168
-162
-157
-155
-155
-159
-166
-175
-189
-206
-227
-251
-280
-311
-345
-383
-423
-465
-507
-552
-596
-640
-683
-726
-767
-804
-840
-872
-902
-927
-949
-967
-981
-991
-997
-998
-996
-990
-980
-967
-950
-932
-911
-888
-864
-838
-812
-785
-759
-732
-706
-680
-654
-630
-605
-581
-558
-536
-514
-494
-475
-457
-440
-423
-408
-394
-381
-369
-357
-346
-336
-327
-318
-310
-304
-297
-291
-286
-282
-278
-274
-271
-269
-266
-265
-263
-261
-260
-259
-258
-257
-256
-255
-254
-254
-253
-252
-251
-251
-249
-249
-248
-248
-247
-247
-246
-245
-244
-243
-243
-242
-242
-240
-240
-240
-239
-239
-237
-237
-236
-236
-235
-235
-234
-233
-232
-232
-231
-230
-230
-229
-229
-229
-228
-228
-228
-227
-227
-227
-226
-226
-226
-225
-225
-224
-224
-223
-224
-223
-222
-222
-221
-220
-220
-220
-219
-219
-218
-218
-216
-217
-215
-215
-214
-213
-212
-211
-210
-210
-209
-209
-208
-207
-207
-207
-206
-206
-205
-205
-205
-204
-203
-204
-203
-202
-202
-202
-201
-201
-200
-199
-199
-198
-198
-196
-196
-195
-194
-193
-192
-191
-190
-189
-188
-187
-186
-185
-184
-183
-182
-182
-181
-179
-178
-177
-176
-175
-174
-174
-173
-172
-171
-170
-169
-168
-167
-165
-165
-163
-162
-161
-160
-159
-158
-158
-157
-155
-154
-153
-153
-152
-150
-149
-149
-147
-146
-144
-143
-141
-140
-139
-138
-136
-135
-134
-133
-132
-131
-130
-128
-126
-125
-123
-122
-120
-119
-118
-116
-115
-113
-111
-110
-108
-107
-105
-104
-103
-101
-100
-99
-98
-96
-95
-93
-92
-91
-89
-88
-87
-86
-85
-84
-83
-82
-82
-80
-80
-79
-79
-77
-77
-76
-75
-75
-74
-74
-72
-73
-73
-71
-71
-72
-72
-72
-73
-73
-73
-73
-74
-75
-75
-76
-77
-78
-78
-79
-80
-82
-83
-84
-86
-87
-88
-89
-92
-93
-95
-96
-98
-101
-102
-104
-106
-108
-111
-113
-116
-118
-121
-124
-127
-130
-133
-136
-139
-143
-146
-150
-153
-156
-160
-162
-166
-169
-172
-176
-179
-182
-185
-189
-191
-195
-198
-201
-204
-208
-210
-213
-215
-218
-221
-223
-225
-228
-231
-233
-235
-238
-239
-242
-244
-246
-247
-250
-252
-253
-255
-256
-258
-260
-261
-263
-265
-266
-268
-269
-271
-272
-274
-275
-277
-278
-280
-281
-283
-284
-286
-287
-288
-290
-290
-290
-292
-292
-293
-293
-294
-294
-294
-294
-294
-294
-294
-294
-295
-295
-295
-295
-295
-295
-295
-296
-296
-297
-297
-298
-298
-298
-298
-299
-299
-299
-300
-301
-301
-301
-301
-301
-302
-302
-301
-301
-301
-301
-301
-301
-301
-301
-299
-299
-300
-300
-300
-300
-299
-300
-299
-300
-299
-299
-299
-299
-299
-298
-299
-299
-299
-298
-298
-298
-299
-299
-299
-299
-299
-299
-299
-299
-299
-298
-297
-298
-298
-296
-296
-296
-295
-295
-295
-294
-294
-294
-293
-293
-293
-293
-293
-293
-293
-293
-293
-293
-294
-293
-294
-293
-294
-294
-293
-293
-293
-293
-293
-292
-292
-292
-290
-289
-289
-288
-288
-288
-288
-287
-287
-286
-286
-286
-286
-286
-286
-287
-287
-288
-288
-288
-289
-290
-290
-291
-290
-291
-291
-290
-290
-290
-290
-289
-290
-289
-289
-288
-288
-287
-287
-286
-286
-286
-285
-285
-285
-284
-284
-284
-283
-283
-283
-282
-282
-282
-282
-282
-282
-282
-281
-281
-281
-281
-281
-281
-281
-281
-281
-280
-281
-281
-281
-281
-280
-280
-280
-280
-280
-281
-280
-280
-280
-281
-281
-281
-281
-281
-282
-282
-282
-283
-283
-283
-283
-283
-283
-283
-284
-284
-284
-284
-284
-284
-284
-284
-284
-284
-284
-284
-285
-285
-286
-287
-287
-287
-288
-288
-290
-290
-290
-291
-292
-292
-292
-293
-293
-293
-293
-293
-293
-293
-293
-293
-293
-293
-293
-293
-293
-292
-293
-293
-294
-293
-293
-294
-294
-294
-294
-294
-294
-294
-294
-293
-293
-293
-294
-294
-294
-294
-294
-295
-295
-294
-294
-294
-294
-294
-295
-295
-294
-294
-294
-294
-294
-294
-294
-295
-295
-295
-296
-295
-295
-296
-296
-296
-297
-297
-296
-296
-297
-297
-296
-296
-296
-296
-296
-296
-295
-295
-296
-296
-296
-296
-296
-296
-296
-297
-297
-297
-298
-298
-299
-299
-298
-299
-299
-301
-301
-301
-301
-301
-301
-302
-301
-301
-300
-300
-300
-300
-298
-298
-298
-298
-297
-297
-297
-297
-297
-297
-297
-297
-298
-298
-299
-299
-299
-300
-300
-301
-302
-301
-301
-302
-302
-302
-302
-301
-301
-300
-300
-300
-299
-298
-297
-297
-297
-296
-294
-295
-294
-292
-292
-291
-290
-289
-289
-288
-288
-287
-287
-285
-285
-285
-284
-284
-283
-282
-282
-281
-281
-280
-280
-280
-280
-280
-279
-279
-279
-280
-279
-280
-280
-280
-281
-282
-283
-283
-283
-284
-285
-286
-287
-288
-289
-290
-291
-292
-293
-294
-295
-296
-296
-297
-297
-299
-299
-299
-300
-300
-301
-302
-302
-302
-303
-303
-303
-304
-304
-304
-305
-305
-306
-306
-307
-307
-307
-307
-307
-307
-307
-306
-306
-307
-307
-307
-307
-308
-308
-308
-309
-309
-310
-310
-311
-312
-312
-312
-313
-313
-314
-314
-314
-315
-315
-315
-315
-316
-316
-316
-315
-315
-315
-315
-316
-316
-314
-315
-314
-314
-313
-314
-313
-313
-312
-312
-312
-312
-312
-312
-313
-313
-314
-314
-314
-314
-314
-314
-313
-314
-314
-314
-314
-314
-313
-313
-313
-313
-313
-313
-313
-313
-312
-312
-313
-312
-312
-311
-311
-311
-311
-311
-311
-311
-310
-310
-309
-309
-309
-309
-308
-308
-307
-305
-304
-301
-299
-296
-291
-286
-282
-275
-267
-259
-251
-241
-231
-221
-210
-201
-191
-182
-174
-166
-161
-157
-154
-154
-156
-161
-169
-180
-194
-212
-232
-255
-282
-313
-344
-380
-417
-456
-496
-537
-578
-619
-660
-699
-735
-771
-802
-832
-859
-881
-901
-918
-930
-938
-942
-941
-938
-931
-919
-905
-888
-869
-846
-823
-799
-773
-748
-721
-695
-669
-643
-618
-593
-569
-547
-525
-504
-483
-463
-445
-428
-412
-397
-382
-370
-357
-345
-335
-325
-316
-307
-300
-293
-286
-281
-276
-271
-268
-264
-261
-259
-257
-256
-254
-252
-251
-249
-248
-247
-246
-246
-244
-243
-242
-242
-241
-240
-240
-239
-238
-237
-236
-235
-234
-234
-233
-232
-231
-231
-230
-229
-229
-227
-227
-227
-227
-226
-225
-225
-225
-225
-224
-223
-223
-222
-222
-222
-221
-221
-220
-220
-220
-220
-219
-219
-219
-219
-218
-219
-219
-218
-217
-217
-217
-216
-216
-215
-215
-215
-215
-213
-213
-213
-212
-212
-211
-211
-211
-211
-211
-210
-210
-210
-210
-209
-209
-208
-208
-207
-208
-207
-207
-206
-205
-205
-204
-204
-204
-202
-202
-202
-200
-200
-199
-199
-198
-198
-198
-198
-197
-196
-196
-196
-195
-195
-196
-196
-195
-195
-195
-194
-194
-194
-193
-193
-192
-191
-190
-189
-188
-187
-187
-186
-184
-184
-183
-182
-182
-181
-180
-179
-178
-177
-176
-175
-174
-173
-172
-171
-170
-170
-168
-167
-167
-166
-164
-164
-162
-162
-161
-160
-160
-159
-158
-157
-155
-154
-153
-152
-150
-149
-148
-147
-144
-143
-142
-140
-139
-137
-135
-134
-133
-131
-129
-127
-126
-124
-123
-121
-121
-119
-118
-117
-116
-115
-115
-113
-112
-111
-110
-110
-109
-108
-107
-106
-106
-103
-103
-102
-100
-99
-98
-96
-95
-94
-93
-91
-90
-89
-88
-87
-87
-86
-85
-86
-84
-85
-85
-85
-85
-85
-85
-86
-86
-87
-87
-88
-89
-91
-92
-93
-93
-94
-94
-95
-96
-97
-98
-99
-100
-101
-103
-103
-105
-106
-108
-110
-112
-114
-116
-117
-120
-122
-124
-126
-128
-131
-133
-135
-139
-141
-144
-147
-149
-152
-154
-157
-161
-163
-167
-170
-172
-176
-179
-182
-185
-187
-190
-193
-196
-199
-202
-204
-207
-210
-213
-215
-218
-221
-223
-225
-227
-230
-232
-235
-236
-239
-240
-242
-244
-245
-248
-249
-251
-253
-255
-258
-259
-261
-263
-264
-266
-268
-269
-271
-272
-274
-275
-277
-278
-279
-280
-281
-282
-283
-284
-284
-285
-285
-286
-287
-287
-287
-288
-288
-288
-288
-288
-288
-289
-289
-289
-291
-291
-291
-292
-293
-293
-294
-294
-294
-295
-295
-295
-296
-296
-297
-297
-297
-296
-297
-297
-297
-297
-297
-297
-297
-297
-297
-296
-296
-296
-295
-295
-295
-295
-294
-293
-293
-293
-293
-293
-293
-293
-293
-293
-294
-294
-294
-294
-294
-294
-294
-295
-294
-294
-295
-294
-294
-295
-294
-294
-293
-293
-293
-291
-291
-291
-291
-290
-289
-289
-289
-288
-289
-288
-288
-288
-288
-288
-288
-288
-288
-289
-289
-289
-289
-289
-289
-289
-289
-289
-288
-288
-288
-287
-287
-286
-285
-284
-284
-283
-283
-283
-283
-282
-282
-281
-281
-281
-281
-280
-280
-281
-280
-281
-280
-280
-281
-280
-280
-279
-279
-279
-279
-279
-279
-279
-279
-279
-278
-278
-278
-278
-277
-276
-276
-276
-276
-276
-275
-275
-275
-275
-275
-276
-275
-275
-276
-276
-276
-277
-277
-277
-277
-277
-277
-277
-278
-277
-277
-278
-278
-278
-279
-279
-279
-279
-279
-280
-279
-279
-279
-279
-279
-280
-279
-279
-278
-278
-278
-279
-279
-279
-279
-279
-279
-280
-280
-280
-281
-280
-280
-280
-281
-281
-281
-281
-281
-281
-282
-282
-283
-282
-282
-282
-282
-282
-282
-283
-283
-283
-283
-283
-284
-284
-283
-283
-284
-284
-284
-284
-284
-285
-285
-285
-286
-286
-287
-287
-288
-288
-288
-289
-289
-291
-290
-290
-292
-292
-293
-293
-293
-294
-295
-295
-296
-296
-296
-297
-297
-297
-297
-298
-298
-298
-297
-297
-298
-298
-297
-297
-297
-297
-297
-298
-298
-298
-298
-298
-298
-298
-298
-298
-298
-298
-299
-299
-299
-299
-299
-299
-298
-298
-298
-299
-298
-298
-298
-297
-298
-298
-298
-298
-297
-296
-297
-297
-297
-297
-297
-298
-298
-298
-298
-298
-298
-298
-298
-298
-299
-300
-300
-299
-299
-299
-299
-299
-299
-299
-299
-299
-299
-298
-298
-298
-298
-298
-298
-298
-299
-299
-299
-300
-300
-301
-301
-301
-302
-302
-303
-304
-304
-304
-304
-305
-305
-306
-305
-305
-305
-306
-306
-305
-305
-305
-305
-305
-305
-305
-305
-305
-305
-305
-305
-305
-305
-305
-305
-305
-305
-305
-305
-305
-305
-305
-306
-306
-306
-306
-306
-306
-306
-305
-305
-306
-305
-306
-306
-306
-307
-306
-306
-306
-306
-306
-306
-306
-306
-306
-306
-306
-306
-307
-307
-307
-308
-307
-308
-308
-309
-309
-309
-309
-309
-309
-308
-309
-309
-309
-309
-308
-308
-308
-308
-308
-309
-309
-309
-309
-309
-309
-308
-308
-308
-307
-307
-308
-307
-307
-306
-306
-306
-306
-306
-305
-305
-305
-305
-304
-304
-304
-303
-303
-302
-302
-301
-300
-299
-299
-298
-297
-297
-295
-294
-294
-292
-291
-290
-290
-288
-288
-287
-286
-285
-285
-283
-284
-283
-283
-281
-281
-281
-281
-281
-280
-281
-280
-280
-280
-281
-281
-281
-281
-282
-282
-283
-283
-284
-285
-286
-287
-288
-289
-290
-293
-294
-295
-297
-297
-298
-300
-301
-302
-303
-303
-304
-306
-307
-307
-308
-308
-309
-309
-310
-311
-311
-312
-312
-312
-312
-312
-311
-312
-312
-312
-311
-311
-310
-311
-310
-310
-310
-310
-309
-308
-309
-309
-309
-309
-309
-309
-310
-310
-310
-310
-310
-310
-310
-310
-311
-311
-311
-311
-311
-312
-312
-312
-312
-312
-312
-312
-311
-312
-312
-311
-312
-311
-311
-311
-312
-311
-311
-311
-311
-310
-311
-311
-311
-310
-310
-310
-310
-310
-308
-308
-308
-307
-307
-307
-306
-306
-306
-306
-305
-306
-306
-306
-306
-306
-306
-307
-307
-307
-307
-308
-309
-308
-308
-309
-310
-309
-309
-309
-309
-309
-309
-309
-309
-308
-308
-308
-307
-306
-305
-304
-302
-300
-298
-294
-290
-286
-280
-275
-267
-260
-251
-242
-231
-222
-213
-202
-193
-184
-175
-168
-161
-156
-154
-152
-154
-158
-165
-175
-188
-203
-222
-245
-270
-298
-330
-363
-400
-438
-478
-517
-558
-600
-640
-680
-718
-754
-788
-819
-847
-873
-894
-912
-927
-937
-942
-943
-941
-935
-924
-911
-895
-876
-855
-832
-807
-782
-757
-729
-704
-677
-650
-624
-599
-574
-551
-528
-506
-484
-464
-446
-428
-412
-395
-381
-367
-355
-342
-332
-322
-313
-303
-295
-288
-280
-275
-269
-263
-259
-255
-250
-247
-245
-242
-240
-238
-236
-234
-233
-232
-232
-231
-230
-230
-229
-229
-229
-228
-228
-228
-228
-227
-227
-226
-226
-226
-225
-224
-224
-223
-223
-222
-222
-221
-220
-220
-219
-218
-217
-216
-216
-215
-214
-214
-213
-213
-212
-211
-211
-211
-210
-209
-209
-209
-209
-208
-208
-208
-207
-207
-206
-206
-205
-205
-204
-205
-204
-204
-203
-203
-202
-201
-201
-200
-199
-199
-198
-198
-197
-197
-196
-195
-194
-194
-193
-192
-192
-192
-192
-191
-191
-191
-191
-190
-190
-190
-189
-189
-188
-189
-188
-188
-187
-187
-186
-185
-185
-183
-183
-183
-183
-181
-181
-181
-179
-179
-179
-178
-178
-177
-175
-175
-174
-173
-173
-172
-171
-170
-170
-168
-168
-167
-167
-166
-166
-164
-163
-163
-162
-161
-159
-159
-158
-157
-156
-155
-154
-153
-153
-152
-151
-150
-150
-149
-148
-147
-146
-145
-145
-144
-143
-141
-140
-139
-138
-136
-134
-133
-132
-130
-128
-128
-127
-126
-124
-123
-122
-120
-118
-118
-115
-114
-113
-111
-110
-109
-108
-107
-106
-105
-104
-102
-101
-100
-99
-97
-96
-94
-92
-91
-90
-88
-86
-85
-83
-82
-81
-80
-79
-77
-76
-76
-74
-73
-73
-71
-71
-70
-70
-69
-69
-68
-67
-66
-66
-65
-64
-64
-64
-63
-63
-62
-62
-61
-62
-61
-61
-61
-61
-62
-61
-61
-62
-63
-63
-63
-64
-65
-66
-67
-68
-69
-70
-72
-73
-75
-75
-77
-78
-80
-81
-83
-85
-86
-89
-91
-93
-96
-99
-102
-105
-108
-111
-114
-118
-121
-125
-128
-132
-136
-139
-143
-146
-150
-153
-156
-160
-163
-166
-169
-173
-176
-178
-181
-185
-188
-190
-193
-196
-198
-201
-203
-206
-208
-210
-213
-215
-217
-220
-222
-224
-226
-228
-231
-232
-234
-237
-238
-240
-241
-244
-245
-247
-248
-250
-252
-253
-254
-255
-257
-258
-259
-260
-261
-262
-263
-264
-266
-266
-267
-267
-269
-269
-269
-270
-270
-271
-272
-271
-271
-272
-272
-273
-274
-273
-273
-274
-274
-274
-274
-274
-274
-274
-274
-274
-273
-274
-274
-273
-274
-274
-274
-274
-274
-275
-275
-275
-275
-275
-276
-276
-276
-275
-275
-275
-276
-276
-276
-275
-275
-275
-275
-275
-275
-275
-275
-275
-275
-275
-276
-275
-275
-275
-274
-274
-275
-275
-275
-274
-273
-273
-273
-273
-273
-272
-272
-271
-270
-270
-270
-270
-269
-269
-269
-269
-269
-268
-268
-268
-269
-269
-268
-268
-268
-268
-269
-268
-268
-267
-267
-266
-266
-265
-265
-265
-264
-264
-264
-264
-264
-263
-263
-263
-263
-263
-262
-262
-261
-261
-260
-261
-260
-260
-259
-259
-258
-258
-258
-257
-258
-256
-256
-256
-256
-256
-256
-256
-256
-256
-255
-255
-255
-255
-255
-254
-254
-254
-253
-253
-253
-253
-253
-253
-253
-252
-253
-253
-253
-253
-253
-253
-254
-254
-254
-254
-255
-255
-255
-255
-257
-257
-257
-257
-257
-258
-258
-258
-258
-258
-258
-257
-257
-257
-257
-257
-257
-256
-256
-257
-256
-256
-256
-257
-256
-256
-257
-257
-257
-257
-257
-257
-257
-258
-258
-258
-258
-258
-260
-260
-260
-260
-261
-261
-262
-262
-263
-263
-263
-264
-264
-265
-265
-264
-266
-266
-266
-267
-267
-267
-267
-267
-267
-268
-268
-268
-267
-267
-267
-267
-267
-267
-267
-267
-267
-267
-267
-267
-267
-267
-267
-267
-267
-266
-266
-266
-267
-267
-267
-267
-266
-266
-266
-266
-266
-265
-266
-266
-266
-266
-266
-267
-266
-267
-267
-267
-267
-268
-267
-267
-268
-268
-267
-267
-267
-268
-268
-268
-268
-268
-268
-268
-268
-268
-268
-269
-268
-268
-269
-269
-268
-268
-269
-268
-268
-268
-268
-268
-268
-268
-268
-268
-268
-268
-268
-268
-268
-268
-268
-268
-268
-268
-268
-268
-268
-268
-268
-267
-267
-266
-266
-266
-266
-266
-266
-266
-267
-267
-267
-267
-267
-268
-268
-268
-268
-269
-270
-269
-270
-271
-271
-272
-271
-272
-272
-271
-271
-271
-271
-271
-271
-270
-270
-270
-270
-269
-269
-269
-269
-269
-269
-269
-270
-270
-270
-270
-271
-271
-271
-270
-271
-271
-271
-271
-271
-271
-271
-271
-271
-270
-271
-270
-270
-270
-270
-270
-271
-271
-271
-270
-271
-271
-271
-272
-272
-272
-272
-272
-273
-273
-273
-273
-274
-274
-274
-274
-273
-273
-273
-273
-273
-273
-273
-272
-272
-272
-272
-271
-271
-271
-271
-270
-271
-271
-271
-271
-270
-270
-270
-269
-269
-269
-269
-270
-269
-269
-269
-268
-268
-268
-267
-267
-267
-267
-266
-266
-266
-266
-265
-265
-264
-264
-263
-262
-261
-261
-260
-259
-259
-257
-256
-256
-255
-254
-254
-252
-252
-250
-250
-248
-247
-245
-245
-243
-242
-241
-239
-238
-238
-237
-236
-236
-236
-236
-236
-236
-236
-236
-238
-238
-239
-241
-241
-243
-245
-245
-247
-249
-250
-252
-253
-254
-255
-256
-257
-258
-259
-259
-260
-261
-261
-261
-262
-262
-262
-262
-262
-262
-263
-263
-263
-263
-263
-263
-264
-264
-264
-265
-264
-264
-265
-265
-265
-265
-266
-266
-266
-266
-266
-267
-267
-267
-267
-267
-268
-268
-267
-267
-267
-268
-268
-268
-268
-268
-268
-268
-268
-269
-269
-269
-270
-270
-270
-269
-271
-271
-270
-271
-271
-271
-271
-271
-270
-271
-271
-270
-270
-271
-271
-270
-270
-270
-269
-269
-269
-269
-269
-269
-270
-269
-269
-269
-269
-268
-268
-268
-268
-267
-268
-268
-268
-268
-267
-267
-267
-267
-267
-268
-267
-267
-267
-267
-267
-266
-266
-266
-265
-266
-266
-265
-266
-266
-266
-266
-265
-265
-265
-265
-264
-264
-264
-263
-261
-260
-258
-255
-253
-249
-243
-238
-232
-225
-217
-209
-199
-190
-180
-170
-161
-151
-143
-136
-129
-123
-119
-118
-118
-121
-126
-135
-146
-160
-179
-199
-223
-250
-279
-312
-346
-383
-421
-460
-500
-540
-580
-618
-655
-689
-723
-753
-780
-805
-825
-842
-855
-865
-871
-873
-870
-864
-855
-843
-827
-809
-789
-767
-744
-720
-695
-671
-645
-621
-596
-572
-549
-526
-505
-483
-463
-443
-425
-407
-390
-374
-360
-346
-333
-321
-310
-301
-290
-282
-274
-266
-259
-253
-247
-241
-237
-232
-228
-225
-222
-220
-217
-214
-213
-212
-210
-209
-208
-207
-206
-206
-205
-204
-204
-203
-202
-202
-201
-200
-199
-199
-199
-198
-197
-196
-196
-195
-195
-194
-193
-192
-192
-191
-191
-191
-189
-188
-188
-188
-187
-187
-187
-187
-186
-186
-185
-185
-185
-185
-185
-185
-185
-184
-184
-184
-184
-183
-183
-183
-182
-183
-182
-182
-181
-181
-180
-179
-179
-179
-179
-178
-177
-177
-177
-175
-175
-174
-174
-173
-173
-172
-171
-171
-170
-170
-170
-169
-169
-169
-168
-167
-167
-168
-167
-167
-167
-167
-167
-166
-167
-166
-166
-165
-166
-165
-165
-165
-164
-164
-164
-163
-162
-162
-162
-161
-160
-160
-159
-158
-157
-156
-156
-155
-154
-152
-152
-150
-150
-148
-148
-146
-146
-144
-143
-142
-140
-139
-138
-137
-137
-136
-136
-135
-134
-134
-133
-133
-133
-132
-133
-132
-131
-131
-131
-130
-130
-129
-128
-127
-127
-125
-123
-122
-122
-120
-119
-118
-116
-115
-114
-112
-111
-110
-109
-108
-105
-105
-103
-102
-101
-100
-98
-97
-95
-94
-93
-91
-90
-89
-87
-86
-85
-83
-82
-81
-80
-78
-77
-76
-73
-73
-71
-69
-68
-67
-65
-64
-63
-62
-61
-60
-58
-58
-56
-56
-55
-53
-53
-52
-52
-51
-50
-50
-50
-49
-48
-48
-48
-47
-48
-48
-47
-47
-47
-46
-47
-47
-47
-47
-47
-48
-49
-48
-49
-50
-50
-51
-52
-53
-54
-55
-56
-57
-58
-60
-61
-63
-64
-65
-67
-69
-70
-72
-75
-77
-79
-82
-85
-88
-90
-92
-96
-99
-102
-105
-108
-111
-115
-117
-120
-123
-127
-129
-132
-134
-138
-141
-143
-145
-148
-151
-154
-157
-159
-162
-165
-167
-169
-172
-174
-177
-178
-181
-183
-186
-187
-189
-192
-194
-197
-198
-201
-202
-204
-206
-208
-209
-211
-212
-213
-214
-216
-217
-217
-218
-219
-220
-221
-222
-223
-222
-223
-224
-225
-227
-227
-229
-229
-231
-231
-233
-234
-234
-236
-237
-238
-240
-240
-242
-243
-244
-244
-245
-246
-246
-246
-246
-246
-246
-247
-247
-246
-246
-246
-245
-245
-246
-246
-246
-245
-245
-245
-245
-244
-244
-244
-244
-244
-243
-244
-244
-244
-243
-243
-243
-242
-242
-242
-242
-242
-242
-242
-242
-242
-242
-242
-242
-242
-242
-241
-242
-242
-242
-242
-242
-242
-242
-242
-242
-242
-242
-242
-242
-242
-242
-241
-241
-240
-240
-240
-240
-239
-239
-238
-238
-237
-237
-237
-237
-237
-237
-236
-236
-236
-236
-236
-235
-234
-234
-235
-233
-233
-233
-232
-232
-232
-232
-232
-231
-231
-230
-231
-231
-230
-230
-230
-229
-229
-229
-228
-228
-227
-227
-226
-225
-225
-225
-225
-224
-223
-223
-222
-222
-222
-222
-222
-222
-222
-221
-221
-222
-222
-223
-222
-223
-223
-223
-224
-224
-225
-226
-226
-226
-226
-226
-227
-227
-227
-227
-226
-225
-225
-225
-225
-225
-224
-225
-224
-224
-224
-224
-224
-223
-224
-223
-223
-223
-223
-223
-223
-222
-222
-223
-223
-223
-223
-223
-224
-225
-225
-226
-227
-227
-228
-228
-229
-229
-230
-231
-231
-231
-231
-231
-231
-231
-231
-232
-231
-231
-232
-232
-232
-232
-233
-232
-232
-233
-234
-234
-234
-234
-234
-234
-234
-235
-235
-235
-236
-237
-236
-236
-237
-236
-236
-236
-235
-235
-235
-235
-235
-234
-234
-235
-235
-235
-235
-235
-235
-236
-236
-236
-237
-238
-238
-238
-239
-239
-239
-239
-240
-239
-239
-239
-239
-239
-239
-239
-239
-239
-239
-239
-239
-239
-239
-239
-238
-238
-238
-238
-238
-239
-239
-239
-238
-238
-239
-239
-239
-239
-238
-239
-239
-239
-238
-239
-239
-239
-239
-238
-238
-238
-239
-239
-238
-238
-239
-239
-239
-239
-240
-240
-240
-241
-241
-241
-242
-242
-242
-242
-243
-242
-242
-242
-242
-242
-242
-242
-241
-241
-241
-240
-240
-240
-239
-239
-239
-238
-238
-238
-238
-237
-237
-237
-237
-237
-238
-238
-238
-238
-239
-239
-239
-240
-240
-240
-240
-241
-241
-242
-242
-242
-243
-242
-243
-243
-243
-244
-244
-244
-244
-244
-244
-244
-244
-243
-242
-243
-243
-242
-242
-242
-241
-241
-241
-240
-239
-239
-239
-239
-238
-238
-237
-237
-236
-236
-235
-235
-234
-233
-232
-232
-232
-231
-229
-229
-229
-227
-227
-227
-227
-226
-225
-224
-224
-224
-223
-223
-222
-221
-221
-221
-220
-220
-220
-220
-219
-220
-219
-220
-221
-222
-223
-223
-224
-224
-225
-226
-227
-229
-230
-230
-232
-233
-234
-234
-236
-237
-237
-238
-239
-239
-240
-241
-241
-242
-242
-243
-243
-243
-243
-243
-243
-244
-244
-244
-244
-245
-245
-245
-245
-245
-245
-245
-245
-245
-245
-245
-244
-244
-244
-243
-242
-242
-242
-242
-242
-241
-241
-241
-241
-242
-243
-243
-244
-244
-245
-245
-246
-247
-248
-249
-250
-250
-250
-251
-252
-252
-252
-252
-252
-252
-253
-253
-252
-252
-252
-252
-252
-252
-251
-251
-251
-250
-250
-250
-250
-250
-249
-249
-249
-249
-249
-249
-249
-249
-249
-248
-248
-248
-248
-247
-247
-247
-247
-247
-247
-247
-247
-246
-246
-247
-246
-246
-246
-246
-246
-246
-246
-245
-245
-244
-244
-244
-243
-243
-243
-243
-241
-240
-239
-237
-235
-232
-227
-223
-217
-211
-204
-196
-188
-178
-169
-158
-149
-139
-130
-121
-114
-107
-101
-98
-96
-96
-99
-105
-114
-125
-140
-158
-179
-204
-231
-260
-293
-328
-365
-403
-442
-482
-522
-562
-599
-637
-671
-703
-732
-760
-783
-802
-819
-832
-841
-845
-846
-844
-836
-826
-814
-797
-778
-757
-735
-711
-687
-662
-636
-610
-585
-560
-535
-511
-488
-466
-444
-423
-404
-385
-368
-351
-336
-321
-308
-296
-284
-274
-265
-255
-246
-239
-232
-225
-219
-214
-209
-204
-201
-198
-195
-192
-190
-188
-187
-185
-184
-183
-182
-181
-180
-179
-178
-178
-177
-176
-175
-175
-174
-174
-174
-172
-172
-170
-170
-170
-168
-168
-168
-167
-167
-166
-166
-165
-165
-165
-165
-164
-165
-165
-165
-166
-166
-167
-167
-167
-168
-167
-168
-168
-167
-167
-167
-167
-166
-166
-165
-165
-164
-163
-162
-162
-161
-160
-159
-159
-158
-157
-156
-155
-155
-154
-153
-153
-152
-152
-151
-151
-150
-150
-150
-149
-149
-149
-149
-149
-149
-149
-148
-148
-147
-147
-147
-147
-146
-146
-145
-145
-144
-143
-143
-142
-142
-141
-141
-140
-139
-139
-138
-138
-137
-136
-135
-134
-134
-133
-131
-131
-130
-130
-129
-128
-128
-127
-127
-126
-125
-125
-124
-123
-123
-122
-121
-121
-121
-120
-119
-118
-118
-118
-117
-116
-115
-115
-114
-114
-112
-112
-110
-109
-108
-108
-107
-106
-104
-103
-102
-101
-99
-99
-98
-97
-95
-94
-93
-91
-90
-88
-87
-86
-84
-83
-82
-80
-79
-76
-76
-75
-73
-71
-70
-69
-68
-67
-66
-64
-63
-62
-61
-60
-58
-57
-56
-54
-53
-51
-51
-49
-48
-47
-44
-43
-42
-41
-40
-38
-37
-35
-34
-32
-31
-29
-28
-27
-25
-24
-22
-22
-21
-19
-19
-18
-17
-17
-17
-17
-17
-17
-16
-16
-16
-15
-16
-16
-16
-17
-17
-16
-17
-18
-18
-18
-18
-20
-20
-20
-21
-22
-23
-23
-24
-25
-26
-28
-28
-30
-32
-31
-33
-36
-38
-39
-42
-44
-47
-49
-51
-54
-56
-60
-63
-65
-68
-71
-74
-78
-80
-84
-87
-90
-93
-96
-100
-103
-107
-109
-113
-116
-119
-122
-125
-128
-130
-133
-136
-138
-141
-143
-147
-149
-151
-154
-156
-158
-160
-162
-165
-167
-169
-171
-173
-175
-176
-178
-181
-182
-183
-185
-187
-189
-190
-192
-194
-195
-196
-198
-199
-201
-202
-203
-205
-206
-207
-209
-209
-211
-211
-212
-213
-215
-215
-216
-217
-218
-218
-219
-219
-220
-220
-220
-220
-221
-221
-221
-221
-221
-221
-221
-222
-222
-222
-222
-222
-222
-223
-223
-223
-222
-222
-222
-222
-222
-223
-223
-223
-223
-223
-223
-223
-223
-222
-222
-222
-223
-223
-223
-223
-223
-223
-223
-223
-223
-222
-222
-222
-222
-223
-222
-221
-221
-221
-221
-221
-221
-220
-220
-220
-220
-219
-219
-218
-218
-218
-218
-218
-218
-217
-217
-217
-217
-217
-217
-217
-217
-217
-217
-217
-217
-217
-216
-216
-216
-215
-216
-214
-214
-214
-213
-213
-212
-212
-212
-212
-212
-212
-212
-212
-211
-211
-211
-211
-211
-210
-211
-211
-211
-211
-211
-212
-211
-212
-211
-212
-211
-211
-211
-211
-211
-210
-209
-209
-208
-208
-209
-208
-208
-208
-207
-207
-207
-207
-207
-207
-208
-208
-208
-208
-209
-209
-209
-209
-209
-210
-210
-210
-210
-210
-210
-210
-211
-211
-211
-210
-211
-211
-211
-211
-211
-210
-210
-210
-209
-209
-209
-208
-208
-208
-207
-206
-206
-206
-205
-205
-205
-205
-205
-205
-205
-205
-206
-206
-206
-206
-207
-207
-207
-208
-208
-208
-209
-210
-210
-210
-211
-211
-211
-212
-212
-212
-212
-212
-211
-211
-212
-211
-211
-210
-210
-211
-210
-210
-210
-211
-211
-211
-212
-212
-213
-213
-214
-214
-214
-214
-215
-215
-216
-216
-217
-217
-217
-217
-218
-218
-218
-218
-218
-218
-218
-218
-218
-218
-218
-218
-219
-218
-218
-217
-217
-217
-218
-218
-218
-218
-218
-218
-218
-218
-218
-219
-218
-218
-217
-217
-218
-218
-218
-217
-217
-217
-217
-218
-219
-218
-218
-218
-219
-219
-220
-220
-219
-220
-220
-220
-221
-221
-221
-220
-220
-220
-221
-221
-221
-221
-220
-220
-221
-220
-220
-220
-220
-220
-220
-220
-218
-218
-219
-219
-219
-218
-218
-218
-218
-219
-219
-219
-219
-219
-220
-220
-220
-219
-219
-219
-219
-219
-219
-220
-220
-220
-220
-220
-220
-221
-221
-221
-222
-223
-223
-223
-223
-224
-224
-224
-225
-225
-225
-225
-226
-226
-226
-226
-227
-226
-226
-226
-226
-226
-226
-226
-226
-226
-226
-225
-225
-225
-225
-225
-225
-225
-224
-224
-224
-224
-224
-224
-224
-223
-224
-224
-225
-225
-225
-225
-225
-225
-225
-226
-226
-226
-227
-227
-227
-228
-228
-228
-228
-228
-228
-228
-228
-228
-228
-228
-228
-228
-227
-227
-227
-226
-226
-226
-225
-226
-226
-225
-225
-225
-225
-225
-225
-224
-224
-223
-223
-223
-223
-223
-221
-222
-222
-221
-221
-220
-220
-220
-220
-220
-219
-219
-219
-220
-220
-220
-221
-221
-222
-222
-223
-223
-224
-224
-226
-227
-227
-229
-229
-229
-229
-229
-230
-230
-230
-229
-229
-229
-229
-229
-229
-229
-229
-228
-228
-228
-228
-228
-228
-228
-228
-228
-228
-228
-228
-227
-228
-228
-228
-227
-227
-227
-226
-225
-225
-225
-224
-224
-223
-223
-222
-221
-221
-220
-220
-219
-218
-217
-217
-216
-215
-214
-213
-212
-212
-212
-210
-210
-210
-208
-208
-208
-207
-206
-205
-205
-205
-204
-204
-203
-203
-202
-202
-202
-202
-201
-201
-201
-202
-202
-202
-202
-202
-203
-204
-204
-204
-204
-205
-206
-207
-208
-208
-209
-210
-211
-212
-213
-213
-214
-215
-215
-215
-215
-216
-215
-216
-215
-216
-216
-216
-217
-217
-217
-218
-219
-220
-220
-221
-222
-223
-224
-226
-226
-228
-229
-229
-231
-232
-233
-233
-233
-234
-234
-234
-235
-235
-235
-234
-234
-234
-233
-233
-233
-233
-232
-233
-232
-232
-231
-231
-232
-232
-231
-231
-232
-232
-231
-231
-232
-232
-232
-233
-233
-234
-233
-233
-233
-234
-234
-234
-235
-235
-235
-235
-235
-235
-235
-235
-235
-235
-235
-234
-234
-234
-234
-234
-233
-233
-233
-233
-233
-233
-233
-233
-232
-232
-232
-232
-232
-233
-233
-232
-232
-232
-232
-233
-232
-232
-232
-232
-232
-232
-232
-232
-232
-231
-231
-231
-231
-230
-229
-228
-227
-225
-224
-220
-218
-214
-210
-204
-198
-192
-183
-175
-166
-158
-148
-138
-130
-122
-113
-105
-99
-93
-89
-87
-86
-89
-93
-101
-111
-124
-141
-160
-183
-208
-236
-268
-302
-338
-375
-415
-454
-495
-536
-576
-614
-652
-687
-720
-750
-778
-801
-823
-840
-853
-862
-867
-868
-865
-857
-848
-833
-818
-799
-777
-755
-731
-705
-680
-654
-629
-602
-577
-551
-528
-503
-480
-458
-437
-416
-397
-378
-360
-345
-329
-314
-301
-288
-276
-266
-254
-245
-236
-227
-220
-213
-206
-200
-195
-190
-186
-183
-179
-177
-174
-173
-171
-169
-169
-168
-167
-167
-166
-166
-166
-165
-166
-165
-164
-165
-164
-163
-162
-162
-160
-159
-159
-158
-156
-155
-155
-153
-153
-152
-151
-151
-150
-149
-148
-148
-147
-148
-146
-146
-145
-144
-144
-144
-144
-142
-142
-142
-142
-141
-141
-140
-139
-139
-139
-139
-138
-138
-137
-138
-137
-138
-138
-138
-138
-138
-138
-139
-139
-139
-139
-139
-140
-139
-139
-139
-139
-138
-138
-137
-137
-136
-136
-135
-135
-134
-134
-133
-132
-132
-131
-131
-130
-130
-129
-128
-128
-127
-126
-126
-125
-124
-123
-122
-121
-121
-121
-120
-119
-119
-118
-118
-117
-117
-116
-115
-114
-113
-113
-112
-111
-111
-110
-109
-108
-107
-107
-106
-106
-104
-104
-103
-102
-102
-102
-101
-100
-99
-98
-97
-96
-95
-96
-95
-94
-93
-92
-91
-89
-89
-88
-87
-86
-84
-83
-82
-81
-80
-79
-77
-76
-76
-75
-73
-72
-71
-70
-69
-68
-67
-66
-65
-64
-62
-61
-60
-59
-58
-57
-56
-55
-54
-52
-51
-49
-48
-46
-45
-43
-42
-40
-39
-38
-36
-35
-33
-32
-30
-28
-27
-25
-24
-23
-21
-19
-18
-17
-15
-14
-14
-12
-11
-11
-9
-8
-8
-7
-5
-5
-4
-3
-3
-3
-2
-1
-1
-1
0
0
0
0
1
1
1
1
1
1
0
1
0
1
0
-1
-2
-2
-3
-4
-6
-7
-9
-11
-13
-14
-16
-18
-20
-22
-24
-26
-29
-31
-33
-34
-36
-38
-40
-43
-44
-47
-50
-52
-55
-58
-61
-64
-67
-69
-72
-76
-80
-83
-86
-90
-94
-98
-101
-105
-109
-113
-116
-120
-122
-126
-129
-133
-135
-139
-141
-144
-147
-149
-152
-154
-156
-158
-161
-164
-166
-167
-169
-171
-174
-176
-178
-180
-182
-184
-185
-187
-189
-190
-192
-193
-194
-195
-196
-198
-198
-199
-200
-201
-202
-202
-203
-204
-204
-205
-206
-206
-207
-207
-208
-209
-209
-209
-210
-211
-211
-211
-212
-212
-214
-214
-214
-215
-215
-215
-215
-215
-215
-215
-215
-215
-215
-215
-215
-215
-215
-215
-215
-215
-215
-215
-215
-216
-216
-216
-216
-217
-216
-217
-217
-217
-217
-218
-218
-218
-218
-219
-219
-218
-220
-220
-220
-220
-220
-220
-220
-220
-219
-219
-219
-219
-219
-219
-220
-219
-219
-219
-218
-218
-218
-218
-217
-217
-217
-217
-217
-216
-216
-215
-215
-215
-216
-215
-215
-215
-215
-215
-215
-215
-215
-215
-215
-215
-215
-215
-214
-214
-215
-214
-213
-213
-213
-213
-211
-211
-211
-211
-211
-210
-210
-209
-209
-209
-209
-209
-208
-208
-207
-207
-207
-205
-205
-205
-204
-203
-203
-203
-204
-204
-204
-204
-204
-204
-204
-205
-205
-205
-206
-205
-206
-206
-207
-207
-208
-208
-208
-208
-208
-208
-208
-208
-208
-209
-208
-208
-207
-207
-207
-206
-206
-206
-206
-206
-205
-206
-206
-206
-206
-205
-205
-205
-205
-206
-206
-206
-206
-206
-205
-206
-206
-207
-206
-206
-207
-207
-207
-207
-208
-207
-207
-207
-208
-207
-207
-207
-207
-206
-206
-206
-206
-206
-206
-206
-206
-206
-206
-207
-207
-208
-208
-209
-209
-209
-210
-211
-211
-212
-212
-212
-214
-214
-214
-214
-214
-215
-215
-216
-215
-216
-216
-216
-216
-216
-216
-216
-216
-216
-216
-217
-217
-217
-217
-218
-218
-219
-219
-219
-219
-220
-220
-220
-221
-221
-221
-222
-222
-222
-223
-223
-223
-223
-224
-224
-224
-224
-224
-225
-225
-225
-225
-225
-226
-225
-225
-225
-225
-225
-225
-225
-225
-225
-225
-225
-224
-224
-224
-224
-224
-225
-224
-224
-224
-225
-225
-225
-225
-225
-225
-226
-226
-226
-227
-227
-227
-228
-228
-228
-229
-229
-229
-229
-230
-231
-231
-231
-230
-230
-230
-230
-230
-230
-230
-230
-229
-230
-230
-229
-229
-229
-229
-229
-228
-229
-229
-229
-229
-229
-228
-228
-228
-228
-229
-229
-229
-229
-229
-230
-230
-231
-231
-231
-231
-231
-231
-232
-232
-232
-232
-231
-232
-232
-232
-232
-232
-232
-232
-232
-232
-232
-232
-232
-232
-232
-232
-232
-231
-230
-230
-231
-230
-230
-229
-229
-229
-229
-229
-228
-228
-229
-229
-229
-229
-229
-229
-229
-229
-230
-230
-230
-230
-230
-231
-231
-231
-231
-232
-232
-231
-231
-232
-231
-231
-230
-230
-231
-231
-231
-231
-230
-230
-230
-230
-230
-230
-230
-231
-230
-231
-231
-231
-231
-232
-232
-232
-232
-231
-231
-232
-232
-232
-233
-233
-232
-232
-232
-232
-232
-233
-234
-234
-234
-234
-234
-234
-234
-234
-233
-233
-234
-234
-233
-233
-233
-233
-233
-233
-233
-232
-233
-233
-233
-233
-233
-233
-233
-233
-233
-233
-233
-233
-233
-234
-234
-234
-234
-235
-235
-235
-235
-235
-235
-235
-236
-236
-235
-235
-235
-236
-235
-235
-235
-235
-234
-234
-235
-235
-235
-235
-235
-235
-235
-234
-235
-235
-235
-235
-235
-235
-235
-235
-235
-235
-235
-235
-235
-235
-234
-234
-234
-234
-233
-233
-232
-232
-231
-230
-229
-228
-227
-226
-225
-224
-223
-221
-221
-219
-218
-217
-217
-215
-215
-213
-213
-211
-211
-210
-210
-209
-209
-209
-209
-209
-209
-209
-209
-209
-209
-210
-210
-210
-210
-212
-212
-212
-212
-212
-212
-213
-213
-214
-214
-214
-214
-215
-216
-217
-217
-218
-219
-219
-220
-221
-221
-222
-223
-223
-224
-225
-225
-225
-226
-226
-227
-228
-228
-230
-230
-231
-231
-232
-233
-234
-235
-236
-236
-236
-237
-237
-238
-238
-238
-238
-239
-239
-239
-239
-239
-239
-238
-238
-238
-238
-238
-238
-238
-238
-238
-239
-239
-239
-239
-240
-240
-240
-240
-241
-241
-241
-241
-241
-241
-242
-242
-242
-242
-242
-242
-242
-242
-241
-241
-241
-241
-241
-241
-241
-241
-240
-240
-240
-240
-240
-239
-239
-239
-239
-239
-239
-240
-240
-240
-239
-239
-239
-239
-239
-239
-239
-239
-239
-239
-239
-239
-239
-239
-240
-240
-240
-240
-240
-240
-241
-241
-241
-241
-242
-241
-242
-242
-242
-242
-242
-242
-242
-242
-241
-240
-239
-237
-235
-232
-228
-224
-219
-212
-206
-198
-189
-180
-170
-160
-149
-139
-128
-119
-110
-102
-94
-88
-85
-83
-83
-87
-92
-102
-113
-127
-146
-167
-192
-219
-249
-281
-317
-354
-392
-433
-473
-513
-554
-593
-630
-666
-700
-731
-758
-783
-805
-823
-836
-846
-853
-854
-851
-846
-836
-823
-807
-788
-768
-745
-722
-697
-671
-645
-620
-593
-568
-543
-519
-496
-473
-451
-431
-412
-394
-376
-359
-344
-329
-316
-303
-291
-281
-271
-261
-252
-244
-237
-230
-224
-218
-212
-208
-203
-199
-197
-193
-190
-188
-185
-184
-181
-180
-179
-177
-177
-175
-175
-173
-173
-171
-171
-170
-170
-168
-167
-166
-166
-165
-164
-164
-163
-163
-162
-162
-162
-163
-162
-162
-162
-162
-162
-162
-162
-161
-161
-160
-160
-160
-159
-159
-157
-157
-157
-157
-157
-156
-156
-156
-155
-155
-154
-154
-155
-155
-155
-154
-155
-154
-154
-155
-154
-155
-155
-155
-154
-154
-153
-153
-152
-152
-152
-152
-151
-150
-150
-150
-149
-148
-148
-147
-146
-146
-146
-145
-145
-144
-144
-143
-142
-142
-142
-142
-140
-140
-139
-139
-138
-138
-138
-137
-137
-136
-136
-135
-134
-134
-134
-133
-134
-133
-133
-132
-132
-130
-130
-130
-128
-128
-127
-126
-126
-125
-124
-124
-123
-122
-122
-121
-120
-120
-120
-119
-118
-118
-117
-116
-115
-114
-114
-114
-113
-111
-110
-110
-108
-107
-106
-105
-103
-102
-102
-101
-100
-99
-98
-97
-97
-96
-95
-94
-93
-93
-92
-92
-92
-91
-91
-90
-89
-88
-87
-86
-85
-83
-81
-81
-78
-77
-76
-73
-71
-69
-68
-65
-64
-63
-60
-59
-58
-56
-54
-53
-52
-51
-50
-48
-48
-47
-45
-44
-44
-43
-42
-41
-40
-39
-39
-38
-36
-36
-35
-34
-32
-32
-31
-30
-29
-28
-28
-26
-26
-26
-24
-24
-24
-23
-23
-24
-23
-23
-22
-23
-22
-22
-22
-23
-23
-23
-23
-23
-24
-25
-25
-26
-26
-28
-28
-29
-30
-32
-33
-34
-36
-36
-37
-40
-42
-44
-46
-48
-50
-52
-56
-58
-61
-63
-66
-69
-71
-74
-77
-79
-83
-84
-88
-90
-93
-95
-99
-101
-103
-106
-109
-113
-115
-119
-122
-125
-127
-131
-135
-137
-140
-144
-147
-150
-153
-155
-158
-160
-163
-165
-167
-170
-172
-174
-176
-178
-180
-182
-184
-185
-188
-189
-190
-192
-193
-194
-196
-197
-199
-200
-202
-203
-204
-205
-206
-207
-209
-209
-210
-211
-211
-212
-212
-212
-213
-214
-214
-214
-214
-214
-215
-214
-214
-215
-214
-214
-214
-215
-215
-216
-217
-218
-218
-218
-219
-219
-221
-221
-222
-223
-224
-225
-226
-227
-227
-229
-229
-230
-230
-230
-230
-230
-230
-230
-230
-229
-229
-229
-229
-228
-228
-227
-227
-227
-226
-226
-226
-226
-225
-225
-225
-224
-224
-223
-223
-223
-222
-222
-222
-221
-221
-221
-221
-220
-220
-220
-220
-220
-219
-219
-219
-219
-218
-218
-217
-218
-218
-217
-216
-216
-216
-216
-215
-215
-215
-215
-214
-214
-214
-214
-213
-213
-213
-213
-212
-212
-211
-211
-212
-211
-211
-211
-211
-211
-211
-211
-211
-211
-212
-212
-211
-211
-211
-211
-210
-210
-210
-209
-209
-208
-208
-208
-208
-207
-207
-207
-206
-206
-205
-205
-205
-204
-205
-205
-205
-204
-203
-203
-203
-203
-203
-203
-202
-202
-203
-203
-202
-203
-203
-203
-203
-203
-203
-203
-203
-203
-203
-203
-204
-204
-204
-204
-204
-205
-204
-204
-204
-204
-205
-205
-204
-204
-204
-204
-204
-203
-204
-204
-204
-204
-204
-204
-204
-204
-205
-205
-205
-205
-206
-205
-205
-205
-205
-205
-204
-204
-205
-204
-204
-204
-205
-205
-205
-206
-206
-206
-206
-207
-208
-208
-208
-210
-210
-210
-210
-210
-210
-210
-211
-211
-210
-211
-211
-211
-212
-212
-211
-211
-212
-211
-211
-211
-211
-211
-211
-211
-211
-211
-211
-211
-211
-211
-211
-212
-211
-211
-211
-212
-212
-212
-212
-212
-212
-212
-213
-212
-213
-213
-213
-213
-214
-215
-215
-215
-215
-216
-216
-217
-217
-217
-218
-218
-218
-218
-218
-218
-217
-217
-217
-217
-217
-217
-217
-216
-217
-217
-216
-217
-217
-217
-217
-217
-217
-217
-217
-218
-218
-219
-219
-219
-219
-219
-220
-220
-220
-220
-220
-220
-220
-220
-220
-220
-220
-219
-220
-219
-219
-219
-218
-218
-218
-218
-218
-218
-217
-217
-217
-218
-218
-218
-218
-218
-217
-217
-217
-217
-217
-217
-217
-216
-217
-216
-216
-216
-216
-216
-215
-214
-214
-213
-213
-213
-212
-212
-210
-211
-211
-211
-210
-211
-211
-211
-212
-213
-212
-213
-213
-215
-215
-216
-217
-218
-218
-219
-219
-219
-219
-220
-220
-219
-219
-219
-218
-218
-217
-217
-215
-215
-214
-214
-212
-212
-211
-210
-209
-208
-208
-206
-206
-205
-205
-204
-204
-203
-202
-202
-201
-201
-201
-200
-200
-200
-199
-199
-198
-198
-197
-197
-197
-197
-197
-196
-196
-196
-195
-195
-195
-194
-194
-195
-194
-194
-195
-194
-194
-195
-195
-196
-196
-197
-198
-199
-201
-201
-202
-203
-204
-205
-207
-207
-208
-209
-209
-210
-210
-211
-211
-212
-212
-213
-212
-212
-213
-213
-213
-213
-214
-214
-214
-214
-214
-213
-214
-214
-214
-213
-213
-214
-214
-214
-214
-214
-214
-214
-214
-215
-215
-215
-215
-216
-216
-216
-216
-215
-215
-215
-216
-216
-216
-216
-216
-215
-215
-216
-216
-216
-216
-216
-217
-217
-217
-217
-217
-217
-217
-217
-217
-218
-219
-219
-219
-220
-220
-220
-220
-221
-221
-221
-221
-221
-221
-221
-222
-221
-221
-221
-220
-221
-221
-220
-219
-219
-219
-219
-219
-219
-218
-218
-217
-217
-217
-217
-216
-216
-216
-216
-216
-216
-215
-215
-215
-215
-215
-216
-216
-216
-217
-216
-216
-216
-215
-214
-213
-211
-208
-205
-202
-197
-192
-186
-179
-170
-162
-153
-143
-133
-122
-113
-104
-95
-87
-79
-74
-70
-66
-66
-68
-72
-81
-90
-104
-121
-141
-164
-189
-218
-250
-284
-320
-358
-396
-435
-476
-516
-555
-592
-627
-661
-692
-721
-746
-768
-787
-801
-813
-820
-823
-821
-816
-808
-796
-782
-765
-744
-722
-699
-675
-650
-625
-599
-574
-549
-525
-501
-478
-456
-435
-414
-395
-376
-358
-342
-326
-312
-298
-284
-273
-262
-251
-242
-232
-224
-217
-210
-203
-197
-191
-187
-182
-178
-175
-171
-168
-165
-163
-162
-160
-158
-157
-156
-155
-155
-154
-153
-153
-152
-152
-151
-151
-150
-151
-150
-149
-150
-149
-148
-148
-147
-146
-146
-145
-145
-144
-144
-143
-143
-142
-142
-141
-140
-140
-140
-139
-139
-138
-138
-137
-137
-138
-137
-137
-137
-136
-136
-136
-136
-135
-135
-135
-135
-135
-134
-134
-133
-133
-131
-131
-131
-130
-129
-129
-129
-127
-127
-127
-126
-126
-126
-126
-125
-125
-124
-124
-123
-123
-122
-122
-122
-122
-121
-122
-121
-121
-121
-120
-120
-120
-119
-119
-119
-118
-118
-117
-117
-116
-115
-114
-115
-113
-113
-112
-112
-111
-110
-109
-109
-109
-108
-107
-107
-106
-106
-105
-104
-104
-103
-102
-102
-101
-100
-100
-99
-99
-98
-98
-98
-97
-97
-96
-95
-94
-93
-93
-92
-91
-90
-89
-88
-87
-86
-85
-85
-83
-82
-82
-80
-79
-78
-77
-76
-75
-74
-73
-72
-72
-70
-69
-68
-67
-67
-65
-64
-63
-62
-61
-59
-60
-58
-57
-56
-54
-53
-52
-50
-49
-47
-46
-43
-42
-41
-39
-38
-36
-35
-34
-32
-31
-30
-29
-27
-25
-24
-23
-22
-20
-19
-18
-17
-15
-14
-12
-11
-10
-9
-8
-6
-6
-4
-4
-2
-2
-1
-1
0
1
1
1
2
1
1
1
2
2
1
1
1
1
0
0
0
-1
-1
-2
-1
-2
-3
-4
-4
-5
-6
-6
-8
-9
-11
-12
-14
-15
-17
-18
-20
-22
-24
-26
-29
-31
-33
-36
-38
-39
-42
-45
-47
-51
-53
-57
-59
-62
-65
-68
-71
-74
-77
-79
-82
-85
-87
-91
-94
-97
-99
-103
-106
-109
-112
-115
-117
-121
-123
-126
-129
-132
-135
-137
-140
-142
-144
-147
-149
-151
-154
-156
-158
-160
-162
-164
-166
-167
-169
-170
-171
-174
-175
-176
-177
-177
-179
-180
-181
-183
-184
-186
-187
-189
-190
-192
-193
-194
-195
-197
-198
-199
-201
-202
-203
-204
-204
-206
-206
-206
-206
-207
-208
-208
-209
-209
-209
-209
-209
-210
-209
-209
-210
-210
-210
-210
-210
-210
-210
-210
-210
-211
-211
-211
-211
-212
-212
-212
-212
-213
-213
-213
-212
-212
-212
-211
-211
-211
-211
-210
-210
-210
-210
-210
-210
-210
-209
-209
-208
-209
-209
-208
-209
-209
-209
-208
-208
-208
-208
-207
-207
-207
-207
-207
-207
-207
-206
-205
-205
-205
-205
-205
-205
-204
-204
-203
-203
-203
-203
-202
-202
-202
-202
-201
-201
-201
-200
-200
-200
-199
-199
-198
-198
-198
-197
-197
-197
-197
-196
-197
-196
-196
-196
-196
-197
-197
-197
-196
-196
-197
-197
-197
-197
-196
-196
-196
-195
-195
-195
-194
-193
-193
-193
-193
-193
-193
-193
-193
-193
-193
-193
-193
-192
-192
-192
-192
-192
-192
-191
-191
-191
-191
-191
-191
-190
-190
-190
-190
-190
-189
-189
-189
-188
-188
-188
-188
-188
-187
-187
-187
-187
-187
-187
-187
-187
-187
-187
-187
-187
-187
-187
-187
-187
-187
-188
-188
-188
-188
-188
-188
-188
-190
-190
-190
-191
-190
-191
-191
-191
-192
-192
-192
-192
-193
-193
-192
-193
-194
-194
-193
-193
-194
-194
-194
-195
-195
-195
-196
-196
-197
-197
-197
-197
-197
-198
-198
-199
-200
-200
-200
-200
-201
-201
-201
-202
-202
-202
-202
-202
-203
-203
-203
-202
-203
-203
-202
-202
-202
-202
-202
-202
-203
-203
-203
-203
-204
-204
-204
-204
-203
-204
-204
-204
-204
-204
-204
-204
-204
-204
-204
-204
-205
-205
-205
-205
-205
-206
-206
-206
-206
-206
-207
-207
-207
-208
-207
-207
-207
-208
-208
-207
-207
-207
-207
-207
-208
-208
-207
-207
-208
-207
-206
-206
-206
-207
-206
-206
-206
-206
-207
-207
-207
-207
-207
-207
-207
-207
-207
-207
-207
-207
-207
-207
-207
-207
-206
-206
-206
-205
-205
-206
-206
-206
-206
-206
-205
-206
-206
-207
-207
-207
-207
-208
-208
-208
-208
-208
-209
-209
-209
-209
-209
-210
-210
-210
-210
-210
-209
-209
-210
-210
-210
-209
-208
-208
-208
-207
-207
-207
-206
-206
-206
-206
-206
-206
-207
-207
-206
-206
-207
-207
-207
-207
-206
-206
-207
-207
-207
-207
-206
-206
-206
-206
-206
-206
-206
-206
-206
-206
-206
-206
-206
-206
-206
-207
-206
-206
-206
-207
-207
-207
-207
-207
-207
-207
-207
-207
-207
-207
-207
-207
-207
-206
-206
-205
-205
-204
-204
-203
-203
-202
-202
-201
-200
-200
-200
-198
-198
-197
-196
-195
-195
-194
-193
-192
-191
-190
-189
-188
-187
-187
-185
-185
-184
-183
-183
-182
-181
-181
-180
-180
-179
-179
-178
-177
-178
-178
-178
-178
-178
-178
-179
-180
-180
-180
-182
-183
-184
-185
-187
-188
-189
-191
-192
-193
-194
-195
-196
-197
-197
-199
-199
-200
-200
-200
-200
-201
-201
-202
-201
-201
-201
-201
-201
-202
-202
-203
-203
-203
-204
-204
-204
-205
-205
-206
-207
-207
-207
-208
-208
-208
-209
-209
-209
-209
-208
-208
-208
-208
-208
-208
-208
-208
-208
-208
-209
-209
-209
-209
-210
-210
-211
-212
-212
-212
-213
-214
-214
-214
-215
-215
-215
-215
-215
-215
-216
-216
-215
-215
-216
-215
-214
-214
-214
-214
-214
-213
-213
-213
-213
-212
-213
-213
-213
-213
-213
-213
-213
-213
-213
-213
-213
-214
-214
-213
-213
-213
-213
-213
-213
-212
-212
-212
-211
-211
-211
-210
-210
-210
-210
-209
-209
-209
-209
-209
-208
-207
-207
-207
-206
-206
-205
-205
-204
-201
-200
-197
-194
-189
-185
-178
-172
-164
-155
-146
-135
-125
-115
-106
-95
-86
-79
-72
-66
-61
-59
-57
-59
-63
-70
-81
-95
-111
-131
-155
-181
-210
-243
-279
-316
-355
-396
-438
-479
-521
-561
-602
-640
-676
-709
-740
-767
-791
-812
-829
-842
-852
-856
-856
-853
-846
-835
-822
-806
-786
-764
-742
-718
-693
-667
-641
-614
-588
-563
-537
-512
-488
-464
-441
-420
-399
-378
-360
-343
-326
-310
-296
-282
-269
-257
-246
-235
-226
-217
-209
-202
-195
-188
-182
-177
-173
-168
-164
-162
-159
-157
-154
-153
-151
-150
-148
-147
-146
-145
-145
-144
-143
-142
-141
-140
-141
-140
-139
-139
-138
-137
-136
-136
-135
-135
-134
-133
-133
-132
-131
-131
-130
-130
-129
-128
-127
-127
-126
-125
-124
-123
-123
-122
-121
-120
-120
-118
-118
-118
-117
-117
-116
-116
-116
-116
-116
-116
-116
-117
-117
-117
-118
-118
-119
-119
-120
-120
-121
-121
-120
-121
-120
-120
-120
-119
-119
-119
-117
-117
-117
-116
-116
-114
-114
-113
-113
-112
-111
-111
-110
-109
-108
-108
-107
-106
-106
-105
-104
-104
-103
-103
-103
-102
-102
-101
-100
-99
-100
-99
-98
-97
-96
-95
-94
-93
-93
-92
-91
-91
-90
-89
-89
-88
-87
-86
-85
-86
-85
-84
-83
-82
-81
-81
-80
-79
-78
-78
-77
-76
-76
-75
-75
-74
-73
-72
-72
-71
-70
-69
-68
-67
-68
-66
-65
-64
-63
-62
-60
-59
-58
-57
-56
-54
-53
-51
-50
-48
-47
-46
-45
-43
-42
-41
-39
-37
-36
-35
-34
-33
-30
-29
-28
-27
-26
-25
-23
-21
-19
-18
-16
-15
-13
-11
-9
-8
-5
-3
-2
0
2
3
4
6
6
7
8
9
10
11
12
13
14
14
14
15
16
16
16
17
17
18
18
18
20
19
20
21
21
22
23
23
23
23
23
23
22
22
21
21
20
19
18
17
16
14
13
11
10
9
7
6
4
2
0
-2
-4
-5
-8
-9
-12
-14
-16
-19
-21
-23
-26
-29
-32
-34
-36
-40
-42
-44
-47
-50
-53
-56
-59
-62
-66
-69
-72
-75
-78
-83
-85
-88
-92
-95
-98
-101
-104
-107
-110
-113
-116
-119
-122
-125
-127
-130
-133
-135
-138
-140
-142
-145
-146
-148
-151
-152
-154
-156
-157
-158
-160
-161
-163
-164
-164
-166
-167
-168
-169
-171
-172
-173
-174
-176
-177
-178
-180
-180
-182
-183
-184
-186
-188
-189
-190
-192
-193
-193
-194
-196
-196
-196
-196
-197
-197
-197
-196
-197
-197
-197
-197
-196
-197
-197
-197
-196
-197
-197
-197
-197
-197
-197
-198
-199
-199
-199
-199
-199
-199
-200
-200
-200
-200
-200
-200
-202
-202
-202
-202
-203
-203
-203
-203
-203
-203
-202
-203
-203
-203
-203
-203
-203
-202
-202
-203
-202
-202
-202
-202
-202
-202
-202
-201
-201
-201
-200
-199
-199
-199
-198
-198
-198
-198
-197
-197
-197
-198
-197
-197
-197
-197
-197
-197
-197
-197
-196
-196
-196
-196
-196
-195
-195
-195
-196
-196
-195
-195
-195
-195
-195
-193
-193
-192
-191
-191
-190
-190
-188
-188
-187
-187
-186
-186
-185
-185
-185
-185
-184
-184
-185
-185
-185
-186
-186
-186
-187
-187
-188
-188
-189
-189
-190
-190
-191
-191
-191
-191
-191
-191
-192
-191
-190
-190
-190
-190
-189
-189
-189
-189
-187
-187
-187
-187
-187
-187
-187
-186
-186
-186
-187
-187
-187
-186
-186
-186
-186
-186
-186
-186
-187
-187
-186
-187
-187
-187
-187
-188
-188
-187
-188
-188
-188
-188
-188
-189
-189
-189
-189
-189
-189
-189
-189
-190
-190
-190
-191
-191
-191
-192
-192
-192
-192
-192
-192
-192
-192
-192
-192
-192
-193
-193
-194
-193
-193
-193
-194
-194
-194
-195
-194
-195
-195
-195
-194
-195
-194
-195
-195
-195
-195
-195
-195
-194
-195
-195
-195
-195
-196
-195
-195
-196
-196
-196
-196
-196
-196
-196
-197
-197
-197
-198
-198
-198
-198
-200
-200
-200
-200
-201
-201
-202
-202
-203
-204
-204
-204
-204
-205
-206
-205
-205
-206
-206
-206
-207
-206
-206
-206
-206
-206
-206
-206
-206
-205
-205
-205
-205
-205
-205
-205
-204
-204
-204
-204
-204
-204
-204
-204
-204
-205
-205
-205
-205
-205
-205
-206
-206
-206
-206
-205
-205
-205
-206
-206
-206
-206
-206
-206
-206
-206
-205
-204
-204
-203
-203
-202
-202
-201
-200
-199
-199
-197
-197
-195
-195
-194
-193
-192
-191
-191
-189
-189
-188
-186
-186
-186
-185
-184
-184
-183
-182
-182
-182
-181
-181
-181
-181
-181
-181
-181
-180
-179
-179
-179
-180
-179
-179
-179
-180
-180
-181
-181
-182
-183
-184
-184
-186
-188
-188
-191
-192
-193
-194
-196
-197
-198
-200
-200
-201
-201
-202
-203
-203
-204
-204
-205
-205
-206
-206
-206
-207
-207
-207
-207
-207
-208
-208
-208
-208
-209
-209
-209
-209
-209
-210
-210
-209
-209
-210
-210
-210
-210
-210
-210
-210
-210
-210
-210
-210
-210
-210
-211
-211
-210
-210
-211
-211
-212
-212
-212
-213
-213
-213
-213
-213
-213
-212
-212
-213
-213
-212
-212
-212
-212
-211
-211
-211
-211
-211
-211
-210
-210
-210
-210
-209
-209
-208
-209
-209
-208
-209
-209
-209
-209
-209
-209
-209
-209
-209
-210
-210
-210
-210
-210
-210
-210
-209
-210
-209
-210
-210
-210
-210
-211
-211
-210
-211
-211
-211
-211
-211
-212
-211
-211
-211
-210
-209
-207
-205
-203
-199
-196
-191
-185
-179
-171
-163
-154
-143
-133
-121
-110
-99
-89
-80
-70
-63
-56
-51
-48
-47
-49
-53
-61
-72
-86
-104
-125
-150
-178
-209
-242
-278
-317
-357
-399
-442
-484
-527
-568
-608
-646
-683
-717
-747
-775
-799
-820
-837
-850
-859
-863
-863
-860
-853
-842
-828
-812
-792
-771
-747
-723
-698
-671
-645
-618
-591
-565
-540
-515
-489
-465
-442
-420
-398
-377
-358
-340
-323
-306
-292
-278
-264
-252
-240
-230
-220
-212
-203
-196
-189
-183
-177
-172
-167
-163
-159
-157
-154
-152
-150
-147
-146
-144
-143
-142
-142
-141
-140
-139
-139
-139
-138
-137
-136
-136
-136
-135
-134
-133
-133
-132
-132
-131
-131
-130
-130
-129
-129
-128
-127
-127
-127
-127
-126
-125
-125
-124
-123
-124
-123
-123
-122
-122
-122
-121
-121
-121
-120
-120
-119
-119
-119
-118
-118
-117
-116
-116
-116
-115
-114
-114
-114
-114
-112
-112
-111
-110
-110
-109
-108
-107
-106
-106
-104
-104
-103
-101
-101
-100
-100
-100
-99
-99
-98
-98
-98
-97
-97
-97
-97
-97
-97
-96
-96
-96
-96
-96
-95
-95
-95
-94
-94
-93
-93
-93
-93
-92
-92
-90
-90
-89
-89
-88
-88
-87
-86
-85
-84
-83
-82
-82
-80
-79
-79
-78
-77
-76
-75
-74
-73
-72
-71
-70
-69
-68
-67
-66
-65
-64
-63
-63
-62
-60
-59
-58
-58
-57
-56
-54
-53
-52
-51
-50
-49
-47
-46
-45
-44
-42
-41
-40
-39
-38
-36
-34
-33
-32
-31
-30
-29
-26
-25
-23
-22
-21
-18
-17
-16
-15
-12
-11
-10
-9
-7
-5
-4
-3
0
0
2
4
5
7
8
10
12
13
14
16
18
19
19
20
21
23
24
24
25
25
26
27
28
28
29
30
30
31
31
32
32
33
33
33
34
34
34
34
34
34
33
34
33
33
32
32
31
30
29
28
27
26
24
24
22
20
19
18
17
15
14
12
10
9
7
5
3
2
0
-2
-5
-7
-10
-13
-15
-18
-21
-24
-27
-31
-34
-37
-40
-43
-46
-48
-52
-55
-58
-62
-64
-68
-71
-74
-77
-80
-83
-86
-89
-92
-94
-97
-99
-102
-104
-107
-109
-112
-114
-115
-118
-121
-123
-126
-128
-130
-131
-134
-136
-138
-141
-142
-144
-146
-148
-150
-151
-153
-155
-156
-158
-159
-161
-162
-164
-165
-166
-168
-168
-169
-170
-170
-171
-172
-172
-172
-173
-173
-173
-173
-174
-174
-175
-175
-175
-176
-176
-176
-177
-178
-178
-178
-179
-180
-180
-181
-181
-181
-181
-182
-182
-183
-183
-183
-183
-184
-184
-184
-183
-184
-184
-183
-183
-183
-183
-182
-182
-182
-182
-181
-181
-181
-180
-180
-180
-181
-181
-181
-180
-181
-181
-181
-181
-181
-181
-181
-181
-181
-180
-181
-181
-181
-181
-181
-180
-180
-180
-180
-180
-180
-180
-180
-179
-179
-179
-179
-179
-179
-179
-179
-179
-179
-179
-179
-179
-179
-179
-179
-179
-178
-178
-177
-177
-176
-176
-175
-175
-174
-174
-173
-173
-173
-172
-171
-171
-171
-171
-171
-172
-172
-172
-172
-171
-171
-171
-172
-172
-172
-172
-171
-171
-171
-171
-171
-171
-171
-171
-171
-170
-170
-170
-170
-170
-169
-169
-169
-168
-168
-168
-167
-167
-167
-167
-167
-166
-166
-166
-166
-166
-166
-165
-165
-166
-165
-165
-166
-166
-166
-166
-165
-165
-167
-167
-166
-166
-168
-167
-167
-168
-168
-168
-168
-168
-168
-168
-169
-169
-168
-168
-167
-167
-168
-168
-168
-167
-168
-169
-169
-169
-169
-169
-170
-170
-170
-170
-170
-172
-172
-172
-172
-172
-172
-172
-172
-173
-173
-174
-174
-174
-174
-174
-174
-174
-174
-174
-175
-175
-175
-175
-175
-175
-175
-174
-175
-175
-176
-176
-177
-176
-176
-177
-177
-177
-177
-177
-177
-177
-177
-178
-178
-178
-178
-178
-178
-178
-178
-179
-179
-179
-178
-178
-178
-179
-178
-178
-178
-177
-177
-176
-176
-176
-177
-176
-176
-175
-176
-176
-175
-176
-176
-176
-175
-175
-174
-174
-174
-173
-173
-173
-172
-171
-171
-171
-169
-168
-168
-167
-166
-165
-164
-163
-163
-161
-160
-159
-159
-158
-158
-157
-157
-156
-156
-155
-155
-155
-155
-156
-156
-156
-157
-156
-157
-157
-158
-159
-160
-161
-160
-161
-162
-163
-165
-165
-166
-168
-168
-169
-170
-171
-172
-173
-174
-174
-175
-175
-175
-177
-177
-178
-178
-179
-179
-179
-180
-181
-181
-181
-182
-182
-182
-182
-183
-182
-183
-183
-183
-183
-183
-183
-183
-183
-183
-183
-183
-183
-183
-183
-183
-183
-184
-184
-184
-184
-184
-184
-184
-185
-185
-185
-186
-186
-186
-186
-187
-187
-188
-188
-188
-189
-189
-189
-189
-189
-189
-189
-189
-188
-188
-188
-187
-187
-186
-186
-186
-186
-186
-185
-185
-185
-185
-185
-185
-186
-186
-186
-186
-186
-187
-187
-186
-188
-188
-188
-188
-188
-188
-188
-187
-187
-188
-186
-186
-186
-185
-184
-184
-183
-183
-181
-181
-181
-181
-181
-181
-181
-181
-181
-181
-181
-181
-181
-182
-182
-181
-180
-179
-177
-175
-171
-167
-162
-156
-150
-142
-134
-125
-115
-105
-94
-85
-74
-64
-56
-48
-41
-35
-32
-30
-30
-33
-39
-46
-59
-74
-91
-112
-136
-163
-193
-225
-260
-297
-335
-374
-415
-454
-494
-532
-570
-606
-638
-669
-697
-722
-744
-763
-777
-787
-795
-797
-796
-790
-781
-770
-755
-738
-718
-696
-673
-648
-623
-598
-571
-547
-521
-496
-472
-448
-425
-404
-383
-363
-344
-325
-308
-293
-277
-264
-250
-238
-227
-216
-206
-197
-189
-181
-173
-167
-160
-155
-150
-145
-141
-138
-135
-132
-130
-129
-127
-126
-125
-125
-124
-123
-124
-123
-124
-123
-123
-123
-123
-123
-122
-122
-122
-121
-121
-120
-120
-119
-119
-118
-117
-116
-116
-116
-115
-114
-114
-113
-112
-111
-110
-110
-110
-108
-108
-107
-107
-106
-105
-105
-105
-104
-104
-104
-103
-102
-102
-102
-102
-102
-102
-101
-101
-101
-101
-100
-100
-100
-100
-100
-100
-99
-98
-98
-98
-97
-97
-96
-96
-95
-95
-94
-94
-93
-93
-92
-92
-91
-91
-90
-90
-90
-90
-90
-90
-88
-88
-88
-88
-88
-88
-87
-87
-86
-85
-85
-85
-84
-84
-83
-82
-82
-81
-80
-79
-79
-78
-78
-77
-76
-75
-74
-75
-74
-73
-72
-72
-71
-70
-70
-69
-69
-68
-68
-68
-67
-67
-65
-65
-64
-63
-62
-62
-60
-59
-58
-57
-56
-55
-54
-53
-52
-51
-51
-51
-50
-49
-48
-48
-47
-46
-45
-44
-43
-41
-40
-40
-39
-38
-37
-35
-34
-34
-32
-31
-30
-28
-27
-26
-25
-24
-22
-21
-19
-18
-17
-15
-14
-13
-11
-10
-9
-8
-6
-5
-3
-2
-1
1
2
4
6
7
9
10
12
13
15
16
17
18
19
20
21
21
22
23
23
24
24
24
26
26
26
26
26
27
27
28
28
28
28
27
28
28
27
27
27
27
27
26
26
25
25
25
24
23
22
21
21
19
19
17
16
15
13
11
9
7
5
4
2
-1
-3
-5
-7
-10
-13
-15
-18
-20
-23
-26
-28
-31
-33
-35
-38
-40
-43
-45
-49
-51
-54
-56
-58
-62
-64
-67
-69
-72
-75
-78
-80
-83
-85
-88
-91
-94
-96
-99
-102
-104
-106
-109
-112
-113
-116
-118
-121
-123
-125
-128
-129
-132
-134
-136
-137
-140
-141
-143
-144
-145
-147
-148
-149
-151
-151
-153
-154
-155
-156
-156
-157
-158
-159
-160
-161
-161
-161
-162
-163
-163
-164
-164
-164
-165
-165
-165
-165
-165
-166
-166
-166
-166
-165
-166
-166
-166
-166
-166
-166
-166
-166
-166
-166
-166
-166
-166
-167
-166
-166
-166
-166
-167
-168
-167
-167
-167
-168
-167
-167
-168
-167
-168
-168
-167
-167
-168
-168
-167
-167
-167
-167
-167
-167
-167
-167
-166
-166
-166
-165
-165
-165
-164
-164
-163
-164
-164
-164
-164
-163
-163
-162
-162
-162
-162
-162
-162
-162
-161
-161
-161
-160
-161
-160
-160
-159
-159
-159
-159
-157
-157
-157
-157
-157
-157
-157
-157
-157
-156
-156
-156
-155
-155
-155
-155
-154
-155
-155
-154
-154
-154
-154
-154
-154
-154
-153
-153
-153
-152
-152
-151
-150
-150
-150
-150
-150
-149
-149
-149
-149
-150
-151
-151
-151
-152
-152
-153
-154
-154
-154
-154
-155
-155
-155
-155
-155
-155
-155
-155
-155
-154
-155
-155
-155
-155
-155
-155
-154
-154
-154
-154
-154
-154
-154
-154
-154
-154
-155
-155
-154
-155
-155
-156
-155
-156
-156
-157
-157
-157
-157
-157
-157
-157
-157
-158
-158
-158
-158
-159
-159
-159
-159
-159
-159
-160
-159
-159
-159
-159
-160
-160
-160
-160
-160
-160
-160
-160
-161
-161
-161
-162
-162
-162
-162
-163
-163
-164
-164
-164
-164
-164
-164
-164
-164
-164
-164
-164
-165
-165
-165
-164
-165
-165
-165
-165
-166
-166
-166
-166
-166
-166
-166
-167
-167
-168
-168
-168
-169
-170
-170
-170
-170
-170
-170
-171
-170
-170
-170
-170
-170
-169
-168
-168
-168
-167
-168
-167
-167
-167
-167
-167
-167
-168
-168
-168
-168
-168
-168
-168
-169
-169
-169
-170
-170
-170
-171
-171
-171
-171
-171
-171
-171
-171
-171
-171
-170
-170
-170
-170
-168
-168
-168
-167
-166
-166
-165
-165
-164
-164
-163
-163
-162
-161
-160
-159
-158
-157
-156
-154
-154
-152
-152
-151
-150
-150
-150
-149
-149
-149
-149
-149
-150
-151
-151
-152
-153
-155
-155
-156
-157
-158
-160
-161
-161
-162
-163
-164
-164
-165
-165
-166
-167
-167
-168
-169
-169
-170
-170
-171
-171
-171
-172
-172
-173
-173
-173
-173
-174
-174
-174
-175
-175
-177
-176
-177
-177
-177
-178
-177
-178
-177
-178
-177
-178
-177
-177
-177
-177
-177
-176
-176
-176
-176
-176
-176
-177
-177
-177
-177
-177
-177
-178
-177
-178
-178
-179
-179
-179
-179
-179
-179
-180
-180
-179
-179
-179
-179
-179
-179
-179
-179
-179
-179
-179
-180
-179
-179
-179
-181
-181
-181
-181
-182
-183
-183
-183
-184
-184
-184
-184
-184
-184
-184
-183
-183
-183
-183
-182
-182
-182
-181
-181
-181
-181
-181
-180
-180
-180
-180
-180
-180
-180
-179
-179
-179
-180
-180
-180
-180
-180
-180
-181
-180
-180
-181
-181
-181
-180
-179
-179
-178
-177
-176
-174
-172
-170
-166
-163
-158
-153
-146
-139
-131
-123
-114
-103
-94
-84
-74
-65
-57
-49
-43
-37
-33
-30
-31
-34
-39
-46
-57
-71
-89
-109
-132
-159
-188
-220
-254
-290
-328
-366
-405
-444
-484
-522
-558
-593
-625
-655
-682
-705
-725
-743
-757
-767
-774
-775
-773
-767
-759
-746
-731
-713
-693
-670
-648
-624
-598
-573
-547
-523
-498
-473
-449
-426
-404
-382
-362
-342
-324
-306
