# Simple Text Format
# Sampling Rate (Hz):= 1200.00
# Resolution:= 12
# Labels:= ECG	aVR
# Age:=	26
# Gender:=	Masculino
54
54
54
53
52
52
52
52
51
51
50
50
50
50
50
50
50
49
50
50
50
50
51
51
51
50
50
50
50
50
50
49
49
48
48
48
47
47
47
46
45
45
43
43
43
42
41
41
40
40
39
39
38
38
38
38
38
38
39
39
39
40
40
40
40
40
40
39
39
39
39
38
38
38
38
38
38
38
38
37
37
37
37
37
37
38
38
38
38
38
38
38
39
38
39
39
39
39
40
40
39
39
38
38
37
37
36
35
34
33
33
33
32
32
31
31
30
30
30
29
29
29
29
29
28
27
27
26
26
25
25
25
24
24
22
22
21
21
20
19
18
16
15
14
13
11
10
9
9
8
7
6
5
4
3
3
2
1
1
0
0
-2
-2
-3
-4
-5
-6
-7
-8
-8
-9
-10
-11
-11
-11
-12
-12
-12
-13
-13
-12
-12
-12
-12
-12
-12
-13
-13
-14
-15
-15
-17
-18
-19
-20
-21
-23
-24
-25
-27
-29
-30
-32
-34
-35
-37
-38
-40
-40
-42
-43
-44
-46
-47
-47
-49
-50
-50
-50
-50
-50
-51
-51
-51
-51
-50
-50
-50
-50
-49
-49
-50
-49
-49
-49
-49
-48
-48
-49
-49
-49
-49
-49
-50
-49
-49
-49
-50
-50
-49
-48
-48
-48
-47
-46
-45
-43
-42
-40
-38
-37
-36
-34
-32
-29
-27
-25
-23
-21
-17
-15
-13
-11
-9
-6
-3
-1
1
4
6
7
9
11
13
14
17
18
20
22
23
25
26
29
30
32
34
36
38
39
41
42
44
45
46
47
49
50
50
51
51
52
52
51
52
52
52
52
53
53
54
54
55
55
56
56
56
56
56
56
56
56
57
57
57
57
57
56
56
57
56
56
56
56
56
56
56
56
56
56
56
57
57
57
57
57
58
58
59
59
59
59
59
59
58
58
57
56
56
55
56
55
55
55
55
55
56
57
57
58
59
59
60
61
61
62
62
62
64
64
64
64
64
64
64
65
65
65
64
65
65
65
66
66
66
66
66
67
67
67
67
67
66
66
66
66
65
65
65
66
65
65
64
64
64
64
64
64
64
64
64
63
63
63
63
63
63
63
63
63
63
63
62
62
62
62
62
62
63
62
62
62
62
62
62
62
62
61
61
61
60
61
59
59
58
59
58
57
56
56
55
55
55
55
56
56
56
57
57
59
60
61
62
63
64
65
65
66
67
67
67
68
68
68
68
68
69
69
69
69
68
70
69
69
69
69
69
69
70
70
71
71
71
71
71
71
72
72
72
71
72
71
72
72
72
71
71
71
70
70
69
69
68
68
68
67
67
67
66
66
66
65
65
65
65
64
64
65
64
64
64
64
64
64
64
64
64
65
65
64
65
65
65
66
66
66
66
66
66
67
67
67
66
66
66
67
67
67
67
68
68
67
68
68
68
68
68
68
67
68
67
67
66
65
64
64
63
62
62
61
60
60
60
59
59
59
59
59
59
60
60
61
61
63
64
65
65
67
68
70
71
72
73
73
74
74
74
75
75
75
75
75
75
74
74
73
73
72
71
71
70
70
69
69
68
67
67
66
66
65
65
65
66
66
66
66
66
66
67
68
69
69
70
71
72
72
72
73
74
74
74
74
74
73
73
73
73
73
73
74
74
74
74
74
73
73
72
72
71
71
71
71
70
70
69
69
70
70
69
69
69
69
70
70
70
71
71
71
71
71
71
72
71
71
71
71
70
70
70
70
69
68
68
68
67
66
65
64
65
64
63
63
63
62
61
61
61
60
61
61
61
62
62
61
62
63
63
64
64
64
65
66
67
67
67
68
69
69
70
72
72
73
74
74
75
75
75
75
75
75
75
75
75
74
74
74
74
73
73
73
73
73
72
71
71
72
71
71
71
70
70
70
70
70
70
70
70
70
70
71
71
71
71
71
71
71
71
70
70
70
69
70
70
69
69
69
70
70
70
71
71
70
70
69
69
69
69
68
67
67
66
66
65
64
63
63
62
61
61
60
59
59
59
58
58
57
57
58
57
56
56
56
55
56
55
55
55
54
52
52
51
50
48
47
46
44
42
40
38
37
36
35
35
34
34
34
34
34
34
35
36
38
40
42
44
46
47
49
50
52
53
54
55
56
56
57
58
58
59
60
59
59
60
59
59
59
60
60
60
60
60
60
61
61
61
61
62
62
63
63
65
65
66
66
66
67
67
67
67
67
66
66
66
66
66
66
66
66
66
67
67
67
67
67
68
68
69
70
70
71
71
72
73
73
73
74
74
74
74
74
74
73
73
73
72
71
71
70
70
69
70
70
70
70
70
71
71
72
73
74
74
75
76
76
77
77
78
78
79
78
78
78
77
75
74
74
73
72
70
70
70
69
69
69
69
69
68
68
69
70
70
71
72
73
74
75
76
77
78
78
78
78
77
76
75
73
70
67
64
60
56
50
45
39
33
26
21
13
6
-1
-10
-18
-27
-35
-45
-55
-63
-73
-82
-91
-98
-107
-113
-121
-127
-132
-137
-140
-143
-144
-144
-143
-140
-136
-131
-124
-117
-109
-99
-89
-79
-68
-56
-45
-34
-21
-12
0
10
21
30
39
47
53
59
64
67
71
73
74
76
76
76
76
75
74
72
70
68
66
64
62
60
58
56
54
52
51
51
49
49
49
48
48
49
49
50
52
53
55
56
58
60
61
62
63
64
66
66
66
66
66
66
66
65
64
63
62
61
59
57
56
55
54
53
53
52
52
51
51
51
52
52
53
53
54
55
56
57
58
59
60
61
62
62
62
62
62
62
62
62
62
61
60
60
59
59
59
59
59
58
58
58
57
56
57
57
56
56
55
55
55
54
55
55
54
54
54
54
54
54
53
53
53
52
52
52
51
51
51
50
50
50
49
49
49
48
48
48
49
49
49
48
48
48
48
47
47
46
45
45
44
43
42
41
40
40
39
36
35
34
32
31
30
29
28
27
27
26
26
26
26
26
26
27
28
28
29
30
30
31
32
32
33
33
32
32
31
30
29
28
26
25
24
23
22
22
22
21
20
20
20
20
20
20
20
20
20
20
20
19
19
19
19
18
18
18
16
15
15
14
13
13
11
11
10
9
8
7
5
4
3
2
0
-1
-2
-3
-4
-5
-6
-7
-8
-9
-10
-12
-13
-14
-15
-16
-17
-18
-19
-20
-21
-22
-23
-24
-25
-25
-26
-28
-29
-30
-31
-32
-34
-36
-38
-40
-41
-43
-45
-47
-49
-51
-53
-54
-55
-56
-56
-57
-57
-58
-59
-59
-59
-58
-57
-57
-57
-57
-56
-55
-55
-55
-54
-53
-53
-51
-50
-48
-47
-46
-45
-44
-44
-42
-40
-39
-37
-36
-34
-32
-29
-28
-26
-24
-24
-22
-20
-18
-17
-14
-13
-11
-10
-9
-6
-5
-4
-2
0
1
3
5
6
7
9
10
12
13
15
16
17
17
19
19
20
21
22
23
24
25
26
28
29
30
31
32
33
35
37
37
39
40
41
43
44
45
45
46
46
46
46
46
46
46
46
47
46
47
47
48
49
49
50
50
51
52
53
54
55
56
59
60
60
61
63
64
65
66
66
67
67
67
67
66
66
65
64
63
63
62
62
61
61
61
61
61
61
61
61
61
62
62
62
62
62
61
62
62
62
62
62
61
61
62
61
61
61
60
60
60
61
61
60
60
59
59
58
58
58
58
58
58
58
58
58
57
58
58
58
59
59
59
60
60
61
61
61
61
62
62
63
63
63
63
64
65
64
65
65
65
65
65
66
65
65
65
65
66
66
65
66
65
65
65
65
65
66
66
65
65
64
64
64
63
63
63
62
61
61
60
60
59
59
59
59
59
60
60
60
60
61
61
61
62
63
63
63
63
62
62
61
61
61
60
60
60
60
60
60
60
60
60
60
60
59
59
59
60
60
61
61
62
63
63
64
64
64
65
66
66
66
67
68
68
68
68
68
68
69
68
68
68
68
68
68
68
68
68
68
68
67
67
67
67
66
66
65
65
65
65
65
65
65
65
65
66
66
66
66
66
67
66
66
66
65
65
65
64
64
64
63
63
63
63
62
62
60
60
60
60
60
59
59
59
60
60
59
59
59
59
59
60
60
60
61
61
61
62
62
63
64
65
65
65
65
66
67
67
67
67
67
67
67
67
67
67
67
67
67
65
65
65
64
64
64
63
62
61
61
60
59
59
59
59
59
59
59
58
58
58
59
59
59
59
59
60
60
61
61
61
61
61
62
63
62
63
64
64
64
65
66
66
67
66
66
68
68
68
68
68
68
68
68
68
68
68
68
68
68
67
67
67
66
65
65
65
64
64
64
63
63
63
63
63
64
63
63
63
63
64
65
65
65
66
66
66
65
65
66
66
66
66
66
66
66
67
66
66
66
66
66
66
66
66
66
67
66
66
67
66
66
66
67
67
67
67
66
66
66
67
67
67
67
67
67
67
66
66
66
65
65
64
64
63
63
63
62
62
61
60
60
59
58
57
56
54
54
53
52
50
49
48
48
47
46
46
46
46
46
46
47
47
46
46
46
46
46
47
47
47
47
47
47
47
47
47
47
46
47
46
46
45
45
44
44
44
44
44
44
43
43
43
44
43
44
44
45
45
45
45
45
46
46
46
47
47
47
47
47
47
47
48
49
49
50
50
51
51
52
52
53
54
55
55
55
56
56
56
57
57
56
56
58
58
58
59
60
61
61
62
62
63
64
65
66
68
68
69
70
71
72
73
73
74
74
75
75
75
75
75
75
75
74
74
73
73
72
71
71
70
70
69
69
70
70
70
70
71
71
71
72
72
72
72
72
73
73
73
73
73
72
72
72
72
72
72
72
72
72
72
72
72
71
71
70
71
70
70
71
70
70
70
70
70
70
71
71
72
73
73
73
73
73
71
70
69
68
67
65
62
60
57
53
50
45
41
35
29
23
16
9
1
-9
-17
-26
-36
-46
-57
-67
-77
-88
-98
-108
-117
-126
-135
-142
-149
-154
-159
-163
-164
-165
-163
-162
-157
-153
-146
-137
-128
-118
-107
-95
-83
-69
-56
-43
-30
-17
-7
5
16
26
35
43
50
55
59
63
66
67
68
69
68
68
67
65
63
61
60
58
57
55
54
53
51
51
50
49
49
49
49
49
49
50
50
51
52
52
53
54
54
55
55
55
56
56
56
57
57
56
56
57
57
57
57
57
57
57
57
57
57
57
57
56
56
56
56
56
55
55
54
54
54
53
53
52
52
52
52
52
52
52
52
52
52
51
51
51
51
51
52
51
52
52
52
52
52
52
53
53
53
53
52
52
52
51
50
50
49
48
47
47
46
45
44
44
43
42
42
41
41
41
40
40
40
39
39
39
39
40
40
41
41
42
43
43
43
43
44
44
44
44
44
42
42
42
42
40
39
40
39
37
37
37
36
37
36
36
36
36
36
35
35
34
33
32
31
31
31
30
30
30
29
29
29
27
27
26
26
26
25
25
25
25
25
25
24
23
23
23
23
23
22
23
23
23
22
22
22
22
22
22
22
22
22
21
21
20
19
18
17
17
16
15
14
13
12
12
10
9
8
7
6
4
3
1
0
-1
-2
-3
-4
-6
-7
-8
-9
-9
-10
-11
-11
-13
-14
-15
-16
-17
-18
-19
-20
-21
-23
-24
-25
-26
-27
-28
-29
-30
-31
-32
-33
-34
-35
-37
-38
-38
-39
-40
-40
-41
-41
-42
-43
-44
-44
-44
-44
-44
-46
-46
-47
-47
-48
-48
-49
-49
-50
-51
-52
-53
-53
-54
-55
-55
-56
-56
-56
-56
-55
-55
-55
-54
-53
-53
-51
-49
-48
-47
-45
-44
-42
-40
-38
-36
-34
-32
-31
-28
-26
-25
-22
-20
-18
-16
-15
-12
-11
-9
-7
-6
-4
-3
-1
0
3
4
6
8
9
11
12
14
15
18
19
20
21
23
23
24
25
26
27
28
30
32
33
35
36
38
40
41
43
44
46
48
49
51
53
55
56
58
59
60
61
61
62
63
63
63
63
63
63
63
62
62
61
62
62
63
63
63
64
64
65
66
66
67
68
70
71
71
72
73
74
75
75
75
75
75
75
75
75
75
74
74
74
73
73
72
72
71
71
71
70
70
69
69
69
69
68
67
67
67
66
66
67
66
66
67
67
67
67
68
68
68
68
69
69
69
69
69
68
68
68
68
67
67
66
66
65
64
64
65
65
64
64
64
64
65
65
65
66
67
68
69
71
72
73
74
75
76
76
76
75
75
74
73
72
71
70
68
67
66
65
65
65
64
64
64
65
65
66
67
68
69
71
72
74
76
77
78
80
81
81
82
83
84
84
84
85
84
83
83
82
83
82
81
80
80
79
79
78
78
78
77
77
77
77
77
77
77
77
77
77
77
77
76
76
76
76
76
76
76
75
74
74
75
75
74
74
73
73
72
72
71
71
70
70
70
70
70
70
70
70
71
71
72
72
72
73
73
73
73
73
72
72
72
71
70
69
70
69
69
68
68
68
69
69
70
71
72
73
75
76
77
78
79
80
81
82
82
83
83
84
84
84
83
83
83
83
82
82
82
81
81
80
79
79
78
79
78
78
78
78
78
78
78
78
78
77
77
77
77
77
77
77
77
77
77
76
76
76
76
76
75
76
76
76
76
76
76
76
76
76
76
75
75
74
74
75
75
74
74
74
73
73
72
72
71
71
70
70
69
69
68
68
68
68
68
68
68
69
69
69
70
71
72
73
74
75
76
77
77
78
78
79
80
80
78
78
78
77
76
74
73
72
71
70
69
69
68
68
68
68
68
68
68
69
70
70
71
72
73
75
76
76
78
79
80
81
81
82
82
81
81
81
80
80
79
78
77
76
75
75
74
74
74
73
72
72
71
70
70
69
68
67
66
65
65
65
64
63
62
62
61
61
61
60
60
60
60
59
59
58
58
57
56
56
55
55
55
54
53
52
52
51
51
51
50
50
50
50
50
50
50
50
50
51
51
52
52
53
52
53
54
55
55
56
57
57
57
58
58
58
58
58
58
58
57
57
57
57
57
57
57
57
57
57
58
57
58
59
61
62
63
64
64
67
68
69
70
72
74
76
77
79
80
82
82
83
84
84
85
85
84
84
83
83
82
82
81
81
80
80
79
79
79
78
77
77
77
77
76
76
77
77
77
77
78
78
78
78
79
80
80
81
82
83
83
83
83
83
84
84
84
84
83
83
83
82
83
82
82
82
81
81
81
81
81
80
80
80
79
79
78
77
76
75
74
73
73
73
72
72
71
71
71
71
71
71
71
71
71
71
69
69
68
67
65
63
60
57
54
50
45
40
34
27
20
12
4
-5
-14
-24
-34
-44
-53
-63
-72
-83
-92
-101
-109
-116
-123
-128
-132
-135
-136
-137
-135
-132
-128
-122
-115
-107
-97
-88
-76
-65
-51
-39
-26
-15
-3
10
21
31
42
51
60
66
73
77
81
84
86
86
86
85
84
82
80
78
75
72
70
68
66
65
64
63
62
61
61
60
59
60
61
61
62
63
65
66
67
68
69
70
70
71
71
71
71
71
71
70
70
69
69
69
68
68
67
67
67
67
66
66
66
65
65
65
64
64
63
63
62
61
61
61
60
60
59
59
59
60
60
61
61
61
62
62
62
63
63
63
63
63
63
63
63
63
62
61
61
61
60
60
59
59
58
58
57
56
56
55
54
54
54
54
55
55
56
56
56
57
57
58
58
57
57
57
56
56
55
55
54
53
52
51
50
49
48
47
47
46
47
47
47
47
48
47
48
49
49
50
50
50
51
51
51
52
52
52
51
51
51
51
50
50
49
49
48
47
46
46
44
44
43
42
42
41
39
39
38
37
37
36
35
33
33
32
31
30
30
30
29
28
28
28
27
27
27
27
26
26
25
25
25
25
25
24
23
22
20
19
19
16
15
14
13
12
11
10
10
8
7
7
7
6
6
6
6
7
7
6
5
5
5
5
5
4
4
3
3
2
1
0
-3
-4
-6
-8
-10
-13
-15
-17
-20
-23
-25
-27
-29
-30
-31
-32
-33
-34
-34
-34
-34
-34
-35
-35
-35
-35
-34
-34
-34
-34
-33
-33
-33
-34
-34
-35
-35
-36
-36
-36
-37
-38
-38
-39
-40
-41
-41
-41
-42
-43
-44
-44
-44
-45
-45
-46
-46
-46
-45
-45
-44
-43
-43
-42
-40
-40
-39
-38
-37
-36
-33
-31
-30
-28
-26
-24
-21
-19
-17
-15
-14
-12
-10
-7
-5
-4
-1
0
2
4
6
7
8
10
12
13
14
16
17
18
19
21
22
24
25
26
28
30
32
33
35
36
38
40
42
45
46
49
51
52
54
55
57
58
59
59
60
60
61
61
61
61
60
60
60
60
60
60
61
61
61
61
61
62
63
63
64
65
66
67
68
69
70
71
72
73
74
75
75
76
76
77
78
78
78
78
78
78
78
78
78
77
76
76
76
76
75
75
74
73
73
72
72
72
72
71
71
71
71
71
71
72
72
73
73
74
74
74
75
75
75
75
75
75
75
74
74
73
72
72
71
71
70
70
70
70
69
70
71
72
72
73
75
75
76
77
77
78
78
79
79
79
79
80
79
79
78
78
78
78
77
77
77
76
76
75
75
74
75
75
75
75
76
76
76
76
77
78
78
79
80
79
80
80
80
80
80
80
81
80
80
80
79
79
78
78
79
78
78
78
78
78
78
78
78
78
78
78
77
77
78
78
77
78
78
78
78
79
78
78
79
79
79
80
80
80
80
81
81
81
81
81
80
81
82
82
82
81
81
81
80
80
80
80
80
80
80
79
79
78
78
77
77
76
76
76
75
76
76
76
76
76
75
75
75
74
74
73
73
73
73
73
72
72
72
72
72
72
72
72
72
72
71
71
71
71
71
71
70
70
70
70
70
70
71
72
73
74
75
76
77
77
78
79
80
81
82
82
84
84
85
85
85
84
84
84
84
84
84
84
84
84
83
83
83
83
82
82
82
83
83
82
82
82
82
82
82
82
81
81
81
81
80
80
79
79
78
78
78
78
77
76
76
75
75
74
74
73
72
72
72
72
73
74
74
74
74
75
75
75
76
76
77
77
78
78
79
79
78
79
78
78
78
77
77
76
75
75
74
74
74
74
75
75
75
76
76
77
78
79
80
81
81
82
82
84
84
84
84
84
83
83
82
82
82
82
82
81
82
81
81
81
81
81
81
81
81
81
81
81
81
81
81
81
80
80
80
80
80
81
80
79
79
79
78
79
79
78
77
77
77
76
77
76
76
76
76
76
76
76
76
76
76
76
75
75
75
75
75
76
76
76
77
77
76
76
76
76
76
77
76
76
77
77
76
76
76
76
75
75
75
75
75
75
75
75
75
76
76
77
77
76
77
77
78
78
79
79
79
79
81
81
81
81
81
81
81
82
82
82
82
82
82
81
81
80
79
78
78
76
75
74
73
72
71
70
69
68
67
66
64
63
62
61
60
59
58
56
55
55
53
52
51
50
49
49
49
49
49
49
49
49
50
50
51
51
52
53
54
55
56
57
58
58
60
61
62
62
64
65
66
67
68
70
69
70
71
72
72
72
73
73
73
73
73
73
73
73
73
73
73
74
74
74
74
74
74
74
74
75
75
75
75
75
77
77
77
78
79
79
79
80
80
81
81
81
82
82
82
82
83
83
83
83
83
84
84
85
84
85
85
85
86
86
86
86
86
85
85
84
84
83
83
82
81
81
80
80
79
79
78
78
77
76
76
75
76
77
77
78
79
79
80
81
82
83
85
87
87
89
91
91
93
94
96
96
96
96
96
96
96
95
94
94
93
93
92
91
91
90
90
90
90
89
88
87
86
85
85
83
82
79
78
76
74
71
68
65
62
58
54
49
44
38
32
25
18
10
2
-8
-16
-27
-35
-45
-55
-65
-74
-84
-92
-102
-110
-117
-124
-129
-133
-135
-137
-136
-135
-133
-128
-122
-116
-107
-97
-86
-73
-61
-49
-36
-24
-12
1
13
24
35
45
54
63
70
76
82
86
89
90
92
92
92
92
90
88
87
85
84
82
80
78
75
73
71
69
68
66
66
65
65
64
64
64
63
64
63
63
63
64
64
65
66
66
67
68
69
70
71
72
74
75
75
76
78
79
80
81
82
82
82
82
82
82
81
81
80
81
80
80
79
79
78
77
76
76
76
75
75
74
74
73
73
73
73
73
73
72
72
72
72
73
73
73
73
73
73
72
72
72
71
70
70
70
69
68
67
66
65
65
63
63
63
63
63
62
62
62
62
63
63
64
64
66
66
67
67
67
68
68
68
69
69
69
69
69
69
69
68
68
67
66
66
65
64
63
62
63
62
62
60
60
59
59
59
59
59
58
58
57
57
56
56
55
55
54
54
54
53
52
51
51
50
50
50
50
50
49
49
48
48
48
48
48
48
48
48
47
47
47
47
47
47
47
46
45
45
44
43
42
41
40
38
37
36
36
35
34
33
33
32
32
31
31
31
30
29
29
29
29
28
28
27
26
25
25
24
23
21
21
19
18
17
15
14
13
13
12
11
11
9
8
7
6
5
5
4
4
4
3
3
2
2
0
0
-1
-2
-3
-4
-5
-6
-8
-9
-11
-12
-13
-15
-16
-17
-19
-20
-21
-22
-22
-23
-24
-25
-26
-27
-28
-29
-30
-31
-32
-32
-34
-35
-37
-38
-39
-40
-41
-43
-43
-44
-44
-44
-45
-44
-44
-43
-42
-40
-39
-38
-37
-35
-32
-30
-27
-24
-21
-18
-15
-12
-9
-7
-4
-2
0
3
4
6
7
8
10
11
12
13
14
15
17
18
19
20
21
22
24
26
27
29
30
31
33
34
36
37
38
39
41
42
44
45
47
48
50
51
53
54
55
56
57
58
59
60
61
62
62
64
65
65
66
67
68
68
69
69
70
71
71
71
71
71
71
71
72
73
73
73
73
72
72
72
72
72
72
73
73
72
72
73
72
72
73
73
73
74
74
74
75
75
75
75
75
76
76
76
77
77
77
76
76
76
76
76
77
77
77
77
77
77
78
78
78
79
79
79
80
80
80
79
79
78
77
76
75
75
74
73
73
73
73
72
73
73
73
74
74
75
76
76
77
78
78
79
80
80
81
81
82
82
82
82
83
83
82
82
82
82
81
81
81
81
81
80
80
80
79
79
79
79
79
80
80
79
79
79
80
80
80
79
80
80
79
79
79
79
80
80
80
80
80
80
80
80
80
80
79
79
79
78
77
77
75
74
74
73
72
72
73
73
73
73
74
74
75
75
77
78
78
79
80
81
81
82
82
83
82
83
82
81
81
80
80
80
79
78
78
77
76
75
74
73
72
72
71
72
72
71
72
72
72
71
71
72
72
72
73
73
74
74
75
76
76
77
78
78
79
79
80
81
82
83
84
85
86
86
87
87
88
88
88
88
88
87
87
86
85
85
84
84
84
83
82
82
81
81
81
81
80
80
79
79
78
77
77
76
76
75
75
75
74
75
75
76
77
77
78
78
78
79
79
80
80
81
82
83
83
84
84
85
86
86
87
87
87
87
87
87
87
87
87
86
86
85
85
85
85
85
84
84
83
83
83
83
83
83
82
82
82
82
82
82
82
82
82
82
82
81
82
82
82
81
81
81
80
79
78
77
76
76
74
74
73
72
72
72
72
72
72
73
73
75
75
76
77
79
81
82
83
84
85
86
86
87
87
88
88
88
88
88
88
87
87
87
86
86
86
86
86
86
86
87
87
87
87
88
87
88
88
88
89
89
89
89
89
88
88
88
87
86
86
85
85
85
85
85
85
85
86
86
87
87
88
89
90
91
92
92
93
95
95
96
95
95
95
95
94
93
93
93
92
92
92
90
90
90
90
89
89
89
89
88
88
87
87
87
86
86
86
86
86
86
86
86
86
86
86
86
86
86
85
85
85
85
85
84
84
84
84
84
84
84
84
84
83
83
84
84
84
83
83
82
83
82
81
79
78
77
76
74
73
72
70
68
65
63
61
59
57
55
55
54
54
53
53
54
55
55
57
58
60
62
64
66
68
70
72
74
75
76
77
78
78
77
77
77
77
76
76
75
74
74
74
74
72
72
73
73
72
72
72
73
73
73
72
72
72
72
73
73
73
73
74
74
75
75
75
76
76
76
78
78
78
78
80
80
80
81
82
83
83
84
84
85
85
86
86
87
87
87
87
87
87
88
87
87
88
87
87
88
88
88
88
88
88
88
88
89
89
89
89
89
89
89
89
89
89
89
90
90
90
90
90
90
90
90
91
91
91
91
92
92
91
91
91
91
92
92
92
93
93
93
93
94
94
94
94
95
95
94
95
94
93
93
93
93
93
94
94
94
94
94
95
95
95
95
96
96
95
96
95
95
94
93
92
90
88
86
84
82
78
75
72
69
64
60
55
49
43
36
29
22
13
5
-3
-12
-22
-30
-40
-49
-59
-67
-77
-86
-94
-102
-109
-116
-121
-126
-129
-131
-133
-132
-130
-127
-121
-113
-104
-93
-82
-69
-55
-42
-27
-14
0
15
29
42
56
69
80
91
99
107
113
118
122
124
125
125
124
124
121
119
117
113
111
107
104
102
98
95
93
90
88
86
84
83
82
81
80
80
79
79
79
79
79
79
79
79
79
79
79
79
79
80
80
81
81
82
82
81
81
82
82
82
82
81
81
81
80
80
80
79
78
78
77
77
76
76
76
77
77
77
78
78
78
78
78
78
78
78
78
78
79
80
79
80
80
80
80
80
80
80
80
78
79
78
78
77
77
76
75
75
74
73
73
72
72
71
70
70
70
70
70
70
70
70
70
70
70
70
70
71
71
71
72
73
73
73
74
73
74
74
75
75
75
75
74
74
74
73
73
72
72
71
71
69
69
68
68
67
66
66
65
64
63
62
61
59
58
57
56
54
52
50
49
47
47
47
48
49
48
49
49
50
51
50
51
53
54
55
56
58
58
59
60
60
60
60
60
60
59
59
59
58
57
56
55
54
53
52
51
50
49
48
47
47
46
45
44
44
43
42
42
41
41
40
39
38
37
36
35
34
33
33
31
30
30
29
28
27
26
25
24
23
22
21
19
18
17
16
14
13
13
11
9
8
7
6
6
5
4
3
2
2
1
0
-1
-2
-3
-4
-5
-6
-7
-8
-8
-9
-10
-11
-12
-14
-15
-16
-17
-18
-18
-20
-21
-22
-24
-25
-25
-27
-28
-29
-30
-30
-31
-30
-30
-30
-30
-29
-28
-28
-28
-25
-25
-24
-22
-20
-18
-16
-14
-12
-10
-9
-6
-4
-2
1
3
5
7
8
11
12
13
14
16
17
18
20
21
22
24
26
28
29
30
32
33
35
36
38
39
41
43
44
46
48
50
51
52
53
55
56
57
58
59
59
60
60
61
61
61
61
61
60
60
61
61
61
61
62
64
65
67
68
70
72
74
76
79
81
84
86
88
90
92
93
95
96
97
97
98
98
98
98
98
98
97
97
96
95
95
94
94
93
92
93
92
92
91
91
91
91
91
91
90
91
91
91
92
92
91
91
91
91
90
90
90
90
90
90
91
91
91
92
92
93
93
94
95
95
95
95
96
96
96
96
96
97
96
97
97
97
97
97
98
98
98
98
98
98
98
98
98
98
98
98
98
97
98
98
98
97
97
97
96
95
95
95
95
94
94
93
93
93
93
92
93
93
92
92
93
93
93
93
94
94
94
94
94
94
93
93
92
91
91
90
89
88
88
87
87
88
88
89
89
90
91
92
94
95
96
97
99
100
101
102
102
103
103
104
104
104
104
104
103
103
103
102
101
100
100
99
97
96
95
94
93
93
92
91
90
90
89
89
89
88
88
87
88
88
88
89
89
90
91
92
93
93
94
95
96
97
98
98
99
99
100
100
100
100
100
99
98
98
97
96
96
95
95
94
94
95
95
95
95
95
96
96
96
96
97
97
96
96
96
96
95
94
93
92
91
90
89
88
88
88
88
89
89
90
90
90
91
92
92
93
95
96
97
98
99
100
101
101
102
103
103
103
103
103
102
102
101
101
100
100
99
99
98
98
97
97
97
97
97
98
98
97
97
97
97
98
98
98
97
97
97
96
96
96
95
95
95
94
94
93
93
93
93
93
93
93
93
94
94
94
94
94
95
95
96
96
97
97
98
97
97
97
97
97
96
96
95
94
93
92
91
90
90
89
89
88
88
87
88
88
88
88
88
88
89
89
89
90
90
91
91
92
93
94
94
94
94
94
95
96
96
97
98
99
99
99
99
100
100
99
100
100
99
100
100
99
99
100
99
99
99
99
99
99
98
99
98
98
97
97
97
96
96
96
95
95
95
94
93
93
92
92
91
90
90
89
88
87
87
87
86
85
84
84
83
83
81
80
80
80
79
78
77
75
74
74
73
73
72
71
71
70
69
70
70
70
70
71
72
73
74
75
75
77
78
79
80
81
81
82
83
82
83
84
84
84
85
85
85
85
85
84
84
84
84
84
84
84
83
83
83
82
82
82
81
81
80
79
80
79
79
78
78
78
78
79
79
79
80
80
82
84
86
87
89
91
92
94
96
99
101
102
104
105
106
107
108
109
109
108
108
108
107
106
106
106
105
105
105
105
105
105
105
105
105
105
105
104
105
105
105
105
105
105
105
105
105
105
104
104
104
104
104
104
103
103
103
103
103
102
101
101
100
100
99
99
99
99
98
98
98
98
98
98
98
98
98
98
98
99
99
98
98
98
98
98
98
97
97
96
95
94
92
90
87
84
80
76
71
66
60
54
47
41
34
28
19
11
2
-6
-15
-23
-32
-40
-49
-56
-64
-72
-79
-85
-92
-97
-102
-105
-107
-107
-108
-105
-103
-98
-92
-85
-78
-68
-59
-48
-37
-24
-12
-1
11
23
36
46
57
67
77
86
93
99
105
109
112
114
116
116
116
114
113
111
109
107
105
102
99
98
95
94
92
90
88
87
86
85
85
84
83
82
81
81
81
81
81
80
81
81
81
81
81
80
80
80
80
80
79
79
78
77
77
76
75
74
72
72
71
71
71
71
71
71
71
72
73
74
75
76
78
80
81
83
84
86
87
88
90
91
92
92
93
93
93
93
93
92
91
90
89
88
86
86
85
83
81
80
79
78
77
76
75
75
75
74
74
73
73
73
73
73
73
73
73
73
73
73
73
73
74
74
74
74
74
74
74
73
72
73
72
72
71
70
69
69
68
67
67
66
66
66
66
64
64
63
62
62
61
60
60
60
59
59
59
58
58
57
57
58
58
58
58
57
58
58
58
58
58
58
57
57
56
55
54
54
53
53
52
52
51
50
48
48
47
47
46
45
44
44
43
42
41
40
39
38
37
35
35
34
33
32
32
30
30
29
29
29
28
28
28
27
27
27
27
26
27
26
26
26
26
26
24
24
24
23
23
22
21
20
19
18
17
15
14
12
11
9
8
6
5
3
1
0
-2
-3
-4
-5
-7
-8
-9
-10
-11
-11
-11
-12
-12
-12
-12
-12
-12
-13
-13
-12
-13
-13
-13
-14
-15
-16
-17
-18
-19
-21
-21
-23
-24
-26
-27
-29
-30
-31
-32
-33
-34
-35
-36
-37
-38
-39
-39
-40
-40
-40
-40
-40
-41
-40
-40
-39
-37
-36
-35
-34
-33
-31
-30
-28
-26
-25
-23
-22
-19
-18
-16
-14
-13
-11
-9
-7
-5
-4
-2
0
2
4
5
7
8
9
10
12
12
14
15
16
17
18
20
22
23
24
25
25
27
28
29
31
32
35
36
38
39
40
41
42
44
45
47
49
50
52
54
54
56
58
59
61
62
63
64
65
66
66
67
67
69
69
69
70
70
70
70
70
70
70
70
70
69
69
68
68
67
67
67
66
66
65
65
65
65
65
65
65
65
65
65
65
65
65
64
64
64
64
64
64
64
63
63
64
64
64
64
64
64
64
65
65
64
64
64
64
63
63
63
63
62
62
61
61
60
60
61
60
61
61
62
62
62
62
63
63
63
65
65
65
66
66
66
67
67
67
67
66
65
65
64
64
63
62
62
62
62
62
62
62
62
62
63
63
64
64
65
66
67
68
69
70
71
71
72
72
72
72
72
72
71
71
71
70
70
70
70
69
69
69
69
69
69
69
69
69
69
69
70
70
70
70
70
71
71
71
71
72
71
71
71
71
71
70
70
70
70
70
69
69
68
68
67
67
66
66
66
65
64
64
63
63
62
61
60
60
60
59
59
59
59
59
59
59
60
60
61
62
63
64
65
65
67
68
68
69
70
70
70
70
70
69
69
69
68
67
67
66
65
65
64
64
63
62
62
61
61
60
62
62
62
62
63
63
63
64
65
66
67
68
69
69
69
69
70
70
70
71
71
71
70
70
70
70
69
69
68
69
68
68
68
68
68
67
67
67
67
66
66
66
65
65
65
65
65
64
64
63
63
64
64
65
65
65
65
66
67
67
67
68
68
68
69
70
69
70
71
71
71
72
71
71
71
71
70
70
69
68
68
67
67
67
66
66
64
64
63
62
62
62
62
62
61
61
61
60
60
60
59
59
59
59
59
59
59
60
60
60
59
59
60
60
61
61
62
62
64
64
64
65
65
66
66
67
68
69
70
70
70
70
71
72
72
72
72
72
72
72
72
71
71
71
71
70
70
70
70
70
70
70
69
69
69
68
68
67
67
66
66
66
65
65
65
66
66
66
66
67
67
67
68
67
68
69
69
69
69
69
69
68
68
68
68
68
68
68
68
68
68
68
68
68
67
67
67
67
66
66
65
65
64
63
63
63
62
62
61
61
60
60
59
58
58
57
56
54
54
52
51
50
50
49
49
49
50
50
51
53
53
55
56
58
59
61
62
64
66
67
69
70
72
73
73
74
74
74
73
73
73
73
72
71
71
71
70
70
69
68
68
68
68
68
68
68
67
67
68
68
68
68
68
68
68
68
67
67
66
65
65
64
65
64
64
63
62
62
62
61
61
61
60
60
60
59
59
58
57
57
57
56
55
55
54
54
53
53
53
53
52
52
52
51
51
50
50
50
49
49
48
47
47
46
45
45
45
44
44
43
43
42
42
42
41
41
41
40
40
39
39
38
38
38
37
37
37
36
35
35
34
33
33
33
33
34
35
36
37
38
39
41
43
44
46
48
50
53
56
58
61
63
65
66
67
68
69
69
71
71
71
71
70
71
70
70
69
69
68
68
67
67
67
66
66
66
65
65
65
65
64
64
65
65
65
66
67
68
69
69
70
70
71
71
72
72
72
72
74
74
74
74
73
73
73
73
72
72
72
72
72
72
72
72
72
72
72
72
71
71
71
71
71
72
72
71
71
71
71
72
72
72
72
72
72
72
72
72
71
71
70
70
69
68
67
66
65
64
63
62
62
60
59
57
56
54
52
52
51
50
49
49
48
45
44
43
42
39
38
36
33
30
26
22
17
11
5
-3
-10
-20
-29
-36
-47
-56
-66
-75
-84
-93
-103
-110
-118
-124
-130
-135
-138
-140
-141
-140
-139
-136
-132
-125
-118
-110
-101
-91
-79
-68
-56
-44
-33
-21
-10
1
12
23
32
40
48
54
61
65
68
70
73
74
74
74
72
72
70
69
67
64
62
59
56
55
52
50
48
46
44
43
42
41
42
41
42
43
44
45
46
48
49
52
53
55
57
59
60
62
63
64
66
66
67
67
68
67
67
66
65
64
63
62
61
60
59
58
57
56
55
55
55
55
54
53
53
53
53
53
53
53
52
52
51
50
49
48
48
47
47
46
46
46
46
46
47
48
49
50
51
53
54
55
57
58
60
61
61
62
63
63
64
64
64
64
64
64
63
63
61
61
60
60
59
58
59
58
57
57
56
55
55
54
54
53
52
51
51
50
50
49
49
48
48
47
47
46
46
46
45
45
44
44
44
43
43
43
43
41
41
40
40
39
38
38
37
37
37
37
36
36
36
36
36
36
37
37
37
38
38
37
37
36
36
35
35
34
33
33
32
32
31
31
30
29
29
29
29
29
30
29
29
29
29
29
28
28
28
28
28
28
27
27
26
25
25
25
24
23
23
22
22
21
20
19
17
16
15
13
13
12
10
9
8
7
7
6
4
3
2
1
0
-1
-2
-4
-5
-5
-8
-9
-10
-11
-12
-13
-14
-15
-16
-17
-17
-18
-19
-20
-21
-22
-23
-24
-25
-27
-28
-29
-31
-32
-34
-35
-36
-38
-39
-40
-41
-42
-42
-43
-43
-44
-44
-44
-43
-43
-43
-43
-43
-42
-42
-41
-41
-41
-40
-40
-40
-40
-41
-41
-42
-42
-43
-42
-43
-43
-44
-43
-43
-42
-42
-40
-38
-36
-34
-32
-30
-27
-24
-21
-19
-16
-13
-10
-8
-6
-3
-1
1
3
4
6
8
10
11
12
14
15
16
17
18
20
21
21
22
23
24
26
28
29
31
33
34
36
38
39
41
42
44
45
46
47
48
49
50
51
52
52
52
53
53
54
54
55
56
57
58
59
60
61
62
62
63
64
64
65
66
66
66
66
67
67
67
66
66
67
66
66
66
66
66
66
64
64
65
64
64
64
64
65
65
66
67
66
67
68
68
69
70
71
72
72
73
74
74
74
75
75
76
77
77
78
78
78
77
77
77
77
77
77
77
76
75
74
73
73
72
71
71
70
70
70
70
70
70
70
70
70
71
71
72
72
73
73
73
74
74
74
74
75
76
76
76
76
75
75
74
74
74
74
73
73
72
72
71
71
71
70
70
69
69
69
69
68
68
68
68
67
67
67
66
65
65
64
65
65
65
66
66
67
68
69
70
71
72
73
75
76
78
79
80
81
82
82
83
83
83
83
82
82
81
81
80
80
80
79
79
78
78
78
78
77
77
77
77
76
76
76
76
76
76
76
76
76
76
76
76
76
76
77
77
77
76
76
77
76
76
76
75
74
73
73
72
71
71
70
70
70
70
70
70
70
70
70
70
70
70
71
71
71
72
73
73
74
75
74
75
75
75
76
76
76
76
75
76
75
75
75
74
73
73
73
73
73
73
73
73
73
73
74
74
75
75
75
75
75
76
76
77
77
77
78
79
79
80
80
80
80
81
81
81
81
81
82
82
82
82
82
81
82
82
82
81
81
80
80
79
78
78
78
77
77
76
75
74
74
73
73
72
72
72
72
73
73
74
75
76
76
77
78
79
80
80
81
81
82
82
82
83
83
83
83
83
82
82
82
81
80
80
80
79
78
77
76
75
74
73
72
72
71
71
71
71
72
72
72
72
73
72
73
73
74
74
75
75
77
78
78
79
79
79
80
80
80
80
80
81
81
81
81
82
82
81
81
81
80
80
79
79
78
78
78
78
77
77
77
77
76
76
76
76
75
75
74
74
74
75
74
75
75
76
76
76
77
76
77
77
77
78
78
78
78
78
78
77
76
75
74
73
73
73
72
72
72
72
72
72
72
72
73
73
73
74
74
75
75
75
76
76
77
76
77
77
77
78
79
79
80
80
81
81
81
82
82
83
83
83
84
84
84
84
83
83
83
83
83
83
83
83
83
82
82
82
81
82
81
81
81
81
81
81
81
81
81
81
81
81
82
81
81
81
81
81
81
81
81
81
81
81
81
82
82
82
82
83
82
82
82
82
83
82
82
82
81
81
81
81
81
80
80
80
80
80
80
80
80
80
80
81
81
81
81
81
81
81
81
81
82
81
81
81
81
81
80
80
80
79
78
76
75
74
73
71
69
68
66
64
63
63
62
61
60
60
60
61
61
61
62
63
64
65
66
67
68
69
70
71
71
72
72
72
72
71
71
70
70
69
67
66
65
64
62
62
60
59
57
56
55
54
53
52
52
52
52
53
52
53
54
55
56
57
58
60
61
63
64
65
67
68
69
71
72
73
73
74
75
76
76
77
78
78
79
80
80
80
80
80
82
82
82
82
83
85
85
86
87
88
88
89
89
89
90
90
90
89
89
89
89
88
88
88
87
87
87
87
87
87
87
87
86
85
85
85
84
85
84
84
84
84
83
83
83
83
83
83
84
84
84
85
85
85
85
86
87
87
87
87
88
88
88
88
88
89
89
90
90
91
91
90
90
91
90
90
91
90
90
89
89
88
88
87
87
86
86
86
85
86
85
84
84
83
82
81
80
79
78
76
75
73
71
68
66
63
60
57
53
49
45
40
35
28
23
16
10
1
-6
-14
-22
-30
-38
-47
-54
-63
-71
-78
-85
-94
-100
-105
-110
-114
-116
-117
-118
-117
-115
-111
-107
-100
-93
-84
-75
-64
-52
-42
-29
-18
-6
5
18
29
39
50
59
67
74
81
86
91
94
97
98
99
99
99
98
97
95
94
92
90
88
87
84
82
80
78
77
75
74
73
73
73
72
72
71
71
70
71
71
70
71
70
69
70
69
68
67
67
66
65
65
64
63
63
62
62
62
62
62
62
63
64
64
65
65
66
67
67
68
69
69
70
70
71
71
70
69
69
68
67
67
67
66
67
67
67
66
66
65
65
66
66
67
68
69
70
71
72
73
74
74
74
74
74
74
74
74
73
73
72
72
71
71
71
71
70
69
68
68
67
66
66
65
64
63
63
62
61
60
60
61
60
60
60
59
59
59
58
58
58
57
58
58
57
57
56
56
55
55
54
54
53
53
53
52
52
51
50
50
49
49
48
48
47
46
46
46
46
46
46
46
46
46
46
46
46
46
45
45
44
43
42
41
40
39
38
37
36
36
36
35
35
35
34
35
35
35
35
36
37
37
38
39
39
39
39
40
39
40
40
39
38
37
36
35
33
32
30
29
26
25
23
21
20
19
18
17
16
15
13
13
12
12
11
12
12
11
11
11
11
11
11
10
9
8
8
7
6
4
3
2
1
0
-1
-2
-3
-4
-5
-6
-7
-8
-9
-10
-11
-12
-13
-14
-16
-17
-18
-19
-19
-20
-21
-22
-23
-24
-25
-26
-27
-29
-30
-31
-33
-34
-35
-36
-37
-38
-39
-39
-40
-40
-40
-39
-39
-39
-38
-37
-37
-36
-35
-33
-33
-32
-31
-30
-29
-29
-28
-27
-26
-25
-25
-24
-23
-22
-21
-20
-18
-17
-15
-13
-10
-8
-6
-4
-2
2
4
7
10
12
15
18
20
21
24
26
28
29
32
33
34
35
36
37
39
40
41
42
43
45
47
47
49
51
52
54
55
56
57
58
58
60
61
62
62
63
63
64
64
64
64
65
64
63
64
64
63
63
62
62
61
59
59
59
59
59
60
61
63
64
65
67
68
69
71
72
74
75
77
79
81
82
83
84
84
84
85
85
85
85
85
85
85
84
84
84
83
83
83
82
82
82
82
82
81
81
81
81
81
81
81
80
80
80
80
80
80
79
79
78
79
78
77
77
77
76
76
76
76
76
76
76
76
76
76
76
77
77
77
77
77
78
78
78
78
78
78
78
78
78
78
78
78
79
79
80
80
80
81
81
81
81
81
82
82
83
83
83
83
83
83
83
83
83
83
83
82
82
81
81
80
79
79
79
78
79
79
79
79
78
78
78
78
77
77
77
77
77
77
76
76
76
76
76
76
76
75
76
76
76
77
77
78
78
79
78
79
80
80
80
80
80
80
79
79
79
78
78
78
79
79
79
79
80
80
79
80
80
80
80
80
80
80
79
79
80
79
79
77
76
76
76
76
76
76
76
76
76
77
77
77
78
78
79
79
80
81
82
83
84
84
85
85
85
85
84
84
85
84
84
84
83
83
82
82
81
80
80
80
79
79
79
79
79
79
79
78
78
78
78
77
77
76
76
75
75
74
74
74
75
74
75
76
77
78
79
79
80
81
81
82
82
83
84
85
86
86
87
87
88
88
89
89
88
88
88
87
87
86
86
85
84
84
83
83
82
82
82
82
82
82
83
83
83
83
84
84
84
84
85
85
84
84
85
85
84
85
85
85
85
85
85
85
85
85
85
85
85
85
84
84
83
83
83
82
83
83
82
81
81
82
82
82
82
82
82
81
81
80
80
80
80
80
78
78
77
76
76
75
73
72
71
71
71
71
71
72
73
73
74
75
76
78
79
81
82
84
86
87
89
90
92
93
94
95
95
95
95
95
94
93
92
90
89
88
87
86
85
84
83
82
82
81
80
79
79
79
78
78
78
78
77
77
77
77
77
77
77
78
78
79
79
79
79
79
78
78
78
77
76
75
74
73
72
71
70
69
68
67
66
65
64
64
64
63
63
63
62
62
62
62
62
63
64
64
65
65
65
66
67
68
68
69
70
69
70
71
72
71
72
72
72
71
72
72
72
71
71
71
71
72
71
71
71
72
72
72
74
74
74
75
75
76
76
78
78
78
79
80
81
81
82
82
83
83
83
83
83
82
82
82
81
81
81
81
80
80
79
79
79
79
80
81
82
84
84
85
86
87
89
90
91
92
93
94
95
96
97
98
99
100
100
101
101
101
101
101
100
100
99
98
99
98
97
96
95
95
94
94
93
93
93
93
93
93
92
92
92
92
92
92
92
92
93
93
93
93
94
94
94
94
94
94
94
94
94
93
93
92
91
90
88
87
85
83
80
77
75
71
68
63
58
53
48
41
35
28
20
12
4
-4
-14
-23
-32
-41
-50
-59
-67
-76
-85
-92
-100
-105
-111
-115
-119
-122
-123
-122
-121
-118
-114
-109
-103
-94
-85
-75
-65
-53
-39
-27
-16
-3
9
22
34
46
56
67
76
84
91
97
102
106
109
110
111
111
111
110
108
107
105
102
100
98
95
94
91
88
86
84
82
80
78
77
75
74
73
73
72
72
72
72
72
72
72
72
72
73
73
74
75
75
76
76
77
78
78
78
79
79
79
79
79
79
79
79
78
78
77
77
76
76
76
76
76
75
75
75
74
74
74
74
75
75
75
75
76
76
76
76
76
76
75
75
76
75
75
75
75
74
73
73
72
71
70
69
68
68
68
67
67
66
65
65
65
65
65
65
66
67
67
68
68
68
69
70
70
71
71
71
71
71
71
71
71
71
69
69
69
69
68
68
67
66
66
65
64
63
62
61
61
60
59
58
58
57
57
57
57
57
57
57
57
57
56
56
56
56
56
56
57
57
56
56
56
56
56
55
55
55
55
55
54
54
53
53
52
51
50
49
49
48
47
47
46
46
46
46
45
44
44
44
44
44
43
43
43
42
41
40
39
38
37
36
35
34
33
33
32
31
30
28
27
26
25
24
23
22
21
20
20
19
18
17
17
16
16
15
14
14
13
12
12
10
8
7
6
5
3
2
1
-1
-2
-4
-4
-5
-6
-6
-6
-7
-7
-8
-9
-9
-9
-10
-9
-10
-11
-12
-12
-13
-15
-16
-17
-18
-18
-19
-20
-20
-21
-22
-23
-24
-25
-26
-27
-27
-27
-28
-28
-28
-29
-29
-29
-29
-29
-28
-28
-27
-27
-27
-26
-26
-25
-25
-24
-23
-22
-22
-21
-20
-18
-17
-16
-15
-14
-13
-11
-10
-9
-7
-6
-4
-1
0
2
3
5
7
8
10
12
14
16
18
19
21
23
25
27
29
31
32
34
35
36
38
38
39
40
40
41
41
42
42
42
43
44
45
46
47
49
50
51
53
54
55
57
59
60
63
65
67
69
71
73
74
75
77
78
79
80
80
80
81
81
81
81
81
81
81
81
80
80
81
81
81
81
81
81
81
82
82
82
82
83
84
84
84
84
83
83
83
83
83
83
82
82
82
81
81
80
80
80
80
79
79
80
79
78
79
79
79
79
80
80
80
81
81
81
81
81
81
81
81
81
80
80
79
79
78
78
78
78
78
78
78
78
78
78
78
78
79
78
78
78
78
77
76
76
75
76
75
75
75
75
74
75
75
76
76
77
77
78
79
79
80
81
82
83
83
84
84
85
85
85
85
85
85
84
84
84
83
83
83
82
82
82
83
82
83
83
83
83
84
84
85
84
85
85
85
86
86
85
85
86
85
85
84
83
83
82
81
81
80
80
80
80
80
79
79
79
79
79
78
78
78
77
77
77
77
77
77
77
77
77
78
78
78
78
78
79
79
80
80
80
80
79
79
79
79
79
79
80
80
80
80
80
80
80
81
81
80
81
81
80
79
80
80
81
81
81
81
82
82
82
83
83
83
84
84
85
85
85
85
85
86
86
85
85
84
84
83
83
82
82
82
80
80
79
79
79
79
79
78
78
78
78
78
78
78
77
77
77
77
77
77
78
77
76
77
77
77
77
77
77
77
78
78
79
79
79
80
81
82
82
83
84
85
85
86
86
86
86
87
87
87
87
86
86
86
86
85
85
85
85
86
85
85
86
86
87
87
87
87
87
87
87
87
87
86
87
86
85
85
84
84
84
83
83
82
82
81
81
81
81
81
82
82
82
83
83
84
85
86
87
88
89
90
90
91
91
91
92
93
93
93
92
92
91
91
90
90
89
89
88
88
87
86
86
86
85
85
85
85
85
84
84
84
84
84
84
84
85
85
85
85
85
85
85
85
85
85
85
84
84
84
84
83
83
84
84
84
85
85
85
86
86
86
87
87
88
88
89
89
89
89
89
89
89
89
90
89
89
88
88
88
88
88
88
87
87
87
87
86
86
86
86
85
85
84
83
83
82
83
82
81
81
80
79
79
78
77
76
76
75
74
72
71
70
69
68
67
66
65
65
64
63
63
63
63
63
63
62
62
62
62
61
63
63
63
64
64
65
65
66
66
67
68
68
69
68
69
70
70
70
70
70
70
69
69
68
68
68
69
68
69
70
69
70
70
71
71
71
72
73
74
75
76
77
77
79
79
80
80
81
81
82
82
82
82
82
82
82
82
83
83
83
84
85
85
86
88
88
90
91
92
94
95
96
97
98
99
99
100
100
100
99
99
98
97
96
97
95
95
94
94
94
94
94
94
94
94
95
95
95
95
96
96
97
97
97
98
98
99
99
100
100
99
99
99
100
99
99
99
98
98
98
97
96
95
95
94
93
93
92
92
91
91
90
89
89
88
88
88
89
88
88
88
89
89
89
89
90
90
90
89
88
88
86
84
83
82
78
76
73
70
66
61
56
50
44
38
30
24
16
8
-1
-10
-18
-27
-36
-45
-54
-63
-71
-80
-89
-97
-103
-109
-115
-118
-120
-122
-121
-119
-115
-110
-104
-96
-89
-79
-68
-57
-45
-34
-23
-10
1
13
25
36
46
55
64
72
79
84
89
92
95
96
97
97
98
96
95
94
93
92
90
88
86
85
84
83
81
81
80
79
79
78
78
77
78
77
77
77
77
77
77
77
77
77
77
78
78
78
78
79
79
80
80
80
80
80
79
79
79
79
79
80
80
80
80
80
79
79
78
78
78
77
76
75
74
73
71
70
68
68
66
65
64
63
62
62
62
62
63
64
65
66
67
68
69
70
72
74
76
78
79
81
82
83
84
85
85
85
85
85
85
84
84
83
82
81
81
80
79
78
76
75
75
74
73
72
72
71
71
70
70
69
69
68
68
67
67
66
66
66
65
65
65
65
65
65
64
64
63
63
62
62
62
62
61
61
60
60
60
59
59
59
59
59
59
59
59
59
59
59
58
58
58
58
58
58
59
59
59
58
58
57
57
57
56
56
56
56
55
55
55
54
53
52
51
50
49
47
46
45
44
42
41
40
40
39
39
38
38
37
37
36
36
35
35
34
34
33
32
31
30
30
29
28
27
25
24
23
22
20
18
16
14
13
11
10
8
8
8
7
7
6
6
6
6
6
7
7
8
9
10
10
10
10
10
9
8
7
6
5
3
2
0
-1
-3
-5
-7
-8
-10
-11
-12
-13
-14
-15
-15
-16
-17
-18
-18
-19
-19
-19
-19
-19
-19
-19
-19
-18
-19
-19
-19
-19
-20
-20
-20
-20
-21
-22
-21
-22
-23
-22
-22
-22
-22
-22
-21
-21
-20
-19
-18
-17
-17
-16
-14
-13
-12
-10
-9
-7
-6
-4
-2
0
1
3
5
7
10
12
14
16
18
20
21
23
25
27
29
30
33
34
36
37
38
40
41
42
43
45
46
46
46
46
47
46
46
46
47
48
48
50
51
53
54
56
58
60
62
64
67
70
73
76
78
80
82
84
87
88
89
90
91
91
92
91
92
91
91
90
90
88
88
87
86
86
85
84
83
82
82
82
82
83
83
83
83
84
83
83
84
85
85
85
86
86
87
87
87
88
88
89
88
88
89
89
89
90
90
90
90
90
90
89
89
89
89
88
88
88
87
87
87
87
87
87
87
87
86
86
86
86
86
86
86
86
87
86
86
86
86
86
86
86
86
86
87
87
87
88
88
88
88
88
89
89
88
88
88
87
87
87
86
86
85
84
84
83
82
79
79
78
77
77
76
75
75
74
75
76
77
78
79
81
82
84
86
88
89
91
93
95
96
98
99
100
101
101
102
101
101
100
100
100
99
98
97
96
96
96
95
95
95
94
94
93
93
94
92
93
93
93
93
93
93
93
92
92
92
92
93
93
92
92
92
92
91
92
92
91
91
91
91
91
90
90
91
91
91
91
91
91
91
91
91
91
90
90
90
90
90
90
90
90
90
90
90
91
91
91
90
90
90
89
89
89
89
89
89
89
88
87
87
87
86
86
85
85
84
84
84
83
83
82
81
81
80
80
80
80
80
81
81
81
82
82
83
83
84
84
85
86
87
88
89
90
91
92
93
93
94
95
96
96
97
97
98
99
100
100
100
100
100
100
100
99
98
98
98
97
97
96
95
95
94
94
93
93
92
92
92
91
91
91
90
90
89
89
89
89
90
90
90
89
90
89
90
90
91
91
91
92
92
92
92
92
93
93
93
93
92
92
92
91
91
90
90
90
89
88
88
87
85
84
83
82
81
81
80
79
78
77
76
75
74
74
74
74
74
75
75
76
76
75
75
76
75
75
75
75
74
73
73
71
70
69
68
67
66
66
66
65
65
64
64
63
64
64
65
65
66
67
69
70
72
73
75
75
76
78
79
80
80
80
81
81
81
82
81
81
81
81
80
81
81
81
81
81
81
82
81
81
82
82
82
83
83
83
83
84
84
84
85
85
86
87
88
88
89
89
90
91
92
92
92
92
92
94
94
94
94
94
94
94
94
94
94
94
94
93
93
92
92
92
92
91
91
90
90
90
90
90
90
90
91
91
92
92
93
94
94
95
95
96
96
97
97
98
98
98
99
99
99
100
100
100
100
100
99
98
99
99
98
98
99
99
98
98
98
98
99
99
99
99
99
99
100
100
100
100
101
100
101
100
100
99
99
99
98
96
95
93
91
89
87
84
81
78
74
70
65
60
54
49
42
35
27
18
10
0
-9
-18
-27
-36
-45
-55
-64
-73
-83
-91
-99
-106
-113
-118
-123
-125
-128
-128
-127
-124
-121
-115
-108
-99
-90
-80
-68
-56
-44
-31
-18
-6
7
19
31
43
53
62
71
78
84
89
94
97
99
101
101
101
101
99
97
96
94
91
90
88
85
83
82
80
78
77
76
75
74
73
74
73
73
74
74
74
74
75
75
75
76
76
77
77
79
79
80
81
81
82
81
82
82
83
83
83
83
83
83
82
82
81
81
81
82
82
82
81
81
81
82
82
82
82
83
83
83
83
84
84
84
84
84
84
84
83
84
84
84
83
83
84
83
82
82
82
82
81
81
81
80
79
78
77
75
74
73
72
71
70
69
68
67
65
65
65
65
64
64
64
64
64
64
64
65
65
66
67
68
68
70
71
72
73
74
75
75
76
76
76
77
77
77
77
77
77
77
77
77
77
77
75
75
74
74
73
72
71
71
70
69
68
67
66
65
65
64
64
63
63
62
61
60
60
60
60
59
59
58
58
57
56
56
54
54
53
52
52
52
51
50
50
49
49
49
47
47
46
45
45
44
43
43
42
41
41
40
39
38
38
38
37
37
36
36
35
34
33
33
32
31
30
29
28
27
26
25
24
22
21
20
19
18
17
15
14
13
12
12
11
10
9
9
9
8
8
6
6
6
6
5
4
3
3
2
0
-2
-3
-4
-5
-6
-7
-9
-10
-11
-12
-13
-14
-14
-15
-15
-15
-15
-15
-15
-15
-15
-15
-16
-16
-16
-17
-18
-19
-20
-20
-21
-22
-23
-23
-24
-25
-25
-26
-26
-26
-26
-26
-24
-24
-23
-22
-22
-20
-19
-18
-16
-14
-11
-10
-8
-6
-4
-2
0
2
4
6
8
9
11
12
14
15
16
18
20
21
22
23
24
26
27
28
30
32
33
34
36
38
39
41
42
45
46
48
51
53
55
57
60
62
64
66
68
70
71
74
76
77
78
79
80
81
81
82
83
84
84
85
85
86
86
86
86
86
86
87
87
87
87
87
87
88
88
88
89
90
90
91
92
93
93
94
95
95
96
96
96
96
96
96
96
95
96
96
96
95
94
94
94
94
94
93
93
93
93
92
92
92
91
92
92
91
91
91
91
91
91
91
91
91
91
91
91
91
90
90
90
89
90
90
90
90
90
90
90
91
91
91
91
92
93
94
93
94
95
96
96
96
96
96
96
96
95
96
96
95
94
94
93
93
93
92
92
92
92
91
91
91
91
91
91
91
92
92
92
93
93
94
95
95
96
97
97
97
97
97
97
97
96
96
96
95
95
95
94
94
93
93
93
93
93
93
93
93
93
93
93
92
91
91
91
91
92
91
91
91
91
92
93
93
94
94
95
95
96
96
97
97
98
98
98
99
100
100
100
100
100
100
99
99
98
98
98
97
97
96
96
95
96
95
95
95
94
94
94
94
94
94
95
95
95
95
96
95
96
96
97
96
96
96
96
96
96
96
96
97
97
97
98
98
98
98
98
98
98
97
97
97
97
96
96
95
96
96
95
95
95
95
95
95
95
96
96
96
96
96
96
96
96
96
96
96
95
95
95
95
94
94
94
93
93
92
91
91
90
89
88
88
87
87
86
87
86
86
85
85
85
85
85
85
85
85
86
86
85
86
85
85
84
84
83
83
82
82
81
80
79
79
79
79
78
78
78
78
78
77
78
78
78
78
78
78
78
79
79
79
78
78
78
78
77
77
77
76
77
76
75
75
74
74
73
73
72
71
71
72
72
71
71
72
71
72
72
72
73
73
73
74
74
75
75
75
76
76
76
77
77
78
79
78
79
79
80
80
80
80
81
82
82
82
82
83
83
84
84
85
86
87
88
89
90
91
92
93
93
94
94
95
95
96
96
96
96
95
95
95
95
94
94
94
93
93
92
92
91
90
90
89
89
89
89
89
89
89
89
90
91
91
92
93
94
95
95
96
97
98
98
99
98
98
98
98
97
97
97
96
95
94
93
91
90
89
89
89
89
89
89
90
90
90
90
90
91
92
93
95
96
97
99
100
101
102
102
103
103
103
102
102
101
99
98
96
93
91
88
85
82
78
73
69
64
58
53
47
40
33
26
17
9
-1
-10
-19
-28
-37
-45
-54
-63
-71
-79
-87
-93
-99
-104
-108
-111
-113
-113
-112
-110
-107
-102
-97
-89
-81
-72
-62
-51
-40
-29
-16
-5
8
19
31
42
52
62
70
79
85
91
95
100
103
105
107
106
106
105
105
102
101
99
96
94
91
88
86
82
79
77
75
72
71
69
68
68
68
68
70
70
70
72
73
74
75
77
78
80
81
83
85
87
88
88
89
89
90
90
91
90
90
89
89
88
87
86
85
84
83
82
81
80
78
77
77
76
75
74
73
73
72
72
72
72
72
72
72
72
73
73
73
73
73
74
74
74
74
75
76
76
76
77
76
75
75
75
74
74
73
73
72
72
71
70
70
69
69
69
70
70
70
70
70
70
70
70
70
69
69
70
70
70
70
70
69
69
69
68
68
67
67
66
66
65
64
64
63
62
61
61
60
60
59
59
59
59
59
59
59
59
58
59
59
59
59
59
59
58
58
58
57
58
57
56
55
55
54
54
53
52
52
52
51
50
49
49
47
47
47
46
46
46
45
45
45
45
45
45
45
46
45
45
45
45
44
44
44
43
42
42
41
40
39
39
39
38
38
37
37
35
35
34
33
32
31
30
29
28
27
25
24
23
21
20
18
17
16
15
14
12
11
10
9
8
7
6
5
4
3
2
1
0
0
-1
-1
-2
-3
-3
-5
-5
-6
-6
-7
-7
-8
-9
-9
-10
-11
-12
-12
-13
-14
-14
-15
-15
-17
-17
-17
-18
-18
-19
-21
-22
-22
-23
-24
-25
-26
-26
-27
-27
-27
-27
-28
-28
-27
-26
-26
-25
-25
-24
-23
-23
-22
-21
-19
-19
-18
-17
-15
-14
-13
-12
-10
-9
-8
-6
-5
-2
-1
1
3
5
7
8
10
12
13
14
16
18
20
22
24
26
28
30
33
35
37
40
42
44
47
49
51
53
55
57
59
61
62
64
65
67
68
69
71
71
72
74
74
75
76
76
77
77
79
80
80
81
81
82
83
84
83
84
85
85
86
86
86
86
86
86
86
86
86
85
85
85
84
84
84
84
84
84
84
84
85
85
85
86
86
86
86
86
86
87
88
88
88
89
89
89
90
91
92
93
93
94
93
94
95
94
94
95
95
95
95
95
95
95
95
95
94
95
95
95
95
96
96
96
96
95
95
95
95
95
95
95
95
95
95
95
95
95
95
95
95
95
95
95
95
94
94
94
93
93
93
93
93
93
93
93
93
94
94
94
94
94
95
95
94
94
94
94
93
93
92
91
90
89
88
87
86
85
85
84
84
84
83
84
84
85
86
86
87
88
90
91
93
95
96
98
100
102
102
103
104
105
106
106
106
105
106
105
105
104
104
103
102
101
101
100
100
99
99
99
99
99
99
98
98
97
97
96
96
95
95
94
95
95
94
94
94
94
94
94
94
95
95
95
95
95
96
95
95
95
95
94
94
94
94
93
93
94
94
94
94
94
94
94
93
93
93
93
94
94
94
94
94
94
94
94
94
94
94
92
92
92
92
91
90
90
89
90
89
89
90
89
90
90
91
91
92
92
93
94
95
96
97
98
99
99
100
100
100
100
99
99
99
98
98
96
95
94
94
93
92
92
91
91
90
90
89
89
89
89
90
90
90
91
91
92
93
94
95
96
97
97
97
98
98
98
98
98
98
97
98
97
96
96
96
95
95
94
94
94
94
93
93
92
91
91
89
88
86
86
84
82
80
79
78
77
75
74
74
73
74
74
75
75
75
76
76
77
78
79
81
82
83
84
85
86
86
87
87
86
86
85
84
83
81
81
79
78
76
75
74
73
72
71
71
70
70
70
71
70
70
71
71
72
73
73
74
74
75
76
77
77
78
78
79
80
80
81
82
81
82
83
83
83
83
83
84
84
84
84
84
84
85
85
86
86
88
87
88
89
89
90
91
91
92
92
93
93
93
92
92
92
91
91
90
90
90
90
91
91
92
93
94
94
95
96
96
97
98
99
100
102
102
103
104
104
105
104
104
104
104
104
104
103
102
102
101
101
100
100
100
100
100
100
100
100
100
100
101
101
101
102
102
102
102
102
102
102
101
102
102
101
101
100
100
100
99
99
98
98
99
98
97
98
98
98
97
97
96
96
95
94
91
90
89
87
85
82
78
75
72
67
63
57
51
45
38
31
23
15
5
-3
-13
-20
-30
-39
-49
-58
-67
-75
-83
-91
-97
-103
-108
-112
-115
-116
-116
-114
-111
-106
-100
-93
-83
-74
-63
-51
-39
-27
-13
-1
12
25
37
49
61
72
81
89
97
103
107
112
114
116
117
117
