# Simple Text Format
# Sampling Rate (Hz):= 1200.00
# Resolution:= 12
# Labels:= ECG	 V5
# Age:=	26
# Gender:=	Masculino
-242
-242
-241
-240
-240
-240
-239
-239
-239
-239
-238
-238
-239
-238
-238
-238
-238
-237
-237
-237
-236
-237
-236
-236
-236
-235
-235
-235
-235
-234
-234
-233
-233
-232
-231
-231
-230
-230
-229
-228
-227
-227
-226
-225
-225
-225
-225
-225
-224
-224
-224
-224
-223
-223
-222
-222
-221
-221
-221
-221
-221
-220
-220
-219
-219
-219
-219
-219
-219
-218
-218
-216
-216
-216
-215
-215
-214
-215
-214
-213
-212
-212
-211
-211
-211
-211
-211
-210
-210
-209
-209
-209
-209
-208
-209
-208
-207
-207
-206
-205
-205
-204
-202
-203
-201
-201
-200
-199
-199
-198
-198
-196
-196
-195
-194
-193
-193
-192
-191
-190
-190
-189
-188
-187
-186
-186
-186
-184
-184
-183
-182
-182
-181
-180
-179
-178
-177
-176
-175
-173
-172
-171
-170
-168
-167
-165
-165
-164
-163
-162
-160
-160
-158
-157
-156
-155
-154
-152
-151
-150
-149
-148
-147
-146
-144
-143
-142
-140
-139
-138
-137
-135
-133
-132
-130
-130
-128
-126
-125
-123
-122
-121
-120
-119
-118
-116
-114
-113
-112
-111
-109
-107
-106
-104
-102
-101
-98
-97
-95
-93
-90
-89
-86
-85
-83
-81
-79
-77
-76
-75
-73
-71
-70
-68
-66
-65
-64
-63
-61
-61
-60
-60
-59
-59
-58
-57
-57
-57
-57
-57
-58
-57
-57
-57
-57
-57
-58
-58
-58
-59
-58
-59
-60
-61
-62
-63
-65
-65
-67
-69
-70
-72
-74
-76
-78
-81
-83
-85
-88
-91
-93
-96
-98
-102
-105
-108
-112
-115
-119
-122
-126
-130
-133
-136
-140
-142
-146
-148
-151
-155
-157
-161
-163
-167
-169
-173
-176
-178
-181
-184
-187
-189
-193
-195
-198
-200
-203
-206
-208
-210
-213
-215
-217
-219
-221
-223
-225
-227
-229
-230
-231
-233
-234
-235
-236
-237
-238
-238
-239
-240
-241
-241
-242
-243
-243
-244
-244
-245
-245
-246
-246
-246
-247
-247
-247
-247
-247
-247
-248
-247
-247
-248
-248
-248
-248
-248
-248
-248
-248
-248
-248
-248
-248
-249
-248
-248
-248
-248
-248
-248
-248
-247
-247
-246
-247
-247
-247
-247
-247
-247
-247
-247
-247
-248
-248
-248
-248
-248
-248
-249
-248
-249
-249
-249
-249
-249
-249
-250
-250
-250
-250
-250
-250
-250
-251
-251
-251
-250
-250
-250
-250
-251
-250
-250
-251
-251
-250
-250
-250
-250
-250
-250
-250
-250
-250
-249
-249
-250
-249
-249
-249
-249
-249
-249
-249
-249
-249
-248
-248
-248
-248
-248
-249
-248
-248
-248
-248
-248
-247
-247
-247
-247
-246
-246
-246
-247
-247
-247
-247
-247
-247
-247
-247
-247
-246
-246
-246
-246
-246
-246
-245
-245
-244
-245
-245
-244
-244
-244
-244
-244
-244
-244
-244
-244
-244
-245
-246
-246
-245
-247
-247
-248
-248
-248
-249
-249
-250
-250
-250
-250
-251
-251
-251
-251
-252
-251
-251
-251
-251
-251
-251
-251
-251
-251
-251
-252
-252
-251
-252
-253
-253
-253
-252
-253
-252
-253
-253
-253
-253
-254
-253
-254
-253
-253
-254
-254
-254
-253
-254
-254
-254
-254
-254
-254
-254
-254
-254
-254
-254
-254
-253
-253
-253
-253
-254
-254
-254
-253
-253
-253
-253
-253
-254
-253
-253
-253
-254
-253
-253
-253
-253
-252
-253
-253
-253
-253
-254
-254
-253
-253
-254
-254
-254
-254
-254
-254
-254
-254
-255
-255
-254
-255
-254
-255
-255
-255
-254
-254
-255
-254
-254
-254
-254
-253
-253
-253
-253
-253
-253
-253
-253
-252
-251
-251
-252
-252
-252
-252
-253
-253
-253
-253
-254
-254
-254
-254
-255
-255
-256
-256
-257
-256
-256
-256
-257
-257
-258
-258
-258
-258
-258
-258
-258
-258
-257
-257
-257
-256
-256
-256
-256
-256
-255
-254
-254
-254
-255
-255
-254
-254
-255
-255
-255
-255
-255
-256
-256
-256
-256
-257
-257
-257
-258
-258
-259
-259
-259
-259
-259
-259
-259
-259
-259
-259
-258
-258
-258
-258
-258
-258
-258
-257
-257
-257
-257
-258
-258
-257
-257
-257
-257
-256
-257
-256
-256
-256
-256
-257
-256
-256
-256
-255
-255
-255
-256
-256
-256
-257
-256
-256
-257
-256
-257
-257
-257
-257
-257
-257
-257
-257
-256
-256
-256
-256
-256
-255
-255
-255
-254
-254
-254
-254
-254
-254
-253
-253
-253
-252
-252
-252
-252
-252
-252
-252
-252
-252
-253
-253
-253
-254
-255
-254
-254
-255
-255
-256
-256
-255
-256
-256
-256
-257
-257
-257
-257
-257
-257
-257
-258
-258
-258
-258
-257
-257
-257
-257
-257
-256
-256
-256
-256
-256
-255
-255
-256
-256
-256
-256
-255
-255
-255
-256
-256
-256
-256
-256
-255
-255
-256
-256
-255
-256
-255
-255
-255
-254
-255
-255
-255
-255
-254
-255
-255
-255
-254
-254
-254
-254
-254
-254
-253
-253
-254
-253
-252
-252
-252
-252
-252
-252
-251
-250
-250
-250
-249
-248
-248
-247
-246
-245
-245
-244
-244
-243
-243
-243
-242
-242
-242
-241
-241
-241
-241
-240
-240
-239
-239
-239
-238
-238
-237
-236
-236
-234
-234
-233
-232
-231
-231
-231
-229
-229
-228
-228
-228
-228
-227
-227
-228
-228
-228
-229
-231
-231
-233
-233
-235
-235
-237
-238
-239
-239
-241
-241
-242
-242
-243
-243
-243
-243
-243
-244
-244
-244
-244
-245
-245
-246
-246
-246
-246
-247
-247
-247
-248
-248
-248
-249
-249
-249
-250
-250
-250
-250
-250
-250
-250
-250
-251
-251
-251
-252
-251
-252
-252
-252
-252
-252
-252
-252
-252
-253
-253
-254
-254
-255
-255
-256
-256
-256
-257
-258
-258
-258
-257
-257
-257
-258
-258
-257
-256
-256
-256
-256
-256
-256
-255
-256
-256
-255
-255
-255
-255
-255
-255
-255
-256
-255
-256
-255
-256
-256
-255
-255
-255
-256
-257
-256
-256
-256
-256
-256
-255
-255
-255
-254
-253
-253
-252
-252
-252
-251
-251
-251
-251
-251
-251
-251
-251
-252
-252
-254
-254
-255
-256
-257
-257
-258
-258
-258
-258
-256
-254
-253
-250
-247
-243
-238
-233
-227
-218
-211
-201
-190
-178
-166
-152
-138
-124
-108
-92
-75
-58
-41
-22
-5
14
32
49
66
84
100
116
132
145
157
165
172
175
175
172
166
155
143
128
109
88
65
40
14
-14
-43
-72
-101
-130
-158
-185
-209
-232
-253
-271
-286
-298
-308
-315
-320
-322
-323
-322
-319
-316
-311
-306
-300
-292
-286
-279
-271
-265
-259
-252
-247
-241
-237
-233
-230
-227
-224
-222
-220
-220
-219
-219
-218
-218
-219
-219
-220
-221
-221
-222
-223
-224
-224
-225
-226
-226
-227
-227
-227
-227
-228
-227
-227
-226
-225
-225
-224
-223
-223
-222
-221
-221
-219
-219
-219
-219
-219
-219
-219
-218
-218
-218
-218
-219
-219
-218
-219
-218
-218
-219
-218
-219
-219
-218
-218
-218
-218
-218
-218
-218
-217
-217
-217
-216
-216
-216
-215
-214
-213
-213
-212
-213
-211
-211
-211
-211
-211
-210
-210
-210
-210
-209
-209
-208
-208
-208
-207
-206
-206
-206
-205
-205
-204
-204
-203
-203
-203
-203
-203
-202
-202
-201
-201
-200
-200
-200
-199
-199
-198
-197
-198
-197
-197
-196
-195
-195
-194
-194
-194
-192
-192
-192
-190
-190
-188
-188
-187
-186
-185
-184
-183
-183
-181
-181
-181
-180
-179
-179
-179
-178
-178
-178
-178
-177
-176
-177
-176
-176
-175
-174
-173
-173
-173
-172
-171
-170
-170
-168
-168
-167
-165
-165
-163
-163
-162
-161
-160
-159
-158
-158
-158
-157
-156
-156
-155
-154
-154
-153
-152
-151
-150
-149
-148
-147
-146
-145
-144
-142
-141
-139
-138
-136
-135
-134
-133
-131
-131
-129
-128
-127
-125
-124
-122
-121
-120
-118
-115
-115
-112
-111
-109
-107
-106
-104
-102
-101
-99
-97
-96
-94
-93
-92
-89
-88
-86
-85
-84
-81
-80
-78
-77
-76
-74
-74
-72
-70
-69
-68
-67
-65
-64
-62
-61
-60
-59
-58
-56
-55
-55
-54
-53
-53
-52
-52
-52
-52
-52
-52
-52
-52
-53
-52
-53
-53
-54
-55
-56
-57
-58
-59
-59
-61
-62
-64
-65
-67
-69
-71
-73
-75
-78
-80
-83
-85
-88
-90
-92
-95
-98
-100
-103
-106
-109
-112
-116
-119
-122
-125
-128
-131
-134
-137
-141
-143
-146
-149
-152
-155
-158
-161
-163
-167
-169
-172
-175
-178
-181
-183
-187
-189
-191
-194
-196
-199
-201
-203
-205
-207
-208
-210
-212
-213
-214
-215
-217
-218
-219
-220
-220
-221
-222
-223
-223
-224
-224
-224
-226
-226
-226
-227
-229
-229
-230
-231
-232
-234
-234
-235
-237
-237
-238
-239
-239
-240
-240
-241
-241
-241
-241
-241
-240
-240
-240
-240
-239
-239
-239
-239
-239
-239
-238
-238
-237
-237
-237
-237
-237
-236
-236
-236
-236
-237
-237
-238
-238
-238
-238
-239
-239
-240
-240
-240
-240
-241
-241
-241
-242
-242
-242
-242
-242
-242
-242
-242
-243
-243
-243
-243
-243
-243
-244
-244
-243
-243
-243
-243
-243
-243
-243
-242
-243
-242
-242
-242
-242
-242
-241
-241
-242
-241
-240
-241
-240
-240
-240
-239
-239
-238
-238
-238
-237
-237
-237
-238
-237
-238
-238
-238
-238
-239
-238
-239
-239
-239
-238
-238
-238
-239
-238
-238
-238
-237
-237
-237
-237
-236
-236
-236
-235
-235
-236
-236
-235
-235
-236
-236
-236
-237
-237
-237
-237
-237
-237
-238
-238
-238
-239
-239
-240
-239
-239
-240
-240
-240
-240
-240
-239
-239
-239
-239
-239
-239
-239
-239
-240
-239
-239
-240
-241
-241
-241
-241
-241
-242
-242
-242
-242
-242
-243
-243
-243
-243
-243
-243
-243
-244
-244
-244
-244
-244
-245
-244
-244
-244
-245
-245
-245
-245
-245
-245
-246
-246
-246
-246
-246
-246
-247
-246
-248
-248
-248
-247
-248
-248
-249
-248
-248
-248
-248
-248
-248
-248
-248
-248
-248
-247
-247
-247
-246
-246
-247
-247
-247
-246
-246
-246
-246
-246
-246
-246
-246
-246
-245
-245
-245
-245
-246
-246
-246
-246
-246
-247
-247
-247
-247
-247
-247
-247
-247
-247
-248
-247
-248
-248
-248
-248
-249
-249
-249
-249
-250
-250
-249
-249
-249
-249
-249
-248
-248
-248
-248
-248
-248
-249
-248
-249
-250
-251
-250
-251
-251
-251
-252
-252
-252
-252
-252
-252
-252
-252
-252
-252
-252
-252
-252
-251
-251
-251
-251
-251
-251
-251
-250
-251
-250
-249
-250
-249
-249
-249
-250
-249
-249
-249
-251
-251
-251
-251
-252
-252
-252
-252
-253
-253
-253
-252
-253
-253
-252
-253
-252
-252
-252
-253
-252
-252
-252
-252
-252
-252
-252
-252
-252
-251
-251
-251
-251
-251
-250
-250
-250
-250
-250
-250
-251
-251
-251
-250
-251
-252
-251
-251
-251
-251
-252
-252
-251
-252
-252
-252
-252
-252
-252
-252
-253
-253
-253
-253
-254
-254
-254
-254
-254
-254
-253
-253
-253
-254
-254
-253
-253
-253
-252
-252
-252
-252
-252
-252
-252
-252
-251
-251
-250
-250
-250
-249
-249
-248
-248
-247
-247
-246
-246
-245
-245
-244
-244
-243
-243
-241
-240
-240
-240
-240
-239
-238
-238
-237
-237
-237
-236
-237
-236
-236
-236
-235
-235
-235
-235
-235
-235
-235
-235
-234
-234
-234
-233
-233
-233
-233
-231
-231
-231
-231
-231
-231
-231
-232
-232
-233
-232
-233
-233
-234
-234
-235
-235
-236
-236
-237
-238
-238
-238
-240
-240
-241
-242
-242
-243
-243
-243
-244
-245
-245
-244
-245
-245
-246
-246
-246
-246
-246
-246
-247
-247
-248
-248
-248
-248
-249
-249
-249
-249
-249
-249
-250
-251
-251
-251
-251
-252
-252
-253
-253
-254
-255
-256
-256
-256
-257
-258
-258
-259
-259
-260
-260
-260
-259
-260
-260
-260
-260
-260
-259
-259
-260
-260
-260
-259
-259
-259
-259
-259
-259
-259
-259
-258
-258
-259
-258
-258
-259
-259
-259
-259
-259
-258
-259
-259
-259
-259
-259
-259
-259
-259
-259
-258
-258
-258
-258
-257
-257
-257
-257
-257
-257
-257
-256
-256
-257
-256
-256
-256
-256
-256
-257
-257
-257
-259
-258
-258
-258
-258
-258
-257
-256
-255
-253
-250
-247
-243
-239
-233
-226
-220
-211
-202
-191
-180
-169
-156
-142
-128
-113
-98
-82
-66
-49
-32
-16
1
19
36
53
68
84
99
112
124
134
142
146
148
147
142
135
125
112
97
77
57
34
10
-16
-43
-71
-99
-127
-154
-180
-205
-228
-249
-268
-285
-298
-309
-317
-323
-327
-328
-327
-325
-322
-317
-313
-306
-299
-293
-286
-279
-272
-266
-260
-255
-250
-246
-242
-238
-235
-232
-231
-229
-228
-227
-226
-225
-226
-226
-226
-226
-227
-227
-227
-228
-228
-229
-229
-230
-230
-231
-231
-230
-232
-232
-232
-231
-232
-232
-232
-232
-232
-232
-232
-232
-231
-231
-231
-231
-231
-230
-230
-229
-229
-229
-228
-228
-227
-226
-226
-226
-225
-225
-224
-224
-224
-224
-224
-224
-224
-224
-224
-223
-223
-223
-222
-222
-221
-221
-220
-221
-220
-220
-220
-218
-218
-218
-218
-217
-218
-217
-217
-215
-216
-215
-214
-214
-213
-212
-212
-212
-211
-211
-211
-210
-210
-210
-210
-210
-210
-210
-210
-210
-210
-209
-210
-209
-209
-209
-209
-208
-209
-208
-208
-208
-207
-207
-206
-206
-205
-205
-203
-203
-202
-202
-201
-200
-199
-198
-198
-197
-196
-196
-195
-195
-193
-193
-192
-191
-191
-191
-190
-190
-189
-188
-188
-187
-186
-185
-184
-184
-183
-182
-182
-181
-181
-180
-180
-179
-178
-178
-177
-177
-176
-175
-174
-174
-173
-172
-171
-170
-169
-168
-167
-166
-165
-165
-164
-164
-163
-162
-161
-159
-158
-157
-156
-154
-153
-152
-151
-150
-148
-146
-145
-144
-142
-141
-140
-139
-137
-135
-135
-133
-132
-130
-129
-128
-126
-125
-123
-121
-120
-119
-118
-115
-114
-113
-112
-110
-109
-107
-106
-104
-102
-100
-99
-97
-95
-93
-91
-90
-88
-86
-84
-83
-82
-81
-80
-78
-76
-75
-74
-73
-72
-71
-70
-69
-68
-67
-66
-66
-65
-64
-64
-63
-62
-61
-62
-60
-60
-59
-59
-60
-58
-58
-59
-59
-58
-59
-59
-59
-61
-61
-62
-63
-65
-67
-68
-71
-72
-75
-77
-79
-81
-83
-87
-89
-92
-95
-97
-101
-103
-107
-110
-114
-117
-120
-123
-127
-130
-133
-136
-138
-142
-145
-147
-150
-154
-156
-158
-162
-164
-167
-169
-171
-174
-177
-179
-181
-183
-185
-187
-190
-192
-194
-196
-198
-200
-202
-204
-206
-208
-210
-212
-214
-216
-218
-220
-221
-224
-225
-226
-228
-229
-230
-231
-232
-233
-233
-234
-234
-235
-235
-235
-235
-235
-236
-237
-237
-237
-238
-238
-238
-238
-239
-239
-240
-240
-241
-241
-241
-241
-242
-242
-243
-244
-244
-245
-245
-245
-245
-245
-245
-245
-245
-245
-245
-245
-245
-245
-245
-244
-244
-244
-244
-245
-245
-244
-244
-244
-245
-244
-244
-244
-244
-243
-243
-243
-243
-243
-243
-243
-242
-243
-243
-243
-244
-244
-244
-244
-244
-244
-243
-243
-244
-244
-243
-242
-242
-242
-242
-242
-242
-242
-242
-241
-241
-242
-242
-242
-242
-242
-243
-243
-243
-244
-243
-244
-244
-245
-244
-244
-244
-244
-244
-244
-244
-244
-244
-243
-242
-242
-241
-241
-241
-241
-241
-241
-241
-241
-241
-240
-241
-241
-243
-243
-244
-244
-244
-245
-247
-247
-248
-248
-249
-248
-248
-249
-248
-248
-248
-249
-248
-248
-248
-249
-248
-248
-247
-248
-248
-247
-247
-247
-247
-247
-247
-247
-247
-247
-246
-246
-246
-246
-246
-247
-247
-246
-246
-246
-246
-246
-246
-246
-246
-246
-246
-246
-246
-246
-246
-245
-245
-245
-245
-246
-246
-245
-246
-246
-246
-246
-247
-247
-247
-247
-247
-248
-248
-248
-248
-248
-248
-248
-248
-248
-249
-248
-248
-248
-249
-248
-248
-248
-248
-248
-247
-248
-248
-248
-249
-248
-248
-249
-249
-250
-251
-251
-251
-252
-252
-253
-253
-253
-254
-254
-253
-253
-253
-253
-253
-253
-253
-253
-254
-254
-254
-254
-254
-255
-254
-255
-255
-255
-255
-255
-255
-255
-255
-255
-254
-254
-254
-254
-254
-254
-254
-255
-255
-255
-254
-254
-254
-254
-254
-255
-255
-255
-255
-255
-255
-255
-255
-256
-256
-256
-257
-257
-257
-257
-257
-257
-257
-257
-257
-256
-256
-257
-256
-255
-255
-255
-255
-255
-255
-254
-254
-254
-254
-254
-255
-255
-255
-255
-255
-255
-255
-256
-256
-257
-257
-256
-257
-257
-258
-258
-259
-259
-259
-259
-259
-258
-258
-257
-257
-257
-257
-256
-255
-255
-255
-255
-255
-255
-255
-255
-255
-255
-256
-256
-256
-257
-257
-257
-258
-258
-259
-260
-259
-259
-260
-260
-259
-259
-259
-259
-258
-258
-258
-257
-257
-256
-255
-255
-255
-253
-254
-253
-252
-252
-251
-251
-250
-250
-250
-250
-249
-249
-248
-248
-249
-248
-248
-248
-247
-247
-246
-246
-246
-246
-245
-245
-245
-243
-243
-243
-243
-242
-242
-242
-241
-241
-241
-240
-239
-239
-239
-238
-238
-238
-238
-238
-238
-238
-239
-239
-240
-240
-241
-241
-242
-242
-244
-244
-244
-245
-245
-246
-247
-248
-248
-249
-249
-249
-249
-249
-250
-250
-250
-251
-251
-252
-252
-252
-252
-252
-251
-251
-251
-251
-252
-252
-252
-253
-254
-254
-255
-256
-256
-258
-258
-259
-260
-261
-261
-262
-263
-264
-264
-264
-266
-266
-266
-267
-267
-267
-268
-267
-267
-267
-268
-268
-268
-267
-267
-266
-266
-266
-266
-265
-265
-265
-265
-265
-265
-265
-265
-265
-265
-266
-266
-267
-267
-266
-266
-266
-267
-266
-267
-267
-267
-266
-266
-266
-266
-266
-266
-266
-266
-266
-266
-266
-265
-265
-265
-265
-264
-264
-264
-264
-264
-263
-263
-262
-262
-262
-262
-262
-262
-262
-262
-262
-262
-263
-263
-263
-263
-264
-265
-264
-264
-264
-263
-262
-261
-259
-256
-252
-249
-244
-238
-232
-224
-215
-205
-194
-182
-169
-156
-141
-126
-109
-92
-75
-58
-39
-22
-3
15
33
50
68
85
101
116
130
141
151
157
159
159
155
148
138
124
108
90
68
43
19
-8
-37
-67
-95
-125
-154
-182
-210
-234
-258
-278
-295
-310
-322
-331
-338
-343
-345
-344
-342
-339
-334
-328
-322
-314
-308
-300
-292
-285
-278
-272
-265
-260
-255
-250
-246
-242
-240
-238
-235
-234
-234
-233
-232
-232
-232
-232
-232
-232
-232
-232
-234
-233
-233
-234
-234
-234
-235
-235
-235
-235
-234
-234
-234
-234
-234
-233
-232
-232
-232
-232
-231
-231
-230
-230
-229
-229
-229
-229
-228
-228
-228
-228
-227
-226
-226
-226
-226
-225
-225
-225
-225
-225
-224
-224
-224
-224
-224
-224
-224
-224
-223
-223
-222
-222
-222
-221
-220
-220
-220
-219
-218
-218
-218
-218
-217
-216
-216
-216
-216
-216
-215
-215
-215
-215
-215
-214
-213
-213
-213
-213
-213
-212
-211
-211
-211
-210
-210
-210
-209
-209
-208
-207
-207
-206
-206
-205
-204
-205
-204
-203
-203
-202
-202
-201
-201
-202
-202
-201
-201
-201
-201
-200
-200
-199
-199
-198
-198
-197
-196
-195
-195
-194
-194
-193
-192
-192
-191
-191
-190
-190
-189
-188
-187
-187
-185
-184
-184
-183
-182
-182
-181
-179
-179
-178
-178
-176
-176
-175
-174
-173
-173
-172
-171
-170
-169
-168
-167
-166
-165
-164
-162
-161
-160
-159
-158
-157
-155
-154
-153
-151
-151
-150
-148
-146
-145
-144
-142
-141
-140
-140
-138
-137
-136
-135
-133
-133
-132
-130
-129
-128
-127
-126
-124
-123
-122
-120
-117
-116
-115
-112
-111
-108
-106
-104
-103
-100
-98
-96
-94
-93
-90
-89
-88
-85
-84
-82
-81
-79
-78
-76
-75
-73
-72
-71
-69
-68
-67
-66
-66
-65
-64
-62
-61
-60
-59
-58
-57
-56
-55
-54
-53
-53
-52
-52
-50
-50
-51
-50
-50
-50
-50
-50
-50
-50
-51
-51
-52
-52
-53
-55
-56
-58
-60
-62
-64
-66
-68
-71
-74
-77
-80
-82
-86
-89
-92
-96
-98
-102
-105
-109
-111
-115
-118
-121
-125
-129
-132
-135
-139
-142
-145
-148
-151
-154
-157
-160
-163
-166
-168
-172
-174
-177
-180
-182
-186
-188
-192
-194
-197
-200
-202
-205
-208
-210
-211
-214
-216
-218
-220
-222
-224
-225
-226
-228
-230
-231
-232
-233
-234
-235
-236
-237
-237
-238
-238
-239
-239
-239
-240
-241
-241
-242
-243
-244
-244
-246
-246
-247
-248
-248
-249
-250
-250
-250
-252
-252
-252
-252
-252
-252
-253
-253
-254
-254
-254
-254
-254
-254
-254
-253
-253
-253
-252
-252
-252
-252
-252
-250
-251
-250
-250
-250
-250
-251
-251
-251
-252
-252
-252
-252
-252
-252
-252
-253
-253
-253
-254
-253
-253
-254
-253
-253
-253
-253
-253
-252
-252
-252
-252
-252
-251
-251
-251
-251
-252
-252
-251
-252
-252
-252
-253
-253
-253
-254
-254
-254
-255
-255
-255
-255
-255
-255
-255
-254
-254
-254
-254
-253
-252
-252
-252
-251
-251
-252
-251
-251
-251
-251
-251
-251
-251
-251
-251
-252
-252
-253
-252
-252
-253
-253
-253
-253
-253
-253
-253
-254
-254
-254
-254
-255
-254
-254
-254
-254
-253
-253
-253
-253
-253
-253
-253
-253
-253
-253
-254
-254
-253
-254
-255
-255
-255
-256
-256
-256
-256
-256
-256
-256
-256
-256
-256
-257
-257
-257
-257
-257
-258
-258
-257
-257
-257
-257
-256
-256
-256
-256
-256
-256
-255
-254
-254
-254
-254
-254
-254
-254
-254
-254
-254
-254
-255
-254
-254
-253
-254
-254
-254
-254
-253
-253
-254
-254
-254
-253
-253
-254
-253
-253
-253
-253
-254
-254
-254
-254
-254
-254
-253
-253
-253
-253
-253
-253
-253
-253
-253
-253
-253
-253
-253
-253
-254
-254
-254
-255
-255
-255
-255
-255
-256
-256
-257
-257
-257
-259
-259
-259
-260
-260
-260
-261
-261
-261
-261
-261
-261
-261
-261
-261
-261
-261
-260
-260
-260
-260
-260
-260
-261
-261
-261
-260
-260
-261
-261
-260
-260
-260
-261
-261
-261
-261
-261
-261
-260
-260
-260
-261
-260
-260
-260
-259
-260
-260
-259
-259
-259
-258
-259
-258
-258
-258
-258
-259
-259
-259
-259
-259
-260
-260
-260
-260
-260
-261
-261
-260
-260
-260
-260
-260
-260
-260
-259
-259
-259
-258
-259
-259
-258
-259
-259
-259
-259
-259
-260
-260
-260
-261
-261
-261
-262
-262
-263
-263
-264
-264
-264
-264
-265
-265
-264
-265
-265
-265
-265
-264
-264
-264
-264
-263
-263
-263
-263
-262
-262
-262
-262
-262
-262
-262
-262
-262
-263
-263
-262
-262
-262
-262
-263
-263
-263
-263
-263
-263
-263
-262
-263
-263
-263
-263
-264
-264
-264
-264
-264
-264
-264
-264
-263
-263
-264
-264
-263
-263
-263
-264
-264
-264
-264
-263
-264
-264
-265
-265
-265
-264
-264
-264
-264
-264
-264
-264
-263
-263
-263
-263
-263
-263
-263
-263
-263
-263
-263
-263
-262
-262
-261
-261
-260
-261
-261
-261
-260
-260
-261
-261
-261
-261
-261
-261
-261
-261
-262
-262
-261
-261
-261
-261
-260
-260
-260
-260
-259
-259
-259
-258
-258
-258
-257
-256
-256
-255
-254
-254
-254
-252
-252
-251
-250
-250
-249
-249
-247
-247
-247
-246
-245
-244
-245
-244
-243
-242
-242
-242
-241
-241
-240
-240
-239
-238
-238
-238
-238
-238
-238
-238
-238
-239
-240
-240
-241
-241
-242
-243
-244
-244
-246
-246
-247
-248
-249
-249
-250
-251
-252
-253
-253
-255
-255
-256
-256
-256
-257
-257
-257
-258
-257
-257
-257
-257
-256
-257
-257
-257
-257
-257
-257
-256
-256
-256
-256
-257
-257
-257
-258
-258
-258
-258
-258
-258
-259
-259
-260
-260
-261
-261
-262
-262
-263
-263
-263
-264
-264
-264
-264
-265
-265
-265
-265
-265
-265
-265
-266
-265
-266
-266
-266
-265
-265
-265
-266
-265
-265
-265
-265
-265
-264
-264
-264
-264
-264
-264
-263
-263
-264
-264
-263
-265
-265
-265
-265
-265
-265
-266
-266
-266
-266
-266
-267
-266
-266
-267
-267
-267
-267
-267
-266
-266
-267
-267
-267
-266
-266
-266
-266
-266
-265
-265
-265
-266
-266
-266
-266
-267
-266
-267
-266
-267
-266
-265
-263
-262
-261
-257
-254
-249
-244
-239
-232
-224
-215
-205
-195
-183
-171
-157
-143
-127
-112
-95
-77
-59
-41
-22
-3
15
34
54
73
91
109
125
140
154
165
174
180
182
181
176
169
158
145
128
107
84
60
33
4
-24
-55
-86
-116
-146
-176
-204
-230
-253
-274
-291
-306
-318
-328
-334
-338
-339
-339
-337
-334
-329
-322
-316
-309
-303
-295
-289
-282
-275
-268
-262
-257
-252
-248
-245
-240
-238
-235
-233
-232
-231
-229
-229
-228
-228
-228
-228
-228
-230
-230
-231
-231
-232
-232
-234
-234
-235
-235
-236
-236
-237
-237
-237
-238
-237
-237
-237
-237
-237
-237
-237
-237
-236
-236
-236
-235
-234
-233
-233
-232
-232
-232
-231
-231
-230
-229
-229
-229
-229
-228
-229
-228
-229
-229
-229
-229
-228
-228
-228
-227
-227
-227
-226
-227
-227
-226
-225
-225
-225
-224
-223
-223
-222
-221
-221
-220
-219
-219
-218
-217
-216
-216
-215
-214
-214
-214
-214
-214
-214
-214
-213
-213
-213
-213
-213
-213
-212
-213
-212
-212
-212
-211
-211
-211
-210
-209
-209
-209
-209
-208
-208
-208
-207
-207
-206
-206
-206
-205
-204
-203
-203
-202
-202
-201
-200
-200
-200
-199
-198
-198
-198
-197
-197
-196
-195
-194
-194
-193
-191
-191
-191
-190
-189
-188
-188
-187
-187
-186
-186
-185
-185
-184
-184
-183
-182
-181
-181
-181
-180
-179
-178
-177
-176
-174
-174
-173
-171
-170
-169
-168
-168
-167
-165
-164
-163
-162
-160
-160
-158
-157
-156
-155
-153
-152
-151
-150
-150
-149
-148
-146
-145
-144
-143
-142
-141
-139
-137
-136
-135
-133
-131
-130
-128
-127
-125
-124
-123
-121
-120
-119
-117
-115
-114
-112
-111
-110
-108
-107
-105
-103
-102
-99
-98
-96
-94
-93
-92
-89
-88
-86
-85
-83
-82
-80
-78
-77
-76
-75
-73
-72
-71
-70
-69
-67
-66
-66
-64
-64
-62
-62
-61
-61
-60
-60
-58
-58
-57
-57
-56
-55
-55
-55
-55
-55
-55
-56
-57
-58
-59
-61
-62
-63
-65
-67
-69
-71
-74
-77
-79
-82
-85
-88
-90
-93
-96
-100
-102
-105
-109
-112
-115
-118
-122
-125
-128
-131
-134
-137
-140
-143
-147
-150
-152
-156
-159
-162
-166
-168
-171
-174
-177
-180
-183
-186
-189
-191
-194
-196
-199
-201
-203
-205
-208
-211
-212
-214
-216
-219
-220
-222
-224
-225
-227
-229
-230
-232
-233
-234
-235
-237
-238
-238
-239
-240
-241
-242
-242
-243
-244
-244
-245
-246
-246
-247
-247
-247
-248
-248
-249
-249
-249
-249
-249
-249
-250
-250
-249
-251
-251
-250
-251
-251
-252
-253
-253
-253
-253
-254
-254
-254
-254
-254
-254
-255
-255
-255
-254
-255
-255
-255
-255
-255
-255
-255
-255
-255
-255
-256
-255
-255
-255
-255
-255
-255
-255
-255
-254
-254
-255
-254
-254
-255
-254
-254
-254
-254
-254
-254
-254
-254
-254
-254
-255
-255
-255
-255
-255
-256
-256
-257
-257
-257
-257
-258
-258
-258
-258
-258
-257
-257
-257
-257
-256
-256
-256
-256
-256
-256
-255
-255
-255
-255
-255
-255
-255
-255
-254
-254
-255
-255
-255
-255
-254
-254
-255
-255
-255
-256
-255
-256
-256
-256
-256
-257
-257
-257
-257
-257
-256
-256
-256
-256
-256
-255
-255
-255
-255
-255
-255
-254
-255
-255
-254
-255
-255
-255
-255
-255
-256
-257
-257
-257
-257
-258
-259
-259
-260
-261
-261
-262
-262
-262
-263
-263
-263
-263
-263
-263
-262
-262
-262
-262
-262
-262
-261
-261
-261
-260
-260
-261
-261
-260
-260
-260
-261
-260
-260
-260
-260
-260
-261
-261
-260
-260
-260
-261
-261
-261
-261
-262
-262
-263
-263
-263
-263
-263
-264
-263
-264
-264
-263
-264
-264
-264
-264
-264
-264
-264
-264
-265
-265
-265
-265
-264
-264
-264
-264
-264
-264
-264
-264
-264
-264
-264
-264
-264
-264
-264
-264
-264
-264
-264
-264
-264
-265
-264
-264
-263
-264
-264
-263
-263
-263
-264
-263
-264
-264
-264
-265
-264
-265
-265
-265
-265
-266
-266
-266
-267
-266
-266
-266
-266
-267
-266
-266
-266
-267
-267
-266
-266
-266
-266
-266
-265
-265
-266
-266
-265
-265
-265
-265
-265
-265
-264
-264
-264
-264
-264
-264
-265
-265
-265
-265
-265
-265
-265
-265
-265
-265
-264
-264
-264
-264
-263
-262
-262
-261
-261
-262
-261
-261
-261
-261
-262
-262
-262
-261
-261
-262
-263
-263
-263
-264
-265
-264
-266
-266
-266
-267
-266
-267
-267
-266
-267
-267
-266
-266
-266
-266
-266
-265
-265
-265
-265
-264
-264
-265
-265
-265
-265
-265
-265
-265
-265
-265
-265
-265
-266
-266
-265
-265
-265
-265
-265
-265
-265
-264
-265
-265
-265
-265
-265
-266
-266
-266
-266
-266
-267
-266
-266
-267
-267
-267
-267
-267
-268
-268
-269
-269
-269
-269
-269
-269
-268
-268
-268
-268
-267
-267
-267
-266
-266
-266
-265
-264
-265
-265
-265
-264
-264
-264
-264
-265
-264
-264
-264
-264
-264
-264
-264
-265
-265
-265
-264
-264
-264
-264
-263
-263
-263
-263
-263
-263
-263
-263
-263
-262
-262
-261
-261
-260
-259
-260
-259
-259
-259
-257
-257
-257
-257
-256
-256
-255
-255
-254
-253
-252
-252
-250
-250
-248
-247
-247
-245
-244
-244
-243
-243
-243
-243
-242
-242
-242
-242
-242
-242
-242
-243
-243
-243
-243
-244
-244
-245
-246
-246
-246
-246
-247
-247
-247
-247
-248
-248
-248
-248
-249
-248
-249
-250
-250
-250
-250
-250
-250
-251
-252
-252
-252
-252
-253
-254
-254
-254
-255
-255
-254
-256
-256
-256
-256
-257
-257
-257
-257
-258
-258
-259
-259
-260
-261
-261
-262
-261
-262
-262
-263
-263
-264
-264
-264
-264
-264
-264
-266
-266
-267
-267
-267
-268
-267
-269
-269
-269
-270
-270
-270
-270
-270
-270
-271
-271
-271
-270
-271
-271
-270
-270
-271
-270
-270
-270
-270
-270
-270
-271
-270
-270
-270
-270
-269
-269
-269
-269
-269
-269
-269
-269
-270
-269
-270
-270
-270
-270
-271
-270
-270
-270
-270
-270
-269
-269
-269
-268
-269
-269
-268
-268
-268
-268
-267
-267
-267
-267
-266
-266
-266
-266
-266
-266
-267
-267
-268
-270
-271
-271
-272
-273
-274
-273
-274
-272
-271
-269
-267
-264
-260
-256
-250
-243
-236
-227
-217
-206
-194
-181
-169
-153
-137
-121
-104
-86
-68
-48
-29
-9
10
30
50
70
90
109
127
144
161
173
185
193
197
198
196
189
180
167
150
131
108
82
54
24
-6
-37
-70
-103
-135
-166
-197
-225
-251
-274
-294
-312
-325
-337
-344
-350
-352
-352
-350
-347
-342
-336
-330
-323
-315
-308
-301
-293
-286
-280
-273
-267
-262
-258
-253
-250
-246
-243
-241
-239
-238
-237
-235
-235
-235
-234
-235
-235
-235
-236
-236
-237
-237
-237
-238
-237
-238
-238
-238
-238
-239
-238
-238
-238
-238
-238
-238
-238
-237
-236
-236
-236
-236
-236
-236
-234
-234
-233
-233
-232
-233
-232
-232
-231
-230
-230
-230
-230
-229
-229
-229
-229
-229
-229
-228
-228
-227
-227
-226
-226
-226
-226
-225
-224
-224
-223
-222
-222
-222
-222
-221
-220
-220
-220
-219
-218
-218
-218
-217
-217
-216
-216
-216
-215
-215
-215
-215
-215
-215
-215
-214
-214
-215
-214
-214
-215
-214
-214
-213
-214
-213
-212
-212
-212
-211
-211
-210
-210
-209
-209
-208
-207
-207
-207
-206
-205
-205
-204
-203
-202
-201
-201
-200
-200
-198
-198
-197
-196
-195
-194
-193
-193
-191
-190
-189
-188
-187
-186
-185
-185
-184
-185
-184
-183
-183
-182
-182
-182
-181
-182
-181
-181
-181
-181
-180
-180
-179
-178
-177
-177
-176
-174
-173
-173
-171
-170
-170
-168
-167
-166
-165
-164
-163
-161
-161
-159
-158
-157
-156
-155
-154
-152
-151
-150
-149
-148
-146
-145
-144
-143
-142
-141
-139
-138
-137
-135
-134
-132
-131
-128
-127
-125
-123
-121
-120
-117
-116
-114
-113
-110
-109
-106
-105
-102
-101
-99
-96
-94
-93
-91
-89
-87
-85
-83
-81
-79
-78
-76
-74
-73
-71
-69
-68
-67
-65
-64
-62
-61
-59
-58
-56
-55
-53
-52
-52
-50
-49
-48
-48
-46
-45
-45
-44
-43
-43
-42
-42
-41
-41
-40
-40
-40
-40
-41
-41
-42
-43
-44
-46
-47
-48
-50
-52
-53
-56
-58
-60
-63
-65
-67
-70
-73
-75
-78
-81
-84
-87
-90
-93
-96
-99
-103
-107
-110
-113
-117
-120
-124
-128
-131
-135
-138
-142
-145
-149
-152
-155
-159
-162
-166
-169
-173
-175
-178
-181
-184
-186
-188
-190
-193
-195
-198
-199
-201
-203
-204
-206
-208
-210
-211
-212
-214
-215
-217
-219
-221
-223
-224
-226
-227
-229
-231
-231
-233
-235
-237
-239
-239
-241
-243
-243
-244
-246
-247
-247
-247
-248
-248
-248
-249
-249
-249
-249
-250
-249
-249
-250
-250
-250
-249
-250
-250
-250
-249
-249
-249
-249
-249
-248
-249
-249
-248
-248
-248
-248
-247
-248
-248
-248
-248
-248
-248
-248
-248
-248
-248
-248
-248
-248
-248
-249
-249
-249
-250
-250
-250
-251
-251
-251
-252
-252
-252
-252
-252
-253
-252
-252
-252
-252
-252
-252
-252
-251
-251
-251
-251
-251
-251
-251
-251
-251
-251
-251
-251
-251
-251
-250
-250
-249
-250
-249
-249
-249
-248
-248
-249
-249
-249
-249
-249
-249
-250
-250
-249
-250
-250
-250
-250
-250
-250
-249
-249
-249
-249
-249
-249
-249
-249
-248
-248
-248
-247
-248
-248
-248
-248
-248
-247
-247
-247
-248
-248
-249
-248
-249
-249
-249
-250
-250
-252
-252
-252
-252
-252
-253
-253
-253
-253
-253
-252
-252
-252
-252
-252
-252
-251
-251
-251
-251
-250
-251
-251
-250
-251
-250
-250
-250
-250
-250
-250
-248
-248
-249
-249
-249
-249
-249
-249
-250
-250
-250
-251
-251
-252
-252
-252
-252
-253
-253
-253
-253
-253
-253
-252
-252
-253
-253
-252
-252
-253
-253
-252
-253
-253
-252
-252
-253
-253
-254
-253
-253
-253
-253
-253
-254
-253
-254
-255
-255
-254
-254
-254
-254
-254
-254
-253
-252
-252
-252
-251
-251
-251
-252
-252
-251
-252
-252
-252
-253
-253
-254
-255
-255
-256
-256
-257
-257
-257
-257
-258
-258
-258
-257
-257
-257
-257
-257
-257
-257
-257
-257
-257
-257
-257
-257
-256
-255
-255
-255
-255
-256
-256
-256
-255
-255
-256
-256
-256
-256
-256
-256
-257
-257
-256
-257
-257
-257
-257
-256
-256
-257
-257
-257
-257
-257
-257
-257
-257
-257
-257
-257
-257
-257
-258
-258
-258
-258
-258
-257
-258
-258
-257
-257
-257
-257
-257
-257
-256
-256
-257
-256
-256
-256
-255
-256
-256
-255
-255
-255
-255
-254
-254
-254
-254
-254
-255
-255
-255
-255
-255
-255
-255
-255
-256
-256
-255
-256
-256
-256
-256
-257
-257
-256
-257
-257
-257
-257
-257
-257
-257
-258
-258
-258
-258
-257
-257
-257
-257
-256
-257
-256
-256
-256
-256
-256
-255
-255
-255
-255
-254
-255
-255
-255
-254
-254
-254
-253
-253
-252
-251
-251
-251
-250
-249
-249
-249
-248
-247
-247
-247
-246
-246
-245
-245
-245
-245
-244
-244
-242
-241
-242
-240
-240
-239
-239
-237
-237
-236
-236
-236
-236
-236
-235
-235
-234
-234
-234
-234
-235
-235
-235
-236
-236
-237
-237
-239
-239
-240
-241
-241
-242
-243
-244
-244
-245
-245
-246
-246
-246
-247
-247
-247
-248
-248
-248
-248
-249
-249
-249
-250
-249
-250
-250
-250
-250
-250
-250
-249
-250
-250
-249
-249
-249
-249
-249
-250
-249
-250
-250
-250
-251
-252
-253
-254
-255
-256
-256
-257
-258
-259
-260
-261
-261
-262
-263
-263
-264
-264
-264
-265
-265
-265
-265
-265
-265
-265
-265
-265
-265
-264
-264
-264
-264
-263
-263
-263
-264
-264
-264
-264
-264
-264
-264
-264
-264
-264
-264
-264
-264
-263
-263
-263
-263
-262
-262
-262
-263
-263
-262
-262
-262
-261
-261
-261
-261
-261
-260
-260
-259
-258
-258
-257
-257
-256
-257
-257
-257
-257
-257
-258
-259
-260
-261
-261
-262
-263
-264
-264
-265
-265
-264
-264
-261
-259
-256
-253
-248
-243
-236
-229
-220
-211
-199
-187
-174
-160
-145
-129
-112
-94
-76
-57
-37
-18
2
21
41
62
82
102
121
139
156
172
186
197
205
210
212
209
203
193
180
164
144
122
95
66
37
5
-26
-59
-92
-126
-158
-190
-218
-245
-269
-289
-307
-321
-332
-339
-345
-348
-348
-346
-342
-338
-331
-324
-317
-309
-301
-293
-285
-277
-270
-264
-257
-251
-247
-241
-238
-235
-232
-230
-228
-227
-226
-226
-225
-225
-224
-224
-224
-225
-225
-225
-225
-225
-226
-225
-226
-226
-226
-226
-225
-226
-225
-225
-225
-224
-224
-224
-224
-223
-223
-223
-222
-222
-223
-223
-222
-223
-224
-224
-224
-225
-226
-226
-226
-227
-227
-227
-227
-227
-226
-227
-226
-226
-225
-225
-225
-223
-223
-222
-222
-221
-221
-220
-220
-219
-219
-217
-217
-217
-215
-215
-215
-214
-214
-213
-213
-212
-212
-211
-211
-211
-211
-211
-210
-210
-210
-210
-209
-208
-208
-208
-208
-207
-207
-206
-206
-206
-205
-205
-204
-204
-203
-203
-203
-202
-202
-202
-202
-201
-200
-199
-199
-198
-198
-196
-196
-195
-195
-194
-193
-193
-193
-192
-191
-190
-190
-189
-188
-188
-187
-186
-186
-186
-185
-184
-183
-183
-183
-182
-182
-181
-181
-180
-180
-179
-178
-177
-176
-176
-175
-174
-173
-172
-171
-170
-169
-168
-167
-166
-166
-164
-163
-163
-161
-160
-158
-157
-156
-155
-154
-153
-152
-151
-149
-149
-148
-146
-145
-145
-144
-143
-142
-141
-140
-139
-138
-137
-135
-134
-133
-132
-130
-129
-127
-126
-124
-123
-122
-119
-118
-117
-115
-114
-112
-111
-108
-107
-104
-102
-100
-98
-96
-94
-92
-89
-87
-86
-83
-82
-80
-78
-77
-75
-74
-72
-71
-70
-68
-66
-64
-63
-62
-60
-59
-58
-55
-54
-53
-51
-50
-49
-48
-46
-45
-44
-43
-42
-40
-39
-38
-37
-36
-35
-35
-34
-33
-33
-33
-33
-33
-33
-34
-34
-35
-35
-36
-36
-38
-39
-40
-41
-43
-44
-47
-48
-50
-52
-54
-57
-60
-63
-66
-69
-72
-75
-78
-81
-85
-88
-91
-94
-98
-102
-104
-108
-111
-115
-119
-122
-126
-129
-133
-136
-139
-143
-147
-150
-153
-156
-159
-162
-165
-169
-171
-174
-177
-179
-183
-185
-189
-191
-193
-195
-198
-200
-203
-205
-207
-210
-211
-213
-215
-216
-219
-220
-222
-223
-225
-226
-227
-229
-230
-231
-232
-233
-234
-235
-235
-236
-236
-237
-237
-237
-237
-238
-238
-238
-239
-239
-240
-239
-240
-240
-240
-241
-240
-240
-240
-240
-240
-241
-241
-241
-241
-241
-241
-241
-241
-241
-241
-241
-242
-242
-242
-243
-243
-243
-243
-243
-243
-242
-242
-242
-242
-243
-243
-242
-242
-242
-242
-242
-243
-242
-242
-242
-242
-241
-241
-241
-241
-240
-241
-241
-241
-241
-241
-241
-241
-242
-243
-243
-243
-244
-244
-244
-245
-245
-245
-245
-245
-245
-245
-244
-244
-244
-244
-244
-243
-243
-243
-244
-244
-244
-244
-245
-244
-245
-244
-244
-244
-244
-245
-245
-245
-245
-245
-246
-245
-246
-246
-246
-245
-245
-245
-245
-245
-245
-244
-243
-243
-243
-244
-243
-243
-243
-243
-243
-243
-243
-243
-243
-244
-244
-244
-244
-244
-244
-244
-244
-244
-245
-245
-245
-245
-245
-244
-245
-245
-245
-245
-245
-245
-245
-245
-246
-246
-245
-245
-245
-245
-245
-245
-245
-245
-245
-245
-244
-244
-244
-243
-244
-244
-244
-245
-244
-244
-244
-245
-245
-245
-245
-245
-245
-245
-246
-246
-246
-247
-247
-247
-247
-248
-248
-248
-248
-248
-248
-248
-248
-247
-247
-247
-246
-246
-246
-246
-246
-245
-245
-245
-246
-246
-246
-246
-247
-247
-247
-248
-248
-248
-248
-248
-248
-249
-249
-250
-250
-250
-251
-251
-251
-251
-252
-252
-251
-251
-251
-251
-251
-251
-251
-252
-251
-251
-251
-251
-251
-251
-251
-251
-251
-252
-252
-252
-251
-251
-252
-252
-252
-250
-250
-251
-250
-250
-250
-249
-249
-249
-249
-250
-250
-250
-250
-251
-251
-251
-251
-250
-251
-251
-251
-252
-251
-251
-251
-251
-251
-251
-251
-251
-251
-251
-251
-251
-250
-250
-250
-250
-250
-250
-250
-248
-248
-249
-249
-249
-248
-248
-248
-248
-248
-249
-249
-249
-249
-249
-249
-249
-249
-249
-249
-248
-248
-248
-249
-249
-249
-249
-249
-249
-250
-250
-250
-251
-251
-251
-251
-251
-252
-252
-252
-253
-253
-253
-252
-253
-253
-253
-254
-254
-253
-253
-253
-253
-253
-253
-253
-253
-253
-252
-252
-252
-252
-252
-251
-251
-251
-251
-251
-251
-251
-251
-251
-251
-251
-251
-250
-251
-251
-251
-251
-250
-250
-250
-251
-251
-251
-251
-251
-251
-252
-252
-252
-251
-252
-252
-252
-252
-252
-252
-253
-253
-253
-253
-253
-253
-252
-252
-252
-252
-253
-253
-252
-252
-253
-253
-253
-252
-251
-251
-251
-251
-250
-250
-250
-248
-248
-249
-248
-248
-247
-246
-246
-246
-246
-245
-245
-245
-246
-246
-246
-246
-246
-247
-247
-248
-248
-249
-249
-250
-251
-252
-253
-253
-253
-254
-254
-255
-255
-255
-253
-253
-253
-253
-253
-253
-253
-253
-252
-252
-252
-253
-253
-253
-253
-253
-253
-252
-252
-252
-252
-252
-252
-252
-252
-251
-251
-251
-250
-251
-251
-250
-250
-250
-250
-249
-249
-248
-248
-248
-247
-247
-246
-246
-245
-245
-245
-244
-243
-243
-243
-242
-242
-241
-240
-240
-240
-240
-238
-238
-237
-238
-237
-236
-236
-236
-235
-235
-235
-235
-234
-234
-234
-234
-234
-233
-232
-232
-232
-231
-231
-229
-229
-229
-229
-229
-229
-228
-228
-228
-229
-229
-229
-229
-229
-230
-230
-230
-230
-230
-230
-231
-230
-231
-231
-231
-233
-233
-233
-234
-235
-236
-236
-238
-238
-239
-240
-241
-242
-244
-245
-245
-246
-247
-248
-248
-248
-249
-250
-250
-251
-251
-251
-251
-251
-252
-251
-251
-252
-252
-251
-252
-251
-252
-252
-252
-252
-253
-252
-253
-253
-254
-253
-253
-253
-254
-254
-254
-254
-255
-255
-254
-254
-255
-255
-255
-256
-256
-256
-256
-256
-257
-257
-257
-256
-257
-257
-257
-257
-256
-256
-256
-256
-256
-256
-255
-255
-256
-256
-256
-255
-255
-255
-255
-256
-256
-256
-255
-255
-255
-255
-256
-255
-255
-255
-255
-255
-255
-255
-254
-255
-254
-254
-253
-253
-253
-252
-252
-251
-252
-252
-251
-252
-252
-252
-252
-252
-253
-252
-251
-251
-251
-249
-247
-246
-243
-239
-235
-230
-225
-217
-210
-201
-191
-180
-168
-155
-141
-127
-111
-95
-77
-59
-41
-22
-4
16
35
55
75
93
111
129
145
160
172
182
189
193
192
189
183
173
160
144
124
103
78
52
23
-5
-35
-66
-97
-127
-157
-185
-212
-236
-257
-276
-292
-305
-314
-321
-326
-329
-329
-327
-323
-319
-313
-306
-300
-293
-285
-279
-271
-264
-257
-251
-245
-241
-236
-231
-228
-225
-223
-221
-219
-219
-217
-218
-218
-217
-218
-219
-219
-221
-221
-223
-224
-224
-226
-226
-227
-228
-228
-228
-228
-228
-227
-227
-227
-227
-225
-225
-225
-224
-224
-223
-223
-223
-222
-222
-221
-221
-220
-221
-219
-219
-218
-218
-217
-218
-217
-216
-216
-216
-215
-214
-214
-214
-213
-213
-213
-213
-212
-212
-211
-212
-211
-212
-212
-212
-212
-213
-212
-213
-213
-213
-213
-213
-213
-213
-213
-213
-212
-212
-211
-210
-210
-209
-209
-208
-208
-207
-207
-206
-206
-206
-205
-204
-204
-204
-203
-202
-202
-202
-201
-201
-200
-199
-198
-197
-197
-197
-196
-196
-195
-195
-195
-194
-194
-194
-193
-192
-191
-191
-190
-189
-188
-188
-187
-186
-186
-185
-185
-184
-184
-182
-182
-182
-181
-181
-181
-180
-179
-179
-178
-177
-176
-176
-176
-176
-175
-174
-174
-174
-172
-172
-172
-171
-170
-169
-168
-168
-167
-166
-165
-164
-163
-163
-163
-162
-161
-160
-159
-159
-158
-158
-157
-156
-155
-154
-153
-152
-151
-151
-150
-149
-147
-146
-145
-144
-142
-141
-140
-140
-138
-137
-135
-134
-133
-131
-130
-129
-128
-125
-124
-122
-121
-119
-118
-115
-113
-112
-111
-108
-107
-106
-104
-103
-101
-99
-98
-97
-95
-93
-92
-90
-89
-87
-86
-85
-82
-81
-80
-78
-77
-76
-75
-72
-71
-70
-69
-67
-66
-65
-63
-62
-60
-59
-58
-57
-55
-55
-54
-54
-53
-53
-53
-52
-52
-52
-52
-51
-51
-51
-50
-51
-51
-51
-50
-50
-50
-51
-51
-51
-52
-53
-53
-55
-56
-57
-59
-61
-62
-64
-67
-69
-71
-74
-77
-80
-84
-86
-90
-94
-97
-100
-104
-107
-111
-114
-119
-121
-125
-128
-131
-134
-137
-140
-143
-145
-148
-151
-154
-156
-159
-161
-164
-167
-169
-172
-175
-177
-180
-182
-185
-187
-189
-192
-193
-196
-198
-199
-202
-204
-205
-207
-209
-210
-212
-213
-215
-216
-218
-219
-219
-221
-222
-223
-224
-225
-226
-227
-228
-229
-230
-231
-231
-233
-233
-234
-235
-235
-235
-235
-236
-236
-236
-236
-236
-236
-236
-236
-236
-237
-237
-237
-237
-237
-237
-237
-238
-238
-238
-238
-239
-238
-239
-239
-239
-238
-239
-239
-239
-239
-240
-240
-240
-241
-241
-241
-241
-241
-241
-241
-241
-241
-240
-240
-240
-240
-240
-241
-240
-240
-240
-240
-240
-240
-240
-239
-239
-239
-238
-238
-238
-237
-237
-237
-237
-238
-237
-237
-238
-238
-238
-238
-239
-239
-239
-239
-240
-240
-240
-240
-240
-240
-240
-239
-239
-240
-240
-239
-239
-239
-239
-239
-238
-238
-238
-238
-238
-238
-238
-238
-238
-238
-237
-237
-236
-236
-236
-236
-235
-235
-236
-236
-236
-237
-237
-237
-238
-238
-239
-239
-239
-240
-240
-241
-241
-242
-242
-243
-243
-243
-243
-244
-244
-244
-244
-244
-245
-244
-244
-243
-243
-243
-242
-242
-242
-242
-242
-242
-242
-242
-242
-242
-241
-242
-242
-242
-242
-242
-242
-242
-242
-242
-243
-243
-243
-243
-243
-244
-244
-244
-245
-245
-245
-245
-245
-245
-245
-245
-245
-245
-244
-244
-244
-244
-244
-244
-244
-244
-244
-244
-244
-245
-245
-245
-246
-246
-246
-247
-247
-247
-248
-248
-248
-249
-249
-249
-249
-249
-250
-250
-250
-250
-250
-250
-250
-251
-250
-250
-250
-250
-249
-249
-250
-250
-250
-249
-250
-250
-250
-250
-250
-250
-251
-251
-251
-251
-251
-251
-252
-252
-252
-253
-252
-252
-252
-253
-253
-253
-253
-254
-254
-254
-255
-255
-255
-256
-255
-255
-255
-255
-255
-255
-255
-255
-255
-255
-255
-254
-254
-253
-253
-254
-254
-253
-253
-253
-253
-253
-252
-252
-252
-251
-252
-252
-251
-252
-252
-252
-253
-253
-253
-254
-254
-254
-254
-255
-256
-256
-256
-256
-256
-256
-255
-255
-255
-255
-255
-255
-255
-255
-255
-255
-254
-255
-255
-254
-254
-254
-254
-254
-254
-254
-254
-254
-254
-254
-254
-254
-254
-254
-255
-255
-255
-255
-255
-255
-255
-255
-256
-256
-256
-255
-255
-256
-256
-256
-255
-255
-255
-256
-256
-256
-255
-255
-255
-256
-256
-256
-256
-256
-254
-254
-255
-254
-254
-254
-253
-253
-254
-254
-253
-253
-254
-254
-254
-254
-255
-255
-255
-255
-256
-255
-255
-255
-255
-256
-256
-256
-256
-257
-257
-256
-256
-256
-255
-255
-255
-255
-255
-255
-255
-255
-255
-255
-255
-254
-254
-254
-254
-255
-255
-256
-256
-256
-257
-257
-257
-257
-257
-256
-256
-257
-256
-256
-257
-257
-256
-256
-256
-256
-256
-257
-257
-257
-257
-257
-257
-257
-256
-256
-256
-256
-256
-256
-256
-256
-255
-255
-256
-256
-256
-255
-256
-256
-256
-256
-257
-257
-257
-257
-256
-256
-256
-256
-256
-257
-256
-256
-256
-256
-256
-257
-257
-257
-257
-257
-257
-257
-256
-256
-256
-256
-256
-256
-256
-256
-256
-256
-256
-256
-256
-257
-256
-257
-257
-256
-257
-257
-257
-257
-256
-256
-256
-256
-256
-256
-256
-256
-256
-256
-255
-255
-255
-255
-255
-255
-254
-254
-253
-253
-252
-252
-251
-250
-249
-248
-248
-246
-246
-245
-245
-244
-244
-242
-242
-241
-241
-240
-239
-239
-239
-238
-239
-239
-239
-239
-239
-239
-240
-239
-239
-240
-240
-240
-240
-241
-241
-241
-241
-239
-239
-239
-238
-238
-237
-237
-235
-236
-235
-235
-234
-235
-234
-234
-234
-234
-234
-234
-234
-235
-235
-236
-235
-235
-237
-237
-238
-239
-239
-241
-241
-242
-243
-244
-245
-246
-247
-248
-248
-248
-249
-249
-250
-250
-250
-249
-250
-250
-250
-251
-251
-251
-250
-250
-250
-251
-251
-251
-251
-251
-252
-253
-253
-253
-254
-255
-255
-256
-257
-257
-258
-258
-259
-259
-260
-260
-261
-261
-261
-261
-261
-261
-260
-260
-260
-260
-259
-259
-259
-259
-259
-259
-259
-259
-259
-259
-258
-258
-258
-258
-258
-258
-259
-259
-259
-259
-258
-258
-258
-259
-259
-259
-259
-259
-259
-259
-260
-260
-259
-260
-260
-260
-259
-259
-259
-260
-260
-259
-260
-260
-259
-259
-260
-259
-259
-259
-259
-259
-259
-258
-258
-258
-259
-259
-259
-259
-260
-261
-260
-261
-261
-260
-260
-259
-258
-255
-253
-249
-246
-241
-235
-228
-221
-212
-203
-192
-181
-168
-155
-140
-124
-108
-91
-74
-56
-37
-18
0
20
40
59
78
98
115
132
148
163
175
184
191
194
192
188
182
171
157
140
120
96
71
44
16
-13
-44
-75
-107
-137
-167
-195
-222
-245
-266
-285
-300
-313
-322
-329
-333
-336
-336
-334
-331
-327
-321
-315
-307
-301
-294
-287
-280
-274
-267
-261
-257
-251
-247
-243
-240
-237
-234
-233
-231
-229
-228
-227
-227
-226
-226
-227
-227
-227
-227
-228
-228
-228
-228
-229
-229
-229
-228
-228
-228
-228
-228
-228
-228
-228
-228
-228
-228
-228
-229
-228
-229
-229
-229
-229
-230
-230
-230
-229
-229
-229
-228
-228
-228
-226
-226
-226
-226
-226
-225
-225
-224
-224
-224
-223
-222
-223
-223
-222
-222
-222
-222
-221
-222
-221
-222
-222
-222
-221
-221
-221
-220
-220
-220
-220
-220
-219
-218
-218
-218
-217
-216
-215
-215
-214
-214
-214
-212
-212
-211
-211
-211
-209
-209
-209
-209
-207
-207
-207
-206
-205
-205
-205
-204
-204
-204
-203
-202
-202
-202
-202
-201
-201
-200
-200
-200
-199
-198
-197
-198
-196
-195
-195
-194
-193
-193
-192
-192
-191
-190
-190
-189
-189
-189
-188
-188
-187
-186
-185
-184
-184
-183
-182
-182
-181
-180
-179
-178
-177
-176
-175
-175
-173
-173
-172
-171
-171
-170
-169
-169
-169
-168
-168
-167
-166
-166
-166
-166
-166
-166
-165
-165
-164
-163
-162
-161
-160
-159
-157
-157
-154
-153
-152
-150
-149
-146
-145
-143
-142
-141
-139
-138
-136
-134
-133
-132
-130
-129
-127
-125
-124
-123
-121
-120
-119
-117
-116
-115
-112
-111
-110
-109
-106
-105
-103
-101
-99
-97
-96
-93
-92
-90
-89
-86
-85
-84
-81
-80
-79
-77
-77
-75
-73
-73
-71
-70
-68
-67
-65
-64
-63
-61
-60
-58
-57
-57
-55
-54
-53
-52
-51
-49
-49
-48
-47
-47
-46
-45
-45
-45
-45
-45
-45
-45
-45
-45
-47
-48
-48
-49
-50
-51
-52
-53
-55
-56
-58
-59
-61
-63
-64
-66
-69
-71
-73
-76
-78
-82
-85
-89
-92
-95
-98
-103
-107
-110
-114
-118
-122
-126
-130
-133
-137
-140
-144
-147
-150
-154
-157
-161
-164
-167
-169
-172
-175
-177
-181
-183
-185
-188
-190
-192
-195
-197
-200
-202
-205
-207
-209
-211
-213
-215
-218
-219
-221
-223
-224
-225
-226
-227
-228
-229
-230
-230
-231
-231
-232
-231
-232
-232
-232
-232
-232
-233
-233
-235
-235
-236
-236
-236
-237
-238
-239
-239
-240
-241
-242
-243
-245
-245
-246
-248
-248
-249
-249
-250
-250
-250
-250
-250
-250
-250
-250
-250
-250
-249
-249
-249
-249
-250
-249
-249
-249
-249
-249
-249
-249
-249
-249
-248
-248
-248
-248
-248
-247
-247
-247
-248
-248
-247
-248
-248
-248
-248
-248
-248
-248
-248
-247
-247
-246
-247
-247
-247
-246
-246
-246
-246
-246
-246
-246
-245
-245
-245
-245
-245
-244
-244
-245
-244
-244
-244
-244
-244
-244
-245
-245
-245
-245
-246
-246
-247
-247
-248
-248
-249
-249
-249
-249
-249
-249
-249
-249
-249
-249
-248
-248
-248
-248
-248
-248
-248
-248
-248
-248
-248
-248
-248
-249
-248
-248
-248
-247
-247
-248
-248
-248
-248
-247
-247
-248
-248
-248
-248
-248
-248
-248
-248
-248
-249
-249
-249
-249
-249
-250
-250
-250
-251
-251
-251
-251
-251
-251
-251
-251
-251
-251
-251
-251
-250
-250
-250
-251
-250
-250
-250
-250
-250
-250
-251
-251
-251
-251
-251
-252
-251
-251
-251
-251
-251
-251
-251
-251
-251
-251
-251
-251
-252
-252
-252
-253
-253
-253
-254
-255
-255
-255
-256
-256
-256
-256
-256
-256
-255
-256
-256
-255
-255
-255
-256
-256
-256
-255
-255
-256
-255
-255
-255
-255
-255
-254
-254
-254
-254
-254
-254
-255
-255
-255
-256
-255
-255
-256
-256
-256
-256
-256
-256
-256
-256
-257
-256
-256
-257
-257
-257
-258
-258
-258
-258
-258
-259
-259
-259
-259
-259
-260
-260
-260
-260
-261
-261
-260
-260
-260
-260
-260
-260
-261
-260
-260
-261
-260
-260
-260
-260
-260
-260
-260
-260
-259
-259
-260
-260
-260
-260
-260
-261
-261
-261
-261
-262
-262
-262
-262
-262
-262
-261
-261
-261
-261
-261
-261
-260
-260
-260
-260
-260
-260
-260
-259
-259
-259
-260
-260
-260
-260
-260
-260
-259
-259
-259
-259
-258
-258
-258
-258
-257
-257
-257
-258
-258
-258
-257
-257
-256
-256
-255
-255
-255
-253
-254
-254
-254
-254
-255
-255
-255
-255
-257
-256
-257
-257
-258
-259
-260
-261
-262
-261
-262
-262
-263
-263
-264
-264
-264
-264
-264
-263
-263
-262
-262
-261
-261
-260
-260
-259
-259
-258
-257
-256
-256
-256
-254
-253
-253
-253
-253
-252
-252
-251
-251
-250
-250
-250
-250
-249
-250
-249
-249
-248
-248
-248
-247
-248
-248
-248
-247
-246
-246
-246
-245
-245
-244
-244
-244
-242
-242
-241
-240
-239
-239
-238
-237
-237
-237
-237
-237
-237
-236
-237
-237
-237
-238
-239
-239
-239
-241
-241
-242
-242
-243
-243
-244
-244
-245
-246
-246
-247
-247
-247
-247
-248
-249
-249
-249
-249
-248
-249
-249
-249
-249
-249
-250
-250
-250
-251
-251
-251
-251
-252
-253
-253
-254
-254
-255
-255
-255
-256
-256
-256
-256
-257
-257
-257
-258
-258
-258
-258
-259
-259
-259
-260
-260
-260
-261
-261
-261
-261
-260
-261
-261
-261
-262
-263
-263
-263
-264
-264
-264
-264
-265
-265
-265
-266
-266
-266
-266
-267
-266
-266
-267
-266
-266
-266
-266
-265
-265
-265
-264
-265
-265
-264
-264
-263
-263
-263
-263
-262
-262
-262
-261
-261
-261
-261
-260
-260
-260
-260
-260
-261
-261
-261
-262
-262
-262
-262
-262
-263
-263
-263
-264
-265
-266
-266
-267
-268
-267
-267
-267
-266
-265
-262
-260
-257
-252
-247
-241
-234
-226
-216
-205
-194
-181
-168
-153
-137
-121
-104
-87
-67
-48
-29
-9
10
30
51
72
91
110
129
147
164
177
190
199
205
207
205
201
192
180
165
147
125
101
74
45
14
-15
-47
-80
-113
-144
-176
-204
-231
-255
-278
-296
-312
-324
-333
-339
-343
-345
-344
-342
-338
-333
-326
-319
-312
-305
-297
-289
-281
-274
-268
-262
-257
-251
-246
-243
-239
-236
-233
-231
-229
-227
-226
-226
-225
-225
-225
-225
-225
-225
-226
-226
-227
-227
-227
-228
-228
-228
-229
-229
-229
-230
-230
-229
-229
-229
-229
-228
-228
-228
-228
-228
-228
-227
-227
-227
-226
-226
-226
-226
-225
-225
-224
-224
-224
-224
-224
-224
-224
-224
-223
-223
-223
-223
-223
-223
-223
-222
-222
-222
-221
-221
-220
-219
-219
-218
-218
-216
-216
-216
-215
-215
-215
-214
-213
-213
-213
-213
-212
-212
-211
-211
-210
-209
-209
-210
-209
-209
-209
-209
-209
-208
-208
-208
-208
-208
-207
-207
-207
-206
-206
-205
-205
-204
-203
-204
-202
-202
-201
-201
-200
-200
-199
-198
-198
-198
-196
-196
-195
-195
-194
-193
-193
-192
-191
-191
-190
-189
-189
-189
-188
-188
-188
-187
-187
-186
-186
-186
-185
-184
-183
-183
-182
-181
-180
-180
-179
-178
-178
-177
-175
-175
-175
-173
-172
-172
-170
-170
-169
-168
-167
-166
-166
-164
-163
-162
-160
-160
-159
-158
-157
-156
-155
-153
-153
-152
-151
-150
-148
-147
-146
-145
-143
-141
-140
-138
-137
-136
-134
-133
-132
-131
-130
-128
-127
-126
-125
-123
-121
-120
-118
-117
-115
-114
-112
-111
-109
-107
-105
-103
-102
-99
-98
-96
-94
-92
-90
-88
-86
-85
-83
-81
-80
-78
-77
-74
-74
-72
-71
-69
-68
-67
-65
-64
-63
-62
-60
-58
-57
-56
-55
-53
-51
-50
-49
-47
-46
-45
-44
-43
-42
-42
-41
-40
-40
-40
-39
-39
-38
-38
-38
-39
-39
-39
-40
-40
-40
-41
-42
-43
-45
-45
-48
-48
-51
-52
-54
-56
-59
-61
-63
-65
-68
-70
-74
-76
-80
-82
-86
-89
-94
-97
-100
-104
-108
-111
-115
-119
-122
-126
-129
-133
-136
-140
-144
-146
-149
-153
-156
-159
-163
-166
-169
-171
-174
-176
-179
-181
-184
-186
-189
-190
-192
-195
-197
-199
-201
-203
-206
-207
-210
-212
-214
-216
-218
-220
-222
-223
-225
-227
-228
-230
-231
-232
-234
-234
-235
-235
-236
-238
-239
-239
-239
-240
-240
-241
-242
-241
-241
-243
-243
-243
-243
-243
-244
-244
-244
-244
-245
-245
-245
-246
-246
-246
-246
-246
-247
-247
-247
-246
-246
-246
-245
-245
-245
-245
-245
-245
-245
-245
-245
-245
-246
-245
-246
-245
-245
-245
-245
-246
-246
-246
-245
-245
-245
-245
-244
-244
-244
-244
-244
-244
-244
-243
-243
-243
-243
-243
-243
-243
-243
-242
-242
-242
-242
-241
-241
-241
-241
-242
-242
-242
-241
-242
-242
-242
-241
-241
-241
-241
-241
-241
-242
-242
-242
-242
-242
-242
-242
-243
-243
-244
-244
-245
-245
-245
-246
-247
-247
-247
-247
-246
-246
-246
-246
-246
-246
-245
-245
-246
-246
-246
-246
-247
-247
-247
-247
-247
-247
-247
-247
-247
-248
-248
-248
-247
-247
-247
-247
-247
-247
-247
-247
-247
-247
-248
-247
-247
-247
-246
-246
-247
-246
-246
-245
-245
-245
-245
-245
-245
-246
-246
-245
-245
-245
-246
-246
-246
-246
-246
-246
-246
-246
-246
-246
-246
-246
-246
-247
-247
-247
-248
-247
-247
-247
-248
-248
-248
-248
-248
-248
-248
-247
-248
-248
-248
-248
-248
-248
-248
-248
-248
-249
-249
-249
-249
-249
-249
-249
-249
-249
-250
-249
-249
-250
-250
-250
-250
-250
-251
-251
-251
-252
-251
-251
-251
-252
-252
-252
-251
-251
-250
-250
-250
-250
-250
-250
-250
-250
-250
-250
-251
-251
-251
-251
-251
-251
-251
-251
-251
-251
-251
-251
-251
-251
-251
-250
-250
-251
-251
-251
-252
-252
-252
-252
-252
-252
-252
-253
-253
-253
-254
-253
-253
-253
-254
-254
-254
-254
-254
-254
-254
-254
-254
-254
-254
-254
-253
-253
-253
-253
-254
-253
-253
-253
-253
-254
-254
-254
-254
-254
-254
-255
-255
-255
-254
-255
-255
-255
-255
-255
-254
-254
-254
-254
-253
-252
-253
-253
-253
-253
-253
-253
-253
-253
-254
-254
-254
-254
-255
-254
-254
-255
-254
-254
-254
-255
-255
-255
-255
-255
-255
-256
-256
-255
-255
-255
-255
-255
-254
-253
-253
-254
-252
-252
-252
-252
-252
-252
-252
-252
-252
-253
-253
-252
-253
-253
-253
-252
-252
-252
-252
-252
-252
-252
-252
-252
-251
-251
-252
-252
-252
-252
-251
-251
-251
-252
-252
-252
-252
-252
-253
-252
-252
-252
-253
-253
-253
-253
-253
-253
-253
-254
-254
-254
-254
-254
-254
-254
-254
-253
-253
-253
-252
-252
-252
-251
-251
-251
-250
-250
-250
-250
-249
-249
-249
-248
-248
-247
-247
-245
-245
-244
-244
-243
-242
-242
-241
-240
-240
-240
-239
-239
-237
-237
-237
-236
-235
-235
-234
-234
-232
-232
-232
-231
-231
-230
-230
-230
-230
-229
-229
-229
-229
-229
-229
-229
-230
-230
-231
-231
-231
-231
-232
-232
-232
-232
-234
-234
-234
-235
-235
-236
-236
-237
-238
-237
-237
-238
-238
-238
-239
-239
-240
-240
-240
-241
-241
-241
-242
-242
-243
-244
-244
-244
-245
-245
-245
-246
-247
-247
-247
-247
-247
-247
-247
-247
-247
-248
-248
-248
-249
-249
-250
-250
-250
-251
-251
-252
-253
-253
-253
-254
-255
-255
-255
-256
-256
-257
-257
-257
-257
-258
-258
-257
-257
-258
-257
-257
-257
-257
-256
-256
-256
-256
-256
-255
-255
-256
-257
-256
-257
-257
-257
-257
-257
-257
-257
-257
-257
-257
-257
-256
-257
-257
-256
-256
-256
-256
-256
-254
-254
-255
-254
-254
-254
-254
-253
-252
-252
-252
-252
-250
-250
-250
-250
-249
-249
-250
-250
-251
-250
-251
-252
-253
-254
-255
-255
-256
-256
-256
-255
-254
-252
-250
-248
-244
-240
-236
-230
-224
-216
-208
-198
-188
-176
-164
-151
-136
-121
-104
-88
-70
-52
-34
-17
3
22
40
58
77
95
113
128
144
157
168
176
183
186
184
180
172
161
148
131
111
89
64
37
8
-19
-49
-80
-110
-141
-169
-196
-221
-245
-265
-282
-296
-308
-317
-323
-327
-328
-327
-325
-322
-317
-310
-304
-297
-290
-283
-275
-268
-262
-255
-250
-245
-240
-235
-231
-228
-226
-224
-222
-222
-220
-220
-220
-220
-220
-221
-220
-220
-221
-221
-222
-222
-223
-223
-223
-223
-224
-224
-225
-225
-225
-224
-224
-224
-224
-224
-224
-223
-223
-223
-222
-222
-221
-221
-221
-220
-219
-218
-218
-217
-217
-216
-216
-215
-215
-214
-214
-213
-212
-212
-212
-211
-211
-211
-211
-211
-211
-211
-211
-212
-212
-213
-214
-214
-215
-215
-216
-216
-216
-216
-216
-217
-216
-216
-216
-216
-215
-216
-215
-214
-214
-213
-213
-212
-212
-211
-211
-210
-209
-208
-208
-207
-205
-205
-204
-203
-203
-203
-201
-201
-201
-201
-200
-200
-199
-198
-198
-197
-197
-197
-196
-195
-194
-194
-193
-192
-192
-191
-191
-190
-190
-190
-189
-189
-188
-187
-187
-187
-186
-186
-185
-184
-184
-183
-182
-181
-181
-181
-180
-180
-179
-179
-179
-178
-177
-177
-176
-176
-175
-174
-174
-173
-173
-171
-170
-170
-169
-168
-167
-166
-166
-164
-164
-162
-161
-160
-160
-158
-157
-156
-156
-155
-154
-153
-151
-150
-150
-149
-148
-148
-146
-145
-144
-143
-143
-142
-141
-139
-137
-136
-135
-133
-132
-130
-128
-127
-124
-122
-121
-119
-118
-116
-114
-113
-112
-111
-110
-108
-107
-106
-104
-102
-101
-100
-99
-98
-96
-95
-94
-93
-92
-90
-89
-88
-86
-85
-83
-81
-80
-78
-75
-74
-73
-70
-69
-67
-66
-64
-63
-62
-61
-60
-59
-58
-57
-57
-56
-55
-54
-54
-53
-52
-52
-52
-51
-51
-51
-50
-51
-50
-51
-52
-51
-52
-53
-53
-54
-54
-55
-56
-57
-59
-60
-61
-63
-64
-66
-68
-70
-72
-75
-78
-80
-83
-85
-89
-92
-94
-97
-100
-104
-106
-109
-112
-116
-119
-122
-126
-129
-132
-135
-138
-142
-145
-149
-152
-154
-158
-160
-163
-166
-168
-171
-174
-176
-178
-180
-183
-185
-187
-188
-190
-193
-195
-197
-199
-201
-203
-205
-207
-208
-211
-213
-214
-216
-218
-220
-222
-225
-227
-228
-230
-232
-233
-234
-236
-237
-237
-237
-239
-238
-239
-239
-239
-239
-240
-240
-239
-240
-240
-241
-240
-241
-241
-240
-241
-241
-241
-242
-242
-242
-242
-242
-242
-242
-242
-242
-243
-243
-243
-243
-244
-245
-245
-245
-245
-245
-245
-245
-245
-245
-244
-245
-245
-245
-244
-244
-244
-243
-243
-244
-243
-243
-243
-243
-243
-243
-243
-243
-242
-242
-242
-241
-241
-241
-241
-241
-241
-241
-241
-241
-241
-242
-242
-242
-241
-241
-241
-242
-242
-242
-241
-241
-241
-241
-241
-241
-241
-241
-242
-242
-241
-241
-241
-241
-241
-240
-240
-240
-239
-239
-238
-238
-237
-237
-237
-237
-236
-236
-236
-236
-236
-237
-237
-237
-237
-238
-238
-239
-239
-240
-241
-241
-242
-243
-243
-243
-245
-245
-246
-246
-246
-247
-247
-247
-247
-246
-246
-246
-246
-246
-246
-246
-246
-245
-244
-244
-245
-245
-245
-245
-245
-245
-245
-245
-245
-246
-246
-245
-245
-245
-245
-245
-245
-245
-246
-246
-245
-246
-246
-246
-247
-247
-247
-247
-247
-247
-247
-247
-247
-247
-247
-247
-247
-247
-247
-247
-247
-248
-248
-248
-248
-249
-249
-249
-249
-249
-249
-249
-249
-249
-248
-248
-248
-248
-249
-249
-249
-248
-248
-249
-249
-249
-250
-250
-249
-250
-250
-250
-249
-249
-248
-248
-248
-248
-248
-248
-248
-248
-248
-248
-248
-248
-248
-248
-248
-249
-249
-249
-249
-249
-248
-248
-249
-249
-249
-250
-250
-250
-250
-251
-252
-252
-252
-252
-253
-254
-254
-254
-254
-254
-255
-255
-255
-256
-256
-256
-256
-256
-256
-257
-256
-256
-256
-255
-256
-256
-256
-256
-255
-255
-254
-254
-254
-255
-254
-254
-254
-254
-254
-255
-254
-254
-255
-255
-255
-255
-255
-255
-255
-255
-256
-256
-256
-256
-255
-255
-255
-255
-255
-255
-256
-256
-256
-256
-256
-255
-255
-255
-255
-254
-254
-254
-253
-252
-252
-252
-251
-251
-250
-250
-250
-249
-248
-247
-247
-246
-245
-245
-244
-243
-244
-243
-243
-242
-241
-241
-241
-241
-241
-240
-240
-240
-240
-239
-239
-238
-238
-237
-237
-237
-235
-235
-234
-234
-234
-233
-233
-233
-233
-233
-232
-232
-234
-233
-234
-235
-236
-236
-237
-237
-238
-239
-240
-241
-241
-242
-242
-243
-244
-244
-244
-245
-246
-246
-246
-247
-246
-247
-247
-247
-248
-248
-248
-248
-248
-248
-249
-249
-249
-249
-250
-249
-249
-250
-250
-251
-251
-251
-251
-252
-252
-252
-252
-252
-254
-254
-255
-255
-255
-256
-256
-257
-258
-258
-259
-259
-260
-260
-260
-260
-260
-260
-260
-261
-261
-260
-261
-261
-261
-260
-260
-261
-261
-261
-261
-261
-261
-260
-260
-260
-259
-259
-260
-259
-259
-260
-260
-260
-260
-260
-260
-260
-260
-260
-260
-260
-260
-260
-259
-259
-259
-259
-259
-259
-259
-259
-258
-259
-260
-260
-259
-259
-259
-259
-259
-259
-260
-260
-259
-259
-259
-260
-260
-260
-261
-262
-263
-263
-263
-264
-264
-264
-264
-263
-262
-259
-257
-253
-250
-246
-240
-235
-227
-219
-210
-200
-189
-176
-164
-151
-136
-121
-104
-88
-71
-53
-35
-17
1
19
37
55
73
89
106
121
134
145
155
162
166
167
163
157
148
136
121
104
83
59
34
8
-20
-49
-79
-108
-138
-167
-194
-220
-244
-265
-284
-300
-313
-322
-330
-334
-337
-337
-335
-332
-328
-322
-316
-310
-302
-295
-287
-280
-273
-266
-261
-255
-250
-245
-241
-237
-234
-231
-229
-227
-226
-225
-224
-224
-223
-223
-223
-224
-224
-225
-225
-226
-227
-227
-228
-228
-228
-228
-229
-229
-229
-229
-228
-229
-228
-228
-228
-228
-228
-228
-228
-228
-227
-227
-227
-227
-227
-226
-226
-225
-225
-225
-225
-225
-225
-224
-224
-224
-224
-224
-224
-223
-223
-222
-223
-222
-222
-221
-221
-220
-220
-220
-219
-219
-219
-219
-219
-217
-217
-216
-216
-216
-215
-215
-214
-213
-213
-211
-211
-210
-209
-209
-208
-208
-208
-208
-207
-206
-206
-206
-206
-206
-206
-205
-206
-205
-205
-204
-205
-205
-205
-204
-205
-204
-204
-204
-204
-203
-204
-204
-204
-203
-202
-202
-201
-201
-201
-200
-199
-198
-198
-196
-195
-194
-194
-193
-192
-192
-191
-190
-190
-189
-188
-187
-187
-186
-185
-185
-184
-183
-182
-181
-181
-180
-179
-179
-177
-177
-176
-176
-175
-175
-173
-173
-172
-171
-170
-169
-168
-167
-166
-165
-164
-163
-163
-162
-161
-160
-158
-157
-157
-156
-155
-154
-152
-151
-149
-148
-148
-146
-144
-144
-143
-141
-140
-139
-138
-137
-135
-134
-133
-131
-130
-129
-127
-125
-124
-122
-120
-118
-117
-115
-114
-111
-110
-109
-108
-106
-104
-103
-102
-101
-100
-98
-97
-95
-94
-93
-91
-90
-88
-87
-85
-84
-82
-81
-80
-77
-76
-75
-74
-72
-71
-70
-67
-66
-65
-64
-62
-61
-60
-59
-58
-57
-57
-56
-55
-54
-54
-53
-52
-51
-51
-50
-50
-49
-48
-48
-48
-48
-47
-47
-47
-48
-48
-49
-50
-51
-52
-54
-55
-56
-59
-61
-62
-65
-67
-70
-72
-75
-77
-80
-83
-86
-89
-92
-95
-99
-102
-105
-109
-112
-115
-118
-121
-124
-126
-129
-132
-135
-139
-141
-143
-147
-150
-153
-156
-159
-162
-164
-168
-170
-173
-177
-179
-182
-184
-187
-190
-192
-195
-197
-199
-202
-203
-206
-208
-210
-212
-213
-216
-217
-219
-220
-221
-222
-223
-224
-225
-226
-227
-228
-228
-228
-229
-230
-231
-232
-232
-233
-234
-234
-235
-236
-236
-237
-237
-238
-239
-239
-239
-239
-240
-240
-241
-241
-241
-242
-242
-242
-243
-242
-242
-242
-242
-242
-242
-242
-242
-242
-242
-241
-241
-241
-241
-241
-241
-241
-241
-241
-242
-241
-241
-241
-241
-241
-241
-241
-240
-240
-240
-240
-240
-240
-240
-240
-240
-239
-240
-240
-240
-240
-241
-241
-241
-240
-240
-240
-240
-241
-241
-241
-241
-241
-242
-242
-242
-242
-242
-242
-242
-242
-241
-242
-241
-241
-241
-241
-240
-240
-240
-240
-240
-239
-240
-239
-239
-239
-239
-240
-240
-240
-240
-241
-241
-240
-241
-241
-242
-241
-242
-242
-241
-241
-242
-242
-243
-243
-243
-243
-244
-243
-243
-244
-244
-244
-244
-244
-244
-243
-243
-243
-243
-243
-243
-243
-243
-244
-244
-244
-244
-244
-245
-244
-244
-245
-245
-245
-245
-245
-245
-245
-245
-245
-247
-247
-246
-246
-248
-247
-247
-248
-247
-248
-247
-247
-247
-247
-247
-247
-246
-246
-246
-245
-246
-246
-246
-245
-246
-246
-247
-247
-247
-247
-247
-247
-247
-247
-247
-248
-248
-248
-248
-248
-248
-248
-248
-249
-250
-250
-250
-250
-250
-250
-250
-250
-250
-250
-251
-251
-251
-251
-251
-251
-251
-250
-250
-251
-251
-251
-251
-251
-251
-251
-251
-251
-251
-251
-250
-250
-250
-251
-250
-250
-250
-250
-250
-250
-251
-251
-251
-251
-250
-250
-250
-251
-250
-250
-250
-250
-250
-249
-249
-249
-249
-248
-248
-248
-248
-249
-248
-248
-249
-249
-248
-247
-247
-247
-247
-246
-246
-246
-245
-245
-245
-245
-243
-243
-243
-243
-242
-242
-241
-241
-240
-239
-239
-239
-238
-238
-238
-238
-237
-237
-237
-236
-236
-236
-236
-236
-236
-236
-236
-235
-235
-235
-235
-235
-234
-234
-233
-233
-233
-232
-233
-232
-232
-233
-232
-233
-232
-232
-233
-233
-233
-234
-234
-234
-234
-235
-235
-236
-236
-237
-238
-238
-239
-240
-241
-241
-242
-242
-242
-242
-243
-243
-244
-244
-243
-244
-244
-244
-244
-244
-244
-245
-245
-245
-246
-246
-247
-247
-248
-249
-249
-249
-249
-250
-250
-251
-251
-252
-253
-253
-254
-254
-255
-255
-256
-256
-257
-257
-258
-257
-258
-258
-258
-258
-258
-258
-258
-258
-257
-257
-256
-257
-257
-257
-257
-256
-256
-256
-257
-257
-257
-258
-258
-258
-257
-258
-258
-258
-258
-259
-260
-260
-260
-261
-261
-260
-260
-260
-260
-260
-259
-259
-259
-258
-258
-257
-257
-256
-255
-255
-255
-256
-256
-256
-256
-256
-256
-256
-256
-256
-257
-258
-258
-259
-260
-260
-262
-262
-263
-264
-264
-265
-266
-266
-266
-265
-264
-262
-260
-257
-253
-248
-243
-236
-229
-221
-211
-200
-188
-175
-162
-148
-132
-115
-98
-79
-61
-42
-22
-4
15
35
54
73
93
111
129
145
158
171
181
187
189
188
184
177
167
152
135
115
93
67
40
12
-19
-50
-81
-112
-143
-173
-202
-228
-253
-274
-292
-308
-320
-330
-337
-341
-344
-343
-341
-337
-333
-326
-319
-311
-304
-296
-289
-281
-274
-267
-260
-254
-248
-243
-238
-235
-231
-228
-226
-225
-223
-222
-222
-221
-221
-221
-223
-223
-223
-225
-225
-227
-227
-229
-229
-229
-230
-230
-230
-231
-231
-231
-231
-231
-230
-230
-229
-229
-228
-228
-229
-228
-227
-227
-226
-226
-224
-224
-224
-223
-222
-221
-221
-220
-220
-219
-219
-219
-219
-219
-218
-217
-217
-217
-216
-216
-217
-216
-216
-215
-215
-215
-214
-213
-214
-213
-213
-212
-212
-210
-210
-210
-210
-209
-208
-208
-207
-207
-206
-206
-205
-205
-204
-204
-204
-203
-203
-203
-203
-203
-203
-204
-202
-202
-203
-203
-202
-202
-202
-201
-200
-199
-199
-198
-198
-197
-197
-196
-196
-195
-194
-194
-193
-193
-193
-191
-191
-190
-190
-190
-189
-189
-188
-187
-187
-186
-186
-185
-185
-185
-184
-184
-183
-183
-181
-181
-180
-179
-178
-177
-176
-175
-174
-173
-172
-171
-170
-168
-168
-167
-166
-166
-165
-165
-165
-164
-163
-163
-162
-161
-160
-159
-159
-159
-158
-157
-156
-154
-154
-154
-152
-151
-150
-148
-148
-147
-145
-144
-143
-141
-139
-138
-136
-135
-133
-132
-130
-129
-128
-126
-124
-123
-121
-120
-119
-116
-115
-113
-111
-109
-107
-105
-103
-101
-99
-98
-97
-94
-93
-92
-89
-88
-87
-84
-83
-82
-80
-79
-76
-75
-73
-71
-70
-68
-66
-64
-63
-61
-60
-58
-56
-55
-54
-52
-50
-49
-48
-46
-45
-44
-43
-41
-40
-39
-38
-38
-36
-36
-35
-35
-35
-34
-34
-34
-34
-34
-34
-34
-34
-35
-35
-35
-36
-37
-38
-39
-40
-41
-44
-45
-47
-49
-50
-52
-54
-56
-59
-62
-65
-67
-71
-73
-76
-80
-83
-87
-90
-94
-98
-101
-105
-108
-111
-116
-119
-124
-127
-131
-134
-137
-141
-145
-148
-151
-154
-158
-161
-165
-168
-171
-174
-178
-181
-183
-186
-189
-191
-194
-196
-198
-201
-202
-204
-206
-208
-210
-212
-214
-216
-217
-219
-220
-222
-224
-225
-226
-227
-229
-229
-230
-231
-232
-232
-234
-234
-234
-235
-235
-236
-236
-237
-237
-237
-237
-238
-238
-238
-238
-239
-239
-239
-239
-239
-239
-239
-239
-241
-240
-240
-240
-241
-241
-242
-241
-241
-241
-242
-242
-242
-242
-242
-243
-242
-242
-242
-242
-242
-242
-242
-242
-243
-243
-243
-243
-243
-243
-243
-243
-243
-243
-243
-242
-242
-242
-243
-243
-243
-243
-243
-243
-242
-242
-242
-242
-243
-243
-243
-242
-242
-242
-242
-242
-242
-242
-241
-241
-241
-241
-240
-240
-241
-241
-241
-241
-242
-242
-242
-242
-242
-242
-242
-242
-242
-242
-242
-243
-243
-242
-243
-243
-243
-243
-243
-243
-242
-242
-242
-241
-241
-241
-240
-240
-240
-240
-240
-240
-240
-240
-240
-242
-242
-242
-243
-244
-244
-245
-246
-246
-246
-246
-247
-248
-247
-247
-248
-247
-248
-248
-248
-247
-247
-247
-247
-247
-246
-247
-245
-245
-245
-245
-245
-245
-245
-245
-245
-245
-245
-245
-245
-245
-245
-246
-245
-245
-246
-246
-246
-246
-246
-246
-246
-246
-246
-245
-246
-246
-246
-246
-246
-246
-246
-246
-246
-246
-245
-245
-245
-245
-245
-245
-245
-245
-245
-245
-245
-245
-245
-246
-246
-246
-247
-246
-247
-247
-247
-248
-248
-248
-248
-248
-248
-247
-247
-247
-247
-247
-247
-248
-248
-247
-247
-247
-247
-247
-248
-248
-248
-248
-248
-248
-248
-248
-248
-249
-249
-249
-250
-251
-251
-251
-251
-252
-252
-252
-252
-252
-252
-252
-252
-251
-251
-251
-251
-250
-251
-250
-250
-251
-251
-251
-251
-252
-252
-252
-252
-252
-252
-252
-252
-252
-252
-253
-252
-252
-253
-253
-253
-253
-253
-253
-252
-252
-252
-253
-252
-252
-252
-252
-251
-250
-250
-250
-249
-249
-248
-248
-247
-247
-246
-246
-245
-244
-244
-243
-242
-241
-240
-239
-238
-237
-237
-236
-235
-235
-235
-235
-235
-235
-235
-235
-235
-237
-237
-237
-237
-238
-238
-238
-238
-238
-239
-239
-237
-237
-237
-237
-236
-236
-235
-235
-235
-234
-234
-234
-234
-234
-234
-234
-234
-234
-234
-235
-235
-235
-236
-236
-237
-238
-238
-239
-240
-241
-241
-243
-243
-243
-244
-244
-244
-244
-245
-244
-245
-245
-244
-245
-245
-245
-245
-245
-246
-246
-246
-247
-247
-248
-248
-248
-248
-249
-250
-250
-251
-251
-252
-252
-253
-254
-254
-254
-255
-255
-254
-255
-255
-255
-255
-255
-255
-255
-255
-255
-255
-256
-255
-255
-255
-256
-257
-257
-257
-257
-258
-259
-259
-259
-259
-260
-260
-260
-260
-260
-259
-259
-259
-259
-259
-259
-259
-258
-258
-258
-258
-258
-257
-257
-258
-258
-258
-258
-258
-257
-257
-257
-258
-258
-258
-258
-258
-258
-258
-257
-257
-258
-258
-258
-256
-256
-256
-256
-256
-256
-256
-257
-257
-258
-259
-260
-261
-261
-262
-262
-262
-262
-261
-260
-258
-255
-252
-247
-241
-236
-229
-220
-209
-200
-188
-175
-162
-146
-131
-115
-97
-78
-60
-41
-21
-1
18
38
60
79
99
118
137
155
170
184
195
204
209
210
207
201
191
177
162
142
120
94
66
36
6
-26
-57
-91
-124
-156
-187
-215
-242
-266
-286
-304
-318
-328
-337
-343
-345
-346
-344
