# Simple Text Format
# Sampling Rate (Hz):= 1200.00
# Resolution:= 12
# Labels:= ECG	aVR
# Age:=	72
# Gender:=	Feminino
0
0
0
0
0
0
0
0
0
0
0
0
0
0
0
0
0
0
0
0
0
0
0
0
0
0
0
0
0
0
0
0
0
0
0
0
0
0
0
0
0
0
0
0
0
0
0
0
0
0
0
0
0
0
0
0
0
0
0
0
0
0
0
0
0
0
0
0
0
0
0
0
0
0
0
0
0
0
0
0
0
0
0
0
0
0
0
0
0
0
0
0
0
0
0
0
0
0
0
0
0
0
0
0
0
0
0
0
0
0
0
0
0
0
0
0
0
0
0
0
0
0
0
0
0
0
0
0
0
0
0
0
0
0
0
0
0
0
0
0
0
0
0
0
0
0
0
0
0
0
0
0
0
0
0
0
0
0
0
0
0
0
0
0
0
0
0
0
0
0
0
0
0
0
0
0
0
0
0
0
0
0
0
0
0
0
0
0
0
0
0
0
0
0
0
0
0
0
0
0
0
0
0
0
0
0
0
0
0
0
0
0
0
0
0
0
0
0
0
0
0
0
0
0
0
0
0
0
0
0
0
0
0
0
0
0
0
0
0
0
0
0
0
0
0
0
0
0
0
0
0
0
0
0
0
0
0
0
0
0
0
0
0
0
0
0
0
0
0
0
0
0
0
0
0
0
0
0
0
0
0
0
0
0
0
0
0
0
0
0
0
0
0
0
0
0
0
0
0
0
0
0
0
0
0
0
0
0
0
0
0
0
0
0
0
0
0
0
0
0
0
0
0
0
0
0
0
0
0
0
0
0
0
0
0
0
0
0
0
0
0
0
0
0
0
0
0
0
0
0
0
0
0
0
0
0
0
0
0
0
0
0
0
0
0
0
0
0
0
0
0
0
0
0
0
0
0
0
0
0
0
0
0
0
0
0
0
0
0
0
0
0
0
0
0
0
0
0
0
0
0
0
0
0
0
0
0
0
0
0
0
0
0
0
0
0
0
0
0
0
0
0
0
0
0
0
0
0
0
0
0
0
0
0
0
0
0
0
0
0
0
0
0
0
0
0
0
0
0
0
0
0
0
0
0
0
0
0
0
0
0
0
0
0
0
0
0
0
0
0
0
0
0
0
0
0
0
0
0
0
0
0
0
0
0
0
0
0
0
0
0
0
0
0
0
0
0
0
0
0
0
0
0
0
0
0
0
0
0
0
0
0
0
0
0
0
0
0
0
0
0
0
0
0
0
0
0
0
0
0
0
0
0
0
0
0
0
0
0
0
0
0
0
0
0
0
0
0
0
0
0
0
0
0
0
0
0
0
0
0
0
0
0
0
0
0
0
0
0
0
0
0
0
0
0
0
0
0
0
0
0
0
0
0
0
0
0
0
0
0
0
0
0
0
0
0
0
0
0
0
0
0
0
0
0
0
0
0
0
0
0
0
0
0
0
0
0
0
0
0
0
0
0
0
0
0
0
0
0
0
0
0
0
0
0
0
0
0
0
0
0
0
0
0
0
0
0
0
0
0
0
0
0
0
0
0
0
0
0
0
0
0
0
0
0
0
0
0
0
0
0
0
0
0
0
0
0
0
0
0
0
0
0
0
0
0
0
0
0
0
0
0
0
0
0
0
0
0
0
0
0
0
0
0
0
0
0
0
0
0
0
0
0
0
0
0
0
0
0
0
0
0
0
0
0
0
0
0
0
0
0
0
0
0
0
0
0
0
0
0
0
0
0
0
0
0
0
0
0
0
0
0
0
0
0
0
0
0
0
0
0
0
0
0
0
0
0
0
0
0
0
0
0
0
0
0
0
0
0
0
0
0
0
0
0
0
0
0
0
0
0
0
0
0
0
0
0
0
0
0
0
0
0
0
0
0
0
0
0
0
0
0
0
0
0
0
0
0
0
0
0
0
0
0
0
0
0
0
0
0
0
0
0
0
0
0
0
0
0
0
0
0
0
0
0
0
0
0
0
0
0
0
0
0
0
0
0
0
0
0
0
0
0
0
0
0
0
0
0
0
0
0
0
0
0
0
0
0
0
0
0
0
0
0
0
0
0
0
0
0
0
0
0
0
0
0
0
0
0
0
0
0
0
0
0
0
0
0
0
0
0
0
0
0
0
0
0
0
0
0
0
0
0
0
0
0
0
0
0
0
0
0
0
0
0
0
0
0
0
0
0
0
0
0
0
0
0
0
0
0
0
0
0
0
0
0
0
0
0
0
0
0
0
0
0
0
0
0
0
0
0
0
0
0
0
0
0
0
0
0
0
0
0
0
0
0
0
0
0
0
0
0
0
0
0
0
0
0
0
0
0
0
0
0
0
0
0
0
0
0
0
0
0
0
0
0
0
0
0
0
0
0
0
0
0
0
0
0
0
0
0
0
0
0
0
0
0
0
0
0
0
0
0
0
0
0
0
0
0
0
0
0
0
0
0
0
0
0
0
0
0
0
0
0
0
0
0
0
0
0
0
0
0
0
0
0
0
0
0
0
0
0
0
0
0
0
0
0
0
0
0
0
0
0
0
0
0
0
0
0
0
0
0
0
0
0
0
0
0
0
0
0
0
0
0
0
0
0
0
0
0
0
0
0
0
0
0
0
0
0
0
0
0
0
0
0
0
0
0
0
0
0
0
0
0
0
0
0
0
0
0
0
0
0
0
0
0
0
0
0
0
0
0
0
0
0
0
0
0
0
0
0
0
0
0
0
0
0
0
0
0
0
0
0
0
0
0
0
0
0
0
0
0
0
0
0
0
0
0
0
0
0
0
0
0
0
0
0
0
0
0
0
0
0
0
0
0
0
0
0
0
0
0
0
0
0
0
0
0
0
0
0
0
0
0
0
0
0
0
0
0
0
0
0
0
0
0
0
0
0
0
0
0
0
0
0
0
0
0
0
0
0
0
0
0
0
0
0
0
0
0
0
0
0
0
0
0
0
0
0
0
0
0
0
0
0
0
0
0
0
0
0
0
0
0
0
0
0
0
0
0
0
0
0
0
0
0
0
0
0
0
0
0
0
0
0
0
0
0
0
0
0
0
0
0
0
0
0
0
0
0
0
0
0
0
0
0
0
0
0
0
0
0
0
0
0
0
0
0
0
0
0
0
0
0
0
0
0
0
0
0
0
0
0
0
0
0
0
0
0
0
0
0
0
0
0
0
0
0
0
0
0
0
0
0
0
0
0
0
0
0
0
0
0
0
0
0
0
0
0
0
0
0
0
0
0
0
0
0
0
0
0
0
0
0
0
0
0
0
0
0
0
0
0
0
0
0
0
0
0
0
0
0
0
59
59
60
61
61
62
62
63
64
65
66
66
67
68
68
69
70
70
71
72
72
73
74
75
75
75
75
76
76
77
77
77
78
80
80
81
81
81
81
82
82
83
83
83
83
84
84
85
85
85
85
84
85
85
85
85
85
85
85
85
85
85
84
84
84
84
84
84
84
84
85
84
85
85
85
86
86
85
85
85
86
86
86
86
86
87
87
87
86
86
86
86
86
86
87
87
87
87
87
87
87
86
86
86
87
87
87
87
87
87
86
85
86
86
87
87
87
87
87
86
87
87
87
87
87
87
87
87
87
87
88
88
88
88
88
88
88
88
88
88
87
87
87
87
87
87
87
87
87
86
86
86
87
86
87
87
86
86
85
85
85
85
85
85
85
85
86
86
86
85
85
85
85
85
85
85
86
86
86
86
86
86
86
86
86
86
86
86
85
85
85
85
85
86
86
86
85
85
85
85
86
86
86
86
86
86
85
85
86
86
85
85
85
85
85
85
85
84
84
85
84
84
84
84
83
83
83
83
82
82
83
83
83
84
83
83
83
83
83
83
83
83
83
83
83
83
83
83
83
83
82
83
83
83
83
83
82
82
82
82
82
82
82
81
81
81
81
81
81
80
79
79
80
80
80
80
80
79
79
80
80
79
79
80
80
80
80
80
80
80
80
80
80
80
80
80
80
80
80
80
80
80
81
82
82
81
81
81
81
81
81
81
81
82
82
81
81
82
82
81
81
81
81
81
81
81
81
81
81
81
80
80
80
80
80
80
80
80
79
80
80
80
80
80
79
79
79
78
78
78
78
78
78
79
78
78
78
78
79
78
78
78
78
78
78
78
78
78
78
78
78
78
78
78
79
79
79
79
79
79
79
79
79
78
78
78
77
77
77
77
76
76
76
76
77
77
77
76
76
76
76
76
76
76
76
76
76
76
76
76
77
77
77
77
77
77
77
76
76
76
76
76
76
75
75
74
73
74
73
73
71
71
70
71
70
70
68
68
68
68
67
67
66
67
66
66
65
65
65
64
65
64
64
64
64
63
63
63
62
63
63
62
62
61
60
61
60
60
59
59
58
57
57
57
57
57
56
56
55
55
55
54
55
55
54
54
54
54
54
54
54
54
55
55
56
56
56
56
56
56
57
57
57
58
59
59
60
61
61
62
62
63
65
65
67
67
69
69
70
72
72
73
74
76
76
77
77
78
79
79
80
80
80
81
82
82
83
83
83
82
83
83
83
83
83
83
83
83
83
83
82
81
82
81
82
82
82
81
81
81
81
81
81
81
82
82
82
83
82
82
82
82
82
83
83
83
83
83
83
83
84
83
83
83
84
83
83
84
84
84
84
84
85
85
86
87
87
87
88
88
88
88
88
89
89
88
87
86
84
82
79
77
73
69
65
60
54
48
41
32
25
17
8
0
-10
-19
-29
-39
-49
-58
-68
-75
-83
-89
-95
-100
-105
-109
-111
-112
-112
-110
-108
-104
-101
-95
-89
-83
-75
-67
-59
-51
-42
-34
-26
-19
-12
-4
2
9
16
21
28
33
38
43
47
50
54
57
60
63
67
69
71
74
76
77
78
80
81
83
84
84
85
85
85
85
85
85
85
85
85
85
85
85
85
85
85
85
84
85
85
85
84
85
85
85
85
85
84
85
86
86
87
87
86
86
86
86
87
87
87
87
87
87
87
87
86
87
87
87
86
86
86
86
86
86
86
86
86
86
86
87
87
87
87
86
86
86
85
85
86
86
86
86
86
85
85
85
85
85
85
85
85
84
84
84
84
85
84
84
84
84
84
84
84
84
84
84
84
84
84
83
83
83
83
83
84
84
83
84
85
85
85
86
85
86
86
86
86
86
86
86
86
86
86
86
85
85
84
84
84
84
83
83
84
83
83
83
83
83
83
82
82
82
82
83
83
82
82
82
81
82
82
82
82
81
82
82
81
82
82
82
81
81
81
81
81
82
81
81
81
80
80
80
81
80
80
80
80
79
79
79
78
78
78
79
79
78
78
77
77
78
78
78
78
78
78
78
78
78
78
78
77
77
77
77
77
77
76
76
75
75
75
74
75
74
74
73
73
73
73
72
72
71
71
71
70
69
68
68
69
68
68
67
67
66
66
65
65
64
64
63
63
63
63
62
62
61
61
60
60
60
59
59
58
57
58
57
56
56
55
54
54
53
52
51
50
49
47
47
47
47
46
46
45
44
44
43
42
42
43
42
41
41
40
40
40
40
39
39
38
38
38
38
37
37
37
36
36
36
35
34
35
34
34
33
33
32
32
31
32
33
33
32
32
32
32
32
32
32
32
32
33
33
34
34
34
34
35
36
37
37
38
39
39
39
40
41
41
42
43
43
44
45
46
46
46
46
47
48
49
51
51
52
52
53
53
54
55
56
57
56
57
58
59
59
60
60
61
61
62
62
63
64
64
64
65
65
65
66
66
66
66
66
66
67
67
66
66
67
68
68
69
69
69
69
69
70
70
71
71
71
71
72
72
72
72
73
72
72
72
72
73
73
73
73
73
73
73
73
73
73
72
72
72
72
72
71
71
71
72
72
72
72
72
72
72
72
73
72
72
73
73
73
73
73
73
73
73
73
73
73
73
73
73
73
74
74
74
74
73
73
73
73
73
73
73
73
73
74
75
75
75
75
75
75
75
76
76
76
76
76
76
76
76
76
77
77
76
76
76
76
76
76
76
77
76
76
76
76
75
75
75
75
75
75
74
74
74
74
73
74
75
75
75
74
74
75
75
75
76
76
76
76
76
76
76
76
76
76
75
76
76
76
76
75
75
75
75
75
74
74
74
74
74
75
74
72
72
72
72
73
74
74
73
73
73
73
73
73
73
73
73
73
74
74
74
74
74
74
75
74
75
75
75
75
76
76
76
76
76
76
76
76
76
75
75
75
74
74
75
75
75
75
75
75
74
74
75
75
75
75
75
74
74
74
74
74
74
73
73
73
73
73
73
72
72
72
72
72
72
72
72
72
72
72
72
72
72
72
73
73
74
74
74
74
74
74
74
74
74
74
74
74
74
74
73
73
74
74
73
73
74
73
73
73
73
73
73
73
73
73
73
73
73
73
73
72
72
72
72
73
74
73
73
73
73
73
74
74
74
74
74
74
74
74
74
74
74
74
75
75
75
75
75
75
74
74
74
74
73
73
72
73
73
72
71
70
69
69
70
70
70
69
68
67
66
67
66
66
66
65
64
65
64
63
64
63
62
63
62
62
62
62
62
61
62
61
61
61
61
61
61
60
60
59
60
59
59
58
59
59
59
58
57
56
57
56
55
54
54
54
53
52
52
51
51
50
49
49
48
48
47
47
46
46
46
46
46
45
46
45
45
46
46
46
46
46
45
46
47
47
47
48
49
49
50
51
51
52
52
53
54
54
55
56
57
58
59
59
60
62
63
63
65
65
65
66
66
67
67
68
68
68
68
68
69
69
69
70
71
71
72
72
72
73
72
73
73
74
74
74
74
74
75
75
75
75
75
75
75
75
75
75
75
75
75
75
75
75
75
75
75
75
75
75
74
75
75
75
75
75
76
76
75
75
75
75
75
75
75
75
75
75
75
75
75
76
76
76
76
77
77
77
78
78
78
79
79
79
79
79
78
78
77
75
74
70
67
63
60
55
49
45
38
31
23
16
9
0
-9
-18
-28
-36
-46
-55
-64
-72
-80
-87
-93
-99
-103
-107
-110
-112
-113
-112
-110
-107
-104
-99
-93
-87
-80
-72
-64
-56
-48
-41
-30
-22
-14
-7
1
8
15
21
27
33
38
43
47
51
55
57
60
63
65
68
69
71
72
73
75
76
76
77
78
78
79
79
78
79
79
78
78
78
78
78
79
79
78
78
78
77
77
78
78
78
78
78
78
78
78
78
78
78
78
78
78
78
79
79
79
79
79
79
80
80
80
80
80
79
79
79
78
78
77
77
78
78
78
77
78
77
77
77
77
77
77
77
77
77
77
77
77
77
76
76
76
77
77
77
77
77
77
77
77
77
77
77
77
77
77
77
77
76
77
76
77
77
78
78
77
77
77
77
77
76
76
76
77
77
77
77
77
77
77
77
77
77
77
77
77
77
77
77
78
78
78
78
78
78
78
78
77
77
76
77
78
78
78
78
78
78
77
77
77
77
76
76
76
76
76
76
76
76
76
76
76
76
77
76
76
76
76
76
77
77
77
77
76
76
76
76
75
75
75
75
76
75
75
75
74
75
75
75
74
74
74
74
74
74
73
73
73
72
72
72
72
72
72
71
71
70
70
70
69
69
69
68
68
68
68
67
67
66
67
66
67
67
67
67
67
66
66
66
65
65
65
65
64
64
64
63
63
62
62
61
61
61
60
61
60
59
58
58
58
57
56
56
56
55
55
54
53
51
51
51
51
51
50
50
49
48
48
48
48
47
47
46
46
45
45
44
44
43
43
43
42
41
41
40
40
40
39
38
37
37
37
36
35
35
35
34
33
32
32
32
31
31
31
30
31
30
29
30
30
29
29
29
29
29
29
28
28
28
28
28
28
28
28
28
28
28
29
29
29
29
29
29
29
30
31
31
32
32
32
33
35
35
36
36
37
38
39
40
40
42
43
44
45
45
45
46
47
48
49
50
49
50
51
52
52
53
54
53
54
55
55
56
56
57
57
58
58
58
59
59
60
61
61
62
62
62
62
62
63
63
64
64
64
65
65
65
65
66
66
66
66
66
67
67
68
68
68
68
68
69
69
69
69
69
70
70
70
69
69
70
71
72
72
72
72
72
73
73
72
73
73
73
73
73
74
74
74
74
74
74
74
74
74
74
74
74
74
74
75
75
75
75
75
75
76
76
75
75
75
75
76
76
77
76
76
76
76
76
76
77
77
77
77
77
77
77
77
77
77
77
76
77
77
77
77
77
77
77
78
78
77
77
77
77
77
77
76
77
76
76
77
77
77
77
77
76
76
76
76
76
76
76
75
75
75
75
75
75
75
75
75
75
75
75
76
76
76
76
76
76
76
76
76
77
77
77
76
75
75
76
77
77
77
77
77
76
76
76
76
76
76
76
76
76
76
76
76
76
76
76
75
75
75
75
75
75
75
75
75
75
75
75
75
74
74
74
74
73
73
74
75
76
76
76
76
76
76
76
76
76
76
76
76
76
76
76
76
76
76
76
76
77
77
77
77
77
77
77
77
78
78
78
78
78
78
78
77
77
76
76
76
76
76
76
75
75
75
75
75
75
74
74
74
74
74
74
75
75
75
75
75
76
76
76
75
75
75
76
76
76
76
76
77
77
76
76
76
75
75
75
76
76
76
76
76
76
76
77
76
76
77
77
77
77
77
77
77
77
78
78
79
79
79
79
78
78
78
77
78
78
77
77
76
75
76
75
74
73
73
73
73
73
72
72
71
71
70
70
69
70
70
69
69
69
70
69
69
69
68
68
69
68
68
68
68
68
67
66
67
66
66
65
65
64
64
63
63
61
61
61
61
61
60
60
59
58
58
58
58
57
57
57
57
57
57
57
57
57
57
58
58
59
59
60
59
60
60
61
62
63
63
64
65
65
65
66
66
66
67
68
68
69
70
71
71
72
72
73
73
74
74
75
76
76
77
78
79
79
80
80
81
82
82
83
82
83
83
84
84
84
84
85
85
85
85
85
85
85
85
85
86
87
87
87
86
86
86
86
86
86
86
86
86
86
86
86
86
86
86
86
86
86
87
87
87
87
87
87
87
87
87
87
87
87
87
86
86
85
85
85
86
87
87
87
87
87
88
88
89
89
90
90
91
90
90
90
90
89
88
87
85
82
79
75
71
66
62
56
50
43
35
26
18
10
0
-9
-19
-28
-38
-48
-55
-63
-70
-77
-84
-89
-93
-96
-98
-99
-100
-98
-96
-92
-88
-82
-76
-69
-62
-54
-46
-37
-29
-21
-12
-5
4
11
18
25
32
38
44
49
54
58
62
65
69
73
76
78
80
82
84
85
87
87
89
90
90
91
91
91
91
91
92
91
91
90
90
90
89
89
89
88
89
88
89
88
88
88
87
87
88
88
88
87
87
88
89
89
90
90
90
90
90
91
91
91
91
91
91
91
91
91
91
91
91
91
91
90
90
90
90
89
89
89
88
88
88
87
87
87
87
87
88
87
86
86
87
88
87
88
87
87
86
86
86
86
86
86
86
86
86
86
86
86
86
86
86
86
87
87
87
87
87
87
88
88
88
88
88
88
88
88
88
87
88
89
89
89
89
89
89
89
89
89
89
89
89
89
88
88
88
88
88
87
87
87
87
87
87
87
86
86
86
86
86
86
86
85
85
85
85
85
85
85
84
85
85
86
86
85
85
84
84
84
84
84
84
84
84
83
83
83
82
83
82
82
82
82
81
81
81
81
81
80
80
80
80
80
79
79
79
80
79
78
78
78
79
78
78
77
77
78
77
77
77
77
76
77
77
76
76
76
76
75
75
75
75
75
74
74
73
73
72
72
72
71
71
70
70
70
69
69
68
67
67
67
67
68
67
66
65
65
64
64
64
64
63
63
62
61
62
61
60
59
59
59
58
57
58
57
56
56
55
55
54
54
54
53
52
52
52
51
50
50
49
49
48
48
47
47
46
46
46
45
45
44
43
42
43
42
41
40
39
40
39
38
38
38
37
37
37
36
36
35
36
35
35
35
35
34
34
33
34
33
32
32
33
33
33
34
34
34
34
33
34
34
34
35
36
35
36
37
37
37
38
37
38
40
39
40
41
42
42
43
44
44
45
45
46
47
48
48
49
49
50
51
52
53
54
55
55
56
56
57
57
58
59
59
60
61
61
62
62
62
63
63
64
65
65
66
66
67
67
67
68
68
69
69
69
70
70
70
70
69
70
71
71
72
72
72
71
71
72
71
71
72
72
72
72
73
73
73
73
73
74
74
74
75
74
74
74
74
74
75
75
75
75
75
75
75
75
75
75
74
74
75
75
75
76
75
75
75
75
76
76
77
77
77
77
78
78
78
78
78
78
78
78
78
79
80
80
80
80
80
80
80
80
80
80
79
79
79
79
79
79
80
80
80
80
80
80
80
79
80
79
79
79
79
79
79
79
78
78
78
78
78
78
78
78
78
78
78
78
78
78
78
78
78
78
78
78
78
79
78
78
78
78
79
79
78
78
78
78
78
78
78
78
77
77
77
77
77
77
76
76
76
76
76
76
76
76
75
75
75
75
75
75
75
75
75
75
74
74
74
74
73
74
75
75
75
74
74
74
75
75
75
75
75
75
75
75
75
75
75
74
74
74
74
74
74
74
74
74
74
74
74
75
74
74
74
74
73
73
73
72
73
74
73
73
73
73
73
72
72
73
73
73
73
73
73
73
73
73
73
73
73
72
73
73
73
72
72
72
72
72
72
72
72
72
72
72
73
73
72
73
73
73
74
74
73
73
74
74
73
73
73
73
73
73
74
73
73
73
73
73
73
73
73
73
74
74
74
74
74
74
74
74
74
74
74
73
73
73
74
74
74
74
75
75
75
74
74
74
74
75
75
75
75
74
74
74
74
74
74
74
73
73
73
73
73
73
72
72
73
73
72
72
72
71
71
70
71
70
70
69
69
69
69
69
68
68
67
66
67
66
65
66
65
64
64
64
64
63
63
63
63
62
62
62
62
62
61
60
60
60
60
59
58
59
58
57
56
56
55
55
55
55
54
55
54
53
53
53
53
52
52
51
51
51
51
50
51
51
50
51
51
51
51
51
51
51
51
52
52
53
53
53
53
53
54
54
55
55
54
56
58
59
60
61
62
62
63
64
66
67
67
68
68
69
70
70
70
72
72
72
73
74
74
75
75
75
75
76
76
76
77
76
76
76
76
76
76
76
75
75
76
76
77
77
77
76
77
77
77
77
77
77
78
78
78
78
79
79
79
79
80
80
80
80
80
80
80
80
80
80
80
79
79
79
79
78
77
76
76
75
76
77
77
77
77
77
77
77
77
78
78
79
79
80
81
81
82
82
82
81
81
79
78
76
74
70
67
63
59
54
48
42
34
27
19
12
3
-7
-16
-26
-36
-45
-54
-63
-72
-79
-86
-93
-99
-103
-107
-110
-111
-112
-111
-110
-107
-103
-98
-93
-87
-80
-72
-64
-56
-48
-39
-31
-23
-14
-6
1
7
14
20
26
32
36
40
44
49
53
57
59
62
64
67
69
70
72
73
74
76
77
78
78
79
79
79
80
80
80
81
81
81
81
81
81
82
81
81
81
80
81
81
80
81
80
79
79
80
81
81
81
80
80
80
80
80
80
81
81
81
81
81
81
81
81
81
81
81
81
81
81
81
81
80
80
80
80
80
79
80
80
80
80
80
79
79
79
80
80
80
81
81
81
81
81
81
81
82
82
82
82
82
82
82
82
81
81
81
81
81
81
81
81
82
82
81
81
81
81
81
81
81
81
81
80
80
81
81
81
81
81
80
80
80
79
79
80
80
79
79
79
79
78
78
79
79
79
78
79
79
79
79
79
79
79
79
79
79
79
79
79
79
79
78
78
78
78
79
80
79
79
79
78
78
78
79
79
79
79
79
79
79
79
79
79
78
78
78
78
78
78
77
77
77
76
76
76
75
75
74
74
74
74
73
72
71
71
72
72
73
72
72
72
71
71
71
71
71
71
71
71
71
71
72
72
71
71
71
71
70
70
70
70
70
70
69
69
68
68
67
67
66
66
65
64
64
62
63
63
63
62
62
61
60
61
60
60
59
59
58
58
57
57
57
56
57
56
56
55
55
55
54
54
53
53
53
52
51
50
50
49
49
49
47
46
45
45
45
45
44
43
43
41
41
40
39
39
39
38
38
37
38
37
37
36
36
36
35
35
35
34
35
35
34
34
33
33
32
32
32
32
31
30
29
29
28
28
28
29
28
28
28
28
27
27
28
28
28
27
28
28
29
28
29
29
29
30
31
30
31
32
32
33
34
34
35
35
36
36
37
38
39
40
40
40
41
42
43
45
45
46
46
47
48
49
50
50
51
51
52
53
53
53
54
55
55
55
56
56
57
58
57
58
58
58
59
59
59
60
60
60
61
61
61
61
61
62
63
64
64
64
64
64
65
65
66
66
65
66
66
66
66
67
67
67
67
67
66
66
66
66
66
66
67
67
67
66
66
66
66
66
67
67
67
66
66
67
68
68
68
68
68
68
69
69
70
69
69
69
69
69
69
69
70
70
70
70
70
70
70
69
70
70
70
70
70
70
70
70
70
70
70
70
71
71
71
72
72
73
72
72
72
72
72
72
72
73
73
73
73
72
72
72
71
71
70
70
70
70
69
69
70
70
70
70
70
70
70
70
70
70
70
70
70
70
70
70
71
72
72
72
72
72
72
72
72
73
73
73
72
72
72
72
72
71
71
71
71
71
71
71
71
70
70
70
70
70
71
71
71
71
71
70
70
70
70
69
70
70
70
70
69
70
70
70
70
69
69
69
69
69
69
69
69
69
68
69
69
70
70
70
70
70
70
70
70
71
71
70
70
70
70
70
69
68
69
68
69
69
69
68
68
68
68
68
67
67
68
68
68
68
68
68
67
67
67
67
67
67
67
67
67
67
67
67
67
66
67
67
67
67
67
67
66
66
66
66
67
68
68
68
68
68
67
68
68
68
68
68
68
68
68
68
68
68
68
68
68
68
68
67
67
67
67
67
67
67
67
68
67
67
67
67
67
68
67
67
68
69
68
68
68
68
68
68
68
69
69
69
69
69
68
68
68
68
68
68
68
68
68
68
69
69
69
69
69
69
68
68
68
68
67
68
67
66
66
66
66
67
67
66
66
66
66
66
66
66
66
67
67
67
67
67
67
67
67
68
67
67
67
67
66
66
66
66
65
65
65
64
63
62
63
62
61
60
60
60
60
60
59
59
59
59
58
58
59
59
58
58
57
57
57
57
57
57
56
56
56
55
55
55
55
54
54
53
52
52
52
51
50
50
49
50
48
48
47
47
47
47
47
46
45
46
46
45
45
45
44
44
44
44
44
44
44
44
45
45
44
45
45
45
47
47
47
47
48
49
49
50
50
51
51
52
53
53
54
55
57
58
58
58
58
59
59
60
61
62
62
63
63
63
63
64
64
64
64
66
66
67
67
67
67
67
68
68
69
69
70
70
70
70
70
71
71
70
70
71
71
72
72
72
72
71
71
71
72
72
72
72
72
72
71
71
71
72
72
72
73
73
73
73
73
73
73
73
73
73
73
74
74
74
73
73
73
72
72
71
73
72
73
73
74
74
74
74
74
74
74
74
74
74
73
72
71
68
67
63
60
57
52
47
42
36
29
22
16
7
-2
-11
-21
-30
-40
-50
-60
-69
-78
-86
-93
-99
-106
-111
-114
-118
-120
-121
-120
-119
-117
-113
-110
-104
-99
-91
-84
-77
-69
-62
-54
-45
-38
-31
-22
-15
-8
-3
4
10
16
20
25
30
34
38
42
45
48
52
56
59
61
63
65
67
69
70
71
72
73
75
75
75
75
75
75
75
74
74
74
75
74
74
73
74
73
73
74
73
73
73
73
73
73
73
73
72
72
73
74
75
75
75
75
75
75
75
75
76
76
76
76
76
75
75
75
75
75
75
75
75
75
75
75
75
75
75
75
75
75
75
75
75
74
74
74
74
74
74
75
75
75
75
75
75
75
75
75
75
75
75
75
76
76
75
75
75
75
75
75
75
74
74
74
74
74
74
74
73
73
73
73
73
73
73
72
71
71
72
73
73
73
73
73
72
72
72
72
72
72
72
72
72
72
72
72
72
71
71
72
72
72
72
72
72
72
72
72
72
72
72
72
72
72
73
72
71
71
72
71
72
72
72
71
72
71
71
71
71
71
71
71
69
70
70
70
69
69
69
69
69
69
69
69
69
69
69
69
69
68
68
68
68
67
67
67
67
66
67
66
67
67
66
66
65
65
65
65
65
65
64
64
64
64
64
63
63
63
63
63
63
62
63
63
63
62
62
62
62
61
61
61
61
60
60
59
58
58
57
57
58
57
57
57
56
55
54
55
54
54
53
53
52
53
52
51
51
50
50
49
50
49
48
47
47
47
46
46
45
44
45
44
43
43
42
42
40
40
39
40
40
39
38
37
37
36
36
36
35
35
34
34
34
33
33
32
33
32
32
32
31
31
30
30
29
30
29
29
28
27
27
27
26
26
25
24
24
23
23
23
24
24
24
24
23
24
24
24
24
25
26
26
26
27
28
28
28
29
29
30
31
32
33
33
34
35
35
36
36
37
38
39
39
39
40
41
41
42
42
44
44
45
46
46
47
47
48
48
49
50
50
51
51
52
53
52
53
54
54
55
56
57
57
57
58
58
59
59
59
60
61
61
61
61
62
62
62
62
63
63
63
64
63
63
63
63
63
64
64
64
64
64
64
64
63
63
63
63
63
64
64
64
64
64
64
64
64
65
64
64
64
64
64
64
64
64
63
64
63
64
65
65
65
64
64
64
64
64
64
65
65
65
65
66
66
65
66
66
66
66
67
67
67
67
68
68
68
68
68
68
68
68
68
68
68
67
68
67
68
67
68
68
68
68
68
68
68
68
68
68
68
69
69
69
69
69
70
70
69
69
69
70
70
70
71
71
71
71
71
71
71
71
71
71
71
71
70
71
71
71
72
72
71
71
71
71
71
71
71
71
71
71
71
70
70
70
70
69
69
69
69
69
69
69
69
69
69
69
69
68
68
68
68
68
68
68
69
69
68
69
69
69
70
70
70
70
70
69
69
69
69
69
69
69
69
68
68
68
68
68
68
67
67
67
67
67
67
67
67
67
68
68
68
68
68
67
66
66
67
66
67
67
67
66
67
67
66
67
67
67
67
67
67
67
67
67
67
67
67
67
67
68
67
67
67
67
67
67
68
68
68
68
68
68
68
68
67
67
68
68
69
69
69
68
68
68
69
69
69
69
69
69
69
69
69
69
69
68
68
69
69
69
69
68
68
68
68
68
68
68
68
68
68
69
69
68
68
68
69
69
69
69
69
69
68
68
69
69
69
69
69
69
69
69
69
68
68
68
68
68
68
68
68
68
68
69
69
69
69
69
69
69
68
68
68
68
69
68
69
69
69
69
69
69
68
68
68
69
69
68
68
68
67
67
67
68
67
67
67
67
67
66
66
66
67
67
67
67
67
66
66
67
67
66
66
66
65
66
66
65
66
65
64
64
63
63
62
61
61
60
60
59
59
58
59
58
57
57
56
57
57
56
56
55
55
56
55
55
55
54
54
54
53
53
52
53
51
51
51
51
51
50
50
50
49
48
48
47
47
48
47
46
46
46
45
45
44
44
44
45
44
44
44
44
44
44
44
44
44
44
44
45
45
45
46
46
46
46
48
49
50
51
52
53
54
54
56
57
58
58
59
60
60
61
62
63
63
65
65
66
66
67
67
67
68
69
69
69
70
70
70
69
69
69
70
70
69
70
69
71
71
72
71
71
71
71
72
71
71
71
71
71
71
72
72
72
72
72
72
72
72
72
72
72
72
72
72
73
72
72
72
72
73
73
72
73
72
73
72
73
74
74
73
73
73
73
74
74
74
75
75
75
75
76
76
76
76
75
76
75
74
73
70
69
66
63
59
56
51
46
40
33
27
18
12
3
-6
-15
-25
-33
-44
-53
-62
-72
-81
-89
-96
-102
-108
-112
-116
-119
-121
-122
-121
-120
-117
-113
-108
-103
-97
-89
-83
-75
-67
-59
-52
-42
-35
-27
-19
-13
-7
0
6
10
16
21
25
30
34
39
41
45
48
51
53
57
59
61
64
65
66
67
69
70
71
72
73
73
74
74
74
74
74
74
73
74
74
74
73
74
74
73
74
72
71
72
72
73
74
74
73
73
72
73
74
73
73
73
73
73
73
73
73
73
73
73
73
74
74
74
74
74
74
74
74
74
74
74
74
74
74
73
73
73
72
72
73
73
74
74
73
73
73
73
73
73
73
73
73
73
72
72
72
72
72
71
72
71
71
72
72
71
71
71
71
71
71
71
71
71
71
70
70
69
69
69
70
70
70
70
70
70
69
69
69
69
69
69
69
69
69
69
69
69
69
69
69
69
69
69
69
69
69
69
69
70
70
69
69
69
69
69
70
69
68
68
69
69
69
69
68
68
68
67
67
67
67
67
66
66
66
66
66
66
65
65
65
65
65
65
65
65
66
65
65
65
65
65
65
64
64
64
64
63
63
63
64
64
64
64
64
63
63
63
63
63
63
63
63
63
63
62
62
61
61
61
61
60
60
59
59
58
59
58
58
57
57
57
57
57
57
56
56
55
55
55
55
56
55
56
55
55
54
54
54
53
53
53
53
52
53
52
52
52
51
52
51
51
50
50
49
49
49
48
48
47
46
46
45
44
43
43
42
40
40
39
39
38
38
38
37
36
36
35
35
34
34
34
33
32
31
32
31
30
30
29
29
29
28
27
27
27
26
26
25
26
25
24
23
24
23
23
22
22
22
21
21
22
22
21
21
21
21
21
20
20
20
20
20
20
20
20
21
21
20
20
21
22
22
23
23
23
24
25
26
25
26
26
27
28
28
29
29
29
29
30
31
32
33
33
34
34
35
35
36
36
37
38
39
39
40
41
42
43
43
44
45
46
46
47
48
49
49
50
50
50
50
51
51
52
52
52
52
53
53
53
54
55
55
56
55
55
56
56
56
57
57
56
57
57
57
57
57
58
58
58
58
58
58
58
58
58
59
59
59
59
59
59
58
59
59
58
58
58
57
57
58
58
58
58
58
58
57
58
58
58
58
58
58
59
59
59
59
60
60
60
60
61
61
60
60
61
61
62
62
62
62
62
62
63
63
63
63
63
63
62
63
63
63
63
63
63
63
62
62
63
62
62
62
61
62
61
61
61
60
60
61
61
61
61
61
60
60
61
61
61
61
62
62
62
63
63
63
63
63
63
63
64
63
63
63
63
63
63
63
63
63
63
62
62
62
62
62
61
62
62
62
62
62
62
62
62
62
62
62
62
62
62
63
63
63
63
62
61
62
62
61
62
62
62
62
61
61
61
60
60
60
61
61
61
61
61
60
61
60
61
61
61
60
60
61
61
61
61
60
60
60
59
59
59
59
59
59
58
57
57
58
58
58
59
59
58
58
57
57
57
57
57
57
57
58
58
58
58
58
58
58
57
57
57
58
58
57
57
57
57
57
58
58
58
58
58
58
58
58
58
59
58
59
59
58
58
58
58
59
58
58
58
58
58
58
58
58
58
58
58
57
57
57
57
57
58
58
58
58
58
58
58
57
57
57
58
58
58
57
57
57
58
58
58
58
57
57
57
57
57
57
57
57
58
58
58
58
58
58
58
58
58
58
58
58
58
58
58
58
58
58
58
58
58
58
58
57
57
57
58
58
58
59
58
58
57
58
58
58
57
57
56
57
56
56
55
56
55
55
54
54
54
53
52
53
52
51
51
51
51
50
51
50
50
49
50
48
48
47
47
47
48
48
47
47
46
46
45
45
45
44
44
43
43
43
42
42
41
41
40
40
39
39
38
38
37
37
36
36
35
34
34
33
33
33
33
32
32
32
32
32
33
33
33
33
33
33
34
35
35
36
36
36
37
37
38
38
39
39
40
41
42
43
43
44
45
45
45
46
46
48
48
49
49
50
51
52
51
52
53
53
54
55
56
56
56
56
57
58
58
58
59
59
59
60
60
61
61
61
62
62
63
62
63
63
63
63
63
63
63
63
63
63
63
63
63
63
62
63
62
63
62
63
63
63
62
62
62
62
62
62
62
62
62
62
61
61
62
62
62
62
62
63
63
63
63
64
64
65
65
65
66
66
66
67
67
66
66
65
65
66
65
63
62
60
57
54
51
47
43
39
33
27
21
13
7
-1
-9
-18
-28
-37
-46
-55
-64
-73
-82
-89
-97
-103
-109
-115
-118
-121
-124
-124
-124
-123
-120
-116
-111
-105
-99
-91
-83
-75
-67
-59
-50
-41
-32
-24
-16
-10
-2
4
10
17
22
27
31
35
39
42
45
47
49
52
54
56
57
59
60
60
61
62
63
63
63
64
64
65
64
64
64
64
64
63
64
64
63
64
63
64
64
63
64
64
63
63
63
63
63
63
63
63
64
64
64
64
64
64
64
64
64
64
64
64
64
64
65
66
66
66
66
67
67
67
67
66
67
67
67
67
67
67
67
66
66
66
66
66
66
65
65
65
65
64
65
65
65
65
65
65
65
65
65
64
64
64
63
64
65
65
65
64
64
64
64
64
64
64
63
63
63
63
63
64
64
64
64
64
64
64
63
63
63
63
63
63
63
63
63
62
62
62
62
62
61
60
60
61
62
61
61
61
62
62
62
62
61
61
61
62
62
62
63
63
63
63
64
64
64
64
64
64
65
65
65
64
64
64
64
63
63
63
63
63
62
61
61
62
62
61
61
61
60
60
59
59
59
59
59
59
59
59
59
59
59
59
59
59
60
60
60
60
60
59
59
59
59
59
59
58
58
58
57
57
56
56
56
57
56
56
56
55
56
56
55
55
55
55
54
54
53
53
52
52
52
52
51
51
50
49
49
49
48
48
47
47
46
45
45
44
45
44
43
42
42
42
41
41
42
41
40
40
40
39
39
38
38
38
37
36
37
36
36
35
34
34
34
34
33
32
32
32
31
30
30
30
29
28
28
27
26
26
25
24
24
22
22
22
22
21
22
21
20
20
20
19
19
18
18
19
18
18
18
18
17
17
17
17
17
17
17
17
17
17
17
17
17
17
17
17
17
17
17
17
17
16
17
17
19
19
20
20
20
20
21
22
22
23
23
24
24
25
26
27
27
28
29
29
30
31
32
32
32
33
34
35
36
35
36
37
37
38
39
39
40
40
41
42
42
43
44
45
45
46
46
47
48
48
48
49
49
50
50
50
51
51
51
52
52
52
53
53
53
53
53
53
54
54
54
54
54
54
54
54
54
53
54
55
55
55
55
54
54
54
54
54
54
54
54
54
55
55
55
55
56
56
56
56
56
57
57
57
58
58
58
59
59
59
59
59
59
59
58
59
59
59
59
59
60
60
60
59
59
59
60
60
60
60
60
60
61
61
61
60
60
61
61
61
61
61
61
61
61
61
62
62
62
62
62
62
62
62
62
61
60
61
60
61
61
61
60
60
59
60
60
59
59
59
59
59
59
59
59
58
58
58
58
59
59
59
59
59
59
59
60
60
60
59
59
59
59
59
59
58
59
59
59
60
59
59
60
59
59
59
59
59
59
59
59
59
59
58
59
59
58
58
57
57
57
57
57
57
57
56
56
56
56
56
55
55
55
55
55
56
55
55
56
56
57
57
57
57
57
57
57
57
57
57
57
56
56
56
57
57
56
56
56
56
57
56
56
56
56
56
56
56
56
56
56
56
57
57
57
56
56
56
56
57
57
57
58
57
57
56
56
57
56
56
56
56
56
55
55
56
56
56
55
55
56
55
55
55
55
56
56
56
56
56
56
56
56
56
56
56
56
55
56
57
57
57
58
57
57
57
57
58
58
58
58
58
58
58
58
57
57
57
57
57
57
57
56
56
56
55
56
55
55
55
54
53
54
53
53
52
52
51
50
50
51
50
49
50
49
49
48
48
47
48
47
46
47
46
46
45
46
45
45
44
44
44
44
44
43
42
42
43
42
41
41
40
40
40
39
39
38
37
37
38
37
37
37
36
36
36
36
35
36
36
35
36
35
36
35
35
35
35
36
35
35
35
35
36
36
36
37
37
37
38
38
38
39
39
40
41
41
42
43
45
45
47
47
47
49
49
50
51
52
53
53
55
55
55
56
56
56
57
58
58
58
59
59
59
59
59
59
58
59
58
58
59
59
59
60
59
59
59
59
60
60
61
61
61
61
61
62
62
62
62
62
62
62
62
61
61
61
61
60
61
61
61
60
60
61
61
61
61
61
61
60
60
60
61
61
61
61
61
61
63
63
63
63
64
64
65
65
65
65
66
66
66
67
66
66
65
65
63
62
59
57
53
50
46
41
37
30
25
18
11
3
-5
-13
-23
-32
-42
-52
-61
-69
-78
-86
-93
-100
-107
-112
-117
-120
-123
-124
-124
-123
-121
-118
-114
-109
-104
-97
-90
-82
-74
-66
-58
-49
-41
-34
-26
-18
-11
-4
3
9
14
19
25
29
33
36
40
43
46
48
51
52
54
56
57
59
61
61
62
63
63
64
64
64
64
64
64
64
63
64
63
63
62
62
62
62
62
61
62
61
61
61
60
61
60
59
59
60
61
61
61
61
61
61
60
61
61
61
61
61
61
61
62
62
62
61
61
61
61
62
62
62
62
62
62
62
62
63
63
63
63
63
63
63
63
64
63
64
65
64
64
65
65
65
65
65
65
65
65
65
65
65
64
64
64
64
64
64
64
64
64
63
63
63
63
63
63
63
63
63
63
63
63
63
63
62
62
63
62
63
63
63
62
62
62
62
62
62
62
61
61
61
61
61
61
61
62
62
62
62
62
62
62
63
63
63
63
63
63
62
62
62
62
62
62
61
62
62
62
62
61
61
62
61
61
60
60
60
60
60
60
60
60
60
60
59
59
59
59
59
59
59
59
58
58
58
58
57
57
56
57
57
57
56
56
55
56
56
56
56
56
56
55
55
56
56
55
55
54
54
54
54
53
53
53
52
53
53
52
52
51
52
52
52
52
52
52
52
52
52
52
51
51
51
52
51
51
51
51
51
51
50
50
49
48
48
48
47
47
46
45
45
45
44
43
43
42
41
41
40
40
39
39
38
38
38
37
37
36
35
36
35
35
34
34
33
32
32
32
32
32
31
31
30
30
30
30
29
28
27
28
27
27
26
26
26
25
24
23
24
23
23
22
22
22
21
21
20
20
19
19
18
18
18
17
17
16
16
16
17
17
17
17
17
18
18
18
18
19
19
20
20
20
21
21
21
22
23
22
23
24
23
24
25
25
26
26
27
28
28
29
30
30
31
31
32
33
34
36
36
37
38
39
39
40
41
41
42
43
44
45
44
45
45
46
46
47
47
48
48
49
49
50
50
50
50
51
51
52
52
52
53
53
54
54
54
54
55
56
56
56
56
56
56
57
57
58
58
58
58
58
58
58
58
58
58
57
57
57
57
57
57
57
58
58
58
59
58
58
58
58
58
58
58
58
58
58
59
59
60
60
60
60
60
60
60
60
60
60
60
60
61
61
61
61
61
61
61
61
61
61
61
61
61
61
61
61
61
61
61
61
60
60
60
60
60
60
59
60
61
61
61
61
61
61
61
62
62
62
62
61
61
61
62
62
62
62
62
62
62
62
63
63
63
62
63
63
62
62
62
62
61
61
61
61
61
60
60
61
61
61
60
60
60
59
59
60
60
59
59
60
60
60
60
60
60
60
60
60
60
60
60
60
60
60
60
61
60
60
60
60
60
60
59
59
58
58
59
58
59
58
58
57
58
58
58
57
57
57
57
57
57
58
58
58
58
58
58
58
58
59
58
58
58
58
58
58
58
58
58
58
58
58
57
57
57
57
57
58
58
58
58
58
58
57
58
58
58
58
58
58
58
57
57
57
57
57
57
57
57
57
57
57
57
57
57
57
57
57
56
56
56
56
57
56
56
56
57
57
58
58
58
57
57
57
58
57
57
57
57
57
58
58
58
58
58
58
58
58
58
58
58
58
58
58
58
58
58
58
58
58
58
58
58
58
57
57
57
58
58
58
58
58
58
58
58
58
58
58
58
58
58
58
58
57
57
57
57
57
57
57
57
57
57
57
57
57
57
57
57
57
58
57
57
57
57
56
56
57
57
57
57
56
56
55
55
55
55
55
54
53
53
52
52
51
51
51
50
50
50
49
50
49
49
48
48
48
47
47
47
47
47
46
46
45
45
44
45
44
45
44
44
43
42
42
41
40
41
40
39
39
39
38
38
38
37
37
36
36
36
36
36
36
36
36
36
36
36
36
37
37
37
37
37
37
37
38
38
39
40
40
40
41
41
41
42
43
44
43
44
45
46
48
48
49
50
50
52
53
53
54
55
56
56
57
58
58
59
59
60
60
60
61
61
61
61
61
62
62
62
63
63
63
63
63
63
63
64
64
64
64
65
65
65
65
65
65
65
65
65
65
65
65
65
65
65
65
64
64
64
64
63
63
63
63
64
64
64
65
65
65
65
65
65
65
66
65
66
66
66
66
67
67
67
67
67
68
68
68
68
68
68
68
67
67
66
65
63
62
59
56
53
49
45
41
35
29
22
17
10
2
-7
-16
-26
-36
-44
-54
-63
-72
-82
-89
-97
-105
-111
-116
-121
-124
-126
-127
-127
-127
-125
-121
-117
-112
-107
-100
-93
-85
-77
-70
-62
-54
-44
-37
-29
-21
-14
-7
-1
5
11
16
21
26
30
34
37
41
44
47
50
52
54
56
58
59
61
62
63
63
64
65
65
65
65
65
65
66
65
65
65
65
64
63
62
62
62
63
63
63
63
63
62
62
63
63
63
63
63
63
64
64
64
64
64
65
65
65
65
65
66
66
66
66
66
66
66
65
66
66
66
65
65
64
63
63
64
64
64
64
63
64
64
63
64
63
63
63
63
63
63
64
64
63
63
63
64
64
64
64
64
64
64
64
64
64
64
64
64
64
64
64
63
63
62
63
64
64
64
64
64
63
64
64
64
63
63
63
63
63
63
63
63
63
63
63
63
63
63
62
62
62
61
62
61
61
61
62
61
60
60
60
61
59
60
60
60
61
61
61
61
61
60
60
60
60
60
60
60
60
61
61
61
61
61
61
61
60
60
60
61
61
61
61
61
61
61
60
60
60
60
60
59
59
58
58
58
58
58
58
58
57
57
56
56
56
55
55
55
55
55
55
55
55
55
55
54
54
55
55
55
55
55
54
54
54
54
54
53
53
52
52
52
51
51
51
51
51
51
51
50
50
50
50
50
50
49
49
49
48
48
49
48
48
48
47
47
46
47
46
46
45
44
44
44
43
43
42
42
41
40
40
38
37
36
35
35
35
35
35
33
32
32
32
31
30
31
30
29
29
29
28
28
28
27
26
26
26
26
25
25
24
24
24
23
22
22
22
21
21
20
20
20
19
18
18
18
17
17
18
18
18
18
17
17
17
17
17
17
17
17
18
18
18
17
17
17
18
17
18
18
18
18
18
19
19
19
20
21
20
21
22
22
23
23
23
25
25
26
26
27
27
28
29
30
30
31
32
33
34
35
34
35
36
37
38
38
39
40
41
41
42
42
43
44
45
45
46
46
46
47
48
48
48
48
48
50
50
51
51
52
52
52
52
53
53
53
54
54
53
53
54
54
54
54
55
55
55
56
56
55
55
55
56
56
56
56
56
56
56
56
56
57
56
55
56
57
58
58
59
58
58
58
58
58
58
58
58
59
59
59
59
59
60
59
59
59
59
59
60
60
60
60
60
61
61
61
61
61
60
60
60
61
59
59
60
60
60
61
60
60
60
60
59
59
59
59
59
59
60
60
60
59
59
60
60
61
61
61
61
61
62
62
62
63
63
63
63
63
63
64
64
63
63
63
63
63
63
64
63
63
62
63
63
62
62
62
63
63
63
63
64
64
64
64
64
65
65
64
64
64
64
64
65
64
64
65
65
64
64
64
64
63
63
62
62
63
62
62
62
62
61
62
62
62
62
62
62
62
62
61
61
61
61
61
61
61
61
62
62
62
62
62
62
61
61
61
62
62
62
62
62
61
61
61
60
61
62
62
61
61
61
60
60
60
60
60
60
60
60
60
60
60
60
60
60
60
61
61
61
61
61
61
61
61
61
61
61
61
61
61
61
61
60
60
61
61
61
61
61
61
61
61
61
61
61
61
61
61
61
61
61
61
61
61
60
60
60
60
61
61
61
61
61
61
61
61
61
61
61
60
60
61
60
59
59
60
61
60
60
61
61
60
60
60
60
60
60
59
59
59
59
59
59
60
60
60
60
60
61
61
60
61
61
60
62
61
61
62
62
62
62
61
62
61
61
62
63
63
63
62
62
62
62
62
63
63
63
63
63
63
62
62
62
62
62
62
62
62
62
62
62
62
62
62
62
62
62
62
62
62
61
61
61
60
60
60
61
61
60
60
60
59
59
58
58
58
57
57
57
56
55
55
55
54
54
54
53
53
53
52
51
52
51
51
50
50
51
50
50
50
49
49
49
47
47
48
48
47
47
46
46
45
45
44
43
42
42
42
41
40
41
40
39
39
39
38
38
38
37
37
38
38
37
37
37
37
36
37
37
36
37
37
36
36
36
37
38
38
37
38
38
38
39
39
40
40
41
41
42
42
43
44
45
45
46
47
48
49
49
51
51
52
53
54
54
55
56
56
57
57
57
57
58
57
58
58
59
59
59
59
59
59
59
59
59
59
60
59
59
60
60
60
60
60
61
61
60
60
61
61
61
61
61
61
61
62
61
61
61
61
61
61
60
60
60
60
60
61
60
60
59
60
60
60
60
59
60
60
60
60
61
61
61
61
61
62
62
63
63
63
64
64
64
64
64
64
63
62
61
60
58
56
54
51
47
43
40
35
29
23
16
10
2
-6
-15
-24
-34
-44
-54
-63
-73
-83
-91
-99
-107
-113
-120
-124
-128
-132
-134
-135
-135
-133
-132
-128
-123
-118
-112
-106
-99
-91
-84
-75
-68
-59
-50
-42
-34
-27
-20
-14
-9
-3
3
8
13
17
21
25
28
31
34
37
40
42
44
47
49
51
52
53
55
56
56
58
58
58
59
59
59
59
59
59
59
60
60
59
60
59
59
58
58
59
59
59
59
59
60
60
60
60
60
60
60
61
61
60
60
60
60
60
61
61
61
60
60
60
61
61
61
60
61
60
60
60
61
61
60
60
60
59
59
59
59
59
59
59
59
59
59
59
59
59
59
59
59
59
59
59
59
60
61
61
61
61
61
61
60
60
60
59
59
59
60
60
60
60
60
60
59
59
59
60
60
60
60
60
60
60
60
59
59
59
59
59
59
59
59
59
59
58
58
58
58
58
58
58
58
58
58
57
58
57
57
57
58
58
58
58
57
57
57
57
57
57
58
58
58
58
58
58
58
58
57
57
57
57
57
57
57
57
57
57
57
57
57
56
56
56
57
56
56
56
56
57
57
57
57
56
56
56
56
56
56
56
56
55
55
55
55
54
54
54
53
53
53
52
52
52
52
51
51
51
51
51
50
51
51
50
50
49
48
49
48
49
49
49
48
48
48
48
47
47
47
47
46
46
45
45
44
44
44
44
44
44
43
43
42
42
41
41
41
40
40
39
39
38
38
37
36
36
35
34
34
34
34
34
33
32
32
32
32
32
32
31
31
30
30
30
29
28
29
28
27
26
26
25
24
24
23
22
21
21
20
19
19
18
17
17
17
16
15
15
14
15
15
14
14
15
14
14
14
14
14
13
13
13
13
13
12
12
12
11
11
11
11
11
11
11
12
12
11
11
12
12
12
11
12
12
13
13
12
12
12
14
15
16
15
16
17
18
18
19
21
21
22
22
23
24
25
26
26
26
27
28
29
29
30
30
31
32
32
33
33
34
33
33
34
35
35
36
36
37
38
39
40
41
41
41
41
42
41
42
43
43
44
44
45
45
45
45
45
45
45
45
45
45
46
46
46
46
46
46
46
46
47
47
46
46
46
46
47
47
47
48
48
48
48
48
48
48
49
49
49
49
49
50
50
50
50
51
51
51
51
51
51
51
51
51
51
51
51
51
51
51
51
50
50
50
50
50
49
49
50
50
51
51
51
51
51
51
51
51
52
52
52
52
52
52
52
52
52
51
51
51
52
52
51
51
52
52
52
52
52
52
51
51
51
51
51
51
51
51
51
52
52
52
52
52
52
52
52
53
53
53
53
53
53
53
53
53
53
52
52
52
52
52
52
52
51
51
51
51
51
50
50
50
51
51
50
50
50
50
51
50
51
51
51
52
52
52
52
51
51
51
51
51
51
52
52
51
51
51
51
51
51
51
51
51
50
50
50
50
50
50
51
51
50
50
50
50
49
49
49
49
50
50
50
49
49
49
49
49
50
49
49
49
49
49
49
49
49
49
49
49
49
49
49
49
48
48
48
48
48
48
48
48
48
48
48
47
47
47
47
47
48
48
48
47
47
47
47
47
47
46
46
46
46
47
47
47
47
47
47
47
47
47
47
47
47
47
47
48
48
48
49
49
49
49
49
49
49
49
49
50
50
50
50
50
50
50
51
51
52
52
52
52
52
51
51
51
50
50
50
50
50
49
50
50
49
49
49
49
49
48
48
48
48
48
48
47
46
46
47
48
47
48
47
47
47
47
48
47
47
47
47
48
48
48
49
48
49
49
49
49
49
49
50
50
50
50
49
50
49
50
50
50
50
49
49
49
49
48
49
49
49
49
50
49
49
49
49
49
49
48
48
49
49
49
48
48
47
48
47
46
47
46
45
45
44
44
43
43
43
41
41
40
40
40
39
38
38
37
37
38
38
38
37
37
37
37
37
37
36
36
36
36
35
35
35
34
34
34
33
33
32
32
32
31
31
30
30
30
29
28
28
28
28
27
27
27
26
25
25
26
27
26
26
26
25
26
25
26
26
26
26
27
27
27
27
27
28
28
28
28
29
30
31
31
32
33
33
34
35
35
35
36
37
38
38
40
39
41
42
43
44
45
46
46
46
47
47
48
48
49
49
50
50
50
50
50
51
51
52
51
52
52
52
53
52
52
52
52
52
52
52
52
52
52
52
52
52
52
53
52
53
53
53
53
52
53
53
53
53
53
54
54
54
54
54
54
53
53
53
53
53
53
53
53
53
53
54
54
54
54
54
54
55
55
56
57
56
56
57
58
57
57
57
55
53
51
48
46
41
37
33
28
22
16
9
1
-6
-15
-25
-34
-43
-53
-62
-73
-82
-91
-100
-108
-116
-122
-128
-132
-137
-139
-141
-142
-142
-140
-137
-133
-127
-122
-116
-109
-102
-94
-86
-76
-69
-60
-53
-45
-38
-31
-24
-19
-13
-7
-3
2
7
12
15
19
23
25
28
31
34
36
38
39
41
43
44
46
47
48
50
50
51
52
52
52
52
52
53
53
54
53
54
54
54
54
54
54
54
54
54
54
54
55
55
54
54
54
55
55
55
54
54
54
54
54
55
54
54
54
55
55
55
55
55
55
54
54
54
55
55
55
54
54
54
54
54
54
54
54
54
54
54
54
54
54
54
54
54
54
54
54
54
54
54
54
54
53
53
53
53
53
54
54
54
53
53
53
53
53
53
53
53
53
53
53
53
53
53
53
53
53
53
53
53
53
53
53
53
53
53
53
53
53
53
53
53
53
52
52
52
53
54
53
53
52
52
53
52
52
52
52
52
52
52
52
52
53
53
53
53
53
53
53
53
53
53
53
53
53
53
53
53
53
52
52
51
51
51
50
51
51
50
51
50
50
49
49
49
49
48
48
48
48
48
48
49
48
48
48
48
48
48
48
48
48
48
48
48
48
48
48
48
48
48
48
47
47
47
46
47
47
47
47
47
46
46
46
45
45
45
45
44
44
44
43
43
43
42
43
43
43
42
42
42
41
41
40
40
40
39
39
38
39
38
38
37
36
36
35
35
36
35
35
34
33
32
32
31
31
31
30
29
29
29
28
27
26
26
25
24
24
23
22
22
22
21
20
20
19
19
18
18
17
16
15
16
15
14
14
13
13
13
13
13
12
11
11
10
11
10
10
10
9
9
9
8
7
7
6
6
6
5
5
4
4
3
3
3
2
2
2
2
2
2
1
1
1
1
1
1
3
3
3
4
4
3
4
5
6
6
6
7
7
8
8
8
9
9
10
11
12
12
13
13
14
15
15
16
17
17
18
19
19
20
21
21
22
22
22
24
25
26
26
26
27
27
27
28
29
29
30
30
31
31
31
32
32
33
33
34
35
35
36
36
37
37
37
36
37
37
38
38
38
38
38
38
38
38
38
38
39
40
40
40
40
41
41
41
42
42
42
42
43
42
42
42
41
42
42
42
42
41
42
42
42
42
42
42
42
42
42
42
42
42
42
42
42
41
41
42
42
42
42
42
42
42
42
42
42
42
42
42
43
43
44
44
44
44
44
44
44
44
44
44
44
44
44
45
45
45
45
45
45
45
45
45
43
43
43
44
45
45
45
45
44
44
43
43
43
43
43
43
44
44
44
44
44
44
44
44
45
45
45
45
46
46
46
46
46
46
46
46
46
46
46
45
45
45
45
46
46
47
46
46
46
46
45
45
46
45
45
45
45
45
45
44
44
44
44
44
44
45
44
44
44
44
44
44
44
44
44
45
44
44
44
43
44
44
44
43
44
44
44
44
43
43
43
43
44
44
43
43
43
43
43
43
43
42
42
43
43
42
43
43
43
43
43
43
43
43
43
42
42
42
42
42
41
41
41
42
43
42
42
42
42
42
42
41
42
42
42
42
42
43
42
42
42
42
42
43
43
43
43
43
44
43
43
43
43
43
42
42
42
42
42
41
41
41
41
42
42
43
43
42
42
42
43
43
43
44
44
44
44
44
44
44
44
43
44
44
44
43
43
44
43
43
43
42
42
42
42
42
42
42
41
41
42
42
42
41
42
42
42
42
42
42
41
42
42
42
42
42
42
43
42
42
42
42
42
42
42
42
42
42
42
42
42
42
43
42
43
43
43
43
43
43
41
41
42
42
42
43
43
42
42
42
42
42
42
42
42
43
43
42
43
43
43
43
44
44
44
44
44
44
44
43
44
44
43
43
42
41
41
40
39
39
38
38
37
37
37
37
36
36
36
35
35
35
35
35
35
34
36
35
35
35
35
35
34
34
34
34
33
34
33
33
32
33
32
31
31
30
29
29
28
28
28
27
26
26
27
27
26
26
24
24
24
24
24
23
24
23
23
23
22
22
22
22
22
22
23
23
25
25
25
25
26
26
27
28
28
28
29
30
31
31
32
32
33
34
36
37
37
39
39
40
41
42
43
44
45
46
47
47
48
49
50
50
51
51
51
52
53
52
52
53
53
52
53
53
53
53
53
53
53
53
52
51
52
52
53
53
53
53
53
53
53
53
53
53
53
54
54
54
54
54
54
54
54
54
54
55
55
55
55
55
55
55
55
55
55
55
55
55
55
55
55
54
55
55
56
57
57
57
57
57
58
58
58
58
58
58
57
56
55
53
51
49
46
42
38
33
28
23
15
8
2
-6
-15
-24
-33
-43
-53
-63
-72
-82
-91
-100
-107
-113
-120
-125
-130
-133
-136
-137
-137
-136
-134
-131
-126
-121
-115
-108
-100
-92
-84
-76
-69
-60
-52
-43
-36
-28
-21
-15
-8
-3
3
9
13
18
22
25
29
31
34
36
39
42
44
46
47
48
50
50
51
53
53
54
54
55
55
55
55
55
55
55
56
56
56
56
56
56
56
56
56
56
56
55
55
56
56
56
56
56
55
55
56
56
57
56
57
57
57
57
57
58
58
58
58
58
59
59
59
60
60
60
60
60
60
60
60
60
60
60
61
61
60
60
60
59
59
59
59
59
57
57
57
57
58
58
58
58
58
57
58
58
58
57
58
58
58
58
59
59
59
59
59
59
59
59
59
59
59
59
59
59
59
58
58
57
57
57
57
57
56
56
57
57
58
57
57
58
58
58
58
58
58
59
59
60
60
60
60
60
60
61
61
61
61
62
61
61
61
61
61
60
60
60
59
59
58
58
58
58
57
57
56
57
57
57
57
57
57
58
57
57
57
58
58
58
58
57
57
57
57
57
57
57
57
57
57
56
56
56
56
56
55
55
55
56
56
56
56
56
56
55
56
55
56
55
55
55
55
55
55
55
55
55
55
55
54
54
53
53
53
53
52
52
51
52
52
51
51
50
51
50
50
49
48
48
47
48
47
46
46
44
44
45
44
44
43
44
43
42
42
41
41
40
40
39
39
40
39
39
38
38
37
37
36
37
36
36
35
34
35
34
34
33
32
32
32
31
30
29
28
27
27
27
27
26
25
25
24
23
22
22
22
21
20
19
18
18
18
17
17
16
16
15
15
14
14
14
14
13
13
13
13
12
13
13
12
12
12
12
11
11
11
11
12
12
12
12
12
12
12
12
13
13
14
15
14
15
16
16
17
17
18
18
19
19
20
21
22
23
23
24
25
26
27
27
28
29
30
31
31
31
33
34
34
36
36
37
37
38
39
38
39
40
40
41
42
42
43
43
43
44
44
45
45
45
46
46
47
47
48
48
49
49
49
49
50
50
50
50
51
51
51
52
52
52
52
52
52
52
52
53
53
54
54
54
54
54
54
55
55
55
55
55
55
55
55
55
55
55
55
55
56
56
56
56
56
56
56
56
55
55
56
56
56
57
56
56
55
55
55
55
55
55
55
55
55
55
55
55
56
56
56
56
56
56
56
57
57
57
58
58
58
57
58
58
58
58
58
58
58
57
58
59
59
59
59
59
59
59
59
59
59
59
59
59
59
59
59
59
59
59
59
59
59
59
59
58
58
59
59
60
60
60
59
59
59
59
59
59
58
59
58
59
59
59
58
58
59
58
58
58
58
58
58
58
58
57
57
57
57
