# Simple Text Format
# Sampling Rate (Hz):= 1200.00
# Resolution:= 12
# Labels:= ECG	 V5
# Age:=	72
# Gender:=	Feminino
0
0
0
0
0
0
0
0
0
0
0
0
0
0
0
0
0
0
0
0
0
0
0
0
0
0
0
0
0
0
0
0
0
0
0
0
0
0
0
0
0
0
0
0
0
0
0
0
0
0
0
0
0
0
0
0
0
0
0
0
0
0
0
0
0
0
0
0
0
0
0
0
0
0
0
0
0
0
0
0
0
0
0
0
0
0
0
0
0
0
0
0
0
0
0
0
0
0
0
0
0
0
0
0
0
0
0
0
0
0
0
0
0
0
0
0
0
0
0
0
0
0
0
0
0
0
0
0
0
0
0
0
0
0
0
0
0
0
0
0
0
0
0
0
0
0
0
0
0
0
0
0
0
0
0
0
0
0
0
0
0
0
0
0
0
0
0
0
0
0
0
0
0
0
0
0
0
0
0
0
0
0
0
0
0
0
0
0
0
0
0
0
0
0
0
0
0
0
0
0
0
0
0
0
0
0
0
0
0
0
0
0
0
0
0
0
0
0
0
0
0
0
0
0
0
0
0
0
0
0
0
0
0
0
0
0
0
0
0
0
0
0
0
0
0
0
0
0
0
0
0
0
0
0
0
0
0
0
0
0
0
0
0
0
0
0
0
0
0
0
0
0
0
0
0
0
0
0
0
0
0
0
0
0
0
0
0
0
0
0
0
0
0
0
0
0
0
0
0
0
0
0
0
0
0
0
0
0
0
0
0
0
0
0
0
0
0
0
0
0
0
0
0
0
0
0
0
0
0
0
0
0
0
0
0
0
0
0
0
0
0
0
0
0
0
0
0
0
0
0
0
0
0
0
0
0
0
0
0
0
0
0
0
0
0
0
0
0
0
0
0
0
0
0
0
0
0
0
0
0
0
0
0
0
0
0
0
0
0
0
0
0
0
0
0
0
0
0
0
0
0
0
0
0
0
0
0
0
0
0
0
0
0
0
0
0
0
0
0
0
0
0
0
0
0
0
0
0
0
0
0
0
0
0
0
0
0
0
0
0
0
0
0
0
0
0
0
0
0
0
0
0
0
0
0
0
0
0
0
0
0
0
0
0
0
0
0
0
0
0
0
0
0
0
0
0
0
0
0
0
0
0
0
0
0
0
0
0
0
0
0
0
0
0
0
0
0
0
0
0
0
0
0
0
0
0
0
0
0
0
0
0
0
0
0
0
0
0
0
0
0
0
0
0
0
0
0
0
0
0
0
0
0
0
0
0
0
0
0
0
0
0
0
0
0
0
0
0
0
0
0
0
0
0
0
0
0
0
0
0
0
0
0
0
0
0
0
0
0
0
0
0
0
0
0
0
0
0
0
0
0
0
0
0
0
0
0
0
0
0
0
0
0
0
0
0
0
0
0
0
0
0
0
0
0
0
0
0
0
0
0
0
0
0
0
0
0
0
0
0
0
0
0
0
0
0
0
0
0
0
0
0
0
0
0
0
0
0
0
0
0
0
0
0
0
0
0
0
0
0
0
0
0
0
0
0
0
0
0
0
0
0
0
0
0
0
0
0
0
0
0
0
0
0
0
0
0
0
0
0
0
0
0
0
0
0
0
0
0
0
0
0
0
0
0
0
0
0
0
0
0
0
0
0
0
0
0
0
0
0
0
0
0
0
0
0
0
0
0
0
0
0
0
0
0
0
0
0
0
0
0
0
0
0
0
0
0
0
0
0
0
0
0
0
0
0
0
0
0
0
0
0
0
0
0
0
0
0
0
0
0
0
0
0
0
0
0
0
0
0
0
0
0
0
0
0
0
0
0
0
0
0
0
0
0
0
0
0
0
0
0
0
0
0
0
0
0
0
0
0
0
0
0
0
0
0
0
0
0
0
0
0
0
0
0
0
0
0
0
0
0
0
0
0
0
0
0
0
0
0
0
0
0
0
0
0
0
0
0
0
0
0
0
0
0
0
0
0
0
0
0
0
0
0
0
0
0
0
0
0
0
0
0
0
0
0
0
0
0
0
0
0
0
0
0
0
0
0
0
0
0
0
0
0
0
0
0
0
0
0
0
0
0
0
0
0
0
0
0
0
0
0
0
0
0
0
0
0
0
0
0
0
0
0
0
0
0
0
0
0
0
0
0
0
0
0
0
0
0
0
0
0
0
0
0
0
0
0
0
0
0
0
0
0
0
0
0
0
0
0
0
0
0
0
0
0
0
0
0
0
0
0
0
0
0
0
0
0
0
0
0
0
0
0
0
0
0
0
0
0
0
0
0
0
0
0
0
0
0
0
0
0
0
0
0
0
0
0
0
0
0
0
0
0
0
0
0
0
0
0
0
0
0
0
0
0
0
0
0
0
0
0
0
0
0
0
0
0
0
0
0
0
0
0
0
0
0
0
0
0
0
0
0
0
0
0
0
0
0
0
0
0
0
0
0
0
0
0
0
0
0
0
0
0
0
0
0
0
0
0
0
0
0
0
0
0
0
0
0
0
0
0
0
0
0
0
0
0
0
0
0
0
0
0
0
0
0
0
0
0
0
0
0
0
0
0
0
0
0
0
0
0
0
0
0
0
0
0
0
0
0
0
0
0
0
0
0
0
0
0
0
0
0
0
0
0
0
0
0
0
0
0
0
0
0
0
0
0
0
0
0
0
0
0
0
0
0
0
0
0
0
0
0
0
0
0
0
0
0
0
0
0
0
0
0
0
0
0
0
0
0
0
0
0
0
0
0
0
0
0
0
0
0
0
0
0
0
0
0
0
0
0
0
0
0
0
0
0
0
0
0
0
0
0
0
0
0
0
0
0
0
0
0
0
0
0
0
0
0
0
0
0
0
0
0
0
0
0
0
0
0
0
0
0
0
0
0
0
0
0
0
0
0
0
0
0
0
0
0
0
0
0
0
0
0
0
0
0
0
0
0
0
0
0
0
0
0
0
0
0
0
0
0
0
0
0
0
0
0
0
0
0
0
0
0
0
0
0
0
0
0
0
0
0
0
0
0
0
0
0
0
0
0
0
0
0
0
0
0
0
0
0
0
0
0
0
0
0
0
0
0
0
0
0
0
0
0
0
0
0
0
0
0
0
0
0
0
0
0
0
0
0
0
0
0
0
0
0
0
0
0
0
0
0
0
0
0
0
0
0
0
0
0
0
0
0
0
0
0
0
0
0
0
0
0
0
0
0
0
0
0
0
0
0
0
0
0
0
0
0
0
0
0
0
0
0
0
0
0
0
0
0
0
0
0
0
0
0
0
0
0
0
0
0
0
0
0
0
0
0
0
0
0
0
-427
-429
-429
-430
-431
-431
-432
-433
-434
-435
-436
-436
-437
-438
-438
-439
-440
-441
-441
-443
-443
-444
-445
-446
-446
-448
-448
-449
-449
-450
-450
-451
-452
-452
-452
-453
-453
-454
-454
-454
-454
-454
-455
-456
-456
-456
-456
-456
-456
-456
-456
-457
-458
-458
-458
-458
-458
-458
-458
-458
-459
-459
-459
-459
-460
-460
-460
-460
-460
-461
-461
-461
-461
-461
-461
-462
-461
-461
-462
-462
-462
-462
-462
-462
-462
-463
-463
-463
-462
-462
-462
-462
-462
-462
-463
-463
-463
-463
-463
-463
-463
-463
-463
-463
-463
-463
-463
-463
-464
-464
-465
-464
-465
-464
-464
-464
-464
-464
-465
-464
-465
-465
-465
-465
-466
-466
-466
-466
-466
-466
-465
-466
-466
-467
-466
-466
-466
-467
-467
-467
-466
-466
-466
-466
-466
-466
-466
-466
-466
-465
-466
-465
-466
-465
-465
-465
-464
-465
-465
-465
-465
-465
-465
-466
-466
-466
-466
-467
-467
-466
-467
-467
-467
-467
-467
-467
-467
-467
-468
-468
-468
-468
-468
-468
-468
-468
-468
-468
-468
-468
-468
-468
-467
-467
-467
-466
-466
-466
-466
-466
-466
-466
-465
-465
-465
-466
-465
-466
-466
-466
-465
-465
-465
-465
-465
-465
-466
-466
-466
-465
-466
-466
-466
-466
-467
-466
-466
-466
-466
-467
-467
-467
-466
-466
-465
-465
-465
-465
-465
-465
-465
-465
-464
-465
-465
-465
-465
-464
-465
-465
-465
-465
-465
-465
-465
-465
-464
-465
-465
-465
-465
-465
-465
-465
-465
-465
-465
-466
-466
-465
-466
-466
-466
-465
-464
-464
-465
-465
-465
-465
-465
-465
-465
-465
-465
-465
-465
-466
-466
-465
-465
-465
-466
-466
-466
-466
-466
-466
-467
-467
-467
-467
-468
-467
-467
-468
-468
-468
-468
-468
-469
-469
-469
-468
-467
-468
-468
-468
-468
-469
-469
-468
-468
-468
-469
-469
-469
-469
-469
-469
-468
-468
-469
-469
-469
-469
-469
-469
-470
-470
-470
-470
-470
-470
-470
-470
-470
-470
-470
-470
-470
-470
-470
-469
-469
-469
-469
-469
-469
-470
-469
-469
-469
-469
-469
-469
-469
-469
-469
-469
-470
-470
-470
-470
-470
-470
-470
-470
-470
-470
-470
-470
-470
-470
-470
-470
-470
-470
-470
-470
-470
-470
-470
-469
-470
-470
-470
-469
-470
-470
-470
-470
-470
-470
-470
-470
-470
-469
-469
-469
-470
-470
-470
-470
-470
-470
-470
-469
-469
-469
-468
-468
-468
-468
-467
-466
-466
-467
-466
-465
-465
-465
-464
-463
-462
-462
-462
-461
-461
-461
-461
-460
-459
-460
-460
-460
-459
-459
-460
-460
-459
-459
-459
-459
-459
-458
-458
-459
-459
-459
-459
-458
-458
-458
-457
-457
-457
-457
-457
-456
-456
-456
-456
-455
-455
-455
-454
-455
-455
-455
-455
-454
-455
-454
-455
-454
-455
-455
-455
-456
-456
-455
-455
-455
-456
-457
-457
-456
-457
-457
-458
-458
-459
-459
-460
-460
-460
-461
-461
-462
-462
-462
-463
-462
-462
-463
-463
-464
-464
-465
-465
-465
-465
-466
-466
-466
-466
-468
-467
-467
-469
-468
-468
-469
-469
-470
-471
-471
-471
-471
-471
-471
-472
-473
-473
-473
-473
-473
-473
-474
-474
-474
-474
-474
-473
-473
-473
-474
-474
-474
-474
-474
-474
-475
-474
-474
-474
-474
-474
-474
-474
-474
-474
-474
-473
-474
-474
-474
-474
-474
-474
-474
-474
-474
-474
-474
-474
-474
-474
-474
-475
-475
-474
-475
-476
-476
-477
-478
-477
-478
-478
-479
-479
-479
-479
-478
-477
-475
-474
-471
-468
-464
-458
-454
-446
-440
-431
-421
-411
-400
-387
-373
-360
-345
-330
-313
-298
-281
-265
-250
-235
-221
-209
-198
-187
-179
-173
-169
-166
-166
-169
-172
-178
-187
-196
-208
-220
-234
-248
-264
-280
-295
-312
-327
-342
-357
-371
-385
-397
-410
-421
-431
-440
-449
-457
-463
-470
-474
-479
-484
-487
-490
-492
-494
-495
-497
-497
-498
-499
-498
-499
-499
-498
-497
-496
-495
-494
-493
-492
-490
-489
-488
-487
-486
-485
-484
-483
-483
-482
-482
-481
-480
-480
-480
-480
-479
-479
-480
-480
-480
-480
-480
-480
-479
-479
-479
-479
-479
-479
-479
-480
-479
-479
-479
-479
-479
-479
-479
-479
-479
-479
-479
-479
-479
-479
-478
-479
-479
-479
-479
-479
-479
-479
-479
-479
-479
-479
-479
-479
-480
-479
-479
-479
-478
-478
-478
-479
-478
-478
-478
-478
-478
-477
-478
-478
-478
-478
-478
-478
-477
-477
-477
-477
-477
-477
-477
-477
-477
-478
-478
-477
-477
-478
-477
-477
-477
-477
-477
-478
-478
-478
-478
-477
-477
-477
-477
-477
-477
-477
-477
-477
-477
-477
-477
-477
-477
-477
-477
-476
-477
-477
-477
-477
-478
-477
-477
-477
-477
-478
-478
-478
-478
-478
-478
-478
-478
-478
-478
-478
-477
-478
-478
-478
-477
-477
-477
-477
-477
-477
-477
-477
-477
-477
-477
-477
-477
-477
-477
-477
-476
-477
-477
-477
-476
-476
-476
-476
-476
-476
-476
-476
-475
-475
-475
-475
-475
-475
-474
-474
-474
-474
-474
-473
-473
-472
-472
-472
-472
-472
-472
-472
-471
-471
-471
-471
-471
-471
-470
-470
-470
-469
-469
-469
-469
-469
-468
-468
-468
-467
-467
-467
-467
-466
-466
-466
-465
-465
-466
-465
-466
-466
-465
-464
-463
-463
-463
-462
-463
-462
-462
-461
-461
-461
-460
-459
-459
-458
-458
-457
-456
-456
-455
-455
-454
-453
-452
-452
-452
-450
-450
-450
-450
-448
-448
-447
-447
-446
-446
-445
-445
-445
-444
-443
-442
-441
-440
-440
-440
-439
-439
-437
-437
-436
-436
-435
-435
-434
-434
-433
-432
-432
-431
-431
-430
-430
-429
-429
-428
-428
-428
-427
-426
-426
-426
-425
-425
-425
-424
-424
-424
-424
-424
-423
-423
-423
-422
-422
-423
-423
-423
-423
-424
-424
-424
-424
-425
-426
-426
-427
-427
-428
-429
-429
-431
-431
-432
-432
-433
-434
-434
-435
-437
-437
-438
-439
-440
-441
-441
-442
-443
-443
-444
-444
-444
-445
-446
-446
-447
-447
-449
-449
-450
-450
-450
-452
-452
-452
-453
-454
-454
-455
-455
-455
-456
-457
-457
-457
-457
-458
-459
-459
-459
-459
-460
-460
-460
-461
-461
-461
-462
-463
-462
-463
-462
-463
-463
-464
-464
-464
-464
-464
-465
-465
-465
-465
-465
-465
-465
-465
-466
-466
-466
-466
-466
-466
-466
-466
-466
-466
-465
-465
-465
-465
-466
-466
-466
-466
-466
-466
-465
-465
-465
-465
-465
-465
-465
-465
-465
-465
-465
-464
-465
-465
-465
-464
-464
-464
-464
-464
-464
-465
-465
-465
-465
-465
-465
-465
-465
-465
-466
-466
-466
-465
-465
-466
-466
-466
-466
-466
-466
-467
-466
-466
-466
-466
-466
-466
-466
-466
-466
-466
-466
-466
-466
-466
-466
-466
-467
-467
-467
-466
-467
-467
-467
-467
-467
-467
-467
-467
-467
-467
-467
-467
-467
-468
-467
-467
-467
-467
-467
-467
-467
-466
-465
-466
-466
-466
-466
-466
-466
-466
-465
-465
-465
-465
-465
-465
-466
-466
-466
-466
-466
-466
-466
-465
-466
-466
-466
-466
-466
-466
-466
-465
-464
-464
-464
-464
-464
-464
-464
-464
-464
-463
-462
-463
-463
-462
-463
-462
-462
-462
-462
-462
-462
-462
-462
-463
-463
-463
-463
-463
-463
-463
-462
-463
-463
-463
-463
-462
-462
-462
-462
-462
-462
-462
-462
-462
-462
-462
-462
-461
-460
-460
-460
-460
-460
-460
-460
-459
-459
-459
-459
-459
-459
-459
-458
-458
-458
-458
-458
-459
-458
-458
-458
-458
-458
-459
-459
-459
-459
-459
-459
-460
-460
-460
-460
-460
-460
-459
-459
-460
-459
-458
-458
-458
-458
-458
-458
-457
-457
-458
-458
-458
-457
-457
-457
-457
-457
-458
-458
-458
-459
-458
-458
-460
-459
-459
-459
-460
-460
-460
-460
-460
-461
-461
-461
-461
-461
-461
-460
-460
-460
-460
-459
-459
-459
-458
-458
-457
-457
-458
-458
-457
-457
-457
-457
-457
-458
-457
-457
-457
-458
-458
-458
-458
-458
-458
-459
-459
-458
-458
-458
-458
-459
-459
-458
-458
-458
-459
-459
-459
-459
-458
-457
-457
-457
-457
-457
-456
-457
-456
-456
-456
-455
-455
-454
-454
-453
-453
-452
-452
-452
-451
-451
-450
-450
-450
-450
-449
-449
-450
-450
-449
-449
-449
-448
-449
-449
-449
-448
-449
-448
-447
-447
-446
-446
-446
-446
-446
-445
-445
-445
-444
-444
-443
-444
-443
-442
-443
-442
-443
-442
-441
-441
-441
-441
-442
-442
-442
-442
-441
-441
-442
-441
-442
-442
-443
-443
-443
-444
-444
-445
-444
-445
-445
-445
-446
-446
-447
-448
-448
-448
-448
-448
-449
-450
-450
-450
-451
-450
-452
-451
-452
-452
-452
-452
-453
-452
-453
-453
-453
-454
-454
-455
-455
-455
-455
-456
-457
-457
-457
-457
-457
-457
-457
-457
-458
-458
-459
-459
-458
-459
-459
-458
-458
-459
-459
-459
-459
-459
-459
-459
-459
-459
-459
-459
-459
-459
-459
-460
-460
-460
-460
-460
-460
-461
-461
-461
-460
-461
-461
-461
-461
-461
-460
-460
-460
-461
-461
-461
-461
-460
-460
-460
-460
-460
-460
-460
-460
-460
-461
-461
-461
-462
-462
-463
-464
-464
-465
-465
-465
-466
-465
-465
-464
-463
-461
-458
-456
-452
-447
-442
-436
-429
-421
-412
-401
-390
-378
-365
-352
-337
-321
-306
-289
-272
-256
-240
-225
-209
-196
-183
-172
-163
-155
-149
-145
-144
-145
-149
-154
-161
-170
-182
-194
-209
-224
-240
-257
-274
-291
-308
-325
-341
-356
-372
-386
-399
-412
-424
-434
-443
-451
-458
-465
-470
-475
-479
-482
-485
-487
-489
-490
-491
-491
-491
-490
-490
-489
-488
-487
-486
-484
-482
-481
-479
-477
-476
-474
-473
-472
-470
-468
-466
-465
-465
-464
-462
-462
-461
-461
-460
-460
-460
-460
-460
-459
-460
-460
-460
-460
-460
-460
-460
-460
-460
-460
-461
-461
-461
-461
-461
-461
-461
-461
-460
-460
-460
-460
-460
-460
-459
-459
-459
-459
-458
-458
-459
-459
-459
-459
-459
-458
-458
-458
-458
-458
-458
-458
-458
-457
-457
-457
-457
-457
-457
-457
-457
-457
-457
-457
-456
-456
-457
-457
-456
-456
-456
-457
-457
-457
-457
-456
-455
-456
-456
-455
-455
-456
-456
-456
-456
-456
-456
-456
-456
-456
-456
-456
-456
-456
-456
-456
-456
-456
-456
-456
-456
-456
-456
-456
-456
-455
-456
-455
-455
-455
-455
-455
-455
-455
-454
-454
-454
-454
-454
-453
-454
-454
-453
-453
-453
-453
-453
-453
-453
-453
-453
-453
-453
-453
-453
-452
-452
-453
-453
-452
-452
-452
-452
-451
-451
-451
-451
-451
-451
-451
-451
-451
-451
-451
-450
-449
-449
-449
-449
-448
-448
-448
-448
-447
-447
-447
-447
-447
-447
-447
-447
-447
-447
-447
-447
-446
-446
-446
-446
-447
-446
-446
-446
-446
-446
-446
-445
-445
-445
-445
-444
-444
-444
-443
-443
-442
-441
-441
-441
-441
-441
-440
-440
-440
-439
-439
-438
-437
-437
-437
-436
-436
-436
-435
-435
-435
-434
-434
-433
-433
-432
-432
-431
-430
-430
-429
-429
-428
-428
-427
-427
-427
-427
-426
-426
-425
-424
-422
-422
-422
-421
-421
-421
-420
-419
-419
-419
-417
-417
-416
-416
-415
-415
-414
-413
-413
-412
-411
-411
-410
-410
-408
-408
-408
-407
-406
-405
-405
-404
-403
-403
-402
-402
-402
-401
-401
-400
-399
-398
-399
-398
-398
-398
-398
-398
-398
-398
-398
-397
-397
-397
-397
-397
-397
-397
-397
-397
-397
-397
-396
-397
-397
-397
-397
-398
-398
-398
-398
-399
-400
-400
-401
-401
-402
-402
-403
-403
-404
-405
-406
-407
-408
-408
-409
-410
-411
-411
-413
-413
-413
-415
-415
-417
-417
-418
-419
-419
-420
-421
-421
-422
-423
-424
-424
-425
-426
-426
-426
-427
-428
-429
-429
-430
-430
-430
-431
-431
-431
-431
-432
-432
-433
-433
-433
-433
-434
-435
-435
-435
-435
-435
-435
-436
-437
-437
-437
-436
-436
-436
-436
-436
-436
-436
-436
-437
-438
-438
-438
-438
-438
-438
-438
-439
-439
-439
-438
-438
-438
-438
-438
-439
-439
-439
-439
-439
-439
-439
-439
-439
-439
-439
-439
-440
-440
-440
-440
-440
-441
-441
-440
-440
-440
-440
-441
-441
-441
-441
-442
-442
-441
-441
-441
-442
-442
-441
-441
-440
-440
-440
-440
-440
-440
-440
-440
-440
-440
-440
-439
-440
-440
-440
-440
-440
-440
-440
-440
-440
-440
-440
-441
-441
-441
-441
-441
-441
-441
-441
-442
-442
-442
-442
-442
-442
-442
-442
-442
-441
-441
-441
-441
-440
-440
-440
-440
-439
-439
-439
-439
-439
-438
-438
-438
-438
-438
-438
-438
-438
-437
-437
-436
-437
-437
-436
-436
-436
-436
-437
-437
-437
-437
-437
-436
-437
-437
-436
-435
-435
-435
-435
-435
-434
-434
-434
-434
-433
-433
-433
-433
-433
-433
-433
-433
-433
-434
-434
-433
-433
-433
-433
-433
-433
-433
-433
-434
-434
-434
-434
-434
-433
-433
-433
-433
-434
-434
-433
-433
-432
-431
-431
-431
-431
-431
-431
-431
-431
-431
-431
-431
-431
-431
-431
-431
-431
-432
-432
-432
-432
-432
-432
-432
-432
-432
-432
-432
-433
-433
-433
-433
-433
-433
-433
-432
-432
-433
-433
-433
-432
-432
-432
-431
-432
-432
-432
-432
-432
-432
-432
-432
-432
-432
-432
-433
-433
-433
-433
-432
-432
-432
-432
-432
-432
-432
-433
-433
-433
-433
-433
-432
-433
-433
-433
-433
-433
-433
-433
-432
-432
-432
-433
-432
-432
-432
-432
-432
-432
-432
-432
-432
-432
-432
-432
-432
-433
-433
-433
-433
-433
-432
-432
-433
-432
-432
-431
-431
-431
-431
-430
-430
-429
-429
-429
-428
-429
-428
-427
-426
-426
-424
-425
-424
-424
-424
-424
-423
-423
-423
-422
-422
-422
-422
-422
-422
-422
-421
-422
-422
-421
-421
-421
-420
-420
-421
-420
-420
-419
-420
-419
-419
-419
-418
-418
-419
-419
-418
-418
-417
-417
-416
-416
-416
-416
-416
-416
-416
-415
-415
-416
-415
-416
-416
-417
-416
-416
-416
-418
-418
-418
-418
-419
-419
-419
-419
-421
-420
-421
-421
-422
-422
-422
-422
-423
-423
-424
-424
-425
-424
-424
-424
-425
-424
-425
-426
-426
-426
-426
-427
-427
-427
-427
-428
-428
-428
-428
-428
-428
-429
-429
-429
-429
-430
-430
-430
-431
-431
-431
-431
-432
-433
-433
-433
-433
-433
-434
-434
-433
-433
-433
-433
-433
-433
-433
-433
-433
-433
-433
-433
-433
-433
-432
-432
-433
-433
-433
-433
-433
-433
-432
-433
-433
-433
-433
-433
-433
-433
-433
-434
-434
-434
-434
-433
-432
-433
-433
-434
-433
-432
-432
-432
-433
-433
-434
-434
-434
-435
-436
-436
-436
-436
-437
-437
-436
-435
-433
-432
-429
-425
-421
-417
-411
-405
-397
-388
-378
-367
-355
-341
-328
-312
-297
-280
-263
-246
-228
-212
-194
-177
-162
-148
-136
-124
-116
-108
-103
-101
-100
-102
-106
-112
-120
-131
-143
-158
-173
-189
-206
-224
-241
-260
-278
-295
-312
-328
-343
-357
-371
-384
-395
-406
-414
-423
-431
-437
-443
-447
-450
-453
-456
-459
-460
-461
-462
-462
-462
-462
-461
-460
-459
-458
-456
-455
-454
-452
-450
-449
-447
-446
-444
-443
-441
-441
-439
-438
-438
-437
-436
-435
-435
-435
-434
-433
-433
-433
-433
-433
-432
-432
-432
-432
-432
-433
-433
-433
-432
-432
-433
-432
-432
-432
-432
-432
-432
-432
-432
-432
-432
-432
-433
-432
-432
-432
-432
-432
-432
-431
-431
-432
-432
-432
-432
-432
-432
-431
-432
-432
-431
-431
-431
-431
-430
-431
-431
-430
-430
-430
-430
-430
-430
-430
-431
-431
-430
-430
-430
-430
-430
-429
-429
-430
-430
-429
-429
-429
-429
-429
-429
-429
-429
-429
-429
-429
-429
-429
-429
-428
-428
-427
-427
-427
-427
-427
-427
-427
-427
-427
-426
-427
-427
-426
-426
-426
-426
-426
-427
-427
-427
-427
-427
-427
-428
-428
-427
-427
-427
-427
-427
-428
-428
-428
-428
-428
-428
-427
-428
-428
-427
-427
-426
-427
-426
-426
-426
-426
-426
-426
-425
-425
-425
-425
-425
-424
-424
-425
-425
-424
-424
-424
-424
-425
-425
-425
-425
-425
-424
-424
-424
-424
-424
-424
-424
-424
-424
-423
-423
-423
-423
-422
-422
-421
-420
-420
-420
-420
-420
-419
-419
-419
-419
-419
-418
-418
-418
-418
-418
-418
-417
-417
-417
-417
-416
-417
-417
-417
-416
-416
-415
-415
-415
-415
-415
-415
-415
-414
-414
-414
-412
-411
-411
-410
-410
-410
-410
-409
-409
-409
-407
-407
-407
-406
-406
-405
-405
-404
-404
-403
-403
-402
-401
-401
-401
-400
-399
-399
-398
-397
-397
-397
-396
-395
-394
-394
-393
-393
-392
-391
-390
-389
-388
-388
-387
-387
-386
-385
-385
-384
-383
-382
-381
-381
-381
-380
-380
-378
-378
-377
-377
-376
-376
-376
-376
-376
-375
-375
-374
-373
-373
-374
-373
-373
-373
-372
-372
-372
-372
-372
-372
-371
-371
-371
-372
-372
-372
-373
-373
-373
-374
-374
-374
-374
-376
-376
-377
-377
-378
-378
-378
-378
-380
-380
-381
-381
-383
-383
-384
-384
-386
-386
-387
-388
-389
-390
-391
-391
-392
-392
-393
-394
-394
-395
-396
-396
-397
-397
-398
-398
-400
-400
-401
-402
-402
-403
-403
-405
-405
-406
-406
-408
-408
-408
-410
-411
-411
-412
-413
-413
-413
-414
-414
-414
-415
-416
-416
-417
-417
-417
-416
-416
-417
-417
-418
-417
-418
-418
-418
-418
-418
-418
-418
-418
-419
-419
-419
-419
-419
-419
-419
-418
-419
-419
-419
-419
-419
-419
-419
-419
-419
-419
-420
-420
-420
-420
-421
-420
-421
-421
-421
-420
-419
-420
-420
-420
-420
-420
-421
-421
-421
-421
-421
-421
-422
-421
-422
-422
-422
-423
-423
-423
-423
-424
-423
-423
-423
-424
-424
-424
-424
-424
-424
-424
-425
-425
-425
-425
-426
-426
-425
-425
-424
-424
-424
-424
-424
-424
-424
-424
-424
-424
-424
-424
-424
-424
-424
-424
-424
-424
-424
-424
-424
-424
-424
-424
-424
-424
-423
-423
-423
-423
-423
-423
-423
-423
-423
-423
-423
-423
-422
-422
-421
-421
-421
-422
-422
-422
-422
-421
-421
-421
-420
-420
-421
-421
-421
-421
-421
-421
-421
-421
-421
-421
-421
-421
-420
-420
-420
-420
-420
-420
-420
-420
-420
-420
-419
-420
-420
-419
-419
-418
-419
-419
-419
-418
-418
-418
-419
-419
-419
-419
-419
-419
-418
-418
-418
-418
-419
-418
-418
-418
-418
-418
-418
-418
-418
-418
-418
-418
-419
-419
-418
-418
-418
-418
-419
-419
-419
-418
-418
-417
-418
-418
-417
-418
-418
-417
-417
-418
-418
-418
-418
-418
-418
-418
-418
-418
-418
-418
-418
-418
-419
-419
-419
-418
-418
-418
-417
-417
-417
-418
-418
-418
-418
-418
-418
-418
-418
-418
-417
-417
-417
-417
-417
-418
-417
-417
-418
-418
-418
-418
-418
-418
-418
-418
-418
-418
-418
-419
-419
-418
-418
-418
-418
-418
-418
-418
-418
-418
-418
-418
-419
-419
-419
-419
-419
-419
-419
-419
-419
-418
-419
-419
-418
-419
-419
-419
-419
-419
-419
-419
-419
-419
-419
-419
-419
-419
-419
-419
-420
-419
-419
-419
-419
-419
-419
-419
-419
-419
-419
-418
-418
-417
-417
-418
-417
-417
-416
-415
-415
-414
-413
-413
-413
-412
-412
-411
-411
-411
-410
-411
-410
-410
-410
-410
-410
-409
-409
-410
-410
-409
-409
-409
-408
-409
-409
-408
-408
-408
-408
-408
-408
-407
-407
-406
-406
-406
-406
-406
-405
-405
-403
-403
-404
-403
-403
-404
-403
-403
-403
-403
-403
-403
-403
-403
-403
-403
-403
-404
-404
-404
-404
-404
-405
-405
-405
-406
-406
-407
-407
-408
-409
-409
-410
-409
-410
-411
-411
-411
-411
-411
-412
-412
-414
-413
-414
-415
-415
-415
-415
-415
-416
-417
-417
-417
-418
-418
-418
-418
-419
-418
-418
-419
-419
-419
-419
-420
-420
-420
-420
-421
-421
-421
-422
-422
-422
-422
-422
-422
-423
-423
-422
-422
-423
-423
-423
-423
-423
-423
-423
-423
-424
-424
-424
-424
-424
-424
-424
-424
-424
-424
-425
-425
-425
-425
-425
-425
-425
-425
-425
-425
-425
-425
-425
-425
-425
-426
-426
-426
-426
-425
-424
-425
-425
-426
-426
-427
-427
-427
-428
-429
-429
-429
-430
-430
-430
-430
-430
-429
-428
-425
-423
-420
-416
-411
-406
-400
-392
-384
-375
-364
-353
-341
-328
-313
-299
-283
-267
-250
-233
-216
-199
-184
-169
-156
-144
-132
-123
-115
-109
-105
-104
-105
-108
-113
-120
-130
-141
-153
-167
-182
-198
-215
-231
-248
-265
-282
-299
-315
-329
-342
-356
-369
-380
-390
-400
-409
-416
-423
-428
-433
-437
-441
-444
-447
-449
-452
-453
-453
-454
-454
-454
-453
-453
-453
-452
-450
-449
-448
-446
-445
-444
-443
-441
-439
-439
-438
-436
-435
-434
-434
-432
-432
-431
-430
-430
-430
-430
-430
-429
-429
-428
-428
-429
-428
-428
-429
-429
-429
-430
-430
-430
-430
-430
-430
-430
-430
-429
-429
-430
-430
-429
-430
-430
-430
-429
-429
-429
-429
-429
-429
-429
-429
-429
-429
-429
-428
-428
-428
-428
-427
-428
-428
-428
-428
-428
-428
-428
-427
-427
-427
-427
-427
-427
-428
-428
-428
-428
-428
-428
-428
-428
-428
-428
-428
-428
-428
-428
-428
-428
-428
-428
-428
-428
-429
-428
-429
-428
-428
-428
-428
-427
-428
-427
-427
-427
-428
-427
-427
-427
-427
-427
-427
-427
-428
-428
-427
-427
-427
-427
-427
-427
-427
-427
-427
-427
-428
-428
-428
-428
-428
-428
-428
-428
-428
-429
-429
-429
-429
-428
-428
-428
-428
-428
-428
-428
-428
-428
-428
-427
-427
-427
-427
-427
-427
-427
-427
-427
-427
-427
-427
-427
-427
-427
-427
-427
-426
-426
-426
-426
-426
-425
-425
-425
-425
-425
-426
-426
-426
-426
-425
-424
-425
-425
-425
-425
-425
-424
-424
-424
-424
-424
-424
-424
-424
-423
-423
-423
-422
-422
-421
-421
-421
-420
-419
-419
-419
-419
-419
-418
-418
-418
-419
-419
-419
-418
-418
-418
-418
-417
-416
-416
-416
-415
-416
-415
-415
-414
-414
-413
-413
-412
-412
-411
-411
-410
-410
-410
-409
-408
-408
-407
-407
-406
-405
-405
-404
-404
-404
-403
-403
-402
-402
-402
-401
-400
-400
-400
-400
-399
-398
-396
-396
-395
-395
-394
-394
-392
-392
-392
-390
-390
-389
-389
-389
-388
-387
-386
-386
-385
-385
-384
-383
-383
-382
-382
-382
-381
-381
-381
-381
-380
-380
-380
-379
-379
-379
-379
-378
-378
-378
-377
-378
-378
-378
-377
-377
-378
-378
-378
-378
-378
-379
-379
-379
-380
-380
-381
-381
-382
-382
-382
-383
-385
-385
-385
-387
-387
-387
-389
-389
-391
-391
-393
-393
-394
-396
-397
-398
-398
-399
-399
-400
-401
-402
-404
-404
-404
-405
-406
-407
-407
-407
-408
-409
-410
-410
-411
-411
-411
-411
-413
-413
-413
-414
-415
-415
-415
-415
-416
-416
-417
-417
-418
-419
-419
-419
-419
-419
-420
-419
-420
-420
-420
-421
-421
-421
-421
-421
-421
-421
-422
-422
-422
-422
-422
-423
-423
-423
-423
-423
-424
-423
-423
-424
-424
-424
-425
-424
-424
-424
-425
-425
-425
-425
-426
-425
-426
-426
-425
-425
-425
-425
-425
-425
-426
-426
-425
-425
-425
-425
-425
-425
-425
-425
-426
-426
-427
-427
-427
-427
-427
-426
-426
-427
-427
-427
-427
-427
-427
-427
-428
-428
-428
-428
-428
-428
-428
-428
-427
-428
-427
-427
-427
-427
-427
-427
-427
-428
-428
-428
-428
-428
-428
-428
-428
-429
-429
-429
-429
-430
-429
-429
-429
-429
-429
-429
-429
-429
-430
-430
-430
-430
-430
-430
-430
-430
-430
-430
-429
-429
-429
-429
-429
-428
-429
-429
-429
-429
-429
-429
-429
-429
-429
-430
-429
-429
-429
-429
-429
-429
-429
-429
-429
-429
-429
-429
-429
-429
-428
-428
-428
-428
-429
-429
-429
-429
-429
-428
-428
-428
-428
-428
-427
-427
-427
-427
-427
-427
-427
-427
-427
-427
-427
-427
-427
-427
-427
-427
-427
-427
-427
-427
-427
-428
-428
-428
-428
-428
-428
-428
-428
-428
-428
-428
-428
-428
-428
-428
-428
-427
-426
-427
-427
-426
-426
-426
-427
-426
-426
-426
-426
-426
-426
-426
-426
-426
-426
-426
-426
-426
-426
-426
-426
-427
-427
-427
-427
-426
-426
-426
-427
-427
-427
-427
-426
-427
-428
-427
-427
-426
-426
-426
-427
-427
-427
-427
-427
-427
-427
-427
-427
-427
-428
-428
-428
-428
-428
-428
-428
-428
-428
-429
-429
-429
-429
-429
-429
-429
-430
-429
-429
-429
-429
-429
-429
-429
-429
-430
-429
-429
-428
-428
-428
-428
-428
-428
-428
-429
-429
-429
-429
-429
-428
-429
-429
-429
-429
-430
-430
-430
-430
-430
-430
-430
-431
-431
-431
-431
-430
-430
-431
-431
-431
-430
-431
-431
-431
-431
-430
-430
-430
-429
-430
-430
-430
-430
-430
-429
-429
-430
-430
-430
-430
-430
-430
-430
-430
-429
-429
-429
-429
-429
-428
-428
-429
-429
-428
-428
-427
-427
-427
-427
-427
-426
-425
-425
-424
-423
-423
-422
-422
-421
-422
-421
-421
-421
-420
-420
-420
-420
-419
-419
-419
-420
-420
-420
-419
-419
-419
-419
-419
-418
-418
-419
-419
-418
-418
-417
-417
-416
-417
-416
-416
-416
-416
-416
-416
-416
-415
-414
-414
-413
-414
-414
-414
-413
-414
-413
-414
-414
-414
-414
-414
-414
-414
-415
-415
-415
-415
-416
-416
-416
-417
-417
-418
-418
-419
-420
-421
-421
-421
-422
-423
-423
-423
-424
-425
-424
-425
-424
-425
-425
-426
-426
-427
-427
-427
-427
-427
-428
-428
-428
-428
-429
-429
-429
-430
-430
-430
-430
-430
-432
-432
-432
-432
-432
-433
-433
-433
-433
-434
-434
-434
-434
-434
-435
-435
-434
-434
-434
-434
-434
-434
-433
-433
-433
-434
-434
-434
-434
-434
-434
-433
-433
-433
-433
-433
-433
-433
-433
-433
-433
-433
-433
-433
-433
-434
-434
-434
-433
-433
-433
-433
-434
-434
-434
-435
-434
-435
-434
-435
-436
-436
-436
-437
-437
-438
-438
-438
-438
-438
-437
-436
-434
-432
-429
-426
-421
-416
-410
-404
-396
-387
-377
-367
-355
-343
-329
-315
-299
-284
-267
-251
-235
-220
-205
-190
-176
-164
-152
-143
-135
-129
-125
-123
-124
-126
-131
-137
-146
-155
-167
-180
-194
-208
-224
-239
-255
-271
-286
-303
-317
-331
-345
-357
-368
-379
-389
-398
-406
-414
-420
-426
-431
-436
-441
-443
-446
-449
-450
-451
-453
-454
-454
-455
-456
-455
-455
-454
-454
-453
-452
-451
-450
-450
-449
-447
-445
-444
-444
-443
-442
-441
-441
-440
-439
-439
-437
-437
-437
-437
-437
-437
-437
-437
-437
-437
-437
-436
-436
-436
-436
-436
-436
-437
-436
-436
-436
-436
-436
-436
-436
-436
-437
-437
-437
-437
-437
-437
-436
-436
-437
-437
-437
-437
-437
-437
-437
-437
-436
-436
-436
-436
-436
-437
-436
-436
-436
-435
-435
-434
-434
-434
-434
-434
-434
-434
-434
-434
-434
-434
-434
-434
-434
-434
-434
-435
-435
-435
-435
-434
-434
-434
-434
-434
-434
-434
-435
-435
-435
-435
-435
-435
-435
-436
-435
-435
-435
-434
-434
-434
-434
-434
-435
-435
-435
-435
-434
-435
-435
-435
-435
-435
-434
-434
-434
-434
-434
-434
-434
-434
-435
-435
-435
-435
-435
-435
-435
-435
-435
-434
-434
-434
-434
-434
-434
-434
-434
-433
-434
-433
-433
-433
-433
-433
-433
-432
-432
-432
-432
-432
-432
-432
-432
-432
-432
-431
-431
-431
-431
-431
-431
-431
-431
-431
-431
-431
-431
-430
-430
-430
-430
-430
-430
-431
-430
-431
-430
-429
-429
-429
-429
-429
-428
-428
-428
-428
-427
-427
-427
-427
-427
-427
-426
-426
-426
-425
-425
-425
-425
-424
-424
-424
-424
-423
-423
-423
-422
-423
-423
-422
-421
-421
-420
-421
-421
-420
-420
-419
-419
-418
-418
-418
-417
-417
-416
-416
-416
-416
-414
-414
-414
-413
-412
-412
-412
-411
-410
-410
-409
-409
-408
-407
-407
-406
-405
-405
-404
-404
-403
-402
-402
-402
-400
-400
-400
-399
-399
-397
-396
-396
-395
-395
-394
-394
-394
-392
-392
-392
-391
-390
-390
-389
-389
-388
-387
-387
-386
-386
-385
-384
-384
-383
-383
-382
-381
-381
-381
-380
-380
-379
-379
-379
-379
-378
-378
-378
-377
-377
-377
-377
-377
-377
-378
-378
-378
-379
-379
-380
-380
-380
-381
-381
-382
-382
-383
-383
-384
-384
-385
-386
-386
-388
-388
-388
-389
-389
-390
-391
-392
-393
-393
-394
-395
-396
-396
-398
-398
-398
-399
-399
-401
-401
-402
-402
-404
-404
-405
-406
-406
-408
-408
-409
-409
-410
-411
-411
-411
-412
-413
-414
-414
-414
-415
-415
-415
-416
-416
-416
-417
-417
-418
-418
-418
-418
-418
-419
-419
-418
-419
-419
-419
-419
-419
-419
-419
-420
-420
-420
-420
-421
-421
-421
-421
-421
-421
-421
-421
-422
-421
-421
-421
-421
-421
-421
-421
-421
-421
-421
-422
-422
-422
-422
-422
-421
-421
-422
-421
-421
-421
-421
-421
-421
-421
-422
-422
-422
-422
-422
-422
-421
-421
-422
-422
-422
-422
-422
-421
-421
-422
-422
-422
-422
-422
-421
-421
-421
-421
-421
-422
-422
-422
-422
-422
-423
-423
-423
-423
-423
-422
-422
-423
-422
-422
-423
-422
-422
-422
-423
-423
-424
-423
-423
-423
-423
-423
-423
-423
-422
-422
-423
-423
-423
-423
-423
-423
-422
-422
-423
-423
-423
-423
-423
-423
-423
-423
-423
-422
-422
-422
-422
-422
-422
-422
-422
-422
-421
-421
-421
-421
-421
-421
-421
-422
-422
-422
-421
-421
-421
-421
-421
-421
-421
-421
-421
-421
-421
-421
-420
-420
-420
-420
-420
-420
-420
-420
-420
-419
-419
-419
-418
-419
-419
-419
-419
-419
-418
-418
-419
-419
-419
-419
-419
-419
-418
-419
-419
-419
-419
-419
-419
-419
-419
-419
-419
-419
-419
-419
-419
-418
-418
-418
-418
-418
-418
-418
-418
-418
-417
-417
-417
-417
-417
-417
-417
-417
-417
-417
-417
-417
-417
-417
-417
-417
-417
-417
-417
-417
-417
-417
-417
-417
-417
-417
-417
-417
-417
-416
-416
-417
-417
-416
-417
-417
-417
-417
-417
-416
-416
-416
-416
-416
-416
-416
-416
-416
-416
-416
-416
-416
-416
-416
-416
-417
-417
-417
-416
-416
-417
-417
-417
-417
-416
-416
-416
-416
-416
-416
-417
-417
-417
-417
-417
-417
-416
-417
-416
-417
-416
-416
-416
-415
-415
-415
-415
-415
-416
-415
-415
-415
-415
-415
-415
-415
-415
-415
-415
-415
-415
-415
-415
-415
-415
-415
-416
-416
-416
-416
-416
-415
-415
-415
-416
-416
-416
-416
-416
-416
-415
-414
-414
-415
-415
-415
-415
-415
-415
-415
-415
-415
-415
-415
-415
-415
-415
-415
-415
-415
-415
-415
-414
-415
-415
-415
-415
-415
-415
-415
-414
-414
-414
-414
-413
-413
-414
-413
-413
-412
-411
-410
-409
-410
-409
-408
-408
-407
-407
-407
-406
-406
-405
-405
-406
-405
-405
-404
-404
-405
-405
-405
-404
-404
-404
-404
-403
-403
-403
-404
-403
-403
-403
-402
-403
-403
-402
-401
-402
-401
-400
-400
-400
-400
-400
-399
-399
-399
-399
-399
-398
-398
-397
-397
-397
-397
-397
-398
-398
-398
-398
-397
-397
-398
-398
-398
-398
-399
-399
-400
-401
-401
-402
-402
-402
-403
-403
-404
-404
-404
-404
-404
-404
-404
-406
-406
-406
-406
-407
-407
-407
-407
-408
-408
-409
-408
-409
-409
-409
-409
-411
-411
-411
-411
-411
-411
-412
-412
-412
-412
-413
-413
-413
-413
-413
-414
-415
-414
-415
-414
-414
-414
-415
-414
-414
-415
-415
-416
-415
-415
-416
-416
-416
-416
-416
-416
-416
-416
-415
-416
-415
-416
-416
-415
-415
-416
-416
-415
-416
-415
-416
-416
-416
-417
-417
-416
-416
-416
-416
-415
-415
-414
-414
-415
-415
-415
-415
-415
-415
-415
-416
-417
-417
-418
-418
-419
-419
-419
-418
-418
-417
-415
-414
-412
-408
-405
-400
-394
-388
-382
-374
-365
-355
-345
-333
-321
-307
-292
-277
-262
-246
-230
-214
-200
-185
-172
-159
-148
-138
-129
-123
-118
-115
-115
-115
-119
-124
-131
-140
-151
-163
-176
-190
-204
-220
-235
-251
-267
-282
-296
-311
-324
-336
-347
-358
-369
-378
-386
-394
-400
-406
-411
-416
-419
-424
-427
-429
-431
-433
-434
-435
-436
-436
-437
-437
-436
-436
-435
-435
-433
-432
-432
-431
-430
-429
-427
-426
-425
-424
-423
-422
-421
-421
-420
-419
-419
-419
-419
-418
-418
-417
-416
-417
-417
-418
-417
-417
-417
-418
-418
-418
-418
-418
-418
-418
-418
-418
-418
-417
-417
-417
-416
-416
-416
-416
-416
-416
-416
-415
-415
-415
-416
-416
-416
-416
-416
-416
-416
-415
-416
-415
-414
-415
-415
-415
-415
-415
-415
-415
-415
-415
-415
-415
-415
-415
-415
-415
-415
-415
-415
-415
-415
-415
-415
-415
-415
-415
-415
-415
-415
-415
-415
-415
-414
-415
-415
-415
-415
-415
-415
-414
-414
-414
-414
-414
-414
-414
-414
-414
-413
-414
-414
-413
-413
-413
-413
-413
-413
-413
-413
-413
-413
-412
-412
-412
-412
-412
-412
-413
-413
-412
-412
-412
-412
-412
-412
-413
-412
-412
-412
-411
-412
-411
-411
-411
-411
-411
-411
-411
-411
-411
-410
-410
-410
-410
-410
-410
-410
-410
-410
-410
-410
-410
-410
-410
-410
-409
-409
-409
-410
-410
-410
-410
-410
-410
-410
-409
-409
-409
-409
-409
-408
-408
-408
-407
-407
-408
-407
-407
-407
-406
-406
-406
-406
-405
-405
-405
-405
-404
-404
-404
-404
-403
-403
-403
-403
-403
-403
-402
-402
-402
-402
-402
-402
-401
-401
-401
-401
-400
-399
-398
-398
-397
-397
-397
-396
-396
-395
-395
-394
-394
-394
-394
-392
-392
-392
-392
-391
-391
-391
-390
-389
-389
-388
-388
-387
-387
-387
-385
-385
-384
-384
-383
-382
-381
-381
-380
-379
-379
-377
-376
-375
-374
-374
-373
-373
-372
-371
-371
-371
-369
-369
-369
-368
-368
-367
-367
-366
-366
-365
-364
-364
-363
-363
-361
-361
-361
-360
-360
-360
-359
-359
-357
-357
-357
-356
-356
-356
-356
-354
-354
-354
-353
-353
-353
-353
-353
-353
-353
-353
-353
-354
-353
-353
-354
-354
-354
-355
-355
-355
-356
-356
-356
-357
-358
-358
-359
-359
-359
-361
-361
-362
-363
-364
-364
-365
-366
-367
-367
-367
-368
-368
-368
-370
-371
-372
-372
-373
-374
-375
-375
-376
-376
-378
-378
-379
-379
-381
-381
-382
-382
-383
-383
-384
-385
-385
-385
-385
-386
-387
-387
-387
-389
-389
-389
-389
-389
-390
-390
-390
-390
-390
-390
-391
-391
-391
-391
-391
-392
-392
-392
-392
-392
-392
-392
-392
-393
-393
-393
-393
-393
-393
-393
-393
-393
-393
-393
-393
-393
-393
-393
-393
-393
-393
-393
-394
-394
-393
-393
-393
-393
-392
-392
-393
-393
-392
-392
-393
-393
-393
-393
-393
-393
-392
-392
-392
-393
-393
-393
-393
-393
-393
-393
-393
-394
-394
-393
-393
-393
-393
-394
-394
-395
-395
-395
-395
-395
-395
-395
-395
-394
-394
-394
-394
-394
-394
-394
-394
-394
-394
-394
-394
-395
-394
-394
-394
-395
-394
-394
-394
-394
-394
-395
-395
-395
-394
-395
-395
-395
-395
-394
-394
-394
-395
-395
-394
-394
-394
-394
-393
-393
-392
-392
-392
-392
-392
-392
-392
-391
-391
-391
-391
-391
-391
-391
-391
-391
-391
-391
-391
-391
-391
-391
-391
-391
-391
-391
-391
-391
-391
-391
-391
-391
-391
-391
-391
-392
-391
-391
-391
-390
-390
-390
-390
-391
-391
-391
-390
-390
-390
-390
-390
-391
-390
-390
-389
-390
-388
-389
-389
-388
-388
-388
-388
-388
-388
-388
-387
-387
-387
-387
-387
-387
-387
-387
-387
-387
-387
-387
-386
-386
-386
-385
-386
-386
-386
-386
-386
-385
-385
-385
-385
-385
-386
-386
-386
-386
-386
-385
-385
-385
-385
-385
-386
-386
-385
-385
-385
-385
-385
-385
-385
-385
-385
-385
-385
-385
-385
-385
-384
-384
-384
-384
-384
-384
-384
-384
-383
-384
-384
-384
-383
-383
-383
-383
-383
-383
-383
-383
-382
-382
-382
-382
-382
-382
-382
-382
-383
-383
-383
-383
-383
-383
-383
-383
-384
-384
-384
-384
-383
-383
-383
-383
-383
-382
-382
-382
-382
-382
-382
-382
-382
-382
-382
-382
-381
-381
-381
-381
-381
-381
-381
-381
-381
-381
-381
-381
-381
-381
-381
-381
-381
-381
-381
-381
-380
-381
-381
-380
-380
-379
-379
-379
-379
-378
-378
-378
-378
-377
-377
-377
-377
-377
-377
-377
-376
-376
-376
-376
-376
-376
-375
-375
-374
-374
-373
-373
-373
-373
-372
-372
-371
-371
-371
-370
-370
-370
-370
-370
-369
-369
-369
-369
-369
-369
-369
-369
-369
-368
-369
-369
-368
-368
-368
-367
-367
-367
-366
-367
-365
-365
-364
-364
-364
-364
-364
-363
-363
-363
-362
-362
-362
-362
-362
-361
-362
-362
-362
-362
-362
-361
-362
-362
-362
-363
-362
-363
-363
-363
-365
-365
-365
-366
-366
-366
-367
-367
-367
-368
-368
-369
-369
-369
-369
-370
-371
-371
-371
-371
-372
-371
-372
-372
-372
-373
-373
-373
-373
-373
-373
-372
-373
-373
-373
-374
-374
-375
-375
-376
-376
-376
-376
-377
-377
-378
-378
-379
-378
-378
-378
-379
-379
-379
-379
-379
-379
-379
-378
-378
-378
-378
-378
-378
-378
-379
-379
-379
-379
-378
-378
-377
-377
-377
-377
-377
-377
-377
-377
-376
-376
-376
-376
-376
-376
-376
-376
-376
-376
-376
-376
-376
-376
-376
-377
-377
-377
-378
-378
-378
-378
-380
-381
-381
-382
-382
-382
-382
-383
-383
-382
-381
-378
-376
-374
-371
-366
-362
-356
-349
-342
-333
-324
-313
-301
-289
-275
-260
-245
-230
-214
-197
-180
-164
-149
-135
-121
-109
-98
-88
-81
-75
-71
-69
-70
-73
-77
-84
-94
-105
-117
-130
-146
-161
-177
-195
-212
-229
-245
-261
-277
-292
-305
-318
-331
-342
-352
-361
-369
-375
-382
-387
-391
-395
-397
-400
-401
-403
-404
-404
-405
-404
-404
-403
-402
-401
-400
-399
-398
-396
-395
-393
-391
-390
-388
-387
-386
-385
-383
-383
-381
-381
-379
-379
-378
-377
-377
-376
-376
-376
-375
-375
-375
-375
-375
-374
-374
-374
-374
-374
-374
-375
-375
-375
-375
-375
-375
-375
-375
-375
-374
-374
-373
-373
-373
-373
-373
-372
-373
-372
-372
-372
-371
-371
-371
-371
-371
-371
-371
-371
-371
-371
-370
-370
-370
-371
-371
-371
-371
-371
-371
-371
-371
-372
-371
-371
-371
-371
-371
-371
-370
-370
-370
-370
-370
-370
-370
-370
-370
-370
-370
-370
-370
-370
-370
-370
-369
-369
-369
-369
-369
-369
-369
-369
-369
-369
-369
-369
-369
-369
-369
-369
-370
-369
-369
-369
-370
-370
-370
-370
-369
-369
-368
-368
-368
-369
-369
-369
-369
-368
-368
-368
-368
-368
-368
-369
-369
-368
-368
-368
-368
-368
-368
-368
-368
-368
-368
-368
-367
-367
-367
-367
-367
-367
-367
-366
-367
-367
-367
-367
-366
-366
-366
-365
-365
-366
-366
-365
-365
-365
-365
-365
-365
-365
-365
-364
-364
-364
-363
-363
-363
-364
-363
-363
-363
-363
-363
-362
-362
-362
-362
-361
-361
-361
-361
-361
-361
-360
-360
-360
-359
-358
-358
-358
-358
-358
-358
-357
-356
-356
-356
-356
-356
-355
-355
-355
-355
-355
-354
-354
-354
-353
-353
-353
-352
-352
-352
-350
-350
-350
-349
-348
-348
-348
-346
-346
-345
-345
-345
-344
-342
-343
-341
-341
-340
-340
-339
-339
-337
-337
-337
-336
-335
-335
-335
-334
-333
-333
-332
-331
-331
-331
-329
-329
-328
-328
-327
-326
-326
-325
-325
-324
-324
-323
-322
-322
-321
-321
-320
-319
-318
-317
-316
-316
-315
-315
-314
-314
-313
-312
-312
-312
-312
-310
-310
-310
-310
-310
-310
-310
-310
-309
-309
-309
-309
-309
-309
-309
-309
-309
-309
-310
-310
-310
-311
-311
-312
-312
-312
-313
-314
-313
-315
-315
-316
-317
-318
-318
-320
-320
-321
-322
-322
-323
-323
-325
-325
-326
-326
-327
-328
-328
-328
-328
-329
-329
-330
-331
-331
-333
-334
-334
-336
-336
-336
-337
-338
-339
-340
-340
-341
-341
-342
-342
-343
-343
-344
-344
-344
-345
-345
-345
-346
-346
-346
-346
-346
-347
-347
-347
-347
-347
-347
-348
-348
-348
-349
-349
-349
-351
-350
-350
-351
-351
-351
-351
-352
-353
-352
-352
-352
-352
-352
-352
-351
-351
-351
-351
-351
-351
-351
-351
-351
-352
-352
-352
-352
-352
-352
-352
-353
-353
-353
-353
-353
-354
-354
-354
-354
-354
-354
-354
-355
-355
-355
-355
-355
-355
-355
-354
-354
-354
-354
-354
-354
-354
-354
-354
-354
-354
-354
-354
-354
-355
-355
-355
-354
-355
-355
-355
-355
-355
-355
-356
-356
-356
-356
-356
-356
-356
-356
-356
-356
-356
-356
-356
-356
-356
-356
-356
-356
-356
-356
-355
-355
-355
-356
-356
-355
-355
-355
-355
-355
-355
-355
-355
-356
-356
-355
-355
-355
-355
-355
-354
-354
-354
-354
-354
-353
-353
-353
-353
-353
-353
-353
-353
-353
-352
-352
-352
-352
-351
-351
-351
-351
-351
-351
-351
-351
-351
-351
-351
-351
-351
-351
-350
-350
-350
-350
-349
-349
-349
-349
-349
-349
-349
-348
-348
-348
-348
-348
-349
-349
-348
-348
-348
-347
-348
-348
-347
-347
-347
-346
-347
-347
-347
-347
-346
-346
-346
-346
-347
-347
-347
-347
-347
-347
-347
-347
-347
-347
-348
-347
-347
-347
-347
-347
-347
-347
-347
-347
-347
-347
-347
-347
-347
-347
-347
-347
-347
-347
-346
-346
-346
-346
-347
-346
-346
-347
-346
-346
-346
-346
-346
-346
-346
-346
-346
-346
-346
-346
-346
-347
-347
-347
-347
-347
-347
-347
-347
-347
-348
-347
-347
-347
-347
-348
-348
-348
-347
-347
-346
-346
-346
-347
-347
-347
-346
-346
-346
-346
-346
-346
-346
-346
-346
-346
-347
-347
-347
-347
-347
-347
-346
-346
-346
-346
-345
-345
-346
-345
-344
-344
-344
-343
-342
-342
-342
-341
-341
-340
-339
-338
-339
-338
-338
-338
-338
-337
-337
-337
-338
-337
-337
-337
-337
-337
-337
-336
-336
-336
-336
-336
-335
-335
-335
-335
-335
-335
-334
-334
-333
-332
-332
-332
-332
-331
-332
-331
-330
-330
-329
-329
-329
-328
-329
-328
-328
-329
-328
-328
-329
-328
-329
-329
-329
-330
-331
-331
-331
-332
-333
-333
-334
-333
-334
-335
-335
-336
-336
-336
-337
-337
-338
-338
-339
-339
-339
-340
-340
-339
-339
-339
-339
-339
-340
-340
-340
-340
-340
-341
-341
-341
-342
-342
-342
-342
-343
-343
-344
-344
-344
-345
-345
-346
-346
-346
-347
-348
-348
-348
-349
-349
-349
-349
-350
-349
-350
-350
-350
-350
-350
-350
-350
-351
-351
-351
-351
-350
-350
-350
-350
-350
-350
-350
-350
-351
-351
-351
-350
-350
-350
-350
-349
-350
-350
-350
-350
-350
-350
-350
-350
-350
-350
-350
-350
-351
-351
-351
-351
-351
-350
-350
-351
-352
-353
-353
-353
-354
-355
-355
-355
-356
-357
-356
-356
-356
-354
-352
-350
-347
-344
-339
-333
-328
-320
-313
-303
-293
-281
-269
-255
-240
-225
-209
-193
-176
-159
-141
-124
-108
-93
-79
-67
-55
-46
-38
-33
-29
-28
-30
-33
-38
-46
-56
-68
-81
-96
-111
-128
-146
-163
-181
-199
-216
-234
-249
-265
-279
-294
-305
-316
-327
-336
-344
-352
-358
-364
-368
-371
-374
-377
-380
-381
-382
-383
-384
-384
-383
-383
-382
-381
-380
-379
-378
-377
-375
-374
-373
-371
-370
-369
-367
-366
-365
-363
-363
-361
-360
-360
-359
-358
-358
-358
-356
-356
-357
-356
-356
-355
-355
-354
-354
-355
-355
-355
-355
-356
-355
-355
-356
-356
-356
-356
-355
-355
-355
-356
-356
-356
-356
-356
-356
-356
-356
-356
-356
-356
-356
-356
-356
-356
-356
-355
-355
-355
-355
-356
-355
-355
-354
-355
-355
-354
-354
-355
-355
-354
-354
-354
-354
-355
-355
-355
-355
-355
-356
-355
-355
-355
-355
-355
-355
-356
-356
-355
-355
-355
-356
-356
-356
-356
-356
-356
-356
-356
-356
-356
-355
-356
-355
-355
-355
-354
-354
-354
-354
-354
-354
-354
-354
-354
-354
-354
-354
-354
-355
-355
-354
-354
-354
-354
-355
-355
-355
-356
-356
-356
-356
-357
-357
-356
-356
-356
-356
-356
-357
-357
-356
-356
-355
-355
-355
-356
-355
-355
-355
-354
-354
-354
-354
-354
-354
-354
-354
-354
-354
-354
-354
-354
-354
-354
-354
-354
-354
-354
-354
-354
-354
-354
-354
-354
-355
-355
-355
-354
-354
-355
-354
-353
-353
-352
-352
-352
-352
-352
-351
-351
-352
-351
-350
-350
-350
-350
-350
-350
-350
-350
-348
-348
-349
-349
-348
-348
-347
-347
-347
-347
-347
-346
-346
-346
-346
-345
-345
-345
-344
-344
-344
-342
-341
-341
-340
-340
-339
-339
-338
-338
-337
-337
-336
-336
-335
-335
-336
-335
-335
-334
-334
-334
-334
-333
-333
-332
-332
-332
-331
-331
-330
-330
-329
-329
-328
-327
-327
-326
-326
-325
-325
-324
-323
-322
-322
-320
-320
-319
-319
-318
-317
-317
-316
-316
-315
-314
-314
-314
-312
-312
-311
-311
-311
-309
-309
-309
-308
-308
-308
-307
-307
-307
-306
-306
-305
-305
-305
-304
-305
-305
-305
-304
-304
-304
-304
-304
-304
-305
-305
-305
-306
-306
-308
-308
-308
-309
-309
-310
-311
-311
-312
-313
-313
-314
-314
-315
-316
-316
-317
-317
-319
-319
-320
-321
-322
-322
-323
-324
-325
-326
-326
-326
-327
-328
-328
-330
-330
-331
-333
-333
-334
-334
-336
-336
-337
-338
-339
-339
-340
-340
-341
-341
-342
-343
-343
-344
-344
-344
-346
-346
-346
-346
-348
-348
-348
-348
-348
-349
-349
-349
-349
-349
-348
-349
-349
-349
-349
-349
-349
-349
-350
-350
-350
-350
-350
-351
-351
-351
-352
-352
-352
-352
-352
-352
-353
-353
-353
-353
-353
-353
-353
-354
-354
-354
-354
-354
-354
-354
-354
-355
-355
-354
-354
-354
-354
-354
-355
-355
-355
-354
-354
-354
-354
-354
-354
-355
-355
-355
-356
-356
-356
-356
-356
-356
-356
-357
-357
-357
-357
-357
-357
-357
-358
-358
-358
-357
-357
-357
-357
-358
-358
-357
-356
-357
-357
-357
-357
-357
-357
-357
-356
-356
-356
-356
-357
-357
-357
-357
-357
-357
-357
-357
-357
-356
-356
-357
-357
-357
-356
-357
-357
-356
-356
-356
-356
-356
-357
-357
-357
-356
-356
-355
-355
-355
-355
-354
-354
-354
-354
-354
-354
-354
-354
-353
-353
-353
-353
-353
-353
-353
-353
-353
-354
-354
-354
-354
-354
-353
-353
-354
-353
-353
-352
-353
-353
-353
-353
-353
-353
-354
-354
-353
-353
-352
-353
-353
-352
-353
-353
-353
-353
-352
-352
-352
-352
-352
-353
-353
-353
-353
-352
-352
-352
-351
-351
-351
-351
-351
-351
-351
-351
-351
-351
-352
-352
-352
-352
-351
-351
-351
-351
-350
-350
-350
-350
-350
-350
-350
-349
-350
-350
-350
-350
-350
-350
-350
-350
-350
-350
-351
-351
-351
-351
-351
-351
-352
-352
-352
-351
-351
-351
-351
-352
-352
-352
-352
-352
-352
-352
-352
-352
-352
-352
-352
-352
-352
-352
-352
-353
-352
-352
-352
-352
-353
-353
-353
-353
-353
-353
-354
-354
-354
-354
-354
-354
-354
-354
-355
-355
-355
-355
-355
-355
-355
-355
-355
-355
-355
-355
-355
-354
-353
-353
-353
-353
-353
-353
-353
-353
-353
-353
-353
-353
-353
-353
-353
-353
-353
-353
-353
-353
-353
-353
-353
-353
-353
-353
-354
-354
-354
-354
-354
-354
-354
-354
-354
-354
-354
-354
-354
-353
-353
-353
-353
-352
-352
-351
-351
-351
-351
-350
-350
-349
-349
-349
-348
-348
-348
-347
-347
-347
-347
-347
-347
-346
-346
-345
-346
-345
-344
-344
-345
-345
-344
-344
-344
-343
-344
-343
-343
-343
-342
-342
-341
-341
-341
-342
-341
-340
-340
-340
-340
-340
-339
-339
-339
-339
-339
-339
-339
-339
-339
-339
-338
-339
-338
-339
-338
-339
-339
-339
-340
-340
-341
-341
-341
-342
-342
-343
-343
-343
-344
-343
-345
-345
-346
-346
-346
-347
-347
-348
-348
-350
-350
-350
-351
-351
-351
-351
-352
-352
-352
-352
-353
-353
-353
-353
-354
-354
-354
-355
-355
-356
-356
-356
-357
-357
-357
-358
-358
-358
-358
-358
-358
-359
-359
-359
-360
-360
-360
-359
-360
-361
-361
-361
-361
-361
-361
-361
-361
-362
-362
-361
-361
-361
-362
-362
-362
-362
-362
-362
-362
-362
-362
-362
-361
-361
-361
-361
-361
-361
-361
-361
-360
-360
-360
-360
-360
-360
-361
-361
-361
-361
-361
-361
-363
-363
-364
-364
-365
-365
-365
-365
-366
-366
-367
-367
-367
-367
-365
-363
-361
-358
-355
-351
-346
-341
-334
-326
-319
-310
-298
-287
-274
-260
-246
-231
-215
-200
-184
-166
-151
-135
-121
-107
-94
-82
-72
-64
-57
-52
-49
-49
-50
-54
-60
-68
-77
-89
-101
-116
-131
-146
-163
-179
-195
-212
-228
-244
-258
-272
-285
-297
-308
-319
-329
-338
-346
-353
-359
-365
-370
-374
-378
-381
-384
-386
-387
-388
-390
-391
-391
-391
-391
-390
-390
-389
-388
-386
-385
-384
-383
-381
-380
-379
-377
-377
-376
-375
-373
-373
-372
-370
-370
-369
-369
-368
-368
-368
-367
-367
-367
-367
-367
-367
-368
-368
-368
-368
-368
-369
-369
-369
-369
-369
-369
-369
-369
-370
-370
-369
-369
-370
-370
-370
-370
-369
-370
-370
-370
-369
-369
-369
-369
-369
-368
-368
-369
-369
-368
-368
-368
-368
-367
-368
-368
-368
-368
-367
-367
-367
-368
-367
-367
-367
-367
-367
-367
-367
-367
-367
-367
-367
-367
-367
-367
-368
-367
-368
-368
-368
-367
-368
-367
-367
-368
-367
-367
-367
-367
-367
-367
-367
-367
-367
-367
-367
-367
-368
-368
-367
-367
-367
-367
-367
-367
-367
-367
-366
-367
-367
-367
-366
-366
-366
-366
-366
-367
-367
-368
-367
-366
-366
-366
-366
-366
-367
-367
-366
-366
-367
-367
-367
-366
-366
-366
-366
-366
-365
-365
-365
-365
-364
-364
-364
-365
-365
-365
-365
-364
-364
-365
-365
-365
-365
-364
-365
-364
-365
-366
-365
-364
-365
-364
-364
-364
-364
-364
-364
-364
-364
-364
-364
-364
-364
-363
-363
-363
-363
-362
-362
-362
-361
-361
-361
-361
-360
-360
-360
-360
-359
-359
-359
-358
-358
-358
-358
-358
-357
-358
-357
-356
-356
-356
-354
-354
-354
-353
-353
-353
-352
-352
-352
-352
-351
-350
-350
-350
-350
-350
-349
-349
-349
-347
-347
-347
-346
-346
-346
-345
-345
-345
-344
-344
-342
-342
-341
-341
-341
-340
-340
-339
-338
-337
-336
-336
-336
-336
-336
-334
-334
-334
-333
-332
-332
-331
-330
-330
-329
-328
-328
-327
-326
-326
-325
-324
-324
-323
-323
-322
-321
-321
-321
-320
-320
-320
-320
-319
-319
-319
-318
-317
-317
-317
-316
-316
-316
-316
-316
-316
-316
-315
-315
-315
-315
-315
-315
-314
-314
-315
-315
-315
-315
-316
-316
-316
-317
-317
-317
-319
-319
-319
-320
-321
-322
-322
-323
-324
-325
-326
-327
-327
-328
-328
-329
-330
-331
-331
-333
-333
-333
-335
-335
-337
-337
-338
-340
-340
-341
-342
-343
-343
-345
-345
-345
-347
-347
-348
-349
-349
-351
-351
-351
-353
-353
-353
-353
-354
-355
-356
-356
-356
-356
-357
-357
-358
-358
-359
-359
-359
-359
-360
-361
-361
-361
-361
-361
-361
-362
-362
-363
-363
-363
-363
-363
-364
-364
-364
-364
-364
-364
-364
-365
-365
-365
-365
-365
-366
-366
-367
-366
-366
-366
-365
-366
-366
-366
-367
-367
-367
-367
-367
-367
-367
-367
-367
-367
-367
-368
-368
-368
-368
-367
-367
-367
-367
-367
-368
-369
-368
-368
-369
-369
-369
-368
-368
-369
-369
-369
-369
-370
-369
-368
-369
-369
-369
-370
-370
-369
-370
-370
-370
-370
-370
-371
-371
-371
-371
-370
-370
-371
-371
-371
-371
-371
-371
-371
-371
-371
-371
-371
-372
-372
-372
-372
-372
-372
-373
-373
-373
-373
-372
-372
-372
-372
-371
-371
-371
-371
-371
-371
-370
-370
-370
-370
-371
-371
-371
-371
-371
-370
-370
-370
-371
-371
-371
-371
-371
-370
-371
-371
-370
-370
-370
-370
-370
-370
-371
-371
-371
-370
-370
-369
-369
-369
-369
-369
-369
-369
-369
-369
-369
-369
-368
-368
-369
-369
-369
-369
-369
-369
-369
-368
-368
-368
-368
-368
-368
-368
-369
-369
-369
-368
-368
-368
-368
-369
-369
-370
-370
-369
-370
-369
-369
-369
-369
-370
-369
-369
-369
-369
-369
-369
-369
-368
-368
-368
-368
-368
-368
-368
-368
-369
-369
-369
-369
-369
-369
-369
-369
-369
-370
-370
-370
-370
-370
-370
-370
-369
-369
-369
-368
-369
-368
-368
-368
-369
-369
-368
-368
-368
-368
-368
-368
-368
-368
-369
-369
-369
-369
-368
-368
-368
-369
-369
-369
-369
-369
-369
-369
-369
-369
-370
-370
-370
-369
-369
-369
-369
-369
-369
-369
-368
-368
-368
-368
-368
-368
-368
-368
-368
-368
-368
-368
-368
-368
-368
-368
-368
-368
-368
-368
-368
-368
-368
-368
-368
-368
-368
-368
-368
-368
-369
-369
-369
-369
-369
-369
-369
-369
-369
-368
-368
-368
-368
-368
-368
-368
-368
-368
-368
-368
-368
-368
-368
-369
-368
-368
-368
-369
-369
-369
-369
-369
-369
-369
-369
-369
-369
-369
-369
-369
-369
-369
-369
-369
-369
-369
-369
-370
-369
-368
-368
-368
-368
-367
-368
-367
-367
-367
-367
-366
-366
-365
-365
-364
-364
-363
-363
-363
-363
-362
-361
-361
-361
-361
-360
-360
-360
-359
-359
-359
-359
-359
-359
-359
-359
-359
-359
-359
-358
-359
-358
-357
-357
-358
-359
-358
-358
-358
-357
-358
-357
-357
-357
-356
-356
-356
-355
-355
-355
-355
-354
-354
-354
-353
-354
-354
-353
-354
-353
-354
-353
-354
-353
-353
-354
-353
-353
-354
-353
-354
-353
-354
-354
-354
-355
-356
-356
-356
-356
-357
-357
-358
-359
-359
-359
-359
-361
-361
-361
-361
-361
-363
-363
-363
-363
-364
-363
-365
-364
-364
-365
-365
-365
-366
-366
-365
-367
-367
-367
-367
-367
-367
-367
-367
-368
-368
-369
-369
-369
-369
-370
-370
-370
-370
-370
-371
-371
-371
-371
-371
-371
-371
-372
-372
-372
-372
-372
-371
-372
-371
-371
-371
-371
-371
-372
-371
-371
-372
-372
-371
-371
-371
-370
-371
-371
-371
-371
-371
-371
-371
-371
-370
-370
-371
-371
-371
-370
-371
-371
-371
-371
-372
-373
-373
-373
-374
-374
-374
-374
-375
-373
-373
-372
-370
-368
-364
-362
-357
-351
-345
-338
-330
-322
-313
-302
-291
-278
-264
-250
-235
-220
-205
-188
-173
-158
-143
-129
-116
-105
-94
-84
-77
-71
-67
-65
-66
-68
-72
-79
-87
-97
-109
-121
-135
-149
-164
-180
-195
-210
-225
-240
-254
-267
-281
-292
-303
-314
-324
-332
-340
-347
-353
-359
-364
-368
-373
-376
-379
-381
-384
-385
-386
-388
-389
-389
-389
-389
-389
-388
-388
-387
-386
-385
-384
-383
-382
-382
-380
-379
-378
-377
-375
-375
-374
-374
-374
-373
-372
-372
-372
-371
-371
-372
-372
-371
-371
-371
-371
-371
-371
-370
-370
-370
-370
-370
-370
-371
-371
-371
-370
-370
-370
-371
-371
-371
-370
-370
-370
-370
-369
-369
-369
-369
-369
-369
-368
-368
-368
-368
-368
-368
-368
-368
-368
-369
-369
-369
-369
-369
-369
-368
-368
-368
-368
-369
-369
-369
-368
-368
-368
-369
-369
-369
-369
-368
-368
-368
-368
-368
-367
-367
-367
-367
-367
-367
-367
-366
-367
-367
-367
-367
-367
-367
-367
-367
-366
-366
-366
-366
-366
-366
-366
-367
-367
-367
-367
-367
-367
-367
-367
-367
-366
-366
-367
-367
-366
-366
-367
-366
-365
-365
-365
-365
-366
-365
-365
-365
-365
-366
-366
-366
-365
-365
-365
-365
-366
-366
-366
-366
-365
-365
-365
-365
-365
-365
-365
-365
-365
-365
-365
-365
-365
-365
-365
-365
-364
-364
-364
-364
-364
-363
-363
-363
-362
-362
-363
-362
-362
-362
-362
-362
-362
-362
-362
-362
-362
-362
-361
-361
-361
-361
-361
-361
-361
-361
-360
-360
-360
-360
-360
-360
-360
-360
-359
-358
-359
-358
-359
-358
-358
-357
-357
-356
-356
-356
-356
-355
-355
-355
-355
-354
-354
-353
-353
-353
-353
-353
-352
-351
-351
-351
-350
-350
-349
-349
-348
-348
-348
-347
-346
-346
-345
-345
-345
-344
-343
-343
-342
-341
-340
-339
-338
-338
-337
-337
-335
-335
-334
-334
-333
-333
-331
-331
-331
-330
-330
-328
-328
-328
-328
-327
-326
-325
-324
-324
-323
-323
-321
-321
-320
-320
-319
-319
-319
-317
-317
-317
-315
-315
-314
-313
-313
-313
-312
-312
-312
-311
-311
-311
-309
-309
-309
-309
-309
-309
-309
-309
-309
-309
-309
-309
-309
-309
-309
-309
-309
-310
-309
-309
-310
-310
-311
-311
-311
-312
-313
-313
-313
-313
-314
-314
-315
-316
-316
-318
-318
-319
-319
-320
-321
-322
-322
-323
-324
-325
-325
-327
-327
-328
-329
-329
-331
-331
-332
-333
-334
-334
-335
-336
-336
-337
-337
-338
-338
-339
-339
-339
-340
-339
-340
-340
-340
-341
-341
-341
-342
-342
-342
-343
-343
-343
-343
-345
-345
-345
-346
-345
-345
-346
-346
-346
-347
-347
-347
-348
-348
-349
-349
-349
-349
-349
-349
-350
-350
-350
-350
-350
-350
-350
-350
-350
-349
-349
-350
-350
-350
-351
-350
-350
-350
-350
-350
-350
-350
-351
-351
-351
-351
-351
-351
-351
-351
-351
-351
-351
-351
-351
-351
-351
-351
-351
-350
-350
-350
-350
-350
-350
-350
-349
-349
-350
-350
-350
-350
-350
-350
-350
-350
-350
-350
-350
-351
-351
-351
-351
-352
-352
-351
-351
-352
-353
-353
-352
-352
-352
-353
-353
-353
-353
-353
-352
-353
-353
-353
-353
-353
-353
-353
-352
-352
-352
-352
-352
-352
-352
-352
-352
-352
-352
-352
-352
-352
-352
-352
-352
-352
-352
-353
-353
-353
-353
-353
-353
-353
-353
-353
-353
-353
-352
-352
-353
-353
-353
-353
-352
-352
-352
-352
-352
-351
-350
-350
-350
-351
-351
-351
-350
-350
-350
-350
-349
-349
-349
-349
-350
-350
-350
-350
-350
-350
-350
-350
-349
-349
-349
-349
-349
-349
-349
-349
-349
-350
-349
-349
-349
-349
-350
-349
-350
-349
-348
-348
-348
-348
-349
-349
-348
-348
-348
-348
-348
-348
-348
-348
-348
-347
-347
-347
-347
-347
-347
-347
-347
-347
-346
-346
-346
-347
-346
-346
-346
-346
-346
-346
-346
-346
-346
-347
-346
-346
-346
-347
-347
-346
-347
-347
-347
-347
-347
-347
-347
-347
-347
-347
-347
-347
-347
-347
-347
-346
-347
-347
-347
-347
-347
-347
-347
-346
-346
-346
-347
-347
-347
-347
-347
-347
-347
-346
-346
-345
-346
-345
-346
-346
-346
-346
-345
-346
-346
-346
-346
-346
-346
-346
-346
-346
-346
-346
-346
-347
-347
-347
-346
-347
-347
-347
-347
-347
-347
-346
-347
-347
-347
-347
-348
-347
-348
-348
-347
-347
-346
-346
-346
-346
-347
-346
-347
-347
-347
-347
-347
-346
-347
-347
-347
-346
-347
-347
-347
-347
-347
-347
-346
-346
-346
-346
-347
-347
-347
-346
-347
-347
-347
-347
-347
-347
-347
-346
-347
-346
-346
-346
-346
-346
-346
-346
-346
-346
-346
-345
-345
-345
-345
-345
-345
-345
-345
-345
-344
-344
-343
-343
-343
-343
-342
-341
-341
-341
-341
-340
-339
-339
-339
-339
-339
-338
-339
-338
-337
-337
-337
-337
-336
-336
-337
-337
-337
-336
-336
-336
-335
-335
-335
-335
-335
-334
-334
-334
-333
-333
-333
-333
-332
-333
-332
-332
-331
-331
-331
-331
-331
-331
-331
-329
-329
-329
-329
-328
-328
-329
-327
-328
-328
-329
-328
-329
-329
-330
-329
-329
-330
-330
-331
-331
-331
-332
-333
-334
-333
-334
-334
-335
-336
-336
-336
-337
-337
-338
-338
-338
-339
-339
-339
-340
-340
-340
-340
-341
-341
-341
-340
-340
-341
-341
-342
-342
-342
-342
-342
-343
-343
-343
-343
-343
-344
-344
-345
-345
-345
-345
-346
-346
-346
-346
-347
-347
-347
-347
-347
-347
-347
-347
-347
-347
-347
-348
-347
-347
-346
-346
-346
-345
-346
-346
-346
-346
-346
-345
-345
-345
-345
-345
-346
-346
-346
-346
-345
-345
-345
-345
-345
-345
-345
-345
-345
-345
-346
-346
-346
-346
-347
-347
-348
-348
-348
-349
-349
-349
-349
-348
-347
-346
-345
-343
-341
-338
-334
-330
-324
-318
-312
-304
-296
-286
-275
-264
-251
-238
-224
-210
-194
-179
-164
-149
-134
-120
-106
-93
-82
-73
-65
-58
-53
-50
-49
-51
-53
-58
-64
-73
-83
-95
-107
-121
-135
-151
-165
-180
-195
-211
-225
-239
-251
-264
-276
-286
-297
-306
-315
-321
-329
-334
-340
-344
-349
-352
-355
-358
-359
-362
-363
-364
-364
-365
-365
-365
-366
-365
-364
-362
-362
-360
-359
-358
-357
-356
-355
-353
-353
-351
-351
-349
-349
-347
-347
-347
-346
-345
-345
-345
-344
-343
-343
-343
-343
-343
-343
-343
-343
-343
-343
-343
-343
-343
-342
-343
-343
-343
-342
-342
-342
-342
-341
-342
-342
-342
-342
-341
-341
-341
-341
-341
-341
-341
-341
-341
-341
-341
-341
-341
-341
-341
-341
-341
-341
-341
-341
-340
-341
-341
-341
-341
-341
-341
-341
-340
-341
-341
-341
-340
-340
-340
-340
-340
-340
-340
-340
-341
-340
-340
-340
-341
-341
-341
-341
-341
-341
-341
-341
-340
-340
-340
-340
-340
-340
-340
-340
-340
-340
-340
-340
-340
-340
-340
-340
-340
-339
-339
-339
-339
-338
-338
-337
-338
-338
-338
-338
-337
-337
-337
-337
-337
-337
-337
-337
-337
-337
-337
-337
-337
-337
-337
-337
-337
-337
-337
-336
-337
-337
-337
-337
-337
-337
-337
-337
-338
-338
-337
-337
-336
-336
-336
-336
-337
-336
-336
-336
-336
-336
-336
-335
-335
-335
-334
-334
-335
-334
-334
-334
-333
-333
-333
-334
-334
-333
-333
-333
-333
-333
-332
-332
-332
-332
-332
-332
-331
-331
-331
-329
-329
-329
-329
-329
-328
-328
-327
-327
-327
-326
-326
-326
-326
-325
-325
-325
-325
-325
-324
-324
-324
-324
-324
-324
-324
-324
-323
-322
-322
-322
-322
-321
-321
-321
-321
-319
-319
-319
-318
-317
-317
-316
-315
-315
-315
-314
-313
-313
-312
-311
-311
-310
-309
-308
-308
-307
-307
-306
-306
-305
-305
-304
-304
-303
-303
-302
-301
-300
-300
-300
-300
-298
-298
-297
-297
-296
-295
-295
-294
-293
-292
-291
-290
-290
-289
-289
-289
-287
-287
-287
-286
-286
-286
-285
-285
-285
-284
-284
-283
-283
-283
-283
-283
-282
-282
-282
-282
-282
-282
-282
-282
-282
-282
-282
-282
-281
-282
-282
-283
-282
-282
-283
-283
-284
-285
-285
-285
-286
-286
-287
-287
-288
-289
-289
-290
-291
-292
-292
-294
-294
-294
-296
-296
-297
-298
-299
-299
-300
-301
-301
-303
-303
-305
-305
-306
-306
-307
-308
-309
-309
-310
-310
-310
-311
-311
-312
-312
-314
-314
-314
-315
-316
-316
-317
-317
-317
-317
-317
-317
-318
-318
-318
-319
-319
-319
-320
-320
-320
-321
-321
-320
-321
-321
-321
-321
-321
-322
-322
-322
-322
-322
-321
-321
-321
-321
-321
-321
-321
-322
-321
-321
-321
-321
-322
-322
-322
-321
-321
-321
-321
-321
-321
-321
-321
-321
-322
-322
-322
-322
-322
-323
-323
-323
-323
-323
-323
-323
-323
-323
-323
-324
-323
-323
-323
-324
-324
-324
-324
-324
-324
-324
-324
-324
-324
-324
-324
-324
-324
-324
-324
-324
-324
-324
-324
-324
-324
-324
-325
-325
-325
-325
-325
-325
-325
-325
-326
-326
-327
-326
-325
-325
-325
-325
-325
-325
-325
-325
-325
-325
-325
-325
-325
-325
-325
-325
-325
-325
-325
-325
-325
-325
-325
-325
-325
-325
-325
-325
-325
-325
-325
-325
-326
-326
-326
-326
-326
-326
-325
-325
-325
-324
-323
-323
-323
-323
-323
-323
-323
-323
-323
-323
-323
-323
-323
-323
-322
-323
-323
-323
-323
-323
-323
-323
-323
-323
-323
-323
-323
-323
-323
-323
-323
-323
-323
-323
-323
-322
-322
-321
-321
-320
-320
-320
-320
-320
-320
-320
-319
-319
-319
-319
-319
-319
-319
-319
-319
-319
-318
-319
-319
-319
-319
-319
-319
-319
-319
-319
-319
-319
-320
-320
-319
-319
-319
-319
-319
-319
-319
-318
-318
-317
-317
-317
-317
-317
-317
-317
-317
-317
-316
-316
-317
-317
-317
-317
-317
-317
-317
-317
-317
-317
-317
-317
-317
-318
-318
-318
-318
-318
-318
-317
-317
-317
-317
-317
-317
-317
-317
-317
-316
-316
-316
-316
-315
-315
-315
-316
-315
-315
-315
-315
-315
-315
-315
-315
-315
-316
-316
-315
-315
-315
-316
-316
-316
-316
-316
-316
-316
-316
-316
-316
-316
-316
-316
-316
-316
-316
-316
-316
-315
-314
-315
-315
-314
-314
-314
-314
-314
-313
-313
-313
-313
-313
-313
-313
-313
-313
-312
-312
-312
-312
-312
-312
-312
-313
-313
-313
-313
-314
-313
-313
-313
-313
-313
-313
-314
-314
-314
-314
-313
-313
-313
-313
-313
-313
-313
-313
-313
-313
-313
-313
-313
-312
-312
-313
-313
-312
-312
-312
-312
-312
-311
-311
-311
-311
-311
-310
-310
-310
-309
-309
-309
-308
-308
-307
-307
-306
-305
-305
-305
-304
-304
-303
-303
-303
-302
-302
-301
-301
-301
-301
-301
-301
-300
-300
-300
-300
-300
-300
-300
-300
-300
-299
-299
-299
-298
-298
-298
-297
-298
-298
-297
-297
-296
-295
-296
-296
-295
-294
-293
-292
-292
-291
-291
-291
-291
-290
-291
-290
-291
-290
-291
-291
-291
-291
-292
-292
-293
-294
-294
-294
-294
-295
-296
-296
-297
-298
-298
-299
-299
-299
-300
-300
-301
-301
-302
-303
-303
-304
-303
-303
-303
-304
-304
-305
-304
-305
-305
-305
-305
-305
-305
-306
-306
-306
-306
-307
-306
-306
-307
-307
-306
-307
-307
-307
-308
-308
-308
-308
-308
-309
-309
-309
-309
-309
-309
-310
-310
-310
-310
-309
-310
-310
-309
-309
-310
-310
-309
-309
-309
-309
-310
-310
-310
-310
-310
-310
-310
-310
-310
-309
-309
-309
-309
-309
-309
-309
-309
-309
-309
-309
-309
-309
-309
-309
-310
-310
-311
-310
-310
-311
-310
-311
-312
-312
-313
-313
-313
-313
-313
-313
-313
-312
-311
-309
-306
-304
-299
-295
-290
-284
-277
-269
-260
-250
-240
-228
-216
-202
-188
-173
-158
-142
-126
-111
-96
-82
-69
-56
-45
-35
-27
-21
-16
-14
-14
-16
-20
-26
-33
-43
-55
-67
-81
-96
-111
-128
-143
-159
-176
-191
-206
-220
-234
-247
-258
-270
-280
-289
-297
-304
-311
-316
-321
-324
-328
-330
-333
-335
-335
-335
-336
-336
-336
-336
-335
-335
-333
-332
-331
-330
-328
-327
-325
-324
-323
-321
-320
-319
-318
-317
-316
-314
-314
-313
-312
-312
-311
-310
-310
-310
-310
-309
-309
-309
-310
-309
-309
-309
-309
-309
-308
-309
-309
-309
-309
-309
-309
-309
-309
-310
-309
-309
-309
-309
-309
-309
-309
-309
-309
-309
-309
-309
-309
-309
-309
-308
-308
-308
-308
-308
-307
-307
-307
-308
-308
-308
-308
-308
-307
-307
-306
-306
-307
-307
-307
-307
-307
-306
-307
-307
-307
-307
-307
-306
-306
-306
-306
-306
-306
-306
-306
-306
-306
-306
-306
-306
-306
-307
-306
-306
-307
-307
-307
-307
-307
-307
-308
-307
-307
-307
-307
-308
-307
-307
-307
-307
-308
-308
-307
-308
-308
-308
-308
-308
-308
-308
-307
-307
-307
-307
-307
-306
-306
-306
-306
-306
-306
-306
-306
-305
-305
-305
-305
-305
-305
-306
-305
-305
-305
-305
-304
-304
-304
-304
-303
-304
-304
-304
-304
-304
-303
-303
-303
-303
-303
-303
-303
-302
-302
-302
-302
-302
-301
-301
-301
-300
-300
-300
-300
-300
-300
-300
-300
-300
-300
-299
-298
-299
-298
-298
-297
-297
-297
-297
-296
-296
-296
-295
-295
-295
-295
-295
-295
-294
-294
-294
-294
-293
-293
-293
-292
-292
-291
-291
-290
-290
-290
-290
-289
-289
-289
-288
-288
-288
-287
-288
-287
-287
-287
-286
-285
-285
-286
-285
-285
-284
-284
-284
-283
-283
-282
-282
-281
-280
-280
-280
-278
-278
-278
-277
-276
-275
-275
-274
-273
-273
-272
-272
-271
-270
-270
-270
-268
-268
-267
-267
-267
-266
-265
-265
-263
-263
-262
-262
-261
-261
-260
-259
-259
-258
-258
-256
-256
-256
-254
-254
-254
-253
-253
-252
-252
-251
-251
-251
-249
-249
-248
-248
-248
-248
-248
-246
-246
-246
-246
-246
-246
-246
-246
-246
-245
-245
-246
-246
-246
-247
-247
-247
-247
-248
-249
-249
-249
-251
-251
-251
-252
-253
-254
-254
-255
-255
-257
-257
-257
-258
-258
-260
-260
-262
-262
-262
-264
-264
-265
-266
-266
-267
-267
-268
-269
-270
-270
-271
-272
-273
-273
-274
-274
-274
-275
-276
-276
-277
-277
-277
-279
-279
-279
-280
-280
-281
-281
-281
-282
-283
-283
-284
-284
-285
-285
-287
-286
-287
-288
-288
-288
-288
-288
-288
-288
-288
-288
-289
-289
-289
-289
-289
-289
-289
-289
-289
-289
-289
-289
-289
-289
-289
-289
-289
-289
-290
-290
-290
-290
-290
-290
-290
-290
-291
-291
-291
-291
-291
-292
-291
-291
-292
-291
-291
-291
-291
-291
-292
-292
-292
-292
-292
-291
-291
-291
-291
-292
-292
-292
-292
-293
-293
-293
-293
-293
-293
-294
-294
-294
-294
-294
-294
-295
-295
-295
-295
-295
-295
-295
-295
-296
-295
-295
-294
-294
-294
-294
-294
-294
-294
-294
-294
-294
-294
-294
-294
-294
-293
-293
-293
-294
-294
-294
-294
-294
-294
-294
-294
-295
-295
-295
-295
-295
-295
-295
-295
-295
-295
-296
-296
-296
-296
-296
-295
-295
-295
-295
-295
-294
-294
-294
-294
-294
-294
-294
-293
-293
-293
-293
-293
