# Simple Text Format
# Sampling Rate (Hz):= 1200.00
# Resolution:= 12
# Labels:= ECG	 V2
# Age:=	72
# Gender:=	Feminino
0
0
0
0
0
0
0
0
0
0
0
0
0
0
0
0
0
0
0
0
0
0
0
0
0
0
0
0
0
0
0
0
0
0
0
0
0
0
0
0
0
0
0
0
0
0
0
0
0
0
0
0
0
0
0
0
0
0
0
0
0
0
0
0
0
0
0
0
0
0
0
0
0
0
0
0
0
0
0
0
0
0
0
0
0
0
0
0
0
0
0
0
0
0
0
0
0
0
0
0
0
0
0
0
0
0
0
0
0
0
0
0
0
0
0
0
0
0
0
0
0
0
0
0
0
0
0
0
0
0
0
0
0
0
0
0
0
0
0
0
0
0
0
0
0
0
0
0
0
0
0
0
0
0
0
0
0
0
0
0
0
0
0
0
0
0
0
0
0
0
0
0
0
0
0
0
0
0
0
0
0
0
0
0
0
0
0
0
0
0
0
0
0
0
0
0
0
0
0
0
0
0
0
0
0
0
0
0
0
0
0
0
0
0
0
0
0
0
0
0
0
0
0
0
0
0
0
0
0
0
0
0
0
0
0
0
0
0
0
0
0
0
0
0
0
0
0
0
0
0
0
0
0
0
0
0
0
0
0
0
0
0
0
0
0
0
0
0
0
0
0
0
0
0
0
0
0
0
0
0
0
0
0
0
0
0
0
0
0
0
0
0
0
0
0
0
0
0
0
0
0
0
0
0
0
0
0
0
0
0
0
0
0
0
0
0
0
0
0
0
0
0
0
0
0
0
0
0
0
0
0
0
0
0
0
0
0
0
0
0
0
0
0
0
0
0
0
0
0
0
0
0
0
0
0
0
0
0
0
0
0
0
0
0
0
0
0
0
0
0
0
0
0
0
0
0
0
0
0
0
0
0
0
0
0
0
0
0
0
0
0
0
0
0
0
0
0
0
0
0
0
0
0
0
0
0
0
0
0
0
0
0
0
0
0
0
0
0
0
0
0
0
0
0
0
0
0
0
0
0
0
0
0
0
0
0
0
0
0
0
0
0
0
0
0
0
0
0
0
0
0
0
0
0
0
0
0
0
0
0
0
0
0
0
0
0
0
0
0
0
0
0
0
0
0
0
0
0
0
0
0
0
0
0
0
0
0
0
0
0
0
0
0
0
0
0
0
0
0
0
0
0
0
0
0
0
0
0
0
0
0
0
0
0
0
0
0
0
0
0
0
0
0
0
0
0
0
0
0
0
0
0
0
0
0
0
0
0
0
0
0
0
0
0
0
0
0
0
0
0
0
0
0
0
0
0
0
0
0
0
0
0
0
0
0
0
0
0
0
0
0
0
0
0
0
0
0
0
0
0
0
0
0
0
0
0
0
0
0
0
0
0
0
0
0
0
0
0
0
0
0
0
0
0
0
0
0
0
0
0
0
0
0
0
0
0
0
0
0
0
0
0
0
0
0
0
0
0
0
0
0
0
0
0
0
0
0
0
0
0
0
0
0
0
0
0
0
0
0
0
0
0
0
0
0
0
0
0
0
0
0
0
0
0
0
0
0
0
0
0
0
0
0
0
0
0
0
0
0
0
0
0
0
0
0
0
0
0
0
0
0
0
0
0
0
0
0
0
0
0
0
0
0
0
0
0
0
0
0
0
0
0
0
0
0
0
0
0
0
0
0
0
0
0
0
0
0
0
0
0
0
0
0
0
0
0
0
0
0
0
0
0
0
0
0
0
0
0
0
0
0
0
0
0
0
0
0
0
0
0
0
0
0
0
0
0
0
0
0
0
0
0
0
0
0
0
0
0
0
0
0
0
0
0
0
0
0
0
0
0
0
0
0
0
0
0
0
0
0
0
0
0
0
0
0
0
0
0
0
0
0
0
0
0
0
0
0
0
0
0
0
0
0
0
0
0
0
0
0
0
0
0
0
0
0
0
0
0
0
0
0
0
0
0
0
0
0
0
0
0
0
0
0
0
0
0
0
0
0
0
0
0
0
0
0
0
0
0
0
0
0
0
0
0
0
0
0
0
0
0
0
0
0
0
0
0
0
0
0
0
0
0
0
0
0
0
0
0
0
0
0
0
0
0
0
0
0
0
0
0
0
0
0
0
0
0
0
0
0
0
0
0
0
0
0
0
0
0
0
0
0
0
0
0
0
0
0
0
0
0
0
0
0
0
0
0
0
0
0
0
0
0
0
0
0
0
0
0
0
0
0
0
0
0
0
0
0
0
0
0
0
0
0
0
0
0
0
0
0
0
0
0
0
0
0
0
0
0
0
0
0
0
0
0
0
0
0
0
0
0
0
0
0
0
0
0
0
0
0
0
0
0
0
0
0
0
0
0
0
0
0
0
0
0
0
0
0
0
0
0
0
0
0
0
0
0
0
0
0
0
0
0
0
0
0
0
0
0
0
0
0
0
0
0
0
0
0
0
0
0
0
0
0
0
0
0
0
0
0
0
0
0
0
0
0
0
0
0
0
0
0
0
0
0
0
0
0
0
0
0
0
0
0
0
0
0
0
0
0
0
0
0
0
0
0
0
0
0
0
0
0
0
0
0
0
0
0
0
0
0
0
0
0
0
0
0
0
0
0
0
0
0
0
0
0
0
0
0
0
0
0
0
0
0
0
0
0
0
0
0
0
0
0
0
0
0
0
0
0
0
0
0
0
0
0
0
0
0
0
0
0
0
0
0
0
0
0
0
0
0
0
0
0
0
0
0
0
0
0
0
0
0
0
0
0
0
0
0
0
0
0
0
0
0
0
0
0
0
0
0
0
0
0
0
0
0
0
0
0
0
0
0
0
0
0
0
0
0
0
0
0
0
0
0
0
0
0
0
0
0
0
0
0
0
0
0
0
0
0
0
0
0
0
0
0
0
0
0
0
0
0
0
0
0
0
0
0
0
0
0
0
0
0
0
0
0
0
0
0
0
0
0
0
0
0
0
0
0
0
0
0
0
0
0
0
0
0
0
0
0
0
0
0
0
0
0
0
0
0
0
0
0
0
0
0
0
0
0
0
0
0
0
0
0
0
0
0
0
0
0
0
0
0
0
0
0
0
0
0
0
0
0
0
0
0
0
0
0
0
0
0
0
0
0
0
0
0
0
0
0
0
0
0
0
0
0
0
0
0
0
0
0
0
0
0
0
0
0
0
0
0
0
0
0
0
0
0
0
0
0
0
0
0
0
0
0
0
0
0
0
0
0
0
0
0
0
0
0
0
0
0
0
0
0
0
0
0
0
0
0
0
0
0
0
0
0
0
0
0
0
0
0
0
0
-473
-474
-475
-476
-476
-476
-478
-478
-479
-479
-481
-481
-481
-482
-482
-483
-483
-485
-485
-486
-486
-487
-488
-488
-488
-490
-490
-490
-491
-491
-492
-492
-493
-493
-492
-493
-494
-494
-494
-495
-495
-495
-495
-496
-496
-496
-496
-496
-496
-496
-496
-497
-497
-497
-497
-497
-497
-497
-497
-497
-497
-498
-498
-498
-498
-499
-499
-499
-499
-500
-500
-500
-500
-500
-500
-500
-500
-500
-500
-500
-500
-500
-500
-500
-500
-501
-501
-501
-500
-500
-499
-499
-499
-499
-500
-500
-499
-499
-499
-499
-499
-499
-499
-499
-499
-500
-500
-500
-500
-500
-500
-500
-500
-499
-500
-499
-499
-500
-500
-499
-500
-499
-499
-499
-499
-499
-499
-499
-499
-499
-498
-498
-498
-498
-498
-498
-498
-497
-497
-497
-497
-497
-496
-496
-496
-496
-496
-495
-495
-494
-494
-494
-493
-492
-492
-492
-491
-491
-491
-491
-491
-491
-491
-490
-490
-490
-490
-490
-491
-490
-490
-490
-490
-490
-490
-489
-489
-489
-489
-489
-489
-488
-488
-488
-488
-488
-488
-487
-487
-487
-487
-487
-486
-486
-485
-485
-485
-485
-485
-485
-484
-484
-484
-484
-484
-484
-483
-483
-484
-484
-483
-483
-483
-483
-482
-482
-483
-483
-483
-482
-482
-482
-482
-483
-483
-482
-482
-482
-482
-482
-483
-482
-481
-481
-481
-480
-481
-481
-481
-481
-480
-480
-480
-481
-481
-481
-481
-480
-480
-481
-481
-481
-481
-482
-482
-482
-481
-481
-481
-482
-482
-482
-482
-482
-482
-483
-483
-483
-483
-482
-483
-483
-483
-482
-482
-481
-482
-482
-482
-483
-482
-482
-482
-482
-482
-482
-482
-483
-483
-482
-482
-482
-482
-482
-482
-482
-482
-483
-483
-483
-483
-483
-484
-483
-483
-483
-483
-483
-483
-484
-484
-484
-484
-483
-482
-483
-483
-483
-483
-484
-483
-483
-483
-483
-483
-483
-483
-484
-484
-484
-483
-483
-484
-484
-483
-483
-484
-484
-484
-484
-484
-484
-484
-485
-484
-484
-484
-484
-484
-484
-484
-483
-484
-483
-483
-483
-483
-483
-482
-483
-483
-483
-482
-482
-482
-482
-482
-482
-482
-482
-483
-483
-483
-483
-483
-483
-483
-483
-483
-483
-483
-483
-483
-483
-483
-483
-482
-483
-483
-483
-483
-483
-483
-482
-482
-482
-482
-482
-482
-482
-482
-482
-482
-482
-481
-481
-481
-481
-480
-480
-481
-481
-481
-481
-480
-480
-480
-479
-479
-479
-478
-478
-478
-478
-477
-476
-476
-476
-475
-474
-474
-474
-473
-472
-472
-472
-471
-470
-470
-469
-469
-469
-468
-468
-468
-468
-467
-467
-467
-467
-467
-467
-467
-467
-467
-466
-467
-467
-467
-468
-468
-468
-468
-469
-469
-469
-470
-470
-471
-471
-472
-472
-472
-472
-473
-473
-472
-473
-473
-473
-473
-473
-473
-473
-473
-472
-472
-472
-472
-472
-472
-471
-470
-470
-470
-470
-470
-469
-469
-469
-469
-469
-470
-469
-470
-470
-470
-470
-470
-471
-471
-471
-471
-470
-470
-470
-470
-470
-471
-471
-470
-470
-470
-470
-470
-470
-470
-472
-471
-471
-472
-471
-471
-472
-472
-472
-473
-473
-474
-474
-473
-473
-474
-475
-475
-475
-475
-475
-475
-475
-475
-475
-475
-475
-474
-474
-474
-474
-474
-474
-474
-474
-474
-474
-473
-473
-473
-473
-473
-473
-473
-473
-472
-472
-472
-472
-472
-472
-472
-472
-472
-471
-471
-471
-471
-471
-471
-471
-471
-470
-470
-470
-468
-468
-467
-466
-466
-465
-463
-461
-459
-458
-455
-453
-450
-445
-442
-439
-437
-432
-430
-427
-423
-421
-417
-415
-412
-409
-406
-404
-401
-398
-397
-395
-393
-390
-388
-385
-384
-382
-381
-381
-382
-384
-387
-392
-397
-405
-413
-423
-434
-447
-459
-475
-490
-507
-523
-540
-556
-573
-589
-603
-617
-628
-638
-646
-653
-658
-661
-663
-663
-662
-659
-655
-650
-643
-637
-628
-620
-613
-604
-595
-586
-578
-568
-561
-552
-545
-538
-530
-524
-518
-512
-506
-501
-496
-492
-487
-484
-480
-476
-473
-470
-467
-465
-463
-460
-459
-457
-456
-455
-452
-452
-451
-451
-449
-449
-448
-448
-448
-448
-447
-447
-446
-446
-445
-444
-444
-444
-444
-444
-444
-443
-443
-443
-443
-443
-443
-442
-442
-442
-442
-442
-442
-442
-441
-441
-441
-441
-441
-441
-441
-441
-441
-441
-441
-441
-441
-441
-441
-440
-440
-440
-439
-439
-439
-439
-438
-438
-438
-437
-437
-437
-437
-437
-437
-437
-437
-437
-436
-436
-436
-437
-437
-437
-437
-437
-437
-437
-437
-437
-437
-437
-436
-436
-436
-436
-435
-436
-436
-435
-436
-435
-435
-434
-434
-434
-434
-434
-434
-433
-433
-433
-433
-433
-433
-433
-433
-432
-433
-433
-433
-433
-433
-432
-432
-432
-432
-433
-433
-433
-432
-432
-432
-432
-432
-431
-431
-431
-430
-430
-430
-430
-429
-429
-428
-428
-428
-427
-427
-428
-427
-427
-427
-427
-427
-427
-427
-427
-426
-426
-427
-427
-426
-426
-426
-426
-426
-426
-426
-425
-424
-424
-424
-424
-424
-423
-422
-422
-422
-422
-421
-420
-420
-419
-418
-418
-418
-417
-417
-416
-416
-415
-415
-415
-414
-414
-414
-414
-414
-412
-412
-412
-412
-412
-410
-410
-410
-409
-409
-409
-409
-408
-408
-408
-407
-407
-406
-406
-406
-406
-405
-404
-403
-402
-402
-401
-401
-400
-400
-398
-398
-398
-397
-396
-396
-395
-395
-395
-393
-393
-393
-393
-392
-391
-391
-391
-391
-390
-390
-390
-390
-390
-390
-389
-389
-389
-389
-389
-389
-389
-389
-389
-388
-388
-387
-388
-388
-388
-388
-387
-388
-388
-389
-388
-388
-389
-389
-389
-389
-390
-389
-390
-390
-390
-391
-392
-391
-392
-393
-394
-394
-395
-396
-396
-397
-398
-398
-399
-400
-400
-401
-401
-402
-402
-402
-403
-404
-405
-405
-406
-407
-407
-408
-408
-410
-410
-410
-412
-412
-413
-414
-414
-415
-415
-416
-417
-417
-418
-418
-419
-420
-421
-422
-422
-424
-424
-424
-426
-426
-427
-428
-427
-428
-429
-429
-429
-430
-430
-432
-432
-433
-433
-433
-435
-435
-435
-435
-437
-437
-437
-438
-438
-439
-439
-439
-439
-440
-441
-441
-441
-441
-442
-442
-442
-443
-443
-443
-444
-444
-445
-445
-445
-444
-445
-445
-445
-446
-446
-446
-446
-447
-447
-447
-447
-447
-447
-447
-447
-447
-448
-448
-448
-448
-448
-448
-449
-449
-449
-448
-448
-448
-448
-449
-449
-449
-449
-449
-449
-448
-448
-447
-447
-447
-446
-446
-446
-446
-446
-446
-445
-446
-445
-445
-445
-445
-445
-445
-445
-446
-446
-446
-446
-446
-447
-447
-447
-447
-447
-447
-447
-447
-447
-447
-447
-447
-447
-446
-446
-446
-446
-445
-445
-445
-444
-443
-443
-443
-443
-442
-442
-442
-442
-442
-442
-441
-441
-441
-441
-442
-441
-441
-441
-441
-440
-440
-441
-441
-440
-440
-440
-440
-440
-440
-440
-439
-439
-439
-439
-439
-438
-439
-437
-436
-437
-437
-437
-436
-436
-436
-436
-435
-435
-435
-435
-434
-434
-434
-434
-434
-434
-435
-435
-433
-433
-433
-433
-433
-433
-433
-433
-433
-432
-432
-431
-431
-431
-431
-431
-431
-431
-431
-431
-429
-430
-430
-429
-430
-429
-430
-430
-430
-430
-430
-430
-430
-431
-431
-431
-430
-430
-430
-430
-430
-430
-430
-430
-430
-430
-429
-429
-429
-429
-429
-429
-429
-429
-429
-429
-429
-428
-427
-427
-427
-427
-427
-427
-427
-426
-426
-427
-427
-427
-427
-427
-426
-426
-427
-427
-428
-428
-427
-428
-428
-428
-428
-428
-429
-429
-429
-429
-429
-429
-430
-430
-430
-430
-430
-430
-430
-430
-429
-429
-429
-429
-429
-429
-430
-429
-429
-430
-430
-430
-429
-429
-429
-429
-430
-430
-430
-431
-431
-430
-431
-432
-431
-431
-431
-431
-431
-431
-431
-431
-431
-431
-431
-430
-430
-430
-430
-430
-430
-430
-429
-429
-429
-428
-428
-428
-428
-429
-429
-429
-429
-429
-429
-429
-430
-429
-429
-429
-429
-430
-430
-430
-430
-430
-430
-430
-429
-429
-429
-429
-429
-430
-429
-429
-429
-429
-429
-430
-429
-428
-427
-427
-427
-427
-427
-426
-426
-425
-425
-425
-425
-425
-424
-424
-423
-423
-422
-422
-422
-421
-421
-419
-419
-419
-419
-418
-418
-418
-418
-417
-418
-418
-417
-417
-417
-417
-416
-417
-416
-416
-415
-415
-415
-415
-416
-416
-416
-416
-417
-416
-417
-417
-418
-418
-419
-420
-420
-421
-421
-421
-422
-423
-423
-424
-424
-425
-425
-425
-424
-425
-424
-425
-425
-425
-425
-425
-425
-424
-425
-424
-424
-423
-423
-423
-423
-423
-424
-424
-423
-423
-423
-423
-424
-424
-424
-425
-423
-425
-424
-425
-424
-424
-424
-425
-424
-424
-424
-424
-424
-425
-425
-424
-425
-425
-425
-426
-426
-426
-426
-426
-425
-426
-426
-426
-426
-427
-427
-426
-427
-426
-426
-426
-427
-426
-426
-426
-426
-426
-426
-426
-426
-426
-426
-426
-426
-426
-426
-426
-426
-426
-426
-426
-426
-427
-427
-426
-426
-426
-426
-427
-426
-425
-426
-426
-426
-426
-426
-426
-425
-425
-425
-425
-425
-424
-424
-424
-423
-423
-422
-421
-421
-419
-418
-418
-416
-414
-412
-410
-407
-404
-401
-397
-394
-390
-387
-384
-381
-378
-376
-373
-370
-368
-366
-364
-362
-361
-360
-360
-359
-358
-358
-359
-358
-358
-359
-361
-362
-365
-369
-374
-380
-387
-395
-404
-414
-425
-438
-452
-465
-480
-495
-510
-526
-541
-556
-570
-584
-595
-605
-614
-621
-625
-630
-632
-633
-632
-631
-627
-622
-615
-609
-601
-593
-585
-577
-567
-559
-549
-541
-532
-524
-516
-507
-500
-492
-485
-479
-473
-468
-462
-457
-452
-447
-443
-439
-436
-432
-429
-426
-422
-420
-417
-416
-414
-411
-410
-409
-408
-406
-406
-405
-404
-404
-403
-403
-403
-402
-402
-402
-402
-401
-401
-401
-401
-400
-400
-400
-400
-400
-400
-400
-400
-398
-398
-398
-398
-398
-398
-397
-397
-397
-396
-395
-396
-396
-396
-396
-396
-396
-396
-396
-396
-396
-396
-396
-396
-396
-395
-395
-395
-396
-395
-395
-395
-395
-395
-395
-395
-394
-394
-394
-394
-394
-394
-393
-394
-393
-394
-393
-393
-392
-392
-392
-391
-392
-392
-392
-392
-392
-391
-391
-391
-391
-391
-391
-391
-391
-391
-391
-391
-391
-391
-391
-390
-390
-390
-390
-390
-390
-390
-390
-390
-390
-390
-390
-389
-390
-389
-389
-389
-389
-388
-388
-388
-388
-388
-387
-387
-387
-387
-387
-387
-387
-387
-386
-386
-386
-386
-386
-385
-385
-385
-385
-384
-384
-384
-383
-383
-383
-382
-382
-382
-382
-382
-382
-382
-381
-381
-381
-380
-380
-379
-379
-378
-378
-378
-378
-377
-377
-376
-376
-376
-376
-376
-376
-375
-375
-375
-375
-374
-374
-374
-374
-374
-373
-373
-373
-372
-372
-372
-371
-371
-370
-370
-369
-368
-368
-367
-367
-365
-364
-363
-363
-363
-362
-362
-362
-361
-360
-360
-360
-358
-358
-357
-357
-357
-357
-356
-356
-356
-356
-356
-354
-355
-354
-354
-353
-353
-353
-352
-352
-351
-351
-350
-351
-350
-350
-349
-349
-348
-348
-346
-346
-347
-346
-346
-346
-346
-344
-344
-345
-344
-344
-343
-344
-343
-343
-344
-343
-343
-343
-343
-343
-342
-343
-342
-343
-343
-343
-343
-343
-343
-344
-344
-344
-344
-345
-346
-346
-347
-347
-348
-348
-349
-349
-350
-351
-352
-353
-354
-355
-356
-356
-357
-358
-359
-359
-360
-361
-362
-362
-363
-364
-364
-365
-366
-366
-367
-368
-369
-370
-371
-371
-373
-373
-374
-375
-376
-376
-377
-377
-378
-379
-380
-380
-382
-382
-383
-383
-384
-385
-386
-386
-387
-388
-389
-390
-390
-391
-392
-392
-394
-394
-394
-395
-396
-396
-396
-397
-398
-398
-398
-398
-399
-399
-400
-401
-400
-400
-400
-401
-400
-401
-401
-401
-402
-402
-402
-402
-403
-403
-403
-403
-403
-403
-404
-405
-405
-405
-405
-405
-405
-405
-405
-405
-405
-405
-405
-406
-406
-406
-406
-406
-406
-406
-407
-407
-407
-406
-405
-406
-405
-406
-406
-406
-406
-406
-407
-406
-406
-406
-406
-406
-406
-406
-406
-406
-406
-407
-407
-407
-407
-408
-407
-407
-407
-407
-408
-408
-408
-408
-408
-408
-407
-407
-407
-408
-408
-407
-407
-406
-406
-406
-406
-406
-405
-405
-405
-404
-404
-404
-403
-404
-404
-404
-403
-403
-403
-403
-402
-402
-402
-401
-402
-402
-402
-402
-402
-402
-402
-402
-402
-402
-402
-402
-401
-401
-400
-400
-400
-399
-399
-399
-399
-398
-398
-397
-397
-396
-396
-396
-396
-396
-395
-395
-395
-395
-395
-394
-394
-394
-394
-394
-393
-393
-393
-392
-392
-392
-392
-392
-392
-392
-392
-392
-391
-392
-392
-391
-390
-390
-389
-390
-390
-389
-389
-389
-389
-389
-389
-389
-389
-389
-389
-389
-389
-389
-389
-389
-388
-388
-388
-388
-388
-388
-387
-387
-388
-388
-388
-388
-388
-387
-387
-387
-387
-388
-388
-387
-387
-386
-386
-386
-386
-386
-386
-386
-386
-386
-386
-387
-387
-387
-387
-388
-388
-388
-388
-389
-389
-389
-389
-389
-389
-389
-389
-389
-389
-390
-390
-390
-390
-390
-390
-390
-389
-389
-390
-389
-389
-389
-389
-389
-388
-389
-389
-390
-390
-390
-389
-389
-389
-389
-390
-390
-391
-391
-390
-390
-390
-390
-390
-390
-390
-390
-390
-391
-391
-391
-391
-391
-390
-390
-390
-391
-391
-390
-391
-391
-390
-390
-390
-391
-390
-390
-390
-390
-391
-391
-391
-391
-391
-391
-391
-391
-391
-391
-391
-391
-391
-391
-391
-391
-391
-390
-390
-389
-389
-389
-388
-388
-388
-387
-387
-387
-386
-386
-386
-385
-384
-384
-382
-383
-382
-382
-382
-382
-381
-381
-380
-379
-379
-379
-379
-379
-379
-379
-378
-378
-378
-377
-377
-378
-377
-378
-378
-378
-378
-378
-379
-380
-380
-381
-381
-381
-383
-384
-384
-384
-384
-385
-385
-386
-386
-386
-387
-387
-386
-386
-386
-387
-386
-387
-387
-387
-386
-386
-386
-387
-386
-386
-386
-386
-386
-386
-386
-387
-386
-387
-386
-387
-387
-386
-386
-387
-387
-387
-387
-387
-386
-386
-386
-386
-386
-386
-386
-386
-386
-387
-387
-387
-387
-387
-387
-387
-387
-387
-387
-387
-388
-387
-387
-387
-387
-387
-387
-388
-388
-387
-387
-389
-389
-389
-389
-389
-389
-390
-390
-389
-388
-389
-389
-389
-388
-389
-389
-389
-388
-388
-388
-388
-388
-388
-388
-388
-387
-387
-387
-387
-387
-387
-387
-387
-387
-387
-387
-387
-386
-386
-387
-387
-387
-387
-387
-385
-386
-386
-386
-386
-384
-384
-383
-382
-382
-381
-380
-379
-377
-376
-374
-372
-369
-367
-364
-361
-357
-353
-351
-347
-345
-342
-340
-338
-336
-334
-332
-331
-330
-329
-329
-330
-329
-331
-331
-332
-334
-335
-337
-339
-341
-343
-348
-354
-359
-366
-374
-382
-393
-402
-414
-426
-438
-452
-466
-480
-494
-508
-523
-535
-548
-558
-569
-577
-584
-590
-594
-595
-596
-595
-594
-590
-586
-580
-574
-567
-559
-551
-542
-533
-523
-515
-506
-497
-488
-480
-472
-464
-457
-449
-442
-435
-429
-424
-419
-414
-409
-404
-401
-397
-394
-390
-387
-384
-382
-380
-377
-376
-375
-372
-371
-370
-369
-368
-366
-366
-365
-365
-364
-363
-362
-361
-361
-361
-361
-361
-360
-360
-359
-359
-359
-359
-359
-358
-358
-358
-358
-358
-357
-357
-357
-358
-357
-357
-357
-357
-357
-357
-355
-355
-355
-356
-355
-355
-355
-355
-354
-355
-355
-354
-354
-353
-354
-353
-354
-354
-353
-353
-353
-353
-353
-354
-354
-354
-354
-354
-354
-354
-354
-353
-353
-352
-353
-352
-352
-352
-352
-351
-351
-351
-351
-351
-351
-350
-350
-350
-350
-351
-350
-350
-349
-349
-349
-349
-349
-349
-349
-349
-349
-348
-348
-348
-347
-347
-347
-348
-348
-348
-348
-348
-348
-348
-348
-348
-348
-347
-347
-347
-347
-347
-347
-347
-347
-347
-347
-347
-346
-346
-347
-345
-345
-344
-345
-344
-344
-344
-344
-344
-343
-343
-343
-343
-343
-343
-342
-342
-342
-342
-341
-341
-341
-341
-341
-341
-341
-341
-341
-339
-339
-339
-338
-338
-338
-338
-337
-337
-336
-336
-336
-335
-334
-334
-333
-332
-332
-332
-332
-331
-331
-331
-330
-330
-330
-329
-329
-329
-329
-329
-329
-328
-328
-327
-327
-326
-326
-326
-325
-325
-324
-323
-323
-322
-322
-321
-321
-320
-319
-319
-319
-317
-316
-315
-315
-315
-314
-314
-313
-313
-312
-311
-311
-311
-310
-310
-309
-309
-308
-308
-307
-307
-307
-306
-306
-306
-305
-304
-304
-304
-303
-304
-304
-303
-303
-302
-303
-302
-302
-302
-302
-301
-301
-300
-300
-300
-301
-301
-301
-301
-301
-300
-301
-300
-301
-301
-301
-302
-301
-302
-302
-303
-302
-303
-304
-305
-306
-306
-307
-307
-307
-308
-310
-310
-311
-312
-312
-313
-314
-315
-316
-316
-316
-317
-318
-319
-319
-320
-321
-322
-322
-324
-324
-325
-326
-327
-327
-329
-329
-331
-331
-332
-332
-333
-334
-335
-336
-338
-338
-339
-340
-341
-342
-342
-344
-344
-346
-346
-347
-347
-348
-348
-349
-349
-350
-351
-351
-352
-352
-353
-353
-354
-354
-354
-356
-356
-356
-356
-357
-358
-358
-358
-359
-360
-360
-361
-361
-361
-362
-362
-362
-363
-363
-363
-363
-364
-364
-365
-365
-365
-366
-364
-364
-365
-365
-366
-365
-366
-366
-366
-366
-366
-366
-366
-366
-367
-367
-367
-367
-367
-367
-367
-367
-367
-367
-367
-367
-367
-368
-367
-367
-368
-368
-368
-368
-368
-368
-369
-369
-369
-369
-369
-368
-368
-369
-368
-368
-368
-368
-369
-369
-368
-368
-368
-368
-369
-368
-368
-369
-369
-369
-369
-369
-369
-370
-369
-369
-369
-369
-368
-368
-368
-368
-368
-368
-369
-368
-368
-368
-368
-368
-367
-366
-365
-365
-365
-365
-365
-364
-364
-365
-364
-363
-363
-363
-363
-363
-363
-363
-362
-362
-362
-362
-362
-362
-361
-361
-361
-361
-361
-360
-360
-360
-360
-359
-359
-359
-359
-358
-359
-358
-357
-357
-356
-356
-356
-356
-356
-356
-355
-355
-355
-355
-354
-354
-354
-354
-354
-354
-354
-354
-354
-354
-354
-354
-354
-354
-353
-353
-353
-353
-353
-353
-353
-353
-353
-353
-352
-352
-352
-352
-351
-350
-351
-350
-350
-349
-349
-349
-350
-349
-349
-349
-349
-349
-349
-349
-349
-349
-349
-348
-349
-349
-349
-349
-349
-349
-350
-350
-350
-350
-350
-351
-350
-350
-350
-351
-351
-352
-352
-351
-351
-350
-351
-351
-350
-351
-351
-350
-350
-351
-351
-351
-351
-351
-351
-351
-351
-351
-351
-351
-351
-351
-352
-352
-352
-351
-351
-351
-352
-352
-352
-352
-352
-353
-353
-353
-353
-353
-354
-354
-353
-353
-353
-353
-353
-353
-352
-353
-353
-353
-353
-353
-353
-353
-353
-353
-353
-353
-353
-353
-353
-353
-353
-352
-352
-352
-353
-353
-353
-353
-353
-353
-353
-353
-353
-354
-354
-354
-353
-354
-354
-353
-354
-354
-353
-353
-353
-354
-353
-353
-353
-353
-353
-353
-353
-353
-353
-353
-353
-353
-353
-353
-353
-353
-353
-353
-352
-352
-352
-352
-352
-351
-351
-350
-350
-350
-350
-350
-349
-348
-347
-347
-346
-346
-345
-345
-345
-344
-344
-344
-343
-343
-342
-342
-342
-341
-341
-340
-341
-341
-341
-340
-340
-340
-339
-340
-340
-339
-340
-340
-341
-340
-341
-341
-341
-341
-342
-342
-343
-344
-344
-344
-343
-344
-345
-345
-346
-346
-346
-346
-347
-347
-347
-347
-347
-347
-346
-347
-347
-347
-347
-346
-346
-346
-346
-346
-346
-346
-346
-346
-346
-346
-346
-346
-346
-346
-346
-347
-346
-346
-346
-345
-346
-345
-347
-346
-347
-347
-347
-346
-346
-346
-346
-347
-347
-347
-347
-348
-348
-347
-348
-347
-347
-348
-348
-348
-348
-348
-348
-348
-348
-350
-350
-350
-350
-350
-350
-350
-350
-350
-350
-351
-350
-350
-350
-350
-350
-350
-350
-350
-350
-350
-351
-351
-350
-350
-350
-350
-350
-350
-349
-349
-350
-350
-350
-349
-349
-350
-349
-349
-350
-349
-349
-349
-349
-349
-349
-350
-349
-349
-349
-348
-347
-347
-346
-346
-346
-345
-344
-343
-343
-341
-340
-338
-337
-334
-332
-328
-325
-322
-319
-315
-313
-310
-306
-304
-301
-299
-295
-294
-292
-289
-288
-286
-285
-284
-284
-283
-283
-281
-281
-280
-280
-281
-282
-285
-288
-292
-297
-303
-310
-319
-329
-340
-351
-364
-378
-393
-408
-423
-438
-453
-468
-483
-495
-508
-519
-529
-537
-543
-547
-549
-551
-551
-549
-546
-542
-537
-530
-523
-515
-507
-499
-490
-481
-473
-463
-456
-447
-439
-431
-423
-416
-409
-404
-397
-392
-386
-381
-376
-371
-367
-364
-360
-356
-353
-351
-348
-345
-343
-340
-339
-337
-335
-334
-332
-331
-330
-330
-329
-327
-327
-326
-326
-326
-325
-325
-324
-324
-324
-325
-324
-324
-324
-324
-324
-324
-324
-323
-323
-323
-323
-323
-322
-322
-322
-321
-321
-321
-321
-321
-321
-321
-321
-321
-321
-321
-320
-320
-320
-320
-319
-319
-319
-319
-319
-319
-319
-318
-318
-318
-318
-317
-317
-317
-317
-317
-318
-318
-318
-318
-317
-317
-317
-317
-317
-316
-316
-316
-316
-316
-316
-316
-316
-316
-316
-316
-316
-316
-316
-316
-315
-314
-315
-314
-314
-314
-314
-314
-313
-313
-313
-313
-313
-313
-313
-313
-312
-312
-312
-312
-312
-312
-312
-312
-312
-311
-311
-311
-311
-311
-311
-311
-311
-311
-311
-311
-311
-311
-311
-310
-310
-309
-309
-309
-309
-309
-309
-308
-308
-308
-307
-307
-307
-307
-306
-306
-306
-306
-306
-306
-305
-305
-305
-305
-305
-305
-303
-303
-303
-303
-303
-302
-302
-301
-301
-301
-302
-301
-301
-301
-299
-299
-299
-299
-299
-298
-298
-297
-297
-297
-296
-296
-296
-296
-295
-295
-294
-294
-293
-293
-292
-292
-291
-291
-290
-289
-289
-289
-289
-287
-287
-287
-287
-287
-287
-286
-286
-286
-285
-284
-283
-282
-282
-282
-282
-281
-280
-280
-280
-278
-278
-278
-277
-276
-276
-275
-275
-275
-273
-273
-272
-272
-272
-270
-270
-270
-269
-269
-269
-268
-268
-268
-268
-268
-267
-267
-268
-268
-268
-267
-266
-265
-265
-265
-265
-264
-265
-264
-264
-265
-264
-264
-264
-265
-265
-265
-264
-265
-265
-265
-265
-266
-265
-266
-266
-267
-268
-267
-268
-269
-270
-270
-271
-272
-272
-273
-274
-275
-275
-276
-276
-276
-277
-278
-279
-279
-280
-281
-282
-282
-283
-283
-285
-285
-286
-287
-287
-289
-289
-291
-291
-291
-292
-294
-294
-295
-296
-296
-297
-298
-299
-300
-301
-302
-302
-303
-305
-306
-307
-307
-308
-307
-309
-310
-310
-312
-312
-312
-313
-314
-315
-315
-315
-316
-316
-318
-318
-319
-319
-319
-319
-320
-320
-320
-321
-321
-322
-322
-322
-322
-322
-323
-323
-324
-324
-324
-325
-325
-325
-325
-324
-325
-325
-325
-325
-325
-325
-326
-325
-325
-325
-326
-326
-326
-326
-326
-327
-327
-327
-327
-328
-328
-327
-328
-328
-329
-329
-329
-329
-329
-329
-329
-329
-329
-330
-330
-330
-330
-330
-329
-329
-329
-329
-329
-329
-330
-330
-329
-329
-329
-329
-329
-329
-329
-329
-330
-330
-330
-330
-330
-330
-330
-329
-329
-329
-330
-330
-329
-329
-329
-329
-329
-329
-329
-329
-329
-329
-329
-329
-328
-328
-327
-327
-327
-327
-327
-326
-326
-327
-326
-326
-326
-325
-325
-325
-325
-325
-325
-325
-325
-325
-324
-324
-324
-324
-324
-324
-323
-323
-323
-323
-323
-323
-323
-323
-322
-322
-322
-321
-320
-320
-320
-320
-320
-319
-319
-318
-319
-318
-318
-318
-318
-318
-318
-318
-317
-316
-316
-316
-316
-316
-316
-316
-315
-315
-315
-315
-315
-315
-314
-314
-314
-314
-314
-314
-314
-313
-313
-312
-312
-312
-312
-312
-311
-311
-311
-311
-311
-311
-310
-310
-310
-310
-310
-310
-311
-311
-311
-311
-311
-311
-311
-311
-311
-311
-311
-311
-311
-311
-311
-311
-312
-312
-312
-312
-311
-312
-312
-311
-311
-311
-310
-310
-311
-310
-310
-310
-311
-310
-310
-310
-310
-310
-310
-310
-310
-310
-311
-311
-311
-311
-311
-311
-311
-311
-312
-312
-312
-311
-311
-311
-311
-312
-312
-312
-311
-312
-312
-312
-312
-311
-311
-311
-311
-312
-312
-312
-312
-312
-312
-312
-312
-312
-312
-312
-312
-312
-313
-313
-313
-313
-313
-313
-313
-314
-314
-314
-314
-314
-314
-313
-313
-313
-313
-313
-313
-313
-314
-314
-313
-313
-313
-313
-313
-313
-313
-313
-312
-313
-313
-313
-313
-313
-312
-313
-313
-313
-313
-313
-313
-313
-313
-314
-314
-314
-314
-314
-314
-314
-313
-314
-314
-314
-314
-314
-314
-314
-314
-314
-313
-313
-313
-312
-312
-313
-313
-312
-312
-312
-312
-312
-312
-312
-312
-312
-312
-312
-312
-311
-311
-311
-311
-311
-311
-311
-311
-311
-310
-311
-310
-310
-309
-309
-309
-308
-308
-308
-307
-306
-305
-304
-304
-303
-304
-303
-303
-303
-301
-301
-301
-301
-300
-300
-300
-300
-300
-300
-299
-300
-300
-300
-300
-299
-300
-300
-301
-300
-301
-301
-301
-301
-302
-302
-303
-304
-304
-305
-306
-306
-306
-306
-306
-306
-306
-307
-307
-306
-307
-307
-307
-307
-307
-306
-307
-306
-306
-306
-306
-306
-306
-305
-305
-305
-305
-305
-305
-305
-306
-306
-306
-306
-307
-307
-307
-307
-307
-307
-308
-307
-307
-306
-306
-306
-307
-307
-307
-307
-307
-307
-307
-307
-307
-307
-307
-307
-308
-308
-308
-309
-309
-309
-309
-310
-310
-310
-310
-310
-311
-311
-311
-311
-312
-312
-312
-312
-312
-312
-312
-311
-311
-311
-311
-311
-311
-310
-310
-310
-311
-310
-310
-310
-310
-310
-309
-309
-309
-309
-309
-309
-309
-309
-309
-309
-309
-309
-309
-309
-309
-310
-310
-309
-309
-309
-309
-309
-309
-309
-309
-308
-307
-306
-306
-305
-304
-303
-302
-300
-298
-296
-293
-291
-288
-285
-282
-278
-274
-271
-268
-265
-263
-260
-257
-254
-251
-248
-247
-243
-242
-240
-238
-235
-234
-232
-230
-228
-227
-227
-226
-226
-228
-230
-235
-239
-245
-253
-262
-272
-283
-297
-310
-325
-340
-356
-372
-389
-405
-421
-435
-449
-462
-472
-483
-491
-496
-501
-503
-504
-503
-501
-498
-493
-487
-481
-474
-466
-458
-451
-441
-433
-424
-415
-406
-399
-390
-383
-376
-370
-363
-357
-351
-346
-341
-336
-332
-328
-324
-321
-317
-313
-310
-308
-306
-304
-302
-300
-298
-297
-295
-293
-292
-292
-291
-290
-290
-289
-289
-289
-289
-288
-287
-287
-286
-286
-286
-286
-286
-286
-285
-285
-285
-285
-285
-285
-284
-284
-284
-284
-284
-284
-284
-284
-284
-284
-284
-284
-283
-283
-283
-283
-283
-282
-282
-282
-282
-282
-282
-281
-281
-281
-281
-280
-279
-279
-280
-280
-279
-279
-279
-279
-279
-279
-279
-279
-279
-279
-279
-279
-279
-279
-279
-279
-278
-278
-278
-279
-279
-279
-278
-278
-279
-279
-279
-279
-279
-279
-279
-278
-278
-278
-277
-276
-276
-276
-276
-277
-277
-276
-276
-276
-276
-276
-276
-276
-276
-275
-275
-275
-275
-275
-275
-275
-275
-276
-276
-275
-275
-275
-275
-275
-275
-275
-275
-274
-274
-274
-274
-274
-274
-274
-273
-273
-273
-272
-272
-273
-272
-272
-271
-271
-271
-271
-271
-271
-271
-270
-270
-270
-270
-269
-269
-268
-269
-269
-269
-268
-268
-268
-268
-268
-267
-267
-267
-267
-267
-267
-267
-266
-266
-265
-264
-264
-263
-263
-263
-262
-262
-261
-261
-260
-260
-260
-260
-259
-259
-259
-258
-258
-257
-257
-256
-256
-255
-255
-255
-255
-253
-253
-253
-252
-252
-252
-251
-251
-251
-249
-250
-249
-249
-248
-247
-246
-246
-245
-245
-244
-244
-243
-243
-242
-242
-241
-241
-241
-240
-239
-239
-239
-238
-238
-238
-237
-237
-237
-236
-236
-235
-235
-235
-234
-234
-234
-233
-234
-234
-233
-234
-234
-234
-233
-232
-232
-232
-231
-232
-232
-232
-233
-232
-232
-233
-232
-233
-233
-233
-233
-234
-233
-234
-234
-235
-235
-235
-235
-236
-237
-236
-237
-238
-239
-239
-240
-239
-240
-241
-242
-242
-243
-244
-244
-245
-245
-246
-247
-248
-249
-249
-250
-251
-252
-253
-254
-254
-255
-256
-257
-257
-258
-259
-260
-260
-261
-262
-263
-264
-264
-265
-266
-266
-267
-268
-269
-270
-271
-271
-273
-273
-274
-276
-275
-276
-276
-277
-278
-279
-279
-279
-281
-281
-282
-282
-282
-284
-284
-284
-285
-286
-286
-286
-287
-288
-288
-289
-289
-289
-290
-290
-290
-291
-291
-292
-292
-292
-293
-294
-294
-293
-294
-294
-295
-294
-295
-295
-295
-295
-295
-295
-295
-296
-296
-296
-296
-296
-296
-296
-297
-297
-297
-297
-297
-298
-298
-298
-298
-298
-298
-298
-298
-298
-298
-299
-299
-299
-299
-299
-299
-299
-299
-300
-299
-299
-299
-298
-299
-299
-299
-300
-300
-300
-300
-300
-300
-299
-299
-300
-300
-300
-299
-299
-299
-299
-299
-299
-299
-299
-299
-299
-298
-298
-298
-298
-298
-298
-298
-298
-298
-298
-298
-298
-298
-298
-297
-297
-297
-296
-296
-296
-296
-296
-295
-295
-295
-296
-296
-296
-296
-295
-295
-295
-295
-295
-294
-295
-295
-294
-294
-294
-294
-293
-293
-293
-293
-293
-293
-293
-293
-293
-293
-292
-291
-291
-291
-291
-290
-290
-290
-290
-289
-289
-288
-288
-288
-288
-288
-288
-288
-288
-288
-287
-287
-287
-287
-287
-287
-287
-287
-287
-287
-287
-287
-286
-286
-286
-286
-285
-285
-285
-286
-286
-285
-284
-284
-283
-283
-283
-283
-283
-283
-283
-283
-283
-283
-283
-283
-283
-283
-282
-283
-283
-283
-283
-283
-283
-283
-283
-284
-284
-284
-284
-284
-284
-283
-283
-283
-283
-284
-284
-285
-284
-285
-284
-284
-284
-284
-283
-284
-284
-284
-284
-284
-284
-285
-285
-285
-285
-285
-285
-285
-285
-285
-285
-285
-285
-285
-285
-285
-285
-285
-285
-284
-285
-285
-285
-285
-285
-285
-286
-286
-286
-286
-286
-285
-285
-285
-285
-285
-285
-285
-286
-286
-286
-286
-286
-287
-287
-287
-287
-287
-286
-287
-288
-287
-288
-288
-287
-287
-287
-287
-287
-287
-287
-288
-288
-288
-288
-288
-287
-288
-287
-288
-287
-287
-287
-286
-287
-287
-287
-286
-287
-287
-287
-287
-287
-287
-287
-288
-287
-287
-287
-287
-287
-287
-287
-288
-288
-288
-288
-288
-288
-289
-289
-288
-288
-288
-289
-289
-289
-289
-289
-289
-288
-287
-287
-288
-288
-288
-288
-287
-288
-288
-287
-287
-288
-288
-288
-288
-287
-288
-288
-288
-288
-288
-287
-287
-288
-288
-288
-288
-288
-288
-287
-287
-287
-287
-286
-286
-286
-286
-286
-285
-284
-283
-282
-283
-282
-281
-281
-280
-280
-280
-279
-279
-278
-278
-278
-277
-277
-277
-277
-277
-277
-277
-276
-276
-276
-277
-276
-276
-276
-277
-276
-277
-278
-277
-278
-279
-278
-279
-279
-279
-279
-280
-280
-281
-282
-282
-283
-283
-284
-284
-283
-284
-284
-284
-284
-284
-284
-285
-284
-285
-284
-283
-283
-283
-283
-282
-283
-283
-283
-283
-283
-283
-283
-284
-283
-283
-284
-284
-284
-284
-284
-283
-284
-284
-285
-285
-284
-284
-285
-285
-285
-285
-286
-285
-286
-285
-286
-286
-286
-286
-287
-287
-287
-287
-288
-287
-288
-288
-288
-288
-289
-289
-289
-289
-289
-290
-291
-290
-291
-290
-290
-290
-290
-290
-290
-290
-290
-291
-291
-290
-290
-290
-290
-290
-290
-291
-291
-291
-290
-290
-290
-291
-291
-290
-290
-290
-290
-290
-291
-290
-291
-291
-291
-292
-292
-291
-292
-292
-291
-290
-290
-290
-290
-290
-290
-290
-289
-288
-287
-287
-287
-286
-285
-283
-282
-280
-278
-275
-272
-269
-266
-262
-259
-256
-252
-249
-246
-242
-239
-236
-233
-230
-227
-224
-221
-219
-216
-214
-211
-209
-205
-202
-200
-199
-197
-197
-197
-199
-201
-205
-211
-218
-225
-235
-245
-258
-271
-286
-301
-317
-335
-352
-369
-385
-402
-417
-432
-445
-456
-466
-475
-480
-484
-486
-487
-487
-485
-481
-477
-471
-464
-456
-448
-440
-432
-424
-415
-406
-398
-389
-381
-374
-367
-360
-353
-347
-341
-336
-332
-326
-321
-318
-313
-310
-306
-303
-300
-297
-294
-292
-290
-287
-286
-284
-282
-281
-280
-279
-278
-277
-275
-274
-274
-274
-274
-273
-273
-272
-273
-273
-272
-272
-272
-272
-272
-271
-271
-271
-271
-271
-270
-270
-270
-269
-269
-269
-269
-269
-268
-268
-268
-268
-268
-268
-268
-268
-268
-267
-267
-267
-266
-266
-266
-266
-266
-266
-266
-266
-265
-265
-265
-266
-266
-266
-266
-265
-265
-265
-265
-266
-266
-266
-266
-266
-265
-265
-265
-265
-265
-265
-265
-265
-265
-265
-265
-265
-265
-265
-265
-265
-265
-264
-264
-264
-265
-264
-264
-264
-263
-263
-263
-263
-263
-263
-263
-263
-263
-263
-263
-263
-262
-262
-262
-262
-262
-262
-261
-261
-262
-262
-261
-261
-261
-261
-260
-261
-261
-260
-260
-260
-259
-259
-258
-258
-258
-258
-258
-258
-258
-258
-258
-257
-257
-257
-257
-257
-257
-257
-257
-257
-257
-257
-257
-257
-257
-257
-256
-256
-256
-256
-256
-256
-256
-256
-256
-256
-255
-255
-254
-254
-253
-253
-252
-252
-251
-251
-251
-251
-251
-250
-250
-250
-250
-249
-249
-249
-249
-249
-248
-248
-247
-247
-246
-246
-246
-245
-245
-245
-244
-244
-243
-243
-243
-243
-241
-241
-241
-241
-240
-239
-237
-237
-236
-235
-235
-234
-234
-233
-232
-232
-232
-231
-231
-230
-230
-230
-230
-229
-228
-228
-228
-227
-227
-227
-227
-226
-226
-226
-225
-225
-225
-225
-224
-224
-223
-224
-223
-222
-222
-222
-221
-220
-220
-220
-219
-220
-219
-219
-219
-219
-219
-219
-220
-219
-220
-219
-220
-220
-220
-221
-221
-221
-221
-221
-221
-222
-223
-222
-223
-224
-224
-225
-224
-225
-226
-226
-227
-228
-228
-228
-229
-229
-229
-230
-231
-231
-232
-233
-233
-234
-234
-236
-236
-237
-237
-238
-239
-240
-241
-241
-242
-243
-243
-245
-245
-246
-247
-247
-248
-249
-250
-251
-252
-253
-253
-254
-256
-257
-257
-257
-258
-258
-258
-260
-261
-261
-262
-263
-263
-264
-265
-266
-266
-267
-267
-268
-268
-269
-269
-270
-270
-271
-271
-271
-272
-273
-273
-273
-274
-274
-275
-275
-276
-277
-277
-277
-277
-278
-278
-278
-278
-278
-278
-278
-279
-279
-279
-279
-280
-280
-280
-280
-280
-280
-280
-280
-281
-282
-282
-282
-282
-282
-282
-282
-282
-282
-282
-282
-282
-283
-283
-283
-283
-283
-283
-284
-284
-284
-283
-283
-284
-283
-283
-284
-284
-283
-283
-284
-284
-284
-284
-284
-284
-284
-284
-284
-284
-284
-284
-284
-284
-284
-284
-284
-285
-285
-284
-284
-284
-284
-284
-284
-285
-285
-285
-285
-285
-285
-285
-285
-284
-283
-283
-283
-283
-283
-283
-283
-282
-282
-282
-282
-282
-281
-282
-282
-282
-281
-281
-281
-281
-281
-281
-281
-281
-280
-281
-280
-280
-280
-280
-280
-279
-280
-280
-280
-280
-279
-279
-278
-278
-277
-277
-277
-277
-277
-277
-276
-276
-276
-276
-276
-276
-276
-275
-275
-275
-274
-274
-274
-274
-274
-274
-274
-274
-274
-274
-273
-273
-273
-273
-274
-274
-274
-274
-273
-274
-273
-273
-273
-272
-272
-272
-272
-272
-273
-273
-272
-271
-271
-271
-271
-272
-271
-271
-270
-271
-269
-270
-270
-270
-269
-269
-270
-269
-269
-269
-269
-269
-269
-270
-270
-270
-270
-271
-270
-271
-271
-271
-271
-271
-271
-270
-271
-271
-272
-271
-271
-271
-271
-271
-271
-271
-272
-272
-272
-271
-271
-271
-271
-271
-271
-271
-272
-272
-271
-272
-272
-272
-272
-272
-272
-273
-273
-273
-273
-273
-273
-273
-272
-272
-272
-272
-272
-272
-272
-272
-272
-272
-272
-272
-272
-272
-272
-273
-273
-273
-273
-273
-272
-272
-272
-272
-272
-273
-273
-273
-274
-274
-274
-274
-274
-274
-274
-274
-274
-275
-275
-275
-274
-275
-274
-274
-275
-274
-274
-274
-274
-274
-274
-274
-274
-274
-274
-274
-274
-274
-274
-274
-274
-274
-274
-274
-275
-275
-275
-275
-275
-275
-275
-275
-275
-275
-275
-275
-274
-275
-276
-275
-275
-274
-274
-274
-275
-274
-274
-274
-274
-273
-273
-273
-274
-273
-273
-273
-272
-272
-272
-271
-271
-270
-269
-269
-268
-268
-267
-267
-267
-267
-266
-266
-265
-265
-265
-264
-264
-264
-264
-264
-263
-264
-264
-263
-263
-264
-264
-264
-264
-264
-264
-265
-264
-265
-266
-265
-266
-267
-266
-267
-267
-268
-267
-268
-269
-269
-270
-269
-270
-270
-270
-271
-271
-271
-271
-271
-272
-272
-272
-272
-272
-271
-272
-272
-272
-272
-271
-271
-271
-271
-272
-272
-272
-272
-272
-271
-272
-272
-272
-272
-272
-273
-272
-272
-272
-273
-274
-274
-274
-274
-274
-274
-274
-274
-275
-275
-275
-275
-275
-275
-275
-274
-275
-274
-274
-275
-275
-276
-276
-276
-276
-276
-276
-276
-276
-277
-277
-278
-277
-277
-277
-278
-277
-277
-277
-277
-277
-277
-277
-277
-277
-278
-278
-278
-278
-278
-278
-278
-279
-278
-278
-277
-277
-277
-277
-277
-277
-277
-277
-277
-277
-277
-277
-277
-277
-277
-277
-277
-277
-277
-277
-277
-277
-276
-277
-277
-276
-275
-274
-274
-273
-273
-272
-270
-269
-267
-264
-262
-260
-256
-253
-249
-244
-241
-238
-235
-232
-230
-227
-224
-221
-218
-216
-214
-212
-211
-209
-207
-206
-206
-205
-204
-204
-203
-204
-206
-208
-211
-216
-221
-228
-235
-244
-254
-265
-278
-291
-305
-321
-336
-351
-367
-383
-399
-413
-428
-441
-453
-462
-471
-478
-483
-485
-487
-487
-486
-483
-479
-473
-467
-460
-452
-444
-436
-426
-417
-408
-400
-391
-382
-374
-365
-357
-350
-343
-336
-330
-324
-319
-313
-309
-303
-299
-295
-291
-288
-285
-282
-279
-277
-274
-272
-270
-268
-267
-265
-263
-262
-262
-261
-260
-259
-259
-258
-258
-257
-257
-257
-256
-256
-256
-256
-256
-256
-256
-256
-255
-255
-255
-256
-254
-254
-253
-253
-253
-253
-252
-252
-252
-252
-251
-251
-251
-250
-250
-250
-250
-250
-250
-250
-250
-250
-249
-249
-249
-250
-250
-250
-250
-250
-250
-250
-250
-250
-249
-249
-250
-249
-249
-250
-249
-249
-249
-249
-249
-249
-249
-249
-249
-249
-249
-249
-249
-250
-250
-250
-249
-249
-249
-249
-249
-249
-249
-249
-248
-248
-248
-248
-248
-248
-248
-248
-248
-248
-248
-248
-248
-248
-249
-248
-247
-247
-247
-246
-246
-247
-247
-246
-246
-246
-246
-245
-245
-245
-245
-245
-245
-245
-245
-244
-244
-244
-244
-244
-244
-245
-245
-245
-244
-244
-244
-244
-244
-245
-245
-244
-244
-244
-244
-244
-243
-243
-243
-242
-242
-243
-243
-242
-242
-242
-242
-242
-241
-242
-242
-241
-241
-240
-240
-240
-240
-240
-240
-239
-239
-238
-238
-238
-237
-237
-237
-236
-236
-235
-235
-235
-234
-234
-233
-233
-232
-231
-230
-230
-230
-230
-230
-228
-228
-228
-227
-227
-227
-226
-226
-226
-226
-226
-225
-224
-224
-223
-223
-223
-222
-222
-222
-220
-220
-220
-219
-219
-218
-218
-217
-217
-216
-216
-216
-215
-214
-214
-213
-213
-212
-212
-212
-211
-210
-210
-210
-209
-208
-208
-208
-209
-208
-208
-208
-207
-207
-207
-206
-207
-206
-206
-206
-206
-206
-206
-207
-206
-207
-208
-207
-208
-208
-209
-208
-208
-208
-208
-208
-209
-209
-210
-210
-210
-210
-210
-211
-212
-213
-212
-213
-214
-215
-216
-217
-218
-219
-219
-220
-221
-222
-223
-224
-225
-225
-226
-227
-228
-229
-230
-231
-231
-232
-233
-234
-235
-236
-235
-237
-238
-239
-240
-241
-241
-243
-243
-244
-245
-245
-247
-247
-249
-249
-250
-251
-252
-253
-253
-254
-254
-255
-256
-256
-258
-258
-259
-260
-260
-262
-262
-262
-263
-263
-265
-265
-265
-266
-266
-266
-267
-267
-267
-269
-269
-268
-269
-269
-270
-271
-271
-271
-271
-271
-272
-272
-272
-272
-273
-273
-273
-273
-274
-274
-274
-274
-275
-275
-275
-275
-275
-275
-275
-276
-277
-277
-276
-276
-276
-276
-276
-276
-276
-276
-277
-277
-277
-277
-277
-277
-278
-278
-278
-278
-278
-278
-278
-279
-279
-279
-279
-279
-280
-280
-280
-279
-280
-280
-280
-280
-280
-281
-281
-280
-281
-281
-280
-280
-280
-280
-279
-279
-280
-280
-279
-279
-279
-279
-279
-279
-280
-280
-280
-279
-279
-280
-280
-280
-280
-280
-280
-280
-280
-280
-279
-279
-279
-279
-279
-279
-279
-279
-279
-279
-279
-279
-278
-278
-278
-278
-277
-277
-277
-277
-277
-276
-275
-275
-275
-275
-275
-275
-274
-275
-275
-274
-274
-274
-273
-273
-273
-272
-272
-272
-272
-271
-271
-271
-271
-271
-271
-271
-270
-271
-270
-270
-270
-270
-269
-269
-269
-268
-268
-268
-268
-269
-268
-268
-268
-268
-268
-269
-268
-268
-268
-269
-268
-268
-268
-268
-268
-269
-269
-268
-268
-268
-268
-268
-268
-269
-269
-268
-268
-268
-268
-268
-267
-267
-267
-267
-267
-267
-267
-267
-267
-267
-267
-267
-267
-267
-267
-267
-267
-267
-267
-267
-267
-267
-268
-267
-267
-268
-268
-268
-268
-268
-268
-269
-269
-269
-269
-269
-269
-270
-269
-269
-269
-269
-269
-269
-269
-269
-270
-269
-269
-270
-269
-269
-269
-269
-270
-270
-270
-269
-270
-270
-270
-270
-270
-271
-271
-271
-271
-271
-271
-271
-271
-271
-272
-272
-272
-272
-272
-272
-272
-273
-272
-271
-271
-271
-271
-272
-272
-272
-272
-272
-271
-271
-272
-272
-272
-272
-272
-272
-272
-272
-272
-272
-272
-272
-271
-271
-272
-272
-271
-271
-271
-270
-270
-270
-270
-269
-268
-269
-268
-267
-267
-266
-266
-264
-265
-264
-264
-263
-263
-262
-262
-263
-263
-262
-262
-262
-261
-261
-262
-261
-261
-261
-261
-261
-261
-261
-261
-261
-261
-262
-262
-263
-263
-262
-263
-264
-264
-264
-266
-266
-266
-267
-266
-267
-267
-267
-268
-268
-268
-269
-269
-269
-269
-269
-269
-269
-269
-270
-270
-270
-270
-271
-270
-271
-271
-270
-270
-271
-271
-271
-271
-270
-271
-271
-272
-271
-271
-271
-271
-272
-271
-271
-270
-269
-270
-270
-270
-270
-270
-270
-270
-270
-270
-270
-271
-271
-270
-271
-271
-272
-272
-272
-272
-272
-273
-273
-273
-274
-274
-275
-275
-275
-275
-275
-275
-275
-276
-275
-276
-276
-276
-276
-275
-275
-275
-275
-275
-275
-275
-274
-274
-274
-274
-274
-274
-274
-274
-274
-274
-275
-274
-274
-274
-274
-274
-274
-274
-274
-274
-275
-275
-275
-275
-275
-275
-275
-275
-275
-276
-275
-275
-274
-273
-272
-271
-272
-271
-270
-268
-268
-266
-264
-262
-260
-258
-254
-252
-249
-245
-242
-239
-236
-234
-231
-229
-227
-224
-224
-221
-221
-219
-219
-218
-218
-219
-219
-220
-221
-222
-222
-223
-226
-228
-232
-236
-242
-248
-255
-263
-272
-282
-294
-305
-318
-332
-345
-360
-374
-389
-403
-417
-431
-443
-454
-464
-472
-480
-484
-488
-490
-491
-489
-486
-483
-478
-472
-465
-459
-451
-442
-433
-423
-415
-406
-397
-388
-380
-372
-364
-355
-349
-341
-335
-329
-323
-317
-312
-308
-303
-299
-295
-292
-288
-285
-282
-279
-276
-274
-271
-270
-268
-266
-265
-264
-263
-261
-261
-260
-259
-259
-257
-257
-256
-256
-256
-256
-256
-255
-255
-255
-255
-255
-255
-255
-255
-254
-254
-254
-254
-254
-254
-254
-254
-254
-254
-254
-254
-254
-254
-254
-254
-254
-254
-254
-253
-253
-253
-253
-253
-253
-253
-252
-252
-252
-252
-252
-252
-252
-252
-251
-251
-252
-252
-252
-252
-252
-253
-253
-252
-252
-253
-253
-253
-253
-253
-253
-252
-252
-252
-253
-253
-253
-253
-253
-253
-252
-252
-252
-252
-252
-252
-251
-251
-251
-250
-250
-250
-250
-250
-250
-250
-250
-250
-250
-250
-250
-250
-250
-250
-250
-250
-250
-250
-250
-250
-250
-251
-251
-251
-251
-251
-251
-250
-250
-250
-250
-250
-250
-251
-249
-250
-248
-249
-248
-248
-247
-247
-247
-247
-246
-246
-246
-246
-246
-246
-246
-246
-246
-246
-246
-246
-245
-245
-245
-245
-245
-245
-245
-245
-245
-244
-245
-245
-245
-245
-245
-243
-244
-244
-243
-242
-242
-241
-241
-241
-241
-241
-239
-239
-239
-239
-238
-237
-237
-236
-236
-236
-235
-235
-234
-233
-234
-233
-232
-232
-231
-231
-231
-230
-230
-229
-229
-229
-229
-227
-227
-227
-227
-226
-226
-225
-223
-223
-222
-222
-221
-221
-219
-219
-218
-218
-217
-217
-216
-216
-216
-215
-215
-214
-214
-214
-214
-213
-213
-213
-213
-213
-212
-212
-212
-212
-211
-211
-211
-211
-211
-210
-210
-210
-210
-210
-209
-208
-209
-208
-208
-208
-208
-207
-208
-208
-207
-208
-208
-208
-208
-209
-209
-209
-209
-210
-210
-210
-211
-212
-211
-212
-213
-213
-214
-215
-215
-216
-216
-217
-218
-218
-219
-220
-221
-221
-221
-222
-223
-224
-225
-226
-226
-227
-228
-229
-230
-231
-231
-233
-233
-234
-235
-236
-236
-237
-238
-239
-239
-241
-241
-241
-243
-243
-245
-245
-246
-248
-248
-249
-250
-251
-252
-253
-253
-254
-254
-254
-255
-256
-257
-257
-258
-258
-259
-259
-261
-261
-261
-262
-263
-263
-263
-264
-264
-264
-265
-265
-266
-266
-266
-267
-268
-268
-268
-268
-269
-270
-270
-270
-270
-271
-271
-271
-271
-271
-270
-270
-270
-270
-271
-271
-271
-271
-271
-271
-271
-272
-272
-272
-272
-273
-273
-273
-273
-273
-273
-273
-273
-273
-274
-274
-274
-274
-274
-274
-275
-275
-275
-275
-275
-275
-275
-275
-275
-274
-274
-275
-275
-275
-275
-275
-275
-274
-274
-274
-274
-274
-274
-274
-275
-275
-275
-275
-275
-275
-275
-275
-275
-275
-275
-275
-275
-275
-275
-275
-275
-275
-275
-274
-274
-274
-274
-275
-275
-274
-273
-273
-273
-273
-273
-273
-273
-272
-271
-271
-271
-271
-271
-271
-271
-271
-270
-270
-270
-270
-270
-270
-269
-269
-269
-269
-268
-269
-269
-268
-268
-268
-268
-267
-267
-267
-267
-266
-266
-265
-264
-265
-264
-263
-263
-263
-263
-262
-262
-262
-261
-261
-261
-261
-261
-261
-260
-260
-260
-260
-260
-260
-260
-260
-260
-259
-258
-259
-259
-259
-258
-258
-258
-257
-257
-258
-258
-258
-258
-257
-257
-257
-257
-257
-256
-257
-257
-257
-257
-256
-256
-256
-256
-256
-257
-257
-257
-257
-257
-257
-257
-256
-256
-256
-256
-256
-256
-256
-256
-256
-256
-257
-257
-257
-257
-256
-256
-257
-256
-256
-256
-255
-255
-256
-256
-256
-255
-256
-256
-256
-256
-256
-256
-256
-256
-256
-256
-257
-257
-257
-257
-258
-258
-258
-258
-259
-258
-258
-258
-258
-258
-259
-259
-259
-259
-259
-259
-259
-259
-260
-259
-259
-259
-259
-260
-260
-260
-260
-260
-260
-260
-260
-260
-260
-261
-261
-261
-261
-261
-262
-262
-262
-262
-262
-262
-262
-262
-262
-262
-262
-263
-263
-263
-263
-263
-263
-262
-263
-262
-261
-261
-261
-261
-261
-261
-261
-261
-261
-260
-260
-260
-260
-260
-260
-260
-260
-260
-261
-261
-261
-261
-261
-261
-261
-261
-261
-262
-262
-262
-262
-262
-262
-262
-262
-262
-262
-262
-262
-261
-261
-261
-260
-259
-260
-259
-258
-258
-258
-257
-257
-256
-256
-255
-255
-255
-254
-253
-253
-253
-253
-253
-253
-252
-252
-251
-251
-250
-250
-250
-250
-251
-250
-250
-250
-250
-250
-250
-250
-250
-250
-251
-250
-251
-251
-252
-252
-252
-253
-252
-253
-254
-254
-255
-254
-255
-256
-256
-257
-257
-257
-257
-257
-257
-257
-258
-257
-257
-257
-257
-257
-257
-257
-257
-257
-257
-257
-257
-257
-257
-257
-256
-256
-256
-256
-256
-256
-257
-257
-257
-257
-258
-258
-258
-258
-258
-258
-258
-258
-259
-259
-259
-259
-259
-259
-259
-259
-259
-259
-260
-260
-260
-260
-260
-260
-261
-261
-261
-261
-261
-261
-261
-260
-261
-261
-261
-262
-262
-261
-261
-262
-262
-262
-262
-262
-262
-263
-263
-263
-263
-264
-264
-264
-264
-264
-264
-264
-264
-264
-264
-264
-264
-265
-265
-264
-264
-264
-264
-264
-264
-264
-263
-262
-262
-262
-262
-262
-262
-262
-262
-262
-261
-261
-260
-261
-260
-260
-259
-258
-256
-255
-254
-252
-250
-248
-246
-243
-240
-236
-232
-229
-226
-223
-220
-217
-215
-212
-209
-208
-206
-203
-202
-199
-197
-196
-195
-193
-192
-191
-190
-189
-188
-189
-190
-192
-195
-199
-204
-210
-218
-226
-236
-246
-259
-271
-286
-300
-317
-332
-349
-364
-379
-394
-408
-420
-432
-442
-450
-456
-460
-463
-464
-463
-461
-459
-455
-449
-444
-436
-428
-420
-413
-404
-395
-387
-378
-370
-362
-354
-347
-339
-333
-326
-320
-314
-308
-303
-298
-293
-289
-285
-281
-278
-274
-271
-269
-266
-264
-261
-260
-257
-255
-253
-252
-251
-249
-249
-248
-247
-246
-246
-245
-245
-244
-245
-245
-244
-244
-244
-244
-244
-243
-243
-243
-243
-243
-243
-243
-243
-242
-242
-242
-242
-242
-242
-241
-242
-242
-242
-241
-241
-241
-240
-240
-240
-240
-240
-240
-240
-239
-239
-239
-239
-239
-239
-239
-239
-239
-238
-238
-239
-239
-238
-238
-238
-238
-238
-238
-238
-238
-238
-238
-238
-238
-238
-238
-237
-238
-238
-237
-237
-237
-236
-236
-237
-236
-236
-236
-236
-236
-236
-236
-236
-235
-235
-235
-235
-236
-236
-236
-236
-236
-235
-235
-235
-235
-235
-234
-235
-235
-235
-234
-234
-234
-234
-234
-235
-234
-235
-234
-233
-233
-233
-233
-233
-233
-233
-232
-232
-233
-232
-232
-232
-232
-231
-231
-231
-231
-231
-230
-230
-230
-229
-229
-230
-229
-229
-229
-229
-229
-229
-229
-229
-228
-228
-228
-228
-228
-229
-228
-227
-227
-227
-226
-226
-225
-225
-226
-225
-225
-225
-224
-224
-224
-223
-223
-223
-222
-222
-221
-221
-220
-220
-220
-219
-219
-219
-218
-218
-217
-217
-217
-216
-215
-215
-215
-215
-214
-214
-213
-212
-212
-211
-210
-210
-210
-208
-208
-207
-207
-206
-206
-206
-204
-204
-204
-203
-203
-203
-201
-201
-201
-199
-199
-199
-198
-198
-198
-196
-196
-196
-195
-195
-195
-195
-194
-193
-194
-193
-193
-192
-192
-191
-191
-191
-191
-191
-191
-191
-191
-191
-190
-190
-190
-190
-189
-190
-190
-189
-189
-189
-189
-189
-189
-188
-189
-188
-189
-189
-189
-190
-190
-190
-191
-191
-192
-192
-193
-193
-194
-193
-194
-194
-194
-195
-196
-197
-198
-199
-199
-200
-201
-201
-202
-202
-203
-204
-204
-206
-206
-207
-207
-208
-209
-209
-211
-211
-212
-213
-214
-214
-216
-216
-218
-218
-220
-220
-221
-222
-223
-224
-224
-224
-226
-227
-227
-228
-229
-230
-230
-231
-232
-233
-234
-234
-236
-236
-237
-238
-239
-239
-240
-240
-241
-242
-242
-243
-244
-244
-245
-245
-246
-247
-247
-247
-247
-248
-249
-250
-250
-250
-250
-251
-251
-251
-252
-252
-252
-253
-253
-253
-254
-254
-254
-254
-254
-254
-255
-255
-255
-255
-255
-255
-255
-256
-256
-256
-256
-256
-256
-257
-257
-257
-257
-257
-257
-258
-258
-259
-258
-257
-258
-257
-257
-258
-258
-258
-259
-259
-259
-259
-259
-259
-259
-259
-259
-259
-260
-260
-260
-260
-260
-260
-260
-260
-260
-260
-261
-261
-261
-261
-261
-261
-260
-260
-260
-261
-261
-261
-261
-260
-259
-260
-259
-259
-259
-260
-259
-259
-258
-258
-258
-258
-259
-259
-259
-258
-258
-258
-258
-258
-258
-258
-258
-258
-258
-258
-258
-257
-257
-257
-257
-257
-257
-257
-257
-257
-257
-257
-257
-255
-255
-255
-255
-254
-254
-254
-254
-254
-253
-253
-253
-252
-252
-253
-252
-252
-252
-252
-251
-251
-251
-252
-251
-251
-251
-251
-250
-251
-251
-250
-250
-250
-249
-249
-249
-250
-250
-250
-249
-249
-248
-247
-247
-248
-248
-247
-247
-247
-247
-247
-246
-246
-246
-247
-247
-247
-247
-246
-246
-246
-246
-246
-246
-246
-246
-246
-246
-247
-247
-247
-246
-246
-246
-246
-247
-247
-248
-248
-247
-247
-247
-246
-247
-247
-247
-247
-247
-247
-247
-247
-247
-247
-247
-247
-247
-247
-247
-247
-247
-247
-248
-248
-248
-248
-248
-249
-249
-249
-249
-249
-249
-249
-249
-250
-250
-250
-249
-249
-249
-249
-249
-249
-249
-249
-249
-249
-249
-249
-249
-249
-249
-249
-249
-249
-250
-250
-250
-250
-250
-250
-250
-250
-250
-251
-251
-251
-251
-251
-251
-251
-252
-252
-252
-251
-251
-251
-251
-252
-252
-252
-251
-251
-251
-251
-252
-252
-252
-252
-252
-252
-252
-252
-252
-252
-252
-252
-252
-252
-253
-252
-252
-252
-252
-252
-252
-252
-252
-252
-252
-252
-253
-253
-253
-253
-253
-254
-253
-253
-254
-253
-253
-253
-253
-252
-252
-252
-252
-252
-253
-253
-253
-253
-253
-253
-252
-252
-252
-253
-253
-253
-253
-253
-253
-253
-253
-253
-253
-253
-253
-253
-253
-253
-253
-253
-253
-253
-253
-253
-253
-252
-252
-251
-251
-251
-251
-250
-250
-250
-250
-249
-249
-248
-248
-247
-247
-246
-246
-245
-245
-244
-244
-243
-244
-244
-243
-243
-243
-242
-241
-242
-242
-241
-241
-241
-241
-241
-241
-241
-241
-241
-241
-240
-241
-242
-243
-243
-243
-243
-243
-244
-244
-245
-245
-245
-246
-247
-247
-247
-248
-248
-248
-248
-249
-249
-250
-250
-249
-250
-250
-250
-250
-250
-249
-249
-249
-249
-248
-248
-248
-248
-247
-247
-247
-246
-246
-247
-247
-246
-247
-247
-247
-247
-248
-248
-248
-248
-249
-249
-249
-249
-249
-250
-250
-250
-250
-251
-250
-251
-251
-251
-251
-251
-252
-252
-252
-251
-252
-253
-252
-252
-252
-251
-251
-252
-252
-252
-253
-253
-253
-253
-254
-254
-254
-254
-254
-255
-255
-255
-255
-255
-255
-255
-256
-256
-256
-256
-256
-256
-256
-255
-255
-256
-256
-256
-256
-256
-256
-257
-256
-255
-256
-255
-255
-255
-255
-256
-256
-256
-255
-255
-255
-255
-254
-255
-255
-254
-254
-254
-253
-252
-251
-251
-250
-249
-248
-246
-244
-242
-240
-237
-234
-231
-228
-225
-221
-218
-216
-212
-208
-205
-202
-199
-196
-194
-191
-189
-187
-184
-182
-180
-178
-176
-173
-171
-170
-168
-168
-168
-170
-172
-175
-179
-186
-192
-201
-211
-222
-234
-248
-262
-278
-294
-311
-328
-344
-360
-375
-389
-402
-413
-423
-431
-437
-443
-445
-447
-447
-445
-442
-438
-432
-426
-420
-411
-403
-395
-387
-379
-370
-362
-354
-346
-338
-331
-324
-318
-311
-305
-299
-294
-289
-285
-280
-276
-272
-269
-267
-263
-260
-257
-255
-252
-251
-248
-247
-246
-245
-243
-242
-241
-240
-240
-240
-239
-239
-238
-238
-237
-237
-236
-236
-236
-235
-235
-235
-235
-235
-235
-235
-234
-234
-234
-235
-234
-234
-233
-233
-233
-233
-232
-232
-231
-231
-232
-232
-231
-230
-230
-230
-230
-230
-230
-230
-230
-230
-230
-230
-230
-230
-230
-230
-230
-230
-230
-230
-230
-230
-230
-230
-230
-231
-231
-231
-231
-230
-230
-230
-230
-230
-229
-229
-228
-228
-227
-227
-227
-227
-227
-227
-226
-226
-226
-226
-226
-226
-225
-225
-226
-226
-226
-226
-226
-226
-226
-226
-227
-227
-227
-227
-227
-227
-226
-226
-226
-227
-226
-226
-226
-225
-224
-225
-224
-224
-224
-223
-223
-223
-223
-223
-223
-223
-223
-222
-222
-222
-222
-222
-222
-222
-222
-221
-221
-221
-221
-221
-220
-220
-220
-220
-220
-220
-220
-220
-220
-220
-219
-219
-219
-219
-219
-218
-217
-217
-217
-217
-216
-216
-216
-215
-215
-215
-215
-214
-214
-214
-214
-214
-214
-213
-213
-213
-213
-213
-212
-212
-211
-211
-211
-210
-210
-210
-210
-210
-209
-209
-209
-208
-208
-207
-207
-206
-205
-204
-204
-204
-204
-203
-202
-202
-202
-201
-201
-200
-200
-199
-199
-199
-197
-197
-197
-196
-196
-196
-195
-195
-194
-193
-193
-193
-192
-192
-191
-191
-191
-190
-190
-189
-189
-188
-187
-186
-186
-186
-185
-185
-184
-184
-184
-183
-183
-183
-182
-183
-183
-182
-183
-182
-182
-183
-183
-182
-183
-182
-182
-182
-182
-182
-182
-182
-182
-183
-183
-183
-184
-183
-184
-184
-184
-185
-184
-184
-185
-186
-186
-187
-187
-188
-188
-189
-188
-189
-190
-191
-191
-192
-193
-194
-195
-196
-196
-197
-197
-198
-199
-200
-200
-202
-202
-202
-203
-203
-205
-205
-206
-207
-207
-208
-208
-209
-209
-209
-210
-211
-211
-213
-213
-214
-214
-215
-217
-217
-218
-218
-220
-220
-221
-222
-223
-223
-225
-225
-226
-227
-227
-229
-229
-229
-230
-231
-231
-232
-232
-233
-234
-234
-234
-235
-236
-235
-235
-236
-236
-236
-237
-237
-238
-238
-238
-239
-239
-239
-240
-241
-241
-241
-242
-241
-242
-242
-242
-243
-243
-243
-244
-244
-244
-245
-246
-246
-246
-245
-246
-247
-247
-247
-247
-247
-247
-247
-247
-246
-246
-246
-247
-247
-247
-248
-248
-248
-248
-248
-248
-248
-248
-249
-249
-249
-250
-250
-250
-250
-250
-250
-250
-250
-250
-250
-250
-250
-250
-251
-250
-250
-250
-250
-250
-250
-250
-249
-249
-249
-249
-249
-249
-249
-249
-249
-249
-249
-248
-248
-248
-248
-248
-249
-249
-249
-248
-248
-248
-249
-249
-248
-249
-249
-249
-249
-249
-249
-249
-248
-248
-248
-248
-248
-248
-248
-248
-247
-247
-246
-246
-246
-246
-246
-246
-246
-245
-245
-245
-245
-245
-245
-245
-245
-245
-245
-245
-245
-245
-245
-245
-245
-245
-245
-245
-245
-245
-244
-244
-244
-244
-244
-244
-243
-243
-244
-243
-243
-242
-241
-241
-241
-241
-241
-241
-240
-240
-239
-239
-239
-239
-239
-239
-239
-239
-239
-239
-239
-239
-239
-240
-239
-239
-239
-239
-239
-239
-240
-240
-240
-240
-239
-239
-239
-240
-240
-240
-240
-239
-239
-238
-239
-239
-239
-239
-239
-239
-239
-239
-239
-239
-239
-239
-239
-239
-239
-239
-239
-239
-239
-239
-239
-239
-239
-239
-239
-240
-239
-239
-239
-240
-240
-240
-240
-240
-240
-241
-240
-241
-240
-241
-241
-241
-241
-241
-242
-242
-242
-242
-242
-242
-242
-242
-242
-242
-242
-242
-242
-242
-243
-243
-243
-243
-243
-243
-243
-242
-243
-243
-243
-243
-243
-243
-243
-244
-244
-244
-244
-243
-243
-243
-243
-243
-243
-243
-243
-244
-244
-244
-244
-244
-244
-244
-244
-245
-244
-244
-245
-245
-245
-245
-245
-245
-246
-246
-246
-246
-246
-245
-246
-246
-246
-246
-247
-246
-247
-247
-246
-246
-245
-246
-245
-246
-246
-245
-246
-246
-246
-246
-246
-246
-247
-246
-246
-246
-247
-247
-246
-247
-247
-247
-247
-247
-247
-247
-247
-247
-247
-247
-247
-247
-247
-247
-248
-248
-248
-247
-248
-247
-247
-247
-247
-247
-247
-247
-247
-247
-247
-246
-246
-246
-246
-246
-245
-245
-245
-245
-244
-244
-243
-243
-242
-242
-241
-241
-241
-241
-240
-239
-238
-239
-239
-238
-238
-237
-238
-237
-236
-236
-236
-236
-235
-235
-235
-236
-236
-235
-235
-235
-235
-235
-236
-236
-237
-236
-237
-238
-237
-238
-239
-239
-239
-240
-240
-241
-241
-241
-242
-242
-243
-243
-244
-243
-243
-243
-243
-243
-243
-243
-242
-242
-242
-242
-241
-241
-241
-242
-241
-241
-241
-241
-241
-241
-240
-240
-241
-242
-241
-242
-241
-242
-242
-242
-242
-243
-243
-243
-243
-244
-244
-244
-244
-244
-245
-245
-245
-245
-246
-245
-245
-244
-245
-245
-245
-245
-245
-245
-245
-247
-247
-247
-247
-247
-248
-248
-249
-249
-249
-248
-249
-249
-249
-249
-251
-251
-251
-250
-250
-251
-251
-251
-251
-251
-251
-251
-250
-250
-249
-249
-248
-248
-248
-249
-249
-249
-249
-248
-248
-248
-248
-248
-248
-249
-249
-249
-248
-248
-248
-248
-248
-248
-248
-248
-248
-248
-248
-247
-247
-246
-246
-245
-245
-244
-243
-241
-239
-237
-235
-231
-228
-224
-221
-218
-214
-211
-207
-204
-200
-197
-194
-190
-188
-185
-181
-178
-175
-172
-170
-167
-164
-162
-159
-156
-154
-153
-152
-151
-153
-155
-159
-164
-170
-178
-186
-198
-209
-222
-236
-251
-267
-284
-301
-318
-335
-353
-368
-382
-395
-408
-419
-428
-433
-439
-442
-443
-443
-442
-439
-434
-429
-423
-416
-408
-401
-392
-384
-375
-366
-359
-351
-343
-334
-327
-320
-313
-308
-301
-296
-289
-285
-279
-275
-271
-267
-264
-260
-256
-254
-251
-249
-246
-245
-242
-241
-240
-238
-237
-236
-235
-234
-233
-232
-232
-231
-231
-230
-230
-230
-230
-230
-229
-229
-229
-228
-229
-228
-228
-227
-227
-226
-226
-225
-226
-226
-226
-225
-225
-225
-225
-225
-224
-224
-224
-224
-224
-224
-225
-224
-224
-224
-224
-224
-224
-224
-224
-224
-224
-224
-224
-224
-224
-224
-224
-224
-223
-224
-225
-224
-223
-223
-223
-223
-223
-223
-223
-223
-224
-223
-223
-222
-223
-223
-223
-223
-223
-223
-223
-222
-222
-222
-222
-222
-222
-221
-221
-221
-221
-221
-221
-221
-221
-221
-221
-221
-221
-221
-221
-220
-220
-220
-220
-219
-220
-220
-220
-220
-220
-220
-220
-219
-219
-219
-219
-219
-220
-220
-219
-219
-219
-218
-218
-218
-218
-218
-218
-218
-218
-218
-218
-217
-217
-217
-217
-218
-218
-218
-218
-217
-216
-216
-216
-216
-216
-215
-215
-215
-215
-214
-214
-214
-213
-213
-213
-212
-213
-213
-212
-212
-211
-211
-211
-211
-211
-211
-211
-211
-210
-210
-209
-209
-209
-209
-209
-209
-208
-208
-207
-206
-205
-205
-204
-204
-203
-203
-203
-202
-201
-201
-201
-200
-200
-199
-199
-199
-199
-199
-198
-197
-197
-197
-197
-196
-196
-196
-195
-195
-194
-194
-194
-193
-193
-193
-193
-192
-192
-192
-190
-189
-189
-189
-188
-188
-188
-187
-187
-187
-186
-185
-185
-184
-184
-183
-184
-183
-183
-183
-183
-182
-182
-182
-182
-181
-182
-181
-182
-181
-181
-181
-182
-181
-182
-181
-182
-182
-182
-182
-182
-181
-181
-181
-181
-182
-181
-182
-183
-182
-182
-183
-183
-184
-184
-184
-185
-186
-186
-187
-187
-188
-189
-190
-191
-191
-192
-193
-194
-194
-195
-196
-197
-198
-198
-199
-199
-200
-200
-201
-202
-202
-203
-203
-204
-205
-206
-206
-206
-208
-208
-209
-210
-210
-212
-212
-213
-214
-215
-215
-217
-217
-217
-219
-219
-220
-221
-222
-222
-223
-224
-224
-226
-226
-227
-228
-229
-228
-230
-231
-232
-232
-232
-232
-232
-232
-233
-233
-234
-235
-235
-235
-237
-237
-237
-238
-238
-238
-238
-239
-239
-240
-240
-240
-241
-241
-242
-242
-242
-242
-243
-244
-243
-243
-243
-244
-244
-244
-244
-244
-244
-244
-244
-244
-244
-244
-244
-244
-244
-243
-244
-244
-244
-244
-244
-245
-245
-245
-244
-245
-245
-245
-245
-245
-245
-245
-245
-246
-246
-246
-246
-246
-247
-247
-247
-247
-247
-247
-248
-247
-247
-248
-248
-248
-247
-248
-248
-248
-248
-248
-248
-248
-248
-248
-248
-248
-248
-248
-248
-248
-248
-248
-248
-248
-248
-247
-247
-247
-247
-248
-248
-248
-248
-248
-248
-247
-247
-248
-248
-248
-248
-247
-247
-246
-246
-247
-246
-246
-246
-246
-246
-246
-246
-246
-245
-245
-245
-245
-245
-245
-244
-244
-245
-244
-244
-244
-244
-244
-244
-243
-243
-243
-243
-243
-243
-243
-243
-243
-243
-242
-242
-242
-241
-240
-240
-240
-240
-240
-240
-240
-239
-239
-239
-239
-239
-239
-239
-238
-238
-238
-239
-239
-239
-238
-238
-238
-239
-239
-239
-238
-238
-238
-239
-239
-239
-238
-238
-238
-238
-238
-237
-237
-237
-236
-236
-236
-236
-236
-236
-236
-236
-236
-236
-237
-237
-237
-237
-237
-238
-237
-237
-237
-237
-238
-238
-238
-238
-239
-239
-239
-239
-239
-239
-239
-239
-239
-239
-239
-239
-239
-239
-239
-238
-238
-238
-238
-238
-239
-239
-238
-238
-238
-238
-239
-239
-239
-239
-239
-239
-239
-239
-240
-240
-240
-240
-240
-240
-241
-241
-241
-241
-241
-240
-241
-241
-241
-241
-241
-241
-242
-241
-241
-240
-241
-241
-240
-240
-240
-241
-241
-241
-241
-241
-241
-241
-241
-242
-242
-242
-242
-242
-242
-242
-243
-243
-242
-242
-242
-242
-242
-243
-243
-243
-243
-243
-243
-243
-243
-243
-244
-244
-243
-242
-243
-243
-242
-242
-243
-243
-243
-243
-243
-243
-243
-243
-243
-243
-244
-244
-243
-243
-243
-243
-243
-243
-243
-244
-244
-244
-244
-245
-244
-244
-244
-245
-245
-245
-245
-245
-245
-246
-244
-244
-244
-244
-244
-244
-244
-244
-244
-244
-244
-244
-244
-244
-244
-244
-244
-244
-244
-244
-244
-243
-243
-243
-243
-243
-243
-242
-242
-242
-241
-242
-241
-240
-240
-239
-239
-238
-237
-237
-236
-235
-235
-234
-234
-234
-233
-233
-232
-232
-231
-231
-231
-231
-230
-230
-231
-231
-231
-231
-231
-231
-232
-231
-232
-232
-232
-232
-233
-233
-234
-235
-235
-235
-235
-235
-236
-237
-237
-238
-237
-237
-237
-237
-238
-238
-238
-238
-239
-238
-238
-238
-238
-238
-237
-237
-237
-238
-238
-238
-238
-237
-237
-237
-237
-237
-238
-238
-238
-239
-239
-238
-239
-239
-240
-240
-240
-242
-241
-242
-241
-241
-241
-241
-241
-242
-241
-242
-242
-242
-242
-242
-242
-243
-242
-242
-242
-243
-243
-242
-243
-243
-242
-243
-243
-243
-244
-244
-244
-244
-244
-245
-245
-245
-245
-245
-245
-246
-246
-246
-246
-245
-246
-246
-245
-245
-246
-246
-246
-246
-246
-246
-247
-247
-247
-247
-247
-247
-247
-247
-247
-246
-246
-246
-246
-246
-246
-246
-246
-246
-245
-245
-245
-245
-245
-245
-245
-245
-245
-244
-243
-242
-241
-240
-240
-239
-238
-235
-233
-231
-228
-225
-222
-219
-216
-212
-209
-206
-202
-200
-197
-194
-191
-187
-184
-182
-179
-178
-175
-173
-171
-169
-167
-164
-162
-161
-160
-159
-160
-160
-163
-166
-171
-177
-184
-193
-202
-214
-227
-240
-255
-271
-288
-305
-322
-339
-355
-372
-387
-400
-414
-424
-433
-441
-447
-450
-452
-453
-452
-449
-445
-440
-435
-427
-420
-411
-403
-394
-386
-377
-367
-358
-349
-342
-334
-326
-319
-312
-306
-299
-294
-288
-282
-278
-273
-269
-266
-262
-259
-255
-253
-250
-248
-245
-244
-241
-240
-239
-238
-236
-235
-234
-234
-233
-233
-233
-232
-232
-231
-231
-230
-230
-229
-230
-229
-228
-228
-228
-228
-227
-227
-228
-227
-227
-227
-226
-227
-227
-227
-227
-226
-227
-227
-227
-227
-227
-227
-226
-226
-226
-227
-227
-226
-226
-226
-226
-227
-227
-227
-227
-226
-225
-225
-225
-225
-225
-225
-225
-225
-225
-226
-226
-225
-225
-225
-225
-225
-225
-225
-225
-225
-225
-225
-225
-225
-226
-226
-226
-226
-227
-226
-226
-226
-226
-226
-226
-226
-226
-226
-226
-226
-225
-225
-225
-224
-224
-224
-224
-224
-224
-224
-224
-224
-224
-224
-224
-224
-224
-224
-224
-223
-223
-224
-223
-223
-223
-223
-223
-223
-223
-223
-223
-223
-223
-222
-222
-222
-223
-222
-222
-221
-221
-221
-220
-221
-221
-219
-220
-220
-220
-219
-219
-219
-219
-219
-219
-218
-218
-218
-218
-218
-217
-217
-217
-216
-216
-216
-216
-216
-216
-216
-216
-216
-216
-216
-216
-216
-215
-214
-214
-213
-213
-212
-212
-211
-211
-211
-210
-210
-209
-209
-208
-208
-208
-208
-207
-207
-207
-207
-206
-206
-206
-205
-205
-205
-204
-203
-203
-203
-203
-202
-202
-201
-200
-200
-199
-199
-198
-198
-197
-197
-195
-195
-195
-195
-194
-194
-193
-193
-193
-192
-192
-191
-191
-190
-190
-190
-190
-189
-189
-188
-188
-187
-187
-187
-186
-187
-187
-186
-186
-186
-185
-185
-186
-185
-185
-185
-185
-185
-185
-184
-185
-184
-184
-184
-184
-184
-184
-185
-184
-185
-184
-185
-185
-185
-186
-185
-186
-187
-187
-188
-188
-189
-189
-190
-191
-190
-191
-191
-192
-193
-194
-195
-194
-195
-196
-197
-198
-199
-199
-200
-200
-200
-201
-202
-203
-203
-205
-205
-206
-206
-207
-208
-208
-209
-210
-211
-211
-213
-213
-215
-215
-217
-217
-219
-219
-220
-221
-222
-223
-224
-226
-226
-227
-228
-228
-229
-230
-231
-231
-231
-232
-233
-233
-234
-234
-236
-236
-236
-237
-237
-238
-238
-239
-239
-240
-240
-240
-242
-242
-242
-244
-244
-244
-244
-245
-245
-246
-246
-246
-247
-247
-247
-249
-248
-248
-249
-250
-250
-250
-249
-250
-250
-250
-250
-250
-250
-250
-251
-251
-251
-251
-252
-252
-252
-252
-252
-252
-253
-253
-253
-253
-253
-254
-254
-254
-254
-255
-255
-255
-255
-256
-256
-256
-256
-256
-257
-256
-256
-256
-255
-256
-256
-255
-255
-256
-256
-256
-256
-256
-256
-256
-256
-256
-256
-257
-257
-257
-257
-257
-257
-257
-256
-256
-257
-257
-257
-256
-256
-256
-256
-256
-256
-256
-256
-256
-256
-256
-256
-255
-255
-254
-255
-255
-254
-254
-254
-254
-254
-254
-254
-254
-254
-254
-254
-253
-253
-253
-253
-253
-253
-253
-253
-253
-253
-253
-253
-253
-253
-253
-253
-253
-253
-253
-252
-252
-252
-252
-252
-252
-251
-250
-250
-250
-250
-250
-249
-249
-249
-249
-248
-248
-248
-248
-248
-248
-248
-247
