# Simple Text Format
# Sampling Rate (Hz):= 1200.00
# Resolution:= 12
# Labels:= ECG	 V6
# Age:=	72
# Gender:=	Feminino
0
0
0
0
0
0
0
0
0
0
0
0
0
0
0
0
0
0
0
0
0
0
0
0
0
0
0
0
0
0
0
0
0
0
0
0
0
0
0
0
0
0
0
0
0
0
0
0
0
0
0
0
0
0
0
0
0
0
0
0
0
0
0
0
0
0
0
0
0
0
0
0
0
0
0
0
0
0
0
0
0
0
0
0
0
0
0
0
0
0
0
0
0
0
0
0
0
0
0
0
0
0
0
0
0
0
0
0
0
0
0
0
0
0
0
0
0
0
0
0
0
0
0
0
0
0
0
0
0
0
0
0
0
0
0
0
0
0
0
0
0
0
0
0
0
0
0
0
0
0
0
0
0
0
0
0
0
0
0
0
0
0
0
0
0
0
0
0
0
0
0
0
0
0
0
0
0
0
0
0
0
0
0
0
0
0
0
0
0
0
0
0
0
0
0
0
0
0
0
0
0
0
0
0
0
0
0
0
0
0
0
0
0
0
0
0
0
0
0
0
0
0
0
0
0
0
0
0
0
0
0
0
0
0
0
0
0
0
0
0
0
0
0
0
0
0
0
0
0
0
0
0
0
0
0
0
0
0
0
0
0
0
0
0
0
0
0
0
0
0
0
0
0
0
0
0
0
0
0
0
0
0
0
0
0
0
0
0
0
0
0
0
0
0
0
0
0
0
0
0
0
0
0
0
0
0
0
0
0
0
0
0
0
0
0
0
0
0
0
0
0
0
0
0
0
0
0
0
0
0
0
0
0
0
0
0
0
0
0
0
0
0
0
0
0
0
0
0
0
0
0
0
0
0
0
0
0
0
0
0
0
0
0
0
0
0
0
0
0
0
0
0
0
0
0
0
0
0
0
0
0
0
0
0
0
0
0
0
0
0
0
0
0
0
0
0
0
0
0
0
0
0
0
0
0
0
0
0
0
0
0
0
0
0
0
0
0
0
0
0
0
0
0
0
0
0
0
0
0
0
0
0
0
0
0
0
0
0
0
0
0
0
0
0
0
0
0
0
0
0
0
0
0
0
0
0
0
0
0
0
0
0
0
0
0
0
0
0
0
0
0
0
0
0
0
0
0
0
0
0
0
0
0
0
0
0
0
0
0
0
0
0
0
0
0
0
0
0
0
0
0
0
0
0
0
0
0
0
0
0
0
0
0
0
0
0
0
0
0
0
0
0
0
0
0
0
0
0
0
0
0
0
0
0
0
0
0
0
0
0
0
0
0
0
0
0
0
0
0
0
0
0
0
0
0
0
0
0
0
0
0
0
0
0
0
0
0
0
0
0
0
0
0
0
0
0
0
0
0
0
0
0
0
0
0
0
0
0
0
0
0
0
0
0
0
0
0
0
0
0
0
0
0
0
0
0
0
0
0
0
0
0
0
0
0
0
0
0
0
0
0
0
0
0
0
0
0
0
0
0
0
0
0
0
0
0
0
0
0
0
0
0
0
0
0
0
0
0
0
0
0
0
0
0
0
0
0
0
0
0
0
0
0
0
0
0
0
0
0
0
0
0
0
0
0
0
0
0
0
0
0
0
0
0
0
0
0
0
0
0
0
0
0
0
0
0
0
0
0
0
0
0
0
0
0
0
0
0
0
0
0
0
0
0
0
0
0
0
0
0
0
0
0
0
0
0
0
0
0
0
0
0
0
0
0
0
0
0
0
0
0
0
0
0
0
0
0
0
0
0
0
0
0
0
0
0
0
0
0
0
0
0
0
0
0
0
0
0
0
0
0
0
0
0
0
0
0
0
0
0
0
0
0
0
0
0
0
0
0
0
0
0
0
0
0
0
0
0
0
0
0
0
0
0
0
0
0
0
0
0
0
0
0
0
0
0
0
0
0
0
0
0
0
0
0
0
0
0
0
0
0
0
0
0
0
0
0
0
0
0
0
0
0
0
0
0
0
0
0
0
0
0
0
0
0
0
0
0
0
0
0
0
0
0
0
0
0
0
0
0
0
0
0
0
0
0
0
0
0
0
0
0
0
0
0
0
0
0
0
0
0
0
0
0
0
0
0
0
0
0
0
0
0
0
0
0
0
0
0
0
0
0
0
0
0
0
0
0
0
0
0
0
0
0
0
0
0
0
0
0
0
0
0
0
0
0
0
0
0
0
0
0
0
0
0
0
0
0
0
0
0
0
0
0
0
0
0
0
0
0
0
0
0
0
0
0
0
0
0
0
0
0
0
0
0
0
0
0
0
0
0
0
0
0
0
0
0
0
0
0
0
0
0
0
0
0
0
0
0
0
0
0
0
0
0
0
0
0
0
0
0
0
0
0
0
0
0
0
0
0
0
0
0
0
0
0
0
0
0
0
0
0
0
0
0
0
0
0
0
0
0
0
0
0
0
0
0
0
0
0
0
0
0
0
0
0
0
0
0
0
0
0
0
0
0
0
0
0
0
0
0
0
0
0
0
0
0
0
0
0
0
0
0
0
0
0
0
0
0
0
0
0
0
0
0
0
0
0
0
0
0
0
0
0
0
0
0
0
0
0
0
0
0
0
0
0
0
0
0
0
0
0
0
0
0
0
0
0
0
0
0
0
0
0
0
0
0
0
0
0
0
0
0
0
0
0
0
0
0
0
0
0
0
0
0
0
0
0
0
0
0
0
0
0
0
0
0
0
0
0
0
0
0
0
0
0
0
0
0
0
0
0
0
0
0
0
0
0
0
0
0
0
0
0
0
0
0
0
0
0
0
0
0
0
0
0
0
0
0
0
0
0
0
0
0
0
0
0
0
0
0
0
0
0
0
0
0
0
0
0
0
0
0
0
0
0
0
0
0
0
0
0
0
0
0
0
0
0
0
0
0
0
0
0
0
0
0
0
0
0
0
0
0
0
0
0
0
0
0
0
0
0
0
0
0
0
0
0
0
0
0
0
0
0
0
0
0
0
0
0
0
0
0
0
0
0
0
0
0
0
0
0
0
0
0
0
0
0
0
0
0
0
0
0
0
0
0
0
0
0
0
0
0
0
0
0
0
0
0
0
0
0
0
0
0
0
0
0
0
0
0
0
0
0
0
0
0
0
0
0
0
0
0
0
0
0
0
0
0
0
0
0
0
0
0
0
0
0
0
0
0
0
0
0
0
0
0
0
0
0
0
0
0
0
0
0
0
0
0
0
0
0
0
0
0
0
0
0
0
0
0
0
0
0
0
0
0
0
0
0
0
0
0
0
0
0
0
0
0
0
0
0
0
0
0
0
0
0
0
0
0
0
0
0
-489
-490
-490
-492
-492
-492
-493
-494
-495
-495
-496
-497
-497
-498
-498
-499
-500
-501
-501
-503
-503
-503
-505
-505
-505
-507
-507
-508
-508
-509
-509
-510
-510
-511
-510
-511
-512
-512
-513
-513
-513
-513
-513
-514
-515
-515
-515
-515
-515
-514
-514
-515
-515
-515
-515
-515
-515
-515
-515
-515
-515
-515
-516
-516
-516
-516
-516
-516
-516
-517
-517
-518
-517
-518
-517
-518
-517
-518
-518
-518
-518
-518
-518
-518
-518
-519
-519
-519
-518
-518
-518
-518
-518
-518
-518
-518
-518
-518
-518
-518
-518
-517
-517
-518
-518
-518
-518
-518
-518
-518
-519
-518
-519
-518
-518
-518
-518
-519
-519
-519
-520
-520
-520
-520
-521
-521
-521
-521
-521
-521
-521
-521
-521
-522
-521
-521
-521
-521
-521
-521
-521
-520
-520
-520
-520
-520
-520
-520
-519
-519
-519
-518
-518
-517
-518
-518
-517
-518
-518
-518
-519
-519
-519
-519
-519
-520
-520
-521
-521
-520
-521
-521
-521
-522
-522
-522
-522
-522
-522
-522
-522
-522
-522
-522
-522
-522
-522
-522
-522
-522
-522
-522
-521
-521
-520
-520
-520
-520
-520
-520
-520
-519
-519
-519
-519
-519
-519
-519
-519
-520
-519
-519
-519
-519
-519
-519
-519
-520
-520
-519
-520
-520
-520
-520
-521
-520
-520
-520
-521
-521
-521
-521
-520
-520
-519
-519
-519
-519
-519
-519
-519
-518
-518
-519
-519
-519
-519
-518
-518
-518
-518
-519
-519
-519
-519
-519
-518
-518
-519
-519
-519
-519
-519
-519
-519
-519
-519
-519
-519
-519
-519
-519
-519
-518
-518
-518
-518
-518
-519
-519
-518
-518
-518
-518
-518
-518
-518
-518
-519
-518
-518
-518
-518
-518
-518
-518
-518
-519
-519
-519
-519
-519
-520
-519
-520
-520
-520
-520
-520
-521
-521
-521
-521
-520
-519
-520
-520
-519
-519
-520
-520
-520
-520
-520
-520
-520
-520
-520
-520
-520
-519
-520
-520
-520
-520
-520
-520
-521
-521
-521
-521
-521
-522
-522
-521
-521
-521
-521
-521
-522
-521
-521
-521
-520
-520
-520
-520
-521
-520
-521
-521
-520
-520
-520
-520
-520
-520
-520
-520
-521
-521
-521
-521
-521
-521
-521
-521
-521
-521
-521
-521
-521
-521
-522
-522
-522
-521
-521
-521
-522
-522
-521
-522
-521
-521
-521
-521
-521
-521
-521
-521
-521
-521
-521
-521
-520
-520
-520
-520
-520
-520
-520
-520
-520
-520
-520
-520
-519
-519
-519
-518
-518
-518
-518
-518
-517
-517
-517
-516
-516
-515
-516
-515
-514
-514
-514
-513
-512
-513
-512
-512
-512
-511
-511
-511
-511
-511
-511
-511
-511
-510
-511
-511
-511
-510
-509
-509
-509
-509
-509
-509
-508
-508
-508
-508
-508
-508
-507
-507
-506
-506
-506
-505
-504
-505
-504
-503
-504
-504
-504
-503
-503
-503
-503
-504
-503
-503
-504
-504
-504
-505
-504
-504
-504
-505
-506
-506
-506
-506
-507
-507
-507
-508
-508
-509
-509
-509
-509
-510
-511
-511
-511
-511
-510
-511
-511
-512
-512
-513
-513
-513
-513
-514
-514
-514
-515
-515
-516
-515
-516
-517
-516
-517
-518
-518
-518
-519
-519
-519
-519
-519
-519
-520
-521
-521
-521
-521
-521
-522
-522
-522
-522
-522
-522
-521
-521
-522
-522
-522
-523
-522
-522
-522
-522
-522
-522
-521
-522
-522
-522
-522
-522
-522
-522
-521
-522
-522
-522
-522
-522
-522
-522
-522
-522
-522
-522
-523
-523
-523
-523
-523
-523
-523
-523
-524
-524
-524
-525
-525
-525
-526
-527
-527
-527
-527
-526
-526
-524
-524
-521
-519
-517
-512
-508
-503
-497
-491
-483
-475
-466
-456
-445
-435
-423
-412
-399
-386
-373
-360
-348
-336
-325
-315
-305
-296
-289
-283
-278
-274
-273
-273
-273
-275
-280
-285
-292
-299
-307
-316
-327
-337
-347
-358
-368
-379
-389
-400
-410
-419
-430
-438
-447
-455
-463
-470
-476
-483
-488
-493
-499
-503
-507
-510
-513
-515
-519
-520
-522
-524
-525
-526
-528
-528
-528
-528
-528
-528
-528
-528
-528
-527
-527
-527
-526
-526
-526
-525
-525
-525
-525
-525
-524
-525
-525
-526
-525
-525
-526
-526
-526
-526
-526
-526
-525
-525
-525
-525
-525
-525
-525
-526
-526
-525
-525
-525
-525
-525
-526
-525
-525
-525
-526
-526
-526
-526
-525
-525
-525
-525
-525
-525
-525
-525
-526
-526
-526
-526
-526
-526
-526
-525
-525
-525
-524
-525
-525
-525
-524
-524
-524
-524
-523
-523
-523
-523
-524
-524
-524
-524
-523
-523
-524
-524
-524
-524
-524
-524
-524
-525
-525
-525
-525
-525
-524
-524
-524
-524
-524
-525
-526
-525
-526
-525
-525
-524
-524
-524
-524
-524
-524
-524
-523
-523
-523
-523
-523
-523
-523
-523
-523
-523
-523
-523
-524
-523
-523
-523
-524
-524
-525
-525
-525
-525
-525
-525
-525
-525
-526
-526
-525
-525
-525
-525
-524
-524
-524
-524
-524
-523
-523
-524
-524
-524
-524
-524
-524
-524
-524
-524
-523
-524
-524
-525
-524
-524
-524
-524
-524
-524
-524
-524
-523
-523
-524
-524
-524
-524
-523
-522
-522
-523
-523
-522
-521
-521
-521
-521
-521
-521
-521
-520
-520
-520
-519
-519
-519
-519
-519
-519
-518
-517
-517
-517
-517
-516
-515
-515
-515
-514
-514
-514
-514
-513
-514
-514
-513
-513
-513
-513
-514
-514
-514
-513
-512
-511
-512
-511
-511
-511
-511
-510
-510
-509
-509
-508
-508
-507
-507
-507
-505
-505
-504
-504
-503
-502
-501
-501
-501
-500
-499
-499
-499
-498
-498
-497
-497
-495
-495
-494
-494
-494
-493
-492
-491
-490
-489
-490
-489
-488
-488
-486
-486
-486
-485
-484
-484
-483
-483
-482
-482
-481
-480
-480
-479
-479
-478
-478
-477
-477
-477
-476
-475
-475
-475
-474
-474
-474
-473
-473
-473
-472
-473
-472
-472
-471
-471
-471
-471
-472
-472
-472
-473
-473
-474
-474
-475
-476
-476
-478
-478
-479
-480
-480
-482
-482
-483
-484
-484
-485
-485
-486
-487
-488
-489
-489
-491
-491
-491
-492
-492
-493
-494
-493
-494
-494
-495
-495
-496
-496
-497
-498
-499
-499
-499
-501
-501
-502
-502
-503
-504
-505
-505
-505
-507
-507
-507
-508
-508
-510
-510
-510
-511
-511
-512
-512
-512
-513
-513
-513
-514
-515
-515
-515
-514
-515
-515
-516
-516
-516
-516
-516
-517
-517
-517
-517
-517
-517
-517
-517
-517
-517
-518
-518
-517
-517
-517
-517
-517
-517
-517
-517
-517
-517
-517
-517
-517
-518
-518
-518
-517
-517
-517
-517
-517
-517
-517
-517
-517
-518
-517
-517
-518
-517
-517
-517
-517
-517
-517
-517
-516
-517
-517
-517
-517
-516
-516
-516
-517
-517
-517
-517
-517
-516
-517
-517
-517
-517
-518
-518
-518
-518
-518
-518
-518
-517
-518
-518
-518
-518
-518
-518
-519
-519
-519
-519
-519
-519
-520
-520
-520
-520
-520
-520
-520
-520
-520
-521
-521
-520
-520
-520
-520
-520
-521
-521
-520
-520
-520
-520
-520
-519
-520
-519
-518
-519
-519
-519
-519
-520
-520
-519
-519
-519
-519
-519
-520
-520
-520
-520
-520
-521
-521
-521
-520
-520
-520
-520
-520
-520
-520
-520
-520
-519
-519
-519
-519
-519
-519
-519
-519
-519
-519
-518
-517
-518
-518
-518
-518
-518
-518
-519
-519
-519
-519
-519
-519
-520
-520
-520
-520
-520
-520
-520
-519
-520
-520
-520
-519
-519
-519
-519
-519
-519
-519
-519
-519
-519
-519
-519
-519
-518
-517
-517
-517
-517
-517
-517
-517
-516
-516
-517
-516
-516
-516
-516
-516
-516
-516
-516
-517
-517
-517
-517
-517
-517
-517
-518
-518
-518
-519
-519
-519
-519
-519
-519
-519
-519
-519
-519
-519
-519
-518
-517
-517
-517
-517
-517
-517
-516
-516
-517
-517
-517
-516
-516
-516
-516
-517
-517
-517
-518
-518
-517
-517
-519
-518
-518
-518
-518
-519
-519
-519
-519
-519
-520
-520
-520
-520
-520
-520
-520
-519
-519
-518
-519
-519
-518
-518
-518
-517
-518
-518
-518
-518
-518
-518
-518
-518
-517
-518
-518
-518
-518
-518
-519
-519
-519
-519
-519
-519
-519
-519
-519
-519
-520
-519
-519
-519
-519
-519
-520
-519
-518
-518
-517
-518
-517
-518
-517
-517
-516
-516
-516
-516
-516
-515
-515
-515
-515
-514
-514
-514
-513
-513
-513
-513
-513
-513
-512
-513
-513
-513
-512
-512
-513
-512
-512
-512
-513
-512
-512
-512
-511
-510
-510
-510
-509
-510
-510
-509
-509
-508
-508
-508
-507
-507
-506
-506
-506
-505
-506
-505
-504
-504
-504
-504
-504
-504
-504
-504
-504
-504
-505
-504
-505
-505
-506
-506
-507
-507
-507
-508
-508
-508
-508
-509
-509
-510
-511
-511
-512
-512
-512
-512
-513
-514
-514
-514
-516
-515
-516
-515
-516
-517
-517
-517
-517
-516
-517
-517
-518
-518
-518
-519
-518
-519
-519
-520
-521
-522
-522
-522
-522
-522
-523
-523
-523
-523
-525
-525
-524
-525
-525
-525
-524
-525
-525
-525
-525
-525
-525
-524
-524
-524
-524
-524
-524
-524
-524
-524
-524
-524
-524
-524
-525
-525
-525
-525
-525
-525
-525
-525
-526
-525
-525
-525
-525
-526
-526
-526
-526
-526
-526
-526
-526
-526
-526
-526
-527
-527
-527
-528
-528
-529
-529
-530
-531
-532
-532
-533
-533
-533
-533
-533
-533
-533
-531
-529
-528
-524
-521
-518
-513
-507
-501
-494
-486
-477
-468
-458
-447
-435
-423
-411
-398
-384
-371
-358
-346
-333
-322
-311
-302
-293
-286
-280
-276
-274
-272
-274
-276
-279
-284
-291
-298
-307
-317
-327
-339
-351
-362
-373
-385
-396
-407
-418
-429
-439
-449
-459
-467
-475
-482
-489
-495
-500
-506
-511
-515
-519
-522
-525
-528
-530
-532
-533
-534
-535
-536
-537
-537
-538
-537
-537
-537
-536
-536
-535
-535
-535
-534
-534
-532
-531
-531
-531
-530
-529
-529
-529
-529
-529
-529
-529
-529
-529
-529
-529
-529
-529
-529
-529
-529
-529
-529
-529
-530
-530
-530
-530
-530
-530
-530
-530
-530
-529
-529
-529
-530
-530
-530
-530
-530
-530
-529
-529
-529
-529
-530
-530
-530
-530
-530
-530
-530
-530
-530
-530
-530
-530
-529
-529
-529
-530
-530
-530
-530
-530
-530
-530
-530
-530
-530
-530
-530
-530
-530
-530
-531
-531
-531
-530
-530
-529
-530
-530
-529
-529
-529
-529
-529
-528
-528
-528
-528
-528
-528
-528
-528
-528
-528
-528
-528
-528
-528
-528
-528
-528
-528
-528
-528
-529
-529
-529
-529
-530
-530
-530
-530
-531
-531
-530
-530
-530
-530
-530
-529
-530
-530
-529
-529
-529
-528
-528
-528
-528
-528
-527
-527
-527
-527
-527
-526
-526
-527
-527
-526
-526
-526
-526
-526
-526
-526
-526
-526
-526
-526
-526
-526
-526
-527
-526
-525
-525
-525
-525
-524
-524
-524
-524
-524
-523
-523
-523
-523
-523
-523
-523
-523
-523
-523
-523
-522
-522
-522
-522
-523
-522
-522
-522
-522
-522
-522
-521
-521
-521
-521
-520
-521
-521
-520
-520
-519
-518
-518
-518
-518
-518
-518
-518
-517
-517
-516
-516
-515
-515
-514
-514
-514
-514
-513
-513
-513
-512
-512
-511
-511
-510
-510
-509
-509
-509
-508
-508
-507
-507
-506
-506
-506
-506
-505
-505
-504
-503
-502
-502
-502
-501
-501
-500
-500
-498
-498
-498
-497
-496
-495
-495
-494
-494
-494
-492
-492
-491
-490
-490
-489
-489
-488
-487
-487
-486
-485
-484
-484
-484
-482
-482
-481
-481
-480
-480
-479
-478
-478
-477
-477
-477
-477
-477
-477
-476
-476
-476
-476
-476
-476
-476
-476
-476
-476
-476
-476
-476
-476
-476
-476
-476
-476
-476
-476
-477
-478
-478
-478
-478
-480
-480
-480
-480
-482
-482
-482
-482
-483
-484
-485
-485
-487
-487
-488
-488
-489
-490
-491
-491
-492
-493
-494
-495
-496
-496
-498
-498
-499
-500
-500
-501
-502
-502
-503
-504
-505
-505
-505
-506
-507
-508
-508
-509
-509
-510
-510
-510
-511
-511
-512
-512
-513
-513
-513
-513
-514
-514
-514
-514
-514
-514
-515
-516
-516
-516
-516
-516
-516
-516
-516
-516
-517
-517
-517
-519
-519
-519
-520
-520
-520
-520
-521
-522
-522
-521
-520
-520
-520
-520
-520
-520
-520
-520
-520
-520
-520
-520
-520
-519
-519
-519
-519
-519
-519
-519
-519
-519
-520
-520
-519
-519
-520
-520
-521
-521
-521
-522
-522
-522
-521
-522
-522
-523
-523
-522
-522
-522
-522
-522
-522
-522
-522
-522
-522
-521
-521
-521
-521
-522
-522
-522
-522
-521
-521
-521
-521
-521
-521
-521
-522
-522
-522
-522
-522
-522
-523
-523
-523
-523
-524
-524
-523
-524
-523
-524
-524
-523
-523
-523
-523
-522
-522
-522
-522
-522
-521
-521
-521
-521
-521
-521
-521
-521
-521
-521
-521
-521
-521
-521
-520
-520
-520
-520
-520
-520
-520
-520
-520
-520
-521
-521
-520
-520
-520
-520
-518
-519
-518
-519
-519
-518
-518
-518
-518
-518
-518
-518
-518
-518
-518
-518
-518
-518
-519
-519
-518
-518
-518
-518
-518
-518
-518
-518
-519
-519
-519
-519
-519
-518
-518
-518
-518
-519
-519
-518
-518
-517
-516
-516
-517
-517
-517
-517
-517
-517
-517
-517
-517
-517
-517
-518
-518
-518
-518
-518
-518
-518
-518
-517
-517
-517
-517
-517
-517
-518
-518
-518
-518
-518
-518
-518
-517
-517
-518
-518
-518
-517
-517
-517
-517
-517
-518
-518
-518
-518
-518
-518
-518
-518
-519
-519
-520
-520
-520
-520
-520
-520
-519
-519
-519
-519
-519
-520
-520
-520
-520
-520
-519
-519
-519
-519
-520
-519
-519
-519
-518
-518
-518
-518
-518
-518
-518
-518
-518
-518
-518
-518
-518
-519
-519
-519
-519
-519
-519
-519
-519
-519
-519
-519
-519
-518
-518
-517
-517
-517
-516
-515
-516
-515
-515
-515
-514
-515
-514
-514
-513
-512
-512
-512
-512
-512
-512
-513
-512
-512
-512
-511
-511
-511
-511
-511
-511
-511
-510
-510
-510
-509
-509
-509
-508
-508
-508
-507
-507
-507
-507
-506
-506
-506
-506
-505
-506
-506
-505
-505
-504
-504
-503
-504
-503
-504
-504
-503
-503
-503
-503
-504
-503
-504
-504
-505
-504
-504
-504
-505
-505
-505
-505
-506
-506
-506
-506
-508
-507
-508
-508
-508
-509
-509
-508
-509
-510
-510
-511
-511
-510
-511
-511
-511
-511
-512
-512
-513
-513
-513
-514
-514
-514
-514
-515
-515
-516
-516
-516
-516
-517
-517
-517
-517
-518
-518
-519
-520
-520
-520
-520
-521
-521
-521
-521
-522
-522
-522
-523
-522
-521
-521
-521
-521
-521
-521
-521
-521
-521
-520
-520
-520
-520
-520
-520
-520
-520
-520
-520
-520
-520
-520
-521
-521
-521
-521
-521
-521
-521
-521
-521
-521
-521
-521
-521
-520
-521
-521
-522
-521
-521
-521
-521
-522
-523
-523
-524
-524
-525
-526
-527
-527
-527
-529
-529
-529
-528
-527
-526
-523
-521
-518
-514
-510
-505
-498
-491
-484
-475
-465
-455
-444
-432
-420
-406
-393
-380
-366
-352
-338
-325
-312
-301
-291
-281
-273
-266
-260
-257
-254
-254
-255
-258
-262
-268
-275
-284
-293
-304
-314
-326
-338
-350
-362
-374
-386
-398
-408
-419
-430
-440
-449
-458
-465
-474
-480
-486
-493
-498
-502
-505
-510
-513
-516
-519
-521
-523
-525
-526
-527
-528
-528
-529
-529
-529
-529
-529
-528
-528
-528
-527
-527
-526
-526
-526
-526
-525
-525
-525
-524
-524
-524
-524
-524
-523
-524
-524
-524
-524
-523
-523
-522
-523
-523
-523
-523
-522
-522
-522
-522
-522
-522
-522
-522
-522
-522
-522
-523
-522
-522
-522
-523
-522
-522
-523
-523
-523
-523
-522
-523
-523
-523
-523
-523
-523
-523
-523
-523
-523
-522
-522
-521
-522
-521
-521
-522
-521
-521
-521
-520
-520
-521
-520
-521
-521
-521
-521
-521
-521
-521
-520
-520
-521
-521
-521
-521
-520
-520
-520
-520
-520
-520
-520
-520
-520
-520
-520
-520
-520
-520
-518
-519
-519
-519
-519
-519
-519
-519
-518
-518
-518
-518
-518
-518
-518
-518
-518
-519
-519
-519
-519
-519
-519
-519
-520
-519
-519
-519
-519
-519
-519
-520
-520
-520
-520
-520
-519
-519
-520
-519
-519
-518
-519
-518
-518
-518
-518
-518
-517
-517
-517
-517
-517
-517
-516
-516
-517
-517
-516
-516
-516
-517
-517
-517
-517
-518
-518
-517
-516
-516
-516
-516
-516
-516
-516
-516
-515
-515
-515
-515
-513
-513
-513
-512
-512
-512
-512
-511
-511
-511
-511
-511
-511
-510
-510
-510
-510
-510
-510
-509
-509
-509
-509
-508
-508
-508
-508
-508
-508
-507
-507
-507
-507
-507
-507
-507
-506
-506
-505
-504
-503
-502
-502
-502
-501
-501
-501
-500
-500
-498
-498
-498
-497
-497
-496
-496
-495
-495
-494
-494
-493
-492
-492
-492
-491
-490
-490
-490
-488
-488
-488
-487
-487
-486
-485
-484
-484
-483
-483
-482
-480
-479
-479
-478
-478
-478
-476
-476
-475
-474
-473
-472
-472
-472
-470
-470
-469
-469
-468
-468
-467
-466
-466
-466
-466
-465
-465
-465
-464
-464
-464
-463
-463
-463
-462
-462
-463
-462
-463
-462
-461
-461
-461
-461
-462
-462
-462
-462
-462
-463
-463
-464
-464
-465
-465
-466
-466
-468
-468
-468
-468
-469
-469
-470
-471
-472
-472
-473
-473
-475
-475
-476
-477
-477
-479
-479
-480
-481
-481
-481
-482
-482
-483
-484
-485
-485
-485
-486
-486
-488
-488
-488
-490
-490
-491
-491
-493
-493
-494
-494
-496
-496
-496
-498
-498
-499
-500
-501
-501
-501
-501
-502
-502
-503
-503
-504
-504
-504
-505
-504
-503
-504
-504
-505
-504
-505
-505
-505
-505
-505
-505
-505
-505
-506
-506
-506
-506
-506
-506
-506
-505
-506
-506
-506
-506
-506
-506
-506
-506
-506
-506
-506
-506
-506
-506
-507
-506
-507
-507
-507
-506
-505
-506
-505
-506
-506
-506
-506
-506
-506
-506
-506
-506
-507
-507
-507
-507
-507
-508
-508
-508
-508
-509
-508
-509
-509
-509
-509
-509
-509
-509
-509
-509
-510
-510
-510
-510
-511
-510
-509
-509
-509
-508
-508
-509
-509
-509
-508
-509
-509
-508
-508
-508
-508
-509
-509
-509
-508
-508
-508
-508
-508
-508
-508
-508
-508
-508
-507
-507
-507
-507
-507
-506
-506
-506
-506
-506
-506
-506
-505
-505
-504
-504
-504
-505
-505
-505
-505
-505
-505
-505
-504
-504
-504
-505
-505
-505
-505
-505
-505
-505
-505
-505
-505
-505
-504
-504
-504
-504
-504
-504
-504
-504
-504
-504
-503
-503
-504
-503
-503
-502
-503
-503
-503
-502
-502
-502
-503
-503
-503
-503
-503
-503
-502
-502
-502
-503
-503
-502
-502
-502
-502
-502
-502
-502
-502
-502
-502
-502
-503
-503
-502
-502
-502
-503
-503
-504
-503
-503
-502
-501
-502
-502
-501
-502
-502
-501
-501
-501
-501
-501
-501
-501
-501
-501
-501
-501
-501
-501
-501
-501
-501
-501
-502
-501
-501
-501
-501
-501
-501
-501
-501
-501
-501
-501
-501
-502
-502
-502
-501
-501
-501
-501
-501
-501
-500
-500
-501
-501
-501
-501
-501
-501
-500
-501
-501
-501
-501
-501
-501
-501
-500
-500
-500
-500
-500
-500
-500
-500
-500
-501
-501
-501
-501
-501
-501
-501
-500
-500
-500
-499
-500
-500
-499
-499
-500
-500
-499
-499
-499
-499
-499
-499
-500
-500
-500
-500
-500
-501
-501
-501
-501
-501
-501
-501
-500
-500
-500
-500
-500
-499
-500
-499
-499
-499
-498
-498
-498
-497
-496
-495
-495
-495
-494
-494
-494
-493
-493
-493
-492
-492
-491
-492
-492
-491
-491
-490
-491
-491
-491
-490
-490
-490
-490
-490
-490
-489
-489
-489
-490
-489
-489
-488
-488
-487
-487
-486
-487
-486
-486
-485
-483
-483
-484
-483
-483
-483
-483
-482
-482
-482
-482
-482
-481
-481
-481
-482
-482
-482
-483
-482
-483
-483
-484
-484
-484
-485
-485
-486
-486
-487
-488
-488
-489
-488
-489
-490
-490
-490
-490
-490
-490
-490
-492
-491
-493
-493
-493
-493
-493
-493
-494
-495
-495
-496
-496
-496
-497
-496
-498
-497
-497
-498
-498
-499
-499
-499
-499
-499
-499
-500
-500
-500
-500
-501
-501
-501
-501
-501
-501
-501
-501
-501
-501
-501
-501
-501
-501
-501
-501
-501
-502
-502
-502
-502
-502
-502
-502
-502
-501
-501
-502
-502
-502
-502
-502
-502
-502
-502
-502
-501
-502
-502
-502
-502
-502
-503
-503
-502
-502
-501
-501
-501
-502
-502
-503
-503
-503
-504
-505
-506
-506
-506
-508
-508
-508
-508
-508
-508
-507
-506
-504
-502
-498
-495
-491
-486
-480
-474
-467
-459
-450
-440
-430
-418
-407
-395
-382
-368
-355
-341
-328
-316
-304
-293
-283
-273
-265
-258
-252
-248
-245
-244
-244
-246
-250
-255
-262
-268
-277
-286
-296
-307
-317
-328
-340
-352
-363
-375
-385
-395
-405
-415
-423
-432
-441
-448
-455
-461
-467
-472
-477
-481
-485
-490
-493
-496
-499
-501
-503
-504
-506
-507
-509
-509
-510
-510
-510
-510
-510
-509
-510
-509
-508
-508
-508
-507
-506
-506
-505
-505
-504
-504
-504
-503
-504
-503
-504
-504
-503
-503
-503
-503
-503
-503
-503
-503
-503
-503
-505
-505
-505
-505
-505
-505
-506
-506
-505
-505
-505
-505
-505
-505
-505
-505
-505
-505
-505
-505
-505
-505
-505
-505
-505
-505
-505
-504
-504
-504
-504
-503
-503
-503
-503
-503
-503
-503
-503
-503
-502
-502
-502
-502
-502
-502
-503
-503
-503
-503
-503
-503
-503
-503
-503
-503
-502
-502
-502
-502
-503
-503
-503
-503
-503
-503
-503
-503
-503
-503
-503
-502
-502
-502
-502
-502
-502
-502
-502
-502
-502
-502
-502
-502
-502
-502
-502
-501
-501
-501
-501
-501
-501
-501
-501
-501
-501
-501
-501
-501
-501
-501
-501
-501
-501
-502
-502
-502
-502
-502
-501
-501
-501
-501
-501
-501
-502
-502
-501
-501
-501
-501
-501
-501
-500
-500
-500
-500
-500
-500
-500
-500
-500
-500
-499
-499
-499
-498
-498
-498
-498
-498
-497
-497
-497
-498
-497
-499
-498
-498
-498
-497
-497
-497
-497
-498
-497
-497
-497
-497
-496
-496
-496
-497
-496
-496
-496
-495
-495
-495
-494
-494
-493
-493
-493
-492
-492
-492
-492
-491
-491
-491
-491
-491
-491
-491
-490
-491
-490
-490
-489
-488
-488
-488
-487
-488
-487
-487
-487
-486
-485
-485
-485
-485
-484
-483
-483
-483
-483
-481
-481
-481
-480
-480
-479
-478
-478
-477
-477
-476
-475
-475
-474
-474
-474
-473
-472
-472
-472
-472
-470
-469
-468
-468
-467
-466
-465
-465
-464
-463
-463
-462
-462
-461
-461
-460
-460
-458
-458
-457
-457
-456
-456
-454
-454
-454
-453
-453
-452
-452
-452
-452
-451
-451
-450
-449
-450
-450
-449
-448
-448
-447
-447
-447
-447
-447
-446
-446
-447
-447
-447
-447
-447
-448
-448
-448
-449
-449
-450
-450
-451
-451
-451
-452
-454
-454
-454
-456
-456
-456
-458
-458
-460
-460
-462
-462
-463
-464
-465
-466
-466
-467
-467
-468
-469
-469
-471
-471
-472
-473
-473
-474
-474
-474
-476
-476
-477
-478
-479
-479
-479
-480
-481
-481
-481
-482
-483
-483
-483
-483
-484
-484
-485
-485
-486
-487
-487
-487
-487
-487
-487
-486
-487
-487
-487
-487
-487
-487
-488
-488
-488
-488
-488
-488
-488
-488
-489
-489
-489
-489
-490
-490
-490
-489
-490
-490
-491
-491
-492
-491
-491
-492
-492
-492
-492
-492
-493
-492
-493
-493
-491
-491
-491
-491
-491
-491
-492
-492
-491
-491
-491
-490
-490
-490
-491
-491
-492
-492
-492
-492
-492
-493
-493
-492
-492
-492
-493
-493
-493
-493
-493
-493
-493
-493
-493
-494
-494
-494
-494
-494
-493
-493
-493
-492
-493
-493
-492
-492
-492
-493
-493
-493
-493
-492
-492
-492
-492
-493
-493
-493
-493
-493
-492
-492
-492
-492
-493
-493
-493
-493
-493
-493
-493
-493
-493
-493
-493
-493
-493
-492
-492
-492
-491
-492
-492
-491
-491
-491
-492
-492
-492
-492
-492
-492
-492
-492
-492
-492
-492
-492
-492
-492
-492
-492
-492
-492
-492
-492
-492
-492
-492
-492
-492
-492
-492
-492
-493
-492
-492
-492
-491
-492
-491
-491
-491
-491
-491
-491
-491
-490
-490
-490
-490
-490
-490
-490
-490
-490
-490
-491
-491
-491
-491
-491
-491
-491
-491
-491
-491
-491
-491
-492
-492
-492
-492
-492
-491
-492
-492
-491
-491
-490
-490
-490
-490
-489
-489
-489
-490
-490
-489
-489
-489
-489
-489
-489
-490
-490
-490
-490
-490
-490
-490
-490
-490
-490
-490
-491
-491
-490
-490
-490
-490
-490
-490
-490
-490
-490
-491
-490
-490
-489
-489
-489
-489
-489
-490
-490
-489
-489
-489
-490
-490
-490
-490
-490
-490
-491
-491
-491
-491
-491
-491
-491
-491
-491
-492
-492
-492
-491
-491
-491
-491
-491
-490
-491
-490
-490
-490
-491
-490
-490
-490
-490
-490
-490
-490
-490
-490
-491
-491
-491
-491
-491
-490
-490
-490
-491
-491
-491
-491
-491
-491
-491
-491
-491
-491
-491
-491
-491
-491
-491
-491
-491
-491
-490
-491
-490
-490
-491
-490
-490
-490
-489
-489
-490
-490
-490
-490
-489
-489
-490
-490
-490
-491
-491
-491
-491
-491
-490
-490
-490
-490
-490
-490
-490
-490
-490
-490
-490
-489
-489
-489
-489
-489
-488
-488
-488
-487
-486
-485
-485
-485
-484
-484
-484
-484
-484
-483
-482
-482
-482
-481
-481
-481
-481
-481
-482
-481
-481
-481
-481
-481
-480
-480
-480
-480
-479
-479
-478
-478
-477
-478
-477
-477
-477
-477
-476
-477
-476
-475
-474
-474
-473
-473
-474
-474
-473
-473
-473
-474
-473
-474
-474
-474
-474
-474
-474
-475
-475
-476
-476
-476
-476
-477
-477
-478
-479
-479
-480
-481
-481
-482
-483
-483
-483
-483
-484
-485
-484
-485
-484
-485
-485
-486
-486
-487
-487
-487
-488
-488
-488
-489
-488
-489
-489
-490
-490
-491
-491
-491
-491
-491
-492
-493
-493
-493
-493
-494
-494
-494
-494
-495
-495
-495
-495
-495
-495
-495
-494
-494
-495
-494
-495
-495
-494
-494
-495
-495
-495
-495
-495
-495
-495
-494
-495
-495
-495
-495
-495
-495
-495
-495
-495
-495
-495
-495
-495
-494
-494
-494
-494
-494
-494
-494
-494
-494
-494
-495
-495
-495
-494
-495
-496
-496
-497
-497
-498
-499
-499
-500
-500
-500
-500
-500
-499
-497
-495
-492
-489
-486
-481
-476
-469
-463
-455
-447
-437
-428
-417
-405
-393
-381
-367
-355
-342
-329
-318
-306
-294
-283
-274
-266
-258
-253
-248
-245
-244
-244
-246
-248
-253
-258
-265
-273
-281
-290
-301
-310
-320
-332
-342
-353
-364
-373
-383
-392
-401
-409
-418
-425
-432
-439
-446
-452
-457
-463
-468
-471
-475
-479
-482
-484
-488
-489
-491
-493
-495
-496
-497
-498
-498
-499
-499
-499
-500
-500
-500
-499
-498
-498
-498
-498
-498
-498
-498
-497
-498
-498
-497
-497
-497
-497
-497
-497
-498
-498
-498
-498
-498
-497
-497
-497
-497
-497
-497
-497
-497
-497
-497
-497
-497
-497
-497
-497
-497
-497
-497
-498
-498
-498
-498
-498
-498
-498
-499
-499
-499
-499
-499
-499
-498
-498
-498
-498
-498
-498
-498
-498
-498
-497
-496
-496
-496
-496
-496
-496
-496
-495
-495
-495
-495
-495
-495
-495
-495
-495
-495
-496
-496
-496
-496
-495
-495
-495
-495
-495
-496
-496
-496
-496
-496
-496
-496
-497
-497
-497
-497
-497
-497
-496
-495
-495
-496
-496
-496
-496
-496
-496
-496
-496
-496
-496
-496
-496
-496
-496
-496
-496
-496
-497
-496
-496
-497
-497
-497
-497
-497
-497
-497
-497
-497
-497
-496
-496
-496
-497
-497
-496
-497
-496
-496
-496
-495
-495
-496
-495
-495
-495
-495
-495
-495
-495
-495
-495
-495
-495
-494
-494
-494
-494
-493
-494
-494
-494
-494
-494
-494
-494
-494
-494
-494
-494
-494
-494
-494
-494
-494
-494
-493
-492
-492
-492
-492
-492
-491
-491
-491
-490
-490
-490
-490
-490
-489
-489
-489
-489
-489
-488
-488
-488
-488
-488
-488
-488
-488
-487
-486
-486
-486
-487
-487
-486
-486
-486
-485
-485
-485
-485
-484
-483
-484
-483
-483
-483
-482
-482
-481
-481
-481
-480
-479
-479
-479
-478
-477
-477
-477
-475
-475
-475
-473
-473
-473
-472
-471
-470
-470
-469
-468
-468
-468
-466
-466
-466
-464
-464
-464
-463
-463
-461
-460
-460
-459
-459
-458
-458
-458
-456
-456
-456
-455
-454
-454
-453
-453
-452
-451
-451
-450
-450
-449
-448
-447
-447
-447
-445
-445
-445
-444
-443
-443
-442
-442
-442
-442
-442
-442
-442
-441
-442
-441
-441
-441
-442
-442
-442
-442
-443
-443
-444
-444
-444
-445
-446
-447
-447
-448
-448
-449
-449
-449
-451
-451
-452
-452
-452
-453
-454
-454
-455
-456
-457
-457
-457
-459
-459
-460
-461
-461
-461
-462
-462
-464
-464
-465
-466
-467
-467
-469
-470
-470
-472
-472
-473
-473
-475
-475
-476
-476
-478
-478
-479
-479
-480
-480
-480
-480
-481
-481
-481
-482
-482
-483
-483
-483
-482
-483
-483
-484
-483
-483
-483
-484
-483
-484
-484
-484
-484
-484
-485
-485
-485
-485
-485
-485
-485
-485
-485
-485
-486
-486
-486
-486
-486
-486
-486
-486
-486
-486
-486
-486
-486
-486
-487
-487
-486
-486
-487
-486
-486
-485
-485
-486
-486
-486
-486
-486
-486
-486
-486
-486
-486
-486
-487
-487
-487
-486
-486
-486
-486
-486
-486
-486
-486
-486
-486
-486
-486
-486
-486
-486
-486
-486
-486
-486
-487
-487
-487
-487
-487
-486
-486
-486
-486
-486
-486
-486
-486
-486
-486
-486
-487
-487
-487
-487
-487
-487
-487
-487
-487
-487
-488
-488
-488
-488
-488
-488
-488
-488
-488
-488
-488
-488
-488
-488
-488
-489
-488
-487
-487
-488
-488
-487
-487
-488
-488
-487
-487
-487
-487
-487
-487
-487
-487
-488
-488
-488
-487
-487
-487
-487
-487
-487
-487
-487
-488
-487
-487
-487
-487
-487
-487
-487
-487
-487
-487
-487
-487
-486
-486
-485
-485
-486
-486
-486
-486
-486
-485
-485
-485
-486
-486
-486
-486
-486
-485
-485
-486
-486
-486
-486
-486
-486
-486
-486
-486
-486
-486
-486
-486
-486
-486
-485
-485
-485
-486
-486
-486
-486
-485
-485
-485
-485
-485
-485
-485
-485
-486
-485
-486
-486
-485
-485
-485
-485
-485
-485
-485
-485
-485
-485
-485
-485
-485
-485
-485
-485
-485
-484
-485
-485
-485
-485
-485
-485
-485
-486
-486
-485
-485
-484
-484
-484
-484
-484
-484
-484
-484
-484
-484
-484
-484
-484
-484
-484
-484
-485
-484
-484
-485
-485
-485
-485
-484
-484
-485
-485
-485
-485
-485
-486
-486
-486
-486
-486
-485
-486
-485
-485
-484
-485
-485
-484
-484
-484
-484
-484
-485
-484
-484
-485
-485
-485
-485
-485
-484
-484
-485
-485
-485
-485
-485
-485
-485
-486
-486
-486
-486
-486
-486
-485
-486
-486
-486
-486
-486
-487
-486
-486
-485
-484
-484
-485
-485
-485
-485
-485
-485
-485
-485
-485
-485
-485
-485
-486
-485
-485
-485
-485
-485
-485
-485
-485
-485
-485
-486
-485
-485
-486
-485
-485
-485
-485
-484
-484
-485
-484
-484
-483
-482
-482
-481
-482
-481
-480
-481
-480
-479
-479
-479
-479
-478
-478
-478
-478
-478
-477
-477
-477
-477
-477
-476
-476
-477
-477
-476
-476
-476
-476
-475
-476
-476
-475
-475
-475
-474
-474
-474
-473
-472
-472
-472
-472
-472
-471
-471
-471
-470
-470
-469
-469
-469
-468
-468
-468
-468
-469
-469
-470
-469
-468
-469
-469
-470
-470
-470
-471
-472
-472
-473
-474
-474
-475
-475
-475
-476
-477
-477
-477
-477
-477
-477
-478
-479
-479
-479
-479
-480
-480
-480
-480
-481
-480
-482
-481
-482
-482
-482
-482
-484
-484
-484
-484
-484
-484
-485
-485
-485
-486
-486
-486
-486
-487
-487
-488
-488
-487
-488
-487
-488
-487
-488
-487
-488
-488
-488
-489
-488
-488
-489
-489
-489
-489
-489
-489
-489
-489
-489
-489
-488
-489
-489
-489
-489
-489
-489
-489
-490
-489
-489
-489
-489
-490
-490
-490
-490
-490
-490
-489
-489
-488
-488
-489
-489
-489
-489
-489
-489
-490
-491
-491
-492
-492
-493
-493
-494
-494
-494
-494
-494
-492
-492
-490
-488
-485
-482
-477
-473
-468
-462
-455
-447
-439
-430
-420
-409
-398
-385
-373
-360
-347
-335
-324
-312
-301
-290
-281
-272
-265
-258
-254
-249
-248
-247
-248
-250
-254
-258
-264
-272
-280
-289
-298
-308
-318
-328
-339
-350
-360
-370
-380
-389
-397
-406
-415
-422
-429
-436
-442
-448
-453
-458
-462
-467
-472
-475
-478
-481
-483
-486
-488
-490
-492
-493
-494
-495
-495
-497
-496
-496
-497
-497
-497
-496
-496
-496
-495
-495
-495
-495
-494
-494
-494
-494
-494
-494
-494
-494
-494
-493
-493
-493
-493
-494
-494
-494
-494
-495
-495
-495
-495
-495
-495
-495
-495
-495
-495
-495
-494
-494
-494
-493
-493
-493
-493
-493
-492
-492
-492
-492
-492
-492
-492
-492
-492
-493
-492
-492
-492
-491
-491
-491
-491
-492
-492
-492
-492
-492
-492
-492
-492
-492
-492
-493
-492
-492
-492
-493
-493
-493
-493
-493
-493
-492
-493
-493
-493
-493
-493
-493
-493
-493
-493
-493
-494
-493
-494
-493
-493
-493
-493
-493
-493
-493
-493
-493
-493
-492
-492
-492
-492
-492
-492
-492
-492
-492
-492
-492
-491
-491
-491
-491
-491
-490
-490
-490
-490
-491
-491
-490
-490
-490
-490
-490
-491
-491
-491
-490
-490
-490
-490
-489
-490
-490
-490
-490
-490
-490
-490
-490
-489
-489
-490
-490
-490
-490
-490
-490
-490
-490
-490
-491
-491
-491
-491
-490
-490
-490
-490
-491
-491
-491
-491
-491
-491
-490
-490
-490
-489
-489
-489
-488
-488
-487
-487
-488
-488
-487
-487
-487
-487
-487
-487
-486
-486
-486
-486
-485
-485
-485
-485
-484
-485
-485
-484
-484
-484
-483
-483
-483
-483
-483
-483
-482
-482
-482
-482
-481
-480
-479
-479
-478
-478
-478
-477
-477
-477
-476
-476
-476
-475
-475
-474
-474
-474
-474
-473
-473
-473
-473
-471
-471
-471
-471
-470
-470
-470
-468
-468
-467
-467
-466
-466
-464
-464
-463
-462
-462
-460
-459
-458
-457
-457
-456
-456
-454
-454
-454
-453
-452
-452
-451
-450
-450
-449
-449
-448
-448
-448
-447
-446
-445
-445
-444
-444
-444
-443
-442
-442
-442
-442
-440
-440
-440
-439
-439
-440
-439
-438
-438
-438
-436
-437
-437
-437
-436
-437
-437
-437
-436
-437
-437
-437
-437
-437
-437
-438
-439
-439
-439
-439
-440
-441
-441
-441
-443
-443
-443
-444
-445
-446
-447
-448
-448
-449
-451
-452
-452
-452
-453
-453
-453
-455
-456
-457
-457
-459
-459
-460
-460
-462
-462
-463
-463
-465
-465
-466
-466
-468
-468
-469
-469
-470
-471
-471
-471
-471
-473
-473
-473
-474
-475
-475
-475
-476
-476
-477
-476
-476
-476
-476
-476
-477
-477
-477
-477
-477
-478
-478
-478
-478
-478
-478
-477
-477
-478
-478
-478
-478
-478
-478
-478
-478
-478
-479
-479
-479
-479
-479
-479
-480
-480
-480
-480
-481
-481
-481
-480
-480
-480
-480
-480
-481
-481
-480
-480
-481
-481
-481
-481
-481
-481
-481
-481
-481
-482
-482
-482
-482
-482
-482
-482
-482
-483
-483
-482
-482
-482
-482
-483
-483
-484
-484
-484
-484
-484
-484
-483
-483
-482
-482
-482
-482
-482
-482
-482
-481
-481
-481
-482
-482
-482
-481
-482
-482
-483
-482
-482
-483
-483
-483
-483
-484
-484
-483
-484
-484
-484
-484
-484
-484
-484
-485
-485
-485
-485
-485
-484
-483
-483
-483
-483
-483
-482
-482
-482
-482
-482
-482
-482
-482
-482
-482
-482
-483
-483
-482
-482
-482
-482
-482
-483
-483
-483
-483
-483
-483
-483
-483
-483
-483
-483
-483
-483
-483
-484
-483
-483
-483
-482
-482
-482
-483
-483
-484
-484
-483
-483
-483
-483
-483
-484
-484
-485
-483
-484
-483
-484
-484
-483
-483
-483
-483
-483
-483
-483
-482
-482
-482
-482
-482
-482
-482
-482
-482
-482
-482
-482
-482
-482
-482
-481
-482
-482
-483
-482
-482
-482
-482
-482
-482
-482
-483
-483
-483
-483
-483
-483
-483
-483
-482
-482
-483
-483
-482
-482
-482
-482
-482
-482
-483
-483
-483
-483
-483
-483
-483
-483
-482
-482
-482
-482
-482
-482
-482
-482
-481
-482
-482
-481
-481
-481
-481
-481
-481
-481
-480
-480
-479
-479
-479
-479
-479
-479
-479
-479
-480
-480
-480
-481
-480
-480
-481
-481
-481
-482
-482
-482
-481
-482
-481
-481
-482
-481
-481
-481
-481
-481
-481
-481
-481
-481
-481
-481
-481
-481
-481
-481
-481
-480
-480
-480
-481
-481
-481
-481
-481
-481
-481
-481
-481
-481
-481
-482
-481
-482
-482
-481
-481
-481
-480
-480
-481
-480
-480
-480
-480
-479
-479
-479
-479
-478
-479
-479
-478
-478
-478
-477
-477
-477
-476
-476
-475
-476
-475
-475
-475
-475
-474
-474
-474
-474
-474
-473
-473
-473
-473
-473
-472
-473
-473
-473
-472
-473
-473
-473
-473
-473
-473
-473
-472
-472
-472
-472
-472
-471
-470
-470
-469
-469
-468
-468
-468
-467
-467
-466
-466
-466
-465
-465
-465
-464
-464
-464
-465
-465
-465
-465
-465
-464
-465
-466
-466
-466
-466
-467
-467
-467
-469
-469
-469
-470
-470
-470
-471
-471
-471
-472
-472
-473
-473
-473
-473
-475
-475
-475
-476
-476
-477
-476
-477
-477
-478
-478
-478
-479
-479
-479
-479
-479
-480
-479
-480
-480
-481
-482
-482
-483
-483
-483
-483
-484
-483
-484
-484
-485
-485
-485
-484
-485
-485
-485
-485
-485
-485
-485
-484
-484
-484
-484
-484
-484
-484
-484
-485
-485
-485
-485
-485
-484
-484
-484
-484
-484
-484
-484
-484
-484
-484
-484
-484
-484
-484
-485
-485
-485
-485
-485
-485
-485
-485
-485
-486
-486
-486
-487
-487
-487
-488
-489
-490
-491
-491
-492
-492
-493
-494
-493
-493
-492
-490
-489
-487
-485
-482
-479
-474
-469
-463
-457
-449
-441
-431
-422
-411
-399
-387
-376
-363
-350
-336
-323
-311
-300
-289
-278
-269
-260
-254
-248
-243
-241
-239
-240
-241
-245
-250
-256
-263
-271
-281
-291
-301
-313
-325
-336
-347
-358
-370
-380
-390
-400
-410
-419
-427
-435
-442
-448
-454
-460
-464
-469
-472
-476
-479
-483
-485
-486
-489
-490
-491
-492
-493
-493
-494
-495
-495
-494
-495
-494
-493
-493
-493
-493
-492
-492
-491
-491
-491
-491
-490
-490
-490
-489
-489
-489
-489
-489
-489
-489
-489
-488
-488
-488
-488
-488
-488
-488
-489
-489
-489
-489
-489
-490
-490
-490
-490
-490
-489
-489
-489
-488
-488
-488
-488
-487
-488
-487
-486
-486
-485
-485
-485
-485
-484
-484
-484
-484
-484
-484
-483
-484
-484
-484
-485
-485
-485
-485
-486
-487
-487
-487
-487
-487
-488
-488
-488
-488
-487
-488
-487
-488
-487
-487
-487
-487
-487
-487
-487
-487
-487
-487
-487
-487
-486
-486
-487
-487
-487
-487
-487
-487
-487
-488
-488
-488
-488
-488
-488
-489
-489
-489
-489
-489
-489
-489
-489
-489
-487
-487
-487
-487
-487
-487
-487
-487
-487
-487
-487
-487
-487
-486
-486
-487
-487
-487
-487
-487
-487
-487
-486
-486
-486
-487
-487
-487
-486
-486
-486
-486
-486
-486
-486
-485
-485
-485
-486
-486
-485
-485
-485
-484
-485
-485
-486
-485
-485
-485
-485
-485
-485
-486
-486
-485
-485
-485
-484
-484
-484
-485
-484
-484
-484
-484
-484
-484
-483
-483
-483
-482
-482
-482
-482
-482
-482
-481
-481
-481
-480
-479
-479
-479
-479
-479
-479
-478
-478
-477
-478
-478
-478
-477
-477
-477
-477
-478
-477
-477
-477
-476
-476
-476
-475
-475
-475
-474
-474
-473
-472
-472
-472
-472
-471
-470
-469
-470
-469
-468
-467
-467
-466
-466
-464
-464
-464
-464
-462
-462
-462
-461
-460
-460
-460
-460
-459
-459
-458
-457
-457
-457
-456
-455
-454
-454
-453
-453
-452
-451
-451
-449
-449
-449
-448
-448
-447
-446
-445
-444
-442
-441
-441
-441
-440
-440
-439
-439
-437
-437
-437
-437
-437
-435
-435
-436
-436
-435
-436
-435
-435
-435
-435
-435
-435
-435
-435
-435
-435
-435
-435
-435
-436
-436
-436
-436
-437
-438
-438
-439
-439
-439
-440
-441
-442
-442
-443
-444
-445
-445
-447
-447
-448
-449
-449
-451
-451
-452
-452
-453
-454
-454
-454
-455
-456
-456
-456
-458
-458
-459
-460
-461
-462
-462
-463
-463
-464
-465
-466
-466
-467
-467
-468
-468
-468
-469
-470
-470
-470
-471
-471
-471
-472
-472
-472
-473
-473
-474
-474
-474
-474
-474
-474
-475
-475
-475
-476
-476
-476
-478
-477
-477
-478
-478
-478
-478
-479
-480
-479
-479
-479
-479
-479
-479
-478
-478
-478
-478
-478
-478
-477
-477
-477
-478
-478
-478
-478
-478
-477
-477
-478
-478
-478
-478
-478
-479
-479
-479
-480
-480
-480
-481
-481
-482
-482
-482
-482
-483
-483
-482
-482
-482
-482
-482
-482
-482
-482
-482
-482
-481
-481
-481
-481
-482
-482
-483
-482
-482
-482
-483
-483
-483
-483
-483
-484
-484
-484
-484
-484
-484
-484
-485
-485
-484
-484
-484
-484
-484
-485
-484
-484
-484
-484
-483
-483
-483
-483
-483
-482
-482
-482
-482
-482
-482
-482
-482
-483
-483
-483
-483
-483
-482
-482
-482
-482
-482
-482
-482
-482
-482
-482
-482
-482
-482
-482
-482
-482
-481
-481
-481
-481
-481
-480
-481
-480
-480
-480
-480
-481
-480
-480
-480
-480
-480
-481
-480
-480
-480
-480
-480
-480
-480
-480
-480
-480
-480
-480
-479
-479
-480
-480
-480
-480
-480
-480
-480
-479
-479
-479
-478
-478
-478
-478
-478
-478
-478
-478
-478
-477
-477
-478
-478
-478
-478
-478
-479
-479
-478
-478
-478
-478
-479
-478
-478
-478
-478
-478
-478
-478
-478
-478
-478
-478
-478
-478
-478
-478
-478
-478
-478
-477
-477
-476
-477
-477
-477
-476
-476
-477
-476
-476
-476
-476
-476
-477
-477
-476
-477
-477
-477
-477
-478
-478
-478
-478
-479
-479
-479
-479
-479
-479
-480
-480
-480
-479
-480
-480
-480
-480
-479
-479
-478
-478
-478
-478
-478
-478
-478
-478
-477
-477
-477
-477
-477
-477
-478
-478
-478
-478
-478
-478
-478
-478
-477
-477
-477
-478
-477
-477
-477
-476
-476
-476
-476
-475
-474
-474
-474
-473
-473
-472
-472
-471
-471
-470
-471
-470
-471
-470
-470
-470
-471
-470
-470
-470
-470
-470
-470
-469
-469
-469
-469
-469
-468
-468
-468
-467
-467
-467
-466
-466
-465
-464
-464
-464
-464
-463
-464
-462
-462
-462
-460
-460
-461
-460
-460
-460
-459
-460
-459
-459
-460
-459
-460
-459
-460
-461
-461
-462
-461
-462
-463
-463
-464
-463
-464
-464
-465
-465
-466
-466
-467
-467
-468
-468
-468
-468
-469
-470
-470
-470
-469
-469
-469
-470
-470
-470
-471
-471
-471
-471
-472
-472
-473
-473
-473
-473
-474
-474
-475
-475
-475
-475
-476
-476
-476
-476
-476
-477
-478
-478
-478
-478
-478
-478
-479
-479
-479
-479
-479
-479
-479
-479
-480
-480
-480
-480
-480
-480
-480
-480
-480
-480
-480
-480
-480
-480
-481
-481
-480
-480
-480
-481
-480
-480
-481
-481
-481
-481
-481
-481
-481
-481
-481
-481
-481
-481
-481
-481
-481
-481
-480
-480
-480
-482
-482
-482
-482
-483
-483
-484
-485
-485
-487
-486
-487
-487
-486
-485
-483
-481
-479
-475
-471
-467
-461
-456
-448
-440
-430
-421
-410
-398
-386
-373
-360
-347
-333
-319
-305
-293
-280
-269
-259
-249
-241
-233
-228
-224
-221
-221
-222
-224
-228
-233
-240
-247
-257
-267
-278
-289
-300
-312
-324
-336
-348
-359
-371
-381
-393
-401
-410
-419
-427
-434
-441
-448
-453
-458
-462
-466
-470
-474
-476
-479
-482
-484
-486
-486
-488
-489
-490
-490
-491
-491
-491
-491
-491
-491
-491
-491
-490
-490
-490
-489
-488
-488
-487
-486
-486
-485
-485
-485
-485
-484
-484
-484
-484
-484
-483
-483
-482
-482
-483
-483
-484
-483
-484
-484
-484
-485
-485
-485
-485
-485
-485
-486
-486
-486
-486
-486
-487
-487
-487
-487
-487
-487
-487
-487
-487
-488
-488
-488
-487
-487
-487
-487
-487
-487
-486
-485
-486
-485
-485
-485
-485
-485
-484
-484
-484
-484
-484
-484
-484
-485
-485
-485
-484
-485
-485
-485
-485
-486
-486
-486
-485
-485
-485
-486
-486
-487
-487
-487
-487
-487
-487
-487
-486
-486
-486
-485
-485
-485
-484
-484
-484
-484
-484
-484
-484
-484
-484
-484
-484
-484
-484
-484
-484
-484
-484
-484
-484
-484
-485
-485
-486
-486
-486
-486
-486
-487
-486
-486
-486
-486
-486
-486
-487
-485
-485
-484
-485
-485
-485
-484
-484
-484
-483
-483
-483
-483
-482
-482
-482
-482
-482
-482
-482
-482
-482
-482
-482
-482
-482
-482
-482
-483
-483
-483
-482
-482
-483
-483
-483
-483
-483
-483
-484
-483
-482
-482
-482
-481
-481
-481
-482
-480
-480
-481
-480
-479
-479
-478
-478
-478
-478
-477
-477
-476
-476
-476
-476
-475
-475
-475
-475
-475
-474
-474
-474
-474
-474
-474
-473
-473
-473
-473
-473
-472
-471
-470
-470
-469
-469
-468
-468
-466
-466
-466
-465
-464
-464
-463
-463
-463
-462
-462
-461
-461
-461
-461
-460
-460
-459
-458
-458
-457
-457
-456
-456
-455
-455
-454
-453
-453
-452
-452
-452
-452
-451
-449
-449
-448
-448
-448
-447
-447
-445
-445
-444
-443
-443
-443
-441
-441
-441
-440
-440
-438
-438
-438
-436
-436
-436
-435
-435
-435
-433
-433
-433
-432
-432
-431
-431
-431
-430
-430
-430
-431
-430
-429
-429
-429
-429
-429
-430
-430
-430
-430
-430
-431
-432
-432
-432
-433
-433
-434
-434
-434
-435
-435
-436
-436
-437
-438
-438
-439
-440
-441
-441
-442
-443
-444
-444
-446
-446
-447
-449
-448
-449
-449
-450
-450
-452
-452
-453
-454
-455
-456
-456
-457
-458
-458
-459
-460
-460
-461
-461
-461
-462
-463
-463
-463
-464
-464
-464
-466
-466
-466
-466
-467
-467
-467
-467
-467
-468
-469
-469
-469
-469
-468
-468
-468
-468
-469
-469
-469
-469
-470
-470
-470
-470
-470
-471
-471
-471
-472
-472
-472
-472
-472
-472
-472
-473
-473
-473
-473
-473
-473
-473
-474
-474
-474
-474
-474
-474
-474
-474
-474
-473
-473
-474
-474
-474
-474
-474
-474
-474
-473
-473
-473
-473
-473
-474
-474
-474
-474
-474
-474
-474
-474
-474
-474
-474
-474
-474
-474
-474
-474
-474
-475
-475
-475
-474
-474
-474
-474
-475
-475
-474
-473
-474
-474
-474
-474
-474
-474
-474
-473
-473
-473
-473
-474
-474
-474
-474
-473
-473
-473
-473
-473
-473
-474
-474
-474
-474
-473
-474
-474
-473
-474
-474
-474
-474
-474
-474
-474
-474
-474
-473
-473
-473
-473
-472
-472
-472
-471
-471
-471
-471
-471
-471
-470
-470
-470
-470
-470
-470
-470
-470
-471
-471
-471
-471
-471
-470
-470
-471
-471
-471
-470
-471
-471
-471
-471
-471
-471
-472
-472
-471
-471
-470
-470
-471
-470
-470
-470
-470
-470
-470
-470
-470
-470
-469
-470
-470
-470
-470
-470
-469
-469
-469
-468
-468
-468
-468
-468
-468
-468
-468
-469
-469
-469
-469
-469
-468
-468
-469
-468
-467
-467
-467
-467
-467
-468
-468
-467
-468
-468
-468
-468
-468
-468
-468
-467
-467
-467
-468
-468
-468
-468
-468
-468
-468
-468
-469
-468
-467
-467
-467
-468
-468
-468
-468
-468
-468
-468
-468
-468
-468
-467
-467
-467
-467
-467
-467
-467
-467
-467
-467
-467
-467
-467
-467
-468
-468
-468
-468
-468
-468
-468
-468
-469
-469
-469
-469
-469
-470
-470
-470
-470
-470
-471
-471
-471
-471
-470
-471
-470
-469
-469
-469
-469
-469
-469
-469
-469
-468
-468
-468
-468
-468
-468
-468
-468
-468
-468
-468
-468
-468
-467
-467
-467
-467
-467
-467
-467
-467
-467
-467
-467
-467
-467
-467
-468
-468
-467
-467
-466
-466
-466
-465
-464
-465
-464
-464
-464
-464
-463
-464
-463
-463
-463
-462
-462
-462
-461
-462
-462
-462
-462
-462
-461
-461
-460
-460
-459
-459
-459
-459
-459
-458
-458
-458
-457
-457
-457
-456
-456
-455
-455
-454
-455
-454
-455
-454
-454
-454
-453
-453
-453
-453
-453
-452
-452
-452
-452
-452
-452
-452
-451
-450
-451
-451
-451
-450
-451
-451
-451
-451
-452
-452
-452
-452
-453
-453
-454
-454
-454
-455
-454
-456
-455
-457
-457
-457
-458
-458
-459
-459
-460
-461
-461
-462
-462
-462
-462
-463
-463
-463
-463
-463
-464
-464
-464
-464
-465
-465
-465
-465
-465
-466
-466
-466
-466
-466
-467
-467
-467
-467
-467
-467
-468
-468
-468
-468
-469
-468
-468
-469
-469
-469
-469
-469
-469
-470
-470
-470
-470
-470
-470
-470
-470
-470
-470
-471
-471
-471
-471
-471
-471
-471
-471
-470
-470
-470
-470
-470
-470
-470
-469
-468
-468
-468
-468
-468
-468
-469
-468
-468
-468
-468
-468
-470
-470
-471
-471
-472
-472
-472
-473
-473
-474
-475
-476
-476
-476
-475
-474
-472
-471
-469
-465
-461
-458
-452
-446
-441
-434
-424
-416
-406
-394
-383
-371
-358
-346
-333
-319
-306
-294
-282
-271
-261
-250
-242
-235
-228
-224
-220
-218
-217
-219
-221
-226
-230
-238
-244
-254
-263
-273
-284
-294
-305
-316
-327
-338
-348
-358
-367
-377
-385
-394
-402
-410
-417
-424
-429
-435
-440
-445
-450
-454
-458
-461
-464
-466
-469
-471
-473
-475
-476
-477
-477
-478
-478
-478
-478
-478
-478
-478
-477
-477
-476
-477
-476
-476
-475
-475
-474
-473
-473
-473
-473
-472
-472
-472
-472
-472
-472
-472
-472
-472
-473
-473
-473
-473
-473
-473
-473
-473
-473
-474
-474
-474
-474
-475
-475
-474
-474
-475
-475
-475
-475
-474
-475
-475
-475
-474
-474
-474
-474
-474
-474
-474
-474
-474
-474
-473
-473
-473
-473
-473
-473
-473
-473
-472
-472
-472
-472
-472
-472
-471
-471
-471
-471
-471
-471
-471
-471
-471
-471
-471
-471
-472
-471
-472
-472
-472
-472
-472
-472
-472
-472
-472
-472
-472
-472
-472
-472
-472
-472
-472
-471
-471
-471
-472
-472
-472
-471
-471
-471
-471
-470
-470
-470
-469
-470
-470
-470
-470
-470
-470
-470
-470
-470
-470
-471
-471
-470
-470
-470
-470
-470
-470
-471
-470
-470
-471
-471
-471
-470
-470
-470
-470
-470
-469
-469
-469
-469
-468
-468
-468
-469
-468
-468
-468
-468
-468
-468
-468
-468
-468
-468
-468
-467
-468
-469
-469
-468
-468
-468
-467
-467
-467
-467
-467
-467
-467
-467
-467
-467
-467
-466
-466
-466
-465
-465
-465
-464
-464
-464
-464
-463
-463
-463
-463
-462
-462
-462
-462
-461
-461
-461
-461
-461
-460
-460
-460
-459
-459
-458
-457
-457
-457
-456
-456
-455
-455
-455
-454
-454
-453
-453
-452
-452
-452
-452
-451
-451
-451
-449
-449
-449
-448
-448
-448
-447
-447
-447
-446
-446
-445
-445
-444
-443
-443
-443
-442
-441
-440
-440
-439
-439
-438
-438
-438
-436
-436
-436
-435
-434
-434
-433
-432
-432
-431
-430
-429
-429
-427
-427
-427
-425
-425
-424
-424
-423
-422
-422
-422
-421
-421
-420
-420
-420
-420
-419
-419
-417
-417
-417
-416
-416
-416
-416
-416
-416
-416
-416
-416
-416
-415
-415
-415
-415
-415
-416
-416
-416
-415
-416
-416
-416
-417
-417
-417
-418
-418
-419
-420
-420
-421
-422
-423
-424
-424
-425
-426
-427
-427
-427
-429
-429
-430
-431
-432
-432
-433
-434
-435
-436
-437
-437
-439
-439
-440
-441
-442
-442
-443
-444
-444
-446
-446
-446
-447
-448
-449
-449
-450
-451
-451
-451
-451
-452
-453
-454
-453
-453
-453
-454
-454
-454
-455
-455
-455
-455
-455
-455
-457
-457
-456
-456
-456
-457
-458
-458
-458
-458
-458
-457
-457
-459
-459
-459
-459
-459
-459
-459
-460
-460
-460
-460
-460
-461
-461
-461
-461
-460
-460
-460
-460
-460
-461
-461
-461
-461
-461
-461
-461
-461
-461
-461
-461
-461
-462
-462
-462
-462
-462
-462
-462
-462
-462
-462
-462
-462
-462
-463
-463
-463
-462
-462
-462
-463
-463
-463
-464
-463
-462
-463
-462
-462
-463
-463
-462
-462
-462
-462
-462
-462
-463
-463
-462
-462
-462
-462
-463
-462
-462
-463
-463
-463
-463
-463
-463
-463
-463
-464
-464
-464
-465
-465
-465
-466
-466
-466
-466
-465
-465
-465
-465
-464
-464
-465
-464
-464
-464
-464
-463
-463
-463
-464
-464
-464
-463
-463
-463
-463
-463
-464
-464
-464
-464
-464
-463
-464
-463
-462
-462
-462
-462
-462
-462
-463
-463
-462
-462
-462
-461
-461
-461
-461
-461
-461
-461
-461
-461
-461
-461
-461
-461
-462
-462
-462
-461
-461
-461
-461
-461
-461
-461
-460
-460
-460
-460
-461
-461
-461
-460
-460
-460
-461
-461
-461
-462
-461
-460
-461
-460
-459
-460
-460
-460
-459
-459
-459
-459
-459
-459
-459
-459
-459
-459
-459
-459
-459
-459
-459
-460
-460
-460
-460
-460
-461
-461
-461
-461
-461
-461
-461
-461
-461
-461
-461
-460
-460
-461
-460
-460
-460
-460
-460
-460
-460
-460
-459
-459
-459
-459
-459
-459
-459
-460
-460
-460
-460
-459
-459
-460
-460
-460
-460
-460
-460
-461
-461
-461
-461
-461
-461
-461
-460
-460
-461
-461
-461
-460
-461
-460
-459
-459
-460
-460
-460
-460
-460
-460
-460
-460
-459
-459
-459
-459
-459
-459
-459
-460
-460
-459
-459
-459
-459
-459
-459
-459
-459
-459
-460
-460
-460
-460
-461
-461
-461
-461
-461
-461
-460
-461
-461
-461
-460
-460
-460
-460
-459
-460
-460
-460
-460
-460
-460
-459
-459
-459
-460
-460
-460
-460
-460
-460
-460
-460
-459
-459
-459
-459
-459
-460
-460
-459
-459
-459
-460
-460
-460
-459
-458
-458
-458
-458
-457
-457
-456
-456
-456
-456
-456
-456
-455
-455
-454
-454
-453
-453
-453
-453
-452
-452
-451
-451
-451
-451
-451
-451
-450
-450
-450
-450
-449
-449
-450
-450
-449
-450
-450
-449
-450
-449
-448
-448
-449
-450
-449
-449
-449
-448
-448
-447
-448
-447
-446
-446
-446
-445
-445
-445
-444
-444
-443
-443
-442
-443
-442
-442
-442
-441
-442
-442
-442
-441
-442
-442
-442
-442
-442
-442
-443
-442
-443
-443
-443
-444
-445
-446
-445
-446
-447
-447
-448
-449
-449
-449
-450
-451
-451
-452
-452
-452
-453
-453
-454
-453
-455
-454
-455
-455
-455
-455
-456
-456
-456
-457
-456
-457
-458
-458
-458
-458
-457
-458
-458
-458
-459
-460
-460
-460
-460
-461
-461
-461
-461
-461
-462
-462
-461
-461
-461
-461
-461
-461
-461
-461
-461
-461
-461
-461
-460
-460
-460
-461
-461
-461
-460
-461
-461
-461
-460
-460
-460
-459
-460
-460
-460
-460
-460
-460
-460
-460
-460
-459
-460
-460
-460
-460
-460
-460
-460
-460
-461
-461
-462
-462
-463
-463
-463
-464
-464
-463
-463
-463
-462
-460
-458
-456
-452
-447
-443
-437
-431
-424
-418
-409
-400
-391
-379
-368
-356
-344
-332
-319
-307
-295
-282
-271
-261
-251
-242
-234
-227
-221
-217
-214
-213
-213
-214
-217
-221
-227
-234
-242
-251
-260
-269
-280
-289
-299
-310
-320
-330
-339
-350
-358
-366
-375
-383
-390
-397
-403
-409
-415
-420
-425
-430
-434
-438
-441
-445
-448
-450
-453
-455
-456
-459
-460
-460
-461
-462
-463
-463
-463
-463
-463
-463
-463
-463
-462
-462
-461
-460
-461
-460
-460
-461
-461
-459
-459
-459
-459
-459
-460
-460
-460
-460
-460
-460
-460
-460
-460
-460
-460
-460
-460
-460
-461
-461
-461
-460
-460
-460
-461
-461
-461
-460
-461
-461
-460
-459
-460
-459
-459
-460
-460
-459
-459
-459
-459
-459
-459
-459
-459
-459
-459
-459
-460
-460
-460
-460
-460
-460
-460
-460
-460
-460
-460
-460
-460
-460
-460
-460
-460
-460
-459
-459
-459
-459
-459
-457
-458
-457
-457
-456
-456
-456
-456
-456
-456
-456
-456
-456
-456
-456
-456
-455
-455
-456
-456
-456
-456
-456
-457
-457
-457
-458
-458
-458
-458
-459
-459
-458
-459
-459
-459
-458
-459
-459
-459
-458
-458
-458
-458
-458
-457
-457
-457
-457
-457
-457
-457
-457
-456
-456
-456
-456
-456
-456
-456
-456
-456
-455
-455
-455
-455
-455
-455
-455
-455
-455
-456
-456
-456
-456
-456
-455
-455
-455
-455
-455
-454
-454
-454
-453
-453
-453
-453
-453
-453
-453
-453
-453
-453
-453
-453
-454
-454
-453
-453
-453
-453
-453
-453
-454
-454
-453
-452
-452
-452
-452
-452
-452
-452
-451
-451
-451
-451
-451
-450
-450
-449
-449
-448
-448
-448
-449
-447
-447
-447
-447
-447
-447
-445
-445
-446
-445
-445
-444
-444
-444
-444
-443
-443
-442
-442
-441
-441
-441
-441
-440
-440
-439
-439
-439
-438
-438
-437
-436
-435
-434
-433
-432
-432
-431
-431
-429
-429
-428
-428
-427
-427
-425
-425
-425
-424
-424
-422
-422
-422
-422
-421
-421
-420
-419
-419
-418
-417
-416
-416
-415
-415
-414
-414
-414
-413
-413
-412
-410
-410
-409
-408
-407
-407
-406
-406
-406
-405
-405
-404
-403
-403
-403
-402
-402
-402
-402
-403
-403
-403
-403
-402
-402
-402
-403
-403
-403
-404
-404
-404
-404
-404
-406
-406
-406
-407
-408
-408
-408
-408
-408
-409
-410
-410
-411
-412
-412
-413
-413
-414
-416
-416
-416
-417
-418
-419
-419
-421
-422
-422
-423
-424
-425
-426
-426
-428
-428
-429
-430
-431
-431
-432
-432
-433
-434
-434
-435
-435
-436
-435
-435
-436
-436
-436
-437
-437
-438
-438
-438
-439
-439
-439
-439
-440
-440
-440
-441
-440
-440
-441
-441
-441
-441
-441
-442
-442
-442
-443
-443
-443
-444
-443
-443
-444
-444
-444
-444
-444
-444
-444
-444
-443
-443
-443
-444
-444
-444
-445
-445
-445
-445
-445
-445
-446
-446
-446
-446
-447
-447
-447
-447
-447
-446
-446
-447
-447
-447
-447
-446
-446
-446
-446
-445
-445
-445
-445
-445
-445
-445
-444
-444
-444
-444
-444
-445
-445
-445
-445
-445
-445
-445
-445
-445
-445
-445
-446
-446
-446
-445
-446
-446
-447
-447
-446
-446
-447
-447
-447
-447
-447
-447
-447
-447
-447
-447
-447
-447
-448
-447
-446
-447
-446
-446
-446
-446
-446
-447
-446
-446
-446
-446
-446
-446
-446
-446
-446
-446
-446
-447
-447
-447
-447
-447
-448
-448
-448
-448
-448
-448
-447
-448
-448
-449
-449
-449
-448
-448
-448
-448
-448
-447
-446
-446
-446
-446
-446
-446
-446
-446
-445
-445
-445
-445
-445
-446
-446
-446
-446
-446
-446
-446
-446
-446
-446
-446
-446
-446
-446
-446
-446
-447
-447
-447
-446
-447
-447
-447
-448
-447
-448
-447
-446
-446
-446
-447
-447
-447
-447
-446
-446
-446
-446
-446
-446
-446
-446
-446
-445
-445
-445
-445
-445
-445
-445
-445
-444
-444
-444
-445
-444
-444
-444
-445
-445
-445
-445
-445
-445
-445
-445
-445
-444
-445
-445
-444
-444
-445
-445
-444
-444
-445
-445
-445
-445
-444
-444
-444
-444
-444
-444
-444
-444
-444
-444
-444
-445
-445
-444
-444
-444
-445
-445
-445
-445
-445
-445
-445
-445
-445
-445
-444
-444
-444
-444
-444
-444
-444
-444
-444
-444
-444
-444
-444
-444
-445
-445
-445
-444
-445
-445
-445
-445
-446
-445
-445
-445
-446
-446
-445
-446
-445
-445
-445
-445
-446
-446
-446
-447
-446
-445
-445
-445
-445
-445
-445
-446
-445
-446
-446
-446
-446
-446
-445
-446
-446
-446
-445
-446
-446
-446
-446
-446
-446
-446
-446
-446
-446
-446
-446
-446
-446
-446
-446
-446
-446
-447
-447
-447
-446
-447
-446
-446
-446
-445
-446
-446
-446
-446
-446
-446
-445
-445
-445
-445
-445
-444
-444
-445
-445
-444
-444
-443
-443
-442
-443
-442
-441
-441
-441
-440
-440
-439
-439
-439
-438
-439
-438
-439
-438
-437
-438
-437
-437
-436
-436
-437
-437
-437
-436
-436
-436
-436
-436
-436
-436
-436
-435
-435
-435
-434
-434
-434
-434
-433
-433
-432
-432
-431
-431
-432
-431
-431
-431
-431
-430
-430
-430
-430
-429
-429
-429
-428
-429
-429
-430
-429
-429
-429
-430
-429
-430
-430
-430
-431
-431
-431
-432
-433
-434
-434
-435
-435
-436
-436
-436
-437
-438
-438
-438
-439
-440
-440
-440
-441
-441
-442
-442
-442
-443
-443
-442
-442
-442
-442
-443
-443
-443
-443
-443
-443
-444
-444
-444
-444
-444
-445
-445
-446
-446
-446
-446
-447
-447
-447
-447
-448
-448
-448
-448
-448
-449
-449
-449
-449
-449
-449
-449
-449
-449
-448
-448
-448
-447
-448
-448
-448
-448
-447
-447
-447
-447
-447
-447
-447
-447
-447
-447
-446
-447
-447
-447
-447
-447
-447
-447
-447
-447
-448
-448
-449
-449
-450
-450
-451
-452
-452
-453
-453
-453
-454
-453
-452
-452
-452
-450
-449
-447
-443
-440
-436
-431
-426
-420
-414
-406
-398
-388
-379
-368
-357
-345
-333
-321
-308
-296
-284
-273
-262
-251
-241
-233
-226
-219
-214
-211
-208
-208
-208
-210
-212
-217
-223
-230
-237
-246
-255
-266
-275
-285
-295
-306
-316
-327
-335
-345
-355
-362
-371
-379
-386
-392
-399
-405
-411
-415
-421
-425
-428
-432
-435
-438
-441
-443
-445
-447
-448
-449
-451
-452
-452
-451
-452
-451
-451
-451
-451
-451
-451
-450
-450
-450
-450
-449
-449
-448
-449
-449
-448
-448
-448
-448
-448
-447
-447
-447
-448
-448
-447
-447
-447
-448
-448
-448
-448
-448
-447
-448
-448
-448
-447
-447
-446
-447
-446
-447
-447
-447
-447
-447
-447
-447
-447
-447
-447
-447
-447
-447
-448
-448
-447
-447
-447
-447
-447
-447
-447
-447
-447
-447
-447
-447
-447
-447
-447
-447
-447
-446
-447
-448
-447
-446
-446
-446
-446
-446
-445
-445
-445
-446
-445
-445
-445
-446
-446
-446
-446
-446
-446
-446
-446
-446
-445
-445
-445
-446
-446
-446
-446
-446
-446
-446
-446
-446
-446
-447
-447
-447
-446
-446
-446
-446
-445
-445
-445
-445
-445
-445
-445
-445
-445
-445
-445
-445
-445
-444
-444
-445
-445
-445
-445
-445
-445
-445
-445
-445
-445
-445
-445
-445
-446
-446
-445
-445
-445
-445
-446
-446
-446
-445
-445
-444
-444
-444
-444
-444
-444
-444
-443
-443
-443
-443
-443
-442
-442
-442
-442
-442
-442
-442
-442
-441
-441
-441
-442
-442
-442
-442
-442
-442
-442
-441
-441
-441
-441
-441
-441
-440
-440
-440
-439
-439
-438
-438
-438
-438
-438
-438
-437
-437
-437
-437
-437
-436
-436
-436
-436
-436
-436
-435
-435
-434
-434
-434
-434
-434
-434
-433
-433
-432
-432
-432
-431
-431
-431
-430
-429
-429
-429
-427
-426
-426
-426
-425
-425
-425
-424
-423
-423
-422
-421
-421
-420
-420
-419
-419
-418
-418
-418
-418
-417
-416
-415
-415
-414
-414
-413
-413
-412
-412
-412
-411
-410
-410
-409
-409
-409
-408
-408
-406
-405
-404
-403
-403
-403
-401
-401
-401
-400
-399
-399
-398
-398
-398
-397
-397
-397
-396
-396
-395
-395
-395
-395
-395
-394
-394
-394
-394
-394
-394
-394
-394
-394
-394
-394
-394
-394
-394
-394
-395
-394
-394
-395
-395
-396
-396
-396
-397
-398
-397
-399
-399
-399
-401
-401
-402
-403
-403
-404
-406
-406
-406
-408
-408
-409
-410
-411
-411
-413
-413
-413
-415
-416
-417
-417
-418
-418
-420
-421
-421
-422
-422
-422
-422
-423
-423
-424
-424
-425
-425
-426
-427
-427
-427
-428
-428
-428
-428
-428
-428
-429
-429
-429
-430
-430
-430
-431
-431
-431
-432
-432
-432
-432
-432
-432
-432
-432
-432
-433
-433
-433
-433
-432
-432
-432
-432
-432
-432
-432
-432
-432
-432
-432
-432
-432
-432
-433
-432
-432
-432
-432
-432
-432
-432
-432
-432
-433
-433
-433
-433
-433
-433
-434
-434
-434
-434
-434
-434
-434
-434
-434
-434
-434
-433
-434
-434
-434
-434
-434
-434
-434
-434
-434
-434
-434
-434
-434
-435
-435
-435
-435
-435
-435
-435
-434
-434
-435
-435
-436
-436
-436
-436
-436
-436
-436
-436
-437
-437
-438
-437
-436
-436
-436
-436
-437
-436
-436
-437
-437
-437
-437
-437
-437
-437
-437
-437
-437
-437
-437
-437
-437
-438
-437
-437
-437
-437
-437
-437
-437
-437
-437
-437
-437
-437
-437
-437
-437
-437
-436
-436
-436
-435
-435
-435
-435
-435
-435
-435
-435
-435
-435
-435
-435
-435
-435
-436
-435
-435
-435
-436
-436
-436
-436
-436
-436
-436
-436
-436
-436
-436
-436
-436
-436
-436
-436
-436
-436
-435
-435
-434
-434
-433
-433
-432
-433
-432
-432
-432
-432
-432
-431
-431
-431
-431
-432
-432
-432
-432
-431
-432
-432
-432
-432
-432
-432
-432
-432
-433
-433
-433
-433
-433
-432
-432
-432
-432
-432
-433
-433
-432
-432
-432
-431
-431
-431
-432
-432
-432
-432
-431
-431
-431
-432
-432
-432
-432
-432
-432
-432
-432
-432
-432
-432
-432
-432
-432
-432
-433
-433
-433
-433
-432
-432
-432
-432
-432
-432
-432
-432
-431
-431
-430
-431
-431
-430
-430
-430
-431
-431
-430
-430
-430
-430
-430
-431
-431
-431
-431
-432
-431
-431
-431
-432
-432
-431
-432
-432
-432
-432
-432
-432
-432
-432
-432
-432
-432
-432
-432
-432
-432
-431
-430
-431
-431
-430
-430
-430
-430
-430
-430
-430
-430
-430
-430
-430
-430
-430
-430
-429
-430
-430
-430
-430
-430
-430
-430
-430
-431
-431
-432
-431
-431
-431
-431
-431
-431
-432
-432
-432
-432
-431
-431
-431
-431
-431
-430
-431
-431
-430
-431
-431
-431
-430
-430
-430
-431
-430
-430
-430
-430
-429
-429
-429
-428
-428
-428
-428
-427
-427
-427
-427
-427
-426
-425
-426
-425
-425
-424
-424
-424
-423
-423
-422
-422
-422
-422
-421
-421
-421
-420
-420
-420
-420
-420
-419
-419
-419
-419
-419
-419
-419
-419
-419
-418
-418
-419
-418
-418
-418
-417
-417
-417
-416
-416
-415
-415
-414
-415
-413
-413
-412
-411
-410
-410
-410
-409
-409
-409
-409
-409
-409
-409
-409
-410
-409
-410
-411
-412
-412
-413
-414
-414
-414
-415
-415
-416
-417
-418
-418
-419
-419
-419
-420
-420
-421
-421
-422
-423
-423
-424
-423
-423
-423
-424
-424
-425
-425
-425
-425
-425
-426
-426
-426
-427
-427
-427
-427
-428
-427
-427
-428
-427
-427
-428
-428
-428
-429
-428
-428
-428
-428
-429
-430
-430
-430
-430
-430
-431
-431
-431
-431
-430
-431
-431
-431
-431
-432
-432
-432
-431
-431
-431
-432
-432
-432
-432
-432
-432
-432
-432
-432
-431
-431
-431
-431
-431
-431
-431
-431
-431
-431
-431
-431
-430
-430
-430
-431
-431
-432
-431
-431
-432
-432
-432
-433
-434
-434
-434
-435
-435
-435
-436
-436
-435
-435
-433
-431
-430
-426
-423
-420
-415
-410
-403
-396
-388
-380
-372
-362
-351
-339
-327
-315
-303
-290
-278
-266
-255
-244
-233
-224
-214
-208
-201
-197
-194
-192
-192
-193
-195
-199
-205
-212
-219
-228
-238
-247
-259
-269
-280
-292
-302
-313
-323
-334
-343
-352
-361
-370
-377
-385
-391
-398
-403
-408
-412
-417
-420
-424
-427
-428
-430
-432
-434
-436
-437
-438
-438
-439
-439
-439
-439
-438
-438
-438
-438
-438
-437
-437
-436
-436
-436
-436
-435
-435
-434
-434
-434
-434
-433
-433
-434
-434
-434
-434
-434
-434
-434
-434
-434
-433
-434
-433
-434
-434
-434
-434
-434
-434
-434
-434
-435
-435
-435
-435
-435
-435
-435
-435
-435
-435
-436
-436
-436
-436
-436
-436
-435
-435
-435
-435
-435
-435
-435
-435
-435
-435
-436
-435
-436
-435
-434
-434
-434
-434
-435
-435
-435
-435
-435
-436
-436
-436
-436
-436
-436
-436
-436
-436
-436
-436
-435
-435
-435
-435
-435
-435
-435
-435
-435
-434
-434
-434
-434
-434
-434
-434
-434
-435
-434
-434
-433
-434
-434
-434
-434
-434
-434
-435
-435
-434
-435
-435
-435
-436
-436
-436
-435
-435
-435
-435
-435
-435
-434
-434
-434
-434
-435
-435
-435
-435
-434
-434
-434
-434
-434
-433
-434
-433
-433
-433
-433
-432
-432
-433
-433
-432
-433
-432
-432
-432
-432
-432
-432
-432
-432
-432
-432
-432
-432
-432
-432
-432
-432
-431
-431
-431
-431
-431
-431
-431
-431
-431
-431
-431
-431
-431
-431
-430
-430
-429
-429
-429
-428
-428
-428
-428
-428
-427
-427
-427
-427
-426
-426
-426
-426
-426
-426
-426
-425
-425
-425
-424
-424
-424
-424
-423
-423
-423
-423
-422
-422
-422
-421
-421
-421
-420
-421
-420
-420
-420
-419
-418
-418
-419
-418
-418
-417
-417
-417
-416
-416
-415
-415
-414
-414
-413
-413
-412
-411
-411
-410
-409
-409
-408
-407
-407
-407
-405
-405
-405
-404
-403
-403
-402
-401
-400
-400
-400
-399
-398
-398
-396
-396
-395
-394
-394
-393
-393
-392
-392
-390
-390
-389
-389
-388
-387
-387
-386
-386
-386
-385
-385
-384
-384
-384
-383
-382
-382
-382
-382
-381
-381
-380
-380
-380
-380
-380
-380
-379
-379
-378
-378
-378
-378
-378
-379
-380
-380
-380
-380
-380
-381
-381
-382
-383
-383
-384
-385
-386
-387
-387
-389
-389
-390
-391
-391
-393
-393
-395
-395
-397
-397
-398
-399
-399
-400
-401
-402
-402
-402
-403
-404
-404
-405
-405
-406
-407
-407
-408
-408
-408
-408
-410
-410
-411
-411
-411
-413
-413
-413
-415
-415
-415
-416
-416
-417
-418
-419
-419
-420
-420
-421
-422
-422
-422
-423
-423
-424
-424
-423
-423
-423
-423
-423
-423
-423
-423
-423
-423
-423
-423
-423
-423
-423
-423
-423
-423
-423
-423
-423
-424
-424
-424
-424
-424
-425
-425
-425
-425
-426
-426
-426
-426
-426
-427
-427
-426
-426
-426
-425
-425
-425
-425
-425
-425
-426
-426
-425
-425
-425
-425
-425
-425
-426
-426
-426
-426
-427
-427
-427
-427
-427
-427
-428
-428
-428
-428
-428
-428
-429
-429
-429
-428
-428
-428
-429
-429
-429
-429
-429
-428
-429
-429
-428
-428
-429
-429
-429
-429
-429
-429
-430
-430
-430
-429
-429
-429
-430
-430
-430
-429
-429
-429
-429
-430
-430
-430
-429
-429
-429
-429
-429
-429
-429
-429
-429
-429
-430
-429
-429
-429
-428
-429
-429
-429
-429
-429
-429
-429
-429
-429
-429
-429
-429
-430
-429
-429
