# Simple Text Format
# Sampling Rate (Hz):= 1200.00
# Resolution:= 12
# Labels:= ECG	aVL
# Age:=	46
# Gender:=	Masculino
-27
-27
-27
-26
-27
-25
-25
-24
-24
-24
-24
-24
-24
-22
-22
-23
-24
-24
-23
-23
-22
-22
-23
-23
-24
-24
-24
-24
-25
-25
-25
-26
-26
-26
-26
-27
-29
-29
-28
-28
-28
-28
-29
-29
-29
-29
-28
-29
-28
-29
-29
-29
-28
-29
-28
-28
-28
-28
-28
-27
-28
-27
-28
-27
-28
-27
-28
-27
-27
-28
-28
-28
-27
-28
-28
-28
-29
-29
-29
-29
-29
-29
-29
-31
-31
-31
-31
-31
-32
-33
-33
-34
-34
-35
-35
-36
-37
-39
-39
-40
-40
-42
-42
-44
-45
-46
-46
-47
-48
-49
-50
-50
-50
-50
-50
-50
-50
-49
-47
-45
-42
-40
-38
-35
-32
-27
-22
-17
-12
-7
-1
5
12
21
28
36
45
54
65
74
85
95
104
114
123
134
144
154
162
170
178
184
191
197
200
203
204
204
203
202
199
194
189
182
175
166
158
148
138
126
114
103
92
81
70
59
47
37
27
19
11
3
-5
-12
-18
-23
-26
-30
-33
-37
-39
-40
-41
-42
-42
-43
-44
-44
-43
-43
-42
-42
-42
-42
-41
-40
-40
-39
-39
-39
-40
-40
-39
-39
-39
-40
-41
-41
-42
-41
-42
-42
-42
-43
-43
-43
-43
-43
-43
-43
-44
-44
-43
-43
-42
-42
-43
-43
-43
-42
-41
-42
-42
-42
-42
-42
-41
-41
-41
-41
-42
-42
-41
-41
-41
-42
-42
-42
-42
-41
-41
-41
-42
-43
-42
-42
-41
-41
-41
-42
-41
-41
-41
-41
-40
-41
-41
-42
-42
-41
-40
-40
-41
-41
-41
-41
-41
-40
-41
-41
-42
-42
-41
-42
-41
-42
-42
-43
-42
-42
-42
-42
-43
-43
-43
-43
-42
-42
-43
-43
-44
-44
-43
-43
-42
-43
-43
-42
-42
-41
-41
-40
-41
-41
-41
-41
-40
-39
-40
-39
-40
-40
-39
-38
-38
-38
-39
-38
-39
-38
-37
-38
-38
-39
-39
-38
-37
-37
-38
-38
-38
-38
-38
-37
-38
-38
-38
-38
-37
-36
-36
-36
-36
-36
-36
-36
-35
-35
-34
-35
-35
-34
-35
-34
-34
-34
-33
-33
-34
-32
-32
-32
-32
-32
-32
-31
-30
-30
-30
-30
-30
-29
-29
-29
-29
-28
-29
-29
-28
-28
-27
-26
-27
-27
-27
-27
-26
-26
-26
-26
-26
-26
-25
-24
-24
-25
-25
-25
-24
-23
-23
-23
-23
-23
-23
-22
-21
-21
-21
-21
-21
-21
-20
-19
-19
-19
-20
-20
-19
-18
-18
-18
-17
-18
-18
-17
-17
-16
-16
-16
-16
-16
-16
-15
-15
-15
-15
-16
-15
-15
-14
-14
-14
-15
-14
-15
-14
-14
-14
-15
-15
-15
-15
-15
-15
-17
-18
-18
-18
-19
-18
-19
-20
-21
-21
-22
-22
-22
-22
-23
-24
-24
-24
-24
-24
-25
-26
-26
-26
-26
-26
-26
-27
-28
-27
-28
-28
-27
-28
-28
-28
-29
-29
-29
-29
-30
-31
-31
-30
-30
-30
-30
-31
-32
-32
-31
-30
-30
-31
-31
-32
-31
-31
-31
-30
-32
-32
-32
-31
-31
-31
-30
-31
-31
-31
-32
-31
-31
-30
-31
-32
-32
-32
-31
-32
-32
-34
-34
-33
-33
-33
-33
-34
-35
-35
-35
-35
-35
-35
-35
-36
-36
-36
-35
-35
-35
-35
-35
-34
-33
-33
-32
-32
-33
-32
-31
-30
-30
-29
-30
-29
-29
-28
-27
-27
-27
-28
-27
-27
-27
-26
-26
-26
-27
-26
-26
-26
-26
-26
-26
-27
-27
-26
-26
-27
-27
-27
-27
-27
-26
-25
-25
-25
-25
-25
-24
-23
-22
-22
-23
-22
-21
-21
-21
-20
-21
-21
-21
-20
-20
-20
-20
-20
-21
-21
-21
-21
-20
-21
-22
-23
-24
-24
-23
-24
-25
-26
-28
-28
-28
-28
-28
-29
-31
-31
-31
-32
-31
-32
-33
-34
-33
-34
-33
-33
-35
-35
-36
-35
-35
-35
-36
-36
-37
-37
-37
-36
-36
-36
-37
-37
-37
-36
-36
-36
-36
-36
-36
-35
-34
-34
-33
-33
-33
-33
-32
-31
-31
-31
-31
-31
-32
-31
-30
-30
-32
-33
-33
-32
-32
-32
-32
-33
-34
-34
-34
-33
-33
-33
-34
-34
-34
-34
-34
-34
-35
-35
-35
-35
-34
-34
-34
-35
-36
-36
-35
-34
-34
-35
-35
-35
-35
-36
-35
-36
-37
-38
-38
-38
-37
-38
-37
-39
-39
-40
-40
-40
-40
-40
-41
-41
-41
-40
-40
-40
-40
-40
-40
-40
-39
-38
-39
-39
-40
-40
-40
-40
-40
-42
-43
-44
-45
-46
-47
-48
-50
-52
-53
-54
-55
-55
-56
-57
-58
-58
-58
-57
-56
-55
-54
-52
-50
-47
-44
-41
-37
-34
-28
-23
-18
-11
-6
1
8
16
25
35
44
53
64
74
84
96
106
117
127
137
148
158
169
179
187
195
201
207
212
216
218
218
217
215
212
208
203
196
188
179
169
159
148
136
124
112
100
87
76
65
53
42
30
20
12
3
-5
-12
-19
-25
-31
-35
-37
-40
-43
-45
-48
-48
-49
-49
-49
-49
-49
-49
-48
-48
-46
-46
-46
-46
-46
-45
-44
-43
-43
-44
-44
-45
-44
-44
-44
-45
-45
-46
-46
-46
-46
-46
-46
-47
-47
-47
-46
-46
-47
-47
-47
-47
-47
-46
-46
-46
-46
-47
-47
-46
-46
-46
-46
-47
-47
-47
-47
-46
-46
-47
-46
-47
-46
-45
-45
-45
-45
-45
-45
-44
-45
-44
-45
-45
-45
-45
-44
-43
-44
-45
-44
-44
-44
-44
-45
-44
-45
-45
-45
-44
-44
-44
-44
-45
-45
-44
-44
-44
-44
-44
-45
-45
-44
-44
-44
-44
-44
-45
-45
-45
-45
-45
-45
-46
-46
-45
-44
-43
-44
-44
-45
-45
-44
-43
-42
-42
-43
-42
-42
-42
-42
-41
-42
-42
-42
-42
-41
-41
-41
-41
-42
-42
-41
-41
-41
-41
-41
-41
-42
-41
-40
-41
-41
-41
-41
-41
-40
-40
-40
-40
-40
-40
-40
-40
-40
-39
-40
-40
-40
-39
-38
-39
-39
-40
-39
-39
-38
-37
-38
-38
-37
-37
-37
-36
-36
-35
-36
-36
-36
-36
-35
-35
-35
-36
-36
-35
-35
-34
-33
-34
-34
-35
-34
-33
-32
-33
-33
-32
-33
-31
-30
-31
-31
-31
-30
-30
-28
-28
-28
-27
-28
-27
-26
-25
-25
-24
-25
-24
-24
-24
-23
-23
-23
-23
-23
-23
-21
-21
-21
-21
-21
-21
-20
-19
-18
-19
-18
-19
-18
-18
-17
-16
-17
-17
-18
-17
-17
-17
-17
-17
-17
-17
-17
-17
-17
-17
-17
-17
-18
-16
-17
-17
-17
-17
-17
-17
-17
-16
-16
-17
-18
-17
-17
-17
-18
-19
-20
-20
-20
-21
-20
-21
-22
-24
-24
-25
-25
-25
-26
-28
-29
-28
-29
-28
-28
-29
-30
-30
-30
-30
-30
-30
-30
-30
-30
-30
-29
-29
-29
-29
-30
-30
-30
-29
-29
-29
-30
-31
-31
-30
-31
-30
-32
-33
-33
-32
-32
-32
-32
-33
-33
-33
-32
-33
-33
-33
-33
-34
-33
-33
-33
-33
-33
-34
-34
-33
-33
-33
-32
-34
-33
-33
-33
-33
-32
-33
-33
-34
-34
-34
-34
-34
-34
-35
-36
-36
-35
-35
-35
-35
-36
-35
-35
-34
-35
-34
-34
-34
-34
-33
-33
-32
-33
-32
-32
-32
-31
-30
-30
-30
-31
-30
-29
-29
-29
-28
-29
-29
-29
-29
-29
-28
-29
-30
-30
-29
-28
-28
-27
-28
-27
-26
-26
-25
-25
-24
-24
-23
-23
-22
-21
-20
-20
-20
-20
-18
-18
-17
-17
-17
-17
-17
-17
-17
-16
-17
-17
-18
-18
-18
-18
-18
-19
-19
-20
-19
-19
-19
-20
-21
-21
-21
-21
-21
-21
-22
-23
-24
-25
-24
-25
-25
-27
-27
-28
-28
-28
-29
-29
-30
-31
-31
-31
-31
-31
-31
-31
-32
-32
-32
-32
-32
-32
-32
-33
-32
-32
-31
-31
-32
-32
-33
-32
-32
-32
-32
-33
-33
-33
-33
-32
-33
-33
-34
-34
-33
-33
-33
-33
-34
-35
-34
-34
-34
-34
-34
-34
-35
-35
-35
-34
-34
-34
-35
-35
-35
-33
-34
-33
-34
-34
-35
-34
-33
-33
-34
-35
-34
-35
-35
-34
-35
-36
-36
-37
-37
-37
-37
-37
-37
-38
-38
-39
-38
-38
-39
-40
-39
-40
-39
-39
-39
-39
-40
-40
-39
-38
-38
-37
-38
-37
-37
-37
-36
-35
-36
-36
-36
-36
-35
-36
-36
-37
-38
-39
-39
-39
-40
-40
-42
-43
-43
-44
-45
-46
-47
-49
-50
-52
-51
-53
-53
-55
-55
-55
-55
-54
-53
-52
-51
-49
-47
-43
-40
-36
-32
-28
-23
-18
-12
-5
2
9
16
25
35
45
56
66
76
87
98
109
122
133
144
155
166
177
187
198
206
213
219
224
228
231
232
232
231
227
223
217
211
204
195
184
173
161
149
137
124
111
98
84
72
60
49
37
26
15
6
-2
-10
-17
-24
-30
-35
-39
-43
-45
-47
-50
-52
-53
-53
-53
-52
-53
-53
-53
-52
-51
-50
-48
-49
-49
-48
-47
-47
-47
-46
-47
-47
-47
-47
-47
-46
-46
-47
-48
-47
-47
-47
-47
-48
-48
-49
-49
-48
-48
-47
-47
-48
-48
-47
-46
-46
-46
-47
-47
-47
-46
-46
-45
-46
-45
-46
-46
-46
-46
-45
-47
-47
-47
-47
-46
-46
-47
-47
-48
-48
-47
-46
-46
-47
-47
-48
-47
-47
-46
-47
-47
-48
-48
-47
-46
-45
-45
-45
-46
-45
-45
-44
-44
-44
-44
-45
-44
-44
-43
-44
-44
-45
-45
-45
-44
-44
-45
-45
-46
-46
-46
-46
-46
-45
-46
-47
-46
-46
-45
-45
-45
-46
-45
-45
-44
-44
-44
-44
-44
-44
-43
-42
-42
-42
-42
-42
-42
-42
-42
-41
-41
-42
-42
-41
-41
-41
-40
-41
-41
-41
-41
-40
-40
-40
-41
-40
-41
-40
-40
-40
-40
-41
-41
-41
-40
-40
-40
-40
-41
-40
-40
-39
-39
-38
-39
-39
-38
-37
-37
-37
-37
-37
-36
-35
-34
-34
-33
-34
-34
-34
-33
-33
-32
-33
-33
-33
-33
-32
-32
-33
-33
-34
-33
-33
-33
-32
-33
-33
-32
-33
-32
-31
-31
-32
-31
-32
-31
-30
-29
-30
-30
-30
-30
-29
-27
-27
-27
-27
-27
-26
-25
-24
-23
-24
-23
-23
-22
-21
-20
-20
-20
-20
-19
-18
-17
-16
-16
-16
-17
-16
-15
-14
-14
-14
-14
-14
-14
-14
-13
-14
-14
-15
-15
-15
-13
-13
-13
-14
-15
-14
-14
-14
-14
-14
-15
-15
-15
-15
-14
-15
-16
-17
-16
-17
-17
-16
-17
-18
-19
-20
-20
-19
-21
-21
-22
-23
-23
-23
-23
-24
-25
-26
-27
-26
-26
-27
-27
-27
-28
-28
-28
-28
-28
-29
-30
-30
-30
-30
-30
-30
-31
-31
-32
-31
-31
-31
-32
-32
-33
-33
-32
-31
-32
-32
-32
-33
-33
-32
-33
-32
-32
-33
-33
-33
-32
-32
-33
-33
-33
-33
-32
-32
-32
-32
-32
-33
-33
-32
-32
-32
-32
-33
-33
-33
-33
-33
-33
-33
-34
-34
-33
-33
-34
-35
-35
-35
-35
-35
-34
-35
-35
-35
-35
-35
-34
-33
-33
-32
-33
-31
-30
-30
-29
-29
-30
-29
-29
-28
-28
-27
-27
-28
-28
-27
-28
-27
-27
-28
-28
-28
-28
-27
-27
-27
-28
-28
-28
-27
-27
-27
-28
-28
-28
-27
-27
-27
-27
-27
-27
-26
-26
-25
-25
-24
-24
-24
-23
-23
-22
-22
-22
-21
-20
-19
-18
-17
-17
-17
-17
-16
-15
-15
-14
-15
-15
-16
-16
-16
-17
-17
-18
-19
-21
-20
-21
-22
-24
-24
-26
-27
-28
-28
-29
-29
-30
-32
-32
-32
-32
-32
-33
-34
-35
-34
-33
-33
-34
-34
-34
-34
-33
-33
-33
-33
-33
-33
-33
-33
-32
-32
-33
-33
-33
-32
-32
-31
-32
-33
-33
-33
-32
-32
-33
-33
-34
-34
-34
-34
-34
-35
-36
-37
-37
-37
-36
-37
-36
-37
-38
-38
-38
-37
-37
-37
-38
-38
-38
-37
-37
-37
-38
-39
-38
-38
-38
-37
-38
-38
-39
-38
-38
-38
-38
-38
-38
-38
-39
-38
-38
-38
-39
-39
-39
-38
-39
-38
-39
-39
-40
-39
-39
-39
-39
-39
-40
-41
-41
-40
-40
-40
-40
-41
-41
-40
-40
-40
-39
-40
-41
-40
-39
-39
-39
-40
-40
-41
-41
-41
-41
-43
-44
-45
-46
-46
-47
-48
-49
-51
-52
-53
-53
-54
-55
-56
-57
-57
-56
-55
-54
-53
-52
-50
-48
-45
-41
-37
-34
-30
-25
-19
-14
-7
0
7
15
23
32
43
53
63
73
83
95
107
118
130
141
151
162
173
183
193
201
208
214
219
223
226
227
227
225
222
218
213
207
200
190
180
168
156
144
133
120
106
93
80
67
56
43
31
20
10
0
-7
-15
-21
-28
-34
-39
-43
-46
-48
-50
-52
-54
-54
-54
-54
-53
-54
-54
-54
-53
-52
-50
-50
-49
-49
-48
-48
-47
-47
-45
-46
-46
-46
-47
-46
-47
-46
-47
-48
-48
-48
-47
-47
-47
-47
-49
-49
-48
-48
-47
-48
-48
-48
-47
-48
-46
-47
-47
-48
-48
-47
-46
-46
-46
-46
-47
-46
-45
-46
-46
-45
-46
-47
-46
-46
-46
-46
-47
-48
-48
-47
-48
-47
-47
-48
-48
-48
-48
-47
-47
-47
-48
-47
-47
-47
-47
-46
-47
-47
-47
-47
-46
-45
-46
-46
-47
-46
-46
-46
-46
-45
-46
-46
-46
-45
-45
-46
-46
-46
-46
-45
-45
-45
-45
-45
-46
-46
-45
-45
-45
-45
-46
-46
-46
-45
-45
-46
-46
-47
-46
-46
-45
-45
-45
-46
-46
-46
-46
-45
-45
-45
-44
-45
-44
-44
-43
-43
-43
-44
-43
-42
-42
-41
-40
-41
-40
-40
-40
-39
-39
-38
-39
-38
-38
-38
-38
-37
-37
-38
-38
-37
-36
-36
-37
-37
-37
-37
-36
-35
-35
-36
-36
-36
-36
-35
-35
-36
-36
-37
-37
-36
-36
-36
-36
-37
-37
-36
-36
-36
-35
-35
-35
-35
-34
-33
-33
-33
-33
-32
-32
-32
-30
-30
-30
-30
-30
-30
-28
-28
-27
-28
-28
-28
-27
-27
-26
-27
-26
-27
-27
-25
-25
-25
-25
-25
-25
-24
-24
-22
-22
-21
-22
-21
-21
-19
-18
-18
-18
-18
-18
-17
-16
-15
-15
-15
-15
-15
-15
-14
-15
-15
-15
-16
-16
-15
-16
-16
-17
-18
-18
-18
-17
-17
-18
-19
-20
-20
-20
-20
-20
-21
-22
-23
-24
-23
-24
-25
-25
-26
-28
-28
-27
-28
-28
-29
-30
-31
-30
-30
-30
-31
-32
-32
-31
-31
-31
-31
-32
-31
-32
-31
-31
-30
-31
-31
-31
-32
-31
-31
-30
-31
-32
-31
-32
-32
-31
-32
-33
-34
-34
-33
-33
-34
-33
-35
-35
-35
-35
-35
-35
-35
-35
-36
-36
-35
-35
-36
-36
-36
-36
-36
-35
-35
-36
-36
-37
-36
-36
-36
-36
-37
-37
-37
-38
-37
-37
-38
-38
-39
-40
-39
-39
-39
-39
-40
-41
-40
-40
-40
-39
-39
-40
-40
-40
-38
-38
-38
-38
-37
-37
-36
-35
-34
-34
-34
-34
-32
-32
-31
-31
-30
-31
-31
-31
-30
-30
-30
-31
-31
-31
-31
-30
-30
-30
-31
-31
-30
-30
-28
-29
-28
-28
-29
-28
-27
-26
-26
-27
-27
-27
-26
-25
-25
-25
-25
-26
-25
-24
-24
-24
-24
-25
-25
-24
-24
-25
-25
-26
-26
-26
-25
-25
-26
-26
-27
-27
-28
-28
-28
-29
-29
-30
-30
-31
-30
-31
-31
-33
-33
-34
-34
-34
-34
-35
-35
-36
-36
-36
-36
-36
-37
-37
-38
-38
-37
-37
-37
-37
-38
-38
-37
-37
-37
-37
-38
-38
-38
-38
-37
-37
-38
-38
-38
-39
-38
-38
-38
-38
-39
-39
-39
-38
-37
-38
-38
-38
-37
-37
-36
-36
-36
-37
-36
-35
-35
-35
-36
-36
-37
-37
-37
-36
-36
-37
-37
-38
-39
-38
-39
-39
-40
-41
-41
-41
-40
-41
-41
-42
-42
-42
-42
-40
-41
-40
-41
-41
-41
-40
-39
-39
-40
-40
-41
-40
-39
-40
-40
-41
-40
-41
-40
-40
-40
-40
-41
-41
-41
-40
-40
-40
-40
-40
-41
-40
-40
-40
-41
-42
-42
-43
-42
-43
-43
-45
-46
-47
-47
-48
-49
-50
-51
-53
-54
-55
-55
-56
-56
-56
-57
-58
-58
-57
-57
-57
-56
-56
-54
-52
-50
-48
-45
-43
-38
-35
-30
-25
-20
-16
-9
-2
5
13
22
29
37
47
56
66
76
86
95
105
114
124
133
141
150
157
164
170
177
181
184
187
187
187
185
184
181
176
171
164
158
149
141
132
122
111
100
89
79
69
59
48
38
27
19
10
2
-6
-13
-20
-26
-31
-35
-39
-43
-47
-49
-52
-52
-54
-54
-55
-55
-56
-56
-55
-55
-54
-54
-54
-53
-53
-52
-50
-51
-51
-50
-50
-50
-49
-49
-49
-50
-50
-50
-50
-50
-50
-50
-51
-52
-52
-51
-51
-52
-52
-53
-53
-52
-52
-52
-52
-52
-52
-52
-52
-51
-51
-51
-51
-51
-51
-50
-50
-50
-50
-51
-51
-50
-49
-49
-49
-49
-50
-49
-49
-49
-49
-48
-49
-48
-49
-48
-48
-47
-48
-48
-48
-47
-48
-48
-47
-48
-48
-48
-48
-48
-47
-48
-48
-49
-49
-49
-48
-49
-49
-50
-50
-50
-49
-49
-50
-50
-50
-51
-50
-49
-49
-50
-51
-50
-50
-49
-49
-50
-50
-49
-49
-49
-48
-48
-48
-48
-48
-48
-47
-46
-46
-46
-47
-46
-47
-46
-46
-46
-46
-47
-46
-45
-45
-45
-45
-45
-45
-45
-45
-44
-44
-44
-45
-45
-45
-44
-44
-45
-45
-46
-46
-45
-45
-45
-45
-46
-45
-45
-45
-45
-45
-44
-44
-44
-44
-43
-42
-42
-42
-42
-42
-41
-40
-39
-40
-40
-40
-40
-39
-38
-38
-39
-39
-39
-39
-38
-38
-38
-38
-39
-39
-38
-38
-38
-38
-39
-38
-38
-37
-37
-37
-37
-37
-37
-36
-36
-36
-36
-36
-36
-36
-34
-34
-33
-33
-33
-33
-32
-30
-30
-29
-29
-29
-28
-28
-27
-27
-26
-25
-25
-25
-24
-23
-23
-23
-23
-23
-23
-23
-22
-22
-22
-22
-22
-22
-22
-22
-22
-22
-23
-23
-23
-22
-22
-22
-23
-23
-23
-22
-23
-23
-23
-24
-24
-24
-24
-24
-25
-25
-26
-27
-27
-26
-26
-27
-28
-29
-30
-29
-30
-30
-31
-32
-32
-32
-32
-32
-33
-34
-35
-36
-35
-36
-36
-37
-38
-39
-39
-39
-39
-39
-40
-41
-42
-42
-42
-42
-42
-43
-44
-44
-43
-43
-43
-44
-44
-44
-44
-44
-43
-43
-44
-43
-43
-43
-43
-43
-43
-43
-43
-43
-43
-42
-42
-42
-42
-43
-42
-42
-41
-41
-42
-42
-42
-42
-42
-42
-42
-43
-43
-43
-44
-43
-43
-44
-44
-45
-45
-44
-44
-44
-44
-44
-44
-44
-44
-44
-43
-43
-43
-43
-42
-41
-41
-41
-40
-41
-40
-39
-39
-39
-38
-38
-37
-37
-37
-36
-36
-36
-36
-36
-36
-35
-35
-35
-36
-35
-35
-35
-35
-35
-35
-35
-35
-35
-34
-33
-34
-35
-35
-34
-34
-33
-32
-33
-33
-32
-32
-32
-31
-30
-31
-31
-31
-30
-30
-29
-30
-30
-30
-30
-30
-30
-30
-30
-31
-31
-32
-32
-31
-33
-33
-34
-35
-35
-36
-36
-37
-38
-40
-40
-41
-41
-42
-43
-44
-45
-46
-46
-46
-46
-47
-48
-48
-48
-48
-47
-48
-48
-49
-49
-49
-49
-49
-49
-49
-50
-50
-49
-49
-49
-49
-49
-50
-49
-49
-50
-50
-50
-51
-51
-51
-50
-51
-52
-52
-52
-52
-51
-52
-52
-53
-53
-53
-54
-53
-54
-54
-55
-56
-56
-56
-55
-55
-56
-57
-57
-57
-57
-56
-56
-57
-57
-57
-56
-56
-56
-57
-57
-57
-58
-58
-57
-57
-58
-59
-60
-59
-59
-59
-59
-59
-60
-60
-59
-59
-59
-60
-60
-60
-59
-59
-58
-58
-58
-58
-59
-58
-58
-57
-57
-58
-59
-58
-58
-58
-57
-58
-59
-59
-60
-59
-59
-59
-59
-61
-61
-60
-61
-60
-61
-62
-63
-62
-63
-64
-64
-66
-68
-69
-69
-70
-70
-72
-72
-74
-75
-76
-76
-76
-75
-75
-75
-74
-73
-71
-69
-66
-65
-61
-57
-54
-49
-45
-40
-36
-31
-24
-16
-9
-1
6
15
23
32
41
50
58
67
75
84
94
103
111
118
124
131
137
142
147
150
152
153
152
151
150
148
143
139
133
126
119
111
102
93
83
73
62
52
42
32
22
12
2
-6
-15
-23
-31
-38
-44
-49
-55
-59
-62
-66
-69
-71
-73
-73
-74
-74
-75
-75
-75
-76
-74
-73
-73
-73
-73
-72
-71
-69
-69
-68
-68
-68
-67
-66
-66
-65
-65
-66
-66
-65
-65
-65
-66
-66
-68
-68
-68
-68
-67
-69
-69
-69
-69
-69
-69
-70
-71
-71
-71
-71
-71
-70
-71
-71
-72
-71
-70
-70
-70
-70
-70
-70
-69
-69
-69
-68
-69
-68
-69
-68
-67
-67
-68
-68
-68
-68
-67
-67
-67
-66
-66
-66
-66
-66
-65
-65
-65
-65
-65
-65
-64
-64
-64
-64
-65
-65
-65
-64
-64
-64
-64
-65
-65
-64
-63
-64
-64
-64
-64
-63
-64
-63
-63
-64
-63
-64
-63
-62
-62
-63
-63
-63
-62
-61
-61
-61
-61
-62
-62
-62
-61
-61
-62
-62
-62
-62
-62
-61
-61
-61
-61
-62
-62
-61
-61
-61
-61
-61
-61
-61
-60
-60
-61
-61
-62
-62
-61
-60
-60
-60
-60
-60
-60
-59
-59
-59
-58
-59
-59
-59
-58
-57
-58
-58
-58
-58
-56
-56
-55
-56
-55
-56
-56
-55
-54
-54
-54
-55
-55
-54
-53
-53
-53
-53
-53
-52
-52
-52
-52
-51
-52
-51
-51
-50
-49
-49
-49
-49
-49
-49
-48
-47
-48
-48
-48
-47
-46
-45
-45
-44
-45
-45
-44
-43
-43
-42
-42
-41
-41
-41
-40
-40
-40
-40
-40
-39
-38
-37
-37
-36
-37
-37
-36
-35
-34
-34
-34
-33
-33
-33
-32
-32
-33
-33
-33
-33
-33
-32
-32
-33
-33
-33
-34
-33
-33
-33
-34
-35
-35
-35
-35
-35
-35
-36
-36
-36
-36
-35
-35
-36
-37
-37
-37
-37
-36
-36
-37
-38
-38
-38
-38
-38
-39
-40
-40
-41
-40
-40
-42
-43
-44
-44
-45
-45
-45
-46
-47
-48
-49
-50
-49
-50
-51
-51
-52
-53
-52
-52
-52
-51
-52
-52
-52
-51
-51
-51
-51
-51
-51
-51
-51
-51
-51
-52
-52
-52
-52
-51
-51
-52
-52
-53
-52
-52
-52
-52
-52
-52
-53
-52
-52
-52
-51
-53
-52
-53
-52
-51
-52
-53
-53
-53
-53
-53
-52
-53
-53
-53
-54
-54
-53
-53
-53
-54
-55
-54
-53
-52
-52
-52
-52
-52
-52
-52
-51
-51
-50
-50
-50
-49
-49
-49
-48
-48
-48
-48
-47
-47
-47
-46
-46
-46
-45
-46
-45
-45
-45
-44
-45
-45
-44
-44
-44
-45
-45
-45
-44
-44
-44
-44
-44
-44
-43
-42
-42
-41
-41
-41
-41
-40
-39
-39
-38
-39
-39
-38
-37
-37
-38
-38
-37
-38
-38
-37
-37
-37
-38
-38
-38
-38
-38
-37
-38
-39
-40
-40
-39
-40
-40
-41
-41
-43
-43
-43
-43
-44
-45
-46
-47
-47
-47
-47
-48
-48
-49
-49
-48
-49
-49
-49
-49
-50
-49
-48
-48
-49
-49
-49
-48
-48
-47
-47
-47
-47
-48
-47
-46
-45
-46
-45
-46
-46
-46
-45
-45
-45
-45
-45
-45
-46
-45
-45
-45
-46
-47
-46
-46
-46
-46
-47
-47
-47
-48
-48
-47
-47
-47
-48
-48
-47
-47
-47
-47
-47
-47
-48
-46
-46
-46
-46
-47
-47
-46
-46
-46
-46
-46
-46
-47
-46
-46
-46
-46
-47
-47
-47
-46
-46
-45
-46
-46
-47
-47
-46
-45
-46
-47
-46
-46
-47
-46
-46
-47
-46
-47
-47
-46
-46
-46
-47
-46
-47
-47
-46
-46
-46
-47
-48
-48
-48
-49
-49
-50
-52
-53
-54
-55
-55
-56
-58
-60
-61
-61
-62
-62
-63
-63
-63
-63
-63
-62
-60
-59
-58
-57
-54
-52
-48
-44
-41
-37
-33
-28
-22
-17
-11
-5
3
10
18
27
36
44
53
61
71
80
90
100
108
116
125
134
142
150
156
161
166
170
172
174
175
173
171
168
164
161
155
149
140
132
122
113
104
94
83
73
63
52
42
33
23
14
5
-4
-10
-17
-22
-28
-33
-38
-42
-44
-47
-48
-50
-52
-54
-54
-54
-54
-53
-54
-54
-54
-53
-52
-51
-50
-50
-50
-49
-49
-48
-47
-47
-47
-47
-47
-47
-46
-47
-47
-48
-48
-48
-47
-47
-47
-47
-48
-49
-48
-48
-47
-48
-48
-49
-49
-49
-48
-48
-49
-50
-50
-50
-50
-49
-49
-49
-49
-50
-49
-48
-48
-48
-48
-49
-49
-49
-48
-48
-49
-49
-49
-48
-48
-47
-47
-47
-48
-47
-48
-47
-46
-46
-46
-47
-47
-46
-46
-46
-46
-47
-47
-47
-46
-47
-46
-46
-47
-47
-47
-47
-46
-46
-47
-47
-47
-47
-46
-46
-46
-46
-47
-47
-46
-45
-45
-46
-46
-47
-46
-46
-46
-46
-46
-47
-48
-47
-47
-47
-48
-48
-49
-48
-48
-48
-48
-47
-48
-48
-47
-47
-47
-46
-47
-47
-46
-46
-45
-45
-46
-46
-47
-46
-45
-45
-45
-45
-45
-45
-44
-44
-44
-44
-44
-44
-44
-43
-42
-42
-41
-42
-41
-41
-41
-40
-40
-40
-40
-40
-39
-38
-38
-38
-38
-39
-38
-38
-38
-37
-37
-38
-38
-38
-37
-36
-36
-37
-37
-37
-36
-35
-35
-35
-35
-35
-35
-35
-34
-33
-34
-34
-34
-34
-33
-32
-32
-33
-32
-33
-32
-31
-31
-30
-30
-30
-30
-29
-29
-29
-28
-29
-29
-29
-28
-28
-27
-27
-28
-28
-27
-26
-26
-25
-26
-26
-26
-25
-23
-23
-23
-24
-23
-23
-22
-22
-20
-21
-21
-21
-21
-20
-20
-20
-20
-21
-21
-20
-21
-21
-22
-22
-23
-22
-22
-23
-23
-24
-24
-25
-25
-25
-24
-24
-25
-25
-25
-25
-25
-25
-25
-26
-26
-25
-25
-25
-25
-25
-26
-26
-25
-25
-26
-26
-26
-26
-27
-27
-27
-27
-27
-28
-28
-29
-28
-28
-29
-30
-30
-30
-30
-30
-30
-30
-31
-31
-31
-32
-31
-31
-31
-32
-33
-32
-31
-31
-31
-32
-32
-32
-31
-31
-31
-31
-31
-31
-31
-31
-31
-31
-31
-32
-32
-33
-32
-32
-32
-33
-33
-34
-33
-34
-34
-33
-35
-35
-36
-36
-35
-36
-36
-37
-37
-37
-37
-36
-37
-37
-37
-37
-37
-36
-35
-35
-35
-35
-35
-34
-33
-33
-32
-32
-32
-32
-31
-30
-29
-29
-30
-29
-29
-28
-28
-27
-28
-28
-28
-28
-27
-27
-27
-27
-28
-28
-27
-27
-26
-26
-26
-26
-25
-25
-24
-25
-24
-25
-25
-24
-24
-24
-23
-23
-23
-23
-22
-22
-21
-21
-21
-21
-21
-20
-19
-20
-20
-20
-20
-20
-19
-19
-20
-20
-21
-21
-21
-21
-21
-22
-24
-24
-24
-23
-24
-24
-25
-27
-27
-27
-27
-27
-27
-28
-29
-28
-28
-27
-27
-27
-28
-27
-27
-27
-26
-25
-25
-26
-25
-25
-24
-24
-24
-24
-25
-24
-24
-24
-23
-24
-24
-25
-24
-24
-23
-23
-24
-25
-25
-25
-24
-25
-25
-26
-26
-26
-26
-26
-26
-26
-27
-27
-28
-27
-26
-27
-27
-28
-28
-28
-28
-27
-27
-28
-28
-28
-27
-26
-26
-26
-27
-27
-26
-26
-26
-26
-25
-26
-26
-26
-25
-25
-25
-26
-26
-26
-25
-25
-25
-25
-26
-25
-25
-25
-24
-24
-25
-26
-26
-26
-26
-26
-26
-27
-28
-27
-27
-27
-27
-28
-28
-28
-27
-28
-28
-27
-29
-29
-30
-30
-29
-31
-32
-33
-34
-35
-35
-35
-36
-37
-39
-40
-41
-41
-42
-42
-43
-43
-43
-42
-41
-41
-40
-39
-37
-34
-31
-27
-24
-21
-17
-12
-6
-1
5
11
17
25
32
41
50
58
68
76
85
95
105
115
125
134
142
151
161
170
177
184
190
195
199
202
205
205
204
202
199
195
191
186
179
170
162
152
143
133
122
112
100
89
78
68
58
48
38
29
20
13
7
2
-5
-10
-14
-18
-22
-23
-25
-26
-28
-29
-30
-30
-29
-29
-29
-29
-29
-29
-27
-27
-27
-27
-27
-27
-26
-25
-26
-25
-26
-27
-27
-28
-27
-27
-28
-29
-29
-29
-28
-28
-29
-29
-30
-30
-29
-29
-29
-29
-29
-29
-30
-29
-29
-29
-29
-29
-30
-29
-29
-29
-28
-29
-29
-30
-29
-29
-29
-29
-29
-29
-29
-29
-27
-27
-28
-27
-27
-28
-26
-26
-25
-25
-25
-25
-25
-24
-24
-24
-24
-25
-25
-25
-24
-25
-26
-26
-27
-26
-25
-25
-25
-26
-26
-26
-26
-25
-24
-24
-24
-25
-25
-24
-23
-23
-24
-24
-24
-24
-23
-22
-22
-22
-23
-23
-22
-21
-21
-21
-21
-22
-22
-21
-20
-20
-21
-21
-22
-21
-22
-21
-21
-21
-22
-23
-22
-22
-22
-23
-24
-23
-24
-24
-23
-23
-23
-24
-23
-24
-23
-22
-22
-22
-22
-22
-22
-21
-20
-19
-20
-20
-20
-20
-19
-19
-19
-20
-20
-20
-20
-19
-18
-19
-19
-20
-19
-19
-19
-18
-19
-20
-19
-19
-18
-18
-18
-19
-19
-18
-18
-17
-17
-16
-17
-17
-16
-15
-14
-14
-15
-14
-14
-13
-13
-13
-13
-13
-13
-13
-12
-11
-11
-11
-12
-12
-11
-10
-9
-9
-10
-10
-10
-9
-8
-8
-8
-8
-9
-8
-8
-7
-7
-7
-8
-8
-7
-6
-6
-4
-5
-5
-5
-4
-3
-3
-3
-3
-2
-2
0
1
1
0
1
1
2
3
2
3
2
2
2
2
3
3
2
1
1
2
2
2
2
3
2
2
1
1
2
0
-1
-2
-2
-2
-2
-3
-4
-4
-6
-5
-6
-6
-6
-7
-8
-8
-8
-8
-8
-8
-9
-8
-9
-8
-8
-7
-8
-8
-8
-8
-8
-7
-7
-8
-8
-8
-7
-7
-7
-7
-7
-8
-8
-8
-8
-8
-8
-9
-10
-10
-10
-10
-10
-11
-11
-12
-11
-12
-12
-12
-12
-13
-14
-13
-13
-13
-14
-15
-15
-15
-15
-15
-15
-16
-16
-16
-15
-16
-15
-16
-16
-16
-17
-17
-16
-16
-16
-17
-17
-16
-16
-15
-14
-15
-15
-14
-14
-14
-12
-12
-12
-13
-12
-11
-11
-10
-11
-11
-11
-11
-11
-10
-9
-11
-11
-11
-10
-10
-10
-10
-10
-10
-11
-9
-9
-9
-8
-8
-9
-8
-7
-6
-6
-5
-5
-5
-4
-3
-2
-2
-2
-2
-2
-2
-1
-1
-1
-1
-1
-1
-1
-1
0
-1
-1
-1
-1
-1
-1
-1
-2
-3
-3
-4
-4
-4
-5
-6
-7
-8
-8
-8
-8
-9
-10
-11
-12
-12
-12
-12
-12
-13
-13
-12
-13
-12
-13
-14
-14
-13
-13
-12
-12
-13
-13
-13
-13
-13
-12
-12
-12
-13
-13
-13
-12
-13
-13
-14
-14
-14
-14
-13
-14
-14
-15
-15
-14
-14
-13
-13
-14
-14
-13
-14
-13
-13
-14
-14
-14
-14
-13
-13
-13
-13
-14
-14
-15
-14
-13
-14
-15
-15
-16
-15
-15
-15
-15
-16
-17
-17
-17
-16
-17
-18
-18
-19
-19
-19
-19
-19
-20
-20
-20
-21
-20
-20
-21
-22
-22
-21
-20
-20
-19
-20
-20
-20
-19
-19
-18
-18
-18
-19
-19
-18
-18
-18
-18
-19
-20
-20
-19
-20
-21
-22
-23
-24
-25
-25
-26
-27
-28
-30
-32
-32
-33
-33
-35
-37
-38
-38
-38
-38
-38
-38
-39
-38
-37
-36
-34
-32
-31
-29
-26
-22
-18
-15
-11
-7
-2
4
10
17
24
32
39
47
57
67
77
86
97
107
116
128
139
149
159
168
177
186
195
204
210
216
220
223
226
227
227
225
222
217
213
206
199
191
181
170
159
148
137
126
114
102
89
78
67
56
46
37
27
18
10
4
-2
-8
-13
-18
-22
-24
-27
-28
-30
-31
-33
-32
-33
-32
-32
-32
-32
-31
-30
-30
-28
-28
-28
-28
-28
-27
-27
-26
-26
-27
-27
-27
-27
-27
-27
-27
-27
-28
-29
-28
-28
-28
-28
-29
-30
-30
-29
-29
-28
-29
-29
-30
-29
-30
-29
-29
-29
-30
-31
-30
-30
-30
-31
-32
-32
-32
-32
-32
-32
-32
-33
-33
-32
-32
-32
-31
-32
-33
-33
-32
-31
-31
-31
-32
-32
-31
-30
-30
-30
-30
-30
-30
-29
-29
-29
-28
-29
-29
-29
-29
-28
-28
-29
-29
-30
-29
-28
-28
-28
-29
-29
-29
-28
-28
-27
-27
-27
-27
-27
-27
-26
-27
-28
-28
-28
-28
-28
-27
-27
-29
-29
-29
-29
-29
-29
-29
-29
-30
-30
-30
-29
-29
-29
-30
-30
-29
-28
-27
-27
-27
-28
-28
-27
-26
-25
-26
-25
-26
-26
-25
-24
-24
-25
-25
-26
-25
-25
-24
-24
-24
-24
-24
-24
-24
-23
-23
-24
-24
-24
-23
-23
-22
-23
-23
-24
-23
-22
-22
-21
-22
-22
-22
-22
-21
-20
-20
-19
-20
-20
-19
-18
-18
-18
-18
-18
-17
-17
-16
-16
-16
-16
-16
-16
-15
-15
-14
-15
-15
-15
-14
-14
-13
-14
-14
-14
-14
-14
-13
-12
-13
-13
-12
-11
-11
-11
-11
-10
-10
-10
-9
-9
-7
-8
-7
-7
-7
-6
-5
-4
-5
-4
-4
-3
-2
-2
-1
-1
0
0
0
1
2
2
1
1
2
2
3
3
3
3
3
3
3
3
3
2
1
1
0
1
0
-1
-2
-3
-3
-4
-3
-4
-5
-7
-7
-8
-8
-8
-9
-9
-10
-10
-9
-9
-9
-10
-11
-11
-10
-9
-8
-8
-8
-9
-8
-7
-7
-6
-6
-7
-8
-8
-7
-7
-7
-7
-9
-9
-10
-9
-9
-9
-10
-11
-11
-12
-11
-11
-11
-11
-12
-12
-13
-12
-13
-13
-14
-14
-14
-13
-12
-13
-13
-13
-14
-13
-12
-12
-12
-12
-13
-13
-13
-12
-11
-12
-13
-12
-12
-12
-12
-12
-12
-13
-13
-12
-12
-12
-12
-13
-13
-13
-12
-12
-11
-12
-13
-12
-12
-11
-10
-10
-10
-11
-10
-10
-10
-9
-9
-9
-9
-9
-8
-7
-7
-7
-7
-7
-7
-6
-5
-4
-4
-5
-5
-4
-4
-3
-3
-3
-3
-2
-1
0
0
0
-1
0
1
2
2
3
4
4
4
5
6
7
7
7
7
8
8
9
9
8
8
8
8
8
8
8
7
6
5
5
5
4
3
2
1
0
-1
0
-2
-2
-4
-5
-5
-5
-6
-6
-6
-7
-8
-7
-7
-7
-7
-8
-8
-9
-8
-8
-7
-7
-9
-8
-8
-7
-7
-6
-7
-7
-8
-6
-6
-6
-6
-7
-7
-7
-7
-6
-6
-7
-8
-8
-8
-8
-7
-8
-9
-10
-10
-9
-9
-9
-10
-10
-10
-11
-10
-11
-11
-11
-12
-12
-11
-11
-10
-11
-11
-12
-12
-12
-11
-11
-11
-12
-12
-13
-12
-11
-12
-13
-13
-13
-13
-12
-12
-12
-12
-13
-13
-12
-12
-11
-12
-11
-12
-11
-11
-11
-11
-11
-12
-12
-11
-11
-10
-11
-11
-12
-12
-11
-11
-11
-11
-12
-13
-12
-12
-12
-12
-13
-14
-15
-15
-15
-16
-16
-18
-19
-20
-21
-21
-23
-24
-26
-26
-28
-29
-29
-30
-30
-32
-32
-31
-30
-29
-28
-26
-24
-22
-18
-14
-10
-6
-1
5
10
17
24
31
40
48
57
67
78
88
100
110
121
132
144
155
166
178
188
198
208
217
227
234
240
244
247
250
251
251
249
246
241
237
230
223
214
205
193
181
170
158
145
133
120
107
94
82
72
61
50
39
30
22
14
8
2
-4
-9
-14
-18
-20
-21
-23
-24
-26
-27
-27
-27
-26
-25
-25
-25
-24
-23
-22
-21
-20
-21
-20
-20
-19
-20
-20
-20
-20
-21
-21
-21
-21
-21
-21
-22
-22
-22
-21
-21
-21
-21
-22
-21
-20
-21
-20
-20
-20
-20
-20
-19
-19
-19
-19
-19
-19
-19
-18
-18
-18
-18
-19
-18
-19
-18
-19
-19
-20
-19
-19
-18
-18
-18
-19
-19
-19
-18
-18
-18
-17
-18
-18
-18
-18
-18
-18
-18
-19
-20
-19
-18
-19
-18
-20
-20
-20
-20
-20
-20
-20
-20
-21
-21
-20
-21
-21
-20
-21
-21
-21
-20
-20
-20
-20
-19
-19
-19
-18
-18
-18
-18
-18
-18
-18
-17
-17
-17
-18
-18
-18
-17
-17
-16
-17
-18
-18
-17
-17
-16
-17
-17
-18
-18
-17
-16
-17
-17
-18
-18
-17
-17
-17
-17
-18
-18
-18
-18
-17
-17
-16
-17
-17
-16
-17
-16
-15
-16
-16
-16
-15
-14
-13
-13
-13
-14
-14
-13
-12
-11
-11
-11
-12
-12
-11
-10
-10
-10
-11
-11
-10
-9
-9
-9
-10
-10
-10
-10
-9
-9
-9
-9
-10
-10
-9
-8
-8
-8
-9
-8
-9
-8
-7
-7
-7
-7
-7
-7
-6
-5
-6
-5
-6
-5
-4
-3
-3
-4
-4
-4
-3
-2
-1
0
-1
0
0
1
2
2
4
3
4
5
6
7
8
8
8
8
9
10
11
11
12
11
11
12
12
13
13
13
12
12
13
14
14
13
12
12
12
12
13
12
11
11
10
10
11
10
10
10
9
8
9
8
8
7
5
5
4
5
5
4
3
2
2
1
1
1
0
-1
-1
-1
-2
-2
-2
-2
-3
-3
-3
-2
-3
-3
-2
-3
-3
-3
-2
-2
-2
-2
-2
-2
-1
-1
-1
-2
-2
-2
-2
-1
-1
-1
-2
-2
-3
-3
-2
-2
-3
-4
-4
-5
-4
-5
-5
-5
-6
-7
-6
-6
-6
-6
-8
-8
-8
-8
-8
-8
-8
-9
-9
-9
-9
-8
-9
-9
-10
-9
-9
-8
-8
-8
-8
-8
-7
-7
-6
-6
-6
-6
-6
-5
-5
-4
-3
-3
-4
-3
-3
-3
-1
-1
-1
-2
-2
-1
0
0
1
0
1
1
2
1
2
2
1
1
1
2
2
2
2
2
2
3
4
4
4
4
4
4
5
6
6
6
6
6
7
7
9
8
8
8
8
9
9
9
9
9
8
8
8
8
9
8
7
7
6
6
7
6
5
4
4
3
3
3
2
0
0
-2
-2
-2
-3
-4
-5
-5
-5
-6
-5
-6
-6
-6
-7
-6
-6
-6
-6
-6
-7
-6
-5
-5
-6
-6
-7
-6
-6
-6
-5
-6
-7
-6
-7
-6
-6
-6
-7
-7
-8
-8
-8
-8
-8
-9
-10
-10
-10
-10
-10
-10
-11
-11
-12
-11
-11
-11
-12
-12
-12
-12
-13
-12
-12
-12
-13
-13
-12
-12
-11
-11
-11
-11
-12
-11
-10
-10
-9
-10
-10
-10
-9
-9
-9
-8
-9
-9
-8
-8
-8
-8
-8
-8
-8
-8
-7
-7
-8
-8
-8
-8
-9
-8
-8
-9
-10
-10
-10
-10
-10
-10
-12
-12
-13
-13
-14
-14
-15
-15
-17
-17
-18
-18
-18
-19
-20
-22
-21
-22
-23
-23
-24
-26
-26
-26
-27
-27
-28
-29
-30
-29
-29
-28
-27
-26
-25
-24
-21
-18
-14
-11
-8
-3
1
7
13
19
26
33
41
50
59
70
79
89
100
111
122
135
147
159
170
181
193
205
216
226
235
242
249
255
260
263
265
265
263
261
257
253
247
239
230
218
208
197
185
171
159
144
131
118
105
93
80
68
56
45
36
27
19
12
5
-2
-7
-11
-15
-17
-20
-22
-24
-25
-25
-26
-26
-25
-26
-26
-25
-24
-23
-23
-23
-23
-22
-21
-20
-20
-20
-21
-21
-21
-21
-20
-20
-21
-22
-22
-22
-22
-22
-22
-22
-22
-23
-22
-21
-21
-21
-21
-21
-21
-20
-20
-19
-20
-20
-19
-20
-19
-18
-17
-18
-18
-18
-17
-18
-17
-17
-18
-17
-17
-18
-17
-18
-18
-19
-19
-18
-17
-17
-17
-18
-18
-18
-18
-18
-17
-18
-19
-18
-18
-19
-18
-18
-18
-19
-20
-19
-19
-18
-19
-19
-20
-20
-19
-18
-18
-19
-19
-20
-19
-19
-18
-19
-19
-20
-20
-20
-20
-19
-18
-19
-19
-19
-19
-18
-17
-18
-18
-18
-18
-17
-17
-16
-17
-16
-16
-16
-14
-14
-14
-14
-15
-14
-14
-13
-13
-14
-14
-15
-14
-14
-13
-13
-13
-14
-14
-14
-13
-12
-12
-13
-13
-13
-12
-12
-12
-12
-13
-12
-13
-12
-12
-12
-13
-14
-13
-14
-13
-12
-13
-13
-14
-14
-13
-12
-12
-13
-13
-13
-13
-12
-12
-11
-12
-12
-11
-11
-10
-10
-9
-9
-10
-9
-8
-7
-7
-7
-7
-6
-6
-5
-4
-4
-4
-5
-5
-4
-3
-3
-3
-2
-3
-2
-1
-1
-1
-1
-1
-1
-1
-1
0
0
0
-1
-1
0
0
1
1
2
1
2
3
4
5
5
6
6
6
8
8
9
9
9
9
11
12
12
13
12
13
13
14
14
14
15
14
14
14
14
15
14
13
13
13
12
12
13
12
11
11
9
10
9
9
9
8
7
7
6
5
5
5
4
4
3
4
4
3
2
2
1
2
2
2
1
0
-1
-1
-1
-1
-1
-3
-4
-4
-5
-5
-4
-5
-6
-7
-7
-7
-6
-7
-6
-7
-8
-7
-6
-7
-7
-7
-6
-6
-7
-6
-5
-5
-5
-6
-6
-5
-5
-4
-5
-5
-6
-6
-5
-5
-5
-6
-6
-7
-6
-6
-6
-5
-7
-7
-7
-6
-6
-6
-6
-7
-7
-7
-7
-7
-7
-8
-8
-9
-9
-8
-8
-9
-9
-9
-8
-8
-7
-7
-7
-7
-7
-7
-6
-6
-5
-6
-6
-6
-5
-4
-3
-3
-3
-4
-4
-3
-2
-2
-2
-2
-1
-1
-2
-1
0
-1
-1
-1
0
1
1
2
2
2
2
3
4
4
5
5
4
5
5
6
6
7
6
6
7
8
8
8
8
7
8
8
9
8
8
8
8
7
9
9
8
8
7
6
6
6
6
5
4
3
2
2
1
0
-1
-2
-3
-3
-4
-4
-4
-5
-6
-6
-6
-6
-6
-6
-6
-6
-6
-5
-5
-5
-5
-5
-5
-5
-5
-4
-5
-5
-5
-6
-5
-5
-4
-5
-5
-5
-5
-5
-5
-5
-5
-6
-7
-7
-7
-7
-7
-8
-8
-10
-9
-9
-9
-10
-11
-11
-11
-11
-10
-10
-11
-11
-12
-12
-11
-11
-11
-11
-12
-12
-12
-10
-11
-10
-11
-12
-12
-11
-11
-11
-12
-12
-12
-12
-12
-11
-12
-12
-13
-13
-12
-11
-11
-10
-11
-11
-10
-10
-9
-9
-8
-9
-9
-9
-8
-8
-8
-9
-9
-9
-10
-10
-10
-10
-10
-12
-12
-11
-12
-12
-13
-14
-15
-16
-16
-17
-17
-19
-20
-21
-22
-22
-23
-24
-26
-27
-28
-28
-29
-29
-30
-30
-30
-29
-28
-26
-26
-24
-23
-19
-17
-12
-8
-4
1
6
12
18
25
33
41
49
58
67
77
88
99
108
119
130
141
152
164
174
184
194
203
213
220
228
234
238
242
244
245
246
244
241
236
231
225
218
209
200
189
177
166
154
142
130
117
104
92
81
69
58
47
37
28
19
11
4
-2
-8
-13
-17
-21
-24
-26
-27
-28
-30
-30
-31
-30
-29
-29
-29
-29
-27
-26
-25
-24
-22
-22
-22
-22
-21
-19
-19
-19
-19
-19
-19
-19
-18
-19
-20
-20
-20
-20
-20
-20
-20
-21
-21
-21
-21
-19
-20
-19
-21
-20
-21
-20
-20
-19
-20
-20
-21
-20
-19
-18
-19
-20
-20
-20
-19
-19
-19
-18
-19
-20
-20
-19
-19
-19
-19
-20
-20
-19
-18
-18
-18
-18
-19
-20
-19
-18
-18
-19
-19
-20
-20
-19
-19
-19
-19
-20
-20
-20
-20
-19
-20
-20
-21
-21
-20
-20
-19
-19
-19
-20
-20
-19
-19
-18
-19
-18
-18
-18
-17
-16
-16
-16
-16
-16
-15
-14
-14
-14
-14
-14
-14
-14
-14
-13
-14
-14
-15
-14
-14
-14
-13
-14
-14
-14
-14
-14
-13
-14
-14
-14
-14
-13
-13
-13
-13
-14
-13
-14
-13
-12
-12
-12
-13
-13
-12
-12
-12
-12
-12
-13
-13
-12
-11
-12
-13
-12
-12
-12
-11
-11
-11
-11
-12
-12
-11
-10
-10
-9
-10
-9
-9
-8
-8
-8
-8
-9
-8
-8
-7
-6
-7
-7
-7
-6
-7
-6
-5
-5
-6
-5
-5
-5
-5
-5
-5
-5
-5
-5
-3
-3
-3
-3
-3
-3
-1
0
0
0
1
0
1
2
3
3
2
2
2
3
4
5
5
4
5
6
6
7
8
8
8
8
9
10
11
12
12
12
13
14
14
15
15
15
14
14
15
15
15
15
15
14
13
13
13
13
12
11
10
10
11
10
10
9
8
8
7
8
7
8
7
6
6
6
6
6
4
4
4
3
5
4
4
3
2
2
2
3
2
1
1
0
0
0
0
0
-2
-3
-3
-3
-3
-3
-4
-4
-5
-5
-5
-4
-4
-5
-6
-6
-7
-6
-5
-6
-7
-7
-7
-7
-6
-6
-6
-7
-7
-7
-8
-7
-7
-7
-8
-8
-9
-8
-7
-7
-8
-8
-8
-8
-7
-7
-7
-8
-7
-7
-8
-7
-7
-6
-7
-7
-7
-7
-7
-7
-7
-8
-8
-7
-8
-8
-7
-8
-8
-8
-8
-7
-8
-7
-8
-7
-7
-7
-6
-6
-6
-6
-6
-5
-3
-2
-2
-2
-3
-2
-1
-1
0
1
0
0
0
1
1
1
1
0
0
-1
0
0
0
0
-1
-1
-1
0
1
1
1
1
1
2
3
3
3
3
4
5
6
6
7
7
6
7
7
8
8
8
8
7
7
7
7
7
6
5
4
5
5
4
4
3
2
2
1
1
1
0
-1
-2
-2
-2
-2
-3
-4
-5
-5
-5
-5
-5
-5
-7
-7
-7
-6
-6
-6
-6
-6
-6
-6
-6
-5
-5
-5
-5
-6
-5
-5
-5
-4
-5
-5
-5
-5
-4
-4
-4
-5
-5
-4
-4
-4
-4
-4
-5
-5
-5
-3
-4
-4
-4
-5
-4
-5
-4
-5
-5
-6
-6
-6
-6
-6
-7
-7
-8
-8
-8
-7
-7
-7
-8
-8
-9
-8
-8
-8
-7
-8
-8
-8
-7
-6
-7
-7
-7
-7
-6
-6
-5
-5
-5
-6
-6
-5
-5
-5
-5
-6
-6
-6
-5
-6
-7
-7
-8
-8
-8
-8
-8
-8
-9
-9
-9
-9
-9
-10
-9
-10
-11
-11
-10
-10
-9
-11
-11
-11
-13
-13
-12
-13
-14
-16
-17
-17
-17
-18
-19
-20
-21
-22
-22
-22
-22
-22
-22
-22
-21
-19
-17
-15
-13
-11
-8
-4
0
4
8
12
16
22
28
35
41
47
55
62
71
80
89
98
107
115
124
134
142
152
160
168
177
184
192
198
203
207
210
212
213
214
214
211
208
204
199
193
187
180
170
161
151
141
131
122
111
100
89
78
69
60
52
43
33
26
19
13
8
3
-2
-6
-9
-13
-14
-16
-17
-18
-19
-19
-19
-19
-18
-18
-18
-18
-16
-15
-13
-13
-12
-11
-11
-10
-9
-9
-9
-9
-10
-10
-9
-10
-9
-10
-11
-11
-11
-11
-12
-11
-12
-13
-14
-13
-13
-13
-13
-14
-14
-13
-13
-12
-12
-11
-11
-11
-11
-10
-11
-10
-10
-11
-10
-10
-11
-10
-10
-11
-11
-12
-12
-11
-11
-11
-12
-12
-13
-12
-11
-12
-11
-12
-12
-12
-11
-11
-10
-10
-10
-9
-9
-8
-8
-7
-8
-8
-7
-7
-7
-6
-7
-6
-7
-7
-6
-6
-6
-6
-7
-8
-7
-6
-7
-6
-7
-7
-7
-7
-7
-7
-6
-7
-7
-7
-7
-6
-7
-7
-7
-7
-8
-7
-6
-6
-6
-6
-6
-6
-5
-5
-4
-5
-5
-4
-4
-3
-3
-3
-3
-3
-3
-2
-1
-2
-2
-2
-2
-2
-1
-1
-2
-2
-3
-3
-2
-2
-2
-2
-3
-4
-3
-2
-2
-2
-2
-3
-3
-2
-2
-1
-1
-2
-1
-1
-1
-1
0
-1
-1
-1
0
0
0
0
0
0
0
0
1
2
2
2
2
3
4
5
5
5
4
5
6
7
8
8
9
8
9
10
11
12
11
12
12
12
13
13
13
13
13
13
14
14
15
15
15
15
15
15
16
16
17
16
16
16
17
18
18
18
19
19
19
20
21
21
21
20
20
21
22
22
22
21
21
21
21
21
21
21
20
19
20
20
20
20
19
19
19
19
20
20
20
19
18
18
18
19
18
17
17
16
16
16
17
16
15
14
14
13
13
13
12
11
10
10
10
9
9
9
8
8
7
7
8
7
6
5
5
5
6
5
4
4
4
3
3
3
3
3
2
2
1
2
2
2
2
1
2
2
3
3
2
2
2
1
3
3
3
3
3
3
3
4
5
4
4
4
4
4
5
5
5
5
4
4
5
5
6
5
4
4
5
5
5
5
5
3
3
3
4
3
3
3
3
3
3
3
3
3
3
3
4
4
5
6
6
5
5
7
8
8
9
8
9
9
10
9
10
9
9
9
10
11
11
11
10
10
10
11
12
12
12
12
11
12
13
13
14
14
14
14
15
16
17
16
16
16
16
17
18
18
18
17
17
18
18
18
18
17
17
16
16
16
17
16
16
15
15
15
15
16
15
14
13
12
12
12
11
10
8
8
8
8
8
7
6
6
5
5
6
7
6
6
6
6
7
8
7
7
7
7
8
9
9
9
9
9
9
10
10
11
12
11
11
12
12
13
13
13
12
12
13
14
13
14
13
13
13
13
14
14
13
13
12
12
12
12
11
11
10
9
10
10
11
10
9
8
8
8
8
8
8
7
6
6
7
6
7
6
5
5
6
7
8
8
7
7
7
7
8
8
8
8
7
7
8
8
7
7
6
6
7
7
7
7
7
6
6
7
7
7
7
7
6
7
6
7
7
7
6
6
7
6
6
7
5
4
4
3
3
2
1
0
-2
-2
-3
-3
-4
-6
-8
-8
-9
-9
-9
-9
-10
-10
-9
-7
-6
-4
-2
0
1
4
8
11
16
19
23
28
34
41
47
54
61
69
77
86
94
104
113
122
132
142
151
160
170
179
188
196
204
212
218
223
227
230
233
233
234
232
231
226
221
216
210
203
194
185
174
165
155
144
134
123
112
101
91
81
73
64
55
47
40
33
27
22
18
13
9
6
4
2
1
-1
-3
-3
-4
-4
-3
-3
-3
-3
-3
-1
-1
0
1
1
1
2
3
3
3
3
4
3
3
3
3
4
3
3
2
2
2
2
2
2
0
1
1
0
1
1
0
0
0
1
2
2
1
1
1
1
2
2
3
2
2
2
2
3
4
3
4
3
3
4
3
4
3
3
3
3
4
5
4
4
3
3
4
5
5
5
5
4
4
5
5
5
5
5
4
4
5
4
5
4
3
3
4
4
4
4
3
4
4
4
5
5
5
4
4
4
5
6
6
6
5
5
6
6
7
7
6
6
7
7
7
7
8
8
7
7
8
8
8
8
7
7
7
8
8
7
7
6
6
6
6
6
6
5
4
4
4
4
4
3
4
4
4
5
5
6
6
6
7
8
9
10
9
10
11
11
11
12
13
12
12
12
13
14
14
14
14
12
12
13
13
13
13
12
11
12
12
12
13
12
12
12
12
13
13
14
14
15
15
15
16
17
18
18
19
19
20
21
21
22
21
21
22
24
24
24
24
24
24
25
25
26
26
26
26
26
27
28
28
28
28
28
28
29
30
30
30
30
30
32
32
32
32
32
32
32
32
33
33
33
32
32
32
32
33
32
32
31
31
32
32
32
31
31
31
31
31
32
31
30
30
30
31
31
31
31
30
30
30
30
30
30
30
29
29
29
29
28
28
27
27
26
26
26
26
25
25
24
23
23
23
23
22
21
20
20
21
20
20
19
18
17
18
18
18
18
17
16
16
17
17
18
17
17
17
17
18
18
17
17
17
17
17
18
18
18
17
18
18
18
18
18
18
18
17
17
18
17
18
17
17
16
16
17
17
17
17
16
16
16
17
17
16
16
16
15
16
16
15
14
14
14
15
15
16
15
15
14
15
16
16
17
17
17
17
17
18
19
18
18
19
18
19
20
21
20
20
20
20
21
21
21
22
21
21
21
22
21
22
22
21
22
22
22
23
23
22
22
23
24
25
25
25
25
25
26
26
27
27
28
27
28
29
30
30
31
31
31
31
31
32
33
33
31
31
32
32
32
32
31
30
30
30
30
30
29
28
27
27
26
26
25
24
23
22
21
21
21
20
19
18
18
18
18
18
18
18
18
17
18
18
19
19
19
19
20
20
21
21
21
20
21
21
22
23
23
22
21
21
21
21
22
21
22
21
20
21
21
21
21
20
20
20
21
21
21
20
19
20
21
21
21
21
20
20
20
20
21
21
20
21
21
20
21
21
21
21
20
20
20
21
21
20
19
19
19
18
18
18
17
16
16
16
16
17
17
16
16
16
16
17
17
18
17
17
17
18
19
19
19
18
19
19
20
20
20
20
19
20
20
21
21
20
20
19
18
18
18
17
16
13
13
12
11
10
9
8
7
5
4
4
4
3
2
1
0
2
2
3
3
4
4
7
10
13
16
19
21
25
30
35
40
45
51
57
64
72
80
89
97
107
116
126
137
148
158
168
178
188
198
209
218
227
234
241
247
252
257
260
261
260
259
258
255
251
246
238
231
222
212
203
193
181
170
158
147
135
125
113
102
90
80
71
63
55
48
41
35
29
25
21
18
15
13
11
9
9
9
9
9
8
8
9
10
12
11
11
11
12
13
13
14
14
13
14
14
14
14
14
13
13
13
13
13
13
14
13
13
13
13
14
14
14
13
13
13
13
14
13
13
12
12
12
13
13
13
12
12
12
12
13
14
13
13
13
13
14
15
15
15
14
14
15
15
16
17
16
16
16
16
16
16
17
16
16
16
16
16
16
16
15
15
15
16
16
17
16
16
15
16
17
18
17
17
17
18
18
19
18
18
17
17
18
19
18
19
18
18
17
17
18
18
17
16
16
16
16
16
16
15
15
15
16
16
16
16
16
16
17
16
18
18
19
18
18
18
19
19
20
19
19
19
20
20
20
20
20
20
20
20
20
20
20
20
19
19
20
20
20
20
19
20
19
20
21
21
21
20
20
20
21
22
21
21
21
22
22
23
23
23
23
23
24
24
24
24
24
24
24
25
26
27
27
27
27
27
28
28
29
28
28
28
29
29
30
30
30
30
30
31
32
32
32
32
32
32
32
33
33
33
33
33
33
34
35
35
34
35
35
35
36
37
37
37
37
37
37
38
38
39
38
38
39
40
40
41
41
40
41
42
42
42
42
42
42
42
42
43
43
42
42
42
42
43
42
42
42
41
41
42
41
42
41
40
40
40
41
40
40
39
39
38
38
38
39
39
38
37
36
37
37
36
36
35
35
34
35
34
34
33
32
32
32
32
32
32
32
31
31
31
31
32
32
31
31
31
32
32
32
31
31
31
31
32
32
32
31
30
30
31
30
31
31
30
29
29
30
30
30
29
29
28
29
29
29
28
28
28
28
28
29
29
28
28
28
28
28
28
29
28
28
28
28
29
29
28
29
28
28
28
28
28
28
28
28
28
28
29
28
27
27
26
27
27
28
28
27
27
27
27
27
28
27
27
27
27
29
29
29
28
28
28
28
29
29
30
29
29
29
30
30
31
30
30
30
30
30
31
31
31
30
30
31
31
31
32
32
31
32
33
33
34
34
34
35
35
36
36
37
38
38
38
39
39
40
40
40
39
40
40
41
41
41
41
41
41
41
42
41
41
41
41
42
42
43
43
42
41
40
41
41
41
40
39
38
37
36
37
35
35
33
32
31
31
32
31
31
30
30
30
31
31
31
30
31
31
32
32
32
32
32
32
32
33
33
34
33
33
32
33
33
33
33
33
32
31
32
32
32
31
30
29
30
30
31
31
30
30
30
29
30
31
30
29
29
29
30
30
29
29
28
28
28
28
29
29
28
27
27
27
28
28
27
27
26
26
27
27
27
27
26
26
27
28
27
27
28
28
28
28
29
30
29
29
29
29
29
30
30
29
29
29
29
30
29
30
29
28
28
28
28
28
29
28
27
27
27
27
27
26
25
24
24
24
24
23
22
21
19
18
18
17
16
15
13
12
11
10
9
9
7
7
7
7
8
9
9
10
13
15
18
21
25
29
33
37
43
49
55
60
67
74
82
92
101
110
120
129
139
150
160
172
182
192
202
213
223
233
241
250
257
263
269
274
277
279
280
278
275
273
270
265
258
250
241
232
222
211
199
187
174
162
150
139
128
116
104
94
84
75
67
59
51
44
38
32
29
25
22
19
16
15
14
14
14
14
13
13
14
14
15
16
17
18
18
18
19
20
20
19
19
19
19
20
20
20
19
18
17
18
18
18
18
18
16
17
18
18
18
18
18
18
18
19
20
20
20
20
20
21
22
22
21
21
20
20
21
22
21
21
20
20
20
21
21
21
21
20
20
21
21
22
22
22
22
22
23
23
22
23
22
21
22
22
23
23
23
22
21
22
23
23
23
22
22
22
22
22
21
21
21
21
21
22
22
22
22
21
21
22
23
23
22
23
22
22
23
24
24
23
23
23
24
24
25
25
25
24
23
24
24
24
25
24
23
23
24
24
24
23
22
22
22
23
23
23
23
22
23
23
24
24
24
24
24
25
25
25
26
26
25
26
25
26
27
26
26
26
26
26
26
27
27
26
27
27
26
27
27
27
26
27
27
28
29
29
29
29
29
30
30
31
31
31
31
31
31
32
32
32
31
32
32
33
32
33
33
33
33
33
34
35
34
34
34
34
34
35
35
35
35
35
36
36
37
37
38
37
37
38
39
39
39
40
40
40
41
43
43
43
43
43
44
45
46
47
47
48
48
48
50
50
51
51
52
52
52
52
52
52
52
52
51
52
53
52
51
50
50
50
50
50
49
48
48
47
47
47
47
46
45
45
44
45
44
44
43
43
42
42
43
43
42
42
41
41
41
42
42
41
40
39
39
39
39
39
38
38
37
38
38
38
38
37
37
37
37
37
37
37
36
36
36
37
37
37
36
36
36
37
37
38
37
36
36
36
36
37
36
36
35
35
36
36
36
36
35
34
34
34
34
34
34
34
33
33
33
33
33
33
31
31
32
32
33
33
32
32
32
33
33
33
33
33
32
32
33
34
34
34
33
33
33
34
34
34
33
33
33
33
34
34
34
34
33
32
33
33
33
33
33
32
33
34
34
35
34
34
34
35
36
36
37
37
36
37
37
38
37
37
37
36
37
37
38
37
37
36
36
36
37
37
37
37
36
36
37
37
37
38
38
38
39
40
41
42
42
42
42
43
44
45
45
46
45
46
46
47
48
47
47
47
47
48
49
48
48
48
48
48
49
48
48
48
48
47
48
47
47
46
45
45
45
45
44
44
43
42
41
41
40
39
39
38
37
36
36
36
36
34
34
34
33
34
34
34
34
33
33
34
34
34
34
34
34
34
34
34
35
34
34
34
34
34
34
34
34
33
33
33
34
33
33
33
32
32
32
33
32
32
31
31
32
32
32
32
31
31
30
31
31
31
31
30
31
30
31
32
31
31
31
30
31
33
33
33
33
32
33
34
34
34
34
33
33
32
33
32
32
32
31
30
30
31
30
30
30
29
29
30
31
30
31
30
30
30
31
31
32
31
31
31
31
31
32
32
31
31
30
31
30
30
30
29
29
28
27
27
25
24
23
22
21
20
19
19
18
16
15
14
14
14
13
12
11
12
12
13
14
15
16
18
20
23
27
31
34
37
43
47
54
60
67
73
81
90
99
109
119
129
139
150
161
173
184
196
207
218
228
239
249
259
267
274
279
284
288
291
292
291
289
286
282
276
270
262
253
242
232
221
209
197
184
172
158
146
134
122
110
99
88
78
68
61
53
45
38
33
27
24
21
18
16
14
12
11
11
11
11
10
10
10
11
12
13
14
15
15
15
16
17
17
17
18
17
17
17
18
18
18
17
16
16
16
16
17
16
16
15
15
16
16
15
15
15
14
14
15
15
15
14
14
14
15
16
16
16
15
16
16
17
18
18
18
17
17
18
19
19
18
18
18
18
19
20
19
19
19
18
18
19
19
19
18
18
18
18
18
19
18
18
17
18
18
18
18
18
17
18
18
18
19
18
18
18
18
18
19
19
18
18
17
18
17
18
18
18
17
17
17
18
17
18
17
16
17
17
18
17
16
16
16
16
16
17
17
17
16
17
17
18
18
18
18
18
19
19
20
20
21
20
21
22
22
23
23
23
22
23
22
23
23
22
22
21
22
21
21
21
21
20
19
20
19
20
20
20
19
19
20
20
20
21
20
21
21
20
21
22
22
21
22
21
23
24
24
24
23
23
24
25
24
25
24
24
24
24
24
24
24
23
23
24
25
25
26
26
26
26
27
27
28
29
28
29
29
29
31
31
31
32
32
32
33
34
34
35
34
34
35
37
36
38
37
37
38
38
40
40
40
40
40
41
41
42
42
43
42
42
43
43
43
43
43
43
43
43
43
43
42
42
42
42
43
43
43
42
42
42
42
42
43
42
42
41
41
41
41
41
40
39
39
39
39
39
38
37
36
36
36
36
36
36
35
34
34
33
34
34
33
33
32
32
32
32
32
32
30
30
29
30
30
30
29
28
28
28
28
28
27
27
26
26
27
27
27
27
26
26
27
27
27
27
27
26
26
26
27
27
26
26
25
25
26
26
26
25
25
25
25
25
25
25
25
24
24
25
25
25
25
23
24
23
24
24
23
23
22
22
22
23
22
23
22
21
22
21
22
22
22
21
21
21
22
23
23
23
23
23
24
24
24
24
25
24
24
25
26
26
25
25
25
26
27
27
27
28
27
27
28
28
29
29
30
29
30
31
31
32
32
32
31
32
33
34
34
33
33
32
33
33
33
33
32
32
32
32
32
32
31
31
31
31
32
33
34
33
33
33
34
36
36
37
37
38
37
38
39
40
39
39
39
39
40
40
41
41
40
39
40
40
40
40
38
38
38
38
38
37
37
36
35
36
35
35
34
33
32
31
31
31
30
30
29
28
27
27
26
26
26
25
25
25
24
24
25
24
23
23
24
24
24
25
25
24
25
25
26
26
25
25
25
25
26
26
27
26
26
26
26
26
25
25
24
24
24
24
24
24
24
23
22
23
23
24
24
23
23
22
22
23
24
24
23
23
23
24
24
24
23
23
23
23
23
24
24
23
22
22
22
22
23
22
22
22
22
22
23
23
22
21
22
21
22
23
23
23
23
22
22
23
24
23
22
23
22
22
23
23
22
21
21
20
21
21
21
21
20
19
20
20
20
20
20
18
19
19
19
18
17
16
15
14
13
12
11
10
8
7
6
5
4
3
2
1
0
0
0
0
1
1
2
4
6
9
11
15
18
21
26
32
37
43
49
56
63
71
80
90
98
108
119
129
141
152
164
175
186
198
209
221
231
242
251
259
267
274
280
284
287
287
288
287
285
282
277
271
262
254
244
233
223
210
198
185
171
159
147
133
121
108
96
85
75
66
57
48
40
33
27
22
17
13
10
7
5
3
2
2
1
0
0
0
1
2
3
4
4
4
5
6
7
8
8
8
8
10
10
11
10
11
10
10
11
11
12
11
11
11
12
12
12
12
12
11
12
12
12
12
11
11
11
11
10
11
10
10
10
10
10
10
10
10
10
9
10
10
10
11
10
10
10
10
10
11
12
11
11
11
11
11
12
12
12
11
11
12
12
12
11
11
10
10
10
11
11
11
10
9
10
11
10
11
10
11
11
11
12
13
13
13
13
13
15
15
15
16
15
15
16
17
16
17
17
16
16
16
16
16
16
14
13
14
14
14
14
13
12
11
12
13
13
13
12
12
12
11
12
12
13
12
12
13
13
13
14
14
13
13
13
14
15
15
15
15
14
15
16
15
16
14
15
15
15
15
15
15
15
14
15
16
16
16
15
15
15
16
16
16
16
16
16
16
16
17
18
17
17
17
18
18
19
19
19
18
18
19
20
20
19
19
19
19
21
22
22
22
22
21
22
22
23
24
23
23
23
24
25
25
25
25
24
25
25
27
27
28
27
28
29
30
31
31
31
31
32
33
33
34
35
34
35
36
36
38
38
39
38
39
39
41
41
42
41
42
42
42
43
43
42
41
42
41
42
42
42
41
40
39
40
39
40
40
39
38
37
37
37
36
36
35
34
34
33
33
33
32
31
30
29
29
30
29
28
27
27
26
27
27
26
25
25
25
25
26
26
25
24
24
24
24
25
25
25
24
24
24
24
24
23
23
22
22
22
22
22
22
21
20
21
21
21
21
20
20
19
19
20
20
20
20
19
19
19
20
20
20
20
19
20
20
21
20
21
20
19
20
21
21
20
20
20
20
21
21
22
21
21
20
21
21
22
22
21
20
20
21
21
21
20
20
19
19
19
20
20
19
18
18
18
19
19
19
19
19
19
19
20
20
19
19
19
19
20
20
20
19
19
19
19
20
20
20
20
19
20
19
20
20
21
21
21
21
22
23
23
24
23
24
24
25
26
26
26
26
25
26
27
27
26
26
26
26
27
27
27
26
27
26
27
27
28
27
27
27
28
28
29
30
30
30
29
30
30
31
31
31
31
31
31
31
32
32
32
32
31
31
32
32
32
31
30
30
30
31
30
30
29
28
27
28
27
27
26
25
25
24
24
24
22
21
21
21
20
20
20
20
19
19
19
19
19
20
19
19
18
18
19
20
19
19
19
18
19
20
20
20
19
19
19
20
19
20
19
18
18
19
19
19
19
18
17
18
18
18
18
18
17
17
16
17
17
17
17
16
15
16
16
16
16
15
15
15
16
16
16
17
16
17
16
17
18
18
17
17
17
18
18
18
18
17
16
16
17
17
17
16
16
15
16
15
16
16
15
15
14
15
16
15
16
15
14
15
16
16
16
17
16
15
16
16
16
16
16
15
15
15
15
15
13
12
10
10
10
9
8
7
5
3
2
1
0
-1
-2
-4
-5
-5
-6
-5
-6
-6
-5
-5
-3
-1
1
4
6
8
12
17
22
27
32
37
43
50
57
65
73
81
90
99
110
120
130
141
151
161
171
183
193
204
214
222
231
239
247
253
258
262
264
265
267
266
264
260
256
249
243
235
227
216
206
194
181
169
157
145
132
119
107
95
84
73
62
53
43
35
28
22
17
11
7
3
0
-2
-4
-5
-6
-8
-8
-7
-7
-6
-6
-5
-5
-4
-3
-3
-2
0
-1
0
0
1
1
2
2
2
1
2
2
3
4
3
3
3
3
3
4
4
4
4
4
4
5
5
4
4
4
4
4
4
4
4
4
3
3
3
3
3
3
2
2
3
3
4
3
3
3
3
4
4
5
5
4
5
5
5
6
7
6
6
6
6
6
6
7
6
6
6
6
7
7
6
6
6
6
6
7
6
7
6
5
6
7
7
6
6
5
5
6
5
5
6
5
5
6
5
6
6
6
5
5
6
7
7
7
7
6
7
7
8
9
8
7
8
7
8
8
9
8
7
7
7
8
8
8
7
6
6
6
7
7
7
6
6
6
7
7
7
7
6
7
7
8
8
7
7
8
8
9
9
9
9
9
9
9
10
10
10
11
10
10
10
11
11
11
11
11
11
12
13
13
13
13
13
14
14
15
16
17
16
16
17
17
18
19
18
19
18
19
20
21
20
20
20
20
20
21
20
21
20
19
20
21
21
20
20
20
19
21
21
21
22
21
22
22
24
25
25
25
26
26
27
28
29
29
29
29
30
31
33
34
34
34
35
35
36
37
37
37
37
37
37
38
38
38
37
36
37
38
37
38
37
37
36
36
37
36
36
35
35
34
33
34
33
32
32
30
30
30
29
29
28
26
26
26
25
26
25
25
24
23
24
24
23
24
23
22
22
23
23
23
22
21
21
21
21
21
21
20
19
19
19
18
19
18
16
15
15
15
16
15
15
14
13
14
14
14
14
13
14
13
13
13
13
14
13
13
13
13
13
14
13
13
12
12
13
13
13
13
13
12
13
12
13
13
12
12
12
12
13
13
13
12
12
12
12
13
13
12
13
12
13
13
13
13
12
12
11
12
12
12
13
12
12
12
13
13
13
14
13
13
14
14
14
14
13
13
13
14
15
15
15
14
15
15
15
16
16
16
16
16
16
17
17
18
18
17
17
18
18
19
19
18
19
19
19
19
19
19
18
18
18
18
18
18
18
18
18
18
19
19
18
18
17
18
18
19
19
19
19
19
20
20
20
21
20
19
20
20
21
22
22
22
22
22
23
23
24
24
24
23
24
24
24
24
23
22
23
22
23
22
21
21
20
19
20
19
19
18
16
16
15
16
15
14
14
12
13
12
13
13
13
13
12
12
13
14
13
13
13
13
13
13
13
13
13
12
12
12
12
13
12
11
11
10
11
11
11
10
10
9
10
10
11
11
11
11
11
11
12
12
12
12
12
11
12
12
12
12
12
11
11
11
12
11
10
10
9
9
9
9
9
9
8
8
8
9
9
8
8
8
8
8
9
8
8
7
7
7
8
8
8
7
7
7
8
8
8
8
8
8
8
8
9
8
8
7
7
8
8
9
8
8
7
7
7
8
8
7
7
6
6
6
6
5
3
2
2
1
1
1
-1
-2
-4
-5
-6
-7
-8
-9
-10
-11
-12
-12
-11
-11
-11
-11
-10
-8
-5
-3
0
3
5
9
14
19
25
31
36
44
51
59
68
78
86
96
106
118
128
140
151
162
172
184
196
207
218
227
236
244
251
257
263
267
268
269
268
267
265
262
256
248
241
232
222
212
200
188
176
163
150
138
126
113
101
89
78
67
57
48
39
31
23
17
11
7
3
-1
-5
-7
-9
-10
-11
-12
-12
-13
-12
-12
-11
-10
-9
-9
-8
-7
-6
-5
-4
-3
-4
-3
-3
-3
-2
-2
-2
-3
-4
-3
-3
-3
-3
-4
-4
-4
-4
-3
-3
-3
-4
-3
-3
-2
-2
-2
-2
-3
-3
-2
-1
-1
-2
-2
-3
-2
-2
-1
-1
-2
-2
-3
-3
-2
-2
-2
-3
-3
-3
-3
-2
-2
-2
-2
-3
-2
-1
-1
-1
-1
-2
-2
-1
-2
-1
-2
-2
-2
-2
-3
-2
