# Simple Text Format
# Sampling Rate (Hz):= 1200.00
# Resolution:= 12
# Labels:= ECG	III
# Age:=	46
# Gender:=	Masculino
-56
-56
-56
-56
-56
-58
-59
-60
-60
-60
-60
-60
-61
-63
-63
-62
-61
-61
-62
-63
-64
-64
-63
-62
-62
-62
-63
-63
-62
-61
-61
-60
-61
-61
-61
-60
-58
-58
-59
-60
-60
-60
-59
-58
-58
-59
-60
-60
-60
-59
-59
-59
-60
-60
-60
-60
-59
-59
-60
-61
-61
-61
-60
-60
-60
-61
-61
-62
-61
-60
-60
-60
-61
-61
-61
-60
-59
-59
-59
-60
-60
-60
-59
-57
-57
-58
-58
-58
-57
-56
-55
-54
-54
-54
-53
-51
-49
-47
-47
-46
-45
-43
-41
-38
-36
-35
-35
-33
-31
-28
-26
-25
-25
-25
-24
-23
-22
-22
-24
-26
-28
-30
-31
-33
-36
-41
-46
-50
-55
-59
-64
-70
-78
-87
-95
-103
-112
-122
-134
-145
-157
-168
-178
-189
-200
-213
-225
-237
-247
-257
-267
-276
-286
-294
-300
-305
-308
-311
-314
-316
-317
-315
-312
-308
-304
-299
-294
-287
-279
-270
-260
-251
-242
-233
-223
-212
-200
-190
-181
-173
-164
-155
-146
-137
-130
-124
-119
-113
-108
-102
-97
-94
-91
-89
-86
-82
-79
-77
-76
-75
-74
-72
-70
-68
-67
-67
-66
-66
-64
-62
-60
-59
-59
-58
-57
-55
-53
-52
-51
-52
-51
-50
-49
-47
-47
-47
-47
-47
-46
-45
-44
-44
-45
-45
-45
-44
-43
-42
-43
-44
-45
-44
-43
-42
-42
-43
-44
-44
-44
-43
-42
-42
-43
-44
-44
-42
-41
-41
-42
-43
-43
-43
-41
-40
-40
-41
-42
-42
-41
-40
-40
-40
-40
-41
-41
-40
-39
-38
-39
-40
-41
-41
-40
-39
-39
-40
-40
-41
-40
-39
-38
-38
-39
-39
-39
-38
-37
-36
-37
-38
-38
-37
-36
-35
-35
-36
-37
-37
-36
-35
-34
-34
-35
-36
-36
-35
-34
-35
-36
-37
-38
-38
-37
-36
-36
-37
-38
-39
-38
-38
-37
-37
-38
-39
-39
-38
-37
-37
-37
-38
-39
-38
-37
-36
-36
-37
-38
-38
-37
-36
-36
-36
-36
-37
-36
-35
-34
-34
-35
-36
-36
-36
-35
-34
-34
-35
-36
-36
-36
-35
-34
-35
-35
-36
-36
-35
-35
-35
-35
-37
-37
-37
-37
-36
-36
-38
-39
-39
-39
-38
-38
-39
-40
-40
-40
-40
-39
-39
-40
-41
-42
-42
-41
-40
-40
-41
-42
-42
-42
-41
-41
-41
-42
-43
-43
-42
-41
-41
-42
-44
-44
-44
-43
-43
-43
-44
-45
-45
-45
-44
-44
-44
-45
-46
-46
-45
-44
-44
-45
-47
-47
-47
-47
-46
-46
-47
-48
-49
-49
-48
-48
-48
-49
-50
-50
-50
-49
-49
-50
-51
-52
-52
-51
-50
-51
-51
-52
-53
-52
-51
-51
-51
-52
-52
-52
-50
-49
-49
-50
-50
-51
-50
-49
-48
-48
-48
-49
-49
-49
-48
-47
-47
-48
-48
-48
-47
-46
-46
-47
-48
-48
-48
-47
-46
-47
-47
-48
-49
-48
-47
-47
-47
-47
-48
-47
-46
-45
-45
-46
-47
-47
-47
-45
-44
-44
-45
-46
-46
-45
-44
-43
-44
-44
-45
-45
-43
-42
-42
-43
-44
-44
-44
-43
-42
-42
-42
-43
-43
-43
-42
-41
-41
-41
-42
-41
-40
-38
-38
-39
-39
-39
-39
-37
-36
-36
-36
-36
-36
-35
-34
-33
-33
-33
-34
-33
-32
-31
-31
-32
-33
-33
-33
-32
-31
-31
-32
-33
-33
-33
-32
-32
-32
-33
-34
-33
-32
-31
-31
-32
-32
-33
-32
-31
-30
-30
-30
-30
-30
-29
-28
-27
-26
-27
-27
-26
-25
-24
-24
-24
-25
-26
-26
-25
-25
-25
-26
-28
-29
-29
-28
-29
-30
-31
-32
-33
-32
-32
-32
-34
-35
-36
-36
-36
-35
-35
-36
-37
-38
-37
-36
-35
-35
-36
-37
-36
-35
-34
-33
-34
-35
-35
-35
-34
-33
-33
-34
-35
-36
-36
-35
-35
-36
-37
-39
-39
-38
-38
-38
-40
-41
-42
-42
-42
-41
-42
-43
-44
-45
-45
-44
-44
-44
-46
-47
-47
-46
-46
-46
-48
-49
-50
-51
-50
-50
-50
-52
-53
-53
-53
-53
-52
-52
-53
-54
-54
-52
-51
-51
-52
-53
-53
-53
-52
-51
-51
-52
-53
-53
-53
-52
-52
-52
-53
-53
-53
-52
-51
-51
-52
-53
-54
-53
-52
-51
-51
-52
-53
-53
-52
-51
-51
-51
-51
-52
-51
-49
-48
-48
-48
-49
-49
-49
-47
-46
-46
-46
-47
-47
-46
-45
-45
-45
-46
-47
-46
-46
-45
-45
-46
-47
-48
-47
-46
-45
-45
-45
-45
-44
-42
-40
-38
-37
-36
-34
-32
-29
-26
-24
-23
-22
-21
-19
-17
-15
-14
-14
-15
-15
-15
-15
-16
-18
-21
-24
-26
-29
-31
-36
-41
-47
-53
-58
-64
-71
-79
-89
-100
-110
-120
-131
-142
-154
-167
-179
-191
-203
-214
-227
-240
-254
-266
-277
-287
-295
-304
-312
-319
-324
-327
-328
-329
-329
-329
-327
-323
-318
-311
-304
-297
-289
-280
-270
-259
-248
-237
-227
-217
-206
-194
-182
-171
-162
-153
-144
-135
-126
-117
-110
-104
-100
-95
-90
-85
-80
-77
-75
-73
-71
-68
-66
-64
-63
-62
-62
-60
-58
-56
-55
-55
-55
-55
-54
-52
-50
-49
-49
-49
-48
-46
-45
-43
-43
-43
-43
-42
-41
-39
-39
-39
-40
-40
-39
-38
-37
-37
-37
-38
-38
-37
-36
-35
-35
-36
-36
-36
-35
-34
-34
-34
-35
-36
-35
-34
-34
-34
-35
-36
-36
-36
-35
-35
-35
-36
-36
-36
-35
-34
-34
-35
-36
-37
-36
-35
-35
-35
-36
-36
-36
-36
-35
-34
-35
-36
-36
-36
-35
-34
-34
-35
-36
-36
-36
-35
-34
-34
-35
-36
-36
-36
-35
-34
-34
-35
-35
-35
-34
-33
-33
-34
-35
-36
-35
-34
-33
-33
-34
-35
-36
-35
-34
-34
-34
-35
-35
-35
-34
-33
-33
-34
-35
-35
-35
-34
-33
-33
-34
-35
-35
-34
-34
-33
-33
-34
-35
-34
-33
-33
-32
-33
-34
-34
-34
-33
-32
-32
-33
-33
-33
-33
-32
-31
-31
-32
-33
-32
-31
-30
-30
-31
-32
-33
-32
-31
-31
-31
-32
-33
-33
-33
-32
-31
-31
-32
-33
-32
-31
-30
-30
-31
-32
-33
-33
-32
-31
-31
-32
-33
-34
-33
-33
-33
-33
-35
-36
-35
-35
-34
-35
-36
-38
-38
-38
-38
-37
-38
-39
-40
-40
-40
-39
-39
-39
-40
-41
-41
-40
-39
-39
-40
-42
-42
-42
-41
-41
-41
-42
-43
-44
-43
-43
-42
-43
-44
-45
-45
-44
-43
-43
-44
-45
-45
-45
-44
-44
-44
-45
-46
-46
-46
-45
-45
-45
-47
-47
-47
-46
-46
-46
-47
-48
-49
-49
-48
-47
-48
-49
-49
-49
-48
-47
-47
-47
-47
-48
-47
-46
-44
-44
-44
-45
-45
-44
-42
-41
-42
-42
-43
-43
-42
-41
-41
-41
-42
-42
-42
-41
-41
-41
-42
-43
-44
-44
-43
-42
-42
-43
-44
-44
-44
-43
-42
-42
-43
-43
-43
-41
-40
-40
-41
-42
-42
-42
-40
-40
-40
-41
-41
-41
-41
-40
-39
-40
-41
-41
-41
-40
-39
-39
-40
-41
-41
-41
-39
-39
-39
-39
-40
-40
-39
-38
-37
-37
-37
-37
-36
-35
-34
-33
-33
-34
-34
-33
-32
-31
-31
-31
-32
-31
-31
-30
-29
-29
-30
-30
-30
-28
-28
-28
-28
-29
-30
-29
-28
-27
-28
-29
-29
-29
-29
-28
-27
-27
-28
-28
-28
-26
-25
-25
-26
-27
-27
-27
-25
-25
-25
-25
-26
-26
-26
-25
-25
-25
-26
-27
-27
-26
-26
-26
-28
-29
-30
-30
-30
-30
-31
-32
-33
-34
-34
-34
-33
-34
-35
-36
-36
-35
-35
-35
-36
-37
-38
-37
-36
-36
-36
-37
-38
-38
-37
-36
-35
-35
-36
-36
-36
-34
-34
-34
-35
-36
-36
-36
-35
-35
-36
-37
-38
-39
-39
-39
-39
-40
-41
-42
-42
-42
-42
-42
-44
-45
-46
-46
-45
-45
-45
-46
-47
-47
-47
-46
-46
-46
-47
-48
-47
-46
-45
-46
-47
-48
-48
-48
-47
-46
-47
-48
-49
-49
-49
-48
-48
-48
-49
-50
-50
-49
-48
-48
-49
-51
-51
-51
-50
-49
-49
-50
-51
-51
-50
-49
-49
-49
-49
-50
-49
-48
-47
-47
-47
-48
-48
-48
-47
-46
-46
-46
-47
-47
-46
-45
-45
-45
-46
-46
-46
-45
-44
-44
-45
-47
-47
-47
-46
-46
-46
-47
-48
-49
-48
-47
-47
-47
-48
-48
-47
-45
-44
-43
-43
-43
-42
-41
-38
-36
-35
-34
-33
-31
-29
-26
-24
-22
-22
-20
-19
-16
-15
-14
-14
-15
-16
-16
-16
-17
-19
-23
-26
-30
-33
-36
-41
-46
-52
-59
-65
-72
-79
-88
-99
-110
-122
-133
-144
-155
-168
-181
-195
-208
-220
-232
-245
-258
-271
-284
-294
-303
-311
-319
-326
-332
-336
-338
-339
-338
-337
-335
-332
-328
-321
-313
-304
-295
-286
-277
-265
-253
-241
-229
-218
-207
-196
-184
-172
-160
-150
-141
-132
-124
-115
-106
-99
-93
-88
-84
-79
-74
-69
-66
-65
-63
-62
-59
-57
-55
-54
-54
-54
-54
-52
-50
-49
-49
-49
-48
-47
-45
-43
-42
-42
-42
-42
-41
-39
-37
-37
-37
-37
-37
-35
-34
-33
-33
-34
-34
-34
-33
-32
-32
-33
-34
-34
-34
-32
-32
-32
-33
-34
-34
-33
-33
-32
-32
-33
-33
-33
-31
-30
-30
-31
-32
-32
-31
-30
-29
-29
-30
-31
-31
-30
-29
-28
-29
-29
-30
-29
-28
-27
-27
-28
-29
-30
-30
-29
-28
-29
-29
-30
-30
-30
-29
-28
-29
-29
-30
-29
-28
-27
-27
-28
-29
-29
-28
-27
-26
-26
-27
-27
-27
-27
-26
-25
-26
-26
-27
-27
-26
-25
-26
-27
-28
-28
-28
-27
-27
-27
-28
-29
-29
-29
-28
-28
-28
-29
-29
-29
-28
-27
-27
-28
-29
-29
-29
-28
-27
-27
-28
-29
-29
-28
-27
-27
-27
-28
-28
-28
-27
-26
-26
-26
-27
-27
-27
-26
-25
-26
-26
-27
-27
-27
-26
-25
-26
-27
-27
-27
-26
-25
-26
-27
-28
-28
-28
-27
-26
-26
-27
-28
-28
-27
-26
-26
-26
-27
-27
-26
-25
-24
-25
-25
-26
-27
-26
-25
-25
-25
-26
-27
-27
-26
-26
-25
-26
-27
-28
-27
-26
-26
-26
-27
-29
-29
-29
-28
-28
-29
-30
-31
-32
-31
-31
-31
-32
-33
-34
-34
-33
-33
-34
-35
-36
-37
-37
-36
-35
-36
-37
-38
-38
-38
-37
-37
-37
-38
-39
-38
-37
-36
-36
-37
-39
-39
-39
-38
-37
-38
-39
-39
-39
-39
-38
-38
-38
-39
-40
-39
-38
-37
-38
-38
-39
-40
-39
-38
-37
-37
-38
-39
-38
-38
-36
-36
-36
-37
-37
-36
-35
-34
-34
-35
-36
-36
-36
-35
-34
-35
-35
-36
-36
-35
-34
-34
-34
-35
-35
-35
-33
-33
-32
-33
-34
-34
-33
-32
-31
-31
-32
-33
-32
-32
-31
-30
-30
-31
-31
-31
-30
-29
-29
-30
-31
-31
-30
-29
-29
-29
-30
-30
-30
-30
-29
-28
-28
-29
-29
-29
-28
-27
-27
-27
-28
-28
-27
-26
-25
-25
-26
-26
-25
-24
-23
-22
-22
-23
-23
-22
-21
-20
-20
-20
-21
-21
-21
-20
-19
-20
-21
-21
-22
-21
-20
-20
-20
-21
-21
-21
-20
-19
-19
-20
-20
-21
-20
-19
-18
-18
-19
-20
-20
-19
-18
-17
-17
-18
-18
-17
-15
-14
-14
-15
-15
-15
-14
-13
-12
-13
-13
-14
-14
-14
-13
-13
-14
-15
-16
-16
-16
-17
-18
-20
-22
-23
-24
-24
-24
-25
-27
-28
-29
-28
-28
-28
-28
-29
-29
-29
-27
-26
-25
-26
-26
-26
-24
-23
-21
-21
-21
-22
-21
-21
-20
-19
-20
-21
-22
-22
-21
-21
-21
-23
-25
-26
-26
-26
-26
-27
-29
-30
-31
-31
-31
-31
-32
-33
-34
-34
-33
-33
-33
-35
-36
-37
-36
-35
-35
-35
-37
-37
-37
-37
-36
-36
-36
-37
-37
-36
-35
-34
-34
-35
-36
-36
-36
-35
-34
-34
-35
-36
-36
-36
-35
-35
-35
-36
-37
-36
-35
-34
-35
-35
-36
-37
-36
-35
-34
-35
-36
-36
-36
-36
-35
-35
-35
-36
-36
-36
-35
-34
-35
-36
-36
-37
-36
-35
-34
-35
-35
-36
-36
-35
-34
-33
-33
-34
-34
-34
-33
-32
-32
-33
-34
-34
-34
-33
-32
-33
-34
-34
-34
-33
-32
-31
-31
-31
-30
-28
-26
-24
-22
-22
-21
-19
-17
-14
-12
-10
-10
-9
-7
-5
-3
-2
-3
-4
-4
-5
-5
-6
-8
-11
-15
-19
-22
-25
-29
-35
-41
-48
-55
-61
-69
-77
-87
-99
-110
-121
-131
-142
-155
-168
-181
-194
-206
-217
-229
-242
-255
-267
-277
-286
-294
-301
-307
-313
-317
-319
-319
-318
-317
-316
-313
-309
-302
-294
-285
-276
-267
-258
-247
-235
-223
-211
-199
-189
-177
-165
-153
-142
-132
-124
-116
-108
-100
-92
-85
-79
-75
-71
-67
-63
-59
-57
-55
-54
-53
-50
-48
-46
-45
-45
-46
-45
-44
-42
-41
-40
-40
-40
-40
-38
-36
-35
-34
-34
-33
-32
-30
-28
-28
-28
-29
-28
-27
-26
-24
-24
-25
-25
-25
-24
-23
-22
-23
-23
-24
-23
-22
-21
-21
-22
-23
-23
-23
-22
-21
-22
-23
-23
-23
-23
-22
-21
-22
-22
-22
-22
-20
-19
-19
-20
-20
-20
-20
-18
-18
-18
-18
-19
-19
-18
-17
-17
-17
-18
-18
-18
-17
-16
-16
-17
-18
-19
-18
-17
-16
-17
-17
-18
-18
-18
-17
-16
-17
-18
-18
-17
-16
-16
-16
-17
-18
-18
-18
-17
-16
-16
-17
-18
-18
-17
-16
-16
-16
-17
-17
-16
-15
-14
-14
-15
-16
-16
-15
-14
-13
-13
-14
-15
-15
-14
-14
-13
-14
-15
-16
-15
-15
-14
-15
-16
-17
-18
-18
-17
-17
-17
-18
-19
-19
-19
-18
-18
-18
-19
-19
-19
-18
-17
-17
-18
-19
-19
-18
-17
-17
-17
-18
-19
-19
-18
-17
-17
-17
-18
-18
-17
-16
-15
-15
-16
-17
-17
-16
-15
-14
-15
-16
-16
-16
-16
-15
-15
-16
-17
-17
-17
-16
-16
-16
-17
-19
-19
-19
-18
-18
-18
-20
-21
-21
-20
-20
-19
-20
-21
-22
-21
-21
-20
-20
-22
-23
-23
-23
-22
-22
-23
-24
-26
-26
-26
-25
-26
-26
-28
-29
-29
-28
-28
-28
-29
-31
-31
-31
-30
-30
-30
-31
-32
-31
-31
-30
-29
-29
-30
-30
-29
-28
-27
-27
-28
-29
-29
-28
-27
-26
-26
-27
-27
-27
-26
-25
-24
-24
-25
-25
-24
-23
-22
-21
-22
-23
-23
-22
-21
-20
-20
-21
-22
-22
-21
-20
-20
-21
-22
-22
-22
-21
-21
-21
-22
-23
-24
-23
-22
-22
-22
-23
-24
-24
-23
-22
-22
-22
-22
-23
-22
-20
-19
-19
-20
-21
-20
-20
-18
-17
-17
-18
-18
-18
-17
-17
-16
-16
-17
-17
-16
-15
-15
-15
-16
-17
-17
-16
-15
-14
-15
-16
-16
-16
-15
-14
-14
-14
-15
-15
-14
-13
-12
-11
-12
-13
-13
-12
-10
-9
-9
-10
-10
-10
-9
-7
-7
-7
-8
-8
-7
-6
-6
-6
-7
-8
-9
-8
-7
-7
-8
-9
-9
-9
-9
-8
-8
-8
-9
-9
-9
-7
-7
-7
-7
-8
-8
-8
-6
-6
-6
-7
-8
-7
-7
-6
-5
-5
-6
-7
-6
-5
-4
-4
-5
-6
-6
-6
-5
-4
-5
-6
-7
-7
-7
-6
-6
-7
-8
-8
-8
-7
-7
-7
-9
-10
-10
-10
-9
-9
-9
-10
-10
-10
-10
-9
-9
-9
-10
-10
-10
-8
-8
-8
-9
-10
-11
-10
-10
-10
-11
-12
-13
-14
-14
-14
-14
-15
-17
-18
-18
-18
-18
-18
-20
-21
-22
-22
-21
-21
-22
-23
-24
-24
-23
-23
-23
-23
-24
-25
-24
-24
-23
-23
-24
-25
-26
-25
-24
-24
-25
-26
-27
-27
-26
-25
-25
-26
-27
-27
-26
-25
-24
-24
-25
-26
-26
-25
-24
-23
-23
-24
-24
-24
-23
-22
-22
-22
-23
-23
-23
-21
-21
-21
-22
-24
-24
-24
-23
-23
-23
-25
-26
-26
-25
-25
-24
-25
-26
-26
-25
-24
-24
-24
-25
-26
-26
-25
-24
-24
-24
-25
-26
-26
-25
-25
-24
-25
-25
-25
-24
-23
-22
-21
-22
-22
-21
-19
-17
-15
-14
-13
-12
-10
-8
-5
-3
-2
-1
0
1
3
5
6
6
5
5
6
6
6
4
2
0
-2
-4
-6
-10
-14
-19
-24
-28
-32
-38
-45
-53
-62
-71
-79
-87
-97
-107
-119
-130
-140
-150
-160
-170
-181
-192
-202
-212
-220
-228
-236
-245
-252
-257
-261
-263
-265
-266
-268
-268
-266
-263
-259
-255
-250
-245
-239
-231
-222
-213
-205
-197
-189
-181
-171
-161
-151
-143
-135
-127
-119
-111
-103
-96
-90
-85
-80
-74
-68
-64
-60
-58
-55
-53
-50
-47
-44
-43
-42
-41
-40
-38
-36
-35
-34
-34
-34
-32
-30
-29
-28
-28
-28
-27
-26
-24
-23
-22
-22
-22
-21
-20
-18
-17
-17
-18
-17
-16
-15
-13
-13
-14
-14
-14
-13
-12
-11
-11
-12
-13
-12
-11
-11
-10
-10
-11
-11
-11
-10
-9
-9
-10
-11
-11
-11
-10
-9
-10
-11
-11
-11
-11
-10
-10
-10
-11
-11
-11
-10
-9
-9
-10
-10
-10
-10
-8
-8
-8
-9
-9
-9
-8
-7
-6
-7
-7
-8
-7
-6
-5
-5
-6
-7
-7
-6
-5
-5
-5
-6
-7
-7
-6
-5
-5
-6
-7
-7
-6
-5
-5
-5
-6
-7
-7
-6
-5
-5
-5
-6
-7
-7
-6
-5
-5
-5
-6
-6
-6
-5
-4
-5
-6
-7
-7
-7
-6
-6
-6
-7
-8
-8
-7
-6
-6
-6
-7
-7
-6
-5
-4
-4
-5
-5
-5
-4
-3
-3
-3
-4
-4
-4
-4
-3
-3
-3
-4
-5
-5
-4
-4
-4
-5
-6
-7
-6
-5
-5
-5
-6
-7
-7
-6
-5
-5
-5
-6
-6
-6
-5
-4
-4
-5
-6
-6
-5
-4
-4
-5
-6
-6
-6
-6
-5
-5
-6
-7
-7
-7
-6
-6
-6
-8
-9
-10
-9
-9
-9
-10
-12
-13
-13
-13
-12
-13
-13
-15
-15
-15
-15
-15
-15
-17
-18
-18
-18
-17
-17
-17
-18
-19
-19
-19
-18
-18
-18
-19
-19
-19
-18
-17
-17
-18
-19
-19
-18
-17
-17
-17
-18
-18
-18
-17
-16
-16
-16
-17
-17
-16
-15
-14
-14
-15
-16
-16
-15
-14
-13
-13
-14
-14
-14
-13
-12
-12
-12
-13
-13
-12
-11
-10
-10
-11
-11
-11
-10
-9
-8
-8
-9
-9
-9
-8
-7
-6
-6
-7
-7
-6
-5
-4
-4
-5
-6
-6
-5
-4
-4
-4
-5
-6
-6
-5
-5
-5
-5
-6
-6
-6
-5
-5
-5
-6
-7
-8
-7
-7
-6
-7
-8
-9
-9
-8
-7
-7
-7
-8
-8
-7
-6
-5
-5
-5
-6
-6
-4
-3
-2
-2
-3
-3
-2
-1
0
0
0
0
0
0
1
2
2
1
0
0
1
1
2
1
0
0
0
0
0
0
0
-1
-2
-1
0
0
0
-1
-2
-2
-1
0
0
0
-1
-1
-1
0
1
1
1
0
0
1
3
4
3
3
2
2
3
4
4
4
3
2
2
3
3
3
2
1
0
1
1
1
0
0
-1
-2
-2
-1
-1
-1
-2
-3
-2
-2
0
0
0
0
0
1
2
4
4
4
3
4
5
6
7
7
6
5
5
6
6
6
5
3
2
2
2
2
1
0
-1
-2
-2
-2
-2
-3
-5
-6
-6
-6
-6
-6
-7
-8
-8
-8
-7
-6
-7
-8
-9
-9
-8
-7
-7
-8
-9
-9
-9
-8
-7
-7
-7
-8
-8
-7
-6
-5
-5
-6
-7
-7
-6
-5
-5
-5
-6
-7
-7
-6
-6
-6
-7
-8
-8
-7
-6
-6
-6
-7
-8
-8
-7
-6
-5
-6
-7
-7
-7
-6
-5
-5
-6
-7
-7
-6
-5
-5
-6
-7
-8
-8
-8
-7
-6
-7
-8
-9
-9
-8
-7
-7
-8
-8
-9
-8
-7
-6
-6
-7
-8
-8
-7
-5
-4
-5
-5
-5
-4
-2
0
0
1
2
3
6
9
11
12
13
14
16
18
21
23
24
24
24
24
25
26
25
24
22
20
18
17
14
10
6
1
-3
-7
-11
-16
-23
-31
-39
-47
-55
-64
-73
-83
-93
-103
-112
-121
-130
-141
-152
-163
-173
-181
-189
-198
-206
-214
-221
-226
-230
-233
-235
-237
-239
-240
-238
-236
-233
-230
-226
-222
-216
-209
-201
-193
-185
-178
-170
-161
-152
-142
-133
-125
-117
-109
-100
-92
-84
-78
-72
-67
-62
-56
-51
-46
-43
-41
-39
-36
-33
-30
-28
-26
-26
-25
-23
-21
-19
-19
-19
-19
-18
-17
-15
-14
-14
-14
-14
-13
-12
-10
-9
-9
-9
-8
-6
-5
-3
-3
-3
-3
-3
-1
0
0
0
0
0
1
2
3
3
3
2
2
3
4
5
4
3
2
2
3
4
4
3
2
2
2
3
3
4
3
2
2
3
4
4
4
3
2
2
2
3
3
3
2
1
1
2
2
2
2
1
1
1
2
3
3
2
1
1
1
2
3
2
1
0
1
1
2
2
1
1
0
1
2
2
2
1
0
0
1
2
2
1
0
0
0
1
2
2
2
1
1
2
3
3
3
2
1
1
1
2
3
2
1
1
1
1
2
2
2
1
1
2
3
4
4
3
2
2
3
4
4
4
3
3
3
3
4
4
4
3
2
3
4
4
4
2
1
1
2
2
3
2
1
0
0
1
2
2
1
0
0
0
1
1
0
0
-1
-1
-1
0
0
-1
-2
-3
-3
-3
-2
-2
-3
-4
-5
-4
-3
-3
-4
-5
-7
-7
-7
-6
-6
-7
-8
-9
-9
-9
-9
-9
-10
-11
-11
-11
-10
-10
-11
-12
-14
-14
-14
-13
-13
-14
-15
-16
-16
-16
-16
-16
-17
-18
-18
-17
-16
-16
-16
-17
-18
-18
-17
-16
-16
-16
-17
-17
-17
-16
-15
-15
-15
-16
-16
-15
-14
-14
-14
-15
-16
-16
-15
-14
-14
-14
-15
-16
-16
-15
-14
-14
-15
-16
-16
-15
-14
-14
-14
-15
-16
-15
-14
-13
-13
-13
-13
-14
-13
-12
-11
-10
-10
-11
-11
-10
-9
-8
-8
-9
-10
-10
-10
-9
-9
-9
-11
-11
-11
-10
-10
-10
-10
-11
-11
-10
-9
-8
-8
-9
-10
-10
-9
-8
-7
-8
-9
-9
-9
-8
-8
-7
-8
-9
-9
-9
-7
-7
-7
-8
-9
-8
-7
-6
-6
-6
-6
-7
-6
-5
-4
-3
-3
-4
-4
-3
-1
0
0
-1
-2
-2
-1
0
0
0
0
-1
0
0
1
1
0
0
0
0
1
1
1
0
0
0
0
0
1
0
0
-1
0
0
0
1
1
0
0
1
3
4
4
3
3
3
4
5
6
5
4
4
4
4
5
5
4
2
2
2
3
3
1
0
-1
-1
-1
-1
-1
-2
-3
-4
-4
-4
-4
-4
-5
-6
-7
-6
-5
-4
-5
-6
-6
-7
-6
-5
-4
-5
-6
-6
-6
-5
-4
-4
-5
-6
-7
-6
-6
-6
-7
-9
-10
-11
-11
-11
-11
-13
-15
-16
-16
-16
-16
-17
-18
-20
-21
-21
-20
-20
-21
-23
-24
-24
-24
-23
-23
-24
-25
-26
-26
-25
-25
-25
-25
-26
-27
-26
-25
-24
-25
-26
-27
-27
-26
-25
-25
-25
-26
-27
-27
-27
-26
-26
-27
-28
-28
-28
-27
-27
-27
-29
-30
-30
-29
-28
-28
-29
-30
-30
-30
-29
-29
-28
-29
-30
-30
-29
-28
-27
-28
-29
-29
-30
-29
-28
-27
-28
-29
-30
-29
-28
-28
-28
-28
-29
-29
-28
-28
-27
-28
-29
-30
-30
-29
-29
-28
-29
-30
-30
-30
-28
-27
-26
-26
-26
-25
-23
-20
-18
-17
-16
-15
-13
-10
-7
-5
-4
-3
-2
0
1
2
3
3
2
1
1
1
0
-2
-5
-8
-12
-14
-17
-21
-26
-32
-37
-43
-49
-56
-64
-73
-83
-93
-102
-111
-120
-131
-142
-154
-165
-175
-184
-195
-206
-217
-227
-236
-243
-250
-256
-261
-266
-270
-271
-271
-271
-271
-271
-269
-266
-260
-254
-247
-241
-235
-228
-219
-210
-201
-192
-183
-175
-166
-156
-146
-137
-130
-123
-117
-110
-103
-96
-90
-86
-82
-79
-75
-70
-66
-63
-61
-60
-58
-55
-52
-50
-49
-49
-49
-48
-46
-44
-43
-42
-42
-42
-41
-39
-38
-37
-37
-37
-36
-35
-33
-32
-32
-33
-33
-33
-32
-30
-29
-30
-30
-31
-30
-29
-28
-28
-28
-29
-29
-27
-26
-25
-25
-26
-27
-27
-26
-25
-24
-25
-26
-26
-26
-25
-24
-24
-24
-25
-25
-24
-23
-23
-24
-25
-26
-26
-25
-24
-24
-24
-25
-26
-26
-25
-24
-24
-25
-26
-26
-25
-24
-23
-24
-25
-25
-26
-25
-24
-24
-24
-25
-26
-26
-25
-24
-24
-25
-26
-26
-26
-25
-24
-24
-25
-26
-26
-25
-24
-23
-24
-24
-24
-24
-23
-22
-21
-22
-22
-22
-21
-20
-19
-20
-21
-21
-21
-21
-20
-20
-21
-22
-22
-22
-21
-21
-21
-22
-23
-23
-22
-21
-20
-21
-22
-23
-23
-22
-21
-21
-22
-23
-23
-23
-22
-22
-22
-23
-24
-24
-24
-23
-23
-23
-24
-25
-25
-24
-23
-23
-24
-25
-25
-25
-24
-23
-23
-24
-24
-25
-24
-23
-22
-23
-24
-25
-25
-24
-23
-23
-24
-25
-25
-25
-25
-24
-24
-24
-25
-26
-25
-24
-24
-24
-25
-26
-26
-25
-25
-24
-25
-27
-27
-27
-27
-26
-26
-27
-28
-28
-28
-27
-27
-27
-28
-29
-30
-29
-28
-28
-29
-31
-31
-32
-31
-31
-31
-32
-34
-34
-34
-33
-33
-34
-35
-36
-37
-36
-35
-35
-36
-37
-37
-37
-36
-35
-35
-36
-36
-36
-35
-34
-33
-34
-35
-35
-35
-34
-33
-32
-33
-34
-35
-35
-34
-34
-34
-35
-36
-36
-36
-35
-35
-36
-37
-38
-38
-38
-37
-37
-38
-39
-39
-39
-38
-38
-37
-38
-39
-39
-38
-37
-37
-37
-38
-39
-38
-37
-36
-36
-37
-37
-38
-38
-37
-36
-36
-36
-37
-37
-37
-36
-35
-36
-37
-38
-38
-37
-36
-36
-37
-38
-38
-38
-37
-37
-37
-37
-38
-38
-37
-36
-35
-35
-36
-36
-36
-35
-34
-33
-34
-34
-34
-34
-32
-31
-30
-30
-31
-30
-29
-27
-26
-26
-26
-27
-26
-25
-24
-23
-23
-24
-25
-24
-23
-23
-22
-23
-24
-24
-24
-23
-23
-23
-24
-25
-26
-25
-24
-24
-25
-26
-26
-26
-25
-24
-24
-24
-25
-24
-23
-22
-21
-21
-22
-22
-22
-21
-20
-19
-20
-21
-21
-20
-20
-19
-19
-20
-21
-21
-21
-21
-21
-22
-24
-25
-26
-26
-26
-26
-27
-29
-30
-30
-30
-30
-30
-31
-33
-33
-32
-31
-31
-31
-32
-33
-33
-32
-30
-30
-31
-32
-32
-32
-31
-30
-30
-31
-32
-33
-33
-32
-32
-34
-35
-37
-38
-38
-38
-39
-40
-42
-44
-45
-45
-45
-46
-47
-49
-49
-49
-49
-49
-50
-51
-52
-53
-52
-51
-51
-52
-53
-54
-54
-53
-52
-52
-53
-54
-54
-53
-52
-52
-52
-53
-54
-54
-53
-52
-52
-52
-53
-54
-53
-53
-52
-52
-52
-53
-54
-53
-52
-52
-52
-54
-55
-55
-55
-54
-54
-55
-56
-56
-56
-56
-55
-55
-56
-57
-57
-56
-55
-55
-55
-56
-57
-57
-56
-55
-55
-56
-56
-57
-57
-56
-55
-55
-55
-56
-56
-55
-54
-53
-54
-55
-55
-55
-54
-53
-53
-54
-54
-54
-54
-52
-51
-50
-50
-50
-48
-46
-44
-42
-41
-41
-40
-38
-36
-33
-31
-30
-29
-28
-27
-25
-24
-23
-24
-25
-25
-25
-25
-26
-29
-32
-36
-39
-41
-44
-48
-54
-59
-65
-71
-77
-84
-92
-102
-112
-121
-131
-140
-150
-161
-173
-184
-196
-206
-216
-227
-239
-251
-261
-270
-278
-285
-292
-298
-304
-307
-309
-309
-309
-309
-309
-307
-303
-297
-291
-284
-278
-271
-263
-254
-244
-234
-224
-215
-206
-196
-186
-176
-166
-158
-151
-145
-137
-130
-123
-117
-112
-109
-105
-101
-97
-93
-90
-88
-87
-85
-82
-79
-77
-76
-76
-75
-74
-72
-70
-68
-68
-68
-67
-66
-64
-62
-61
-60
-60
-60
-58
-56
-55
-55
-56
-56
-55
-54
-53
-52
-53
-54
-54
-53
-53
-52
-51
-52
-52
-52
-51
-50
-49
-50
-50
-51
-51
-50
-49
-48
-49
-50
-50
-50
-49
-49
-49
-49
-51
-51
-50
-50
-50
-50
-52
-53
-53
-53
-52
-52
-53
-54
-54
-54
-53
-52
-52
-52
-53
-52
-51
-50
-49
-50
-51
-51
-51
-50
-49
-49
-49
-50
-51
-51
-50
-49
-49
-50
-51
-51
-50
-49
-49
-49
-50
-51
-51
-50
-49
-49
-50
-51
-51
-51
-50
-49
-49
-50
-51
-51
-50
-49
-48
-49
-49
-50
-50
-49
-48
-47
-48
-48
-48
-47
-46
-46
-45
-46
-47
-47
-46
-45
-45
-45
-46
-47
-47
-46
-46
-45
-46
-47
-48
-48
-47
-46
-46
-46
-47
-47
-46
-45
-44
-44
-45
-46
-46
-45
-44
-43
-44
-45
-45
-45
-44
-43
-43
-44
-45
-45
-44
-43
-43
-44
-45
-46
-46
-46
-45
-45
-46
-47
-48
-48
-47
-47
-47
-48
-49
-49
-48
-47
-47
-48
-49
-50
-50
-49
-48
-48
-49
-50
-51
-51
-50
-49
-49
-50
-51
-51
-51
-50
-49
-50
-51
-52
-52
-51
-50
-50
-51
-53
-53
-54
-53
-53
-53
-54
-55
-55
-55
-54
-55
-55
-57
-58
-58
-57
-57
-57
-58
-59
-59
-59
-58
-57
-57
-58
-59
-59
-58
-57
-57
-58
-59
-60
-60
-60
-59
-59
-59
-60
-61
-60
-59
-58
-58
-59
-59
-59
-58
-57
-56
-57
-57
-58
-58
-57
-56
-56
-57
-58
-59
-59
-58
-58
-58
-59
-60
-61
-60
-59
-59
-60
-61
-62
-62
-61
-60
-60
-61
-62
-62
-62
-61
-60
-60
-60
-61
-61
-60
-59
-58
-58
-59
-59
-59
-58
-57
-56
-57
-57
-57
-57
-56
-55
-54
-55
-55
-55
-53
-52
-51
-51
-52
-52
-52
-50
-49
-48
-49
-49
-49
-48
-47
-46
-45
-45
-46
-45
-44
-43
-42
-43
-43
-44
-44
-43
-42
-42
-42
-43
-44
-44
-43
-42
-42
-43
-44
-44
-43
-42
-41
-41
-42
-43
-43
-41
-40
-39
-40
-40
-40
-39
-38
-37
-36
-37
-37
-37
-36
-35
-34
-35
-36
-37
-37
-37
-36
-36
-38
-39
-40
-40
-40
-40
-41
-42
-44
-44
-44
-44
-44
-45
-46
-47
-48
-47
-47
-47
-48
-49
-49
-49
-48
-47
-47
-47
-48
-48
-47
-46
-45
-45
-46
-47
-47
-46
-45
-45
-45
-46
-47
-47
-47
-47
-47
-49
-50
-51
-50
-50
-50
-52
-53
-55
-56
-55
-55
-56
-57
-58
-59
-59
-59
-59
-59
-60
-61
-61
-60
-59
-59
-60
-61
-62
-62
-61
-60
-60
-61
-62
-63
-63
-62
-61
-62
-62
-63
-63
-62
-61
-61
-62
-63
-64
-64
-63
-62
-62
-62
-63
-64
-63
-62
-62
-61
-62
-63
-63
-62
-61
-60
-60
-61
-62
-61
-60
-59
-58
-59
-59
-59
-59
-58
-57
-57
-57
-58
-58
-57
-55
-55
-56
-57
-58
-58
-57
-56
-56
-57
-58
-59
-59
-58
-57
-57
-58
-59
-59
-58
-57
-56
-56
-57
-57
-56
-54
-52
-51
-50
-50
-49
-47
-45
-42
-40
-39
-38
-37
-34
-31
-29
-28
-28
-27
-26
-25
-23
-23
-24
-25
-27
-28
-28
-30
-32
-36
-40
-43
-46
-50
-54
-60
-67
-74
-81
-89
-96
-105
-116
-127
-139
-149
-160
-171
-182
-195
-208
-220
-231
-242
-253
-265
-277
-288
-297
-304
-310
-316
-322
-326
-329
-330
-329
-327
-325
-322
-318
-313
-305
-296
-288
-279
-271
-262
-251
-240
-228
-217
-207
-197
-187
-177
-166
-156
-147
-139
-132
-125
-117
-110
-104
-100
-96
-93
-89
-85
-81
-79
-77
-76
-75
-73
-71
-70
-69
-68
-69
-68
-66
-64
-63
-63
-63
-63
-62
-60
-58
-57
-57
-57
-56
-55
-54
-52
-51
-52
-52
-51
-50
-48
-47
-47
-48
-48
-48
-46
-45
-44
-45
-45
-46
-45
-44
-43
-42
-43
-43
-43
-42
-40
-40
-40
-41
-41
-41
-40
-39
-39
-40
-41
-41
-41
-40
-39
-39
-40
-41
-41
-40
-39
-39
-40
-41
-42
-42
-41
-40
-40
-41
-42
-42
-42
-41
-40
-40
-40
-41
-41
-40
-39
-38
-39
-40
-40
-40
-39
-38
-38
-39
-40
-41
-40
-40
-39
-39
-40
-41
-40
-39
-38
-38
-38
-39
-40
-40
-38
-37
-37
-37
-38
-38
-38
-37
-36
-36
-36
-37
-37
-36
-35
-35
-36
-37
-38
-38
-37
-36
-36
-37
-38
-39
-38
-38
-37
-37
-38
-39
-39
-38
-37
-36
-37
-38
-39
-39
-38
-37
-37
-37
-38
-39
-38
-37
-36
-36
-37
-38
-38
-37
-36
-35
-36
-37
-38
-38
-37
-36
-36
-37
-38
-39
-39
-39
-38
-38
-39
-40
-40
-40
-39
-39
-40
-41
-42
-42
-41
-40
-40
-41
-42
-42
-42
-41
-40
-40
-41
-42
-42
-41
-40
-40
-40
-41
-42
-42
-41
-40
-41
-42
-43
-43
-43
-43
-43
-43
-44
-45
-46
-45
-45
-45
-46
-47
-48
-49
-48
-48
-48
-49
-51
-51
-51
-51
-51
-51
-52
-53
-54
-53
-52
-52
-53
-54
-55
-55
-55
-54
-54
-55
-56
-56
-56
-55
-54
-54
-54
-55
-55
-53
-52
-51
-52
-52
-53
-52
-51
-49
-49
-49
-50
-50
-49
-49
-48
-48
-49
-50
-50
-49
-48
-48
-49
-51
-52
-52
-52
-51
-52
-53
-54
-55
-55
-54
-53
-53
-54
-55
-55
-54
-52
-52
-52
-53
-54
-54
-52
-51
-51
-51
-52
-52
-52
-51
-50
-50
-50
-51
-50
-49
-48
-48
-48
-49
-50
-49
-49
-48
-47
-48
-49
-49
-49
-48
-47
-47
-47
-48
-48
-47
-45
-45
-45
-46
-46
-45
-44
-43
-42
-43
-43
-43
-43
-41
-40
-40
-41
-41
-41
-40
-38
-38
-38
-39
-40
-40
-39
-38
-38
-38
-39
-39
-39
-38
-38
-38
-39
-40
-40
-39
-38
-38
-38
-39
-40
-40
-39
-37
-37
-38
-38
-38
-38
-37
-36
-36
-37
-38
-38
-37
-36
-36
-38
-39
-40
-41
-41
-41
-42
-43
-45
-47
-47
-47
-48
-49
-50
-52
-53
-52
-52
-52
-53
-54
-55
-55
-54
-53
-52
-53
-53
-53
-52
-51
-50
-49
-49
-50
-49
-48
-46
-46
-47
-48
-48
-48
-48
-47
-47
-49
-50
-51
-51
-51
-51
-51
-53
-54
-55
-55
-54
-55
-56
-58
-59
-60
-59
-59
-59
-61
-62
-63
-63
-62
-62
-62
-63
-64
-64
-63
-62
-62
-62
-63
-64
-63
-62
-61
-61
-62
-63
-63
-62
-62
-61
-61
-62
-62
-62
-61
-60
-60
-61
-62
-63
-62
-61
-60
-60
-61
-62
-62
-62
-61
-60
-60
-61
-62
-61
-60
-59
-59
-60
-61
-62
-62
-61
-60
-60
-61
-62
-63
-62
-62
-61
-62
-63
-63
-63
-62
-61
-61
-62
-63
-64
-63
-62
-61
-61
-62
-63
-63
-62
-61
-60
-60
-61
-61
-60
-59
-57
-55
-55
-55
-54
-53
-50
-48
-46
-45
-44
-42
-40
-37
-35
-33
-32
-31
-30
-28
-26
-25
-26
-27
-28
-29
-30
-31
-33
-37
-41
-45
-49
-53
-58
-63
-70
-78
-85
-93
-101
-111
-122
-134
-146
-158
-169
-181
-193
-207
-220
-233
-246
-258
-270
-282
-294
-306
-315
-323
-329
-335
-341
-345
-348
-349
-348
-346
-344
-341
-337
-331
-324
-315
-305
-296
-286
-276
-265
-253
-240
-228
-217
-207
-196
-185
-173
-162
-153
-144
-137
-129
-121
-114
-107
-101
-97
-94
-90
-86
-82
-79
-77
-76
-75
-74
-72
-70
-69
-69
-69
-69
-68
-66
-65
-64
-64
-63
-62
-60
-59
-57
-57
-57
-57
-56
-55
-53
-53
-53
-54
-54
-53
-52
-51
-51
-52
-52
-52
-51
-50
-50
-50
-51
-51
-51
-50
-49
-49
-49
-50
-50
-50
-49
-48
-48
-48
-49
-48
-47
-46
-46
-47
-48
-48
-48
-47
-46
-46
-47
-48
-48
-48
-47
-46
-46
-47
-47
-47
-46
-45
-44
-45
-46
-46
-46
-44
-43
-43
-44
-44
-44
-44
-43
-42
-42
-43
-43
-43
-43
-42
-42
-42
-43
-44
-44
-43
-43
-43
-44
-45
-45
-45
-44
-44
-44
-44
-45
-45
-44
-43
-42
-43
-44
-44
-44
-43
-41
-41
-42
-42
-43
-42
-41
-40
-40
-41
-42
-41
-40
-39
-39
-40
-41
-41
-41
-40
-39
-39
-40
-41
-41
-41
-40
-40
-40
-40
-41
-41
-40
-39
-39
-40
-41
-42
-42
-41
-40
-40
-41
-42
-43
-43
-42
-41
-41
-42
-43
-43
-42
-41
-41
-42
-43
-43
-43
-42
-41
-41
-41
-42
-42
-42
-41
-40
-40
-41
-42
-42
-41
-40
-40
-40
-41
-42
-42
-42
-41
-41
-42
-43
-44
-43
-43
-42
-43
-44
-45
-45
-44
-43
-43
-44
-46
-47
-47
-46
-46
-46
-47
-49
-49
-50
-49
-49
-50
-51
-52
-53
-52
-52
-52
-53
-54
-55
-55
-55
-54
-54
-55
-56
-57
-56
-56
-55
-55
-56
-57
-57
-56
-55
-55
-55
-56
-57
-56
-55
-55
-54
-55
-56
-56
-56
-55
-54
-54
-55
-55
-55
-54
-52
-52
-52
-53
-54
-53
-52
-51
-51
-51
-52
-52
-51
-50
-50
-50
-50
-51
-51
-50
-49
-49
-50
-51
-51
-51
-51
-50
-50
-51
-52
-52
-52
-51
-51
-51
-52
-53
-52
-51
-50
-50
-51
-52
-52
-52
-51
-50
-49
-50
-51
-51
-50
-49
-48
-48
-49
-49
-49
-48
-47
-46
-47
-48
-48
-48
-46
-45
-45
-45
-46
-46
-45
-44
-43
-43
-43
-44
-43
-42
-40
-40
-40
-41
-41
-41
-40
-39
-39
-39
-40
-40
-39
-38
-38
-38
-38
-39
-39
-38
-37
-37
-37
-38
-39
-39
-38
-37
-37
-38
-39
-39
-39
-38
-38
-38
-39
-39
-39
-38
-36
-36
-36
-37
-37
-36
-35
-34
-33
-34
-35
-35
-34
-33
-33
-33
-34
-35
-35
-34
-34
-34
-36
-37
-39
-39
-39
-39
-39
-41
-42
-43
-43
-43
-43
-43
-44
-45
-46
-45
-44
-44
-44
-45
-46
-45
-44
-43
-43
-43
-44
-44
-43
-41
-41
-40
-41
-41
-41
-40
-39
-39
-40
-41
-42
-42
-42
-42
-42
-44
-45
-46
-46
-46
-46
-47
-49
-50
-50
-50
-49
-50
-51
-52
-53
-53
-52
-52
-52
-53
-54
-54
-53
-53
-52
-52
-53
-53
-53
-52
-51
-51
-51
-52
-52
-52
-51
-50
-50
-51
-52
-52
-51
-50
-50
-50
-50
-51
-51
-50
-49
-49
-50
-51
-52
-52
-52
-51
-51
-52
-53
-54
-54
-53
-53
-53
-54
-55
-55
-55
-54
-54
-55
-56
-56
-56
-56
-55
-55
-56
-57
-57
-56
-55
-55
-55
-55
-56
-56
-54
-53
-53
-53
-54
-54
-54
-52
-51
-51
-51
-51
-51
-50
-49
-47
-47
-46
-46
-45
-43
-41
-39
-39
-38
-37
-35
-33
-30
-29
-28
-27
-26
-24
-22
-20
-20
-20
-21
-21
-21
-21
-22
-25
-28
-32
-35
-37
-41
-45
-51
-58
-64
-70
-77
-85
-94
-104
-116
-126
-137
-148
-160
-173
-187
-201
-214
-226
-238
-252
-266
-280
-292
-303
-312
-321
-329
-337
-343
-347
-349
-350
-350
-350
-349
-346
-341
-334
-325
-317
-309
-300
-289
-278
-265
-253
-241
-229
-218
-206
-193
-180
-169
-159
-150
-141
-132
-123
-114
-107
-102
-97
-93
-88
-83
-79
-76
-74
-72
-70
-68
-65
-64
-63
-63
-63
-62
-60
-58
-58
-58
-58
-57
-56
-54
-53
-52
-52
-52
-51
-49
-47
-47
-47
-47
-47
-46
-45
-44
-43
-44
-45
-45
-44
-43
-42
-42
-43
-43
-43
-42
-41
-41
-41
-42
-43
-43
-42
-41
-41
-42
-42
-43
-42
-41
-41
-41
-41
-42
-41
-40
-39
-39
-40
-41
-41
-41
-40
-39
-39
-40
-40
-41
-40
-39
-39
-39
-39
-40
-40
-39
-38
-37
-38
-39
-40
-39
-38
-37
-37
-38
-39
-39
-38
-37
-36
-36
-37
-38
-37
-36
-35
-35
-35
-36
-37
-37
-36
-35
-35
-36
-37
-38
-37
-37
-36
-36
-37
-38
-38
-37
-37
-37
-37
-39
-39
-39
-38
-37
-37
-38
-39
-39
-38
-37
-36
-37
-37
-38
-38
-37
-36
-36
-36
-37
-38
-38
-37
-36
-36
-37
-38
-38
-37
-36
-36
-36
-37
-37
-37
-35
-34
-34
-34
-35
-36
-35
-34
-33
-33
-34
-35
-35
-34
-33
-33
-33
-34
-34
-34
-33
-32
-32
-33
-34
-34
-34
-33
-32
-32
-33
-34
-34
-34
-33
-33
-33
-34
-35
-35
-34
-33
-33
-34
-36
-36
-36
-36
-35
-36
-37
-38
-38
-38
-37
-37
-37
-38
-39
-39
-38
-37
-37
-38
-39
-40
-40
-40
-39
-40
-41
-42
-43
-43
-43
-43
-43
-45
-46
-46
-46
-45
-45
-47
-48
-49
-49
-48
-48
-48
-49
-50
-50
-50
-49
-48
-48
-49
-50
-49
-48
-47
-47
-47
-48
-49
-48
-47
-46
-45
-46
-46
-46
-46
-45
-44
-44
-44
-44
-44
-43
-42
-42
-42
-43
-44
-43
-42
-41
-41
-42
-43
-43
-42
-41
-40
-40
-41
-41
-41
-39
-38
-38
-38
-39
-40
-39
-38
-37
-37
-38
-39
-39
-39
-38
-37
-38
-39
-39
-39
-38
-38
-38
-38
-39
-40
-40
-39
-38
-38
-39
-39
-40
-39
-38
-37
-37
-38
-38
-38
-37
-36
-35
-36
-37
-37
-37
-35
-34
-34
-35
-36
-36
-35
-34
-33
-33
-33
-33
-33
-31
-30
-29
-29
-30
-30
-29
-28
-27
-27
-27
-28
-28
-27
-26
-25
-25
-26
-26
-26
-25
-24
-24
-25
-26
-27
-27
-26
-25
-25
-26
-27
-27
-27
-26
-26
-26
-26
-27
-27
-25
-24
-24
-25
-26
-26
-26
-25
-24
-24
-25
-26
-26
-26
-25
-24
-25
-25
-26
-26
-26
-25
-25
-27
-28
-29
-29
-29
-28
-29
-30
-32
-32
-32
-32
-32
-32
-34
-35
-34
-34
-33
-33
-33
-34
-35
-34
-33
-32
-31
-32
-32
-32
-31
-30
-29
-30
-30
-31
-31
-30
-30
-30
-31
-33
-34
-34
-34
-34
-35
-37
-38
-39
-39
-39
-39
-40
-41
-42
-42
-41
-41
-41
-42
-43
-44
-44
-43
-43
-43
-44
-45
-45
-45
-44
-43
-43
-44
-45
-45
-43
-43
-42
-43
-44
-44
-43
-42
-42
-42
-43
-44
-44
-43
-43
-42
-42
-43
-44
-44
-43
-42
-42
-43
-45
-45
-45
-44
-43
-43
-44
-45
-45
-44
-43
-43
-43
-43
-44
-43
-42
-41
-41
-42
-43
-44
-44
-43
-42
-43
-44
-45
-45
-45
-44
-44
-44
-45
-46
-45
-44
-43
-43
-43
-44
-44
-44
-43
-41
-41
-42
-42
-42
-40
-39
-37
-36
-36
-35
-34
-31
-29
-28
-27
-26
-25
-23
-20
-18
-16
-16
-15
-14
-13
-12
-11
-12
-13
-15
-15
-16
-17
-20
-23
-28
-32
-36
-40
-44
-50
-57
-64
-72
-80
-88
-97
-107
-119
-131
-142
-152
-163
-175
-188
-201
-214
-225
-236
-247
-258
-270
-280
-290
-297
-303
-308
-312
-316
-319
-319
-318
-315
-313
-310
-306
-300
-293
-284
-274
-265
-256
-246
-236
-224
-212
-201
-190
-179
-169
-158
-147
-137
-127
-119
-112
-105
-98
-91
-85
-80
-76
-73
-70
-67
-63
-61
-59
-58
-58
-56
-54
-52
-52
-52
-52
-52
-52
-50
-49
-48
-48
-49
-48
-47
-45
-44
-43
-43
-43
-41
-39
-38
-37
-37
-37
-37
-36
-34
-33
-33
-33
-34
-33
-33
-31
-31
-30
-31
-31
-31
-30
-29
-28
-29
-30
-31
-30
-29
-28
-28
-29
-30
-30
-30
-29
-28
-28
-29
-29
-29
-28
-27
-27
-28
-29
-29
-29
-28
-27
-26
-27
-28
-28
-27
-26
-25
-25
-26
-26
-26
-25
-24
-24
-24
-25
-26
-25
-24
-23
-23
-24
-25
-26
-25
-25
-24
-24
-25
-26
-26
-25
-25
-25
-26
-27
-28
-28
-27
-27
-27
-28
-29
-29
-29
-28
-27
-27
-28
-28
-28
-27
-26
-25
-26
-27
-27
-27
-26
-25
-25
-26
-26
-27
-26
-25
-25
-25
-26
-26
-26
-25
-24
-24
-24
-25
-26
-26
-25
-24
-24
-25
-26
-26
-25
-25
-24
-24
-25
-26
-25
-24
-24
-24
-25
-26
-26
-26
-25
-24
-24
-25
-26
-26
-26
-25
-25
-25
-26
-26
-26
-25
-24
-24
-25
-26
-27
-26
-25
-24
-25
-25
-26
-27
-26
-25
-25
-25
-26
-26
-26
-25
-24
-24
-25
-27
-27
-27
-26
-26
-26
-28
-29
-29
-29
-29
-28
-29
-30
-31
-31
-30
-29
-29
-31
-32
-33
-33
-32
-32
-33
-34
-35
-36
-36
-36
-36
-37
-38
-39
-40
-39
-39
-40
-41
-42
-43
-43
-42
-41
-41
-42
-42
-42
-42
-41
-40
-39
-40
-40
-40
-38
-37
-36
-37
-38
-38
-37
-36
-35
-35
-35
-36
-36
-36
-35
-34
-35
-35
-36
-36
-34
-34
-34
-34
-36
-36
-36
-35
-34
-34
-35
-36
-36
-35
-34
-33
-33
-34
-34
-34
-32
-31
-31
-31
-32
-32
-31
-30
-29
-29
-30
-31
-31
-30
-29
-28
-28
-29
-30
-29
-28
-27
-27
-28
-29
-29
-29
-28
-27
-27
-27
-28
-28
-28
-27
-26
-26
-27
-28
-28
-27
-26
-26
-27
-28
-28
-28
-27
-27
-27
-27
-28
-28
-28
-27
-26
-26
-27
-27
-26
-25
-24
-23
-24
-24
-24
-24
-22
-21
-21
-21
-22
-21
-21
-19
-19
-19
-19
-20
-19
-18
-17
-17
-18
-20
-21
-21
-20
-19
-20
-21
-22
-23
-23
-22
-22
-22
-23
-23
-23
-22
-21
-20
-20
-21
-21
-20
-19
-17
-17
-17
-18
-18
-17
-16
-15
-15
-16
-17
-16
-16
-15
-16
-17
-18
-19
-19
-19
-18
-19
-20
-22
-22
-22
-22
-22
-22
-23
-24
-24
-23
-22
-22
-23
-24
-24
-24
-23
-22
-22
-22
-23
-23
-22
-21
-20
-20
-21
-21
-21
-20
-19
-19
-20
-21
-22
-22
-21
-21
-22
-24
-25
-26
-26
-26
-27
-28
-29
-31
-31
-31
-31
-31
-33
-34
-35
-36
-35
-35
-35
-36
-38
-38
-38
-37
-37
-38
-39
-40
-40
-39
-38
-38
-39
-41
-41
-41
-40
-39
-40
-40
-41
-41
-40
-39
-39
-39
-39
-40
-39
-38
-37
-37
-38
-39
-39
-39
-38
-37
-37
-38
-39
-39
-39
-38
-38
-38
-39
-40
-39
-39
-38
-38
-39
-40
-41
-41
-40
-39
-39
-40
-41
-41
-40
-39
-39
-39
-40
-40
-39
-38
-37
-37
-37
-38
-38
-38
-37
-36
-36
-37
-37
-37
-37
-36
-35
-35
-36
-36
-36
-34
-33
-32
-31
-31
-31
-29
-27
-24
-23
-22
-22
-20
-18
-16
-14
-13
-12
-12
-11
-10
-9
-9
-10
-12
-14
-15
-16
-18
-21
-25
-29
-33
-37
-40
-44
-50
-56
-63
-69
-75
-83
-91
-101
-111
-121
-131
-140
-149
-159
-170
-180
-191
-200
-209
-219
-228
-238
-246
-253
-258
-263
-267
-271
-275
-277
-277
-276
-274
-272
-270
-267
-263
-256
-249
-242
-234
-227
-220
-211
-201
-191
-182
-174
-166
-158
-149
-139
-131
-123
-117
-111
-105
-99
-93
-88
-83
-80
-77
-74
-70
-67
-65
-64
-63
-62
-60
-58
-56
-56
-56
-56
-55
-54
-53
-51
-51
-51
-50
-49
-47
-45
-44
-44
-43
-43
-41
-39
-38
-37
-37
-36
-36
-34
-33
-31
-31
-31
-31
-31
-29
-28
-28
-29
-30
-30
-30
-29
-28
-28
-29
-29
-30
-29
-28
-28
-28
-28
-29
-28
-27
-26
-26
-26
-27
-28
-27
-26
-25
-25
-26
-27
-27
-27
-26
-26
-26
-27
-28
-28
-28
-27
-28
-29
-30
-31
-31
-30
-29
-30
-31
-31
-32
-31
-31
-30
-30
-31
-31
-31
-30
-29
-28
-29
-30
-30
-30
-29
-28
-28
-28
-29
-29
-29
-28
-27
-27
-28
-29
-28
-27
-26
-26
-26
-27
-28
-28
-27
-26
-26
-27
-28
-28
-28
-27
-27
-27
-28
-29
-29
-28
-27
-27
-28
-29
-30
-29
-28
-27
-28
-28
-29
-29
-28
-27
-26
-26
-27
-27
-27
-26
-25
-24
-25
-26
-26
-26
-25
-24
-24
-25
-25
-26
-25
-24
-24
-24
-25
-25
-25
-24
-23
-23
-24
-25
-25
-25
-24
-23
-23
-24
-25
-26
-26
-25
-25
-26
-27
-28
-28
-27
-26
-27
-28
-29
-30
-30
-30
-29
-30
-31
-32
-33
-32
-32
-32
-32
-33
-34
-34
-33
-33
-33
-34
-35
-36
-36
-35
-35
-35
-36
-37
-37
-37
-36
-36
-36
-37
-38
-38
-37
-37
-37
-38
-39
-40
-40
-39
-38
-38
-39
-40
-40
-40
-39
-38
-38
-39
-39
-39
-38
-37
-36
-37
-38
-38
-38
-37
-36
-36
-37
-38
-38
-38
-37
-36
-36
-37
-38
-37
-36
-35
-35
-35
-36
-37
-36
-35
-34
-34
-34
-35
-35
-34
-33
-32
-32
-33
-33
-33
-32
-31
-31
-31
-32
-33
-32
-31
-30
-30
-31
-32
-32
-31
-30
-30
-30
-30
-31
-31
-30
-29
-29
-29
-30
-31
-31
-30
-29
-30
-31
-32
-32
-31
-31
-30
-30
-32
-32
-32
-32
-31
-31
-32
-33
-34
-33
-32
-32
-32
-32
-33
-33
-33
-32
-31
-31
-32
-33
-33
-32
-30
-30
-31
-31
-32
-31
-30
-28
-28
-28
-29
-28
-27
-26
-25
-25
-25
-25
-24
-23
-22
-22
-23
-23
-24
-24
-23
-22
-22
-24
-25
-25
-25
-24
-24
-24
-25
-25
-25
-24
-23
-23
-24
-25
-25
-25
-23
-22
-22
-23
-24
-24
-23
-22
-21
-21
-22
-22
-22
-21
-20
-20
-21
-22
-23
-22
-21
-21
-21
-22
-23
-23
-23
-22
-22
-23
-24
-25
-25
-24
-24
-24
-25
-26
-27
-27
-27
-26
-26
-27
-28
-29
-28
-27
-26
-26
-26
-27
-26
-25
-23
-23
-24
-24
-25
-24
-23
-23
-23
-24
-26
-27
-27
-27
-27
-28
-30
-32
-32
-32
-33
-34
-36
-38
-39
-40
-40
-40
-41
-43
-44
-45
-46
-45
-45
-46
-47
-48
-48
-48
-47
-47
-48
-50
-50
-50
-49
-49
-49
-50
-51
-51
-50
-50
-49
-49
-50
-51
-50
-49
-48
-48
-49
-50
-51
-50
-49
-48
-48
-49
-50
-50
-50
-49
-48
-48
-49
-49
-49
-48
-47
-47
-48
-49
-50
-50
-49
-48
-48
-49
-50
-50
-50
-49
-48
-48
-49
-50
-49
-48
-47
-47
-48
-49
-49
-49
-48
-47
-47
-48
-49
-49
-49
-48
-47
-48
-48
-49
-49
-48
-47
-47
-48
-48
-48
-48
-46
-44
-43
-43
-42
-41
-39
-37
-34
-33
-32
-31
-29
-26
-23
-22
-21
-20
-20
-19
-17
-16
-16
-18
-19
-21
-22
-23
-24
-27
-31
-34
-38
-41
-44
-49
-55
-62
-69
-75
-82
-90
-99
-109
-119
-130
-139
-149
-159
-170
-181
-192
-203
-213
-223
-233
-244
-254
-263
-270
-276
-281
-286
-290
-294
-295
-296
-294
-292
-290
-288
-284
-278
-271
-263
-256
-249
-241
-233
-224
-214
-204
-195
-186
-178
-169
-160
-151
-142
-135
-128
-122
-116
-109
-103
-98
-94
-91
-88
-84
-80
-77
-74
-73
-72
-70
-68
-66
-64
-64
-63
-63
-62
-60
-58
-58
-58
-58
-57
-56
-55
-53
-52
-52
-52
-52
-50
-49
-48
-47
-47
-47
-46
-45
-43
-43
-43
-43
-43
-43
-41
-40
-40
-41
-42
-42
-41
-40
-39
-39
-40
-41
-41
-40
-39
-39
-40
-41
-42
-41
-41
-40
-40
-41
-41
-42
-41
-40
-40
-40
-41
-42
-41
-40
-39
-39
-40
-41
-41
-41
-40
-39
-39
-40
-40
-40
-40
-39
-38
-38
-39
-39
-39
-38
-37
-37
-38
-39
-39
-39
-38
-38
-38
-39
-40
-40
-40
-39
-39
-39
-40
-41
-41
-40
-39
-39
-40
-41
-42
-41
-40
-39
-40
-40
-41
-41
-41
-40
-39
-39
-40
-40
-40
-39
-38
-37
-38
-39
-39
-38
-37
-36
-36
-36
-37
-37
-36
-35
-34
-34
-34
-35
-34
-33
-33
-33
-33
-35
-35
-35
-35
-34
-35
-36
-37
-38
-37
-37
-37
-37
-38
-39
-39
-38
-37
-37
-38
-39
-39
-39
-38
-36
-36
-37
-38
-38
-37
-36
-35
-36
-36
-37
-37
-36
-35
-35
-36
-37
-38
-38
-38
-38
-38
-39
-40
-41
-41
-41
-41
-41
-42
-43
-43
-43
-42
-42
-43
-45
-45
-45
-44
-44
-44
-45
-46
-47
-46
-46
-46
-46
-47
-48
-48
-48
-47
-47
-48
-50
-51
-51
-50
-50
-50
-52
-53
-53
-53
-52
-52
-52
-53
-54
-54
-53
-52
-52
-52
-53
-54
-53
-52
-51
-51
-52
-53
-53
-52
-51
-51
-51
-52
-53
-52
-51
-51
-51
-52
-53
-53
-53
-52
-52
-52
-53
-54
-54
-54
-53
-53
-53
-54
-54
-54
-53
-52
-52
-53
-53
-54
-53
-52
-51
-51
-51
-52
-52
-51
-50
-49
-49
-50
-50
-50
-49
-47
-47
-48
-49
-49
-49
-48
-47
-47
-48
-49
-50
-49
-48
-48
-48
-49
-50
-49
-48
-48
-48
-48
-49
-50
-49
-48
-48
-48
-48
-49
-49
-49
-48
-47
-47
-48
-48
-48
-47
-46
-45
-46
-47
-47
-47
-46
-45
-45
-45
-46
-46
-45
-44
-43
-42
-43
-43
-42
-40
-39
-38
-39
-39
-40
-39
-38
-36
-36
-37
-37
-38
-37
-36
-35
-35
-36
-37
-36
-35
-35
-34
-35
-36
-37
-36
-35
-35
-35
-36
-37
-37
-37
-36
-35
-35
-36
-36
-36
-35
-34
-34
-34
-35
-35
-35
-33
-32
-32
-33
-34
-34
-33
-32
-32
-32
-33
-34
-34
-34
-33
-34
-35
-37
-38
-39
-39
-39
-40
-41
-43
-44
-44
-43
-43
-44
-45
-46
-46
-45
-44
-44
-45
-46
-46
-46
-44
-43
-43
-43
-44
-43
-42
-41
-40
-40
-41
-42
-41
-40
-39
-40
-41
-42
-43
-44
-44
-44
-44
-46
-48
-49
-50
-50
-51
-52
-53
-55
-56
-56
-55
-56
-57
-59
-60
-60
-59
-58
-58
-59
-60
-61
-60
-60
-59
-59
-60
-61
-61
-60
-59
-59
-60
-61
-62
-62
-61
-60
-61
-62
-63
-63
-63
-62
-62
-62
-63
-64
-64
-63
-63
-63
-63
-65
-65
-65
-64
-63
-63
-64
-65
-65
-64
-63
-62
-62
-62
-62
-62
-60
-59
-59
-59
-60
-61
-61
-60
-59
-59
-60
-61
-62
-62
-61
-61
-61
-62
-64
-64
-63
-62
-63
-63
-65
-65
-65
-64
-63
-64
-64
-65
-65
-64
-63
-62
-61
-61
-61
-59
-57
-54
-53
-52
-51
-50
-48
-46
-43
-41
-40
-39
-38
-36
-34
-32
-31
-32
-32
-32
-31
-31
-31
-33
-36
-39
-41
-43
-45
-48
-53
-58
-63
-67
-72
-78
-85
-94
-103
-113
-121
-131
-141
-153
-165
-178
-189
-200
-211
-223
-236
-249
-261
-272
-281
-290
-299
-307
-315
-320
-323
-325
-327
-329
-330
-329
-327
-322
-317
-311
-305
-299
-291
-282
-272
-262
-252
-242
-233
-222
-211
-199
-189
-180
-171
-163
-154
-145
-137
-130
-124
-119
-114
-109
-104
-100
-96
-94
-92
-90
-87
-84
-82
-81
-81
-81
-79
-77
-75
-74
-74
-74
-73
-72
-70
-69
-68
-68
-67
-66
-64
-63
-62
-62
-62
-62
-62
-60
-59
-59
-59
-60
-60
-59
-58
-57
-57
-57
-58
-57
-56
-55
-55
-55
-56
-57
-56
-55
-54
-54
-55
-56
-57
-56
-55
-55
-55
-56
-57
-57
-56
-55
-55
-56
-57
-58
-58
-57
-56
-56
-56
-57
-57
-57
-56
-55
-55
-56
-56
-56
-55
-54
-54
-54
-55
-56
-56
-55
-54
-54
-55
-56
-57
-56
-56
-55
-56
-57
-58
-57
-56
-55
-55
-56
-57
-57
-57
-56
-55
-54
-55
-56
-56
-55
-54
-53
-53
-54
-54
-54
-53
-52
-52
-53
-54
-54
-54
-53
-52
-53
-53
-55
-55
-55
-54
-53
-53
-54
-55
-55
-54
-53
-53
-54
-55
-55
-55
-54
-53
-53
-54
-54
-54
-54
-53
-52
-52
-53
-53
-53
-52
-51
-51
-51
-52
-53
-53
-52
-51
-50
-51
-52
-53
-52
-51
-51
-51
-52
-53
-53
-52
-52
-52
-53
-54
-54
-54
-53
-53
-53
-54
-55
-56
-56
-55
-55
-55
-56
-57
-57
-56
-55
-55
-56
-57
-58
-58
-57
-57
-57
-58
-59
-59
-59
-58
-58
-58
-59
-60
-60
-59
-58
-58
-59
-60
-61
-61
-60
-60
-60
-61
-62
-63
-63
-62
-62
-62
-63
-64
-64
-64
-63
-63
-64
-66
-66
-67
-66
-65
-66
-67
-68
-68
-68
-67
-67
-67
-68
-69
-69
-68
-67
-67
-68
-69
-69
-69
-68
-67
-67
-68
-68
-69
-68
-67
-67
-67
-68
-68
-68
-67
-67
-66
-67
-68
-69
-69
-68
-67
-67
-68
-69
-69
-69
-68
-67
-67
-68
-68
-68
-67
-66
-66
-66
-67
-68
-68
-67
-66
-67
-67
-68
-69
-69
-68
-68
-68
-69
-70
-70
-69
-68
-68
-69
-70
-70
-70
-69
-68
-68
-69
-69
-70
-69
-68
-67
-67
-68
-68
-68
-67
-66
-65
-66
-67
-67
-66
-65
-64
-64
-65
-66
-66
-65
-64
-64
-64
-64
-65
-65
-64
-63
-63
-64
-65
-66
-65
-65
-64
-64
-64
-65
-65
-65
-64
-64
-64
-64
-65
-64
-63
-62
-61
-62
-62
-63
-62
-61
-60
-59
-60
-60
-60
-59
-58
-57
-57
-58
-58
-58
-56
-55
-55
-55
-56
-56
-56
-55
-54
-54
-55
-55
-56
-55
-54
-53
-53
-54
-55
-55
-54
-53
-52
-53
-54
-54
-54
-53
-52
-52
-53
-53
-54
-53
-52
-52
-52
-53
-53
-53
-53
-52
-52
-53
-54
-55
-55
-54
-53
-54
-55
-57
-58
-58
-58
-58
-59
-60
-62
-62
-62
-62
-62
-64
-65
-67
-67
-66
-65
-65
-66
-67
-67
-66
-65
-64
-63
-63
-64
-63
-62
-60
-60
-60
-61
-62
-62
-62
-61
-62
-63
-65
-66
-66
-66
-67
-68
-70
-71
-72
-72
-72
-73
-74
-76
-77
-78
-77
-77
-77
-79
-80
-80
-80
-80
-79
-79
-80
-81
-81
-80
-79
-78
-79
-80
-81
-81
-80
-79
-79
-79
-80
-81
-80
-79
-79
-79
-80
-81
-80
-79
-78
-78
-79
-80
-81
-81
-80
-79
-79
-80
-81
-81
-80
-80
-79
-79
-80
-81
-81
-80
-79
-79
-80
-81
-81
-81
-81
-80
-80
-81
-82
-83
-82
-81
-81
-81
-82
-83
-83
-82
-81
-81
-82
-83
-83
-83
-82
-81
-81
-81
-82
-82
-82
-81
-80
-80
-80
-80
-80
-79
-77
-76
-76
-76
-76
-74
-72
-70
-68
-67
-67
-65
-63
-61
-58
-56
-55
-54
-52
-50
-47
-46
-46
-46
-47
-47
-46
-46
-48
-50
-53
-56
-59
-62
-65
-69
-75
-81
-86
-91
-97
-104
-113
-124
-134
-144
-154
-164
-175
-188
-200
-213
-224
-236
-247
-260
-273
-285
-296
-306
-315
-324
-333
-341
-347
-351
-354
-355
-355
-356
-356
-354
-350
-344
-338
-331
-324
-316
-307
-296
-285
-274
-264
-254
-244
-233
-221
-210
-200
-191
-182
-173
-164
-155
-147
-140
-135
-130
-125
-119
-114
-110
-108
-106
-104
-102
-99
-96
-95
-94
-94
-93
-92
-91
-89
-88
-88
-88
-87
-85
-83
-82
-82
-82
-82
-81
-79
-77
-76
-77
-77
-77
-76
-75
-73
-73
-74
-74
-74
-73
-72
-72
-72
-73
-74
-73
-72
-71
-71
-72
-73
-73
-72
-71
-70
-70
-71
-72
-71
-70
-69
-69
-69
-70
-71
-71
-70
-69
-69
-70
-71
-72
-72
-71
-71
-71
-72
-73
-72
-72
-71
-70
-71
-72
-73
-73
-72
-71
-70
-71
-72
-72
-72
-71
-70
-70
-70
-71
-70
-69
-68
-68
-69
-70
-70
-70
-69
-68
-68
-69
-70
-70
-69
-69
-68
-68
-69
-70
-70
-69
-68
-68
-69
-70
-71
-71
-70
-69
-68
-69
-70
-70
-70
-69
-68
-68
-69
-70
-70
-68
-67
-67
-67
-68
-69
-69
-68
-67
-67
-68
-69
-69
-69
-68
-68
-68
-68
-69
-69
-68
-67
-67
-67
-68
-69
-68
-67
-66
-66
-67
-67
-68
-67
-66
-66
-66
-66
-67
-67
-66
-65
-65
-66
-67
-68
-68
-67
-66
-66
-67
-68
-69
-68
-68
-67
-67
-68
-69
-69
-68
-67
-67
-68
-69
-69
-69
-69
-68
-68
-69
-70
-71
-70
-70
-69
-69
-70
-71
-71
-70
-70
-70
-71
-72
-73
-73
-73
-72
-72
-73
-75
-75
-75
-75
-75
-75
-76
-78
-78
-78
-77
-77
-78
-80
-81
-82
-81
-81
-81
-82
-84
-84
-84
-84
-84
-84
-85
-85
-85
-84
-83
-83
-83
-84
-85
-84
-83
-82
-82
-82
-83
-83
-82
-81
-81
-80
-81
-82
-82
-81
-80
-80
-80
-82
-82
-82
-81
-81
-80
-81
-82
-83
-82
-82
-81
-81
-82
-83
-83
-82
-81
-80
-81
-82
-83
-83
-82
-81
-81
-82
-83
-83
-83
-82
-82
-82
-82
-83
-83
-82
-81
-80
-81
-82
-82
-82
-81
-80
-80
-81
-81
-82
-81
-80
-79
-79
-80
-81
-80
-79
-78
-78
-79
-79
-80
-80
-78
-77
-77
-77
-78
-78
-78
-77
-76
-76
-76
-77
-77
-76
-74
-74
-75
-76
-77
-77
-76
-75
-75
-76
-77
-77
-77
-76
-75
-75
-76
-77
-77
-76
-75
-75
-75
-76
-77
-76
-75
-74
-74
-75
-76
-76
-76
-75
-74
-73
-74
-74
-74
-73
-72
-71
-72
-73
-73
-73
-72
-71
-70
-71
-72
-72
-72
-71
-70
-70
-70
-71
-70
-69
-68
-67
-68
-68
-69
-68
-67
-66
-66
-66
-67
-67
-67
-66
-65
-65
-66
-66
-66
-66
-65
-64
-65
-66
-67
-67
-66
-65
-65
-66
-67
-67
-67
-67
-66
-66
-67
-68
-69
-68
-68
-68
-69
-71
-72
-72
-72
-72
-72
-73
-75
-75
-75
-75
-75
-75
-76
-76
-76
-75
-74
-74
-74
-75
-75
-75
-74
-72
-72
-72
-72
-72
-72
-71
-70
-70
-71
-72
-72
-71
-71
-71
-72
-74
-75
-76
-76
-75
-76
-78
-79
-80
-81
-81
-81
-82
-83
-84
-85
-84
-84
-84
-85
-86
-86
-87
-86
-85
-85
-86
-87
-87
-87
-86
-85
-85
-86
-87
-87
-86
-85
-85
-86
-87
-88
-88
-87
-86
-86
-87
-88
-88
-88
-87
-87
-87
-88
-89
-89
-88
-88
-87
-88
-90
-91
-91
-90
-89
-90
-91
-92
-92
-92
-91
-90
-90
-91
-91
-91
-90
-89
-88
-89
-90
-90
-90
-89
-88
-88
-89
-90
-90
-90
-89
-88
-88
-89
-90
-90
-89
-88
-88
-88
-89
-90
-90
-89
-88
-87
-88
-88
-88
-87
-86
-85
-84
-83
-83
-81
-79
-77
-75
-74
-73
-72
-71
-68
-65
-63
-62
-62
-61
-59
-57
-55
-55
-55
-56
-56
-56
-56
-58
-60
-63
-67
-70
-73
-75
-80
-85
-92
-98
-104
-110
-118
-127
-137
-148
-159
-169
-180
-192
-204
-218
-231
-244
-256
-268
-280
-294
-307
-319
-329
-338
-346
-353
-360
-366
-370
-372
-372
-372
-371
-369
-366
-361
-354
-346
-338
-330
-321
-311
-300
-289
-276
-265
-254
-243
-231
-219
-207
-196
-186
-178
-169
-160
-151
-143
-136
-131
-126
-122
-117
-113
-109
-106
-104
-102
-100
-97
-95
-93
-93
-93
-93
-92
-91
-89
-88
-88
-89
-88
-87
-86
-84
-83
-83
-83
-83
-81
-79
-78
-78
-78
-78
-78
-76
-75
-74
-74
-75
-75
-74
-73
-72
-71
-71
-72
-72
-71
-69
-69
-69
-70
-71
-71
-70
-69
-69
-70
-71
-72
-72
-71
-70
-70
-71
-72
-72
-71
-70
-70
-71
-72
-73
-72
-72
-71
-70
-71
-72
-72
-72
-71
-70
-70
-70
-71
-71
-70
-69
-68
-69
-70
-70
-70
-69
-68
-68
-69
-69
-70
-69
-68
-68
-68
-68
-69
-69
-68
-67
-66
-67
-67
-68
-68
-67
-66
-66
-66
-67
-67
-67
-66
-65
-65
-66
-67
-66
-65
-64
-64
-64
-65
-66
-66
-65
-64
-64
-65
-66
-66
-66
-65
-65
-65
-66
-67
-67
-67
-66
-66
-67
-68
-69
-69
-68
-67
-67
-67
-68
-68
-67
-66
-65
-65
-65
-65
-65
-64
-62
-61
-62
-62
-63
-63
-62
-60
-60
-61
-62
-62
-62
-61
-61
-61
-61
-62
-63
-62
-61
-61
-61
-63
-64
-64
-63
-62
-62
-63
-64
-64
-64
-63
-62
-62
-63
-63
-63
-62
-61
-61
-62
-63
-64
-64
-64
-63
-63
-64
-65
-66
-66
-65
-65
-65
-66
-68
-68
-67
-67
-67
-67
-69
-70
-70
-70
-69
-69
-70
-72
-72
-73
-72
-72
-72
-73
-75
-75
-75
-74
-74
-75
-76
-77
-77
-77
-76
-76
-77
-78
-78
-78
-77
-77
-77
-77
-78
-78
-77
-76
-76
-77
-78
-79
-79
-78
-77
-77
-78
-79
-80
-79
-79
-78
-78
-78
-79
-79
-78
-77
-77
-77
-78
-79
-78
-77
-76
-76
-76
-77
-77
-77
-76
-75
-75
-75
-76
-76
-75
-74
-73
-74
-74
-75
-75
-74
-72
-72
-72
-73
-73
-73
-72
-71
-71
-71
-72
-72
-71
-70
-69
-70
-71
-72
-72
-71
-70
-70
-71
-72
-72
-72
-71
-70
-70
-70
-71
-71
-70
-69
-68
-69
-70
-70
-70
-69
-68
-68
-68
-69
-69
-69
-68
-67
-67
-68
-69
-69
-68
-66
-66
-66
-67
-68
-67
-66
-65
-65
-65
-66
-66
-66
-65
-64
-64
-64
-65
-65
-64
-63
-63
-63
-64
-65
-65
-65
-64
-64
-65
-66
-66
-66
-66
-65
-65
-66
-67
-67
-66
-65
-65
-66
-67
-67
-67
-67
-66
-65
-66
-67
-68
-67
-67
-66
-66
-67
-67
-68
-67
-66
-65
-66
-67
-68
-68
-67
-66
-65
-66
-67
-67
-66
-65
-64
-64
-64
-64
-64
-62
-61
-60
-60
-61
-61
-61
-59
-58
-57
-58
-59
-59
-59
-58
-58
-57
-58
-59
-60
-59
-58
-58
-59
-61
-62
-63
-63
-62
-62
-64
-65
-66
-66
-65
-65
-65
-66
-67
-67
-67
-66
-65
-66
-66
-67
-66
-65
-64
-63
-64
-64
-64
-64
-63
-62
-61
-62
-62
-62
-62
-61
-61
-62
-63
-64
-65
-65
-64
-64
-66
-68
-69
-70
-70
-70
-71
-72
-74
-75
-74
-74
-74
-75
-77
-78
-79
-78
-78
-78
-79
-80
-80
-80
-79
-79
-79
-79
-80
-80
-80
-79
-78
-79
-80
-81
-81
-80
-79
-78
-79
-80
-81
-81
-80
-79
-79
-80
-81
-81
-80
-79
-79
-79
-80
-81
-81
-80
-79
-79
-79
-80
-81
-80
-80
-79
-79
-80
-81
-81
-80
-79
-79
-79
-80
-81
-81
-81
-80
-79
-80
-81
-82
-81
-80
-80
-79
-80
-81
-81
-80
-79
-78
-78
-79
-80
-80
-79
-78
-77
-78
-79
-79
-79
-78
-76
-76
-76
-76
-75
-73
-71
-69
-68
-67
-66
-64
-62
-59
-57
-55
-54
-53
-51
-49
-47
-45
-45
-45
-45
-45
-44
-44
-46
-49
-52
-54
-57
-59
-62
-67
-73
-78
-83
-89
-95
-102
-110
-120
-130
-139
-149
-160
-172
-185
-198
-211
-222
-234
-247
-260
-274
-287
-299
-310
-320
-330
-340
-348
-355
-360
-362
-365
-367
-368
-368
-366
-362
-356
-350
-343
-336
-328
-318
-307
-296
-284
-274
-263
-251
-239
-226
-214
-203
-193
-184
-174
-164
-154
-146
-139
-133
-127
-121
-115
-110
-106
-103
-100
-98
-95
-92
-90
-89
-88
-88
-87
-86
-84
-83
-83
-83
-83
-83
-81
-80
-79
-80
-80
-80
-78
-77
-75
-75
-76
-76
-76
-74
-73
-72
-73
-73
-73
-73
-72
-70
-70
-70
-71
-70
-69
-68
-67
-67
-67
-68
-67
-66
-65
-65
-65
-66
-66
-66
-65
-64
-64
-65
-65
-66
-65
-64
-64
-64
-65
-66
-67
-66
-65
-65
-65
-66
-67
-67
-66
-65
-65
-66
-66
-66
-65
-64
-63
-63
-64
-65
-65
-64
-63
-62
-63
-64
-64
-64
-63
-63
-63
-63
-65
-65
-65
-64
-64
-64
-66
-67
-67
-67
-66
-66
-67
-68
-68
-68
-68
-67
-67
-67
-68
-68
-67
-65
-64
-65
-65
-66
-66
-64
-63
-62
-63
-64
-64
-64
-63
-62
-62
-62
-63
-63
-63
-62
-61
-62
-63
-63
-64
-63
-62
-61
-62
-63
-64
-63
-63
-62
-61
-62
-63
-62
-62
-60
-60
-60
-61
-61
-61
-60
-59
-58
-59
-60
-60
-60
-59
-58
-58
-59
-60
-60
-59
-58
-58
-58
-59
-60
-61
-60
-59
-59
-60
-61
-62
-62
-61
-60
-60
-61
-62
-62
-61
-60
-60
-60
-62
-63
-63
-63
-62
-61
-62
-63
-64
-64
-63
-62
-62
-63
-64
-64
-64
-63
-62
-63
-64
-66
-66
-66
-65
-66
-67
-68
-69
-69
-69
-68
-69
-70
-71
-72
-72
-71
-71
-72
-73
-75
-75
-75
-74
-74
-75
-77
-77
-78
-77
-77
-77
-78
-79
-79
-78
-77
-77
-77
-78
-79
-79
-78
-77
-76
-77
-77
-78
-78
-77
-76
-75
-76
-76
-76
-75
-74
-73
-73
-73
-74
-74
-73
-72
-71
-71
-72
-73
-72
-71
-70
-70
-70
-71
-71
-70
-69
-69
-69
-70
-71
-71
-70
-69
-69
-69
-70
-71
-71
-70
-69
-69
-69
-70
-70
-69
-68
-67
-67
-68
-69
-69
-68
-67
-66
-67
-68
-68
-68
-67
-66
-65
-66
-67
-67
-67
-66
-65
-65
-66
-67
-67
-67
-66
-65
-66
-67
-68
-67
-67
-66
-65
-66
-67
-67
-66
-65
-64
-65
-66
-66
-67
-66
-65
-64
-65
-66
-67
-67
-66
-65
-65
-66
-67
-67
-66
-65
-64
-64
-65
-66
-66
-65
-64
-63
-64
-65
-65
-65
-64
-63
-63
-63
-64
-64
-63
-62
-61
-61
-62
-62
-62
-61
-60
-59
-59
-60
-60
-60
-59
-58
-58
-58
-59
-59
-59
-58
-58
-58
-59
-61
-61
-61
-60
-60
-61
-62
-63
-63
-62
-62
-61
-62
-63
-63
-61
-60
-59
-59
-60
-60
-60
-58
-57
-56
-56
-56
-56
-55
-54
-53
-53
-53
-54
-54
-54
-53
-52
-53
-54
-55
-56
-56
-56
-56
-57
-58
-60
-60
-60
-60
-60
-61
-63
-63
-63
-62
-61
-62
-63
-64
-64
-63
-62
-61
-61
-62
-62
-62
-61
-60
-60
-60
-61
-61
-60
-59
-59
-60
-61
-62
-63
-63
-62
-63
-64
-66
-67
-68
-68
-68
-68
-69
-71
-72
-72
-72
-72
-72
-74
-75
-76
-76
-75
-75
-75
-77
-77
-78
-77
-76
-76
-77
-78
-78
-78
-77
-76
-77
-78
-78
-79
-78
-77
-77
-77
-78
-79
-78
-78
-77
-76
-77
-78
-78
-77
-76
-76
-76
-77
-78
-78
-78
-77
-77
-77
-78
-79
-79
-78
-77
-77
-78
-79
-79
-78
-77
-76
-76
-77
-78
-78
-77
-76
-75
-76
-76
-77
-77
-76
-76
-75
-76
-77
-77
-77
-76
-75
-76
-77
-78
-78
-78
-77
-76
-77
-78
-78
-78
-77
-76
-76
-76
-76
-76
-74
-72
-70
-69
-69
-68
-67
-65
-62
-59
-58
-57
-55
-53
-51
-48
-46
-45
-44
-44
-42
-41
-41
-41
-43
-45
-47
-49
-50
-52
-56
-61
-66
-70
-75
-79
-85
-92
-100
-108
-116
-124
-133
-143
-155
-167
-178
-189
-199
-210
-222
-235
-247
-259
-270
-280
-290
-301
-311
-319
-326
-331
-335
-339
-343
-345
-346
-344
-342
-338
-335
-330
-325
-317
-309
-299
-289
-279
-269
-259
-247
-235
-223
-212
-202
-192
-181
-171
-160
-151
-143
-136
-130
-123
-117
-111
-106
-103
-100
-97
-94
-90
-88
-87
-86
-86
-85
-84
-82
-81
-81
-81
-81
-81
-79
-78
-77
-77
-77
-77
-75
-74
-72
-72
-72
-72
-72
-70
-69
-68
-68
-68
-68
-68
-67
-66
-65
-65
-66
-66
-65
-64
-63
-63
-63
-64
-64
-63
-62
-61
-61
-62
-62
-62
-61
-60
-60
-61
-61
-62
-61
-60
-60
-60
-61
-62
-63
-62
-61
-61
-61
-62
-63
-63
-62
-61
-61
-61
-62
-62
-62
-61
-60
-60
-61
-62
-62
-61
-60
-60
-60
-61
-62
-61
-61
-60
-59
-60
-61
-61
-60
-59
-58
-58
-59
-59
-59
-59
-58
-57
-58
-58
-59
-59
-58
-57
-57
-58
-59
-59
-59
-58
-57
-58
-59
-60
-61
-60
-59
-59
-59
-60
-61
-61
-60
-59
-59
-59
-60
-60
-60
-58
-57
-57
-58
-59
-59
-58
-57
-56
-56
-57
-57
-57
-56
-55
-55
-55
-56
-56
-55
-54
-54
-54
-55
-56
-56
-55
-54
-54
-54
-55
-55
-55
-55
-54
-54
-54
-55
-55
-55
-54
-53
-54
-55
-56
-56
-56
-55
-55
-56
-57
-58
-59
-59
-58
-58
-59
-60
-61
-61
-60
-60
-60
-61
-62
-63
-62
-61
-61
-61
-62
-63
-62
-62
-61
-60
-61
-62
-62
-61
-61
-60
-60
-62
-63
-63
-63
-62
-62
-63
-65
-66
-66
-66
-66
-66
-67
-68
-69
-69
-68
-68
-69
-70
-72
-73
-72
-72
-72
-72
-74
-75
-75
-74
-74
-74
-74
-75
-76
-75
-74
-73
-74
-75
-75
-76
-75
-74
-73
-74
-75
-75
-75
-74
-73
-72
-72
-73
-73
-72
-71
-69
-69
-70
-70
-70
-69
-67
-67
-67
-67
-68
-67
-67
-66
-65
-66
-67
-67
-67
-66
-65
-66
-67
-68
-68
-67
-66
-66
-66
-67
-67
-67
-66
-65
-65
-65
-65
-66
-65
-63
-62
-62
-63
-64
-64
-63
-62
-61
-62
-63
-63
-63
-62
-62
-61
-61
-62
-62
-62
-61
-60
-60
-61
-61
-62
-61
-60
-59
-59
-60
-60
-60
-60
-59
-58
-59
-59
-60
-59
-58
-57
-57
-58
-59
-59
-59
-57
-57
-57
-58
-59
-59
-58
-58
-57
-58
-59
-59
-59
-58
-57
-57
-58
-59
-59
-59
-58
-57
-58
-59
-59
-59
-59
-58
-57
-58
-58
-58
-58
-56
-55
-55
-56
-57
-57
-56
-54
-54
-54
-54
-55
-55
-54
-53
-53
-53
-54
-54
-54
-53
-52
-52
-53
-54
-55
-54
-53
-53
-53
-54
-54
-54
-53
-52
-52
-52
-52
-52
-51
-50
-49
-49
-49
-50
-49
-48
-46
-45
-45
-45
-46
-45
-45
-44
-43
-44
-45
-45
-45
-44
-43
-44
-45
-47
-48
-48
-48
-48
-49
-51
-52
-53
-53
-53
-53
-54
-55
-56
-56
-55
-54
-55
-55
-56
-56
-55
-54
-53
-53
-54
-54
-54
-53
-51
-51
-51
-52
-52
-51
-51
-50
-51
-52
-54
-55
-55
-55
-55
-56
-58
-60
-60
-60
-60
-61
-62
-63
-64
-64
-64
-63
-64
-65
-66
-67
-66
-65
-65
-65
-66
-67
-67
-66
-66
-65
-66
-67
-68
-68
-67
-67
-67
-68
-70
-70
-70
-69
-69
-69
-70
-71
-71
-71
-70
-69
-70
-70
-71
-70
-69
-68
-68
-68
-69
-69
-69
-68
-67
-67
-68
-69
-69
-68
-67
-67
-67
-68
-69
-68
-67
-66
-66
-67
-68
-68
-68
-67
-66
-67
-68
-68
-68
-68
-67
-67
-67
-68
-69
-68
-67
-66
-66
-67
-68
-69
-68
-67
-66
-66
-67
-68
-68
-67
-66
-65
-65
-65
-65
-63
-61
-59
-58
-57
-57
-56
-53
-51
-48
-46
-45
-44
-42
-40
-37
-35
-34
-34
-34
-33
-32
-31
-32
-34
-37
-39
-41
-43
-45
-49
-54
-59
-64
-69
-74
-81
-88
-97
-106
-116
-125
-135
-146
-159
-171
-184
-196
-207
-219
-232
-246
-259
-272
-283
-294
-304
-314
-323
-331
-337
-341
-344
-346
-348
-349
-349
-346
-341
-336
-330
-324
-317
-308
-298
-288
-277
-266
-256
-245
-233
-221
-209
-198
-188
-178
-168
-158
-148
-139
-132
-125
-119
-113
-107
-101
-97
-93
-91
-88
-85
-82
-79
-78
-77
-77
-76
-75
-73
-72
-72
-72
-72
-72
-71
-69
-68
-67
-67
-67
-66
-64
-62
-61
-61
-61
-61
-60
-58
-57
-57
-57
-57
-57
-56
-55
-55
-55
-56
-56
-56
-55
-54
-54
-55
-56
-56
-55
-54
-53
-54
-54
-55
-55
-54
-53
-52
-52
-53
-53
-53
-52
-51
-51
-52
-53
-53
-53
-52
-51
-52
-53
-53
-53
-53
-52
-51
-52
-52
-53
-52
-51
-50
-50
-50
-51
