# Simple Text Format
# Sampling Rate (Hz):= 1200.00
# Resolution:= 12
# Labels:= ECG	 I 
# Age:=	17
# Gender:=	Masculino
-74
-68
-62
-56
-51
-45
-39
-33
-27
-22
-16
-11
-7
-2
1
5
7
8
8
8
7
5
3
-2
-6
-11
-18
-24
-31
-39
-46
-55
-62
-69
-77
-84
-92
-98
-105
-111
-116
-121
-124
-127
-130
-132
-134
-134
-135
-135
-134
-133
-132
-132
-130
-129
-127
-126
-124
-122
-120
-118
-117
-116
-115
-114
-114
-114
-113
-113
-112
-112
-112
-111
-112
-112
-112
-112
-112
-113
-113
-113
-113
-113
-113
-113
-112
-112
-112
-111
-111
-111
-111
-111
-110
-110
-110
-108
-108
-108
-108
-108
-108
-108
-108
-107
-107
-107
-107
-107
-107
-107
-107
-107
-107
-107
-106
-107
-107
-106
-106
-105
-105
-104
-103
-103
-102
-102
-101
-100
-99
-99
-98
-98
-98
-97
-98
-98
-97
-97
-97
-97
-97
-96
-96
-96
-96
-96
-96
-95
-95
-95
-94
-94
-94
-93
-92
-92
-91
-91
-90
-89
-89
-89
-88
-88
-87
-86
-86
-85
-85
-85
-85
-84
-84
-84
-84
-84
-83
-83
-83
-83
-83
-83
-83
-83
-83
-82
-82
-82
-82
-81
-81
-81
-80
-80
-79
-79
-78
-77
-77
-76
-76
-75
-75
-74
-73
-73
-72
-71
-70
-70
-69
-69
-68
-68
-67
-66
-66
-65
-64
-63
-62
-61
-60
-60
-59
-57
-57
-56
-55
-53
-52
-52
-51
-49
-48
-48
-46
-45
-43
-42
-41
-40
-38
-38
-37
-35
-34
-33
-32
-30
-29
-28
-27
-26
-25
-24
-23
-22
-21
-21
-20
-20
-19
-18
-18
-17
-16
-16
-15
-14
-14
-13
-13
-12
-11
-10
-9
-9
-8
-8
-8
-7
-7
-7
-6
-6
-6
-6
-6
-6
-6
-6
-7
-7
-8
-9
-9
-9
-9
-10
-10
-11
-11
-12
-13
-13
-13
-15
-16
-17
-17
-19
-20
-20
-22
-24
-25
-26
-28
-29
-30
-32
-34
-35
-36
-38
-39
-40
-42
-43
-44
-44
-45
-46
-48
-49
-50
-50
-51
-52
-53
-53
-55
-55
-56
-57
-57
-58
-59
-61
-62
-62
-64
-65
-66
-67
-68
-69
-70
-70
-72
-72
-72
-73
-74
-74
-76
-76
-76
-76
-76
-76
-76
-75
-76
-76
-76
-76
-76
-76
-76
-75
-75
-75
-75
-74
-75
-74
-74
-74
-75
-74
-75
-74
-75
-75
-75
-75
-75
-76
-76
-76
-76
-77
-76
-76
-76
-76
-76
-76
-76
-75
-75
-74
-74
-73
-74
-73
-73
-73
-73
-73
-73
-73
-73
-73
-73
-73
-74
-74
-74
-75
-75
-75
-75
-74
-74
-74
-74
-74
-73
-73
-73
-73
-73
-72
-73
-73
-72
-72
-72
-72
-72
-71
-71
-71
-70
-70
-70
-70
-71
-71
-71
-71
-71
-71
-70
-70
-70
-70
-70
-69
-69
-69
-69
-68
-68
-68
-68
-68
-68
-68
-69
-69
-69
-68
-68
-68
-68
-68
-69
-69
-67
-67
-67
-67
-67
-66
-66
-67
-66
-66
-66
-66
-65
-64
-64
-63
-64
-64
-63
-63
-64
-63
-63
-64
-64
-64
-64
-64
-64
-64
-64
-64
-64
-64
-63
-63
-63
-63
-63
-62
-62
-62
-61
-61
-60
-60
-59
-58
-57
-57
-56
-56
-55
-55
-54
-54
-54
-54
-52
-52
-52
-52
-53
-52
-52
-52
-52
-51
-51
-51
-51
-51
-51
-51
-51
-51
-50
-50
-50
-49
-50
-50
-50
-51
-50
-50
-51
-51
-51
-52
-52
-52
-53
-53
-53
-53
-53
-53
-53
-53
-52
-52
-52
-52
-52
-52
-51
-51
-51
-51
-51
-50
-49
-49
-49
-49
-49
-49
-49
-50
-50
-50
-50
-50
-50
-50
-50
-50
-50
-50
-50
-50
-49
-50
-50
-50
-50
-50
-51
-51
-51
-51
-50
-50
-50
-50
-50
-50
-49
-49
-49
-49
-48
-48
-48
-48
-47
-47
-46
-47
-46
-46
-46
-45
-45
-45
-45
-44
-44
-44
-44
-44
-44
-44
-43
-43
-42
-42
-42
-42
-41
-41
-41
-41
-42
-41
-41
-41
-41
-41
-41
-41
-41
-41
-41
-41
-41
-41
-41
-41
-41
-41
-41
-42
-42
-42
-42
-42
-42
-42
-42
-42
-41
-41
-41
-41
-41
-41
-42
-42
-41
-41
-42
-41
-41
-40
-39
-40
-39
-38
-38
-37
-37
-36
-36
-35
-36
-34
-34
-33
-33
-33
-33
-32
-31
-31
-31
-31
-30
-30
-30
-30
-30
-30
-30
-30
-30
-30
-30
-30
-30
-30
-28
-28
-28
-28
-27
-27
-27
-27
-27
-26
-26
-26
-25
-25
-24
-23
-23
-23
-23
-22
-23
-22
-22
-22
-22
-21
-21
-21
-21
-21
-22
-22
-22
-22
-23
-24
-23
-24
-24
-25
-25
-25
-27
-27
-27
-29
-29
-29
-30
-30
-31
-32
-32
-32
-34
-34
-35
-35
-36
-36
-37
-36
-36
-36
-36
-37
-37
-36
-36
-36
-35
-35
-35
-34
-34
-34
-34
-34
-33
-33
-32
-31
-31
-31
-30
-30
-30
-29
-29
-29
-28
-28
-28
-28
-27
-27
-27
-27
-27
-27
-26
-26
-26
-26
-26
-26
-26
-26
-26
-26
-26
-25
-26
-27
-26
-26
-26
-26
-27
-27
-25
-26
-26
-25
-24
-23
-23
-21
-21
-20
-19
-18
-16
-14
-12
-10
-7
-4
-1
3
6
9
14
18
23
28
34
39
45
52
58
64
70
76
82
88
94
98
103
106
110
112
114
115
115
114
112
110
107
102
97
91
84
77
69
61
53
46
38
30
22
14
7
0
-6
-13
-17
-21
-26
-29
-31
-33
-34
-35
-35
-34
-34
-32
-31
-30
-28
-26
-24
-23
-20
-19
-17
-16
-14
-13
-12
-12
-10
-10
-9
-8
-8
-8
-8
-8
-8
-8
-8
-8
-8
-8
-8
-9
-9
-9
-10
-9
-9
-10
-9
-9
-9
-8
-8
-8
-8
-8
-8
-7
-7
-7
-6
-6
-6
-6
-5
-6
-5
-5
-6
-6
-6
-6
-5
-5
-5
-5
-5
-5
-6
-5
-5
-5
-5
-4
-4
-4
-3
-3
-2
-2
-1
-1
-1
-1
1
1
1
2
3
3
4
4
4
6
6
6
6
6
6
6
7
7
7
8
8
7
8
8
8
8
8
8
8
9
9
9
11
11
11
12
13
13
14
15
15
16
17
18
19
20
21
21
23
23
24
23
24
24
25
25
25
25
26
26
27
26
27
28
27
28
28
29
28
29
29
30
30
31
32
32
32
33
33
34
34
35
36
36
37
38
39
40
40
41
42
44
45
46
48
49
49
50
52
53
54
55
56
58
59
60
61
62
63
64
65
66
67
68
69
70
70
71
72
72
73
74
75
76
77
77
79
79
80
80
82
82
82
83
83
84
85
86
87
87
88
89
89
89
90
90
91
91
92
93
94
94
94
95
94
94
95
95
96
95
95
95
94
94
93
93
92
91
90
90
88
87
85
85
84
82
81
80
78
78
77
75
75
74
73
73
72
71
69
69
68
67
66
66
64
63
62
61
59
58
57
55
54
52
51
50
49
48
46
45
44
43
42
41
41
39
38
38
37
36
35
35
34
34
33
32
32
31
31
30
29
28
28
27
27
27
26
26
26
26
26
25
25
24
25
24
24
24
24
23
23
22
23
22
22
22
22
22
22
22
22
21
22
23
22
23
24
24
25
26
26
27
27
27
27
28
28
29
28
28
28
28
28
28
28
26
26
25
25
25
25
24
23
23
22
23
23
22
23
23
23
23
24
23
24
25
24
25
26
25
26
26
27
28
28
28
28
28
28
29
28
28
29
29
29
29
30
30
31
31
30
30
30
31
30
30
30
30
30
30
30
30
30
30
29
29
29
29
29
29
29
29
30
30
31
31
32
32
33
33
35
35
35
36
37
37
38
39
39
41
41
41
41
41
41
42
42
41
42
42
42
41
41
41
40
40
40
39
39
39
39
39
39
39
39
39
39
38
38
39
39
40
40
40
39
40
40
40
40
41
41
41
42
42
42
42
42
42
42
43
43
43
44
45
45
45
45
46
46
46
46
46
47
47
47
47
47
45
45
45
45
44
44
43
43
43
43
44
43
43
43
43
45
45
45
46
47
47
48
48
49
49
49
49
50
50
50
50
50
49
49
49
49
48
49
49
49
49
48
48
48
48
48
48
48
48
49
49
49
49
49
50
50
49
50
50
49
50
50
49
50
50
51
50
50
50
51
51
51
51
52
52
52
52
52
53
53
53
53
53
54
54
54
54
54
54
54
54
54
54
54
53
53
53
53
53
53
53
52
52
52
52
52
52
52
52
52
52
52
52
52
52
53
53
53
54
54
54
55
55
56
56
57
56
56
57
57
57
57
56
56
56
56
56
55
55
55
54
54
54
54
54
54
53
53
53
53
53
53
53
54
54
55
55
56
55
55
56
56
57
57
57
58
58
59
60
60
60
60
60
60
59
59
59
60
60
60
60
60
60
60
59
60
60
60
60
60
60
60
60
60
60
60
60
60
60
61
61
61
61
61
61
61
61
61
61
61
61
61
61
61
61
61
61
61
61
61
62
63
63
63
63
64
64
64
64
64
65
65
65
65
66
65
65
65
65
66
66
65
65
65
64
64
65
64
64
64
64
64
64
64
64
64
64
64
65
65
64
65
66
66
65
66
67
66
67
67
67
67
67
67
67
67
67
67
67
68
68
68
68
68
68
68
68
68
68
68
68
68
68
67
67
67
67
67
66
66
66
66
66
66
66
66
66
66
66
67
67
67
68
69
69
69
70
70
71
72
72
72
73
72
73
73
74
74
74
73
73
73
73
73
72
72
72
72
72
72
71
71
72
72
72
72
72
72
72
72
72
72
72
73
73
73
73
72
72
71
72
72
72
72
72
72
73
72
72
72
73
73
73
73
74
75
74
75
76
77
78
79
79
79
79
80
80
81
81
81
81
82
81
81
81
81
81
81
81
82
82
82
81
81
81
81
81
82
82
82
82
82
82
82
82
82
82
82
81
82
82
81
81
81
81
80
80
80
80
80
80
79
79
79
80
80
80
81
81
83
83
84
84
85
85
86
86
86
86
86
86
86
86
86
86
86
85
85
85
85
85
85
85
85
85
85
85
85
85
85
85
86
86
85
85
85
85
85
86
86
86
86
86
86
85
85
86
86
86
86
86
86
86
86
86
86
86
86
86
86
86
86
86
86
86
86
86
86
85
85
85
85
86
86
86
86
86
86
87
87
87
88
88
88
88
89
89
89
89
89
89
89
89
90
90
90
90
90
90
91
91
91
91
91
91
92
92
92
93
93
93
93
93
93
93
93
93
93
93
93
93
93
93
94
94
94
94
94
95
94
95
95
95
95
96
95
96
96
96
97
97
96
97
97
97
97
97
97
98
99
99
100
100
100
101
102
102
103
103
103
104
104
105
105
106
106
106
107
106
106
107
107
107
108
107
108
107
108
108
109
108
108
109
109
109
109
109
109
109
109
109
109
109
109
108
108
108
108
108
107
107
106
105
105
104
103
103
102
101
101
101
100
100
99
100
99
100
99
99
99
99
99
100
100
100
101
101
101
101
101
101
101
100
100
100
100
100
100
100
100
99
99
99
99
99
99
99
99
99
99
98
98
98
99
99
98
99
99
99
99
99
99
100
100
100
100
100
100
100
100
99
100
100
100
100
100
100
100
101
102
102
102
104
105
106
107
108
110
112
114
117
120
123
126
130
134
138
143
148
153
158
163
170
176
183
190
197
204
211
217
224
229
235
240
245
249
252
254
255
256
256
254
252
249
244
239
233
226
219
211
203
195
187
179
170
161
154
146
138
130
124
119
114
109
106
103
100
99
97
98
98
98
98
99
101
102
104
105
106
109
110
111
112
113
113
114
115
115
116
116
116
116
115
115
114
113
114
114
114
114
114
114
114
114
114
115
115
115
116
117
117
118
118
119
119
120
120
121
121
122
121
122
121
121
121
121
121
120
120
120
120
120
119
119
119
119
119
119
120
120
121
121
121
122
122
123
124
124
124
125
126
126
126
127
127
127
127
127
127
127
128
128
129
129
128
128
128
129
129
129
129
130
130
130
130
131
131
131
131
131
131
132
132
132
133
132
132
132
132
133
132
133
134
133
134
135
134
134
135
135
134
135
135
136
137
137
137
138
138
138
139
140
140
141
141
142
143
144
145
146
146
147
148
149
150
150
152
152
153
154
154
155
155
156
157
157
157
157
159
159
160
160
161
161
161
161
162
163
163
163
165
165
166
166
167
168
169
170
171
172
173
174
175
175
176
177
179
180
181
183
183
184
186
187
188
189
190
191
192
193
194
195
196
198
198
199
200
200
201
201
203
203
204
205
205
206
206
207
207
207
208
209
209
209
210
210
210
211
211
212
213
213
213
213
213
214
213
213
214
213
214
213
214
213
213
212
211
212
211
210
210
210
209
209
207
207
207
206
204
204
203
203
201
201
199
198
197
195
193
193
191
190
188
187
185
184
183
181
180
179
178
177
175
174
173
172
171
170
169
168
168
166
166
164
164
162
161
160
159
158
156
156
154
154
153
153
152
151
150
149
149
148
148
148
147
146
146
146
144
144
144
143
143
142
141
141
141
141
140
140
140
139
139
139
138
138
138
137
137
137
137
136
136
136
136
135
136
135
135
136
135
136
135
136
136
136
136
137
137
137
138
138
139
139
139
139
140
140
140
140
140
140
140
140
140
140
139
139
138
138
138
137
137
135
135
135
134
134
134
133
133
133
134
134
134
134
134
135
135
136
137
137
137
138
138
139
139
140
139
140
140
140
140
140
140
139
140
140
140
140
140
140
140
139
139
139
140
140
140
140
141
141
142
142
142
142
142
142
143
143
143
143
143
144
144
143
144
144
143
143
144
143
143
143
144
144
144
145
145
145
146
145
145
146
146
146
146
146
146
146
146
146
146
147
147
147
147
146
146
147
146
146
147
147
146
146
146
146
147
147
147
146
147
147
147
147
147
148
148
148
147
148
148
149
149
149
149
149
150
149
149
149
150
150
150
150
150
150
149
149
149
149
150
150
150
150
150
150
150
151
150
151
151
151
151
151
151
151
151
151
152
152
151
150
150
150
149
149
149
149
149
149
149
148
148
148
147
147
147
147
147
147
147
147
147
147
148
148
148
148
148
148
148
148
148
148
147
148
148
148
147
148
147
148
147
147
146
146
146
146
146
146
146
146
146
146
146
145
145
146
146
146
146
146
146
146
147
147
147
147
148
148
147
148
148
148
148
148
148
147
147
146
146
146
146
145
145
144
144
144
143
143
142
142
143
142
142
142
143
143
142
143
143
144
144
145
145
146
146
147
148
148
148
148
150
149
149
149
149
149
149
149
148
148
148
149
149
149
148
147
147
147
147
148
148
147
147
147
147
147
147
147
147
147
147
146
145
145
145
145
145
145
145
146
145
146
146
146
146
146
147
147
148
148
148
149
149
149
149
150
150
149
149
150
150
149
150
149
149
149
149
148
148
147
148
147
147
147
146
146
146
146
146
146
146
146
146
146
146
146
146
146
147
146
146
146
146
146
146
145
145
145
145
145
145
145
145
145
145
145
145
145
146
146
147
147
147
147
148
149
150
150
151
151
152
153
153
154
153
153
154
154
154
154
154
154
154
154
154
155
154
154
154
154
155
154
154
154
155
154
154
154
154
154
154
154
154
154
154
154
154
154
154
154
154
153
154
154
154
154
154
154
154
154
154
155
155
155
155
155
155
155
155
155
155
155
155
155
154
154
154
154
154
154
153
153
152
153
153
153
153
153
153
154
154
154
153
153
154
154
154
152
152
152
152
152
152
152
152
152
152
152
152
152
153
153
153
153
154
155
155
156
156
156
157
157
157
156
157
157
156
157
156
155
156
155
155
154
154
154
154
154
154
155
154
154
155
156
156
156
157
157
158
158
159
160
160
161
161
161
161
161
161
161
162
162
162
162
161
161
162
161
161
161
160
160
159
159
159
159
158
158
158
158
157
157
157
156
157
157
157
157
157
158
158
158
159
159
159
160
160
161
161
162
162
163
163
163
163
163
163
163
163
163
163
162
162
163
162
162
162
162
162
162
161
162
163
162
163
163
164
164
164
165
165
165
166
167
167
168
168
167
168
168
169
169
169
168
169
169
169
169
170
169
170
170
170
171
171
171
171
171
171
171
171
172
173
172
173
173
174
174
174
175
175
176
177
176
177
178
178
179
178
179
178
179
178
179
178
177
177
177
176
175
174
174
172
171
170
170
168
167
166
165
165
165
163
163
162
162
162
162
161
161
162
162
162
162
162
163
163
163
163
163
164
163
163
163
163
163
163
162
162
161
161
161
161
161
161
160
160
160
159
160
160
160
160
161
161
162
162
162
163
164
163
163
163
164
164
164
164
164
164
164
164
164
164
164
164
164
165
165
166
165
165
166
167
167
169
170
170
172
173
175
177
180
182
184
186
190
194
197
201
205
210
215
221
227
233
239
246
252
258
266
272
278
283
287
292
296
299
300
303
303
304
302
301
298
294
291
286
279
273
265
258
251
242
234
226
218
210
204
196
189
183
176
171
166
162
158
155
154
153
151
151
150
150
151
151
153
154
156
157
158
160
162
164
165
166
168
168
169
170
170
171
172
172
172
172
172
172
172
171
171
171
171
171
171
171
170
171
171
171
171
171
170
170
171
171
172
172
173
173
174
174
173
174
174
174
176
176
176
176
177
177
177
177
178
178
178
178
179
178
178
179
178
178
178
178
177
178
178
177
178
177
177
177
176
176
176
177
176
176
176
177
177
178
178
179
179
180
180
181
181
182
182
183
182
183
183
184
184
185
185
186
187
187
187
187
187
187
188
187
188
188
188
188
188
189
188
189
189
189
190
189
189
190
190
191
191
192
192
192
192
193
194
194
194
194
195
195
196
196
196
196
197
197
197
198
199
199
200
201
201
202
203
205
206
207
207
208
209
210
211
212
213
214
215
215
216
216
217
218
217
218
219
219
220
220
220
221
221
222
223
223
223
224
225
226
226
228
228
229
230
231
231
232
233
234
235
237
238
239
241
242
243
244
246
248
249
250
252
253
254
255
256
258
258
259
259
259
259
259
259
259
259
258
258
258
257
258
257
257
257
257
258
258
258
258
258
258
259
259
259
260
260
259
260
260
259
260
259
258
257
256
255
255
255
254
253
252
251
250
249
248
247
246
245
243
242
241
241
239
238
237
235
234
233
232
230
228
228
226
225
223
221
220
218
216
215
214
213
212
211
209
209
207
206
204
203
202
201
199
199
197
197
195
195
194
193
192
190
190
189
187
187
186
185
185
184
184
183
182
182
182
181
181
181
181
181
180
181
180
180
180
179
180
179
179
178
179
178
177
176
176
176
175
175
175
175
174
174
175
174
174
174
174
175
175
175
175
175
176
177
177
177
177
177
177
178
178
178
178
178
178
178
179
179
180
180
180
179
179
179
179
179
178
178
178
178
178
178
178
177
177
176
175
175
174
174
174
173
173
172
173
172
172
172
172
173
173
173
173
173
174
174
175
175
176
176
177
178
178
178
179
180
180
180
180
180
180
179
179
179
178
178
178
178
178
177
178
177
176
176
176
176
176
177
176
176
177
176
177
177
177
178
178
179
179
179
180
180
181
181
182
182
183
183
183
185
185
185
186
187
187
188
188
188
188
188
188
188
188
188
187
187
187
186
186
186
186
185
185
185
184
185
185
184
185
185
185
185
185
185
187
187
187
187
187
187
187
186
185
185
185
185
185
185
185
184
184
185
185
184
185
185
185
185
185
186
185
185
186
187
187
187
187
187
188
187
187
187
187
187
187
186
187
186
186
185
185
185
184
184
183
183
183
183
182
182
183
182
182
183
183
182
182
183
183
183
182
183
183
183
183
183
184
184
184
184
184
184
184
184
184
184
185
185
185
186
186
186
186
187
187
187
187
187
186
187
186
186
186
185
185
184
184
183
183
182
182
181
181
180
180
179
179
178
179
178
177
178
177
178
178
178
179
179
179
179
179
179
179
180
180
180
181
181
181
181
181
181
181
181
181
181
180
180
180
181
181
180
180
180
180
179
179
179
178
178
178
177
177
177
177
177
176
175
175
175
175
176
176
176
176
177
177
177
178
178
179
180
180
181
181
181
182
183
183
183
183
183
184
184
184
184
184
184
184
182
183
183
183
183
183
182
182
182
182
182
181
181
181
181
180
180
180
180
179
179
179
178
178
178
178
178
178
178
178
178
178
177
178
178
177
178
178
178
178
178
178
178
177
178
178
178
179
178
178
178
178
178
178
179
179
179
179
179
179
180
181
181
181
181
182
182
182
182
184
184
184
184
184
185
185
185
184
184
184
183
183
182
182
181
181
180
180
179
179
179
179
179
179
178
179
179
180
180
181
182
182
183
184
184
184
185
185
186
186
187
186
187
187
187
187
187
187
187
188
188
188
188
188
188
189
189
188
188
188
188
188
188
188
188
188
188
188
188
188
187
187
186
186
186
186
186
186
186
186
185
185
185
185
184
184
183
184
184
184
183
182
182
182
181
181
180
180
179
178
177
177
176
176
176
176
175
175
175
175
175
175
176
176
176
176
176
177
177
177
177
176
176
176
176
175
175
174
174
173
173
172
172
171
171
171
170
170
170
170
170
170
171
171
171
171
172
172
173
172
173
173
174
174
174
174
174
175
176
176
176
176
176
176
176
176
176
176
177
176
177
177
177
178
178
179
180
181
182
182
184
185
186
188
190
192
194
197
200
203
206
209
213
217
222
226
230
235
240
246
252
257
263
269
274
279
284
289
293
296
300
303
304
306
306
305
304
303
301
297
293
288
283
276
268
261
253
245
238
230
221
213
206
199
192
186
180
175
171
167
164
161
160
158
158
157
158
159
160
160
161
162
163
164
166
167
168
170
170
171
171
172
173
174
173
173
175
175
174
175
175
176
176
177
177
177
178
178
178
179
179
180
180
180
180
180
180
180
180
179
179
179
178
178
178
178
177
177
177
177
176
176
175
176
175
176
176
175
176
176
175
176
176
176
177
177
177
177
178
178
178
178
178
179
179
179
180
180
180
180
180
180
180
181
181
182
183
182
183
183
184
184
184
185
185
185
186
186
186
186
186
186
186
187
187
188
188
188
189
189
189
189
189
189
189
189
189
190
189
190
189
189
189
188
188
188
187
187
187
187
187
187
187
187
187
187
187
188
189
189
189
190
190
191
192
193
193
194
194
195
196
196
197
197
198
199
200
201
201
201
202
202
203
203
204
205
205
206
207
207
207
208
208
209
210
211
212
213
214
214
216
216
218
218
219
220
220
221
222
223
224
225
225
226
227
227
228
228
230
230
231
232
233
234
236
236
237
239
240
241
243
244
245
246
247
248
249
249
249
250
251
251
251
252
251
252
251
252
252
252
252
252
252
251
251
251
251
250
249
249
248
248
247
247
246
246
245
245
244
242
241
240
238
237
236
234
233
233
232
231
229
228
227
226
224
223
221
221
220
219
218
217
217
216
215
214
214
213
212
211
209
209
208
207
205
204
203
202
200
199
198
197
195
194
192
191
190
189
188
187
186
184
183
183
182
180
180
179
179
177
176
176
175
174
173
173
172
172
170
170
169
169
169
168
168
167
166
165
164
164
164
163
163
163
163
162
162
161
162
161
162
162
162
162
162
162
162
163
162
163
162
163
163
163
162
162
162
161
160
160
159
159
158
158
157
158
157
156
156
155
155
155
154
153
153
153
153
152
153
153
153
152
152
153
153
153
153
153
153
154
154
154
154
154
154
155
155
155
155
156
155
155
155
156
156
156
156
156
155
155
155
155
155
155
156
156
156
156
155
155
155
155
154
154
154
153
153
153
152
152
151
151
150
150
149
149
149
149
149
149
149
149
149
149
150
150
151
151
151
152
152
153
153
153
153
155
155
155
155
155
155
156
156
155
155
155
155
155
155
155
155
154
154
154
153
153
152
152
152
151
151
150
151
151
150
150
150
149
149
149
149
149
149
148
149
149
149
149
149
149
150
150
150
150
150
151
150
151
151
152
152
152
153
153
154
153
154
154
154
154
154
154
154
154
154
153
153
153
153
153
153
153
152
152
152
152
152
151
151
152
152
151
150
150
150
150
150
149
149
148
148
147
147
147
146
146
145
145
145
145
144
144
144
143
144
144
144
145
145
145
144
144
144
143
144
144
144
144
144
144
144
144
144
144
144
143
144
144
143
143
143
143
143
144
143
144
144
144
144
144
144
143
143
144
144
143
143
143
143
143
142
142
143
142
142
141
141
141
140
141
140
140
139
140
140
139
139
139
138
138
138
138
138
137
137
137
138
138
138
137
136
136
136
136
136
135
135
135
134
134
134
134
134
134
134
134
135
134
135
135
135
135
136
135
136
136
137
137
138
137
137
137
136
136
135
135
135
135
134
134
135
134
134
134
134
133
133
133
133
133
133
134
133
134
134
135
135
135
134
134
134
134
134
135
134
134
134
133
133
132
132
132
132
131
131
132
131
132
131
132
132
132
131
132
132
131
132
132
132
132
132
132
131
131
131
131
131
131
131
131
131
131
131
131
131
131
131
131
131
131
132
132
133
133
133
133
133
133
133
132
132
133
133
133
133
133
132
133
133
132
133
133
132
132
133
133
133
133
133
134
134
134
134
134
135
134
134
134
134
134
134
133
133
132
131
130
130
129
128
127
127
126
126
125
125
124
124
124
124
124
123
122
123
122
122
122
122
121
121
121
121
121
121
120
120
120
119
119
119
119
118
118
118
118
118
118
118
118
118
118
117
117
117
117
117
117
117
117
117
117
117
117
118
117
117
118
117
117
117
117
117
118
118
117
117
116
116
116
117
116
116
115
116
116
116
116
117
117
118
118
118
120
121
122
124
126
127
129
132
134
136
139
142
145
149
152
158
162
166
171
176
182
187
193
199
204
210
216
220
226
230
234
238
240
242
244
244
243
242
240
238
234
230
224
218
212
205
198
190
182
174
168
160
153
146
139
132
126
121
116
112
108
105
103
101
99
98
97
98
99
100
100
102
103
105
106
107
108
109
110
111
112
113
114
114
115
116
116
116
116
117
116
116
117
116
116
116
116
115
115
115
115
114
114
114
112
112
112
111
111
110
110
110
110
109
109
108
108
108
109
109
109
109
110
110
112
112
113
113
114
114
115
116
116
116
117
117
117
117
117
117
117
117
116
116
116
116
116
116
116
116
115
115
115
115
115
115
116
116
116
116
117
117
117
118
118
119
119
118
118
119
119
118
119
119
119
118
118
118
119
119
118
118
118
118
119
118
118
119
119
119
119
119
119
119
119
120
120
120
120
120
120
121
121
121
122
123
122
123
123
124
124
125
126
125
126
126
127
127
127
128
128
128
128
128
128
128
129
130
130
130
131
132
132
133
135
135
137
138
139
140
142
143
144
145
147
147
149
150
151
152
154
154
155
156
158
158
159
159
160
161
161
161
162
163
163
164
164
165
165
166
166
166
167
167
168
168
168
169
169
171
171
172
172
173
174
175
176
177
178
179
180
181
182
182
183
184
184
184
184
185
185
185
185
185
184
185
184
184
184
184
183
183
182
182
182
181
180
180
179
178
178
177
177
175
174
173
172
171
170
169
168
166
166
164
164
162
161
159
158
157
157
155
154
154
153
152
151
151
150
148
148
147
146
145
144
143
142
141
140
139
137
136
134
134
132
131
130
128
127
127
125
124
123
122
121
120
118
118
117
116
115
114
113
112
111
111
109
108
107
106
106
105
104
104
104
104
103
103
104
103
103
103
103
104
104
104
105
105
105
105
105
105
105
105
104
104
103
103
102
102
101
101
101
100
99
99
98
98
98
97
97
96
96
96
96
96
95
95
95
95
96
96
96
95
95
95
95
95
95
95
95
95
94
94
94
94
94
95
95
95
94
94
95
95
95
95
96
96
97
97
98
98
99
99
100
100
100
99
99
100
99
99
99
100
98
99
99
99
98
98
98
98
97
97
97
97
98
98
97
97
98
97
97
98
97
97
97
97
98
98
98
98
98
97
97
98
97
97
96
96
97
97
96
97
97
97
96
97
97
96
96
97
97
96
96
96
96
96
96
96
96
96
95
95
95
94
94
94
94
93
93
93
92
92
92
92
91
92
92
91
91
92
91
91
91
92
91
91
92
92
92
92
92
93
93
93
93
93
94
95
95
96
96
97
97
97
98
98
98
98
99
99
98
99
98
99
99
99
98
98
99
98
98
98
98
97
97
98
98
98
99
98
99
99
99
100
100
101
101
101
101
101
101
101
100
101
101
100
100
100
100
100
100
99
99
99
98
98
98
98
97
97
97
96
96
95
95
94
94
93
93
93
92
92
91
91
91
91
91
90
90
91
90
90
90
91
91
92
92
93
93
94
94
94
95
95
95
96
95
95
95
95
95
94
94
94
93
93
93
93
92
92
91
91
91
91
91
90
90
89
89
90
90
90
90
90
90
90
90
92
92
92
92
93
93
93
94
94
95
95
95
95
95
95
95
96
96
96
96
95
95
95
95
95
94
94
94
94
94
94
93
93
93
93
93
92
92
92
91
91
91
90
90
90
89
89
88
89
88
88
88
87
87
87
87
87
88
88
89
89
89
89
88
88
88
88
88
88
87
87
86
87
87
86
87
86
86
86
86
86
86
86
86
87
87
87
88
88
88
88
89
89
89
90
89
90
89
89
88
88
88
87
87
87
87
86
86
85
85
85
85
85
85
85
86
85
85
85
87
87
87
87
89
89
89
90
90
91
91
90
90
90
90
90
90
90
89
89
89
88
88
88
87
87
86
86
85
85
84
84
84
83
83
82
82
82
81
81
80
80
80
80
80
80
80
81
80
81
82
82
83
84
84
85
85
85
85
87
87
87
88
87
87
87
87
87
86
87
86
86
85
85
84
84
83
83
82
81
81
81
81
80
80
80
80
81
81
80
80
81
80
81
81
82
82
82
82
83
83
84
84
84
84
84
84
84
84
84
84
85
84
84
84
84
84
84
84
84
84
84
84
84
84
84
84
85
85
85
84
85
85
84
84
85
85
85
84
85
84
84
83
84
83
82
82
82
81
82
81
82
82
82
82
82
83
83
83
84
84
84
86
86
86
87
87
88
88
89
89
89
89
89
89
89
89
89
89
89
88
88
89
88
88
88
88
88
88
88
88
88
88
89
89
89
90
90
91
91
92
91
92
91
92
92
93
93
93
94
93
94
93
94
93
94
94
93
94
93
93
92
91
92
91
90
90
89
88
87
86
86
85
85
84
84
84
84
84
82
82
82
82
82
82
82
82
82
81
82
81
82
81
80
80
80
80
80
79
79
79
78
78
78
79
79
79
79
79
79
80
79
80
80
80
80
80
80
80
81
81
81
81
81
81
82
81
81
81
81
81
81
81
80
81
80
80
79
79
79
79
78
78
78
78
79
79
80
80
81
81
83
83
85
87
89
90
92
94
97
99
102
105
107
111
114
118
121
126
130
135
141
145
151
156
163
168
175
181
187
194
199
204
209
214
217
219
221
222
222
220
219
217
213
209
203
197
190
182
174
165
157
149
141
132
125
116
109
102
94
88
83
78
74
71
69
67
66
65
64
65
66
67
69
71
73
75
77
79
80
82
83
85
86
87
89
89
90
90
90
90
90
90
90
90
89
89
89
88
88
88
87
87
87
86
86
85
85
85
84
84
85
84
84
84
84
85
84
84
85
85
85
86
86
86
86
86
86
87
86
87
87
88
88
88
88
88
88
88
88
89
88
89
90
89
90
90
90
90
91
91
91
91
91
92
92
93
93
94
94
94
94
94
94
94
94
94
95
95
94
94
94
94
94
94
93
94
94
95
94
95
95
96
97
97
98
98
99
101
101
102
103
103
104
104
105
105
106
106
106
106
106
107
106
106
106
105
106
106
106
105
105
105
106
106
107
107
107
108
109
110
110
111
112
112
113
114
115
115
116
117
117
118
118
119
118
118
119
119
120
120
121
121
121
121
123
123
124
125
127
128
129
130
131
133
134
135
137
138
139
140
141
143
144
146
146
148
148
150
150
152
153
153
154
154
155
156
157
158
159
159
160
161
162
162
163
163
164
165
165
165
166
167
167
167
169
169
170
170
171
171
171
171
171
171
172
173
173
173
174
174
175
175
176
176
176
176
176
176
177
177
176
176
175
175
175
174
173
173
173
172
171
170
169
167
166
165
165
164
163
161
160
159
158
157
156
154
153
152
149
148
147
146
144
143
141
141
139
138
137
136
134
134
133
132
131
131
130
128
128
128
126
126
126
124
123
122
122
121
120
118
118
116
115
115
113
112
110
109
108
107
106
105
103
102
101
101
100
100
99
99
99
98
99
98
99
99
99
99
100
100
100
101
100
100
101
101
100
100
100
99
99
99
98
98
98
97
97
97
96
97
97
96
96
96
96
96
96
96
96
96
95
95
95
95
96
95
95
95
95
95
94
94
94
94
94
93
93
92
93
92
92
91
92
91
91
91
91
90
91
92
92
92
92
93
94
93
94
94
94
96
97
96
97
97
97
98
98
98
99
98
98
99
98
99
99
98
99
98
99
99
98
98
98
98
98
97
97
97
98
97
97
98
97
98
98
97
97
98
98
99
99
100
100
101
102
102
102
102
104
104
104
105
105
105
105
104
104
104
104
104
104
103
103
103
102
102
102
102
102
101
102
102
103
103
103
103
103
102
103
103
103
103
103
104
104
103
103
103
103
103
103
103
102
102
102
102
101
102
101
101
101
101
101
101
101
101
101
100
101
101
101
101
101
101
101
102
102
102
103
103
103
104
104
104
105
105
106
107
107
108
108
108
108
108
109
109
109
108
109
109
109
108
107
107
106
106
105
106
105
104
104
103
103
102
102
101
101
101
101
101
101
101
102
101
101
102
102
102
103
103
103
104
104
104
104
105
105
105
105
105
105
105
105
104
104
104
103
103
103
103
103
103
103
102
102
101
102
101
101
101
101
101
101
101
101
100
100
100
101
101
101
100
101
101
100
101
101
101
101
102
102
102
103
103
103
104
104
104
104
104
105
105
105
105
105
105
105
103
103
103
103
102
102
102
102
101
101
101
101
100
100
101
101
101
101
101
101
101
101
101
102
101
101
101
101
100
101
101
101
101
101
100
100
100
99
100
100
100
100
100
100
100
101
100
99
99
99
99
100
100
100
100
99
100
100
99
100
100
100
99
99
100
101
101
101
101
100
100
101
101
101
101
102
101
101
101
100
100
100
100
100
100
99
99
99
98
98
97
98
98
97
97
96
96
96
97
96
96
97
96
97
97
98
98
98
98
98
99
99
99
99
99
98
98
99
99
99
98
99
99
99
99
99
99
100
100
100
100
100
101
101
101
102
102
102
102
102
102
102
102
102
102
102
102
103
102
102
103
103
103
102
102
102
102
102
101
100
101
100
100
100
99
100
100
99
99
98
98
98
98
98
99
99
99
99
100
100
100
100
101
102
102
102
102
102
102
102
102
102
102
102
102
101
101
101
100
100
100
100
99
98
98
98
98
97
97
98
98
99
99
98
99
100
100
100
101
101
102
102
103
104
104
104
105
105
105
105
105
105
105
105
104
103
103
103
102
102
101
101
101
100
100
100
100
100
100
101
101
101
101
102
102
102
102
103
104
104
104
105
105
105
106
106
107
107
108
107
107
107
107
108
108
107
108
108
109
108
109
108
108
107
108
108
107
107
107
107
107
107
107
107
108
108
108
109
109
109
109
110
110
111
112
113
113
113
114
114
115
115
115
116
116
116
116
116
115
116
116
115
115
114
114
114
113
113
112
113
113
112
112
113
112
112
112
112
112
113
112
113
113
113
113
114
114
113
114
114
113
112
112
112
112
112
111
110
110
109
109
109
107
107
106
106
105
105
104
104
104
103
103
102
102
101
101
100
100
100
100
99
99
98
98
98
98
99
99
99
99
99
100
101
101
101
101
102
103
104
103
104
105
105
105
106
106
106
106
107
107
107
107
107
106
106
106
106
105
105
105
105
104
104
104
103
103
102
103
102
102
102
103
103
104
104
105
106
106
107
109
110
110
112
114
115
117
119
122
123
127
130
135
138
143
147
153
159
166
172
179
186
193
200
208
215
221
227
233
237
242
246
249
251
251
251
249
246
243
240
235
229
223
215
206
198
189
181
172
163
155
147
139
131
124
118
112
107
102
98
95
91
89
88
86
86
86
87
87
89
90
92
93
95
97
99
101
103
105
107
108
110
112
113
114
115
115
116
116
117
116
117
117
116
116
116
116
115
115
114
114
114
113
113
113
113
113
113
113
113
112
113
113
112
112
112
112
112
112
111
111
110
111
111
110
110
111
111
112
111
112
112
112
113
113
114
114
114
115
116
116
116
116
116
116
116
115
115
115
115
114
114
115
115
115
116
116
117
117
118
118
118
119
120
120
121
122
123
123
124
125
125
126
127
127
128
127
128
128
129
129
129
129
129
129
130
130
130
130
130
130
131
130
131
131
132
132
133
133
134
134
133
134
134
135
135
135
135
136
137
136
137
137
136
136
136
137
136
137
136
137
137
138
137
137
138
139
140
140
140
141
142
142
143
143
145
146
147
148
148
149
150
150
151
152
153
154
155
156
158
158
160
160
161
163
163
165
166
167
168
169
170
171
171
172
174
175
175
176
177
178
179
180
181
182
184
184
186
186
188
189
190
190
191
192
193
194
195
196
196
196
197
197
198
198
199
199
199
199
199
199
199
199
199
199
199
200
199
200
199
200
200
199
199
199
198
198
198
197
196
196
195
195
195
194
193
192
192
191
190
189
188
187
187
186
184
183
182
181
180
179
178
176
176
174
173
171
170
169
167
166
165
164
162
161
160
158
157
156
155
154
153
152
151
151
150
148
148
148
146
145
145
143
142
141
141
139
138
137
135
134
133
132
131
130
130
129
128
127
127
125
125
125
124
124
124
123
123
123
122
123
123
122
123
123
123
123
122
122
122
121
121
121
121
120
119
119
119
119
118
117
117
117
116
116
115
116
116
115
115
114
115
114
114
114
114
113
113
113
111
111
111
111
111
111
111
110
109
109
109
109
109
109
110
110
110
110
111
111
111
111
111
111
111
112
112
112
111
111
111
111
111
110
110
110
111
111
110
110
111
111
110
110
110
110
110
110
110
110
110
111
111
111
111
113
113
113
113
114
115
115
115
116
116
116
116
117
118
118
118
118
119
119
120
120
120
120
120
120
119
119
119
120
120
120
120
120
120
119
120
120
119
120
119
119
118
118
118
117
117
117
117
116
115
115
115
114
114
113
114
113
113
114
114
113
113
113
114
114
114
114
114
115
115
115
116
117
117
117
118
117
118
118
119
119
120
120
121
120
121
121
121
122
122
121
121
121
121
121
120
120
120
119
120
119
119
118
119
118
117
117
117
117
116
116
117
116
116
116
116
116
116
116
116
115
115
116
115
115
115
115
115
115
115
116
116
116
116
116
116
117
117
117
117
117
117
118
118
119
119
119
119
118
117
117
117
117
117
117
117
116
116
116
116
116
116
116
116
116
116
116
116
116
116
117
117
117
117
117
117
117
117
117
117
117
118
118
118
117
117
117
117
117
117
117
116
116
116
116
115
115
114
114
114
113
112
112
112
112
112
112
111
110
110
111
110
110
111
110
111
111
111
112
112
112
112
112
112
112
112
113
113
113
113
113
113
113
113
113
113
113
113
113
113
113
113
113
114
114
114
114
114
114
114
114
114
114
114
114
113
114
113
113
113
113
113
113
114
113
113
113
112
112
112
112
112
112
112
111
112
112
111
111
111
110
110
109
109
110
109
109
108
109
108
109
109
109
110
110
111
112
112
112
113
114
115
116
116
116
118
118
119
119
119
119
119
119
118
118
118
118
118
118
117
118
118
118
118
119
119
119
119
120
120
122
123
123
124
124
124
125
125
126
126
126
127
127
126
127
126
127
126
126
126
125
125
124
125
124
123
122
123
122
121
121
120
119
119
117
117
116
115
115
114
113
114
113
112
111
111
110
109
109
108
107
107
106
105
104
104
103
103
103
102
102
102
102
103
103
103
104
104
105
106
107
108
109
110
111
112
113
113
113
114
115
115
116
116
116
116
115
115
115
114
114
113
112
113
112
111
110
111
110
110
109
109
110
109
109
108
108
108
108
108
108
109
109
109
109
109
109
110
110
111
111
112
114
115
116
118
120
121
124
126
129
131
133
136
140
144
147
152
156
161
166
170
175
180
186
191
197
201
207
212
218
222
227
230
234
236
238
239
240
240
239
238
236
233
230
225
220
214
207
200
192
184
176
169
161
153
145
137
131
124
118
112
106
102
98
94
92
91
90
88
88
89
90
92
93
95
97
99
101
103
105
107
108
110
112
113
114
114
115
116
116
117
117
117
117
116
116
115
115
115
115
115
114
114
113
114
113
113
113
113
113
113
113
113
114
114
114
114
114
115
116
116
116
117
118
118
118
119
119
120
119
119
120
119
119
120
119
119
119
119
119
118
119
118
119
119
118
119
118
118
118
119
118
118
118
118
119
119
119
120
121
120
121
121
121
122
121
121
122
122
122
122
122
121
122
122
121
121
121
122
121
122
121
121
122
121
122
123
123
125
125
126
127
128
129
130
131
132
133
134
134
134
134
135
135
135
136
136
136
137
137
137
137
137
137
138
137
138
138
137
137
137
137
138
138
138
138
139
138
139
140
140
140
141
141
141
143
143
144
145
146
146
148
149
150
151
152
153
153
154
155
156
156
157
159
159
160
161
161
162
164
164
165
166
167
167
168
170
170
172
173
174
176
176
177
179
179
181
181
182
184
184
185
186
186
188
188
189
189
190
189
190
190
191
192
192
193
194
194
194
195
196
196
196
197
197
198
198
198
199
199
199
199
199
198
198
198
197
197
197
195
195
195
193
193
192
191
190
189
188
187
186
186
185
184
184
182
182
181
180
178
178
176
176
174
173
171
171
169
168
167
166
164
163
162
160
159
157
157
155
154
151
150
148
148
146
144
143
141
141
139
137
136
134
133
131
130
129
129
128
127
127
126
126
125
124
124
124
123
123
122
122
123
123
122
122
122
121
121
120
119
119
118
118
117
117
116
116
115
115
113
113
112
112
112
111
111
111
111
111
112
111
111
111
111
111
112
112
112
113
113
113
113
113
113
112
112
113
112
111
112
111
111
111
110
110
111
111
110
110
110
110
110
109
109
109
109
109
109
108
109
108
108
108
108
107
107
107
107
107
107
107
107
107
107
107
107
107
107
107
107
107
107
107
108
107
107
108
108
108
107
108
107
107
106
106
106
107
107
106
107
107
107
107
107
108
108
108
109
109
110
111
111
111
113
113
113
113
114
114
114
113
113
114
114
114
113
114
114
114
114
113
113
113
114
114
114
114
114
114
114
115
116
115
116
116
116
116
116
116
117
117
117
117
118
117
117
118
117
117
117
117
116
116
116
116
116
116
116
115
115
115
116
116
116
115
116
116
116
116
117
117
117
116
116
117
118
118
118
118
118
118
118
118
118
119
119
118
119
119
119
118
118
118
118
118
118
118
118
118
118
117
117
117
117
117
117
117
117
117
117
116
117
117
117
118
117
117
117
117
117
117
118
117
117
117
116
116
116
116
115
115
116
116
116
116
116
117
117
116
116
116
117
117
117
118
118
118
118
118
118
118
118
118
118
117
117
118
118
117
117
117
118
118
118
117
117
116
116
117
116
116
116
116
115
115
116
116
115
115
115
115
115
115
115
115
116
116
116
116
117
118
118
119
119
119
119
119
119
119
120
119
119
119
118
119
119
118
119
118
117
118
117
117
118
117
117
118
118
118
119
118
119
119
119
120
119
120
120
121
120
120
120
121
121
121
122
122
122
123
123
124
124
124
124
125
125
126
125
126
126
127
127
128
128
127
127
128
128
128
128
128
127
127
127
128
128
127
127
127
127
127
126
126
126
126
124
124
123
123
122
121
121
120
119
119
119
118
117
116
116
115
115
115
114
115
114
114
114
114
114
115
114
115
115
115
115
115
114
115
114
114
114
114
113
113
112
112
112
111
110
110
110
110
110
110
110
110
110
110
111
111
111
113
113
113
114
114
114
115
115
115
115
115
115
115
115
115
115
115
114
115
114
114
115
114
114
114
113
113
114
113
113
114
113
114
114
114
114
115
116
117
118
118
119
121
121
123
125
126
128
130
131
134
137
139
143
146
150
154
158
163
168
173
179
184
190
196
200
206
211
217
222
227
230
233
237
238
240
242
241
241
239
236
234
229
225
220
213
207
200
191
184
177
170
162
155
148
142
136
130
124
119
115
111
107
105
103
101
100
100
101
101
101
102
102
104
105
107
108
110
110
112
113
115
116
116
117
118
119
120
121
121
120
121
121
122
122
122
123
123
123
122
122
122
121
122
122
121
121
122
121
121
121
121
120
120
120
120
120
120
120
121
121
121
122
122
122
123
123
123
124
124
124
124
125
125
125
125
126
125
125
125
124
124
125
124
124
124
123
124
123
124
123
124
124
123
124
124
124
123
124
124
124
125
125
125
126
126
126
127
127
127
129
129
130
130
132
132
133
133
134
134
136
135
136
136
137
137
138
137
137
137
136
137
136
136
136
135
136
135
136
136
137
137
137
137
137
138
138
139
139
139
140
140
141
141
140
141
140
141
141
141
141
141
142
143
143
143
144
145
145
146
148
149
149
150
151
151
153
154
154
155
156
157
158
158
159
160
160
161
162
163
163
164
165
166
167
169
169
170
171
172
173
174
174
176
177
178
178
180
181
181
182
183
183
184
184
186
186
187
187
188
189
189
190
191
191
192
192
193
193
195
196
196
197
198
198
200
201
201
202
203
203
204
205
206
206
206
206
207
207
207
206
205
205
205
203
203
202
202
200
200
198
197
196
194
194
193
192
190
189
188
187
186
185
184
183
183
182
180
179
178
178
177
175
175
173
172
172
170
170
169
168
167
166
164
163
162
161
160
159
158
157
157
156
154
153
152
152
151
149
149
147
147
146
144
144
143
142
141
141
140
139
138
138
137
136
135
135
134
133
132
132
131
130
130
130
130
129
129
129
129
129
129
129
129
129
130
130
129
130
129
130
129
129
129
129
129
128
128
127
127
127
126
126
126
124
124
123
123
123
122
122
122
122
122
122
121
121
121
121
120
120
119
119
120
119
119
119
119
119
119
118
118
118
118
119
119
119
119
119
120
120
121
122
122
123
123
124
124
124
124
125
124
125
125
125
125
125
125
125
125
125
125
124
124
124
124
123
123
123
123
123
122
122
122
121
122
123
122
122
123
123
123
122
123
123
123
124
124
124
125
125
126
127
127
127
127
127
127
127
127
127
127
127
128
127
127
127
127
127
127
127
127
127
126
126
126
126
126
127
126
127
127
127
127
128
128
127
128
128
128
127
127
128
127
127
128
128
128
128
128
128
127
127
127
127
127
128
128
129
129
130
130
130
131
131
132
132
132
133
133
134
134
134
134
134
133
134
134
133
133
132
132
133
132
132
131
131
131
131
131
131
131
131
131
131
131
131
132
132
132
132
132
132
132
132
132
132
132
131
131
131
131
132
131
131
131
132
132
132
132
132
132
133
133
133
133
133
133
134
134
134
134
133
133
133
133
133
133
133
133
133
132
131
131
130
130
129
129
128
128
128
128
128
127
127
127
127
127
128
128
128
128
129
129
130
131
131
132
133
133
133
134
134
134
134
135
135
135
134
134
134
133
132
133
131
130
130
129
129
129
128
128
128
128
128
128
128
128
128
128
128
128
128
127
127
128
128
127
127
127
127
127
127
126
126
126
125
125
125
125
126
126
125
126
126
126
126
127
127
127
128
128
129
129
130
131
130
131
131
131
132
132
133
132
132
132
132
132
132
132
131
132
132
131
131
130
131
130
130
130
130
129
129
130
129
129
129
130
130
130
130
131
131
131
131
131
131
131
132
132
132
132
132
131
131
131
132
132
132
132
133
133
133
133
133
133
133
133
133
133
134
134
134
135
135
135
136
136
137
137
136
136
137
137
137
137
138
138
138
138
138
138
139
139
139
139
139
140
140
142
142
142
143
143
142
142
142
143
142
142
141
140
138
137
137
136
134
134
133
131
131
129
129
128
128
127
127
126
126
126
127
127
127
127
127
128
129
129
129
130
130
130
130
131
131
131
131
131
131
131
132
132
132
132
132
132
130
130
130
130
130
130
130
130
128
128
128
128
128
127
127
126
126
126
126
126
126
126
126
126
126
126
126
126
126
126
127
127
127
127
127
127
127
127
127
127
127
127
128
129
129
130
130
132
132
133
135
137
139
141
143
146
148
152
155
159
163
167
172
176
181
186
192
198
204
210
216
221
229
234
239
244
249
253
257
260
263
264
265
265
264
262
259
255
251
246
240
233
226
219
210
201
194
186
179
171
164
158
151
145
140
136
132
128
126
123
122
120
120
120
120
121
123
124
125
126
128
129
130
132
133
133
135
135
135
136
136
136
137
137
136
137
137
136
136
136
135
135
136
135
135
135
135
135
135
135
135
136
136
136
137
136
136
137
137
137
138
138
138
138
139
139
139
139
140
140
140
140
141
140
141
141
140
140
140
140
139
140
140
140
141
140
140
141
141
141
141
142
142
142
143
144
144
145
145
145
146
146
146
146
147
147
146
147
147
147
146
146
147
146
146
147
146
146
147
146
146
147
146
146
146
146
147
147
147
148
148
149
149
149
149
150
151
151
152
152
152
153
153
153
153
154
154
153
154
154
154
154
153
154
154
154
154
154
153
154
153
154
154
155
155
156
158
158
159
160
160
161
162
163
163
164
165
166
166
167
167
168
169
169
169
170
170
171
172
172
172
173
174
175
176
178
179
180
181
183
184
186
187
187
189
190
191
192
194
194
196
197
197
198
199
199
200
200
201
201
201
203
203
203
204
204
205
205
206
206
207
208
208
209
211
211
212
214
214
215
216
216
218
218
219
219
219
220
220
220
220
219
220
219
219
219
218
218
217
217
216
215
214
213
212
211
211
210
209
209
208
207
207
206
205
204
204
203
202
201
201
201
200
200
199
198
198
197
197
196
195
195
193
192
191
190
188
187
186
184
183
182
180
179
178
177
175
174
173
172
171
169
167
167
166
164
163
162
161
160
159
158
157
156
156
154
154
153
152
151
151
151
150
149
149
149
149
148
149
149
149
149
149
149
150
149
149
149
149
148
149
148
148
147
147
147
147
147
146
146
145
145
144
144
144
144
143
144
144
144
144
144
145
145
145
145
145
144
143
143
143
143
143
143
143
142
142
141
141
140
140
140
140
140
140
138
138
138
137
137
137
137
137
137
137
138
138
138
138
139
139
139
140
141
141
142
142
143
143
143
143
144
145
145
144
145
145
144
144
144
143
143
143
142
143
143
143
142
142
142
142
143
144
144
144
144
144
144
144
143
144
145
145
145
145
145
145
145
145
146
146
146
146
146
147
147
147
147
147
148
148
148
148
148
148
147
148
148
147
148
147
147
148
147
148
147
148
148
148
148
148
147
147
147
147
148
148
147
148
148
148
148
149
148
148
148
148
148
148
150
150
149
149
150
150
150
151
151
151
152
151
151
152
152
152
152
152
151
151
151
151
150
150
150
149
149
149
149
149
148
148
148
148
148
147
147
147
147
147
147
148
148
148
148
149
149
149
149
149
150
150
150
150
150
150
150
150
150
149
150
150
150
150
150
150
149
149
149
149
149
150
150
150
150
150
150
150
151
151
151
151
151
151
151
151
151
151
150
150
150
150
149
149
148
148
148
147
147
147
147
147
147
146
146
147
148
148
148
148
148
149
149
150
150
151
151
151
152
153
153
153
153
153
152
152
152
152
153
153
153
153
153
152
152
152
152
151
151
151
151
150
150
149
149
149
149
149
149
148
148
148
148
148
148
148
148
148
149
149
149
148
148
149
149
150
150
150
150
150
150
150
150
150
150
150
150
151
150
150
150
150
150
151
150
150
150
150
149
149
149
148
148
148
148
148
148
148
148
147
147
148
148
148
148
148
148
148
148
148
148
149
149
149
148
148
148
148
148
146
146
146
145
145
144
145
144
144
143
143
143
143
143
144
144
144
144
145
145
146
147
147
149
149
150
151
152
153
152
153
153
154
154
154
154
153
153
153
152
152
151
151
150
149
149
148
148
147
146
146
145
145
144
144
144
144
144
143
143
143
143
143
143
143
143
143
143
144
145
145
145
145
145
146
146
146
146
146
146
146
146
147
147
147
148
148
147
147
147
148
147
147
147
147
147
147
147
146
146
146
145
146
145
145
144
145
144
144
143
144
144
144
144
144
143
144
144
144
144
144
145
145
146
146
145
146
146
146
147
147
146
147
147
147
147
147
147
147
148
147
147
147
147
148
148
147
147
147
147
147
147
147
148
147
147
147
147
146
146
146
146
145
144
145
145
144
144
144
144
145
144
144
144
144
144
144
144
145
145
145
146
146
145
146
146
146
147
147
147
146
147
147
147
147
148
148
148
148
149
149
148
148
149
149
149
148
149
149
148
148
148
148
147
147
147
147
146
146
146
145
145
145
145
144
145
145
145
145
145
145
145
145
146
146
146
147
147
148
147
148
148
149
149
148
149
149
149
148
148
148
148
148
148
148
148
147
147
147
147
146
146
146
146
145
145
145
145
144
144
145
145
144
144
145
145
145
146
146
146
147
147
148
148
149
149
149
150
150
151
151
151
152
152
153
152
152
153
152
153
153
153
152
152
152
152
152
151
152
152
153
152
152
152
153
153
153
153
153
154
154
155
155
155
155
156
156
156
156
156
156
156
157
156
157
157
157
157
157
157
157
157
156
157
156
156
156
156
156
155
155
155
155
155
155
155
153
153
153
153
153
153
152
152
152
152
152
152
152
152
150
150
150
150
150
150
149
149
149
149
149
148
147
147
147
146
146
146
145
144
144
144
144
143
143
143
142
142
142
142
142
141
141
141
141
142
142
142
142
143
144
144
144
144
146
146
146
146
147
148
148
148
149
149
149
150
149
149
149
149
149
148
148
149
148
148
147
147
148
148
149
149
150
151
152
153
153
155
156
158
160
162
165
168
172
176
179
183
188
192
198
204
209
216
223
230
237
244
250
257
263
269
275
280
283
287
291
292
293
294
294
292
290
287
283
277
272
266
258
250
242
232
224
216
207
199
191
183
176
168
162
157
152
148
145
142
139
138
137
136
136
136
136
137
138
139
142
143
143
145
146
148
150
151
152
153
154
154
155
156
156
156
156
156
156
156
156
155
156
155
155
154
154
153
153
153
153
153
153
154
153
153
154
154
154
155
155
155
155
155
156
155
156
155
155
156
155
155
156
156
156
156
156
156
156
156
156
156
157
157
157
158
158
159
159
159
160
161
161
161
161
162
162
162
162
162
162
162
162
161
162
161
161
161
160
161
160
161
160
161
160
161
161
161
161
161
162
163
163
164
164
165
165
166
166
167
168
169
169
169
170
170
171
171
172
172
172
173
172
173
173
173
173
173
173
173
174
174
173
174
174
175
175
176
176
176
177
177
178
178
179
180
181
181
181
182
182
183
184
183
184
185
186
186
186
186
187
188
188
189
189
190
191
192
193
193
194
195
196
196
197
198
199
200
200
201
202
202
203
203
203
204
204
205
205
207
207
208
209
209
210
211
212
213
213
215
215
217
217
218
219
220
221
222
224
225
225
227
228
229
230
232
233
234
235
236
237
239
239
240
241
242
242
243
243
243
244
243
243
243
244
243
244
243
244
244
243
243
243
243
243
243
242
242
242
241
241
240
239
239
238
238
237
235
235
233
231
231
229
228
227
226
225
224
223
221
221
219
218
217
216
215
213
212
211
210
210
208
206
205
204
203
202
201
200
199
197
196
194
194
192
191
190
188
187
185
184
183
182
181
179
178
178
177
175
175
175
173
173
172
172
171
171
171
170
170
169
169
169
168
168
167
167
167
167
166
166
165
165
164
164
164
163
164
164
163
163
163
162
162
163
163
162
162
162
161
161
161
161
160
161
161
161
161
160
160
160
160
160
160
160
160
160
159
159
159
159
159
159
159
159
159
160
159
159
159
159
159
159
159
159
158
158
159
159
159
159
158
158
157
157
157
157
156
156
156
156
156
156
157
157
156
157
157
157
158
158
158
159
159
159
159
159
160
160
160
159
160
160
160
160
159
159
158
159
159
159
158
158
158
157
157
157
158
158
158
158
158
158
158
159
159
159
158
158
159
159
159
159
159
158
159
159
159
159
159
158
158
159
158
158
158
159
159
159
160
160
160
161
160
160
161
161
161
162
162
161
161
161
161
162
162
162
162
162
162
162
162
162
162
161
161
162
162
162
162
162
162
162
163
162
162
162
162
163
162
163
163
163
163
162
162
162
162
162
162
162
161
161
161
161
161
161
161
160
160
161
161
161
161
161
161
161
161
161
161
161
161
161
161
160
160
160
160
160
159
160
160
159
159
159
159
159
158
159
159
159
159
158
158
158
157
157
157
157
157
156
155
154
154
154
153
153
154
153
153
153
153
153
154
154
154
155
155
155
155
156
156
157
158
158
159
158
159
159
158
159
159
157
157
157
157
156
156
156
156
156
155
155
154
154
153
153
153
153
152
152
151
151
150
150
149
149
148
148
148
147
147
147
145
145
145
146
146
146
145
146
147
147
148
147
148
149
148
149
149
151
151
151
151
151
152
152
152
152
151
151
151
151
151
150
150
150
149
149
149
148
147
147
146
146
146
145
145
144
144
144
145
145
144
145
146
146
146
146
146
146
147
147
148
148
148
148
149
150
150
150
150
150
150
150
150
150
150
150
150
151
150
150
150
150
150
150
150
150
150
149
150
150
149
149
149
149
148
148
147
147
147
146
146
145
144
144
143
142
142
142
142
141
141
141
140
141
141
141
141
142
143
144
144
145
146
146
147
147
148
149
149
149
148
148
149
148
148
148
147
147
147
146
145
144
143
143
142
141
141
141
141
141
141
140
140
140
139
139
139
139
139
139
139
140
140
140
140
139
140
140
140
139
140
140
140
140
141
141
141
143
143
143
143
143
143
143
143
143
143
143
144
143
143
142
142
142
141
140
140
139
139
139
139
138
138
139
139
139
139
140
139
140
140
141
142
142
142
143
143
143
144
144
144
144
144
144
144
144
143
143
143
142
142
142
142
142
141
141
141
140
140
140
140
139
139
138
138
138
138
138
138
138
138
138
137
138
138
138
138
138
140
140
140
139
140
140
140
140
140
140
141
141
141
141
141
141
140
140
140
140
140
140
140
139
139
139
138
138
139
139
138
138
138
137
137
137
137
137
137
136
136
136
136
136
136
135
135
135
135
135
135
135
136
136
136
136
136
136
137
137
137
137
138
138
138
138
138
138
139
139
139
139
139
139
138
138
138
138
138
139
138
138
138
138
138
137
136
136
136
137
136
136
136
136
135
135
136
135
135
136
135
136
136
136
136
136
136
136
137
137
136
137
137
137
137
138
138
138
138
138
139
138
138
138
139
138
139
139
139
139
139
139
139
140
140
140
140
141
141
141
142
142
143
142
143
144
144
144
145
145
145
145
145
145
145
145
145
145
145
145
144
144
143
144
144
143
143
143
143
143
143
143
143
143
142
143
143
142
143
142
143
143
143
142
142
142
142
141
141
141
140
139
138
138
137
137
136
135
134
134
133
133
132
132
132
131
131
131
131
132
131
131
131
131
131
131
131
131
131
131
131
131
131
130
130
129
129
128
127
127
127
127
127
127
127
127
126
126
125
125
125
125
125
126
125
126
126
127
127
127
127
128
128
128
129
129
128
129
129
129
129
130
129
129
129
130
130
131
130
131
131
133
134
135
135
137
138
140
141
144
146
149
152
155
159
163
168
172
178
184
190
195
202
209
215
221
228
234
240
246
251
256
261
264
268
270
271
271
271
270
267
264
260
254
248
242
234
226
218
209
200
192
182
174
166
158
150
143
137
131
125
121
117
114
111
109
109
108
108
108
109
109
110
111
112
114
115
117
118
120
121
123
124
125
126
126
127
128
128
128
128
128
128
128
127
127
126
126
125
125
124
124
123
121
121
120
119
119
118
118
118
118
118
118
118
118
118
118
118
118
119
120
121
122
123
124
125
127
127
128
129
131
131
132
133
134
135
135
136
136
136
136
137
137
137
137
137
136
136
137
136
136
135
135
135
135
134
134
134
134
133
134
133
133
134
133
133
134
134
134
134
134
133
133
133
132
132
132
131
131
131
130
129
129
129
128
128
127
127
127
128
128
128
128
129
130
131
132
133
134
136
137
139
140
141
143
144
145
147
148
149
149
151
152
153
153
153
154
154
154
153
153
154
154
153
153
153
153
152
153
152
152
153
152
153
153
153
153
153
154
153
154
154
154
155
155
155
156
157
157
158
158
159
160
160
161
163
164
164
165
167
168
168
169
171
172
173
174
175
176
178
179
180
180
181
183
183
184
185
185
186
187
187
188
190
191
191
191
192
193
194
195
195
196
197
197
198
199
199
200
201
200
201
201
201
201
201
202
201
202
202
202
202
201
202
202
202
202
203
203
203
203
203
202
203
202
202
201
200
200
199
197
196
194
193
192
191
189
189
187
185
184
182
181
180
178
176
175
173
172
171
169
168
167
166
164
163
162
160
158
157
156
154
153
152
150
148
148
147
146
143
142
141
140
139
138
137
135
134
134
133
132
132
131
130
129
129
128
127
127
126
126
124
124
123
123
122
121
119
119
118
116
115
114
113
112
110
109
109
108
107
106
105
105
105
104
104
104
104
103
103
104
104
104
104
104
104
105
105
105
106
105
106
106
105
106
106
106
106
105
105
105
105
105
103
103
103
102
103
102
101
101
101
100
100
99
98
98
97
97
98
97
97
97
97
96
97
96
97
97
96
97
97
97
97
97
97
97
98
98
98
98
98
98
98
98
97
97
97
97
98
98
98
98
98
97
97
97
97
97
97
97
97
97
98
98
98
98
97
97
97
97
97
97
97
96
96
96
96
96
96
95
95
94
94
93
93
93
93
94
94
94
94
