# Simple Text Format
# Sampling Rate (Hz):= 1200.00
# Resolution:= 12
# Labels:= ECG	aVF
# Age:=	17
# Gender:=	Masculino
332
343
354
366
378
391
404
418
432
446
459
471
482
492
500
507
512
516
517
516
512
507
499
490
479
465
451
435
417
398
380
360
341
322
304
287
270
255
240
227
216
206
198
191
186
182
179
177
175
175
176
176
178
180
182
184
186
189
191
193
195
197
198
200
201
203
204
205
205
206
207
208
208
208
209
209
209
210
210
210
210
210
210
211
211
211
212
212
212
211
211
211
211
211
212
212
212
212
212
212
212
212
212
212
212
212
212
212
212
212
212
212
212
212
212
212
212
211
211
211
211
210
210
210
209
209
209
209
208
208
208
208
208
208
208
207
207
207
207
207
207
207
207
208
208
208
208
208
208
208
208
208
209
209
209
209
210
210
210
210
211
211
211
211
212
212
212
212
212
212
212
213
213
214
214
214
214
214
214
214
214
214
214
214
215
215
215
216
216
216
216
215
215
215
215
215
214
214
215
214
214
215
215
215
215
216
216
216
217
217
218
219
219
220
221
222
222
223
224
224
225
225
227
227
228
229
229
230
231
232
232
233
234
235
235
236
237
238
239
239
240
241
241
242
243
244
244
244
245
245
246
246
246
247
247
248
248
249
249
250
250
251
252
252
253
254
255
255
256
257
257
258
259
259
260
261
261
262
262
263
264
264
264
264
264
264
265
265
265
265
265
265
265
265
264
264
264
263
263
262
261
261
260
259
258
258
256
255
254
253
252
250
249
248
247
246
245
244
242
242
241
239
239
238
237
235
235
234
232
231
230
228
227
225
223
222
220
218
217
215
213
211
209
207
205
203
202
200
198
197
195
194
193
192
191
189
189
187
186
185
184
183
182
181
180
179
179
178
177
176
176
175
174
174
173
172
172
171
171
170
170
169
169
168
168
167
167
167
166
166
166
165
164
164
163
163
162
162
162
162
162
162
162
162
162
161
161
161
161
161
161
161
161
160
160
160
160
159
159
158
158
157
157
156
156
156
155
155
155
155
155
155
155
154
154
154
154
154
154
154
154
154
153
153
153
153
153
153
152
152
152
152
152
152
152
151
151
151
151
151
151
151
151
151
151
151
151
151
152
152
152
152
152
152
152
152
152
152
152
152
152
151
151
151
151
151
151
151
151
151
151
151
150
150
150
150
150
150
150
151
151
151
152
152
152
152
152
152
152
152
153
153
153
153
154
154
154
155
155
155
155
156
156
156
156
156
156
156
156
156
156
156
156
156
156
155
154
154
154
154
153
153
152
152
152
152
151
151
151
151
151
151
151
151
151
151
151
152
152
152
152
152
152
152
152
152
152
152
152
152
152
152
152
151
151
151
151
150
150
150
149
149
149
149
149
149
148
148
148
148
148
148
148
148
148
148
148
148
148
148
147
147
147
147
147
147
147
147
147
147
147
147
147
147
147
147
147
147
147
147
147
147
147
147
147
147
146
146
146
146
146
146
146
146
146
146
146
146
146
145
145
145
144
143
143
142
142
141
141
141
140
140
140
139
139
138
138
137
136
136
136
136
136
136
136
136
136
136
135
135
136
136
136
136
135
135
135
135
136
136
136
136
136
136
137
137
137
137
137
137
137
137
137
137
137
137
137
138
138
138
138
138
138
138
138
138
137
137
137
137
137
137
138
138
138
138
139
139
139
140
140
141
141
142
142
142
143
144
144
144
145
145
145
145
145
145
145
145
145
145
145
145
145
145
145
145
145
145
145
145
145
145
145
145
145
145
145
145
145
145
145
145
145
145
145
145
145
145
144
144
144
143
143
142
142
142
141
141
140
139
138
137
136
135
134
133
133
132
131
131
130
130
129
129
129
128
128
128
128
128
128
128
128
128
128
128
128
128
128
128
128
128
127
127
127
127
126
126
126
126
126
125
125
125
125
125
124
124
124
124
124
124
123
123
122
122
122
121
121
121
121
121
121
120
120
120
120
120
120
120
119
119
119
119
119
119
119
119
119
119
119
119
119
119
119
119
119
118
118
118
119
119
119
120
120
121
122
124
125
126
128
129
131
133
135
138
140
143
146
149
153
157
161
166
171
177
184
191
199
208
217
227
238
249
261
274
287
300
314
328
342
355
368
380
390
400
408
414
418
419
419
417
413
407
398
388
375
361
346
329
311
292
273
254
235
216
198
181
164
149
136
123
112
103
96
89
84
80
78
76
75
76
77
78
79
82
84
87
89
91
94
96
98
101
103
105
107
108
109
110
111
112
113
114
114
115
115
115
115
115
115
115
115
114
114
114
114
113
113
113
112
112
112
112
112
112
112
112
112
112
112
112
113
113
114
114
114
115
115
115
116
116
116
116
116
116
116
116
116
116
117
116
116
116
116
116
116
116
115
115
116
116
115
115
115
115
115
115
115
115
115
115
115
115
115
115
115
115
115
115
116
116
116
116
117
118
118
118
119
120
120
120
121
121
122
122
122
122
122
122
122
122
121
121
121
120
120
120
120
120
120
120
120
120
120
120
121
121
122
123
123
124
125
125
126
127
127
128
128
129
129
130
131
131
132
132
132
133
133
133
134
134
135
135
135
136
136
136
137
137
137
138
138
139
139
139
140
140
140
141
142
142
143
144
145
145
147
147
148
149
149
150
150
151
151
152
152
154
154
155
155
156
156
156
157
158
158
159
160
161
161
162
163
164
165
166
167
168
169
170
171
172
173
174
174
175
176
176
177
177
178
178
178
178
178
178
178
178
178
177
177
177
176
176
176
175
175
175
175
175
174
174
174
174
174
174
174
173
173
173
173
173
172
172
171
170
169
168
167
166
164
163
162
160
158
156
155
153
152
150
148
146
145
143
141
140
138
137
136
135
133
132
131
130
129
127
126
125
124
122
121
120
119
118
116
115
113
112
111
110
108
108
107
105
104
104
102
102
101
100
99
98
98
97
96
95
94
93
92
92
91
91
90
90
89
88
87
87
86
86
85
85
84
84
84
83
83
82
82
81
81
80
80
80
79
80
80
79
79
79
79
79
79
79
80
80
80
80
81
81
81
81
81
81
81
81
81
82
81
81
81
80
80
80
79
79
78
78
78
77
77
76
76
75
75
74
74
74
74
74
74
74
73
73
73
73
74
74
74
74
74
74
74
74
74
74
75
75
75
75
76
76
76
76
76
76
76
76
76
76
76
76
76
76
76
76
76
76
76
76
75
75
75
75
74
74
74
74
74
75
74
74
74
74
74
74
74
74
75
75
75
76
76
76
77
77
77
77
77
77
78
78
78
78
78
78
79
79
79
79
79
79
79
80
80
80
80
80
80
80
80
81
81
81
81
81
81
81
81
81
81
81
81
81
81
80
80
80
80
80
80
80
80
80
80
80
80
80
79
79
79
79
79
79
79
79
79
79
79
79
79
79
79
79
78
78
78
78
78
78
78
78
77
77
77
77
76
76
76
76
76
76
75
75
75
74
74
74
74
75
75
75
75
75
76
76
76
77
77
77
77
77
76
76
76
76
76
76
76
75
75
75
74
74
74
73
73
73
72
72
72
72
71
71
71
71
71
71
71
71
71
70
70
70
70
70
70
70
70
70
70
70
70
70
70
70
70
70
70
70
71
71
71
71
72
72
72
72
72
72
72
72
72
72
72
72
71
71
70
70
69
69
69
69
68
68
69
69
68
68
68
67
67
67
67
68
68
68
68
68
67
67
67
68
68
68
68
68
68
67
67
67
66
66
66
66
66
66
65
65
65
64
64
64
64
63
63
63
63
63
63
63
63
63
63
63
63
63
63
63
63
63
63
63
63
63
63
63
64
64
64
64
63
63
63
63
63
63
63
63
63
63
62
62
62
62
62
62
62
61
61
61
61
61
61
61
61
61
61
61
61
61
61
62
61
61
61
61
61
61
61
61
61
60
60
60
60
60
59
59
59
59
59
59
59
59
59
60
60
60
61
61
61
61
61
61
61
61
61
61
61
60
60
60
59
60
60
59
59
58
58
57
56
56
56
55
55
55
55
55
55
55
55
55
55
55
55
55
55
56
56
56
56
56
56
56
55
55
55
55
55
55
55
55
55
55
55
55
55
55
55
55
55
55
55
56
55
55
55
55
55
55
55
55
55
54
54
53
53
53
53
53
52
52
52
52
52
53
53
54
54
54
54
54
54
55
55
55
55
55
55
55
55
55
55
55
54
54
53
53
54
54
53
53
53
53
53
53
53
52
52
52
52
51
51
50
50
50
49
49
48
48
48
48
47
47
46
46
46
46
45
45
45
45
45
44
44
44
44
44
44
44
44
44
44
43
43
43
43
43
44
44
44
44
44
44
45
45
45
45
45
45
46
46
46
46
46
46
46
46
46
46
46
46
45
45
45
45
45
45
44
44
44
44
44
44
43
43
43
43
43
43
43
43
43
43
43
43
43
42
42
42
42
42
42
42
42
42
42
42
42
42
42
42
43
43
42
42
42
42
42
42
42
42
42
42
42
41
41
42
42
42
42
42
42
42
42
42
42
42
42
42
42
42
42
42
42
42
42
42
42
41
41
41
41
42
42
42
42
42
42
41
41
41
41
41
40
40
40
40
40
40
40
39
39
39
39
39
39
39
39
39
39
39
39
40
40
40
41
41
41
41
41
41
41
41
41
41
41
41
41
41
41
41
41
41
42
42
43
43
43
43
44
44
44
45
45
46
46
47
47
47
47
47
48
47
47
47
46
46
46
46
46
46
46
45
45
44
44
44
43
43
43
43
43
43
43
43
43
43
42
42
42
41
41
40
40
39
39
38
38
37
36
36
35
34
33
33
32
32
31
31
31
30
30
30
30
30
30
30
30
30
30
30
30
30
30
30
29
29
29
28
28
28
28
28
27
27
26
26
25
25
25
25
25
25
25
25
24
24
24
24
24
24
24
25
25
25
25
26
26
26
26
25
25
25
25
25
25
25
25
25
25
25
25
25
24
24
24
23
23
22
22
22
22
22
22
22
22
22
22
22
22
22
23
23
24
24
25
26
28
29
31
33
35
37
39
42
44
47
50
53
56
59
63
67
72
77
83
89
96
104
112
122
131
142
153
164
177
189
203
216
230
244
257
270
282
292
302
310
316
320
323
323
321
317
310
302
291
279
266
250
233
215
196
177
158
139
120
102
85
69
54
40
27
17
7
0
-6
-11
-14
-17
-19
-20
-20
-19
-17
-15
-13
-10
-7
-5
-2
0
2
5
7
9
12
13
15
17
18
19
20
20
21
22
22
23
23
23
23
23
23
23
23
23
22
22
22
22
22
22
23
23
23
23
24
24
24
24
25
25
26
26
26
26
27
27
28
28
28
29
29
29
29
29
29
29
29
30
30
30
30
30
30
30
30
30
30
30
29
30
30
30
29
29
29
29
29
29
29
29
29
29
29
30
30
30
29
29
29
29
29
29
29
29
28
28
28
28
28
28
29
29
29
29
30
30
31
31
31
32
32
33
33
34
34
35
35
35
35
36
36
36
36
36
36
36
37
37
37
37
38
38
38
38
39
39
39
39
40
40
40
40
40
40
40
40
40
40
41
41
41
41
41
41
42
42
43
44
45
46
47
48
49
50
51
53
53
54
55
56
57
58
59
59
61
61
62
62
63
63
64
64
65
66
66
67
68
68
69
70
71
72
72
73
74
75
75
77
77
79
79
80
81
82
82
83
84
84
85
86
87
88
88
89
90
90
90
91
91
92
92
92
92
93
93
93
93
93
94
94
94
95
95
95
96
96
96
97
97
98
98
99
99
99
100
99
99
98
98
98
97
96
95
94
93
92
91
90
89
87
86
85
84
83
82
81
80
79
78
77
77
76
74
73
73
71
70
69
67
66
64
63
62
60
59
57
56
54
53
52
51
50
49
48
47
46
45
44
43
42
41
40
39
38
37
37
36
36
35
34
33
32
31
29
29
28
27
26
25
24
23
22
21
20
19
18
17
17
16
15
14
13
12
12
11
11
10
10
9
9
9
9
8
8
7
7
6
6
6
5
5
4
4
4
3
3
2
2
1
1
1
0
0
0
0
0
0
0
0
0
0
0
0
0
0
0
0
1
1
1
1
1
1
1
1
1
1
1
0
0
0
0
0
0
0
0
0
0
-1
-1
-1
-1
-1
-1
0
0
0
0
1
1
1
2
2
2
2
3
3
3
3
3
3
3
2
2
2
2
2
1
1
0
0
0
0
0
0
0
0
0
0
0
0
0
0
0
0
1
1
1
1
2
2
2
2
3
3
3
3
3
3
4
4
4
5
5
5
5
5
5
5
5
5
5
4
4
4
4
4
4
3
3
3
2
2
2
2
2
2
1
1
1
2
2
2
2
2
2
3
3
3
3
4
4
3
3
3
3
3
3
2
2
2
2
2
2
2
2
2
1
1
1
1
1
1
1
1
1
1
1
0
0
0
0
-1
-1
-2
-2
-3
-3
-3
-4
-4
-4
-4
-4
-4
-4
-4
-4
-4
-4
-4
-4
-4
-4
-4
-3
-3
-3
-3
-3
-3
-3
-3
-3
-3
-4
-4
-4
-4
-4
-5
-5
-5
-5
-5
-5
-6
-6
-7
-7
-8
-8
-9
-9
-9
-10
-10
-10
-10
-10
-10
-10
-10
-10
-10
-10
-9
-9
-9
-9
-9
-9
-9
-9
-9
-9
-9
-9
-9
-10
-10
-10
-11
-11
-12
-12
-12
-12
-12
-12
-13
-13
-13
-13
-12
-12
-12
-12
-12
-11
-11
-12
-12
-12
-13
-13
-13
-13
-13
-14
-14
-14
-15
-15
-15
-16
-17
-17
-17
-18
-18
-18
-18
-18
-17
-17
-17
-17
-16
-16
-16
-16
-16
-16
-15
-15
-15
-15
-15
-15
-15
-15
-15
-15
-14
-14
-14
-14
-14
-14
-14
-14
-14
-14
-15
-14
-14
-14
-14
-14
-14
-14
-15
-15
-16
-16
-16
-17
-17
-17
-17
-18
-18
-18
-18
-18
-18
-18
-19
-19
-19
-19
-20
-20
-20
-21
-21
-21
-22
-22
-23
-24
-24
-25
-25
-26
-26
-27
-27
-27
-27
-27
-27
-27
-27
-27
-26
-26
-26
-25
-25
-24
-24
-24
-24
-23
-23
-23
-22
-22
-22
-22
-22
-22
-22
-22
-22
-22
-22
-22
-22
-23
-23
-23
-23
-23
-23
-24
-23
-24
-24
-24
-24
-25
-25
-25
-26
-26
-26
-27
-27
-27
-28
-28
-28
-29
-29
-29
-29
-30
-30
-30
-30
-30
-31
-31
-31
-31
-32
-32
-32
-33
-33
-33
-33
-33
-34
-34
-34
-34
-34
-34
-34
-34
-34
-35
-35
-35
-35
-35
-35
-35
-35
-35
-35
-35
-35
-35
-35
-35
-35
-35
-35
-35
-35
-35
-35
-36
-36
-36
-36
-36
-36
-35
-35
-36
-36
-36
-36
-36
-36
-36
-36
-36
-36
-35
-35
-35
-35
-35
-35
-35
-35
-35
-35
-35
-35
-35
-35
-35
-36
-36
-37
-37
-37
-38
-38
-39
-39
-39
-40
-40
-40
-40
-40
-40
-40
-39
-39
-39
-38
-38
-37
-37
-36
-36
-36
-36
-36
-36
-36
-36
-36
-37
-37
-37
-38
-39
-39
-39
-40
-41
-42
-42
-43
-43
-43
-43
-43
-43
-43
-43
-43
-43
-43
-43
-43
-42
-42
-42
-41
-41
-41
-41
-41
-40
-40
-40
-40
-40
-40
-40
-40
-39
-39
-39
-39
-38
-38
-38
-38
-38
-38
-38
-38
-37
-37
-37
-38
-38
-38
-38
-39
-39
-38
-38
-38
-38
-39
-39
-39
-39
-39
-39
-39
-39
-38
-38
-38
-37
-36
-36
-35
-34
-34
-33
-33
-32
-32
-32
-32
-32
-31
-31
-31
-31
-31
-31
-32
-32
-32
-33
-33
-32
-32
-32
-32
-31
-31
-31
-31
-31
-30
-30
-30
-30
-29
-29
-29
-29
-29
-29
-30
-30
-31
-31
-32
-32
-33
-34
-35
-36
-36
-37
-39
-39
-40
-40
-41
-42
-42
-43
-43
-44
-44
-45
-45
-46
-46
-46
-46
-47
-46
-47
-47
-47
-47
-47
-47
-47
-46
-47
-46
-46
-46
-46
-46
-47
-47
-47
-47
-47
-47
-48
-48
-48
-48
-48
-48
-48
-48
-48
-48
-48
-47
-47
-47
-47
-46
-46
-46
-46
-45
-45
-45
-45
-45
-45
-46
-46
-46
-46
-47
-47
-48
-48
-48
-48
-49
-49
-49
-49
-49
-48
-48
-48
-48
-48
-48
-48
-48
-48
-48
-48
-48
-48
-48
-48
-48
-47
-47
-47
-46
-45
-44
-42
-41
-39
-38
-36
-34
-31
-28
-24
-21
-17
-12
-7
-1
5
11
19
27
36
45
55
65
76
88
100
113
126
139
153
167
180
192
204
214
222
230
235
239
241
241
238
234
227
218
208
195
181
166
150
132
115
97
78
60
42
25
9
-6
-20
-33
-44
-54
-62
-69
-74
-78
-81
-83
-85
-86
-86
-85
-84
-83
-81
-79
-77
-75
-73
-70
-68
-65
-64
-62
-60
-58
-57
-55
-53
-52
-51
-50
-49
-48
-47
-46
-45
-44
-44
-43
-43
-42
-42
-42
-41
-41
-41
-41
-41
-42
-42
-42
-42
-43
-43
-43
-43
-44
-44
-44
-45
-45
-45
-45
-45
-45
-45
-44
-44
-44
-44
-44
-44
-43
-43
-42
-42
-41
-40
-40
-39
-39
-38
-37
-37
-36
-35
-35
-34
-34
-34
-34
-34
-34
-34
-35
-35
-35
-35
-35
-36
-36
-36
-36
-37
-37
-37
-37
-38
-38
-37
-37
-36
-36
-36
-36
-35
-35
-35
-34
-34
-33
-33
-33
-33
-33
-32
-32
-32
-31
-31
-30
-29
-29
-28
-28
-28
-28
-27
-27
-27
-27
-26
-26
-26
-26
-26
-26
-25
-26
-26
-26
-26
-26
-26
-26
-26
-25
-25
-24
-23
-23
-23
-22
-22
-22
-21
-20
-20
-19
-18
-18
-17
-16
-16
-15
-15
-14
-14
-13
-13
-12
-11
-11
-10
-9
-9
-8
-8
-7
-6
-6
-5
-4
-2
-1
-1
0
1
2
3
4
5
6
7
8
9
10
11
12
13
13
14
14
15
16
16
16
17
17
18
18
19
19
20
21
21
22
22
23
24
25
25
26
27
28
29
30
31
32
33
34
35
35
36
36
36
37
37
38
38
38
38
38
38
38
38
38
38
38
37
37
37
36
36
35
35
34
34
33
33
32
32
31
31
29
29
27
27
26
26
25
24
24
23
22
21
21
19
18
18
16
16
15
14
13
12
11
10
9
8
7
6
4
3
1
1
0
-1
-2
-3
-5
-6
-6
-8
-9
-10
-11
-12
-13
-14
-15
-17
-17
-19
-20
-21
-21
-22
-23
-24
-24
-25
-26
-27
-27
-28
-29
-29
-29
-30
-30
-31
-31
-32
-32
-33
-33
-33
-33
-34
-34
-34
-35
-35
-36
-36
-37
-38
-38
-38
-38
-39
-39
-40
-40
-40
-41
-41
-42
-42
-42
-42
-42
-42
-42
-43
-42
-42
-42
-42
-42
-42
-42
-42
-42
-42
-42
-42
-42
-42
-42
-42
-42
-42
-42
-42
-42
-42
-42
-43
-43
-43
-43
-43
-43
-43
-42
-42
-42
-41
-40
-40
-40
-39
-38
-38
-38
-37
-37
-37
-37
-37
-36
-36
-36
-36
-36
-37
-37
-37
-37
-38
-38
-38
-39
-39
-39
-39
-39
-39
-39
-39
-39
-39
-38
-38
-38
-38
-38
-38
-37
-37
-36
-36
-35
-35
-34
-34
-33
-33
-32
-32
-32
-31
-31
-30
-30
-30
-31
-31
-31
-31
-31
-32
-32
-32
-32
-33
-33
-33
-33
-33
-33
-33
-33
-34
-33
-33
-34
-34
-34
-34
-34
-34
-34
-34
-34
-34
-34
-34
-34
-34
-34
-34
-33
-33
-33
-33
-32
-32
-32
-31
-31
-31
-31
-31
-31
-31
-31
-31
-31
-31
-31
-31
-32
-31
-31
-31
-31
-31
-31
-31
-31
-31
-30
-30
-30
-29
-29
-28
-28
-28
-28
-27
-27
-27
-27
-27
-27
-27
-27
-28
-28
-28
-29
-29
-30
-30
-31
-31
-32
-32
-32
-32
-32
-33
-33
-33
-33
-33
-33
-33
-33
-32
-32
-32
-31
-31
-31
-31
-30
-30
-30
-30
-29
-29
-29
-29
-29
-30
-30
-30
-30
-30
-30
-30
-30
-30
-30
-30
-30
-30
-31
-31
-31
-31
-31
-31
-31
-31
-31
-32
-32
-33
-33
-33
-33
-33
-34
-34
-34
-34
-34
-34
-33
-33
-33
-33
-32
-32
-32
-31
-31
-30
-30
-29
-29
-29
-29
-28
-28
-28
-28
-28
-28
-28
-29
-29
-29
-29
-29
-29
-29
-29
-29
-30
-30
-30
-30
-31
-31
-31
-30
-30
-31
-31
-31
-31
-31
-31
-31
-31
-31
-31
-30
-30
-30
-30
-30
-30
-30
-30
-30
-30
-31
-31
-31
-31
-31
-31
-31
-32
-32
-32
-33
-33
-33
-33
-33
-34
-33
-33
-33
-33
-33
-33
-33
-33
-33
-33
-33
-33
-33
-32
-33
-33
-33
-33
-33
-33
-33
-33
-33
-32
-32
-32
-32
-32
-32
-32
-32
-31
-31
-31
-31
-31
-31
-31
-31
-31
-31
-31
-31
-31
-31
-32
-32
-32
-33
-33
-34
-34
-34
-35
-35
-35
-36
-36
-36
-36
-37
-37
-37
-37
-37
-37
-37
-37
-37
-37
-37
-37
-37
-37
-37
-37
-37
-37
-37
-37
-37
-37
-37
-37
-37
-37
-36
-36
-35
-35
-35
-34
-33
-32
-32
-32
-31
-30
-30
-29
-28
-27
-26
-26
-25
-25
-25
-24
-24
-24
-24
-24
-24
-24
-24
-24
-24
-24
-24
-24
-25
-25
-25
-26
-26
-26
-26
-26
-26
-26
-26
-27
-27
-27
-27
-27
-27
-26
-26
-26
-26
-26
-26
-25
-25
-25
-25
-25
-25
-25
-25
-25
-25
-25
-26
-26
-27
-27
-28
-28
-29
-30
-30
-31
-32
-33
-35
-36
-36
-37
-38
-39
-39
-41
-42
-43
-43
-44
-45
-46
-46
-47
-47
-47
-48
-48
-48
-48
-48
-48
-48
-48
-48
-48
-48
-48
-48
-48
-48
-47
-47
-47
-47
-47
-47
-47
-47
-46
-46
-46
-46
-45
-45
-45
-45
-44
-44
-44
-44
-44
-44
-44
-44
-44
-44
-44
-44
-44
-45
-45
-45
-46
-46
-46
-47
-47
-47
-47
-47
-46
-47
-47
-47
-47
-47
-47
-47
-47
-47
-47
-46
-46
-45
-44
-43
-43
-42
-40
-39
-37
-36
-34
-32
-29
-27
-24
-21
-17
-13
-8
-4
1
8
14
21
29
38
47
57
67
78
90
102
114
127
140
154
167
180
192
203
214
223
229
235
238
240
239
237
232
225
217
206
194
180
165
149
131
114
96
78
60
42
25
10
-5
-19
-32
-43
-52
-60
-67
-73
-77
-81
-83
-85
-85
-86
-85
-85
-84
-82
-81
-79
-77
-75
-72
-70
-68
-66
-64
-62
-61
-59
-58
-56
-55
-54
-53
-53
-52
-51
-51
-51
-50
-50
-50
-51
-51
-51
-51
-51
-52
-52
-52
-53
-53
-54
-54
-54
-54
-54
-54
-55
-55
-55
-55
-54
-54
-54
-54
-54
-54
-53
-53
-52
-52
-52
-51
-51
-51
-50
-50
-50
-49
-48
-48
-48
-48
-48
-48
-48
-48
-48
-48
-48
-48
-49
-49
-49
-49
-49
-49
-49
-49
-49
-49
-49
-49
-48
-48
-48
-48
-48
-47
-47
-47
-48
-48
-48
-49
-49
-49
-49
-49
-49
-50
-50
-50
-50
-50
-50
-50
-50
-50
-50
-49
-49
-49
-48
-48
-47
-47
-46
-46
-46
-46
-45
-45
-45
-44
-44
-44
-44
-44
-43
-43
-43
-44
-43
-43
-43
-43
-43
-42
-42
-41
-41
-41
-41
-40
-40
-40
-39
-39
-39
-39
-39
-38
-38
-37
-37
-36
-35
-35
-35
-34
-34
-34
-33
-33
-32
-32
-32
-31
-31
-31
-31
-31
-31
-31
-31
-31
-31
-31
-30
-30
-30
-29
-29
-28
-28
-27
-26
-26
-24
-23
-23
-22
-21
-20
-18
-18
-16
-16
-15
-14
-13
-12
-12
-11
-11
-11
-10
-10
-9
-9
-8
-7
-7
-7
-6
-5
-5
-5
-4
-4
-3
-3
-3
-2
-2
-1
-1
0
0
0
0
0
0
0
-1
-1
-1
-1
-2
-2
-2
-2
-3
-3
-3
-4
-4
-4
-5
-5
-5
-5
-6
-6
-7
-8
-8
-9
-10
-10
-11
-12
-14
-14
-16
-17
-19
-21
-22
-24
-26
-27
-29
-30
-32
-34
-36
-37
-39
-41
-42
-44
-45
-46
-48
-49
-50
-52
-53
-54
-56
-56
-58
-59
-61
-62
-63
-64
-66
-67
-68
-69
-70
-71
-73
-74
-75
-76
-77
-78
-79
-80
-81
-82
-82
-83
-84
-85
-86
-86
-87
-87
-88
-89
-90
-90
-91
-91
-92
-93
-93
-93
-94
-94
-95
-95
-96
-96
-97
-97
-98
-98
-99
-99
-100
-100
-100
-101
-102
-103
-103
-103
-104
-104
-104
-104
-105
-105
-105
-106
-106
-107
-107
-107
-107
-107
-107
-107
-107
-107
-107
-108
-108
-108
-108
-109
-109
-109
-109
-109
-109
-110
-110
-111
-111
-112
-112
-113
-113
-113
-114
-114
-114
-115
-115
-115
-115
-116
-116
-116
-116
-116
-115
-115
-115
-115
-115
-115
-115
-115
-115
-115
-115
-115
-115
-115
-116
-116
-116
-116
-116
-116
-117
-117
-117
-117
-118
-118
-117
-117
-117
-117
-117
-117
-117
-117
-117
-117
-117
-117
-117
-117
-117
-118
-118
-118
-118
-118
-118
-118
-118
-118
-119
-119
-119
-120
-120
-120
-120
-120
-120
-120
-120
-120
-120
-120
-120
-120
-119
-119
-119
-119
-119
-118
-118
-118
-117
-117
-118
-118
-118
-117
-117
-118
-118
-118
-118
-119
-119
-119
-120
-120
-121
-121
-122
-122
-123
-123
-123
-123
-124
-124
-124
-125
-126
-126
-126
-126
-127
-127
-128
-128
-128
-129
-129
-129
-130
-130
-130
-130
-130
-130
-130
-130
-130
-130
-130
-130
-131
-131
-131
-131
-131
-132
-132
-131
-132
-132
-132
-133
-133
-133
-133
-134
-134
-134
-134
-134
-135
-135
-135
-135
-135
-135
-136
-136
-136
-136
-137
-137
-137
-137
-137
-137
-138
-138
-138
-138
-139
-139
-139
-139
-140
-140
-140
-141
-141
-141
-141
-141
-142
-142
-142
-142
-143
-143
-144
-145
-145
-146
-146
-147
-147
-148
-148
-148
-148
-149
-149
-149
-149
-149
-149
-149
-150
-150
-150
-151
-151
-151
-151
-151
-152
-152
-153
-153
-153
-154
-154
-154
-155
-155
-156
-157
-157
-158
-158
-158
-158
-158
-159
-159
-159
-158
-159
-159
-159
-159
-159
-158
-158
-158
-158
-158
-158
-157
-157
-157
-157
-157
-157
-158
-158
-158
-159
-159
-160
-160
-161
-162
-162
-163
-164
-164
-165
-165
-166
-166
-166
-166
-166
-167
-168
-168
-168
-169
-169
-169
-169
-169
-169
-169
-170
-170
-170
-171
-171
-172
-172
-172
-172
-172
-173
-173
-173
-173
-173
-172
-172
-172
-172
-171
-171
-171
-171
-170
-170
-169
-168
-168
-167
-167
-166
-166
-165
-165
-164
-164
-164
-163
-163
-163
-163
-162
-162
-162
-162
-162
-162
-162
-162
-162
-162
-162
-162
-162
-162
-162
-162
-162
-162
-162
-162
-162
-162
-162
-162
-162
-162
-162
-162
-162
-162
-163
-163
-163
-163
-164
-164
-164
-165
-165
-165
-166
-166
-166
-167
-168
-168
-169
-170
-171
-172
-174
-175
-176
-177
-178
-179
-181
-182
-183
-184
-185
-186
-186
-187
-188
-188
-189
-189
-189
-190
-190
-190
-191
-191
-191
-191
-192
-192
-193
-193
-194
-194
-195
-195
-196
-196
-196
-196
-196
-196
-197
-197
-197
-197
-198
-198
-198
-197
-197
-197
-197
-197
-197
-197
-197
-197
-197
-197
-197
-197
-197
-197
-197
-197
-198
-198
-198
-199
-199
-199
-200
-200
-201
-202
-202
-202
-203
-203
-203
-204
-204
-205
-206
-206
-206
-206
-206
-206
-206
-205
-205
-205
-204
-204
-203
-202
-201
-199
-197
-196
-194
-192
-190
-187
-185
-182
-179
-175
-171
-167
-162
-157
-150
-144
-137
-129
-121
-112
-102
-92
-81
-70
-58
-45
-32
-19
-6
8
21
34
46
57
67
75
82
87
90
91
89
86
80
73
63
52
39
24
8
-9
-28
-47
-66
-86
-104
-123
-140
-157
-172
-187
-200
-211
-221
-230
-237
-242
-246
-249
-251
-253
-253
-253
-252
-251
-249
-247
-244
-242
-240
-237
-236
-233
-231
-229
-227
-225
-224
-223
-221
-221
-220
-219
-218
-217
-217
-216
-215
-215
-214
-214
-214
-213
-213
-212
-212
-212
-212
-212
-212
-212
-211
-211
-211
-211
-211
-211
-211
-210
-210
-211
-211
-211
-211
-211
-211
-211
-212
-212
-212
-212
-212
-212
-213
-213
-213
-214
-214
-214
-214
-214
-214
-214
-214
-214
-214
-214
-214
-214
-214
-213
-213
-213
-213
-213
-212
-212
-212
-212
-212
-212
-212
-212
-212
-212
-212
-212
-212
-213
-213
-212
-212
-212
-212
-211
-211
-211
-210
-210
-210
-210
-210
-210
-209
-209
-209
-209
-208
-208
-207
-207
-207
-206
-206
-206
-206
-206
-206
-206
-206
-206
-206
-205
-205
-205
-205
-204
-204
-204
-204
-203
-203
-202
-202
-202
-202
-201
-201
-200
-200
-199
-198
-197
-196
-196
-195
-195
-194
-193
-193
-192
-191
-191
-191
-190
-189
-189
-189
-188
-188
-188
-188
-188
-188
-188
-188
-187
-188
-187
-187
-187
-187
-187
-186
-186
-185
-184
-183
-183
-182
-181
-180
-179
-178
-177
-175
-174
-173
-171
-170
-169
-168
-166
-165
-164
-162
-161
-159
-158
-158
-157
-156
-155
-154
-153
-152
-152
-151
-150
-150
-149
-149
-148
-148
-147
-147
-146
-146
-146
-145
-145
-144
-144
-143
-142
-141
-141
-140
-140
-140
-139
-139
-139
-138
-138
-137
-137
-137
-137
-137
-137
-138
-138
-138
-139
-139
-139
-140
-141
-142
-143
-144
-144
-146
-146
-147
-148
-149
-150
-151
-152
-153
-154
-156
-157
-158
-159
-161
-162
-163
-166
-167
-169
-171
-173
-175
-176
-178
-179
-181
-182
-184
-185
-187
-188
-189
-191
-192
-193
-194
-194
-195
-196
-196
-197
-198
-199
-200
-201
-202
-203
-204
-205
-205
-207
-208
-209
-210
-212
-213
-214
-215
-217
-217
-219
-220
-220
-222
-223
-224
-225
-225
-226
-227
-227
-228
-228
-229
-230
-231
-231
-231
-232
-232
-233
-233
-233
-234
-234
-235
-235
-235
-235
-236
-236
-236
-236
-236
-237
-236
-236
-237
-237
-237
-237
-237
-237
-237
-237
-237
-237
-236
-236
-236
-236
-236
-236
-236
-235
-235
-235
-235
-234
-234
-234
-234
-234
-234
-234
-234
-234
-234
-234
-234
-234
-235
-235
-234
-234
-235
-235
-236
-236
-236
-236
-237
-237
-237
-237
-238
-238
-238
-238
-238
-239
-239
-239
-239
-240
-240
-239
-239
-239
-239
-239
-239
-239
-238
-238
-238
-238
-238
-238
-237
-237
-237
-236
-236
-236
-235
-235
-235
-235
-235
-235
-235
-235
-235
-234
-234
-234
-234
-234
-234
-234
-233
-233
-233
-232
-232
-232
-232
-232
-232
-232
-232
-231
-231
-231
-231
-231
-231
-231
-231
-231
-231
-231
-230
-230
-230
-230
-230
-230
-230
-229
-229
-228
-228
-227
-227
-226
-225
-225
-225
-224
-224
-224
-223
-223
-223
-223
-222
-222
-223
-223
-223
-224
-224
-224
-224
-224
-225
-225
-226
-226
-226
-227
-227
-227
-227
-227
-228
-228
-228
-228
-227
-227
-227
-226
-226
-225
-225
-224
-224
-224
-223
-223
-223
-222
-222
-221
-221
-221
-221
-221
-221
-222
-222
-222
-223
-224
-224
-224
-225
-225
-226
-226
-227
-227
-228
-228
-228
-229
-229
-229
-229
-229
-229
-228
-228
-228
-228
-228
-228
-228
-227
-227
-227
-227
-227
-226
-226
-226
-226
-225
-225
-225
-225
-225
-225
-225
-224
-224
-224
-224
-224
-223
-223
-223
-223
-223
-223
-223
-223
-223
-223
-224
-224
-224
-224
-224
-224
-225
-225
-225
-225
-225
-225
-226
-226
-226
-225
-225
-224
-224
-224
-224
-223
-223
-222
-222
-222
-222
-222
-221
-221
-221
-221
-221
-221
-221
-221
-221
-221
-221
-221
-221
-221
-220
-220
-220
-221
-221
-220
-220
-220
-220
-220
-220
-220
-221
-221
-221
-221
-221
-221
-221
-222
-222
-223
-223
-223
-223
-223
-224
-223
-223
-223
-223
-223
-223
-223
-223
-222
-221
-221
-221
-221
-220
-219
-219
-219
-218
-218
-218
-218
-217
-217
-217
-217
-217
-217
-217
-217
-217
-217
-217
-218
-218
-218
-218
-218
-218
-218
-218
-218
-217
-217
-217
-216
-216
-216
-215
-215
-215
-215
-215
-215
-214
-214
-214
-215
-215
-216
-216
-216
-216
-217
-218
-218
-219
-219
-219
-220
-220
-220
-220
-220
-220
-220
-220
-220
-219
-219
-218
-218
-218
-217
-217
-217
-216
-216
-216
-216
-216
-216
-216
-216
-216
-216
-216
-216
-216
-216
-217
-217
-217
-217
-217
-217
-217
-217
-217
-217
-217
-217
-217
-216
-216
-216
-216
-215
-215
-215
-214
-214
-213
-213
-213
-213
-213
-212
-212
-212
-212
-212
-212
-212
-213
-213
-213
-214
-214
-215
-215
-215
-216
-216
-216
-216
-217
-217
-217
-217
-217
-218
-217
-217
-217
-216
-216
-216
-215
-215
-215
-214
-214
-214
-213
-212
-212
-212
-212
-212
-212
-212
-212
-212
-212
-212
-212
-212
-213
-213
-213
-214
-214
-214
-215
-215
-215
-215
-215
-215
-216
-216
-216
-216
-216
-216
-216
-216
-216
-216
-215
-215
-215
-215
-215
-214
-214
-214
-214
-214
-214
-214
-214
-214
-214
-214
-213
-213
-213
-213
-213
-213
-213
-213
-212
-212
-212
-212
-211
-211
-211
-210
-210
-209
-209
-209
-208
-207
-207
-206
-206
-206
-205
-205
-204
-203
-202
-202
-202
-201
-201
-201
-201
-201
-200
-200
-200
-200
-199
-199
-199
-199
-199
-199
-199
-199
-199
-199
-199
-199
-199
-198
-198
-198
-198
-197
-197
-197
-197
-197
-197
-197
-197
-197
-197
-198
-198
-198
-198
-199
-199
-200
-200
-201
-202
-202
-202
-203
-204
-204
-205
-205
-206
-206
-207
-208
-208
-209
-209
-209
-210
-210
-211
-211
-212
-212
-212
-213
-212
-213
-213
-213
-213
-214
-214
-214
-214
-214
-214
-214
-214
-214
-214
-214
-213
-213
-213
-212
-212
-211
-211
-210
-210
-210
-209
-209
-209
-208
-208
-208
-208
-208
-208
-208
-208
-208
-208
-209
-209
-210
-210
-211
-211
-211
-211
-211
-211
-211
-210
-210
-210
-210
-210
-210
-210
-209
-209
-208
-208
-207
-207
-207
-207
-206
-206
-206
-205
-205
-204
-204
-204
-203
-202
-201
-200
-199
-198
-197
-195
-193
-191
-189
-187
-184
-181
-178
-175
-171
-167
-163
-158
-152
-146
-139
-132
-124
-115
-106
-96
-85
-74
-63
-50
-38
-24
-11
2
16
30
43
55
66
75
84
90
95
98
99
98
95
89
82
73
61
48
33
17
0
-18
-36
-55
-74
-92
-111
-128
-145
-160
-175
-188
-199
-208
-217
-224
-229
-233
-236
-239
-239
-240
-239
-238
-236
-233
-231
-228
-225
-222
-219
-217
-214
-211
-208
-207
-204
-202
-200
-199
-198
-197
-196
-195
-194
-194
-193
-192
-191
-191
-191
-191
-191
-190
-190
-190
-190
-190
-189
-189
-189
-189
-189
-188
-188
-188
-187
-187
-186
-186
-186
-185
-185
-185
-185
-185
-185
-184
-184
-184
-183
-183
-182
-182
-182
-182
-181
-181
-180
-180
-179
-179
-178
-178
-177
-177
-176
-176
-176
-175
-175
-174
-174
-174
-174
-174
-175
-175
-174
-174
-175
-175
-175
-175
-176
-176
-176
-176
-176
-175
-175
-175
-175
-174
-174
-173
-173
-172
-172
-172
-171
-171
-170
-170
-170
-169
-169
-169
-169
-168
-168
-168
-168
-168
-168
-168
-168
-167
-167
-167
-166
-166
-165
-164
-163
-163
-162
-161
-160
-160
-159
-158
-157
-156
-155
-155
-154
-153
-153
-152
-152
-151
-151
-151
-150
-150
-150
-149
-149
-149
-148
-148
-147
-147
-147
-146
-145
-145
-144
-143
-142
-141
-140
-139
-138
-137
-136
-135
-134
-134
-133
-132
-132
-131
-131
-130
-129
-129
-128
-128
-128
-127
-127
-126
-125
-125
-124
-123
-122
-121
-120
-119
-118
-116
-115
-114
-113
-111
-110
-109
-108
-106
-105
-104
-103
-102
-101
-100
-99
-98
-97
-96
-95
-95
-93
-92
-91
-90
-89
-89
-88
-87
-86
-86
-85
-85
-84
-84
-83
-82
-82
-82
-81
-80
-80
-80
-80
-80
-79
-79
-79
-78
-78
-78
-78
-77
-77
-77
-77
-77
-77
-78
-79
-79
-80
-80
-81
-82
-82
-83
-84
-85
-86
-88
-89
-91
-92
-94
-95
-96
-98
-99
-101
-101
-103
-104
-105
-106
-107
-108
-110
-110
-112
-113
-114
-115
-116
-117
-118
-120
-121
-122
-123
-124
-125
-126
-127
-128
-130
-131
-132
-133
-134
-135
-136
-136
-137
-138
-139
-140
-140
-142
-142
-143
-143
-144
-145
-145
-146
-147
-148
-148
-149
-149
-150
-150
-151
-151
-151
-152
-152
-153
-154
-154
-154
-155
-155
-155
-155
-156
-156
-156
-156
-156
-156
-157
-157
-157
-157
-157
-157
-158
-158
-158
-159
-159
-159
-159
-159
-159
-159
-159
-159
-159
-159
-159
-159
-160
-159
-159
-159
-159
-159
-159
-159
-159
-159
-159
-158
-158
-158
-157
-157
-157
-156
-156
-155
-155
-154
-154
-154
-153
-154
-154
-154
-154
-154
-155
-155
-156
-156
-156
-156
-156
-157
-157
-157
-157
-157
-157
-157
-156
-156
-156
-155
-155
-154
-153
-153
-152
-152
-151
-150
-150
-150
-149
-149
-149
-148
-148
-148
-148
-147
-147
-147
-146
-146
-146
-145
-145
-145
-145
-144
-144
-144
-144
-143
-143
-143
-143
-143
-143
-143
-143
-142
-142
-142
-142
-142
-142
-142
-143
-143
-143
-143
-143
-143
-143
-143
-143
-143
-143
-142
-143
-143
-142
-142
-142
-142
-142
-142
-141
-141
-141
-141
-141
-141
-141
-140
-140
-140
-140
-140
-139
-139
-139
-139
-138
-138
-137
-137
-136
-136
-136
-135
-135
-134
-134
-133
-133
-133
-132
-132
-132
-132
-132
-133
-133
-134
-134
-135
-135
-135
-135
-136
-136
-137
-137
-137
-138
-138
-138
-139
-139
-139
-139
-139
-139
-139
-139
-139
-138
-138
-138
-139
-138
-138
-138
-138
-137
-137
-136
-136
-136
-135
-135
-135
-135
-134
-134
-134
-133
-133
-133
-133
-134
-134
-134
-135
-135
-135
-135
-135
-135
-136
-136
-136
-136
-135
-135
-135
-135
-135
-135
-135
-135
-135
-135
-135
-135
-135
-135
-135
-136
-136
-136
-137
-137
-137
-138
-138
-138
-139
-139
-139
-139
-139
-139
-139
-139
-139
-138
-138
-138
-138
-137
-137
-137
-136
-136
-135
-135
-135
-134
-134
-133
-133
-133
-133
-133
-133
-133
-133
-132
-132
-132
-132
-132
-132
-132
-132
-132
-132
-132
-133
-133
-133
-133
-132
-132
-132
-132
-133
-133
-133
-133
-133
-134
-134
-134
-134
-134
-134
-134
-133
-133
-133
-133
-133
-132
-132
-132
-131
-131
-131
-130
-130
-129
-129
-129
-128
-128
-128
-128
-128
-127
-127
-127
-127
-127
-127
-128
-128
-128
-128
-128
-129
-129
-129
-130
-130
-130
-130
-130
-131
-130
-130
-130
-130
-130
-130
-129
-129
-128
-128
-128
-127
-127
-127
-127
-127
-127
-127
-127
-127
-126
-126
-126
-127
-127
-126
-127
-127
-127
-127
-127
-127
-127
-126
-126
-126
-125
-125
-124
-124
-124
-124
-124
-124
-124
-123
-123
-123
-123
-123
-124
-124
-124
-124
-124
-125
-125
-125
-125
-125
-125
-125
-125
-125
-125
-125
-125
-124
-124
-124
-124
-124
-124
-124
-124
-125
-125
-125
-125
-125
-125
-125
-125
-126
-126
-126
-126
-126
-126
-126
-126
-126
-126
-126
-126
-125
-125
-125
-125
-124
-124
-124
-123
-123
-124
-124
-124
-124
-124
-123
-123
-122
-122
-122
-122
-122
-122
-122
-122
-122
-122
-122
-122
-122
-122
-122
-122
-123
-123
-123
-123
-123
-123
-124
-124
-124
-124
-123
-124
-124
-124
-124
-123
-123
-123
-123
-122
-122
-122
-122
-122
-122
-122
-122
-122
-123
-123
-122
-123
-123
-123
-122
-122
-122
-122
-122
-122
-122
-122
-123
-122
-122
-122
-122
-122
-122
-122
-122
-123
-123
-123
-123
-123
-123
-123
-123
-123
-123
-123
-123
-122
-122
-121
-121
-121
-121
-120
-120
-120
-120
-120
-119
-119
-119
-118
-118
-118
-118
-118
-118
-117
-117
-117
-116
-116
-115
-115
-114
-113
-113
-112
-111
-110
-110
-109
-108
-108
-107
-107
-107
-107
-107
-106
-106
-106
-106
-107
-107
-107
-107
-107
-107
-107
-108
-108
-107
-107
-107
-108
-108
-108
-108
-108
-107
-107
-107
-106
-106
-106
-106
-106
-105
-105
-106
-106
-106
-107
-107
-107
-108
-108
-109
-109
-110
-110
-111
-111
-112
-112
-113
-114
-114
-114
-115
-115
-114
-115
-115
-115
-115
-115
-114
-115
-115
-114
-114
-114
-114
-114
-114
-114
-113
-113
-113
-113
-113
-112
-112
-112
-112
-111
-111
-112
-112
-111
-111
-110
-110
-110
-110
-110
-110
-110
-110
-110
-110
-110
-111
-110
-110
-110
-110
-111
-110
-111
-111
-112
-112
-112
-112
-113
-113
-113
-113
-113
-113
-113
-113
-113
-113
-113
-113
-113
-112
-112
-111
-111
-111
-110
-110
-109
-109
-109
-108
-108
-107
-106
-104
-103
-102
-100
-98
-97
-95
-92
-90
-88
-85
-82
-78
-74
-70
-65
-61
-55
-49
-42
-34
-26
-16
-6
4
15
27
39
51
65
78
93
106
120
133
146
157
167
176
183
188
191
192
191
188
183
175
166
154
141
126
110
94
76
57
38
20
1
-16
-33
-49
-64
-78
-90
-101
-110
-119
-125
-130
-134
-137
-139
-140
-140
-140
-138
-137
-135
-133
-131
-128
-126
-124
-122
-120
-118
-116
-115
-114
-113
-112
-110
-110
-109
-108
-108
-108
-107
-107
-106
-106
-106
-106
-105
-105
-104
-104
-104
-103
-103
-102
-102
-102
-102
-102
-102
-101
-101
-101
-100
-100
-100
-100
-100
-100
-99
-99
-98
-98
-98
-97
-97
-97
-97
-96
-96
-96
-95
-95
-95
-95
-95
-95
-95
-95
-95
-95
-95
-95
-95
-95
-95
-95
-95
-94
-94
-94
-94
-94
-94
-93
-93
-93
-93
-93
-92
-92
-92
-91
-91
-90
-90
-89
-88
-88
-87
-86
-86
-85
-85
-85
-85
-85
-85
-84
-84
-84
-83
-83
-83
-83
-83
-83
-83
-83
-83
-83
-83
-83
-82
-82
-81
-81
-81
-81
-80
-80
-80
-80
-79
-79
-79
-78
-78
-77
-77
-77
-76
-76
-75
-74
-74
-73
-72
-71
-71
-70
-70
-69
-69
-69
-68
-68
-68
-67
-67
-67
-67
-66
-67
-67
-66
-66
-66
-66
-65
-65
-64
-63
-63
-62
-61
-60
-59
-58
-57
-57
-56
-55
-54
-53
-52
-51
-50
-49
-49
-48
-48
-47
-47
-46
-46
-46
-46
-45
-44
-44
-43
-42
-41
-41
-39
-39
-38
-37
-36
-35
-34
-32
-31
-30
-28
-27
-25
-24
-23
-22
-21
-20
-18
-17
-17
-16
-14
-13
-12
-11
-10
-9
-9
-8
-7
-7
-6
-6
-5
-5
-4
-4
-4
-3
-3
-3
-4
-4
-4
-3
-4
-4
-4
-4
-5
-6
-6
-7
-7
-7
-8
-8
-9
-9
-10
-11
-12
-12
-14
-14
-16
-16
-18
-19
-20
-21
-22
-23
-25
-26
-27
-29
-30
-32
-34
-35
-37
-38
-39
-41
-42
-44
-45
-47
-48
-49
-51
-52
-53
-54
-55
-55
-56
-57
-58
-58
-59
-60
-61
-61
-62
-63
-64
-65
-65
-66
-67
-67
-69
-69
-70
-71
-72
-73
-74
-75
-76
-76
-77
-78
-79
-79
-80
-81
-81
-81
-81
-81
-82
-82
-82
-82
-82
-82
-82
-83
-82
-82
-82
-82
-83
-82
-82
-82
-83
-83
-83
-84
-84
-84
-84
-85
-85
-86
-86
-87
-87
-87
-87
-87
-87
-87
-87
-87
-87
-87
-87
-87
-87
-87
-87
-87
-87
-87
-87
-87
-87
-87
-87
-87
-87
-88
-88
-88
-88
-88
-88
-88
-87
-87
-87
-87
-87
-87
-87
-87
-86
-86
-86
-86
-86
-86
-87
-87
-87
-87
-87
-87
-88
-88
-88
-88
-88
-88
-88
-88
-88
-88
-88
-89
-88
-88
-88
-88
-88
-88
-88
-87
-88
-88
-88
-88
-88
-88
-89
-89
-89
-89
-89
-89
-89
-89
-89
-90
-90
-89
-89
-89
-89
-88
-88
-88
-87
-87
-86
-85
-85
-85
-84
-83
-82
-82
-81
-81
-80
-79
-79
-79
-79
-78
-78
-77
-77
-77
-77
-76
-76
-76
-76
-76
-76
-76
-76
-76
-76
-76
-77
-77
-77
-78
-79
-79
-80
-81
-81
-82
-83
-84
-84
-85
-85
-86
-86
-87
-87
-86
-86
-85
-85
-84
-84
-84
-83
-82
-82
-81
-80
-80
-79
-79
-78
-78
-78
-78
-79
-79
-79
-80
-80
-80
-80
-81
-81
-81
-81
-81
-81
-82
-82
-82
-82
-82
-82
-82
-82
-82
-82
-82
-82
-82
-82
-82
-82
-82
-82
-82
-82
-83
-83
-82
-82
-82
-82
-83
-82
-82
-82
-82
-82
-82
-82
-82
-82
-82
-82
-82
-82
-82
-82
-82
-82
-82
-83
-83
-83
-83
-83
-83
-84
-84
-84
-84
-85
-85
-85
-85
-86
-86
-86
-85
-85
-85
-85
-85
-85
-85
-85
-85
-84
-84
-83
-83
-83
-83
-83
-83
-83
-83
-83
-83
-83
-83
-83
-83
-83
-83
-84
-84
-84
-85
-85
-85
-85
-86
-86
-86
-87
-87
-87
-87
-87
-87
-87
-87
-88
-88
-88
-88
-88
-88
-88
-88
-88
-88
-88
-88
-88
-88
-89
-89
-89
-89
-88
-88
-88
-88
-88
-87
-87
-87
-86
-86
-85
-85
-85
-84
-84
-84
-84
-83
-83
-83
-83
-83
-83
-83
-83
-83
-83
-83
-84
-84
-84
-84
-84
-84
-84
-83
-83
-83
-82
-82
-82
-81
-81
-80
-80
-79
-79
-78
-77
-77
-76
-76
-75
-75
-75
-75
-75
-75
-75
-75
-75
-75
-75
-75
-75
-75
-76
-76
-76
-76
-76
-76
-76
-77
-77
-77
-77
-77
-77
-77
-77
-78
-78
-78
-78
-78
-79
-79
-79
-79
-79
-80
-81
-81
-81
-81
-82
-82
-83
-83
-84
-84
-85
-85
-85
-86
-86
-87
-87
-88
-88
-89
-89
-89
-90
-90
-90
-90
-90
-91
-91
-91
-92
-92
-93
-93
-94
-94
-94
-95
-94
-94
-95
-95
-95
-95
-95
-95
-95
-94
-94
-94
-94
-94
-94
-94
-94
-94
-94
-95
-95
-95
-96
-96
-97
-97
-98
-98
-99
-99
-100
-100
-101
-101
-101
-102
-102
-102
-102
-101
-101
-101
-101
-101
-100
-100
-99
-99
-98
-98
-97
-97
-97
-96
-96
-96
-95
-95
-96
-96
-96
-96
-96
-96
-96
-96
-96
-96
-96
-96
-96
-95
-94
-93
-92
-91
-89
-88
-86
-84
-81
-79
-76
-72
-68
-64
-60
-54
-48
-41
-34
-26
-17
-8
2
12
24
36
48
61
75
89
104
117
131
143
155
166
175
183
188
192
194
194
192
188
181
173
162
150
137
121
105
88
70
52
33
15
-2
-19
-35
-50
-64
-76
-87
-97
-105
-112
-118
-123
-126
-129
-131
-132
-132
-132
-131
-129
-128
-126
-124
-122
-119
-117
-115
-113
-111
-109
-107
-106
-104
-102
-101
-100
-98
-97
-96
-95
-95
-94
-93
-93
-93
-92
-92
-92
-92
-91
-91
-90
-90
-90
-90
-90
-90
-90
-90
-90
-90
-90
-90
-90
-89
-90
-90
-90
-90
-90
-90
-90
-89
-89
-89
-88
-88
-88
-87
-87
-87
-86
-86
-86
-85
-85
-85
-84
-84
-83
-82
-82
-81
-81
-81
-81
-80
-80
-80
-80
-80
-80
-80
-80
-81
-80
-81
-81
-81
-81
-82
-82
-82
-83
-83
-83
-83
-83
-82
-82
-82
-81
-80
-80
-80
-79
-79
-78
-78
-78
-77
-77
-76
-76
-76
-76
-76
-76
-76
-76
-76
-76
-76
-76
-76
-76
-76
-76
-75
-75
-75
-75
-75
-74
-73
-73
-72
-72
-71
-71
-71
-70
-70
-69
-68
-67
-66
-65
-65
-64
-63
-63
-62
-62
-61
-61
-61
-61
-60
-60
-60
-60
-60
-61
-60
-61
-61
-61
-61
-61
-61
-61
-60
-60
-60
-59
-59
-58
-57
-56
-55
-55
-54
-53
-53
-52
-51
-50
-49
-48
-47
-47
-46
-45
-44
-43
-43
-42
-41
-40
-39
-38
-37
-36
-36
-35
-34
-33
-33
-32
-31
-30
-29
-28
-28
-27
-27
-26
-25
-25
-24
-23
-23
-22
-22
-21
-21
-21
-20
-19
-19
-19
-19
-19
-18
-18
-18
-17
-17
-17
-17
-17
-16
-16
-16
-16
-16
-16
-16
-16
-16
-16
-16
-16
-17
-17
-18
-19
-19
-20
-21
-22
-23
-24
-25
-26
-27
-28
-29
-30
-31
-32
-33
-34
-36
-36
-38
-39
-39
-41
-42
-43
-44
-45
-46
-48
-49
-51
-52
-53
-54
-55
-56
-57
-58
-59
-60
-61
-62
-62
-63
-64
-64
-65
-66
-66
-67
-68
-69
-70
-71
-72
-73
-74
-75
-77
-78
-79
-80
-82
-83
-84
-84
-85
-87
-87
-88
-89
-90
-90
-90
-91
-91
-91
-91
-91
-91
-92
-92
-92
-92
-92
-92
-92
-92
-92
-91
-91
-91
-91
-91
-92
-92
-92
-92
-92
-92
-92
-92
-92
-93
-93
-93
-94
-94
-95
-95
-95
-95
-96
-96
-96
-96
-97
-97
-97
-97
-97
-96
-96
-96
-96
-96
-96
-96
-95
-95
-95
-95
-95
-94
-94
-94
-94
-94
-94
-94
-94
-94
-94
-94
-94
-94
-94
-94
-94
-94
-94
-94
-94
-93
-93
-93
-93
-93
-92
-92
-91
-91
-91
-91
-91
-91
-91
-92
-92
-92
-92
-93
-93
-94
-94
-94
-94
-94
-94
-94
-94
-94
-94
-94
-94
-94
-94
-94
-94
-93
-93
-93
-93
-93
-92
-92
-92
-92
-92
-91
-91
-91
-91
-91
-91
-91
-91
-90
-90
-89
-89
-88
-88
-88
-88
-88
-88
-88
-87
-87
-87
-87
-87
-86
-86
-86
-85
-85
-85
-85
-85
-85
-85
-85
-84
-84
-84
-83
-83
-83
-83
-83
-83
-82
-82
-82
-82
-82
-81
-81
-81
-81
-81
-80
-81
-81
-81
-81
-81
-81
-81
-81
-81
-81
-81
-82
-82
-82
-82
-83
-83
-83
-83
-83
-83
-83
-84
-84
-84
-84
-84
-84
-84
-84
-84
-84
-84
-84
-84
-85
-85
-85
-85
-86
-86
-86
-86
-86
-86
-86
-87
-87
-87
-87
-88
-88
-88
-88
-88
-88
-89
-89
-89
-89
-89
-89
-89
-90
-90
-90
-90
-90
-90
-90
-90
-90
-90
-90
-90
-90
-90
-90
-90
-89
-89
-89
-89
-88
-88
-88
-88
-88
-88
-87
-87
-88
-88
-88
-89
-89
-89
-89
-89
-89
-90
-90
-90
-90
-90
-90
-90
-90
-91
-91
-91
-91
-91
-91
-90
-91
-91
-90
-90
-90
-90
-90
-90
-90
-90
-89
-89
-89
-89
-88
-88
-88
-87
-87
-86
-86
-85
-84
-84
-83
-82
-82
-81
-80
-79
-79
-78
-77
-77
-77
-76
-76
-76
-75
-75
-75
-75
-75
-75
-75
-76
-76
-76
-76
-76
-77
-77
-78
-78
-78
-78
-79
-79
-80
-80
-80
-80
-81
-81
-81
-81
-82
-82
-82
-82
-82
-82
-82
-82
-83
-83
-83
-83
-83
-83
-83
-84
-84
-84
-84
-84
-84
-84
-84
-85
-85
-86
-86
-86
-86
-86
-87
-87
-88
-88
-88
-88
-89
-90
-90
-91
-91
-92
-92
-93
-93
-94
-94
-95
-95
-96
-96
-97
-97
-98
-98
-99
-99
-99
-99
-100
-100
-100
-99
-100
-100
-100
-100
-100
-100
-100
-100
-100
-100
-99
-99
-99
-99
-99
-99
-100
-100
-100
-100
-100
-100
-100
-100
-100
-100
-100
-100
-100
-100
-100
-99
-99
-99
-98
-98
-98
-98
-97
-97
-97
-96
-96
-96
-95
-95
-95
-94
-93
-92
-91
-89
-88
-87
-85
-83
-81
-79
-77
-75
-72
-68
-64
-60
-55
-50
-44
-39
-32
-25
-16
-7
2
12
23
35
47
60
73
87
100
113
127
139
151
161
170
178
184
188
190
190
188
184
178
169
159
147
133
118
102
85
68
49
31
13
-4
-22
-38
-53
-66
-79
-90
-100
-108
-115
-121
-125
-129
-132
-134
-134
-134
-133
-133
-131
-129
-127
-125
-123
-121
-119
-117
-114
-112
-111
-109
-107
-106
-105
-104
-103
-102
-102
-101
-100
-100
-100
-100
-99
-99
-99
-99
-99
-99
-98
-98
-98
-97
-97
-97
-96
-96
-96
-96
-96
-96
-96
-96
-95
-95
-95
-94
-94
-94
-94
-94
-94
-93
-93
-93
-93
-93
-93
-93
-92
-92
-92
-92
-92
-91
-91
-91
-91
-91
-90
-90
-90
-89
-88
-88
-87
-87
-86
-86
-85
-84
-84
-83
-83
-82
-82
-82
-82
-81
-81
-81
-81
-81
-81
-81
-81
-81
-81
-81
-82
-82
-82
-82
-82
-82
-82
-82
-82
-81
-81
-81
-80
-80
-80
-79
-79
-78
-78
-77
-77
-76
-76
-75
-75
-74
-74
-74
-73
-73
-72
-72
-72
-72
-72
-71
-71
-71
-71
-71
-70
-70
-70
-69
-69
-68
-67
-67
-66
-66
-66
-65
-65
-64
-64
-63
-63
-63
-63
-62
-62
-62
-61
-61
-61
-61
-61
-60
-60
-59
-59
-58
-57
-57
-56
-55
-55
-54
-53
-53
-52
-52
-51
-50
-49
-49
-48
-48
-47
-47
-46
-45
-44
-44
-43
-42
-41
-40
-40
-38
-37
-36
-35
-34
-33
-31
-30
-30
-28
-27
-26
-25
-24
-23
-22
-21
-20
-19
-19
-18
-17
-17
-17
-17
-16
-16
-16
-15
-15
-15
-15
-15
-15
-15
-15
-14
-14
-14
-15
-14
-14
-14
-14
-14
-14
-14
-14
-14
-14
-14
-15
-15
-15
-15
-16
-16
-16
-17
-17
-18
-18
-19
-19
-20
-21
-22
-22
-23
-24
-24
-25
-26
-27
-29
-30
-31
-32
-33
-34
-35
-37
-38
-39
-41
-42
-44
-45
-47
-48
-49
-51
-52
-53
-55
-56
-57
-58
-59
-60
-61
-62
-63
-64
-64
-65
-65
-66
-67
-67
-68
-69
-69
-70
-70
-71
-72
-72
-73
-74
-74
-76
-77
-78
-79
-79
-80
-81
-82
-83
-84
-85
-85
-86
-87
-88
-88
-89
-89
-90
-90
-90
-91
-91
-91
-92
-92
-92
-92
-92
-92
-92
-92
-92
-92
-91
-91
-91
-91
-91
-91
-91
-90
-90
-89
-89
-89
-89
-89
-89
-88
-88
-88
-87
-87
-87
-87
-87
-87
-87
-87
-87
-87
-87
-87
-87
-87
-87
-88
-88
-88
-89
-89
-89
-89
-90
-90
-91
-91
-91
-92
-92
-92
-92
-92
-92
-93
-93
-93
-93
-93
-93
-93
-93
-93
-92
-92
-92
-92
-92
-92
-92
-91
-90
-90
-89
-89
-89
-88
-88
-88
-88
-87
-87
-87
-87
-87
-87
-87
-87
-87
-87
-87
-87
-87
-87
-87
-87
-87
-87
-87
-87
-87
-86
-86
-86
-85
-85
-85
-84
-84
-84
-84
-84
-83
-83
-83
-82
-82
-81
-81
-81
-81
-81
-81
-80
-80
-80
-80
-79
-79
-79
-78
-78
-78
-78
-78
-78
-78
-78
-78
-78
-78
-78
-78
-79
-79
-78
-78
-79
-80
-80
-80
-80
-81
-81
-81
-81
-81
-81
-81
-81
-81
-81
-80
-80
-80
-79
-79
-79
-79
-78
-78
-78
-77
-77
-77
-77
-77
-77
-77
-77
-77
-77
-77
-77
-78
-78
-79
-79
-79
-79
-79
-79
-79
-79
-79
-79
-79
-79
-79
-80
-80
-80
-80
-81
-81
-81
-81
-81
-81
-80
-80
-80
-80
-80
-80
-80
-80
-80
-80
-79
-79
-79
-79
-79
-79
-79
-79
-79
-79
-79
-79
-79
-79
-79
-79
-80
-80
-80
-80
-80
-79
-79
-79
-79
-79
-79
-79
-79
-79
-78
-78
-78
-77
-77
-77
-77
-77
-77
-77
-77
-77
-77
-77
-77
-77
-78
-78
-78
-77
-78
-78
-78
-79
-79
-79
-79
-79
-80
-80
-80
-80
-80
-80
-80
-80
-80
-80
-80
-80
-80
-79
-79
-79
-79
-78
-78
-78
-78
-77
-77
-77
-77
-77
-76
-76
-76
-76
-77
-77
-77
-78
-78
-78
-78
-78
-78
-79
-80
-80
-80
-81
-82
-82
-83
-83
-83
-83
-84
-84
-83
-83
-83
-83
-83
-82
-82
-81
-80
-80
-79
-78
-77
-77
-76
-76
-75
-75
-74
-73
-72
-72
-71
-70
-70
-70
-70
-69
-69
-68
-68
-68
-68
-67
-67
-67
-67
-67
-67
-67
-67
-66
-66
-66
-67
-67
-67
-67
-66
-66
-66
-66
-66
-66
-66
-66
-66
-66
-66
-66
-66
-65
-65
-65
-65
-65
-64
-64
-64
-64
-63
-63
-63
-63
-64
-64
-64
-64
-65
-65
-65
-66
-66
-67
-68
-69
-70
-71
-72
-73
-73
-74
-75
-76
-77
-77
-78
-79
-79
-80
-80
-80
-80
-81
-81
-81
-81
-81
-81
-81
-81
-81
-81
-81
-81
-81
-81
-81
-81
-81
-81
-81
-81
-82
-81
-81
-81
-81
-81
-81
-81
-81
-81
-81
-81
-81
-81
-81
-81
-81
-81
-81
-81
-81
-81
-81
-81
-81
-81
-81
-81
-81
-81
-81
-81
-81
-81
-80
-80
-81
-81
-81
-81
-82
-82
-82
-82
-82
-83
-83
-83
-83
-83
-83
-83
-83
-83
-83
-83
-82
-82
-81
-80
-79
-78
-77
-76
-74
-72
-71
-69
-67
-65
-62
-59
-56
-53
-49
-45
-41
-36
-30
-24
-17
-10
-2
6
15
24
35
46
58
71
83
97
110
123
137
150
163
174
185
194
203
208
213
215
215
214
210
203
195
185
173
159
143
127
109
91
72
53
35
16
-1
-18
-34
-48
-61
-73
-83
-92
-99
-105
-109
-113
-115
-116
-117
-117
-116
-115
-114
-112
-110
-108
-105
-103
-101
-98
-96
-94
-92
-90
-89
-87
-85
-83
-81
-80
-78
-77
-76
-75
-74
-73
-72
-72
-71
-70
-70
-69
-69
-70
-70
-70
-71
-71
-71
-71
-72
-72
-72
-72
-72
-73
-73
-73
-73
-72
-72
-72
-72
-72
-72
-72
-72
-71
-71
-70
-70
-70
-70
-70
-70
-69
-69
-69
-69
-68
-68
-68
-67
-67
-67
-67
-67
-67
-67
-67
-67
-67
-66
-66
-66
-66
-66
-65
-65
-64
-64
-64
-63
-63
-62
-62
-62
-61
-61
-61
-60
-60
-60
-59
-59
-59
-58
-58
-58
-58
-58
-57
-57
-57
-57
-57
-56
-56
-56
-56
-56
-56
-56
-56
-56
-56
-55
-55
-55
-55
-55
-55
-54
-54
-54
-53
-53
-52
-52
-52
-51
-51
-50
-49
-49
-48
-48
-48
-47
-47
-47
-47
-47
-46
-46
-46
-45
-45
-44
-44
-44
-43
-42
-41
-40
-40
-40
-39
-39
-38
-38
-37
-36
-36
-36
-35
-34
-34
-33
-33
-32
-31
-31
-30
-30
-30
-29
-28
-27
-26
-26
-24
-23
-22
-21
-20
-18
-17
-17
-15
-14
-14
-13
-11
-10
-9
-8
-7
-6
-6
-5
-4
-3
-3
-2
-1
-1
0
0
1
2
3
4
5
5
6
7
8
9
9
10
11
13
13
14
15
15
16
16
16
16
17
17
17
17
18
17
18
17
18
17
17
17
16
15
15
14
14
14
13
13
12
11
10
9
8
7
6
5
4
3
2
0
0
-2
-3
-4
-5
-7
-8
-10
-11
-12
-14
-15
-16
-18
-19
-20
-21
-22
-23
-25
-25
-27
-27
-28
-29
-30
-32
-33
-34
-35
-36
-37
-38
-39
-40
-42
-43
-44
-45
-46
-47
-48
-49
-50
-52
-52
-53
-54
-55
-56
-56
-57
-58
-58
-59
-59
-60
-60
-60
-61
-61
-62
-62
-63
-63
-63
-63
-63
-64
-64
-65
-65
-65
-65
-66
-66
-67
-67
-67
-68
-68
-69
-69
-69
-69
-69
-69
-69
-69
-70
-69
-69
-69
-69
-69
-69
-69
-70
-70
-69
-69
-69
-69
-69
-68
-68
-68
-68
-68
-68
-67
-67
-67
-67
-67
-67
-67
-67
-67
-67
-67
-67
-67
-67
-68
-68
-68
-69
-69
-69
-69
-69
-69
-69
-69
-69
-69
-68
-68
-68
-68
-68
-67
-67
-67
-67
-66
-66
-66
-66
-66
-66
-66
-66
-66
-66
-66
-66
-66
-66
-66
-66
-66
-66
-66
-66
-66
-66
-66
-66
-66
-66
-66
-66
-66
-66
-65
-65
-65
-65
-65
-65
-65
-64
-64
-63
-63
-62
-62
-61
-60
-60
-59
-59
-59
-58
-58
-57
-57
-57
-57
-57
-57
-56
-56
-56
-56
-57
-57
-57
-58
-58
-58
-58
-58
-59
-59
-59
-59
-59
-59
-59
-59
-58
-58
-58
-58
-58
-57
-57
-57
-57
-56
-56
-56
-56
-56
-56
-56
-55
-55
-55
-55
-55
-55
-55
-55
-55
-55
-55
-55
-55
-55
-55
-55
-55
-55
-55
-55
-55
-55
-55
-55
-55
-55
-55
-55
-55
-55
-55
-55
-56
-56
-56
-56
-56
-56
-56
-56
-56
-55
-56
-56
-56
-56
-56
-56
-56
-56
-56
-56
-56
-57
-57
-57
-57
-57
-57
-57
-57
-57
-57
-57
-57
-57
-57
-57
-57
-57
-58
-58
-58
-58
-58
-58
-59
-59
-59
-58
-58
-58
-58
-58
-58
-59
-59
-58
-59
-59
-59
-59
-59
-58
-58
-58
-58
-58
-58
-58
-58
-58
-58
-58
-58
-58
-58
-58
-58
-58
-58
-58
-58
-58
-58
-58
-58
-58
-58
-58
-57
-57
-57
-57
-57
-56
-56
-56
-56
-56
-56
-56
-56
-56
-56
-57
-57
-57
-57
-57
-57
-57
-57
-58
-58
-58
-58
-58
-58
-58
-58
-57
-57
-57
-57
-57
-57
-57
-57
-56
-57
-57
-57
-57
-57
-57
-58
-58
-58
-58
-58
-58
-58
-58
-58
-58
-58
-58
-58
-58
-58
-57
-57
-57
-57
-57
-57
-57
-57
-57
-57
-57
-57
-57
-57
-57
-58
-58
-58
-58
-58
-58
-58
-58
-57
-57
-57
-56
-56
-56
-55
-55
-55
-55
-55
-55
-55
-55
-55
-55
-55
-56
-56
-56
-56
-57
-58
-58
-59
-59
-60
-60
-60
-61
-61
-61
-61
-61
-61
-61
-61
-61
-60
-60
-60
-59
-59
-59
-58
-57
-57
-57
-56
-56
-56
-56
-55
-55
-55
-54
-54
-54
-54
-54
-54
-54
-54
-54
-54
-54
-54
-54
-54
-54
-54
-54
-54
-54
-54
-54
-54
-55
-55
-55
-55
-55
-56
-56
-56
-56
-56
-57
-57
-57
-57
-57
-57
-56
-56
-56
-56
-56
-55
-55
-54
-54
-54
-53
-53
-53
-52
-52
-52
-52
-52
-52
-52
-53
-53
-53
-53
-53
-53
-53
-54
-54
-54
-55
-55
-55
-55
-55
-56
-56
-56
-56
-56
-56
-56
-56
-57
-57
-57
-57
-57
-58
-58
-58
-58
-58
-58
-58
-58
-58
-58
-57
-57
-57
-57
-57
-57
-57
-57
-56
-56
-55
-55
-55
-55
-55
-55
-54
-54
-54
-54
-54
-54
-54
-54
-54
-54
-54
-55
-55
-55
-56
-56
-56
-56
-56
-56
-57
-57
-57
-57
-57
-58
-58
-58
-58
-57
-57
-57
-57
-56
-56
-56
-56
-55
-55
-55
-55
-55
-55
-54
-54
-54
-54
-55
-55
-55
-55
-55
-55
-55
-56
-56
-56
-56
-56
-56
-56
-56
-56
-56
-56
-56
-55
-55
-55
-54
-54
-54
-53
-53
-53
-52
-52
-52
-52
-52
-52
-52
-52
-53
-53
-53
-53
-53
-53
-53
-54
-54
-54
-54
-53
-53
-53
-53
-53
-53
-52
-52
-52
-52
-51
-51
-51
-51
-51
-50
-50
-50
-50
-50
-49
-48
-48
-48
-47
-46
-46
-45
-45
-45
-44
-44
-43
-42
-42
-41
-41
-41
-42
-42
-42
-42
-42
-42
-43
-43
-43
-44
-44
-44
-44
-44
-44
-44
-44
-44
-44
-43
-43
-43
-43
-43
-43
-43
-43
-43
-44
-44
-44
-45
-45
-46
-46
-47
-47
-48
-48
-49
-50
-50
-51
-51
-52
-52
-52
-52
-52
-52
-52
-52
-52
-52
-52
-52
-52
-52
-52
-52
-53
-53
-53
-53
-53
-53
-53
-53
-53
-53
-53
-53
-53
-53
-53
-53
-53
-53
-53
-53
-53
-53
-53
-54
-54
-54
-54
-54
-54
-54
-54
-53
-53
-53
-53
-53
-53
-53
-53
-52
-52
-52
-52
-52
-52
-52
-52
-51
-52
-52
-52
-52
-52
-52
-52
-52
-51
-52
-52
-52
-52
-52
-52
-52
-51
-51
-51
-51
-51
-51
-51
-50
-50
-49
-48
-47
-46
-45
-43
-41
-39
-37
-35
-32
-29
-26
-23
-19
-15
-10
-4
1
8
15
22
31
40
50
60
71
82
94
106
119
132
146
159
172
185
197
209
220
229
237
243
248
250
251
249
245
239
231
221
209
196
181
165
147
129
111
92
73
54
35
18
1
-13
-27
-39
-49
-59
-67
-72
-78
-81
-84
-85
-86
-86
-85
-84
-81
-80
-77
-75
-72
-70
-68
-66
-64
-62
-60
-59
-57
-56
-55
-53
-53
-52
-52
-51
-51
-50
-50
-50
-49
-49
-48
-48
-48
-48
-47
-47
-47
-47
-47
-47
-47
-46
-46
-46
-46
-45
-44
-44
-43
-43
-43
-43
-42
-42
-41
-41
-41
-40
-40
-40
-40
-40
-40
-40
-40
-40
-40
-40
-40
-40
-40
-40
-41
-41
-40
-40
-40
-40
-40
-40
-39
-39
-39
-39
-38
-38
-37
-37
-36
-35
-34
-34
-33
-32
-32
-32
-31
-31
-30
-30
-29
-29
-28
-28
-27
-27
-27
-27
-27
-27
-27
-27
-26
-26
-26
-26
-25
-26
-25
-25
-25
-25
-25
-24
-24
-24
-24
-24
-23
-23
-22
-22
-21
-21
-21
-20
-20
-20
-20
-19
-19
-19
-18
-18
-18
-18
-18
-17
-17
-17
-17
-16
-17
-16
-16
-16
-16
-16
-15
-15
-14
-14
-13
-13
-13
-12
-12
-11
-11
-10
-9
-9
-9
-8
-8
-7
-6
-6
-5
-5
-4
-3
-3
-1
-1
0
1
2
3
4
5
6
8
9
10
11
12
13
15
16
17
19
20
21
22
23
24
25
26
27
29
29
31
31
32
33
33
34
35
36
36
37
37
37
38
38
39
39
39
39
40
40
41
41
41
42
42
43
43
43
43
44
44
45
45
46
46
46
46
46
46
46
46
47
47
47
47
47
47
47
47
47
47
46
46
46
46
46
46
46
46
45
45
44
43
42
41
40
39
38
37
36
34
33
32
30
29
27
25
24
22
21
19
18
16
15
13
12
11
10
9
8
6
6
5
4
3
3
1
1
0
-1
-2
-3
-3
-4
-5
-6
-7
-8
-10
-11
-12
-13
-14
-16
-17
-18
-19
-20
-22
-23
-23
-24
-25
-26
-27
-28
-28
-29
-30
-30
-31
-31
-32
-32
-32
-32
-32
-33
-33
-33
-33
-34
-34
-34
-34
-34
-34
-34
-35
-35
-35
-35
-35
-36
-36
-36
-36
-36
-36
-36
-36
-36
-36
-36
-36
-36
-36
-36
-36
-36
-36
-37
-37
-37
-37
-37
-37
-37
-37
-37
-37
-37
-37
-37
-37
-37
-37
-37
-36
-36
-35
-35
-35
-35
-35
-35
-35
-35
-34
-34
-34
-33
-33
-33
-33
-33
-33
-32
-32
-32
-32
-32
-32
-32
-32
-31
-31
-31
-31
-31
-30
-30
-30
-29
-29
-29
-30
-30
-30
-29
-29
-29
-29
-29
-29
-29
-29
-29
-29
-29
-29
-29
-29
-29
-28
-28
-28
-28
-28
-28
-27
-27
-27
-27
-27
-27
-27
-26
-26
-26
-26
-25
-25
-25
-25
-25
-25
-24
-24
-24
-23
-23
-23
-23
-23
-22
-22
-22
-22
-23
-23
-23
-23
-23
-23
-23
-23
-23
-23
-23
-23
-24
-24
-24
-24
-24
-24
-24
-24
-24
-24
-24
-24
-23
-23
-22
-22
-22
-22
-22
-22
-22
-22
-22
-22
-22
-21
-21
-21
-21
-21
-21
-21
-22
-22
-21
-21
-21
-20
-20
-20
-20
-20
-20
-20
-20
-20
-20
-20
-20
-20
-20
-20
-20
-20
-21
-21
-21
-21
-21
-21
-21
-22
-22
-22
-22
-22
-23
-23
-23
-23
-23
-23
-23
-23
-23
-23
-23
-23
-23
-22
-22
-22
-21
-21
-20
-20
-20
-20
-20
-20
-20
-20
-20
-20
-21
-21
-21
-22
-22
-22
-23
-23
-23
-24
-24
-24
-24
-24
-24
-24
-25
-25
-25
-25
-25
-24
-24
-24
-24
-23
-23
-22
-22
-22
-22
-21
-21
-21
-20
-19
-19
-19
-18
-18
-17
-17
-17
-17
-17
-17
-18
-18
-18
-18
-19
-18
-18
-19
-19
-20
-20
-21
-21
-21
-21
-21
-21
-21
-21
-22
-22
-22
-22
-21
-21
-21
-21
-21
-21
-21
-21
-20
-20
-20
-20
-20
-20
-20
-20
-20
-20
-20
-20
-20
-20
-19
-19
-19
-19
-19
-19
-19
-19
-19
-19
-18
-18
-18
-18
-18
-18
-18
-18
-18
-18
-18
-18
-18
-18
-18
-18
-18
-18
-18
-17
-17
-17
-17
-17
-17
-16
-16
-16
-16
-15
-15
-15
-15
-15
-15
-15
-16
-16
-15
-15
-15
-15
-15
-15
-15
-15
-15
-15
-15
-15
-15
-14
-14
-14
-15
-15
-15
-15
-16
-17
-17
-18
-18
-18
-19
-19
-19
-19
-20
-19
-19
-19
-19
-19
-18
-18
-18
-17
-16
-15
-15
-15
-14
-15
-14
-14
-14
-14
-14
-14
-14
-14
-14
-15
-15
-15
-14
-14
-14
-14
-14
-14
-14
-14
-14
-14
-14
-13
-13
-13
-13
-12
-12
-12
-12
-12
-12
-12
-12
-12
-12
-12
-12
-12
-12
-12
-12
-12
-12
-12
-13
-13
-13
-13
-13
-13
-12
-13
-13
-12
-12
-12
-12
-13
-13
-12
-12
-12
-12
-13
-13
-14
-14
-14
-15
-15
-15
-15
-15
-15
-16
-16
-16
-16
-16
-16
-16
-16
-15
-15
-15
-15
-15
-14
-14
-13
-12
-12
-12
-12
-12
-12
-12
-11
-11
-11
-11
-11
-11
-11
-11
-11
-12
-12
-12
-13
-13
-13
-13
-13
-13
-13
-13
-13
-14
-14
-14
-14
-14
-14
-14
-14
-13
-13
-13
-13
-14
-14
-14
-14
-14
-14
-14
-13
-13
-13
-13
-13
-12
-12
-12
-12
-12
-11
-11
-11
-10
-10
-10
-10
-10
-10
-10
-10
-10
-10
-10
-10
-10
-10
-10
-10
-10
-10
-10
-10
-10
-10
-10
-10
-10
-10
-10
-10
-10
-10
-10
-10
-10
-10
-10
-10
-10
-10
-11
-11
-11
-11
-11
-11
-12
-12
-12
-12
-12
-12
-12
-12
-12
-11
-11
-11
-11
-11
-10
-10
-10
-9
-8
-8
-7
-7
-7
-6
-6
-5
-5
-5
-4
-4
-4
-3
-3
-3
-3
-3
-3
-3
-3
-3
-2
-2
-2
-2
-1
-1
0
0
0
0
0
0
0
0
0
0
0
0
0
0
1
1
0
0
0
-1
-1
-1
-1
-1
-1
-1
-1
-1
-1
-1
-1
-1
-1
-1
-2
-2
-2
-3
-3
-3
-3
-3
-4
-4
-5
-5
-6
-6
-7
-7
-7
-8
-8
-9
-9
-9
-9
-10
-10
-10
-10
-10
-10
-10
-11
-10
-11
-11
-11
-11
-12
-11
-12
-12
-12
-12
-13
-14
-14
-14
-15
-15
-15
-16
-16
-16
-16
-16
-16
-16
-16
-16
-16
-16
-16
-15
-15
-15
-14
-13
-12
-12
-11
-11
-11
-10
-10
-10
-10
-10
-11
-11
-11
-11
-12
-12
-13
-14
-14
-15
-16
-16
-17
-17
-18
-19
-19
-19
-19
-19
-20
-19
-19
-19
-19
-19
-18
-17
-16
-15
-14
-12
-11
-9
-7
-5
-3
0
2
5
9
13
17
22
27
32
39
45
52
60
69
78
88
98
109
120
133
145
158
171
185
199
212
225
236
248
257
266
273
278
281
282
281
278
272
265
256
245
232
217
201
184
166
147
128
109
90
72
54
37
21
7
-5
-16
-26
-34
-41
-47
-51
-54
-55
-57
-57
-57
-55
-54
-52
-49
-47
-44
-41
-39
-37
-35
-32
-30
-29
-27
-26
-25
-23
-23
-22
-21
-21
-21
-20
-20
-19
-19
-19
-19
-18
-18
-18
-18
-17
-17
-17
-17
-16
-16
-16
-16
-16
-16
-16
-16
-16
-16
-16
-16
-16
-16
-16
-16
-16
-17
-17
-18
-18
-18
-18
-19
-19
-19
-20
-21
-21
-22
-22
-22
-23
-23
-24
-24
-24
-24
-24
-24
-24
-24
-24
-23
-23
-23
-22
-21
-21
-20
-20
-19
-19
-18
-17
-17
-16
-16
-16
-15
-15
-15
-15
-15
-15
-15
-14
-14
-14
-14
-14
-14
-13
-12
-12
-12
-11
-11
-10
-10
-10
-9
-9
-9
-9
-9
-9
-9
-8
-9
-8
-9
-9
-9
-10
-10
-10
-11
-11
-11
-12
-12
-12
-13
-13
-13
-13
-14
-14
-14
-14
-15
-15
-15
-14
-14
-14
-14
-13
-13
-13
-13
-13
-12
-12
-12
-11
-11
-10
-9
-9
-8
-8
-8
-7
-7
-7
-6
-5
-4
-3
-3
-2
-1
-1
0
0
1
2
2
3
4
5
5
6
7
8
8
9
10
10
11
11
12
13
13
14
15
15
16
17
18
18
19
20
20
21
22
23
23
24
24
25
25
26
26
27
28
28
28
29
29
29
30
30
31
31
31
32
32
32
33
33
34
34
34
34
34
34
34
34
34
33
33
32
32
31
31
30
30
29
28
28
27
26
25
25
24
23
22
21
20
19
18
17
16
15
14
13
12
10
8
7
6
4
2
1
0
-2
-4
-5
-7
-8
-10
-11
-13
-15
-16
-18
-20
-21
-22
-23
-25
-26
-28
-29
-31
-32
-34
-35
-36
-38
-39
-40
-42
-43
-44
-46
-47
-48
-50
-51
-52
-54
-55
-56
-57
-57
-58
-59
-59
-59
-59
-60
-60
-60
-61
-61
-62
-62
-62
-62
-63
-63
-64
-64
-65
-66
-67
-69
-70
-71
-72
-73
-75
-76
-78
-79
-80
-81
-81
-82
-83
-84
-84
-85
-85
-85
-86
-86
-86
-86
-86
-86
-86
-86
-86
-86
-86
-86
-87
-87
-88
-88
-89
-89
-90
-91
-91
-92
-93
-93
-94
-95
-95
-96
-97
-97
-98
-98
-99
-99
-99
-100
-100
-100
-100
-100
-100
-100
-100
-100
-100
-100
-100
-100
-100
-100
-100
-99
-99
-99
-99
-100
-100
-100
-100
-100
-100
-100
-100
-100
-100
-100
-100
-100
-100
-101
-101
-101
-101
-101
-101
-101
-101
-101
-101
-101
-102
-102
-102
-102
-103
-103
-103
-103
-104
-104
-104
-105
-105
-106
-107
-107
-108
-108
