# Simple Text Format
# Sampling Rate (Hz):= 1200.00
# Resolution:= 12
# Labels:= ECG	aVR
# Age:=	17
# Gender:=	Masculino
-111
-121
-131
-141
-151
-162
-173
-185
-196
-207
-218
-228
-236
-245
-251
-258
-262
-264
-265
-264
-262
-258
-252
-244
-235
-225
-212
-200
-186
-170
-156
-139
-124
-110
-95
-81
-66
-54
-42
-31
-21
-13
-6
-1
4
8
11
12
13
13
12
11
10
9
6
4
2
0
-3
-5
-8
-10
-12
-13
-15
-16
-17
-17
-18
-19
-20
-20
-20
-21
-21
-21
-21
-21
-21
-21
-21
-21
-21
-21
-21
-21
-22
-22
-22
-23
-23
-23
-23
-23
-24
-24
-24
-25
-25
-25
-25
-25
-25
-25
-25
-26
-26
-26
-26
-26
-26
-26
-26
-26
-26
-26
-27
-26
-26
-26
-26
-27
-27
-27
-28
-28
-28
-28
-29
-29
-30
-30
-31
-31
-31
-31
-30
-30
-31
-31
-31
-31
-31
-32
-32
-32
-32
-32
-32
-33
-33
-33
-34
-34
-34
-35
-36
-36
-37
-37
-38
-39
-39
-39
-40
-40
-41
-42
-42
-43
-43
-43
-43
-44
-44
-44
-44
-44
-45
-45
-45
-45
-45
-45
-46
-46
-46
-47
-47
-47
-47
-47
-47
-47
-48
-48
-48
-48
-49
-50
-50
-51
-51
-52
-52
-53
-54
-54
-55
-56
-57
-57
-58
-59
-60
-60
-61
-62
-63
-64
-65
-66
-67
-68
-69
-70
-71
-73
-73
-74
-75
-77
-78
-79
-80
-82
-83
-83
-85
-86
-88
-89
-90
-91
-93
-94
-95
-96
-97
-98
-99
-101
-102
-103
-104
-105
-106
-107
-108
-109
-110
-110
-111
-111
-113
-114
-114
-115
-116
-117
-118
-119
-119
-120
-121
-122
-123
-124
-125
-125
-126
-126
-126
-127
-127
-127
-128
-128
-128
-128
-128
-128
-128
-128
-127
-127
-126
-125
-125
-125
-124
-123
-123
-122
-121
-120
-119
-118
-118
-116
-114
-113
-112
-110
-109
-108
-106
-104
-103
-102
-100
-98
-97
-95
-93
-92
-91
-89
-87
-86
-84
-82
-81
-80
-78
-77
-74
-73
-71
-70
-69
-67
-65
-64
-62
-61
-59
-58
-57
-55
-54
-52
-50
-50
-48
-46
-45
-44
-42
-41
-40
-39
-37
-37
-36
-35
-34
-34
-32
-31
-31
-31
-30
-30
-30
-30
-29
-29
-29
-28
-28
-28
-28
-28
-28
-28
-28
-28
-27
-28
-28
-27
-26
-27
-26
-26
-25
-25
-25
-25
-25
-24
-24
-24
-24
-23
-24
-24
-24
-24
-24
-24
-24
-24
-24
-25
-25
-25
-24
-25
-25
-24
-24
-24
-24
-24
-23
-23
-23
-23
-22
-22
-22
-21
-21
-21
-21
-22
-22
-22
-22
-22
-22
-22
-22
-22
-22
-23
-22
-22
-22
-22
-22
-22
-22
-23
-23
-23
-23
-23
-23
-23
-23
-23
-23
-23
-23
-23
-24
-24
-24
-24
-24
-25
-25
-25
-25
-25
-25
-25
-25
-25
-25
-25
-24
-24
-24
-25
-25
-25
-25
-25
-24
-24
-25
-25
-25
-25
-25
-26
-26
-26
-27
-27
-27
-27
-28
-28
-28
-29
-29
-29
-30
-30
-29
-30
-30
-30
-30
-30
-30
-30
-30
-30
-30
-30
-30
-30
-31
-31
-31
-31
-31
-32
-32
-31
-32
-32
-32
-32
-33
-33
-34
-34
-34
-34
-35
-35
-35
-35
-35
-35
-37
-37
-37
-37
-36
-37
-37
-37
-37
-38
-38
-38
-38
-38
-38
-38
-38
-38
-39
-39
-39
-39
-38
-38
-38
-37
-38
-38
-37
-37
-37
-36
-36
-36
-35
-35
-35
-35
-35
-35
-35
-35
-35
-35
-35
-35
-35
-35
-36
-36
-36
-36
-36
-36
-37
-37
-37
-37
-37
-37
-37
-36
-36
-36
-36
-36
-36
-36
-36
-36
-36
-36
-36
-36
-37
-36
-36
-36
-36
-36
-35
-35
-35
-35
-36
-36
-36
-35
-35
-35
-36
-35
-35
-35
-35
-35
-35
-35
-35
-35
-36
-35
-35
-35
-35
-35
-35
-35
-35
-35
-35
-35
-35
-35
-35
-35
-36
-36
-37
-37
-37
-37
-37
-37
-37
-37
-37
-38
-38
-38
-38
-38
-38
-38
-38
-38
-38
-38
-38
-38
-38
-38
-38
-38
-38
-38
-38
-38
-38
-38
-38
-38
-38
-38
-38
-38
-38
-38
-38
-38
-38
-38
-39
-39
-38
-39
-39
-40
-41
-41
-42
-43
-43
-44
-44
-45
-45
-46
-46
-47
-47
-48
-48
-48
-48
-49
-50
-50
-50
-50
-50
-50
-50
-50
-50
-50
-50
-50
-50
-50
-50
-50
-50
-50
-52
-52
-52
-52
-53
-53
-53
-53
-53
-53
-53
-53
-54
-54
-54
-55
-55
-54
-54
-55
-54
-54
-54
-53
-53
-53
-53
-52
-52
-51
-50
-50
-49
-49
-48
-47
-48
-47
-47
-46
-46
-46
-44
-44
-44
-43
-43
-43
-42
-42
-41
-40
-40
-40
-39
-39
-38
-38
-37
-37
-36
-36
-36
-36
-36
-35
-35
-36
-36
-36
-36
-36
-36
-37
-37
-37
-36
-36
-37
-37
-37
-38
-38
-38
-38
-38
-38
-39
-39
-39
-39
-39
-39
-39
-40
-40
-40
-40
-40
-40
-40
-40
-40
-40
-40
-40
-40
-40
-40
-40
-40
-41
-40
-39
-40
-40
-40
-41
-40
-41
-43
-43
-43
-45
-46
-48
-49
-51
-52
-54
-56
-58
-61
-64
-68
-71
-76
-80
-85
-91
-97
-103
-110
-118
-126
-135
-145
-154
-165
-176
-187
-198
-210
-221
-233
-244
-255
-264
-273
-280
-287
-291
-295
-296
-296
-294
-291
-286
-280
-271
-261
-249
-236
-223
-208
-192
-177
-162
-146
-131
-116
-101
-88
-75
-64
-52
-44
-36
-29
-23
-19
-16
-14
-12
-12
-13
-13
-15
-17
-19
-21
-24
-27
-29
-32
-34
-37
-39
-41
-43
-45
-45
-47
-48
-49
-50
-51
-51
-51
-52
-52
-52
-52
-52
-52
-52
-52
-51
-51
-51
-50
-50
-50
-49
-50
-50
-50
-50
-50
-50
-50
-50
-50
-51
-51
-51
-52
-52
-53
-53
-54
-53
-54
-54
-54
-54
-54
-54
-55
-55
-55
-55
-55
-55
-54
-55
-55
-55
-55
-55
-55
-55
-56
-56
-57
-57
-57
-57
-57
-57
-59
-59
-59
-59
-60
-60
-61
-61
-61
-62
-62
-62
-62
-62
-63
-63
-64
-64
-64
-65
-65
-65
-66
-66
-66
-66
-67
-67
-67
-68
-68
-68
-70
-70
-70
-70
-71
-71
-71
-72
-72
-72
-73
-74
-75
-75
-76
-76
-78
-78
-79
-78
-79
-80
-81
-81
-82
-82
-83
-83
-84
-84
-85
-86
-85
-86
-87
-88
-87
-88
-88
-89
-89
-90
-91
-91
-92
-93
-93
-94
-94
-95
-96
-96
-97
-98
-99
-100
-100
-101
-102
-103
-104
-105
-107
-108
-109
-110
-112
-113
-114
-115
-116
-118
-119
-120
-121
-122
-123
-124
-125
-127
-128
-129
-130
-131
-131
-132
-133
-133
-134
-135
-137
-138
-139
-139
-141
-142
-143
-143
-145
-146
-146
-148
-148
-149
-151
-152
-153
-153
-154
-155
-156
-156
-157
-157
-158
-158
-158
-159
-160
-160
-160
-160
-159
-159
-160
-160
-160
-159
-159
-159
-158
-158
-157
-157
-156
-156
-155
-155
-153
-152
-151
-151
-150
-148
-147
-146
-144
-144
-143
-141
-140
-139
-137
-137
-135
-134
-131
-130
-129
-127
-126
-125
-122
-121
-119
-118
-115
-114
-112
-110
-109
-107
-105
-104
-103
-101
-99
-98
-96
-95
-94
-92
-92
-90
-88
-88
-86
-85
-83
-83
-81
-81
-79
-78
-78
-76
-76
-75
-73
-72
-72
-71
-70
-70
-69
-68
-68
-67
-67
-66
-65
-64
-65
-64
-63
-63
-63
-62
-61
-60
-61
-60
-59
-59
-59
-59
-59
-58
-58
-57
-58
-58
-57
-58
-58
-58
-59
-60
-60
-60
-60
-60
-60
-61
-61
-62
-61
-61
-61
-61
-62
-62
-62
-60
-60
-60
-60
-60
-60
-59
-58
-58
-57
-58
-58
-57
-57
-57
-57
-57
-57
-56
-57
-57
-56
-57
-57
-56
-57
-57
-58
-58
-58
-58
-58
-58
-58
-59
-58
-58
-59
-59
-59
-59
-60
-60
-61
-61
-60
-60
-60
-61
-61
-61
-61
-61
-61
-61
-61
-61
-61
-61
-60
-60
-60
-60
-60
-60
-60
-60
-61
-61
-61
-61
-62
-62
-62
-62
-64
-64
-64
-65
-65
-65
-66
-67
-67
-68
-68
-68
-69
-69
-69
-70
-70
-69
-70
-70
-70
-70
-70
-70
-69
-69
-69
-69
-69
-69
-69
-69
-69
-69
-69
-69
-69
-69
-69
-70
-70
-70
-70
-70
-70
-71
-71
-71
-71
-72
-72
-72
-72
-72
-72
-72
-72
-72
-72
-73
-73
-73
-73
-74
-74
-74
-74
-75
-75
-75
-75
-75
-75
-75
-75
-75
-75
-74
-74
-74
-74
-73
-73
-72
-72
-72
-72
-73
-72
-72
-72
-72
-73
-73
-73
-74
-74
-74
-75
-75
-75
-75
-75
-75
-76
-76
-75
-75
-75
-74
-74
-74
-74
-74
-75
-75
-75
-75
-74
-74
-74
-75
-75
-75
-75
-75
-75
-75
-75
-75
-75
-76
-76
-75
-75
-75
-74
-75
-75
-74
-74
-74
-75
-74
-74
-74
-74
-74
-74
-74
-75
-75
-75
-75
-75
-75
-75
-75
-75
-75
-76
-76
-76
-76
-76
-76
-76
-76
-76
-76
-76
-75
-75
-75
-76
-76
-76
-76
-75
-75
-75
-75
-75
-75
-75
-75
-75
-75
-75
-75
-75
-75
-75
-75
-75
-75
-75
-75
-76
-76
-77
-77
-77
-76
-76
-77
-77
-77
-77
-76
-76
-76
-76
-76
-75
-75
-75
-75
-75
-75
-75
-75
-75
-74
-74
-74
-73
-73
-73
-73
-74
-74
-74
-74
-75
-74
-74
-74
-74
-75
-75
-75
-75
-75
-76
-77
-77
-77
-77
-77
-77
-76
-76
-76
-77
-77
-77
-77
-77
-77
-77
-76
-77
-77
-77
-77
-77
-77
-77
-77
-77
-77
-77
-77
-77
-77
-77
-77
-77
-77
-77
-77
-77
-77
-77
-77
-77
-77
-77
-77
-77
-77
-77
-77
-77
-77
-77
-78
-78
-78
-78
-78
-79
-79
-79
-79
-79
-79
-79
-79
-79
-80
-79
-79
-79
-79
-79
-79
-79
-79
-79
-78
-78
-79
-79
-79
-79
-79
-79
-79
-79
-79
-79
-79
-79
-79
-79
-78
-79
-80
-80
-79
-79
-80
-79
-79
-79
-79
-79
-78
-78
-78
-78
-78
-78
-78
-79
-79
-79
-79
-79
-79
-79
-79
-79
-79
-79
-79
-79
-79
-78
-78
-78
-78
-78
-77
-77
-77
-77
-77
-77
-77
-77
-77
-77
-77
-78
-78
-78
-79
-80
-80
-80
-80
-80
-81
-82
-82
-82
-82
-81
-82
-82
-82
-82
-82
-81
-81
-81
-81
-81
-81
-81
-81
-81
-81
-81
-81
-81
-82
-82
-82
-82
-82
-82
-82
-82
-82
-82
-82
-82
-82
-82
-82
-81
-81
-80
-81
-81
-81
-81
-81
-81
-81
-80
-80
-80
-81
-81
-80
-80
-81
-81
-80
-81
-81
-82
-83
-83
-83
-83
-83
-83
-83
-84
-84
-84
-84
-84
-83
-83
-83
-83
-83
-83
-83
-84
-84
-84
-83
-83
-83
-83
-83
-84
-84
-84
-84
-84
-84
-84
-84
-84
-84
-84
-84
-85
-85
-84
-84
-84
-84
-83
-83
-83
-83
-83
-83
-82
-82
-82
-83
-83
-83
-83
-83
-85
-85
-85
-85
-86
-86
-86
-86
-86
-86
-86
-86
-86
-86
-86
-86
-86
-85
-85
-85
-85
-85
-85
-85
-85
-85
-85
-85
-85
-85
-85
-85
-86
-86
-85
-85
-85
-85
-85
-85
-85
-85
-85
-85
-85
-84
-84
-85
-85
-85
-85
-85
-85
-85
-85
-85
-85
-85
-85
-85
-85
-85
-85
-85
-85
-85
-85
-85
-85
-84
-84
-84
-84
-85
-85
-85
-85
-85
-85
-86
-86
-86
-86
-86
-86
-86
-87
-87
-87
-87
-87
-86
-86
-86
-87
-87
-87
-87
-87
-87
-88
-88
-88
-88
-88
-88
-89
-89
-89
-90
-90
-90
-90
-90
-90
-90
-90
-90
-90
-90
-90
-90
-90
-90
-91
-91
-92
-92
-92
-93
-92
-93
-93
-94
-94
-95
-94
-95
-95
-95
-96
-96
-96
-96
-96
-96
-96
-96
-96
-96
-97
-97
-98
-97
-97
-98
-98
-98
-99
-99
-99
-99
-99
-100
-100
-101
-101
-101
-101
-100
-100
-101
-101
-100
-101
-100
-100
-99
-100
-99
-100
-99
-98
-99
-98
-98
-98
-98
-97
-97
-97
-97
-97
-97
-97
-96
-96
-96
-96
-96
-95
-95
-94
-94
-94
-93
-92
-92
-91
-90
-90
-90
-89
-89
-88
-88
-87
-88
-87
-87
-87
-87
-87
-87
-87
-87
-88
-88
-88
-88
-88
-88
-88
-87
-87
-87
-87
-88
-88
-88
-88
-87
-87
-87
-87
-87
-87
-87
-87
-87
-87
-86
-86
-86
-86
-86
-85
-86
-86
-85
-85
-85
-85
-86
-86
-86
-86
-86
-86
-86
-86
-85
-86
-86
-87
-87
-87
-88
-89
-90
-92
-93
-94
-96
-98
-100
-102
-104
-107
-110
-113
-118
-122
-126
-131
-136
-142
-148
-156
-163
-171
-180
-188
-199
-209
-220
-231
-243
-255
-267
-278
-290
-301
-312
-321
-330
-338
-344
-349
-352
-354
-354
-351
-348
-342
-334
-325
-315
-303
-290
-275
-260
-245
-229
-214
-197
-181
-167
-152
-138
-124
-113
-103
-94
-85
-79
-74
-69
-67
-64
-64
-63
-63
-64
-65
-68
-70
-73
-75
-77
-80
-82
-84
-86
-88
-89
-91
-93
-94
-95
-96
-96
-97
-96
-97
-96
-96
-97
-97
-97
-97
-97
-97
-97
-97
-97
-97
-97
-97
-98
-99
-99
-100
-100
-101
-101
-102
-102
-103
-103
-104
-103
-104
-104
-104
-104
-104
-104
-104
-104
-104
-104
-104
-104
-104
-104
-104
-104
-104
-105
-105
-106
-106
-106
-106
-106
-107
-108
-108
-108
-108
-109
-109
-109
-110
-110
-110
-110
-110
-110
-110
-110
-110
-111
-111
-111
-111
-111
-111
-111
-111
-111
-112
-112
-112
-112
-112
-112
-112
-112
-112
-112
-113
-113
-113
-114
-114
-114
-114
-114
-115
-115
-116
-117
-116
-117
-118
-118
-118
-119
-119
-118
-119
-119
-120
-121
-121
-121
-122
-122
-122
-123
-124
-124
-125
-125
-126
-127
-127
-128
-129
-129
-130
-131
-132
-132
-132
-134
-134
-135
-136
-136
-137
-137
-137
-138
-139
-139
-139
-141
-142
-143
-143
-145
-145
-146
-146
-148
-149
-149
-150
-152
-152
-153
-154
-155
-156
-157
-158
-159
-160
-161
-162
-163
-164
-165
-166
-168
-169
-170
-172
-172
-173
-175
-176
-177
-179
-180
-181
-182
-183
-185
-186
-187
-189
-189
-190
-191
-192
-193
-193
-195
-196
-197
-198
-198
-199
-199
-200
-201
-201
-202
-203
-203
-203
-204
-204
-204
-205
-205
-206
-207
-207
-207
-207
-207
-208
-208
-208
-209
-208
-209
-209
-210
-209
-209
-209
-208
-208
-207
-206
-206
-206
-205
-204
-202
-202
-201
-200
-198
-197
-196
-195
-193
-193
-191
-189
-188
-186
-184
-184
-182
-181
-179
-177
-175
-174
-173
-171
-169
-168
-166
-165
-163
-161
-160
-158
-157
-155
-154
-152
-152
-150
-149
-147
-147
-145
-144
-142
-141
-140
-138
-137
-135
-135
-134
-133
-132
-131
-130
-129
-129
-127
-127
-126
-125
-124
-123
-123
-121
-120
-120
-119
-118
-117
-116
-115
-115
-114
-113
-113
-112
-111
-111
-110
-109
-109
-109
-108
-108
-107
-107
-106
-106
-106
-106
-105
-105
-104
-104
-105
-104
-104
-103
-104
-104
-103
-103
-104
-104
-103
-104
-104
-104
-104
-104
-104
-105
-105
-105
-105
-105
-105
-105
-105
-105
-105
-104
-104
-104
-104
-104
-103
-103
-102
-102
-102
-101
-101
-101
-100
-100
-100
-100
-100
-100
-100
-100
-101
-101
-101
-102
-102
-102
-103
-103
-104
-104
-105
-104
-105
-105
-105
-106
-106
-106
-105
-106
-106
-106
-106
-106
-106
-106
-105
-105
-105
-106
-106
-105
-105
-106
-106
-106
-106
-106
-106
-106
-106
-107
-107
-107
-107
-107
-108
-108
-107
-108
-108
-108
-108
-109
-108
-108
-108
-109
-109
-109
-110
-110
-110
-111
-111
-111
-112
-112
-112
-112
-112
-112
-112
-112
-112
-112
-112
-112
-112
-112
-111
-111
-112
-111
-111
-111
-111
-110
-110
-110
-110
-111
-111
-111
-110
-111
-111
-111
-111
-111
-112
-112
-112
-112
-113
-113
-113
-113
-113
-113
-113
-114
-113
-113
-113
-113
-113
-113
-113
-113
-113
-112
-112
-112
-112
-113
-113
-113
-113
-113
-113
-113
-113
-112
-113
-113
-112
-112
-112
-112
-111
-111
-111
-112
-112
-111
-110
-110
-110
-109
-109
-109
-109
-109
-109
-109
-109
-109
-109
-108
-108
-108
-108
-108
-108
-108
-108
-108
-108
-109
-109
-109
-109
-109
-108
-108
-108
-108
-108
-107
-108
-108
-107
-106
-107
-106
-106
-105
-105
-104
-104
-104
-104
-104
-104
-104
-104
-104
-104
-104
-104
-104
-105
-105
-105
-105
-105
-105
-105
-105
-105
-105
-105
-106
-106
-105
-105
-105
-105
-105
-105
-105
-104
-104
-103
-103
-103
-103
-102
-102
-102
-102
-102
-101
-101
-100
-100
-101
-100
-100
-100
-100
-100
-99
-100
-100
-100
-100
-101
-100
-101
-101
-101
-102
-102
-102
-102
-103
-103
-103
-103
-103
-103
-103
-103
-103
-103
-103
-104
-104
-104
-103
-102
-102
-102
-102
-103
-103
-103
-103
-103
-103
-103
-103
-103
-103
-103
-103
-102
-101
-101
-101
-101
-101
-101
-101
-102
-101
-101
-101
-101
-101
-101
-101
-101
-102
-102
-102
-102
-102
-102
-102
-103
-103
-102
-102
-102
-102
-101
-102
-101
-101
-100
-100
-99
-99
-98
-98
-97
-97
-97
-96
-96
-96
-96
-96
-96
-96
-96
-96
-96
-96
-96
-97
-97
-98
-97
-97
-97
-98
-98
-98
-97
-97
-97
-97
-97
-97
-97
-97
-97
-97
-97
-97
-97
-98
-98
-98
-98
-98
-98
-99
-100
-100
-100
-101
-101
-101
-102
-102
-102
-101
-101
-102
-102
-102
-101
-101
-101
-101
-101
-101
-101
-100
-100
-100
-100
-101
-100
-100
-100
-100
-99
-99
-99
-99
-99
-99
-99
-99
-98
-98
-98
-98
-98
-98
-98
-98
-97
-98
-98
-98
-98
-98
-98
-98
-98
-98
-98
-98
-98
-98
-98
-98
-98
-98
-98
-98
-98
-98
-98
-97
-97
-97
-97
-97
-97
-97
-97
-96
-96
-96
-96
-96
-96
-96
-97
-97
-97
-97
-97
-98
-98
-98
-96
-96
-96
-96
-96
-96
-96
-96
-96
-96
-96
-96
-95
-96
-96
-95
-95
-96
-96
-96
-97
-97
-97
-97
-97
-97
-97
-98
-98
-97
-98
-98
-97
-98
-98
-98
-97
-97
-97
-97
-97
-97
-98
-97
-97
-97
-98
-97
-97
-98
-97
-98
-97
-98
-98
-98
-99
-99
-99
-99
-99
-99
-99
-100
-100
-100
-100
-99
-99
-100
-100
-100
-100
-99
-99
-99
-99
-99
-99
-98
-98
-98
-98
-98
-98
-98
-97
-98
-98
-98
-98
-98
-99
-99
-99
-100
-100
-100
-101
-101
-101
-101
-102
-102
-103
-103
-103
-103
-102
-102
-102
-102
-102
-102
-102
-102
-103
-102
-102
-103
-103
-103
-104
-103
-104
-105
-105
-106
-106
-107
-107
-107
-108
-108
-108
-109
-109
-109
-110
-110
-109
-109
-109
-110
-110
-110
-110
-111
-111
-111
-111
-112
-111
-112
-112
-112
-113
-113
-113
-113
-113
-113
-113
-113
-113
-114
-113
-113
-113
-113
-113
-112
-113
-112
-112
-113
-112
-112
-113
-112
-113
-112
-112
-111
-112
-111
-111
-110
-109
-109
-109
-108
-108
-107
-107
-105
-104
-104
-104
-102
-102
-101
-100
-100
-100
-99
-99
-98
-98
-98
-98
-97
-97
-97
-97
-97
-97
-97
-98
-98
-98
-98
-98
-99
-98
-98
-98
-98
-99
-99
-98
-98
-98
-98
-98
-98
-98
-98
-97
-97
-97
-96
-96
-96
-96
-96
-96
-96
-97
-97
-97
-97
-98
-98
-98
-98
-99
-99
-99
-99
-99
-99
-99
-99
-99
-99
-99
-99
-99
-100
-100
-101
-100
-101
-102
-104
-104
-107
-108
-109
-112
-114
-117
-120
-124
-128
-132
-136
-142
-148
-153
-160
-167
-175
-184
-193
-203
-213
-223
-234
-245
-256
-269
-281
-292
-303
-312
-321
-329
-336
-340
-345
-347
-349
-347
-345
-341
-334
-328
-319
-307
-296
-282
-269
-255
-239
-224
-208
-193
-178
-165
-151
-138
-127
-115
-106
-97
-90
-84
-79
-76
-74
-71
-70
-69
-69
-70
-71
-73
-75
-77
-79
-81
-83
-86
-89
-91
-92
-95
-96
-97
-99
-100
-101
-103
-103
-104
-104
-105
-105
-106
-105
-106
-106
-106
-106
-107
-107
-106
-107
-107
-107
-107
-107
-106
-106
-107
-107
-107
-107
-108
-108
-108
-108
-107
-108
-108
-108
-109
-109
-109
-109
-110
-110
-110
-110
-111
-111
-112
-112
-113
-112
-113
-114
-113
-114
-114
-114
-114
-115
-115
-115
-116
-115
-115
-115
-115
-115
-115
-115
-114
-114
-114
-115
-115
-115
-115
-116
-116
-116
-116
-117
-117
-117
-117
-118
-118
-119
-119
-120
-120
-121
-121
-122
-123
-123
-123
-123
-123
-123
-124
-124
-125
-125
-125
-125
-126
-127
-126
-127
-127
-127
-128
-128
-128
-129
-129
-130
-130
-131
-131
-131
-131
-132
-132
-132
-132
-132
-133
-133
-134
-134
-134
-134
-135
-136
-136
-137
-138
-138
-139
-140
-140
-141
-142
-144
-145
-146
-147
-148
-149
-150
-151
-152
-153
-154
-155
-155
-156
-157
-158
-159
-158
-159
-160
-161
-162
-162
-163
-164
-165
-166
-167
-168
-168
-169
-171
-172
-172
-174
-175
-176
-177
-179
-179
-180
-181
-182
-183
-185
-186
-187
-189
-190
-191
-192
-193
-195
-196
-197
-199
-200
-201
-202
-203
-205
-206
-207
-207
-208
-208
-209
-209
-210
-210
-210
-210
-211
-210
-211
-211
-211
-211
-211
-212
-212
-212
-212
-212
-212
-213
-213
-213
-214
-214
-213
-213
-213
-212
-213
-212
-211
-210
-209
-208
-208
-207
-206
-205
-204
-203
-202
-200
-199
-198
-197
-196
-194
-193
-192
-192
-190
-189
-187
-185
-184
-183
-182
-180
-178
-177
-175
-174
-172
-170
-169
-167
-165
-163
-162
-160
-159
-158
-156
-155
-153
-152
-150
-149
-147
-146
-144
-143
-141
-141
-139
-138
-137
-136
-134
-132
-132
-131
-129
-128
-127
-126
-126
-125
-124
-123
-122
-122
-122
-121
-120
-120
-120
-120
-119
-119
-118
-118
-118
-117
-118
-117
-117
-116
-116
-115
-114
-113
-113
-113
-112
-112
-111
-111
-110
-110
-111
-110
-110
-109
-109
-110
-110
-110
-110
-110
-110
-111
-111
-111
-111
-111
-111
-112
-112
-112
-112
-112
-112
-112
-113
-113
-114
-114
-114
-113
-113
-113
-113
-113
-112
-112
-112
-112
-112
-112
-112
-111
-111
-111
-110
-111
-110
-110
-111
-110
-110
-110
-111
-110
-110
-110
-110
-111
-111
-111
-111
-111
-112
-112
-112
-112
-113
-113
-113
-114
-114
-114
-114
-115
-115
-115
-115
-115
-115
-115
-115
-115
-114
-114
-114
-115
-115
-114
-115
-115
-114
-115
-115
-115
-115
-116
-116
-116
-117
-116
-117
-117
-117
-118
-118
-118
-118
-118
-119
-119
-119
-119
-120
-120
-120
-120
-120
-122
-122
-122
-122
-123
-123
-124
-124
-124
-124
-124
-124
-124
-124
-124
-123
-123
-123
-122
-122
-122
-122
-122
-122
-122
-121
-122
-122
-122
-123
-123
-123
-123
-123
-123
-124
-124
-124
-124
-124
-124
-124
-123
-123
-123
-123
-123
-123
-123
-123
-122
-122
-123
-123
-123
-124
-124
-124
-124
-124
-125
-125
-125
-126
-126
-126
-126
-126
-126
-127
-126
-126
-125
-125
-125
-125
-124
-124
-123
-123
-122
-122
-122
-121
-121
-120
-120
-120
-120
-120
-120
-121
-120
-120
-121
-121
-121
-121
-122
-122
-122
-121
-122
-122
-122
-122
-122
-123
-123
-123
-123
-123
-123
-123
-123
-123
-123
-123
-123
-123
-124
-124
-124
-124
-124
-124
-124
-124
-124
-123
-124
-123
-123
-123
-122
-122
-121
-121
-120
-120
-119
-119
-119
-119
-118
-118
-118
-118
-117
-118
-118
-117
-118
-118
-119
-119
-119
-120
-120
-120
-120
-120
-120
-120
-120
-120
-120
-121
-121
-121
-121
-121
-121
-120
-120
-120
-120
-119
-119
-119
-120
-120
-119
-119
-119
-119
-118
-118
-118
-118
-118
-118
-117
-117
-117
-117
-117
-117
-116
-116
-116
-116
-116
-116
-116
-116
-117
-117
-117
-117
-117
-118
-118
-118
-119
-119
-119
-119
-120
-120
-120
-120
-120
-121
-121
-121
-121
-121
-121
-121
-120
-121
-120
-120
-120
-120
-120
-120
-120
-120
-120
-119
-119
-119
-119
-119
-119
-119
-119
-118
-118
-118
-118
-118
-118
-118
-118
-118
-118
-118
-118
-118
-117
-117
-117
-116
-117
-117
-116
-116
-116
-116
-116
-115
-115
-115
-115
-116
-115
-115
-115
-115
-115
-115
-115
-115
-115
-115
-115
-115
-116
-117
-117
-117
-117
-118
-118
-118
-118
-119
-119
-119
-119
-119
-120
-120
-121
-120
-120
-121
-120
-121
-120
-120
-120
-120
-120
-120
-120
-120
-121
-121
-121
-121
-121
-122
-122
-123
-123
-123
-124
-124
-125
-126
-126
-126
-126
-126
-127
-127
-127
-126
-127
-127
-127
-127
-127
-127
-127
-127
-127
-127
-127
-127
-127
-128
-128
-128
-128
-128
-128
-128
-128
-128
-128
-128
-128
-128
-128
-128
-127
-127
-126
-126
-126
-126
-125
-125
-125
-124
-123
-123
-122
-122
-120
-120
-119
-119
-119
-118
-117
-116
-115
-115
-114
-113
-112
-112
-111
-110
-109
-109
-108
-108
-108
-108
-107
-107
-107
-107
-107
-107
-108
-108
-108
-108
-108
-109
-109
-109
-109
-108
-108
-108
-108
-108
-108
-107
-107
-107
-107
-106
-106
-106
-106
-106
-105
-105
-105
-105
-105
-105
-106
-106
-106
-106
-106
-106
-107
-106
-106
-106
-107
-107
-107
-107
-107
-108
-108
-108
-108
-108
-108
-108
-108
-108
-108
-108
-109
-109
-110
-110
-111
-112
-112
-114
-115
-117
-118
-119
-122
-124
-126
-129
-132
-135
-139
-143
-148
-153
-158
-164
-170
-177
-185
-193
-201
-210
-219
-229
-240
-250
-261
-272
-283
-293
-303
-313
-322
-329
-337
-342
-346
-349
-350
-349
-347
-344
-339
-332
-323
-313
-303
-290
-276
-262
-247
-232
-217
-202
-187
-172
-159
-146
-134
-123
-113
-105
-98
-91
-86
-82
-79
-77
-76
-75
-75
-76
-77
-78
-79
-81
-82
-84
-87
-89
-91
-93
-94
-96
-97
-98
-100
-101
-101
-102
-104
-104
-104
-105
-105
-106
-106
-107
-107
-107
-108
-108
-108
-108
-108
-109
-109
-109
-108
-108
-108
-108
-108
-107
-107
-107
-106
-106
-106
-106
-105
-105
-105
-105
-105
-105
-104
-105
-105
-106
-106
-105
-106
-106
-106
-107
-107
-107
-108
-108
-108
-108
-109
-109
-109
-109
-109
-110
-110
-110
-110
-110
-110
-110
-110
-110
-110
-111
-111
-112
-112
-112
-113
-113
-114
-114
-114
-115
-115
-115
-115
-115
-115
-115
-115
-115
-115
-115
-115
-116
-116
-116
-116
-116
-116
-116
-116
-116
-116
-117
-117
-118
-117
-118
-118
-118
-118
-118
-118
-118
-117
-117
-117
-118
-118
-118
-118
-118
-118
-118
-118
-119
-120
-120
-120
-121
-121
-122
-123
-124
-124
-125
-125
-126
-127
-127
-128
-128
-129
-129
-130
-131
-131
-132
-133
-133
-134
-134
-135
-136
-136
-137
-138
-138
-139
-140
-140
-141
-142
-142
-143
-144
-145
-145
-146
-146
-148
-148
-149
-150
-150
-151
-152
-153
-154
-155
-155
-156
-158
-158
-159
-160
-162
-162
-164
-165
-166
-167
-169
-170
-171
-173
-174
-175
-176
-177
-178
-179
-180
-181
-182
-183
-183
-184
-185
-185
-185
-186
-186
-187
-186
-187
-187
-188
-188
-188
-188
-188
-188
-188
-188
-187
-186
-186
-185
-185
-184
-184
-183
-183
-182
-182
-181
-180
-179
-178
-176
-175
-174
-173
-172
-172
-171
-170
-168
-167
-166
-165
-163
-162
-160
-159
-158
-157
-155
-154
-153
-151
-150
-148
-147
-146
-144
-143
-140
-139
-138
-136
-134
-132
-131
-129
-127
-126
-124
-123
-121
-119
-117
-116
-114
-113
-112
-110
-109
-107
-105
-105
-103
-101
-101
-99
-99
-97
-95
-95
-93
-92
-91
-90
-89
-89
-87
-86
-85
-85
-84
-83
-83
-82
-81
-80
-79
-78
-78
-77
-76
-76
-76
-75
-75
-74
-74
-73
-74
-74
-73
-73
-73
-73
-72
-73
-72
-72
-71
-72
-72
-71
-70
-70
-70
-69
-68
-68
-67
-67
-66
-66
-65
-65
-64
-63
-63
-62
-62
-62
-62
-61
-61
-61
-61
-60
-60
-60
-60
-59
-59
-60
-60
-60
-60
-59
-59
-60
-60
-59
-59
-59
-59
-59
-59
-59
-59
-59
-58
-58
-58
-59
-59
-59
-59
-59
-58
-58
-58
-58
-58
-58
-59
-59
-59
-59
-58
-58
-58
-58
-57
-57
-57
-56
-56
-56
-55
-55
-54
-54
-53
-53
-53
-53
-53
-53
-53
-53
-53
-53
-53
-53
-54
-54
-54
-54
-54
-55
-55
-55
-55
-55
-55
-57
-57
-57
-56
-56
-56
-57
-57
-56
-56
-56
-56
-56
-56
-56
-56
-55
-55
-55
-55
-55
-54
-54
-54
-54
-54
-53
-54
-54
-53
-53
-53
-53
-53
-52
-52
-52
-52
-51
-52
-52
-51
-51
-51
-51
-51
-51
-51
-51
-51
-51
-50
-51
-51
-51
-51
-51
-51
-51
-52
-51
-51
-51
-51
-51
-51
-51
-50
-50
-50
-49
-49
-49
-49
-49
-49
-49
-49
-49
-48
-48
-48
-47
-47
-48
-48
-47
-46
-46
-46
-46
-46
-45
-45
-44
-44
-43
-43
-43
-42
-42
-41
-41
-41
-41
-40
-40
-40
-39
-39
-39
-39
-40
-40
-40
-39
-39
-39
-38
-38
-38
-38
-38
-38
-38
-38
-37
-37
-37
-37
-36
-37
-37
-36
-36
-35
-35
-35
-35
-34
-35
-35
-34
-34
-34
-34
-33
-33
-33
-33
-32
-32
-32
-32
-32
-31
-31
-32
-31
-31
-30
-30
-30
-29
-29
-28
-28
-27
-28
-28
-27
-26
-26
-25
-25
-25
-24
-24
-23
-23
-23
-24
-24
-24
-23
-22
-22
-22
-22
-22
-22
-22
-22
-21
-21
-21
-22
-22
-22
-22
-22
-22
-21
-22
-22
-21
-21
-22
-21
-21
-21
-21
-21
-21
-20
-20
-20
-19
-19
-18
-18
-18
-17
-16
-16
-17
-16
-16
-16
-16
-15
-15
-15
-14
-14
-14
-15
-14
-14
-14
-15
-15
-15
-14
-14
-14
-14
-14
-15
-14
-14
-14
-14
-14
-13
-13
-14
-14
-13
-14
-15
-14
-15
-15
-16
-16
-16
-16
-17
-17
-16
-17
-17
-17
-18
-18
-18
-17
-17
-17
-17
-17
-17
-17
-17
-17
-17
-17
-17
-17
-17
-17
-17
-17
-17
-18
-18
-18
-18
-18
-18
-18
-18
-18
-17
-17
-18
-18
-17
-17
-17
-16
-17
-17
-16
-16
-16
-15
-15
-15
-15
-14
-14
-13
-13
-13
-12
-12
-11
-11
-10
-9
-9
-8
-8
-7
-6
-6
-5
-4
-3
-3
-2
-1
0
0
1
1
2
2
3
3
4
4
4
5
6
6
7
7
7
7
8
8
8
8
8
8
9
9
9
10
10
10
10
10
10
10
10
10
10
10
10
10
10
11
11
11
12
12
12
12
12
12
13
13
13
13
14
14
13
14
14
15
15
15
15
15
16
16
16
16
16
15
16
16
16
15
15
14
14
12
11
10
9
8
5
3
1
-2
-5
-7
-11
-15
-19
-23
-29
-34
-40
-47
-53
-62
-70
-78
-87
-97
-107
-117
-128
-139
-150
-161
-172
-182
-192
-201
-209
-216
-221
-225
-228
-228
-227
-224
-220
-215
-207
-198
-187
-175
-163
-149
-134
-119
-103
-87
-74
-58
-44
-31
-18
-5
6
15
24
31
38
43
46
49
52
53
54
53
52
51
50
47
45
43
41
39
37
35
33
32
30
28
27
26
25
24
23
23
22
21
22
21
20
21
20
20
20
21
21
20
20
21
21
21
22
22
22
23
23
23
23
23
23
24
24
25
25
25
24
24
24
24
24
24
22
22
22
22
21
21
21
20
20
20
20
20
20
20
20
20
20
20
20
20
20
20
20
20
20
20
20
20
20
20
20
20
19
19
19
19
19
19
19
18
18
17
17
18
18
17
17
17
16
16
16
17
17
17
16
16
16
16
16
16
15
15
15
14
14
14
14
14
14
14
14
13
13
13
13
13
13
12
12
12
11
10
10
9
9
8
8
7
6
7
6
5
4
4
3
2
2
2
1
1
1
0
-1
-2
-2
-2
-3
-4
-4
-5
-7
-7
-8
-9
-10
-11
-12
-13
-14
-15
-16
-16
-18
-19
-20
-21
-23
-23
-24
-25
-27
-28
-29
-29
-31
-32
-33
-33
-35
-36
-37
-38
-39
-40
-41
-42
-43
-44
-45
-46
-47
-47
-48
-49
-49
-51
-52
-53
-53
-54
-55
-56
-57
-58
-59
-60
-61
-62
-63
-63
-64
-65
-66
-66
-66
-67
-68
-68
-68
-68
-68
-69
-68
-68
-69
-69
-68
-68
-68
-68
-68
-67
-66
-66
-65
-64
-64
-63
-62
-60
-59
-58
-57
-56
-54
-53
-52
-50
-50
-48
-47
-45
-44
-42
-40
-39
-38
-36
-35
-34
-33
-31
-29
-28
-27
-24
-23
-22
-20
-19
-17
-16
-14
-13
-11
-10
-8
-6
-4
-4
-2
-1
0
2
3
4
6
7
8
9
11
12
14
14
15
17
18
19
21
22
24
24
26
28
29
30
31
32
33
34
34
35
36
36
36
37
37
37
38
37
38
38
37
38
38
38
38
38
39
39
40
40
41
41
42
42
43
43
43
44
44
44
45
45
45
46
46
47
47
47
47
47
47
47
47
47
46
46
46
47
47
47
47
46
46
46
46
46
47
47
47
47
47
46
46
46
47
47
46
46
47
47
46
46
46
46
45
45
45
45
44
44
44
45
45
45
46
46
46
45
47
46
46
46
46
46
46
46
47
47
47
47
46
46
46
46
45
46
46
45
45
45
45
45
44
44
44
44
44
45
45
44
45
45
45
45
44
44
45
44
44
44
44
44
44
44
44
43
43
44
44
44
44
44
44
44
44
44
44
44
44
45
45
45
45
45
45
45
45
45
45
44
45
44
44
44
44
43
44
44
44
43
43
43
43
43
43
43
43
43
43
43
43
43
43
42
42
42
42
41
41
41
41
41
41
41
40
40
40
39
40
39
39
38
39
39
38
38
38
38
38
38
38
37
37
37
37
38
37
37
38
37
37
37
37
37
38
38
38
38
39
39
39
40
40
40
40
40
40
40
40
40
41
41
41
41
41
41
41
42
42
42
42
43
43
43
43
43
44
44
45
45
44
44
44
45
45
44
44
44
44
44
44
43
43
42
42
42
42
42
41
41
41
41
42
42
42
42
42
43
43
43
43
43
43
43
43
43
44
44
43
43
43
44
44
44
44
43
43
43
43
43
43
43
43
42
42
42
42
41
41
41
40
40
39
39
39
39
39
39
39
39
39
39
39
40
40
40
40
40
41
41
41
41
41
42
42
42
42
42
42
43
43
43
43
43
43
43
43
43
43
43
44
43
43
43
43
44
44
44
44
44
43
43
42
42
42
42
43
43
43
43
43
43
44
44
45
44
44
44
43
44
44
43
43
43
43
43
43
42
42
42
42
42
42
42
42
42
42
42
43
42
43
43
44
44
44
45
45
45
45
46
46
46
46
46
46
46
45
45
44
45
45
45
43
43
43
43
42
42
42
41
41
40
40
41
41
41
41
41
41
41
42
42
42
43
43
43
43
43
44
44
44
44
45
44
44
45
45
45
45
45
46
46
46
46
46
46
46
47
47
46
47
47
46
46
46
45
45
45
45
45
45
44
44
44
43
44
44
44
43
43
44
43
43
43
44
44
44
44
44
44
45
46
46
46
46
46
46
46
46
46
46
47
47
46
47
47
47
46
46
46
46
46
46
45
45
45
45
45
45
45
45
45
45
44
45
45
45
45
44
44
44
44
44
44
44
44
44
44
44
43
43
43
44
43
43
44
44
43
43
43
43
42
43
43
43
42
43
43
43
43
43
42
43
42
42
41
41
41
40
39
39
38
38
38
36
36
36
35
35
34
34
33
33
33
33
33
33
33
33
33
33
33
34
34
33
33
33
33
33
33
33
33
33
33
33
32
32
32
32
32
31
31
31
32
31
32
32
32
32
32
32
32
33
32
33
33
34
33
34
35
34
35
35
36
37
37
38
39
39
40
41
41
42
42
43
43
44
44
44
44
44
46
46
46
46
46
46
45
45
45
46
45
45
44
45
45
45
45
45
45
45
45
45
46
46
46
45
45
45
45
46
46
45
46
46
46
46
46
46
46
46
45
45
45
45
45
45
44
44
44
44
44
43
43
43
44
43
43
43
44
44
43
43
44
43
43
42
41
41
39
39
37
36
34
33
30
27
24
22
19
15
11
8
3
-2
-7
-13
-19
-26
-33
-41
-49
-58
-68
-77
-88
-98
-110
-120
-132
-144
-155
-167
-177
-186
-194
-202
-208
-212
-215
-216
-215
-212
-209
-204
-196
-187
-176
-164
-151
-136
-121
-105
-90
-74
-59
-43
-29
-14
-1
11
24
34
42
50
57
62
65
68
70
71
72
71
70
68
65
63
60
57
54
51
49
46
44
41
39
37
35
34
32
32
31
31
30
30
30
29
30
29
29
30
30
30
30
30
30
31
31
31
31
31
32
32
31
31
31
31
31
30
30
30
29
29
29
28
28
28
28
28
28
27
27
26
26
25
25
25
25
24
24
24
24
23
23
22
21
22
21
21
20
20
19
19
19
19
19
19
19
18
18
17
17
17
17
18
18
18
18
18
17
17
17
17
17
17
16
16
17
16
16
15
15
14
14
13
12
12
11
11
10
9
9
8
7
7
6
6
5
5
4
4
4
3
3
2
2
2
1
2
1
0
0
0
0
-1
-2
-2
-3
-3
-4
-5
-6
-7
-7
-8
-9
-9
-10
-11
-11
-12
-13
-14
-14
-15
-15
-16
-16
-16
-17
-18
-19
-20
-21
-21
-22
-22
-24
-25
-26
-27
-29
-30
-31
-32
-33
-35
-36
-37
-38
-39
-40
-41
-42
-44
-45
-47
-48
-50
-50
-52
-53
-55
-56
-57
-58
-59
-60
-62
-63
-64
-66
-66
-68
-69
-70
-71
-72
-72
-74
-75
-75
-76
-77
-78
-79
-79
-81
-82
-83
-83
-84
-85
-85
-85
-85
-86
-87
-88
-88
-88
-89
-90
-91
-91
-92
-92
-92
-92
-92
-92
-93
-93
-93
-93
-92
-92
-92
-92
-91
-91
-90
-89
-88
-87
-86
-84
-83
-82
-82
-81
-79
-77
-76
-74
-73
-71
-70
-68
-66
-65
-62
-60
-59
-58
-56
-54
-52
-52
-50
-48
-47
-46
-44
-43
-42
-41
-39
-39
-37
-35
-35
-34
-32
-32
-31
-29
-28
-26
-26
-24
-23
-21
-21
-19
-18
-17
-15
-14
-12
-11
-10
-9
-8
-7
-5
-4
-3
-2
-1
-1
0
1
1
2
1
2
2
2
2
2
2
2
2
2
3
3
2
2
3
3
3
4
4
4
5
5
5
6
6
6
7
7
7
8
8
8
8
8
8
8
8
8
9
9
9
9
8
9
9
9
9
9
9
9
9
9
9
10
10
10
9
10
10
10
9
10
10
9
9
10
9
8
8
8
8
8
7
8
8
8
8
6
6
7
6
6
6
5
5
5
4
5
5
4
4
3
3
3
2
3
2
1
2
2
1
1
1
2
2
2
1
1
1
0
1
0
0
0
0
-1
-1
-2
-2
-3
-3
-4
-5
-5
-5
-5
-6
-6
-6
-7
-7
-7
-7
-7
-7
-7
-6
-6
-6
-5
-5
-5
-5
-5
-5
-5
-5
-4
-5
-5
-6
-6
-6
-6
-6
-5
-6
-6
-6
-6
-6
-7
-7
-7
-7
-7
-7
-7
-7
-7
-7
-7
-7
-7
-7
-8
-7
-7
-7
-8
-8
-8
-8
-9
-9
-8
-9
-9
-9
-9
-9
-9
-9
-9
-9
-9
-9
-9
-9
-10
-10
-9
-10
-10
-10
-11
-11
-11
-11
-11
-11
-11
-12
-12
-12
-11
-12
-12
-12
-11
-11
-11
-10
-10
-10
-11
-10
-10
-10
-9
-9
-9
-9
-8
-8
-8
-9
-9
-9
-9
-9
-8
-8
-9
-9
-9
-9
-9
-9
-10
-10
-10
-10
-11
-11
-11
-11
-11
-11
-11
-11
-10
-10
-10
-9
-9
-9
-9
-9
-9
-9
-8
-8
-7
-7
-6
-6
-6
-6
-6
-6
-6
-6
-5
-5
-5
-6
-6
-6
-6
-7
-7
-6
-7
-7
-8
-8
-9
-9
-9
-10
-10
-10
-11
-11
-11
-11
-11
-12
-12
-12
-12
-12
-12
-12
-11
-11
-11
-11
-10
-10
-10
-10
-9
-9
-9
-9
-8
-8
-9
-9
-9
-8
-8
-8
-8
-8
-8
-9
-9
-9
-9
-9
-8
-9
-9
-9
-10
-10
-9
-10
-10
-9
-10
-10
-11
-11
-11
-11
-11
-12
-11
-10
-10
-10
-10
-11
-11
-11
-11
-10
-10
-10
-9
-10
-10
-10
-9
-9
-9
-10
-10
-10
-10
-10
-10
-11
-11
-11
-11
-12
-12
-12
-12
-11
-11
-11
-11
-11
-11
-11
-11
-11
-10
-10
-9
-10
-10
-9
-9
-8
-8
-8
-9
-9
-9
-10
-9
-10
-10
-11
-11
-11
-11
-11
-12
-12
-12
-12
-12
-11
-11
-12
-12
-12
-11
-11
-11
-11
-11
-11
-11
-12
-12
-12
-12
-12
-13
-13
-13
-14
-14
-14
-14
-14
-14
-14
-14
-14
-14
-14
-14
-14
-13
-13
-14
-14
-14
-13
-13
-13
-13
-13
-12
-12
-13
-12
-12
-12
-12
-13
-13
-12
-12
-11
-11
-11
-11
-11
-12
-12
-13
-13
-14
-14
-14
-14
-14
-15
-15
-15
-15
-15
-15
-15
-15
-15
-15
-15
-15
-14
-14
-14
-13
-13
-13
-13
-12
-11
-11
-11
-11
-11
-11
-12
-12
-13
-13
-12
-13
-14
-14
-14
-14
-14
-15
-15
-16
-16
-16
-16
-17
-17
-17
-17
-17
-17
-17
-17
-16
-16
-16
-16
-15
-15
-14
-14
-14
-13
-13
-13
-13
-13
-13
-14
-14
-14
-14
-15
-15
-15
-15
-16
-17
-17
-17
-18
-18
-18
-19
-19
-20
-20
-21
-21
-21
-21
-21
-22
-22
-21
-22
-22
-23
-23
-24
-23
-24
-23
-24
-25
-24
-25
-25
-25
-26
-26
-26
-26
-27
-27
-27
-28
-28
-28
-28
-29
-29
-29
-30
-31
-31
-31
-31
-31
-32
-32
-32
-33
-33
-33
-33
-33
-32
-33
-33
-33
-33
-32
-32
-32
-32
-32
-31
-31
-31
-30
-30
-31
-30
-30
-29
-29
-29
-29
-28
-29
-28
-28
-28
-28
-28
-27
-28
-28
-27
-26
-26
-26
-26
-26
-26
-25
-25
-24
-24
-24
-23
-23
-22
-22
-22
-22
-21
-21
-21
-21
-21
-20
-20
-20
-20
-19
-19
-19
-19
-19
-19
-18
-18
-18
-18
-19
-19
-19
-19
-19
-19
-20
-20
-20
-20
-21
-22
-22
-21
-22
-22
-22
-22
-23
-23
-23
-23
-23
-23
-23
-23
-23
-23
-23
-23
-23
-22
-22
-23
-23
-22
-23
-23
-22
-22
-22
-23
-22
-23
-23
-25
-25
-27
-28
-29
-31
-32
-34
-36
-38
-40
-43
-46
-49
-52
-56
-61
-64
-70
-76
-84
-90
-99
-107
-117
-127
-138
-148
-160
-172
-184
-196
-209
-222
-233
-244
-254
-262
-270
-276
-281
-284
-285
-284
-281
-276
-270
-263
-254
-243
-231
-217
-201
-186
-170
-155
-139
-123
-108
-93
-79
-66
-54
-43
-33
-25
-17
-11
-6
-1
2
4
6
6
6
4
4
1
-1
-3
-5
-8
-10
-13
-15
-18
-20
-22
-24
-26
-28
-29
-30
-31
-32
-33
-33
-34
-33
-34
-34
-34
-34
-34
-34
-34
-34
-33
-34
-34
-33
-33
-33
-33
-33
-33
-34
-34
-33
-34
-34
-34
-34
-34
-34
-34
-34
-34
-34
-33
-34
-34
-34
-34
-35
-35
-36
-35
-36
-36
-36
-37
-37
-38
-38
-38
-38
-39
-39
-39
-39
-39
-39
-39
-39
-39
-39
-39
-38
-38
-39
-39
-39
-40
-40
-41
-41
-42
-43
-43
-44
-45
-45
-46
-47
-48
-49
-50
-51
-51
-52
-52
-52
-53
-53
-54
-54
-55
-55
-55
-55
-55
-55
-56
-56
-56
-56
-56
-56
-57
-56
-57
-57
-58
-58
-59
-59
-60
-60
-60
-61
-61
-62
-62
-62
-62
-63
-64
-64
-65
-65
-65
-65
-66
-67
-66
-67
-67
-68
-68
-69
-68
-68
-69
-70
-71
-71
-71
-72
-73
-73
-74
-74
-75
-76
-77
-78
-79
-80
-81
-81
-82
-84
-85
-86
-87
-88
-90
-91
-93
-93
-94
-96
-97
-99
-100
-101
-102
-103
-104
-105
-105
-106
-107
-108
-109
-110
-111
-112
-113
-114
-116
-117
-119
-119
-121
-122
-124
-125
-127
-127
-129
-130
-132
-133
-134
-136
-136
-137
-138
-139
-140
-140
-142
-142
-143
-143
-144
-144
-144
-145
-145
-145
-146
-147
-146
-147
-147
-148
-148
-147
-147
-147
-146
-146
-146
-146
-145
-145
-144
-144
-143
-142
-141
-140
-140
-139
-138
-137
-136
-135
-135
-134
-132
-131
-129
-128
-127
-126
-124
-122
-122
-120
-118
-116
-115
-113
-111
-110
-108
-107
-104
-103
-101
-99
-98
-96
-95
-93
-92
-90
-89
-88
-87
-85
-84
-84
-82
-81
-80
-78
-77
-76
-76
-74
-73
-72
-70
-69
-67
-66
-65
-64
-64
-63
-61
-60
-60
-58
-57
-57
-56
-55
-55
-54
-53
-53
-52
-52
-52
-51
-51
-51
-51
-51
-50
-50
-50
-49
-49
-49
-49
-48
-48
-48
-48
-48
-47
-46
-46
-46
-45
-45
-44
-45
-45
-44
-44
-43
-43
-42
-42
-42
-42
-41
-41
-41
-39
-39
-39
-39
-39
-39
-39
-39
-38
-38
-38
-38
-38
-38
-39
-39
-39
-39
-39
-39
-39
-39
-39
-39
-39
-40
-40
-40
-39
-39
-39
-39
-39
-39
-39
-39
-40
-40
-39
-39
-40
-40
-39
-39
-39
-39
-39
-39
-38
-38
-38
-39
-39
-39
-39
-40
-40
-40
-40
-41
-42
-42
-42
-43
-43
-43
-43
-44
-44
-44
-44
-44
-45
-45
-45
-45
-45
-45
-45
-45
-44
-44
-44
-45
-45
-45
-45
-45
-45
-45
-46
-46
-45
-46
-46
-46
-46
-46
-46
-46
-46
-46
-47
-46
-46
-46
-46
-46
-46
-45
-46
-46
-46
-47
-47
-46
-46
-46
-47
-47
-47
-47
-47
-48
-48
-48
-48
-49
-49
-48
-49
-48
-48
-48
-48
-48
-48
-48
-48
-47
-48
-47
-47
-48
-48
-47
-47
-48
-48
-48
-48
-48
-48
-48
-49
-48
-49
-48
-49
-49
-48
-48
-48
-48
-47
-47
-48
-47
-47
-47
-47
-46
-46
-46
-46
-45
-45
-46
-45
-45
-45
-45
-45
-45
-45
-46
-46
-46
-46
-46
-46
-46
-46
-46
-46
-46
-46
-47
-47
-48
-48
-48
-48
-47
-46
-46
-46
-46
-46
-46
-46
-46
-46
-46
-46
-46
-46
-46
-46
-46
-46
-46
-45
-45
-45
-46
-46
-46
-45
-45
-45
-45
-45
-45
-45
-45
-45
-45
-45
-45
-45
-45
-45
-45
-45
-45
-44
-44
-45
-45
-44
-44
-44
-44
-44
-43
-42
-42
-42
-42
-42
-42
-41
-41
-41
-41
-40
-40
-41
-40
-40
-40
-40
-41
-41
-41
-40
-40
-40
-40
-40
-41
-41
-41
-40
-40
-40
-40
-40
-40
-40
-40
-40
-40
-40
-40
-40
-40
-41
-41
-41
-41
-41
-41
-41
-41
-41
-42
-42
-42
-41
-42
-42
-42
-42
-42
-42
-42
-43
-43
-43
-43
-42
-42
-42
-42
-42
-42
-42
-41
-42
-42
-41
-41
-41
-40
-40
-40
-40
-41
-40
-40
-40
-41
-40
-41
-41
-42
-43
-43
-44
-45
-46
-46
-47
-48
-48
-49
-49
-49
-51
-51
-51
-51
-51
-51
-51
-51
-50
-50
-50
-50
-50
-50
-49
-50
-50
-50
-50
-50
-50
-50
-50
-51
-51
-52
-53
-53
-53
-53
-53
-54
-54
-54
-54
-54
-54
-54
-53
-54
-53
-53
-52
-52
-52
-51
-51
-50
-50
-49
-48
-47
-48
-47
-46
-46
-45
-44
-44
-42
-42
-41
-40
-40
-39
-38
-39
-38
-37
-36
-36
-35
-34
-34
-33
-32
-32
-32
-31
-30
-30
-30
-30
-30
-29
-29
-29
-29
-30
-30
-30
-30
-30
-31
-31
-32
-32
-33
-33
-34
-34
-35
-34
-34
-35
-35
-35
-36
-36
-36
-36
-35
-35
-35
-35
-35
-34
-34
-35
-34
-34
-33
-34
-34
-34
-33
-33
-34
-34
-34
-33
-33
-33
-33
-33
-33
-33
-33
-33
-33
-33
-33
-34
-35
-36
-36
-38
-40
-41
-43
-45
-48
-50
-53
-56
-60
-64
-67
-72
-78
-84
-89
-97
-104
-112
-120
-128
-137
-147
-157
-167
-178
-188
-200
-211
-222
-232
-242
-250
-259
-265
-270
-274
-276
-277
-277
-275
-271
-266
-259
-250
-240
-229
-216
-203
-188
-173
-158
-143
-128
-113
-99
-85
-73
-61
-50
-40
-31
-24
-17
-11
-7
-5
-3
0
0
0
-1
-3
-5
-7
-9
-12
-14
-17
-20
-22
-24
-27
-29
-31
-32
-33
-35
-36
-37
-38
-39
-39
-40
-39
-40
-39
-39
-39
-40
-40
-39
-39
-39
-40
-39
-39
-39
-39
-39
-39
-39
-39
-40
-40
-40
-40
-40
-41
-42
-42
-42
-42
-43
-43
-43
-44
-44
-45
-45
-45
-46
-45
-45
-46
-46
-46
-46
-46
-46
-46
-47
-46
-47
-48
-47
-48
-48
-48
-48
-49
-48
-48
-48
-48
-49
-49
-49
-49
-50
-49
-50
-50
-50
-50
-49
-49
-50
-50
-50
-50
-50
-49
-50
-50
-50
-50
-50
-51
-51
-52
-51
-51
-52
-52
-53
-54
-54
-55
-55
-56
-57
-58
-58
-59
-60
-61
-61
-62
-62
-62
-62
-63
-63
-63
-64
-64
-65
-66
-66
-66
-66
-67
-67
-68
-67
-68
-69
-68
-69
-69
-70
-71
-71
-72
-72
-73
-72
-73
-74
-74
-74
-75
-75
-75
-77
-77
-77
-78
-79
-79
-80
-81
-82
-82
-83
-84
-84
-85
-86
-87
-88
-89
-91
-91
-92
-93
-94
-95
-97
-97
-98
-100
-101
-101
-102
-104
-105
-107
-108
-109
-111
-111
-112
-114
-115
-117
-117
-118
-120
-121
-122
-123
-123
-125
-126
-127
-127
-128
-128
-129
-129
-130
-131
-132
-133
-134
-134
-134
-135
-136
-136
-137
-138
-138
-139
-139
-139
-140
-140
-140
-140
-140
-140
-140
-140
-139
-139
-139
-138
-138
-138
-136
-136
-136
-135
-134
-133
-132
-131
-130
-130
-129
-128
-127
-125
-125
-123
-122
-120
-120
-118
-117
-115
-114
-112
-111
-109
-108
-107
-105
-103
-102
-101
-99
-97
-95
-95
-93
-91
-88
-87
-85
-84
-82
-80
-79
-77
-76
-74
-72
-71
-69
-68
-66
-65
-64
-64
-63
-62
-61
-60
-60
-58
-57
-57
-56
-55
-54
-53
-52
-52
-52
-50
-50
-49
-48
-48
-46
-45
-45
-44
-43
-42
-42
-41
-41
-40
-40
-39
-39
-38
-38
-38
-37
-37
-37
-37
-37
-38
-37
-37
-37
-37
-37
-38
-38
-38
-38
-38
-38
-38
-38
-38
-37
-37
-38
-37
-36
-36
-35
-35
-35
-34
-34
-35
-35
-34
-34
-34
-34
-34
-33
-33
-33
-33
-33
-33
-33
-34
-33
-33
-33
-33
-33
-33
-33
-33
-33
-33
-33
-33
-33
-33
-33
-33
-33
-33
-33
-33
-33
-33
-33
-34
-33
-33
-34
-34
-34
-34
-35
-34
-34
-34
-34
-34
-34
-34
-33
-34
-34
-34
-33
-33
-34
-34
-34
-34
-34
-35
-36
-36
-36
-37
-37
-37
-37
-38
-38
-38
-38
-38
-39
-39
-39
-38
-39
-39
-39
-39
-39
-39
-39
-40
-40
-40
-40
-40
-40
-40
-41
-42
-42
-43
-43
-43
-43
-43
-43
-44
-44
-44
-44
-45
-44
-44
-45
-45
-45
-45
-45
-44
-44
-44
-44
-45
-45
-45
-44
-44
-44
-45
-45
-45
-45
-46
-46
-46
-46
-47
-47
-47
-46
-46
-47
-48
-48
-48
-48
-48
-48
-48
-48
-48
-48
-48
-47
-48
-48
-48
-47
-47
-47
-47
-47
-47
-47
-46
-46
-46
-45
-45
-45
-45
-45
-45
-45
-45
-45
-45
-44
-45
-45
-45
-45
-44
-44
-44
-44
-44
-44
-45
-44
-44
-44
-43
-43
-43
-43
-42
-42
-42
-42
-42
-42
-42
-43
-43
-42
-42
-42
-42
-42
-42
-43
-43
-43
-43
-43
-43
-43
-43
-43
-43
-43
-43
-44
-44
-43
-43
-43
-44
-44
-44
-44
-44
-43
-43
-43
-42
-42
-42
-42
-41
-41
-42
-42
-41
-41
-41
-41
-41
-41
-40
-40
-41
-41
-41
-41
-42
-43
-43
-44
-44
-44
-44
-44
-44
-44
-45
-44
-44
-44
-44
-45
-45
-44
-45
-45
-44
-45
-45
-45
-46
-46
-46
-47
-48
-48
-49
-49
-50
-50
-50
-51
-51
-52
-52
-53
-52
-52
-52
-53
-53
-53
-53
-53
-53
-54
-54
-54
-54
-54
-54
-54
-54
-55
-54
-54
-54
-55
-55
-55
-55
-54
-54
-55
-55
-55
-55
-55
-54
-54
-54
-54
-54
-53
-53
-53
-53
-53
-52
-52
-52
-52
-51
-51
-50
-50
-49
-48
-47
-47
-46
-46
-46
-45
-44
-43
-43
-42
-42
-41
-40
-41
-40
-40
-39
-39
-39
-39
-38
-39
-38
-38
-38
-38
-37
-37
-36
-36
-36
-36
-35
-35
-34
-34
-34
-33
-32
-32
-32
-32
-32
-32
-32
-32
-32
-32
-33
-33
-33
-35
-35
-35
-35
-35
-35
-36
-36
-36
-36
-36
-36
-36
-36
-36
-36
-36
-35
-36
-36
-36
-37
-36
-36
-36
-36
-36
-37
-36
-36
-37
-37
-38
-38
-38
-39
-40
-41
-43
-44
-45
-46
-49
-50
-52
-55
-57
-60
-63
-66
-70
-75
-79
-85
-90
-96
-103
-110
-118
-127
-136
-146
-155
-166
-177
-186
-198
-208
-220
-230
-240
-248
-256
-263
-268
-272
-276
-276
-276
-274
-269
-265
-257
-249
-239
-227
-215
-201
-186
-172
-157
-143
-128
-114
-100
-87
-75
-64
-53
-44
-36
-29
-22
-18
-14
-11
-9
-8
-8
-8
-9
-10
-11
-13
-15
-17
-19
-22
-23
-25
-27
-30
-31
-32
-34
-35
-36
-38
-39
-39
-39
-40
-40
-41
-41
-41
-42
-42
-42
-42
-42
-42
-41
-42
-42
-42
-42
-43
-42
-42
-42
-42
-42
-42
-42
-42
-42
-42
-42
-43
-43
-43
-44
-44
-44
-45
-45
-45
-46
-46
-46
-46
-47
-47
-47
-47
-48
-48
-48
-48
-47
-47
-48
-48
-48
-48
-48
-49
-48
-49
-49
-50
-50
-50
-51
-51
-51
-51
-52
-52
-52
-53
-53
-53
-54
-54
-54
-54
-54
-54
-56
-56
-56
-56
-58
-58
-58
-58
-59
-59
-61
-60
-61
-61
-62
-62
-63
-63
-63
-63
-63
-64
-63
-64
-64
-63
-64
-64
-65
-65
-66
-66
-66
-66
-66
-67
-67
-68
-68
-68
-69
-69
-70
-70
-70
-71
-70
-71
-72
-72
-72
-72
-73
-74
-74
-75
-76
-77
-77
-78
-79
-80
-80
-81
-82
-82
-84
-85
-85
-86
-87
-88
-89
-89
-90
-91
-92
-93
-94
-95
-95
-96
-97
-98
-99
-101
-102
-103
-104
-105
-106
-107
-107
-109
-110
-111
-112
-114
-115
-115
-116
-118
-118
-120
-120
-122
-123
-124
-125
-126
-127
-128
-129
-130
-131
-132
-133
-134
-134
-136
-137
-138
-139
-140
-140
-141
-142
-142
-143
-144
-144
-145
-146
-147
-147
-147
-147
-148
-148
-148
-147
-146
-146
-146
-145
-145
-144
-144
-143
-143
-141
-140
-139
-138
-138
-137
-136
-134
-133
-132
-131
-130
-129
-128
-127
-127
-126
-124
-123
-122
-121
-120
-118
-118
-116
-114
-114
-112
-111
-110
-109
-107
-106
-104
-102
-101
-99
-98
-96
-95
-93
-93
-91
-89
-88
-86
-86
-84
-82
-82
-80
-79
-78
-76
-76
-75
-74
-73
-72
-71
-70
-69
-69
-68
-67
-66
-65
-64
-63
-62
-62
-61
-59
-59
-58
-58
-57
-56
-56
-55
-55
-54
-54
-54
-53
-54
-53
-52
-53
-52
-52
-51
-51
-51
-51
-51
-50
-50
-49
-49
-49
-48
-48
-48
-47
-47
-46
-46
-46
-46
-46
-46
-46
-46
-46
-46
-46
-46
-46
-45
-45
-45
-45
-46
-45
-45
-45
-45
-45
-45
-45
-45
-45
-45
-45
-45
-45
-45
-45
-46
-46
-46
-47
-47
-47
-47
-48
-48
-47
-47
-48
-47
-47
-47
-47
-47
-47
-47
-47
-47
-47
-47
-46
-46
-46
-46
-46
-46
-46
-46
-46
-45
-45
-46
-45
-46
-47
-47
-47
-48
-48
-48
-47
-48
-48
-48
-49
-49
-49
-50
-50
-51
-51
-51
-51
-51
-51
-51
-51
-51
-51
-51
-51
-52
-52
-52
-52
-52
-52
-52
-53
-53
-53
-52
-52
-53
-53
-53
-54
-53
-54
-54
-54
-54
-55
-55
-55
-56
-56
-56
-55
-55
-56
-56
-56
-57
-57
-57
-57
-57
-57
-56
-56
-56
-56
-56
-56
-56
-57
-57
-58
-57
-57
-58
-58
-58
-58
-58
-59
-59
-60
-60
-60
-60
-60
-59
-60
-60
-60
-60
-59
-59
-60
-60
-60
-59
-59
-59
-59
-59
-59
-59
-59
-59
-59
-59
-59
-60
-60
-59
-59
-59
-59
-59
-59
-59
-59
-59
-58
-58
-58
-58
-59
-58
-58
-58
-58
-58
-58
-58
-58
-58
-59
-59
-59
-59
-59
-59
-60
-60
-60
-60
-60
-60
-60
-60
-60
-60
-60
-60
-60
-59
-58
-58
-58
-58
-57
-57
-56
-56
-56
-56
-56
-55
-55
-55
-55
-55
-56
-56
-56
-56
-57
-57
-58
-59
-59
-60
-61
-61
-61
-62
-62
-62
-62
-62
-62
-62
-61
-61
-61
-61
-60
-60
-59
-58
-58
-57
-57
-57
-56
-56
-56
-56
-56
-56
-56
-56
-56
-56
-56
-56
-56
-55
-55
-56
-56
-56
-56
-56
-56
-56
-56
-56
-56
-56
-55
-55
-55
-55
-56
-56
-55
-55
-55
-55
-55
-56
-56
-55
-56
-56
-56
-56
-56
-57
-56
-56
-56
-56
-57
-57
-58
-57
-57
-57
-57
-58
-58
-58
-58
-59
-59
-59
-59
-59
-60
-59
-60
-60
-60
-60
-60
-61
-61
-61
-61
-62
-62
-63
-63
-64
-64
-64
-64
-64
-64
-64
-65
-65
-65
-65
-65
-65
-65
-65
-65
-65
-65
-65
-66
-66
-66
-66
-66
-66
-66
-66
-66
-66
-67
-67
-67
-68
-68
-68
-69
-69
-70
-70
-70
-70
-71
-71
-71
-71
-71
-71
-71
-71
-71
-71
-71
-71
-71
-70
-70
-70
-70
-71
-70
-70
-70
-70
-69
-68
-68
-68
-67
-67
-66
-65
-63
-62
-62
-61
-60
-60
-59
-57
-57
-56
-56
-55
-55
-54
-54
-54
-54
-54
-54
-54
-54
-54
-54
-55
-56
-56
-56
-57
-57
-57
-57
-57
-57
-57
-57
-57
-57
-57
-58
-58
-58
-58
-58
-58
-57
-57
-57
-57
-57
-57
-57
-57
-55
-55
-55
-55
-55
-55
-55
-54
-54
-54
-54
-53
-53
-53
-53
-53
-53
-53
-53
-53
-53
-53
-53
-53
-53
-53
-53
-54
-54
-54
-55
-55
-56
-56
-58
-59
-60
-62
-63
-65
-66
-68
-71
-74
-77
-81
-84
-89
-93
-99
-104
-110
-117
-124
-132
-139
-148
-157
-167
-177
-188
-199
-210
-221
-234
-244
-255
-265
-274
-283
-290
-297
-302
-305
-307
-307
-305
-302
-296
-289
-281
-271
-260
-247
-233
-219
-203
-187
-172
-157
-142
-127
-114
-101
-89
-78
-68
-60
-53
-46
-42
-37
-35
-32
-32
-31
-31
-32
-34
-36
-37
-39
-42
-44
-46
-48
-50
-51
-54
-55
-56
-57
-58
-59
-61
-62
-62
-63
-64
-64
-64
-65
-64
-65
-66
-65
-66
-66
-66
-66
-66
-66
-66
-66
-66
-66
-67
-66
-66
-66
-66
-66
-67
-67
-67
-67
-68
-68
-68
-68
-69
-69
-69
-69
-70
-69
-70
-70
-70
-70
-70
-70
-69
-70
-70
-70
-71
-71
-71
-72
-72
-72
-72
-73
-73
-73
-73
-74
-74
-75
-75
-75
-76
-76
-77
-77
-78
-78
-77
-78
-78
-79
-78
-78
-79
-79
-79
-80
-79
-79
-80
-80
-80
-81
-80
-80
-80
-80
-81
-81
-81
-82
-82
-83
-83
-83
-83
-84
-85
-85
-86
-86
-86
-87
-87
-87
-87
-88
-88
-87
-88
-88
-89
-89
-88
-89
-89
-90
-90
-90
-90
-91
-90
-91
-91
-92
-92
-93
-95
-95
-96
-97
-97
-98
-99
-100
-100
-101
-102
-103
-104
-105
-105
-106
-107
-107
-107
-108
-109
-110
-111
-111
-111
-112
-113
-114
-115
-117
-118
-119
-120
-122
-123
-125
-126
-126
-128
-129
-131
-132
-134
-135
-137
-138
-139
-140
-141
-142
-143
-143
-145
-145
-146
-148
-148
-149
-150
-150
-151
-152
-153
-153
-154
-155
-156
-157
-159
-159
-160
-162
-163
-164
-165
-165
-167
-168
-169
-169
-170
-171
-171
-172
-172
-172
-173
-172
-172
-172
-172
-172
-171
-171
-171
-170
-169
-168
-168
-167
-167
-166
-165
-164
-163
-162
-162
-161
-160
-159
-159
-158
-156
-155
-155
-154
-153
-152
-151
-150
-149
-148
-147
-146
-144
-144
-142
-140
-139
-137
-135
-134
-132
-130
-129
-127
-125
-124
-123
-121
-119
-118
-117
-115
-114
-112
-110
-110
-108
-106
-105
-104
-102
-101
-100
-99
-97
-96
-95
-93
-93
-91
-90
-89
-88
-88
-86
-85
-85
-84
-84
-83
-83
-83
-82
-82
-82
-82
-82
-81
-81
-81
-81
-80
-80
-79
-79
-78
-78
-78
-78
-78
-77
-77
-76
-76
-75
-75
-74
-74
-73
-74
-74
-73
-73
-73
-74
-74
-74
-74
-74
-73
-72
-72
-72
-72
-72
-72
-72
-71
-71
-71
-71
-70
-70
-70
-71
-71
-71
-69
-69
-69
-69
-69
-69
-69
-69
-69
-69
-70
-70
-70
-70
-70
-70
-70
-71
-71
-71
-72
-72
-72
-72
-72
-72
-73
-74
-74
-73
-74
-74
-74
-74
-74
-73
-73
-73
-73
-74
-74
-74
-73
-73
-73
-73
-74
-75
-75
-75
-75
-75
-75
-75
-74
-75
-75
-75
-75
-75
-75
-75
-75
-75
-76
-76
-76
-76
-76
-77
-77
-77
-77
-77
-78
-78
-79
-79
-79
-79
-79
-80
-80
-80
-81
-80
-80
-81
-81
-82
-81
-82
-82
-82
-82
-82
-82
-82
-82
-82
-82
-82
-81
-82
-82
-82
-82
-82
-81
-81
-81
-81
-81
-81
-83
-83
-82
-82
-83
-83
-83
-84
-84
-84
-85
-85
-85
-86
-86
-86
-86
-86
-85
-85
-85
-85
-85
-85
-85
-84
-84
-84
-84
-84
-83
-83
-83
-83
-83
-82
-82
-82
-82
-82
-82
-83
-83
-83
-83
-84
-84
-84
-84
-84
-84
-84
-84
-84
-84
-84
-84
-84
-84
-84
-84
-84
-84
-84
-84
-84
-83
-83
-83
-83
-83
-84
-84
-84
-84
-84
-84
-84
-84
-84
-84
-84
-84
-84
-84
-84
-84
-84
-83
-83
-83
-83
-82
-82
-81
-81
-81
-81
-81
-81
-81
-81
-81
-80
-80
-81
-81
-81
-81
-81
-81
-82
-82
-83
-83
-84
-84
-84
-85
-85
-85
-85
-85
-85
-85
-85
-85
-85
-85
-85
-85
-85
-85
-85
-85
-85
-85
-84
-84
-84
-84
-84
-84
-83
-83
-83
-83
-83
-83
-83
-83
-83
-83
-82
-82
-82
-82
-82
-83
-83
-83
-82
-82
-82
-82
-83
-83
-83
-83
-84
-84
-84
-84
-84
-84
-84
-84
-85
-84
-84
-84
-84
-84
-84
-83
-83
-83
-83
-82
-82
-82
-82
-82
-82
-82
-82
-82
-82
-82
-81
-81
-82
-82
-82
-82
-82
-82
-82
-82
-82
-82
-83
-83
-83
-82
-82
-82
-82
-82
-80
-80
-80
-80
-80
-79
-80
-80
-80
-79
-79
-79
-79
-79
-80
-80
-80
-80
-81
-81
-81
-82
-82
-83
-83
-83
-84
-84
-85
-84
-84
-84
-85
-85
-85
-85
-84
-84
-84
-83
-83
-83
-83
-82
-82
-82
-81
-82
-81
-81
-81
-80
-80
-80
-80
-80
-80
-80
-80
-80
-80
-80
-80
-80
-80
-80
-80
-80
-81
-81
-81
-81
-81
-81
-82
-82
-82
-82
-82
-82
-82
-82
-82
-82
-82
-83
-83
-82
-82
-82
-82
-81
-81
-81
-81
-81
-82
-82
-81
-81
-81
-81
-82
-81
-81
-81
-82
-81
-81
-81
-82
-82
-82
-82
-82
-81
-81
-81
-81
-81
-81
-82
-82
-82
-82
-81
-82
-82
-82
-82
-82
-81
-82
-82
-82
-82
-82
-82
-82
-82
-81
-81
-81
-81
-82
-82
-81
-81
-81
-81
-81
-81
-81
-82
-81
-81
-81
-81
-81
-81
-81
-81
-80
-80
-81
-81
-80
-80
-80
-80
-81
-81
-81
-81
-81
-81
-81
-81
-81
-81
-81
-82
-82
-81
-81
-81
-81
-82
-82
-82
-81
-81
-81
-81
-81
-82
-82
-82
-82
-83
-83
-82
-82
-83
-83
-83
-83
-84
-84
-83
-83
-83
-83
-83
-83
-83
-83
-82
-82
-82
-81
-81
-81
-81
-80
-80
-80
-80
-80
-80
-80
-80
-80
-81
-81
-81
-82
-82
-83
-83
-84
-84
-85
-85
-84
-85
-85
-85
-85
-85
-85
-85
-85
-84
-84
-84
-83
-83
-83
-83
-82
-82
-82
-82
-82
-82
-82
-82
-81
-81
-82
-82
-82
-82
-83
-83
-83
-84
-84
-84
-85
-85
-86
-86
-87
-87
-87
-88
-89
-90
-90
-90
-91
-91
-92
-92
-92
-93
-93
-94
-94
-94
-93
-93
-93
-93
-93
-92
-92
-92
-93
-92
-92
-92
-92
-92
-92
-92
-92
-93
-93
-94
-94
-94
-94
-95
-95
-95
-95
-95
-95
-95
-95
-94
-95
-94
-94
-94
-94
-93
-93
-93
-92
-92
-91
-91
-91
-91
-91
-90
-90
-90
-90
-90
-90
-90
-88
-88
-88
-88
-88
-88
-87
-87
-87
-87
-87
-87
-87
-87
-86
-86
-86
-86
-86
-86
-85
-85
-85
-85
-85
-84
-83
-83
-83
-82
-82
-82
-81
-81
-81
-81
-81
-80
-80
-80
-80
-80
-80
-80
-80
-79
-79
-79
-79
-80
-80
-80
-80
-81
-82
-82
-82
-82
-83
-83
-83
-83
-84
-85
-85
-85
-85
-85
-85
-86
-86
-86
-86
-86
-86
-85
-85
-86
-86
-86
-86
-86
-88
-88
-90
-91
-93
-94
-96
-98
-100
-103
-105
-109
-112
-116
-121
-126
-133
-139
-145
-153
-161
-169
-178
-188
-198
-209
-220
-232
-244
-256
-267
-279
-290
-301
-311
-320
-327
-334
-340
-343
-345
-346
-345
-342
-337
-331
-323
-313
-302
-290
-276
-261
-246
-229
-214
-198
-182
-167
-152
-138
-125
-112
-102
-93
-84
-77
-72
-67
-63
-61
-60
-59
-59
-59
-60
-62
-63
-65
-69
-71
-72
-74
-76
-79
-81
-83
-84
-86
-87
-88
-89
-90
-91
-91
-91
-91
-92
-92
-92
-91
-92
-92
-92
-91
-91
-91
-91
-91
-91
-91
-91
-92
-91
-91
-92
-92
-93
-94
-94
-94
-94
-94
-95
-95
-96
-95
-95
-96
-96
-96
-97
-97
-97
-97
-97
-97
-97
-97
-97
-97
-97
-97
-97
-98
-98
-99
-99
-99
-100
-100
-100
-101
-101
-102
-102
-102
-102
-103
-103
-103
-104
-103
-104
-104
-104
-104
-104
-105
-104
-105
-105
-106
-105
-106
-106
-107
-107
-107
-108
-108
-108
-109
-109
-110
-110
-111
-111
-112
-113
-114
-114
-114
-115
-115
-116
-116
-117
-117
-117
-118
-117
-118
-118
-119
-119
-119
-119
-119
-120
-120
-120
-121
-121
-122
-122
-123
-123
-123
-124
-124
-125
-125
-126
-126
-127
-127
-127
-128
-128
-129
-130
-130
-131
-132
-133
-133
-133
-133
-134
-135
-136
-137
-137
-138
-139
-140
-141
-141
-142
-143
-144
-145
-146
-147
-148
-149
-150
-151
-152
-153
-154
-155
-155
-157
-157
-159
-159
-161
-162
-163
-165
-165
-167
-168
-169
-171
-171
-173
-174
-176
-176
-178
-179
-180
-181
-182
-184
-185
-186
-188
-189
-190
-191
-192
-193
-194
-195
-196
-197
-199
-199
-200
-201
-202
-202
-203
-203
-203
-204
-204
-204
-204
-205
-204
-205
-205
-206
-206
-205
-205
-205
-205
-205
-205
-205
-205
-205
-204
-204
-203
-203
-203
-202
-202
-201
-199
-199
-198
-196
-196
-195
-194
-193
-192
-191
-189
-188
-186
-186
-184
-182
-181
-180
-178
-176
-175
-173
-172
-171
-168
-166
-165
-163
-162
-160
-159
-157
-156
-154
-152
-150
-150
-148
-146
-145
-143
-142
-140
-139
-138
-137
-135
-133
-132
-132
-131
-129
-128
-128
-126
-125
-124
-123
-122
-121
-121
-119
-119
-117
-117
-116
-115
-114
-113
-113
-112
-112
-111
-110
-109
-109
-108
-108
-107
-106
-107
-107
-106
-106
-106
-105
-105
-105
-105
-104
-104
-104
-103
-103
-103
-103
-102
-103
-103
-103
-103
-102
-102
-102
-102
-102
-102
-102
-102
-102
-101
-101
-101
-101
-101
-101
-101
-101
-101
-101
-100
-100
-100
-100
-100
-100
-100
-100
-100
-100
-100
-100
-100
-100
-100
-100
-99
-99
-100
-100
-99
-99
-99
-99
-99
-99
-100
-100
-100
-101
-101
-101
-102
-102
-102
-103
-103
-103
-103
-103
-104
-104
-104
-103
-104
-104
-104
-104
-104
-104
-103
-104
-104
-104
-103
-103
-103
-103
-103
-103
-104
-104
-104
-104
-104
-104
-104
-104
-104
-104
-104
-104
-105
-105
-105
-105
-105
-104
-105
-105
-105
-105
-105
-105
-105
-106
-105
-105
-105
-106
-106
-106
-107
-107
-107
-108
-108
-108
-109
-109
-109
-110
-110
-109
-109
-109
-109
-110
-110
-110
-110
-110
-110
-110
-110
-110
-110
-109
-109
-109
-109
-109
-109
-109
-109
-109
-110
-109
-109
-109
-109
-110
-110
-111
-111
-111
-111
-110
-110
-110
-110
-110
-110
-110
-110
-110
-110
-110
-110
-110
-110
-109
-109
-110
-110
-110
-110
-110
-110
-110
-110
-110
-110
-110
-110
-110
-110
-110
-110
-110
-110
-110
-109
-109
-109
-108
-108
-108
-108
-108
-107
-108
-108
-108
-108
-107
-107
-107
-106
-106
-106
-106
-106
-105
-104
-104
-104
-104
-103
-103
-104
-104
-104
-104
-104
-104
-105
-105
-105
-106
-106
-106
-106
-106
-106
-107
-107
-107
-108
-107
-107
-107
-106
-107
-107
-105
-105
-105
-105
-104
-104
-104
-104
-104
-104
-104
-103
-103
-103
-103
-103
-103
-103
-103
-102
-102
-102
-102
-102
-102
-101
-102
-102
-101
-101
-101
-100
-100
-100
-100
-100
-100
-99
-100
-101
-101
-101
-100
-101
-101
-100
-101
-101
-102
-102
-102
-102
-102
-103
-103
-103
-103
-102
-102
-102
-102
-102
-102
-102
-102
-101
-101
-101
-101
-100
-100
-99
-99
-99
-98
-98
-98
-98
-98
-99
-99
-98
-99
-100
-100
-100
-100
-100
-100
-101
-101
-102
-102
-102
-102
-102
-103
-103
-103
-103
-103
-103
-103
-103
-103
-103
-103
-103
-104
-104
-104
-104
-104
-104
-104
-104
-104
-104
-104
-105
-105
-104
-104
-104
-104
-103
-103
-102
-102
-102
-102
-102
-101
-100
-100
-99
-99
-99
-99
-99
-98
-98
-98
-97
-98
-98
-98
-97
-98
-98
-99
-99
-99
-100
-100
-100
-100
-101
-102
-102
-102
-101
-101
-102
-102
-102
-102
-102
-102
-102
-102
-101
-100
-100
-100
-99
-98
-98
-98
-98
-98
-98
-97
-97
-97
-97
-97
-97
-97
-97
-97
-97
-98
-98
-98
-98
-97
-98
-98
-98
-98
-99
-99
-99
-99
-99
-99
-99
-101
-101
-101
-101
-101
-101
-101
-101
-101
-101
-101
-101
-100
-100
-100
-100
-100
-99
-98
-98
-98
-98
-98
-98
-97
-97
-98
-98
-98
-98
-98
-97
-98
-98
-98
-99
-99
-99
-99
-99
-99
-100
-100
-100
-100
-100
-100
-100
-100
-99
-99
-99
-99
-99
-99
-99
-100
-99
-99
-99
-99
-99
-99
-99
-98
-98
-98
-98
-98
-98
-98
-98
-98
-97
-97
-96
-97
-97
-97
-97
-97
-98
-98
-98
-97
-98
-98
-98
-98
-98
-98
-98
-98
-99
-99
-99
-99
-98
-98
-98
-98
-98
-98
-98
-97
-97
-97
-97
-97
-98
-98
-97
-97
-97
-97
-97
-97
-97
-97
-97
-97
-97
-97
-97
-97
-97
-96
-96
-96
-96
-96
-96
-96
-97
-97
-97
-97
-97
-97
-97
-97
-97
-97
-98
-98
-98
-98
-98
-98
-99
-99
-99
-99
-99
-99
-98
-98
-98
-98
-98
-98
-97
-97
-97
-97
-97
-96
-96
-96
-96
-97
-96
-96
-96
-96
-96
-96
-97
-96
-97
-98
-97
-98
-98
-99
-99
-99
-99
-99
-100
-100
-100
-101
-101
-101
-101
-102
-102
-102
-102
-102
-103
-102
-102
-102
-103
-103
-104
-104
-104
-104
-104
-104
-104
-105
-105
-105
-105
-106
-106
-106
-107
-107
-107
-106
-107
-107
-107
-107
-108
-108
-108
-108
-108
-108
-108
-108
-108
-108
-108
-108
-107
-107
-106
-106
-106
-105
-105
-105
-105
-105
-104
-104
-104
-104
-103
-103
-103
-102
-103
-102
-102
-102
-102
-101
-101
-101
-101
-100
-100
-100
-99
-99
-98
-98
-97
-97
-96
-95
-94
-94
-93
-93
-92
-92
-92
-91
-90
-90
-90
-91
-90
-90
-90
-90
-90
-90
-90
-90
-90
-90
-90
-90
-90
-90
-90
-90
-90
-90
-89
-89
-89
-90
-90
-90
-90
-90
-89
-89
-88
-88
-87
-87
-87
-87
-86
-87
-86
-87
-86
-86
-86
-86
-86
-86
-87
-87
-86
-87
-87
-87
-87
-88
-87
-88
-88
-90
-90
-92
-92
-93
-94
-97
-99
-101
-102
-105
-108
-111
-114
-119
-123
-128
-133
-139
-145
-152
-160
-168
-177
-187
-197
-207
-218
-230
-241
-252
-264
-275
-286
-297
-307
-316
-325
-331
-338
-342
-344
-345
-344
-342
-337
-331
-323
-313
-302
-290
-276
-262
-247
-231
-214
-199
-181
-166
-151
-137
-123
-111
-100
-90
-80
-73
-67
-62
-57
-54
-54
-52
-52
-52
-54
-54
-56
-58
-60
-63
-65
-68
-70
-72
-74
-77
-78
-80
-81
-82
-83
-84
-85
-85
-85
-85
-86
-86
-85
-85
-85
-85
-84
-84
-84
-84
-83
-82
-82
-81
-81
-81
-80
-80
-80
-80
-80
-80
-80
-80
-80
-80
-80
-80
-81
-82
-82
-83
-83
-84
-84
-86
-86
-86
-87
-88
-88
-88
-89
-89
-90
-90
-90
-90
-90
-90
-90
-90
-90
-90
-90
-90
-90
-91
-90
-90
-90
-90
-90
-91
-90
-91
-91
-91
-91
-92
-91
-91
-92
-92
-92
-93
-93
-93
-93
-93
-92
-92
-92
-92
-92
-92
-91
-92
-92
-91
-91
-91
-91
-91
-91
-90
-90
-90
-91
-91
-91
-91
-92
-93
-94
-94
-95
-96
-97
-97
-99
-99
-100
-101
-102
-102
-104
-104
-105
-105
-106
-107
-107
-107
-107
-108
-108
-108
-107
-107
-108
-108
-108
-108
-108
-108
-107
-108
-108
-108
-109
-108
-109
-110
-110
-110
-110
-111
-111
-112
-112
-112
-113
-114
-114
-115
-116
-117
-118
-118
-119
-120
-121
-122
-124
-125
-125
-126
-128
-129
-130
-131
-133
-134
-135
-136
-137
-138
-140
-141
-142
-142
-143
-145
-146
-147
-148
-148
-149
-150
-151
-152
-154
-155
-155
-155
-156
-157
-158
-159
-160
-161
-162
-162
-163
-164
-164
-165
-166
-165
-166
-166
-167
-167
-167
-168
-167
-168
-168
-168
-168
-168
-168
-168
-168
-168
-169
-169
-168
-168
-168
-167
-167
-166
-166
-165
-164
-163
-162
-160
-159
-157
-156
-155
-154
-152
-151
-149
-147
-146
-144
-143
-141
-139
-137
-135
-133
-132
-130
-128
-126
-125
-123
-121
-119
-118
-116
-113
-112
-110
-108
-106
-105
-102
-100
-100
-98
-97
-94
-92
-91
-89
-88
-86
-85
-83
-81
-81
-79
-78
-77
-76
-74
-73
-72
-71
-69
-69
-67
-67
-65
-64
-63
-63
-62
-61
-59
-59
-58
-57
-56
-55
-54
-53
-51
-50
-50
-49
-48
-47
-46
-46
-45
-44
-43
-43
-42
-41
-40
-40
-40
-39
-38
-38
-37
-38
-37
-37
-37
-36
-37
-37
-36
-36
-36
-36
-36
-35
-35
-35
-35
-35
-34
-34
-34
-33
-33
-32
-31
-31
-31
-30
-29
-28
-27
-27
-26
-25
-26
-25
-24
-24
-24
-23
-23
-22
-23
-23
-22
-22
-22
-22
-22
-22
-22
-22
-23
-23
-23
-23
-23
-23
-23
-23
-23
-23
-23
-23
-23
-23
-23
-23
-23
-22
-22
-22
-22
-22
-22
-22
-22
-22
-23
-23
-23
-23
-22
-22
-22
-22
-22
-22
-22
-21
-21
-21
-21
-20
-20
-19
-19
-18
-18
-17
-17
-17
-16
-17
-17
-16
-16
