# Simple Text Format
# Sampling Rate (Hz):= 1200.00
# Resolution:= 12
# Labels:= ECG	 V2
# Age:=	17
# Gender:=	Masculino
-273
-303
-334
-368
-405
-442
-482
-521
-561
-601
-640
-678
-715
-748
-779
-806
-830
-849
-865
-876
-884
-887
-886
-883
-874
-863
-849
-831
-813
-792
-769
-745
-721
-695
-669
-643
-618
-592
-568
-545
-521
-500
-478
-459
-439
-420
-402
-384
-367
-350
-334
-319
-304
-289
-275
-260
-248
-234
-222
-211
-198
-188
-177
-168
-158
-150
-142
-135
-129
-123
-117
-112
-108
-103
-100
-97
-95
-91
-89
-87
-86
-84
-83
-81
-80
-78
-77
-76
-75
-74
-73
-72
-71
-70
-69
-68
-66
-65
-64
-63
-61
-60
-59
-58
-57
-56
-55
-54
-53
-52
-51
-50
-49
-48
-47
-46
-45
-44
-43
-44
-43
-43
-42
-41
-42
-41
-40
-40
-39
-39
-38
-37
-37
-36
-36
-35
-34
-33
-32
-31
-30
-29
-28
-27
-26
-25
-24
-23
-22
-20
-19
-19
-18
-17
-17
-16
-15
-14
-14
-14
-13
-12
-12
-11
-10
-10
-9
-8
-8
-7
-6
-4
-4
-3
-2
0
1
2
5
6
7
9
10
12
13
15
16
19
20
22
24
24
26
28
29
31
33
34
36
37
39
40
42
43
45
48
49
51
52
55
57
59
61
63
65
68
69
71
74
76
78
80
83
85
87
89
92
93
96
97
100
101
104
106
108
110
112
113
115
117
119
120
123
124
126
127
129
131
132
133
135
136
137
137
139
140
140
142
142
142
144
144
145
145
146
145
146
145
145
145
145
145
144
145
144
144
142
141
141
140
139
138
136
135
134
132
131
129
127
126
124
122
120
118
117
115
113
111
109
107
105
103
101
99
97
95
93
90
88
86
84
81
79
76
73
71
69
66
63
61
58
55
54
51
49
46
43
42
39
37
34
32
30
28
25
23
20
18
16
14
12
10
8
6
4
2
0
-2
-4
-5
-7
-9
-11
-12
-14
-16
-17
-19
-20
-22
-24
-24
-26
-28
-29
-31
-32
-33
-34
-36
-37
-38
-39
-40
-41
-42
-44
-45
-45
-47
-47
-49
-50
-50
-50
-52
-52
-52
-52
-53
-54
-54
-54
-54
-54
-55
-55
-55
-56
-56
-56
-56
-56
-56
-56
-57
-57
-57
-58
-58
-58
-58
-58
-58
-58
-59
-59
-59
-59
-60
-60
-60
-59
-60
-60
-59
-60
-60
-59
-59
-59
-59
-59
-59
-59
-59
-59
-60
-60
-60
-60
-60
-60
-60
-60
-60
-60
-59
-60
-60
-60
-59
-59
-59
-58
-58
-57
-56
-57
-57
-56
-56
-55
-55
-55
-54
-54
-54
-54
-54
-53
-53
-53
-53
-52
-52
-51
-51
-50
-49
-49
-49
-48
-48
-46
-46
-45
-45
-45
-44
-43
-42
-42
-41
-41
-40
-40
-39
-39
-38
-38
-36
-36
-35
-34
-34
-33
-33
-33
-32
-31
-30
-30
-30
-30
-29
-29
-28
-28
-28
-28
-27
-27
-26
-26
-26
-26
-26
-26
-25
-25
-25
-25
-24
-24
-25
-24
-24
-24
-24
-24
-24
-25
-24
-24
-24
-24
-24
-25
-24
-24
-24
-24
-24
-24
-24
-23
-23
-22
-22
-22
-22
-22
-22
-22
-21
-21
-21
-21
-20
-20
-19
-19
-19
-19
-19
-19
-18
-18
-17
-18
-18
-18
-18
-17
-17
-17
-18
-18
-18
-18
-18
-18
-19
-20
-20
-21
-21
-21
-22
-22
-23
-23
-23
-23
-24
-24
-24
-24
-24
-24
-24
-24
-24
-24
-24
-24
-24
-24
-24
-24
-24
-23
-23
-23
-23
-23
-23
-23
-23
-23
-22
-22
-22
-22
-22
-22
-22
-21
-22
-22
-22
-22
-22
-22
-21
-22
-21
-21
-21
-22
-22
-22
-22
-22
-22
-21
-22
-22
-22
-22
-22
-22
-22
-22
-22
-22
-21
-21
-21
-21
-21
-21
-21
-21
-20
-20
-20
-20
-19
-19
-19
-19
-19
-19
-19
-19
-19
-19
-19
-18
-18
-18
-18
-18
-18
-17
-16
-16
-16
-15
-15
-14
-14
-13
-13
-13
-13
-12
-12
-11
-10
-9
-8
-8
-8
-7
-6
-6
-5
-5
-4
-4
-3
-3
-2
-2
-1
-1
-1
-1
-1
-1
0
1
1
1
0
1
1
1
1
0
0
0
0
0
0
0
0
0
-1
-1
-1
-1
-1
-1
-1
-1
-1
0
0
0
0
0
-1
-1
-1
-1
0
0
-1
-1
0
0
-1
0
0
0
-1
-1
-2
-1
-2
-3
-2
-3
-3
-4
-4
-4
-5
-5
-5
-6
-7
-7
-7
-7
-8
-8
-8
-8
-7
-7
-7
-7
-7
-6
-6
-6
-5
-5
-4
-5
-4
-4
-3
-3
-3
-2
-3
-3
-3
-3
-2
-2
-2
-1
-2
-2
-2
-1
-1
-2
-1
-1
-1
-1
0
-1
-1
0
0
0
0
1
1
1
1
1
1
1
1
2
2
2
3
3
3
3
4
4
4
4
4
4
5
4
5
5
5
4
5
5
5
5
6
7
9
11
13
16
20
23
27
29
32
34
36
37
37
35
32
26
18
6
-7
-24
-44
-66
-93
-122
-153
-187
-223
-260
-299
-340
-381
-421
-462
-500
-538
-573
-605
-634
-659
-682
-700
-714
-723
-729
-730
-728
-722
-712
-699
-685
-667
-647
-624
-601
-577
-551
-525
-499
-473
-447
-422
-397
-373
-350
-328
-306
-286
-266
-248
-229
-211
-195
-178
-162
-146
-132
-117
-103
-89
-76
-63
-52
-40
-30
-19
-9
1
9
17
24
31
37
42
47
52
56
59
62
64
67
69
71
73
74
76
76
78
79
80
81
82
83
85
86
86
87
88
89
90
91
93
94
95
96
96
98
98
99
99
101
101
102
102
103
104
104
105
105
106
107
107
109
109
109
110
111
112
113
114
115
116
116
117
118
119
120
121
122
122
123
123
125
126
125
126
127
128
128
129
130
130
132
133
133
134
135
136
136
138
139
140
141
141
142
143
144
145
146
147
148
149
150
151
152
153
153
154
155
157
158
159
159
160
161
162
163
165
166
168
169
171
172
174
175
176
179
180
182
184
185
188
189
190
193
194
197
199
200
202
204
207
208
210
212
214
216
218
220
222
224
226
228
230
232
233
235
238
239
241
242
245
247
249
251
253
254
257
259
260
262
264
266
268
270
271
273
274
276
278
280
281
282
284
285
285
286
288
288
289
291
291
291
292
293
293
294
293
294
294
294
294
294
293
293
294
293
293
291
290
290
289
287
286
286
284
282
282
279
278
277
275
274
272
270
269
267
266
264
262
260
258
256
254
252
250
248
246
244
241
239
237
235
232
230
227
225
222
220
217
214
212
209
208
205
203
200
197
195
193
190
188
185
182
180
178
176
173
171
169
166
165
163
160
158
156
155
153
150
148
146
144
143
141
140
138
136
134
133
132
131
129
127
126
125
123
122
121
119
119
117
116
115
113
113
111
111
110
108
108
106
106
106
104
104
104
102
102
101
101
100
99
98
98
98
97
97
96
96
96
94
94
94
93
92
92
92
92
91
91
91
90
90
88
88
89
88
88
87
87
88
87
87
87
87
87
87
87
87
87
87
87
87
87
87
87
87
88
87
87
87
87
87
87
86
87
87
86
86
86
86
86
87
87
86
87
87
88
88
88
89
89
89
90
90
91
91
92
93
93
94
94
94
95
95
96
96
97
98
98
99
99
101
101
101
102
102
103
104
104
104
104
105
105
106
106
106
106
106
106
107
108
107
108
108
108
109
109
109
109
110
110
111
111
111
112
112
112
113
113
113
113
115
115
115
115
116
116
117
118
118
118
119
119
119
119
120
120
120
120
120
121
121
122
122
122
122
122
122
122
122
122
123
123
123
123
123
122
123
123
123
123
123
123
123
123
123
123
123
123
123
123
123
123
123
123
123
123
123
122
122
123
123
123
123
122
122
121
121
121
121
121
121
121
120
120
120
120
120
120
120
120
119
119
119
118
118
117
117
117
117
118
117
117
117
116
116
116
115
116
116
116
116
116
116
116
116
116
116
115
115
116
116
116
115
115
116
116
115
115
115
115
115
115
114
114
113
113
113
114
114
114
114
114
114
114
115
115
114
114
114
115
115
115
116
116
116
116
116
117
117
116
116
116
116
116
117
117
116
116
116
116
116
116
116
116
116
116
115
116
116
116
116
116
116
117
116
116
117
117
116
117
117
118
118
118
119
119
119
119
119
120
120
120
120
120
120
120
120
121
121
121
121
121
121
121
121
121
121
121
121
121
121
121
121
120
120
121
121
121
121
121
121
121
121
121
121
121
121
121
121
121
121
121
121
121
121
121
121
121
121
121
121
121
121
122
122
122
122
122
122
122
122
122
121
121
121
121
122
122
122
122
122
122
123
123
123
123
123
123
123
123
123
124
124
124
124
124
124
124
123
123
123
123
123
123
124
124
124
124
123
123
123
123
123
123
123
123
123
124
124
124
124
124
124
124
124
124
124
124
124
124
124
125
125
125
124
125
125
124
125
125
124
125
124
124
125
125
125
125
126
126
126
126
126
126
126
127
127
127
127
128
128
128
128
129
129
129
130
130
130
130
131
130
130
130
130
130
130
130
130
130
130
129
130
130
130
130
130
130
130
129
129
130
129
129
129
130
130
129
129
130
130
130
130
130
130
130
130
130
130
131
131
131
131
131
131
131
131
131
132
132
132
132
132
132
132
132
132
132
132
132
133
133
132
132
132
133
133
133
133
134
133
133
134
134
134
134
134
135
135
135
135
135
135
135
134
135
135
135
134
134
134
134
134
134
134
133
133
133
133
133
133
133
133
133
133
133
133
133
134
134
134
134
134
134
135
135
136
136
136
137
137
137
137
138
139
139
140
140
140
140
140
140
141
141
141
141
141
141
141
141
140
140
140
140
140
140
140
140
139
139
138
138
138
138
139
139
139
139
139
139
139
140
140
140
140
140
140
141
141
141
141
141
141
141
141
141
142
142
142
142
142
143
143
143
143
143
143
143
143
144
144
144
144
144
145
145
145
145
145
145
145
145
145
146
146
146
146
146
147
147
147
146
146
146
146
147
147
147
146
146
146
145
145
145
146
146
145
145
146
146
146
146
146
146
146
147
147
148
148
148
149
149
149
149
149
149
149
149
149
149
149
149
150
150
150
151
151
151
152
152
152
153
153
154
154
155
156
157
157
157
158
159
159
159
159
160
160
160
161
162
162
162
162
162
164
163
163
164
164
164
164
163
165
165
164
164
165
164
164
164
164
163
163
162
162
163
163
162
162
162
162
161
161
160
161
161
160
160
160
159
159
159
159
159
158
159
158
158
157
157
157
157
157
156
156
156
156
156
155
155
155
155
154
154
154
154
154
154
153
153
153
154
154
154
153
153
153
154
153
154
154
154
154
155
155
154
154
155
155
155
155
155
156
156
156
156
156
156
156
157
157
157
157
158
158
158
158
158
158
159
159
159
159
159
159
159
159
160
160
160
160
160
161
161
161
160
161
161
161
161
161
160
160
161
160
160
160
159
159
160
160
161
163
165
167
170
173
176
178
180
182
183
183
182
180
177
171
161
150
136
119
98
75
50
21
-11
-44
-80
-117
-156
-196
-237
-278
-319
-358
-395
-431
-464
-494
-521
-544
-562
-577
-587
-594
-596
-595
-590
-582
-570
-555
-538
-519
-498
-475
-451
-425
-400
-373
-346
-321
-294
-269
-245
-221
-198
-176
-155
-135
-116
-97
-79
-62
-46
-30
-14
0
14
29
43
55
68
80
91
102
113
123
132
141
149
157
163
170
175
181
185
190
194
198
201
203
206
208
210
211
213
215
216
218
219
220
220
222
223
223
224
225
225
227
227
228
228
229
231
231
232
232
233
235
235
236
237
237
239
239
240
240
241
241
242
242
244
244
245
245
246
246
247
247
248
248
249
249
250
251
252
251
252
253
254
254
255
256
256
257
258
258
260
260
261
261
262
262
263
264
265
266
266
267
268
269
270
271
272
272
273
274
275
276
277
278
279
280
281
281
283
284
284
286
287
287
288
289
290
291
292
293
294
295
295
296
297
298
300
301
302
303
304
306
307
308
309
310
312
314
315
317
318
320
321
323
325
327
329
331
332
334
336
338
340
342
343
346
347
349
352
354
355
357
360
361
364
366
367
370
371
374
375
378
380
382
384
386
388
390
392
393
396
397
399
400
401
403
404
405
407
408
408
410
411
411
412
412
413
414
414
415
415
416
416
416
416
417
416
417
416
417
416
417
416
415
416
415
414
413
411
410
410
409
407
406
404
402
401
399
397
395
393
392
390
388
385
384
382
379
378
375
373
371
369
367
364
362
360
356
354
351
349
347
344
341
339
336
333
330
328
325
321
318
316
313
311
308
305
303
299
297
295
292
289
288
285
282
280
277
275
272
270
268
266
263
261
259
256
255
252
249
248
245
244
242
240
237
236
234
232
231
229
227
225
224
222
220
219
217
216
214
212
212
210
209
208
206
205
204
203
202
201
200
199
198
198
197
197
196
196
195
195
194
194
193
193
192
191
191
191
190
189
189
187
187
186
186
185
184
184
183
183
182
182
181
181
181
180
179
179
179
179
178
178
178
178
178
178
177
177
177
176
176
176
176
176
176
175
176
176
176
176
177
176
176
176
176
177
177
177
177
177
177
178
178
178
179
178
178
178
179
180
179
179
179
180
180
180
180
181
181
181
182
183
183
184
184
185
185
186
185
186
187
187
188
188
189
190
190
191
192
192
193
193
193
194
194
195
195
195
196
196
196
196
196
197
197
197
198
198
198
199
199
199
200
199
199
199
200
200
200
200
200
200
200
200
201
201
201
201
201
202
202
202
202
202
203
204
204
204
204
205
205
206
206
206
206
206
206
206
206
206
206
206
207
206
206
206
205
205
205
205
204
204
204
204
203
203
203
203
204
204
204
204
204
204
204
204
204
203
203
203
203
203
203
203
203
203
203
203
202
202
202
202
201
201
201
200
200
199
199
199
199
198
198
197
197
197
196
196
197
197
196
196
196
196
195
195
195
195
195
195
195
195
195
195
195
195
193
193
193
193
193
193
192
193
193
192
192
192
192
192
192
191
191
191
191
191
191
191
191
191
191
190
190
190
190
190
190
190
190
190
190
191
191
191
191
191
191
191
191
191
190
190
191
191
191
191
191
192
192
192
192
192
192
192
192
193
193
192
192
192
192
192
192
191
191
191
191
191
190
190
190
189
189
189
189
189
189
189
188
188
189
189
189
189
189
188
188
189
189
189
189
188
188
188
188
188
188
188
188
188
188
188
188
188
188
188
188
188
188
188
187
188
189
189
189
189
189
189
188
189
189
189
190
189
189
189
189
188
188
188
188
188
188
188
188
188
187
187
187
188
188
187
187
188
187
188
188
187
188
188
187
188
188
187
187
187
187
187
187
186
186
186
187
186
186
187
186
186
186
186
186
187
187
187
187
187
187
187
187
188
188
188
189
189
189
189
189
190
190
190
190
190
190
189
190
189
189
189
189
189
188
188
188
188
188
187
187
187
187
187
188
187
187
187
187
187
187
187
187
188
188
188
188
188
188
188
188
188
188
188
188
189
189
189
189
189
189
189
189
189
189
189
190
190
190
190
190
190
190
190
190
191
191
191
191
191
191
191
191
191
192
192
192
191
191
191
191
191
191
192
192
191
191
191
191
191
191
191
190
190
190
191
191
191
191
191
191
191
191
191
191
191
192
192
192
193
192
193
194
194
194
195
195
195
195
195
195
195
195
194
194
194
195
194
194
194
194
194
193
194
194
193
193
193
193
193
193
193
194
194
194
194
194
193
194
194
193
194
193
194
194
194
193
193
193
193
193
193
193
193
193
193
193
193
193
193
194
194
194
194
194
194
194
194
194
195
195
196
196
196
196
196
196
197
197
197
197
197
197
197
197
197
197
197
197
197
197
198
197
197
198
198
198
198
197
197
197
198
198
198
199
199
200
200
200
202
202
202
203
203
204
204
204
205
205
206
206
206
206
206
206
207
206
206
206
206
206
205
205
206
205
205
204
204
204
203
203
203
203
203
202
202
203
203
203
203
203
203
202
202
202
202
202
202
201
201
201
200
200
200
199
199
198
197
197
196
195
195
194
194
194
192
192
192
191
191
191
190
190
190
190
190
190
190
190
190
190
190
190
190
190
190
190
190
190
190
190
191
191
190
190
190
190
190
190
190
190
189
189
189
190
190
190
190
190
190
191
191
191
191
191
191
191
191
191
191
191
191
191
191
191
191
191
191
191
192
192
191
192
191
191
191
191
192
192
192
192
192
192
192
192
192
192
192
192
193
193
194
195
197
199
201
204
208
211
214
218
220
223
226
226
227
226
223
218
209
198
186
170
151
129
105
76
47
14
-21
-57
-95
-135
-174
-214
-253
-292
-328
-363
-394
-422
-447
-469
-487
-500
-509
-514
-516
-514
-509
-499
-487
-472
-455
-437
-416
-394
-371
-347
-323
-299
-274
-250
-226
-205
-182
-162
-142
-123
-104
-86
-69
-52
-37
-21
-6
9
23
37
51
65
77
89
101
113
124
135
144
154
162
171
179
187
194
200
205
210
215
218
222
226
228
231
233
235
237
239
240
242
244
245
246
247
249
249
250
251
252
253
254
253
254
255
256
257
257
258
258
259
259
260
260
262
262
262
263
263
263
265
265
265
265
266
267
268
268
268
270
270
271
271
273
273
274
274
275
276
277
278
278
279
279
280
281
282
281
282
283
283
284
285
284
285
285
286
286
287
287
288
288
288
289
290
290
290
291
292
293
293
294
295
297
297
298
299
300
300
302
302
303
304
304
306
307
308
309
310
311
312
313
314
315
316
317
319
320
321
323
324
325
327
328
330
331
332
335
336
337
338
339
341
343
345
346
347
349
350
352
354
356
357
359
361
363
364
367
368
370
372
374
376
377
380
381
383
385
386
389
391
393
394
396
397
399
400
402
404
406
408
409
411
413
414
416
418
419
421
422
423
425
426
428
429
430
430
432
433
433
434
434
435
435
435
436
436
436
436
436
436
436
436
435
435
435
434
434
433
433
431
431
430
429
428
427
425
423
422
420
418
416
414
412
410
408
406
404
401
399
397
395
392
390
388
385
383
380
377
375
373
371
368
366
363
361
358
356
354
351
349
345
343
340
338
335
332
330
327
324
322
319
316
314
311
309
306
303
300
298
296
293
290
288
286
283
281
279
276
273
272
269
267
265
263
261
259
257
255
253
251
249
247
245
244
242
241
238
237
235
234
233
232
231
229
228
227
225
225
223
222
221
221
219
218
218
217
216
215
215
214
214
213
213
213
212
211
211
211
210
210
209
209
208
208
208
206
206
206
205
205
205
204
203
203
202
202
201
200
200
199
198
198
197
197
196
196
195
195
195
195
195
194
195
195
195
195
195
195
195
196
196
196
196
196
196
196
197
197
197
197
197
198
197
197
197
198
198
198
198
198
198
199
199
199
199
200
199
200
200
200
201
200
200
201
201
201
202
202
202
203
203
205
205
205
205
206
206
207
207
207
207
208
208
209
209
209
209
210
210
210
210
211
211
212
212
213
213
212
213
213
214
214
214
215
214
214
215
215
215
215
215
215
215
215
215
215
216
216
216
216
216
216
216
217
216
217
217
218
219
219
219
219
219
219
219
220
220
220
219
219
219
219
219
220
220
220
220
220
220
220
220
220
220
220
220
220
220
220
220
220
220
219
219
219
219
219
218
218
217
218
217
217
217
217
217
217
217
217
217
216
216
216
217
216
216
216
216
216
216
216
216
216
215
215
215
215
215
215
214
214
214
214
213
213
212
213
213
212
212
211
211
211
211
210
210
210
208
208
208
207
207
207
206
206
206
206
205
205
205
205
205
205
205
203
203
203
203
203
204
204
203
204
204
204
204
205
205
204
204
205
205
205
205
204
204
205
205
205
205
205
204
204
204
204
203
203
202
202
202
201
201
201
201
201
201
201
201
200
200
200
200
200
199
199
199
200
200
200
200
199
199
199
200
200
200
199
199
199
201
200
200
200
200
200
201
201
201
201
201
201
201
201
201
201
200
199
199
199
198
198
198
197
197
197
197
196
196
196
196
195
195
195
195
195
195
195
195
195
195
195
196
195
195
196
196
196
196
196
196
196
197
197
197
197
198
198
198
198
198
198
197
198
198
198
198
198
198
198
198
198
198
197
197
197
197
196
196
197
197
197
196
197
197
196
196
197
197
197
198
198
198
198
199
198
198
198
198
198
198
199
198
198
198
198
199
199
199
199
200
200
200
200
200
200
200
201
201
201
202
202
203
203
203
203
204
204
205
205
205
206
206
206
206
207
207
207
207
207
207
207
207
207
207
207
207
207
207
207
206
205
205
205
205
205
205
205
205
205
203
203
203
203
203
203
204
203
203
203
203
203
204
204
203
203
203
203
203
203
204
203
203
203
203
202
202
202
202
201
200
200
199
199
199
198
197
197
197
195
194
194
193
193
193
192
192
192
192
191
192
192
192
191
192
192
192
192
192
192
192
192
192
192
192
192
191
191
192
192
192
192
192
192
192
192
192
192
193
193
193
193
192
192
193
193
193
193
192
192
191
191
191
190
190
190
190
189
189
189
189
189
189
189
189
190
190
190
190
190
191
191
191
192
192
192
192
192
192
192
193
192
193
193
195
195
197
200
203
206
211
214
218
220
223
226
229
230
230
229
224
218
210
199
185
169
150
128
103
74
44
11
-24
-59
-98
-136
-174
-212
-250
-287
-322
-354
-382
-409
-432
-449
-465
-475
-482
-486
-485
-481
-473
-463
-449
-434
-417
-397
-376
-354
-332
-309
-285
-262
-238
-216
-195
-173
-154
-134
-116
-97
-80
-65
-49
-34
-19
-4
10
25
37
51
63
75
88
99
111
122
132
142
152
162
170
178
185
192
197
203
209
213
217
221
225
227
231
233
235
236
238
240
241
242
244
245
246
246
247
248
249
250
251
252
252
253
254
255
255
256
257
257
258
258
259
260
261
261
262
263
263
263
264
265
265
265
266
267
267
267
268
268
269
269
270
270
271
271
272
272
273
273
274
274
275
275
275
275
277
276
278
278
278
278
279
279
280
281
281
281
282
282
283
284
284
284
284
284
285
285
286
287
287
288
288
289
289
289
290
290
292
292
293
294
295
295
297
298
299
300
301
302
304
305
307
308
309
310
311
312
313
315
316
317
320
321
322
323
325
325
326
327
328
330
332
333
334
335
337
338
340
341
342
344
345
347
348
350
351
353
355
357
358
361
363
365
367
369
370
373
374
377
379
381
383
385
387
389
390
392
394
396
397
399
400
402
402
404
406
406
408
408
410
411
411
412
414
414
415
416
417
417
418
419
419
419
420
420
420
420
420
420
420
420
420
419
419
418
418
417
415
414
414
412
412
410
409
407
405
404
402
401
399
398
396
394
392
390
388
386
384
381
379
377
375
373
370
368
366
364
361
358
356
353
351
348
345
343
339
337
334
331
329
326
324
320
317
314
312
309
306
304
301
299
295
292
290
287
285
282
280
277
275
272
269
268
265
262
260
257
256
253
251
249
246
244
242
239
238
236
234
231
230
228
226
224
224
222
220
219
217
216
215
213
213
211
211
209
209
207
206
206
204
203
202
201
200
200
198
198
197
196
195
194
194
192
192
192
191
190
190
189
188
188
186
186
186
185
185
185
184
183
183
183
182
181
181
181
181
180
180
180
180
180
180
180
180
180
180
180
179
179
179
179
179
179
178
178
178
177
177
177
176
176
176
176
175
175
175
174
174
174
174
173
173
173
173
173
173
173
172
172
172
172
172
172
172
173
173
173
173
172
172
173
173
173
173
174
174
174
175
174
175
175
176
176
176
177
177
177
177
177
178
178
178
178
178
178
178
178
178
178
178
178
177
178
178
178
178
178
179
179
180
180
179
180
180
180
181
181
181
181
181
181
181
182
182
183
183
183
183
183
182
182
183
183
183
183
183
183
183
183
182
183
183
183
183
183
184
183
183
182
182
182
183
182
182
182
182
182
181
181
181
180
180
180
180
180
179
179
179
179
178
178
178
178
178
178
177
177
177
177
176
176
176
177
176
175
175
175
175
175
174
174
175
173
173
173
173
173
172
172
172
172
172
172
172
171
171
170
170
170
169
169
169
169
167
167
167
166
166
166
165
164
164
164
163
163
163
163
163
162
162
162
161
161
161
161
161
161
161
160
160
159
160
159
159
158
158
158
157
157
157
157
156
156
156
156
156
156
156
156
157
156
156
156
156
157
156
156
156
156
156
155
155
155
155
155
154
154
154
153
154
154
153
153
153
153
153
151
151
151
152
151
150
150
150
150
151
150
150
150
149
149
149
149
149
148
148
147
147
147
147
146
146
146
146
146
145
145
145
145
145
145
145
145
146
145
145
145
146
145
145
145
145
145
146
146
145
145
145
144
144
144
143
143
143
143
142
142
142
142
142
142
142
142
142
143
143
143
143
143
143
143
145
145
145
145
145
146
146
146
147
147
147
148
148
148
148
149
149
149
149
149
149
150
150
150
150
149
149
149
148
148
147
146
146
145
144
143
143
142
141
140
140
139
138
138
138
137
137
137
137
137
136
136
137
137
137
136
137
137
137
136
136
137
136
136
136
136
135
135
134
134
133
132
133
132
131
130
129
129
128
127
127
126
126
125
124
124
124
124
123
123
123
122
122
122
121
121
121
121
120
120
119
119
119
119
119
119
118
118
118
118
118
118
117
117
117
118
118
118
118
118
117
117
117
117
117
117
117
117
117
117
117
117
116
117
117
116
116
116
117
117
116
117
116
116
116
117
117
116
117
116
116
116
116
115
115
114
114
113
113
113
112
112
112
113
113
114
117
119
121
124
127
130
132
134
135
136
136
135
131
127
119
109
96
80
62
40
15
-13
-44
-76
-111
-148
-186
-226
-266
-307
-347
-387
-425
-461
-495
-525
-552
-575
-595
-611
-622
-629
-632
-631
-626
-619
-606
-592
-576
-556
-535
-513
-489
-464
-438
-413
-387
-361
-336
-312
-288
-266
-244
-224
-204
-184
-166
-149
-131
-114
-99
-82
-67
-52
-38
-24
-11
3
15
28
39
50
60
70
80
88
96
103
110
115
121
125
130
133
137
139
143
145
147
149
150
152
153
155
156
157
158
159
160
161
162
162
163
165
166
167
168
168
169
170
170
171
170
171
171
172
172
173
173
174
174
175
174
174
175
175
176
176
176
176
177
177
178
178
179
180
181
182
182
183
184
184
185
186
187
187
188
188
189
189
190
190
190
191
191
192
192
192
192
193
194
194
194
194
194
196
196
196
197
197
198
198
200
200
201
201
202
203
203
204
204
206
207
207
208
209
209
210
211
211
212
213
214
214
215
215
216
217
217
219
219
220
221
223
223
224
225
227
228
229
230
232
233
235
236
237
239
242
243
244
246
248
249
252
253
254
255
258
260
261
263
264
266
267
268
270
271
273
274
276
277
280
281
282
284
286
288
289
291
293
294
296
298
299
300
302
303
305
306
308
308
310
311
312
313
314
315
316
316
317
317
318
318
319
319
319
320
319
319
319
319
318
318
317
317
317
316
315
313
313
311
310
309
307
306
305
304
302
300
298
297
295
293
291
290
288
286
284
282
280
277
274
272
270
268
265
262
259
257
254
251
249
246
243
240
238
235
232
230
227
224
222
219
216
214
210
207
204
202
199
196
193
190
187
184
182
179
176
173
170
167
164
162
159
156
153
151
149
146
144
141
139
137
135
133
132
129
127
125
124
121
120
118
116
114
114
112
110
109
107
106
104
103
101
100
98
96
96
94
92
92
90
89
88
86
85
84
83
81
81
80
78
78
77
76
76
74
74
73
73
71
71
71
70
70
69
69
67
68
67
66
65
65
64
64
63
63
62
62
61
61
61
60
60
59
59
58
58
57
57
57
57
57
57
56
56
56
56
55
55
55
55
55
55
54
54
54
54
53
53
53
52
52
52
51
51
52
52
52
52
52
51
51
51
51
52
52
51
51
52
52
52
53
53
53
53
53
53
54
54
55
55
56
56
56
57
57
57
57
57
58
58
59
60
60
60
60
60
60
60
60
61
61
61
61
61
61
61
61
61
62
61
61
62
62
62
61
61
61
61
61
61
61
61
62
62
63
63
63
63
63
63
63
63
63
63
63
64
64
64
64
64
64
65
64
64
64
64
63
64
64
64
64
64
64
63
63
63
63
63
62
63
63
62
62
62
61
61
61
61
60
59
59
58
59
58
57
57
57
56
55
55
55
54
53
54
53
52
52
52
52
51
51
51
51
50
50
50
49
49
49
49
48
48
48
48
48
48
47
47
47
47
47
47
46
46
46
45
45
45
45
44
44
43
44
43
43
42
42
41
41
41
41
40
40
39
39
39
38
38
39
38
38
38
37
37
38
38
37
36
36
37
37
36
36
36
36
36
36
35
35
34
34
34
34
34
34
33
33
33
32
32
33
32
32
32
31
31
32
31
31
31
31
31
31
30
30
30
29
29
29
28
28
28
27
27
27
26
26
25
25
25
24
24
24
23
23
23
23
23
23
23
23
23
23
23
23
23
23
23
23
23
23
22
22
22
22
22
21
22
22
22
21
22
22
21
21
21
21
20
20
21
20
20
20
20
19
19
19
19
20
20
18
18
18
18
18
18
18
18
18
18
18
18
18
18
17
18
18
17
17
18
17
17
17
17
17
17
16
16
16
16
15
15
15
16
15
15
15
15
15
15
16
16
16
15
15
15
15
15
15
15
14
15
15
14
14
13
13
13
12
12
12
11
11
11
10
10
9
9
9
9
9
9
9
9
9
9
9
9
8
8
8
9
9
9
9
9
9
8
9
9
8
9
8
8
8
8
8
7
8
8
8
7
7
7
7
6
6
7
7
6
7
7
7
6
6
6
6
5
5
6
6
6
6
6
6
6
6
6
6
7
7
7
6
6
7
7
8
7
7
7
7
7
7
7
7
7
7
7
7
6
6
6
6
4
4
4
4
4
4
4
4
3
2
2
2
2
2
2
2
2
2
3
2
2
2
2
3
3
3
3
3
3
3
3
3
3
2
2
2
2
2
2
2
3
3
4
4
4
4
4
5
5
6
6
7
7
8
9
9
9
10
10
10
12
12
11
12
12
12
13
12
12
12
11
11
12
11
11
10
10
10
9
9
9
8
8
8
7
7
7
7
7
6
6
5
5
6
5
5
5
5
5
5
5
5
5
4
4
4
4
5
4
4
4
4
4
3
3
3
2
2
2
0
0
0
-1
-1
-2
-3
-3
-3
-4
-5
-5
-6
-6
-6
-7
-8
-7
-8
-8
-8
-8
-8
-9
-9
-9
-9
-10
-10
-10
-11
-11
-12
-12
-12
-13
-12
-13
-14
-13
-13
-14
-14
-13
-14
-14
-14
-14
-14
-13
-13
-13
-14
-14
-14
-14
-14
-13
-14
-14
-14
-13
-13
-13
-13
-13
-13
-13
-13
-13
-13
-13
-12
-12
-11
-12
-12
-12
-11
-11
-12
-12
-11
-12
-12
-12
-13
-13
-13
-14
-14
-14
-14
-14
-13
-12
-10
-8
-5
-2
1
3
6
8
11
12
12
12
10
7
1
-8
-20
-34
-51
-72
-94
-121
-150
-182
-217
-253
-291
-330
-371
-414
-454
-495
-535
-573
-609
-642
-671
-698
-721
-740
-754
-765
-771
-774
-772
-766
-757
-745
-731
-713
-693
-672
-648
-624
-598
-571
-545
-518
-492
-466
-441
-417
-393
-371
-348
-328
-308
-288
-270
-252
-234
-219
-202
-186
-171
-156
-144
-131
-118
-106
-94
-82
-71
-62
-52
-43
-35
-27
-19
-13
-8
-2
3
6
11
14
17
20
23
25
27
29
30
32
33
34
36
38
39
40
41
42
43
45
46
47
48
49
49
50
51
52
53
54
54
55
55
57
57
57
58
58
59
59
59
60
61
61
61
61
62
62
63
64
64
64
65
65
66
67
67
68
68
69
69
70
71
71
72
72
73
74
74
75
75
75
76
76
77
77
77
79
79
79
80
81
81
82
83
84
84
84
86
86
86
87
87
89
89
90
90
91
92
92
93
93
94
96
96
97
99
99
100
101
102
104
105
106
107
109
110
111
112
114
116
117
119
120
121
123
124
125
128
129
130
131
132
135
136
137
139
141
142
144
145
147
149
151
152
155
156
158
161
162
164
167
168
171
173
174
176
179
180
183
184
186
188
190
192
194
195
197
199
200
202
203
205
206
208
210
210
212
213
215
215
216
217
219
220
220
221
222
223
224
224
225
225
225
226
226
226
226
226
225
225
225
224
224
224
223
222
221
221
219
218
216
216
214
213
211
210
209
207
206
204
202
200
198
197
195
192
190
188
185
182
181
178
175
173
171
168
165
163
159
157
155
152
150
146
144
141
139
137
134
132
129
127
124
121
119
116
113
111
109
107
104
101
98
97
94
91
89
86
84
81
78
77
74
71
69
67
64
61
60
57
54
53
51
48
46
44
42
40
38
36
34
33
31
30
28
27
25
23
22
21
19
18
16
15
14
13
11
10
9
8
7
6
4
3
2
2
0
-1
-1
-3
-4
-4
-5
-5
-7
-7
-8
-8
-9
-9
-9
-10
-10
-12
-12
-12
-13
-13
-13
-15
-16
-16
-17
-17
-17
-18
-18
-18
-19
-19
-19
-19
-20
-20
-20
-20
-20
-20
-21
-20
-20
-21
-21
-20
-20
-20
-21
-20
-20
-21
-21
-21
-21
-22
-22
-22
-22
-22
-22
-23
-23
-23
-23
-23
-24
-24
-24
-24
-24
-24
-24
-24
-24
-23
-22
-22
-22
-22
-22
-21
-21
-21
-20
-20
-19
-19
-19
-18
-18
-18
-17
-17
-16
-16
-16
-15
-14
-14
-14
-14
-12
-12
-12
-12
-12
-10
-10
-10
-10
-10
-10
-9
-9
-9
-9
-9
-9
-9
-9
-9
-9
-9
-9
-8
-8
-8
-9
-9
-8
-8
-8
-8
-8
-8
-8
-8
-8
-8
-8
-8
-8
-8
-8
-8
-8
-7
-7
-7
-7
-8
-8
-8
-8
-7
-7
-7
-7
-7
-7
-8
-7
-7
-7
-8
-7
-8
-8
-8
-8
-8
-8
-7
-8
-8
-9
-8
-8
-8
-8
-8
-8
-9
-9
-8
-8
-9
-9
-9
-9
-9
-10
-11
-11
-11
-12
-12
-13
-13
-13
-14
-14
-15
-16
-17
-17
-17
-17
-17
-18
-18
-18
-18
-19
-19
-18
-19
-19
-19
-19
-19
-19
-19
-20
-19
-19
-19
-19
-20
-20
-20
-20
-20
-20
-21
-21
-21
-21
-21
-22
-22
-22
-23
-23
-24
-24
-24
-25
-25
-25
-25
-26
-26
-26
-27
-27
-27
-27
-27
-27
-27
-27
-27
-26
-26
-27
-26
-26
-26
-26
-26
-26
-25
-25
-24
-24
-24
-24
-24
-25
-25
-24
-25
-25
-26
-26
-26
-27
-27
-27
-28
-28
-28
-29
-28
-28
-28
-29
-29
-29
-29
-29
-30
-30
-30
-30
-30
-30
-30
-30
-29
-29
-29
-30
-30
-30
-30
-30
-29
-29
-30
-30
-30
-30
-30
-30
-30
-30
-30
-30
-30
-30
-30
-30
-30
-30
-30
-31
-30
-30
-31
-30
-31
-31
-32
-32
-32
-32
-32
-32
-32
-32
-32
-33
-32
-32
-32
-32
-32
-32
-32
-32
-32
-32
-32
-31
-31
-31
-32
-32
-32
-32
-32
-33
-33
-32
-32
-33
-33
-32
-33
-33
-34
-34
-34
-33
-34
-34
-34
-34
-34
-34
-34
-33
-33
-33
-33
-33
-33
-34
-34
-32
-32
-32
-33
-33
-33
-32
-33
-33
-33
-33
-33
-33
-33
-33
-33
-34
-34
-34
-34
-33
-33
-34
-34
-34
-34
-34
-33
-33
-33
-33
-33
-33
-34
-34
-34
-34
-34
-35
-35
-34
-35
-35
-35
-35
-35
-35
-35
-35
-36
-36
-36
-35
-36
-36
-36
-36
-35
-35
-35
-35
-35
-35
-35
-35
-34
-34
-35
-35
-35
-34
-34
-34
-34
-34
-34
-34
-34
-34
-34
-35
-34
-35
-35
-35
-35
-35
-35
-36
-36
-36
-36
-36
-36
-36
-35
-35
-36
-36
-35
-35
-35
-34
-34
-34
-34
-33
-33
-33
-33
-33
-33
-33
-33
-33
-34
-33
-33
-33
-33
-33
-33
-33
-33
-33
-35
-35
-34
-35
-35
-35
-34
-35
-35
-35
-35
-35
-34
-34
-35
-34
-34
-34
-34
-34
-34
-33
-33
-34
-34
-33
-33
-33
-33
-33
-33
-33
-33
-34
-34
-33
-34
-34
-33
-33
-34
-34
-34
-34
-34
-34
-32
-32
-32
-32
-32
-31
-31
-30
-29
-29
-29
-28
-27
-27
-27
-26
-26
-25
-25
-24
-25
-24
-24
-24
-23
-23
-22
-22
-22
-22
-22
-22
-23
-23
-23
-23
-23
-23
-24
-24
-24
-24
-26
-26
-26
-26
-26
-28
-28
-28
-28
-29
-28
-28
-28
-28
-28
-27
-27
-27
-27
-27
-27
-28
-28
-28
-28
-28
-29
-29
-29
-29
-30
-30
-31
-32
-33
-33
-34
-35
-35
-36
-36
-36
-37
-37
-37
-38
-38
-39
-39
-39
-39
-39
-40
-40
-40
-40
-41
-41
-40
-41
-41
-41
-41
-41
-42
-41
-41
-41
-41
-41
-41
-41
-41
-40
-40
-40
-40
-39
-39
-39
-39
-39
-39
-39
-40
-39
-39
-39
-39
-40
-39
-40
-40
-40
-41
-41
-41
-41
-41
-41
-41
-40
-40
-40
-40
-40
-40
-40
-40
-40
-40
-40
-39
-39
-40
-39
-39
-39
-40
-39
-39
-40
-39
-38
-37
-36
-35
-32
-29
-27
-24
-20
-18
-15
-13
-12
-11
-10
-12
-14
-20
-29
-39
-52
-69
-88
-111
-136
-165
-197
-230
-266
-304
-343
-384
-425
-468
-509
-549
-588
-624
-659
-689
-716
-740
-760
-775
-787
-793
-796
-795
-791
-782
-770
-756
-739
-719
-698
-675
-652
-626
-600
-574
-547
-521
-495
-470
-446
-422
-399
-378
-357
-337
-317
-298
-280
-263
-246
-230
-214
-199
-185
-170
-157
-143
-131
-120
-107
-97
-87
-77
-70
-61
-53
-46
-39
-34
-29
-24
-20
-16
-12
-9
-7
-5
-2
0
1
3
5
6
8
10
11
12
13
14
15
16
17
19
20
20
21
21
23
24
25
25
26
27
28
29
30
30
31
32
33
33
34
34
35
36
36
37
37
38
38
39
39
39
40
40
40
41
41
41
42
42
43
43
43
45
45
46
46
47
47
47
48
48
49
50
50
50
50
51
51
52
52
53
54
54
55
56
56
57
58
59
60
61
62
63
64
65
66
67
68
69
70
71
72
73
74
76
77
77
78
79
81
81
82
83
84
86
87
88
89
91
92
93
94
96
97
99
100
102
103
105
106
107
110
111
112
114
116
117
118
120
122
123
125
127
129
131
132
134
136
137
140
141
144
145
147
149
150
152
155
157
158
159
162
164
165
167
168
170
172
173
175
176
178
180
182
183
185
187
189
190
192
193
193
195
197
198
199
200
201
202
203
204
204
205
205
205
205
205
205
205
205
205
205
205
205
205
204
204
203
202
202
201
200
200
198
198
196
195
194
192
192
190
188
187
185
183
181
179
177
175
172
170
167
165
162
160
157
154
152
149
147
143
141
139
135
133
130
127
124
122
119
117
114
111
108
106
103
100
97
95
92
90
87
84
81
79
76
73
70
68
65
63
60
57
55
52
50
47
44
43
40
37
36
33
32
29
27
25
23
21
19
17
16
13
11
10
9
7
6
4
2
1
-1
-2
-3
-5
-6
-8
-8
-10
-11
-13
-13
-15
-16
-18
-19
-20
-21
-22
-23
-23
-24
-26
-26
-27
-28
-28
-29
-29
-30
-30
-31
-31
-31
-31
-31
-31
-31
-32
-32
-32
-32
-32
-33
-33
-34
-35
-35
-35
-36
-36
-36
-37
-37
-38
-38
-39
-39
-39
-40
-40
-40
-40
-41
-41
-41
-41
-41
-41
-41
-41
-41
-42
-42
-42
-42
-41
-42
-42
-42
-42
-42
-42
-42
-42
-42
-42
-41
-41
-41
-41
-41
-40
-41
-41
-40
-40
-40
-40
-39
-39
-38
-39
-39
-38
-38
-38
-38
-37
-37
-36
-36
-36
-36
-34
-34
-34
-34
-33
-33
-33
-32
-32
-32
-32
-31
-31
-31
-30
-30
-30
-29
-29
-29
-30
-29
-28
-28
-28
-28
-28
-27
-27
-27
-27
-26
-27
-26
-26
-26
-25
-25
-25
-24
-25
-24
-24
-24
-23
-23
-23
-23
-22
-23
-23
-23
-23
-23
-24
-23
-23
-23
-23
-23
-23
-23
-23
-22
-22
-22
-22
-22
-22
-22
-22
-21
-22
-22
-22
-22
-21
-22
-22
-21
-22
-23
-22
-23
-23
-24
-23
-24
-24
-23
-24
-23
-24
-24
-24
-25
-24
-25
-25
-25
-25
-25
-25
-26
-26
-26
-26
-27
-28
-28
-28
-28
-28
-28
-28
-30
-30
-30
-30
-31
-31
-31
-31
-31
-32
-32
-32
-33
-34
-35
-35
-36
-36
-36
-37
-37
-38
-38
-39
-39
-39
-39
-39
-39
-39
-39
-39
-39
-38
-38
-38
-38
-38
-38
-38
-38
-38
-38
-38
-39
-39
-39
-39
-39
-39
-40
-40
-40
-40
-41
-42
-42
-42
-42
-42
-43
-43
-43
-43
-43
-44
-44
-44
-43
-44
-44
-45
-44
-44
-44
-44
-44
-44
-44
-44
-44
-44
-45
-45
-45
-45
-45
-45
-46
-45
-45
-45
-46
-46
-46
-46
-46
-46
-47
-47
-47
-47
-47
-47
-46
-46
-47
-47
-47
-47
-47
-47
-48
-48
-48
-48
-48
-48
-48
-48
-48
-48
-48
-48
-48
-48
-48
-48
-48
-48
-49
-49
-48
-48
-48
-48
-49
-48
-48
-48
-49
-48
-48
-48
-48
-48
-48
-48
-48
-48
-47
-47
-48
-47
-47
-47
-47
-47
-47
-45
-45
-45
-45
-45
-44
-44
-45
-44
-44
-44
-44
-44
-44
-44
-43
-43
-43
-43
-43
-43
-43
-43
-43
-42
-42
-42
-42
-41
-41
-41
-41
-41
-41
-41
-41
-41
-42
-42
-42
-42
-42
-42
-42
-42
-42
-44
-44
-44
-44
-44
-44
-44
-44
-44
-44
-44
-45
-45
-44
-44
-44
-44
-44
-44
-44
-44
-44
-45
-45
-45
-45
-46
-46
-46
-48
-48
-48
-48
-50
-50
-50
-51
-51
-51
-53
-53
-53
-53
-53
-53
-53
-54
-54
-54
-54
-54
-54
-54
-54
-54
-54
-55
-55
-55
-55
-55
-55
-55
-55
-55
-56
-56
-56
-56
-56
-56
-57
-57
-57
-57
-57
-57
-58
-58
-59
-58
-58
-58
-58
-59
-59
-59
-59
-58
-58
-59
-59
-59
-59
-58
-59
-59
-58
-58
-58
-57
-57
-58
-58
-58
-57
-57
-58
-58
-58
-58
-58
-58
-58
-58
-58
-57
-57
-57
-56
-55
-54
-52
-49
-46
-43
-39
-36
-33
-29
-25
-22
-19
-17
-17
-18
-21
-26
-32
-42
-55
-71
-90
-113
-138
-165
-196
-229
-264
-301
-340
-378
-418
-458
-497
-535
-571
-605
-634
-662
-685
-706
-722
-734
-742
-746
-747
-743
-736
-726
-714
-698
-682
-663
-642
-620
-598
-574
-551
-527
-504
-481
-458
-437
-416
-397
-377
-359
-343
-325
-309
-292
-277
-262
-247
-232
-218
-205
-192
-179
-166
-154
-142
-132
-120
-110
-100
-91
-83
-75
-68
-62
-55
-50
-45
-40
-35
-32
-28
-25
-23
-20
-18
-16
-14
-13
-12
-10
-9
-8
-7
-6
-5
-4
-4
-3
-3
-2
-2
-1
-1
1
1
1
2
2
3
3
4
5
6
6
6
7
8
9
9
10
11
11
12
12
12
13
13
14
15
15
16
16
17
17
17
19
19
20
20
21
21
22
23
22
24
24
24
25
26
27
26
27
28
28
29
29
30
30
32
32
33
34
34
35
35
37
37
38
38
40
40
40
41
41
42
44
43
45
44
46
45
47
47
48
49
50
51
51
52
53
54
55
57
58
59
60
61
63
64
65
66
68
69
71
71
73
75
75
77
78
79
82
83
84
86
87
88
90
91
93
95
96
98
100
101
103
105
106
109
110
112
114
116
118
120
122
124
126
128
130
132
134
136
138
140
141
143
145
147
149
150
151
152
154
155
157
157
159
160
161
163
163
164
165
166
168
168
168
169
171
171
172
172
173
173
172
173
173
173
172
173
172
172
172
171
170
168
168
167
165
165
164
162
161
159
158
157
155
153
151
150
148
146
144
142
140
139
137
135
134
131
130
127
125
123
120
119
116
114
111
110
107
104
102
99
96
94
91
88
85
83
80
77
74
72
69
66
64
61
58
55
53
50
48
45
43
40
38
36
33
31
29
27
24
23
20
18
16
14
12
10
8
6
4
2
0
-2
-4
-6
-8
-10
-11
-13
-15
-17
-19
-21
-22
-23
-25
-27
-28
-29
-31
-31
-33
-34
-35
-36
-37
-37
-38
-40
-40
-41
-41
-42
-42
-43
-44
-45
-45
-46
-47
-48
-48
-49
-50
-51
-51
-52
-53
-53
-53
-54
-54
-55
-55
-56
-57
-57
-57
-57
-58
-58
-58
-58
-58
-59
-59
-59
-59
-59
-59
-59
-59
-59
-59
-60
-60
-60
-60
-61
-61
-60
-61
-61
-61
-61
-61
-61
-61
-61
-61
-61
-61
-61
-61
-60
-60
-60
-60
-60
-60
-60
-60
-60
-60
-59
-59
-59
-59
-59
-59
-58
-58
-58
-57
-56
-56
-56
-56
-55
-55
-54
-54
-53
-54
-54
-53
-53
-53
-53
-53
-52
-53
-53
-53
-52
-52
-52
-52
-51
-51
-51
-50
-50
-50
-50
-50
-49
-48
-48
-48
-48
-48
-47
-47
-46
-46
-46
-46
-46
-46
-46
-45
-46
-46
-45
-45
-45
-45
-45
-45
-45
-45
-45
-45
-45
-44
-44
-44
-44
-43
-43
-43
-42
-42
-42
-42
-42
-42
-43
-42
-42
-42
-42
-43
-43
-43
-42
-43
-43
-43
-43
-43
-44
-44
-44
-43
-44
-44
-44
-44
-44
-44
-44
-44
-44
-44
-44
-44
-45
-45
-45
-45
-45
-45
-45
-45
-45
-45
-46
-46
-46
-46
-46
-46
-46
-46
-47
-47
-47
-47
-47
-47
-48
-48
-49
-49
-49
-49
-50
-50
-50
-50
-51
-52
-52
-52
-52
-52
-52
-52
-53
-53
-53
-53
-54
-54
-54
-54
-54
-55
-55
-55
-55
-55
-55
-55
-55
-55
-55
-55
-55
-55
-55
-56
-56
-55
-55
-56
-56
-56
-56
-57
-56
-56
-56
-57
-57
-57
-57
-58
-58
-58
-58
-58
-57
-57
-58
-58
-58
-58
-58
-57
-57
-57
-58
-58
-57
-57
-57
-57
-57
-57
-57
-57
-57
-57
-57
-57
-57
-57
-57
-56
-55
-55
-55
-55
-55
-54
-54
-54
-53
-53
-53
-52
-52
-51
-51
-51
-51
-50
-51
-50
-50
-50
-50
-50
-50
-50
-50
-50
-50
-50
-51
-51
-51
-51
-51
-52
-52
-53
-54
-54
-54
-55
-55
-55
-55
-55
-56
-56
-56
-56
-56
-57
-56
-56
-56
-56
-55
-55
-55
-55
-56
-56
-55
-55
-55
-55
-55
-56
-56
-56
-57
-58
-58
-59
-59
-59
-60
-60
-61
-62
-62
-63
-63
-64
-64
-65
-66
-66
-66
-67
-67
-67
-68
-68
-68
-68
-69
-69
-70
-69
-69
-70
-69
-69
-70
-70
-69
-70
-70
-69
-70
-69
-69
-68
-68
-68
-68
-67
-67
-67
-67
-67
-66
-66
-66
-66
-67
-67
-67
-67
-67
-67
-67
-67
-67
-67
-67
-68
-69
-69
-69
-69
-69
-69
-69
-69
-69
-69
-69
-69
-69
-69
-69
-69
-69
-69
-69
-69
-69
-69
-69
-70
-69
-69
-70
-69
-69
-68
-66
-65
-62
-61
-57
-54
-51
-47
-44
-42
-39
-36
-36
-35
-36
-38
-42
-51
-60
-73
-88
-107
-129
-154
-182
-211
-244
-277
-314
-350
-387
-427
-465
-502
-539
-573
-606
-635
-661
-684
-702
-718
-730
-737
-740
-740
-736
-729
-719
-706
-691
-674
-655
-635
-615
-593
-569
-546
-524
-501
-479
-458
-438
-419
-399
-382
-365
-347
-331
-316
-300
-284
-270
-256
-242
-228
-215
-202
-189
-177
-164
-153
-142
-131
-121
-112
-102
-93
-85
-78
-71
-67
-61
-56
-51
-48
-43
-40
-38
-35
-33
-31
-29
-28
-27
-24
-23
-22
-21
-21
-19
-18
-17
-16
-16
-15
-14
-13
-13
-11
-11
-10
-10
-10
-9
-8
-7
-7
-6
-6
-5
-5
-5
-4
-4
-2
-2
-1
-1
-1
0
0
0
2
2
2
2
3
4
4
5
5
5
6
6
7
7
7
9
9
9
10
11
11
12
12
12
13
13
14
15
15
16
16
17
18
18
19
20
19
20
21
22
22
22
23
23
25
25
26
26
26
28
28
29
30
31
32
32
33
34
35
36
36
37
38
39
40
40
41
43
44
45
46
46
47
48
49
50
51
53
54
55
57
58
59
61
62
63
66
67
68
70
71
74
75
77
79
80
82
84
86
87
89
91
92
95
96
98
100
101
103
105
107
108
110
112
113
116
117
119
121
122
124
125
127
128
131
132
134
135
137
137
139
141
141
143
144
145
146
147
148
148
149
150
150
150
151
151
152
151
151
151
151
150
150
150
149
148
147
146
146
145
144
143
142
141
140
139
138
137
136
135
132
132
130
129
127
125
123
121
119
117
116
114
111
109
107
105
103
101
97
95
93
90
88
86
83
81
78
76
73
71
68
66
63
61
59
56
53
51
48
46
44
41
38
36
33
30
27
25
22
19
16
14
11
9
7
4
1
-1
-4
-5
-8
-11
-13
-15
-17
-20
-21
-23
-25
-26
-29
-30
-32
-33
-34
-36
-37
-39
-40
-41
-43
-43
-45
-46
-48
-48
-49
-50
-51
-53
-53
-54
-56
-56
-56
-58
-58
-59
-59
-59
-61
-61
-62
-63
-64
-64
-64
-65
-65
-66
-66
-67
-68
-68
-69
-69
-70
-70
-71
-70
-71
-71
-72
-72
-72
-72
-72
-72
-73
-73
-73
-74
-74
-73
-73
-73
-74
-74
-74
-74
-75
-75
-75
-75
-75
-75
-75
-75
-75
-75
-75
-76
-76
-76
-76
-76
-77
-77
-77
-77
-77
-77
-77
-77
-77
-77
-77
-78
-77
-77
-77
-77
-77
-77
-77
-77
-76
-75
-75
-75
-75
-76
-76
-75
-75
-75
-75
-75
-75
-75
-75
-75
-74
-74
-74
-74
-74
-74
-74
-74
-74
-73
-73
-73
-72
-72
-72
-72
-72
-71
-71
-71
-70
-70
-69
-69
-69
-69
-68
-68
-67
-67
-67
-67
-67
-65
-65
-65
-65
-64
-64
-64
-64
-64
-64
-64
-63
-63
-63
-63
-63
-63
-62
-62
-62
-63
-63
-63
-63
-63
-63
-62
-62
-62
-62
-62
-62
-62
-62
-61
-61
-62
-62
-62
-62
-62
-62
-62
-62
-62
-62
-62
-62
-63
-63
-62
-62
-62
-63
-63
-63
-63
-64
-64
-65
-64
-65
-65
-65
-66
-66
-66
-67
-67
-67
-67
-67
-68
-68
-68
-68
-68
-68
-68
-68
-68
-68
-68
-69
-69
-69
-69
-69
-69
-69
-69
-70
-71
-71
-71
-72
-72
-71
-71
-72
-72
-72
-73
-73
-74
-74
-74
-75
-75
-75
-75
-76
-76
-76
-76
-76
-75
-76
-76
-75
-75
-76
-76
-76
-76
-76
-76
-76
-76
-77
-77
-77
-77
-77
-77
-77
-78
-78
-78
-78
-78
-78
-78
-78
-78
-78
-78
-78
-78
-78
-78
-78
-77
-78
-78
-78
-77
-77
-77
-77
-76
-76
-77
-77
-77
-77
-77
-77
-77
-78
-78
-78
-78
-78
-79
-79
-79
-80
-80
-80
-79
-79
-80
-80
-80
-80
-80
-80
-80
-80
-81
-81
-81
-81
-81
-81
-81
-81
-82
-82
-82
-82
-81
-81
-82
-82
-82
-82
-83
-82
-83
-83
-83
-82
-82
-83
-84
-83
-83
-83
-83
-82
-81
-81
-82
-81
-81
-80
-81
-80
-80
-80
-79
-79
-79
-78
-78
-77
-77
-76
-77
-77
-76
-76
-76
-76
-75
-75
-75
-75
-75
-75
-75
-74
-74
-74
-74
-74
-74
-74
-74
-74
-74
-74
-74
-74
-74
-75
-75
-75
-75
-76
-76
-77
-77
-78
-78
-79
-78
-78
-79
-79
-80
-80
-81
-80
-80
-80
-80
-80
-80
-80
-79
-79
-79
-80
-79
-79
-80
-79
-80
-79
-80
-80
-80
-81
-81
-81
-81
-82
-82
-83
-83
-84
-84
-85
-86
-86
-86
-86
-87
-87
-88
-88
-88
-88
-88
-88
-88
-88
-88
-89
-89
-89
-89
-89
-89
-89
-89
-89
-90
-90
-90
-90
-91
-91
-91
-92
-92
-92
-92
-92
-92
-92
-93
-93
-93
-93
-93
-93
-93
-93
-93
-93
-93
-93
-93
-93
-93
-93
-93
-92
-92
-92
-91
-91
-92
-92
-91
-91
-91
-90
-90
-89
-89
-90
-89
-89
-89
-88
-88
-88
-87
-87
-88
-88
-88
-89
-88
-88
-88
-88
-87
-85
-84
-82
-79
-77
-73
-70
-67
-65
-63
-62
-61
-61
-63
-66
-71
-79
-89
-103
-118
-137
-160
-185
-213
-244
-277
-312
-349
-387
-426
-466
-506
-546
-585
-621
-656
-689
-717
-743
-765
-783
-797
-807
-811
-814
-811
-806
-796
-784
-770
-752
-732
-712
-689
-665
-640
-615
-591
-566
-541
-517
-494
-471
-449
-429
-409
-390
-372
-354
-336
-320
-304
-288
-272
-258
-243
-229
-215
-202
-189
-176
-164
-152
-142
-132
-121
-113
-104
-97
-89
-83
-77
-72
-67
-63
-59
-56
-52
-50
-48
-47
-44
-43
-42
-40
-38
-38
-36
-35
-34
-32
-31
-30
-30
-29
-28
-26
-25
-24
-23
-22
-22
-21
-20
-19
-19
-18
-18
-17
-17
-15
-15
-15
-14
-13
-13
-12
-12
-11
-11
-11
-11
-10
-10
-9
-9
-9
-9
-9
-7
-7
-7
-7
-6
-6
-6
-6
-5
-5
-5
-4
-3
-3
-3
-1
-1
-1
1
1
1
2
3
3
4
4
5
6
6
7
7
9
9
10
11
11
12
12
13
13
15
16
17
17
18
19
20
21
22
22
23
24
25
26
28
29
29
30
31
33
34
35
37
38
38
39
41
42
44
45
46
47
49
51
52
53
54
55
58
59
60
62
64
65
66
68
70
72
73
75
78
79
81
83
85
87
89
91
92
95
96
99
100
101
104
105
107
109
110
111
113
114
116
118
119
121
123
124
125
127
128
130
131
133
134
135
137
138
138
140
141
141
142
142
143
142
143
143
144
144
144
143
143
143
142
142
141
141
140
140
138
138
138
136
136
134
133
132
131
130
129
127
126
125
123
122
120
118
116
115
112
112
109
108
105
103
101
99
97
95
91
89
87
85
82
80
77
73
71
68
66
64
61
59
56
53
50
48
46
43
40
39
36
34
31
29
26
24
22
19
16
15
12
10
7
5
3
0
-3
-4
-7
-8
-10
-13
-15
-17
-18
-21
-22
-24
-26
-27
-29
-30
-32
-33
-35
-36
-38
-40
-40
-42
-44
-45
-47
-49
-50
-50
-52
-54
-55
-56
-57
-59
-61
-61
-63
-64
-65
-65
-67
-68
-68
-69
-70
-71
-71
-71
-72
-72
-72
-73
-73
-73
-73
-74
-74
-74
-75
-75
-75
-75
-76
-76
-76
-77
-77
-77
-78
-78
-79
-79
-79
-80
-80
-80
-81
-81
-82
-82
-82
-82
-82
-82
-82
-82
-83
-83
-83
-83
-83
-83
-84
-84
-83
-83
-83
-83
-84
-84
-84
-84
-84
-84
-85
-85
-85
-85
-85
-85
-85
-85
-85
-85
-84
-84
-84
-84
-84
-83
-83
-83
-82
-81
-81
-81
-81
-80
-80
-79
-79
-79
-78
-78
-78
-77
-77
-77
-76
-76
-76
-76
-75
-75
-75
-74
-74
-74
-73
-73
-73
-73
-72
-71
-71
-70
-70
-70
-70
-70
-69
-69
-69
-69
-68
-68
-67
-67
-67
-67
-67
-67
-67
-66
-66
-66
-66
-66
-66
-66
-65
-65
-64
-64
-65
-64
-64
-63
-63
-62
-62
-63
-62
-62
-62
-62
-61
-61
-61
-61
-62
-62
-61
-61
-61
-62
-62
-62
-63
-62
-63
-63
-63
-64
-64
-64
-64
-64
-64
-64
-63
-63
-63
-64
-64
-64
-64
-64
-63
-63
-63
-63
-63
-65
-65
-65
-65
-65
-65
-65
-65
-65
-66
-67
-67
-68
-68
-68
-69
-69
-69
-69
-70
-70
-71
-71
-71
-72
-72
-72
-72
-72
-72
-73
-73
-73
-73
-73
-72
-73
-73
-73
-73
-73
-73
-73
-73
-73
-73
-73
-73
-73
-73
-73
-73
-74
-74
-74
-74
-74
-75
-75
-76
-76
-76
-76
-76
-76
-77
-77
-77
-77
-77
-77
-77
-77
-77
-77
-77
-77
-77
-76
-76
-77
-77
-77
-76
-77
-77
-77
-77
-77
-77
-77
-77
-77
-78
-78
-78
-78
-78
-78
-78
-78
-78
-79
-79
-79
-79
-80
-80
-79
-79
-79
-79
-79
-80
-80
-80
-80
-79
-80
-80
-80
-80
-80
-80
-80
-80
-80
-80
-81
-81
-80
-80
-80
-81
-81
-81
-81
-81
-82
-82
-82
-82
-81
-82
-82
-81
-81
-81
-81
-81
-80
-80
-80
-81
-81
-81
-80
-80
-80
-80
-80
-80
-80
-80
-80
-81
-81
-81
-81
-82
-82
-82
-82
-82
-82
-82
-82
-82
-82
-82
-82
-82
-82
-82
-82
-82
-82
-82
-82
-82
-81
-81
-82
-82
-82
-82
-82
-82
-82
-82
-82
-82
-83
-83
-83
-83
-83
-83
-84
-84
-84
-84
-84
-85
-84
-84
-84
-84
-84
-84
-85
-85
-85
-84
-84
-84
-85
-85
-84
-84
-85
-84
-84
-85
-85
-84
-84
-85
-85
-84
-84
-84
-84
-84
-84
-84
-83
-83
-83
-83
-83
-83
-83
-83
-83
-83
-83
-83
-83
-83
-83
-83
-83
-82
-82
-82
-83
-82
-82
-82
-82
-82
-82
-81
-82
-82
-82
-82
-82
-82
-82
-82
-82
-82
-82
-82
-82
-82
-82
-83
-82
-82
-82
-83
-82
-82
-82
-82
-82
-83
-83
-83
-83
-83
-83
-83
-83
-84
-84
-84
-84
-84
-84
-84
-84
-84
-83
-83
-83
-83
-83
-82
-82
-83
-83
-82
-82
-82
-82
-81
-82
-82
-82
-82
-82
-82
-82
-81
-81
-81
-81
-81
-81
-81
-81
-81
-81
-81
-81
-81
-80
-80
-80
-80
-80
-80
-80
-80
-80
-80
-80
-80
-80
-80
-79
-79
-79
-80
-80
-79
-79
-79
-79
-79
-80
-80
-80
-80
-80
-81
-81
-81
-82
-82
-82
-83
-83
-82
-83
-83
-83
-83
-83
-83
-83
-82
-82
-82
-82
-82
-82
-81
-81
-81
-81
-81
-81
-81
-81
-81
-81
-81
-81
-81
-81
-81
-82
-82
-83
-83
-84
-84
-84
-84
-84
-85
-84
-85
-85
-85
-85
-85
-84
-84
-84
-84
-83
-84
-83
-83
-82
-82
-82
-81
-82
-82
-81
-81
-80
-80
-80
-80
-80
-80
-80
-80
-79
-79
-79
-79
-79
-79
-79
-78
-78
-78
-78
-78
-78
-78
-78
-78
-78
-78
-78
-77
-78
-78
-77
-77
-76
-76
-76
-75
-75
-75
-76
-75
-75
-75
-75
-75
-74
-74
-75
-75
-75
-75
-75
-75
-75
-76
-76
-77
-77
-78
-78
-78
-78
-78
-78
-78
-79
-79
-79
-79
-79
-80
-80
-81
-81
-80
-80
-81
-81
-81
-81
-81
-82
-82
-82
-82
-82
-84
-84
-84
-84
-85
-85
-86
-86
-87
-87
-87
-88
-88
-88
-89
-89
-89
-89
-89
-90
-90
-90
-90
-90
-90
-90
-90
-90
-90
-90
-90
-90
-90
-90
-90
-90
-90
-90
-90
-90
-89
-89
-89
-89
-88
-88
-88
-88
-88
-88
-88
-88
-88
-88
-88
-88
-87
-87
-87
-87
-86
-86
-86
-86
-87
-87
-87
-87
-87
-87
-87
-87
-88
-89
-89
-89
-89
-89
-89
-90
-90
-91
-91
-92
-91
-91
-91
-91
-89
-88
-87
-85
-81
-79
-76
-73
-71
-69
-68
-68
-68
-70
-73
-78
-87
-97
-110
-127
-146
-169
-194
-222
-253
-286
-323
-360
-399
-439
-480
-522
-563
-604
-643
-679
-714
-745
-773
-798
-818
-834
-847
-855
-859
-859
-855
-848
-837
-823
-806
-786
-765
-742
-718
-692
-666
-639
-613
-586
-559
-532
-508
-484
-460
-438
-416
-395
-376
-357
-339
-321
-303
-287
-270
-255
-240
-226
-211
-198
-185
-173
-161
-150
-138
-129
-119
-110
-102
-95
-88
-81
-76
-71
-67
-63
-59
-55
-52
-50
-47
-44
-42
-41
-39
-37
-35
-34
-32
-31
-31
-30
-29
-29
-28
-27
-26
-26
-24
-24
-24
-23
-23
-22
-21
-21
-20
-19
-19
-18
-18
-16
-15
-15
-14
-13
-13
-12
-11
-11
-10
-11
-10
-9
-9
-8
-8
-7
-7
-6
-6
-6
-4
-4
-3
-3
-2
-1
0
0
1
2
2
4
4
5
6
6
7
8
8
9
10
11
11
12
13
14
14
15
16
16
17
17
19
19
19
20
20
21
22
22
23
24
25
25
26
27
28
29
30
31
32
33
34
35
36
38
39
40
41
42
44
46
47
48
49
51
52
55
56
58
59
61
62
64
65
66
69
70
72
73
76
77
78
80
82
83
84
87
88
90
92
93
95
97
99
101
103
105
107
109
112
113
115
118
120
122
124
125
128
130
132
134
136
138
140
140
142
144
146
147
148
149
151
152
153
154
155
156
156
158
159
159
160
161
161
162
161
162
162
163
162
162
161
162
161
161
161
160
159
158
158
158
157
155
154
154
153
152
151
150
149
148
146
145
143
141
140
139
137
135
133
131
129
127
124
122
120
117
115
112
109
107
105
102
100
98
95
92
90
87
84
81
79
76
73
71
68
66
63
60
58
55
52
50
47
45
42
40
36
35
33
30
28
25
23
21
19
16
14
11
10
8
5
4
2
1
-2
-4
-6
-8
-9
-12
-13
-16
-17
-20
-21
-23
-25
-25
-27
-29
-30
-32
-33
-34
-36
-37
-38
-39
-40
-42
-42
-43
-45
-45
-47
-47
-49
-50
-51
-52
-52
-54
-55
-56
-56
-57
-58
-60
-60
-61
-61
-62
-62
-62
-64
-64
-64
-64
-64
-65
-65
-65
-65
-66
-66
-66
-66
-67
-67
-67
-67
-67
-67
-68
-68
-68
-68
-69
-69
-69
-69
-69
-70
-71
-71
-71
-71
-71
-72
-72
-71
-71
-72
-72
-72
-72
-71
-72
-72
-72
-71
-71
-71
-71
-71
-71
-71
-71
-71
-71
-70
-70
-70
-70
-70
-70
-70
-69
-69
-68
-68
-68
-67
-67
-67
-67
-66
-65
-65
-65
-64
-64
-64
-62
-62
-62
-62
-62
-61
-60
-59
-59
-59
-58
-58
-58
-57
-57
-56
-56
-55
-55
-55
-55
-54
-54
-54
-54
-54
-53
-52
-52
-52
-52
-52
-51
-51
-50
-50
-50
-50
-49
-49
-49
-48
-48
-48
-47
-47
-47
-46
-46
-46
-46
-46
-46
-45
-45
-45
-44
-44
-44
-43
-43
-43
-43
-42
-42
-42
-41
-41
-41
-41
-41
-40
-40
-40
-40
-40
-40
-40
-41
-41
-40
-41
-41
-41
-41
-42
-41
-41
-41
-41
-41
-41
-41
-41
-41
-41
-41
-41
-41
-41
-41
-41
-41
-41
-42
-41
-42
-42
-43
-43
-44
-44
-44
-45
-45
-45
-46
-46
-46
-47
-47
-47
-48
-48
-48
-48
-48
-48
-48
-48
-50
-50
-50
-50
-50
-50
-50
-50
-50
-50
-51
-51
-51
-52
-52
-52
-53
-53
-53
-53
-53
-54
-53
-54
-54
-54
-54
-54
-54
-54
-54
-54
-55
-54
-54
-54
-54
-55
-54
-54
-54
-54
-54
-54
-54
-54
-54
-54
-54
-54
-54
-54
-54
-54
-54
-54
-54
-53
-53
-53
-53
-52
-52
-52
-52
-52
-51
-51
-51
-51
-51
-51
-50
-50
-50
-49
-49
-49
-50
-49
-49
-49
-49
-49
-49
-49
-50
-50
-50
-50
-50
-50
-51
-51
-51
-51
-51
-51
-51
-51
-51
-51
-51
-51
-51
-51
-51
-51
-51
-50
-50
-50
-50
-50
-50
-50
-50
-50
-50
-50
-50
-50
-51
-51
-51
-50
-51
-50
-50
-50
-50
-50
-50
-50
-50
-50
-50
-50
-50
-49
-49
-49
-49
-49
-48
-48
-48
-48
-48
-48
-48
-48
-48
-48
-48
-48
-48
-49
-48
-48
-48
-48
-49
-49
-49
-49
-49
-49
-49
-49
-49
-49
-49
-49
-49
-48
-48
-48
-47
-47
-47
-46
-46
-46
-44
-44
-43
-44
-44
-43
-43
-43
-43
-42
-43
-43
-43
-42
-42
-43
-43
-43
-43
-44
-44
-43
-43
-43
-44
-44
-43
-43
-43
-43
-43
-42
-43
-42
-42
-42
-42
-42
-42
-41
-41
-41
-42
-42
-41
-40
-40
-40
-40
-40
-40
-40
-40
-39
-39
-39
-39
-38
-38
-38
-38
-38
-38
-38
-38
-38
-38
-38
-38
-38
-38
-37
-37
-37
-37
-37
-37
-37
-37
-36
-37
-37
-36
-36
-35
-35
-35
-35
-35
-35
-34
-34
-34
-34
-33
-33
-33
-33
-33
-34
-33
-33
-33
-33
-33
-33
-33
-33
-33
-33
-33
-33
-33
-32
-32
-32
-32
-32
-32
-32
-32
-32
-31
-31
-30
-30
-30
-29
-29
-29
-29
-29
-28
-28
-28
-28
-28
-28
-28
-27
-27
-28
-27
-27
-27
-26
-26
-26
-26
-26
-26
-26
-27
-26
-26
-26
-26
-26
-25
-25
-25
-25
-25
-25
-25
-24
-24
-24
-24
-23
-23
-23
-23
-22
-22
-21
-21
-21
-21
-21
-21
-21
-20
-20
-20
-20
-20
-20
-19
-19
-19
-19
-18
-18
-19
-18
-18
-18
-18
-18
-18
-17
-17
-17
-16
-16
-16
-17
-17
-17
-17
-16
-16
-16
-16
-16
-16
-16
-16
-16
-16
-15
-15
-15
-15
-15
-14
-14
-14
-14
-14
-14
-13
-13
-12
-12
-12
-12
-11
-11
-10
-10
-10
-10
-10
-9
-9
-9
-9
-9
-8
-8
-8
-8
-7
-7
-7
-7
-6
-5
-5
-5
-4
-4
-3
-3
-3
-2
-2
-1
-1
-1
-1
0
1
1
1
1
1
1
1
2
2
2
2
2
2
2
2
2
2
2
2
2
2
2
3
2
2
1
1
1
1
1
1
1
1
1
1
2
2
2
1
1
1
1
1
0
0
1
1
0
0
0
-2
-2
-2
-2
-3
-3
-3
-3
-3
-3
-4
-4
-5
-5
-5
-6
-6
-6
-6
-6
-5
-6
-5
-6
-6
-6
-5
-5
-5
-4
-4
-4
-3
-3
-2
-3
-2
-2
-2
-2
-1
-1
-1
-1
-1
-1
0
0
-1
0
-1
0
0
0
0
0
0
0
0
0
0
0
1
1
1
1
1
1
1
2
1
2
2
2
3
2
2
3
3
2
2
2
2
2
2
2
3
3
4
4
6
8
10
12
15
18
22
25
28
30
32
34
34
34
32
29
22
16
4
-11
-28
-48
-72
-99
-129
-161
-195
-231
-268
-309
-349
-390
-431
-471
-510
-549
-584
-617
-646
-672
-695
-713
-727
-737
-743
-745
-743
-737
-727
-715
-699
-681
-661
-639
-616
-591
-566
-539
-512
-486
-460
-434
-409
-384
-362
-339
-318
-297
-278
-259
-241
-223
-206
-189
-173
-158
-143
-128
-115
-101
-88
-75
-64
-52
-41
-30
-20
-12
-4
4
12
19
24
30
35
39
43
48
51
54
57
60
62
65
67
68
70
73
74
75
77
78
79
81
83
84
85
86
87
88
89
90
91
92
93
92
94
94
95
96
96
96
97
98
98
98
99
100
99
100
101
101
102
102
103
103
104
104
105
105
106
106
107
107
109
109
110
110
111
112
113
113
114
114
114
116
116
117
117
119
119
120
120
121
121
122
123
125
125
126
127
128
128
129
131
132
132
134
134
135
136
137
138
138
139
140
141
141
142
144
143
145
145
145
146
147
148
149
150
151
152
152
153
155
156
156
158
159
160
162
163
165
165
167
168
170
172
173
175
177
178
180
182
184
186
188
189
192
193
195
198
199
202
204
205
207
210
211
213
215
217
219
221
223
225
228
229
231
232
235
237
239
241
243
244
247
248
250
252
254
255
258
259
260
262
263
265
266
268
269
270
271
273
274
275
276
276
278
278
279
280
281
281
281
282
282
282
283
282
283
282
282
281
281
281
280
279
279
278
276
275
274
273
272
270
268
267
265
264
261
259
257
255
253
251
248
246
245
242
240
238
235
233
230
228
225
223
220
219
216
213
211
208
206
203
200
198
196
193
190
188
184
182
180
177
175
171
169
167
165
162
160
158
155
152
150
148
144
142
140
137
135
133
131
128
126
124
121
119
117
115
112
110
108
105
103
101
100
98
96
95
93
91
89
87
85
85
83
81
81
79
78
77
76
75
74
73
72
71
70
69
68
68
67
65
65
64
63
63
61
61
59
59
58
57
56
55
55
54
54
53
52
52
50
50
49
49
49
49
48
47
47
47
47
47
47
46
46
46
46
46
46
45
45
45
45
45
45
44
45
44
44
43
43
43
43
43
43
42
42
42
42
42
42
42
42
41
40
40
40
40
40
40
41
41
41
41
41
41
41
41
41
41
41
41
42
42
43
44
44
44
44
45
45
46
46
47
47
48
48
49
50
50
51
51
52
52
53
53
53
52
53
53
54
54
55
54
55
55
56
56
56
57
56
57
57
57
57
