# Simple Text Format
# Sampling Rate (Hz):= 1200.00
# Resolution:= 12
# Labels:= ECG	 V5
# Age:=	79
# Gender:=	Feminino
46
47
47
47
47
48
48
48
48
49
49
50
49
49
49
50
50
49
50
50
50
50
50
51
50
51
51
51
50
50
51
50
50
50
50
49
48
48
48
48
48
47
47
47
46
46
47
48
48
48
49
49
49
49
50
50
51
53
53
53
54
54
54
53
54
53
53
53
53
53
52
53
52
52
52
51
51
51
51
52
52
51
52
52
52
52
52
52
52
51
51
52
51
50
50
50
50
49
49
48
48
47
46
46
46
46
46
45
45
44
44
45
44
44
43
44
43
44
43
43
43
44
43
42
43
43
42
42
42
42
42
42
42
43
42
42
42
42
42
41
41
42
42
42
41
41
41
41
41
41
41
40
40
40
40
40
38
39
39
39
39
38
39
38
38
39
38
38
39
38
39
39
40
40
41
41
41
42
43
43
43
43
44
44
44
43
43
44
43
43
42
42
42
40
40
39
39
38
39
38
38
37
37
36
37
36
36
36
36
35
35
36
36
36
35
36
35
36
36
36
36
36
36
36
35
36
36
35
35
35
34
35
35
35
35
35
35
35
35
35
35
35
34
35
35
36
35
35
36
36
36
35
35
35
36
35
35
35
36
36
36
35
36
36
36
35
35
35
35
34
34
35
34
34
33
34
33
33
34
34
34
34
34
35
35
34
35
35
35
35
35
36
37
37
37
36
37
37
37
38
38
37
38
38
38
39
39
40
39
40
40
40
40
40
40
40
40
40
40
40
40
40
39
39
39
39
39
38
37
37
37
36
35
35
35
35
35
35
36
35
35
35
35
35
35
36
36
36
37
37
36
36
37
37
37
37
37
37
36
37
37
37
36
36
36
37
37
36
36
36
36
36
36
36
35
35
34
35
35
35
35
35
34
34
34
34
34
34
34
33
33
33
33
32
33
32
32
32
32
32
32
31
30
31
30
31
31
30
31
30
31
31
31
32
32
32
33
33
34
34
34
35
34
34
35
34
35
35
34
34
33
34
33
33
33
33
32
32
32
32
31
31
31
30
31
30
30
30
30
30
30
31
30
31
31
30
31
31
32
32
32
31
31
32
32
33
33
33
33
33
33
33
33
33
33
33
33
33
32
33
33
32
32
32
31
32
32
31
32
31
31
31
31
31
31
32
31
32
31
31
31
32
31
31
32
32
31
31
31
31
30
31
31
32
31
31
32
32
31
32
32
32
32
32
32
33
32
33
32
33
32
33
32
32
32
32
32
32
32
32
32
31
32
32
32
32
32
33
32
33
33
32
33
33
33
32
32
32
33
33
33
32
32
32
31
32
32
31
31
30
31
31
31
31
31
30
30
31
30
31
32
31
31
31
31
32
32
32
31
32
32
32
32
32
33
32
32
32
32
33
33
32
33
32
32
32
32
32
32
32
33
32
33
33
32
33
33
33
33
33
34
34
34
35
35
35
36
36
37
37
38
38
39
39
40
40
41
41
41
42
42
42
42
43
43
44
43
44
43
44
43
44
44
45
45
44
45
46
46
46
46
47
46
46
47
48
48
47
47
48
48
48
48
49
48
48
48
48
47
47
47
47
47
47
47
46
46
46
45
46
45
45
45
45
44
44
43
43
43
42
42
41
40
40
39
39
39
37
37
36
36
36
36
35
35
35
35
34
35
35
35
35
36
36
36
36
37
36
36
36
36
36
36
36
35
36
35
35
35
34
34
34
32
32
31
31
31
29
29
28
29
28
27
27
27
26
26
26
25
25
25
24
23
23
23
24
23
23
22
22
22
22
22
22
21
22
22
22
22
23
23
23
24
24
25
26
28
28
29
31
34
37
40
45
49
54
60
66
75
83
92
103
115
127
141
156
172
189
206
226
245
266
288
311
334
358
382
407
431
455
478
499
520
539
556
572
585
595
601
604
604
600
592
580
563
544
521
497
469
439
407
373
339
304
269
235
201
169
138
109
81
57
34
14
-4
-18
-32
-42
-50
-57
-63
-67
-70
-72
-73
-72
-71
-71
-69
-67
-63
-60
-57
-53
-49
-46
-42
-39
-35
-32
-28
-25
-22
-18
-16
-13
-10
-7
-5
-3
-1
1
3
4
6
8
9
10
12
13
14
14
16
16
17
17
18
19
18
19
19
19
20
20
20
20
20
20
21
21
21
21
21
23
23
23
23
24
24
25
25
25
26
26
26
26
26
27
26
27
27
26
26
26
27
26
26
27
26
26
26
27
27
27
27
26
26
27
27
26
27
27
26
26
26
26
26
26
25
26
26
26
26
25
26
25
25
25
25
27
26
27
27
27
28
28
28
28
29
28
29
29
30
30
30
29
29
29
29
29
29
29
29
29
29
29
30
29
29
29
29
29
30
30
29
30
29
29
30
30
30
30
30
30
31
31
31
31
31
31
30
31
31
31
31
30
31
30
31
31
31
31
31
31
31
32
32
33
32
33
33
33
33
34
34
34
34
35
35
34
35
35
35
35
35
36
36
35
35
35
34
35
34
34
34
34
34
34
34
34
34
34
34
34
34
35
35
35
34
35
35
36
36
37
37
37
37
38
38
39
39
39
39
40
41
41
41
41
42
42
42
43
43
43
43
43
43
44
43
44
44
43
43
44
43
44
45
44
43
43
44
44
45
45
45
45
45
46
47
46
47
47
48
48
48
48
48
49
48
49
49
49
49
49
49
49
48
48
49
49
48
49
48
48
48
48
48
48
47
48
48
47
47
47
46
47
46
46
46
46
46
45
45
44
43
43
43
43
42
41
41
41
40
39
39
38
37
37
37
36
35
35
34
34
34
34
33
33
32
32
32
31
31
30
28
28
28
26
26
25
25
25
24
23
22
22
22
22
21
21
20
21
21
21
21
20
20
21
21
21
21
21
22
22
23
23
23
24
23
23
23
24
24
25
25
26
26
27
28
27
29
29
29
30
30
30
31
32
32
32
33
33
34
34
35
35
35
36
36
37
37
37
37
38
39
39
40
40
40
40
41
41
41
41
42
42
42
42
42
42
42
42
41
41
41
41
41
40
41
40
40
40
40
40
40
39
39
39
40
39
38
39
38
37
38
37
37
36
37
36
35
36
36
36
35
35
34
35
34
34
34
34
34
34
34
34
34
35
34
35
34
34
35
34
34
34
34
34
35
35
34
34
33
33
33
32
32
32
32
31
31
30
30
29
29
29
28
28
28
28
27
27
26
26
26
26
26
24
25
24
24
24
24
23
23
23
22
22
23
24
24
24
23
24
24
25
26
26
26
27
28
28
29
30
29
30
31
30
31
31
31
31
31
31
32
31
31
31
30
31
31
31
31
31
31
30
31
31
31
31
31
31
31
31
31
32
32
32
32
32
32
33
34
34
34
34
35
35
36
36
36
37
37
38
38
39
40
39
40
40
40
40
41
41
41
41
41
42
41
42
42
43
42
42
43
43
43
44
45
44
45
45
45
47
47
47
48
48
50
50
50
51
52
52
52
53
53
53
54
53
54
54
54
54
54
54
53
53
53
53
53
53
52
52
53
52
52
51
51
50
50
51
50
50
49
49
48
49
49
48
48
47
47
47
46
47
46
45
45
44
44
44
44
44
44
43
43
43
44
44
43
43
43
43
45
45
45
45
46
45
45
46
46
47
47
47
47
47
47
46
46
46
45
45
45
45
44
43
44
42
43
42
42
41
41
41
39
39
40
39
38
38
37
37
38
37
37
37
36
36
35
36
35
35
34
34
34
34
34
35
34
34
35
35
35
36
37
38
37
38
39
39
40
40
40
40
41
41
40
40
40
40
40
39
39
39
38
38
37
37
37
36
36
36
36
35
36
35
35
35
35
34
34
33
34
34
34
33
33
32
32
32
32
32
31
31
31
31
30
30
30
30
30
30
30
30
30
29
30
30
30
31
31
31
31
31
31
31
31
32
31
32
31
31
32
31
32
32
30
30
31
30
31
31
31
30
30
30
31
30
30
31
30
31
31
31
31
32
31
32
32
33
33
33
34
33
34
35
35
34
35
35
35
35
34
34
34
34
33
33
33
33
32
32
31
32
31
31
31
31
30
31
30
31
32
31
31
32
31
32
32
32
32
33
32
32
32
33
32
33
33
33
32
32
33
32
32
32
32
32
32
32
33
33
33
33
34
34
35
35
35
35
36
35
37
36
37
37
37
37
37
36
36
36
36
35
35
35
36
35
35
35
34
34
34
34
34
33
33
33
32
32
31
30
30
29
28
27
27
27
26
25
25
25
24
24
24
24
24
24
24
24
25
26
27
28
28
29
30
30
31
32
33
33
34
35
35
35
35
35
35
35
36
35
35
35
34
35
34
34
34
33
33
33
33
32
32
31
31
31
30
30
30
30
29
28
28
28
27
28
27
27
27
26
26
26
25
25
24
24
24
25
24
25
24
25
26
26
26
26
27
28
28
29
29
31
31
31
32
33
33
33
34
34
33
33
32
33
32
32
32
32
31
30
31
30
30
30
29
29
29
28
29
28
28
27
27
28
28
28
28
27
28
28
28
27
28
27
28
27
28
27
27
27
27
28
28
27
27
28
27
27
27
27
27
27
26
27
26
27
27
27
27
27
27
26
27
27
27
27
27
27
26
26
27
26
26
25
25
25
25
25
25
25
26
25
26
26
27
28
27
28
28
28
28
30
30
29
30
30
30
31
30
30
30
30
30
30
30
30
30
30
29
29
29
29
29
28
28
28
28
28
27
28
28
28
28
28
28
29
28
29
29
29
29
29
30
30
31
31
31
31
32
32
31
32
31
31
31
31
31
31
31
31
30
30
30
31
30
30
30
31
31
31
30
31
31
31
31
32
33
32
32
33
33
33
34
34
34
35
35
36
37
37
37
37
37
37
38
38
38
39
39
39
40
40
40
40
41
41
41
41
42
42
42
43
43
43
44
44
45
45
45
44
45
46
46
45
45
44
45
45
45
45
45
44
44
44
44
44
43
43
43
43
42
43
42
42
42
42
41
42
42
42
41
41
41
41
41
41
41
40
41
40
41
40
40
39
38
38
38
38
37
36
36
35
35
35
34
34
34
34
34
34
33
34
34
34
33
33
33
34
33
33
32
33
33
32
32
32
31
31
30
29
28
28
27
26
25
26
25
25
24
24
23
23
23
23
24
24
25
25
25
25
26
26
27
28
28
28
28
28
29
29
29
29
28
28
28
27
27
27
26
26
26
26
26
27
27
29
30
33
36
39
43
47
53
60
67
76
85
95
107
120
134
149
164
181
199
218
238
259
280
303
326
350
373
398
422
446
470
491
512
531
549
564
577
587
594
598
597
594
586
575
558
540
517
492
466
435
404
371
337
303
268
233
200
168
136
108
81
56
34
14
-4
-19
-33
-44
-53
-60
-65
-70
-73
-74
-75
-75
-74
-73
-71
-68
-66
-62
-59
-55
-52
-47
-44
-40
-36
-33
-29
-26
-22
-19
-16
-13
-10
-9
-6
-5
-3
-1
1
2
2
4
5
7
7
8
9
9
11
11
12
13
14
14
15
15
16
16
17
17
18
18
18
18
19
19
19
19
20
20
19
20
20
20
20
20
20
20
21
21
21
21
21
22
21
22
22
22
22
22
23
23
24
23
24
24
24
24
24
24
24
23
24
25
25
24
24
24
23
23
23
22
23
22
22
22
23
22
23
22
22
23
23
24
24
23
24
24
25
26
26
27
27
27
28
28
29
29
29
29
30
29
30
30
30
30
30
30
30
30
30
30
30
30
30
29
30
29
30
29
29
30
30
29
29
29
30
29
29
29
29
30
30
29
29
29
29
29
29
29
28
29
29
28
29
29
29
29
29
30
29
30
30
30
30
30
30
31
31
31
31
31
31
31
32
32
31
32
32
32
32
31
31
31
31
31
32
32
31
31
31
31
32
32
33
33
33
33
33
34
34
35
35
35
36
36
37
37
38
38
38
38
39
39
39
40
40
40
40
40
40
41
41
40
41
41
40
41
42
42
42
43
43
44
44
45
45
46
46
48
48
49
49
50
50
51
52
52
52
52
53
53
53
54
53
54
53
53
54
53
54
53
54
53
53
53
54
54
54
54
54
54
53
54
54
54
54
54
54
53
53
54
54
54
54
53
54
55
54
55
55
55
55
55
55
55
55
55
54
54
54
54
54
54
53
52
52
51
51
51
50
49
48
48
47
47
46
45
44
44
44
44
44
43
43
43
42
43
43
42
42
41
41
41
41
41
41
40
40
40
39
39
39
38
38
37
37
37
37
37
36
36
36
35
36
36
36
36
37
36
37
38
37
38
38
38
39
39
41
41
42
42
42
43
44
45
45
47
47
49
50
51
51
53
54
54
56
56
57
58
59
60
60
61
62
63
64
64
64
63
64
63
64
63
63
63
63
63
63
63
63
63
64
63
64
64
63
64
64
64
65
65
65
66
66
66
66
67
67
67
66
66
66
66
67
66
66
66
66
66
66
65
65
64
64
64
63
63
63
62
63
62
62
62
61
61
61
61
60
60
61
60
60
60
60
60
60
59
59
59
58
58
58
58
57
58
58
58
57
58
58
58
58
58
58
58
58
58
58
58
59
58
59
59
58
58
58
57
57
57
57
57
57
57
56
56
56
56
56
55
55
56
55
55
55
54
54
54
54
54
55
54
55
54
54
54
55
55
56
56
56
57
56
57
57
57
58
58
58
58
59
59
59
58
58
58
58
59
59
59
58
58
58
58
59
58
59
59
59
60
60
60
60
61
61
61
62
62
63
63
63
63
63
64
64
65
65
65
66
67
67
68
68
69
68
69
70
71
72
72
72
73
73
73
74
74
74
74
74
74
75
75
75
75
75
75
75
76
75
75
75
75
75
76
76
76
76
77
77
77
78
79
79
79
78
80
80
80
80
80
81
81
81
81
82
82
82
81
82
82
83
82
82
83
82
82
82
83
83
83
83
82
82
82
82
81
82
81
81
81
80
80
79
79
78
78
78
78
78
79
79
78
78
80
80
80
80
81
81
81
81
81
82
82
82
81
82
82
82
82
82
82
82
83
82
83
83
82
82
83
83
82
82
82
82
82
82
81
82
81
81
80
80
80
80
80
80
80
80
80
80
80
80
81
80
81
81
80
80
80
80
79
79
80
80
80
79
79
79
79
79
79
79
78
78
78
78
78
78
78
77
76
77
76
76
77
76
76
76
76
76
75
76
76
75
76
76
76
76
76
77
76
77
77
77
77
77
78
78
78
78
78
78
78
79
79
79
80
80
80
79
79
79
79
80
79
79
79
78
78
78
78
78
77
78
77
77
76
76
76
77
76
77
77
78
78
78
77
78
78
79
79
79
79
79
79
79
79
80
79
80
80
79
80
80
80
80
80
80
80
81
80
80
80
80
80
80
81
81
80
81
80
81
81
81
81
81
80
80
80
80
80
79
79
79
78
78
78
78
78
79
78
78
79
78
78
78
79
78
79
80
80
80
80
80
80
80
80
81
81
80
80
80
80
81
80
79
80
79
79
79
80
78
79
78
78
78
78
78
78
78
78
78
78
78
79
78
78
78
78
79
78
78
79
79
79
79
78
79
79
79
79
79
79
80
79
80
79
79
79
79
79
79
79
79
79
78
78
78
78
77
77
77
76
76
76
75
75
75
75
75
75
75
75
74
75
75
75
76
76
76
76
78
77
77
78
78
79
79
79
79
80
80
79
79
79
78
79
79
77
78
77
76
76
77
75
76
75
76
76
75
75
75
74
75
74
75
75
75
75
75
75
75
75
76
76
75
76
76
76
75
76
75
75
75
74
74
75
74
74
74
73
73
74
73
74
74
73
73
74
74
74
74
74
74
75
74
74
75
75
74
74
75
75
74
74
74
74
74
74
74
74
74
74
74
74
73
74
74
73
74
73
73
73
73
73
72
72
71
71
71
72
71
71
71
71
71
71
72
72
71
72
72
73
72
73
73
74
74
74
74
74
74
74
74
73
74
73
73
73
72
72
71
72
71
71
70
70
69
68
69
68
68
68
68
67
68
67
67
67
67
67
67
68
67
67
67
68
67
67
68
68
68
67
67
67
68
67
67
68
67
67
67
67
67
67
68
67
68
67
68
68
69
68
69
69
69
69
69
69
70
69
70
69
70
70
70
70
70
69
70
70
70
70
70
70
70
70
70
70
71
70
70
71
72
71
72
72
72
72
73
72
73
73
72
72
74
73
74
74
74
74
75
75
76
76
77
78
78
78
79
80
81
80
81
80
81
81
81
81
81
80
80
79
78
79
77
77
76
76
75
75
75
74
73
73
73
73
73
73
73
72
72
73
72
72
72
71
72
72
72
72
71
71
69
69
69
69
69
68
68
68
67
67
67
66
66
66
65
64
65
64
64
64
63
62
62
62
62
61
60
59
59
58
57
57
57
56
56
56
56
56
55
54
55
54
54
54
54
54
54
54
53
54
54
54
54
54
54
54
54
54
54
54
54
53
54
53
53
53
53
53
52
53
53
52
52
53
52
52
53
54
54
55
56
57
59
63
65
69
73
78
85
92
100
108
118
129
141
155
170
185
202
219
238
257
279
301
324
348
372
397
422
447
473
497
520
543
564
582
599
614
624
633
637
638
635
628
617
601
582
559
534
506
477
444
410
375
339
303
268
233
199
167
136
107
81
58
36
17
0
-13
-26
-35
-43
-49
-54
-58
-61
-63
-62
-62
-62
-60
-58
-55
-53
-50
-46
-42
-38
-35
-32
-28
-24
-20
-16
-13
-9
-6
-3
1
4
7
10
12
14
16
18
20
22
24
25
27
28
30
30
31
32
32
32
33
33
33
32
33
33
33
33
33
32
32
32
33
32
33
33
33
33
33
34
33
34
34
34
34
35
35
36
36
36
37
37
37
37
37
37
37
38
38
38
38
38
38
37
38
39
38
39
39
38
39
39
39
38
38
38
39
38
38
39
38
38
38
37
37
38
37
36
36
36
35
34
33
34
33
33
33
32
32
32
32
33
32
33
33
33
33
35
35
35
35
36
38
38
39
40
39
39
40
41
41
41
40
40
40
40
40
40
39
39
38
38
38
38
38
38
37
37
37
37
37
37
37
37
37
37
38
38
38
37
38
38
38
38
37
37
37
37
37
37
36
36
36
35
35
36
35
36
36
35
36
36
36
37
37
37
36
37
37
37
38
38
38
38
37
38
38
38
38
38
38
38
38
38
38
38
38
37
37
38
38
39
38
38
39
39
39
40
40
39
39
39
39
39
39
40
39
39
39
38
39
39
38
38
38
37
38
38
38
38
39
39
39
40
42
42
43
44
45
46
46
48
49
48
49
50
51
50
50
51
51
51
51
50
51
50
50
49
49
49
49
50
49
49
50
50
51
50
51
50
50
50
51
52
52
52
52
52
51
52
52
52
52
51
51
51
51
50
50
49
48
49
48
48
47
47
46
45
45
45
45
45
44
44
43
43
43
42
41
41
40
40
40
39
38
38
37
35
34
34
33
32
32
30
30
29
28
28
27
26
26
25
25
25
24
24
24
24
24
24
24
24
24
23
23
24
24
24
24
23
24
23
23
23
24
23
22
22
23
23
23
24
23
23
23
23
23
23
24
24
25
25
25
26
27
27
27
27
27
28
29
30
30
31
31
32
33
34
34
35
35
36
36
37
37
38
38
38
38
39
40
40
40
40
40
40
40
40
40
40
41
40
40
41
41
41
41
40
41
41
41
41
41
41
41
41
40
40
40
39
40
39
39
40
39
39
38
38
37
37
37
36
35
35
34
34
34
33
33
32
32
30
31
30
29
29
28
27
27
26
27
27
26
26
26
26
26
26
27
26
27
27
27
28
28
28
28
28
28
28
28
28
28
28
28
27
28
28
27
26
26
26
26
25
25
26
25
25
25
25
24
24
24
24
23
23
24
24
24
23
23
23
23
23
23
23
24
23
24
24
23
23
24
23
23
23
24
24
23
23
23
24
23
24
24
24
24
23
24
24
24
24
23
24
24
24
25
24
25
24
25
25
25
25
26
26
26
27
27
27
28
28
28
29
29
30
29
30
30
30
31
31
30
31
31
30
30
31
30
31
30
30
30
30
30
29
29
29
29
29
30
30
31
31
32
32
32
32
33
34
34
34
35
36
36
36
37
38
38
37
38
38
39
38
38
39
39
38
38
39
39
39
38
39
38
39
39
39
39
38
39
39
38
39
38
38
38
38
38
38
38
38
38
39
38
39
38
39
39
38
38
38
38
37
38
37
38
37
36
36
36
35
35
35
34
34
34
34
33
33
32
32
32
33
32
31
32
32
31
31
31
31
30
30
29
29
30
29
29
29
28
28
27
28
28
27
27
26
26
26
25
25
24
24
24
24
24
24
24
24
24
24
24
25
25
26
25
26
26
26
27
27
27
27
28
28
28
28
28
28
27
27
28
27
27
27
26
26
26
25
26
26
25
25
25
24
23
24
23
22
22
22
21
21
21
20
20
20
20
19
19
19
19
19
19
20
20
20
20
20
20
20
20
21
21
22
21
22
22
22
21
21
21
20
20
19
19
18
18
18
18
18
17
16
17
16
16
16
16
15
15
15
16
16
15
16
16
16
16
16
15
15
15
15
15
16
15
15
15
15
15
14
14
14
14
14
15
15
15
14
15
15
15
15
15
15
16
15
15
16
15
15
15
16
15
15
14
15
14
14
14
14
14
13
13
13
14
13
13
13
14
14
14
14
14
14
14
15
15
14
14
14
15
14
15
14
14
14
14
14
15
14
14
14
14
14
14
14
13
13
14
13
13
13
13
13
12
12
12
12
11
11
11
11
11
11
11
12
11
12
12
12
13
14
14
14
13
14
14
14
14
15
15
14
14
14
14
14
13
12
13
11
12
11
11
11
10
10
10
10
9
8
8
8
8
8
7
8
7
7
7
7
6
7
6
6
6
6
6
6
5
5
5
5
4
4
5
5
4
4
4
4
4
3
3
3
3
2
2
1
2
2
1
1
1
1
0
0
0
0
0
0
0
0
0
0
0
0
0
1
0
0
0
0
0
-1
0
-1
-1
-1
-1
-1
-1
-1
-1
-1
-2
-2
-3
-3
-3
-4
-5
-5
-6
-5
-5
-6
-5
-5
-5
-5
-5
-5
-5
-5
-3
-4
-3
-2
-2
-1
-2
-1
-2
0
0
-1
-1
-1
-2
-2
-2
-2
-3
-3
-3
-3
-4
-3
-4
-3
-3
-4
-4
-3
-4
-4
-4
-3
-3
-2
-2
-2
-2
-2
-2
-3
-3
-2
-3
-3
-3
-3
-4
-4
-4
-3
-4
-4
-4
-4
-4
-5
-4
-5
-5
-5
-5
-5
-5
-5
-5
-6
-5
-5
-5
-6
-6
-6
-7
-6
-6
-6
-6
-6
-7
-7
-7
-6
-6
-6
-6
-6
-6
-6
-5
-6
-5
-6
-5
-5
-6
-6
-6
-6
-6
-6
-6
-6
-6
-6
-7
-6
-6
-7
-6
-6
-6
-7
-7
-7
-6
-7
-7
-7
-7
-7
-7
-7
-6
-6
-7
-6
-6
-6
-6
-6
-5
-5
-5
-5
-5
-4
-4
-4
-5
-5
-5
-5
-5
-6
-6
-6
-6
-6
-6
-6
-6
-6
-5
-5
-5
-4
-3
-2
-2
-2
-1
0
1
1
2
2
3
3
4
4
4
4
5
5
6
7
7
7
7
7
7
8
8
8
8
9
9
9
10
9
10
10
9
9
10
9
10
10
10
10
10
10
11
11
11
10
10
10
10
10
10
9
10
8
9
9
9
8
8
8
8
8
8
8
7
7
7
7
7
7
8
7
7
7
7
7
6
6
6
6
6
5
4
5
4
4
3
2
2
1
1
1
0
-1
0
-1
-1
-1
0
-1
-1
-1
-2
-2
-1
-1
-1
-1
-1
-1
-1
-2
-3
-2
-3
-3
-3
-3
-4
-4
-4
-5
-4
-4
-5
-6
-6
-5
-6
-7
-7
-7
-8
-9
-8
-9
-9
-9
-10
-11
-10
-11
-11
-12
-12
-12
-12
-12
-13
-12
-13
-13
-12
-12
-12
-11
-11
-10
-11
-10
-8
-7
-4
-2
1
4
9
13
19
26
33
41
49
61
72
84
97
112
127
143
161
179
198
219
240
262
285
309
333
357
382
407
430
453
475
495
514
530
545
557
565
571
573
571
565
555
542
524
503
479
452
423
392
359
325
290
254
219
184
151
119
89
60
35
10
-11
-30
-46
-61
-73
-83
-91
-97
-102
-105
-108
-109
-110
-109
-108
-106
-104
-101
-97
-94
-91
-88
-84
-81
-78
-74
-71
-68
-64
-60
-57
-55
-51
-49
-46
-43
-41
-39
-37
-35
-33
-31
-30
-28
-26
-25
-23
-23
-22
-21
-20
-20
-19
-18
-18
-18
-18
-17
-16
-17
-17
-16
-17
-17
-16
-16
-16
-16
-16
-15
-14
-14
-13
-13
-13
-13
-13
-12
-13
-13
-13
-13
-12
-12
-12
-13
-13
-13
-13
-13
-12
-13
-13
-12
-13
-13
-13
-12
-12
-12
-13
-13
-13
-12
-12
-12
-12
-12
-12
-12
-11
-11
-12
-12
-13
-13
-13
-13
-13
-13
-14
-14
-13
-14
-14
-14
-14
-14
-14
-14
-14
-14
-14
-14
-14
-14
-13
-13
-12
-13
-13
-13
-13
-12
-13
-12
-12
-13
-13
-12
-13
-13
-13
-12
-13
-13
-12
-12
-12
-12
-12
-12
-12
-12
-11
-12
-12
-12
-12
-13
-12
-12
-12
-12
-13
-11
-12
-11
-11
-11
-12
-12
-11
-11
-11
-11
-11
-10
-10
-11
-10
-10
-10
-11
-10
-11
-10
-10
-10
-10
-10
-9
-10
-9
-10
-10
-9
-9
-9
-10
-10
-10
-10
-10
-10
-10
-10
-10
-11
-10
-11
-11
-11
-11
-11
-11
-12
-12
-13
-12
-12
-13
-12
-13
-13
-12
-13
-12
-12
-11
-12
-11
-11
-11
-10
-9
-9
-9
-8
-8
-7
-7
-6
-6
-6
-6
-6
-5
-6
-5
-5
-5
-5
-6
-5
-6
-6
-7
-7
-6
-7
-6
-6
-7
-6
-6
-6
-6
-5
-5
-5
-4
-4
-3
-3
-3
-2
-2
-2
-1
-1
-1
-1
0
-1
0
0
0
1
0
-1
0
0
0
0
0
1
0
0
0
0
0
-1
-1
-1
-1
-2
-1
-2
-3
-3
-4
-4
-4
-5
-6
-6
-8
-7
-8
-10
-9
-11
-10
-11
-11
-12
-12
-12
-13
-13
-13
-13
-13
-13
-13
-13
-13
-13
-13
-13
-13
-12
-13
-13
-13
-13
-13
-14
-14
-15
-15
-16
-17
-17
-17
-18
-19
-19
-20
-20
-21
-22
-22
-24
-24
-24
-24
-25
-26
-26
-26
-27
-27
-27
-27
-27
-27
-27
-26
-26
-25
-25
-25
-24
-24
-23
-23
-22
-21
-21
-21
-20
-19
-19
-18
-18
-18
-18
-17
-17
-16
-15
-14
-14
-15
-14
-13
-12
-12
-12
-12
-11
-11
-11
-10
-10
-10
-10
-9
-10
-9
-9
-9
-8
-8
-8
-8
-7
-8
-8
-8
-8
-8
-8
-8
-8
-8
-8
-9
-8
-9
-9
-9
-9
-9
-9
-9
-8
-9
-9
-9
-9
-9
-10
-10
-9
-10
-9
-10
-9
-9
-9
-9
-9
-9
-9
-9
-9
-9
-10
-10
-10
-10
-11
-11
-11
-12
-12
-12
-12
-13
-13
-14
-14
-14
-15
-14
-14
-15
-15
-16
-15
-16
-16
-16
-17
-16
-16
-16
-17
-16
-17
-17
-17
-17
-17
-17
-17
-17
-18
-18
-18
-18
-18
-19
-19
-20
-20
-20
-20
-20
-21
-20
-21
-21
-21
-22
-22
-22
-23
-23
-23
-23
-23
-23
-23
-22
-22
-22
-22
-21
-21
-21
-21
-20
-21
-20
-20
-20
-20
-20
-20
-20
-20
-20
-20
-20
-20
-20
-21
-20
-20
-21
-21
-21
-20
-20
-20
-20
-19
-19
-19
-18
-18
-18
-18
-18
-17
-17
-17
-17
-17
-17
-16
-16
-16
-15
-15
-15
-15
-14
-14
-13
-13
-12
-12
-12
-11
-10
-10
-10
-9
-9
-9
-8
-8
-8
-7
-8
-7
-7
-7
-7
-7
-7
-6
-6
-6
-5
-6
-5
-5
-5
-4
-4
-5
-4
-4
-4
-4
-4
-4
-4
-4
-4
-4
-5
-4
-4
-3
-3
-3
-3
-3
-2
-3
-2
-2
-1
-1
-1
0
1
1
2
2
2
2
3
4
4
4
5
5
5
5
5
5
5
5
5
6
5
5
5
4
4
4
3
3
3
3
2
2
1
2
1
1
0
0
0
0
0
0
0
1
1
1
1
2
2
2
3
2
3
3
4
4
5
4
5
5
5
4
4
4
3
4
3
3
3
3
2
2
2
1
2
2
1
1
1
1
1
2
1
1
1
1
1
0
1
1
0
0
0
0
-1
-1
-1
-2
-2
-2
-2
-2
-2
-3
-3
-3
-3
-4
-3
-3
-3
-3
-2
-2
-2
-2
-1
-2
-2
-1
-1
-1
-1
0
0
0
1
1
1
1
1
0
1
2
2
2
1
2
2
2
2
2
2
1
2
2
1
2
2
1
2
1
0
0
0
0
0
0
0
-1
-1
-1
-1
-3
-3
-3
-2
-2
-2
-2
-2
-2
-2
-2
-1
-1
-2
-1
0
0
0
0
0
1
1
1
2
1
1
1
2
2
2
1
1
1
1
0
1
1
1
1
1
1
1
1
1
1
1
1
0
0
0
-1
0
-1
-1
0
-1
0
-1
-1
-1
-1
0
0
0
1
1
1
2
1
2
2
3
3
4
4
4
5
4
5
5
6
5
6
5
6
7
7
7
7
6
7
7
7
7
7
8
8
8
7
7
8
7
8
8
8
9
9
9
9
10
9
10
10
11
10
10
10
10
10
10
9
9
9
9
10
10
10
9
9
9
10
9
10
9
9
10
10
10
11
10
10
11
11
10
11
11
11
10
10
10
10
11
10
11
10
10
11
10
12
11
12
12
13
13
14
14
14
14
14
14
15
16
15
15
15
15
15
15
14
14
14
13
13
13
13
12
12
13
12
12
13
13
13
13
13
14
13
15
15
15
16
16
17
17
18
18
18
19
19
19
19
20
19
20
20
20
19
19
19
19
18
18
17
17
17
17
17
16
16
16
15
15
16
15
15
15
15
16
16
15
15
15
15
16
16
16
16
16
16
16
17
17
17
17
17
18
18
18
18
18
18
18
19
19
20
21
21
21
22
22
23
22
23
23
23
23
23
24
23
23
23
23
23
24
23
24
24
24
24
24
25
24
24
25
25
26
25
27
26
27
27
27
28
28
28
28
28
28
28
29
29
29
28
28
28
28
28
29
28
28
28
28
28
28
28
28
29
28
29
29
29
30
30
29
30
29
30
30
30
31
30
30
30
31
31
30
31
31
31
32
31
32
32
32
33
33
32
33
34
34
35
34
35
34
35
35
35
34
34
34
35
34
34
33
33
32
33
32
32
31
30
31
30
30
30
30
30
30
31
31
31
32
32
33
33
33
34
34
36
36
37
36
36
37
38
38
39
39
40
39
39
39
39
39
38
39
38
39
38
39
38
38
38
39
39
39
39
40
41
41
42
42
44
43
44
46
46
47
49
49
50
51
52
53
53
54
54
54
54
54
55
54
54
54
54
52
53
53
52
53
52
52
52
51
52
52
52
52
51
53
53
54
54
54
54
54
55
54
55
55
54
54
54
53
54
53
53
52
52
51
51
50
50
49
49
48
48
48
47
47
48
47
47
47
48
48
48
47
47
48
48
47
47
47
47
47
47
47
46
46
45
45
45
44
44
43
43
42
42
42
41
42
41
41
40
40
40
40
40
40
39
39
39
39
39
39
38
38
38
38
39
39
39
39
38
38
39
38
39
39
39
38
39
38
39
38
38
38
38
37
38
38
38
38
38
38
39
39
41
42
43
45
47
51
54
58
62
68
75
82
90
100
111
122
135
149
164
180
197
215
234
254
276
298
321
345
369
394
418
444
468
492
515
536
557
574
591
606
616
624
629
629
627
621
610
595
576
555
530
503
474
443
409
375
340
304
270
235
203
171
141
112
87
64
43
24
8
-5
-18
-27
-35
-42
-47
-50
-52
-54
-55
-54
-53
-51
-49
-48
-45
-42
-38
-35
-31
-28
-24
-20
-16
-13
-9
-5
-2
1
5
7
11
13
16
18
20
22
25
26
28
29
31
32
34
35
37
37
38
40
41
42
43
43
44
44
45
46
46
46
47
47
48
48
49
49
48
49
49
49
50
50
50
50
50
50
50
51
51
51
52
52
53
53
54
55
55
55
56
56
57
57
58
58
59
59
59
60
60
60
60
60
60
60
60
60
59
60
59
59
59
58
59
58
59
58
58
58
59
59
59
58
59
58
58
59
59
58
59
58
58
58
59
58
58
58
58
59
59
59
59
60
59
60
60
61
61
61
62
62
63
63
64
64
65
64
65
65
66
66
67
66
66
66
66
66
66
65
65
65
64
64
64
64
63
64
63
63
64
63
63
64
64
64
64
65
65
65
66
66
67
68
68
68
68
68
68
69
69
70
70
70
70
70
72
71
72
72
72
72
73
72
73
73
73
73
73
74
74
73
74
74
74
74
75
76
76
76
77
77
78
77
79
79
79
80
80
80
81
81
81
82
82
82
83
82
82
82
81
82
81
82
81
82
81
82
82
83
84
84
84
84
84
85
86
86
86
87
88
88
88
89
89
90
90
91
91
91
91
91
91
91
92
91
92
93
93
93
93
93
94
93
94
93
94
94
94
93
94
95
94
94
94
93
93
93
92
92
93
92
92
93
93
92
93
92
92
93
93
93
93
92
93
92
93
93
93
92
93
93
92
92
92
92
91
90
89
89
89
89
88
87
86
87
86
85
85
84
84
83
82
82
82
81
81
80
80
79
79
78
78
78
77
77
77
77
76
75
76
75
75
76
76
75
75
75
75
75
75
75
75
75
75
75
75
74
75
75
75
75
76
75
76
75
76
76
77
77
78
78
79
79
79
79
79
80
80
80
81
82
82
82
83
83
84
84
85
85
86
87
87
87
88
88
89
89
90
89
89
90
90
90
90
90
90
90
90
89
90
89
90
90
90
89
89
89
89
88
89
88
89
89
88
88
88
88
88
88
88
87
87
87
87
87
86
87
86
86
85
85
85
85
85
85
85
84
84
84
85
84
84
83
84
83
83
83
83
82
82
82
81
81
80
79
79
79
78
78
77
77
76
75
74
74
73
73
73
72
72
72
72
72
72
72
72
72
72
73
73
73
73
73
73
74
74
75
74
74
74
74
74
73
73
73
72
72
72
72
71
71
71
70
69
69
69
68
67
67
66
65
66
65
65
65
65
64
64
65
65
65
65
66
66
66
66
67
68
67
68
68
68
68
69
68
68
68
68
68
68
68
68
68
68
68
68
68
68
67
68
67
68
67
67
67
68
67
68
69
69
69
69
70
70
70
71
71
72
72
72
73
74
74
74
74
75
76
76
76
76
76
77
77
78
78
78
78
78
78
78
78
79
78
79
78
78
78
78
78
79
79
79
78
78
79
79
79
79
80
80
80
81
82
82
82
82
83
83
83
82
82
83
83
82
82
83
83
83
83
83
83
82
82
83
82
83
82
82
82
82
82
83
82
82
83
83
82
82
83
82
82
83
82
82
82
81
82
81
81
80
80
80
80
80
79
79
79
79
78
77
77
77
76
76
76
76
75
75
75
74
74
74
74
74
73
73
73
73
72
72
71
72
72
71
72
71
71
71
71
71
71
71
70
70
70
70
69
69
69
68
68
68
68
68
68
67
67
67
66
66
66
66
66
65
66
65
65
64
65
64
63
63
64
64
64
63
62
62
63
63
62
62
61
61
61
62
62
62
61
61
61
61
61
61
61
61
61
60
61
60
60
60
60
60
60
60
60
59
59
59
58
58
59
58
58
57
57
57
57
56
56
56
55
55
55
55
54
54
53
53
52
52
52
52
51
51
50
50
51
50
50
50
49
50
50
50
51
50
50
50
50
50
50
50
50
49
50
50
49
49
49
48
48
48
48
47
47
47
47
46
46
45
46
45
45
44
45
45
44
45
45
45
45
46
46
46
47
46
47
46
47
48
48
48
49
49
49
49
49
49
49
49
48
48
48
48
47
47
47
47
46
45
46
45
44
43
43
42
42
41
41
40
40
39
39
38
39
38
38
38
38
38
39
39
39
39
39
40
40
40
40
41
41
42
41
41
42
42
41
41
42
41
41
41
41
40
41
40
40
39
39
40
40
39
39
39
40
39
39
39
39
39
39
38
38
38
38
37
37
37
37
36
36
36
35
36
35
35
35
34
35
36
35
35
36
35
35
36
36
35
36
36
36
36
36
36
36
35
36
35
35
35
35
35
34
34
33
33
33
33
33
32
32
31
31
31
31
30
30
29
29
30
29
28
28
28
27
28
27
27
27
26
27
26
26
28
28
28
28
28
29
30
30
30
31
31
31
32
31
32
32
33
32
32
32
33
32
32
32
31
31
30
30
30
29
29
28
28
27
26
26
25
25
24
24
24
23
24
23
22
23
23
23
23
23
23
22
23
24
24
24
25
26
26
26
26
27
27
27
27
27
28
28
27
27
27
26
26
26
26
26
26
24
25
24
24
23
23
22
22
22
22
23
23
23
22
22
22
23
23
23
23
23
23
23
23
24
23
23
23
22
22
23
22
22
22
22
22
22
21
22
21
22
22
22
22
22
22
22
22
22
22
23
23
23
22
22
22
22
21
21
22
21
21
21
21
22
21
21
20
20
20
21
21
21
21
21
21
21
21
21
21
21
21
21
21
21
21
22
21
22
23
23
24
24
23
24
25
25
26
27
27
28
28
28
29
30
30
30
30
31
31
31
32
31
31
31
31
32
31
31
31
31
32
31
31
31
32
30
31
31
30
31
31
32
31
31
32
32
32
32
32
32
33
32
33
32
33
32
32
32
32
32
32
31
31
30
30
29
30
29
29
28
27
27
27
27
27
27
27
27
26
27
26
26
26
26
26
25
26
26
25
25
24
24
23
23
23
22
22
22
21
21
20
20
19
19
19
18
19
18
17
17
17
17
16
16
16
16
16
16
15
15
15
15
15
15
14
15
15
15
14
15
15
14
14
14
14
13
13
12
12
12
11
11
10
11
11
10
10
9
9
9
8
8
8
8
8
8
8
8
9
10
11
11
13
15
18
22
26
30
36
42
49
57
65
76
87
99
112
127
142
159
177
195
215
235
257
279
303
326
351
375
401
426
451
474
497
519
538
556
573
586
596
603
606
605
602
593
581
564
545
521
495
466
435
402
367
332
295
259
223
189
156
123
93
66
41
17
-3
-20
-35
-49
-60
-68
-75
-80
-84
-86
-88
-88
-88
-88
-86
-85
-82
-80
-77
-73
-71
-67
-64
-61
-58
-54
-51
-47
-45
-41
-38
-36
-32
-30
-28
-25
-22
-20
-18
-16
-14
-12
-11
-9
-8
-6
-5
-4
-2
-2
-1
1
2
2
3
4
4
5
5
5
5
6
6
6
6
6
6
7
7
7
8
7
8
9
8
10
9
9
10
11
10
11
11
12
12
12
11
12
12
12
12
12
13
12
13
12
12
12
12
12
13
12
12
12
12
12
12
12
12
12
13
13
12
13
13
13
14
14
14
15
15
16
16
15
16
16
17
17
18
17
18
18
18
17
18
17
18
18
18
18
18
18
18
18
18
18
18
18
18
18
18
18
18
17
18
17
18
17
17
17
18
17
17
17
17
17
17
18
18
17
17
17
18
18
18
18
18
18
19
19
19
20
20
20
20
20
21
21
21
21
21
21
22
21
21
22
21
22
21
22
22
22
21
21
21
21
21
21
21
21
21
21
20
21
21
21
20
21
21
21
21
22
22
22
22
22
22
23
23
23
22
23
23
24
23
24
24
25
25
25
26
26
26
26
27
27
27
27
27
28
27
27
28
27
28
28
28
28
28
28
28
28
28
28
28
28
29
28
28
29
29
29
30
31
31
32
32
33
34
35
36
36
37
37
38
39
39
40
40
40
40
41
41
41
41
40
41
40
39
40
39
39
38
38
37
37
36
36
36
35
35
35
34
34
34
34
34
34
34
33
34
34
34
34
33
33
34
33
33
33
32
32
32
33
32
31
31
30
30
30
30
29
30
29
30
29
29
28
29
28
27
27
26
26
26
25
25
24
24
22
22
22
21
20
19
19
19
17
17
16
16
16
15
14
13
13
12
12
12
11
11
10
11
10
10
10
11
10
11
11
11
11
12
11
12
12
13
13
14
15
16
16
18
18
19
20
20
21
22
22
23
23
24
25
25
25
25
26
26
26
27
28
28
28
28
27
28
28
28
29
29
30
31
31
31
32
32
33
33
33
33
34
34
34
34
34
34
34
34
34
33
33
33
33
33
33
32
33
32
32
33
33
32
33
32
32
33
33
32
32
31
31
31
31
31
30
30
29
28
28
28
27
27
26
26
26
25
25
25
25
25
25
24
24
24
25
24
24
25
25
25
25
25
24
25
25
25
24
24
24
23
23
23
22
22
22
21
21
21
21
20
19
19
19
18
19
18
18
19
18
17
18
18
18
18
17
18
17
17
17
17
17
16
16
16
16
16
16
15
16
15
15
16
16
16
16
16
17
17
17
18
18
18
18
18
19
19
20
20
19
19
19
20
19
19
19
20
20
20
21
22
22
22
23
22
23
23
23
23
24
23
24
24
25
25
25
25
24
25
25
26
25
26
26
26
26
27
27
27
27
27
28
28
28
28
30
29
29
30
30
31
31
31
31
31
31
32
32
32
33
32
34
33
35
35
35
36
36
37
37
37
38
38
38
39
39
39
39
39
39
40
40
39
39
39
39
39
39
38
38
39
39
38
38
38
38
38
39
38
39
39
40
39
40
40
41
40
41
41
41
42
41
41
41
41
41
41
41
41
40
40
38
39
39
38
38
37
37
36
37
36
36
36
36
35
35
35
36
35
35
36
36
36
35
36
36
36
36
36
37
36
36
36
35
35
35
35
35
35
34
34
34
33
34
33
33
33
32
32
32
32
32
32
31
32
31
31
31
31
31
31
31
31
31
31
31
31
31
30
31
31
31
32
32
31
32
32
32
32
32
32
31
32
32
32
32
32
32
32
31
32
32
31
31
31
31
31
31
31
30
31
30
30
30
29
30
29
29
29
29
28
28
28
27
27
27
27
27
27
27
27
27
27
27
27
27
27
26
27
27
27
27
28
27
28
28
28
28
28
27
27
27
27
27
27
27
27
27
27
27
27
26
26
26
26
26
26
26
26
26
25
25
25
25
25
24
24
24
24
24
24
24
23
23
23
23
23
23
23
23
23
23
23
23
23
23
22
23
23
23
24
24
23
23
23
23
23
23
23
23
24
23
23
23
23
23
24
23
23
23
23
23
23
23
23
23
24
23
23
23
22
23
23
23
23
23
22
22
22
23
23
23
23
22
23
23
24
23
23
23
23
23
24
23
23
23
23
23
24
23
23
24
23
23
23
23
24
25
24
24
25
25
25
25
25
26
25
26
25
25
26
26
26
25
25
25
24
25
24
24
23
23
23
23
23
23
22
22
22
23
23
22
23
22
23
23
24
24
23
24
23
23
24
24
24
24
24
23
23
24
24
24
23
24
23
23
24
24
24
24
23
24
24
24
24
24
24
24
24
24
25
25
24
24
24
24
23
24
24
23
23
23
23
22
22
22
21
21
21
22
21
21
21
21
21
21
20
21
20
20
20
20
19
19
19
19
18
19
19
19
19
19
19
19
18
19
19
19
20
21
21
21
21
23
23
23
24
23
23
24
24
24
24
25
25
25
25
26
26
26
26
26
27
27
27
27
27
27
27
28
28
28
28
28
28
28
28
27
27
28
27
26
27
26
26
25
26
25
24
25
25
25
24
25
25
25
24
24
25
24
24
24
24
24
23
23
23
23
22
23
22
23
21
22
22
21
22
21
21
22
22
22
22
22
23
23
24
24
24
25
26
26
26
26
25
26
27
27
26
27
26
26
26
26
26
25
25
25
25
25
26
26
25
25
25
24
25
24
24
24
24
24
24
24
24
23
24
24
23
24
23
23
24
23
23
23
23
24
23
23
23
23
22
23
22
21
21
21
20
21
21
20
21
20
20
20
21
21
22
21
22
23
23
23
24
25
26
26
27
29
29
30
29
30
31
31
31
32
32
32
33
33
33
34
34
33
34
34
35
34
35
35
35
36
37
37
38
37
38
38
39
38
38
39
40
39
40
40
41
41
41
42
41
41
41
41
42
41
41
41
40
40
40
40
40
39
40
38
38
38
37
37
37
36
36
35
36
34
34
34
34
33
34
34
34
33
33
33
33
33
32
32
33
32
32
32
32
32
31
32
32
31
31
31
31
30
29
29
29
29
29
29
29
28
28
27
28
27
28
27
27
27
26
26
26
26
25
25
25
24
24
25
24
24
24
23
23
23
22
21
22
21
21
21
21
21
20
20
20
19
19
19
18
19
18
18
18
18
17
18
18
17
17
17
17
17
16
16
16
16
17
16
16
17
17
18
19
21
21
23
27
29
33
37
42
47
54
61
70
81
91
102
115
128
144
159
176
194
214
233
253
275
298
322
345
369
395
419
443
467
490
512
532
550
567
581
592
600
605
605
603
596
585
570
551
529
504
476
446
415
381
345
310
274
237
203
170
137
107
78
52
27
7
-12
-27
-41
-52
-62
-68
-74
-78
-80
-82
-82
-82
-81
-79
-76
-74
-70
-67
-63
-59
-55
-51
-48
-44
-41
-37
-34
-31
-27
-25
-22
-19
-16
-14
-12
-11
-10
-8
-6
-5
-5
-3
-3
-1
-1
0
2
2
2
3
3
5
5
6
6
6
7
8
8
9
9
9
10
10
10
10
11
12
12
12
12
12
12
13
14
14
14
14
14
15
15
16
16
16
15
16
16
17
17
17
17
17
17
18
18
18
18
18
18
18
18
18
17
18
18
17
17
17
16
16
16
16
16
16
16
17
17
17
17
17
17
19
19
20
20
21
22
23
23
24
25
26
26
26
27
27
27
28
28
27
28
28
26
27
27
26
26
25
25
25
24
23
23
23
23
23
22
23
23
23
23
23
23
24
23
24
25
25
25
26
26
26
27
27
28
28
27
28
28
28
29
29
29
28
28
27
28
27
27
27
26
26
25
25
25
25
24
25
25
25
25
26
25
25
26
26
27
27
27
28
29
29
30
30
31
31
31
32
32
31
32
32
32
33
32
33
32
33
33
32
32
32
33
32
33
33
32
33
33
33
34
34
34
35
35
35
36
37
37
38
38
40
40
41
42
42
43
43
44
45
46
46
46
47
47
48
49
48
48
49
49
50
50
50
50
51
51
50
50
50
50
50
50
50
51
51
50
51
51
50
49
49
50
49
49
49
49
50
50
49
50
50
50
49
50
50
51
51
52
51
52
52
52
53
53
54
53
53
54
53
53
54
53
53
53
53
53
52
52
52
51
51
50
50
49
49
49
48
47
46
46
46
45
45
44
44
43
43
42
43
42
41
41
42
42
42
42
41
41
42
42
42
41
41
40
40
41
40
39
39
38
38
38
37
37
38
37
37
37
37
37
37
37
37
37
38
38
39
39
39
40
40
41
41
41
42
41
42
42
42
42
42
41
42
41
41
42
42
42
42
42
43
44
44
45
45
47
47
49
51
52
52
54
56
57
58
60
61
62
63
64
65
66
67
67
67
67
68
68
69
68
69
68
69
69
68
68
68
68
68
68
67
67
68
67
66
67
65
66
66
65
64
64
63
63
63
63
63
63
62
62
61
61
61
61
61
61
62
62
62
62
62
63
62
62
63
63
63
63
64
64
64
64
64
63
64
64
64
64
63
64
63
63
63
63
62
63
62
62
61
61
61
61
61
61
61
60
60
60
60
61
60
60
60
60
59
59
60
59
59
58
57
57
57
57
56
56
55
55
55
54
54
54
53
53
53
53
52
52
53
52
52
52
52
52
51
52
52
52
52
52
52
53
53
54
54
55
56
56
57
58
59
59
60
61
63
63
63
64
65
66
67
68
68
68
69
69
69
70
69
69
69
70
69
70
69
69
70
69
69
69
69
69
69
68
69
69
70
70
69
70
70
70
70
70
70
71
71
71
72
71
71
71
72
72
72
73
74
74
73
73
73
73
74
74
74
74
73
73
74
74
74
73
73
73
73
73
72
73
73
73
73
75
75
75
77
77
77
78
79
80
80
82
83
83
84
85
86
86
86
87
87
87
87
87
87
87
86
86
85
85
85
85
84
83
83
82
82
82
81
80
80
80
79
79
79
79
79
79
79
79
79
79
79
78
79
79
80
80
79
80
80
80
80
80
81
81
81
81
81
81
81
80
81
80
81
82
81
81
81
81
81
81
82
82
82
82
82
83
84
83
84
84
84
84
85
84
85
85
85
85
85
84
84
83
83
82
82
82
81
81
80
79
78
78
78
77
77
77
76
75
75
75
76
76
75
75
74
74
75
74
75
74
74
74
74
74
74
74
73
73
73
73
72
72
72
72
71
71
73
73
73
72
73
73
74
75
75
76
76
76
76
77
78
77
78
78
77
78
77
78
77
77
77
76
77
77
78
77
77
78
77
78
78
78
79
78
79
79
79
79
79
80
80
79
80
79
79
79
79
78
78
79
79
78
78
79
78
78
78
78
78
78
78
78
78
78
78
78
78
78
78
78
78
78
79
78
78
78
77
78
77
77
77
76
76
76
76
76
76
75
75
76
75
75
75
75
75
75
75
76
76
75
75
76
75
75
76
74
75
75
75
75
75
74
74
73
73
73
73
74
74
74
73
73
74
73
74
74
74
74
74
75
75
75
76
77
76
77
78
78
77
78
77
77
77
77
77
77
77
76
76
76
75
75
75
75
75
75
75
75
76
75
75
75
75
76
76
76
75
76
75
76
76
76
75
75
75
75
75
75
75
76
75
75
75
75
75
75
76
75
75
76
77
77
76
76
76
76
76
76
76
75
75
75
75
74
75
74
73
73
72
73
72
72
72
72
71
71
71
71
71
72
71
72
72
72
73
73
73
74
73
73
75
75
75
75
75
75
76
75
76
76
76
76
76
76
76
76
76
75
75
75
75
75
75
74
74
73
74
73
73
74
73
73
72
72
72
72
72
71
72
72
72
72
72
72
72
72
72
73
73
72
73
73
73
73
74
73
73
74
74
74
74
75
75
74
74
75
75
75
74
74
74
74
74
74
74
74
73
73
73
73
73
73
72
73
72
73
73
73
73
73
72
73
73
74
74
74
73
74
74
75
75
74
74
75
74
75
74
74
74
74
73
73
73
73
73
72
71
71
71
71
71
70
70
70
70
70
70
70
70
70
69
69
69
70
70
70
71
71
70
71
71
71
71
72
72
72
73
73
73
74
74
74
75
75
76
75
75
75
74
74
75
75
74
74
73
73
74
73
73
74
73
73
73
72
73
72
72
72
73
73
72
73
73
72
73
73
74
73
73
74
73
73
74
74
74
74
75
76
76
76
76
77
77
78
78
79
78
80
79
80
80
80
80
81
81
82
82
82
83
84
84
85
85
86
86
87
87
88
88
89
90
90
90
90
91
91
91
91
91
91
91
91
91
91
91
90
90
90
89
89
89
89
89
89
89
89
89
88
88
88
88
88
88
87
87
86
87
86
86
85
85
85
85
84
84
84
84
82
82
82
81
81
80
80
80
80
80
79
79
79
79
79
79
79
78
78
78
77
77
77
77
77
76
75
76
75
75
74
74
73
73
73
73
73
73
74
73
73
74
74
74
75
75
75
76
75
76
75
75
75
76
76
76
75
76
75
75
74
74
74
73
73
73
71
72
71
71
70
69
68
69
68
68
68
69
69
70
72
73
75
78
82
86
91
97
103
111
120
129
140
152
165
179
195
211
228
247
266
287
309
332
355
381
405
431
456
483
509
534
558
580
601
621
638
653
666
675
680
683
682
676
665
651
633
611
587
559
530
497
463
428
392
355
318
282
248
214
182
152
124
98
75
54
35
20
7
-4
-14
-21
-28
-31
-35
-36
-38
-38
-37
-36
-34
-32
-29
-26
-23
-19
-15
-12
-8
-3
0
3
7
10
13
17
20
24
27
29
32
34
37
39
42
43
45
46
48
50
52
53
55
56
57
58
59
60
61
61
62
63
63
64
64
63
64
64
64
65
65
65
66
66
66
66
66
67
67
66
66
66
66
66
66
66
66
67
66
67
67
67
67
68
68
68
69
69
69
70
70
71
71
72
72
71
72
71
72
72
73
72
72
71
72
71
71
70
70
70
70
69
69
70
68
69
68
68
67
67
67
67
66
66
66
66
66
66
66
66
66
66
66
67
67
67
66
67
67
67
67
67
68
68
68
69
69
69
70
70
69
69
71
70
70
71
70
70
70
71
70
71
71
71
71
71
72
71
71
72
71
72
73
73
73
73
73
73
73
73
73
73
74
73
73
72
72
73
71
72
72
72
71
71
71
71
71
70
71
71
72
72
71
72
72
72
73
73
73
74
74
74
74
74
74
74
74
74
74
75
74
74
74
74
73
74
73
74
74
73
73
74
75
75
75
76
76
76
76
77
78
77
78
78
78
79
80
80
80
81
80
80
81
80
80
80
81
81
80
81
81
80
80
80
81
80
81
81
81
81
81
81
81
81
81
82
81
81
81
82
82
83
83
83
84
85
86
86
87
87
87
88
88
89
89
88
89
88
88
89
88
88
87
87
87
86
86
85
84
84
84
83
82
83
82
82
81
81
80
79
79
79
78
77
77
77
77
76
75
74
74
74
73
72
72
71
71
70
70
70
70
69
69
68
68
67
67
67
66
65
65
65
64
64
63
63
62
61
61
61
59
59
58
58
56
56
56
55
55
55
54
54
54
53
53
52
51
52
51
51
51
51
50
49
49
48
48
48
48
48
48
48
48
49
49
49
50
50
51
52
52
53
53
55
55
57
57
58
59
59
59
59
59
59
59
59
59
59
59
59
58
58
58
58
58
58
58
58
58
58
58
59
60
60
59
60
59
59
58
59
58
58
57
57
56
55
56
55
54
54
53
53
51
51
51
50
49
49
49
49
48
48
48
47
47
47
47
46
47
46
46
46
46
45
45
45
44
44
43
43
43
42
42
41
41
41
40
40
40
39
38
38
38
38
37
38
37
37
37
37
37
37
37
36
37
37
37
37
37
37
37
36
35
36
35
35
34
33
33
32
32
31
31
30
29
29
29
29
28
28
27
27
26
26
26
25
25
25
25
25
24
24
23
23
22
23
22
22
22
21
21
21
21
22
22
22
23
23
24
24
25
25
26
27
27
28
29
31
30
31
31
31
32
32
32
32
32
32
32
33
32
32
33
32
33
32
33
33
33
33
32
33
33
33
34
34
34
33
33
33
34
34
34
33
33
33
33
33
33
33
33
34
33
33
34
34
34
34
35
34
35
35
35
35
35
35
36
36
36
36
37
37
37
37
37
37
37
36
37
37
37
37
37
37
37
37
37
37
37
37
36
36
37
36
37
37
36
36
37
36
37
37
36
37
37
37
37
37
38
37
37
38
38
38
39
38
38
38
38
38
38
38
38
38
38
38
37
37
37
36
36
36
35
36
35
34
34
34
34
34
33
33
33
33
32
32
32
31
31
31
30
30
30
30
30
29
29
29
29
29
28
28
28
27
27
27
27
27
27
27
27
26
27
27
27
26
26
26
25
26
26
24
25
24
25
24
24
24
24
23
22
22
22
23
23
22
22
22
22
21
22
22
21
21
20
21
21
21
20
20
20
20
20
19
18
19
18
17
17
17
16
16
16
15
15
15
15
15
14
15
14
14
14
15
15
16
16
16
17
17
18
18
19
19
19
19
20
20
20
20
20
20
19
19
18
18
16
16
15
15
15
15
13
14
12
12
11
11
12
11
12
11
11
11
12
12
12
12
12
12
12
12
12
12
12
12
13
12
12
11
11
11
10
11
10
10
10
10
11
10
10
10
9
9
9
9
9
9
9
8
8
7
8
7
7
7
7
7
6
7
6
7
7
6
6
6
7
7
7
7
8
8
7
8
8
9
8
8
8
8
8
8
8
8
8
8
9
9
9
8
9
8
8
10
9
10
9
9
10
9
10
10
9
10
10
9
10
10
10
10
9
9
9
9
10
9
9
9
9
9
9
10
10
9
9
9
10
10
10
11
10
10
10
11
11
10
11
10
10
10
10
9
9
8
7
7
7
6
5
4
4
4
3
3
4
3
4
4
4
4
4
4
5
5
5
6
7
8
8
8
9
9
9
9
9
9
8
8
8
8
8
7
6
6
5
5
6
6
6
5
5
5
5
5
6
5
6
6
6
6
7
7
7
8
9
9
9
10
10
10
10
10
10
11
10
10
10
10
10
9
9
9
8
8
8
8
7
7
7
7
6
6
6
6
6
6
5
5
5
5
5
4
4
5
4
5
4
4
4
4
4
4
4
4
3
4
3
3
3
3
3
3
2
2
2
2
1
2
0
1
1
1
0
0
0
0
0
-1
0
0
1
1
1
1
1
2
2
2
3
3
3
4
5
5
5
5
4
5
5
5
5
5
4
5
4
5
5
5
6
6
6
5
5
6
6
6
7
6
6
6
6
6
5
6
5
4
5
4
3
4
4
2
3
3
2
2
2
2
2
2
2
2
2
1
2
1
2
1
1
1
1
1
1
2
2
2
1
1
1
1
2
2
2
2
3
3
3
4
4
4
4
4
4
5
6
5
6
6
6
6
7
7
6
7
7
8
8
8
8
9
10
10
11
11
12
13
13
14
14
15
15
16
16
16
16
17
17
17
17
16
16
16
16
17
16
16
15
15
15
14
15
14
15
14
14
15
14
14
14
14
14
15
15
15
15
15
14
15
14
14
15
14
14
13
13
14
13
12
12
12
11
11
12
11
11
11
10
10
9
9
9
8
8
8
8
7
7
7
7
7
6
6
6
6
5
5
5
5
4
5
5
4
4
3
3
2
3
2
2
2
1
1
1
0
0
-1
0
-1
-1
-1
-1
-2
-1
-2
-2
-2
-2
-2
-2
-2
-3
-3
-4
-3
-3
-4
-4
-4
-4
-5
-4
-5
-6
-5
-6
-6
-6
-6
-6
-7
-6
-6
-5
-4
-3
-2
-2
0
2
4
7
10
14
18
23
30
36
44
52
62
73
84
97
111
126
142
159
177
196
217
238
261
284
308
331
356
382
407
433
456
479
502
522
541
558
573
584
592
597
598
595
589
578
563
544
521
497
469
438
405
372
336
300
264
228
193
159
126
95
67
40
16
-4
-23
-39
-53
-64
-74
-82
-87
-91
-95
-96
-97
-97
-97
-96
-95
-92
-89
-87
-84
-81
-77
-74
-71
-68
-64
-61
-58
-54
-51
-48
-45
-43
-40
-38
-35
-33
-30
-29
-27
-26
-24
-22
-22
-20
-19
-18
-18
-17
-16
-16
-15
-15
-14
-15
-14
-14
-14
-13
-12
-12
-12
-11
-10
-10
-10
-9
-9
-9
-8
-9
-8
-7
-6
-7
-7
-6
-6
-5
-5
-6
-5
-5
-5
-4
-4
-4
-4
-3
-3
-3
-3
-3
-3
-3
-3
-3
-3
-3
-3
-3
-4
-3
-3
-2
-2
-2
-2
-2
-2
-1
0
1
1
1
1
3
3
4
4
5
5
5
6
5
6
6
6
5
6
6
5
5
5
4
3
4
3
3
3
3
3
3
2
2
2
2
2
1
1
1
1
1
1
1
1
1
1
2
3
2
3
4
4
4
6
6
7
8
8
8
8
9
9
9
9
10
9
10
9
8
8
8
8
8
8
7
7
6
6
6
6
6
6
5
6
5
6
6
6
6
6
7
6
6
7
7
8
7
9
9
10
10
10
11
11
12
13
13
14
15
15
16
16
17
17
17
17
18
17
18
18
18
18
18
18
17
18
18
18
17
17
17
17
17
18
18
19
19
19
19
20
20
19
20
20
21
21
22
22
22
21
22
21
22
22
22
20
21
20
21
21
22
21
21
22
22
22
23
23
23
24
24
25
26
26
26
27
27
27
27
28
28
29
28
28
27
28
29
28
27
27
27
27
27
27
27
27
27
27
27
27
27
28
28
28
28
28
28
28
28
28
29
29
29
30
29
29
29
29
29
29
29
28
28
27
27
26
26
26
25
24
23
23
23
23
22
22
21
20
19
19
18
18
17
16
16
15
14
13
13
12
11
11
10
9
9
8
7
7
6
5
5
5
5
5
5
5
5
5
5
5
5
5
5
6
6
6
6
7
7
7
7
8
7
7
8
8
8
8
9
9
9
10
11
11
11
11
11
12
12
13
13
13
13
13
14
14
14
14
14
14
14
14
15
15
15
15
16
16
16
16
17
18
17
19
19
20
20
21
21
22
22
23
23
24
24
24
24
24
23
23
23
22
22
22
22
22
22
22
21
20
20
20
20
19
20
19
20
20
19
19
19
19
18
19
18
19
19
19
18
18
18
18
18
17
17
18
17
17
17
17
17
17
16
16
16
16
15
15
14
14
14
14
14
14
13
13
12
12
12
11
11
11
11
11
10
10
10
10
10
9
9
10
9
9
9
8
8
8
8
9
8
8
8
8
8
7
7
8
7
7
7
7
8
9
9
8
9
9
9
10
10
10
10
10
10
11
11
10
10
10
10
11
11
11
11
11
10
11
10
11
11
10
10
10
10
11
10
11
10
10
10
11
11
11
11
12
12
12
12
13
13
13
13
13
14
13
14
14
15
15
15
16
17
17
18
18
18
19
19
20
20
21
21
21
22
23
22
23
23
23
23
22
23
22
23
23
23
23
23
23
23
23
23
24
24
24
25
25
26
26
27
27
28
28
28
29
30
30
30
31
31
31
30
31
31
32
31
32
31
32
31
32
32
32
32
31
31
31
32
31
32
31
31
31
32
32
32
32
32
32
32
31
32
32
31
30
31
30
30
31
30
30
29
29
29
29
30
29
29
28
28
29
29
29
29
28
28
28
28
29
28
28
28
28
28
28
27
28
27
26
26
26
26
26
25
26
25
25
26
26
26
25
25
24
25
25
25
25
25
25
25
26
25
26
25
25
24
24
24
24
24
24
23
22
22
22
22
21
21
21
20
21
21
21
21
21
22
22
22
22
23
23
24
24
24
24
25
25
25
25
25
26
25
25
25
25
25
25
25
26
26
25
26
25
25
25
26
26
25
25
25
26
25
25
25
26
25
25
25
25
25
25
24
24
23
24
24
24
23
23
22
23
22
22
22
22
21
21
21
22
22
21
21
21
21
21
21
21
21
22
22
22
22
23
22
22
22
22
23
23
23
23
23
22
23
23
22
22
22
22
22
21
20
21
20
20
20
20
20
21
20
21
20
20
21
21
21
21
22
21
22
22
23
22
22
23
22
22
22
22
22
22
22
21
22
21
22
21
21
20
21
20
20
21
21
22
21
22
23
23
23
24
23
24
24
25
26
26
26
26
27
26
27
28
28
28
28
27
27
28
27
27
27
27
27
27
28
27
27
27
27
27
27
27
27
