# Simple Text Format
# Sampling Rate (Hz):= 1200.00
# Resolution:= 12
# Labels:= ECG	 I 
# Age:=	79
# Gender:=	Feminino
-276
-276
-276
-275
-276
-276
-276
-277
-277
-277
-278
-278
-278
-278
-278
-278
-278
-279
-278
-279
-279
-278
-278
-277
-278
-277
-277
-277
-276
-276
-276
-275
-274
-273
-271
-270
-269
-268
-267
-266
-264
-264
-262
-262
-261
-261
-262
-263
-264
-265
-267
-269
-270
-271
-272
-273
-275
-277
-280
-281
-284
-285
-287
-288
-289
-289
-288
-287
-285
-285
-284
-282
-282
-282
-281
-280
-280
-279
-278
-277
-277
-275
-274
-274
-273
-273
-273
-273
-273
-272
-272
-273
-272
-272
-272
-271
-271
-272
-271
-271
-271
-271
-271
-271
-271
-270
-271
-270
-271
-271
-271
-270
-270
-270
-270
-270
-270
-271
-270
-271
-271
-271
-271
-272
-271
-272
-272
-273
-273
-273
-274
-274
-274
-274
-274
-275
-274
-274
-274
-274
-274
-273
-273
-273
-272
-272
-271
-270
-270
-270
-269
-268
-267
-267
-266
-265
-264
-264
-263
-262
-262
-261
-261
-261
-262
-263
-264
-264
-266
-267
-269
-271
-273
-275
-276
-279
-281
-284
-286
-288
-290
-291
-292
-293
-294
-293
-293
-294
-293
-293
-293
-292
-292
-291
-291
-289
-290
-288
-288
-287
-286
-284
-283
-282
-281
-280
-279
-278
-278
-277
-276
-276
-274
-274
-273
-272
-272
-271
-271
-269
-270
-269
-269
-270
-271
-272
-272
-274
-274
-274
-275
-275
-275
-275
-276
-277
-277
-278
-279
-279
-279
-278
-278
-278
-277
-278
-278
-278
-278
-278
-278
-277
-277
-277
-276
-277
-277
-277
-278
-278
-278
-277
-277
-277
-277
-276
-276
-275
-274
-275
-274
-273
-273
-272
-272
-272
-271
-271
-271
-271
-271
-271
-271
-272
-272
-271
-272
-272
-272
-273
-273
-274
-276
-276
-277
-278
-279
-278
-279
-280
-280
-281
-283
-283
-285
-285
-284
-284
-284
-285
-285
-285
-285
-284
-283
-282
-281
-281
-280
-279
-279
-278
-278
-277
-277
-276
-275
-275
-275
-275
-276
-276
-276
-276
-276
-275
-275
-275
-275
-275
-275
-275
-275
-274
-274
-275
-274
-274
-274
-274
-275
-276
-276
-276
-276
-276
-277
-277
-277
-277
-278
-278
-278
-278
-278
-278
-278
-277
-277
-277
-277
-276
-276
-276
-275
-274
-274
-273
-272
-272
-272
-272
-271
-271
-270
-271
-271
-272
-271
-272
-272
-273
-273
-273
-274
-273
-273
-274
-273
-273
-273
-273
-273
-274
-273
-273
-273
-273
-273
-274
-274
-275
-275
-276
-277
-277
-278
-279
-280
-280
-281
-281
-281
-281
-281
-280
-281
-279
-279
-278
-277
-277
-276
-275
-275
-275
-274
-274
-274
-273
-274
-274
-275
-276
-277
-278
-280
-281
-281
-282
-284
-284
-284
-284
-284
-284
-285
-285
-285
-285
-283
-283
-283
-282
-282
-280
-280
-279
-279
-278
-277
-278
-277
-276
-276
-276
-275
-276
-276
-276
-277
-277
-277
-277
-276
-277
-277
-277
-277
-278
-279
-280
-279
-279
-280
-281
-281
-281
-282
-282
-282
-282
-281
-281
-282
-281
-281
-282
-281
-281
-280
-281
-280
-280
-281
-280
-281
-281
-280
-280
-280
-279
-279
-279
-278
-278
-277
-276
-276
-275
-275
-274
-275
-275
-275
-275
-275
-275
-276
-276
-276
-277
-278
-279
-281
-282
-283
-284
-286
-287
-287
-288
-288
-289
-289
-289
-289
-289
-290
-289
-289
-288
-287
-286
-286
-285
-285
-285
-284
-284
-284
-284
-285
-285
-286
-286
-287
-287
-288
-288
-289
-289
-290
-290
-290
-291
-291
-290
-291
-290
-290
-289
-289
-289
-288
-287
-286
-286
-285
-284
-283
-283
-283
-282
-282
-281
-281
-280
-280
-279
-279
-279
-278
-279
-279
-279
-278
-278
-278
-278
-278
-279
-278
-279
-279
-280
-280
-281
-281
-281
-281
-282
-283
-282
-283
-283
-283
-284
-284
-284
-284
-284
-284
-283
-282
-283
-282
-282
-282
-282
-281
-280
-280
-279
-278
-278
-277
-277
-277
-275
-275
-275
-274
-273
-272
-272
-271
-270
-269
-269
-268
-268
-268
-267
-266
-266
-266
-266
-265
-266
-265
-266
-265
-266
-266
-266
-266
-266
-267
-268
-268
-269
-270
-269
-271
-271
-271
-271
-273
-273
-274
-274
-273
-274
-274
-273
-273
-274
-274
-274
-274
-273
-273
-273
-273
-271
-271
-271
-270
-270
-270
-270
-270
-271
-272
-273
-274
-276
-277
-278
-280
-282
-284
-286
-288
-290
-292
-294
-295
-298
-299
-300
-303
-304
-305
-307
-307
-308
-308
-308
-308
-308
-308
-309
-309
-309
-307
-308
-307
-306
-305
-305
-305
-304
-304
-303
-302
-301
-300
-298
-297
-296
-294
-294
-293
-292
-292
-291
-292
-292
-292
-293
-293
-294
-295
-296
-298
-300
-301
-302
-303
-305
-306
-307
-308
-309
-309
-309
-309
-306
-304
-301
-298
-294
-290
-285
-280
-274
-268
-261
-254
-246
-238
-229
-220
-210
-199
-189
-179
-168
-157
-147
-136
-126
-117
-108
-99
-91
-84
-78
-72
-69
-66
-65
-65
-67
-70
-75
-80
-87
-94
-102
-112
-121
-131
-142
-154
-165
-176
-187
-199
-210
-220
-229
-238
-248
-257
-264
-272
-279
-285
-291
-297
-301
-306
-310
-313
-316
-318
-321
-322
-325
-326
-326
-326
-326
-326
-326
-326
-326
-325
-324
-323
-323
-321
-321
-321
-321
-321
-321
-320
-321
-320
-319
-319
-319
-318
-317
-316
-316
-315
-314
-313
-312
-310
-310
-308
-306
-304
-303
-301
-300
-299
-298
-297
-296
-296
-295
-295
-295
-295
-296
-295
-296
-296
-297
-297
-298
-298
-299
-299
-300
-301
-301
-300
-301
-302
-301
-302
-301
-301
-300
-300
-299
-299
-299
-299
-300
-299
-300
-300
-299
-300
-300
-299
-300
-300
-301
-301
-301
-302
-302
-302
-303
-302
-302
-301
-300
-299
-299
-299
-298
-298
-297
-298
-297
-296
-296
-296
-295
-295
-295
-295
-294
-296
-296
-296
-297
-297
-297
-299
-299
-300
-300
-300
-301
-301
-301
-302
-302
-302
-302
-302
-302
-303
-302
-302
-301
-301
-300
-300
-300
-300
-299
-299
-299
-298
-298
-297
-296
-296
-295
-294
-293
-293
-292
-292
-291
-291
-291
-290
-291
-290
-290
-289
-290
-289
-290
-290
-290
-290
-291
-290
-291
-292
-292
-293
-294
-295
-295
-295
-296
-297
-297
-297
-298
-298
-298
-297
-298
-297
-297
-297
-296
-296
-295
-295
-295
-295
-295
-295
-294
-294
-294
-294
-293
-292
-291
-291
-290
-290
-290
-290
-290
-290
-290
-289
-289
-288
-287
-288
-288
-289
-290
-289
-289
-290
-290
-291
-291
-292
-293
-294
-295
-295
-295
-295
-294
-294
-293
-293
-293
-292
-292
-291
-289
-289
-289
-288
-287
-286
-285
-284
-283
-283
-282
-281
-280
-280
-280
-281
-281
-281
-281
-280
-281
-281
-281
-281
-282
-281
-282
-282
-282
-282
-282
-283
-283
-283
-282
-283
-282
-282
-281
-281
-280
-281
-280
-280
-279
-279
-278
-278
-278
-277
-277
-276
-276
-276
-275
-275
-274
-274
-273
-274
-273
-274
-274
-273
-273
-273
-272
-271
-270
-270
-270
-269
-269
-269
-269
-269
-269
-268
-268
-267
-267
-266
-267
-266
-265
-265
-265
-264
-264
-265
-264
-264
-265
-264
-265
-265
-265
-266
-266
-267
-268
-268
-269
-269
-270
-270
-269
-269
-269
-270
-270
-269
-269
-268
-267
-267
-265
-265
-264
-264
-263
-262
-263
-262
-262
-261
-260
-259
-259
-259
-259
-260
-260
-260
-261
-261
-261
-262
-262
-262
-262
-262
-263
-263
-264
-263
-263
-263
-262
-262
-262
-262
-261
-262
-261
-262
-262
-262
-262
-263
-264
-264
-266
-267
-267
-269
-270
-271
-272
-274
-275
-276
-277
-278
-278
-279
-280
-281
-281
-282
-283
-283
-282
-283
-282
-283
-284
-284
-284
-285
-285
-286
-286
-287
-288
-288
-288
-289
-290
-291
-291
-291
-292
-292
-292
-292
-292
-292
-291
-290
-290
-289
-288
-287
-287
-286
-285
-284
-284
-284
-284
-283
-284
-283
-284
-283
-284
-285
-286
-286
-287
-288
-289
-289
-290
-291
-291
-292
-293
-293
-293
-293
-294
-294
-294
-294
-294
-294
-294
-294
-294
-294
-293
-294
-294
-294
-294
-294
-295
-295
-295
-295
-294
-294
-294
-294
-294
-293
-292
-292
-291
-290
-289
-288
-286
-285
-284
-283
-282
-281
-279
-279
-279
-279
-280
-280
-281
-281
-282
-283
-284
-286
-287
-290
-291
-293
-295
-297
-298
-298
-300
-300
-301
-301
-301
-301
-300
-300
-300
-299
-298
-297
-297
-296
-296
-295
-294
-294
-293
-292
-292
-291
-291
-291
-290
-290
-290
-290
-290
-289
-289
-289
-288
-287
-288
-288
-287
-287
-286
-285
-285
-284
-284
-283
-283
-282
-281
-280
-280
-280
-279
-277
-276
-275
-275
-275
-275
-274
-274
-274
-273
-273
-273
-273
-273
-273
-274
-274
-274
-274
-275
-275
-275
-276
-276
-276
-277
-277
-277
-278
-278
-279
-279
-280
-280
-280
-281
-282
-283
-283
-284
-285
-286
-287
-287
-287
-288
-288
-288
-288
-288
-287
-286
-286
-285
-284
-283
-282
-281
-280
-279
-278
-277
-277
-275
-275
-274
-274
-273
-272
-272
-272
-272
-272
-272
-272
-271
-271
-271
-270
-270
-271
-271
-271
-271
-271
-270
-270
-270
-270
-269
-269
-269
-268
-268
-268
-268
-268
-268
-268
-268
-267
-267
-268
-268
-268
-268
-268
-269
-269
-269
-269
-269
-270
-271
-271
-271
-271
-271
-272
-271
-272
-272
-271
-270
-271
-271
-270
-270
-269
-269
-268
-268
-268
-267
-266
-265
-265
-264
-263
-262
-262
-260
-260
-260
-259
-259
-259
-258
-258
-259
-259
-260
-260
-262
-262
-263
-264
-266
-267
-269
-270
-271
-273
-274
-275
-275
-276
-275
-276
-276
-275
-275
-274
-274
-272
-272
-271
-270
-269
-268
-267
-267
-265
-265
-264
-264
-265
-265
-266
-266
-267
-268
-267
-268
-268
-269
-269
-270
-269
-270
-270
-269
-270
-270
-271
-271
-270
-270
-270
-270
-270
-270
-270
-270
-270
-269
-270
-270
-270
-271
-272
-271
-271
-271
-271
-271
-271
-270
-271
-271
-271
-271
-271
-271
-270
-269
-268
-268
-267
-266
-266
-264
-263
-263
-261
-260
-259
-258
-256
-256
-254
-254
-253
-254
-254
-253
-253
-254
-254
-255
-256
-256
-258
-258
-260
-260
-262
-263
-264
-264
-265
-267
-267
-268
-269
-269
-269
-269
-269
-269
-268
-268
-268
-268
-268
-267
-266
-266
-266
-265
-265
-265
-264
-264
-264
-263
-263
-262
-262
-261
-261
-261
-262
-261
-261
-260
-260
-260
-259
-259
-258
-258
-257
-256
-255
-255
-254
-254
-253
-252
-252
-252
-251
-251
-251
-251
-252
-253
-253
-254
-254
-255
-256
-256
-258
-258
-258
-259
-260
-261
-262
-262
-263
-262
-262
-262
-263
-263
-262
-262
-260
-261
-260
-259
-259
-258
-257
-257
-256
-255
-255
-254
-253
-253
-252
-252
-251
-250
-249
-247
-246
-244
-243
-243
-244
-244
-245
-248
-250
-251
-253
-255
-257
-259
-260
-263
-265
-267
-269
-270
-272
-273
-274
-274
-275
-274
-272
-271
-270
-268
-266
-264
-262
-260
-259
-258
-256
-256
-254
-253
-252
-252
-252
-252
-251
-251
-251
-251
-250
-250
-250
-250
-250
-250
-251
-250
-251
-251
-250
-250
-250
-250
-250
-249
-248
-248
-246
-246
-245
-245
-244
-244
-242
-242
-241
-240
-239
-240
-240
-240
-240
-241
-242
-242
-244
-245
-246
-247
-248
-251
-251
-253
-254
-256
-257
-257
-258
-259
-259
-260
-260
-261
-261
-261
-261
-259
-259
-258
-258
-257
-257
-256
-256
-256
-255
-255
-254
-254
-253
-252
-252
-251
-250
-250
-249
-248
-248
-248
-247
-246
-246
-246
-246
-246
-246
-246
-245
-245
-245
-245
-245
-246
-246
-246
-246
-246
-246
-246
-245
-246
-245
-245
-244
-243
-243
-242
-241
-241
-240
-240
-239
-239
-239
-238
-236
-236
-235
-235
-234
-234
-234
-234
-233
-234
-233
-233
-234
-233
-234
-234
-235
-235
-236
-238
-239
-239
-240
-241
-243
-244
-246
-248
-250
-251
-252
-253
-255
-255
-257
-257
-257
-258
-258
-259
-259
-259
-257
-257
-255
-254
-252
-251
-249
-248
-246
-244
-243
-242
-240
-239
-237
-236
-235
-234
-233
-232
-232
-232
-232
-234
-234
-234
-236
-237
-237
-238
-239
-240
-240
-241
-243
-244
-245
-246
-246
-246
-247
-247
-246
-246
-246
-245
-244
-243
-243
-242
-241
-241
-240
-239
-238
-238
-237
-236
-235
-234
-233
-234
-233
-233
-232
-232
-232
-232
-232
-231
-231
-229
-229
-228
-227
-226
-224
-223
-222
-220
-219
-217
-215
-214
-214
-214
-213
-213
-212
-212
-211
-211
-212
-213
-213
-215
-216
-217
-218
-219
-220
-221
-222
-222
-223
-223
-222
-222
-222
-222
-221
-220
-221
-220
-220
-219
-218
-217
-217
-216
-215
-216
-216
-215
-216
-216
-215
-215
-216
-216
-216
-215
-215
-214
-214
-213
-214
-214
-214
-214
-214
-214
-215
-214
-214
-214
-214
-214
-214
-215
-215
-216
-216
-216
-217
-217
-217
-217
-217
-217
-217
-217
-218
-218
-218
-218
-219
-219
-219
-220
-220
-222
-221
-222
-222
-223
-224
-223
-223
-223
-223
-222
-221
-221
-220
-220
-220
-221
-221
-222
-222
-222
-222
-223
-225
-227
-228
-230
-232
-233
-235
-237
-238
-240
-241
-242
-243
-244
-245
-246
-246
-246
-245
-245
-244
-244
-242
-242
-242
-241
-240
-240
-240
-239
-239
-239
-239
-237
-238
-237
-236
-236
-235
-234
-232
-231
-229
-227
-225
-222
-219
-216
-212
-207
-202
-196
-190
-184
-176
-169
-160
-152
-143
-133
-123
-113
-101
-91
-80
-69
-58
-48
-37
-28
-19
-11
-4
2
8
12
15
16
16
14
12
8
2
-4
-11
-18
-28
-38
-48
-59
-70
-81
-93
-104
-115
-127
-137
-147
-156
-166
-174
-182
-190
-196
-203
-208
-214
-218
-222
-226
-229
-232
-234
-236
-238
-239
-240
-241
-242
-241
-241
-241
-240
-240
-238
-238
-238
-237
-237
-236
-235
-234
-233
-232
-231
-231
-230
-229
-228
-227
-227
-225
-223
-223
-221
-220
-218
-217
-217
-215
-214
-213
-211
-210
-210
-210
-208
-209
-208
-208
-208
-208
-207
-208
-207
-207
-207
-207
-208
-207
-207
-207
-206
-206
-205
-205
-204
-203
-203
-202
-202
-201
-202
-201
-201
-200
-200
-198
-198
-198
-198
-198
-198
-198
-199
-198
-199
-199
-199
-199
-198
-198
-198
-198
-198
-197
-198
-198
-199
-199
-200
-199
-199
-199
-198
-198
-198
-197
-197
-197
-197
-198
-198
-197
-197
-196
-195
-195
-194
-193
-192
-191
-190
-190
-189
-189
-189
-188
-188
-188
-187
-187
-188
-187
-187
-186
-187
-187
-188
-188
-188
-188
-188
-188
-188
-188
-189
-188
-188
-188
-187
-188
-187
-187
-186
-187
-187
-186
-186
-186
-186
-186
-185
-185
-185
-185
-185
-185
-185
-185
-185
-185
-185
-185
-184
-184
-184
-184
-184
-184
-184
-183
-184
-184
-184
-184
-184
-184
-184
-183
-183
-182
-181
-181
-180
-179
-178
-178
-177
-176
-175
-174
-174
-173
-172
-172
-171
-171
-171
-172
-172
-173
-173
-173
-173
-173
-174
-175
-176
-177
-177
-177
-177
-178
-177
-178
-177
-177
-177
-176
-175
-175
-175
-173
-172
-171
-170
-170
-168
-167
-166
-165
-164
-162
-161
-160
-160
-160
-160
-160
-160
-160
-160
-160
-160
-160
-161
-162
-163
-163
-164
-164
-165
-166
-167
-166
-167
-167
-166
-166
-165
-164
-164
-163
-162
-162
-161
-161
-161
-161
-160
-161
-161
-161
-160
-161
-160
-160
-161
-161
-161
-161
-161
-160
-160
-160
-159
-159
-158
-158
-157
-156
-155
-154
-154
-153
-152
-151
-150
-150
-149
-149
-148
-147
-146
-146
-145
-145
-144
-143
-142
-142
-141
-140
-139
-139
-138
-138
-138
-137
-137
-137
-137
-136
-135
-135
-135
-135
-135
-136
-136
-136
-136
-137
-137
-138
-138
-138
-138
-138
-139
-139
-139
-139
-140
-139
-139
-138
-138
-138
-137
-136
-136
-135
-135
-135
-134
-134
-134
-133
-133
-133
-131
-132
-130
-130
-129
-130
-130
-129
-129
-129
-128
-129
-128
-129
-129
-130
-130
-131
-131
-132
-133
-134
-135
-135
-136
-137
-138
-138
-139
-139
-140
-139
-140
-139
-139
-139
-139
-138
-138
-138
-138
-138
-138
-138
-138
-137
-138
-138
-138
-138
-139
-139
-140
-141
-142
-143
-143
-143
-144
-145
-146
-147
-148
-149
-149
-151
-151
-152
-152
-153
-154
-155
-156
-157
-157
-159
-159
-160
-160
-160
-160
-159
-159
-160
-159
-158
-158
-158
-158
-157
-157
-156
-155
-155
-154
-154
-153
-152
-152
-152
-152
-151
-152
-153
-153
-153
-154
-154
-155
-156
-156
-156
-157
-159
-159
-160
-162
-163
-163
-164
-164
-164
-165
-164
-165
-164
-164
-164
-163
-162
-161
-160
-159
-158
-157
-157
-156
-155
-154
-154
-153
-152
-152
-151
-151
-151
-152
-153
-153
-153
-154
-155
-155
-155
-156
-157
-157
-158
-158
-159
-159
-159
-158
-159
-159
-159
-159
-160
-159
-159
-160
-160
-160
-161
-161
-161
-161
-162
-163
-163
-164
-164
-164
-164
-164
-164
-163
-163
-163
-163
-162
-162
-162
-161
-160
-160
-160
-160
-160
-160
-160
-160
-160
-160
-160
-160
-160
-161
-161
-162
-162
-162
-162
-162
-162
-162
-162
-161
-161
-161
-161
-160
-160
-160
-159
-159
-159
-159
-160
-160
-160
-160
-161
-160
-160
-160
-160
-160
-160
-160
-160
-160
-160
-160
-159
-159
-158
-157
-157
-156
-156
-155
-156
-155
-155
-155
-155
-155
-155
-155
-155
-154
-154
-154
-155
-155
-155
-155
-155
-155
-156
-155
-155
-156
-156
-156
-155
-156
-155
-155
-156
-156
-156
-155
-156
-156
-156
-155
-156
-156
-156
-156
-156
-157
-158
-158
-158
-159
-160
-161
-162
-162
-163
-163
-163
-163
-164
-164
-164
-164
-165
-165
-164
-164
-164
-163
-163
-161
-161
-160
-159
-159
-159
-158
-158
-158
-157
-157
-157
-157
-156
-157
-157
-158
-158
-158
-159
-160
-161
-161
-161
-162
-162
-162
-162
-163
-163
-163
-163
-164
-164
-165
-165
-165
-166
-166
-166
-166
-166
-166
-167
-167
-168
-167
-168
-167
-168
-168
-167
-168
-168
-167
-167
-168
-167
-167
-168
-168
-168
-167
-168
-168
-169
-169
-169
-169
-169
-168
-169
-169
-168
-168
-168
-168
-167
-167
-167
-166
-165
-165
-165
-166
-165
-166
-166
-166
-167
-168
-169
-170
-171
-172
-174
-175
-177
-179
-180
-180
-181
-182
-182
-183
-182
-183
-182
-182
-182
-181
-182
-181
-180
-179
-178
-178
-177
-178
-177
-177
-177
-176
-176
-177
-176
-176
-177
-177
-177
-177
-178
-179
-179
-181
-181
-182
-184
-184
-185
-185
-186
-186
-187
-188
-187
-188
-188
-188
-188
-187
-187
-186
-185
-185
-184
-184
-183
-183
-182
-182
-182
-183
-183
-183
-184
-184
-183
-184
-184
-185
-185
-185
-185
-186
-186
-187
-187
-188
-187
-187
-187
-187
-188
-188
-187
-187
-188
-188
-188
-188
-189
-189
-188
-188
-188
-188
-187
-187
-187
-186
-186
-185
-186
-185
-184
-184
-185
-184
-184
-184
-184
-185
-185
-186
-186
-187
-187
-187
-187
-187
-187
-188
-188
-187
-187
-188
-187
-187
-186
-186
-185
-184
-185
-185
-184
-185
-184
-184
-184
-185
-186
-186
-187
-187
-187
-188
-188
-188
-188
-188
-188
-188
-188
-188
-188
-189
-189
-189
-188
-189
-188
-188
-188
-188
-188
-188
-189
-190
-191
-191
-193
-193
-193
-193
-194
-194
-194
-194
-195
-195
-195
-194
-193
-193
-193
-192
-192
-192
-193
-193
-195
-195
-196
-197
-199
-199
-201
-201
-202
-202
-203
-204
-205
-206
-207
-206
-207
-205
-205
-204
-202
-201
-200
-199
-198
-197
-196
-195
-195
-195
-194
-194
-194
-193
-194
-193
-193
-193
-194
-193
-193
-194
-194
-194
-194
-195
-195
-195
-195
-195
-195
-195
-195
-195
-194
-193
-193
-193
-192
-192
-193
-192
-192
-191
-191
-190
-191
-191
-192
-193
-194
-195
-197
-197
-198
-199
-200
-201
-202
-203
-205
-205
-206
-207
-208
-209
-208
-208
-209
-208
-207
-207
-206
-205
-204
-203
-202
-201
-201
-199
-199
-198
-198
-197
-196
-195
-196
-195
-195
-194
-194
-194
-195
-194
-195
-194
-194
-194
-194
-194
-194
-194
-195
-195
-195
-196
-196
-198
-197
-198
-199
-200
-199
-200
-201
-200
-201
-201
-201
-201
-201
-201
-201
-201
-202
-201
-202
-202
-202
-202
-203
-203
-204
-205
-205
-206
-207
-207
-208
-208
-209
-210
-211
-211
-212
-212
-212
-212
-212
-211
-211
-211
-210
-209
-208
-207
-207
-206
-206
-205
-204
-203
-203
-202
-201
-200
-200
-199
-199
-199
-199
-199
-199
-199
-199
-199
-199
-200
-200
-200
-201
-201
-202
-202
-202
-203
-203
-204
-203
-204
-204
-205
-204
-204
-203
-204
-203
-202
-202
-202
-201
-201
-201
-200
-200
-200
-200
-199
-199
-198
-198
-198
-197
-196
-195
-194
-194
-193
-192
-190
-189
-187
-186
-184
-183
-182
-182
-180
-180
-179
-178
-178
-178
-179
-180
-182
-183
-183
-184
-185
-187
-188
-189
-191
-193
-194
-196
-196
-197
-197
-198
-198
-198
-198
-197
-198
-198
-197
-196
-196
-196
-195
-194
-193
-193
-192
-191
-190
-190
-189
-188
-187
-186
-186
-184
-184
-183
-183
-182
-182
-182
-181
-182
-182
-182
-182
-182
-182
-182
-182
-182
-183
-184
-184
-184
-185
-185
-185
-186
-186
-186
-188
-188
-189
-190
-191
-192
-193
-194
-194
-195
-195
-195
-196
-196
-197
-198
-200
-202
-202
-202
-203
-205
-204
-206
-206
-208
-209
-210
-210
-212
-213
-214
-216
-216
-217
-218
-219
-219
-220
-220
-219
-220
-220
-219
-220
-220
-220
-219
-219
-218
-218
-218
-218
-217
-218
-217
-217
-217
-217
-217
-217
-216
-215
-216
-215
-215
-214
-213
-212
-210
-209
-206
-204
-202
-200
-196
-193
-190
-185
-180
-175
-167
-160
-153
-145
-136
-127
-117
-108
-98
-87
-76
-65
-54
-42
-32
-21
-11
-2
6
14
20
25
28
31
32
32
30
26
22
15
9
1
-7
-17
-28
-39
-50
-62
-73
-85
-95
-106
-117
-126
-136
-146
-154
-162
-171
-178
-184
-191
-196
-202
-207
-212
-216
-221
-224
-227
-230
-232
-234
-236
-237
-238
-238
-239
-239
-240
-240
-238
-238
-236
-235
-234
-231
-230
-228
-226
-224
-224
-223
-223
-222
-221
-220
-219
-217
-217
-215
-214
-213
-213
-212
-211
-210
-210
-208
-208
-207
-206
-205
-205
-204
-203
-202
-202
-201
-200
-200
-201
-201
-200
-200
-202
-201
-202
-202
-203
-203
-204
-205
-206
-206
-206
-206
-206
-206
-206
-206
-206
-206
-205
-204
-204
-204
-204
-203
-203
-203
-203
-202
-203
-202
-202
-203
-203
-203
-204
-203
-203
-203
-204
-203
-203
-204
-204
-203
-203
-203
-202
-203
-202
-202
-201
-201
-201
-201
-201
-201
-201
-201
-201
-201
-200
-201
-200
-200
-199
-199
-199
-199
-199
-199
-199
-199
-198
-198
-198
-197
-197
-198
-198
-197
-198
-198
-199
-199
-199
-200
-200
-200
-200
-200
-200
-201
-201
-202
-201
-201
-202
-202
-201
-202
-202
-202
-202
-203
-202
-203
-202
-202
-202
-202
-202
-203
-203
-203
-202
-202
-201
-201
-201
-200
-200
-200
-200
-199
-200
-200
-200
-200
-201
-200
-200
-201
-200
-201
-202
-202
-202
-202
-202
-202
-202
-202
-202
-202
-202
-202
-202
-202
-201
-201
-201
-200
-199
-199
-200
-199
-199
-199
-198
-198
-198
-198
-198
-198
-197
-197
-197
-197
-197
-196
-196
-197
-196
-196
-197
-196
-197
-196
-197
-197
-195
-195
-194
-193
-193
-193
-193
-192
-193
-192
-192
-192
-193
-192
-193
-193
-194
-194
-193
-194
-195
-195
-195
-196
-197
-197
-198
-198
-198
-197
-197
-196
-194
-194
-192
-192
-192
-191
-190
-189
-188
-188
-188
-187
-187
-187
-188
-188
-188
-189
-190
-190
-190
-191
-192
-192
-192
-193
-193
-192
-193
-193
-193
-193
-192
-191
-191
-191
-190
-190
-190
-189
-189
-188
-188
-187
-186
-185
-185
-185
-183
-183
-182
-182
-181
-182
-181
-180
-180
-179
-179
-179
-179
-179
-178
-178
-177
-177
-177
-176
-176
-177
-177
-177
-176
-175
-174
-174
-173
-173
-172
-173
-173
-172
-172
-172
-172
-173
-173
-173
-173
-173
-175
-175
-175
-176
-177
-178
-179
-180
-181
-181
-182
-182
-183
-183
-183
-184
-184
-184
-184
-184
-183
-182
-182
-181
-182
-182
-182
-182
-182
-182
-181
-181
-182
-181
-182
-182
-182
-182
-182
-182
-182
-183
-182
-182
-182
-183
-183
-184
-185
-185
-185
-186
-186
-187
-188
-189
-190
-191
-193
-195
-197
-197
-199
-201
-201
-203
-204
-205
-206
-207
-207
-208
-208
-208
-208
-208
-208
-208
-208
-207
-207
-207
-207
-207
-206
-207
-206
-207
-207
-206
-207
-207
-207
-207
-208
-207
-207
-208
-208
-208
-208
-209
-210
-210
-210
-211
-210
-210
-209
-209
-209
-208
-208
-208
-208
-207
-207
-206
-206
-205
-206
-205
-205
-206
-205
-207
-207
-208
-209
-209
-211
-213
-214
-215
-217
-218
-218
-219
-221
-221
-222
-224
-225
-225
-226
-226
-227
-227
-228
-228
-228
-229
-229
-229
-229
-228
-228
-228
-227
-228
-227
-227
-226
-226
-226
-226
-226
-226
-226
-226
-225
-224
-224
-224
-224
-224
-223
-224
-224
-223
-223
-223
-223
-222
-222
-222
-221
-221
-220
-220
-220
-219
-220
-219
-219
-219
-219
-219
-219
-219
-219
-219
-219
-219
-219
-219
-220
-219
-220
-219
-219
-219
-219
-220
-219
-219
-219
-219
-219
-219
-219
-219
-218
-218
-218
-219
-218
-218
-218
-218
-217
-217
-216
-216
-216
-215
-215
-214
-214
-213
-213
-213
-212
-211
-211
-211
-210
-210
-210
-210
-210
-210
-211
-211
-211
-212
-213
-213
-214
-214
-215
-216
-217
-218
-219
-221
-221
-222
-223
-224
-225
-225
-225
-226
-225
-225
-225
-224
-223
-222
-222
-222
-221
-221
-220
-219
-219
-218
-217
-216
-215
-215
-215
-214
-215
-215
-215
-214
-214
-215
-215
-215
-215
-215
-215
-215
-215
-215
-215
-216
-217
-218
-218
-218
-218
-218
-217
-217
-217
-217
-217
-217
-217
-218
-218
-218
-218
-218
-218
-217
-218
-218
-217
-218
-217
-217
-218
-218
-217
-217
-216
-216
-216
-217
-217
-218
-217
-217
-217
-217
-217
-217
-218
-218
-218
-218
-218
-218
-218
-218
-218
-218
-218
-218
-218
-217
-218
-218
-218
-218
-219
-219
-219
-220
-221
-221
-222
-222
-223
-224
-225
-224
-225
-226
-226
-226
-227
-227
-227
-226
-225
-225
-225
-224
-224
-223
-223
-223
-223
-223
-222
-223
-223
-223
-223
-223
-223
-224
-224
-224
-224
-225
-225
-225
-225
-224
-225
-225
-225
-225
-225
-225
-224
-224
-225
-224
-224
-224
-224
-222
-222
-222
-222
-222
-222
-221
-222
-222
-222
-222
-222
-222
-223
-224
-225
-227
-228
-228
-228
-228
-229
-228
-229
-230
-231
-230
-231
-231
-231
-231
-231
-230
-230
-229
-228
-228
-227
-227
-227
-226
-226
-226
-225
-225
-225
-224
-224
-223
-222
-222
-221
-221
-221
-221
-222
-221
-221
-221
-221
-222
-222
-223
-223
-224
-224
-225
-225
-225
-225
-225
-225
-225
-225
-226
-225
-224
-224
-224
-223
-223
-222
-222
-222
-222
-222
-222
-222
-222
-222
-222
-223
-223
-224
-224
-225
-226
-227
-227
-228
-228
-228
-228
-229
-229
-229
-228
-228
-228
-227
-227
-227
-226
-225
-223
-223
-222
-221
-221
-220
-220
-219
-219
-218
-219
-218
-218
-218
-218
-218
-218
-218
-218
-219
-220
-221
-222
-223
-224
-225
-225
-226
-226
-227
-227
-227
-228
-229
-229
-228
-228
-228
-227
-228
-227
-226
-226
-225
-224
-222
-221
-220
-219
-218
-218
-217
-216
-216
-215
-215
-214
-213
-212
-212
-212
-211
-211
-210
-210
-209
-208
-207
-207
-207
-207
-207
-206
-206
-207
-206
-206
-205
-205
-205
-204
-204
-204
-203
-203
-203
-202
-201
-201
-201
-201
-200
-199
-199
-198
-197
-197
-197
-197
-197
-197
-196
-197
-196
-197
-197
-196
-197
-197
-197
-196
-196
-196
-197
-196
-196
-197
-196
-196
-196
-196
-195
-194
-194
-193
-192
-192
-191
-191
-191
-191
-191
-192
-190
-190
-190
-189
-188
-187
-187
-187
-187
-186
-185
-186
-185
-186
-186
-187
-187
-187
-187
-188
-188
-188
-189
-190
-191
-192
-193
-194
-195
-196
-196
-196
-196
-196
-195
-195
-195
-194
-193
-193
-193
-192
-191
-190
-190
-189
-189
-188
-188
-189
-188
-188
-188
-188
-188
-188
-188
-188
-188
-188
-188
-187
-186
-187
-186
-185
-185
-185
-184
-184
-184
-184
-183
-182
-182
-181
-180
-180
-180
-179
-179
-179
-179
-178
-178
-178
-178
-178
-177
-177
-176
-176
-176
-176
-176
-176
-176
-176
-176
-176
-176
-177
-177
-177
-178
-178
-179
-179
-179
-179
-180
-181
-182
-183
-183
-183
-184
-183
-183
-183
-182
-183
-183
-183
-183
-183
-182
-181
-180
-180
-179
-178
-177
-177
-176
-174
-173
-171
-170
-169
-168
-167
-167
-167
-167
-167
-167
-167
-168
-168
-169
-170
-171
-172
-174
-175
-176
-177
-179
-181
-182
-183
-184
-184
-184
-185
-185
-185
-185
-184
-184
-184
-184
-184
-184
-184
-183
-183
-182
-181
-181
-180
-180
-179
-178
-177
-176
-175
-175
-173
-173
-172
-171
-170
-170
-169
-168
-167
-167
-166
-166
-165
-165
-165
-164
-164
-163
-163
-163
-162
-162
-162
-162
-162
-161
-161
-160
-160
-160
-159
-159
-158
-157
-158
-157
-157
-157
-157
-157
-158
-158
-157
-158
-157
-158
-159
-160
-161
-161
-162
-162
-164
-164
-164
-165
-166
-167
-167
-167
-168
-168
-167
-167
-166
-167
-167
-166
-167
-166
-166
-166
-165
-165
-165
-164
-163
-163
-162
-162
-162
-162
-162
-162
-162
-162
-163
-163
-164
-165
-166
-167
-168
-169
-171
-174
-176
-178
-180
-182
-184
-185
-187
-189
-190
-192
-193
-194
-195
-196
-196
-197
-197
-197
-197
-196
-197
-196
-196
-195
-195
-194
-194
-193
-192
-191
-192
-191
-191
-192
-192
-192
-192
-192
-192
-193
-194
-195
-196
-197
-198
-199
-200
-201
-201
-201
-202
-202
-202
-203
-203
-203
-203
-203
-203
-203
-203
-203
-202
-200
-200
-198
-196
-194
-192
-190
-187
-185
-182
-180
-175
-172
-167
-162
-156
-149
-142
-134
-126
-117
-107
-97
-87
-76
-65
-54
-42
-31
-19
-8
2
13
22
30
37
43
48
52
54
55
53
51
47
42
34
27
18
8
-3
-14
-25
-38
-50
-61
-73
-85
-96
-108
-119
-128
-138
-148
-156
-164
-172
-178
-184
-189
-194
-198
-202
-206
-209
-211
-213
-216
-217
-218
-218
-219
-219
-218
-217
-216
-215
-214
-213
-213
-212
-211
-210
-209
-209
-208
-208
-207
-207
-207
-207
-208
-209
-209
-210
-211
-211
-211
-211
-211
-211
-210
-209
-208
-207
-206
-204
-204
-203
-202
-201
-200
-199
-199
-198
-197
-196
-196
-194
-194
-194
-194
-193
-193
-193
-192
-193
-193
-192
-192
-192
-192
-192
-191
-191
-191
-192
-192
-193
-193
-194
-194
-194
-194
-194
-193
-193
-193
-193
-192
-192
-191
-190
-190
-189
-188
-187
-185
-184
-184
-183
-182
-181
-181
-180
-180
-179
-180
-180
-179
-179
-179
-178
-178
-179
-179
-178
-179
-179
-179
-180
-179
-179
-180
-180
-180
-180
-180
-180
-180
-181
-181
-181
-180
-181
-180
-180
-180
-181
-180
-181
-181
-181
-181
-180
-180
-180
-180
-180
-181
-181
-182
-181
-181
-181
-181
-181
-181
-181
-180
-181
-180
-179
-179
-178
-177
-176
-175
-173
-173
-172
-172
-172
-171
-170
-170
-169
-169
-168
-168
-168
-168
-168
-168
-169
-170
-170
-171
-171
-172
-172
-173
-173
-173
-173
-173
-172
-173
-171
-171
-171
-170
-169
-169
-169
-167
-168
-167
-167
-166
-165
-166
-166
-167
-167
-167
-167
-167
-168
-168
-168
-168
-168
-168
-167
-168
-168
-167
-168
-167
-167
-167
-167
-166
-166
-165
-164
-163
-163
-162
-162
-161
-161
-160
-160
-160
-159
-158
-157
-156
-156
-155
-154
-154
-153
-152
-152
-150
-150
-149
-148
-148
-148
-147
-148
-148
-149
-149
-149
-149
-150
-151
-151
-151
-152
-153
-153
-155
-156
-156
-156
-157
-157
-157
-158
-158
-158
-158
-158
-159
-159
-160
-160
-159
-159
-158
-157
-156
-155
-155
-154
-153
-153
-152
-151
-149
-149
-148
-146
-145
-144
-144
-143
-144
-143
-144
-144
-145
-145
-146
-146
-147
-147
-148
-148
-148
-148
-147
-146
-146
-146
-145
-143
-141
-140
-139
-138
-137
-136
-135
-134
-132
-132
-131
-131
-130
-129
-129
-129
-129
-130
-130
-131
-131
-131
-131
-131
-131
-130
-129
-129
-128
-127
-127
-126
-126
-125
-125
-125
-124
-124
-124
-123
-123
-124
-124
-124
-125
-125
-126
-126
-126
-126
-127
-128
-129
-131
-131
-132
-133
-134
-135
-135
-136
-137
-137
-138
-138
-139
-140
-140
-141
-141
-141
-141
-142
-142
-142
-142
-143
-143
-143
-144
-143
-144
-144
-144
-145
-145
-146
-146
-146
-148
-148
-149
-149
-149
-149
-150
-150
-150
-151
-151
-152
-152
-153
-154
-154
-155
-155
-156
-157
-157
-158
-158
-157
-157
-157
-156
-156
-155
-155
-156
-156
-156
-157
-156
-156
-155
-154
-154
-154
-155
-154
-155
-155
-156
-157
-157
-158
-159
-159
-160
-159
-159
-159
-159
-159
-159
-159
-158
-158
-156
-156
-156
-155
-155
-155
-155
-156
-155
-156
-155
-156
-157
-157
-158
-158
-159
-159
-160
-161
-161
-161
-162
-162
-162
-162
-162
-162
-162
-163
-162
-163
-163
-163
-163
-163
-164
-164
-164
-165
-166
-167
-167
-168
-169
-168
-169
-169
-169
-169
-169
-170
-169
-170
-169
-168
-167
-166
-166
-165
-165
-165
-164
-164
-163
-162
-162
-162
-163
-162
-163
-164
-164
-165
-165
-166
-166
-167
-167
-167
-167
-167
-168
-168
-167
-168
-167
-168
-167
-167
-166
-166
-166
-166
-165
-165
-164
-164
-163
-162
-162
-162
-161
-161
-161
-161
-160
-161
-161
-161
-161
-161
-161
-162
-162
-163
-163
-163
-164
-164
-165
-165
-164
-165
-166
-166
-166
-166
-167
-166
-167
-166
-166
-166
-165
-165
-165
-165
-165
-165
-164
-164
-163
-163
-163
-163
-163
-162
-163
-161
-161
-160
-160
-160
-159
-159
-159
-160
-161
-161
-163
-163
-164
-165
-166
-167
-168
-169
-170
-173
-173
-175
-175
-176
-178
-178
-179
-179
-178
-177
-176
-174
-174
-174
-174
-173
-172
-171
-170
-169
-168
-167
-166
-164
-164
-164
-163
-163
-163
-162
-161
-160
-159
-159
-159
-158
-159
-158
-158
-158
-158
-158
-160
-160
-161
-162
-164
-165
-166
-167
-168
-170
-170
-172
-172
-174
-174
-175
-176
-176
-177
-177
-177
-177
-177
-177
-176
-176
-175
-174
-174
-172
-172
-171
-172
-171
-171
-171
-171
-170
-170
-170
-169
-169
-168
-168
-168
-168
-167
-166
-166
-165
-165
-164
-164
-163
-162
-161
-161
-161
-161
-161
-161
-161
-161
-162
-162
-162
-163
-164
-165
-166
-167
-169
-171
-171
-173
-174
-175
-177
-178
-179
-179
-180
-180
-181
-181
-181
-182
-182
-182
-182
-182
-181
-181
-181
-180
-179
-178
-178
-178
-177
-176
-176
-175
-174
-174
-173
-173
-173
-172
-171
-171
-171
-171
-171
-171
-171
-171
-171
-171
-171
-171
-171
-170
-170
-170
-171
-171
-172
-172
-173
-174
-175
-175
-176
-177
-178
-179
-180
-182
-183
-185
-186
-187
-188
-189
-190
-190
-190
-191
-190
-190
-190
-190
-188
-188
-186
-186
-185
-184
-183
-182
-182
-181
-180
-180
-179
-178
-177
-177
-176
-174
-173
-173
-172
-172
-173
-173
-174
-175
-174
-175
-176
-176
-177
-178
-180
-181
-183
-185
-186
-188
-190
-192
-193
-194
-195
-196
-197
-198
-197
-198
-198
-198
-197
-197
-197
-197
-196
-195
-196
-196
-195
-195
-194
-194
-193
-193
-192
-192
-192
-191
-191
-191
-190
-190
-191
-191
-191
-191
-191
-191
-190
-189
-190
-189
-190
-190
-190
-191
-191
-191
-191
-191
-191
-191
-191
-191
-191
-191
-190
-190
-191
-191
-191
-191
-191
-192
-193
-192
-193
-193
-193
-194
-193
-193
-194
-193
-194
-194
-193
-193
-193
-193
-192
-192
-191
-191
-191
-192
-193
-194
-194
-195
-195
-196
-196
-198
-199
-200
-201
-202
-203
-204
-205
-206
-206
-206
-207
-206
-206
-205
-205
-203
-203
-202
-201
-200
-199
-197
-196
-195
-193
-193
-192
-192
-192
-192
-193
-194
-195
-195
-196
-198
-198
-199
-201
-202
-204
-205
-206
-207
-209
-209
-210
-211
-212
-212
-212
-212
-212
-213
-212
-212
-212
-211
-211
-211
-211
-210
-210
-210
-210
-209
-209
-208
-207
-206
-206
-206
-206
-206
-205
-205
-204
-202
-202
-201
-201
-199
-199
-197
-197
-197
-197
-197
-197
-198
-198
-198
-199
-198
-199
-201
-202
-204
-206
-207
-208
-210
-211
-212
-214
-214
-215
-216
-215
-216
-216
-216
-216
-215
-213
-213
-211
-210
-210
-210
-210
-209
-209
-210
-209
-209
-210
-210
-211
-211
-212
-213
-214
-215
-216
-216
-217
-217
-217
-217
-217
-216
-216
-216
-216
-216
-216
-216
-216
-215
-215
-213
-213
-213
-213
-212
-212
-213
-213
-213
-213
-214
-213
-213
-213
-213
-213
-213
-213
-214
-213
-214
-214
-215
-214
-215
-214
-214
-215
-214
-215
-214
-214
-214
-214
-214
-214
-214
-214
-214
-214
-214
-214
-213
-212
-212
-212
-212
-211
-212
-211
-211
-210
-210
-210
-209
-208
-208
-208
-208
-208
-208
-208
-207
-208
-208
-207
-208
-208
-209
-209
-209
-210
-211
-211
-211
-212
-211
-212
-212
-213
-213
-213
-214
-213
-213
-214
-215
-214
-214
-213
-212
-211
-211
-210
-209
-209
-208
-207
-205
-204
-202
-201
-199
-198
-197
-195
-194
-193
-192
-192
-192
-192
-192
-192
-192
-193
-193
-193
-194
-195
-196
-197
-198
-198
-198
-200
-199
-200
-200
-200
-199
-198
-198
-197
-196
-194
-193
-191
-189
-188
-187
-186
-185
-184
-182
-181
-180
-179
-178
-177
-176
-175
-175
-174
-174
-174
-175
-175
-174
-175
-175
-176
-176
-176
-176
-176
-175
-175
-174
-175
-175
-177
-177
-178
-178
-178
-179
-180
-180
-181
-181
-182
-184
-184
-185
-186
-187
-188
-189
-190
-191
-191
-192
-191
-192
-191
-191
-191
-191
-191
-191
-191
-191
-190
-190
-190
-190
-190
-190
-191
-191
-191
-193
-194
-194
-196
-197
-198
-199
-200
-201
-202
-203
-203
-203
-202
-203
-203
-202
-202
-201
-201
-201
-200
-200
-199
-199
-198
-198
-197
-197
-197
-197
-196
-196
-196
-196
-196
-197
-197
-198
-197
-197
-198
-198
-198
-198
-199
-199
-200
-200
-201
-202
-203
-205
-206
-207
-208
-208
-208
-208
-208
-207
-206
-205
-203
-201
-199
-197
-193
-190
-186
-180
-175
-169
-160
-152
-143
-134
-125
-115
-105
-93
-82
-70
-58
-46
-34
-23
-12
-2
9
18
27
34
39
43
46
47
48
46
43
38
32
25
16
7
-4
-15
-27
-40
-52
-64
-77
-90
-101
-113
-125
-136
-146
-155
-164
-172
-179
-186
-192
-197
-202
-207
-210
-213
-215
-218
-220
-222
-223
-224
-226
-226
-227
-228
-228
-228
-227
-227
-227
-226
-225
-225
-224
-223
-223
-222
-221
-221
-220
-218
-218
-217
-216
-215
-215
-215
-214
-215
-215
-216
-216
-216
-216
-215
-214
-214
-215
-215
-215
-215
-216
-216
-216
-215
-215
-214
-213
-214
-213
-214
-213
-212
-212
-211
-210
-209
-209
-208
-208
-208
-207
-207
-207
-206
-207
-207
-208
-209
-209
-210
-211
-211
-212
-212
-214
-215
-216
-216
-217
-219
-218
-219
-219
-218
-218
-218
-218
-217
-217
-216
-215
-216
-216
-215
-216
-215
-215
-215
-214
-215
-214
-215
-215
-214
-214
-214
-213
-213
-212
-212
-211
-210
-210
-209
-208
-209
-207
-207
-206
-206
-206
-206
-206
-207
-207
-208
-208
-208
-209
-209
-210
-210
-211
-211
-212
-213
-213
-214
-215
-216
-216
-217
-218
-219
-219
-219
-221
-221
-222
-222
-223
-224
-225
-225
-226
-226
-226
-225
-224
-225
-224
-225
-224
-224
-223
-222
-222
-222
-221
-221
-220
-220
-220
-220
-219
-219
-219
-219
-219
-219
-219
-218
-218
-219
-218
-218
-218
-217
-216
-216
-215
-214
-214
-214
-214
-214
-213
-214
-213
-214
-213
-214
-213
-214
-214
-214
-215
-216
-216
-216
-217
-217
-218
-219
-220
-221
-221
-222
-222
-223
-223
-224
-224
-223
-224
-223
-222
-222
-222
-221
-221
-219
-219
-218
-217
-216
-215
-215
-215
-215
-215
-215
-215
-216
-216
-217
-217
-218
-218
-219
-220
-220
-221
-221
-221
-222
-221
-221
-220
-220
-219
-219
-218
-218
-218
-217
-216
-217
-216
-216
-217
-217
-217
-218
-217
-218
-219
-219
-219
-219
-220
-220
-219
-218
-218
-217
-217
-216
-215
-214
-213
-212
-211
-210
-209
-209
-208
-207
-207
-206
-206
-206
-205
-206
-205
-206
-207
-207
-207
-208
-208
-208
-208
-209
-210
-210
-210
-210
-209
-209
-209
-208
-208
-207
-207
-207
-206
-207
-206
-205
-205
-204
-204
-203
-203
-203
-202
-201
-200
-199
-199
-198
-197
-196
-196
-195
-195
-194
-194
-194
-194
-194
-194
-194
-194
-195
-196
-196
-197
-197
-199
-199
-200
-201
-201
-203
-203
-205
-205
-206
-207
-207
-207
-208
-208
-208
-208
-208
-208
-208
-208
-207
-208
-207
-207
-207
-207
-207
-206
-206
-205
-205
-205
-205
-205
-205
-205
-205
-206
-205
-206
-206
-207
-208
-209
-210
-211
-212
-213
-214
-215
-216
-216
-218
-219
-219
-221
-221
-221
-221
-222
-222
-223
-224
-224
-224
-225
-226
-226
-226
-227
-228
-229
-229
-230
-231
-231
-231
-231
-232
-232
-232
-233
-233
-233
-233
-232
-232
-233
-231
-232
-231
-231
-230
-231
-231
-231
-230
-230
-230
-230
-231
-231
-231
-231
-232
-233
-233
-234
-235
-235
-236
-236
-237
-238
-238
-239
-240
-241
-242
-242
-243
-243
-243
-242
-242
-241
-241
-242
-242
-242
-242
-243
-242
-243
-242
-242
-241
-241
-241
-243
-244
-245
-245
-245
-246
-246
-246
-247
-247
-248
-248
-249
-249
-250
-250
-250
-251
-250
-250
-250
-251
-250
-250
-249
-249
-249
-248
-248
-247
-247
-247
-248
-248
-247
-248
-247
-247
-247
-246
-247
-246
-246
-246
-246
-246
-245
-246
-246
-246
-246
-247
-246
-247
-247
-247
-248
-247
-247
-247
-247
-247
-247
-247
-247
-247
-247
-246
-246
-245
-244
-243
-243
-243
-242
-242
-242
-242
-241
-242
-242
-242
-243
-244
-244
-245
-245
-246
-246
-247
-248
-248
-249
-249
-250
-250
-250
-250
-250
-251
-251
-251
-251
-251
-251
-251
-251
-251
-251
-251
-251
-250
-250
-250
-250
-251
-250
-250
-250
-249
-250
-250
-250
-249
-249
-248
-249
-249
-250
-250
-252
-252
-252
-252
-253
-253
-253
-253
-253
-254
-254
-254
-254
-253
-254
-253
-252
-251
-250
-249
-248
-248
-248
-249
-248
-248
-248
-248
-248
-248
-249
-249
-250
-250
-251
-252
-253
-253
-254
-254
-254
-254
-254
-255
-254
-254
-253
-253
-253
-252
-252
-252
-252
-251
-250
-250
-249
-249
-249
-249
-248
-248
-248
-248
-248
-248
-248
-247
-246
-246
-247
-246
-246
-246
-245
-245
-246
-246
-246
-247
-247
-248
-248
-249
-249
-249
-250
-250
-250
-251
-251
-252
-252
-252
-252
-252
-253
-252
-253
-253
-252
-253
-252
-253
-253
-254
-253
-253
-253
-253
-252
-252
-251
-250
-250
-251
-250
-251
-251
-251
-251
-250
-250
-251
-251
-252
-252
-253
-254
-255
-256
-256
-257
-257
-257
-257
-257
-257
-257
-256
-257
-256
-256
-255
-256
-255
-254
-255
-254
-255
-254
-255
-255
-255
-256
-255
-256
-257
-257
-258
-259
-259
-259
-260
-260
-261
-260
-261
-261
-261
-260
-261
-260
-259
-259
-259
-258
-257
-257
-257
-256
-256
-255
-254
-253
-252
-251
-250
-250
-249
-250
-249
-248
-247
-247
-247
-246
-246
-246
-247
-248
-248
-249
-250
-250
-251
-252
-253
-253
-254
-255
-255
-257
-257
-256
-257
-256
-257
-256
-255
-255
-255
-255
-256
-255
-255
-255
-255
-256
-256
-255
-256
-256
-256
-257
-257
-258
-259
-259
-260
-260
-260
-260
-260
-259
-259
-258
-257
-256
-256
-255
-255
-253
-253
-252
-252
-252
-251
-252
-251
-251
-251
-251
-251
-251
-251
-251
-251
-250
-250
-250
-249
-249
-248
-248
-248
-248
-248
-249
-249
-250
-250
-250
-252
-253
-253
-254
-256
-258
-259
-260
-261
-261
-262
-262
-262
-263
-263
-264
-264
-263
-263
-262
-261
-260
-258
-258
-257
-256
-255
-254
-254
-254
-253
-253
-252
-252
-252
-252
-252
-251
-251
-251
-252
-252
-252
-253
-252
-253
-252
-253
-252
-252
-251
-251
-251
-250
-250
-250
-250
-250
-249
-250
-250
-249
-249
-250
-250
-250
-251
-251
-252
-253
-252
-253
-253
-253
-254
-253
-255
-254
-255
-255
-256
-256
-257
-257
-257
-257
-258
-257
-258
-258
-258
-257
-257
-257
-257
-257
-256
-256
-256
-256
-256
-255
-255
-255
-255
-255
-254
-256
-256
-255
-255
-255
-254
-255
-254
-255
-255
-255
-256
-257
-257
-257
-258
-257
-257
-257
-256
-257
-257
-257
-258
-258
-258
-259
-258
-258
-258
-258
-258
-257
-257
-257
-257
-257
-257
-256
-255
-255
-253
-251
-250
-249
-247
-246
-245
-244
-243
-243
-243
-242
-242
-242
-242
-241
-243
-243
-244
-245
-247
-248
-250
-252
-254
-256
-258
-258
-260
-261
-263
-263
-264
-265
-264
-264
-264
-264
-263
-263
-262
-261
-261
-260
-259
-259
-258
-257
-256
-255
-255
-255
-255
-255
-255
-255
-254
-254
-254
-254
-254
-254
-253
-254
-254
-254
-254
-255
-255
-255
-255
-256
-255
-256
-257
-257
-257
-257
-258
-258
-259
-259
-259
-260
-260
-260
-260
-260
-260
-260
-261
-260
-261
-260
-260
-260
-259
-259
-259
-258
-259
-259
-258
-257
-257
-257
-257
-256
-256
-255
-254
-254
-254
-252
-252
-251
-250
-249
-249
-248
-248
-247
-246
-245
-245
-244
-244
-243
-244
-244
-244
-245
-245
-245
-245
-245
-245
-245
-246
-246
-247
-247
-247
-248
-247
-247
-247
-247
-246
-246
-245
-246
-245
-246
-245
-244
-244
-243
-242
-241
-240
-240
-239
-238
-237
-236
-236
-235
-234
-233
-232
-232
-231
-231
-230
-230
-230
-230
-230
-231
-231
-231
-231
-231
-232
-232
-233
-235
-235
-236
-236
-237
-237
-238
-238
-238
-239
-239
-239
-239
-239
-239
-238
-238
-237
-236
-236
-235
-234
-234
-235
-235
-235
-235
-234
-234
-235
-235
-235
-236
-236
-236
-237
-237
-237
-238
-239
-238
-239
-239
-240
-239
-239
-240
-240
-240
-240
-240
-241
-241
-242
-242
-244
-245
-246
-247
-248
-249
-251
-251
-252
-253
-254
-255
-256
-256
-257
-259
-259
-259
-260
-261
-261
-261
-261
-262
-261
-262
-262
-262
-262
-262
-262
-263
-263
-263
-263
-263
-262
-263
-263
-262
-262
-260
-260
-259
-259
-258
-258
-257
-256
-256
-256
-256
-256
-256
-256
-255
-255
-254
-255
-255
-254
-254
-253
-252
-251
-249
-247
-244
-242
-239
-235
-231
-226
-220
-213
-207
-200
-192
-183
-174
-164
-155
-144
-133
-122
-111
-100
-89
-79
-69
-59
-50
-42
-35
-28
-23
-19
-17
-15
-16
-16
-19
-23
-28
-34
-39
-48
-57
-66
-77
-88
-100
-112
-124
-136
-148
-160
-172
-182
-194
-204
-214
-223
-232
-241
-249
-255
-262
-268
-273
-277
-280
-284
-285
-287
-288
-288
-288
-288
-287
-286
-285
-283
-281
-280
-278
-276
-274
-273
-271
-269
-267
-265
-263
-262
-260
-259
-258
-257
-257
-257
-256
-256
-255
-256
-255
-256
-256
-256
-256
-256
-257
-257
-257
-257
-258
-258
-259
-259
-260
-260
-259
-260
-260
-260
-259
-259
-259
-259
-258
-259
-258
-259
-258
-258
-258
-257
-256
-257
-255
-255
-254
-254
-253
-253
-252
-251
-251
-251
-251
-251
-251
-251
-251
-251
-251
-251
-250
-251
-250
-250
-250
-250
-249
-250
-250
-250
-250
-250
-251
-252
-251
-252
-251
-251
-252
-251
-252
-252
-252
-252
-252
-252
-252
-252
-252
-252
-251
-251
-251
-251
-250
-250
-250
-249
-248
-248
-247
-247
-246
-246
-245
-246
-245
-246
-246
-246
-245
-246
-246
-245
-246
-246
-246
-247
-247
-247
-248
-248
-249
-249
-250
-249
-249
-250
-250
-250
-250
-249
-249
-250
-249
-250
-248
-248
-247
-246
-246
-244
-242
-242
-241
-241
-240
-240
-239
-239
-239
-238
-237
-237
-238
-238
-238
-239
-239
-239
-240
-240
-240
-241
-242
-243
-244
-244
-244
-244
-244
-244
-245
-245
-246
-246
-247
-247
-248
-248
-249
-249
-249
-250
-250
-250
-251
-250
-251
-250
-249
-249
-248
-247
-246
-245
-244
-244
-242
-242
-240
-240
-239
-238
-238
-237
-236
-236
-236
-237
-237
-237
-238
-238
-239
-239
-239
-239
-239
-239
-240
-240
-239
-239
-238
-238
-238
-237
-236
-236
-235
-234
-234
-233
-233
-233
-232
-232
-232
-232
-233
-233
-234
-234
-234
-235
-236
-236
-236
-237
-237
-238
-239
-238
-237
-238
-237
-236
-234
-233
-233
-232
-231
-229
-229
-227
-226
-225
-224
-224
-223
-223
-222
-223
-222
-222
-223
-223
-223
-223
-224
-225
-225
-225
-226
-227
-228
-228
-229
-230
-229
-230
-230
-230
-230
-229
-229
-228
-227
-227
-226
-226
-224
-223
-222
-220
-220
-218
-217
-216
-215
-214
-214
-213
-213
-212
-211
-211
-211
-211
-210
-211
-211
-210
-210
-210
-209
-210
-209
-209
-209
-208
-208
-208
-208
-207
-207
-206
-205
-204
-204
-203
-204
-203
-204
-204
-204
-205
-206
-207
-207
-208
-210
-211
-212
-213
-214
-216
-217
-217
-217
-218
-219
-218
-219
-219
-219
-218
-218
-218
-217
-217
-216
-215
-215
-214
-215
-214
-213
-213
-213
-214
-214
-215
-216
-216
-217
-219
-220
-222
-223
-224
-226
-227
-229
-230
-231
-232
-235
-235
-238
-239
-239
-240
-241
-241
-242
-242
-242
-242
-242
-242
-242
-242
-242
-241
-241
-240
-240
-239
-240
-240
-239
-239
-239
-238
-238
-239
-238
-238
-238
-238
-238
-239
-239
-239
-239
-239
-239
-240
-241
-241
-240
-242
-242
-242
-243
-243
-243
-244
-244
-244
-244
-245
-245
-245
-246
-246
-246
-247
-247
-247
-247
-247
-247
-246
-246
-246
-245
-245
-245
-244
-244
-243
-243
-242
-242
-242
-241
-242
-241
-242
-242
-242
-243
-244
-245
-246
-246
-247
-248
-249
-250
-252
-253
-254
-255
-255
-255
-255
-255
-255
-254
-254
-253
-252
-251
-249
-248
-246
-245
-242
-241
-240
-239
-238
-237
-236
-235
-235
-235
-233
-234
-234
-234
-236
-236
-238
-239
-241
-242
-243
-244
-245
-246
-246
-248
-249
-250
-251
-251
-253
-253
-254
-254
-254
-255
-255
-255
-254
-255
-255
-255
-255
-255
-255
-254
-254
-253
-253
-252
-251
-250
-249
-249
-248
-247
-247
-246
-246
-245
-244
-244
-244
-244
-244
-243
-244
-243
-243
-244
-243
-243
-243
-243
-243
-243
-242
-242
-243
-242
-242
-241
-240
-239
-239
-238
-238
-236
-237
-236
-236
-237
-236
-237
-238
-238
-239
-239
-239
-239
-240
-240
-240
-240
-241
-242
-242
-242
-241
-241
-241
-241
-240
-239
-239
-239
-238
-238
-237
-237
-238
-237
-238
-238
-238
-237
-237
-238
-239
-239
-240
-239
-240
-240
-240
-240
-239
-239
-239
-239
-240
-240
-241
-240
-240
-239
-239
-239
-238
-238
-238
-238
-239
-238
-239
-239
-240
-240
-239
-239
-239
-240
-240
-240
-241
-241
-241
-242
-242
-242
-242
-242
-241
-241
-241
-240
-240
-239
-240
-239
-239
-239
-239
-238
-238
-237
-237
-237
-237
-236
-236
-236
-235
-236
-235
-236
-235
-235
-235
-235
-236
-235
-236
-236
-237
-238
-239
-239
-240
-240
-240
-240
-241
-240
-241
-241
-242
-241
-241
-240
-240
-240
-240
-239
-239
-239
-238
-238
-237
-237
-236
-236
-236
-236
-237
-237
-237
-237
-238
-238
-238
-239
-240
-239
-239
-240
-239
-240
-240
-240
-240
-240
-240
-240
-240
-240
-241
-241
-242
-242
-243
-243
-243
-243
-243
-244
-244
-246
-246
-246
-246
-247
-246
-246
-246
-246
-246
-245
-245
-246
-245
-245
-245
-244
-244
-244
-244
-244
-245
-246
-247
-247
-246
-246
-246
-245
-245
-246
-246
-246
-246
-246
-245
-245
-245
-244
-243
-243
-243
-243
-242
-242
-241
-241
-241
-241
-241
-241
-242
-242
-241
-241
-242
-241
-241
-241
-241
-241
-241
-241
-240
-240
-241
-240
-240
-240
-240
-240
-240
-240
-240
-241
-241
-242
-242
-242
-242
-243
-243
-243
-244
-244
-244
-245
-245
-246
-247
-246
-247
-248
-248
-248
-248
-248
-249
-249
-248
-249
-249
-248
-249
-248
-248
-247
-247
-246
-246
-245
-245
-243
-242
-242
-241
-241
-240
-240
-239
-238
-238
-238
-237
-237
-236
-237
-237
-238
-238
-239
-239
-239
-241
-241
-242
-243
-244
-245
-246
-247
-248
-249
-250
-250
-250
-250
-250
-250
-250
-250
-249
-248
-247
-245
-245
-243
-243
-241
-240
-239
-239
-239
-239
-238
-238
-237
-238
-238
-238
-238
-239
-239
-239
-240
-240
-241
-242
-241
-241
-242
-242
-242
-242
-242
-242
-242
-241
-241
-242
-242
-242
-242
-242
-243
-243
-243
-243
-244
-244
-243
-244
-243
-244
-244
-244
-244
-244
-244
-244
-244
-244
-244
-244
-244
-244
-244
-244
-244
-244
-245
-244
-245
-244
-245
-245
-245
-245
-245
-244
-245
-243
-243
-243
-242
-242
-240
-239
-239
-238
-237
-236
-235
-234
-234
-234
-233
-233
-232
-232
-232
-232
-233
-233
-234
-235
-234
-235
-235
-236
-237
-238
-238
-239
-239
-238
-237
-237
-238
-238
-239
-240
-240
-240
-240
-241
-241
-241
-243
-243
-244
-244
-245
-246
-246
-246
-247
-247
-247
-248
-247
-247
-248
-247
-247
-246
-246
-246
-246
-245
-245
-244
-243
-243
-242
-242
-241
-241
-241
-240
-240
-239
-238
-239
-240
-240
-241
-241
-242
-242
-244
-244
-244
-246
-245
-246
-247
-247
-246
-247
-247
-247
-247
-247
-246
-245
-244
-243
-241
-241
-240
-239
-237
-236
-235
-235
-234
-233
-232
-232
-232
-231
-231
-231
-231
-231
-231
-231
-231
-231
-232
-232
-231
-232
-232
-232
-232
-232
-233
-233
-233
-233
-233
-234
-234
-234
-234
-234
-235
-236
-236
-236
-237
-237
-237
-237
-237
-236
-236
-236
-236
-236
-235
-234
-234
-233
-231
-230
-230
-228
-227
-226
-225
-224
-223
-222
-222
-221
-223
-223
-225
-225
-227
-227
-229
-231
-232
-234
-237
-238
-240
-241
-243
-244
-244
-244
-245
-246
-245
-243
-243
-241
-239
-238
-235
-235
-233
-231
-230
-229
-228
-226
-225
-224
-222
-221
-222
-221
-220
-220
-219
-219
-220
-220
-219
-220
-220
-220
-221
-220
-221
-220
-221
-221
-221
-222
-221
-221
-222
-221
-222
-221
-221
-221
-221
-221
-220
-220
-218
-218
-217
-217
-217
-216
-216
-217
-216
-217
-216
-217
-218
-218
-219
-219
-219
-218
-219
-219
-218
-219
-218
-218
-218
-218
-218
-217
-216
-216
-216
-215
-214
-214
-213
-213
-212
-212
-212
-211
-212
-212
-211
-211
-211
-211
-211
-211
-211
-213
-213
-214
-214
-215
-215
-217
-219
-220
-222
-224
-225
-226
-229
-230
-232
-234
-235
-237
-238
-240
-241
-242
-244
-245
-245
-246
-246
-247
-248
-248
-248
-247
-247
-246
-246
-244
-244
-243
-242
-241
-239
-239
-238
-237
-236
-236
-235
-236
-236
-236
-236
-237
-237
-238
-239
-240
-241
-243
-243
-244
-245
-246
-246
-246
-247
-247
-247
-247
-245
-245
-243
-241
-239
-238
-235
-232
-229
-225
-221
-217
-212
-207
-201
-195
-188
-181
-173
-165
-155
-145
-135
-124
-113
-103
-91
-79
-68
-57
-45
-35
-24
-15
-7
1
8
13
16
18
19
18
15
11
6
0
-7
-15
-24
-33
-45
-55
-67
-79
-91
-103
-116
-127
-139
-150
-161
-172
-181
-191
-201
-209
-218
-225
-233
-239
-245
-251
-256
-260
-264
-267
-270
-272
-273
-273
-274
-274
-273
-272
-271
-270
-268
-267
-265
-262
-261
-258
-257
-255
-254
-252
-251
-251
-250
-249
-248
-247
-246
-245
-244
-244
-243
-242
-242
-241
-241
-240
-240
-239
-239
-238
-237
-236
-236
-236
-235
-235
-234
-234
-234
-234
-233
-234
-233
-233
-233
-234
-233
-234
-234
-234
-233
-234
-234
-234
-234
-234
-234
-235
-234
-234
-234
-234
-233
-234
-234
-233
-233
-233
-233
-232
-232
-231
-231
-231
-230
-230
-230
-229
-229
-228
-228
-227
-226
-225
-224
-223
-222
-222
-221
-221
-221
-221
-221
-222
-222
-223
-224
-226
-226
-229
-231
-232
-234
-236
-237
-239
-241
-242
-244
-246
-246
-247
-247
-246
-246
-244
-243
-242
-240
-238
-237
-235
-234
-232
-230
-229
-227
-226
-225
-225
-225
-224
-225
-225
-225
-225
-226
-226
-227
-228
-229
-230
-231
-231
-232
-233
-233
-233
-233
-233
-233
-234
-234
-234
-233
-233
-233
-233
-232
-232
-231
-231
-232
-232
-233
-233
-233
-233
-234
-234
-233
-233
-232
-233
-233
-233
-232
-231
-230
-230
-230
-229
-228
-227
-227
-226
-225
-225
-224
-224
-223
-223
-223
-222
-222
-222
-222
-221
-221
-221
-220
-219
-219
-219
-218
-218
-217
-217
-216
-216
-216
-216
-217
-217
-218
-219
-219
-219
-220
-222
-222
-223
-224
-224
-225
-226
-226
-227
-227
-228
-228
-229
-229
-229
-230
-230
-229
-230
-229
-229
-230
-229
-229
-229
-229
-229
-229
-228
-228
-227
-226
-226
-225
-224
-223
-223
-221
-220
-219
-219
-217
-216
-216
-215
-215
-214
-215
-215
-215
-215
-216
-217
-217
-218
-219
-220
-221
-222
-222
-222
-223
-222
-222
-222
-221
-221
-220
-219
-218
-217
-216
-213
-212
-211
-209
-208
-207
-205
-204
-203
-202
-202
-201
-201
-200
-200
-200
-200
-200
-200
-200
-200
-200
-200
-200
-200
-200
-200
-200
-200
-201
-200
-201
-201
-201
-202
-202
-202
-202
-203
-203
-203
-203
-203
-203
-203
-203
-202
-202
-202
-201
-201
-200
-199
-199
-198
-198
-197
-197
-196
-195
-195
-195
-196
-195
-195
-196
-196
-196
-196
-196
-197
-197
-196
-197
-197
-197
-197
-197
-197
-197
-197
-197
-197
-197
-196
-196
-195
-194
-193
-194
-193
-194
-194
-194
-195
-196
-196
-198
-198
-200
-201
-202
-204
-206
-207
-208
-209
-210
-211
-212
-213
-213
-213
-213
-212
-211
-211
-211
-210
-210
-210
-210
-210
-209
-210
-210
-210
-212
-213
-214
-215
-216
-217
-218
-219
-220
-221
-222
-224
-225
-226
-227
-228
-229
-230
-230
-230
-229
-230
-229
-228
-227
-227
-225
-225
-224
-223
-221
-220
-219
-218
-217
-216
-215
-214
-213
-213
-213
-214
-214
-215
-216
-217
-219
-220
-221
-222
-223
-224
-225
-227
-228
-228
-229
-230
-230
-230
-230
-231
-231
-231
-231
-231
-232
-232
-232
-233
-232
-233
-232
-232
-232
-233
-233
-233
-233
-233
-233
-234
-233
-234
-234
-233
-233
-232
-232
-233
-232
-231
-231
-230
-230
-230
-229
-227
-226
-225
-224
-223
-222
-221
-221
-220
-220
-219
-218
-219
-218
-219
-219
-219
-219
-220
-220
-221
-222
-223
-224
-225
-226
-227
-227
-229
-229
-229
-230
-231
-231
-232
-233
-232
-232
-233
-234
-234
-234
-235
-235
-235
-235
-234
-234
-234
-234
-234
-233
-233
-232
-231
-230
-229
-228
-227
-226
-226
-224
-225
-224
-223
-222
-222
-222
-221
-221
-221
-221
-222
-222
-222
-222
-222
-222
-223
-224
-224
-224
-225
-224
-225
-225
-225
-225
-224
-224
-223
-223
-223
-221
-221
-220
-219
-219
-218
-217
-217
-216
-216
-215
-215
-215
-214
-215
-215
-215
-216
-217
-218
-218
-219
-220
-221
-221
-223
-224
-225
-225
-225
-226
-225
-226
-225
-226
-225
-225
-223
-222
-222
-221
-220
-220
-219
-219
-218
-218
-218
-217
-217
-217
-217
-217
-216
-216
-216
-215
-215
-214
-214
-214
-214
-213
-214
-213
-213
-212
-212
-212
-211
-212
-212
-213
-213
-213
-214
-215
-216
-218
-219
-220
-222
-224
-224
-226
-226
-227
-227
-227
-227
-228
-227
-227
-226
-226
-223
-222
-222
-220
-219
-217
-216
-214
-213
-212
-211
-210
-209
-209
-209
-208
-207
-207
-207
-208
-208
-209
-209
-210
-210
-211
-212
-213
-215
-215
-216
-218
-218
-220
-220
-220
-220
-220
-221
-221
-221
-221
-221
-221
-220
-220
-220
-219
-218
-217
-218
-217
-216
-215
-215
-214
-215
-214
-213
-213
-213
-212
-212
-213
-212
-212
-212
-212
-213
-213
-214
-214
-215
-216
-216
-217
-218
-218
-218
-219
-219
-219
-219
-218
-219
-218
-217
-216
-216
-215
-215
-214
-214
-213
-213
-213
-213
-214
-213
-214
-215
-215
-216
-218
-218
-220
-220
-221
-223
-223
-225
-225
-226
-227
-226
-227
-227
-226
-227
-225
-225
-224
-223
-223
-222
-221
-221
-220
-218
-216
-215
-214
-212
-211
-210
-209
-208
-207
-207
-207
-206
-207
-206
-207
-207
-207
-208
-209
-210
-210
-211
-212
-213
-213
-214
-215
-216
-216
-217
-217
-217
-217
-217
-217
-217
-217
-217
-217
-217
-217
-217
-216
-216
-215
-215
-215
-215
-214
-215
-214
-213
-214
-212
-212
-211
-210
-210
-210
-210
-210
-209
-209
-209
-209
-209
-209
-209
-209
-209
-208
-209
-209
-208
-209
-209
-208
-208
-208
-208
-209
-209
-209
-210
-210
-210
-211
-211
-212
-213
-215
-215
-215
-217
-217
-218
-218
-218
-219
-219
-219
-219
-218
-218
-217
-216
-216
-216
-215
-213
-212
-210
-209
-208
-207
-206
-206
-206
-206
-205
-205
-204
-204
-204
-204
-205
-206
-206
-206
-207
-207
-207
-208
-209
-210
-212
-212
-213
-214
-214
-215
-216
-216
-216
-216
-217
-217
-216
-216
-216
-215
-214
-213
-212
-211
-210
-209
-207
-207
-205
-205
-204
-204
-204
-203
-203
-203
-203
-203
-203
-204
-205
-205
-207
-207
-208
-208
-208
-209
-209
-210
-211
-211
-211
-211
-211
-211
-212
-213
-213
-214
-214
-213
-213
-213
-213
-213
-214
-213
-213
-213
-212
-212
-212
-211
-211
-210
-210
-210
-209
-208
-208
-207
-208
-208
-207
-207
-206
-206
-206
-207
-206
-207
-206
-207
-207
-207
-208
-208
-208
-209
-209
-208
-209
-208
-210
-210
-210
-211
-211
-211
-212
-212
-212
-212
-212
-212
-211
-211
-210
-209
-209
-209
-208
-208
-207
-207
-206
-206
-205
-204
-204
-204
-204
-204
-204
-205
-206
-206
-206
-207
-207
-208
-209
-209
-210
-211
-211
-211
-211
-212
-212
-211
-211
-211
-211
-211
-211
-211
-211
-211
-211
-210
-211
-209
-209
-209
-208
-208
-207
-206
-205
-205
-204
-203
-202
-201
-200
-199
-199
-198
-198
-198
-199
-198
-198
-199
-200
-201
-202
-203
-204
-206
-207
-209
-210
-211
-212
-214
-214
-215
-215
-216
-216
-216
-216
-215
-215
-214
-214
-214
-214
-212
-212
-210
-209
-208
-208
-207
-207
-206
-206
-205
-204
-204
-203
-202
-203
-202
-203
-203
-203
-203
-203
-203
-203
-203
-203
-203
-203
-203
-203
-203
-202
-202
-202
-202
-202
-201
-201
-200
-199
-198
-197
-196
-195
-195
-194
-194
-194
-193
-192
-191
-191
-191
-190
-190
-190
-190
-191
-191
-191
-192
-192
-192
-192
-193
-193
-193
-193
-193
-193
-193
-193
-193
-193
-193
-192
-192
-191
-191
-191
-191
-191
-191
-191
-190
-190
-191
-191
-190
-189
-189
-189
-188
-188
-187
-186
-186
-186
-186
-186
-186
-186
-185
-184
-184
-184
-183
-183
-184
-185
-185
-186
-186
-187
-186
-187
-187
-187
-188
-189
-189
-189
-189
-189
-190
-189
-189
-189
-189
-189
-189
-189
-189
-190
-189
-190
-190
-191
-191
-192
-193
-194
-195
-197
-198
-200
-202
-204
-205
-206
-207
-208
-210
-210
-212
-213
-215
-216
-217
-218
-218
-218
-218
-219
-219
-219
-219
-219
-218
-218
-217
-217
-216
-216
-214
-214
-213
-212
-211
-209
-208
-207
-206
-206
-206
-206
-206
-206
-207
-206
-206
-207
-207
-207
-208
-209
-209
-210
-210
-209
-208
-207
-206
-204
-202
-199
-196
-192
-187
-181
-175
-169
-162
-155
-147
-139
-130
-121
-111
-101
-91
-80
-70
-60
-50
-40
-31
-22
-14
-6
1
7
12
15
17
18
16
15
11
7
3
-3
-11
-19
-28
-38
-48
-58
-70
-81
-92
-103
-114
-125
-137
-147
-156
-165
-173
-182
-190
-198
-204
-210
-215
-220
-224
-229
-231
-233
-235
-236
-238
-238
-238
-238
-237
-236
-235
-234
-232
-230
-228
-226
-223
-221
-219
-218
-218
-216
-215
-215
-214
-214
-213
-213
-213
-213
-213
-213
-214
-215
-214
-215
-215
-216
-216
-216
-215
-216
-215
-214
-213
-213
-212
-212
-211
-211
-211
-211
-210
-211
-210
-210
-210
-210
-209
-210
-209
-209
-208
-207
-206
-205
-204
-204
-203
-202
-201
-199
-199
-199
-199
-199
-199
-199
-199
-199
-199
-200
-200
-200
-201
-202
-203
-204
-205
-206
-207
-207
-207
-207
-207
-207
-206
-206
-206
-206
-206
-206
-206
-206
-205
-205
-204
-205
-205
-205
-204
-205
-205
-205
-205
-205
-205
-204
-204
-204
-203
-203
-202
-202
-201
-200
-200
-199
-198
-197
-195
-194
-193
-192
-191
-191
-191
-191
-191
-191
-191
-191
-191
-191
-192
-193
-193
-194
-195
-196
-198
-199
-199
-200
-201
-202
-202
-203
-204
-205
-205
-206
-205
-205
-205
-207
-207
-207
-208
-208
-208
-209
-210
-210
-210
-210
-211
-211
-211
-211
-210
-209
-209
-208
-208
-207
-206
-205
-204
-204
-202
-201
-200
-199
-198
-196
-195
-195
-194
-194
-193
-192
-193
-193
-193
-193
-192
-193
-193
-193
-192
-193
-193
-192
-192
-192
-191
-191
-190
-191
-191
-190
-190
-191
-191
-191
-192
-192
-193
-193
-193
-194
-194
-195
-195
-196
-196
-197
-197
-197
-198
-198
-198
-197
-198
-197
-197
-197
-196
-196
-195
-195
-194
-193
-193
-192
-192
-190
-189
-189
-188
-187
-186
-186
-185
-186
-185
-185
-185
-186
-187
-187
-189
-189
-190
-191
-191
-192
-193
-192
-192
-192
-193
-192
-192
-192
-191
-190
-189
-188
-186
-185
-185
-183
-183
-183
-183
-183
-182
-183
-183
-182
-182
-182
-181
-182
-181
-182
-181
-182
-182
-182
-182
-182
-182
-181
-181
-181
-180
-179
-179
-179
-178
-178
-178
-178
-178
-177
-177
-176
-175
-174
-173
-172
-172
-171
-172
-171
-170
-170
-169
-168
-168
-168
-168
-167
-168
-167
-168
-167
-167
-167
-167
-167
-167
-167
-166
-166
-166
-165
-165
-166
-165
-165
-164
-164
-164
-164
-163
-162
-161
-161
-160
-160
-159
-158
-157
-155
-155
-154
-154
-154
-154
-155
-156
-157
-158
-160
-161
-163
-164
-166
-169
-171
-173
-175
-177
-180
-182
-184
-185
-187
-188
-188
-188
-190
-189
-190
-190
-190
-189
-189
-189
-188
-187
-187
-187
-188
-187
-186
-186
-185
-185
-184
-184
-184
-185
-184
-185
-186
-187
-187
-188
-187
-189
-189
-189
-189
-191
-191
-192
-193
-194
-194
-195
-196
-196
-196
-197
-197
-198
-198
-198
-198
-199
-198
-199
-200
-199
-200
-201
-201
-201
-201
-201
-201
-200
-200
-201
-201
-201
-200
-200
-200
-199
-199
-199
-198
-198
-197
-197
-197
-197
-197
-197
-197
-198
-198
-198
-199
-200
-200
-202
-202
-204
-205
-206
-206
-207
-207
-208
-208
-208
-209
-209
-209
-209
-209
-209
-209
-208
-208
-208
-207
-206
-205
-205
-204
-203
-203
-202
-202
-202
-201
-202
-202
-202
-202
-203
-202
-201
-202
-202
-201
-200
-200
-199
-198
-198
-197
-197
-197
-196
-195
-194
-194
-194
-194
-195
-196
-197
-198
-199
-200
-200
-201
-202
-204
-206
-208
-209
-210
-211
-212
-212
-212
-212
-212
-211
-211
-211
-211
-210
-210
-209
-208
-207
-207
-206
-206
-205
-205
-204
-204
-204
-203
-203
-203
-203
-202
-203
-203
-202
-203
-203
-202
-202
-203
-202
-202
-202
-202
-201
-202
-201
-202
-201
-201
-200
-200
-199
-200
-199
-199
-198
-199
-198
-198
-197
-197
-197
-196
-196
-196
-194
-194
-194
-193
-193
-192
-193
-192
-191
-191
-190
-190
-189
-189
-188
-188
-189
-189
-189
-189
-189
-189
-190
-190
-190
-191
-192
-192
-193
-193
-194
-194
-194
-195
-195
-196
-197
-197
-198
-199
-198
-199
-200
-200
-200
-200
-201
-201
-201
-202
-202
-202
-201
-202
-201
-202
-201
-200
-200
-200
-200
-200
-199
-199
-199
-199
-200
-199
-199
-200
-200
-200
-200
-200
-201
-201
-201
-201
-201
-201
-201
-202
-201
-200
-199
-199
-199
-199
-199
-198
-198
-197
-197
-196
-196
-196
-196
-195
-196
-195
-196
-195
-196
-196
-196
-197
-197
-198
-198
-199
-199
-199
-199
-199
-199
-200
-200
-200
-199
-199
-199
-198
-198
-198
-198
-198
-198
-197
-198
-197
-198
-197
-197
-196
-195
-195
-194
-194
-195
-195
-196
-196
-196
-197
-197
-196
-195
-195
-194
-193
-193
-191
-189
-188
-188
-188
-187
-186
-186
-186
-186
-187
-188
-190
-191
-191
-192
-194
-195
-197
-199
-201
-204
-206
-207
-209
-209
-209
-208
-208
-208
-206
-205
-203
-202
-202
-201
-200
-199
-198
-197
-196
-195
-194
-194
-194
-195
-196
-196
-197
-198
-198
-198
-199
-200
-200
-200
-201
-202
-202
-202
-203
-204
-204
-204
-205
-205
-205
-205
-204
-204
-204
-205
-205
-205
-205
-205
-205
-205
-205
-204
-204
-204
-204
-204
-203
-203
-202
-202
-201
-200
-200
-200
-199
-198
-198
-197
-196
-196
-195
-195
-195
-195
-195
-195
-195
-195
-195
-194
-194
-195
-197
-197
-198
-199
-201
-201
-201
-202
-203
-203
-203
-204
-205
-205
-206
-206
-206
-206
-205
-205
-204
-203
-203
-202
-201
-200
-199
-199
-198
-197
-196
-196
-195
-195
-195
-194
-194
-194
-193
-193
-194
-194
-195
-195
-195
-195
-196
-196
-196
-197
-198
-198
-198
-199
-199
-198
-199
-199
-199
-199
-200
-199
-199
-199
-199
-199
-198
-197
-196
-195
-194
-192
-191
-189
-188
-187
-185
-185
-184
-184
-184
-185
-186
-186
-187
-189
-191
-193
-196
-198
-201
-204
-207
-209
-212
-214
-217
-219
-220
-221
-222
-222
-221
-220
-220
-218
-217
-215
-213
-211
-209
-207
-205
-203
-201
-201
-199
-197
-197
-195
-196
-195
-195
-196
-196
-196
-197
-198
-198
-199
-199
-200
-200
-201
-201
-201
-201
-201
-201
-200
-201
-200
-201
-200
-200
-199
-198
-199
-199
-198
-198
-198
-197
-198
-198
-198
-197
-198
-197
-197
-197
-197
-197
-197
-197
-196
-197
-196
-196
-196
-196
-196
-197
-196
-197
-196
-197
-197
-197
-197
-196
-196
-197
-196
-197
-198
-197
-198
-197
-197
-196
-197
-196
-196
-197
-196
-197
-197
-197
-197
-196
-196
-196
-195
-196
-196
-197
-198
-198
-199
-200
-200
-201
-201
-201
-202
-201
-202
-203
-203
-203
-203
-202
-201
-200
-200
-199
-198
-198
-197
-196
-196
-194
-194
-194
-194
-194
-193
-194
-194
-196
-196
-197
-198
-199
-200
-201
-202
-202
-203
-204
-204
-204
-204
-204
-204
-203
-203
-202
-201
-200
-200
-199
-199
-198
-198
-197
-197
-196
-195
-195
-195
-195
-196
-196
-196
-196
-196
-196
-197
-198
-198
-198
-198
-198
-198
-197
-197
-198
-197
-197
-198
-198
-198
-197
-197
-197
-196
-197
-197
-196
-196
-195
-195
-194
-193
-192
-191
-190
-189
-188
-187
-185
-185
-184
-182
-182
-180
-179
-179
-179
-178
-178
-178
-178
-179
-179
-179
-179
-180
-180
-180
-181
-181
-181
-181
-182
-182
-182
-181
-182
-183
-182
-183
-183
-183
-183
-183
-183
-184
-184
-184
-185
-185
-186
-186
-187
-186
-186
-186
-186
-186
-187
-186
-187
-188
-187
-186
-186
-186
-185
-185
-184
-184
-184
-184
-182
-182
-181
-180
-180
-179
-179
-179
-179
-179
-179
-179
-178
-177
-177
-175
-175
-175
-176
-175
-176
-176
-177
-178
-178
-179
-179
-179
-180
-180
-182
-182
-184
-186
-188
-189
-191
-193
-194
-194
-195
-196
-196
-197
-199
-199
-200
-200
-201
-202
-201
-202
-202
-202
-202
-202
-201
-201
-200
-199
-199
-199
-199
-198
-198
-196
-196
-195
-194
-193
-193
-192
-192
-192
-191
-192
-191
-191
-192
-192
-193
-195
-196
-197
-198
-200
-200
-202
-204
-205
-206
-207
-209
-210
-211
-210
-210
-209
-208
-206
-204
-201
-198
-194
-191
-185
-180
-174
-168
-161
-154
-147
-138
-129
-120
-111
-102
-91
-81
-70
-60
-49
-38
-28
-17
-9
0
9
16
22
28
32
35
37
38
37
35
31
26
20
13
4
-5
-14
-24
-35
-47
-59
-70
-83
-96
-108
-120
-130
-142
-151
-161
-169
-178
-184
-191
-197
-203
-207
-211
-214
-218
-220
-221
-223
-224
-224
-224
-225
-224
-224
-223
-221
-220
-219
-218
-217
-216
-215
-215
-213
-212
-211
-210
-208
-208
-207
-205
-205
-204
-204
-203
-203
-201
-201
-200
-200
-201
-201
-201
-202
-202
-202
-202
-203
-203
-203
-203
-203
-203
-203
-203
-203
-202
-202
-201
-201
-200
-199
-198
-197
-196
-195
-195
-194
-193
-193
-193
-192
-192
-191
-191
-191
-191
-190
-191
-190
-190
-190
-191
-191
-190
-191
-191
-190
-191
-191
-191
-190
-191
-191
-191
-192
-193
-193
-193
-193
-194
-195
-196
-196
-197
-198
-200
-201
-202
-204
-203
-205
-205
-205
-205
-206
-206
-206
-206
-205
-205
-204
-204
-204
-203
-202
-202
-201
-201
-200
-199
-199
-197
-197
-196
-196
-195
-195
-193
-192
-192
-191
-190
-189
-188
-186
-185
-185
-184
-183
-183
-182
-183
-182
-182
-182
-182
-182
-181
-182
-183
-184
-184
-185
-186
-187
-189
-190
-191
-191
-192
-194
-194
-195
-196
-196
-197
-198
-197
-196
-196
-195
-194
-193
-192
-191
-190
-189
-189
-188
-187
-186
-185
-185
-184
-184
-185
-184
-186
-186
-187
-188
-190
-191
-193
-193
-194
-196
-197
-198
-198
-199
-200
-200
-200
-200
-199
-199
-198
-197
-196
-196
-194
-193
-191
-190
-189
-188
-187
-186
-184
-184
-184
-184
-184
-184
-183
-182
-182
-183
-184
-184
-185
-186
-186
-186
-187
-187
-187
-187
-187
-186
-185
-184
-184
-183
-182
-180
-179
-178
-177
-176
-175
-173
-172
-171
-171
-171
-171
-171
-170
-170
-172
-172
-172
-173
-173
-174
-174
-175
-176
-176
-176
-176
-177
-176
-176
-176
-176
-176
-175
-175
-175
-175
-174
-174
-174
-174
-173
-173
-173
-173
-172
-173
-173
-173
-172
-173
-173
-173
-173
-173
-172
-172
-172
-171
-171
-172
-171
-171
-171
-171
-170
-171
-170
-170
-170
-169
-170
-169
-169
-168
-168
-168
-168
-167
-168
-167
-167
-167
-166
-166
-166
-165
-165
-164
-164
-163
-163
-163
-163
-162
-162
-161
-161
-162
-161
-162
-162
-162
-162
-162
-162
-162
-162
-162
-162
-162
-161
-160
-160
-160
-160
-159
-158
-158
-156
-155
-154
-153
-152
-152
-151
-151
-151
-150
-150
-151
-150
-151
-151
-152
-153
-154
-155
-156
-156
-157
-157
-158
-160
-159
-160
-160
-160
-160
-160
-160
-159
-158
-158
-158
-157
-157
-157
-157
-157
-158
-158
-159
-159
-160
-161
-162
-163
-165
-167
-169
-171
-172
-175
-177
-178
-180
-181
-183
-184
-184
-185
-186
-186
-188
-188
-188
-189
-189
-189
-190
-190
-191
-191
-191
-192
-192
-192
-193
-192
-192
-192
-192
-192
-193
-193
-193
-193
-193
-193
-192
-192
-192
-192
-192
-191
-191
-191
-191
-190
-190
-189
-189
-189
-189
-188
-188
-188
-188
-188
-188
-188
-188
-187
-187
-186
-186
-187
-186
-186
-186
-185
-186
-186
-186
-187
-187
-187
-188
-188
-189
-190
-191
-191
-190
-191
-191
-191
-191
-191
-191
-191
-190
-189
-189
-188
-187
-186
-185
-185
-184
-184
-184
-184
-184
-185
-186
-186
-188
-189
-190
-191
-193
-194
-195
-197
-198
-199
-200
-201
-201
-203
-203
-204
-204
-204
-204
-204
-203
-202
-202
-200
-200
-199
-198
-197
-197
-196
-195
-195
-194
-194
-193
-192
-191
-190
-190
-189
-189
-189
-188
-187
-188
-187
-186
-186
-186
-186
-186
-187
-187
-187
-187
-187
-188
-187
-188
-188
-189
-189
-189
-190
-190
-191
-191
-192
-192
-192
-193
-193
-193
-194
-193
-192
-192
-191
-190
-189
-189
-188
-187
-185
-184
-184
-183
-182
-181
-181
-180
-179
-178
-178
-177
-178
-179
-180
-180
-181
-181
-182
-183
-184
-185
-185
-187
-187
-188
-189
-190
-191
-191
-191
-192
-193
-193
-194
-194
-194
-194
-194
-194
-193
-193
-193
-192
-192
-192
-191
-191
-191
-191
-190
-190
-190
-190
-189
-189
-189
-189
-189
-188
-188
-187
-188
-187
-186
-186
-186
-186
-186
-186
-185
-186
-185
-185
-184
-184
-183
-183
-183
-183
-182
-182
-182
-183
-184
-183
-183
-183
-183
-183
-183
-183
-184
-184
-184
-185
-185
-185
-185
-185
-185
-184
-184
-184
-184
-184
-185
-184
-184
-184
-184
-183
-183
-182
-182
-181
-181
-180
-179
-179
-178
-178
-177
-177
-176
-175
-175
-175
-174
-173
-173
-173
-174
-174
-175
-176
-177
-180
-181
-183
-184
-185
-187
-188
-190
-191
-192
-193
-194
-194
-194
-194
-193
-191
-191
-188
-187
-184
-182
-180
-178
-176
-174
-174
-173
-172
-172
-172
-172
-173
-174
-175
-176
-177
-179
-180
-182
-184
-186
-188
-191
-193
-195
-196
-197
-199
-199
-200
-201
-201
-202
-203
-203
-204
-204
-204
-204
-204
-203
-203
-202
-202
-201
-200
-199
-199
-198
-197
-196
-195
-194
-193
-193
-192
-190
-190
-188
-188
-187
-187
-187
-187
-186
-185
-185
-185
-185
-185
-185
-186
-185
-186
-186
-185
-185
-185
-185
-185
-185
-184
-185
-185
-185
-185
-185
-186
-185
-185
-186
-186
-187
-188
-188
-188
-189
-189
-190
-191
-192
-192
-193
-194
-194
-195
-195
-195
-194
-194
-193
-193
-192
-192
-190
-189
-190
-189
-188
-188
-187
-186
-184
-184
-183
-182
-182
-182
-182
-182
-183
-184
-185
-186
-187
-189
-189
-190
-191
-190
-191
-193
-193
-193
-194
-195
-194
-195
-194
-195
-196
-196
-195
-196
-195
-194
-195
-194
-195
-194
-195
-194
