# Simple Text Format
# Sampling Rate (Hz):= 1200.00
# Resolution:= 12
# Labels:= ECG	 V6
# Age:=	62
# Gender:=	Feminino
15
29
43
58
72
88
102
116
129
143
155
167
177
187
195
203
208
212
215
216
214
211
207
202
194
186
176
165
153
141
128
114
99
87
72
57
44
30
18
6
-5
-15
-25
-33
-41
-47
-52
-58
-61
-65
-66
-68
-69
-70
-71
-71
-71
-71
-70
-69
-68
-67
-66
-65
-65
-64
-64
-63
-63
-63
-63
-62
-62
-63
-63
-62
-63
-63
-63
-63
-64
-64
-64
-64
-64
-65
-66
-66
-66
-66
-66
-66
-66
-66
-66
-66
-66
-66
-66
-66
-66
-65
-65
-65
-65
-65
-65
-64
-64
-64
-64
-64
-63
-63
-63
-63
-63
-63
-63
-62
-62
-62
-62
-62
-62
-62
-62
-62
-62
-62
-62
-61
-61
-61
-61
-61
-61
-61
-61
-61
-60
-59
-59
-59
-59
-59
-59
-59
-58
-58
-58
-58
-58
-58
-58
-58
-58
-57
-57
-57
-57
-57
-57
-57
-57
-57
-57
-56
-56
-56
-56
-56
-56
-56
-56
-55
-55
-55
-55
-54
-54
-54
-54
-54
-53
-53
-53
-54
-53
-52
-52
-52
-52
-51
-51
-51
-51
-50
-50
-49
-49
-49
-48
-48
-47
-46
-46
-46
-46
-45
-45
-45
-44
-44
-44
-43
-43
-43
-42
-42
-42
-42
-41
-41
-41
-41
-41
-40
-39
-39
-39
-38
-37
-37
-36
-34
-34
-33
-32
-32
-31
-30
-29
-27
-27
-26
-25
-24
-24
-22
-21
-21
-20
-19
-18
-18
-17
-16
-16
-14
-14
-12
-12
-11
-9
-9
-7
-7
-5
-4
-4
-2
-1
1
2
2
4
5
5
7
8
9
9
11
12
12
13
13
15
15
16
17
18
18
20
21
21
23
23
24
25
26
27
28
29
29
31
31
32
34
34
35
36
36
37
38
38
38
38
39
40
40
40
41
41
40
41
41
41
39
40
39
38
38
37
37
36
35
34
34
32
30
30
28
26
24
24
22
20
18
17
15
13
11
10
8
6
4
3
1
0
-2
-3
-5
-7
-9
-10
-12
-13
-15
-16
-18
-19
-21
-22
-24
-25
-27
-28
-29
-31
-32
-33
-34
-35
-36
-36
-37
-38
-38
-40
-40
-41
-41
-42
-43
-43
-43
-43
-45
-45
-45
-45
-46
-46
-47
-47
-48
-48
-49
-49
-49
-49
-49
-49
-50
-51
-51
-51
-51
-51
-51
-51
-51
-51
-51
-52
-52
-52
-52
-52
-52
-52
-52
-52
-52
-52
-52
-52
-52
-52
-52
-52
-52
-52
-52
-52
-52
-52
-52
-52
-51
-51
-51
-51
-51
-50
-50
-50
-51
-51
-51
-51
-51
-51
-51
-51
-51
-52
-52
-52
-53
-53
-53
-53
-53
-53
-53
-53
-53
-53
-53
-53
-53
-53
-53
-53
-53
-53
-53
-53
-53
-53
-53
-52
-52
-52
-52
-52
-51
-51
-51
-51
-51
-51
-51
-52
-52
-52
-52
-52
-52
-52
-52
-52
-52
-52
-52
-52
-52
-52
-52
-52
-52
-52
-52
-52
-52
-52
-52
-52
-52
-52
-52
-52
-52
-52
-52
-52
-52
-51
-51
-51
-51
-51
-51
-51
-51
-51
-51
-50
-50
-50
-50
-50
-50
-51
-51
-51
-51
-51
-51
-51
-51
-51
-51
-50
-50
-50
-50
-50
-50
-50
-50
-50
-50
-50
-49
-49
-50
-50
-50
-50
-50
-50
-50
-50
-50
-51
-51
-51
-51
-51
-51
-51
-51
-51
-51
-51
-52
-52
-52
-52
-52
-52
-52
-52
-52
-52
-52
-52
-51
-51
-51
-51
-51
-51
-51
-51
-51
-51
-51
-51
-50
-50
-50
-50
-51
-51
-51
-51
-51
-51
-51
-51
-52
-52
-52
-52
-51
-51
-52
-52
-52
-52
-52
-52
-51
-51
-52
-52
-52
-52
-52
-52
-52
-52
-53
-52
-52
-52
-52
-52
-51
-51
-51
-51
-51
-51
-51
-51
-50
-50
-50
-50
-50
-50
-51
-51
-51
-50
-50
-50
-50
-50
-51
-50
-50
-50
-50
-50
-50
-50
-50
-50
-50
-49
-49
-49
-48
-47
-47
-47
-46
-46
-46
-45
-44
-44
-44
-44
-43
-43
-43
-43
-43
-42
-42
-42
-42
-42
-42
-42
-42
-42
-41
-41
-41
-41
-41
-41
-41
-41
-41
-41
-40
-40
-40
-40
-40
-40
-40
-40
-40
-41
-41
-40
-40
-40
-40
-41
-41
-41
-40
-40
-40
-40
-40
-40
-40
-39
-39
-39
-40
-40
-40
-40
-40
-40
-40
-41
-41
-41
-41
-41
-43
-43
-43
-44
-44
-45
-45
-46
-46
-47
-48
-49
-49
-49
-49
-50
-50
-51
-51
-52
-52
-52
-53
-53
-53
-53
-53
-53
-54
-54
-54
-54
-55
-55
-55
-55
-56
-56
-56
-56
-56
-56
-56
-57
-57
-57
-57
-57
-57
-57
-57
-57
-58
-58
-58
-58
-58
-58
-58
-58
-58
-59
-59
-58
-58
-58
-58
-58
-58
-58
-58
-58
-58
-58
-58
-58
-58
-58
-58
-58
-58
-58
-59
-59
-59
-59
-59
-59
-60
-60
-62
-62
-63
-64
-65
-67
-69
-71
-72
-74
-76
-78
-80
-81
-83
-84
-85
-85
-85
-84
-84
-82
-79
-75
-70
-65
-58
-50
-42
-32
-22
-10
2
15
28
42
58
72
86
101
115
129
143
157
169
180
191
201
209
216
221
224
226
227
225
222
218
212
204
195
185
173
162
149
135
121
108
93
79
65
50
37
25
14
3
-7
-16
-23
-30
-37
-42
-47
-50
-53
-56
-57
-58
-58
-59
-59
-59
-58
-58
-57
-57
-56
-55
-54
-54
-53
-53
-53
-54
-53
-53
-53
-53
-52
-53
-53
-53
-54
-54
-54
-54
-54
-54
-54
-54
-54
-54
-54
-55
-55
-55
-55
-55
-55
-55
-55
-55
-55
-55
-55
-55
-55
-55
-55
-55
-55
-54
-54
-54
-54
-54
-54
-54
-54
-54
-54
-54
-54
-54
-54
-54
-54
-54
-54
-54
-54
-54
-53
-53
-52
-52
-52
-52
-51
-51
-51
-50
-50
-50
-50
-49
-49
-49
-50
-49
-49
-49
-50
-49
-49
-49
-49
-49
-49
-49
-49
-49
-49
-49
-49
-49
-49
-49
-49
-49
-48
-47
-47
-47
-47
-47
-47
-47
-47
-47
-46
-46
-46
-46
-46
-45
-45
-45
-44
-45
-45
-45
-43
-43
-43
-44
-44
-42
-42
-43
-43
-42
-42
-41
-41
-40
-40
-40
-40
-39
-38
-38
-38
-38
-38
-37
-37
-37
-36
-35
-35
-35
-35
-35
-34
-34
-33
-33
-32
-32
-32
-31
-30
-30
-29
-29
-29
-27
-27
-26
-25
-25
-25
-23
-23
-23
-21
-21
-20
-19
-19
-18
-17
-17
-15
-15
-14
-13
-13
-11
-11
-9
-9
-8
-7
-5
-5
-4
-3
-1
-1
0
1
2
3
4
5
6
6
8
9
10
11
12
13
14
14
16
16
18
19
19
21
21
23
24
25
26
27
28
29
30
31
32
33
34
35
36
37
38
39
39
40
41
42
42
42
44
44
45
45
45
47
47
47
47
47
48
48
48
48
48
48
48
48
48
46
46
46
45
44
44
42
42
40
39
39
37
35
35
33
32
30
29
27
25
24
22
20
18
17
15
14
12
10
9
7
6
4
3
1
-1
-2
-4
-5
-6
-8
-9
-11
-11
-13
-15
-16
-18
-19
-20
-22
-22
-24
-24
-26
-26
-28
-28
-30
-30
-30
-30
-32
-32
-33
-34
-34
-35
-35
-35
-35
-37
-37
-37
-37
-37
-38
-38
-38
-39
-40
-40
-40
-40
-40
-40
-40
-40
-40
-40
-40
-41
-41
-41
-40
-41
-41
-41
-41
-41
-41
-41
-41
-41
-41
-41
-41
-41
-41
-41
-41
-41
-42
-42
-42
-42
-42
-42
-42
-42
-42
-42
-43
-43
-43
-43
-43
-43
-43
-43
-43
-43
-43
-43
-43
-44
-44
-44
-44
-44
-44
-44
-44
-44
-44
-44
-44
-44
-44
-44
-44
-44
-44
-44
-44
-44
-44
-44
-44
-44
-44
-44
-42
-42
-42
-42
-42
-42
-42
-42
-42
-42
-42
-43
-43
-43
-44
-44
-44
-44
-44
-44
-44
-44
-44
-44
-44
-44
-44
-44
-44
-44
-44
-43
-43
-43
-42
-42
-42
-42
-42
-42
-42
-42
-42
-42
-42
-42
-42
-42
-42
-42
-42
-42
-43
-43
-43
-43
-43
-43
-43
-43
-43
-43
-43
-43
-43
-43
-43
-43
-42
-42
-42
-42
-42
-42
-42
-42
-42
-42
-42
-42
-40
-40
-40
-41
-41
-41
-41
-41
-41
-40
-41
-41
-41
-41
-41
-41
-41
-41
-41
-42
-42
-42
-42
-42
-42
-42
-42
-42
-42
-42
-42
-43
-43
-43
-43
-43
-42
-42
-42
-42
-43
-43
-43
-42
-42
-42
-42
-42
-42
-42
-42
-43
-43
-43
-43
-43
-43
-43
-43
-43
-43
-43
-43
-43
-43
-43
-42
-42
-43
-43
-43
-43
-42
-42
-42
-42
-43
-43
-43
-43
-43
-42
-42
-42
-42
-42
-42
-42
-42
-42
-42
-43
-43
-43
-43
-43
-43
-43
-43
-43
-43
-43
-43
-43
-43
-43
-43
-43
-43
-43
-42
-42
-41
-41
-41
-41
-40
-40
-39
-39
-39
-38
-38
-38
-37
-37
-36
-35
-35
-35
-34
-34
-34
-33
-33
-33
-33
-33
-33
-32
-32
-32
-32
-32
-32
-32
-32
-32
-32
-33
-33
-32
-32
-32
-32
-32
-32
-32
-32
-32
-32
-32
-32
-32
-31
-31
-31
-31
-31
-30
-30
-30
-30
-30
-29
-29
-29
-29
-29
-28
-28
-28
-29
-29
-28
-28
-28
-28
-28
-28
-29
-29
-30
-31
-31
-31
-32
-33
-33
-34
-34
-35
-36
-36
-36
-37
-38
-38
-39
-39
-40
-41
-41
-41
-41
-42
-42
-42
-42
-43
-43
-44
-44
-44
-44
-45
-45
-45
-45
-45
-46
-47
-47
-47
-47
-47
-47
-47
-48
-48
-48
-48
-48
-48
-48
-48
-48
-48
-48
-48
-48
-48
-48
-48
-48
-48
-49
-49
-49
-49
-49
-49
-49
-49
-48
-48
-49
-48
-48
-48
-48
-48
-48
-48
-48
-47
-47
-47
-47
-48
-48
-48
-48
-48
-48
-48
-48
-48
-50
-50
-50
-52
-53
-55
-56
-58
-60
-62
-63
-65
-67
-70
-72
-72
-74
-75
-75
-75
-75
-73
-71
-68
-65
-60
-55
-48
-40
-30
-20
-9
2
15
28
41
56
70
84
99
113
128
142
156
168
180
192
202
211
218
225
229
232
234
234
232
229
224
218
210
200
190
180
167
155
141
127
114
99
85
71
57
44
32
21
10
1
-8
-16
-22
-29
-33
-38
-41
-44
-47
-48
-49
-49
-50
-49
-49
-49
-48
-48
-47
-47
-46
-45
-44
-44
-43
-44
-44
-43
-43
-44
-44
-43
-43
-44
-44
-44
-45
-45
-45
-45
-45
-45
-45
-45
-46
-46
-46
-46
-46
-46
-45
-45
-45
-45
-45
-45
-45
-45
-45
-45
-45
-45
-45
-46
-46
-46
-46
-46
-46
-46
-46
-45
-46
-46
-46
-46
-46
-46
-46
-44
-44
-44
-44
-44
-44
-44
-44
-44
-44
-44
-44
-44
-43
-42
-42
-42
-42
-42
-42
-42
-42
-42
-42
-42
-42
-42
-42
-42
-42
-42
-42
-42
-42
-42
-42
-42
-42
-42
-42
-42
-41
-41
-41
-41
-41
-40
-40
-40
-39
-39
-39
-39
-39
-39
-39
-39
-38
-38
-38
-38
-38
-38
-38
-38
-37
-37
-37
-37
-37
-37
-36
-36
-36
-35
-35
-35
-34
-34
-34
-33
-33
-33
-32
-32
-31
-31
-31
-31
-30
-30
-30
-29
-28
-28
-27
-27
-27
-26
-26
-25
-24
-24
-22
-22
-22
-22
-21
-20
-20
-19
-18
-18
-17
-16
-16
-15
-14
-14
-13
-13
-12
-11
-11
-10
-9
-9
-8
-7
-7
-5
-5
-4
-3
-3
-2
-1
-1
0
2
2
3
4
5
6
7
8
9
10
11
12
13
14
16
17
18
19
21
21
23
23
25
26
27
28
29
30
31
32
33
34
35
36
37
38
38
39
41
41
42
43
43
45
45
46
46
48
48
49
50
51
52
52
52
54
54
54
55
56
56
56
56
57
58
58
58
58
57
57
57
56
56
55
55
53
53
52
51
50
49
48
46
45
44
42
40
39
37
35
33
31
31
29
27
25
23
21
19
18
16
14
12
10
8
7
6
4
2
1
-1
-3
-4
-5
-7
-8
-10
-10
-12
-13
-14
-15
-16
-17
-18
-19
-20
-20
-22
-22
-23
-23
-24
-25
-26
-26
-26
-27
-28
-28
-28
-29
-30
-30
-30
-30
-31
-32
-32
-32
-33
-33
-33
-33
-33
-33
-34
-35
-35
-35
-35
-35
-35
-35
-36
-36
-36
-36
-36
-36
-36
-36
-36
-37
-37
-37
-37
-37
-37
-37
-37
-37
-37
-37
-37
-37
-37
-37
-37
-37
-37
-36
-36
-36
-36
-36
-37
-37
-37
-37
-37
-37
-37
-37
-37
-37
-37
-37
-37
-37
-38
-38
-38
-38
-38
-38
-37
-38
-38
-38
-38
-38
-38
-39
-39
-38
-38
-37
-37
-37
-38
-38
-37
-37
-37
-37
-37
-37
-37
-37
-37
-37
-38
-38
-38
-38
-38
-38
-38
-38
-38
-38
-38
-38
-38
-38
-38
-38
-38
-38
-38
-38
-38
-38
-38
-38
-38
-38
-38
-38
-38
-38
-38
-38
-38
-38
-38
-36
-36
-36
-36
-36
-36
-36
-36
-36
-36
-36
-36
-36
-36
-36
-36
-36
-36
-36
-36
-36
-36
-36
-36
-36
-36
-36
-36
-36
-36
-36
-36
-36
-36
-37
-37
-37
-37
-37
-37
-37
-36
-36
-36
-36
-36
-36
-36
-36
-36
-36
-36
-36
-36
-37
-36
-36
-36
-36
-36
-36
-36
-36
-36
-36
-36
-36
-36
-36
-36
-36
-36
-36
-36
-36
-36
-36
-36
-36
-36
-36
-36
-36
-36
-36
-36
-36
-36
-36
-36
-36
-36
-36
-36
-36
-36
-36
-36
-36
-37
-37
-37
-37
-37
-37
-37
-37
-37
-38
-38
-38
-38
-38
-38
-38
-37
-37
-37
-37
-37
-37
-36
-36
-36
-36
-37
-37
-37
-36
-36
-36
-37
-37
-35
-36
-36
-35
-35
-35
-35
-35
-34
-34
-34
-33
-33
-32
-32
-32
-32
-32
-31
-30
-29
-29
-29
-29
-29
-28
-28
-28
-28
-27
-28
-28
-27
-27
-27
-26
-27
-27
-27
-27
-27
-26
-26
-26
-26
-26
-26
-26
-27
-26
-26
-26
-27
-26
-26
-26
-27
-27
-27
-27
-27
-27
-27
-27
-26
-26
-26
-26
-26
-26
-26
-25
-25
-25
-25
-25
-25
-25
-24
-24
-25
-25
-25
-25
-26
-26
-26
-26
-27
-28
-28
-29
-29
-29
-30
-31
-31
-31
-33
-33
-33
-34
-34
-35
-36
-36
-36
-36
-37
-38
-38
-39
-39
-39
-39
-40
-40
-40
-41
-41
-42
-42
-41
-41
-41
-42
-42
-42
-42
-42
-42
-42
-43
-43
-43
-43
-43
-44
-44
-44
-44
-44
-44
-44
-44
-44
-44
-44
-44
-43
-43
-43
-43
-43
-43
-43
-43
-43
-43
-43
-43
-43
-43
-44
-44
-44
-44
-43
-43
-43
-44
-44
-44
-44
-45
-45
-46
-46
-47
-47
-47
-48
-49
-50
-52
-54
-54
-56
-58
-60
-61
-63
-65
-67
-69
-70
-71
-72
-72
-71
-70
-68
-66
-62
-57
-53
-47
-38
-30
-21
-11
0
13
26
39
52
66
80
95
109
124
138
152
165
178
189
200
210
218
225
231
234
237
237
236
234
229
224
217
208
198
188
176
164
150
136
123
108
93
80
66
52
40
27
16
7
-3
-11
-18
-24
-29
-35
-38
-42
-43
-46
-47
-47
-47
-47
-47
-46
-46
-45
-44
-44
-43
-42
-42
-41
-40
-40
-39
-39
-40
-39
-39
-39
-38
-39
-39
-39
-39
-40
-40
-40
-40
-40
-40
-41
-41
-41
-41
-41
-41
-41
-41
-42
-42
-42
-42
-42
-42
-42
-42
-41
-40
-40
-41
-41
-41
-41
-41
-41
-41
-41
-41
-41
-41
-40
-41
-40
-40
-40
-40
-40
-40
-39
-40
-40
-40
-40
-39
-39
-39
-39
-39
-39
-38
-38
-38
-38
-38
-38
-38
-38
-37
-37
-37
-37
-37
-37
-37
-37
-37
-37
-37
-37
-37
-37
-37
-37
-36
-36
-36
-36
-35
-34
-34
-34
-34
-33
-33
-33
-33
-33
-33
-33
-33
-33
-32
-32
-32
-32
-32
-32
-31
-31
-31
-31
-31
-31
-29
-29
-29
-29
-29
-28
-28
-28
-28
-28
-27
-27
-26
-26
-26
-25
-25
-25
-24
-24
-24
-23
-23
-22
-22
-22
-21
-21
-20
-20
-20
-20
-19
-19
-19
-18
-18
-18
-17
-17
-17
-17
-16
-16
-15
-15
-15
-14
-13
-13
-12
-12
-10
-10
-10
-8
-8
-6
-6
-5
-4
-3
-2
-1
0
1
1
3
3
4
5
6
7
8
8
10
10
11
12
13
13
15
15
16
17
18
20
20
21
22
23
25
25
27
28
28
30
31
32
33
35
35
36
37
38
39
40
42
42
43
44
45
46
47
47
49
49
50
51
52
52
52
54
54
55
55
55
56
56
57
58
58
58
59
59
59
59
59
59
59
59
58
58
58
56
56
55
55
54
52
52
50
49
49
47
45
44
43
42
40
38
38
36
34
33
31
29
27
26
24
22
20
19
17
15
13
12
11
9
7
5
4
2
1
-1
-3
-4
-6
-7
-8
-10
-10
-12
-14
-14
-16
-17
-17
-19
-19
-20
-20
-21
-21
-23
-23
-24
-24
-25
-25
-26
-26
-27
-27
-27
-27
-27
-29
-28
-29
-29
-29
-30
-30
-30
-30
-30
-30
-30
-30
-30
-31
-31
-31
-31
-31
-32
-32
-32
-32
-32
-32
-32
-33
-33
-33
-33
-34
-34
-34
-34
-34
-34
-34
-34
-34
-34
-34
-35
-34
-34
-34
-34
-35
-35
-35
-35
-35
-35
-35
-35
-35
-34
-34
-34
-34
-35
-35
-34
-34
-35
-35
-35
-35
-34
-34
-34
-34
-34
-34
-34
-34
-34
-34
-34
-34
-34
-34
-34
-34
-33
-34
-34
-34
-34
-34
-34
-34
-35
-35
-35
-35
-35
-35
-35
-35
-35
-35
-35
-35
-35
-35
-35
-35
-35
-35
-35
-35
-35
-34
-34
-34
-34
-34
-34
-33
-33
-33
-33
-33
-33
-33
-33
-32
-32
-32
-32
-32
-31
-31
-31
-32
-32
-32
-31
-31
-32
-32
-32
-32
-32
-32
-32
-32
-31
-32
-32
-32
-32
-32
-33
-33
-33
-32
-32
-32
-32
-33
-33
-33
-32
-32
-32
-32
-32
-32
-32
-33
-33
-33
-32
-32
-32
-32
-32
-32
-32
-32
-32
-32
-32
-32
-32
-32
-32
-32
-31
-32
-32
-32
-32
-32
-32
-32
-32
-32
-32
-32
-32
-32
-32
-32
-33
-33
-33
-33
-33
-33
-34
-34
-34
-34
-34
-34
-34
-34
-34
-34
-34
-34
-35
-34
-34
-33
-33
-33
-33
-33
-33
-33
-34
-34
-33
-33
-33
-33
-33
-33
-33
-33
-33
-33
-33
-33
-33
-33
-33
-33
-33
-33
-33
-33
-33
-33
-33
-34
-34
-34
-33
-33
-33
-34
-34
-34
-34
-34
-34
-34
-34
-34
-34
-34
-34
-34
-34
-33
-33
-33
-32
-32
-32
-31
-31
-31
-30
-30
-29
-29
-29
-28
-28
-28
-27
-27
-27
-27
-27
-26
-26
-25
-25
-25
-25
-25
-24
-24
-24
-24
-25
-25
-24
-24
-24
-24
-24
-24
-24
-23
-23
-23
-23
-23
-23
-23
-23
-23
-23
-23
-23
-23
-23
-23
-23
-22
-22
-22
-21
-21
-21
-21
-22
-21
-21
-21
-21
-21
-20
-20
-20
-20
-20
-19
-19
-19
-19
-20
-20
-20
-21
-22
-22
-22
-23
-23
-24
-24
-25
-26
-26
-27
-28
-28
-29
-29
-31
-31
-31
-31
-31
-32
-32
-32
-33
-34
-34
-34
-34
-34
-35
-35
-34
-34
-34
-34
-34
-35
-35
-35
-35
-36
-36
-36
-36
-36
-38
-38
-38
-38
-38
-38
-38
-39
-39
-39
-39
-40
-40
-40
-40
-39
-39
-40
-40
-40
-40
-40
-40
-40
-40
-40
-39
-39
-39
-39
-40
-40
-40
-40
-40
-40
-40
-40
-40
-40
-40
-41
-41
-41
-41
-42
-42
-42
-43
-44
-45
-46
-46
-48
-50
-51
-53
-55
-57
-59
-60
-62
-64
-66
-67
-68
-69
-69
-69
-67
-65
-63
-60
-56
-51
-44
-37
-29
-19
-9
3
14
27
41
54
68
83
97
112
126
140
155
167
180
192
203
212
222
228
233
238
240
240
239
237
233
227
221
212
202
191
179
168
153
140
127
112
97
84
70
56
43
32
21
11
2
-7
-15
-21
-26
-31
-34
-37
-39
-42
-43
-43
-44
-44
-43
-43
-42
-41
-41
-40
-39
-39
-38
-38
-37
-37
-36
-36
-37
-37
-36
-36
-37
-37
-38
-38
-37
-38
-38
-38
-38
-38
-39
-39
-39
-39
-39
-39
-40
-40
-40
-40
-40
-40
-40
-39
-39
-39
-39
-39
-39
-39
-39
-38
-38
-38
-38
-38
-38
-38
-38
-38
-38
-37
-37
-37
-37
-37
-37
-37
-37
-37
-37
-36
-36
-36
-36
-36
-36
-36
-36
-36
-36
-35
-35
-35
-35
-35
-35
-35
-35
-35
-35
-35
-34
-34
-33
-33
-33
-33
-33
-33
-33
-33
-33
-33
-32
-32
-32
-32
-32
-32
-32
-32
-32
-30
-31
-31
-31
-31
-30
-30
-30
-29
-29
-29
-29
-29
-29
-28
-28
-28
-28
-28
-28
-27
-27
-27
-27
-27
-27
-26
-25
-25
-25
-25
-25
-24
-24
-24
-23
-23
-23
-23
-23
-23
-23
-22
-22
-22
-22
-21
-21
-21
-21
-20
-20
-20
-19
-18
-18
-18
-18
-16
-16
-16
-16
-14
-14
-13
-12
-12
-11
-10
-10
-9
-9
-7
-7
-7
-5
-5
-4
-3
-3
-3
-1
-1
-1
1
1
1
2
3
3
5
5
7
7
9
9
10
11
12
13
15
15
17
18
19
20
22
22
24
25
26
26
28
29
31
31
33
34
35
35
37
38
39
40
41
42
43
44
45
46
47
47
49
49
50
51
52
52
54
54
54
55
56
56
57
58
59
59
60
60
60
62
62
63
63
63
63
63
63
64
64
64
63
62
62
62
61
60
60
59
58
57
57
55
55
53
52
51
49
47
46
45
43
41
39
37
36
34
32
30
29
27
25
23
21
18
16
15
13
12
10
9
7
5
5
3
1
1
-1
-1
-3
-4
-5
-6
-7
-8
-9
-10
-11
-11
-12
-13
-15
-15
-15
-16
-17
-18
-18
-18
-20
-20
-21
-21
-21
-22
-23
-24
-24
-24
-25
-25
-25
-26
-27
-27
-27
-27
-28
-28
-29
-29
-29
-29
-29
-30
-30
-30
-30
-30
-30
-30
-31
-31
-31
-31
-31
-31
-31
-31
-31
-31
-31
-31
-31
-31
-32
-32
-32
-32
-32
-32
-32
-32
-32
-32
-32
-32
-32
-32
-32
-32
-32
-32
-31
-31
-31
-31
-31
-31
-31
-32
-32
-32
-32
-31
-31
-31
-31
-32
-32
-32
-32
-32
-32
-32
-31
-31
-31
-31
-31
-31
-31
-31
-31
-31
-31
-31
-31
-31
-31
-31
-31
-31
-31
-31
-31
-31
-31
-31
-31
-31
-31
-31
-32
-32
-31
-31
-31
-31
-31
-32
-32
-31
-31
-31
-32
-32
-32
-32
-32
-32
-32
-31
-30
-30
-31
-31
-31
-31
-30
-30
-29
-29
-29
-29
-29
-29
-29
-29
-29
-30
-30
-30
-31
-31
-31
-31
-31
-31
-31
-31
-31
-31
-31
-31
-31
-30
-30
-30
-30
-29
-29
-30
-30
-30
-30
-30
-30
-30
-30
-30
-30
-30
-30
-30
-31
-31
-31
-31
-31
-31
-31
-31
-31
-31
-31
-31
-31
-30
-29
-29
-30
-30
-30
-30
-30
-30
-30
-30
-30
-30
-30
-30
-30
-30
-31
-31
-31
-31
-31
-31
-31
-31
-31
-31
-31
-31
-31
-31
-30
-30
-30
-30
-30
-30
-30
-31
-31
-31
-31
-31
-31
-31
-31
-31
-31
-31
-31
-31
-31
-31
-31
-31
-31
-31
-31
-32
-32
-32
-32
-32
-32
-32
-32
-31
-31
-31
-31
-31
-31
-31
-31
-31
-31
-31
-31
-31
-31
-31
-31
-31
-31
-31
-32
-32
-32
-32
-32
-32
-32
-32
-32
-32
-32
-32
-32
-32
-32
-32
-31
-31
-31
-31
-31
-31
-31
-31
-31
-31
-31
-31
-30
-30
-30
-30
-30
-29
-29
-29
-29
-29
-28
-28
-27
-27
-26
-26
-26
-25
-25
-25
-25
-24
-23
-23
-23
-22
-22
-22
-22
-21
-21
-21
-20
-21
-21
-21
-20
-20
-20
-20
-20
-20
-20
-20
-20
-20
-20
-20
-19
-19
-19
-19
-19
-19
-20
-20
-20
-19
-19
-19
-19
-20
-20
-20
-20
-20
-20
-20
-20
-20
-19
-19
-19
-20
-19
-19
-19
-19
-19
-19
-19
-20
-19
-20
-20
-20
-21
-21
-21
-21
-23
-23
-23
-24
-24
-24
-25
-25
-26
-27
-27
-28
-28
-29
-30
-30
-30
-30
-30
-30
-32
-32
-32
-32
-32
-33
-33
-34
-34
-34
-34
-34
-35
-35
-35
-35
-35
-35
-36
-37
-37
-37
-37
-37
-37
-37
-37
-37
-37
-37
-37
-37
-37
-36
-36
-37
-37
-37
-37
-37
-37
-37
-37
-37
-37
-38
-38
-38
-38
-38
-38
-38
-38
-38
-38
-38
-38
-38
-38
-38
-38
-38
-38
-38
-38
-38
-38
-39
-39
-39
-41
-41
-43
-44
-45
-48
-49
-52
-53
-55
-57
-59
-61
-62
-63
-64
-64
-64
-63
-61
-59
-55
-52
-46
-40
-33
-25
-15
-6
6
18
31
43
57
72
86
100
115
129
144
158
171
184
196
206
216
225
233
239
243
246
246
245
243
239
234
227
219
209
198
188
175
162
148
135
120
105
92
77
64
51
38
27
18
8
0
-8
-15
-20
-25
-29
-32
-35
-37
-38
-39
-39
-38
-39
-38
-38
-37
-37
-36
-36
-35
-35
-34
-34
-34
-33
-33
-33
-34
-34
-34
-34
-34
-35
-35
-35
-36
-36
-36
-36
-36
-37
-37
-37
-37
-37
-37
-37
-38
-38
-37
-36
-36
-36
-36
-36
-36
-36
-36
-36
-36
-36
-36
-36
-36
-35
-35
-35
-35
-35
-35
-35
-35
-35
-35
-35
-34
-34
-33
-33
-33
-33
-33
-33
-33
-33
-33
-33
-33
-33
-33
-33
-33
-33
-33
-32
-32
-32
-32
-32
-32
-32
-32
-32
-32
-32
-31
-31
-31
-31
-31
-31
-30
-29
-29
-29
-29
-29
-29
-29
-28
-28
-28
-28
-29
-27
-27
-27
-27
-28
-28
-27
-27
-26
-27
-27
-26
-26
-26
-26
-26
-26
-26
-26
-25
-25
-25
-24
-24
-24
-24
-24
-24
-23
-23
-23
-22
-21
-21
-21
-21
-21
-20
-20
-20
-20
-20
-18
-18
-18
-18
-17
-17
-17
-17
-16
-16
-16
-15
-14
-14
-14
-13
-13
-12
-12
-12
-12
-11
-11
-10
-9
-9
-9
-9
-8
-7
-7
-6
-6
-5
-5
-3
-3
-2
-2
0
0
1
3
3
5
5
7
8
8
10
10
12
14
14
16
16
17
18
19
20
21
23
23
23
25
26
27
28
29
30
31
32
33
34
35
36
37
38
39
40
41
42
43
44
45
46
47
49
50
50
52
52
53
55
55
56
57
58
59
59
61
61
62
62
62
64
64
64
64
64
64
65
66
66
66
66
66
66
66
66
66
65
65
65
64
63
63
62
61
60
60
58
57
56
54
53
51
51
49
47
45
44
42
40
39
37
35
33
31
29
27
25
24
22
20
19
17
15
13
12
10
8
6
6
4
2
2
0
-1
-3
-3
-5
-5
-7
-7
-9
-9
-11
-11
-12
-13
-13
-14
-15
-16
-16
-17
-18
-18
-19
-20
-20
-20
-21
-21
-22
-22
-23
-23
-24
-24
-24
-24
-24
-25
-25
-26
-26
-26
-26
-26
-27
-27
-27
-26
-26
-26
-26
-26
-26
-26
-26
-27
-27
-27
-27
-27
-27
-27
-27
-27
-27
-27
-28
-28
-28
-28
-28
-28
-28
-28
-28
-28
-28
-28
-28
-28
-28
-28
-28
-27
-27
-27
-28
-28
-27
-27
-28
-28
-28
-28
-28
-28
-29
-29
-29
-29
-29
-29
-29
-29
-29
-29
-29
-29
-29
-30
-30
-30
-30
-30
-30
-30
-29
-29
-29
-29
-29
-29
-29
-29
-29
-29
-29
-29
-29
-29
-28
-28
-28
-28
-29
-29
-29
-29
-29
-29
-29
-29
-29
-29
-29
-29
-30
-30
-30
-30
-30
-30
-30
-29
-29
-29
-29
-29
-29
-29
-29
-30
-30
-30
-29
-29
-29
-29
-29
-29
-29
-29
-29
-29
-29
-29
-29
-30
-29
-29
-29
-29
-29
-29
-29
-29
-29
-29
-29
-29
-29
-29
-29
-29
-29
-29
-29
-29
-29
-29
-29
-29
-29
-28
-28
-28
-28
-28
-28
-28
-29
-29
-29
-29
-29
-28
-28
-28
-28
-28
-28
-28
-28
-28
-28
-28
-28
-28
-28
-28
-28
-30
-30
-30
-29
-29
-30
-30
-30
-30
-30
-30
-30
-30
-30
-30
-30
-30
-30
-30
-29
-29
-30
-30
-29
-29
-29
-29
-30
-30
-30
-30
-30
-31
-31
-31
-30
-29
-29
-29
-29
-29
-30
-30
-30
-30
-30
-30
-30
-30
-30
-30
-30
-30
-30
-30
-30
-30
-30
-31
-31
-31
-31
-31
-31
-31
-31
-31
-31
-32
-32
-32
-32
-31
-31
-32
-33
-33
-32
-32
-32
-32
-32
-32
-32
-32
-32
-32
-32
-32
-32
-31
-31
-31
-31
-31
-32
-32
-32
-31
-31
-31
-30
-30
-30
-30
-29
-29
-28
-28
-28
-28
-27
-27
-27
-27
-26
-25
-25
-25
-25
-25
-24
-23
-23
-23
-23
-23
-24
-23
-23
-23
-22
-22
-22
-22
-21
-21
-22
-22
-22
-22
-22
-22
-22
-22
-22
-21
-20
-20
-20
-21
-21
-21
-21
-21
-21
-21
-21
-21
-21
-22
-22
-22
-22
-22
-22
-22
-22
-22
-21
-21
-21
-21
-21
-21
-20
-20
-21
-20
-21
-21
-22
-22
-22
-23
-23
-23
-24
-24
-25
-26
-26
-27
-28
-28
-28
-30
-30
-31
-31
-32
-33
-33
-33
-33
-33
-35
-35
-35
-36
-36
-36
-36
-37
-37
-37
-37
-37
-37
-37
-37
-37
-37
-38
-38
-38
-38
-38
-38
-38
-39
-39
-39
-39
-39
-39
-39
-39
-40
-40
-40
-40
-40
-40
-41
-41
-41
-41
-41
-41
-41
-41
-42
-43
-43
-42
-42
-42
-42
-42
-42
-42
-42
-42
-43
-43
-43
-43
-43
-43
-43
-43
-43
-44
-45
-45
-47
-47
-48
-50
-52
-54
-54
-56
-58
-60
-62
-64
-66
-68
-69
-69
-70
-71
-70
-69
-67
-64
-60
-56
-51
-45
-37
-30
-20
-9
2
14
26
39
54
68
82
97
111
126
140
154
168
180
192
202
212
222
228
234
238
241
241
240
237
233
227
220
212
202
191
179
166
154
139
126
111
96
82
68
54
41
30
19
8
-1
-9
-17
-23
-28
-33
-37
-40
-42
-43
-44
-45
-46
-46
-46
-46
-46
-45
-43
-44
-42
-43
-41
-42
-41
-41
-40
-40
-40
-40
-40
-40
-40
-41
-41
-41
-41
-41
-41
-41
-41
-42
-42
-42
-42
-42
-42
-42
-42
-42
-42
-42
-42
-42
-42
-42
-42
-42
-42
-42
-42
-43
-43
-42
-42
-42
-42
-42
-42
-42
-42
-42
-42
-42
-42
-42
-42
-42
-42
-42
-41
-41
-41
-41
-41
-41
-41
-41
-40
-40
-40
-40
-40
-40
-40
-40
-40
-39
-39
-39
-39
-39
-39
-39
-39
-39
-39
-38
-38
-38
-38
-38
-38
-38
-38
-38
-39
-39
-38
-38
-37
-37
-37
-37
-37
-37
-37
-36
-36
-36
-36
-36
-36
-36
-36
-35
-34
-34
-34
-34
-34
-34
-34
-34
-34
-34
-33
-33
-33
-33
-34
-33
-32
-32
-32
-32
-31
-31
-31
-30
-29
-29
-29
-28
-28
-28
-27
-27
-26
-26
-25
-25
-25
-25
-24
-24
-23
-23
-23
-23
-23
-22
-22
-22
-22
-21
-21
-21
-21
-21
-20
-20
-18
-18
-18
-17
-16
-16
-15
-14
-13
-13
-12
-11
-10
-10
-8
-7
-6
-5
-4
-4
-2
-2
0
1
1
2
3
4
4
6
6
7
8
9
10
10
12
13
13
14
15
16
17
17
19
19
21
22
22
24
24
26
26
28
28
30
30
32
33
34
35
36
37
38
39
40
41
42
43
43
45
45
46
48
48
49
49
50
50
52
52
53
53
54
54
55
55
55
56
56
56
56
55
55
55
55
55
55
54
53
53
52
51
49
49
47
47
45
43
42
41
39
37
36
34
32
31
29
27
26
24
23
21
20
18
16
15
14
12
10
9
7
6
4
2
1
-1
-2
-4
-6
-7
-9
-10
-11
-13
-15
-17
-17
-19
-20
-21
-23
-23
-25
-25
-26
-27
-27
-28
-29
-29
-30
-30
-31
-31
-32
-32
-32
-33
-33
-34
-34
-35
-35
-35
-35
-36
-36
-36
-36
-37
-37
-37
-38
-38
-38
-39
-39
-39
-40
-40
-40
-40
-41
-41
-41
-41
-41
-41
-42
-42
-42
-42
-42
-42
-42
-42
-42
-41
-42
-42
-42
-42
-42
-42
-42
-41
-41
-41
-41
-41
-40
-40
-40
-41
-41
-41
-41
-41
-41
-41
-42
-41
-41
-41
-42
-42
-42
-42
-42
-43
-43
-44
-44
-44
-44
-44
-44
-44
-44
-43
-43
-44
-44
-44
-44
-44
-44
-44
-43
-43
-43
-43
-43
-43
-43
-43
-42
-42
-42
-42
-42
-42
-43
-43
-43
-43
-43
-43
-42
-42
-43
-43
-43
-43
-43
-43
-44
-43
-43
-43
-43
-43
-43
-43
-43
-43
-43
-43
-43
-44
-43
-43
-43
-44
-44
-44
-44
-44
-44
-44
-44
-44
-44
-44
-43
-42
-42
-43
-43
-42
-42
-41
-41
-41
-41
-41
-41
-41
-41
-40
-40
-40
-40
-40
-41
-41
-41
-41
-41
-41
-41
-42
-42
-42
-42
-42
-42
-43
-43
-42
-42
-42
-42
-43
-43
-43
-43
-43
-42
-42
-43
-43
-43
-43
-43
-42
-42
-42
-42
-42
-43
-43
-43
-43
-43
-43
-43
-43
-43
-43
-43
-43
-44
-44
-44
-44
-44
-44
-44
-44
-44
-44
-44
-44
-44
-44
-45
-44
-44
-44
-44
-44
-44
-44
-44
-44
-44
-44
-44
-44
-44
-44
-44
-45
-45
-45
-45
-45
-45
-45
-45
-45
-45
-44
-44
-44
-44
-44
-44
-43
-43
-43
-43
-43
-43
-43
-43
-43
-44
-44
-44
-44
-44
-44
-44
-44
-44
-45
-45
-45
-45
-45
-45
-45
-45
-44
-45
-45
-45
-45
-45
-45
-44
-45
-45
-45
-44
-44
-44
-43
-44
-44
-44
-43
-42
-42
-41
-41
-41
-40
-39
-39
-39
-38
-38
-37
-36
-36
-36
-36
-35
-35
-35
-35
-35
-35
-35
-35
-35
-35
-35
-35
-35
-34
-34
-34
-34
-34
-34
-34
-34
-34
-34
-34
-34
-33
-33
-33
-33
-33
-33
-34
-34
-34
-34
-34
-34
-34
-34
-33
-33
-33
-33
-34
-33
-33
-33
-33
-33
-33
-35
-34
-35
-34
-35
-35
-35
-36
-36
-37
-37
-37
-39
-39
-39
-40
-41
-42
-42
-43
-43
-44
-44
-44
-45
-46
-46
-47
-47
-47
-47
-47
-49
-49
-49
-49
-49
-49
-49
-50
-50
-51
-51
-51
-51
-51
-52
-52
-52
-52
-52
-52
-52
-52
-52
-52
-53
-53
-53
-53
-53
-53
-53
-54
-54
-54
-53
-53
-53
-52
-52
-52
-52
-52
-52
-52
-52
-52
-53
-52
-52
-52
-52
-53
-54
-54
-54
-54
-54
-54
-55
-56
-56
-56
-56
-57
-57
-57
-59
-60
-61
-62
-63
-65
-67
-69
-71
-73
-75
-77
-78
-80
-81
-82
-82
-82
-82
-80
-77
-75
-71
-66
-59
-53
-44
-35
-25
-13
-1
11
24
39
53
67
82
96
111
125
139
152
165
176
187
197
206
212
218
222
225
225
224
221
218
211
204
197
187
176
166
152
140
126
113
98
85
70
56
43
30
19
7
-3
-12
-20
-27
-35
-41
-45
-49
-53
-55
-57
-58
-60
-60
-60
-60
-60
-59
-58
-58
-57
-56
-55
-55
-55
-53
-54
-53
-53
-52
-52
-52
-52
-52
-52
-51
-51
-52
-52
-52
-52
-51
-51
-51
-51
-51
-51
-50
-50
-50
-50
-50
-51
-51
-51
-51
-51
-51
-52
-52
-52
-52
-52
-52
-52
-54
-54
-53
-53
-53
-53
-54
-54
-54
-54
-54
-54
-54
-54
-54
-54
-53
-53
-52
-52
-52
-52
-52
-51
-51
-51
-50
-50
-50
-49
-49
-49
-48
-48
-48
-48
-48
-48
-47
-47
-47
-48
-48
-48
-47
-47
-47
-47
-47
-48
-48
-48
-48
-48
-48
-48
-47
-47
-47
-47
-47
-47
-46
-46
-46
-46
-46
-46
-46
-46
-46
-45
-44
-45
-45
-44
-44
-44
-44
-44
-44
-44
-44
-43
-43
-43
-43
-42
-42
-42
-41
-40
-40
-39
-39
-38
-38
-38
-38
-37
-37
-37
-37
-36
-35
-35
-35
-35
-35
-34
-34
-34
-34
-33
-33
-33
-32
-31
-31
-31
-30
-30
-29
-28
-28
-27
-26
-26
-25
-25
-24
-23
-22
-21
-20
-19
-19
-18
-18
-17
-17
-15
-15
-14
-14
-13
-12
-12
-10
-10
-9
-8
-7
-6
-6
-5
-4
-3
-2
0
0
2
3
4
6
6
8
8
10
11
12
12
14
14
16
17
17
18
19
20
20
22
22
23
23
25
25
26
28
28
29
31
31
32
32
34
35
35
37
38
39
39
40
41
42
42
43
44
45
45
46
47
47
47
47
48
48
48
48
48
48
49
48
48
48
47
47
47
46
45
44
43
42
40
40
38
37
36
34
32
32
30
28
26
24
22
21
20
18
16
14
12
10
8
6
5
4
2
0
-2
-4
-6
-7
-8
-10
-11
-12
-14
-16
-18
-18
-20
-21
-22
-24
-24
-26
-28
-28
-30
-30
-32
-32
-34
-34
-36
-36
-36
-38
-38
-38
-39
-40
-40
-40
-41
-41
-41
-41
-41
-42
-42
-42
-42
-42
-42
-42
-42
-43
-43
-43
-43
-43
-43
-44
-44
-44
-44
-44
-44
-44
-44
-45
-46
-46
-46
-46
-46
-47
-47
-47
-47
-47
-47
-48
-48
-48
-48
-48
-48
-48
-48
-48
-48
-48
-48
-48
-48
-49
-49
-49
-49
-49
-49
-50
-50
-49
-49
-49
-50
-49
-49
-49
-49
-49
-49
-49
-50
-50
-49
-49
-49
-49
-49
-49
-49
-49
-48
-48
-49
-49
-49
-49
-49
-48
-48
-48
-49
-49
-49
-49
-49
-49
-49
-49
-49
-49
-49
-49
-49
-49
-49
-49
-49
-48
-48
-48
-48
-48
-48
-48
-48
-48
-48
-47
-47
-47
-47
-46
-46
-46
-46
-46
-46
-46
-46
-46
-46
-46
-46
-46
-46
-45
-45
-45
-45
-45
-45
-45
-45
-45
-45
-46
-46
-46
-46
-46
-46
-45
-45
-45
-45
-45
-45
-45
-45
-45
-45
-46
-46
-46
-46
-46
-45
-45
-45
-45
-45
-45
-45
-45
-45
-45
-45
-45
-45
-45
-44
-44
-44
-45
-45
-45
-45
-45
-45
-45
-45
-45
-45
-45
-45
-45
-45
-45
-45
-45
-45
-45
-45
-45
-46
-46
-46
-46
-46
-46
-46
-46
-46
-46
-46
-46
-46
-46
-47
-47
-47
-47
-47
-47
-47
-47
-47
-47
-47
-47
-47
-47
-47
-47
-47
-47
-47
-47
-47
-47
-48
-48
-48
-48
-48
-48
-48
-48
-48
-48
-48
-48
-48
-48
-48
-48
-48
-48
-48
-49
-48
-48
-48
-48
-48
-48
-48
-48
-48
-49
-49
-49
-49
-49
-49
-49
-48
-49
-49
-49
-49
-49
-49
-49
-49
-49
-48
-48
-49
-49
-48
-48
-48
-48
-47
-47
-46
-46
-45
-45
-44
-44
-44
-43
-43
-43
-42
-42
-42
-40
-40
-40
-40
-40
-39
-40
-40
-40
-39
-39
-39
-39
-39
-39
-39
-39
-39
-38
-39
-39
-38
-38
-38
-38
-38
-38
-37
-37
-38
-38
-38
-38
-38
-38
-38
-38
-38
-38
-38
-38
-38
-39
-39
-39
-38
-38
-39
-39
-39
-39
-39
-38
-38
-38
-38
-38
-38
-38
-38
-38
-38
-38
-38
-39
-39
-39
-40
-40
-40
-41
-41
-41
-42
-43
-43
-44
-44
-45
-46
-46
-47
-47
-47
-47
-49
-49
-49
-49
-49
-51
-51
-51
-51
-51
-52
-52
-53
-53
-53
-53
-53
-53
-53
-53
-54
-54
-54
-54
-54
-54
-54
-54
-54
-54
-53
-53
-53
-54
-54
-54
-54
-54
-54
-55
-55
-55
-55
-55
-55
-55
-55
-55
-55
-55
-55
-55
-56
-56
-56
-55
-55
-55
-56
-56
-56
-56
-56
-56
-56
-56
-56
-56
-58
-58
-59
-59
-61
-62
-63
-64
-66
-68
-69
-71
-73
-75
-77
-79
-80
-82
-84
-84
-84
-84
-83
-82
-80
-76
-73
-68
-62
-56
-48
-39
-30
-19
-7
5
18
31
45
59
74
89
104
118
132
145
157
170
181
192
201
210
216
221
224
226
226
224
221
217
210
203
194
185
174
162
149
136
121
108
93
79
64
51
37
25
14
3
-7
-17
-25
-32
-38
-43
-47
-51
-54
-56
-57
-59
-60
-60
-59
-59
-59
-58
-57
-56
-55
-55
-54
-53
-53
-53
-52
-52
-51
-51
-52
-52
-51
-52
-52
-52
-52
-53
-54
-54
-54
-54
-54
-54
-54
-55
-56
-56
-56
-56
-56
-56
-56
-56
-56
-56
-56
-55
-55
-55
-55
-55
-55
-54
-54
-54
-54
-54
-54
-54
-54
-54
-53
-53
-53
-53
-53
-53
-53
-53
-52
-52
-53
-53
-53
-51
-51
-51
-51
-51
-50
-50
-50
-50
-50
-50
-50
-50
-50
-50
-50
-50
-50
-50
-48
-48
-48
-48
-48
-48
-48
-48
-48
-48
-48
-48
-48
-47
-47
-47
-46
-46
-46
-46
-46
-46
-46
-46
-46
-46
-46
-46
-46
-46
-46
-46
-45
-46
-46
-46
-45
-45
-44
-44
-44
-44
-44
-44
-43
-43
-43
-43
-43
-42
-42
-42
-42
-42
-40
-40
-40
-40
-40
-38
-38
-38
-38
-38
-37
-36
-36
-36
-36
-35
-35
-34
-34
-34
-33
-33
-33
-32
-32
-32
-30
-30
-30
-29
-28
-28
-27
-27
-26
-26
-25
-24
-23
-23
-22
-21
-21
-19
-19
-18
-17
-17
-16
-15
-15
-14
-13
-13
-11
-11
-11
-9
-9
-8
-7
-6
-6
-4
-3
-2
-1
-1
1
2
3
5
5
7
8
9
10
10
12
13
14
15
17
17
18
19
21
22
22
24
24
26
27
28
29
29
31
31
33
33
34
34
35
37
37
38
39
40
40
41
41
43
44
44
44
46
47
47
47
48
48
48
49
50
50
49
50
50
50
50
49
48
47
47
47
46
44
44
42
42
40
39
37
36
35
33
31
30
29
27
25
23
22
20
19
17
15
14
12
10
8
7
5
3
1
0
-1
-3
-4
-6
-8
-10
-11
-13
-14
-16
-17
-19
-19
-21
-22
-22
-24
-25
-26
-27
-28
-29
-30
-31
-31
-32
-33
-33
-35
-35
-35
-36
-37
-37
-38
-39
-39
-39
-39
-39
-41
-41
-41
-42
-42
-42
-43
-43
-43
-43
-43
-44
-44
-44
-45
-45
-45
-45
-46
-46
-46
-46
-46
-46
-46
-47
-47
-47
-47
-47
-47
-47
-47
-47
-47
-47
-47
-47
-47
-47
-46
-46
-47
-46
-46
-46
-46
-47
-47
-47
-47
-46
-46
-46
-46
-47
-47
-47
-47
-47
-47
-47
-48
-48
-48
-48
-49
-49
-49
-49
-49
-49
-49
-49
-49
-50
-50
-49
-49
-49
-49
-49
-49
-48
-48
-48
-48
-49
-48
-48
-48
-48
-48
-48
-48
-48
-48
-48
-48
-48
-48
-48
-48
-48
-48
-47
-47
-47
-47
-47
-47
-47
-47
-47
-47
-47
-47
-47
-47
-47
-47
-47
-47
-47
-47
-47
-47
-47
-47
-47
-47
-47
-47
-47
-47
-46
-46
-46
-46
-46
-46
-46
-46
-46
-46
-46
-45
-45
-45
-45
-46
-46
-46
-46
-46
-46
-46
-46
-46
-45
-46
-46
-46
-46
-46
-46
-46
-46
-46
-46
-47
-46
-46
-46
-47
-47
-46
-46
-46
-46
-46
-46
-46
-46
-46
-46
-46
-46
-46
-46
-46
-46
-46
-45
-45
-45
-45
-45
-45
-45
-45
-45
-45
-44
-44
-44
-44
-44
-44
-44
-45
-45
-45
-45
-45
-45
-45
-45
-46
-46
-46
-46
-46
-46
-46
-46
-46
-46
-46
-46
-46
-46
-46
-46
-46
-46
-46
-46
-46
-46
-46
-46
-46
-46
-46
-46
-46
-46
-46
-46
-47
-47
-47
-47
-47
-47
-48
-47
-47
-47
-47
-47
-48
-48
-48
-48
-48
-48
-48
-48
-48
-48
-48
-48
-48
-48
-48
-47
-47
-47
-48
-48
-48
-48
-48
-48
-48
-48
-48
-48
-48
-47
-47
-47
-47
-48
-47
-47
-46
-46
-46
-45
-45
-44
-44
-44
-43
-43
-42
-42
-42
-41
-41
-41
-40
-39
-39
-39
-38
-38
-38
-39
-37
-37
-37
-37
-38
-38
-38
-37
-37
-37
-38
-38
-38
-38
-38
-38
-38
-38
-38
-38
-38
-37
-37
-37
-37
-38
-37
-37
-37
-37
-38
-37
-37
-37
-37
-37
-37
-37
-37
-38
-38
-38
-38
-37
-37
-38
-37
-37
-37
-37
-37
-37
-37
-37
-38
-37
-37
-37
-37
-38
-37
-37
-39
-39
-39
-39
-40
-41
-41
-42
-42
-43
-43
-45
-45
-46
-46
-47
-47
-48
-48
-48
-49
-50
-50
-50
-51
-51
-51
-51
-51
-51
-51
-52
-52
-52
-52
-52
-52
-52
-53
-53
-54
-54
-54
-54
-54
-54
-54
-54
-54
-54
-54
-54
-54
-54
-54
-54
-54
-54
-54
-54
-54
-54
-54
-54
-54
-55
-55
-55
-55
-55
-55
-55
-55
-55
-55
-55
-54
-54
-54
-54
-54
-54
-54
-54
-54
-56
-56
-56
-56
-57
-57
-59
-60
-61
-62
-64
-65
-67
-69
-71
-73
-75
-76
-78
-79
-80
-82
-82
-82
-81
-79
-77
-74
-70
-65
-59
-52
-45
-36
-26
-14
-3
10
24
38
52
66
81
96
111
125
139
153
166
178
189
200
208
216
222
226
229
231
230
228
224
218
212
204
194
183
172
159
147
133
119
105
90
76
63
49
36
24
12
3
-7
-16
-23
-30
-35
-40
-45
-48
-51
-52
-54
-55
-56
-56
-56
-55
-55
-54
-54
-53
-53
-52
-52
-52
-51
-51
-51
-51
-50
-51
-51
-51
-51
-52
-52
-52
-53
-53
-52
-52
-53
-53
-53
-53
-54
-54
-54
-54
-55
-55
-55
-55
-54
-54
-54
-54
-54
-54
-53
-53
-53
-53
-53
-53
-53
-53
-52
-52
-52
-52
-52
-52
-52
-52
-52
-52
-52
-52
-51
-51
-51
-51
-51
-51
-50
-50
-50
-50
-50
-50
-50
-50
-50
-49
-49
-49
-49
-49
-49
-49
-49
-49
-48
-48
-47
-47
-47
-47
-47
-47
-47
-47
-47
-47
-46
-46
-46
-46
-46
-46
-46
-46
-46
-46
-46
-46
-46
-46
-45
-45
-45
-45
-45
-45
-45
-44
-44
-43
-43
-43
-43
-43
-42
-42
-42
-42
-42
-42
-40
-40
-40
-40
-40
-40
-39
-39
-39
-38
-38
-38
-38
-38
-37
-37
-37
-36
-36
-36
-36
-36
-36
-34
-34
-34
-34
-34
-33
-32
-32
-31
-31
-31
-31
-30
-30
-29
-29
-28
-28
-28
-27
-26
-25
-25
-25
-24
-24
-23
-23
-22
-21
-21
-20
-19
-19
-18
-17
-17
-16
-15
-15
-13
-13
-12
-11
-10
-10
-8
-8
-6
-6
-5
-4
-2
-2
0
0
1
3
3
5
6
7
8
10
11
13
13
15
17
17
19
20
22
22
24
24
26
27
28
29
30
31
32
32
34
35
35
37
37
38
39
40
40
42
42
43
43
45
45
46
46
47
48
48
49
49
49
50
50
50
50
50
50
51
51
51
50
50
49
50
48
48
47
46
45
44
43
43
41
39
38
36
35
34
32
30
28
26
25
23
21
19
17
15
13
11
9
7
5
4
2
1
-1
-3
-5
-6
-8
-10
-11
-12
-14
-16
-16
-18
-18
-20
-22
-22
-24
-24
-25
-26
-27
-28
-28
-29
-30
-31
-31
-32
-33
-33
-35
-35
-36
-36
-37
-37
-38
-38
-39
-39
-39
-40
-40
-40
-41
-41
-41
-42
-43
-43
-43
-43
-44
-44
-44
-44
-44
-44
-44
-45
-45
-45
-45
-45
-45
-45
-45
-45
-44
-44
-44
-44
-44
-44
-44
-44
-44
-44
-44
-45
-45
-45
-45
-45
-45
-45
-45
-45
-45
-45
-45
-45
-45
-45
-45
-45
-45
-45
-45
-45
-45
-45
-45
-45
-45
-45
-45
-45
-45
-45
-45
-45
-45
-45
-45
-45
-46
-46
-46
-46
-46
-46
-46
-46
-46
-46
-46
-46
-46
-46
-46
-46
-46
-46
-46
-46
-47
-46
-46
-46
-46
-46
-46
-46
-46
-46
-46
-46
-46
-46
-46
-46
-46
-46
-46
-46
-46
-45
-45
-45
-46
-46
-46
-46
-46
-46
-46
-46
-46
-46
-46
-46
-46
-46
-46
-46
-45
-45
-45
-45
-45
-45
-45
-45
-45
-45
-45
-45
-45
-45
-45
-45
-45
-45
-45
-45
-45
-44
-44
-44
-44
-45
-45
-45
-45
-45
-45
-45
-45
-45
-45
-45
-45
-44
-44
-44
-44
-44
-44
-44
-45
-45
-45
-45
-45
-45
-44
-45
-45
-45
-45
-45
-45
-45
-45
-46
-46
-46
-46
-46
-46
-46
-46
-46
-46
-46
-46
-46
-46
-46
-46
-46
-46
-46
-45
-45
-46
-46
-46
-45
-45
-45
-45
-45
-45
-45
-45
-45
-46
-46
-46
-46
-46
-46
-46
-45
-45
-46
-46
-46
-46
-46
-46
-46
-46
-46
-46
-46
-46
-46
-46
-46
-47
-47
-47
-47
-47
-48
-48
-47
-47
-47
-47
-47
-47
-47
-47
-47
-47
-47
-47
-46
-46
-46
-46
-46
-46
-46
-45
-45
-45
-45
-45
-45
-45
-45
-45
-45
-45
-44
-44
-44
-44
-44
-44
-43
-43
-43
-43
-43
-43
-42
-42
-41
-41
-40
-40
-40
-39
-39
-39
-38
-38
-38
-38
-37
-37
-36
-36
-36
-36
-36
-36
-35
-35
-35
-35
-34
-34
-34
-34
-34
-34
-34
-33
-33
-33
-33
-33
-33
-33
-33
-33
-33
-33
-32
-32
-33
-32
-32
-32
-32
-32
-32
-33
-33
-33
-33
-33
-33
-33
-33
-32
-32
-32
-32
-32
-32
-32
-32
-32
-32
-32
-32
-32
-32
-32
-33
-33
-34
-33
-34
-35
-35
-35
-35
-37
-37
-37
-38
-39
-39
-39
-40
-41
-41
-41
-41
-42
-42
-43
-43
-44
-44
-45
-45
-45
-45
-46
-46
-46
-46
-46
-47
-48
-48
-48
-48
-48
-48
-48
-48
-48
-48
-48
-49
-49
-49
-49
-49
-49
-49
-49
-49
-50
-50
-50
-50
-50
-50
-50
-50
-50
-50
-50
-50
-50
-50
-51
-51
-51
-51
-51
-51
-51
-51
-51
-51
-51
-51
-51
-51
-51
-51
-50
-50
-51
-52
-52
-52
-53
-53
-53
-55
-56
-58
-59
-61
-63
-65
-67
-70
-71
-73
-74
-76
-78
-79
-80
-80
-79
-78
-76
-74
-70
-66
-61
-54
-46
-39
-29
-18
-7
4
18
31
45
60
74
88
103
117
133
146
159
173
184
196
205
214
222
227
232
235
235
235
232
228
223
216
208
198
187
176
163
150
136
122
109
93
80
65
52
38
27
16
5
-5
-12
-21
-26
-33
-38
-41
-44
-47
-49
-50
-50
-51
-52
-52
-52
-51
-51
-50
-50
-49
-49
-48
-48
-48
-47
-47
-47
-47
-48
-47
-47
-48
-48
-48
-48
-48
-49
-49
-49
-49
-49
-49
-49
-49
-49
-49
-49
-50
-50
-50
-50
-50
-50
-50
-50
-50
-50
-50
-50
-50
-50
-50
-50
-50
-50
-50
-50
-49
-49
-49
-49
-49
-49
-49
-49
-49
-49
-49
-49
-49
-49
-49
-49
-49
-49
-48
-48
-48
-48
-48
-48
-47
-47
-47
-47
-47
-47
-46
-46
-45
-45
-45
-45
-44
-44
-45
-45
-45
-45
-45
-45
-45
-44
-44
-44
-44
-44
-43
-43
-43
-43
-43
-43
-43
-43
-43
-43
-42
-42
-42
-41
-41
-41
-41
-41
-41
-41
-41
-41
-41
-40
-40
-40
-40
-40
-40
-39
-39
-39
-39
-39
-39
-38
-37
-37
-37
-37
-36
-36
-36
-35
-35
-35
-34
-34
-33
-33
-33
-32
-32
-32
-31
-31
-31
-31
-30
-29
-29
-29
-29
-28
-27
-27
-27
-26
-26
-25
-25
-24
-23
-23
-23
-22
-21
-21
-20
-19
-19
-19
-18
-17
-16
-16
-14
-14
-13
-12
-12
-10
-10
-8
-8
-7
-6
-5
-5
-3
-2
-1
0
1
2
3
4
5
6
7
8
9
10
11
12
13
14
16
17
18
19
20
21
22
24
24
26
26
28
29
30
31
33
33
35
35
36
38
38
40
40
42
43
43
45
45
45
47
47
48
48
49
50
50
51
51
53
53
53
54
54
54
54
55
55
55
54
54
54
54
53
53
53
52
51
50
50
48
47
46
45
44
42
41
40
38
36
35
33
31
30
29
27
25
23
21
19
17
15
13
11
9
8
6
4
3
1
-1
-3
-5
-6
-7
-9
-10
-12
-12
-14
-16
-16
-18
-19
-20
-21
-22
-23
-24
-25
-26
-27
-28
-28
-29
-30
-30
-30
-32
-32
-32
-34
-34
-34
-35
-36
-36
-36
-37
-37
-38
-38
-38
-39
-39
-39
-39
-40
-40
-41
-41
-41
-41
-42
-42
-42
-42
-42
-42
-42
-42
-42
-42
-42
-42
-42
-42
-42
-42
-42
-41
-41
-41
-41
-41
-42
-42
-42
-42
-42
-42
-42
-43
-43
-43
-43
-43
-43
-43
-43
-43
-43
-43
-43
-43
-43
-43
-43
-43
-44
-44
-44
-44
-44
-44
-44
-45
-44
-44
-45
-45
-45
-45
-45
-45
-45
-45
-45
-45
-45
-45
-45
-45
-45
-45
-45
-45
-45
-45
-45
-45
-45
-45
-45
-45
-45
-45
-45
-45
-45
-45
-45
-45
-44
-44
-44
-44
-45
-45
-45
-45
-45
-45
-45
-45
-45
-45
-45
-45
-45
-45
-45
-44
-45
-45
-45
-45
-45
-45
-45
-46
-46
-46
-46
-46
-46
-46
-47
-46
-46
-46
-46
-46
-47
-47
-47
-47
-47
-47
-47
-47
-46
-46
-46
-46
-45
-45
-45
-45
-45
-45
-44
-44
-44
-44
-45
-45
-44
-44
-44
-44
-44
-44
-44
-44
-44
-44
-44
-44
-45
-45
-45
-46
-46
-46
-46
-46
-46
-46
-46
-46
-46
-46
-46
-46
-46
-46
-46
-47
-47
-47
-47
-46
-46
-46
-46
-46
-46
-46
-47
-46
-46
-46
-46
-46
-46
-46
-46
-46
-46
-47
-47
-47
-47
-48
-47
-47
-47
-47
-47
-47
-47
-47
-48
-48
-48
-48
-48
-47
-47
-47
-48
-47
-47
-48
-48
-48
-47
-47
-47
-47
-47
-47
-47
-47
-47
-47
-47
-47
-47
-48
-48
-47
-47
-47
-47
-47
-47
-47
-47
-47
-47
-47
-47
-47
-47
-47
-47
-47
-47
-47
-47
-47
-47
-47
-47
-47
-47
-47
-48
-48
-48
-48
-48
-48
-48
-48
-48
-49
-48
-48
-48
-48
-48
-47
-47
-47
-47
-46
-46
-46
-45
-45
-45
-45
-44
-44
-44
-43
-42
-42
-41
-41
-41
-41
-41
-40
-40
-39
-39
-38
-38
-38
-38
-38
-38
-39
-39
-39
-39
-38
-38
-38
-38
-38
-37
-37
-37
-37
-37
-37
-36
-36
-36
-36
-36
-36
-36
-36
-35
-35
-35
-35
-35
-35
-36
-36
-36
-36
-36
-37
-36
-36
-36
-36
-37
-37
-36
-36
-37
-37
-37
-36
-36
-36
-36
-36
-37
-37
-36
-37
-36
-37
-36
-38
-37
-38
-37
-39
-39
-39
-40
-41
-42
-42
-42
-44
-44
-44
-45
-46
-46
-46
-48
-48
-48
-49
-49
-49
-49
-50
-50
-50
-50
-51
-51
-51
-52
-52
-51
-51
-51
-51
-52
-52
-52
-52
-52
-52
-52
-52
-53
-53
-54
-54
-54
-54
-54
-54
-54
-55
-55
-55
-55
-55
-55
-55
-55
-55
-54
-54
-54
-54
-54
-54
-54
-54
-54
-54
-54
-54
-53
-53
-53
-54
-55
-55
-55
-55
-56
-56
-58
-58
-59
-60
-61
-63
-65
-67
-68
-70
-72
-74
-76
-78
-80
-81
-83
-83
-84
-83
-82
-80
-78
-76
-72
-67
-61
-54
-46
-37
-27
-16
-4
8
22
35
50
64
79
94
108
122
136
150
162
175
187
198
206
214
221
226
229
230
230
228
225
220
214
205
197
187
175
164
150
136
123
109
94
80
65
52
39
26
15
4
-6
-14
-23
-29
-36
-41
-45
-48
-51
-54
-55
-56
-56
-57
-57
-57
-56
-56
-55
-55
-55
-53
-54
-53
-52
-52
-52
-52
-52
-52
-52
-52
-52
-53
-53
-52
-52
-53
-53
-54
-54
-54
-55
-55
-55
-55
-55
-55
-55
-55
-55
-55
-55
-55
-56
-56
-56
-56
-56
-56
-56
-56
-56
-56
-56
-56
-55
-55
-55
-55
-54
-54
-54
-54
-54
-54
-54
-53
-53
-53
-53
-53
-53
-53
-52
-52
-52
-52
-52
-52
-52
-52
-52
-52
-52
-52
-51
-51
-51
-51
-51
-50
-50
-50
-50
-50
-50
-50
-50
-50
-50
-49
-49
-49
-49
-49
-49
-49
-49
-49
-49
-49
-49
-49
-49
-49
-48
-48
-48
-48
-48
-47
-46
-47
-47
-47
-46
-46
-46
-46
-46
-45
-45
-45
-45
-45
-45
-44
-43
-43
-43
-43
-43
-42
-42
-42
-42
-41
-41
-41
-41
-40
-40
-39
-39
-39
-38
-38
-38
-38
-38
-37
-37
-37
-37
-37
-37
-36
-36
-36
-35
-34
-34
-33
-33
-33
-31
-31
-31
-29
-29
-28
-28
-26
-26
-25
-24
-23
-22
-21
-21
-19
-19
-18
-18
-17
-16
-15
-14
-13
-13
-12
-11
-10
-10
-10
-9
-7
-7
-6
-6
-4
-4
-3
-1
-1
0
2
2
3
4
5
6
7
9
9
11
11
13
13
14
16
17
18
19
20
21
22
23
25
26
26
28
29
30
31
33
33
33
35
35
37
37
39
39
40
41
41
42
43
44
44
44
45
46
46
46
47
47
47
48
48
48
48
48
47
48
48
46
46
46
45
44
44
43
42
41
40
39
38
37
35
34
33
31
29
28
27
25
23
21
20
19
17
15
14
12
10
8
6
5
3
1
-1
-3
-5
-7
-9
-10
-12
-13
-15
-16
-18
-20
-21
-22
-23
-25
-27
-27
-29
-29
-31
-31
-33
-33
-34
-35
-36
-37
-37
-38
-39
-40
-41
-41
-43
-43
-43
-43
-44
-45
-45
-45
-46
-46
-46
-47
-47
-47
-47
-47
-47
-47
-48
-48
-48
-48
-48
-48
-49
-49
-49
-49
-49
-49
-50
-50
-50
-50
-50
-50
-50
-50
-50
-51
-51
-50
-50
-51
-51
-51
-51
-51
-51
-52
-52
-52
-52
-52
-52
-52
-52
-52
-53
-53
-53
-53
-53
-53
-53
-53
-53
-53
-53
-53
-53
-53
-53
-54
-54
-54
-54
-53
-53
-53
-53
-53
-53
-53
-53
-53
-53
-53
-53
-53
-53
-53
-53
-53
-53
-53
-53
-53
-53
-53
-53
-53
-53
-53
-53
-53
-54
-54
-54
-54
-54
-55
-55
-55
-55
-56
-55
-55
-55
-55
-55
-55
-55
-55
-56
-56
-56
-55
-55
-54
-54
-54
-54
-54
-54
-54
-53
-54
-54
-54
-53
-53
-53
-53
-53
-52
-52
-52
-52
-52
-52
-52
-52
-52
-52
-51
-51
-51
-52
-52
-52
-52
-52
-52
-51
-52
-52
-52
-52
-52
-52
-52
-52
-52
-52
-52
-52
-52
-54
-54
-54
-54
-54
-53
-53
-53
-53
-53
-53
-53
-53
-53
-53
-52
-52
-52
-52
-53
-53
-52
-52
-52
-52
-52
-52
-52
-52
-52
-52
-52
-53
-53
-53
-53
-53
-53
-53
-53
-53
-53
-53
-53
-53
-53
-53
-53
-53
-54
-54
-54
-54
-54
-55
-55
-55
-54
-54
-54
-55
-55
-55
-55
-54
-54
-54
-54
-54
-54
-55
-55
-55
-55
-55
-55
-55
-55
-55
-55
-55
-55
-56
-56
-56
-56
-56
-56
-56
-56
-56
-56
-56
-56
-56
-56
-56
-57
-57
-57
-57
-57
-57
-57
-57
-57
-57
-57
-57
-57
-57
-57
-57
-57
-57
-57
-57
-57
-56
-56
-57
-57
-57
-56
-56
-57
-57
-56
-56
-56
-56
-57
-56
-56
-56
-55
-55
-55
-55
-55
-55
-54
-53
-53
-53
-52
-52
-52
-51
-51
-50
-49
-49
-48
-48
-48
-47
-47
-46
-46
-45
-45
-45
-45
-44
-44
-45
-45
-45
-45
-45
-45
-45
-45
-45
-45
-45
-45
-46
-45
-45
-45
-46
-45
-45
-45
-46
-46
-45
-45
-45
-45
-45
-45
-45
-46
-46
-46
-46
-47
-46
-46
-46
-46
-46
-46
-45
-45
-45
-45
-45
-45
-46
-46
-46
-46
-46
-46
-47
-47
-47
-47
-48
-49
-49
-49
-49
-50
-50
-51
-51
-52
-52
-53
-53
-54
-54
-54
-55
-55
-56
-56
-57
-57
-57
-58
-58
-58
-58
-59
-59
-59
-59
-59
-59
-59
-59
-59
-59
-60
-61
-61
-61
-61
-60
-61
-61
-61
-61
-61
-61
-61
-61
-61
-61
-61
-61
-62
-62
-62
-62
-62
-62
-62
-62
-62
-63
-63
-63
-63
-63
-63
-63
-63
-64
-64
-64
-64
-64
-63
-63
-63
-63
-63
-64
-64
-65
-65
-65
-65
-66
-67
-68
-69
-72
-72
-75
-77
-79
-80
-83
-85
-87
-89
-90
-92
-92
-92
-93
-91
-91
-89
-85
-81
-76
-70
-63
-55
-46
-36
-26
-13
-1
12
26
40
54
68
84
98
112
126
138
151
164
175
186
195
203
209
214
217
219
219
217
214
209
203
196
186
177
165
153
140
127
113
99
85
70
57
42
29
17
6
-5
-15
-24
-32
-40
-45
-51
-56
-60
-62
-65
-66
-67
-67
-68
-68
-68
-67
-66
-66
-65
-64
-63
-62
-63
-61
-60
-60
-59
-60
-59
-59
-59
-60
-60
-59
-59
-60
-60
-60
-60
-62
-62
-62
-62
-63
-63
-63
-64
-64
-64
-64
-64
-64
-65
-65
-64
-64
-64
-64
-64
-64
-64
-64
-63
-63
-62
-62
-62
-62
-61
-61
-62
-61
-61
-61
-61
-61
-60
-60
-60
-60
-60
-60
-60
-60
-60
-61
-61
-61
-61
-61
-61
-61
-61
-60
-60
-60
-60
-60
-60
-60
-60
-60
-59
-60
-60
-60
-60
-60
-59
-59
-59
-59
-59
-59
-58
-58
-57
-57
-57
-56
-56
-56
-55
-55
-55
-55
-55
-55
-54
-53
-53
-53
-53
-54
-53
-52
-52
-53
-53
-53
-52
-52
-52
-52
-52
-51
-51
-51
-51
-51
-51
-50
-49
-50
-49
-49
-49
-49
-49
-49
-49
-48
-48
-48
-48
-48
-47
-47
-46
-46
-45
-45
-45
-45
-43
-43
-43
-42
-42
-42
-40
-40
-40
-39
-38
-38
-37
-37
-36
-36
-35
-34
-34
-33
-33
-32
-31
-31
-31
-29
-29
-29
-28
-28
-26
-26
-25
-24
-24
-23
-22
-21
-21
-19
-18
-17
-16
-15
-14
-13
-11
-10
-9
-8
-7
-6
-5
-3
-2
-1
0
1
2
3
5
5
7
8
9
11
12
12
14
14
16
16
18
18
20
21
21
22
23
24
24
25
25
27
28
28
29
30
30
31
31
32
33
33
35
35
36
36
37
37
39
39
39
39
40
40
40
40
41
41
41
41
41
40
40
39
38
38
37
37
35
35
33
33
31
29
29
27
25
24
23
21
19
17
15
14
12
10
8
7
5
3
1
0
-2
-4
-6
-8
-10
-12
-14
-15
-16
-18
-19
-21
-22
-24
-25
-26
-28
-29
-30
-32
-32
-34
-34
-36
-37
-38
-39
-39
-40
-41
-41
-42
-43
-44
-45
-45
-46
-47
-47
-48
-48
-48
-48
-50
-50
-50
-50
-50
-51
-51
-51
-52
-52
-52
-52
-52
-52
-52
-53
-53
-53
-53
-53
-53
-54
-54
-54
-54
-54
-53
-53
-53
-53
-54
-54
-54
-55
-54
-54
-54
-55
-54
-54
-54
-54
-54
-54
-54
-54
-55
-55
-55
-55
-55
-55
-55
-55
-55
-55
-55
-55
-56
-56
-56
-56
-57
-56
-57
-57
-57
-57
-57
-56
-56
-56
-56
-56
-56
-57
-57
-57
-57
-57
-57
-57
-57
-56
-56
-56
-56
-56
-56
-56
-56
-56
-56
-56
-56
-56
-56
-56
-56
-56
-55
-55
-55
-55
-55
-55
-55
-55
-55
-55
-55
-54
-54
-54
-54
-55
-55
-55
-55
-55
-55
-55
-55
-55
-55
-55
-55
-55
-55
-55
-55
-55
-54
-54
-54
-54
-54
-54
-54
-54
-54
-54
-54
-53
-53
-53
-53
-53
-53
-53
-53
-53
-53
-53
-54
-54
-54
-54
-54
-54
-53
-54
-54
-54
-54
-53
-53
-53
-53
-53
-53
-53
-53
-53
-53
-53
-53
-53
-53
-52
-52
-52
-52
-52
-52
-52
-53
-53
-53
-53
-53
-53
-53
-53
-53
-53
-53
-53
-53
-53
-53
-53
-53
-53
-53
-53
-53
-53
-52
-52
-52
-52
-52
-52
-52
-53
-53
-53
-53
-53
-53
-53
-53
-53
-54
-54
-54
-54
-54
-54
-54
-54
-54
-54
-53
-53
-53
-53
-53
-53
-53
-53
-54
-53
-53
-53
-53
-53
-53
-53
-54
-53
-53
-53
-53
-53
-53
-53
-54
-54
-54
-54
-54
-54
-54
-55
-55
-55
-55
-55
-55
-55
-55
-55
-55
-55
-55
-55
-55
-55
-54
-54
-54
-54
-54
-54
-54
-54
-54
-54
-54
-54
-54
-54
-54
-54
-54
-54
-54
-54
-54
-54
-54
-54
-54
-54
-54
-55
-54
-54
-54
-54
-54
-54
-54
-54
-54
-55
-55
-55
-55
-55
-54
-54
-54
-54
-54
-53
-53
-53
-53
-53
-52
-52
-52
-51
-51
-50
-50
-50
-50
-50
-49
-49
-49
-48
-48
-48
-47
-47
-47
-47
-46
-45
-45
-45
-45
-45
-45
-45
-45
-45
-45
-45
-45
-45
-45
-44
-44
-44
-44
-44
-45
-44
-44
-44
-43
-43
-43
-43
-43
-43
-43
-43
-43
-43
-43
-43
-43
-43
-43
-43
-43
-43
-43
-43
-43
-42
-43
-43
-43
-43
-43
-43
-42
-42
-42
-42
-42
-42
-42
-42
-42
-43
-43
-43
-43
-43
-44
-44
-45
-45
-46
-46
-46
-47
-47
-48
-49
-49
-50
-50
-51
-51
-51
-52
-52
-52
-52
-53
-53
-53
-54
-55
-55
-55
-55
-55
-55
-55
-55
-55
-55
-56
-56
-56
-56
-57
-57
-57
-56
-56
-57
-57
-58
-58
-58
-58
-58
-58
-58
-59
-59
-59
-59
-59
-59
-59
-59
-59
-59
-60
-60
-60
-60
-60
-60
-59
-59
-59
-59
-59
-58
-58
-58
-58
-58
-58
-58
-58
-58
-59
-59
-59
-60
-61
-61
-62
-63
-65
-67
-69
-70
-72
-74
-76
-78
-80
-82
-83
-85
-85
-85
-85
-85
-83
-81
-78
-75
-69
-64
-57
-49
-41
-31
-20
-8
4
17
31
45
59
74
88
102
116
130
145
158
170
183
193
202
210
217
222
227
228
228
228
225
220
214
208
199
189
178
166
153
141
126
112
98
83
70
56
42
30
18
7
-3
-13
-22
-29
-35
-40
-45
-49
-52
-54
-56
-57
-58
-58
-58
-59
-59
-58
-57
-56
-56
-55
-55
-54
-54
-54
-53
-53
-52
-53
-53
-53
-52
-53
-53
-53
-54
-54
-54
-54
-54
-53
-54
-54
-54
-54
-54
-54
-54
-54
-54
-54
-54
-54
-54
-54
-54
-54
-55
-55
-54
-54
-54
-54
-55
-54
-53
-53
-53
-53
-53
-53
-53
-53
-53
-53
-53
-53
-53
-53
-53
-53
-53
-53
-53
-53
-53
-53
-53
-53
-53
-53
-53
-53
-52
-52
-52
-51
-51
-51
-51
-51
-51
-50
-50
-50
-50
-49
-49
-49
-49
-48
-48
-48
-48
-48
-48
-48
-48
-48
-48
-48
-48
-47
-46
-46
-46
-46
-46
-46
-46
-46
-46
-46
-45
-45
-45
-45
-45
-45
-45
-44
-44
-44
-44
-44
-44
-43
-43
-43
-43
-42
-42
-42
-42
-41
-41
-40
-40
-40
-40
-40
-40
-38
-38
-38
-38
-38
-36
-36
-36
-36
-36
-35
-35
-34
-34
-34
-33
-33
-33
-32
-31
-31
-31
-30
-29
-29
-29
-28
-27
-27
-26
-26
-25
-24
-24
-23
-22
-22
-20
-20
-19
-18
-18
-17
-16
-15
-15
-14
-13
-12
-11
-10
-9
-8
-7
-7
-5
-4
-4
-2
-2
0
0
2
2
3
4
6
6
8
9
10
10
12
13
13
15
16
17
18
20
21
21
23
24
26
26
27
28
29
31
31
32
34
34
36
36
37
39
39
40
41
42
42
44
44
45
45
47
47
48
49
50
50
51
52
52
53
53
53
53
53
53
53
53
53
53
53
53
52
52
51
50
49
48
48
46
46
44
43
42
40
39
37
35
34
33
31
29
27
26
24
23
21
19
17
15
14
12
10
9
6
5
3
1
0
-2
-4
-6
-8
-8
-10
-12
-13
-15
-16
-17
-19
-19
-21
-21
-23
-23
-25
-25
-27
-27
-28
-29
-30
-31
-31
-32
-33
-33
-34
-35
-36
-36
-36
-37
-37
-38
-38
-38
-39
-39
-40
-40
-40
-40
-40
-41
-40
-40
-40
-40
-41
-41
-41
-41
-40
-40
-40
-40
-40
-40
-40
-41
-41
-41
-41
-42
-42
-42
-42
-42
-42
-42
-42
-43
-43
-43
-43
-43
-43
-43
-43
-43
-43
-43
-43
-43
-43
-43
-44
-44
-43
-43
-43
-43
-43
-43
-43
-43
-43
-43
-43
-43
-43
-43
-43
-42
-42
-43
-43
-44
-44
-44
-44
-44
-44
-44
-44
-44
-44
-45
-45
-45
-45
-45
-45
-45
-45
-45
-45
-45
-45
-45
-44
-44
-44
-44
-44
-44
-44
-44
-44
-43
-43
-43
-43
-43
-43
-43
-43
-43
-43
-43
-43
-43
-43
-43
-43
-43
-43
-43
-43
-43
-43
-44
-44
-44
-44
-44
-44
-44
-43
-43
-43
-44
-44
-44
-44
-43
-42
-42
-42
-42
-43
-43
-43
-43
-43
-43
-43
-43
-43
-43
-43
-43
-43
-43
-43
-43
-43
-43
-43
-43
-43
-43
-43
-43
-43
-43
-43
-43
-42
-42
-42
-42
-43
-43
-43
-43
-43
-43
-42
-42
-42
-42
-42
-42
-42
-42
-42
-42
-42
-42
-42
-42
-42
-42
-42
-42
-42
-42
-42
-42
-42
-42
-42
-42
-42
-43
-42
-42
-42
-42
-43
-43
-43
-43
-43
-44
-44
-44
-44
-44
-44
-44
-44
-44
-44
-44
-44
-44
-44
-44
-44
-43
-43
-43
-43
-43
-43
-43
-43
-43
-43
-43
-43
-43
-43
-43
-43
-43
-43
-43
-43
-44
-44
-44
-44
-44
-44
-44
-44
-44
-44
-44
-43
-43
-43
-43
-43
-43
-43
-43
-43
-43
-43
-43
-43
-43
-42
-42
-43
-43
-43
-44
-44
-44
-44
-44
-44
-44
-44
-45
-45
-45
-45
-45
-45
-45
-45
-45
-45
-45
-46
-46
-45
-45
-45
-44
-44
-44
-44
-44
-43
-43
-43
-43
-43
-44
-44
-43
-43
-43
-43
-42
-42
-42
-42
-41
-41
-41
-42
-41
-41
-41
-40
-40
-39
-39
-39
-37
-37
-37
-37
-36
-36
-36
-35
-35
-35
-35
-34
-34
-33
-34
-34
-33
-33
-34
-33
-33
-34
-33
-33
-33
-33
-33
-33
-33
-33
-33
-33
-33
-33
-33
-33
-33
-33
-33
-33
-33
-33
-33
-33
-33
-33
-33
-33
-33
-34
-33
-33
-33
-32
-32
-33
-33
-32
-32
-32
-32
-32
-32
-32
-32
-32
-32
-33
-32
-33
-33
-34
-34
-34
-34
-35
-36
-36
-37
-37
-38
-39
-39
-39
-40
-41
-41
-41
-42
-43
-43
-43
-43
-44
-45
-45
-45
-45
-46
-46
-46
-47
-47
-47
-47
-48
-48
-48
-48
-48
-48
-49
-49
-49
-49
-49
-49
-49
-49
-49
-49
-49
-49
-49
-49
-49
-48
-48
-48
-48
-49
-49
-49
-49
-49
-49
-49
-49
-49
-49
-49
-49
-49
-49
-49
-49
-49
-49
-49
-49
-49
-50
-50
-50
-50
-50
-51
-51
-52
-53
-53
-53
-55
-56
-57
-59
-60
-62
-64
-66
-68
-70
-72
-74
-76
-76
-78
-78
-78
-78
-77
-75
-73
-69
-66
-59
-54
-47
-38
-29
-18
-7
5
19
31
45
59
74
89
103
117
132
146
160
172
184
195
205
214
221
228
231
235
236
236
233
229
224
217
208
200
189
177
165
152
138
124
109
96
81
68
54
41
29
17
7
-2
-11
-18
-25
-32
-35
-40
-43
-46
-48
-49
-49
-50
-50
-51
-51
-50
-50
-49
-49
-48
-48
-47
-47
-47
-47
-46
-46
-47
-47
-46
-47
-47
-47
-47
-48
-48
-48
-48
-48
-48
-48
-49
-49
-49
-49
-49
-49
-49
-49
-49
-49
-49
-49
-49
-48
-48
-48
-48
-48
-48
-49
-49
-49
-49
-49
-49
-49
-49
-49
-48
-48
-48
-48
-48
-48
-48
-48
-48
-48
-48
-47
-46
-46
-46
-46
-46
-46
-46
-46
-46
-46
-46
-45
-45
-44
-44
-44
-44
-44
-44
-44
-44
-43
-43
-44
-44
-44
-44
-44
-44
-44
-44
-44
-44
-44
-44
-43
-43
-43
-43
-43
-42
-42
-42
-42
-42
-40
-40
-40
-40
-40
-40
-40
-40
-40
-40
-40
-40
-40
-40
-40
-40
-40
-40
-39
-39
-39
-39
-39
-38
-38
-38
-38
-37
-37
-36
-36
-36
-36
-35
-34
-34
-34
-34
-34
-33
-33
-32
-32
-32
-31
-31
-31
-31
-30
-30
-30
-29
-29
-28
-28
-28
-27
-27
-26
-26
-26
-25
-24
-24
-24
-23
-22
-22
-22
-20
-20
-20
-19
-18
-17
-17
-16
-15
-14
-14
-13
-12
-11
-10
-10
-8
-8
-6
-6
-4
-4
-2
-2
0
1
1
3
4
5
6
7
8
10
10
12
13
14
15
16
17
18
19
21
22
23
24
25
27
27
28
30
30
31
33
33
35
35
36
37
38
38
39
40
41
42
43
44
45
45
45
47
47
48
49
50
51
51
51
53
54
54
54
55
55
55
55
56
56
56
56
56
56
55
55
55
53
53
52
51
50
50
48
47
46
45
43
43
41
39
38
36
35
33
31
30
29
27
25
23
21
19
17
15
13
12
10
8
6
4
2
1
-1
-3
-4
-6
-7
-9
-10
-12
-14
-15
-17
-17
-19
-20
-21
-22
-23
-24
-25
-26
-26
-27
-28
-28
-30
-30
-30
-30
-32
-32
-32
-34
-34
-34
-34
-34
-36
-36
-36
-36
-36
-37
-38
-38
-38
-39
-39
-39
-39
-39
-39
-39
-40
-40
-40
-40
-41
-41
-41
-41
-41
-40
-40
-40
-40
-40
-40
-41
-41
-41
-41
-41
-41
-41
-41
-41
-41
-41
-41
-42
-42
-42
-42
-42
-42
-42
-41
-41
-41
-41
-41
-41
-41
-42
-42
-42
-42
-42
-41
-41
-42
-42
-42
-42
-42
-42
-42
-42
-41
-41
-41
-41
-41
-41
-41
-41
-41
-41
-41
-41
-41
-41
-42
-42
-41
-41
-41
-42
-42
-42
-42
-42
-42
-43
-43
-43
-43
-43
-43
-42
-42
-42
-42
-42
-42
-42
-42
-42
-42
-42
-42
-42
-42
-42
-42
-42
-41
-41
-41
-41
-41
-42
-42
-42
-42
-42
-42
-42
-42
-42
-42
-42
-42
-42
-42
-42
-42
-42
-42
-42
-42
-42
-42
-42
-41
-41
-41
-40
-40
-40
-40
-41
-41
-41
-41
-40
-40
-40
-39
-39
-39
-39
-39
-39
-39
-39
-40
-40
-40
-40
-40
-40
-40
-40
-40
-40
-40
-40
-40
-40
-40
-40
-40
-40
-40
-40
-40
-40
-40
-40
-40
-40
-40
-40
-40
-40
-39
-39
-39
-39
-39
-40
-40
-40
-39
-40
-40
-40
-40
-40
-40
-40
-40
-40
-40
-40
-40
-40
-40
-40
-40
-41
-41
-41
-41
-41
-41
-41
-41
-42
-42
-42
-42
-42
-42
-42
-42
-42
-42
-42
-42
-42
-42
-42
-42
-42
-42
-42
-43
-43
-43
-43
-43
-43
-43
-43
-42
-42
-42
-42
-42
