# Simple Text Format
# Sampling Rate (Hz):= 1200.00
# Resolution:= 12
# Labels:= ECG	 V4
# Age:=	62
# Gender:=	Feminino
73
97
121
147
171
196
219
242
263
283
302
317
329
340
346
350
350
347
340
329
314
296
275
253
227
200
171
141
111
80
50
19
-9
-36
-64
-89
-111
-132
-150
-166
-178
-189
-198
-204
-208
-211
-211
-211
-208
-206
-201
-197
-191
-186
-180
-174
-169
-163
-158
-153
-148
-142
-138
-135
-132
-129
-126
-124
-122
-121
-120
-118
-117
-117
-117
-116
-117
-116
-116
-116
-117
-117
-117
-117
-117
-117
-118
-118
-118
-118
-118
-118
-118
-118
-118
-117
-117
-117
-117
-117
-117
-117
-117
-117
-116
-116
-116
-115
-115
-115
-115
-114
-114
-114
-113
-113
-113
-113
-112
-112
-112
-112
-111
-111
-111
-111
-111
-111
-110
-110
-110
-110
-110
-110
-110
-109
-109
-109
-109
-108
-108
-107
-107
-106
-106
-106
-106
-105
-105
-105
-104
-104
-104
-104
-103
-103
-103
-102
-101
-101
-101
-101
-101
-100
-100
-100
-100
-99
-98
-98
-98
-98
-98
-98
-98
-97
-97
-97
-96
-96
-96
-95
-95
-95
-94
-94
-94
-94
-94
-93
-92
-92
-92
-91
-91
-91
-90
-89
-89
-88
-88
-87
-86
-85
-85
-84
-83
-83
-82
-82
-81
-81
-79
-80
-79
-78
-77
-77
-76
-76
-75
-75
-74
-74
-73
-72
-72
-70
-70
-69
-68
-67
-66
-65
-64
-62
-61
-61
-59
-58
-57
-56
-55
-53
-52
-51
-49
-48
-48
-46
-45
-44
-43
-41
-40
-39
-38
-37
-36
-34
-33
-31
-30
-28
-26
-25
-24
-23
-21
-19
-18
-16
-15
-13
-11
-10
-8
-7
-6
-4
-2
-1
0
2
3
4
5
6
7
8
10
10
12
13
14
16
16
18
18
20
20
22
23
24
25
25
27
27
28
30
30
30
32
32
32
33
33
33
33
34
34
34
34
35
35
35
36
36
35
34
34
33
32
32
31
30
29
27
26
25
22
20
19
16
14
11
9
7
4
1
-1
-4
-7
-10
-12
-15
-18
-20
-23
-26
-27
-30
-33
-35
-38
-40
-43
-46
-47
-50
-52
-55
-56
-58
-61
-63
-65
-67
-69
-71
-73
-75
-76
-78
-79
-81
-82
-83
-85
-85
-87
-87
-89
-89
-90
-91
-92
-92
-93
-94
-95
-95
-95
-97
-97
-98
-99
-99
-99
-101
-101
-101
-101
-101
-102
-102
-103
-103
-104
-104
-104
-104
-104
-105
-105
-105
-105
-106
-106
-106
-106
-106
-107
-107
-107
-107
-107
-107
-107
-107
-107
-107
-108
-108
-108
-108
-108
-108
-108
-108
-108
-108
-108
-108
-108
-108
-107
-107
-107
-108
-108
-108
-108
-109
-108
-108
-108
-108
-109
-109
-109
-109
-110
-110
-110
-110
-110
-110
-110
-110
-110
-110
-110
-110
-109
-109
-109
-109
-109
-109
-109
-109
-109
-109
-108
-108
-108
-108
-108
-108
-108
-108
-108
-108
-108
-108
-109
-109
-109
-109
-109
-109
-109
-109
-108
-108
-108
-108
-108
-108
-108
-108
-108
-108
-108
-108
-108
-108
-108
-108
-108
-108
-108
-108
-108
-107
-107
-107
-107
-107
-107
-107
-108
-108
-108
-108
-108
-108
-108
-108
-107
-107
-107
-107
-107
-107
-108
-108
-108
-108
-108
-108
-108
-108
-108
-108
-107
-107
-107
-107
-107
-107
-108
-108
-108
-108
-108
-106
-106
-107
-107
-107
-107
-107
-107
-107
-107
-107
-108
-108
-108
-109
-109
-109
-109
-109
-109
-110
-110
-111
-111
-111
-112
-112
-112
-112
-112
-112
-112
-112
-112
-112
-112
-112
-112
-112
-112
-112
-112
-112
-112
-112
-112
-111
-111
-111
-111
-111
-111
-111
-111
-111
-111
-111
-111
-112
-112
-112
-112
-112
-112
-113
-112
-112
-112
-112
-112
-112
-112
-113
-113
-113
-113
-113
-113
-113
-113
-114
-113
-113
-113
-113
-113
-113
-113
-113
-113
-113
-113
-113
-114
-113
-113
-113
-113
-113
-113
-113
-113
-113
-112
-112
-112
-112
-112
-112
-111
-111
-111
-111
-111
-110
-110
-110
-110
-110
-109
-109
-109
-107
-107
-107
-107
-106
-106
-105
-105
-104
-104
-104
-104
-104
-103
-103
-103
-103
-102
-102
-102
-102
-102
-102
-102
-102
-102
-101
-101
-101
-101
-101
-101
-101
-101
-102
-102
-101
-102
-102
-103
-103
-104
-104
-105
-105
-106
-106
-106
-106
-106
-107
-108
-108
-109
-109
-109
-109
-109
-109
-109
-109
-109
-108
-108
-109
-109
-109
-109
-109
-109
-109
-110
-111
-111
-111
-111
-112
-112
-112
-112
-112
-113
-113
-113
-113
-114
-114
-115
-115
-115
-114
-115
-115
-115
-114
-115
-115
-115
-115
-115
-115
-115
-115
-115
-116
-116
-116
-117
-118
-118
-118
-119
-120
-120
-120
-120
-121
-121
-121
-122
-122
-122
-122
-122
-122
-122
-122
-122
-122
-122
-122
-122
-122
-122
-122
-122
-122
-122
-122
-121
-120
-120
-120
-120
-120
-120
-120
-120
-120
-120
-120
-120
-120
-120
-120
-120
-120
-120
-121
-121
-121
-121
-121
-121
-122
-121
-122
-122
-123
-123
-124
-125
-126
-127
-128
-129
-129
-130
-130
-131
-131
-130
-130
-128
-126
-122
-119
-114
-108
-101
-91
-81
-69
-56
-41
-24
-6
15
35
58
80
104
129
152
176
200
222
244
265
284
300
315
327
336
341
343
342
338
329
318
302
284
263
239
214
186
158
128
99
69
38
9
-18
-45
-71
-95
-117
-136
-153
-167
-179
-189
-196
-201
-204
-205
-205
-204
-201
-197
-193
-188
-183
-176
-171
-165
-159
-153
-148
-143
-138
-134
-130
-126
-123
-121
-119
-117
-116
-115
-114
-113
-112
-111
-112
-112
-112
-113
-112
-112
-112
-112
-113
-113
-113
-113
-113
-113
-114
-114
-114
-114
-114
-114
-114
-113
-113
-113
-113
-113
-113
-113
-113
-113
-112
-112
-112
-112
-112
-112
-112
-111
-111
-111
-111
-111
-111
-110
-110
-110
-110
-110
-110
-109
-109
-109
-109
-107
-107
-107
-107
-107
-106
-105
-105
-105
-105
-105
-104
-104
-103
-103
-103
-104
-103
-102
-102
-103
-102
-102
-102
-102
-101
-101
-101
-101
-101
-101
-100
-100
-100
-100
-99
-99
-99
-98
-98
-97
-97
-97
-97
-96
-96
-96
-96
-95
-95
-95
-95
-95
-94
-94
-94
-92
-93
-93
-92
-91
-91
-90
-91
-91
-89
-89
-90
-89
-89
-88
-87
-86
-86
-85
-85
-85
-83
-83
-82
-82
-81
-81
-79
-79
-79
-78
-77
-76
-76
-75
-75
-74
-74
-72
-72
-71
-71
-70
-70
-68
-67
-67
-66
-65
-64
-63
-62
-60
-60
-59
-57
-57
-56
-54
-53
-52
-51
-50
-48
-48
-47
-45
-44
-43
-42
-41
-39
-38
-36
-36
-35
-33
-31
-30
-30
-28
-26
-25
-24
-23
-21
-20
-18
-18
-16
-15
-13
-11
-11
-9
-7
-7
-5
-4
-2
-2
0
2
2
4
5
6
8
9
10
12
12
14
16
16
18
18
20
21
21
23
23
25
25
26
27
28
28
29
30
30
31
32
32
33
33
33
33
33
34
34
34
34
33
33
33
33
32
31
30
30
28
28
27
25
24
22
21
20
18
16
15
12
11
8
6
3
0
-1
-4
-7
-10
-12
-15
-17
-20
-23
-25
-28
-30
-33
-35
-38
-41
-43
-46
-48
-50
-52
-55
-57
-59
-61
-64
-66
-68
-70
-72
-74
-75
-77
-78
-80
-81
-83
-84
-85
-85
-86
-87
-88
-89
-91
-91
-92
-93
-93
-94
-94
-96
-96
-97
-97
-97
-99
-99
-99
-101
-101
-101
-102
-102
-102
-102
-103
-103
-103
-103
-104
-105
-105
-105
-104
-105
-106
-106
-106
-106
-106
-106
-106
-106
-106
-106
-106
-106
-106
-106
-106
-106
-107
-107
-107
-107
-107
-107
-107
-107
-107
-107
-108
-108
-108
-108
-108
-108
-108
-108
-108
-108
-108
-108
-108
-108
-108
-108
-108
-108
-108
-108
-108
-108
-108
-108
-108
-108
-108
-108
-108
-109
-109
-109
-109
-109
-109
-109
-109
-109
-109
-109
-108
-108
-108
-108
-108
-108
-108
-108
-108
-108
-107
-107
-107
-107
-108
-108
-108
-108
-108
-108
-108
-108
-108
-108
-108
-108
-108
-108
-108
-108
-108
-108
-108
-108
-108
-107
-107
-107
-107
-107
-107
-108
-108
-108
-108
-108
-108
-108
-108
-108
-108
-108
-109
-109
-109
-109
-109
-109
-109
-109
-109
-109
-109
-109
-109
-109
-109
-108
-108
-108
-108
-108
-108
-108
-108
-108
-108
-108
-108
-108
-107
-107
-107
-108
-108
-108
-108
-108
-108
-108
-109
-109
-109
-109
-109
-109
-109
-109
-109
-109
-109
-109
-109
-109
-109
-109
-110
-110
-109
-109
-109
-110
-110
-110
-110
-110
-109
-109
-109
-109
-110
-110
-111
-111
-111
-111
-111
-111
-111
-111
-111
-112
-112
-112
-112
-112
-112
-112
-112
-112
-112
-112
-112
-112
-112
-112
-111
-111
-112
-112
-112
-112
-111
-111
-111
-111
-112
-112
-112
-112
-112
-111
-111
-111
-111
-111
-111
-111
-112
-112
-112
-113
-113
-112
-112
-112
-112
-112
-112
-112
-112
-112
-112
-112
-112
-112
-112
-112
-112
-112
-111
-111
-110
-110
-110
-110
-109
-108
-107
-107
-107
-106
-106
-105
-104
-104
-103
-103
-103
-103
-101
-101
-101
-101
-101
-101
-101
-101
-100
-100
-100
-100
-100
-100
-101
-101
-100
-100
-100
-101
-101
-101
-101
-101
-101
-101
-101
-101
-102
-102
-103
-103
-103
-104
-103
-104
-104
-104
-105
-104
-104
-104
-105
-105
-105
-105
-105
-105
-105
-105
-105
-104
-105
-105
-105
-105
-105
-105
-105
-105
-106
-106
-106
-107
-108
-108
-108
-109
-109
-109
-110
-111
-111
-111
-111
-112
-112
-112
-113
-113
-112
-113
-113
-113
-113
-114
-114
-114
-114
-114
-114
-115
-115
-115
-115
-116
-116
-117
-117
-117
-117
-118
-119
-119
-119
-119
-120
-120
-121
-121
-121
-121
-121
-121
-121
-121
-121
-121
-121
-121
-121
-121
-121
-120
-120
-120
-121
-121
-120
-120
-120
-120
-120
-120
-120
-120
-121
-120
-120
-120
-120
-120
-120
-120
-120
-120
-120
-120
-120
-120
-120
-120
-120
-120
-120
-119
-119
-119
-120
-120
-119
-120
-121
-122
-123
-124
-125
-126
-127
-127
-128
-130
-130
-129
-130
-129
-128
-125
-123
-119
-115
-108
-100
-92
-82
-69
-56
-39
-23
-4
16
37
60
83
106
130
154
178
201
224
245
266
283
299
313
324
332
336
338
335
330
322
309
292
274
253
229
203
176
148
119
89
60
30
3
-24
-51
-76
-99
-120
-139
-155
-168
-179
-188
-195
-199
-202
-204
-203
-202
-198
-195
-191
-185
-180
-174
-169
-163
-157
-151
-146
-141
-137
-133
-130
-125
-122
-120
-118
-117
-115
-114
-113
-113
-112
-111
-111
-111
-111
-111
-112
-112
-112
-113
-113
-113
-113
-113
-114
-114
-114
-114
-114
-114
-113
-113
-113
-113
-112
-112
-112
-112
-112
-112
-112
-111
-111
-111
-111
-111
-110
-110
-110
-110
-109
-108
-109
-109
-108
-108
-108
-108
-108
-106
-106
-106
-106
-105
-105
-105
-105
-104
-104
-104
-104
-104
-103
-102
-102
-102
-102
-102
-101
-101
-101
-101
-101
-101
-101
-101
-101
-101
-101
-100
-100
-100
-100
-100
-99
-99
-99
-99
-99
-99
-98
-97
-97
-97
-97
-96
-95
-95
-95
-95
-94
-94
-94
-94
-93
-93
-93
-93
-92
-92
-92
-92
-91
-91
-91
-91
-90
-90
-90
-90
-88
-88
-88
-87
-87
-87
-85
-85
-85
-84
-84
-83
-82
-82
-81
-81
-80
-80
-79
-79
-78
-77
-76
-75
-75
-74
-73
-73
-72
-71
-69
-69
-67
-66
-66
-65
-65
-63
-62
-62
-60
-60
-59
-57
-57
-56
-55
-54
-54
-53
-51
-51
-50
-49
-48
-47
-46
-45
-44
-42
-41
-41
-39
-38
-36
-36
-35
-33
-31
-31
-29
-28
-26
-25
-24
-22
-20
-20
-18
-16
-15
-14
-12
-10
-9
-8
-6
-5
-3
-2
0
0
2
3
5
6
7
8
10
11
12
13
15
15
15
17
18
18
20
21
21
23
23
24
24
26
26
27
28
28
29
30
30
31
31
31
31
32
32
33
33
33
33
33
33
33
33
32
32
30
30
29
28
26
26
25
23
22
20
19
17
14
13
11
9
6
4
2
-1
-3
-5
-7
-10
-13
-15
-18
-21
-22
-25
-28
-31
-34
-36
-38
-41
-44
-46
-48
-51
-53
-56
-58
-60
-61
-64
-65
-67
-70
-71
-73
-74
-76
-78
-79
-80
-81
-83
-84
-85
-86
-87
-88
-89
-90
-90
-91
-91
-92
-92
-94
-94
-94
-95
-95
-95
-97
-97
-97
-98
-98
-98
-98
-99
-99
-100
-100
-100
-100
-100
-100
-101
-101
-102
-102
-103
-103
-103
-104
-104
-104
-104
-105
-105
-105
-106
-106
-106
-106
-106
-106
-106
-106
-106
-106
-106
-106
-106
-106
-106
-106
-106
-106
-106
-106
-106
-106
-106
-106
-106
-106
-107
-107
-107
-107
-107
-107
-107
-107
-108
-108
-109
-109
-109
-109
-107
-108
-108
-108
-108
-108
-108
-109
-109
-107
-107
-107
-107
-107
-108
-108
-107
-107
-107
-107
-107
-107
-107
-107
-107
-107
-108
-108
-108
-108
-108
-108
-108
-108
-108
-108
-108
-108
-108
-108
-108
-108
-108
-108
-108
-108
-108
-108
-108
-108
-108
-108
-108
-108
-108
-108
-108
-108
-108
-108
-109
-108
-108
-108
-108
-108
-108
-108
-108
-108
-108
-108
-108
-108
-108
-108
-108
-108
-107
-107
-107
-107
-107
-107
-107
-107
-107
-107
-106
-106
-106
-106
-106
-106
-106
-107
-107
-107
-107
-107
-107
-107
-107
-107
-107
-107
-107
-107
-107
-107
-107
-107
-107
-107
-107
-108
-108
-108
-108
-108
-108
-108
-108
-108
-108
-108
-108
-108
-108
-108
-108
-109
-109
-109
-109
-109
-109
-109
-109
-109
-109
-109
-109
-110
-110
-110
-110
-110
-110
-110
-110
-110
-110
-110
-110
-110
-110
-110
-111
-111
-112
-112
-112
-112
-112
-112
-112
-112
-112
-112
-112
-112
-113
-113
-113
-113
-112
-112
-112
-112
-112
-112
-111
-111
-111
-110
-111
-111
-111
-111
-111
-110
-111
-111
-110
-111
-111
-110
-110
-110
-110
-110
-109
-109
-109
-108
-108
-107
-106
-105
-105
-105
-104
-104
-103
-103
-103
-102
-102
-102
-101
-101
-101
-101
-102
-101
-101
-101
-101
-101
-101
-101
-101
-101
-101
-100
-100
-101
-101
-101
-101
-101
-102
-101
-102
-102
-103
-102
-103
-104
-104
-105
-105
-105
-106
-106
-106
-107
-107
-107
-107
-107
-108
-108
-108
-108
-107
-107
-108
-107
-107
-107
-107
-107
-108
-108
-108
-107
-108
-108
-108
-108
-108
-109
-109
-110
-110
-110
-110
-111
-111
-111
-112
-112
-112
-113
-113
-113
-114
-114
-114
-114
-115
-115
-114
-115
-115
-115
-115
-116
-117
-117
-117
-117
-118
-118
-119
-119
-119
-120
-120
-120
-121
-121
-121
-121
-122
-122
-122
-122
-123
-123
-123
-123
-123
-123
-123
-123
-123
-124
-124
-124
-124
-123
-123
-123
-123
-123
-123
-123
-123
-123
-123
-123
-123
-123
-122
-123
-123
-123
-123
-123
-122
-122
-123
-123
-122
-122
-123
-123
-123
-123
-124
-124
-123
-124
-124
-125
-127
-128
-128
-129
-130
-131
-132
-133
-133
-134
-134
-134
-133
-133
-131
-127
-124
-120
-115
-108
-98
-89
-78
-64
-50
-34
-16
3
25
47
69
92
117
141
165
189
212
235
257
276
294
309
322
332
339
342
342
338
331
321
306
289
268
246
221
194
166
137
107
78
48
17
-9
-38
-64
-88
-111
-131
-149
-165
-177
-187
-196
-202
-205
-207
-208
-208
-205
-203
-198
-194
-188
-183
-176
-171
-165
-159
-154
-149
-144
-140
-136
-132
-129
-126
-124
-122
-120
-118
-118
-117
-116
-115
-115
-115
-115
-115
-115
-116
-116
-116
-116
-115
-115
-116
-116
-116
-116
-116
-115
-115
-115
-116
-115
-115
-115
-115
-114
-114
-114
-114
-112
-112
-113
-113
-113
-112
-112
-112
-112
-112
-112
-111
-111
-110
-111
-110
-110
-110
-110
-109
-109
-108
-109
-109
-108
-108
-107
-107
-107
-107
-106
-106
-105
-105
-105
-105
-105
-105
-105
-105
-105
-105
-105
-105
-105
-105
-105
-105
-105
-105
-105
-104
-104
-104
-104
-103
-103
-103
-103
-102
-101
-100
-100
-99
-99
-99
-98
-98
-97
-98
-97
-97
-96
-96
-95
-95
-95
-94
-94
-94
-92
-92
-92
-92
-91
-91
-90
-90
-89
-89
-89
-88
-88
-87
-87
-87
-86
-86
-85
-84
-84
-83
-83
-82
-82
-81
-81
-80
-80
-78
-78
-77
-76
-76
-74
-74
-73
-73
-72
-71
-71
-69
-69
-68
-67
-67
-66
-65
-64
-63
-63
-62
-61
-60
-59
-58
-57
-56
-54
-54
-53
-51
-50
-49
-48
-47
-45
-45
-43
-42
-40
-39
-38
-36
-36
-35
-33
-32
-30
-29
-28
-26
-26
-24
-23
-21
-20
-18
-17
-15
-15
-13
-11
-10
-8
-7
-6
-4
-3
-1
0
1
3
5
5
7
9
9
11
12
13
14
15
17
18
19
19
21
21
23
23
25
25
26
26
28
28
28
29
29
31
31
31
32
32
32
33
33
32
33
33
33
33
33
32
32
31
31
30
30
28
28
27
26
25
23
22
20
19
17
15
13
11
9
8
5
3
1
-1
-4
-6
-9
-12
-14
-17
-20
-22
-25
-28
-31
-33
-36
-38
-41
-43
-46
-49
-51
-53
-55
-58
-60
-62
-64
-66
-67
-70
-71
-73
-75
-76
-78
-80
-81
-82
-83
-85
-86
-87
-88
-90
-90
-92
-92
-93
-94
-95
-96
-96
-97
-97
-97
-97
-98
-98
-99
-99
-100
-101
-101
-101
-102
-102
-102
-102
-103
-103
-104
-104
-104
-104
-104
-105
-106
-106
-106
-106
-106
-106
-107
-107
-107
-107
-108
-108
-108
-108
-108
-108
-108
-109
-109
-109
-109
-109
-108
-108
-108
-109
-109
-109
-109
-109
-109
-109
-110
-110
-110
-109
-109
-109
-109
-110
-110
-110
-110
-110
-110
-110
-110
-110
-110
-110
-110
-110
-109
-109
-109
-109
-109
-109
-110
-110
-110
-110
-110
-109
-109
-109
-110
-110
-110
-110
-110
-110
-110
-111
-111
-111
-111
-111
-111
-111
-111
-111
-111
-111
-110
-110
-110
-110
-110
-110
-110
-110
-110
-109
-109
-109
-109
-109
-109
-109
-109
-109
-109
-108
-108
-108
-108
-108
-108
-108
-108
-107
-107
-107
-108
-108
-108
-107
-107
-107
-107
-107
-107
-107
-107
-107
-107
-107
-107
-107
-107
-107
-107
-108
-108
-108
-108
-108
-108
-108
-109
-109
-109
-109
-108
-108
-108
-108
-108
-108
-109
-109
-109
-108
-108
-108
-108
-108
-109
-109
-109
-109
-109
-109
-109
-109
-110
-110
-110
-110
-110
-110
-110
-110
-110
-110
-110
-110
-110
-110
-110
-110
-110
-110
-110
-111
-111
-111
-111
-111
-111
-112
-112
-112
-112
-112
-113
-113
-113
-113
-113
-113
-113
-114
-114
-114
-113
-113
-113
-113
-113
-113
-113
-114
-114
-113
-113
-113
-113
-113
-113
-113
-113
-113
-113
-113
-113
-113
-113
-113
-113
-113
-113
-114
-114
-114
-114
-114
-115
-115
-115
-114
-114
-114
-115
-114
-114
-114
-113
-113
-113
-113
-113
-113
-113
-113
-113
-113
-112
-112
-112
-111
-111
-111
-110
-110
-110
-109
-109
-108
-108
-108
-107
-107
-107
-106
-106
-105
-105
-105
-105
-104
-103
-103
-103
-103
-103
-102
-102
-102
-102
-102
-102
-102
-102
-102
-102
-102
-102
-101
-101
-101
-101
-101
-101
-101
-102
-102
-102
-102
-102
-103
-103
-103
-104
-104
-104
-104
-104
-105
-105
-105
-106
-107
-107
-107
-107
-107
-107
-107
-107
-107
-107
-106
-106
-106
-106
-106
-107
-107
-107
-107
-108
-108
-108
-108
-108
-109
-109
-109
-110
-110
-110
-111
-111
-112
-112
-113
-113
-113
-112
-112
-113
-113
-113
-113
-114
-114
-114
-114
-114
-115
-115
-115
-115
-115
-115
-115
-117
-117
-117
-117
-118
-119
-119
-119
-119
-120
-121
-121
-121
-121
-121
-122
-122
-122
-122
-122
-123
-123
-123
-123
-122
-122
-121
-121
-121
-121
-121
-121
-121
-121
-121
-120
-120
-120
-120
-121
-121
-121
-121
-121
-121
-121
-121
-121
-121
-121
-122
-122
-122
-122
-123
-122
-122
-123
-122
-123
-124
-124
-125
-125
-126
-127
-129
-129
-130
-131
-132
-132
-132
-132
-132
-131
-129
-128
-124
-119
-114
-106
-98
-88
-76
-63
-49
-32
-14
6
26
49
72
96
120
145
169
194
217
240
262
281
300
315
328
338
346
349
349
346
339
328
314
296
277
253
229
202
174
144
114
85
53
24
-4
-32
-58
-82
-105
-127
-145
-159
-172
-183
-191
-197
-202
-204
-205
-204
-201
-198
-194
-190
-184
-179
-174
-168
-162
-156
-150
-145
-141
-136
-132
-129
-125
-123
-120
-118
-116
-114
-114
-113
-112
-112
-112
-112
-112
-112
-112
-113
-113
-113
-113
-113
-114
-114
-114
-114
-114
-114
-115
-115
-114
-114
-114
-114
-114
-113
-113
-113
-113
-112
-112
-112
-112
-111
-111
-111
-111
-111
-111
-110
-110
-110
-109
-109
-109
-108
-108
-108
-107
-107
-107
-107
-106
-106
-106
-106
-105
-105
-105
-105
-104
-104
-104
-104
-103
-103
-103
-103
-102
-102
-102
-102
-101
-101
-100
-99
-99
-99
-99
-98
-98
-98
-98
-98
-97
-97
-97
-97
-97
-96
-96
-96
-96
-96
-95
-94
-95
-95
-94
-94
-93
-92
-92
-92
-91
-91
-91
-90
-90
-90
-89
-89
-89
-88
-88
-87
-87
-87
-86
-86
-86
-85
-84
-84
-83
-83
-83
-82
-82
-82
-80
-80
-79
-79
-79
-78
-78
-77
-77
-76
-76
-74
-74
-73
-73
-72
-72
-71
-70
-69
-68
-68
-67
-66
-65
-65
-64
-62
-62
-61
-60
-59
-58
-57
-56
-55
-55
-53
-52
-51
-50
-49
-47
-47
-46
-45
-44
-43
-42
-40
-40
-39
-38
-36
-35
-33
-33
-31
-30
-28
-27
-26
-24
-23
-21
-19
-18
-16
-14
-13
-11
-9
-8
-7
-5
-4
-3
-2
0
2
2
4
6
6
7
9
10
11
12
14
14
16
17
18
19
20
21
22
23
24
24
26
26
27
28
28
29
30
30
31
32
32
32
34
34
34
35
35
36
36
36
35
35
35
36
36
35
35
34
33
33
32
30
30
29
27
26
25
23
22
20
18
17
14
12
9
8
5
3
0
-3
-6
-8
-11
-14
-16
-19
-21
-24
-27
-30
-33
-35
-38
-40
-43
-44
-47
-49
-51
-53
-56
-57
-59
-61
-63
-65
-66
-68
-70
-72
-73
-75
-76
-77
-79
-81
-82
-83
-84
-85
-86
-88
-89
-89
-91
-92
-92
-93
-94
-94
-96
-96
-97
-97
-98
-98
-99
-100
-100
-101
-101
-101
-102
-102
-103
-103
-103
-103
-103
-105
-105
-105
-105
-105
-105
-105
-107
-107
-107
-107
-107
-107
-107
-107
-107
-107
-107
-107
-107
-107
-107
-107
-107
-107
-107
-107
-107
-107
-107
-107
-107
-107
-107
-107
-107
-107
-107
-107
-107
-107
-107
-107
-107
-107
-107
-109
-109
-109
-109
-108
-108
-108
-108
-109
-109
-109
-109
-109
-109
-109
-108
-108
-108
-108
-108
-108
-108
-108
-108
-108
-108
-108
-108
-108
-108
-108
-108
-108
-108
-108
-108
-108
-108
-108
-108
-108
-108
-108
-109
-109
-108
-108
-108
-108
-108
-109
-109
-108
-108
-108
-109
-109
-109
-109
-109
-109
-108
-108
-107
-107
-108
-108
-108
-108
-107
-107
-107
-107
-106
-106
-106
-106
-106
-106
-106
-107
-108
-108
-108
-108
-108
-108
-108
-108
-108
-108
-108
-108
-108
-108
-108
-107
-107
-106
-106
-106
-106
-107
-107
-107
-107
-107
-107
-107
-107
-107
-107
-107
-107
-107
-108
-109
-109
-109
-109
-109
-109
-109
-109
-109
-109
-109
-109
-108
-108
-108
-110
-110
-110
-110
-110
-110
-110
-110
-110
-110
-110
-110
-110
-110
-110
-110
-110
-110
-110
-110
-110
-110
-110
-110
-110
-110
-110
-110
-110
-110
-110
-110
-110
-110
-110
-111
-111
-111
-111
-111
-111
-111
-111
-111
-111
-111
-111
-111
-111
-111
-111
-111
-111
-111
-111
-112
-112
-112
-112
-112
-112
-112
-112
-112
-112
-112
-112
-112
-112
-112
-112
-112
-112
-112
-112
-112
-112
-112
-112
-112
-112
-112
-112
-112
-112
-112
-112
-112
-112
-112
-112
-112
-112
-112
-112
-112
-112
-112
-112
-112
-112
-112
-112
-112
-112
-112
-112
-112
-112
-112
-111
-111
-111
-110
-110
-109
-109
-108
-108
-108
-107
-107
-106
-106
-105
-105
-105
-104
-104
-104
-104
-103
-103
-102
-102
-102
-102
-102
-102
-101
-101
-101
-101
-101
-101
-101
-101
-100
-100
-101
-101
-101
-100
-100
-100
-100
-100
-101
-100
-100
-100
-101
-101
-102
-102
-102
-103
-102
-103
-103
-103
-105
-105
-105
-105
-105
-105
-106
-106
-106
-106
-106
-106
-107
-107
-107
-107
-107
-107
-107
-107
-108
-107
-108
-108
-108
-108
-108
-108
-108
-109
-109
-109
-109
-109
-109
-110
-110
-110
-111
-111
-112
-112
-112
-113
-113
-113
-113
-113
-113
-114
-114
-114
-114
-114
-115
-115
-115
-115
-115
-115
-115
-115
-116
-116
-116
-117
-117
-117
-118
-119
-119
-119
-119
-119
-119
-119
-119
-119
-119
-119
-118
-118
-118
-118
-119
-119
-119
-119
-119
-119
-118
-118
-118
-118
-119
-119
-119
-119
-119
-119
-119
-119
-118
-118
-118
-118
-118
-118
-118
-118
-118
-118
-118
-118
-118
-118
-119
-119
-119
-120
-120
-121
-122
-122
-124
-124
-126
-127
-127
-128
-128
-129
-129
-127
-127
-125
-122
-118
-113
-108
-101
-92
-82
-71
-58
-43
-27
-10
10
31
52
75
99
122
146
170
194
217
239
261
280
297
313
325
335
341
346
347
343
336
325
312
295
274
253
228
202
174
145
117
86
57
27
-1
-28
-54
-78
-101
-121
-139
-155
-168
-177
-185
-192
-196
-198
-199
-198
-196
-193
-189
-184
-178
-173
-166
-160
-155
-149
-144
-139
-134
-130
-126
-123
-120
-118
-115
-114
-113
-112
-111
-111
-110
-110
-110
-110
-111
-110
-110
-111
-111
-111
-111
-111
-112
-112
-112
-112
-112
-111
-111
-112
-112
-112
-110
-110
-110
-110
-110
-109
-109
-109
-109
-108
-108
-108
-108
-108
-107
-107
-107
-107
-107
-106
-106
-106
-106
-106
-106
-105
-105
-104
-104
-104
-104
-103
-103
-103
-103
-103
-102
-102
-102
-102
-101
-101
-101
-101
-101
-100
-100
-100
-100
-100
-100
-99
-99
-99
-99
-98
-98
-98
-97
-97
-97
-96
-96
-95
-95
-95
-95
-94
-94
-94
-93
-93
-92
-93
-92
-91
-91
-91
-91
-91
-90
-90
-89
-89
-89
-88
-87
-87
-87
-86
-86
-86
-85
-85
-85
-84
-83
-83
-82
-82
-82
-81
-81
-80
-80
-79
-78
-78
-77
-77
-76
-76
-76
-75
-75
-74
-73
-72
-72
-71
-70
-70
-69
-69
-67
-67
-66
-66
-64
-64
-63
-62
-61
-61
-60
-60
-59
-58
-57
-57
-55
-55
-54
-53
-53
-51
-51
-50
-49
-48
-47
-45
-45
-44
-43
-41
-40
-39
-37
-36
-34
-33
-31
-30
-29
-27
-26
-24
-22
-21
-19
-18
-17
-16
-14
-13
-11
-9
-8
-8
-6
-4
-3
-2
0
1
3
3
5
6
8
9
10
11
13
13
15
16
17
18
20
20
22
23
25
25
27
27
28
30
30
31
33
33
34
34
36
36
37
37
38
39
39
39
39
39
39
40
40
40
40
40
40
40
40
39
39
38
38
37
36
35
34
33
31
30
29
26
25
23
21
19
17
15
13
10
8
6
3
1
-1
-4
-6
-9
-12
-14
-17
-20
-23
-25
-28
-30
-32
-35
-37
-40
-42
-45
-47
-49
-51
-53
-54
-57
-59
-61
-62
-64
-65
-67
-68
-70
-71
-73
-74
-76
-76
-77
-79
-80
-82
-82
-83
-85
-85
-86
-88
-88
-89
-89
-90
-91
-92
-92
-93
-94
-94
-95
-95
-95
-95
-96
-97
-97
-97
-97
-97
-98
-99
-99
-98
-98
-98
-98
-98
-99
-99
-99
-99
-99
-99
-99
-100
-100
-100
-100
-100
-100
-100
-101
-102
-102
-102
-102
-102
-102
-102
-102
-102
-102
-102
-102
-102
-102
-102
-102
-102
-102
-102
-103
-103
-103
-103
-104
-104
-103
-104
-104
-104
-104
-104
-104
-104
-104
-104
-104
-104
-104
-104
-104
-104
-104
-104
-104
-104
-104
-104
-104
-104
-104
-104
-104
-104
-104
-104
-104
-104
-104
-104
-104
-104
-104
-104
-103
-103
-103
-103
-103
-103
-104
-104
-104
-104
-103
-103
-103
-103
-103
-103
-103
-103
-103
-103
-103
-103
-103
-103
-103
-103
-103
-103
-103
-103
-103
-104
-104
-104
-104
-104
-104
-104
-104
-104
-104
-104
-104
-104
-104
-104
-104
-104
-103
-103
-103
-102
-102
-102
-102
-102
-102
-102
-102
-103
-103
-103
-103
-103
-103
-103
-103
-103
-103
-103
-103
-103
-103
-103
-103
-103
-103
-103
-103
-103
-104
-104
-104
-104
-104
-104
-104
-104
-104
-105
-105
-105
-105
-105
-105
-105
-105
-105
-106
-106
-106
-107
-107
-107
-106
-106
-107
-107
-107
-107
-107
-107
-107
-107
-107
-107
-107
-107
-107
-108
-107
-107
-108
-108
-107
-107
-107
-107
-107
-107
-107
-107
-107
-108
-108
-108
-108
-107
-107
-107
-107
-107
-108
-108
-108
-108
-109
-109
-109
-109
-109
-109
-109
-109
-109
-110
-110
-110
-110
-110
-110
-110
-110
-110
-110
-110
-110
-110
-110
-110
-110
-110
-110
-109
-109
-110
-110
-110
-109
-109
-109
-109
-109
-109
-109
-109
-109
-109
-109
-109
-109
-108
-108
-108
-108
-108
-108
-108
-108
-107
-107
-107
-106
-106
-106
-106
-105
-105
-104
-104
-104
-104
-102
-102
-102
-102
-101
-101
-101
-100
-100
-100
-100
-99
-99
-99
-98
-98
-99
-99
-99
-99
-97
-97
-97
-97
-97
-97
-98
-97
-97
-97
-97
-97
-97
-97
-97
-98
-97
-97
-97
-98
-98
-99
-99
-100
-100
-101
-101
-101
-102
-102
-103
-103
-103
-103
-104
-104
-104
-104
-104
-103
-103
-103
-103
-103
-103
-103
-104
-103
-104
-104
-104
-104
-104
-105
-105
-105
-106
-106
-107
-107
-107
-108
-109
-109
-109
-109
-109
-110
-110
-110
-111
-110
-110
-110
-110
-111
-110
-110
-111
-111
-111
-111
-112
-112
-112
-113
-113
-113
-113
-114
-114
-114
-115
-116
-116
-116
-116
-117
-117
-117
-117
-117
-118
-118
-118
-118
-118
-118
-118
-118
-118
-118
-118
-118
-118
-118
-118
-118
-118
-118
-118
-118
-119
-119
-118
-118
-118
-118
-118
-118
-118
-118
-118
-117
-117
-117
-117
-117
-117
-117
-117
-117
-117
-118
-118
-119
-119
-120
-121
-122
-123
-124
-124
-125
-127
-128
-129
-129
-129
-129
-128
-127
-125
-123
-119
-114
-108
-100
-92
-82
-71
-58
-44
-28
-10
10
30
52
74
98
122
146
170
194
217
239
260
280
297
312
324
333
340
343
343
339
332
321
306
288
269
245
221
194
166
138
108
78
49
19
-9
-35
-62
-85
-107
-127
-144
-158
-171
-181
-189
-194
-198
-200
-200
-199
-197
-194
-189
-184
-179
-173
-168
-162
-156
-151
-146
-141
-136
-133
-128
-125
-121
-120
-118
-116
-114
-113
-112
-112
-112
-111
-111
-112
-112
-112
-112
-112
-112
-112
-112
-113
-113
-113
-113
-113
-113
-113
-113
-113
-113
-113
-113
-113
-112
-112
-112
-112
-111
-111
-111
-112
-112
-112
-111
-111
-111
-111
-111
-110
-110
-110
-110
-110
-110
-109
-109
-109
-109
-108
-107
-107
-107
-106
-106
-106
-106
-105
-104
-104
-104
-104
-104
-103
-103
-103
-103
-102
-102
-102
-102
-102
-102
-102
-102
-102
-101
-100
-100
-100
-100
-100
-100
-99
-99
-99
-100
-99
-98
-98
-98
-97
-97
-97
-97
-96
-96
-95
-95
-94
-94
-94
-94
-94
-93
-92
-92
-92
-91
-91
-91
-91
-90
-90
-90
-89
-88
-88
-87
-87
-88
-86
-86
-86
-85
-85
-84
-84
-84
-83
-82
-81
-81
-81
-80
-80
-79
-79
-78
-77
-77
-76
-76
-75
-74
-74
-73
-73
-72
-72
-72
-70
-70
-69
-69
-68
-67
-67
-66
-65
-64
-63
-62
-61
-60
-60
-58
-57
-56
-54
-54
-53
-52
-50
-49
-48
-46
-46
-44
-43
-41
-40
-39
-38
-36
-34
-34
-32
-31
-29
-29
-27
-26
-25
-24
-22
-21
-20
-18
-16
-16
-14
-13
-11
-10
-9
-7
-7
-5
-3
-2
-1
0
2
3
5
5
7
8
10
10
12
13
14
15
16
17
18
19
20
21
21
23
23
24
26
26
27
27
29
29
30
30
31
31
33
33
34
34
34
35
35
34
34
34
34
34
33
33
33
32
31
30
29
28
26
25
23
23
21
18
16
15
13
10
9
7
4
2
0
-3
-5
-8
-10
-13
-15
-18
-21
-23
-26
-28
-31
-33
-36
-39
-41
-44
-47
-50
-51
-54
-56
-59
-61
-63
-65
-67
-69
-71
-72
-74
-76
-77
-79
-80
-82
-83
-84
-86
-87
-87
-89
-90
-91
-91
-93
-94
-94
-95
-96
-97
-98
-98
-99
-100
-101
-101
-101
-103
-103
-103
-103
-104
-104
-105
-106
-106
-106
-106
-106
-106
-108
-108
-108
-108
-108
-108
-108
-108
-108
-108
-108
-108
-108
-108
-108
-108
-108
-108
-108
-108
-109
-109
-109
-109
-109
-109
-109
-109
-109
-109
-109
-109
-108
-108
-108
-108
-108
-108
-108
-108
-109
-109
-109
-108
-109
-109
-109
-109
-109
-109
-109
-110
-110
-110
-110
-110
-110
-110
-110
-110
-110
-110
-110
-111
-111
-111
-110
-110
-110
-110
-110
-110
-110
-110
-110
-110
-110
-110
-110
-110
-110
-110
-111
-111
-111
-111
-111
-111
-111
-111
-110
-110
-110
-110
-111
-111
-111
-111
-111
-110
-110
-110
-110
-110
-110
-110
-109
-109
-109
-109
-109
-110
-109
-109
-109
-109
-109
-109
-109
-109
-109
-109
-109
-109
-109
-109
-109
-108
-108
-109
-109
-108
-108
-108
-108
-108
-109
-109
-109
-109
-109
-109
-109
-109
-109
-109
-110
-110
-110
-111
-111
-111
-111
-111
-111
-111
-112
-112
-112
-112
-112
-111
-111
-111
-111
-111
-111
-111
-111
-110
-110
-110
-111
-111
-111
-111
-111
-111
-111
-111
-111
-111
-112
-112
-112
-112
-112
-112
-113
-113
-113
-113
-113
-113
-114
-114
-114
-114
-114
-114
-114
-114
-115
-115
-115
-115
-115
-115
-115
-114
-114
-114
-114
-114
-114
-114
-114
-114
-115
-115
-115
-115
-115
-115
-114
-115
-115
-115
-115
-115
-115
-115
-115
-115
-115
-115
-115
-115
-115
-115
-115
-114
-114
-114
-114
-114
-114
-114
-114
-114
-114
-114
-114
-114
-115
-115
-115
-115
-115
-115
-115
-115
-115
-116
-116
-116
-116
-115
-115
-115
-116
-116
-116
-116
-115
-115
-115
-115
-113
-113
-113
-112
-112
-112
-112
-110
-110
-110
-109
-108
-108
-108
-107
-106
-106
-106
-106
-105
-104
-104
-104
-104
-104
-104
-104
-103
-103
-103
-104
-104
-104
-104
-104
-104
-104
-104
-104
-104
-104
-105
-105
-106
-106
-106
-106
-106
-106
-107
-107
-107
-107
-108
-108
-109
-109
-109
-109
-110
-110
-110
-110
-110
-110
-110
-110
-111
-110
-110
-110
-110
-111
-111
-112
-111
-112
-112
-113
-113
-113
-113
-113
-114
-114
-114
-115
-115
-115
-116
-117
-116
-116
-117
-117
-117
-117
-117
-117
-117
-117
-118
-118
-118
-118
-117
-119
-119
-119
-119
-119
-120
-120
-120
-121
-122
-122
-123
-123
-123
-124
-124
-124
-124
-124
-125
-125
-125
-125
-125
-126
-126
-126
-126
-126
-126
-126
-126
-126
-126
-126
-126
-126
-125
-125
-125
-125
-125
-125
-125
-125
-125
-125
-124
-124
-124
-124
-124
-124
-124
-124
-124
-124
-124
-123
-124
-124
-124
-123
-124
-124
-124
-125
-126
-127
-127
-128
-129
-130
-132
-133
-134
-135
-135
-136
-137
-136
-136
-134
-132
-129
-126
-120
-114
-106
-96
-85
-73
-58
-42
-24
-4
16
39
61
86
110
135
159
184
208
231
253
273
292
308
321
332
340
344
345
342
336
326
312
294
275
252
227
202
173
144
115
84
55
25
-4
-32
-58
-83
-107
-127
-146
-161
-175
-186
-195
-202
-206
-210
-211
-211
-208
-206
-203
-199
-193
-189
-182
-177
-172
-166
-160
-155
-151
-145
-141
-137
-133
-131
-127
-126
-124
-122
-120
-119
-118
-118
-117
-117
-117
-116
-117
-117
-117
-117
-117
-117
-117
-117
-117
-117
-117
-117
-117
-117
-117
-118
-118
-118
-118
-118
-118
-118
-117
-117
-117
-117
-117
-116
-117
-117
-116
-116
-116
-116
-116
-116
-116
-116
-116
-115
-115
-115
-115
-115
-114
-113
-113
-113
-113
-113
-112
-112
-112
-112
-112
-112
-112
-112
-112
-112
-111
-111
-111
-111
-111
-111
-110
-110
-110
-110
-110
-110
-109
-109
-109
-108
-108
-108
-108
-108
-107
-107
-107
-107
-105
-105
-105
-104
-104
-104
-103
-103
-103
-102
-102
-101
-101
-101
-101
-100
-99
-100
-100
-98
-98
-98
-98
-98
-97
-97
-97
-96
-96
-96
-95
-95
-94
-94
-93
-92
-91
-91
-90
-89
-89
-88
-87
-87
-86
-86
-85
-84
-84
-83
-83
-83
-83
-81
-81
-81
-80
-79
-79
-78
-78
-77
-76
-76
-75
-75
-73
-72
-71
-71
-69
-68
-68
-67
-66
-64
-63
-61
-60
-59
-58
-57
-56
-55
-54
-52
-51
-50
-49
-48
-46
-46
-44
-43
-42
-41
-39
-39
-38
-36
-35
-33
-33
-31
-30
-28
-26
-25
-23
-22
-20
-19
-17
-16
-14
-12
-10
-9
-8
-6
-5
-4
-2
0
0
2
3
4
5
7
7
9
10
11
12
14
14
15
16
17
18
19
20
22
22
22
24
24
26
26
27
27
29
29
29
30
31
31
31
32
32
31
31
31
31
31
30
29
29
28
27
26
26
24
23
21
20
18
16
14
13
11
9
6
5
2
0
-3
-5
-8
-10
-12
-14
-17
-20
-22
-25
-28
-31
-32
-35
-38
-40
-43
-46
-49
-50
-53
-56
-57
-60
-62
-65
-68
-69
-72
-73
-76
-78
-79
-81
-84
-85
-87
-88
-90
-91
-93
-94
-96
-96
-97
-99
-99
-100
-101
-102
-103
-103
-104
-104
-105
-105
-105
-107
-107
-107
-108
-108
-108
-109
-109
-110
-110
-110
-110
-110
-111
-112
-112
-112
-112
-112
-112
-112
-112
-112
-113
-113
-113
-113
-113
-114
-114
-114
-115
-115
-115
-116
-116
-116
-116
-116
-116
-116
-116
-117
-117
-117
-117
-117
-117
-118
-118
-118
-118
-118
-118
-118
-118
-117
-117
-117
-118
-117
-117
-117
-118
-118
-118
-118
-118
-118
-117
-117
-117
-117
-117
-117
-117
-117
-116
-116
-117
-117
-117
-117
-117
-117
-117
-116
-117
-117
-117
-117
-117
-117
-117
-117
-117
-117
-117
-117
-117
-117
-117
-116
-116
-115
-115
-115
-115
-115
-115
-115
-115
-115
-115
-114
-113
-113
-113
-113
-113
-113
-113
-113
-113
-113
-113
-112
-113
-113
-113
-113
-113
-112
-112
-112
-112
-112
-112
-112
-112
-112
-112
-113
-113
-112
-112
-112
-112
-112
-112
-111
-111
-111
-111
-111
-111
-111
-111
-112
-112
-112
-112
-112
-111
-111
-111
-111
-111
-111
-111
-111
-111
-111
-111
-111
-111
-111
-111
-111
-111
-112
-112
-112
-113
-113
-113
-113
-113
-113
-113
-113
-113
-113
-113
-113
-113
-113
-113
-113
-113
-113
-114
-114
-114
-114
-114
-114
-115
-115
-115
-115
-115
-115
-115
-115
-116
-116
-116
-117
-117
-116
-116
-116
-116
-116
-116
-116
-116
-116
-116
-116
-116
-116
-116
-116
-116
-116
-117
-117
-117
-117
-117
-117
-117
-117
-117
-117
-117
-117
-117
-117
-117
-117
-117
-117
-117
-118
-117
-117
-117
-117
-117
-117
-118
-118
-118
-118
-118
-118
-118
-118
-118
-118
-118
-118
-118
-118
-118
-118
-118
-118
-118
-118
-117
-117
-117
-117
-116
-116
-116
-116
-114
-114
-113
-113
-112
-112
-111
-111
-111
-109
-109
-109
-108
-108
-108
-107
-107
-107
-107
-107
-106
-107
-107
-107
-107
-107
-107
-107
-108
-107
-107
-107
-107
-106
-107
-107
-107
-107
-107
-107
-107
-107
-107
-107
-107
-108
-108
-109
-109
-109
-110
-110
-110
-110
-111
-111
-111
-112
-112
-112
-112
-112
-113
-113
-113
-113
-112
-112
-112
-112
-112
-112
-112
-112
-112
-112
-112
-112
-112
-113
-113
-113
-114
-114
-114
-115
-115
-115
-115
-116
-116
-117
-117
-118
-118
-118
-119
-119
-119
-119
-120
-120
-120
-120
-120
-121
-121
-121
-121
-121
-122
-122
-122
-123
-123
-123
-123
-123
-123
-124
-125
-125
-125
-125
-125
-125
-125
-125
-125
-125
-125
-125
-125
-125
-125
-125
-125
-125
-125
-126
-126
-126
-126
-126
-126
-126
-126
-126
-126
-126
-126
-126
-126
-126
-126
-125
-125
-125
-126
-126
-125
-125
-125
-125
-125
-125
-124
-124
-125
-125
-126
-125
-126
-127
-127
-128
-129
-130
-131
-132
-133
-134
-134
-135
-136
-136
-136
-135
-134
-132
-130
-126
-121
-114
-106
-98
-86
-74
-61
-45
-28
-9
11
33
56
80
104
128
154
178
203
227
249
271
289
307
322
334
343
350
353
352
347
339
327
312
293
272
248
222
194
166
136
106
75
45
14
-13
-41
-68
-93
-115
-135
-153
-167
-180
-190
-199
-204
-208
-210
-210
-209
-207
-203
-199
-194
-189
-184
-177
-171
-166
-160
-154
-149
-144
-140
-136
-132
-129
-127
-124
-122
-120
-119
-117
-117
-116
-116
-117
-117
-117
-117
-118
-118
-118
-118
-118
-118
-118
-118
-119
-119
-119
-119
-119
-119
-119
-119
-119
-119
-119
-119
-119
-119
-119
-118
-118
-118
-118
-117
-117
-117
-117
-117
-116
-116
-116
-115
-115
-115
-114
-114
-114
-114
-114
-113
-112
-113
-113
-113
-112
-112
-112
-112
-111
-110
-110
-110
-110
-110
-110
-110
-109
-109
-109
-109
-108
-108
-108
-107
-106
-106
-106
-106
-105
-105
-105
-105
-104
-104
-104
-104
-103
-102
-102
-102
-102
-102
-102
-101
-101
-101
-101
-101
-101
-101
-100
-100
-100
-100
-100
-98
-99
-99
-98
-98
-98
-96
-96
-95
-95
-95
-94
-94
-93
-93
-92
-92
-91
-91
-91
-90
-89
-88
-87
-87
-86
-86
-84
-84
-83
-83
-82
-82
-80
-80
-80
-79
-79
-78
-77
-76
-76
-75
-75
-74
-73
-72
-72
-70
-70
-69
-68
-67
-67
-65
-64
-64
-63
-62
-61
-59
-58
-58
-56
-55
-54
-53
-52
-51
-50
-49
-47
-47
-46
-44
-43
-41
-40
-39
-38
-37
-35
-34
-32
-31
-29
-27
-26
-24
-23
-21
-19
-18
-16
-15
-13
-11
-10
-8
-7
-6
-4
-3
-1
1
2
2
4
6
7
7
9
10
12
13
14
15
16
18
18
20
20
22
22
23
25
25
26
28
28
28
30
30
31
32
33
33
34
35
35
35
36
36
36
36
37
37
37
37
37
37
36
36
34
34
33
32
32
30
29
27
26
23
22
20
17
16
14
11
8
7
4
1
-2
-4
-7
-9
-12
-14
-17
-20
-22
-25
-28
-31
-33
-36
-39
-40
-43
-46
-48
-51
-53
-56
-59
-60
-63
-65
-68
-69
-72
-73
-74
-77
-79
-80
-82
-83
-85
-86
-88
-89
-89
-91
-92
-94
-94
-95
-95
-97
-97
-99
-99
-99
-100
-100
-100
-102
-102
-102
-104
-104
-104
-105
-105
-106
-106
-106
-106
-107
-107
-108
-108
-108
-109
-109
-109
-109
-109
-109
-109
-109
-109
-109
-109
-109
-109
-109
-109
-110
-110
-110
-110
-110
-110
-110
-110
-110
-110
-111
-110
-110
-111
-111
-112
-112
-112
-112
-111
-111
-111
-111
-112
-112
-112
-112
-112
-112
-112
-112
-113
-113
-113
-114
-114
-114
-114
-114
-114
-113
-113
-113
-114
-114
-113
-114
-114
-114
-114
-114
-113
-113
-113
-113
-113
-113
-113
-113
-113
-113
-113
-113
-113
-113
-113
-112
-112
-112
-112
-112
-112
-112
-112
-112
-112
-111
-111
-111
-111
-111
-111
-111
-111
-111
-110
-110
-110
-110
-110
-110
-110
-110
-110
-110
-110
-110
-110
-110
-110
-110
-110
-110
-109
-109
-109
-109
-109
-109
-109
-109
-109
-109
-109
-108
-108
-108
-108
-109
-109
-109
-108
-108
-108
-108
-108
-108
-108
-109
-109
-109
-109
-109
-109
-109
-109
-109
-109
-110
-109
-109
-109
-110
-110
-110
-110
-110
-110
-110
-110
-110
-110
-110
-110
-110
-110
-110
-110
-110
-110
-110
-110
-110
-110
-110
-110
-110
-110
-110
-110
-110
-109
-109
-109
-109
-109
-109
-109
-109
-110
-110
-110
-110
-110
-110
-110
-111
-111
-111
-112
-112
-112
-112
-112
-112
-112
-112
-112
-112
-113
-113
-113
-113
-113
-113
-113
-113
-113
-113
-113
-113
-113
-113
-113
-113
-113
-113
-113
-113
-113
-114
-114
-114
-114
-114
-113
-114
-114
-114
-114
-114
-114
-114
-114
-114
-114
-114
-115
-115
-115
-115
-115
-115
-115
-115
-114
-114
-114
-115
-115
-115
-115
-115
-115
-115
-115
-114
-114
-114
-113
-113
-113
-113
-113
-113
-113
-112
-112
-112
-111
-111
-110
-110
-110
-108
-108
-107
-107
-107
-106
-106
-106
-105
-105
-105
-105
-104
-104
-104
-104
-103
-103
-103
-103
-104
-103
-103
-103
-103
-103
-103
-103
-103
-103
-103
-103
-103
-103
-103
-103
-103
-102
-102
-103
-103
-103
-103
-103
-104
-104
-105
-104
-105
-105
-106
-106
-107
-107
-107
-109
-109
-109
-109
-109
-109
-110
-109
-109
-110
-110
-110
-110
-109
-109
-110
-109
-109
-109
-109
-110
-109
-110
-111
-111
-111
-111
-111
-112
-113
-113
-113
-114
-114
-115
-115
-116
-116
-116
-116
-116
-116
-116
-117
-117
-117
-116
-117
-117
-117
-117
-117
-117
-117
-118
-118
-119
-119
-119
-119
-119
-120
-120
-121
-121
-121
-121
-121
-121
-122
-122
-122
-122
-122
-122
-122
-122
-122
-122
-122
-122
-122
-121
-121
-121
-121
-121
-121
-122
-122
-122
-122
-121
-121
-121
-121
-121
-121
-121
-120
-120
-120
-120
-120
-120
-120
-120
-120
-120
-120
-120
-120
-121
-121
-122
-123
-123
-124
-125
-125
-126
-128
-129
-130
-131
-131
-131
-131
-130
-130
-128
-126
-124
-119
-114
-107
-99
-89
-78
-65
-51
-35
-17
3
23
45
68
92
116
140
165
189
213
236
258
278
296
311
325
336
343
347
347
345
339
329
315
298
278
255
230
204
176
147
117
87
57
27
-2
-29
-56
-81
-103
-124
-142
-157
-171
-181
-190
-197
-200
-203
-203
-202
-201
-198
-194
-189
-184
-178
-173
-167
-161
-155
-150
-145
-140
-136
-132
-129
-126
-123
-121
-119
-117
-116
-114
-115
-114
-113
-113
-114
-114
-114
-115
-115
-115
-115
-116
-116
-116
-116
-117
-117
-117
-116
-117
-117
-117
-117
-116
-115
-115
-115
-115
-114
-114
-114
-114
-113
-113
-113
-112
-112
-112
-112
-111
-111
-111
-110
-110
-110
-110
-110
-110
-110
-110
-110
-110
-110
-109
-109
-108
-108
-108
-108
-108
-108
-108
-107
-107
-106
-106
-105
-105
-105
-105
-105
-104
-104
-103
-103
-102
-102
-102
-102
-102
-101
-101
-101
-101
-100
-100
-100
-100
-100
-100
-100
-99
-99
-99
-99
-98
-98
-98
-98
-97
-96
-96
-96
-95
-95
-95
-94
-94
-93
-93
-92
-92
-92
-91
-91
-91
-90
-90
-90
-89
-88
-88
-88
-88
-87
-86
-86
-85
-85
-85
-84
-84
-84
-82
-82
-81
-81
-81
-80
-80
-79
-79
-77
-77
-76
-76
-75
-74
-73
-73
-71
-71
-70
-70
-68
-67
-67
-66
-65
-64
-63
-62
-61
-60
-59
-58
-57
-56
-56
-55
-53
-53
-52
-50
-49
-49
-47
-46
-46
-44
-43
-42
-40
-39
-38
-36
-35
-34
-32
-31
-29
-28
-27
-25
-23
-22
-20
-19
-17
-15
-14
-12
-10
-9
-8
-6
-4
-2
-1
0
2
3
5
6
8
9
10
11
13
15
15
17
18
19
21
21
23
24
25
26
27
28
29
30
31
32
32
34
34
35
35
37
37
38
38
38
40
40
40
41
41
41
41
41
41
41
41
41
40
40
38
39
37
36
36
34
33
31
30
28
26
24
22
20
17
16
13
10
7
5
3
0
-3
-6
-8
-11
-14
-17
-20
-23
-26
-28
-31
-33
-36
-38
-41
-44
-46
-49
-50
-53
-55
-58
-59
-62
-63
-65
-67
-69
-71
-72
-74
-75
-77
-78
-79
-81
-82
-84
-84
-85
-87
-87
-89
-90
-91
-92
-92
-93
-94
-94
-95
-95
-95
-96
-96
-96
-97
-97
-97
-97
-99
-99
-99
-99
-100
-100
-100
-101
-101
-101
-101
-102
-102
-102
-103
-103
-103
-103
-103
-103
-102
-102
-102
-102
-102
-102
-102
-102
-102
-102
-102
-102
-102
-102
-102
-102
-102
-102
-102
-103
-103
-103
-103
-103
-103
-103
-104
-104
-104
-104
-104
-104
-105
-105
-105
-105
-105
-105
-106
-106
-106
-106
-106
-106
-106
-106
-106
-106
-107
-107
-108
-108
-108
-108
-108
-108
-108
-108
-108
-108
-108
-108
-108
-108
-108
-108
-108
-108
-107
-106
-106
-106
-106
-106
-106
-106
-106
-106
-106
-106
-106
-106
-106
-106
-106
-106
-106
-106
-106
-106
-106
-106
-107
-107
-107
-107
-107
-107
-107
-107
-107
-107
-107
-107
-107
-107
-107
-107
-106
-106
-106
-106
-106
-105
-105
-105
-105
-105
-105
-105
-105
-105
-104
-104
-104
-104
-104
-104
-104
-104
-103
-103
-103
-104
-104
-104
-104
-105
-104
-104
-104
-104
-104
-104
-104
-104
-104
-104
-104
-104
-104
-104
-105
-105
-104
-104
-104
-105
-104
-105
-105
-105
-105
-105
-106
-106
-106
-107
-107
-107
-107
-107
-108
-108
-108
-108
-107
-107
-107
-107
-107
-107
-107
-107
-107
-107
-106
-105
-106
-106
-106
-105
-105
-105
-105
-105
-106
-106
-106
-106
-107
-107
-107
-107
-107
-107
-107
-106
-106
-108
-108
-108
-108
-108
-108
-108
-108
-108
-108
-108
-108
-108
-108
-108
-109
-109
-109
-109
-109
-110
-110
-110
-110
-110
-110
-110
-110
-110
-110
-110
-110
-110
-110
-109
-109
-109
-109
-109
-109
-109
-108
-108
-108
-108
-108
-108
-108
-108
-108
-108
-108
-107
-107
-107
-107
-107
-107
-106
-106
-106
-106
-106
-105
-104
-104
-104
-104
-103
-103
-103
-101
-101
-101
-100
-100
-100
-100
-99
-99
-99
-99
-99
-99
-99
-99
-99
-99
-98
-98
-98
-98
-98
-97
-98
-98
-98
-97
-97
-97
-97
-97
-97
-97
-97
-97
-97
-98
-97
-98
-98
-98
-99
-99
-100
-100
-100
-101
-101
-102
-102
-102
-103
-103
-103
-103
-103
-103
-104
-104
-103
-103
-104
-104
-104
-104
-104
-105
-105
-105
-105
-105
-106
-106
-107
-107
-107
-108
-108
-109
-109
-109
-109
-110
-110
-110
-110
-111
-111
-111
-111
-111
-111
-112
-111
-112
-112
-112
-112
-112
-112
-113
-113
-113
-113
-113
-113
-114
-114
-114
-114
-115
-115
-115
-115
-115
-116
-116
-117
-117
-117
-117
-117
-117
-117
-117
-117
-117
-117
-117
-117
-117
-117
-116
-116
-116
-116
-116
-116
-116
-116
-117
-117
-117
-117
-117
-117
-117
-117
-117
-117
-117
-117
-117
-117
-117
-117
-116
-116
-117
-117
-117
-117
-118
-118
-118
-119
-120
-121
-122
-123
-124
-125
-126
-128
-127
-129
-128
-129
-129
-129
-127
-125
-124
-120
-115
-109
-102
-94
-84
-71
-58
-44
-28
-9
10
30
53
76
99
123
147
171
195
218
241
262
281
299
314
327
337
343
347
347
344
338
326
312
295
275
253
227
201
173
144
115
85
55
25
-3
-29
-56
-80
-103
-122
-141
-156
-168
-179
-187
-193
-197
-198
-200
-199
-196
-193
-189
-184
-179
-172
-167
-162
-156
-151
-146
-141
-136
-132
-128
-125
-122
-119
-118
-116
-114
-113
-112
-112
-111
-110
-111
-110
-111
-111
-110
-111
-111
-111
-111
-111
-111
-111
-111
-111
-111
-111
-111
-111
-111
-110
-110
-110
-110
-110
-110
-110
-110
-110
-110
-110
-110
-110
-109
-109
-109
-109
-108
-108
-108
-108
-107
-107
-107
-107
-106
-106
-106
-106
-106
-106
-105
-105
-105
-105
-104
-103
-103
-103
-103
-102
-102
-102
-102
-102
-101
-101
-101
-101
-100
-100
-100
-100
-100
-100
-100
-100
-100
-100
-100
-100
-100
-99
-99
-99
-99
-99
-97
-97
-97
-97
-96
-96
-96
-95
-95
-95
-94
-93
-93
-93
-92
-92
-92
-91
-91
-91
-90
-90
-90
-89
-89
-89
-88
-88
-88
-87
-87
-87
-86
-86
-86
-84
-84
-84
-84
-83
-82
-81
-81
-80
-80
-80
-78
-78
-77
-76
-76
-75
-75
-74
-73
-73
-72
-71
-71
-69
-69
-68
-68
-67
-66
-65
-65
-63
-63
-62
-62
-60
-60
-59
-58
-57
-56
-55
-54
-53
-52
-52
-51
-49
-48
-47
-46
-45
-44
-42
-41
-40
-39
-37
-36
-34
-34
-32
-31
-29
-27
-25
-25
-23
-21
-20
-18
-17
-15
-13
-12
-10
-9
-7
-6
-4
-3
-1
1
2
4
4
6
7
9
10
12
13
14
16
17
18
20
21
22
23
24
26
26
28
28
30
31
32
33
33
34
35
35
36
37
37
38
38
40
40
41
41
41
42
42
42
42
43
43
42
42
41
41
40
40
39
38
38
36
35
34
32
29
28
26
25
22
20
19
16
14
11
9
6
5
2
-1
-3
-6
-9
-12
-14
-17
-20
-23
-26
-27
-30
-33
-36
-38
-41
-44
-46
-48
-51
-53
-55
-57
-59
-61
-63
-64
-67
-69
-70
-72
-73
-75
-76
-78
-79
-81
-82
-83
-85
-86
-86
-87
-89
-89
-90
-92
-92
-93
-93
-95
-95
-96
-96
-96
-98
-98
-98
-100
-100
-100
-100
-101
-101
-102
-102
-102
-102
-103
-103
-104
-104
-104
-104
-104
-104
-104
-104
-104
-104
-104
-104
-104
-104
-104
-103
-103
-103
-103
-103
-104
-104
-104
-104
-104
-104
-105
-105
-105
-105
-105
-105
-105
-105
-105
-105
-105
-105
-105
-105
-105
-105
-105
-106
-106
-106
-106
-106
-106
-106
-106
-107
-106
-106
-107
-107
-107
-108
-108
-108
-108
-108
-108
-108
-108
-108
-108
-107
-107
-107
-107
-107
-107
-107
-107
-107
-107
-107
-107
-107
-107
-107
-107
-107
-107
-107
-107
-107
-106
-106
-106
-106
-107
-107
-107
-107
-107
-107
-107
-107
-107
-107
-107
-107
-107
-107
-107
-106
-107
-107
-107
-107
-107
-107
-107
-108
-107
-107
-107
-108
-108
-108
-108
-107
-107
-107
-107
-107
-107
-107
-107
-107
-107
-107
-107
-107
-106
-106
-106
-106
-106
-106
-106
-106
-105
-105
-105
-105
-105
-105
-106
-106
-106
-106
-106
-107
-107
-107
-107
-107
-107
-107
-107
-107
-108
-108
-108
-108
-108
-108
-108
-108
-108
-109
-109
-109
-109
-109
-109
-109
-108
-108
-108
-108
-108
-108
-108
-107
-107
-107
-107
-107
-107
-108
-108
-107
-107
-107
-107
-107
-107
-107
-107
-107
-107
-108
-108
-108
-108
-109
-109
-109
-109
-109
-109
-109
-109
-109
-110
-110
-110
-110
-110
-109
-109
-109
-110
-109
-109
-109
-109
-109
-108
-108
-108
-108
-108
-108
-109
-109
-109
-109
-109
-109
-109
-110
-110
-110
-110
-110
-110
-110
-110
-110
-110
-110
-110
-110
-110
-110
-110
-110
-110
-110
-110
-110
-111
-111
-111
-111
-111
-111
-111
-111
-111
-111
-111
-111
-111
-111
-111
-111
-111
-111
-110
-110
-110
-110
-110
-109
-109
-108
-108
-107
-107
-107
-106
-106
-106
-106
-105
-105
-105
-104
-104
-104
-102
-102
-102
-102
-102
-101
-101
-101
-101
-100
-99
-99
-99
-99
-99
-99
-99
-99
-99
-98
-98
-98
-98
-97
-97
-97
-97
-97
-97
-97
-97
-98
-98
-98
-99
-99
-100
-100
-100
-101
-101
-102
-102
-103
-103
-104
-104
-104
-105
-106
-106
-106
-106
-106
-107
-107
-106
-106
-107
-107
-106
-106
-106
-106
-106
-105
-106
-106
-105
-106
-106
-107
-106
-107
-106
-107
-107
-108
-108
-108
-109
-109
-110
-110
-110
-111
-111
-111
-112
-113
-113
-112
-113
-113
-113
-114
-114
-114
-114
-114
-114
-115
-115
-116
-116
-116
-117
-117
-116
-116
-117
-117
-118
-118
-118
-119
-119
-119
-119
-119
-119
-119
-120
-120
-120
-120
-120
-120
-120
-120
-120
-120
-120
-119
-119
-119
-119
-119
-118
-118
-118
-118
-118
-117
-117
-117
-117
-117
-117
-117
-117
-116
-116
-116
-117
-117
-117
-117
-118
-118
-119
-119
-120
-120
-121
-122
-123
-124
-125
-126
-127
-128
-128
-129
-130
-130
-130
-129
-127
-125
-122
-118
-112
-107
-99
-89
-79
-66
-52
-36
-19
0
20
41
64
87
111
135
159
184
207
229
251
271
289
306
320
332
339
344
346
344
338
329
317
301
282
260
236
210
184
155
126
97
66
36
7
-19
-46
-71
-95
-116
-134
-150
-164
-175
-185
-191
-197
-199
-201
-200
-199
-196
-192
-188
-183
-178
-172
-166
-161
-156
-150
-146
-140
-137
-133
-129
-127
-124
-120
-118
-118
-116
-115
-115
-114
-113
-112
-113
-113
-112
-112
-113
-113
-113
-113
-113
-114
-113
-113
-113
-113
-113
-113
-113
-113
-113
-113
-113
-114
-113
-113
-113
-113
-113
-113
-112
-112
-112
-112
-112
-111
-111
-111
-111
-110
-110
-110
-110
-110
-110
-110
-110
-109
-109
-109
-109
-109
-109
-107
-107
-107
-107
-106
-106
-106
-106
-106
-105
-105
-105
-105
-105
-104
-104
-104
-103
-103
-103
-103
-102
-102
-102
-102
-102
-102
-101
-101
-101
-101
-100
-100
-100
-100
-100
-100
-100
-99
-99
-99
-98
-98
-98
-97
-97
-97
-96
-95
-96
-95
-95
-95
-95
-94
-94
-94
-94
-93
-93
-93
-93
-93
-92
-91
-91
-91
-90
-90
-89
-89
-88
-88
-87
-87
-86
-85
-85
-84
-83
-82
-82
-81
-80
-80
-79
-79
-78
-77
-77
-77
-76
-76
-75
-75
-74
-73
-72
-72
-70
-70
-69
-68
-67
-66
-65
-64
-63
-62
-60
-59
-58
-57
-55
-55
-54
-53
-51
-50
-49
-48
-47
-46
-44
-43
-42
-41
-39
-39
-37
-37
-36
-34
-33
-32
-30
-30
-28
-27
-25
-23
-22
-20
-19
-18
-17
-15
-13
-12
-10
-8
-7
-5
-4
-2
-1
0
2
4
5
7
8
10
10
12
14
16
17
18
20
21
22
24
24
25
26
27
28
29
30
31
32
32
33
33
34
34
34
35
35
36
36
36
37
37
36
37
37
37
37
36
36
37
36
35
34
35
33
32
32
31
29
28
26
25
24
22
19
18
16
13
10
9
6
3
1
-2
-5
-7
-10
-13
-16
-19
-22
-25
-28
-30
-33
-36
-39
-42
-45
-47
-50
-52
-54
-57
-60
-61
-64
-66
-67
-70
-71
-73
-76
-77
-79
-80
-82
-83
-85
-86
-87
-89
-89
-91
-92
-93
-94
-95
-97
-97
-99
-99
-99
-100
-100
-101
-101
-101
-101
-102
-102
-103
-104
-104
-104
-104
-105
-105
-106
-106
-106
-106
-107
-107
-108
-108
-108
-108
-108
-109
-110
-110
-110
-110
-110
-110
-111
-111
-111
-111
-111
-111
-111
-111
-111
-111
-111
-111
-111
-112
-112
-112
-112
-112
-112
-112
-112
-112
-112
-113
-113
-113
-113
-113
-113
-113
-113
-113
-113
-114
-114
-114
-114
-115
-115
-115
-115
-115
-115
-115
-115
-115
-115
-116
-116
-116
-116
-116
-116
-115
-115
-115
-115
-115
-115
-115
-115
-114
-114
-114
-114
-114
-114
-114
-114
-114
-114
-115
-115
-115
-115
-116
-117
-117
-117
-117
-116
-116
-117
-117
-117
-117
-117
-117
-117
-117
-117
-115
-115
-115
-115
-115
-115
-115
-114
-114
-114
-115
-115
-115
-115
-115
-115
-115
-115
-114
-114
-114
-114
-114
-114
-114
-114
-114
-114
-113
-114
-114
-114
-114
-114
-114
-114
-114
-113
-113
-114
-114
-114
-114
-114
-114
-114
-114
-114
-114
-113
-113
-114
-114
-114
-114
-114
-114
-114
-114
-114
-114
-114
-114
-114
-114
-114
-114
-114
-114
-114
-115
-115
-114
-115
-115
-115
-115
-115
-116
-116
-116
-116
-116
-117
-117
-117
-117
-117
-117
-117
-117
-117
-117
-117
-117
-117
-117
-117
-117
-118
-118
-118
-118
-118
-118
-118
-119
-119
-118
-118
-118
-118
-118
-118
-119
-118
-118
-118
-118
-118
-118
-119
-119
-119
-119
-119
-119
-119
-119
-119
-119
-119
-119
-120
-120
-120
-120
-120
-120
-120
-120
-120
-121
-121
-121
-121
-121
-121
-120
-120
-120
-120
-120
-120
-120
-120
-120
-120
-120
-120
-120
-120
-120
-120
-120
-120
-120
-120
-120
-120
-120
-121
-121
-121
-120
-121
-121
-121
-120
-120
-120
-120
-121
-120
-120
-120
-119
-119
-119
-118
-118
-118
-117
-116
-116
-116
-115
-115
-114
-114
-114
-113
-113
-112
-112
-112
-112
-111
-111
-111
-111
-110
-110
-110
-110
-110
-109
-110
-110
-110
-110
-110
-109
-109
-109
-109
-109
-110
-110
-110
-109
-110
-110
-111
-110
-111
-111
-112
-112
-112
-112
-113
-113
-114
-114
-114
-115
-116
-116
-116
-117
-117
-117
-116
-116
-116
-116
-116
-116
-116
-116
-116
-116
-116
-116
-117
-117
-117
-117
-117
-118
-118
-118
-119
-119
-119
-119
-119
-120
-120
-121
-121
-121
-121
-122
-121
-122
-122
-121
-122
-122
-123
-122
-122
-122
-122
-123
-124
-124
-124
-124
-124
-125
-125
-125
-126
-126
-126
-126
-127
-128
-128
-128
-128
-128
-128
-129
-129
-129
-129
-129
-129
-129
-129
-129
-129
-129
-129
-130
-130
-130
-130
-130
-130
-131
-131
-130
-131
-131
-131
-131
-131
-131
-131
-131
-131
-131
-131
-131
-131
-130
-130
-130
-130
-130
-129
-129
-130
-130
-130
-130
-130
-130
-131
-131
-133
-133
-135
-136
-137
-138
-140
-140
-141
-141
-142
-142
-140
-138
-137
-133
-130
-125
-119
-111
-101
-90
-78
-64
-48
-30
-12
9
31
54
78
102
127
151
176
200
223
246
266
285
303
317
329
338
343
346
344
340
331
319
302
285
263
239
213
185
157
127
97
66
36
6
-22
-49
-76
-99
-122
-141
-159
-173
-185
-196
-203
-209
-213
-214
-215
-214
-212
-209
-205
-200
-194
-189
-183
-178
-172
-166
-161
-156
-151
-147
-143
-139
-137
-133
-131
-129
-127
-126
-125
-124
-124
-124
-124
-124
-123
-124
-124
-125
-125
-126
-126
-126
-126
-128
-128
-128
-128
-128
-128
-128
-128
-128
-127
-127
-127
-127
-126
-126
-126
-126
-125
-125
-124
-123
-123
-123
-122
-122
-121
-121
-121
-120
-120
-120
-120
-120
-120
-119
-119
-119
-119
-119
-119
-119
-119
-120
-120
-119
-119
-119
-119
-119
-118
-118
-118
-117
-117
-117
-117
-116
-116
-115
-114
-115
-114
-114
-113
-113
-112
-111
-111
-110
-110
-110
-109
-109
-108
-108
-108
-108
-108
-108
-107
-107
-107
-107
-107
-107
-106
-106
-106
-106
-106
-107
-105
-105
-105
-106
-105
-105
-104
-103
-103
-103
-102
-102
-101
-101
-101
-101
-101
-99
-99
-99
-98
-97
-97
-97
-96
-95
-95
-94
-94
-93
-93
-92
-92
-91
-90
-89
-89
-88
-88
-87
-86
-85
-85
-84
-84
-83
-81
-81
-80
-80
-78
-78
-77
-76
-75
-74
-74
-72
-72
-71
-70
-70
-68
-68
-67
-66
-65
-64
-63
-62
-60
-60
-58
-57
-56
-54
-53
-51
-51
-49
-47
-46
-44
-42
-40
-39
-37
-35
-34
-32
-31
-30
-29
-27
-25
-24
-22
-21
-21
-19
-17
-16
-14
-13
-12
-10
-8
-7
-5
-5
-3
-2
0
0
2
4
5
6
7
9
9
11
11
13
14
15
16
18
18
19
20
21
23
23
24
25
26
26
28
28
29
30
30
30
31
31
31
31
32
32
31
31
30
30
29
28
27
26
25
24
22
21
18
17
15
12
10
8
5
3
0
-2
-5
-8
-11
-14
-17
-20
-23
-25
-28
-31
-34
-36
-39
-42
-45
-48
-50
-53
-56
-57
-60
-62
-64
-66
-69
-71
-73
-75
-77
-79
-81
-83
-84
-85
-86
-88
-91
-92
-94
-95
-96
-98
-98
-99
-101
-102
-104
-104
-105
-107
-107
-108
-108
-109
-109
-111
-111
-112
-112
-112
-114
-114
-114
-115
-115
-115
-116
-116
-116
-116
-117
-117
-118
-118
-118
-118
-119
-119
-120
-120
-120
-119
-119
-119
-120
-121
-121
-121
-121
-120
-120
-120
-121
-121
-122
-122
-122
-122
-122
-122
-122
-123
-123
-123
-123
-123
-123
-123
-124
-124
-124
-124
-124
-124
-124
-124
-124
-125
-124
-125
-125
-125
-125
-125
-124
-124
-124
-124
-124
-124
-124
-124
-124
-124
-124
-125
-125
-125
-124
-124
-124
-124
-124
-124
-125
-125
-125
-125
-125
-125
-125
-125
-125
-125
-125
-125
-125
-125
-125
-126
-126
-126
-126
-126
-125
-125
-124
-124
-124
-124
-124
-124
-124
-124
-124
-124
-124
-124
-124
-124
-124
-124
-124
-124
-124
-124
-123
-122
-122
-122
-122
-122
-122
-122
-122
-122
-122
-122
-121
-121
-121
-121
-121
-121
-121
-120
-120
-120
-120
-121
-121
-121
-121
-121
-121
-120
-121
-121
-121
-121
-120
-120
-120
-121
-121
-121
-121
-121
-121
-121
-121
-121
-121
-121
-121
-121
-121
-121
-121
-121
-121
-122
-122
-122
-122
-122
-122
-122
-122
-121
-121
-121
-121
-121
-121
-121
-121
-121
-121
-121
-121
-121
-121
-120
-120
-121
-121
-121
-121
-121
-122
-122
-123
-123
-123
-124
-124
-124
-124
-125
-125
-125
-126
-126
-126
-126
-126
-126
-126
-125
-125
-125
-125
-125
-125
-125
-125
-125
-125
-125
-125
-125
-125
-125
-125
-126
-126
-126
-125
-125
-125
-126
-126
-127
-127
-127
-127
-127
-127
-127
-127
-127
-127
-127
-127
-127
-127
-127
-127
-127
-127
-127
-127
-127
-127
-126
-126
-127
-127
-127
-127
-127
-127
-127
-127
-127
-127
-127
-127
-127
-127
-128
-128
-128
-128
-128
-127
-127
-127
-127
-127
-127
-127
-126
-126
-126
-126
-126
-126
-126
-126
-126
-127
-127
-127
-127
-127
-126
-126
-126
-126
-125
-124
-124
-124
-123
-123
-122
-122
-122
-121
-121
-121
-121
-120
-120
-120
-119
-119
-119
-118
-118
-118
-118
-118
-117
-117
-116
-116
-116
-116
-115
-116
-116
-116
-116
-116
-116
-115
-116
-116
-115
-115
-115
-115
-115
-115
-115
-115
-115
-116
-115
-115
-115
-116
-116
-116
-116
-116
-117
-117
-118
-118
-118
-119
-119
-119
-120
-120
-120
-120
-120
-120
-121
-121
-121
-121
-121
-121
-121
-120
-120
-120
-120
-120
-121
-121
-121
-121
-121
-121
-121
-121
-122
-122
-123
-123
-124
-124
-124
-125
-124
-124
-125
-125
-126
-125
-126
-126
-126
-126
-126
-126
-126
-127
-126
-126
-126
-127
-127
-128
-128
-128
-128
-128
-128
-129
-129
-130
-130
-130
-131
-131
-131
-131
-131
-131
-132
-132
-132
-132
-132
-132
-132
-132
-132
-133
-133
-133
-133
-133
-133
-133
-133
-133
-133
-134
-134
-134
-134
-134
-133
-133
-133
-133
-132
-132
-131
-131
-130
-130
-130
-130
-130
-130
-130
-130
-130
-130
-130
-131
-131
-131
-132
-133
-134
-136
-137
-138
-138
-139
-140
-140
-141
-141
-141
-139
-137
-135
-132
-128
-123
-116
-109
-99
-89
-76
-62
-47
-30
-11
10
31
54
77
101
125
151
175
198
221
243
265
284
301
316
327
336
342
344
343
339
330
318
303
285
263
239
214
187
158
129
98
68
38
9
-20
-48
-74
-98
-120
-141
-157
-172
-185
-195
-203
-209
-213
-215
-214
-213
-211
-207
-203
-198
-193
-188
-182
-176
-171
-165
-160
-154
-150
-146
-142
-139
-136
-133
-131
-129
-127
-125
-125
-124
-123
-122
-123
-123
-122
-123
-123
-123
-123
-122
-122
-123
-123
-123
-123
-123
-123
-123
-122
-122
-122
-122
-121
-121
-121
-121
-120
-120
-120
-119
-118
-118
-118
-119
-117
-117
-117
-117
-116
-116
-116
-116
-116
-116
-115
-115
-115
-115
-115
-114
-114
-114
-114
-114
-113
-113
-113
-113
-113
-112
-112
-112
-112
-112
-112
-112
-110
-110
-110
-110
-110
-110
-110
-110
-110
-110
-109
-109
-109
-109
-108
-108
-108
-108
-108
-108
-108
-107
-107
-107
-106
-106
-106
-104
-104
-104
-103
-103
-103
-102
-102
-102
-101
-100
-100
-99
-99
-99
-99
-98
-98
-98
-97
-97
-97
-96
-96
-96
-95
-95
-95
-95
-95
-95
-93
-93
-92
-92
-92
-91
-91
-91
-89
-89
-88
-88
-87
-86
-85
-85
-84
-84
-83
-83
-81
-81
-80
-80
-79
-79
-77
-77
-76
-76
-74
-74
-73
-73
-72
-71
-70
-69
-68
-67
-66
-65
-64
-63
-62
-61
-60
-59
-57
-56
-55
-53
-53
-52
-50
-49
-47
-46
-45
-43
-42
-40
-39
-37
-36
-35
-33
-32
-30
-29
-27
-26
-25
-23
-21
-20
-18
-16
-15
-14
-12
-10
-9
-8
-6
-5
-3
-1
1
1
3
5
6
7
9
9
11
13
13
15
16
17
19
19
21
23
23
25
25
27
27
29
29
31
31
33
33
34
35
36
36
37
38
38
39
39
39
39
39
39
39
38
38
38
37
37
36
36
34
33
31
30
29
27
26
24
23
20
18
16
14
11
9
7
4
2
-1
-4
-7
-9
-12
-15
-18
-21
-24
-27
-30
-32
-35
-37
-40
-43
-46
-49
-51
-54
-57
-58
-61
-63
-66
-68
-69
-72
-74
-75
-77
-78
-80
-80
-82
-83
-85
-86
-88
-89
-91
-91
-92
-93
-95
-95
-96
-98
-98
-99
-99
-101
-101
-101
-102
-102
-103
-104
-104
-104
-105
-105
-105
-106
-106
-106
-107
-107
-108
-108
-108
-108
-108
-108
-108
-108
-108
-108
-108
-109
-109
-109
-109
-109
-109
-109
-110
-110
-110
-110
-110
-110
-111
-111
-111
-111
-111
-111
-111
-111
-111
-112
-112
-112
-112
-112
-113
-113
-112
-112
-112
-112
-112
-112
-112
-112
-113
-113
-113
-113
-113
-113
-113
-112
-112
-113
-113
-113
-113
-114
-114
-114
-114
-114
-114
-114
-113
-114
-114
-114
-114
-114
-114
-114
-114
-114
-114
-114
-114
-114
-113
-113
-113
-113
-113
-113
-113
-113
-113
-112
-112
-112
-112
-112
-112
-112
-112
-112
-112
-112
-112
-112
-112
-112
-112
-112
-112
-112
-112
-112
-112
-112
-112
-113
-113
-113
-113
-113
-112
-112
-112
-113
-113
-113
-113
-113
-112
-112
-112
-112
-112
-112
-112
-112
-112
-112
-112
-111
-111
-111
-111
-111
-111
-111
-111
-111
-111
-111
-111
-111
-111
-111
-111
-111
-111
-111
-111
-111
-111
-111
-111
-111
-113
-113
-113
-113
-113
-113
-113
-113
-113
-113
-113
-113
-113
-113
-113
-113
-113
-113
-113
-113
-113
-113
-113
-113
-113
-113
-113
-113
-113
-113
-113
-113
-113
-113
-112
-112
-112
-112
-113
-113
-113
-113
-113
-113
-113
-113
-113
-113
-114
-114
-114
-114
-114
-114
-114
-114
-114
-114
-114
-114
-114
-114
-114
-115
-115
-115
-115
-115
-115
-115
-115
-115
-115
-115
-115
-115
-115
-115
-115
-115
-115
-115
-115
-115
-115
-115
-115
-115
-115
-115
-114
-114
-114
-114
-114
-114
-114
-114
-114
-114
-115
-115
-115
-115
-115
-115
-116
-116
-117
-117
-117
-117
-117
-118
-118
-118
-118
-118
-118
-118
-118
-118
-118
-117
-117
-117
-117
-117
-118
-117
-116
-116
-116
-116
-115
-115
-115
-115
-114
-114
-114
-114
-114
-114
-114
-113
-113
-113
-113
-112
-112
-112
-112
-111
-111
-111
-111
-110
-110
-110
-109
-109
-108
-108
-107
-106
-106
-106
-106
-105
-104
-104
-104
-104
-103
-103
-103
-102
-102
-103
-102
-102
-102
-103
-102
-102
-103
-103
-103
-102
-102
-103
-103
-103
-103
-103
-104
-103
-104
-104
-105
-105
-105
-105
-106
-106
-107
-107
-108
-108
-108
-109
-109
-109
-110
-110
-110
-110
-110
-110
-111
-111
-111
-110
-110
-110
-110
-110
-110
-110
-110
-110
-110
-109
-110
-110
-111
-111
-111
-111
-111
-113
-113
-113
-113
-113
-114
-114
-114
-114
-115
-115
-115
-115
-116
-116
-116
-115
-116
-116
-116
-116
-116
-117
-117
-117
-118
-118
-118
-118
-120
-120
-120
-120
-120
-120
-121
-121
-121
-121
-121
-122
-122
-122
-122
-122
-122
-122
-122
-122
-123
-122
-122
-122
-122
-122
-122
-122
-122
-122
-122
-122
-122
-122
-122
-122
-122
-122
-122
-122
-122
-122
-122
-122
-122
-122
-122
-122
-122
-122
-122
-123
-123
-123
-123
-123
-123
-124
-125
-125
-127
-127
-128
-129
-130
-132
-132
-133
-133
-133
-132
-132
-130
-128
-125
-121
-116
-111
-104
-97
-86
-75
-62
-47
-31
-13
6
27
50
72
95
119
143
167
191
214
236
258
277
294
309
322
331
339
342
342
339
332
322
308
291
271
248
224
197
170
141
111
81
51
21
-6
-34
-60
-84
-106
-127
-144
-160
-172
-183
-191
-197
-200
-203
-204
-202
-200
-197
-193
-188
-183
-177
-172
-166
-161
-156
-150
-146
-141
-137
-133
-130
-127
-124
-123
-121
-119
-117
-117
-116
-115
-115
-115
-114
-114
-114
-114
-114
-114
-114
-114
-114
-115
-115
-114
-114
-114
-114
-114
-114
-114
-114
-114
-114
-114
-114
-113
-113
-113
-113
-112
-113
-113
-113
-112
-112
-112
-112
-111
-111
-110
-110
-110
-110
-109
-109
-109
-109
-109
-109
-109
-108
-107
-107
-107
-107
-107
-107
-106
-106
-106
-106
-105
-105
-105
-104
-103
-103
-103
-103
-102
-102
-102
-102
-101
-102
-102
-102
-101
-101
-100
-100
-100
-100
-100
-100
-99
-98
-98
-98
-98
-97
-96
-96
-96
-96
-95
-94
-94
-94
-94
-94
-93
-93
-93
-93
-93
-93
-92
-92
-92
-92
-92
-92
-91
-91
-91
-90
-90
-90
-89
-88
-88
-88
-87
-87
-86
-86
-85
-85
-85
-84
-83
-83
-83
-83
-82
-82
-82
-82
-81
-80
-80
-79
-79
-78
-78
-78
-76
-76
-75
-75
-74
-73
-72
-72
-71
-70
-69
-68
-67
-67
-65
-64
-64
-63
-61
-60
-60
-59
-57
-57
-56
-54
-53
-52
-51
-50
-48
-47
-45
-45
-43
-42
-40
-39
-37
-36
-34
-34
-32
-30
-29
-27
-25
-24
-22
-22
-20
-18
-17
-15
-14
-12
-11
-10
-8
-7
-6
-4
-2
-1
0
2
3
4
6
8
8
10
12
13
15
15
17
18
20
20
21
23
23
25
27
27
29
29
30
31
32
33
34
34
35
35
36
37
38
38
38
39
39
38
38
39
39
38
38
38
37
37
36
35
34
33
32
30
29
28
26
25
23
21
19
17
15
12
10
7
6
3
0
-2
-4
-7
-9
-12
-15
-18
-20
-23
-26
-28
-30
-33
-36
-39
-42
-43
-46
-49
-51
-54
-55
-58
-60
-62
-64
-66
-69
-70
-72
-74
-76
-77
-79
-80
-82
-84
-85
-85
-87
-88
-90
-90
-91
-92
-93
-94
-95
-96
-97
-97
-98
-98
-100
-100
-100
-101
-101
-101
-103
-103
-103
-104
-105
-105
-105
-105
-105
-106
-106
-106
-106
-106
-107
-107
-107
-107
-107
-107
-107
-108
-108
-108
-108
-109
-109
-109
-109
-109
-109
-109
-109
-109
-109
-109
-109
-110
-110
-110
-110
-110
-110
-110
-110
-110
-110
-110
-110
-110
-110
-110
-110
-110
-111
-111
-110
-110
-110
-110
-110
-110
-110
-110
-110
-110
-110
-110
-110
-110
-110
-110
-110
-110
-110
-110
-110
-110
-110
-109
-110
-110
-109
-109
-109
-110
-110
-110
-110
-110
-110
-110
-110
-110
-110
-110
-110
-109
-109
-109
-109
-109
-109
-109
-109
-109
-109
-109
-109
-109
-109
-109
-109
-109
-109
-109
-109
-109
-109
-110
-110
-109
-109
-109
-109
-109
-109
-109
-109
-109
-109
-109
-109
-109
-109
-109
-109
-109
-109
-109
-109
-109
-109
-109
-109
-108
-108
-108
-108
-109
-109
-109
-109
-108
-108
-108
-108
-108
-108
-108
-108
-108
-108
-108
-109
-109
-109
-109
-109
-109
-109
-110
-110
-110
-110
-109
-109
-109
-109
-109
-109
-110
-110
-110
-110
-110
-110
-110
-111
-111
-111
-111
-111
-111
-110
-110
-111
-111
-111
-111
-111
-111
-111
-112
-112
-112
-112
-112
-112
-111
-111
-111
-111
-111
-111
-111
-111
-112
-112
-112
-112
-112
-112
-112
-112
-112
-113
-113
-113
-113
-113
-113
-113
-113
-113
-113
-113
-113
-113
-113
-113
-113
-113
-113
-113
-113
-114
-114
-114
-115
-115
-115
-115
-115
-114
-114
-114
-114
-114
