# Simple Text Format
# Sampling Rate (Hz):= 1200.00
# Resolution:= 12
# Labels:= ECG	III
# Age:=	62
# Gender:=	Feminino
-95
-87
-78
-69
-60
-51
-42
-33
-24
-15
-6
2
10
18
25
32
37
42
45
48
49
50
50
50
48
46
42
38
33
27
21
13
6
-1
-9
-17
-25
-33
-41
-49
-56
-63
-70
-76
-82
-88
-92
-97
-101
-104
-107
-110
-112
-114
-116
-117
-118
-119
-119
-120
-120
-120
-120
-120
-121
-121
-122
-122
-122
-123
-123
-124
-124
-125
-125
-126
-127
-127
-128
-128
-129
-129
-130
-130
-130
-130
-131
-131
-131
-131
-131
-131
-131
-131
-131
-131
-131
-131
-131
-131
-131
-131
-131
-131
-131
-132
-132
-132
-132
-132
-132
-133
-133
-133
-133
-133
-133
-133
-133
-134
-134
-134
-134
-134
-134
-134
-134
-134
-133
-133
-133
-133
-133
-133
-133
-133
-133
-133
-133
-133
-133
-132
-132
-132
-132
-132
-132
-133
-133
-133
-133
-133
-133
-133
-133
-133
-133
-133
-133
-133
-133
-133
-133
-132
-132
-132
-132
-131
-131
-131
-131
-130
-130
-130
-130
-130
-130
-130
-130
-130
-130
-130
-130
-130
-131
-131
-131
-132
-132
-132
-132
-132
-132
-132
-132
-132
-132
-131
-131
-131
-131
-131
-130
-130
-130
-129
-129
-129
-129
-129
-129
-129
-129
-130
-130
-130
-130
-130
-131
-131
-131
-132
-132
-132
-132
-132
-132
-132
-132
-131
-131
-131
-130
-130
-129
-128
-128
-127
-127
-126
-126
-126
-125
-125
-125
-124
-124
-124
-124
-124
-124
-124
-124
-124
-124
-124
-124
-124
-124
-124
-124
-124
-123
-123
-122
-121
-121
-120
-119
-119
-118
-117
-116
-114
-113
-113
-112
-111
-111
-110
-109
-108
-107
-107
-106
-105
-105
-105
-104
-104
-104
-104
-103
-103
-102
-101
-101
-100
-100
-99
-99
-98
-98
-97
-97
-96
-95
-95
-94
-93
-93
-93
-92
-92
-92
-92
-91
-91
-91
-90
-90
-90
-90
-89
-88
-88
-87
-87
-87
-87
-86
-86
-86
-85
-85
-85
-85
-85
-85
-85
-86
-86
-87
-88
-89
-90
-90
-91
-92
-93
-94
-95
-96
-96
-97
-98
-99
-99
-100
-100
-100
-101
-102
-103
-103
-104
-104
-105
-105
-106
-106
-107
-107
-108
-109
-109
-110
-111
-111
-112
-113
-113
-113
-114
-114
-115
-115
-115
-115
-116
-116
-116
-117
-117
-117
-118
-118
-118
-118
-118
-118
-119
-119
-120
-120
-121
-121
-121
-122
-122
-122
-122
-122
-122
-122
-122
-122
-122
-122
-122
-122
-122
-122
-122
-122
-122
-121
-121
-121
-121
-122
-122
-122
-122
-122
-123
-123
-123
-123
-123
-123
-123
-123
-123
-123
-123
-123
-122
-122
-121
-121
-121
-121
-121
-121
-121
-120
-120
-120
-120
-120
-120
-120
-121
-121
-122
-122
-122
-123
-123
-123
-123
-123
-123
-123
-123
-124
-124
-124
-124
-124
-124
-123
-123
-122
-122
-122
-122
-121
-121
-121
-121
-121
-121
-120
-120
-120
-120
-120
-120
-120
-120
-120
-120
-120
-120
-121
-121
-121
-121
-122
-122
-122
-122
-122
-122
-122
-122
-122
-122
-122
-122
-122
-122
-123
-123
-123
-123
-123
-123
-123
-123
-123
-123
-123
-122
-122
-122
-122
-122
-122
-122
-121
-121
-121
-121
-121
-121
-121
-121
-120
-120
-120
-120
-120
-120
-121
-121
-121
-121
-121
-121
-121
-121
-121
-121
-121
-121
-121
-121
-121
-121
-122
-122
-122
-122
-122
-121
-121
-121
-121
-122
-122
-122
-122
-122
-122
-122
-123
-123
-123
-123
-123
-123
-124
-124
-124
-124
-124
-125
-125
-125
-125
-125
-125
-125
-125
-125
-125
-125
-125
-125
-125
-126
-126
-125
-125
-125
-125
-125
-125
-125
-125
-124
-124
-124
-123
-123
-123
-123
-123
-124
-124
-124
-124
-124
-124
-124
-124
-125
-125
-126
-126
-126
-127
-127
-128
-128
-128
-129
-129
-129
-129
-129
-129
-129
-129
-129
-128
-128
-128
-127
-127
-126
-126
-126
-125
-125
-125
-125
-124
-123
-123
-122
-122
-122
-122
-122
-122
-122
-122
-122
-121
-121
-121
-121
-121
-121
-122
-122
-122
-121
-121
-121
-121
-122
-122
-122
-122
-121
-121
-121
-121
-120
-120
-120
-120
-120
-119
-119
-119
-119
-119
-119
-119
-119
-119
-120
-120
-120
-120
-121
-121
-121
-121
-121
-121
-121
-121
-121
-121
-121
-121
-121
-121
-120
-120
-120
-120
-120
-120
-120
-120
-120
-119
-119
-119
-119
-119
-119
-119
-120
-120
-120
-120
-120
-119
-119
-120
-120
-120
-120
-120
-120
-120
-120
-120
-120
-120
-120
-121
-121
-121
-121
-120
-120
-120
-120
-120
-120
-120
-120
-120
-120
-120
-121
-121
-121
-121
-122
-122
-122
-122
-123
-123
-124
-124
-125
-125
-125
-126
-126
-126
-127
-127
-127
-128
-128
-129
-129
-130
-130
-130
-130
-131
-131
-131
-131
-132
-132
-132
-132
-132
-132
-132
-132
-132
-132
-132
-132
-132
-132
-131
-131
-131
-131
-131
-131
-130
-130
-130
-130
-130
-129
-129
-129
-129
-129
-129
-129
-129
-129
-129
-129
-129
-129
-129
-130
-130
-130
-131
-131
-131
-132
-133
-134
-135
-135
-136
-137
-138
-140
-141
-143
-144
-146
-147
-148
-150
-151
-152
-153
-154
-154
-154
-154
-154
-153
-152
-149
-147
-143
-140
-136
-131
-126
-120
-114
-106
-99
-91
-82
-74
-65
-57
-48
-40
-31
-22
-13
-4
4
12
18
24
28
32
34
36
38
38
38
37
35
32
27
22
17
10
3
-4
-11
-19
-27
-36
-44
-51
-59
-66
-73
-79
-85
-90
-95
-100
-104
-108
-111
-114
-116
-118
-120
-121
-122
-123
-123
-124
-124
-124
-125
-125
-125
-125
-125
-126
-126
-126
-127
-127
-127
-128
-128
-129
-130
-130
-131
-131
-132
-132
-132
-132
-133
-133
-133
-133
-134
-134
-134
-134
-134
-134
-134
-134
-134
-134
-135
-135
-135
-135
-135
-135
-135
-135
-135
-135
-136
-136
-136
-137
-137
-137
-137
-138
-138
-138
-138
-139
-139
-139
-139
-139
-139
-139
-139
-138
-138
-138
-137
-137
-136
-136
-136
-135
-135
-134
-134
-134
-134
-134
-133
-133
-133
-134
-134
-134
-134
-135
-135
-135
-135
-136
-136
-136
-136
-136
-136
-136
-136
-137
-137
-137
-137
-137
-136
-136
-135
-135
-135
-135
-136
-135
-135
-135
-135
-135
-135
-135
-134
-134
-134
-134
-134
-134
-135
-135
-135
-135
-135
-135
-136
-136
-136
-136
-137
-137
-137
-137
-137
-136
-136
-136
-136
-136
-135
-135
-135
-135
-135
-135
-134
-134
-134
-134
-133
-133
-133
-134
-134
-134
-134
-134
-134
-134
-134
-134
-134
-134
-134
-134
-134
-134
-134
-134
-133
-133
-133
-132
-132
-132
-132
-131
-131
-130
-130
-130
-129
-129
-129
-128
-128
-128
-128
-128
-128
-128
-127
-127
-127
-127
-126
-126
-126
-125
-125
-125
-124
-124
-123
-123
-122
-122
-121
-121
-120
-120
-119
-118
-118
-117
-117
-117
-116
-116
-116
-115
-114
-114
-113
-112
-111
-111
-110
-109
-108
-107
-106
-106
-105
-104
-103
-102
-102
-101
-101
-100
-100
-99
-99
-98
-98
-97
-97
-96
-96
-95
-95
-94
-94
-94
-94
-94
-94
-93
-93
-93
-93
-93
-93
-93
-93
-93
-93
-93
-94
-94
-94
-94
-95
-95
-95
-95
-95
-96
-96
-96
-96
-97
-98
-98
-99
-99
-100
-100
-100
-101
-102
-102
-103
-103
-104
-105
-105
-106
-106
-107
-108
-109
-109
-110
-111
-111
-111
-112
-112
-113
-114
-115
-116
-117
-117
-118
-118
-119
-120
-120
-120
-121
-121
-121
-121
-121
-121
-121
-122
-122
-123
-123
-123
-123
-122
-122
-123
-123
-123
-124
-124
-125
-125
-125
-126
-126
-126
-127
-127
-127
-127
-127
-127
-127
-127
-127
-127
-127
-127
-126
-127
-127
-127
-127
-127
-127
-127
-127
-127
-126
-126
-126
-126
-126
-127
-127
-127
-128
-128
-128
-128
-128
-128
-129
-129
-129
-129
-130
-130
-130
-131
-131
-131
-131
-132
-132
-131
-131
-131
-131
-130
-130
-130
-130
-130
-130
-130
-130
-130
-130
-130
-130
-129
-129
-129
-130
-130
-130
-130
-130
-130
-129
-129
-129
-129
-129
-129
-128
-128
-128
-128
-128
-127
-127
-127
-127
-127
-127
-128
-128
-128
-129
-129
-130
-130
-130
-130
-131
-131
-131
-131
-131
-131
-131
-131
-131
-131
-131
-130
-130
-129
-129
-129
-129
-128
-128
-128
-128
-128
-128
-128
-128
-128
-128
-128
-128
-129
-129
-129
-130
-130
-130
-131
-131
-131
-131
-132
-132
-132
-132
-133
-133
-133
-133
-132
-132
-132
-131
-131
-131
-131
-131
-131
-131
-131
-131
-131
-130
-130
-130
-130
-131
-131
-131
-131
-132
-132
-132
-132
-132
-132
-133
-133
-133
-133
-133
-133
-133
-133
-133
-133
-133
-133
-133
-133
-132
-132
-132
-132
-132
-132
-132
-132
-131
-131
-131
-131
-131
-132
-132
-132
-132
-132
-132
-132
-133
-133
-133
-134
-134
-134
-134
-134
-134
-134
-134
-134
-134
-134
-134
-134
-134
-134
-133
-133
-133
-133
-133
-133
-132
-132
-132
-132
-133
-133
-133
-133
-133
-132
-132
-132
-132
-133
-133
-133
-133
-133
-133
-134
-134
-134
-134
-135
-135
-135
-135
-136
-136
-136
-136
-136
-136
-136
-136
-136
-136
-136
-135
-135
-134
-133
-133
-133
-132
-132
-131
-131
-130
-130
-129
-129
-128
-127
-127
-127
-126
-126
-126
-126
-126
-126
-126
-126
-126
-126
-126
-127
-127
-128
-128
-128
-129
-129
-130
-131
-131
-132
-132
-132
-133
-133
-133
-133
-133
-133
-133
-133
-133
-132
-132
-132
-131
-131
-131
-130
-130
-129
-129
-129
-128
-128
-128
-127
-127
-127
-127
-127
-128
-128
-128
-128
-128
-128
-129
-129
-129
-129
-130
-130
-131
-131
-131
-131
-132
-132
-132
-132
-132
-132
-132
-132
-132
-132
-132
-132
-133
-133
-133
-134
-134
-134
-134
-135
-135
-135
-136
-136
-136
-137
-137
-137
-137
-138
-138
-138
-138
-138
-138
-139
-138
-138
-138
-137
-137
-137
-138
-138
-138
-138
-138
-138
-138
-138
-138
-138
-138
-139
-139
-140
-140
-140
-140
-140
-141
-141
-141
-142
-142
-142
-142
-142
-142
-142
-142
-141
-141
-141
-141
-141
-140
-140
-140
-140
-139
-139
-139
-139
-139
-139
-139
-139
-139
-139
-139
-139
-139
-140
-140
-141
-143
-144
-145
-147
-148
-149
-151
-153
-155
-157
-159
-160
-162
-164
-165
-166
-166
-166
-166
-165
-164
-162
-159
-156
-152
-147
-142
-137
-130
-123
-116
-109
-101
-93
-84
-76
-68
-59
-51
-42
-34
-26
-18
-10
-4
1
6
10
13
16
18
19
20
20
19
17
14
11
7
2
-3
-9
-15
-22
-30
-37
-45
-52
-60
-67
-74
-80
-86
-92
-97
-103
-107
-112
-116
-119
-122
-125
-127
-129
-130
-131
-132
-133
-134
-134
-135
-135
-135
-135
-135
-135
-135
-136
-137
-137
-138
-138
-139
-139
-140
-140
-141
-142
-142
-143
-144
-144
-145
-145
-145
-145
-146
-146
-146
-146
-146
-146
-146
-145
-145
-145
-145
-145
-145
-144
-144
-144
-144
-144
-144
-144
-145
-145
-145
-145
-145
-145
-145
-145
-145
-146
-146
-146
-146
-146
-146
-146
-146
-146
-146
-145
-145
-145
-145
-145
-145
-145
-145
-145
-145
-145
-145
-145
-145
-145
-145
-145
-146
-146
-146
-146
-146
-146
-146
-146
-146
-147
-147
-146
-146
-146
-146
-146
-146
-146
-146
-146
-146
-145
-145
-145
-145
-144
-144
-144
-144
-144
-144
-144
-144
-144
-144
-144
-144
-144
-144
-145
-145
-145
-145
-146
-146
-146
-146
-146
-146
-146
-146
-146
-146
-146
-146
-145
-145
-145
-145
-144
-144
-144
-144
-144
-144
-144
-144
-144
-144
-145
-145
-144
-144
-144
-144
-144
-144
-144
-144
-144
-144
-143
-143
-142
-142
-142
-142
-142
-141
-141
-141
-140
-140
-140
-140
-140
-140
-140
-140
-140
-140
-140
-140
-140
-140
-140
-140
-140
-139
-139
-139
-139
-139
-139
-139
-138
-138
-138
-137
-137
-137
-136
-136
-135
-134
-134
-133
-132
-132
-131
-130
-130
-129
-128
-127
-127
-126
-125
-125
-124
-123
-123
-122
-121
-121
-120
-120
-119
-119
-119
-118
-118
-117
-117
-116
-116
-115
-114
-114
-113
-112
-111
-111
-110
-110
-109
-108
-108
-107
-106
-106
-105
-105
-105
-104
-104
-104
-104
-103
-103
-102
-102
-102
-101
-101
-101
-101
-100
-100
-100
-100
-100
-100
-100
-100
-100
-100
-100
-101
-101
-101
-102
-103
-103
-104
-105
-106
-106
-107
-108
-109
-109
-110
-110
-111
-112
-112
-113
-113
-114
-114
-115
-116
-116
-116
-117
-117
-118
-118
-119
-119
-120
-120
-120
-120
-120
-121
-121
-122
-122
-123
-123
-123
-124
-124
-125
-125
-126
-126
-126
-126
-127
-127
-128
-128
-129
-129
-129
-129
-129
-130
-130
-130
-130
-130
-130
-130
-130
-130
-130
-130
-130
-131
-131
-131
-132
-132
-132
-133
-133
-133
-133
-133
-133
-133
-133
-133
-133
-133
-133
-133
-134
-134
-134
-133
-133
-133
-133
-133
-133
-133
-133
-133
-133
-133
-133
-133
-133
-133
-133
-133
-133
-133
-133
-133
-133
-133
-133
-133
-133
-133
-133
-133
-132
-132
-132
-133
-133
-133
-133
-133
-133
-133
-133
-133
-132
-132
-133
-133
-133
-134
-134
-134
-134
-133
-133
-133
-133
-133
-134
-134
-133
-133
-133
-133
-133
-133
-133
-133
-133
-133
-134
-134
-134
-134
-134
-134
-134
-135
-135
-135
-135
-135
-135
-135
-135
-134
-134
-134
-134
-134
-134
-134
-134
-134
-134
-134
-134
-134
-134
-134
-134
-134
-134
-135
-135
-134
-134
-134
-134
-134
-134
-134
-134
-134
-134
-134
-133
-134
-134
-134
-134
-134
-134
-134
-134
-135
-135
-135
-135
-135
-135
-135
-135
-135
-135
-135
-135
-135
-135
-135
-135
-135
-135
-135
-135
-135
-135
-135
-135
-135
-135
-135
-135
-135
-135
-135
-135
-135
-135
-136
-136
-136
-136
-136
-137
-137
-137
-137
-137
-137
-137
-137
-137
-137
-137
-137
-137
-137
-137
-137
-137
-137
-137
-136
-136
-136
-136
-136
-136
-136
-135
-134
-134
-134
-134
-135
-135
-135
-135
-135
-135
-135
-136
-136
-137
-137
-138
-138
-138
-139
-139
-139
-139
-139
-139
-139
-138
-138
-138
-138
-137
-137
-137
-136
-136
-136
-135
-135
-135
-135
-136
-136
-136
-137
-137
-137
-138
-138
-138
-139
-139
-139
-139
-139
-138
-138
-137
-137
-137
-136
-136
-135
-135
-134
-133
-133
-132
-132
-131
-131
-131
-131
-131
-131
-131
-132
-132
-132
-133
-133
-133
-134
-134
-134
-135
-135
-135
-136
-136
-135
-135
-134
-134
-133
-133
-133
-133
-132
-132
-132
-132
-131
-131
-131
-131
-131
-131
-131
-131
-131
-131
-132
-132
-132
-132
-132
-133
-133
-134
-134
-134
-134
-134
-134
-134
-134
-134
-135
-135
-135
-135
-135
-134
-134
-134
-134
-134
-134
-134
-133
-133
-133
-133
-133
-133
-133
-134
-134
-134
-135
-135
-135
-136
-136
-136
-136
-136
-137
-137
-138
-138
-138
-139
-139
-139
-139
-140
-140
-140
-140
-140
-141
-141
-141
-141
-142
-142
-142
-142
-142
-142
-142
-142
-143
-143
-143
-142
-142
-142
-142
-142
-142
-142
-142
-142
-142
-142
-141
-141
-141
-141
-141
-141
-140
-140
-140
-140
-141
-141
-141
-141
-141
-142
-142
-142
-142
-143
-143
-144
-144
-144
-145
-145
-145
-146
-146
-147
-147
-148
-148
-149
-150
-151
-152
-153
-154
-155
-156
-157
-159
-160
-162
-163
-164
-166
-166
-167
-167
-167
-167
-166
-165
-163
-161
-159
-155
-152
-148
-143
-138
-132
-125
-118
-111
-103
-96
-88
-79
-71
-62
-53
-45
-36
-28
-20
-13
-6
0
4
9
12
15
17
19
19
19
18
15
12
9
4
0
-6
-12
-18
-26
-33
-40
-48
-55
-63
-70
-77
-83
-89
-95
-101
-106
-110
-115
-118
-122
-124
-127
-129
-131
-132
-133
-134
-135
-135
-136
-136
-137
-137
-137
-138
-138
-138
-139
-140
-140
-141
-141
-142
-142
-142
-143
-143
-144
-144
-145
-145
-145
-145
-146
-146
-146
-146
-146
-146
-147
-147
-147
-147
-148
-148
-148
-148
-148
-148
-148
-148
-148
-147
-147
-148
-148
-148
-148
-149
-149
-149
-149
-149
-149
-149
-149
-149
-149
-149
-150
-150
-150
-150
-149
-149
-149
-149
-149
-148
-147
-147
-147
-147
-147
-147
-146
-146
-146
-146
-146
-146
-147
-147
-147
-147
-148
-148
-148
-149
-149
-149
-149
-149
-149
-149
-150
-150
-150
-150
-149
-149
-149
-149
-149
-149
-149
-149
-149
-149
-149
-149
-150
-150
-150
-151
-151
-151
-151
-151
-151
-151
-151
-150
-150
-150
-150
-150
-150
-150
-149
-149
-149
-149
-149
-149
-148
-148
-148
-148
-148
-148
-148
-148
-148
-148
-148
-148
-148
-148
-148
-148
-147
-147
-147
-147
-147
-147
-147
-147
-147
-147
-147
-147
-147
-147
-147
-147
-148
-148
-148
-148
-148
-148
-148
-148
-148
-147
-147
-146
-146
-145
-145
-145
-144
-144
-143
-143
-143
-142
-142
-142
-141
-140
-140
-140
-140
-140
-140
-140
-140
-140
-140
-140
-139
-139
-139
-139
-139
-138
-138
-138
-137
-137
-137
-136
-136
-135
-135
-134
-133
-132
-132
-131
-130
-130
-129
-128
-127
-126
-125
-125
-124
-123
-123
-122
-121
-121
-120
-119
-119
-118
-118
-117
-116
-116
-115
-115
-114
-114
-114
-113
-113
-113
-112
-112
-111
-111
-111
-110
-110
-110
-109
-109
-109
-109
-109
-109
-109
-109
-109
-108
-108
-108
-108
-107
-107
-107
-107
-108
-108
-108
-108
-109
-109
-109
-109
-109
-109
-109
-109
-110
-111
-112
-113
-114
-115
-115
-116
-116
-117
-118
-119
-120
-121
-121
-122
-123
-123
-124
-124
-125
-125
-125
-126
-126
-126
-126
-127
-127
-127
-128
-128
-129
-129
-130
-131
-131
-131
-132
-132
-133
-133
-134
-134
-135
-135
-135
-135
-135
-135
-135
-135
-135
-135
-135
-135
-134
-135
-135
-135
-136
-136
-136
-136
-136
-136
-136
-136
-136
-136
-137
-137
-137
-138
-138
-138
-139
-139
-139
-140
-140
-140
-141
-141
-141
-142
-142
-142
-142
-142
-142
-142
-142
-142
-141
-141
-141
-140
-140
-139
-139
-138
-138
-138
-138
-138
-138
-138
-138
-138
-138
-138
-138
-138
-139
-139
-140
-140
-141
-141
-141
-141
-141
-141
-141
-141
-142
-142
-142
-141
-140
-140
-140
-140
-140
-140
-140
-140
-140
-140
-139
-139
-139
-139
-139
-139
-140
-140
-140
-140
-140
-140
-140
-140
-140
-140
-140
-141
-141
-141
-141
-141
-141
-141
-141
-141
-141
-141
-140
-140
-140
-140
-140
-140
-140
-140
-139
-139
-139
-139
-139
-139
-139
-139
-139
-139
-138
-138
-138
-139
-139
-139
-139
-139
-139
-139
-138
-138
-138
-138
-138
-138
-138
-138
-138
-138
-138
-138
-139
-139
-139
-139
-140
-140
-140
-141
-141
-141
-141
-142
-142
-142
-142
-142
-142
-142
-142
-142
-141
-141
-141
-141
-141
-141
-141
-141
-141
-141
-141
-142
-142
-142
-142
-142
-142
-143
-143
-143
-143
-143
-143
-143
-143
-143
-143
-143
-143
-142
-142
-142
-142
-142
-142
-142
-142
-142
-143
-143
-143
-143
-143
-143
-143
-143
-143
-144
-144
-144
-145
-145
-145
-144
-144
-144
-144
-144
-144
-144
-144
-144
-144
-144
-144
-144
-144
-144
-144
-144
-143
-143
-143
-144
-144
-144
-144
-144
-143
-143
-143
-144
-144
-144
-144
-145
-145
-145
-145
-145
-145
-145
-145
-145
-145
-145
-145
-145
-145
-145
-145
-145
-144
-144
-144
-143
-143
-142
-142
-142
-141
-141
-141
-140
-140
-139
-139
-138
-138
-138
-138
-137
-137
-137
-137
-137
-137
-137
-137
-137
-137
-137
-137
-137
-137
-137
-137
-137
-138
-138
-138
-138
-139
-139
-138
-138
-139
-139
-139
-139
-139
-139
-139
-139
-139
-139
-139
-139
-139
-138
-138
-138
-138
-138
-137
-137
-137
-137
-137
-137
-138
-138
-138
-138
-138
-138
-138
-138
-138
-138
-138
-138
-138
-138
-138
-138
-139
-139
-139
-139
-139
-139
-139
-139
-139
-140
-140
-140
-141
-141
-142
-142
-143
-143
-144
-144
-144
-144
-144
-144
-144
-145
-145
-145
-145
-145
-145
-145
-145
-145
-145
-145
-145
-145
-145
-145
-145
-146
-146
-147
-147
-148
-148
-148
-148
-148
-148
-149
-149
-149
-150
-150
-150
-150
-150
-150
-150
-150
-150
-149
-149
-149
-149
-149
-149
-149
-149
-149
-148
-148
-147
-147
-147
-147
-148
-148
-148
-148
-148
-148
-148
-148
-149
-149
-149
-150
-150
-151
-151
-152
-152
-153
-154
-154
-155
-156
-157
-159
-160
-161
-162
-164
-166
-167
-169
-170
-172
-173
-175
-176
-177
-177
-178
-178
-177
-177
-175
-174
-172
-169
-165
-161
-156
-151
-145
-139
-132
-124
-117
-109
-100
-92
-83
-75
-66
-57
-48
-39
-30
-22
-14
-6
0
4
8
12
14
16
17
17
17
15
13
10
6
1
-3
-10
-17
-24
-32
-39
-47
-55
-63
-70
-77
-84
-90
-96
-102
-108
-113
-117
-120
-124
-127
-129
-132
-134
-137
-138
-139
-140
-140
-141
-141
-142
-142
-143
-143
-144
-144
-145
-145
-146
-146
-147
-147
-148
-148
-149
-150
-151
-151
-152
-153
-153
-154
-154
-154
-155
-155
-155
-156
-156
-156
-157
-157
-157
-158
-158
-158
-158
-157
-157
-157
-157
-156
-156
-156
-156
-155
-155
-155
-154
-154
-154
-154
-154
-154
-154
-154
-154
-154
-154
-154
-154
-154
-154
-154
-154
-154
-154
-155
-155
-155
-156
-156
-156
-156
-156
-156
-156
-156
-156
-156
-156
-156
-156
-156
-156
-156
-155
-155
-155
-155
-155
-155
-155
-155
-155
-155
-155
-155
-155
-155
-155
-156
-156
-156
-156
-156
-156
-156
-157
-157
-157
-157
-156
-156
-156
-156
-156
-156
-156
-156
-157
-157
-157
-157
-157
-157
-157
-157
-157
-157
-157
-157
-157
-157
-157
-157
-157
-157
-157
-156
-156
-156
-155
-155
-156
-156
-156
-156
-156
-156
-156
-156
-156
-156
-156
-157
-157
-157
-157
-157
-156
-156
-156
-156
-156
-156
-156
-156
-156
-155
-155
-155
-154
-154
-154
-153
-153
-153
-153
-153
-152
-152
-152
-152
-151
-151
-151
-151
-151
-151
-151
-151
-151
-151
-151
-151
-151
-150
-150
-150
-150
-149
-149
-149
-148
-148
-147
-147
-146
-145
-144
-144
-143
-142
-142
-141
-140
-140
-140
-139
-138
-137
-136
-136
-135
-135
-135
-134
-134
-133
-132
-131
-131
-130
-129
-129
-129
-129
-128
-128
-127
-126
-126
-126
-126
-125
-125
-125
-125
-124
-124
-123
-122
-122
-121
-121
-120
-120
-119
-119
-118
-118
-117
-117
-116
-116
-115
-115
-115
-115
-115
-115
-115
-115
-116
-116
-116
-116
-116
-116
-116
-116
-117
-117
-118
-119
-119
-120
-120
-121
-122
-122
-123
-123
-124
-125
-126
-126
-127
-128
-128
-129
-129
-130
-130
-130
-129
-129
-129
-130
-130
-130
-130
-131
-131
-131
-132
-132
-133
-133
-134
-135
-136
-137
-138
-139
-139
-140
-141
-142
-143
-143
-144
-144
-145
-145
-145
-146
-146
-145
-145
-145
-145
-146
-146
-145
-145
-145
-145
-145
-145
-145
-145
-145
-146
-146
-146
-146
-147
-147
-147
-147
-148
-148
-148
-148
-149
-149
-149
-150
-150
-150
-150
-151
-151
-151
-150
-150
-150
-150
-150
-150
-150
-150
-150
-150
-149
-149
-149
-149
-149
-149
-149
-148
-148
-148
-148
-148
-149
-149
-149
-149
-149
-149
-149
-149
-149
-149
-150
-150
-150
-150
-149
-149
-149
-149
-149
-149
-149
-149
-149
-149
-149
-148
-148
-148
-148
-147
-147
-147
-147
-147
-147
-147
-147
-147
-147
-148
-148
-148
-148
-148
-148
-148
-148
-148
-148
-148
-149
-149
-149
-150
-150
-149
-149
-149
-149
-149
-150
-150
-150
-150
-150
-150
-150
-150
-150
-150
-150
-150
-150
-149
-149
-150
-150
-150
-150
-150
-150
-150
-150
-150
-150
-150
-150
-150
-150
-150
-151
-151
-151
-151
-151
-151
-151
-151
-151
-151
-151
-151
-151
-151
-151
-151
-150
-150
-150
-150
-150
-150
-151
-151
-151
-151
-151
-151
-151
-151
-152
-152
-152
-152
-152
-153
-153
-153
-153
-153
-153
-153
-153
-153
-153
-153
-153
-153
-152
-152
-152
-152
-152
-152
-152
-152
-152
-153
-153
-153
-153
-153
-153
-153
-153
-153
-154
-154
-154
-153
-153
-153
-153
-153
-153
-154
-153
-153
-153
-153
-153
-153
-153
-153
-153
-153
-153
-153
-153
-153
-153
-153
-153
-153
-153
-153
-153
-154
-154
-154
-154
-154
-154
-154
-154
-154
-155
-155
-155
-155
-155
-155
-155
-155
-155
-155
-155
-156
-156
-156
-156
-156
-156
-156
-156
-156
-156
-156
-155
-155
-155
-155
-155
-155
-155
-155
-155
-155
-155
-155
-155
-155
-155
-155
-155
-155
-155
-155
-155
-155
-155
-155
-155
-155
-155
-155
-155
-155
-155
-155
-155
-155
-154
-154
-153
-153
-152
-152
-152
-152
-152
-152
-151
-151
-150
-150
-150
-149
-149
-148
-148
-148
-148
-148
-148
-148
-148
-148
-149
-149
-149
-149
-149
-149
-149
-150
-150
-150
-150
-150
-151
-151
-151
-151
-151
-151
-152
-151
-151
-151
-151
-151
-150
-150
-150
-150
-150
-150
-150
-150
-150
-150
-151
-151
-151
-151
-151
-152
-152
-152
-152
-152
-152
-153
-153
-153
-154
-154
-153
-153
-153
-153
-153
-152
-152
-152
-152
-152
-151
-151
-152
-152
-152
-151
-151
-151
-151
-151
-152
-152
-153
-153
-154
-154
-155
-155
-155
-155
-155
-155
-155
-155
-156
-156
-156
-156
-157
-157
-157
-157
-157
-156
-156
-156
-156
-156
-156
-157
-157
-157
-157
-157
-157
-157
-158
-158
-158
-158
-158
-158
-158
-158
-158
-158
-158
-158
-159
-159
-159
-160
-160
-160
-160
-160
-160
-160
-161
-161
-161
-161
-161
-161
-161
-161
-161
-161
-161
-161
-161
-161
-161
-161
-161
-160
-160
-160
-160
-160
-161
-161
-162
-162
-163
-164
-164
-165
-167
-168
-170
-171
-173
-175
-176
-178
-180
-181
-182
-183
-183
-184
-183
-183
-182
-180
-177
-175
-171
-167
-163
-158
-153
-146
-139
-132
-124
-116
-108
-100
-92
-83
-74
-66
-57
-49
-41
-33
-26
-19
-13
-8
-4
-1
0
2
3
3
2
1
0
-4
-8
-12
-18
-23
-30
-37
-44
-52
-59
-66
-74
-81
-88
-94
-100
-106
-112
-117
-122
-127
-131
-134
-138
-140
-143
-144
-146
-146
-147
-148
-149
-150
-151
-151
-152
-152
-152
-152
-153
-153
-153
-154
-155
-155
-156
-157
-157
-158
-159
-160
-161
-161
-162
-162
-162
-163
-163
-163
-163
-164
-164
-164
-164
-164
-164
-164
-164
-163
-163
-163
-163
-163
-163
-163
-163
-163
-163
-163
-163
-162
-162
-163
-163
-163
-163
-164
-164
-164
-164
-163
-163
-163
-163
-163
-163
-163
-163
-163
-163
-163
-163
-163
-163
-163
-164
-164
-164
-164
-164
-165
-165
-165
-166
-166
-166
-166
-166
-166
-166
-165
-165
-165
-164
-164
-164
-163
-163
-163
-162
-162
-162
-162
-162
-162
-162
-162
-162
-162
-163
-163
-164
-164
-164
-164
-164
-165
-165
-165
-165
-165
-166
-166
-165
-165
-165
-165
-165
-165
-165
-165
-165
-165
-164
-164
-164
-163
-163
-163
-163
-163
-163
-163
-163
-163
-163
-163
-163
-163
-164
-164
-164
-164
-165
-164
-164
-164
-164
-164
-164
-164
-164
-164
-163
-163
-163
-162
-162
-162
-161
-161
-161
-161
-161
-161
-160
-160
-160
-160
-160
-160
-161
-161
-161
-161
-161
-161
-161
-161
-160
-160
-160
-160
-160
-160
-159
-158
-158
-157
-157
-157
-156
-156
-155
-155
-154
-154
-154
-153
-153
-152
-152
-151
-151
-151
-150
-150
-150
-149
-149
-148
-148
-147
-147
-146
-146
-146
-145
-145
-144
-144
-143
-143
-143
-142
-142
-142
-141
-140
-140
-139
-138
-136
-135
-134
-134
-133
-132
-131
-130
-129
-128
-128
-127
-127
-126
-126
-125
-125
-125
-125
-125
-125
-126
-126
-126
-126
-126
-126
-126
-126
-126
-126
-125
-125
-125
-125
-125
-125
-125
-125
-125
-125
-125
-125
-125
-125
-126
-126
-126
-126
-126
-127
-127
-127
-127
-127
-128
-128
-129
-130
-130
-131
-131
-132
-132
-133
-134
-135
-135
-136
-137
-138
-139
-140
-140
-141
-142
-142
-143
-143
-144
-144
-145
-145
-146
-146
-146
-146
-146
-146
-147
-147
-148
-148
-148
-148
-148
-149
-149
-149
-150
-150
-150
-150
-151
-151
-151
-151
-152
-152
-153
-153
-153
-153
-153
-154
-154
-154
-154
-155
-155
-155
-155
-156
-156
-156
-156
-155
-155
-154
-154
-154
-154
-154
-154
-154
-154
-154
-154
-154
-154
-154
-154
-154
-154
-154
-155
-155
-155
-156
-156
-156
-157
-157
-157
-157
-157
-157
-157
-157
-157
-157
-157
-157
-157
-157
-158
-158
-157
-157
-157
-157
-157
-157
-157
-157
-157
-157
-158
-158
-158
-158
-158
-158
-158
-158
-158
-158
-158
-158
-158
-158
-158
-158
-158
-158
-158
-158
-158
-158
-158
-158
-158
-158
-158
-158
-158
-157
-157
-157
-157
-157
-157
-157
-157
-157
-157
-157
-157
-157
-157
-156
-156
-156
-156
-156
-156
-156
-156
-156
-156
-156
-156
-156
-157
-157
-157
-157
-157
-157
-157
-158
-158
-158
-158
-158
-158
-158
-158
-158
-158
-158
-158
-158
-158
-158
-158
-157
-156
-156
-156
-156
-156
-156
-156
-156
-156
-156
-156
-156
-156
-157
-157
-157
-157
-158
-157
-157
-157
-157
-157
-158
-158
-158
-158
-158
-157
-157
-157
-157
-158
-158
-158
-158
-157
-157
-157
-158
-158
-158
-158
-158
-158
-158
-158
-158
-158
-158
-158
-158
-158
-159
-159
-159
-159
-159
-160
-160
-160
-160
-160
-160
-160
-160
-160
-160
-160
-160
-160
-160
-159
-159
-159
-159
-159
-158
-158
-158
-158
-158
-158
-158
-159
-159
-159
-159
-159
-158
-158
-158
-158
-158
-159
-159
-159
-159
-159
-159
-159
-159
-159
-159
-159
-159
-159
-159
-159
-159
-159
-159
-159
-159
-159
-159
-159
-159
-159
-159
-159
-159
-159
-159
-159
-158
-158
-159
-159
-159
-158
-158
-157
-157
-157
-157
-157
-157
-157
-157
-157
-156
-156
-156
-156
-156
-156
-156
-156
-156
-156
-155
-155
-155
-155
-155
-155
-155
-154
-154
-153
-153
-153
-153
-153
-153
-153
-152
-152
-152
-152
-152
-152
-152
-152
-152
-152
-152
-152
-152
-153
-153
-153
-153
-153
-153
-153
-153
-153
-153
-153
-153
-153
-153
-153
-153
-153
-153
-153
-153
-152
-152
-151
-151
-151
-151
-152
-152
-152
-152
-152
-152
-152
-152
-152
-152
-152
-153
-153
-153
-152
-152
-152
-152
-152
-152
-152
-152
-151
-151
-151
-150
-150
-150
-150
-150
-150
-150
-150
-150
-150
-150
-151
-151
-151
-151
-151
-151
-151
-152
-152
-153
-154
-154
-155
-155
-155
-155
-155
-156
-156
-157
-157
-157
-158
-158
-159
-159
-159
-159
-159
-159
-159
-159
-159
-159
-159
-159
-159
-159
-159
-159
-159
-159
-158
-158
-158
-158
-158
-158
-158
-158
-158
-158
-158
-158
-159
-159
-159
-159
-159
-159
-159
-159
-159
-159
-160
-160
-160
-159
-159
-159
-159
-159
-159
-159
-159
-159
-159
-159
-159
-159
-159
-159
-159
-159
-159
-160
-160
-161
-162
-163
-164
-165
-166
-167
-168
-169
-171
-172
-174
-175
-176
-178
-179
-180
-181
-182
-182
-181
-181
-179
-178
-176
-173
-171
-167
-163
-158
-153
-148
-142
-135
-127
-119
-111
-103
-95
-86
-78
-69
-60
-51
-43
-35
-27
-20
-14
-9
-5
-1
1
3
4
5
4
3
0
-2
-6
-11
-16
-22
-29
-36
-43
-51
-58
-66
-73
-80
-87
-94
-100
-106
-111
-116
-121
-125
-129
-133
-136
-138
-140
-142
-143
-145
-146
-147
-148
-149
-149
-149
-150
-150
-151
-151
-152
-152
-152
-153
-153
-154
-154
-155
-155
-156
-157
-157
-157
-157
-157
-157
-157
-157
-158
-158
-158
-158
-158
-158
-158
-158
-158
-158
-158
-158
-158
-158
-159
-159
-159
-159
-159
-159
-160
-160
-160
-161
-161
-161
-161
-161
-161
-162
-162
-162
-162
-162
-163
-163
-163
-163
-163
-162
-162
-162
-162
-162
-162
-162
-161
-161
-161
-161
-160
-160
-160
-159
-159
-159
-158
-158
-158
-158
-158
-158
-158
-157
-157
-157
-157
-157
-157
-157
-157
-157
-158
-158
-158
-159
-159
-159
-159
-159
-159
-159
-158
-158
-158
-158
-158
-158
-158
-158
-158
-157
-157
-157
-157
-156
-156
-156
-156
-156
-156
-156
-157
-156
-156
-156
-156
-156
-156
-157
-157
-157
-157
-157
-157
-157
-157
-156
-156
-156
-156
-156
-156
-156
-156
-156
-156
-155
-155
-155
-155
-155
-155
-155
-155
-155
-155
-156
-156
-156
-156
-156
-156
-156
-156
-156
-156
-156
-156
-156
-155
-155
-155
-155
-155
-154
-154
-154
-153
-153
-153
-153
-153
-152
-152
-152
-151
-151
-150
-150
-149
-149
-148
-148
-147
-147
-146
-146
-145
-145
-144
-144
-143
-143
-142
-142
-141
-141
-140
-140
-139
-139
-138
-138
-137
-137
-137
-136
-135
-135
-135
-134
-134
-134
-133
-133
-133
-132
-132
-131
-131
-131
-130
-130
-130
-129
-129
-128
-127
-127
-126
-125
-125
-124
-123
-122
-121
-121
-120
-120
-119
-118
-118
-117
-116
-115
-114
-114
-113
-113
-112
-112
-111
-111
-111
-111
-111
-111
-111
-111
-111
-112
-112
-113
-114
-114
-115
-115
-116
-117
-117
-118
-118
-119
-119
-119
-119
-119
-119
-120
-120
-121
-121
-121
-121
-121
-121
-121
-121
-122
-122
-122
-123
-123
-124
-125
-126
-127
-128
-129
-130
-131
-131
-132
-133
-134
-135
-136
-136
-137
-138
-138
-139
-139
-139
-139
-139
-140
-140
-140
-140
-140
-140
-140
-140
-140
-140
-140
-140
-141
-140
-140
-141
-141
-141
-141
-142
-142
-143
-143
-143
-144
-144
-144
-145
-145
-145
-145
-146
-146
-146
-146
-146
-147
-147
-147
-147
-147
-147
-147
-146
-146
-146
-147
-147
-147
-147
-147
-147
-147
-147
-147
-147
-147
-147
-148
-148
-147
-147
-147
-147
-147
-146
-146
-146
-146
-145
-145
-144
-144
-144
-144
-144
-143
-143
-143
-143
-143
-143
-143
-143
-144
-144
-144
-144
-144
-144
-145
-145
-145
-145
-145
-145
-146
-146
-146
-146
-146
-146
-146
-146
-146
-146
-147
-147
-147
-147
-148
-148
-148
-148
-148
-148
-148
-148
-147
-147
-147
-147
-147
-146
-146
-146
-145
-145
-145
-144
-144
-144
-143
-143
-143
-143
-143
-143
-143
-143
-143
-144
-144
-144
-145
-145
-145
-145
-146
-146
-146
-147
-147
-147
-147
-147
-147
-147
-147
-147
-146
-146
-146
-146
-145
-145
-145
-145
-145
-144
-144
-144
-143
-143
-143
-143
-143
-143
-143
-144
-144
-144
-144
-144
-145
-145
-145
-145
-145
-145
-145
-145
-145
-145
-144
-144
-144
-144
-144
-144
-144
-144
-144
-144
-144
-145
-145
-145
-146
-146
-146
-147
-147
-147
-147
-148
-148
-148
-148
-149
-149
-149
-149
-149
-149
-149
-149
-149
-148
-148
-148
-148
-148
-147
-147
-147
-147
-147
-147
-147
-146
-146
-146
-145
-145
-145
-145
-145
-146
-146
-146
-146
-146
-146
-147
-147
-147
-147
-147
-148
-148
-148
-148
-148
-148
-147
-147
-147
-147
-147
-146
-146
-145
-145
-144
-144
-144
-144
-143
-143
-143
-144
-144
-144
-144
-144
-144
-144
-144
-145
-145
-145
-145
-145
-145
-145
-145
-145
-145
-145
-145
-145
-145
-144
-144
-144
-144
-143
-143
-143
-143
-143
-142
-142
-142
-142
-142
-142
-141
-141
-141
-141
-141
-141
-141
-140
-140
-140
-140
-140
-139
-139
-139
-139
-139
-139
-139
-139
-139
-138
-138
-138
-138
-138
-138
-138
-138
-138
-137
-137
-137
-136
-136
-136
-136
-136
-136
-135
-135
-135
-135
-135
-135
-135
-135
-135
-136
-136
-136
-137
-137
-137
-137
-137
-137
-138
-138
-138
-138
-137
-137
-137
-137
-136
-136
-136
-135
-135
-134
-134
-134
-134
-134
-134
-134
-135
-135
-135
-136
-136
-137
-138
-138
-139
-140
-140
-141
-142
-142
-143
-143
-144
-144
-144
-145
-145
-145
-145
-145
-146
-146
-145
-145
-145
-145
-145
-145
-145
-145
-145
-145
-145
-145
-145
-145
-145
-145
-145
-145
-145
-145
-146
-146
-146
-146
-147
-147
-147
-148
-148
-148
-148
-147
-147
-146
-146
-146
-146
-146
-146
-145
-145
-145
-144
-144
-144
-144
-144
-144
-145
-145
-145
-145
-146
-146
-146
-147
-147
-148
-148
-149
-149
-150
-151
-152
-153
-153
-155
-156
-157
-159
-161
-162
-163
-165
-166
-168
-169
-170
-171
-172
-172
-172
-171
-170
-169
-167
-164
-161
-157
-153
-148
-142
-136
-129
-122
-114
-106
-98
-89
-81
-72
-64
-55
-47
-38
-29
-21
-13
-6
0
6
11
15
17
19
20
20
20
19
17
15
12
8
3
-2
-8
-15
-22
-29
-37
-44
-51
-58
-65
-72
-79
-85
-91
-96
-102
-107
-111
-115
-119
-122
-126
-128
-131
-133
-135
-137
-138
-139
-140
-141
-141
-142
-142
-143
-144
-144
-145
-145
-145
-146
-146
-146
-147
-147
-148
-148
-148
-148
-148
-148
-148
-148
-148
-148
-148
-148
-148
-148
-148
-148
-148
-148
-148
-148
-148
-149
-149
-149
-149
-150
-150
-150
-150
-151
-151
-152
-152
-152
-152
-152
-152
-153
-153
-153
-153
-153
-153
-153
-153
-153
-153
-152
-152
-152
-152
-152
-152
-152
-152
-152
-152
-152
-152
-153
-153
-152
-152
-152
-152
-152
-153
-153
-153
-153
-153
-153
-153
-153
-153
-153
-153
-153
-152
-152
-152
-152
-152
-153
-153
-153
-152
-152
-152
-152
-151
-151
-151
-151
-151
-151
-151
-151
-151
-151
-151
-151
-151
-151
-152
-152
-152
-152
-152
-152
-152
-152
-153
-153
-153
-153
-153
-153
-153
-153
-153
-153
-153
-153
-153
-153
-153
-153
-153
-153
-153
-153
-153
-153
-152
-152
-152
-151
-151
-151
-151
-151
-151
-150
-150
-150
-150
-149
-149
-149
-149
-149
-149
-149
-149
-149
-149
-149
-149
-149
-149
-149
-149
-149
-148
-148
-147
-147
-147
-147
-147
-146
-146
-146
-145
-145
-145
-144
-144
-143
-143
-143
-143
-142
-142
-142
-142
-142
-141
-141
-140
-140
-139
-138
-138
-137
-136
-136
-135
-135
-135
-135
-134
-134
-133
-133
-132
-132
-132
-131
-131
-131
-130
-130
-129
-129
-128
-128
-127
-126
-126
-125
-124
-123
-123
-122
-121
-120
-119
-118
-117
-116
-116
-115
-115
-114
-114
-113
-113
-112
-112
-112
-111
-111
-110
-110
-109
-109
-109
-109
-109
-109
-108
-108
-108
-108
-108
-108
-108
-108
-108
-109
-109
-109
-110
-110
-110
-111
-111
-112
-113
-113
-114
-114
-115
-115
-116
-117
-117
-118
-118
-119
-119
-120
-121
-122
-122
-123
-123
-124
-124
-125
-126
-126
-127
-127
-127
-128
-129
-129
-130
-130
-131
-131
-132
-132
-133
-133
-134
-134
-135
-135
-136
-136
-137
-137
-138
-138
-139
-139
-139
-139
-139
-140
-140
-140
-141
-141
-141
-141
-141
-141
-141
-141
-141
-141
-141
-141
-141
-141
-142
-142
-142
-142
-142
-142
-142
-142
-142
-142
-142
-142
-142
-142
-143
-143
-143
-144
-144
-144
-144
-145
-145
-145
-145
-146
-146
-146
-146
-147
-147
-147
-148
-148
-148
-148
-148
-148
-148
-149
-149
-149
-149
-148
-148
-148
-148
-147
-147
-147
-147
-146
-146
-146
-146
-146
-145
-145
-145
-145
-145
-145
-145
-145
-145
-146
-146
-146
-146
-146
-146
-147
-147
-147
-147
-147
-147
-148
-148
-148
-148
-148
-148
-149
-149
-149
-149
-149
-149
-149
-150
-150
-150
-150
-150
-149
-149
-149
-149
-149
-148
-148
-148
-148
-148
-147
-147
-147
-147
-147
-147
-147
-147
-147
-147
-147
-147
-147
-148
-148
-148
-148
-148
-148
-148
-148
-148
-148
-148
-148
-148
-148
-148
-149
-149
-149
-149
-149
-149
-149
-149
-150
-150
-150
-150
-150
-151
-151
-151
-151
-151
-151
-151
-151
-150
-150
-150
-149
-149
-149
-149
-149
-149
-149
-149
-149
-149
-149
-149
-149
-149
-150
-150
-150
-150
-150
-151
-151
-151
-152
-152
-152
-152
-152
-152
-152
-152
-152
-152
-152
-151
-151
-152
-152
-152
-152
-152
-152
-152
-152
-152
-152
-152
-152
-153
-153
-153
-153
-153
-153
-153
-152
-152
-152
-152
-152
-152
-152
-152
-152
-151
-151
-151
-151
-152
-152
-152
-152
-153
-153
-153
-153
-154
-154
-155
-155
-155
-155
-155
-155
-155
-155
-155
-155
-155
-155
-155
-155
-154
-154
-153
-153
-153
-153
-153
-153
-153
-153
-153
-153
-153
-153
-153
-153
-153
-153
-153
-153
-154
-154
-154
-154
-154
-154
-154
-154
-153
-153
-152
-152
-152
-152
-151
-151
-150
-149
-148
-148
-147
-147
-147
-146
-146
-146
-145
-145
-145
-144
-144
-144
-145
-145
-145
-146
-146
-146
-146
-147
-147
-147
-148
-148
-148
-148
-148
-147
-148
-148
-148
-148
-147
-147
-147
-147
-146
-146
-146
-146
-145
-145
-145
-145
-145
-145
-145
-145
-145
-145
-145
-146
-146
-146
-146
-147
-147
-147
-147
-147
-147
-147
-147
-147
-147
-147
-147
-147
-147
-146
-146
-146
-146
-146
-146
-145
-145
-145
-145
-146
-146
-146
-146
-147
-147
-148
-148
-149
-149
-150
-150
-150
-151
-151
-151
-151
-152
-152
-152
-152
-153
-153
-153
-153
-154
-154
-154
-154
-154
-154
-154
-154
-154
-154
-154
-154
-154
-154
-155
-155
-155
-154
-154
-154
-154
-154
-154
-154
-155
-155
-155
-155
-156
-156
-156
-156
-156
-156
-157
-157
-157
-157
-157
-157
-158
-158
-158
-157
-157
-156
-156
-156
-157
-157
-157
-157
-157
-157
-157
-158
-158
-158
-159
-160
-161
-162
-163
-164
-165
-166
-167
-168
-170
-171
-172
-174
-175
-176
-178
-179
-180
-181
-182
-182
-182
-182
-181
-180
-179
-177
-174
-171
-168
-163
-159
-153
-147
-141
-134
-126
-117
-109
-100
-91
-82
-73
-64
-55
-46
-37
-28
-19
-11
-4
1
6
10
13
15
17
17
17
17
15
12
9
4
0
-6
-12
-20
-27
-35
-43
-50
-58
-66
-73
-80
-87
-94
-101
-107
-113
-118
-122
-126
-130
-133
-136
-139
-141
-143
-144
-145
-146
-147
-148
-148
-149
-149
-149
-150
-150
-151
-151
-152
-152
-153
-153
-154
-154
-155
-156
-156
-157
-157
-158
-158
-158
-159
-159
-159
-160
-160
-160
-161
-161
-161
-161
-161
-161
-162
-162
-162
-162
-162
-162
-162
-162
-162
-162
-162
-162
-162
-162
-162
-162
-162
-162
-162
-162
-162
-162
-162
-162
-162
-162
-162
-161
-161
-161
-162
-162
-162
-162
-161
-161
-161
-161
-160
-160
-160
-160
-160
-160
-160
-160
-160
-160
-160
-160
-160
-160
-159
-159
-159
-159
-159
-159
-159
-160
-160
-160
-159
-159
-159
-159
-159
-159
-159
-159
-159
-159
-159
-159
-159
-160
-160
-160
-160
-160
-160
-160
-160
-160
-160
-161
-161
-161
-161
-161
-161
-161
-161
-161
-161
-161
-161
-161
-161
-161
-161
-161
-161
-161
-161
-161
-161
-161
-161
-161
-161
-160
-160
-160
-160
-160
-160
-159
-159
-159
-159
-159
-159
-159
-159
-159
-159
-159
-159
-159
-159
-158
-158
-158
-157
-157
-157
-157
-156
-156
-156
-155
-155
-154
-154
-153
-153
-152
-152
-151
-151
-151
-151
-151
-151
-151
-151
-151
-150
-150
-150
-150
-150
-150
-150
-150
-149
-148
-148
-147
-147
-146
-146
-145
-144
-143
-142
-141
-140
-139
-139
-138
-138
-137
-137
-136
-135
-135
-134
-134
-134
-133
-133
-133
-133
-133
-132
-132
-131
-131
-130
-130
-129
-129
-129
-128
-128
-127
-126
-126
-125
-124
-123
-123
-122
-122
-121
-120
-119
-118
-118
-117
-116
-115
-115
-114
-114
-113
-113
-112
-111
-111
-110
-110
-109
-109
-110
-110
-110
-110
-110
-110
-110
-110
-111
-111
-112
-112
-113
-114
-114
-115
-115
-116
-116
-117
-117
-118
-119
-120
-120
-121
-121
-122
-122
-123
-124
-125
-126
-126
-127
-128
-128
-129
-130
-130
-131
-132
-132
-133
-133
-134
-134
-135
-135
-135
-135
-135
-136
-136
-137
-137
-137
-138
-138
-138
-139
-139
-139
-139
-140
-140
-141
-141
-142
-142
-143
-143
-143
-143
-143
-143
-144
-144
-144
-145
-145
-145
-146
-146
-146
-146
-147
-147
-147
-147
-148
-148
-148
-148
-148
-148
-148
-148
-148
-148
-148
-148
-147
-147
-147
-147
-147
-147
-147
-147
-147
-147
-147
-147
-147
-147
-147
-147
-147
-146
-146
-146
-146
-147
-147
-147
-147
-146
-146
-146
-146
-147
-147
-147
-147
-147
-147
-147
-148
-148
-148
-149
-149
-149
-149
-149
-149
-149
-148
-148
-148
-148
-148
-147
-147
-147
-147
-146
-146
-145
-145
-145
-145
-145
-145
-145
-145
-145
-145
-145
-145
-145
-145
-145
-146
-145
-145
-145
-145
-145
-146
-146
-146
-146
-146
-146
-145
-146
-146
-146
-146
-146
-146
-146
-146
-147
-147
-147
-147
-147
-147
-147
-147
-147
-147
-147
-147
-147
-147
-147
-147
-146
-146
-146
-146
-145
-145
-145
-145
-144
-144
-144
-143
-143
-143
-143
-144
-144
-144
-144
-144
-144
-145
-146
-146
-147
-148
-148
-148
-148
-148
-148
-149
-149
-149
-149
-150
-149
-149
-149
-149
-149
-148
-148
-148
-148
-148
-148
-148
-148
-148
-147
-147
-148
-148
-148
-148
-148
-148
-148
-148
-148
-148
-148
-148
-147
-147
-146
-146
-145
-145
-145
-145
-145
-145
-145
-145
-144
-144
-144
-144
-144
-144
-145
-146
-146
-146
-147
-147
-147
-147
-147
-148
-148
-148
-148
-148
-148
-148
-148
-148
-148
-148
-148
-148
-148
-148
-148
-148
-148
-148
-148
-148
-148
-148
-148
-148
-148
-148
-148
-147
-147
-147
-146
-147
-147
-147
-147
-147
-147
-147
-147
-147
-147
-146
-146
-146
-146
-146
-146
-147
-147
-146
-146
-146
-146
-147
-147
-148
-148
-148
-148
-148
-148
-148
-148
-148
-148
-147
-147
-147
-147
-146
-146
-145
-145
-144
-143
-142
-142
-141
-141
-140
-140
-139
-139
-138
-138
-138
-137
-137
-137
-136
-136
-136
-136
-136
-137
-137
-137
-137
-137
-138
-138
-138
-139
-139
-139
-140
-140
-140
-140
-140
-140
-140
-140
-140
-140
-140
-139
-139
-139
-138
-138
-138
-138
-137
-137
-136
-136
-136
-136
-136
-136
-136
-136
-136
-137
-137
-137
-138
-138
-138
-139
-138
-138
-138
-139
-139
-139
-139
-139
-139
-138
-138
-137
-137
-137
-136
-136
-136
-136
-136
-136
-136
-136
-137
-137
-137
-138
-138
-139
-140
-140
-141
-141
-141
-141
-142
-142
-142
-143
-143
-143
-144
-144
-144
-144
-144
-144
-144
-144
-144
-145
-145
-145
-145
-145
-145
-145
-145
-145
-145
-145
-145
-145
-144
-144
-144
-144
-144
-144
-144
-144
-144
-144
-144
-144
-144
-144
-145
-145
-145
-145
-145
-145
-145
-145
-145
-145
-146
-146
-145
-145
-145
-145
-144
-144
-144
-145
-145
-145
-145
-145
-145
-146
-146
-146
-147
-147
-148
-149
-150
-150
-151
-152
-153
-154
-156
-157
-159
-160
-162
-163
-164
-166
-167
-168
-168
-169
-169
-169
-168
-167
-165
-163
-160
-156
-152
-148
-142
-136
-129
-122
-114
-105
-97
-88
-79
-69
-60
-51
-41
-32
-22
-14
-6
1
7
12
16
20
22
24
25
24
24
22
19
16
11
6
0
-5
-12
-19
-27
-35
-43
-51
-58
-65
-72
-79
-85
-91
-97
-102
-107
-111
-115
-119
-122
-124
-127
-129
-131
-132
-133
-134
-135
-135
-136
-136
-137
-137
-137
-138
-138
-138
-138
-139
-139
-139
-140
-140
-141
-141
-142
-142
-142
-143
-143
-144
-144
-145
-145
-146
-146
-147
-147
-148
-148
-149
-149
-149
-149
-149
-149
-149
-149
-149
-149
-149
-149
-149
-148
-148
-148
-148
-148
-148
-148
-148
-148
-148
-148
-148
-149
-149
-149
-149
-149
-149
-149
-149
-150
-150
-150
-149
-149
-149
-149
-148
-148
-148
-148
-148
-147
-147
-147
-146
-146
-146
-146
-146
-146
-146
-146
-146
-146
-146
-146
-146
-146
-147
-147
-147
-147
-148
-148
-148
-148
-148
-148
-148
-148
-148
-148
-148
-149
-149
-148
-148
-148
-148
-148
-148
-148
-147
-147
-147
-147
-147
-147
-147
-146
-146
-146
-146
-146
-146
-146
-146
-145
-145
-146
-146
-146
-145
-145
-145
-145
-145
-145
-145
-145
-145
-145
-145
-145
-145
-145
-145
-145
-145
-145
-145
-145
-145
-145
-144
-144
-143
-143
-143
-143
-143
-142
-142
-142
-142
-141
-141
-141
-140
-140
-139
-139
-139
-139
-139
-139
-139
-139
-139
-138
-138
-138
-138
-138
-138
-138
-138
-138
-138
-138
-138
-138
-138
-138
-138
-138
-138
-137
-137
-137
-137
-136
-136
-135
-135
-134
-133
-132
-131
-130
-130
-129
-128
-127
-126
-126
-125
-124
-123
-122
-121
-120
-120
-119
-119
-118
-117
-117
-116
-115
-115
-114
-114
-113
-112
-112
-111
-110
-110
-109
-109
-108
-108
-107
-107
-106
-106
-106
-105
-105
-104
-104
-103
-103
-102
-102
-101
-101
-101
-101
-100
-100
-99
-99
-98
-98
-98
-98
-97
-97
-97
-97
-98
-98
-98
-98
-98
-98
-99
-99
-99
-100
-100
-100
-101
-102
-103
-103
-104
-104
-105
-105
-106
-107
-108
-109
-110
-111
-112
-113
-113
-114
-115
-116
-116
-117
-118
-119
-119
-120
-120
-121
-121
-121
-121
-122
-122
-122
-123
-123
-123
-123
-123
-123
-124
-124
-124
-124
-124
-125
-125
-125
-126
-126
-126
-126
-126
-127
-127
-127
-127
-127
-128
-128
-129
-129
-129
-130
-130
-131
-131
-132
-132
-133
-133
-133
-134
-134
-134
-134
-134
-134
-134
-134
-134
-134
-134
-134
-134
-133
-133
-133
-133
-133
-133
-133
-133
-133
-133
-133
-134
-134
-134
-134
-133
-133
-133
-133
-133
-133
-133
-133
-133
-133
-132
-132
-132
-132
-132
-132
-132
-132
-133
-133
-133
-133
-133
-134
-134
-134
-134
-134
-134
-134
-134
-134
-134
-134
-134
-134
-134
-134
-134
-134
-134
-134
-134
-135
-135
-135
-135
-135
-135
-135
-134
-134
-134
-134
-133
-133
-133
-133
-133
-132
-132
-131
-131
-131
-131
-132
-132
-132
-132
-132
-132
-132
-132
-133
-133
-133
-133
-134
-134
-134
-134
-135
-135
-135
-136
-136
-135
-135
-135
-135
-135
-135
-135
-135
-135
-135
-134
-134
-134
-134
-134
-134
-133
-133
-134
-134
-134
-134
-134
-134
-134
-133
-134
-134
-134
-134
-134
-134
-135
-135
-135
-135
-135
-135
-135
-135
-135
-135
-135
-135
-135
-135
-135
-135
-135
-135
-135
-135
-135
-135
-135
-135
-135
-134
-134
-135
-135
-135
-135
-135
-136
-136
-137
-137
-137
-137
-137
-137
-137
-137
-137
-137
-137
-137
-137
-137
-137
-137
-137
-137
-137
-136
-136
-136
-136
-136
-135
-135
-135
-135
-135
-135
-135
-135
-135
-136
-136
-136
-136
-136
-136
-136
-135
-135
-136
-136
-137
-137
-137
-137
-137
-137
-137
-138
-138
-138
-138
-138
-139
-139
-140
-140
-140
-140
-141
-141
-141
-141
-141
-141
-141
-141
-141
-141
-141
-141
-141
-140
-139
-139
-139
-139
-139
-139
-139
-138
-138
-137
-137
-137
-137
-137
-137
-137
-137
-137
-136
-136
-136
-136
-136
-136
-135
-135
-135
-135
-135
-135
-135
-135
-135
-135
-134
-134
-134
-133
-133
-132
-132
-132
-132
-132
-132
-132
-132
-132
-132
-132
-132
-132
-132
-132
-132
-133
-133
-133
-134
-134
-134
-134
-134
-134
-134
-134
-134
-134
-134
-134
-134
-134
-134
-134
-133
-133
-133
-132
-132
-132
-131
-131
-131
-131
-131
-131
-131
-131
-131
-131
-131
-132
-132
-132
-132
-132
-132
-133
-133
-133
-134
-134
-134
-135
-135
-135
-135
-135
-135
-134
-134
-134
-134
-134
-135
-135
-135
-135
-135
-135
-135
-136
-136
-136
-136
-136
-136
-136
-136
-137
-137
-138
-138
-138
-138
-139
-139
-139
-139
-139
-139
-139
-139
-140
-140
-140
-140
-141
-141
-142
-142
-142
-142
-142
-142
-142
-142
-142
-142
-142
-143
-143
-143
-142
-142
-142
-142
-142
-142
-142
-142
-142
-142
-142
-142
-142
-142
-143
-143
-143
-143
-143
-143
-143
-143
-143
-143
-143
-143
-143
-143
-143
-143
-142
-142
-143
-143
-143
-144
-144
-145
-145
-146
-147
-149
-150
-152
-153
-155
-157
-159
-160
-162
-163
-164
-166
-167
-168
-168
-169
-169
-169
-168
-167
-165
-162
-159
-156
-152
-148
-143
-137
-131
-124
-117
-109
-101
-93
-84
-75
-67
-58
-49
-40
-31
-22
-14
-6
0
6
11
15
18
21
22
23
23
22
20
17
14
9
4
-1
-8
-15
-22
-29
-37
-45
-53
-60
-68
-75
-81
-88
-94
-99
-104
-109
-113
-117
-120
-123
-125
-127
-129
-130
-132
-133
-133
-134
-135
-135
-136
-136
-137
-138
-138
-139
-140
-141
-142
-143
-143
-144
-145
-146
-147
-148
-148
-149
-149
-150
-150
-150
-150
-150
-150
-150
-150
-150
-150
-150
-150
-150
-150
-150
-150
-150
-150
-150
-150
-150
-150
-150
-150
-150
-150
-150
-150
-151
-151
-151
-151
-151
-151
-152
-152
-152
-152
-152
-152
-152
-152
-153
-152
-152
-152
-152
-152
-152
-152
-152
-152
-152
-151
-151
-151
-151
-151
-151
-151
-151
-151
-151
-150
-150
-150
-151
-151
-151
-151
-151
-151
-152
-152
-152
-152
-152
-152
-152
-152
-152
-151
-151
-152
-152
-152
-152
-152
-151
-151
-151
-150
-151
-151
-151
-151
-151
-152
-152
-152
-152
-152
-153
-153
-153
-154
-154
-154
-154
-154
-154
-154
-154
-154
-154
-154
-153
-153
-153
-153
-152
-152
-152
-151
-151
-151
-151
-151
-151
-151
-151
-151
-151
-152
-152
-152
-152
-152
-152
-152
-152
-152
-152
-152
-152
-151
-151
-151
-150
-150
-150
-150
-150
-150
-150
-150
-150
-150
-149
-149
-149
-150
-150
-150
-150
-149
-149
-149
-149
-149
-149
-148
-148
-148
-147
-147
-146
-145
-144
-144
-143
-142
-141
-140
-140
-139
-139
-138
-138
-137
-136
-136
-135
-135
-134
-134
-134
-133
-133
-132
-132
-132
-132
-131
-131
-131
-131
-130
-130
-129
-128
-127
-127
-126
-125
-125
-124
-124
-123
-122
-122
-121
-120
-119
-119
-118
-118
-118
-117
-117
-117
-116
-116
-115
-115
-114
-114
-113
-113
-113
-112
-112
-111
-111
-110
-110
-110
-109
-109
-109
-109
-108
-108
-108
-108
-108
-108
-108
-109
-109
-109
-110
-110
-110
-111
-111
-112
-112
-113
-113
-114
-114
-115
-116
-117
-118
-119
-119
-120
-121
-122
-122
-123
-123
-124
-125
-125
-126
-127
-127
-128
-128
-129
-129
-130
-130
-130
-131
-131
-131
-132
-132
-132
-132
-133
-133
-133
-134
-134
-135
-135
-135
-135
-135
-135
-135
-136
-136
-136
-136
-136
-136
-137
-137
-137
-137
-138
-138
-139
-139
-139
-140
-140
-140
-141
-141
-141
-142
-142
-143
-143
-143
-143
-143
-143
-143
-143
-143
-143
-143
-142
-142
-142
-142
-141
-141
-141
-141
-140
-140
-140
-140
-140
-141
-141
-141
-141
-141
-141
-141
-141
-141
-141
-142
-142
-142
-142
-142
-142
-143
-143
-143
-143
-143
-143
-143
-143
-143
-143
-143
-143
-143
-143
-143
-144
-143
-143
-143
-143
-143
-143
-143
-143
-142
-142
-142
-142
-142
-142
-142
-142
-142
-142
-142
-142
-142
-142
-142
-142
-142
-142
-142
-142
-142
-142
-142
-143
-143
-143
-142
-142
-142
-142
-142
-141
-141
-141
-141
-141
-141
-141
-141
-141
-141
-141
-141
-141
-141
-141
-141
-140
-141
-141
-141
-142
-142
-142
-142
-143
-143
-143
-143
-143
-143
-143
-143
-143
-143
-143
-143
-143
-143
-142
-142
-142
-142
-142
-142
-142
-141
-141
-141
-140
-140
-140
-140
-140
-140
-140
-140
-140
-140
-140
-141
-141
-141
-141
-141
-141
-141
-142
-142
-142
-142
-142
-143
-143
-144
-144
-144
-144
-145
-145
-145
-145
-145
-145
-145
-145
-146
-146
-146
-145
-145
-145
-145
-145
-145
-144
-144
-143
-143
-143
-142
-142
-142
-142
-142
-141
-141
-141
-141
-141
-141
-141
-141
-141
-141
-142
-142
-143
-143
-144
-144
-144
-144
-144
-144
-145
-145
-145
-146
-146
-146
-145
-145
-144
-144
-144
-144
-144
-143
-143
-142
-142
-141
-141
-141
-141
-141
-141
-141
-141
-142
-142
-142
-142
-142
-143
-143
-144
-144
-144
-144
-144
-144
-144
-144
-145
-145
-145
-145
-145
-145
-145
-145
-144
-144
-144
-144
-145
-145
-145
-145
-145
-145
-145
-145
-145
-145
-145
-145
-145
-145
-145
-145
-145
-145
-145
-144
-144
-144
-144
-143
-143
-143
-143
-142
-142
-142
-142
-141
-141
-141
-140
-140
-139
-139
-139
-138
-138
-138
-138
-138
-137
-137
-137
-137
-136
-136
-136
-136
-136
-136
-137
-137
-137
-137
-138
-138
-138
-138
-138
-138
-138
-139
-139
-139
-139
-139
-139
-139
-139
-139
-138
-138
-138
-138
-137
-137
-137
-136
-136
-136
-136
-136
-136
-137
-138
-138
-139
-139
-140
-140
-140
-141
-141
-142
-142
-142
-142
-142
-142
-142
-142
-142
-142
-141
-141
-140
-140
-139
-139
-138
-138
-137
-137
-137
-137
-138
-138
-139
-139
-140
-140
-141
-141
-142
-143
-143
-144
-145
-145
-145
-146
-146
-147
-147
-147
-147
-147
-147
-147
-147
-147
-147
-147
-146
-146
-146
-146
-146
-147
-147
-147
-147
-147
-147
-147
-147
-147
-148
-148
-148
-148
-148
-148
-148
-148
-148
-148
-148
-148
-148
-147
-147
-147
-146
-146
-146
-146
-146
-146
-145
-145
-145
-146
-146
-146
-146
-146
-146
-146
-147
-147
-147
-148
-149
-150
-151
-151
-152
-153
-154
-155
-156
-158
-159
-161
-162
-163
-165
-166
-168
-170
-171
-171
-172
-172
-172
-171
-171
-170
-169
-167
-164
-161
-157
-153
-149
-143
-138
-132
-125
-118
-110
-102
-94
-85
-77
-69
-61
-52
-44
-35
-26
-18
-11
-4
1
5
9
12
14
15
16
16
15
14
11
8
3
-1
-7
-13
-20
-27
-34
-42
-50
-57
-64
-71
-78
-84
-90
-96
-102
-107
-112
-116
-120
-123
-126
-129
-131
-133
-134
-136
-137
-138
-138
-139
-139
-140
-141
-141
-142
-142
-142
-142
-143
-143
-144
-145
-145
-146
-146
-147
-147
-147
-148
-148
-148
-149
-149
-149
-150
-150
-150
-151
-151
-151
-151
-152
-152
-152
-152
-152
-153
-153
-153
-153
-153
-153
-153
-153
-153
-154
-154
-154
-155
-155
-155
-155
-155
-155
-154
-154
-154
-155
-155
-155
-155
-155
-155
-155
-155
-155
-154
-154
-154
-154
-154
-154
-154
-154
-154
-154
-154
-154
-153
-153
-153
-153
-153
-153
-153
-153
-153
-152
-152
-152
-152
-152
-152
-152
-152
-152
-152
-152
-152
-152
-152
-152
-152
-152
-152
-152
-152
-152
-152
-153
-153
-153
-152
-152
-152
-153
-153
-153
-153
-154
-154
-154
-154
-154
-154
-155
-155
-155
-155
-155
-155
-155
-155
-155
-155
-155
-155
-155
-155
-155
-155
-155
-155
-155
-155
-155
-155
-155
-155
-155
-155
-155
-155
-155
-155
-155
-155
-155
-155
-154
-154
-154
-153
-153
-153
-153
-153
-152
-152
-152
-151
-151
-151
-151
-151
-150
-150
-150
-150
-149
-149
-149
-149
-149
-149
-149
-149
-149
-148
-148
-147
-147
-147
-147
-147
-146
-146
-146
-145
-145
-144
-144
-144
-143
-143
-142
-142
-141
-141
-140
-140
-140
-139
-139
-139
-138
-137
-137
-136
-136
-135
-135
-134
-133
-132
-132
-131
-130
-129
-129
-128
-127
-126
-126
-125
-124
-123
-122
-121
-121
-121
-121
-120
-120
-119
-119
-119
-118
-118
-118
-118
-118
-118
-118
-118
-118
-117
-117
-117
-116
-116
-116
-115
-115
-115
-115
-114
-114
-113
-113
-113
-113
-112
-112
-112
-112
-112
-112
-112
-112
-112
-112
-112
-113
-113
-113
-114
-114
-114
-115
-115
-116
-117
-117
-117
-118
-118
-119
-120
-121
-122
-123
-124
-124
-125
-126
-126
-127
-128
-129
-129
-130
-131
-132
-132
-132
-133
-133
-134
-134
-135
-135
-136
-136
-136
-137
-137
-138
-138
-138
-139
-139
-139
-140
-140
-141
-141
-142
-142
-143
-143
-143
-143
-143
-143
-143
-143
-143
-143
-143
-143
-143
-143
-143
-143
-143
-143
-144
-144
-144
-144
-144
-144
-145
-145
-145
-145
-146
-146
-146
-146
-146
-146
-146
-146
-146
-146
-146
-146
-146
-145
-145
-145
-145
-145
-145
-144
-144
-144
-144
-144
-145
-145
-145
-145
-145
-145
-145
-144
-144
-144
-144
-144
-144
-144
-145
-145
-145
-144
-145
-145
-145
-145
-145
-145
-145
-144
-144
-144
-144
-144
-144
-144
-144
-143
-143
-143
-143
-143
-143
-143
-143
-143
-143
-143
-143
-143
-143
-143
-143
-143
-143
-143
-143
-144
-144
-145
-145
-145
-145
-146
-146
-146
-146
-146
-145
-145
-145
-144
-144
-144
-144
-145
-145
-144
-144
-144
-144
-144
-144
-144
-144
-144
-144
-144
-144
-145
-145
-145
-146
-146
-146
-146
-145
-145
-145
-145
-145
-145
-145
-145
-145
-145
-145
-144
-144
-144
-143
-143
-143
-143
-143
-143
-142
-142
-142
-142
-142
-142
-142
-142
-143
-143
-143
-143
-143
-143
-144
-144
-144
-144
-144
-144
-144
-144
-144
-144
-144
-144
-144
-144
-144
-144
-144
-144
-144
-144
-144
-143
-144
-144
-144
-144
-145
-145
-145
-146
-146
-146
-147
-147
-147
-148
-148
-148
-148
-148
-148
-148
-149
-149
-149
-149
-149
-149
-148
-148
-148
-148
-147
-147
-147
-147
-147
-146
-146
-145
-145
-145
-145
-145
-144
-144
-144
-144
-144
-144
-145
-145
-145
-145
-145
-145
-145
-145
-146
-146
-146
-146
-147
-147
-147
-147
-147
-148
-148
-148
-148
-148
-148
-148
-148
-148
-148
-147
-147
-147
-147
-147
-147
-147
-147
-147
-146
-146
-146
-146
-146
-147
-147
-147
-147
-147
-147
-147
-147
-147
-148
-148
-148
-148
-147
-147
-146
-146
-146
-145
-145
-145
-144
-144
-143
-142
-142
-142
-141
-141
-141
-140
-140
-140
-140
-140
-140
-140
-140
-140
-139
-139
-140
-140
-140
-140
-140
-140
-140
-141
-141
-141
-141
-141
-141
-141
-142
-142
-142
-142
-142
-142
-142
-142
-142
-142
-142
-142
-142
-142
-141
-141
-141
-140
-140
-140
-139
-139
-138
-138
-138
-138
-138
-138
-138
-139
-139
-139
-139
-140
-140
-140
-141
-141
-141
-141
-141
-140
-140
-140
-140
-140
-140
-140
-139
-139
-138
-137
-137
-136
-136
-136
-137
-137
-137
-137
-137
-137
-138
-139
-140
-141
-141
-142
-143
-143
-144
-144
-145
-145
-146
-146
-147
-147
-147
-147
-148
-148
-148
-147
-147
-147
-147
-147
-147
-147
-147
-147
-147
-147
-147
-147
-147
-147
-146
-146
-146
-146
-146
-146
-146
-146
-146
-147
-147
-147
-147
-147
-148
-148
-148
-149
-149
-149
-150
-150
-150
-151
-151
-151
-151
-151
-151
-151
-151
-151
-151
-151
-151
-150
-150
-150
-149
-149
-149
-148
-149
-149
-149
-149
-149
-150
-150
-151
-153
-154
-156
-157
-159
-161
-163
-164
-166
-168
-170
-171
-172
-173
-174
-175
-175
-175
-174
-173
-170
-168
-164
-160
-156
-151
-146
-140
-133
-126
-119
-111
-102
-94
-85
-77
-68
-60
-51
-42
-33
-24
-16
-8
-1
4
9
13
16
19
20
22
22
21
20
18
15
11
6
0
-5
-12
-19
-26
-34
-41
-49
-56
-63
-70
-77
-84
-90
-96
-101
-106
-110
-115
-119
-122
-125
-128
-130
-132
-134
-135
-136
-137
-137
-138
-138
-138
-139
-139
-140
-140
-140
-140
-140
-141
-141
-141
-142
-142
-143
-143
-144
-144
-145
-145
-146
-147
-147
-148
-148
-149
-149
-149
-150
-150
-151
-151
-151
-151
-151
-151
-151
-151
-151
-150
-150
-150
-150
-150
-149
-149
-149
-149
-149
-149
-148
-148
-149
-149
-149
-149
-149
-149
-149
-149
-149
-150
-150
-150
-150
-150
-150
-151
-151
-151
-151
-151
-151
-151
-151
-151
-152
-152
-152
-152
-152
-151
-151
-151
-151
-152
-152
-152
-152
-152
-151
-151
-151
-151
-151
-151
-150
-149
-148
-148
-147
-147
-147
-147
-146
-146
-146
-145
-145
-145
-145
-145
-145
-145
-145
-146
-146
-146
-146
-147
-147
-147
-147
-147
-147
-147
-147
-147
-148
-148
-148
-148
-148
-147
-147
-148
-148
-148
-148
-148
-148
-148
-148
-148
-148
-148
-148
-149
-149
-149
-148
-148
-148
-148
-148
-148
-148
-148
-148
-148
-148
-148
-147
-147
-147
-147
-147
-147
-147
-146
-146
-146
-145
-145
-144
-144
-144
-144
-143
-143
-143
-143
-143
-143
-142
-142
-142
-142
-141
-141
-141
-140
-140
-139
-139
-138
-138
-137
-137
-136
-136
-135
-135
-134
-133
-133
-132
-132
-132
-131
-131
-130
-130
-130
-130
-129
-128
-128
-127
-127
-126
-126
-125
-125
-124
-123
-122
-122
-121
-121
-120
-120
-119
-118
-118
-117
-117
-116
-116
-115
-114
-113
-112
-111
-111
-110
-110
-109
-108
-108
-107
-106
-105
-105
-104
-104
-103
-103
-103
-103
-103
-102
-102
-102
-101
-101
-101
-101
-100
-100
-100
-100
-100
-99
-99
-99
-99
-99
-100
-100
-101
-101
-101
-101
-102
-102
-103
-104
-105
-106
-107
-108
-109
-110
-111
-111
-112
-113
-114
-115
-115
-116
-117
-118
-118
-119
-119
-119
-120
-120
-120
-121
-121
-122
-122
-122
-123
-123
-124
-124
-124
-124
-125
-125
-126
-126
-127
-127
-127
-127
-127
-127
-128
-128
-129
-129
-129
-130
-130
-130
-130
-130
-130
-131
-131
-131
-131
-131
-132
-132
-132
-133
-133
-133
-133
-134
-134
-134
-135
-135
-135
-135
-136
-136
-136
-136
-136
-136
-136
-135
-135
-135
-135
-135
-135
-135
-135
-134
-134
-134
-134
-134
-134
-134
-135
-135
-135
-135
-135
-136
-136
-137
-137
-137
-138
-138
-138
-138
-138
-138
-138
-138
-138
-138
-138
-139
-138
-138
-138
-138
-138
-138
-137
-137
-137
-137
-136
-136
-136
-135
-135
-135
-135
-135
-135
-135
-134
-134
-134
-134
-134
-134
-134
-134
-134
-134
-134
-135
-135
-135
-135
-135
-135
-135
-135
-135
-135
-135
-135
-135
-135
-135
-135
-135
-134
-134
-134
-134
-134
-134
-134
-133
-133
-133
-133
-133
-132
-133
-133
-133
-133
-133
-133
-133
-133
-133
-132
-133
-133
-133
-133
-133
-133
-133
-133
-133
-133
-133
-133
-133
-133
-133
-134
-134
-134
-134
-134
-135
-135
-135
-135
-135
-135
-134
-135
-135
-135
-135
-134
-134
-134
-134
-134
-134
-133
-133
-133
-134
-134
-134
-134
-134
-134
-134
-134
-134
-134
-135
-135
-135
-135
-135
-135
-135
-136
-136
-136
-136
-136
-136
-135
-135
-135
-135
-134
-134
-134
-134
-134
-134
-134
-133
-133
-133
-133
-133
-133
-133
-134
-134
-134
-135
-135
-136
-136
-137
-137
-138
-138
-138
-138
-138
-139
-138
-138
-138
-138
-137
-136
-136
-135
-135
-135
-135
-135
-135
-134
-134
-134
-134
-134
-134
-134
-135
-135
-135
-136
-136
-136
-136
-136
-137
-137
-137
-137
-138
-138
-138
-138
-138
-138
-138
-138
-139
-139
-139
-139
-139
-139
-138
-138
-138
-138
-137
-137
-137
-137
-137
-137
-137
-136
-136
-136
-136
-136
-136
-136
-137
-137
-137
-137
-137
-136
-136
-136
-136
-136
-136
-136
-136
-135
-135
-135
-135
-135
-135
-135
-135
-135
-135
-136
-136
-136
-136
-136
-136
-136
-136
-135
-135
-135
-134
-134
-133
-132
-132
-131
-131
-130
-130
-129
-129
-128
-127
-127
-126
-126
-126
-126
-126
-126
-126
-126
-126
-126
-126
-126
-126
-126
-126
-127
-127
-128
-129
-129
-130
-130
-131
-131
-132
-132
-132
-132
-132
-132
-133
-133
-133
-133
-133
-132
-132
-132
-131
-131
-130
-130
-129
-129
-129
-129
-129
-129
-129
-129
-129
-129
-129
-129
-130
-130
-131
-131
-131
-132
-132
-132
-132
-131
-131
-131
-131
-131
-131
-130
-130
-130
-130
-129
-129
-128
-128
-127
-127
-128
-128
-128
-129
-129
-129
-129
-130
-130
-131
-131
-132
-132
-133
-133
-134
-134
-134
-135
-135
-135
-135
-136
-136
-136
-136
-136
-136
-136
-136
-136
-136
-137
-137
-137
-137
-137
-137
-137
-137
-137
-137
-138
-138
-138
-138
-138
-138
-138
-138
-139
-139
-140
-140
-140
-140
-140
-141
-141
-141
-142
-142
-142
-142
-142
-142
-142
-142
-142
-142
-142
-141
-141
-141
-141
-141
-141
-141
-141
-141
-141
-141
-141
-141
-142
-142
-143
-144
-145
-146
-148
-149
-151
-152
-154
-155
-157
-158
-160
-161
-161
-162
-162
-163
-162
-162
-161
-159
-157
-154
-151
-147
-143
-138
-132
-126
-119
-112
-104
-96
-88
-79
-70
-61
-53
-44
-34
-25
-16
-7
0
8
15
20
25
29
32
34
36
36
36
35
33
30
26
21
16
10
3
-4
-12
-20
-28
-36
-44
-52
-59
-67
-73
-80
-87
-93
-98
-103
-108
-112
-115
-118
-120
-122
-124
-125
-127
-127
-128
-129
-129
-129
-129
-129
-129
-129
-130
-130
-131
-131
-132
-132
-133
-133
-134
-134
-135
-136
-136
-137
-137
-137
-138
-138
-138
-139
-139
-139
-139
-139
-138
-138
-138
-138
-138
-138
-138
-138
-138
-138
-138
-138
-138
-137
-137
-137
-137
-138
-138
-138
-138
-138
-138
-138
-138
-138
-139
-139
-139
-139
-139
-139
-140
-140
-140
-140
-140
-140
-140
-140
-140
-140
-140
-140
-140
-140
-140
-140
-139
-139
-138
-138
-138
-138
-138
-138
-138
-138
-138
-138
-138
-138
-138
-138
-138
-138
-138
-138
-139
-139
-139
-138
-138
-138
-138
-138
-137
-137
-137
-137
-137
-137
-137
-137
-137
-136
-136
-136
-136
-136
-136
-136
-136
-137
-137
-137
-137
-137
-137
-137
-137
-137
-137
-137
-137
-137
-137
-137
-137
-137
-137
-136
-136
-136
-136
-136
-136
-136
-135
-135
-135
-135
-135
-135
-135
-135
-135
-135
-135
-135
-135
-135
-135
-135
-135
-135
-135
-135
-134
-134
-134
-134
-134
-133
-133
-133
-133
-133
-133
-132
-132
-132
-132
-131
-131
-131
-131
-131
-130
-130
-130
-130
-129
-129
-128
-127
-127
-127
-127
-126
-126
-125
-124
-124
-123
-123
-123
-123
-123
-123
-123
-122
-122
-121
-121
-120
-120
-120
-120
-119
-119
-118
-117
-116
-116
-114
-113
-112
-111
-110
-109
-109
-108
-107
-106
-106
-105
-104
-103
-103
-102
-102
-101
-100
-99
-99
-98
-98
-97
-97
-96
-96
-95
-94
-94
-93
-93
-92
-92
-91
-91
-91
-90
-90
-90
-90
-90
-90
-89
-89
-89
-89
-88
-88
-88
-88
-88
-89
-89
-89
-89
-89
-89
-89
-90
-90
-91
-91
-92
-92
-93
-93
-94
-95
-95
-95
-96
-96
-97
-97
-98
-99
-99
-100
-101
-101
-102
-102
-103
-104
-105
-105
-106
-107
-107
-108
-108
-109
-110
-111
-111
-112
-112
-112
-113
-113
-114
-114
-114
-115
-115
-115
-116
-116
-117
-117
-117
-117
-117
-117
-118
-118
-119
-119
-119
-119
-119
-119
-119
-119
-120
-120
-120
-120
-120
-120
-120
-120
-121
-121
-121
-121
-122
-122
-122
-122
-122
-122
-122
-122
-122
-122
-122
-122
-122
-122
-122
-122
-122
-122
-122
-122
-122
-122
-123
-123
-123
-123
-123
-123
-123
-123
-123
-123
-123
-123
-123
-123
-123
-123
-123
-123
-122
-122
-122
-122
-122
-122
-121
-121
-122
-122
-122
-121
-121
-121
-121
-120
-120
-121
-121
-121
-121
-121
-121
-121
-122
-122
-122
-122
-122
-123
-123
-123
-124
-124
-124
-124
-123
-123
-123
-123
-123
-123
-122
-122
-122
-122
-121
-121
-121
-121
-121
-120
-120
-120
-120
-120
-120
-120
-120
-120
-120
-120
-120
-120
-120
-119
-119
-119
-119
-119
-119
-120
-119
-119
-119
-119
-119
-119
-119
-119
-119
-119
-119
-120
-120
-120
-120
-120
-119
-119
-119
-119
-119
-119
-119
-119
-119
-119
-119
-118
-118
-118
-118
-118
-118
-118
-118
-118
-118
-118
-118
-118
-118
-118
-118
-118
-119
-119
-119
-119
-119
-119
-119
-119
-119
-119
-119
-119
-119
-119
-119
-119
-119
-119
-120
-120
-120
-120
-120
-120
-120
-120
-120
-120
-120
-120
-120
-120
-119
-119
-119
-119
-119
-119
-119
-119
-119
-119
-118
-118
-118
-118
-119
-119
-119
-119
-119
-119
-119
-119
-119
-119
-119
-119
-119
-119
-119
-119
-119
-119
-119
-119
-119
-119
-119
-119
-119
-120
-120
-120
-120
-120
-120
-119
-119
-119
-119
-120
-120
-120
-120
-120
-119
-119
-119
-119
-118
-119
-119
-119
-119
-118
-118
-118
-117
-117
-117
-117
-117
-117
-117
-117
-117
-117
-117
-117
-117
-117
-117
-117
-118
-118
-118
-118
-118
-118
-118
-118
-118
-118
-118
-118
-119
-119
-119
-119
-119
-119
-120
-120
-120
-120
-120
-120
-119
-119
-119
-119
-118
-118
-118
-117
-117
-117
-117
-117
-116
-116
-116
-115
-115
-115
-115
-114
-114
-114
-114
-114
-114
-114
-114
-113
-113
-113
-112
-112
-111
-110
-110
-110
-110
-110
-109
-109
-109
-109
-108
-108
-108
-109
-109
-109
-110
-110
-111
-111
-112
-112
-113
-113
-114
-114
-114
-115
-115
-114
-114
-114
-114
-114
-114
-114
-114
-113
-113
-113
-112
-112
-112
-111
-111
-111
-111
-111
-111
-111
-112
-112
-112
-112
-113
-113
-113
-113
-114
-114
-113
-113
-113
-113
-113
-112
-112
-112
-112
-111
-111
-110
-110
-110
-110
-109
-109
-109
-110
-110
-110
-110
-110
-110
-111
-111
-111
-111
-112
-112
-112
-112
-113
-113
-113
-113
-113
-113
-113
-113
-114
-114
-115
-115
-116
-116
-117
-117
-117
-117
-118
-118
-118
-118
-119
-118
-118
-118
-118
-118
-118
-118
-117
-117
-117
-117
-117
-117
-117
-116
-116
-116
-116
-116
-116
-116
-117
-117
-117
-117
-117
-117
-117
-117
-117
-117
-116
-116
-115
-115
-115
-115
-115
-116
-116
-116
-116
-115
-115
-116
-116
-117
-118
-119
-119
-120
-121
-122
-124
-125
-126
-128
-129
-131
-132
-134
-135
-137
-138
-139
-140
-141
-141
-141
-140
-140
-139
-137
-134
-131
-127
-122
-117
-112
-106
-99
-92
-85
-77
-69
-60
-51
-42
-33
-24
-15
-6
1
10
18
26
33
39
44
48
51
53
55
56
56
55
53
51
48
43
38
32
25
18
11
3
-4
-12
-19
-27
-34
-42
-49
-55
-61
-67
-72
-77
-81
-85
-89
-92
-94
-96
-98
-99
-100
-101
-102
-103
-103
-104
-104
-105
-105
-106
-106
-107
-108
-108
-109
-110
-110
-111
-111
-112
-112
-113
-113
-114
-114
-115
-115
-115
-115
-115
-115
-115
-115
-116
-116
-116
-116
-116
-116
-116
-116
-117
-117
-117
-117
-117
-117
-117
-117
-118
-118
-118
-118
-118
-118
-118
-118
-118
-118
-118
-118
-118
-118
-118
-118
-117
-117
-117
-117
-117
-117
-117
-116
-116
-115
-115
-115
-116
-116
-116
-116
-116
-116
-116
-116
-116
-116
-116
-116
-116
-117
-117
-117
-118
-118
-118
-118
-118
-118
-118
-118
-117
-117
-117
-117
-116
-116
-116
-115
-115
-114
-114
-113
-113
-113
-113
-113
-113
-113
-113
-113
-113
-113
-113
-113
-113
-114
-114
-114
-115
-115
-115
-115
-115
-115
-115
-115
-115
-115
-114
-114
-114
-114
-114
-114
-114
-114
-114
-113
-113
-112
-112
-112
-112
-112
-112
-112
-111
-111
-111
-111
-111
-111
-111
-111
-111
-111
-111
-111
-111
-111
-111
-111
-111
-111
-111
-111
-111
-111
-111
-110
-110
-110
-110
-110
-110
-110
-110
-109
-109
-109
-109
-108
-108
-108
-107
-107
-107
-106
-106
-105
-105
-104
-104
-103
-103
-102
-102
-101
-101
-100
-100
-99
-99
-98
-98
-97
-97
-96
-95
-95
-94
-94
-93
-92
-91
-90
-89
-88
-87
-86
-85
-84
-84
-83
-82
-82
-81
-80
-79
-78
-78
-78
-77
-77
-77
-77
-77
-76
-76
-75
-75
-74
-74
-74
-74
-73
-72
-71
-71
-70
-69
-69
-68
-67
-67
-66
-65
-65
-64
-64
-64
-63
-63
-63
-62
-62
-62
-62
-62
-62
-62
-62
-63
-63
-63
-63
-63
-63
-64
-64
-64
-65
-65
-66
-67
-67
-68
-68
-69
-69
-70
-71
-71
-72
-72
-73
-73
-74
-74
-75
-75
-76
-76
-77
-77
-78
-78
-79
-80
-80
-81
-82
-82
-83
-84
-85
-86
-87
-87
-88
-89
-89
-90
-90
-91
-91
-91
-92
-92
-92
-92
-92
-92
-92
-92
-92
-93
-93
-93
-93
-93
-93
-93
-94
-94
-94
-94
-95
-95
-96
-96
-96
-96
-96
-96
-96
-96
-96
-96
-96
-96
-97
-97
-97
-97
-97
-97
-97
-97
-97
-97
-98
-98
-98
-98
-98
-98
-98
-98
-98
-98
-98
-99
-99
-99
-99
-99
-99
-99
-99
-99
-100
-100
-100
-100
-100
-100
-100
-100
-100
-100
-101
-101
-100
-100
-100
-100
-100
-100
-99
-99
-99
-99
-99
-99
-98
-98
-98
-98
-98
-98
-98
-98
-98
-98
-98
-98
-99
-99
-99
-99
-99
-100
-100
-100
-100
-100
-100
-100
-100
-100
-100
-100
-100
-99
-99
-98
-98
-98
-98
-97
-97
-97
-97
-97
-97
-97
-97
-97
-97
-98
-98
-98
-98
-99
-99
-100
-100
-101
-101
-101
-101
-101
-101
-101
-101
-101
-101
-101
-101
-101
-101
-101
-101
-100
-100
-100
-100
-100
-100
-100
-100
-99
-99
-99
-99
-100
-100
-100
-100
-99
-99
-99
-99
-99
-100
-100
-100
-100
-100
-100
-101
-101
-101
-101
-101
-102
-102
-102
-102
-102
-102
-102
-102
-102
-102
-102
-102
-102
-102
-101
-101
-101
-101
-101
-101
-101
-100
-100
-101
-101
-100
-100
-100
-100
-100
-100
-100
-100
-100
-101
-101
-101
-101
-101
-100
-100
-100
-100
-100
-100
-100
-100
-100
-100
-100
-100
-100
-100
-100
-100
-100
-100
-100
-100
-100
-101
-101
-101
-101
-102
-102
-102
-102
-102
-102
-102
-102
-102
-102
-102
-102
-102
-102
-102
-102
-102
-102
-102
-102
-102
-101
-101
-101
-101
-100
