# Simple Text Format
# Sampling Rate (Hz):= 1200.00
# Resolution:= 12
# Labels:= ECG	 V3
# Age:=	62
# Gender:=	Feminino
26
28
29
30
28
27
24
20
15
9
1
-9
-21
-33
-48
-63
-81
-98
-116
-135
-155
-174
-193
-211
-230
-247
-263
-278
-291
-303
-313
-322
-328
-331
-335
-337
-336
-334
-331
-326
-320
-313
-306
-297
-288
-277
-267
-257
-245
-235
-224
-214
-203
-193
-184
-175
-167
-159
-151
-145
-139
-132
-127
-123
-119
-115
-112
-110
-107
-106
-104
-103
-102
-101
-101
-100
-100
-100
-99
-99
-100
-100
-100
-100
-100
-100
-100
-100
-100
-100
-100
-100
-100
-99
-99
-99
-99
-98
-98
-98
-98
-98
-97
-97
-97
-97
-96
-96
-96
-96
-96
-95
-95
-95
-95
-95
-94
-94
-94
-94
-94
-94
-93
-93
-93
-93
-93
-93
-93
-92
-92
-92
-92
-92
-92
-92
-92
-91
-91
-91
-91
-90
-89
-89
-89
-89
-89
-88
-88
-88
-88
-88
-88
-87
-87
-87
-87
-85
-85
-85
-84
-84
-84
-84
-84
-83
-83
-82
-82
-82
-81
-81
-81
-81
-80
-79
-79
-79
-78
-78
-78
-78
-77
-77
-77
-77
-76
-77
-77
-76
-75
-75
-75
-74
-74
-74
-74
-72
-72
-71
-71
-71
-69
-69
-69
-67
-67
-66
-66
-66
-65
-65
-63
-64
-64
-62
-62
-62
-61
-61
-61
-60
-60
-60
-60
-59
-59
-58
-58
-58
-58
-56
-56
-56
-55
-53
-53
-53
-52
-51
-51
-50
-50
-48
-48
-48
-47
-46
-46
-45
-45
-45
-44
-43
-43
-43
-42
-43
-43
-42
-42
-41
-41
-40
-40
-40
-39
-40
-39
-38
-39
-38
-38
-37
-37
-37
-37
-37
-37
-37
-37
-37
-37
-37
-37
-38
-38
-39
-38
-39
-39
-39
-39
-40
-40
-39
-40
-40
-41
-40
-41
-41
-41
-41
-42
-43
-43
-43
-43
-43
-44
-45
-45
-46
-46
-46
-47
-48
-49
-48
-48
-49
-50
-50
-50
-51
-51
-51
-52
-53
-53
-54
-54
-55
-55
-56
-56
-57
-57
-58
-59
-60
-60
-61
-62
-62
-62
-63
-64
-65
-66
-67
-67
-68
-69
-69
-70
-71
-72
-72
-72
-73
-74
-75
-75
-76
-77
-78
-78
-79
-80
-81
-81
-82
-84
-85
-85
-86
-87
-87
-89
-90
-90
-91
-91
-93
-93
-93
-94
-94
-95
-96
-97
-97
-97
-98
-98
-99
-99
-100
-100
-100
-100
-101
-101
-103
-103
-103
-103
-104
-105
-105
-105
-105
-105
-105
-106
-106
-107
-107
-107
-107
-107
-107
-107
-107
-107
-107
-107
-108
-108
-108
-108
-108
-108
-108
-108
-108
-108
-108
-109
-109
-109
-109
-109
-109
-109
-109
-108
-108
-108
-108
-108
-108
-108
-108
-106
-106
-106
-107
-107
-107
-107
-107
-106
-106
-106
-106
-107
-107
-107
-107
-106
-106
-106
-106
-106
-106
-106
-106
-106
-106
-106
-106
-105
-106
-106
-106
-106
-106
-106
-106
-106
-106
-105
-104
-104
-104
-104
-104
-104
-104
-104
-104
-103
-103
-104
-104
-104
-104
-104
-104
-104
-104
-104
-104
-104
-104
-104
-104
-104
-105
-105
-105
-105
-105
-105
-105
-105
-105
-105
-105
-105
-105
-106
-105
-105
-105
-105
-105
-105
-105
-106
-106
-106
-106
-106
-106
-106
-107
-106
-106
-106
-106
-106
-106
-108
-108
-108
-108
-108
-108
-108
-108
-108
-109
-108
-108
-108
-108
-108
-108
-109
-109
-109
-109
-109
-108
-108
-109
-109
-109
-109
-109
-109
-109
-109
-109
-110
-110
-111
-111
-111
-111
-111
-111
-111
-111
-111
-113
-113
-113
-113
-113
-113
-113
-113
-113
-113
-113
-113
-113
-113
-113
-113
-113
-114
-114
-114
-114
-114
-114
-114
-113
-113
-113
-113
-114
-114
-114
-114
-114
-114
-114
-114
-115
-115
-114
-114
-114
-114
-115
-115
-114
-114
-114
-114
-114
-114
-115
-115
-115
-115
-115
-115
-115
-115
-116
-115
-115
-115
-115
-115
-114
-114
-115
-115
-115
-115
-115
-115
-114
-114
-114
-114
-114
-114
-114
-114
-114
-113
-113
-113
-113
-113
-113
-113
-113
-113
-113
-113
-112
-112
-112
-112
-112
-111
-111
-111
-110
-110
-110
-110
-109
-109
-109
-110
-109
-109
-109
-110
-110
-110
-110
-110
-111
-111
-111
-111
-111
-111
-112
-112
-112
-112
-112
-112
-112
-112
-112
-112
-112
-112
-112
-113
-112
-112
-113
-114
-114
-115
-115
-116
-116
-117
-118
-117
-118
-118
-119
-120
-120
-121
-121
-121
-122
-122
-122
-122
-122
-122
-122
-122
-122
-122
-122
-122
-122
-122
-122
-123
-122
-122
-122
-122
-123
-123
-123
-122
-122
-123
-123
-122
-122
-123
-122
-123
-122
-121
-121
-121
-121
-120
-119
-120
-120
-119
-120
-119
-119
-119
-119
-118
-119
-119
-119
-119
-120
-120
-120
-121
-122
-122
-122
-122
-122
-122
-122
-123
-123
-123
-123
-123
-123
-123
-123
-123
-123
-123
-123
-123
-123
-123
-123
-123
-123
-123
-123
-122
-122
-122
-122
-122
-122
-122
-122
-122
-122
-122
-122
-121
-121
-121
-121
-121
-121
-120
-121
-121
-120
-119
-119
-118
-118
-116
-116
-113
-112
-109
-106
-105
-101
-98
-94
-90
-85
-81
-76
-71
-66
-60
-55
-50
-44
-38
-34
-29
-23
-18
-13
-8
-3
1
5
10
14
19
22
27
29
30
32
31
29
26
23
17
12
4
-6
-18
-30
-45
-61
-78
-97
-116
-136
-155
-175
-195
-214
-233
-252
-269
-284
-299
-311
-322
-331
-339
-343
-347
-349
-349
-348
-345
-340
-334
-327
-319
-310
-299
-289
-279
-267
-256
-245
-234
-223
-212
-202
-191
-182
-173
-164
-156
-149
-143
-137
-132
-126
-122
-118
-115
-112
-109
-108
-106
-105
-103
-102
-101
-101
-101
-100
-101
-100
-100
-100
-99
-100
-100
-100
-99
-99
-99
-100
-100
-100
-100
-100
-100
-100
-100
-99
-99
-99
-99
-99
-98
-98
-98
-97
-97
-97
-97
-97
-96
-96
-96
-96
-96
-96
-96
-95
-95
-95
-95
-95
-95
-95
-94
-94
-94
-94
-93
-93
-92
-92
-92
-92
-90
-90
-90
-89
-89
-89
-89
-87
-87
-87
-88
-87
-86
-86
-87
-86
-86
-86
-86
-85
-85
-85
-85
-85
-85
-85
-84
-84
-84
-84
-84
-83
-82
-82
-82
-82
-81
-81
-81
-81
-80
-80
-79
-79
-78
-78
-78
-78
-77
-77
-76
-77
-76
-76
-74
-74
-74
-74
-74
-73
-72
-73
-72
-72
-71
-70
-69
-69
-68
-68
-68
-66
-66
-66
-65
-65
-65
-64
-63
-63
-63
-61
-61
-61
-60
-60
-60
-59
-58
-58
-57
-57
-57
-56
-55
-55
-54
-54
-54
-52
-52
-52
-51
-50
-50
-49
-49
-49
-48
-47
-46
-46
-46
-45
-45
-45
-43
-43
-42
-42
-42
-42
-42
-41
-41
-41
-41
-40
-40
-40
-40
-39
-40
-39
-40
-39
-39
-39
-39
-39
-39
-38
-38
-38
-38
-37
-38
-37
-38
-38
-38
-38
-38
-38
-38
-39
-38
-38
-39
-39
-38
-39
-39
-39
-40
-40
-40
-40
-40
-41
-41
-42
-42
-43
-43
-44
-44
-44
-45
-45
-46
-46
-47
-47
-47
-47
-48
-49
-50
-49
-50
-51
-51
-52
-52
-53
-53
-53
-55
-55
-55
-57
-57
-57
-58
-58
-59
-59
-59
-60
-61
-61
-61
-61
-62
-63
-64
-65
-65
-66
-67
-68
-69
-70
-70
-71
-72
-73
-74
-74
-75
-75
-76
-77
-78
-79
-80
-80
-80
-81
-82
-82
-83
-84
-85
-86
-86
-87
-89
-89
-90
-90
-91
-91
-92
-93
-94
-94
-94
-94
-95
-95
-97
-97
-97
-98
-98
-98
-98
-100
-100
-100
-100
-100
-101
-102
-102
-103
-103
-103
-103
-103
-104
-104
-104
-104
-104
-104
-104
-105
-105
-105
-104
-105
-105
-105
-105
-105
-105
-105
-106
-106
-106
-106
-106
-106
-106
-106
-105
-105
-106
-106
-106
-106
-106
-106
-106
-106
-106
-106
-106
-106
-106
-106
-106
-106
-106
-106
-106
-106
-105
-105
-105
-105
-105
-105
-105
-105
-105
-105
-105
-105
-105
-105
-105
-105
-105
-105
-105
-105
-105
-105
-105
-105
-105
-104
-104
-104
-104
-104
-103
-103
-103
-103
-102
-102
-102
-102
-102
-102
-102
-102
-102
-102
-103
-103
-103
-103
-103
-103
-103
-103
-103
-103
-104
-104
-104
-104
-104
-104
-104
-103
-103
-103
-102
-102
-102
-102
-102
-102
-102
-102
-102
-102
-103
-103
-103
-103
-103
-103
-103
-103
-104
-104
-104
-104
-104
-105
-105
-105
-105
-105
-105
-105
-105
-105
-105
-105
-105
-105
-105
-105
-105
-105
-105
-105
-105
-105
-105
-105
-105
-105
-105
-106
-106
-106
-106
-106
-106
-106
-107
-107
-107
-107
-107
-107
-107
-107
-107
-107
-107
-107
-107
-107
-107
-108
-108
-108
-107
-107
-107
-108
-108
-108
-108
-108
-107
-107
-107
-108
-109
-109
-109
-109
-109
-109
-109
-109
-109
-109
-109
-110
-110
-110
-110
-110
-111
-111
-111
-111
-111
-111
-111
-111
-112
-112
-111
-111
-112
-112
-112
-112
-111
-111
-111
-111
-112
-112
-111
-111
-111
-110
-110
-110
-110
-110
-110
-110
-110
-110
-110
-111
-111
-111
-111
-111
-111
-111
-111
-111
-111
-111
-110
-110
-110
-110
-110
-110
-109
-109
-108
-108
-107
-107
-107
-106
-105
-105
-104
-104
-104
-103
-103
-103
-102
-102
-101
-101
-102
-102
-101
-101
-102
-102
-102
-102
-103
-103
-103
-103
-103
-103
-104
-104
-105
-105
-105
-105
-105
-106
-106
-106
-106
-106
-106
-107
-107
-107
-108
-108
-109
-109
-110
-111
-110
-111
-111
-112
-112
-112
-112
-113
-113
-113
-114
-114
-114
-114
-114
-114
-114
-114
-115
-115
-115
-115
-115
-115
-115
-115
-116
-116
-116
-116
-116
-116
-116
-117
-117
-117
-117
-118
-117
-117
-117
-117
-117
-117
-117
-117
-116
-117
-116
-115
-115
-115
-115
-115
-114
-114
-113
-114
-114
-114
-113
-114
-114
-114
-114
-114
-114
-116
-116
-116
-116
-116
-116
-116
-118
-118
-118
-118
-118
-119
-119
-119
-119
-119
-119
-119
-119
-119
-119
-119
-119
-119
-119
-119
-119
-119
-119
-119
-118
-118
-118
-118
-119
-117
-117
-117
-117
-117
-117
-117
-117
-117
-116
-116
-116
-116
-115
-115
-114
-114
-113
-112
-111
-110
-110
-108
-106
-105
-104
-101
-99
-95
-92
-88
-84
-80
-75
-72
-67
-61
-57
-52
-47
-42
-37
-32
-27
-22
-17
-13
-9
-4
0
6
10
15
19
24
28
31
33
33
33
32
29
26
21
15
8
-1
-12
-25
-39
-56
-73
-92
-110
-129
-149
-169
-189
-208
-227
-245
-262
-278
-291
-304
-314
-323
-330
-334
-338
-340
-340
-339
-335
-331
-324
-317
-309
-301
-290
-280
-270
-259
-248
-237
-226
-215
-204
-194
-184
-175
-166
-157
-150
-143
-136
-131
-125
-121
-115
-112
-108
-105
-104
-102
-100
-99
-99
-98
-97
-96
-96
-96
-95
-96
-95
-95
-96
-96
-95
-95
-95
-95
-95
-95
-95
-95
-94
-93
-93
-93
-93
-92
-92
-92
-92
-91
-91
-91
-91
-91
-91
-90
-90
-90
-90
-90
-90
-90
-88
-89
-89
-89
-89
-89
-88
-88
-87
-87
-87
-86
-86
-86
-86
-86
-85
-85
-85
-85
-84
-83
-83
-83
-82
-82
-82
-82
-81
-81
-81
-81
-80
-80
-80
-79
-79
-79
-79
-78
-78
-78
-78
-78
-78
-77
-77
-77
-77
-76
-76
-76
-76
-75
-74
-74
-74
-73
-73
-73
-73
-72
-72
-72
-72
-71
-71
-71
-71
-70
-70
-70
-69
-69
-69
-68
-68
-68
-67
-66
-66
-65
-65
-65
-64
-63
-63
-62
-62
-62
-62
-60
-60
-60
-59
-59
-59
-58
-58
-58
-57
-56
-56
-55
-55
-54
-54
-54
-53
-52
-51
-50
-50
-49
-49
-49
-48
-47
-47
-46
-46
-46
-44
-44
-44
-43
-43
-43
-43
-42
-42
-42
-42
-41
-40
-40
-39
-39
-38
-38
-38
-38
-38
-37
-37
-37
-36
-35
-36
-35
-35
-35
-34
-34
-34
-33
-34
-34
-33
-34
-33
-33
-32
-33
-32
-32
-33
-32
-33
-32
-33
-32
-33
-32
-33
-32
-33
-32
-33
-33
-34
-33
-34
-35
-35
-35
-36
-36
-36
-37
-37
-38
-38
-40
-40
-41
-41
-41
-42
-42
-43
-44
-44
-45
-46
-46
-46
-47
-47
-48
-49
-48
-48
-48
-48
-49
-49
-50
-51
-51
-51
-52
-53
-53
-53
-54
-54
-55
-55
-56
-57
-57
-58
-59
-60
-60
-61
-62
-63
-62
-63
-64
-65
-65
-66
-67
-67
-68
-69
-70
-71
-72
-72
-73
-74
-75
-75
-76
-77
-78
-78
-79
-79
-80
-80
-81
-82
-82
-83
-83
-84
-85
-85
-86
-86
-87
-87
-88
-88
-89
-89
-90
-90
-90
-91
-91
-91
-91
-92
-92
-92
-92
-92
-92
-93
-93
-93
-93
-94
-94
-94
-94
-94
-96
-96
-96
-96
-96
-97
-97
-97
-98
-98
-98
-98
-99
-99
-99
-99
-99
-99
-99
-99
-99
-99
-99
-99
-99
-99
-99
-99
-99
-99
-99
-99
-98
-98
-98
-98
-98
-98
-97
-97
-97
-97
-97
-97
-97
-97
-97
-96
-96
-96
-96
-96
-96
-96
-97
-97
-97
-97
-97
-97
-96
-96
-96
-96
-96
-96
-96
-97
-97
-96
-96
-96
-96
-96
-97
-97
-96
-95
-95
-95
-95
-95
-95
-95
-95
-95
-96
-96
-96
-96
-96
-96
-96
-96
-96
-95
-95
-95
-95
-95
-95
-95
-95
-95
-95
-96
-96
-96
-96
-96
-96
-96
-97
-97
-97
-97
-97
-97
-97
-97
-97
-96
-96
-96
-96
-96
-96
-96
-97
-97
-97
-97
-97
-97
-97
-97
-97
-97
-97
-97
-97
-97
-97
-97
-97
-97
-97
-97
-97
-97
-97
-97
-97
-98
-98
-99
-99
-99
-99
-99
-99
-99
-99
-99
-99
-99
-99
-99
-99
-99
-99
-99
-99
-99
-99
-100
-100
-100
-100
-100
-100
-100
-100
-100
-100
-100
-100
-100
-101
-101
-101
-101
-101
-101
-102
-102
-102
-102
-102
-102
-102
-102
-102
-102
-102
-102
-102
-102
-102
-102
-102
-102
-102
-103
-103
-103
-103
-103
-103
-103
-104
-104
-104
-104
-104
-104
-105
-105
-105
-105
-105
-105
-105
-105
-105
-105
-104
-104
-104
-104
-104
-104
-103
-103
-103
-103
-104
-103
-103
-103
-102
-102
-103
-103
-101
-102
-102
-101
-101
-101
-101
-100
-99
-99
-99
-98
-99
-98
-98
-97
-97
-97
-97
-97
-96
-96
-96
-97
-97
-97
-97
-97
-97
-97
-98
-99
-99
-98
-98
-98
-99
-99
-99
-99
-99
-98
-98
-98
-98
-98
-98
-99
-99
-98
-99
-100
-100
-100
-101
-102
-102
-103
-104
-105
-105
-106
-106
-107
-107
-108
-108
-108
-110
-110
-110
-110
-109
-109
-110
-110
-110
-110
-109
-109
-110
-110
-110
-110
-109
-109
-109
-109
-109
-110
-110
-110
-110
-110
-109
-110
-110
-110
-110
-110
-109
-110
-109
-109
-109
-109
-109
-108
-109
-108
-108
-109
-108
-108
-108
-109
-108
-108
-108
-108
-109
-109
-109
-109
-109
-110
-110
-110
-110
-110
-110
-110
-111
-111
-112
-112
-112
-112
-112
-112
-112
-112
-112
-112
-112
-113
-113
-113
-112
-111
-111
-111
-111
-111
-111
-111
-111
-111
-111
-111
-110
-110
-110
-111
-111
-110
-110
-110
-110
-109
-110
-110
-109
-109
-109
-109
-108
-107
-108
-107
-105
-104
-102
-100
-98
-95
-91
-88
-84
-80
-76
-71
-67
-62
-57
-53
-47
-43
-38
-32
-28
-23
-19
-14
-8
-5
-1
4
8
12
16
20
25
30
33
35
37
38
38
37
35
32
28
21
15
7
-3
-15
-29
-45
-60
-78
-96
-114
-133
-153
-172
-190
-208
-225
-242
-257
-270
-282
-292
-302
-308
-313
-317
-319
-320
-318
-316
-312
-307
-300
-293
-285
-276
-266
-256
-246
-235
-226
-215
-205
-194
-185
-175
-166
-157
-149
-142
-135
-129
-123
-118
-113
-109
-106
-102
-101
-98
-96
-95
-94
-92
-91
-90
-91
-90
-89
-89
-90
-89
-89
-89
-88
-88
-89
-89
-88
-88
-88
-87
-87
-87
-87
-87
-87
-86
-86
-86
-86
-86
-85
-84
-84
-85
-85
-85
-84
-84
-84
-84
-84
-84
-84
-83
-82
-83
-83
-82
-82
-82
-82
-81
-80
-81
-80
-80
-80
-79
-78
-78
-78
-78
-78
-76
-76
-76
-76
-76
-76
-76
-76
-75
-75
-75
-75
-75
-75
-75
-75
-75
-75
-75
-75
-74
-74
-74
-74
-74
-73
-73
-73
-72
-71
-71
-70
-70
-70
-69
-69
-68
-69
-69
-68
-68
-67
-67
-67
-66
-66
-66
-65
-64
-64
-64
-63
-63
-63
-62
-62
-62
-61
-61
-60
-60
-60
-60
-59
-59
-59
-57
-57
-57
-56
-56
-56
-55
-55
-54
-54
-53
-52
-51
-51
-50
-50
-48
-48
-48
-47
-47
-47
-47
-45
-45
-45
-44
-44
-44
-44
-43
-42
-42
-42
-42
-40
-40
-40
-39
-39
-38
-37
-37
-36
-36
-35
-34
-34
-33
-33
-32
-32
-31
-31
-30
-29
-29
-29
-28
-29
-28
-28
-28
-27
-27
-27
-27
-26
-26
-26
-26
-26
-26
-26
-25
-26
-25
-26
-26
-25
-26
-26
-25
-26
-25
-25
-26
-26
-25
-26
-26
-26
-26
-27
-26
-26
-27
-26
-27
-27
-27
-27
-28
-28
-29
-28
-29
-29
-30
-31
-31
-32
-31
-32
-33
-33
-34
-35
-35
-35
-36
-36
-37
-37
-38
-38
-39
-40
-40
-40
-41
-41
-43
-43
-43
-43
-44
-45
-45
-46
-46
-46
-47
-48
-48
-49
-48
-49
-50
-50
-51
-51
-52
-53
-54
-54
-55
-56
-57
-58
-59
-60
-61
-61
-61
-63
-64
-65
-66
-66
-67
-68
-69
-70
-70
-71
-72
-72
-74
-74
-75
-76
-76
-77
-79
-79
-80
-80
-81
-81
-82
-82
-83
-83
-84
-84
-84
-85
-86
-86
-86
-87
-87
-87
-87
-88
-87
-88
-89
-89
-90
-90
-90
-90
-90
-90
-90
-91
-91
-92
-92
-91
-91
-91
-92
-92
-92
-92
-92
-92
-92
-93
-93
-93
-93
-94
-93
-93
-93
-93
-93
-93
-93
-93
-93
-93
-93
-92
-92
-92
-92
-92
-92
-92
-92
-92
-92
-92
-92
-92
-91
-91
-91
-91
-92
-92
-92
-92
-93
-92
-92
-92
-92
-92
-92
-92
-91
-91
-91
-91
-91
-91
-91
-91
-91
-91
-91
-91
-90
-91
-91
-91
-91
-91
-91
-91
-91
-91
-91
-91
-91
-91
-92
-92
-92
-92
-92
-92
-92
-92
-92
-92
-92
-92
-92
-92
-92
-92
-92
-92
-92
-92
-92
-92
-92
-92
-92
-92
-92
-92
-92
-92
-92
-92
-92
-92
-91
-91
-92
-93
-93
-93
-92
-92
-92
-93
-93
-93
-93
-93
-94
-94
-93
-93
-93
-94
-94
-94
-95
-95
-95
-95
-95
-95
-95
-96
-96
-96
-96
-96
-96
-96
-96
-96
-96
-97
-97
-97
-96
-96
-97
-97
-97
-97
-97
-97
-97
-98
-98
-98
-98
-98
-98
-98
-98
-99
-99
-99
-98
-98
-98
-98
-98
-98
-98
-99
-99
-99
-99
-99
-99
-99
-99
-99
-99
-100
-101
-101
-101
-101
-101
-101
-101
-101
-101
-101
-101
-101
-102
-102
-102
-101
-101
-101
-101
-101
-101
-101
-102
-102
-101
-101
-101
-101
-101
-101
-102
-102
-102
-102
-101
-101
-101
-101
-101
-101
-101
-101
-101
-101
-101
-101
-101
-102
-102
-102
-101
-101
-101
-102
-102
-102
-102
-101
-101
-101
-101
-101
-101
-101
-101
-101
-101
-100
-100
-100
-99
-99
-99
-98
-98
-98
-97
-97
-96
-96
-96
-95
-95
-96
-95
-95
-95
-95
-95
-96
-96
-95
-95
-96
-96
-96
-96
-96
-96
-96
-97
-97
-97
-97
-97
-97
-97
-97
-97
-97
-97
-97
-97
-97
-97
-97
-97
-98
-98
-99
-99
-100
-100
-101
-101
-101
-101
-102
-102
-103
-103
-103
-105
-105
-105
-105
-105
-105
-105
-105
-105
-105
-105
-105
-105
-105
-105
-106
-106
-106
-106
-107
-106
-106
-106
-106
-107
-107
-107
-107
-107
-107
-107
-107
-107
-107
-107
-107
-106
-106
-105
-106
-105
-105
-105
-106
-106
-105
-105
-105
-106
-105
-105
-105
-105
-105
-105
-106
-106
-106
-106
-107
-107
-107
-107
-107
-108
-108
-108
-108
-108
-108
-109
-109
-109
-109
-109
-110
-110
-110
-110
-109
-109
-109
-109
-109
-109
-109
-109
-109
-109
-109
-108
-108
-108
-108
-109
-109
-109
-109
-109
-109
-109
-108
-108
-108
-108
-108
-108
-107
-107
-107
-106
-105
-104
-102
-101
-99
-96
-94
-91
-88
-84
-81
-77
-72
-68
-63
-58
-53
-48
-44
-38
-33
-28
-23
-18
-14
-9
-5
0
5
9
12
18
21
27
30
34
38
41
43
43
42
42
38
35
31
24
17
8
-2
-15
-29
-45
-62
-79
-97
-117
-136
-155
-173
-193
-210
-228
-244
-259
-273
-284
-295
-303
-309
-315
-318
-319
-320
-319
-316
-311
-306
-299
-291
-283
-274
-264
-254
-243
-232
-221
-211
-201
-190
-181
-171
-162
-153
-145
-138
-131
-125
-119
-114
-109
-106
-103
-100
-97
-95
-92
-92
-90
-89
-88
-88
-87
-87
-87
-86
-87
-86
-86
-86
-86
-87
-87
-86
-86
-86
-86
-87
-86
-86
-86
-86
-86
-86
-85
-84
-84
-84
-84
-84
-83
-83
-82
-82
-82
-82
-81
-81
-81
-81
-80
-80
-80
-79
-79
-79
-79
-78
-78
-78
-78
-77
-77
-77
-76
-76
-76
-76
-75
-75
-75
-74
-74
-74
-74
-74
-73
-73
-73
-73
-72
-72
-72
-71
-71
-70
-70
-70
-70
-70
-70
-69
-69
-69
-69
-69
-69
-68
-68
-68
-68
-68
-68
-68
-66
-67
-67
-67
-67
-65
-65
-65
-64
-64
-64
-63
-63
-63
-62
-62
-62
-61
-61
-60
-60
-60
-59
-59
-59
-58
-58
-57
-56
-56
-56
-56
-55
-55
-55
-54
-53
-53
-53
-52
-52
-52
-51
-51
-51
-51
-49
-49
-49
-49
-48
-48
-48
-46
-46
-46
-45
-45
-44
-43
-43
-43
-42
-41
-41
-40
-39
-39
-38
-37
-37
-37
-35
-35
-35
-34
-34
-33
-32
-32
-32
-31
-31
-31
-30
-30
-30
-30
-29
-30
-29
-29
-28
-28
-27
-27
-27
-27
-27
-26
-25
-25
-24
-24
-24
-23
-23
-23
-22
-22
-22
-23
-23
-22
-22
-23
-22
-22
-23
-24
-23
-23
-24
-24
-24
-25
-25
-25
-25
-26
-26
-27
-27
-28
-27
-28
-28
-29
-29
-30
-31
-31
-31
-32
-32
-32
-33
-34
-34
-35
-36
-36
-37
-37
-38
-38
-39
-40
-41
-40
-41
-41
-42
-43
-43
-44
-44
-45
-45
-45
-46
-46
-46
-47
-47
-48
-49
-49
-50
-51
-51
-51
-52
-53
-54
-55
-55
-56
-57
-58
-58
-59
-60
-60
-61
-62
-63
-63
-65
-65
-66
-66
-67
-68
-68
-69
-70
-70
-71
-71
-72
-73
-73
-74
-75
-76
-76
-77
-78
-78
-79
-80
-81
-81
-81
-82
-82
-83
-83
-83
-85
-85
-85
-85
-85
-86
-87
-87
-87
-87
-88
-88
-88
-89
-90
-90
-90
-90
-91
-91
-91
-91
-92
-92
-92
-93
-93
-93
-93
-93
-93
-93
-94
-94
-94
-94
-94
-94
-94
-94
-94
-94
-94
-94
-94
-94
-94
-94
-94
-93
-93
-93
-93
-93
-93
-93
-93
-93
-93
-92
-92
-92
-92
-92
-92
-92
-92
-91
-91
-91
-91
-92
-92
-92
-92
-91
-91
-91
-91
-92
-92
-92
-92
-92
-92
-92
-90
-90
-90
-90
-90
-90
-90
-90
-90
-90
-90
-90
-90
-90
-90
-90
-90
-90
-90
-90
-90
-90
-90
-90
-90
-90
-90
-90
-90
-90
-89
-89
-89
-90
-90
-91
-91
-90
-90
-90
-91
-91
-91
-91
-91
-92
-92
-92
-91
-91
-92
-92
-92
-92
-91
-91
-91
-91
-91
-91
-91
-91
-92
-92
-92
-93
-93
-93
-93
-94
-94
-94
-94
-94
-94
-94
-94
-94
-94
-94
-94
-93
-93
-93
-93
-93
-93
-94
-94
-94
-94
-94
-94
-94
-94
-95
-95
-95
-95
-95
-96
-96
-96
-97
-97
-97
-97
-97
-97
-97
-97
-97
-97
-96
-96
-96
-97
-97
-98
-98
-98
-98
-98
-98
-98
-99
-99
-99
-99
-100
-100
-100
-100
-100
-100
-100
-101
-101
-101
-101
-101
-101
-101
-101
-101
-101
-101
-101
-101
-101
-101
-102
-102
-102
-102
-102
-102
-102
-102
-102
-102
-102
-102
-102
-102
-102
-103
-103
-103
-103
-103
-104
-104
-104
-104
-104
-104
-104
-104
-104
-104
-104
-104
-104
-104
-104
-104
-104
-104
-104
-104
-104
-104
-104
-104
-104
-104
-104
-104
-104
-104
-104
-104
-104
-104
-104
-104
-104
-104
-104
-104
-104
-104
-104
-104
-104
-104
-104
-103
-103
-103
-103
-103
-103
-103
-103
-102
-102
-102
-101
-100
-99
-99
-99
-99
-99
-98
-98
-97
-97
-96
-96
-97
-96
-96
-96
-96
-96
-96
-96
-96
-97
-97
-97
-97
-97
-97
-97
-97
-98
-98
-98
-98
-98
-98
-98
-98
-98
-98
-98
-98
-99
-99
-99
-98
-99
-99
-100
-100
-101
-102
-102
-103
-102
-103
-104
-104
-105
-105
-106
-106
-106
-106
-108
-108
-108
-108
-108
-107
-108
-108
-108
-108
-108
-108
-108
-107
-108
-107
-108
-108
-108
-108
-108
-108
-108
-109
-109
-109
-109
-109
-109
-110
-110
-109
-110
-110
-110
-110
-109
-110
-109
-109
-108
-108
-108
-108
-108
-108
-108
-108
-108
-109
-109
-109
-109
-109
-109
-110
-110
-110
-110
-111
-111
-111
-112
-112
-113
-113
-113
-113
-113
-113
-113
-113
-112
-112
-112
-112
-112
-112
-113
-113
-112
-112
-112
-112
-112
-112
-112
-112
-113
-113
-113
-113
-113
-113
-113
-113
-113
-113
-113
-113
-113
-113
-112
-112
-112
-111
-111
-110
-109
-108
-108
-106
-104
-103
-100
-98
-95
-91
-88
-84
-81
-76
-72
-67
-62
-57
-53
-47
-42
-37
-32
-26
-21
-16
-10
-6
-1
4
8
13
18
22
27
32
36
39
42
43
43
42
41
37
33
28
21
12
2
-10
-24
-39
-55
-73
-92
-111
-131
-151
-171
-191
-210
-229
-246
-263
-279
-291
-303
-313
-321
-327
-332
-335
-336
-336
-334
-330
-325
-319
-311
-302
-293
-283
-273
-262
-251
-240
-229
-218
-206
-196
-186
-175
-165
-157
-149
-142
-135
-129
-123
-118
-114
-111
-108
-105
-102
-100
-98
-96
-96
-95
-94
-94
-93
-93
-93
-92
-93
-92
-92
-92
-92
-92
-92
-91
-91
-91
-90
-90
-91
-90
-90
-89
-89
-88
-88
-88
-87
-87
-87
-87
-87
-87
-86
-86
-86
-86
-86
-86
-85
-85
-85
-85
-85
-85
-85
-84
-84
-84
-83
-82
-82
-82
-82
-82
-81
-81
-81
-81
-81
-80
-80
-80
-80
-80
-80
-79
-79
-79
-79
-79
-79
-79
-78
-78
-78
-78
-77
-77
-77
-77
-76
-76
-75
-75
-74
-74
-74
-74
-73
-73
-73
-72
-72
-72
-72
-71
-71
-70
-70
-71
-70
-70
-70
-69
-69
-69
-68
-67
-67
-67
-67
-66
-66
-66
-65
-65
-65
-64
-63
-63
-63
-62
-62
-62
-61
-61
-60
-59
-59
-59
-58
-58
-58
-57
-57
-57
-56
-55
-55
-54
-54
-54
-53
-53
-53
-51
-51
-51
-50
-49
-49
-48
-47
-47
-46
-46
-46
-45
-44
-44
-44
-43
-43
-42
-42
-42
-41
-41
-41
-41
-40
-40
-39
-39
-39
-38
-37
-37
-37
-36
-36
-35
-35
-34
-34
-33
-32
-32
-31
-30
-31
-30
-30
-29
-29
-29
-29
-29
-28
-29
-29
-29
-28
-29
-29
-28
-29
-28
-29
-29
-29
-29
-30
-30
-30
-30
-31
-30
-31
-31
-32
-31
-32
-32
-32
-32
-33
-33
-34
-34
-34
-35
-35
-35
-36
-36
-37
-37
-38
-38
-39
-40
-40
-41
-41
-42
-43
-44
-44
-45
-46
-46
-47
-48
-48
-49
-49
-50
-50
-50
-51
-51
-52
-52
-52
-54
-54
-54
-55
-55
-56
-57
-57
-58
-57
-58
-59
-60
-60
-61
-62
-62
-62
-63
-64
-65
-66
-66
-67
-68
-69
-70
-69
-70
-71
-72
-73
-73
-74
-75
-75
-76
-77
-77
-78
-79
-80
-80
-81
-81
-82
-82
-83
-84
-85
-85
-86
-86
-86
-88
-88
-89
-89
-90
-91
-91
-91
-93
-93
-93
-93
-93
-95
-95
-95
-95
-97
-97
-97
-97
-97
-97
-97
-99
-99
-99
-99
-99
-100
-100
-100
-99
-99
-99
-99
-99
-100
-100
-100
-100
-100
-100
-100
-100
-100
-100
-100
-100
-100
-100
-101
-101
-101
-101
-101
-101
-101
-101
-101
-101
-101
-101
-101
-101
-101
-101
-101
-100
-100
-100
-101
-101
-100
-100
-101
-101
-100
-100
-100
-100
-100
-100
-100
-100
-100
-100
-100
-100
-99
-99
-99
-99
-99
-99
-99
-99
-99
-99
-99
-99
-99
-99
-99
-98
-98
-98
-98
-98
-98
-98
-98
-99
-99
-99
-98
-98
-98
-98
-98
-98
-98
-98
-99
-99
-99
-99
-99
-99
-99
-99
-99
-99
-99
-99
-99
-99
-99
-99
-99
-99
-99
-99
-99
-99
-99
-100
-100
-100
-100
-100
-100
-100
-100
-101
-101
-101
-101
-101
-101
-101
-101
-101
-100
-100
-100
-100
-101
-101
-101
-101
-101
-101
-101
-102
-102
-102
-102
-103
-103
-103
-103
-103
-104
-104
-104
-104
-104
-104
-104
-104
-104
-104
-104
-104
-105
-105
-105
-105
-105
-105
-105
-105
-105
-105
-105
-105
-105
-106
-106
-106
-106
-106
-106
-106
-107
-108
-108
-108
-107
-107
-108
-108
-108
-108
-108
-109
-109
-109
-109
-109
-109
-109
-109
-109
-109
-109
-110
-110
-109
-109
-109
-109
-109
-109
-109
-109
-109
-110
-110
-110
-110
-109
-109
-109
-109
-110
-111
-111
-111
-111
-111
-111
-111
-111
-112
-112
-112
-112
-112
-112
-112
-112
-112
-112
-112
-112
-112
-112
-112
-113
-113
-113
-113
-113
-113
-113
-113
-112
-112
-113
-113
-113
-112
-112
-112
-112
-112
-112
-112
-112
-112
-111
-112
-112
-112
-111
-111
-111
-111
-111
-111
-111
-111
-110
-110
-110
-109
-109
-109
-109
-108
-108
-107
-107
-107
-107
-106
-106
-106
-106
-105
-106
-106
-106
-106
-107
-107
-106
-106
-107
-107
-107
-108
-108
-108
-108
-107
-107
-107
-107
-107
-107
-108
-108
-108
-108
-108
-108
-108
-108
-108
-108
-108
-108
-108
-109
-110
-110
-111
-112
-113
-113
-114
-115
-116
-116
-117
-118
-118
-119
-119
-119
-119
-119
-119
-120
-119
-119
-119
-119
-119
-119
-120
-118
-119
-119
-119
-119
-118
-119
-119
-119
-119
-119
-119
-119
-119
-120
-120
-119
-119
-119
-119
-120
-119
-119
-119
-119
-118
-118
-118
-118
-118
-118
-118
-118
-118
-118
-119
-119
-119
-119
-120
-120
-120
-120
-120
-121
-122
-122
-122
-122
-123
-123
-123
-123
-123
-123
-123
-123
-123
-123
-123
-123
-123
-123
-123
-123
-123
-123
-123
-123
-123
-123
-123
-123
-123
-123
-124
-124
-123
-124
-124
-124
-124
-124
-124
-124
-123
-123
-123
-123
-122
-122
-122
-121
-120
-120
-119
-119
-118
-117
-115
-113
-110
-108
-105
-100
-96
-92
-89
-85
-80
-75
-71
-66
-60
-55
-51
-46
-40
-35
-30
-25
-21
-16
-12
-8
-4
0
5
10
14
18
21
24
25
25
25
23
20
16
11
5
-2
-12
-25
-38
-52
-68
-86
-104
-122
-143
-162
-182
-201
-221
-239
-257
-273
-288
-301
-313
-323
-332
-338
-343
-346
-347
-347
-345
-341
-336
-330
-323
-314
-306
-296
-286
-275
-264
-253
-242
-231
-220
-209
-199
-190
-181
-172
-165
-157
-150
-143
-138
-132
-129
-124
-121
-118
-115
-113
-112
-110
-109
-108
-107
-107
-107
-106
-106
-106
-105
-105
-105
-105
-106
-106
-106
-106
-105
-105
-105
-105
-105
-105
-105
-104
-104
-104
-104
-104
-103
-103
-103
-103
-103
-103
-103
-103
-103
-103
-102
-102
-102
-102
-102
-102
-102
-101
-101
-101
-101
-101
-101
-100
-100
-99
-99
-99
-99
-99
-98
-97
-97
-97
-97
-96
-96
-96
-96
-96
-95
-95
-95
-94
-94
-94
-94
-94
-94
-94
-93
-93
-93
-93
-93
-92
-92
-92
-92
-93
-92
-91
-91
-91
-91
-90
-90
-90
-90
-90
-88
-88
-88
-88
-88
-87
-87
-87
-86
-86
-85
-85
-85
-85
-84
-84
-84
-83
-83
-82
-82
-81
-81
-82
-81
-80
-80
-80
-80
-79
-79
-79
-78
-77
-77
-76
-76
-76
-75
-75
-75
-73
-73
-73
-72
-72
-72
-70
-70
-70
-70
-69
-69
-69
-68
-68
-68
-68
-66
-66
-66
-66
-66
-65
-65
-64
-64
-63
-63
-62
-62
-62
-61
-60
-60
-60
-59
-58
-58
-57
-57
-56
-56
-55
-55
-54
-54
-53
-52
-52
-51
-52
-51
-51
-51
-51
-50
-51
-50
-50
-50
-50
-49
-50
-49
-50
-49
-49
-50
-49
-50
-49
-49
-49
-49
-50
-49
-50
-50
-50
-50
-51
-50
-51
-51
-51
-51
-52
-52
-52
-53
-53
-54
-53
-54
-54
-55
-55
-55
-56
-56
-57
-57
-58
-58
-59
-59
-60
-59
-60
-60
-61
-61
-60
-61
-61
-62
-63
-63
-63
-64
-64
-64
-65
-66
-66
-66
-67
-69
-69
-70
-69
-70
-71
-72
-72
-73
-74
-74
-75
-75
-75
-76
-77
-77
-78
-79
-79
-79
-80
-81
-81
-82
-83
-83
-83
-84
-85
-86
-87
-88
-89
-89
-90
-91
-92
-93
-93
-94
-95
-97
-98
-98
-99
-100
-100
-102
-102
-103
-103
-103
-105
-105
-105
-106
-106
-107
-107
-108
-108
-109
-109
-109
-110
-110
-111
-111
-112
-112
-112
-112
-113
-113
-113
-113
-114
-114
-114
-115
-115
-115
-115
-115
-116
-117
-117
-117
-117
-117
-117
-118
-118
-118
-118
-118
-118
-118
-118
-118
-118
-118
-118
-118
-118
-119
-119
-118
-118
-118
-118
-118
-118
-118
-117
-117
-117
-116
-116
-116
-116
-116
-116
-116
-116
-116
-116
-116
-116
-116
-115
-115
-115
-115
-115
-115
-116
-116
-116
-116
-115
-115
-115
-115
-115
-115
-115
-115
-116
-116
-116
-116
-116
-116
-116
-116
-116
-116
-116
-116
-116
-116
-116
-116
-116
-116
-116
-116
-116
-116
-116
-116
-116
-116
-116
-115
-115
-115
-116
-116
-116
-116
-116
-116
-115
-115
-115
-115
-116
-116
-116
-116
-116
-116
-116
-116
-117
-116
-116
-116
-117
-117
-117
-117
-118
-118
-118
-118
-118
-118
-118
-118
-117
-118
-119
-119
-118
-118
-118
-118
-118
-118
-118
-118
-118
-118
-119
-119
-119
-119
-119
-120
-120
-120
-120
-120
-120
-120
-120
-120
-120
-120
-121
-121
-121
-121
-120
-121
-121
-121
-121
-121
-121
-121
-121
-122
-122
-123
-123
-123
-123
-123
-123
-123
-123
-123
-123
-124
-124
-124
-124
-124
-124
-124
-124
-124
-124
-124
-124
-124
-124
-125
-125
-125
-125
-124
-124
-124
-125
-125
-125
-125
-125
-125
-124
-124
-124
-125
-125
-125
-125
-125
-125
-125
-125
-126
-126
-126
-126
-126
-127
-127
-127
-127
-127
-127
-127
-127
-127
-127
-127
-127
-127
-126
-126
-126
-125
-125
-125
-125
-125
-125
-125
-125
-125
-125
-125
-125
-125
-125
-125
-125
-125
-125
-125
-125
-126
-126
-126
-126
-126
-126
-125
-125
-125
-125
-125
-125
-125
-124
-124
-124
-124
-123
-123
-123
-122
-122
-122
-122
-121
-121
-121
-121
-121
-121
-121
-121
-121
-121
-122
-122
-121
-121
-121
-122
-122
-122
-122
-122
-122
-122
-122
-122
-122
-122
-122
-122
-122
-122
-121
-122
-122
-122
-123
-123
-124
-124
-125
-124
-125
-126
-126
-127
-127
-127
-128
-128
-130
-130
-131
-131
-131
-132
-132
-132
-132
-132
-132
-132
-133
-132
-132
-132
-132
-132
-132
-133
-132
-133
-132
-133
-133
-133
-133
-133
-133
-133
-133
-133
-133
-133
-133
-134
-133
-133
-133
-133
-133
-133
-132
-133
-132
-132
-132
-132
-132
-132
-131
-132
-132
-132
-132
-132
-132
-133
-133
-133
-134
-134
-134
-134
-135
-135
-135
-135
-135
-135
-135
-135
-135
-135
-135
-136
-136
-135
-135
-135
-135
-135
-136
-136
-136
-135
-135
-135
-134
-134
-134
-134
-134
-134
-134
-134
-134
-134
-133
-133
-133
-133
-133
-134
-134
-134
-134
-134
-133
-133
-133
-133
-132
-131
-131
-129
-127
-126
-124
-122
-119
-117
-114
-110
-107
-103
-99
-94
-90
-85
-81
-75
-71
-66
-61
-57
-53
-47
-43
-39
-34
-30
-27
-22
-18
-14
-9
-5
0
4
7
10
11
11
10
9
7
3
-1
-7
-15
-24
-36
-48
-63
-78
-94
-112
-130
-148
-168
-186
-205
-223
-239
-256
-271
-284
-298
-308
-317
-324
-330
-334
-337
-339
-338
-336
-332
-328
-323
-316
-308
-299
-291
-282
-272
-261
-252
-242
-232
-222
-213
-203
-194
-186
-178
-170
-163
-158
-151
-145
-141
-136
-133
-129
-127
-124
-122
-120
-118
-117
-117
-116
-115
-114
-114
-114
-114
-114
-113
-113
-113
-113
-113
-112
-112
-112
-112
-112
-111
-111
-112
-112
-112
-112
-112
-112
-112
-112
-112
-112
-112
-112
-112
-113
-113
-112
-112
-112
-112
-112
-112
-112
-112
-112
-112
-111
-111
-111
-111
-109
-109
-109
-109
-109
-108
-108
-108
-108
-107
-107
-107
-107
-107
-106
-106
-106
-106
-106
-105
-105
-105
-105
-105
-104
-104
-104
-104
-103
-103
-103
-103
-103
-102
-102
-102
-102
-102
-102
-102
-100
-100
-100
-100
-99
-99
-99
-98
-98
-98
-97
-97
-97
-96
-96
-96
-95
-96
-95
-94
-94
-94
-94
-94
-93
-93
-93
-93
-93
-92
-92
-92
-92
-91
-91
-89
-89
-88
-88
-87
-87
-87
-86
-86
-85
-85
-85
-83
-83
-83
-83
-82
-82
-81
-81
-81
-81
-79
-79
-79
-79
-78
-78
-77
-77
-77
-76
-75
-75
-75
-74
-74
-73
-73
-73
-71
-71
-70
-70
-69
-68
-68
-68
-67
-67
-65
-65
-64
-64
-64
-63
-63
-62
-62
-61
-61
-60
-60
-60
-59
-59
-58
-58
-58
-58
-57
-56
-57
-56
-56
-55
-56
-55
-55
-55
-55
-54
-55
-54
-54
-54
-55
-54
-54
-54
-54
-55
-54
-55
-55
-55
-55
-55
-56
-55
-55
-56
-56
-57
-57
-57
-58
-57
-57
-58
-59
-59
-60
-60
-61
-61
-61
-61
-62
-62
-62
-63
-63
-64
-64
-64
-65
-66
-66
-67
-67
-68
-69
-69
-69
-70
-70
-70
-71
-72
-73
-73
-74
-74
-75
-75
-76
-76
-77
-77
-78
-79
-79
-80
-81
-82
-81
-82
-83
-84
-84
-85
-86
-87
-86
-87
-88
-89
-90
-91
-92
-92
-93
-94
-94
-95
-96
-97
-98
-99
-100
-100
-101
-102
-103
-104
-105
-105
-106
-107
-108
-108
-109
-109
-110
-111
-111
-112
-112
-112
-113
-114
-114
-114
-115
-115
-115
-116
-116
-117
-117
-117
-117
-117
-117
-117
-117
-118
-118
-118
-118
-118
-118
-119
-119
-119
-120
-120
-120
-120
-120
-120
-121
-121
-121
-121
-121
-122
-122
-122
-122
-121
-121
-122
-122
-122
-122
-122
-122
-122
-122
-122
-122
-122
-122
-121
-121
-122
-122
-122
-122
-122
-122
-122
-122
-120
-120
-120
-121
-120
-120
-120
-120
-120
-120
-120
-120
-119
-119
-119
-119
-119
-119
-118
-118
-118
-118
-118
-119
-118
-118
-118
-118
-118
-118
-118
-119
-119
-119
-119
-119
-119
-119
-119
-119
-119
-119
-119
-119
-119
-119
-119
-119
-118
-118
-118
-118
-118
-118
-118
-118
-118
-118
-117
-117
-117
-117
-117
-117
-117
-117
-117
-117
-117
-117
-117
-118
-118
-118
-118
-118
-117
-117
-118
-118
-118
-118
-118
-118
-118
-118
-119
-119
-119
-119
-119
-119
-119
-119
-120
-120
-120
-120
-120
-120
-120
-120
-121
-121
-121
-121
-121
-121
-121
-121
-121
-121
-121
-121
-121
-121
-122
-122
-122
-122
-122
-122
-122
-122
-123
-124
-124
-124
-124
-124
-124
-124
-124
-124
-124
-124
-124
-124
-124
-125
-125
-125
-125
-125
-125
-126
-126
-126
-126
-126
-125
-125
-125
-126
-126
-126
-126
-126
-126
-127
-127
-127
-127
-127
-126
-126
-127
-127
-127
-127
-127
-127
-127
-127
-127
-127
-127
-127
-127
-127
-127
-129
-129
-128
-128
-128
-128
-128
-128
-128
-128
-128
-128
-128
-128
-128
-128
-128
-128
-128
-129
-128
-128
-128
-128
-128
-128
-128
-128
-128
-128
-128
-128
-128
-128
-128
-128
-128
-128
-128
-128
-128
-128
-128
-128
-127
-127
-126
-126
-126
-126
-125
-125
-125
-125
-125
-125
-124
-124
-123
-123
-122
-122
-122
-122
-122
-122
-121
-122
-122
-121
-121
-122
-122
-122
-122
-123
-123
-123
-123
-123
-123
-123
-124
-124
-124
-124
-124
-123
-124
-124
-123
-124
-124
-124
-124
-125
-124
-125
-125
-126
-126
-127
-127
-128
-129
-129
-130
-130
-131
-131
-131
-133
-133
-133
-134
-134
-135
-135
-135
-135
-135
-135
-134
-134
-134
-134
-134
-134
-134
-134
-134
-133
-133
-134
-134
-134
-134
-134
-133
-134
-134
-134
-133
-134
-133
-134
-133
-134
-133
-133
-134
-133
-133
-132
-133
-133
-132
-132
-132
-133
-133
-132
-132
-132
-133
-133
-133
-134
-134
-134
-134
-134
-135
-135
-136
-136
-136
-136
-136
-136
-136
-136
-136
-136
-136
-136
-136
-137
-137
-136
-136
-136
-136
-137
-137
-137
-137
-137
-137
-137
-137
-137
-137
-137
-137
-137
-137
-137
-137
-136
-136
-136
-137
-137
-137
-137
-136
-136
-136
-135
-135
-134
-134
-133
-133
-131
-130
-129
-126
-124
-121
-118
-115
-111
-107
-102
-97
-93
-88
-83
-78
-72
-67
-62
-57
-52
-47
-41
-37
-32
-27
-23
-19
-15
-11
-7
-2
2
6
9
11
12
13
12
11
8
4
-1
-7
-15
-25
-36
-50
-63
-79
-97
-115
-133
-152
-171
-190
-210
-229
-246
-264
-278
-293
-306
-318
-327
-336
-341
-346
-349
-350
-350
-348
-345
-340
-334
-327
-320
-311
-302
-292
-281
-271
-260
-250
-239
-228
-219
-209
-199
-190
-182
-174
-167
-160
-154
-149
-144
-139
-135
-133
-130
-127
-125
-123
-121
-120
-119
-118
-118
-117
-117
-117
-118
-118
-118
-118
-117
-117
-117
-117
-118
-118
-118
-118
-118
-118
-118
-117
-117
-117
-117
-117
-117
-116
-116
-116
-115
-115
-115
-114
-114
-114
-114
-113
-113
-113
-112
-112
-112
-111
-111
-111
-111
-110
-110
-109
-109
-110
-110
-109
-108
-108
-108
-108
-108
-107
-107
-107
-107
-107
-107
-107
-106
-106
-106
-106
-106
-106
-105
-104
-104
-104
-104
-104
-103
-103
-103
-103
-102
-102
-102
-102
-101
-101
-100
-100
-100
-100
-99
-99
-99
-99
-99
-99
-99
-98
-98
-98
-98
-98
-98
-96
-97
-97
-96
-96
-96
-94
-94
-93
-93
-93
-92
-92
-91
-91
-91
-90
-90
-90
-89
-89
-89
-87
-87
-87
-86
-86
-85
-84
-84
-84
-83
-83
-82
-81
-81
-81
-80
-80
-79
-78
-78
-78
-77
-77
-76
-76
-75
-74
-74
-73
-72
-72
-72
-70
-70
-70
-70
-68
-68
-67
-67
-67
-65
-65
-64
-64
-64
-63
-63
-63
-62
-62
-62
-60
-60
-59
-59
-59
-58
-58
-57
-58
-57
-57
-56
-55
-56
-55
-55
-54
-54
-53
-53
-53
-53
-52
-53
-52
-53
-52
-52
-53
-52
-52
-52
-53
-53
-52
-53
-54
-53
-54
-54
-54
-54
-54
-55
-55
-55
-55
-56
-56
-56
-56
-56
-57
-57
-56
-57
-58
-58
-59
-59
-59
-60
-61
-61
-61
-62
-63
-62
-62
-63
-64
-64
-65
-65
-65
-66
-66
-67
-67
-68
-69
-69
-69
-69
-71
-71
-72
-72
-73
-73
-74
-75
-75
-75
-76
-77
-77
-78
-79
-79
-80
-81
-80
-81
-82
-83
-83
-84
-85
-86
-87
-87
-88
-89
-89
-90
-91
-92
-93
-94
-95
-96
-96
-97
-98
-99
-100
-101
-101
-101
-103
-104
-104
-105
-105
-107
-107
-108
-108
-109
-110
-110
-111
-112
-112
-112
-113
-113
-114
-114
-114
-115
-115
-115
-116
-116
-116
-117
-117
-117
-118
-118
-118
-119
-119
-119
-119
-119
-120
-120
-120
-121
-121
-121
-121
-121
-121
-121
-121
-122
-122
-122
-122
-122
-122
-122
-122
-122
-122
-122
-122
-122
-122
-122
-121
-121
-122
-121
-121
-121
-121
-122
-122
-121
-121
-120
-120
-120
-120
-120
-120
-120
-120
-120
-120
-120
-120
-119
-119
-119
-120
-120
-120
-120
-120
-120
-119
-119
-119
-120
-120
-118
-118
-118
-118
-118
-118
-117
-117
-117
-117
-117
-117
-117
-117
-117
-117
-117
-117
-117
-117
-117
-117
-117
-117
-117
-117
-117
-117
-117
-117
-117
-117
-117
-117
-117
-117
-117
-117
-117
-117
-117
-117
-117
-117
-118
-118
-118
-118
-118
-118
-118
-118
-118
-118
-118
-118
-118
-118
-118
-118
-118
-118
-118
-118
-118
-118
-118
-119
-119
-118
-118
-118
-118
-119
-119
-119
-119
-119
-119
-119
-119
-119
-119
-120
-120
-120
-120
-120
-120
-120
-120
-120
-120
-121
-120
-120
-121
-122
-122
-121
-121
-121
-122
-122
-122
-122
-122
-123
-123
-123
-123
-123
-123
-123
-123
-123
-123
-123
-123
-124
-124
-124
-124
-124
-124
-124
-123
-123
-122
-122
-123
-123
-123
-123
-123
-123
-123
-123
-123
-123
-123
-124
-124
-124
-124
-124
-124
-125
-125
-125
-125
-125
-125
-125
-125
-125
-125
-125
-125
-125
-125
-125
-125
-125
-125
-126
-126
-126
-126
-126
-126
-126
-126
-126
-126
-126
-126
-127
-127
-127
-126
-126
-126
-126
-126
-126
-126
-127
-127
-127
-127
-127
-127
-127
-127
-127
-127
-127
-127
-127
-126
-126
-126
-127
-127
-127
-127
-127
-127
-126
-126
-126
-126
-126
-125
-125
-125
-125
-125
-124
-124
-123
-123
-122
-121
-121
-120
-120
-120
-119
-119
-118
-118
-118
-117
-117
-117
-116
-117
-117
-117
-117
-117
-117
-119
-118
-118
-118
-118
-119
-119
-119
-119
-119
-119
-120
-120
-120
-120
-120
-120
-120
-120
-120
-120
-120
-119
-120
-120
-121
-121
-121
-121
-122
-122
-123
-123
-123
-124
-124
-125
-125
-126
-126
-128
-128
-129
-129
-129
-129
-130
-129
-129
-130
-130
-129
-129
-129
-129
-130
-129
-128
-128
-128
-129
-128
-127
-128
-128
-128
-128
-128
-128
-128
-128
-128
-128
-128
-129
-128
-129
-129
-128
-128
-129
-128
-128
-129
-128
-128
-128
-129
-128
-128
-128
-128
-128
-128
-129
-129
-129
-130
-130
-130
-130
-131
-131
-131
-131
-131
-131
-131
-131
-131
-131
-131
-131
-131
-131
-131
-131
-131
-131
-131
-130
-130
-130
-130
-130
-130
-130
-130
-130
-130
-130
-130
-130
-130
-130
-130
-130
-129
-129
-128
-128
-128
-128
-127
-127
-126
-126
-125
-126
-125
-124
-123
-122
-120
-119
-117
-114
-112
-109
-105
-101
-98
-94
-89
-84
-80
-75
-69
-64
-59
-53
-48
-43
-38
-33
-27
-22
-17
-13
-8
-4
1
5
11
15
19
23
25
26
26
26
24
22
17
12
6
-3
-14
-26
-40
-55
-72
-90
-109
-128
-148
-168
-188
-208
-228
-246
-264
-280
-296
-309
-321
-331
-340
-345
-350
-352
-354
-352
-350
-346
-340
-334
-326
-318
-308
-298
-287
-276
-265
-254
-243
-232
-221
-210
-200
-190
-181
-172
-164
-156
-149
-143
-137
-132
-128
-124
-120
-117
-114
-112
-109
-108
-107
-106
-106
-105
-105
-105
-104
-105
-104
-104
-104
-104
-104
-104
-104
-104
-104
-103
-103
-104
-103
-103
-103
-101
-101
-101
-101
-100
-100
-100
-100
-99
-99
-99
-99
-98
-98
-98
-97
-97
-97
-97
-96
-96
-96
-96
-96
-95
-95
-95
-95
-94
-94
-94
-94
-93
-92
-92
-92
-92
-92
-91
-91
-91
-90
-89
-89
-89
-89
-89
-88
-88
-88
-87
-87
-87
-86
-86
-86
-86
-86
-86
-85
-85
-85
-85
-85
-85
-85
-84
-84
-84
-84
-84
-84
-83
-83
-83
-83
-82
-81
-81
-81
-81
-80
-80
-80
-79
-78
-77
-77
-77
-76
-76
-75
-75
-74
-74
-74
-72
-72
-72
-72
-71
-71
-70
-70
-69
-69
-69
-69
-68
-68
-67
-67
-66
-66
-66
-65
-65
-65
-64
-63
-63
-62
-62
-61
-60
-60
-59
-58
-58
-58
-57
-56
-56
-55
-55
-54
-54
-53
-52
-52
-51
-50
-50
-49
-49
-49
-48
-47
-47
-47
-46
-46
-46
-45
-45
-45
-44
-43
-43
-42
-42
-42
-41
-41
-41
-40
-40
-39
-39
-40
-39
-38
-38
-37
-38
-37
-36
-37
-36
-36
-36
-36
-35
-35
-34
-35
-34
-34
-34
-34
-34
-33
-34
-33
-34
-34
-34
-34
-34
-34
-35
-35
-36
-36
-36
-37
-37
-37
-37
-38
-38
-39
-39
-40
-40
-41
-41
-42
-42
-43
-43
-44
-45
-44
-45
-46
-46
-46
-47
-48
-49
-49
-49
-49
-50
-50
-51
-52
-51
-52
-52
-52
-53
-53
-54
-54
-55
-56
-57
-57
-58
-59
-59
-60
-60
-61
-62
-62
-63
-64
-65
-66
-67
-68
-69
-70
-71
-72
-73
-74
-74
-75
-76
-77
-78
-79
-80
-80
-81
-82
-83
-83
-84
-84
-85
-86
-86
-87
-87
-88
-88
-89
-89
-89
-90
-90
-91
-91
-91
-92
-92
-93
-93
-94
-95
-95
-95
-96
-97
-97
-97
-97
-98
-99
-99
-100
-100
-100
-100
-101
-101
-101
-101
-102
-102
-102
-102
-102
-102
-102
-104
-104
-104
-104
-104
-104
-104
-104
-104
-103
-103
-103
-103
-103
-103
-103
-103
-103
-103
-103
-104
-103
-103
-103
-103
-103
-103
-103
-103
-103
-103
-103
-103
-103
-103
-103
-103
-103
-103
-103
-103
-103
-103
-103
-103
-103
-103
-103
-102
-102
-102
-102
-102
-102
-102
-102
-101
-102
-102
-102
-102
-102
-101
-101
-101
-101
-101
-101
-101
-101
-101
-101
-101
-101
-101
-101
-101
-101
-100
-100
-100
-100
-100
-100
-100
-100
-100
-100
-100
-100
-100
-100
-100
-100
-100
-100
-100
-100
-100
-100
-100
-101
-101
-101
-101
-101
-101
-101
-101
-101
-101
-101
-101
-101
-101
-101
-101
-100
-100
-100
-100
-100
-100
-100
-100
-100
-100
-100
-100
-100
-100
-100
-100
-100
-100
-100
-100
-100
-100
-100
-100
-100
-101
-101
-101
-101
-102
-101
-101
-101
-101
-101
-101
-101
-101
-101
-101
-101
-101
-101
-101
-102
-102
-102
-102
-103
-103
-102
-103
-103
-103
-103
-103
-103
-104
-104
-105
-105
-105
-105
-105
-106
-106
-106
-106
-106
-106
-106
-106
-107
-107
-107
-107
-107
-107
-106
-106
-107
-107
-107
-106
-106
-106
-106
-106
-106
-106
-106
-106
-107
-107
-107
-107
-107
-108
-108
-107
-107
-108
-108
-108
-108
-108
-109
-109
-109
-109
-109
-109
-109
-109
-109
-109
-110
-110
-109
-109
-109
-110
-110
-110
-110
-110
-110
-110
-110
-110
-109
-109
-109
-109
-109
-108
-108
-108
-108
-108
-108
-108
-107
-107
-107
-107
-107
-107
-107
-107
-107
-107
-107
-106
-106
-106
-106
-106
-105
-104
-104
-104
-104
-104
-104
-102
-102
-102
-102
-101
-101
-101
-100
-100
-101
-100
-100
-101
-101
-100
-101
-101
-102
-102
-102
-103
-103
-103
-103
-103
-103
-103
-103
-103
-103
-104
-103
-103
-103
-103
-103
-103
-103
-103
-103
-103
-104
-104
-104
-104
-105
-106
-105
-106
-107
-108
-108
-109
-109
-110
-111
-111
-112
-112
-112
-113
-113
-113
-113
-114
-114
-113
-113
-114
-114
-114
-113
-113
-114
-114
-114
-114
-113
-114
-113
-114
-114
-114
-114
-114
-115
-114
-114
-114
-115
-114
-114
-114
-114
-114
-113
-113
-113
-112
-113
-112
-113
-113
-112
-112
-112
-111
-112
-112
-112
-112
-112
-112
-113
-113
-113
-113
-114
-114
-114
-114
-114
-114
-114
-116
-116
-116
-116
-116
-116
-116
-116
-116
-116
-116
-116
-115
-115
-115
-115
-115
-115
-115
-115
-115
-114
-114
-115
-115
-115
-115
-115
-115
-115
-115
-114
-114
-114
-114
-114
-114
-113
-113
-112
-111
-112
-111
-110
-109
-109
-108
-107
-105
-103
-101
-98
-95
-92
-88
-84
-81
-75
-71
-65
-60
-56
-51
-45
-40
-35
-29
-24
-19
-13
-9
-3
2
7
11
16
21
26
29
34
37
40
41
41
40
38
34
31
24
17
10
-1
-13
-27
-43
-59
-78
-96
-115
-136
-156
-176
-196
-215
-234
-251
-268
-283
-296
-308
-318
-326
-332
-335
-339
-339
-339
-336
-333
-327
-320
-312
-304
-294
-284
-273
-263
-252
-240
-229
-218
-206
-196
-185
-176
-167
-158
-150
-142
-136
-129
-124
-119
-114
-110
-107
-105
-103
-100
-99
-97
-96
-95
-94
-94
-93
-93
-93
-92
-93
-92
-92
-92
-91
-91
-91
-90
-90
-90
-90
-89
-89
-89
-89
-89
-88
-88
-88
-88
-87
-87
-87
-87
-87
-87
-86
-86
-86
-86
-86
-86
-85
-85
-85
-85
-85
-85
-85
-84
-84
-84
-84
-84
-84
-84
-83
-83
-83
-82
-82
-81
-81
-81
-81
-80
-80
-80
-80
-79
-79
-79
-79
-77
-77
-77
-77
-76
-76
-77
-77
-77
-76
-76
-76
-76
-76
-75
-75
-75
-75
-74
-73
-73
-73
-73
-73
-72
-72
-72
-72
-71
-70
-70
-70
-70
-69
-69
-69
-68
-68
-68
-68
-67
-67
-66
-66
-66
-65
-65
-65
-64
-64
-64
-64
-63
-62
-62
-61
-61
-61
-59
-59
-58
-58
-58
-57
-56
-56
-55
-55
-54
-54
-53
-53
-52
-52
-52
-51
-51
-50
-49
-49
-49
-49
-48
-47
-47
-46
-46
-46
-45
-44
-44
-44
-44
-42
-42
-42
-41
-41
-40
-40
-40
-39
-38
-38
-37
-37
-37
-36
-36
-35
-35
-34
-34
-33
-33
-33
-33
-32
-31
-30
-31
-30
-29
-29
-29
-29
-28
-27
-28
-27
-28
-27
-28
-27
-28
-27
-27
-27
-27
-27
-27
-27
-27
-28
-28
-28
-28
-28
-29
-29
-28
-29
-29
-30
-30
-30
-31
-31
-32
-32
-31
-32
-32
-33
-35
-35
-36
-36
-37
-38
-38
-39
-39
-40
-40
-41
-42
-42
-43
-43
-44
-44
-44
-45
-46
-46
-47
-47
-47
-48
-48
-48
-50
-50
-50
-51
-52
-52
-53
-53
-54
-55
-55
-56
-57
-58
-58
-59
-59
-60
-61
-61
-62
-63
-64
-64
-65
-66
-67
-68
-67
-68
-69
-70
-71
-72
-72
-73
-73
-74
-75
-75
-76
-76
-77
-78
-78
-79
-80
-80
-82
-82
-83
-83
-84
-84
-86
-86
-86
-87
-87
-88
-88
-89
-89
-89
-91
-91
-91
-91
-93
-93
-93
-93
-93
-94
-95
-95
-96
-96
-96
-96
-96
-97
-98
-98
-98
-98
-99
-99
-99
-99
-99
-99
-99
-99
-99
-99
-99
-99
-99
-99
-99
-99
-99
-98
-98
-98
-98
-98
-99
-99
-99
-99
-99
-99
-99
-99
-99
-99
-99
-99
-99
-99
-99
-99
-99
-99
-99
-99
-99
-99
-99
-99
-99
-99
-99
-98
-98
-98
-98
-99
-98
-98
-99
-99
-99
-99
-98
-98
-98
-98
-98
-98
-98
-98
-97
-97
-97
-97
-97
-97
-97
-97
-96
-96
-96
-96
-96
-96
-96
-96
-96
-96
-96
-96
-96
-96
-95
-95
-95
-95
-95
-95
-95
-96
-96
-96
-96
-96
-96
-96
-96
-96
-96
-96
-96
-95
-96
-96
-96
-96
-96
-96
-96
-97
-97
-97
-97
-97
-97
-97
-97
-97
-97
-97
-97
-97
-97
-98
-98
-98
-98
-98
-98
-99
-98
-98
-98
-98
-98
-98
-99
-99
-99
-99
-99
-99
-99
-99
-100
-100
-100
-100
-100
-100
-101
-101
-101
-101
-101
-101
-101
-101
-102
-102
-102
-102
-102
-103
-103
-103
-103
-103
-103
-103
-103
-103
-103
-104
-104
-104
-104
-104
-104
-104
-104
-103
-104
-104
-104
-104
-104
-104
-104
-103
-103
-103
-103
-103
-103
-103
-103
-103
-103
-104
-104
-104
-104
-105
-105
-105
-105
-105
-105
-105
-105
-105
-106
-106
-106
-106
-106
-105
-105
-105
-106
-105
-105
-105
-105
-105
-104
-104
-104
-104
-104
-105
-105
-105
-105
-105
-105
-105
-105
-106
-107
-107
-107
-107
-107
-107
-107
-107
-107
-107
-107
-107
-107
-107
-107
-107
-107
-107
-107
-107
-107
-107
-107
-107
-107
-107
-107
-108
-108
-108
-108
-107
-107
-108
-108
-108
-108
-107
-106
-106
-106
-106
-106
-105
-105
-105
-105
-104
-104
-104
-103
-103
-103
-103
-102
-102
-102
-101
-101
-101
-100
-100
-100
-100
-100
-100
-100
-100
-100
-100
-100
-100
-100
-100
-101
-102
-102
-102
-102
-102
-102
-101
-101
-101
-101
-101
-101
-101
-101
-101
-101
-102
-102
-103
-103
-104
-105
-105
-105
-106
-107
-107
-108
-109
-109
-110
-111
-111
-112
-113
-114
-114
-114
-114
-115
-115
-115
-115
-115
-115
-115
-114
-114
-114
-113
-113
-114
-114
-112
-113
-112
-113
-112
-112
-111
-112
-111
-112
-112
-111
-112
-112
-113
-112
-112
-113
-112
-112
-112
-113
-113
-112
-113
-113
-112
-113
-113
-113
-113
-113
-113
-113
-113
-114
-114
-114
-114
-115
-114
-114
-114
-114
-115
-115
-116
-116
-116
-116
-116
-116
-116
-116
-117
-117
-117
-117
-117
-117
-117
-116
-116
-116
-116
-116
-116
-116
-116
-116
-115
-115
-115
-115
-115
-115
-114
-114
-114
-114
-114
-113
-113
-113
-112
-112
-113
-112
-112
-111
-111
-110
-110
-109
-107
-105
-103
-100
-97
-94
-91
-87
-83
-78
-73
-69
-64
-59
-54
-49
-43
-38
-33
-27
-22
-18
-13
-8
-3
2
6
11
15
20
26
29
34
36
38
38
38
37
33
30
25
19
10
2
-9
-22
-37
-53
-70
-89
-108
-128
-147
-168
-187
-207
-226
-244
-260
-276
-290
-302
-313
-322
-329
-333
-337
-339
-339
-337
-334
-330
-323
-316
-308
-299
-290
-280
-269
-258
-247
-236
-225
-214
-203
-193
-183
-174
-165
-157
-149
-143
-135
-130
-125
-120
-116
-113
-108
-106
-105
-103
-101
-100
-99
-98
-97
-97
-96
-95
-95
-95
-95
-95
-95
-94
-95
-95
-95
-94
-94
-94
-94
-94
-93
-93
-93
-93
-94
-94
-93
-93
-93
-93
-93
-92
-92
-92
-92
-92
-91
-91
-91
-91
-90
-90
-90
-90
-89
-89
-89
-89
-89
-88
-88
-88
-88
-88
-87
-87
-86
-86
-86
-85
-85
-85
-85
-84
-84
-84
-84
-83
-83
-83
-82
-81
-81
-81
-81
-80
-80
-80
-80
-80
-80
-79
-79
-79
-79
-79
-79
-78
-78
-78
-78
-78
-78
-78
-77
-77
-77
-77
-76
-76
-76
-76
-74
-75
-75
-74
-74
-74
-74
-74
-73
-73
-73
-72
-72
-72
-72
-71
-70
-70
-69
-69
-68
-68
-68
-67
-67
-66
-66
-65
-65
-64
-64
-62
-62
-62
-61
-61
-61
-60
-60
-59
-59
-58
-58
-58
-58
-56
-56
-56
-55
-55
-55
-53
-53
-53
-52
-51
-51
-50
-49
-49
-49
-47
-47
-47
-46
-45
-45
-44
-44
-43
-43
-43
-43
-42
-41
-40
-40
-40
-40
-39
-39
-38
-38
-39
-38
-37
-37
-37
-37
-36
-36
-36
-35
-35
-35
-34
-34
-35
-34
-33
-34
-33
-33
-33
-33
-33
-33
-33
-33
-32
-32
-32
-32
-33
-32
-33
-33
-32
-32
-33
-33
-32
-33
-33
-33
-34
-35
-35
-36
-35
-36
-36
-37
-37
-38
-39
-40
-40
-40
-41
-42
-43
-43
-44
-44
-44
-45
-46
-45
-46
-47
-48
-48
-49
-48
-49
-50
-51
-50
-51
-51
-52
-52
-53
-53
-54
-54
-54
-55
-56
-56
-57
-58
-58
-58
-59
-60
-61
-62
-62
-62
-63
-64
-65
-66
-66
-67
-68
-69
-70
-71
-72
-73
-75
-76
-77
-77
-78
-79
-80
-80
-82
-83
-83
-84
-84
-85
-86
-86
-87
-88
-89
-89
-90
-90
-90
-91
-91
-92
-93
-93
-94
-94
-95
-96
-97
-97
-97
-97
-98
-99
-99
-99
-100
-100
-100
-101
-101
-102
-102
-102
-102
-102
-103
-103
-103
-103
-103
-103
-104
-104
-104
-104
-104
-103
-104
-104
-104
-104
-104
-104
-104
-104
-104
-104
-104
-104
-104
-104
-104
-104
-104
-104
-104
-104
-104
-104
-104
-104
-104
-104
-104
-104
-104
-104
-104
-104
-104
-104
-104
-104
-104
-104
-104
-104
-104
-104
-104
-104
-104
-104
-104
-103
-103
-103
-103
-104
-104
-104
-104
-104
-104
-104
-104
-104
-104
-104
-104
-104
-104
-104
-104
-103
-103
-103
-103
-103
-103
-103
-103
-103
-103
-103
-103
-102
-102
-103
-103
-103
-103
-103
-102
-102
-102
-102
-103
-103
-103
-103
-103
-103
-103
-102
-102
-102
-102
-102
-102
-102
-102
-102
-102
-103
-103
-103
-103
-103
-103
-103
-103
-103
-103
-103
-104
-104
-104
-104
-104
-104
-104
-103
-103
-103
-103
-103
-103
-103
-103
-104
-103
-103
-103
-104
-104
-104
-104
-104
-104
-105
-105
-105
-105
-105
-106
-106
-106
-106
-106
-106
-106
-106
-105
-105
-105
-105
-105
-105
-105
-105
-105
-106
-106
-107
-107
-106
-107
-107
-107
-107
-107
-108
-108
-108
-108
-108
-109
-109
-109
-109
-109
-109
-109
-110
-110
-110
-110
-110
-110
-110
-110
-110
-110
-111
-111
-111
-111
-111
-112
-112
-112
-111
-111
-111
-111
-111
-111
-112
-111
-111
-111
-111
-111
-111
-112
-112
-112
-112
-112
-112
-112
-112
-112
-112
-112
-112
-113
-113
-113
-113
-113
-113
-113
-113
-113
-113
-113
-113
-113
-113
-113
-113
-113
-113
-113
-113
-114
-114
-114
-114
-114
-114
-114
-114
-114
-115
-115
-115
-115
-115
-115
-115
-114
-114
-115
-115
-116
-115
-115
-115
-115
-114
-113
-113
-113
-113
-112
-112
-112
-111
-111
-111
-110
-110
-109
-108
-108
-108
-108
-107
-107
-107
-107
-107
-106
-106
-106
-106
-106
-107
-107
-107
-107
-107
-107
-107
-107
-107
-107
-107
-108
-108
-108
-108
-108
-108
-108
-108
-108
-108
-108
-108
-109
-108
-108
-109
-110
-109
-110
-110
-111
-112
-112
-112
-113
-113
-114
-114
-115
-116
-116
-117
-117
-118
-118
-118
-118
-118
-118
-118
-118
-118
-117
-117
-117
-117
-117
-117
-117
-117
-117
-117
-117
-117
-117
-117
-118
-118
-118
-117
-117
-117
-117
-117
-117
-117
-117
-117
-117
-117
-117
-116
-117
-116
-117
-117
-117
-116
-116
-117
-117
-117
-117
-117
-117
-117
-117
-118
-118
-118
-118
-118
-118
-120
-120
-120
-120
-120
-119
-121
-121
-121
-121
-121
-121
-121
-121
-121
-121
-121
-120
-121
-121
-121
-121
-121
-121
-121
-121
-121
-122
-122
-122
-122
-121
-121
-121
-122
-122
-122
-122
-122
-121
-120
-120
-120
-120
-120
-119
-118
-119
-118
-117
-115
-113
-112
-111
-108
-106
-102
-100
-96
-92
-87
-84
-79
-74
-69
-64
-60
-54
-49
-45
-39
-35
-30
-25
-20
-15
-11
-7
-3
1
6
9
14
19
22
25
27
28
28
28
26
23
19
13
7
-1
-11
-22
-35
-50
-66
-83
-99
-118
-136
-156
-174
-193
-211
-228
-246
-260
-275
-287
-299
-308
-316
-322
-326
-329
-330
-330
-328
-325
-320
-315
-308
-300
-292
-283
-273
-264
-253
-243
-233
-222
-211
-201
-192
-183
-174
-166
-158
-150
-144
-138
-132
-127
-123
-120
-116
-113
-110
-108
-107
-105
-104
-103
-104
-103
-103
-102
-103
-103
-103
-102
-103
-103
-103
-103
-104
-104
-104
-103
-103
-103
-103
-103
-103
-103
-103
-103
-103
-103
-103
-102
-102
-102
-102
-101
-101
-100
-100
-100
-100
-99
-99
-100
-98
-98
-98
-98
-98
-98
-97
-97
-97
-97
-97
-97
-96
-96
-97
-97
-97
-96
-96
-96
-96
-96
-95
-95
-95
-95
-95
-95
-94
-94
-94
-93
-94
-93
-93
-93
-93
-92
-92
-92
-92
-92
-91
-90
-90
-90
-90
-90
-89
-89
-89
-88
-88
-88
-88
-88
-87
-86
-86
-86
-85
-85
-86
-84
-84
-84
-85
-85
-84
-83
-83
-83
-82
-82
-82
-82
-81
-81
-81
-80
-79
-79
-80
-78
-78
-77
-77
-77
-76
-76
-76
-75
-75
-74
-74
-74
-73
-72
-72
-71
-71
-71
-70
-69
-69
-68
-68
-68
-67
-66
-66
-65
-65
-64
-64
-63
-63
-62
-62
-61
-60
-60
-59
-59
-59
-58
-57
-57
-56
-56
-56
-55
-55
-54
-54
-53
-53
-53
-52
-52
-51
-52
-51
-50
-50
-49
-49
-48
-48
-48
-47
-47
-46
-46
-46
-46
-45
-44
-44
-44
-44
-44
-44
-43
-44
-43
-42
-43
-42
-42
-42
-42
-42
-42
-43
-42
-43
-43
-42
-43
-43
-44
-44
-45
-44
-45
-45
-45
-46
-46
-46
-47
-47
-48
-48
-48
-49
-49
-50
-50
-51
-51
-51
-51
-51
-52
-53
-53
-54
-55
-55
-55
-56
-56
-57
-58
-58
-58
-60
-60
-61
-61
-61
-62
-62
-64
-64
-65
-66
-66
-67
-68
-68
-69
-70
-71
-72
-73
-74
-75
-76
-77
-77
-77
-78
-79
-80
-81
-82
-83
-84
-85
-86
-87
-87
-88
-89
-89
-90
-91
-92
-92
-93
-94
-94
-96
-97
-97
-98
-98
-100
-101
-101
-102
-103
-103
-104
-105
-105
-106
-106
-108
-108
-108
-110
-110
-110
-111
-111
-111
-112
-113
-113
-113
-113
-115
-115
-115
-116
-116
-116
-116
-116
-116
-116
-118
-118
-118
-118
-118
-118
-119
-119
-119
-119
-119
-118
-118
-118
-118
-119
-119
-119
-119
-118
-118
-118
-119
-119
-118
-118
-118
-118
-118
-118
-118
-119
-119
-119
-118
-118
-118
-118
-118
-118
-118
-118
-118
-118
-118
-118
-118
-119
-118
-119
-119
-119
-119
-119
-118
-118
-118
-118
-118
-118
-118
-118
-118
-118
-118
-119
-119
-119
-118
-118
-118
-118
-118
-118
-118
-118
-118
-118
-118
-118
-118
-118
-117
-117
-117
-117
-117
-117
-117
-117
-117
-117
-117
-117
-117
-117
-116
-116
-116
-117
-117
-117
-117
-117
-117
-117
-117
-117
-118
-118
-118
-118
-118
-118
-118
-119
-119
-118
-118
-118
-118
-119
-119
-119
-119
-119
-120
-120
-120
-120
-119
-119
-119
-119
-119
-119
-119
-119
-119
-120
-120
-120
-120
-121
-121
-120
-121
-121
-122
-122
-121
-121
-121
-122
-122
-122
-122
-122
-122
-123
-123
-123
-123
-123
-123
-123
-123
-123
-124
-124
-124
-125
-125
-125
-125
-125
-125
-125
-125
-125
-125
-125
-125
-125
-125
-125
-125
-125
-125
-125
-125
-125
-125
-124
-125
-125
-125
-125
-125
-125
-126
-127
-127
-127
-127
-128
-128
-128
-128
-129
-129
-129
-129
-129
-129
-129
-129
-129
-129
-129
-129
-129
-129
-129
-129
-129
-130
-130
-129
-129
-129
-129
-129
-129
-129
-130
-130
-131
-131
-131
-131
-131
-131
-132
-132
-132
-132
-132
-132
-132
-132
-132
-132
-132
-132
-132
-132
-132
-132
-132
-132
-132
-132
-133
-133
-132
-132
-132
-132
-132
-132
-132
-132
-133
-133
-133
-133
-133
-133
-133
-133
-133
-134
-134
-134
-134
-134
-134
-134
-134
-134
-134
-134
-133
-133
-133
-133
-133
-132
-132
-132
-132
-133
-133
-133
-133
-133
-132
-132
-132
-132
-132
-131
-131
-131
-130
-130
-129
-129
-129
-128
-128
-128
-128
-127
-127
-127
-126
-127
-127
-126
-126
-127
-127
-127
-127
-127
-127
-127
-127
-127
-127
-128
-128
-128
-129
-129
-129
-129
-129
-129
-129
-129
-129
-129
-129
-129
-130
-130
-130
-130
-130
-130
-130
-131
-131
-132
-132
-132
-133
-133
-134
-134
-135
-135
-136
-136
-136
-137
-137
-137
-137
-137
-138
-138
-138
-138
-138
-138
-138
-138
-138
-138
-138
-138
-138
-138
-138
-137
-137
-137
-137
-137
-137
-136
-137
-137
-138
-137
-137
-138
-137
-137
-137
-137
-137
-137
-137
-136
-136
-137
-136
-136
-135
-136
-136
-135
-135
-136
-136
-136
-136
-136
-136
-136
-136
-136
-136
-137
-138
-138
-138
-138
-138
-138
-138
-138
-139
-139
-139
-139
-139
-139
-139
-139
-139
-140
-140
-140
-140
-140
-140
-140
-140
-140
-140
-141
-141
-141
-141
-141
-141
-140
-140
-140
-140
-140
-139
-139
-138
-138
-138
-137
-137
-136
-136
-136
-135
-134
-133
-132
-130
-127
-125
-123
-120
-117
-114
-110
-107
-103
-98
-93
-88
-83
-79
-73
-67
-62
-57
-52
-46
-41
-35
-30
-25
-20
-16
-11
-7
-2
3
7
10
13
14
14
14
12
9
5
0
-5
-14
-24
-35
-49
-64
-80
-97
-116
-134
-153
-173
-193
-212
-232
-251
-268
-285
-300
-314
-327
-337
-346
-353
-358
-362
-364
-363
-362
-360
-354
-349
-341
-334
-325
-316
-306
-295
-284
-273
-262
-251
-240
-230
-219
-210
-200
-191
-183
-175
-168
-161
-155
-150
-145
-140
-137
-133
-130
-128
-125
-123
-123
-121
-120
-119
-119
-119
-118
-119
-118
-118
-118
-118
-117
-118
-118
-118
-118
-118
-118
-118
-118
-118
-117
-117
-117
-117
-116
-116
-116
-116
-116
-114
-114
-114
-114
-115
-113
-113
-113
-113
-112
-112
-112
-112
-112
-112
-112
-111
-111
-111
-111
-111
-111
-111
-111
-110
-110
-110
-110
-110
-110
-109
-109
-109
-109
-108
-108
-108
-107
-107
-106
-106
-106
-106
-106
-106
-105
-105
-104
-104
-104
-104
-104
-103
-103
-103
-103
-103
-103
-102
-102
-102
-102
-101
-101
-100
-100
-99
-99
-99
-99
-98
-98
-98
-97
-96
-96
-95
-95
-95
-95
-95
-95
-95
-95
-94
-94
-94
-94
-93
-93
-93
-93
-92
-92
-92
-90
-90
-90
-89
-89
-89
-88
-88
-86
-86
-86
-85
-85
-83
-83
-83
-82
-82
-82
-81
-80
-79
-79
-79
-78
-78
-76
-76
-76
-76
-74
-74
-74
-73
-73
-72
-71
-71
-71
-70
-69
-69
-68
-68
-67
-66
-66
-66
-65
-64
-64
-63
-63
-63
-62
-62
-61
-60
-60
-59
-59
-58
-58
-58
-57
-57
-56
-57
-56
-56
-56
-56
-56
-56
-55
-55
-55
-54
-55
-55
-54
-54
-54
-54
-53
-54
-53
-53
-52
-53
-53
-52
-52
-52
-52
-53
-53
-52
-53
-53
-53
-53
-53
-53
-53
-53
-54
-54
-55
-54
-55
-55
-56
-56
-57
-57
-58
-58
-59
-59
-60
-60
-61
-62
-62
-62
-63
-64
-65
-65
-66
-67
-67
-68
-68
-69
-69
-69
-71
-71
-72
-72
-72
-73
-73
-74
-74
-75
-76
-76
-77
-78
-79
-79
-80
-81
-81
-82
-83
-83
-84
-85
-86
-87
-88
-89
-90
-89
-91
-91
-92
-93
-94
-95
-96
-97
-98
-98
-99
-100
-101
-102
-102
-103
-104
-104
-105
-105
-107
-107
-108
-108
-109
-110
-111
-111
-112
-113
-113
-113
-114
-115
-115
-116
-116
-117
-117
-118
-118
-118
-119
-119
-120
-120
-120
-120
-120
-120
-120
-121
-121
-121
-121
-121
-122
-122
-122
-122
-122
-122
-122
-122
-122
-122
-122
-123
-123
-124
-124
-124
-124
-124
-124
-124
-124
-124
-124
-124
-124
-124
-124
-124
-124
-124
-124
-124
-124
-124
-124
-124
-124
-124
-125
-125
-124
-124
-124
-124
-124
-124
-123
-123
-123
-123
-123
-123
-123
-123
-123
-122
-122
-123
-123
-123
-123
-122
-122
-122
-122
-122
-122
-122
-122
-123
-123
-123
-123
-123
-123
-122
-122
-122
-122
-122
-122
-123
-122
-121
-121
-121
-121
-121
-121
-121
-121
-120
-120
-120
-120
-120
-120
-120
-119
-119
-119
-119
-119
-119
-119
-119
-119
-119
-120
-120
-120
-120
-120
-120
-121
-121
-121
-121
-121
-121
-120
-121
-121
-122
-122
-122
-122
-122
-121
-121
-121
-121
-121
-121
-121
-121
-121
-121
-121
-122
-122
-122
-122
-122
-122
-122
-123
-123
-123
-123
-123
-123
-123
-123
-123
-124
-124
-124
-124
-124
-124
-124
-124
-124
-125
-125
-125
-125
-125
-125
-125
-125
-125
-125
-125
-126
-126
-126
-126
-126
-126
-126
-127
-127
-127
-127
-127
-127
-127
-127
-127
-127
-127
-127
-127
-127
-127
-127
-126
-126
-126
-126
-127
-127
-128
-128
-128
-128
-128
-128
-128
-129
-129
-129
-129
-129
-130
-130
-130
-130
-130
-130
-130
-131
-131
-131
-131
-131
-131
-131
-131
-131
-131
-131
-131
-130
-130
-130
-130
-130
-130
-130
-130
-130
-130
-130
-130
-131
-131
-131
-131
-131
-131
-131
-130
-130
-130
-130
-130
-130
-130
-130
-130
-130
-130
-130
-130
-130
-130
-130
-131
-131
-132
-132
-132
-132
-132
-132
-132
-132
-133
-133
-133
-133
-133
-133
-133
-133
-132
-132
-132
-132
-133
-133
-132
-132
-132
-131
-131
-131
-131
-131
-130
-130
-130
-130
-130
-130
-130
-129
-129
-129
-129
-128
-128
-128
-128
-127
-127
-127
-127
-126
-126
-126
-125
-124
-123
-124
-124
-123
-123
-123
-123
-122
-122
-122
-123
-123
-123
-123
-123
-123
-123
-124
-124
-123
-123
-124
-124
-124
-125
-125
-124
-124
-124
-124
-124
-124
-125
-125
-125
-125
-125
-126
-127
-127
-127
-128
-128
-129
-130
-130
-131
-132
-132
-132
-133
-133
-134
-134
-134
-134
-134
-134
-135
-134
-134
-134
-134
-133
-133
-133
-133
-133
-133
-133
-133
-132
-133
-133
-133
-133
-133
-133
-133
-134
-134
-133
-133
-133
-134
-133
-133
-132
-133
-133
-132
-132
-132
-132
-131
-131
-131
-131
-131
-131
-130
-131
-131
-131
-132
-132
-132
-132
-133
-133
-134
-134
-134
-134
-135
-135
-135
-135
-135
-135
-135
-135
-135
-135
-135
-135
-135
-135
-135
-134
-134
-134
-134
-134
-134
-134
-134
-134
-134
-134
-134
-133
-133
-133
-133
-133
-133
-133
-133
-133
-133
-133
-133
-132
-132
-132
-132
-131
-131
-131
-131
-130
-129
-128
-126
-125
-123
-120
-118
-114
-111
-107
-103
-100
-96
-91
-86
-81
-75
-70
-64
-59
-53
-47
-42
-37
-32
-27
-21
-17
-12
-7
-2
3
7
11
16
18
20
20
20
19
16
12
8
3
-5
-16
-27
-40
-55
-70
-88
-105
-125
-144
-164
-184
-204
-224
-244
-261
-279
-294
-309
-323
-334
-343
-351
-357
-361
-362
-362
-360
-358
-354
-348
-341
-333
-323
-314
-303
-292
-282
-269
-259
-247
-236
-225
-214
-203
-194
-184
-177
-168
-161
-154
-148
-142
-137
-133
-129
-125
-123
-120
-118
-116
-115
-113
-112
-112
-111
-111
-110
-111
-110
-110
-110
-109
-109
-109
-110
-109
-109
-109
-109
-109
-108
-108
-108
-108
-107
-107
-107
-106
-106
-106
-105
-105
-105
-106
-105
-105
-105
-105
-105
-104
-104
-104
-103
-103
-103
-102
-102
-102
-102
-102
-102
-102
-102
-101
-101
-100
-100
-100
-100
-100
-99
-99
-99
-98
-98
-98
-98
-96
-96
-96
-95
-95
-95
-95
-95
-95
-94
-95
-95
-95
-94
-94
-94
-94
-94
-94
-94
-93
-93
-92
-92
-92
-91
-91
-90
-90
-90
-89
-89
-88
-87
-87
-87
-87
-87
-86
-86
-86
-86
-86
-86
-86
-86
-86
-86
-86
-85
-85
-85
-84
-84
-84
-83
-82
-82
-82
-81
-81
-79
-79
-79
-78
-78
-76
-76
-76
-75
-75
-74
-73
-73
-73
-72
-71
-71
-71
-70
-70
-70
-69
-68
-68
-68
-67
-67
-66
-66
-65
-65
-65
-64
-63
-63
-63
-62
-61
-61
-61
-59
-59
-59
-59
-58
-57
-57
-56
-56
-55
-55
-55
-54
-54
-53
-53
-52
-52
-51
-51
-51
-51
-50
-50
-49
-49
-49
-48
-47
-48
-47
-47
-47
-46
-47
-46
-45
-45
-45
-45
-45
-45
-45
-44
-44
-43
-44
-44
-43
-44
-44
-43
-44
-44
-43
-44
-44
-44
-43
-44
-44
-44
-45
-45
-46
-46
-46
-47
-47
-48
-49
-49
-50
-50
-50
-51
-51
-52
-53
-53
-53
-54
-55
-55
-56
-57
-57
-57
-58
-59
-59
-60
-61
-61
-62
-62
-63
-64
-64
-65
-65
-66
-67
-67
-68
-68
-69
-69
-69
-70
-71
-72
-72
-72
-73
-74
-74
-74
-75
-76
-77
-78
-79
-79
-80
-80
-81
-82
-83
-84
-85
-85
-86
-87
-88
-89
-89
-90
-91
-92
-94
-95
-96
-96
-97
-98
-99
-99
-100
-100
-101
-102
-102
-102
-103
-103
-104
-105
-105
-105
-106
-106
-106
-107
-108
-108
-108
-108
-109
-110
-110
-110
-110
-110
-111
-112
-112
-113
-113
-113
-113
-113
-113
-113
-113
-113
-113
-113
-114
-114
-114
-114
-114
-114
-114
-114
-114
-114
-114
-115
-115
-115
-115
-115
-115
-115
-115
-114
-114
-114
-114
-115
-115
-115
-115
-114
-114
-114
-114
-114
-114
-113
-113
-113
-113
-113
-113
-113
-114
-114
-113
-113
-113
-112
-112
-112
-112
-112
-112
-112
-112
-112
-112
-112
-111
-111
-111
-111
-111
-111
-111
-111
-110
-110
-111
-111
-110
-110
-110
-111
-111
-111
-111
-111
-111
-111
-111
-111
-111
-111
-111
-110
-110
-110
-110
-110
-110
-109
-109
-109
-109
-109
-109
-109
-109
-109
-109
-109
-109
-109
-109
-109
-109
-110
-110
-110
-110
-110
-110
-110
-110
-110
-110
-110
-111
-111
-111
-111
-111
-111
-111
-111
-111
-111
-111
-112
-112
-112
-112
-111
-111
-111
-111
-112
-112
-112
-112
-111
-111
-111
-111
-111
-111
-112
-112
-112
-112
-112
-113
-113
-113
-113
-113
-113
-113
-113
-113
-113
-114
-114
-114
-114
-114
-114
-114
-115
-115
-115
-115
-115
-115
-116
-116
-116
-116
-116
-116
-116
-115
-115
-115
-115
-115
-115
-115
-115
-115
-116
-116
-116
-116
-116
-116
-116
-116
-116
-116
-116
-116
-116
-116
-116
-116
-116
-116
-116
-116
-116
-116
-117
-117
-117
-117
-117
-117
-117
-117
-117
-117
-117
-118
-118
-118
-118
-118
-118
-118
-118
-118
-119
-120
-120
-120
-120
-120
-121
-121
-121
-120
-120
-120
-120
-120
