# Simple Text Format
# Sampling Rate (Hz):= 1200.00
# Resolution:= 12
# Labels:= ECG	 II
# Age:=	62
# Gender:=	Feminino
-68
-52
-36
-19
-3
13
29
45
61
76
90
103
115
126
135
142
148
151
153
153
150
146
141
133
125
114
103
90
76
62
46
30
14
-1
-18
-34
-49
-63
-77
-90
-102
-113
-123
-132
-140
-147
-153
-158
-162
-166
-168
-170
-172
-172
-173
-173
-173
-173
-172
-172
-171
-170
-170
-169
-169
-169
-168
-168
-168
-169
-169
-169
-169
-170
-170
-170
-170
-171
-171
-171
-171
-172
-172
-172
-172
-172
-172
-172
-172
-172
-172
-172
-173
-173
-173
-173
-173
-173
-173
-172
-172
-172
-172
-172
-172
-172
-172
-172
-172
-172
-172
-172
-172
-172
-171
-171
-171
-171
-171
-171
-171
-171
-171
-171
-171
-171
-171
-171
-171
-171
-171
-171
-171
-170
-170
-170
-170
-170
-170
-170
-170
-169
-169
-169
-169
-169
-168
-168
-168
-168
-168
-167
-167
-167
-167
-167
-167
-166
-166
-166
-166
-166
-165
-165
-165
-165
-165
-164
-164
-164
-164
-164
-164
-164
-164
-163
-163
-163
-163
-163
-163
-163
-163
-162
-162
-162
-162
-162
-162
-161
-161
-161
-160
-160
-160
-159
-159
-158
-158
-158
-157
-157
-156
-156
-155
-155
-155
-154
-154
-153
-153
-153
-152
-152
-152
-151
-151
-151
-150
-150
-150
-149
-149
-148
-148
-147
-147
-146
-146
-145
-145
-144
-143
-143
-142
-141
-141
-140
-139
-138
-138
-137
-136
-135
-134
-134
-133
-132
-131
-130
-129
-129
-128
-127
-126
-125
-124
-123
-122
-120
-119
-118
-117
-116
-114
-113
-112
-111
-109
-108
-107
-106
-104
-103
-102
-100
-99
-98
-96
-95
-93
-92
-91
-89
-88
-87
-85
-84
-83
-82
-80
-79
-78
-77
-76
-75
-74
-73
-72
-71
-70
-69
-68
-67
-66
-66
-65
-64
-63
-62
-61
-60
-60
-59
-58
-57
-57
-56
-56
-55
-55
-54
-54
-54
-53
-53
-53
-53
-53
-54
-54
-55
-55
-56
-56
-57
-58
-59
-60
-61
-62
-64
-65
-66
-68
-70
-71
-73
-75
-77
-79
-81
-83
-85
-87
-89
-92
-94
-96
-98
-100
-102
-104
-106
-109
-111
-113
-114
-116
-118
-120
-121
-123
-125
-126
-128
-129
-130
-132
-133
-135
-136
-137
-138
-139
-140
-141
-142
-143
-144
-145
-146
-147
-148
-149
-149
-150
-150
-151
-152
-152
-153
-153
-154
-155
-155
-156
-156
-156
-157
-157
-158
-158
-159
-159
-159
-160
-160
-160
-160
-161
-161
-161
-161
-161
-161
-161
-161
-161
-161
-161
-161
-161
-161
-161
-161
-161
-161
-161
-161
-161
-161
-161
-160
-160
-160
-160
-160
-161
-161
-161
-161
-161
-161
-161
-161
-161
-161
-161
-162
-162
-162
-162
-162
-162
-162
-162
-162
-162
-162
-162
-162
-162
-162
-162
-162
-162
-162
-162
-162
-162
-162
-162
-162
-162
-162
-162
-162
-162
-162
-162
-162
-161
-161
-161
-161
-161
-161
-161
-161
-161
-161
-161
-161
-161
-161
-161
-161
-161
-161
-161
-161
-161
-161
-161
-161
-161
-161
-161
-161
-161
-161
-161
-161
-160
-160
-160
-160
-160
-160
-160
-160
-160
-159
-159
-159
-159
-159
-159
-159
-159
-159
-159
-159
-159
-159
-159
-159
-159
-158
-158
-158
-158
-158
-158
-158
-158
-158
-158
-158
-158
-158
-158
-158
-158
-158
-157
-157
-157
-157
-157
-157
-157
-157
-157
-157
-157
-157
-157
-158
-158
-158
-158
-158
-158
-159
-159
-159
-159
-159
-160
-160
-160
-160
-160
-160
-160
-160
-160
-160
-160
-160
-160
-160
-160
-160
-160
-160
-160
-160
-160
-160
-160
-160
-160
-160
-160
-160
-160
-160
-160
-160
-160
-160
-160
-160
-160
-160
-160
-160
-160
-160
-160
-160
-160
-161
-161
-161
-161
-161
-161
-162
-162
-162
-162
-162
-162
-162
-162
-162
-162
-162
-163
-162
-162
-162
-162
-162
-162
-162
-162
-162
-162
-161
-161
-161
-161
-161
-161
-161
-161
-160
-160
-160
-160
-160
-160
-160
-160
-160
-159
-159
-159
-159
-158
-158
-157
-157
-156
-155
-154
-154
-153
-152
-152
-151
-150
-149
-148
-148
-147
-146
-146
-145
-145
-144
-144
-143
-143
-143
-143
-142
-142
-142
-142
-142
-142
-143
-143
-143
-143
-143
-143
-143
-143
-143
-143
-143
-143
-143
-144
-143
-143
-143
-143
-143
-143
-142
-142
-142
-142
-142
-142
-142
-142
-142
-141
-141
-141
-141
-142
-142
-142
-142
-142
-142
-142
-142
-143
-143
-143
-143
-143
-144
-144
-144
-145
-145
-146
-146
-147
-147
-148
-148
-149
-150
-150
-151
-152
-152
-153
-154
-155
-155
-156
-157
-158
-158
-159
-159
-160
-160
-161
-161
-162
-162
-162
-163
-163
-164
-164
-164
-164
-165
-165
-165
-165
-166
-166
-166
-166
-167
-167
-167
-168
-168
-168
-168
-169
-169
-169
-169
-170
-170
-170
-170
-170
-170
-170
-170
-170
-170
-170
-170
-170
-170
-169
-169
-169
-169
-169
-169
-169
-169
-169
-169
-169
-169
-169
-169
-169
-169
-169
-170
-170
-170
-170
-170
-170
-170
-170
-170
-171
-171
-172
-172
-173
-174
-175
-176
-178
-179
-181
-182
-184
-186
-187
-189
-190
-191
-192
-193
-192
-192
-190
-188
-185
-181
-176
-171
-164
-156
-147
-137
-126
-114
-101
-87
-72
-57
-41
-25
-9
6
23
39
55
70
85
98
111
123
133
142
148
153
156
157
156
153
149
142
134
125
114
102
88
74
59
43
27
10
-5
-21
-37
-52
-66
-79
-92
-103
-113
-123
-131
-138
-144
-150
-154
-158
-160
-163
-164
-165
-166
-166
-166
-165
-165
-165
-164
-163
-163
-162
-162
-161
-161
-161
-161
-161
-161
-161
-161
-161
-161
-161
-162
-162
-163
-163
-163
-164
-164
-164
-165
-165
-165
-165
-165
-166
-166
-166
-166
-166
-166
-166
-166
-166
-166
-165
-165
-165
-165
-165
-165
-165
-165
-164
-164
-164
-164
-164
-164
-163
-163
-163
-163
-163
-162
-162
-162
-162
-162
-162
-162
-162
-162
-162
-161
-161
-161
-161
-161
-161
-161
-161
-161
-161
-161
-161
-160
-160
-160
-160
-160
-159
-159
-159
-159
-158
-158
-158
-157
-157
-157
-157
-156
-156
-156
-156
-155
-155
-155
-155
-155
-155
-154
-154
-154
-154
-154
-153
-153
-153
-153
-153
-152
-152
-152
-152
-151
-151
-151
-151
-150
-150
-150
-150
-149
-149
-149
-149
-149
-148
-148
-148
-148
-148
-148
-147
-147
-147
-147
-146
-146
-146
-146
-145
-145
-145
-144
-144
-143
-143
-143
-142
-142
-141
-141
-140
-140
-139
-138
-138
-137
-137
-136
-136
-135
-135
-134
-133
-133
-132
-131
-131
-130
-129
-129
-128
-127
-126
-126
-125
-124
-123
-122
-121
-121
-120
-119
-118
-117
-116
-115
-114
-113
-112
-111
-110
-108
-107
-106
-105
-104
-102
-101
-100
-99
-98
-97
-95
-94
-93
-92
-90
-89
-88
-86
-85
-84
-83
-81
-80
-79
-78
-76
-75
-74
-73
-72
-70
-69
-68
-67
-66
-65
-64
-63
-62
-61
-60
-59
-58
-57
-56
-55
-54
-53
-52
-51
-51
-50
-49
-48
-47
-46
-46
-45
-44
-44
-44
-44
-43
-43
-43
-43
-43
-43
-43
-44
-44
-45
-45
-46
-47
-48
-49
-50
-51
-52
-53
-54
-56
-57
-59
-61
-62
-64
-66
-68
-70
-71
-73
-75
-77
-79
-81
-83
-85
-87
-89
-91
-92
-94
-96
-98
-100
-102
-104
-106
-107
-109
-111
-113
-114
-116
-118
-119
-121
-122
-123
-125
-126
-127
-128
-129
-131
-132
-133
-134
-135
-135
-136
-137
-138
-139
-139
-140
-141
-142
-142
-143
-144
-144
-145
-145
-145
-146
-146
-147
-147
-147
-147
-147
-148
-148
-148
-148
-148
-148
-148
-148
-149
-149
-149
-149
-149
-149
-149
-150
-150
-150
-150
-150
-151
-151
-151
-151
-151
-151
-151
-151
-151
-151
-151
-152
-152
-152
-152
-152
-152
-152
-152
-152
-152
-152
-152
-152
-152
-152
-152
-152
-152
-152
-152
-153
-153
-153
-153
-153
-153
-153
-153
-153
-153
-153
-153
-153
-153
-153
-153
-153
-153
-153
-153
-153
-153
-153
-153
-153
-153
-153
-153
-153
-153
-153
-153
-153
-153
-153
-153
-153
-153
-153
-153
-153
-153
-153
-153
-152
-152
-152
-152
-152
-152
-152
-152
-152
-152
-152
-152
-151
-151
-151
-151
-151
-151
-151
-152
-152
-152
-152
-152
-152
-152
-152
-152
-152
-152
-152
-152
-152
-152
-152
-152
-152
-152
-152
-152
-152
-152
-152
-151
-151
-151
-151
-151
-151
-151
-151
-151
-151
-151
-151
-151
-151
-151
-151
-151
-151
-151
-151
-151
-151
-151
-151
-152
-152
-152
-152
-152
-152
-152
-153
-153
-153
-153
-153
-153
-153
-153
-153
-153
-153
-153
-153
-153
-152
-152
-152
-152
-152
-152
-152
-153
-153
-153
-153
-153
-153
-153
-153
-153
-154
-154
-154
-154
-154
-154
-154
-154
-154
-154
-154
-154
-154
-154
-154
-154
-154
-154
-154
-154
-154
-154
-154
-154
-154
-154
-154
-154
-155
-155
-155
-155
-155
-155
-155
-155
-155
-155
-155
-155
-155
-155
-155
-154
-154
-154
-154
-154
-154
-154
-154
-154
-154
-154
-154
-154
-154
-154
-154
-154
-154
-153
-153
-153
-153
-153
-153
-152
-152
-152
-151
-151
-150
-150
-149
-149
-148
-147
-147
-146
-146
-145
-145
-144
-143
-143
-142
-142
-141
-141
-140
-140
-140
-139
-139
-138
-138
-138
-138
-138
-138
-138
-138
-138
-138
-138
-138
-138
-138
-138
-138
-138
-138
-138
-138
-138
-138
-138
-138
-138
-138
-138
-138
-138
-138
-137
-137
-137
-137
-137
-137
-137
-137
-137
-138
-138
-138
-138
-138
-138
-138
-138
-139
-139
-139
-139
-139
-139
-140
-140
-140
-141
-141
-142
-142
-143
-143
-144
-144
-145
-146
-147
-148
-148
-149
-150
-151
-152
-152
-153
-153
-154
-154
-155
-155
-156
-156
-156
-157
-157
-157
-158
-158
-158
-159
-159
-160
-160
-160
-161
-161
-162
-162
-163
-163
-164
-164
-164
-165
-165
-165
-165
-165
-165
-165
-165
-165
-165
-165
-165
-165
-165
-165
-165
-165
-165
-166
-166
-166
-166
-166
-166
-166
-166
-166
-166
-167
-167
-167
-167
-167
-167
-167
-167
-167
-167
-167
-167
-167
-167
-167
-167
-167
-167
-168
-168
-169
-169
-170
-171
-171
-172
-174
-175
-176
-178
-179
-181
-183
-184
-186
-188
-189
-190
-191
-191
-191
-190
-188
-186
-183
-179
-174
-169
-162
-154
-145
-134
-123
-111
-98
-84
-69
-54
-38
-22
-6
9
25
41
57
72
86
99
112
123
133
141
147
151
154
155
153
150
146
139
131
122
111
99
86
72
57
41
25
9
-7
-23
-38
-53
-67
-80
-92
-104
-114
-124
-132
-139
-145
-151
-155
-159
-161
-163
-165
-166
-166
-166
-166
-166
-165
-164
-164
-163
-162
-162
-161
-161
-161
-160
-160
-160
-160
-160
-161
-161
-161
-162
-162
-163
-163
-163
-164
-164
-164
-165
-165
-165
-165
-166
-166
-166
-166
-166
-166
-166
-166
-166
-166
-166
-166
-166
-166
-166
-166
-165
-165
-165
-165
-165
-164
-164
-164
-164
-164
-164
-163
-163
-163
-163
-163
-163
-163
-163
-162
-162
-162
-162
-162
-162
-161
-161
-161
-161
-161
-161
-161
-160
-160
-160
-160
-160
-160
-159
-159
-159
-159
-159
-159
-159
-159
-159
-159
-158
-158
-158
-158
-158
-158
-158
-158
-157
-157
-157
-157
-157
-157
-156
-156
-156
-155
-155
-155
-155
-155
-155
-154
-154
-154
-154
-153
-153
-153
-153
-153
-153
-153
-152
-152
-152
-152
-151
-151
-151
-151
-150
-150
-150
-149
-149
-149
-148
-148
-148
-147
-147
-147
-146
-146
-146
-145
-145
-145
-145
-144
-144
-144
-143
-143
-143
-142
-142
-142
-141
-141
-140
-140
-139
-139
-138
-137
-137
-136
-136
-135
-134
-133
-133
-132
-131
-130
-129
-129
-128
-127
-126
-125
-125
-124
-123
-122
-121
-120
-119
-118
-117
-116
-115
-114
-113
-112
-111
-110
-108
-107
-106
-105
-103
-102
-101
-100
-98
-97
-95
-94
-93
-91
-90
-88
-87
-86
-84
-83
-82
-81
-80
-79
-78
-77
-76
-75
-74
-73
-72
-71
-70
-69
-68
-67
-67
-66
-65
-64
-63
-61
-60
-59
-58
-57
-56
-55
-54
-53
-52
-51
-50
-49
-48
-48
-47
-46
-46
-46
-45
-45
-45
-45
-45
-45
-45
-45
-45
-46
-46
-47
-48
-48
-49
-50
-51
-52
-53
-54
-55
-57
-58
-60
-61
-63
-65
-67
-68
-70
-72
-74
-76
-78
-80
-82
-84
-86
-88
-90
-92
-94
-96
-98
-100
-102
-103
-105
-107
-109
-110
-112
-114
-115
-117
-118
-120
-121
-123
-124
-126
-127
-128
-130
-131
-132
-133
-135
-136
-137
-138
-139
-140
-141
-142
-143
-143
-144
-145
-145
-146
-146
-147
-147
-148
-148
-148
-149
-149
-149
-149
-150
-150
-150
-150
-150
-151
-151
-151
-151
-151
-151
-151
-151
-152
-152
-152
-152
-152
-152
-152
-152
-152
-153
-153
-153
-153
-153
-153
-153
-154
-154
-154
-154
-154
-154
-154
-154
-154
-154
-154
-154
-154
-154
-154
-154
-154
-154
-154
-154
-154
-154
-154
-154
-154
-154
-154
-154
-154
-154
-155
-155
-155
-155
-155
-155
-155
-156
-156
-156
-156
-156
-156
-157
-157
-157
-157
-157
-157
-157
-157
-157
-157
-157
-157
-157
-157
-157
-157
-157
-157
-157
-157
-157
-157
-157
-157
-157
-157
-157
-158
-158
-158
-158
-157
-157
-157
-157
-157
-157
-157
-157
-157
-157
-157
-157
-157
-157
-157
-157
-157
-157
-157
-157
-157
-157
-156
-156
-156
-156
-156
-156
-156
-156
-156
-156
-156
-156
-156
-156
-156
-156
-156
-156
-155
-155
-155
-155
-155
-155
-155
-155
-155
-155
-155
-155
-155
-155
-155
-155
-155
-156
-156
-156
-156
-156
-156
-156
-156
-156
-156
-156
-156
-157
-157
-157
-157
-157
-157
-157
-157
-158
-158
-158
-158
-158
-159
-159
-159
-159
-159
-159
-159
-159
-159
-159
-159
-159
-159
-159
-159
-159
-159
-159
-159
-159
-159
-159
-159
-159
-160
-160
-160
-160
-160
-160
-160
-160
-160
-160
-160
-160
-160
-160
-160
-160
-160
-160
-160
-160
-160
-160
-160
-160
-160
-160
-159
-159
-159
-159
-159
-159
-159
-159
-158
-158
-158
-158
-158
-158
-158
-158
-158
-158
-159
-159
-159
-159
-159
-159
-158
-158
-158
-157
-157
-157
-156
-156
-155
-154
-154
-153
-152
-152
-151
-150
-150
-149
-148
-148
-147
-147
-147
-146
-146
-146
-146
-146
-145
-146
-146
-146
-146
-146
-146
-147
-147
-147
-147
-147
-147
-146
-146
-146
-146
-146
-146
-146
-146
-145
-145
-145
-144
-144
-144
-144
-143
-143
-143
-143
-143
-143
-143
-142
-143
-143
-143
-143
-143
-143
-144
-144
-144
-144
-145
-145
-145
-146
-146
-146
-147
-147
-147
-148
-148
-149
-149
-150
-150
-151
-151
-152
-153
-153
-154
-155
-156
-156
-157
-158
-159
-159
-160
-161
-161
-162
-163
-163
-164
-164
-165
-165
-165
-166
-166
-167
-167
-167
-168
-168
-169
-169
-169
-170
-170
-171
-171
-171
-172
-172
-172
-172
-173
-173
-173
-173
-173
-173
-173
-173
-173
-173
-173
-173
-173
-173
-173
-173
-173
-173
-173
-173
-173
-173
-173
-173
-173
-173
-173
-173
-173
-173
-173
-174
-174
-174
-174
-174
-174
-174
-175
-175
-175
-175
-176
-176
-176
-177
-177
-178
-178
-179
-180
-181
-182
-184
-185
-187
-188
-190
-192
-194
-195
-197
-198
-199
-199
-200
-199
-198
-196
-194
-191
-187
-181
-175
-168
-159
-150
-139
-128
-115
-101
-87
-72
-57
-41
-25
-9
6
22
38
53
68
82
95
107
118
127
134
140
143
145
145
143
139
133
126
118
108
97
84
71
57
42
26
10
-5
-21
-36
-51
-66
-79
-92
-103
-114
-124
-133
-141
-147
-153
-158
-162
-166
-168
-170
-172
-173
-173
-173
-173
-172
-172
-171
-171
-170
-170
-169
-169
-169
-168
-168
-168
-168
-168
-168
-169
-169
-169
-169
-170
-170
-170
-170
-170
-171
-171
-171
-171
-172
-172
-172
-172
-173
-173
-173
-173
-173
-173
-173
-174
-174
-174
-174
-173
-173
-173
-173
-173
-173
-173
-173
-173
-172
-172
-172
-172
-172
-172
-171
-172
-172
-172
-172
-172
-172
-172
-171
-172
-172
-172
-172
-171
-171
-171
-171
-171
-171
-170
-170
-170
-170
-170
-169
-169
-169
-169
-169
-168
-168
-168
-168
-167
-167
-167
-167
-167
-166
-166
-166
-166
-166
-166
-166
-166
-166
-165
-165
-165
-165
-165
-165
-165
-165
-165
-165
-165
-165
-165
-165
-165
-164
-164
-164
-164
-164
-163
-163
-163
-163
-162
-162
-161
-161
-161
-160
-160
-159
-159
-159
-159
-158
-158
-158
-157
-157
-157
-157
-156
-156
-156
-156
-156
-155
-155
-155
-154
-154
-153
-153
-152
-152
-151
-151
-151
-150
-150
-149
-149
-148
-148
-147
-146
-146
-145
-145
-144
-143
-143
-142
-141
-141
-140
-139
-138
-137
-137
-136
-135
-135
-134
-133
-132
-131
-130
-129
-129
-128
-127
-126
-125
-124
-123
-122
-120
-119
-118
-117
-116
-114
-113
-112
-111
-109
-108
-107
-106
-104
-103
-102
-101
-100
-98
-97
-96
-94
-93
-92
-91
-89
-88
-87
-86
-85
-84
-83
-82
-81
-80
-79
-78
-77
-76
-75
-74
-73
-72
-71
-70
-70
-69
-68
-67
-66
-65
-64
-63
-63
-62
-61
-61
-60
-60
-59
-59
-58
-58
-58
-58
-58
-58
-58
-58
-58
-59
-59
-60
-60
-61
-62
-63
-64
-65
-66
-67
-68
-70
-71
-73
-74
-76
-78
-80
-82
-84
-86
-88
-90
-92
-94
-96
-98
-100
-102
-104
-106
-108
-110
-112
-114
-116
-117
-119
-120
-122
-123
-125
-127
-128
-130
-132
-133
-135
-136
-138
-139
-140
-142
-143
-144
-146
-147
-148
-149
-150
-151
-152
-153
-153
-154
-155
-155
-156
-156
-157
-157
-157
-158
-158
-159
-159
-160
-160
-161
-161
-161
-161
-162
-162
-162
-163
-163
-163
-164
-164
-164
-164
-164
-165
-165
-165
-165
-165
-165
-165
-166
-166
-166
-166
-167
-167
-167
-167
-167
-167
-168
-168
-168
-168
-168
-168
-168
-168
-168
-168
-168
-168
-168
-168
-168
-168
-168
-168
-168
-167
-167
-167
-167
-168
-168
-168
-168
-168
-168
-168
-168
-168
-168
-168
-168
-169
-169
-169
-169
-169
-169
-169
-169
-169
-169
-169
-169
-168
-168
-168
-168
-168
-168
-168
-168
-168
-167
-167
-167
-167
-167
-167
-167
-167
-167
-167
-167
-167
-166
-166
-166
-166
-166
-166
-166
-166
-166
-166
-166
-166
-166
-166
-166
-166
-167
-167
-167
-167
-167
-167
-167
-167
-167
-167
-167
-167
-167
-167
-167
-167
-167
-166
-166
-166
-166
-165
-165
-165
-165
-165
-165
-164
-164
-164
-164
-164
-164
-164
-164
-164
-164
-164
-164
-164
-165
-165
-165
-165
-165
-166
-166
-166
-166
-166
-167
-167
-167
-167
-167
-167
-167
-166
-166
-166
-166
-166
-166
-166
-166
-166
-166
-166
-166
-166
-166
-167
-167
-167
-167
-167
-167
-167
-168
-168
-168
-168
-168
-168
-168
-168
-168
-168
-169
-169
-169
-169
-169
-169
-169
-169
-169
-169
-169
-170
-170
-170
-170
-170
-170
-170
-170
-170
-170
-170
-170
-170
-170
-171
-171
-170
-170
-170
-170
-170
-170
-170
-170
-170
-170
-170
-170
-170
-170
-170
-170
-170
-169
-169
-169
-169
-169
-170
-170
-170
-170
-169
-169
-169
-170
-170
-170
-170
-169
-169
-169
-169
-169
-169
-169
-169
-168
-168
-168
-167
-167
-166
-165
-165
-164
-163
-163
-162
-161
-160
-160
-159
-158
-158
-157
-156
-156
-155
-155
-154
-154
-154
-153
-153
-153
-153
-153
-153
-153
-153
-153
-153
-153
-153
-153
-153
-153
-153
-154
-154
-154
-154
-154
-154
-153
-153
-153
-153
-153
-153
-153
-153
-153
-153
-153
-153
-152
-152
-152
-152
-152
-152
-153
-153
-153
-153
-153
-153
-153
-153
-154
-154
-154
-154
-154
-154
-155
-155
-156
-156
-157
-157
-158
-158
-159
-159
-160
-161
-162
-162
-163
-164
-164
-165
-166
-167
-167
-168
-169
-169
-170
-170
-171
-172
-172
-172
-173
-173
-174
-174
-175
-176
-176
-177
-177
-177
-178
-178
-179
-179
-179
-180
-180
-180
-181
-181
-181
-182
-182
-182
-182
-182
-182
-182
-182
-182
-182
-182
-183
-183
-183
-183
-183
-183
-183
-183
-183
-183
-182
-182
-182
-182
-182
-182
-182
-182
-182
-182
-182
-182
-182
-182
-182
-182
-182
-182
-182
-182
-183
-183
-183
-184
-184
-184
-185
-186
-187
-187
-189
-190
-191
-193
-195
-197
-199
-201
-203
-205
-206
-208
-209
-210
-211
-211
-211
-210
-208
-205
-202
-197
-192
-186
-178
-169
-160
-149
-137
-124
-111
-96
-81
-65
-49
-33
-17
0
15
30
46
61
75
88
100
111
120
128
133
137
138
138
136
132
127
119
111
101
89
77
63
49
33
18
1
-14
-30
-45
-61
-75
-89
-101
-113
-124
-134
-143
-150
-157
-163
-168
-172
-175
-178
-180
-181
-182
-183
-183
-183
-182
-182
-181
-180
-180
-179
-179
-178
-178
-177
-177
-177
-177
-177
-177
-177
-178
-178
-178
-179
-179
-180
-180
-180
-181
-181
-181
-181
-182
-182
-182
-182
-182
-182
-182
-182
-182
-182
-181
-181
-181
-181
-181
-181
-181
-180
-180
-180
-180
-180
-180
-180
-180
-180
-180
-180
-180
-179
-179
-179
-179
-179
-179
-179
-179
-179
-179
-179
-179
-179
-179
-179
-179
-179
-179
-179
-179
-179
-179
-179
-179
-178
-178
-178
-178
-178
-178
-178
-177
-177
-177
-177
-177
-176
-176
-176
-176
-176
-175
-175
-175
-175
-175
-175
-174
-174
-174
-174
-174
-174
-173
-173
-173
-173
-173
-173
-172
-172
-172
-172
-172
-172
-172
-172
-172
-171
-171
-171
-171
-171
-171
-171
-171
-170
-170
-170
-170
-169
-169
-169
-169
-169
-168
-168
-168
-168
-167
-167
-167
-166
-166
-166
-166
-165
-165
-165
-164
-164
-163
-163
-162
-162
-161
-161
-160
-160
-159
-159
-158
-157
-157
-156
-156
-155
-155
-154
-153
-153
-152
-151
-150
-150
-149
-148
-148
-147
-146
-145
-145
-144
-143
-142
-141
-140
-139
-138
-138
-137
-136
-135
-133
-132
-131
-130
-129
-128
-127
-126
-125
-123
-122
-121
-120
-119
-117
-116
-115
-114
-112
-111
-110
-109
-108
-106
-105
-104
-102
-101
-100
-99
-97
-96
-95
-94
-93
-92
-91
-90
-88
-87
-86
-85
-84
-83
-82
-81
-80
-79
-78
-77
-76
-75
-75
-74
-73
-72
-71
-71
-70
-69
-69
-68
-68
-67
-67
-67
-67
-67
-67
-67
-67
-67
-67
-68
-68
-69
-69
-70
-71
-72
-73
-74
-75
-76
-78
-79
-81
-82
-84
-86
-87
-89
-91
-93
-95
-97
-99
-101
-103
-105
-107
-109
-111
-113
-115
-117
-119
-120
-122
-124
-126
-127
-129
-131
-132
-134
-136
-137
-139
-140
-142
-143
-145
-146
-148
-149
-150
-152
-153
-154
-155
-157
-158
-159
-159
-160
-161
-162
-162
-163
-164
-164
-165
-165
-166
-166
-167
-167
-168
-168
-168
-169
-169
-170
-170
-170
-171
-171
-172
-172
-172
-172
-173
-173
-173
-173
-174
-174
-174
-174
-174
-174
-174
-175
-175
-175
-175
-175
-175
-175
-175
-175
-175
-175
-175
-175
-175
-175
-176
-176
-176
-176
-176
-176
-176
-176
-176
-176
-176
-176
-176
-176
-176
-176
-177
-177
-177
-177
-177
-177
-177
-177
-177
-177
-177
-177
-177
-177
-177
-178
-178
-178
-178
-178
-178
-178
-178
-178
-178
-178
-178
-178
-178
-178
-178
-178
-178
-178
-178
-178
-178
-178
-178
-178
-178
-178
-177
-177
-177
-177
-177
-177
-177
-177
-177
-177
-177
-177
-177
-177
-177
-177
-177
-176
-176
-176
-177
-177
-177
-177
-177
-177
-177
-177
-177
-177
-177
-177
-177
-177
-176
-176
-176
-176
-176
-176
-176
-176
-176
-176
-176
-176
-176
-176
-176
-176
-176
-176
-176
-176
-176
-176
-176
-176
-176
-176
-176
-176
-176
-176
-176
-176
-176
-176
-176
-176
-176
-177
-177
-177
-177
-177
-177
-177
-177
-177
-177
-177
-177
-177
-177
-177
-177
-177
-177
-177
-177
-177
-177
-177
-177
-177
-178
-178
-178
-178
-178
-178
-178
-178
-178
-178
-178
-178
-178
-178
-178
-178
-178
-178
-178
-178
-178
-178
-178
-178
-178
-179
-179
-179
-179
-179
-179
-179
-179
-179
-179
-180
-180
-180
-180
-180
-180
-180
-180
-180
-180
-180
-180
-180
-181
-181
-181
-181
-181
-181
-181
-181
-181
-181
-181
-181
-181
-181
-181
-181
-181
-181
-181
-182
-182
-182
-182
-182
-182
-182
-182
-181
-181
-181
-181
-181
-181
-181
-181
-181
-181
-181
-181
-181
-181
-181
-181
-181
-181
-181
-181
-181
-181
-181
-181
-181
-181
-181
-181
-181
-181
-181
-181
-181
-181
-181
-180
-180
-179
-179
-178
-177
-177
-176
-175
-175
-174
-173
-172
-171
-170
-170
-169
-168
-168
-167
-167
-166
-166
-166
-165
-165
-165
-165
-165
-165
-165
-165
-165
-166
-166
-166
-166
-166
-167
-167
-167
-167
-167
-167
-167
-167
-167
-167
-166
-166
-166
-166
-166
-165
-165
-165
-165
-164
-164
-164
-164
-164
-164
-165
-165
-165
-165
-166
-166
-166
-167
-167
-167
-168
-168
-169
-169
-169
-169
-170
-170
-171
-171
-172
-172
-173
-173
-173
-174
-174
-175
-175
-176
-177
-177
-178
-179
-180
-180
-181
-182
-182
-183
-183
-184
-184
-185
-185
-186
-186
-187
-187
-187
-188
-188
-188
-188
-189
-189
-189
-189
-189
-189
-189
-190
-190
-190
-190
-190
-191
-191
-191
-191
-191
-191
-191
-192
-192
-192
-192
-192
-192
-192
-192
-192
-192
-192
-192
-192
-193
-193
-193
-193
-193
-193
-193
-193
-193
-193
-193
-193
-193
-193
-194
-194
-194
-194
-194
-194
-194
-194
-194
-194
-194
-194
-195
-195
-196
-196
-197
-198
-199
-200
-202
-203
-205
-206
-208
-210
-211
-213
-214
-216
-217
-217
-217
-217
-216
-214
-212
-208
-204
-199
-193
-185
-177
-168
-157
-146
-133
-120
-106
-91
-75
-60
-44
-27
-11
4
19
35
50
64
77
89
99
108
116
122
125
127
127
125
121
116
109
101
91
80
67
54
40
25
9
-6
-22
-38
-54
-69
-83
-97
-110
-122
-133
-142
-151
-159
-166
-172
-177
-181
-184
-187
-189
-190
-191
-191
-191
-191
-191
-190
-190
-189
-189
-188
-187
-187
-187
-186
-186
-186
-186
-186
-186
-186
-187
-187
-188
-188
-188
-189
-189
-189
-190
-190
-190
-191
-191
-191
-192
-192
-192
-192
-193
-193
-193
-193
-193
-193
-193
-193
-193
-193
-193
-193
-192
-192
-192
-192
-192
-192
-192
-192
-192
-191
-191
-191
-191
-191
-191
-191
-191
-191
-190
-190
-190
-190
-190
-190
-189
-189
-189
-189
-189
-188
-188
-188
-188
-188
-188
-187
-187
-187
-187
-187
-187
-186
-186
-186
-186
-186
-186
-186
-186
-186
-185
-185
-185
-185
-185
-185
-185
-184
-184
-184
-184
-184
-184
-184
-184
-183
-183
-183
-183
-183
-183
-183
-183
-182
-182
-182
-182
-182
-182
-182
-182
-182
-181
-181
-181
-181
-181
-180
-180
-180
-180
-180
-179
-179
-179
-179
-178
-178
-178
-177
-177
-177
-176
-176
-176
-175
-175
-174
-174
-174
-173
-173
-173
-172
-172
-171
-171
-171
-170
-170
-169
-169
-168
-168
-167
-167
-166
-166
-165
-164
-164
-163
-162
-162
-161
-160
-159
-159
-158
-157
-156
-155
-154
-154
-153
-152
-151
-151
-150
-149
-148
-147
-146
-145
-144
-144
-143
-142
-141
-139
-138
-137
-136
-135
-133
-132
-131
-130
-128
-127
-126
-125
-123
-122
-121
-119
-118
-117
-116
-114
-113
-112
-111
-110
-109
-108
-106
-105
-104
-103
-102
-101
-100
-99
-98
-97
-96
-95
-94
-93
-92
-91
-90
-89
-88
-87
-86
-85
-84
-83
-82
-82
-81
-80
-79
-79
-78
-78
-77
-77
-76
-76
-76
-76
-76
-76
-76
-76
-76
-77
-77
-78
-79
-80
-81
-82
-83
-84
-85
-87
-88
-90
-91
-93
-95
-97
-99
-101
-102
-104
-106
-108
-110
-112
-114
-117
-119
-121
-123
-125
-127
-129
-131
-133
-135
-136
-138
-140
-142
-144
-145
-147
-149
-150
-152
-153
-155
-156
-158
-159
-160
-161
-163
-164
-165
-166
-167
-168
-169
-170
-171
-172
-173
-174
-175
-175
-176
-177
-177
-178
-178
-178
-179
-179
-179
-179
-180
-180
-180
-180
-180
-181
-181
-181
-181
-182
-182
-182
-183
-183
-183
-183
-183
-184
-184
-184
-185
-185
-185
-185
-186
-186
-186
-186
-186
-186
-187
-187
-187
-187
-187
-187
-187
-187
-187
-187
-187
-187
-187
-187
-187
-187
-187
-187
-187
-187
-187
-187
-187
-187
-187
-187
-187
-187
-188
-188
-188
-188
-188
-188
-188
-188
-188
-188
-188
-188
-188
-188
-188
-188
-188
-188
-188
-188
-188
-188
-188
-188
-188
-188
-188
-188
-188
-188
-188
-188
-188
-188
-188
-188
-188
-188
-188
-188
-187
-187
-187
-187
-187
-187
-187
-187
-187
-187
-187
-187
-187
-187
-187
-187
-187
-187
-187
-187
-187
-187
-187
-187
-187
-187
-187
-187
-187
-187
-187
-187
-187
-187
-187
-187
-187
-187
-187
-187
-187
-187
-187
-187
-187
-187
-187
-188
-188
-188
-187
-187
-187
-187
-187
-187
-187
-187
-187
-187
-186
-186
-186
-186
-186
-186
-186
-185
-185
-185
-185
-185
-186
-186
-186
-186
-186
-186
-186
-186
-187
-187
-187
-187
-188
-188
-188
-188
-188
-189
-189
-189
-189
-189
-189
-189
-189
-189
-189
-189
-189
-189
-189
-189
-188
-188
-189
-189
-188
-188
-188
-188
-188
-188
-188
-188
-188
-188
-188
-188
-188
-188
-189
-189
-188
-188
-188
-188
-188
-188
-188
-188
-188
-189
-189
-189
-189
-189
-189
-189
-189
-189
-189
-189
-189
-189
-189
-189
-189
-189
-189
-189
-189
-189
-189
-189
-189
-190
-190
-190
-190
-189
-189
-189
-189
-189
-189
-189
-189
-189
-189
-189
-189
-189
-189
-189
-189
-189
-189
-189
-189
-189
-189
-189
-189
-189
-189
-189
-189
-189
-189
-188
-188
-188
-188
-187
-187
-187
-186
-185
-185
-184
-183
-183
-182
-181
-181
-180
-179
-178
-178
-177
-176
-176
-175
-175
-174
-174
-173
-173
-172
-172
-172
-171
-171
-171
-171
-171
-171
-171
-171
-171
-170
-170
-170
-170
-170
-170
-171
-171
-171
-171
-171
-171
-171
-171
-171
-171
-171
-171
-171
-171
-171
-171
-171
-171
-170
-170
-170
-170
-170
-170
-170
-170
-170
-170
-170
-170
-170
-170
-170
-170
-171
-171
-171
-171
-172
-172
-173
-173
-174
-174
-175
-175
-176
-177
-177
-178
-178
-179
-180
-180
-181
-182
-182
-183
-184
-184
-185
-186
-186
-187
-187
-188
-188
-189
-189
-190
-190
-190
-191
-191
-191
-192
-192
-192
-193
-193
-193
-193
-194
-194
-194
-194
-195
-195
-195
-195
-195
-196
-196
-196
-196
-196
-196
-196
-196
-196
-196
-196
-196
-196
-196
-196
-196
-196
-196
-196
-196
-196
-196
-196
-196
-196
-197
-197
-196
-196
-196
-196
-196
-196
-196
-196
-196
-196
-196
-196
-196
-196
-196
-196
-196
-197
-197
-198
-198
-199
-200
-201
-203
-204
-206
-207
-209
-211
-213
-215
-217
-218
-220
-221
-221
-221
-221
-220
-218
-215
-211
-207
-202
-195
-188
-179
-169
-158
-147
-134
-120
-106
-91
-75
-60
-44
-27
-11
4
20
35
49
63
76
88
98
107
114
119
123
125
124
122
118
113
106
97
87
76
64
50
36
20
5
-10
-26
-42
-58
-72
-87
-100
-113
-124
-135
-145
-153
-161
-168
-173
-178
-182
-185
-187
-189
-190
-191
-191
-191
-191
-191
-190
-190
-189
-189
-188
-188
-187
-187
-187
-187
-187
-187
-187
-187
-187
-188
-188
-188
-189
-189
-189
-189
-190
-190
-190
-190
-191
-191
-191
-191
-191
-191
-191
-191
-191
-191
-191
-191
-191
-191
-191
-191
-191
-191
-191
-191
-191
-191
-191
-191
-191
-191
-191
-190
-190
-190
-190
-190
-190
-189
-189
-189
-189
-188
-188
-188
-187
-187
-187
-187
-187
-187
-186
-186
-186
-186
-186
-186
-186
-186
-186
-185
-185
-185
-185
-185
-185
-185
-185
-185
-185
-184
-184
-184
-184
-184
-184
-183
-183
-183
-183
-183
-182
-182
-182
-182
-181
-181
-181
-181
-181
-180
-180
-180
-180
-179
-179
-179
-179
-178
-178
-178
-178
-178
-178
-177
-177
-177
-177
-177
-176
-176
-176
-176
-176
-175
-175
-175
-175
-174
-174
-174
-174
-174
-173
-173
-173
-172
-172
-172
-171
-171
-171
-170
-170
-169
-169
-169
-168
-168
-167
-167
-166
-165
-165
-164
-163
-162
-162
-161
-160
-160
-159
-159
-158
-157
-156
-156
-155
-155
-154
-153
-153
-152
-152
-151
-150
-149
-148
-148
-147
-146
-145
-144
-143
-142
-141
-140
-139
-137
-136
-135
-134
-133
-132
-130
-129
-128
-127
-125
-124
-123
-121
-120
-119
-117
-116
-115
-113
-112
-111
-109
-108
-107
-106
-104
-103
-102
-101
-99
-98
-97
-96
-95
-94
-93
-92
-91
-90
-90
-89
-88
-87
-86
-85
-84
-83
-82
-81
-80
-79
-78
-78
-77
-76
-75
-74
-73
-73
-72
-71
-71
-70
-70
-69
-69
-69
-69
-69
-69
-69
-70
-70
-71
-71
-72
-73
-73
-74
-76
-77
-78
-79
-81
-82
-84
-85
-87
-89
-90
-92
-94
-96
-98
-99
-101
-103
-105
-107
-109
-111
-113
-115
-117
-119
-121
-123
-125
-126
-128
-130
-132
-134
-135
-137
-138
-140
-142
-143
-145
-146
-147
-149
-150
-152
-153
-154
-155
-156
-158
-159
-160
-161
-162
-162
-163
-164
-165
-165
-166
-167
-167
-168
-168
-169
-169
-170
-170
-171
-171
-172
-172
-173
-173
-174
-174
-175
-175
-176
-176
-176
-177
-177
-177
-177
-178
-178
-178
-178
-178
-178
-178
-178
-178
-178
-178
-179
-179
-179
-179
-179
-179
-179
-179
-179
-180
-180
-180
-180
-180
-180
-180
-180
-180
-180
-180
-180
-180
-180
-180
-180
-180
-180
-180
-180
-180
-180
-180
-180
-179
-179
-179
-180
-180
-180
-180
-180
-180
-180
-180
-180
-180
-181
-181
-181
-181
-181
-181
-181
-181
-181
-181
-181
-181
-181
-181
-181
-181
-181
-181
-181
-181
-181
-181
-181
-181
-181
-181
-181
-181
-180
-180
-180
-180
-180
-180
-180
-180
-180
-180
-180
-180
-180
-180
-180
-179
-179
-179
-179
-179
-179
-179
-179
-179
-179
-179
-179
-178
-178
-178
-178
-178
-178
-178
-178
-178
-178
-178
-177
-177
-177
-177
-177
-177
-178
-178
-178
-178
-178
-178
-178
-178
-179
-179
-179
-179
-179
-179
-180
-180
-180
-180
-180
-180
-180
-180
-180
-180
-180
-180
-179
-179
-179
-179
-179
-179
-179
-179
-178
-178
-178
-178
-178
-178
-178
-178
-178
-179
-179
-179
-179
-179
-179
-179
-179
-179
-179
-179
-180
-180
-180
-180
-180
-180
-180
-180
-180
-180
-180
-180
-180
-180
-180
-180
-180
-181
-181
-181
-181
-181
-181
-181
-181
-181
-180
-180
-180
-180
-180
-179
-179
-179
-179
-179
-179
-179
-179
-179
-179
-179
-180
-180
-180
-180
-180
-180
-181
-181
-181
-181
-181
-182
-182
-182
-182
-182
-182
-182
-182
-182
-182
-182
-182
-182
-181
-181
-181
-181
-181
-181
-180
-180
-180
-180
-180
-179
-179
-179
-179
-179
-179
-179
-178
-178
-178
-178
-177
-177
-177
-176
-176
-175
-175
-174
-174
-173
-172
-171
-170
-170
-169
-168
-168
-167
-166
-166
-165
-164
-164
-163
-163
-163
-162
-162
-162
-162
-162
-162
-162
-162
-162
-162
-162
-162
-162
-162
-162
-162
-162
-162
-162
-162
-162
-162
-162
-162
-162
-162
-161
-161
-161
-161
-161
-161
-161
-161
-161
-161
-161
-161
-161
-161
-161
-161
-161
-161
-161
-161
-161
-161
-162
-162
-162
-162
-162
-163
-163
-164
-164
-165
-165
-166
-166
-167
-167
-168
-169
-169
-170
-171
-172
-172
-173
-174
-174
-175
-176
-176
-177
-177
-178
-178
-179
-179
-180
-180
-181
-181
-181
-182
-182
-182
-183
-183
-183
-184
-184
-184
-185
-185
-185
-185
-185
-186
-186
-186
-186
-186
-186
-187
-187
-187
-187
-187
-187
-187
-187
-187
-188
-188
-188
-188
-188
-189
-189
-189
-189
-189
-189
-189
-189
-189
-189
-189
-189
-189
-188
-188
-188
-188
-188
-188
-188
-188
-188
-188
-188
-188
-189
-189
-189
-190
-190
-191
-191
-192
-193
-195
-196
-198
-200
-202
-204
-206
-208
-209
-211
-212
-213
-214
-215
-214
-213
-212
-209
-206
-202
-197
-190
-183
-175
-165
-154
-143
-130
-117
-103
-88
-72
-57
-41
-25
-9
6
22
37
52
66
79
91
102
112
119
125
129
131
131
130
126
121
114
106
97
86
74
61
47
32
17
1
-14
-30
-46
-61
-75
-89
-102
-114
-125
-135
-144
-152
-159
-166
-171
-175
-179
-182
-184
-186
-187
-187
-188
-188
-187
-187
-186
-186
-185
-184
-184
-183
-183
-182
-182
-182
-182
-182
-182
-183
-183
-183
-184
-184
-184
-185
-185
-185
-186
-186
-186
-186
-187
-187
-187
-187
-187
-187
-187
-187
-188
-188
-188
-188
-187
-187
-187
-187
-187
-187
-187
-187
-187
-187
-187
-186
-186
-186
-186
-186
-186
-186
-186
-186
-186
-186
-186
-186
-186
-186
-186
-186
-186
-186
-186
-185
-185
-185
-185
-185
-185
-185
-185
-185
-185
-185
-185
-185
-185
-184
-184
-184
-184
-184
-183
-183
-183
-182
-182
-182
-182
-182
-181
-181
-181
-181
-181
-181
-181
-180
-180
-180
-180
-180
-180
-180
-180
-180
-180
-180
-179
-179
-179
-179
-179
-178
-178
-178
-177
-177
-177
-176
-176
-176
-175
-175
-175
-175
-174
-174
-174
-174
-174
-174
-173
-173
-173
-173
-173
-173
-173
-173
-172
-172
-172
-172
-171
-171
-171
-170
-170
-170
-169
-169
-168
-168
-167
-167
-166
-166
-165
-165
-164
-163
-163
-162
-161
-161
-160
-159
-159
-158
-157
-157
-156
-155
-154
-153
-152
-152
-151
-150
-149
-148
-147
-146
-145
-144
-143
-142
-141
-140
-139
-137
-136
-135
-135
-134
-133
-131
-130
-129
-128
-127
-126
-125
-124
-123
-122
-121
-120
-119
-117
-116
-115
-114
-113
-111
-110
-109
-108
-106
-105
-104
-103
-101
-100
-99
-98
-97
-96
-95
-94
-92
-91
-90
-89
-88
-87
-86
-85
-84
-83
-83
-82
-81
-80
-79
-78
-77
-77
-76
-75
-75
-74
-74
-73
-73
-72
-72
-72
-71
-71
-71
-71
-72
-72
-72
-72
-73
-73
-74
-75
-76
-77
-78
-79
-80
-82
-83
-85
-87
-88
-90
-92
-94
-96
-98
-100
-102
-104
-106
-108
-110
-112
-114
-116
-118
-120
-122
-124
-126
-128
-130
-132
-134
-136
-137
-139
-141
-143
-144
-146
-147
-149
-150
-152
-153
-154
-156
-157
-158
-159
-160
-161
-162
-163
-164
-165
-166
-166
-167
-168
-169
-169
-170
-170
-171
-171
-172
-172
-173
-173
-174
-174
-174
-175
-175
-176
-176
-176
-177
-177
-177
-178
-178
-178
-179
-179
-179
-180
-180
-180
-181
-181
-181
-181
-182
-182
-182
-182
-183
-183
-183
-183
-184
-184
-184
-184
-184
-184
-184
-184
-184
-184
-184
-184
-184
-184
-184
-184
-185
-185
-185
-185
-185
-185
-185
-185
-185
-185
-185
-186
-186
-186
-186
-186
-186
-186
-186
-186
-186
-186
-186
-186
-186
-186
-186
-186
-186
-186
-186
-187
-187
-187
-187
-187
-187
-187
-187
-188
-188
-188
-188
-188
-188
-188
-188
-188
-188
-188
-187
-187
-187
-187
-187
-187
-186
-186
-186
-186
-186
-186
-185
-185
-185
-185
-185
-185
-185
-185
-185
-185
-185
-185
-185
-184
-184
-184
-185
-185
-185
-185
-185
-185
-184
-184
-184
-184
-184
-184
-184
-184
-184
-184
-184
-184
-184
-184
-184
-184
-184
-184
-184
-184
-184
-184
-184
-184
-184
-184
-185
-185
-185
-185
-185
-185
-185
-185
-185
-185
-185
-185
-185
-185
-185
-185
-186
-186
-186
-186
-186
-186
-186
-186
-186
-186
-186
-186
-186
-186
-186
-186
-186
-186
-186
-186
-186
-186
-186
-186
-186
-186
-186
-187
-187
-187
-187
-187
-187
-188
-188
-188
-188
-188
-188
-188
-188
-189
-189
-189
-189
-189
-189
-188
-188
-188
-188
-188
-188
-188
-188
-188
-188
-188
-188
-188
-188
-189
-189
-189
-189
-189
-189
-189
-189
-189
-189
-189
-189
-189
-189
-189
-189
-189
-189
-189
-189
-189
-190
-190
-190
-190
-190
-190
-190
-190
-190
-190
-190
-190
-190
-189
-189
-189
-189
-189
-189
-189
-189
-189
-189
-189
-188
-188
-188
-187
-187
-186
-186
-185
-185
-184
-184
-183
-182
-182
-181
-180
-179
-179
-178
-177
-177
-176
-175
-175
-174
-174
-173
-173
-173
-172
-172
-172
-172
-173
-173
-173
-173
-173
-173
-173
-173
-173
-173
-173
-173
-173
-173
-172
-172
-172
-172
-172
-172
-171
-171
-171
-171
-171
-171
-171
-171
-171
-171
-171
-171
-172
-172
-172
-173
-173
-173
-173
-173
-174
-174
-174
-174
-174
-174
-174
-174
-174
-175
-175
-175
-175
-176
-176
-177
-177
-178
-178
-179
-179
-180
-181
-181
-182
-183
-183
-184
-185
-186
-186
-187
-188
-188
-189
-189
-190
-190
-191
-191
-192
-192
-192
-193
-193
-194
-194
-194
-195
-195
-195
-195
-196
-196
-196
-196
-196
-196
-197
-197
-197
-197
-198
-198
-198
-198
-198
-199
-199
-199
-199
-200
-200
-200
-200
-200
-200
-201
-201
-201
-201
-201
-201
-201
-201
-201
-201
-201
-201
-201
-201
-200
-200
-200
-200
-200
-200
-200
-200
-200
-200
-200
-200
-200
-200
-201
-201
-202
-202
-203
-204
-205
-206
-208
-209
-211
-212
-214
-216
-218
-220
-221
-223
-224
-225
-225
-225
-224
-223
-221
-218
-214
-210
-204
-197
-190
-181
-171
-160
-148
-135
-121
-106
-91
-75
-59
-43
-27
-10
5
21
36
51
65
78
90
100
109
116
121
124
126
125
123
118
113
105
96
86
75
62
48
33
18
2
-13
-30
-46
-61
-76
-90
-104
-116
-128
-139
-148
-157
-165
-171
-177
-182
-186
-189
-192
-193
-195
-196
-196
-196
-196
-196
-196
-195
-195
-194
-194
-194
-194
-194
-194
-194
-194
-194
-194
-194
-194
-195
-195
-195
-195
-196
-196
-196
-196
-196
-196
-196
-196
-196
-197
-197
-197
-197
-197
-197
-197
-197
-196
-196
-196
-196
-196
-196
-196
-196
-196
-196
-196
-196
-196
-196
-196
-196
-196
-196
-196
-196
-196
-196
-196
-196
-196
-196
-196
-195
-195
-195
-195
-195
-194
-194
-194
-194
-193
-193
-193
-193
-192
-192
-192
-192
-192
-192
-192
-191
-191
-191
-191
-191
-190
-190
-190
-190
-190
-190
-190
-190
-189
-189
-189
-189
-188
-188
-188
-188
-188
-188
-187
-187
-187
-187
-187
-186
-186
-186
-186
-185
-185
-185
-185
-184
-184
-184
-184
-184
-184
-183
-183
-183
-183
-183
-183
-183
-183
-182
-182
-182
-182
-182
-181
-181
-181
-180
-180
-179
-179
-179
-178
-178
-178
-177
-177
-176
-176
-175
-175
-174
-174
-174
-173
-173
-172
-172
-171
-171
-170
-169
-169
-168
-167
-167
-166
-166
-165
-164
-164
-163
-163
-162
-161
-160
-160
-159
-158
-158
-157
-156
-155
-154
-153
-152
-151
-150
-149
-148
-147
-146
-145
-144
-143
-142
-140
-139
-138
-137
-135
-134
-133
-132
-131
-129
-128
-127
-125
-124
-123
-121
-120
-119
-118
-116
-115
-114
-112
-111
-110
-109
-108
-106
-105
-104
-103
-102
-100
-99
-98
-97
-96
-95
-93
-92
-91
-90
-89
-87
-86
-85
-84
-83
-83
-82
-81
-80
-79
-78
-78
-77
-76
-75
-75
-74
-74
-73
-73
-73
-72
-72
-72
-72
-72
-72
-72
-72
-73
-73
-74
-74
-75
-76
-77
-78
-79
-81
-82
-83
-85
-86
-88
-89
-91
-93
-94
-96
-98
-100
-102
-104
-106
-108
-110
-112
-114
-117
-119
-121
-123
-125
-127
-129
-131
-133
-135
-137
-139
-141
-143
-145
-146
-148
-150
-151
-153
-154
-155
-157
-158
-159
-160
-162
-163
-164
-165
-165
-166
-167
-168
-169
-169
-170
-170
-171
-171
-172
-172
-173
-173
-174
-174
-175
-175
-176
-176
-177
-177
-178
-178
-178
-179
-179
-179
-179
-179
-180
-180
-180
-180
-180
-180
-180
-180
-180
-180
-180
-180
-181
-181
-181
-181
-181
-181
-181
-181
-181
-182
-182
-182
-182
-182
-182
-182
-183
-183
-183
-183
-183
-183
-183
-183
-183
-183
-183
-183
-183
-183
-183
-183
-183
-183
-183
-183
-183
-183
-183
-183
-184
-184
-184
-184
-184
-184
-184
-184
-184
-185
-185
-185
-185
-185
-185
-184
-184
-184
-184
-184
-184
-184
-184
-184
-184
-184
-183
-183
-183
-183
-183
-183
-182
-182
-182
-182
-182
-182
-182
-182
-182
-182
-182
-182
-182
-182
-182
-182
-182
-182
-182
-182
-181
-182
-182
-182
-181
-181
-181
-181
-181
-181
-181
-181
-181
-181
-181
-181
-180
-180
-180
-180
-180
-180
-180
-180
-180
-180
-180
-180
-180
-180
-180
-180
-180
-180
-180
-180
-180
-180
-180
-180
-179
-179
-180
-180
-180
-180
-180
-180
-180
-180
-180
-180
-180
-180
-180
-180
-181
-181
-181
-181
-181
-181
-181
-181
-181
-181
-181
-181
-181
-181
-181
-181
-181
-181
-181
-181
-181
-181
-181
-181
-181
-181
-181
-181
-181
-181
-181
-181
-181
-181
-181
-181
-181
-181
-181
-181
-181
-181
-181
-181
-181
-181
-181
-181
-181
-181
-181
-181
-181
-181
-181
-181
-181
-181
-181
-181
-181
-181
-181
-181
-181
-181
-181
-181
-182
-182
-182
-182
-182
-183
-183
-183
-183
-183
-183
-183
-183
-183
-183
-182
-182
-182
-182
-182
-182
-182
-181
-181
-181
-181
-181
-181
-181
-181
-181
-181
-181
-181
-181
-180
-180
-180
-180
-180
-180
-180
-180
-180
-180
-179
-179
-179
-179
-178
-178
-177
-177
-177
-176
-176
-175
-175
-174
-173
-173
-172
-171
-171
-170
-170
-169
-168
-168
-167
-166
-166
-165
-165
-164
-164
-163
-163
-163
-163
-162
-162
-162
-162
-162
-162
-162
-162
-162
-162
-163
-163
-163
-163
-163
-163
-163
-163
-163
-163
-163
-162
-162
-162
-162
-162
-161
-161
-161
-161
-161
-160
-160
-160
-160
-160
-160
-160
-160
-160
-160
-160
-160
-160
-160
-161
-161
-161
-162
-162
-162
-162
-163
-163
-164
-164
-164
-165
-165
-166
-166
-166
-167
-167
-168
-168
-169
-170
-170
-171
-171
-172
-173
-173
-174
-175
-175
-176
-176
-177
-177
-178
-179
-179
-180
-180
-180
-181
-181
-181
-182
-182
-182
-183
-183
-183
-183
-184
-184
-184
-185
-185
-185
-185
-185
-185
-185
-186
-186
-186
-186
-186
-186
-186
-186
-186
-186
-187
-187
-187
-187
-187
-187
-187
-187
-187
-187
-188
-188
-188
-188
-188
-188
-188
-188
-188
-188
-188
-188
-188
-187
-187
-187
-187
-187
-187
-187
-187
-188
-188
-188
-189
-190
-190
-192
-193
-194
-196
-197
-199
-201
-203
-204
-206
-208
-209
-210
-211
-211
-211
-210
-209
-206
-203
-199
-194
-187
-180
-171
-162
-151
-140
-127
-113
-99
-84
-68
-52
-36
-19
-3
13
29
44
59
74
87
100
111
120
128
134
138
140
140
138
135
129
122
114
104
93
80
66
52
36
20
4
-12
-28
-44
-59
-74
-88
-101
-113
-124
-135
-144
-152
-158
-164
-169
-173
-176
-179
-181
-182
-183
-183
-183
-183
-182
-182
-181
-180
-180
-179
-179
-178
-178
-178
-178
-178
-178
-178
-178
-178
-179
-179
-179
-180
-180
-181
-181
-182
-182
-182
-183
-183
-183
-183
-183
-183
-183
-184
-184
-184
-184
-183
-183
-183
-183
-183
-183
-183
-183
-183
-183
-183
-183
-183
-183
-183
-183
-183
-183
-183
-183
-183
-183
-182
-182
-182
-182
-182
-181
-181
-181
-181
-181
-180
-180
-180
-180
-179
-179
-179
-179
-179
-179
-178
-178
-178
-178
-178
-178
-178
-178
-177
-177
-177
-177
-177
-176
-176
-176
-176
-176
-175
-175
-175
-175
-175
-175
-175
-174
-174
-174
-174
-174
-173
-173
-173
-173
-172
-172
-172
-172
-171
-171
-171
-171
-171
-170
-170
-170
-170
-170
-170
-169
-169
-169
-169
-169
-168
-168
-168
-167
-167
-167
-166
-166
-166
-165
-165
-164
-164
-164
-163
-163
-163
-163
-162
-162
-161
-161
-161
-160
-160
-160
-159
-159
-158
-158
-157
-156
-156
-155
-154
-154
-153
-152
-152
-151
-150
-150
-149
-148
-148
-147
-146
-145
-145
-144
-143
-142
-142
-141
-140
-139
-138
-137
-136
-135
-134
-133
-132
-131
-130
-129
-128
-127
-126
-125
-124
-123
-122
-121
-120
-118
-117
-116
-115
-114
-112
-111
-109
-108
-107
-105
-104
-103
-101
-100
-98
-97
-96
-94
-93
-92
-90
-89
-88
-87
-86
-84
-83
-82
-81
-80
-79
-77
-76
-75
-74
-73
-72
-71
-70
-69
-68
-67
-66
-65
-64
-63
-62
-61
-60
-60
-59
-58
-58
-57
-57
-56
-56
-56
-56
-56
-56
-56
-56
-57
-57
-58
-58
-59
-60
-61
-62
-63
-64
-65
-66
-68
-69
-71
-73
-74
-76
-78
-79
-81
-83
-85
-87
-89
-91
-93
-95
-97
-99
-101
-103
-105
-107
-109
-111
-113
-114
-116
-118
-120
-122
-123
-125
-127
-129
-130
-132
-133
-135
-136
-138
-139
-140
-142
-143
-144
-145
-146
-147
-148
-149
-150
-151
-152
-153
-154
-155
-156
-156
-157
-158
-158
-159
-159
-160
-160
-161
-161
-161
-162
-162
-163
-163
-163
-163
-164
-164
-164
-165
-165
-165
-165
-165
-165
-166
-166
-166
-166
-166
-166
-166
-166
-166
-166
-166
-166
-166
-166
-166
-166
-166
-166
-166
-166
-166
-166
-166
-167
-167
-167
-167
-167
-167
-167
-167
-168
-168
-168
-168
-168
-168
-168
-168
-169
-169
-169
-169
-168
-168
-168
-168
-168
-168
-168
-168
-168
-168
-168
-168
-168
-168
-169
-169
-169
-169
-169
-169
-169
-169
-169
-169
-169
-170
-170
-170
-170
-170
-170
-170
-169
-169
-169
-169
-169
-169
-169
-169
-169
-169
-169
-169
-169
-169
-169
-169
-169
-169
-169
-169
-169
-169
-169
-169
-169
-169
-169
-169
-169
-169
-169
-169
-169
-169
-169
-168
-168
-168
-168
-168
-168
-168
-167
-167
-167
-167
-167
-167
-167
-167
-167
-167
-167
-167
-167
-167
-168
-168
-168
-168
-168
-168
-168
-168
-168
-168
-168
-168
-168
-168
-168
-168
-167
-167
-167
-167
-167
-167
-167
-167
-167
-167
-167
-167
-167
-167
-168
-168
-168
-168
-168
-168
-168
-169
-169
-169
-169
-169
-169
-169
-169
-169
-169
-169
-169
-169
-169
-169
-169
-169
-169
-169
-169
-169
-169
-169
-169
-169
-169
-169
-169
-169
-170
-170
-170
-170
-170
-170
-170
-170
-170
-170
-170
-170
-170
-170
-170
-170
-170
-170
-170
-170
-170
-170
-170
-169
-169
-169
-169
-169
-169
-169
-169
-169
-169
-169
-169
-169
-170
-170
-170
-170
-171
-171
-171
-171
-171
-172
-172
-172
-172
-172
-172
-172
-172
-172
-172
-172
-171
-171
-171
-171
-171
-171
-170
-170
-170
-170
-170
-169
-169
-169
-169
-169
-169
-168
-168
-168
-168
-167
-167
-167
-166
-166
-165
-165
-165
-164
-164
-163
-162
-162
-161
-161
-160
-159
-159
-158
-157
-156
-156
-155
-155
-154
-154
-153
-153
-153
-153
-153
-153
-153
-153
-153
-153
-153
-153
-154
-154
-154
-154
-154
-154
-155
-155
-155
-155
-155
-154
-154
-154
-154
-153
-153
-152
-152
-152
-151
-151
-151
-151
-151
-151
-151
-151
-151
-151
-151
-152
-152
-152
-153
-153
-154
-154
-155
-155
-155
-156
-156
-156
-157
-157
-158
-158
-159
-159
-160
-160
-160
-161
-161
-162
-163
-163
-164
-165
-165
-166
-166
-167
-167
-168
-168
-169
-169
-170
-170
-171
-171
-171
-172
-172
-172
-173
-173
-174
-174
-174
-175
-175
-176
-176
-176
-177
-177
-178
-178
-178
-178
-178
-179
-179
-179
-179
-179
-180
-180
-180
-180
-180
-180
-180
-180
-180
-180
-180
-181
-181
-181
-181
-181
-181
-181
-181
-181
-181
-181
-181
-181
-181
-181
-181
-181
-181
-181
-181
-181
-181
-181
-181
-181
-181
-182
-182
-182
-183
-183
-184
-185
-186
-188
-189
-191
-192
-194
-196
-198
-199
-201
-202
-204
-204
-205
-205
-204
-203
-202
-199
-196
-191
-186
-180
-172
-164
-154
-144
-132
-119
-106
-91
-76
-61
-45
-29
-12
3
19
35
51
65
80
93
105
116
125
133
138
142
144
143
141
138
132
125
117
107
95
82
69
54
38
22
6
-9
-26
-41
-57
-71
-85
-98
-110
-121
-131
-140
-148
-154
-160
-165
-169
-172
-175
-177
-178
-178
-179
-179
-179
-178
-178
-178
-177
-176
-176
-176
-175
-175
-175
-175
-175
-176
-176
-177
-177
-177
-178
-178
-179
-180
-180
-180
-181
-181
-182
-182
-182
-182
-182
-182
-182
-182
-182
-182
-182
-182
-182
-182
-182
-182
-181
-181
-181
-181
-181
-181
-180
-180
-180
-180
-180
-180
-180
-180
-179
-179
-179
-179
-179
-179
-179
-179
-178
-178
-178
-178
-178
-178
-178
-178
-177
-177
-177
-177
-177
-177
-177
-176
-176
-176
-176
-176
-176
-176
-176
-176
-175
-175
-175
-175
-176
-176
-176
-176
-176
-176
-175
-175
-175
-175
-175
-175
-175
-175
-174
-174
-174
-174
-173
-173
-173
-173
-172
-172
-172
-172
-171
-171
-171
-171
-170
-170
-170
-170
-170
-169
-169
-169
-169
-169
-168
-168
-168
-168
-167
-167
-167
-167
-166
-166
-166
-166
-165
-165
-165
-164
-164
-164
-163
-163
-163
-163
-162
-162
-162
-161
-161
-161
-160
-160
-160
-159
-159
-158
-158
-157
-156
-156
-155
-155
-154
-153
-153
-152
-151
-151
-150
-149
-148
-148
-147
-146
-146
-145
-144
-143
-143
-142
-141
-140
-139
-138
-137
-136
-135
-134
-133
-132
-131
-130
-129
-128
-126
-125
-124
-123
-121
-120
-119
-118
-116
-115
-114
-113
-112
-110
-109
-108
-107
-105
-104
-103
-101
-100
-99
-98
-96
-95
-94
-93
-91
-90
-89
-88
-86
-85
-84
-83
-81
-80
-79
-78
-77
-76
-75
-74
-73
-72
-71
-70
-69
-68
-68
-67
-66
-65
-64
-64
-63
-62
-62
-61
-61
-60
-60
-59
-59
-59
-59
-59
-59
-60
-60
-61
-61
-62
-63
-64
-65
-66
-68
-69
-71
-72
-74
-75
-77
-79
-81
-83
-85
-87
-89
-91
-93
-95
-97
-99
-101
-103
-105
-107
-109
-111
-113
-115
-117
-119
-121
-123
-125
-127
-128
-130
-132
-133
-135
-136
-138
-140
-141
-143
-144
-145
-147
-148
-149
-150
-151
-152
-153
-154
-155
-156
-157
-158
-158
-159
-160
-160
-161
-161
-162
-162
-163
-163
-164
-164
-164
-165
-165
-165
-166
-166
-167
-167
-167
-167
-168
-168
-168
-168
-169
-169
-169
-169
-169
-169
-170
-170
-170
-170
-170
-170
-170
-171
-171
-171
-171
-171
-171
-171
-171
-171
-171
-171
-172
-172
-172
-172
-172
-172
-172
-172
-172
-172
-172
-171
-171
-171
-171
-171
-171
-171
-171
-171
-171
-171
-171
-171
-171
-171
-171
-171
-171
-171
-171
-171
-172
-172
-172
-172
-172
-173
-173
-173
-173
-173
-173
-173
-174
-174
-174
-174
-174
-174
-174
-174
-174
-174
-174
-174
-174
-173
-173
-173
-173
-173
-173
-173
-173
-173
-172
-172
-172
-172
-172
-172
-172
-172
-172
-172
-172
-172
-172
-171
-171
-171
-171
-171
-171
-171
-171
-171
-171
-171
-171
-171
-171
-172
-172
-172
-172
-172
-172
-172
-172
-171
-171
-171
-171
-171
-171
-171
-171
-171
-171
-170
-170
-170
-170
-170
-170
-170
-170
-170
-171
-171
-171
-171
-171
-171
-171
-171
-171
-171
-171
-171
-171
-171
-171
-171
-171
-171
-171
-171
-171
-171
-171
-171
-171
-171
-171
-171
-171
-171
-171
-171
-170
-170
-170
-171
-171
-171
-171
-171
-171
-171
-171
-171
-171
-171
-170
-170
-170
-170
-170
-170
-170
-170
-170
-170
-170
-170
-170
-170
-170
-170
-170
-170
-170
-170
-170
-171
-171
-171
-171
-172
-172
-172
-172
-172
-173
-173
-173
-173
-173
-173
-173
-173
-174
-173
-173
-173
-173
-173
-173
-173
-173
-173
-172
-172
-172
-172
-172
-172
-172
-172
-172
-172
-172
-172
-172
-172
-172
-172
-172
-172
-172
-172
-172
-172
-172
-172
-172
-172
-172
-172
-172
-172
-172
-172
-172
-172
-172
-172
-172
-171
-171
-171
-171
-171
-171
-171
-170
-170
-170
-170
-169
-169
-169
-168
-168
-167
-167
-166
-166
-165
-164
-164
-163
-163
-162
-162
-161
-161
-160
-160
-159
-159
-158
-158
-157
-157
-156
-156
-155
-155
-155
-154
-154
-154
-154
-154
-154
-154
-154
-154
-154
-154
-154
-154
-154
-154
-154
-154
-154
-154
-154
-154
-154
-154
-154
-154
-153
-153
-153
-153
-152
-152
-152
-152
-152
-152
-152
-152
-152
-152
-152
-153
-153
-153
-153
-153
-154
-154
-154
-155
-155
-155
-155
-156
-156
-156
-157
-157
-158
-158
-158
-159
-159
-160
-160
-161
-161
-162
-162
-163
-164
-165
-165
-166
-167
-168
-168
-169
-170
-170
-171
-172
-172
-173
-174
-174
-175
-175
-175
-176
-176
-176
-176
-176
-176
-177
-177
-177
-177
-177
-177
-177
-177
-177
-178
-178
-178
-178
-178
-178
-178
-179
-179
-179
-179
-179
-179
-179
-180
-180
-180
-180
-180
-180
-180
-180
-180
-180
-180
-180
-180
-180
-180
-180
-180
-180
-180
-180
-180
-180
-180
-180
-180
-180
-180
-180
-180
-181
-181
-181
-181
-182
-183
-183
-184
-185
-187
-188
-189
-191
-193
-194
-196
-198
-200
-201
-203
-204
-205
-205
-205
-204
-202
-200
-197
-193
-188
-182
-175
-167
-158
-147
-136
-124
-110
-96
-81
-66
-50
-34
-17
-1
14
30
46
61
76
89
102
114
123
132
138
143
145
146
145
142
138
131
123
114
103
91
78
64
49
33
17
1
-14
-31
-46
-61
-75
-89
-101
-113
-123
-133
-141
-149
-155
-160
-165
-169
-172
-174
-175
-176
-177
-177
-177
-177
-176
-176
-175
-175
-174
-173
-173
-173
-172
-172
-172
-172
-173
-173
-173
-173
-174
-174
-175
-175
-175
-176
-176
-176
-176
-177
-177
-177
-177
-177
-177
-177
-177
-177
-177
-177
-177
-177
-177
-177
-177
-177
-177
-177
-177
-177
-177
-177
-177
-177
-177
-177
-177
-177
-177
-177
-177
-177
-177
-177
-177
-177
-176
-176
-176
-176
-176
-176
-175
-175
-175
-175
-175
-175
-175
-174
-174
-174
-174
-174
-174
-174
-174
-174
-174
-173
-173
-173
-173
-173
-173
-172
-172
-172
-172
-171
-171
-171
-171
-171
-170
-170
-170
-170
-170
-170
-170
-170
-169
-169
-169
-169
-169
-169
-169
-169
-168
-168
-168
-168
-168
-168
-168
-167
-167
-167
-167
-167
-166
-166
-166
-166
-165
-165
-165
-165
-165
-164
-164
-164
-164
-164
-163
-163
-163
-163
-163
-162
-162
-162
-161
-161
-161
-160
-160
-159
-159
-158
-158
-157
-157
-156
-155
-155
-154
-153
-153
-152
-152
-151
-150
-150
-149
-148
-148
-147
-146
-146
-145
-145
-144
-143
-143
-142
-142
-141
-140
-139
-139
-138
-137
-136
-135
-134
-133
-131
-130
-129
-128
-127
-126
-124
-123
-122
-120
-119
-118
-117
-115
-114
-113
-111
-110
-109
-107
-106
-105
-104
-102
-101
-100
-98
-97
-96
-95
-94
-92
-91
-90
-89
-88
-87
-85
-84
-83
-82
-81
-79
-78
-77
-76
-75
-74
-73
-72
-71
-70
-69
-68
-67
-66
-66
-65
-64
-63
-63
-62
-62
-61
-60
-60
-59
-59
-59
-58
-58
-58
-57
-57
-57
-57
-57
-58
-58
-58
-59
-60
-60
-61
-62
-63
-65
-66
-67
-69
-70
-72
-74
-76
-78
-80
-82
-84
-86
-88
-90
-92
-94
-97
-99
-101
-103
-105
-107
-109
-111
-113
-115
-117
-119
-121
-123
-125
-126
-128
-130
-131
-133
-134
-136
-137
-138
-140
-141
-142
-143
-144
-145
-147
-148
-149
-149
-150
-151
-152
-153
-153
-154
-155
-156
-156
-157
-158
-158
-159
-159
-160
-160
-161
-161
-162
-162
-163
-163
-164
-164
-164
-165
-165
-165
-166
-166
-166
-166
-167
-167
-167
-168
-168
-168
-168
-169
-169
-169
-169
-169
-169
-169
-169
-169
-169
-169
-169
-169
-169
-169
-169
-168
-168
-168
-168
-168
-168
-168
-168
-168
-168
-168
-168
-168
-168
-168
-168
-168
-168
-168
-168
-168
-168
-169
-169
-169
-169
-169
-170
-170
-170
-170
-170
-170
-170
-170
-170
-170
-170
-170
-170
-170
-169
-169
-169
-169
-169
-169
-169
-169
-169
-169
-169
-169
-169
-169
-169
-169
-169
-169
-169
-169
-169
-169
-169
-169
-169
-169
-169
-169
-169
-169
-169
-169
-168
-168
-168
-168
-168
-168
-168
-168
-167
-167
-167
-167
-167
-167
-167
-167
-167
-167
-167
-167
-167
-167
-167
-167
-168
-168
-168
-168
-168
-168
-168
-168
-168
-168
-168
-168
-167
-167
-167
-167
-167
-166
-166
-166
-166
-166
-166
-166
-165
-165
-165
-165
-165
-165
-165
-165
-165
-165
-165
-165
-166
-166
-166
-166
-166
-166
-166
-166
-166
-166
-167
-167
-167
-167
-167
-167
-167
-167
-168
-168
-168
-168
-168
-168
-168
-168
-168
-168
-168
-168
-168
-168
-168
-168
-168
-168
-168
-168
-168
-168
-168
-168
-168
-168
-168
-168
-168
-168
-168
-168
-168
-168
-168
-168
-168
-168
-168
-168
-168
-167
-167
-167
-167
-167
-167
-167
-167
-167
-167
-167
-167
-167
-168
-168
-168
-168
-168
-168
-168
-168
-168
-169
-169
-169
-169
-169
-169
-169
-169
-169
-169
-169
-169
-169
-169
-169
-169
-169
-169
-169
-169
-169
-169
-169
-169
-169
-169
-169
-169
-169
-168
-168
-168
-168
-168
-168
-168
-167
-167
-167
-167
-167
-166
-166
-166
-166
-165
-165
-165
-165
-164
-164
-163
-163
-162
-162
-161
-161
-160
-160
-159
-158
-158
-157
-156
-156
-155
-155
-154
-153
-153
-152
-152
-152
-152
-152
-151
-151
-152
-152
-152
-152
-152
-152
-152
-153
-153
-153
-153
-153
-153
-153
-153
-153
-152
-152
-152
-152
-151
-151
-150
-150
-150
-149
-149
-149
-149
-149
-149
-148
-148
-149
-149
-149
-149
-150
-150
-150
-151
-151
-151
-151
-152
-152
-152
-152
-152
-152
-153
-153
-153
-153
-153
-153
-154
-154
-154
-155
-155
-156
-156
-157
-157
-158
-159
-159
-160
-161
-162
-162
-163
-164
-165
-165
-166
-167
-167
-168
-168
-169
-169
-170
-170
-170
-171
-171
-171
-172
-172
-172
-172
-172
-172
-173
-173
-173
-173
-173
-174
-174
-174
-174
-174
-174
-175
-175
-175
-175
-175
-176
-176
-176
-176
-176
-176
-176
-177
-177
-177
-177
-177
-177
-176
-176
-176
-177
-177
-177
-177
-177
-177
-177
-177
-176
-176
-176
-176
-176
-176
-176
-176
-176
-177
-177
-177
-178
-178
-179
-179
-180
-181
-183
-184
-186
-187
-189
-191
-193
-195
-197
-199
-201
-202
-203
-204
-205
-204
-204
-202
-200
-197
-193
-188
-182
-175
-167
-158
-147
-136
-124
-110
-96
-81
-66
-50
-34
-17
-1
15
31
47
62
77
91
104
116
126
135
141
146
149
151
150
147
143
137
130
121
110
99
86
72
58
42
27
10
-5
-21
-36
-51
-65
-78
-90
-102
-113
-122
-131
-139
-145
-151
-156
-160
-163
-166
-168
-169
-170
-171
-171
-171
-171
-171
-170
-170
-170
-169
-169
-169
-168
-168
-168
-168
-169
-169
-169
-169
-170
-170
-170
-170
-171
-171
-171
-171
-172
-172
-172
-172
-172
-172
-173
-173
-172
-172
-172
-172
-172
-172
-172
-172
-172
-172
-172
-171
-171
-171
-171
-171
-171
-170
-170
-170
-170
-169
-169
-169
-168
-168
-168
-168
-168
-168
-167
-167
-167
-167
-167
-167
-167
-167
-167
-167
-168
-168
-168
-168
-168
-168
-168
-168
-167
-167
-167
-167
-167
-167
-167
-166
-166
-166
-166
-166
-166
-165
-165
-165
-165
-165
-164
-164
-164
-163
-163
-163
-163
-162
-162
-162
-162
-161
-161
-161
-161
-160
-160
-160
-160
-160
-160
-159
-159
-159
-159
-159
-159
-158
-158
-158
-157
-157
-157
-157
-156
-156
-156
-155
-155
-155
-155
-154
-154
-154
-153
-153
-153
-153
-152
-152
-152
-152
-151
-151
-151
-151
-150
-150
-150
-149
-149
-148
-148
-147
-147
-147
-146
-146
-145
-145
-144
-143
-143
-142
-142
-141
-140
-140
-139
-138
-137
-137
-136
-135
-134
-133
-132
-131
-130
-129
-128
-127
-126
-125
-124
-123
-122
-121
-120
-119
-117
-116
-115
-114
-113
-112
-111
-109
-108
-107
-106
-105
-103
-102
-101
-99
-98
-97
-96
-95
-93
-92
-91
-89
-88
-87
-86
-84
-83
-82
-81
-80
-79
-78
-77
-76
-74
-73
-72
-71
-70
-69
-68
-67
-66
-65
-64
-63
-61
-60
-59
-58
-57
-56
-55
-54
-53
-52
-51
-50
-49
-48
-48
-47
-47
-46
-46
-45
-45
-45
-45
-45
-45
-46
-46
-46
-47
-47
-48
-49
-50
-51
-52
-54
-55
-56
-58
-59
-61
-63
-64
-66
-67
-69
-71
-73
-75
-77
-79
-81
-83
-85
-87
-89
-91
-93
-95
-97
-99
-102
-104
-106
-108
-110
-111
-113
-115
-117
-118
-120
-122
-123
-125
-127
-128
-129
-131
-132
-134
-135
-136
-137
-138
-139
-140
-141
-141
-142
-143
-144
-144
-145
-146
-146
-147
-147
-148
-148
-149
-149
-149
-150
-150
-151
-151
-152
-152
-152
-153
-153
-153
-153
-153
-154
-154
-154
-154
-154
-154
-155
-155
-155
-155
-155
-155
-155
-155
-155
-156
-156
-156
-156
-156
-156
-156
-157
-157
-157
-157
-157
-157
-157
-157
-158
-158
-158
-158
-158
-158
-158
-158
-158
-158
-158
-158
-158
-158
-158
-158
-158
-158
-158
-159
-159
-159
-159
-159
-159
-159
-159
-159
-159
-159
-159
-159
-159
-159
-159
-159
-159
-159
-159
-159
-159
-158
-158
-158
-158
-158
-158
-158
-158
-158
-158
-157
-157
-157
-157
-157
-157
-157
-157
-157
-157
-157
-157
-157
-157
-156
-156
-156
-156
-156
-156
-156
-156
-156
-156
-156
-156
-156
-156
-156
-156
-156
-155
-155
-155
-155
-155
-154
-154
-154
-154
-154
-154
-153
-153
-153
-153
-153
-153
-153
-153
-153
-153
-153
-153
-153
-153
-153
-153
-153
-153
-153
-153
-153
-153
-153
-153
-153
-153
-153
-153
-153
-153
-153
-152
-152
-152
-152
-152
-152
-152
-152
-152
-152
-152
-152
-152
-152
-152
-152
-152
-153
-153
-153
-153
-153
-153
-153
-153
-153
-153
-153
-153
-154
-154
-154
-154
-154
-154
-154
-154
-154
-154
-154
-154
-154
-154
-154
-154
-154
-154
-154
-155
-155
-155
-155
-155
-155
-156
-156
-156
-156
-156
-156
-156
-156
-156
-156
-156
-156
-156
-156
-156
-156
-156
-156
-156
-156
-156
-156
-156
-156
-156
-156
-156
-156
-156
-157
-157
-157
-157
-157
-157
-157
-157
-157
-157
-157
-157
-157
-157
-157
-157
-157
-157
-157
-156
-156
-156
-156
-156
-156
-156
-156
-156
-156
-156
-156
-156
-156
-156
-156
-156
-156
-156
-156
-156
-155
-155
-155
-155
-155
-155
-155
-155
-155
-155
-155
-155
-155
-156
-156
-156
-155
-155
-155
-155
-155
-155
-155
-155
-155
-155
-155
-155
-155
-155
-154
-154
-154
-153
-153
-152
-152
-151
-151
-150
-149
-149
-148
-147
-146
-146
-145
-144
-143
-143
-142
-141
-141
-140
-139
-139
-139
-138
-138
-138
-137
-137
-137
-137
-137
-138
-138
-138
-138
-138
-138
-138
-139
-139
-139
-139
-139
-139
-139
-139
-140
-140
-140
-140
-139
-139
-139
-139
-139
-139
-139
-139
-139
-139
-139
-139
-139
-139
-139
-139
-139
-139
-139
-139
-139
-139
-139
-139
-140
-140
-140
-140
-140
-140
-140
-140
-140
-140
-141
-141
-142
-142
-142
-143
-143
-144
-144
-145
-146
-147
-148
-149
-149
-150
-151
-152
-153
-154
-155
-155
-156
-156
-157
-158
-158
-159
-159
-160
-160
-160
-161
-161
-161
-161
-162
-162
-162
-162
-163
-163
-163
-163
-164
-164
-164
-164
-165
-165
-165
-165
-166
-166
-166
-166
-166
-167
-167
-167
-167
-167
-167
-167
-167
-167
-167
-167
-167
-167
-167
-167
-167
-167
-167
-167
-167
-167
-167
-167
-167
-167
-167
-167
-167
-167
-167
-167
-167
-167
-167
-168
-168
-168
-169
-170
-170
-171
-172
-173
-175
-176
-178
-180
-181
-183
-185
-187
-188
-189
-190
-190
-190
-189
-188
-186
-183
-180
-175
-169
-162
-154
-145
-135
-124
-111
-98
-84
-69
-53
-37
-21
-4
11
28
44
60
76
91
105
118
129
140
148
155
160
163
164
163
160
156
149
141
132
121
109
96
82
67
51
34
18
1
-14
-29
-45
-59
-72
-85
-97
-108
-117
-126
-133
-140
-146
-150
-154
-157
-159
-161
-162
-163
-163
-163
-163
-162
-162
-161
-160
-160
-159
-159
-158
-158
-158
-158
-158
-158
-158
-158
-158
-159
-159
-159
-159
-160
-160
-160
-161
-161
-161
-161
-162
-162
-162
-162
-162
-162
-162
-163
-163
-163
-163
-163
-163
-163
-163
-162
-162
-162
-162
-162
-162
-162
-161
-161
-161
-161
-161
-160
-160
-160
-160
-160
-159
-159
-159
-159
-159
-159
-159
-159
-159
-159
-159
-159
-159
-158
-158
-158
-158
-158
-158
-158
-158
-158
-158
-157
-157
-157
-157
-156
-156
-156
-156
-156
-155
-155
-155
-155
-155
-155
-155
-155
-154
-154
-154
-154
-154
-154
-154
-154
-154
-153
-153
-153
-153
-153
-153
-152
-152
-152
-152
-151
-151
-151
-151
-150
-150
-150
-150
-149
-149
-149
-149
-149
-149
-148
-148
-148
-148
-148
-148
-148
-147
-147
-147
-147
-146
-146
-146
-146
-145
-145
-144
-144
-144
-143
-143
-142
-142
-141
-141
-141
-140
-140
-139
-138
-138
-138
-137
-137
-136
-136
-135
-135
-134
-134
-133
-133
-132
-131
-131
-130
-129
-129
-128
-127
-126
-126
-125
-124
-123
-122
-122
-121
-120
-119
-118
-117
-115
-114
-113
-112
-111
-110
-108
-107
-106
-105
-103
-102
-101
-100
-98
-97
-96
-94
-93
-92
-91
-89
-88
-87
-86
-84
-83
-82
-80
-79
-78
-76
-75
-74
-73
-72
-70
-69
-68
-67
-66
-64
-63
-62
-61
-60
-59
-58
-57
-55
-54
-53
-52
-51
-50
-49
-48
-47
-46
-45
-44
-43
-42
-41
-41
-40
-39
-39
-38
-38
-37
-37
-37
-37
-37
-37
-38
-38
-38
-39
-39
-40
-41
-42
-43
-44
-45
-46
-48
-49
-50
-52
-53
-55
-57
-58
-60
-62
-64
-66
-68
-70
-72
-74
-76
-78
-80
-82
-84
-86
-88
-90
-93
-95
-97
-99
-101
-103
-105
-107
-109
-110
-112
-114
-116
-117
-119
-121
-122
-124
-125
-126
-127
-128
-129
-130
-131
-132
-133
-134
-135
-136
-137
-137
-138
-138
-139
-140
-140
-141
-141
-142
-143
-143
-143
-144
-144
-145
-145
-145
-146
-146
-146
-147
-147
-147
-148
-148
-148
-148
-149
-149
-149
-150
-150
-150
-150
-150
-150
-151
-151
-151
-151
-151
-151
-151
-151
-151
-151
-151
-151
-151
-151
-151
-151
-151
-151
-152
-152
-152
-152
-152
-152
-152
-152
-152
-153
-153
-153
-153
-152
-152
-152
-152
-152
-152
-152
-152
-152
-152
-152
-152
-152
-152
-152
-152
-152
-152
-152
-152
-152
-153
-153
-153
-153
-153
-153
-154
-154
-154
-154
-154
-154
-154
-154
-154
-154
-154
-154
-153
-153
-153
-153
-153
-153
-153
-153
-152
-152
-152
-152
-152
-152
-152
-152
-152
-152
-152
-152
-152
-152
-152
-152
-152
-152
-152
-152
-152
-152
-152
-152
-152
-151
-151
-151
-151
-151
-151
-150
-150
-150
-150
-150
-150
-150
-150
-150
-150
-150
-150
-150
-150
-150
-150
-150
-150
-150
-150
-150
-150
-150
-150
-150
-150
-150
-150
-150
-150
-150
-150
-150
-150
-150
-150
-150
-150
-150
-150
-150
-150
-150
-150
-151
-151
-151
-151
-151
-151
-151
-151
-151
-151
-151
-151
-151
-151
-151
-151
-151
-151
-151
-151
-151
-151
-151
-151
-151
-151
-151
-151
-151
-151
-151
-151
-151
-151
-151
-151
-151
-151
-151
-151
-151
-151
-151
-151
-151
-151
-151
-151
-151
-151
-151
-151
-151
-151
-151
-151
-151
-151
-151
-151
-151
-151
-151
-151
-151
-151
-151
-152
-152
-152
-152
-152
-152
-152
-152
-152
-152
-152
-152
-152
-152
-152
-152
-152
-152
-152
-152
-152
-152
-152
-152
-152
-152
-152
-152
-152
-152
-152
-152
-152
-152
-152
-152
-152
-152
-152
-152
-152
-152
-152
-152
-152
-152
-152
-152
-152
-152
-152
-152
-152
-152
-152
-152
-152
-152
-152
-152
-152
-153
-153
-153
-153
-153
-153
-153
-153
-153
-153
-152
-152
-152
-152
-152
-151
-151
-151
-150
-150
-149
-148
-148
-147
-147
-146
-145
-145
-144
-143
-143
-142
-142
-141
-140
-140
-139
-138
-138
-137
-137
-136
-136
-135
-135
-135
-135
-135
-135
-135
-135
-136
-136
-136
-136
-137
-137
-137
-138
-138
-138
-138
-138
-138
-138
-138
-138
-138
-138
-137
-137
-136
-136
-136
-136
-136
-135
-135
-135
-135
-135
-135
-135
-136
-136
-136
-137
-137
-137
-138
-138
-138
-139
-139
-139
-139
-139
-140
-140
-140
-140
-140
-140
-141
-141
-141
-142
-142
-142
-143
-143
-144
-144
-145
-146
-146
-147
-147
-148
-148
-149
-149
-150
-151
-151
-151
-152
-152
-153
-153
-154
-154
-154
-155
-155
-156
-156
-157
-157
-158
-158
-158
-159
-159
-159
-160
-160
-160
-161
-161
-161
-161
-161
-162
-162
-162
-162
-162
-162
-162
-162
-162
-162
-162
-162
-162
-162
-162
-162
-161
-161
-161
-161
-161
-161
-161
-161
-161
-161
-160
-160
-160
-161
-161
-161
-161
-161
-161
-162
-162
-162
-162
-162
-163
-163
-163
-164
-165
-165
-166
-167
-168
-170
-171
-173
-174
-176
-178
-180
-181
-183
-184
-185
-185
-185
-185
-184
-182
-179
-176
-171
-166
-159
-152
-143
-134
-123
-111
-98
-84
-69
-54
-38
-22
-6
10
26
43
59
75
90
104
117
130
140
150
157
163
167
169
169
167
163
157
150
142
131
120
107
93
78
62
46
30
13
-2
-18
-34
-48
-62
-75
-87
-98
-108
-117
-125
-132
-138
-142
-146
-149
-152
-153
-155
-155
-156
-156
-156
-156
-155
-155
-154
-154
-154
-153
-153
-153
-153
-153
-153
-153
-154
-154
-154
-155
-155
-155
-156
-156
-156
-157
-157
-157
-157
-157
-158
-158
-158
-158
-158
-158
-158
-158
-158
-158
-158
-158
-158
-158
-158
-158
-158
-158
-158
-158
-158
-158
-158
-158
-158
-158
-158
-158
-157
-157
-157
-157
-157
-156
-156
-156
-156
-156
-156
-155
-155
-155
-155
-155
-155
-155
-155
-154
-154
-154
-154
-154
-154
-153
-153
-153
-153
-153
-153
-153
-152
-152
-152
-152
-152
-152
-151
-151
-151
-151
-151
-151
-150
-150
-150
-150
-149
-149
-149
-149
-148
-148
-148
-148
-148
-147
-147
-147
-147
-147
-147
-147
-146
-146
-146
-146
-146
-146
-145
-145
-145
-145
-144
-144
-144
-143
-143
-143
-142
-142
-142
-141
-141
-141
-140
-140
-139
-139
-139
-138
-138
-138
-137
-137
-136
-136
-136
-135
-135
-134
-134
-134
-133
-133
-132
-132
-131
-131
-130
-129
-129
-128
-128
-127
-126
-126
-125
-124
-124
-123
-122
-122
-121
-121
-120
-119
-119
-118
-117
-116
-116
-115
-114
-113
-113
-112
-111
-110
-109
-108
-107
-106
-105
-104
-102
-101
-100
-99
-98
-96
-95
-94
-92
-91
-90
-88
-87
-85
-84
-82
-81
-79
-78
-77
-75
-74
-72
-71
-70
-68
-67
-66
-64
-63
-62
-61
-60
-58
-57
-56
-55
-54
-53
-52
-51
-50
-49
-48
-47
-45
-44
-43
-42
-41
-40
-39
-38
-37
-36
-35
-34
-33
-33
-32
-31
-31
-30
-30
-29
-29
-29
-28
-28
-28
-28
-29
-29
-29
-30
-30
-31
-31
-32
-33
-34
-35
-37
-38
-39
-40
-42
-43
-45
-47
-48
-50
-52
-54
-56
-58
-59
-61
-63
-65
-67
-69
-71
-74
-76
-78
-80
-82
-84
-86
-88
-90
-92
-94
-96
-98
-99
-101
-103
-105
-106
-108
-110
-111
-113
-114
-116
-117
-118
-119
-121
-122
-123
-124
-125
-126
-127
-128
-129
-129
-130
-131
-131
-132
-132
-133
-134
-134
-135
-135
-135
-136
-136
-136
-137
-137
-137
-138
-138
-138
-138
-139
-139
-139
-139
-139
-139
-140
-140
-140
-140
-140
-140
-141
-141
-141
-141
-141
-141
-142
-142
-142
-142
-142
-142
-142
-143
-143
-143
-143
-143
-144
-144
-144
-144
-144
-144
-145
-145
-145
-145
-145
-145
-145
-145
-145
-145
-145
-145
-145
-145
-145
-145
-145
-145
-145
-145
-145
-145
-146
-146
-146
-146
-146
-146
-146
-146
-146
-146
-146
-146
-146
-147
-147
-147
-147
-146
-146
-146
-146
-146
-146
-146
-146
-146
-146
-146
-146
-146
-146
-146
-146
-146
-146
-146
-146
-146
-146
-146
-146
-146
-146
-146
-146
-146
-146
-146
-146
-146
-146
-146
-146
-146
-147
-147
-147
-147
-147
-147
-147
-147
-147
-147
-147
-147
-147
-147
-147
-147
-147
-147
-147
-147
-147
-147
-146
-146
-146
-146
-146
-146
-146
-146
-146
-146
-146
-146
-146
-145
-145
-145
-145
-145
-145
-145
-145
-145
-145
-145
-145
-145
-146
-146
-145
-145
-145
-145
-146
-146
-146
-146
-146
-146
-146
-146
-146
-146
-146
-146
-146
-146
-146
-146
-146
-146
-146
-146
-145
-145
-145
-145
-145
-145
-145
-145
-145
-145
-145
-145
-146
-146
-146
-146
-146
-147
-147
-147
-147
-147
-148
-148
-148
-148
-148
-148
-148
-148
-148
-148
-148
-147
-147
-147
-147
-147
-147
-146
-146
-146
-146
-146
-146
-146
-146
-146
-146
-146
-146
-146
-146
-147
-147
-147
-147
-147
-147
-147
-147
-147
-147
-147
-147
-147
