# Simple Text Format
# Sampling Rate (Hz):= 1200.00
# Resolution:= 12
# Labels:= ECG	 I 
# Age:=	62
# Gender:=	Feminino
27
35
42
50
57
64
71
78
85
91
96
101
105
108
110
110
111
109
108
105
101
96
91
83
77
68
61
52
43
35
25
17
8
0
-9
-17
-24
-30
-36
-41
-46
-50
-53
-56
-58
-59
-61
-61
-61
-62
-61
-60
-60
-58
-57
-56
-55
-54
-53
-52
-51
-50
-50
-49
-48
-48
-46
-46
-46
-46
-46
-45
-45
-45
-45
-44
-43
-44
-43
-43
-42
-43
-42
-42
-42
-42
-41
-41
-41
-41
-41
-41
-42
-42
-42
-42
-42
-42
-42
-41
-41
-41
-41
-41
-41
-40
-40
-40
-40
-40
-40
-39
-39
-39
-38
-38
-38
-38
-38
-37
-37
-37
-37
-37
-37
-37
-37
-37
-38
-38
-38
-38
-38
-37
-37
-37
-37
-37
-37
-37
-37
-37
-37
-37
-37
-37
-36
-35
-35
-35
-35
-34
-34
-34
-34
-34
-34
-33
-33
-33
-33
-33
-32
-33
-33
-33
-33
-33
-33
-33
-33
-34
-34
-34
-34
-33
-33
-33
-33
-33
-33
-33
-33
-32
-31
-31
-31
-30
-30
-29
-29
-29
-28
-28
-28
-27
-27
-27
-27
-27
-26
-26
-26
-26
-25
-26
-26
-25
-25
-24
-24
-24
-23
-22
-22
-21
-21
-21
-19
-19
-19
-17
-17
-16
-16
-15
-15
-14
-14
-14
-14
-13
-13
-13
-13
-13
-13
-13
-12
-12
-12
-11
-11
-10
-9
-10
-9
-8
-7
-6
-5
-5
-4
-3
-2
-1
0
1
2
4
5
6
6
7
8
8
9
9
10
11
11
11
12
11
11
13
13
13
15
15
16
16
16
18
18
18
20
21
21
22
24
25
25
26
26
26
27
27
28
28
29
29
30
30
31
30
30
31
31
31
32
33
32
33
34
35
34
35
35
35
35
36
36
35
35
35
34
34
34
33
32
31
31
29
29
28
27
26
25
24
24
22
22
22
21
20
19
18
17
16
15
14
13
11
10
9
7
5
4
2
0
-1
-2
-3
-6
-7
-9
-9
-11
-12
-14
-14
-16
-17
-17
-19
-19
-19
-21
-21
-22
-23
-24
-24
-25
-25
-26
-27
-28
-28
-29
-30
-30
-31
-32
-31
-32
-32
-33
-34
-34
-34
-34
-34
-35
-34
-35
-35
-34
-35
-35
-36
-36
-37
-37
-37
-38
-38
-38
-38
-39
-39
-39
-39
-39
-39
-40
-40
-40
-40
-39
-39
-39
-39
-39
-38
-38
-38
-38
-38
-38
-38
-38
-37
-37
-37
-37
-38
-39
-40
-40
-40
-40
-40
-40
-40
-41
-41
-41
-42
-42
-42
-42
-41
-41
-40
-40
-40
-39
-39
-39
-39
-39
-39
-39
-39
-38
-38
-38
-38
-38
-38
-39
-39
-40
-40
-40
-40
-41
-41
-41
-41
-40
-40
-41
-41
-41
-41
-41
-41
-41
-41
-41
-41
-41
-41
-40
-40
-40
-40
-39
-39
-39
-39
-39
-39
-39
-39
-39
-39
-39
-39
-39
-39
-37
-37
-37
-37
-37
-37
-37
-37
-37
-36
-36
-37
-37
-37
-37
-37
-37
-37
-38
-38
-38
-38
-38
-38
-38
-37
-38
-38
-38
-38
-38
-38
-37
-37
-37
-37
-37
-37
-37
-37
-37
-37
-36
-36
-36
-36
-36
-36
-35
-35
-35
-35
-35
-36
-36
-37
-37
-36
-36
-36
-36
-37
-37
-37
-36
-36
-37
-37
-37
-37
-36
-36
-36
-36
-36
-35
-35
-35
-35
-35
-35
-35
-35
-35
-35
-35
-35
-35
-35
-34
-34
-35
-35
-35
-35
-35
-35
-35
-35
-36
-36
-36
-37
-37
-37
-37
-37
-36
-36
-36
-36
-37
-37
-37
-37
-36
-36
-36
-36
-36
-35
-35
-34
-34
-34
-33
-33
-33
-34
-33
-33
-33
-33
-33
-34
-34
-34
-35
-35
-35
-35
-35
-36
-36
-36
-36
-37
-37
-37
-38
-38
-38
-38
-38
-38
-38
-37
-37
-38
-38
-37
-37
-36
-36
-34
-33
-32
-33
-32
-31
-31
-29
-28
-27
-26
-27
-26
-25
-25
-25
-25
-24
-24
-23
-24
-24
-24
-23
-23
-23
-23
-23
-23
-23
-23
-23
-23
-22
-22
-22
-22
-22
-22
-22
-22
-22
-23
-22
-22
-22
-22
-23
-23
-22
-22
-22
-22
-22
-22
-22
-23
-23
-22
-22
-22
-22
-23
-22
-22
-22
-22
-22
-23
-23
-23
-23
-23
-23
-23
-24
-24
-24
-25
-25
-26
-26
-26
-26
-27
-27
-29
-30
-30
-31
-32
-32
-33
-34
-35
-35
-36
-36
-37
-37
-38
-37
-38
-38
-39
-38
-39
-38
-38
-38
-38
-39
-38
-38
-38
-38
-38
-38
-37
-38
-37
-37
-36
-37
-37
-37
-37
-37
-37
-37
-37
-37
-37
-37
-38
-38
-38
-38
-38
-38
-38
-38
-38
-38
-39
-39
-39
-39
-38
-38
-39
-39
-39
-39
-39
-40
-40
-40
-40
-40
-40
-40
-40
-40
-40
-41
-41
-41
-41
-40
-40
-40
-39
-39
-40
-39
-39
-38
-38
-39
-39
-39
-40
-39
-40
-39
-40
-40
-40
-41
-40
-40
-40
-40
-38
-38
-36
-34
-31
-28
-24
-22
-17
-13
-7
-1
5
12
19
27
34
42
50
57
65
71
80
87
95
101
107
111
115
119
121
124
124
125
124
123
120
115
111
104
97
90
82
75
66
57
49
40
31
21
14
6
-1
-8
-15
-20
-26
-30
-34
-38
-41
-43
-44
-46
-46
-47
-46
-47
-46
-45
-45
-44
-43
-42
-41
-41
-40
-38
-38
-37
-37
-36
-35
-35
-35
-34
-34
-34
-33
-33
-32
-31
-32
-31
-32
-31
-31
-32
-32
-31
-32
-32
-32
-31
-31
-32
-32
-32
-32
-32
-32
-32
-32
-31
-31
-30
-30
-30
-30
-30
-30
-30
-30
-28
-28
-28
-27
-27
-27
-26
-25
-25
-25
-25
-23
-23
-23
-23
-23
-23
-23
-23
-24
-24
-23
-24
-24
-25
-25
-25
-26
-26
-27
-27
-27
-27
-26
-27
-27
-27
-26
-25
-25
-25
-24
-23
-23
-23
-21
-21
-21
-21
-20
-20
-20
-20
-18
-18
-18
-18
-18
-19
-18
-19
-19
-19
-19
-17
-18
-18
-18
-18
-17
-17
-17
-18
-17
-17
-17
-17
-16
-15
-15
-15
-14
-14
-14
-13
-13
-12
-12
-11
-11
-11
-11
-10
-11
-11
-11
-10
-10
-11
-11
-10
-10
-10
-9
-10
-9
-9
-9
-9
-9
-8
-7
-6
-6
-5
-4
-4
-3
-3
-2
-2
-1
-1
0
1
1
2
3
2
3
4
3
4
5
6
5
6
6
7
8
8
8
9
9
10
11
12
13
14
15
15
16
17
19
19
20
21
21
23
24
24
25
25
26
27
28
28
29
30
31
31
32
33
33
34
36
36
37
38
39
39
40
40
40
41
42
42
42
42
42
42
43
43
43
43
43
44
44
45
45
46
46
47
47
47
47
48
48
49
49
49
49
50
50
50
50
51
50
50
50
50
50
50
49
49
48
48
47
47
46
45
44
44
43
42
41
39
39
37
35
34
33
32
30
29
28
27
25
23
22
21
19
18
16
15
14
13
12
10
9
8
7
5
4
4
2
0
-1
-2
-3
-4
-4
-5
-5
-6
-7
-8
-8
-8
-9
-11
-11
-12
-13
-14
-14
-15
-16
-16
-17
-16
-17
-18
-19
-20
-21
-21
-21
-22
-21
-21
-21
-21
-22
-21
-21
-21
-20
-21
-21
-21
-21
-21
-21
-21
-21
-22
-22
-22
-23
-22
-22
-22
-23
-23
-23
-23
-23
-24
-25
-25
-25
-25
-25
-24
-24
-24
-23
-23
-24
-24
-24
-24
-23
-23
-23
-23
-22
-22
-22
-21
-21
-21
-21
-20
-20
-21
-21
-21
-22
-23
-23
-23
-23
-23
-23
-23
-23
-23
-23
-23
-23
-24
-24
-24
-23
-23
-23
-23
-23
-23
-24
-24
-24
-24
-24
-24
-25
-25
-25
-25
-25
-26
-26
-26
-26
-26
-26
-25
-25
-25
-24
-24
-22
-22
-22
-22
-21
-21
-21
-21
-21
-21
-21
-21
-20
-20
-20
-21
-21
-22
-22
-23
-23
-24
-24
-24
-24
-24
-24
-24
-24
-24
-24
-24
-24
-23
-23
-23
-22
-22
-22
-21
-21
-21
-21
-19
-19
-19
-19
-18
-18
-18
-18
-19
-19
-19
-20
-20
-20
-20
-20
-20
-20
-20
-20
-20
-21
-21
-21
-22
-21
-21
-21
-21
-20
-20
-21
-21
-21
-21
-20
-20
-20
-20
-20
-20
-20
-20
-20
-20
-19
-19
-19
-19
-20
-20
-20
-21
-21
-21
-21
-21
-22
-22
-22
-22
-23
-22
-22
-22
-22
-22
-22
-22
-21
-21
-21
-20
-20
-20
-20
-20
-20
-20
-20
-20
-20
-20
-20
-20
-20
-20
-21
-21
-22
-22
-22
-22
-23
-23
-23
-23
-22
-22
-22
-22
-22
-23
-23
-22
-22
-21
-21
-21
-21
-21
-21
-20
-20
-20
-20
-19
-19
-19
-19
-18
-18
-17
-17
-17
-17
-17
-17
-16
-16
-16
-16
-16
-16
-17
-16
-16
-16
-15
-16
-15
-16
-15
-16
-15
-15
-16
-15
-15
-15
-15
-14
-14
-14
-13
-13
-12
-12
-12
-12
-11
-11
-10
-10
-10
-9
-9
-8
-7
-7
-6
-6
-6
-5
-5
-5
-5
-5
-5
-5
-5
-5
-6
-6
-6
-7
-6
-6
-7
-7
-8
-8
-8
-9
-9
-10
-11
-11
-11
-11
-11
-10
-10
-11
-11
-11
-11
-10
-10
-11
-11
-10
-11
-10
-11
-11
-12
-11
-12
-12
-13
-14
-15
-16
-16
-17
-18
-19
-20
-19
-20
-20
-20
-20
-21
-21
-21
-21
-21
-21
-21
-21
-21
-21
-21
-22
-21
-22
-22
-22
-23
-23
-23
-24
-25
-25
-27
-27
-27
-27
-27
-27
-27
-27
-27
-27
-27
-27
-27
-27
-26
-26
-25
-25
-25
-25
-25
-25
-25
-25
-24
-24
-24
-24
-24
-24
-24
-25
-26
-26
-26
-26
-26
-27
-27
-27
-27
-28
-28
-28
-28
-28
-28
-28
-28
-29
-29
-30
-30
-31
-31
-31
-31
-31
-31
-31
-31
-31
-32
-32
-31
-31
-31
-30
-30
-29
-27
-26
-24
-22
-20
-17
-14
-10
-7
-3
2
7
13
19
26
32
39
47
55
63
71
78
85
93
100
108
114
120
125
130
133
137
140
141
141
141
139
135
131
126
119
112
105
97
88
79
70
60
50
40
31
23
14
7
-1
-7
-13
-18
-24
-28
-32
-35
-36
-38
-39
-39
-40
-39
-38
-38
-37
-36
-35
-34
-33
-31
-30
-29
-28
-27
-27
-26
-26
-26
-24
-23
-23
-22
-22
-22
-22
-21
-22
-21
-21
-21
-20
-20
-20
-19
-20
-20
-20
-19
-20
-20
-20
-20
-20
-20
-21
-21
-21
-21
-21
-21
-22
-22
-22
-22
-21
-21
-21
-20
-20
-19
-19
-19
-19
-19
-19
-18
-17
-17
-17
-17
-17
-17
-17
-16
-16
-16
-17
-17
-17
-16
-16
-16
-16
-16
-16
-16
-15
-15
-15
-15
-15
-15
-14
-13
-13
-13
-13
-13
-13
-13
-13
-13
-11
-11
-12
-12
-12
-12
-12
-12
-11
-11
-11
-11
-12
-12
-11
-11
-12
-11
-11
-11
-11
-11
-11
-10
-10
-10
-10
-9
-9
-9
-8
-8
-8
-8
-6
-6
-6
-6
-5
-5
-5
-5
-4
-4
-4
-3
-4
-4
-3
-3
-4
-3
-3
-3
-2
-2
-2
-1
-1
-1
0
1
0
0
1
1
1
2
2
2
3
3
3
3
3
3
4
5
5
5
5
6
6
7
7
8
9
10
11
11
12
13
14
15
15
16
17
18
19
19
20
21
22
23
24
25
25
26
27
27
29
30
30
31
32
32
33
33
34
35
36
36
37
38
38
39
40
40
41
42
42
42
43
43
43
44
44
45
45
46
47
47
48
48
49
49
49
49
49
50
50
51
51
52
52
53
53
53
54
54
54
55
55
56
57
56
57
58
58
57
58
57
57
57
56
56
56
56
55
54
54
53
52
52
51
50
49
48
47
47
46
44
44
43
42
41
40
39
38
37
36
35
33
32
30
29
28
26
25
23
22
20
19
18
16
14
14
12
11
9
9
7
6
5
3
2
0
0
-2
-2
-4
-4
-5
-7
-7
-8
-8
-10
-10
-11
-12
-13
-13
-14
-14
-15
-14
-15
-16
-16
-17
-16
-17
-17
-18
-18
-18
-19
-19
-19
-19
-20
-20
-19
-19
-19
-19
-19
-19
-18
-18
-18
-18
-18
-19
-19
-19
-19
-19
-19
-19
-19
-18
-19
-19
-20
-20
-20
-20
-20
-21
-21
-21
-21
-21
-21
-21
-21
-21
-21
-21
-21
-21
-21
-21
-21
-21
-21
-21
-21
-21
-21
-21
-21
-22
-22
-22
-21
-21
-21
-22
-22
-22
-22
-22
-22
-23
-24
-23
-23
-23
-22
-22
-23
-23
-24
-24
-24
-24
-24
-23
-23
-24
-24
-24
-24
-24
-24
-24
-24
-24
-24
-23
-23
-23
-23
-23
-23
-23
-22
-23
-23
-23
-23
-22
-22
-22
-23
-23
-23
-23
-23
-23
-23
-23
-23
-23
-23
-23
-23
-23
-23
-23
-23
-23
-22
-21
-22
-22
-22
-22
-22
-22
-22
-22
-22
-22
-22
-23
-22
-22
-22
-22
-22
-21
-21
-21
-20
-20
-20
-20
-20
-20
-20
-20
-20
-20
-20
-20
-20
-20
-21
-21
-21
-21
-21
-21
-21
-21
-21
-21
-21
-21
-22
-22
-22
-22
-22
-22
-22
-22
-22
-22
-22
-22
-22
-22
-22
-22
-22
-22
-22
-22
-22
-22
-22
-22
-22
-22
-22
-22
-22
-22
-22
-22
-23
-23
-23
-23
-23
-24
-24
-25
-26
-26
-26
-26
-25
-25
-25
-25
-25
-25
-25
-24
-24
-23
-23
-22
-22
-22
-21
-21
-21
-21
-21
-20
-20
-21
-21
-21
-21
-22
-22
-21
-22
-22
-22
-23
-23
-23
-23
-22
-22
-23
-22
-22
-22
-21
-21
-20
-19
-19
-18
-18
-18
-18
-18
-18
-17
-17
-17
-16
-17
-16
-16
-17
-16
-16
-16
-16
-16
-16
-15
-15
-15
-15
-14
-13
-14
-13
-13
-13
-12
-12
-13
-12
-12
-12
-11
-11
-11
-11
-12
-12
-13
-13
-13
-13
-13
-13
-13
-12
-13
-13
-13
-12
-12
-12
-12
-12
-12
-12
-10
-11
-11
-11
-11
-10
-10
-10
-10
-10
-10
-11
-11
-11
-12
-12
-11
-12
-12
-12
-13
-14
-15
-15
-16
-16
-17
-17
-19
-20
-20
-21
-22
-23
-23
-23
-24
-25
-24
-25
-26
-25
-26
-27
-27
-28
-27
-28
-27
-27
-28
-27
-28
-28
-28
-28
-28
-29
-29
-29
-29
-29
-30
-30
-29
-30
-30
-30
-30
-31
-31
-31
-30
-30
-30
-31
-31
-31
-31
-31
-31
-31
-31
-31
-31
-31
-32
-32
-32
-32
-32
-32
-33
-33
-33
-33
-32
-32
-32
-32
-33
-32
-32
-32
-32
-31
-31
-31
-31
-31
-30
-31
-31
-30
-31
-30
-31
-30
-31
-31
-31
-31
-32
-32
-33
-33
-34
-35
-35
-35
-35
-35
-35
-33
-34
-32
-31
-29
-27
-25
-22
-18
-14
-9
-4
2
9
15
23
31
38
46
54
62
71
79
85
93
100
106
113
118
123
127
131
133
134
136
134
133
130
126
120
114
107
100
93
85
75
67
57
48
38
28
21
12
4
-3
-11
-16
-22
-26
-31
-35
-38
-40
-41
-43
-43
-44
-44
-44
-43
-43
-42
-41
-40
-39
-37
-37
-35
-35
-33
-33
-32
-31
-31
-30
-29
-28
-28
-27
-27
-27
-27
-27
-26
-27
-26
-26
-25
-25
-26
-26
-25
-25
-26
-26
-26
-26
-26
-26
-26
-26
-25
-25
-25
-26
-26
-26
-26
-25
-25
-26
-26
-25
-25
-25
-25
-24
-23
-23
-23
-23
-23
-23
-22
-23
-23
-23
-22
-22
-22
-22
-22
-23
-23
-23
-23
-23
-24
-24
-24
-24
-24
-23
-24
-24
-24
-24
-23
-23
-22
-22
-22
-21
-20
-20
-20
-18
-18
-18
-18
-18
-17
-17
-16
-16
-16
-16
-17
-17
-17
-16
-16
-16
-16
-16
-16
-16
-16
-16
-15
-15
-15
-14
-14
-14
-13
-13
-13
-13
-13
-13
-13
-13
-13
-12
-12
-11
-12
-12
-11
-11
-10
-10
-11
-11
-10
-10
-10
-9
-9
-9
-9
-8
-8
-8
-8
-8
-7
-7
-8
-7
-7
-6
-6
-5
-5
-4
-4
-4
-3
-3
-2
-2
-1
-1
1
2
2
3
3
4
5
5
6
6
6
6
7
7
8
8
8
9
8
9
10
10
11
12
12
11
12
13
14
15
16
17
18
20
21
22
22
23
25
26
27
27
29
30
30
31
33
33
34
34
35
36
36
36
38
38
38
39
40
40
40
40
40
41
41
41
42
42
42
43
43
43
44
44
45
45
45
46
45
46
46
47
48
48
49
50
49
50
50
50
51
50
51
51
51
51
51
51
51
51
51
51
51
49
49
48
48
46
45
44
43
43
42
41
40
39
38
36
35
33
31
29
27
26
25
24
23
22
21
19
18
16
15
14
13
12
11
9
8
7
6
5
4
3
2
0
-1
-2
-4
-6
-6
-8
-9
-10
-11
-11
-13
-13
-13
-15
-16
-16
-17
-17
-18
-18
-19
-18
-19
-20
-20
-21
-21
-22
-22
-22
-23
-23
-24
-25
-25
-25
-26
-25
-25
-25
-26
-26
-26
-27
-27
-27
-28
-27
-27
-27
-26
-27
-27
-26
-26
-26
-25
-25
-26
-25
-25
-25
-25
-25
-25
-25
-25
-25
-26
-26
-26
-27
-27
-27
-28
-28
-29
-29
-30
-30
-30
-30
-30
-30
-30
-30
-30
-29
-29
-29
-29
-29
-29
-28
-28
-27
-27
-27
-27
-27
-27
-27
-27
-27
-27
-27
-28
-29
-29
-29
-29
-29
-29
-29
-29
-28
-28
-29
-29
-29
-29
-29
-29
-28
-27
-27
-27
-27
-27
-27
-27
-27
-27
-27
-26
-26
-25
-25
-25
-25
-25
-25
-25
-25
-25
-26
-26
-26
-26
-26
-26
-26
-27
-28
-28
-28
-28
-28
-28
-28
-28
-28
-28
-29
-29
-29
-28
-28
-28
-27
-27
-27
-27
-27
-27
-27
-27
-27
-27
-26
-26
-26
-26
-26
-26
-25
-25
-25
-25
-24
-24
-24
-24
-24
-24
-24
-23
-24
-24
-24
-24
-24
-25
-25
-25
-26
-26
-26
-26
-25
-25
-25
-25
-25
-25
-25
-24
-24
-24
-24
-24
-24
-23
-24
-24
-24
-24
-24
-24
-24
-25
-25
-25
-25
-26
-26
-26
-26
-26
-26
-27
-27
-27
-26
-26
-26
-26
-26
-26
-26
-26
-27
-26
-26
-26
-25
-25
-25
-26
-26
-26
-26
-26
-26
-26
-27
-27
-26
-26
-26
-26
-26
-26
-26
-26
-27
-27
-27
-26
-26
-26
-26
-26
-27
-26
-26
-25
-25
-25
-26
-25
-25
-25
-24
-24
-24
-25
-25
-25
-25
-24
-24
-24
-24
-24
-24
-24
-25
-24
-24
-25
-24
-25
-24
-23
-24
-23
-22
-23
-22
-22
-21
-22
-21
-20
-20
-20
-19
-19
-18
-18
-17
-17
-17
-16
-16
-16
-16
-16
-16
-16
-16
-16
-15
-15
-15
-15
-14
-14
-15
-16
-15
-15
-15
-15
-15
-14
-14
-14
-14
-14
-14
-14
-14
-15
-15
-15
-15
-14
-15
-15
-15
-15
-15
-16
-15
-15
-15
-15
-15
-15
-15
-16
-16
-16
-16
-16
-16
-17
-17
-18
-17
-18
-18
-19
-19
-20
-20
-21
-22
-22
-22
-23
-23
-23
-23
-24
-24
-24
-24
-25
-25
-26
-26
-27
-28
-27
-27
-28
-28
-29
-29
-30
-31
-31
-32
-32
-32
-33
-33
-34
-34
-33
-34
-33
-33
-33
-33
-33
-34
-34
-34
-33
-33
-33
-32
-32
-32
-32
-32
-33
-33
-33
-33
-34
-34
-34
-34
-34
-34
-33
-33
-33
-34
-34
-35
-35
-35
-35
-34
-34
-34
-34
-34
-34
-34
-34
-33
-33
-33
-33
-33
-32
-33
-32
-32
-32
-32
-33
-32
-33
-33
-32
-33
-34
-35
-35
-35
-36
-36
-36
-36
-36
-35
-35
-34
-34
-32
-30
-28
-25
-22
-18
-14
-9
-4
1
7
14
21
28
36
43
52
60
67
75
83
90
96
103
109
114
118
122
125
126
128
129
129
126
124
120
115
110
102
96
88
79
71
62
52
43
35
25
18
9
2
-6
-12
-19
-24
-29
-34
-38
-41
-42
-44
-46
-48
-48
-48
-49
-48
-47
-45
-45
-44
-43
-42
-41
-40
-38
-38
-36
-36
-34
-34
-32
-32
-31
-31
-30
-30
-29
-30
-29
-28
-28
-28
-28
-27
-27
-27
-27
-27
-26
-27
-27
-26
-26
-26
-25
-25
-25
-24
-24
-23
-23
-24
-24
-24
-24
-25
-24
-24
-24
-25
-25
-25
-26
-26
-26
-26
-26
-26
-25
-25
-25
-25
-25
-25
-25
-25
-25
-25
-25
-25
-25
-24
-24
-24
-23
-23
-23
-23
-23
-23
-23
-23
-22
-22
-22
-22
-22
-22
-22
-21
-22
-22
-22
-22
-21
-21
-21
-21
-21
-20
-20
-20
-20
-20
-20
-18
-18
-18
-18
-18
-18
-17
-16
-16
-16
-16
-17
-16
-16
-16
-16
-16
-16
-16
-15
-15
-14
-14
-14
-14
-14
-14
-14
-14
-13
-13
-13
-13
-12
-12
-12
-12
-12
-12
-12
-12
-13
-12
-11
-11
-10
-10
-10
-10
-9
-9
-9
-8
-8
-6
-6
-5
-5
-4
-5
-4
-4
-3
-3
-2
-1
-1
0
-1
0
0
0
1
1
1
2
3
3
4
4
4
5
6
6
6
7
8
9
10
11
12
13
13
14
15
16
17
18
19
20
20
21
22
22
23
24
25
25
25
25
27
27
27
28
29
29
30
31
31
32
32
32
34
34
35
36
37
38
38
38
38
39
39
39
41
42
43
43
44
44
44
45
46
47
47
48
49
50
49
50
50
50
51
50
51
51
51
51
51
51
51
50
50
49
49
48
48
48
48
47
47
46
46
46
45
44
43
42
41
40
38
38
36
36
35
33
33
31
30
29
27
26
24
23
22
21
19
18
17
15
14
12
11
10
8
5
3
2
1
-1
-2
-4
-5
-6
-8
-8
-10
-10
-12
-12
-13
-13
-13
-14
-14
-15
-15
-16
-16
-16
-16
-16
-17
-17
-17
-18
-18
-18
-20
-20
-21
-21
-21
-21
-23
-23
-23
-24
-24
-25
-25
-25
-26
-25
-26
-26
-26
-25
-26
-26
-26
-25
-26
-26
-26
-25
-25
-25
-24
-25
-25
-25
-24
-24
-24
-25
-25
-25
-25
-25
-25
-25
-25
-25
-26
-27
-27
-27
-27
-27
-27
-27
-28
-28
-28
-28
-28
-27
-27
-27
-28
-28
-28
-28
-28
-28
-28
-27
-27
-27
-27
-28
-28
-28
-28
-29
-29
-29
-29
-29
-29
-29
-30
-30
-30
-30
-31
-31
-31
-31
-31
-31
-31
-31
-31
-31
-30
-30
-30
-30
-30
-30
-29
-29
-29
-29
-29
-28
-28
-28
-27
-27
-28
-28
-28
-28
-28
-27
-27
-26
-26
-26
-27
-27
-27
-27
-27
-27
-27
-27
-28
-28
-27
-27
-27
-27
-26
-26
-26
-26
-26
-26
-26
-26
-26
-26
-26
-25
-25
-25
-25
-25
-25
-25
-25
-25
-25
-25
-25
-25
-25
-25
-25
-26
-26
-26
-26
-26
-26
-25
-25
-25
-25
-26
-26
-26
-26
-25
-25
-25
-25
-25
-24
-24
-24
-24
-24
-24
-24
-24
-24
-24
-24
-24
-24
-25
-25
-25
-26
-26
-26
-26
-26
-26
-25
-25
-25
-25
-25
-25
-25
-25
-25
-24
-24
-24
-25
-25
-25
-25
-25
-25
-24
-26
-26
-26
-26
-26
-26
-26
-26
-26
-26
-27
-27
-27
-27
-27
-27
-27
-27
-27
-27
-27
-26
-26
-27
-27
-27
-27
-27
-27
-27
-26
-26
-26
-26
-26
-26
-26
-26
-26
-26
-26
-25
-26
-26
-26
-26
-26
-26
-26
-26
-25
-25
-26
-26
-26
-26
-26
-26
-26
-26
-26
-26
-26
-26
-26
-26
-26
-26
-26
-26
-26
-26
-26
-26
-26
-26
-26
-26
-26
-26
-26
-26
-26
-26
-26
-25
-26
-25
-26
-25
-25
-25
-24
-23
-23
-22
-22
-21
-21
-20
-20
-20
-19
-20
-19
-19
-18
-18
-18
-17
-17
-17
-16
-16
-16
-16
-16
-16
-17
-16
-16
-16
-16
-17
-16
-16
-16
-16
-16
-16
-15
-16
-16
-15
-15
-15
-16
-16
-15
-15
-15
-15
-14
-14
-14
-14
-13
-13
-14
-14
-14
-13
-14
-14
-14
-15
-15
-14
-15
-15
-15
-15
-16
-16
-17
-17
-18
-19
-20
-20
-21
-21
-22
-23
-22
-23
-23
-25
-26
-26
-27
-28
-28
-28
-28
-29
-28
-29
-28
-29
-29
-30
-30
-31
-31
-32
-31
-31
-32
-32
-31
-31
-32
-32
-32
-33
-33
-33
-33
-34
-34
-33
-33
-33
-34
-34
-34
-34
-33
-33
-33
-34
-34
-34
-34
-34
-34
-34
-34
-34
-33
-33
-33
-32
-33
-33
-33
-33
-33
-33
-32
-32
-32
-32
-32
-32
-32
-32
-33
-33
-33
-33
-33
-33
-33
-33
-33
-34
-34
-34
-35
-35
-35
-35
-35
-36
-36
-36
-38
-38
-38
-38
-38
-39
-38
-38
-38
-38
-37
-36
-35
-34
-33
-30
-29
-25
-22
-19
-16
-10
-6
-1
6
12
20
26
33
41
49
56
64
73
81
87
93
101
107
113
118
122
125
127
129
130
129
128
127
123
118
113
107
100
91
84
75
66
58
48
39
31
22
14
5
-3
-9
-16
-22
-28
-33
-36
-39
-42
-44
-45
-46
-47
-46
-47
-46
-46
-45
-45
-44
-43
-42
-40
-39
-38
-37
-36
-35
-35
-34
-33
-33
-32
-31
-31
-30
-29
-30
-29
-29
-28
-27
-28
-27
-27
-28
-27
-27
-28
-28
-27
-28
-28
-28
-28
-29
-29
-29
-30
-30
-30
-30
-30
-30
-30
-30
-30
-29
-29
-29
-30
-30
-29
-29
-29
-29
-27
-27
-27
-27
-28
-28
-28
-28
-28
-27
-27
-27
-27
-27
-27
-26
-26
-26
-26
-25
-24
-24
-24
-24
-23
-23
-22
-21
-21
-21
-21
-21
-20
-20
-21
-21
-21
-22
-22
-22
-23
-22
-22
-23
-23
-23
-23
-23
-22
-22
-22
-22
-22
-21
-21
-20
-19
-19
-19
-19
-18
-18
-18
-18
-17
-16
-16
-17
-17
-17
-17
-17
-17
-16
-16
-16
-16
-17
-16
-16
-17
-17
-17
-16
-16
-16
-16
-15
-15
-15
-14
-14
-14
-12
-12
-12
-11
-10
-10
-10
-10
-9
-9
-9
-8
-8
-7
-8
-8
-7
-8
-7
-7
-7
-7
-6
-6
-5
-5
-5
-4
-4
-3
-2
-2
0
1
2
2
3
4
5
6
6
6
7
8
9
9
9
9
10
10
11
12
12
12
12
13
13
15
16
16
17
17
19
19
20
21
22
23
24
24
26
26
27
28
29
29
30
32
32
33
33
34
34
35
37
37
38
39
39
39
40
40
40
39
39
39
40
40
40
40
40
40
40
41
41
42
42
43
43
43
44
45
46
46
48
48
49
49
50
50
50
50
50
50
49
49
49
48
48
47
46
45
44
43
42
41
40
38
38
36
35
33
31
30
28
26
25
23
22
20
19
18
16
14
12
11
9
8
7
6
4
3
2
2
1
0
-2
-3
-3
-5
-6
-7
-8
-9
-10
-11
-12
-13
-14
-15
-17
-18
-18
-19
-19
-20
-21
-22
-23
-23
-24
-25
-25
-25
-26
-27
-26
-27
-27
-27
-27
-27
-26
-26
-27
-27
-27
-26
-26
-27
-27
-26
-26
-27
-27
-26
-27
-27
-27
-28
-28
-30
-30
-30
-31
-31
-31
-31
-32
-32
-32
-32
-32
-32
-33
-33
-33
-33
-32
-32
-32
-31
-31
-31
-30
-30
-30
-30
-30
-30
-30
-30
-30
-30
-30
-30
-30
-30
-29
-29
-30
-30
-31
-31
-31
-31
-31
-31
-31
-31
-30
-30
-30
-30
-30
-30
-30
-30
-30
-30
-30
-30
-30
-30
-30
-30
-30
-30
-30
-30
-30
-30
-30
-30
-30
-30
-30
-30
-30
-31
-31
-31
-30
-30
-30
-30
-30
-30
-30
-30
-30
-30
-30
-31
-31
-31
-31
-31
-31
-31
-31
-31
-31
-31
-31
-31
-30
-30
-30
-30
-30
-30
-30
-29
-29
-29
-29
-29
-29
-29
-29
-29
-29
-29
-29
-29
-29
-29
-29
-31
-32
-32
-31
-31
-31
-31
-31
-31
-31
-31
-31
-31
-30
-29
-29
-29
-29
-28
-29
-28
-28
-28
-28
-27
-28
-28
-28
-28
-29
-29
-29
-29
-29
-29
-29
-29
-31
-31
-31
-30
-30
-31
-31
-31
-31
-31
-31
-31
-31
-31
-31
-31
-31
-30
-30
-30
-29
-29
-29
-29
-28
-28
-28
-28
-28
-28
-28
-28
-28
-28
-28
-28
-29
-29
-30
-30
-29
-30
-30
-30
-30
-30
-30
-30
-29
-30
-30
-30
-30
-31
-31
-31
-31
-31
-30
-30
-30
-30
-30
-30
-30
-30
-30
-30
-30
-30
-30
-30
-30
-31
-31
-31
-31
-30
-30
-30
-30
-30
-30
-30
-30
-30
-30
-30
-30
-31
-31
-30
-30
-30
-31
-31
-32
-32
-32
-32
-32
-32
-32
-32
-32
-33
-33
-32
-32
-32
-32
-31
-31
-31
-30
-30
-30
-29
-28
-28
-27
-26
-27
-26
-26
-25
-25
-24
-23
-23
-22
-23
-22
-22
-21
-21
-20
-20
-20
-19
-19
-19
-19
-19
-18
-18
-18
-18
-17
-17
-17
-17
-17
-17
-18
-18
-18
-18
-18
-18
-18
-18
-18
-18
-19
-19
-20
-20
-20
-20
-19
-19
-18
-18
-18
-18
-18
-18
-18
-18
-18
-17
-17
-17
-18
-18
-18
-18
-19
-19
-19
-19
-21
-21
-22
-23
-24
-24
-25
-25
-26
-27
-27
-28
-28
-29
-29
-29
-30
-31
-31
-32
-33
-32
-33
-33
-32
-33
-32
-33
-33
-34
-34
-34
-34
-33
-34
-34
-33
-34
-33
-33
-34
-34
-34
-34
-35
-35
-35
-35
-36
-36
-36
-36
-36
-37
-37
-37
-38
-38
-38
-38
-38
-38
-38
-38
-38
-38
-38
-38
-37
-37
-37
-37
-37
-37
-37
-37
-37
-37
-37
-37
-36
-37
-37
-37
-37
-37
-37
-37
-37
-37
-37
-37
-37
-37
-37
-37
-37
-38
-38
-38
-38
-38
-38
-38
-39
-39
-40
-40
-41
-42
-42
-43
-43
-43
-44
-43
-42
-41
-40
-38
-36
-34
-30
-28
-24
-19
-15
-8
-2
5
11
19
28
36
44
52
59
67
76
84
90
98
104
109
114
119
123
125
127
128
128
128
126
123
119
114
108
102
94
87
78
70
61
52
42
34
26
17
9
0
-6
-14
-20
-26
-30
-35
-39
-42
-45
-47
-48
-49
-49
-49
-49
-49
-48
-48
-46
-45
-44
-43
-41
-41
-40
-39
-38
-37
-36
-35
-35
-35
-34
-34
-33
-33
-32
-33
-32
-31
-32
-32
-32
-32
-33
-33
-33
-32
-33
-33
-33
-33
-33
-33
-33
-33
-33
-33
-33
-33
-33
-32
-32
-32
-32
-32
-32
-31
-31
-31
-30
-30
-30
-30
-30
-29
-28
-28
-28
-28
-28
-26
-26
-26
-26
-25
-26
-26
-25
-25
-25
-25
-25
-26
-25
-25
-25
-26
-26
-26
-27
-27
-27
-27
-27
-27
-27
-27
-27
-27
-28
-28
-28
-27
-27
-27
-27
-27
-27
-25
-25
-25
-24
-24
-23
-23
-23
-23
-22
-23
-23
-23
-23
-22
-22
-22
-22
-21
-22
-22
-22
-21
-22
-22
-22
-22
-22
-21
-21
-20
-21
-21
-20
-20
-20
-20
-19
-18
-18
-18
-18
-17
-17
-17
-18
-18
-17
-17
-17
-16
-16
-16
-15
-15
-16
-15
-15
-14
-14
-14
-13
-13
-12
-12
-10
-9
-9
-8
-7
-6
-6
-5
-4
-4
-3
-3
-2
-2
-1
-1
0
0
0
1
1
1
1
2
3
4
4
4
5
5
6
6
7
7
8
8
9
10
11
11
12
12
13
14
15
15
16
17
18
18
20
20
21
22
23
23
25
25
26
28
28
28
29
31
31
32
33
34
35
36
36
37
37
38
39
39
40
40
40
41
41
41
42
42
42
43
43
43
43
43
43
43
44
44
44
45
44
44
44
43
44
43
44
43
43
42
42
42
42
41
41
40
40
39
39
39
39
38
37
37
36
35
35
33
33
31
30
29
27
25
23
21
21
19
18
16
14
12
10
8
6
4
3
1
-1
-2
-3
-4
-5
-6
-7
-7
-8
-8
-9
-11
-11
-12
-12
-12
-13
-14
-15
-15
-16
-16
-17
-19
-20
-21
-21
-22
-22
-23
-24
-25
-25
-26
-27
-27
-28
-28
-28
-29
-30
-29
-30
-30
-31
-30
-31
-30
-31
-31
-31
-31
-32
-31
-31
-32
-32
-31
-31
-32
-32
-32
-31
-31
-31
-31
-31
-31
-31
-32
-33
-33
-32
-32
-32
-32
-32
-32
-32
-33
-33
-33
-33
-33
-32
-32
-33
-33
-33
-33
-33
-34
-34
-34
-34
-35
-35
-36
-36
-36
-36
-36
-37
-36
-36
-36
-37
-37
-37
-37
-36
-36
-36
-36
-36
-36
-36
-36
-36
-36
-36
-36
-35
-35
-35
-35
-35
-35
-35
-35
-35
-35
-34
-34
-34
-34
-33
-33
-33
-33
-33
-33
-33
-33
-33
-33
-33
-33
-33
-34
-34
-34
-35
-35
-35
-36
-36
-36
-37
-36
-36
-36
-36
-36
-36
-36
-36
-35
-35
-35
-34
-33
-33
-33
-32
-32
-32
-31
-31
-31
-31
-31
-30
-30
-30
-30
-31
-31
-32
-32
-33
-33
-33
-33
-33
-34
-35
-35
-36
-36
-36
-36
-37
-37
-37
-36
-36
-36
-36
-36
-35
-35
-35
-35
-34
-34
-34
-34
-34
-34
-35
-35
-34
-34
-34
-34
-34
-34
-34
-34
-34
-34
-34
-34
-33
-33
-33
-32
-32
-32
-32
-31
-32
-32
-32
-31
-31
-31
-31
-31
-31
-31
-31
-31
-32
-32
-32
-32
-32
-34
-34
-34
-34
-34
-34
-34
-35
-35
-34
-35
-35
-35
-35
-34
-33
-33
-33
-33
-33
-33
-32
-32
-32
-32
-33
-32
-32
-32
-32
-32
-33
-34
-34
-34
-34
-35
-36
-36
-37
-37
-38
-38
-38
-38
-39
-39
-39
-38
-37
-37
-37
-37
-37
-37
-36
-35
-35
-35
-35
-34
-34
-34
-34
-34
-34
-34
-33
-33
-33
-34
-33
-33
-33
-33
-33
-32
-32
-31
-32
-31
-30
-29
-28
-28
-28
-27
-27
-26
-25
-25
-24
-24
-24
-23
-23
-23
-23
-23
-23
-23
-23
-23
-23
-23
-23
-24
-24
-24
-24
-24
-24
-24
-24
-24
-25
-25
-25
-26
-26
-26
-26
-26
-25
-26
-26
-26
-26
-26
-26
-26
-26
-26
-25
-25
-25
-24
-24
-24
-24
-24
-24
-23
-23
-23
-24
-25
-25
-25
-25
-27
-27
-28
-29
-30
-31
-32
-32
-33
-33
-34
-35
-34
-35
-36
-36
-36
-36
-36
-36
-36
-36
-36
-36
-35
-36
-35
-36
-35
-36
-36
-36
-36
-36
-37
-37
-36
-37
-38
-38
-39
-39
-39
-40
-40
-40
-40
-40
-41
-41
-41
-41
-41
-41
-42
-42
-42
-42
-41
-41
-41
-41
-40
-41
-41
-40
-40
-40
-41
-42
-42
-43
-43
-43
-43
-43
-43
-44
-44
-44
-45
-44
-44
-44
-44
-44
-43
-43
-43
-43
-42
-42
-42
-42
-42
-41
-42
-41
-42
-41
-41
-41
-42
-43
-43
-44
-45
-45
-45
-46
-46
-46
-46
-45
-45
-45
-43
-41
-40
-37
-35
-32
-28
-23
-19
-14
-8
-1
5
12
19
26
34
42
49
57
64
72
78
86
92
99
104
108
112
115
118
119
119
118
116
114
111
106
101
94
87
80
71
62
53
44
34
25
16
8
-1
-9
-17
-24
-31
-37
-42
-46
-50
-53
-56
-57
-59
-60
-60
-60
-60
-58
-58
-56
-54
-53
-51
-49
-48
-46
-45
-44
-42
-42
-40
-39
-38
-37
-37
-37
-36
-36
-37
-36
-36
-36
-36
-36
-37
-37
-37
-38
-38
-38
-38
-39
-39
-39
-39
-39
-39
-39
-39
-40
-40
-40
-39
-38
-38
-38
-37
-37
-37
-37
-36
-36
-35
-35
-34
-34
-34
-34
-33
-33
-33
-33
-33
-33
-33
-33
-33
-33
-34
-34
-34
-34
-34
-34
-33
-33
-33
-33
-33
-33
-32
-32
-33
-33
-33
-33
-33
-32
-31
-31
-31
-31
-31
-30
-30
-30
-29
-29
-29
-30
-30
-29
-29
-29
-28
-28
-28
-29
-28
-28
-28
-29
-29
-29
-29
-29
-29
-29
-29
-28
-28
-28
-28
-28
-27
-26
-26
-25
-25
-25
-24
-24
-24
-22
-22
-22
-22
-21
-21
-21
-21
-21
-21
-20
-20
-20
-20
-20
-20
-20
-20
-19
-19
-19
-19
-19
-19
-19
-19
-19
-19
-18
-18
-17
-18
-17
-17
-16
-17
-16
-16
-15
-14
-14
-13
-12
-12
-11
-10
-10
-9
-8
-8
-7
-6
-6
-5
-5
-5
-4
-3
-2
-2
-1
0
0
1
2
2
3
3
4
6
7
7
7
8
9
11
11
12
12
13
13
13
14
14
14
15
15
16
18
19
19
20
20
22
22
23
24
25
26
27
27
29
29
30
30
31
31
31
32
33
33
33
34
34
34
34
34
34
34
33
34
34
35
35
36
36
36
36
37
37
37
37
37
37
37
37
37
38
38
38
37
36
36
36
36
35
35
34
33
33
32
31
31
30
28
28
26
25
25
23
22
20
19
17
16
15
13
12
10
9
7
6
5
4
2
1
-1
-2
-4
-5
-6
-8
-9
-10
-12
-13
-14
-15
-16
-17
-18
-19
-20
-21
-21
-23
-23
-24
-24
-25
-25
-26
-26
-27
-27
-28
-27
-28
-29
-30
-30
-30
-30
-31
-30
-31
-31
-32
-32
-33
-33
-33
-34
-34
-35
-35
-35
-36
-35
-35
-36
-36
-36
-37
-37
-37
-38
-38
-38
-39
-39
-39
-38
-39
-39
-38
-38
-39
-39
-38
-38
-39
-39
-38
-38
-38
-38
-37
-37
-37
-36
-36
-36
-36
-36
-36
-36
-36
-36
-36
-36
-37
-37
-37
-37
-38
-38
-38
-39
-40
-40
-40
-40
-40
-41
-41
-41
-41
-41
-41
-41
-41
-41
-40
-40
-40
-40
-40
-41
-40
-40
-40
-40
-40
-40
-39
-40
-40
-40
-40
-40
-39
-39
-39
-39
-39
-39
-38
-37
-37
-37
-37
-37
-37
-37
-37
-37
-37
-38
-37
-37
-37
-37
-38
-38
-38
-38
-38
-38
-38
-38
-38
-37
-37
-37
-38
-37
-37
-37
-37
-37
-36
-36
-36
-36
-36
-36
-36
-36
-36
-36
-35
-35
-35
-35
-35
-35
-35
-35
-34
-34
-34
-34
-34
-33
-33
-33
-34
-34
-34
-34
-34
-35
-35
-35
-36
-36
-36
-36
-36
-36
-36
-36
-37
-37
-37
-37
-37
-37
-36
-36
-36
-36
-36
-35
-35
-35
-34
-34
-34
-34
-34
-34
-34
-34
-34
-34
-34
-35
-35
-35
-35
-35
-35
-35
-35
-36
-36
-36
-36
-36
-36
-35
-35
-36
-36
-36
-36
-36
-37
-36
-36
-36
-36
-36
-36
-36
-36
-37
-37
-37
-37
-36
-36
-37
-37
-36
-36
-36
-36
-35
-35
-34
-34
-34
-34
-34
-34
-34
-34
-34
-34
-34
-34
-34
-35
-36
-36
-37
-37
-37
-37
-37
-37
-37
-37
-37
-37
-36
-36
-36
-36
-36
-36
-36
-36
-35
-35
-35
-34
-34
-34
-33
-33
-33
-33
-33
-33
-32
-32
-32
-31
-32
-32
-32
-31
-32
-31
-30
-31
-30
-29
-30
-29
-29
-29
-29
-29
-27
-27
-27
-26
-27
-27
-27
-26
-26
-26
-25
-25
-25
-25
-25
-26
-25
-25
-24
-24
-25
-25
-25
-25
-25
-25
-25
-25
-26
-26
-26
-26
-26
-26
-26
-26
-27
-27
-27
-27
-27
-27
-27
-26
-27
-27
-27
-27
-27
-27
-27
-27
-27
-28
-28
-28
-28
-30
-30
-31
-31
-32
-32
-34
-34
-35
-36
-35
-36
-37
-37
-37
-38
-38
-38
-38
-39
-38
-39
-39
-39
-39
-40
-40
-40
-40
-40
-41
-40
-41
-41
-41
-41
-41
-41
-41
-42
-42
-42
-42
-42
-42
-43
-43
-43
-43
-43
-43
-43
-44
-44
-45
-45
-45
-45
-46
-45
-45
-45
-45
-44
-45
-45
-45
-45
-45
-44
-44
-44
-44
-44
-44
-43
-43
-43
-43
-43
-44
-44
-44
-43
-43
-43
-43
-43
-43
-43
-42
-42
-43
-42
-42
-41
-41
-41
-41
-41
-42
-42
-43
-42
-43
-44
-44
-45
-45
-45
-45
-45
-44
-43
-42
-41
-39
-37
-34
-31
-27
-23
-19
-13
-8
-1
5
12
20
28
35
42
50
57
64
72
78
85
91
97
102
106
109
111
113
115
115
114
113
110
106
101
96
88
81
74
66
58
48
39
30
22
14
5
-3
-11
-18
-24
-31
-36
-41
-45
-47
-50
-52
-53
-55
-56
-56
-56
-56
-54
-54
-53
-52
-51
-50
-49
-48
-47
-46
-45
-45
-44
-44
-43
-43
-42
-42
-41
-41
-40
-40
-40
-39
-39
-38
-39
-38
-38
-38
-37
-37
-37
-36
-36
-37
-36
-36
-36
-36
-36
-36
-35
-34
-34
-34
-34
-34
-34
-34
-34
-34
-34
-34
-34
-34
-34
-34
-34
-34
-34
-34
-34
-34
-34
-34
-34
-34
-34
-35
-34
-34
-33
-33
-33
-32
-33
-33
-33
-32
-33
-33
-33
-32
-32
-32
-32
-32
-32
-32
-31
-31
-31
-31
-32
-31
-31
-31
-31
-31
-31
-30
-30
-29
-30
-30
-30
-29
-29
-29
-29
-29
-29
-28
-28
-28
-28
-27
-26
-26
-26
-26
-25
-25
-25
-25
-24
-23
-23
-23
-23
-23
-22
-22
-22
-22
-22
-22
-22
-22
-21
-21
-21
-21
-21
-20
-20
-20
-19
-19
-18
-18
-18
-18
-18
-18
-17
-17
-16
-17
-16
-16
-15
-15
-15
-14
-14
-13
-13
-12
-12
-11
-10
-11
-10
-9
-10
-9
-9
-8
-8
-8
-7
-8
-7
-7
-6
-7
-6
-6
-6
-6
-5
-4
-3
-2
-1
0
1
2
2
3
4
5
6
7
8
10
10
10
11
12
13
13
14
14
15
15
15
16
16
16
18
18
19
19
21
21
21
23
23
24
25
25
27
28
29
30
30
32
32
33
33
34
34
36
37
37
38
38
39
40
40
40
40
40
40
41
41
41
41
40
41
41
41
40
41
40
41
40
40
40
39
39
38
38
37
37
38
37
37
36
36
35
34
33
33
32
31
30
30
29
28
27
26
25
23
23
21
20
19
18
16
15
13
12
10
9
7
6
5
3
2
1
-1
-2
-3
-5
-6
-7
-9
-10
-12
-12
-14
-15
-16
-18
-19
-20
-21
-22
-22
-23
-25
-25
-26
-27
-26
-27
-28
-29
-29
-29
-29
-29
-29
-29
-29
-29
-30
-30
-31
-31
-31
-31
-32
-31
-32
-32
-32
-32
-32
-33
-32
-32
-32
-32
-32
-32
-32
-32
-32
-32
-32
-32
-32
-32
-32
-32
-34
-34
-34
-34
-34
-34
-34
-34
-34
-35
-35
-35
-35
-35
-35
-35
-36
-37
-37
-37
-37
-36
-36
-36
-36
-37
-37
-37
-37
-36
-36
-36
-36
-36
-36
-36
-35
-35
-35
-34
-35
-35
-35
-35
-35
-35
-36
-36
-36
-37
-37
-38
-38
-38
-38
-38
-38
-39
-39
-39
-39
-39
-39
-39
-39
-39
-38
-38
-38
-38
-38
-38
-36
-37
-37
-37
-37
-37
-36
-36
-36
-36
-36
-36
-37
-36
-36
-36
-36
-36
-36
-36
-35
-35
-35
-35
-34
-34
-34
-34
-34
-34
-34
-34
-34
-34
-34
-34
-33
-34
-34
-34
-34
-35
-35
-35
-35
-36
-36
-36
-37
-37
-37
-37
-36
-36
-36
-36
-36
-36
-35
-34
-33
-32
-32
-32
-32
-32
-32
-32
-31
-31
-31
-31
-30
-31
-31
-31
-32
-32
-33
-33
-33
-33
-33
-33
-33
-33
-33
-34
-34
-33
-33
-33
-33
-33
-33
-33
-33
-33
-33
-33
-33
-34
-34
-35
-35
-36
-36
-36
-36
-36
-36
-36
-36
-37
-37
-37
-37
-37
-37
-36
-35
-35
-35
-34
-34
-34
-34
-34
-33
-33
-33
-33
-33
-33
-33
-33
-33
-33
-33
-33
-33
-33
-33
-33
-34
-34
-34
-34
-34
-35
-35
-35
-35
-35
-35
-35
-36
-36
-36
-36
-35
-35
-35
-35
-35
-35
-34
-34
-34
-34
-35
-35
-35
-35
-35
-35
-34
-34
-35
-34
-34
-34
-33
-33
-32
-32
-32
-32
-32
-31
-31
-31
-31
-30
-31
-30
-30
-30
-30
-30
-30
-30
-30
-30
-31
-30
-30
-30
-30
-30
-30
-29
-30
-29
-28
-29
-28
-28
-28
-28
-27
-27
-27
-26
-25
-25
-25
-25
-24
-24
-24
-23
-23
-23
-23
-23
-23
-23
-23
-23
-23
-23
-23
-23
-23
-23
-23
-23
-24
-24
-23
-23
-24
-24
-25
-24
-24
-24
-24
-24
-24
-24
-24
-23
-23
-23
-22
-22
-22
-22
-23
-23
-24
-23
-23
-23
-24
-24
-25
-26
-26
-28
-28
-29
-30
-30
-31
-31
-32
-32
-33
-34
-33
-34
-34
-34
-35
-34
-34
-35
-34
-35
-35
-36
-35
-36
-37
-36
-37
-37
-36
-37
-37
-37
-38
-38
-38
-39
-39
-38
-38
-39
-39
-39
-40
-40
-40
-40
-40
-40
-40
-41
-42
-42
-42
-42
-42
-42
-42
-42
-42
-43
-43
-43
-43
-43
-42
-42
-42
-42
-42
-43
-43
-43
-43
-43
-42
-42
-43
-43
-43
-43
-44
-44
-43
-42
-42
-42
-42
-42
-42
-41
-42
-42
-41
-42
-42
-41
-42
-43
-43
-44
-44
-45
-45
-46
-45
-46
-46
-46
-46
-45
-44
-43
-42
-40
-37
-34
-31
-27
-22
-17
-11
-6
1
8
15
23
30
38
46
53
61
69
76
82
89
95
100
106
109
114
117
119
121
122
122
120
118
114
110
105
98
92
85
77
69
60
52
41
32
23
15
7
-1
-8
-16
-23
-29
-34
-39
-44
-47
-50
-51
-53
-54
-54
-54
-55
-54
-53
-52
-51
-50
-49
-47
-47
-45
-44
-43
-42
-42
-40
-40
-40
-40
-39
-39
-39
-38
-38
-38
-38
-37
-38
-38
-38
-38
-38
-38
-37
-38
-37
-37
-36
-36
-35
-35
-35
-35
-35
-35
-34
-34
-34
-34
-34
-34
-34
-34
-34
-35
-35
-35
-35
-35
-35
-35
-35
-35
-35
-35
-35
-34
-33
-33
-33
-33
-33
-32
-32
-31
-31
-31
-31
-31
-31
-31
-31
-31
-31
-31
-31
-32
-31
-31
-32
-32
-32
-32
-32
-32
-31
-31
-31
-31
-31
-30
-30
-30
-29
-29
-28
-28
-27
-27
-27
-27
-27
-26
-26
-26
-26
-26
-25
-24
-24
-25
-24
-24
-24
-24
-23
-23
-24
-24
-24
-23
-23
-23
-23
-24
-24
-23
-23
-23
-23
-23
-22
-23
-23
-21
-21
-21
-21
-21
-21
-20
-20
-19
-19
-19
-18
-18
-18
-18
-17
-17
-16
-16
-16
-15
-15
-15
-14
-14
-14
-14
-14
-13
-13
-12
-11
-12
-11
-10
-10
-10
-9
-9
-9
-8
-9
-8
-7
-6
-6
-5
-4
-3
-3
-3
-2
-1
0
1
2
3
4
5
6
7
8
9
10
11
12
13
14
14
15
16
17
18
19
19
20
20
21
21
22
22
23
24
24
24
25
26
27
27
27
28
28
28
30
30
31
31
31
33
33
33
34
34
35
36
36
37
37
37
38
38
39
39
40
40
41
41
42
43
43
44
44
44
44
45
44
45
44
45
45
45
44
44
43
43
42
41
41
40
39
38
37
36
36
35
34
33
32
30
30
28
26
26
24
22
22
21
20
18
17
15
14
12
11
10
9
8
7
6
5
4
2
1
1
0
-2
-3
-4
-4
-6
-7
-9
-9
-11
-12
-14
-14
-16
-17
-17
-19
-20
-21
-22
-23
-23
-24
-25
-26
-27
-27
-28
-29
-29
-30
-30
-31
-32
-31
-32
-32
-33
-33
-33
-33
-32
-33
-33
-33
-33
-32
-32
-32
-32
-31
-32
-32
-31
-31
-31
-31
-32
-32
-32
-32
-32
-32
-32
-32
-32
-33
-33
-33
-33
-33
-33
-33
-33
-33
-33
-33
-32
-32
-32
-33
-34
-34
-34
-34
-34
-34
-34
-35
-35
-35
-36
-36
-36
-36
-36
-37
-37
-37
-36
-35
-35
-35
-35
-34
-34
-34
-34
-34
-34
-34
-34
-34
-34
-35
-35
-35
-35
-35
-35
-35
-35
-35
-35
-34
-35
-35
-35
-35
-35
-35
-36
-35
-35
-35
-36
-36
-36
-36
-36
-37
-37
-38
-38
-38
-38
-37
-37
-37
-37
-37
-37
-37
-37
-36
-36
-36
-36
-35
-35
-35
-35
-34
-34
-34
-33
-33
-33
-33
-33
-33
-33
-33
-33
-32
-32
-32
-33
-33
-33
-33
-33
-33
-34
-34
-33
-33
-33
-34
-34
-34
-34
-35
-34
-34
-34
-34
-34
-34
-33
-33
-33
-33
-33
-32
-32
-32
-32
-32
-32
-32
-32
-32
-32
-32
-32
-32
-32
-33
-33
-33
-33
-33
-33
-34
-35
-34
-34
-34
-34
-34
-33
-33
-32
-32
-32
-32
-32
-32
-32
-32
-32
-32
-32
-32
-32
-32
-32
-32
-32
-32
-32
-33
-33
-34
-34
-34
-35
-35
-35
-35
-35
-35
-35
-35
-35
-34
-34
-34
-34
-34
-34
-34
-35
-35
-34
-34
-32
-32
-32
-32
-32
-32
-32
-31
-31
-31
-31
-31
-30
-31
-30
-30
-30
-31
-30
-30
-30
-30
-31
-31
-31
-31
-31
-31
-31
-31
-31
-32
-33
-32
-32
-32
-32
-32
-32
-32
-32
-33
-33
-33
-32
-32
-32
-32
-32
-32
-32
-32
-32
-32
-31
-31
-32
-31
-31
-30
-30
-30
-29
-29
-28
-27
-28
-27
-27
-27
-26
-27
-26
-25
-24
-24
-23
-23
-22
-22
-21
-21
-21
-21
-21
-21
-21
-20
-20
-20
-19
-19
-20
-20
-20
-20
-20
-20
-21
-21
-21
-21
-21
-20
-20
-20
-21
-20
-20
-20
-20
-20
-20
-20
-20
-20
-20
-20
-20
-20
-20
-20
-20
-20
-20
-20
-21
-21
-22
-21
-22
-22
-21
-22
-22
-21
-22
-22
-23
-23
-24
-25
-26
-26
-26
-27
-26
-27
-28
-28
-29
-30
-30
-30
-30
-31
-31
-32
-32
-33
-33
-33
-33
-33
-33
-33
-34
-33
-33
-34
-34
-35
-35
-35
-36
-35
-36
-36
-36
-36
-36
-36
-36
-36
-36
-36
-37
-37
-37
-37
-37
-38
-37
-37
-37
-38
-38
-38
-38
-38
-38
-38
-39
-39
-39
-39
-39
-39
-39
-38
-38
-38
-38
-38
-38
-38
-38
-38
-38
-38
-38
-38
-38
-38
-38
-39
-39
-38
-39
-39
-38
-39
-38
-39
-39
-39
-39
-39
-39
-39
-39
-39
-39
-39
-39
-39
-40
-38
-38
-37
-36
-34
-33
-30
-28
-24
-21
-18
-13
-8
-2
4
11
18
25
33
41
48
56
64
72
78
86
93
100
105
111
115
119
122
125
127
127
127
126
122
119
115
109
103
97
90
81
73
65
55
46
37
28
20
11
4
-4
-11
-17
-23
-29
-33
-37
-41
-44
-45
-47
-48
-49
-49
-50
-50
-49
-48
-47
-46
-46
-44
-43
-43
-41
-40
-39
-38
-37
-36
-35
-34
-33
-33
-33
-33
-32
-31
-31
-30
-31
-31
-31
-30
-31
-31
-32
-32
-32
-32
-32
-32
-32
-32
-32
-32
-32
-32
-32
-32
-32
-32
-31
-31
-31
-31
-31
-31
-30
-30
-30
-29
-29
-29
-29
-29
-28
-27
-27
-27
-27
-27
-27
-27
-26
-25
-26
-26
-26
-26
-26
-26
-25
-25
-25
-25
-26
-26
-26
-25
-25
-25
-25
-25
-25
-25
-26
-26
-25
-24
-24
-24
-25
-25
-25
-24
-24
-24
-23
-23
-23
-23
-23
-23
-24
-24
-22
-22
-22
-22
-21
-22
-22
-22
-22
-21
-21
-21
-20
-20
-19
-19
-18
-18
-18
-17
-17
-16
-15
-15
-15
-15
-14
-14
-14
-14
-13
-13
-13
-14
-13
-13
-13
-14
-13
-13
-14
-13
-13
-13
-12
-12
-12
-12
-11
-11
-10
-9
-9
-9
-8
-8
-8
-7
-7
-6
-6
-5
-5
-5
-4
-5
-4
-3
-3
-2
-1
-1
0
1
2
1
2
3
4
5
6
7
6
7
8
9
10
11
11
12
13
13
14
14
14
14
15
15
16
16
16
17
18
19
19
20
21
21
22
22
23
24
25
26
26
28
28
29
31
32
32
33
35
36
36
37
38
38
38
39
40
40
41
41
43
43
43
44
44
44
44
45
45
46
47
47
48
49
48
49
49
50
50
50
50
51
51
51
51
51
51
51
51
51
50
50
50
49
48
47
47
46
45
44
43
43
41
40
39
38
36
36
34
33
31
30
28
27
25
24
23
22
21
20
18
17
16
15
13
12
10
9
8
6
5
4
2
1
0
-1
-3
-3
-5
-6
-7
-9
-10
-11
-12
-13
-15
-15
-16
-17
-17
-18
-18
-19
-20
-21
-22
-23
-23
-23
-24
-24
-25
-25
-26
-25
-26
-26
-27
-26
-26
-26
-26
-26
-26
-26
-27
-26
-26
-26
-26
-26
-25
-25
-26
-26
-26
-26
-26
-26
-27
-27
-27
-28
-28
-28
-28
-30
-30
-30
-30
-31
-31
-31
-31
-31
-30
-30
-31
-31
-31
-31
-31
-31
-31
-31
-30
-30
-30
-29
-29
-29
-28
-28
-28
-28
-28
-28
-28
-28
-28
-28
-28
-28
-28
-28
-28
-27
-28
-28
-29
-29
-29
-29
-29
-30
-31
-31
-31
-31
-31
-31
-32
-32
-32
-32
-32
-32
-32
-32
-32
-32
-32
-32
-32
-31
-31
-31
-31
-30
-30
-30
-31
-31
-30
-30
-30
-31
-31
-31
-31
-31
-31
-31
-31
-31
-31
-30
-30
-30
-30
-30
-30
-31
-30
-30
-30
-29
-29
-29
-29
-29
-29
-29
-29
-29
-29
-29
-29
-28
-28
-28
-28
-28
-28
-29
-29
-29
-29
-28
-28
-28
-29
-29
-29
-30
-30
-30
-31
-31
-31
-31
-31
-31
-31
-31
-30
-30
-30
-30
-30
-30
-30
-29
-29
-29
-29
-29
-28
-28
-27
-27
-27
-27
-26
-26
-26
-26
-26
-26
-25
-25
-24
-25
-25
-26
-26
-26
-26
-26
-26
-27
-27
-28
-27
-27
-28
-28
-28
-28
-28
-29
-29
-29
-29
-29
-29
-29
-29
-29
-29
-28
-28
-27
-27
-27
-27
-27
-27
-28
-28
-27
-27
-27
-27
-27
-27
-28
-28
-29
-29
-29
-30
-29
-30
-30
-31
-31
-32
-32
-32
-32
-31
-31
-31
-31
-30
-30
-30
-30
-30
-29
-29
-28
-28
-28
-28
-28
-28
-28
-28
-27
-27
-27
-27
-27
-27
-27
-27
-28
-28
-28
-28
-27
-27
-27
-27
-27
-27
-26
-26
-26
-26
-26
-26
-26
-25
-25
-25
-25
-24
-24
-25
-24
-24
-23
-24
-23
-23
-22
-22
-22
-21
-21
-21
-21
-20
-21
-20
-21
-20
-20
-20
-20
-19
-19
-18
-19
-18
-18
-18
-18
-18
-18
-18
-18
-18
-17
-17
-17
-17
-16
-16
-16
-16
-16
-16
-16
-15
-15
-15
-15
-15
-15
-15
-15
-14
-15
-15
-15
-14
-15
-15
-15
-16
-16
-16
-16
-16
-16
-15
-15
-15
-14
-14
-13
-14
-14
-13
-14
-13
-13
-13
-14
-14
-14
-15
-15
-16
-16
-17
-18
-19
-20
-21
-22
-23
-24
-25
-26
-27
-28
-27
-28
-28
-29
-28
-29
-29
-29
-29
-29
-29
-29
-29
-29
-30
-29
-29
-29
-29
-29
-29
-29
-29
-30
-30
-30
-30
-30
-31
-31
-31
-31
-32
-31
-31
-31
-31
-31
-31
-32
-32
-32
-31
-31
-31
-31
-32
-32
-32
-32
-32
-32
-32
-32
-32
-33
-33
-33
-34
-34
-34
-34
-34
-34
-35
-35
-35
-34
-34
-34
-34
-34
-34
-34
-33
-34
-34
-33
-32
-32
-32
-32
-32
-32
-33
-33
-33
-33
-34
-33
-34
-35
-35
-35
-35
-34
-34
-34
-33
-32
-30
-29
-26
-23
-19
-15
-11
-6
-1
6
13
19
28
36
44
52
60
68
77
84
91
99
107
113
120
124
128
132
134
136
137
138
136
134
131
127
122
115
108
100
92
83
75
65
56
46
37
28
20
11
4
-4
-11
-18
-23
-29
-33
-37
-39
-42
-43
-44
-45
-46
-46
-45
-44
-43
-43
-41
-40
-39
-38
-37
-36
-35
-33
-32
-31
-31
-30
-30
-29
-29
-29
-28
-28
-27
-28
-27
-28
-28
-27
-28
-28
-27
-27
-28
-27
-27
-27
-26
-26
-26
-26
-25
-25
-25
-25
-25
-24
-24
-24
-24
-24
-24
-24
-24
-24
-23
-23
-23
-22
-22
-22
-22
-22
-22
-23
-23
-23
-22
-22
-22
-21
-21
-21
-21
-21
-21
-21
-21
-21
-21
-21
-21
-21
-20
-20
-20
-20
-20
-21
-21
-21
-21
-21
-20
-20
-20
-20
-21
-21
-20
-20
-20
-20
-19
-19
-19
-19
-19
-18
-18
-18
-18
-18
-18
-18
-18
-17
-17
-17
-16
-16
-16
-17
-17
-16
-15
-15
-15
-15
-14
-14
-13
-13
-13
-13
-12
-11
-11
-11
-11
-10
-10
-10
-10
-10
-9
-9
-9
-9
-9
-8
-8
-8
-8
-8
-7
-7
-7
-6
-6
-6
-5
-5
-4
-4
-3
-3
-2
-2
-2
-1
-1
-1
0
0
1
1
1
2
2
2
3
3
4
5
4
5
5
6
6
6
7
7
8
9
10
10
11
11
12
12
13
14
16
17
17
18
19
19
21
21
22
24
24
25
25
27
27
28
29
30
31
32
33
34
34
35
36
36
38
38
39
39
39
40
41
41
41
41
42
43
43
43
44
44
45
45
45
45
46
47
48
48
49
49
50
51
51
52
52
53
54
55
55
56
56
56
57
57
57
57
57
57
57
57
58
57
57
56
56
55
55
54
53
52
52
51
50
49
47
46
45
43
43
41
39
38
36
34
33
31
30
29
27
25
24
21
20
19
18
17
16
15
13
12
11
9
8
7
6
4
4
3
2
1
-1
-1
-3
-3
-4
-5
-6
-6
-7
-8
-8
-10
-10
-11
-11
-11
-12
-13
-13
-13
-13
-14
-14
-14
-14
-15
-15
-16
-16
-17
-17
-18
-18
-19
-19
-20
-20
-21
-21
-21
-22
-22
-21
-22
-22
-22
-22
-23
-22
-22
-23
-23
-22
-22
-23
-23
-23
-23
-23
-23
-23
-23
-23
-23
-23
-24
-24
-24
-24
-24
-23
-24
-24
-24
-24
-24
-23
-23
-23
-23
-23
-23
-23
-24
-24
-24
-24
-24
-24
-24
-23
-23
-24
-25
-24
-24
-24
-25
-25
-25
-25
-26
-26
-26
-26
-26
-26
-26
-26
-27
-27
-26
-26
-26
-26
-26
-26
-26
-26
-26
-26
-26
-26
-26
-26
-26
-26
-26
-26
-25
-25
-24
-24
-24
-24
-23
-23
-23
-23
-23
-24
-24
-24
-24
-24
-24
-24
-23
-23
-24
-24
-23
-23
-23
-23
-23
-23
-23
-23
-23
-23
-22
-22
-22
-21
-21
-21
-22
-23
-23
-23
-23
-23
-23
-23
-23
-23
-23
-23
-23
-23
-23
-24
-24
-23
-23
-23
-23
-24
-24
-24
-23
-23
-23
-23
-23
-22
-22
-22
-22
-22
-22
-21
-22
-22
-22
-22
-22
-22
-22
-22
-22
-22
-23
-23
-23
-23
-23
-23
-23
-23
-24
-24
-25
-24
-24
-24
-24
-23
-23
-23
-22
-22
-22
-21
-21
-21
-20
-20
-20
-20
-20
-20
-20
-19
-19
-19
-19
-19
-19
-20
-20
-20
-20
-21
-21
-21
-21
-21
-22
-22
-23
-22
-22
-22
-22
-23
-23
-23
-23
-23
-23
-22
-22
-22
-23
-23
-23
-23
-23
-22
-22
-22
-22
-22
-22
-22
-22
-22
-21
-21
-21
-21
-21
-21
-21
-21
-21
-21
-22
-22
-22
-22
-22
-22
-22
-22
-22
-23
-23
-23
-23
-23
-21
-21
-21
-21
-21
-21
-21
-20
-20
-19
-19
-19
-18
-19
-19
-20
-19
-19
-20
-20
-19
-20
-19
-20
-20
-20
-19
-20
-19
-19
-19
-18
-18
-17
-16
-16
-15
-15
-14
-14
-14
-12
-12
-12
-12
-12
-11
-11
-11
-11
-11
-11
-11
-11
-11
-11
-11
-11
-11
-11
-11
-11
-11
-11
-10
-10
-10
-10
-9
-10
-9
-9
-10
-9
-9
-10
-10
-11
-11
-10
-10
-11
-11
-11
-10
-11
-11
-11
-11
-11
-11
-10
-11
-11
-11
-11
-12
-12
-13
-13
-13
-13
-13
-14
-15
-16
-17
-18
-19
-20
-20
-20
-20
-21
-22
-22
-23
-23
-23
-22
-22
-23
-23
-22
-23
-23
-23
-23
-23
-23
-23
-23
-23
-23
-24
-23
-23
-24
-25
-25
-25
-25
-25
-26
-26
-26
-26
-26
-27
-27
-27
-27
-27
-28
-29
-29
-29
-29
-29
-30
-30
-30
-29
-29
-29
-29
-30
-29
-29
-29
-28
-28
-27
-26
-26
-27
-26
-26
-26
-26
-26
-26
-26
-25
-25
-25
-25
-25
-26
-26
-26
-27
-28
-28
-29
-29
-29
-30
-30
-31
-31
-33
-33
-33
-33
-33
-34
-34
-34
-34
-35
-35
-34
-33
-33
-33
-31
-30
-27
-25
-22
-19
-15
-12
-7
-3
2
9
15
22
30
37
45
53
61
68
77
84
92
99
107
113
119
124
128
132
134
136
137
137
136
135
131
127
121
115
109
101
92
84
75
66
58
47
39
29
21
13
5
-2
-9
-15
-20
-25
-29
-32
-35
-38
-39
-41
-41
-41
-41
-41
-40
-39
-38
-37
-36
-35
-34
-34
-32
-32
-32
-30
-30
-29
-28
-28
-28
-28
-28
-28
-28
-27
-28
-27
-27
-26
-27
-26
-26
-25
-25
-25
-24
-24
-23
-23
-24
-23
-22
-21
-21
-21
-21
-21
-21
-21
-21
-21
-22
-21
-21
-21
-21
-22
-22
-21
-21
-21
-21
-21
-21
-20
-19
-19
-19
-19
-19
-19
-18
-18
-17
-17
-17
-17
-17
-17
-16
-16
-17
-17
-17
-17
-17
-17
-17
-16
-15
-15
-15
-15
-16
-16
-16
-15
-14
-14
-14
-14
-14
-14
-14
-14
-14
-14
-13
-14
-15
-15
-15
-16
-16
-15
-15
-16
-16
-15
-16
-16
-16
-15
-15
-15
-15
-15
-14
-13
-13
-13
-12
-12
-12
-11
-11
-11
-10
-10
-10
-9
-8
-8
-8
-7
-8
-8
-7
-6
-6
-6
-5
-5
-5
-5
-4
-4
-4
-4
-2
-2
-2
-3
-2
-2
-2
-1
-1
0
0
1
1
1
2
1
2
2
3
4
4
5
4
5
6
5
6
6
7
7
8
8
9
10
11
12
13
13
14
15
16
16
17
18
18
19
19
20
21
22
22
23
23
24
24
26
26
26
27
27
29
30
30
32
32
33
34
35
36
36
37
38
39
39
40
41
42
42
42
42
43
43
44
44
46
46
46
47
47
48
48
49
49
49
49
49
50
51
51
52
52
52
53
53
53
53
54
54
55
55
55
56
56
57
56
57
57
56
56
56
56
54
54
54
53
53
51
50
49
48
47
46
45
45
43
42
40
39
38
37
37
36
35
34
33
32
31
30
28
27
26
25
24
22
21
20
19
16
15
13
11
10
9
7
6
4
4
2
0
0
-2
-3
-4
-5
-7
-7
-9
-9
-10
-10
-11
-12
-13
-14
-14
-14
-15
-15
-15
-16
-16
-16
-17
-17
-18
-18
-18
-18
-18
-19
-19
-19
-19
-20
-19
-19
-20
-20
-19
-19
-19
-19
-19
-19
-19
-18
-18
-19
-19
-19
-19
-19
-20
-20
-20
-20
-21
-21
-21
-21
-22
-22
-22
-23
-23
-23
-23
-22
-22
-22
-22
-23
-22
-22
-21
-21
-21
-20
-20
-20
-20
-20
-20
-20
-20
-20
-20
-20
-19
-20
-21
-21
-21
-21
-21
-22
-22
-22
-22
-23
-23
-23
-24
-24
-24
-24
-24
-24
-24
-25
-25
-25
-24
-24
-24
-24
-24
-24
-24
-24
-23
-23
-22
-22
-22
-22
-22
-22
-22
-22
-22
-22
-22
-22
-22
-22
-21
-22
-22
-22
-22
-22
-22
-22
-23
-23
-23
-23
-23
-24
-23
-23
-23
-22
-22
-22
-22
-22
-21
-22
-21
-21
-21
-21
-20
-20
-20
-20
-20
-20
-20
-20
-20
-20
-20
-19
-19
-19
-19
-19
-18
-18
-18
-18
-18
-18
-19
-18
-18
-18
-18
-19
-19
-19
-19
-18
-18
-19
-19
-19
-18
-18
-18
-18
-18
-18
-18
-18
-18
-18
-17
-17
-18
-18
-18
-18
-18
-17
-17
-17
-17
-17
-17
-18
-19
-19
-19
-20
-20
-20
-20
-20
-20
-20
-21
-21
-21
-21
-21
-21
-21
-20
-20
-21
-20
-20
-19
-19
-18
-19
-18
-18
-18
-18
-18
-17
-18
-18
-18
-18
-19
-20
-20
-21
-21
-21
-21
-21
-21
-22
-22
-22
-22
-22
-22
-22
-21
-21
-22
-21
-21
-21
-21
-21
-20
-20
-20
-20
-19
-19
-19
-19
-19
-19
-19
-19
-18
-17
-17
-17
-17
-17
-18
-18
-18
-18
-19
-19
-19
-19
-19
-19
-19
-20
-20
-20
-20
-20
-19
-19
-18
-18
-18
-18
-18
-19
-19
-19
-19
-19
-19
-20
-20
-21
-20
-20
-20
-20
-20
-20
-20
-20
-20
-19
-19
-19
-19
-19
-18
-18
-18
-18
-18
-17
-18
-17
-18
-18
-17
-18
-17
-17
-16
-17
-16
-16
-16
-16
-16
-15
-15
-14
-13
-13
-13
-12
-12
-12
-11
-11
-11
-11
-11
-11
-11
-10
-9
-9
-8
-8
-8
-8
-7
-7
-7
-7
-7
-7
-7
-7
-7
-7
-6
-7
-7
-7
-8
-8
-9
-9
-10
-10
-10
-10
-10
-10
-10
-10
-10
-10
-10
-10
-9
-9
-8
-8
-9
-8
-8
-8
-8
-9
-9
-9
-9
-9
-10
-11
-12
-12
-12
-14
-14
-16
-16
-18
-19
-19
-20
-21
-20
-21
-22
-23
-23
-24
-24
-24
-24
-24
-24
-25
-24
-25
-25
-25
-25
-25
-26
-25
-25
-25
-26
-26
-26
-26
-27
-27
-27
-26
-27
-27
-27
-27
-28
-28
-28
-28
-29
-28
-28
-28
-28
-29
-29
-29
-29
-28
-28
-27
-27
-27
-27
-27
-26
-26
-26
-25
-25
-25
-25
-25
-25
-25
-25
-25
-25
-25
-26
-26
-26
-26
-26
-26
-26
-26
-26
-27
-27
-27
-28
-28
-28
-28
-28
-28
-29
-28
-29
-29
-29
-29
-30
-30
-30
-29
-29
-29
-28
-27
-25
-24
-21
-19
-16
-12
-8
-3
2
8
14
21
28
35
43
51
59
67
75
81
89
97
104
110
116
121
125
129
132
133
135
135
134
132
129
124
120
113
106
99
91
83
75
66
57
48
38
30
21
14
7
-1
-7
-13
-18
-24
-28
-30
-33
-35
-37
-38
-38
-39
-39
-39
-39
-38
-38
-36
-36
-35
-33
-33
-32
-31
-31
-30
-30
-28
-28
-27
-27
-26
-26
-25
-25
-24
-25
-24
-23
-23
-23
-23
-23
-23
-23
-23
-22
-23
-23
-23
-23
-24
-24
-24
-25
-25
-25
-25
-25
-25
-25
-25
-24
-24
-25
-25
-25
-25
-24
-23
-23
-23
-23
-23
-22
-22
-22
-21
-21
-20
-20
-20
-20
-19
-19
-19
-19
-19
-19
-19
-19
-19
-18
-18
-18
-18
-18
-18
-18
-19
-19
-20
-19
-19
-19
-19
-18
-18
-18
-18
-18
-17
-17
-17
-17
-17
-17
-17
-17
-15
-15
-15
-16
-16
-16
-16
-16
-17
-16
-16
-16
-16
-16
-16
-15
-15
-16
-16
-15
-15
-15
-15
-14
-14
-13
-13
-12
-12
-12
-12
-12
-12
-11
-11
-11
-11
-11
-11
-11
-10
-10
-10
-11
-10
-10
-10
-10
-9
-9
-9
-9
-9
-8
-8
-7
-7
-6
-6
-6
-5
-5
-4
-3
-3
-3
-2
-2
-1
-1
-1
-1
0
0
1
0
1
2
2
3
4
3
4
5
6
5
6
7
8
9
8
9
10
11
11
12
13
13
14
15
16
16
18
18
18
19
20
21
22
23
25
26
27
28
29
29
30
31
32
33
34
35
36
36
37
37
38
38
38
38
38
38
39
40
40
40
40
42
42
42
42
43
43
44
44
45
45
46
46
47
47
48
48
49
49
49
50
50
51
51
51
51
52
52
52
52
53
53
53
53
52
52
51
51
50
49
49
48
47
47
46
45
44
43
41
40
40
38
38
36
35
34
33
31
30
29
27
25
24
22
21
19
18
17
15
14
13
11
9
7
6
5
4
2
1
0
-2
-2
-4
-5
-6
-6
-8
-9
-10
-12
-12
-13
-13
-14
-15
-15
-16
-17
-17
-18
-18
-19
-20
-20
-21
-21
-21
-22
-21
-22
-22
-23
-24
-24
-24
-25
-24
-25
-25
-25
-26
-26
-26
-27
-26
-26
-27
-27
-26
-26
-27
-27
-27
-28
-28
-28
-28
-28
-28
-29
-29
-29
-29
-29
-29
-29
-29
-29
-29
-29
-28
-28
-28
-28
-28
-28
-28
-29
-29
-29
-29
-29
-29
-29
-29
-29
-30
-30
-31
-31
-30
-30
-30
-30
-31
-31
-30
-30
-30
-31
-31
-31
-31
-32
-32
-31
-31
-31
-31
-31
-31
-32
-31
-31
-31
-31
-31
-31
-31
-31
-30
-30
-30
-30
-31
-31
-31
-31
-31
-30
-31
-31
-31
-31
-32
-32
-32
-31
-31
-32
-32
-32
-32
-32
-32
-32
-32
-32
-32
-32
-32
-32
-32
-33
-33
-33
-33
-33
-33
-32
-33
-33
-32
-32
-32
-32
-32
-32
-31
-31
-31
-30
-30
-30
-30
-30
-31
-31
-31
-31
-31
-31
-31
-31
-31
-31
-31
-32
-32
-32
-32
-32
-32
-32
-32
-32
-32
-32
-32
-32
-32
-32
-32
-32
-31
-31
-31
-31
-31
-31
-31
-31
-32
-32
-32
-32
-32
-32
-32
-32
-32
-32
-31
-31
-31
-31
-31
-31
-31
-31
-31
-31
-31
-31
-31
-31
-32
-32
-32
-32
-32
-32
-32
-32
-32
-32
-33
-33
-33
-33
-32
-32
-32
-32
-32
-32
-32
-32
-32
-32
-32
-32
-32
-32
-32
-32
-32
-32
-32
-32
-32
-32
-32
-32
-32
-31
-31
-31
-31
-32
-32
-33
-33
-33
-33
-32
-32
-32
-32
-32
-33
-33
-33
-33
-34
-33
-33
-33
-33
-34
-34
-34
-35
-35
-35
-35
-35
-35
-35
-35
-35
-35
-35
-35
-35
-35
-35
-35
-34
-34
-34
-34
-34
-34
-34
-34
-34
-34
-34
-34
-33
-33
-33
-33
-33
-33
-32
-32
-32
-32
-33
-33
-34
-34
-34
-34
-35
-35
-35
-36
-35
-35
-35
-35
-36
-35
-35
-36
-35
-35
-34
-34
-34
-33
-33
-32
-31
-31
-30
-30
-30
-29
-30
-29
-29
-30
-29
-28
-28
-27
-28
-27
-27
-26
-27
-27
-27
-26
-26
-26
-25
-26
-25
-25
-24
-25
-24
-24
-24
-24
-24
-23
-23
-24
-24
-24
-24
-24
-24
-23
-23
-23
-23
-23
-24
-24
-23
-24
-24
-24
-24
-24
-24
-25
-24
-24
-25
-25
-24
-25
-25
-25
-25
-25
-26
-26
-26
-27
-27
-28
-28
-28
-28
-30
-30
-31
-32
-32
-32
-34
-34
-35
-34
-35
-36
-36
-37
-37
-37
-37
-38
-38
-38
-39
-39
-39
-39
-39
-40
-40
-41
-41
-41
-42
-41
-42
-41
-42
-41
-42
-41
-41
-42
-42
-41
-42
-42
-42
-42
-43
-43
-43
-43
-44
-44
-44
-45
-45
-45
-45
-45
-45
-45
-46
-46
-46
-46
-46
-46
-45
-44
-44
-44
-44
-44
-44
-44
-44
-44
-43
-44
-44
-46
-46
-46
-46
-46
-45
-46
-46
-46
-47
-47
-47
-47
-46
-46
-46
-46
-46
-46
-46
-46
-46
-47
-46
-47
-47
-48
-47
-48
-47
-47
-46
-45
-44
-43
-41
-39
-36
-32
-29
-25
-21
-16
-12
-6
1
8
15
23
31
39
47
54
61
68
76
83
90
96
103
107
112
114
117
118
119
119
118
116
112
107
101
95
89
80
72
64
55
46
37
28
19
10
2
-6
-15
-21
-28
-33
-38
-43
-47
-50
-53
-55
-57
-57
-57
-57
-58
-57
-57
-56
-56
-55
-54
-53
-52
-51
-50
-49
-49
-47
-47
-46
-45
-45
-44
-43
-44
-43
-43
-43
-43
-42
-43
-42
-42
-42
-42
-42
-42
-42
-43
-43
-43
-42
-42
-42
-42
-42
-42
-42
-42
-41
-41
-41
-41
-41
-41
-41
-41
-40
-40
-40
-40
-40
-40
-40
-40
-40
-39
-39
-39
-39
-39
-38
-38
-39
-39
-39
-39
-38
-38
-38
-39
-39
-40
-40
-40
-38
-38
-38
-38
-38
-38
-37
-37
-37
-37
-37
-37
-37
-35
-35
-35
-34
-34
-34
-33
-33
-33
-33
-33
-34
-33
-33
-33
-34
-33
-33
-34
-34
-34
-34
-35
-35
-35
-34
-34
-34
-34
-34
-34
-34
-33
-33
-33
-33
-32
-32
-31
-30
-30
-30
-29
-29
-29
-28
-28
-28
-27
-28
-28
-27
-27
-27
-26
-26
-25
-25
-26
-25
-26
-26
-25
-25
-24
-24
-24
-24
-24
-23
-23
-23
-22
-22
-21
-21
-20
-20
-19
-18
-18
-17
-17
-16
-15
-15
-14
-13
-13
-12
-12
-12
-11
-11
-10
-9
-9
-8
-8
-7
-7
-6
-6
-5
-5
-5
-4
-3
-3
-2
-2
-1
-1
0
1
2
2
3
3
5
5
6
7
8
8
10
10
12
12
13
14
15
16
16
17
17
18
18
18
19
19
19
20
21
21
21
22
23
23
23
23
24
25
25
26
27
28
29
29
31
31
32
32
33
34
35
35
35
35
36
36
36
36
36
36
36
36
35
36
35
35
36
35
35
35
33
33
33
32
32
31
31
30
30
29
28
26
25
24
24
22
21
20
18
18
17
15
14
12
11
10
9
8
6
5
3
2
-1
-2
-4
-5
-7
-8
-10
-11
-13
-14
-16
-17
-18
-19
-20
-21
-23
-23
-24
-25
-25
-26
-27
-28
-28
-29
-29
-31
-31
-32
-33
-33
-34
-35
-36
-37
-37
-38
-39
-39
-39
-39
-40
-41
-41
-42
-42
-41
-42
-42
-42
-42
-42
-41
-42
-42
-42
-42
-43
-43
-43
-43
-43
-43
-44
-43
-43
-43
-43
-43
-44
-44
-44
-44
-44
-43
-44
-44
-44
-44
-44
-44
-44
-45
-45
-45
-44
-44
-45
-45
-45
-45
-45
-45
-46
-45
-45
-45
-45
-45
-45
-45
-45
-45
-45
-44
-44
-45
-45
-45
-45
-45
-45
-46
-46
-46
-47
-47
-47
-48
-48
-48
-48
-48
-48
-48
-48
-48
-48
-49
-49
-48
-48
-47
-47
-47
-46
-46
-46
-46
-46
-46
-46
-46
-46
-46
-46
-46
-47
-47
-48
-48
-48
-48
-49
-49
-49
-49
-49
-49
-49
-49
-49
-49
-48
-48
-48
-48
-47
-47
-47
-47
-46
-46
-46
-46
-46
-46
-46
-46
-46
-46
-46
-46
-46
-46
-46
-46
-47
-47
-47
-47
-46
-46
-46
-46
-47
-47
-47
-47
-46
-46
-46
-46
-47
-46
-46
-46
-46
-45
-45
-45
-45
-45
-45
-44
-44
-44
-45
-45
-43
-43
-43
-43
-44
-44
-44
-44
-44
-44
-44
-44
-44
-44
-45
-45
-45
-45
-45
-45
-45
-46
-46
-45
-44
-45
-45
-45
-45
-45
-45
-45
-45
-45
-44
-44
-45
-45
-45
-46
-46
-47
-47
-47
-47
-47
-48
-48
-48
-48
-48
-48
-48
-48
-48
-48
-48
-47
-47
-47
-46
-46
-46
-45
-44
-44
-44
-44
-44
-44
-44
-44
-44
-44
-44
-44
-44
-45
-45
-45
-45
-45
-45
-45
-45
-46
-46
-46
-46
-47
