# Simple Text Format
# Sampling Rate (Hz):= 1200.00
# Resolution:= 12
# Labels:= ECG	 V1
# Age:=	62
# Gender:=	Feminino
-103
-113
-124
-134
-146
-156
-167
-178
-189
-199
-208
-217
-226
-233
-240
-245
-251
-254
-256
-257
-258
-257
-255
-251
-248
-243
-237
-230
-222
-214
-205
-196
-186
-174
-166
-156
-146
-137
-128
-120
-112
-105
-99
-93
-88
-83
-80
-78
-74
-73
-70
-69
-68
-68
-68
-67
-68
-68
-69
-69
-70
-69
-70
-70
-70
-71
-71
-71
-71
-71
-71
-71
-70
-71
-71
-70
-71
-70
-70
-70
-70
-70
-70
-70
-69
-69
-70
-70
-70
-70
-70
-70
-70
-70
-70
-70
-70
-70
-70
-70
-70
-71
-71
-71
-71
-71
-71
-71
-71
-71
-71
-71
-71
-72
-72
-72
-72
-72
-72
-72
-72
-73
-73
-73
-73
-73
-73
-73
-74
-74
-74
-74
-74
-74
-74
-75
-75
-75
-75
-75
-75
-74
-74
-74
-74
-75
-75
-75
-75
-75
-75
-75
-75
-75
-75
-75
-76
-75
-75
-75
-75
-75
-75
-75
-75
-75
-75
-75
-75
-75
-75
-75
-75
-75
-76
-75
-75
-75
-75
-76
-76
-76
-76
-77
-77
-77
-77
-79
-79
-78
-78
-79
-79
-79
-80
-80
-80
-79
-80
-80
-80
-80
-79
-79
-80
-79
-79
-79
-80
-80
-80
-80
-79
-81
-81
-81
-81
-81
-82
-82
-83
-83
-84
-84
-85
-86
-86
-86
-86
-87
-88
-87
-88
-89
-88
-88
-88
-89
-88
-88
-88
-88
-88
-88
-89
-89
-89
-90
-90
-90
-91
-92
-93
-93
-94
-95
-95
-96
-97
-97
-99
-99
-100
-101
-101
-102
-103
-104
-104
-105
-106
-106
-107
-107
-107
-109
-109
-110
-111
-112
-112
-112
-114
-114
-115
-116
-117
-118
-118
-120
-120
-121
-122
-123
-123
-124
-125
-125
-126
-127
-128
-128
-129
-129
-130
-132
-132
-133
-133
-133
-134
-135
-135
-136
-137
-137
-137
-138
-139
-139
-139
-140
-140
-140
-140
-140
-139
-139
-139
-140
-139
-140
-139
-139
-138
-137
-136
-136
-135
-134
-134
-133
-132
-131
-131
-130
-128
-127
-126
-125
-124
-123
-122
-120
-119
-118
-117
-115
-114
-113
-110
-109
-108
-107
-106
-105
-104
-103
-101
-100
-99
-98
-96
-96
-95
-95
-93
-93
-92
-91
-91
-90
-89
-89
-88
-88
-87
-86
-86
-86
-86
-85
-85
-85
-84
-84
-84
-83
-83
-83
-83
-82
-82
-82
-82
-82
-82
-82
-81
-82
-82
-81
-81
-80
-80
-80
-81
-81
-80
-80
-80
-80
-80
-80
-80
-80
-80
-80
-80
-80
-80
-80
-80
-80
-80
-80
-80
-80
-80
-80
-80
-80
-80
-80
-80
-80
-80
-79
-79
-79
-79
-79
-79
-78
-78
-78
-77
-77
-77
-78
-77
-77
-77
-77
-77
-77
-77
-77
-78
-78
-78
-78
-78
-78
-78
-78
-78
-78
-78
-78
-78
-78
-78
-78
-77
-77
-77
-77
-77
-77
-77
-77
-77
-77
-77
-77
-77
-77
-77
-76
-76
-76
-76
-76
-76
-76
-77
-77
-77
-77
-77
-77
-77
-77
-77
-77
-77
-77
-77
-77
-77
-77
-78
-78
-78
-78
-78
-78
-78
-79
-79
-79
-79
-79
-79
-78
-78
-79
-79
-79
-79
-79
-79
-79
-79
-79
-80
-80
-80
-80
-79
-79
-79
-79
-79
-79
-80
-80
-80
-80
-80
-80
-80
-80
-80
-80
-79
-79
-79
-79
-79
-79
-80
-80
-80
-80
-80
-79
-79
-80
-80
-80
-80
-80
-80
-79
-79
-79
-80
-80
-80
-80
-80
-80
-80
-80
-80
-80
-80
-81
-81
-81
-81
-81
-81
-81
-81
-81
-81
-80
-80
-80
-80
-80
-80
-80
-80
-80
-79
-79
-79
-79
-79
-78
-78
-78
-78
-78
-78
-78
-78
-78
-78
-78
-78
-79
-79
-79
-79
-79
-79
-80
-80
-79
-79
-79
-79
-79
-79
-80
-80
-80
-80
-80
-80
-80
-80
-80
-79
-79
-79
-79
-79
-78
-78
-78
-78
-78
-78
-78
-78
-77
-77
-77
-77
-77
-77
-77
-77
-77
-76
-76
-77
-77
-77
-78
-77
-78
-78
-79
-80
-79
-80
-81
-81
-82
-82
-83
-84
-84
-84
-85
-86
-86
-87
-87
-88
-87
-88
-88
-89
-90
-90
-91
-91
-92
-92
-92
-92
-93
-93
-94
-94
-94
-93
-93
-93
-93
-92
-92
-92
-91
-91
-91
-91
-90
-90
-90
-90
-90
-91
-91
-91
-91
-91
-91
-90
-90
-90
-89
-90
-90
-90
-89
-89
-89
-89
-88
-88
-88
-87
-87
-87
-88
-88
-87
-87
-86
-86
-85
-85
-85
-84
-84
-83
-83
-82
-82
-81
-80
-80
-79
-78
-77
-77
-76
-77
-76
-75
-74
-75
-74
-73
-73
-73
-73
-72
-73
-72
-72
-72
-71
-71
-72
-71
-71
-71
-71
-71
-71
-71
-71
-71
-71
-71
-70
-70
-70
-71
-71
-70
-70
-70
-70
-70
-70
-70
-70
-70
-70
-70
-70
-70
-70
-70
-70
-70
-70
-69
-69
-69
-69
-69
-69
-69
-69
-69
-69
-69
-69
-69
-69
-69
-68
-68
-68
-68
-69
-68
-68
-68
-67
-66
-67
-65
-65
-63
-62
-60
-58
-57
-54
-52
-50
-47
-44
-41
-39
-36
-34
-31
-29
-28
-26
-25
-26
-27
-28
-30
-32
-36
-40
-45
-52
-58
-66
-73
-83
-91
-101
-112
-121
-132
-144
-155
-166
-177
-187
-197
-207
-216
-224
-232
-238
-244
-249
-253
-256
-256
-257
-255
-253
-250
-245
-240
-234
-228
-219
-211
-202
-193
-182
-172
-162
-153
-144
-134
-126
-117
-110
-103
-97
-90
-85
-81
-79
-76
-73
-71
-70
-69
-68
-67
-67
-66
-66
-67
-67
-67
-68
-68
-68
-68
-68
-68
-68
-68
-69
-68
-68
-68
-67
-67
-67
-67
-66
-67
-67
-66
-66
-66
-66
-66
-66
-66
-66
-66
-67
-67
-67
-67
-67
-67
-67
-67
-67
-67
-67
-67
-67
-68
-68
-68
-68
-68
-68
-68
-68
-68
-68
-68
-69
-69
-69
-69
-69
-69
-69
-70
-70
-70
-70
-70
-70
-70
-71
-70
-70
-70
-70
-70
-70
-69
-69
-69
-69
-69
-69
-70
-69
-69
-69
-70
-69
-69
-70
-71
-70
-70
-71
-71
-71
-71
-72
-72
-72
-72
-73
-73
-73
-73
-73
-74
-74
-73
-73
-73
-73
-73
-74
-74
-74
-74
-74
-73
-74
-74
-74
-74
-74
-74
-75
-74
-75
-75
-75
-75
-75
-75
-76
-76
-76
-76
-77
-77
-78
-78
-77
-77
-78
-78
-78
-79
-78
-78
-79
-79
-79
-80
-79
-80
-80
-80
-80
-80
-81
-81
-81
-82
-82
-82
-82
-83
-83
-84
-84
-84
-84
-85
-85
-86
-85
-86
-86
-86
-87
-87
-86
-86
-87
-87
-87
-87
-88
-89
-89
-89
-90
-90
-91
-91
-92
-93
-93
-94
-94
-96
-97
-97
-97
-98
-100
-100
-100
-102
-102
-103
-104
-105
-105
-107
-107
-108
-109
-109
-110
-111
-111
-113
-113
-114
-115
-116
-116
-117
-118
-119
-120
-120
-120
-122
-122
-122
-124
-124
-124
-126
-126
-127
-127
-127
-129
-129
-130
-130
-131
-132
-133
-133
-134
-135
-135
-136
-136
-137
-138
-138
-138
-139
-140
-140
-140
-140
-140
-141
-141
-141
-141
-140
-140
-141
-140
-140
-140
-139
-138
-138
-137
-137
-135
-134
-133
-133
-131
-130
-129
-128
-127
-126
-125
-123
-122
-121
-119
-118
-117
-115
-114
-113
-112
-110
-108
-107
-106
-105
-104
-103
-102
-101
-99
-98
-98
-97
-95
-94
-94
-93
-93
-92
-91
-91
-90
-90
-89
-89
-88
-88
-87
-87
-86
-85
-85
-86
-85
-86
-85
-85
-85
-84
-84
-83
-84
-83
-83
-82
-82
-83
-82
-82
-83
-83
-82
-82
-82
-82
-82
-81
-81
-81
-81
-81
-82
-81
-81
-80
-81
-81
-81
-81
-81
-81
-80
-80
-80
-80
-80
-80
-80
-80
-80
-80
-80
-81
-81
-81
-80
-80
-80
-80
-80
-80
-80
-81
-81
-81
-81
-81
-81
-81
-81
-81
-81
-81
-81
-81
-81
-80
-80
-80
-80
-80
-80
-80
-80
-80
-80
-80
-80
-80
-80
-80
-80
-79
-79
-79
-79
-79
-79
-79
-79
-79
-79
-78
-78
-78
-78
-78
-78
-79
-79
-79
-79
-79
-79
-79
-79
-80
-80
-80
-80
-80
-80
-80
-80
-80
-80
-80
-80
-80
-80
-80
-81
-81
-80
-80
-80
-80
-80
-80
-80
-80
-80
-80
-80
-80
-80
-80
-80
-80
-80
-80
-80
-80
-80
-81
-81
-81
-81
-81
-81
-81
-82
-82
-82
-82
-82
-82
-82
-82
-82
-82
-82
-81
-81
-81
-81
-81
-81
-81
-81
-81
-81
-80
-80
-80
-81
-81
-81
-81
-81
-80
-80
-81
-81
-81
-81
-81
-81
-81
-81
-81
-81
-81
-81
-81
-81
-81
-81
-81
-81
-80
-80
-80
-81
-81
-81
-81
-81
-80
-80
-80
-80
-81
-81
-80
-80
-80
-80
-80
-80
-80
-80
-80
-81
-81
-81
-81
-81
-81
-81
-81
-81
-81
-81
-81
-81
-81
-81
-80
-80
-81
-81
-81
-81
-80
-80
-80
-80
-81
-81
-81
-81
-81
-80
-80
-80
-80
-80
-80
-80
-80
-80
-80
-81
-81
-81
-81
-81
-81
-81
-81
-81
-81
-81
-81
-81
-81
-81
-81
-81
-81
-82
-81
-81
-81
-81
-82
-82
-82
-83
-82
-83
-83
-83
-84
-84
-84
-85
-85
-86
-86
-87
-87
-88
-88
-88
-89
-90
-90
-91
-91
-92
-92
-92
-93
-93
-94
-94
-94
-94
-94
-95
-95
-95
-94
-94
-94
-94
-94
-94
-94
-94
-94
-94
-94
-94
-93
-93
-93
-93
-93
-92
-91
-91
-91
-91
-90
-90
-90
-89
-89
-89
-88
-88
-89
-89
-89
-89
-88
-88
-87
-87
-88
-87
-87
-87
-87
-86
-86
-86
-86
-85
-84
-85
-84
-83
-82
-82
-81
-81
-81
-80
-79
-79
-78
-77
-77
-77
-76
-76
-75
-74
-74
-74
-74
-73
-73
-74
-73
-73
-73
-72
-72
-73
-73
-73
-72
-72
-72
-72
-73
-73
-73
-73
-73
-73
-73
-73
-73
-72
-72
-72
-72
-72
-72
-72
-72
-72
-72
-72
-72
-72
-72
-72
-71
-71
-71
-71
-72
-71
-71
-71
-71
-71
-71
-71
-70
-70
-70
-70
-70
-70
-70
-70
-69
-69
-69
-68
-67
-66
-66
-65
-63
-62
-60
-59
-57
-55
-52
-50
-47
-44
-41
-39
-37
-34
-32
-31
-29
-28
-28
-28
-29
-30
-32
-36
-39
-44
-49
-54
-62
-69
-77
-86
-94
-105
-115
-125
-136
-147
-158
-169
-179
-190
-200
-210
-218
-227
-234
-241
-246
-251
-254
-255
-257
-257
-255
-252
-249
-244
-239
-233
-224
-217
-207
-199
-189
-178
-168
-158
-148
-139
-130
-122
-114
-106
-99
-94
-88
-83
-80
-77
-74
-71
-70
-69
-68
-67
-66
-66
-66
-66
-67
-67
-68
-68
-69
-69
-68
-68
-69
-69
-69
-69
-69
-69
-69
-69
-68
-68
-68
-68
-67
-68
-67
-67
-68
-68
-67
-67
-67
-68
-68
-67
-67
-67
-67
-66
-66
-66
-66
-67
-67
-67
-67
-67
-67
-67
-68
-68
-68
-68
-68
-69
-69
-69
-69
-69
-69
-70
-70
-70
-70
-70
-70
-71
-70
-70
-70
-70
-70
-70
-71
-71
-71
-71
-71
-71
-71
-70
-70
-70
-70
-70
-70
-70
-71
-71
-71
-71
-71
-71
-71
-71
-71
-71
-71
-72
-72
-72
-72
-72
-73
-73
-73
-73
-73
-73
-73
-73
-73
-73
-72
-73
-73
-73
-73
-73
-74
-74
-74
-74
-74
-75
-75
-75
-75
-75
-76
-76
-76
-76
-76
-77
-77
-77
-77
-77
-77
-77
-77
-78
-78
-77
-77
-78
-78
-78
-79
-78
-78
-78
-79
-79
-79
-79
-80
-80
-80
-79
-80
-80
-80
-81
-81
-82
-82
-82
-82
-82
-82
-83
-83
-84
-84
-84
-85
-84
-85
-86
-86
-86
-87
-87
-87
-88
-89
-88
-88
-89
-90
-90
-91
-92
-92
-92
-92
-93
-95
-95
-96
-96
-97
-98
-99
-99
-100
-101
-102
-102
-102
-104
-104
-105
-106
-106
-107
-108
-108
-109
-109
-110
-111
-111
-112
-112
-114
-114
-115
-115
-116
-117
-118
-118
-119
-119
-120
-120
-122
-122
-123
-124
-125
-125
-126
-127
-127
-128
-129
-130
-130
-131
-132
-133
-133
-133
-135
-135
-136
-137
-137
-137
-138
-139
-138
-139
-139
-140
-140
-139
-140
-140
-140
-140
-139
-139
-140
-139
-138
-138
-138
-137
-136
-135
-134
-134
-132
-132
-131
-129
-128
-127
-126
-125
-124
-123
-122
-119
-118
-117
-116
-115
-114
-113
-110
-109
-108
-107
-106
-105
-103
-102
-101
-101
-99
-98
-97
-97
-95
-95
-93
-93
-91
-91
-91
-90
-89
-88
-88
-88
-87
-87
-86
-87
-86
-86
-85
-85
-84
-84
-84
-83
-83
-83
-82
-81
-82
-81
-81
-81
-80
-80
-81
-80
-80
-80
-80
-80
-80
-79
-79
-80
-80
-80
-80
-80
-80
-80
-80
-81
-81
-80
-80
-80
-80
-80
-80
-80
-80
-79
-79
-79
-79
-79
-79
-79
-78
-78
-78
-78
-78
-78
-78
-78
-78
-78
-78
-77
-77
-77
-77
-77
-77
-77
-77
-77
-77
-77
-77
-77
-77
-77
-77
-77
-77
-78
-78
-78
-78
-78
-78
-77
-78
-78
-78
-78
-78
-78
-78
-78
-77
-77
-77
-77
-76
-77
-77
-76
-76
-76
-76
-76
-76
-76
-76
-76
-76
-77
-77
-77
-77
-77
-77
-77
-77
-77
-77
-77
-77
-77
-77
-77
-77
-77
-77
-77
-77
-78
-78
-78
-78
-78
-78
-78
-78
-78
-78
-78
-78
-78
-78
-78
-77
-77
-77
-77
-77
-78
-78
-78
-78
-78
-78
-78
-78
-78
-78
-78
-78
-78
-78
-78
-78
-78
-78
-78
-78
-78
-78
-78
-78
-78
-78
-78
-78
-78
-79
-79
-79
-79
-79
-79
-79
-79
-79
-79
-79
-79
-79
-79
-79
-78
-78
-78
-78
-78
-79
-79
-78
-78
-78
-78
-78
-78
-77
-77
-77
-77
-77
-77
-77
-77
-77
-77
-78
-78
-78
-78
-78
-78
-78
-78
-78
-78
-78
-78
-78
-78
-78
-77
-77
-77
-77
-77
-77
-77
-77
-77
-77
-77
-77
-77
-77
-77
-77
-78
-78
-78
-78
-78
-78
-78
-78
-78
-78
-78
-79
-78
-78
-78
-77
-77
-77
-76
-76
-76
-76
-77
-76
-76
-76
-76
-76
-77
-77
-76
-78
-78
-77
-78
-78
-79
-79
-79
-80
-80
-80
-81
-81
-82
-81
-82
-83
-83
-84
-84
-85
-86
-87
-88
-88
-89
-90
-90
-91
-92
-92
-93
-93
-93
-93
-94
-94
-93
-93
-93
-92
-92
-91
-91
-91
-91
-91
-91
-90
-90
-90
-90
-90
-90
-90
-90
-90
-91
-91
-91
-91
-91
-91
-91
-91
-90
-90
-91
-91
-90
-90
-89
-89
-89
-89
-88
-88
-87
-87
-87
-87
-86
-86
-85
-85
-84
-84
-83
-83
-83
-82
-81
-80
-80
-80
-79
-78
-78
-77
-76
-76
-76
-75
-75
-74
-73
-73
-73
-73
-72
-72
-72
-71
-71
-72
-71
-71
-70
-70
-71
-70
-70
-70
-69
-70
-69
-69
-69
-69
-68
-68
-69
-69
-69
-69
-69
-68
-68
-68
-68
-68
-68
-68
-68
-69
-69
-68
-68
-67
-67
-67
-67
-67
-67
-67
-67
-67
-67
-67
-67
-66
-66
-67
-67
-67
-67
-66
-66
-66
-67
-66
-66
-66
-66
-66
-65
-65
-65
-64
-62
-62
-60
-59
-57
-55
-52
-50
-47
-45
-42
-39
-36
-33
-31
-29
-26
-25
-24
-22
-22
-23
-24
-26
-28
-32
-37
-41
-47
-54
-62
-70
-77
-86
-96
-107
-117
-128
-139
-150
-161
-171
-181
-192
-201
-210
-218
-225
-232
-238
-242
-246
-248
-249
-249
-247
-245
-242
-237
-232
-226
-219
-211
-202
-193
-184
-173
-163
-154
-144
-135
-126
-118
-110
-103
-95
-89
-84
-79
-75
-71
-69
-66
-65
-63
-62
-61
-61
-60
-61
-61
-61
-62
-62
-63
-63
-64
-64
-65
-65
-65
-65
-65
-65
-65
-65
-65
-64
-64
-64
-64
-63
-63
-64
-63
-63
-63
-62
-62
-63
-63
-62
-62
-62
-62
-62
-62
-63
-62
-62
-63
-63
-63
-63
-63
-63
-62
-62
-63
-63
-64
-64
-64
-64
-64
-64
-64
-65
-65
-64
-65
-65
-65
-65
-65
-65
-65
-64
-66
-66
-66
-66
-65
-65
-65
-66
-66
-66
-65
-66
-66
-66
-66
-66
-67
-67
-67
-67
-67
-67
-68
-68
-68
-68
-68
-68
-69
-69
-69
-69
-69
-69
-69
-69
-69
-69
-68
-68
-68
-69
-69
-69
-69
-69
-69
-70
-70
-70
-70
-70
-70
-70
-71
-71
-71
-71
-71
-71
-71
-71
-72
-72
-71
-72
-72
-72
-73
-72
-72
-73
-73
-73
-73
-74
-73
-73
-73
-73
-74
-74
-74
-74
-74
-75
-75
-74
-74
-75
-75
-75
-75
-75
-76
-76
-77
-77
-78
-77
-78
-79
-79
-80
-80
-81
-81
-81
-82
-83
-84
-83
-84
-85
-85
-85
-85
-86
-87
-87
-87
-87
-88
-89
-89
-89
-89
-90
-89
-90
-90
-90
-91
-92
-92
-93
-93
-95
-96
-96
-97
-98
-99
-99
-100
-101
-102
-103
-104
-104
-105
-106
-107
-108
-109
-109
-110
-111
-111
-112
-113
-113
-114
-114
-115
-116
-116
-117
-117
-118
-118
-119
-120
-120
-121
-121
-122
-122
-123
-123
-124
-124
-125
-126
-127
-128
-128
-129
-129
-130
-131
-131
-132
-133
-132
-133
-134
-133
-134
-134
-134
-134
-134
-134
-134
-133
-133
-132
-133
-132
-131
-130
-130
-130
-128
-128
-127
-125
-125
-124
-123
-122
-120
-120
-119
-117
-116
-115
-114
-112
-111
-110
-109
-108
-107
-106
-105
-104
-102
-101
-99
-99
-98
-97
-96
-95
-94
-92
-92
-91
-90
-89
-89
-88
-87
-87
-87
-87
-85
-85
-85
-84
-84
-83
-83
-82
-82
-81
-81
-81
-81
-80
-80
-79
-80
-79
-79
-78
-78
-78
-77
-78
-76
-77
-77
-76
-77
-77
-77
-76
-76
-76
-75
-75
-75
-76
-75
-75
-75
-75
-75
-75
-75
-75
-75
-74
-74
-75
-75
-75
-74
-75
-75
-75
-75
-75
-75
-75
-74
-74
-74
-74
-74
-73
-73
-73
-73
-73
-73
-73
-73
-73
-73
-73
-73
-73
-72
-72
-72
-72
-73
-73
-73
-73
-73
-73
-73
-73
-73
-73
-73
-73
-73
-73
-73
-73
-73
-73
-73
-73
-73
-73
-73
-73
-72
-72
-73
-73
-73
-73
-73
-73
-73
-73
-73
-73
-73
-73
-74
-74
-74
-74
-74
-74
-74
-74
-74
-74
-74
-74
-75
-75
-75
-75
-75
-75
-75
-75
-75
-75
-74
-74
-74
-74
-74
-74
-74
-74
-74
-74
-74
-74
-74
-74
-74
-75
-75
-75
-74
-74
-74
-75
-75
-75
-75
-75
-76
-76
-75
-75
-75
-75
-75
-75
-77
-76
-76
-76
-76
-76
-76
-77
-77
-77
-76
-76
-76
-76
-76
-76
-75
-76
-76
-76
-75
-75
-75
-75
-75
-75
-75
-75
-75
-75
-75
-75
-75
-75
-75
-75
-75
-76
-76
-76
-76
-75
-75
-75
-75
-75
-75
-75
-75
-75
-75
-75
-75
-75
-75
-75
-75
-75
-76
-76
-76
-76
-76
-76
-76
-76
-76
-76
-75
-75
-76
-76
-76
-75
-75
-75
-75
-75
-75
-75
-76
-76
-75
-75
-75
-75
-75
-75
-75
-75
-75
-75
-75
-74
-74
-74
-74
-74
-74
-74
-74
-74
-74
-74
-74
-75
-75
-75
-74
-74
-74
-75
-75
-75
-75
-74
-74
-74
-74
-74
-74
-74
-75
-75
-75
-75
-75
-75
-75
-75
-76
-75
-76
-77
-76
-77
-77
-78
-78
-78
-79
-80
-80
-81
-82
-83
-83
-84
-85
-85
-86
-86
-87
-88
-88
-89
-89
-89
-90
-90
-91
-91
-91
-91
-90
-90
-90
-90
-90
-90
-90
-90
-89
-89
-89
-89
-89
-89
-89
-89
-89
-89
-89
-88
-88
-88
-88
-88
-88
-87
-88
-87
-87
-87
-86
-86
-86
-85
-85
-85
-84
-84
-83
-83
-82
-83
-82
-82
-81
-82
-81
-80
-80
-79
-79
-78
-78
-78
-77
-76
-76
-75
-75
-74
-74
-73
-72
-72
-71
-71
-70
-70
-69
-69
-69
-68
-68
-67
-68
-67
-67
-67
-66
-66
-66
-66
-66
-66
-66
-66
-66
-66
-66
-66
-66
-66
-66
-66
-66
-66
-66
-66
-66
-65
-65
-66
-66
-66
-66
-65
-65
-65
-65
-65
-65
-65
-65
-65
-65
-65
-64
-64
-64
-64
-65
-65
-65
-65
-65
-65
-65
-65
-64
-64
-64
-65
-65
-64
-64
-64
-63
-62
-62
-61
-60
-59
-56
-55
-53
-50
-48
-46
-43
-40
-37
-34
-31
-29
-27
-25
-23
-21
-21
-20
-21
-22
-24
-27
-30
-34
-39
-46
-52
-60
-67
-76
-84
-93
-103
-114
-125
-136
-146
-158
-168
-178
-188
-197
-207
-215
-222
-228
-235
-240
-243
-245
-247
-247
-246
-243
-241
-236
-231
-225
-219
-211
-202
-194
-184
-174
-164
-154
-144
-135
-126
-118
-109
-101
-95
-88
-82
-79
-75
-71
-67
-64
-62
-61
-60
-59
-59
-59
-59
-59
-59
-60
-60
-61
-61
-62
-62
-63
-63
-63
-63
-63
-63
-64
-63
-63
-62
-63
-63
-63
-63
-62
-63
-62
-62
-62
-62
-62
-62
-62
-62
-62
-62
-63
-63
-63
-63
-63
-64
-64
-63
-63
-63
-63
-64
-64
-64
-64
-63
-64
-64
-64
-64
-64
-64
-64
-64
-64
-64
-64
-64
-64
-64
-64
-64
-64
-64
-64
-64
-64
-64
-64
-64
-65
-65
-65
-65
-65
-65
-65
-65
-65
-65
-65
-65
-65
-65
-65
-66
-65
-65
-65
-65
-65
-65
-66
-66
-66
-66
-66
-66
-67
-67
-67
-67
-67
-68
-68
-68
-68
-67
-68
-68
-69
-69
-68
-68
-68
-68
-68
-68
-69
-69
-69
-69
-69
-69
-70
-70
-70
-70
-70
-70
-71
-71
-71
-71
-70
-71
-71
-71
-71
-72
-72
-72
-72
-72
-72
-73
-73
-73
-74
-74
-75
-75
-75
-75
-75
-76
-76
-77
-77
-77
-77
-77
-78
-78
-79
-78
-79
-80
-80
-80
-80
-81
-80
-81
-82
-81
-82
-82
-83
-83
-83
-84
-84
-85
-85
-85
-86
-87
-87
-88
-89
-89
-90
-91
-92
-92
-93
-93
-94
-93
-94
-94
-95
-96
-96
-97
-97
-98
-99
-99
-99
-101
-101
-101
-103
-103
-104
-105
-107
-107
-107
-108
-109
-110
-110
-112
-113
-113
-114
-115
-115
-116
-117
-117
-118
-119
-120
-120
-121
-121
-122
-122
-124
-124
-125
-125
-126
-127
-127
-128
-129
-129
-129
-130
-131
-131
-132
-133
-133
-133
-133
-133
-134
-134
-135
-135
-134
-134
-134
-134
-134
-134
-133
-132
-133
-132
-131
-131
-130
-128
-128
-126
-126
-125
-124
-123
-122
-121
-119
-119
-118
-117
-116
-115
-114
-113
-112
-110
-109
-108
-107
-106
-105
-104
-102
-101
-100
-99
-97
-96
-96
-94
-93
-93
-91
-91
-90
-90
-89
-88
-87
-87
-86
-85
-85
-84
-83
-83
-83
-83
-81
-81
-81
-80
-80
-80
-79
-79
-79
-78
-78
-78
-77
-78
-77
-77
-77
-77
-76
-76
-77
-76
-76
-76
-76
-76
-76
-76
-76
-75
-75
-75
-76
-75
-75
-75
-75
-75
-75
-75
-75
-75
-75
-75
-75
-75
-75
-75
-75
-74
-74
-74
-74
-74
-74
-74
-74
-74
-74
-74
-74
-74
-73
-73
-73
-73
-73
-73
-73
-73
-73
-73
-72
-72
-72
-72
-72
-72
-73
-73
-73
-73
-72
-72
-72
-72
-73
-73
-73
-73
-73
-73
-73
-72
-72
-72
-72
-72
-72
-72
-72
-72
-72
-72
-72
-72
-72
-72
-72
-72
-72
-72
-72
-72
-72
-72
-72
-73
-73
-73
-73
-74
-74
-73
-73
-73
-73
-73
-74
-74
-73
-73
-74
-75
-75
-75
-75
-75
-75
-75
-75
-74
-74
-75
-75
-75
-75
-74
-74
-74
-74
-74
-74
-74
-74
-75
-75
-75
-76
-76
-76
-76
-76
-76
-76
-76
-76
-76
-76
-76
-76
-76
-76
-76
-75
-74
-74
-74
-74
-74
-75
-75
-75
-75
-75
-75
-75
-75
-75
-75
-75
-75
-75
-76
-76
-76
-76
-76
-76
-76
-76
-76
-76
-76
-76
-76
-74
-74
-74
-75
-75
-75
-75
-75
-75
-75
-75
-75
-75
-75
-75
-75
-75
-75
-75
-75
-75
-75
-75
-75
-75
-75
-75
-75
-75
-75
-75
-75
-75
-75
-75
-75
-75
-74
-75
-75
-75
-75
-75
-75
-75
-75
-75
-75
-75
-75
-75
-75
-75
-75
-75
-75
-75
-75
-76
-76
-76
-76
-76
-76
-76
-75
-75
-75
-75
-75
-75
-75
-75
-75
-75
-75
-75
-75
-75
-75
-75
-75
-75
-75
-75
-75
-75
-75
-75
-75
-75
-75
-75
-75
-75
-75
-75
-75
-74
-74
-74
-74
-74
-74
-74
-74
-74
-74
-74
-74
-74
-74
-75
-74
-74
-75
-74
-75
-74
-75
-75
-76
-77
-77
-77
-77
-78
-78
-79
-80
-80
-81
-82
-83
-83
-84
-85
-86
-86
-87
-88
-88
-89
-89
-89
-89
-91
-91
-91
-90
-90
-90
-91
-91
-90
-90
-90
-89
-89
-89
-89
-88
-88
-88
-88
-88
-88
-88
-88
-88
-87
-87
-87
-87
-88
-88
-88
-88
-87
-87
-88
-87
-87
-87
-86
-86
-86
-86
-85
-85
-84
-84
-83
-83
-83
-82
-82
-81
-81
-80
-80
-79
-79
-79
-78
-77
-77
-76
-75
-75
-74
-73
-73
-73
-73
-72
-71
-71
-71
-70
-69
-69
-68
-69
-68
-68
-67
-67
-68
-68
-67
-67
-67
-67
-67
-67
-67
-67
-67
-66
-66
-66
-67
-67
-67
-67
-66
-66
-66
-66
-66
-66
-65
-65
-65
-65
-65
-64
-65
-65
-65
-65
-65
-65
-65
-65
-65
-65
-66
-66
-66
-66
-66
-66
-66
-66
-66
-66
-66
-65
-65
-65
-65
-65
-64
-64
-64
-63
-63
-62
-62
-60
-59
-58
-56
-54
-53
-50
-48
-45
-43
-41
-38
-35
-32
-30
-28
-25
-24
-23
-22
-21
-21
-22
-24
-26
-30
-34
-39
-44
-50
-58
-66
-73
-81
-91
-101
-111
-122
-133
-144
-155
-166
-176
-186
-196
-205
-215
-223
-230
-236
-240
-245
-248
-250
-251
-250
-249
-246
-241
-237
-231
-225
-217
-209
-200
-190
-180
-171
-161
-151
-142
-133
-124
-116
-108
-100
-94
-88
-84
-80
-76
-73
-70
-68
-67
-65
-64
-64
-63
-62
-63
-63
-63
-64
-64
-64
-65
-65
-65
-65
-65
-65
-65
-65
-64
-65
-65
-64
-65
-64
-64
-64
-64
-64
-64
-63
-63
-63
-64
-63
-63
-63
-63
-63
-62
-63
-63
-63
-62
-62
-62
-62
-62
-62
-62
-63
-63
-63
-63
-63
-63
-63
-63
-63
-63
-63
-64
-64
-64
-64
-64
-64
-64
-64
-64
-63
-64
-64
-64
-64
-64
-64
-64
-65
-65
-65
-65
-65
-66
-66
-66
-66
-66
-67
-67
-67
-67
-67
-67
-68
-68
-68
-68
-67
-67
-67
-68
-68
-68
-67
-67
-67
-67
-68
-68
-68
-68
-68
-68
-68
-69
-70
-69
-69
-69
-69
-70
-70
-71
-71
-70
-71
-71
-70
-70
-71
-71
-71
-71
-71
-71
-72
-72
-72
-71
-71
-71
-72
-72
-72
-72
-73
-73
-72
-72
-73
-73
-73
-74
-74
-74
-74
-75
-75
-74
-75
-75
-75
-76
-76
-76
-77
-76
-77
-77
-77
-77
-77
-78
-77
-78
-78
-79
-80
-80
-80
-80
-81
-81
-82
-82
-83
-84
-84
-84
-85
-86
-86
-87
-86
-87
-88
-89
-89
-90
-90
-90
-91
-91
-92
-92
-93
-94
-94
-95
-95
-95
-96
-96
-97
-97
-98
-99
-100
-100
-101
-102
-104
-104
-105
-106
-107
-107
-108
-109
-110
-110
-112
-112
-113
-114
-115
-115
-117
-117
-118
-118
-120
-120
-121
-121
-122
-122
-123
-123
-124
-124
-125
-126
-126
-126
-127
-128
-129
-129
-130
-130
-131
-132
-132
-133
-134
-135
-135
-136
-136
-136
-137
-137
-137
-138
-138
-138
-138
-137
-137
-136
-136
-135
-135
-134
-134
-133
-132
-131
-131
-129
-129
-128
-127
-126
-124
-123
-123
-122
-120
-119
-118
-116
-115
-113
-112
-111
-110
-109
-108
-107
-106
-105
-103
-101
-101
-100
-99
-98
-97
-97
-95
-95
-95
-93
-93
-92
-92
-90
-90
-88
-88
-87
-87
-86
-86
-85
-85
-84
-83
-83
-82
-82
-81
-81
-81
-80
-80
-80
-79
-79
-78
-78
-79
-78
-78
-77
-78
-78
-78
-77
-77
-77
-77
-78
-77
-77
-77
-77
-78
-78
-77
-76
-76
-76
-76
-76
-76
-76
-76
-76
-76
-76
-76
-75
-75
-75
-75
-75
-75
-75
-76
-76
-76
-75
-75
-75
-75
-75
-75
-75
-75
-75
-75
-75
-75
-75
-75
-75
-74
-74
-75
-75
-74
-74
-75
-75
-75
-75
-75
-75
-75
-75
-75
-75
-75
-75
-75
-75
-75
-75
-75
-75
-75
-75
-75
-75
-75
-75
-75
-75
-74
-74
-74
-74
-75
-75
-75
-75
-75
-75
-75
-75
-75
-75
-74
-74
-74
-74
-75
-75
-75
-75
-75
-75
-75
-75
-75
-75
-75
-75
-75
-75
-75
-75
-75
-75
-75
-75
-75
-75
-75
-75
-75
-75
-75
-76
-76
-76
-76
-76
-76
-76
-77
-77
-77
-77
-76
-76
-76
-76
-77
-77
-76
-76
-76
-76
-76
-76
-76
-76
-76
-76
-76
-76
-76
-76
-77
-77
-77
-77
-77
-77
-77
-77
-77
-77
-77
-77
-76
-76
-76
-76
-76
-76
-77
-77
-77
-77
-77
-77
-76
-76
-76
-76
-76
-76
-76
-76
-76
-76
-76
-76
-76
-76
-76
-77
-77
-77
-76
-76
-77
-77
-77
-77
-77
-77
-77
-77
-77
-77
-77
-78
-78
-78
-77
-77
-78
-77
-76
-76
-76
-76
-76
-76
-76
-76
-76
-77
-77
-77
-77
-76
-76
-76
-76
-76
-77
-77
-77
-77
-77
-77
-77
-77
-77
-77
-77
-77
-77
-77
-77
-77
-77
-77
-77
-77
-77
-77
-77
-77
-77
-77
-77
-77
-77
-77
-77
-76
-76
-77
-77
-77
-76
-76
-76
-76
-76
-76
-76
-76
-76
-76
-76
-76
-76
-75
-75
-76
-76
-76
-76
-77
-77
-77
-77
-78
-77
-78
-78
-79
-79
-79
-79
-80
-81
-81
-81
-82
-83
-84
-84
-85
-86
-87
-87
-88
-89
-89
-90
-91
-91
-92
-93
-94
-94
-94
-93
-94
-94
-94
-94
-94
-94
-94
-94
-94
-93
-93
-93
-93
-93
-93
-92
-92
-92
-92
-92
-92
-92
-92
-92
-92
-92
-92
-92
-92
-92
-92
-91
-91
-91
-91
-90
-90
-90
-89
-89
-88
-88
-88
-87
-87
-87
-86
-86
-86
-85
-84
-84
-84
-84
-83
-82
-82
-82
-81
-80
-80
-79
-79
-78
-78
-77
-77
-76
-75
-76
-75
-74
-73
-73
-73
-73
-72
-73
-72
-72
-72
-72
-72
-72
-71
-71
-71
-71
-71
-71
-70
-71
-71
-71
-71
-71
-70
-70
-70
-70
-70
-70
-70
-70
-70
-70
-69
-69
-69
-69
-69
-69
-69
-69
-69
-69
-70
-70
-70
-70
-70
-71
-71
-70
-70
-70
-70
-70
-70
-70
-70
-70
-70
-70
-70
-70
-70
-69
-69
-69
-68
-67
-67
-66
-65
-63
-62
-60
-58
-56
-53
-50
-47
-46
-43
-40
-37
-35
-32
-30
-28
-27
-27
-26
-26
-27
-29
-32
-35
-40
-45
-51
-58
-65
-73
-83
-91
-101
-110
-121
-132
-143
-154
-164
-175
-185
-195
-205
-214
-223
-230
-236
-242
-247
-250
-252
-254
-255
-254
-251
-248
-244
-239
-233
-226
-219
-211
-201
-193
-182
-173
-164
-154
-145
-136
-128
-119
-112
-105
-98
-93
-89
-85
-81
-77
-75
-73
-71
-69
-68
-68
-68
-68
-68
-69
-69
-70
-69
-70
-70
-71
-70
-71
-71
-71
-71
-70
-70
-70
-70
-70
-69
-70
-69
-69
-69
-68
-68
-68
-68
-69
-68
-68
-68
-68
-68
-68
-68
-68
-69
-69
-69
-69
-69
-69
-69
-69
-69
-69
-69
-70
-70
-71
-71
-71
-71
-71
-71
-71
-71
-72
-72
-72
-72
-72
-72
-73
-73
-73
-72
-72
-72
-73
-73
-73
-73
-73
-72
-73
-73
-73
-73
-73
-73
-73
-74
-73
-73
-73
-73
-74
-74
-74
-74
-74
-75
-74
-74
-74
-74
-74
-75
-75
-75
-75
-76
-76
-75
-76
-76
-76
-76
-76
-77
-77
-77
-76
-76
-77
-77
-77
-77
-77
-78
-77
-77
-77
-78
-78
-78
-78
-78
-78
-79
-79
-78
-78
-79
-79
-80
-79
-80
-80
-80
-80
-81
-81
-81
-81
-81
-81
-81
-81
-82
-82
-83
-83
-82
-83
-83
-83
-84
-84
-83
-84
-84
-85
-85
-86
-86
-86
-87
-87
-88
-88
-88
-89
-90
-90
-90
-90
-90
-91
-92
-93
-92
-93
-94
-94
-94
-95
-96
-96
-96
-97
-97
-98
-98
-98
-97
-98
-98
-99
-99
-100
-101
-101
-102
-102
-104
-104
-105
-106
-107
-107
-108
-109
-110
-110
-111
-112
-113
-114
-114
-116
-116
-117
-118
-118
-120
-120
-121
-122
-123
-123
-125
-125
-126
-126
-127
-128
-129
-129
-130
-131
-131
-132
-132
-134
-134
-135
-135
-136
-136
-136
-137
-137
-139
-139
-140
-140
-141
-141
-141
-141
-142
-142
-143
-143
-143
-143
-144
-144
-144
-144
-144
-144
-143
-143
-142
-143
-142
-141
-141
-141
-140
-140
-138
-138
-137
-137
-135
-134
-134
-132
-131
-130
-128
-127
-126
-124
-123
-122
-121
-119
-117
-116
-114
-113
-112
-111
-109
-108
-107
-106
-106
-105
-104
-103
-102
-101
-101
-100
-99
-98
-98
-98
-97
-96
-96
-97
-96
-96
-95
-95
-94
-93
-93
-92
-91
-91
-91
-90
-89
-90
-89
-89
-88
-88
-88
-88
-87
-87
-88
-87
-87
-86
-87
-86
-86
-86
-86
-86
-86
-86
-86
-86
-85
-85
-85
-86
-86
-86
-86
-86
-85
-85
-85
-85
-85
-85
-85
-85
-85
-85
-85
-85
-85
-85
-85
-86
-86
-85
-85
-85
-85
-85
-85
-85
-85
-85
-85
-83
-83
-83
-83
-83
-83
-83
-83
-83
-83
-83
-83
-83
-83
-83
-82
-82
-82
-82
-83
-83
-83
-83
-83
-83
-82
-82
-82
-82
-82
-82
-83
-83
-83
-83
-83
-83
-83
-83
-83
-83
-83
-83
-83
-83
-83
-83
-83
-83
-83
-83
-83
-83
-83
-83
-83
-83
-83
-82
-83
-83
-83
-83
-83
-83
-83
-84
-83
-83
-83
-83
-83
-83
-83
-83
-83
-83
-83
-83
-84
-83
-83
-83
-84
-84
-84
-84
-85
-85
-85
-85
-85
-85
-85
-86
-85
-85
-86
-86
-85
-85
-85
-85
-85
-85
-85
-85
-85
-85
-84
-84
-84
-84
-84
-85
-85
-85
-85
-85
-85
-85
-85
-85
-85
-85
-85
-85
-85
-85
-84
-84
-84
-85
-85
-85
-85
-85
-85
-85
-85
-86
-86
-86
-86
-86
-86
-86
-86
-86
-86
-87
-87
-87
-86
-86
-86
-86
-86
-86
-86
-86
-86
-85
-85
-85
-85
-85
-85
-85
-85
-85
-85
-85
-85
-85
-85
-85
-84
-85
-85
-85
-85
-85
-85
-85
-85
-85
-85
-85
-85
-85
-85
-85
-86
-86
-86
-86
-86
-86
-86
-86
-85
-85
-85
-85
-85
-85
-85
-85
-84
-84
-84
-84
-84
-84
-83
-83
-83
-83
-83
-83
-83
-84
-84
-84
-84
-84
-84
-84
-84
-85
-85
-85
-85
-85
-85
-85
-86
-86
-86
-87
-87
-87
-87
-88
-89
-88
-89
-90
-89
-90
-91
-92
-92
-93
-94
-94
-95
-96
-97
-97
-97
-98
-99
-100
-99
-100
-100
-100
-100
-100
-100
-100
-100
-100
-100
-100
-100
-100
-100
-100
-100
-100
-99
-99
-99
-99
-99
-99
-99
-99
-99
-98
-98
-98
-98
-98
-98
-98
-98
-98
-99
-99
-99
-99
-99
-99
-99
-99
-99
-98
-98
-98
-99
-97
-97
-97
-96
-96
-95
-96
-94
-95
-93
-93
-93
-92
-92
-91
-91
-90
-89
-90
-89
-88
-88
-88
-87
-86
-87
-86
-86
-85
-84
-85
-84
-83
-84
-83
-83
-82
-82
-82
-82
-81
-81
-81
-80
-80
-80
-80
-80
-80
-80
-80
-80
-80
-80
-79
-79
-79
-79
-79
-79
-79
-79
-80
-80
-79
-79
-79
-79
-79
-80
-80
-79
-79
-79
-79
-78
-78
-78
-78
-78
-78
-78
-78
-78
-78
-77
-77
-77
-77
-77
-79
-79
-78
-78
-78
-78
-77
-78
-78
-77
-76
-76
-75
-73
-72
-71
-70
-67
-65
-62
-60
-58
-55
-52
-49
-47
-44
-42
-39
-38
-37
-36
-37
-37
-37
-40
-43
-46
-49
-55
-61
-67
-75
-82
-90
-99
-108
-118
-128
-138
-149
-160
-170
-181
-191
-201
-210
-219
-227
-234
-240
-246
-251
-254
-256
-258
-258
-257
-255
-252
-248
-242
-237
-230
-222
-215
-205
-196
-186
-176
-166
-157
-148
-139
-130
-122
-115
-108
-102
-96
-90
-87
-84
-81
-78
-76
-75
-74
-73
-73
-72
-73
-74
-74
-74
-75
-76
-76
-76
-77
-77
-79
-78
-79
-79
-79
-79
-78
-78
-79
-78
-78
-77
-77
-78
-77
-77
-77
-76
-76
-76
-75
-75
-75
-75
-75
-75
-75
-75
-76
-76
-76
-76
-76
-76
-76
-76
-76
-77
-77
-77
-77
-78
-78
-77
-78
-78
-78
-79
-79
-79
-79
-79
-79
-79
-79
-79
-79
-78
-78
-79
-79
-79
-79
-79
-79
-79
-79
-79
-79
-79
-79
-79
-80
-80
-80
-80
-80
-81
-81
-81
-81
-81
-82
-82
-82
-81
-82
-82
-82
-82
-83
-83
-83
-83
-83
-83
-83
-82
-82
-82
-82
-82
-83
-83
-83
-83
-83
-83
-83
-84
-84
-84
-84
-84
-85
-85
-85
-85
-85
-86
-86
-86
-87
-87
-87
-87
-87
-87
-88
-88
-88
-88
-87
-87
-87
-87
-88
-88
-88
-88
-88
-89
-89
-89
-89
-89
-89
-90
-90
-91
-90
-91
-91
-92
-91
-92
-92
-93
-92
-93
-93
-94
-94
-94
-94
-95
-96
-95
-96
-97
-97
-98
-98
-98
-98
-99
-99
-99
-99
-100
-100
-100
-100
-101
-101
-102
-103
-103
-104
-104
-105
-105
-106
-106
-107
-109
-109
-110
-110
-112
-112
-113
-114
-114
-115
-115
-117
-117
-118
-119
-120
-120
-122
-122
-123
-123
-124
-125
-126
-127
-127
-128
-128
-130
-130
-131
-132
-133
-133
-133
-134
-134
-135
-136
-136
-137
-137
-137
-138
-139
-139
-140
-141
-141
-142
-142
-143
-143
-144
-143
-144
-145
-145
-145
-146
-147
-146
-147
-147
-147
-147
-148
-147
-148
-147
-147
-147
-146
-146
-145
-145
-144
-144
-143
-143
-141
-141
-139
-138
-138
-137
-135
-134
-133
-132
-131
-130
-128
-126
-125
-124
-123
-122
-121
-119
-118
-116
-115
-114
-113
-112
-111
-111
-109
-108
-107
-105
-105
-104
-103
-103
-101
-101
-100
-99
-99
-98
-98
-98
-97
-97
-97
-97
-96
-96
-95
-95
-95
-94
-94
-94
-93
-93
-93
-92
-92
-92
-92
-91
-91
-91
-91
-91
-90
-90
-89
-89
-89
-88
-89
-89
-89
-88
-88
-88
-89
-89
-88
-88
-88
-88
-88
-87
-87
-88
-88
-87
-87
-87
-88
-88
-87
-87
-87
-87
-88
-88
-87
-87
-87
-87
-87
-87
-87
-86
-86
-86
-86
-86
-87
-87
-87
-87
-87
-87
-87
-87
-86
-86
-86
-87
-86
-86
-86
-86
-86
-86
-86
-86
-86
-85
-85
-85
-85
-85
-85
-85
-85
-85
-84
-85
-85
-85
-85
-85
-85
-85
-85
-86
-86
-85
-85
-85
-85
-85
-85
-85
-85
-85
-85
-86
-86
-86
-86
-86
-85
-85
-85
-85
-85
-85
-86
-86
-86
-86
-85
-85
-85
-85
-85
-85
-86
-86
-86
-86
-86
-86
-86
-87
-87
-87
-87
-87
-86
-86
-86
-86
-86
-87
-87
-87
-87
-87
-88
-88
-88
-88
-88
-88
-88
-88
-88
-88
-88
-88
-88
-88
-88
-88
-89
-89
-89
-89
-89
-88
-88
-88
-88
-88
-88
-88
-88
-88
-88
-88
-88
-87
-87
-87
-87
-87
-88
-88
-88
-88
-88
-88
-88
-88
-88
-88
-88
-88
-88
-88
-88
-88
-88
-88
-88
-87
-87
-88
-88
-88
-88
-87
-87
-87
-87
-86
-86
-86
-86
-86
-86
-87
-87
-87
-87
-87
-86
-86
-86
-86
-86
-86
-86
-86
-86
-86
-86
-86
-86
-86
-86
-86
-86
-87
-87
-87
-87
-87
-87
-87
-87
-87
-87
-87
-87
-86
-86
-86
-86
-86
-86
-86
-87
-86
-86
-86
-86
-86
-86
-86
-86
-86
-86
-86
-86
-86
-86
-86
-86
-86
-86
-86
-86
-86
-86
-86
-86
-86
-87
-86
-87
-87
-88
-87
-88
-88
-89
-89
-90
-89
-90
-90
-91
-91
-92
-93
-93
-93
-94
-94
-95
-96
-96
-97
-97
-98
-99
-99
-100
-101
-101
-101
-101
-101
-101
-102
-102
-102
-102
-102
-101
-102
-102
-101
-101
-101
-101
-101
-101
-100
-100
-100
-100
-101
-101
-101
-101
-101
-101
-101
-100
-100
-100
-100
-100
-100
-100
-99
-99
-99
-99
-99
-98
-98
-98
-97
-97
-97
-96
-96
-95
-95
-94
-94
-93
-93
-93
-93
-92
-91
-91
-90
-90
-89
-89
-88
-88
-87
-87
-86
-87
-86
-85
-85
-85
-84
-83
-84
-83
-82
-82
-81
-82
-82
-81
-81
-80
-81
-81
-81
-80
-80
-80
-80
-80
-79
-79
-80
-80
-80
-80
-79
-79
-79
-79
-79
-78
-78
-78
-78
-78
-78
-78
-78
-78
-77
-78
-78
-78
-78
-78
-78
-78
-78
-78
-78
-78
-78
-78
-78
-78
-78
-77
-77
-77
-78
-78
-78
-78
-78
-77
-77
-77
-76
-76
-76
-75
-75
-73
-72
-71
-69
-67
-65
-63
-61
-58
-56
-53
-50
-47
-45
-42
-40
-38
-36
-35
-35
-35
-35
-36
-38
-42
-45
-50
-55
-61
-68
-76
-84
-92
-101
-110
-120
-131
-141
-152
-162
-173
-184
-194
-205
-214
-223
-230
-238
-243
-249
-254
-258
-259
-261
-261
-259
-257
-254
-249
-245
-238
-231
-224
-215
-206
-197
-187
-177
-168
-158
-149
-141
-132
-124
-116
-109
-104
-98
-93
-90
-86
-83
-81
-79
-77
-76
-76
-75
-74
-74
-74
-75
-75
-75
-76
-76
-76
-77
-77
-78
-78
-77
-77
-77
-77
-77
-77
-76
-77
-76
-76
-76
-77
-76
-76
-76
-76
-75
-75
-75
-76
-76
-76
-76
-76
-76
-76
-76
-77
-77
-77
-77
-77
-77
-77
-77
-77
-77
-77
-77
-77
-77
-77
-77
-77
-77
-77
-77
-77
-77
-78
-78
-78
-78
-78
-77
-77
-79
-79
-79
-78
-79
-79
-79
-79
-78
-79
-79
-79
-79
-79
-79
-79
-80
-80
-80
-80
-80
-80
-79
-80
-80
-80
-80
-80
-81
-81
-81
-81
-81
-81
-82
-81
-81
-81
-81
-81
-82
-82
-82
-82
-82
-82
-82
-83
-83
-83
-84
-84
-84
-84
-83
-85
-85
-85
-85
-86
-85
-85
-85
-85
-85
-86
-86
-86
-86
-86
-86
-87
-87
-87
-87
-88
-87
-87
-87
-88
-88
-87
-88
-88
-88
-89
-89
-88
-89
-89
-90
-90
-90
-90
-90
-91
-91
-92
-92
-92
-92
-93
-92
-93
-93
-93
-93
-94
-94
-94
-95
-96
-95
-96
-96
-97
-98
-97
-98
-98
-99
-100
-100
-101
-101
-100
-101
-102
-102
-103
-103
-104
-105
-105
-106
-107
-108
-108
-109
-110
-110
-111
-111
-113
-113
-114
-114
-115
-116
-117
-117
-119
-119
-120
-121
-121
-123
-123
-124
-125
-126
-126
-127
-128
-129
-130
-131
-131
-131
-133
-133
-134
-135
-136
-136
-137
-137
-139
-139
-139
-140
-141
-141
-142
-143
-143
-144
-144
-145
-146
-147
-147
-147
-147
-148
-148
-149
-149
-150
-149
-150
-150
-149
-150
-150
-149
-149
-150
-149
-149
-148
-147
-147
-146
-146
-145
-144
-143
-142
-142
-140
-139
-138
-137
-136
-135
-134
-133
-131
-130
-128
-127
-126
-125
-123
-122
-121
-120
-119
-117
-116
-115
-113
-112
-111
-110
-109
-108
-107
-106
-105
-104
-103
-103
-101
-101
-100
-99
-98
-98
-98
-98
-97
-97
-96
-97
-96
-95
-95
-95
-95
-94
-94
-93
-94
-93
-94
-93
-93
-92
-92
-91
-92
-91
-91
-92
-91
-91
-91
-91
-91
-90
-90
-90
-89
-89
-90
-90
-90
-90
-90
-90
-89
-89
-89
-89
-89
-89
-89
-89
-89
-89
-89
-89
-89
-89
-89
-89
-89
-89
-89
-89
-88
-88
-89
-88
-88
-88
-88
-88
-88
-88
-88
-87
-87
-87
-87
-87
-87
-87
-87
-87
-87
-87
-87
-87
-87
-86
-87
-87
-87
-87
-87
-87
-86
-86
-86
-87
-87
-86
-86
-86
-86
-86
-86
-85
-85
-85
-85
-85
-86
-86
-86
-86
-86
-86
-86
-86
-86
-86
-86
-86
-86
-86
-86
-87
-87
-87
-87
-87
-87
-87
-87
-87
-87
-87
-87
-87
-87
-87
-87
-87
-87
-87
-87
-87
-88
-88
-88
-88
-88
-88
-88
-88
-88
-88
-88
-87
-88
-88
-88
-88
-88
-88
-88
-88
-88
-88
-87
-87
-87
-87
-88
-88
-88
-88
-88
-88
-88
-88
-88
-88
-89
-89
-89
-89
-89
-89
-88
-88
-88
-88
-89
-88
-88
-88
-89
-90
-89
-89
-89
-89
-89
-89
-89
-89
-89
-89
-89
-89
-89
-89
-89
-89
-89
-89
-89
-88
-88
-88
-88
-88
-88
-88
-88
-87
-87
-87
-87
-86
-86
-86
-86
-86
-86
-86
-86
-86
-86
-86
-87
-87
-87
-87
-87
-87
-87
-87
-87
-87
-87
-87
-87
-87
-87
-87
-87
-87
-87
-87
-87
-87
-87
-87
-88
-88
-88
-88
-88
-88
-88
-88
-88
-88
-88
-88
-88
-88
-88
-87
-87
-87
-87
-87
-87
-87
-87
-87
-87
-87
-87
-87
-87
-87
-87
-87
-87
-87
-87
-86
-86
-86
-87
-87
-87
-87
-87
-87
-87
-87
-87
-87
-87
-87
-87
-87
-88
-88
-87
-88
-87
-88
-88
-88
-89
-88
-89
-90
-89
-90
-90
-90
-91
-91
-92
-93
-93
-94
-95
-96
-95
-96
-97
-99
-98
-99
-99
-99
-100
-100
-100
-100
-100
-100
-101
-101
-101
-101
-101
-101
-101
-101
-101
-101
-101
-100
-100
-100
-100
-100
-99
-99
-99
-99
-99
-98
-98
-98
-98
-98
-98
-98
-98
-99
-99
-99
-98
-98
-98
-98
-97
-96
-97
-96
-96
-96
-95
-95
-95
-94
-93
-93
-92
-93
-91
-91
-91
-91
-90
-89
-89
-89
-88
-87
-86
-86
-86
-86
-85
-85
-84
-84
-83
-83
-83
-82
-82
-82
-81
-81
-81
-81
-81
-80
-80
-80
-79
-80
-80
-80
-79
-79
-79
-79
-79
-79
-79
-79
-79
-79
-78
-78
-78
-78
-78
-78
-78
-77
-77
-77
-77
-77
-77
-76
-76
-76
-76
-76
-76
-76
-75
-76
-76
-76
-76
-76
-76
-76
-76
-76
-76
-76
-75
-75
-75
-75
-75
-75
-75
-74
-74
-74
-74
-73
-72
-72
-70
-70
-68
-66
-64
-62
-59
-56
-55
-52
-49
-46
-43
-41
-38
-36
-35
-33
-32
-32
-32
-33
-35
-37
-40
-45
-49
-55
-62
-69
-76
-84
-93
-102
-112
-123
-133
-144
-155
-165
-176
-187
-197
-207
-216
-225
-232
-240
-246
-252
-255
-258
-260
-261
-261
-259
-257
-253
-248
-243
-237
-229
-221
-212
-203
-193
-183
-173
-163
-153
-145
-136
-126
-119
-111
-105
-99
-93
-89
-85
-82
-79
-77
-75
-74
-73
-72
-72
-72
-72
-72
-72
-72
-73
-73
-74
-74
-74
-74
-74
-74
-74
-74
-73
-74
-74
-73
-73
-73
-73
-72
-73
-72
-72
-71
-72
-72
-71
-71
-72
-72
-71
-71
-72
-72
-72
-72
-71
-71
-71
-71
-71
-71
-71
-71
-71
-71
-71
-71
-71
-71
-71
-72
-72
-72
-72
-72
-72
-72
-72
-72
-72
-73
-73
-73
-73
-73
-73
-73
-72
-73
-73
-73
-73
-73
-74
-74
-74
-73
-73
-73
-73
-74
-74
-74
-74
-74
-74
-74
-74
-74
-74
-74
-74
-75
-75
-75
-75
-75
-75
-75
-75
-76
-76
-76
-76
-76
-76
-77
-77
-77
-77
-77
-77
-77
-77
-77
-77
-77
-78
-78
-78
-77
-77
-77
-77
-78
-78
-78
-78
-78
-78
-78
-78
-78
-78
-78
-79
-79
-78
-78
-79
-79
-79
-80
-80
-80
-80
-80
-80
-81
-81
-81
-82
-82
-83
-82
-83
-83
-83
-84
-83
-84
-85
-84
-85
-85
-86
-85
-86
-87
-87
-87
-87
-88
-88
-88
-88
-89
-89
-89
-90
-90
-91
-91
-92
-92
-92
-92
-93
-93
-94
-94
-94
-95
-96
-96
-97
-98
-98
-99
-100
-101
-102
-102
-103
-104
-104
-105
-106
-107
-108
-108
-109
-110
-111
-111
-112
-113
-113
-114
-114
-115
-116
-116
-117
-118
-118
-118
-120
-120
-121
-121
-122
-123
-123
-124
-125
-125
-127
-127
-127
-129
-129
-130
-131
-132
-132
-134
-134
-135
-135
-136
-137
-138
-138
-139
-139
-140
-141
-141
-142
-143
-142
-143
-143
-144
-144
-144
-143
-143
-143
-143
-143
-143
-142
-142
-141
-140
-140
-139
-139
-138
-136
-136
-135
-134
-133
-132
-130
-129
-128
-127
-126
-124
-123
-122
-121
-120
-119
-118
-117
-115
-114
-113
-112
-111
-109
-108
-107
-105
-104
-103
-102
-101
-100
-99
-98
-96
-96
-94
-93
-93
-92
-91
-90
-90
-89
-89
-88
-87
-88
-87
-87
-86
-85
-86
-85
-85
-85
-85
-85
-84
-84
-84
-84
-83
-83
-83
-83
-83
-83
-83
-83
-83
-83
-83
-83
-83
-83
-83
-83
-83
-83
-83
-83
-82
-83
-83
-83
-83
-83
-83
-83
-83
-83
-81
-81
-81
-81
-81
-81
-81
-81
-81
-81
-80
-81
-81
-81
-81
-81
-81
-81
-81
-81
-80
-80
-80
-80
-80
-80
-80
-80
-80
-80
-80
-80
-80
-80
-80
-80
-80
-80
-79
-79
-79
-79
-79
-79
-79
-79
-79
-79
-79
-79
-79
-79
-79
-79
-79
-79
-79
-78
-78
-78
-78
-78
-78
-78
-78
-78
-78
-78
-78
-77
-77
-77
-77
-77
-77
-77
-77
-77
-77
-77
-77
-77
-77
-77
-77
-77
-77
-77
-77
-77
-77
-77
-78
-78
-78
-78
-78
-78
-78
-78
-78
-78
-79
-79
-79
-79
-79
-79
-78
-78
-78
-78
-78
-78
-78
-78
-78
-78
-78
-78
-78
-78
-78
-78
-78
-78
-78
-78
-78
-78
-78
-78
-78
-79
-79
-79
-79
-79
-78
-78
-78
-78
-78
-78
-78
-78
-78
-78
-78
-78
-78
-78
-79
-79
-79
-79
-79
-78
-77
-78
-78
-78
-78
-78
-78
-78
-78
-79
-79
-79
-79
-79
-79
-79
-79
-79
-79
-80
-80
-80
-79
-79
-79
-79
-79
-79
-78
-78
-79
-79
-79
-78
-78
-78
-78
-78
-78
-78
-78
-78
-79
-79
-79
-79
-79
-79
-79
-78
-78
-78
-79
-79
-79
-78
-78
-78
-78
-78
-78
-78
-78
-78
-78
-78
-78
-78
-78
-78
-78
-79
-79
-79
-79
-79
-79
-79
-79
-79
-79
-79
-79
-79
-79
-78
-78
-78
-78
-78
-78
-78
-77
-77
-77
-77
-77
-77
-77
-77
-77
-77
-77
-76
-77
-77
-77
-77
-78
-77
-77
-78
-78
-79
-79
-79
-79
-80
-80
-80
-81
-81
-81
-82
-83
-83
-84
-85
-86
-86
-86
-87
-88
-89
-90
-90
-91
-91
-92
-92
-92
-93
-93
-93
-93
-94
-94
-93
-93
-93
-93
-92
-92
-92
-92
-91
-91
-91
-92
-91
-91
-91
-91
-91
-91
-91
-91
-91
-91
-91
-91
-90
-90
-90
-90
-89
-89
-88
-88
-88
-87
-87
-86
-87
-86
-86
-85
-85
-85
-85
-84
-84
-83
-84
-82
-83
-82
-82
-81
-80
-81
-80
-79
-78
-78
-78
-77
-76
-76
-75
-75
-74
-73
-73
-73
-72
-73
-72
-72
-71
-71
-71
-71
-71
-71
-70
-70
-70
-70
-70
-70
-69
-70
-70
-69
-69
-69
-69
-69
-69
-69
-69
-69
-69
-69
-69
-69
-68
-68
-68
-68
-68
-68
-68
-68
-68
-68
-67
-67
-67
-67
-67
-68
-68
-68
-68
-68
-68
-68
-68
-68
-68
-68
-68
-68
-68
-67
-67
-66
-65
-66
-65
-65
-64
-64
-62
-61
-60
-58
-57
-55
-53
-50
-48
-45
-43
-39
-38
-34
-32
-29
-28
-26
-24
-23
-23
-23
-24
-26
-28
-32
-35
-40
-46
-53
-59
-67
-76
-84
-94
-104
-114
-125
-136
-147
-159
-169
-180
-190
-200
-209
-218
-226
-233
-239
-245
-248
-251
-254
-254
-254
-252
-249
-245
-240
-234
-228
-220
-212
-203
-194
-184
-173
-164
-153
-144
-135
-127
-118
-110
-103
-97
-90
-85
-81
-78
-74
-71
-69
-67
-66
-65
-63
-64
-64
-64
-64
-64
-64
-65
-65
-65
-66
-66
-66
-66
-66
-66
-66
-66
-66
-65
-65
-65
-64
-65
-64
-64
-64
-64
-63
-63
-62
-62
-62
-62
-62
-62
-62
-62
-62
-62
-62
-62
-62
-62
-63
-63
-63
-63
-63
-63
-63
-63
-64
-64
-64
-64
-64
-64
-64
-64
-65
-65
-65
-65
-65
-66
-66
-66
-66
-66
-66
-67
-67
-67
-67
-66
-66
-66
-66
-66
-66
-67
-67
-67
-67
-67
-67
-67
-67
-66
-66
-66
-66
-67
-67
-68
-68
-68
-68
-68
-68
-68
-68
-68
-68
-69
-69
-68
-68
-68
-68
-69
-69
-69
-69
-69
-70
-69
-69
-69
-69
-69
-70
-70
-70
-70
-70
-70
-70
-71
-71
-71
-71
-71
-71
-72
-72
-72
-72
-72
-73
-73
-72
-72
-73
-73
-73
-73
-73
-73
-73
-74
-74
-73
-73
-74
-74
-74
-75
-75
-75
-75
-76
-76
-76
-77
-76
-77
-77
-78
-78
-78
-79
-79
-79
-79
-80
-81
-80
-81
-81
-82
-82
-82
-83
-83
-83
-84
-85
-86
-85
-86
-87
-87
-88
-89
-89
-90
-90
-91
-91
-92
-92
-92
-92
-93
-93
-94
-94
-95
-95
-96
-97
-97
-98
-99
-99
-101
-101
-102
-103
-104
-105
-106
-106
-107
-108
-109
-110
-111
-112
-113
-114
-114
-116
-116
-117
-118
-118
-119
-120
-120
-121
-122
-122
-123
-123
-124
-125
-125
-126
-126
-127
-129
-129
-130
-130
-131
-132
-132
-133
-133
-134
-134
-135
-136
-136
-136
-137
-138
-137
-137
-137
-138
-138
-137
-137
-137
-136
-136
-135
-135
-134
-133
-133
-132
-131
-130
-129
-128
-127
-126
-125
-124
-123
-122
-121
-118
-117
-116
-115
-114
-113
-112
-111
-109
-108
-107
-106
-104
-103
-102
-101
-100
-99
-98
-97
-95
-94
-94
-92
-91
-90
-89
-90
-88
-88
-88
-86
-86
-85
-85
-84
-84
-83
-83
-83
-82
-82
-81
-81
-80
-81
-80
-80
-80
-80
-79
-79
-79
-79
-78
-78
-78
-78
-78
-78
-78
-78
-78
-78
-77
-77
-78
-78
-77
-77
-78
-78
-78
-78
-78
-78
-77
-77
-77
-77
-77
-77
-77
-77
-76
-76
-76
-75
-75
-75
-75
-75
-76
-76
-75
-75
-75
-75
-75
-75
-75
-75
-75
-75
-75
-75
-75
-75
-75
-75
-75
-75
-75
-75
-75
-75
-75
-75
-75
-75
-75
-75
-75
-76
-75
-75
-76
-76
-76
-75
-75
-75
-75
-75
-75
-75
-75
-75
-75
-74
-74
-74
-74
-74
-74
-74
-74
-74
-74
-74
-74
-74
-74
-74
-74
-74
-74
-74
-74
-74
-73
-73
-73
-74
-74
-74
-74
-74
-74
-74
-74
-74
-74
-74
-74
-74
-75
-75
-75
-74
-75
-75
-75
-75
-75
-75
-75
-76
-76
-76
-76
-76
-76
-76
-76
-75
-75
-76
-76
-76
-76
-76
-76
-76
-76
-76
-76
-77
-76
-76
-76
-76
-76
-76
-76
-76
-76
-76
-75
-75
-75
-75
-76
-76
-76
-76
-76
-76
-76
-76
-76
-76
-76
-76
-76
-76
-77
-77
-77
-77
-77
-77
-77
-77
-77
-77
-77
-77
-77
-77
-77
-77
-77
-77
-77
-77
-77
-78
-78
-77
-77
-77
-77
-77
-77
-77
-77
-76
-76
-76
-76
-76
-76
-76
-76
-76
-76
-77
-77
-77
-77
-78
-77
-77
-77
-77
-77
-77
-77
-76
-77
-77
-77
-77
-77
-76
-76
-76
-77
-76
-76
-76
-76
-76
-75
-75
-75
-75
-76
-76
-76
-76
-76
-76
-76
-76
-76
-77
-77
-77
-77
-77
-77
-77
-77
-77
-77
-77
-77
-77
-77
-76
-76
-76
-76
-76
-76
-76
-76
-76
-76
-76
-76
-76
-76
-76
-76
-76
-76
-76
-76
-77
-77
-77
-77
-77
-76
-76
-77
-77
-77
-77
-77
-78
-78
-78
-78
-79
-79
-79
-80
-80
-80
-81
-82
-81
-82
-83
-83
-84
-85
-86
-86
-86
-87
-88
-89
-89
-89
-90
-90
-91
-91
-92
-92
-92
-93
-93
-92
-92
-92
-92
-92
-91
-91
-91
-91
-91
-91
-91
-91
-91
-91
-91
-91
-91
-90
-90
-91
-91
-91
-91
-91
-91
-90
-90
-90
-90
-90
-90
-89
-89
-89
-89
-88
-88
-88
-88
-87
-87
-86
-86
-85
-85
-85
-85
-83
-84
-82
-83
-81
-81
-80
-80
-79
-79
-78
-77
-77
-77
-77
-76
-75
-75
-74
-74
-74
-74
-73
-72
-73
-72
-72
-72
-72
-72
-71
-71
-71
-71
-71
-71
-71
-71
-71
-71
-70
-70
-70
-70
-70
-70
-70
-70
-70
-69
-69
-69
-69
-69
-70
-69
-69
-69
-69
-69
-69
-69
-69
-69
-68
-68
-68
-68
-68
-68
-67
-67
-67
-67
-67
-67
-67
-67
-67
-67
-67
-67
-67
-67
-67
-66
-67
-67
-66
-66
-66
-65
-65
-63
-62
-60
-58
-57
-55
-52
-50
-47
-44
-41
-39
-36
-33
-31
-29
-27
-25
-24
-23
-23
-24
-26
-28
-31
-35
-39
-45
-51
-58
-66
-73
-82
-91
-102
-112
-123
-134
-144
-156
-167
-178
-189
-199
-208
-217
-225
-233
-240
-245
-250
-253
-256
-256
-257
-255
-252
-249
-244
-238
-232
-225
-216
-208
-199
-189
-178
-168
-159
-149
-139
-130
-122
-114
-106
-99
-93
-88
-84
-80
-76
-74
-71
-69
-68
-67
-66
-65
-65
-65
-66
-65
-66
-66
-67
-67
-67
-68
-68
-67
-67
-68
-68
-67
-68
-67
-67
-66
-67
-66
-66
-66
-66
-66
-65
-65
-65
-65
-65
-65
-65
-65
-65
-65
-65
-65
-65
-65
-65
-66
-66
-66
-66
-66
-66
-67
-67
-67
-67
-67
-67
-67
-67
-67
-67
-67
-68
-68
-68
-68
-68
-68
-68
-68
-69
-69
-69
-69
-69
-68
-69
-69
-69
-69
-69
-69
-69
-69
-69
-70
-70
-70
-70
-70
-70
-70
-69
-69
-69
-69
-70
-70
-70
-70
-70
-71
-70
-70
-70
-70
-71
-71
-71
-71
-71
-72
-72
-72
-72
-72
-72
-73
-73
-73
-73
-73
-73
-72
-73
-74
-74
-74
-74
-74
-74
-74
-74
-75
-75
-75
-75
-75
-76
-75
-75
-75
-76
-76
-76
-76
-76
-77
-77
-77
-77
-77
-77
-78
-77
-77
-77
-78
-78
-78
-78
-79
-78
-78
-79
-79
-80
-80
-80
-80
-81
-81
-81
-82
-81
-82
-83
-82
-83
-84
-83
-84
-84
-85
-85
-85
-86
-87
-86
-87
-88
-88
-88
-89
-90
-90
-90
-91
-91
-92
-92
-93
-92
-93
-93
-94
-95
-96
-96
-97
-97
-99
-99
-100
-101
-101
-103
-103
-104
-105
-106
-107
-107
-109
-109
-110
-111
-111
-113
-113
-115
-115
-115
-115
-117
-117
-118
-118
-120
-120
-120
-120
-122
-122
-122
-123
-124
-124
-125
-127
-127
-128
-128
-130
-130
-131
-131
-132
-134
-135
-135
-136
-137
-138
-138
-138
-139
-140
-140
-140
-141
-140
-141
-141
-141
-141
-142
-141
-140
-141
-141
-139
-140
-139
-138
-137
-137
-136
-136
-134
-133
-132
-131
-130
-129
-128
-127
-125
-123
-122
-121
-120
-119
-117
-115
-114
-113
-112
-111
-109
-108
-107
-106
-105
-104
-103
-102
-101
-100
-99
-98
-97
-97
-95
-95
-94
-93
-93
-91
-91
-92
-91
-91
-90
-90
-89
-89
-88
-87
-87
-86
-86
-85
-85
-85
-84
-85
-84
-85
-84
-83
-83
-82
-83
-82
-82
-82
-81
-81
-81
-81
-81
-81
-80
-80
-80
-80
-80
-80
-80
-80
-79
-80
-80
-80
-79
-79
-79
-80
-80
-80
-80
-80
-79
-79
-79
-79
-80
-80
-79
-79
-79
-79
-79
-79
-79
-79
-79
-79
-79
-79
-79
-79
-79
-79
-79
-79
-79
-79
-79
-79
-79
-79
-79
-79
-79
-79
-79
-78
-78
-78
-79
-79
-79
-79
-78
-78
-77
-77
-77
-77
-77
-77
-77
-77
-77
-77
-77
-77
-77
-77
-77
-77
-77
-77
-77
-77
-77
-77
-77
-77
-77
-77
-77
-77
-77
-77
-77
-77
-78
-78
-78
-78
-78
-77
-77
-78
-78
-78
-78
-78
-78
-78
-79
-79
-78
-78
-78
-78
-78
-78
-78
-78
-78
-78
-79
-79
-79
-79
-79
-79
-79
-79
-79
-79
-79
-79
-79
-79
-79
-79
-80
-80
-79
-79
-79
-79
-79
-80
-80
-80
-80
-79
-79
-80
-80
-80
-80
-80
-80
-80
-80
-80
-80
-80
-79
-80
-80
-80
-80
-80
-80
-80
-80
-80
-80
-80
-80
-80
-80
-80
-80
-80
-80
-80
-81
-81
-80
-81
-80
-80
-80
-80
-80
-80
-80
-80
-80
-81
-81
-81
-81
-81
-81
-81
-81
-81
-81
-81
-81
-81
-81
-81
-81
-81
-81
-81
-81
-81
-81
-81
-81
-81
-80
-80
-80
-80
-80
-80
-80
-79
-79
-79
-79
-79
-79
-80
-80
-80
-80
-80
-80
-80
-80
-80
-80
-80
-80
-81
-81
-81
-81
-81
-81
-81
-81
-81
-81
-81
-81
-81
-81
-81
-81
-81
-81
-81
-81
-81
-81
-81
-81
-81
-81
-81
-81
-81
-81
-81
-81
-81
-81
-81
-82
-81
-81
-82
-82
-82
-81
-81
-81
-81
-81
-81
-81
-81
-82
-81
-81
-82
-81
-82
-82
-82
-83
-83
-83
-84
-84
-85
-85
-86
-87
-87
-88
-88
-89
-90
-91
-92
-93
-93
-94
-94
-95
-95
-95
-95
-96
-96
-96
-97
-97
-97
-96
-96
-96
-96
-96
-96
-96
-96
-96
-96
-95
-95
-95
-95
-95
-95
-95
-95
-95
-95
-95
-95
-95
-95
-94
-94
-95
-95
-94
-94
-95
-94
-94
-93
-93
-93
-92
-92
-91
-91
-91
-90
-90
-90
-89
-89
-89
-88
-88
-87
-87
-86
-85
-86
-85
-84
-83
-82
-82
-81
-82
-81
-81
-80
-80
-79
-79
-78
-77
-78
-77
-77
-77
-76
-76
-75
-76
-75
-75
-75
-75
-74
-74
-74
-74
-74
-74
-73
-73
-73
-74
-74
-74
-74
-74
-73
-73
-73
-73
-73
-73
-73
-73
-73
-73
-73
-73
-73
-74
-73
-73
-73
-73
-73
-73
-73
-73
-74
-74
-74
-74
-74
-74
-74
-74
-74
-74
-74
-74
-74
-73
-73
-72
-72
-72
-71
-71
-71
-70
-69
-68
-67
-66
-65
-62
-61
-58
-57
-54
-51
-48
-46
-43
-40
-38
-35
-33
-31
-29
-29
-28
-29
-30
-31
-33
-36
-40
-45
-51
-57
-64
-72
-80
-88
-98
-108
-118
-129
-140
-150
-161
-172
-183
-194
-204
-213
-222
-230
-237
-243
-249
-253
-256
-258
-259
-259
-256
-254
-251
-246
-241
-234
-227
-219
-211
-201
-192
-182
-171
-162
-152
-143
-134
-126
-117
-110
-103
-97
-92
-87
-83
-80
-77
-75
-73
-72
-70
-69
-69
-69
-70
-70
-70
-70
-70
-71
-71
-72
-72
-73
-72
-73
-72
-72
-73
-73
-73
-72
-73
-72
-72
-71
-72
-72
-71
-71
-72
-71
-71
-71
-72
-72
-72
-72
-72
-72
-72
-72
-73
-73
-73
-73
-73
-73
-73
-74
-74
-74
-74
-73
-73
-73
-74
-74
-74
-73
-73
-74
-73
-73
-74
-74
-74
-74
-74
-74
-74
-74
-74
-75
-75
-75
-76
-76
-76
-76
-76
-76
-76
-76
-76
-76
-76
-76
-77
-77
-77
-77
-77
-76
-77
-78
-78
-78
-78
-77
-78
-78
-78
-78
-79
-78
-78
-78
-78
-78
-78
-79
-79
-78
-79
-79
-79
-79
-79
-78
-79
-79
-79
-79
-80
-79
-79
-79
-81
-81
-81
-80
-80
-81
-81
-81
-81
-82
-82
-82
-82
-83
-82
-82
-83
-83
-83
-83
-83
-84
-84
-84
-84
-85
-85
-85
-86
-86
-86
-85
-86
-86
-87
-87
-87
-87
-87
-88
-88
-89
-89
-89
-89
-90
-90
-90
-90
-91
-92
-91
-92
-93
-92
-93
-92
-93
-93
-93
-93
-94
-94
-95
-96
-96
-96
-96
-97
-97
-98
-100
-100
-101
-101
-102
-103
-103
-104
-104
-106
-106
-107
-107
-108
-109
-109
-110
-111
-112
-112
-113
-114
-114
-116
-117
-117
-118
-119
-119
-120
-121
-121
-121
-123
-123
-124
-125
-126
-126
-127
-128
-128
-129
-130
-131
-131
-132
-133
-134
-134
-135
-136
-137
-137
-138
-139
-140
-140
-140
-142
-142
-143
-143
-144
-144
-145
-145
-146
-146
-147
-147
-147
-148
-148
-147
-147
-147
-147
-147
-147
-146
-147
-146
-146
-145
-144
-144
-143
-142
-141
-141
-140
-139
-138
-137
-135
-135
-134
-133
-132
-130
-129
-128
-127
-126
-124
-122
-121
-120
-119
-118
-116
-115
-114
-113
-112
-111
-109
-108
-107
-105
-105
-104
-103
-102
-101
-101
-99
-99
-99
-97
-97
-96
-96
-96
-95
-95
-94
-93
-93
-92
-92
-92
-91
-92
-91
-91
-92
-92
-91
-91
-91
-90
-91
-91
-90
-90
-90
-91
-90
-90
-91
-90
-90
-90
-90
-89
-89
-90
-90
-90
-89
-89
-89
-90
-90
-90
-90
-89
-88
-88
-88
-88
-89
-89
-89
-89
-87
-87
-87
-88
-88
-87
-87
-87
-87
-86
-86
-86
-87
-87
-87
-87
-86
-86
-86
-86
-86
-86
-86
-86
-86
-86
-86
-86
-87
-86
-87
-87
-87
-87
-87
-86
-86
-86
-86
-87
-87
-87
-87
-87
-87
-87
-87
-87
-87
-86
-86
-86
-86
-86
-86
-86
-86
-86
-86
-86
-86
-86
-86
-86
-86
-86
-86
-86
-86
-86
-86
-86
-86
-86
-87
-87
-87
-86
-86
-86
-86
-86
-86
-86
-87
-87
-87
-87
-87
-87
-88
-88
-88
-88
-88
-88
-89
-89
-88
-88
-88
-88
-89
-89
-89
-89
-89
-89
-89
-90
-90
-90
-89
-89
-89
-90
-90
-90
-90
-90
-91
-91
-91
-91
-91
-91
-90
-91
-92
-92
-92
-91
-91
-91
-91
-91
-91
-91
-91
-91
-91
-91
-91
-91
-91
-91
-91
-91
-91
-91
-91
-91
-92
-92
-92
-92
-92
-92
-92
-92
-92
-92
-91
-91
-91
-91
-91
-91
-91
-90
-90
-90
-90
-90
-89
-89
-89
-89
-89
-89
-89
-90
-90
-90
-90
-90
-91
-91
-91
-91
-92
-92
-92
-92
-92
-91
-91
-91
-92
-92
-90
-90
-90
-90
-90
-90
-90
-90
-90
-89
-89
-89
-89
-89
-89
-89
-90
-90
-90
-90
-90
-90
-90
-90
-91
-91
-91
-91
-91
-91
-91
-91
-91
-91
-91
-91
-91
-91
-91
-91
-91
-91
-91
-91
-91
-91
-90
-90
-90
-90
-90
-90
-90
-90
-90
-91
-91
-91
-91
-91
-91
-91
-91
-91
-91
-91
-91
-91
-91
-91
-91
-91
-91
-91
-90
-90
-90
-90
-90
-90
-90
-90
-90
-91
-91
-91
-91
-91
-90
-91
-91
-91
-91
-91
-91
-92
-91
-92
-91
-92
-93
-92
-92
-92
-93
-92
-93
-94
-94
-95
-96
-96
-97
-98
-98
-99
-100
-101
-101
-101
-102
-102
-102
-104
-104
-104
-105
-105
-105
-105
-106
-106
-105
-105
-105
-105
-104
-104
-105
-105
-105
-105
-104
-104
-104
-104
-104
-104
-103
-103
-103
-103
-103
-103
-102
-102
-102
-102
-102
-101
-101
-101
-101
-100
-101
-101
-100
-100
-100
-99
-99
-99
-98
-98
-98
-97
-97
-96
-96
-95
-95
-94
-93
-93
-92
-91
-92
-91
-92
-91
-91
-91
-90
-89
-89
-88
-89
-88
-88
-87
-87
-87
-86
-86
-85
-86
-85
-85
-84
-85
-85
-84
-84
-84
-84
-84
-83
-83
-83
-84
-84
-83
-83
-83
-83
-83
-83
-83
-84
-83
-83
-83
-83
-83
-83
-83
-83
-84
-83
-83
-83
-83
-83
-83
-83
-83
-83
-84
-84
-83
-83
-83
-83
-83
-83
-83
-83
-83
-82
-81
-81
-81
-81
-81
-81
-80
-80
-81
-80
-79
-78
-78
-76
-74
-73
-71
-69
-67
-65
-62
-59
-56
-53
-51
-48
-46
-44
-41
-39
-38
-38
-38
-39
-39
-42
-44
-48
-52
-58
-64
-71
-78
-85
-94
-104
-114
-124
-135
-145
-157
-168
-179
-190
-200
-210
-220
-229
-238
-245
-252
-258
-263
-266
-268
-270
-270
-268
-267
-264
-258
-253
-247
-240
-232
-224
-214
-205
-195
-185
-175
-164
-155
-147
-137
-129
-121
-114
-109
-103
-98
-94
-90
-87
-85
-83
-82
-80
-80
-79
-79
-78
-79
-80
-80
-80
-80
-80
-81
-81
-81
-82
-82
-81
-81
-81
-81
-81
-81
-80
-81
-80
-80
-80
-80
-80
-79
-79
-79
-80
-80
-79
-79
-79
-79
-79
-79
-79
-80
-80
-80
-80
-80
-80
-80
-80
-80
-79
-79
-79
-79
-80
-79
-79
-79
-80
-80
-80
-80
-80
-81
-81
-81
-81
-81
-82
-82
-82
-82
-82
-82
-82
-82
-82
-82
-83
-83
-83
-83
-83
-83
-83
-83
-83
-82
-83
-83
-83
-83
-83
-83
-83
-83
-84
-83
-83
-83
-83
-83
-83
-83
-84
-84
-84
-84
-84
-84
-85
-85
-85
-85
-84
-84
-84
-85
-85
-85
-85
-85
-86
-86
-85
-85
-86
-86
-86
-86
-86
-87
-87
-87
-87
-87
-88
-88
-88
-88
-88
-88
-88
-89
-89
-88
-88
-88
-89
-89
-89
-89
-90
-89
-89
-90
-90
-90
-90
-90
-90
-91
-91
-91
-92
-91
-91
-91
-91
-91
-92
-91
-91
-92
-92
-92
-92
-93
-93
-94
-94
-94
-95
-95
-95
-96
-96
-96
-97
-97
-97
-98
-99
-98
-99
-100
-100
-101
-102
-102
-103
-103
-103
-104
-104
-105
-105
-107
-107
-107
-108
-109
-110
-110
-112
-112
-113
-115
-115
-115
-117
-117
-118
-119
-120
-121
-121
-123
-123
-123
-125
-125
-126
-126
-127
-128
-128
-128
-130
-130
-132
-132
-132
-134
-134
-134
-136
-136
-137
-138
-138
-139
-140
-141
-141
-143
-143
-144
-144
-145
-146
-147
-147
-148
-148
-149
-149
-149
-150
-150
-150
-151
-151
-152
-152
-152
-152
-152
-152
-151
-151
-151
-150
-150
-150
-150
-149
-147
-147
-146
-145
-144
-143
-142
-141
-140
-139
-138
-136
-135
-134
-133
-132
-131
-128
-127
-126
-125
-124
-122
-121
-120
-118
-118
-115
-114
-113
-112
-111
-110
-109
-108
-106
-106
-105
-104
-104
-102
-101
-101
-100
-99
-98
-98
-97
-97
-96
-96
-95
-95
-94
-95
-94
-93
-93
-93
-93
-92
-93
-92
-92
-91
-92
-91
-91
-90
-90
-91
-90
-90
-89
-89
-89
-88
-89
-89
-89
-89
-89
-90
-89
-89
-89
-89
-88
-88
-88
-88
-88
-88
-89
-89
-89
-88
-89
-89
-89
-89
-89
-89
-89
-89
-89
-89
-89
-89
-89
-89
-89
-89
-88
-88
-88
-88
-88
-88
-88
-89
-89
-88
-88
-88
-88
-88
-88
-87
-87
-87
-87
-87
-87
-87
-87
-87
-86
-86
-87
-87
-87
-87
-87
-86
-86
-86
-86
-86
-86
-86
-87
-87
-87
-87
-87
-86
-86
-86
-86
-86
-86
-87
-87
-86
-86
-86
-86
-86
-86
-86
-86
-86
-85
-85
-85
-85
-85
-85
-85
-85
-85
-85
-85
-85
-85
-85
-85
-86
-86
-86
-86
-86
-86
-87
-87
-87
-87
-87
-88
-88
-88
-87
-87
-87
-88
-88
-88
-88
-88
-87
-87
-87
-87
-87
-87
-87
-87
-87
-87
-87
-87
-87
-87
-87
-88
-88
-88
-88
-88
-88
-88
-88
-88
-88
-88
-88
-88
-88
-88
-88
-88
-88
-88
-88
-87
-88
-88
-88
-88
-88
-88
-88
-88
-88
-88
-88
-88
-88
-88
-88
-88
-88
-88
-88
-89
-89
-89
-89
-89
-89
-89
-89
-89
-89
-89
-89
-89
-89
-89
-88
-88
-88
-88
-89
-89
-89
-89
-89
-89
-89
-89
-89
-89
-89
-89
-89
-89
-89
-89
-89
-89
-89
-89
-89
-89
-89
-89
-89
-89
-89
-89
-88
-88
-88
-88
-88
-88
-88
-88
-88
-88
-88
-88
-88
-88
-88
-88
-89
-89
-89
-89
-89
-89
-89
-89
-88
-88
-88
-88
-88
-88
-88
-88
-88
-88
-88
-88
-88
-88
-88
-88
-89
-89
-89
-89
-89
-89
-89
-89
-89
-89
-89
-89
-89
-89
-89
-89
-89
-89
-89
-89
-89
-88
-89
-89
-88
-88
-88
-88
-88
-87
-87
-87
-86
-86
-86
-87
-87
-87
-87
-86
-87
-87
-87
-87
-87
-87
-87
-87
-87
-88
-89
-88
-89
-90
-90
-90
-90
-91
-92
-92
-93
-94
-95
-95
-95
-96
-97
-98
-98
-99
-99
-99
-99
-100
-100
-100
-100
-101
-101
-101
-101
-101
-101
-100
-100
-100
-100
-99
-99
-99
-99
-99
-99
-99
-99
-99
-99
-99
-99
-99
-99
-99
-99
-98
-98
-98
-97
-97
-98
-97
-96
-96
-95
-95
-95
-95
-94
-94
-94
-93
-93
-93
-92
-92
-92
-91
-91
-90
-90
-90
-90
-89
-89
-88
-88
-88
-87
-87
-86
-85
-86
-86
-85
-84
-84
-84
-83
-82
-83
-82
-81
-81
-81
-81
-80
-80
-79
-80
-80
-79
-80
-80
-80
-79
-80
-80
-80
-80
-79
-79
-80
-80
-80
-79
-79
-79
-79
-79
-79
-78
-78
-78
-78
-78
-78
-77
-77
-77
-77
-77
-77
-77
-77
-77
-77
-77
-77
-78
-78
-78
-78
-78
-78
-78
-78
-77
-77
-77
-77
-77
-77
-77
-76
-76
-76
-76
-76
-75
-75
-74
-72
-72
-70
-68
-67
-64
-62
-60
-57
-55
-52
-50
-47
-44
-41
-40
-38
-36
-35
-35
-35
-36
-38
-41
-43
-48
-53
-58
-65
-72
-79
-87
-96
-106
-116
-127
-138
-148
-159
-171
-182
-192
-202
-213
-222
-231
-239
-246
-253
-257
-262
-265
-267
-267
-267
-265
-263
-259
-255
-248
-242
-235
-227
-218
-209
-199
-189
-178
-168
-158
-149
-140
-132
-124
-116
-109
-103
-97
-93
-90
-85
-83
-81
-80
-78
-77
-76
-76
-75
-76
-76
-76
-77
-77
-77
-78
-78
-78
-78
-78
-78
-78
-77
-78
-77
-77
-77
-77
-76
-76
-76
-76
-75
-75
-74
-74
-74
-75
-74
-74
-74
-74
-74
-74
-74
-74
-74
-74
-74
-74
-74
-74
-75
-75
-75
-75
-76
-76
-76
-76
-76
-76
-76
-76
-76
-76
-76
-76
-76
-76
-76
-76
-76
-77
-77
-77
-76
-76
-77
-77
-77
-77
-77
-77
-77
-78
-78
-78
-78
-78
-77
-77
-77
-77
-77
-77
-78
-78
-78
-78
-79
-79
-79
-79
-79
-79
-79
-79
-80
-80
-80
-80
-80
-80
-80
-80
-81
-80
-80
-80
-80
-81
-80
-80
-80
-80
-81
-81
-81
-81
-82
-82
-82
-82
-82
-83
-83
-83
-83
-83
-83
-83
-84
-84
-84
-83
-84
-84
-84
-84
-84
-84
-84
-84
-84
-84
-83
-83
-84
-84
-84
-84
-84
-85
-85
-85
-85
-85
-86
-86
-87
-87
-88
-87
-88
-88
-89
-89
-89
-89
-90
-90
-91
-91
-91
-92
-93
-92
-93
-93
-94
-94
-94
-95
-96
-96
-96
-97
-97
-98
-98
-99
-100
-100
-101
-101
-102
-102
-103
-103
-104
-104
-106
-106
-107
-107
-108
-109
-109
-110
-111
-111
-113
-113
-114
-115
-116
-116
-117
-118
-119
-120
-121
-122
-122
-123
-123
-125
-125
-126
-127
-128
-128
-130
-130
-131
-132
-132
-134
-134
-135
-135
-137
-138
-138
-140
-140
-140
-142
-142
-143
-144
-145
-146
-146
-146
-147
-147
-149
-150
-150
-150
-150
-151
-151
-152
-152
-153
-152
-152
-153
-153
-153
-153
-152
-152
-152
-152
-151
-150
-151
-149
-148
-148
-147
-146
-145
-144
-142
-141
-141
-140
-139
-137
-136
-135
-133
-131
-130
-129
-128
-127
-125
-124
-123
-122
-120
-118
-117
-116
-115
-114
-112
-111
-111
-110
-109
-107
-106
-106
-105
-104
-104
-103
-102
-101
-101
-101
-99
-99
-98
-97
-97
-96
-95
-95
-95
-95
-94
-93
-92
-93
-92
-91
-92
-91
-91
-90
-90
-90
-90
-90
-89
-89
-89
-89
-89
-89
-89
-89
-89
-89
-88
-88
-88
-88
-88
-88
-87
-88
-88
-88
-88
-88
-88
-88
-87
-87
-87
-87
-88
-88
-88
-88
-88
-88
-88
-87
-87
-87
-87
-87
-88
-88
-87
-87
-87
-87
-87
-87
-87
-87
-87
-87
-87
-87
-87
-86
-86
-87
-87
-86
-86
-86
-86
-86
-86
-86
-86
-86
-86
-85
-85
-85
-85
-85
-85
-85
-85
-84
-84
-84
-84
-84
-84
-85
-85
-84
-84
-84
-85
-85
-84
-84
-84
-84
-85
-85
-85
-85
-85
-85
-84
-84
-84
-84
-84
-84
-84
-84
-84
-84
-84
-84
-84
-83
-83
-83
-83
-83
-83
-83
-83
-83
-84
-84
-84
-84
-84
-84
-84
-84
-84
-85
-85
-85
-85
-85
-85
-85
-85
-85
-85
-86
-86
-86
-86
-86
-86
-86
-85
-85
-85
-85
-86
-86
-86
-86
-85
-85
-85
-85
-85
-85
-85
-85
-85
-85
-85
-86
-86
-86
-86
-86
-86
-86
-86
-86
-86
-86
-86
-86
-86
-87
-87
-87
-87
-87
-87
-87
-87
-87
-87
-87
-87
-87
-87
-87
-87
-86
-86
-86
-86
-86
-86
-86
-86
-86
-86
-86
-86
-86
-86
-86
-86
-85
-85
-85
-85
-85
-85
-85
-85
-85
-85
-85
-85
-85
-85
-85
-85
-85
-85
-86
-86
-86
-86
-86
-86
-86
-86
-86
-86
-86
-86
-85
-85
-86
-86
-86
-86
-87
-87
-87
-87
-87
-87
-87
-87
-86
-86
-86
-86
-86
