# Simple Text Format
# Sampling Rate (Hz):= 1200.00
# Resolution:= 12
# Labels:= ECG	 V6
# Age:=	29
# Gender:=	Masculino
-385
-385
-385
-385
-385
-385
-384
-384
-384
-383
-383
-383
-383
-383
-383
-382
-382
-382
-382
-381
-381
-381
-381
-380
-380
-380
-379
-379
-378
-379
-379
-378
-378
-378
-378
-378
-379
-378
-378
-378
-379
-379
-378
-379
-378
-378
-377
-377
-377
-376
-377
-377
-377
-376
-376
-376
-376
-376
-376
-376
-376
-376
-377
-376
-376
-376
-376
-375
-376
-376
-375
-376
-376
-375
-375
-375
-375
-375
-375
-375
-374
-374
-374
-374
-373
-373
-373
-372
-372
-371
-371
-370
-370
-370
-370
-369
-369
-369
-369
-368
-368
-367
-367
-368
-366
-366
-366
-366
-366
-366
-365
-365
-365
-365
-365
-365
-365
-364
-363
-363
-363
-363
-362
-362
-363
-362
-361
-360
-360
-360
-360
-359
-359
-358
-358
-358
-357
-357
-357
-356
-355
-355
-354
-353
-354
-352
-353
-352
-351
-351
-350
-349
-349
-347
-347
-346
-346
-345
-344
-343
-342
-342
-341
-340
-339
-338
-337
-336
-335
-334
-333
-332
-332
-331
-330
-329
-329
-328
-328
-327
-326
-326
-325
-324
-323
-322
-322
-320
-320
-319
-318
-317
-316
-316
-314
-314
-313
-313
-312
-312
-311
-310
-310
-309
-309
-308
-307
-307
-307
-306
-306
-306
-306
-306
-306
-306
-306
-306
-306
-307
-306
-306
-306
-306
-306
-306
-306
-306
-307
-307
-307
-307
-307
-307
-308
-309
-309
-310
-310
-311
-311
-312
-313
-314
-314
-315
-317
-317
-318
-319
-320
-322
-323
-325
-326
-327
-329
-330
-333
-334
-335
-337
-338
-339
-341
-341
-342
-343
-345
-346
-346
-347
-348
-348
-349
-350
-351
-352
-352
-353
-354
-354
-355
-356
-357
-357
-357
-358
-359
-359
-360
-360
-362
-362
-363
-363
-364
-365
-365
-365
-366
-366
-366
-368
-368
-367
-368
-368
-368
-368
-368
-368
-368
-368
-368
-369
-369
-368
-368
-369
-369
-369
-369
-369
-369
-369
-370
-369
-369
-369
-370
-369
-369
-369
-369
-369
-370
-370
-370
-370
-369
-369
-369
-369
-369
-368
-368
-369
-369
-369
-369
-368
-368
-369
-369
-369
-369
-370
-370
-370
-370
-370
-370
-370
-370
-370
-371
-370
-370
-370
-370
-370
-370
-370
-370
-371
-371
-370
-370
-370
-371
-371
-371
-371
-371
-371
-370
-370
-370
-370
-370
-371
-371
-371
-371
-371
-371
-371
-371
-371
-372
-372
-372
-372
-371
-371
-371
-370
-370
-370
-370
-371
-371
-371
-371
-371
-370
-371
-370
-370
-370
-370
-370
-370
-369
-368
-368
-368
-368
-367
-367
-367
-366
-366
-366
-366
-365
-365
-365
-366
-365
-365
-366
-365
-365
-365
-366
-365
-365
-365
-366
-366
-366
-366
-367
-367
-367
-368
-368
-368
-368
-368
-368
-368
-368
-368
-368
-368
-368
-368
-368
-368
-368
-368
-367
-367
-367
-368
-368
-368
-368
-368
-368
-368
-368
-368
-367
-367
-368
-367
-368
-368
-368
-368
-368
-368
-368
-369
-369
-369
-370
-370
-370
-370
-370
-370
-371
-371
-371
-372
-372
-372
-372
-372
-371
-371
-372
-372
-372
-372
-372
-372
-372
-372
-372
-371
-371
-371
-371
-370
-370
-371
-370
-370
-370
-370
-370
-370
-370
-370
-369
-369
-370
-370
-369
-369
-369
-368
-368
-368
-368
-367
-367
-368
-368
-368
-368
-368
-367
-368
-368
-368
-368
-368
-369
-368
-368
-368
-368
-368
-367
-367
-367
-367
-367
-367
-367
-366
-366
-367
-367
-367
-366
-367
-367
-367
-368
-367
-368
-368
-369
-369
-369
-369
-370
-370
-370
-371
-371
-371
-371
-371
-371
-372
-372
-371
-371
-371
-370
-370
-370
-370
-369
-369
-368
-368
-368
-369
-368
-368
-367
-367
-367
-367
-367
-367
-367
-366
-366
-366
-366
-367
-367
-367
-367
-367
-368
-368
-368
-368
-368
-369
-369
-369
-369
-369
-368
-368
-368
-368
-368
-367
-367
-366
-367
-367
-366
-366
-366
-366
-366
-367
-367
-367
-366
-366
-366
-366
-365
-365
-366
-366
-366
-366
-366
-366
-366
-367
-367
-366
-367
-366
-366
-366
-365
-366
-366
-365
-365
-365
-365
-364
-364
-364
-364
-364
-365
-365
-364
-364
-364
-365
-365
-365
-365
-365
-365
-364
-365
-365
-365
-365
-365
-365
-366
-366
-366
-366
-366
-366
-366
-366
-366
-367
-366
-366
-366
-365
-365
-365
-365
-364
-364
-364
-364
-364
-364
-365
-364
-364
-364
-364
-364
-364
-363
-363
-363
-362
-362
-362
-362
-361
-361
-360
-360
-360
-360
-359
-359
-358
-358
-358
-358
-358
-357
-357
-356
-355
-356
-355
-355
-355
-354
-354
-354
-354
-354
-354
-354
-354
-354
-354
-353
-353
-353
-352
-353
-352
-352
-352
-352
-352
-352
-352
-352
-352
-352
-353
-353
-353
-353
-352
-353
-353
-354
-353
-353
-353
-354
-354
-354
-354
-354
-354
-354
-355
-356
-356
-356
-356
-356
-356
-356
-356
-356
-355
-355
-356
-356
-355
-355
-354
-354
-354
-355
-355
-355
-355
-355
-355
-356
-356
-357
-357
-358
-358
-358
-358
-359
-360
-360
-360
-360
-361
-361
-361
-361
-362
-362
-362
-362
-362
-362
-362
-362
-362
-361
-361
-361
-361
-360
-360
-360
-360
-360
-360
-360
-361
-361
-361
-361
-361
-361
-361
-361
-361
-361
-361
-362
-362
-361
-361
-361
-361
-361
-361
-362
-361
-361
-361
-361
-362
-362
-363
-363
-363
-364
-365
-367
-367
-369
-371
-373
-375
-377
-379
-382
-384
-386
-389
-391
-393
-394
-395
-395
-395
-395
-393
-391
-389
-385
-381
-377
-371
-364
-356
-347
-337
-326
-314
-301
-287
-272
-256
-238
-221
-202
-183
-165
-147
-129
-111
-94
-78
-63
-50
-38
-27
-19
-12
-8
-5
-4
-6
-9
-14
-20
-29
-40
-51
-64
-78
-92
-107
-122
-137
-153
-168
-184
-199
-213
-227
-240
-252
-264
-275
-284
-294
-301
-309
-315
-321
-326
-331
-335
-337
-341
-343
-345
-346
-348
-349
-349
-350
-351
-351
-352
-351
-352
-352
-352
-352
-353
-353
-354
-354
-354
-355
-355
-356
-356
-357
-357
-357
-357
-357
-357
-357
-358
-358
-358
-359
-359
-359
-360
-360
-360
-361
-361
-361
-361
-362
-362
-362
-361
-361
-361
-361
-361
-361
-359
-360
-360
-359
-359
-359
-359
-359
-359
-359
-359
-358
-358
-358
-357
-357
-357
-358
-357
-357
-357
-358
-357
-358
-358
-358
-358
-357
-357
-357
-357
-357
-358
-357
-357
-357
-357
-356
-356
-356
-356
-355
-355
-355
-355
-355
-354
-354
-354
-354
-354
-354
-355
-354
-354
-354
-354
-354
-353
-354
-354
-353
-354
-353
-354
-354
-354
-353
-353
-353
-353
-353
-353
-353
-352
-352
-352
-350
-350
-350
-349
-349
-349
-349
-348
-347
-347
-347
-347
-347
-347
-346
-346
-346
-346
-346
-345
-345
-345
-345
-344
-345
-344
-344
-344
-344
-344
-344
-344
-343
-343
-343
-343
-343
-342
-342
-342
-342
-341
-341
-341
-340
-339
-339
-339
-338
-338
-337
-337
-336
-336
-336
-334
-335
-334
-334
-333
-331
-331
-331
-330
-329
-329
-329
-327
-327
-327
-327
-326
-326
-325
-324
-324
-323
-322
-322
-321
-321
-320
-319
-318
-317
-317
-316
-315
-314
-314
-313
-312
-311
-311
-310
-308
-308
-306
-306
-304
-303
-302
-301
-300
-299
-298
-297
-297
-295
-294
-294
-294
-292
-292
-290
-291
-289
-289
-288
-287
-287
-286
-286
-285
-285
-284
-284
-284
-283
-282
-282
-283
-282
-281
-281
-281
-280
-280
-280
-279
-279
-279
-279
-279
-279
-278
-278
-278
-279
-279
-280
-280
-280
-281
-282
-283
-284
-284
-285
-286
-286
-288
-289
-290
-290
-292
-293
-295
-296
-297
-298
-300
-301
-302
-304
-305
-307
-307
-308
-309
-311
-312
-313
-314
-315
-316
-317
-318
-318
-319
-321
-322
-323
-324
-325
-326
-327
-329
-329
-330
-331
-332
-333
-334
-335
-336
-336
-338
-339
-339
-340
-341
-341
-343
-343
-344
-344
-344
-344
-345
-345
-346
-346
-346
-346
-346
-347
-347
-348
-348
-348
-348
-349
-349
-348
-348
-348
-348
-348
-348
-349
-349
-349
-349
-348
-348
-348
-348
-348
-348
-349
-348
-348
-348
-349
-349
-349
-349
-349
-349
-349
-349
-349
-350
-349
-349
-349
-349
-349
-350
-350
-350
-350
-351
-350
-350
-350
-351
-351
-350
-350
-350
-351
-350
-350
-350
-350
-350
-350
-350
-350
-350
-350
-350
-351
-351
-351
-351
-351
-350
-350
-350
-350
-350
-350
-351
-351
-350
-350
-351
-351
-351
-351
-352
-352
-352
-352
-352
-352
-352
-351
-351
-351
-351
-350
-350
-350
-350
-350
-349
-350
-350
-350
-350
-349
-349
-349
-349
-349
-349
-348
-348
-348
-348
-347
-347
-347
-347
-347
-348
-348
-348
-348
-348
-348
-348
-348
-348
-348
-349
-349
-348
-348
-348
-348
-349
-349
-349
-348
-349
-349
-349
-349
-348
-349
-349
-349
-349
-348
-347
-347
-347
-346
-346
-346
-346
-346
-346
-346
-346
-347
-347
-347
-347
-347
-348
-349
-349
-349
-349
-348
-349
-349
-349
-349
-349
-350
-350
-350
-350
-350
-350
-350
-351
-351
-350
-350
-351
-350
-351
-351
-350
-350
-350
-350
-350
-350
-350
-351
-350
-351
-351
-351
-351
-350
-350
-350
-350
-350
-350
-349
-349
-349
-349
-349
-348
-348
-348
-348
-349
-349
-349
-349
-349
-350
-350
-350
-350
-350
-350
-350
-350
-350
-351
-350
-350
-350
-350
-350
-350
-350
-350
-350
-350
-350
-350
-349
-349
-349
-349
-348
-348
-348
-348
-349
-349
-349
-349
-349
-349
-350
-350
-350
-350
-350
-350
-351
-351
-351
-351
-350
-350
-350
-350
-350
-349
-349
-350
-350
-350
-350
-351
-351
-351
-351
-350
-350
-350
-350
-350
-350
-350
-349
-349
-349
-349
-349
-349
-349
-349
-349
-349
-349
-349
-349
-348
-349
-349
-349
-349
-348
-349
-349
-349
-349
-349
-349
-349
-349
-350
-350
-350
-350
-350
-350
-351
-352
-351
-351
-351
-351
-351
-351
-351
-350
-350
-351
-351
-350
-350
-350
-349
-349
-349
-349
-349
-349
-349
-348
-348
-347
-348
-348
-348
-347
-347
-347
-347
-347
-347
-347
-347
-347
-348
-348
-348
-348
-348
-347
-347
-348
-347
-347
-347
-347
-347
-347
-347
-347
-348
-348
-347
-347
-347
-347
-347
-347
-347
-347
-347
-347
-346
-346
-346
-345
-345
-345
-345
-346
-345
-345
-345
-345
-345
-345
-345
-345
-345
-345
-345
-345
-344
-344
-344
-345
-345
-345
-345
-345
-345
-345
-346
-346
-347
-347
-347
-347
-347
-347
-347
-347
-347
-347
-347
-346
-346
-347
-346
-346
-346
-346
-346
-346
-345
-345
-345
-345
-345
-344
-344
-343
-344
-344
-344
-343
-343
-343
-343
-343
-342
-342
-343
-343
-343
-342
-342
-342
-342
-341
-341
-341
-340
-339
-339
-339
-339
-338
-338
-339
-339
-338
-339
-338
-338
-338
-338
-338
-338
-338
-337
-337
-336
-336
-337
-336
-336
-335
-335
-336
-336
-335
-335
-335
-335
-334
-334
-334
-333
-333
-334
-333
-332
-332
-331
-332
-332
-331
-331
-331
-331
-331
-331
-331
-331
-331
-331
-331
-331
-331
-331
-331
-332
-332
-332
-332
-332
-332
-332
-333
-334
-334
-334
-334
-335
-335
-335
-335
-336
-336
-336
-336
-336
-336
-337
-336
-336
-336
-336
-337
-337
-337
-338
-338
-338
-338
-337
-337
-337
-337
-338
-337
-337
-337
-337
-337
-337
-337
-338
-338
-339
-339
-339
-340
-340
-340
-341
-340
-341
-342
-341
-341
-341
-342
-342
-342
-342
-342
-342
-342
-342
-342
-343
-343
-343
-342
-342
-342
-342
-342
-342
-341
-341
-341
-341
-341
-340
-341
-341
-341
-341
-341
-341
-341
-341
-341
-341
-340
-340
-340
-340
-342
-341
-341
-342
-343
-344
-344
-345
-347
-349
-351
-353
-355
-357
-360
-362
-364
-367
-369
-371
-373
-374
-375
-375
-376
-374
-373
-371
-367
-364
-358
-353
-346
-338
-329
-319
-306
-294
-281
-266
-251
-235
-218
-200
-182
-164
-146
-128
-111
-94
-77
-63
-49
-35
-24
-15
-7
0
5
8
9
8
6
1
-5
-13
-22
-33
-44
-57
-71
-85
-98
-113
-129
-143
-158
-172
-185
-200
-212
-225
-237
-247
-257
-267
-275
-283
-290
-296
-302
-306
-310
-313
-317
-318
-320
-323
-324
-325
-325
-326
-326
-328
-328
-328
-329
-330
-330
-331
-332
-333
-334
-335
-336
-337
-337
-338
-339
-339
-340
-341
-341
-341
-341
-341
-341
-341
-341
-342
-342
-342
-342
-341
-342
-341
-341
-341
-341
-341
-341
-341
-340
-340
-340
-340
-340
-340
-340
-341
-341
-340
-340
-341
-341
-341
-341
-341
-341
-341
-340
-340
-340
-340
-340
-340
-339
-340
-340
-340
-339
-339
-339
-339
-338
-338
-339
-338
-338
-338
-338
-337
-337
-337
-337
-337
-337
-337
-336
-337
-337
-336
-336
-336
-336
-337
-336
-336
-336
-337
-337
-336
-337
-337
-336
-336
-336
-336
-336
-336
-336
-336
-336
-336
-336
-336
-336
-335
-335
-335
-334
-334
-334
-333
-333
-333
-332
-332
-332
-332
-332
-332
-333
-332
-332
-332
-331
-332
-332
-331
-331
-331
-330
-330
-329
-329
-328
-328
-328
-328
-328
-328
-328
-327
-327
-327
-327
-327
-326
-326
-326
-325
-325
-325
-324
-325
-324
-323
-323
-323
-323
-323
-323
-323
-323
-322
-321
-322
-321
-321
-320
-320
-319
-319
-318
-317
-318
-317
-316
-316
-315
-315
-314
-314
-313
-313
-313
-312
-311
-311
-310
-310
-309
-308
-308
-307
-306
-305
-305
-304
-304
-302
-302
-301
-300
-299
-297
-297
-296
-295
-293
-292
-291
-290
-289
-288
-287
-285
-285
-284
-283
-281
-281
-280
-279
-279
-277
-276
-275
-274
-273
-272
-272
-271
-271
-269
-269
-268
-268
-268
-267
-266
-266
-265
-265
-265
-264
-263
-263
-263
-262
-262
-261
-261
-261
-260
-260
-260
-260
-260
-260
-261
-261
-261
-261
-262
-262
-263
-263
-263
-264
-264
-265
-265
-266
-267
-268
-269
-270
-271
-272
-274
-274
-276
-277
-279
-280
-281
-282
-283
-284
-286
-287
-288
-289
-290
-291
-292
-293
-295
-296
-297
-299
-300
-302
-303
-304
-305
-306
-308
-309
-309
-311
-312
-312
-314
-315
-315
-316
-317
-318
-319
-320
-320
-321
-322
-322
-322
-323
-323
-324
-324
-324
-325
-325
-326
-326
-326
-327
-327
-328
-327
-328
-328
-328
-329
-329
-329
-329
-330
-330
-329
-329
-329
-328
-328
-328
-327
-327
-327
-327
-327
-328
-328
-328
-328
-328
-329
-329
-329
-329
-329
-330
-330
-330
-330
-330
-331
-331
-331
-332
-332
-332
-332
-332
-333
-333
-332
-332
-333
-333
-332
-332
-332
-332
-332
-331
-331
-331
-331
-331
-331
-331
-331
-331
-332
-332
-332
-331
-331
-331
-331
-331
-331
-331
-330
-330
-330
-330
-330
-330
-330
-330
-330
-330
-330
-330
-330
-330
-330
-330
-331
-330
-330
-330
-330
-330
-330
-330
-330
-330
-330
-331
-331
-331
-330
-330
-330
-330
-329
-330
-330
-330
-330
-330
-330
-330
-330
-331
-331
-331
-331
-331
-331
-331
-331
-331
-331
-331
-331
-331
-331
-330
-329
-329
-329
-329
-329
-329
-329
-328
-328
-328
-328
-328
-329
-329
-329
-329
-329
-328
-328
-328
-328
-328
-329
-328
-329
-329
-329
-329
-329
-330
-330
-330
-330
-330
-330
-330
-330
-329
-330
-330
-329
-329
-329
-329
-329
-329
-329
-329
-329
-329
-329
-329
-329
-329
-329
-329
-329
-329
-328
-328
-328
-328
-328
-327
-328
-328
-328
-328
-329
-329
-329
-329
-330
-329
-329
-330
-330
-329
-330
-330
-329
-330
-330
-330
-330
-330
-330
-330
-330
-330
-330
-330
-330
-331
-330
-330
-330
-330
-330
-330
-329
-329
-328
-329
-328
-329
-329
-329
-329
-329
-329
-329
-329
-329
-329
-329
-329
-329
-329
-329
-329
-329
-329
-329
-329
-329
-329
-329
-329
-330
-330
-330
-330
-330
-330
-330
-330
-331
-330
-330
-330
-330
-330
-330
-330
-330
-330
-330
-330
-331
-331
-330
-331
-331
-331
-331
-330
-330
-330
-329
-329
-329
-329
-329
-329
-329
-329
-329
-329
-328
-328
-328
-328
-329
-329
-328
-328
-328
-328
-327
-327
-327
-328
-328
-328
-328
-328
-328
-328
-328
-328
-329
-329
-329
-329
-329
-329
-329
-329
-329
-329
-329
-330
-330
-330
-329
-329
-330
-330
-330
-331
-331
-330
-330
-330
-330
-330
-329
-329
-330
-329
-329
-329
-329
-329
-329
-329
-329
-329
-328
-328
-329
-329
-329
-329
-329
-329
-329
-329
-329
-329
-329
-329
-329
-329
-329
-329
-329
-329
-330
-329
-328
-329
-329
-329
-329
-328
-327
-327
-328
-328
-328
-328
-328
-328
-328
-328
-329
-328
-329
-329
-329
-329
-329
-329
-329
-329
-329
-329
-329
-328
-328
-328
-328
-327
-327
-327
-327
-328
-328
-328
-328
-328
-328
-328
-328
-327
-327
-327
-327
-326
-327
-326
-327
-327
-326
-326
-327
-327
-327
-327
-327
-327
-328
-328
-327
-327
-328
-328
-327
-327
-327
-328
-328
-328
-328
-328
-328
-328
-328
-328
-328
-327
-327
-327
-327
-327
-326
-327
-326
-325
-325
-325
-325
-325
-325
-325
-325
-326
-326
-326
-326
-327
-327
-327
-328
-328
-327
-328
-328
-327
-327
-328
-327
-328
-328
-328
-328
-328
-328
-328
-328
-328
-329
-329
-328
-327
-327
-328
-327
-326
-326
-326
-326
-326
-326
-326
-326
-326
-326
-326
-326
-325
-326
-326
-326
-326
-326
-325
-325
-325
-326
-325
-325
-324
-324
-325
-325
-324
-323
-324
-323
-322
-323
-322
-321
-321
-321
-320
-320
-320
-320
-319
-319
-318
-318
-318
-319
-319
-318
-318
-318
-318
-318
-317
-317
-318
-317
-317
-316
-316
-316
-316
-316
-316
-316
-316
-316
-316
-317
-317
-317
-318
-317
-318
-318
-318
-318
-318
-318
-318
-318
-319
-319
-319
-319
-319
-320
-320
-321
-321
-322
-322
-322
-323
-323
-323
-323
-323
-324
-323
-323
-323
-324
-323
-323
-323
-323
-324
-323
-323
-323
-323
-323
-323
-323
-324
-323
-323
-324
-323
-325
-324
-324
-324
-325
-325
-326
-326
-327
-327
-328
-327
-328
-329
-329
-329
-329
-328
-328
-328
-328
-327
-328
-328
-327
-327
-327
-327
-327
-327
-327
-326
-326
-326
-326
-326
-325
-325
-325
-325
-325
-325
-325
-325
-325
-326
-325
-325
-326
-326
-326
-327
-327
-327
-327
-328
-328
-328
-328
-328
-329
-329
-330
-330
-331
-332
-333
-335
-336
-338
-339
-341
-343
-345
-347
-349
-350
-352
-353
-355
-355
-357
-357
-357
-356
-356
-354
-352
-349
-346
-342
-337
-330
-324
-317
-307
-298
-288
-276
-263
-250
-235
-219
-204
-187
-170
-154
-136
-119
-102
-85
-70
-55
-41
-28
-17
-7
1
8
13
16
17
17
14
10
3
-5
-14
-24
-37
-49
-62
-76
-91
-106
-120
-135
-150
-163
-178
-191
-205
-217
-228
-239
-250
-258
-267
-274
-281
-288
-293
-297
-301
-305
-307
-309
-311
-312
-313
-314
-314
-315
-315
-315
-316
-316
-317
-317
-318
-317
-318
-319
-319
-319
-320
-320
-321
-321
-322
-322
-322
-323
-323
-323
-323
-324
-324
-324
-325
-325
-325
-325
-325
-325
-325
-325
-325
-326
-326
-326
-326
-326
-326
-325
-326
-326
-326
-327
-326
-326
-326
-327
-326
-326
-326
-326
-326
-325
-325
-325
-325
-324
-325
-325
-324
-324
-324
-324
-324
-324
-324
-324
-324
-323
-323
-323
-323
-324
-323
-323
-323
-322
-322
-322
-322
-323
-322
-323
-323
-323
-323
-323
-323
-323
-322
-322
-322
-322
-321
-321
-322
-321
-321
-321
-321
-321
-321
-321
-321
-321
-320
-320
-319
-319
-319
-318
-318
-317
-317
-317
-316
-317
-317
-316
-316
-315
-315
-315
-315
-315
-314
-314
-314
-314
-313
-313
-312
-312
-312
-311
-311
-311
-310
-310
-310
-310
-310
-309
-309
-309
-309
-309
-309
-309
-309
-309
-309
-308
-309
-308
-308
-307
-308
-308
-307
-307
-307
-307
-307
-306
-306
-306
-305
-304
-305
-304
-304
-303
-302
-302
-301
-300
-300
-300
-299
-299
-299
-299
-299
-298
-297
-297
-297
-296
-296
-296
-295
-295
-294
-293
-293
-292
-291
-291
-290
-289
-289
-288
-287
-286
-286
-285
-283
-282
-282
-281
-279
-278
-277
-276
-276
-275
-274
-272
-272
-270
-269
-269
-267
-267
-266
-265
-264
-263
-262
-261
-259
-259
-259
-257
-256
-256
-255
-254
-254
-254
-253
-252
-252
-252
-252
-251
-251
-250
-250
-250
-249
-249
-249
-248
-248
-248
-247
-247
-248
-248
-248
-248
-248
-248
-248
-249
-249
-249
-250
-250
-250
-250
-251
-250
-251
-252
-252
-253
-254
-254
-254
-255
-257
-258
-259
-259
-260
-261
-263
-264
-265
-266
-268
-269
-271
-272
-273
-274
-276
-277
-278
-279
-280
-282
-283
-285
-285
-286
-287
-288
-289
-290
-290
-291
-292
-293
-294
-294
-296
-296
-297
-298
-298
-299
-300
-302
-302
-302
-303
-303
-304
-305
-306
-306
-307
-307
-308
-309
-309
-310
-310
-311
-311
-312
-312
-313
-313
-313
-314
-314
-314
-315
-315
-315
-315
-315
-315
-315
-315
-316
-316
-316
-317
-317
-317
-317
-317
-317
-317
-317
-317
-317
-317
-318
-317
-317
-317
-317
-317
-317
-317
-317
-317
-317
-317
-317
-317
-317
-317
-316
-316
-315
-315
-315
-315
-315
-315
-316
-316
-315
-316
-316
-317
-316
-317
-317
-318
-318
-318
-318
-318
-317
-317
-317
-317
-317
-316
-317
-317
-317
-317
-317
-317
-317
-317
-317
-317
-317
-317
-316
-317
-317
-317
-317
-317
-317
-317
-317
-317
-317
-317
-318
-317
-317
-317
-317
-316
-316
-316
-316
-316
-316
-315
-315
-315
-315
-314
-314
-314
-314
-314
-314
-314
-314
-315
-316
-315
-316
-316
-317
-316
-316
-317
-317
-317
-316
-317
-317
-317
-317
-317
-318
-317
-317
-317
-317
-316
-316
-316
-316
-315
-315
-314
-314
-313
-314
-313
-313
-313
-313
-313
-313
-312
-313
-314
-313
-313
-313
-313
-313
-313
-313
-313
-313
-314
-313
-313
-313
-313
-313
-313
-314
-314
-314
-313
-313
-313
-313
-313
-313
-313
-313
-313
-313
-313
-314
-314
-315
-315
-315
-315
-316
-316
-316
-316
-316
-316
-316
-317
-317
-316
-317
-317
-316
-316
-316
-316
-316
-316
-316
-316
-316
-316
-316
-316
-316
-316
-315
-316
-316
-315
-315
-315
-315
-315
-315
-314
-314
-315
-316
-316
-315
-315
-315
-315
-315
-316
-315
-316
-316
-316
-316
-315
-315
-315
-316
-316
-316
-316
-316
-316
-316
-317
-317
-317
-317
-316
-316
-316
-316
-316
-316
-316
-315
-315
-315
-316
-315
-314
-315
-315
-315
-315
-315
-315
-316
-316
-316
-316
-316
-316
-317
-317
-317
-318
-317
-317
-318
-318
-318
-318
-318
-318
-318
-318
-318
-318
-318
-317
-317
-316
-317
-316
-316
-316
-316
-315
-315
-315
-316
-316
-316
-317
-317
-317
-317
-317
-317
-317
-317
-318
-318
-318
-318
-318
-318
-317
-317
-317
-317
-318
-318
-318
-318
-318
-317
-317
-317
-317
-317
-318
-317
-317
-317
-317
-318
-317
-318
-318
-318
-318
-318
-319
-318
-318
-319
-318
-318
-317
-317
-317
-316
-316
-316
-316
-316
-315
-315
-314
-315
-315
-315
-314
-315
-315
-315
-315
-315
-315
-315
-315
-315
-314
-314
-314
-314
-315
-314
-314
-314
-314
-315
-314
-314
-314
-314
-314
-314
-314
-314
-314
-314
-314
-314
-314
-315
-314
-314
-314
-314
-315
-315
-315
-315
-315
-315
-315
-314
-314
-314
-315
-314
-314
-314
-314
-313
-313
-313
-313
-314
-314
-314
-314
-314
-314
-315
-315
-315
-315
-315
-315
-315
-315
-315
-315
-316
-315
-315
-315
-315
-315
-314
-315
-315
-315
-315
-314
-314
-314
-314
-314
-314
-314
-314
-314
-314
-314
-314
-314
-314
-314
-314
-315
-315
-314
-314
-315
-314
-314
-314
-313
-313
-312
-312
-312
-312
-311
-311
-310
-311
-310
-310
-310
-310
-310
-309
-310
-309
-309
-309
-309
-309
-307
-308
-308
-308
-307
-307
-307
-308
-307
-307
-307
-307
-307
-307
-307
-307
-306
-306
-307
-306
-306
-306
-305
-305
-305
-305
-304
-305
-305
-304
-304
-304
-303
-303
-303
-303
-302
-302
-301
-301
-301
-301
-301
-301
-301
-301
-301
-301
-301
-302
-302
-303
-303
-303
-304
-304
-305
-306
-306
-306
-305
-306
-307
-306
-307
-307
-307
-307
-307
-307
-307
-307
-306
-306
-307
-306
-306
-306
-306
-305
-305
-305
-305
-305
-305
-305
-305
-305
-306
-305
-306
-306
-306
-307
-307
-308
-308
-308
-308
-309
-309
-309
-309
-311
-311
-311
-311
-311
-312
-312
-313
-312
-312
-312
-313
-313
-312
-312
-312
-312
-312
-312
-312
-312
-313
-313
-313
-313
-313
-313
-313
-313
-313
-313
-314
-313
-312
-312
-312
-312
-311
-311
-311
-311
-311
-311
-310
-310
-311
-310
-311
-311
-311
-312
-313
-313
-314
-315
-316
-318
-319
-320
-323
-324
-327
-328
-332
-334
-336
-339
-340
-343
-345
-346
-348
-348
-348
-347
-346
-345
-341
-338
-335
-330
-323
-317
-309
-300
-291
-280
-268
-256
-241
-226
-211
-194
-176
-158
-141
-123
-105
-87
-70
-53
-38
-23
-10
1
11
19
27
31
35
35
34
32
27
22
14
5
-6
-17
-31
-43
-57
-71
-86
-100
-115
-131
-145
-160
-173
-186
-199
-210
-222
-232
-242
-251
-258
-265
-272
-277
-282
-286
-290
-292
-295
-297
-299
-301
-302
-303
-303
-304
-304
-305
-304
-305
-305
-305
-305
-305
-306
-306
-306
-307
-307
-308
-309
-309
-310
-310
-310
-312
-312
-312
-312
-312
-312
-312
-312
-312
-312
-312
-312
-312
-312
-312
-311
-311
-311
-311
-311
-311
-311
-311
-311
-311
-310
-310
-310
-310
-310
-310
-310
-310
-310
-310
-310
-310
-310
-310
-311
-310
-311
-311
-311
-310
-311
-310
-310
-310
-310
-310
-310
-310
-310
-310
-311
-310
-309
-310
-310
-310
-309
-309
-309
-309
-308
-308
-308
-307
-307
-307
-306
-306
-306
-306
-307
-307
-307
-307
-306
-306
-306
-305
-305
-306
-306
-305
-305
-305
-305
-305
-305
-305
-305
-305
-305
-305
-305
-304
-304
-303
-303
-303
-302
-302
-303
-302
-302
-301
-301
-300
-300
-300
-299
-299
-299
-299
-299
-298
-298
-298
-298
-297
-297
-296
-296
-295
-295
-295
-294
-294
-294
-294
-294
-294
-295
-295
-294
-294
-294
-294
-295
-294
-294
-293
-293
-293
-293
-292
-292
-291
-291
-291
-290
-290
-289
-289
-289
-288
-288
-287
-286
-286
-285
-285
-284
-284
-284
-282
-282
-282
-281
-281
-279
-279
-278
-278
-277
-277
-276
-276
-275
-274
-274
-273
-272
-271
-270
-269
-268
-268
-266
-266
-266
-264
-263
-263
-262
-261
-260
-259
-258
-257
-257
-256
-255
-254
-253
-252
-251
-250
-249
-248
-248
-247
-246
-246
-245
-243
-243
-241
-241
-240
-239
-238
-237
-236
-236
-235
-234
-234
-233
-233
-232
-232
-232
-232
-232
-231
-231
-231
-231
-231
-231
-231
-231
-231
-231
-231
-230
-230
-231
-231
-231
-232
-232
-233
-233
-233
-234
-235
-235
-236
-237
-237
-237
-238
-239
-240
-241
-242
-244
-245
-246
-248
-249
-251
-252
-253
-254
-256
-258
-259
-260
-261
-263
-263
-265
-266
-267
-268
-269
-271
-271
-273
-274
-275
-276
-277
-278
-279
-279
-280
-282
-282
-283
-284
-285
-285
-287
-287
-288
-290
-290
-291
-292
-292
-293
-294
-294
-295
-295
-295
-295
-295
-296
-296
-296
-297
-296
-296
-297
-297
-297
-298
-298
-298
-299
-299
-299
-299
-299
-299
-299
-299
-299
-300
-300
-300
-300
-299
-300
-300
-300
-300
-301
-301
-302
-303
-302
-302
-303
-303
-303
-303
-303
-303
-303
-303
-303
-303
-303
-302
-302
-302
-302
-302
-302
-302
-302
-302
-301
-301
-301
-301
-300
-300
-300
-300
-299
-299
-299
-300
-300
-300
-299
-300
-300
-300
-300
-300
-300
-300
-300
-300
-299
-299
-299
-299
-300
-299
-300
-300
-300
-300
-300
-300
-300
-301
-301
-301
-302
-301
-301
-301
-301
-301
-301
-300
-301
-301
-300
-301
-301
-301
-301
-302
-302
-301
-301
-301
-301
-301
-301
-301
-300
-300
-300
-300
-299
-299
-299
-299
-299
-300
-299
-299
-299
-299
-298
-298
-298
-298
-298
-298
-298
-298
-298
-298
-299
-299
-299
-299
-300
-300
-300
-301
-301
-301
-300
-301
-301
-301
-301
-301
-301
-300
-300
-300
-300
-299
-299
-300
-299
-299
-299
-300
-299
-299
-300
-300
-300
-300
-300
-300
-299
-300
-300
-300
-301
-301
-301
-301
-301
-301
-302
-302
-303
-302
-303
-303
-303
-304
-303
-303
-303
-302
-302
-303
-303
-303
-303
-303
-303
-303
-303
-303
-303
-302
-302
-302
-302
-303
-303
-302
-302
-303
-303
-302
-302
-302
-302
-302
-302
-302
-302
-302
-302
-303
-303
-302
-302
-302
-302
-302
-302
-302
-302
-302
-302
-302
-302
-303
-303
-303
-303
-304
-304
-304
-303
-303
-303
-304
-304
-304
-304
-303
-303
-303
-304
-303
-303
-303
-303
-303
-303
-303
-303
-302
-303
-302
-302
-302
-302
-301
-301
-301
-302
-302
-301
-301
-301
-301
-301
-301
-302
-302
-302
-303
-303
-303
-303
-303
-303
-303
-303
-302
-302
-302
-302
-303
-302
-302
-301
-301
-302
-302
-302
-302
-302
-302
-302
-302
-302
-302
-302
-302
-302
-302
-302
-302
-302
-302
-302
-302
-302
-302
-302
-301
-302
-302
-302
-302
-302
-301
-301
-301
-301
-300
-300
-301
-301
-301
-302
-301
-302
-302
-302
-302
-302
-303
-302
-302
-303
-303
-302
-302
-302
-302
-302
-301
-302
-301
-301
-301
-302
-302
-301
-301
-302
-301
-301
-301
-301
-301
-300
-301
-301
-301
-301
-301
-301
-302
-302
-302
-302
-302
-302
-302
-302
-303
-302
-302
-303
-302
-303
-303
-302
-302
-302
-301
-302
-302
-302
-301
-301
-302
-301
-301
-301
-301
-301
-301
-301
-301
-300
-301
-301
-301
-300
-301
-301
-301
-301
-301
-301
-301
-301
-301
-301
-302
-302
-302
-302
-302
-302
-301
-301
-301
-301
-301
-301
-301
-301
-302
-302
-302
-301
-301
-302
-302
-302
-302
-302
-301
-301
-301
-301
-300
-301
-301
-300
-300
-300
-299
-300
-300
-301
-300
-300
-300
-299
-299
-299
-299
-299
-298
-297
-297
-297
-296
-296
-295
-295
-295
-294
-295
-295
-294
-295
-294
-294
-294
-294
-294
-294
-294
-294
-294
-293
-293
-293
-294
-294
-294
-294
-294
-294
-294
-293
-293
-293
-293
-292
-292
-291
-292
-291
-291
-290
-291
-291
-291
-291
-291
-291
-290
-291
-291
-291
-291
-291
-291
-291
-291
-292
-291
-291
-291
-292
-292
-292
-292
-293
-293
-293
-294
-294
-294
-294
-294
-294
-294
-294
-294
-295
-295
-295
-295
-295
-295
-294
-295
-295
-295
-295
-295
-294
-295
-295
-295
-295
-296
-296
-296
-296
-295
-296
-296
-297
-297
-298
-298
-298
-299
-300
-300
-301
-301
-301
-302
-302
-302
-302
-302
-301
-301
-301
-301
-301
-301
-301
-301
-301
-302
-302
-303
-303
-303
-303
-303
-303
-303
-303
-304
-303
-303
-303
-303
-303
-302
-301
-301
-301
-301
-301
-302
-301
-300
-301
-301
-301
-301
-301
-301
-302
-302
-303
-303
-304
-306
-307
-309
-310
-312
-314
-316
-318
-320
-321
-324
-325
-327
-328
-329
-328
-328
-328
-327
-326
-324
-321
-317
-314
-308
-304
-297
-290
-281
-272
-262
-251
-239
-226
-211
-197
-180
-164
-146
-129
-111
-94
-77
-61
-45
-30
-15
-3
9
19
27
34
38
41
42
41
39
34
28
21
11
0
-12
-25
-38
-52
-66
-81
-95
-110
-125
-139
-152
-166
-178
-190
-202
-212
-221
-230
-238
-245
-251
-258
-263
-266
-271
-273
-276
-279
-281
-282
-284
-284
-286
-286
-287
-287
-287
-288
-289
-290
-290
-290
-291
-292
-291
-292
-293
-293
-293
-293
-294
-294
-294
-294
-294
-294
-294
-294
-295
-295
-295
-295
-296
-295
-296
-297
-297
-297
-298
-298
-298
-298
-299
-298
-298
-299
-298
-298
-298
-298
-298
-298
-298
-298
-297
-297
-297
-298
-297
-297
-297
-297
-297
-297
-296
-296
-297
-296
-296
-296
-296
-296
-296
-297
-296
-296
-296
-296
-296
-296
-296
-296
-295
-295
-295
-295
-295
-295
-294
-294
-294
-294
-294
-294
-295
-295
-293
-293
-294
-294
-293
-292
-292
-292
-291
-291
-291
-291
-290
-290
-289
-289
-289
-289
-289
-289
-289
-289
-288
-288
-288
-287
-287
-287
-287
-287
-286
-286
-285
-285
-285
-284
-284
-284
-283
-283
-283
-282
-282
-282
-282
-281
-281
-280
-280
-280
-280
-279
-280
-280
-280
-280
-280
-281
-281
-281
-281
-282
-282
-282
-283
-283
-283
-283
-283
-282
-282
-281
-282
-281
-281
-281
-280
-280
-279
-279
-278
-278
-277
-276
-276
-275
-275
-274
-273
-273
-272
-272
-271
-269
-269
-269
-268
-268
-267
-267
-266
-266
-265
-265
-264
-264
-264
-263
-262
-261
-260
-260
-260
-259
-257
-258
-256
-256
-255
-254
-253
-253
-251
-251
-250
-249
-248
-247
-245
-244
-244
-243
-242
-240
-239
-239
-238
-236
-235
-234
-233
-233
-231
-231
-229
-228
-228
-227
-226
-225
-225
-223
-222
-222
-221
-221
-221
-221
-221
-220
-220
-220
-220
-219
-219
-219
-218
-218
-218
-217
-217
-216
-216
-216
-216
-216
-216
-217
-216
-217
-217
-216
-217
-218
-218
-219
-220
-220
-220
-221
-222
-223
-224
-224
-227
-228
-229
-230
-231
-233
-234
-235
-236
-237
-238
-240
-241
-242
-242
-243
-245
-247
-247
-249
-250
-251
-252
-254
-255
-257
-258
-259
-260
-261
-262
-263
-265
-266
-267
-268
-269
-270
-270
-272
-273
-273
-274
-275
-276
-276
-277
-277
-278
-278
-279
-279
-280
-280
-280
-281
-282
-282
-282
-283
-283
-284
-285
-285
-286
-286
-286
-287
-287
-287
-287
-288
-287
-287
-287
-287
-288
-288
-287
-287
-288
-288
-288
-288
-289
-288
-289
-290
-289
-289
-290
-290
-290
-290
-290
-290
-290
-290
-290
-290
-290
-290
-290
-290
-291
-291
-291
-291
-291
-291
-291
-290
-290
-290
-290
-289
-289
-289
-289
-289
-289
-289
-288
-288
-289
-289
-289
-289
-289
-289
-289
-289
-289
-289
-290
-289
-290
-290
-289
-289
-290
-290
-290
-290
-290
-291
-290
-291
-291
-291
-290
-290
-290
-290
-289
-289
-289
-289
-288
-288
-288
-289
-289
-289
-290
-289
-289
-289
-290
-290
-290
-290
-290
-290
-290
-290
-290
-290
-290
-290
-290
-290
-289
-289
-290
-290
-289
-289
-289
-289
-289
-289
-289
-288
-288
-288
-288
-288
-288
-288
-288
-289
-289
-289
-289
-289
-289
-289
-289
-290
-289
-289
-289
-290
-290
-289
-289
-289
-289
-288
-289
-289
-289
-289
-289
-289
-289
-289
-288
-288
-288
-288
-288
-288
-289
-288
-288
-288
-289
-288
-288
-288
-289
-289
-288
-289
-289
-289
-289
-289
-289
-290
-290
-290
-289
-289
-290
-290
-290
-289
-290
-290
-290
-290
-290
-290
-291
-292
-291
-291
-291
-291
-291
-291
-291
-291
-291
-291
-290
-290
-290
-290
-290
-289
-289
-290
-289
-289
-289
-288
-288
-288
-288
-288
-289
-289
-289
-289
-289
-289
-289
-290
-290
-290
-290
-291
-292
-292
-291
-292
-292
-292
-292
-291
-291
-291
-291
-290
-290
-291
-291
-290
-290
-290
-290
-290
-290
-291
-291
-291
-291
-291
-291
-291
-291
-291
-291
-291
-291
-291
-292
-292
-291
-291
-291
-292
-292
-292
-292
-292
-292
-292
-292
-291
-291
-292
-292
-292
-291
-291
-292
-292
-292
-291
-291
-292
-292
-292
-292
-292
-292
-292
-292
-292
-291
-291
-291
-291
-291
-291
-291
-291
-291
-291
-291
-291
-292
-292
-292
-292
-293
-293
-293
-293
-292
-292
-292
-293
-293
-293
-293
-293
-294
-294
-294
-293
-293
-294
-293
-293
-293
-293
-293
-292
-292
-292
-291
-291
-291
-291
-291
-291
-291
-290
-291
-291
-291
-291
-292
-292
-292
-291
-291
-291
-291
-291
-291
-291
-291
-291
-291
-291
-291
-291
-291
-292
-292
-292
-291
-291
-291
-291
-291
-290
-290
-291
-291
-291
-290
-289
-290
-290
-290
-290
-291
-290
-290
-291
-291
-291
-291
-291
-291
-291
-291
-292
-292
-292
-292
-291
-292
-292
-293
-292
-292
-292
-292
-292
-292
-292
-292
-292
-292
-292
-291
-291
-291
-291
-290
-290
-290
-289
-289
-289
-289
-289
-289
-289
-289
-289
-289
-288
-288
-287
-287
-287
-286
-286
-286
-286
-285
-286
-286
-285
-285
-285
-284
-284
-284
-284
-284
-283
-283
-283
-283
-282
-282
-282
-281
-281
-281
-280
-281
-280
-280
-280
-280
-280
-280
-280
-279
-280
-280
-280
-279
-279
-279
-279
-279
-279
-279
-280
-280
-280
-281
-281
-282
-282
-283
-283
-283
-283
-284
-284
-284
-283
-283
-284
-284
-285
-285
-285
-285
-285
-286
-286
-286
-286
-287
-287
-287
-287
-287
-287
-286
-286
-286
-286
-286
-286
-286
-286
-287
-287
-287
-288
-287
-287
-287
-289
-288
-289
-289
-289
-289
-289
-289
-289
-289
-290
-290
-291
-290
-290
-291
-290
-290
-291
-290
-290
-290
-290
-290
-290
-290
-291
-290
-290
-290
-290
-290
-290
-291
-291
-291
-291
-291
-291
-291
-291
-291
-292
-292
-292
-291
-291
-291
-291
-291
-291
-291
-291
-291
-291
-291
-292
-292
-293
-293
-294
-296
-296
-298
-300
-301
-303
-305
-307
-308
-311
-312
-314
-316
-318
-320
-322
-323
-323
-324
-322
-321
-319
-317
-314
-310
-306
-300
-294
-286
-278
-269
-259
-248
-236
-224
-210
-195
-179
-162
-146
-128
-111
-94
-75
-59
-43
-26
-12
2
14
24
33
40
46
49
51
51
49
45
40
33
25
15
4
-8
-21
-35
-48
-62
-77
-91
-105
-120
-134
-148
-160
-173
-184
-196
-206
-215
-223
-231
-238
-244
-249
-254
-258
-262
-265
-268
-270
-272
-273
-275
-277
-277
-279
-280
-280
-281
-281
-282
-282
-283
-283
-284
-284
-285
-285
-286
-286
-287
-287
-288
-288
-288
-289
-289
-289
-289
-289
-289
-290
-290
-290
-290
-290
-289
-289
-289
-290
-290
-290
-289
-290
-290
-290
-290
-291
-291
-290
-290
-290
-290
-290
-291
-290
-290
-290
-290
-290
-290
-290
-290
-289
-289
-289
-289
-289
-289
-288
-288
-288
-287
-286
-286
-286
-285
-285
-285
-285
-285
-285
-285
-285
-284
-284
-284
-284
-284
-284
-284
-284
-284
-283
-283
-283
-283
-283
-283
-283
-283
-283
-284
-284
-284
-284
-283
-283
-283
-283
-283
-282
-282
-281
-280
-280
-281
-280
-280
-279
-279
-279
-279
-279
-279
-280
-279
-280
-280
-280
-279
-279
-280
-280
-280
-279
-279
-279
-279
-279
-279
-279
-280
-279
-279
-279
-278
-278
-278
-278
-277
-277
-276
-276
-275
-274
-274
-273
-273
-272
-273
-273
-272
-272
-272
-271
-271
-271
-270
-269
-269
-268
-268
-267
-267
-266
-267
-266
-266
-266
-265
-265
-264
-264
-264
-264
-264
-264
-263
-263
-262
-261
-262
-260
-259
-259
-258
-258
-257
-256
-255
-255
-254
-253
-252
-252
-251
-251
-250
-249
-248
-247
-246
-246
-245
-244
-243
-242
-242
-241
-241
-240
-240
-239
-238
-238
-236
-236
-235
-234
-233
-233
-232
-230
-230
-228
-227
-227
-225
-224
-224
-223
-223
-221
-221
-220
-219
-219
-218
-217
-216
-216
-215
-214
-213
-212
-212
-211
-211
-210
-210
-210
-209
-209
-209
-209
-208
-209
-209
-209
-209
-209
-209
-209
-209
-208
-209
-210
-209
-210
-211
-211
-211
-212
-212
-213
-214
-214
-215
-215
-216
-217
-218
-218
-219
-221
-221
-222
-223
-225
-226
-227
-229
-230
-232
-234
-235
-237
-238
-239
-240
-242
-243
-244
-245
-247
-248
-249
-250
-251
-253
-254
-256
-257
-258
-258
-260
-261
-261
-262
-263
-264
-265
-265
-266
-266
-267
-267
-268
-269
-269
-270
-270
-271
-271
-272
-271
-272
-272
-273
-273
-273
-273
-273
-274
-274
-275
-275
-275
-275
-277
-277
-278
-279
-279
-281
-281
-281
-281
-282
-282
-282
-283
-283
-283
-283
-283
-283
-283
-283
-283
-282
-283
-283
-282
-282
-282
-282
-282
-282
-282
-282
-282
-282
-282
-281
-281
-281
-281
-281
-282
-282
-281
-282
-282
-282
-281
-281
-282
-282
-281
-281
-281
-281
-281
-281
-282
-281
-282
-282
-282
-282
-283
-283
-283
-284
-284
-284
-284
-284
-284
-284
-285
-285
-285
-285
-285
-285
-285
-285
-285
-285
-285
-285
-285
-285
-285
-285
-285
-284
-284
-285
-284
-284
-284
-284
-284
-283
-283
-283
-283
-283
-284
-284
-284
-284
-284
-284
-284
-284
-284
-284
-284
-283
-283
-283
-283
-283
-283
-283
-284
-283
-284
-284
-284
-285
-285
-284
-284
-284
-284
-284
-284
-284
-284
-284
-284
-284
-284
-284
-284
-284
-283
-283
-283
-283
-283
-283
-283
-282
-283
-283
-283
-282
-282
-283
-283
-283
-283
-283
-283
-283
-284
-284
-284
-284
-284
-284
-284
-284
-284
-284
-284
-284
-284
-284
-284
-284
-285
-285
-285
-285
-286
-286
-286
-286
-286
-287
-287
-287
-288
-287
-287
-287
-286
-286
-287
-287
-287
-287
-287
-287
-287
-287
-288
-287
-288
-288
-288
-288
-288
-287
-287
-288
-288
-288
-287
-287
-287
-287
-287
-288
-288
-288
-287
-287
-288
-288
-288
-288
-288
-288
-288
-287
-287
-287
-287
-287
-287
-287
-287
-287
-287
-287
-287
-287
-287
-288
-288
-287
-287
-287
-287
-286
-287
-287
-286
-286
-286
-286
-287
-287
-287
-287
-287
-287
-287
-287
-287
-288
-288
-288
-287
-287
-287
-287
-287
-286
-286
-287
-287
-287
-286
-287
-287
-287
-287
-287
-287
-287
-287
-287
-287
-287
-287
-287
-288
-288
-288
-288
-288
-288
-288
-288
-288
-288
-288
-289
-289
-288
-288
-288
-287
-287
-287
-287
-286
-287
-287
-287
-287
-287
-287
-287
-287
-287
-287
-287
-288
-288
-288
-288
-287
-287
-287
-287
-288
-288
-288
-288
-288
-288
-288
-288
-289
-289
-289
-288
-288
-288
-287
-287
-287
-287
-287
-287
-287
-286
-286
-286
-286
-286
-286
-286
-286
-286
-286
-287
-287
-287
-288
-287
-287
-288
-288
-288
-288
-288
-288
-288
-289
-289
-289
-289
-289
-289
-289
-290
-289
-289
-288
-288
-288
-288
-287
-286
-286
-286
-286
-286
-286
-285
-285
-285
-284
-284
-285
-284
-284
-284
-284
-283
-283
-282
-282
-282
-282
-282
-282
-282
-282
-281
-280
-280
-280
-281
-281
-281
-280
-281
-280
-280
-280
-279
-279
-278
-279
-278
-278
-279
-278
-278
-279
-278
-278
-279
-279
-278
-278
-278
-278
-278
-278
-278
-278
-278
-278
-277
-277
-277
-277
-277
-278
-278
-278
-278
-279
-279
-280
-279
-279
-280
-280
-280
-279
-281
-280
-280
-280
-280
-280
-280
-281
-281
-281
-281
-280
-281
-281
-281
-281
-281
-280
-281
-280
-280
-280
-280
-280
-280
-281
-281
-282
-282
-282
-283
-283
-284
-285
-285
-285
-285
-286
-285
-285
-285
-286
-286
-286
-286
-288
-288
-287
-288
-288
-288
-288
-289
-288
-288
-287
-287
-287
-287
-287
-287
-286
-286
-286
-286
-286
-286
-286
-285
-285
-285
-285
-285
-284
-285
-285
-285
-285
-284
-284
-284
-285
-285
-286
-287
-288
-289
-290
-293
-294
-296
-298
-300
-302
-303
-305
-307
-310
-312
-314
-316
-317
-317
-318
-318
-318
-316
-315
-313
-309
-306
-301
-296
-289
-281
-273
-264
-254
-242
-230
-217
-202
-187
-171
-153
-135
-117
-99
-82
-64
-47
-30
-14
0
14
26
37
46
53
58
61
63
63
61
56
50
42
33
23
11
-2
-16
-30
-44
-59
-73
-88
-103
-118
-132
-146
-158
-172
-183
-195
-205
-213
-222
-230
-237
-243
-249
-253
-257
-260
-263
-265
-268
-269
-270
-271
-272
-272
-273
-273
-274
-275
-275
-276
-276
-277
-278
-278
-278
-279
-279
-279
-280
-280
-281
-281
-281
-281
-281
-282
-282
-283
-283
-283
-284
-283
-283
-284
-284
-284
-284
-284
-283
-283
-283
-283
-283
-282
-282
-282
-282
-282
-282
-283
-283
-283
-282
-282
-282
-282
-283
-283
-282
-282
-282
-283
-282
-282
-282
-282
-282
-282
-282
-282
-282
-282
-283
-283
-283
-282
-282
-282
-282
-281
-281
-281
-281
-280
-280
-280
-280
-280
-280
-280
-280
-280
-280
-280
-280
-280
-280
-280
-280
-279
-279
-279
-279
-280
-279
-279
-279
-279
-279
-278
-278
-278
-278
-278
-278
-277
-277
-277
-276
-276
-276
-276
-275
-275
-274
-274
-274
-274
-274
-274
-274
-274
-274
-274
-273
-273
-272
-273
-273
-272
-272
-272
-272
-271
-271
-271
-271
-271
-270
-271
-271
-270
-270
-270
-270
-269
-269
-269
-268
-268
-267
-267
-268
-267
-267
-266
-266
-267
-266
-265
-265
-265
-265
-265
-265
-264
-264
-263
-262
-263
-262
-261
-261
-260
-259
-259
-258
-258
-257
-256
-255
-255
-255
-254
-254
-253
-252
-251
-251
-250
-249
-248
-247
-246
-245
-244
-243
-243
-242
-241
-240
-239
-239
-238
-237
-237
-236
-235
-234
-233
-232
-231
-230
-230
-229
-228
-228
-227
-226
-226
-224
-223
-223
-221
-221
-220
-218
-217
-216
-215
-213
-213
-212
-211
-210
-209
-208
-208
-208
-206
-206
-206
-205
-205
-205
-204
-204
-203
-203
-202
-202
-202
-201
-201
-201
-201
-201
-200
-200
-200
-200
-201
-201
-201
-202
-202
-202
-202
-203
-203
-203
-204
-204
-205
-205
-206
-208
-209
-210
-210
-211
-213
-214
-215
-217
-218
-219
-220
-221
-222
-223
-224
-225
-226
-227
-228
-229
-232
-233
-233
-234
-236
-237
-238
-239
-240
-242
-243
-244
-244
-246
-247
-248
-248
-250
-251
-252
-253
-254
-255
-256
-256
-257
-258
-259
-259
-259
-261
-261
-262
-263
-263
-263
-263
-264
-265
-265
-265
-266
-266
-267
-267
-267
-268
-268
-268
-268
-268
-268
-268
-267
-268
-268
-267
-267
-268
-268
-268
-268
-269
-269
-270
-270
-270
-269
-270
-270
-270
-270
-270
-269
-270
-270
-270
-270
-270
-270
-270
-271
-271
-271
-271
-271
-270
-270
-271
-271
-271
-270
-270
-271
-271
-271
-271
-271
-271
-271
-272
-272
-272
-272
-272
-273
-273
-273
-273
-273
-272
-272
-272
-272
-271
-271
-271
-270
-270
-270
-270
-270
-269
-269
-269
-269
-269
-269
-269
-269
-269
-269
-268
-269
-269
-269
-269
-268
-269
-269
-269
-268
-268
-268
-268
-269
-269
-269
-269
-269
-268
-268
-269
-269
-269
-269
-269
-269
-269
-270
-270
-270
-270
-270
-270
-271
-271
-271
-271
-271
-271
-271
-270
-270
-270
-270
-268
-268
-268
-269
-269
-268
-268
-269
-269
-269
-268
-268
-269
-269
-269
-269
-269
-269
-269
-269
-269
-269
-269
-269
-269
-269
-270
-270
-270
-270
-271
-271
-271
-271
-271
-269
-270
-270
-269
-269
-269
-269
-269
-269
-269
-269
-269
-269
-269
-269
-270
-270
-270
-270
-270
-270
-270
-271
-270
-270
-270
-271
-271
-271
-271
-271
-271
-271
-271
-271
-272
-272
-272
-271
-271
-271
-271
-271
-271
-271
-270
-270
-271
-271
-271
-271
-272
-272
-273
-272
-272
-273
-273
-273
-273
-272
-272
-272
-272
-272
-273
-272
-272
-272
-272
-272
-272
-271
-271
-272
-272
-273
-272
-272
-272
-272
-272
-272
-272
-273
-273
-272
-273
-273
-273
-273
-273
-274
-274
-273
-273
-273
-273
-273
-273
-272
-273
-273
-273
-273
-273
-273
-273
-273
-272
-272
-272
-273
-273
-273
-272
-272
-272
-272
-271
-271
-271
-271
-271
-270
-269
-269
-269
-270
-270
-270
-270
-271
-271
-271
-271
-271
-271
-271
-271
-271
-271
-271
-271
-272
-272
-272
-272
-272
-272
-272
-272
-273
-273
-274
-274
-273
-273
-273
-274
-274
-273
-273
-274
-274
-274
-274
-274
-274
-274
-274
-274
-274
-274
-273
-274
-274
-274
-274
-274
-273
-273
-273
-273
-273
-272
-272
-272
-273
-273
-272
-272
-273
-273
-272
-272
-272
-271
-271
-271
-271
-270
-270
-270
-270
-269
-269
-269
-269
-269
-270
-270
-270
-270
-271
-271
-272
-271
-271
-272
-272
-272
-271
-271
-271
-271
-271
-271
-271
-270
-271
-270
-270
-271
-271
-270
-270
-269
-269
-269
-268
-268
-269
-268
-269
-268
-268
-268
-269
-268
-268
-268
-268
-268
-268
-268
-268
-267
-267
-267
-266
-266
-265
-265
-265
-265
-265
-265
-264
-264
-264
-264
-264
-264
-264
-264
-264
-263
-263
-263
-262
-262
-262
-261
-261
-262
-262
-262
-262
-261
-261
-261
-262
-261
-261
-261
-261
-261
-261
-260
-260
-261
-260
-259
-260
-260
-260
-260
-261
-261
-262
-262
-263
-263
-264
-264
-265
-265
-266
-266
-266
-266
-267
-267
-267
-266
-267
-267
-267
-267
-268
-268
-267
-267
-267
-268
-268
-268
-268
-268
-269
-269
-269
-269
-269
-270
-270
-270
-271
-271
-272
-272
-272
-272
-272
-273
-274
-273
-273
-273
-273
-273
-273
-273
-273
-273
-273
-273
-273
-273
-273
-272
-273
-272
-272
-272
-273
-273
-272
-272
-272
-272
-271
-271
-271
-271
-271
-271
-271
-271
-270
-271
-271
-271
-272
-272
-272
-273
-273
-274
-274
-274
-275
-276
-278
-279
-281
-282
-283
-286
-287
-289
-291
-293
-295
-297
-299
-300
-302
-301
-302
-301
-300
-299
-297
-294
-291
-287
-281
-276
-269
-262
-255
-245
-235
-223
-212
-199
-184
-168
-152
-136
-118
-101
-84
-67
-50
-33
-17
-3
12
24
36
45
52
59
63
66
67
66
63
60
53
46
36
25
14
2
-11
-25
-39
-53
-68
-82
-96
-111
-125
-138
-151
-162
-174
-184
-193
-203
-211
-219
-225
-231
-236
-241
-245
-249
-252
-254
-256
-258
-260
-261
-261
-262
-262
-263
-263
-264
-263
-264
-264
-265
-265
-265
-266
-266
-266
-267
-267
-268
-267
-267
-267
-268
-268
-268
-267
-267
-268
-268
-267
-268
-268
-268
-268
-268
-268
-268
-268
-269
-268
-268
-269
-269
-269
-269
-269
-269
-270
-270
-270
-270
-270
-270
-272
-271
-271
-272
-272
-272
-273
-272
-272
-272
-273
-272
-272
-272
-272
-272
-272
-272
-272
-272
-272
-271
-271
-271
-271
-271
-270
-270
-270
-270
-269
-269
-268
-268
-268
-267
-267
-267
-267
-266
-266
-266
-265
-265
-265
-265
-265
-265
-265
-265
-264
-264
-263
-264
-264
-264
-263
-263
-262
-262
-262
-262
-263
-263
-262
-262
-263
-262
-262
-262
-262
-261
-262
-261
-261
-261
-261
-261
-261
-261
-261
-261
-262
-262
-261
-261
-261
-261
-261
-261
-261
-261
-260
-260
-259
-259
-258
-258
-258
-257
-257
-257
-256
-256
-256
-256
-256
-255
-255
-255
-255
-254
-254
-253
-253
-253
-253
-253
-253
-253
-252
-252
-252
-252
-252
-252
-251
-250
-250
-250
-249
-248
-247
-247
-246
-246
-246
-245
-245
-244
-243
-242
-242
-241
-241
-240
-240
-238
-238
-236
-236
-235
-234
-233
-232
-231
-230
-230
-229
-228
-228
-227
-227
-226
-224
-223
-223
-222
-221
-221
-220
-219
-218
-217
-217
-216
-215
-214
-213
-213
-212
-212
-210
-209
-209
-208
-208
-206
-206
-205
-204
-203
-202
-201
-200
-200
-199
-198
-197
-197
-196
-196
-195
-195
-195
-195
-194
-194
-193
-193
-193
-193
-192
-192
-192
-192
-192
-192
-193
-193
-194
-194
-194
-195
-195
-196
-197
-196
-197
-197
-198
-198
-199
-199
-200
-200
-200
-201
-202
-204
-205
-207
-207
-208
-211
-212
-213
-215
-216
-217
-219
-220
-222
-223
-226
-227
-228
-230
-231
-232
-234
-235
-236
-237
-239
-240
-241
-242
-243
-244
-245
-246
-247
-248
-249
-250
-251
-251
-253
-254
-255
-255
-256
-257
-258
-259
-259
-260
-260
-260
-260
-260
-261
-261
-262
-262
-262
-262
-263
-263
-263
-263
-264
-263
-265
-264
-265
-265
-265
-265
-265
-264
-265
-265
-265
-264
-264
-263
-264
-264
-264
-264
-264
-264
-263
-263
-264
-262
-262
-262
-262
-262
-261
-260
-260
-260
-260
-260
-260
-260
-259
-259
-260
-260
-260
-261
-260
-261
-262
-262
-263
-263
-263
-264
-265
-266
-266
-267
-268
-268
-269
-270
-270
-270
-271
-271
-271
-271
-271
-271
-270
-270
-269
-268
-267
-267
-266
-266
-265
-265
-265
-264
-264
-264
-264
-264
-263
-263
-262
-263
-263
-263
-262
-262
-262
-263
-262
-262
-262
-262
-262
-262
-262
-262
-262
-262
-261
-262
-262
-262
-262
-262
-262
-262
-262
-262
-261
-262
-262
-263
-263
-264
-263
-264
-264
-264
-264
-264
-264
-264
-264
-264
-264
-263
-263
-263
-263
-263
-263
-262
-262
-262
-262
-262
-262
-262
-262
-262
-262
-262
-262
-262
-262
-262
-262
-262
-263
-263
-264
-264
-264
-264
-264
-264
-264
-264
-264
-264
-264
-264
-263
-263
-263
-263
-263
-263
-262
-262
-262
-262
-262
-262
-263
-263
-263
-263
-263
-263
-263
-262
-263
-263
-262
-263
-263
-263
-264
-264
-264
-265
-265
-265
-266
-266
-266
-267
-267
-268
-269
-269
-269
-270
-270
-271
-272
-272
-273
-273
-274
-274
-275
-275
-276
-276
-275
-275
-274
-274
-273
-273
-271
-271
-270
-268
-267
-266
-265
-264
-263
-262
-261
-260
-259
-260
-260
-259
-259
-258
-258
-258
-258
-258
-258
-257
-258
-259
-258
-259
-259
-259
-260
-260
-260
-260
-261
-261
-261
-261
-260
-260
-260
-260
-259
-259
-259
-259
-258
-257
-257
-256
-256
-256
-257
-256
-256
-256
-256
-256
-256
-256
-256
-257
-256
-257
-257
-258
-258
-259
-259
-261
-261
-262
-262
-264
-264
-264
-264
-264
-265
-265
-265
-266
-265
-265
-265
-265
-265
-265
-265
-264
-264
-264
-264
-264
-264
-264
-263
-264
-263
-264
-264
-264
-264
-263
-263
-264
-263
-264
-264
-264
-265
-265
-265
-265
-265
-265
-265
-264
-264
-263
-263
-263
-263
-263
-263
-264
-264
-264
-264
-265
-265
-265
-265
-266
-266
-266
-266
-266
-266
-267
-267
-266
-265
-265
-264
-263
-263
-262
-261
-261
-260
-259
-258
-258
-257
-257
-257
-257
-257
-257
-258
-258
-258
-258
-259
-259
-260
-259
-261
-261
-261
-261
-262
-262
-263
-263
-263
-263
-263
-263
-263
-263
-263
-263
-264
-264
-264
-264
-264
-264
-264
-265
-265
-266
-266
-267
-267
-266
-267
-266
-265
-266
-265
-264
-263
-263
-262
-261
-261
-260
-259
-259
-258
-257
-256
-256
-255
-255
-255
-254
-254
-255
-254
-255
-255
-256
-255
-255
-256
-256
-257
-258
-258
-259
-259
-260
-260
-260
-260
-261
-261
-260
-261
-261
-262
-261
-261
-262
-261
-262
-262
-262
-263
-263
-263
-263
-264
-263
-263
-263
-262
-262
-262
-261
-261
-261
-261
-261
-261
-262
-261
-261
-262
-261
-263
-262
-263
-263
-263
-264
-264
-264
-264
-263
-263
-263
-262
-262
-262
-262
-262
-261
-261
-261
-261
-261
-261
-260
-259
-260
-260
-260
-259
-259
-259
-260
-260
-260
-260
-261
-261
-261
-262
-262
-261
-263
-263
-263
-263
-264
-264
-265
-265
-266
-266
-266
-267
-267
-268
-269
-270
-272
-272
-273
-274
-275
-276
-276
-277
-277
-278
-278
-279
-279
-279
-279
-278
-278
-278
-277
-277
-276
-276
-275
-274
-273
-273
-272
-271
-270
-269
-268
-268
-267
-267
-267
-267
-268
-268
-270
-270
-272
-273
-276
-277
-279
-281
-284
-286
-287
-289
-291
-293
-294
-295
-295
-295
-296
-295
-293
-291
-289
-285
-282
-277
-270
-264
-256
-248
-239
-228
-216
-205
-191
-177
-161
-145
-128
-111
-94
-77
-58
-42
-25
-10
5
18
31
41
50
58
64
68
70
71
69
65
60
53
45
34
22
10
-2
-14
-29
-43
-58
-72
-87
-100
-114
-127
-140
-151
-162
-173
-183
-193
-201
-209
-217
-223
-228
-234
-238
-242
-246
-249
-251
-253
-256
-257
-259
-261
-261
-262
-264
-264
-264
-265
-266
-266
-267
-266
-267
-267
-267
-267
-267
-267
-266
-267
-266
-266
-266
-266
-266
-266
-266
-266
-267
-266
-267
-267
-268
-268
-268
-268
-267
-268
-268
-268
-268
-269
-269
-269
-269
-270
-270
-271
-270
-271
-271
-271
-271
-271
-270
-270
-270
-269
-268
-268
-267
-266
-266
-265
-264
-263
-263
-263
-262
-262
-262
-262
-262
-262
-262
-263
-262
-262
-263
-263
-263
-263
-264
-264
-265
-265
-266
-266
-266
-265
-266
-266
-266
-266
-266
-266
-266
-266
-266
-266
-266
-266
-266
-266
-266
-267
-267
-268
-268
-268
-268
-268
-268
-268
-268
-268
-268
-267
-266
-265
-264
-264
-263
-262
-261
-259
-259
-259
-258
-258
-259
-259
-258
-258
-258
-258
-258
-258
-258
-257
-257
-258
-258
-257
-258
-258
-259
-258
-258
-258
-258
-258
-258
-258
-258
-258
-258
-259
-258
-258
-258
-258
-258
-257
-257
-257
-256
-256
-255
-255
-254
-254
-253
-252
-251
-250
-249
-248
-246
-245
-244
-243
-242
-241
-240
-239
-239
-238
-239
-237
-238
-237
-237
-237
-236
-236
-236
-235
-235
-235
-234
-234
-233
-233
-233
-232
-232
-231
-231
-230
-230
-231
-230
-230
-229
-230
-229
-230
-229
-229
-229
-229
-229
-229
-229
-229
-229
-227
-227
-226
-225
-224
-222
-220
-218
-216
-214
-212
-210
-208
-205
-203
-201
-199
-197
-195
-193
-192
-191
-191
-190
-190
-189
-189
-189
-189
-188
-188
-189
-189
-189
-189
-189
-190
-190
-191
-192
-192
-192
-194
-195
-196
-197
-198
-200
-201
-201
-203
-204
-205
-206
-207
-208
-210
-210
-211
-211
-213
-213
-214
-214
-214
-215
-216
-217
-217
-217
-218
-218
-219
-219
-220
-221
-222
-223
-225
-226
-227
-229
-230
-231
-232
-234
-234
-235
-236
-237
-237
-237
-237
-239
-240
-239
-241
-240
-241
-242
-243
-242
-244
-244
-245
-246
-247
-248
-248
-249
-249
-250
-250
-251
-253
-253
-254
-254
-254
-256
-256
-257
-258
-259
-259
-260
-260
-261
-262
-262
-262
-262
-262
-263
-263
-263
-263
-264
-264
-265
-265
-266
-266
-266
-268
-268
-268
-269
-269
-270
-270
-270
-270
-270
-270
-270
-268
-268
-267
-267
-266
-265
-264
-264
-263
-262
-262
-261
-261
-260
-260
-260
-259
-259
-259
-259
-260
-260
-260
-261
-261
-263
-263
-265
-265
-266
-266
-267
-267
-267
-267
-267
-267
-267
-267
-267
-265
-265
-264
-263
-262
-262
-261
-261
-260
-259
-258
-257
-257
-256
-255
-255
-255
-254
-254
-254
-255
-255
-256
-257
-258
-259
-261
-262
-263
-264
-266
-267
-269
-270
-270
-271
-271
-272
-272
-272
-271
-271
-271
-270
-270
-269
-268
-268
-267
-266
-265
-265
-264
-264
-264
-264
-264
-264
-264
-264
-265
-265
-266
-267
-267
-267
-268
-268
-268
-267
-267
-266
-265
-265
-264
-263
-262
-261
-260
-259
-258
-257
-257
-257
-256
-256
-257
-257
-257
-257
-258
-258
-258
-259
-260
-260
-260
-260
-261
-261
-261
-261
-262
-262
-262
-262
-263
-263
-263
-263
-264
-265
-265
-265
-265
-266
-266
-266
-265
-265
-266
-266
-266
-266
-267
-267
-267
-268
-267
-268
-268
-269
-268
-268
-268
-268
-268
-269
-269
-269
-269
-269
-270
-269
-269
-268
-267
-266
-266
-265
-264
-263
-262
-262
-261
-261
-260
-260
-259
-260
-259
-259
-259
-258
-259
-259
-259
-260
-260
-261
-261
-261
-261
-262
-261
-261
-261
-261
-260
-260
-260
-259
-260
-259
-259
-259
-260
-259
-260
-259
-260
-260
-260
-260
-261
-260
-260
-260
-260
-260
-261
-261
-260
-260
-260
-260
-260
-260
-259
-259
-259
-259
-259
-259
-259
-259
-258
-258
-258
-258
-257
-257
-257
-259
-259
-259
-261
-261
-262
-263
-263
-264
-265
-265
-266
-267
-267
-268
-267
-267
-267
-266
-266
-267
-267
-267
-267
-266
-266
-265
-264
-263
-263
-262
-262
-260
-260
-260
-259
-259
-258
-258
-257
-257
-256
-256
-255
-255
-255
-255
-254
-253
-253
-253
-253
-252
-252
-252
-251
-251
-251
-250
-250
-250
-250
-250
-250
-249
-249
-249
-249
-249
-249
-248
-248
-248
-247
-247
-247
-247
-247
-248
-248
-248
-248
-249
-250
-250
-251
-251
-252
-253
-253
-253
-254
-254
-254
-254
-254
-254
-254
-254
-254
-254
-255
-255
-254
-255
-254
-254
-254
-254
-254
-254
-254
-254
-253
-254
-254
-254
-253
-254
-254
-255
-255
-255
-254
-255
-256
-255
-255
-256
-256
-255
-254
-254
-254
-253
-252
-252
-251
-251
-251
-250
-250
-250
-250
-250
-249
-249
-249
-249
-249
-249
-249
-249
-249
-249
-249
-249
-249
-250
-249
-249
-250
-249
-249
-249
-248
-248
-248
-248
-247
-245
-245
-244
-243
-243
-242
-242
-240
-240
-240
-239
-239
-239
-239
-239
-240
-240
-239
-239
-239
-239
-239
-239
-240
-239
-239
-240
-241
-241
-241
-242
-242
-242
-243
-244
-244
-243
-244
-244
-244
-244
-244
-245
-245
-244
-244
-245
-244
-245
-245
-246
-246
-246
-247
-247
-248
-248
-248
-249
-249
-249
-250
-249
-250
-249
-249
-249
-249
-248
-248
-249
-248
-248
-248
-248
-248
-248
-248
-248
-248
-248
-248
-248
-248
-249
-249
-249
-249
-249
-249
-249
-250
-250
-251
-251
-251
-251
-251
-251
-251
-251
-251
-251
-251
-250
-250
-250
-250
-250
-250
-250
-250
-250
-251
-250
-250
-250
-250
-251
-251
-251
-251
-250
-250
-251
-250
-251
-251
-251
-252
-252
-253
-255
-256
-259
-260
-262
-264
-265
-268
-270
-272
-275
-276
-277
-278
-279
-280
-280
-279
-278
-278
-275
-272
-269
-264
-259
-252
-245
-235
-225
-215
-203
-190
-176
-160
-144
-127
-110
-92
-74
-56
-38
-21
-3
13
28
43
56
67
77
86
93
97
101
101
100
97
92
86
78
68
56
45
31
18
4
-10
-25
-39
-54
-68
-82
-97
-110
-123
-134
-146
-156
-166
-176
-184
-191
-198
-204
-209
-214
-217
-220
-223
-225
-227
-228
-229
-230
-231
-231
-231
-232
-232
-233
-233
-234
-234
-235
-236
-236
-237
-237
-238
-238
-239
-239
-240
-240
-241
-241
-241
-242
-243
-242
-243
-244
-243
-244
-244
-244
-243
-244
-244
-244
-244
-244
-244
-245
-245
-245
-245
-244
-245
-245
-245
-245
-245
-245
-245
-246
-246
-246
-246
-246
-246
-246
-245
-244
-244
-244
-244
-243
-243
-243
-243
-244
-243
-245
-245
-245
-245
-245
-245
-246
-246
-246
-246
-246
-246
-247
-246
-246
-246
-247
-247
-246
-246
-247
-245
-245
-245
-244
-244
-244
-244
-243
-242
-242
-240
-240
-240
-239
-239
-239
-238
-238
-238
-239
-238
-238
-238
-238
-238
-238
-238
-238
-238
-238
-238
-238
-238
-238
-237
-237
-238
-238
-238
-238
-238
-238
-238
-238
-238
-238
-238
-238
-238
-237
-236
-237
-237
-236
-237
-237
-236
-237
-237
-237
-237
-236
-237
-237
-237
-236
-236
-235
-236
-235
-234
-234
-233
-233
-232
-232
-232
-232
-231
-231
-230
-229
-229
-228
-228
-228
-227
-227
-226
-225
-225
-225
-224
-223
-224
-223
-223
-223
-223
-223
-222
-221
-222
-221
-220
-219
-218
-217
-216
-216
-215
-215
-214
-212
-211
-211
-211
-209
-209
-209
-207
-207
-206
-206
-205
-204
-203
-202
-201
-201
-199
-199
-197
-197
-195
-194
-193
-192
-192
-191
-190
-189
-188
-187
-187
-186
-185
-184
-183
-182
-181
-180
-180
-179
-178
-178
-176
-176
-175
-174
-174
-173
-173
-171
-171
-170
-170
-168
-169
-168
-167
-167
-166
-166
-166
-166
-167
-167
-168
-167
-168
-168
-169
-170
-171
-171
-172
-173
-173
-174
-175
-177
-178
-178
-179
-181
-182
-183
-184
-185
-187
-188
-189
-190
-191
-192
-193
-195
-195
-196
-198
-199
-200
-201
-202
-203
-205
-207
-208
-210
-211
-212
-214
-215
-216
-218
-219
-221
-222
-223
-225
-226
-226
-228
-228
-229
-230
-231
-232
-233
-233
-234
-234
-235
-235
-235
-235
-236
-236
-236
-236
-236
-236
-236
-237
-237
-237
-238
-238
-238
-239
-239
-239
-239
-240
-241
-241
-241
-241
-241
-242
-242
-242
-242
-242
-242
-243
-243
-243
-244
-244
-244
-244
-245
-245
-245
-245
-245
-245
-244
-244
-244
-245
-245
-245
-246
-246
-246
-246
-246
-247
-247
-247
-247
-247
-247
-247
-246
-246
-246
-246
-245
-245
-244
-244
-244
-245
-244
-244
-245
-245
-245
-244
-245
-245
-245
-246
-246
-245
-246
-246
-246
-247
-246
-247
-247
-248
-248
-249
-249
-249
-249
-249
-249
-249
-249
-249
-249
-248
-248
-247
-247
-246
-246
-246
-246
-246
-246
-245
-246
-246
-246
-245
-245
-245
-245
-245
-245
-245
-245
-244
-244
-244
-245
-245
-245
-244
-245
-245
-245
-245
-245
-245
-245
-245
-245
-245
-244
-244
-244
-244
-244
-244
-244
-244
-244
-245
-244
-244
-244
-244
-244
-244
-243
-243
-243
-243
-243
-243
-242
-242
-242
-242
-242
-242
-243
-243
-243
-243
-244
-244
-244
-244
-246
-246
-246
-246
-247
-247
-246
-246
-246
-247
-247
-247
-247
-248
-247
-247
-248
-248
-248
-247
-247
-247
-247
-247
-246
-246
-247
-246
-246
-246
-247
-247
-247
-247
-247
-247
-248
-248
-248
-249
-248
-249
-249
-249
-249
-250
-250
-249
-250
-250
-249
-249
-250
-250
-250
-251
-250
-250
-250
-251
-250
-250
-250
-250
-250
-249
-249
-249
-248
-248
-248
-248
-247
-247
-247
-247
-247
-248
-247
-248
-248
-248
-249
-249
-249
-249
-249
-248
-249
-249
-249
-249
-249
-249
-250
-250
-250
-250
-250
-250
-251
-251
-251
-250
-250
-250
-250
-249
-249
-249
-249
-249
-249
-249
-249
-249
-249
-249
-249
-249
-249
-249
-249
-249
-249
-249
-250
-249
-249
-249
-249
-249
-249
-249
-250
-250
-250
-250
-250
-250
-251
-251
-251
-251
-251
-250
-250
-250
-250
-250
-250
-250
-250
-251
-251
-251
-251
-251
-251
-252
-251
-251
-251
-251
-251
-251
-251
-251
-251
-251
-251
-251
-251
-251
-251
-252
-251
-251
-251
-252
-252
-252
-252
-252
-252
-251
-251
-251
-251
-251
-251
-251
-251
-250
-250
-250
-251
-251
-250
-250
-250
-250
-250
-250
-250
-250
-250
-249
-249
-250
-250
-249
-249
-249
-249
-250
-251
-251
-251
-251
-251
-251
-252
-252
-252
-251
-252
-252
-252
-251
-251
-251
-251
-250
-250
-251
-251
-250
-250
-250
-251
-251
-251
-251
-250
-250
-250
-250
-250
-250
-250
-250
-250
-250
-251
-251
-251
-251
-251
-251
-251
-251
-251
-251
-251
-250
-250
-249
-249
-249
-248
-248
-248
-247
-247
-247
-247
-247
-246
-246
-247
-246
-246
-245
-245
-245
-244
-244
-244
-243
-244
-243
-243
-242
-243
-243
-243
-241
-242
-241
-241
-241
-240
-241
-241
-240
-239
-240
-240
-240
-239
-240
-240
-240
-239
-240
-241
-241
-241
-241
-240
-241
-241
-241
-241
-241
-241
-241
-242
-241
-241
-241
-241
-241
-242
-242
-242
-242
-242
-242
-243
-243
-243
-243
-244
-243
-243
-244
-244
-244
-244
-244
-245
-245
-245
-246
-247
-247
-247
-248
-248
-249
-249
-250
-251
-251
-251
-252
-252
-252
-252
-252
-253
-253
-253
-254
-254
-253
-253
-253
-254
-253
-253
-252
-252
-252
-252
-250
-250
-250
-250
-250
-249
-249
-249
-250
-249
-250
-250
-250
-251
-251
-251
-250
-250
-251
-251
-251
-251
-251
-251
-252
-252
-252
-252
-252
-252
-251
-251
-251
-252
-252
-252
-252
-251
-252
-252
-253
-254
-255
-256
-258
-259
-261
-263
-265
-267
-270
-272
-274
-276
-278
-279
-281
-281
-282
-282
-282
-281
-279
-276
-273
-269
-265
-259
-253
-246
-237
-227
-217
-206
-194
-180
-165
-150
-133
-117
-99
-81
-63
-46
-29
-12
5
20
34
48
59
68
77
84
89
92
93
92
89
84
78
71
61
50
37
24
11
-3
-18
-33
-47
-62
-76
-91
-105
-119
-132
-143
-154
-166
-175
-185
-193
-200
-206
-211
-217
-221
-225
-228
-231
-234
-236
-238
-239
-241
-241
-242
-242
-243
-243
-244
-244
-244
-245
-246
-246
-246
-248
-248
-248
-250
-250
-251
-251
-251
-251
-251
-252
-252
-252
-253
-253
-253
-253
-253
-253
-253
-254
-254
-253
-254
-254
-254
-254
-254
-254
-254
-254
-253
-253
-253
-253
-253
-252
-253
-253
-253
-253
-253
-254
-254
-254
-254
-254
-254
-254
-255
-255
-255
-255
-255
-255
-255
-255
-255
-256
-256
-256
-255
-255
-255
-255
-255
-254
-254
-253
-253
-253
-252
-252
-252
-251
-251
-251
-251
-251
-251
-250
-251
-251
-251
-251
-251
-251
-250
-250
-250
-250
-249
-249
-249
-249
-249
-248
-248
-248
-248
-248
-248
-248
-248
-248
-248
-248
-248
-248
-248
-248
-247
-247
-247
-247
-247
-246
-246
-246
-246
-246
-246
-245
-245
-245
-244
-244
-244
-244
-244
-243
-243
-243
-243
-242
-242
-242
-242
-242
-242
-242
-242
-242
-242
-241
-242
-241
-242
-241
-241
-241
-240
-240
-239
-239
-239
-239
-239
-238
-238
-237
-237
-237
-236
-236
-236
-235
-235
-235
-235
-233
-233
-233
-232
-231
-230
-231
-230
-230
-229
-228
-227
-227
-225
-226
-224
-224
-223
-223
-222
-221
-220
-219
-218
-218
-217
-216
-215
-215
-215
-214
-213
-212
-212
-210
-210
-208
-207
-206
-205
-205
-204
-203
-201
-201
-199
-199
-197
-196
-196
-195
-194
-193
-193
-192
-191
-190
-190
-189
-189
-188
-187
-186
-186
-186
-185
-184
-184
-184
-182
-182
-182
-182
-182
-181
-181
-180
-179
-179
-179
-178
-177
-177
-177
-177
-175
-175
-176
-176
-176
-176
-176
-177
-177
-177
-178
-179
-179
-180
-181
-181
-182
-183
-185
-186
-186
-187
-189
-190
-191
-193
-194
-195
-197
-198
-200
-201
-202
-203
-205
-207
-208
-209
-210
-212
-213
-215
-217
-218
-220
-222
-223
-224
-225
-226
-228
-228
-229
-231
-230
-232
-232
-232
-233
-233
-234
-234
-235
-236
-236
-237
-238
-239
-239
-240
-241
-241
-242
-242
-242
-244
-244
-244
-245
-246
-246
-246
-246
-246
-248
-248
-248
-249
-249
-249
-250
-250
-250
-250
-250
-250
-250
-250
-251
-251
-251
-251
-251
-251
-251
-252
-252
-252
-253
-253
-253
-253
-253
-253
-253
-253
-253
-253
-253
-253
-253
-252
-252
-253
-252
-252
-253
-253
-253
-253
-253
-253
-253
-252
-252
-252
-252
-252
-252
-252
-252
-252
-252
-252
-253
-253
-253
-252
-252
-253
-253
-253
-253
-253
-253
-253
-253
-252
-252
-252
-253
-253
-253
-253
-253
-254
-253
-253
-253
-253
-254
-254
-253
-253
-253
-253
-253
-252
-252
-252
-252
-252
-251
-252
-252
-252
-253
-252
-252
-252
-253
-253
-253
-253
-253
-253
-253
-252
-252
-253
-252
-252
-253
-253
-253
-253
-253
-254
-254
-254
-254
-254
-254
-254
-254
-254
-253
-254
-254
-254
-254
-253
-254
-254
-254
-254
-253
-253
-254
-254
-254
-253
-253
-253
-252
-252
-252
-251
-251
-251
-251
-251
-251
-251
-251
-251
-251
-252
-252
-251
-252
-252
-252
-253
-253
-253
-253
-252
-254
-254
-253
-253
-253
-254
-254
-254
-254
-254
-254
-254
-254
-255
-255
-255
-254
-253
-253
-254
-254
-254
-254
-254
-254
-254
-254
-254
-254
-255
-255
-255
-255
-255
-254
-254
-254
-255
-255
-254
-254
-254
-255
-254
-254
-254
-255
-255
-255
-254
-254
-254
-254
-255
-255
-254
-254
-254
-254
-253
-253
-253
-253
-253
-253
-253
-254
-254
-254
-254
-254
-254
-255
-255
-255
-255
-255
-255
-254
-255
-255
-255
-255
-255
-255
-256
-256
-256
-256
-256
-256
-257
-257
-257
-257
-257
-257
-257
-256
-256
-256
-256
-257
-257
-257
-256
-257
-257
-257
-257
-257
-257
-258
-258
-258
-258
-258
-258
-257
-257
-257
-256
-256
-256
-256
-256
-256
-255
-255
-255
-255
-255
-254
-255
-254
-254
-254
-254
-255
-254
-255
-255
-255
-256
-255
-256
-256
-256
-256
-257
-257
-257
-257
-257
-257
-257
-257
-257
-257
-256
-257
-256
-256
-256
-255
-256
-256
-256
-256
-255
-255
-255
-256
-255
-255
-255
-255
-254
-255
-255
-255
-254
-254
-255
-254
-254
-255
-256
-256
-256
-256
-256
-257
-257
-257
-257
-257
-257
-256
-256
-256
-257
-256
-256
-256
-256
-256
-255
-256
-256
-256
-256
-256
-256
-256
-256
-256
-256
-255
-256
-256
-256
-256
-255
-255
-256
-256
-256
-257
-257
-256
-256
-257
-257
-257
-257
-257
-257
-256
-256
-256
-256
-256
-254
-255
-255
-255
-254
-254
-255
-254
-254
-253
-253
-253
-252
-252
-252
-251
-250
-250
-250
-249
-248
-248
-248
-248
-247
-247
-247
-247
-247
-247
-246
-246
-246
-246
-246
-245
-246
-245
-246
-245
-246
-246
-246
-246
-246
-246
-247
-246
-246
-245
-246
-245
-245
-244
-244
-244
-244
-244
-243
-242
-243
-242
-242
-243
-243
-242
-242
-242
-242
-243
-243
-243
-243
-244
-244
-244
-244
-244
-245
-245
-245
-245
-246
-246
-246
-248
-248
-249
-249
-249
-249
-250
-250
-250
-251
-251
-251
-251
-251
-251
-251
-251
-251
-252
-252
-252
-252
-253
-253
-252
-253
-253
-253
-254
-254
-254
-254
-254
-254
-254
-254
-254
-254
-255
-255
-255
-256
-256
-256
-256
-256
-256
-256
-256
-256
-256
-255
-255
-255
-255
-255
-255
-255
-255
-255
-256
-256
-256
-256
-256
-256
-256
-256
-256
-256
-255
-256
-256
-256
-256
-255
-255
-255
-255
-256
-256
-257
-257
-257
-257
-259
-259
-260
-261
-262
-263
-264
-266
-268
-270
-272
-273
-275
-276
-278
-280
-281
-282
-282
-282
-282
-280
-278
-276
-273
-269
-264
-259
-254
-247
-238
-229
-219
-208
-197
-184
-171
-156
-140
-124
-108
-90
-73
-56
-39
-23
-7
9
24
36
49
59
67
74
79
84
85
85
83
79
74
67
58
49
38
26
13
0
-13
-27
-40
-55
-70
-84
-98
-112
-124
-137
-148
-160
-169
-179
-187
-195
-201
-207
-213
-218
-222
-226
-229
-231
-233
-235
-236
-238
-239
-239
-240
-240
-241
-241
-241
-242
-242
-242
-242
-242
-243
-243
-243
-244
-244
-245
-245
-246
-247
-247
-247
-248
-248
-249
-249
-249
-249
-249
-248
-249
-249
-249
-249
-249
-248
-249
-248
-249
-248
-248
-248
-248
-248
-247
-246
-246
-246
-246
-245
-245
-245
-246
-245
-245
-245
-245
-245
-246
-246
-246
-246
-246
-247
-247
-246
-246
-246
-246
-247
-246
-246
-246
-246
-246
-246
-246
-246
-247
-246
-246
-246
-246
-246
-246
-246
-246
-245
-246
-245
-245
-245
-245
-244
-244
-244
-244
-244
-243
-244
-244
-242
-243
-243
-242
-242
-242
-241
-241
-241
-241
-241
-240
-240
-240
-240
-240
-240
-240
-240
-240
-240
-240
-239
-240
-239
-239
-238
-238
-237
-237
-237
-236
-235
-235
-235
-234
-234
-234
-234
-234
-233
-233
-232
-232
-233
-232
-232
-231
-232
-231
-231
-231
-230
-230
-231
-231
-231
-231
-230
-230
-231
-230
-230
-230
-229
-229
-228
-228
-227
-227
-226
-227
-226
-225
-225
-224
-224
-224
-224
-223
-223
-222
-221
-221
-220
-220
-219
-218
-218
-218
-216
-217
-216
-215
-215
-214
-214
-213
-213
-212
-211
-211
-210
-210
-209
-207
-206
-205
-205
-203
-202
-201
-201
-199
-199
-198
-197
-196
-195
-194
-193
-192
-192
-190
-189
-188
-187
-186
-186
-185
-184
-183
-182
-181
-180
-179
-178
-178
-178
-176
-176
-174
-174
-173
-173
-172
-172
-171
-170
-170
-169
-169
-168
-167
-167
-167
-167
-167
-167
-167
-166
-167
-166
-166
-166
-166
-166
-166
-166
-166
-167
-167
-167
-168
-168
-169
-170
-171
-171
-172
-173
-174
-175
-176
-177
-178
-179
-180
-181
-182
-182
-183
-184
-185
-187
-188
-189
-190
-191
-192
-193
-195
-196
-197
-198
-198
-199
-201
-201
-202
-204
-204
-206
-207
-208
-209
-210
-211
-213
-214
-214
-215
-216
-217
-219
-219
-220
-221
-222
-223
-224
-224
-226
-226
-227
-227
-228
-229
-230
-230
-230
-232
-232
-232
-233
-233
-233
-233
-233
-234
-234
-234
-234
-235
-235
-235
-236
-236
-237
-237
-237
-238
-238
-238
-238
-238
-239
-239
-239
-239
-239
-240
-240
-240
-240
-240
-240
-240
-241
-241
-240
-241
-241
-241
-241
-241
-241
-240
-240
-240
-240
-239
-239
-239
-239
-239
-239
-239
-240
-240
-240
-240
-240
-239
-239
-239
-239
-239
-239
-239
-239
-238
-239
-239
-239
-239
-239
-239
-239
-239
-239
-239
-240
-239
-239
-239
-239
-238
-238
-238
-238
-238
-237
-238
-238
-237
-237
-238
-238
-237
-237
-238
-238
-238
-238
-238
-238
-239
-238
-238
-238
-238
-238
-238
-238
-238
-238
-238
-238
-238
-238
-238
-237
-237
-237
-237
-237
-236
-236
-236
-236
-236
-236
-236
-237
-237
-237
-237
-238
-238
-238
-237
-237
-238
-238
-238
-238
-237
-238
-237
-237
-237
-237
-236
-236
-236
-236
-236
-236
-236
-237
-237
-238
-238
-238
-238
-239
-239
-238
-239
-239
-239
-240
-240
-240
-241
-240
-240
-240
-240
-240
-240
-239
-239
-238
-238
-239
-238
-238
-237
-237
-237
-236
-236
-236
-236
-237
-237
-237
-237
-237
-238
-237
-237
-238
-239
-239
-238
-238
-238
-238
-239
-239
-239
-240
-240
-240
-241
-241
-241
-242
-242
-243
-243
-243
-243
-243
-242
-243
-243
-242
-242
-242
-242
-242
-241
-241
-242
-241
-241
-241
-241
-242
-242
-242
-242
-241
-241
-241
-241
-241
-241
-241
-241
-241
-241
-241
-241
-240
-240
-240
-240
-241
-239
-239
-239
-239
-240
-239
-239
-239
-240
-240
-240
-240
-240
-240
-241
-241
-241
-242
-243
-243
-243
-243
-243
-244
-243
-243
-243
-243
-243
-243
-242
-242
-242
-242
-242
-243
-242
-242
-242
-242
-242
-243
-242
-242
-243
-243
-243
-242
-242
-243
-242
-242
-243
-243
-243
-243
-243
-243
-243
-242
-242
-242
-242
-242
-242
-241
-241
-241
-241
-241
-241
-241
-241
-241
-241
-242
-242
-242
-242
-242
-242
-243
-243
-243
-243
-244
-243
-244
-243
-243
-243
-243
-244
-244
-244
-244
-244
-244
-244
-243
-243
-243
-243
-242
-243
-243
-242
-242
-241
-241
-241
-241
-241
-241
-242
-242
-242
-242
-242
-242
-243
-242
-242
-243
-243
-243
-243
-244
-243
-243
-243
-243
-243
-243
-243
-244
-244
-244
-243
-243
-243
-243
-242
-242
-242
-242
-242
-241
-242
-242
-242
-242
-241
-241
-241
-241
-241
-241
-240
-240
-239
-239
-239
-239
-238
-238
-238
-238
-238
-236
