# Simple Text Format
# Sampling Rate (Hz):= 1200.00
# Resolution:= 12
# Labels:= ECG	aVL
# Age:=	29
# Gender:=	Masculino
7
6
6
6
6
6
6
7
6
6
7
6
6
6
6
5
5
4
4
4
4
3
4
4
4
4
5
5
5
6
7
7
7
8
8
8
9
10
10
10
10
10
10
11
10
10
10
10
10
10
9
9
9
10
10
10
10
10
10
10
10
11
12
12
13
13
14
14
15
15
16
17
17
17
16
16
16
17
17
17
16
16
16
16
16
16
16
16
16
16
17
17
17
18
18
18
18
18
18
19
19
19
19
20
20
20
20
21
21
21
21
22
22
22
23
23
23
23
23
23
23
24
25
25
26
26
27
28
28
29
29
30
30
30
31
31
32
33
33
33
34
34
35
35
36
37
38
38
39
39
40
41
41
41
42
43
44
43
44
45
44
45
46
46
47
48
48
49
50
51
52
53
55
56
56
58
59
61
61
62
64
65
66
67
68
68
69
70
71
71
71
73
73
72
73
73
73
73
74
74
74
74
75
75
75
75
76
76
76
76
77
77
77
77
77
76
76
77
77
77
76
76
75
75
75
74
73
73
72
72
71
69
68
67
66
65
63
62
60
58
56
55
54
53
50
49
48
47
46
44
43
42
41
40
39
39
37
37
36
35
35
33
33
32
32
31
30
29
29
27
27
25
24
24
22
21
21
20
19
19
18
18
17
17
17
16
16
16
16
16
16
16
17
16
16
16
16
15
15
14
14
14
14
14
14
13
12
13
12
12
12
11
10
10
9
9
8
7
7
6
6
5
5
6
6
5
6
6
7
7
8
8
9
9
9
9
9
9
9
11
10
10
10
10
10
10
10
9
9
9
9
9
9
9
9
9
9
9
9
9
9
9
9
9
9
9
9
9
9
9
9
10
10
10
10
9
9
10
10
10
10
10
10
10
10
11
11
11
11
11
11
12
12
12
12
12
12
13
13
14
14
14
14
14
15
15
15
16
16
16
16
16
16
15
15
15
14
14
13
13
11
10
10
9
8
7
7
7
6
6
6
6
5
5
5
5
5
5
5
6
7
7
8
8
9
10
11
11
11
11
12
12
13
13
13
13
13
12
12
12
12
11
11
10
10
10
10
9
9
9
8
8
8
8
7
7
7
6
6
6
6
6
6
6
6
6
7
7
6
7
7
7
8
8
8
8
8
9
10
10
11
11
12
12
13
13
14
14
14
15
15
15
15
15
14
14
13
13
13
13
12
12
12
12
12
11
12
12
12
12
12
12
12
12
12
12
11
11
11
11
10
9
9
8
7
6
6
5
5
4
4
4
3
3
3
3
3
4
4
5
5
5
6
5
6
6
7
8
8
8
8
8
8
7
7
6
6
6
6
6
5
5
5
5
5
5
6
6
7
7
8
9
10
10
11
11
12
12
13
13
13
13
13
14
14
14
14
14
13
13
12
12
12
12
11
11
10
10
9
9
8
9
8
8
8
8
7
7
7
7
8
8
8
9
9
9
9
9
9
10
10
11
11
11
11
11
11
11
10
10
10
9
9
8
8
8
7
6
6
6
5
5
5
5
5
5
6
6
7
7
6
7
7
7
8
9
9
9
9
9
8
8
8
8
8
8
8
8
8
8
7
7
7
7
7
7
6
6
7
7
7
7
7
7
7
7
8
8
9
9
9
10
10
10
10
10
11
11
11
11
11
11
11
11
11
11
11
11
11
11
11
11
11
11
11
10
11
11
10
10
11
10
10
11
10
10
10
10
10
9
9
9
9
8
8
7
6
6
6
5
5
5
5
5
5
5
6
5
6
6
7
8
9
10
10
11
11
12
12
12
13
14
15
15
16
16
17
17
18
18
19
19
19
19
19
19
19
18
18
18
18
17
17
17
17
17
16
17
17
17
17
17
18
17
17
18
18
19
19
19
19
19
19
19
19
19
19
18
18
17
17
17
16
15
15
14
14
13
13
13
12
12
12
12
12
12
12
13
12
12
12
13
13
12
11
11
11
10
9
9
8
7
7
6
6
6
6
6
5
5
5
5
5
5
5
6
6
6
6
7
7
6
7
7
7
8
8
8
9
9
9
9
9
9
9
9
9
8
8
8
7
7
6
6
5
4
2
1
-1
-3
-6
-8
-10
-14
-17
-20
-23
-27
-31
-34
-38
-40
-43
-45
-47
-48
-49
-49
-48
-48
-46
-44
-40
-38
-33
-29
-24
-19
-13
-6
1
9
16
24
33
42
51
60
69
79
89
99
108
117
126
136
144
150
156
161
166
170
173
175
176
176
175
174
172
168
164
159
154
148
142
136
129
122
115
109
103
97
92
87
82
78
73
69
65
62
58
55
51
48
45
43
40
37
35
32
30
27
25
23
21
20
18
17
16
15
14
13
13
12
11
10
9
9
8
8
8
8
8
8
8
7
7
8
8
9
9
9
9
9
9
10
10
10
11
11
11
11
11
11
11
11
11
11
10
11
10
9
9
9
9
9
8
8
7
7
7
7
7
7
7
7
7
7
7
7
8
8
8
8
8
8
8
8
8
7
7
7
6
6
6
6
6
6
6
6
6
6
6
6
6
6
6
7
7
8
8
8
9
10
11
13
14
15
16
17
17
17
18
19
20
20
20
20
20
20
20
19
19
19
19
18
18
17
17
16
16
16
15
15
14
14
14
13
14
14
14
14
14
15
15
16
16
17
18
19
20
21
22
22
23
24
25
25
25
26
26
26
26
27
28
28
28
29
29
29
29
30
29
30
30
30
29
29
29
29
30
30
29
30
30
30
30
31
32
32
32
32
33
33
34
34
34
35
36
36
37
37
38
39
40
41
43
44
45
46
48
49
50
50
52
53
54
55
55
57
58
59
59
60
61
62
62
62
64
64
64
65
66
66
66
67
67
68
68
68
69
68
69
70
70
71
71
72
73
73
73
73
74
74
75
74
74
75
74
74
74
73
73
73
73
72
72
72
70
70
69
69
68
68
67
66
66
65
64
62
61
60
59
58
57
57
55
55
54
53
52
52
51
51
49
49
48
47
46
45
44
43
41
41
40
38
37
36
35
33
32
30
29
27
26
25
23
22
21
20
19
19
17
17
17
16
16
16
16
16
16
17
16
17
17
17
16
16
16
17
17
17
18
18
17
17
18
18
18
18
18
19
19
18
18
18
18
18
17
17
17
16
16
16
14
14
14
14
14
14
12
12
12
11
11
10
10
9
8
8
7
7
6
6
5
5
5
6
5
5
6
6
6
6
7
7
7
8
8
8
9
10
10
10
11
11
12
11
11
12
12
12
12
12
12
12
12
12
12
12
12
12
12
12
12
12
12
13
13
13
13
13
14
14
14
14
14
14
14
14
14
14
14
14
14
14
14
13
13
13
12
13
13
12
12
12
11
11
10
10
10
10
10
10
10
9
9
10
10
10
10
10
10
10
10
10
10
10
10
10
11
10
10
11
11
11
12
12
13
13
13
14
14
14
14
14
14
13
14
14
13
13
12
12
11
11
10
10
10
10
10
8
8
8
8
8
8
8
8
8
8
8
8
9
9
9
10
10
11
11
10
10
11
11
11
11
11
11
11
11
12
12
13
13
12
13
13
13
13
14
14
14
14
14
14
14
14
13
12
12
12
11
11
11
10
10
10
10
10
8
8
8
8
8
8
8
7
7
8
8
9
9
9
9
10
10
11
12
13
13
14
14
14
14
15
15
14
14
13
13
12
12
11
10
10
9
9
8
8
8
8
9
9
9
10
10
10
11
11
11
11
11
12
12
12
12
12
13
13
13
13
13
13
13
13
13
13
13
12
12
12
12
11
11
11
11
11
11
11
10
10
10
10
9
9
9
8
8
8
7
7
7
7
7
7
7
7
7
7
7
8
7
7
7
7
9
9
9
9
10
10
11
11
12
12
13
13
14
15
15
15
16
16
15
15
14
15
14
13
12
12
11
10
10
9
9
9
8
8
8
8
8
8
8
8
8
8
8
8
8
9
9
9
9
10
10
11
11
12
13
13
13
13
14
14
14
15
15
16
16
16
16
16
16
15
15
15
15
15
14
13
13
11
11
10
9
8
8
7
7
6
6
5
5
5
5
5
4
5
5
5
6
6
7
7
8
8
8
10
10
11
11
12
12
12
13
13
14
13
14
14
14
14
14
13
13
12
12
11
11
10
10
9
9
9
8
8
8
9
9
9
9
10
11
11
11
11
10
11
11
11
10
10
9
9
8
8
8
8
7
7
7
6
7
7
6
6
6
6
7
7
8
9
9
10
10
12
12
13
13
14
14
15
16
16
17
16
16
17
17
17
17
18
17
17
17
18
18
19
19
19
20
19
19
19
19
19
19
19
19
19
19
18
18
18
17
17
17
17
17
17
16
16
16
16
17
16
16
16
17
18
18
19
19
20
20
20
21
22
22
23
22
23
23
23
23
23
23
23
23
23
23
22
22
22
22
21
21
21
21
19
19
19
18
16
16
15
15
14
13
13
12
11
10
10
9
8
8
8
9
9
9
9
9
9
9
9
9
9
9
9
10
10
10
10
10
10
10
10
10
10
10
10
9
9
9
9
8
8
8
8
8
7
7
7
7
7
6
5
5
4
3
2
0
-2
-4
-7
-9
-12
-15
-19
-22
-26
-29
-32
-35
-38
-40
-42
-44
-46
-46
-47
-47
-46
-44
-42
-40
-37
-34
-30
-26
-21
-14
-7
0
8
15
24
33
42
52
62
73
83
94
104
116
127
136
147
155
164
172
178
184
188
192
196
198
199
199
198
196
193
188
184
178
172
167
160
153
145
139
131
125
120
113
107
100
95
90
84
79
74
70
65
60
56
51
47
44
40
37
33
30
27
26
23
22
20
19
18
17
17
16
16
16
15
15
15
15
15
16
16
16
16
16
17
16
16
16
15
15
14
13
12
12
10
9
8
7
7
7
6
6
6
6
6
6
5
5
5
5
5
5
6
6
7
7
8
8
8
8
9
9
9
9
9
9
9
9
9
9
9
9
9
9
9
9
9
8
8
7
7
7
7
7
7
7
7
7
8
8
8
7
8
8
8
8
8
8
8
9
10
10
11
10
11
12
12
13
13
14
14
14
14
14
15
15
15
15
15
15
15
15
15
15
16
16
16
17
17
17
17
17
17
17
17
18
18
18
18
17
18
18
18
18
18
19
19
19
20
20
20
21
22
22
22
22
23
24
24
24
24
25
25
25
25
25
25
25
26
26
26
26
26
26
25
26
26
26
26
26
27
28
29
29
30
31
31
32
32
33
35
35
36
37
37
38
39
40
40
42
43
43
45
46
47
48
48
50
51
52
52
53
53
54
55
54
54
55
55
55
55
55
56
56
56
58
58
58
59
59
59
60
61
62
62
64
64
65
66
67
67
68
70
70
71
72
73
74
74
74
74
75
75
75
75
75
74
74
74
73
73
73
72
72
72
72
72
72
72
73
72
72
72
72
72
72
72
72
71
71
71
70
70
69
68
67
67
65
64
62
61
60
58
57
56
53
52
50
49
48
46
45
43
43
41
40
39
38
38
37
35
35
35
34
34
33
33
32
31
31
30
31
30
30
29
29
28
28
27
27
26
25
25
23
23
22
20
20
19
18
17
17
16
15
15
15
14
13
14
14
12
12
12
12
11
11
11
11
10
10
10
10
11
11
11
11
11
10
11
11
11
11
10
10
10
10
10
10
9
9
9
9
9
8
8
9
9
9
9
10
10
10
10
10
10
10
10
10
11
11
11
11
12
12
13
13
14
13
13
14
14
13
13
13
13
13
13
13
13
12
12
12
12
12
12
12
11
11
11
11
11
11
10
10
10
10
9
10
10
10
10
10
10
10
11
10
10
10
10
10
10
10
10
10
9
9
9
9
9
9
9
10
10
11
11
12
12
12
12
12
12
12
13
13
14
13
13
13
13
12
12
12
11
11
11
11
10
10
9
9
9
8
8
7
7
6
6
6
5
5
5
5
5
6
6
6
7
7
6
7
7
7
8
8
9
10
10
10
10
10
10
10
10
10
10
10
10
9
10
10
9
9
9
9
8
8
8
8
8
7
7
7
7
7
7
7
7
7
7
7
7
6
6
6
5
5
5
5
5
5
5
6
6
7
8
8
8
9
10
11
11
12
12
13
13
13
13
13
13
13
13
13
12
12
12
12
12
11
11
11
11
10
10
9
9
9
8
7
8
7
7
7
7
7
7
7
7
7
7
8
8
8
8
8
8
8
8
8
8
8
8
8
8
9
9
9
9
9
9
10
10
10
10
10
10
10
10
10
10
11
11
11
11
11
11
11
11
10
11
10
10
10
10
9
9
8
8
8
7
8
8
8
8
7
7
7
7
7
8
8
8
9
9
9
9
9
9
9
9
9
9
9
9
9
9
10
10
9
9
9
9
8
9
9
9
9
9
9
8
9
9
9
9
9
8
9
9
9
9
9
9
9
9
9
9
8
8
9
9
9
9
9
9
10
10
11
11
11
12
12
13
13
13
13
12
12
12
11
11
10
10
11
10
10
10
9
9
9
9
9
9
9
9
9
10
10
10
10
10
9
9
9
9
9
9
9
8
9
8
8
8
7
7
7
6
6
6
6
6
6
6
6
6
6
6
6
6
6
6
6
6
7
7
7
7
7
7
7
8
9
9
10
10
11
12
12
13
13
13
13
13
13
13
13
12
12
12
10
10
10
9
8
8
7
6
6
5
5
4
4
4
4
4
4
4
5
5
6
6
7
7
8
9
10
11
12
13
13
14
14
15
15
16
16
16
16
16
16
16
15
15
15
14
14
14
14
13
13
12
12
11
11
10
10
9
9
9
9
8
8
8
8
9
9
9
9
9
9
9
9
10
9
9
9
9
8
8
8
8
7
7
7
7
7
7
7
7
8
9
8
9
10
10
11
11
11
11
11
11
11
11
11
12
12
12
13
13
14
14
15
16
16
16
17
17
18
19
19
20
20
21
21
22
22
23
22
23
23
23
23
22
22
22
22
22
21
22
21
21
21
21
22
21
22
23
23
24
24
23
24
24
24
24
24
24
23
23
23
22
21
21
20
20
19
19
18
17
17
16
16
14
13
13
13
12
11
11
11
10
10
9
9
9
9
9
9
9
9
8
9
9
8
8
8
8
8
8
8
7
6
6
5
5
4
4
4
3
3
3
2
2
2
2
1
1
1
1
1
1
1
2
2
3
4
4
5
6
6
7
6
5
5
4
2
0
-2
-4
-6
-9
-12
-15
-19
-23
-26
-30
-33
-36
-38
-40
-43
-44
-46
-46
-47
-46
-46
-45
-42
-39
-37
-32
-27
-22
-16
-9
-1
7
15
24
32
42
51
61
71
82
93
105
117
128
139
150
161
170
178
185
192
197
202
205
207
207
207
205
202
199
194
189
182
175
168
160
153
145
138
130
124
118
112
107
102
97
92
88
83
80
76
72
68
65
61
57
53
49
46
42
38
34
31
28
25
22
21
18
16
14
13
12
11
10
10
10
10
10
10
10
10
11
10
11
11
12
11
11
11
11
11
11
10
10
10
10
10
10
10
10
9
9
9
9
9
9
8
8
8
7
7
7
7
7
6
5
5
5
5
4
4
4
4
4
4
3
3
4
4
4
3
3
4
4
5
5
5
6
6
7
8
8
9
9
10
10
10
10
11
11
11
11
11
11
12
12
12
12
12
12
13
13
13
14
15
15
15
15
15
15
15
15
15
16
16
16
16
16
16
15
15
15
15
15
15
15
15
15
15
15
15
15
14
14
14
14
14
14
14
14
14
14
14
14
14
14
13
13
13
12
13
13
13
13
13
15
15
16
17
18
19
20
21
22
23
24
24
26
27
27
27
28
28
29
29
29
29
30
30
30
30
31
31
31
32
32
33
33
33
34
34
35
35
35
35
37
37
38
39
40
41
42
42
43
45
45
46
47
48
48
50
50
51
51
51
52
52
52
53
53
53
55
54
55
56
56
55
56
56
56
56
56
57
57
58
57
58
59
59
59
60
60
61
61
62
62
62
63
63
63
64
64
64
65
65
65
66
66
66
66
67
67
68
69
69
70
70
70
70
70
70
70
70
70
70
70
70
70
70
69
70
69
68
68
68
67
66
66
65
64
62
61
60
59
58
56
55
53
53
52
50
50
48
47
45
43
42
41
39
38
35
34
33
31
30
28
26
26
24
23
22
21
20
19
18
17
16
15
14
13
13
12
11
11
11
9
9
10
8
8
7
8
8
7
7
8
7
6
7
7
6
6
6
6
6
6
6
6
5
5
6
6
6
6
6
5
5
5
5
4
4
4
3
3
3
3
3
3
4
4
4
5
5
5
6
5
5
5
5
5
6
6
6
6
6
5
5
5
4
4
4
3
3
3
3
1
2
2
1
1
0
0
-1
-1
-2
-3
-3
-3
-3
-3
-3
-3
-3
-3
-3
-4
-4
-4
-4
-4
-4
-3
-3
-3
-3
-3
-2
-2
-2
-2
-2
-2
-2
-2
-2
-2
-2
-2
-2
-3
-3
-3
-3
-4
-4
-5
-5
-5
-6
-6
-6
-7
-7
-7
-7
-8
-8
-8
-8
-8
-8
-8
-8
-7
-7
-7
-6
-5
-4
-3
-2
-1
-1
0
1
2
2
2
2
2
2
1
1
0
0
-1
-2
-2
-3
-4
-5
-5
-6
-7
-7
-8
-9
-10
-11
-11
-12
-13
-13
-13
-13
-13
-13
-13
-13
-13
-12
-11
-11
-10
-10
-9
-9
-9
-8
-8
-8
-8
-7
-8
-8
-8
-9
-9
-9
-11
-11
-11
-11
-11
-10
-10
-10
-10
-10
-10
-9
-9
-8
-8
-8
-7
-7
-6
-6
-5
-4
-4
-3
-3
-3
-3
-3
-4
-4
-4
-5
-6
-6
-7
-7
-7
-8
-9
-9
-10
-10
-10
-11
-11
-11
-11
-11
-11
-12
-12
-12
-12
-13
-13
-13
-12
-13
-12
-12
-12
-11
-11
-11
-10
-10
-10
-10
-10
-10
-10
-10
-11
-11
-10
-10
-11
-11
-11
-11
-11
-11
-11
-11
-11
-11
-12
-12
-11
-11
-11
-11
-11
-11
-11
-11
-11
-11
-11
-11
-11
-10
-11
-11
-11
-11
-11
-11
-11
-12
-12
-13
-13
-13
-14
-14
-15
-15
-15
-15
-14
-15
-15
-15
-15
-15
-15
-14
-14
-14
-13
-13
-13
-13
-13
-12
-12
-12
-11
-11
-10
-10
-11
-11
-10
-10
-10
-10
-10
-10
-10
-10
-10
-10
-10
-11
-11
-10
-10
-10
-9
-9
-8
-8
-8
-7
-8
-7
-7
-7
-7
-6
-6
-6
-7
-7
-8
-8
-9
-9
-9
-11
-11
-11
-12
-12
-13
-13
-14
-14
-15
-16
-17
-17
-17
-18
-18
-18
-18
-18
-18
-18
-17
-17
-17
-17
-16
-16
-16
-16
-16
-16
-16
-16
-16
-17
-17
-16
-16
-16
-16
-16
-16
-16
-16
-15
-15
-15
-14
-14
-14
-14
-14
-13
-13
-13
-13
-13
-13
-13
-13
-12
-12
-12
-13
-13
-13
-13
-13
-13
-13
-14
-14
-14
-14
-14
-13
-12
-12
-12
-11
-10
-10
-10
-9
-9
-8
-8
-8
-8
-7
-8
-8
-8
-9
-9
-10
-10
-10
-11
-11
-11
-11
-11
-11
-11
-11
-11
-11
-12
-12
-12
-12
-12
-12
-12
-12
-13
-13
-13
-13
-13
-14
-14
-14
-15
-15
-15
-15
-15
-16
-17
-17
-17
-18
-17
-18
-19
-18
-18
-18
-18
-17
-17
-17
-17
-16
-16
-16
-15
-14
-14
-14
-14
-13
-13
-12
-12
-11
-11
-11
-11
-10
-9
-8
-8
-8
-7
-7
-7
-6
-6
-6
-6
-6
-5
-5
-5
-5
-5
-4
-4
-3
-3
-3
-3
-2
-1
-1
-1
-1
-1
-1
0
0
0
0
0
0
0
0
0
1
0
0
0
0
0
0
0
-1
-1
-2
-2
-2
-2
-2
-2
-3
-3
-3
-4
-4
-4
-5
-5
-5
-6
-6
-7
-7
-8
-9
-9
-10
-10
-11
-11
-11
-11
-11
-12
-12
-12
-13
-12
-12
-12
-12
-12
-12
-13
-13
-14
-14
-14
-15
-15
-15
-15
-15
-16
-16
-16
-16
-16
-15
-15
-15
-15
-15
-15
-14
-14
-13
-13
-13
-14
-14
-14
-14
-14
-16
-16
-16
-17
-18
-18
-19
-18
-19
-20
-20
-21
-21
-22
-22
-23
-24
-24
-26
-27
-28
-31
-33
-35
-38
-40
-43
-46
-49
-54
-56
-59
-62
-63
-66
-67
-69
-70
-70
-69
-68
-67
-64
-61
-58
-54
-50
-44
-38
-32
-25
-18
-10
-2
4
12
22
31
41
51
60
71
81
91
102
112
122
131
138
145
150
155
159
161
163
164
164
162
161
157
154
149
143
137
130
123
116
108
101
94
87
81
75
70
64
59
55
50
47
43
40
37
33
29
27
24
21
17
15
13
10
8
5
3
0
-2
-4
-6
-6
-8
-9
-10
-11
-11
-12
-12
-12
-13
-13
-13
-14
-14
-13
-14
-14
-15
-15
-15
-15
-15
-14
-15
-16
-16
-16
-16
-17
-17
-17
-18
-17
-18
-18
-18
-19
-19
-19
-19
-19
-19
-19
-18
-19
-18
-18
-18
-18
-18
-17
-17
-17
-17
-17
-17
-16
-16
-15
-15
-14
-14
-13
-14
-13
-13
-12
-12
-12
-12
-12
-12
-12
-13
-13
-13
-12
-13
-13
-13
-13
-13
-14
-14
-13
-14
-13
-13
-14
-14
-14
-14
-13
-13
-13
-13
-13
-13
-13
-13
-13
-12
-12
-12
-12
-11
-11
-11
-11
-11
-11
-10
-10
-10
-10
-11
-11
-11
-11
-10
-9
-10
-9
-9
-9
-8
-8
-8
-8
-7
-7
-7
-7
-6
-5
-5
-6
-6
-5
-6
-6
-6
-6
-6
-6
-6
-5
-5
-5
-5
-5
-5
-4
-3
-2
-2
-1
-1
0
1
3
3
4
5
6
6
7
7
8
9
9
9
8
9
9
9
9
10
10
10
10
10
11
12
12
13
14
14
15
15
16
16
17
17
17
18
18
19
20
20
21
21
22
23
23
24
24
26
26
27
29
29
30
31
32
33
34
34
36
36
38
39
39
40
41
42
42
42
43
43
43
44
43
43
44
43
43
43
43
43
43
43
43
43
43
43
44
44
44
44
44
45
45
45
45
46
46
46
47
47
47
47
48
48
48
49
49
49
49
49
48
47
46
45
45
44
43
42
41
39
38
37
35
34
31
30
28
27
25
24
22
21
20
18
17
15
14
14
12
12
11
10
9
9
7
7
6
5
5
3
2
2
0
0
-1
-2
-3
-3
-5
-5
-6
-6
-7
-6
-6
-7
-7
-7
-7
-7
-7
-8
-9
-9
-9
-9
-10
-10
-11
-11
-11
-12
-12
-12
-13
-13
-12
-13
-14
-14
-14
-14
-15
-15
-15
-15
-15
-16
-15
-15
-15
-16
-16
-16
-16
-16
-15
-16
-16
-16
-16
-16
-16
-16
-15
-15
-14
-14
-15
-15
-15
-14
-14
-14
-14
-13
-13
-13
-13
-14
-14
-14
-14
-15
-15
-15
-15
-15
-15
-15
-16
-16
-16
-16
-17
-17
-17
-17
-18
-18
-18
-19
-19
-20
-20
-21
-20
-21
-21
-21
-21
-21
-21
-22
-20
-20
-21
-20
-19
-19
-18
-18
-18
-17
-17
-16
-16
-16
-15
-15
-15
-14
-14
-14
-14
-14
-13
-13
-14
-14
-14
-14
-15
-15
-15
-16
-16
-17
-17
-17
-17
-17
-17
-17
-17
-17
-17
-17
-17
-17
-18
-18
-19
-19
-20
-19
-20
-20
-20
-20
-20
-20
-20
-20
-20
-20
-19
-19
-19
-19
-18
-18
-18
-18
-18
-18
-17
-17
-16
-16
-16
-16
-15
-16
-16
-16
-16
-16
-16
-16
-16
-16
-16
-16
-16
-16
-16
-16
-15
-15
-15
-14
-14
-14
-14
-14
-13
-13
-13
-14
-14
-14
-15
-16
-16
-17
-18
-18
-19
-19
-20
-20
-20
-20
-20
-21
-21
-21
-21
-21
-20
-19
-19
-19
-18
-18
-17
-17
-16
-16
-15
-15
-15
-15
-15
-15
-15
-15
-15
-16
-16
-16
-17
-18
-18
-19
-19
-20
-20
-20
-20
-20
-20
-20
-20
-20
-20
-19
-19
-19
-18
-18
-18
-18
-18
-18
-19
-18
-17
-18
-18
-18
-17
-17
-17
-17
-16
-16
-17
-17
-17
-17
-18
-17
-19
-19
-18
-19
-20
-20
-20
-20
-20
-20
-21
-21
-21
-21
-22
-22
-22
-22
-22
-22
-22
-21
-21
-22
-21
-21
-21
-21
-20
-20
-20
-19
-19
-19
-19
-19
-19
-19
-19
-18
-18
-18
-18
-18
-18
-18
-18
-18
-18
-18
-18
-18
-18
-18
-18
-18
-19
-19
-20
-20
-21
-22
-22
-23
-23
-24
-24
-24
-24
-24
-24
-23
-23
-23
-22
-22
-21
-20
-19
-19
-18
-18
-17
-17
-16
-16
-15
-15
-15
-14
-14
-15
-15
-15
-15
-16
-16
-17
-18
-18
-19
-19
-19
-20
-20
-20
-20
-20
-20
-21
-21
-21
-20
-20
-20
-19
-19
-19
-19
-19
-19
-19
-19
-19
-19
-19
-18
-19
-18
-18
-19
-19
-19
-20
-20
-21
-21
-22
-21
-22
-23
-23
-24
-24
-24
-24
-24
-24
-23
-22
-22
-21
-20
-21
-21
-20
-20
-20
-20
-19
-19
-19
-19
-18
-18
-18
-18
-18
-18
-17
-18
-17
-17
-17
-17
-17
-17
-18
-18
-18
-19
-19
-19
-19
-19
-19
-19
-19
-20
-20
-21
-20
-21
-21
-21
-21
-21
-22
-22
-22
-22
-23
-23
-24
-23
-23
-23
-24
-24
-24
-23
-23
-23
-24
-24
-25
-24
-24
-25
-24
-24
-24
-24
-24
-23
-23
-23
-23
-22
-21
-21
-21
-20
-19
-19
-18
-18
-17
-17
-16
-16
-15
-15
-15
-15
-15
-14
-14
-14
-14
-14
-14
-13
-12
-12
-12
-12
-12
-12
-11
-12
-11
-10
-10
-10
-9
-10
-10
-9
-9
-9
-9
-9
-9
-9
-9
-9
-9
-9
-10
-9
-9
-11
-11
-11
-11
-11
-11
-11
-11
-11
-11
-11
-12
-13
-13
-14
-14
-15
-15
-16
-16
-17
-18
-18
-19
-19
-20
-20
-20
-20
-22
-21
-21
-21
-21
-22
-23
-23
-23
-23
-23
-24
-24
-24
-24
-24
-25
-24
-25
-25
-25
-25
-25
-25
-25
-25
-25
-26
-25
-25
-25
-25
-26
-26
-26
-25
-25
-25
-25
-25
-25
-25
-25
-26
-26
-26
-27
-28
-28
-29
-29
-29
-30
-30
-30
-30
-31
-31
-32
-33
-35
-36
-38
-40
-42
-44
-47
-50
-53
-55
-59
-62
-66
-69
-72
-75
-78
-80
-82
-83
-84
-85
-84
-83
-82
-80
-77
-73
-69
-64
-59
-52
-45
-37
-29
-20
-12
-4
6
16
26
35
46
56
67
78
89
99
110
120
129
137
145
150
155
161
164
167
168
169
168
166
164
161
156
152
145
139
131
124
116
109
100
92
87
79
73
66
60
54
49
43
39
33
29
24
20
16
12
8
4
1
-2
-5
-7
-10
-12
-14
-16
-18
-19
-20
-21
-22
-23
-24
-24
-25
-26
-26
-27
-27
-28
-28
-28
-28
-30
-30
-29
-30
-30
-31
-30
-30
-30
-30
-31
-31
-31
-30
-30
-30
-29
-29
-29
-28
-27
-26
-26
-25
-25
-24
-24
-24
-24
-24
-25
-25
-26
-26
-26
-27
-28
-28
-27
-28
-28
-28
-29
-29
-28
-29
-29
-29
-28
-28
-28
-28
-28
-28
-27
-27
-26
-25
-25
-25
-24
-23
-24
-23
-22
-21
-20
-20
-20
-20
-20
-20
-21
-21
-20
-21
-22
-22
-22
-23
-23
-23
-23
-24
-24
-25
-25
-25
-26
-26
-26
-27
-27
-27
-27
-27
-27
-27
-27
-26
-26
-27
-27
-27
-27
-26
-26
-26
-26
-26
-26
-27
-26
-26
-26
-26
-27
-27
-27
-25
-25
-26
-25
-25
-24
-23
-22
-22
-21
-21
-20
-20
-19
-19
-17
-16
-15
-14
-13
-12
-11
-10
-9
-8
-7
-7
-6
-5
-5
-5
-5
-4
-4
-4
-4
-3
-4
-4
-4
-3
-3
-3
-3
-3
-3
-3
-3
-2
-2
-2
-1
-1
-1
0
1
1
2
3
4
5
6
8
10
10
11
13
14
15
16
17
17
18
18
19
20
20
20
20
22
22
23
23
23
23
24
24
24
25
25
26
26
26
26
27
27
27
27
27
28
28
28
28
28
29
29
29
29
31
31
31
32
33
33
33
34
35
36
36
37
37
37
39
39
40
40
40
40
40
40
39
39
38
37
36
35
34
33
31
30
30
29
28
27
27
25
25
25
23
23
21
21
20
18
17
16
15
15
13
13
11
9
9
7
5
4
3
2
1
0
-2
-3
-4
-6
-6
-8
-9
-9
-11
-11
-11
-12
-12
-13
-13
-14
-14
-16
-16
-17
-18
-19
-19
-21
-22
-22
-23
-24
-26
-26
-27
-27
-28
-29
-29
-30
-30
-30
-30
-30
-31
-30
-30
-30
-30
-29
-29
-29
-29
-29
-28
-28
-29
-28
-28
-28
-28
-28
-28
-29
-29
-29
-29
-28
-29
-30
-30
-29
-29
-30
-29
-29
-29
-28
-28
-28
-28
-27
-28
-28
-28
-28
-28
-27
-27
-27
-27
-27
-27
-27
-27
-27
-27
-27
-27
-27
-27
-27
-27
-28
-28
-29
-29
-30
-30
-30
-30
-31
-31
-31
-31
-31
-31
-30
-30
-30
-30
-30
-29
-29
-29
-29
-30
-30
-30
-30
-30
-30
-30
-30
-31
-32
-32
-31
-32
-32
-32
-32
-32
-32
-32
-32
-32
-33
-32
-32
-32
-32
-32
-31
-30
-30
-29
-29
-29
-29
-28
-28
-28
-28
-28
-28
-29
-29
-30
-30
-31
-32
-32
-32
-33
-33
-33
-33
-33
-33
-33
-33
-33
-33
-33
-33
-33
-32
-32
-32
-32
-32
-31
-31
-31
-31
-30
-30
-30
-29
-29
-29
-29
-29
-29
-29
-29
-29
-30
-30
-30
-29
-30
-31
-31
-31
-31
-31
-32
-32
-32
-33
-34
-34
-35
-35
-35
-35
-35
-35
-35
-35
-35
-35
-36
-35
-35
-35
-34
-34
-34
-33
-33
-32
-32
-32
-32
-32
-32
-31
-31
-32
-32
-31
-31
-31
-31
-31
-31
-31
-31
-32
-32
-33
-33
-34
-35
-36
-36
-37
-38
-37
-38
-38
-38
-38
-38
-37
-38
-38
-37
-36
-36
-35
-35
-34
-34
-34
-33
-33
-33
-32
-31
-31
-32
-32
-32
-32
-32
-32
-32
-32
-33
-33
-34
-34
-34
-34
-34
-34
-34
-34
-34
-34
-34
-33
-33
-33
-32
-32
-33
-33
-32
-33
-33
-32
-32
-32
-32
-32
-32
-33
-33
-33
-32
-32
-32
-32
-33
-33
-33
-33
-33
-33
-33
-33
-34
-34
-34
-35
-35
-36
-36
-36
-36
-36
-36
-36
-35
-35
-34
-33
-33
-33
-32
-32
-32
-31
-31
-30
-29
-29
-29
-28
-28
-28
-28
-28
-28
-28
-28
-27
-28
-28
-28
-28
-28
-28
-29
-29
-29
-29
-29
-29
-29
-29
-29
-29
-29
-30
-30
-30
-30
-31
-31
-31
-32
-32
-33
-33
-33
-34
-34
-34
-34
-34
-35
-34
-34
-34
-33
-33
-32
-32
-32
-32
-32
-32
-31
-31
-31
-32
-32
-32
-32
-32
-32
-32
-33
-33
-33
-33
-34
-34
-34
-35
-35
-34
-35
-35
-35
-36
-36
-36
-35
-35
-35
-35
-34
-34
-34
-34
-34
-34
-34
-33
-32
-32
-32
-32
-32
-32
-32
-32
-32
-33
-33
-33
-33
-33
-33
-32
-32
-31
-32
-32
-32
-32
-31
-31
-32
-32
-31
-31
-31
-31
-30
-30
-30
-31
-31
-30
-31
-31
-32
-31
-32
-32
-33
-32
-32
-33
-33
-32
-32
-32
-31
-30
-30
-29
-28
-28
-27
-26
-26
-25
-25
-25
-24
-24
-24
-23
-23
-23
-22
-22
-22
-22
-21
-21
-22
-22
-22
-22
-22
-22
-22
-22
-23
-23
-23
-23
-23
-23
-23
-22
-22
-22
-22
-22
-21
-22
-21
-21
-21
-21
-21
-21
-22
-22
-22
-22
-22
-23
-23
-24
-24
-24
-24
-24
-24
-24
-26
-26
-26
-26
-27
-27
-27
-28
-28
-28
-28
-29
-30
-30
-30
-31
-32
-32
-33
-33
-35
-35
-36
-37
-38
-39
-40
-40
-41
-41
-42
-42
-42
-42
-42
-41
-42
-42
-41
-40
-40
-38
-38
-37
-37
-36
-36
-35
-35
-35
-35
-34
-34
-34
-34
-34
-34
-34
-34
-35
-35
-35
-36
-36
-37
-38
-39
-39
-40
-41
-43
-45
-46
-48
-49
-51
-54
-57
-60
-62
-66
-70
-73
-76
-79
-82
-84
-86
-88
-90
-91
-91
-91
-90
-89
-87
-84
-82
-77
-72
-67
-61
-54
-47
-40
-32
-23
-15
-6
3
13
24
35
45
55
67
79
90
100
111
121
130
137
143
149
154
157
159
160
161
159
157
154
149
144
138
132
124
115
108
99
90
81
73
65
59
52
45
38
33
27
22
17
13
9
6
2
-1
-4
-7
-9
-12
-14
-16
-19
-20
-22
-24
-25
-27
-28
-28
-29
-30
-31
-31
-32
-33
-33
-33
-33
-34
-34
-35
-36
-36
-37
-37
-37
-38
-38
-38
-38
-38
-39
-39
-39
-39
-39
-39
-39
-39
-39
-39
-39
-38
-39
-39
-39
-39
-39
-39
-39
-39
-39
-38
-38
-37
-37
-37
-36
-36
-37
-37
-37
-37
-37
-38
-38
-38
-38
-38
-38
-38
-38
-38
-38
-38
-38
-38
-38
-38
-38
-39
-39
-39
-39
-40
-40
-40
-40
-40
-40
-40
-40
-41
-41
-41
-40
-40
-40
-40
-40
-40
-39
-39
-39
-39
-39
-40
-40
-39
-39
-39
-38
-38
-37
-37
-37
-36
-36
-35
-35
-34
-34
-33
-33
-32
-31
-31
-30
-30
-29
-28
-28
-27
-26
-25
-24
-24
-23
-23
-23
-23
-23
-24
-23
-23
-24
-25
-25
-26
-26
-27
-27
-27
-27
-28
-28
-28
-28
-28
-28
-27
-27
-26
-25
-25
-24
-24
-23
-23
-22
-20
-20
-19
-19
-18
-17
-16
-16
-16
-15
-15
-14
-14
-14
-13
-13
-12
-13
-12
-12
-11
-11
-10
-10
-10
-9
-9
-9
-9
-8
-8
-8
-7
-7
-7
-5
-5
-4
-3
-2
-2
0
1
2
3
4
6
7
8
8
10
10
12
12
12
14
14
15
15
16
17
17
18
18
20
20
20
21
22
22
22
24
24
25
25
25
25
27
27
27
28
28
30
30
30
31
31
31
31
31
32
32
32
31
31
32
31
31
31
31
31
30
30
30
30
29
29
29
28
27
27
26
24
23
22
21
20
17
16
15
14
12
11
10
9
7
6
4
4
2
1
-1
-2
-2
-4
-4
-6
-7
-8
-9
-10
-10
-11
-12
-12
-13
-13
-14
-15
-16
-16
-17
-18
-19
-19
-20
-21
-21
-22
-23
-23
-24
-24
-25
-26
-26
-28
-28
-29
-30
-31
-32
-33
-34
-36
-36
-37
-38
-39
-40
-41
-42
-42
-41
-42
-42
-42
-42
-41
-41
-42
-40
-40
-39
-38
-37
-37
-36
-35
-34
-33
-32
-32
-31
-30
-30
-29
-28
-28
-28
-28
-27
-28
-28
-28
-29
-28
-29
-29
-30
-30
-30
-30
-30
-31
-31
-32
-32
-32
-33
-33
-34
-35
-35
-36
-36
-37
-38
-38
-38
-39
-39
-38
-38
-38
-38
-39
-38
-38
-38
-38
-38
-38
-38
-38
-37
-37
-36
-36
-36
-36
-35
-36
-36
-36
-36
-35
-35
-35
-35
-34
-34
-34
-35
-35
-35
-35
-36
-36
-35
-35
-36
-36
-35
-35
-36
-35
-35
-35
-35
-35
-35
-35
-35
-35
-35
-35
-35
-34
-34
-34
-34
-33
-34
-33
-33
-32
-32
-32
-32
-31
-31
-32
-31
-31
-31
-31
-32
-32
-32
-32
-32
-32
-32
-32
-33
-33
-33
-33
-34
-34
-34
-35
-36
-36
-36
-36
-37
-37
-37
-36
-36
-35
-35
-35
-34
-34
-34
-33
-33
-33
-33
-33
-34
-34
-34
-34
-34
-34
-34
-35
-35
-35
-35
-35
-35
-35
-35
-35
-35
-35
-35
-35
-35
-35
-35
-34
-34
-34
-34
-33
-33
-32
-32
-32
-32
-31
-32
-32
-32
-32
-32
-32
-31
-31
-32
-31
-31
-31
-31
-32
-32
-31
-31
-31
-31
-31
-31
-31
-31
-31
-31
-31
-31
-32
-32
-32
-33
-33
-33
-34
-34
-34
-35
-35
-36
-36
-36
-37
-37
-37
-38
-38
-39
-39
-39
-40
-40
-40
-40
-40
-40
-40
-40
-39
-39
-38
-38
-37
-37
-36
-36
-36
-34
-34
-33
-33
-32
-32
-31
-31
-31
-30
-30
-30
-31
-31
-31
-32
-32
-33
-33
-33
-33
-34
-35
-35
-35
-35
-35
-35
-35
-35
-34
-34
-34
-33
-32
-32
-32
-32
-31
-30
-31
-30
-30
-30
-30
-30
-30
-30
-29
-29
-29
-29
-29
-29
-29
-29
-29
-29
-29
-29
-29
-29
-29
-29
-29
-28
-28
-28
-28
-29
-28
-28
-28
-28
-27
-27
-27
-28
-28
-28
-29
-29
-30
-30
-30
-31
-31
-32
-32
-33
-34
-35
-36
-36
-37
-37
-38
-39
-39
-40
-40
-40
-40
-40
-40
-38
-38
-37
-37
-37
-36
-35
-34
-33
-33
-32
-32
-32
-30
-31
-31
-31
-31
-31
-31
-32
-32
-32
-33
-33
-33
-33
-32
-32
-32
-32
-32
-33
-32
-33
-33
-32
-32
-33
-32
-32
-33
-33
-33
-33
-33
-33
-33
-33
-33
-34
-34
-34
-34
-34
-34
-34
-33
-33
-33
-32
-31
-31
-30
-30
-29
-28
-28
-27
-26
-26
-25
-25
-24
-24
-23
-23
-22
-22
-22
-22
-22
-22
-22
-21
-21
-21
-21
-21
-20
-20
-20
-20
-20
-20
-20
-20
-20
-21
-21
-21
-21
-20
-21
-21
-20
-20
-21
-20
-20
-20
-20
-20
-20
-21
-21
-22
-22
-23
-24
-24
-25
-26
-27
-28
-28
-29
-29
-31
-31
-32
-32
-32
-33
-33
-33
-33
-33
-34
-33
-33
-33
-32
-31
-31
-30
-29
-29
-29
-28
-28
-28
-28
-28
-28
-29
-29
-29
-30
-30
-31
-31
-32
-32
-33
-33
-33
-34
-34
-35
-35
-35
-36
-36
-36
-36
-36
-36
-36
-36
-37
-36
-36
-36
-36
-35
-35
-35
-35
-35
-35
-37
-38
-39
-40
-42
-44
-46
-48
-51
-54
-57
-61
-64
-67
-70
-75
-78
-81
-83
-86
-87
-88
-89
-90
-90
-89
-87
-85
-81
-77
-73
-67
-61
-54
-46
-38
-30
-22
-13
-4
5
14
24
34
44
54
63
74
84
93
102
111
118
125
130
135
138
142
143
144
143
142
140
135
131
126
121
114
107
100
93
85
78
71
64
58
52
47
42
37
33
29
25
22
17
14
11
9
7
4
1
-1
-3
-6
-8
-10
-12
-14
-16
-18
-20
-22
-23
-24
-25
-26
-27
-28
-29
-29
-30
-31
-31
-32
-32
-33
-33
-33
-33
-34
-34
-35
-35
-35
-36
-36
-37
-36
-37
-37
-37
-37
-37
-37
-37
-37
-37
-37
-37
-37
-36
-36
-36
-36
-37
-37
-37
-37
-37
-37
-37
-36
-36
-36
-35
-35
-34
-34
-33
-33
-33
-33
-32
-32
-32
-32
-32
-32
-31
-31
-31
-31
-31
-31
-31
-31
-31
-30
-31
-31
-31
-31
-31
-30
-30
-30
-30
-30
-30
-30
-30
-30
-30
-30
-29
-29
-29
-29
-30
-30
-30
-30
-30
-31
-31
-31
-31
-32
-31
-31
-31
-31
-30
-30
-31
-30
-30
-29
-29
-29
-28
-28
-28
-28
-27
-27
-27
-27
-27
-26
-26
-26
-25
-25
-25
-24
-24
-24
-23
-23
-22
-22
-22
-22
-22
-22
-21
-21
-21
-21
-21
-21
-21
-21
-20
-20
-20
-19
-19
-19
-19
-19
-18
-18
-17
-17
-16
-16
-15
-15
-14
-14
-13
-13
-12
-12
-10
-10
-9
-9
-8
-8
-7
-7
-7
-7
-5
-5
-5
-4
-4
-4
-3
-3
-2
-2
-1
0
0
0
1
1
1
2
2
3
3
4
5
5
6
8
9
10
12
13
14
16
17
18
20
21
22
23
24
25
25
26
26
25
26
26
26
26
26
26
26
26
26
26
26
25
26
26
26
26
26
26
26
26
27
27
27
27
27
27
28
28
28
28
29
29
28
28
28
27
27
27
26
26
26
26
24
24
24
23
22
22
21
20
19
18
17
15
14
13
11
10
9
8
6
6
4
3
1
0
-2
-2
-4
-5
-7
-8
-9
-10
-11
-13
-14
-16
-16
-17
-19
-19
-20
-21
-22
-22
-24
-24
-25
-25
-25
-27
-27
-28
-28
-29
-30
-30
-30
-32
-32
-32
-33
-33
-33
-33
-33
-33
-34
-34
-34
-35
-35
-35
-35
-35
-36
-36
-36
-37
-38
-38
-38
-38
-38
-38
-39
-40
-40
-40
-40
-40
-41
-41
-41
-41
-42
-42
-42
-41
-42
-41
-41
-41
-40
-40
-39
-39
-38
-38
-38
-38
-38
-37
-37
-37
-37
-37
-37
-37
-37
-36
-36
-36
-36
-36
-36
-36
-36
-36
-36
-36
-36
-36
-37
-37
-38
-38
-39
-40
-40
-40
-41
-41
-41
-41
-42
-42
-42
-42
-43
-43
-43
-43
-43
-43
-43
-43
-43
-43
-44
-44
-43
-43
-43
-42
-42
-42
-42
-42
-42
-42
-42
-43
-43
-42
-42
-42
-42
-42
-42
-41
-41
-41
-40
-39
-39
-38
-37
-38
-37
-36
-35
-35
-35
-35
-34
-34
-35
-35
-35
-35
-35
-34
-35
-36
-36
-36
-37
-37
-37
-37
-37
-38
-38
-39
-39
-40
-40
-40
-40
-40
-40
-39
-39
-40
-39
-39
-39
-38
-38
-38
-38
-38
-38
-38
-38
-38
-38
-37
-37
-37
-37
-38
-37
-37
-38
-38
-38
-38
-38
-38
-38
-38
-38
-38
-38
-38
-38
-38
-38
-37
-37
-36
-37
-36
-36
-35
-35
-36
-35
-36
-36
-36
-35
-35
-35
-35
-35
-36
-36
-36
-36
-36
-36
-36
-36
-36
-36
-36
-36
-36
-36
-36
-36
-36
-36
-37
-37
-37
-37
-37
-37
-38
-38
-38
-38
-38
-39
-38
-39
-39
-39
-39
-39
-38
-38
-37
-37
-37
-37
-36
-36
-36
-35
-35
-35
-36
-35
-35
-35
-35
-35
-35
-35
-34
-34
-35
-35
-35
-35
-35
-35
-35
-35
-35
-35
-35
-34
-34
-34
-34
-35
-35
-35
-36
-36
-36
-37
-37
-38
-38
-39
-39
-40
-40
-40
-41
-41
-41
-42
-42
-42
-42
-42
-42
-42
-42
-42
-42
-42
-41
-40
-40
-39
-38
-38
-37
-37
-37
-37
-36
-35
-35
-35
-35
-35
-34
-34
-34
-34
-34
-33
-33
-32
-32
-31
-31
-30
-30
-30
-30
-30
-30
-30
-30
-30
-31
-31
-30
-30
-31
-32
-32
-32
-32
-32
-32
-32
-32
-33
-33
-34
-34
-35
-36
-36
-37
-36
-37
-38
-38
-38
-39
-39
-40
-40
-40
-40
-40
-40
-40
-40
-40
-40
-40
-40
-39
-39
-38
-38
-37
-36
-36
-36
-35
-35
-35
-35
-35
-36
-36
-36
-36
-37
-37
-37
-37
-38
-37
-38
-38
-39
-38
-38
-37
-37
-36
-35
-34
-33
-33
-32
-32
-32
-31
-30
-30
-30
-28
-28
-28
-27
-27
-26
-26
-26
-26
-25
-26
-26
-26
-26
-26
-26
-25
-26
-26
-26
-25
-25
-26
-26
-26
-25
-25
-25
-25
-25
-25
-25
-25
-26
-26
-27
-27
-28
-28
-29
-28
-30
-30
-31
-31
-31
-31
-32
-33
-32
-32
-32
-31
-32
-31
-31
-30
-29
-28
-28
-27
-26
-26
-25
-24
-23
-22
-23
-22
-22
-21
-21
-21
-21
-22
-22
-23
-23
-23
-24
-25
-25
-25
-25
-25
-25
-26
-26
-26
-25
-26
-26
-27
-27
-28
-28
-29
-29
-30
-30
-31
-32
-32
-32
-33
-33
-34
-34
-35
-35
-35
-35
-35
-36
-36
-35
-35
-35
-35
-36
-36
-36
-36
-37
-37
-37
-36
-36
-36
-36
-37
-37
-37
-37
-38
-38
-39
-39
-38
-38
-39
-39
-39
-40
-40
-41
-43
-45
-45
-47
-49
-52
-55
-57
-61
-64
-67
-71
-74
-77
-79
-82
-84
-86
-88
-88
-89
-89
-87
-86
-84
-82
-79
-75
-71
-66
-60
-54
-48
-40
-32
-25
-17
-8
1
11
21
30
41
52
62
74
85
95
105
116
124
133
140
146
152
156
159
161
163
163
162
160
157
153
148
141
135
127
120
111
103
95
87
79
72
66
60
55
49
44
40
36
31
27
23
21
17
14
10
7
5
3
-1
-3
-6
-8
-10
-12
-14
-16
-17
-19
-20
-21
-23
-24
-25
-26
-27
-28
-28
-28
-29
-30
-31
-32
-32
-33
-33
-34
-35
-35
-36
-36
-37
-38
-39
-39
-39
-40
-40
-40
-40
-39
-38
-38
-37
-38
-37
-36
-35
-34
-33
-32
-31
-30
-29
-29
-28
-28
-28
-27
-27
-27
-27
-26
-26
-26
-25
-26
-26
-26
-26
-26
-26
-26
-25
-25
-25
-26
-26
-26
-25
-25
-26
-26
-26
-27
-27
-27
-27
-27
-28
-28
-28
-28
-28
-29
-30
-30
-31
-31
-31
-32
-32
-32
-32
-31
-30
-31
-31
-30
-30
-30
-30
-30
-29
-29
-29
-29
-29
-29
-29
-28
-28
-28
-28
-28
-28
-27
-27
-26
-26
-25
-24
-23
-22
-22
-20
-20
-19
-18
-18
-17
-17
-16
-16
-16
-15
-15
-14
-14
-14
-14
-14
-14
-14
-14
-14
-13
-14
-14
-14
-14
-14
-13
-13
-13
-12
-12
-12
-12
-12
-12
-12
-12
-12
-12
-11
-11
-12
-12
-10
-10
-11
-11
-9
-9
-9
-9
-8
-8
-8
-7
-6
-6
-4
-4
-4
-3
-3
-2
-1
-1
0
1
2
2
3
4
6
6
7
8
9
10
11
12
13
14
15
17
17
19
20
22
23
25
26
28
30
31
33
34
35
37
38
40
40
41
41
43
43
43
44
43
43
44
44
44
44
43
42
42
42
41
42
41
40
40
40
39
39
38
38
37
37
38
38
38
38
38
38
38
38
38
38
37
37
36
37
35
34
33
32
31
29
29
28
26
25
22
21
19
17
16
14
14
12
11
10
8
8
6
6
5
4
4
3
2
3
2
2
1
1
0
0
-1
-2
-2
-4
-5
-6
-6
-7
-8
-8
-8
-9
-9
-10
-10
-11
-10
-11
-11
-12
-12
-12
-12
-12
-13
-12
-12
-12
-13
-14
-14
-15
-15
-15
-16
-16
-16
-17
-18
-19
-19
-20
-21
-22
-23
-24
-25
-24
-25
-26
-26
-26
-26
-25
-25
-25
-25
-25
-25
-25
-24
-24
-24
-24
-24
-24
-24
-24
-25
-25
-26
-26
-27
-27
-28
-28
-29
-29
-30
-30
-30
-31
-31
-31
-31
-31
-30
-29
-28
-27
-25
-24
-22
-20
-18
-16
-15
-14
-13
-12
-12
-12
-13
-13
-14
-15
-16
-18
-19
-20
-22
-24
-25
-27
-29
-29
-31
-32
-32
-32
-32
-32
-31
-31
-30
-29
-29
-27
-26
-26
-26
-25
-24
-23
-22
-22
-21
-21
-20
-20
-20
-20
-21
-22
-21
-21
-22
-23
-23
-24
-24
-24
-24
-24
-25
-25
-25
-26
-26
-27
-27
-28
-28
-29
-29
-30
-30
-31
-31
-31
-30
-30
-30
-29
-29
-28
-28
-27
-27
-27
-26
-25
-26
-26
-26
-26
-26
-26
-26
-26
-26
-26
-27
-28
-28
-28
-28
-28
-28
-28
-28
-28
-28
-29
-29
-29
-29
-29
-29
-29
-28
-28
-28
-28
-28
-28
-27
-27
-28
-27
-27
-27
-27
-27
-27
-27
-26
-26
-26
-25
-25
-24
-24
-23
-22
-23
-22
-21
-20
-20
-19
-19
-17
-17
-18
-17
-17
-18
-17
-16
-15
-14
-13
-12
-11
-10
-8
-6
-5
-3
-2
-1
0
0
0
0
-1
-2
-3
-4
-5
-7
-9
-11
-14
-17
-21
-25
-28
-31
-35
-37
-39
-41
-42
-43
-45
-46
-47
-47
-47
-47
-46
-45
-44
-42
-42
-41
-39
-38
-37
-36
-34
-33
-32
-31
-30
-30
-30
-29
-29
-29
-29
-29
-30
-30
-31
-33
-34
-34
-35
-36
-36
-37
-38
-38
-39
-39
-39
-38
-38
-37
-36
-35
-34
-34
-33
-31
-30
-29
-27
-26
-24
-23
-22
-21
-20
-20
-19
-18
-17
-16
-15
-14
-14
-14
-13
-12
-13
-13
-14
-15
-16
-17
-18
-19
-20
-20
-20
-20
-21
-21
-21
-21
-20
-20
-19
-19
-18
-17
-16
-15
-15
-14
-13
-13
-13
-13
-14
-14
-14
-14
-15
-15
-14
-15
-15
-15
-15
-15
-15
-14
-13
-12
-12
-11
-11
-10
-10
-10
-10
-10
-11
-11
-13
-14
-17
-18
-20
-22
-24
-26
-28
-29
-31
-32
-33
-34
-34
-34
-34
-33
-33
-31
-30
-28
-26
-24
-23
-21
-20
-19
-19
-18
-17
-17
-17
-16
-16
-16
-16
-16
-16
-17
-17
-18
-18
-18
-18
-18
-17
-18
-18
-18
-18
-17
-17
-16
-16
-15
-15
-14
-13
-13
-13
-13
-14
-13
-14
-14
-15
-15
-16
-17
-17
-18
-18
-18
-18
-17
-17
-16
-15
-14
-12
-11
-9
-8
-7
-5
-4
-2
0
2
3
5
6
7
7
8
9
10
11
12
13
14
15
16
17
16
16
15
15
15
15
15
17
17
16
14
13
11
10
10
10
8
8
7
6
5
3
2
1
0
-1
-1
-2
-2
-2
-2
-3
-3
-3
-3
-2
-2
-2
-2
-2
-2
-2
-2
-2
-3
-3
-3
-4
-4
-5
-5
-5
-5
-5
-5
-5
-5
-6
-5
-5
-6
-6
-7
-8
-8
-9
-10
-10
-11
-11
-11
-12
-12
-11
-11
-10
-11
-10
-9
-9
-8
-7
-5
-4
-2
-1
1
2
4
6
8
9
10
10
11
11
11
11
10
10
9
7
6
5
3
2
0
-2
-4
-6
-7
-9
-11
-12
-14
-16
-17
-18
-19
-21
-22
-24
-25
-27
-28
-30
-32
-34
-37
-39
-42
-43
-46
-48
-49
-51
-52
-53
-53
-54
-53
-53
-51
-49
-47
-44
-40
-37
-32
-26
-19
-12
-5
2
10
20
28
38
48
58
67
77
88
97
108
118
129
139
149
158
166
174
180
186
191
195
198
199
200
199
197
195
191
186
180
174
167
159
151
144
136
127
119
112
104
98
91
85
79
74
69
65
61
57
54
50
47
44
42
39
38
36
35
35
34
33
32
31
30
29
28
26
25
24
23
22
20
19
17
16
14
13
11
9
8
5
4
2
1
-1
-3
-5
-6
-6
-7
-8
-9
-9
-9
-9
-9
-8
-7
-6
-5
-3
0
2
4
6
8
9
9
10
11
12
12
12
11
10
9
8
6
4
2
0
-2
-4
-5
-6
-8
-9
-9
-10
-9
-9
-9
-8
-8
-7
-5
-4
-2
0
1
3
4
5
6
6
8
8
9
9
8
8
7
7
7
8
7
8
8
8
9
9
10
10
11
13
14
15
17
18
19
19
19
19
19
18
18
18
18
17
17
17
16
16
15
14
13
13
12
13
14
15
17
18
18
19
19
20
21
21
22
23
24
25
25
26
26
26
27
27
27
27
27
28
28
29
31
32
33
35
37
38
39
40
40
40
39
38
37
36
34
32
32
30
27
25
24
23
21
20
19
19
19
19
19
19
21
21
22
23
23
24
26
27
28
29
31
32
33
35
36
37
39
40
42
43
45
45
46
47
49
50
53
54
57
59
62
64
66
67
70
72
74
76
78
79
81
81
82
83
84
83
83
82
81
79
77
75
75
73
72
71
71
70
69
69
69
68
68
69
69
69
71
72
72
74
75
76
77
79
80
81
82
83
84
85
86
86
87
88
89
90
92
93
94
96
98
100
100
102
103
104
103
104
104
103
101
98
95
92
87
82
78
73
69
65
60
56
52
49
45
43
40
38
36
35
33
33
32
32
32
31
31
30
29
28
27
26
26
23
22
21
20
19
17
15
13
12
11
10
9
8
8
9
9
8
8
9
9
9
10
10
11
11
12
12
13
12
13
13
14
14
15
15
16
16
17
16
17
16
17
17
18
19
20
21
23
24
26
26
28
28
29
29
30
30
31
32
32
33
32
32
31
30
28
27
25
23
21
19
16
14
13
11
10
8
7
7
6
6
6
7
8
9
9
10
11
12
14
15
16
17
19
20
22
23
24
24
25
25
25
25
24
23
22
20
19
17
16
14
12
9
7
4
3
0
-1
-3
-5
-6
-6
-6
-6
-6
-6
-4
-3
-1
1
4
6
9
12
15
18
21
24
27
29
31
32
32
32
31
31
29
27
26
24
22
20
18
16
15
14
13
14
14
15
16
18
20
22
24
27
30
32
33
34
34
34
33
32
30
28
25
21
18
15
11
8
5
2
-1
-4
-5
-7
-7
-8
-8
-6
-6
-5
-4
-3
0
1
3
5
6
8
9
9
10
11
11
12
12
12
12
12
12
13
13
14
15
15
16
17
18
20
21
21
21
21
21
21
21
21
21
21
21
20
19
17
15
13
11
10
8
7
6
6
5
4
3
2
0
-1
-3
-5
-7
-8
-9
-11
-11
-11
-11
-11
-11
-10
-9
-8
-6
-5
-3
-2
-1
1
2
4
6
7
9
10
11
11
12
12
12
12
12
11
10
8
7
6
5
4
2
1
0
-1
-2
-4
-5
-6
-6
-7
-8
-8
-8
-8
-9
-9
-9
-10
-10
-10
-10
-11
-10
-11
-11
-12
-12
-13
-13
-13
-13
-14
-13
-14
-14
-13
-13
-13
-12
-11
-10
-9
-7
-5
-4
-3
-2
0
1
3
4
5
6
7
7
7
7
6
6
6
6
5
4
3
2
1
-1
-3
-4
-6
-8
-9
-10
-12
-13
-14
-15
-17
-18
-20
-22
-23
-25
-27
-28
-29
-31
-32
-32
-33
-33
-33
-33
-34
-34
-34
-35
-35
-35
-36
-36
-36
-37
-37
-38
-38
-37
-37
-37
-37
-37
-38
-38
-38
-37
-37
-36
-35
-35
-34
-33
-32
-31
-30
-29
-28
-28
-27
-26
-25
-25
-24
-25
-25
-25
-25
-25
-25
-26
-27
-27
-27
-28
-29
-29
-29
-30
-29
-29
-29
-29
-29
-30
-30
-29
-28
-27
-26
-25
-24
-24
-23
-23
-22
-22
-22
-21
-21
-21
-20
-20
-20
-21
-20
-21
-22
-22
-22
-23
-24
-24
-25
-26
-26
-26
-27
-27
-27
-27
-27
-26
-25
-24
-23
-22
-20
-19
-18
-17
-15
-14
-14
-13
-13
-12
-12
-12
-12
-13
-13
-13
-13
-14
-14
-15
-16
-17
-18
-19
-20
-20
-21
-22
-22
-22
-23
-23
-23
-23
-23
-23
-22
-22
-22
-21
-21
-20
-20
-19
-19
-19
-19
-19
-20
-20
-20
-20
-20
-20
-20
-21
-20
-20
-20
-20
-20
-19
-19
-19
-18
-18
-18
-17
-17
-16
-16
-17
-16
-16
-16
-17
-18
-19
-20
-21
-23
-25
-26
-28
-31
-32
-34
-37
-38
-38
-40
-41
-42
-42
-43
-44
-44
-43
-43
-43
-43
-42
-41
-41
-40
-40
-39
-39
-39
-39
-38
-38
-38
-38
-38
-38
-38
-38
-38
-38
-38
-38
-38
-38
-38
-38
-39
-40
-39
-39
-39
-40
-40
-40
-40
-41
-41
-42
-43
-45
-46
-48
-51
-53
-56
-58
-62
-66
-69
-72
-76
-80
-83
-87
-91
-93
-95
-97
-98
-100
-100
-100
-100
-98
-96
-94
-91
-88
-83
-79
-75
-69
-63
-57
-50
-42
-35
-26
-18
-9
0
8
18
28
37
48
57
67
77
87
96
104
113
120
125
130
134
136
138
139
139
137
135
131
126
121
115
108
101
94
86
79
71
64
56
49
43
37
33
28
24
19
15
11
7
4
0
-4
-7
-10
-14
-17
-21
-24
-27
-30
-33
-36
-38
-39
-42
-43
-45
-46
-48
-48
-49
-49
-49
-49
-49
-49
-48
-48
-47
-46
-45
-44
-43
-42
-43
-42
-42
-43
-43
-43
-44
-45
-45
-45
-46
-47
-47
-47
-47
-47
-47
-46
-46
-46
-46
-47
-46
-46
-46
-46
-46
-46
-46
-45
-45
-45
-45
-45
-45
-45
-45
-45
-45
-45
-45
-45
-44
-44
-44
-43
-43
-42
-42
-41
-39
-38
-38
-36
-35
-35
-34
-33
-32
-31
-31
-31
-31
-30
-30
-31
-30
-31
-32
-32
-33
-35
-35
-36
-36
-37
-38
-39
-40
-40
-40
-40
-40
-40
-40
-40
-39
-39
-39
-38
-38
-37
-36
-36
-35
-35
-35
-34
-34
-34
-34
-34
-34
-34
-34
-34
-34
-33
-33
-33
-33
-32
-32
-31
-31
-30
-30
-28
-28
-27
-26
-25
-24
-23
-22
-21
-20
-19
-18
-17
-16
-16
-15
-14
-14
-13
-12
-12
-11
-11
-10
-10
-9
-9
-9
-10
-11
-11
-11
-11
-12
-13
-14
-14
-15
-15
-14
-14
-14
-13
-12
-11
-10
-9
-8
-6
-5
-4
-2
-1
0
2
3
4
5
6
7
8
9
9
9
10
10
10
10
10
10
11
11
11
12
12
12
13
14
14
16
17
17
18
19
20
20
22
22
23
23
23
24
24
25
24
24
26
26
26
26
26
26
27
27
28
28
29
28
28
28
28
28
28
28
28
28
28
28
28
29
29
28
28
28
28
28
28
27
27
27
27
27
25
25
24
24
24
24
24
23
23
22
21
21
20
19
18
17
15
14
13
12
10
9
7
5
4
3
1
0
-2
-4
-5
-6
-8
-8
-10
-10
-12
-12
-12
-13
-13
-13
-13
-13
-13
-13
-12
-13
-12
-12
-12
-12
-12
-12
-12
-13
-13
-14
-15
-16
-17
-18
-19
-20
-22
-23
-24
-25
-26
-27
-28
-30
-30
-31
-31
-33
-33
-33
-34
-34
-34
-35
-35
-35
-36
-36
-36
-35
-35
-36
-36
-35
-35
-35
-35
-35
-35
-35
-36
-36
-36
-36
-36
-36
-36
-36
-36
-35
-35
-35
-35
-34
-34
-34
-33
-33
-32
-32
-32
-32
-32
-32
-32
-32
-32
-32
-33
-33
-33
-34
-35
-35
-36
-36
-36
-37
-38
-39
-40
-40
-40
-41
-41
-41
-40
-40
-39
-38
-38
-37
-37
-36
-34
-33
-31
-30
-30
-29
-28
-27
-27
-26
-26
-26
-26
-26
-26
-26
-26
-27
-27
-28
-28
-29
-29
-30
-30
-31
-31
-31
-31
-32
-32
-33
-33
-33
-33
-32
-32
-32
-32
-32
-31
-31
-31
-32
-32
-32
-32
-33
-33
-33
-32
-32
-32
-32
-32
-32
-32
-32
-32
-32
-32
-33
-33
-33
-32
-33
-34
-34
-34
-34
-34
-35
-35
-36
-36
-36
-37
-37
-37
-37
-36
-36
-36
-36
-35
-35
-35
-35
-34
-34
-33
-33
-32
-31
-30
-30
-29
-28
-28
-28
-27
-27
-28
-28
-29
-29
-30
-31
-31
-32
-33
-33
-34
-34
-35
-35
-35
-35
-35
-35
-34
-34
-34
-34
-33
-33
-33
-32
-32
-31
-31
-30
-30
-29
-29
-28
-28
-27
-27
-28
-28
-28
-28
-28
-29
-29
-29
-30
-30
-31
-32
-33
-33
-33
-34
-34
-34
-36
-35
-36
-36
-36
-37
-36
-35
-35
-36
-36
-35
-35
-35
-35
-34
-34
-34
-33
-32
-32
-32
-32
-32
-31
-31
-31
-31
-31
-31
-30
-30
-30
-31
-31
-31
-31
-31
-31
-31
-31
-31
-31
-32
-32
-32
-32
-32
-33
-33
-34
-34
-34
-33
-33
-34
-34
-34
-34
-33
-33
-33
-32
-32
-32
-32
-32
-31
-32
-32
-32
-32
-32
-32
-31
-31
-31
-30
-31
-31
-31
-31
-31
-30
-30
-30
-30
-31
-31
-31
-31
-31
-31
-32
-32
-32
-32
-32
-32
-31
-31
-31
-32
-32
-32
-32
-32
-32
-31
-32
-32
-32
-32
-32
-32
-32
-32
-33
-33
-32
-32
-33
-33
-32
-33
-33
-34
-34
-35
-36
-36
-37
-37
-36
-36
-37
-37
-38
-38
-38
-37
-37
-37
-37
-36
-36
-35
-35
-34
-34
-33
-32
-32
-31
-31
-30
-29
-29
-29
-28
-28
-28
-27
-27
-28
-28
-29
-29
-30
-30
-31
-31
-30
-31
-31
-31
-31
-31
-31
-31
-30
-30
-30
-29
-29
-29
-29
-29
-29
-30
-29
-29
-30
-31
-31
-30
-31
-31
-31
-31
-32
-32
-31
-32
-32
-32
-32
-32
-32
-32
-31
-31
-32
-31
-31
-31
-31
-31
-30
-30
-30
-30
-29
-30
-30
-30
-29
-30
-30
-30
-29
-30
-29
-29
-29
-29
-29
-29
-28
-28
-27
-27
-26
-26
-25
-25
-25
-25
-24
-24
-24
-24
-24
-23
-23
-24
-24
-24
-24
-24
-23
-24
-24
-24
-24
-25
-26
-26
-26
-27
-27
-28
-28
-29
-29
-29
-29
-30
-29
-29
-28
-29
-28
-27
-27
-26
-26
-26
-25
-25
-25
-24
-24
-23
-23
-23
-22
-23
-23
-23
-22
-23
-23
-23
-23
-24
-24
-25
-27
-27
-28
-29
-29
-30
-30
-31
-32
-33
-33
-33
-34
-35
-35
-36
-36
-37
-38
-38
-38
-38
-39
-39
-39
-40
-40
-40
-41
-41
-41
-40
-40
-40
-40
-40
-39
-39
-39
-39
-39
-39
-38
-38
-38
-38
-39
-39
-40
-41
-43
-44
-45
-47
-49
-52
-54
-57
-59
-62
-65
-68
-72
-75
-78
-81
-84
-86
-88
-89
-91
-91
-91
-91
-90
-88
-87
-85
-81
-78
-74
-70
-64
-58
-52
-45
-39
-31
-23
-15
-6
3
13
22
33
43
53
64
75
85
95
105
114
124
131
138
144
149
153
157
159
161
161
160
159
156
152
147
142
135
128
121
113
104
96
88
81
74
67
61
55
48
43
38
32
27
22
17
13
9
5
1
-2
-6
-8
-11
-14
-16
-19
-21
-23
-24
-26
-27
-28
-29
-30
-30
-31
-31
-31
-31
-31
-31
-31
-31
-31
-31
-31
-31
-31
-31
-31
-32
-32
-32
-32
-32
-33
-34
-35
-35
-35
-36
-36
-36
-36
-36
-36
-36
-36
-36
-36
-36
-36
-36
-36
-36
-36
-36
-36
-36
-34
-34
-34
-34
-33
-33
-34
-33
-33
-32
-32
-31
-31
-30
-30
-30
-30
-30
-30
-31
-31
-31
-31
-31
-32
-32
-32
-32
-33
-33
-33
-33
-33
-32
-32
-32
-32
-32
-32
-32
-31
-31
-31
-31
-31
-31
-31
-31
-30
-30
-31
-30
-30
-30
-29
-29
-29
-29
-29
-29
-27
-27
-27
-27
-26
-26
-25
-25
-24
-24
-23
-23
-22
-21
-21
-21
-21
-21
-21
-21
-20
-21
-21
-22
-22
-22
-22
-21
-22
-22
-22
-22
-22
-21
-21
-21
-21
-21
-20
-20
-19
-18
-18
-17
-17
-16
-16
-15
-15
-14
-13
-13
-13
-12
-12
-12
-11
-11
-11
-12
-11
-11
-11
-12
-11
-11
-10
-10
-10
-9
-8
-7
-7
-5
-4
-4
-3
-3
-1
-1
0
1
2
2
4
4
5
6
6
7
9
9
10
11
11
12
13
14
14
14
15
15
16
16
17
17
19
19
20
21
21
22
23
23
24
25
25
27
27
29
29
30
32
32
34
35
36
37
39
40
41
42
44
44
45
45
45
46
46
46
45
45
45
45
44
43
43
42
41
40
40
39
38
37
37
36
35
33
32
31
30
29
29
28
27
27
25
25
24
23
22
21
20
19
19
18
16
15
14
12
12
10
9
8
6
6
4
4
3
3
2
1
0
0
-1
-1
-2
-2
-3
-4
-4
-5
-6
-6
-8
-8
-9
-10
-10
-12
-12
-14
-15
-16
-16
-17
-19
-19
-20
-21
-22
-23
-24
-24
-25
-26
-26
-26
-26
-26
-26
-27
-27
-26
-26
-26
-26
-26
-26
-25
-25
-25
-25
-25
-25
-25
-25
-25
-26
-26
-25
-25
-25
-25
-26
-26
-26
-26
-26
-26
-25
-26
-26
-25
-25
-25
-26
-26
-25
-25
-25
-25
-25
-25
-25
-25
-25
-26
-26
-25
-25
-25
-25
-25
-25
-25
-24
-24
-24
-24
-23
-23
-24
-24
-23
-23
-24
-24
-24
-24
-23
-23
-23
-24
-24
-24
-24
-24
-24
-24
-25
-25
-25
-24
-24
-24
-24
-24
-24
-23
-23
-23
-23
-24
-24
-24
-24
-24
-24
-24
-24
-24
-24
-24
-25
-25
-26
-27
-27
-27
-27
-27
-27
-28
-28
-28
-28
-28
-28
-28
-28
-28
-27
-26
-26
-25
-25
-25
-25
-25
-24
-24
-24
-24
-24
-24
-23
-23
-23
-23
-22
-22
-22
-22
-22
-22
-22
-22
-22
-23
-23
-23
-24
-24
-25
-25
-25
-25
-26
-26
-26
-26
-26
-26
-26
-26
-26
-26
-26
-26
-27
-27
-26
-26
-26
-26
-25
-25
-25
-25
-25
-24
-24
-24
-23
-23
-23
-23
-23
-23
-23
-23
-23
-24
-24
-24
-24
-24
-25
-25
-25
-25
-25
-25
-27
-27
-27
-28
-28
-27
-28
-28
-28
-28
-28
-28
-28
-28
-27
-27
-26
-26
-26
-25
-24
-24
-24
-24
-24
-24
-25
-25
-25
-25
-26
-26
-26
-26
-26
-26
-26
-26
-26
-26
-26
-26
-26
-27
-27
-27
-27
-27
-28
-28
-28
-27
-27
-27
-26
-26
-26
-26
-25
-25
-24
-24
-24
-23
-23
-23
-22
-23
-23
-22
-22
-22
-22
-22
-22
-21
-21
-21
-20
-21
-21
-20
-20
-19
-19
-20
-20
-20
-20
-20
-20
-20
-20
-20
-21
-21
-21
-21
-22
-22
-23
-23
-24
-24
-25
-25
-25
-25
-25
-26
-26
-26
-26
-26
-26
-26
-25
-24
-24
-23
-22
-22
-21
-21
-21
-20
-20
-19
-18
-18
-18
-18
-18
-18
-18
-18
-19
-19
-20
-21
-21
-22
-22
-23
-23
-24
-25
-25
-26
-25
-26
-26
-26
-26
-26
-27
-26
-26
-26
-25
-25
-25
-25
-24
-24
-24
-24
-24
-24
-24
-24
-23
-23
-23
-23
-23
-23
-22
-22
-22
-22
-22
-22
-22
-23
-23
-23
-23
-23
-22
-22
-22
-22
-22
-21
-22
-21
-21
-21
-21
-21
-21
-21
-21
-21
-21
-21
-20
-21
-21
-21
-21
-21
-21
-21
-21
-20
-19
-19
-19
-19
-19
-18
-19
-19
-18
-19
-19
-20
-20
-20
-21
-20
-21
-21
-22
-22
-21
-22
-22
-22
-23
-22
-22
-22
-22
-21
-21
-21
-20
-20
-19
-18
-17
-16
-15
-14
-13
-12
-11
-10
-9
-9
-9
-9
-9
-9
-9
-9
-9
-9
-9
-10
-10
-11
-11
-11
-12
-13
-13
-13
-14
-14
-15
-15
-16
-17
-17
-17
-17
-17
-17
-17
-17
-17
-16
-16
-16
-15
-15
-15
-14
-14
-13
-13
-12
-11
-10
-9
-9
-8
-7
-7
-6
-6
-6
-5
-5
-5
-5
-5
-5
-6
-6
-7
-8
-9
-10
-11
-13
-14
-14
-15
-16
-17
-18
-18
-18
-19
-20
-20
-20
-20
-20
-20
-21
-21
-21
-20
-21
-21
-19
-19
-19
-20
-20
-19
-19
-19
-19
-19
-19
-19
-20
-20
-20
-21
-21
-21
-21
-21
-21
-21
-21
-21
-20
-21
-21
-21
-20
-20
-20
-20
-20
-20
-21
-21
-22
-22
-23
-25
-26
-28
-30
-32
-35
-37
-40
-43
-46
-49
-53
-57
-61
-64
-67
-71
-73
-74
-77
-78
-79
-78
-77
-76
-74
-72
-69
-64
-59
-54
-47
-40
-33
-25
-17
-8
2
12
21
32
43
53
66
77
89
101
114
126
137
147
157
166
173
179
184
188
191
192
193
192
190
187
184
179
172
166
158
150
142
134
126
118
109
101
94
87
81
75
69
64
59
54
50
44
41
38
33
30
27
24
21
17
15
12
9
7
4
2
1
-1
-3
-4
-5
-6
-7
-8
-8
-9
-9
-9
-10
-10
-10
-10
-10
-10
-10
-10
-10
-10
-10
-10
-11
-11
-11
-11
-11
-11
-12
-12
-12
-13
-13
-14
-15
-16
-17
-17
-18
-18
-19
-18
-18
-18
-19
-19
-17
-17
-16
-16
-15
-15
-14
-13
-12
-12
-10
-9
-9
-8
-7
-6
-6
-5
-5
-4
-4
-4
-4
-4
-4
-4
-4
-4
-4
-4
-4
-4
-5
-5
-4
-4
-4
-2
-3
-2
-1
-1
-1
0
0
0
0
0
0
0
0
-1
-1
-1
-2
-2
-2
-2
-2
-2
-2
-2
-2
-2
-2
-2
-2
-2
-2
-1
-1
-1
-1
-1
0
0
0
0
0
1
1
1
1
2
2
2
3
3
3
3
3
4
4
5
5
6
6
7
8
9
9
10
10
11
13
14
14
15
15
16
16
17
17
18
18
18
18
19
19
20
20
20
21
21
22
23
23
23
24
23
24
24
24
25
25
26
26
27
28
29
29
29
30
32
32
33
34
35
35
36
37
39
39
40
41
42
43
44
44
45
46
47
47
48
49
49
49
50
50
50
50
50
51
51
52
52
53
54
55
56
57
57
58
59
60
61
62
62
64
64
65
66
66
68
68
68
68
68
69
69
70
69
69
69
69
69
69
69
69
68
68
68
68
68
68
68
68
68
67
67
67
67
67
67
67
65
65
64
63
62
62
60
59
58
57
56
55
53
52
51
49
48
47
46
43
42
41
39
37
35
34
32
30
29
27
26
25
23
22
21
20
19
17
17
15
15
14
13
12
11
11
10
10
9
8
8
9
8
8
8
8
8
7
8
7
7
7
7
7
7
5
5
5
5
4
3
3
3
2
2
2
2
1
1
1
1
1
1
1
1
1
1
1
1
1
1
1
2
2
2
2
2
3
3
4
4
4
4
4
5
5
6
6
6
6
6
6
6
6
6
5
4
4
4
4
4
4
3
3
2
2
0
0
0
-1
-1
-1
0
0
0
0
0
1
2
2
2
3
3
3
3
3
3
3
3
4
4
3
3
3
2
1
1
1
-1
0
-1
-2
-2
-3
-3
-4
-4
-4
-3
-3
-3
-3
-2
-3
-2
-2
-1
-1
0
0
1
1
1
0
0
0
0
0
-1
-1
-1
-2
-2
-2
-2
-2
-2
-2
-1
-2
-2
-2
-1
-1
-1
-1
-1
-1
-1
0
0
0
1
1
2
2
2
2
3
3
2
2
2
1
1
1
1
0
0
0
0
0
0
0
1
1
1
1
0
1
1
1
1
1
1
0
0
0
-1
-1
-1
-1
-1
-1
0
-1
-2
-1
-1
-1
-1
-2
-2
-2
-2
-3
-3
-3
-2
-2
-3
-3
-3
-3
-2
-2
-2
-2
-2
-1
0
0
1
1
1
1
2
2
2
2
3
3
3
4
3
3
2
2
2
1
1
1
1
0
-1
-1
-1
-2
-2
-2
-2
-2
-2
-2
-2
-1
-1
-1
-1
-1
-1
-1
-1
-1
-2
-2
-3
-3
-3
-4
-4
-4
-4
-3
-3
-4
-4
-3
-3
-3
-2
-2
-2
-2
-2
-1
-1
0
0
1
1
2
2
3
4
4
4
5
5
5
5
6
6
5
5
5
4
4
3
3
3
2
2
2
2
2
1
1
0
-1
-1
-1
-2
-1
-2
-3
-3
-4
-4
-4
-4
-4
-4
-4
-3
-3
-3
-4
-3
-3
-3
-3
-2
-2
-2
-2
-1
-1
-1
-1
0
0
1
1
2
2
2
2
2
2
2
3
3
2
1
1
1
0
-1
0
-1
-1
-2
-3
-3
-4
-4
-5
-5
-6
-6
-6
-6
-6
-6
-6
-5
-5
-5
-4
-4
-4
-3
-2
-1
-1
0
0
1
1
1
1
1
1
1
1
1
1
1
1
1
1
1
1
2
2
1
2
2
2
2
1
1
2
1
0
0
0
0
-1
-1
0
-1
-1
-1
-2
-1
-1
-2
