# Simple Text Format
# Sampling Rate (Hz):= 1200.00
# Resolution:= 12
# Labels:= ECG	 V2
# Age:=	29
# Gender:=	Masculino
-208
-208
-207
-207
-206
-206
-205
-205
-204
-204
-203
-203
-203
-203
-202
-201
-201
-201
-201
-200
-200
-200
-199
-199
-198
-198
-197
-196
-196
-196
-196
-195
-195
-195
-195
-194
-195
-194
-194
-194
-194
-193
-193
-194
-192
-192
-191
-191
-190
-190
-190
-190
-190
-188
-188
-188
-188
-188
-187
-187
-187
-187
-187
-187
-186
-186
-185
-184
-184
-184
-183
-183
-183
-182
-181
-181
-181
-180
-180
-179
-178
-177
-177
-176
-175
-174
-173
-172
-171
-171
-169
-169
-168
-167
-166
-166
-165
-165
-164
-162
-161
-160
-159
-159
-157
-156
-155
-155
-154
-153
-152
-151
-150
-149
-148
-148
-147
-145
-144
-143
-142
-141
-140
-139
-139
-137
-136
-134
-133
-132
-131
-129
-128
-127
-125
-124
-123
-121
-120
-119
-116
-115
-114
-112
-112
-109
-108
-107
-105
-104
-102
-101
-100
-97
-96
-95
-94
-93
-91
-90
-89
-88
-87
-86
-85
-84
-82
-81
-80
-80
-79
-78
-78
-77
-77
-77
-77
-77
-77
-77
-77
-77
-77
-77
-77
-77
-78
-77
-78
-78
-78
-78
-79
-80
-79
-80
-81
-82
-83
-84
-84
-85
-86
-87
-88
-90
-91
-92
-93
-95
-96
-98
-100
-102
-104
-106
-108
-111
-113
-115
-116
-119
-121
-123
-125
-128
-130
-132
-134
-136
-138
-140
-142
-144
-146
-149
-150
-153
-154
-156
-158
-160
-162
-164
-165
-167
-170
-172
-173
-175
-176
-179
-181
-183
-185
-187
-189
-191
-193
-195
-197
-199
-200
-201
-204
-205
-206
-206
-208
-209
-210
-211
-212
-213
-214
-215
-216
-217
-217
-218
-219
-220
-220
-221
-222
-222
-222
-223
-223
-224
-225
-225
-226
-226
-227
-227
-228
-228
-229
-229
-229
-230
-230
-231
-231
-230
-231
-231
-231
-232
-231
-231
-232
-232
-232
-233
-233
-232
-233
-233
-233
-233
-233
-233
-233
-233
-233
-233
-233
-233
-233
-233
-233
-233
-233
-233
-233
-234
-234
-234
-233
-233
-233
-232
-232
-232
-231
-232
-232
-231
-231
-231
-230
-230
-230
-230
-230
-230
-230
-230
-230
-230
-229
-229
-229
-228
-229
-228
-228
-228
-227
-227
-227
-227
-227
-227
-227
-226
-226
-226
-226
-226
-226
-225
-225
-225
-224
-224
-224
-224
-223
-224
-224
-224
-224
-224
-224
-224
-224
-224
-225
-225
-225
-225
-225
-224
-224
-224
-224
-224
-223
-224
-224
-224
-224
-224
-224
-224
-223
-223
-223
-222
-222
-222
-221
-221
-220
-220
-220
-220
-219
-219
-219
-219
-219
-220
-219
-220
-220
-221
-220
-220
-222
-222
-222
-222
-223
-223
-223
-223
-224
-224
-225
-225
-225
-226
-226
-227
-227
-227
-227
-227
-227
-227
-227
-226
-226
-226
-226
-226
-226
-225
-225
-226
-225
-225
-226
-226
-227
-227
-227
-228
-228
-228
-228
-228
-228
-228
-229
-228
-229
-229
-230
-230
-230
-231
-231
-232
-232
-232
-233
-234
-234
-234
-234
-234
-235
-235
-235
-236
-236
-236
-236
-236
-235
-235
-236
-236
-237
-237
-237
-237
-237
-237
-237
-236
-236
-236
-236
-236
-236
-236
-236
-236
-236
-236
-235
-236
-236
-236
-235
-235
-235
-235
-234
-234
-234
-234
-234
-233
-233
-233
-233
-234
-234
-234
-235
-234
-234
-235
-235
-236
-236
-235
-236
-236
-236
-236
-236
-236
-236
-236
-236
-236
-236
-236
-237
-236
-236
-237
-237
-237
-236
-237
-237
-237
-238
-237
-237
-237
-238
-238
-238
-238
-239
-239
-240
-240
-240
-240
-240
-240
-240
-241
-240
-240
-240
-239
-239
-239
-239
-239
-239
-239
-238
-238
-239
-239
-239
-239
-238
-238
-238
-238
-238
-238
-238
-237
-237
-237
-237
-238
-238
-238
-238
-238
-238
-239
-239
-239
-239
-239
-239
-239
-239
-239
-239
-238
-238
-238
-238
-238
-237
-237
-237
-237
-236
-236
-236
-236
-237
-237
-237
-237
-237
-237
-237
-236
-236
-236
-237
-237
-237
-237
-237
-237
-238
-238
-238
-238
-238
-237
-237
-237
-237
-238
-238
-237
-237
-237
-237
-237
-237
-237
-237
-237
-238
-238
-237
-237
-238
-238
-238
-238
-238
-239
-238
-238
-239
-239
-239
-239
-239
-239
-240
-240
-240
-240
-240
-240
-240
-241
-240
-241
-241
-241
-240
-239
-239
-239
-239
-238
-238
-238
-238
-238
-238
-238
-237
-237
-237
-236
-236
-236
-235
-235
-235
-234
-233
-233
-233
-232
-232
-231
-231
-230
-230
-230
-230
-229
-229
-229
-229
-228
-228
-228
-227
-227
-227
-227
-227
-227
-227
-227
-227
-228
-228
-228
-228
-229
-229
-230
-230
-230
-230
-230
-231
-231
-231
-231
-231
-231
-231
-232
-232
-233
-233
-234
-234
-235
-235
-235
-235
-235
-236
-236
-236
-236
-237
-237
-236
-237
-237
-237
-237
-238
-239
-239
-239
-239
-239
-239
-239
-239
-239
-239
-239
-240
-240
-239
-239
-239
-239
-239
-239
-240
-240
-239
-239
-240
-240
-240
-240
-240
-241
-241
-241
-240
-241
-241
-241
-241
-240
-242
-241
-241
-241
-241
-241
-241
-241
-241
-240
-240
-240
-240
-240
-239
-239
-239
-239
-238
-238
-238
-239
-239
-239
-239
-239
-239
-239
-240
-240
-239
-239
-239
-239
-238
-239
-239
-239
-239
-238
-238
-238
-238
-238
-237
-237
-237
-237
-236
-236
-235
-233
-231
-229
-226
-223
-220
-216
-212
-208
-204
-199
-194
-188
-183
-177
-171
-164
-158
-151
-144
-135
-128
-120
-112
-104
-97
-88
-81
-75
-68
-61
-55
-50
-46
-43
-41
-41
-42
-45
-49
-55
-62
-71
-80
-92
-105
-120
-136
-153
-173
-193
-215
-236
-259
-283
-306
-329
-352
-374
-395
-415
-434
-451
-467
-481
-493
-503
-511
-518
-521
-523
-522
-519
-515
-509
-500
-490
-478
-465
-451
-438
-423
-408
-393
-377
-364
-349
-335
-323
-311
-299
-288
-278
-269
-261
-253
-246
-240
-234
-229
-226
-222
-219
-216
-214
-212
-210
-209
-208
-207
-207
-206
-206
-205
-204
-205
-204
-204
-204
-203
-203
-202
-202
-201
-202
-201
-201
-201
-201
-200
-200
-200
-200
-200
-200
-199
-199
-199
-199
-199
-198
-198
-197
-197
-196
-195
-194
-194
-194
-192
-192
-192
-191
-190
-190
-190
-189
-188
-188
-187
-187
-187
-186
-187
-186
-186
-185
-186
-185
-185
-185
-185
-185
-184
-184
-184
-184
-184
-184
-184
-183
-183
-183
-182
-181
-181
-180
-180
-179
-179
-179
-178
-178
-178
-178
-177
-177
-177
-178
-177
-176
-176
-176
-176
-175
-175
-175
-174
-174
-173
-174
-174
-173
-172
-172
-172
-171
-171
-171
-170
-170
-169
-168
-166
-166
-165
-164
-163
-163
-162
-161
-160
-160
-159
-159
-158
-158
-156
-156
-156
-155
-154
-154
-153
-153
-152
-151
-151
-150
-149
-148
-148
-147
-146
-146
-145
-144
-143
-142
-141
-140
-139
-138
-137
-136
-135
-133
-132
-131
-129
-128
-127
-126
-124
-123
-122
-120
-119
-117
-117
-115
-114
-112
-109
-109
-107
-106
-103
-102
-101
-99
-98
-96
-95
-94
-93
-91
-90
-89
-87
-86
-85
-83
-83
-81
-80
-79
-78
-78
-76
-75
-74
-74
-73
-72
-72
-71
-71
-70
-70
-69
-69
-68
-68
-67
-67
-67
-67
-67
-67
-67
-67
-67
-68
-69
-69
-69
-69
-71
-71
-72
-73
-73
-74
-75
-76
-77
-79
-80
-81
-83
-84
-85
-87
-89
-91
-92
-94
-96
-97
-98
-100
-102
-104
-106
-108
-110
-111
-112
-115
-117
-119
-122
-124
-126
-128
-131
-133
-136
-138
-140
-142
-144
-146
-149
-151
-153
-155
-158
-160
-162
-164
-166
-168
-170
-172
-174
-176
-178
-180
-180
-182
-183
-185
-186
-187
-188
-189
-190
-191
-193
-193
-194
-195
-197
-198
-199
-200
-201
-202
-203
-204
-205
-206
-206
-208
-209
-210
-211
-211
-213
-213
-214
-215
-215
-216
-217
-218
-218
-218
-218
-219
-220
-220
-220
-221
-221
-220
-220
-222
-222
-222
-222
-223
-222
-223
-223
-222
-223
-223
-222
-222
-222
-223
-222
-222
-222
-222
-222
-221
-221
-221
-221
-221
-220
-220
-220
-220
-220
-220
-220
-219
-219
-219
-218
-218
-219
-218
-218
-218
-218
-218
-218
-218
-218
-218
-219
-218
-218
-218
-219
-218
-218
-218
-217
-218
-218
-217
-217
-216
-216
-216
-216
-216
-216
-216
-216
-216
-215
-215
-215
-214
-214
-213
-213
-213
-213
-212
-213
-213
-212
-212
-212
-212
-212
-212
-212
-212
-213
-212
-212
-212
-212
-212
-211
-211
-211
-211
-210
-210
-210
-210
-210
-210
-210
-210
-210
-209
-209
-209
-209
-209
-209
-209
-208
-208
-208
-208
-208
-208
-208
-208
-208
-209
-209
-209
-209
-210
-210
-210
-210
-210
-211
-210
-210
-210
-210
-210
-211
-211
-212
-211
-211
-212
-212
-212
-212
-212
-212
-212
-212
-212
-211
-211
-211
-211
-211
-211
-211
-211
-211
-211
-212
-212
-213
-213
-213
-213
-213
-215
-215
-215
-214
-214
-215
-215
-215
-215
-215
-216
-216
-216
-217
-216
-216
-217
-218
-218
-217
-217
-218
-217
-218
-217
-217
-217
-217
-217
-216
-216
-216
-218
-217
-217
-217
-218
-218
-217
-217
-217
-217
-217
-217
-217
-217
-217
-217
-217
-217
-217
-217
-217
-217
-218
-218
-218
-218
-219
-219
-219
-219
-219
-220
-220
-219
-219
-220
-220
-220
-220
-220
-220
-221
-221
-221
-221
-221
-221
-221
-220
-220
-220
-220
-220
-219
-219
-219
-220
-220
-220
-220
-220
-220
-221
-221
-221
-221
-222
-222
-223
-222
-222
-222
-222
-221
-221
-221
-221
-221
-221
-221
-221
-221
-222
-222
-222
-222
-222
-222
-222
-221
-221
-221
-221
-221
-220
-220
-220
-220
-220
-220
-220
-220
-219
-220
-220
-220
-220
-219
-219
-219
-219
-219
-219
-220
-220
-220
-220
-220
-220
-220
-220
-220
-220
-221
-221
-221
-221
-221
-222
-222
-222
-222
-223
-222
-222
-222
-222
-222
-222
-222
-222
-222
-222
-221
-221
-221
-221
-221
-221
-221
-221
-221
-219
-220
-220
-220
-219
-219
-219
-219
-219
-219
-219
-219
-219
-220
-220
-220
-220
-220
-220
-220
-220
-220
-220
-220
-219
-220
-220
-220
-220
-221
-221
-221
-221
-221
-221
-221
-221
-221
-221
-221
-220
-220
-220
-219
-219
-218
-218
-218
-218
-218
-218
-217
-217
-217
-217
-217
-217
-217
-217
-217
-217
-217
-216
-216
-217
-217
-217
-217
-217
-218
-218
-218
-219
-220
-220
-220
-220
-220
-220
-220
-221
-220
-220
-220
-220
-219
-220
-219
-219
-219
-220
-220
-220
-219
-219
-219
-220
-219
-218
-218
-218
-219
-218
-218
-218
-218
-218
-218
-218
-217
-217
-217
-217
-217
-216
-216
-216
-216
-215
-214
-214
-214
-213
-213
-213
-212
-211
-211
-212
-212
-211
-211
-210
-210
-210
-210
-209
-209
-208
-208
-207
-206
-206
-206
-206
-205
-205
-204
-205
-205
-205
-205
-205
-205
-205
-206
-206
-206
-206
-207
-207
-207
-207
-207
-208
-209
-209
-209
-210
-210
-211
-211
-211
-212
-212
-213
-213
-213
-214
-214
-214
-215
-215
-215
-215
-215
-215
-216
-217
-217
-217
-218
-218
-219
-219
-219
-219
-220
-220
-220
-220
-220
-220
-221
-221
-220
-220
-221
-222
-222
-223
-223
-223
-223
-224
-223
-223
-223
-223
-224
-224
-223
-223
-223
-223
-223
-223
-223
-223
-223
-223
-222
-222
-222
-222
-223
-222
-222
-222
-221
-221
-221
-222
-222
-221
-221
-221
-221
-222
-222
-222
-222
-223
-223
-222
-222
-222
-222
-222
-222
-222
-221
-221
-221
-221
-220
-221
-220
-220
-220
-220
-221
-221
-221
-221
-220
-220
-219
-219
-218
-218
-216
-214
-213
-211
-208
-204
-201
-198
-194
-189
-184
-179
-174
-169
-162
-156
-149
-142
-135
-128
-120
-112
-103
-96
-87
-79
-72
-64
-57
-50
-44
-38
-32
-28
-25
-22
-21
-23
-25
-30
-36
-44
-53
-64
-76
-91
-107
-125
-145
-165
-187
-210
-234
-258
-283
-308
-333
-357
-380
-403
-424
-444
-463
-479
-494
-507
-518
-526
-532
-537
-539
-538
-536
-532
-525
-516
-506
-493
-481
-466
-451
-436
-420
-404
-388
-373
-358
-342
-329
-315
-302
-290
-278
-269
-258
-249
-242
-234
-228
-222
-216
-212
-209
-205
-203
-201
-200
-198
-197
-196
-196
-196
-196
-196
-195
-195
-194
-195
-194
-194
-194
-193
-192
-192
-191
-190
-189
-188
-188
-187
-186
-186
-184
-184
-183
-182
-181
-181
-180
-179
-179
-178
-177
-177
-176
-176
-175
-175
-176
-176
-175
-175
-175
-175
-175
-175
-175
-174
-174
-173
-173
-173
-173
-172
-172
-172
-171
-171
-171
-170
-170
-170
-170
-169
-169
-169
-168
-168
-168
-167
-167
-166
-166
-166
-166
-166
-165
-164
-165
-165
-164
-164
-164
-163
-163
-163
-162
-162
-162
-162
-161
-161
-161
-160
-159
-159
-158
-158
-158
-157
-157
-157
-156
-156
-156
-155
-154
-154
-153
-152
-152
-151
-150
-150
-149
-148
-148
-147
-147
-147
-146
-146
-145
-145
-145
-143
-143
-143
-142
-141
-140
-139
-138
-137
-136
-135
-134
-134
-133
-132
-132
-131
-130
-129
-128
-127
-126
-125
-124
-123
-122
-120
-119
-118
-117
-116
-114
-113
-112
-111
-110
-109
-108
-107
-105
-104
-103
-102
-100
-99
-97
-95
-94
-92
-90
-90
-88
-86
-86
-83
-82
-81
-79
-78
-77
-76
-74
-73
-71
-70
-70
-68
-67
-66
-64
-63
-62
-61
-61
-60
-58
-58
-57
-56
-55
-54
-53
-53
-53
-52
-51
-51
-50
-50
-50
-49
-49
-49
-49
-49
-49
-50
-50
-50
-50
-50
-50
-51
-52
-52
-53
-54
-54
-56
-56
-57
-58
-60
-61
-62
-63
-65
-65
-67
-69
-70
-71
-73
-75
-76
-78
-80
-82
-84
-86
-88
-90
-92
-95
-97
-100
-102
-105
-107
-110
-112
-115
-117
-119
-121
-123
-125
-128
-130
-132
-134
-136
-138
-140
-142
-145
-146
-148
-150
-152
-153
-155
-156
-158
-159
-161
-162
-164
-165
-167
-168
-169
-171
-173
-174
-176
-178
-179
-180
-181
-183
-184
-185
-187
-188
-188
-190
-190
-191
-192
-193
-194
-194
-195
-196
-196
-197
-197
-198
-198
-199
-199
-199
-199
-200
-200
-200
-200
-200
-201
-201
-202
-202
-202
-203
-202
-203
-203
-203
-204
-204
-204
-204
-205
-206
-205
-205
-205
-205
-205
-205
-205
-206
-206
-206
-207
-207
-207
-207
-208
-208
-208
-208
-207
-207
-207
-208
-207
-207
-207
-207
-207
-207
-207
-207
-207
-207
-207
-207
-207
-207
-206
-206
-207
-207
-206
-206
-206
-206
-206
-205
-205
-205
-205
-205
-205
-205
-205
-204
-205
-204
-204
-204
-204
-203
-203
-202
-202
-202
-201
-201
-201
-200
-200
-199
-200
-200
-200
-199
-199
-199
-199
-198
-198
-198
-198
-198
-198
-197
-197
-197
-197
-197
-197
-197
-197
-197
-197
-197
-196
-196
-196
-196
-196
-197
-196
-196
-196
-196
-196
-196
-196
-196
-196
-196
-197
-196
-196
-196
-197
-197
-197
-197
-197
-196
-196
-196
-195
-195
-195
-195
-195
-195
-195
-194
-195
-195
-195
-196
-196
-196
-196
-196
-197
-197
-196
-196
-196
-197
-197
-198
-198
-198
-199
-199
-199
-200
-200
-200
-201
-201
-201
-201
-201
-201
-202
-202
-202
-202
-202
-202
-202
-203
-203
-203
-203
-203
-203
-203
-204
-204
-204
-204
-204
-204
-204
-203
-203
-203
-203
-203
-203
-203
-203
-203
-204
-204
-204
-204
-204
-204
-204
-205
-204
-204
-205
-205
-205
-206
-205
-206
-206
-207
-207
-207
-207
-208
-208
-208
-208
-209
-209
-209
-209
-209
-208
-208
-208
-207
-207
-208
-207
-207
-207
-207
-208
-207
-207
-207
-208
-207
-207
-207
-207
-207
-208
-207
-207
-207
-207
-207
-207
-207
-207
-208
-208
-208
-208
-208
-209
-209
-209
-209
-209
-210
-209
-209
-209
-209
-209
-209
-209
-209
-209
-210
-210
-210
-210
-210
-211
-211
-211
-211
-210
-210
-210
-210
-210
-209
-209
-209
-209
-209
-209
-209
-209
-209
-209
-209
-209
-210
-210
-210
-210
-210
-209
-209
-209
-209
-210
-210
-210
-210
-210
-211
-211
-211
-211
-212
-212
-212
-212
-212
-212
-212
-211
-211
-211
-211
-212
-212
-212
-211
-211
-211
-211
-212
-212
-212
-211
-211
-211
-211
-211
-211
-211
-211
-211
-211
-211
-211
-211
-211
-211
-211
-211
-211
-211
-212
-212
-212
-212
-212
-212
-212
-212
-212
-212
-212
-212
-212
-212
-212
-213
-213
-213
-213
-214
-213
-213
-213
-213
-213
-212
-212
-211
-212
-212
-212
-212
-211
-211
-212
-212
-212
-211
-211
-211
-211
-211
-211
-211
-211
-211
-211
-210
-210
-210
-210
-209
-209
-209
-209
-209
-209
-210
-210
-210
-210
-210
-210
-210
-210
-210
-210
-210
-209
-209
-209
-209
-210
-210
-209
-209
-209
-210
-210
-210
-210
-210
-210
-210
-210
-210
-211
-211
-210
-210
-210
-211
-211
-211
-211
-211
-211
-211
-211
-211
-211
-210
-210
-210
-210
-210
-209
-210
-209
-208
-208
-208
-208
-208
-208
-208
-208
-209
-209
-209
-209
-210
-210
-210
-211
-211
-211
-212
-211
-211
-211
-212
-212
-213
-213
-213
-213
-214
-214
-214
-214
-214
-214
-214
-214
-213
-212
-213
-213
-211
-211
-211
-211
-211
-211
-210
-210
-210
-209
-209
-209
-208
-209
-209
-208
-208
-208
-207
-207
-206
-206
-206
-206
-204
-204
-204
-204
-203
-202
-202
-202
-200
-200
-199
-198
-198
-197
-196
-195
-195
-194
-194
-193
-192
-192
-192
-193
-192
-192
-191
-191
-191
-192
-192
-192
-193
-193
-193
-193
-193
-193
-193
-194
-195
-195
-196
-196
-197
-198
-198
-199
-200
-200
-201
-202
-202
-202
-203
-203
-203
-203
-204
-204
-204
-205
-205
-205
-205
-206
-206
-207
-207
-207
-207
-207
-208
-208
-207
-208
-208
-208
-208
-208
-208
-209
-209
-209
-210
-209
-210
-210
-210
-210
-210
-209
-210
-209
-209
-210
-209
-210
-209
-208
-208
-208
-209
-209
-209
-209
-210
-210
-209
-209
-210
-210
-210
-210
-210
-209
-209
-209
-209
-210
-210
-209
-209
-209
-209
-209
-209
-209
-208
-208
-208
-208
-208
-207
-207
-206
-206
-206
-206
-206
-206
-206
-206
-205
-205
-205
-206
-205
-206
-206
-206
-206
-206
-206
-206
-206
-206
-205
-204
-204
-201
-200
-198
-195
-193
-189
-186
-182
-177
-173
-167
-162
-156
-150
-143
-136
-129
-120
-113
-105
-96
-88
-80
-72
-64
-56
-49
-42
-35
-28
-24
-20
-15
-12
-12
-11
-12
-15
-20
-26
-35
-44
-57
-70
-85
-102
-120
-139
-160
-183
-205
-229
-253
-278
-302
-326
-350
-374
-396
-416
-435
-453
-470
-484
-497
-506
-515
-520
-523
-524
-524
-521
-516
-509
-500
-488
-476
-463
-449
-434
-418
-404
-388
-372
-358
-342
-328
-315
-301
-288
-276
-265
-254
-244
-235
-226
-219
-212
-206
-201
-197
-193
-189
-186
-185
-183
-182
-180
-179
-179
-178
-178
-177
-176
-177
-176
-176
-176
-175
-175
-175
-174
-174
-173
-173
-173
-173
-172
-172
-171
-171
-170
-170
-169
-169
-169
-168
-168
-167
-167
-166
-165
-165
-164
-164
-164
-163
-163
-163
-163
-162
-161
-161
-160
-160
-159
-159
-158
-158
-157
-158
-158
-157
-157
-156
-156
-156
-156
-156
-156
-156
-155
-155
-154
-154
-154
-154
-154
-153
-153
-152
-152
-152
-153
-151
-152
-151
-151
-151
-151
-151
-150
-150
-149
-149
-148
-148
-147
-148
-147
-147
-147
-146
-146
-146
-146
-146
-145
-144
-144
-143
-143
-142
-141
-140
-139
-138
-138
-137
-137
-136
-135
-134
-133
-133
-132
-132
-131
-130
-130
-129
-128
-127
-126
-126
-125
-124
-123
-122
-121
-120
-119
-119
-118
-117
-116
-115
-115
-114
-113
-113
-112
-110
-110
-109
-108
-108
-107
-106
-104
-104
-103
-102
-101
-100
-99
-98
-97
-96
-95
-93
-91
-91
-90
-88
-87
-85
-83
-82
-80
-79
-78
-76
-75
-74
-73
-71
-70
-68
-67
-65
-64
-62
-62
-59
-59
-57
-57
-55
-54
-53
-52
-51
-50
-49
-48
-46
-45
-44
-44
-42
-41
-40
-39
-37
-37
-36
-35
-34
-34
-33
-32
-32
-31
-31
-31
-30
-30
-31
-30
-30
-31
-31
-31
-31
-32
-32
-32
-32
-34
-34
-35
-36
-37
-38
-39
-40
-41
-43
-43
-45
-46
-47
-48
-49
-50
-52
-54
-55
-57
-59
-61
-63
-65
-67
-70
-72
-74
-77
-79
-81
-83
-87
-89
-91
-93
-96
-97
-100
-102
-104
-107
-109
-111
-113
-115
-118
-120
-123
-124
-126
-128
-130
-132
-134
-136
-138
-140
-141
-143
-144
-146
-148
-150
-151
-152
-154
-155
-156
-158
-158
-159
-161
-162
-163
-164
-164
-165
-166
-168
-168
-168
-170
-171
-172
-173
-174
-174
-175
-177
-177
-177
-178
-178
-179
-179
-180
-181
-181
-181
-182
-182
-183
-183
-183
-184
-184
-185
-185
-186
-186
-186
-186
-186
-186
-187
-187
-187
-187
-187
-187
-187
-187
-187
-187
-187
-188
-188
-188
-188
-188
-188
-188
-188
-188
-188
-188
-189
-188
-188
-188
-188
-188
-188
-188
-188
-188
-188
-188
-188
-188
-188
-187
-186
-186
-186
-185
-185
-185
-185
-184
-184
-184
-183
-183
-183
-184
-183
-183
-183
-183
-182
-182
-181
-181
-181
-180
-180
-179
-179
-178
-178
-178
-178
-178
-178
-178
-178
-177
-177
-177
-177
-177
-177
-178
-177
-177
-177
-176
-176
-176
-176
-176
-176
-176
-177
-176
-176
-176
-176
-175
-175
-175
-175
-175
-175
-174
-174
-174
-174
-173
-173
-172
-173
-173
-173
-173
-173
-174
-175
-174
-175
-175
-176
-176
-175
-176
-176
-176
-176
-177
-177
-178
-178
-178
-178
-178
-178
-178
-179
-178
-178
-178
-178
-177
-177
-177
-177
-176
-177
-176
-176
-176
-175
-176
-176
-176
-177
-177
-176
-177
-177
-177
-177
-177
-178
-178
-178
-179
-179
-178
-179
-179
-179
-179
-180
-180
-180
-180
-180
-180
-180
-180
-180
-180
-180
-180
-180
-180
-181
-181
-182
-182
-182
-183
-183
-184
-184
-184
-184
-185
-185
-186
-186
-186
-186
-186
-186
-186
-186
-186
-186
-186
-186
-186
-186
-186
-186
-185
-185
-186
-185
-186
-186
-185
-184
-184
-184
-184
-184
-184
-184
-184
-185
-186
-185
-185
-185
-185
-186
-186
-186
-187
-187
-187
-186
-186
-186
-186
-187
-187
-187
-187
-187
-186
-187
-187
-187
-187
-188
-187
-187
-187
-187
-186
-186
-186
-186
-186
-185
-186
-186
-185
-185
-186
-186
-186
-186
-186
-187
-187
-187
-187
-187
-186
-187
-187
-187
-187
-186
-186
-186
-187
-187
-187
-186
-187
-187
-187
-187
-188
-188
-188
-188
-187
-188
-188
-188
-188
-188
-187
-187
-188
-188
-188
-188
-189
-189
-188
-189
-189
-189
-188
-188
-189
-189
-188
-188
-188
-187
-187
-187
-187
-187
-187
-188
-188
-188
-188
-187
-188
-188
-187
-187
-188
-188
-188
-188
-188
-188
-188
-188
-188
-188
-189
-189
-189
-189
-189
-189
-188
-188
-188
-188
-188
-187
-187
-187
-187
-187
-186
-186
-185
-186
-186
-186
-185
-186
-186
-186
-186
-186
-186
-186
-186
-186
-185
-185
-185
-185
-186
-186
-186
-186
-186
-187
-186
-186
-186
-186
-187
-187
-187
-187
-186
-186
-186
-186
-186
-186
-186
-186
-186
-187
-187
-187
-187
-187
-187
-188
-188
-188
-188
-187
-188
-188
-188
-187
-187
-187
-187
-187
-187
-187
-187
-186
-187
-187
-187
-187
-187
-188
-188
-187
-187
-188
-188
-188
-188
-188
-188
-188
-188
-188
-189
-188
-188
-188
-188
-188
-188
-187
-187
-187
-187
-187
-186
-186
-186
-186
-186
-186
-186
-186
-186
-186
-186
-186
-186
-186
-186
-186
-186
-186
-186
-186
-185
-185
-185
-185
-184
-184
-183
-184
-183
-183
-183
-183
-183
-182
-182
-181
-181
-181
-181
-181
-179
-179
-179
-178
-178
-178
-176
-177
-176
-176
-176
-176
-175
-175
-175
-174
-174
-173
-174
-173
-173
-173
-173
-172
-173
-173
-173
-174
-174
-175
-175
-175
-175
-176
-176
-176
-177
-177
-177
-177
-178
-178
-178
-178
-178
-178
-179
-179
-179
-179
-180
-180
-180
-181
-181
-181
-182
-183
-183
-183
-182
-183
-184
-183
-184
-184
-184
-184
-184
-185
-185
-185
-185
-185
-185
-185
-185
-185
-185
-185
-184
-184
-184
-184
-184
-184
-184
-184
-184
-184
-184
-184
-184
-184
-184
-184
-184
-184
-184
-185
-184
-184
-184
-185
-185
-185
-185
-185
-185
-185
-186
-185
-185
-185
-186
-186
-185
-185
-185
-185
-185
-185
-185
-185
-186
-186
-186
-186
-186
-186
-186
-186
-187
-187
-187
-186
-186
-185
-185
-185
-184
-184
-184
-183
-183
-183
-182
-182
-182
-181
-180
-180
-179
-179
-178
-176
-174
-172
-170
-167
-164
-160
-157
-152
-148
-143
-139
-133
-128
-122
-115
-109
-102
-95
-88
-81
-73
-64
-56
-49
-40
-33
-26
-20
-13
-7
-1
4
8
11
13
13
12
10
4
-1
-8
-17
-29
-40
-54
-69
-86
-104
-124
-145
-168
-191
-214
-239
-263
-287
-310
-334
-355
-375
-396
-413
-429
-443
-456
-466
-475
-479
-484
-485
-484
-481
-476
-470
-461
-451
-439
-425
-412
-396
-382
-366
-351
-336
-321
-306
-293
-278
-266
-254
-243
-232
-223
-214
-205
-199
-192
-186
-181
-176
-172
-169
-166
-164
-162
-160
-159
-157
-156
-156
-155
-155
-154
-154
-154
-153
-154
-152
-152
-153
-152
-151
-151
-150
-149
-148
-148
-147
-146
-147
-145
-145
-145
-144
-143
-143
-143
-143
-143
-142
-142
-142
-141
-141
-140
-140
-140
-139
-139
-138
-138
-138
-138
-138
-138
-138
-138
-138
-139
-138
-138
-138
-137
-137
-137
-137
-136
-136
-136
-136
-135
-135
-135
-135
-135
-134
-133
-133
-133
-133
-132
-132
-131
-131
-130
-130
-130
-128
-129
-129
-128
-127
-127
-127
-127
-127
-127
-127
-126
-126
-126
-125
-125
-125
-125
-124
-124
-123
-123
-122
-122
-122
-122
-121
-121
-121
-120
-119
-119
-118
-118
-117
-117
-116
-116
-115
-115
-114
-113
-112
-112
-111
-110
-110
-110
-109
-108
-108
-107
-106
-105
-104
-103
-102
-101
-100
-99
-98
-97
-96
-96
-95
-94
-93
-93
-92
-91
-91
-90
-89
-89
-88
-87
-86
-84
-84
-83
-82
-80
-79
-78
-77
-76
-75
-73
-72
-71
-70
-69
-66
-65
-63
-62
-60
-59
-58
-57
-54
-54
-52
-51
-50
-48
-47
-46
-45
-44
-43
-42
-41
-40
-38
-37
-36
-34
-33
-32
-31
-30
-29
-27
-28
-27
-25
-25
-25
-24
-24
-23
-23
-22
-22
-21
-21
-21
-20
-20
-20
-20
-20
-20
-20
-21
-21
-21
-22
-22
-22
-23
-23
-24
-24
-25
-25
-26
-27
-28
-29
-30
-31
-32
-34
-35
-37
-39
-40
-41
-42
-44
-46
-48
-50
-52
-54
-57
-58
-61
-62
-64
-66
-69
-71
-74
-76
-79
-81
-83
-85
-87
-89
-92
-94
-96
-97
-98
-100
-102
-104
-106
-108
-110
-112
-114
-116
-118
-120
-122
-124
-125
-127
-129
-130
-132
-133
-135
-136
-138
-139
-141
-142
-143
-144
-145
-147
-148
-149
-150
-151
-152
-153
-153
-154
-155
-156
-156
-157
-158
-158
-159
-160
-160
-162
-162
-163
-164
-164
-165
-165
-166
-166
-167
-167
-167
-167
-168
-168
-168
-169
-168
-169
-169
-169
-170
-170
-170
-171
-171
-171
-172
-172
-172
-172
-172
-172
-171
-172
-172
-172
-172
-172
-172
-172
-172
-172
-172
-173
-174
-174
-173
-173
-174
-173
-173
-173
-173
-172
-172
-172
-172
-172
-172
-171
-171
-171
-171
-171
-170
-170
-171
-170
-170
-170
-169
-169
-168
-168
-168
-167
-167
-166
-166
-166
-166
-166
-165
-165
-165
-165
-164
-164
-164
-164
-163
-163
-163
-162
-162
-162
-163
-162
-163
-163
-163
-163
-163
-163
-163
-164
-163
-163
-164
-164
-164
-164
-163
-163
-163
-162
-163
-163
-162
-162
-162
-162
-163
-163
-163
-162
-162
-162
-162
-162
-162
-162
-162
-162
-161
-161
-161
-161
-161
-161
-162
-162
-161
-162
-162
-162
-161
-162
-162
-162
-162
-162
-161
-161
-161
-161
-162
-163
-163
-163
-164
-164
-165
-165
-165
-166
-165
-166
-167
-167
-167
-167
-167
-167
-167
-167
-166
-166
-167
-167
-167
-168
-168
-169
-169
-169
-169
-170
-171
-171
-171
-171
-171
-172
-172
-172
-173
-173
-173
-172
-172
-173
-173
-173
-174
-173
-173
-173
-173
-173
-172
-172
-172
-172
-172
-172
-172
-172
-172
-172
-173
-173
-173
-173
-173
-174
-174
-174
-174
-175
-175
-175
-175
-176
-176
-175
-175
-175
-175
-176
-176
-176
-175
-175
-175
-176
-176
-175
-175
-175
-175
-175
-174
-174
-174
-174
-174
-174
-174
-174
-174
-175
-175
-175
-175
-176
-175
-175
-175
-176
-176
-176
-176
-175
-175
-175
-176
-176
-176
-176
-176
-176
-176
-175
-175
-175
-176
-176
-175
-175
-175
-175
-174
-174
-175
-175
-174
-174
-174
-174
-174
-174
-175
-175
-175
-175
-176
-176
-176
-176
-176
-176
-176
-176
-176
-176
-176
-176
-176
-176
-176
-176
-176
-176
-176
-176
-177
-177
-177
-176
-176
-176
-177
-176
-176
-176
-175
-175
-175
-175
-175
-175
-175
-175
-175
-174
-174
-175
-175
-174
-174
-174
-174
-174
-174
-174
-173
-174
-174
-175
-176
-175
-176
-177
-177
-177
-177
-177
-177
-177
-178
-178
-178
-177
-177
-177
-177
-176
-176
-175
-175
-175
-176
-176
-175
-175
-175
-174
-174
-174
-174
-174
-174
-175
-175
-175
-175
-174
-175
-176
-176
-176
-176
-176
-176
-176
-177
-177
-177
-177
-178
-177
-177
-177
-176
-176
-176
-175
-176
-176
-176
-175
-175
-176
-175
-175
-175
-175
-175
-175
-175
-175
-174
-175
-175
-175
-175
-175
-176
-176
-176
-176
-176
-176
-176
-177
-177
-178
-178
-178
-178
-178
-177
-177
-177
-177
-177
-177
-177
-177
-177
-177
-177
-178
-177
-177
-177
-177
-177
-177
-177
-176
-176
-176
-176
-175
-176
-175
-175
-175
-175
-174
-174
-175
-175
-174
-174
-174
-173
-173
-173
-172
-172
-171
-170
-169
-169
-168
-168
-167
-166
-166
-165
-165
-164
-164
-164
-162
-162
-161
-161
-160
-161
-160
-159
-159
-159
-158
-158
-159
-159
-159
-160
-160
-160
-160
-161
-161
-161
-161
-162
-162
-162
-163
-163
-163
-163
-164
-165
-165
-166
-166
-167
-167
-168
-169
-169
-170
-170
-171
-171
-171
-172
-172
-172
-173
-174
-174
-174
-174
-175
-175
-175
-176
-176
-176
-176
-176
-176
-176
-176
-176
-176
-176
-176
-176
-176
-177
-176
-176
-176
-176
-177
-177
-176
-176
-177
-177
-177
-177
-177
-177
-177
-176
-176
-176
-177
-177
-177
-177
-177
-177
-178
-178
-178
-178
-178
-179
-179
-179
-179
-179
-179
-178
-178
-178
-178
-178
-178
-178
-179
-179
-179
-180
-180
-180
-180
-180
-180
-180
-180
-181
-180
-180
-180
-180
-179
-179
-178
-178
-178
-178
-178
-179
-177
-177
-177
-177
-177
-176
-175
-174
-173
-171
-170
-167
-164
-161
-157
-154
-150
-145
-140
-135
-131
-125
-118
-112
-105
-98
-90
-82
-73
-64
-56
-48
-39
-31
-22
-16
-9
-2
4
10
14
19
21
23
23
21
18
13
6
0
-11
-22
-35
-50
-66
-84
-104
-125
-147
-170
-194
-219
-243
-269
-294
-319
-342
-364
-386
-406
-424
-441
-456
-469
-480
-488
-495
-498
-500
-499
-496
-491
-484
-475
-464
-451
-437
-423
-408
-392
-376
-359
-344
-328
-312
-297
-283
-270
-256
-245
-233
-223
-213
-204
-196
-190
-182
-177
-172
-168
-164
-161
-158
-156
-155
-153
-152
-151
-150
-149
-148
-149
-148
-147
-146
-147
-146
-145
-144
-143
-143
-142
-141
-141
-141
-140
-140
-139
-138
-138
-139
-138
-138
-138
-137
-137
-136
-137
-136
-135
-136
-135
-135
-134
-134
-133
-133
-133
-133
-132
-131
-131
-131
-130
-130
-129
-129
-129
-128
-127
-127
-127
-127
-126
-126
-126
-126
-126
-126
-125
-125
-126
-126
-125
-126
-125
-125
-124
-124
-124
-124
-124
-123
-123
-122
-122
-122
-122
-122
-122
-122
-121
-121
-121
-120
-120
-119
-118
-118
-117
-116
-116
-115
-115
-114
-113
-113
-113
-112
-112
-112
-111
-111
-110
-109
-108
-108
-107
-107
-106
-105
-105
-104
-103
-102
-102
-101
-101
-101
-99
-99
-98
-98
-97
-97
-96
-95
-94
-94
-93
-92
-91
-90
-90
-89
-89
-88
-87
-87
-86
-86
-85
-85
-84
-84
-83
-82
-81
-81
-79
-78
-77
-76
-76
-75
-73
-72
-71
-71
-69
-68
-67
-66
-64
-63
-61
-60
-58
-57
-55
-54
-52
-51
-49
-47
-45
-44
-43
-42
-40
-39
-38
-37
-36
-34
-33
-32
-31
-30
-28
-27
-26
-25
-25
-24
-22
-22
-20
-20
-19
-18
-17
-16
-15
-14
-14
-13
-13
-12
-10
-10
-10
-10
-9
-8
-8
-9
-9
-8
-8
-9
-9
-10
-9
-10
-10
-10
-11
-11
-12
-13
-14
-13
-14
-16
-17
-18
-20
-21
-23
-25
-26
-28
-30
-31
-32
-34
-36
-37
-40
-41
-43
-45
-47
-49
-51
-53
-56
-58
-60
-63
-65
-67
-69
-72
-74
-77
-79
-81
-83
-86
-88
-90
-92
-95
-98
-100
-102
-105
-107
-109
-111
-113
-115
-117
-118
-121
-122
-123
-124
-125
-127
-129
-130
-131
-133
-134
-135
-137
-138
-139
-140
-142
-143
-144
-145
-145
-147
-148
-148
-150
-151
-151
-152
-153
-154
-155
-155
-156
-157
-157
-158
-158
-158
-159
-159
-159
-160
-160
-160
-160
-161
-161
-161
-161
-161
-162
-163
-163
-164
-164
-164
-164
-165
-165
-165
-166
-166
-165
-165
-165
-166
-166
-166
-166
-166
-166
-166
-167
-167
-166
-167
-168
-167
-167
-168
-168
-168
-168
-168
-168
-168
-168
-167
-167
-167
-167
-167
-167
-168
-167
-167
-167
-167
-167
-167
-167
-167
-166
-166
-165
-165
-165
-165
-164
-164
-164
-163
-163
-164
-164
-163
-164
-163
-163
-162
-162
-162
-162
-162
-162
-161
-161
-160
-160
-160
-160
-160
-160
-160
-160
-160
-160
-160
-160
-159
-159
-159
-158
-158
-157
-157
-157
-156
-156
-156
-156
-156
-156
-157
-156
-156
-156
-156
-156
-156
-156
-156
-156
-156
-156
-156
-156
-155
-155
-156
-156
-156
-156
-156
-156
-156
-156
-156
-156
-156
-156
-156
-156
-156
-156
-156
-156
-156
-156
-156
-156
-157
-157
-157
-157
-157
-158
-158
-158
-158
-158
-159
-160
-159
-160
-160
-160
-160
-160
-160
-161
-161
-161
-162
-162
-162
-163
-162
-162
-162
-162
-162
-162
-163
-162
-162
-162
-163
-162
-162
-162
-162
-163
-162
-163
-163
-163
-164
-164
-164
-165
-165
-165
-165
-165
-166
-166
-166
-166
-167
-167
-167
-167
-168
-168
-169
-170
-169
-169
-169
-169
-169
-169
-170
-169
-169
-169
-168
-168
-168
-168
-168
-167
-168
-168
-167
-167
-168
-167
-167
-167
-167
-167
-168
-168
-168
-168
-169
-169
-170
-170
-170
-171
-171
-172
-172
-173
-172
-173
-173
-173
-173
-173
-172
-172
-172
-172
-172
-173
-173
-172
-172
-172
-172
-173
-173
-173
-173
-173
-173
-173
-173
-173
-173
-173
-173
-173
-173
-173
-173
-174
-173
-173
-173
-173
-173
-174
-174
-174
-174
-174
-174
-173
-173
-174
-174
-173
-173
-173
-173
-173
-173
-172
-172
-172
-172
-173
-173
-173
-173
-173
-173
-173
-172
-172
-172
-173
-173
-173
-174
-174
-174
-175
-175
-175
-176
-176
-176
-176
-177
-177
-177
-177
-176
-176
-176
-177
-177
-176
-176
-177
-177
-177
-177
-176
-176
-176
-176
-176
-176
-175
-175
-175
-175
-174
-174
-174
-174
-174
-174
-174
-174
-174
-174
-174
-174
-174
-175
-175
-175
-175
-175
-175
-174
-174
-174
-175
-175
-175
-175
-175
-175
-175
-176
-176
-176
-176
-176
-176
-176
-175
-175
-175
-175
-176
-176
-176
-175
-174
-175
-175
-175
-175
-175
-175
-175
-175
-175
-175
-175
-175
-175
-175
-174
-175
-175
-174
-174
-174
-174
-174
-175
-174
-174
-175
-175
-175
-175
-175
-175
-175
-175
-174
-174
-174
-174
-173
-173
-173
-173
-172
-172
-172
-172
-173
-172
-172
-172
-172
-171
-170
-170
-169
-169
-168
-167
-166
-166
-165
-164
-164
-164
-162
-162
-162
-161
-161
-161
-161
-160
-160
-160
-159
-160
-160
-159
-160
-160
-160
-160
-160
-162
-162
-162
-163
-163
-163
-164
-164
-164
-165
-166
-166
-166
-166
-166
-167
-167
-167
-167
-168
-168
-169
-170
-170
-171
-171
-172
-172
-172
-172
-173
-174
-173
-173
-173
-174
-174
-175
-175
-176
-176
-176
-176
-177
-177
-177
-178
-178
-178
-178
-178
-178
-178
-177
-178
-178
-177
-177
-178
-178
-178
-179
-179
-179
-179
-179
-179
-181
-180
-181
-181
-181
-180
-180
-180
-180
-179
-179
-180
-180
-179
-179
-179
-178
-179
-179
-178
-179
-179
-178
-178
-178
-178
-179
-179
-179
-179
-179
-179
-180
-181
-181
-181
-181
-181
-181
-182
-182
-181
-182
-182
-181
-181
-180
-180
-180
-179
-179
-179
-179
-178
-177
-177
-176
-174
-173
-171
-170
-167
-164
-161
-158
-153
-149
-144
-139
-133
-128
-122
-116
-109
-102
-95
-88
-80
-72
-64
-55
-47
-38
-30
-23
-15
-9
-1
5
10
15
18
21
22
21
19
15
10
4
-5
-15
-27
-40
-55
-71
-89
-109
-129
-151
-175
-198
-224
-248
-273
-298
-322
-345
-368
-388
-408
-426
-443
-457
-470
-480
-487
-492
-496
-496
-494
-491
-485
-477
-468
-456
-444
-429
-415
-399
-385
-369
-353
-336
-322
-307
-292
-278
-265
-252
-241
-230
-220
-211
-203
-195
-189
-184
-178
-174
-170
-166
-164
-161
-159
-158
-156
-155
-154
-153
-152
-152
-151
-151
-150
-150
-150
-148
-148
-148
-147
-147
-146
-145
-145
-145
-144
-143
-143
-142
-141
-141
-141
-140
-140
-140
-139
-139
-139
-138
-138
-138
-138
-137
-137
-137
-136
-135
-136
-136
-135
-134
-134
-134
-134
-134
-134
-133
-132
-132
-132
-132
-132
-131
-131
-131
-130
-129
-129
-129
-128
-128
-127
-127
-127
-127
-127
-127
-126
-126
-125
-125
-125
-125
-124
-124
-123
-123
-123
-122
-122
-121
-121
-121
-121
-121
-120
-120
-120
-120
-119
-118
-119
-118
-118
-117
-116
-115
-115
-115
-115
-114
-114
-114
-113
-113
-113
-113
-112
-113
-112
-112
-112
-111
-111
-110
-110
-109
-109
-108
-107
-107
-106
-106
-105
-105
-104
-103
-102
-101
-100
-99
-98
-97
-96
-95
-94
-93
-91
-90
-89
-88
-87
-86
-86
-85
-84
-84
-83
-82
-81
-80
-79
-78
-76
-75
-74
-73
-72
-70
-70
-68
-67
-66
-65
-64
-62
-61
-60
-59
-58
-57
-56
-54
-52
-51
-50
-47
-46
-45
-43
-41
-40
-38
-37
-35
-34
-33
-31
-31
-30
-29
-28
-27
-25
-24
-23
-22
-21
-20
-19
-18
-17
-17
-16
-16
-15
-15
-15
-14
-13
-13
-13
-12
-12
-12
-11
-11
-11
-10
-10
-11
-11
-11
-12
-13
-14
-14
-14
-15
-16
-17
-18
-18
-19
-20
-21
-21
-23
-24
-25
-26
-27
-29
-29
-31
-32
-34
-36
-38
-39
-41
-43
-46
-48
-50
-52
-54
-56
-58
-60
-63
-65
-67
-70
-73
-75
-77
-79
-81
-84
-86
-88
-90
-92
-95
-96
-98
-100
-102
-104
-106
-108
-110
-112
-114
-116
-118
-120
-123
-125
-127
-128
-130
-131
-133
-134
-136
-137
-139
-141
-142
-143
-144
-146
-147
-149
-150
-151
-152
-153
-154
-154
-155
-156
-157
-157
-158
-158
-159
-159
-159
-160
-161
-161
-161
-162
-163
-163
-163
-163
-163
-163
-164
-164
-164
-163
-163
-164
-164
-164
-164
-164
-164
-166
-166
-166
-167
-167
-168
-169
-169
-169
-170
-170
-170
-170
-170
-171
-171
-171
-171
-171
-172
-172
-172
-172
-172
-172
-172
-172
-171
-171
-172
-172
-172
-171
-171
-171
-170
-169
-169
-169
-169
-169
-169
-168
-168
-168
-168
-167
-167
-166
-166
-166
-166
-165
-165
-164
-164
-165
-164
-164
-164
-164
-164
-165
-165
-165
-165
-165
-165
-165
-165
-165
-165
-165
-165
-165
-165
-165
-164
-164
-164
-164
-164
-165
-164
-164
-164
-164
-164
-164
-162
-162
-163
-162
-161
-161
-161
-161
-160
-160
-160
-160
-160
-160
-160
-160
-160
-161
-161
-161
-161
-161
-161
-160
-160
-160
-160
-160
-160
-160
-161
-162
-161
-162
-162
-163
-163
-163
-163
-163
-163
-163
-163
-163
-164
-164
-164
-163
-163
-163
-163
-164
-164
-163
-164
-164
-164
-164
-164
-164
-164
-165
-165
-165
-164
-165
-166
-166
-166
-166
-166
-166
-167
-167
-168
-168
-168
-167
-168
-168
-168
-168
-168
-168
-168
-168
-169
-169
-169
-169
-169
-170
-170
-170
-171
-171
-171
-172
-172
-172
-172
-173
-173
-173
-173
-173
-173
-174
-173
-173
-174
-174
-174
-174
-175
-175
-175
-175
-176
-176
-176
-176
-176
-175
-176
-176
-176
-176
-175
-175
-176
-176
-176
-176
-177
-176
-176
-176
-176
-176
-176
-176
-176
-176
-175
-175
-175
-175
-175
-175
-175
-175
-174
-175
-175
-175
-175
-175
-176
-176
-176
-176
-176
-175
-175
-176
-176
-176
-176
-176
-176
-177
-178
-178
-178
-179
-179
-179
-179
-179
-180
-180
-180
-180
-179
-179
-179
-179
-179
-179
-179
-179
-179
-179
-179
-179
-179
-180
-179
-179
-179
-179
-179
-180
-179
-179
-179
-180
-180
-180
-180
-180
-180
-180
-181
-181
-181
-181
-181
-181
-181
-181
-181
-180
-180
-180
-180
-179
-180
-180
-180
-180
-180
-181
-181
-181
-181
-181
-181
-182
-182
-182
-181
-181
-181
-181
-181
-182
-181
-181
-181
-182
-181
-181
-182
-182
-182
-182
-181
-181
-181
-180
-180
-180
-179
-179
-179
-179
-178
-178
-178
-178
-178
-177
-178
-178
-178
-178
-179
-179
-179
-180
-180
-179
-180
-180
-180
-180
-180
-180
-180
-180
-181
-181
-180
-180
-180
-180
-181
-180
-180
-179
-179
-179
-179
-179
-178
-178
-177
-177
-177
-178
-177
-177
-177
-177
-176
-176
-176
-175
-175
-175
-173
-173
-172
-172
-171
-171
-170
-170
-170
-169
-169
-168
-168
-167
-168
-168
-168
-168
-169
-168
-168
-169
-168
-168
-168
-169
-169
-169
-171
-170
-171
-172
-172
-172
-174
-174
-174
-174
-175
-175
-175
-176
-176
-177
-177
-177
-177
-177
-178
-178
-178
-179
-179
-179
-179
-180
-181
-181
-180
-180
-181
-181
-180
-180
-181
-181
-180
-180
-180
-181
-181
-181
-182
-182
-182
-181
-181
-181
-182
-182
-182
-180
-181
-180
-180
-180
-180
-180
-180
-180
-180
-181
-181
-181
-181
-181
-182
-183
-183
-183
-183
-183
-183
-183
-183
-184
-183
-183
-183
-184
-185
-184
-184
-184
-184
-184
-185
-184
-184
-184
-183
-183
-183
-183
-183
-182
-182
-182
-182
-182
-182
-182
-182
-182
-182
-182
-182
-181
-182
-182
-181
-181
-181
-180
-180
-179
-178
-177
-175
-174
-172
-169
-166
-163
-159
-155
-150
-145
-140
-134
-128
-123
-116
-109
-102
-94
-86
-78
-70
-63
-54
-46
-38
-30
-23
-15
-9
-4
3
7
11
14
16
16
14
12
8
2
-6
-15
-25
-38
-52
-67
-84
-102
-122
-144
-165
-189
-213
-237
-262
-285
-309
-333
-354
-375
-395
-414
-430
-445
-458
-468
-477
-483
-487
-489
-488
-485
-480
-473
-464
-454
-441
-428
-414
-400
-385
-369
-353
-338
-323
-309
-295
-282
-269
-256
-245
-234
-224
-215
-206
-199
-192
-186
-180
-176
-172
-168
-166
-163
-162
-160
-159
-158
-157
-156
-156
-155
-155
-154
-153
-153
-153
-152
-152
-151
-151
-151
-150
-150
-150
-150
-148
-148
-148
-148
-147
-147
-146
-146
-145
-144
-144
-143
-143
-143
-142
-142
-142
-142
-142
-141
-141
-140
-140
-140
-139
-140
-139
-139
-138
-138
-138
-138
-137
-137
-137
-137
-137
-137
-137
-137
-137
-137
-137
-136
-136
-136
-135
-135
-134
-134
-134
-133
-133
-132
-132
-132
-132
-132
-132
-132
-132
-132
-132
-132
-131
-131
-130
-130
-129
-129
-128
-128
-128
-127
-127
-127
-126
-126
-125
-125
-124
-124
-124
-123
-123
-122
-122
-121
-120
-120
-120
-119
-118
-117
-117
-116
-116
-116
-115
-115
-115
-114
-114
-112
-112
-111
-111
-110
-109
-108
-108
-107
-106
-105
-104
-104
-103
-103
-102
-102
-101
-100
-100
-99
-98
-97
-96
-95
-94
-92
-91
-91
-90
-89
-87
-86
-86
-86
-84
-83
-82
-81
-80
-79
-78
-77
-75
-74
-73
-72
-71
-69
-68
-66
-65
-64
-63
-61
-59
-58
-57
-56
-54
-53
-52
-50
-49
-47
-46
-44
-43
-41
-39
-38
-36
-35
-34
-33
-31
-31
-30
-30
-29
-27
-27
-26
-26
-25
-24
-23
-23
-22
-22
-22
-22
-22
-21
-21
-22
-21
-21
-21
-21
-21
-21
-20
-20
-21
-21
-20
-20
-21
-21
-22
-22
-23
-24
-25
-25
-26
-27
-27
-29
-30
-31
-33
-34
-35
-37
-38
-40
-41
-43
-44
-46
-49
-50
-52
-54
-57
-59
-61
-64
-66
-68
-71
-73
-75
-77
-79
-82
-84
-86
-88
-91
-93
-95
-98
-99
-101
-104
-106
-108
-110
-112
-113
-115
-117
-118
-119
-121
-122
-124
-125
-127
-128
-131
-132
-133
-135
-136
-138
-139
-140
-142
-144
-145
-146
-146
-148
-149
-150
-150
-152
-153
-154
-155
-155
-156
-157
-158
-159
-159
-160
-160
-160
-162
-162
-162
-163
-163
-164
-164
-165
-165
-165
-166
-166
-167
-167
-167
-167
-168
-168
-168
-168
-168
-168
-168
-167
-167
-167
-167
-167
-167
-168
-168
-168
-169
-169
-169
-169
-170
-169
-170
-170
-170
-170
-169
-169
-170
-170
-169
-169
-169
-169
-169
-170
-171
-171
-171
-171
-170
-170
-170
-170
-170
-170
-169
-170
-169
-169
-168
-168
-168
-168
-168
-167
-166
-166
-166
-166
-166
-165
-165
-164
-164
-164
-163
-163
-163
-162
-162
-162
-162
-162
-162
-162
-161
-161
-161
-161
-161
-161
-161
-160
-160
-160
-159
-160
-160
-160
-159
-159
-159
-159
-159
-158
-158
-159
-159
-159
-159
-159
-159
-159
-159
-158
-159
-159
-159
-159
-160
-160
-160
-160
-160
-160
-161
-161
-162
-162
-162
-163
-163
-163
-163
-163
-163
-163
-163
-163
-161
-161
-162
-162
-162
-162
-162
-163
-163
-163
-162
-163
-164
-164
-164
-164
-164
-163
-165
-165
-164
-164
-165
-165
-165
-166
-166
-167
-167
-167
-167
-168
-168
-168
-168
-167
-168
-168
-167
-167
-167
-167
-167
-167
-168
-168
-168
-169
-169
-169
-170
-170
-170
-171
-171
-171
-170
-171
-171
-171
-171
-172
-172
-173
-173
-173
-173
-173
-173
-174
-174
-174
-174
-174
-174
-174
-174
-174
-174
-174
-174
-174
-174
-174
-174
-175
-175
-176
-176
-175
-175
-176
-175
-175
-175
-175
-175
-175
-175
-175
-175
-175
-175
-175
-176
-176
-176
-175
-175
-176
-177
-177
-177
-177
-177
-177
-177
-176
-176
-177
-177
-177
-177
-178
-178
-178
-178
-179
-179
-178
-178
-179
-179
-178
-178
-178
-179
-179
-179
-179
-180
-179
-180
-180
-179
-179
-180
-180
-180
-181
-180
-180
-180
-180
-180
-180
-180
-179
-179
-178
-178
-178
-178
-178
-178
-178
-178
-179
-179
-179
-179
-179
-179
-179
-179
-179
-179
-179
-179
-180
-180
-179
-180
-180
-180
-180
-180
-181
-181
-182
-182
-181
-181
-181
-182
-182
-182
-181
-182
-183
-182
-182
-182
-183
-183
-183
-183
-184
-184
-183
-183
-183
-183
-183
-183
-183
-182
-182
-182
-182
-181
-181
-181
-181
-181
-180
-180
-181
-181
-180
-180
-180
-179
-179
-179
-179
-179
-179
-179
-179
-178
-178
-178
-179
-179
-179
-179
-179
-179
-180
-181
-181
-181
-181
-181
-181
-181
-181
-181
-180
-180
-180
-180
-180
-179
-179
-179
-179
-179
-179
-178
-178
-177
-177
-177
-176
-175
-176
-175
-176
-174
-175
-175
-175
-174
-173
-173
-173
-173
-172
-172
-172
-172
-171
-171
-170
-170
-169
-169
-168
-169
-168
-168
-168
-169
-169
-169
-170
-170
-170
-171
-171
-172
-172
-172
-172
-172
-172
-172
-172
-173
-173
-174
-174
-174
-174
-175
-175
-174
-175
-175
-176
-176
-176
-175
-175
-176
-176
-175
-176
-176
-176
-176
-177
-177
-177
-178
-179
-179
-180
-180
-180
-180
-181
-181
-182
-182
-182
-182
-182
-182
-183
-183
-184
-184
-184
-185
-184
-184
-184
-185
-185
-185
-185
-185
-186
-186
-185
-185
-185
-186
-186
-186
-186
-186
-186
-187
-186
-186
-186
-186
-187
-186
-186
-185
-185
-185
-185
-185
-185
-185
-184
-184
-185
-185
-185
-184
-185
-185
-185
-185
-185
-185
-185
-185
-185
-184
-184
-184
-184
-184
-183
-183
-183
-184
-183
-183
-183
-183
-183
-183
-183
-182
-181
-180
-179
-176
-173
-171
-168
-164
-160
-156
-151
-147
-141
-136
-130
-124
-118
-111
-105
-96
-90
-81
-73
-64
-56
-48
-40
-32
-25
-18
-11
-5
0
4
7
10
12
11
9
7
2
-3
-11
-21
-32
-46
-61
-77
-95
-114
-135
-158
-181
-205
-229
-254
-280
-304
-329
-353
-375
-397
-417
-434
-451
-466
-478
-489
-497
-503
-506
-508
-507
-503
-498
-491
-481
-471
-458
-445
-430
-414
-399
-383
-367
-352
-336
-322
-306
-292
-279
-266
-254
-244
-234
-224
-215
-208
-201
-195
-189
-183
-179
-175
-171
-169
-166
-164
-163
-162
-160
-159
-159
-158
-157
-157
-156
-156
-155
-154
-154
-153
-153
-152
-151
-150
-150
-149
-148
-148
-147
-147
-147
-145
-145
-145
-144
-145
-144
-144
-144
-144
-143
-144
-143
-142
-143
-143
-143
-143
-142
-142
-143
-142
-142
-143
-143
-143
-143
-141
-141
-141
-141
-141
-140
-140
-139
-139
-139
-138
-138
-138
-138
-137
-137
-136
-136
-136
-135
-135
-134
-134
-133
-133
-132
-131
-131
-130
-130
-129
-129
-128
-128
-127
-126
-126
-126
-126
-125
-125
-125
-124
-124
-123
-122
-123
-123
-122
-122
-121
-120
-120
-120
-120
-120
-120
-119
-119
-119
-118
-118
-117
-117
-116
-116
-115
-114
-114
-114
-113
-112
-112
-111
-111
-111
-111
-110
-109
-109
-108
-107
-106
-106
-105
-104
-103
-102
-101
-100
-99
-98
-97
-96
-96
-94
-93
-92
-91
-90
-89
-88
-87
-86
-84
-83
-82
-80
-79
-78
-77
-76
-75
-73
-72
-71
-70
-69
-68
-66
-65
-64
-63
-61
-59
-58
-56
-55
-53
-53
-51
-50
-49
-46
-45
-44
-43
-41
-40
-39
-37
-37
-34
-34
-33
-31
-31
-30
-29
-28
-27
-26
-25
-25
-24
-24
-23
-22
-22
-21
-21
-21
-20
-20
-20
-20
-20
-20
-20
-20
-20
-20
-21
-21
-22
-22
-22
-23
-24
-24
-24
-25
-25
-26
-27
-27
-27
-28
-28
-29
-29
-30
-32
-32
-34
-35
-37
-38
-40
-41
-43
-45
-47
-49
-50
-52
-54
-56
-59
-61
-63
-65
-68
-71
-73
-75
-78
-80
-83
-85
-87
-89
-91
-94
-95
-97
-99
-102
-103
-104
-106
-108
-112
-114
-116
-117
-119
-122
-123
-125
-127
-128
-130
-132
-133
-135
-137
-139
-140
-141
-143
-145
-146
-148
-149
-150
-152
-154
-155
-156
-157
-158
-159
-161
-161
-163
-163
-164
-165
-166
-166
-168
-169
-169
-170
-171
-171
-173
-173
-174
-174
-174
-175
-175
-175
-175
-175
-176
-176
-175
-175
-176
-176
-175
-175
-176
-175
-176
-175
-175
-176
-176
-176
-176
-175
-176
-176
-176
-176
-176
-176
-177
-177
-178
-178
-178
-178
-178
-178
-178
-177
-177
-177
-176
-176
-175
-174
-173
-173
-173
-172
-172
-172
-171
-171
-171
-172
-172
-173
-172
-173
-174
-174
-175
-175
-176
-177
-177
-178
-177
-178
-179
-179
-179
-179
-179
-179
-178
-178
-178
-176
-176
-176
-174
-174
-172
-171
-170
-169
-169
-168
-168
-168
-168
-167
-167
-168
-168
-168
-168
-168
-168
-168
-168
-169
-168
-168
-168
-169
-168
-168
-169
-169
-169
-169
-169
-169
-169
-169
-168
-168
-168
-168
-168
-167
-167
-166
-166
-166
-165
-165
-165
-165
-165
-165
-164
-164
-164
-164
-164
-164
-164
-165
-165
-165
-164
-164
-164
-164
-165
-166
-166
-165
-167
-166
-167
-167
-167
-167
-168
-168
-168
-168
-168
-168
-167
-167
-167
-167
-168
-168
-168
-168
-169
-169
-169
-169
-169
-170
-170
-170
-171
-171
-171
-171
-172
-172
-172
-172
-172
-172
-172
-172
-173
-173
-174
-174
-174
-174
-175
-175
-175
-176
-177
-177
-177
-178
-179
-179
-180
-180
-181
-181
-182
-182
-183
-184
-184
-185
-185
-185
-186
-186
-186
-187
-187
-187
-188
-188
-188
-188
-189
-189
-190
-190
-191
-191
-190
-190
-189
-189
-188
-187
-186
-185
-183
-182
-180
-179
-177
-175
-174
-173
-171
-170
-169
-169
-169
-167
-168
-166
-166
-166
-166
-167
-167
-167
-168
-169
-169
-170
-170
-171
-172
-173
-173
-174
-175
-175
-175
-176
-176
-176
-176
-175
-175
-175
-175
-174
-174
-173
-173
-172
-172
-173
-173
-172
-172
-173
-173
-173
-173
-173
-173
-174
-174
-175
-175
-176
-176
-177
-178
-179
-179
-180
-181
-182
-182
-183
-183
-183
-184
-184
-184
-185
-185
-184
-184
-184
-184
-184
-184
-184
-184
-183
-183
-184
-183
-183
-182
-182
-182
-183
-183
-183
-183
-183
-183
-184
-183
-184
-184
-185
-186
-186
-186
-186
-186
-186
-186
-185
-185
-185
-185
-184
-184
-184
-183
-184
-184
-184
-184
-184
-184
-184
-184
-185
-185
-185
-185
-185
-185
-186
-186
-184
-184
-184
-183
-182
-182
-180
-179
-179
-178
-177
-176
-176
-175
-175
-174
-174
-174
-174
-175
-175
-176
-175
-176
-176
-177
-177
-179
-179
-179
-179
-181
-181
-181
-181
-181
-181
-181
-180
-180
-179
-179
-178
-178
-177
-177
-177
-176
-175
-175
-175
-175
-176
-175
-176
-176
-175
-176
-175
-174
-175
-175
-173
-173
-173
-173
-171
-172
-172
-170
-170
-170
-169
-168
-168
-167
-167
-167
-166
-165
-166
-165
-166
-165
-166
-165
-165
-166
-166
-166
-167
-168
-169
-169
-170
-171
-171
-171
-172
-172
-172
-173
-173
-175
-175
-175
-176
-176
-177
-177
-178
-179
-180
-180
-181
-182
-182
-182
-183
-182
-183
-183
-183
-183
-183
-183
-183
-184
-184
-183
-183
-183
-182
-183
-181
-181
-181
-180
-180
-180
-179
-178
-178
-177
-177
-176
-176
-176
-176
-176
-176
-176
-176
-177
-177
-177
-176
-176
-177
-177
-177
-177
-177
-177
-178
-178
-178
-179
-179
-179
-180
-180
-180
-180
-181
-180
-181
-181
-182
-182
-182
-182
-182
-182
-182
-183
-183
-183
-183
-184
-185
-185
-186
-187
-187
-188
-188
-189
-189
-189
-189
-190
-190
-190
-190
-189
-189
-189
-189
-189
-188
-189
-188
-187
-186
-186
-185
-185
-183
-182
-181
-180
-178
-176
-175
-173
-171
-168
-165
-162
-159
-155
-151
-147
-142
-137
-132
-126
-120
-114
-108
-100
-93
-85
-77
-69
-61
-53
-45
-37
-30
-23
-17
-11
-5
0
5
8
10
11
10
7
4
-2
-9
-18
-29
-41
-55
-71
-87
-106
-126
-147
-170
-194
-217
-241
-266
-291
-316
-340
-363
-385
-406
-425
-442
-459
-472
-485
-494
-501
-506
-508
-508
-507
-503
-496
-488
-478
-466
-453
-438
-423
-407
-391
-375
-360
-344
-328
-315
-300
-286
-274
-261
-250
-240
-230
-221
-213
-207
-200
-194
-190
-185
-182
-179
-176
-173
-172
-171
-169
-169
-167
-166
-165
-164
-163
-162
-161
-159
-158
-157
-156
-155
-153
-152
-151
-150
-149
-148
-147
-146
-145
-145
-144
-143
-143
-142
-142
-141
-141
-141
-142
-142
-141
-142
-143
-142
-143
-143
-143
-143
-143
-143
-143
-142
-142
-141
-140
-139
-138
-136
-135
-134
-133
-132
-131
-130
-130
-129
-128
-128
-128
-128
-128
-127
-128
-127
-127
-127
-127
-127
-127
-128
-127
-128
-128
-128
-128
-128
-127
-127
-127
-126
-126
-126
-126
-125
-125
-125
-125
-125
-125
-124
-125
-125
-126
-126
-126
-126
-127
-127
-126
-126
-126
-126
-125
-124
-124
-122
-121
-121
-120
-119
-119
-117
-115
-115
-115
-115
-115
-115
-115
-115
-115
-114
-113
-112
-113
-112
-111
-109
-109
-108
-107
-107
-106
-105
-104
-103
-102
-101
-100
-99
-99
-98
-98
-97
-98
-97
-96
-96
-95
-94
-93
-92
-90
-88
-87
-85
-83
-80
-79
-76
-74
-71
-68
-66
-63
-60
-58
-55
-54
-52
-50
-48
-46
-45
-43
-43
-41
-41
-40
-39
-39
-38
-37
-36
-35
-34
-34
-33
-32
-30
-30
-29
-28
-28
-27
-26
-26
-25
-25
-25
-24
-24
-24
-24
-24
-24
-23
-24
-23
-23
-24
-24
-24
-25
-24
-24
-25
-24
-25
-24
-24
-23
-22
-22
-22
-21
-21
-20
-21
-20
-20
-21
-21
-21
-22
-23
-24
-26
-27
-28
-30
-32
-33
-35
-35
-38
-40
-42
-44
-46
-49
-51
-54
-57
-59
-62
-66
-69
-72
-76
-80
-84
-88
-91
-95
-99
-102
-105
-108
-111
-115
-116
-119
-121
-123
-124
-126
-126
-126
-127
-127
-128
-128
-128
-127
-127
-128
-127
-128
-129
-129
-130
-131
-132
-134
-136
-137
-139
-140
-142
-143
-144
-146
-147
-147
-147
-148
-149
-150
-150
-151
-151
-151
-152
-153
-153
-155
-155
-155
-157
-158
-159
-159
-160
-161
-162
-163
-164
-165
-166
-167
-168
-169
-170
-171
-172
-174
-174
-175
-175
-176
-176
-178
-178
-178
-178
-178
-178
-178
-178
-179
-180
-180
-181
-181
-181
-182
-182
-183
-183
-183
-184
-184
-184
-184
-184
-184
-184
-184
-183
-182
-182
-181
-181
-179
-178
-177
-176
-176
-175
-175
-174
-174
-173
-173
-173
-172
-172
-173
-172
-173
-173
-173
-174
-175
-176
-176
-178
-178
-179
-180
-182
-182
-182
-182
-182
-182
-182
-181
-181
-180
-180
-179
-177
-176
-176
-174
-173
-172
-170
-169
-167
-167
-165
-163
-162
-161
-160
-160
-160
-160
-160
-161
-161
-163
-164
-166
-167
-169
-170
-172
-174
-175
-177
-177
-179
-179
-180
-180
-180
-179
-179
-179
-179
-179
-178
-177
-177
-176
-175
-174
-174
-174
-174
-175
-175
-176
-176
-177
-178
-179
-181
-182
-183
-184
-185
-186
-187
-186
-185
-185
-184
-183
-182
-181
-179
-178
-176
-174
-173
-171
-169
-168
-168
-166
-166
-166
-165
-165
-165
-166
-166
-166
-167
-168
-168
-169
-169
-170
-170
-170
-171
-172
-173
-173
-174
-175
-175
-176
-176
-178
-178
-180
-180
-180
-181
-182
-182
-182
-182
-183
-183
-183
-184
-184
-184
-184
-185
-184
-184
-184
-184
-184
-183
-183
-182
-182
-182
-183
-182
-182
-182
-182
-181
-182
-181
-180
-179
-179
-179
-178
-177
-177
-177
-176
-177
-177
-177
-177
-178
-178
-179
-180
-180
-182
-182
-184
-186
-186
-187
-188
-189
-189
-190
-190
-190
-190
-189
-188
-188
-188
-186
-186
-185
-185
-184
-184
-183
-182
-181
-181
-180
-180
-180
-180
-178
-178
-178
-177
-177
-178
-178
-177
-177
-177
-178
-178
-179
-178
-178
-179
-179
-179
-179
-179
-179
-179
-179
-179
-179
-179
-179
-179
-180
-180
-181
-182
-183
-183
-184
-184
-185
-186
-186
-187
-189
-188
-189
-190
-190
-190
-190
-190
-191
-191
-191
-192
-191
-192
-192
-191
-191
-191
-190
-190
-188
-188
-188
-186
-186
-185
-184
-183
-183
-182
-181
-180
-180
-178
-178
-177
-176
-176
-175
-175
-174
-174
-173
-173
-172
-172
-171
-171
-171
-171
-171
-171
-170
-170
-170
-170
-170
-170
-170
-169
-169
-169
-169
-168
-168
-168
-169
-169
-170
-170
-171
-172
-172
-172
-173
-174
-175
-175
-175
-176
-176
-176
-175
-175
-175
-175
-175
-175
-175
-176
-176
-175
-176
-175
-175
-175
-175
-175
-175
-175
-175
-174
-175
-175
-175
-175
-175
-176
-177
-177
-177
-177
-177
-178
-177
-177
-178
-178
-178
-177
-177
-176
-176
-175
-175
-174
-173
-173
-172
-172
-171
-171
-170
-169
-169
-168
-168
-168
-167
-167
-166
-166
-166
-166
-166
-166
-167
-167
-167
-168
-168
-168
-168
-168
-170
-170
-170
-170
-169
-169
-169
-169
-169
-169
-169
-167
-167
-167
-167
-167
-166
-167
-167
-168
-168
-167
-168
-168
-168
-168
-168
-169
-169
-169
-170
-171
-171
-172
-173
-173
-173
-175
-175
-175
-175
-175
-176
-176
-176
-176
-177
-176
-176
-176
-176
-176
-177
-178
-178
-178
-179
-179
-180
-180
-180
-180
-181
-181
-181
-181
-180
-181
-179
-179
-179
-178
-177
-177
-176
-175
-175
-174
-173
-173
-173
-173
-172
-172
-172
-172
-172
-172
-172
-172
-173
-173
-173
-173
-173
-175
-175
-176
-176
-177
-177
-176
-177
-177
-177
-177
-177
-176
-176
-176
-176
-176
-175
-175
-175
-176
-176
-176
-175
-175
-175
-175
-175
-175
-175
-174
-173
-172
-172
-170
-169
-167
-164
-162
-159
-156
-153
-148
-145
-140
-135
-130
-124
-118
-112
-106
-100
-93
-85
-78
-70
-63
-55
-47
-39
-32
-25
-19
-12
-6
0
5
9
13
17
18
18
18
16
13
7
-1
-10
-20
-32
-45
-60
-77
-95
-115
-135
-157
-180
-203
-226
-251
-274
-298
-320
-343
-363
-383
-401
-418
-433
-446
-458
-466
-474
-478
-481
-480
-479
-474
-468
-460
-450
-439
-426
-412
-397
-382
-366
-351
-336
-321
-306
-292
-278
-265
-252
-239
-228
-218
-208
-199
-191
-183
-176
-170
-165
-160
-157
-153
-151
-148
-147
-145
-144
-143
-143
-142
-141
-141
-141
-140
-140
-140
-139
-140
-139
-139
-139
-139
-137
-138
-138
-136
-136
-136
-136
-134
-134
-134
-133
-133
-133
-132
-132
-132
-131
-131
-130
-130
-130
-129
-129
-129
-129
-129
-130
-130
-130
-129
-129
-129
-128
-127
-127
-126
-126
-126
-125
-125
-125
-125
-126
-125
-126
-126
-125
-126
-126
-125
-126
-126
-126
-126
-125
-125
-126
-125
-125
-124
-125
-125
-124
-124
-124
-122
-122
-121
-120
-120
-119
-119
-118
-116
-116
-115
-114
-114
-113
-112
-112
-112
-112
-112
-112
-111
-111
-111
-111
-110
-110
-110
-109
-108
-109
-108
-108
-107
-106
-105
-104
-104
-103
-103
-103
-103
-102
-101
-101
-100
-100
-99
-99
-98
-97
-96
-96
-95
-94
-94
-93
-93
-93
-93
-92
-91
-90
-91
-90
-89
-88
-87
-86
-86
-84
-83
-82
-81
-80
-79
-78
-77
-76
-74
-73
-71
-70
-69
-67
-66
-64
-63
-61
-60
-58
-57
-55
-54
-52
-52
-50
-49
-49
-48
-46
-45
-43
-43
-42
-40
-39
-37
-36
-34
-33
-32
-31
-29
-28
-26
-25
-24
-22
-22
-21
-20
-19
-18
-18
-17
-15
-15
-14
-13
-13
-12
-13
-11
-12
-11
-11
-11
-11
-11
-11
-11
-11
-11
-12
-12
-12
-13
-12
-12
-13
-13
-14
-15
-15
-16
-17
-17
-18
-20
-20
-20
-22
-23
-24
-26
-27
-29
-29
-31
-33
-34
-35
-37
-39
-41
-43
-46
-48
-51
-52
-55
-57
-59
-62
-65
-67
-69
-71
-74
-76
-78
-81
-83
-86
-88
-90
-93
-95
-97
-99
-101
-103
-105
-107
-108
-110
-112
-113
-115
-116
-118
-119
-121
-122
-123
-125
-127
-129
-130
-132
-133
-135
-137
-138
-139
-141
-142
-144
-145
-147
-148
-149
-150
-151
-152
-153
-154
-154
-155
-156
-157
-158
-158
-159
-159
-159
-159
-159
-159
-159
-159
-160
-160
-160
-160
-160
-161
-161
-161
-161
-162
-162
-161
-161
-162
-162
-162
-162
-162
-162
-163
-163
-163
-163
-163
-163
-163
-163
-164
-164
-164
-164
-164
-165
-165
-165
-165
-165
-164
-164
-164
-164
-164
-164
-164
-165
-165
-165
-165
-165
-165
-165
-165
-165
-165
-165
-165
-164
-164
-163
-163
-162
-161
-161
-160
-160
-160
-159
-159
-159
-159
-159
-158
-158
-158
-158
-158
-158
-158
-158
-158
-158
-158
-158
-159
-159
-160
-160
-160
-160
-160
-160
-160
-160
-160
-160
-159
-159
-159
-158
-158
-158
-156
-156
-156
-156
-156
-156
-155
-156
-156
-156
-155
-155
-155
-155
-155
-155
-155
-155
-155
-155
-155
-156
-156
-156
-155
-155
-156
-156
-157
-157
-157
-157
-157
-157
-157
-157
-157
-157
-157
-157
-157
-158
-158
-158
-159
-158
-158
-159
-159
-159
-160
-159
-159
-159
-159
-160
-159
-159
-159
-159
-160
-161
-161
-161
-162
-162
-162
-163
-163
-164
-164
-166
-166
-166
-166
-167
-167
-167
-167
-167
-168
-168
-168
-168
-168
-167
-168
-168
-168
-168
-167
-168
-168
-168
-168
-167
-166
-167
-167
-167
-167
-168
-168
-168
-168
-169
-169
-169
-170
-170
-171
-170
-171
-171
-171
-171
-172
-172
-172
-172
-172
-171
-171
-171
-172
-172
-172
-172
-172
-172
-172
-172
-172
-172
-172
-172
-172
-171
-171
-170
-171
-171
-171
-170
-170
-170
-170
-171
-171
-171
-171
-171
-171
-172
-172
-172
-172
-171
-171
-171
-172
-172
-172
-172
-172
-172
-172
-172
-172
-172
-172
-173
-173
-173
-173
-173
-173
-172
-172
-172
-172
-172
-172
-172
-172
-172
-172
-173
-172
-172
-172
-173
-173
-173
-172
-172
-172
-173
-172
-172
-172
-172
-171
-172
-172
-173
-172
-172
-172
-172
-173
-173
-173
-173
-173
-173
-173
-172
-172
-172
-172
-173
-173
-173
-173
-173
-173
-174
-174
-174
-174
-174
-174
-174
-174
-173
-173
-174
-174
-174
-174
-174
-174
-174
-174
-174
-175
-174
-174
-174
-174
-175
-175
-175
-174
-174
-174
-174
-174
-174
-173
-173
-173
-173
-172
-173
-173
-173
-174
-173
-173
-173
-173
-173
-173
-173
-173
-173
-173
-173
-174
-173
-173
-174
-174
-174
-175
-175
-176
-176
-176
-176
-176
-177
-177
-177
-177
-177
-177
-177
-176
-176
-176
-176
-175
-175
-175
-176
-175
-175
-175
-175
-175
-175
-175
-175
-175
-174
-174
-174
-174
-174
-174
-174
-174
-174
-174
-174
-173
-173
-174
-173
-173
-172
-172
-172
-172
-171
-170
-170
-169
-168
-168
-167
-166
-166
-166
-166
-166
-164
-164
-164
-163
-162
-162
-161
-161
-160
-159
-159
-159
-159
-159
-159
-158
-159
-159
-160
-159
-160
-159
-160
-160
-160
-161
-161
-161
-161
-162
-162
-162
-162
-163
-164
-164
-164
-165
-166
-166
-167
-167
-167
-167
-169
-169
-169
-169
-169
-169
-170
-170
-170
-170
-171
-171
-171
-171
-172
-172
-172
-172
-172
-172
-172
-172
-173
-173
-172
-173
-173
-173
-174
-174
-174
-174
-174
-176
-176
-176
-176
-177
-177
-177
-177
-178
-178
-178
-178
-178
-178
-178
-178
-178
-178
-178
-178
-178
-178
-178
-178
-178
-178
-177
-177
-177
-177
-177
-176
-175
-175
-175
-175
-175
-174
-174
-174
-175
-174
-174
-174
-174
-175
-175
-175
-173
-173
-173
-174
-173
-173
-173
-173
-174
-174
-174
-174
-174
-174
-173
-173
-173
-173
-173
-172
-172
-170
-168
-166
-164
-161
-158
-154
-150
-146
-142
-137
-132
-126
-121
-115
-109
-102
-95
-88
-80
-72
-64
-57
-48
-40
-32
-24
-17
-9
-4
2
7
12
17
20
21
21
19
18
14
7
0
-10
-21
-33
-48
-65
-83
-102
-123
-145
-168
-192
-216
-242
-267
-292
-317
-341
-364
-386
-406
-424
-441
-456
-470
-480
-489
-496
-501
-502
-502
-499
-493
-486
-477
-467
-454
-440
-426
-410
-393
-378
-361
-345
-329
-314
-298
-283
-270
-257
-245
-233
-222
-213
-204
-196
-189
-183
-177
-172
-167
-164
-161
-158
-156
-154
-153
-152
-151
-150
-151
-149
-149
-150
-149
-149
-149
-148
-148
-147
-146
-147
-146
-145
-145
-144
-143
-143
-142
-142
-142
-141
-140
-140
-139
-139
-139
-138
-138
-137
-137
-136
-136
-135
-135
-134
-134
-134
-134
-133
-133
-133
-133
-133
-133
-133
-132
-132
-132
-132
-132
-131
-130
-130
-129
-130
-129
-129
-129
-129
-128
-127
-127
-127
-127
-127
-125
-125
-124
-124
-124
-123
-122
-122
-122
-121
-120
-120
-120
-120
-120
-120
-120
-119
-119
-119
-119
-118
-118
-117
-117
-116
-115
-116
-115
-115
-114
-114
-113
-113
-112
-112
-112
-112
-111
-111
-111
-110
-110
-109
-109
-108
-107
-106
-106
-106
-105
-104
-104
-103
-103
-102
-101
-101
-100
-99
-98
-97
-96
-95
-95
-94
-92
-92
-91
-90
-89
-88
-88
-87
-86
-86
-85
-84
-83
-83
-82
-82
-81
-80
-79
-78
-76
-75
-74
-73
-72
-71
-69
-68
-67
-66
-64
-63
-62
-61
-58
-57
-56
-55
-52
-52
-50
-49
-47
-45
-45
-44
-42
-41
-40
-38
-37
-35
-35
-33
-32
-30
-30
-28
-27
-26
-25
-24
-23
-22
-21
-20
-19
-19
-18
-17
-17
-16
-15
-14
-13
-13
-12
-12
-12
-11
-11
-10
-11
-9
-11
-10
-10
-11
-11
-12
-12
-13
-14
-14
-15
-16
-17
-17
-18
-19
-20
-21
-22
-23
-23
-24
-26
-26
-27
-29
-31
-32
-33
-35
-36
-38
-39
-41
-42
-44
-46
-48
-50
-50
-53
-55
-57
-60
-61
-64
-66
-68
-70
-73
-75
-77
-79
-81
-83
-85
-87
-90
-92
-94
-96
-98
-100
-102
-104
-106
-108
-110
-112
-114
-116
-117
-119
-120
-123
-124
-125
-126
-128
-129
-131
-133
-134
-135
-137
-139
-140
-141
-142
-143
-144
-145
-147
-146
-148
-148
-149
-149
-150
-150
-150
-151
-152
-152
-153
-153
-154
-155
-155
-156
-156
-156
-156
-157
-158
-158
-158
-159
-159
-159
-159
-159
-159
-161
-161
-161
-162
-162
-162
-163
-163
-163
-163
-163
-163
-163
-162
-163
-163
-163
-163
-163
-163
-164
-164
-164
-164
-165
-165
-165
-165
-165
-165
-165
-165
-165
-165
-165
-165
-165
-165
-165
-165
-165
-165
-165
-166
-166
-166
-166
-166
-166
-165
-165
-165
-164
-164
-164
-164
-164
-164
-164
-164
-164
-163
-164
-163
-163
-162
-163
-163
-162
-162
-162
-162
-161
-161
-160
-160
-161
-160
-160
-160
-160
-160
-160
-160
-160
-160
-160
-160
-160
-159
-159
-159
-159
-158
-158
-158
-158
-157
-157
-157
-157
-157
-157
-156
-156
-156
-157
-157
-157
-156
-156
-156
-156
-155
-155
-156
-156
-156
-157
-157
-157
-157
-158
-158
-158
-158
-159
-159
-159
-159
-158
-158
-158
-159
-159
-159
-159
-158
-159
-159
-159
-159
-159
-159
-159
-160
-160
-159
-159
-159
-159
-160
-159
-159
-159
-159
-159
-159
-159
-160
-160
-160
-161
-162
-162
-161
-162
-162
-162
-163
-164
-164
-164
-164
-165
-165
-165
-165
-165
-165
-166
-166
-166
-167
-167
-167
-167
-167
-167
-167
-167
-166
-166
-166
-166
-166
-166
-166
-166
-167
-166
-166
-167
-167
-168
-168
-168
-168
-168
-168
-168
-169
-169
-169
-169
-169
-170
-170
-170
-171
-171
-171
-172
-171
-171
-171
-172
-172
-172
-172
-172
-172
-172
-171
-171
-171
-171
-171
-171
-172
-172
-172
-172
-173
-173
-173
-173
-173
-173
-173
-173
-173
-173
-173
-173
-173
-173
-174
-174
-174
-174
-174
-175
-175
-175
-175
-176
-176
-176
-176
-176
-175
-175
-175
-175
-175
-175
-175
-175
-174
-176
-176
-175
-175
-175
-175
-176
-176
-176
-176
-176
-175
-175
-175
-175
-175
-174
-174
-175
-175
-175
-174
-174
-175
-175
-175
-174
-174
-174
-174
-174
-174
-175
-174
-175
-175
-175
-176
-175
-176
-176
-176
-177
-177
-177
-177
-178
-178
-178
-178
-178
-177
-177
-177
-177
-176
-176
-176
-175
-175
-175
-175
-176
-175
-175
-175
-175
-174
-174
-174
-174
-174
-174
-174
-174
-174
-174
-175
-174
-174
-175
-176
-176
-176
-177
-177
-177
-177
-177
-177
-177
-177
-177
-176
-176
-177
-177
-177
-177
-177
-177
-176
-176
-177
-177
-177
-177
-177
-177
-177
-177
-177
-177
-177
-177
-177
-177
-177
-177
-177
-177
-177
-178
-178
-177
-177
-177
-178
-177
-177
-177
-177
-177
-176
-176
-176
-176
-174
-174
-174
-174
-173
-174
-174
-173
-172
-171
-172
-171
-170
-170
-169
-168
-167
-167
-166
-165
-164
-164
-163
-163
-162
-162
-162
-162
-161
-161
-161
-161
-161
-161
-161
-161
-161
-161
-162
-162
-163
-163
-163
-164
-164
-165
-165
-165
-166
-165
-166
-166
-166
-165
-165
-165
-165
-166
-165
-165
-167
-166
-167
-167
-168
-167
-168
-169
-169
-169
-170
-170
-170
-171
-171
-172
-172
-172
-173
-173
-173
-173
-174
-174
-174
-176
-176
-177
-177
-177
-178
-179
-179
-179
-179
-179
-179
-179
-179
-179
-179
-179
-179
-180
-180
-179
-180
-180
-180
-179
-179
-179
-179
-179
-179
-179
-178
-178
-178
-178
-178
-178
-178
-178
-178
-179
-179
-179
-179
-180
-180
-180
-180
-180
-180
-179
-179
-179
-179
-179
-179
-179
-179
-179
-179
-179
-180
-180
-180
-179
-179
-179
-179
-179
-179
-179
-180
-180
-179
-179
-179
-179
-179
-179
-178
-178
-178
-177
-176
-174
-173
-169
-167
-163
-159
-155
-151
-146
-141
-136
-130
-123
-117
-110
-104
-97
-89
-81
-72
-65
-57
-47
-39
-31
-24
-16
-9
-3
2
8
14
17
19
21
20
19
16
11
4
-4
-15
-26
-39
-53
-70
-88
-108
-129
-150
-174
-198
-222
-248
-273
-298
-322
-346
-368
-389
-409
-428
-444
-459
-471
-481
-489
-495
-498
-498
-497
-493
-488
-480
-470
-459
-447
-433
-419
-403
-388
-371
-356
-339
-324
-308
-293
-279
-266
-253
-241
-230
-220
-210
-202
-194
-187
-181
-176
-171
-167
-164
-161
-158
-156
-154
-152
-151
-150
-149
-148
-148
-147
-147
-146
-146
-146
-146
-145
-145
-144
-144
-144
-143
-142
-142
-141
-140
-139
-139
-139
-138
-138
-137
-137
-136
-136
-135
-135
-134
-134
-134
-132
-132
-131
-131
-130
-129
-129
-128
-129
-128
-128
-128
-127
-127
-127
-127
-127
-127
-127
-127
-126
-126
-126
-125
-125
-125
-125
-125
-124
-124
-124
-123
-123
-123
-124
-123
-123
-122
-122
-122
-122
-122
-121
-121
-121
-121
-120
-120
-119
-119
-119
-118
-118
-118
-117
-117
-117
-115
-115
-115
-114
-113
-113
-112
-111
-111
-110
-110
-109
-109
-108
-108
-107
-107
-107
-107
-106
-105
-105
-104
-104
-103
-102
-102
-101
-99
-99
-98
-97
-96
-95
-95
-94
-94
-93
-93
-92
-91
-90
-90
-89
-90
-89
-88
-87
-87
-86
-85
-84
-83
-82
-82
-81
-80
-80
-78
-77
-77
-75
-75
-74
-72
-71
-70
-69
-67
-66
-65
-64
-63
-60
-60
-58
-57
-56
-55
-54
-53
-52
-49
-48
-47
-45
-44
-42
-41
-40
-38
-37
-36
-34
-33
-31
-31
-29
-28
-27
-26
-25
-23
-23
-22
-21
-19
-18
-18
-16
-15
-14
-14
-12
-11
-10
-10
-9
-8
-7
-7
-6
-6
-5
-5
-5
-5
-4
-5
-5
-6
-6
-6
-6
-7
-8
-8
-9
-10
-10
-12
-12
-13
-14
-15
-15
-16
-17
-18
-18
-19
-20
-21
-22
-24
-25
-27
-29
-31
-33
-34
-37
-38
-40
-42
-44
-47
-49
-51
-54
-56
-58
-60
-63
-65
-68
-70
-73
-74
-77
-79
-81
-84
-86
-88
-90
-92
-94
-97
-99
-100
-102
-103
-105
-107
-109
-111
-112
-114
-116
-118
-119
-121
-123
-124
-125
-126
-128
-129
-130
-131
-132
-134
-135
-137
-138
-139
-140
-142
-143
-144
-145
-146
-146
-148
-149
-149
-150
-150
-152
-152
-152
-154
-154
-154
-155
-155
-156
-156
-157
-157
-158
-159
-158
-159
-159
-159
-159
-159
-160
-160
-160
-160
-160
-161
-161
-161
-162
-162
-162
-163
-163
-163
-164
-164
-164
-165
-164
-164
-164
-164
-165
-165
-165
-165
-165
-165
-166
-166
-166
-166
-166
-166
-166
-166
-166
-166
-165
-165
-165
-164
-164
-163
-163
-163
-163
-163
-163
-163
-163
-162
-162
-162
-161
-160
-161
-161
-160
-160
-160
-160
-159
-160
-160
-160
-160
-160
-160
-160
-160
-160
-160
-160
-159
-159
-158
-158
-158
-157
-157
-156
-155
-155
-155
-155
-154
-154
-154
-154
-153
-153
-153
-154
-154
-153
-153
-153
-154
-153
-153
-153
-153
-153
-153
-153
-154
-154
-154
-154
-154
-154
-154
-154
-154
-154
-154
-153
-153
-153
-153
-153
-153
-154
-154
-154
-154
-155
-155
-156
-156
-156
-156
-156
-157
-157
-157
-157
-157
-158
-158
-158
-158
-158
-158
-158
-159
-159
-158
-159
-159
-159
-160
-160
-161
-161
-161
-161
-161
-160
-161
-161
-161
-162
-162
-162
-163
-162
-163
-163
-163
-163
-164
-163
-163
-164
-164
-165
-164
-164
-164
-164
-164
-164
-164
-165
-165
-165
-166
-166
-166
-167
-167
-166
-166
-167
-167
-167
-167
-167
-167
-167
-168
-168
-168
-169
-169
-169
-169
-170
-170
-171
-171
-172
-172
-172
-171
-171
-171
-172
-172
-171
-171
-170
-170
-171
-170
-170
-170
-169
-170
-170
-170
-170
-170
-170
-170
-170
-169
-169
-170
-170
-170
-169
-169
-169
-169
-170
-170
-169
-170
-170
-170
-170
-169
-169
-169
-169
-170
-169
-169
-169
-170
-170
-170
-170
-170
-170
-170
-171
-171
-172
-172
-172
-173
-173
-173
-174
-173
-173
-173
-173
-174
-174
-174
-174
-174
-175
-175
-175
-175
-175
-175
-175
-175
-175
-174
-174
-175
-174
-174
-173
-173
-174
-173
-173
-173
-173
-173
-173
-173
-173
-173
-173
-173
-173
-173
-174
-173
-173
-173
-173
-173
-174
-174
-174
-174
-174
-174
-175
-175
-175
-175
-175
-175
-176
-176
-176
-175
-176
-176
-176
-176
-175
-175
-175
-175
-175
-176
-175
-175
-175
-175
-174
-175
-174
-174
-173
-174
-173
-172
-172
-172
-172
-172
-172
-172
-172
-172
-172
-173
-173
-173
-173
-173
-173
-173
-174
-174
-173
-173
-174
-174
-173
-173
-173
-173
-174
-174
-174
-174
-174
-173
-173
-173
-173
-173
-173
-172
-173
-172
-171
-172
-172
-172
-172
-171
-171
-171
-171
-171
-171
-170
-171
-170
-170
-170
-169
-168
-168
-167
-167
-167
-165
