# Simple Text Format
# Sampling Rate (Hz):= 1200.00
# Resolution:= 12
# Labels:= ECG	 V4
# Age:=	29
# Gender:=	Masculino
326
326
327
328
329
330
331
332
333
334
335
336
336
337
338
340
340
341
342
343
344
345
345
346
347
348
349
351
351
351
352
353
354
354
355
356
355
356
357
357
357
358
358
358
360
360
361
362
362
363
362
363
363
365
365
366
366
366
367
367
367
368
367
368
368
369
370
370
370
371
371
371
371
373
373
373
374
374
374
375
376
376
377
378
378
379
380
381
381
382
383
384
384
385
385
386
386
387
387
389
389
390
390
390
392
393
394
394
394
395
396
397
398
398
399
399
400
401
402
402
403
404
405
406
406
407
408
409
410
410
412
413
414
415
416
417
417
418
419
420
422
423
424
425
425
427
427
428
430
431
432
433
434
436
438
439
440
442
443
444
446
447
448
450
451
453
454
456
457
458
459
461
462
463
464
465
465
466
467
468
468
469
470
471
472
473
473
475
475
477
478
479
480
480
482
482
483
483
483
484
485
485
486
486
487
487
487
488
488
488
488
488
487
487
486
486
485
484
483
482
482
481
480
480
479
478
477
476
475
474
473
472
472
470
469
467
467
465
464
463
462
460
459
457
456
455
452
451
450
448
447
444
442
440
438
436
434
432
429
427
425
423
421
419
417
415
414
413
410
409
408
406
405
404
402
401
400
399
398
397
395
394
394
392
391
391
390
389
388
388
386
386
384
383
383
382
381
380
379
379
378
377
376
375
374
375
374
373
373
372
372
372
371
371
370
370
369
369
369
369
368
368
367
367
367
367
366
366
366
366
365
365
365
365
365
364
364
364
364
364
364
364
364
364
364
364
365
364
364
364
365
365
365
364
364
364
364
363
363
363
363
363
363
363
363
363
362
362
362
362
362
362
362
362
362
362
362
363
363
363
362
362
362
362
362
362
363
363
363
363
363
362
362
362
362
362
361
362
362
361
360
360
360
360
360
360
360
360
360
360
360
359
359
359
358
358
358
358
359
359
358
359
359
358
359
359
359
360
360
360
360
360
360
360
360
359
360
360
359
358
359
359
358
357
357
357
357
357
357
357
356
356
356
355
355
355
354
354
353
353
353
353
353
353
353
353
353
353
353
353
353
353
353
352
353
353
352
352
352
352
351
351
350
350
350
350
350
350
349
350
349
349
348
348
348
347
347
346
346
346
344
344
344
344
344
344
343
343
343
341
341
341
341
341
342
341
341
340
340
340
340
339
339
339
339
340
339
340
340
340
340
339
339
339
339
339
340
339
339
339
340
339
339
339
340
340
340
340
339
340
340
340
340
339
339
338
338
338
338
337
337
336
336
336
336
336
336
335
336
335
336
336
336
336
335
335
335
335
335
335
334
334
334
334
334
333
332
332
332
332
331
331
331
330
329
329
329
328
328
328
328
327
327
326
326
326
327
327
327
327
327
327
327
327
328
328
328
327
327
327
328
328
328
328
328
328
329
329
329
329
329
329
329
329
329
328
328
328
327
327
327
326
326
326
326
326
326
326
325
325
325
325
325
326
325
325
326
325
325
325
324
324
324
324
324
324
324
324
324
324
323
323
324
323
323
323
323
323
322
323
322
323
323
323
323
322
322
322
322
322
322
322
322
322
322
321
321
320
321
321
320
320
319
319
319
319
319
319
318
318
318
318
318
318
318
318
317
317
317
317
317
317
317
316
316
316
316
317
317
317
317
317
317
317
317
317
316
316
317
317
316
317
317
316
317
317
317
318
318
318
318
319
319
320
319
320
320
320
320
321
321
320
320
321
321
321
321
322
321
321
322
322
322
322
322
321
322
322
322
321
321
321
321
322
322
322
321
322
322
322
322
322
322
322
322
321
321
320
320
319
319
319
319
319
317
317
317
317
316
316
316
315
315
314
314
313
313
312
312
312
312
311
311
311
311
311
311
310
310
311
311
311
311
310
310
309
309
309
309
308
308
307
307
306
305
305
305
305
304
303
303
303
303
302
302
302
302
301
301
301
300
301
301
301
301
301
301
301
301
301
301
302
301
301
301
301
301
300
300
300
299
299
299
298
298
298
298
299
298
297
297
298
298
297
297
297
297
298
297
297
297
296
296
295
295
295
294
292
291
290
288
287
284
282
280
278
276
274
272
271
269
269
269
269
272
274
278
282
288
295
303
313
323
335
349
363
379
396
416
435
457
479
503
529
555
583
611
639
666
694
721
746
771
792
811
828
842
852
857
859
856
849
839
825
808
787
764
737
708
678
646
613
580
547
515
485
456
428
403
380
359
341
325
312
300
291
284
278
274
271
270
269
269
270
271
273
274
277
278
281
283
285
287
289
290
292
293
294
295
295
296
296
295
295
294
294
293
292
292
291
290
289
289
288
288
288
287
287
286
286
286
285
285
284
284
284
283
283
283
283
283
282
282
282
283
283
283
284
284
284
286
285
285
286
286
287
287
288
288
288
288
289
289
289
289
289
289
288
289
289
289
288
288
288
288
288
287
288
288
288
288
288
287
288
288
288
288
289
289
289
290
290
291
291
291
291
292
292
292
292
292
292
291
292
292
293
292
292
293
292
293
293
292
293
292
292
292
293
293
293
293
293
293
293
294
294
294
296
296
297
297
298
298
298
299
300
300
300
300
301
301
302
303
302
303
303
304
305
304
305
305
305
306
306
306
307
307
307
307
308
308
308
309
309
310
311
311
311
312
313
314
315
315
316
317
317
318
320
320
321
322
322
324
324
325
326
326
328
329
329
330
333
333
333
335
336
336
337
338
338
340
341
342
343
344
345
346
346
348
349
350
351
351
353
354
355
355
357
358
359
360
360
362
362
365
365
367
368
369
370
371
372
373
374
374
376
376
377
377
378
379
380
379
380
381
381
382
382
382
383
383
383
383
383
383
383
383
383
382
382
382
382
381
382
381
381
380
380
380
379
378
378
378
377
376
374
373
372
371
370
368
366
365
363
362
360
358
357
354
353
351
349
346
344
342
340
338
335
333
331
329
326
324
321
320
318
316
314
312
310
308
307
305
303
302
301
299
297
295
294
292
290
289
287
285
284
283
281
280
278
277
275
274
273
271
270
269
268
267
266
264
263
262
262
261
260
259
259
258
257
257
257
256
255
255
254
254
253
253
252
252
252
252
252
251
251
251
250
250
250
250
250
250
251
251
250
250
250
250
250
250
250
249
249
249
249
249
249
249
249
248
248
248
248
248
248
247
247
246
246
245
245
245
245
244
244
244
244
244
243
243
243
243
243
243
243
243
242
242
242
242
242
241
241
241
241
242
242
242
242
242
242
241
241
242
242
242
241
241
241
240
240
240
239
239
239
239
239
239
239
239
239
239
238
238
238
238
238
237
237
237
237
237
237
236
236
236
236
236
236
236
236
236
236
236
236
236
235
235
235
235
234
234
234
234
234
233
233
233
233
233
233
232
231
231
232
231
231
230
230
231
230
230
230
230
229
230
230
231
230
230
230
230
230
230
230
229
229
228
228
228
228
227
226
226
226
226
226
225
225
225
225
225
224
224
224
223
224
223
223
222
221
222
222
221
222
221
221
221
221
221
221
221
221
221
219
220
220
219
219
219
220
219
219
219
219
219
219
219
219
219
219
219
219
218
218
218
217
217
216
216
216
215
215
215
215
214
214
214
214
212
212
212
212
212
212
212
211
211
211
211
211
210
211
211
211
211
211
211
211
211
210
210
210
210
210
210
209
208
208
208
208
207
206
206
206
206
206
207
207
206
207
207
206
206
206
206
205
205
205
204
204
205
204
204
204
204
204
204
205
204
204
205
205
204
204
204
204
204
204
204
204
204
204
204
204
204
204
203
203
203
203
203
203
203
203
203
202
202
202
202
202
201
200
200
200
200
200
200
200
200
200
200
199
199
200
200
199
200
200
200
200
200
200
200
200
200
202
201
201
201
201
201
201
201
200
200
201
200
200
199
199
198
198
198
198
198
198
198
198
197
198
197
197
196
196
195
194
195
195
195
195
194
194
194
194
194
194
194
194
195
195
195
195
195
195
196
196
196
196
196
196
195
195
195
195
195
195
195
195
195
194
194
194
194
193
193
193
192
192
191
190
190
190
189
189
189
189
189
189
189
189
189
188
189
189
188
188
188
188
189
188
188
188
188
189
189
189
188
188
188
188
188
188
188
188
189
188
188
188
188
188
188
188
188
189
189
189
189
190
190
190
190
191
191
190
190
191
191
191
191
191
191
191
191
192
192
193
193
193
193
193
194
194
194
194
194
194
194
194
194
194
194
195
195
195
194
195
195
196
196
195
195
195
195
195
195
195
195
195
195
195
194
194
194
194
193
193
192
192
192
192
192
191
191
189
189
189
188
188
187
186
186
186
184
184
184
183
184
184
183
183
183
183
183
181
181
181
180
180
180
179
180
179
179
179
178
178
178
177
177
177
177
177
176
176
175
175
175
175
175
174
174
174
174
173
174
174
174
173
173
173
173
173
172
172
172
171
171
170
170
171
170
170
170
170
170
170
170
170
170
170
170
169
170
170
170
169
169
169
169
169
170
169
169
169
169
168
169
169
168
167
166
166
166
164
164
163
161
160
159
158
158
157
157
157
157
158
160
162
166
168
174
179
186
194
202
212
222
235
248
263
278
295
313
332
352
373
396
419
444
468
493
517
541
564
587
608
627
643
658
670
678
682
683
681
675
666
653
638
619
598
575
549
521
493
463
434
404
376
348
322
297
275
254
236
219
204
192
181
172
165
159
155
152
150
148
148
149
149
151
152
155
157
159
161
163
165
168
169
170
172
172
173
172
173
173
173
172
172
170
170
169
168
168
167
167
166
165
165
165
165
165
165
165
165
165
165
165
165
166
166
167
166
167
167
167
167
168
168
168
168
169
169
169
169
168
168
169
169
168
168
168
168
168
169
169
169
169
169
169
169
170
170
170
170
170
171
170
170
170
171
171
171
171
171
171
171
171
172
172
172
171
171
171
172
171
171
172
172
172
172
172
172
172
172
171
172
172
171
172
172
172
173
173
173
173
173
173
173
173
173
173
173
174
174
174
174
175
175
175
176
176
176
177
177
177
177
177
177
177
177
177
178
178
178
178
179
179
180
181
181
182
182
182
183
183
183
183
184
184
184
184
185
185
186
186
187
188
189
189
190
190
190
192
192
193
193
194
194
195
195
196
197
197
198
198
199
200
201
202
203
204
204
205
206
206
208
208
209
210
211
211
212
213
214
215
216
216
218
219
220
221
222
223
224
224
225
227
228
228
230
231
233
234
235
236
238
239
240
241
242
243
244
246
247
248
248
250
250
251
252
252
253
254
255
255
256
257
256
257
257
258
259
259
259
259
259
260
259
260
260
260
260
260
260
260
259
259
259
259
258
258
258
257
256
255
254
253
252
251
250
249
247
246
245
244
243
242
240
239
237
236
235
233
231
229
227
225
224
222
220
218
216
214
213
211
209
207
205
204
202
200
198
197
195
192
191
189
186
184
183
181
179
177
176
174
172
171
169
168
167
165
164
163
162
161
160
159
157
157
156
155
154
153
152
152
150
150
150
149
149
148
147
147
146
146
145
146
145
145
144
144
143
143
143
141
141
141
141
141
141
140
140
140
139
139
139
138
138
138
137
137
137
137
137
136
136
136
136
136
135
136
135
135
135
135
134
134
133
133
133
132
132
132
132
131
131
131
131
130
130
130
130
130
130
130
130
130
129
129
129
129
129
129
129
129
129
129
129
129
129
129
129
129
130
130
129
129
129
129
129
129
129
129
129
129
129
128
128
128
128
129
129
129
129
128
128
128
128
128
128
128
128
128
128
128
127
127
127
127
127
126
126
126
126
126
125
125
125
125
125
124
124
124
124
124
124
124
124
125
125
125
125
125
125
125
126
125
125
125
124
124
124
124
123
123
123
123
123
123
123
122
122
122
122
121
121
121
120
120
120
119
119
119
119
119
119
118
118
118
117
117
117
117
117
117
116
117
116
116
116
116
115
115
115
115
115
116
116
116
116
116
116
116
116
116
116
115
115
115
115
114
115
115
114
114
114
113
113
113
112
112
111
111
111
111
111
110
110
110
110
109
109
109
109
109
109
109
109
109
110
111
110
111
110
110
110
110
110
110
110
110
110
110
110
110
110
109
109
109
109
109
109
109
109
109
108
108
107
107
107
107
107
106
106
106
105
105
105
105
105
105
105
105
105
104
104
103
103
103
102
102
102
101
101
101
101
101
101
101
101
101
101
101
101
101
101
100
101
101
101
101
100
100
100
100
100
101
101
101
101
100
100
100
100
100
100
100
99
99
99
99
99
99
99
99
99
99
100
100
99
99
99
99
99
99
99
98
98
98
98
98
98
98
98
98
98
98
97
97
97
97
97
97
97
96
96
96
97
96
95
95
95
95
94
94
95
95
94
94
94
94
94
94
94
93
93
93
92
92
93
93
92
92
92
93
93
93
93
93
92
93
93
93
92
92
92
93
92
92
92
92
91
91
91
91
91
91
91
91
91
91
91
91
91
91
91
90
90
90
90
89
89
89
89
89
89
89
90
90
89
89
89
89
89
89
89
89
88
88
88
88
87
87
87
87
86
87
87
87
87
86
86
86
86
86
86
86
86
86
86
87
86
86
86
86
87
86
86
87
87
87
87
87
87
87
87
86
86
86
86
85
85
85
84
84
84
83
84
84
84
83
83
82
82
82
82
82
81
81
81
81
81
80
80
81
81
80
81
82
81
81
82
81
81
82
82
81
82
81
81
82
82
81
81
81
81
81
82
82
82
82
82
83
83
83
82
83
84
84
84
84
84
85
85
86
86
86
87
87
87
88
88
88
88
88
88
88
89
89
89
89
89
89
89
88
88
89
89
89
90
90
89
89
89
89
89
88
88
88
88
86
87
85
85
85
85
84
84
84
83
82
82
82
82
81
81
80
80
80
78
78
78
77
77
76
76
76
75
75
75
75
74
74
74
74
74
73
74
73
73
73
72
72
73
72
73
73
72
73
71
72
72
72
72
71
71
70
69
69
68
69
68
67
67
67
66
67
67
67
67
67
66
66
67
67
67
67
66
66
66
67
67
67
67
67
68
68
69
69
69
69
69
69
69
69
70
69
69
69
69
68
68
68
68
67
67
67
66
66
66
66
64
65
64
62
62
61
60
58
57
56
55
54
53
52
51
50
50
50
52
52
54
57
60
64
69
75
82
89
98
109
120
132
145
160
176
191
209
229
248
269
291
314
337
360
383
406
428
449
470
488
505
520
532
541
547
549
549
545
538
528
516
500
482
461
438
413
388
360
333
306
279
253
228
205
183
162
145
128
113
99
88
79
70
63
58
54
52
49
48
48
49
49
50
52
54
56
59
61
63
65
67
68
70
71
72
71
72
72
72
72
71
71
70
70
70
69
68
67
67
67
66
66
65
65
64
64
64
63
63
63
62
62
62
62
63
63
62
62
62
63
63
63
64
64
64
64
64
65
65
65
64
65
66
66
66
66
66
66
67
67
67
66
66
67
67
67
66
66
66
66
66
66
67
67
67
67
67
67
67
68
68
69
69
69
68
69
69
69
69
69
69
69
69
70
70
70
71
71
71
71
71
71
71
71
72
72
72
72
72
73
73
73
73
73
74
74
75
75
76
76
76
76
77
77
78
78
78
78
78
79
80
80
80
81
81
82
83
83
84
84
85
85
86
86
86
87
88
88
88
89
89
89
89
90
89
90
90
90
90
91
92
91
92
92
92
93
93
94
94
95
95
96
97
97
98
98
99
100
101
102
103
104
104
105
106
106
107
108
108
110
111
111
112
114
113
115
116
117
118
119
120
121
122
122
123
124
124
126
127
128
128
130
131
132
133
135
136
137
138
139
140
141
143
144
146
146
147
149
149
150
151
152
152
153
154
155
155
156
157
158
158
159
159
159
160
160
161
161
161
160
161
161
161
161
161
161
161
161
161
161
161
161
160
160
159
159
158
157
157
156
155
155
154
152
152
151
150
149
149
147
146
145
143
142
141
140
138
137
135
133
133
131
129
128
126
124
122
120
118
116
115
113
111
109
107
105
104
102
100
99
97
96
94
92
91
89
88
87
86
85
83
82
81
79
78
77
75
74
73
72
70
69
68
68
67
65
65
64
63
62
62
61
60
59
58
58
57
56
55
55
54
53
53
52
52
51
50
50
50
50
49
49
49
48
48
48
47
47
47
46
46
45
45
46
46
46
45
45
44
44
44
45
44
44
44
44
44
44
44
44
43
43
43
44
45
45
45
45
45
45
46
46
45
45
46
46
45
45
45
45
45
44
44
44
44
44
44
44
44
44
44
45
44
44
44
44
44
43
43
43
43
43
42
42
42
41
42
42
41
41
41
41
41
40
40
40
39
40
40
39
39
40
40
40
40
40
40
40
40
40
40
41
41
41
41
41
41
40
40
39
39
40
38
39
37
38
38
37
37
37
37
36
36
36
36
36
35
36
36
36
35
36
36
36
36
37
37
37
37
38
37
38
38
38
38
38
38
38
37
37
37
37
37
37
36
36
35
36
35
34
34
35
34
34
34
34
33
33
33
33
33
33
33
33
33
32
33
33
32
32
31
31
31
30
30
29
29
28
28
28
27
27
27
26
26
26
25
25
25
25
26
26
26
25
25
25
25
25
25
26
25
25
26
25
25
26
26
26
26
26
26
26
26
25
24
24
24
24
24
24
23
23
23
22
22
22
22
22
22
22
21
21
21
21
21
22
22
21
21
21
21
21
21
21
21
21
22
22
22
22
22
21
21
22
22
22
21
21
21
21
20
20
20
20
20
20
19
19
19
19
19
19
19
19
18
18
19
18
18
18
18
17
17
17
17
18
18
18
18
18
18
18
18
18
18
17
17
17
17
17
16
16
16
16
16
15
15
16
16
16
16
16
16
16
16
16
16
15
15
15
16
16
16
16
16
15
15
15
15
15
15
15
15
14
14
14
14
14
13
13
13
14
14
14
14
14
15
15
15
15
16
16
16
17
17
17
16
17
17
17
17
16
16
16
16
17
17
17
17
17
17
17
17
17
17
17
16
17
17
17
17
17
17
17
17
17
17
17
17
17
16
17
16
16
16
16
16
15
15
16
15
15
15
15
15
15
15
15
15
15
16
16
16
16
16
16
17
16
16
16
16
16
15
15
15
16
15
15
15
15
14
14
14
14
14
13
14
14
14
14
13
14
14
14
14
14
14
15
15
15
15
15
15
15
15
15
14
14
14
14
14
13
13
13
13
13
13
14
14
14
14
14
14
14
14
15
15
15
15
15
16
15
16
16
16
16
17
18
18
18
18
19
19
20
19
20
20
20
20
20
20
20
20
20
21
20
21
20
21
21
22
21
22
22
21
21
21
21
21
22
22
22
22
22
23
23
24
23
23
23
23
23
23
23
23
23
23
22
22
21
21
20
20
19
18
18
18
18
17
16
16
15
15
15
15
14
14
14
14
14
14
13
13
13
14
14
14
14
15
14
15
15
15
15
15
15
15
15
15
15
14
14
14
14
13
13
13
13
13
12
11
11
11
11
10
10
9
9
10
9
9
9
8
9
9
9
9
9
9
9
9
8
8
7
7
7
7
7
7
6
6
5
6
6
6
6
7
7
7
7
7
7
7
8
8
8
9
8
8
8
8
7
7
6
6
5
3
2
1
-1
-2
-4
-5
-8
-9
-11
-12
-12
-14
-14
-14
-13
-11
-9
-4
0
5
13
20
29
38
51
63
77
92
109
126
145
165
187
210
233
258
284
311
336
363
388
413
437
460
480
499
514
526
535
540
542
539
533
523
510
495
475
454
429
402
373
344
313
284
253
224
196
169
144
120
99
79
63
48
35
25
15
8
3
-2
-4
-6
-7
-7
-7
-6
-5
-3
-1
1
3
4
6
8
9
11
13
13
14
15
15
16
16
16
16
16
15
15
14
13
13
12
11
11
11
9
9
9
9
9
9
9
9
9
9
8
9
9
9
8
9
9
9
9
9
8
9
9
9
9
9
10
9
10
10
10
10
10
10
10
10
10
10
10
9
10
10
10
10
11
10
11
11
11
11
11
11
12
12
12
12
13
13
13
13
13
13
13
13
14
14
14
14
16
15
15
16
16
16
16
16
16
16
16
17
17
18
18
18
18
18
19
19
19
20
20
20
20
20
20
20
20
20
21
21
21
22
22
22
23
22
22
22
23
23
24
24
24
24
24
24
24
25
25
25
26
26
27
27
28
29
30
30
31
32
33
33
33
34
34
34
35
35
35
36
36
36
36
37
38
38
38
39
39
40
41
41
42
43
43
44
45
45
46
46
48
49
50
51
51
53
53
53
55
56
57
57
58
60
61
62
62
63
64
65
66
67
68
69
70
72
73
74
75
76
77
79
79
79
81
82
82
83
84
85
86
87
88
89
90
91
92
93
94
95
96
97
98
98
99
100
101
101
103
103
105
105
106
106
107
108
108
109
109
109
109
110
110
110
109
109
108
108
109
108
107
107
107
106
106
105
104
104
103
103
102
101
100
99
98
96
95
94
93
92
91
89
88
87
86
85
83
82
80
79
77
75
73
71
69
67
65
63
61
60
57
55
54
52
51
48
47
45
44
41
40
38
36
36
33
32
30
29
27
25
24
23
22
20
18
18
16
15
14
12
11
10
8
7
6
4
3
2
1
0
-1
-2
-2
-3
-3
-5
-5
-5
-6
-6
-7
-7
-8
-8
-9
-9
-10
-10
-11
-11
-12
-12
-12
-12
-12
-12
-13
-13
-13
-13
-13
-13
-13
-13
-14
-14
-14
-15
-16
-15
-15
-16
-16
-16
-16
-16
-16
-16
-16
-16
-16
-16
-16
-16
-16
-16
-16
-17
-17
-17
-17
-17
-17
-17
-17
-16
-16
-16
-16
-16
-16
-16
-16
-16
-16
-15
-16
-16
-16
-15
-16
-16
-15
-15
-15
-15
-15
-15
-14
-15
-15
-15
-15
-15
-15
-16
-16
-16
-17
-16
-17
-18
-18
-18
-18
-18
-17
-17
-17
-18
-18
-17
-18
-18
-18
-18
-18
-18
-18
-18
-18
-18
-18
-18
-18
-17
-17
-17
-17
-17
-17
-17
-17
-17
-18
-17
-17
-17
-18
-17
-17
-17
-17
-17
-17
-17
-17
-17
-17
-18
-18
-18
-19
-19
-19
-19
-20
-20
-20
-20
-20
-21
-21
-21
-21
-21
-21
-21
-21
-21
-21
-21
-22
-22
-22
-23
-23
-23
-24
-24
-25
-26
-26
-26
-26
-26
-27
-27
-27
-27
-27
-28
-27
-27
-27
-28
-28
-28
-27
-28
-28
-28
-28
-27
-27
-27
-27
-27
-28
-28
-28
-29
-29
-29
-30
-30
-31
-31
-31
-32
-32
-32
-33
-33
-33
-33
-34
-33
-33
-33
-33
-33
-33
-34
-34
-33
-33
-33
-34
-34
-33
-33
-33
-33
-33
-33
-32
-32
-32
-32
-32
-32
-32
-32
-33
-33
-33
-33
-34
-33
-33
-33
-34
-34
-34
-34
-34
-34
-34
-35
-35
-35
-35
-35
-36
-36
-35
-35
-36
-36
-36
-36
-36
-36
-36
-36
-36
-37
-37
-36
-36
-36
-36
-36
-36
-37
-37
-37
-37
-38
-38
-38
-38
-38
-38
-38
-38
-38
-38
-38
-39
-38
-38
-38
-38
-38
-39
-39
-39
-39
-39
-39
-39
-39
-39
-39
-39
-39
-39
-39
-39
-39
-39
-39
-39
-38
-39
-39
-38
-38
-39
-39
-39
-39
-39
-38
-38
-38
-38
-38
-39
-39
-39
-40
-39
-41
-41
-41
-41
-41
-42
-41
-41
-42
-42
-42
-42
-42
-42
-41
-41
-42
-41
-41
-41
-41
-42
-41
-41
-41
-40
-40
-40
-40
-40
-40
-41
-41
-41
-41
-41
-41
-42
-42
-42
-42
-42
-42
-42
-42
-42
-42
-42
-43
-42
-43
-42
-41
-41
-41
-41
-41
-42
-42
-41
-41
-42
-41
-41
-41
-42
-42
-42
-42
-42
-41
-42
-42
-42
-42
-43
-43
-43
-43
-43
-44
-44
-44
-44
-44
-45
-45
-45
-45
-45
-45
-45
-45
-45
-45
-44
-44
-45
-45
-45
-45
-46
-45
-45
-45
-45
-45
-45
-45
-45
-45
-45
-45
-44
-45
-45
-44
-44
-44
-43
-43
-43
-43
-42
-42
-42
-41
-41
-41
-41
-41
-41
-40
-40
-40
-40
-40
-39
-39
-39
-38
-38
-38
-37
-37
-36
-36
-36
-35
-35
-36
-35
-35
-35
-34
-34
-34
-35
-35
-35
-35
-35
-35
-35
-35
-35
-35
-34
-34
-34
-33
-34
-34
-34
-33
-34
-34
-34
-34
-34
-35
-34
-35
-35
-36
-36
-36
-36
-37
-37
-38
-38
-38
-38
-40
-40
-40
-40
-40
-41
-41
-41
-42
-42
-42
-42
-42
-42
-42
-41
-42
-42
-42
-41
-41
-42
-41
-41
-41
-41
-42
-42
-41
-41
-42
-42
-42
-43
-43
-43
-43
-43
-43
-43
-44
-44
-44
-44
-45
-45
-46
-46
-47
-47
-47
-48
-48
-48
-48
-48
-48
-48
-48
-48
-48
-48
-48
-48
-48
-49
-49
-49
-50
-50
-50
-49
-50
-50
-50
-51
-50
-50
-50
-50
-50
-50
-49
-49
-49
-49
-49
-50
-49
-48
-49
-49
-49
-49
-49
-49
-49
-49
-50
-50
-50
-51
-52
-53
-54
-55
-56
-57
-59
-60
-60
-61
-61
-61
-61
-59
-56
-54
-51
-47
-42
-36
-28
-20
-13
-2
8
20
33
47
63
79
96
114
133
154
175
199
221
245
267
291
312
334
354
372
389
404
415
425
431
433
433
429
422
413
400
384
367
346
323
298
272
246
218
191
165
139
115
91
69
49
31
15
0
-13
-24
-34
-41
-46
-51
-54
-57
-58
-60
-60
-59
-58
-56
-55
-53
-51
-49
-48
-44
-44
-42
-41
-39
-38
-38
-37
-37
-36
-36
-37
-37
-37
-37
-39
-39
-39
-39
-40
-40
-40
-40
-40
-40
-40
-40
-41
-41
-41
-41
-41
-40
-41
-42
-42
-42
-42
-42
-42
-42
-43
-42
-42
-43
-43
-43
-43
-43
-43
-43
-43
-43
-42
-42
-42
-42
-41
-41
-41
-40
-40
-40
-39
-39
-39
-39
-38
-38
-38
-38
-38
-38
-38
-37
-38
-38
-37
-38
-38
-38
-38
-37
-38
-38
-37
-37
-37
-36
-36
-36
-36
-37
-37
-37
-36
-36
-36
-36
-36
-35
-34
-34
-34
-33
-33
-33
-33
-32
-31
-31
-31
-31
-31
-31
-31
-31
-30
-29
-29
-29
-28
-29
-28
-28
-27
-27
-27
-26
-26
-26
-26
-26
-25
-24
-24
-24
-23
-23
-23
-22
-21
-21
-20
-19
-19
-18
-18
-18
-17
-17
-16
-16
-16
-16
-15
-16
-15
-15
-15
-15
-14
-14
-13
-13
-12
-12
-12
-11
-11
-10
-10
-9
-8
-8
-7
-6
-5
-4
-4
-3
-2
-1
0
1
2
3
4
6
7
8
8
9
11
11
12
13
14
15
16
17
17
18
20
21
22
23
23
24
26
26
28
29
29
31
32
33
35
36
37
38
39
40
42
43
44
45
46
48
49
50
50
52
53
54
55
55
57
57
59
60
61
62
62
63
64
65
66
66
66
67
67
66
66
66
66
66
65
65
65
65
65
65
64
64
64
63
63
63
62
61
61
60
60
59
58
58
56
55
54
53
52
51
50
49
47
46
45
43
40
39
37
35
33
31
30
28
26
24
22
20
18
17
16
14
12
10
9
7
6
4
3
1
-1
-3
-4
-6
-7
-9
-10
-11
-13
-14
-15
-17
-19
-20
-21
-23
-24
-25
-26
-27
-28
-28
-30
-30
-31
-32
-32
-33
-33
-34
-34
-34
-35
-35
-36
-36
-37
-37
-39
-39
-40
-41
-41
-41
-42
-42
-43
-44
-44
-44
-44
-44
-45
-45
-45
-45
-45
-46
-46
-46
-47
-46
-47
-47
-47
-47
-48
-48
-49
-48
-49
-49
-49
-49
-49
-49
-49
-49
-50
-50
-50
-50
-50
-50
-51
-51
-51
-51
-51
-51
-50
-50
-50
-50
-50
-50
-50
-50
-49
-50
-50
-50
-50
-51
-50
-50
-50
-50
-50
-50
-50
-50
-50
-50
-50
-50
-50
-50
-50
-51
-51
-51
-51
-51
-52
-52
-51
-51
-51
-51
-51
-51
-51
-51
-50
-50
-50
-51
-51
-51
-52
-51
-51
-51
-52
-52
-52
-52
-52
-52
-53
-53
-53
-53
-53
-53
-53
-53
-54
-54
-54
-54
-54
-53
-54
-54
-54
-54
-54
-54
-53
-53
-53
-53
-53
-53
-54
-54
-54
-54
-54
-54
-55
-55
-55
-56
-56
-56
-56
-57
-57
-57
-57
-57
-57
-57
-58
-58
-58
-59
-59
-59
-59
-60
-59
-59
-59
-59
-59
-59
-60
-59
-59
-59
-60
-59
-59
-60
-60
-60
-60
-60
-60
-61
-61
-62
-62
-63
-63
-63
-63
-63
-64
-64
-63
-63
-63
-64
-64
-64
-64
-64
-65
-66
-65
-65
-65
-65
-65
-65
-65
-65
-65
-65
-63
-63
-63
-64
-64
-63
-63
-64
-63
-63
-63
-63
-63
-63
-63
-63
-64
-64
-64
-64
-64
-64
-65
-65
-65
-65
-66
-67
-67
-67
-66
-68
-67
-67
-67
-67
-67
-67
-67
-67
-66
-67
-67
-67
-67
-67
-67
-67
-67
-68
-68
-68
-68
-68
-68
-68
-68
-68
-68
-69
-69
-69
-69
-69
-68
-68
-69
-69
-69
-69
-70
-70
-70
-70
-70
-70
-69
-70
-70
-70
-70
-69
-70
-70
-70
-69
-69
-69
-69
-69
-70
-70
-69
-69
-69
-69
-69
-69
-69
-70
-70
-70
-70
-70
-70
-71
-71
-71
-72
-72
-72
-72
-73
-73
-73
-73
-73
-73
-73
-74
-73
-73
-73
-74
-74
-74
-74
-74
-74
-74
-74
-74
-74
-73
-73
-73
-73
-73
-73
-73
-72
-72
-72
-73
-73
-72
-72
-72
-72
-72
-73
-73
-73
-72
-72
-72
-72
-72
-72
-73
-73
-72
-73
-73
-73
-73
-73
-74
-74
-74
-74
-74
-74
-74
-74
-74
-74
-75
-75
-75
-75
-74
-74
-74
-74
-74
-75
-74
-74
-74
-75
-75
-75
-75
-74
-74
-74
-75
-75
-75
-74
-74
-74
-74
-75
-74
-75
-75
-75
-75
-75
-75
-75
-75
-75
-75
-75
-74
-74
-74
-74
-74
-74
-73
-73
-73
-73
-73
-73
-72
-73
-73
-73
-71
-71
-71
-71
-70
-69
-69
-69
-69
-68
-68
-68
-67
-67
-67
-66
-66
-66
-66
-66
-66
-66
-65
-66
-65
-65
-65
-65
-64
-64
-64
-65
-64
-64
-64
-64
-64
-64
-64
-64
-65
-65
-65
-64
-64
-64
-64
-64
-65
-65
-65
-66
-66
-67
-68
-68
-69
-69
-70
-70
-70
-72
-72
-72
-72
-72
-73
-73
-74
-75
-75
-75
-75
-75
-76
-76
-76
-76
-77
-76
-76
-76
-76
-76
-76
-76
-76
-76
-76
-76
-77
-77
-77
-78
-78
-78
-78
-79
-80
-79
-80
-81
-81
-81
-81
-81
-81
-81
-81
-81
-82
-81
-81
-81
-81
-81
-81
-81
-81
-81
-81
-81
-81
-81
-82
-82
-82
-82
-82
-82
-82
-83
-83
-83
-84
-84
-84
-84
-84
-83
-84
-84
-84
-83
-83
-82
-82
-82
-81
-81
-81
-81
-80
-80
-81
-80
-81
-81
-82
-82
-82
-84
-85
-86
-87
-88
-89
-90
-91
-91
-92
-93
-93
-93
-93
-91
-89
-87
-82
-78
-72
-66
-59
-50
-40
-29
-17
-6
9
23
39
56
74
93
114
135
158
181
204
228
251
274
297
318
337
356
372
386
397
404
408
409
407
402
393
381
367
350
330
308
283
258
231
204
177
149
124
99
75
53
32
12
-5
-21
-33
-45
-55
-64
-71
-76
-79
-83
-85
-87
-86
-87
-86
-85
-84
-83
-81
-79
-77
-75
-75
-73
-72
-71
-70
-69
-68
-68
-68
-68
-68
-68
-68
-69
-69
-69
-70
-71
-71
-72
-72
-72
-74
-73
-74
-74
-74
-74
-75
-75
-75
-75
-75
-75
-75
-75
-75
-75
-75
-74
-75
-74
-74
-75
-75
-74
-74
-74
-74
-73
-73
-74
-73
-73
-72
-72
-72
-72
-72
-72
-71
-71
-71
-71
-71
-70
-70
-70
-69
-69
-68
-68
-68
-67
-67
-66
-66
-66
-66
-66
-66
-65
-65
-65
-65
-65
-65
-65
-64
-64
-64
-63
-63
-63
-63
-63
-63
-63
-63
-63
-63
-63
-63
-62
-62
-63
-62
-62
-62
-61
-60
-60
-60
-60
-60
-59
-59
-59
-59
-59
-59
-58
-59
-58
-59
-59
-58
-58
-57
-58
-57
-57
-57
-56
-56
-55
-55
-55
-55
-54
-53
-53
-53
-52
-51
-51
-50
-50
-49
-48
-47
-46
-45
-44
-43
-43
-42
-43
-42
-41
-41
-40
-40
-39
-38
-38
-37
-36
-35
-35
-34
-34
-33
-33
-32
-32
-31
-30
-30
-28
-28
-27
-27
-26
-26
-25
-24
-23
-22
-22
-20
-19
-18
-17
-15
-15
-13
-12
-11
-10
-8
-7
-6
-5
-4
-3
-2
-1
1
2
3
4
5
7
8
9
10
11
12
13
14
15
15
17
18
19
20
21
22
23
24
24
26
27
27
29
29
30
30
30
31
32
32
33
33
34
34
35
35
36
36
37
37
37
38
38
38
38
38
38
38
37
37
37
37
36
36
35
35
34
34
33
32
32
30
29
28
27
25
24
23
22
21
19
18
16
15
13
12
10
9
7
5
4
3
1
-1
-3
-5
-7
-9
-11
-13
-15
-17
-19
-20
-22
-24
-25
-27
-28
-30
-32
-33
-35
-36
-39
-40
-42
-44
-45
-46
-48
-49
-50
-51
-52
-54
-55
-56
-57
-58
-58
-59
-60
-62
-61
-62
-63
-64
-65
-65
-65
-66
-66
-67
-67
-68
-68
-68
-69
-69
-70
-70
-70
-70
-72
-72
-73
-73
-74
-75
-76
-76
-76
-77
-78
-78
-79
-78
-80
-80
-80
-80
-81
-81
-81
-81
-82
-82
-82
-82
-82
-82
-82
-82
-82
-82
-82
-82
-82
-81
-80
-80
-80
-80
-80
-80
-79
-80
-80
-80
-79
-79
-79
-79
-79
-79
-79
-78
-78
-78
-79
-79
-79
-79
-79
-79
-80
-80
-80
-80
-81
-81
-81
-81
-81
-81
-82
-81
-82
-82
-82
-81
-81
-81
-81
-82
-82
-81
-81
-81
-81
-81
-81
-80
-80
-81
-80
-80
-79
-79
-79
-79
-78
-78
-78
-78
-79
-79
-79
-79
-79
-79
-79
-79
-79
-79
-79
-79
-79
-79
-79
-79
-79
-79
-81
-80
-80
-81
-81
-81
-81
-81
-81
-81
-81
-81
-81
-81
-81
-81
-81
-81
-81
-81
-81
-81
-81
-81
-81
-81
-82
-81
-81
-81
-82
-82
-82
-82
-82
-83
-83
-83
-84
-84
-84
-84
-85
-85
-86
-86
-85
-85
-86
-86
-86
-86
-86
-86
-86
-86
-86
-86
-86
-87
-87
-87
-88
-88
-88
-88
-89
-89
-89
-89
-90
-90
-90
-90
-90
-90
-91
-90
-90
-91
-91
-91
-91
-92
-92
-92
-92
-92
-92
-92
-92
-92
-92
-92
-92
-92
-92
-92
-92
-92
-92
-92
-92
-92
-91
-91
-92
-92
-92
-92
-92
-92
-92
-91
-91
-91
-91
-91
-91
-91
-92
-91
-92
-92
-92
-92
-93
-93
-93
-94
-94
-94
-93
-93
-94
-94
-94
-94
-94
-94
-95
-95
-95
-95
-95
-95
-95
-95
-95
-96
-96
-96
-96
-95
-95
-95
-95
-95
-95
-95
-95
-96
-95
-96
-96
-96
-96
-96
-96
-96
-96
-96
-97
-96
-96
-96
-97
-97
-96
-96
-97
-97
-97
-97
-97
-97
-97
-97
-97
-97
-97
-97
-97
-96
-96
-96
-96
-97
-97
-97
-97
-97
-98
-98
-98
-98
-98
-98
-99
-99
-99
-99
-98
-98
-98
-98
-99
-99
-99
-99
-99
-98
-98
-99
-99
-99
-100
-99
-99
-99
-98
-98
-98
-98
-98
-98
-98
-97
-97
-97
-97
-98
-97
-97
-98
-98
-98
-98
-98
-98
-99
-99
-98
-99
-99
-99
-99
-99
-99
-99
-99
-99
-100
-99
-99
-99
-100
-100
-99
-99
-99
-99
-99
-99
-99
-98
-97
-97
-97
-97
-97
-96
-97
-97
-96
-96
-96
-95
-95
-95
-95
-93
-93
-92
-92
-92
-92
-91
-91
-91
-91
-91
-90
-90
-89
-90
-90
-89
-89
-90
-89
-89
-89
-89
-88
-88
-88
-88
-88
-88
-87
-88
-89
-88
-88
-89
-89
-89
-89
-89
-89
-89
-90
-90
-90
-90
-91
-91
-91
-91
-92
-92
-92
-93
-93
-93
-95
-95
-95
-95
-95
-96
-96
-96
-96
-97
-97
-97
-97
-97
-97
-97
-98
-98
-98
-98
-98
-98
-98
-98
-98
-98
-98
-98
-97
-98
-98
-98
-98
-98
-99
-99
-100
-100
-101
-101
-101
-102
-103
-103
-103
-103
-104
-104
-104
-104
-105
-104
-104
-104
-105
-105
-105
-105
-105
-105
-105
-105
-104
-104
-104
-104
-103
-103
-103
-103
-102
-102
-102
-102
-102
-102
-102
-101
-101
-101
-101
-102
-101
-102
-101
-101
-101
-101
-101
-101
-101
-101
-101
-102
-103
-104
-104
-106
-107
-109
-110
-111
-113
-114
-115
-116
-118
-118
-119
-119
-118
-116
-114
-112
-109
-103
-98
-92
-84
-76
-65
-55
-42
-28
-14
1
18
36
55
76
98
121
145
171
196
222
247
272
296
319
341
361
379
395
407
416
420
422
420
414
405
393
378
359
337
313
287
259
230
200
170
140
112
84
58
33
11
-10
-28
-45
-59
-72
-83
-93
-100
-104
-109
-112
-114
-115
-116
-116
-114
-113
-111
-110
-108
-105
-104
-101
-99
-97
-96
-94
-93
-93
-92
-92
-91
-91
-92
-91
-92
-92
-92
-92
-93
-93
-94
-94
-95
-95
-95
-95
-96
-96
-96
-97
-97
-96
-97
-97
-97
-97
-97
-97
-97
-97
-96
-96
-96
-95
-95
-95
-95
-95
-95
-95
-95
-95
-94
-94
-94
-93
-94
-94
-93
-93
-92
-93
-93
-92
-92
-92
-92
-92
-92
-92
-92
-92
-92
-92
-92
-91
-91
-91
-91
-90
-90
-90
-89
-89
-88
-88
-88
-88
-88
-88
-88
-88
-88
-88
-88
-87
-87
-87
-86
-86
-85
-85
-84
-85
-84
-83
-83
-83
-83
-82
-82
-82
-82
-82
-81
-81
-81
-80
-80
-79
-80
-79
-79
-78
-77
-77
-77
-77
-77
-77
-76
-76
-76
-76
-75
-74
-74
-74
-74
-73
-73
-72
-72
-71
-70
-70
-70
-69
-69
-69
-68
-68
-67
-67
-67
-66
-65
-64
-64
-63
-62
-61
-61
-60
-59
-58
-57
-58
-57
-56
-55
-55
-54
-54
-53
-53
-52
-51
-50
-50
-49
-49
-48
-47
-46
-45
-45
-44
-43
-42
-41
-40
-39
-39
-38
-37
-35
-34
-33
-33
-32
-31
-30
-28
-27
-25
-24
-23
-22
-20
-19
-18
-17
-17
-15
-14
-13
-12
-11
-9
-8
-7
-5
-5
-4
-3
-2
-1
0
1
2
3
4
5
6
7
9
10
11
12
13
14
15
16
16
18
18
18
18
19
19
19
20
20
20
20
20
20
20
20
20
20
20
20
20
19
18
19
18
17
16
15
14
13
12
11
10
9
8
7
6
4
3
2
0
-1
-3
-5
-7
-8
-10
-11
-13
-15
-17
-19
-21
-22
-23
-25
-26
-28
-30
-31
-33
-35
-36
-39
-41
-42
-44
-46
-47
-49
-51
-52
-55
-56
-57
-59
-61
-62
-63
-64
-66
-68
-69
-70
-71
-72
-74
-75
-76
-77
-78
-79
-79
-81
-82
-82
-84
-84
-84
-85
-86
-87
-87
-88
-88
-89
-90
-90
-91
-91
-92
-92
-92
-92
-93
-93
-93
-93
-93
-93
-93
-94
-94
-94
-95
-95
-96
-96
-96
-97
-96
-97
-97
-97
-97
-97
-97
-98
-98
-98
-98
-98
-98
-98
-99
-99
-100
-100
-100
-99
-99
-100
-100
-100
-99
-99
-100
-99
-99
-99
-99
-99
-99
-99
-99
-98
-98
-98
-98
-99
-98
-98
-98
-98
-98
-98
-97
-97
-97
-97
-97
-97
-98
-98
-98
-97
-98
-98
-98
-98
-98
-98
-98
-98
-98
-98
-98
-98
-98
-98
-98
-98
-98
-98
-97
-97
-97
-97
-97
-97
-98
-97
-97
-97
-97
-98
-97
-97
-97
-98
-98
-98
-98
-99
-99
-99
-100
-100
-100
-100
-101
-101
-101
-101
-101
-101
-101
-101
-101
-100
-100
-100
-100
-101
-100
-101
-101
-101
-102
-101
-102
-103
-103
-103
-103
-103
-103
-104
-104
-104
-104
-104
-104
-104
-104
-105
-105
-105
-105
-106
-106
-106
-106
-106
-105
-105
-105
-104
-104
-104
-104
-104
-104
-104
-104
-105
-105
-105
-105
-105
-106
-106
-106
-106
-106
-106
-107
-107
-107
-106
-107
-107
-108
-108
-108
-107
-108
-108
-108
-109
-109
-109
-109
-109
-109
-109
-109
-109
-109
-109
-109
-109
-109
-110
-110
-110
-111
-111
-110
-110
-111
-111
-111
-111
-111
-110
-110
-110
-110
-111
-111
-111
-111
-111
-111
-111
-111
-111
-112
-112
-112
-112
-112
-112
-112
-112
-111
-111
-112
-112
-112
-112
-112
-112
-112
-113
-113
-113
-112
-112
-112
-112
-112
-112
-112
-112
-112
-112
-112
-113
-112
-112
-113
-112
-112
-112
-113
-113
-113
-112
-112
-112
-112
-112
-112
-112
-112
-112
-111
-111
-111
-111
-111
-111
-112
-112
-112
-112
-112
-113
-113
-113
-113
-113
-112
-113
-113
-113
-114
-113
-113
-113
-113
-113
-113
-113
-114
-114
-115
-115
-114
-114
-114
-115
-115
-115
-114
-115
-115
-115
-115
-115
-115
-115
-115
-116
-116
-116
-115
-116
-116
-116
-116
-116
-116
-116
-115
-115
-115
-115
-115
-115
-115
-115
-114
-115
-115
-115
-114
-114
-115
-114
-114
-113
-113
-113
-113
-113
-112
-112
-112
-112
-112
-112
-112
-113
-113
-113
-114
-114
-114
-114
-114
-115
-115
-115
-114
-114
-114
-114
-114
-114
-114
-113
-113
-112
-113
-113
-112
-112
-112
-111
-111
-111
-109
-109
-110
-109
-109
-108
-109
-109
-109
-108
-108
-108
-108
-108
-108
-108
-108
-107
-107
-107
-106
-106
-105
-105
-105
-105
-105
-104
-104
-104
-104
-104
-104
-104
-104
-104
-104
-104
-103
-103
-103
-103
-102
-102
-102
-103
-102
-102
-103
-102
-102
-103
-103
-102
-103
-103
-104
-104
-104
-103
-104
-105
-105
-104
-105
-105
-105
-106
-107
-107
-107
-108
-109
-109
-110
-111
-111
-111
-112
-112
-113
-113
-114
-114
-114
-114
-115
-115
-115
-115
-116
-116
-115
-116
-116
-116
-117
-117
-117
-117
-118
-118
-118
-118
-118
-119
-119
-119
-119
-119
-120
-120
-120
-120
-120
-120
-121
-120
-120
-120
-120
-120
-120
-120
-120
-120
-119
-120
-120
-120
-120
-119
-120
-120
-120
-120
-120
-120
-120
-120
-120
-120
-119
-119
-119
-119
-119
-119
-119
-119
-118
-119
-119
-119
-119
-119
-120
-120
-120
-121
-121
-121
-121
-122
-124
-124
-125
-126
-127
-129
-129
-130
-131
-132
-132
-133
-133
-132
-131
-129
-126
-123
-119
-114
-108
-101
-93
-84
-74
-63
-51
-38
-25
-10
6
23
41
59
80
103
125
148
172
194
216
238
260
280
298
314
329
340
350
355
357
357
352
345
335
322
306
289
268
246
222
195
169
142
116
90
64
41
17
-4
-22
-41
-57
-72
-84
-95
-104
-112
-118
-123
-126
-130
-131
-132
-132
-132
-131
-131
-130
-128
-126
-125
-123
-121
-119
-117
-115
-114
-113
-112
-111
-111
-111
-111
-110
-110
-111
-110
-111
-111
-112
-112
-112
-112
-112
-112
-113
-112
-112
-112
-112
-112
-112
-112
-112
-112
-112
-112
-112
-112
-112
-113
-112
-112
-113
-113
-113
-113
-113
-113
-113
-113
-114
-113
-113
-113
-114
-113
-113
-114
-114
-114
-114
-113
-113
-112
-113
-112
-112
-112
-112
-111
-111
-111
-111
-111
-111
-110
-110
-110
-110
-110
-109
-109
-109
-108
-108
-108
-107
-107
-107
-106
-106
-106
-106
-104
-104
-104
-103
-103
-103
-103
-103
-103
-102
-102
-102
-101
-101
-101
-101
-101
-100
-100
-99
-99
-99
-99
-99
-99
-99
-99
-99
-99
-98
-98
-98
-97
-97
-97
-97
-96
-96
-96
-96
-95
-95
-95
-96
-96
-95
-95
-95
-94
-94
-93
-94
-93
-92
-91
-91
-90
-89
-89
-88
-88
-87
-87
-86
-85
-85
-84
-84
-83
-83
-82
-81
-80
-79
-78
-78
-77
-76
-76
-75
-75
-73
-73
-73
-72
-71
-71
-70
-69
-68
-68
-67
-66
-65
-64
-63
-62
-62
-61
-60
-59
-58
-57
-56
-55
-54
-54
-53
-51
-51
-49
-49
-47
-46
-45
-44
-43
-41
-40
-39
-38
-38
-37
-36
-35
-33
-32
-32
-31
-30
-30
-29
-27
-27
-26
-25
-24
-23
-23
-22
-21
-21
-20
-19
-19
-18
-18
-17
-16
-15
-15
-14
-14
-13
-11
-11
-11
-10
-9
-9
-9
-8
-8
-8
-8
-8
-8
-8
-8
-9
-9
-9
-10
-10
-10
-11
-12
-12
-13
-14
-15
-16
-17
-17
-18
-20
-21
-22
-22
-23
-24
-25
-26
-27
-28
-30
-30
-31
-33
-34
-37
-39
-41
-42
-43
-46
-48
-50
-51
-53
-54
-57
-58
-60
-62
-64
-66
-67
-70
-71
-73
-74
-76
-77
-79
-81
-82
-84
-85
-86
-87
-89
-90
-91
-92
-93
-94
-95
-95
-97
-98
-99
-100
-101
-102
-103
-104
-105
-105
-106
-106
-106
-107
-108
-108
-108
-108
-108
-108
-109
-109
-109
-109
-110
-109
-111
-110
-111
-112
-112
-113
-113
-113
-115
-115
-116
-116
-117
-117
-119
-120
-120
-121
-121
-122
-122
-122
-122
-121
-121
-121
-121
-120
-120
-118
-118
-118
-117
-117
-117
-117
-116
-116
-116
-116
-116
-117
-116
-117
-118
-118
-119
-119
-119
-120
-120
-121
-121
-122
-122
-122
-122
-122
-122
-121
-121
-121
-120
-119
-118
-118
-117
-117
-115
-115
-114
-114
-114
-114
-114
-115
-115
-116
-116
-118
-118
-119
-120
-120
-121
-122
-122
-123
-123
-124
-124
-125
-124
-124
-125
-125
-125
-125
-125
-125
-125
-125
-124
-124
-124
-124
-124
-124
-124
-123
-124
-123
-122
-122
-122
-122
-122
-122
-121
-121
-120
-120
-119
-119
-118
-119
-119
-118
-118
-117
-118
-118
-118
-119
-119
-119
-120
-120
-120
-121
-121
-122
-123
-123
-124
-124
-124
-124
-124
-124
-124
-123
-124
-124
-124
-124
-124
-124
-124
-124
-124
-124
-125
-125
-125
-125
-125
-126
-127
-127
-127
-127
-127
-127
-127
-127
-127
-127
-127
-127
-127
-127
-127
-127
-127
-127
-128
-128
-128
-128
-129
-128
-129
-129
-130
-130
-131
-131
-131
-132
-132
-132
-132
-133
-133
-133
-133
-134
-133
-133
-134
-134
-134
-134
-134
-134
-135
-135
-135
-135
-135
-135
-134
-134
-133
-133
-131
-131
-130
-129
-128
-127
-126
-126
-125
-125
-124
-124
-124
-124
-125
-124
-125
-125
-125
-125
-125
-126
-126
-126
-127
-128
-128
-129
-129
-129
-130
-130
-130
-130
-130
-130
-130
-130
-130
-130
-129
-129
-129
-128
-128
-128
-128
-127
-127
-126
-127
-127
-128
-127
-127
-128
-128
-129
-129
-129
-129
-131
-130
-131
-132
-133
-132
-133
-134
-135
-135
-136
-136
-137
-137
-137
-138
-138
-138
-138
-138
-138
-138
-137
-137
-137
-136
-136
-136
-135
-135
-133
-134
-134
-132
-133
-132
-132
-131
-132
-132
-132
-131
-131
-131
-132
-132
-133
-134
-134
-135
-136
-136
-136
-137
-137
-137
-137
-137
-137
-137
-137
-137
-137
-137
-138
-138
-138
-138
-138
-138
-139
-139
-139
-139
-139
-140
-140
-139
-140
-140
-139
-138
-138
-137
-136
-136
-135
-134
-134
-133
-132
-132
-132
-131
-131
-130
-130
-131
-131
-132
-132
-133
-133
-134
-133
-134
-134
-135
-135
-135
-135
-136
-136
-135
-135
-135
-134
-134
-133
-132
-131
-130
-130
-129
-128
-128
-128
-127
-126
-126
-126
-127
-127
-127
-128
-129
-128
-130
-131
-130
-132
-132
-132
-132
-133
-133
-133
-133
-134
-133
-133
-133
-132
-132
-132
-132
-132
-131
-131
-130
-131
-130
-131
-130
-131
-130
-129
-130
-130
-130
-131
-130
-131
-130
-131
-131
-130
-129
-130
-129
-129
-129
-128
-129
-128
-128
-128
-127
-127
-128
-128
-129
-129
-130
-130
-131
-130
-131
-131
-130
-131
-131
-131
-131
-131
-131
-131
-131
-131
-130
-130
-130
-129
-130
-129
-129
-129
-129
-130
-130
-130
-130
-130
-131
-131
-131
-132
-132
-133
-133
-133
-134
-135
-135
-136
-136
-136
-136
-137
-137
-137
-137
-137
-137
-138
-138
-138
-139
-139
-139
-139
-140
-140
-139
-141
-140
-140
-140
-141
-141
-141
-140
-141
-140
-140
-141
-140
-140
-140
-141
-142
-142
-142
-142
-142
-143
-144
-144
-144
-144
-144
-145
-144
-144
-144
-143
-143
-143
-143
-143
-143
-143
-143
-142
-142
-142
-142
-142
-141
-141
-141
-142
-141
-142
-142
-143
-144
-144
-146
-146
-148
-149
-151
-152
-153
-154
-156
-157
-157
-157
-158
-157
-157
-155
-153
-150
-146
-142
-136
-130
-122
-114
-105
-94
-82
-69
-55
-40
-25
-8
9
27
48
68
90
112
135
158
180
202
224
244
263
280
295
307
318
326
329
330
327
322
313
301
287
270
252
230
207
181
155
129
102
76
50
25
1
-20
-41
-60
-77
-92
-105
-116
-126
-134
-142
-148
-152
-155
-159
-160
-160
-161
-160
-159
-158
-156
-155
-152
-151
-148
-147
-145
-143
-141
-140
-138
-137
-136
-136
-135
-135
-134
-134
-133
-133
-132
-132
-132
-131
-131
-130
-130
-130
-130
-130
-131
-130
-131
-132
-132
-133
-133
-134
-135
-136
-137
-137
-139
-139
-140
-141
-143
-144
-143
-144
-145
-144
-145
-144
-144
-144
-143
-142
-142
-141
-140
-140
-138
-137
-136
-134
-133
-133
-131
-131
-130
-130
-130
-129
-129
-130
-130
-129
-129
-129
-130
-129
-129
-129
-129
-129
-129
-130
-129
-129
-129
-129
-129
-129
-128
-128
-128
-128
-128
-128
-127
-127
-127
-126
-126
-126
-125
-125
-125
-125
-126
-126
-127
-127
-127
-127
-127
-127
-128
-128
-128
-128
-128
-127
-126
-126
-126
-126
-125
-124
-123
-123
-122
-122
-122
-123
-122
-122
-121
-121
-120
-119
-119
-117
-116
-115
-115
-113
-112
-112
-111
-110
-110
-109
-108
-108
-107
-107
-106
-106
-106
-105
-106
-106
-106
-106
-106
-106
-106
-105
-105
-104
-104
-102
-101
-100
-99
-98
-96
-95
-93
-91
-89
-87
-86
-85
-84
-82
-81
-80
-79
-78
-78
-78
-76
-77
-76
-76
-76
-75
-75
-75
-74
-73
-73
-72
-70
-69
-69
-67
-66
-65
-63
-62
-60
-59
-58
-56
-54
-53
-52
-50
-49
-48
-46
-46
-44
-43
-42
-41
-40
-39
-38
-38
-38
-37
-38
-37
-37
-37
-36
-37
-37
-36
-37
-37
-38
-37
-38
-39
-39
-39
-39
-40
-40
-40
-40
-40
-40
-40
-40
-39
-39
-39
-38
-38
-38
-37
-38
-38
-39
-39
-39
-39
-40
-41
-42
-44
-45
-47
-49
-49
-51
-53
-54
-56
-57
-58
-60
-60
-62
-62
-64
-64
-64
-64
-64
-65
-65
-66
-66
-66
-66
-67
-68
-68
-69
-70
-72
-73
-75
-77
-78
-81
-83
-84
-86
-89
-89
-91
-93
-94
-96
-96
-97
-99
-101
-101
-104
-104
-106
-107
-109
-109
-112
-113
-115
-117
-119
-121
-122
-124
-125
-127
-127
-129
-130
-131
-132
-132
-133
-134
-135
-135
-136
-137
-137
-137
-138
-138
-139
-139
-139
-139
-139
-139
-139
-139
-139
-140
-140
-141
-140
-140
-139
-139
-139
-139
-138
-138
-137
-137
-136
-136
-135
-135
-135
-135
-134
-134
-133
-134
-134
-133
-134
-134
-135
-135
-136
-137
-138
-138
-139
-139
-140
-140
-141
-141
-141
-141
-140
-141
-141
-141
-141
-141
-141
-141
-141
-142
-142
-142
-141
-141
-141
-141
-141
-141
-140
-141
-140
-140
-140
-140
-140
-140
-139
-139
-138
-137
-137
-136
-135
-135
-134
-134
-134
-133
-134
-133
-134
-133
-134
-134
-135
-136
-136
-136
-137
-138
-138
-138
-138
-138
-137
-137
-137
-136
-136
-135
-136
-135
-136
-135
-135
-136
-136
-137
-138
-139
-140
-140
-142
-143
-145
-146
-147
-149
-150
-151
-153
-153
-153
-153
-153
-154
-152
-151
-150
-149
-147
-146
-145
-143
-142
-140
-139
-138
-136
-135
-134
-134
-133
-134
-134
-134
-134
-134
-135
-136
-136
-137
-138
-138
-138
-138
-139
-139
-139
-139
-140
-140
-140
-140
-141
-141
-141
-141
-142
-142
-143
-143
-143
-143
-144
-143
-142
-142
-142
-142
-141
-141
-141
-140
-139
-139
-138
-138
-137
-137
-136
-135
-135
-134
-134
-134
-134
-134
-134
-134
-135
-134
-135
-135
-135
-135
-136
-137
-137
-137
-138
-139
-140
-141
-142
-143
-144
-146
-146
-148
-148
-149
-150
-151
-152
-153
-153
-154
-154
-154
-153
-154
-153
-152
-152
-151
-149
-149
-148
-147
-146
-145
-145
-144
-144
-143
-143
-142
-142
-141
-141
-141
-141
-140
-139
-139
-139
-139
-140
-140
-139
-139
-139
-139
-139
-139
-138
-138
-138
-138
-138
-138
-137
-137
-137
-136
-136
-136
-136
-136
-136
-137
-137
-137
-139
-139
-139
-140
-140
-141
-142
-142
-143
-144
-143
-144
-144
-145
-145
-145
-145
-145
-146
-146
-147
-146
-147
-147
-147
-146
-147
-146
-146
-146
-145
-145
-144
-144
-143
-143
-142
-142
-141
-140
-139
-140
-139
-139
-138
-137
-137
-137
-137
-137
-136
-136
-136
-136
-136
-136
-136
-136
-137
-137
-137
-136
-136
-137
-137
-137
-137
-137
-137
-137
-136
-136
-136
-136
-135
-136
-136
-136
-136
-138
-138
-138
-138
-138
-139
-140
-140
-140
-141
-141
-140
-140
-140
-140
-140
-140
-140
-140
-140
-140
-139
-139
-138
-138
-138
-138
-138
-138
-138
-137
-137
-138
-137
-137
-137
-137
-137
-138
-138
-138
-137
-137
-138
-137
-137
-137
-137
-137
-135
-135
-135
-134
-134
-134
-133
-133
-133
-132
-132
-132
-132
-132
-131
-131
-131
-132
-132
-132
-131
-131
-131
-131
-131
-131
-131
-131
-131
-130
-131
-131
-131
-131
-131
-132
-132
-132
-132
-131
-130
-130
-130
-130
-130
-130
-129
-129
-129
-129
-129
-128
-129
-129
-129
-129
-129
-129
-129
-129
-129
-129
-130
-130
-130
-131
-131
-131
-131
-132
-132
-132
-134
-134
-134
-134
-134
-134
-134
-134
-134
-135
-135
-135
-135
-135
-135
-136
-136
-137
-137
-137
-138
-138
-138
-138
-139
-139
-139
-139
-140
-139
-140
-139
-139
-139
-139
-137
-137
-138
-137
-137
-137
-136
-136
-136
-137
-136
-136
-136
-136
-136
-136
-137
-137
-137
-137
-137
-138
-138
-139
-140
-140
-141
-141
-141
-141
-141
-141
-141
-141
-141
-141
-141
-141
-141
-140
-140
-140
-140
-140
-140
-140
-140
-140
-139
-140
-140
-140
-140
-139
-138
-138
-139
-138
-138
-138
-138
-139
-139
-139
-141
-141
-143
-144
-145
-147
-147
-149
-150
-151
-152
-152
-152
-151
-149
-148
-144
-140
-135
-130
-123
-115
-106
-96
-84
-71
-57
-42
-25
-8
11
30
51
75
99
123
148
174
198
224
248
271
294
314
333
349
362
372
379
382
382
377
370
359
345
327
307
285
260
232
203
174
144
114
85
57
30
6
-18
-38
-57
-75
-90
-103
-113
-123
-130
-135
-140
-143
-145
-146
-146
-146
-145
-143
-141
-140
-137
-135
-132
-130
-128
-126
-124
-122
-121
-119
-119
-118
-118
-118
-118
-119
-119
-120
-119
-121
-121
-121
-122
-123
-123
-124
-124
-124
-125
-125
-124
-125
-125
-125
-125
-125
-125
-124
-125
-125
-124
-124
-124
-124
-124
-124
-124
-124
-124
-124
-124
-124
-124
-124
-124
-124
-125
-124
-124
-124
-124
-124
-123
-122
-122
-121
-121
-121
-120
-120
-119
-119
-120
-119
-120
-119
-119
-119
-119
-119
-119
-119
-118
-119
-118
-118
-118
-118
-118
-117
-118
-118
-117
-117
-118
-117
-117
-117
-116
-116
-116
-116
-116
-114
-115
-113
-113
-113
-112
-112
-112
-112
-112
-112
-112
-111
-111
-111
-111
-111
-110
-110
-109
-109
-109
-108
-108
-108
-107
-105
-105
-105
-105
-105
-104
-104
-104
-103
-103
-103
-102
-102
-102
-101
-100
-100
-100
-99
-99
-99
-98
-98
-98
-98
-98
-97
-96
-97
-96
-96
-95
-94
-94
-94
-93
-92
-92
-91
-90
-89
-89
-88
-88
-86
-86
-84
-84
-83
-82
-81
-80
-79
-78
-77
-76
-75
-74
-73
-71
-71
-70
-69
-69
-69
-68
-67
-66
-66
-65
-64
-62
-61
-60
-58
-58
-56
-55
-54
-51
-50
-49
-47
-45
-44
-43
-41
-40
-39
-38
-37
-35
-34
-32
-31
-30
-28
-28
-26
-26
-25
-24
-23
-23
-22
-20
-20
-19
-17
-17
-16
-16
-15
-13
-13
-12
-12
-12
-11
-11
-11
-11
-10
-11
-11
-11
-11
-11
-12
-11
-12
-12
-12
-12
-13
-13
-12
-12
-12
-12
-13
-13
-14
-15
-16
-16
-16
-17
-17
-18
-19
-20
-21
-22
-23
-24
-25
-28
-29
-30
-32
-33
-35
-37
-38
-40
-42
-43
-45
-46
-48
-50
-52
-53
-55
-56
-58
-60
-62
-63
-65
-67
-69
-71
-73
-75
-77
-79
-81
-83
-85
-87
-89
-91
-92
-94
-96
-98
-99
-101
-102
-103
-104
-106
-107
-108
-110
-110
-111
-113
-112
-113
-114
-114
-115
-115
-116
-116
-117
-117
-117
-118
-119
-119
-120
-119
-121
-121
-121
-121
-122
-123
-123
-123
-123
-123
-124
-124
-124
-124
-124
-124
-124
-125
-125
-126
-126
-126
-126
-127
-127
-127
-127
-127
-127
-127
-127
-127
-128
-128
-128
-129
-129
-130
-130
-130
-131
-131
-131
-131
-131
-131
-131
-131
-131
-130
-130
-129
-129
-129
-128
-129
-129
-128
-128
-128
-128
-128
-127
-127
-127
-126
-127
-127
-127
-127
-127
-127
-128
-127
-128
-128
-130
-130
-130
-130
-131
-131
-131
-131
-131
-131
-131
-131
-131
-131
-131
-131
-129
-129
-129
-129
-129
-129
-129
-129
-129
-129
-128
-129
-129
-129
-129
-129
-129
-128
-128
-128
-128
-129
-129
-129
-129
-129
-129
-130
-130
-130
-131
-130
-130
-130
-130
-130
-130
-130
-130
-130
-129
-130
-130
-130
-130
-129
-130
-130
-130
-130
-131
-130
-130
-130
-130
-130
-130
-130
-130
-130
-130
-131
-131
-131
-131
-131
-132
-132
-133
-133
-133
-135
-135
-135
-135
-136
-136
-136
-136
-136
-137
-137
-137
-137
-137
-136
-137
-137
-137
-137
-136
-137
-137
-137
-137
-136
-136
-137
-137
-137
-137
-138
-138
-138
-138
-139
-139
-139
-140
-140
-141
-140
-141
-141
-141
-141
-142
-142
-142
-142
-142
-142
-142
-142
-142
-143
-143
-143
-143
-144
-144
-144
-144
-144
-144
-145
-145
-145
-144
-144
-145
-144
-144
-143
-144
-144
-144
-144
-144
-144
-144
-144
-144
-144
-144
-144
-144
-143
-143
-143
-144
-143
-143
-143
-144
-144
-144
-145
-145
-145
-145
-146
-146
-146
-146
-147
-147
-146
-146
-146
-146
-146
-146
-146
-146
-146
-146
-146
-146
-146
-146
-146
-146
-146
-146
-145
-145
-146
-145
-145
-145
-145
-145
-145
-145
-146
-145
-145
-145
-145
-146
-146
-146
-146
-146
-146
-145
-145
-145
-145
-144
-145
-145
-145
-145
-145
-145
-145
-145
-145
-146
-145
-145
-145
-144
-144
-144
-145
-145
-145
-144
-144
-144
-144
-144
-144
-145
-144
-144
-144
-144
-145
-145
-144
-144
-144
-144
-144
-143
-143
-143
-143
-142
-143
-142
-142
-142
-142
-142
-141
-142
-142
-142
-142
-142
-142
-142
-141
-141
-141
-142
-142
-142
-142
-142
-143
-144
-144
-144
-144
-144
-145
-145
-146
-146
-146
-145
-146
-146
-146
-146
-145
-145
-145
-144
-144
-145
-145
-144
-144
-144
-144
-144
-144
-144
-144
-144
-143
-143
-143
-143
-143
-143
-143
-143
-143
-143
-143
-142
-142
-143
-142
-142
-142
-141
-141
-141
-141
-140
-140
-139
-138
-138
-138
-137
-137
-137
-137
-137
-136
-136
-137
-136
-135
-135
-135
-134
-134
-134
-133
-133
-133
-133
-133
-132
-133
-132
-133
-131
-132
-131
-131
-131
-131
-131
-131
-130
-130
-130
-130
-130
-130
-130
-131
-131
-130
-131
-132
-132
-132
-132
-132
-132
-133
-133
-134
-134
-134
-134
-135
-135
-135
-135
-136
-136
-136
-137
-137
-137
-138
-138
-138
-138
-138
-138
-139
-139
-139
-140
-140
-139
-140
-140
-140
-140
-140
-142
-142
-142
-142
-143
-143
-143
-143
-145
-145
-145
-145
-146
-146
-146
-146
-146
-147
-148
-148
-149
-149
-149
-149
-150
-150
-150
-150
-150
-150
-150
-150
-149
-149
-149
-149
-149
-148
-148
-148
-148
-148
-148
-147
-147
-148
-147
-147
-146
-145
-145
-146
-145
-145
-145
-145
-146
-146
-146
-147
-147
-147
-147
-147
-148
-148
-149
-149
-149
-149
-150
-150
-151
-151
-152
-152
-153
-154
-155
-156
-157
-158
-159
-160
-160
-161
-161
-160
-159
-157
-154
-152
-148
-143
-137
-130
-122
-113
-104
-92
-81
-67
-53
-37
-21
-4
15
34
55
77
101
124
149
173
196
218
241
262
281
299
314
328
338
344
348
348
344
337
328
315
299
281
260
237
212
185
158
129
101
74
47
21
-2
-24
-44
-64
-81
-96
-109
-120
-129
-138
-143
-149
-152
-155
-156
-156
-157
-156
-156
-154
-152
-151
-149
-147
-145
-144
-142
-140
-138
-138
-136
-136
-135
-135
-135
-135
-135
-135
-137
-136
-137
-138
-139
-140
-140
-140
-140
-141
-141
-141
-141
-141
-141
-141
-141
-141
-141
-141
-141
-142
-141
-141
-141
-142
-142
-142
-142
-142
-142
-142
-141
-141
-141
-141
-141
-141
-141
-141
-141
-142
-142
-142
-142
-142
-142
-141
-141
-142
-141
-141
-140
-140
-139
-140
-139
-139
-139
-139
-139
-138
-138
-137
-137
-137
-136
-136
-136
-136
-135
-135
-135
-134
-134
-134
-134
-134
-134
-134
-134
-134
-134
-134
-133
-133
-133
-133
-132
-132
-132
-131
-130
-131
-130
-130
-129
-129
-129
-129
-128
-128
-128
-128
-128
-128
-128
-127
-128
-128
-127
-127
-126
-126
-126
-126
-125
-125
-125
-125
-125
-125
-124
-123
-123
-122
-122
-121
-121
-120
-120
-119
-118
-118
-117
-117
-116
-116
-116
-115
-115
-115
-114
-114
-114
-113
-113
-113
-112
-112
-111
-110
-109
-108
-107
-107
-106
-105
-104
-103
-102
-102
-100
-99
-99
-98
-96
-95
-95
-95
-93
-93
-92
-91
-90
-89
-90
-89
-88
-88
-87
-85
-86
-84
-84
-83
-82
-81
-81
-80
-79
-77
-76
-75
-73
-72
-71
-70
-69
-68
-67
-65
-64
-63
-61
-60
-58
-57
-56
-55
-54
-52
-51
-49
-49
-47
-47
-45
-45
-44
-44
-43
-42
-42
-42
-40
-40
-40
-39
-39
-38
-38
-37
-37
-37
-36
-35
-35
-35
-34
-34
-34
-34
-34
-33
-34
-33
-33
-33
-33
-32
-32
-33
-33
-33
-33
-33
-34
-35
-36
-36
-37
-38
-38
-39
-41
-42
-43
-44
-46
-47
-48
-49
-52
-53
-54
-56
-57
-59
-61
-63
-65
-67
-69
-70
-72
-74
-76
-77
-79
-82
-83
-84
-86
-88
-89
-91
-93
-95
-96
-98
-100
-101
-102
-104
-105
-106
-107
-109
-109
-111
-112
-113
-114
-115
-115
-116
-118
-119
-120
-121
-122
-124
-125
-126
-127
-128
-129
-129
-130
-131
-131
-132
-133
-133
-133
-134
-134
-134
-136
-136
-137
-137
-137
-138
-138
-139
-139
-139
-139
-139
-139
-139
-140
-140
-140
-140
-140
-140
-140
-140
-141
-141
-141
-141
-142
-142
-142
-142
-142
-142
-141
-142
-142
-142
-142
-141
-142
-142
-142
-142
-142
-142
-142
-143
-143
-143
-143
-143
-143
-143
-142
-142
-142
-143
-143
-143
-143
-143
-143
-143
-144
-143
-143
-143
-144
-144
-144
-144
-144
-144
-144
-143
-143
-143
-144
-144
-144
-144
-144
-145
-144
-144
-144
-145
-145
-145
-145
-145
-145
-145
-145
-144
-144
-144
-144
-144
-143
-143
-143
-144
-144
-143
-143
-143
-143
-144
-144
-143
-143
-143
-143
-143
-142
-143
-143
-143
-144
-144
-144
-144
-145
-145
-145
-145
-146
-146
-146
-146
-146
-146
-145
-146
-146
-146
-145
-145
-145
-145
-145
-145
-145
-145
-145
-145
-145
-144
-144
-144
-144
-144
-144
-144
-144
-144
-144
-144
-144
-145
-145
-145
-146
-146
-146
-146
-146
-146
-147
-147
-148
-148
-147
-147
-148
-148
-148
-148
-148
-148
-148
-149
-149
-149
-149
-149
-149
-149
-149
-149
-149
-148
-148
-148
-148
-148
-148
-148
-148
-149
-148
-148
-149
-149
-150
-150
-151
-150
-150
-150
-150
-151
-151
-151
-151
-151
-152
-152
-152
-152
-152
-152
-153
-152
-152
-152
-152
-152
-152
-152
-152
-151
-151
-151
-151
-151
-150
-150
-150
-150
-150
-150
-151
-151
-151
-151
-151
-152
-152
-151
-151
-151
-151
-151
-151
-151
-151
-152
-152
-152
-152
-152
-152
-152
-152
-152
-153
-153
-153
-153
-153
-152
-152
-152
-152
-152
-153
-152
-152
-151
-152
-153
-152
-152
-152
-152
-152
-152
-152
-152
-152
-152
-152
-152
-152
-152
-151
-151
-152
-152
-152
-151
-152
-153
-153
-153
-152
-153
-153
-153
-153
-153
-154
-153
-154
-154
-154
-155
-154
-155
-154
-154
-155
-155
-155
-155
-155
-155
-155
-155
-155
-154
-154
-154
-153
-152
-153
-153
-152
-152
-152
-152
-152
-152
-152
-152
-152
-151
-151
-151
-151
-151
-152
-152
-152
-152
-152
-153
-152
-152
-153
-153
-153
-153
-153
-153
-154
-154
-153
-153
-153
-153
-152
-152
-152
-153
-153
-152
-152
-152
-153
-152
-152
-152
-152
-152
-153
-153
-153
-153
-153
-153
-152
-153
-153
-153
-153
-153
-153
-153
-153
-153
-154
-154
-153
-153
-154
-154
-154
-154
-154
-154
-154
-153
-153
-153
-153
-152
-152
-152
-152
-151
-151
-152
-150
-150
-150
-150
-150
-149
-148
-148
-147
-146
-146
-146
-145
-144
-144
-144
-144
-143
-143
-144
-144
-143
-143
-143
-143
-144
-143
-144
-143
-144
-143
-144
-143
-144
-143
-143
-144
-143
-143
-143
-143
-143
-142
-142
-141
-141
-140
-140
-140
-140
-140
-139
-139
-140
-140
-140
-141
-142
-142
-142
-143
-144
-144
-145
-145
-146
-147
-147
-148
-148
-148
-150
-150
-150
-150
-151
-152
-152
-153
-153
-154
-154
-154
-154
-155
-155
-154
-155
-155
-154
-154
-154
-154
-154
-154
-155
-155
-155
-155
-156
-156
-156
-156
-156
-156
-157
-157
-157
-157
-157
-157
-157
-157
-156
-156
-157
-157
-157
-157
-157
-157
-157
-157
-158
-158
-158
-157
-157
-157
-157
-157
-157
-156
-156
-156
-156
-156
-156
-156
-156
-156
-156
-156
-156
-156
-156
-156
-156
-155
-156
-156
-156
-156
-155
-155
-156
-156
-156
-157
-157
-158
-158
-158
-159
-159
-161
-161
-161
-163
-163
-164
-165
-167
-168
-168
-168
-168
-168
-168
-167
-166
-163
-160
-157
-151
-146
-139
-132
-123
-113
-103
-92
-79
-64
-50
-34
-17
0
19
38
60
83
105
128
152
176
198
220
241
261
279
296
308
320
328
332
333
331
326
317
305
290
273
253
231
207
181
154
127
99
72
46
20
-3
-25
-46
-66
-83
-100
-113
-125
-135
-144
-150
-156
-160
-163
-164
-165
-166
-165
-164
-163
-162
-159
-157
-156
-153
-151
-150
-148
-146
-144
-144
-143
-142
-142
-141
-140
-140
-140
-141
-141
-141
-141
-141
-142
-142
-143
-143
-144
-144
-144
-145
-145
-145
-145
-145
-145
-144
-144
-145
-146
-145
-146
-145
-146
-145
-145
-145
-145
-145
-145
-145
-144
-144
-143
-143
-142
-142
-141
-141
-142
-141
-141
-140
-140
-140
-140
-140
-140
-140
-140
-140
-140
-139
-139
-139
-138
-139
-139
-139
-139
-138
-138
-138
-138
-138
-138
-138
-137
-137
-137
-137
-137
-137
-136
-136
-136
-136
-135
-135
-134
-134
-133
-133
-133
-133
-132
-132
-131
-130
-130
-130
-129
-129
-128
-128
-127
-127
-126
-126
-125
-125
-125
-124
-124
-124
-124
-123
-123
-122
-122
-121
-121
-121
-120
-120
-119
-118
-117
-116
-116
-115
-114
-114
-114
-113
-113
-113
-113
-111
-111
-111
-111
-111
-111
-110
-109
-110
-109
-109
-108
-108
-107
-108
-107
-107
-107
-106
-105
-106
-104
-104
-103
-102
-102
-101
-100
-98
-98
-97
-97
-95
-94
-94
-92
-91
-91
-90
-89
-89
-88
-86
-85
-84
-83
-82
-81
-81
-80
-78
-78
-77
-76
-75
-73
-73
-71
-71
-70
-69
-68
-66
-66
-65
-63
-61
-60
-60
-57
-56
-55
-54
-52
-51
-50
-48
-47
-46
-43
-42
-41
-40
-38
-37
-36
-35
-34
-33
-32
-31
-30
-29
-29
-28
-27
-27
-26
-26
-25
-25
-24
-23
-23
-23
-22
-22
-21
-21
-21
-21
-20
-20
-19
-20
-20
-20
-21
-21
-21
-22
-23
-22
-23
-24
-24
-25
-26
-27
-27
-28
-29
-30
-31
-33
-34
-35
-37
-38
-39
-41
-43
-45
-46
-48
-50
-52
-53
-56
-57
-58
-60
-62
-63
-65
-67
-69
-71
-73
-75
-76
-78
-80
-82
-83
-84
-85
-87
-88
-90
-91
-92
-94
-96
-97
-98
-100
-101
-103
-104
-105
-106
-107
-108
-110
-111
-112
-114
-114
-116
-117
-118
-120
-120
-121
-122
-123
-124
-125
-126
-126
-128
-129
-129
-130
-130
-130
-130
-130
-132
-132
-132
-132
-132
-132
-133
-133
-133
-134
-134
-134
-135
-135
-135
-135
-136
-137
-136
-136
-136
-137
-138
-137
-137
-138
-138
-138
-138
-139
-139
-139
-139
-139
-139
-139
-139
-139
-139
-138
-138
-138
-138
-138
-137
-137
-137
-138
-138
-138
-138
-138
-139
-139
-138
-138
-139
-139
-139
-139
-139
-139
-139
-140
-140
-140
-140
-141
-141
-141
-141
-141
-142
-142
-141
-141
-141
-141
-140
-140
-140
-139
-139
-138
-138
-138
-138
-138
-138
-139
-138
-138
-138
-138
-139
-139
-139
-139
-139
-139
-139
-139
-139
-140
-140
-140
-140
-140
-140
-140
-140
-140
-140
-139
-139
-139
-139
-138
-138
-138
-137
-137
-137
-138
-138
-138
-138
-138
-138
-139
-139
-139
-138
-138
-139
-139
-139
-139
-139
-139
-139
-139
-139
-139
-138
-138
-138
-139
-138
-138
-138
-138
-138
-139
-139
-139
-139
-139
-139
-138
-138
-139
-139
-140
-140
-140
-140
-139
-140
-140
-141
-141
-141
-140
-141
-141
-141
-142
-142
-141
-141
-141
-141
-141
-141
-141
-142
-142
-142
-143
-143
-143
-144
-143
-143
-144
-144
-144
-144
-144
-144
-144
-145
-144
-144
-145
-146
-146
-146
-147
-147
-148
-148
-148
-148
-148
-148
-148
-148
-149
-149
-148
-147
-147
-147
-147
-146
-147
-147
-146
-146
-146
-146
-147
-147
-147
-147
-146
-146
-146
-147
-147
-147
-146
-146
-146
-147
-147
-147
-146
-147
-147
-147
-147
-146
-146
-146
-146
-147
-146
-146
-146
-147
-147
-147
-147
-147
-147
-147
-147
-147
-149
-149
-149
-149
-149
-149
-150
-150
-150
-150
-150
-151
-151
-151
-151
-152
-152
-152
-152
-152
-151
-152
-152
-152
-152
-151
-151
-152
-151
-151
-150
-150
-151
-150
-150
-150
-150
-150
-149
-150
-150
-150
-149
-149
-149
-149
-150
-150
-149
-149
-149
-149
-150
-149
-150
-150
-150
-150
-150
-150
-150
-150
-150
-150
-151
-151
-150
-150
-151
-150
-150
-150
-150
-150
-150
-150
-150
-150
-150
-150
-150
-150
-150
-150
-150
-150
-149
-149
-149
-148
-148
-148
-148
-147
-147
-148
-148
-148
-148
-148
-148
-148
-148
-148
-148
-148
-148
-148
-147
-147
-148
-148
-147
-147
-147
-147
-147
-148
-148
-148
-148
-148
-148
-148
-148
-148
-148
-148
-149
-149
-148
-149
-149
-149
-149
-148
-149
-149
-148
-149
-149
-148
-148
-147
-147
-147
-147
-145
-145
-145
-144
-144
-142
