# Simple Text Format
# Sampling Rate (Hz):= 1200.00
# Resolution:= 12
# Labels:= ECG	 II
# Age:=	29
# Gender:=	Masculino
-94
-94
-94
-94
-94
-94
-94
-95
-95
-95
-95
-95
-95
-95
-95
-94
-94
-94
-94
-93
-93
-93
-93
-93
-92
-92
-92
-92
-92
-92
-92
-92
-92
-92
-92
-92
-92
-91
-91
-91
-91
-91
-91
-91
-91
-91
-91
-91
-91
-91
-92
-92
-92
-91
-91
-91
-91
-91
-91
-90
-90
-90
-90
-90
-90
-90
-90
-90
-90
-90
-91
-91
-91
-90
-90
-90
-90
-89
-89
-89
-89
-88
-88
-88
-88
-88
-88
-88
-88
-88
-88
-88
-88
-87
-87
-87
-86
-86
-86
-85
-85
-85
-85
-85
-84
-84
-84
-84
-84
-84
-84
-84
-84
-84
-83
-83
-83
-82
-82
-82
-82
-81
-81
-81
-81
-81
-81
-81
-81
-81
-81
-81
-81
-80
-80
-80
-79
-78
-78
-78
-77
-77
-76
-76
-76
-75
-75
-75
-74
-74
-74
-73
-73
-72
-71
-70
-69
-68
-68
-67
-66
-65
-64
-64
-63
-63
-62
-62
-61
-60
-60
-60
-59
-58
-58
-57
-56
-55
-54
-54
-53
-52
-51
-51
-50
-50
-50
-49
-49
-48
-48
-47
-47
-46
-45
-45
-44
-44
-43
-43
-42
-42
-41
-41
-41
-41
-41
-41
-41
-40
-40
-40
-40
-40
-40
-40
-40
-39
-39
-39
-39
-39
-39
-39
-39
-39
-40
-40
-40
-41
-41
-42
-42
-42
-42
-43
-43
-43
-43
-44
-44
-44
-45
-45
-46
-47
-48
-49
-49
-50
-51
-52
-53
-54
-55
-55
-56
-57
-58
-59
-59
-60
-61
-62
-63
-64
-65
-66
-67
-68
-69
-70
-70
-71
-72
-72
-73
-73
-74
-74
-75
-75
-76
-77
-77
-78
-79
-80
-80
-81
-82
-83
-83
-84
-84
-85
-85
-85
-85
-86
-86
-86
-86
-87
-87
-87
-88
-88
-89
-89
-89
-90
-90
-90
-90
-91
-91
-91
-91
-91
-91
-91
-91
-91
-91
-92
-92
-93
-93
-93
-93
-93
-93
-93
-93
-92
-92
-92
-92
-91
-91
-91
-91
-91
-91
-91
-91
-92
-92
-92
-92
-93
-93
-93
-93
-93
-93
-93
-93
-93
-93
-93
-93
-93
-93
-93
-94
-94
-94
-94
-94
-94
-94
-94
-94
-94
-94
-93
-93
-93
-93
-92
-92
-92
-92
-92
-92
-92
-92
-92
-92
-93
-93
-92
-92
-92
-92
-91
-91
-91
-91
-91
-91
-91
-91
-91
-91
-91
-91
-91
-91
-92
-92
-92
-92
-92
-92
-91
-91
-91
-91
-90
-90
-90
-90
-91
-91
-91
-91
-91
-91
-91
-91
-91
-91
-91
-90
-90
-90
-90
-89
-89
-89
-89
-89
-89
-89
-90
-90
-90
-90
-90
-90
-90
-90
-91
-90
-90
-90
-91
-90
-90
-90
-90
-90
-90
-91
-91
-91
-91
-91
-91
-91
-91
-91
-91
-91
-91
-91
-91
-91
-90
-90
-90
-90
-91
-91
-91
-92
-91
-92
-92
-92
-92
-92
-92
-92
-91
-91
-91
-91
-91
-91
-91
-91
-91
-91
-92
-92
-92
-92
-92
-92
-92
-92
-92
-92
-92
-92
-92
-92
-92
-92
-92
-92
-92
-93
-93
-93
-93
-93
-94
-94
-94
-94
-94
-94
-93
-93
-93
-93
-93
-93
-93
-92
-92
-92
-93
-93
-92
-93
-93
-93
-92
-92
-92
-92
-91
-91
-91
-91
-91
-91
-92
-92
-92
-93
-93
-93
-93
-93
-94
-94
-94
-94
-94
-94
-93
-93
-93
-93
-93
-92
-92
-92
-92
-92
-93
-93
-92
-93
-93
-93
-93
-93
-93
-93
-93
-93
-93
-93
-93
-93
-93
-93
-93
-93
-93
-94
-94
-94
-94
-94
-94
-94
-94
-94
-94
-94
-94
-94
-93
-93
-93
-93
-93
-94
-94
-94
-94
-94
-95
-95
-94
-94
-94
-94
-94
-94
-94
-94
-93
-93
-93
-93
-93
-93
-94
-94
-94
-94
-94
-94
-94
-94
-93
-93
-93
-93
-93
-93
-93
-93
-93
-93
-93
-93
-93
-93
-93
-94
-94
-94
-94
-94
-93
-93
-93
-93
-93
-93
-92
-92
-92
-92
-93
-93
-93
-93
-93
-94
-94
-94
-94
-94
-94
-94
-94
-93
-93
-93
-93
-92
-92
-92
-92
-92
-92
-92
-92
-92
-93
-93
-93
-92
-93
-92
-92
-92
-92
-92
-92
-92
-93
-93
-93
-93
-94
-94
-94
-94
-94
-94
-94
-94
-94
-93
-93
-92
-92
-91
-90
-90
-89
-89
-88
-88
-87
-87
-86
-86
-85
-85
-84
-83
-83
-82
-81
-81
-80
-80
-79
-79
-79
-79
-79
-79
-80
-80
-80
-80
-81
-81
-81
-81
-81
-81
-81
-81
-82
-82
-81
-81
-81
-81
-81
-81
-81
-81
-81
-81
-81
-81
-80
-80
-80
-80
-80
-80
-80
-80
-80
-80
-80
-81
-81
-82
-82
-83
-83
-84
-85
-85
-86
-86
-86
-87
-87
-87
-87
-87
-87
-87
-87
-87
-87
-87
-88
-88
-88
-88
-88
-89
-89
-89
-89
-89
-88
-89
-89
-89
-89
-89
-89
-90
-90
-91
-91
-92
-92
-93
-93
-93
-94
-94
-94
-94
-94
-94
-95
-95
-94
-94
-95
-95
-95
-95
-95
-96
-96
-96
-96
-96
-96
-96
-95
-95
-95
-95
-94
-94
-94
-94
-94
-94
-94
-94
-94
-94
-94
-94
-95
-95
-95
-95
-95
-95
-94
-94
-94
-94
-94
-94
-94
-95
-95
-96
-96
-97
-97
-98
-99
-99
-100
-100
-101
-101
-101
-102
-102
-102
-101
-101
-100
-99
-97
-96
-94
-91
-88
-84
-80
-75
-70
-63
-56
-49
-41
-32
-22
-12
0
11
23
36
50
64
78
91
105
118
130
142
153
163
172
180
186
191
194
196
196
194
190
184
177
169
159
148
136
124
110
97
84
71
58
45
33
20
9
-2
-12
-22
-31
-40
-47
-54
-61
-66
-71
-75
-79
-82
-84
-86
-87
-88
-88
-89
-89
-89
-89
-88
-88
-88
-88
-88
-88
-88
-88
-88
-89
-89
-89
-89
-90
-90
-90
-90
-91
-91
-91
-91
-91
-91
-92
-92
-92
-93
-93
-93
-94
-94
-94
-94
-94
-94
-94
-93
-93
-93
-93
-93
-93
-93
-93
-93
-93
-94
-93
-93
-94
-94
-93
-93
-93
-93
-92
-92
-92
-92
-91
-91
-91
-91
-91
-91
-92
-92
-92
-92
-93
-93
-93
-93
-93
-93
-92
-92
-92
-92
-92
-92
-92
-92
-92
-92
-92
-93
-93
-93
-93
-93
-93
-93
-93
-93
-93
-92
-92
-92
-92
-92
-92
-92
-91
-91
-91
-91
-91
-91
-92
-92
-91
-91
-91
-91
-90
-90
-90
-90
-90
-90
-90
-90
-90
-90
-90
-90
-90
-90
-90
-90
-90
-90
-90
-90
-90
-89
-89
-89
-88
-88
-88
-88
-88
-88
-88
-88
-88
-88
-88
-88
-88
-88
-87
-87
-87
-87
-86
-86
-86
-86
-85
-85
-85
-85
-85
-85
-85
-85
-85
-86
-85
-85
-85
-85
-84
-84
-84
-83
-83
-82
-82
-82
-82
-82
-81
-81
-81
-81
-80
-80
-80
-79
-78
-78
-77
-76
-76
-75
-74
-73
-73
-72
-72
-71
-71
-71
-70
-69
-69
-69
-68
-67
-66
-66
-65
-64
-63
-62
-61
-60
-60
-59
-59
-58
-58
-57
-57
-56
-56
-55
-54
-54
-53
-52
-51
-51
-50
-49
-48
-48
-47
-47
-46
-46
-45
-45
-45
-44
-44
-44
-44
-43
-42
-42
-41
-41
-41
-40
-40
-40
-39
-39
-39
-39
-39
-40
-40
-40
-40
-40
-40
-41
-41
-41
-41
-41
-42
-42
-43
-43
-44
-44
-45
-46
-47
-48
-49
-50
-51
-52
-53
-54
-54
-55
-56
-56
-57
-58
-59
-60
-61
-61
-62
-63
-64
-65
-66
-67
-68
-69
-70
-71
-71
-72
-73
-73
-74
-75
-75
-76
-76
-77
-78
-79
-80
-81
-82
-82
-83
-84
-84
-85
-85
-86
-86
-86
-86
-87
-87
-87
-87
-88
-88
-88
-89
-90
-90
-90
-91
-91
-92
-92
-92
-92
-92
-92
-93
-93
-93
-93
-93
-94
-94
-94
-95
-95
-95
-96
-96
-96
-96
-96
-97
-97
-96
-96
-96
-97
-96
-96
-96
-97
-97
-97
-97
-98
-98
-98
-98
-98
-98
-98
-98
-98
-98
-98
-98
-98
-97
-97
-97
-97
-97
-97
-98
-98
-98
-98
-99
-99
-99
-99
-99
-99
-99
-99
-99
-99
-99
-99
-99
-99
-99
-99
-99
-99
-99
-99
-99
-99
-99
-98
-98
-98
-98
-97
-97
-97
-97
-97
-97
-97
-97
-97
-98
-98
-98
-98
-98
-99
-99
-98
-98
-98
-98
-98
-98
-98
-97
-97
-97
-97
-97
-97
-97
-97
-97
-97
-97
-97
-97
-97
-97
-97
-97
-96
-96
-96
-96
-96
-96
-96
-96
-96
-96
-96
-96
-96
-96
-97
-97
-97
-96
-96
-96
-95
-95
-95
-95
-95
-95
-95
-95
-95
-95
-95
-95
-95
-96
-96
-96
-96
-96
-96
-96
-96
-96
-96
-96
-96
-96
-96
-96
-97
-97
-97
-97
-98
-98
-98
-99
-99
-99
-99
-98
-98
-98
-98
-98
-97
-97
-98
-97
-98
-98
-98
-98
-98
-98
-98
-98
-98
-99
-98
-98
-98
-98
-98
-98
-98
-98
-98
-98
-99
-99
-99
-100
-100
-100
-100
-100
-100
-100
-100
-100
-99
-99
-99
-99
-99
-99
-99
-99
-99
-99
-99
-99
-99
-99
-100
-100
-99
-99
-99
-99
-99
-99
-99
-99
-99
-99
-99
-99
-99
-100
-100
-100
-100
-101
-101
-101
-101
-101
-101
-101
-101
-101
-102
-102
-101
-102
-102
-102
-102
-102
-103
-103
-103
-103
-103
-103
-103
-103
-103
-103
-102
-102
-102
-102
-102
-102
-102
-102
-102
-102
-103
-103
-102
-103
-103
-103
-103
-103
-103
-102
-102
-102
-102
-102
-101
-101
-101
-101
-101
-101
-102
-102
-101
-102
-102
-102
-102
-101
-101
-101
-101
-100
-100
-100
-100
-100
-100
-100
-100
-101
-101
-101
-101
-101
-101
-102
-102
-102
-101
-101
-101
-101
-101
-101
-101
-100
-100
-100
-100
-100
-101
-101
-101
-101
-101
-101
-101
-101
-101
-100
-100
-100
-100
-100
-100
-100
-100
-100
-100
-101
-101
-101
-101
-101
-102
-102
-102
-102
-102
-102
-101
-101
-101
-101
-101
-101
-101
-101
-101
-101
-101
-101
-101
-101
-102
-102
-102
-102
-102
-101
-101
-101
-101
-101
-101
-101
-101
-101
-101
-102
-102
-102
-102
-102
-102
-103
-102
-102
-102
-102
-101
-101
-101
-101
-101
-101
-101
-101
-101
-101
-102
-102
-102
-102
-102
-103
-103
-103
-103
-103
-103
-103
-103
-102
-102
-102
-102
-102
-102
-102
-102
-102
-102
-102
-102
-101
-101
-101
-100
-100
-99
-99
-99
-99
-98
-98
-98
-98
-97
-97
-97
-97
-96
-96
-96
-95
-95
-94
-94
-93
-92
-91
-91
-90
-89
-89
-88
-88
-87
-87
-87
-87
-87
-87
-87
-87
-87
-87
-88
-88
-87
-87
-88
-88
-87
-88
-88
-88
-88
-88
-89
-89
-89
-89
-90
-90
-90
-90
-90
-90
-89
-89
-89
-89
-89
-89
-89
-90
-90
-90
-91
-91
-91
-92
-92
-93
-93
-93
-94
-94
-94
-94
-94
-94
-94
-95
-95
-95
-96
-96
-97
-97
-97
-98
-98
-98
-98
-99
-99
-99
-99
-99
-99
-99
-99
-99
-99
-99
-100
-100
-101
-101
-102
-102
-103
-103
-104
-104
-104
-104
-104
-104
-105
-105
-105
-105
-105
-106
-106
-106
-106
-107
-107
-107
-107
-107
-107
-107
-106
-106
-106
-106
-106
-105
-105
-105
-105
-105
-105
-105
-105
-105
-105
-105
-105
-106
-105
-105
-105
-105
-105
-105
-105
-105
-105
-105
-105
-105
-105
-106
-106
-106
-106
-107
-107
-107
-107
-107
-107
-107
-107
-107
-107
-107
-107
-107
-107
-106
-106
-105
-105
-104
-102
-101
-99
-96
-93
-89
-85
-80
-75
-69
-63
-56
-48
-39
-30
-21
-10
0
12
25
39
52
66
80
94
108
121
134
146
156
166
175
182
188
192
194
195
193
190
185
178
170
160
150
138
125
112
99
85
72
58
44
31
18
5
-6
-17
-28
-38
-48
-56
-63
-70
-76
-81
-85
-89
-92
-94
-96
-98
-99
-99
-99
-100
-100
-100
-99
-100
-99
-99
-99
-99
-99
-99
-99
-99
-99
-99
-99
-100
-100
-100
-101
-101
-102
-102
-103
-103
-104
-104
-104
-104
-105
-104
-104
-104
-104
-104
-104
-104
-104
-103
-103
-103
-103
-103
-103
-103
-103
-103
-103
-104
-104
-104
-104
-104
-104
-103
-103
-103
-103
-103
-103
-103
-103
-103
-103
-103
-104
-104
-104
-104
-104
-104
-104
-104
-103
-103
-103
-103
-102
-102
-102
-102
-102
-102
-102
-102
-102
-102
-102
-103
-103
-103
-103
-103
-103
-102
-102
-102
-102
-102
-101
-101
-101
-101
-102
-102
-102
-102
-102
-102
-102
-102
-102
-102
-102
-101
-101
-101
-101
-100
-100
-100
-100
-100
-100
-100
-100
-100
-100
-100
-100
-100
-100
-100
-100
-100
-99
-99
-99
-99
-98
-98
-98
-98
-98
-98
-98
-98
-98
-98
-98
-98
-97
-97
-96
-96
-96
-95
-95
-95
-94
-94
-94
-94
-94
-94
-94
-94
-94
-95
-95
-94
-94
-94
-94
-94
-93
-93
-93
-92
-92
-92
-92
-91
-91
-91
-91
-91
-90
-90
-90
-89
-88
-88
-87
-87
-86
-85
-84
-84
-83
-83
-82
-81
-81
-81
-80
-80
-79
-79
-79
-78
-77
-77
-76
-75
-74
-74
-73
-72
-71
-70
-70
-69
-68
-68
-67
-67
-66
-65
-65
-64
-63
-62
-61
-60
-59
-58
-57
-56
-55
-54
-54
-53
-53
-52
-52
-51
-51
-50
-50
-50
-49
-48
-48
-47
-47
-46
-46
-45
-45
-45
-44
-44
-44
-44
-44
-44
-44
-45
-45
-45
-45
-45
-45
-45
-45
-45
-45
-45
-45
-45
-46
-46
-47
-48
-49
-49
-50
-51
-52
-52
-53
-54
-54
-55
-56
-57
-58
-58
-59
-60
-61
-62
-63
-65
-66
-67
-68
-69
-71
-72
-72
-73
-74
-75
-76
-77
-78
-78
-79
-80
-81
-82
-83
-84
-85
-86
-87
-88
-89
-90
-90
-91
-92
-92
-93
-94
-94
-95
-95
-96
-96
-97
-98
-98
-99
-100
-100
-101
-101
-102
-102
-102
-102
-102
-102
-102
-102
-102
-102
-102
-102
-103
-103
-103
-103
-103
-104
-104
-104
-104
-104
-105
-105
-105
-105
-105
-105
-105
-105
-105
-105
-105
-106
-106
-106
-106
-107
-107
-107
-107
-107
-107
-107
-107
-106
-106
-106
-106
-106
-106
-106
-106
-107
-107
-107
-107
-108
-108
-108
-108
-108
-108
-108
-108
-108
-108
-108
-108
-108
-108
-108
-108
-108
-108
-109
-109
-109
-109
-109
-109
-108
-108
-108
-108
-108
-108
-107
-107
-107
-107
-107
-107
-107
-107
-108
-108
-108
-108
-109
-109
-108
-108
-108
-108
-108
-108
-108
-107
-107
-107
-107
-107
-107
-107
-107
-107
-107
-108
-108
-108
-108
-108
-108
-107
-107
-107
-107
-107
-107
-107
-107
-107
-107
-107
-107
-107
-107
-107
-107
-107
-107
-107
-107
-107
-107
-107
-107
-107
-107
-107
-107
-107
-107
-107
-107
-107
-107
-108
-108
-108
-108
-108
-108
-107
-107
-107
-107
-107
-107
-107
-107
-107
-107
-108
-108
-108
-108
-108
-109
-109
-109
-109
-109
-108
-108
-108
-108
-108
-108
-108
-108
-108
-108
-108
-109
-109
-109
-109
-109
-109
-109
-109
-109
-109
-109
-109
-109
-109
-108
-108
-109
-109
-109
-109
-110
-110
-110
-110
-111
-111
-111
-111
-111
-110
-110
-110
-110
-110
-110
-110
-110
-110
-110
-110
-110
-110
-110
-110
-111
-110
-110
-110
-110
-110
-109
-110
-110
-109
-109
-109
-109
-109
-109
-110
-110
-110
-110
-110
-110
-110
-110
-110
-110
-110
-110
-110
-110
-110
-110
-110
-110
-110
-110
-110
-111
-111
-111
-111
-111
-111
-111
-111
-111
-110
-110
-110
-110
-110
-109
-109
-109
-109
-109
-109
-110
-110
-110
-110
-110
-110
-110
-110
-110
-110
-110
-110
-110
-110
-109
-109
-109
-109
-110
-110
-110
-110
-110
-111
-111
-111
-111
-111
-111
-111
-111
-111
-111
-111
-110
-110
-111
-111
-111
-111
-111
-111
-111
-112
-112
-112
-112
-111
-111
-111
-110
-110
-110
-110
-109
-109
-109
-109
-109
-110
-110
-110
-110
-110
-111
-111
-111
-111
-111
-110
-110
-110
-110
-110
-110
-110
-110
-110
-111
-111
-111
-111
-111
-111
-111
-111
-111
-111
-111
-111
-111
-110
-110
-110
-110
-110
-109
-109
-109
-109
-110
-110
-110
-110
-110
-110
-110
-110
-110
-109
-109
-109
-109
-109
-109
-109
-109
-109
-109
-109
-109
-110
-109
-110
-110
-110
-110
-110
-110
-110
-110
-110
-110
-110
-110
-110
-110
-110
-110
-111
-111
-111
-111
-111
-112
-112
-111
-111
-111
-111
-110
-110
-110
-110
-109
-109
-109
-109
-109
-109
-109
-109
-109
-110
-110
-110
-110
-110
-110
-110
-109
-109
-110
-109
-109
-109
-109
-109
-109
-110
-110
-110
-110
-110
-110
-110
-110
-110
-110
-110
-109
-109
-109
-109
-109
-109
-109
-109
-109
-109
-109
-109
-109
-109
-110
-110
-110
-110
-110
-110
-110
-110
-110
-110
-110
-110
-110
-110
-110
-111
-111
-111
-111
-111
-111
-111
-111
-111
-111
-110
-109
-109
-109
-108
-108
-108
-108
-107
-107
-107
-107
-107
-106
-106
-106
-105
-105
-104
-104
-103
-102
-102
-101
-100
-100
-99
-99
-98
-98
-98
-98
-98
-97
-97
-98
-97
-97
-97
-97
-97
-96
-96
-96
-96
-96
-96
-96
-96
-96
-96
-96
-96
-96
-96
-96
-96
-96
-96
-96
-96
-95
-95
-95
-95
-94
-94
-95
-95
-95
-95
-96
-96
-96
-97
-97
-98
-98
-98
-98
-99
-99
-99
-100
-100
-100
-101
-101
-102
-102
-102
-103
-103
-103
-104
-104
-104
-104
-104
-104
-104
-104
-104
-104
-104
-104
-104
-104
-105
-105
-105
-106
-106
-107
-107
-107
-108
-108
-108
-109
-109
-109
-109
-109
-109
-109
-110
-110
-110
-110
-111
-111
-111
-111
-112
-112
-112
-112
-112
-112
-112
-111
-111
-111
-111
-111
-111
-111
-111
-111
-111
-111
-111
-111
-111
-111
-111
-111
-111
-111
-111
-111
-110
-110
-110
-110
-110
-110
-110
-110
-111
-111
-111
-111
-111
-112
-112
-112
-112
-112
-113
-113
-113
-113
-113
-113
-113
-113
-114
-114
-114
-114
-114
-113
-113
-113
-111
-110
-108
-106
-103
-100
-96
-92
-87
-82
-76
-70
-64
-56
-48
-39
-29
-18
-7
5
18
31
45
59
73
87
101
114
126
138
148
158
166
172
177
181
182
182
180
176
171
164
156
146
136
124
112
99
86
73
59
46
33
20
7
-4
-16
-27
-37
-46
-55
-63
-70
-76
-81
-85
-89
-93
-95
-97
-99
-101
-102
-103
-103
-104
-104
-104
-104
-104
-104
-103
-103
-103
-103
-102
-102
-102
-102
-102
-102
-103
-103
-103
-104
-105
-105
-106
-106
-107
-107
-108
-108
-108
-108
-108
-108
-109
-109
-108
-108
-109
-109
-109
-109
-110
-110
-110
-110
-110
-110
-110
-110
-110
-110
-110
-109
-109
-109
-109
-108
-108
-108
-108
-109
-109
-109
-109
-109
-109
-110
-110
-109
-109
-109
-108
-108
-108
-108
-107
-107
-107
-107
-107
-107
-107
-107
-107
-107
-107
-107
-107
-107
-107
-106
-106
-106
-106
-106
-105
-105
-105
-105
-105
-104
-105
-105
-105
-105
-105
-105
-105
-105
-104
-104
-104
-104
-104
-103
-103
-103
-103
-103
-103
-103
-103
-103
-103
-103
-104
-104
-103
-103
-103
-103
-103
-103
-103
-102
-102
-102
-102
-102
-102
-102
-102
-102
-102
-102
-102
-102
-102
-102
-102
-102
-101
-101
-101
-100
-100
-99
-99
-99
-99
-99
-99
-99
-99
-98
-98
-98
-98
-97
-97
-97
-96
-96
-96
-95
-95
-94
-94
-94
-94
-94
-94
-94
-94
-94
-94
-94
-93
-93
-93
-93
-92
-91
-91
-90
-90
-89
-89
-88
-88
-87
-87
-87
-86
-86
-85
-85
-84
-83
-83
-82
-81
-80
-79
-79
-78
-77
-76
-76
-75
-74
-74
-73
-72
-72
-71
-71
-70
-69
-68
-68
-67
-66
-65
-64
-63
-63
-62
-61
-61
-60
-60
-60
-59
-59
-59
-58
-58
-57
-56
-56
-55
-54
-54
-53
-52
-52
-51
-51
-50
-50
-50
-50
-49
-49
-49
-49
-49
-49
-48
-49
-48
-48
-49
-49
-49
-49
-49
-50
-50
-50
-51
-52
-52
-53
-53
-54
-54
-54
-55
-55
-56
-56
-56
-57
-57
-58
-59
-60
-60
-61
-62
-63
-64
-65
-67
-68
-69
-69
-70
-71
-72
-72
-73
-74
-74
-75
-76
-77
-78
-79
-80
-81
-82
-83
-84
-85
-85
-86
-87
-88
-88
-89
-90
-90
-91
-92
-92
-93
-94
-95
-96
-97
-97
-98
-99
-99
-100
-100
-100
-100
-100
-100
-101
-101
-101
-101
-101
-101
-102
-102
-102
-103
-103
-103
-103
-104
-104
-104
-104
-104
-104
-105
-105
-105
-104
-104
-105
-105
-105
-105
-106
-106
-107
-107
-107
-108
-108
-108
-108
-108
-107
-107
-107
-107
-107
-107
-107
-107
-107
-107
-107
-107
-107
-107
-107
-108
-107
-107
-107
-107
-107
-107
-106
-106
-106
-106
-106
-106
-106
-106
-106
-107
-107
-107
-107
-108
-108
-108
-108
-108
-108
-107
-107
-107
-107
-107
-107
-107
-107
-108
-108
-108
-108
-108
-108
-108
-108
-108
-108
-108
-108
-107
-107
-107
-107
-106
-106
-106
-106
-107
-107
-107
-107
-107
-107
-108
-108
-107
-107
-107
-107
-107
-107
-107
-107
-106
-106
-107
-107
-107
-107
-107
-107
-107
-107
-107
-107
-107
-107
-107
-107
-106
-106
-106
-106
-106
-106
-106
-106
-106
-106
-106
-106
-106
-107
-107
-107
-107
-107
-107
-107
-106
-107
-107
-106
-106
-106
-106
-106
-106
-106
-107
-107
-107
-107
-107
-107
-106
-106
-106
-106
-106
-105
-105
-105
-105
-105
-105
-105
-106
-106
-106
-107
-107
-107
-107
-107
-107
-107
-107
-107
-107
-107
-107
-107
-106
-106
-106
-106
-106
-107
-107
-107
-107
-107
-107
-107
-107
-107
-107
-106
-106
-106
-106
-106
-105
-105
-106
-106
-106
-106
-106
-106
-107
-107
-107
-107
-107
-108
-108
-107
-107
-108
-108
-108
-107
-108
-108
-108
-108
-108
-108
-108
-108
-109
-109
-109
-109
-109
-108
-108
-108
-108
-107
-107
-107
-107
-107
-107
-107
-107
-107
-107
-107
-107
-108
-108
-107
-107
-107
-107
-106
-107
-107
-106
-106
-106
-106
-106
-107
-107
-108
-108
-108
-108
-109
-109
-109
-109
-109
-108
-108
-108
-108
-108
-108
-108
-108
-108
-107
-108
-108
-108
-108
-108
-108
-108
-108
-108
-107
-107
-107
-107
-107
-107
-107
-107
-107
-107
-107
-107
-108
-108
-107
-108
-108
-108
-108
-108
-107
-107
-107
-107
-107
-106
-106
-106
-106
-106
-107
-107
-107
-107
-107
-107
-108
-108
-108
-108
-108
-107
-107
-107
-107
-107
-107
-107
-107
-107
-107
-108
-108
-108
-109
-109
-109
-109
-109
-109
-109
-109
-109
-109
-109
-109
-109
-109
-109
-109
-109
-109
-109
-109
-109
-109
-109
-109
-109
-109
-109
-109
-108
-108
-108
-108
-108
-107
-107
-107
-107
-108
-108
-108
-108
-108
-108
-108
-108
-108
-108
-108
-108
-108
-108
-108
-108
-108
-108
-108
-109
-109
-109
-109
-109
-109
-109
-109
-109
-109
-109
-108
-108
-108
-108
-108
-107
-107
-107
-107
-107
-107
-108
-108
-107
-108
-108
-108
-108
-108
-107
-107
-107
-107
-106
-106
-106
-106
-106
-106
-106
-107
-107
-107
-107
-107
-107
-107
-107
-107
-107
-107
-107
-107
-107
-107
-107
-107
-107
-107
-107
-107
-108
-108
-108
-108
-108
-108
-107
-107
-106
-106
-105
-105
-104
-103
-103
-102
-101
-101
-100
-100
-99
-99
-98
-98
-97
-97
-96
-96
-95
-95
-94
-94
-94
-94
-93
-93
-93
-93
-94
-94
-95
-95
-95
-95
-96
-96
-96
-97
-97
-97
-97
-97
-97
-97
-96
-96
-96
-96
-96
-96
-96
-96
-96
-96
-96
-95
-95
-95
-94
-94
-94
-93
-93
-93
-93
-93
-93
-94
-94
-95
-95
-96
-96
-97
-98
-98
-99
-99
-100
-100
-100
-100
-101
-101
-101
-101
-101
-101
-101
-102
-102
-102
-102
-102
-102
-102
-103
-103
-103
-103
-102
-103
-103
-103
-104
-104
-104
-105
-105
-106
-107
-107
-108
-108
-109
-109
-109
-109
-109
-109
-109
-109
-108
-108
-108
-108
-107
-107
-107
-108
-108
-108
-108
-108
-108
-108
-108
-108
-108
-108
-107
-107
-107
-107
-107
-107
-107
-107
-107
-107
-108
-108
-107
-108
-108
-108
-108
-107
-107
-107
-107
-107
-107
-107
-107
-107
-107
-107
-108
-109
-109
-110
-110
-111
-112
-112
-113
-113
-113
-114
-113
-114
-114
-113
-112
-111
-110
-108
-106
-104
-101
-98
-93
-89
-84
-78
-72
-64
-57
-48
-38
-28
-17
-5
6
19
33
47
60
74
87
100
113
125
136
147
156
164
171
176
180
182
183
181
178
174
167
159
150
139
128
116
103
90
76
63
50
37
24
12
1
-10
-21
-31
-40
-48
-56
-64
-70
-76
-81
-85
-89
-92
-95
-97
-98
-100
-100
-101
-101
-101
-101
-101
-100
-100
-100
-100
-99
-100
-100
-100
-100
-100
-101
-101
-101
-102
-102
-102
-102
-103
-103
-103
-103
-104
-104
-104
-104
-105
-105
-105
-106
-106
-106
-107
-106
-106
-106
-106
-105
-105
-105
-105
-105
-105
-105
-105
-105
-105
-105
-105
-105
-105
-105
-105
-105
-105
-105
-105
-105
-105
-105
-105
-105
-104
-105
-105
-105
-105
-105
-106
-106
-106
-106
-107
-106
-106
-106
-106
-106
-106
-106
-106
-105
-105
-105
-105
-105
-105
-106
-106
-105
-105
-105
-105
-105
-105
-104
-104
-103
-103
-103
-103
-102
-102
-102
-102
-102
-102
-102
-102
-102
-102
-102
-102
-102
-102
-102
-101
-101
-101
-101
-101
-100
-100
-100
-100
-99
-100
-100
-100
-100
-100
-101
-101
-100
-100
-100
-100
-100
-99
-99
-99
-99
-99
-99
-99
-99
-99
-99
-99
-99
-99
-99
-99
-99
-98
-98
-98
-97
-97
-97
-97
-96
-96
-96
-96
-95
-95
-95
-95
-95
-95
-95
-94
-94
-93
-93
-92
-92
-91
-91
-90
-90
-89
-89
-89
-88
-88
-88
-88
-88
-87
-87
-87
-87
-86
-85
-85
-84
-84
-84
-83
-82
-82
-81
-81
-80
-80
-80
-79
-79
-78
-78
-77
-76
-76
-75
-74
-73
-72
-71
-70
-69
-68
-67
-66
-65
-65
-64
-64
-63
-63
-62
-62
-61
-60
-60
-59
-58
-58
-57
-57
-56
-55
-55
-54
-54
-53
-53
-53
-52
-52
-51
-51
-50
-50
-50
-49
-48
-48
-48
-47
-47
-46
-46
-46
-46
-46
-46
-47
-47
-47
-47
-47
-47
-47
-47
-48
-48
-48
-48
-48
-48
-49
-49
-50
-51
-51
-52
-53
-54
-55
-56
-57
-58
-59
-60
-61
-61
-62
-63
-64
-64
-65
-66
-67
-68
-69
-70
-71
-72
-73
-74
-75
-75
-76
-76
-77
-78
-78
-79
-80
-80
-81
-82
-83
-84
-85
-86
-87
-87
-88
-89
-90
-90
-91
-91
-92
-92
-92
-93
-93
-93
-93
-94
-94
-95
-95
-96
-96
-96
-97
-97
-98
-98
-98
-98
-98
-98
-98
-99
-99
-99
-99
-99
-99
-99
-100
-100
-101
-101
-101
-101
-102
-102
-102
-102
-102
-102
-102
-102
-102
-101
-101
-102
-102
-102
-102
-102
-102
-102
-103
-103
-103
-103
-103
-103
-103
-103
-102
-102
-102
-102
-102
-102
-102
-103
-103
-103
-103
-104
-104
-104
-104
-104
-104
-105
-105
-104
-104
-104
-104
-103
-103
-103
-103
-103
-103
-103
-104
-103
-103
-104
-104
-103
-103
-103
-103
-103
-103
-103
-103
-102
-102
-102
-102
-102
-102
-103
-103
-103
-103
-103
-103
-103
-103
-103
-103
-103
-102
-102
-102
-102
-102
-102
-102
-102
-102
-102
-102
-102
-103
-103
-103
-103
-103
-103
-102
-102
-102
-102
-101
-101
-101
-101
-101
-101
-101
-101
-101
-101
-101
-101
-101
-101
-101
-100
-100
-100
-100
-100
-100
-99
-99
-99
-99
-99
-99
-99
-100
-100
-100
-100
-100
-100
-100
-100
-100
-100
-100
-100
-100
-100
-100
-100
-101
-101
-101
-101
-102
-102
-103
-103
-103
-103
-103
-103
-103
-103
-103
-103
-103
-103
-103
-103
-103
-103
-103
-103
-103
-103
-104
-104
-104
-104
-104
-104
-103
-103
-103
-103
-103
-103
-102
-102
-103
-103
-103
-103
-104
-104
-104
-104
-105
-105
-105
-105
-105
-105
-105
-105
-105
-105
-104
-104
-104
-104
-104
-104
-104
-104
-104
-104
-104
-104
-104
-103
-103
-103
-102
-102
-102
-102
-101
-101
-102
-102
-102
-102
-103
-103
-103
-103
-103
-104
-104
-104
-104
-104
-103
-104
-104
-103
-103
-104
-104
-104
-104
-105
-105
-106
-106
-106
-106
-106
-106
-106
-106
-106
-106
-106
-105
-105
-105
-105
-105
-104
-104
-104
-104
-104
-104
-104
-105
-104
-104
-104
-104
-104
-103
-103
-103
-103
-103
-103
-103
-103
-103
-104
-104
-104
-104
-105
-105
-105
-105
-105
-105
-105
-104
-104
-104
-104
-104
-104
-104
-104
-105
-105
-105
-105
-105
-105
-106
-106
-106
-106
-105
-105
-105
-105
-105
-104
-104
-104
-104
-104
-104
-104
-105
-105
-105
-105
-105
-105
-104
-104
-104
-104
-104
-104
-104
-103
-103
-103
-103
-103
-103
-103
-104
-104
-104
-104
-105
-105
-105
-105
-105
-104
-104
-104
-104
-104
-104
-104
-104
-104
-104
-104
-104
-104
-104
-104
-104
-104
-104
-104
-104
-103
-103
-103
-103
-102
-102
-102
-102
-102
-102
-103
-103
-103
-103
-103
-104
-104
-104
-104
-104
-104
-104
-104
-104
-104
-104
-104
-104
-104
-104
-104
-105
-105
-105
-105
-105
-105
-105
-105
-105
-105
-104
-104
-104
-104
-103
-103
-103
-103
-103
-104
-104
-104
-103
-104
-104
-103
-103
-103
-102
-102
-101
-101
-101
-100
-100
-99
-99
-98
-98
-98
-98
-97
-97
-97
-97
-96
-96
-95
-95
-94
-93
-93
-93
-92
-91
-91
-91
-91
-90
-91
-91
-90
-90
-90
-90
-90
-90
-90
-90
-90
-89
-89
-89
-89
-89
-89
-89
-89
-89
-89
-90
-90
-90
-90
-90
-90
-90
-90
-90
-90
-89
-90
-90
-89
-89
-89
-89
-90
-90
-90
-91
-91
-91
-92
-92
-92
-93
-93
-93
-93
-93
-93
-93
-94
-94
-94
-94
-95
-95
-96
-96
-96
-97
-97
-98
-98
-98
-98
-98
-98
-98
-98
-98
-98
-98
-98
-99
-99
-100
-100
-101
-101
-102
-102
-103
-103
-103
-104
-104
-104
-104
-104
-105
-105
-105
-105
-105
-105
-105
-105
-106
-106
-106
-106
-106
-106
-106
-106
-106
-106
-105
-105
-105
-105
-105
-105
-105
-104
-105
-105
-105
-105
-105
-105
-105
-105
-105
-105
-105
-105
-105
-105
-105
-104
-104
-104
-104
-105
-105
-105
-106
-106
-107
-107
-108
-108
-108
-108
-109
-109
-109
-109
-110
-109
-109
-109
-109
-108
-108
-107
-106
-105
-103
-101
-98
-95
-92
-88
-83
-77
-71
-65
-58
-50
-41
-32
-22
-11
0
11
24
38
52
65
79
93
106
119
131
143
154
163
171
178
184
187
189
190
188
184
179
173
165
155
145
133
121
108
95
82
69
56
43
30
17
5
-5
-16
-27
-37
-46
-54
-61
-68
-73
-78
-82
-86
-89
-91
-93
-94
-96
-96
-96
-96
-97
-96
-96
-97
-97
-96
-96
-96
-97
-97
-97
-97
-97
-97
-97
-97
-98
-98
-98
-98
-99
-99
-100
-100
-101
-101
-101
-102
-102
-102
-103
-103
-103
-102
-102
-102
-102
-102
-102
-102
-102
-102
-102
-102
-103
-103
-103
-103
-103
-103
-103
-103
-103
-103
-102
-102
-102
-102
-102
-102
-101
-101
-101
-101
-102
-102
-101
-102
-102
-102
-101
-101
-101
-101
-100
-100
-100
-100
-99
-99
-99
-99
-99
-99
-100
-100
-99
-99
-99
-99
-99
-99
-99
-98
-98
-98
-97
-97
-97
-97
-97
-97
-97
-97
-97
-97
-97
-97
-97
-97
-97
-97
-97
-96
-96
-96
-96
-96
-95
-95
-95
-95
-95
-96
-96
-96
-96
-96
-96
-96
-96
-96
-96
-96
-95
-95
-95
-95
-94
-94
-94
-93
-93
-94
-94
-94
-93
-93
-93
-93
-93
-93
-93
-92
-92
-92
-91
-91
-91
-91
-91
-91
-91
-91
-91
-91
-90
-90
-90
-90
-90
-90
-90
-89
-88
-88
-88
-87
-86
-86
-86
-85
-85
-85
-85
-84
-84
-84
-84
-83
-83
-82
-81
-81
-80
-79
-79
-78
-78
-77
-77
-76
-76
-75
-75
-74
-74
-73
-73
-72
-71
-71
-70
-69
-68
-67
-66
-66
-64
-64
-63
-62
-61
-61
-60
-60
-59
-58
-58
-57
-56
-55
-55
-53
-52
-51
-51
-50
-49
-48
-47
-47
-46
-46
-46
-45
-45
-44
-44
-43
-43
-42
-42
-41
-41
-40
-40
-39
-39
-38
-38
-38
-38
-37
-38
-37
-37
-37
-37
-37
-37
-37
-37
-37
-37
-37
-37
-37
-37
-38
-38
-38
-39
-40
-40
-41
-42
-42
-43
-44
-45
-46
-46
-47
-48
-49
-50
-50
-51
-52
-53
-55
-56
-57
-59
-60
-61
-62
-63
-64
-65
-66
-67
-67
-68
-69
-70
-70
-71
-72
-73
-73
-74
-75
-76
-77
-78
-79
-80
-81
-82
-82
-83
-83
-84
-84
-85
-85
-85
-86
-86
-87
-87
-88
-89
-89
-90
-90
-91
-91
-91
-92
-92
-92
-92
-92
-92
-92
-92
-92
-93
-93
-93
-94
-94
-94
-95
-95
-96
-96
-96
-96
-96
-96
-95
-95
-96
-96
-95
-95
-96
-96
-96
-96
-97
-97
-97
-97
-97
-98
-98
-98
-98
-98
-97
-97
-97
-97
-97
-97
-97
-97
-97
-97
-97
-97
-97
-97
-97
-97
-97
-97
-97
-97
-97
-96
-96
-96
-96
-96
-96
-96
-96
-96
-97
-97
-97
-97
-97
-97
-97
-97
-97
-97
-97
-97
-97
-97
-97
-97
-97
-98
-98
-98
-98
-98
-98
-98
-99
-99
-99
-99
-98
-98
-98
-97
-97
-97
-96
-96
-96
-95
-95
-95
-96
-96
-96
-96
-96
-96
-96
-96
-96
-96
-96
-96
-96
-96
-96
-96
-96
-96
-96
-96
-96
-96
-96
-96
-97
-96
-96
-96
-96
-96
-95
-95
-95
-95
-94
-94
-94
-94
-94
-94
-94
-94
-94
-94
-94
-94
-94
-94
-94
-94
-94
-94
-94
-94
-93
-93
-94
-94
-94
-94
-95
-95
-95
-95
-96
-96
-96
-96
-96
-96
-95
-95
-95
-95
-95
-95
-95
-96
-96
-96
-96
-96
-97
-97
-97
-97
-97
-97
-97
-97
-97
-97
-97
-97
-96
-96
-96
-96
-96
-96
-97
-97
-97
-97
-97
-97
-97
-97
-97
-97
-96
-96
-96
-96
-95
-95
-95
-95
-95
-95
-95
-96
-96
-96
-96
-96
-96
-96
-96
-96
-96
-96
-96
-96
-95
-95
-95
-96
-96
-96
-96
-97
-97
-97
-97
-98
-98
-98
-98
-98
-97
-97
-97
-97
-97
-97
-97
-97
-97
-97
-97
-97
-97
-98
-98
-98
-98
-98
-97
-97
-97
-97
-97
-97
-97
-97
-97
-97
-97
-97
-97
-98
-98
-98
-98
-98
-98
-98
-98
-98
-98
-98
-98
-98
-98
-98
-98
-98
-98
-98
-98
-98
-98
-99
-99
-99
-99
-98
-98
-98
-98
-98
-98
-97
-97
-97
-97
-97
-97
-98
-98
-98
-98
-99
-99
-99
-99
-99
-99
-99
-99
-98
-98
-98
-97
-97
-97
-97
-97
-97
-97
-97
-97
-97
-97
-97
-97
-97
-97
-97
-97
-97
-97
-97
-97
-97
-97
-97
-97
-98
-98
-98
-98
-98
-98
-98
-98
-98
-98
-98
-98
-97
-97
-97
-97
-97
-97
-97
-97
-97
-97
-98
-98
-98
-98
-98
-98
-98
-98
-98
-97
-97
-97
-97
-96
-96
-96
-97
-96
-96
-97
-97
-97
-97
-98
-98
-98
-98
-98
-97
-97
-97
-97
-96
-96
-96
-96
-96
-96
-96
-96
-96
-96
-96
-96
-96
-95
-95
-95
-94
-94
-93
-93
-92
-92
-91
-91
-90
-90
-89
-89
-89
-88
-88
-87
-87
-86
-86
-85
-85
-84
-84
-83
-83
-82
-82
-82
-82
-82
-82
-82
-83
-83
-83
-83
-83
-83
-83
-83
-83
-83
-83
-83
-83
-83
-83
-83
-83
-83
-83
-83
-83
-83
-84
-84
-84
-84
-84
-84
-84
-84
-84
-84
-84
-84
-84
-84
-84
-85
-85
-85
-86
-86
-87
-88
-88
-88
-89
-89
-89
-89
-89
-89
-89
-89
-89
-90
-90
-90
-90
-90
-91
-91
-91
-91
-92
-92
-92
-92
-92
-92
-92
-92
-92
-92
-93
-93
-94
-94
-94
-95
-96
-96
-97
-97
-98
-98
-98
-98
-98
-98
-98
-98
-98
-97
-97
-97
-97
-97
-97
-97
-98
-98
-98
-98
-98
-97
-97
-97
-97
-97
-97
-97
-97
-96
-96
-96
-97
-97
-97
-97
-97
-97
-97
-98
-98
-98
-98
-98
-98
-98
-98
-97
-97
-97
-97
-98
-98
-98
-99
-99
-100
-100
-101
-101
-102
-102
-102
-102
-102
-102
-101
-101
-100
-98
-96
-94
-92
-89
-86
-83
-79
-74
-69
-63
-56
-49
-41
-32
-22
-12
-1
10
23
36
50
64
78
91
105
118
130
142
153
162
171
178
185
189
192
194
193
191
187
182
175
166
156
145
133
121
108
94
81
68
54
41
29
17
5
-5
-15
-25
-34
-42
-50
-56
-62
-68
-72
-77
-80
-83
-85
-88
-89
-90
-91
-91
-92
-91
-91
-91
-91
-90
-90
-89
-89
-89
-89
-89
-90
-90
-90
-91
-91
-91
-91
-92
-92
-92
-92
-92
-93
-93
-93
-93
-93
-93
-94
-94
-94
-94
-94
-94
-95
-94
-94
-94
-94
-93
-93
-93
-93
-92
-92
-92
-92
-92
-92
-92
-93
-93
-93
-93
-93
-93
-93
-93
-93
-93
-92
-92
-92
-92
-92
-92
-92
-92
-92
-92
-92
-93
-93
-93
-93
-93
-93
-93
-93
-92
-92
-92
-92
-92
-91
-91
-91
-91
-91
-92
-92
-92
-92
-92
-92
-92
-92
-92
-91
-91
-91
-90
-90
-90
-90
-90
-90
-90
-90
-90
-90
-90
-90
-90
-90
-90
-90
-90
-90
-89
-89
-89
-89
-88
-88
-88
-88
-88
-88
-88
-88
-88
-87
-87
-87
-87
-87
-87
-86
-86
-85
-85
-85
-84
-84
-84
-84
-84
-84
-84
-84
-84
-84
-84
-84
-84
-84
-84
-84
-83
-83
-83
-83
-82
-82
-82
-82
-81
-81
-81
-82
-81
-81
-81
-81
-81
-81
-80
-80
-79
-79
-78
-78
-77
-77
-76
-76
-75
-75
-75
-74
-74
-73
-73
-72
-72
-71
-71
-70
-69
-68
-68
-67
-66
-65
-65
-64
-64
-63
-63
-63
-62
-62
-61
-61
-60
-60
-59
-58
-57
-56
-56
-55
-54
-53
-53
-52
-51
-51
-50
-50
-49
-48
-48
-48
-47
-46
-46
-45
-44
-43
-43
-42
-42
-41
-40
-40
-40
-40
-39
-39
-39
-38
-38
-38
-38
-38
-37
-37
-36
-36
-36
-35
-35
-34
-34
-34
-34
-34
-34
-34
-34
-34
-34
-35
-35
-35
-35
-35
-35
-35
-35
-35
-35
-36
-36
-37
-37
-38
-39
-40
-41
-42
-43
-44
-45
-46
-47
-48
-48
-49
-50
-51
-52
-53
-54
-55
-56
-57
-59
-60
-61
-62
-63
-64
-65
-66
-67
-68
-68
-69
-69
-70
-71
-71
-72
-73
-73
-74
-75
-76
-76
-77
-78
-78
-79
-80
-80
-81
-81
-81
-82
-82
-82
-82
-83
-83
-84
-84
-85
-85
-86
-86
-86
-87
-87
-87
-88
-87
-87
-87
-87
-87
-87
-87
-87
-87
-87
-87
-88
-88
-88
-88
-89
-89
-89
-89
-89
-89
-89
-89
-89
-90
-89
-89
-89
-90
-90
-90
-90
-91
-91
-90
-91
-91
-91
-91
-91
-91
-91
-90
-90
-91
-90
-90
-90
-90
-90
-90
-91
-91
-91
-91
-92
-92
-92
-92
-92
-92
-92
-92
-92
-92
-92
-91
-91
-91
-91
-91
-92
-92
-92
-92
-92
-92
-92
-92
-91
-91
-91
-90
-90
-90
-90
-90
-90
-89
-89
-90
-90
-90
-90
-90
-91
-91
-91
-91
-91
-91
-91
-90
-90
-90
-90
-90
-89
-89
-89
-89
-89
-90
-89
-89
-89
-89
-89
-89
-89
-88
-88
-87
-87
-87
-87
-87
-87
-87
-87
-87
-87
-88
-88
-88
-88
-89
-89
-89
-89
-89
-89
-89
-89
-89
-89
-88
-88
-88
-89
-89
-89
-89
-89
-89
-89
-89
-89
-89
-89
-89
-89
-89
-89
-89
-88
-88
-88
-88
-88
-88
-88
-89
-89
-89
-89
-89
-89
-89
-89
-89
-89
-88
-88
-88
-88
-88
-88
-88
-88
-88
-89
-89
-89
-89
-89
-90
-90
-90
-90
-90
-90
-89
-89
-90
-89
-89
-89
-89
-90
-90
-90
-91
-91
-91
-91
-92
-92
-92
-92
-92
-91
-91
-91
-91
-91
-91
-91
-91
-91
-91
-91
-91
-91
-91
-91
-91
-91
-91
-91
-91
-91
-91
-91
-91
-91
-91
-91
-91
-91
-91
-91
-92
-92
-92
-92
-92
-92
-92
-92
-92
-92
-91
-91
-91
-91
-91
-91
-91
-91
-91
-91
-91
-91
-91
-91
-91
-92
-92
-92
-92
-91
-91
-91
-92
-92
-91
-91
-91
-91
-91
-92
-92
-92
-92
-92
-92
-92
-92
-92
-92
-91
-91
-91
-91
-91
-90
-90
-90
-90
-91
-91
-91
-91
-91
-91
-92
-92
-92
-92
-92
-92
-92
-92
-92
-92
-91
-91
-91
-91
-91
-92
-92
-92
-92
-93
-93
-93
-93
-93
-92
-92
-92
-92
-92
-92
-91
-91
-91
-91
-91
-91
-92
-92
-92
-92
-92
-92
-92
-92
-92
-92
-92
-92
-92
-92
-92
-91
-91
-91
-91
-92
-92
-92
-92
-92
-92
-92
-92
-92
-91
-91
-90
-90
-90
-89
-89
-88
-88
-88
-88
-88
-88
-88
-87
-87
-87
-87
-86
-86
-85
-85
-84
-83
-83
-82
-81
-81
-80
-80
-79
-79
-79
-79
-79
-79
-79
-79
-79
-79
-79
-78
-78
-78
-78
-78
-78
-78
-79
-79
-79
-80
-80
-80
-80
-80
-81
-81
-81
-80
-80
-80
-79
-79
-79
-79
-78
-78
-78
-78
-78
-78
-78
-78
-78
-78
-78
-79
-79
-79
-79
-79
-79
-79
-79
-80
-80
-80
-81
-81
-82
-82
-83
-83
-84
-84
-84
-85
-85
-85
-85
-85
-85
-85
-85
-85
-85
-85
-85
-86
-86
-86
-87
-87
-87
-88
-88
-89
-89
-89
-89
-89
-89
-89
-89
-90
-89
-90
-90
-90
-90
-91
-91
-91
-91
-92
-92
-92
-92
-93
-93
-92
-92
-92
-92
-92
-92
-92
-92
-93
-93
-93
-93
-93
-93
-93
-94
-94
-94
-94
-94
-94
-93
-93
-93
-93
-93
-92
-92
-92
-92
-93
-93
-93
-93
-93
-93
-93
-94
-94
-94
-94
-94
-94
-95
-95
-95
-95
-95
-96
-96
-97
-97
-98
-98
-98
-97
-96
-95
-93
-91
-89
-86
-82
-78
-74
-68
-63
-56
-50
-42
-34
-25
-15
-5
6
18
31
44
58
72
87
101
114
127
140
152
162
172
180
187
192
196
199
199
198
195
190
184
176
168
157
146
135
122
109
96
83
70
57
44
31
18
6
-4
-14
-24
-34
-42
-49
-55
-61
-66
-70
-74
-77
-79
-81
-83
-84
-85
-86
-86
-87
-86
-86
-86
-86
-86
-86
-86
-85
-85
-85
-85
-85
-85
-85
-85
-86
-86
-87
-87
-88
-88
-89
-89
-90
-90
-90
-90
-90
-90
-90
-90
-89
-89
-89
-89
-89
-89
-89
-89
-89
-89
-89
-90
-90
-89
-89
-89
-89
-89
-89
-89
-88
-88
-88
-88
-88
-88
-88
-89
-89
-89
-89
-89
-89
-89
-89
-89
-89
-88
-88
-88
-88
-87
-87
-87
-87
-87
-87
-87
-87
-87
-87
-88
-88
-88
-88
-88
-87
-87
-87
-87
-87
-87
-86
-87
-87
-87
-87
-87
-87
-87
-87
-88
-87
-87
-87
-87
-87
-86
-86
-86
-86
-85
-85
-85
-85
-85
-85
-86
-86
-86
-86
-86
-86
-86
-86
-86
-86
-85
-85
-85
-84
-84
-83
-83
-83
-83
-83
-83
-83
-82
-82
-83
-83
-82
-82
-82
-82
-82
-82
-81
-81
-81
-81
-81
-81
-81
-80
-81
-81
-81
-81
-81
-81
-80
-80
-80
-80
-79
-79
-78
-78
-77
-77
-76
-76
-76
-76
-76
-76
-75
-75
-75
-74
-74
-74
-73
-73
-72
-72
-71
-71
-70
-69
-69
-69
-68
-68
-68
-68
-67
-67
-66
-66
-65
-64
-64
-63
-62
-61
-61
-60
-59
-58
-58
-57
-56
-56
-55
-55
-54
-53
-53
-52
-51
-50
-50
-49
-48
-47
-46
-45
-44
-44
-43
-42
-42
-41
-41
-40
-40
-39
-39
-39
-38
-38
-37
-37
-36
-35
-35
-34
-34
-33
-33
-33
-32
-32
-32
-32
-32
-32
-32
-32
-31
-31
-31
-31
-31
-31
-31
-31
-31
-31
-31
-31
-32
-32
-33
-33
-34
-35
-35
-36
-36
-37
-37
-38
-38
-39
-40
-40
-41
-41
-42
-43
-44
-45
-46
-47
-48
-49
-50
-51
-52
-53
-54
-55
-55
-56
-57
-58
-58
-59
-60
-61
-62
-63
-64
-65
-66
-67
-68
-69
-69
-70
-70
-71
-71
-72
-73
-73
-73
-74
-75
-75
-76
-77
-77
-78
-79
-79
-80
-81
-81
-82
-82
-82
-83
-83
-83
-83
-83
-83
-84
-84
-84
-85
-85
-85
-85
-86
-86
-86
-86
-86
-86
-86
-86
-86
-86
-86
-86
-85
-86
-86
-86
-86
-86
-86
-86
-87
-87
-87
-87
-87
-87
-87
-87
-87
-87
-87
-86
-86
-87
-87
-87
-87
-87
-88
-88
-88
-89
-89
-89
-89
-89
-89
-88
-88
-88
-88
-88
-88
-88
-88
-88
-88
-88
-88
-88
-89
-89
-89
-89
-89
-89
-89
-88
-88
-88
-88
-88
-87
-88
-88
-88
-88
-88
-88
-88
-88
-88
-89
-88
-88
-88
-88
-88
-87
-87
-87
-87
-87
-87
-87
-87
-87
-87
-87
-87
-87
-87
-88
-88
-87
-87
-87
-87
-87
-86
-86
-86
-86
-86
-86
-86
-85
-86
-86
-86
-86
-86
-86
-86
-85
-85
-85
-85
-85
-85
-85
-84
-84
-85
-85
-85
-85
-85
-86
-86
-86
-86
-87
-87
-87
-86
-86
-86
-86
-86
-86
-86
-85
-85
-85
-85
-85
-85
-85
-85
-85
-85
-85
-85
-85
-85
-85
-85
-85
-85
-85
-85
-84
-85
-85
-85
-85
-86
-86
-86
-87
-87
-88
-88
-88
-88
-88
-87
-87
-87
-87
-87
-87
-87
-87
-87
-87
-87
-87
-87
-87
-87
-87
-87
-87
-87
-87
-87
-86
-86
-86
-86
-86
-86
-86
-86
-86
-87
-87
-87
-87
-88
-88
-88
-88
-88
-88
-88
-87
-87
-87
-87
-87
-87
-87
-87
-87
-87
-87
-87
-88
-88
-88
-88
-88
-88
-88
-88
-87
-87
-87
-87
-87
-87
-87
-87
-87
-88
-88
-88
-88
-89
-89
-89
-89
-89
-89
-89
-88
-88
-89
-88
-88
-88
-88
-88
-88
-89
-89
-89
-89
-89
-89
-89
-89
-89
-89
-89
-88
-88
-88
-88
-88
-88
-88
-88
-88
-88
-89
-89
-89
-89
-90
-90
-89
-89
-89
-89
-89
-89
-89
-89
-88
-88
-88
-88
-88
-88
-89
-89
-89
-89
-89
-89
-89
-89
-89
-88
-88
-88
-88
-88
-87
-87
-88
-88
-88
-88
-88
-88
-88
-89
-89
-89
-89
-89
-88
-88
-88
-88
-88
-87
-87
-87
-87
-87
-87
-87
-88
-88
-88
-88
-88
-88
-88
-88
-88
-88
-88
-88
-88
-88
-88
-88
-88
-88
-88
-88
-88
-88
-88
-88
-88
-88
-88
-87
-87
-86
-85
-85
-85
-84
-83
-83
-82
-82
-81
-81
-81
-80
-80
-79
-79
-78
-78
-77
-77
-76
-75
-75
-74
-74
-73
-73
-73
-73
-73
-73
-73
-73
-73
-73
-74
-74
-74
-74
-74
-74
-73
-74
-74
-74
-73
-73
-74
-74
-74
-74
-74
-74
-74
-75
-75
-75
-75
-75
-75
-74
-74
-74
-74
-74
-73
-74
-74
-74
-74
-75
-75
-75
-76
-76
-77
-77
-77
-78
-78
-78
-78
-79
-79
-79
-79
-79
-80
-80
-80
-81
-81
-82
-82
-82
-82
-83
-83
-83
-83
-83
-83
-83
-83
-83
-83
-83
-84
-84
-85
-85
-86
-86
-87
-87
-88
-88
-88
-88
-89
-89
-88
-89
-89
-89
-89
-89
-89
-89
-89
-89
-90
-90
-90
-90
-90
-90
-90
-90
-90
-89
-89
-89
-89
-89
-89
-89
-89
-89
-89
-89
-89
-89
-89
-89
-90
-89
-89
-89
-89
-89
-89
-89
-89
-89
-88
-88
-88
-89
-89
-89
-90
-90
-90
-91
-91
-92
-92
-92
-92
-92
-92
-92
-92
-92
-91
-90
-90
-89
-88
-86
-85
-82
-79
-76
-73
-69
-64
-59
-53
-47
-39
-32
-24
-15
-5
5
16
29
41
54
68
81
95
108
121
134
146
157
167
177
185
192
197
201
203
203
201
197
192
185
177
167
157
145
132
119
106
93
80
67
54
41
29
17
6
-4
-14
-23
-32
-40
-47
-53
-59
-64
-68
-71
-74
-76
-78
-80
-81
-81
-82
-82
-82
-82
-81
-81
-81
-81
-81
-81
-81
-81
-82
-82
-82
-82
-82
-82
-81
-81
-82
-82
-82
-82
-83
-83
-83
-84
-84
-85
-85
-85
-85
-86
-86
-86
-86
-86
-86
-86
-86
-86
-85
-85
-85
-86
-86
-86
-86
-86
-86
-86
-87
-87
-87
-87
-87
-86
-86
-86
-86
-86
-86
-85
-85
-85
-85
-86
-86
-86
-86
-86
-86
-86
-85
-85
-85
-84
-84
-84
-83
-83
-83
-82
-82
-82
-82
-83
-83
-83
-83
-83
-83
-83
-83
-83
-83
-83
-82
-82
-82
-82
-82
-82
-82
-81
-81
-82
-82
-82
-82
-82
-82
-82
-81
-81
-81
-81
-80
-80
-80
-79
-79
-79
-79
-79
-79
-79
-80
-80
-80
-80
-80
-80
-80
-80
-79
-79
-79
-78
-79
-78
-78
-78
-78
-78
-78
-78
-78
-78
-78
-78
-78
-78
-78
-78
-78
-77
-77
-77
-77
-76
-76
-75
-75
-75
-75
-75
-75
-75
-75
-74
-74
-74
-74
-74
-73
-73
-72
-72
-71
-71
-70
-70
-69
-69
-69
-69
-69
-69
-68
-68
-68
-68
-67
-67
-66
-65
-65
-64
-63
-63
-62
-61
-61
-60
-60
-60
-59
-59
-58
-57
-57
-56
-55
-55
-54
-53
-52
-51
-50
-49
-48
-47
-46
-45
-44
-43
-43
-42
-41
-40
-40
-39
-38
-37
-36
-35
-34
-33
-33
-32
-31
-30
-30
-29
-29
-29
-29
-28
-28
-28
-28
-28
-27
-27
-27
-26
-25
-25
-25
-25
-24
-24
-24
-23
-23
-23
-23
-23
-23
-23
-23
-23
-23
-24
-24
-24
-23
-24
-24
-24
-25
-25
-26
-26
-27
-28
-29
-30
-30
-31
-32
-33
-34
-35
-36
-37
-37
-38
-39
-40
-41
-41
-42
-43
-44
-46
-47
-48
-49
-50
-51
-52
-53
-54
-55
-55
-56
-57
-58
-58
-59
-60
-60
-61
-62
-63
-65
-66
-66
-67
-68
-69
-70
-70
-71
-71
-71
-72
-72
-73
-73
-73
-74
-74
-75
-75
-76
-77
-77
-77
-78
-79
-79
-79
-79
-79
-79
-79
-80
-80
-79
-79
-80
-80
-80
-81
-81
-81
-81
-82
-82
-82
-83
-83
-83
-82
-82
-82
-82
-82
-82
-82
-82
-82
-82
-82
-82
-82
-82
-82
-83
-83
-82
-82
-82
-82
-82
-82
-82
-82
-81
-81
-82
-82
-82
-82
-82
-82
-82
-83
-83
-83
-83
-83
-83
-83
-83
-83
-83
-83
-83
-82
-82
-83
-83
-83
-83
-84
-83
-84
-84
-84
-84
-84
-84
-84
-84
-84
-84
-84
-83
-83
-83
-84
-84
-84
-84
-84
-84
-85
-85
-85
-85
-85
-84
-84
-84
-83
-83
-83
-83
-82
-82
-82
-82
-82
-83
-83
-83
-83
-83
-83
-83
-83
-83
-83
-83
-83
-83
-83
-82
-82
-82
-82
-82
-82
-82
-82
-82
-82
-82
-82
-82
-81
-81
-81
-81
-81
-81
-81
-81
-81
-81
-81
-81
-81
-82
-82
-82
-82
-83
-83
-83
-83
-83
-83
-83
-83
-83
-83
-82
-82
-82
-82
-82
-82
-83
-83
-83
-83
-83
-84
-83
-83
-83
-83
-83
-83
-83
-83
-82
-82
-82
-82
-82
-83
-83
-83
-84
-84
-84
-84
-84
-84
-84
-83
-83
-83
-83
-83
-83
-83
-83
-83
-83
-83
-83
-83
-83
-83
-83
-83
-83
-83
-83
-83
-83
-83
-83
-83
-83
-82
-82
-82
-82
-83
-83
-83
-83
-83
-84
-84
-84
-84
-84
-83
-83
-83
-83
-83
-83
-83
-83
-83
-83
-83
-83
-83
-83
-84
-84
-84
-84
-84
-84
-83
-83
-83
-83
-83
-82
-82
-82
-82
-82
-83
-83
-83
-83
-83
-84
-84
-83
-83
-83
-83
-83
-82
-82
-82
-82
-82
-82
-82
-82
-83
-83
-83
-84
-84
-84
-85
-85
-85
-85
-85
-85
-85
-85
-85
-84
-84
-84
-84
-84
-84
-84
-84
-84
-83
-83
-83
-83
-83
-83
-82
-82
-82
-82
-82
-81
-81
-81
-82
-82
-82
-83
-83
-83
-83
-84
-84
-84
-84
-84
-84
-84
-83
-83
-83
-83
-83
-83
-83
-83
-83
-83
-83
-83
-84
-84
-84
-84
-84
-84
-83
-83
-83
-83
-83
-82
-82
-82
-83
-83
-83
-83
-83
-83
-84
-84
-84
-84
-84
-84
-84
-83
-83
-83
-83
-82
-82
-82
-82
-82
-82
-83
-83
-83
-83
-83
-83
-82
-82
-82
-82
-82
-82
-82
-82
-81
-81
-81
-81
-81
-81
-82
-82
-82
-82
-82
-82
-82
-81
-81
-81
-81
-80
-80
-80
-79
-78
-78
-78
-77
-77
-77
-76
-76
-76
-75
-75
-74
-74
-73
-73
-72
-71
-71
-70
-69
-69
-68
-68
-68
-68
-68
-68
-68
-68
-68
-68
-68
-68
-68
-68
-68
-68
-68
-68
-68
-68
-68
-68
-68
-68
-69
-69
-69
-69
-69
-69
-69
-69
-68
-68
-68
-68
-68
-67
-67
-67
-68
-68
-68
-68
-69
-69
-70
-70
-71
-71
-71
-72
-72
-72
-72
-72
-73
-73
-73
-73
-73
-74
-74
-74
-74
-75
-75
-75
-75
-75
-75
-75
-75
-75
-75
-75
-75
-75
-75
-75
-75
-76
-76
-76
-77
-77
-77
-78
-78
-79
-79
-79
-80
-80
-80
-80
-80
-81
-81
-81
-81
-82
-82
-82
-83
-83
-84
-84
-84
-85
-85
-84
-85
-85
-85
-84
-84
-84
-84
-83
-83
-83
-83
-83
-83
-83
-83
-83
-83
-83
-82
-82
-82
-82
-82
-81
-81
-81
-81
-81
-81
-81
-81
-81
-82
-82
-82
-83
-83
-84
-84
-84
-84
-84
-84
-84
-84
-84
-84
-84
-84
-84
-84
-84
-84
-84
-83
-82
-81
-80
-78
-76
-73
-70
-66
-62
-57
-52
-46
-39
-32
-25
-17
-8
1
12
23
36
48
62
75
89
102
115
128
141
152
163
173
182
189
195
199
201
202
201
199
194
189
181
173
164
153
141
129
117
104
91
79
66
54
41
29
18
7
-3
-12
-21
-29
-36
-43
-48
-53
-58
-61
-64
-67
-69
-71
-72
-73
-74
-74
-75
-75
-75
-75
-75
-75
-75
-75
-74
-74
-74
-74
-74
-74
-74
-74
-74
-74
-74
-75
-75
-75
-76
-76
-77
-77
-77
-78
-78
-78
-78
-78
-78
-78
-78
-78
-78
-78
-79
-79
-79
-80
-80
-80
-81
-81
-81
-81
-81
-82
-82
-81
-81
-81
-81
-81
-81
-81
-81
-81
-81
-81
-81
-81
-81
-81
-81
-80
-80
-80
-80
-79
-79
-79
-78
-78
-78
-78
-78
-77
-77
-77
-77
-77
-77
-77
-78
-77
-77
-77
-77
-76
-76
-76
-76
-76
-75
-76
-76
-76
-76
-76
-77
-77
-77
-77
-77
-77
-77
-77
-77
-77
-77
-77
-76
-76
-76
-76
-76
-76
-76
-76
-76
-76
-76
-76
-76
-75
-75
-75
-75
-74
-74
-73
-73
-72
-72
-72
-72
-72
-72
-72
-72
-72
-72
-73
-73
-73
-73
-73
-73
-72
-72
-72
-72
-72
-72
-72
-72
-72
-71
-71
-71
-71
-71
-71
-71
-70
-70
-70
-69
-69
-68
-67
-67
-66
-66
-65
-65
-65
-64
-64
-64
-64
-64
-64
-64
-63
-63
-63
-63
-62
-62
-61
-61
-60
-60
-59
-59
-59
-58
-58
-58
-57
-57
-56
-56
-55
-55
-54
-54
-53
-52
-51
-50
-49
-48
-47
-47
-46
-46
-45
-45
-44
-43
-42
-42
-41
-40
-39
-38
-37
-36
-35
-34
-33
-32
-32
-32
-31
-30
-30
-30
-29
-28
-28
-28
-27
-26
-26
-25
-25
-24
-23
-23
-22
-21
-21
-21
-20
-20
-20
-20
-20
-20
-21
-21
-21
-21
-21
-21
-21
-21
-21
-22
-22
-22
-23
-23
-24
-24
-25
-25
-26
-26
-27
-27
-28
-28
-29
-29
-30
-30
-31
-32
-32
-33
-34
-35
-36
-37
-38
-39
-40
-41
-42
-43
-44
-45
-46
-47
-47
-48
-49
-50
-50
-51
-52
-53
-53
-54
-55
-56
-57
-57
-59
-59
-60
-61
-61
-61
-62
-62
-62
-63
-63
-64
-64
-65
-65
-66
-67
-68
-69
-69
-70
-71
-71
-72
-72
-73
-73
-73
-73
-73
-73
-73
-73
-74
-74
-74
-74
-75
-75
-75
-76
-76
-76
-76
-76
-76
-75
-75
-75
-75
-75
-75
-75
-75
-75
-75
-76
-76
-76
-76
-77
-77
-77
-77
-77
-77
-76
-76
-76
-76
-76
-76
-76
-76
-76
-76
-76
-77
-77
-77
-78
-78
-78
-78
-78
-79
-79
-79
-79
-79
-79
-79
-79
-79
-79
-79
-79
-79
-79
-79
-79
-79
-78
-78
-77
-77
-77
-76
-76
-76
-75
-75
-75
-75
-75
-75
-75
-75
-75
-75
-76
-76
-76
-76
-76
-76
-76
-76
-76
-76
-76
-76
-76
-76
-76
-76
-76
-77
-77
-77
-77
-78
-78
-78
-78
-78
-78
-78
-78
-78
-78
-78
-78
-78
-78
-78
-78
-79
-79
-79
-79
-79
-79
-79
-78
-78
-78
-78
-77
-77
-77
-77
-77
-77
-77
-77
-77
-77
-77
-77
-77
-77
-77
-77
-76
-76
-75
-75
-74
-74
-74
-73
-73
-73
-73
-73
-73
-73
-74
-74
-74
-74
-74
-74
-75
-75
-75
-75
-75
-75
-75
-75
-76
-76
-76
-76
-77
-77
-77
-77
-78
-78
-78
-78
-78
-78
-77
-77
-76
-76
-76
-76
-76
-76
-76
-76
-76
-76
-76
-76
-77
-77
-77
-77
-77
-77
-76
-76
-76
-76
-76
-75
-75
-75
-75
-76
-76
-76
-76
-76
-76
-76
-76
-76
-76
-76
-76
-76
-76
-76
-76
-76
-76
-76
-76
-76
-76
-76
-76
-76
-77
-77
-77
-76
-76
-76
-76
-75
-75
-75
-75
-75
-75
-75
-75
-75
-75
-75
-75
-75
-76
-76
-76
-76
-76
-76
-76
-75
-75
-75
-75
-75
-75
-75
-75
-75
-76
-76
-76
-76
-76
-76
-76
-76
-76
-76
-76
-75
-75
-75
-75
-75
-75
-75
-75
-76
-76
-76
-76
-76
-77
-77
-77
-77
-77
-77
-77
-77
-77
-77
-77
-76
-76
-76
-76
-77
-77
-77
-77
-77
-77
-77
-77
-76
-76
-76
-75
-75
-75
-75
-74
-74
-74
-74
-74
-74
-75
-75
-75
-75
-75
-76
-76
-76
-76
-76
-76
-76
-76
-76
-76
-75
-75
-75
-75
-75
-76
-76
-76
-76
-76
-76
-76
-76
-76
-76
-76
-75
-75
-75
-75
-75
-75
-75
-75
-75
-75
-76
-76
-76
-76
-76
-76
-76
-76
-76
-75
-75
-75
-75
-75
-75
-75
-75
-75
-75
-75
-76
-76
-76
-76
-77
-77
-77
-76
-76
-75
-75
-75
-74
-74
-73
-72
-72
-71
-71
-70
-70
-69
-69
-68
-68
-67
-67
-66
-65
-65
-64
-63
-63
-63
-62
-62
-62
-62
-62
-62
-62
-62
-62
-62
-63
-63
-63
-63
-63
-62
-62
-62
-62
-62
-62
-62
-62
-62
-62
-62
-62
-62
-62
-62
-62
-62
-62
-62
-61
-61
-61
-61
-61
-60
-60
-60
-60
-61
-61
-61
-62
-62
-63
-64
-64
-65
-65
-66
-66
-67
-67
-68
-68
-68
-69
-69
-69
-69
-70
-70
-71
-71
-71
-71
-71
-71
-71
-71
-71
-70
-70
-70
-70
-70
-70
-70
-70
-71
-71
-72
-72
-73
-73
-74
-74
-75
-75
-76
-76
-76
-76
-76
-77
-77
-77
-77
-77
-77
-78
-78
-79
-79
-79
-79
-79
-79
-79
-79
-79
-78
-78
-78
-78
-77
-77
-77
-77
-77
-77
-77
-77
-77
-77
-77
-77
-77
-77
-77
-76
-76
-76
-75
-75
-75
-75
-75
-75
-75
-75
-75
-76
-76
-76
-77
-77
-78
-78
-79
-79
-79
-80
-80
-81
-81
-81
-81
-81
-82
-82
-82
-82
-81
-80
-79
-78
-76
-73
-70
-67
-63
-58
-53
-48
-42
-35
-28
-20
-12
-3
6
16
28
40
52
65
79
92
105
118
131
143
154
165
174
183
190
196
200
203
204
203
201
197
192
185
177
168
157
146
135
123
111
98
86
74
62
50
38
26
15
5
-4
-13
-21
-29
-35
-41
-46
-51
-55
-58
-61
-63
-65
-67
-68
-69
-70
-71
-71
-72
-72
-71
-71
-71
-71
-71
-71
-70
-70
-69
-69
-69
-69
-68
-68
-68
-68
-68
-69
-69
-69
-69
-70
-70
-70
-70
-71
-71
-70
-70
-70
-70
-70
-70
-70
-70
-70
-70
-71
-71
-71
-71
-71
-72
-72
-72
-72
-72
-72
-72
-72
-72
-72
-72
-72
-72
-72
-72
-72
-72
-73
-72
-73
-73
-73
-73
-73
-73
-72
-72
-72
-72
-71
-71
-71
-71
-71
-71
-71
-71
-71
-71
-71
-72
-72
-72
-72
-72
-71
-71
-71
-71
-71
-71
-71
-71
-71
-71
-71
-72
-72
-72
-72
-72
-72
-72
-72
-72
-71
-71
-70
-70
-70
-69
-69
-69
-69
-69
-69
-69
-69
-69
-69
-69
-68
-68
-68
-68
-68
-67
-67
-67
-67
-66
-66
-66
-66
-66
-66
-66
-66
-66
-66
-66
-66
-66
-66
-66
-66
-65
-65
-65
-65
-65
-64
-64
-64
-64
-64
-64
-64
-64
-64
-64
-63
-63
-63
-63
-62
-62
-61
-61
-61
-60
-60
-60
-60
-60
-60
-60
-60
-59
-59
-59
-59
-59
-59
-58
-58
-57
-57
-56
-56
-55
-54
-54
-54
-53
-53
-53
-52
-52
-52
-51
-51
-50
-50
-49
-48
-47
-46
-46
-45
-44
-44
-43
-42
-42
-41
-41
-40
-40
-39
-39
-38
-37
-36
-35
-35
-34
-33
-32
-31
-30
-30
-29
-29
-28
-28
-28
-28
-27
-27
-26
-26
-25
-25
-24
-24
-23
-23
-22
-22
-21
-20
-20
-20
-19
-19
-19
-19
-19
-18
-19
-18
-18
-18
-18
-18
-17
-17
-18
-18
-18
-18
-18
-19
-19
-20
-20
-21
-22
-22
-23
-24
-25
-25
-26
-26
-26
-27
-28
-28
-29
-30
-30
-31
-32
-33
-35
-36
-36
-37
-38
-39
-40
-41
-42
-42
-43
-44
-44
-45
-45
-46
-47
-48
-49
-50
-51
-52
-52
-53
-54
-55
-55
-56
-56
-57
-57
-57
-58
-58
-59
-59
-60
-60
-61
-61
-62
-63
-63
-64
-64
-65
-65
-66
-66
-66
-66
-67
-67
-67
-67
-67
-68
-68
-68
-69
-69
-70
-70
-70
-71
-71
-71
-71
-71
-71
-70
-70
-70
-70
-70
-70
-70
-70
-70
-70
-71
-71
-71
-71
-72
-72
-72
-72
-72
-72
-72
-72
-72
-72
-72
-72
-72
-72
-72
-73
-73
-73
-73
-73
-73
-73
-73
-73
-73
-73
-73
-73
-73
-73
-72
-72
-72
-73
-73
-73
-74
-74
-74
-74
-74
-74
-74
-74
-74
-74
-73
-73
-73
-72
-72
-72
-72
-72
-72
-72
-72
-72
-72
-72
-72
-72
-72
-72
-72
-72
-71
-71
-71
-71
-71
-71
-71
-71
-71
-71
-71
-71
-71
-71
-71
-71
-71
-71
-71
-71
-70
-70
-70
-70
-69
-69
-69
-69
-69
-69
-69
-69
-69
-69
-70
-70
-70
-70
-69
-69
-69
-69
-69
-69
-68
-68
-68
-69
-69
-69
-70
-70
-70
-70
-71
-71
-71
-71
-71
-71
-70
-70
-70
-70
-70
-70
-70
-70
-70
-70
-70
-70
-70
-71
-71
-71
-71
-71
-71
-71
-71
-71
-71
-71
-71
-71
-71
-71
-71
-71
-72
-72
-72
-72
-73
-73
-73
-73
-73
-73
-73
-73
-73
-73
-72
-72
-73
-73
-73
-73
-73
-73
-73
-74
-74
-74
-74
-74
-74
-74
-73
-73
-73
-73
-73
-73
-73
-73
-73
-73
-73
-74
-73
-74
-74
-74
-74
-73
-73
-73
-73
-73
-73
-73
-72
-72
-73
-73
-73
-73
-73
-73
-73
-74
-74
-74
-74
-74
-74
-74
-74
-73
-73
-73
-73
-73
-73
-73
-73
-73
-73
-73
-73
-73
-74
-74
-74
-74
-74
-74
-74
-74
-74
-74
-73
-73
-74
-74
-74
-74
-75
-75
-75
-75
-75
-75
-75
-75
-75
-75
-74
-74
-74
-74
-74
-73
-73
-74
-73
-74
-74
-74
-74
-74
-75
-75
-75
-75
-75
-75
-75
-75
-75
-75
-75
-75
-75
-75
-75
-75
-75
-75
-75
-76
-76
-76
-76
-76
-76
-75
-75
-75
-75
-74
-74
-74
-74
-74
-74
-74
-74
-74
-74
-74
-75
-75
-74
-74
-74
-74
-74
-74
-74
-74
-73
-73
-74
-74
-74
-74
-74
-74
-74
-75
-75
-75
-75
-75
-75
-75
-75
-75
-75
-75
-74
-74
-74
-75
-75
-75
-75
-75
-75
-75
-75
-75
-75
-75
-75
-74
-74
-74
-74
-73
-73
-73
-73
-73
-73
-73
-73
-73
-73
-73
-73
-73
-73
-73
-72
-72
-72
-71
-71
-70
-70
-70
-69
-69
-69
-69
-69
-68
-68
-67
-67
-67
-66
-65
-65
-64
-64
-63
-62
-62
-61
-60
-60
-60
-60
-59
-59
-59
-59
-59
-60
-60
-60
-59
-60
-60
-60
-59
-60
-59
-59
-59
-59
-60
-60
-60
-60
-60
-60
-61
-61
-61
-61
-61
-60
-60
-60
-60
-60
-60
-59
-59
-60
-60
-60
-60
-61
-61
-62
-62
-63
-63
-64
-64
-64
-65
-65
-65
-66
-66
-66
-67
-67
-67
-68
-68
-69
-69
-70
-70
-70
-71
-71
-71
-71
-71
-71
-71
-71
-71
-71
-71
-71
-71
-72
-72
-73
-73
-74
-74
-75
-75
-75
-75
-75
-76
-76
-76
-76
-76
-76
-75
-76
-76
-76
-76
-76
-76
-76
-76
-76
-76
-76
-76
-76
-76
-75
-75
-75
-75
-75
-75
-75
-75
-75
-75
-75
-75
-75
-76
-76
-76
-76
-76
-76
-76
-76
-75
-75
-75
-75
-75
-75
-75
-75
-76
-76
-76
-77
-77
-78
-78
-78
-78
-79
-79
-79
-79
-79
-79
-79
-79
-78
-78
-77
-76
-75
-73
-71
-68
-65
-62
-58
-53
-48
-42
-36
-29
-21
-13
-3
5
16
27
39
52
65
79
93
106
120
133
146
159
170
181
191
199
206
212
216
219
219
217
214
209
203
194
185
174
162
150
137
124
110
97
84
70
57
45
33
21
10
0
-9
-17
-26
-33
-39
-45
-50
-54
-58
-61
-63
-65
-66
-67
-68
-68
-68
-68
-69
-69
-68
-68
-68
-68
-68
-68
-68
-69
-68
-68
-68
-69
-68
-68
-69
-69
-69
-69
-69
-69
-70
-70
-71
-71
-72
-72
-73
-73
-73
-73
-74
-74
-74
-73
-73
-73
-73
-73
-73
-73
-73
-73
-73
-73
-73
-73
-73
-73
-73
-72
-72
-72
-72
-71
-71
-71
-71
-71
-71
-72
-72
-72
-72
-72
-72
-72
-73
-73
-73
-72
-72
-72
-72
-72
-72
-71
-71
-71
-70
-70
-70
-70
-70
-71
-70
-71
-71
-71
-71
-70
-70
-70
-70
-69
-69
-69
-69
-69
-69
-69
-69
-69
-69
-70
-70
-70
-70
-70
-70
-70
-70
-70
-70
-69
-69
-69
-69
-69
-69
-69
-69
-69
-69
-69
-69
-69
-69
-69
-69
-69
-69
-68
-68
-67
-67
-67
-66
-66
-66
-66
-65
-65
-65
-65
-65
-65
-65
-65
-65
-65
-65
-64
-64
-64
-63
-63
-63
-63
-63
-63
-62
-62
-62
-62
-62
-62
-62
-62
-62
-61
-61
-60
-60
-59
-59
-59
-58
-57
-57
-57
-57
-56
-56
-56
-56
-56
-55
-55
-55
-54
-54
-53
-52
-52
-51
-51
-50
-49
-49
-49
-48
-48
-48
-47
-47
-47
-46
-46
-45
-44
-43
-43
-42
-41
-40
-39
-38
-36
-36
-35
-34
-33
-33
-32
-31
-31
-30
-30
-29
-28
-27
-26
-25
-24
-24
-23
-22
-21
-21
-20
-20
-19
-19
-18
-18
-17
-17
-17
-16
-16
-15
-15
-14
-14
-14
-13
-13
-12
-12
-12
-12
-12
-13
-13
-13
-13
-13
-13
-13
-13
-14
-14
-14
-14
-14
-14
-14
-14
-15
-16
-16
-17
-18
-19
-20
-21
-22
-23
-23
-24
-25
-25
-26
-27
-28
-28
-29
-30
-31
-32
-33
-34
-35
-36
-37
-38
-39
-40
-41
-42
-43
-44
-45
-45
-46
-47
-47
-48
-49
-50
-50
-51
-52
-53
-54
-55
-56
-56
-57
-58
-58
-59
-59
-59
-60
-60
-61
-61
-62
-62
-63
-64
-64
-65
-66
-66
-67
-67
-67
-67
-68
-68
-67
-67
-67
-67
-67
-67
-67
-67
-67
-68
-68
-68
-69
-69
-69
-70
-70
-70
-70
-70
-70
-69
-70
-70
-69
-69
-69
-70
-70
-70
-70
-71
-71
-71
-71
-72
-72
-71
-72
-72
-71
-71
-71
-71
-71
-71
-71
-71
-71
-71
-71
-71
-71
-72
-72
-72
-72
-72
-72
-72
-72
-71
-71
-71
-71
-71
-71
-71
-71
-71
-71
-72
-72
-72
-72
-72
-72
-72
-72
-72
-71
-71
-71
-71
-70
-70
-70
-70
-70
-70
-70
-70
-70
-70
-71
-71
-70
-70
-70
-70
-70
-69
-69
-69
-69
-69
-69
-69
-69
-69
-69
-70
-70
-70
-70
-71
-71
-71
-71
-71
-71
-70
-70
-70
-70
-70
-70
-70
-70
-70
-71
-71
-71
-71
-71
-72
-71
-71
-71
-71
-71
-71
-71
-71
-70
-70
-70
-70
-70
-70
-70
-71
-71
-71
-71
-71
-71
-71
-70
-70
-70
-70
-70
-69
-69
-69
-69
-69
-69
-69
-70
-70
-70
-70
-70
-71
-71
-70
-70
-70
-70
-70
-70
-70
-70
-70
-70
-70
-70
-70
-70
-71
-71
-71
-71
-72
-72
-72
-72
-72
-71
-71
-71
-71
-71
-70
-70
-70
-70
-70
-71
-71
-71
-71
-71
-71
-71
-71
-71
-71
-71
-70
-70
-70
-70
-70
-70
-70
-70
-70
-70
-70
-71
-71
-71
-71
-71
-71
-71
-71
-71
-71
-71
-71
-71
-71
-71
-71
-71
-71
-71
-72
-72
-72
-72
-72
-72
-72
-72
-72
-72
-71
-72
-72
-71
-71
-71
-71
-71
-71
-71
-71
-71
-71
-72
-72
-72
-71
-71
-71
-71
-70
-70
-70
-70
-70
-70
-70
-70
-70
-70
-71
-71
-71
-71
-72
-72
-72
-72
-72
-72
-71
-71
-71
-71
-71
-71
-71
-71
-71
-72
-72
-72
-72
-72
-73
-72
-72
-72
-72
-72
-72
-71
-71
-71
-71
-71
-71
-71
-71
-71
-72
-71
-71
-72
-72
-72
-72
-72
-72
-72
-72
-72
-72
-71
-71
-71
-71
-71
-71
-72
-72
-72
-72
-72
-73
-72
-72
-72
-72
-72
-72
-72
-72
-72
-72
-72
-72
-72
-72
-72
-72
-72
-73
-73
-73
-73
-73
-73
-73
-72
-72
-72
-72
-71
-71
-71
-71
-71
-71
-72
-72
-72
-72
-72
-73
-73
-73
-73
-73
-72
-72
-71
-71
-71
-70
-70
-70
-70
-70
-70
-70
-69
-69
-69
-68
-68
-67
-67
-66
-65
-65
-64
-64
-63
-62
-62
-61
-61
-60
-60
-60
-59
-59
-58
-58
-58
-57
-57
-56
-56
-55
-55
-55
-54
-54
-54
-54
-54
-55
-55
-56
-56
-56
-57
-57
-57
-57
-58
-58
-58
-58
-58
-58
-57
-57
-57
-57
-56
-56
-56
-57
-56
-56
-56
-57
-56
-56
-56
-56
-56
-56
-56
-56
-56
-56
-57
-57
-58
-58
-59
-60
-60
-61
-62
-63
-63
-64
-64
-64
-65
-65
-65
-65
-65
-65
-65
-65
-65
-66
-66
-66
-66
-66
-67
-67
-67
-67
-67
-67
-67
-67
-67
-68
-68
-68
-69
-69
-69
-70
-70
-71
-71
-71
-72
-72
-73
-73
-73
-73
-73
-72
-72
-72
-72
-72
-71
-71
-71
-72
-72
-72
-72
-72
-72
-72
-72
-72
-72
-72
-72
-72
-72
-72
-71
-71
-71
-71
-71
-71
-71
-72
-72
-72
-72
-72
-72
-73
-73
-73
-73
-73
-73
-73
-73
-73
-73
-73
-73
-73
-74
-74
-74
-74
-75
-75
-75
-75
-74
-74
-73
-72
-71
-69
-68
-66
-64
-61
-58
-55
-52
-48
-44
-38
-33
-26
-19
-11
-2
6
17
28
40
52
65
79
93
106
120
133
145
157
169
180
189
197
205
210
215
217
219
218
216
211
206
199
190
180
170
158
145
132
119
106
93
81
68
56
44
33
23
13
4
-4
-12
-19
-25
-30
-35
-40
-44
-47
-50
-52
-54
-56
-57
-58
-58
-58
-58
-58
-58
-58
-57
-57
-56
-56
-56
-56
-56
-56
-56
-56
-57
-57
-57
-57
-57
-57
-57
-57
-57
-57
-57
-57
-57
-57
-58
-58
-58
-59
-59
-59
-60
-60
-60
-60
-61
-61
-60
-60
-60
-60
-60
-60
-60
-59
-59
-59
-60
-60
-59
-59
-59
-59
-59
-58
-58
-57
-57
-56
-55
-55
-54
-54
-53
-53
-53
-53
-53
-53
-53
-53
-53
-53
-53
-53
-53
-53
-53
-52
-52
-52
-52
-52
-52
-52
-52
-51
-52
-52
-51
-51
-51
-51
-51
-50
-50
-50
-49
-48
-48
-48
-48
-47
-47
-47
-46
-46
-47
-47
-47
-46
-47
-47
-47
-46
-46
-46
-46
-45
-45
-45
-45
-44
-44
-44
-44
-44
-44
-44
-44
-44
-44
-44
-44
-44
-43
-43
-42
-42
-42
-41
-41
-40
-40
-40
-40
-40
-40
-40
-40
-40
-40
-40
-39
-39
-39
-39
-38
-37
-37
-37
-36
-35
-35
-35
-35
-34
-34
-34
-34
-34
-34
-34
-33
-33
-32
-32
-31
-31
-30
-30
-30
-29
-29
-28
-28
-27
-27
-27
-27
-26
-26
-25
-25
-24
-23
-23
-22
-21
-20
-19
-18
-17
-17
-16
-15
-14
-14
-14
-13
-12
-12
-12
-11
-10
-10
-9
-8
-7
-6
-6
-5
-4
-3
-2
-2
-1
-1
-1
0
0
0
1
1
2
3
3
4
5
6
6
7
8
8
9
9
9
9
9
10
10
10
10
11
11
11
12
12
13
13
13
13
14
14
14
14
14
13
13
13
13
12
12
12
11
11
11
10
10
10
9
9
8
7
7
6
5
4
2
1
1
0
-1
-2
-3
-3
-4
-5
-6
-7
-8
-8
-9
-10
-11
-11
-12
-14
-15
-16
-17
-18
-19
-20
-20
-21
-22
-22
-23
-23
-24
-25
-25
-26
-27
-27
-28
-29
-30
-31
-31
-32
-33
-34
-34
-35
-35
-35
-35
-36
-36
-37
-37
-37
-38
-38
-39
-40
-40
-41
-41
-42
-42
-43
-43
-43
-43
-43
-43
-43
-43
-43
-43
-43
-43
-43
-43
-43
-44
-44
-44
-44
-44
-44
-44
-44
-44
-44
-43
-43
-43
-43
-43
-42
-42
-42
-42
-43
-43
-44
-44
-44
-44
-44
-44
-45
-45
-45
-45
-45
-46
-46
-46
-46
-46
-47
-47
-47
-48
-48
-48
-49
-49
-49
-49
-49
-49
-49
-48
-48
-48
-48
-48
-47
-47
-47
-47
-47
-48
-48
-47
-47
-48
-47
-47
-47
-47
-46
-46
-46
-46
-46
-45
-45
-45
-45
-45
-46
-46
-46
-46
-46
-47
-47
-47
-47
-47
-46
-46
-46
-46
-46
-46
-46
-46
-46
-46
-47
-47
-47
-47
-47
-47
-48
-48
-48
-47
-47
-47
-47
-47
-46
-46
-46
-46
-46
-46
-46
-47
-47
-47
-47
-47
-47
-47
-47
-47
-47
-47
-47
-47
-47
-46
-46
-46
-47
-47
-47
-47
-47
-47
-47
-48
-48
-48
-48
-47
-47
-47
-47
-47
-46
-46
-46
-46
-46
-47
-47
-47
-48
-48
-48
-48
-48
-48
-48
-48
-48
-48
-48
-48
-48
-47
-47
-48
-48
-48
-49
-49
-49
-49
-50
-50
-50
-50
-51
-51
-51
-51
-51
-51
-51
-51
-51
-51
-51
-51
-51
-52
-52
-52
-52
-52
-52
-52
-51
-51
-51
-50
-50
-50
-50
-50
-50
-50
-50
-50
-50
-51
-51
-51
-51
-51
-51
-51
-51
-51
-51
-51
-51
-51
-50
-50
-50
-50
-50
-50
-51
-51
-52
-52
-52
-52
-53
-53
-53
-53
-53
-52
-52
-53
-52
-52
-52
-52
-52
-53
-53
-53
-53
-53
-53
-53
-53
-53
-53
-53
-53
-53
-52
-52
-52
-52
-52
-52
-52
-52
-53
-53
-53
-53
-53
-54
-54
-54
-54
-54
-53
-53
-53
-53
-53
-52
-52
-52
-52
-53
-53
-53
-53
-53
-54
-54
-54
-54
-54
-54
-54
-54
-54
-54
-54
-54
-54
-54
-54
-55
-55
-55
-55
-55
-55
-56
-56
-56
-55
-55
-55
-55
-54
-54
-54
-54
-53
-53
-53
-53
-54
-54
-54
-54
-54
-54
-54
-54
-54
-54
-54
-54
-54
-54
-54
-54
-53
-54
-54
-54
-54
-54
-54
-54
-54
-55
-55
-55
-55
-54
-54
-54
-54
-54
-53
-53
-53
-53
-53
-53
-53
-53
-53
-53
-53
-53
-53
-53
-52
-52
-51
-51
-50
-50
-49
-49
-48
-48
-47
-47
-46
-46
-46
-45
-45
-45
