# Simple Text Format
# Sampling Rate (Hz):= 1200.00
# Resolution:= 12
# Labels:= ECG	 I 
# Age:=	29
# Gender:=	Masculino
-40
-41
-41
-41
-41
-41
-41
-41
-42
-42
-41
-42
-42
-42
-42
-42
-42
-43
-43
-43
-43
-44
-43
-43
-42
-42
-41
-41
-41
-40
-39
-39
-39
-38
-38
-38
-37
-36
-36
-36
-36
-36
-36
-35
-36
-36
-36
-36
-36
-36
-37
-37
-37
-36
-36
-36
-36
-36
-36
-35
-35
-34
-33
-33
-32
-32
-31
-31
-30
-30
-30
-29
-29
-28
-29
-29
-29
-28
-28
-28
-29
-28
-28
-28
-28
-28
-28
-28
-28
-28
-27
-27
-27
-26
-26
-26
-25
-25
-25
-24
-24
-24
-24
-23
-22
-22
-22
-21
-21
-21
-21
-20
-20
-20
-19
-19
-19
-18
-18
-18
-18
-17
-16
-16
-15
-15
-14
-13
-13
-12
-12
-11
-11
-10
-9
-9
-8
-6
-6
-6
-5
-5
-3
-3
-2
-1
0
0
2
2
3
4
4
5
6
8
9
9
10
11
11
12
14
14
15
16
17
18
19
21
22
23
25
27
27
29
31
33
34
35
37
39
40
41
43
43
44
45
46
47
47
49
49
49
50
50
51
51
52
52
53
53
54
54
54
54
55
55
55
56
57
57
57
57
57
56
56
57
57
57
56
56
55
55
55
54
53
53
52
51
50
48
47
46
45
43
41
40
38
36
34
33
31
30
27
25
24
22
21
19
17
16
14
13
11
11
9
8
7
5
5
3
2
1
0
-1
-3
-4
-5
-7
-8
-10
-11
-12
-14
-15
-16
-17
-18
-18
-20
-20
-21
-22
-22
-23
-24
-24
-24
-25
-25
-26
-25
-26
-26
-27
-27
-28
-28
-29
-29
-29
-29
-30
-30
-31
-32
-31
-33
-33
-33
-34
-35
-35
-36
-37
-38
-39
-39
-40
-40
-41
-41
-40
-40
-41
-40
-41
-40
-40
-39
-39
-38
-38
-38
-37
-37
-37
-37
-35
-36
-36
-36
-36
-36
-36
-36
-37
-37
-37
-37
-38
-38
-38
-38
-38
-38
-38
-38
-38
-38
-38
-38
-38
-38
-38
-38
-38
-38
-38
-38
-37
-37
-37
-37
-38
-38
-37
-37
-37
-37
-36
-36
-36
-36
-35
-35
-35
-35
-35
-35
-35
-35
-34
-34
-34
-34
-33
-33
-32
-32
-32
-32
-32
-31
-31
-31
-30
-30
-30
-30
-30
-30
-31
-31
-31
-32
-32
-33
-33
-35
-35
-35
-36
-37
-39
-39
-39
-40
-40
-40
-40
-41
-41
-41
-41
-40
-40
-40
-39
-38
-38
-37
-37
-36
-35
-34
-34
-34
-34
-33
-33
-32
-32
-32
-33
-32
-33
-33
-34
-33
-34
-34
-35
-35
-35
-36
-37
-37
-37
-38
-38
-38
-38
-39
-39
-39
-40
-40
-40
-40
-39
-39
-39
-39
-40
-39
-39
-40
-39
-39
-39
-38
-38
-38
-38
-38
-37
-36
-36
-35
-35
-34
-34
-33
-33
-32
-32
-32
-31
-31
-31
-31
-31
-32
-32
-33
-33
-33
-33
-34
-34
-34
-34
-34
-35
-35
-35
-35
-35
-35
-35
-35
-35
-35
-35
-36
-36
-36
-36
-37
-38
-38
-39
-39
-40
-40
-42
-42
-42
-43
-43
-44
-43
-43
-43
-43
-42
-42
-41
-41
-41
-40
-41
-40
-40
-40
-39
-39
-39
-39
-39
-39
-40
-40
-41
-41
-41
-41
-41
-42
-42
-41
-41
-41
-41
-40
-41
-40
-39
-39
-38
-37
-37
-36
-36
-35
-35
-34
-34
-34
-34
-34
-33
-33
-33
-33
-33
-34
-34
-35
-35
-35
-35
-36
-36
-37
-37
-38
-38
-39
-38
-39
-39
-39
-39
-40
-40
-40
-40
-39
-40
-40
-38
-38
-38
-38
-38
-38
-37
-37
-36
-36
-36
-36
-36
-36
-36
-37
-37
-37
-38
-38
-39
-39
-39
-40
-41
-41
-41
-42
-42
-42
-42
-42
-42
-41
-41
-40
-40
-41
-40
-40
-40
-39
-38
-38
-38
-38
-38
-39
-38
-38
-38
-38
-39
-39
-39
-39
-39
-40
-40
-40
-40
-40
-40
-41
-41
-40
-40
-40
-40
-39
-39
-39
-39
-38
-38
-37
-37
-37
-37
-37
-37
-36
-37
-35
-35
-35
-35
-35
-35
-35
-36
-36
-36
-36
-36
-36
-36
-36
-36
-36
-36
-36
-37
-36
-36
-36
-36
-35
-35
-35
-34
-35
-34
-34
-34
-34
-34
-34
-34
-34
-34
-34
-35
-35
-35
-35
-35
-35
-35
-35
-35
-35
-35
-34
-35
-34
-34
-33
-33
-32
-31
-31
-30
-30
-29
-29
-29
-28
-27
-26
-26
-25
-25
-24
-24
-23
-23
-22
-22
-22
-21
-21
-21
-21
-22
-22
-22
-22
-23
-23
-23
-24
-24
-25
-24
-25
-25
-25
-26
-25
-26
-26
-25
-26
-25
-25
-25
-25
-25
-25
-25
-25
-25
-25
-26
-26
-27
-27
-27
-29
-30
-30
-31
-31
-31
-32
-32
-33
-33
-33
-33
-33
-33
-34
-33
-34
-34
-35
-34
-34
-35
-36
-36
-36
-37
-38
-39
-40
-40
-40
-42
-42
-42
-42
-42
-43
-43
-43
-43
-43
-43
-43
-42
-42
-42
-42
-40
-40
-41
-40
-40
-40
-39
-39
-39
-38
-38
-38
-39
-39
-39
-39
-39
-39
-39
-39
-39
-40
-40
-41
-41
-43
-44
-46
-47
-50
-52
-55
-58
-60
-64
-67
-71
-74
-78
-82
-85
-89
-91
-94
-95
-97
-97
-97
-96
-94
-92
-88
-84
-78
-73
-65
-57
-49
-40
-29
-17
-5
9
22
36
51
67
83
99
115
132
148
164
179
194
208
222
234
243
252
258
264
268
270
270
268
265
260
254
246
236
226
214
203
190
178
165
152
139
125
114
102
91
81
71
62
54
46
38
32
26
20
15
10
6
2
-1
-4
-7
-10
-13
-15
-18
-19
-21
-23
-24
-26
-27
-28
-29
-30
-32
-32
-33
-34
-35
-36
-36
-37
-38
-38
-38
-38
-38
-38
-39
-39
-38
-39
-38
-38
-38
-38
-38
-38
-37
-37
-37
-36
-36
-36
-36
-36
-36
-36
-36
-36
-36
-37
-36
-37
-38
-38
-38
-38
-38
-39
-38
-39
-39
-39
-39
-39
-39
-39
-39
-39
-39
-39
-39
-38
-39
-39
-39
-39
-39
-39
-38
-38
-39
-39
-39
-40
-40
-40
-40
-40
-40
-41
-41
-41
-41
-41
-41
-41
-41
-41
-40
-39
-38
-38
-38
-37
-36
-35
-33
-32
-31
-30
-29
-29
-29
-28
-27
-26
-26
-26
-25
-25
-25
-25
-26
-26
-26
-26
-27
-27
-28
-28
-29
-29
-29
-30
-30
-31
-31
-31
-32
-31
-31
-31
-30
-30
-29
-29
-28
-28
-27
-26
-25
-24
-23
-22
-22
-21
-20
-19
-19
-19
-17
-17
-17
-17
-16
-15
-15
-15
-14
-14
-14
-14
-13
-14
-13
-13
-13
-14
-13
-13
-13
-12
-12
-12
-11
-11
-11
-11
-10
-9
-9
-9
-8
-7
-7
-6
-5
-5
-4
-2
-2
-1
0
1
2
4
5
7
8
9
11
13
14
15
16
18
20
21
22
23
25
27
28
29
30
31
32
33
33
35
35
36
37
38
39
39
40
41
42
42
43
44
44
45
46
46
48
48
49
50
50
51
51
52
52
53
53
53
54
53
53
54
53
53
53
53
52
52
52
50
50
49
49
48
48
46
45
45
44
43
41
40
38
37
36
35
34
32
31
30
28
27
26
25
24
22
22
20
19
18
16
15
13
11
10
9
7
5
4
2
0
-2
-4
-6
-8
-10
-11
-13
-15
-16
-17
-19
-19
-21
-21
-22
-23
-24
-24
-25
-25
-25
-25
-26
-25
-26
-26
-27
-27
-27
-26
-27
-27
-26
-26
-27
-27
-26
-27
-27
-27
-27
-27
-27
-28
-28
-28
-28
-28
-29
-30
-30
-31
-31
-31
-33
-33
-33
-34
-34
-34
-36
-36
-36
-37
-37
-39
-39
-39
-40
-40
-42
-41
-42
-42
-44
-44
-44
-43
-44
-44
-43
-43
-43
-43
-42
-42
-42
-41
-41
-41
-40
-39
-39
-39
-38
-38
-37
-38
-38
-37
-37
-38
-38
-38
-38
-38
-38
-38
-38
-38
-38
-38
-38
-38
-38
-38
-38
-37
-37
-37
-37
-37
-36
-36
-35
-35
-35
-35
-35
-35
-35
-35
-35
-35
-35
-35
-35
-36
-36
-36
-37
-36
-37
-38
-37
-37
-38
-38
-39
-39
-39
-39
-39
-39
-39
-40
-40
-39
-39
-39
-39
-39
-39
-39
-39
-39
-39
-39
-38
-38
-37
-38
-38
-37
-37
-37
-36
-36
-35
-35
-35
-34
-35
-35
-35
-34
-34
-35
-34
-34
-35
-35
-36
-36
-37
-37
-38
-38
-38
-38
-38
-40
-40
-40
-40
-40
-40
-40
-40
-40
-40
-40
-40
-39
-39
-39
-39
-39
-38
-38
-39
-39
-38
-39
-39
-39
-39
-38
-38
-38
-37
-37
-36
-36
-37
-36
-36
-36
-36
-35
-35
-35
-35
-35
-35
-36
-35
-36
-37
-37
-37
-38
-38
-38
-39
-39
-40
-40
-40
-42
-42
-42
-42
-42
-42
-42
-43
-43
-42
-42
-41
-41
-41
-41
-40
-40
-39
-38
-37
-37
-36
-36
-36
-36
-35
-35
-36
-36
-37
-37
-38
-38
-39
-40
-40
-41
-41
-42
-42
-42
-42
-42
-42
-42
-41
-41
-41
-40
-40
-40
-40
-40
-39
-39
-39
-39
-39
-38
-39
-39
-39
-39
-39
-39
-39
-39
-39
-39
-39
-39
-39
-39
-40
-40
-40
-40
-40
-40
-41
-42
-41
-42
-42
-43
-43
-43
-44
-43
-43
-44
-44
-44
-44
-44
-44
-44
-44
-44
-44
-44
-43
-44
-44
-44
-44
-42
-42
-42
-42
-40
-40
-39
-39
-38
-38
-37
-37
-37
-36
-36
-36
-35
-35
-36
-36
-37
-36
-37
-38
-39
-39
-40
-41
-40
-41
-41
-41
-42
-43
-43
-43
-43
-43
-43
-43
-43
-43
-42
-42
-42
-41
-41
-41
-41
-40
-40
-39
-40
-39
-38
-38
-38
-38
-37
-37
-37
-36
-36
-35
-35
-35
-35
-35
-35
-36
-36
-36
-36
-36
-37
-38
-38
-40
-40
-41
-42
-43
-43
-44
-44
-45
-45
-46
-46
-46
-46
-46
-47
-46
-46
-46
-45
-45
-45
-44
-43
-43
-43
-41
-41
-40
-40
-39
-39
-39
-38
-38
-37
-38
-37
-37
-37
-37
-38
-39
-39
-40
-40
-41
-41
-42
-41
-42
-42
-42
-43
-43
-43
-42
-42
-42
-42
-41
-40
-40
-40
-39
-40
-39
-39
-39
-40
-39
-40
-40
-41
-41
-41
-41
-42
-41
-41
-42
-41
-41
-41
-41
-41
-40
-39
-39
-37
-36
-36
-34
-34
-32
-32
-31
-31
-30
-30
-29
-28
-28
-27
-28
-28
-27
-27
-27
-27
-26
-27
-27
-27
-26
-26
-26
-26
-26
-25
-26
-26
-26
-26
-26
-26
-26
-26
-26
-26
-27
-27
-27
-28
-28
-28
-29
-29
-29
-30
-30
-31
-31
-30
-31
-31
-31
-30
-29
-29
-28
-29
-28
-28
-28
-27
-27
-27
-26
-27
-26
-26
-26
-27
-27
-27
-27
-27
-27
-27
-28
-28
-28
-28
-29
-29
-30
-30
-32
-32
-33
-34
-36
-36
-37
-37
-38
-39
-40
-41
-42
-43
-43
-44
-45
-45
-45
-45
-45
-45
-45
-45
-45
-45
-44
-44
-44
-44
-44
-43
-43
-43
-43
-43
-43
-43
-43
-43
-43
-43
-43
-44
-44
-44
-44
-45
-45
-45
-45
-45
-46
-46
-46
-46
-46
-47
-48
-48
-49
-51
-52
-54
-56
-58
-61
-63
-66
-69
-73
-76
-80
-83
-86
-88
-91
-93
-95
-96
-97
-97
-97
-95
-93
-89
-85
-80
-75
-69
-62
-54
-45
-34
-22
-11
3
15
30
46
62
78
95
113
130
148
165
183
200
214
230
243
255
266
274
281
286
289
291
291
288
284
278
271
262
251
240
228
215
203
189
175
161
148
134
122
111
99
88
76
67
58
49
41
33
27
20
14
9
3
-2
-6
-10
-13
-17
-20
-23
-24
-27
-28
-30
-31
-32
-33
-33
-34
-34
-34
-35
-35
-35
-35
-35
-35
-35
-35
-35
-36
-35
-36
-36
-36
-37
-38
-38
-39
-40
-40
-42
-43
-44
-45
-45
-45
-46
-46
-46
-46
-46
-46
-47
-47
-47
-47
-47
-47
-46
-46
-45
-45
-44
-44
-44
-44
-43
-43
-43
-43
-43
-43
-43
-43
-43
-43
-43
-43
-43
-43
-43
-43
-43
-43
-43
-44
-44
-44
-44
-44
-44
-44
-44
-44
-44
-44
-44
-45
-44
-44
-43
-43
-43
-43
-43
-42
-41
-41
-40
-41
-40
-39
-39
-38
-38
-37
-37
-37
-37
-37
-36
-36
-36
-36
-35
-35
-35
-35
-35
-35
-34
-34
-34
-33
-33
-33
-33
-33
-33
-33
-33
-32
-32
-32
-32
-32
-31
-31
-31
-31
-31
-30
-30
-30
-29
-29
-29
-28
-27
-26
-26
-26
-25
-24
-24
-23
-23
-22
-22
-22
-22
-22
-22
-22
-22
-22
-21
-21
-21
-21
-22
-21
-21
-21
-20
-20
-19
-18
-17
-17
-16
-15
-15
-13
-13
-12
-10
-9
-8
-7
-7
-5
-4
-2
-2
0
1
2
4
5
6
8
8
10
11
12
13
14
14
16
17
17
17
18
19
19
20
20
21
22
22
24
24
25
26
26
27
28
30
31
32
34
35
36
38
39
40
41
43
43
45
46
47
48
49
49
49
50
51
51
51
51
51
51
51
50
50
51
50
50
50
50
50
50
49
50
49
49
49
49
49
49
49
49
48
48
48
47
47
45
44
42
42
40
38
36
35
33
31
30
28
25
23
21
20
18
16
14
12
11
8
7
5
4
3
1
-1
-1
-2
-3
-4
-5
-6
-7
-8
-9
-10
-10
-11
-12
-13
-14
-15
-16
-17
-18
-19
-20
-21
-23
-23
-25
-27
-27
-29
-30
-31
-31
-33
-34
-34
-35
-36
-37
-37
-37
-39
-39
-39
-39
-40
-40
-40
-40
-41
-41
-41
-41
-41
-41
-41
-41
-41
-42
-41
-41
-41
-41
-43
-43
-43
-43
-43
-43
-44
-44
-44
-44
-44
-45
-45
-44
-44
-45
-45
-44
-44
-44
-44
-44
-44
-43
-43
-43
-42
-42
-42
-42
-41
-42
-41
-41
-40
-41
-41
-40
-40
-41
-41
-41
-41
-41
-41
-41
-41
-42
-42
-42
-42
-42
-42
-43
-44
-44
-44
-44
-44
-43
-44
-44
-44
-44
-45
-44
-44
-44
-44
-44
-44
-44
-43
-44
-44
-44
-44
-45
-45
-44
-44
-44
-45
-45
-45
-45
-45
-45
-45
-44
-44
-43
-43
-42
-42
-42
-42
-42
-42
-42
-41
-41
-40
-41
-41
-41
-41
-42
-42
-42
-43
-43
-43
-43
-44
-44
-45
-45
-45
-46
-46
-47
-47
-48
-48
-48
-49
-49
-49
-49
-49
-48
-48
-48
-47
-47
-48
-47
-47
-47
-46
-46
-45
-44
-44
-44
-44
-44
-44
-44
-44
-44
-44
-44
-44
-45
-44
-45
-46
-46
-46
-46
-46
-46
-46
-46
-46
-47
-47
-47
-47
-47
-47
-48
-48
-48
-48
-48
-48
-49
-49
-49
-50
-50
-50
-50
-50
-49
-49
-49
-49
-48
-47
-47
-47
-46
-45
-45
-45
-44
-44
-43
-42
-42
-42
-42
-42
-42
-42
-42
-43
-43
-43
-43
-43
-44
-44
-45
-44
-45
-45
-46
-46
-46
-47
-48
-47
-48
-48
-48
-48
-48
-48
-48
-48
-48
-48
-47
-47
-47
-47
-47
-47
-47
-47
-47
-47
-47
-47
-47
-47
-46
-46
-47
-47
-47
-47
-46
-46
-46
-46
-46
-45
-45
-45
-45
-45
-44
-44
-44
-44
-44
-44
-44
-44
-45
-44
-45
-45
-45
-45
-46
-46
-47
-47
-47
-48
-47
-47
-47
-47
-48
-48
-48
-48
-48
-48
-48
-48
-47
-47
-47
-47
-47
-47
-47
-47
-46
-46
-47
-47
-47
-47
-46
-46
-47
-47
-47
-47
-48
-47
-47
-47
-46
-46
-46
-47
-46
-46
-46
-46
-46
-47
-46
-46
-46
-46
-47
-47
-47
-47
-47
-46
-47
-47
-46
-46
-46
-46
-46
-46
-46
-46
-45
-45
-45
-44
-44
-43
-43
-43
-43
-44
-44
-43
-44
-44
-45
-45
-44
-45
-45
-45
-46
-46
-46
-46
-46
-46
-46
-46
-46
-45
-45
-45
-45
-45
-46
-46
-46
-46
-46
-46
-46
-47
-46
-47
-47
-47
-48
-48
-48
-49
-49
-49
-49
-49
-49
-49
-49
-49
-49
-50
-50
-50
-50
-50
-50
-50
-49
-49
-49
-49
-48
-48
-48
-47
-46
-46
-45
-45
-44
-43
-43
-42
-42
-42
-42
-42
-42
-42
-42
-43
-43
-43
-45
-45
-45
-46
-47
-47
-48
-49
-49
-50
-50
-51
-51
-51
-51
-51
-51
-51
-50
-50
-49
-49
-48
-48
-47
-46
-45
-44
-43
-42
-42
-41
-41
-40
-40
-39
-39
-39
-39
-39
-39
-39
-40
-40
-40
-41
-41
-42
-42
-43
-43
-44
-44
-45
-45
-46
-46
-46
-46
-46
-46
-46
-46
-46
-46
-45
-45
-45
-45
-45
-44
-44
-44
-43
-44
-43
-43
-43
-43
-43
-43
-42
-43
-43
-43
-42
-42
-42
-42
-42
-41
-40
-41
-40
-39
-39
-38
-38
-37
-37
-37
-37
-37
-37
-37
-36
-36
-36
-35
-35
-34
-34
-33
-32
-32
-32
-31
-31
-30
-29
-29
-28
-27
-26
-27
-26
-26
-25
-26
-25
-25
-26
-26
-27
-27
-27
-27
-28
-29
-28
-29
-29
-29
-30
-29
-30
-29
-28
-29
-28
-28
-29
-28
-28
-28
-28
-28
-28
-29
-29
-29
-30
-31
-31
-32
-33
-34
-34
-35
-36
-37
-38
-38
-40
-41
-41
-42
-43
-44
-44
-44
-45
-45
-46
-46
-46
-46
-47
-47
-47
-47
-48
-47
-47
-48
-48
-48
-48
-48
-48
-48
-49
-50
-50
-51
-51
-52
-52
-52
-53
-53
-53
-54
-54
-54
-54
-55
-55
-55
-54
-54
-54
-54
-53
-53
-52
-51
-52
-51
-50
-50
-49
-50
-51
-51
-52
-54
-57
-59
-61
-63
-66
-69
-72
-76
-80
-83
-87
-90
-93
-95
-97
-100
-100
-101
-100
-100
-98
-96
-93
-88
-83
-78
-70
-62
-54
-44
-33
-21
-8
6
20
35
51
67
84
101
119
137
156
174
191
208
224
240
253
264
274
283
288
293
295
295
293
289
283
275
267
256
245
232
218
205
190
176
162
148
134
122
110
98
88
79
69
60
53
45
39
33
27
21
17
12
7
2
-2
-6
-10
-14
-18
-21
-24
-27
-30
-31
-34
-36
-38
-38
-39
-40
-41
-41
-41
-42
-42
-42
-42
-43
-42
-43
-42
-43
-42
-43
-43
-43
-43
-43
-43
-45
-45
-44
-44
-45
-45
-45
-45
-46
-46
-46
-46
-46
-46
-47
-47
-47
-48
-48
-48
-48
-48
-49
-49
-49
-49
-49
-51
-51
-51
-51
-51
-51
-52
-52
-51
-51
-51
-51
-51
-50
-50
-49
-49
-49
-48
-48
-47
-46
-46
-45
-45
-44
-44
-44
-44
-43
-42
-42
-42
-42
-42
-41
-41
-41
-41
-41
-40
-40
-40
-40
-39
-38
-38
-38
-38
-37
-37
-37
-37
-37
-36
-36
-36
-36
-36
-36
-37
-37
-37
-37
-37
-37
-37
-37
-37
-37
-37
-37
-37
-38
-37
-37
-37
-37
-37
-37
-37
-37
-37
-37
-37
-37
-37
-38
-38
-38
-39
-38
-38
-38
-37
-37
-35
-35
-34
-33
-32
-31
-30
-29
-27
-26
-25
-25
-23
-22
-22
-21
-20
-20
-19
-19
-18
-18
-17
-17
-17
-17
-16
-16
-16
-15
-15
-14
-14
-14
-13
-12
-11
-11
-10
-10
-8
-8
-6
-5
-4
-3
-2
-1
0
2
2
4
5
6
7
9
10
11
11
12
13
14
14
15
16
16
18
18
19
20
20
20
21
22
22
22
23
24
25
26
25
27
28
28
29
30
30
31
31
32
33
33
34
35
35
36
37
37
38
39
39
40
40
41
41
42
42
43
44
44
45
45
45
46
45
46
46
45
45
45
45
45
45
45
44
44
43
42
41
41
40
39
39
37
36
34
33
32
30
29
27
25
23
23
21
19
18
16
14
11
9
7
6
4
2
-1
-2
-4
-6
-7
-10
-12
-13
-15
-17
-18
-20
-21
-23
-24
-26
-27
-28
-30
-31
-31
-33
-34
-34
-35
-37
-37
-37
-39
-40
-41
-41
-41
-42
-43
-42
-43
-44
-43
-43
-44
-44
-45
-45
-45
-45
-45
-45
-46
-46
-45
-46
-46
-46
-46
-47
-47
-47
-47
-48
-48
-49
-50
-50
-49
-49
-50
-50
-49
-49
-49
-48
-49
-49
-48
-49
-49
-49
-49
-49
-48
-48
-48
-48
-48
-49
-49
-49
-50
-50
-50
-51
-51
-51
-51
-53
-52
-52
-53
-53
-54
-54
-54
-54
-55
-56
-56
-56
-56
-56
-56
-57
-57
-57
-57
-58
-58
-58
-58
-58
-58
-57
-57
-57
-57
-57
-56
-56
-56
-56
-56
-56
-56
-56
-56
-56
-56
-56
-56
-57
-57
-57
-57
-58
-58
-58
-58
-58
-59
-60
-60
-61
-61
-61
-61
-62
-62
-62
-62
-62
-62
-62
-62
-61
-61
-60
-59
-59
-58
-57
-56
-55
-55
-54
-53
-52
-52
-52
-52
-52
-52
-52
-52
-53
-53
-54
-55
-55
-56
-57
-58
-58
-59
-60
-61
-62
-63
-64
-65
-65
-66
-66
-67
-67
-66
-66
-66
-66
-66
-66
-65
-65
-65
-64
-64
-63
-63
-62
-61
-61
-61
-61
-60
-61
-61
-61
-62
-62
-62
-64
-64
-64
-65
-65
-64
-64
-64
-64
-64
-64
-63
-63
-62
-62
-62
-60
-60
-59
-59
-58
-58
-58
-57
-57
-57
-57
-57
-58
-58
-58
-58
-59
-59
-60
-60
-60
-61
-62
-62
-63
-63
-63
-64
-65
-65
-65
-65
-65
-66
-66
-66
-66
-67
-67
-67
-66
-67
-66
-66
-66
-65
-65
-65
-64
-65
-65
-65
-65
-65
-64
-64
-65
-65
-64
-64
-65
-65
-65
-65
-65
-65
-65
-65
-65
-65
-66
-66
-65
-65
-65
-65
-64
-65
-65
-64
-64
-64
-64
-64
-65
-64
-65
-65
-65
-65
-66
-66
-66
-67
-67
-67
-67
-67
-68
-68
-69
-69
-69
-69
-68
-69
-69
-69
-69
-69
-69
-68
-68
-68
-67
-67
-67
-67
-67
-66
-66
-66
-65
-65
-64
-64
-65
-65
-64
-64
-64
-64
-64
-64
-64
-64
-64
-64
-64
-64
-64
-63
-63
-63
-63
-63
-62
-62
-62
-61
-62
-61
-61
-61
-61
-60
-60
-60
-61
-61
-62
-62
-63
-63
-63
-65
-65
-65
-67
-67
-68
-68
-69
-69
-70
-71
-72
-72
-72
-73
-73
-73
-73
-73
-73
-73
-72
-72
-72
-72
-71
-71
-71
-71
-71
-71
-70
-70
-70
-71
-71
-70
-70
-70
-70
-70
-70
-70
-70
-69
-69
-69
-68
-68
-68
-68
-68
-67
-67
-67
-67
-67
-67
-67
-68
-67
-67
-67
-68
-68
-68
-68
-68
-68
-68
-68
-68
-68
-68
-68
-67
-66
-66
-66
-65
-64
-64
-64
-63
-63
-62
-62
-62
-62
-61
-62
-62
-62
-62
-62
-63
-63
-63
-64
-64
-65
-65
-65
-65
-65
-65
-65
-65
-66
-66
-66
-66
-66
-66
-66
-66
-67
-67
-67
-67
-67
-68
-68
-68
-69
-69
-69
-69
-69
-69
-70
-70
-70
-70
-69
-70
-70
-69
-69
-68
-68
-67
-67
-66
-66
-65
-65
-64
-63
-62
-62
-61
-61
-60
-60
-59
-59
-58
-58
-58
-58
-58
-57
-56
-56
-56
-55
-55
-56
-55
-55
-55
-55
-55
-54
-53
-53
-53
-53
-52
-52
-51
-51
-51
-51
-50
-49
-49
-49
-48
-48
-48
-47
-47
-47
-47
-47
-47
-47
-47
-48
-47
-48
-48
-49
-49
-49
-50
-50
-51
-51
-52
-52
-53
-53
-53
-53
-54
-54
-54
-55
-55
-55
-56
-56
-56
-57
-58
-59
-59
-60
-60
-61
-62
-62
-63
-63
-63
-64
-64
-65
-66
-66
-67
-66
-67
-67
-67
-67
-67
-68
-68
-69
-68
-68
-69
-69
-69
-69
-69
-70
-70
-70
-70
-70
-69
-69
-69
-69
-69
-69
-68
-68
-67
-67
-67
-68
-68
-68
-68
-68
-70
-70
-70
-71
-72
-72
-73
-72
-73
-74
-74
-75
-75
-76
-76
-77
-78
-78
-80
-82
-83
-86
-88
-91
-94
-96
-100
-103
-106
-111
-113
-116
-119
-120
-122
-123
-124
-124
-123
-121
-119
-116
-111
-106
-100
-93
-86
-76
-67
-56
-44
-32
-19
-5
7
22
39
55
71
88
104
121
138
154
170
186
200
213
224
233
240
246
251
252
252
251
248
242
236
227
218
207
195
182
168
155
141
127
113
100
88
76
64
54
44
35
27
18
12
5
-1
-6
-12
-17
-21
-25
-28
-33
-35
-38
-41
-43
-46
-48
-50
-52
-54
-56
-56
-58
-59
-60
-61
-61
-63
-63
-63
-64
-64
-64
-65
-66
-65
-66
-66
-67
-67
-67
-67
-68
-67
-68
-69
-69
-69
-70
-70
-70
-70
-71
-70
-71
-71
-71
-72
-72
-72
-72
-72
-72
-72
-71
-72
-71
-71
-71
-71
-71
-70
-70
-70
-70
-70
-70
-69
-68
-68
-68
-67
-67
-66
-67
-66
-66
-65
-66
-65
-65
-65
-65
-65
-66
-66
-66
-65
-66
-66
-66
-66
-66
-67
-67
-66
-67
-66
-66
-67
-67
-66
-66
-65
-65
-65
-65
-64
-64
-64
-64
-64
-63
-63
-63
-63
-62
-62
-62
-62
-62
-62
-61
-61
-61
-61
-62
-61
-61
-61
-60
-59
-60
-59
-59
-59
-58
-59
-59
-58
-57
-57
-57
-57
-56
-55
-55
-56
-56
-55
-56
-56
-56
-56
-56
-56
-56
-55
-55
-55
-54
-54
-54
-53
-52
-51
-51
-49
-49
-48
-47
-45
-45
-44
-43
-42
-42
-41
-40
-39
-38
-38
-37
-38
-37
-37
-36
-36
-35
-35
-35
-34
-34
-33
-32
-32
-31
-30
-30
-29
-28
-27
-27
-25
-25
-25
-24
-23
-22
-21
-21
-19
-19
-18
-17
-17
-15
-15
-13
-12
-11
-9
-8
-7
-5
-4
-2
-1
0
2
3
5
6
7
8
9
10
11
11
12
13
13
14
14
14
15
14
15
15
15
16
16
16
16
16
17
17
18
18
19
19
19
20
21
21
21
22
22
23
24
24
24
24
25
24
24
25
25
25
25
25
24
23
22
21
21
20
19
17
16
14
12
11
9
7
4
2
0
-2
-4
-6
-8
-10
-11
-13
-15
-17
-18
-19
-21
-22
-23
-25
-26
-27
-29
-30
-31
-33
-33
-35
-36
-37
-39
-39
-41
-42
-43
-44
-46
-47
-48
-49
-50
-50
-50
-51
-52
-52
-52
-53
-53
-54
-55
-55
-56
-56
-57
-57
-58
-58
-59
-60
-60
-60
-61
-62
-61
-62
-63
-63
-63
-63
-64
-64
-65
-65
-65
-66
-65
-65
-65
-66
-66
-67
-67
-67
-66
-67
-67
-67
-67
-67
-67
-67
-66
-66
-65
-65
-66
-66
-66
-65
-65
-65
-65
-65
-65
-65
-65
-66
-66
-66
-66
-66
-66
-66
-66
-66
-66
-66
-68
-68
-68
-68
-69
-69
-69
-69
-70
-70
-71
-72
-71
-72
-72
-73
-72
-73
-73
-73
-73
-73
-73
-74
-72
-72
-73
-72
-71
-71
-70
-70
-70
-69
-69
-68
-67
-67
-66
-66
-66
-65
-66
-66
-66
-66
-65
-65
-66
-66
-66
-66
-67
-66
-66
-67
-67
-68
-68
-68
-68
-68
-68
-68
-68
-69
-69
-69
-69
-69
-70
-69
-70
-70
-71
-70
-71
-71
-71
-71
-71
-71
-71
-71
-71
-71
-70
-70
-70
-70
-68
-68
-68
-68
-68
-68
-67
-67
-66
-66
-66
-66
-65
-66
-66
-66
-66
-66
-66
-66
-66
-66
-66
-66
-66
-66
-66
-66
-65
-66
-66
-65
-65
-65
-65
-66
-65
-65
-65
-66
-66
-66
-67
-68
-68
-69
-70
-70
-71
-71
-72
-72
-72
-72
-72
-73
-73
-73
-73
-73
-72
-71
-71
-71
-70
-70
-69
-68
-67
-68
-67
-67
-67
-67
-67
-67
-67
-68
-68
-69
-69
-69
-70
-71
-71
-72
-72
-72
-72
-72
-72
-72
-72
-72
-72
-72
-72
-71
-71
-71
-70
-70
-70
-69
-69
-69
-70
-69
-68
-69
-69
-69
-68
-69
-69
-69
-68
-68
-69
-69
-69
-69
-70
-69
-71
-71
-70
-71
-72
-72
-72
-72
-73
-73
-74
-74
-74
-74
-75
-75
-75
-75
-75
-75
-75
-74
-74
-75
-74
-74
-73
-73
-72
-72
-72
-71
-71
-72
-71
-71
-71
-71
-71
-70
-70
-70
-70
-70
-70
-70
-70
-70
-70
-70
-70
-70
-71
-71
-71
-71
-72
-72
-73
-72
-73
-74
-74
-75
-75
-76
-76
-77
-77
-77
-77
-76
-76
-76
-75
-75
-74
-73
-72
-72
-71
-71
-69
-69
-68
-68
-67
-67
-67
-67
-67
-68
-68
-68
-68
-68
-68
-69
-70
-70
-71
-71
-71
-72
-72
-72
-72
-72
-72
-73
-73
-73
-72
-73
-73
-72
-72
-72
-71
-71
-71
-71
-71
-71
-71
-71
-70
-71
-70
-70
-71
-71
-71
-72
-72
-73
-73
-74
-73
-74
-75
-75
-75
-75
-75
-75
-75
-75
-75
-74
-74
-73
-72
-73
-73
-72
-72
-72
-72
-71
-71
-71
-71
-70
-70
-70
-70
-70
-70
-70
-71
-70
-70
-70
-70
-70
-70
-71
-71
-70
-71
-71
-71
-71
-71
-71
-71
-71
-72
-72
-73
-72
-73
-73
-73
-73
-73
-73
-73
-73
-73
-74
-73
-74
-73
-73
-72
-73
-73
-73
-72
-72
-72
-73
-72
-73
-72
-72
-72
-71
-71
-71
-70
-70
-69
-69
-69
-68
-68
-67
-66
-66
-65
-64
-64
-63
-63
-62
-62
-61
-61
-60
-60
-60
-60
-60
-59
-59
-59
-59
-59
-59
-58
-57
-57
-57
-57
-57
-57
-56
-57
-56
-55
-55
-55
-54
-55
-55
-54
-55
-55
-55
-55
-55
-55
-56
-56
-56
-56
-57
-56
-56
-58
-58
-58
-58
-59
-59
-59
-59
-59
-60
-60
-61
-62
-62
-63
-63
-64
-64
-65
-65
-66
-67
-67
-69
-69
-70
-70
-71
-71
-73
-72
-73
-73
-73
-74
-75
-75
-75
-75
-76
-77
-77
-77
-77
-77
-78
-77
-78
-78
-78
-78
-78
-78
-78
-78
-78
-79
-78
-78
-78
-78
-79
-79
-79
-77
-78
-78
-78
-78
-78
-78
-78
-79
-79
-79
-80
-81
-81
-82
-82
-81
-82
-82
-82
-83
-84
-84
-85
-86
-89
-90
-92
-94
-96
-98
-102
-105
-108
-110
-114
-117
-121
-124
-127
-129
-132
-134
-135
-136
-136
-136
-133
-131
-128
-124
-119
-112
-105
-97
-88
-77
-66
-53
-40
-26
-12
2
18
35
52
68
86
103
120
138
155
171
187
202
215
226
237
244
250
256
258
259
258
256
251
244
237
228
217
206
193
180
166
152
138
124
109
95
84
71
59
47
37
27
18
9
2
-6
-12
-19
-25
-30
-35
-39
-44
-47
-50
-53
-56
-58
-60
-63
-65
-66
-67
-68
-70
-71
-72
-73
-73
-74
-75
-75
-76
-76
-77
-77
-78
-78
-80
-80
-80
-81
-81
-82
-81
-81
-82
-82
-83
-82
-82
-81
-81
-81
-80
-80
-80
-79
-78
-77
-78
-77
-77
-76
-76
-76
-76
-76
-77
-77
-77
-77
-77
-78
-79
-79
-78
-79
-79
-79
-80
-80
-79
-80
-80
-80
-79
-79
-79
-79
-78
-78
-77
-77
-76
-75
-75
-75
-74
-73
-74
-73
-72
-71
-70
-70
-70
-70
-70
-69
-70
-70
-69
-70
-71
-71
-71
-72
-72
-72
-72
-73
-73
-74
-74
-74
-75
-75
-75
-75
-75
-75
-75
-75
-75
-75
-75
-74
-74
-75
-75
-75
-75
-74
-74
-74
-74
-74
-74
-75
-74
-74
-74
-74
-74
-74
-74
-72
-72
-73
-72
-72
-71
-70
-69
-69
-68
-68
-67
-66
-65
-65
-63
-62
-61
-60
-59
-58
-57
-56
-55
-54
-52
-52
-51
-50
-50
-50
-50
-49
-48
-48
-48
-47
-47
-47
-47
-46
-46
-46
-46
-45
-45
-45
-45
-44
-44
-43
-42
-42
-41
-40
-39
-38
-37
-36
-35
-33
-32
-30
-28
-27
-26
-24
-23
-21
-20
-19
-18
-17
-16
-15
-13
-13
-12
-12
-10
-9
-8
-8
-7
-7
-6
-5
-5
-4
-3
-2
-2
-1
0
1
1
2
2
3
4
4
5
5
5
6
6
7
7
9
9
10
11
12
12
13
14
15
16
17
18
18
18
20
20
21
21
21
21
21
21
20
20
19
18
17
16
15
14
12
11
11
9
8
7
6
4
4
3
1
0
-2
-2
-4
-6
-8
-9
-10
-11
-13
-14
-17
-19
-20
-23
-25
-27
-28
-30
-31
-33
-35
-37
-38
-40
-41
-43
-44
-45
-47
-48
-48
-49
-50
-51
-52
-53
-54
-56
-57
-58
-59
-61
-61
-63
-64
-65
-66
-67
-69
-69
-71
-71
-72
-74
-74
-75
-75
-76
-76
-76
-77
-76
-76
-76
-76
-75
-75
-75
-75
-76
-75
-75
-76
-75
-75
-76
-76
-76
-76
-77
-77
-77
-77
-76
-77
-78
-78
-77
-77
-78
-77
-77
-77
-77
-77
-77
-77
-76
-77
-77
-77
-77
-77
-76
-76
-76
-76
-76
-76
-76
-76
-76
-76
-76
-76
-76
-76
-76
-76
-77
-77
-78
-78
-79
-78
-78
-78
-79
-79
-79
-79
-79
-79
-79
-79
-79
-79
-79
-78
-78
-78
-78
-79
-79
-79
-79
-79
-79
-79
-79
-80
-81
-81
-80
-81
-81
-81
-82
-82
-82
-82
-81
-81
-82
-81
-81
-81
-80
-80
-79
-78
-78
-77
-77
-77
-77
-76
-76
-76
-76
-76
-76
-77
-77
-78
-78
-79
-80
-80
-80
-81
-81
-81
-81
-81
-81
-81
-82
-81
-81
-81
-81
-81
-80
-80
-80
-80
-79
-78
-78
-78
-78
-77
-77
-77
-76
-76
-76
-76
-76
-76
-76
-76
-76
-77
-77
-77
-76
-77
-78
-78
-78
-78
-79
-80
-80
-80
-81
-82
-82
-83
-83
-83
-83
-83
-83
-83
-83
-83
-83
-84
-83
-83
-83
-82
-83
-83
-82
-82
-81
-81
-81
-81
-81
-81
-80
-80
-80
-80
-79
-79
-79
-79
-80
-80
-80
-80
-81
-81
-82
-82
-83
-84
-84
-84
-85
-86
-85
-86
-86
-86
-86
-86
-85
-86
-86
-85
-84
-84
-83
-83
-82
-82
-82
-81
-81
-81
-80
-79
-79
-80
-80
-80
-80
-81
-81
-81
-81
-82
-82
-83
-83
-83
-83
-83
-83
-83
-83
-83
-83
-83
-82
-82
-82
-81
-81
-82
-82
-81
-82
-82
-81
-81
-81
-81
-81
-81
-82
-82
-82
-81
-81
-81
-81
-82
-82
-82
-82
-82
-82
-82
-82
-83
-83
-83
-84
-84
-85
-85
-85
-85
-85
-85
-85
-84
-84
-84
-83
-83
-83
-81
-81
-81
-80
-80
-79
-78
-78
-78
-77
-77
-77
-77
-77
-77
-77
-78
-77
-78
-78
-78
-78
-78
-78
-78
-78
-78
-78
-78
-78
-78
-78
-78
-78
-78
-79
-79
-79
-79
-80
-80
-80
-81
-81
-82
-82
-82
-83
-83
-83
-83
-83
-84
-83
-83
-83
-82
-82
-81
-81
-81
-81
-81
-81
-80
-80
-80
-81
-81
-81
-81
-81
-81
-81
-82
-82
-82
-82
-83
-83
-83
-84
-84
-83
-84
-84
-84
-84
-84
-84
-84
-83
-83
-84
-83
-83
-83
-83
-83
-83
-83
-82
-81
-81
-81
-81
-80
-80
-80
-80
-80
-81
-81
-81
-81
-81
-81
-80
-80
-79
-80
-80
-79
-79
-78
-78
-78
-78
-77
-77
-76
-76
-75
-75
-75
-75
-75
-74
-75
-74
-75
-74
-75
-74
-75
-74
-74
-74
-74
-73
-73
-73
-72
-71
-72
-71
-70
-70
-69
-68
-68
-67
-67
-67
-66
-66
-66
-65
-65
-65
-64
-64
-64
-64
-63
-63
-64
-64
-64
-64
-64
-64
-64
-64
-65
-65
-65
-65
-65
-65
-65
-65
-65
-65
-65
-65
-65
-66
-65
-65
-66
-66
-66
-66
-67
-67
-67
-67
-67
-68
-68
-69
-69
-69
-70
-70
-70
-70
-72
-72
-72
-72
-73
-73
-73
-74
-74
-74
-75
-76
-77
-77
-77
-79
-80
-80
-82
-82
-84
-84
-85
-86
-87
-88
-89
-89
-90
-90
-91
-91
-91
-91
-91
-90
-91
-91
-90
-89
-89
-87
-87
-86
-86
-85
-85
-84
-84
-83
-83
-82
-83
-83
-83
-83
-83
-83
-83
-84
-84
-84
-85
-85
-86
-87
-88
-88
-89
-90
-92
-94
-95
-97
-99
-101
-104
-107
-111
-113
-117
-121
-124
-127
-130
-133
-135
-137
-138
-139
-139
-138
-137
-135
-132
-129
-124
-119
-112
-104
-95
-86
-75
-63
-51
-38
-24
-10
6
21
38
56
74
91
108
126
144
161
177
192
207
219
230
238
245
251
254
255
254
252
247
240
232
222
211
199
186
171
156
142
126
111
96
82
68
56
44
32
21
12
2
-6
-14
-21
-27
-33
-38
-43
-47
-51
-54
-57
-60
-62
-65
-66
-68
-70
-71
-72
-73
-73
-74
-75
-76
-76
-77
-78
-78
-79
-79
-80
-80
-81
-82
-82
-83
-83
-84
-85
-85
-85
-85
-85
-86
-86
-86
-86
-86
-86
-87
-86
-86
-86
-86
-85
-86
-86
-86
-85
-85
-85
-85
-85
-85
-84
-85
-84
-84
-84
-83
-83
-84
-84
-84
-84
-83
-84
-84
-84
-84
-84
-84
-84
-84
-84
-84
-85
-85
-85
-85
-85
-85
-86
-86
-85
-85
-86
-86
-86
-86
-86
-86
-86
-86
-87
-87
-87
-86
-86
-86
-86
-86
-86
-85
-85
-85
-84
-84
-85
-85
-84
-84
-84
-83
-83
-82
-82
-82
-81
-81
-80
-80
-79
-79
-78
-78
-77
-76
-75
-74
-74
-73
-72
-72
-71
-70
-69
-68
-68
-67
-67
-67
-67
-66
-67
-66
-66
-67
-67
-67
-68
-68
-69
-69
-69
-69
-70
-70
-70
-70
-70
-70
-69
-69
-68
-67
-67
-66
-65
-64
-64
-63
-61
-61
-60
-60
-59
-58
-57
-57
-57
-56
-55
-54
-54
-54
-52
-52
-51
-52
-50
-50
-49
-49
-48
-47
-47
-46
-46
-45
-45
-44
-44
-43
-42
-41
-41
-39
-38
-37
-36
-34
-34
-32
-31
-30
-28
-27
-25
-24
-22
-22
-20
-19
-17
-16
-16
-14
-13
-12
-12
-10
-9
-9
-7
-7
-5
-4
-4
-3
-2
-1
-1
1
2
3
3
4
4
6
7
7
8
8
10
10
10
12
12
12
12
12
13
13
14
13
13
14
13
14
14
14
14
13
13
13
13
12
12
11
10
9
9
8
6
5
4
3
2
-1
-2
-4
-5
-7
-9
-10
-12
-14
-16
-18
-19
-21
-23
-25
-26
-27
-29
-30
-32
-34
-35
-37
-38
-39
-41
-42
-43
-44
-45
-46
-48
-49
-50
-51
-52
-54
-54
-55
-57
-57
-58
-60
-60
-61
-62
-63
-64
-65
-67
-67
-69
-70
-71
-73
-74
-75
-77
-77
-78
-79
-81
-82
-83
-84
-85
-84
-85
-85
-85
-86
-85
-85
-86
-84
-84
-83
-82
-81
-81
-80
-79
-78
-77
-76
-76
-75
-74
-74
-74
-73
-73
-73
-73
-72
-73
-73
-73
-74
-73
-74
-74
-75
-75
-75
-75
-76
-77
-76
-78
-78
-78
-79
-79
-80
-81
-80
-81
-82
-82
-83
-83
-83
-84
-84
-84
-84
-84
-84
-85
-84
-84
-84
-84
-84
-84
-84
-84
-83
-83
-82
-82
-82
-82
-81
-82
-82
-82
-82
-81
-81
-81
-81
-80
-80
-80
-80
-80
-80
-80
-81
-81
-80
-80
-81
-81
-80
-80
-81
-81
-81
-81
-81
-81
-81
-81
-80
-80
-80
-80
-80
-79
-79
-79
-79
-78
-79
-78
-78
-77
-77
-77
-77
-76
-75
-76
-75
-75
-75
-75
-76
-76
-76
-76
-76
-76
-76
-76
-77
-77
-78
-78
-79
-79
-79
-80
-81
-81
-81
-81
-81
-81
-81
-81
-81
-80
-80
-80
-79
-79
-79
-78
-78
-78
-78
-78
-79
-79
-79
-78
-78
-78
-78
-79
-79
-79
-80
-80
-80
-80
-80
-80
-80
-80
-80
-80
-79
-79
-79
-78
-78
-78
-78
-77
-77
-77
-77
-77
-77
-76
-77
-77
-77
-77
-77
-77
-76
-76
-77
-76
-76
-76
-76
-77
-77
-76
-77
-77
-77
-77
-77
-77
-77
-77
-77
-77
-77
-78
-78
-78
-79
-79
-79
-80
-80
-80
-81
-81
-82
-82
-82
-83
-83
-83
-84
-84
-85
-85
-85
-86
-86
-86
-86
-86
-86
-86
-86
-85
-85
-84
-84
-83
-83
-82
-82
-82
-80
-80
-79
-79
-78
-78
-77
-77
-77
-76
-76
-76
-77
-77
-77
-78
-78
-79
-79
-79
-79
-80
-81
-81
-81
-81
-81
-81
-81
-81
-80
-80
-80
-79
-78
-78
-78
-78
-77
-76
-77
-76
-76
-76
-75
-75
-75
-75
-75
-75
-75
-75
-75
-75
-75
-75
-75
-75
-75
-75
-75
-75
-75
-75
-75
-74
-74
-74
-74
-75
-74
-74
-74
-75
-74
-74
-74
-75
-74
-74
-75
-75
-76
-76
-76
-77
-77
-78
-78
-79
-80
-81
-82
-82
-83
-83
-84
-85
-85
-86
-86
-86
-86
-86
-86
-84
-84
-83
-83
-83
-82
-81
-80
-79
-79
-78
-78
-78
-76
-77
-76
-76
-76
-76
-76
-76
-76
-76
-77
-77
-77
-77
-76
-76
-76
-76
-75
-76
-75
-76
-75
-74
-74
-74
-73
-73
-73
-73
-73
-73
-73
-73
-73
-73
-73
-74
-74
-74
-74
-73
-73
-73
-72
-72
-72
-71
-71
-71
-70
-70
-69
-68
-68
-67
-67
-67
-66
-65
-64
-64
-63
-63
-62
-62
-61
-61
-61
-61
-61
-60
-60
-60
-60
-60
-59
-60
-60
-60
-60
-60
-60
-60
-60
-61
-61
-61
-62
-61
-62
-62
-62
-62
-63
-62
-62
-63
-63
-63
-63
-64
-64
-65
-65
-66
-67
-67
-68
-69
-70
-71
-72
-73
-73
-75
-75
-77
-77
-77
-78
-78
-78
-78
-78
-79
-78
-78
-78
-77
-76
-77
-76
-75
-75
-75
-74
-74
-74
-75
-75
-74
-75
-75
-75
-76
-76
-77
-77
-79
-79
-80
-80
-80
-81
-81
-82
-82
-82
-83
-83
-83
-83
-83
-83
-83
-83
-83
-82
-82
-82
-83
-82
-82
-82
-82
-82
-82
-84
-85
-86
-87
-89
-91
-94
-96
-99
-102
-105
-109
-112
-116
-119
-124
-127
-130
-132
-134
-135
-135
-135
-135
-133
-130
-126
-122
-115
-109
-101
-92
-82
-71
-59
-46
-33
-19
-4
12
27
43
60
78
95
111
127
144
160
174
188
201
212
221
228
235
238
241
241
239
235
230
224
214
204
194
182
169
155
142
128
114
100
87
73
61
50
40
30
20
12
4
-3
-9
-16
-21
-26
-30
-33
-37
-41
-43
-46
-49
-51
-54
-55
-57
-59
-61
-63
-65
-66
-67
-68
-69
-70
-71
-72
-72
-73
-74
-74
-76
-76
-77
-77
-78
-78
-79
-79
-80
-80
-80
-81
-81
-82
-81
-82
-82
-82
-82
-82
-82
-82
-82
-82
-82
-82
-82
-81
-81
-81
-81
-82
-82
-82
-81
-81
-81
-81
-80
-80
-80
-80
-80
-79
-79
-78
-78
-78
-78
-77
-77
-76
-76
-76
-76
-75
-75
-75
-75
-75
-75
-75
-75
-75
-74
-75
-75
-75
-75
-75
-74
-74
-74
-74
-74
-74
-73
-74
-74
-74
-74
-73
-73
-73
-73
-74
-74
-74
-74
-74
-75
-74
-74
-74
-75
-74
-74
-74
-74
-73
-73
-74
-73
-73
-72
-72
-72
-71
-71
-71
-71
-70
-70
-70
-69
-69
-68
-68
-68
-67
-67
-67
-66
-65
-65
-65
-65
-63
-63
-63
-63
-63
-63
-62
-62
-62
-62
-62
-62
-62
-61
-61
-61
-61
-60
-60
-60
-59
-59
-58
-58
-57
-57
-55
-55
-54
-54
-52
-52
-51
-51
-50
-50
-48
-48
-47
-46
-45
-45
-44
-44
-43
-43
-41
-41
-40
-39
-39
-39
-37
-37
-36
-36
-35
-34
-33
-33
-32
-31
-31
-30
-29
-28
-28
-26
-25
-24
-23
-21
-19
-18
-16
-15
-13
-11
-10
-8
-6
-4
-3
-2
0
1
2
3
4
3
4
5
5
5
5
6
6
6
6
6
7
6
7
7
8
8
8
9
9
9
10
10
11
11
11
11
12
12
12
12
13
13
12
12
12
11
11
11
10
10
10
10
8
8
7
6
5
4
3
2
1
-1
-2
-4
-5
-7
-9
-10
-12
-13
-15
-16
-18
-20
-22
-24
-26
-27
-29
-31
-33
-35
-36
-38
-39
-41
-43
-45
-45
-47
-49
-50
-51
-53
-54
-55
-57
-58
-59
-60
-60
-62
-62
-64
-64
-65
-67
-67
-67
-69
-70
-70
-71
-72
-72
-72
-73
-73
-74
-75
-75
-76
-76
-76
-77
-77
-78
-78
-78
-79
-80
-80
-80
-81
-81
-81
-82
-83
-83
-83
-83
-83
-84
-84
-84
-84
-85
-85
-85
-84
-85
-84
-84
-84
-83
-83
-82
-83
-82
-82
-82
-82
-82
-81
-81
-81
-81
-81
-80
-80
-81
-80
-80
-80
-80
-80
-80
-80
-81
-81
-81
-81
-81
-81
-81
-81
-82
-82
-83
-84
-84
-84
-85
-85
-85
-85
-86
-87
-87
-87
-88
-88
-88
-88
-87
-87
-87
-87
-87
-87
-88
-88
-87
-87
-87
-86
-86
-86
-86
-87
-86
-86
-86
-87
-87
-86
-86
-86
-86
-86
-86
-85
-85
-85
-84
-83
-83
-82
-81
-82
-81
-80
-79
-79
-79
-79
-77
-77
-78
-78
-78
-78
-78
-77
-78
-79
-79
-79
-80
-80
-80
-80
-80
-81
-81
-82
-82
-83
-82
-82
-83
-83
-83
-82
-82
-83
-82
-82
-82
-82
-82
-82
-81
-81
-81
-81
-81
-81
-81
-80
-80
-80
-80
-81
-80
-80
-81
-81
-81
-81
-81
-81
-81
-81
-81
-81
-81
-81
-81
-80
-81
-80
-80
-79
-80
-79
-79
-79
-79
-80
-79
-80
-80
-80
-79
-79
-79
-79
-79
-80
-80
-80
-80
-80
-80
-80
-80
-80
-80
-80
-80
-80
-80
-80
-80
-79
-79
-80
-80
-80
-80
-80
-80
-81
-82
-82
-82
-82
-83
-82
-83
-83
-83
-83
-83
-82
-82
-81
-81
-81
-81
-80
-80
-80
-79
-79
-79
-80
-79
-79
-79
-79
-79
-79
-79
-78
-78
-79
-79
-79
-79
-79
-79
-79
-79
-79
-79
-79
-79
-79
-79
-79
-80
-80
-80
-80
-80
-81
-81
-81
-82
-82
-83
-83
-85
-85
-85
-86
-86
-86
-87
-87
-87
-87
-87
-86
-86
-86
-86
-86
-86
-85
-84
-84
-83
-83
-83
-82
-82
-82
-82
-81
-80
-80
-80
-80
-80
-79
-79
-78
-78
-78
-77
-77
-76
-77
-76
-76
-75
-75
-75
-75
-75
-75
-74
-74
-74
-75
-75
-74
-74
-75
-76
-76
-76
-76
-76
-76
-77
-77
-78
-78
-79
-78
-79
-80
-80
-81
-80
-81
-82
-82
-82
-83
-83
-84
-84
-84
-84
-84
-84
-84
-84
-84
-84
-84
-84
-83
-83
-82
-82
-81
-80
-80
-80
-79
-79
-79
-79
-79
-80
-80
-80
-80
-80
-80
-80
-80
-80
-79
-80
-79
-80
-79
-79
-78
-77
-76
-75
-74
-72
-72
-71
-71
-70
-69
-68
-67
-67
-65
-65
-65
-64
-64
-63
-63
-63
-63
-62
-63
-63
-63
-63
-63
-63
-62
-63
-63
-63
-62
-62
-63
-63
-63
-62
-62
-62
-62
-63
-63
-63
-63
-64
-64
-64
-64
-65
-65
-66
-65
-67
-67
-68
-68
-69
-69
-70
-71
-70
-71
-71
-70
-71
-70
-70
-69
-69
-68
-68
-67
-66
-66
-65
-64
-64
-63
-64
-63
-63
-62
-63
-63
-63
-64
-64
-65
-65
-65
-66
-67
-67
-67
-67
-68
-68
-69
-69
-70
-69
-70
-70
-71
-71
-73
-73
-73
-74
-75
-75
-76
-77
-77
-77
-78
-78
-79
-79
-80
-80
-80
-80
-80
-81
-81
-80
-80
-80
-80
-81
-81
-81
-81
-82
-82
-82
-81
-81
-81
-81
-82
-82
-82
-82
-83
-83
-84
-84
-83
-83
-83
-83
-83
-85
-85
-86
-88
-90
-90
-93
-95
-98
-101
-103
-107
-110
-113
-117
-120
-123
-125
-127
-129
-131
-132
-131
-132
-130
-127
-124
-121
-117
-111
-105
-98
-90
-80
-70
-60
-48
-35
-22
-9
7
22
38
55
71
89
106
123
141
158
174
189
205
217
229
239
247
254
258
260
260
259
256
251
244
236
226
214
201
188
174
160
145
130
116
102
88
75
64
53
43
33
24
16
9
1
-5
-11
-15
-20
-24
-29
-33
-36
-38
-42
-44
-47
-49
-51
-53
-55
-57
-58
-60
-61
-62
-64
-65
-66
-67
-68
-69
-69
-69
-70
-71
-72
-73
-74
-75
-75
-76
-77
-78
-79
-79
-80
-81
-82
-82
-82
-83
-83
-83
-83
-82
-81
-81
-80
-81
-80
-79
-78
-77
-76
-75
-75
-74
-73
-73
-72
-71
-71
-70
-70
-70
-70
-69
-69
-69
-68
-69
-69
-69
-69
-69
-69
-69
-68
-68
-68
-68
-68
-68
-67
-67
-68
-67
-67
-68
-68
-69
-69
-69
-70
-70
-70
-70
-70
-71
-72
-72
-72
-72
-72
-73
-73
-73
-73
-72
-71
-72
-72
-71
-71
-71
-71
-71
-70
-70
-70
-70
-69
-69
-69
-68
-68
-68
-68
-68
-68
-67
-67
-66
-66
-65
-64
-63
-62
-62
-60
-60
-59
-57
-58
-56
-56
-55
-55
-55
-54
-54
-53
-53
-53
-53
-53
-53
-53
-53
-53
-52
-53
-53
-53
-52
-52
-51
-51
-51
-50
-50
-50
-50
-50
-49
-49
-49
-49
-49
-48
-48
-48
-48
-46
-46
-46
-46
-44
-44
-44
-44
-43
-43
-42
-41
-40
-40
-38
-38
-37
-36
-36
-34
-33
-33
-31
-30
-29
-28
-27
-26
-24
-24
-22
-21
-20
-18
-17
-16
-14
-13
-11
-9
-8
-6
-4
-2
0
2
4
6
8
10
12
14
15
17
19
21
22
23
24
26
26
27
28
28
28
29
29
29
29
29
28
28
28
27
28
27
26
27
27
26
26
25
26
25
25
26
26
26
26
26
26
26
26
26
26
25
25
24
25
23
22
21
19
18
16
16
14
12
10
7
6
3
1
-1
-3
-4
-6
-8
-9
-11
-12
-14
-15
-16
-17
-18
-19
-21
-21
-22
-23
-24
-25
-26
-27
-28
-30
-30
-32
-34
-35
-35
-37
-38
-38
-39
-40
-41
-43
-43
-44
-44
-45
-46
-47
-47
-48
-48
-48
-49
-48
-49
-49
-50
-51
-51
-53
-53
-53
-55
-55
-55
-56
-58
-59
-59
-60
-61
-62
-63
-64
-65
-64
-65
-66
-66
-66
-67
-66
-66
-66
-66
-66
-66
-67
-66
-66
-65
-65
-65
-65
-65
-65
-66
-66
-67
-67
-68
-68
-69
-69
-70
-71
-72
-71
-71
-72
-72
-72
-72
-72
-71
-70
-69
-68
-66
-65
-63
-61
-59
-57
-57
-56
-55
-54
-54
-54
-55
-55
-56
-57
-58
-60
-60
-61
-64
-66
-67
-69
-71
-71
-73
-74
-74
-74
-74
-74
-73
-73
-72
-71
-71
-69
-68
-68
-68
-67
-66
-65
-64
-64
-64
-64
-63
-63
-63
-62
-63
-64
-63
-63
-64
-65
-64
-65
-65
-65
-65
-66
-67
-67
-67
-68
-68
-69
-69
-70
-70
-71
-71
-72
-72
-72
-72
-72
-71
-71
-71
-70
-70
-69
-69
-68
-68
-68
-67
-66
-67
-67
-67
-67
-67
-67
-67
-67
-67
-67
-68
-69
-69
-69
-69
-70
-70
-70
-70
-70
-70
-71
-71
-71
-71
-70
-70
-70
-69
-69
-69
-70
-70
-70
-69
-69
-70
-69
-69
-69
-69
-69
-69
-69
-68
-67
-67
-66
-66
-65
-66
-65
-64
-65
-64
-63
-62
-62
-61
-61
-59
-59
-60
-59
-59
-60
-59
-58
-57
-56
-55
-54
-53
-52
-50
-48
-47
-45
-44
-43
-42
-42
-42
-42
-43
-44
-44
-45
-46
-48
-51
-53
-56
-59
-63
-67
-70
-73
-77
-79
-81
-83
-84
-85
-87
-88
-89
-89
-89
-89
-88
-87
-86
-84
-84
-83
-81
-80
-79
-78
-76
-75
-74
-73
-72
-71
-71
-70
-70
-70
-71
-71
-72
-72
-73
-75
-76
-76
-77
-78
-78
-79
-79
-79
-80
-80
-80
-79
-79
-78
-78
-77
-76
-76
-75
-73
-73
-72
-70
-69
-67
-66
-65
-64
-63
-62
-61
-60
-59
-58
-57
-56
-56
-56
-55
-54
-55
-55
-56
-57
-57
-58
-59
-60
-61
-61
-61
-61
-62
-62
-62
-63
-62
-62
-61
-61
-60
-59
-58
-57
-57
-56
-55
-55
-55
-55
-56
-56
-56
-56
-57
-57
-56
-57
-57
-57
-57
-57
-57
-56
-55
-54
-54
-53
-53
-51
-51
-51
-52
-52
-53
-53
-55
-56
-59
-60
-62
-64
-66
-68
-70
-71
-73
-74
-75
-75
-75
-75
-75
-74
-74
-73
-72
-70
-68
-66
-65
-62
-61
-60
-60
-59
-58
-58
-58
-57
-57
-57
-57
-57
-57
-58
-58
-59
-59
-59
-59
-59
-58
-59
-59
-59
-58
-57
-57
-56
-55
-54
-54
-53
-52
-52
-51
-51
-52
-51
-52
-51
-52
-52
-53
-53
-53
-54
-53
-53
-53
-51
-51
-50
-49
-48
-46
-45
-43
-42
-41
-39
-38
-36
-34
-32
-31
-29
-28
-27
-27
-26
-25
-24
-23
-23
-22
-21
-20
-19
-18
-19
-19
-19
-19
-19
-19
-19
-17
-17
-18
-20
-21
-23
-24
-25
-25
-27
-27
-29
-30
-31
-33
-34
-35
-36
-37
-38
-39
-39
-39
-39
-40
-40
-40
-40
-40
-40
-40
-40
-40
-40
-40
-40
-40
-41
-41
-41
-42
-42
-43
-43
-43
-43
-43
-44
-44
-44
-45
-44
-45
-46
-46
-47
-48
-48
-49
-50
-51
-52
-52
-52
-53
-53
-52
-53
-52
-53
-52
-51
-52
-51
-49
-48
-47
-45
-43
-41
-40
-38
-36
-34
-33
-32
-32
-31
-31
-31
-31
-32
-32
-32
-34
-35
-36
-38
-39
-41
-43
-45
-47
-48
-50
-52
-53
-55
-57
-58
-60
-61
-63
-64
-66
-67
-69
-70
-72
-74
-76
-79
-81
-84
-85
-88
-90
-91
-93
-94
-94
-94
-94
-92
-91
-88
-84
-80
-75
-69
-63
-55
-46
-35
-25
-14
-2
11
26
40
56
72
89
105
122
139
155
172
189
205
221
236
249
261
272
280
287
292
296
298
296
295
290
284
277
268
257
245
233
219
205
191
177
163
148
134
121
108
96
85
74
64
56
47
41
34
28
23
18
13
9
6
3
1
-1
-2
-3
-4
-5
-6
-7
-8
-9
-10
-11
-12
-13
-14
-15
-17
-18
-20
-21
-23
-24
-27
-29
-30
-33
-34
-37
-38
-40
-42
-44
-45
-45
-46
-47
-48
-48
-48
-48
-48
-48
-47
-46
-45
-43
-40
-39
-37
-35
-33
-32
-32
-31
-30
-29
-29
-29
-30
-31
-32
-33
-35
-37
-39
-41
-43
-45
-46
-47
-48
-49
-49
-50
-49
-49
-49
-47
-47
-46
-44
-43
-41
-39
-38
-36
-35
-34
-33
-33
-31
-31
-30
-30
-30
-30
-31
-31
-31
-30
-31
-30
-30
-30
-29
-30
-29
-29
-28
-26
-25
-24
-22
-21
-20
-20
-20
-19
-19
-20
-20
-20
-20
-21
-21
-21
-22
-22
-23
-24
-25
-25
-26
-25
-23
-22
-20
-19
-18
-17
-17
-16
-15
-15
-14
-13
-12
-11
-12
-11
-11
-11
-10
-10
-9
-9
-9
-8
-8
-7
-5
-4
-3
-1
1
2
3
4
4
4
4
3
2
1
-1
-2
-2
-4
-6
-8
-9
-10
-12
-12
-13
-13
-13
-13
-13
-13
-11
-11
-10
-9
-8
-7
-5
-4
-2
-1
1
2
3
6
7
8
10
11
14
15
17
17
19
20
22
24
27
29
32
35
38
40
43
44
47
49
52
54
57
58
60
61
62
64
65
65
65
65
64
63
61
59
59
58
57
56
56
56
55
55
55
55
55
56
56
57
59
60
61
63
64
65
67
69
70
71
72
73
73
74
75
75
76
77
78
79
81
82
83
85
86
88
88
90
90
91
90
91
90
89
87
84
80
77
72
67
62
57
53
48
43
38
34
30
26
23
20
17
15
13
11
10
9
8
8
7
6
5
4
2
1
-1
-1
-4
-6
-7
-9
-10
-13
-15
-17
-19
-20
-21
-22
-23
-23
-23
-23
-24
-24
-24
-24
-24
-24
-24
-24
-24
-23
-24
-23
-24
-23
-24
-23
-23
-22
-22
-21
-21
-20
-21
-20
-21
-20
-21
-20
-19
-18
-17
-15
-14
-12
-12
-10
-10
-9
-9
-8
-8
-7
-6
-6
-5
-6
-6
-7
-8
-11
-12
-14
-16
-18
-20
-22
-24
-25
-27
-28
-30
-31
-31
-32
-32
-32
-32
-31
-30
-30
-29
-28
-27
-25
-25
-24
-23
-21
-20
-18
-17
-16
-16
-15
-15
-15
-15
-16
-17
-18
-20
-20
-22
-23
-25
-27
-29
-31
-34
-35
-38
-39
-41
-43
-44
-44
-44
-44
-44
-44
-42
-41
-39
-37
-34
-32
-29
-26
-23
-20
-17
-14
-11
-9
-7
-6
-7
-7
-8
-8
-10
-12
-13
-15
-17
-19
-21
-23
-24
-25
-26
-25
-25
-24
-23
-21
-20
-18
-16
-13
-10
-8
-7
-5
-5
-5
-6
-7
-9
-11
-14
-18
-21
-24
-28
-31
-34
-37
-40
-43
-44
-46
-46
-46
-46
-44
-44
-42
-41
-40
-37
-36
-34
-32
-31
-29
-28
-28
-27
-26
-26
-25
-25
-26
-26
-26
-26
-25
-25
-24
-23
-23
-22
-21
-20
-19
-18
-18
-18
-18
-18
-18
-18
-18
-18
-18
-18
-18
-19
-21
-23
-25
-27
-28
-30
-31
-32
-32
-33
-35
-36
-37
-39
-40
-42
-43
-45
-46
-47
-49
-49
-49
-49
-49
-49
-48
-47
-46
-44
-43
-41
-40
-39
-37
-36
-34
-32
-31
-29
-28
-27
-27
-26
-26
-26
-26
-26
-27
-28
-31
-32
-33
-33
-34
-36
-37
-38
-39
-40
-42
-43
-44
-44
-45
-46
-46
-46
-46
-47
-47
-47
-48
-48
-48
-48
-49
-48
-49
-49
-50
-50
-51
-51
-51
-51
-52
-51
-52
-52
-51
-51
-51
-50
-49
-48
-47
-45
-43
-42
-41
-40
-38
-37
-35
-34
-33
-32
-31
-31
-32
-32
-33
-33
-33
-33
-34
-35
-36
-37
-38
-39
-41
-42
-44
-47
-48
-49
-51
-52
-53
-54
-56
-56
-58
-60
-61
-63
-65
-66
-66
-68
-69
-69
-70
-70
-71
-71
-72
-72
-72
-73
-73
-73
-74
-74
-74
-75
-75
-76
-76
-75
-75
-75
-75
-75
-76
-76
-76
-75
-75
-74
-73
-73
-72
-71
-70
-69
-68
-67
-66
-66
-65
-64
-63
-63
-62
-63
-63
-63
-63
-63
-63
-64
-65
-65
-65
-66
-67
-67
-67
-68
-67
-67
-67
-67
-67
-68
-68
-67
-66
-66
-65
-64
-62
-62
-61
-61
-60
-59
-59
-58
-57
-57
-56
-56
-55
-56
-55
-56
-56
-56
-56
-57
-57
-57
-58
-58
-58
-58
-59
-58
-58
-58
-58
-57
-56
-55
-54
-53
-51
-51
-50
-49
-47
-46
-45
-44
-44
-43
-43
-43
-43
-44
-44
-44
-44
-45
-45
-46
-47
-48
-49
-50
-51
-51
-52
-53
-53
-53
-53
-53
-53
-53
-54
-54
-53
-53
-53
-53
-53
-52
-53
-52
-52
-52
-53
-53
-54
-54
-54
-55
-55
-55
-55
-56
-55
-56
-56
-56
-56
-55
-55
-55
-54
-54
-53
-52
-52
-51
-51
-52
-51
-51
-52
-53
-54
-55
-57
-58
-60
-62
-64
-66
-69
-70
-72
-75
-76
-77
-79
-80
-81
-81
-82
-83
-83
-83
-83
-83
-83
-82
-81
-81
-80
-80
-78
-78
-78
-78
-77
-77
-77
-77
-77
-77
-77
-77
-77
-77
-77
-77
-77
-77
-77
-76
-77
-78
-77
-77
-77
-78
-78
-78
-78
-79
-79
-80
-81
-83
-85
-87
-90
-92
-96
-98
-102
-106
-109
-113
-117
-121
-124
-128
-132
-134
-136
-138
-139
-140
-140
-139
-138
-135
-131
-128
-123
-117
-110
-103
-96
-87
-77
-67
-56
-44
-32
-18
-4
11
26
41
58
74
90
107
123
139
154
170
183
196
208
218
225
232
236
238
239
238
235
230
224
215
205
194
183
170
157
143
129
116
102
89
75
62
51
40
31
21
13
4
-3
-10
-16
-22
-28
-33
-38
-42
-47
-51
-55
-59
-62
-66
-69
-72
-74
-75
-78
-79
-81
-82
-84
-83
-84
-84
-84
-84
-84
-83
-82
-82
-81
-80
-80
-79
-78
-77
-78
-77
-77
-78
-79
-79
-79
-80
-80
-80
-81
-82
-82
-82
-82
-82
-83
-82
-82
-82
-82
-83
-82
-82
-82
-82
-82
-82
-82
-81
-81
-81
-81
-81
-81
-81
-81
-81
-82
-81
-82
-82
-81
-81
-81
-80
-79
-78
-78
-77
-75
-74
-74
-72
-71
-71
-70
-69
-68
-67
-67
-67
-67
-66
-66
-67
-66
-67
-68
-68
-69
-71
-71
-72
-72
-73
-74
-75
-76
-76
-76
-76
-76
-76
-76
-76
-75
-75
-74
-73
-73
-72
-71
-71
-70
-70
-70
-69
-69
-69
-69
-69
-68
-68
-68
-68
-68
-67
-67
-67
-67
-65
-65
-64
-64
-63
-63
-61
-61
-60
-59
-58
-57
-56
-55
-54
-53
-52
-51
-50
-49
-49
-47
-46
-46
-45
-44
-44
-43
-43
-42
-42
-41
-41
-41
-42
-42
-42
-42
-42
-43
-43
-44
-44
-45
-45
-44
-44
-44
-43
-42
-41
-40
-39
-38
-35
-34
-33
-31
-29
-28
-26
-24
-23
-22
-21
-20
-19
-17
-17
-17
-16
-16
-15
-15
-15
-14
-13
-12
-12
-11
-10
-10
-9
-7
-7
-5
-4
-3
-2
-1
0
1
3
4
5
5
6
7
8
9
9
9
11
11
12
12
12
12
13
13
15
15
16
15
16
16
16
16
17
17
17
18
18
18
18
19
19
18
18
19
18
19
19
18
18
18
18
18
16
16
15
15
15
14
14
13
13
11
10
10
8
7
5
4
2
1
0
-2
-4
-5
-8
-10
-11
-13
-15
-17
-20
-22
-23
-25
-27
-28
-30
-31
-33
-33
-34
-35
-35
-36
-36
-36
-37
-37
-37
-38
-38
-38
-38
-39
-39
-40
-40
-41
-41
-43
-44
-45
-46
-47
-49
-50
-52
-53
-55
-56
-57
-59
-60
-62
-62
-64
-64
-66
-66
-66
-67
-68
-68
-69
-69
-69
-70
-70
-70
-70
-70
-71
-71
-70
-71
-71
-71
-71
-71
-71
-71
-71
-71
-71
-71
-71
-71
-71
-71
-70
-71
-71
-71
-70
-70
-70
-69
-69
-68
-68
-68
-68
-68
-68
-68
-68
-68
-68
-69
-70
-70
-71
-72
-72
-73
-73
-73
-74
-75
-76
-77
-77
-77
-78
-77
-77
-76
-77
-76
-75
-75
-74
-74
-73
-71
-70
-68
-67
-67
-66
-65
-64
-64
-62
-62
-62
-62
-62
-62
-62
-62
-63
-63
-64
-64
-65
-65
-66
-66
-67
-67
-67
-67
-68
-68
-69
-69
-69
-69
-68
-68
-68
-68
-68
-67
-67
-67
-68
-68
-68
-67
-68
-68
-68
-67
-67
-67
-67
-67
-67
-67
-67
-67
-67
-67
-68
-68
-68
-67
-68
-69
-69
-69
-69
-68
-69
-69
-71
-71
-71
-72
-72
-72
-72
-72
-72
-72
-72
-71
-71
-70
-70
-69
-69
-68
-68
-67
-66
-65
-65
-64
-63
-63
-64
-63
-63
-64
-64
-65
-65
-66
-67
-67
-68
-69
-69
-70
-70
-71
-71
-71
-71
-71
-71
-71
-71
-71
-71
-70
-70
-70
-69
-69
-68
-67
-66
-67
-66
-66
-65
-65
-64
-64
-65
-65
-65
-65
-65
-66
-66
-66
-67
-67
-68
-69
-70
-70
-70
-71
-71
-71
-73
-72
-73
-73
-73
-74
-73
-72
-72
-73
-73
-72
-72
-71
-71
-71
-71
-71
-70
-69
-69
-69
-69
-69
-68
-68
-68
-68
-68
-68
-67
-67
-67
-68
-68
-68
-68
-68
-68
-68
-68
-68
-68
-69
-69
-69
-69
-69
-70
-70
-71
-71
-71
-70
-70
-71
-71
-71
-71
-71
-71
-71
-70
-70
-70
-70
-70
-69
-70
-69
-69
-69
-69
-69
-68
-68
-68
-67
-68
-68
-68
-68
-68
-68
-68
-68
-68
-69
-69
-69
-69
-69
-69
-70
-70
-70
-70
-70
-70
-69
-69
-69
-70
-70
-70
-70
-70
-70
-69
-70
-70
-70
-69
-69
-69
-69
-69
-70
-70
-69
-69
-70
-70
-70
-71
-70
-71
-71
-72
-73
-73
-74
-74
-73
-73
-74
-74
-75
-75
-75
-74
-74
-75
-75
-74
-74
-73
-73
-72
-72
-71
-70
-70
-68
-68
-67
-67
-67
-67
-66
-66
-66
-65
-65
-66
-66
-67
-67
-67
-67
-68
-68
-67
-68
-68
-68
-68
-68
-68
-68
-67
-67
-67
-66
-66
-66
-66
-65
-65
-66
-65
-65
-65
-66
-66
-65
-66
-66
-66
-66
-66
-66
-65
-66
-66
-65
-65
-65
-64
-64
-63
-62
-63
-62
-61
-61
-61
-61
-60
-60
-60
-60
-59
-60
-60
-60
-59
-60
-60
-60
-59
-60
-59
-59
-59
-59
-59
-59
-58
-58
-57
-57
-57
-57
-56
-56
-56
-55
-54
-54
-54
-54
-54
-53
-53
-54
-54
-54
-54
-55
-54
-55
-55
-56
-56
-57
-58
-58
-59
-60
-60
-61
-61
-62
-63
-63
-63
-64
-63
-64
-63
-64
-63
-62
-63
-62
-62
-62
-61
-61
-61
-60
-60
-59
-59
-59
-58
-59
-59
-60
-59
-60
-60
-61
-61
-62
-62
-63
-65
-65
-66
-67
-67
-68
-68
-69
-70
-71
-71
-71
-72
-73
-73
-74
-74
-75
-76
-76
-76
-76
-77
-77
-77
-78
-78
-78
-79
-79
-79
-78
-78
-78
-78
-78
-77
-77
-77
-77
-77
-77
-76
-76
-76
-76
-77
-77
-78
-79
-81
-82
-83
-86
-88
-91
-93
-96
-98
-102
-105
-108
-112
-115
-118
-121
-124
-125
-127
-128
-129
-129
-128
-127
-124
-121
-118
-114
-108
-102
-95
-88
-79
-69
-59
-47
-36
-23
-9
5
20
36
53
69
86
103
120
137
155
170
186
201
214
227
237
246
254
259
262
264
264
263
258
253
246
237
227
216
204
190
177
163
148
133
119
105
92
79
67
56
46
35
26
18
9
2
-5
-12
-18
-23
-28
-32
-36
-40
-42
-45
-48
-51
-54
-55
-57
-58
-60
-61
-62
-63
-65
-64
-65
-65
-66
-65
-65
-66
-66
-66
-66
-66
-66
-66
-66
-67
-67
-68
-68
-69
-69
-69
-70
-71
-72
-72
-72
-73
-73
-73
-73
-73
-73
-73
-73
-73
-73
-73
-73
-73
-73
-73
-72
-72
-72
-72
-70
-70
-70
-70
-69
-69
-70
-69
-69
-68
-68
-67
-67
-67
-67
-67
-66
-66
-66
-67
-67
-67
-67
-67
-68
-67
-67
-67
-68
-68
-69
-68
-69
-68
-68
-68
-67
-67
-67
-67
-66
-66
-66
-66
-66
-66
-66
-66
-65
-65
-66
-65
-65
-65
-64
-64
-64
-64
-64
-64
-62
-62
-62
-62
-61
-61
-60
-60
-59
-59
-58
-58
-57
-56
-56
-56
-56
-56
-55
-55
-54
-55
-55
-55
-55
-55
-55
-54
-55
-55
-55
-55
-55
-54
-54
-54
-54
-54
-52
-52
-51
-50
-50
-49
-49
-48
-48
-46
-46
-45
-44
-44
-44
-43
-43
-43
-42
-42
-41
-42
-41
-41
-41
-41
-40
-40
-39
-39
-38
-37
-36
-35
-35
-33
-32
-32
-30
-30
-28
-27
-26
-25
-24
-23
-21
-21
-20
-18
-18
-17
-15
-15
-14
-12
-12
-11
-9
-8
-8
-7
-6
-5
-4
-3
-1
-1
1
2
3
4
5
6
7
8
9
10
11
13
14
16
17
18
20
21
23
24
26
27
29
30
32
33
35
35
36
37
37
38
38
39
38
38
38
38
38
37
37
36
35
33
33
32
31
30
30
29
28
26
25
24
23
22
22
21
20
19
17
17
15
14
12
11
9
8
7
6
4
2
1
-1
-2
-4
-5
-7
-9
-10
-12
-13
-14
-15
-16
-18
-19
-20
-21
-22
-23
-24
-25
-27
-27
-28
-30
-30
-32
-33
-34
-35
-36
-38
-39
-41
-43
-44
-44
-46
-48
-48
-50
-51
-52
-53
-54
-55
-56
-57
-57
-58
-58
-58
-59
-60
-60
-60
-60
-60
-60
-60
-60
-59
-59
-59
-59
-59
-59
-59
-59
-59
-60
-60
-59
-60
-60
-60
-61
-61
-61
-61
-61
-61
-60
-61
-61
-60
-60
-60
-61
-61
-60
-60
-61
-61
-61
-61
-61
-61
-61
-62
-62
-61
-61
-61
-61
-61
-61
-61
-60
-60
-60
-60
-59
-59
-60
-60
-59
-59
-60
-60
-60
-60
-59
-59
-59
-60
-60
-60
-60
-60
-60
-60
-61
-61
-61
-60
-60
-60
-60
-60
-60
-59
-59
-59
-59
-59
-59
-59
-59
-59
-59
-59
-59
-59
-59
-60
-61
-60
-61
-62
-62
-62
-62
-62
-62
-63
-63
-63
-63
-63
-63
-63
-63
-63
-62
-61
-62
-61
-61
-61
-61
-61
-59
-59
-59
-59
-59
-59
-58
-58
-58
-59
-58
-58
-58
-58
-58
-58
-58
-58
-58
-59
-59
-59
-60
-59
-60
-60
-60
-60
-61
-61
-62
-62
-62
-62
-62
-62
-62
-61
-61
-61
-62
-62
-61
-61
-61
-61
-60
-60
-60
-60
-60
-59
-59
-59
-59
-59
-58
-58
-58
-58
-58
-58
-58
-59
-59
-59
-59
-59
-60
-60
-61
-61
-61
-61
-63
-63
-63
-64
-64
-63
-64
-64
-64
-64
-63
-63
-63
-63
-62
-63
-62
-62
-62
-61
-60
-60
-60
-60
-60
-60
-60
-60
-60
-60
-61
-61
-61
-61
-61
-61
-61
-62
-62
-62
-62
-62
-62
-63
-63
-63
-63
-63
-64
-64
-64
-63
-63
-63
-62
-62
-62
-62
-61
-61
-60
-60
-60
-59
-59
-59
-58
-59
-59
-58
-58
-58
-58
-58
-58
-57
-57
-57
-56
-57
-57
-56
-56
-55
-55
-56
-55
-55
-55
-55
-55
-55
-55
-55
-56
-56
-57
-57
-58
-58
-59
-59
-60
-60
-61
-61
-61
-61
-61
-62
-62
-62
-62
-62
-62
-62
-61
-60
-60
-59
-59
-58
-57
-57
-57
-56
-56
-55
-54
-54
-54
-54
-54
-54
-54
-54
-55
-55
-56
-57
-57
-58
-58
-59
-59
-60
-61
-61
-62
-61
-62
-62
-62
-62
-62
-63
-62
-62
-62
-61
-62
-61
-61
-60
-60
-60
-60
-60
-60
-60
-60
-59
-59
-59
-59
-59
-59
-58
-59
-59
-59
-59
-59
-59
-60
-59
-59
-59
-59
-58
-58
-58
-58
-58
-57
-58
-57
-57
-57
-57
-58
-58
-58
-58
-58
-57
-57
-56
-57
-57
-56
-56
-56
-56
-56
-56
-55
-54
-54
-54
-53
-53
-52
-53
-52
-51
-52
-51
-52
-52
-51
-52
-51
-52
-51
-52
-52
-51
-52
-51
-51
-52
-51
-51
-50
-50
-49
-49
-49
-47
-47
-46
-45
-44
-44
-43
-42
-41
-40
-40
-39
-38
-38
-38
-38
-38
-38
-38
-38
-38
-38
-38
-39
-38
-39
-39
-40
-40
-41
-41
-42
-42
-42
-43
-43
-44
-45
-45
-45
-45
-45
-46
-46
-46
-46
-46
-46
-46
-46
-46
-47
-46
-46
-45
-45
-45
-44
-43
-42
-42
-41
-40
-40
-39
-39
-39
-38
-38
-38
-39
-39
-39
-40
-40
-41
-42
-43
-44
-45
-47
-48
-49
-50
-51
-52
-53
-54
-54
-55
-56
-56
-57
-57
-57
-57
-58
-57
-57
-56
-57
-57
-55
-55
-55
-56
-56
-55
-55
-55
-55
-55
-55
-55
-56
-56
-56
-57
-57
-57
-57
-57
-57
-57
-57
-57
-56
-57
-57
-57
-56
-56
-56
-57
-57
-57
-58
-58
-59
-59
-60
-62
-63
-65
-67
-69
-72
-74
-77
-80
-84
-87
-91
-95
-98
-101
-104
-107
-109
-109
-111
-111
-111
-109
-106
-104
-100
-96
-91
-83
-76
-67
-57
-46
-34
-22
-8
6
22
38
54
72
90
106
126
144
162
180
199
216
232
246
260
271
281
288
294
297
299
298
296
292
285
277
269
258
245
232
218
203
189
175
160
146
131
118
106
94
83
73
63
54
46
39
32
24
19
14
8
4
0
-4
-8
-12
-14
-17
-20
-22
-25
-27
-28
-30
-31
-32
-33
-34
-35
-36
-36
-37
-38
-38
-39
-39
-39
-39
-39
-39
-39
-39
-39
-39
-39
-39
-40
-40
-40
-41
-41
-41
-42
-42
-42
-43
-44
-45
-45
-46
-47
-47
-48
-48
-49
-48
-48
-48
-49
-49
-47
-47
-46
-46
-45
-44
-43
-42
-41
-40
-38
-37
-36
-35
-34
-33
-33
-32
-32
-31
-31
-31
-31
-31
-31
-31
-31
-31
-31
-30
-30
-30
-31
-31
-30
-30
-30
-28
-29
-28
-27
-27
-27
-26
-26
-25
-25
-25
-25
-24
-24
-25
-25
-25
-26
-26
-25
-25
-26
-26
-26
-25
-26
-26
-26
-25
-25
-25
-25
-24
-24
-24
-24
-23
-22
-22
-22
-22
-22
-21
-21
-21
-21
-20
-20
-20
-19
-19
-18
-18
-18
-17
-17
-15
-15
-14
-14
-13
-12
-11
-11
-10
-10
-9
-7
-6
-6
-5
-4
-3
-3
-2
-1
0
0
0
0
2
2
3
3
3
4
4
5
6
7
7
8
7
9
9
9
10
10
12
12
13
14
15
15
16
17
19
19
21
22
23
24
25
27
29
30
31
32
34
35
37
37
38
39
41
41
42
43
44
44
45
46
46
47
47
48
49
50
51
52
53
54
55
57
57
58
60
61
62
64
64
66
67
68
69
70
72
72
73
73
73
74
74
75
74
74
74
75
75
75
75
75
75
75
75
75
75
75
75
75
75
74
74
74
74
73
73
73
71
71
70
68
67
67
65
64
62
61
60
58
56
54
52
50
49
47
45
42
40
39
37
34
32
30
28
26
24
22
20
19
17
15
13
12
10
8
7
5
5
3
2
1
-1
-1
-2
-3
-4
-5
-6
-5
-6
-7
-7
-8
-8
-9
-9
-10
-10
-11
-11
-11
-11
-13
-13
-14
-14
-15
-16
-16
-17
-18
-18
-19
-19
-20
-20
-21
-21
-21
-21
-21
-21
-21
-21
-21
-21
-21
-21
-21
-20
-20
-20
-20
-20
-19
-19
-18
-18
-18
-18
-18
-17
-17
-16
-16
-16
-15
-15
-15
-15
-16
-16
-17
-18
-18
-18
-18
-18
-19
-20
-20
-21
-21
-23
-23
-23
-24
-24
-25
-24
-24
-24
-24
-24
-24
-23
-23
-23
-22
-22
-22
-21
-21
-21
-21
-21
-20
-20
-21
-21
-21
-22
-23
-23
-23
-25
-24
-25
-26
-26
-26
-26
-27
-27
-27
-26
-26
-26
-26
-25
-26
-25
-25
-24
-24
-24
-24
-23
-23
-23
-23
-23
-23
-23
-23
-24
-24
-24
-25
-25
-26
-26
-26
-26
-26
-25
-26
-26
-26
-25
-25
-25
-25
-25
-24
-24
-23
-23
-23
-22
-22
-22
-22
-22
-22
-21
-21
-22
-22
-22
-23
-23
-23
-23
-24
-23
-23
-23
-24
-24
-24
-23
-23
-23
-23
-24
-23
-23
-23
-23
-23
-23
-24
-24
-23
-24
-24
-24
-24
-25
-25
-24
-25
-26
-25
-25
-25
-25
-26
-26
-26
-26
-27
-27
-27
-26
-26
-27
-27
-27
-28
-27
-27
-27
-27
-27
-26
-25
-26
-25
-25
-25
-25
-24
-24
-24
-24
-23
-23
-23
-22
-23
-23
-24
-24
-24
-25
-25
-25
-25
-26
-26
-26
-26
-27
-27
-27
-27
-27
-27
-27
-28
-27
-27
-27
-27
-27
-27
-27
-27
-27
-28
-28
-29
-28
-28
-29
-29
-29
-29
-29
-29
-30
-30
-29
-29
-30
-29
-29
-29
-29
-28
-27
-28
-26
-26
-25
-25
-24
-25
-24
-23
-23
-23
-22
-22
-22
-22
-21
-21
-22
-22
-21
-22
-22
-23
-23
-23
-24
-24
-25
-25
-25
-26
-26
-27
-28
-28
-28
-29
-28
-29
-30
-30
-31
-30
-30
-30
-30
-31
-31
-30
-30
-30
-31
-30
-30
-30
-30
-29
-29
-29
-29
-28
-28
-28
-28
-27
-27
-27
-27
-26
-26
-26
-26
-26
-26
-26
-25
-25
-26
-27
-26
-26
-27
-28
-27
-28
-28
-29
-30
-30
-31
-31
-32
-32
-33
-33
-33
-33
-33
-33
-33
-32
-32
-32
-31
-31
-31
-30
-29
-28
-28
-27
-27
-27
-27
-27
-27
-26
-26
-26
-26
-26
-26
-26
-26
-26
-26
-26
-26
-25
-25
-26
-25
-25
-25
-25
-25
-25
-24
-25
-25
-25
-25
-25
-25
-25
-24
-25
-24
-24
-25
-24
-24
-25
