# Simple Text Format
# Sampling Rate (Hz):= 1200.00
# Resolution:= 12
# Labels:= ECG	aVR
# Age:=	29
# Gender:=	Masculino
67
68
68
68
68
68
68
68
69
69
68
69
69
69
69
68
68
69
69
68
68
69
68
68
67
67
67
67
67
66
66
66
66
65
65
65
65
64
64
64
64
64
64
63
64
64
64
64
64
64
65
65
65
64
64
64
64
64
64
63
63
62
62
62
61
61
61
61
60
60
61
60
60
59
60
60
60
59
59
59
59
58
58
58
58
58
58
58
58
58
58
58
58
57
57
57
56
56
56
55
55
55
55
54
53
53
53
53
53
53
53
52
52
52
51
51
51
50
50
50
50
49
49
49
48
48
48
47
47
47
47
46
46
45
45
45
44
42
42
42
41
41
40
40
39
38
38
38
36
36
36
35
35
34
33
31
30
30
29
28
28
27
25
25
24
24
23
22
21
20
19
19
17
16
16
14
13
11
10
10
8
7
6
5
4
4
3
2
2
1
1
-1
-1
-1
-2
-2
-3
-3
-4
-4
-5
-5
-6
-6
-6
-6
-7
-7
-7
-8
-8
-8
-8
-8
-8
-8
-8
-9
-9
-9
-8
-8
-8
-8
-8
-7
-6
-6
-6
-5
-4
-3
-2
-2
-1
0
1
2
3
4
5
6
7
8
10
11
12
14
14
16
17
18
20
21
22
22
24
25
26
27
27
29
30
31
32
33
34
35
36
38
39
40
41
42
43
44
45
45
46
46
48
48
49
50
50
51
52
52
52
53
54
55
54
55
55
56
56
57
57
58
58
58
58
59
59
59
60
60
61
61
61
62
63
63
63
64
65
65
65
66
66
66
66
66
66
67
66
67
67
67
66
66
66
66
66
65
65
65
65
63
64
64
64
64
64
64
64
65
65
65
65
66
66
66
66
66
66
66
66
66
66
66
66
66
66
66
66
66
66
66
66
66
66
66
66
66
66
65
65
65
65
64
64
64
64
64
64
64
64
64
64
64
64
63
63
63
63
62
62
62
62
62
62
62
61
61
61
61
61
61
61
61
61
62
62
62
62
62
62
62
63
63
63
63
64
65
65
65
66
66
66
66
66
66
66
66
65
65
65
65
64
64
63
63
63
62
62
62
62
62
62
62
61
61
61
62
61
62
62
63
62
62
62
63
63
63
64
64
64
64
65
65
65
65
65
65
65
66
66
66
66
65
65
65
65
66
65
65
66
65
66
66
65
65
65
65
65
64
64
64
63
63
63
63
62
62
62
62
62
62
62
62
62
62
62
62
63
63
63
63
63
63
63
63
63
64
64
64
64
64
64
65
65
65
65
65
65
65
65
65
65
66
66
66
66
66
66
68
68
67
68
68
69
68
68
68
68
67
67
66
66
66
66
67
66
66
67
66
66
66
66
67
67
67
67
68
68
67
67
67
68
68
67
67
67
67
66
67
67
66
66
66
65
65
65
65
64
64
64
64
64
64
64
63
63
63
63
63
64
64
65
65
65
65
65
65
66
66
66
66
67
66
66
66
66
66
67
67
67
67
67
68
68
66
66
66
66
66
66
66
66
65
65
65
65
65
65
65
66
66
66
66
66
67
67
66
67
67
67
67
68
68
68
68
68
68
67
67
67
67
68
67
67
67
67
66
66
66
66
66
66
65
65
65
65
66
66
66
66
66
67
67
67
67
67
67
68
68
67
67
67
67
66
66
66
66
65
65
65
65
65
65
65
65
64
65
64
64
64
64
64
64
64
65
65
65
65
65
65
65
65
65
65
65
65
66
65
65
64
64
63
63
63
62
62
61
61
61
61
60
60
60
60
59
59
59
59
58
58
58
58
57
57
57
57
57
57
58
57
57
57
57
57
56
56
56
56
55
55
56
55
54
54
54
53
53
53
53
52
52
52
52
52
51
51
51
51
51
51
51
51
52
52
52
53
53
54
53
54
54
55
56
55
56
56
56
57
56
56
56
56
56
56
56
56
56
56
57
57
58
58
58
59
60
60
60
60
60
61
61
61
61
61
61
62
62
63
62
63
63
64
64
64
65
65
65
65
66
66
67
68
67
67
69
69
69
69
69
70
70
70
70
70
70
70
69
69
69
69
67
67
68
67
67
67
67
67
67
66
66
66
67
67
67
67
67
67
67
67
67
67
67
68
68
69
70
71
72
74
75
77
79
80
82
84
86
88
90
92
94
96
96
98
98
98
97
96
95
92
90
86
82
76
71
64
56
49
41
31
20
9
-4
-16
-29
-43
-58
-73
-88
-103
-118
-133
-147
-160
-173
-185
-197
-207
-214
-221
-226
-230
-232
-232
-230
-226
-221
-214
-206
-197
-186
-175
-162
-150
-137
-124
-111
-98
-86
-72
-61
-50
-39
-29
-20
-11
-3
4
12
17
23
28
32
36
39
42
44
46
48
50
51
52
54
54
55
56
56
57
58
58
59
59
61
61
61
62
63
63
63
64
65
65
65
65
65
65
66
66
65
66
66
66
66
66
66
66
66
66
66
65
65
65
65
65
65
65
65
65
65
66
65
65
66
66
66
66
66
66
65
66
66
66
65
65
65
65
65
65
66
66
66
65
66
66
66
66
66
66
65
65
66
66
66
66
66
66
66
66
66
67
67
67
67
67
67
67
67
67
67
66
65
65
65
65
64
64
62
62
61
61
60
60
61
60
59
59
59
59
58
58
58
58
58
58
58
58
59
59
59
59
60
60
60
60
60
61
61
61
61
60
60
60
59
59
59
59
58
58
58
57
57
56
56
55
55
55
54
53
53
53
52
52
52
52
51
50
50
50
50
50
50
50
49
50
49
49
49
50
49
49
49
48
48
47
47
47
47
47
46
45
45
45
44
44
44
43
42
42
41
39
39
38
37
36
36
34
34
32
32
31
30
28
28
27
26
25
23
23
22
21
19
18
17
16
15
14
14
13
13
11
11
10
10
9
8
8
7
6
5
5
4
3
2
2
1
1
-1
-1
-2
-2
-2
-3
-3
-4
-4
-5
-5
-5
-6
-6
-6
-7
-6
-6
-7
-7
-6
-6
-6
-5
-5
-4
-4
-4
-4
-2
-2
-2
-1
-1
1
1
3
3
4
5
6
7
8
9
11
12
13
14
15
16
16
18
19
19
21
22
23
25
26
26
28
29
30
32
33
35
36
38
39
41
41
43
44
45
46
47
47
49
49
50
51
52
52
53
54
54
54
55
55
56
56
57
57
57
56
57
57
57
57
58
58
57
58
59
59
59
59
59
60
60
60
60
60
61
62
62
62
62
62
64
64
64
65
65
65
66
66
66
67
67
68
68
68
68
68
70
69
69
69
71
71
71
70
71
71
71
71
71
71
70
70
70
70
70
70
69
68
68
68
68
68
67
68
68
68
68
69
69
69
69
69
69
69
69
69
69
69
69
69
69
69
69
68
68
68
68
68
68
68
67
67
67
67
66
66
66
66
66
66
66
66
66
67
67
67
68
67
68
69
68
68
68
68
69
69
69
68
68
68
68
69
69
68
68
68
68
68
68
68
68
68
68
68
67
67
67
67
67
67
67
67
66
66
66
66
66
65
66
66
66
65
65
66
65
65
65
65
66
66
66
66
67
67
67
67
67
68
68
68
68
68
68
68
68
68
68
68
68
68
68
68
68
68
68
68
69
69
68
69
69
69
69
68
68
68
68
68
67
67
68
67
67
67
67
67
67
67
67
67
67
68
67
67
68
68
68
68
68
68
69
69
70
70
70
71
71
71
71
71
71
71
72
72
71
71
70
70
70
70
70
70
69
69
68
68
68
68
68
68
67
67
68
68
68
68
69
69
69
70
70
70
70
71
71
71
71
72
72
72
71
71
71
71
71
71
71
71
70
71
71
71
71
70
71
71
71
71
71
71
71
71
71
71
71
71
71
71
71
71
71
71
71
71
72
73
72
73
73
73
73
73
74
73
73
73
73
73
73
73
73
73
73
73
73
73
72
73
73
73
73
72
72
72
72
70
70
70
70
69
69
69
69
69
69
69
69
68
68
69
69
70
69
69
70
70
70
71
71
70
71
71
71
71
72
72
72
72
72
72
72
72
72
71
71
71
71
71
71
71
70
70
70
71
70
70
70
70
70
70
70
70
69
69
68
68
68
68
68
68
69
69
69
69
69
69
70
70
71
71
72
72
73
72
73
73
73
73
74
74
74
74
74
75
74
74
74
74
74
74
73
73
73
73
71
71
71
71
70
70
70
70
70
69
70
70
70
70
70
71
71
71
72
72
72
72
73
72
72
72
72
73
73
73
72
72
72
72
72
71
71
71
70
70
69
69
69
70
69
69
69
70
69
69
69
70
69
69
69
68
68
68
68
67
66
65
65
64
63
63
61
61
60
60
59
59
59
59
58
58
58
57
58
58
57
57
58
58
57
58
58
58
57
57
58
58
58
57
58
58
58
58
58
58
58
58
58
58
58
58
58
59
59
59
60
60
60
61
61
62
62
62
63
63
63
62
62
62
61
62
62
62
62
62
62
62
62
63
62
62
62
63
63
63
63
63
63
63
64
64
64
64
65
65
66
66
67
67
68
69
70
70
71
71
71
72
73
73
74
74
74
75
76
76
76
76
76
76
76
76
76
76
75
75
75
75
75
74
74
74
74
74
74
74
74
74
74
74
74
75
75
75
75
75
75
75
75
75
76
76
76
76
76
77
77
77
78
79
80
81
82
83
84
85
87
88
90
92
94
95
97
97
99
99
100
100
100
99
98
96
93
89
85
80
75
69
63
55
47
37
26
16
4
-7
-21
-35
-50
-65
-80
-96
-112
-128
-143
-158
-173
-185
-198
-209
-218
-227
-233
-237
-240
-241
-240
-238
-233
-227
-219
-210
-200
-188
-176
-163
-150
-137
-123
-109
-96
-83
-69
-58
-47
-35
-25
-14
-5
3
11
18
24
29
35
39
43
47
50
53
55
56
59
60
62
62
64
64
65
65
66
66
66
67
67
67
67
67
68
68
68
68
68
69
69
70
69
70
70
70
71
72
71
72
72
72
73
74
74
75
74
74
75
75
75
75
75
75
75
75
76
76
76
76
75
75
74
74
74
74
74
74
73
73
73
73
73
74
74
74
74
74
74
74
74
73
73
73
73
73
73
73
73
73
73
73
73
73
73
73
74
74
74
74
74
74
73
73
73
73
73
72
71
71
71
72
71
71
71
70
70
70
70
70
70
70
69
69
69
69
68
68
68
68
68
68
67
67
67
67
67
67
67
67
67
67
67
66
66
66
66
65
65
65
65
65
65
64
64
64
64
64
64
63
62
61
61
61
60
60
60
59
59
58
58
58
58
58
58
58
59
59
58
58
58
58
58
57
57
57
56
56
56
55
54
54
54
53
53
52
52
51
50
49
48
47
47
46
45
43
43
42
41
40
39
38
38
36
36
35
34
34
33
32
32
30
29
29
29
28
27
26
25
25
24
23
23
22
22
21
20
20
19
18
16
15
14
13
12
11
9
8
7
7
5
5
4
3
2
2
1
1
1
0
-1
-1
-2
-2
-2
-2
-3
-2
-2
-3
-3
-3
-3
-3
-3
-3
-2
-2
-2
-2
-2
-2
-2
-2
-2
-2
-1
-1
-1
0
0
1
2
4
4
5
7
8
9
10
12
12
14
16
17
19
19
21
22
24
25
26
29
30
31
32
33
35
37
37
38
39
40
41
42
43
43
44
45
46
47
48
49
50
51
52
53
54
55
55
56
58
58
59
61
61
62
63
64
64
65
66
66
67
68
69
69
69
71
71
71
71
71
71
71
71
72
72
72
72
72
72
72
72
72
73
73
73
73
73
74
74
74
74
74
74
75
75
75
75
75
76
76
75
75
76
76
76
76
76
76
76
76
75
75
75
74
74
74
74
74
75
74
74
74
75
75
74
74
75
75
75
75
75
75
75
75
75
75
75
75
75
75
76
77
77
77
77
77
76
76
76
76
76
77
76
76
76
76
76
76
76
75
76
76
76
76
77
77
76
76
76
77
77
77
77
76
76
76
76
76
75
75
75
75
75
75
75
75
75
75
75
74
74
74
74
74
75
75
75
75
75
75
75
76
76
76
76
76
77
77
77
77
78
78
78
78
78
78
78
78
78
78
78
77
77
78
78
78
78
77
77
76
76
76
76
76
76
76
76
76
76
76
76
76
77
76
77
78
78
78
78
77
77
77
77
77
78
78
78
78
78
78
79
79
79
79
79
79
79
79
79
80
80
80
80
80
79
79
79
79
79
78
79
79
78
78
78
78
78
78
77
76
76
76
76
76
76
76
76
77
77
77
77
77
77
77
78
77
78
78
78
78
78
79
79
78
79
79
79
79
79
79
79
79
79
79
79
79
79
79
79
79
79
79
79
79
79
79
79
79
78
78
79
79
79
79
79
79
79
79
79
78
78
78
78
78
77
77
77
77
77
77
77
77
78
77
78
78
78
78
78
78
79
79
79
79
78
78
78
78
79
79
79
79
79
80
80
80
79
79
79
79
79
79
79
79
78
78
79
79
79
79
79
79
79
80
80
80
80
79
79
79
78
78
78
79
78
78
78
78
78
79
78
78
78
78
79
79
79
79
79
78
79
79
78
78
78
78
78
78
79
79
78
78
78
78
78
77
77
77
77
78
78
77
77
77
78
78
77
77
77
77
78
78
78
78
78
78
78
78
78
77
77
77
77
77
78
78
78
78
78
78
78
79
78
79
79
79
79
79
79
80
80
80
80
80
80
80
80
80
80
81
81
81
81
81
81
81
80
80
80
80
79
79
79
79
78
78
77
77
77
76
76
76
76
76
76
76
76
76
76
77
76
76
78
77
77
78
78
78
79
80
80
80
80
81
81
81
81
81
81
81
80
80
79
79
79
79
78
78
77
77
76
76
76
75
76
75
75
75
75
75
75
75
75
75
75
75
75
76
76
77
77
77
77
78
78
78
78
79
79
78
78
78
78
77
77
77
77
76
76
76
76
76
75
75
75
74
75
74
74
73
73
73
72
71
72
71
71
70
70
70
70
70
69
69
70
69
68
68
68
68
67
67
67
67
67
67
67
66
66
66
66
66
65
65
65
64
64
64
64
64
63
62
62
62
61
60
61
61
61
60
61
61
61
62
62
63
63
63
63
64
64
64
65
65
65
66
65
66
66
65
66
66
66
67
66
66
66
66
66
66
67
67
67
67
68
68
68
69
70
70
71
71
72
73
73
74
75
75
76
76
77
77
77
77
77
78
78
78
78
79
79
79
79
80
80
80
80
80
80
80
80
80
80
80
81
81
81
81
82
82
82
82
82
82
83
83
83
83
83
83
83
82
82
82
82
82
82
81
81
82
81
81
81
80
81
82
82
82
83
85
86
87
88
90
91
93
95
97
99
101
102
104
104
105
107
106
106
104
103
101
98
95
90
85
80
73
66
59
50
41
30
19
6
-6
-20
-34
-49
-64
-80
-96
-112
-128
-144
-158
-173
-186
-199
-209
-218
-225
-232
-235
-237
-237
-235
-232
-226
-219
-210
-201
-190
-178
-165
-152
-139
-124
-111
-97
-84
-70
-59
-47
-35
-25
-16
-7
2
9
16
21
26
31
36
39
43
46
50
52
55
57
59
61
63
64
66
67
67
69
70
71
70
71
71
72
72
72
73
73
73
73
74
74
75
74
75
75
76
76
76
76
76
76
77
77
76
76
77
77
77
77
78
78
78
78
78
78
79
79
79
79
79
79
79
79
79
79
79
79
79
80
80
80
80
80
80
81
81
80
80
80
80
80
79
79
78
78
78
78
78
77
77
77
76
76
76
76
76
76
75
74
74
74
74
74
73
73
73
73
73
72
73
73
73
72
72
72
72
72
71
71
71
71
71
70
70
70
70
70
70
70
70
70
70
70
71
71
70
70
70
70
70
70
71
70
70
70
70
70
70
70
70
70
70
70
70
70
70
70
70
71
70
70
70
69
69
67
67
67
66
66
65
65
64
63
62
62
62
60
60
60
59
58
58
57
57
56
56
56
56
56
56
55
55
55
55
55
54
54
54
53
52
51
51
50
50
49
49
47
47
46
45
45
44
43
42
42
40
39
39
38
36
35
34
34
33
32
31
31
30
29
29
28
27
27
26
26
25
24
23
23
23
22
21
20
19
19
18
17
17
16
15
15
14
14
14
13
13
12
11
11
10
9
9
8
7
7
6
6
5
5
4
4
3
3
3
2
2
2
1
2
1
1
2
2
2
2
2
3
3
3
4
5
5
6
6
7
8
8
9
10
11
12
12
14
14
16
17
19
19
20
22
23
24
26
28
30
31
32
33
35
37
37
39
40
41
43
44
45
47
48
49
51
52
53
54
56
56
57
59
60
60
61
62
62
63
65
65
65
67
68
69
69
69
70
71
71
72
72
72
72
72
72
73
73
73
73
73
73
74
74
74
75
75
75
75
76
76
76
76
76
76
77
78
78
77
77
78
78
77
77
78
77
78
78
78
79
79
79
79
79
78
78
78
78
78
78
78
78
79
79
79
79
79
79
79
81
80
80
80
80
81
81
80
80
81
81
81
81
81
81
81
82
82
82
82
83
83
83
83
83
83
82
82
82
82
82
82
82
82
82
82
82
82
82
82
82
82
82
82
83
83
82
82
83
83
82
82
82
83
84
84
84
84
84
84
85
85
85
85
85
85
85
85
84
84
83
83
83
83
82
82
81
81
81
80
80
80
80
80
80
80
79
79
80
80
80
81
81
81
82
82
82
83
83
84
85
85
86
86
86
87
86
87
87
86
86
86
86
86
86
86
86
86
86
86
85
85
84
84
84
84
84
83
83
83
83
84
84
84
85
85
85
86
86
86
86
86
86
86
86
85
85
85
85
85
83
83
83
83
82
83
83
82
82
82
82
82
83
83
83
82
83
83
83
83
83
83
84
84
85
85
85
85
86
86
86
86
86
87
87
87
87
88
88
88
87
88
87
87
87
87
87
87
86
87
87
87
87
87
86
86
87
87
86
86
86
86
86
86
86
86
86
86
86
86
87
87
86
86
86
86
85
86
86
85
85
85
85
85
86
86
87
87
87
87
88
88
88
88
88
88
88
88
88
88
89
89
89
89
88
89
89
89
89
89
89
88
88
88
87
87
87
87
87
87
87
87
86
86
86
86
87
87
86
86
86
86
86
86
86
86
86
86
86
85
85
85
85
85
85
85
85
85
85
84
85
85
85
85
85
84
84
84
84
84
85
85
85
85
85
87
87
87
88
88
89
89
89
89
90
90
91
91
91
91
91
91
91
91
91
91
91
91
91
91
90
90
90
90
90
90
89
89
89
90
90
89
89
89
89
89
89
89
89
89
89
89
88
88
88
88
88
88
88
88
88
88
88
88
89
88
88
88
89
89
89
89
89
89
89
88
88
88
88
88
87
87
87
87
86
86
86
86
85
86
85
85
85
85
84
85
85
85
84
84
85
85
85
85
85
86
86
86
86
86
86
86
86
87
87
87
87
87
87
87
87
87
87
87
87
87
88
88
88
89
89
89
88
88
88
88
88
88
87
86
87
86
85
85
84
84
83
83
82
82
81
81
80
80
79
79
78
78
77
77
76
76
76
76
76
76
77
76
76
76
76
76
76
77
76
76
76
76
76
76
75
75
75
75
74
74
74
74
74
74
73
72
72
72
71
71
71
70
70
70
70
70
70
71
71
72
71
72
72
73
74
74
75
75
76
76
76
76
77
77
77
77
78
78
78
79
79
79
79
79
79
80
81
81
81
82
81
82
83
83
84
84
84
85
85
86
87
87
88
87
88
88
88
88
88
89
89
89
88
88
89
89
88
88
88
89
89
89
89
89
89
89
89
89
89
89
88
88
87
87
87
88
88
88
88
88
89
89
89
90
90
90
91
90
90
91
91
91
91
92
92
92
93
93
94
96
96
98
99
101
103
104
107
108
110
113
113
115
116
116
117
117
117
116
114
112
110
107
102
97
92
85
79
70
62
52
41
30
18
5
-6
-20
-36
-51
-65
-81
-95
-110
-125
-139
-153
-166
-178
-188
-197
-204
-210
-214
-217
-216
-215
-212
-207
-200
-193
-183
-173
-161
-149
-136
-122
-109
-95
-82
-68
-56
-44
-33
-21
-11
-2
7
15
23
29
36
41
46
51
55
58
61
63
67
68
70
71
72
74
75
75
76
77
78
78
79
80
80
81
81
82
82
82
83
83
83
84
85
84
85
85
86
86
86
86
87
86
87
88
88
88
89
88
88
88
89
88
88
88
88
89
89
89
89
89
89
89
88
89
88
88
88
88
88
88
88
88
88
88
88
87
86
87
87
86
86
86
87
86
86
86
87
86
86
86
86
86
86
86
86
85
86
86
86
86
86
87
87
86
86
86
86
86
86
85
85
84
84
84
84
83
83
83
83
83
83
83
83
83
82
82
82
82
82
82
81
81
81
81
82
81
81
81
80
79
80
80
80
80
79
80
80
79
79
79
79
79
78
77
77
78
78
77
78
78
78
78
78
78
78
77
77
77
76
76
76
75
75
74
74
73
73
72
72
70
70
70
69
69
69
68
67
67
66
66
65
65
64
64
63
63
62
62
62
61
61
61
60
60
59
59
59
58
57
56
56
55
55
55
54
53
52
51
51
50
50
49
48
48
47
47
45
44
44
42
41
40
39
38
36
35
34
33
32
30
30
29
28
27
27
26
26
25
24
24
23
22
22
21
22
21
20
20
19
19
19
19
19
18
18
17
17
16
16
16
15
14
14
14
13
13
12
11
11
11
11
11
12
12
11
11
11
11
11
12
13
13
14
14
14
15
16
17
18
20
20
22
23
25
27
28
30
31
33
34
36
36
38
39
41
41
42
44
45
46
47
48
49
51
52
53
54
54
56
56
57
59
59
60
61
62
63
64
65
66
67
68
69
69
70
71
71
71
72
72
73
74
74
75
75
75
75
76
76
77
78
78
78
79
80
79
80
81
81
81
81
81
81
82
82
82
83
82
82
82
83
83
84
84
84
84
85
85
85
85
85
85
85
84
84
83
83
84
84
84
84
84
84
84
84
84
84
84
85
85
85
85
84
84
84
84
84
84
84
86
86
86
86
87
87
87
87
87
87
88
89
88
88
88
89
88
88
88
88
88
88
88
89
88
88
89
88
87
87
87
87
87
86
86
86
85
85
84
84
84
84
85
85
85
85
84
84
85
85
85
85
85
84
84
85
85
85
85
85
85
85
85
85
85
86
86
86
86
86
87
86
86
86
87
86
86
86
86
86
86
86
86
86
86
86
86
86
86
86
84
84
84
84
84
84
83
83
83
83
83
83
82
83
83
83
83
83
83
83
83
83
83
83
83
83
83
83
83
84
84
83
83
84
84
85
84
84
84
85
85
85
85
86
86
86
87
87
87
87
88
88
88
88
88
89
89
89
89
89
88
87
87
87
87
87
86
85
85
86
85
85
85
86
86
86
86
87
87
87
87
87
88
88
88
89
89
88
88
88
88
88
88
88
88
88
88
88
88
88
87
87
87
86
86
86
86
85
85
86
86
86
85
86
86
86
86
86
87
87
87
87
87
86
88
88
87
87
88
88
88
88
89
89
90
90
90
90
91
91
91
91
91
91
91
90
90
90
90
90
89
89
88
88
88
88
88
89
88
88
88
88
88
87
87
87
87
87
87
87
87
87
87
87
87
87
88
88
88
88
89
89
89
88
89
89
89
90
90
90
90
91
91
91
91
91
91
91
91
91
90
89
89
89
88
88
87
87
86
86
86
86
86
86
86
87
87
87
87
86
86
87
87
87
88
88
87
88
88
88
88
88
88
89
89
89
88
89
89
89
89
89
88
88
88
88
88
88
88
88
87
88
87
87
88
88
88
88
88
89
89
89
88
89
89
89
89
89
89
89
89
89
89
89
89
88
88
89
89
88
88
88
88
88
88
88
88
87
87
87
87
87
87
88
88
88
88
88
88
88
88
88
88
87
88
88
88
87
87
87
87
87
88
88
89
88
89
89
88
88
88
88
88
87
87
88
87
87
86
86
85
86
86
86
85
85
85
85
84
85
84
84
83
82
82
82
81
81
80
80
80
79
80
79
78
78
78
77
77
77
77
76
76
75
75
75
75
75
75
75
74
74
74
75
75
75
74
74
74
74
74
74
74
73
74
73
72
72
72
72
73
73
72
73
73
73
74
74
74
75
75
75
75
75
75
75
76
76
76
76
77
77
78
78
78
79
79
80
80
80
81
81
81
81
82
82
82
83
83
84
84
85
85
86
86
88
87
88
88
88
89
90
90
90
90
91
91
91
91
91
91
92
91
92
92
92
92
92
92
92
92
92
93
92
92
92
92
92
92
92
91
92
92
92
92
92
92
92
92
92
92
93
93
93
94
94
93
93
93
93
94
95
95
96
96
98
99
100
101
102
103
106
107
109
109
112
113
115
116
118
118
120
120
120
120
119
118
115
113
110
106
101
94
88
81
73
63
53
42
31
18
6
-7
-21
-37
-52
-66
-82
-98
-113
-128
-143
-157
-170
-182
-193
-202
-210
-215
-219
-223
-223
-221
-218
-214
-208
-199
-191
-180
-169
-157
-144
-131
-117
-104
-90
-77
-63
-50
-39
-27
-16
-5
5
14
22
30
36
42
47
53
57
61
64
67
70
72
73
75
77
77
78
80
81
81
82
82
84
84
85
85
85
86
86
86
87
87
88
88
89
89
90
90
91
91
91
92
92
92
93
93
93
92
92
92
92
92
91
91
91
91
90
90
91
90
90
90
90
90
90
90
90
90
90
90
90
90
91
91
90
90
90
90
91
91
90
91
91
91
90
90
90
90
89
89
89
89
88
87
87
87
87
86
87
87
86
85
85
85
85
85
85
84
84
84
83
84
84
84
84
85
85
85
85
85
85
86
86
86
86
86
86
86
86
86
86
86
85
85
85
85
85
86
86
86
86
85
85
85
85
85
85
86
85
85
85
85
84
84
84
83
83
84
83
83
82
82
81
81
81
81
80
79
79
79
77
77
76
76
75
75
74
74
73
73
71
71
71
70
70
70
70
69
68
68
68
67
67
67
67
66
66
66
66
65
65
65
65
64
64
63
62
62
61
60
59
58
58
57
56
55
54
53
52
51
50
49
48
47
46
45
44
43
42
41
40
40
38
38
37
36
35
35
34
34
33
32
32
31
30
29
29
27
26
25
25
24
24
23
22
22
21
21
21
20
20
19
19
17
17
16
16
15
15
14
13
12
12
11
10
10
10
9
9
8
8
8
8
8
8
9
9
9
10
10
11
11
12
13
14
14
15
16
17
18
19
19
20
22
23
24
24
26
27
29
30
30
31
33
34
36
38
39
41
43
44
45
47
48
49
51
52
53
54
55
57
57
58
60
61
61
62
63
64
65
66
67
68
69
70
71
72
72
74
74
75
76
76
78
78
79
79
80
82
82
83
83
84
84
84
85
84
84
84
84
84
84
84
84
85
84
84
85
85
85
86
86
86
86
87
87
87
87
86
86
87
87
86
86
87
87
87
87
87
87
87
87
87
88
88
88
88
88
87
87
87
87
87
87
87
87
87
87
87
87
87
87
87
87
87
87
88
88
88
87
87
87
88
88
88
88
88
88
88
88
88
88
88
88
88
88
88
88
88
88
88
88
88
88
88
89
90
90
89
90
90
90
91
91
91
91
90
90
90
89
89
89
88
88
88
87
87
86
87
87
87
86
86
86
86
86
86
87
87
87
87
88
88
88
88
89
89
89
89
89
89
89
90
89
89
89
89
89
88
88
88
88
87
86
86
86
86
86
86
86
85
85
85
85
85
85
85
85
85
86
86
86
85
85
86
86
86
86
87
88
88
88
89
89
89
90
90
90
89
89
89
89
89
89
89
90
90
90
90
89
90
90
90
90
89
89
89
89
89
89
89
89
88
88
88
88
88
88
89
89
89
89
89
89
90
90
90
91
90
90
91
91
90
91
91
91
91
91
90
91
91
91
90
90
90
90
89
89
89
89
89
89
88
87
87
88
88
88
88
89
89
89
89
90
90
91
91
91
90
90
90
90
90
90
90
90
90
90
90
89
89
90
90
90
90
90
89
89
89
89
89
89
90
90
90
89
89
89
89
90
90
90
90
90
90
90
90
91
91
91
91
91
92
92
92
92
92
92
92
91
91
92
91
91
91
90
90
90
89
89
89
88
88
88
87
87
87
88
88
88
88
89
88
89
89
89
89
89
89
88
88
88
88
88
88
88
88
88
88
88
88
88
88
88
89
89
89
89
89
90
90
90
90
90
90
90
90
91
91
91
91
90
90
90
90
90
90
90
90
89
89
89
89
89
89
89
89
89
89
90
90
90
90
91
91
91
91
91
90
91
91
91
90
90
90
91
90
90
91
90
90
90
91
91
91
91
90
89
89
89
89
88
88
88
88
88
89
89
89
89
89
89
88
88
87
88
88
87
87
86
86
85
85
84
84
83
83
82
82
82
82
82
81
81
80
81
80
80
79
80
79
79
78
78
78
78
78
77
77
78
77
77
77
76
76
76
75
75
75
75
75
75
74
74
74
74
74
74
74
73
73
74
74
74
74
74
74
74
74
75
75
75
75
75
75
75
75
75
75
76
76
76
77
77
77
78
78
78
78
78
78
78
78
78
79
79
80
80
80
81
81
81
81
82
82
82
82
83
83
83
83
83
83
84
85
86
86
86
87
88
88
90
90
91
91
92
92
93
93
94
94
94
94
94
94
94
94
94
94
95
95
94
94
94
92
92
92
92
91
91
91
91
90
90
89
90
90
90
90
90
90
90
91
91
91
92
92
92
93
93
93
93
94
95
96
97
98
99
100
102
103
106
107
109
111
113
114
116
117
118
119
119
118
117
116
114
112
109
106
101
96
90
83
75
67
58
47
36
25
12
0
-15
-29
-44
-60
-76
-91
-106
-122
-137
-151
-165
-177
-189
-198
-207
-213
-218
-222
-223
-223
-220
-217
-211
-203
-194
-183
-172
-160
-147
-132
-118
-105
-90
-76
-62
-49
-36
-25
-14
-3
7
15
24
31
38
45
50
55
59
63
66
70
72
74
76
77
79
79
80
81
81
81
82
81
82
82
83
83
84
84
84
85
85
86
86
87
87
87
88
88
89
89
89
89
89
89
90
90
90
90
90
90
91
90
90
90
90
89
90
90
90
89
89
89
89
89
89
88
89
89
89
89
88
88
89
89
89
89
88
88
88
88
88
88
88
88
88
88
88
89
89
89
89
89
89
90
90
89
89
89
89
89
89
89
89
89
89
90
90
90
89
89
89
89
89
89
88
88
88
87
87
88
88
87
87
87
87
87
86
86
86
86
86
85
85
85
85
84
84
83
83
82
81
81
81
80
80
80
79
79
78
78
77
77
77
77
76
77
76
76
76
76
76
76
76
77
77
77
77
77
77
77
77
77
77
77
77
76
75
75
75
74
73
73
73
71
71
71
71
70
70
69
69
69
69
68
67
67
67
65
65
64
65
63
63
62
62
62
61
61
60
60
59
59
58
58
57
56
55
55
53
52
51
51
49
49
48
47
47
45
45
43
43
41
41
40
39
37
36
36
35
34
33
33
31
30
30
29
29
27
26
26
26
25
24
24
22
21
20
20
19
19
18
17
17
16
16
15
15
15
13
13
13
13
13
12
12
11
12
12
11
11
10
10
10
10
11
11
11
11
11
11
12
13
13
13
14
15
15
16
16
17
19
19
21
21
23
24
25
27
28
30
31
32
34
35
37
37
38
40
41
42
44
45
46
47
48
50
51
52
53
54
55
57
58
59
60
60
62
62
63
64
64
65
67
67
68
69
70
70
71
73
73
74
75
76
77
78
78
80
80
80
81
82
83
84
84
85
85
86
86
86
87
86
86
87
86
86
85
85
84
84
84
83
83
82
82
82
82
81
81
82
81
81
81
81
81
81
81
81
82
81
82
82
83
83
83
83
84
84
83
85
85
85
85
85
86
86
85
86
87
86
87
87
87
87
87
88
88
88
88
89
88
88
88
88
88
88
88
88
88
88
87
87
87
87
86
87
87
87
87
87
87
87
87
86
86
86
85
85
85
85
86
86
85
85
86
86
85
85
86
86
86
86
86
86
86
86
85
85
85
85
85
84
84
84
84
84
85
84
84
83
83
83
83
83
82
82
81
81
81
81
82
82
82
82
82
82
82
82
83
83
84
84
84
84
84
85
85
85
85
85
85
85
85
85
85
85
85
85
84
84
84
84
84
84
84
84
84
84
84
83
83
83
83
84
84
84
85
85
85
85
85
85
85
85
85
85
84
84
84
83
83
83
83
83
83
83
83
83
83
83
84
84
84
84
84
84
83
83
84
83
83
83
83
84
84
83
84
84
84
84
85
85
85
85
85
84
84
85
85
85
85
85
85
86
86
86
86
86
87
87
87
87
87
87
88
88
88
88
88
89
89
89
89
89
89
89
89
89
89
88
88
88
88
87
87
87
86
86
85
85
85
85
84
84
84
84
84
84
84
84
84
85
85
86
86
85
85
86
87
87
86
86
86
86
86
87
86
86
86
86
85
85
85
85
85
84
84
84
84
84
83
83
83
83
83
83
83
83
83
83
84
84
84
84
84
84
84
84
84
84
83
83
83
83
83
84
83
83
83
84
84
84
84
84
83
83
84
84
84
84
84
84
84
85
85
85
86
87
87
87
88
88
88
89
89
89
89
89
89
89
89
88
88
87
87
88
87
87
86
86
86
85
85
85
84
84
83
83
83
83
83
82
82
82
83
83
83
83
82
82
82
82
81
81
80
81
80
79
79
78
77
77
77
77
76
76
76
76
76
76
76
77
77
77
77
76
76
76
75
75
75
75
75
75
75
75
75
74
74
74
74
74
74
73
72
72
71
71
71
71
70
70
70
70
70
69
69
69
69
69
69
70
70
70
70
70
70
70
70
71
71
71
72
71
72
72
73
73
74
73
73
74
74
74
74
75
75
75
75
76
76
76
77
78
78
79
80
80
80
82
82
83
83
83
84
84
84
84
84
85
84
84
84
84
83
84
84
83
83
84
83
83
83
84
84
83
84
84
84
84
84
85
85
86
86
87
87
87
87
87
88
88
88
89
89
89
88
88
88
88
88
88
87
87
87
88
88
88
88
88
88
88
89
90
90
91
92
93
95
95
97
98
100
102
104
106
108
111
112
114
114
115
115
114
113
112
109
106
102
98
91
86
78
71
62
52
42
30
19
6
-7
-22
-36
-51
-66
-83
-98
-113
-127
-142
-156
-168
-180
-190
-199
-206
-212
-217
-218
-219
-218
-214
-209
-203
-196
-185
-175
-164
-152
-139
-125
-112
-99
-85
-72
-59
-45
-33
-23
-13
-3
7
15
23
29
35
41
46
50
54
56
59
62
64
66
68
69
71
71
72
73
74
75
76
76
76
77
77
78
78
79
79
79
80
80
82
82
83
83
84
84
85
85
85
85
85
86
86
86
85
86
86
86
86
86
86
86
86
86
86
86
86
85
85
85
85
86
86
86
85
85
85
85
84
84
84
85
85
84
84
84
84
84
84
83
83
82
82
82
82
81
81
81
81
81
81
81
81
81
81
82
82
82
82
82
81
81
81
81
81
81
80
81
81
81
81
80
80
80
80
81
81
81
81
81
81
80
80
80
81
80
80
80
80
79
79
80
80
80
79
79
79
79
79
79
79
78
78
78
77
77
76
76
76
75
75
75
75
74
74
74
74
73
73
73
73
73
73
72
72
72
72
72
72
72
71
71
71
71
71
71
71
70
70
69
69
68
68
67
67
66
66
64
64
64
64
63
63
62
62
61
60
60
60
59
59
58
58
56
56
55
54
54
54
53
53
52
52
51
51
50
50
49
48
48
47
46
45
45
43
42
41
41
39
38
37
36
35
34
32
32
30
29
27
27
26
24
23
22
21
20
21
20
19
19
18
18
17
17
17
17
17
16
16
15
15
14
14
14
13
13
12
12
12
11
11
11
11
10
10
10
10
9
9
10
10
10
10
10
10
11
11
11
11
12
12
13
14
15
16
16
17
18
19
20
21
22
23
25
25
27
27
29
30
31
33
34
36
37
38
40
41
43
44
45
47
47
49
50
52
52
53
55
56
57
58
59
60
62
63
64
65
65
66
66
68
68
69
70
70
70
72
73
73
74
75
75
75
76
76
77
78
78
79
79
79
80
80
81
81
81
81
82
82
82
83
83
83
84
85
85
85
85
85
85
85
85
85
86
86
86
85
86
85
85
85
85
85
84
85
85
85
85
85
85
84
84
84
84
84
83
83
84
84
84
84
84
84
84
84
85
85
85
85
85
85
85
85
85
85
86
86
86
86
87
87
87
87
87
88
88
88
89
89
89
89
88
88
88
88
88
87
88
88
88
88
88
87
87
87
87
88
87
87
87
88
88
87
87
87
87
87
87
86
86
86
86
85
85
85
84
85
85
84
83
83
83
83
82
82
82
82
82
82
82
81
82
83
83
83
83
83
83
83
83
83
83
84
84
84
83
83
84
84
84
84
84
85
84
84
84
85
85
85
84
84
84
84
84
84
84
83
83
83
83
83
83
83
83
83
83
83
83
83
83
83
83
83
83
83
83
82
83
83
83
82
83
83
83
83
83
84
84
84
84
84
83
83
83
83
83
84
84
84
84
84
84
84
84
84
84
84
84
84
84
84
84
83
83
83
83
83
83
83
83
84
85
85
85
85
86
85
86
86
86
86
86
85
85
84
84
84
84
84
84
84
83
83
83
84
84
84
84
84
84
84
84
83
83
83
83
83
83
83
83
83
84
84
84
84
84
84
84
84
85
85
85
84
84
85
85
85
85
85
86
86
87
87
87
88
88
88
88
88
88
88
88
87
87
87
87
87
87
87
86
86
86
86
86
86
86
86
86
85
85
85
85
85
85
84
84
83
83
83
83
83
82
83
83
83
82
82
82
82
82
82
81
81
81
82
82
81
81
82
82
82
82
82
82
82
83
83
84
84
84
83
84
84
84
85
84
84
85
85
85
85
85
86
86
86
86
86
86
86
86
86
86
86
86
86
86
85
85
85
84
84
84
84
84
84
84
84
84
84
84
84
83
83
83
83
82
81
82
81
81
80
80
80
79
78
77
77
75
75
74
74
73
72
72
71
71
69
69
69
69
69
68
68
68
68
68
69
69
69
69
69
69
68
69
69
69
68
68
69
69
69
68
68
68
68
69
69
69
69
70
70
69
69
70
70
70
69
71
71
71
71
72
72
73
74
73
74
74
74
75
74
74
74
74
74
74
73
73
73
73
72
73
72
73
73
73
72
73
73
73
74
74
74
74
74
75
75
75
76
76
77
77
78
78
79
78
79
79
80
80
81
81
81
82
82
82
83
83
83
83
84
84
85
85
85
85
85
85
85
86
86
85
85
85
85
85
85
85
85
86
86
86
85
85
85
85
86
86
86
86
86
86
87
87
86
86
86
86
86
87
87
88
89
90
90
92
93
95
96
97
99
101
102
104
106
107
108
108
109
110
110
108
108
106
103
100
97
93
87
82
75
68
59
51
42
31
20
8
-4
-18
-32
-46
-62
-76
-92
-107
-122
-137
-152
-165
-178
-191
-201
-210
-218
-224
-228
-230
-230
-228
-225
-220
-214
-205
-196
-185
-173
-160
-147
-133
-120
-106
-92
-78
-65
-52
-40
-30
-19
-10
0
8
16
22
29
35
40
43
47
50
54
57
59
60
62
63
65
66
66
67
68
69
70
71
71
72
73
74
74
75
75
76
75
75
76
77
77
78
79
79
79
80
81
82
82
82
83
84
84
84
84
85
85
85
85
84
83
83
83
84
83
83
82
82
81
81
81
81
80
80
80
79
79
78
78
78
78
77
77
77
77
78
78
78
78
78
78
78
77
77
77
76
76
76
75
75
76
75
75
75
75
76
76
76
77
77
77
77
77
77
78
78
77
77
77
78
78
78
78
77
76
77
77
77
77
77
77
77
76
76
76
76
75
75
75
74
74
74
74
74
74
73
74
73
73
73
72
72
71
71
70
70
69
68
69
67
67
67
67
67
66
66
66
66
66
66
66
66
66
66
66
65
65
65
65
64
64
63
63
63
63
63
63
63
63
62
62
62
62
62
61
61
60
60
59
59
58
58
57
57
57
57
56
56
55
55
54
54
53
53
52
51
51
49
48
48
47
46
45
44
44
43
42
42
40
39
39
37
36
36
34
33
32
30
29
28
26
25
23
22
20
19
18
16
15
13
13
11
10
8
7
6
5
4
4
3
2
1
1
0
0
0
0
0
0
0
0
1
0
0
1
0
-1
0
0
0
-1
0
0
-1
-1
-1
-1
-1
-1
-1
-1
-1
-1
0
0
0
-1
1
1
2
3
4
5
5
7
8
10
12
12
14
16
17
19
20
21
23
23
25
26
27
28
29
30
31
32
34
34
35
36
37
38
39
40
41
43
43
44
46
47
47
48
49
49
50
51
52
54
55
55
56
57
58
59
59
60
60
60
61
60
61
61
62
63
63
64
64
65
66
66
66
67
69
69
69
70
70
71
71
72
73
72
72
73
73
73
74
74
74
74
74
74
74
75
75
75
74
74
74
74
74
74
74
74
75
75
75
75
76
76
76
77
78
77
77
77
77
77
77
77
77
76
75
75
74
74
73
72
71
70
70
70
69
69
69
69
69
69
70
70
71
72
71
72
74
75
75
76
78
77
79
79
79
79
79
79
79
79
78
78
78
76
76
76
76
76
75
75
74
74
75
75
74
74
74
73
74
74
73
73
74
74
73
74
74
74
74
75
75
75
75
76
76
76
76
77
77
77
77
78
78
77
77
77
77
77
77
76
76
76
76
75
75
75
74
74
74
74
74
74
74
74
74
74
74
74
75
76
76
76
76
77
77
77
77
77
77
77
77
77
77
76
76
76
76
76
76
77
77
77
76
76
77
76
76
76
76
76
76
76
76
75
75
74
74
74
75
74
74
75
74
74
73
73
73
73
71
71
72
71
71
72
71
71
70
70
69
69
68
68
67
66
65
64
64
63
63
63
63
63
63
64
63
64
64
65
67
68
70
71
73
76
77
79
81
82
82
83
83
84
85
85
86
86
86
86
85
85
84
83
84
84
83
82
82
81
80
79
79
78
78
77
77
76
76
76
77
77
78
78
78
80
80
80
80
81
81
81
81
81
81
81
81
81
81
80
81
80
80
80
80
79
79
79
78
77
76
76
75
75
74
73
73
72
72
71
71
70
70
70
69
69
69
69
70
70
70
70
71
71
72
71
71
71
72
72
72
73
73
73
72
73
72
72
71
71
71
70
69
69
69
69
70
70
70
70
70
70
70
70
71
71
71
71
71
70
69
69
69
68
68
67
67
67
68
68
68
68
69
70
72
72
73
74
75
76
77
77
78
79
79
79
79
79
79
78
78
78
78
77
76
75
74
72
72
71
71
71
70
70
70
69
69
69
69
69
69
70
70
71
71
71
71
71
70
70
70
70
69
69
69
68
67
66
66
65
65
65
64
64
64
63
64
63
63
63
63
63
62
63
62
61
61
60
60
59
59
58
57
57
56
55
55
54
53
52
51
50
50
49
48
48
48
47
47
46
46
46
46
45
45
44
44
44
44
44
44
44
44
44
42
42
43
44
45
46
46
47
47
49
49
50
51
51
53
53
54
54
55
56
56
56
56
56
57
57
57
57
58
58
58
58
58
58
58
58
58
58
58
58
59
59
59
59
60
60
60
61
61
61
62
61
62
63
63
64
64
64
65
65
66
67
67
67
68
68
67
68
68
69
68
68
69
68
67
67
66
65
64
63
62
61
60
59
58
58
58
57
57
57
57
58
58
57
58
59
59
60
60
61
62
63
64
65
66
67
67
69
70
70
72
72
74
74
75
76
77
77
78
79
80
82
83
84
84
86
87
87
88
88
88
87
87
85
83
80
77
73
68
63
57
50
42
33
25
16
5
-6
-19
-31
-46
-60
-75
-90
-105
-120
-135
-150
-165
-178
-192
-204
-215
-225
-233
-239
-244
-247
-248
-248
-245
-242
-235
-228
-220
-210
-199
-187
-175
-161
-148
-135
-121
-108
-94
-81
-69
-57
-46
-36
-26
-17
-10
-2
4
10
15
19
23
27
30
33
35
36
38
38
39
40
40
41
41
42
42
43
43
43
44
44
45
46
46
47
48
49
49
51
52
53
55
55
57
58
59
60
61
62
62
62
63
63
63
63
63
63
64
63
63
63
62
60
60
59
58
57
57
57
57
56
55
55
55
56
56
57
57
58
59
60
61
62
63
64
64
64
65
65
65
64
64
64
63
63
62
61
61
59
58
58
57
56
56
55
56
54
54
54
54
53
53
54
54
54
53
54
53
53
53
53
54
53
53
53
52
51
51
50
49
49
49
49
48
48
48
48
48
48
49
49
49
49
49
50
50
50
50
51
50
49
48
47
46
45
45
45
44
44
44
43
43
42
42
43
42
42
42
42
42
41
41
41
40
40
40
39
38
38
36
35
35
34
34
34
34
33
34
34
34
35
35
35
36
36
37
37
38
39
38
39
39
39
39
39
39
37
37
37
36
35
35
33
33
31
31
29
29
28
26
26
25
24
23
21
21
19
19
18
17
16
14
12
11
9
7
5
4
2
1
-1
-2
-4
-5
-7
-8
-9
-10
-11
-13
-14
-14
-15
-15
-15
-15
-14
-13
-14
-14
-13
-13
-13
-14
-13
-13
-14
-14
-14
-15
-15
-16
-18
-18
-19
-21
-21
-22
-23
-24
-25
-25
-26
-26
-26
-26
-27
-27
-27
-28
-28
-29
-30
-30
-30
-31
-31
-32
-32
-33
-32
-33
-32
-32
-31
-31
-29
-28
-25
-24
-21
-18
-15
-12
-10
-7
-4
-1
1
4
6
8
10
12
14
15
17
18
19
20
20
21
22
23
23
25
26
27
27
29
31
32
33
34
36
37
39
40
41
41
42
43
43
43
43
44
44
45
45
45
46
46
47
47
47
48
47
48
48
49
48
48
48
48
47
47
47
48
47
48
47
48
48
47
47
47
46
45
44
44
43
43
42
42
42
42
41
41
41
40
41
41
42
42
44
45
46
47
48
49
49
50
51
52
52
53
54
54
54
54
54
55
54
54
54
54
53
53
52
52
52
51
50
50
49
48
48
48
47
47
47
47
48
48
49
50
49
50
50
51
52
53
54
55
55
57
57
58
59
60
60
60
60
60
60
59
59
58
57
55
54
53
51
50
48
47
45
44
43
42
41
42
42
43
43
44
45
46
47
48
49
50
51
51
52
52
52
52
51
51
50
50
49
48
46
45
44
43
42
42
42
42
42
43
44
46
48
49
51
53
54
56
57
59
60
61
62
62
61
61
60
60
58
58
57
55
55
54
53
52
51
51
51
51
50
50
50
50
51
51
51
51
50
50
50
49
50
49
49
48
48
48
48
48
48
48
48
48
48
48
48
48
47
48
49
50
51
52
52
53
54
54
54
55
56
57
57
58
59
60
60
61
61
62
63
62
62
62
62
63
62
62
61
60
60
59
58
58
57
56
55
54
54
53
52
52
52
51
51
51
51
51
52
52
54
55
55
55
55
56
57
57
57
58
59
59
60
60
60
61
61
61
61
61
62
62
62
62
62
62
63
62
62
62
63
63
63
63
63
63
64
64
64
64
64
64
64
63
63
62
62
60
59
59
58
58
57
56
55
55
55
54
54
54
55
55
55
55
55
55
56
56
57
57
58
58
59
59
60
62
63
63
64
65
65
66
67
66
67
68
68
69
70
71
70
71
72
72
72
72
73
73
74
74
74
75
75
75
75
75
75
76
76
76
76
75
75
75
75
75
76
76
76
76
76
75
75
75
74
74
73
72
72
71
71
71
70
70
69
69
69
70
70
70
70
70
70
70
71
71
70
71
71
71
71
72
71
71
71
71
71
72
72
72
71
72
71
71
69
69
68
68
68
67
67
66
65
65
64
64
63
63
62
63
62
62
62
62
62
61
62
61
61
61
61
60
60
60
60
60
59
59
58
58
57
57
57
56
55
55
54
53
53
53
53
53
53
53
53
53
53
54
54
54
55
55
56
56
57
56
57
57
57
57
57
57
57
57
58
58
57
58
58
58
59
58
59
59
59
59
60
60
61
61
61
62
62
62
62
63
63
64
64
64
64
63
63
63
63
63
62
61
61
61
61
61
61
61
62
62
63
64
65
66
67
68
70
71
73
73
74
76
76
77
78
78
79
79
79
80
80
81
81
81
81
80
80
80
79
79
78
78
78
78
77
77
77
77
77
77
77
77
77
77
77
77
77
77
77
76
76
77
76
76
76
76
76
76
76
77
77
78
78
79
81
82
84
85
87
88
90
93
94
97
99
101
102
104
107
108
109
110
110
110
109
108
107
104
100
97
93
87
81
75
69
61
52
43
34
23
13
1
-12
-26
-39
-53
-69
-83
-98
-113
-127
-141
-154
-167
-178
-189
-199
-207
-212
-217
-220
-220
-220
-217
-213
-207
-200
-191
-181
-170
-159
-146
-134
-120
-107
-95
-82
-69
-56
-44
-33
-22
-13
-4
4
13
19
26
31
37
42
46
50
53
56
59
62
64
66
69
70
72
73
73
74
75
76
76
77
76
77
76
76
76
76
75
75
75
74
74
74
74
73
73
74
73
73
74
75
75
74
75
75
75
75
76
76
76
76
76
77
76
76
76
76
77
77
77
77
77
77
77
77
76
76
76
76
76
76
76
76
76
77
76
77
77
77
77
77
76
75
75
75
74
73
72
72
71
71
71
71
70
70
69
69
70
70
69
69
70
69
69
70
70
70
71
71
71
71
72
72
73
74
74
74
74
74
74
74
74
73
73
72
71
71
70
70
70
69
69
69
69
69
69
69
69
68
68
68
68
68
67
67
67
67
66
66
65
65
65
65
64
64
63
63
62
62
61
61
60
60
59
58
58
57
57
56
55
55
55
54
54
54
54
53
53
52
52
52
53
52
52
52
52
52
52
52
52
53
53
52
52
52
51
51
50
50
49
49
47
46
45
44
43
42
41
39
39
38
37
37
36
35
35
35
34
34
33
33
32
31
30
29
29
28
27
27
26
25
25
23
23
22
21
20
20
19
17
16
15
15
14
13
12
11
11
11
9
9
8
8
8
8
7
7
6
6
5
5
4
4
4
4
3
3
2
1
1
1
1
0
0
1
1
0
1
0
0
0
0
0
0
0
1
1
2
2
2
3
3
4
4
5
6
6
8
9
10
11
12
13
13
15
16
17
19
20
21
22
24
25
28
29
30
31
33
34
35
36
38
38
39
40
40
41
41
41
42
43
43
44
45
45
45
46
47
48
48
49
49
50
51
51
52
53
54
55
56
57
58
59
60
61
62
63
63
65
65
66
66
66
66
67
67
68
68
68
69
69
69
69
69
70
70
70
71
71
71
71
71
71
70
70
70
70
70
70
70
70
70
70
71
71
71
71
71
71
71
71
70
70
70
70
70
70
70
70
70
70
71
72
72
72
73
73
73
73
73
73
74
74
75
75
75
75
74
74
74
75
74
74
74
74
74
74
73
72
71
71
71
70
69
69
69
67
67
67
67
67
67
67
67
68
68
68
68
69
69
69
69
70
69
69
69
70
70
70
70
70
70
70
70
70
70
70
69
69
69
70
70
70
69
69
69
69
68
68
68
68
68
68
68
68
68
68
69
69
69
69
68
69
69
69
69
69
68
68
68
70
70
70
71
71
71
71
71
71
71
71
71
71
70
70
70
70
69
69
69
68
68
68
67
67
67
68
67
67
68
68
68
68
69
69
69
70
70
70
71
71
71
71
72
72
72
72
72
72
72
72
72
72
72
71
71
71
70
69
70
70
70
69
69
69
69
70
70
70
70
70
70
70
70
70
70
71
71
72
72
72
72
72
72
74
73
74
74
74
74
73
73
73
73
73
73
73
72
72
72
72
72
72
71
71
71
72
72
71
71
71
71
71
71
70
70
70
71
71
71
71
71
71
71
71
71
71
72
72
72
72
72
72
72
73
73
73
72
72
73
73
73
73
73
73
73
73
73
73
73
73
72
73
72
72
72
72
72
71
71
71
70
71
71
71
71
71
72
72
72
72
72
72
72
72
72
72
73
73
73
73
73
73
72
72
72
73
73
73
73
73
73
72
73
73
73
72
72
72
72
72
72
72
72
72
72
72
73
73
72
73
73
73
74
74
74
74
73
73
74
74
74
74
74
74
74
75
75
75
75
74
74
74
74
73
73
73
71
71
71
71
71
71
71
71
71
70
70
71
71
71
71
71
71
71
71
70
71
71
71
71
71
71
71
70
70
70
70
70
70
70
69
69
69
68
68
68
68
68
67
68
68
68
68
67
67
66
67
67
66
65
65
64
64
63
62
62
61
60
60
60
60
59
59
59
59
59
60
60
60
59
60
60
60
59
60
59
59
59
59
60
60
59
59
59
59
59
59
59
59
59
58
57
57
57
57
57
56
56
57
57
57
57
58
58
59
59
60
60
61
61
61
62
63
63
64
64
64
65
65
65
66
66
67
66
67
67
66
67
67
67
67
66
66
66
66
66
65
65
65
65
66
66
67
66
67
67
68
68
69
69
69
71
71
71
72
72
72
72
73
73
74
74
74
74
75
75
75
75
76
76
76
76
75
76
76
76
76
76
76
77
77
77
76
76
76
77
77
76
76
76
76
76
76
75
75
75
75
76
76
76
77
78
79
79
81
82
84
85
87
88
90
92
93
95
97
98
100
101
101
102
102
102
102
100
99
96
93
90
86
80
75
68
62
54
45
36
25
15
3
-9
-22
-36
-51
-66
-81
-96
-112
-127
-142
-157
-170
-183
-196
-206
-216
-224
-231
-236
-239
-239
-239
-236
-233
-226
-219
-210
-199
-188
-176
-164
-150
-137
-123
-109
-95
-82
-69
-56
-44
-33
-23
-14
-4
4
11
18
24
30
35
40
43
47
49
52
54
55
57
58
60
62
62
63
63
64
65
65
66
67
66
67
67
68
67
67
68
68
68
68
68
68
68
68
69
69
70
70
71
71
71
72
73
73
73
73
73
73
73
73
73
73
73
73
73
73
73
73
73
73
73
72
72
72
72
71
71
71
71
70
70
71
71
71
70
70
70
70
70
70
70
69
69
69
70
70
70
69
69
70
69
69
69
69
69
70
69
70
70
70
70
69
69
69
69
68
68
68
68
68
68
68
68
67
67
68
68
68
68
67
67
67
67
67
67
66
66
66
66
65
65
65
65
64
64
64
64
63
63
63
63
63
63
62
62
61
61
61
61
61
61
61
60
60
60
60
60
60
60
60
60
60
60
58
58
58
57
57
56
56
56
56
54
54
54
53
53
53
53
53
53
52
52
51
51
50
50
50
50
49
49
48
48
47
47
46
46
46
44
44
44
42
42
41
40
39
38
38
37
35
35
35
33
33
33
31
31
31
29
29
28
27
26
26
25
24
23
22
21
19
19
17
16
15
15
14
13
12
11
11
10
9
7
6
5
4
3
2
1
-1
-1
-3
-3
-5
-5
-7
-7
-9
-9
-9
-10
-10
-11
-11
-12
-12
-12
-12
-12
-13
-12
-12
-12
-11
-10
-10
-9
-9
-8
-8
-8
-7
-6
-5
-5
-4
-4
-4
-3
-3
-2
0
0
1
2
4
5
6
7
8
9
10
12
12
14
15
16
17
18
20
21
22
23
24
25
26
28
29
30
31
32
33
34
35
36
36
37
39
39
40
41
42
43
44
45
46
48
49
50
50
52
53
53
55
55
56
57
57
58
59
60
60
61
61
61
62
63
63
64
64
64
64
64
64
63
63
63
63
63
63
63
63
63
64
64
64
65
65
65
66
66
66
66
66
66
65
66
66
65
65
65
66
66
65
65
66
66
66
66
67
67
66
67
67
66
66
66
66
66
66
66
66
66
66
66
65
65
66
66
66
66
66
66
66
66
65
65
65
66
66
66
66
66
66
66
67
67
67
66
66
66
66
66
66
65
65
65
65
65
65
65
65
65
65
65
65
65
65
66
66
65
66
66
66
66
66
66
66
66
66
66
66
66
66
66
67
67
66
66
67
66
66
66
66
66
65
65
65
65
65
65
64
64
64
65
65
65
65
65
65
65
65
65
65
65
65
65
66
65
65
65
65
65
66
66
67
67
67
67
67
67
67
66
66
66
66
66
65
65
65
65
65
65
65
65
65
65
65
65
65
65
64
64
64
64
64
64
64
65
65
65
65
65
65
65
66
66
66
66
68
68
68
68
68
67
68
68
68
68
67
67
67
67
66
67
67
67
67
66
66
66
66
66
66
66
65
65
65
65
66
66
66
66
66
66
66
67
67
67
67
67
67
67
67
67
67
67
68
68
68
67
67
67
67
67
67
67
67
67
66
66
66
66
66
66
65
66
66
65
65
65
65
65
65
64
64
64
64
65
65
64
64
63
63
64
63
63
63
63
63
63
63
63
63
63
64
64
65
65
66
66
66
66
67
67
66
66
66
67
67
67
67
67
67
67
67
66
66
66
66
65
65
65
65
64
64
63
63
63
63
63
63
63
63
63
64
63
64
65
65
65
65
66
66
66
67
67
67
66
67
67
67
67
67
68
67
67
67
67
68
67
67
66
66
66
66
66
66
66
66
66
66
66
66
66
66
65
66
66
66
66
66
66
67
66
66
66
66
65
65
65
65
65
64
65
65
65
65
65
66
66
66
66
66
65
65
64
64
64
63
63
63
63
63
63
63
62
62
62
61
61
60
60
59
58
59
58
58
58
57
57
56
57
56
56
56
55
56
55
55
55
54
54
53
53
52
52
52
51
51
50
50
49
50
49
49
49
48
49
48
48
48
48
48
48
48
48
48
48
48
48
48
47
48
48
49
48
49
49
50
49
49
50
50
50
51
51
51
51
51
52
52
52
52
53
53
53
54
54
55
55
55
55
55
55
55
54
54
54
53
53
53
52
53
53
52
52
52
53
53
53
54
54
54
55
55
56
57
58
58
59
60
60
61
62
63
63
63
64
64
65
65
65
65
66
65
65
64
65
65
63
63
63
64
64
64
64
64
64
64
64
64
64
64
64
65
65
65
64
64
64
64
64
64
64
65
65
65
64
64
64
65
65
65
66
66
66
66
67
68
68
69
70
71
73
74
75
77
79
81
83
85
86
87
88
89
90
89
89
88
87
85
82
79
76
72
67
60
54
46
38
28
18
8
-5
-17
-31
-45
-60
-76
-92
-106
-123
-138
-153
-168
-184
-198
-210
-221
-232
-240
-248
-252
-256
-257
-257
-254
-251
-245
-237
-228
-219
-208
-195
-182
-168
-154
-141
-128
-114
-101
-87
-75
-64
-53
-43
-34
-25
-17
-10
-4
2
8
13
17
21
24
27
30
33
35
36
38
39
40
42
43
43
44
44
44
45
45
46
46
46
47
48
48
48
48
48
48
48
48
48
48
48
48
48
48
49
49
49
50
50
50
51
51
51
52
53
53
53
53
54
54
54
54
55
54
54
54
55
55
53
53
53
53
52
51
51
50
49
48
47
46
45
45
44
43
43
43
43
42
42
42
42
42
42
42
42
42
42
41
41
41
42
42
41
41
41
40
41
40
39
39
39
39
39
38
38
38
37
36
36
37
37
36
37
37
36
36
37
37
37
36
37
37
37
36
36
36
36
35
35
35
35
34
33
33
33
33
33
33
33
33
33
32
32
32
31
31
30
30
30
29
29
28
28
27
27
27
26
26
26
25
25
25
23
23
23
22
21
20
20
20
19
18
18
18
18
16
16
16
16
16
15
15
14
14
13
13
12
12
11
11
11
10
10
8
8
7
7
6
6
5
5
3
3
2
1
0
-1
-2
-3
-5
-6
-7
-7
-9
-10
-11
-11
-12
-13
-14
-14
-15
-16
-17
-17
-18
-19
-19
-20
-20
-21
-22
-23
-24
-25
-26
-26
-27
-28
-28
-29
-30
-31
-32
-33
-33
-35
-36
-37
-37
-38
-40
-40
-41
-41
-41
-41
-41
-42
-42
-42
-42
-43
-43
-43
-43
-43
-44
-44
-44
-44
-44
-44
-44
-44
-44
-43
-43
-43
-43
-42
-42
-42
-41
-41
-40
-39
-38
-38
-37
-36
-35
-34
-33
-32
-30
-29
-27
-25
-25
-23
-22
-20
-18
-18
-16
-14
-13
-11
-10
-9
-7
-6
-4
-4
-2
0
1
2
4
5
6
8
8
9
10
11
12
12
13
14
15
16
17
16
17
18
19
20
20
21
21
22
22
23
23
23
23
25
25
26
26
26
27
27
28
29
29
30
30
31
31
32
32
32
32
32
32
32
32
32
32
32
32
32
32
32
32
32
32
32
32
31
31
31
31
31
30
30
30
30
30
29
29
29
29
30
30
31
31
31
31
31
31
32
33
33
33
33
35
35
35
35
35
36
36
36
36
36
36
37
36
36
36
36
36
36
35
35
35
35
35
34
34
34
34
34
35
36
35
35
37
36
36
37
37
36
36
37
37
37
36
36
36
36
35
36
36
36
35
35
36
36
35
35
35
35
35
35
35
35
35
35
35
36
36
37
37
37
37
37
36
37
37
37
36
36
36
36
36
35
35
35
35
35
34
34
35
35
35
35
34
34
35
35
35
35
35
35
35
36
35
35
35
36
36
36
35
35
35
35
36
36
36
36
35
35
35
36
36
35
35
35
35
35
36
36
36
37
37
37
37
37
37
37
37
37
37
38
38
38
37
37
38
38
38
39
38
38
38
39
39
38
38
39
38
38
38
38
38
38
38
38
37
37
37
37
38
38
38
38
38
39
39
38
38
39
38
38
38
39
39
39
39
39
39
39
40
39
39
39
39
39
39
39
39
39
40
40
40
39
39
40
40
40
40
40
40
41
41
41
41
42
41
41
41
41
40
40
41
39
39
39
39
38
39
39
38
38
38
38
38
38
38
37
37
38
38
37
37
37
38
38
38
38
38
39
39
39
40
40
41
41
41
41
42
41
41
42
42
42
41
41
41
41
42
42
42
42
42
43
42
42
42
42
42
42
42
42
41
41
41
41
41
41
41
41
41
41
41
41
41
41
41
40
40
41
41
40
40
41
41
40
41
41
41
42
42
43
43
43
43
44
44
44
44
44
44
44
43
43
43
42
43
43
42
42
41
41
41
41
41
41
41
41
40
40
40
40
40
40
40
40
40
40
40
40
39
39
40
39
39
39
39
39
39
38
38
38
38
37
37
37
37
36
36
35
35
36
35
35
35
