# Simple Text Format
# Sampling Rate (Hz):= 1200.00
# Resolution:= 12
# Labels:= ECG	 V4
# Age:=	23
# Gender:=	Feminino
-159
-161
-162
-162
-163
-164
-166
-168
-170
-171
-173
-174
-176
-178
-180
-183
-184
-186
-188
-190
-192
-195
-196
-198
-200
-202
-204
-207
-208
-210
-211
-213
-215
-217
-219
-221
-222
-223
-224
-226
-228
-229
-231
-231
-232
-233
-234
-236
-237
-238
-239
-239
-240
-242
-242
-243
-244
-243
-244
-245
-246
-247
-247
-247
-247
-248
-249
-249
-250
-249
-249
-250
-250
-251
-251
-251
-252
-252
-252
-252
-253
-253
-253
-254
-253
-253
-254
-254
-255
-254
-255
-255
-255
-255
-255
-256
-256
-256
-256
-257
-257
-257
-257
-257
-256
-256
-257
-257
-258
-257
-257
-256
-257
-257
-258
-257
-257
-256
-257
-257
-257
-257
-257
-257
-257
-257
-257
-257
-257
-257
-257
-257
-257
-257
-258
-258
-257
-257
-257
-258
-258
-258
-258
-257
-256
-256
-257
-257
-258
-257
-257
-256
-257
-256
-257
-257
-256
-256
-256
-257
-257
-257
-257
-256
-255
-255
-256
-256
-256
-256
-255
-255
-256
-256
-256
-256
-256
-255
-255
-256
-256
-256
-256
-256
-255
-255
-256
-256
-256
-255
-254
-255
-255
-255
-256
-255
-255
-255
-255
-255
-256
-256
-256
-255
-255
-254
-255
-255
-256
-256
-255
-255
-255
-256
-255
-255
-256
-255
-255
-255
-255
-255
-256
-255
-255
-254
-255
-255
-255
-255
-255
-254
-255
-255
-255
-255
-255
-255
-255
-254
-255
-255
-255
-254
-255
-254
-254
-255
-255
-255
-255
-255
-255
-255
-255
-255
-256
-256
-255
-256
-256
-256
-256
-256
-256
-256
-257
-257
-257
-256
-256
-256
-256
-256
-257
-257
-256
-256
-256
-256
-257
-256
-257
-256
-256
-256
-256
-257
-256
-257
-256
-257
-256
-257
-257
-257
-257
-257
-257
-258
-258
-258
-258
-257
-258
-258
-257
-259
-258
-259
-257
-258
-258
-259
-259
-260
-259
-259
-258
-259
-259
-260
-259
-259
-259
-259
-260
-260
-261
-260
-260
-260
-260
-261
-261
-261
-260
-260
-260
-261
-261
-262
-262
-262
-261
-261
-262
-262
-262
-262
-262
-261
-262
-261
-262
-262
-261
-261
-262
-261
-261
-262
-261
-261
-261
-261
-261
-261
-262
-261
-261
-260
-260
-261
-261
-261
-260
-260
-260
-261
-261
-261
-261
-261
-260
-259
-260
-260
-261
-260
-260
-259
-259
-260
-260
-260
-261
-261
-260
-260
-261
-261
-261
-260
-260
-260
-261
-261
-261
-261
-261
-261
-261
-261
-262
-262
-262
-261
-262
-262
-262
-262
-262
-262
-261
-261
-262
-262
-262
-261
-261
-261
-261
-262
-262
-262
-262
-263
-262
-263
-263
-263
-263
-263
-263
-262
-263
-264
-263
-263
-262
-263
-262
-263
-263
-263
-263
-263
-262
-262
-263
-263
-263
-263
-262
-262
-263
-263
-263
-262
-262
-262
-262
-263
-263
-263
-263
-262
-262
-262
-264
-263
-263
-262
-262
-262
-263
-263
-263
-263
-263
-262
-263
-263
-264
-263
-263
-262
-263
-262
-262
-263
-263
-262
-262
-261
-262
-263
-263
-263
-262
-262
-261
-262
-263
-264
-263
-263
-262
-263
-263
-264
-264
-264
-263
-263
-263
-264
-264
-263
-263
-263
-263
-263
-264
-264
-263
-263
-263
-263
-263
-264
-263
-263
-262
-263
-263
-263
-263
-262
-262
-262
-262
-263
-263
-263
-262
-262
-262
-263
-263
-262
-263
-263
-262
-262
-263
-263
-263
-263
-262
-263
-262
-263
-263
-263
-263
-262
-262
-262
-262
-262
-262
-262
-262
-261
-261
-262
-261
-262
-260
-261
-261
-261
-261
-261
-261
-261
-261
-261
-262
-261
-262
-261
-261
-261
-262
-262
-263
-262
-261
-262
-262
-262
-262
-262
-261
-261
-261
-261
-262
-262
-262
-261
-261
-260
-260
-260
-261
-260
-259
-259
-259
-260
-259
-260
-259
-258
-257
-257
-258
-257
-257
-256
-255
-255
-255
-256
-255
-255
-255
-254
-254
-254
-254
-254
-253
-253
-252
-252
-252
-252
-252
-251
-250
-250
-250
-250
-250
-249
-249
-248
-248
-248
-248
-247
-246
-246
-245
-245
-245
-244
-244
-243
-243
-242
-243
-243
-243
-242
-242
-242
-242
-242
-243
-243
-244
-244
-243
-244
-245
-246
-247
-247
-247
-247
-248
-248
-249
-249
-250
-249
-250
-251
-251
-251
-251
-251
-251
-252
-252
-253
-253
-252
-252
-252
-252
-253
-253
-252
-252
-252
-252
-253
-253
-254
-253
-253
-254
-255
-255
-256
-256
-256
-256
-256
-256
-257
-257
-257
-257
-257
-258
-258
-258
-258
-258
-258
-258
-258
-259
-259
-259
-259
-259
-259
-258
-259
-259
-259
-258
-259
-258
-259
-259
-259
-259
-258
-258
-259
-259
-258
-258
-258
-258
-258
-258
-259
-258
-258
-258
-258
-257
-258
-258
-258
-258
-258
-258
-257
-258
-258
-258
-257
-256
-257
-256
-257
-257
-256
-256
-256
-256
-256
-256
-256
-255
-255
-254
-254
-255
-255
-254
-254
-254
-254
-254
-254
-255
-255
-255
-254
-254
-254
-253
-253
-252
-250
-248
-246
-244
-241
-238
-232
-227
-222
-215
-209
-202
-193
-184
-175
-165
-155
-144
-134
-123
-110
-99
-87
-76
-64
-52
-41
-30
-20
-12
-4
3
10
16
22
26
29
30
31
30
27
22
16
8
-1
-12
-23
-35
-48
-61
-75
-89
-103
-118
-132
-146
-161
-173
-186
-197
-208
-217
-226
-233
-240
-244
-249
-252
-255
-258
-259
-261
-262
-262
-261
-262
-262
-262
-262
-260
-259
-257
-256
-256
-255
-254
-252
-251
-249
-248
-248
-247
-246
-245
-244
-243
-243
-244
-243
-243
-243
-242
-243
-243
-244
-244
-244
-243
-243
-244
-244
-245
-244
-244
-244
-245
-244
-244
-245
-244
-244
-243
-244
-244
-244
-243
-243
-242
-243
-242
-242
-243
-242
-242
-241
-241
-241
-242
-241
-242
-241
-241
-241
-241
-242
-241
-240
-241
-241
-240
-241
-241
-240
-240
-240
-240
-240
-241
-240
-240
-239
-239
-239
-240
-239
-239
-239
-238
-238
-238
-238
-239
-238
-238
-237
-237
-237
-238
-237
-238
-237
-237
-236
-237
-237
-237
-237
-237
-236
-236
-237
-236
-236
-235
-234
-234
-235
-235
-235
-235
-234
-234
-234
-234
-233
-233
-233
-233
-232
-233
-233
-232
-233
-231
-232
-232
-231
-231
-231
-231
-231
-230
-230
-230
-231
-231
-230
-230
-229
-229
-229
-229
-230
-228
-228
-228
-228
-228
-228
-227
-227
-226
-226
-226
-225
-225
-225
-223
-222
-223
-222
-223
-222
-221
-220
-220
-220
-219
-219
-218
-218
-217
-217
-217
-216
-216
-215
-215
-214
-214
-213
-213
-212
-211
-210
-210
-209
-208
-208
-207
-207
-206
-205
-204
-204
-203
-202
-200
-199
-199
-199
-198
-197
-196
-195
-195
-194
-193
-192
-191
-190
-189
-189
-187
-187
-185
-185
-183
-183
-182
-182
-181
-180
-178
-177
-176
-176
-175
-174
-173
-173
-171
-171
-170
-171
-170
-168
-168
-167
-167
-166
-167
-166
-166
-165
-165
-165
-166
-165
-165
-164
-164
-164
-164
-165
-164
-165
-164
-164
-164
-165
-165
-165
-166
-166
-167
-167
-168
-169
-170
-171
-172
-173
-175
-177
-178
-178
-180
-182
-183
-186
-187
-189
-191
-192
-194
-197
-199
-201
-204
-205
-207
-210
-212
-215
-217
-220
-221
-224
-226
-229
-232
-234
-237
-239
-241
-244
-247
-249
-252
-254
-256
-259
-261
-263
-266
-268
-269
-271
-273
-276
-278
-279
-280
-282
-284
-286
-287
-289
-290
-291
-292
-294
-296
-296
-298
-299
-300
-300
-301
-303
-304
-305
-305
-306
-307
-308
-310
-311
-311
-311
-312
-313
-314
-315
-316
-315
-315
-316
-316
-318
-318
-318
-318
-319
-319
-319
-320
-320
-320
-321
-321
-321
-323
-323
-323
-323
-324
-324
-324
-325
-326
-326
-326
-326
-326
-327
-327
-327
-328
-327
-327
-327
-328
-328
-328
-328
-327
-328
-327
-329
-329
-329
-329
-328
-328
-328
-330
-330
-330
-329
-330
-330
-331
-331
-331
-331
-331
-331
-331
-331
-331
-332
-332
-331
-331
-332
-332
-333
-332
-332
-332
-332
-333
-333
-333
-333
-332
-333
-332
-333
-333
-333
-333
-332
-332
-333
-333
-333
-333
-332
-333
-333
-333
-333
-333
-333
-333
-332
-333
-333
-333
-334
-332
-333
-333
-332
-334
-334
-334
-333
-333
-333
-333
-334
-334
-334
-333
-333
-333
-334
-334
-334
-333
-334
-334
-334
-334
-334
-334
-334
-333
-333
-334
-333
-333
-333
-333
-333
-333
-333
-334
-334
-332
-332
-332
-333
-333
-334
-333
-333
-333
-333
-333
-334
-334
-333
-333
-332
-333
-333
-334
-334
-333
-333
-333
-333
-334
-334
-333
-333
-334
-334
-334
-334
-334
-334
-334
-333
-333
-333
-334
-334
-334
-333
-333
-334
-334
-334
-334
-334
-334
-333
-333
-334
-334
-334
-333
-333
-333
-333
-333
-334
-333
-333
-333
-333
-333
-334
-334
-334
-334
-334
-335
-335
-335
-335
-335
-335
-335
-335
-336
-335
-336
-336
-336
-337
-337
-337
-337
-337
-336
-337
-338
-338
-338
-338
-338
-338
-339
-339
-340
-340
-339
-339
-340
-341
-341
-342
-342
-342
-341
-342
-342
-342
-342
-343
-343
-342
-343
-343
-344
-344
-344
-343
-343
-344
-344
-345
-345
-345
-344
-344
-344
-345
-345
-345
-344
-344
-345
-345
-345
-345
-344
-344
-344
-345
-345
-345
-345
-345
-344
-344
-345
-346
-346
-345
-345
-344
-345
-345
-345
-345
-344
-344
-344
-344
-345
-345
-345
-345
-345
-344
-345
-345
-345
-346
-345
-345
-346
-346
-346
-347
-347
-346
-346
-347
-348
-347
-347
-347
-347
-347
-348
-348
-348
-347
-347
-347
-347
-347
-348
-347
-347
-348
-348
-348
-348
-348
-348
-348
-348
-348
-349
-349
-349
-348
-348
-347
-348
-349
-349
-349
-348
-347
-347
-348
-348
-349
-348
-347
-347
-348
-348
-349
-348
-348
-348
-347
-348
-348
-348
-348
-347
-347
-347
-348
-348
-348
-348
-347
-347
-347
-347
-347
-347
-347
-346
-346
-347
-347
-347
-347
-347
-347
-347
-347
-347
-347
-347
-346
-346
-346
-347
-347
-347
-347
-346
-346
-346
-346
-346
-346
-346
-346
-346
-345
-345
-346
-345
-345
-345
-345
-345
-346
-346
-345
-345
-345
-345
-345
-345
-345
-345
-345
-346
-345
-347
-346
-346
-346
-346
-346
-346
-347
-347
-346
-346
-346
-346
-347
-347
-346
-346
-346
-346
-346
-347
-346
-346
-346
-346
-346
-346
-346
-346
-346
-346
-346
-346
-346
-347
-347
-346
-346
-346
-346
-346
-346
-346
-346
-345
-345
-345
-345
-345
-344
-344
-343
-343
-343
-343
-343
-342
-341
-341
-341
-342
-341
-341
-340
-339
-339
-339
-339
-339
-339
-338
-337
-338
-338
-338
-337
-336
-336
-335
-336
-336
-336
-336
-335
-335
-335
-335
-335
-335
-335
-334
-334
-334
-334
-333
-333
-332
-332
-331
-330
-330
-330
-329
-328
-328
-327
-326
-327
-327
-326
-325
-325
-325
-326
-326
-326
-325
-325
-326
-326
-327
-328
-329
-329
-329
-329
-330
-331
-332
-332
-332
-331
-332
-333
-333
-334
-334
-334
-334
-335
-335
-335
-336
-336
-336
-336
-337
-337
-337
-337
-337
-337
-337
-337
-339
-339
-339
-338
-339
-339
-340
-340
-341
-341
-340
-341
-341
-342
-342
-343
-343
-342
-343
-343
-344
-344
-344
-343
-344
-344
-345
-345
-346
-345
-345
-345
-345
-346
-346
-346
-346
-345
-346
-346
-346
-346
-346
-346
-346
-346
-347
-346
-346
-346
-346
-346
-346
-347
-347
-346
-346
-346
-346
-346
-347
-347
-346
-346
-345
-346
-346
-346
-346
-345
-345
-345
-345
-345
-345
-345
-344
-344
-344
-344
-344
-344
-344
-344
-343
-343
-344
-343
-344
-344
-342
-343
-343
-343
-344
-343
-342
-343
-342
-343
-342
-341
-341
-340
-339
-337
-336
-333
-330
-326
-322
-317
-313
-307
-300
-292
-283
-274
-265
-255
-244
-233
-222
-209
-197
-184
-171
-159
-146
-133
-120
-109
-98
-88
-79
-70
-61
-54
-48
-43
-39
-37
-34
-35
-38
-43
-48
-57
-66
-76
-87
-100
-115
-129
-144
-160
-174
-190
-206
-222
-237
-252
-266
-278
-290
-301
-311
-320
-327
-333
-338
-342
-346
-348
-351
-351
-352
-352
-352
-353
-352
-352
-352
-351
-349
-349
-348
-347
-346
-345
-343
-342
-342
-341
-340
-339
-338
-337
-336
-336
-335
-335
-334
-334
-333
-334
-334
-334
-333
-333
-332
-333
-333
-334
-334
-333
-333
-333
-333
-333
-333
-333
-333
-332
-333
-332
-332
-333
-332
-332
-332
-332
-332
-333
-332
-332
-332
-332
-332
-332
-332
-332
-332
-331
-331
-332
-331
-331
-330
-330
-330
-330
-330
-330
-330
-329
-328
-327
-328
-328
-328
-327
-327
-327
-326
-326
-326
-326
-326
-326
-326
-326
-326
-325
-325
-325
-324
-324
-324
-324
-324
-324
-324
-324
-323
-323
-323
-323
-323
-323
-323
-322
-323
-323
-323
-322
-321
-322
-321
-321
-321
-321
-320
-320
-319
-319
-320
-319
-319
-318
-318
-317
-318
-318
-318
-316
-316
-316
-316
-316
-317
-316
-315
-315
-314
-314
-315
-314
-313
-313
-313
-312
-312
-312
-312
-311
-310
-309
-309
-309
-309
-309
-307
-307
-307
-306
-306
-306
-305
-305
-304
-304
-303
-304
-304
-303
-302
-301
-301
-301
-302
-301
-300
-299
-299
-299
-299
-299
-298
-298
-296
-296
-296
-296
-295
-294
-293
-292
-291
-291
-290
-290
-289
-287
-286
-287
-286
-285
-284
-282
-282
-281
-280
-280
-279
-277
-276
-275
-275
-274
-273
-272
-270
-269
-268
-268
-267
-266
-265
-263
-262
-261
-260
-259
-259
-257
-256
-255
-253
-253
-252
-251
-250
-249
-247
-246
-246
-246
-244
-243
-242
-240
-240
-239
-239
-237
-236
-235
-234
-234
-233
-232
-230
-229
-228
-228
-227
-226
-226
-224
-224
-223
-223
-222
-222
-221
-221
-220
-220
-219
-219
-219
-218
-217
-217
-217
-218
-218
-218
-218
-217
-218
-219
-220
-220
-221
-221
-222
-223
-224
-225
-226
-227
-228
-229
-231
-233
-234
-235
-237
-239
-240
-242
-245
-247
-249
-250
-252
-253
-256
-258
-261
-262
-264
-266
-268
-271
-273
-274
-275
-277
-280
-282
-284
-286
-287
-289
-290
-291
-293
-295
-297
-298
-299
-300
-301
-303
-304
-305
-307
-306
-308
-309
-311
-311
-312
-313
-314
-314
-315
-317
-317
-317
-318
-318
-318
-320
-321
-321
-322
-321
-321
-323
-323
-324
-324
-324
-324
-325
-326
-326
-326
-327
-326
-327
-327
-327
-328
-327
-327
-327
-328
-328
-329
-329
-328
-328
-327
-327
-328
-328
-328
-328
-327
-327
-327
-327
-328
-328
-328
-327
-327
-327
-328
-328
-328
-328
-327
-327
-327
-327
-328
-327
-327
-327
-328
-328
-328
-328
-327
-327
-327
-327
-328
-329
-328
-327
-328
-328
-328
-328
-328
-328
-327
-327
-327
-327
-328
-328
-327
-327
-327
-327
-327
-327
-326
-326
-326
-325
-326
-326
-326
-326
-325
-326
-325
-326
-326
-326
-325
-325
-325
-325
-325
-325
-326
-325
-325
-325
-326
-326
-326
-325
-324
-325
-325
-325
-325
-325
-325
-324
-324
-324
-324
-324
-323
-323
-322
-322
-323
-323
-322
-322
-321
-321
-322
-322
-322
-322
-321
-321
-321
-322
-322
-322
-321
-321
-321
-321
-321
-322
-321
-320
-320
-319
-320
-320
-319
-320
-319
-319
-319
-319
-320
-319
-319
-318
-318
-319
-319
-320
-320
-319
-319
-319
-320
-320
-320
-320
-319
-319
-319
-319
-320
-320
-319
-319
-319
-318
-318
-319
-319
-318
-319
-319
-318
-318
-319
-319
-319
-319
-319
-319
-319
-320
-319
-319
-319
-319
-319
-320
-320
-320
-320
-320
-320
-321
-320
-320
-320
-320
-320
-321
-321
-321
-321
-321
-320
-320
-321
-321
-321
-321
-321
-321
-321
-323
-322
-322
-322
-322
-322
-323
-323
-323
-322
-322
-322
-322
-322
-322
-322
-322
-321
-321
-321
-321
-322
-321
-321
-321
-321
-321
-321
-321
-321
-320
-320
-321
-320
-321
-321
-320
-320
-320
-321
-321
-322
-322
-321
-321
-321
-321
-321
-322
-321
-321
-321
-321
-321
-321
-321
-321
-320
-320
-321
-321
-320
-320
-320
-320
-320
-320
-320
-320
-320
-320
-319
-319
-320
-320
-320
-320
-319
-319
-320
-320
-320
-320
-320
-320
-320
-320
-320
-320
-320
-320
-319
-319
-320
-320
-320
-320
-319
-320
-320
-320
-321
-320
-320
-319
-319
-320
-320
-320
-320
-319
-319
-319
-319
-319
-319
-319
-318
-318
-318
-318
-319
-318
-318
-317
-317
-317
-318
-317
-317
-317
-316
-316
-316
-317
-317
-316
-316
-317
-316
-317
-317
-317
-317
-316
-316
-317
-317
-317
-316
-316
-316
-316
-316
-317
-316
-316
-316
-316
-317
-317
-316
-316
-316
-316
-316
-316
-317
-317
-316
-316
-315
-315
-316
-316
-316
-316
-316
-315
-315
-316
-315
-316
-315
-315
-315
-315
-315
-316
-315
-315
-314
-314
-315
-315
-314
-314
-314
-314
-315
-314
-315
-315
-314
-314
-313
-314
-313
-313
-313
-313
-312
-312
-313
-313
-313
-312
-312
-313
-312
-312
-313
-313
-312
-312
-312
-312
-312
-312
-311
-311
-310
-310
-310
-310
-310
-310
-309
-309
-310
-310
-309
-309
-309
-308
-308
-308
-309
-308
-308
-307
-307
-307
-306
-307
-307
-305
-305
-305
-305
-304
-304
-304
-303
-302
-302
-302
-303
-302
-302
-300
-300
-300
-300
-300
-300
-299
-298
-298
-298
-298
-298
-297
-296
-296
-295
-295
-295
-295
-295
-293
-293
-293
-293
-292
-292
-292
-291
-292
-291
-292
-292
-292
-292
-292
-292
-293
-294
-294
-294
-294
-295
-295
-296
-297
-297
-297
-297
-298
-298
-299
-299
-300
-299
-299
-299
-300
-301
-300
-300
-300
-299
-299
-299
-300
-300
-299
-298
-299
-299
-299
-299
-299
-299
-299
-299
-299
-300
-300
-300
-299
-300
-300
-300
-301
-301
-301
-301
-301
-302
-302
-303
-303
-302
-302
-302
-303
-303
-303
-302
-302
-302
-301
-302
-302
-302
-302
-301
-301
-301
-301
-302
-302
-302
-301
-301
-302
-302
-302
-302
-301
-301
-301
-301
-302
-302
-301
-301
-300
-301
-301
-301
-301
-300
-300
-299
-299
-299
-299
-298
-298
-298
-298
-298
-297
-297
-297
-297
-296
-296
-296
-296
-296
-296
-296
-296
-295
-295
-295
-295
-295
-295
-295
-295
-295
-295
-295
-295
-294
-294
-294
-293
-292
-291
-289
-287
-285
-283
-280
-276
-272
-266
-261
-255
-248
-240
-231
-222
-212
-203
-192
-181
-169
-157
-145
-132
-121
-109
-96
-84
-71
-59
-49
-40
-30
-23
-14
-7
-1
4
8
10
13
13
11
6
0
-7
-16
-26
-37
-49
-62
-76
-90
-105
-120
-135
-151
-166
-181
-196
-209
-222
-233
-244
-254
-263
-270
-276
-281
-284
-287
-291
-293
-294
-295
-294
-295
-294
-295
-294
-294
-293
-291
-290
-289
-288
-286
-285
-283
-282
-281
-280
-280
-278
-277
-276
-275
-275
-275
-275
-274
-274
-273
-273
-273
-274
-273
-273
-272
-272
-272
-272
-272
-272
-272
-272
-271
-272
-272
-273
-272
-271
-271
-271
-271
-271
-271
-271
-270
-270
-270
-269
-270
-269
-269
-269
-268
-269
-268
-269
-268
-267
-267
-267
-266
-267
-266
-266
-265
-265
-264
-264
-265
-264
-264
-262
-263
-262
-263
-262
-262
-262
-262
-262
-261
-261
-261
-261
-260
-260
-260
-260
-260
-260
-260
-260
-259
-259
-260
-260
-260
-259
-259
-258
-258
-258
-258
-258
-257
-257
-257
-256
-257
-256
-256
-255
-255
-255
-255
-255
-255
-253
-253
-253
-253
-252
-252
-253
-252
-251
-251
-251
-251
-250
-250
-250
-250
-249
-250
-249
-249
-249
-247
-247
-248
-248
-247
-247
-246
-245
-245
-245
-245
-245
-244
-244
-243
-243
-243
-243
-242
-242
-241
-240
-240
-241
-241
-240
-239
-238
-238
-238
-238
-238
-237
-236
-236
-235
-235
-235
-235
-233
-233
-232
-232
-232
-232
-230
-230
-229
-228
-229
-229
-228
-227
-226
-225
-224
-224
-224
-223
-222
-220
-219
-219
-218
-218
-217
-216
-214
-214
-213
-212
-212
-211
-209
-208
-208
-208
-207
-206
-204
-203
-202
-202
-201
-200
-199
-198
-196
-196
-194
-194
-193
-192
-190
-189
-188
-188
-188
-186
-184
-184
-182
-182
-181
-180
-179
-178
-177
-177
-175
-175
-174
-173
-172
-171
-171
-171
-170
-169
-168
-167
-166
-166
-165
-165
-164
-163
-162
-162
-162
-161
-160
-159
-159
-159
-158
-158
-159
-158
-158
-157
-157
-158
-158
-159
-158
-158
-159
-159
-161
-161
-162
-163
-163
-164
-165
-167
-168
-170
-171
-172
-173
-175
-176
-179
-180
-181
-183
-185
-187
-190
-192
-193
-195
-197
-200
-201
-204
-206
-207
-210
-212
-213
-216
-218
-220
-221
-222
-224
-226
-228
-229
-230
-232
-233
-234
-236
-238
-239
-240
-241
-242
-244
-245
-247
-247
-247
-248
-249
-250
-251
-252
-252
-253
-253
-254
-255
-256
-256
-257
-257
-257
-258
-259
-260
-259
-259
-260
-260
-260
-260
-261
-261
-261
-261
-261
-262
-262
-262
-263
-262
-263
-263
-263
-263
-263
-262
-263
-263
-263
-264
-264
-263
-263
-263
-264
-264
-265
-265
-264
-264
-264
-265
-265
-264
-265
-265
-264
-264
-265
-265
-265
-265
-265
-264
-265
-265
-266
-266
-265
-265
-265
-265
-266
-265
-266
-266
-265
-265
-266
-266
-266
-265
-265
-265
-266
-266
-265
-265
-265
-265
-265
-265
-265
-266
-266
-266
-265
-265
-265
-265
-265
-265
-265
-264
-264
-265
-265
-265
-264
-264
-264
-264
-265
-264
-264
-263
-263
-263
-263
-264
-265
-264
-264
-263
-264
-264
-264
-264
-263
-263
-263
-264
-264
-264
-263
-263
-263
-263
-263
-263
-263
-263
-263
-262
-263
-263
-263
-263
-262
-262
-262
-262
-263
-262
-262
-262
-261
-261
-262
-262
-263
-262
-261
-261
-262
-262
-262
-262
-261
-261
-261
-261
-261
-261
-261
-261
-260
-260
-261
-260
-260
-259
-259
-259
-259
-259
-259
-260
-259
-258
-258
-259
-259
-259
-259
-258
-257
-258
-258
-259
-258
-258
-258
-258
-258
-258
-259
-259
-259
-258
-258
-259
-259
-260
-259
-259
-259
-259
-261
-262
-263
-263
-263
-264
-266
-267
-269
-271
-271
-273
-274
-276
-279
-281
-282
-283
-285
-286
-288
-291
-293
-293
-295
-296
-298
-299
-301
-302
-302
-303
-304
-306
-306
-307
-307
-308
-308
-308
-309
-310
-311
-311
-310
-312
-312
-313
-313
-314
-314
-314
-315
-315
-316
-316
-316
-316
-317
-317
-317
-318
-318
-318
-318
-318
-319
-319
-320
-320
-319
-319
-319
-320
-321
-321
-321
-321
-320
-321
-322
-322
-323
-323
-322
-322
-323
-323
-324
-324
-325
-325
-325
-325
-326
-326
-325
-326
-326
-326
-326
-327
-327
-327
-327
-327
-327
-327
-328
-328
-328
-328
-328
-328
-329
-330
-329
-329
-328
-328
-330
-330
-329
-329
-329
-329
-330
-330
-330
-330
-330
-330
-330
-330
-331
-331
-331
-330
-330
-330
-331
-331
-331
-331
-330
-330
-331
-332
-332
-332
-331
-331
-331
-331
-332
-333
-332
-332
-331
-332
-332
-333
-333
-332
-332
-332
-333
-333
-333
-333
-333
-333
-332
-332
-334
-334
-333
-333
-332
-332
-333
-333
-334
-333
-332
-333
-333
-334
-333
-333
-333
-333
-333
-333
-334
-333
-334
-333
-333
-333
-333
-334
-333
-333
-333
-333
-332
-333
-333
-333
-333
-333
-332
-332
-334
-333
-333
-332
-333
-333
-333
-333
-333
-333
-332
-333
-332
-333
-333
-333
-333
-332
-332
-333
-333
-333
-332
-332
-331
-331
-332
-332
-332
-332
-332
-331
-332
-332
-331
-331
-331
-331
-331
-332
-332
-332
-331
-331
-331
-331
-331
-331
-331
-331
-331
-330
-331
-331
-330
-330
-330
-330
-330
-330
-330
-330
-330
-330
-330
-330
-330
-330
-331
-331
-330
-330
-330
-330
-331
-331
-330
-330
-329
-330
-330
-330
-330
-329
-329
-329
-329
-329
-329
-329
-327
-328
-328
-328
-329
-329
-328
-327
-327
-327
-327
-327
-327
-326
-326
-326
-326
-327
-327
-326
-326
-326
-326
-326
-326
-325
-325
-325
-325
-325
-325
-325
-325
-324
-324
-324
-324
-324
-324
-324
-323
-323
-323
-324
-323
-323
-323
-322
-323
-323
-323
-323
-323
-322
-322
-322
-323
-323
-323
-323
-322
-321
-322
-322
-322
-322
-322
-321
-322
-322
-322
-322
-321
-321
-320
-320
-321
-321
-320
-320
-320
-320
-319
-319
-320
-320
-319
-317
-317
-318
-318
-317
-317
-316
-316
-316
-316
-316
-316
-316
-314
-315
-314
-314
-314
-313
-313
-312
-312
-312
-312
-311
-311
-310
-309
-309
-309
-309
-308
-308
-307
-306
-307
-306
-307
-305
-305
-304
-304
-303
-304
-304
-303
-302
-301
-301
-301
-301
-300
-299
-299
-298
-298
-298
-298
-298
-297
-297
-296
-297
-297
-297
-297
-297
-297
-297
-298
-299
-300
-300
-300
-301
-301
-301
-302
-302
-303
-303
-304
-304
-305
-306
-305
-305
-304
-304
-305
-306
-306
-306
-305
-306
-306
-307
-306
-306
-307
-306
-307
-307
-307
-307
-307
-307
-306
-307
-307
-307
-308
-307
-307
-308
-307
-308
-308
-308
-309
-308
-308
-308
-310
-310
-309
-309
-309
-310
-309
-311
-310
-310
-310
-310
-310
-310
-310
-310
-310
-310
-310
-310
-310
-310
-309
-309
-309
-308
-309
-309
-309
-309
-308
-308
-308
-309
-309
-309
-308
-308
-307
-308
-308
-308
-307
-307
-307
-307
-307
-307
-307
-306
-306
-305
-306
-305
-306
-306
-305
-305
-305
-304
-305
-305
-305
-305
-304
-303
-304
-304
-304
-304
-304
-303
-303
-304
-305
-304
-303
-302
-303
-302
-302
-301
-299
-297
-294
-291
-288
-284
-280
-275
-269
-262
-255
-248
-240
-231
-222
-211
-201
-190
-180
-168
-157
-144
-133
-120
-109
-99
-87
-76
-67
-57
-49
-42
-36
-30
-25
-20
-17
-16
-16
-17
-20
-24
-31
-39
-49
-59
-71
-82
-94
-108
-122
-136
-150
-165
-180
-193
-206
-220
-233
-244
-254
-264
-271
-278
-285
-291
-295
-298
-301
-302
-304
-305
-306
-307
-306
-306
-305
-305
-304
-304
-302
-301
-300
-298
-297
-296
-295
-294
-292
-291
-291
-290
-290
-289
-289
-287
-287
-287
-287
-287
-287
-286
-286
-286
-285
-286
-286
-286
-285
-285
-285
-286
-286
-286
-285
-285
-284
-285
-285
-285
-285
-284
-283
-283
-284
-284
-284
-284
-283
-282
-283
-284
-283
-283
-283
-282
-282
-282
-282
-282
-281
-281
-281
-281
-281
-281
-281
-281
-280
-281
-280
-281
-281
-280
-281
-279
-279
-280
-280
-280
-279
-279
-278
-278
-279
-279
-278
-278
-278
-278
-278
-278
-278
-277
-277
-276
-277
-277
-277
-277
-276
-276
-276
-276
-276
-276
-276
-276
-274
-275
-275
-275
-275
-274
-273
-273
-273
-272
-273
-272
-273
-271
-271
-271
-271
-271
-271
-271
-269
-269
-269
-270
-269
-269
-268
-268
-267
-268
-268
-267
-268
-267
-266
-266
-266
-266
-266
-265
-265
-265
-265
-265
-266
-266
-265
-263
-264
-264
-263
-264
-263
-262
-261
-261
-261
-261
-261
-260
-258
-258
-258
-257
-257
-257
-256
-255
-255
-255
-255
-254
-254
-252
-252
-252
-251
-251
-251
-249
-249
-248
-248
-247
-248
-246
-246
-245
-244
-244
-244
-243
-242
-241
-240
-239
-238
-238
-237
-236
-235
-234
-233
-232
-233
-232
-230
-229
-228
-228
-228
-226
-225
-224
-223
-222
-222
-221
-220
-219
-218
-216
-216
-215
-214
-213
-212
-210
-209
-208
-208
-206
-205
-204
-203
-201
-201
-200
-199
-198
-197
-196
-195
-195
-194
-193
-191
-191
-190
-190
-189
-189
-188
-186
-185
-184
-184
-184
-183
-183
-181
-180
-181
-179
-180
-178
-178
-177
-177
-177
-177
-176
-176
-176
-176
-176
-175
-177
-177
-176
-177
-176
-178
-178
-179
-180
-181
-181
-182
-183
-184
-185
-187
-187
-188
-190
-192
-194
-195
-196
-197
-199
-201
-202
-205
-206
-208
-210
-211
-214
-215
-218
-219
-221
-222
-224
-226
-228
-230
-231
-232
-234
-236
-238
-240
-241
-242
-244
-245
-246
-247
-249
-250
-251
-252
-252
-254
-255
-256
-256
-257
-258
-259
-259
-261
-261
-262
-262
-262
-263
-264
-265
-264
-266
-265
-265
-266
-267
-267
-267
-267
-267
-268
-268
-269
-269
-268
-268
-269
-269
-269
-270
-270
-269
-269
-269
-270
-270
-271
-270
-270
-269
-270
-270
-270
-270
-270
-269
-269
-270
-270
-270
-270
-270
-269
-270
-270
-271
-270
-271
-270
-270
-270
-271
-271
-271
-271
-271
-270
-271
-272
-272
-272
-272
-271
-271
-271
-271
-271
-271
-270
-271
-270
-271
-271
-271
-270
-270
-270
-271
-271
-271
-271
-270
-269
-269
-270
-270
-270
-269
-269
-269
-268
-269
-269
-269
-269
-268
-268
-268
-269
-268
-269
-268
-268
-267
-268
-268
-268
-268
-268
-267
-268
-267
-268
-268
-267
-267
-267
-267
-267
-267
-266
-266
-266
-266
-266
-266
-266
-266
-265
-265
-265
-265
-266
-266
-265
-265
-264
-265
-265
-264
-265
-264
-263
-263
-264
-264
-264
-263
-263
-262
-263
-262
-263
-263
-262
-262
-262
-263
-263
-263
-263
-262
-262
-262
-262
-262
-263
-262
-262
-262
-261
-262
-262
-262
-262
-262
-262
-262
-262
-263
-262
-262
-261
-262
-262
-262
-262
-261
-261
-262
-261
-262
-262
-262
-262
-262
-261
-262
-262
-263
-262
-262
-262
-262
-262
-262
-262
-262
-261
-262
-262
-262
-262
-262
-263
-262
-261
-262
-262
-263
-262
-262
-261
-262
-262
-262
-263
-262
-262
-263
-262
-263
-263
-263
-264
-263
-264
-263
-264
-264
-264
-264
-264
-264
-264
-264
-264
-264
-263
-264
-264
-264
-264
-264
-264
-263
-264
-264
-264
-264
-264
-264
-264
-264
-264
-265
-264
-265
-263
-264
-264
-264
-265
-265
-265
-265
-264
-265
-265
-265
-265
-265
-264
-264
-265
-266
-267
-266
-267
-268
-269
-270
-270
-271
-273
-274
-274
-276
-278
-280
-280
-282
-282
-283
-286
-287
-289
-290
-291
-292
-293
-294
-296
-296
-297
-297
-298
-299
-300
-301
-301
-301
-302
-302
-302
-302
-303
-304
-303
-304
-304
-304
-305
-306
-305
-305
-305
-306
-307
-307
-307
-307
-306
-308
-307
-308
-308
-308
-308
-308
-308
-309
-309
-309
-308
-309
-308
-309
-309
-309
-309
-309
-309
-309
-309
-310
-309
-310
-309
-310
-309
-310
-310
-311
-311
-310
-311
-311
-311
-312
-312
-312
-311
-312
-312
-312
-313
-313
-312
-313
-312
-313
-314
-314
-314
-313
-313
-313
-314
-313
-314
-313
-313
-312
-312
-313
-313
-313
-312
-312
-312
-312
-312
-312
-312
-312
-311
-312
-312
-313
-312
-312
-311
-311
-312
-312
-313
-312
-312
-311
-312
-312
-313
-312
-312
-312
-312
-312
-312
-312
-312
-312
-312
-312
-311
-312
-312
-312
-312
-311
-311
-311
-311
-311
-311
-311
-311
-311
-312
-311
-312
-310
-311
-310
-310
-311
-311
-311
-310
-310
-311
-311
-311
-311
-311
-311
-311
-310
-311
-311
-310
-310
-310
-310
-311
-311
-312
-311
-311
-310
-311
-311
-311
-311
-311
-310
-311
-310
-310
-311
-310
-310
-310
-309
-309
-309
-309
-309
-309
-308
-308
-309
-308
-308
-308
-307
-307
-306
-307
-308
-307
-306
-306
-305
-306
-306
-306
-306
-306
-305
-305
-305
-305
-305
-305
-305
-305
-305
-306
-305
-305
-305
-305
-304
-304
-304
-304
-304
-303
-303
-303
-304
-304
-303
-303
-302
-301
-302
-302
-301
-301
-300
-299
-299
-299
-299
-299
-298
-297
-297
-297
-296
-297
-296
-296
-295
-295
-296
-295
-295
-294
-293
-293
-293
-293
-293
-293
-292
-292
-291
-291
-291
-290
-290
-290
-289
-289
-289
-290
-289
-288
-287
-287
-286
-286
-287
-286
-286
-284
-285
-285
-285
-284
-284
-284
-284
-284
-284
-285
-285
-286
-286
-286
-286
-286
-288
-288
-289
-289
-289
-290
-291
-291
-292
-291
-291
-291
-292
-292
-293
-292
-292
-293
-293
-292
-293
-292
-293
-292
-293
-292
-293
-293
-293
-293
-293
-293
-294
-294
-293
-294
-294
-294
-295
-295
-296
-296
-296
-296
-295
-296
-297
-297
-297
-298
-298
-297
-298
-298
-299
-298
-298
-297
-298
-298
-298
-298
-299
-297
-297
-297
-298
-298
-298
-298
-298
-297
-297
-297
-298
-297
-297
-296
-297
-297
-297
-297
-296
-296
-296
-296
-296
-296
-296
-296
-295
-295
-295
-295
-295
-294
-294
-294
-294
-293
-293
-294
-293
-293
-293
-292
-293
-293
-293
-292
-292
-292
-293
-293
-292
-292
-291
-291
-291
-291
-291
-292
-292
-290
-290
-290
-291
-290
-291
-289
-288
-288
-286
-286
-284
-282
-278
-274
-270
-265
-261
-255
-248
-240
-231
-223
-214
-204
-193
-183
-171
-159
-148
-136
-124
-112
-99
-86
-74
-63
-53
-44
-35
-26
-19
-13
-7
-2
2
4
6
5
3
-1
-6
-14
-21
-31
-42
-55
-68
-81
-95
-109
-123
-137
-152
-167
-182
-195
-208
-221
-232
-242
-252
-260
-267
-273
-278
-282
-286
-289
-291
-292
-293
-294
-294
-295
-295
-295
-295
-293
-293
-292
-291
-290
-288
-287
-285
-285
-284
-283
-282
-281
-279
-279
-279
-278
-277
-277
-275
-275
-276
-276
-276
-275
-275
-275
-275
-275
-275
-276
-276
-275
-275
-275
-275
-275
-275
-275
-275
-275
-275
-275
-275
-275
-274
-274
-274
-275
-275
-275
-274
-274
-274
-274
-274
-274
-275
-274
-274
-273
-273
-273
-273
-273
-272
-271
-271
-272
-272
-271
-271
-271
-271
-271
-271
-270
-270
-270
-269
-269
-269
-269
-269
-269
-269
-267
-267
-267
-267
-267
-266
-266
-265
-265
-266
-265
-265
-264
-264
-264
-264
-264
-264
-263
-263
-263
-263
-263
-264
-263
-263
-262
-262
-262
-263
-262
-262
-261
-261
-261
-261
-261
-261
-260
-260
-260
-260
-260
-259
-259
-259
-258
-258
-258
-258
-258
-258
-257
-257
-256
-255
-256
-256
-255
-255
-255
-253
-254
-254
-254
-253
-252
-252
-252
-252
-252
-252
-251
-250
-250
-250
-250
-250
-249
-249
-248
-248
-247
-247
-247
-246
-246
-245
-245
-245
-244
-244
-243
-243
-242
-241
-242
-241
-241
-240
-239
-238
-238
-238
-237
-237
-236
-235
-234
-233
-233
-232
-232
-230
-229
-230
-229
-228
-227
-227
-226
-225
-225
-225
-224
-223
-221
-221
-220
-219
-219
-218
-217
-215
-215
-214
-214
-213
-212
-211
-209
-208
-207
-206
-205
-204
-203
-201
-201
-200
-199
-198
-197
-195
-194
-193
-192
-191
-190
-188
-187
-185
-184
-184
-183
-181
-180
-179
-178
-178
-176
-176
-175
-173
-172
-172
-172
-171
-170
-169
-168
-168
-167
-167
-166
-165
-164
-163
-162
-163
-163
-161
-160
-160
-159
-160
-160
-159
-159
-158
-158
-158
-158
-159
-159
-159
-159
-158
-160
-160
-161
-162
-162
-162
-164
-165
-167
-169
-169
-170
-171
-173
-175
-178
-179
-181
-183
-184
-187
-190
-191
-193
-195
-197
-199
-201
-203
-205
-207
-208
-211
-212
-214
-216
-218
-219
-220
-222
-225
-226
-228
-230
-230
-231
-233
-235
-237
-239
-239
-240
-241
-243
-243
-245
-245
-246
-247
-248
-248
-249
-251
-250
-251
-251
-251
-253
-253
-254
-255
-254
-254
-254
-255
-256
-256
-256
-256
-255
-256
-257
-256
-257
-257
-257
-256
-257
-257
-258
-257
-257
-257
-257
-257
-257
-258
-257
-257
-257
-257
-257
-258
-257
-257
-257
-257
-257
-256
-257
-257
-257
-256
-255
-256
-256
-257
-256
-256
-256
-256
-256
-257
-256
-256
-256
-256
-256
-256
-257
-256
-256
-255
-256
-256
-256
-256
-256
-255
-255
-255
-256
-256
-256
-255
-255
-255
-256
-256
-255
-256
-255
-255
-255
-255
-255
-256
-255
-255
-254
-255
-255
-256
-256
-255
-255
-254
-255
-255
-255
-255
-255
-255
-254
-255
-255
-255
-255
-254
-253
-253
-253
-254
-254
-253
-253
-252
-253
-253
-252
-253
-251
-251
-251
-251
-251
-252
-251
-251
-250
-250
-251
-251
-251
-251
-250
-250
-250
-251
-251
-250
-250
-250
-250
-249
-251
-250
-250
-249
-249
-250
-249
-249
-249
-248
-248
-249
-248
-248
-249
-248
-248
-248
-247
-247
-248
-247
-247
-246
-247
-246
-247
-247
-247
-247
-246
-246
-246
-247
-246
-246
-246
-246
-246
-247
-247
-246
-246
-246
-246
-246
-246
-247
-246
-247
-247
-246
-247
-247
-248
-248
-248
-248
-248
-248
-249
-248
-249
-249
-249
-249
-249
-249
-250
-249
-249
-249
-249
-250
-250
-250
-250
-249
-249
-250
-250
-250
-250
-249
-249
-250
-250
-250
-251
-250
-250
-249
-250
-251
-251
-250
-250
-250
-250
-251
-251
-251
-251
-251
-250
-251
-251
-251
-252
-251
-251
-251
-251
-251
-252
-251
-251
-251
-251
-251
-252
-252
-252
-251
-251
-251
-252
-253
-252
-252
-251
-251
-252
-252
-253
-252
-251
-251
-251
-252
-252
-253
-252
-252
-251
-252
-253
-252
-253
-252
-252
-252
-252
-252
-252
-253
-251
-252
-251
-251
-252
-252
-252
-251
-251
-252
-251
-251
-251
-252
-251
-251
-251
-252
-251
-252
-251
-251
-251
-250
-252
-252
-251
-250
-251
-250
-251
-252
-251
-252
-251
-251
-251
-253
-252
-253
-252
-252
-252
-253
-253
-253
-253
-253
-252
-253
-254
-254
-254
-253
-253
-253
-253
-253
-254
-253
-253
-252
-252
-253
-253
-253
-253
-253
-252
-252
-252
-253
-253
-252
-252
-252
-251
-251
-252
-251
-251
-251
-251
-252
-252
-252
-252
-251
-251
-251
-251
-252
-252
-251
-251
-251
-252
-252
-253
-252
-252
-251
-251
-252
-253
-252
-252
-252
-251
-251
-252
-252
-252
-251
-251
-251
-250
-252
-251
-252
-250
-250
-250
-251
-251
-250
-251
-250
-250
-250
-250
-250
-250
-251
-250
-250
-250
-250
-250
-250
-250
-250
-249
-249
-249
-249
-248
-247
-247
-246
-247
-247
-247
-246
-245
-245
-245
-245
-244
-244
-243
-243
-243
-243
-243
-243
-242
-242
-241
-242
-241
-242
-241
-241
-240
-240
-240
-240
-240
-239
-239
-239
-238
-238
-237
-238
-237
-236
-235
-234
-235
-234
-234
-233
-233
-232
-233
-233
-233
-233
-232
-232
-232
-232
-232
-233
-233
-233
-233
-234
-235
-236
-236
-236
-236
-236
-237
-238
-238
-239
-239
-238
-239
-238
-239
-239
-239
-238
-239
-239
-239
-240
-240
-239
-239
-239
-238
-239
-239
-239
-238
-238
-238
-239
-239
-240
-240
-239
-240
-240
-240
-241
-241
-242
-242
-241
-242
-242
-243
-242
-242
-243
-242
-243
-243
-244
-243
-243
-244
-244
-244
-245
-244
-244
-244
-244
-244
-244
-245
-244
-244
-244
-244
-243
-244
-244
-244
-243
-243
-243
-243
-244
-243
-243
-241
-242
-241
-242
-241
-242
-240
-240
-240
-240
-240
-240
-240
-239
-239
-238
-239
-238
-238
-238
-237
-237
-237
-237
-237
-237
-236
-235
-235
-235
-235
-236
-235
-235
-234
-234
-235
-235
-235
-234
-235
-234
-234
-235
-235
-233
-233
-232
-230
-229
-228
-226
-223
-221
-217
-213
-209
-204
-199
-192
-184
-176
-168
-158
-149
-139
-126
-115
-104
-91
-79
-66
-53
-40
-27
-15
-3
9
19
29
39
48
56
62
69
74
79
82
83
82
79
75
69
62
52
41
30
17
2
-11
-27
-42
-58
-74
-90
-106
-120
-136
-149
-162
-175
-186
-195
-203
-210
-215
-221
-225
-229
-230
-232
-233
-234
-235
-235
-235
-233
-233
-232
-231
-231
-230
-229
-227
-226
-225
-224
-224
-222
-221
-220
-219
-219
-218
-217
-216
-216
-215
-215
-214
-215
-215
-214
-214
-214
-214
-214
-214
-214
-213
-213
-214
-213
-213
-214
-213
-213
-213
-213
-213
-214
-213
-213
-212
-213
-212
-213
-212
-212
-213
-211
-211
-211
-211
-212
-211
-210
-209
-209
-210
-209
-210
-210
-208
-208
-208
-208
-209
-209
-208
-207
-207
-207
-207
-207
-206
-206
-205
-204
-205
-205
-205
-204
-204
-203
-203
-203
-203
-203
-203
-202
-202
-202
-202
-202
-202
-202
-202
-201
-201
-201
-201
-202
-200
-201
-201
-200
-200
-200
-200
-200
-199
-199
-200
-199
-199
-198
-197
-198
-197
-197
-197
-196
-196
-195
-195
-195
-196
-195
-195
-195
-194
-193
-194
-193
-193
-192
-192
-192
-191
-192
-191
-191
-190
-190
-189
-190
-190
-190
-190
-188
-188
-188
-188
-188
-188
-187
-187
-187
-186
-186
-186
-186
-185
-185
-185
-184
-185
-185
-184
-183
-183
-183
-183
-183
-182
-181
-180
-180
-179
-179
-179
-178
-178
-177
-177
-176
-176
-175
-174
-173
-172
-173
-172
-172
-171
-170
-169
-168
-169
-168
-167
-166
-165
-164
-164
-163
-163
-162
-161
-160
-159
-159
-158
-157
-156
-155
-154
-153
-152
-151
-151
-150
-148
-148
-147
-146
-145
-144
-143
-141
-140
-139
-139
-138
-137
-135
-135
-133
-133
-131
-130
-129
-129
-127
-126
-126
-125
-124
-123
-122
-121
-120
-119
-118
-117
-117
-116
-115
-114
-114
-113
-112
-112
-111
-110
-110
-109
-109
-108
-107
-107
-107
-107
-107
-106
-106
-105
-105
-104
-106
-105
-105
-105
-105
-105
-106
-106
-106
-107
-107
-107
-109
-110
-110
-112
-113
-113
-114
-116
-118
-120
-121
-122
-124
-126
-127
-130
-132
-134
-135
-137
-139
-142
-144
-146
-147
-150
-151
-153
-156
-158
-159
-161
-163
-165
-168
-170
-171
-173
-174
-175
-177
-179
-180
-182
-183
-184
-185
-186
-187
-189
-190
-190
-191
-192
-193
-195
-195
-196
-196
-196
-198
-199
-199
-200
-200
-201
-201
-202
-202
-203
-204
-204
-204
-204
-205
-205
-206
-206
-206
-206
-207
-207
-208
-208
-208
-208
-208
-209
-209
-208
-209
-209
-208
-209
-209
-210
-210
-209
-209
-209
-209
-210
-210
-210
-210
-209
-209
-210
-210
-211
-210
-210
-210
-210
-210
-211
-210
-211
-211
-210
-210
-211
-211
-211
-210
-210
-210
-211
-211
-211
-211
-211
-210
-211
-211
-212
-212
-212
-212
-211
-211
-212
-212
-211
-212
-211
-212
-211
-211
-212
-212
-212
-211
-212
-212
-213
-212
-212
-212
-212
-213
-213
-213
-212
-212
-212
-212
-213
-213
-212
-213
-213
-212
-212
-213
-213
-213
-212
-212
-211
-212
-212
-212
-211
-211
-210
-211
-210
-210
-210
-210
-210
-210
-209
-210
-210
-210
-209
-209
-208
-209
-209
-209
-209
-208
-208
-208
-208
-209
-208
-208
-207
-207
-208
-207
-208
-207
-208
-207
-207
-207
-208
-207
-208
-207
-207
-206
-207
-207
-208
-207
-207
-206
-206
-207
-207
-207
-206
-206
-206
-207
-207
-207
-207
-206
-206
-206
-206
-206
-207
-206
-206
-206
-206
-207
-207
-207
-206
-206
-206
-206
-207
-207
-207
-207
-206
-207
-206
-207
-207
-207
-207
-207
-206
-207
-207
-207
-207
-207
-206
-207
-207
-208
-207
-207
-206
-207
-207
-207
-207
-208
-207
-207
-207
-208
-208
-208
-208
-207
-208
-207
-208
-208
-208
-208
-208
-208
-207
-209
-208
-209
-208
-207
-207
-208
-208
-208
-209
-208
-207
-208
-208
-209
-208
-208
-208
-208
-207
-208
-208
-208
-207
-207
-208
-208
-208
-209
-208
-208
-207
-208
-208
-209
-208
-208
-207
-207
-208
-209
-208
-209
-208
-207
-208
-209
-209
-209
-208
-209
-208
-209
-209
-210
-210
-210
-209
-209
-209
-210
-210
-210
-210
-209
-209
-210
-210
-210
-210
-210
-209
-210
-210
-210
-210
-209
-209
-209
-209
-210
-210
-210
-209
-209
-209
-210
-209
-210
-209
-209
-209
-208
-209
-210
-210
-208
-208
-209
-209
-209
-209
-210
-210
-209
-209
-210
-210
-210
-210
-210
-209
-210
-211
-211
-211
-211
-210
-211
-210
-211
-211
-211
-210
-210
-210
-211
-211
-211
-210
-210
-210
-210
-210
-211
-210
-210
-209
-209
-209
-210
-210
-209
-209
-209
-209
-210
-209
-209
-209
-209
-208
-209
-209
-209
-209
-208
-208
-207
-208
-208
-209
-208
-208
-207
-208
-208
-208
-209
-208
-208
-207
-208
-208
-209
-208
-208
-208
-208
-207
-207
-208
-208
-207
-207
-207
-208
-207
-208
-208
-207
-207
-207
-207
-208
-207
-206
-206
-206
-207
-207
-207
-207
-206
-206
-206
-206
-206
-206
-207
-206
-206
-206
-206
-207
-206
-206
-207
-206
-207
-207
-206
-207
-207
-206
-206
-206
-207
-207
-206
-206
-205
-206
-207
-206
-207
-206
-206
-205
-206
-206
-205
-206
-205
-205
-204
-205
-205
-205
-204
-204
-204
-204
-204
-205
-205
-204
-204
-203
-204
-204
-204
-204
-204
-204
-204
-205
-204
-205
-204
-204
-204
-204
-204
-205
-204
-203
-203
-203
-202
-202
-203
-202
-202
-201
-200
-201
-201
-201
-200
-199
-199
-199
-199
-199
-199
-197
-197
-197
-197
-197
-197
-197
-196
-196
-195
-196
-196
-195
-194
-194
-193
-194
-193
-194
-193
-192
-192
-191
-191
-192
-191
-190
-190
-189
-189
-189
-190
-190
-189
-188
-187
-188
-188
-187
-187
-186
-185
-185
-185
-185
-185
-184
-184
-183
-183
-184
-183
-184
-183
-184
-183
-184
-184
-184
-184
-185
-184
-185
-186
-186
-187
-187
-187
-187
-188
-188
-189
-190
-190
-189
-190
-191
-191
-192
-192
-192
-191
-192
-192
-192
-193
-192
-192
-192
-192
-192
-193
-192
-192
-192
-192
-193
-193
-193
-193
-193
-193
-193
-194
-194
-195
-195
-194
-195
-195
-196
-197
-197
-197
-196
-197
-198
-198
-199
-198
-198
-198
-198
-198
-199
-199
-199
-199
-199
-199
-199
-200
-200
-200
-199
-200
-199
-200
-200
-200
-200
-200
-200
-200
-200
-201
-200
-200
-199
-199
-200
-200
-200
-200
-199
-199
-200
-200
-200
-200
-198
-198
-198
-198
-199
-198
-199
-197
-198
-198
-198
-198
-198
-198
-198
-197
-198
-198
-197
-198
-198
-197
-197
-197
-198
-198
-197
-197
-197
-197
-198
-197
-197
-196
-195
-193
-193
-191
-188
-186
-183
-179
-174
-169
-164
-158
-150
-142
-133
-125
-115
-105
-94
-83
-72
-60
-49
-38
-26
-14
-2
11
22
33
42
51
60
67
74
80
85
88
91
93
94
93
88
84
77
68
59
49
37
25
11
-3
-17
-31
-46
-61
-77
-91
-106
-119
-131
-143
-155
-164
-173
-180
-186
-191
-195
-199
-202
-204
-206
-207
-207
-207
-207
-207
-207
-206
-205
-204
-203
-203
-202
-200
-198
-198
-196
-195
-195
-195
-193
-193
-191
-191
-191
-191
-190
-190
-190
-190
-189
-190
-190
-190
-189
-189
-189
-189
-190
-190
-190
-190
-190
-190
-190
-191
-190
-190
-189
-190
-190
-190
-191
-191
-190
-189
-189
-189
-189
-190
-189
-189
-188
-188
-189
-189
-189
-188
-188
-188
-188
-188
-188
-188
-187
-186
-187
-187
-188
-187
-186
-186
-186
-186
-186
-186
-186
-186
-185
-185
-185
-185
-185
-185
-185
-184
-184
-184
-185
-184
-185
-184
-184
-184
-184
-184
-184
-184
-184
-183
-184
-184
-184
-184
-183
-183
-183
-183
-183
-183
-182
-182
-181
-181
-181
-182
-182
-181
-180
-180
-180
-180
-180
-180
-180
-178
-178
-178
-178
-179
-178
-178
-177
-177
-176
-177
-177
-176
-176
-175
-176
-175
-176
-175
-174
-174
-173
-174
-174
-173
-173
-173
-172
-173
-172
-172
-172
-171
-171
-171
-171
-171
-171
-171
-171
-169
-169
-169
-170
-169
-168
-168
-167
-167
-168
-167
-167
-166
-165
-165
-165
-164
-165
-164
-163
-162
-162
-161
-162
-161
-160
-159
-158
-158
-157
-157
-156
-156
-155
-154
-154
-153
-153
-152
-151
-149
-149
-148
-147
-147
-146
-144
-144
-142
-142
-141
-140
-139
-137
-136
-136
-136
-134
-133
-133
-131
-130
-129
-128
-128
-127
-125
-124
-123
-123
-122
-120
-119
-118
-117
-116
-116
-115
-114
-112
-111
-110
-109
-109
-108
-107
-106
-104
-104
-104
-103
-102
-101
-101
-100
-99
-99
-98
-98
-96
-95
-94
-95
-95
-94
-93
-92
-91
-91
-91
-91
-91
-90
-90
-90
-89
-91
-90
-90
-90
-90
-90
-91
-92
-92
-93
-93
-93
-95
-96
-97
-98
-99
-100
-101
-103
-105
-106
-108
-109
-110
-112
-114
-116
-118
-119
-122
-123
-125
-128
-130
-131
-133
-134
-136
-139
-141
-143
-145
-146
-148
-150
-152
-154
-156
-157
-159
-160
-161
-163
-165
-167
-168
-169
-170
-171
-173
-175
-176
-176
-177
-178
-180
-181
-182
-184
-185
-186
-188
-190
-192
-194
-196
-198
-201
-204
-207
-210
-212
-215
-218
-221
-225
-228
-231
-234
-237
-240
-243
-245
-247
-250
-252
-255
-256
-259
-261
-263
-264
-266
-267
-268
-270
-271
-271
-273
-274
-274
-275
-276
-277
-277
-278
-277
-278
-278
-280
-281
-281
-280
-280
-280
-281
-282
-283
-282
-283
-282
-283
-283
-285
-284
-285
-284
-285
-285
-286
-286
-286
-286
-285
-286
-286
-287
-287
-288
-287
-288
-288
-289
-290
-290
-290
-290
-289
-290
-291
-290
-291
-290
-290
-290
-291
-291
-291
-292
-291
-291
-291
-292
-292
-292
-292
-292
-292
-291
-293
-292
-293
-292
-292
-292
-292
-293
-293
-293
-293
-292
-293
-294
-294
-294
-293
-293
-294
-294
-294
-294
-294
-294
-294
-294
-294
-294
-295
-294
-294
-295
-294
-295
-295
-295
-295
-295
-294
-295
-296
-296
-295
-295
-295
-295
-295
-296
-296
-297
-296
-296
-297
-297
-297
-297
-298
-298
-297
-297
-298
-298
-298
-298
-298
-298
-298
-299
-299
-299
-298
-299
-299
-299
-300
-300
-300
-300
-300
-299
-301
-301
-301
-300
-301
-300
-301
-301
-301
-301
-301
-301
-301
-301
-301
-302
-302
-302
-302
-302
-302
-302
-302
-302
-302
-302
-303
-303
-303
-303
-303
-302
-303
-303
-304
-304
-304
-304
-304
-304
-305
-305
-305
-304
-305
-304
-305
-305
-306
-306
-306
-305
-306
-306
-306
-307
-306
-306
-306
-306
-308
-307
-308
-307
-307
-307
-308
-308
-309
-308
-308
-309
-308
-309
-309
-309
-310
-309
-308
-309
-310
-310
-309
-309
-308
-309
-309
-309
-310
-309
-309
-308
-309
-309
-309
-310
-309
-309
-309
-308
-309
-310
-310
-309
-309
-310
-309
-309
-310
-309
-309
-310
-310
-310
-310
-310
-310
-310
-310
-310
-310
-311
-311
-311
-310
-310
-310
-310
-311
-310
-310
-310
-310
-311
-311
-311
-311
-310
-309
-310
-310
-311
-310
-310
-309
-310
-310
-310
-310
-310
-310
-309
-309
-310
-310
-310
-310
-310
-309
-310
-310
-311
-310
-310
-309
-310
-310
-311
-311
-311
-310
-310
-309
-310
-310
-310
-309
-309
-309
-309
-309
-310
-310
-309
-308
-308
-309
-309
-309
-309
-308
-308
-308
-308
-309
-309
-308
-308
-308
-308
-309
-309
-309
-309
-308
-308
-308
-309
-309
-309
-309
-308
-308
-308
-309
-309
-309
-309
-308
-308
-308
-309
-308
-308
-308
-308
-308
-309
-308
-308
-308
-308
-308
-308
-308
-309
-309
-308
-308
-308
-309
-309
-310
-309
-309
-308
-308
-309
-309
-309
-308
-309
-309
-309
-309
-309
-309
-308
-308
-308
-308
-309
-308
-308
-307
-307
-307
-307
-307
-306
-306
-305
-305
-306
-306
-306
-305
-305
-305
-305
-305
-306
-305
-305
-304
-305
-305
-306
-305
-306
-305
-305
-306
-306
-306
-306
-306
-305
-305
-305
-306
-306
-306
-306
-306
-306
-305
-306
-306
-306
-305
-305
-305
-305
-306
-305
-305
-304
-305
-304
-305
-305
-304
-304
-303
-303
-303
-303
-304
-303
-303
-302
-302
-302
-303
-303
-302
-301
-301
-301
-301
-301
-300
-300
-299
-299
-299
-300
-299
-298
-297
-296
-297
-296
-296
-296
-295
-295
-295
-294
-294
-294
-294
-294
-293
-292
-293
-292
-293
-292
-292
-292
-291
-292
-291
-291
-291
-291
-290
-290
-290
-290
-289
-288
-288
-288
-287
-288
-288
-287
-287
-286
-286
-286
-287
-287
-286
-286
-286
-287
-287
-288
-288
-288
-288
-288
-289
-290
-291
-291
-291
-292
-292
-293
-293
-293
-294
-294
-294
-295
-295
-296
-296
-295
-295
-295
-296
-296
-296
-296
-295
-296
-295
-296
-296
-296
-296
-296
-296
-296
-297
-297
-297
-297
-298
-297
-298
-299
-299
-299
-299
-300
-300
-300
-301
-302
-301
-301
-301
-302
-302
-303
-302
-302
-301
-302
-302
-302
-303
-302
-302
-301
-302
-302
-302
-303
-302
-302
-301
-302
-302
-302
-302
-301
-301
-301
-301
-302
-302
-302
-301
-302
-302
-302
-303
-302
-302
-301
-301
-301
-301
-302
-301
-301
-300
-300
-300
-300
-300
-300
-300
-299
-298
-299
-299
-299
-298
-298
-298
-298
-298
-299
-298
-298
-298
-299
-298
-299
-300
-299
-299
-299
-298
-299
-298
-297
-296
-294
-292
-289
-287
-284
-280
-275
-270
-264
-258
-251
-243
-235
-225
-215
-206
-195
-185
-173
-161
-148
-136
-125
-113
-101
-89
-77
-66
-56
-46
-39
-31
-24
-18
-13
-9
-6
-4
-4
-5
-8
-12
-19
-28
-37
-48
-59
-70
-83
-97
-112
-126
-140
-155
-169
-184
-198
-212
-224
-236
-245
-255
-264
-272
-278
-284
-289
-292
-294
-297
-299
-301
-301
-301
-301
-302
-302
-302
-301
-301
-299
-299
-298
-297
-296
-295
-294
-292
-292
-290
-290
-290
-288
-288
-287
-286
-286
-286
-285
-285
-285
-285
-285
-285
-285
-285
-285
-285
-285
-285
-286
-286
-286
-285
-286
-286
-286
-287
-286
-286
-285
-285
-285
-285
-285
-285
-285
-284
-284
-283
-284
-284
-284
-283
-283
-283
-282
-283
-283
-282
-282
-281
-282
-282
-282
-282
-281
-281
-280
-280
-281
-280
-279
-279
-280
-279
-279
-279
-278
-279
-279
-278
-278
-278
-278
-278
-278
-278
-278
-277
-277
-278
-277
-277
-276
-277
-276
-277
-277
-276
-276
-275
-276
-276
-276
-275
-274
-274
-273
-273
-273
-273
-272
-272
-271
-271
-271
-272
-272
-271
-271
-270
-270
-270
-271
-270
-270
-269
-269
-269
-269
-270
-269
-269
-268
-268
-268
-268
-267
-268
-266
-266
-266
-266
-266
-266
-265
-265
-264
-264
-263
-264
-263
-263
-262
-262
-261
-261
-261
-261
-260
-260
-259
-259
-260
-259
-258
-257
-257
-257
-257
-256
-256
-255
-255
-254
-255
-254
-254
-253
-253
-252
-251
-251
-251
-250
-250
-249
-248
-247
-248
-247
-246
-245
-244
-244
-244
-243
-243
-242
-241
-240
-239
-240
-239
-238
-236
-236
-235
-234
-233
-233
-232
-230
-230
-229
-228
-228
-227
-225
-225
-223
-222
-222
-221
-220
-218
-216
-216
-215
-214
-213
-212
-210
-209
-207
-206
-206
-205
-204
-202
-201
-200
-200
-199
-198
-197
-195
-195
-194
-194
-193
-193
-191
-190
-189
-188
-188
-188
-187
-185
-184
-184
-184
-183
-182
-181
-179
-179
-178
-178
-178
-177
-177
-176
-176
-176
-176
-176
-175
-175
-174
-174
-174
-174
-174
-174
-174
-174
-175
-176
-176
-177
-177
-177
-178
-179
-181
-182
-183
-184
-184
-185
-187
-189
-191
-192
-193
-195
-196
-199
-201
-202
-204
-206
-208
-210
-213
-215
-217
-218
-220
-222
-225
-227
-229
-230
-231
-233
-235
-237
-238
-240
-241
-242
-244
-245
-247
-248
-250
-250
-251
-252
-254
-256
-256
-256
-257
-259
-259
-261
-262
-263
-262
-263
-264
-265
-265
-266
-266
-266
-267
-267
-269
-268
-269
-268
-269
-268
-269
-270
-270
-270
-270
-270
-270
-271
-271
-271
-270
-270
-270
-271
-271
-271
-271
-271
-270
-271
-271
-272
-272
-272
-271
-272
-271
-272
-272
-272
-273
-273
-273
-273
-273
-273
-273
-273
-273
-273
-274
-274
-274
-274
-274
-273
-274
-274
-274
-274
-274
-273
-274
-274
-274
-275
-274
-274
-273
-274
-274
-274
-275
-274
-274
-274
-274
-275
-274
-275
-274
-274
-273
-274
-274
-275
-274
-273
-273
-273
-274
-274
-274
-274
-274
-273
-274
-273
-273
-273
-274
-274
-273
-273
-274
-273
-273
-272
-272
-272
-272
-272
-273
-272
-272
-271
-271
-271
-272
-272
-271
-271
-270
-271
-271
-271
-271
-271
-270
-269
-270
-270
-270
-270
-270
-269
-269
-269
-270
-270
-269
-269
-268
-269
-269
-270
-269
-268
-268
-268
-268
-268
-268
-268
-268
-267
-267
-267
-268
-267
-267
-267
-267
-266
-267
-267
-267
-267
-267
-266
-266
-267
-267
-267
-267
-266
-267
-267
-267
-268
-267
-267
-266
-267
-267
-267
-267
-267
-266
-266
-267
-267
-268
-267
-267
-267
-267
-267
-268
-267
-268
-268
-268
-268
-268
-268
-268
-268
-267
-267
-268
-268
-269
-269
-269
-268
-269
-269
-269
-269
-269
-269
-269
-270
-270
-270
-270
-269
-269
-269
-270
-270
-271
-270
-270
-269
-270
-271
-271
-271
-270
-270
-271
-271
-272
-271
-272
-271
-271
-271
-271
-272
-273
-272
-271
-272
-272
-272
-272
-272
-271
-271
-272
-271
-272
-272
-272
-272
-271
-271
-271
-271
-271
-272
-271
-271
-270
-271
-272
-272
-271
-270
-271
-271
-272
-271
-271
-271
-271
-271
-271
-272
-271
-272
-272
-272
-272
-272
-272
-272
-273
-272
-273
-273
-273
-274
-273
-274
-274
-273
-273
-274
-274
-274
-273
-273
-274
-274
-273
-273
-274
-274
-273
-274
-274
-273
-274
-274
-274
-274
-274
-275
-275
-275
-275
-275
-275
-275
-277
-276
-276
-276
-276
-276
-277
-277
-277
-277
-277
-277
-277
-278
-278
-278
-277
-277
-278
-278
-278
-278
-278
-277
-278
-278
-278
-278
-278
-278
-278
-277
-277
-278
-278
-278
-277
-277
-277
-277
-277
-277
-276
-276
-277
-276
-277
-277
-277
-276
-276
-276
-276
-276
-277
-276
-276
-276
-276
-276
-276
-276
-276
-276
-276
-276
-276
-277
-276
-276
-275
-275
-275
-276
-276
-276
-275
-275
-275
-276
-276
-276
-275
-275
-274
-274
-274
-275
-274
-274
-273
-273
-272
-273
-273
-272
-272
-271
-271
-271
-271
-271
-270
-270
-269
-269
-269
-268
-268
-268
-268
-267
-267
-268
-267
-267
-267
-266
-266
-266
-266
-266
-266
-265
-265
-264
-264
-264
-263
-263
-262
-261
-262
-262
-261
-261
-260
-260
-260
-260
-259
-260
-260
-259
-260
-260
-261
-262
-261
-262
-262
-263
-264
-265
-267
-268
-269
-270
-272
-273
-276
-278
-280
-280
-283
-285
-288
-289
-291
-293
-295
-297
-300
-302
-304
-306
-307
-308
-310
-312
-314
-315
-316
-317
-318
-319
-321
-321
-322
-323
-322
-324
-324
-325
-325
-326
-326
-326
-326
-328
-328
-328
-328
-328
-329
-329
-330
-330
-330
-330
-330
-330
-330
-331
-331
-331
-331
-330
-331
-332
-332
-332
-331
-332
-332
-332
-332
-333
-333
-333
-333
-333
-333
-334
-334
-334
-333
-333
-334
-335
-335
-335
-334
-334
-334
-334
-335
-334
-333
-333
-333
-333
-333
-332
-333
-332
-332
-331
-331
-332
-332
-332
-331
-331
-331
-331
-332
-331
-331
-331
-331
-330
-331
-332
-332
-331
-330
-330
-330
-331
-331
-330
-328
-327
-326
-324
-322
-320
-317
-313
-308
-303
-297
-291
-285
-277
-269
-259
-249
-240
-229
-218
-206
-194
-181
-168
-156
-143
-130
-117
-103
-92
-80
-69
-60
-51
-42
-34
-27
-22
-17
-14
-12
-12
-14
-18
-25
-32
-42
-51
-63
-76
-91
-106
-121
-137
-153
-170
-186
-203
-220
-235
-249
-262
-275
-287
-297
-306
-313
-320
-324
-328
-332
-334
-336
-338
-338
-338
-337
-337
-337
-337
-336
-335
-333
-333
-332
-330
-329
-328
-326
-324
-323
-323
-322
-321
-319
-318
-317
-317
-317
-316
-315
-314
-314
-313
-313
-314
-313
-312
-312
-311
-312
-312
-312
-312
-311
-311
-311
-311
-311
-311
-311
-311
-310
-311
-311
-311
-310
-310
-310
-310
-309
-309
-310
-309
-308
-309
-308
-309
-308
-308
-307
-307
-307
-307
-307
-306
-306
-305
-305
-305
-305
-305
-305
-304
-304
-304
-303
-303
-304
-304
-303
-303
-302
-303
-302
-303
-302
-302
-301
-301
-301
-302
-301
-301
-300
-300
-300
-300
-299
-299
-300
-298
-299
-298
-298
-298
-297
-296
-296
-296
-296
-296
-295
-295
-294
-294
-294
-293
-293
-293
-293
-292
-292
-292
-292
-291
-291
-291
-290
-290
-289
-290
-289
-289
-288
-288
-288
-288
-287
-287
-287
-286
-286
-286
-286
-285
-286
-284
-284
-284
-284
-285
-284
-284
-283
-283
-282
-282
-282
-282
-281
-281
-280
-280
-280
-280
-280
-278
-278
-277
-278
-277
-277
-276
-276
-275
-275
-275
-274
-274
-274
-272
-271
-271
-271
-270
-270
-269
-268
-268
-267
-267
-266
-265
-265
-264
-263
-263
-262
-262
-261
-260
-260
-259
-258
-258
-257
-256
-255
-254
-253
-253
-252
-251
-250
-249
-248
-248
-247
-247
-245
-243
-242
-241
-240
-240
-238
-237
-235
-234
-233
-233
-232
-231
-229
-227
-227
-226
-225
-224
-223
-221
-220
-219
-219
-219
-217
-216
-215
-214
-213
-213
-212
-211
-210
-209
-208
-208
-207
-206
-206
-204
-203
-203
-203
-202
-201
-200
-198
-198
-197
-197
-197
-196
-195
-195
-194
-194
-194
-193
-193
-192
-193
-192
-192
-193
-192
-192
-191
-192
-192
-194
-194
-194
-194
-195
-196
-197
-198
-199
-201
-201
-203
-205
-206
-209
-210
-212
-213
-214
-217
-219
-221
-223
-225
-226
-229
-231
-233
-235
-237
-239
-241
-243
-245
-246
-248
-249
-250
-252
-254
-257
-258
-260
-261
-262
-264
-265
-267
-268
-269
-270
-270
-272
-274
-275
-275
-276
-276
-277
-278
-280
-281
-281
-281
-282
-283
-283
-284
-285
-286
-285
-286
-287
-287
-288
-288
-288
-289
-289
-289
-290
-290
-290
-290
-289
-290
-291
-291
-291
-291
-290
-290
-291
-292
-292
-292
-291
-291
-291
-291
-292
-292
-292
-292
-291
-292
-292
-292
-291
-292
-292
-291
-292
-292
-291
-292
-292
-291
-290
-291
-291
-291
-291
-291
-291
-291
-291
-292
-292
-291
-291
-290
-290
-291
-291
-291
-290
-290
-290
-290
-291
-290
-291
-290
-290
-289
-290
-290
-290
-289
-289
-290
-289
-290
-290
-289
-289
-288
-288
-289
-289
-289
-289
-289
-288
-288
-288
-289
-288
-288
-287
-288
-287
-287
-288
-287
-287
-287
-287
-287
-288
-287
-287
-286
-286
-286
-286
-287
-287
-286
-286
-286
-286
-285
-286
-285
-285
-285
-284
-285
-285
-285
-284
-283
-283
-283
-283
-284
-283
-283
-282
-282
-281
-281
-281
-281
-280
-280
-280
-281
-281
-281
-280
-280
-280
-280
-280
-281
-281
-280
-280
-280
-280
-280
-281
-280
-280
-279
-279
-280
-280
-280
-280
-280
-279
-279
-279
-280
-279
-280
-279
-279
-279
-279
-279
-279
-279
-279
-279
-278
-280
-279
-279
-278
-278
-278
-279
-279
-279
-279
-278
-278
-278
-279
-278
-279
-279
-278
-278
-279
-279
-279
-278
-278
-279
-278
-279
-279
-279
-280
-279
-279
-279
-279
-280
-279
-279
-280
-280
-279
-279
-280
-280
-279
-279
-279
-280
-280
-280
-280
-279
-279
-279
-279
-280
-279
-279
-279
-279
-279
-279
-280
-279
-279
-279
-279
-280
-280
-280
-279
-279
-279
-280
-280
-280
-280
-280
-279
-279
-279
-280
-280
-280
-279
-279
-280
-280
-280
-280
-280
-280
-279
-280
-280
-280
-280
-280
-279
-279
-279
-279
-280
-280
-279
-279
-279
-280
-280
-280
-280
-280
-279
-280
-280
-281
-280
-280
-279
-279
-280
-280
-280
-280
-280
-279
-279
-280
-280
-280
-280
-279
-279
-280
-280
-280
-280
-280
-279
-278
-279
-279
-280
-279
-279
-278
-279
-279
-279
-279
-278
-278
-278
-279
-279
-279
-279
-278
-278
-278
-278
-278
-278
-277
-277
-278
-278
-278
-278
-278
-278
-278
-277
-277
-277
-277
-277
-277
-277
-277
-276
-277
-277
-277
-276
-276
-277
-277
-278
-277
-277
-276
-276
-276
-277
-276
-277
-276
-276
-275
-276
-276
-276
-276
-275
-275
-275
-275
-276
-276
-275
-275
-274
-274
-275
-275
-274
-274
-274
-274
-274
-275
-274
-274
-274
-274
-274
-274
-275
-274
-274
-274
-274
-274
-274
-274
-273
-273
-274
-273
-273
-273
-274
-273
-273
-273
-273
-273
-274
-273
-274
-272
-273
-273
-273
-273
-273
-273
-273
-273
-272
-272
-273
-273
-273
-272
-272
-272
-273
-273
-272
-272
-271
-272
-272
-272
-272
-272
-271
-271
-271
-272
-272
-272
-271
-271
-271
-272
-272
-272
-271
-271
-271
-271
-271
-271
-271
-270
-269
-269
-270
-270
-269
-269
-268
-268
-268
-268
-267
-267
-267
-266
-266
-266
-265
-265
-264
-264
-263
-263
-263
-263
-263
-262
-261
-261
-261
-261
-260
-260
-260
-259
-260
-259
-259
-259
-259
-257
-257
-257
-257
-257
-257
-256
-255
-254
-254
-255
-254
-254
-253
-252
-251
-251
-252
-251
-250
-250
-249
-249
-250
-250
-250
-249
-249
-250
-250
-251
-252
-252
-253
-253
-253
-254
-254
-255
-256
-256
-256
-256
-257
-257
-257
-258
-256
-257
-257
-257
-258
-258
-258
-258
-257
-257
-257
-258
-257
-257
-258
-257
-257
-258
-258
-259
-258
-258
-259
-259
-259
-260
-259
-259
-260
-260
-261
-262
-262
-262
-262
-262
-262
-262
-263
-263
-263
-263
-263
-263
-263
-264
-264
-263
-263
-263
-264
-263
-264
-262
-262
-262
-262
-263
-262
-262
-261
-262
-261
-262
-262
-262
-261
-261
-260
-261
-261
-260
-261
-260
-260
-259
-260
-260
-259
-260
-260
-259
-259
-259
-260
-260
-259
-259
-259
-260
-260
-259
-260
-258
-259
-258
-259
-259
-259
-259
-259
-258
-258
-258
-259
-259
-258
-258
-258
-258
-258
-258
-258
-258
-257
-257
-257
-258
-257
-256
-255
-253
-252
-250
-249
-245
-242
-237
-233
-228
-222
-215
-208
-200
-190
-181
-171
-160
-150
-138
-126
-114
-102
-90
-77
-64
-52
-40
-28
-17
-7
2
11
19
26
33
37
42
44
46
46
45
41
35
28
19
9
-2
-14
-27
-42
-55
-70
-85
-100
-116
-131
-147
-161
-176
-188
-200
-211
-221
-230
-238
-244
-249
-252
-256
-258
-261
-262
-263
-263
-263
-264
-263
-263
-262
-261
-260
-259
-259
-258
-256
-255
-254
-252
-252
-252
-251
-250
-249
-248
-247
-247
-247
-246
-247
-246
-246
-246
-246
-247
-246
-246
-246
-246
-245
-246
-246
-246
-246
-245
-245
-246
-247
-246
-247
-246
-246
-246
-246
-246
-246
-246
-246
-245
-246
-246
-245
-245
-245
-245
-244
-244
-245
-244
-245
-243
-243
-243
-243
-243
-244
-243
-243
-242
-243
-243
-242
-242
-241
-241
-241
-242
-242
-241
-241
-241
-240
-241
-241
-240
-240
-241
-239
-240
-240
-241
-240
-239
-239
-239
-239
-238
-238
-238
-238
-237
-238
-237
-238
-237
-238
-238
-236
-236
-237
-237
-237
-237
-236
-235
-236
-236
-237
-236
-236
-235
-235
-235
-236
-236
-236
-235
-235
-234
-235
-235
-235
-235
-234
-233
-233
-234
-234
-234
-233
-232
-232
-232
-232
-231
-231
-230
-230
-229
-230
-229
-229
-229
-227
-227
-226
-226
-226
-226
-225
-225
-224
-224
-224
-224
-224
-223
-221
-222
-221
-221
-221
-220
-220
-219
-219
-218
-219
-218
-218
-216
-216
-215
-216
-215
-215
-214
-213
-213
-212
-213
-212
-211
-210
-209
-208
-209
-208
-208
-207
-206
-205
-204
-204
-203
-203
-201
-201
-200
-199
-198
-197
-197
-195
-195
-193
-193
-192
-191
-190
-189
-187
-187
-186
-185
-185
-184
-183
-182
-181
-181
-182
-180
-180
-179
-180
-180
-180
-180
-180
-181
-181
-181
-182
-182
-183
-184
-184
-184
-185
-186
-186
-186
-187
-187
-188
-188
-189
-189
-189
-188
-188
-189
-190
-189
-190
-189
-190
-189
-189
-189
-190
-190
-189
-190
-189
-190
-190
-190
-191
-190
-191
-191
-191
-192
-193
-192
-193
-193
-194
-196
-196
-197
-197
-198
-200
-200
-202
-204
-205
-206
-207
-209
-211
-213
-214
-216
-217
-219
-222
-223
-225
-227
-230
-231
-234
-236
-238
-240
-242
-244
-245
-248
-251
-253
-254
-256
-257
-259
-261
-264
-265
-267
-268
-269
-271
-272
-274
-276
-277
-278
-279
-280
-282
-284
-285
-286
-286
-287
-288
-289
-290
-291
-292
-292
-293
-293
-295
-295
-296
-295
-296
-297
-297
-298
-299
-298
-298
-299
-299
-299
-300
-301
-300
-300
-301
-301
-301
-302
-302
-302
-301
-302
-303
-303
-303
-303
-303
-303
-303
-304
-303
-304
-303
-303
-302
-302
-303
-303
-303
-303
-303
-303
-303
-303
-304
-303
-303
-303
-304
-304
-305
-304
-304
-304
-304
-304
-305
-305
-305
-304
-304
-304
-304
-305
-305
-305
-305
-304
-304
-305
-306
-306
-305
-305
-305
-305
-305
-306
-305
-305
-305
-305
-306
-306
-306
-306
-305
-306
-305
-306
-306
-306
-305
-305
-305
-305
-306
-306
-305
-305
-304
-305
-304
-305
-305
-304
-304
-304
-303
-304
-303
-304
-303
-303
-303
-302
-303
-302
-303
-303
-302
-302
-302
-302
-302
-302
-301
-302
-302
-302
-302
-302
-301
-301
-301
-301
-301
-302
-301
-301
-300
-301
-301
-301
-300
-301
-301
-300
-301
-301
-301
-301
-300
-300
-300
-301
-301
-302
-301
-301
-301
-301
-301
-302
-302
-302
-302
-302
-302
-302
-303
-302
-302
-302
-302
-302
-303
-303
-303
-302
-303
-303
-303
-303
-303
-303
-303
-303
-304
-304
-304
-304
-304
-303
-303
-304
-304
-305
-305
-304
-305
-304
-305
-305
-305
-304
-304
-304
-305
-305
-306
-305
-305
-304
-304
-305
-305
-306
-305
-305
-305
-305
-305
-306
-307
-306
-306
-306
-306
-307
-307
-307
-305
-306
-305
-306
-306
-307
-306
-306
-305
-305
-306
-306
-306
-306
-305
-305
-306
-306
-306
-306
-306
-306
-306
-306
-306
-306
-307
-306
-306
-306
-307
-306
-306
-307
-306
-305
-306
-306
-306
-306
-306
-306
-306
-305
-306
-306
-306
-305
-305
-306
-306
-306
-306
-306
-306
-305
-305
-305
-306
-305
-305
-305
-305
-306
-306
-305
-305
-305
-305
-305
-305
-306
-306
-305
-305
-304
-304
-305
-306
-305
-305
-304
-305
-304
-304
-305
-305
-304
-305
-304
-305
-305
-305
-305
-304
-305
-305
-306
-305
-305
-305
-305
-305
-305
-305
-306
-305
-305
-305
-305
-306
-306
-306
-305
-305
-306
-305
-305
-306
-305
-305
-305
-305
-305
-306
-305
-305
-304
-305
-304
-305
-305
-305
-304
-304
-303
-304
-304
-305
-304
-303
-303
-303
-304
-304
-304
-303
-303
-302
-303
-304
-303
-304
-303
-303
-303
-303
-303
-303
-303
-303
-302
-301
-302
-302
-303
-303
-302
-301
-302
-303
-302
-303
-302
-302
-302
-302
-303
-302
-303
-302
-302
-302
-301
-303
-302
-302
-301
-301
-301
-302
-302
-302
-301
-301
-301
-302
-302
-301
-302
-302
-301
-301
-301
-301
-302
-301
-301
-301
-301
-301
-302
-302
-302
-302
-301
-302
-302
-302
-302
-301
-301
-301
-302
-302
-302
-302
-302
-301
-301
-301
-302
-302
-301
-301
-301
-301
-301
-302
-301
-301
-300
-300
-300
-300
-301
-300
-300
-300
-300
-300
-300
-300
-300
-299
-299
-300
-300
-300
-300
-300
-299
-298
-299
-299
-300
-299
-299
-298
-299
-299
-300
-300
-299
-299
-299
-299
-299
-299
-299
-298
-298
-298
-299
-299
-299
-299
-299
-298
-298
-298
-299
-298
-298
-297
-298
-297
-298
-297
-296
-296
-295
-295
-294
-295
-295
-294
-294
-293
-293
-292
-293
-292
-291
-291
-291
-290
-290
-291
-290
-289
-289
-289
-288
-288
-288
-287
-287
-286
-287
-286
-287
-287
-286
-285
-284
-285
-285
-285
-284
-283
-283
-281
-281
-281
-281
-281
-279
-279
-278
-279
-279
-278
-279
-277
-278
-278
-279
-278
-278
-278
-279
-278
-279
-281
-281
-281
-281
-281
-282
-283
-284
-284
-285
-285
-285
-285
-286
-286
-286
-286
-286
-287
-287
-287
-287
-287
-287
-286
-287
-287
-288
-287
-287
-287
-287
-287
-287
-288
-287
-286
-286
-286
-287
-287
-288
-288
-287
-288
-288
-289
-289
-290
-290
-290
-290
-291
-291
-292
-291
-291
-292
-291
-292
-293
-293
-292
-292
-293
-292
-293
-293
-293
-293
-293
-293
-292
-292
-292
-293
-292
-291
-291
-292
-292
-291
-291
-291
-290
-290
-290
-291
-290
-290
-290
-289
-289
-290
-289
-288
-288
-287
-288
-288
-288
-288
-287
-286
-287
-286
-287
-286
-286
-286
-285
-285
-286
-286
-285
-286
-284
-284
-284
-285
-285
-285
-285
-285
-284
-285
-285
-286
-286
-285
-285
-285
-284
-284
-284
-282
-281
-278
-276
-275
-272
-269
-264
-259
-254
-248
-242
-235
-227
-217
-207
-197
-188
-177
-167
-154
-143
-131
-119
-106
-95
-83
-71
-59
-48
-40
-30
-24
-16
-10
-3
2
5
8
8
8
6
3
-3
-11
-20
-30
-41
-52
-64
-79
-93
-107
-121
-135
-149
-163
-179
-193
-205
-218
-228
-238
-247
-255
-262
-268
-272
-276
-279
-281
-284
-286
-286
-286
-286
-286
-285
-286
-285
-284
-283
-281
-280
-279
-279
-278
-276
-275
-273
-272
-271
-271
-271
-270
-269
-268
-268
-268
-267
-267
-267
-266
-266
-267
-267
-266
-266
-266
-265
-266
-266
-266
-266
-266
-265
-264
-265
-266
-265
-266
-264
-264
-264
-265
-265
-265
-264
-264
-264
-264
-265
-265
-265
-264
-264
-263
-264
-264
-264
-264
-263
-262
-262
-263
-263
-262
-262
-262
-261
-262
-262
-262
-261
-261
-260
-261
-261
-261
-261
-260
-260
-259
-260
-259
-259
-260
-259
-258
-258
-258
-258
-258
-258
-257
-257
-256
-256
-257
-257
-256
-255
-255
-255
-254
-254
-254
-254
-253
-253
-253
-252
-253
-253
-252
-252
-252
-252
-252
-252
-252
-251
-251
-251
-251
-251
-251
-250
-250
-249
-249
-249
-250
-249
-249
-248
-248
-247
-247
-247
-246
-245
-245
-244
-245
-245
-244
-244
-242
-243
-242
-242
-242
-242
-241
-240
-241
-240
-240
-240
-239
-239
-238
-238
-238
-238
-238
-238
-236
-237
-236
-236
-236
-236
-235
-234
-233
-233
-233
-233
-232
-231
-230
-229
-229
-228
-228
-227
-227
-226
-225
-225
-225
-224
-223
-222
-222
-221
-221
-220
-219
-218
-217
-217
-216
-215
-215
-214
-213
-212
-210
-210
-210
-208
-208
-206
-205
-205
-205
-203
-202
-202
-200
-199
-198
-198
-196
-196
-194
-193
-192
-191
-190
-190
-188
-186
-185
-184
-184
-183
-182
-180
-178
-178
-177
-176
-175
-174
-173
-172
-171
-171
-170
-169
-169
-167
-166
-166
-165
-164
-164
-162
-162
-160
-160
-160
-159
-158
-156
-156
-155
-155
-154
-154
-153
-152
-152
-151
-151
-151
-150
-149
-149
-149
-148
-149
-150
-149
-149
-149
-150
-150
-151
-152
-152
-153
-153
-154
-156
-157
-159
-159
-160
-162
-164
-166
-167
-169
-170
-171
-173
-175
-178
-179
-181
-182
-184
-186
-189
-190
-192
-193
-194
-197
-199
-201
-203
-204
-205
-207
-209
-210
-212
-214
-216
-217
-217
-220
-221
-222
-223
-224
-225
-225
-227
-229
-230
-230
-231
-231
-232
-233
-234
-235
-235
-235
-236
-237
-237
-238
-238
-238
-238
-238
-239
-239
-240
-240
-239
-240
-240
-240
-241
-241
-242
-241
-241
-241
-242
-242
-242
-241
-242
-242
-243
-243
-243
-243
-243
-243
-243
-244
-244
-244
-243
-243
-243
-244
-244
-245
-244
-244
-243
-243
-244
-244
-245
-244
-244
-243
-244
-244
-245
-245
-244
-244
-244
-244
-244
-244
-244
-244
-243
-243
-244
-244
-244
-243
-243
-243
-243
-243
-244
-244
-243
-243
-243
-243
-243
-243
-243
-243
-242
-242
-243
-243
-243
-242
-242
-242
-242
-242
-243
-243
-242
-241
-241
-241
-242
-241
-242
-241
-241
-240
-241
-241
-242
-241
-241
-240
-241
-241
-241
-241
-241
-240
-240
-241
-241
-241
-240
-240
-240
-240
-240
-240
-240
-239
-239
-239
-238
-239
-239
-239
-238
-238
-237
-238
-238
-238
-238
-236
-236
-236
-237
-237
-237
-237
-236
-236
-236
-236
-237
-236
-236
-236
-236
-235
-236
-236
-236
-236
-235
-235
-236
-236
-235
-236
-236
-235
-236
-236
-236
-236
-237
-236
-236
-237
-237
-238
-237
-237
-237
-237
-237
-237
-238
-237
-237
-237
-237
-238
-237
-237
-237
-237
-236
-236
-237
-237
-236
-236
-235
-235
-236
-236
-236
-236
-235
-236
-235
-236
-236
-236
-235
-235
-235
-236
-236
-236
-236
-235
-235
-235
-235
-236
-235
-236
-236
-235
-236
-236
-236
-236
-236
-236
-236
-236
-237
-237
-237
-236
-236
-236
-237
-237
-238
-237
-237
-236
-237
-238
-238
-238
-237
-237
-237
-238
-238
-238
-238
-238
-237
-238
-238
-239
-238
-238
-237
-238
-238
-238
-238
-238
-239
-238
-239
-239
-239
-239
-239
-239
-238
-238
-239
-239
-239
-239
-239
-239
-239
-240
-240
-240
-240
-239
-240
-240
-241
-240
-241
-240
-240
-240
-241
-241
-240
-241
-241
-240
-241
-241
-241
-241
-241
-241
-241
-241
-241
-241
-241
-241
-241
-241
-241
-241
-241
-241
-241
-240
-241
-241
-241
-240
-241
-241
-240
-241
-241
-241
-241
-241
-240
-240
-241
-241
-241
-240
-240
-240
-240
-240
-241
-241
-240
-240
-240
-240
-241
-240
-241
-239
-239
-239
-239
-240
-240
-240
-239
-239
-239
-239
-240
-239
-240
-240
-239
-239
-240
-240
-239
-239
-240
-240
-240
-240
-240
-240
-240
-240
-240
-240
-240
-240
-241
-241
-240
-240
-241
-241
-241
-240
-241
-241
-241
-242
-242
-241
-241
-242
-241
-241
-242
-242
-241
-241
-241
-242
-242
-243
-242
-242
-241
-241
-242
-242
-241
-241
-241
-240
-240
-240
-241
-241
-240
-240
-239
-239
-240
-240
-240
-240
-239
-238
-239
-239
-240
-239
-239
-238
-239
-239
-239
-239
-239
-239
-238
-239
-239
-239
-239
-238
-238
-238
-238
-238
-239
-239
-238
-239
-238
-239
-239
-239
-239
-238
-238
-239
-239
-239
-239
-238
-239
-238
-238
-238
-239
-239
-239
-238
-238
-238
-238
-238
-239
-238
-238
-238
-238
-238
-238
-238
-238
-238
-237
-238
-238
-238
-237
-238
-237
-238
-238
-238
-237
-237
-237
-237
-238
-238
-237
-237
-237
-236
-237
-237
-237
-236
-236
-235
-236
-236
-235
-235
-234
-233
-234
-233
-233
-233
-233
-231
-231
-231
-230
-230
-230
-229
-229
-228
-228
-228
-228
-228
-227
-226
-226
-226
-226
-226
-225
-225
-224
-224
-224
-224
-224
-224
-222
-222
-222
-222
-222
-221
-221
-221
-220
-220
-219
-220
-219
-219
-218
-218
-219
-219
-219
-219
-219
-218
-219
-220
-221
-221
-221
-222
-222
-223
-224
-224
-224
-224
-224
-224
-225
-226
-226
-226
-226
-226
-226
-226
-227
-227
-227
-227
-226
-226
-226
-227
-226
-226
-226
-226
-227
-227
-228
-227
-227
-227
-228
-228
-229
-229
-229
-229
-229
-230
-230
-231
-232
-231
-231
-231
-232
-233
-233
-233
-233
-233
-234
-234
-235
-235
-234
-235
-234
