# Simple Text Format
# Sampling Rate (Hz):= 1200.00
# Resolution:= 12
# Labels:= ECG	 V6
# Age:=	23
# Gender:=	Feminino
73
72
71
70
69
68
66
64
62
61
58
57
55
52
50
48
46
45
43
41
38
36
35
33
31
29
27
25
23
22
21
19
18
15
14
12
10
10
9
7
5
4
3
3
2
2
0
-1
-2
-3
-3
-3
-4
-5
-5
-7
-7
-6
-7
-7
-9
-9
-9
-9
-9
-9
-10
-10
-11
-10
-10
-11
-10
-11
-11
-11
-12
-12
-11
-11
-13
-12
-13
-13
-12
-12
-13
-13
-14
-13
-14
-14
-14
-14
-14
-14
-15
-15
-15
-16
-16
-16
-16
-16
-15
-15
-16
-16
-17
-16
-16
-15
-16
-16
-16
-15
-16
-15
-15
-15
-15
-15
-15
-15
-15
-15
-15
-15
-15
-16
-15
-15
-16
-16
-17
-17
-16
-16
-16
-17
-17
-18
-17
-17
-17
-16
-17
-17
-18
-17
-17
-16
-17
-17
-18
-18
-17
-16
-16
-17
-17
-17
-17
-17
-16
-15
-16
-16
-17
-16
-16
-16
-16
-16
-17
-17
-17
-17
-16
-17
-18
-17
-17
-17
-16
-16
-17
-17
-18
-17
-15
-16
-16
-16
-17
-16
-16
-16
-16
-15
-16
-17
-16
-16
-15
-15
-16
-16
-16
-16
-15
-16
-15
-16
-16
-16
-16
-16
-16
-16
-16
-16
-17
-16
-16
-16
-17
-17
-16
-17
-17
-16
-17
-17
-16
-17
-17
-17
-16
-16
-17
-17
-17
-16
-16
-16
-16
-17
-16
-16
-16
-16
-16
-16
-16
-16
-16
-16
-16
-17
-16
-16
-16
-16
-16
-16
-16
-17
-17
-16
-16
-15
-16
-16
-17
-17
-16
-16
-16
-16
-17
-16
-17
-16
-16
-16
-16
-17
-16
-17
-16
-16
-16
-17
-17
-17
-16
-16
-16
-17
-17
-17
-18
-17
-17
-17
-17
-18
-17
-18
-16
-17
-17
-17
-18
-18
-17
-17
-17
-17
-17
-18
-17
-17
-17
-16
-17
-17
-18
-17
-17
-17
-17
-18
-18
-18
-17
-17
-17
-18
-18
-19
-18
-18
-17
-17
-18
-18
-19
-18
-18
-18
-18
-18
-19
-19
-18
-18
-19
-19
-19
-19
-19
-19
-19
-19
-19
-19
-20
-19
-19
-18
-19
-20
-20
-20
-19
-19
-18
-19
-19
-20
-19
-19
-18
-18
-18
-19
-19
-18
-18
-17
-18
-19
-19
-19
-19
-19
-18
-18
-19
-19
-19
-18
-19
-18
-19
-19
-19
-19
-19
-19
-19
-19
-20
-19
-20
-18
-19
-19
-19
-20
-19
-19
-18
-18
-19
-19
-20
-19
-19
-18
-19
-20
-20
-20
-20
-21
-20
-21
-21
-21
-21
-21
-21
-20
-21
-21
-21
-21
-20
-21
-20
-21
-21
-21
-20
-20
-20
-20
-20
-20
-20
-20
-19
-19
-19
-19
-20
-19
-19
-18
-19
-20
-20
-20
-20
-19
-18
-19
-20
-20
-19
-19
-19
-19
-20
-20
-20
-20
-20
-20
-20
-20
-21
-20
-21
-20
-20
-20
-20
-20
-20
-20
-19
-19
-20
-21
-21
-21
-20
-20
-20
-21
-22
-22
-21
-21
-21
-21
-21
-22
-22
-21
-21
-20
-21
-21
-22
-21
-21
-20
-21
-21
-21
-22
-21
-21
-20
-21
-21
-22
-21
-21
-20
-21
-21
-21
-22
-21
-21
-20
-21
-22
-21
-22
-21
-21
-21
-21
-21
-21
-22
-22
-21
-20
-21
-21
-22
-21
-21
-21
-21
-21
-21
-21
-21
-20
-21
-20
-20
-21
-21
-20
-20
-20
-20
-21
-20
-21
-20
-20
-21
-21
-21
-21
-21
-21
-21
-21
-22
-22
-22
-21
-22
-21
-22
-22
-23
-22
-21
-22
-22
-22
-22
-22
-21
-21
-21
-22
-22
-22
-22
-21
-21
-21
-21
-21
-21
-21
-20
-20
-20
-21
-21
-21
-21
-20
-19
-19
-20
-19
-19
-19
-18
-18
-18
-19
-18
-18
-18
-17
-18
-18
-17
-18
-17
-17
-16
-16
-16
-17
-16
-15
-15
-15
-15
-15
-15
-15
-14
-13
-13
-14
-13
-13
-12
-12
-11
-11
-11
-10
-11
-9
-9
-9
-9
-9
-9
-9
-8
-8
-9
-8
-9
-9
-9
-9
-8
-9
-10
-11
-11
-11
-11
-10
-11
-11
-12
-12
-12
-11
-12
-13
-13
-13
-13
-13
-12
-13
-13
-14
-14
-13
-13
-13
-13
-15
-15
-14
-14
-14
-15
-16
-16
-16
-16
-16
-17
-18
-18
-19
-19
-19
-19
-18
-19
-20
-20
-20
-20
-20
-21
-21
-21
-21
-21
-21
-21
-22
-23
-22
-22
-22
-22
-22
-22
-23
-23
-24
-23
-23
-22
-23
-23
-24
-23
-23
-23
-23
-24
-23
-23
-23
-23
-23
-23
-24
-23
-23
-23
-23
-22
-23
-23
-23
-22
-22
-23
-22
-23
-23
-22
-22
-21
-22
-21
-22
-22
-21
-21
-21
-22
-22
-22
-22
-21
-21
-21
-21
-22
-22
-22
-22
-22
-22
-22
-23
-23
-24
-24
-24
-24
-25
-25
-25
-25
-23
-23
-21
-20
-18
-16
-12
-8
-4
1
6
11
19
26
34
42
50
59
68
78
89
99
109
119
130
139
149
160
169
177
184
191
198
203
208
211
212
212
212
210
206
200
193
184
175
165
153
141
129
116
103
90
77
64
52
40
27
18
8
0
-7
-14
-19
-24
-28
-30
-33
-34
-34
-36
-36
-36
-36
-35
-33
-33
-33
-32
-32
-30
-29
-28
-27
-26
-26
-25
-23
-22
-21
-21
-21
-20
-20
-19
-18
-18
-18
-19
-18
-18
-18
-17
-17
-18
-18
-18
-18
-18
-18
-18
-18
-19
-18
-18
-18
-18
-18
-18
-19
-18
-18
-18
-18
-18
-18
-18
-18
-17
-18
-17
-17
-18
-17
-17
-17
-17
-17
-18
-17
-17
-17
-16
-17
-17
-17
-17
-16
-17
-16
-16
-17
-17
-16
-16
-16
-16
-16
-17
-16
-16
-15
-16
-15
-16
-16
-15
-15
-14
-14
-14
-15
-15
-15
-15
-14
-14
-14
-15
-14
-14
-13
-13
-13
-14
-13
-13
-13
-13
-13
-13
-13
-13
-13
-12
-12
-12
-13
-13
-13
-13
-13
-12
-13
-13
-13
-13
-13
-13
-12
-13
-13
-12
-13
-12
-12
-12
-12
-12
-12
-11
-11
-10
-10
-10
-11
-10
-9
-9
-9
-9
-9
-9
-9
-8
-8
-9
-8
-8
-9
-8
-8
-7
-8
-8
-8
-8
-8
-6
-6
-6
-6
-7
-7
-5
-5
-5
-5
-4
-4
-4
-3
-2
-2
-2
-1
-2
0
0
1
1
1
2
3
3
5
5
5
6
6
7
7
8
9
9
9
10
11
12
13
13
13
14
15
16
17
17
18
19
20
21
22
23
24
25
25
27
28
30
30
32
32
33
34
36
37
38
39
40
41
42
43
45
45
47
46
48
50
50
52
52
54
53
55
56
57
58
59
58
59
60
62
63
64
64
64
65
66
67
68
69
69
70
70
71
72
72
72
72
72
72
72
73
72
72
71
71
71
71
70
70
68
68
66
66
65
64
62
60
59
58
57
55
54
52
50
49
46
45
43
42
39
37
35
33
31
30
27
25
23
21
20
19
16
14
12
10
9
8
7
5
3
1
1
0
-1
-3
-4
-5
-6
-7
-8
-9
-10
-11
-11
-13
-13
-13
-13
-14
-15
-16
-16
-16
-17
-17
-18
-19
-20
-20
-20
-20
-21
-21
-22
-22
-21
-21
-22
-22
-23
-23
-23
-23
-23
-23
-23
-24
-24
-24
-24
-24
-24
-25
-25
-25
-26
-26
-25
-26
-26
-27
-27
-27
-27
-27
-28
-28
-28
-28
-27
-28
-28
-28
-28
-28
-28
-27
-28
-27
-28
-28
-28
-28
-27
-27
-27
-28
-29
-28
-27
-28
-28
-28
-28
-28
-29
-29
-28
-29
-29
-29
-30
-29
-28
-28
-29
-29
-30
-29
-28
-28
-29
-29
-29
-29
-29
-28
-28
-28
-29
-29
-29
-29
-28
-28
-29
-29
-28
-29
-28
-28
-29
-29
-29
-29
-29
-29
-28
-29
-29
-29
-30
-28
-28
-28
-28
-29
-30
-29
-28
-28
-29
-29
-30
-30
-30
-28
-29
-28
-30
-30
-29
-29
-29
-29
-29
-29
-30
-29
-29
-29
-29
-29
-29
-29
-29
-29
-28
-29
-29
-30
-29
-28
-28
-28
-29
-29
-30
-29
-29
-29
-28
-28
-29
-29
-28
-28
-28
-28
-29
-30
-30
-29
-29
-29
-29
-30
-29
-29
-29
-29
-30
-30
-30
-30
-30
-30
-29
-30
-30
-31
-31
-30
-30
-30
-30
-30
-31
-31
-30
-31
-30
-30
-31
-31
-30
-30
-29
-29
-30
-29
-30
-29
-29
-29
-29
-29
-30
-29
-29
-29
-30
-30
-30
-30
-30
-30
-30
-30
-30
-30
-30
-31
-30
-30
-31
-31
-31
-31
-31
-30
-30
-31
-31
-31
-30
-30
-30
-30
-30
-31
-31
-30
-30
-30
-31
-31
-31
-31
-31
-30
-31
-31
-31
-31
-32
-32
-31
-32
-32
-32
-32
-32
-31
-32
-33
-33
-33
-33
-33
-32
-32
-32
-33
-33
-33
-32
-32
-33
-33
-33
-32
-32
-32
-32
-33
-33
-34
-33
-33
-33
-33
-33
-34
-35
-34
-34
-33
-34
-34
-34
-34
-34
-34
-34
-34
-35
-34
-34
-34
-34
-33
-34
-34
-34
-34
-34
-33
-34
-34
-34
-35
-35
-34
-34
-35
-35
-35
-34
-34
-35
-34
-35
-36
-36
-35
-35
-35
-35
-35
-36
-35
-35
-35
-35
-36
-36
-36
-36
-36
-36
-36
-36
-36
-36
-35
-35
-35
-35
-36
-36
-36
-36
-35
-35
-36
-36
-36
-36
-35
-35
-35
-36
-37
-36
-36
-36
-36
-36
-36
-36
-37
-36
-36
-35
-36
-36
-37
-36
-35
-35
-36
-36
-36
-36
-36
-35
-35
-36
-36
-36
-36
-36
-36
-37
-37
-37
-38
-37
-36
-37
-37
-37
-37
-37
-37
-37
-37
-37
-37
-37
-37
-37
-37
-37
-36
-36
-37
-37
-37
-36
-36
-36
-37
-37
-37
-37
-36
-37
-37
-37
-37
-37
-37
-37
-37
-38
-38
-37
-37
-37
-37
-38
-39
-39
-38
-37
-38
-37
-38
-38
-38
-38
-38
-38
-38
-39
-38
-38
-38
-38
-38
-39
-39
-39
-39
-39
-38
-39
-39
-40
-40
-39
-39
-39
-39
-39
-40
-39
-39
-39
-39
-39
-39
-39
-38
-38
-38
-38
-38
-38
-38
-37
-37
-37
-37
-38
-37
-37
-37
-36
-36
-36
-36
-36
-36
-35
-34
-34
-35
-35
-35
-34
-34
-33
-34
-34
-34
-34
-33
-33
-34
-34
-34
-34
-34
-33
-33
-33
-33
-33
-33
-32
-32
-31
-31
-31
-31
-30
-30
-29
-28
-28
-29
-29
-27
-27
-26
-26
-27
-27
-27
-26
-26
-27
-26
-27
-28
-28
-28
-28
-28
-29
-29
-30
-30
-29
-29
-29
-30
-30
-30
-30
-30
-31
-31
-32
-31
-32
-31
-32
-32
-32
-32
-33
-32
-32
-32
-32
-33
-34
-34
-34
-33
-35
-35
-36
-36
-37
-37
-37
-37
-38
-39
-39
-39
-39
-39
-39
-40
-41
-41
-41
-40
-41
-41
-42
-41
-42
-41
-41
-41
-42
-43
-42
-42
-41
-41
-41
-41
-41
-41
-41
-41
-41
-41
-42
-42
-42
-42
-42
-41
-42
-43
-43
-42
-42
-42
-42
-42
-43
-43
-42
-42
-42
-43
-43
-42
-43
-42
-42
-42
-42
-42
-42
-42
-41
-41
-41
-41
-41
-41
-41
-41
-41
-40
-41
-41
-42
-41
-40
-41
-42
-42
-43
-42
-42
-42
-42
-43
-43
-43
-43
-43
-42
-41
-41
-40
-38
-35
-32
-29
-27
-23
-17
-11
-5
3
9
17
25
34
43
53
63
73
84
93
104
115
125
134
143
151
159
166
172
178
182
184
185
186
186
184
179
173
166
158
149
139
129
117
104
92
79
66
54
42
30
17
6
-4
-13
-20
-28
-35
-41
-45
-49
-52
-53
-55
-56
-56
-57
-57
-56
-55
-54
-54
-53
-52
-51
-50
-49
-49
-48
-47
-46
-45
-44
-43
-43
-43
-42
-42
-40
-40
-39
-40
-39
-39
-38
-38
-37
-38
-38
-37
-37
-37
-36
-36
-36
-37
-37
-36
-36
-36
-37
-37
-37
-37
-37
-36
-36
-36
-36
-37
-36
-36
-36
-36
-36
-37
-36
-36
-36
-36
-36
-36
-36
-36
-36
-35
-35
-36
-36
-35
-35
-35
-34
-35
-35
-34
-34
-33
-33
-32
-32
-32
-33
-32
-32
-32
-32
-31
-31
-32
-31
-31
-31
-32
-32
-32
-32
-32
-31
-31
-32
-32
-32
-32
-32
-32
-32
-31
-32
-32
-32
-32
-32
-31
-32
-32
-32
-31
-31
-31
-30
-30
-31
-31
-30
-30
-29
-29
-30
-30
-29
-29
-29
-28
-29
-29
-30
-29
-28
-29
-29
-29
-30
-30
-29
-29
-28
-28
-29
-28
-28
-28
-28
-28
-28
-28
-28
-27
-27
-26
-26
-26
-26
-26
-25
-25
-25
-24
-24
-24
-24
-24
-22
-22
-22
-23
-23
-22
-22
-21
-21
-21
-21
-21
-20
-19
-19
-19
-19
-20
-19
-19
-17
-17
-17
-18
-17
-17
-15
-15
-14
-14
-14
-13
-13
-11
-10
-11
-10
-10
-9
-7
-7
-6
-6
-5
-5
-3
-3
-1
-1
0
0
1
3
4
5
5
6
7
8
10
11
12
13
13
14
16
17
18
20
20
21
22
24
24
26
27
27
28
29
30
32
33
34
34
35
36
38
39
39
39
41
41
43
44
45
45
46
47
47
49
49
50
50
51
51
52
52
53
53
54
54
54
54
55
55
55
54
54
54
54
54
53
52
51
50
49
49
47
46
45
43
42
41
39
38
36
34
32
31
29
28
26
24
21
19
18
16
15
13
11
8
6
5
4
2
0
-2
-4
-5
-6
-7
-9
-11
-13
-14
-15
-16
-17
-18
-19
-20
-22
-22
-23
-24
-24
-26
-27
-27
-28
-28
-29
-30
-31
-32
-32
-32
-33
-34
-34
-36
-36
-36
-36
-36
-36
-38
-39
-39
-39
-38
-38
-40
-40
-40
-40
-40
-40
-40
-41
-41
-41
-41
-40
-41
-41
-41
-41
-41
-41
-41
-41
-41
-42
-42
-41
-41
-40
-40
-42
-42
-42
-41
-40
-41
-41
-41
-42
-41
-42
-41
-41
-41
-42
-42
-41
-41
-41
-41
-41
-41
-42
-41
-41
-41
-42
-42
-42
-43
-42
-42
-42
-42
-43
-43
-42
-42
-43
-43
-43
-43
-43
-43
-42
-42
-42
-42
-43
-43
-42
-42
-42
-42
-42
-42
-42
-41
-42
-41
-42
-42
-42
-42
-41
-42
-42
-43
-42
-42
-42
-42
-42
-42
-42
-42
-42
-42
-41
-42
-43
-43
-43
-42
-41
-42
-42
-42
-42
-42
-42
-41
-41
-42
-42
-42
-41
-41
-40
-40
-41
-41
-41
-41
-40
-40
-40
-41
-41
-41
-40
-40
-40
-41
-41
-41
-40
-40
-40
-40
-40
-41
-41
-40
-39
-39
-40
-40
-39
-40
-39
-39
-39
-39
-40
-39
-40
-39
-39
-39
-39
-40
-40
-39
-39
-39
-40
-40
-41
-40
-39
-39
-39
-39
-40
-40
-39
-39
-39
-38
-38
-39
-39
-38
-39
-39
-39
-39
-39
-39
-39
-39
-39
-39
-39
-39
-39
-39
-39
-38
-39
-40
-40
-39
-39
-39
-38
-39
-39
-39
-39
-39
-39
-39
-38
-38
-38
-38
-37
-37
-38
-38
-38
-38
-38
-38
-38
-39
-39
-39
-39
-39
-39
-40
-40
-40
-39
-39
-39
-39
-40
-40
-40
-40
-39
-39
-39
-39
-40
-39
-39
-39
-39
-39
-39
-39
-39
-38
-38
-39
-38
-38
-38
-38
-38
-38
-39
-39
-40
-40
-39
-39
-39
-39
-40
-40
-40
-40
-39
-40
-40
-40
-41
-41
-40
-40
-41
-41
-41
-41
-41
-41
-41
-41
-41
-41
-41
-40
-40
-40
-41
-40
-40
-40
-40
-40
-40
-40
-41
-41
-40
-40
-40
-40
-40
-41
-40
-40
-39
-39
-40
-40
-40
-40
-39
-40
-40
-40
-41
-41
-41
-40
-40
-41
-41
-41
-41
-40
-40
-41
-41
-41
-41
-41
-40
-41
-40
-40
-41
-41
-41
-40
-39
-39
-40
-39
-40
-39
-38
-39
-39
-40
-40
-38
-38
-39
-39
-40
-39
-39
-39
-38
-38
-40
-40
-40
-39
-39
-39
-39
-39
-40
-39
-40
-40
-39
-40
-40
-40
-40
-40
-40
-39
-39
-40
-41
-40
-39
-39
-39
-40
-40
-40
-40
-40
-39
-39
-40
-40
-41
-40
-40
-40
-41
-41
-41
-40
-40
-40
-40
-41
-41
-41
-41
-41
-40
-41
-41
-42
-42
-41
-41
-41
-42
-41
-41
-41
-41
-40
-40
-41
-41
-42
-40
-40
-41
-41
-41
-41
-41
-40
-40
-40
-40
-40
-41
-40
-39
-39
-39
-39
-39
-39
-39
-38
-38
-39
-39
-39
-39
-39
-38
-38
-39
-40
-39
-39
-38
-39
-39
-38
-39
-39
-38
-38
-38
-37
-37
-37
-36
-36
-35
-35
-35
-36
-36
-36
-34
-35
-35
-35
-35
-35
-34
-33
-33
-34
-33
-34
-33
-32
-32
-32
-32
-32
-32
-31
-30
-30
-30
-30
-29
-29
-29
-28
-28
-27
-28
-29
-28
-28
-28
-27
-28
-29
-29
-29
-29
-29
-29
-30
-31
-31
-31
-31
-32
-32
-33
-32
-33
-33
-33
-33
-33
-34
-33
-34
-34
-33
-33
-33
-34
-34
-34
-33
-34
-34
-34
-35
-35
-35
-35
-35
-36
-37
-37
-36
-36
-37
-37
-37
-38
-39
-39
-39
-38
-39
-39
-40
-40
-39
-39
-39
-40
-40
-40
-40
-39
-40
-39
-40
-40
-40
-40
-39
-39
-40
-40
-41
-41
-41
-40
-40
-41
-41
-41
-41
-40
-40
-41
-41
-42
-42
-41
-41
-40
-41
-41
-42
-42
-41
-41
-41
-41
-41
-41
-40
-40
-40
-40
-40
-40
-40
-40
-40
-40
-40
-40
-40
-40
-40
-40
-40
-40
-40
-40
-40
-40
-40
-40
-41
-41
-41
-41
-41
-40
-41
-42
-41
-41
-40
-40
-39
-38
-37
-35
-33
-30
-26
-22
-18
-14
-8
-1
6
14
21
30
39
48
58
67
78
87
97
108
118
129
139
147
155
163
169
176
182
185
189
190
190
190
188
184
179
171
163
154
144
134
123
110
98
85
72
59
47
34
23
11
0
-8
-17
-24
-30
-36
-41
-45
-47
-49
-50
-51
-52
-53
-52
-52
-51
-50
-49
-49
-48
-47
-46
-44
-44
-43
-43
-41
-40
-39
-38
-38
-37
-37
-36
-35
-34
-34
-34
-34
-35
-34
-34
-33
-33
-33
-34
-33
-34
-32
-33
-33
-33
-33
-33
-33
-33
-33
-33
-33
-34
-34
-33
-33
-33
-33
-33
-33
-33
-32
-32
-32
-32
-33
-32
-32
-32
-32
-32
-32
-33
-33
-32
-31
-31
-31
-32
-32
-32
-30
-31
-31
-31
-32
-31
-31
-29
-30
-29
-30
-30
-30
-30
-29
-29
-29
-29
-29
-30
-28
-29
-29
-29
-29
-29
-29
-29
-29
-28
-29
-30
-30
-29
-29
-29
-29
-29
-29
-29
-27
-28
-28
-28
-29
-28
-28
-27
-27
-27
-27
-28
-27
-26
-26
-26
-26
-26
-26
-26
-26
-25
-25
-25
-25
-25
-25
-25
-25
-24
-25
-25
-25
-25
-24
-23
-24
-24
-23
-24
-23
-23
-23
-23
-23
-23
-23
-22
-22
-21
-22
-22
-22
-22
-21
-20
-20
-21
-21
-20
-20
-19
-19
-18
-19
-19
-18
-17
-17
-16
-16
-17
-16
-15
-15
-14
-14
-14
-14
-13
-12
-11
-11
-12
-11
-11
-10
-9
-9
-8
-8
-8
-7
-6
-4
-4
-3
-3
-2
-1
-1
1
1
2
2
3
3
5
6
6
7
8
8
10
11
13
12
13
14
16
17
18
18
20
21
21
23
24
25
26
27
27
28
30
31
33
33
34
35
36
37
39
39
41
41
42
43
45
46
46
46
47
49
49
51
51
51
53
53
54
55
56
56
56
58
58
59
59
59
60
60
59
60
60
61
61
60
60
60
60
60
59
59
57
56
56
55
54
54
53
51
49
47
46
45
44
42
40
38
36
35
34
31
29
26
25
24
21
20
17
16
13
11
10
8
6
4
2
0
-2
-2
-4
-5
-7
-9
-10
-11
-13
-13
-14
-16
-18
-18
-19
-20
-21
-22
-23
-25
-24
-25
-25
-26
-27
-28
-28
-28
-29
-29
-29
-30
-31
-31
-31
-31
-32
-32
-33
-33
-33
-33
-33
-33
-34
-34
-34
-34
-34
-34
-35
-35
-35
-35
-35
-34
-35
-35
-35
-36
-36
-35
-35
-35
-35
-36
-36
-35
-35
-35
-36
-36
-36
-36
-36
-36
-36
-37
-37
-36
-36
-36
-36
-36
-37
-37
-37
-36
-36
-36
-37
-37
-38
-38
-37
-37
-37
-37
-38
-37
-38
-38
-37
-37
-38
-38
-39
-38
-38
-38
-38
-39
-38
-38
-39
-39
-39
-39
-39
-39
-39
-39
-38
-38
-38
-38
-39
-39
-38
-38
-38
-39
-39
-39
-38
-38
-38
-38
-39
-38
-38
-37
-37
-38
-38
-39
-39
-38
-38
-38
-38
-38
-39
-39
-38
-38
-38
-39
-39
-39
-38
-38
-38
-38
-38
-38
-38
-38
-38
-38
-38
-38
-39
-39
-38
-38
-37
-37
-39
-38
-38
-38
-37
-37
-38
-38
-38
-37
-37
-37
-38
-38
-38
-38
-37
-37
-37
-37
-37
-37
-38
-37
-37
-37
-37
-37
-37
-37
-36
-36
-37
-37
-36
-37
-36
-36
-36
-37
-37
-37
-36
-36
-35
-36
-36
-37
-36
-37
-36
-36
-37
-37
-37
-37
-37
-36
-36
-37
-37
-38
-37
-37
-36
-36
-37
-38
-38
-37
-37
-37
-38
-38
-39
-39
-38
-38
-38
-38
-39
-40
-39
-38
-38
-38
-38
-40
-40
-39
-39
-38
-39
-39
-40
-40
-39
-39
-39
-40
-40
-40
-39
-39
-38
-38
-39
-39
-39
-39
-38
-39
-38
-39
-39
-39
-39
-39
-39
-39
-39
-39
-39
-39
-39
-39
-39
-39
-39
-39
-39
-38
-39
-39
-40
-40
-39
-39
-38
-39
-40
-40
-39
-39
-39
-39
-40
-40
-40
-40
-39
-39
-40
-40
-41
-41
-41
-41
-41
-41
-41
-41
-40
-40
-40
-41
-40
-41
-41
-41
-41
-40
-41
-41
-42
-41
-41
-41
-41
-41
-42
-42
-41
-41
-40
-40
-41
-42
-41
-41
-41
-40
-41
-41
-41
-41
-41
-41
-41
-41
-42
-42
-41
-41
-40
-40
-41
-41
-42
-42
-41
-41
-41
-42
-42
-42
-41
-41
-41
-41
-42
-43
-42
-42
-41
-41
-41
-42
-42
-41
-41
-41
-42
-42
-43
-42
-42
-42
-41
-41
-43
-43
-42
-42
-41
-41
-42
-42
-42
-41
-41
-42
-42
-43
-42
-42
-42
-42
-42
-42
-43
-42
-43
-42
-42
-42
-42
-43
-42
-42
-42
-42
-42
-42
-43
-43
-42
-42
-42
-42
-43
-42
-43
-42
-42
-42
-42
-43
-43
-43
-42
-42
-42
-43
-43
-43
-43
-42
-42
-43
-43
-43
-42
-42
-41
-41
-42
-42
-42
-42
-42
-42
-42
-42
-42
-42
-42
-42
-42
-43
-43
-44
-43
-43
-43
-43
-43
-43
-43
-43
-43
-43
-43
-43
-43
-43
-43
-43
-43
-43
-43
-43
-43
-43
-43
-43
-43
-43
-44
-44
-43
-44
-43
-43
-44
-44
-43
-43
-43
-44
-44
-44
-43
-43
-43
-43
-43
-43
-43
-43
-42
-42
-43
-43
-43
-43
-42
-42
-42
-42
-42
-42
-43
-42
-42
-42
-42
-43
-44
-43
-43
-42
-43
-43
-43
-43
-43
-43
-43
-43
-43
-43
-43
-42
-42
-42
-42
-42
-42
-42
-41
-42
-42
-43
-42
-42
-42
-41
-42
-42
-42
-43
-43
-42
-42
-42
-43
-43
-43
-43
-42
-41
-42
-43
-42
-42
-42
-41
-42
-42
-42
-42
-42
-42
-41
-41
-42
-42
-42
-42
-42
-42
-42
-42
-43
-43
-42
-41
-41
-42
-42
-41
-42
-41
-41
-41
-41
-41
-41
-41
-40
-41
-40
-40
-40
-40
-40
-39
-39
-40
-40
-39
-38
-38
-37
-37
-37
-38
-37
-37
-36
-36
-36
-36
-36
-35
-35
-35
-34
-34
-35
-35
-34
-33
-32
-32
-32
-32
-32
-31
-31
-30
-30
-30
-30
-30
-29
-29
-28
-29
-29
-29
-29
-29
-29
-29
-29
-30
-31
-31
-30
-31
-31
-31
-32
-32
-32
-32
-33
-33
-34
-34
-34
-34
-33
-33
-34
-34
-34
-35
-34
-35
-34
-35
-35
-36
-36
-35
-36
-36
-37
-37
-37
-37
-37
-38
-38
-39
-39
-38
-39
-39
-39
-40
-40
-41
-41
-40
-41
-41
-42
-43
-42
-42
-43
-43
-43
-44
-43
-43
-43
-43
-44
-44
-44
-44
-44
-44
-44
-44
-44
-44
-44
-43
-44
-43
-44
-44
-44
-44
-43
-42
-43
-44
-44
-44
-43
-43
-43
-43
-44
-44
-43
-43
-43
-43
-43
-43
-43
-42
-42
-41
-42
-42
-43
-43
-42
-42
-41
-41
-43
-42
-42
-42
-41
-41
-42
-42
-43
-43
-43
-42
-43
-44
-45
-45
-44
-44
-45
-44
-45
-45
-44
-43
-41
-39
-38
-35
-32
-29
-24
-19
-14
-9
-2
5
13
22
31
40
48
58
68
79
89
101
110
120
130
141
149
159
166
173
178
183
188
191
193
193
191
189
185
179
172
164
153
143
131
120
108
95
82
68
55
42
29
18
7
-3
-13
-22
-28
-35
-39
-44
-47
-51
-53
-54
-55
-54
-54
-54
-54
-54
-52
-52
-50
-49
-48
-48
-47
-46
-44
-43
-42
-42
-42
-41
-40
-39
-39
-39
-39
-38
-38
-37
-37
-37
-38
-38
-38
-36
-37
-37
-37
-37
-37
-37
-36
-36
-36
-37
-37
-37
-36
-36
-35
-36
-36
-37
-36
-36
-35
-35
-35
-35
-36
-36
-35
-34
-35
-36
-35
-35
-35
-34
-35
-35
-35
-35
-34
-34
-34
-34
-34
-34
-34
-35
-33
-34
-33
-34
-35
-34
-34
-33
-32
-33
-33
-34
-33
-33
-32
-32
-33
-33
-32
-32
-32
-32
-32
-32
-32
-32
-32
-31
-32
-32
-32
-32
-32
-32
-32
-32
-32
-32
-32
-32
-31
-31
-32
-32
-32
-32
-31
-31
-31
-30
-32
-31
-31
-30
-30
-30
-30
-31
-30
-30
-29
-28
-29
-30
-30
-29
-29
-28
-28
-29
-29
-28
-29
-28
-28
-28
-28
-28
-28
-27
-27
-27
-27
-27
-28
-28
-27
-26
-26
-26
-26
-26
-25
-25
-24
-24
-25
-25
-25
-24
-22
-23
-22
-22
-23
-22
-21
-21
-21
-21
-21
-20
-20
-19
-19
-19
-18
-18
-18
-17
-17
-16
-16
-16
-16
-15
-15
-13
-13
-13
-13
-12
-11
-11
-9
-9
-8
-8
-8
-7
-6
-5
-4
-4
-4
-4
-2
-1
0
0
0
1
3
4
5
5
6
7
8
9
10
12
12
13
14
16
17
19
20
21
21
23
24
26
26
28
29
29
31
32
33
34
35
36
36
38
39
40
40
41
42
42
43
45
46
47
47
48
49
49
50
51
51
52
51
52
53
54
54
54
54
54
55
55
55
55
55
54
53
54
54
54
52
51
50
49
49
48
47
46
44
42
41
40
39
37
35
32
31
29
28
26
23
22
19
18
16
14
13
9
8
5
4
3
1
-1
-3
-5
-6
-7
-8
-10
-11
-13
-15
-16
-17
-18
-19
-20
-21
-22
-23
-24
-24
-25
-26
-27
-28
-28
-29
-30
-31
-31
-33
-33
-34
-34
-34
-35
-36
-36
-36
-37
-37
-37
-38
-38
-39
-39
-39
-39
-39
-39
-40
-40
-40
-40
-40
-40
-41
-41
-42
-40
-41
-41
-41
-42
-42
-41
-41
-41
-41
-41
-42
-42
-41
-41
-41
-41
-42
-42
-41
-41
-41
-42
-42
-43
-42
-43
-42
-43
-42
-43
-43
-44
-43
-43
-43
-44
-44
-45
-45
-45
-44
-44
-44
-44
-45
-45
-44
-44
-44
-45
-45
-45
-44
-44
-44
-45
-45
-46
-45
-45
-44
-44
-45
-45
-45
-44
-44
-44
-44
-45
-45
-45
-45
-44
-45
-45
-46
-45
-46
-44
-45
-44
-45
-45
-45
-45
-45
-44
-45
-45
-45
-46
-45
-45
-44
-44
-44
-45
-44
-44
-44
-44
-44
-44
-44
-44
-43
-43
-43
-43
-44
-44
-43
-43
-43
-44
-44
-43
-44
-43
-42
-42
-43
-43
-44
-43
-43
-42
-43
-43
-43
-44
-43
-43
-42
-43
-44
-44
-44
-43
-43
-43
-44
-44
-44
-43
-43
-44
-43
-44
-44
-44
-44
-44
-43
-44
-44
-44
-44
-44
-43
-44
-43
-44
-44
-43
-43
-44
-43
-44
-44
-44
-43
-43
-43
-44
-44
-44
-44
-44
-44
-44
-43
-43
-44
-44
-43
-43
-44
-44
-43
-43
-44
-43
-42
-43
-43
-44
-43
-43
-43
-44
-43
-44
-44
-44
-44
-44
-44
-45
-45
-45
-45
-44
-45
-45
-45
-46
-45
-45
-45
-45
-45
-45
-46
-46
-45
-46
-46
-46
-46
-46
-47
-46
-46
-46
-46
-47
-46
-46
-46
-46
-46
-47
-46
-46
-45
-45
-46
-46
-47
-47
-46
-46
-45
-46
-46
-46
-46
-46
-45
-45
-46
-46
-47
-46
-46
-47
-47
-47
-47
-47
-47
-47
-47
-48
-48
-49
-48
-48
-47
-47
-48
-48
-49
-48
-48
-48
-48
-48
-49
-48
-48
-47
-48
-48
-48
-49
-48
-48
-48
-48
-48
-48
-48
-48
-47
-48
-47
-47
-48
-48
-48
-48
-47
-48
-48
-49
-48
-48
-48
-49
-48
-49
-49
-48
-48
-49
-48
-49
-49
-49
-48
-48
-47
-48
-48
-48
-48
-47
-47
-47
-47
-48
-47
-48
-47
-47
-47
-48
-48
-48
-49
-48
-49
-49
-49
-50
-49
-49
-48
-50
-50
-50
-51
-51
-50
-51
-50
-51
-52
-52
-51
-51
-51
-51
-52
-51
-52
-51
-51
-50
-50
-51
-51
-51
-50
-50
-49
-49
-50
-50
-50
-50
-49
-50
-50
-51
-50
-50
-49
-49
-50
-50
-51
-50
-50
-50
-50
-50
-51
-51
-51
-51
-51
-51
-51
-51
-51
-51
-51
-51
-51
-52
-51
-51
-51
-51
-51
-51
-51
-51
-51
-51
-51
-51
-52
-51
-51
-50
-50
-50
-50
-51
-50
-50
-49
-50
-50
-50
-50
-50
-50
-50
-50
-49
-50
-50
-50
-49
-50
-49
-50
-50
-51
-50
-50
-50
-51
-51
-51
-51
-52
-51
-51
-51
-52
-52
-52
-52
-52
-52
-52
-52
-52
-52
-52
-52
-52
-53
-52
-52
-53
-51
-52
-52
-53
-53
-53
-52
-52
-52
-52
-53
-52
-52
-52
-52
-52
-52
-52
-52
-52
-52
-52
-52
-53
-53
-52
-52
-52
-52
-52
-52
-52
-51
-51
-51
-51
-52
-52
-52
-52
-51
-51
-52
-52
-51
-51
-50
-50
-50
-50
-50
-51
-50
-49
-49
-49
-49
-50
-49
-49
-48
-48
-49
-48
-48
-48
-47
-47
-47
-47
-47
-48
-47
-47
-46
-47
-46
-46
-46
-46
-45
-45
-45
-45
-45
-44
-44
-43
-43
-42
-43
-42
-42
-41
-41
-41
-41
-40
-40
-40
-40
-39
-40
-40
-40
-41
-41
-41
-40
-41
-42
-43
-43
-43
-43
-44
-45
-44
-45
-45
-45
-44
-45
-45
-46
-46
-46
-46
-46
-45
-46
-45
-46
-45
-46
-45
-47
-47
-47
-47
-47
-47
-48
-48
-48
-49
-49
-49
-50
-51
-51
-52
-51
-51
-51
-51
-52
-52
-53
-53
-53
-53
-54
-54
-54
-54
-54
-53
-54
-54
-54
-55
-55
-54
-54
-54
-55
-55
-56
-55
-55
-55
-55
-55
-56
-55
-56
-55
-56
-56
-56
-56
-56
-56
-56
-55
-56
-56
-56
-56
-55
-56
-55
-55
-56
-55
-55
-55
-55
-55
-55
-55
-55
-55
-55
-55
-56
-56
-56
-55
-55
-55
-55
-56
-55
-55
-54
-54
-55
-54
-55
-55
-56
-54
-55
-55
-56
-56
-57
-56
-55
-55
-54
-55
-54
-53
-50
-48
-46
-42
-40
-35
-30
-24
-18
-11
-4
3
11
20
30
39
48
58
68
78
89
100
110
120
128
137
145
153
159
164
169
172
175
175
175
174
170
164
159
151
143
133
122
110
97
85
73
60
48
35
22
10
-2
-12
-21
-30
-38
-45
-50
-56
-60
-62
-64
-66
-68
-69
-69
-69
-68
-67
-67
-67
-66
-65
-64
-63
-62
-61
-60
-59
-57
-57
-55
-55
-55
-54
-54
-52
-51
-51
-51
-51
-51
-50
-49
-49
-50
-50
-50
-49
-49
-49
-49
-49
-49
-50
-50
-49
-49
-49
-50
-49
-49
-50
-50
-49
-50
-50
-50
-50
-49
-49
-49
-49
-50
-50
-49
-49
-49
-49
-49
-50
-50
-50
-49
-49
-49
-49
-49
-49
-49
-48
-48
-48
-48
-48
-48
-48
-47
-48
-48
-47
-47
-47
-47
-46
-47
-47
-46
-47
-46
-45
-45
-45
-45
-46
-45
-45
-44
-44
-45
-45
-45
-44
-44
-45
-44
-44
-45
-44
-44
-44
-44
-44
-45
-45
-45
-44
-44
-44
-44
-44
-44
-44
-43
-43
-44
-44
-43
-43
-42
-42
-42
-43
-42
-42
-42
-41
-42
-41
-42
-42
-42
-41
-41
-41
-41
-42
-41
-41
-41
-41
-40
-41
-41
-41
-41
-39
-40
-40
-40
-40
-40
-39
-39
-38
-38
-38
-39
-38
-38
-37
-37
-37
-37
-37
-36
-36
-35
-35
-35
-35
-35
-34
-34
-33
-33
-34
-33
-32
-32
-31
-30
-31
-31
-30
-30
-29
-28
-27
-27
-27
-26
-26
-24
-23
-23
-23
-22
-21
-21
-19
-19
-19
-19
-18
-17
-15
-15
-14
-14
-13
-13
-12
-10
-10
-9
-9
-8
-7
-6
-5
-4
-3
-2
-1
0
1
2
3
4
4
5
7
8
10
11
11
12
13
15
16
18
18
19
20
21
23
24
24
24
25
26
27
28
29
30
30
31
31
32
33
33
34
34
35
35
36
37
37
37
37
38
39
39
39
39
38
39
38
39
39
39
38
38
37
37
37
37
35
34
33
32
32
31
29
28
25
24
23
22
21
19
17
14
12
10
9
7
4
2
1
-2
-3
-5
-7
-9
-11
-13
-15
-16
-18
-19
-21
-23
-24
-26
-27
-28
-30
-31
-33
-35
-35
-36
-37
-38
-40
-41
-41
-42
-43
-44
-44
-46
-46
-47
-47
-48
-48
-49
-50
-50
-51
-51
-51
-52
-53
-53
-54
-53
-54
-54
-54
-55
-55
-55
-55
-55
-55
-56
-56
-56
-56
-56
-56
-57
-57
-58
-57
-57
-57
-57
-58
-58
-59
-58
-58
-58
-59
-59
-59
-59
-59
-59
-58
-59
-58
-59
-59
-59
-58
-58
-58
-59
-59
-59
-59
-58
-59
-59
-60
-59
-59
-59
-59
-60
-60
-61
-60
-60
-59
-60
-60
-60
-61
-60
-60
-60
-60
-61
-61
-61
-60
-60
-60
-61
-61
-61
-61
-60
-60
-60
-61
-61
-61
-61
-61
-60
-60
-60
-61
-61
-60
-60
-60
-61
-61
-61
-61
-60
-61
-60
-61
-61
-61
-62
-61
-60
-61
-61
-61
-62
-61
-61
-60
-61
-61
-60
-61
-60
-60
-59
-60
-60
-61
-60
-60
-59
-60
-61
-61
-61
-61
-60
-61
-60
-61
-61
-61
-60
-60
-60
-60
-61
-61
-61
-60
-60
-61
-61
-61
-61
-60
-60
-61
-60
-61
-61
-61
-61
-61
-60
-60
-61
-60
-61
-59
-60
-59
-60
-60
-60
-60
-58
-59
-59
-60
-59
-59
-59
-59
-58
-59
-59
-59
-59
-59
-58
-59
-59
-60
-59
-59
-59
-59
-59
-59
-60
-60
-60
-60
-60
-59
-61
-60
-60
-60
-60
-60
-60
-60
-60
-60
-60
-59
-59
-60
-60
-60
-60
-59
-59
-60
-60
-59
-60
-59
-59
-60
-60
-61
-61
-60
-60
-60
-61
-62
-61
-61
-61
-61
-61
-61
-62
-62
-62
-61
-61
-61
-61
-62
-62
-62
-62
-62
-62
-63
-63
-63
-63
-63
-62
-62
-63
-63
-63
-62
-62
-62
-63
-64
-63
-63
-62
-61
-62
-62
-62
-62
-61
-61
-61
-61
-62
-62
-62
-62
-61
-61
-62
-62
-63
-62
-62
-62
-63
-63
-63
-63
-62
-62
-62
-62
-63
-63
-63
-62
-62
-62
-62
-62
-62
-63
-62
-62
-62
-63
-62
-63
-62
-62
-62
-61
-62
-63
-63
-61
-62
-61
-62
-63
-62
-62
-61
-62
-62
-63
-63
-64
-63
-63
-63
-64
-64
-64
-64
-64
-63
-64
-65
-65
-65
-64
-64
-64
-64
-64
-65
-64
-64
-63
-63
-64
-64
-64
-64
-64
-63
-64
-64
-64
-65
-64
-64
-64
-63
-64
-64
-64
-64
-64
-63
-64
-64
-65
-64
-64
-64
-64
-64
-65
-65
-64
-64
-64
-65
-65
-65
-65
-65
-64
-64
-65
-66
-65
-65
-65
-64
-64
-65
-65
-65
-64
-64
-64
-63
-65
-64
-64
-63
-63
-63
-64
-64
-63
-63
-62
-62
-63
-63
-63
-63
-63
-62
-63
-62
-62
-63
-63
-62
-62
-62
-62
-62
-63
-62
-61
-61
-61
-62
-61
-61
-61
-60
-60
-60
-60
-60
-59
-59
-59
-59
-59
-59
-60
-59
-59
-58
-59
-59
-60
-59
-59
-58
-59
-58
-58
-59
-58
-58
-58
-57
-57
-57
-57
-56
-56
-55
-54
-55
-54
-54
-53
-52
-51
-52
-51
-51
-51
-50
-50
-49
-50
-49
-49
-49
-49
-49
-49
-50
-51
-51
-51
-51
-50
-51
-52
-52
-52
-52
-51
-52
-52
-53
-52
-53
-52
-52
-53
-53
-53
-54
-53
-53
-53
-53
-54
-54
-54
-53
-54
-54
-55
-55
-56
-56
-56
-56
-57
-57
-58
-58
-59
-59
-59
-59
-60
-60
-60
-60
-60
-60
-60
-60
-61
-60
-60
-61
-61
-61
-62
-61
-61
-61
-61
-62
-62
-62
-62
-62
-62
-62
-61
-63
-62
-63
-61
-62
-62
-62
-63
-62
-62
-61
-61
-61
-62
-62
-62
-61
-61
-61
-60
-61
-61
-61
-60
-60
-60
-61
-60
-61
-60
-60
-59
-60
-60
-60
-60
-60
-58
-58
-59
-59
-59
-58
-59
-58
-58
-59
-60
-60
-59
-59
-59
-60
-61
-61
-60
-60
-60
-59
-59
-58
-58
-56
-55
-53
-50
-48
-45
-41
-37
-31
-25
-19
-12
-5
3
12
21
30
40
49
59
69
80
90
100
109
119
127
135
143
150
155
159
164
166
168
169
167
163
159
153
146
138
129
118
107
96
83
71
58
46
33
20
8
-3
-13
-23
-31
-40
-48
-53
-58
-62
-64
-66
-69
-70
-71
-70
-70
-69
-69
-69
-68
-67
-65
-64
-63
-62
-62
-61
-60
-58
-57
-57
-57
-57
-56
-55
-54
-54
-54
-54
-53
-52
-52
-52
-51
-51
-51
-52
-51
-51
-51
-51
-51
-51
-51
-50
-50
-50
-50
-50
-50
-50
-50
-50
-49
-49
-50
-49
-50
-48
-49
-48
-49
-49
-49
-49
-48
-47
-48
-48
-48
-47
-46
-46
-45
-46
-46
-46
-46
-45
-45
-45
-45
-46
-46
-45
-45
-45
-45
-45
-46
-45
-45
-44
-44
-44
-44
-45
-44
-44
-43
-44
-43
-43
-43
-43
-42
-43
-42
-42
-43
-42
-42
-42
-41
-41
-41
-41
-42
-40
-41
-41
-41
-40
-41
-41
-40
-40
-39
-41
-40
-39
-39
-38
-39
-39
-39
-39
-38
-38
-38
-38
-38
-38
-38
-38
-38
-37
-37
-38
-37
-37
-36
-36
-36
-36
-37
-36
-36
-35
-36
-35
-36
-35
-35
-36
-34
-34
-34
-34
-35
-34
-34
-34
-33
-33
-33
-33
-32
-32
-31
-31
-31
-32
-32
-31
-29
-30
-29
-29
-29
-29
-27
-27
-27
-26
-26
-26
-25
-25
-24
-24
-23
-24
-23
-22
-21
-20
-21
-20
-21
-20
-18
-18
-17
-18
-17
-16
-15
-15
-14
-14
-13
-14
-12
-11
-11
-10
-10
-9
-8
-7
-7
-5
-4
-3
-3
-2
-1
1
1
3
3
4
5
6
8
9
10
11
12
13
15
16
18
18
19
20
22
22
24
25
26
26
27
28
30
31
32
32
33
34
35
37
37
38
38
39
40
41
42
43
43
44
44
45
46
47
47
47
47
48
48
49
49
49
48
48
49
48
48
48
47
46
45
44
44
43
42
40
39
38
37
36
35
33
31
29
28
27
25
22
21
19
16
15
14
12
10
7
6
4
2
0
-1
-3
-5
-7
-9
-10
-11
-14
-16
-18
-19
-20
-21
-22
-23
-25
-26
-28
-28
-29
-30
-31
-32
-33
-34
-35
-35
-36
-37
-38
-39
-40
-40
-40
-41
-43
-43
-43
-44
-44
-44
-45
-45
-46
-46
-46
-46
-46
-47
-47
-47
-47
-47
-47
-48
-48
-48
-48
-48
-48
-48
-49
-49
-48
-49
-48
-48
-48
-48
-49
-49
-48
-48
-48
-49
-49
-50
-49
-49
-48
-48
-49
-49
-50
-49
-49
-49
-50
-50
-50
-50
-50
-50
-50
-49
-51
-50
-51
-50
-50
-50
-50
-51
-50
-51
-50
-50
-50
-50
-51
-51
-51
-51
-50
-50
-51
-51
-50
-50
-49
-50
-50
-50
-51
-50
-50
-50
-50
-50
-51
-50
-51
-51
-50
-51
-51
-51
-51
-51
-51
-51
-51
-51
-51
-51
-51
-51
-51
-52
-52
-52
-51
-51
-50
-51
-51
-51
-51
-51
-50
-51
-50
-50
-51
-50
-50
-50
-50
-51
-50
-51
-50
-50
-49
-50
-50
-50
-50
-50
-50
-50
-49
-50
-50
-50
-49
-49
-50
-50
-50
-49
-50
-50
-49
-49
-50
-49
-50
-49
-49
-48
-49
-49
-50
-49
-49
-48
-48
-49
-49
-49
-48
-48
-48
-48
-48
-49
-48
-47
-47
-47
-48
-48
-48
-48
-48
-47
-47
-48
-48
-49
-48
-48
-48
-48
-49
-49
-49
-49
-48
-49
-48
-49
-49
-48
-48
-49
-48
-49
-49
-49
-48
-48
-48
-49
-49
-49
-49
-49
-48
-48
-48
-48
-49
-49
-48
-48
-47
-48
-48
-48
-48
-47
-47
-47
-47
-48
-47
-47
-47
-47
-47
-48
-47
-48
-47
-46
-47
-48
-48
-48
-48
-47
-47
-48
-48
-49
-48
-48
-48
-48
-48
-48
-49
-49
-48
-48
-49
-49
-50
-50
-49
-49
-49
-50
-50
-50
-50
-50
-49
-49
-49
-51
-50
-50
-49
-49
-49
-50
-50
-50
-49
-49
-49
-50
-50
-50
-50
-50
-49
-49
-49
-50
-50
-50
-50
-49
-49
-50
-50
-49
-49
-49
-49
-50
-50
-49
-50
-49
-49
-49
-48
-49
-49
-49
-48
-49
-48
-49
-49
-49
-49
-49
-48
-48
-49
-50
-49
-48
-48
-49
-49
-49
-49
-50
-50
-49
-49
-50
-50
-50
-49
-49
-49
-50
-51
-51
-50
-50
-49
-50
-50
-51
-50
-51
-49
-49
-49
-50
-50
-50
-50
-49
-49
-50
-50
-50
-50
-50
-49
-49
-49
-50
-50
-50
-50
-49
-49
-50
-50
-50
-50
-50
-49
-50
-50
-51
-50
-49
-49
-49
-50
-50
-51
-50
-50
-50
-50
-50
-51
-51
-51
-51
-50
-51
-51
-52
-52
-51
-51
-51
-51
-51
-51
-52
-51
-51
-50
-51
-51
-51
-51
-50
-51
-50
-50
-51
-51
-50
-50
-49
-50
-50
-51
-50
-49
-50
-49
-50
-50
-50
-50
-49
-50
-50
-50
-50
-50
-50
-50
-50
-50
-50
-50
-50
-50
-49
-50
-50
-50
-51
-50
-50
-49
-50
-51
-50
-51
-50
-50
-50
-50
-50
-50
-50
-49
-49
-49
-50
-50
-50
-49
-49
-48
-49
-49
-50
-49
-48
-48
-48
-48
-48
-48
-48
-48
-48
-48
-49
-49
-49
-48
-48
-48
-49
-49
-49
-49
-48
-48
-48
-47
-47
-48
-48
-47
-47
-46
-47
-47
-47
-46
-45
-46
-46
-46
-47
-46
-45
-45
-45
-45
-45
-46
-45
-45
-45
-44
-45
-45
-44
-44
-44
-43
-44
-43
-44
-43
-42
-42
-42
-41
-42
-42
-41
-41
-40
-40
-40
-41
-41
-40
-40
-39
-39
-39
-38
-38
-37
-37
-36
-36
-36
-36
-35
-35
-34
-34
-35
-34
-34
-33
-34
-33
-34
-34
-34
-33
-34
-33
-34
-34
-35
-35
-36
-35
-35
-36
-36
-37
-37
-37
-36
-37
-38
-38
-39
-38
-38
-38
-38
-38
-38
-39
-39
-39
-38
-39
-39
-40
-39
-40
-39
-40
-40
-41
-41
-41
-41
-41
-41
-42
-43
-43
-44
-43
-44
-44
-44
-45
-45
-46
-45
-45
-46
-46
-47
-46
-46
-46
-46
-45
-47
-46
-47
-47
-46
-46
-46
-47
-47
-47
-46
-47
-47
-47
-48
-48
-48
-48
-48
-48
-48
-48
-48
-48
-47
-48
-49
-49
-49
-48
-48
-48
-48
-48
-49
-48
-47
-47
-47
-46
-47
-47
-47
-46
-46
-46
-46
-46
-46
-46
-46
-46
-46
-46
-46
-46
-46
-45
-46
-45
-47
-47
-47
-47
-47
-48
-49
-49
-49
-49
-48
-47
-47
-46
-45
-43
-42
-39
-35
-32
-29
-24
-18
-12
-4
2
11
18
28
37
46
57
67
76
87
97
108
119
129
139
147
155
164
170
176
181
185
187
188
188
188
185
179
174
166
157
147
138
126
114
101
88
75
62
50
37
23
12
0
-10
-18
-27
-35
-40
-46
-50
-53
-55
-57
-59
-60
-60
-60
-60
-59
-59
-58
-57
-56
-54
-53
-52
-52
-51
-50
-48
-47
-47
-46
-45
-45
-45
-44
-44
-42
-43
-43
-43
-42
-42
-42
-42
-41
-42
-42
-42
-41
-41
-41
-41
-42
-42
-42
-42
-42
-42
-42
-43
-42
-43
-42
-42
-43
-43
-43
-43
-43
-42
-41
-42
-42
-42
-42
-41
-41
-41
-41
-41
-41
-41
-40
-41
-40
-41
-41
-41
-41
-40
-40
-40
-41
-40
-40
-40
-39
-39
-39
-40
-40
-40
-39
-39
-39
-39
-39
-39
-39
-38
-39
-38
-39
-39
-39
-38
-38
-39
-39
-39
-39
-38
-38
-38
-38
-38
-39
-39
-38
-38
-37
-38
-38
-38
-37
-37
-36
-37
-37
-38
-38
-37
-36
-36
-36
-36
-37
-36
-36
-35
-35
-35
-36
-36
-35
-35
-35
-35
-35
-35
-36
-35
-35
-34
-35
-35
-35
-35
-34
-34
-33
-34
-34
-33
-33
-33
-33
-33
-33
-32
-32
-32
-31
-32
-31
-31
-32
-31
-31
-30
-30
-29
-30
-29
-29
-28
-28
-28
-28
-28
-28
-27
-26
-26
-26
-26
-26
-25
-24
-24
-23
-23
-24
-23
-22
-22
-21
-21
-20
-20
-19
-19
-18
-17
-17
-16
-16
-15
-14
-13
-12
-11
-11
-11
-9
-8
-8
-6
-6
-5
-5
-3
-2
0
0
0
1
2
3
4
5
6
7
7
8
10
11
12
13
14
15
17
17
18
19
20
21
22
24
26
26
27
28
29
30
31
33
33
34
34
36
37
37
38
39
40
41
41
43
44
45
44
45
45
46
47
48
48
48
49
48
49
49
50
50
49
49
49
49
48
48
47
47
47
46
45
45
43
42
41
40
39
38
36
35
33
31
29
28
27
25
23
21
19
17
15
14
11
9
7
5
4
2
1
-1
-4
-6
-7
-9
-10
-12
-13
-16
-17
-19
-19
-21
-22
-24
-25
-26
-27
-28
-29
-30
-32
-33
-34
-34
-34
-35
-36
-37
-38
-38
-39
-38
-39
-40
-40
-41
-41
-40
-41
-42
-42
-43
-43
-43
-43
-43
-44
-44
-45
-44
-44
-45
-45
-45
-45
-45
-46
-46
-46
-46
-47
-47
-47
-47
-47
-47
-48
-48
-48
-48
-48
-48
-48
-49
-49
-49
-49
-48
-49
-49
-50
-51
-50
-49
-49
-49
-50
-50
-50
-50
-50
-49
-49
-49
-50
-50
-50
-49
-49
-49
-50
-50
-50
-50
-49
-50
-49
-49
-50
-51
-50
-50
-50
-50
-51
-52
-51
-51
-51
-51
-51
-51
-52
-51
-51
-50
-51
-51
-51
-52
-51
-51
-50
-51
-51
-52
-51
-51
-50
-50
-51
-51
-51
-50
-50
-50
-50
-51
-50
-51
-51
-50
-50
-51
-51
-51
-50
-50
-51
-50
-51
-51
-51
-51
-51
-50
-50
-50
-51
-50
-50
-50
-49
-50
-50
-50
-50
-49
-49
-50
-51
-50
-50
-50
-49
-50
-49
-51
-50
-51
-50
-50
-51
-51
-51
-51
-51
-51
-51
-51
-52
-51
-51
-51
-51
-50
-50
-51
-51
-51
-50
-50
-51
-51
-51
-52
-51
-51
-50
-50
-51
-52
-51
-50
-50
-50
-51
-51
-51
-51
-51
-51
-51
-51
-51
-51
-51
-51
-51
-52
-52
-51
-51
-51
-51
-51
-51
-51
-52
-51
-51
-50
-51
-51
-51
-52
-51
-51
-51
-51
-51
-52
-52
-51
-51
-50
-51
-51
-52
-51
-51
-51
-51
-52
-52
-52
-52
-52
-51
-52
-53
-53
-53
-52
-52
-52
-53
-53
-53
-53
-53
-53
-52
-53
-53
-54
-54
-53
-53
-53
-54
-54
-54
-54
-53
-54
-53
-54
-54
-54
-54
-53
-54
-54
-54
-55
-54
-54
-54
-53
-54
-55
-55
-54
-53
-54
-54
-54
-54
-54
-54
-54
-54
-54
-54
-55
-54
-54
-55
-54
-55
-55
-55
-55
-54
-55
-55
-55
-56
-55
-55
-55
-55
-56
-56
-57
-57
-56
-56
-56
-57
-57
-57
-57
-56
-56
-56
-56
-57
-56
-56
-56
-56
-57
-57
-57
-56
-56
-56
-56
-57
-57
-57
-57
-56
-57
-56
-58
-57
-58
-57
-57
-56
-57
-57
-58
-57
-57
-57
-57
-58
-58
-58
-58
-57
-56
-57
-57
-58
-57
-57
-57
-57
-57
-58
-58
-58
-58
-58
-59
-59
-60
-59
-59
-59
-58
-59
-60
-60
-60
-60
-59
-60
-60
-61
-61
-60
-60
-60
-60
-60
-60
-60
-60
-60
-60
-60
-61
-60
-60
-60
-60
-60
-60
-60
-60
-61
-59
-60
-60
-61
-60
-61
-60
-60
-60
-59
-61
-60
-61
-59
-60
-60
-60
-60
-60
-61
-59
-60
-60
-60
-60
-60
-60
-59
-59
-59
-59
-60
-59
-59
-58
-59
-60
-59
-60
-59
-59
-58
-59
-59
-60
-60
-59
-59
-59
-59
-60
-60
-60
-59
-60
-60
-60
-60
-60
-60
-59
-59
-60
-60
-61
-60
-60
-61
-60
-60
-60
-61
-60
-60
-60
-60
-60
-61
-61
-61
-60
-61
-61
-62
-61
-61
-61
-60
-60
-61
-61
-61
-61
-61
-60
-60
-60
-61
-61
-61
-60
-60
-60
-60
-60
-60
-60
-59
-59
-59
-60
-60
-59
-58
-58
-58
-58
-58
-59
-58
-58
-57
-57
-57
-58
-57
-57
-56
-56
-56
-56
-56
-56
-55
-55
-54
-55
-55
-54
-54
-54
-53
-53
-53
-53
-52
-51
-51
-50
-50
-51
-50
-50
-49
-49
-49
-49
-49
-49
-49
-48
-49
-49
-50
-50
-51
-50
-50
-50
-51
-52
-52
-53
-53
-53
-53
-54
-54
-54
-55
-55
-54
-55
-55
-56
-55
-54
-54
-54
-55
-55
-55
-55
-54
-55
-54
-55
-55
-56
-55
-56
-55
-56
-57
-58
-58
-58
-58
-58
-59
-60
-60
-60
-60
-61
-62
-62
-63
-63
-63
-63
-63
-63
-64
-64
-64
-64
-63
-64
-64
-64
-65
-64
-64
-64
-64
-64
-65
-65
-64
-64
-64
-65
-65
-65
-65
-64
-64
-64
-64
-65
-65
-65
-64
-64
-65
-65
-66
-65
-65
-64
-64
-64
-65
-65
-65
-65
-64
-64
-64
-64
-64
-64
-64
-64
-63
-64
-64
-64
-64
-64
-63
-64
-64
-65
-64
-64
-64
-65
-65
-66
-67
-67
-66
-67
-67
-68
-67
-67
-67
-66
-65
-63
-62
-60
-58
-54
-51
-47
-42
-37
-31
-25
-16
-9
-1
8
16
26
35
46
56
66
76
86
97
107
117
125
134
141
148
154
159
163
166
167
168
166
164
160
154
146
137
128
117
106
96
83
70
57
43
31
18
7
-6
-17
-27
-36
-45
-51
-57
-63
-68
-71
-74
-76
-77
-77
-78
-79
-79
-78
-77
-76
-75
-75
-74
-73
-72
-71
-71
-70
-69
-68
-67
-66
-65
-65
-64
-64
-64
-63
-63
-62
-62
-62
-62
-61
-60
-60
-60
-61
-60
-60
-60
-60
-60
-60
-60
-61
-60
-61
-60
-60
-61
-61
-62
-61
-61
-60
-61
-61
-61
-62
-61
-61
-61
-61
-60
-62
-61
-61
-60
-60
-61
-61
-61
-61
-61
-60
-60
-60
-61
-61
-61
-59
-59
-59
-59
-60
-59
-59
-59
-59
-58
-58
-59
-58
-59
-59
-58
-58
-58
-58
-58
-58
-58
-57
-57
-57
-58
-57
-57
-56
-56
-56
-56
-57
-56
-55
-55
-55
-55
-56
-55
-54
-54
-54
-54
-54
-55
-54
-54
-54
-54
-54
-55
-55
-54
-54
-54
-54
-54
-55
-55
-55
-54
-54
-55
-55
-55
-55
-55
-54
-55
-55
-56
-55
-55
-54
-54
-54
-54
-54
-54
-53
-53
-53
-52
-52
-53
-52
-52
-51
-51
-51
-51
-51
-51
-50
-50
-50
-50
-50
-50
-48
-48
-48
-48
-48
-48
-48
-46
-47
-46
-46
-46
-46
-45
-45
-44
-43
-43
-44
-43
-43
-41
-41
-40
-41
-40
-40
-39
-38
-39
-38
-38
-38
-37
-36
-36
-35
-36
-35
-34
-33
-32
-31
-31
-30
-30
-29
-27
-27
-26
-25
-25
-24
-23
-22
-20
-20
-19
-18
-17
-15
-14
-14
-13
-12
-12
-10
-9
-7
-6
-5
-5
-4
-3
-1
0
1
1
2
3
4
6
7
8
8
9
9
11
12
13
13
14
14
15
17
17
18
18
19
19
21
22
22
23
23
24
24
25
25
25
25
25
25
26
26
26
26
26
25
25
25
24
24
23
22
21
20
19
19
18
16
14
13
12
10
10
8
6
4
2
1
-1
-3
-5
-7
-10
-11
-13
-15
-16
-19
-22
-23
-25
-26
-28
-30
-32
-34
-36
-37
-38
-39
-41
-42
-44
-45
-46
-47
-48
-50
-51
-52
-53
-54
-54
-56
-57
-58
-59
-59
-59
-61
-61
-62
-63
-64
-63
-64
-64
-66
-66
-66
-66
-67
-67
-67
-69
-68
-69
-68
-68
-68
-69
-70
-71
-70
-70
-71
-71
-72
-72
-72
-72
-72
-72
-72
-73
-73
-73
-73
-72
-73
-73
-74
-73
-74
-73
-73
-73
-74
-73
-74
-74
-74
-74
-73
-74
-74
-74
-74
-74
-74
-74
-75
-74
-75
-75
-74
-75
-75
-75
-75
-75
-75
-75
-75
-75
-76
-76
-76
-75
-76
-76
-76
-76
-76
-76
-75
-76
-77
-76
-77
-76
-76
-75
-76
-76
-77
-76
-75
-75
-75
-76
-76
-75
-76
-75
-75
-75
-75
-75
-75
-76
-76
-75
-75
-76
-76
-75
-75
-75
-75
-76
-76
-76
-76
-76
-75
-76
-76
-77
-77
-76
-76
-76
-77
-77
-77
-77
-77
-76
-76
-77
-77
-78
-77
-77
-76
-77
-77
-78
-78
-77
-77
-76
-77
-77
-78
-77
-76
-76
-76
-76
-77
-77
-76
-76
-76
-76
-76
-77
-76
-76
-76
-76
-76
-76
-77
-76
-76
-76
-76
-76
-77
-76
-77
-77
-76
-76
-76
-77
-77
-76
-76
-76
-77
-77
-77
-77
-77
-76
-76
-77
-77
-78
-77
-77
-77
-77
-78
-79
-78
-78
-78
-78
-78
-78
-79
-78
-78
-77
-77
-78
-78
-79
-78
-78
-77
-78
-78
-77
-78
-78
-78
-77
-78
-78
-78
-79
-77
-78
-77
-78
-78
-79
-78
-78
-77
-78
-79
-79
-79
-78
-78
-79
-78
-80
-79
-80
-79
-79
-79
-79
-80
-81
-80
-79
-80
-80
-80
-80
-80
-80
-80
-80
-80
-80
-81
-80
-80
-79
-80
-80
-80
-80
-81
-79
-80
-79
-80
-81
-81
-80
-79
-80
-79
-80
-80
-79
-79
-79
-79
-79
-80
-80
-80
-80
-80
-80
-80
-80
-81
-81
-80
-81
-81
-81
-82
-81
-81
-81
-81
-81
-82
-82
-82
-81
-81
-82
-81
-81
-81
-82
-82
-81
-82
-82
-82
-82
-82
-82
-82
-82
-83
-82
-83
-83
-83
-83
-83
-84
-84
-84
-83
-84
-84
-84
-85
-84
-84
-84
-84
-84
-85
-85
-85
-84
-84
-85
-85
-84
-85
-85
-84
-84
-84
-84
-85
-84
-84
-84
-84
-84
-85
-84
-85
-83
-84
-84
-84
-84
-84
-83
-83
-84
-84
-84
-84
-84
-83
-83
-83
-84
-84
-85
-85
-85
-84
-85
-85
-85
-85
-86
-86
-86
-85
-86
-86
-86
-86
-85
-85
-85
-86
-86
-86
-85
-85
-84
-85
-85
-86
-85
-85
-84
-84
-84
-85
-84
-84
-83
-83
-83
-84
-84
-83
-83
-83
-83
-83
-83
-83
-83
-82
-82
-82
-82
-82
-81
-81
-81
-81
-81
-82
-81
-80
-80
-79
-80
-79
-80
-80
-79
-79
-78
-78
-78
-78
-77
-77
-76
-75
-76
-76
-75
-75
-74
-74
-74
-74
-74
-75
-74
-74
-74
-74
-75
-75
-75
-74
-74
-75
-76
-76
-77
-77
-77
-77
-78
-78
-79
-79
-79
-78
-79
-79
-80
-79
-79
-79
-79
-79
-80
-80
-79
-80
-80
-79
-80
-80
-81
-81
-80
-81
-81
-81
-83
-82
-83
-83
-83
-84
-84
-85
-85
-85
-85
-85
-86
-87
-87
-87
-86
-86
-87
-87
-88
-87
-88
-87
-87
-87
-87
-87
-88
-87
-87
-86
-87
-88
-87
-88
-87
-87
-87
-87
-87
-88
-87
-87
-87
-87
-87
-88
-88
-88
-87
-86
-87
-88
-88
-88
-87
-87
-87
-88
-88
-87
-87
-87
-86
-86
-86
-86
-86
-85
-85
-84
-85
-85
-85
-85
-84
-84
-85
-84
-85
-84
-85
-85
-84
-84
-85
-86
-86
-85
-85
-85
-86
-86
-87
-87
-86
-85
-85
-84
-83
-82
-80
-78
-75
-71
-68
-64
-59
-54
-48
-41
-33
-26
-17
-9
-1
9
19
29
38
48
58
68
79
88
96
105
112
118
124
130
133
136
137
137
136
133
130
124
116
108
98
89
79
67
55
43
31
19
6
-6
-18
-29
-40
-49
-58
-65
-72
-79
-84
-88
-91
-93
-95
-96
-97
-97
-97
-97
-96
-95
-94
-93
-93
-92
-90
-89
-88
-87
-86
-85
-84
-84
-82
-81
-81
-81
-80
-80
-79
-78
-78
-78
-78
-77
-77
-77
-77
-76
-77
-77
-77
-75
-75
-75
-76
-76
-76
-76
-75
-76
-76
-76
-75
-76
-76
-76
-75
-76
-76
-76
-76
-75
-75
-75
-75
-75
-75
-74
-74
-74
-73
-74
-74
-74
-73
-73
-72
-73
-73
-72
-72
-71
-71
-71
-71
-71
-71
-70
-70
-70
-69
-69
-70
-70
-69
-69
-68
-69
-69
-69
-69
-69
-68
-68
-68
-69
-68
-69
-68
-68
-68
-68
-68
-68
-68
-67
-68
-67
-67
-68
-67
-66
-66
-66
-66
-66
-66
-66
-64
-65
-65
-65
-64
-64
-64
-64
-63
-64
-64
-63
-63
-63
-62
-62
-62
-63
-62
-62
-61
-61
-62
-61
-61
-61
-61
-60
-60
-60
-60
-60
-60
-59
-59
-59
-59
-60
-59
-60
-58
-59
-58
-58
-59
-59
-58
-58
-57
-57
-57
-58
-57
-55
-55
-55
-55
-55
-55
-54
-54
-53
-53
-53
-52
-52
-52
-51
-50
-51
-50
-49
-50
-48
-48
-47
-46
-46
-46
-45
-44
-43
-43
-43
-42
-42
-42
-40
-40
-39
-39
-39
-38
-36
-35
-35
-34
-33
-33
-32
-31
-30
-29
-29
-28
-28
-26
-25
-24
-23
-22
-22
-20
-19
-18
-17
-16
-15
-15
-13
-12
-10
-10
-9
-8
-6
-6
-4
-3
-2
-1
-1
1
2
4
5
6
6
7
9
9
10
11
12
13
14
14
16
17
17
17
18
19
21
22
22
23
23
23
24
25
25
26
26
25
26
26
27
26
27
26
26
26
26
26
25
25
23
22
22
21
20
19
18
16
15
13
12
10
8
7
4
3
1
-1
-2
-4
-7
-8
-10
-12
-13
-16
-18
-19
-22
-23
-24
-26
-28
-30
-31
-33
-34
-35
-37
-38
-41
-42
-43
-44
-45
-46
-48
-49
-50
-51
-52
-52
-53
-55
-56
-56
-56
-57
-57
-58
-59
-60
-60
-60
-61
-61
-61
-63
-63
-63
-62
-63
-64
-64
-65
-65
-65
-65
-65
-66
-66
-67
-66
-66
-66
-66
-67
-67
-68
-68
-67
-67
-68
-69
-68
-69
-68
-68
-68
-68
-69
-68
-68
-68
-68
-68
-68
-69
-68
-68
-67
-67
-68
-68
-67
-68
-67
-66
-66
-67
-67
-68
-68
-68
-67
-68
-68
-69
-69
-68
-68
-68
-68
-69
-69
-69
-68
-68
-68
-68
-69
-69
-69
-68
-69
-68
-69
-69
-69
-68
-68
-69
-69
-69
-69
-69
-69
-68
-68
-69
-69
-69
-69
-69
-68
-69
-69
-70
-69
-69
-68
-69
-68
-69
-69
-69
-68
-68
-68
-68
-69
-68
-68
-67
-68
-68
-68
-69
-69
-68
-68
-68
-68
-68
-68
-68
-68
-67
-67
-68
-68
-68
-68
-66
-67
-67
-67
-68
-67
-67
-67
-67
-67
-67
-67
-67
-67
-67
-66
-67
-67
-68
-67
-67
-67
-67
-67
-68
-68
-67
-67
-67
-67
-67
-67
-67
-67
-66
-65
-66
-66
-66
-66
-65
-65
-65
-65
-66
-65
-65
-65
-65
-64
-64
-65
-65
-65
-65
-65
-64
-66
-65
-66
-65
-65
-64
-65
-66
-65
-66
-65
-65
-65
-66
-66
-66
-66
-65
-65
-66
-66
-66
-66
-65
-66
-65
-66
-66
-66
-67
-65
-66
-66
-66
-67
-66
-66
-66
-66
-66
-66
-67
-67
-66
-65
-66
-67
-67
-67
-67
-66
-65
-66
-66
-67
-66
-66
-66
-66
-65
-66
-66
-65
-65
-66
-65
-66
-66
-66
-65
-65
-65
-66
-66
-67
-66
-66
-65
-65
-66
-66
-67
-67
-66
-66
-67
-67
-68
-68
-67
-67
-67
-68
-68
-68
-68
-68
-67
-67
-68
-68
-68
-68
-67
-67
-67
-69
-68
-69
-68
-68
-68
-68
-69
-69
-69
-68
-67
-67
-68
-68
-69
-68
-68
-67
-67
-68
-68
-68
-68
-67
-67
-67
-68
-68
-68
-68
-67
-67
-67
-68
-68
-68
-67
-67
-68
-69
-68
-69
-68
-68
-68
-68
-69
-69
-69
-69
-69
-68
-68
-68
-69
-68
-68
-68
-68
-68
-68
-68
-68
-68
-68
-68
-68
-68
-68
-67
-68
-67
-67
-68
-68
-68
-67
-67
-68
-68
-68
-68
-68
-67
-67
-67
-68
-68
-68
-67
-67
-67
-68
-68
-69
-68
-68
-67
-68
-68
-69
-69
-68
-68
-68
-68
-69
-69
-68
-68
-68
-68
-69
-69
-69
-69
-69
-69
-69
-69
-70
-69
-69
-69
-69
-69
-69
-69
-68
-68
-68
-68
-68
-68
-69
-68
-68
-68
-68
-68
-69
-69
-69
-68
-69
-68
-69
-69
-69
-69
-69
-69
-68
-68
-69
-69
-69
-68
-68
-68
-69
-69
-68
-68
-68
-69
-69
-69
-69
-69
-68
-69
-69
-70
-70
-70
-70
-69
-70
-71
-71
-71
-71
-71
-70
-71
-70
-71
-71
-70
-70
-69
-70
-70
-70
-69
-69
-69
-69
-69
-68
-69
-68
-68
-67
-67
-67
-66
-66
-66
-65
-64
-65
-65
-65
-64
-64
-64
-64
-64
-64
-64
-64
-63
-64
-63
-63
-64
-63
-62
-62
-62
-62
-62
-62
-62
-61
-60
-60
-61
-61
-61
-60
-60
-59
-59
-60
-59
-58
-58
-58
-58
-58
-58
-59
-58
-57
-58
-58
-59
-59
-59
-60
-59
-60
-60
-60
-61
-61
-61
-61
-61
-61
-61
-62
-62
-61
-61
-62
-62
-63
-63
-62
-62
-62
-62
-62
-62
-62
-62
-62
-62
-62
-63
-64
-64
-63
-64
-65
-65
-65
-67
-66
-67
-68
-68
-69
-70
-70
-70
-70
-70
-71
-71
-72
-72
-72
-71
-72
-72
-72
-73
-73
-72
-72
-72
-73
-72
-73
-72
-72
-72
-71
-72
-72
-72
-71
-72
-71
-72
-72
-72
-71
-71
-71
-72
-72
-71
-72
-71
-71
-71
-71
-71
-71
-71
-71
-70
-71
-71
-71
-71
-71
-70
-70
-71
-71
-70
-71
-70
-70
-69
-70
-70
-70
-70
-70
-70
-70
-70
-71
-71
-70
-70
-70
-71
-71
-72
-71
-71
-71
-71
-72
-73
-72
-72
-71
-70
-70
-69
-69
-66
-64
-61
-58
-55
-51
-46
-41
-34
-26
-19
-12
-3
6
15
25
35
46
55
66
77
87
97
108
117
126
134
141
149
154
159
162
165
165
165
163
160
155
148
140
131
121
111
100
87
74
61
48
35
22
10
-2
-15
-25
-36
-44
-52
-58
-65
-70
-74
-77
-79
-80
-82
-83
-84
-83
-83
-82
-81
-81
-79
-78
-78
-76
-75
-75
-74
-74
-73
-72
-71
-69
-69
-69
-69
-69
-68
-67
-66
-66
-66
-65
-66
-64
-65
-64
-64
-65
-64
-64
-64
-64
-63
-64
-63
-64
-64
-63
-62
-63
-64
-63
-63
-63
-63
-63
-63
-63
-63
-63
-63
-63
-64
-64
-63
-63
-63
-63
-62
-62
-63
-63
-63
-62
-61
-62
-62
-62
-63
-62
-62
-61
-62
-62
-61
-62
-60
-60
-60
-61
-61
-60
-61
-60
-60
-60
-60
-60
-60
-60
-59
-60
-59
-60
-60
-59
-59
-59
-59
-58
-58
-59
-58
-58
-58
-57
-58
-58
-58
-58
-57
-57
-58
-58
-58
-58
-58
-57
-57
-57
-58
-58
-58
-57
-57
-57
-58
-58
-58
-57
-57
-57
-57
-57
-58
-57
-57
-56
-56
-56
-56
-57
-56
-55
-55
-55
-55
-55
-55
-54
-54
-54
-54
-54
-54
-54
-53
-53
-52
-52
-52
-53
-52
-52
-51
-51
-51
-52
-52
-51
-49
-50
-49
-49
-49
-48
-48
-48
-47
-46
-47
-46
-46
-45
-45
-44
-45
-44
-44
-43
-43
-42
-42
-43
-42
-41
-41
-40
-39
-40
-40
-40
-38
-37
-36
-36
-35
-35
-34
-33
-32
-31
-30
-30
-29
-29
-27
-26
-25
-25
-24
-23
-22
-21
-19
-19
-18
-17
-17
-15
-14
-13
-12
-11
-11
-9
-9
-7
-6
-5
-5
-4
-2
-2
0
1
1
2
3
4
6
7
8
8
10
11
12
13
14
15
15
16
17
19
20
20
21
22
22
24
24
26
26
27
26
27
28
28
30
29
29
30
30
31
30
31
31
30
30
30
30
30
29
27
27
26
26
25
24
23
21
20
19
18
16
15
13
11
10
8
7
5
2
0
-1
-3
-5
-7
-9
-11
-14
-15
-17
-18
-20
-22
-25
-27
-28
-29
-30
-32
-34
-36
-37
-38
-39
-40
-42
-42
-44
-45
-46
-47
-48
-49
-51
-52
-53
-54
-53
-54
-55
-56
-57
-58
-58
-57
-58
-58
-60
-60
-61
-60
-60
-61
-61
-62
-62
-61
-61
-62
-62
-62
-62
-63
-62
-62
-63
-62
-63
-63
-64
-63
-63
-63
-64
-64
-64
-65
-65
-64
-65
-65
-65
-65
-64
-64
-64
-64
-65
-65
-65
-65
-65
-65
-65
-65
-65
-65
-65
-64
-65
-66
-66
-66
-66
-65
-65
-65
-66
-66
-66
-65
-65
-65
-65
-66
-67
-66
-66
-65
-65
-66
-67
-67
-65
-65
-65
-66
-66
-67
-66
-66
-66
-66
-67
-67
-67
-67
-66
-67
-67
-67
-67
-68
-67
-67
-67
-67
-68
-68
-68
-67
-67
-67
-67
-68
-68
-67
-67
-67
-66
-67
-67
-67
-66
-66
-66
-65
-66
-66
-66
-66
-66
-66
-66
-66
-66
-66
-65
-66
-66
-66
-67
-66
-65
-66
-65
-66
-66
-67
-66
-66
-66
-66
-66
-67
-66
-66
-66
-65
-66
-66
-67
-66
-65
-65
-65
-66
-66
-66
-66
-66
-65
-66
-66
-66
-66
-66
-66
-66
-66
-66
-67
-66
-66
-66
-66
-66
-67
-66
-66
-65
-66
-66
-66
-66
-66
-66
-66
-66
-67
-67
-66
-67
-67
-66
-66
-66
-66
-67
-67
-66
-66
-66
-67
-66
-66
-66
-66
-65
-66
-66
-66
-66
-66
-65
-65
-66
-66
-66
-66
-66
-65
-66
-66
-67
-67
-67
-67
-66
-67
-68
-68
-68
-67
-67
-67
-68
-68
-68
-68
-67
-67
-67
-68
-68
-68
-68
-67
-67
-68
-68
-68
-68
-67
-67
-67
-67
-67
-67
-68
-67
-67
-66
-67
-67
-67
-68
-67
-66
-67
-67
-68
-67
-67
-68
-67
-67
-69
-68
-68
-67
-68
-69
-69
-69
-69
-69
-69
-69
-68
-69
-69
-69
-69
-69
-69
-69
-70
-69
-69
-69
-69
-69
-69
-70
-70
-69
-69
-69
-69
-70
-70
-70
-70
-69
-70
-70
-70
-70
-71
-70
-70
-70
-71
-70
-70
-71
-70
-70
-70
-71
-71
-70
-70
-70
-70
-70
-70
-70
-69
-69
-70
-69
-70
-70
-70
-70
-70
-70
-70
-70
-71
-70
-70
-70
-70
-70
-71
-71
-71
-70
-70
-70
-71
-71
-71
-70
-70
-70
-71
-71
-72
-71
-70
-70
-70
-71
-71
-71
-71
-71
-70
-70
-71
-71
-71
-70
-70
-71
-71
-71
-71
-71
-71
-70
-69
-70
-70
-71
-71
-70
-70
-70
-71
-71
-72
-71
-71
-71
-72
-72
-71
-72
-71
-71
-71
-71
-72
-72
-72
-71
-71
-71
-73
-72
-73
-72
-72
-72
-72
-73
-72
-73
-73
-72
-72
-73
-73
-74
-73
-73
-73
-73
-73
-74
-75
-74
-74
-74
-75
-75
-74
-75
-74
-74
-74
-75
-75
-75
-74
-74
-74
-74
-74
-75
-75
-74
-74
-73
-74
-74
-74
-74
-73
-72
-72
-73
-73
-74
-73
-73
-73
-73
-74
-73
-74
-74
-73
-73
-73
-74
-74
-74
-73
-73
-72
-73
-74
-74
-73
-73
-73
-73
-73
-74
-74
-74
-74
-73
-74
-75
-74
-75
-74
-74
-74
-75
-75
-75
-75
-75
-74
-75
-75
-76
-75
-75
-74
-75
-74
-74
-74
-73
-73
-72
-72
-72
-72
-72
-72
-72
-71
-70
-70
-71
-70
-70
-69
-69
-69
-69
-70
-69
-68
-69
-68
-68
-68
-69
-68
-68
-68
-68
-68
-68
-68
-68
-67
-67
-67
-67
-67
-67
-66
-66
-64
-65
-65
-65
-65
-63
-63
-62
-63
-63
-62
-62
-61
-61
-61
-62
-61
-62
-61
-61
-61
-62
-63
-63
-63
-63
-63
-63
-64
-65
-65
-65
-66
-65
-65
-67
-67
-67
-67
-66
-67
-67
-68
-68
-68
-68
-67
-68
-68
-69
-68
-69
-69
-68
-69
-70
-70
-70
-69
-69
-69
-70
-71
-71
-72
-71
-72
-72
-72
-73
-74
-74
-74
-74
-75
-75
-75
-75
-75
-75
-75
-76
-76
-76
-76
-76
-76
-76
-77
-76
-76
-77
-77
-76
-76
-76
-77
-77
-76
-76
-76
-77
-77
-76
-76
-76
-75
-76
-76
-76
-76
-76
-76
-75
-75
-76
-76
-75
-75
-74
-75
-75
-76
-76
-75
-74
-75
-74
-75
-75
-75
-75
-75
-74
-75
-75
-75
-76
-75
-75
-75
-76
-76
-76
-76
-76
-76
-76
-77
-78
-78
-78
-78
-78
-78
-79
-79
-78
-77
-75
-74
-74
-73
-70
-67
-63
-60
-55
-51
-46
-40
-32
-24
-16
-8
1
9
20
30
40
51
62
72
82
92
103
113
121
130
136
144
149
155
158
160
162
160
159
156
152
145
136
128
117
106
96
84
70
56
43
30
18
5
-7
-20
-31
-41
-50
-57
-64
-71
-75
-80
-83
-84
-86
-88
-88
-89
-89
-88
-87
-86
-85
-84
-84
-83
-82
-81
-79
-78
-78
-77
-77
-76
-74
-73
-72
-72
-72
-73
-72
-71
-71
-71
-71
-71
-71
-71
-70
-70
-70
-71
-70
-70
-70
-70
-70
-70
-70
-70
-70
-69
-69
-69
-70
-70
-70
-69
-69
-69
-70
-70
-70
-69
-69
-69
-69
-70
-70
-70
-69
-69
-68
-69
-69
-69
-69
-68
-68
-68
-68
-68
-68
-68
-68
-67
-67
-67
-68
-67
-67
-66
-67
-66
-66
-67
-66
-66
-65
-66
-66
-66
-66
-65
-65
-65
-65
-65
-66
-66
-65
-65
-65
-65
-66
-66
-66
-64
-64
-64
-64
-64
-64
-65
-64
-64
-64
-63
-64
-64
-64
-63
-64
-64
-64
-65
-64
-64
-64
-64
-64
-64
-64
-63
-63
-63
-63
-63
-63
-63
-63
-63
-62
-62
-62
-62
-62
-61
-60
-60
-61
-61
-60
-60
-59
-59
-59
-60
-59
-59
-59
-58
-59
-58
-58
-59
-58
-58
-57
-57
-57
-57
-57
-57
-56
-56
-55
-56
-56
-56
-55
-55
-54
-54
-54
-54
-53
-53
-52
-52
-51
-51
-51
-51
-50
-50
-49
-49
-49
-49
-48
-47
-47
-46
-46
-46
-45
-43
-43
-42
-42
-41
-41
-40
-39
-38
-37
-36
-37
-35
-35
-33
-32
-32
-32
-31
-30
-29
-28
-27
-26
-25
-24
-24
-22
-21
-20
-19
-18
-17
-16
-14
-13
-12
-12
-11
-9
-8
-6
-5
-5
-4
-3
-2
-1
0
1
2
2
4
4
6
7
7
8
9
10
11
12
13
13
13
14
16
17
17
18
19
19
19
20
21
21
22
22
22
22
24
24
24
24
22
22
22
22
23
22
21
20
19
18
18
17
15
13
12
11
10
9
7
5
2
1
-1
-2
-4
-5
-8
-11
-12
-14
-15
-17
-20
-22
-24
-25
-27
-28
-30
-32
-35
-36
-38
-38
-40
-42
-43
-45
-47
-48
-49
-49
-52
-52
-53
-55
-55
-56
-56
-57
-59
-60
-60
-61
-61
-61
-63
-64
-64
-65
-64
-65
-66
-67
-67
-67
-67
-67
-67
-68
-69
-69
-70
-69
-69
-70
-70
-71
-71
-71
-71
-71
-71
-72
-72
-72
-71
-71
-71
-72
-72
-73
-72
-72
-72
-72
-73
-73
-73
-73
-73
-73
-74
-74
-75
-74
-74
-73
-73
-74
-75
-75
-75
-75
-74
-75
-75
-76
-76
-75
-75
-75
-76
-76
-75
-76
-76
-75
-74
-75
-75
-76
-75
-75
-74
-75
-75
-75
-75
-75
-75
-74
-75
-75
-75
-75
-75
-74
-74
-75
-75
-76
-75
-75
-74
-75
-75
-76
-76
-75
-75
-75
-75
-76
-76
-76
-75
-75
-75
-76
-76
-76
-75
-75
-74
-75
-76
-75
-75
-76
-74
-74
-75
-75
-76
-75
-75
-75
-75
-75
-75
-76
-75
-75
-76
-75
-76
-76
-77
-76
-76
-76
-77
-77
-77
-77
-76
-76
-76
-77
-77
-77
-78
-77
-77
-76
-77
-78
-77
-77
-77
-77
-77
-78
-77
-77
-77
-76
-76
-77
-77
-76
-77
-77
-76
-77
-77
-77
-77
-77
-76
-76
-77
-77
-77
-77
-77
-76
-76
-77
-77
-77
-76
-76
-76
-76
-77
-76
-76
-76
-76
-76
-76
-77
-77
-76
-76
-75
-75
-76
-76
-76
-76
-75
-76
-75
-76
-76
-76
-76
-76
-75
-76
-76
-76
-76
-75
-75
-75
-75
-77
-76
-76
-76
-76
-76
-76
-76
-76
-77
-77
-76
-76
-78
-78
-78
-77
-77
-77
-78
-78
-78
-78
-78
-77
-78
-79
-79
-79
-78
-78
-78
-79
-79
-79
-79
-79
-78
-79
-79
-80
-79
-80
-79
-79
-80
-80
-80
-80
-80
-79
-80
-80
-81
-81
-81
-81
-80
-80
-81
-81
-81
-81
-80
-81
-81
-82
-81
-81
-82
-81
-81
-81
-82
-82
-82
-81
-81
-81
-82
-82
-81
-82
-82
-81
-82
-82
-82
-82
-82
-82
-82
-81
-82
-82
-82
-81
-81
-81
-82
-82
-82
-82
-82
-81
-82
-82
-83
-82
-82
-82
-82
-83
-83
-83
-83
-83
-82
-82
-83
-83
-84
-83
-83
-82
-83
-83
-84
-84
-83
-83
-83
-83
-84
-84
-84
-83
-83
-83
-83
-84
-83
-84
-84
-83
-84
-84
-85
-84
-84
-84
-84
-84
-85
-85
-84
-84
-85
-85
-85
-85
-85
-85
-85
-85
-85
-85
-85
-86
-86
-86
-86
-86
-86
-86
-86
-86
-86
-86
-86
-86
-87
-86
-86
-86
-86
-86
-87
-87
-86
-86
-85
-86
-86
-87
-86
-86
-85
-85
-86
-87
-86
-86
-86
-86
-85
-86
-87
-87
-87
-86
-86
-86
-87
-88
-87
-87
-86
-86
-87
-87
-88
-87
-87
-87
-87
-87
-88
-88
-88
-88
-87
-88
-89
-88
-89
-88
-88
-88
-88
-88
-88
-89
-88
-88
-88
-89
-89
-89
-89
-88
-88
-89
-89
-89
-89
-88
-88
-88
-88
-88
-89
-89
-89
-88
-89
-89
-88
-88
-89
-88
-88
-88
-88
-88
-88
-88
-88
-88
-88
-88
-88
-88
-87
-88
-88
-89
-89
-89
-88
-88
-88
-88
-89
-89
-89
-89
-88
-88
-89
-88
-89
-88
-88
-88
-88
-89
-88
-89
-88
-87
-88
-87
-88
-88
-87
-86
-86
-86
-86
-86
-87
-86
-86
-85
-85
-86
-86
-86
-85
-85
-84
-84
-84
-84
-84
-83
-82
-83
-83
-82
-83
-82
-81
-80
-80
-80
-81
-80
-80
-79
-79
-78
-78
-78
-77
-77
-77
-77
-77
-77
-77
-77
-77
-76
-76
-77
-78
-78
-78
-79
-78
-79
-80
-80
-80
-80
-80
-80
-80
-82
-81
-81
-81
-81
-81
-81
-82
-82
-82
-82
-81
-81
-82
-82
-82
-82
-82
-82
-83
-83
-84
-84
-84
-84
-85
-85
-86
-86
-86
-86
-86
-87
-88
-88
-89
-88
-88
-88
-89
-90
-90
-90
-90
-90
-91
-91
-91
-92
-91
-92
-92
