# Simple Text Format
# Sampling Rate (Hz):= 1200.00
# Resolution:= 12
# Labels:= ECG	 I 
# Age:=	23
# Gender:=	Feminino
189
188
187
186
185
185
184
182
181
180
180
179
178
176
174
174
172
170
169
168
167
166
164
163
162
161
160
158
157
156
154
154
153
151
151
150
149
148
146
146
145
145
143
143
142
141
140
139
139
138
137
137
137
137
136
137
136
136
135
136
135
134
134
134
134
134
134
134
133
133
132
133
132
132
133
133
132
131
132
132
132
131
131
131
130
131
131
131
131
130
130
130
130
130
130
130
130
130
130
130
130
129
130
130
130
130
130
130
129
129
129
129
129
129
129
128
129
129
128
128
128
129
128
128
128
128
129
128
128
128
128
128
128
128
129
129
129
129
129
128
129
129
129
128
129
129
129
130
129
129
129
128
129
129
128
129
129
129
128
128
128
129
128
128
128
128
128
128
128
127
127
128
127
127
127
127
128
128
128
128
128
128
128
128
129
129
128
129
129
129
129
129
130
130
129
130
130
130
129
129
129
129
129
128
128
128
128
128
128
128
128
129
128
128
129
129
128
129
129
129
129
130
130
130
130
130
131
130
131
131
131
131
131
131
131
131
131
131
130
130
130
131
130
130
130
130
130
130
129
129
129
128
129
129
129
129
129
129
129
129
129
129
129
128
129
129
129
129
130
130
130
130
130
130
131
131
130
131
130
131
131
131
131
131
131
131
131
131
132
131
131
132
131
131
131
131
130
130
130
131
130
131
130
130
130
130
130
130
131
130
130
130
130
130
130
130
130
131
131
130
130
130
130
131
130
130
130
130
130
129
130
129
130
130
130
130
129
129
130
129
130
129
130
130
129
130
129
130
129
130
130
129
129
129
130
130
129
129
129
129
129
129
129
129
129
129
129
129
129
129
128
129
129
129
129
129
128
128
129
129
129
130
129
129
129
129
130
130
129
130
129
129
129
130
130
130
129
130
130
131
131
130
131
131
131
131
130
130
130
130
130
129
130
130
129
129
129
128
128
128
127
128
127
127
127
127
127
127
127
127
127
127
128
127
127
127
128
128
128
128
128
128
128
128
127
128
128
128
128
128
129
128
129
129
128
128
129
129
129
129
129
129
129
130
129
130
129
129
130
129
130
130
130
130
130
130
130
130
130
130
130
131
131
130
130
130
131
130
131
130
131
130
131
130
130
130
130
130
129
129
129
129
128
128
128
128
128
128
128
128
128
128
128
128
128
128
128
128
128
128
128
128
127
127
127
127
128
127
127
127
127
127
128
128
127
128
127
127
128
127
127
128
128
127
128
128
128
128
128
128
128
129
129
129
129
129
128
128
129
129
129
129
129
129
129
129
129
129
129
128
129
128
129
128
128
128
129
129
128
128
128
129
128
128
128
128
129
129
129
129
129
130
130
130
130
130
129
130
129
129
129
130
129
129
129
129
130
129
129
129
129
128
128
128
128
129
128
128
129
128
129
128
128
128
128
128
128
129
128
128
129
129
129
129
130
130
130
131
131
131
131
131
131
131
132
132
132
132
132
132
132
132
132
133
133
132
133
133
133
133
133
133
133
133
133
134
134
134
135
134
135
135
135
136
136
137
137
137
138
139
140
140
141
141
141
142
142
144
143
144
145
145
145
146
145
145
145
146
146
146
145
145
145
146
145
145
144
144
144
143
143
143
142
142
142
142
141
141
142
141
141
141
141
140
140
140
139
139
139
138
138
137
137
136
136
135
134
133
133
132
132
131
130
130
129
128
128
127
127
127
126
126
126
126
126
126
126
125
126
126
126
126
125
125
125
126
126
126
125
126
126
125
126
126
126
126
125
126
125
126
125
125
126
126
126
125
125
125
125
126
126
126
125
126
126
125
126
125
126
125
125
125
125
125
125
124
125
125
124
124
124
124
124
124
124
125
124
124
125
125
125
125
126
126
126
126
127
127
127
128
127
128
129
129
130
131
131
132
134
135
137
138
139
142
144
147
149
153
156
159
164
168
172
176
181
185
190
194
198
202
206
209
211
214
216
217
218
218
218
216
215
212
210
207
203
199
193
188
183
177
171
165
160
153
148
142
137
133
127
123
119
115
112
109
106
105
103
102
101
102
101
102
103
103
105
107
108
109
112
113
114
116
117
118
119
121
121
122
124
125
125
126
126
127
127
128
128
128
128
129
129
129
129
130
130
130
130
130
130
131
131
130
130
131
131
131
130
130
130
130
130
130
130
130
130
130
130
130
129
130
131
131
131
131
130
131
131
131
131
132
132
132
132
133
133
132
132
132
133
133
133
133
133
133
133
133
134
134
133
133
133
133
133
134
134
135
134
134
135
134
134
134
134
134
134
134
135
135
135
134
134
135
135
135
135
134
135
135
135
135
135
135
136
136
136
136
136
137
137
136
137
137
137
137
137
138
137
138
138
138
139
139
139
139
139
140
139
139
139
140
140
140
141
141
141
141
141
141
142
141
141
141
141
141
141
142
141
142
142
141
141
142
142
142
142
143
143
143
143
143
143
143
144
144
144
144
145
145
145
145
145
146
146
146
146
146
146
146
147
146
147
147
148
147
148
148
149
150
150
150
152
151
152
153
154
154
155
155
155
156
157
157
158
158
158
159
159
160
160
160
161
161
162
163
163
163
163
164
165
166
166
166
167
167
168
169
169
170
171
172
173
173
174
174
175
176
177
178
179
180
181
181
182
183
183
184
186
186
186
187
188
188
189
190
190
191
191
192
192
192
193
193
192
193
194
194
194
193
194
194
194
194
194
194
195
194
194
194
194
194
194
193
193
193
193
193
192
192
191
190
190
190
189
188
186
186
185
184
183
182
180
178
177
175
174
172
171
170
169
167
166
165
163
162
160
159
158
157
156
155
154
152
151
151
150
149
148
147
146
146
145
144
143
143
142
142
140
140
140
139
139
138
137
136
136
135
135
134
134
134
134
133
133
133
132
131
132
131
131
131
131
130
130
130
129
130
129
129
129
128
128
128
128
128
128
129
128
128
128
129
129
129
129
128
129
129
129
129
129
129
128
129
129
128
129
128
129
129
128
128
128
127
127
127
127
128
127
127
127
127
127
126
126
126
126
126
126
126
126
125
125
125
125
125
125
125
125
125
125
125
125
125
125
125
125
126
125
126
126
126
127
127
127
126
126
126
126
126
126
126
126
127
127
126
127
126
127
127
127
126
126
126
126
126
126
127
126
126
126
125
125
125
125
125
125
125
125
125
125
125
125
126
126
126
126
127
126
126
126
127
127
127
127
127
127
127
128
128
127
128
128
128
128
128
127
127
127
127
127
127
127
127
126
127
127
127
126
127
127
126
127
127
127
127
128
128
128
129
129
129
129
129
129
129
129
129
128
129
128
128
128
128
128
128
127
127
127
127
127
126
126
126
126
127
127
126
126
127
127
127
127
127
127
127
127
128
129
129
128
129
129
128
128
128
128
129
128
128
128
128
129
128
128
127
128
127
128
128
128
128
128
128
128
128
128
128
128
128
128
128
128
128
127
127
127
127
127
127
126
126
126
126
127
126
126
127
127
127
127
127
127
127
127
127
127
128
128
128
128
128
127
128
128
127
128
127
128
128
127
127
127
126
126
126
126
126
125
125
125
125
124
124
124
125
125
124
125
125
124
124
124
124
124
124
124
124
124
124
124
123
124
124
124
124
124
124
125
125
125
126
126
126
126
126
127
126
126
127
127
128
127
127
127
127
127
127
127
127
127
126
126
126
126
126
126
126
126
125
126
126
125
126
126
126
126
126
126
126
126
126
126
125
125
126
125
125
125
125
125
125
125
124
124
125
124
124
124
124
124
124
124
124
125
125
124
125
124
124
124
125
125
125
125
125
126
125
125
125
125
125
126
126
126
125
125
125
126
126
125
126
126
126
126
126
126
126
126
126
126
126
125
125
125
125
125
126
125
125
125
125
125
125
125
125
125
124
124
124
124
125
125
125
125
124
124
125
125
124
124
124
124
124
124
125
125
124
124
125
125
125
125
125
125
125
125
125
126
126
126
126
125
125
126
126
126
126
125
125
125
125
125
125
125
124
125
124
124
124
124
124
124
124
124
124
123
124
124
124
124
124
124
125
124
124
124
124
125
124
125
125
125
125
125
126
127
127
127
127
127
128
127
127
128
128
128
128
128
128
129
128
128
129
128
128
129
128
128
128
128
128
128
128
128
128
128
129
129
130
130
131
131
131
132
132
133
134
134
134
135
136
137
137
137
138
139
138
139
140
140
141
141
142
142
143
142
142
142
143
142
143
142
141
142
141
141
140
140
140
139
139
138
138
137
137
137
137
136
136
135
135
134
134
133
133
132
132
131
131
130
130
129
128
127
127
126
126
126
125
124
124
124
123
123
123
122
123
123
123
122
122
122
122
123
122
122
122
122
122
122
122
122
122
121
122
121
122
121
121
121
121
120
120
120
120
120
120
119
119
119
120
119
119
119
119
119
119
120
119
119
119
119
119
119
120
120
120
119
119
119
120
120
120
119
119
119
119
119
119
118
118
119
119
119
119
119
120
120
120
120
121
121
121
122
122
123
123
123
124
125
125
125
126
128
129
129
131
131
134
136
137
139
142
144
147
150
154
158
161
166
170
174
179
183
187
190
193
197
199
201
203
204
205
205
205
204
202
200
197
194
190
186
181
176
170
165
159
153
148
142
136
130
125
120
116
112
108
105
101
98
96
95
93
92
92
91
92
93
94
95
95
97
98
100
101
103
105
106
107
109
110
111
112
113
115
115
117
118
118
119
120
120
120
121
121
122
123
123
123
123
124
123
124
123
123
124
123
123
124
124
124
123
123
123
123
123
123
123
124
124
124
124
124
125
125
125
126
125
126
126
126
126
126
127
128
128
128
128
128
128
128
128
128
128
128
128
128
128
128
128
128
129
128
128
128
128
128
128
128
128
129
129
129
129
128
129
129
129
129
129
129
129
129
130
130
130
130
131
131
131
131
131
131
131
132
131
131
131
131
131
132
132
132
131
131
131
131
132
131
131
131
131
133
133
133
133
134
134
134
134
135
135
135
135
136
136
136
136
137
137
137
137
137
137
137
137
136
136
136
136
136
137
137
136
137
137
136
137
137
137
137
137
138
138
138
139
139
139
140
140
140
141
141
141
141
142
142
142
143
143
143
143
144
144
143
144
144
144
144
144
145
145
145
145
145
146
146
147
148
147
148
148
148
149
150
151
151
151
152
152
153
153
154
155
155
156
157
158
158
158
158
159
160
160
162
163
163
163
164
165
166
166
166
167
168
169
169
170
171
172
173
173
173
174
175
176
176
177
178
179
179
180
181
181
182
182
183
183
184
184
185
185
186
186
187
186
187
187
187
187
187
188
187
188
187
188
188
188
188
189
189
188
189
189
189
189
189
189
189
189
189
188
188
187
186
185
185
183
182
182
180
179
179
178
176
175
174
173
171
171
170
168
167
165
164
163
161
160
159
158
157
155
154
153
152
150
150
148
147
146
145
144
143
142
141
140
139
138
137
137
137
136
135
135
134
133
133
132
132
132
131
130
131
130
130
129
129
129
128
128
128
127
128
127
127
127
127
128
128
128
128
128
128
128
128
127
127
128
127
127
127
127
127
126
126
126
126
126
125
125
125
125
125
125
126
125
126
126
126
126
126
126
126
127
127
127
126
126
126
126
126
127
127
127
126
126
126
126
126
126
125
125
125
125
124
124
124
124
123
123
123
123
122
122
123
122
123
123
123
122
122
122
122
122
123
123
123
123
123
124
124
124
125
124
124
124
124
125
125
125
125
125
125
126
125
125
126
126
126
126
126
126
126
126
126
126
126
126
126
126
126
126
126
125
125
125
126
126
126
126
126
126
126
125
125
125
126
126
126
126
126
126
126
126
126
126
127
126
126
127
127
127
127
126
126
127
127
127
127
127
127
127
127
127
128
127
128
127
127
127
127
127
127
128
127
127
127
127
127
127
127
127
127
127
128
128
127
127
127
127
127
129
129
129
129
129
129
128
129
129
129
129
129
129
129
129
130
129
129
129
129
129
130
129
129
129
129
129
129
129
129
129
129
129
129
129
130
130
130
130
130
130
130
130
130
130
130
130
131
131
131
130
130
131
131
131
131
130
130
130
130
130
130
130
130
129
129
128
128
129
129
128
128
128
127
127
128
128
128
127
127
127
127
127
127
128
128
128
128
128
128
128
128
128
128
128
129
129
129
129
129
129
129
129
129
129
130
130
129
130
130
130
130
130
130
130
130
130
130
129
130
130
130
130
130
129
130
130
130
129
129
130
130
130
130
130
130
129
129
130
130
130
129
129
130
129
129
129
129
129
129
129
127
128
128
128
128
127
127
127
127
129
129
129
129
129
128
128
129
129
129
129
129
130
129
130
129
129
129
129
129
128
128
129
129
128
129
128
128
128
128
128
129
128
129
129
129
128
129
129
129
129
129
128
128
128
129
129
128
128
129
129
129
130
129
129
129
129
129
129
129
130
130
130
129
129
129
129
130
130
129
129
130
129
129
129
129
129
128
128
128
128
129
129
128
128
129
129
129
129
129
129
130
130
129
130
130
130
130
130
130
131
131
131
131
131
131
131
131
131
131
130
130
130
130
130
130
130
129
129
129
128
128
129
128
128
129
128
128
129
129
129
129
129
129
129
129
130
130
130
131
131
131
131
131
131
132
132
132
132
132
133
133
133
133
134
134
134
133
133
134
134
134
134
134
134
135
135
136
136
136
136
137
136
137
138
137
139
139
139
139
140
140
141
141
142
142
142
143
144
144
144
145
145
145
146
145
146
146
146
147
146
147
146
146
146
145
145
145
144
144
144
143
143
143
142
143
142
142
142
142
142
142
141
141
141
142
141
141
141
140
140
140
139
139
139
138
137
136
135
135
134
134
132
132
132
130
130
129
129
129
129
129
128
129
128
128
128
128
127
127
127
127
128
128
128
128
127
127
127
127
127
127
127
128
128
127
127
127
127
127
127
127
127
127
127
127
127
127
127
127
127
127
126
127
127
127
127
127
127
127
126
126
127
126
126
126
126
126
127
127
127
126
126
126
126
126
126
126
126
126
126
126
126
126
126
126
126
127
127
128
128
129
128
129
130
131
131
132
134
134
136
138
139
141
143
145
147
150
153
155
159
163
167
171
176
179
184
188
192
197
200
204
206
209
211
213
214
214
215
214
213
212
210
207
204
201
197
192
186
181
176
170
164
158
153
148
142
137
132
128
123
119
115
111
108
105
103
102
101
100
100
100
101
102
103
104
106
107
109
110
112
114
116
118
119
120
121
122
123
124
125
125
127
127
127
127
129
129
129
129
129
129
129
130
129
129
130
129
129
130
130
130
130
130
130
130
131
131
131
131
131
131
132
131
132
132
132
132
133
133
133
133
133
134
134
134
134
134
134
135
135
136
135
135
135
136
136
136
136
136
136
136
135
136
136
136
136
136
136
135
136
136
136
136
136
137
137
137
137
137
137
137
137
136
136
136
137
137
137
137
137
137
138
138
138
138
138
138
138
139
139
139
138
138
138
138
140
140
140
139
140
140
141
140
141
141
142
141
142
142
141
142
142
141
142
142
142
142
142
142
142
142
142
143
143
143
143
143
143
143
143
143
143
143
143
144
144
144
145
145
145
145
145
146
146
146
146
146
146
147
147
147
147
148
148
148
148
149
149
149
150
150
150
150
150
151
151
152
152
152
152
153
152
153
153
154
154
154
155
155
156
156
156
156
157
158
158
158
160
160
161
160
161
162
162
162
162
163
163
164
164
165
166
166
167
167
168
168
169
170
170
171
172
172
173
174
175
175
176
176
177
178
178
179
180
180
180
181
182
183
183
184
184
184
185
186
187
187
188
189
189
190
191
192
193
194
195
194
195
196
197
197
198
198
198
198
198
199
199
198
199
199
199
199
199
198
199
198
198
198
198
198
197
197
196
196
196
195
195
194
194
193
192
192
191
190
189
188
187
186
186
184
182
181
180
178
177
176
175
173
172
170
168
167
166
165
163
162
160
159
158
157
155
154
153
152
152
150
149
148
147
147
145
145
144
144
143
142
142
141
141
141
140
140
139
139
138
138
137
137
137
137
137
136
136
136
136
136
135
135
135
134
134
133
134
133
133
133
133
133
133
133
133
133
133
133
133
133
133
134
134
133
133
133
133
133
133
133
133
133
133
133
132
132
132
131
131
131
131
130
130
130
130
130
130
130
130
130
130
131
131
131
131
131
131
131
131
131
131
131
131
131
130
130
130
130
130
130
130
129
129
129
130
130
130
130
130
130
130
130
131
130
130
130
130
131
131
131
130
130
130
130
131
131
131
131
131
131
131
131
131
131
131
131
131
131
131
131
131
131
131
131
131
132
132
131
131
131
131
132
132
132
132
131
131
131
131
132
131
131
131
131
132
131
131
132
132
132
132
132
132
132
133
133
133
133
133
133
133
134
133
134
134
134
134
134
134
134
134
134
134
135
135
134
135
134
135
135
135
135
135
135
135
135
135
135
136
135
134
135
135
135
134
135
134
135
134
135
135
134
134
134
135
134
134
135
134
134
134
134
134
134
134
134
134
134
134
134
134
134
133
134
134
134
134
135
135
134
135
135
135
135
135
135
135
135
135
135
135
135
134
134
134
134
134
133
133
133
133
132
132
132
132
132
132
132
132
133
132
132
132
132
133
132
132
133
133
133
133
133
133
134
133
133
133
133
133
133
133
132
133
132
132
133
133
133
133
133
133
132
132
132
133
132
132
132
132
132
132
132
132
132
132
133
133
132
133
132
133
133
133
133
134
133
133
133
133
134
133
133
133
133
134
134
133
134
133
133
132
132
132
132
132
132
131
132
132
131
131
131
131
131
130
131
131
131
131
131
130
130
130
130
130
131
130
131
131
131
131
131
131
131
131
131
131
131
131
130
130
130
130
130
130
130
129
129
128
128
128
128
128
128
128
128
128
128
128
128
128
128
128
128
128
129
129
129
129
129
129
129
130
130
130
131
131
131
130
131
130
131
131
131
131
131
131
131
131
131
131
130
130
130
130
130
130
129
130
130
130
130
130
130
129
130
130
130
130
130
131
130
130
130
131
130
130
130
130
130
130
130
130
130
131
130
130
130
130
129
129
130
130
129
129
129
129
129
129
129
130
130
129
130
130
130
130
130
130
130
130
130
130
130
131
130
130
130
130
130
130
130
130
130
130
130
130
130
130
130
130
129
129
129
130
130
130
129
129
130
130
129
129
129
130
130
130
130
130
130
130
129
129
129
129
130
130
129
129
128
128
129
129
128
128
127
127
127
127
127
127
127
127
127
127
128
128
128
128
128
128
129
129
130
130
131
131
131
131
131
132
131
131
131
132
131
131
132
132
131
131
132
132
132
131
131
131
131
130
130
130
130
130
130
130
130
130
130
130
130
130
129
129
130
130
129
129
130
130
130
129
130
130
130
130
130
130
130
130
130
130
130
130
130
130
131
131
130
130
131
131
131
131
132
132
132
132
133
133
133
134
134
134
133
134
134
134
133
133
134
134
134
134
134
134
135
135
135
136
136
136
137
137
138
139
139
140
141
141
142
142
143
143
144
143
144
144
145
145
145
145
146
146
147
147
147
146
147
146
146
146
147
146
147
147
146
146
146
146
145
145
145
145
144
144
143
143
143
143
142
142
142
141
141
140
140
139
139
139
139
137
138
137
137
136
135
135
135
134
134
133
133
132
132
132
131
131
130
130
129
129
129
129
128
127
127
127
127
127
126
126
125
125
125
124
125
125
125
125
125
125
125
126
125
126
125
125
125
126
126
126
126
126
126
126
126
126
126
126
125
125
126
126
126
125
125
125
125
125
125
125
126
125
125
126
125
125
125
125
126
126
125
125
125
126
125
126
125
126
126
126
126
126
126
127
127
127
127
127
127
128
128
128
130
130
131
133
134
136
138
140
141
144
146
149
153
156
160
164
168
172
177
182
186
191
196
200
203
207
210
213
215
216
217
218
219
218
216
214
212
209
206
202
198
192
186
181
175
169
163
157
151
145
140
135
130
126
122
117
114
111
108
106
105
103
102
103
102
103
103
105
105
107
108
110
112
113
114
116
117
119
119
121
122
123
124
125
126
126
127
127
127
128
128
128
129
129
129
129
128
129
128
128
129
128
128
128
128
128
128
128
128
128
128
129
130
130
130
130
129
130
130
130
131
131
132
131
132
132
131
132
132
132
132
132
132
132
132
132
132
132
133
133
133
132
133
133
133
133
134
133
134
134
134
134
134
135
134
135
134
134
134
135
134
134
134
134
134
134
134
134
134
134
134
135
134
135
134
135
135
135
136
136
136
136
136
136
136
136
137
136
137
137
137
137
138
137
138
137
138
138
138
138
138
139
138
138
139
140
140
140
140
140
140
140
140
140
140
140
141
141
141
142
141
142
141
141
141
141
141
142
141
142
142
141
142
142
142
142
142
142
143
143
143
143
143
143
144
144
144
144
145
145
145
146
145
146
147
147
146
147
147
147
148
147
148
148
148
148
149
149
149
149
149
150
149
151
151
152
152
153
153
153
154
155
155
156
156
157
157
158
159
158
159
160
160
161
161
161
162
163
163
163
164
164
164
165
165
166
167
168
168
169
170
171
171
172
173
174
174
176
176
177
179
179
180
181
182
182
183
184
184
184
185
185
186
186
187
187
187
188
188
189
189
189
190
190
191
191
191
191
192
192
192
192
193
193
193
194
194
194
195
195
194
195
195
195
195
195
194
194
194
193
193
193
192
192
191
190
190
188
188
187
186
185
185
183
182
181
180
179
178
177
175
174
173
172
171
169
168
166
166
165
164
162
160
160
158
157
156
155
154
153
151
149
148
147
147
146
144
143
142
141
140
140
139
138
137
137
136
136
136
135
135
135
135
134
134
133
133
132
133
132
132
132
131
131
131
131
130
130
130
130
130
129
130
129
129
129
129
129
129
129
129
128
128
128
128
128
129
129
128
128
128
129
128
128
128
128
128
128
129
128
129
129
129
129
129
129
129
129
129
129
129
129
129
129
128
129
128
128
127
128
127
128
127
127
127
127
126
127
126
126
126
127
126
126
126
126
127
127
126
126
126
127
126
126
126
126
127
126
126
127
126
127
126
126
127
126
126
126
125
126
126
125
126
126
126
126
125
125
125
125
125
125
126
126
126
126
126
127
126
126
127
127
127
127
127
127
127
128
127
127
127
127
127
127
127
127
126
126
127
126
127
126
126
126
126
126
126
126
127
127
127
128
127
127
127
127
128
127
128
128
128
127
127
127
127
127
128
128
127
127
127
127
127
127
127
127
127
127
128
127
128
128
127
127
127
128
128
128
128
128
129
128
129
129
129
128
128
128
129
128
128
128
128
128
128
128
128
128
128
127
127
128
128
127
127
127
127
127
127
127
127
126
127
127
127
128
128
128
127
128
128
128
129
129
128
129
129
129
128
129
128
129
128
128
128
128
129
128
128
127
127
128
128
128
128
128
127
127
128
128
128
127
128
128
128
127
127
127
128
127
127
127
127
127
127
127
126
126
127
126
126
126
126
126
126
126
125
126
126
125
126
125
125
125
125
125
125
125
124
125
125
124
125
125
125
125
125
125
126
125
126
126
127
127
128
127
128
128
129
129
129
128
129
129
129
129
129
129
128
128
128
127
127
127
126
126
125
125
126
125
125
125
124
124
124
125
125
125
124
125
125
125
126
126
126
126
125
125
126
126
126
126
127
127
127
127
127
127
128
127
127
128
127
127
127
127
127
127
126
126
126
126
126
126
125
126
125
126
125
125
125
125
125
125
125
125
126
126
125
125
125
125
125
125
125
125
125
125
125
125
125
124
125
124
124
124
124
124
124
123
124
124
124
123
124
123
123
124
124
123
124
124
124
125
124
125
125
125
125
125
125
125
125
125
125
125
124
124
125
125
125
124
125
125
125
125
125
125
124
124
124
125
124
124
125
124
124
124
125
124
124
125
125
125
125
125
125
125
125
126
126
125
125
125
125
126
125
125
126
125
125
125
125
125
125
125
126
125
125
125
125
125
125
125
125
125
125
125
125
124
125
124
124
125
125
125
125
125
125
125
125
125
125
125
125
126
126
126
126
126
126
127
126
126
126
126
126
126
126
125
125
125
124
124
124
124
124
124
124
124
124
125
125
125
125
125
125
125
126
126
125
126
126
126
126
127
127
127
127
127
127
128
127
128
128
127
128
127
127
128
128
128
128
128
128
128
130
129
130
130
130
131
131
132
132
132
133
133
134
135
135
135
136
136
136
137
137
137
138
139
139
140
140
140
140
140
141
142
141
142
141
141
142
142
142
142
142
142
141
142
141
141
142
141
142
141
141
141
140
141
140
140
140
139
139
139
139
138
138
138
137
136
137
136
135
135
134
134
133
133
131
131
131
129
129
128
128
127
127
126
125
126
125
125
125
125
124
124
124
124
124
124
123
123
123
124
123
124
123
123
123
123
123
123
123
122
123
123
123
122
123
122
123
123
122
123
123
123
122
123
123
123
122
122
123
122
122
122
123
123
123
122
123
123
123
123
122
123
122
123
122
123
122
122
122
122
122
122
121
122
121
122
121
121
122
121
122
122
122
123
123
123
124
124
125
126
126
127
128
129
130
131
133
134
136
137
139
142
145
148
151
154
157
161
165
170
174
178
183
187
192
195
199
202
205
208
209
211
212
212
212
211
209
207
204
201
198
193
189
184
179
173
167
161
155
150
143
138
133
127
123
119
115
111
107
105
102
100
99
97
97
96
97
96
97
99
100
101
104
105
106
108
111
112
113
115
116
117
118
119
121
121
123
123
124
125
125
125
126
126
126
127
127
128
127
127
127
128
128
128
129
128
128
128
128
128
129
128
129
129
129
130
129
130
130
130
130
130
130
130
130
130
131
131
131
131
131
132
131
132
132
132
133
133
132
133
132
132
133
133
132
133
133
133
133
133
133
133
133
133
133
133
133
133
133
134
133
133
134
134
134
134
134
134
134
134
135
135
135
135
135
136
135
136
136
136
137
137
137
137
137
138
137
137
137
138
138
138
139
138
138
139
138
138
138
138
139
139
138
138
138
138
138
138
138
138
138
138
138
138
138
138
139
139
139
139
139
140
140
140
140
141
141
141
141
142
142
142
143
143
143
143
144
144
144
145
144
144
145
145
145
146
145
145
147
146
146
147
147
147
147
148
148
148
149
149
149
149
149
149
149
149
150
150
149
151
151
151
151
151
151
151
152
153
153
154
154
155
155
156
157
157
157
158
158
160
160
161
161
162
162
163
163
164
164
165
165
166
167
167
167
168
168
169
170
170
171
171
172
172
173
174
175
175
176
177
177
178
179
179
181
181
182
182
183
184
185
185
185
186
187
187
187
188
188
189
189
190
191
191
191
191
192
192
192
192
193
194
194
194
194
194
195
195
194
195
195
195
195
196
195
195
195
194
194
194
194
193
193
192
192
192
191
191
190
189
188
187
186
185
184
184
182
181
180
180
178
177
176
174
173
172
171
169
168
166
165
164
163
161
159
159
158
156
156
154
154
153
152
151
150
149
148
147
147
146
146
145
144
143
142
142
141
140
139
139
138
138
137
137
136
136
135
135
135
134
134
133
132
133
133
132
132
132
132
131
131
131
131
131
130
131
131
131
130
130
131
130
131
130
131
130
131
131
130
130
130
130
130
130
129
130
130
130
129
130
130
130
129
130
130
130
130
130
131
131
132
131
132
131
131
132
131
131
132
131
131
131
131
131
131
130
131
131
130
130
130
130
130
130
130
129
129
129
129
129
129
129
129
129
129
129
128
128
128
129
129
129
128
128
128
128
128
128
129
129
129
129
129
129
129
129
129
129
129
128
129
128
128
128
128
128
127
127
127
127
127
127
127
128
128
128
127
127
128
128
128
128
129
129
129
130
130
130
131
131
130
130
131
130
130
131
131
130
130
130
130
130
131
130
130
131
131
131
131
131
131
131
131
131
131
132
131
131
131
131
132
132
131
132
132
131
132
131
132
132
132
132
132
132
132
133
133
133
133
132
133
133
133
133
133
134
133
133
134
133
133
133
133
133
133
132
133
132
132
132
131
131
132
132
132
131
132
132
132
131
132
132
132
132
132
132
132
132
132
132
132
132
132
131
131
131
131
131
131
131
130
131
130
130
130
130
129
129
130
130
129
129
130
129
130
130
130
130
130
130
130
130
131
130
130
130
130
130
130
130
129
129
129
129
129
129
129
128
129
129
129
129
129
130
130
130
129
130
130
131
130
130
130
130
130
131
131
131
131
131
130
130
130
131
130
131
130
130
130
130
130
130
129
128
128
129
129
129
129
129
128
128
129
128
128
128
128
128
128
128
128
128
128
128
128
128
128
129
128
129
128
128
128
128
128
127
128
128
127
127
127
127
127
127
127
127
127
127
127
127
126
126
127
126
126
127
127
127
127
127
128
127
128
127
127
128
128
128
128
128
129
129
129
128
129
129
129
129
128
128
129
129
128
129
128
128
128
128
129
128
128
128
127
128
127
127
127
127
127
127
127
127
127
126
126
127
127
127
127
126
126
126
126
126
126
127
126
126
127
127
127
128
127
128
128
128
127
127
127
127
128
128
127
128
127
128
127
127
127
127
127
127
127
127
127
127
127
127
127
128
127
128
127
127
128
128
128
128
128
128
128
129
129
129
129
130
129
130
130
131
130
131
131
131
132
132
132
132
133
133
133
133
133
134
134
135
135
136
136
136
136
136
137
137
137
138
139
139
140
139
140
141
141
141
142
142
142
142
142
142
142
142
142
142
141
141
141
140
140
139
140
139
139
138
138
138
137
137
136
136
136
135
135
134
134
133
134
132
132
131
132
130
130
129
129
128
127
127
126
126
125
125
124
123
123
123
122
122
122
121
122
122
121
121
121
121
121
121
122
121
121
121
121
121
121
121
121
122
122
122
121
121
122
121
121
121
122
122
121
122
121
121
121
121
121
121
121
121
121
121
121
121
120
121
121
120
121
121
120
120
120
120
119
119
119
118
119
119
119
119
118
118
119
118
118
119
119
119
120
120
120
120
121
121
122
122
123
123
123
124
126
127
128
129
131
132
134
136
139
141
144
147
150
153
157
161
165
170
174
179
182
187
190
193
197
200
202
204
206
206
206
206
205
204
202
199
196
193
189
184
179
174
168
162
156
151
145
139
134
129
124
119
116
111
107
104
101
99
97
95
94
93
92
92
94
94
95
96
98
99
101
102
104
106
107
109
110
111
113
114
115
116
117
118
119
119
121
122
121
122
122
123
124
123
124
124
124
125
125
126
126
125
126
126
126
126
126
127
127
127
128
128
128
128
128
128
128
128
128
129
129
129
128
129
129
129
129
129
129
129
129
129
129
130
130
130
129
130
130
131
130
130
131
131
131
131
132
133
133
133
132
133
133
134
134
133
134
134
134
134
133
134
133
134
134
133
134
134
134
134
133
133
134
134
134
133
134
134
134
134
134
134
134
135
135
135
136
136
136
136
136
136
136
137
137
137
136
137
137
138
138
138
138
138
138
138
138
138
138
139
139
139
140
140
140
139
139
140
140
140
140
140
141
140
140
140
140
140
139
140
140
140
140
140
141
141
141
141
142
142
142
143
143
143
144
144
145
145
145
145
145
145
146
146
145
146
146
146
145
146
146
147
147
147
147
147
148
148
149
149
150
150
151
152
152
152
153
154
154
154
155
156
156
157
157
157
158
158
159
159
160
160
161
161
162
162
163
164
165
165
165
166
167
168
168
169
171
171
171
172
172
173
174
175
175
176
176
177
178
179
179
179
180
180
181
181
182
183
183
183
184
184
185
185
186
187
187
188
189
189
190
190
190
191
192
192
192
193
193
193
194
194
195
195
194
194
194
194
195
195
195
195
194
194
194
194
193
193
192
192
191
190
190
189
188
187
187
186
185
184
182
181
181
180
178
177
176
175
173
172
171
169
168
166
165
163
163
161
159
159
157
156
155
154
153
152
151
149
149
148
146
146
145
145
144
142
142
141
140
139
139
138
137
137
136
135
135
135
134
134
132
133
132
132
131
130
130
130
129
130
129
128
129
127
128
127
127
127
127
127
126
127
126
127
127
126
126
126
126
126
126
126
126
126
126
126
125
125
125
125
125
125
124
125
125
124
124
124
124
124
124
124
124
124
124
124
124
123
123
124
124
124
123
123
123
123
123
123
122
123
122
122
122
122
122
121
121
121
121
121
120
120
121
121
121
121
120
120
121
120
121
120
121
121
121
121
122
122
122
121
121
121
120
121
120
121
121
121
121
120
121
121
121
121
121
121
122
121
121
122
121
122
121
122
122
121
121
121
121
122
121
122
121
122
121
122
121
121
122
121
122
122
121
122
122
121
121
121
122
122
121
121
121
121
121
121
120
120
121
120
120
120
121
121
121
120
121
121
121
121
120
121
121
122
122
122
121
122
122
123
122
122
123
122
122
123
123
123
123
123
124
124
123
124
124
123
123
124
124
124
124
123
124
124
124
124
124
124
124
123
123
123
124
123
123
123
123
122
123
122
123
123
122
123
123
122
122
122
122
123
122
123
122
122
122
123
122
123
123
123
122
122
123
123
123
123
123
123
123
123
124
124
124
124
124
124
124
124
124
124
124
124
124
124
124
124
124
123
123
123
124
123
123
122
122
122
122
122
122
122
122
122
122
122
122
122
121
121
121
121
121
121
121
121
121
121
121
121
121
121
120
120
121
120
121
120
121
121
121
121
122
122
122
123
123
123
123
123
123
123
123
123
122
123
123
123
122
122
122
122
122
122
121
122
122
121
122
122
122
121
121
121
121
121
121
121
121
121
121
121
121
121
121
120
121
120
121
121
121
121
120
121
121
121
121
121
121
121
121
121
121
121
121
121
121
121
121
121
121
120
120
120
120
120
120
120
119
119
119
119
119
119
119
119
119
119
119
119
119
118
118
118
118
119
119
118
118
118
118
118
118
117
118
117
118
117
118
118
117
118
117
118
117
117
118
118
117
118
118
118
118
118
118
119
119
119
119
120
120
119
119
119
120
120
120
120
119
120
120
120
121
120
120
120
120
120
120
120
119
120
120
120
119
120
119
119
119
119
119
119
119
120
119
119
119
120
120
120
121
120
120
120
121
121
121
121
121
121
121
121
122
122
122
121
121
121
121
121
121
121
120
120
121
120
120
120
120
120
119
119
119
119
119
119
119
119
119
119
119
120
119
119
120
119
120
120
120
120
121
121
121
121
121
122
122
122
123
123
123
124
123
124
124
124
125
125
125
125
126
126
126
126
126
127
127
127
128
128
128
128
128
128
128
129
129
129
129
129
129
129
129
129
129
130
130
129
130
130
131
131
131
132
132
132
133
133
134
134
134
135
135
135
136
137
137
137
138
139
139
139
140
140
141
140
141
141
141
141
141
141
141
141
141
141
141
141
141
141
140
140
140
140
140
139
139
140
139
139
139
138
139
138
138
138
138
137
137
136
136
135
135
134
134
133
132
131
131
130
130
129
128
128
127
127
127
125
125
125
125
124
124
124
124
123
123
123
123
123
122
123
123
123
122
123
122
123
123
123
123
122
123
123
122
123
122
123
122
122
122
122
122
122
121
122
122
121
121
121
121
121
121
121
121
121
121
122
122
122
122
122
122
122
123
122
122
123
123
123
123
123
122
123
123
123
123
123
123
123
123
123
123
124
123
123
124
124
124
123
124
124
125
126
127
128
130
130
132
133
135
137
140
143
145
149
152
156
160
164
169
173
178
182
187
191
195
199
201
204
207
209
210
212
212
212
211
210
207
205
202
199
195
190
186
181
175
170
163
158
152
147
141
135
131
126
121
116
113
110
107
103
101
100
99
98
98
98
98
99
99
101
102
103
105
107
107
109
110
112
114
115
115
117
118
118
119
120
121
121
122
122
123
123
124
123
124
125
125
124
125
125
125
125
125
125
125
125
125
125
125
125
125
125
126
125
126
126
126
126
127
126
127
127
127
128
128
127
128
128
128
128
128
128
128
128
129
128
129
128
129
128
129
129
129
129
129
130
129
129
130
129
130
130
130
130
130
130
131
131
131
131
131
131
132
131
132
131
132
131
131
132
131
131
132
131
131
132
132
132
132
131
132
132
131
132
132
132
132
132
132
132
133
134
133
133
133
134
135
135
135
135
135
135
136
136
136
135
135
135
135
135
136
136
136
136
136
135
136
136
136
136
137
137
137
137
137
138
138
138
138
138
139
139
139
139
139
139
139
139
139
139
139
139
139
139
139
139
140
140
141
141
141
141
142
142
142
143
143
143
144
144
144
144
145
145
146
145
145
146
146
147
147
147
147
148
148
148
148
149
149
149
150
151
151
152
153
153
154
155
155
156
156
157
157
158
159
160
160
161
161
162
162
163
163
164
165
165
165
166
166
167
167
168
168
169
169
170
171
172
173
173
173
174
175
176
176
178
178
178
179
180
181
182
182
183
183
184
185
186
186
187
187
188
188
188
189
190
190
190
191
191
191
192
192
192
193
193
193
193
193
194
193
194
193
193
193
193
194
192
192
193
192
192
192
191
191
190
189
189
188
188
186
186
184
183
182
181
179
178
178
176
175
174
173
171
170
168
167
166
165
163
162
161
160
158
157
157
155
155
153
152
151
150
149
148
147
146
145
145
143
143
142
141
140
140
139
138
137
137
136
135
135
134
133
133
132
132
132
131
131
131
130
130
130
129
129
129
128
128
128
127
128
128
127
127
127
127
127
127
127
127
127
127
127
127
128
127
127
128
128
128
128
128
128
128
128
128
128
128
128
128
128
128
128
128
128
128
128
128
128
127
128
128
128
127
128
128
128
128
128
127
128
128
127
128
128
128
128
128
128
127
127
127
127
126
126
126
127
126
126
126
125
125
126
125
125
125
126
126
126
125
125
125
125
126
126
125
126
126
126
126
126
126
127
127
127
126
127
126
126
127
127
127
126
126
126
127
127
126
126
126
127
126
127
127
127
126
127
127
127
127
126
127
126
127
127
127
126
126
126
126
127
126
126
126
126
126
126
126
126
126
126
126
126
126
126
126
127
127
127
127
127
127
127
128
128
128
127
129
129
128
128
128
129
128
128
128
129
128
128
128
128
129
128
128
128
128
128
128
128
128
129
129
129
128
129
129
129
129
129
129
129
129
129
129
130
129
129
129
128
129
129
129
128
128
128
129
128
128
128
128
128
128
128
128
129
128
128
128
128
128
128
129
128
129
129
129
128
129
129
129
128
128
129
129
129
129
129
129
129
129
129
129
129
129
129
129
128
128
128
128
128
128
128
128
128
128
128
128
128
127
128
127
128
127
127
128
127
127
128
127
128
128
127
127
127
127
127
127
127
127
127
127
127
127
127
127
127
127
127
127
127
127
127
127
127
127
127
126
126
127
126
127
126
127
126
126
126
126
126
126
126
126
126
127
127
127
126
126
127
127
127
127
127
128
128
128
128
128
128
128
128
128
128
128
128
127
128
126
126
127
126
126
126
126
126
125
126
126
126
126
125
125
126
125
126
126
126
126
126
126
127
127
127
127
127
128
127
127
127
127
128
128
127
127
127
127
126
126
126
126
126
126
125
126
125
125
125
125
125
125
125
126
126
125
126
126
126
126
126
126
127
127
126
126
125
126
126
126
126
126
125
125
126
125
125
125
125
125
125
125
125
125
126
125
125
126
126
126
126
126
125
125
126
126
126
126
125
125
126
126
126
126
126
127
126
127
127
127
127
128
127
127
127
127
127
128
127
127
127
128
127
127
127
127
127
128
128
128
128
127
127
127
127
127
126
127
126
126
126
126
126
126
126
126
126
126
126
126
126
125
126
126
125
126
126
126
126
126
126
126
127
127
126
127
127
126
127
127
127
127
127
128
127
128
128
128
129
128
128
129
129
129
130
130
130
130
131
131
130
131
131
131
131
132
131
132
132
132
132
132
133
133
133
133
133
133
134
134
133
134
134
135
135
136
137
137
138
139
139
139
141
141
141
142
143
143
144
144
144
144
144
145
145
144
145
144
144
144
144
144
144
144
144
144
143
143
142
143
142
142
142
142
142
142
142
141
141
141
141
140
140
140
140
139
139
138
137
137
137
136
136
134
135
134
133
132
132
130
130
129
130
129
128
127
128
127
127
128
127
126
127
126
127
126
126
126
127
126
125
126
126
126
125
125
124
125
124
124
124
124
124
124
124
123
124
123
124
124
123
124
124
124
123
124
124
124
123
123
124
123
124
124
124
123
123
123
124
124
124
124
124
124
124
124
124
124
125
125
125
125
124
124
125
126
126
125
126
126
127
127
128
127
128
128
128
129
129
130
130
131
132
133
135
135
137
138
141
143
144
147
150
153
156
159
163
167
171
176
180
185
189
193
197
201
204
207
209
211
214
215
215
215
214
213
211
208
206
203
199
195
190
184
178
172
166
160
154
148
143
138
132
128
123
119
115
111
107
105
103
100
98
98
98
97
98
98
99
100
101
103
104
106
108
109
110
112
114
115
116
117
119
120
121
122
122
123
124
124
124
125
125
125
126
126
127
127
127
127
127
127
127
127
127
128
128
129
128
128
128
128
129
129
129
129
129
129
130
130
129
130
129
129
130
130
130
129
130
130
130
130
131
131
131
131
131
131
132
133
132
133
132
132
133
132
133
133
133
133
133
133
133
133
133
134
134
134
134
134
134
135
135
135
135
135
135
136
135
135
135
135
135
135
135
135
135
134
135
135
135
135
135
135
135
136
135
135
135
135
135
136
136
136
137
136
137
137
137
137
138
137
137
137
138
137
138
138
138
138
138
138
138
137
138
137
137
138
139
139
139
138
139
139
139
139
139
139
140
141
141
141
141
141
141
142
142
141
142
142
142
142
143
143
142
142
142
142
142
142
142
143
143
143
143
143
144
144
144
145
146
145
146
146
147
147
148
149
149
149
150
150
150
150
151
151
151
152
152
152
152
153
152
153
154
154
154
154
154
155
155
155
156
156
157
157
158
159
160
161
161
161
162
163
164
164
165
165
167
168
168
169
170
170
172
172
173
173
173
174
175
176
176
177
177
178
178
179
179
180
181
181
182
182
182
183
183
184
184
185
185
186
186
187
187
188
188
188
189
188
189
190
190
190
190
190
190
190
191
191
190
191
190
190
190
191
190
190
190
189
189
188
188
187
186
186
185
184
183
183
183
181
180
179
179
177
176
175
174
172
172
170
169
167
166
164
163
162
161
159
158
157
154
154
152
151
150
149
148
146
145
145
144
144
142
141
140
140
139
138
138
137
136
136
135
135
134
133
133
132
132
132
131
130
130
130
130
130
128
129
128
128
128
127
127
127
126
126
126
126
126
125
126
126
125
126
126
126
125
125
126
126
126
126
127
126
127
126
127
126
125
126
125
125
125
125
125
124
125
124
124
124
124
124
124
125
124
124
124
124
124
125
124
125
124
124
124
125
124
124
124
124
123
123
124
123
124
123
123
123
123
122
123
122
123
122
122
123
123
123
123
123
122
122
123
123
123
122
122
122
122
121
121
121
121
121
121
121
121
121
121
121
121
121
121
122
122
121
121
121
121
122
121
121
122
121
121
122
122
122
122
122
122
122
122
121
121
122
121
121
121
121
121
121
122
121
121
121
122
122
122
122
121
122
122
121
122
122
122
122
122
122
122
123
122
123
123
122
122
122
122
123
123
123
123
124
123
124
123
123
123
124
124
124
123
124
123
124
124
124
123
124
123
123
123
123
123
124
123
123
123
123
124
123
123
123
123
123
124
124
123
123
123
123
123
123
123
122
122
122
122
122
122
122
121
122
122
121
122
122
122
122
122
122
122
122
123
122
123
123
123
122
122
122
122
122
121
122
122
122
122
122
121
120
121
120
120
120
120
120
120
120
120
120
120
120
120
120
121
121
121
121
121
121
121
121
121
121
122
122
122
121
121
121
120
120
120
121
120
121
120
120
120
120
120
120
120
119
119
120
119
120
120
120
119
119
119
119
119
119
119
119
119
118
119
118
119
118
119
119
119
119
118
118
118
118
118
119
119
119
119
119
119
119
118
119
119
119
119
119
118
118
119
119
118
118
118
117
118
118
117
118
117
117
116
117
116
117
117
117
116
117
117
117
116
116
116
116
117
117
117
116
116
116
117
117
117
116
116
117
117
117
116
116
117
116
116
117
117
117
117
117
117
117
117
117
117
117
118
117
117
116
117
116
117
116
116
117
116
116
116
116
116
116
116
116
116
116
115
115
116
116
116
116
115
116
116
115
116
116
116
115
116
116
116
115
116
115
115
115
116
116
116
116
116
116
116
116
116
117
117
116
117
117
117
117
118
118
118
118
118
119
119
119
119
120
120
119
120
120
120
120
121
121
121
121
121
122
122
122
122
123
124
124
124
125
125
126
126
126
126
127
127
127
127
128
128
128
128
127
128
127
127
128
128
128
127
127
127
128
127
127
127
127
126
127
127
126
126
126
125
125
124
124
124
123
122
122
121
121
120
119
119
118
117
117
116
115
116
115
114
114
113
113
112
112
112
112
111
112
111
111
111
110
111
110
110
111
110
110
110
109
110
110
109
110
109
109
109
109
109
109
108
108
108
108
108
107
108
108
108
108
107
107
107
107
107
107
107
107
107
107
107
107
107
107
107
107
107
107
107
107
108
107
108
109
109
108
108
108
109
109
109
109
109
109
110
109
109
110
110
110
111
110
110
110
111
111
112
112
112
113
114
115
116
117
118
120
120
122
124
126
128
130
133
136
139
143
147
151
155
158
162
167
170
173
177
180
182
185
186
188
189
190
189
188
187
185
183
180
177
173
169
164
159
154
148
143
137
132
126
121
116
111
106
102
98
94
91
89
85
84
82
81
80
80
80
80
81
81
83
84
86
88
89
91
93
95
96
97
99
100
102
102
103
104
106
106
106
107
107
108
109
109
109
109
109
109
110
110
110
111
111
110
111
111
111
112
111
112
112
113
113
113
113
113
113
114
114
114
114
114
114
115
115
115
115
115
115
115
115
115
115
115
115
115
116
115
116
116
116
117
117
117
117
118
117
118
118
118
118
119
119
120
119
120
120
120
120
120
120
120
120
120
119
120
120
119
119
119
119
119
119
119
120
119
119
119
120
120
120
120
119
119
120
120
120
120
120
120
120
122
121
122
122
122
122
123
123
123
123
123
123
123
124
123
123
123
123
123
123
124
123
123
123
123
123
124
124
124
124
125
125
126
125
126
126
127
126
127
127
128
128
128
128
128
128
129
129
129
129
129
129
129
129
129
130
129
129
129
129
130
130
130
131
130
132
131
132
132
132
133
133
134
135
135
135
135
136
136
136
137
137
137
138
139
139
139
139
140
140
140
141
141
142
143
143
144
144
144
144
145
146
147
146
147
148
148
149
149
150
150
150
151
152
153
153
154
155
155
156
157
158
159
160
160
161
163
164
164
165
165
166
167
167
169
169
170
171
171
172
173
173
173
173
173
174
174
175
175
176
176
177
176
177
177
177
177
178
178
178
179
179
180
180
181
180
181
181
181
181
182
181
181
182
182
182
181
181
181
181
180
180
179
179
178
177
177
177
176
175
174
172
172
170
169
168
167
165
165
163
162
160
159
158
156
155
153
152
150
149
148
147
145
144
143
141
140
139
138
137
136
135
134
133
132
131
130
130
129
127
127
126
125
125
124
123
123
123
122
121
121
121
120
119
119
118
118
118
118
117
117
117
117
117
116
116
116
116
115
115
116
115
115
116
115
115
115
115
115
115
115
115
115
115
115
115
115
115
115
115
115
115
115
114
115
114
115
114
115
115
114
114
114
115
114
114
114
114
114
114
114
114
113
113
114
113
114
113
114
113
114
113
113
114
114
114
113
114
114
114
114
114
114
114
114
114
113
114
114
114
114
113
113
113
113
113
113
112
112
112
112
113
112
113
112
112
113
113
114
113
114
113
113
114
113
114
113
114
114
114
113
113
113
113
113
113
113
113
113
113
113
113
113
113
113
113
114
113
114
114
114
113
114
114
114
114
114
114
114
114
115
114
115
115
116
115
115
115
116
116
116
115
115
116
116
115
115
116
115
115
115
116
115
116
116
116
115
115
114
115
115
115
115
115
115
115
115
115
115
115
116
116
116
116
116
116
117
116
116
116
117
117
117
117
117
117
117
117
117
117
118
117
117
117
117
117
116
117
116
116
116
117
117
116
117
117
117
116
117
117
117
116
116
117
116
117
116
117
117
117
117
116
117
116
116
116
116
116
116
116
116
116
116
116
115
115
115
115
115
115
115
115
115
115
115
115
115
116
116
116
116
115
115
116
116
116
116
116
116
116
116
116
115
116
116
116
116
115
116
116
116
115
116
116
115
115
116
115
115
115
115
115
116
115
115
115
115
115
115
114
113
114
114
113
114
113
113
113
113
113
113
112
113
113
112
112
113
113
113
113
113
113
113
113
113
113
112
113
113
113
113
112
112
113
112
112
113
113
113
113
113
112
112
113
113
113
114
113
114
114
114
114
114
115
114
114
114
114
114
114
114
114
114
114
114
114
114
114
113
113
113
113
113
112
113
113
113
112
113
113
113
113
113
113
113
113
114
113
113
113
114
114
114
113
113
113
114
113
113
113
113
113
114
113
113
113
114
114
114
114
114
114
114
114
114
114
114
114
114
115
114
114
114
114
114
115
114
114
114
114
114
114
114
114
114
114
114
114
114
114
114
114
114
113
113
113
114
113
113
113
113
114
113
113
113
113
113
113
112
113
113
113
113
113
113
113
113
113
113
113
112
113
113
113
113
113
113
113
113
113
112
113
113
113
113
113
113
114
114
113
113
114
113
114
114
114
114
115
115
115
116
116
116
116
117
117
117
117
117
118
118
118
119
118
118
118
118
119
119
119
119
118
118
119
119
118
119
119
119
120
120
121
121
121
121
121
122
123
124
124
125
125
126
126
127
127
128
128
128
129
129
130
130
129
129
130
130
129
129
129
129
128
128
128
128
128
128
128
127
128
127
128
128
128
128
128
128
128
128
128
128
127
127
127
127
127
126
126
125
125
124
124
123
122
122
120
120
119
118
117
116
115
114
114
113
113
113
112
112
111
112
111
111
111
111
110
111
111
111
110
110
110
110
111
110
110
111
110
110
110
110
110
110
110
110
110
109
110
110
110
109
110
110
109
110
110
110
109
109
109
109
110
110
110
110
110
109
110
109
109
109
110
109
109
110
109
110
109
109
109
109
110
110
110
110
110
110
110
110
111
111
111
110
111
111
111
111
112
111
111
112
112
112
113
113
114
115
116
118
118
121
122
124
127
128
131
133
137
141
144
148
153
156
162
166
171
175
180
184
187
191
194
196
198
201
201
202
201
200
199
197
195
192
189
184
179
175
169
164
157
151
146
139
134
128
124
118
114
108
105
100
97
94
92
90
88
86
87
86
86
86
87
88
89
90
92
93
95
96
98
100
102
103
105
106
107
108
109
110
111
112
112
112
113
113
114
114
114
114
114
114
114
114
114
115
114
114
114
114
114
115
114
115
115
114
114
115
115
115
115
115
115
115
116
115
116
115
116
116
116
116
116
116
116
116
117
116
116
116
116
117
117
117
117
117
117
117
117
118
118
118
118
118
118
119
119
119
118
118
118
118
119
119
119
119
119
119
119
119
119
119
119
120
119
120
120
120
121
121
121
121
121
121
121
121
122
121
122
122
122
122
122
122
122
121
122
122
122
121
122
121
122
122
122
122
122
122
122
122
122
123
123
123
123
124
124
123
124
124
124
124
124
125
125
125
125
126
126
126
126
127
126
126
127
127
127
127
128
127
127
128
128
128
128
128
128
128
129
129
129
129
129
129
129
129
130
130
130
130
131
131
131
131
132
133
133
133
133
134
134
135
135
136
136
136
136
137
137
137
138
138
138
139
139
139
140
141
140
141
141
142
143
143
143
144
145
145
146
147
147
148
148
149
150
150
151
152
153
154
153
154
155
156
157
157
158
158
159
159
159
161
161
161
163
163
164
164
165
166
167
167
168
168
169
170
170
172
172
173
173
173
174
175
175
175
176
176
176
177
177
178
178
178
179
178
179
179
179
179
178
179
179
179
179
180
180
179
180
179
179
179
179
178
178
178
178
177
177
176
175
175
174
173
173
172
171
170
170
168
167
166
164
163
162
161
160
158
157
155
153
152
151
149
148
147
145
144
143
141
140
139
138
137
136
135
134
133
132
131
130
130
129
128
127
127
126
126
125
124
124
124
123
123
123
122
121
121
120
119
119
119
119
118
118
118
118
117
117
117
117
116
116
116
116
116
116
116
115
115
115
115
115
115
115
115
115
115
114
115
114
114
114
114
114
114
114
114
115
115
115
115
115
115
116
115
116
116
116
116
116
117
116
116
116
117
117
116
116
115
115
115
115
115
115
115
114
115
114
114
114
114
113
113
114
114
114
114
114
114
114
114
113
113
114
114
114
113
114
113
113
113
113
113
114
113
114
113
113
113
113
113
113
113
113
112
112
113
113
113
113
113
113
114
113
113
113
114
113
113
113
113
113
113
114
114
114
113
114
114
114
114
113
113
114
114
114
114
114
114
114
114
114
115
114
115
115
115
115
115
114
115
115
115
115
115
116
116
116
116
116
116
117
117
116
117
117
117
118
118
117
117
118
118
118
118
118
117
118
118
118
117
117
117
118
117
117
117
116
116
116
116
116
116
116
116
116
116
116
116
116
116
116
115
116
116
116
117
116
117
117
117
117
117
118
118
118
117
118
118
117
118
117
118
117
117
117
116
117
117
116
115
116
115
115
116
116
115
115
115
115
116
115
115
115
115
115
116
116
116
116
116
116
116
116
117
117
116
117
117
117
117
116
117
117
116
116
117
116
117
117
116
116
116
116
116
116
116
116
115
115
116
116
116
116
116
116
116
117
117
116
117
116
117
117
117
117
117
117
117
117
117
117
116
117
117
117
116
117
116
116
116
116
116
116
116
116
116
115
115
115
116
116
116
115
115
115
116
115
116
116
116
115
115
116
115
115
115
114
114
114
114
114
114
114
114
115
114
115
115
114
115
114
115
114
114
114
115
114
114
114
114
115
115
115
115
115
116
115
115
115
115
116
116
115
116
115
116
116
116
116
115
115
115
114
114
114
115
115
115
115
114
114
114
114
114
114
115
114
114
115
115
114
115
115
115
115
115
115
115
115
115
115
115
114
115
114
115
114
114
115
114
114
114
114
114
114
114
114
114
114
114
114
114
114
114
114
114
114
114
114
114
114
114
113
114
114
114
114
114
113
113
114
113
113
114
113
114
113
113
113
113
114
113
113
114
113
113
113
113
113
113
113
113
112
112
112
113
112
112
112
112
113
113
113
113
113
113
114
114
114
114
114
114
114
115
114
114
114
114
114
114
115
114
114
115
115
114
115
115
115
115
114
114
115
114
114
114
113
113
113
113
113
114
113
113
113
113
113
113
113
114
113
113
114
114
114
115
115
115
115
115
115
116
116
117
117
117
117
117
117
118
118
118
118
118
118
119
119
119
118
118
119
119
119
119
119
119
120
120
120
120
120
120
120
121
121
121
121
122
122
123
124
124
125
125
126
126
127
127
127
129
129
129
130
129
130
130
130
130
130
131
131
131
131
130
131
131
131
130
130
130
130
131
130
130
129
130
129
129
129
129
129
128
128
128
127
127
126
126
126
125
125
124
124
123
122
122
122
120
120
119
119
118
117
117
117
116
116
115
114
114
114
113
114
113
113
113
112
112
111
112
112
112
112
111
112
111
112
111
111
111
112
111
111
111
111
110
110
110
110
110
109
109
109
109
109
109
109
109
110
109
109
109
110
110
110
110
111
111
110
111
111
111
111
111
111
111
111
111
111
111
111
111
111
111
111
111
112
112
112
112
111
111
111
111
112
112
112
112
112
112
112
113
114
113
115
115
116
116
118
118
120
121
124
125
127
129
132
136
139
143
146
151
155
160
165
169
173
178
183
187
190
194
197
199
201
203
205
205
205
204
202
200
197
194
191
186
182
176
171
165
159
153
147
141
135
130
124
119
115
110
105
101
98
95
91
90
88
86
86
85
85
86
86
87
88
90
91
93
94
95
97
99
100
102
103
105
106
107
108
109
110
111
112
112
112
113
114
114
114
114
114
114
114
114
114
114
113
114
114
114
114
114
114
114
114
114
114
114
114
115
115
115
115
115
115
115
115
115
115
115
116
116
115
116
115
116
116
116
116
116
116
117
116
116
116
117
117
117
117
117
118
118
118
118
118
119
118
119
119
120
119
119
120
120
120
120
120
120
119
120
120
120
120
120
120
121
120
120
121
122
121
121
122
122
122
122
122
122
122
122
122
123
123
122
122
123
123
123
123
123
123
123
123
123
123
123
123
123
123
123
123
123
123
123
123
124
123
123
124
124
124
124
124
125
126
126
125
126
126
126
127
126
127
128
128
127
128
128
129
128
128
128
129
129
129
130
130
130
130
131
130
131
130
130
130
131
130
130
130
130
131
130
131
131
130
131
131
131
131
131
132
132
133
134
134
134
135
135
135
136
136
137
137
138
138
139
139
139
140
140
141
142
142
143
143
143
144
145
145
146
145
146
147
147
148
148
149
150
151
151
152
153
153
154
155
156
157
158
159
159
160
161
162
163
164
164
165
166
166
166
167
167
169
169
170
170
170
171
172
172
173
173
173
174
175
175
175
176
175
176
176
177
177
177
178
179
179
179
180
179
180
180
180
181
181
181
181
181
181
181
181
181
181
180
180
180
179
179
178
177
177
176
175
175
174
172
171
170
169
167
167
165
164
163
162
161
160
158
157
156
155
153
152
151
149
148
148
146
145
144
143
142
141
140
138
137
136
135
134
132
131
130
130
129
128
127
126
125
126
125
124
124
123
122
123
121
121
122
121
120
120
120
119
119
119
118
118
118
117
118
117
117
116
116
116
116
116
116
115
115
115
115
116
115
115
115
115
115
115
114
115
114
114
115
114
114
114
114
114
114
113
113
114
114
114
113
113
112
113
114
114
114
113
114
114
114
114
115
114
115
114
114
114
114
114
114
114
114
114
114
114
114
113
113
113
114
114
114
114
113
114
114
113
114
114
114
114
114
113
114
114
114
113
113
113
113
113
113
113
113
112
112
113
113
113
112
113
113
113
113
112
112
113
112
112
112
113
112
112
112
112
112
112
112
112
112
111
111
111
111
111
111
111
111
111
111
112
112
112
112
112
112
112
112
113
113
113
113
113
114
113
114
114
114
114
113
114
114
114
113
113
113
114
114
114
113
114
113
113
113
113
113
113
113
113
113
113
113
113
114
114
113
114
114
114
113
114
114
114
114
114
114
114
115
115
114
114
114
115
115
114
115
114
114
114
114
113
113
113
113
113
112
113
113
113
112
113
113
113
112
112
112
113
113
113
113
114
114
114
114
114
114
115
115
115
115
115
115
115
115
115
115
114
114
114
114
114
114
114
113
113
113
113
113
112
113
113
113
113
112
112
112
113
113
113
113
113
113
113
113
113
113
113
113
113
113
114
114
114
114
113
113
114
113
114
113
113
113
113
113
112
112
112
112
112
112
111
111
111
111
111
111
110
111
111
110
111
111
111
111
110
110
110
110
110
111
110
110
110
110
110
110
110
110
110
110
110
110
110
110
110
109
110
110
110
110
110
110
109
110
110
110
109
110
110
110
109
110
109
110
110
110
109
110
110
109
110
110
109
109
110
110
109
109
109
108
109
109
109
109
109
109
108
108
108
109
108
108
109
108
108
108
109
109
109
109
108
108
108
108
108
109
108
109
109
108
109
109
109
109
108
109
109
109
109
109
109
109
109
109
109
108
108
108
108
108
108
108
107
107
108
107
107
107
107
108
107
107
108
108
107
108
107
107
107
108
108
108
108
108
108
108
108
108
108
108
107
107
107
107
107
107
107
106
106
107
106
106
106
106
105
105
105
105
105
105
105
106
105
105
106
105
105
106
106
105
106
106
106
106
106
106
106
107
107
106
107
107
107
107
107
107
107
107
107
106
107
107
107
107
107
107
107
107
107
107
107
107
107
107
106
107
107
106
106
107
106
106
107
106
107
107
107
107
107
107
106
107
107
107
107
107
107
107
107
107
108
107
108
108
108
108
109
109
108
109
109
109
109
110
110
109
110
109
109
110
110
110
110
111
110
111
111
111
112
113
112
112
113
114
114
114
115
115
116
117
117
118
118
119
119
119
120
121
121
122
121
122
123
122
123
123
123
123
124
124
124
124
123
124
123
123
122
122
123
122
121
122
121
121
121
121
120
120
120
120
119
119
120
119
119
119
119
119
118
118
118
117
117
117
116
115
114
113
113
112
111
111
110
110
109
108
107
107
106
106
105
105
104
104
104
103
103
103
103
103
102
102
102
102
102
102
102
