# Simple Text Format
# Sampling Rate (Hz):= 1200.00
# Resolution:= 12
# Labels:= ECG	aVR
# Age:=	23
# Gender:=	Feminino
-226
-226
-224
-223
-221
-221
-220
-219
-218
-216
-215
-214
-213
-211
-210
-209
-207
-204
-203
-202
-201
-200
-198
-196
-195
-193
-193
-191
-190
-189
-186
-186
-185
-183
-183
-182
-181
-179
-177
-177
-177
-177
-175
-174
-172
-171
-171
-170
-170
-169
-167
-167
-167
-167
-167
-167
-166
-165
-164
-165
-165
-164
-164
-163
-163
-162
-163
-163
-163
-162
-161
-161
-161
-161
-162
-162
-161
-160
-160
-161
-161
-161
-160
-160
-159
-159
-160
-160
-160
-159
-158
-158
-158
-159
-159
-159
-159
-158
-158
-158
-159
-158
-159
-158
-158
-158
-158
-159
-158
-158
-157
-157
-157
-158
-158
-158
-158
-158
-157
-157
-158
-159
-158
-157
-157
-157
-158
-158
-158
-157
-157
-157
-157
-157
-158
-158
-158
-157
-157
-157
-158
-158
-158
-157
-157
-157
-157
-159
-158
-158
-157
-156
-157
-158
-157
-158
-158
-157
-156
-157
-157
-158
-157
-157
-156
-156
-157
-157
-157
-156
-156
-156
-156
-156
-157
-157
-157
-157
-156
-157
-157
-158
-157
-157
-157
-157
-157
-158
-158
-158
-158
-157
-158
-159
-158
-159
-159
-158
-157
-158
-158
-158
-158
-157
-156
-156
-157
-157
-157
-157
-156
-157
-156
-157
-158
-158
-157
-157
-157
-157
-158
-159
-158
-158
-157
-157
-158
-158
-159
-159
-158
-158
-158
-159
-159
-159
-159
-158
-157
-158
-158
-159
-158
-158
-157
-157
-158
-158
-158
-157
-157
-156
-157
-157
-158
-158
-157
-157
-157
-157
-158
-158
-158
-156
-156
-156
-157
-157
-158
-158
-157
-157
-157
-158
-159
-159
-158
-158
-157
-158
-158
-159
-158
-158
-157
-157
-158
-158
-159
-158
-158
-158
-158
-158
-159
-159
-158
-157
-157
-158
-158
-159
-158
-158
-157
-157
-158
-158
-159
-158
-158
-157
-157
-158
-158
-158
-158
-158
-158
-157
-158
-158
-158
-158
-156
-156
-157
-157
-157
-156
-156
-155
-156
-157
-157
-157
-156
-156
-156
-156
-157
-157
-157
-157
-156
-156
-156
-157
-157
-157
-157
-156
-156
-156
-157
-157
-156
-156
-155
-156
-156
-156
-156
-156
-155
-155
-155
-156
-156
-156
-154
-155
-155
-155
-156
-156
-155
-154
-155
-155
-156
-157
-156
-155
-155
-155
-156
-156
-156
-156
-155
-155
-155
-156
-156
-156
-155
-155
-155
-156
-157
-156
-157
-156
-156
-156
-155
-156
-156
-156
-155
-154
-155
-156
-155
-156
-155
-154
-154
-154
-154
-155
-154
-154
-153
-153
-154
-154
-154
-154
-154
-153
-154
-154
-154
-154
-155
-154
-154
-154
-154
-155
-154
-154
-153
-153
-154
-154
-155
-154
-155
-154
-155
-155
-155
-155
-156
-155
-155
-156
-156
-157
-156
-157
-156
-156
-156
-156
-157
-156
-156
-156
-156
-157
-157
-157
-157
-156
-156
-156
-157
-158
-158
-156
-156
-156
-157
-157
-158
-157
-157
-156
-157
-156
-157
-157
-157
-156
-155
-156
-156
-157
-156
-155
-155
-155
-155
-155
-156
-155
-155
-154
-155
-155
-155
-155
-155
-154
-154
-154
-155
-155
-154
-154
-153
-153
-154
-154
-154
-154
-154
-153
-154
-155
-154
-155
-154
-154
-154
-154
-154
-155
-155
-154
-154
-154
-154
-155
-155
-155
-154
-155
-155
-155
-156
-156
-155
-154
-155
-155
-156
-156
-156
-155
-155
-155
-155
-156
-156
-155
-155
-154
-155
-154
-155
-155
-155
-155
-154
-154
-155
-156
-155
-154
-154
-154
-155
-155
-156
-155
-155
-155
-155
-156
-156
-156
-155
-155
-154
-155
-155
-156
-155
-155
-154
-154
-155
-155
-155
-155
-155
-154
-154
-154
-155
-156
-155
-154
-155
-154
-156
-155
-155
-155
-154
-154
-155
-156
-156
-156
-156
-156
-156
-157
-158
-158
-158
-159
-159
-159
-160
-160
-160
-160
-160
-160
-161
-161
-162
-162
-161
-161
-161
-163
-163
-163
-163
-163
-163
-163
-164
-164
-164
-164
-163
-164
-164
-165
-166
-165
-165
-165
-165
-166
-166
-167
-167
-166
-167
-168
-169
-170
-170
-170
-169
-170
-170
-172
-172
-172
-172
-172
-172
-173
-172
-172
-172
-172
-171
-171
-171
-171
-170
-170
-169
-168
-168
-168
-168
-167
-166
-166
-165
-166
-166
-166
-165
-165
-165
-165
-165
-166
-166
-165
-164
-164
-164
-164
-165
-164
-163
-162
-162
-162
-162
-162
-161
-159
-159
-158
-159
-158
-157
-157
-155
-154
-154
-154
-154
-154
-153
-152
-152
-153
-153
-153
-153
-151
-152
-152
-152
-153
-152
-151
-151
-151
-152
-152
-152
-152
-152
-151
-152
-152
-153
-153
-152
-152
-151
-152
-152
-153
-153
-153
-152
-151
-152
-152
-153
-153
-153
-152
-152
-153
-153
-153
-153
-152
-152
-152
-152
-153
-153
-152
-152
-151
-152
-152
-152
-152
-151
-151
-151
-151
-152
-153
-152
-151
-152
-152
-152
-153
-153
-153
-152
-152
-153
-153
-153
-154
-152
-153
-153
-154
-155
-156
-155
-156
-157
-158
-160
-162
-163
-165
-167
-170
-173
-177
-181
-185
-190
-194
-199
-205
-211
-217
-223
-228
-234
-241
-249
-256
-261
-268
-273
-279
-285
-290
-295
-298
-301
-303
-305
-306
-307
-306
-303
-300
-297
-292
-288
-282
-276
-268
-260
-252
-244
-237
-228
-220
-211
-203
-195
-188
-182
-176
-170
-164
-159
-156
-152
-150
-147
-144
-142
-141
-140
-140
-141
-140
-139
-140
-140
-141
-142
-143
-143
-144
-145
-147
-148
-149
-150
-151
-151
-152
-153
-154
-155
-156
-156
-156
-156
-158
-158
-159
-159
-158
-158
-159
-159
-159
-159
-159
-158
-158
-157
-158
-158
-158
-157
-157
-157
-157
-158
-158
-158
-157
-156
-157
-159
-159
-159
-159
-158
-158
-159
-159
-160
-160
-160
-159
-160
-161
-161
-161
-160
-160
-160
-160
-161
-161
-161
-161
-160
-160
-161
-161
-161
-161
-160
-160
-160
-161
-161
-162
-161
-161
-161
-161
-161
-162
-162
-161
-161
-161
-162
-162
-163
-162
-161
-162
-162
-162
-163
-162
-163
-162
-162
-162
-163
-163
-164
-163
-163
-163
-163
-164
-165
-164
-164
-164
-164
-164
-165
-166
-165
-165
-165
-165
-166
-167
-167
-166
-166
-166
-166
-166
-167
-167
-167
-166
-167
-168
-168
-168
-168
-168
-168
-168
-168
-169
-169
-168
-168
-168
-168
-169
-170
-169
-168
-169
-169
-169
-170
-171
-171
-170
-170
-170
-171
-171
-172
-172
-171
-171
-172
-173
-173
-173
-173
-173
-173
-174
-174
-175
-174
-174
-174
-174
-175
-176
-176
-175
-175
-175
-176
-178
-178
-178
-179
-178
-179
-180
-182
-182
-183
-182
-182
-183
-185
-185
-186
-186
-186
-186
-187
-188
-189
-189
-189
-189
-190
-191
-192
-192
-192
-193
-193
-194
-195
-196
-197
-196
-197
-197
-198
-199
-201
-202
-202
-202
-203
-204
-205
-207
-207
-208
-209
-210
-212
-212
-213
-214
-214
-215
-217
-218
-218
-219
-220
-220
-221
-222
-223
-224
-224
-225
-225
-225
-227
-227
-227
-227
-228
-228
-228
-228
-230
-230
-229
-229
-229
-230
-231
-231
-231
-230
-230
-230
-231
-230
-230
-230
-229
-229
-228
-229
-228
-227
-226
-226
-225
-224
-223
-223
-221
-220
-218
-217
-216
-214
-213
-211
-209
-207
-206
-205
-204
-202
-200
-199
-197
-196
-195
-194
-192
-191
-189
-188
-188
-186
-185
-184
-183
-181
-180
-180
-179
-179
-177
-176
-175
-175
-174
-174
-172
-171
-171
-170
-170
-170
-169
-167
-166
-165
-165
-165
-165
-165
-164
-162
-162
-162
-162
-161
-162
-160
-160
-160
-160
-160
-160
-159
-158
-158
-158
-158
-159
-158
-157
-157
-157
-157
-158
-159
-158
-157
-157
-158
-158
-159
-159
-157
-157
-157
-157
-158
-158
-158
-157
-157
-157
-157
-158
-158
-158
-158
-157
-157
-157
-157
-157
-157
-156
-157
-156
-157
-157
-157
-157
-156
-156
-156
-157
-157
-157
-156
-156
-155
-156
-156
-156
-156
-155
-155
-155
-156
-156
-156
-155
-155
-155
-155
-156
-157
-156
-156
-156
-156
-157
-158
-158
-157
-156
-156
-156
-157
-157
-157
-157
-157
-157
-157
-158
-158
-158
-158
-157
-157
-157
-158
-158
-157
-157
-157
-157
-157
-158
-157
-156
-156
-156
-156
-157
-157
-157
-156
-156
-156
-156
-157
-157
-157
-156
-157
-156
-157
-157
-158
-157
-157
-157
-157
-158
-158
-159
-158
-157
-158
-159
-159
-159
-159
-157
-157
-157
-158
-158
-158
-158
-157
-156
-157
-158
-158
-157
-157
-157
-156
-158
-158
-158
-158
-158
-158
-158
-159
-160
-160
-159
-159
-159
-159
-160
-160
-159
-159
-158
-158
-159
-159
-159
-159
-157
-157
-157
-158
-158
-157
-157
-156
-156
-157
-158
-157
-157
-157
-157
-157
-158
-158
-158
-158
-157
-158
-159
-159
-159
-160
-159
-158
-158
-159
-159
-160
-159
-159
-158
-158
-160
-159
-159
-158
-158
-157
-158
-159
-159
-159
-158
-158
-158
-158
-159
-159
-159
-158
-158
-158
-158
-159
-158
-157
-157
-157
-157
-157
-157
-157
-156
-156
-156
-156
-156
-157
-157
-157
-156
-156
-157
-158
-158
-157
-157
-157
-157
-158
-159
-159
-157
-158
-158
-157
-159
-158
-159
-158
-157
-157
-158
-157
-157
-157
-156
-156
-155
-156
-156
-156
-155
-154
-154
-155
-156
-155
-156
-155
-154
-154
-155
-155
-155
-155
-154
-154
-154
-155
-156
-155
-155
-154
-154
-155
-155
-156
-156
-156
-155
-156
-157
-157
-157
-157
-157
-156
-156
-157
-158
-158
-157
-156
-156
-157
-157
-158
-158
-157
-157
-156
-157
-157
-157
-157
-156
-156
-156
-156
-158
-158
-156
-157
-156
-157
-157
-158
-158
-157
-157
-157
-157
-157
-157
-158
-156
-156
-156
-157
-157
-157
-157
-156
-156
-157
-157
-157
-157
-156
-156
-156
-156
-157
-157
-157
-155
-156
-155
-156
-156
-157
-156
-156
-156
-156
-157
-157
-157
-156
-156
-156
-157
-158
-158
-157
-156
-156
-157
-157
-157
-158
-157
-157
-157
-157
-158
-158
-158
-158
-157
-157
-157
-158
-158
-157
-157
-157
-157
-157
-158
-158
-157
-157
-157
-157
-158
-157
-157
-157
-156
-157
-158
-158
-158
-157
-157
-157
-157
-157
-158
-158
-157
-157
-157
-158
-158
-158
-158
-158
-157
-157
-158
-158
-158
-158
-157
-157
-158
-158
-159
-159
-157
-157
-157
-158
-158
-159
-158
-157
-157
-157
-157
-158
-158
-157
-157
-156
-156
-156
-157
-157
-156
-156
-156
-156
-156
-157
-157
-157
-156
-157
-157
-159
-158
-158
-157
-157
-158
-158
-160
-160
-159
-159
-159
-160
-161
-162
-162
-161
-161
-162
-162
-162
-163
-163
-162
-162
-163
-163
-165
-164
-164
-164
-164
-164
-166
-165
-165
-165
-165
-165
-166
-166
-166
-166
-165
-166
-166
-167
-168
-168
-168
-167
-168
-168
-170
-171
-171
-170
-170
-171
-173
-173
-173
-174
-174
-173
-174
-175
-175
-176
-175
-175
-175
-176
-175
-175
-175
-175
-173
-174
-173
-173
-173
-172
-171
-170
-170
-170
-170
-170
-168
-168
-167
-167
-168
-168
-167
-167
-166
-166
-166
-166
-166
-165
-164
-164
-163
-164
-163
-163
-162
-161
-160
-160
-160
-160
-160
-158
-157
-157
-158
-157
-157
-157
-155
-156
-156
-156
-156
-156
-155
-155
-155
-155
-155
-156
-155
-155
-154
-154
-155
-155
-155
-155
-154
-154
-154
-154
-155
-155
-153
-153
-153
-153
-154
-154
-153
-153
-152
-153
-153
-154
-154
-153
-153
-152
-153
-153
-154
-154
-153
-153
-153
-154
-154
-155
-154
-153
-153
-154
-154
-155
-154
-154
-153
-153
-153
-153
-153
-153
-153
-153
-153
-153
-154
-155
-154
-154
-153
-154
-154
-155
-155
-155
-155
-154
-154
-155
-156
-156
-155
-155
-157
-158
-158
-160
-160
-162
-164
-165
-168
-172
-174
-177
-181
-185
-190
-194
-201
-206
-211
-217
-223
-229
-236
-242
-249
-255
-260
-266
-273
-279
-284
-289
-292
-295
-298
-300
-302
-302
-302
-300
-298
-295
-292
-288
-282
-277
-270
-263
-256
-249
-241
-233
-225
-217
-210
-203
-196
-190
-184
-177
-172
-168
-163
-160
-157
-154
-151
-148
-147
-146
-145
-143
-142
-142
-141
-142
-143
-143
-142
-142
-143
-145
-145
-147
-148
-148
-149
-150
-151
-152
-154
-154
-154
-155
-156
-157
-158
-159
-158
-158
-158
-158
-160
-159
-159
-160
-159
-159
-159
-160
-160
-159
-159
-158
-158
-160
-160
-160
-160
-159
-160
-160
-161
-162
-161
-161
-160
-160
-161
-161
-162
-162
-162
-161
-161
-162
-162
-162
-162
-161
-161
-161
-162
-162
-162
-162
-161
-161
-163
-163
-163
-162
-162
-162
-162
-162
-163
-164
-163
-163
-163
-162
-164
-164
-164
-163
-163
-163
-163
-164
-165
-164
-164
-163
-164
-165
-165
-165
-165
-164
-164
-165
-165
-165
-165
-165
-164
-165
-166
-166
-166
-165
-165
-164
-165
-165
-166
-166
-165
-166
-166
-167
-167
-168
-168
-168
-167
-168
-169
-169
-169
-170
-169
-169
-169
-170
-170
-170
-170
-169
-169
-170
-170
-170
-170
-169
-169
-169
-170
-171
-170
-171
-170
-169
-170
-171
-172
-172
-171
-172
-172
-172
-174
-174
-174
-175
-174
-174
-176
-176
-176
-176
-176
-176
-176
-177
-178
-178
-177
-177
-177
-177
-178
-178
-178
-178
-177
-178
-179
-179
-180
-179
-180
-179
-180
-182
-182
-183
-182
-182
-183
-184
-185
-186
-186
-186
-186
-187
-187
-189
-190
-189
-190
-190
-191
-192
-193
-193
-193
-194
-194
-196
-197
-198
-198
-198
-199
-200
-201
-201
-202
-203
-203
-203
-204
-206
-207
-208
-208
-208
-209
-210
-212
-212
-213
-214
-214
-215
-216
-218
-218
-219
-219
-219
-220
-221
-222
-223
-223
-224
-224
-225
-225
-227
-227
-227
-226
-227
-228
-228
-229
-228
-229
-229
-229
-230
-231
-231
-230
-231
-231
-231
-232
-232
-232
-232
-231
-231
-231
-231
-231
-229
-228
-227
-226
-225
-226
-224
-222
-221
-220
-219
-218
-217
-216
-214
-213
-212
-210
-210
-208
-206
-205
-202
-201
-201
-200
-199
-196
-195
-193
-193
-191
-191
-189
-188
-186
-185
-184
-184
-183
-181
-180
-178
-177
-177
-177
-177
-175
-174
-173
-173
-172
-172
-171
-170
-170
-169
-168
-169
-168
-168
-166
-166
-166
-165
-166
-166
-164
-164
-163
-164
-164
-164
-165
-164
-164
-164
-164
-165
-165
-164
-163
-162
-163
-163
-163
-163
-163
-162
-161
-162
-162
-162
-162
-161
-160
-160
-161
-161
-161
-162
-160
-161
-161
-161
-162
-162
-161
-161
-161
-162
-162
-162
-162
-161
-161
-161
-162
-163
-163
-162
-161
-161
-161
-162
-162
-161
-161
-160
-160
-160
-160
-161
-160
-159
-159
-159
-159
-159
-159
-159
-158
-158
-158
-159
-159
-159
-158
-158
-158
-159
-159
-160
-160
-159
-160
-160
-160
-162
-161
-161
-160
-160
-161
-161
-162
-162
-161
-161
-161
-161
-161
-162
-162
-162
-161
-161
-162
-162
-162
-162
-161
-161
-161
-161
-162
-162
-161
-161
-160
-160
-161
-162
-162
-161
-161
-161
-161
-162
-161
-161
-160
-161
-161
-161
-162
-162
-161
-161
-161
-161
-161
-162
-161
-161
-161
-161
-161
-162
-161
-161
-161
-160
-160
-161
-161
-161
-161
-160
-160
-161
-161
-162
-161
-161
-160
-160
-161
-161
-162
-161
-161
-160
-160
-161
-161
-161
-161
-160
-160
-161
-162
-161
-161
-161
-160
-160
-162
-163
-163
-162
-162
-161
-161
-162
-163
-163
-162
-161
-161
-162
-162
-163
-162
-162
-161
-161
-162
-163
-163
-162
-162
-161
-162
-162
-163
-163
-162
-162
-162
-162
-163
-164
-164
-163
-163
-163
-163
-164
-164
-163
-163
-162
-162
-163
-164
-164
-162
-162
-162
-162
-163
-163
-162
-162
-161
-161
-162
-162
-163
-162
-161
-161
-160
-161
-162
-162
-161
-161
-161
-160
-161
-162
-162
-161
-160
-160
-160
-161
-161
-160
-160
-160
-160
-160
-161
-161
-160
-159
-159
-160
-160
-161
-161
-161
-160
-160
-161
-162
-162
-162
-161
-162
-162
-162
-163
-163
-163
-162
-162
-163
-163
-164
-164
-163
-162
-163
-163
-164
-164
-163
-162
-162
-162
-163
-162
-162
-162
-162
-162
-162
-162
-163
-162
-161
-161
-161
-162
-162
-162
-162
-161
-161
-161
-161
-162
-162
-161
-159
-160
-160
-161
-161
-160
-160
-159
-159
-161
-162
-162
-161
-161
-160
-160
-161
-162
-162
-161
-161
-161
-161
-162
-162
-162
-161
-161
-161
-161
-161
-162
-162
-160
-161
-160
-161
-161
-161
-161
-161
-160
-161
-161
-162
-161
-161
-161
-161
-161
-162
-161
-161
-160
-161
-161
-161
-161
-162
-162
-161
-162
-161
-162
-162
-162
-162
-161
-161
-162
-163
-163
-162
-161
-161
-161
-162
-162
-162
-161
-161
-160
-161
-161
-162
-161
-160
-160
-160
-160
-162
-162
-161
-160
-161
-161
-161
-162
-162
-162
-162
-162
-161
-163
-163
-163
-162
-162
-162
-163
-164
-164
-163
-163
-162
-162
-163
-163
-163
-162
-162
-161
-162
-162
-163
-163
-162
-161
-161
-161
-162
-163
-162
-161
-162
-161
-162
-163
-163
-163
-162
-162
-163
-163
-164
-165
-164
-164
-165
-165
-166
-166
-166
-165
-166
-166
-167
-167
-167
-168
-167
-167
-168
-169
-170
-170
-169
-168
-169
-170
-170
-171
-170
-170
-170
-170
-172
-172
-172
-172
-172
-171
-172
-174
-173
-175
-174
-174
-174
-175
-176
-177
-176
-177
-176
-176
-178
-179
-179
-178
-179
-178
-179
-180
-179
-180
-179
-178
-179
-178
-179
-178
-178
-177
-175
-175
-175
-175
-175
-174
-172
-172
-172
-172
-173
-172
-171
-171
-171
-171
-172
-171
-171
-170
-171
-170
-171
-171
-171
-170
-170
-169
-169
-170
-169
-168
-167
-166
-166
-165
-166
-164
-164
-163
-161
-161
-161
-161
-161
-160
-160
-159
-160
-159
-160
-160
-159
-158
-158
-158
-159
-160
-159
-159
-158
-158
-158
-159
-159
-158
-158
-158
-159
-159
-159
-159
-158
-158
-158
-158
-159
-159
-158
-158
-157
-157
-158
-158
-158
-158
-157
-156
-157
-158
-158
-158
-158
-157
-157
-157
-158
-159
-158
-157
-157
-157
-157
-159
-159
-158
-157
-157
-157
-158
-158
-158
-157
-157
-157
-157
-158
-158
-157
-156
-156
-156
-157
-157
-158
-157
-157
-156
-157
-158
-159
-159
-159
-160
-160
-162
-165
-166
-167
-169
-171
-173
-177
-181
-184
-188
-192
-197
-202
-208
-213
-219
-225
-230
-237
-244
-251
-257
-263
-269
-275
-280
-286
-292
-296
-300
-303
-305
-307
-309
-310
-309
-307
-304
-301
-298
-293
-288
-281
-274
-267
-259
-252
-245
-237
-228
-220
-211
-204
-197
-190
-183
-177
-171
-166
-163
-159
-157
-154
-151
-148
-147
-146
-146
-145
-145
-144
-145
-146
-146
-147
-148
-148
-148
-149
-150
-151
-153
-153
-153
-153
-155
-156
-157
-158
-158
-158
-158
-159
-159
-160
-161
-160
-159
-160
-161
-161
-162
-161
-161
-160
-161
-162
-162
-162
-162
-161
-162
-161
-163
-163
-163
-162
-163
-163
-163
-164
-164
-164
-164
-163
-163
-164
-164
-165
-165
-165
-164
-164
-165
-166
-166
-165
-165
-165
-165
-166
-165
-166
-165
-165
-165
-165
-166
-165
-166
-165
-165
-165
-166
-167
-167
-166
-166
-166
-166
-167
-167
-166
-165
-165
-166
-166
-167
-167
-166
-166
-166
-167
-167
-167
-167
-167
-166
-167
-168
-168
-168
-167
-167
-166
-168
-168
-169
-168
-169
-168
-169
-168
-170
-170
-171
-170
-170
-170
-170
-171
-171
-170
-170
-170
-170
-171
-171
-171
-171
-170
-170
-171
-172
-172
-172
-172
-171
-171
-172
-172
-173
-172
-172
-172
-172
-173
-174
-174
-174
-173
-173
-174
-175
-175
-175
-175
-174
-175
-176
-176
-176
-177
-176
-176
-176
-177
-178
-178
-178
-178
-178
-178
-179
-180
-180
-180
-180
-180
-180
-182
-181
-182
-181
-182
-182
-182
-184
-184
-184
-184
-184
-184
-186
-187
-187
-187
-188
-188
-189
-189
-190
-191
-190
-190
-190
-192
-192
-193
-193
-193
-194
-194
-196
-196
-197
-197
-197
-198
-199
-200
-201
-201
-202
-202
-203
-204
-206
-206
-207
-207
-207
-209
-210
-211
-211
-212
-212
-213
-214
-216
-216
-216
-217
-217
-218
-219
-221
-222
-222
-222
-223
-224
-226
-227
-228
-227
-228
-229
-230
-231
-232
-232
-232
-232
-232
-233
-234
-234
-234
-234
-234
-234
-235
-235
-236
-235
-234
-234
-235
-235
-235
-234
-233
-232
-232
-232
-232
-231
-231
-229
-228
-228
-228
-227
-226
-224
-223
-222
-222
-221
-219
-217
-216
-213
-212
-211
-211
-209
-207
-205
-203
-202
-201
-200
-198
-197
-194
-193
-192
-192
-190
-188
-187
-185
-185
-183
-183
-182
-180
-179
-177
-177
-177
-177
-176
-174
-173
-172
-172
-173
-172
-171
-170
-169
-168
-169
-168
-168
-168
-167
-167
-166
-167
-167
-167
-166
-165
-165
-165
-165
-165
-164
-164
-163
-163
-163
-164
-164
-163
-163
-162
-163
-163
-163
-163
-163
-162
-163
-163
-163
-163
-163
-162
-162
-162
-162
-163
-163
-162
-162
-161
-161
-162
-161
-161
-161
-160
-159
-160
-160
-161
-160
-160
-159
-159
-160
-160
-161
-161
-160
-160
-160
-161
-161
-161
-161
-160
-160
-161
-161
-161
-160
-160
-159
-159
-160
-160
-160
-159
-159
-159
-160
-160
-161
-161
-160
-160
-160
-161
-161
-161
-160
-160
-160
-160
-161
-161
-161
-160
-160
-160
-161
-161
-161
-161
-161
-160
-160
-161
-161
-162
-161
-161
-160
-160
-161
-161
-161
-161
-160
-160
-161
-162
-161
-161
-161
-160
-161
-161
-162
-162
-161
-160
-160
-160
-161
-161
-161
-160
-160
-160
-160
-160
-161
-161
-161
-160
-160
-161
-161
-162
-162
-161
-161
-161
-161
-162
-163
-162
-162
-162
-162
-162
-163
-163
-162
-162
-162
-162
-164
-164
-163
-163
-162
-162
-163
-163
-164
-163
-163
-162
-163
-163
-164
-164
-163
-162
-162
-163
-163
-163
-163
-162
-162
-161
-162
-163
-162
-162
-161
-162
-161
-162
-163
-162
-161
-161
-161
-161
-162
-162
-162
-161
-161
-161
-161
-162
-162
-161
-161
-161
-161
-162
-163
-163
-162
-162
-162
-162
-163
-163
-163
-162
-162
-162
-162
-163
-163
-162
-161
-161
-161
-162
-161
-161
-161
-160
-159
-160
-160
-160
-160
-160
-159
-159
-160
-160
-160
-160
-159
-160
-159
-160
-161
-161
-160
-160
-160
-160
-162
-161
-161
-160
-160
-160
-160
-161
-160
-161
-159
-159
-160
-161
-161
-161
-161
-160
-159
-160
-160
-161
-160
-160
-159
-159
-160
-160
-160
-160
-159
-159
-160
-161
-160
-161
-160
-160
-160
-160
-161
-162
-161
-160
-160
-160
-161
-161
-161
-160
-160
-160
-160
-160
-161
-161
-160
-159
-159
-159
-160
-160
-160
-158
-159
-159
-158
-159
-159
-159
-158
-157
-158
-159
-159
-159
-159
-157
-157
-158
-158
-158
-159
-157
-158
-158
-158
-159
-159
-158
-158
-158
-158
-158
-159
-159
-158
-157
-157
-158
-158
-158
-158
-157
-156
-156
-156
-157
-157
-156
-156
-156
-156
-156
-157
-157
-156
-156
-156
-156
-157
-157
-157
-157
-156
-156
-157
-157
-157
-158
-157
-157
-158
-158
-159
-158
-158
-157
-157
-158
-158
-159
-158
-158
-157
-157
-158
-158
-158
-157
-157
-157
-157
-158
-157
-158
-158
-157
-157
-158
-158
-158
-158
-158
-157
-157
-158
-159
-159
-158
-158
-158
-158
-158
-159
-159
-158
-158
-158
-158
-159
-160
-159
-158
-158
-158
-157
-158
-159
-158
-157
-157
-157
-157
-158
-158
-157
-157
-157
-157
-158
-158
-158
-157
-157
-157
-157
-158
-158
-157
-157
-157
-157
-157
-158
-158
-157
-157
-157
-157
-158
-158
-158
-157
-157
-157
-157
-158
-157
-157
-156
-157
-157
-158
-157
-157
-158
-157
-156
-157
-157
-158
-158
-157
-157
-157
-157
-158
-157
-157
-156
-156
-157
-157
-157
-157
-156
-155
-156
-156
-156
-156
-155
-155
-154
-154
-155
-155
-155
-155
-154
-154
-155
-156
-156
-156
-156
-155
-156
-156
-158
-158
-158
-158
-157
-157
-158
-159
-159
-158
-158
-158
-158
-158
-159
-159
-158
-158
-158
-159
-159
-159
-158
-158
-157
-156
-157
-157
-157
-157
-156
-156
-156
-157
-157
-157
-157
-156
-155
-156
-157
-157
-156
-156
-156
-156
-157
-157
-158
-157
-157
-157
-157
-158
-158
-158
-158
-158
-158
-158
-159
-159
-160
-159
-158
-158
-159
-160
-160
-160
-160
-160
-160
-161
-162
-162
-162
-162
-162
-163
-163
-164
-164
-163
-162
-162
-164
-164
-165
-164
-164
-164
-165
-165
-166
-167
-166
-166
-166
-167
-168
-169
-169
-169
-169
-169
-170
-171
-172
-171
-172
-171
-172
-172
-173
-173
-173
-172
-173
-173
-174
-174
-174
-172
-172
-171
-171
-172
-172
-171
-171
-170
-169
-170
-170
-170
-168
-168
-167
-168
-167
-167
-166
-166
-165
-165
-165
-165
-165
-164
-164
-163
-163
-163
-163
-163
-163
-161
-161
-161
-162
-161
-160
-160
-159
-158
-159
-159
-159
-158
-157
-157
-156
-157
-156
-156
-155
-155
-154
-155
-154
-154
-153
-153
-152
-152
-152
-152
-152
-151
-151
-150
-151
-151
-152
-152
-151
-151
-151
-152
-152
-153
-152
-151
-151
-152
-152
-153
-153
-152
-152
-152
-152
-152
-153
-153
-152
-151
-152
-152
-153
-152
-152
-151
-151
-151
-151
-152
-153
-152
-151
-152
-151
-152
-152
-152
-153
-152
-151
-152
-152
-153
-152
-152
-151
-152
-152
-153
-153
-152
-151
-152
-152
-152
-152
-152
-152
-152
-151
-152
-154
-154
-154
-155
-156
-157
-160
-162
-164
-166
-168
-171
-176
-180
-185
-190
-194
-199
-205
-211
-217
-224
-231
-237
-242
-249
-256
-263
-270
-275
-280
-285
-291
-296
-299
-302
-304
-305
-306
-306
-306
-303
-300
-296
-291
-285
-280
-274
-266
-258
-250
-242
-234
-226
-219
-210
-202
-194
-186
-180
-175
-169
-164
-160
-155
-152
-149
-148
-145
-144
-142
-141
-141
-141
-141
-142
-141
-142
-141
-143
-144
-145
-146
-146
-147
-147
-149
-150
-150
-151
-151
-151
-153
-154
-154
-155
-154
-154
-154
-154
-156
-155
-155
-155
-154
-154
-155
-156
-156
-155
-155
-155
-156
-157
-157
-157
-156
-156
-156
-157
-158
-158
-159
-157
-158
-158
-157
-159
-159
-158
-158
-158
-158
-158
-159
-159
-158
-158
-158
-159
-159
-159
-159
-159
-158
-158
-159
-159
-160
-160
-159
-159
-159
-160
-160
-161
-160
-159
-159
-160
-160
-160
-160
-160
-159
-159
-160
-160
-161
-160
-160
-160
-160
-161
-161
-162
-161
-161
-161
-162
-162
-162
-162
-162
-161
-161
-162
-162
-163
-163
-162
-162
-163
-163
-164
-163
-164
-163
-163
-164
-164
-165
-164
-164
-164
-165
-165
-166
-166
-166
-165
-165
-165
-166
-166
-166
-167
-166
-166
-167
-167
-168
-167
-167
-166
-166
-167
-168
-168
-168
-168
-167
-168
-168
-169
-169
-169
-168
-169
-169
-170
-170
-170
-169
-170
-170
-170
-171
-172
-172
-171
-172
-171
-173
-174
-174
-173
-173
-173
-173
-175
-174
-175
-174
-174
-174
-175
-176
-176
-176
-175
-176
-175
-177
-178
-179
-178
-179
-179
-179
-181
-182
-182
-182
-182
-183
-183
-185
-186
-185
-185
-186
-186
-188
-188
-188
-189
-189
-189
-190
-191
-192
-192
-192
-192
-193
-194
-196
-196
-197
-197
-198
-199
-200
-202
-203
-203
-204
-204
-206
-208
-209
-210
-210
-211
-211
-213
-214
-215
-215
-215
-215
-217
-217
-219
-219
-219
-220
-220
-221
-222
-223
-223
-223
-224
-224
-225
-225
-227
-226
-226
-226
-227
-228
-229
-230
-229
-229
-230
-230
-230
-231
-231
-231
-230
-230
-230
-230
-230
-229
-228
-228
-227
-228
-227
-226
-226
-223
-223
-222
-222
-221
-220
-218
-216
-215
-214
-214
-213
-211
-209
-207
-206
-206
-205
-203
-201
-199
-198
-197
-197
-195
-193
-192
-189
-188
-187
-187
-186
-184
-182
-180
-179
-178
-178
-177
-175
-173
-172
-172
-171
-171
-170
-169
-167
-167
-166
-167
-167
-165
-165
-164
-164
-164
-164
-163
-163
-161
-162
-161
-162
-162
-161
-160
-159
-159
-159
-159
-159
-159
-158
-157
-158
-158
-158
-158
-158
-157
-157
-157
-158
-157
-157
-156
-156
-156
-157
-157
-157
-156
-156
-156
-156
-156
-157
-157
-156
-156
-156
-156
-157
-157
-157
-157
-156
-156
-156
-157
-157
-157
-156
-156
-156
-157
-156
-157
-156
-156
-155
-156
-156
-157
-156
-155
-155
-155
-155
-156
-156
-155
-155
-155
-155
-155
-156
-156
-156
-156
-155
-155
-156
-157
-156
-155
-155
-155
-156
-156
-156
-156
-155
-155
-155
-155
-156
-156
-155
-155
-154
-155
-155
-155
-155
-155
-154
-154
-154
-154
-155
-154
-154
-153
-154
-155
-155
-155
-155
-155
-154
-155
-156
-156
-156
-156
-155
-155
-156
-157
-157
-156
-156
-156
-156
-156
-157
-157
-156
-155
-156
-155
-157
-156
-156
-155
-155
-155
-155
-156
-157
-156
-156
-156
-156
-156
-157
-157
-157
-156
-156
-157
-157
-157
-157
-156
-156
-156
-157
-157
-157
-156
-156
-155
-156
-156
-156
-156
-156
-155
-156
-155
-157
-157
-156
-155
-155
-155
-156
-156
-156
-156
-156
-155
-156
-157
-157
-157
-156
-156
-156
-156
-156
-157
-156
-156
-155
-155
-156
-156
-156
-155
-155
-155
-155
-155
-156
-156
-155
-155
-155
-155
-156
-155
-156
-155
-155
-155
-156
-156
-156
-156
-156
-155
-156
-157
-156
-157
-157
-156
-155
-156
-156
-157
-156
-156
-155
-155
-156
-156
-156
-155
-155
-155
-155
-156
-156
-156
-155
-155
-155
-156
-156
-156
-156
-156
-155
-154
-155
-155
-156
-155
-155
-154
-154
-155
-155
-155
-154
-154
-154
-154
-154
-155
-154
-154
-153
-153
-153
-154
-154
-153
-153
-152
-152
-153
-153
-153
-153
-152
-151
-152
-153
-152
-153
-152
-152
-152
-152
-153
-154
-153
-153
-153
-154
-154
-155
-155
-155
-155
-155
-156
-156
-156
-156
-156
-155
-155
-156
-156
-156
-155
-155
-154
-154
-155
-154
-154
-153
-153
-153
-153
-153
-154
-153
-152
-152
-152
-153
-153
-153
-153
-153
-152
-153
-154
-154
-154
-153
-153
-153
-154
-154
-155
-155
-155
-154
-154
-155
-155
-156
-155
-155
-155
-155
-155
-156
-156
-155
-155
-154
-154
-155
-155
-155
-154
-153
-154
-153
-155
-154
-154
-153
-153
-153
-153
-154
-154
-154
-154
-153
-153
-154
-154
-154
-153
-153
-153
-153
-154
-154
-154
-153
-152
-153
-153
-154
-154
-153
-153
-153
-152
-154
-154
-154
-152
-153
-152
-152
-154
-154
-153
-153
-153
-153
-154
-154
-155
-154
-154
-154
-154
-155
-155
-155
-154
-154
-154
-153
-154
-155
-154
-154
-153
-154
-154
-155
-155
-154
-154
-153
-153
-154
-155
-154
-153
-154
-153
-153
-154
-155
-154
-153
-154
-154
-154
-155
-155
-154
-154
-154
-155
-155
-155
-155
-154
-154
-154
-154
-154
-155
-154
-154
-153
-154
-154
-155
-155
-155
-154
-154
-154
-155
-155
-155
-154
-154
-154
-154
-155
-155
-154
-154
-153
-153
-154
-154
-154
-154
-153
-153
-153
-154
-154
-154
-153
-153
-153
-154
-154
-155
-154
-154
-154
-154
-154
-155
-155
-154
-154
-154
-153
-154
-154
-153
-153
-152
-152
-153
-153
-153
-153
-153
-153
-153
-154
-154
-155
-154
-154
-155
-155
-155
-156
-156
-156
-156
-157
-157
-158
-158
-158
-158
-158
-158
-159
-160
-159
-160
-159
-159
-160
-161
-161
-161
-161
-160
-160
-162
-162
-163
-163
-163
-163
-163
-165
-165
-165
-166
-165
-166
-167
-167
-168
-168
-168
-167
-168
-168
-169
-170
-170
-170
-170
-170
-171
-171
-171
-172
-172
-171
-172
-171
-171
-172
-171
-170
-170
-170
-170
-169
-169
-168
-167
-168
-167
-168
-167
-167
-166
-165
-166
-166
-166
-166
-165
-164
-164
-165
-165
-165
-165
-164
-163
-164
-163
-163
-163
-162
-162
-161
-161
-160
-161
-160
-158
-158
-157
-157
-157
-157
-156
-154
-155
-154
-154
-155
-155
-154
-153
-153
-153
-153
-154
-153
-152
-152
-152
-152
-153
-153
-152
-152
-152
-152
-152
-153
-152
-153
-152
-152
-152
-153
-153
-153
-153
-152
-152
-153
-153
-153
-153
-153
-152
-152
-152
-153
-153
-152
-152
-152
-153
-153
-153
-153
-153
-152
-152
-152
-153
-153
-153
-152
-152
-152
-152
-153
-153
-153
-152
-151
-152
-152
-153
-152
-152
-152
-151
-152
-152
-152
-152
-152
-151
-152
-152
-153
-154
-153
-153
-154
-155
-156
-157
-158
-159
-160
-161
-164
-167
-171
-174
-177
-180
-184
-189
-195
-201
-205
-210
-216
-223
-230
-236
-243
-249
-255
-261
-267
-274
-280
-285
-289
-293
-296
-300
-302
-303
-304
-302
-301
-300
-298
-294
-289
-284
-277
-271
-264
-257
-250
-241
-233
-225
-218
-210
-203
-196
-189
-182
-176
-171
-167
-162
-159
-154
-151
-149
-147
-146
-146
-144
-142
-142
-143
-143
-143
-144
-144
-143
-144
-145
-147
-147
-149
-149
-149
-150
-151
-152
-154
-154
-154
-155
-155
-157
-157
-157
-157
-158
-158
-158
-160
-159
-159
-159
-158
-158
-159
-159
-160
-160
-159
-160
-159
-160
-161
-161
-160
-160
-160
-160
-160
-161
-161
-161
-160
-160
-160
-162
-161
-162
-161
-161
-162
-162
-162
-163
-162
-161
-162
-162
-162
-163
-163
-163
-162
-162
-163
-163
-164
-163
-163
-163
-163
-163
-164
-165
-164
-163
-164
-164
-165
-165
-165
-164
-164
-164
-165
-165
-166
-165
-165
-165
-165
-166
-166
-166
-167
-166
-166
-166
-167
-168
-167
-166
-166
-166
-167
-167
-168
-167
-167
-167
-167
-167
-168
-168
-168
-168
-167
-167
-168
-168
-168
-168
-167
-167
-167
-168
-168
-168
-168
-167
-168
-169
-169
-169
-169
-169
-169
-170
-170
-171
-171
-171
-170
-171
-172
-172
-173
-173
-173
-172
-173
-174
-174
-175
-174
-174
-174
-175
-175
-176
-175
-175
-176
-175
-175
-177
-177
-177
-176
-177
-177
-177
-179
-179
-179
-178
-178
-179
-179
-180
-180
-180
-179
-180
-181
-181
-182
-181
-181
-181
-182
-183
-184
-185
-184
-185
-185
-186
-187
-188
-188
-188
-188
-189
-190
-191
-192
-193
-192
-193
-193
-195
-195
-196
-196
-197
-197
-198
-199
-200
-200
-200
-201
-201
-202
-203
-204
-204
-204
-205
-206
-207
-208
-209
-209
-210
-211
-211
-214
-214
-215
-215
-215
-216
-218
-219
-219
-220
-221
-221
-221
-223
-224
-225
-225
-225
-226
-227
-228
-228
-229
-229
-229
-229
-230
-232
-232
-232
-232
-232
-233
-233
-233
-234
-234
-234
-234
-235
-235
-235
-235
-234
-233
-233
-233
-233
-233
-232
-232
-231
-230
-231
-230
-229
-228
-227
-225
-225
-224
-224
-222
-221
-219
-219
-217
-217
-216
-214
-212
-210
-209
-208
-207
-205
-204
-202
-201
-199
-198
-198
-196
-194
-193
-191
-191
-190
-189
-188
-186
-185
-184
-183
-183
-182
-182
-180
-179
-178
-178
-178
-177
-175
-174
-173
-173
-173
-173
-172
-171
-170
-170
-170
-170
-170
-169
-168
-167
-168
-168
-168
-167
-167
-166
-165
-166
-166
-166
-166
-165
-165
-165
-166
-165
-165
-166
-164
-165
-164
-165
-165
-165
-165
-163
-163
-163
-164
-164
-164
-162
-163
-163
-163
-163
-164
-163
-163
-162
-163
-164
-164
-164
-163
-164
-164
-165
-165
-166
-165
-164
-165
-164
-165
-166
-165
-165
-164
-164
-164
-165
-164
-165
-164
-163
-163
-163
-164
-164
-164
-163
-162
-162
-163
-163
-163
-163
-163
-162
-163
-163
-164
-163
-162
-162
-162
-163
-163
-163
-162
-162
-162
-162
-162
-163
-163
-163
-163
-162
-163
-163
-164
-164
-163
-163
-162
-163
-163
-163
-163
-162
-162
-162
-162
-163
-163
-162
-162
-162
-163
-163
-164
-163
-162
-163
-162
-163
-163
-164
-164
-163
-164
-164
-164
-165
-165
-164
-164
-164
-164
-164
-165
-165
-164
-163
-163
-164
-164
-165
-164
-164
-164
-164
-165
-165
-165
-165
-165
-164
-165
-165
-166
-165
-165
-164
-164
-165
-166
-165
-166
-165
-164
-165
-165
-166
-166
-166
-165
-165
-165
-166
-167
-167
-166
-166
-165
-166
-166
-167
-166
-166
-166
-166
-166
-167
-167
-166
-166
-165
-166
-166
-166
-166
-165
-164
-164
-164
-164
-165
-165
-164
-163
-164
-165
-165
-165
-165
-165
-165
-165
-166
-166
-166
-166
-165
-165
-166
-166
-167
-166
-165
-165
-165
-165
-166
-166
-165
-165
-164
-164
-164
-165
-164
-163
-163
-163
-163
-163
-164
-163
-163
-163
-163
-164
-164
-164
-164
-163
-164
-163
-164
-164
-164
-163
-163
-163
-162
-163
-163
-163
-162
-162
-162
-162
-163
-163
-163
-162
-162
-163
-164
-164
-163
-164
-163
-164
-163
-164
-164
-164
-163
-164
-164
-164
-165
-165
-164
-163
-163
-164
-164
-165
-164
-164
-163
-163
-164
-164
-164
-163
-162
-163
-163
-163
-164
-164
-163
-162
-163
-162
-163
-163
-163
-162
-162
-162
-162
-163
-163
-163
-162
-162
-162
-163
-163
-164
-163
-162
-162
-162
-163
-162
-163
-162
-161
-161
-161
-162
-162
-162
-161
-161
-161
-161
-162
-162
-161
-160
-161
-160
-161
-162
-162
-161
-161
-161
-162
-162
-163
-162
-161
-162
-162
-162
-163
-163
-163
-163
-163
-162
-164
-164
-164
-163
-162
-162
-163
-163
-163
-163
-162
-162
-162
-162
-163
-163
-162
-162
-161
-162
-162
-162
-162
-161
-161
-161
-161
-161
-162
-161
-160
-161
-161
-161
-162
-161
-161
-160
-160
-161
-161
-162
-161
-161
-161
-161
-161
-163
-162
-163
-162
-162
-161
-162
-162
-162
-163
-162
-161
-162
-162
-163
-162
-162
-161
-161
-162
-162
-163
-163
-162
-162
-162
-163
-163
-164
-163
-164
-163
-163
-165
-165
-165
-165
-164
-164
-165
-166
-166
-166
-166
-166
-166
-167
-167
-168
-167
-168
-167
-168
-169
-169
-169
-169
-169
-169
-169
-170
-170
-171
-170
-171
-171
-172
-173
-173
-173
-172
-173
-173
-174
-175
-175
-175
-175
-174
-175
-176
-176
-175
-175
-175
-175
-175
-175
-175
-174
-173
-173
-173
-172
-172
-172
-170
-170
-169
-170
-169
-170
-169
-168
-168
-167
-168
-167
-167
-167
-166
-166
-165
-166
-165
-166
-164
-163
-162
-163
-162
-162
-161
-161
-159
-159
-159
-159
-159
-157
-157
-156
-155
-156
-156
-155
-154
-154
-153
-154
-154
-154
-153
-153
-152
-152
-153
-154
-153
-153
-152
-152
-152
-153
-153
-153
-153
-152
-152
-152
-152
-153
-152
-152
-151
-152
-153
-152
-153
-152
-152
-151
-152
-152
-153
-152
-152
-151
-151
-152
-152
-152
-152
-152
-151
-152
-152
-152
-152
-152
-151
-150
-151
-151
-151
-151
-151
-150
-150
-150
-150
-151
-150
-149
-150
-150
-150
-151
-151
-150
-149
-150
-150
-151
-151
-151
-150
-150
-150
-152
-153
-154
-155
-156
-157
-159
-161
-165
-167
-170
-173
-177
-181
-186
-191
-196
-201
-206
-212
-218
-225
-231
-237
-243
-249
-255
-262
-269
-274
-278
-283
-287
-291
-295
-297
-298
-299
-299
-298
-296
-295
-292
-287
-282
-277
-271
-264
-258
-251
-243
-235
-228
-220
-212
-205
-198
-191
-184
-177
-172
-167
-163
-158
-155
-151
-149
-147
-146
-144
-143
-141
-140
-140
-140
-141
-140
-140
-140
-140
-141
-142
-143
-144
-144
-144
-146
-148
-148
-149
-149
-150
-151
-151
-152
-153
-153
-154
-153
-154
-155
-155
-156
-156
-155
-155
-155
-157
-157
-157
-158
-157
-157
-157
-158
-158
-158
-157
-157
-157
-158
-158
-158
-158
-158
-157
-158
-158
-159
-159
-158
-158
-158
-159
-159
-160
-159
-159
-159
-159
-159
-159
-160
-160
-159
-159
-160
-161
-161
-161
-160
-160
-160
-161
-162
-161
-162
-161
-161
-161
-160
-162
-161
-162
-161
-160
-161
-162
-162
-162
-161
-161
-161
-162
-162
-162
-162
-162
-161
-161
-162
-162
-162
-163
-162
-162
-163
-163
-164
-164
-163
-163
-163
-164
-164
-165
-164
-164
-164
-164
-165
-165
-166
-165
-165
-165
-165
-165
-166
-167
-166
-166
-166
-167
-167
-167
-167
-167
-166
-166
-167
-167
-168
-167
-167
-166
-167
-167
-167
-168
-167
-167
-167
-167
-168
-168
-168
-168
-168
-168
-168
-170
-170
-170
-170
-170
-171
-171
-172
-172
-172
-171
-172
-172
-172
-173
-173
-173
-172
-172
-173
-174
-175
-174
-174
-174
-175
-175
-176
-177
-177
-177
-177
-178
-179
-179
-180
-180
-180
-180
-181
-182
-183
-183
-183
-183
-184
-184
-185
-186
-186
-186
-186
-187
-188
-189
-189
-190
-190
-190
-191
-192
-193
-194
-194
-194
-196
-197
-198
-199
-199
-199
-200
-201
-202
-204
-204
-204
-205
-206
-206
-207
-209
-209
-209
-209
-210
-212
-213
-213
-214
-213
-214
-215
-216
-218
-218
-218
-219
-219
-220
-221
-222
-222
-223
-223
-223
-225
-225
-226
-226
-226
-227
-227
-227
-228
-228
-227
-228
-228
-228
-229
-228
-228
-228
-227
-227
-227
-227
-227
-226
-224
-224
-223
-223
-222
-222
-220
-219
-218
-216
-216
-216
-214
-212
-210
-209
-209
-207
-206
-205
-202
-201
-199
-198
-197
-196
-194
-191
-191
-189
-189
-188
-186
-185
-183
-182
-181
-181
-180
-178
-177
-176
-176
-175
-174
-173
-172
-170
-169
-169
-169
-168
-168
-166
-165
-165
-165
-165
-165
-163
-163
-162
-162
-161
-161
-160
-160
-158
-159
-158
-158
-159
-157
-157
-156
-156
-156
-156
-156
-155
-155
-154
-155
-156
-155
-155
-154
-154
-154
-154
-154
-155
-154
-154
-153
-153
-153
-154
-154
-153
-153
-152
-153
-153
-153
-153
-152
-152
-152
-152
-153
-153
-153
-152
-152
-152
-152
-152
-153
-153
-152
-151
-152
-152
-153
-152
-152
-151
-151
-151
-151
-152
-151
-151
-150
-150
-150
-151
-151
-150
-149
-150
-150
-151
-151
-150
-150
-150
-149
-150
-150
-151
-151
-151
-150
-151
-152
-152
-152
-151
-151
-150
-151
-151
-152
-152
-151
-151
-150
-151
-151
-152
-151
-151
-150
-151
-151
-151
-152
-151
-151
-150
-151
-152
-151
-151
-151
-150
-151
-150
-152
-151
-152
-150
-151
-150
-151
-152
-151
-152
-151
-150
-151
-152
-151
-151
-151
-151
-151
-150
-151
-151
-151
-150
-150
-149
-150
-151
-150
-150
-149
-150
-150
-151
-150
-151
-150
-150
-150
-149
-150
-151
-151
-151
-150
-150
-151
-151
-152
-151
-151
-151
-151
-151
-152
-152
-152
-151
-151
-152
-153
-152
-153
-152
-151
-151
-152
-153
-153
-153
-151
-152
-152
-153
-153
-153
-152
-152
-151
-151
-152
-153
-152
-151
-151
-151
-151
-152
-151
-152
-151
-150
-151
-152
-151
-151
-151
-150
-151
-150
-152
-151
-151
-150
-151
-150
-151
-152
-152
-151
-150
-151
-151
-152
-152
-152
-151
-151
-151
-152
-152
-153
-152
-152
-152
-152
-152
-153
-153
-152
-152
-152
-152
-153
-153
-153
-151
-151
-151
-152
-152
-152
-151
-150
-150
-150
-150
-151
-151
-150
-150
-150
-150
-150
-151
-150
-149
-149
-149
-149
-149
-150
-149
-149
-149
-149
-149
-150
-150
-149
-148
-149
-148
-150
-149
-150
-149
-149
-149
-150
-150
-151
-151
-151
-150
-151
-151
-151
-152
-151
-151
-150
-151
-151
-152
-151
-150
-150
-150
-150
-151
-150
-151
-150
-149
-150
-151
-151
-151
-150
-150
-150
-150
-151
-151
-151
-150
-150
-149
-150
-150
-150
-149
-149
-148
-149
-149
-150
-150
-149
-149
-149
-149
-149
-150
-150
-149
-149
-148
-149
-149
-150
-149
-149
-149
-149
-149
-150
-149
-149
-148
-148
-148
-149
-149
-148
-148
-147
-147
-148
-148
-148
-148
-148
-147
-147
-148
-148
-148
-147
-147
-147
-148
-148
-148
-148
-147
-147
-147
-147
-147
-148
-147
-147
-146
-147
-147
-147
-148
-147
-147
-146
-146
-147
-148
-147
-147
-146
-146
-147
-147
-147
-148
-147
-147
-147
-148
-149
-148
-148
-147
-148
-148
-149
-149
-148
-149
-148
-148
-149
-149
-149
-149
-149
-148
-149
-149
-149
-150
-149
-149
-148
-149
-149
-149
-149
-148
-148
-148
-148
-149
-149
-148
-148
-148
-148
-149
-150
-149
-149
-148
-149
-149
-149
-150
-149
-149
-148
-148
-149
-150
-150
-149
-149
-148
-149
-149
-150
-150
-149
-148
-149
-148
-149
-149
-149
-149
-148
-147
-148
-148
-149
-148
-148
-147
-147
-148
-148
-149
-148
-148
-148
-148
-149
-149
-149
-149
-149
-149
-150
-150
-151
-151
-151
-151
-152
-152
-153
-154
-153
-153
-153
-153
-155
-155
-155
-155
-155
-155
-156
-156
-157
-157
-157
-157
-158
-158
-159
-159
-159
-159
-159
-160
-161
-161
-161
-161
-160
-160
-161
-161
-162
-162
-162
-161
-162
-162
-163
-163
-163
-163
-163
-163
-165
-165
-166
-165
-165
-165
-166
-166
-167
-168
-167
-167
-168
-169
-169
-169
-170
-169
-169
-169
-170
-170
-170
-169
-168
-168
-168
-168
-168
-168
-167
-167
-166
-167
-166
-166
-166
-165
-165
-164
-165
-166
-165
-164
-164
-163
-164
-164
-164
-164
-163
-162
-162
-162
-163
-162
-162
-161
-160
-160
-160
-159
-159
-158
-157
-156
-156
-156
-156
-155
-155
-153
-153
-153
-153
-153
-152
-152
-151
-151
-151
-151
-151
-151
-149
-150
-150
-151
-150
-151
-149
-150
-150
-150
-151
-150
-151
-150
-149
-150
-150
-151
-150
-150
-149
-149
-150
-150
-150
-150
-150
-149
-149
-149
-150
-150
-150
-149
-149
-149
-150
-151
-151
-150
-150
-150
-150
-151
-152
-151
-150
-151
-151
-151
-152
-152
-151
-151
-151
-151
-151
-152
-151
-151
-150
-150
-150
-151
-151
-150
-150
-150
-150
-149
-150
-150
-151
-151
-151
-152
-154
-155
-156
-157
-158
-160
-164
-167
-170
-174
-178
-182
-187
-192
-199
-204
-210
-215
-222
-228
-235
-243
-248
-254
-261
-267
-273
-280
-285
-290
-293
-297
-299
-302
-303
-304
-304
-302
-300
-298
-294
-291
-284
-278
-271
-264
-257
-249
-242
-233
-224
-215
-207
-200
-193
-185
-178
-172
-166
-161
-158
-154
-150
-147
-144
-142
-141
-140
-140
-139
-137
-137
-137
-138
-140
-140
-140
-141
-141
-142
-143
-145
-146
-146
-146
-147
-148
-149
-151
-150
-151
-152
-152
-152
-154
-154
-154
-154
-154
-154
-155
-155
-155
-155
-154
-154
-155
-155
-156
-155
-155
-155
-155
-156
-157
-156
-157
-156
-156
-157
-157
-157
-157
-157
-156
-156
-157
-157
-157
-157
-157
-156
-157
-157
-158
-157
-158
-157
-157
-157
-158
-159
-158
-157
-158
-157
-158
-158
-159
-159
-158
-158
-159
-159
-160
-160
-160
-159
-160
-159
-161
-160
-161
-160
-159
-160
-159
-160
-161
-160
-159
-160
-160
-160
-161
-160
-161
-160
-159
-160
-161
-161
-161
-161
-160
-160
-161
-163
-162
-162
-162
-162
-163
-164
-164
-164
-164
-164
-164
-165
-165
-165
-165
-164
-164
-164
-165
-165
-166
-165
-165
-164
-165
-165
-166
-166
-166
-166
-165
-166
-166
-167
-167
-167
-166
-166
-167
-168
-168
-168
-167
-167
-167
-168
-168
-168
-168
-168
-167
-168
-168
-169
-169
-169
-169
-169
-170
-170
-171
-171
-171
-171
-171
-172
-173
-173
-173
-173
-173
-174
-175
-175
-175
-175
-175
-175
-176
-176
-177
-177
-177
-177
-177
-178
-179
-179
-179
-180
-180
-181
-182
-183
-183
-184
-183
-184
-185
-186
-187
-187
-188
-188
-189
-190
-191
-192
-192
-192
-192
-193
-195
-195
-195
-196
-195
-196
-197
-198
-199
-199
-199
-200
-201
-202
-204
-204
-204
-205
-205
-207
-208
-210
-210
-210
-210
-211
-213
-214
-215
-216
-215
-216
-217
-219
-219
-221
-221
-221
-221
-222
-223
-225
-225
-225
-225
-225
-226
-227
-228
-228
-228
-228
-228
-229
-230
-231
-230
-230
-229
-230
-230
-231
-231
-229
-229
-229
-229
-229
-230
-229
-228
-227
-226
-226
-225
-225
-223
-222
-220
-219
-219
-218
-216
-214
-213
-211
-210
-210
-209
-207
-205
-203
-202
-201
-200
-198
-197
-195
-194
-192
-192
-192
-190
-189
-186
-185
-184
-184
-183
-181
-180
-178
-177
-177
-176
-176
-174
-173
-171
-171
-171
-170
-169
-168
-167
-166
-166
-165
-165
-164
-163
-162
-162
-162
-162
-162
-161
-161
-160
-160
-160
-160
-159
-159
-158
-157
-158
-159
-158
-158
-157
-157
-157
-157
-158
-158
-157
-157
-156
-157
-158
-157
-157
-157
-157
-157
-157
-157
-158
-157
-157
-156
-156
-157
-157
-157
-157
-156
-156
-156
-157
-157
-157
-156
-156
-155
-156
-156
-157
-156
-156
-156
-156
-156
-157
-156
-157
-156
-155
-156
-157
-157
-157
-157
-156
-155
-156
-156
-156
-155
-155
-154
-155
-155
-155
-155
-154
-154
-154
-154
-154
-155
-155
-155
-154
-153
-154
-154
-155
-155
-155
-154
-155
-155
-156
-156
-156
-155
-156
-156
-157
-156
-157
-156
-155
-156
-156
-157
-156
-156
-155
-156
-156
-155
-156
-156
-156
-155
-155
-156
-156
-156
-156
-156
-155
-155
-155
-156
-156
-156
-156
-155
-155
-155
-156
-156
-156
-155
-155
-155
-155
-156
-156
-155
-155
-154
-155
-155
-156
-155
-155
-154
-155
-156
-156
-156
-156
-155
-155
-156
-157
-157
-156
-157
-157
-156
-156
-157
-158
-157
-156
-156
-157
-156
-157
-157
-157
-157
-156
-156
-157
-157
-157
-156
-156
-156
-157
-157
-158
-157
-157
-157
-157
-157
-158
-158
-157
-157
-157
-157
-158
-158
-158
-157
-156
-156
-157
-157
-157
-156
-156
-156
-156
-156
-157
-157
-156
-156
-156
-156
-157
-157
-157
-156
-156
-156
-156
-157
-157
-157
-157
-156
-156
-157
-157
-157
-156
-156
-156
-156
-157
-157
-157
-156
-156
-156
-156
-156
-157
-156
-156
-155
-155
-155
-156
-156
-155
-155
-155
-155
-155
-156
-156
-155
-155
-154
-155
-155
-156
-155
-154
-155
-154
-155
-156
-155
-156
-155
-154
-155
-155
-155
-155
-155
-154
-154
-154
-155
-155
-155
-154
-154
-154
-154
-155
-155
-155
-154
-154
-154
-155
-155
-155
-154
-153
-154
-153
-155
-154
-155
-153
-153
-153
-154
-154
-154
-154
-153
-153
-154
-155
-155
-154
-154
-154
-154
-154
-155
-155
-156
-155
-155
-155
-155
-156
-156
-156
-155
-155
-155
-156
-155
-156
-154
-153
-154
-153
-154
-154
-154
-153
-152
-153
-154
-154
-154
-153
-153
-153
-153
-154
-154
-154
-154
-153
-153
-154
-155
-155
-155
-154
-155
-154
-155
-155
-155
-156
-155
-154
-154
-155
-155
-154
-154
-153
-153
-154
-154
-154
-154
-153
-153
-153
-153
-154
-154
-154
-154
-154
-153
-155
-155
-155
-154
-154
-154
-155
-155
-155
-155
-153
-154
-154
-154
-155
-155
-154
-153
-154
-153
-154
-154
-154
-153
-153
-153
-153
-154
-155
-154
-153
-154
-154
-154
-155
-155
-154
-153
-154
-154
-155
-155
-154
-154
-154
-154
-154
-155
-155
-156
-154
-155
-155
-155
-156
-157
-156
-155
-155
-155
-156
-157
-156
-155
-155
-155
-155
-155
-156
-155
-155
-155
-155
-156
-156
-156
-155
-155
-155
-155
-155
-156
-155
-154
-154
-154
-154
-155
-155
-155
-154
-154
-154
-155
-155
-155
-155
-155
-154
-155
-155
-156
-156
-155
-155
-155
-156
-156
-156
-156
-156
-155
-156
-156
-157
-157
-157
-157
-156
-157
-158
-159
-159
-158
-158
-159
-159
-160
-161
-161
-161
-161
-162
-162
-162
-163
-163
-163
-163
-164
-164
-165
-165
-164
-164
-164
-165
-165
-166
-165
-165
-164
-165
-166
-165
-166
-166
-166
-166
-167
-168
-169
-169
-170
-169
-169
-171
-172
-172
-173
-173
-173
-174
-174
-175
-175
-174
-174
-174
-173
-174
-174
-173
-172
-172
-171
-171
-171
-171
-171
-169
-169
-168
-169
-168
-168
-168
-167
-167
-167
-168
-167
-167
-167
-166
-165
-166
-166
-167
-166
-165
-164
-164
-164
-165
-164
-164
-162
-162
-162
-162
-161
-161
-159
-158
-157
-158
-158
-157
-156
-156
-155
-155
-156
-156
-155
-156
-154
-155
-154
-155
-155
-156
-154
-153
-154
-154
-155
-154
-154
-153
-153
-153
-153
-154
-154
-153
-153
-153
-152
-154
-153
-154
-153
-152
-153
-153
-154
-153
-154
-153
-153
-152
-153
-154
-153
-154
-153
-153
-153
-153
-154
-154
-154
-153
-153
-154
-154
-155
-154
-154
-154
-155
-155
-156
-156
-155
-154
-155
-156
-156
-156
-156
-156
-156
-155
-156
-156
-157
-156
-156
-156
-156
-157
-157
-158
-158
-158
-160
-160
-162
-164
-166
-168
-169
-172
-175
-179
-183
-187
-191
-195
-200
-207
-212
-219
-224
-230
-236
-243
-250
-256
-262
-268
-274
-280
-285
-291
-295
-299
-301
-303
-305
-307
-307
-307
-305
-301
-297
-293
-289
-283
-277
-269
-262
-255
-247
-240
-232
-224
-215
-207
-199
-193
-187
-180
-173
-168
-164
-159
-157
-153
-151
-148
-145
-144
-143
-143
-143
-142
-141
-141
-142
-143
-144
-144
-145
-146
-146
-148
-149
-150
-151
-151
-151
-152
-153
-154
-156
-156
-157
-157
-157
-158
-159
-159
-159
-159
-159
-160
-161
-162
-161
-160
-160
-160
-161
-161
-162
-161
-161
-160
-161
-162
-161
-162
-161
-161
-161
-162
-162
-162
-162
-162
-161
-161
-162
-163
-163
-163
-162
-162
-163
-164
-163
-164
-163
-163
-163
-163
-164
-164
-164
-164
-163
-163
-164
-164
-165
-165
-165
-164
-165
-165
-166
-167
-166
-166
-166
-166
-167
-168
-167
-166
-166
-166
-166
-167
-167
-167
-166
-165
-166
-167
-167
-167
-167
-166
-166
-167
-167
-167
-167
-167
-166
-167
-167
-168
-169
-168
-168
-168
-168
-168
-169
-169
-168
-168
-168
-168
-169
-169
-169
-169
-168
-168
-168
-168
-169
-168
-168
-168
-169
-170
-170
-170
-170
-170
-170
-170
-171
-171
-172
-172
-172
-172
-172
-173
-173
-174
-173
-172
-173
-174
-174
-174
-175
-174
-173
-174
-174
-175
-175
-174
-174
-174
-175
-175
-176
-175
-176
-175
-176
-177
-178
-178
-178
-178
-178
-179
-180
-181
-181
-181
-181
-181
-182
-182
-183
-183
-183
-183
-184
-184
-185
-186
-185
-185
-186
-186
-187
-187
-187
-188
-187
-187
-189
-189
-190
-190
-191
-191
-192
-194
-194
-195
-195
-196
-197
-197
-199
-199
-201
-201
-201
-202
-203
-204
-206
-206
-207
-207
-207
-209
-210
-211
-211
-212
-212
-213
-214
-215
-215
-216
-216
-216
-218
-219
-219
-220
-220
-220
-221
-222
-223
-224
-224
-225
-225
-226
-227
-228
-229
-228
-228
-229
-230
-231
-231
-231
-231
-231
-232
-232
-232
-233
-232
-232
-232
-233
-233
-233
-233
-231
-231
-230
-230
-230
-229
-229
-227
-226
-225
-226
-226
-224
-223
-221
-221
-219
-219
-218
-217
-214
-213
-211
-210
-209
-208
-206
-204
-202
-201
-200
-199
-198
-195
-194
-192
-191
-190
-189
-188
-186
-184
-184
-183
-183
-182
-180
-179
-178
-177
-177
-177
-176
-175
-174
-173
-173
-172
-172
-171
-170
-169
-169
-168
-168
-168
-167
-167
-166
-165
-166
-165
-165
-165
-163
-163
-163
-163
-163
-163
-162
-162
-161
-162
-162
-162
-162
-162
-161
-161
-161
-162
-163
-162
-162
-162
-162
-163
-163
-163
-162
-161
-161
-161
-161
-162
-161
-161
-160
-161
-160
-161
-161
-160
-160
-160
-161
-161
-161
-161
-160
-160
-160
-160
-161
-161
-160
-160
-160
-160
-160
-161
-161
-160
-159
-160
-159
-161
-160
-160
-160
-159
-158
-159
-159
-160
-159
-159
-159
-159
-160
-160
-160
-159
-159
-159
-160
-160
-160
-160
-159
-159
-158
-158
-159
-159
-159
-158
-158
-158
-159
-159
-159
-159
-158
-158
-159
-160
-159
-159
-159
-158
-159
-158
-159
-160
-159
-158
-159
-159
-159
-160
-160
-159
-159
-159
-158
-159
-160
-159
-158
-158
-158
-158
-159
-160
-159
-158
-158
-159
-159
-160
-160
-159
-159
-159
-158
-160
-160
-160
-159
-159
-159
-159
-160
-160
-160
-160
-159
-159
-159
-160
-161
-160
-160
-160
-161
-161
-162
-161
-160
-160
-160
-161
-161
-161
-161
-160
-160
-160
-161
-160
-161
-160
-160
-159
-160
-160
-161
-160
-160
-159
-159
-160
-160
-160
-160
-160
-159
-160
-161
-160
-161
-160
-160
-160
-160
-161
-160
-160
-160
-159
-159
-160
-160
-160
-160
-160
-159
-160
-160
-161
-161
-160
-160
-160
-160
-161
-161
-161
-161
-160
-159
-160
-160
-160
-160
-159
-159
-159
-160
-160
-160
-159
-158
-158
-158
-158
-159
-158
-158
-157
-157
-158
-158
-158
-158
-158
-157
-158
-159
-159
-159
-159
-159
-158
-159
-159
-160
-160
-160
-159
-158
-159
-159
-159
-158
-158
-158
-158
-159
-158
-158
-158
-158
-157
-158
-158
-158
-158
-158
-157
-157
-158
-158
-158
-157
-157
-157
-157
-157
-158
-158
-157
-156
-157
-156
-158
-157
-158
-157
-157
-157
-156
-157
-157
-157
-156
-157
-157
-157
-158
-158
-157
-157
-156
-157
-157
-158
-157
-157
-155
-155
-156
-157
-156
-156
-155
-154
-155
-156
-155
-156
-155
-155
-154
-155
-155
-156
-156
-155
-154
-155
-155
-156
-155
-155
-155
-154
-155
-156
-156
-156
-155
-155
-155
-156
-156
-156
-156
-156
-155
-155
-155
-155
-156
-155
-155
-155
-155
-156
-156
-156
-156
-156
-155
-156
-156
-157
-157
-156
-156
-155
-156
-156
-157
-156
-155
-156
-155
-156
-156
-156
-156
-155
-155
-156
-156
-157
-156
-155
-156
-156
-156
-157
-156
-157
-156
-155
-156
-157
-157
-157
-157
-157
-157
-156
-158
-157
-157
-157
-157
-157
-158
-158
-159
-159
-158
-158
-158
-160
-160
-160
-160
-160
-160
-160
-162
-162
-162
-162
-161
-162
-162
-163
-163
-164
-163
-162
-163
-164
-164
-164
-165
-164
-164
-165
-165
-166
-166
-166
-165
-166
-167
-168
-168
-169
-168
-169
-169
-169
-170
-170
-170
-169
-169
-170
-170
-170
-170
-168
-168
-167
-167
-168
-168
-168
-166
-166
-166
-167
-166
-166
-166
-165
-164
-165
-166
-165
-165
-165
-163
-163
-163
-163
-164
-163
-161
-161
-160
-161
-160
-160
-159
-158
-157
-157
-157
-156
-157
-155
-154
-154
-153
-154
-153
-153
-152
-152
-151
-152
-152
-152
-152
-150
-151
-150
-151
-152
-151
-150
-150
-149
-150
-150
-150
-150
-149
-149
-149
-149
-150
-150
-149
-148
-148
-148
-149
-148
-149
-148
-148
-148
-147
-148
-148
-148
-147
-147
-147
-148
-148
-148
-148
-148
-147
-148
-148
-149
-149
-148
-148
-148
-149
-149
-150
-150
-150
-149
-149
-149
-150
-150
-150
-150
-149
-150
-151
-150
-150
-150
-149
-149
-150
-149
-149
-149
-149
-148
-149
-149
-149
-150
-150
-150
-151
-152
-153
-155
-155
-157
-158
-160
-163
-166
-170
-173
-176
-181
-186
-191
-197
-201
-206
-212
-217
-223
-230
-237
-242
-248
-253
-259
-265
-272
-276
-280
-284
-287
-290
-292
-294
-294
-294
-292
-290
-288
-284
-281
-275
-270
-263
-256
-250
-243
-236
-228
-220
-212
-205
-199
-192
-186
-180
-174
-168
-164
-160
-157
-153
-149
-147
-144
-143
-143
-141
-140
-139
-139
-138
-138
-139
-139
-140
-139
-139
-140
-142
-143
-143
-143
-143
-144
-146
-147
-148
-148
-148
-148
-149
-150
-151
-152
-152
-151
-151
-152
-153
-154
-153
-153
-153
-153
-154
-154
-154
-154
-153
-154
-154
-154
-155
-155
-154
-154
-154
-154
-155
-155
-155
-154
-154
-154
-154
-155
-155
-155
-155
-154
-155
-155
-156
-157
-156
-156
-156
-157
-157
-158
-158
-157
-157
-157
-158
-159
-159
-159
-159
-158
-159
-159
-160
-160
-159
-159
-158
-159
-159
-159
-159
-158
-158
-157
-158
-158
-159
-158
-158
-157
-158
-159
-159
-159
-158
-158
-158
-159
-159
-160
-160
-159
-159
-160
-160
-161
-162
-161
-161
-161
-161
-162
-162
-162
-162
-161
-162
-161
-162
-162
-162
-161
-161
-161
-161
-161
-162
-161
-161
-161
-161
-162
-162
-163
-163
-163
-162
-163
-164
-165
-164
-165
-164
-165
-165
-166
-166
-166
-165
-166
-166
-167
-167
-167
-167
-166
-166
-166
-168
-167
-167
-167
-166
-167
-167
-168
-169
-168
-169
-168
-169
-169
-170
-171
-170
-171
-171
-172
-172
-173
-173
-173
-172
-173
-174
-174
-175
-176
-175
-175
-175
-177
-177
-177
-178
-177
-178
-179
-180
-181
-181
-180
-180
-181
-182
-183
-183
-183
-184
-184
-185
-185
-187
-187
-187
-187
-188
-189
-190
-191
-192
-192
-192
-193
-195
-196
-197
-197
-198
-199
-200
-201
-202
-203
-203
-204
-204
-206
-207
-208
-209
-208
-209
-210
-210
-211
-212
-212
-212
-212
-213
-214
-216
-216
-217
-216
-217
-217
-218
-219
-220
-219
-219
-220
-221
-222
-223
-223
-222
-223
-223
-224
-224
-225
-224
-224
-224
-225
-225
-225
-225
-224
-224
-223
-223
-223
-223
-222
-220
-220
-220
-219
-219
-218
-216
-215
-213
-212
-212
-211
-209
-208
-205
-204
-203
-202
-201
-199
-197
-195
-194
-193
-192
-191
-190
-187
-186
-185
-184
-183
-182
-180
-179
-177
-177
-176
-175
-174
-172
-171
-171
-170
-169
-169
-167
-166
-165
-165
-164
-164
-164
-162
-161
-161
-161
-160
-160
-159
-158
-157
-157
-158
-157
-157
-157
-156
-156
-155
-156
-156
-156
-154
-154
-154
-154
-154
-155
-154
-154
-153
-153
-154
-154
-154
-154
-153
-153
-153
-154
-154
-154
-153
-153
-153
-153
-154
-153
-154
-152
-153
-152
-153
-154
-153
-153
-152
-153
-152
-153
-153
-153
-152
-152
-152
-152
-152
-152
-152
-151
-151
-151
-152
-151
-152
-151
-151
-151
-152
-152
-152
-152
-152
-151
-151
-152
-152
-153
-152
-152
-151
-152
-152
-153
-153
-152
-151
-151
-151
-152
-152
-151
-151
-150
-150
-151
-151
-152
-151
-151
-151
-151
-153
-152
-153
-152
-152
-152
-152
-153
-153
-153
-153
-152
-151
-152
-152
-153
-152
-152
-151
-151
-152
-152
-152
-152
-151
-151
-151
-152
-153
-152
-152
-151
-151
-151
-152
-152
-152
-152
-151
-151
-152
-152
-153
-152
-152
-152
-153
-153
-153
-153
-153
-153
-153
-152
-153
-154
-153
-152
-151
-152
-152
-152
-152
-153
-151
-152
-152
-153
-152
-152
-151
-151
-151
-151
-152
-152
-152
-151
-151
-151
-152
-152
-153
-153
-152
-152
-153
-153
-154
-153
-153
-152
-153
-153
-154
-154
-154
-153
-153
-153
-154
-154
-155
-154
-153
-153
-153
-154
-153
-154
-152
-152
-152
-153
-153
-153
-153
-153
-152
-152
-153
-153
-153
-152
-152
-152
-152
-153
-153
-153
-153
-152
-152
-152
-153
-153
-152
-152
-152
-152
-152
-153
-153
-152
-152
-152
-151
-152
-152
-152
-151
-151
-151
-151
-152
-152
-152
-151
-151
-152
-152
-153
-153
-152
-151
-152
-152
-153
-153
-153
-152
-152
-152
-152
-152
-153
-152
-152
-151
-151
-152
-152
-152
-151
-151
-151
-151
-151
-152
-151
-151
-150
-150
-150
-152
-151
-151
-150
-150
-150
-151
-150
-150
-150
-150
-149
-150
-150
-150
-150
-149
-149
-149
-148
-150
-150
-149
-148
-149
-149
-149
-150
-150
-149
-149
-149
-149
-150
-149
-150
-149
-149
-149
-148
-149
-150
-149
-148
-149
-149
-149
-150
-150
-149
-148
-149
-149
-150
-151
-150
-150
-149
-149
-150
-150
-151
-150
-150
-149
-149
-150
-150
-150
-150
-149
-149
-150
-150
-150
-150
-149
-148
-148
-149
-149
-149
-149
-149
-148
-148
-149
-149
-150
-149
-149
-148
-149
-149
-150
-149
-149
-148
-149
-149
-150
-149
-149
-148
-149
-148
-149
-149
-149
-149
-149
-148
-149
-149
-150
-150
-150
-149
-149
-149
-150
-150
-150
-149
-149
-149
-150
-151
-150
-150
-149
-149
-149
-151
-150
-150
-150
-149
-149
-150
-150
-151
-150
-150
-150
-150
-150
-151
-151
-151
-150
-149
-150
-150
-151
-150
-150
-149
-149
-150
-150
-150
-150
-149
-149
-149
-149
-150
-150
-150
-149
-149
-149
-150
-150
-150
-149
-149
-148
-149
-149
-150
-149
-149
-149
-149
-149
-150
-149
-150
-149
-149
-149
-150
-151
-151
-151
-150
-150
-151
-151
-152
-152
-151
-151
-152
-153
-153
-154
-154
-154
-154
-155
-156
-156
-156
-156
-156
-156
-157
-158
-158
-158
-157
-157
-158
-159
-159
-159
-158
-158
-158
-159
-159
-160
-160
-159
-159
-159
-160
-161
-161
-161
-160
-161
-162
-163
-163
-164
-164
-164
-164
-165
-166
-167
-167
-166
-166
-166
-167
-168
-167
-167
-167
-166
-165
-166
-166
-166
-164
-163
-163
-163
-163
-163
-163
-161
-161
-160
-161
-162
-162
-161
-161
-160
-160
-161
-161
-161
-160
-160
-160
-160
-161
-160
-160
-159
-158
-157
-158
-158
-157
-157
-155
-154
-154
-153
-153
-152
-151
-150
-149
-149
-149
-149
-148
-148
-146
-147
-146
-147
-147
-146
-145
-145
-145
-146
-145
-145
-145
-144
-145
-144
-145
-146
-145
-144
-144
-144
-144
-145
-145
-145
-144
-143
-144
-145
-145
-145
-145
-145
-144
-145
-145
-146
-145
-144
-144
-144
-145
-145
-146
-145
-145
-144
-145
-144
-145
-145
-145
-144
-144
-145
-145
-146
-145
-144
-144
-144
-145
-145
-146
-145
-145
-145
-145
-145
-146
-146
-146
-144
-145
-145
-145
-145
-146
-144
-144
-144
-144
-145
-146
-145
-145
-146
-147
-149
-149
-152
-153
-154
-157
-159
-162
-165
-169
-173
-177
-181
-187
-192
-199
-204
-210
-216
-223
-230
-237
-244
-250
-256
-262
-269
-275
-281
-285
-288
-292
-294
-297
-299
-300
-298
-296
-295
-291
-288
-283
-278
-272
-264
-257
-249
-243
-234
-226
-216
-208
-199
-192
-185
-179
-172
-165
-158
-155
-150
-147
-143
-140
-137
-135
-134
-134
-133
-132
-131
-131
-132
-133
-134
-135
-135
-136
-136
-137
-139
-140
-142
-142
-142
-143
-144
-145
-146
-146
-146
-146
-147
-147
-148
-149
-149
-148
-148
-148
-149
-149
-150
-149
-149
-149
-149
-149
-150
-150
-149
-149
-149
-149
-149
-150
-149
-149
-148
-149
-150
-150
-150
-150
-149
-149
-149
-151
-150
-150
-150
-149
-150
-150
-151
-151
-151
-150
-150
-150
-152
-152
-152
-152
-151
-151
-152
-153
-153
-152
-152
-151
-151
-152
-153
-153
-153
-152
-152
-152
-153
-153
-153
-153
-153
-152
-153
-154
-154
-155
-154
-154
-154
-154
-155
-155
-155
-155
-154
-155
-155
-156
-156
-155
-155
-155
-154
-156
-156
-156
-154
-155
-154
-155
-155
-156
-155
-155
-155
-155
-155
-156
-157
-156
-156
-156
-157
-157
-157
-157
-157
-156
-156
-157
-158
-158
-158
-158
-158
-158
-159
-159
-160
-159
-159
-159
-160
-160
-161
-161
-160
-160
-161
-161
-162
-162
-162
-161
-161
-162
-162
-163
-163
-163
-162
-162
-162
-164
-164
-164
-163
-163
-163
-164
-164
-165
-166
-165
-165
-165
-166
-167
-168
-168
-168
-168
-168
-169
-170
-170
-169
-170
-170
-170
-172
-172
-172
-172
-173
-172
-174
-174
-175
-176
-175
-175
-177
-178
-179
-179
-180
-179
-180
-181
-182
-184
-184
-184
-185
-186
-187
-187
-188
-189
-189
-190
-191
-192
-193
-194
-193
-193
-195
-195
-196
-198
-198
-199
-199
-200
-201
-203
-203
-204
-204
-204
-206
-207
-209
-209
-209
-209
-209
-211
-212
-213
-213
-213
-213
-214
-215
-216
-217
-217
-217
-218
-218
-219
-220
-220
-219
-218
-219
-220
-220
-221
-221
-221
-220
-221
-221
-221
-221
-221
-219
-219
-219
-220
-219
-219
-217
-216
-215
-215
-214
-214
-213
-211
-210
-210
-208
-208
-207
-204
-203
-201
-200
-200
-198
-197
-194
-192
-190
-190
-188
-187
-186
-183
-182
-181
-179
-178
-177
-176
-174
-173
-172
-172
-171
-169
-168
-166
-166
-165
-165
-164
-163
-162
-161
-160
-160
-160
-160
-158
-158
-157
-157
-156
-156
-155
-154
-153
-153
-153
-153
-153
-152
-152
-151
-151
-151
-151
-151
-150
-150
-149
-150
-150
-150
-149
-149
-148
-148
-148
-149
-149
-148
-148
-147
-147
-148
-147
-147
-147
-146
-146
-146
-147
-147
-148
-147
-147
-147
-147
-148
-149
-148
-148
-148
-148
-148
-149
-150
-149
-148
-148
-149
-150
-149
-149
-148
-147
-147
-148
-148
-148
-148
-147
-147
-147
-147
-148
-148
-147
-146
-147
-147
-148
-148
-148
-147
-147
-147
-146
-147
-148
-147
-147
-146
-147
-146
-147
-147
-146
-146
-146
-146
-147
-147
-146
-146
-145
-145
-146
-146
-146
-145
-145
-145
-145
-146
-146
-146
-146
-146
-145
-146
-146
-147
-146
-146
-145
-145
-146
-146
-147
-147
-146
-145
-146
-147
-147
-147
-146
-146
-146
-147
-147
-148
-148
-147
-147
-147
-147
-148
-148
-148
-148
-147
-148
-148
-148
-149
-148
-148
-147
-148
-149
-149
-149
-149
-148
-148
-149
-150
-149
-150
-149
-149
-150
-150
-150
-150
-150
-150
-149
-150
-150
-150
-150
-150
-149
-148
-149
-149
-150
-149
-149
-148
-148
-148
-149
-149
-148
-148
-148
-148
-148
-149
-148
-148
-147
-147
-147
-147
-148
-148
-147
-148
-147
-148
-149
-149
-149
-148
-149
-149
-150
-149
-150
-149
-148
-149
-148
-150
-149
-149
-148
-147
-148
-149
-148
-148
-148
-147
-147
-148
-148
-148
-148
-147
-147
-147
-147
-147
-148
-147
-147
-147
-147
-148
-148
-148
-148
-147
-147
-148
-149
-148
-149
-148
-148
-148
-147
-149
-149
-148
-147
-148
-147
-148
-149
-148
-148
-147
-147
-147
-148
-148
-148
-147
-146
-147
-147
-148
-148
-148
-147
-147
-148
-148
-148
-149
-148
-148
-148
-148
-149
-149
-149
-148
-148
-148
-148
-148
-149
-148
-148
-147
-148
-147
-148
-148
-147
-147
-147
-147
-148
-148
-147
-146
-146
-146
-147
-147
-147
-146
-146
-146
-146
-147
-147
-147
-146
-146
-146
-146
-146
-147
-146
-145
-145
-145
-145
-146
-146
-146
-146
-145
-146
-146
-146
-147
-146
-146
-145
-145
-146
-147
-146
-145
-145
-145
-146
-146
-147
-146
-146
-146
-146
-146
-147
-147
-147
-147
-146
-147
-147
-148
-148
-147
-147
-146
-146
-147
-146
-146
-145
-146
-146
-146
-147
-146
-146
-145
-145
-145
-146
-147
-146
-145
-146
-146
-145
-147
-147
-146
-146
-146
-146
-146
-147
-147
-147
-146
-145
-146
-146
-147
-146
-146
-146
-145
-146
-146
-147
-146
-146
-146
-146
-146
-147
-147
-147
-146
-146
-146
-147
-147
-147
-146
-146
-146
-146
-147
-146
-147
-146
-146
-146
-147
-146
-146
-147
-145
-145
-146
-146
-147
-146
-146
-145
-145
-146
-146
-146
-147
-145
-145
-145
-146
-146
-146
-146
-145
-144
-145
-145
-146
-145
-145
-144
-144
-145
-146
-146
-146
-145
-145
-146
-146
-147
-147
-146
-146
-146
-147
-147
-147
-147
-146
-146
-146
-147
-147
-147
-147
-147
-146
-147
-147
-148
-148
-147
-146
-147
-146
-147
-147
-146
-146
-145
-145
-145
-147
-146
-146
-145
-145
-145
-146
-146
-147
-146
-146
-146
-147
-148
-149
-149
-148
-148
-148
-149
-150
-151
-151
-151
-151
-151
-152
-152
-153
-153
-153
-153
-153
-154
-155
-155
-155
-154
-154
-155
-156
-156
-156
-155
-155
-156
-156
-157
-157
-156
-156
-156
-157
-157
-157
-157
-157
-157
-158
-159
-159
-160
-160
-160
-160
-161
-161
-162
-163
-163
-162
-163
-162
-163
-164
-163
-162
-162
-162
-162
-163
-163
-161
-161
-161
-161
-160
-160
-160
-160
-160
-159
-159
-159
-160
-159
-158
-158
-157
-158
-158
-158
-158
-156
-156
-156
-156
-157
-156
-156
-154
-154
-154
-154
-154
-154
-152
-151
-150
-151
-150
-150
-149
-149
-148
-148
-147
-147
-147
-146
-145
-145
-145
-145
-145
-144
-144
-142
-143
-143
-144
-144
-143
-143
-142
-143
-142
-143
-143
-143
-142
-142
-142
-143
-142
-142
-141
-141
-141
-140
-141
-141
-141
-140
-140
-140
-141
-142
-141
-141
-140
-141
-141
-142
-142
-143
-142
-141
-142
-142
-143
-143
-143
-143
-142
-143
-143
-144
-144
-144
-143
-143
-143
-144
-144
-145
-144
-144
-144
-143
-144
-144
-143
-143
-143
-143
-143
-143
-143
-143
-143
-143
-143
-145
-145
-145
-145
-146
-146
-148
-149
-152
-153
-155
-157
-160
-165
-169
-173
-177
-182
-186
-193
-199
-205
-210
-216
-223
-229
-236
-243
-250
-256
-261
-267
-274
-279
-284
-288
-291
-293
-294
-296
-297
-296
-295
-292
-288
-284
-280
-275
-269
-262
-254
-246
-238
-230
-223
-215
-206
-197
-189
-182
-175
-169
-163
-156
-151
-146
-143
-141
-138
-135
-133
-131
-130
-130
-130
-129
-129
-129
-129
-131
-132
-133
-134
-134
-135
-136
-137
-139
-140
-140
-140
-141
-143
-144
-144
-145
-145
-145
-145
-145
-146
-147
-146
-146
-146
-146
-146
-147
-147
-147
-146
-146
-146
-147
-147
-148
-148
-147
-147
-147
-148
-148
-148
-147
-147
-147
-148
-148
-148
-148
-147
-147
-147
-148
-148
-148
-148
-148
-147
-148
-148
-149
-149
-149
-148
-148
-149
-150
-150
-150
-149
-150
-149
-150
-151
-152
-151
-150
-151
-151
-152
-152
-152
-151
-150
-151
-151
-152
-152
-152
-151
-152
-151
-152
-153
-154
-153
-152
-153
-153
-154
-154
-154
-153
-153
-153
-153
-155
-155
-154
-153
-154
-154
-155
-155
-155
-155
-154
-154
-154
-155
-155
-155
-154
-154
-154
-154
-155
-155
-155
-154
-155
-154
-155
-156
-156
-156
-155
-155
-156
-158
-158
-157
-158
-157
-157
-158
-158
-159
-160
-159
-158
-159
-160
-161
-160
-160
-159
-160
-160
-161
-162
-162
-161
-161
-161
-161
-162
-162
-161
-161
-161
-161
-161
-162
-162
-162
-161
-162
-162
-162
-163
-163
-163
-163
-163
-164
-165
-166
-166
-166
-166
-167
-167
-168
-169
-169
-169
-169
-170
-171
-172
-172
-171
-172
-172
-173
-174
-175
-175
-175
-175
-176
-177
-178
-179
-178
-178
-179
-179
-181
-181
-182
-182
-183
-183
-184
-186
-186
-187
-187
-188
-189
-191
-192
-193
-193
-194
-195
-196
-198
-198
-199
-200
-200
-200
-201
-202
-204
-204
-205
-205
-205
-207
-208
-209
-209
-209
-209
-211
-212
-213
-213
-213
-212
-213
-214
-215
-216
-216
-216
-217
-217
-218
-219
-219
-219
-219
-219
-220
-221
-221
-221
-221
-220
-220
-221
-221
-221
-220
-220
-219
-219
-219
-219
-218
-217
-216
-215
-215
-214
-213
-211
-210
-208
-206
-206
-205
-204
-202
-201
-199
-198
-197
-196
-195
-193
-191
-189
-189
-187
-186
-186
-183
-182
-180
-180
-179
-178
-177
-174
-173
-172
-171
-171
-169
-167
-166
-165
-164
-164
-163
-162
-160
-160
-159
-159
-159
-158
-157
-157
-155
-155
-156
-155
-154
-154
-153
-152
-152
-153
-152
-152
-151
-150
-150
-150
-150
-150
-149
-149
-148
-148
-149
-148
-148
-148
-147
-148
-147
-148
-148
-148
-147
-147
-146
-147
-147
-147
-147
-146
-146
-146
-146
-147
-147
-146
-145
-146
-146
-147
-146
-146
-145
-145
-146
-146
-147
-146
-147
-146
-146
-146
-147
-147
-148
-147
-146
-146
-146
-147
-147
-147
-146
-146
-146
-146
-147
-146
-146
-145
-146
-146
-147
-147
-146
-147
-146
-145
-146
-147
-147
-147
-146
-145
-146
-146
-147
-146
-146
-145
-145
-145
-146
-146
-146
-145
-145
-145
-146
-146
-146
-146
-146
-145
-145
-145
-145
-146
-145
-145
-144
-145
-145
-145
-145
-145
-144
-144
-145
-145
-145
-144
-144
-143
-143
-144
-144
-144
-144
-144
-143
-144
-145
-145
-145
-145
-145
-144
-145
-146
-146
-146
-146
-145
-146
-145
-147
-147
-146
-146
-145
-146
-146
-146
-146
-145
-145
-145
-146
-146
-146
-146
-145
-144
-144
-145
-145
-146
-145
-145
-145
-145
-145
-146
-147
-146
-145
-146
-146
-147
-146
-147
-146
-146
-146
-146
-147
-147
-147
-147
-146
-146
-146
-147
-147
-146
-146
-145
-146
-146
-146
-145
-145
-144
-144
-144
-144
-145
-145
-144
-143
-144
-145
-145
-145
-144
-144
-144
-145
-145
-146
-146
-146
-145
-145
-146
-146
-147
-147
-146
-146
-146
-147
-147
-147
-147
-146
-145
-146
-146
-146
-146
-146
-145
-144
-145
-145
-145
-145
-144
-144
-144
-145
-145
-145
-144
-144
-144
-145
-145
-145
-145
-145
-144
-144
-144
-145
-145
-145
-144
-144
-145
-145
-146
-146
-145
-144
-145
-144
-146
-145
-145
-145
-144
-144
-144
-144
-145
-144
-144
-143
-143
-143
-144
-144
-143
-143
-142
-143
-143
-143
-143
-143
-142
-142
-142
-142
-143
-142
-142
-142
-142
-142
-143
-143
-142
-142
-142
-142
-143
-143
-143
-142
-142
-142
-142
-142
-143
-142
-142
-141
-142
-142
-142
-143
-142
-142
-141
-142
-142
-143
-142
-142
-141
-141
-142
-142
-142
-142
-142
-141
-142
-142
-142
-142
-142
-142
-141
-141
-142
-141
-142
-141
-141
-141
-141
-142
-141
-141
-140
-141
-140
-141
-142
-141
-141
-140
-141
-141
-142
-142
-141
-141
-140
-140
-141
-142
-142
-142
-142
-141
-142
-142
-143
-143
-142
-142
-142
-142
-143
-143
-143
-142
-142
-142
-142
-142
-142
-141
-141
-140
-141
-141
-141
-141
-141
-140
-140
-140
-141
-142
-141
-140
-141
-141
-140
-142
-141
-141
-140
-141
-141
-141
-142
-142
-141
-141
-141
-141
-142
-142
-141
-140
-140
-140
-140
-141
-141
-140
-139
-140
-139
-140
-140
-140
-139
-139
-138
-139
-139
-140
-139
-140
-139
-139
-140
-140
-140
-140
-140
-139
-140
-140
-141
-141
-140
-140
-140
-141
-141
-141
-141
-141
-140
-140
-141
-141
-141
-141
-140
-139
-140
-141
-141
-141
-141
-140
-140
-141
-141
-141
-141
-141
-140
-140
-140
-141
-141
-140
-140
-140
-140
-140
-141
-141
-141
-141
-141
-141
-142
-142
-141
-142
-141
-141
-142
-143
-143
-143
-142
-142
-143
-143
-145
-145
-145
-144
-145
-145
-145
-146
-146
-146
-145
-146
-147
-147
-148
-147
-146
-147
-147
-148
-148
-149
-148
-148
-148
-149
-150
-151
-150
-150
-150
-151
-151
-152
-153
-152
-153
-153
-153
-155
-155
-156
-156
-155
-156
-157
-158
-159
-158
-158
-158
-157
-158
-159
-159
-158
-158
-158
-158
-158
-157
-158
-156
-155
-154
-154
-155
-154
-153
-153
-152
-152
-152
-152
-152
-151
-151
-150
-150
-150
-151
-151
-150
-150
-150
-150
-150
-150
-150
-149
-149
-149
-148
-148
-148
-147
-146
-145
-145
-145
-145
-145
-144
-142
-141
-142
-141
-141
-140
-140
-138
-138
-138
-138
-138
-138
-137
-137
-136
-137
-137
-137
-137
-136
-136
