# Simple Text Format
# Sampling Rate (Hz):= 1200.00
# Resolution:= 12
# Labels:= ECG	III
# Age:=	23
# Gender:=	Feminino
74
75
74
73
72
71
72
73
73
72
70
69
69
70
71
70
69
68
67
68
68
68
68
66
65
64
65
66
66
65
64
63
63
64
64
64
63
62
62
62
63
63
63
61
60
60
61
62
62
61
60
59
59
60
61
60
59
58
58
58
59
60
59
58
57
56
57
58
59
58
57
56
57
58
58
58
58
57
56
57
58
59
58
57
57
56
57
58
58
58
56
56
56
57
58
58
57
56
55
56
57
58
57
56
55
55
56
57
58
57
56
56
56
57
58
59
58
57
57
58
59
59
59
58
57
57
57
59
59
58
57
57
57
58
58
58
57
56
56
57
58
58
58
57
56
56
56
57
58
57
56
56
56
57
58
58
57
56
56
57
58
58
58
57
56
56
57
58
58
58
57
56
57
58
59
59
58
57
56
57
58
59
58
57
56
56
57
58
58
58
57
56
56
57
58
58
57
56
56
57
58
58
58
57
56
56
57
58
58
57
56
55
56
57
57
57
57
55
55
56
57
57
56
55
54
54
54
56
56
55
54
53
54
55
56
56
55
54
54
55
56
56
56
55
54
54
55
56
57
56
55
55
55
56
57
57
56
55
55
55
57
57
57
56
54
54
55
56
56
55
54
54
54
55
55
55
55
53
53
53
54
55
54
53
52
52
53
54
54
54
53
52
53
54
55
55
55
54
54
54
56
56
56
55
54
54
55
56
56
56
55
54
54
55
56
56
55
53
53
54
55
55
55
53
52
52
53
54
54
54
52
52
52
53
54
54
54
53
52
53
54
55
54
53
53
52
53
54
55
54
53
53
53
54
54
54
54
53
52
53
54
54
54
53
52
51
52
53
53
53
52
51
51
52
53
53
53
52
51
52
53
53
53
52
51
51
51
52
53
52
51
51
51
51
52
52
52
50
50
50
51
52
51
50
49
49
50
51
52
51
50
50
50
51
52
53
52
52
51
52
54
54
54
53
52
52
53
54
54
54
53
52
52
53
54
54
53
51
51
51
52
53
52
51
51
50
51
52
53
52
51
51
51
52
54
54
53
52
52
53
54
55
54
53
53
52
53
54
54
54
52
52
52
53
54
54
53
52
52
52
53
53
53
52
51
51
51
53
53
53
51
51
51
52
53
54
53
52
52
53
54
55
55
54
53
53
53
54
55
54
53
52
53
53
54
54
53
52
52
52
53
54
54
53
52
52
52
54
54
54
53
52
52
53
54
54
54
53
52
53
54
54
54
53
52
51
52
53
54
53
52
51
51
52
53
53
53
52
51
52
53
54
53
52
51
51
52
53
53
53
51
51
51
52
53
53
52
51
51
52
53
53
53
52
51
51
51
52
53
52
51
50
50
51
52
52
52
50
50
51
52
52
52
51
50
50
50
52
52
52
51
51
51
52
53
53
53
52
51
52
53
54
54
53
52
52
53
54
55
55
54
53
54
55
56
56
56
55
55
56
57
58
58
57
56
56
57
58
59
59
58
58
58
59
60
61
60
59
59
60
61
62
62
61
60
59
60
61
61
61
59
59
59
59
60
60
59
58
57
57
58
59
58
57
56
55
56
56
57
56
54
53
53
53
54
54
53
51
50
50
51
51
50
48
47
46
47
48
48
48
46
46
46
47
48
48
48
47
46
47
48
49
49
49
48
48
49
50
51
51
50
50
50
51
52
53
53
52
51
52
53
54
54
53
52
52
52
54
54
54
53
52
52
53
54
54
53
52
51
51
52
53
53
52
51
50
51
52
53
52
51
51
51
52
53
53
53
52
52
52
54
55
54
53
52
52
53
54
55
54
53
52
53
53
54
55
54
53
52
53
54
55
55
54
53
53
53
54
55
55
54
53
53
54
55
55
55
54
53
53
54
55
54
53
52
51
51
52
52
51
50
49
48
49
49
49
48
47
45
46
46
47
47
46
45
45
47
48
50
51
51
52
54
57
60
63
65
68
72
78
85
93
100
107
114
123
133
144
154
164
172
181
189
198
207
214
220
224
227
230
233
234
232
229
224
219
214
208
202
194
184
175
166
158
151
142
133
123
115
107
101
95
88
81
74
68
64
61
57
54
50
47
45
45
45
44
44
43
42
43
45
46
47
47
47
47
49
51
53
53
53
53
54
55
56
57
57
56
55
55
56
57
57
55
54
53
54
55
56
55
54
53
53
54
55
55
55
54
54
54
55
56
56
55
55
54
55
56
57
56
55
54
55
55
56
57
56
55
54
54
55
56
56
55
53
53
53
54
55
55
54
53
53
53
54
54
54
53
52
53
54
55
55
54
53
53
53
54
55
55
54
53
53
54
55
56
55
54
53
54
55
56
55
54
53
53
53
54
55
55
53
53
53
54
55
55
55
53
53
53
54
55
55
54
53
52
53
54
55
54
53
52
52
53
54
54
54
53
52
53
54
55
55
54
53
52
53
54
55
55
54
53
53
54
55
55
55
54
53
54
55
56
56
55
54
54
54
55
56
56
55
54
54
55
56
57
56
55
54
55
56
57
56
56
54
54
54
55
56
56
54
54
54
54
55
56
55
54
54
54
55
56
56
55
55
54
55
56
57
57
56
55
55
56
57
58
58
57
56
56
58
59
59
58
57
56
57
58
59
59
58
58
58
59
60
61
60
59
59
59
61
62
62
62
61
61
61
63
64
64
63
63
63
64
65
66
66
65
65
66
67
68
69
68
67
67
68
70
71
71
70
70
70
71
72
73
73
72
71
72
73
74
74
73
72
71
72
73
74
74
72
71
71
72
73
73
72
71
70
70
71
72
72
71
69
69
69
70
70
70
68
67
67
68
69
69
68
67
66
66
67
68
68
66
65
64
64
65
66
65
64
63
63
63
64
64
64
62
61
61
62
63
63
62
60
60
60
61
61
61
59
58
58
58
59
60
59
58
57
57
58
59
59
58
57
56
57
58
59
59
58
57
57
58
59
59
59
58
57
57
58
59
59
58
56
56
56
57
58
58
57
56
56
57
58
59
58
57
57
57
58
60
60
59
58
57
58
59
60
60
59
59
59
60
61
61
61
60
59
60
61
62
62
61
60
59
60
61
62
61
60
59
59
60
61
61
61
60
59
59
60
61
61
61
60
59
60
61
62
62
61
60
60
61
62
63
62
61
60
61
62
63
63
62
61
60
61
62
63
63
62
61
61
62
63
63
63
62
61
61
62
62
62
61
60
59
60
61
62
61
60
59
59
60
61
62
61
60
60
60
61
62
62
61
60
60
60
61
62
62
61
60
60
60
61
62
62
60
59
60
61
62
62
61
59
59
59
60
61
61
60
59
59
60
61
62
62
60
60
60
61
62
62
61
60
60
60
61
62
62
61
60
60
60
61
62
62
60
59
60
61
62
62
61
60
59
59
60
62
61
60
60
60
61
62
62
62
61
60
60
61
62
62
62
60
60
60
61
62
62
60
59
59
60
61
61
61
60
59
59
60
61
61
60
59
59
59
60
61
61
60
59
58
59
60
60
60
59
58
58
60
61
61
60
59
58
58
60
61
61
60
59
59
60
61
62
61
60
60
60
61
62
62
61
60
59
60
61
62
62
61
60
60
60
61
62
61
60
60
60
61
62
62
61
60
60
60
62
63
63
61
60
60
61
62
63
62
61
60
60
61
62
62
61
59
59
59
60
61
60
59
58
58
59
60
61
61
60
59
60
61
62
62
62
60
60
60
62
63
63
62
61
60
61
62
63
63
62
61
61
62
64
64
63
62
62
62
63
64
64
63
63
63
63
65
65
65
64
63
63
64
65
64
63
62
61
62
63
64
63
62
61
61
61
62
63
63
62
61
61
62
63
63
63
62
61
61
62
64
63
62
61
61
62
63
64
64
63
62
62
64
65
65
64
63
62
63
64
65
65
64
63
63
64
65
66
66
65
64
64
65
66
66
66
65
64
64
66
67
67
66
65
65
65
66
67
67
65
64
64
65
66
66
65
64
63
63
64
65
65
64
63
62
63
64
65
65
64
63
63
64
65
65
65
63
63
63
64
65
65
64
63
63
64
66
66
66
65
64
65
66
67
68
67
66
66
66
68
69
69
68
67
67
68
68
69
69
68
67
67
69
70
70
69
68
68
69
70
71
72
71
70
71
72
73
74
74
74
73
73
75
76
76
75
74
73
73
74
75
74
73
72
71
72
73
73
73
72
70
70
71
72
72
71
69
69
69
69
70
69
68
66
65
65
66
66
65
63
62
61
62
63
62
61
59
59
59
59
61
61
60
59
59
60
61
62
62
61
61
61
63
64
65
64
64
63
64
65
66
66
65
65
65
66
67
68
67
66
66
66
67
68
68
67
66
65
65
66
67
67
66
65
64
65
66
67
66
65
64
64
65
66
67
66
65
64
65
66
67
67
66
65
65
66
67
68
68
67
66
66
68
69
69
68
67
66
66
68
69
69
68
67
67
67
68
69
69
68
67
67
68
69
70
69
68
67
67
68
70
70
68
67
67
68
69
69
68
67
66
65
66
67
66
65
63
62
62
62
62
62
60
58
57
57
58
58
58
56
55
56
57
59
60
60
61
61
63
66
69
71
73
75
79
84
91
98
104
111
118
126
137
147
158
167
176
186
196
206
216
224
231
237
243
249
254
257
258
257
255
253
251
247
242
234
226
218
210
203
196
187
177
168
159
151
144
136
128
119
111
105
99
95
89
84
78
73
70
69
67
65
62
60
59
59
60
60
60
60
59
60
62
64
65
65
64
64
65
67
69
69
69
68
69
70
71
72
72
71
70
70
72
73
73
72
71
70
70
71
72
72
71
70
69
70
71
71
71
69
68
68
69
70
70
68
67
66
66
67
68
68
67
66
65
66
67
68
68
67
66
66
67
69
69
68
67
67
67
68
69
69
68
67
67
68
69
69
69
68
67
67
68
69
69
68
67
66
66
67
68
68
67
66
66
66
68
68
68
67
66
66
67
68
69
68
67
66
66
68
69
69
68
66
66
67
68
68
68
67
66
66
67
68
68
67
66
65
65
66
66
66
65
64
64
65
66
67
67
66
65
65
66
67
68
67
66
66
66
67
69
69
68
67
67
68
69
70
70
69
68
68
69
70
70
69
68
67
67
68
69
69
68
66
66
67
68
68
68
67
66
66
67
68
69
68
67
66
66
67
69
69
68
67
67
67
68
69
69
68
67
67
68
69
69
68
67
66
66
67
69
69
68
67
67
67
68
69
69
68
67
67
69
70
70
69
68
68
68
69
70
70
70
69
69
70
71
72
72
71
70
71
72
73
74
73
73
72
73
74
76
76
76
75
75
76
78
79
79
79
78
79
80
82
82
82
81
81
81
83
84
84
84
83
83
84
85
86
86
85
84
84
85
86
87
86
85
84
85
86
87
87
86
84
84
85
86
86
86
85
83
83
84
85
85
84
83
82
82
83
83
83
82
81
80
81
82
82
82
81
80
79
80
81
81
80
79
78
78
79
80
79
78
77
76
77
78
78
78
76
75
75
76
76
76
75
74
73
73
74
75
75
74
72
72
73
74
74
73
72
71
71
72
73
73
72
71
70
70
71
72
72
71
70
70
71
72
72
72
71
70
70
71
72
72
71
70
69
69
70
71
71
70
69
68
69
70
71
71
70
69
69
70
71
71
71
70
69
70
71
72
72
71
70
70
71
72
73
72
72
71
71
72
73
73
72
71
70
70
71
73
73
72
71
71
71
72
73
73
72
71
71
72
73
74
73
72
71
71
72
73
73
72
71
70
71
72
72
72
71
70
70
71
72
72
71
70
69
69
70
71
71
70
69
69
70
71
71
71
70
69
69
70
71
72
71
70
69
69
70
71
71
70
69
69
69
70
70
70
69
67
67
68
69
70
69
67
66
66
67
68
68
67
66
66
66
68
68
68
67
66
66
67
68
68
68
67
66
66
67
68
68
67
66
66
66
67
68
68
67
66
66
66
67
67
66
65
64
65
66
67
67
66
64
64
65
66
66
66
65
64
64
65
66
67
66
65
64
65
66
67
67
66
65
65
66
67
67
67
66
65
65
66
67
67
66
65
64
64
64
65
65
64
63
62
62
63
64
64
63
62
62
63
64
65
64
64
63
64
65
66
66
66
65
65
66
67
67
67
66
65
65
66
67
67
66
64
63
63
64
65
65
64
62
62
63
64
64
64
63
62
62
64
65
65
65
64
63
63
65
66
66
65
64
64
65
66
67
67
66
65
65
66
67
67
66
65
64
64
65
66
66
64
63
63
63
64
65
65
64
62
62
63
65
65
64
63
63
63
64
65
65
64
64
63
64
65
66
66
65
64
64
64
65
65
64
63
63
63
64
65
65
64
63
62
63
64
65
65
64
63
63
65
66
66
65
64
63
64
65
66
66
65
63
63
63
64
65
65
64
63
63
64
65
66
65
64
63
63
65
66
66
65
64
63
64
65
66
66
65
64
64
64
65
65
65
63
63
63
63
64
65
64
62
62
63
64
65
64
64
63
63
64
65
65
65
64
63
63
64
65
66
65
63
63
64
65
65
65
64
63
63
63
65
65
64
63
62
62
63
64
64
64
63
62
63
64
65
65
65
64
64
66
67
67
67
66
65
66
67
68
68
67
66
66
67
68
69
69
68
67
67
68
69
70
69
68
67
67
69
70
70
69
68
68
69
70
71
71
71
70
70
71
72
73
72
71
70
70
71
72
72
71
70
70
70
71
72
71
70
69
69
70
71
71
70
69
68
68
69
69
69
68
67
66
67
67
68
67
66
64
63
64
64
64
63
61
60
60
60
61
61
59
58
57
58
59
59
59
58
57
57
58
59
60
59
58
57
58
59
60
61
60
59
59
60
61
62
62
62
61
61
62
63
64
63
62
62
62
63
64
64
62
61
61
61
62
63
63
62
61
61
62
63
63
62
61
60
61
62
63
63
62
61
61
61
62
63
63
62
61
61
62
63
63
62
61
60
60
61
62
62
61
60
60
60
61
62
62
61
60
60
62
63
63
63
62
61
61
62
63
63
62
61
61
62
63
63
63
62
61
61
62
63
63
62
60
59
59
59
60
59
58
56
56
56
56
56
56
54
52
52
52
53
53
52
51
51
52
53
55
57
57
57
59
61
64
68
70
73
76
80
87
94
102
108
115
123
132
143
154
164
173
181
190
200
209
217
224
230
235
239
243
246
247
246
242
238
234
230
225
218
210
201
192
185
177
169
160
150
140
132
125
118
111
103
95
88
82
78
74
70
65
60
57
55
54
54
53
51
50
49
50
52
52
52
52
52
52
54
56
57
57
57
57
58
60
61
61
61
60
60
61
62
63
62
61
60
60
61
62
62
61
60
59
60
61
61
61
60
59
59
60
61
61
60
59
58
58
59
60
60
59
57
57
58
59
59
59
58
57
57
58
59
60
59
58
57
57
58
59
60
59
58
57
58
59
59
59
58
57
57
58
59
59
59
58
57
57
58
59
59
58
57
56
57
58
58
58
57
56
56
57
58
59
58
57
56
55
56
57
58
57
56
55
56
57
58
57
57
55
55
57
58
58
58
56
56
56
57
58
58
57
56
56
56
57
58
58
57
56
56
57
58
59
58
57
56
56
57
58
58
57
56
56
56
57
58
58
57
56
56
57
58
58
57
56
55
55
56
57
57
56
55
55
56
57
57
57
56
55
55
56
57
58
57
56
55
55
56
57
57
56
55
55
56
57
57
57
57
55
55
56
58
58
57
56
56
56
57
58
58
57
56
55
56
57
58
58
57
56
56
57
58
58
58
57
56
56
58
59
60
59
58
58
59
60
61
62
61
60
60
62
63
64
64
63
62
62
64
65
65
65
64
64
64
65
66
66
66
65
65
66
68
68
68
67
67
67
68
70
71
70
69
69
70
72
73
73
73
72
72
73
74
75
74
73
72
72
73
74
74
73
72
72
72
73
73
73
72
71
71
71
73
73
72
71
70
70
70
71
71
70
69
69
69
70
70
70
69
68
67
68
69
69
68
67
66
65
66
67
67
66
64
64
64
65
65
65
64
62
62
62
63
63
62
61
60
60
61
62
62
61
59
59
60
61
61
61
60
59
59
60
61
61
61
59
59
59
60
61
61
60
59
58
59
60
60
60
59
58
57
58
60
60
59
58
57
57
58
59
59
58
57
57
58
59
60
60
59
58
58
59
60
61
60
59
58
58
59
60
60
59
58
58
58
59
60
60
59
58
58
59
60
61
60
59
58
58
59
60
61
60
59
58
59
60
61
61
60
59
59
59
61
61
60
59
58
58
59
61
61
60
59
58
59
60
60
60
59
58
58
59
60
61
60
59
58
58
59
60
60
59
58
58
58
59
60
60
59
58
57
58
59
59
59
58
57
57
57
59
59
58
57
56
57
58
58
58
57
56
56
57
58
58
57
56
55
55
56
57
57
57
55
55
55
56
57
57
56
55
55
56
57
57
57
55
55
54
55
56
57
56
55
54
55
56
57
56
56
55
54
55
56
57
56
55
54
54
54
55
56
55
54
53
54
55
55
55
54
53
53
54
55
55
55
54
53
53
54
55
55
55
53
53
54
55
55
55
55
53
53
54
55
55
55
54
53
53
54
55
55
55
54
53
54
55
56
56
55
54
54
55
56
56
56
55
54
54
54
56
56
55
54
53
54
55
55
55
54
53
53
54
55
56
55
54
53
53
54
55
56
55
54
54
54
55
56
56
55
54
54
55
56
56
56
55
54
54
55
56
56
55
54
54
54
55
56
55
55
53
53
54
55
55
55
54
53
53
53
55
55
54
53
52
52
54
54
55
54
53
53
54
55
55
55
54
53
53
54
55
56
55
54
54
54
55
56
56
55
54
54
55
56
56
55
54
53
53
54
55
55
54
53
53
53
54
55
55
55
54
54
55
56
56
56
55
54
55
56
57
57
56
55
55
55
56
57
57
56
55
55
56
57
57
56
55
54
54
55
56
56
55
54
53
53
54
55
55
54
53
52
53
54
55
54
53
52
52
53
54
55
54
53
53
54
55
56
56
55
54
54
55
56
57
56
55
54
54
55
56
57
56
55
54
55
56
57
57
56
55
55
56
57
57
57
56
55
55
56
57
57
56
55
55
55
56
57
57
56
54
54
55
56
56
55
54
53
53
54
55
55
54
53
52
53
54
55
55
54
53
53
54
55
55
55
54
53
53
54
55
56
55
54
53
54
55
56
56
55
54
54
55
56
56
55
54
53
53
54
55
56
55
54
53
53
54
55
55
55
54
53
54
56
56
56
55
54
54
55
56
56
55
54
54
54
55
56
56
55
54
53
54
55
55
54
53
52
52
53
54
55
54
53
52
53
54
54
54
54
53
52
53
54
55
54
53
52
52
53
54
54
53
52
52
52
53
54
54
53
52
52
53
54
54
54
53
52
52
53
55
55
54
53
53
54
55
56
56
56
55
55
56
57
58
57
56
56
56
56
58
58
57
56
55
56
57
58
58
57
56
56
57
59
59
59
58
58
58
59
60
61
60
59
59
59
60
61
61
60
59
58
59
59
59
59
57
56
56
56
57
57
56
55
55
55
56
56
56
55
54
53
54
54
54
53
52
50
50
50
51
50
49
47
46
46
47
47
47
46
45
44
45
46
46
46
45
44
44
45
46
46
46
45
45
46
47
48
48
47
47
46
48
49
50
50
49
48
48
49
51
51
51
50
49
50
51
52
52
52
51
50
51
52
53
52
51
50
50
51
52
53
52
51
51
51
52
53
53
52
51
51
51
53
53
53
52
51
51
52
53
53
52
51
51
51
52
53
53
53
52
51
52
53
54
53
52
51
51
52
53
53
53
52
51
52
53
54
54
53
52
52
53
54
54
54
52
52
51
52
53
53
52
50
49
49
50
50
50
49
47
46
47
47
47
46
44
43
42
43
44
45
44
44
44
45
47
49
51
52
53
55
58
62
66
69
73
78
84
92
100
109
117
125
134
144
155
166
176
184
191
199
207
215
222
227
229
231
232
233
233
230
226
220
213
207
200
193
185
175
165
156
148
140
132
123
113
105
97
91
85
80
73
67
62
58
56
54
51
48
45
44
43
44
44
43
42
41
42
43
45
46
46
46
46
47
49
50
51
51
50
51
52
53
54
54
53
52
52
53
55
55
54
53
52
52
53
54
54
54
52
52
53
54
54
53
52
51
51
52
53
53
52
51
51
51
52
53
53
52
51
50
51
52
53
52
51
50
50
50
52
52
51
50
49
50
50
51
51
51
50
50
50
52
52
52
51
50
50
51
52
53
52
51
50
51
52
53
53
52
51
50
51
52
52
52
51
50
50
50
52
52
51
50
49
49
51
51
52
51
50
50
51
52
52
52
51
50
49
50
51
52
51
50
50
50
51
52
52
51
50
50
50
52
52
52
51
50
50
51
52
53
52
51
51
51
52
53
53
53
52
51
52
53
54
53
52
51
51
52
53
53
53
52
51
52
53
53
53
53
52
51
52
53
54
53
52
51
51
52
53
53
53
52
51
52
52
53
53
52
51
51
52
53
53
53
52
51
51
52
53
53
53
52
51
52
53
54
54
53
52
52
53
54
55
55
54
53
53
54
55
56
55
54
54
55
56
57
57
57
56
56
57
58
59
59
58
57
58
59
60
61
61
60
60
61
62
63
64
64
63
63
64
66
67
66
66
65
65
67
68
69
68
68
68
68
70
71
71
70
70
69
70
72
72
72
71
70
70
71
72
72
72
70
70
70
71
72
72
71
70
69
70
71
71
70
69
68
68
68
69
69
68
67
66
66
67
67
67
66
65
64
64
65
65
65
63
62
62
62
63
63
62
61
61
61
62
62
62
62
60
60
61
62
62
62
61
60
59
60
61
61
60
59
58
58
59
60
60
59
58
57
58
59
59
59
57
56
56
57
58
58
57
56
56
56
57
58
58
57
56
55
56
57
58
57
56
55
55
55
56
57
56
55
54
55
56
57
57
56
55
54
55
56
56
56
55
54
53
54
55
56
55
54
53
54
55
56
56
56
55
55
55
57
57
57
56
56
56
57
58
59
58
57
56
57
58
59
59
58
57
57
58
59
59
59
58
57
57
57
59
59
58
57
56
57
58
58
59
58
57
57
57
58
59
58
57
56
56
57
58
59
58
57
56
56
57
58
58
57
56
56
57
58
58
58
57
56
56
57
58
59
58
57
57
57
58
59
59
59
58
57
58
59
60
59
58
57
57
58
59
59
58
57
56
57
58
59
59
58
57
56
57
58
59
59
58
57
57
57
58
59
58
57
56
57
57
58
58
57
56
55
56
57
57
57
56
55
54
55
56
56
56
54
54
54
55
56
57
56
55
54
55
56
57
56
55
54
54
55
56
56
56
55
54
54
56
57
57
56
55
55
56
57
58
57
56
55
54
55
56
57
56
55
54
54
55
56
56
55
54
54
54
56
56
56
55
54
54
54
56
56
56
55
54
54
55
56
56
56
55
54
55
56
57
56
55
54
54
55
56
56
56
55
54
54
55
56
56
56
55
54
55
56
57
56
55
54
54
55
56
56
56
54
54
54
55
56
56
55
54
54
54
55
56
55
54
53
53
54
55
55
55
53
53
53
54
54
55
54
53
52
53
54
55
54
53
52
52
53
54
55
54
53
53
54
55
56
56
56
55
54
55
56
57
57
56
55
54
55
56
57
56
55
54
54
55
56
56
56
55
54
55
56
57
56
55
54
54
55
56
56
56
55
54
55
56
57
57
56
55
55
56
57
58
57
56
56
55
56
57
58
57
56
55
56
56
57
57
56
55
55
56
57
58
57
56
55
55
56
57
58
57
56
56
56
58
59
59
58
57
57
58
59
59
59
58
57
57
58
59
59
59
57
57
57
58
59
59
58
57
57
58
59
59
59
58
57
57
58
59
59
58
57
57
57
58
59
59
58
57
57
58
59
59
59
58
57
57
58
59
59
59
58
57
57
58
59
59
58
57
57
57
58
59
59
58
57
56
57
58
58
58
57
56
57
58
59
59
58
58
57
58
59
60
59
58
57
57
58
59
59
59
57
57
57
57
58
58
57
56
55
56
57
57
57
56
55
54
55
56
57
56
55
54
55
56
57
57
56
55
55
56
57
58
58
57
56
56
57
58
58
58
57
56
56
57
58
59
58
58
57
58
60
60
60
60
59
59
60
61
62
62
61
60
61
62
63
64
63
63
63
63
65
66
65
65
64
64
64
66
66
66
65
64
64
65
66
66
65
64
63
63
64
65
64
63
62
61
62
63
63
62
61
60
60
61
62
62
61
59
59
59
60
60
59
57
56
55
55
56
56
54
53
52
51
52
52
52
51
50
50
50
52
52
52
51
50
50
51
53
54
53
53
53
53
54
56
56
56
55
55
56
58
59
58
58
57
57
57
59
59
59
58
57
58
58
59
59
59
57
57
57
58
59
59
58
57
56
57
58
59
58
57
57
57
58
59
60
59
58
58
59
60
61
60
59
59
58
59
60
61
60
59
58
59
60
60
61
60
59
58
59
60
61
60
59
58
58
59
60
61
60
59
58
59
60
61
61
61
60
60
60
62
62
62
61
59
59
59
60
60
58
57
56
55
56
56
55
54
52
51
51
51
51
50
49
48
48
49
50
51
51
51
52
54
56
59
61
62
64
66
71
76
82
87
93
99
106
116
126
136
145
154
164
174
185
195
204
211
218
224
231
237
242
244
245
244
242
241
238
234
228
220
212
205
198
191
182
173
163
154
147
139
132
123
115
107
99
94
89
83
77
72
67
63
61
59
57
55
52
51
51
51
52
51
51
50
50
52
54
55
55
55
55
56
57
59
60
60
59
59
60
61
62
62
61
60
60
60
62
62
61
60
59
60
60
61
61
60
59
59
59
60
61
60
59
58
58
58
59
60
59
58
57
57
58
59
59
59
58
57
58
60
60
60
59
58
58
59
60
61
60
59
59
59
60
61
61
61
60
59
60
61
62
61
60
59
59
59
60
61
60
59
58
59
59
60
60
59
58
57
58
59
59
59
58
57
56
57
58
58
58
57
56
57
58
59
59
58
57
57
58
59
60
60
59
58
58
58
60
60
60
59
58
58
59
60
60
60
58
58
59
60
60
60
59
58
58
59
60
60
60
59
58
58
59
60
60
60
59
58
59
60
60
60
59
57
57
58
59
59
59
58
57
57
58
59
59
59
58
58
59
60
61
60
59
59
58
59
60
61
60
59
59
59
60
61
61
60
59
59
59
60
61
61
60
59
58
59
60
61
61
60
59
60
61
62
62
62
61
60
61
63
63
63
62
61
61
62
63
64
64
62
62
62
63
64
64
64
63
63
64
65
66
66
65
64
64
65
67
68
68
67
67
68
69
71
71
71
70
70
71
73
74
74
73
73
73
74
75
76
76
75
75
75
76
78
78
78
77
77
77
79
80
79
79
78
78
78
80
80
80
79
78
78
79
80
80
80
79
78
79
80
80
80
79
78
77
78
79
79
79
77
76
76
77
78
78
77
76
75
76
77
77
76
75
73
73
73
74
74
73
72
71
71
72
72
72
71
70
69
70
71
71
71
70
69
68
69
70
71
70
69
68
69
69
70
71
70
69
69
69
70
71
70
69
68
68
69
70
70
70
69
68
68
69
70
70
69
68
67
68
68
69
68
67
66
66
66
67
68
67
66
65
65
66
67
67
66
65
65
65
67
67
67
66
65
65
65
67
67
67
66
65
66
67
67
68
67
66
65
66
67
68
67
66
66
65
66
67
68
67
66
66
66
67
68
68
68
67
66
67
68
69
69
68
67
66
67
68
69
68
67
67
67
68
68
68
68
67
66
67
68
69
69
68
67
67
67
69
70
69
68
68
69
70
71
71
70
69
69
69
70
71
71
70
69
68
69
70
70
69
68
67
67
68
68
68
68
67
66
67
68
68
68
67
66
66
67
68
68
68
67
66
66
67
68
68
68
67
66
67
68
68
68
67
66
66
66
67
68
67
66
66
66
67
67
67
67
66
65
66
67
67
67
66
65
65
65
66
67
66
65
64
65
66
66
67
66
65
64
65
66
67
66
65
64
64
65
66
66
65
64
64
64
65
66
67
66
65
65
66
67
68
68
67
66
66
67
68
69
69
68
67
67
68
69
69
69
67
67
67
68
69
69
68
66
66
67
68
68
68
66
66
66
67
68
68
67
66
65
66
67
68
67
66
65
65
66
67
68
67
66
65
66
67
67
68
67
66
66
66
67
68
68
67
66
65
66
67
68
67
66
65
65
66
67
67
67
66
66
66
68
68
68
67
66
66
67
68
69
69
68
67
67
68
69
69
69
68
67
68
69
70
69
68
67
67
68
69
69
69
68
67
68
68
69
69
69
68
67
68
69
70
69
68
67
67
68
69
69
69
68
67
67
68
69
69
69
68
67
68
69
69
69
68
67
67
67
69
69
69
68
67
67
68
69
69
68
67
67
68
69
69
69
68
67
67
67
68
69
68
67
67
67
68
68
69
68
67
67
67
69
69
69
68
67
67
67
68
69
69
68
67
67
68
69
70
69
68
68
69
70
70
70
69
68
68
68
69
70
69
68
67
68
69
70
70
69
68
68
68
70
70
70
69
68
68
69
70
71
71
70
69
70
71
72
72
72
71
71
72
73
74
74
73
72
72
73
74
74
74
73
72
73
73
74
74
74
73
72
73
74
74
74
73
71
71
72
73
74
73
72
71
72
72
73
73
73
72
71
72
73
73
72
71
69
69
69
69
69
68
66
65
65
65
65
65
63
62
61
61
62
62
61
60
59
59
59
60
61
61
60
59
60
61
62
62
62
61
61
62
63
64
63
63
62
62
62
64
64
64
63
62
63
64
65
65
64
63
63
64
65
65
65
64
63
63
63
64
65
64
63
62
62
63
63
64
63
62
61
62
63
63
63
61
60
60
61
62
62
62
61
60
60
61
62
62
62
61
60
61
62
63
62
61
60
60
61
62
63
62
61
61
61
62
63
64
63
62
62
63
64
65
64
63
62
62
63
64
64
64
62
61
61
61
61
61
60
58
57
57
57
57
56
54
53
52
51
52
52
51
49
49
49
50
51
52
52
52
53
55
58
60
61
62
64
66
71
76
82
87
92
98
106
115
125
135
144
153
163
174
185
196
204
212
219
227
234
241
247
250
251
251
251
250
248
244
238
231
223
217
210
202
193
183
173
164
156
148
141
132
122
114
107
101
95
89
83
77
72
68
66
63
60
57
54
52
52
52
52
51
50
50
50
51
53
54
54
53
53
55
56
58
58
57
56
56
57
59
59
59
58
58
58
59
60
60
59
58
57
58
59
59
59
58
57
56
57
58
59
58
57
56
57
58
59
59
58
57
57
57
58
59
59
58
57
56
57
58
58
57
56
55
55
55
56
56
56
54
54
54
55
56
55
54
53
53
54
55
56
55
54
54
54
55
56
56
56
55
54
55
56
57
56
55
54
54
55
56
56
55
54
53
53
54
55
55
54
53
53
53
54
55
55
54
53
52
53
54
55
54
53
53
53
54
55
55
54
53
52
53
54
55
55
53
52
52
53
54
54
54
53
52
53
54
55
55
54
53
53
53
54
54
54
53
51
51
52
53
53
53
51
51
51
52
53
53
53
52
51
52
54
54
54
53
53
52
53
54
55
54
53
53
53
54
54
55
54
53
52
52
53
54
53
52
51
51
51
52
53
52
51
51
51
52
52
53
52
51
50
51
52
53
52
51
50
50
51
52
52
52
51
50
50
51
53
53
53
52
52
52
54
55
55
54
53
53
54
56
57
57
56
56
56
57
59
59
59
58
58
59
60
61
61
60
59
59
60
62
63
62
61
61
62
63
64
65
64
64
63
64
66
67
67
66
65
65
66
67
68
68
67
66
67
68
69
69
69
68
67
68
69
70
69
68
67
67
68
69
69
68
67
66
66
67
68
68
67
66
65
66
66
67
66
65
64
63
64
65
65
64
63
62
62
63
63
63
63
61
61
61
62
63
62
61
60
60
60
62
62
61
60
60
60
60
61
61
61
59
59
59
60
61
60
59
58
57
58
59
59
59
57
57
57
57
58
58
58
56
56
56
57
58
57
56
55
55
55
56
57
56
55
54
55
56
57
57
56
55
55
55
56
57
57
56
55
55
55
57
57
57
56
55
56
57
58
58
57
56
56
57
58
59
58
57
57
56
57
58
59
58
57
57
57
58
59
59
59
58
57
58
59
60
60
59
58
58
58
60
60
60
59
58
58
59
60
61
60
59
59
59
61
61
61
60
59
59
59
60
61
60
59
58
58
59
60
60
60
58
58
58
59
60
60
59
58
57
58
59
60
59
58
57
58
59
59
60
59
58
58
58
59
60
60
59
57
57
58
59
60
59
58
57
58
59
59
60
59
58
57
58
59
60
59
58
57
57
58
58
59
58
57
56
57
57
58
58
58
57
56
57
58
58
58
57
56
56
56
57
58
57
56
56
56
56
57
57
57
56
55
56
57
57
57
56
55
55
56
57
57
57
56
55
56
57
57
58
57
56
56
56
57
58
58
57
56
55
56
57
58
57
56
55
56
56
57
57
57
56
55
56
57
57
57
56
55
55
55
56
57
56
55
55
55
56
57
57
56
55
55
56
57
57
57
56
55
55
55
57
57
57
56
55
55
56
57
57
56
55
55
55
56
57
57
56
55
55
55
56
57
56
55
55
55
56
57
57
57
56
55
56
57
58
57
56
55
55
55
56
57
56
55
54
55
55
56
57
56
55
55
55
56
57
57
56
55
55
56
57
58
57
56
56
56
57
58
59
58
57
57
58
59
59
59
58
57
56
57
58
58
58
56
56
56
56
57
57
57
55
55
55
56
57
57
56
55
54
55
56
57
56
55
55
55
56
57
58
57
56
56
56
57
58
58
57
56
56
57
58
58
58
57
56
56
57
58
59
58
57
57
57
58
59
59
58
57
57
57
59
59
59
57
57
57
58
59
59
59
57
57
58
58
59
59
57
56
56
57
58
58
57
56
55
56
56
57
58
57
56
55
56
57
58
58
57
56
56
56
58
58
58
57
56
57
58
59
59
58
57
57
57
59
59
59
58
57
57
57
58
59
58
57
56
56
57
57
58
57
56
55
55
56
57
56
55
54
54
54
55
56
56
55
54
55
56
57
57
57
56
55
56
58
58
58
57
57
56
57
58
59
58
57
56
56
57
58
58
58
57
56
57
58
58
58
57
56
56
57
58
59
58
57
57
57
58
59
59
59
58
57
58
59
60
60
59
58
58
59
60
61
60
59
59
59
60
61
62
62
61
61
61
63
64
64
63
62
62
63
64
65
64
63
63
63
64
64
64
64
62
62
62
63
64
63
62
61
60
61
62
62
61
60
59
59
59
60
60
59
57
56
57
57
57
57
55
54
53
53
54
54
53
52
51
50
51
52
52
51
50
49
50
51
51
51
50
49
49
49
51
51
51
50
50
50
52
53
54
53
53
52
53
55
56
56
55
54
54
55
56
57
56
55
55
55
56
56
57
56
55
54
55
56
56
56
55
54
53
54
55
56
55
54
53
53
54
55
56
55
54
54
54
56
56
56
55
54
54
55
56
57
56
55
55
55
56
57
57
57
56
55
56
57
57
57
56
55
55
56
57
57
57
56
55
55
56
57
57
57
55
55
55
56
57
56
55
54
53
54
54
55
54
52
51
51
52
52
52
51
49
48
48
48
49
48
47
46
46
47
48
50
50
51
51
53
56
59
62
64
66
69
74
80
87
94
100
107
115
125
135
145
155
164
173
183
193
202
210
217
223
228
233
238
241
242
240
238
234
231
227
221
214
205
197
188
180
172
164
154
144
134
126
119
112
104
96
89
82
77
73
69
64
60
56
54
52
51
50
49
47
46
47
48
49
49
49
48
49
50
52
53
54
53
53
54
56
57
58
58
57
57
58
59
60
60
59
58
58
59
60
60
60
58
58
58
59
59
60
59
58
57
57
58
59
58
57
56
56
57
58
58
58
56
56
56
57
57
58
57
56
55
56
57
57
57
56
55
55
55
56
57
57
56
55
55
56
57
57
57
56
55
56
57
58
57
57
56
55
56
57
57
57
56
55
55
56
57
58
57
56
56
56
57
58
58
57
56
56
56
57
58
58
57
56
56
57
58
58
58
57
56
57
58
59
59
58
57
57
57
58
59
58
57
57
57
58
59
59
58
57
56
57
58
58
58
57
56
56
56
57
58
57
56
56
56
57
58
58
58
57
56
57
58
59
58
57
56
56
57
58
58
58
57
56
56
57
58
58
58
57
56
57
58
59
59
58
57
56
57
58
59
58
57
57
57
58
59
59
58
57
57
57
58
59
58
57
56
56
57
58
59
58
57
56
57
58
59
59
59
58
58
58
59
60
60
59
58
58
59
60
61
60
60
59
59
60
61
62
62
61
60
61
63
63
63
63
62
62
63
64
65
65
64
64
64
65
66
67
67
66
66
67
68
69
69
69
68
68
69
70
71
71
70
70
70
72
73
73
73
72
72
73
74
75
74
74
73
72
73
74
75
75
73
73
73
73
74
74
74
72
72
72
73
73
73
72
70
70
70
71
71
71
69
69
69
69
70
70
69
68
67
68
69
69
69
67
66
66
66
67
67
66
65
64
64
64
65
65
64
63
62
62
63
64
63
62
61
61
61
62
63
62
61
60
60
61
62
62
62
61
60
61
62
62
62
61
60
60
60
61
62
61
60
59
59
60
61
61
60
59
58
59
59
60
60
58
57
57
57
58
59
58
57
56
56
57
58
58
57
56
55
56
57
57
57
56
55
55
55
56
57
57
55
55
55
56
57
58
57
56
56
56
57
58
58
57
56
56
57
58
58
58
57
56
56
57
58
58
58
57
56
57
58
59
58
57
56
56
57
58
59
58
57
57
57
58
59
59
59
58
57
58
59
60
59
59
58
57
58
59
60
59
58
57
57
58
59
59
58
57
56
57
58
59
58
57
56
56
57
58
59
58
57
56
57
58
59
59
58
57
57
57
58
59
59
58
57
56
57
58
59
58
57
56
56
57
58
58
57
56
56
56
57
58
58
56
55
55
56
57
57
57
56
55
55
56
57
57
57
55
55
56
57
57
57
56
55
55
55
56
57
57
55
55
55
56
57
57
56
55
55
55
56
57
57
56
55
54
55
56
57
56
55
54
55
56
57
57
56
55
55
55
56
57
57
56
55
55
55
56
57
56
55
54
55
55
56
56
56
55
54
54
55
56
55
54
53
53
53
54
55
54
53
52
53
54
55
55
54
53
53
53
54
55
55
54
53
53
53
55
55
55
54
53
54
55
55
56
55
54
54
55
56
56
56
55
54
53
54
55
56
55
54
53
53
54
55
55
55
54
53
54
55
56
55
55
54
53
54
55
56
55
54
54
54
55
56
56
55
54
54
54
55
56
56
55
54
53
54
55
56
55
54
53
53
54
55
55
55
54
53
54
55
56
55
55
54
53
54
55
56
55
54
54
54
55
56
56
56
55
54
55
56
56
56
55
54
54
54
55
56
55
54
53
54
55
56
56
55
54
54
54
55
56
56
55
54
54
55
56
57
56
55
55
55
56
57
57
57
55
55
56
57
57
57
56
55
55
55
56
57
57
56
55
55
56
57
57
57
56
55
56
57
58
57
56
55
55
56
57
57
57
56
55
55
56
57
57
57
56
55
56
57
58
58
57
56
55
56
57
58
57
56
55
55
56
57
57
57
56
55
56
57
57
57
56
55
54
55
56
57
56
55
54
54
55
56
57
56
55
55
55
57
57
57
56
55
55
56
57
58
57
56
56
56
57
58
59
58
57
57
57
58
59
59
58
57
57
57
58
59
58
57
57
57
58
59
59
59
58
58
58
60
61
60
60
59
59
60
61
62
62
61
61
61
62
64
64
64
63
63
63
65
65
65
64
63
63
63
64
65
64
63
62
62
63
64
64
63
61
61
61
62
63
62
61
60
60
60
61
62
61
60
59
59
60
61
61
60
58
57
58
58
59
58
56
55
54
54
54
54
53
52
51
51
51
52
52
51
50
49
50
51
52
52
51
50
50
51
52
53
53
52
52
53
54
55
56
55
55
54
55
57
58
57
57
56
56
56
57
58
58
56
56
56
56
57
58
57
56
55
56
57
58
57
56
56
55
56
57
58
58
57
56
57
58
59
59
58
57
57
58
59
60
59
58
58
57
58
59
60
59
58
57
58
59
59
60
59
58
58
59
60
61
60
59
58
58
59
60
61
60
59
59
59
60
61
61
61
60
59
59
60
61
60
59
57
56
56
57
57
56
55
53
53
53
54
53
52
50
49
50
50
51
50
49
49
49
50
52
54
55
55
56
58
61
64
67
70
73
77
83
91
98
106
113
120
129
140
151
162
171
180
189
198
207
216
223
229
234
238
242
245
246
245
242
238
233
229
223
217
209
200
191
183
175
167
159
150
140
131
124
117
110
103
95
88
82
78
74
70
66
62
58
56
55
55
54
52
51
50
51
53
54
54
54
54
54
56
58
59
60
59
59
60
62
63
64
64
63
63
63
65
65
65
64
63
63
63
64
65
64
63
62
62
63
64
64
64
63
62
63
64
65
64
63
62
62
62
63
64
63
62
61
61
61
62
62
62
61
60
61
62
62
62
61
60
60
61
62
63
62
61
60
61
62
63
63
62
61
61
62
63
63
63
62
61
61
62
63
64
63
62
62
62
63
64
64
63
62
62
62
64
64
64
63
62
61
62
63
63
63
61
61
61
62
62
63
62
61
60
61
62
62
62
61
60
60
60
62
62
62
61
60
60
61
62
63
62
61
61
62
63
64
63
62
61
61
62
63
64
63
62
62
62
63
64
64
63
62
62
63
64
65
65
64
63
62
63
64
65
64
63
62
63
63
64
65
64
63
62
63
64
64
64
63
62
62
63
64
64
64
63
62
63
64
65
65
65
64
63
64
65
66
66
65
64
64
65
66
66
66
65
64
64
65
66
67
66
65
65
66
67
68
67
66
66
65
66
68
68
68
67
67
68
69
70
70
70
69
69
70
71
72
72
71
70
70
71
73
74
73
73
72
73
74
76
76
76
75
75
76
78
79
79
79
78
78
79
81
82
82
81
81
81
82
84
84
84
83
83
83
85
85
85
84
83
83
84
85
86
85
84
84
84
85
85
86
85
84
83
84
85
85
85
84
82
82
82
83
83
83
81
80
80
81
81
81
81
79
79
79
80
80
80
79
78
77
77
78
79
78
77
76
76
77
77
78
77
75
75
75
76
77
76
75
74
73
74
75
75
74
73
72
73
73
74
74
73
72
71
72
73
74
73
72
71
71
71
72
73
72
71
70
71
72
72
73
72
71
70
71
72
73
72
71
71
70
71
72
73
72
71
71
71
72
73
73
72
71
71
71
73
73
73
72
71
70
71
72
73
72
71
70
71
72
73
73
73
72
71
72
73
74
74
73
72
72
72
74
74
74
73
72
72
73
74
74
74
73
72
73
74
75
75
74
73
73
74
75
76
75
74
74
74
75
76
76
75
74
74
74
75
76
76
75
74
73
74
75
75
75
74
73
73
74
75
75
74
73
73
74
75
75
75
74
73
73
74
75
75
75
74
73
73
74
75
75
75
73
73
74
75
75
75
74
73
73
73
74
75
74
73
73
73
74
75
75
74
73
73
73
75
75
75
74
73
72
73
74
75
74
73
72
72
73
74
74
74
73
72
73
74
74
74
73
72
72
72
74
74
74
73
72
72
73
74
75
74
73
73
74
75
76
76
75
74
74
75
76
77
76
75
75
75
76
77
77
76
75
75
75
76
77
76
75
74
74
75
76
76
76
75
74
74
75
76
76
76
75
74
75
76
77
76
75
74
74
75
76
76
76
75
74
74
75
76
76
76
75
74
75
76
77
76
75
74
74
75
76
77
76
75
74
75
75
76
76
76
75
74
75
76
77
77
75
75
74
75
76
77
76
75
75
75
76
77
77
76
76
75
76
77
78
77
76
75
75
76
77
78
77
76
75
75
76
77
77
76
75
75
75
76
77
76
75
74
74
74
75
76
75
74
74
74
75
76
76
76
75
75
75
77
77
77
76
76
75
76
77
78
78
77
76
76
77
78
79
78
77
76
77
78
79
79
77
76
76
77
78
78
78
77
76
76
77
78
78
78
77
76
77
78
79
78
78
77
77
77
79
79
79
78
77
78
79
80
80
79
78
78
79
80
81
81
80
79
79
80
81
82
81
80
80
80
81
82
83
82
81
81
82
83
84
84
83
82
82
83
84
85
85
84
84
84
85
86
87
86
85
85
86
87
88
88
87
86
85
86
87
88
87
86
86
86
87
88
88
87
86
86
87
88
88
88
87
86
86
86
87
88
87
86
85
85
86
87
86
85
84
83
83
84
84
83
82
80
80
80
80
80
79
78
77
77
77
78
78
77
76
76
76
77
78
78
77
76
76
77
78
79
79
78
77
78
79
80
81
80
79
79
80
81
82
81
80
80
79
80
81
82
81
80
79
80
80
81
81
81
80
79
80
81
81
81
80
79
79
79
80
81
80
79
79
79
80
81
81
81
80
79
80
81
82
81
80
79
79
80
81
82
81
80
80
80
81
82
82
82
81
80
81
82
83
83
82
81
81
81
83
83
82
81
81
81
82
82
82
82
81
80
81
81
82
81
79
78
77
77
78
78
77
75
74
73
74
74
73
72
70
69
69
70
70
70
69
68
68
70
72
73
74
74
75
77
80
83
86
88
90
94
100
106
113
120
126
134
142
152
163
174
184
193
203
213
224
233
242
249
255
261
267
272
275
276
275
273
270
267
264
259
252
244
236
228
220
213
204
195
185
176
168
160
153
144
136
127
120
114
109
104
98
92
87
84
82
80
78
75
73
72
72
72
73
73
72
72
72
73
75
77
77
77
77
78
79
81
81
81
81
80
81
83
83
83
82
81
80
81
82
82
81
80
79
79
80
81
81
80
78
78
78
79
80
79
78
77
77
78
79
79
79
77
77
77
78
79
79
78
77
77
77
79
79
79
78
77
76
77
78
79
78
77
76
77
78
79
79
78
77
77
77
78
79
79
78
77
76
77
78
78
78
77
76
76
77
78
78
78
77
76
77
78
79
79
78
77
76
77
78
79
78
77
76
76
77
78
78
77
76
75
76
77
78
77
76
75
74
75
76
77
76
75
74
74
75
76
76
75
74
74
74
76
76
76
75
74
73
74
75
76
75
74
73
74
75
76
76
75
74
74
74
75
76
76
75
74
73
74
75
75
75
73
73
73
74
75
75
74
73
72
73
74
75
74
73
72
72
73
74
74
73
72
72
72
73
74
74
73
72
71
72
73
73
73
72
71
71
71
72
73
72
71
71
71
72
73
73
73
72
71
72
74
74
74
73
72
72
73
74
74
74
73
72
72
73
74
75
74
73
73
73
75
75
75
74
73
73
74
76
77
77
76
76
76
78
79
80
79
79
79
80
82
83
83
82
82
82
83
84
85
84
84
83
84
85
86
86
86
85
84
85
86
87
87
86
85
85
86
87
87
87
86
85
85
86
87
87
87
85
85
86
87
87
87
85
84
84
85
86
86
86
84
84
84
85
86
86
85
84
83
84
85
86
85
84
83
82
83
84
84
83
82
81
81
82
83
83
82
81
80
81
82
82
81
80
79
79
79
80
81
80
79
78
78
79
80
80
79
78
77
78
79
79
79
78
77
76
77
78
78
78
77
76
76
77
78
78
77
76
76
76
77
78
77
76
75
75
76
77
78
77
76
75
76
76
77
78
77
76
75
76
77
78
77
76
75
75
75
77
77
76
75
74
75
75
76
76
76
75
74
75
76
77
76
75
74
74
75
76
77
76
75
75
75
76
77
77
77
76
75
76
77
78
78
77
76
76
76
78
78
78
77
76
76
77
78
78
78
77
76
77
78
79
78
77
76
76
77
78
79
78
77
76
76
77
78
78
77
76
75
76
77
77
77
75
74
74
75
76
76
76
75
74
74
75
76
76
76
74
74
74
76
76
76
74
73
73
74
75
75
74
73
72
72
73
74
74
73
72
71
72
73
74
74
73
72
72
72
73
74
73
72
72
72
73
74
74
73
72
72
73
74
74
74
73
72
71
72
73
74
73
72
71
72
73
73
73
73
72
71
72
73
74
73
72
71
71
71
72
73
72
71
70
71
71
72
72
72
71
70
71
72
73
72
71
70
70
71
72
73
72
71
71
71
72
73
73
72
71
71
72
73
74
73
72
71
71
72
73
73
73
72
71
71
72
73
73
73
72
71
72
73
73
73
72
71
71
71
73
73
72
71
70
71
71
72
72
72
70
70
71
72
72
72
71
70
70
70
71
72
71
70
70
70
71
72
73
72
71
71
71
73
73
73
72
71
71
72
73
73
73
72
71
71
72
73
73
72
71
71
72
73
74
73
72
71
71
72
73
73
73
72
71
71
72
73
73
73
72
71
72
73
73
73
71
70
70
71
72
72
72
71
70
70
71
72
72
71
70
70
71
72
72
72
71
70
70
71
72
73
72
71
70
71
71
72
73
72
71
70
71
72
72
72
71
70
69
70
71
72
71
70
69
70
71
72
72
71
70
70
71
72
72
72
71
70
70
70
71
72
71
70
70
70
71
71
72
71
70
70
70
71
72
72
71
70
70
71
72
73
72
71
71
71
72
73
74
73
72
72
73
74
74
74
73
72
72
72
74
74
73
72
71
72
73
73
73
73
72
71
72
73
73
73
72
71
71
71
72
73
72
71
71
71
72
73
74
73
72
72
72
74
75
74
73
73
73
73
75
75
75
74
74
74
75
76
76
76
75
75
76
77
78
78
77
76
76
77
78
79
79
78
78
78
79
80
80
80
79
78
79
81
81
81
80
78
78
78
79
80
79
78
77
77
77
78
78
77
76
76
76
77
77
77
76
74
74
74
75
76
75
73
72
72
73
73
73
72
70
69
69
70
70
69
68
66
66
66
67
67
66
65
64
64
65
66
66
66
65
65
66
67
68
68
67
66
66
67
69
70
69
69
68
69
70
72
72
72
71
70
71
72
72
72
71
70
69
70
71
71
70
69
68
68
69
70
70
69
68
67
68
69
69
69
68
67
67
68
69
70
69
68
68
68
69
70
71
70
69
69
69
70
71
71
70
69
69
69
70
71
70
69
69
69
70
71
71
70
69
69
69
71
71
71
70
69
69
69
70
71
70
69
69
69
70
70
70
69
68
67
67
68
68
67
66
65
64
64
65
65
64
62
61
61
61
62
61
61
60
59
61
62
64
64
64
65
66
68
72
74
76
78
81
86
92
99
106
112
119
127
136
147
157
167
176
185
194
203
213
221
228
234
239
244
248
252
253
251
249
245
242
237
232
224
216
206
198
190
182
173
163
153
144
135
128
121
114
106
98
92
87
83
79
74
70
66
63
61
61
60
58
57
56
56
57
58
59
59
59
59
61
62
64
64
64
64
65
66
68
69
68
68
67
68
69
70
70
70
68
68
69
70
70
69
68
67
67
67
68
68
68
66
66
66
67
68
68
67
66
66
66
67
68
68
67
66
65
66
67
68
67
66
66
66
67
68
68
67
66
66
66
67
68
68
67
66
66
66
67
68
67
66
66
66
67
68
68
67
66
66
66
67
68
67
66
65
65
66
67
67
67
65
65
65
66
67
67
66
65
65
66
67
67
67
66
65
65
65
66
67
66
65
65
65
66
67
67
66
65
65
65
66
67
66
65
64
64
65
66
66
66
65
64
64
65
66
66
66
65
64
65
66
67
66
66
65
65
65
67
67
67
66
65
65
66
67
67
67
66
65
66
67
67
67
66
64
64
65
66
66
65
64
63
64
64
65
65
65
63
63
64
65
65
65
64
63
63
64
65
65
65
64
63
64
65
66
66
65
64
64
65
66
67
66
65
64
64
65
66
67
67
65
65
65
66
68
68
67
66
66
67
68
69
69
68
68
67
68
70
70
70
69
69
69
70
71
72
71
71
70
71
73
73
73
72
72
72
73
74
75
75
74
74
75
76
78
78
78
77
77
79
80
81
81
80
80
80
81
82
83
82
81
81
81
83
84
84
83
82
82
82
83
84
83
82
81
80
81
82
82
81
80
79
79
80
81
81
80
79
78
78
79
80
79
78
77
76
77
78
78
77
76
75
75
76
76
76
75
74
73
74
75
75
74
73
72
71
72
73
73
72
71
70
70
71
71
71
70
69
68
69
70
70
70
69
68
67
68
69
69
68
67
67
67
68
68
69
68
67
66
67
68
68
68
67
66
65
66
67
67
66
65
64
65
65
66
66
65
64
64
64
65
66
65
64
63
63
64
65
65
65
63
63
63
64
65
65
65
64
64
64
65
66
66
65
64
64
65
66
66
66
65
64
65
66
67
67
67
66
65
66
67
67
67
66
65
65
66
67
67
66
65
65
65
66
67
67
66
65
64
65
66
67
66
65
64
64
65
66
66
66
65
64
64
65
66
66
66
64
64
65
66
66
66
65
64
64
65
66
66
65
64
64
64
65
66
66
66
65
64
65
66
67
67
66
65
65
65
66
67
66
65
64
65
66
67
67
66
65
64
65
66
66
66
65
64
64
64
65
66
65
64
63
63
64
65
65
64
63
62
63
64
65
64
63
62
62
63
64
64
64
63
62
63
64
65
65
64
63
63
63
64
65
64
63
62
62
62
64
64
63
62
61
62
62
63
63
63
62
61
62
63
64
63
62
62
61
62
63
64
63
62
62
62
63
64
65
64
63
63
63
64
65
65
64
63
62
63
64
65
64
63
62
62
63
64
64
63
62
62
62
63
64
63
62
61
61
62
63
63
63
62
61
62
62
63
64
63
62
62
62
64
64
64
63
62
61
62
63
64
63
62
61
61
62
63
63
63
61
61
62
63
63
63
62
61
61
61
63
63
62
61
61
61
62
63
63
62
61
61
62
63
63
63
62
61
60
61
62
63
62
61
60
61
61
62
62
62
61
60
61
62
63
63
62
61
61
62
63
63
63
61
61
61
62
63
63
63
61
61
62
63
63
63
62
61
61
61
62
63
62
61
60
61
62
63
63
62
61
61
61
63
63
63
62
61
61
62
63
64
63
62
61
61
62
63
64
63
62
61
62
63
63
63
62
61
61
62
63
63
62
61
61
61
62
63
63
63
62
62
62
64
64
64
63
62
62
63
64
65
64
63
63
63
64
65
65
65
64
63
64
65
66
65
64
63
63
64
65
66
65
64
63
64
65
66
66
65
64
64
64
66
66
66
65
64
64
64
66
66
65
64
64
64
65
66
66
65
64
64
65
66
66
66
65
64
64
64
65
66
65
64
63
63
64
65
65
64
63
63
63
65
65
65
64
63
63
63
65
65
64
63
63
63
64
65
65
65
64
63
64
65
66
66
65
64
64
64
65
66
65
64
64
64
65
66
66
66
65
64
65
67
67
67
66
66
66
67
68
69
68
67
67
68
69
70
70
70
69
69
70
72
72
72
71
71
71
71
73
73
73
72
71
71
72
73
73
72
71
71
71
72
72
72
70
69
69
69
70
70
69
68
67
67
68
69
68
67
66
65
66
66
67
66
64
63
62
62
63
63
62
60
59
59
60
60
60
59
57
57
58
59
59
59
58
57
56
57
59
59
59
58
58
59
60
61
62
61
60
60
61
63
63
63
63
62
62
63
64
65
64
63
63
63
64
65
65
64
63
62
63
64
64
64
63
62
61
62
63
63
63
61
61
61
62
63
63
62
61
61
62
63
64
63
62
61
61
62
63
64
63
62
61
62
63
63
64
63
62
61
62
63
64
63
62
62
61
62
64
64
64
63
62
63
64
65
65
65
64
63
64
65
66
65
64
63
63
64
65
65
64
62
61
61
62
62
62
61
59
58
59
59
59
58
57
55
55
55
56
56
56
55
55
56
57
59
60
61
61
62
65
68
71
74
76
79
84
91
98
106
113
120
128
137
148
158
168
177
185
194
203
212
220
226
231
234
238
241
243
243
241
237
232
227
222
216
209
201
191
182
174
167
158
149
140
130
122
115
109
103
96
89
82
78
74
71
68
64
60
58
57
57
56
55
54
53
53
54
55
56
56
56
56
57
59
60
61
61
61
61
62
64
65
65
64
63
63
64
65
66
65
64
64
64
65
66
66
65
64
64
64
65
66
65
64
63
63
63
64
65
64
63
62
62
63
64
64
64
62
62
63
64
64
64
63
62
62
62
63
64
63
62
61
62
62
63
63
63
62
61
62
63
64
63
62
62
61
62
63
64
63
62
61
62
63
63
63
63
62
61
62
63
63
63
62
61
61
62
63
63
63
62
61
62
63
63
64
63
62
61
62
63
64
63
62
61
61
62
63
63
63
62
61
62
63
63
64
63
62
62
62
63
64
64
63
62
62
62
64
64
63
62
62
62
63
63
64
63
62
61
62
63
63
63
62
61
60
61
62
63
62
61
60
61
62
63
63
62
62
61
62
64
64
64
63
63
63
63
65
65
64
63
63
63
64
65
65
65
63
63
64
65
65
65
64
63
63
63
64
65
64
63
63
63
64
65
65
65
64
63
64
65
66
65
64
63
63
64
65
66
65
64
64
64
65
66
67
66
65
65
66
67
68
68
67
67
67
68
70
70
70
69
69
70
71
72
73
72
72
72
73
74
75
75
74
74
74
75
76
77
77
76
75
76
77
78
79
78
77
77
78
79
80
80
79
78
78
79
80
80
80
79
78
79
80
81
81
80
79
79
79
80
81
80
79
78
78
78
79
79
78
77
76
76
77
77
77
76
75
74
75
76
76
75
74
73
72
73
74
74
73
72
71
71
72
73
73
72
71
70
70
71
72
71
70
68
68
69
69
70
69
67
67
67
67
68
68
67
66
66
66
67
68
67
66
65
64
65
66
67
66
65
64
64
65
66
66
65
64
63
64
65
66
65
64
63
63
63
65
65
64
63
63
63
64
65
65
65
64
63
64
65
66
66
65
64
63
64
65
66
65
64
63
64
64
65
65
65
64
63
64
65
66
65
64
63
63
64
65
66
65
64
63
64
65
65
66
65
64
64
64
65
66
65
64
64
63
64
65
66
65
64
64
64
65
66
66
66
65
64
65
66
67
66
65
64
64
65
66
66
66
65
64
64
65
66
66
65
64
64
65
66
66
66
65
64
64
65
66
66
66
65
64
64
65
66
66
66
65
64
65
66
66
66
65
64
63
64
65
65
64
63
63
63
64
64
65
64
63
62
63
64
65
64
63
62
62
63
64
65
64
63
63
63
64
65
65
64
64
63
64
65
66
65
64
63
63
64
65
65
64
63
63
63
64
64
64
64
62
62
63
64
64
64
63
62
62
62
64
64
63
62
62
62
63
64
65
64
63
62
63
64
65
64
63
62
62
63
64
64
63
62
62
62
63
64
64
63
62
62
63
64
64
64
63
62
62
63
64
64
64
63
62
62
63
64
65
64
63
62
63
64
64
64
63
62
61
62
63
64
63
62
61
61
62
63
63
63
62
61
62
63
64
64
63
62
62
63
64
65
64
63
62
63
64
65
65
64
63
63
63
64
65
64
63
62
62
63
64
65
64
63
62
63
64
65
65
64
63
63
64
65
65
65
64
63
63
63
65
65
64
63
62
63
64
65
65
64
63
63
63
64
65
65
63
63
62
63
64
65
64
63
63
63
64
65
65
64
63
63
64
65
66
65
64
63
63
64
65
66
65
64
63
64
65
65
66
65
64
63
64
65
66
66
65
64
64
65
66
67
66
65
65
65
66
67
67
67
65
65
66
67
68
67
66
65
65
65
67
67
66
65
64
65
66
67
67
66
65
65
66
67
67
67
66
65
65
66
67
68
67
66
65
66
66
67
67
66
65
65
66
67
67
67
66
65
65
66
67
67
67
66
65
66
67
68
68
68
67
66
67
68
69
68
67
67
67
67
69
69
68
67
67
67
68
69
69
68
67
67
67
68
69
68
67
66
66
67
68
68
67
66
66
66
67
68
68
67
66
66
67
68
68
68
67
66
66
67
68
68
68
67
66
67
68
68
69
68
67
67
68
69
70
70
69
68
68
69
71
71
71
70
70
70
72
73
73
73
72
71
72
74
74
74
73
72
72
73
75
75
75
74
73
74
75
76
76
76
74
74
75
76
76
76
75
74
73
74
75
75
74
73
72
72
73
74
74
73
72
71
72
73
73
73
71
70
70
70
71
71
70
68
67
67
67
68
67
66
64
64
64
64
64
64
62
61
61
61
62
63
62
61
60
61
62
62
63
62
61
61
62
64
64
64
64
63
63
64
66
67
67
66
66
67
68
69
69
69
68
68
69
70
70
70
69
68
68
68
70
70
69
68
67
68
69
69
69
69
67
67
