# Simple Text Format
# Sampling Rate (Hz):= 1200.00
# Resolution:= 12
# Labels:= ECG	 V1
# Age:=	23
# Gender:=	Feminino
-26
-25
-24
-23
-21
-20
-19
-19
-17
-16
-15
-14
-13
-12
-11
-10
-9
-7
-6
-5
-5
-4
-2
-1
0
1
2
2
3
5
6
7
8
8
9
9
10
12
13
14
14
14
15
16
17
18
18
18
18
19
20
21
21
21
22
21
22
23
23
24
23
24
25
25
25
26
25
25
25
26
27
27
28
27
27
27
27
27
28
28
27
28
28
28
29
29
28
28
28
29
28
29
28
29
29
29
29
29
29
28
28
28
28
28
29
29
28
28
28
29
29
29
29
29
28
29
28
29
29
29
29
29
29
29
29
29
30
29
29
29
29
29
29
29
28
28
28
28
29
28
28
27
28
28
28
29
28
28
27
28
28
28
28
28
27
27
28
28
28
27
27
27
27
27
28
28
28
27
27
28
28
28
28
28
27
27
28
28
28
27
27
27
27
27
28
28
27
27
27
27
28
28
28
28
27
28
28
28
28
29
28
27
28
28
29
29
28
28
28
27
28
28
28
27
28
27
27
27
28
28
28
27
27
28
28
28
27
27
27
27
27
28
27
27
27
27
27
27
27
27
26
27
26
27
27
27
27
26
27
27
27
27
27
27
27
27
27
27
27
26
27
27
27
27
27
27
26
26
26
26
26
27
27
27
26
26
26
27
26
26
25
26
25
26
26
26
27
25
26
25
26
26
26
25
25
25
26
26
26
25
25
26
25
26
26
26
27
25
26
26
27
26
26
26
26
26
26
27
27
26
26
26
27
27
27
27
27
27
26
27
27
27
28
27
27
27
28
28
28
27
27
27
27
27
28
29
28
28
27
28
28
29
29
29
28
28
29
29
28
28
28
28
28
28
28
29
28
28
27
28
28
29
28
27
28
27
28
28
29
28
28
28
28
28
29
29
29
29
28
29
29
30
29
28
28
28
28
28
28
29
28
28
28
29
29
29
28
28
28
28
28
29
28
28
28
28
28
29
28
29
29
28
29
29
30
30
29
29
29
29
29
30
30
29
29
29
29
28
29
28
28
28
28
28
28
28
28
27
28
27
28
28
28
27
27
27
28
28
28
29
29
28
28
28
29
30
29
29
28
29
29
30
30
29
29
29
28
29
30
29
28
29
29
29
29
29
29
29
29
29
29
29
29
29
28
29
29
30
29
29
29
29
29
29
30
30
30
28
29
28
29
29
30
29
28
28
28
28
29
28
28
28
28
28
29
30
29
29
28
29
29
30
30
30
29
29
29
29
30
29
29
29
29
29
30
30
30
30
29
30
30
30
30
29
29
29
29
29
30
29
29
29
29
28
29
30
29
29
28
29
29
28
29
28
28
28
28
29
28
29
29
28
28
28
28
29
29
28
29
28
29
29
29
29
29
29
28
28
29
29
28
29
28
29
29
29
29
29
28
28
29
29
29
29
29
29
29
29
30
29
29
28
29
30
30
30
30
30
29
29
30
30
30
29
29
29
29
30
30
30
28
28
28
28
29
29
29
27
27
27
26
26
26
25
25
25
25
25
25
25
25
24
24
25
25
25
24
24
23
24
24
24
24
23
22
22
22
21
21
20
19
19
18
18
17
17
15
15
14
14
14
13
13
13
12
12
12
13
14
14
14
14
14
15
15
17
17
17
17
17
18
19
19
19
19
19
19
20
20
20
20
19
19
20
20
21
21
20
21
22
22
23
23
22
23
23
24
25
25
25
25
25
26
27
27
28
28
29
28
29
30
30
30
31
31
31
31
31
32
32
31
31
31
32
32
32
32
31
31
31
32
32
32
31
31
31
32
32
32
31
31
32
32
32
32
32
32
31
32
32
32
32
32
32
32
31
32
32
32
32
31
31
32
31
32
32
32
31
31
32
32
31
31
31
31
31
31
31
32
32
31
31
32
32
33
34
34
34
35
35
36
37
38
38
39
39
39
41
41
41
41
41
40
40
39
38
36
32
29
26
22
17
13
7
1
-6
-12
-18
-25
-33
-42
-50
-57
-66
-73
-81
-89
-97
-103
-109
-114
-118
-121
-124
-127
-127
-127
-125
-123
-120
-116
-111
-104
-98
-90
-81
-72
-64
-55
-45
-36
-25
-16
-8
1
9
17
24
31
37
42
47
52
55
59
62
63
65
66
67
68
68
68
67
65
64
63
62
60
59
56
54
52
51
49
48
46
43
43
41
40
39
38
37
35
35
34
34
34
33
33
32
32
32
32
32
32
32
31
31
31
31
31
31
31
31
31
31
32
31
31
31
31
30
31
30
31
30
30
30
30
30
30
30
29
30
29
29
29
29
29
28
28
29
28
28
29
27
28
28
28
27
27
27
26
27
26
27
27
27
26
26
26
26
27
27
27
27
26
26
26
27
27
27
26
27
26
27
27
27
26
26
26
26
26
26
26
26
26
26
26
27
27
26
26
25
25
25
26
26
25
25
25
25
25
26
25
25
25
24
25
25
25
25
24
24
24
24
25
24
24
23
23
24
24
24
23
23
23
22
22
22
22
21
21
21
21
20
21
20
20
20
20
19
20
21
20
20
19
19
20
19
19
19
19
18
19
18
19
18
18
17
16
17
16
16
16
15
15
15
14
15
14
14
13
12
12
11
12
11
11
9
10
9
9
9
8
7
6
6
6
5
4
3
2
2
2
1
1
0
0
-2
-2
-3
-3
-4
-5
-6
-7
-8
-8
-8
-9
-10
-11
-11
-12
-13
-13
-14
-14
-16
-17
-17
-18
-18
-19
-19
-21
-21
-22
-22
-22
-23
-26
-26
-27
-27
-27
-27
-28
-30
-30
-30
-30
-30
-30
-31
-32
-32
-33
-32
-33
-33
-33
-34
-34
-34
-34
-34
-34
-35
-35
-34
-33
-33
-32
-33
-32
-32
-31
-30
-29
-28
-28
-27
-26
-25
-23
-22
-22
-21
-19
-18
-16
-15
-13
-13
-12
-11
-10
-8
-6
-5
-5
-3
-2
-1
1
1
3
3
4
5
7
7
8
9
9
10
12
13
13
13
14
15
15
16
17
17
17
18
18
19
20
21
21
21
21
22
23
23
24
24
23
23
24
25
25
25
25
25
25
27
27
27
28
27
27
27
27
27
27
28
28
27
28
28
28
28
27
27
27
27
27
28
27
27
26
26
26
27
27
27
27
27
26
28
27
27
27
27
27
27
28
28
28
27
27
27
27
28
28
28
27
27
27
28
28
27
27
27
27
27
27
28
28
28
28
27
27
28
28
27
27
27
27
28
28
28
28
28
28
27
29
28
28
27
27
27
27
28
28
27
27
28
27
28
28
28
28
28
28
28
28
29
28
28
28
28
29
29
29
29
28
27
27
28
28
28
27
26
26
26
27
27
27
26
26
26
26
25
25
25
25
25
25
25
26
26
26
26
26
26
26
26
26
26
25
26
27
27
27
26
26
26
26
26
26
27
27
26
26
26
26
27
26
26
25
25
26
26
26
26
25
25
26
26
26
25
25
25
25
25
26
26
26
26
25
25
26
27
27
26
26
26
26
26
26
27
27
26
26
27
27
27
27
27
27
26
27
27
27
27
27
27
27
27
27
27
27
27
27
27
27
27
27
27
27
27
26
27
28
27
27
27
27
27
28
28
27
27
27
27
27
28
27
27
26
26
27
27
27
26
26
26
26
26
27
27
27
27
27
26
27
27
27
27
26
27
27
28
28
27
27
26
26
26
27
27
27
26
26
26
27
27
27
27
27
27
27
27
27
27
27
26
27
27
28
28
27
26
26
27
27
28
28
27
27
28
28
28
28
28
27
27
28
28
28
28
27
27
28
28
28
28
28
28
28
27
27
28
28
27
27
27
28
28
28
28
27
27
27
28
28
28
28
28
28
28
28
28
28
27
27
28
28
28
28
28
28
28
28
29
29
29
29
28
28
28
28
29
29
28
28
27
28
29
29
29
29
28
28
28
28
29
28
28
28
28
29
29
29
28
28
28
28
29
29
28
28
28
28
28
29
28
28
28
28
28
28
28
28
28
28
27
27
28
28
28
28
28
27
27
28
28
28
28
28
28
28
28
28
28
28
27
28
28
29
28
28
27
27
28
28
29
28
28
28
28
28
28
28
28
27
28
28
28
28
28
27
26
26
27
28
27
28
27
27
27
27
27
27
28
27
27
27
27
27
27
27
27
27
27
27
28
28
28
27
27
28
28
28
28
28
27
28
27
28
28
28
28
28
28
28
29
28
28
28
28
28
28
28
28
27
27
27
27
28
27
27
27
26
26
26
27
26
26
25
25
26
25
26
25
24
24
24
25
25
24
24
24
23
23
24
23
22
22
22
21
21
21
20
20
19
18
18
17
16
16
16
14
13
14
13
14
13
12
12
12
12
13
12
13
13
13
13
14
15
16
15
16
16
17
18
19
19
19
19
20
20
20
20
19
19
20
19
20
20
19
19
19
19
20
20
21
21
22
21
21
22
23
23
24
23
24
24
25
26
26
27
26
27
27
28
29
29
29
28
28
29
30
29
30
29
29
29
30
30
30
30
29
30
30
30
31
31
31
31
31
31
31
31
31
30
31
31
31
31
32
32
31
31
31
32
31
32
32
31
31
32
32
32
31
31
31
31
32
32
32
32
32
32
32
33
32
32
32
32
32
32
32
32
33
32
32
32
32
33
33
33
34
34
35
36
37
37
37
38
39
39
40
41
41
41
41
41
41
41
40
38
36
34
32
29
26
21
16
12
7
1
-5
-11
-17
-24
-32
-39
-46
-54
-62
-69
-77
-84
-91
-97
-102
-106
-111
-115
-117
-118
-118
-119
-118
-115
-113
-109
-104
-98
-91
-85
-77
-69
-61
-51
-43
-34
-26
-19
-11
-3
6
12
18
24
29
34
38
42
46
49
52
53
55
57
58
60
59
60
59
59
58
58
56
55
53
52
51
50
49
46
44
43
41
41
39
38
36
36
34
34
33
33
31
30
30
30
29
30
29
29
28
28
28
28
28
28
27
27
27
27
28
27
28
28
27
27
27
27
27
27
26
26
26
26
26
25
25
25
25
25
25
25
24
24
25
25
25
25
24
24
24
24
24
24
25
25
25
23
24
24
24
24
24
24
24
24
24
24
23
23
23
23
23
24
23
23
23
23
22
22
22
22
22
22
22
22
22
22
22
21
21
21
22
22
21
22
22
21
21
22
22
22
22
21
21
21
21
21
22
21
21
20
21
21
21
20
20
19
19
20
20
20
20
19
19
19
19
19
18
18
18
17
18
18
18
18
18
17
17
18
17
17
17
17
17
17
17
17
17
17
15
15
15
15
16
15
15
14
13
14
14
14
13
13
12
12
11
12
12
11
10
10
10
11
10
10
9
9
8
8
8
8
6
6
6
5
5
5
4
3
3
2
2
2
2
1
0
-1
-2
-1
-1
-2
-3
-4
-4
-5
-5
-6
-6
-7
-8
-9
-9
-10
-10
-10
-11
-12
-13
-13
-14
-14
-15
-16
-17
-17
-18
-18
-18
-19
-21
-22
-22
-22
-22
-23
-24
-25
-26
-25
-25
-26
-27
-28
-28
-29
-29
-29
-29
-30
-31
-32
-31
-32
-32
-33
-32
-33
-33
-34
-33
-33
-33
-34
-34
-34
-34
-33
-32
-33
-33
-32
-32
-31
-31
-30
-29
-29
-28
-27
-26
-25
-24
-24
-23
-21
-21
-19
-18
-17
-16
-16
-14
-12
-11
-9
-9
-8
-7
-6
-4
-3
-2
-2
-1
1
3
4
5
5
6
7
8
9
10
11
12
13
13
14
15
15
17
17
17
18
18
20
19
20
20
20
21
21
22
22
22
21
22
22
22
23
23
23
22
22
23
24
24
23
23
23
23
24
25
25
24
24
24
25
26
25
26
26
25
26
26
26
26
26
25
25
26
27
27
27
26
26
26
26
28
27
27
27
26
27
26
27
27
27
26
26
27
27
27
27
27
27
26
27
27
27
27
26
27
26
27
27
27
27
26
26
27
27
27
26
26
26
26
26
27
27
26
26
25
26
26
26
26
26
26
26
26
26
26
27
26
26
26
26
27
26
26
25
25
26
26
26
26
26
26
25
25
25
26
26
25
24
24
24
25
25
25
25
24
24
24
25
25
24
24
24
25
25
26
26
25
25
25
25
26
26
26
25
25
25
26
26
26
25
25
25
25
26
25
25
25
24
24
25
26
26
25
25
26
25
26
26
26
26
25
26
25
26
26
26
26
25
25
25
25
26
25
25
24
24
25
25
25
24
23
23
24
24
24
25
25
24
24
25
24
24
24
24
24
24
24
24
24
24
24
23
24
24
24
25
25
24
24
25
25
25
25
24
25
25
25
25
25
25
25
25
25
25
26
26
25
25
25
25
26
26
25
24
25
25
25
25
25
24
24
24
25
25
25
25
25
25
25
25
26
26
25
25
25
25
25
25
26
26
26
26
26
26
26
26
26
26
26
26
26
26
25
25
25
25
25
25
25
25
25
24
25
25
26
25
25
25
25
24
25
26
25
25
25
25
25
25
25
25
25
25
25
25
26
26
25
25
25
25
25
26
25
25
24
25
25
25
25
25
25
24
25
25
26
26
25
25
25
25
26
25
25
25
25
25
25
26
26
25
24
24
24
25
25
25
25
24
24
24
25
24
25
25
24
24
24
25
25
25
24
25
25
25
26
26
26
25
25
26
26
25
26
25
25
25
25
26
26
25
24
24
25
25
25
25
25
24
25
24
24
25
24
24
24
24
24
24
24
25
24
24
24
25
26
25
25
24
24
24
24
25
25
24
24
24
24
24
24
24
24
24
25
25
25
25
24
24
25
25
25
25
24
24
23
24
25
25
25
24
25
25
24
25
25
25
24
24
24
25
25
25
25
25
24
24
25
25
25
25
25
24
25
25
26
26
26
25
25
25
26
26
26
25
25
25
25
26
26
25
24
24
24
25
24
23
24
23
22
23
22
22
22
21
21
21
21
21
21
21
19
20
19
20
20
20
19
19
19
19
19
19
18
18
17
17
17
17
16
16
15
14
13
13
12
12
11
10
10
9
10
9
9
8
7
8
8
8
9
9
8
9
9
10
11
12
12
11
12
13
14
13
14
14
14
14
15
15
15
15
14
14
14
14
15
15
15
15
15
15
16
16
17
17
17
17
18
18
19
19
19
19
21
21
22
22
22
22
22
23
23
24
24
24
23
24
25
25
25
25
25
25
26
26
26
27
26
26
26
26
27
27
27
26
26
26
26
27
27
26
26
26
26
27
27
27
27
26
26
27
27
27
27
27
26
26
27
27
27
27
27
26
27
27
27
26
26
26
26
26
26
26
26
26
25
25
25
26
26
26
26
26
26
27
27
27
27
28
28
29
30
31
31
31
33
33
34
35
35
35
35
34
34
34
34
32
30
27
24
22
18
14
8
4
-2
-8
-14
-20
-27
-35
-43
-51
-59
-66
-73
-81
-90
-97
-104
-110
-115
-120
-123
-127
-130
-130
-130
-130
-128
-126
-123
-118
-112
-105
-97
-90
-82
-73
-65
-55
-46
-37
-27
-19
-11
-3
5
13
19
25
30
35
39
44
47
51
52
54
55
56
58
58
58
56
57
55
54
54
52
51
49
47
46
44
43
40
39
37
36
35
34
33
31
30
28
28
27
27
27
26
25
25
24
25
25
24
24
24
24
24
24
24
23
23
23
23
23
23
23
23
23
23
23
24
23
23
23
22
23
22
22
23
22
22
21
21
22
22
22
22
20
21
21
22
21
21
21
20
21
20
21
21
21
20
20
20
20
20
20
20
19
19
19
20
20
19
20
19
19
19
19
19
20
19
18
18
19
19
19
19
18
18
18
19
19
18
18
17
18
18
19
18
18
18
17
17
18
18
18
18
18
18
17
17
18
18
18
17
17
17
17
17
17
16
16
16
16
17
17
16
16
16
16
16
16
16
16
15
15
15
15
15
15
14
14
14
13
14
14
14
13
12
13
12
13
13
13
11
11
11
11
11
11
11
10
10
10
10
10
10
9
9
9
9
9
9
7
7
6
7
7
6
6
6
5
4
5
5
5
4
4
3
3
3
3
2
2
1
0
-1
0
-1
-2
-3
-3
-4
-4
-5
-5
-7
-8
-8
-8
-9
-10
-11
-11
-12
-13
-13
-13
-14
-15
-16
-18
-18
-18
-19
-19
-20
-21
-22
-22
-23
-23
-25
-25
-26
-27
-27
-27
-28
-29
-31
-31
-31
-32
-32
-33
-34
-34
-35
-35
-36
-36
-37
-37
-37
-38
-37
-38
-38
-38
-38
-39
-39
-39
-38
-38
-39
-39
-39
-38
-38
-37
-37
-37
-37
-36
-36
-35
-33
-33
-33
-32
-32
-30
-29
-27
-27
-26
-25
-24
-22
-20
-20
-19
-18
-17
-15
-14
-12
-12
-10
-10
-8
-7
-6
-5
-3
-3
-3
-1
0
2
3
4
4
5
6
6
8
9
9
9
10
11
11
12
12
12
12
13
14
14
15
15
15
15
16
16
17
17
17
17
17
17
18
18
19
18
18
19
19
19
19
20
20
20
20
20
20
20
20
19
19
19
21
20
20
20
20
19
21
21
21
21
20
20
21
21
22
21
21
21
21
22
22
22
21
21
22
22
22
22
22
22
21
21
22
22
22
22
22
21
21
22
22
22
22
21
22
22
22
23
23
22
21
21
22
22
22
22
22
22
22
21
21
21
21
21
21
20
20
21
21
21
21
21
21
21
21
22
21
20
20
21
22
22
22
21
21
21
22
22
22
22
21
21
22
22
22
22
22
21
21
22
22
22
22
22
21
22
22
22
22
22
22
22
22
22
22
22
22
21
21
22
22
22
22
21
21
21
21
22
22
21
20
20
21
21
22
21
21
20
20
21
21
21
22
22
21
21
21
22
22
22
22
22
22
23
23
22
23
23
22
23
23
23
22
22
22
23
23
23
23
23
22
22
22
22
22
22
22
21
21
21
22
22
21
21
21
21
21
22
22
21
21
21
22
22
22
21
21
20
20
21
21
21
21
20
20
20
22
21
21
21
20
20
21
21
21
21
21
20
20
21
22
22
21
21
21
22
22
23
23
22
22
22
22
23
22
23
22
22
22
22
22
22
22
22
22
22
23
22
22
22
22
22
23
23
23
23
23
22
22
23
23
23
22
22
22
22
22
23
23
22
22
22
22
23
23
22
23
22
22
22
22
22
22
22
21
22
22
22
22
22
22
21
21
21
22
21
21
20
21
21
21
21
21
20
20
20
21
21
21
20
20
21
21
21
21
21
21
21
21
21
21
22
22
21
21
21
22
22
22
22
21
21
21
22
22
22
21
21
21
21
21
21
22
20
20
20
20
21
21
21
20
20
21
21
21
21
21
20
20
21
21
21
21
20
20
21
21
22
22
21
21
20
21
21
21
21
20
20
20
20
20
21
21
20
20
20
21
21
21
21
20
21
21
21
21
21
21
20
20
21
21
21
21
20
21
20
21
21
21
21
21
20
20
21
21
21
20
20
20
20
21
22
21
21
20
21
21
22
22
21
21
21
21
21
21
21
21
21
21
21
21
21
20
20
20
21
21
21
21
21
21
21
20
21
21
21
21
21
21
21
21
21
21
21
21
21
21
21
21
21
21
21
20
21
21
21
21
20
20
21
21
21
20
20
20
21
21
21
21
21
21
20
20
22
21
20
20
20
20
20
20
21
21
21
20
20
21
21
21
21
20
19
20
20
20
20
20
20
20
20
20
20
20
20
20
19
20
20
20
21
21
20
20
21
21
21
20
21
21
21
22
21
21
21
21
20
21
21
21
20
20
20
20
21
21
21
20
20
20
20
21
20
20
20
19
20
20
21
21
20
20
21
20
20
21
21
21
20
20
21
22
22
21
21
21
20
21
21
21
21
20
20
19
20
19
20
19
19
19
18
19
18
17
17
17
17
17
18
18
17
16
17
16
17
18
17
17
16
17
17
17
17
17
16
15
15
14
15
14
13
12
11
11
10
10
9
8
7
6
7
6
6
5
5
5
5
6
6
7
7
6
7
7
8
9
9
10
10
10
11
11
11
12
11
11
11
12
13
13
12
12
12
12
13
12
13
12
12
13
13
14
14
14
14
14
16
16
18
17
18
18
18
20
20
20
21
21
21
22
22
23
23
23
22
22
23
23
23
23
23
22
23
23
23
23
23
23
23
23
23
23
23
23
23
23
24
24
24
25
24
24
23
23
24
25
24
23
23
23
24
24
24
23
23
23
23
24
23
24
24
24
23
24
24
24
24
23
23
23
23
23
23
23
22
23
23
23
24
24
23
23
24
24
25
26
26
26
26
27
28
29
29
30
30
30
31
31
32
32
31
31
30
29
28
26
23
19
16
11
7
2
-3
-9
-16
-22
-29
-36
-44
-51
-60
-69
-77
-84
-93
-99
-107
-114
-121
-126
-129
-133
-135
-137
-138
-138
-137
-134
-130
-126
-121
-115
-109
-100
-91
-82
-73
-64
-55
-45
-36
-26
-17
-8
0
7
15
21
28
33
38
41
45
48
51
54
55
57
57
57
57
57
57
55
54
52
51
49
48
47
45
42
40
39
37
35
34
32
30
29
27
27
26
25
24
23
23
23
23
22
22
22
21
21
22
22
22
21
22
22
22
22
23
22
22
21
22
22
23
23
22
22
21
21
22
22
22
21
21
21
20
21
21
21
20
20
20
20
20
20
20
20
19
19
20
19
20
19
18
19
19
20
20
19
18
18
18
18
19
19
18
18
18
18
18
18
18
17
17
17
17
18
17
17
17
16
17
17
17
17
17
17
16
16
17
16
16
15
15
15
16
16
16
16
15
15
14
15
15
15
15
14
15
14
15
16
15
14
14
14
15
15
15
14
14
14
13
14
14
14
14
14
13
14
13
14
13
13
12
11
12
13
12
12
11
11
11
11
11
11
10
10
9
10
11
10
10
10
9
9
9
9
9
8
7
8
7
8
7
7
7
6
5
6
5
5
4
4
3
3
2
3
3
1
1
1
1
0
0
0
0
-1
-2
-2
-2
-3
-3
-3
-5
-5
-5
-5
-5
-7
-8
-8
-9
-9
-10
-10
-11
-12
-13
-13
-14
-14
-15
-16
-17
-18
-18
-18
-19
-20
-21
-22
-22
-22
-24
-24
-25
-26
-26
-27
-28
-28
-29
-30
-31
-31
-31
-32
-33
-34
-34
-36
-36
-36
-36
-37
-37
-38
-39
-40
-39
-40
-41
-41
-42
-42
-43
-42
-42
-44
-44
-44
-44
-44
-44
-44
-44
-45
-45
-44
-43
-42
-43
-42
-42
-41
-41
-40
-39
-38
-37
-37
-36
-34
-33
-32
-31
-31
-29
-28
-26
-25
-24
-23
-23
-21
-19
-19
-17
-17
-15
-15
-13
-12
-10
-9
-8
-8
-7
-5
-4
-3
-2
-1
-1
1
2
2
3
4
5
5
6
7
8
9
9
9
10
10
11
11
11
12
12
12
12
13
14
13
14
14
14
14
15
16
15
15
15
15
16
17
17
17
16
16
17
18
17
18
18
17
17
18
18
19
18
18
17
18
18
19
19
19
18
18
19
19
19
19
19
18
19
19
20
19
19
18
19
18
19
19
19
18
18
18
19
19
19
18
18
17
18
18
19
19
19
19
18
18
19
18
19
18
18
18
19
19
19
18
18
18
18
18
19
20
19
19
18
19
19
19
20
19
19
19
19
20
19
19
18
19
18
19
19
19
18
18
19
18
18
19
18
18
17
17
18
18
18
18
18
18
18
18
18
18
18
18
18
18
18
19
18
18
17
17
18
18
18
17
17
18
17
18
18
19
18
18
17
18
18
19
19
19
18
18
19
19
19
18
18
18
18
19
19
19
18
18
17
18
18
17
18
17
17
17
17
17
17
16
16
16
16
16
17
16
17
16
16
17
17
16
17
16
16
16
17
17
17
17
17
16
17
17
17
17
18
17
17
17
18
17
17
17
17
17
17
18
18
17
17
17
17
17
18
17
17
17
17
18
18
17
18
17
17
17
17
18
17
18
18
17
18
18
18
18
18
18
18
18
19
18
18
18
18
18
18
19
19
19
19
18
19
19
19
19
19
18
19
18
19
19
18
18
18
17
18
18
19
18
18
18
18
18
19
19
19
18
18
19
19
18
18
18
18
18
18
18
19
18
18
17
18
18
19
19
18
18
18
18
18
19
18
19
18
18
18
19
18
18
18
18
18
18
18
18
19
18
18
18
19
18
19
19
18
18
19
19
19
18
18
18
18
18
19
18
18
18
18
18
18
18
18
17
18
17
18
18
19
18
18
18
18
19
18
19
19
18
18
18
19
18
19
18
18
18
18
19
18
18
18
18
18
18
19
18
18
18
17
17
18
18
18
17
16
16
17
17
17
17
16
16
16
17
17
17
17
16
16
16
17
16
17
17
16
16
17
17
17
17
17
16
16
17
17
18
17
17
16
17
17
17
17
17
16
17
17
17
17
17
17
17
17
17
17
17
18
17
17
17
17
17
17
17
17
17
17
17
17
17
16
17
16
17
17
18
18
17
17
17
18
18
17
17
18
18
17
17
18
18
17
18
18
18
18
18
18
17
17
18
18
18
18
18
18
17
17
18
17
17
17
17
17
17
17
17
17
17
16
16
16
17
17
16
16
16
16
17
17
17
16
16
16
17
17
17
17
17
17
17
17
17
17
17
17
17
17
17
17
17
16
17
17
17
17
17
17
17
16
17
17
18
17
16
16
17
16
17
17
17
16
16
17
17
17
17
17
17
16
17
17
17
17
17
15
16
15
16
16
15
15
14
14
15
15
15
14
14
13
14
13
14
13
13
12
12
11
12
11
11
9
9
9
8
8
7
7
5
5
4
4
3
3
2
2
2
1
1
2
2
2
2
2
3
3
4
4
4
4
5
6
6
7
7
7
7
8
9
9
9
9
9
9
9
9
9
10
9
10
9
10
10
11
10
10
10
11
11
12
11
12
13
12
13
15
14
14
15
15
16
17
18
18
17
18
18
18
19
19
19
19
19
19
19
20
20
20
20
20
20
21
21
21
20
20
20
20
20
21
21
21
20
20
20
21
20
20
20
20
20
20
20
21
20
20
20
20
21
20
21
21
20
20
20
20
21
21
21
20
20
20
20
20
19
19
19
20
20
20
19
19
19
19
20
20
20
21
20
21
21
23
23
24
24
25
25
26
27
27
28
28
28
28
29
29
28
28
25
24
22
20
17
13
9
5
0
-5
-10
-16
-23
-30
-37
-44
-51
-59
-66
-74
-82
-90
-97
-104
-110
-116
-121
-125
-128
-131
-133
-133
-133
-132
-129
-127
-121
-116
-111
-104
-97
-89
-81
-72
-63
-54
-45
-36
-28
-19
-11
-3
4
11
17
22
27
33
37
41
43
46
48
50
51
53
53
53
52
52
51
51
49
48
47
46
45
42
41
39
37
35
34
32
32
30
28
26
25
25
24
24
22
21
21
20
20
19
19
19
19
18
18
19
18
19
18
18
18
17
18
18
18
17
18
17
18
18
18
18
17
17
17
17
18
17
17
16
16
16
16
16
16
16
15
16
15
16
16
15
15
16
15
15
15
15
15
15
15
15
15
16
15
15
15
14
14
15
15
15
14
14
14
14
15
14
13
14
13
14
14
13
14
13
13
13
13
13
13
13
12
12
12
13
13
13
12
12
12
13
13
13
12
12
12
13
13
13
13
12
13
12
13
13
12
13
11
11
11
11
11
11
11
10
10
10
10
10
11
10
9
8
9
10
9
8
8
8
8
8
8
8
8
7
7
7
7
7
7
7
7
6
6
6
7
6
6
6
5
6
5
6
6
4
4
4
4
5
5
4
3
3
3
2
3
3
3
1
2
1
2
2
0
0
0
0
-1
-1
-1
-2
-3
-3
-3
-3
-4
-4
-5
-5
-6
-7
-6
-8
-8
-9
-10
-10
-11
-11
-12
-12
-13
-14
-14
-15
-15
-16
-17
-18
-19
-20
-20
-20
-21
-22
-23
-24
-24
-25
-25
-26
-27
-27
-28
-28
-28
-30
-31
-31
-32
-32
-32
-33
-34
-35
-35
-36
-37
-36
-37
-38
-39
-39
-39
-40
-40
-40
-41
-41
-41
-41
-41
-41
-42
-42
-42
-43
-42
-42
-41
-42
-42
-42
-41
-41
-39
-40
-39
-39
-38
-37
-35
-35
-34
-34
-33
-31
-30
-28
-27
-26
-26
-25
-23
-22
-20
-20
-19
-17
-16
-15
-13
-12
-11
-10
-9
-8
-6
-6
-4
-3
-2
-1
0
1
2
2
4
4
4
6
7
7
8
8
8
9
10
11
11
12
11
12
12
13
13
14
14
13
14
14
14
15
15
15
15
15
16
16
17
16
17
16
17
18
19
19
18
19
19
19
19
20
19
19
19
20
20
20
21
20
20
20
20
21
20
20
20
19
20
20
20
20
20
20
20
20
20
21
21
20
20
19
20
20
20
20
20
19
20
20
20
20
20
20
19
19
20
21
20
20
20
19
20
20
21
20
19
19
19
20
20
20
20
19
20
19
20
20
20
20
20
19
20
20
20
20
20
20
19
20
20
20
20
20
20
20
20
20
20
20
20
20
19
20
21
21
21
20
19
20
20
21
20
20
21
20
21
21
21
21
21
20
21
21
22
21
20
21
21
20
21
21
21
20
20
20
21
20
21
21
20
20
20
21
21
20
21
21
21
21
21
21
21
21
21
21
21
21
21
22
21
21
21
22
22
22
21
21
20
21
22
22
22
21
21
22
22
22
22
21
21
21
21
21
22
22
22
21
21
21
21
22
21
21
21
21
21
21
21
22
20
21
20
20
21
20
20
20
20
21
20
21
21
20
20
20
20
21
21
20
20
21
20
22
21
21
21
20
20
21
21
22
22
21
21
22
22
22
22
22
22
21
22
22
23
23
23
22
22
23
23
23
23
23
22
23
23
23
23
24
23
23
23
24
24
24
23
22
23
23
24
24
24
24
23
23
24
24
24
24
24
23
23
24
24
24
23
23
23
23
23
24
23
23
23
23
24
24
24
24
23
24
24
25
24
24
24
25
24
24
25
25
25
24
24
24
25
25
25
25
24
23
24
25
24
25
24
23
24
24
25
24
24
23
24
23
24
24
24
23
23
23
23
23
24
23
22
22
22
23
23
23
23
22
22
22
22
23
23
23
22
22
22
22
23
23
23
22
22
22
22
23
23
23
23
23
23
24
24
23
23
23
24
24
25
25
25
24
24
24
25
25
24
24
24
24
24
25
25
24
23
23
24
24
24
24
23
23
23
23
23
24
24
23
23
23
24
24
24
23
23
24
23
24
24
24
24
24
23
23
24
24
24
24
23
23
23
23
23
24
23
23
23
24
23
24
23
23
22
23
23
23
23
22
22
22
22
22
21
22
21
20
21
20
21
20
20
19
20
19
20
19
20
19
18
19
18
18
18
18
17
16
16
16
16
16
14
13
13
13
12
12
11
10
9
9
9
9
9
9
9
9
9
9
10
10
10
10
11
11
12
13
13
13
13
13
14
15
15
15
14
15
15
16
16
16
16
15
15
16
16
17
17
17
17
17
18
19
20
19
20
20
20
21
21
22
22
22
22
22
23
24
23
24
24
24
24
25
25
25
25
25
26
26
26
26
26
25
26
26
26
27
26
26
26
26
26
26
27
27
26
27
26
28
27
27
27
27
27
27
28
28
28
27
28
27
28
28
28
29
27
28
27
28
28
28
27
27
27
28
28
28
27
27
27
27
27
28
28
28
28
27
28
27
28
28
28
28
28
30
30
31
31
31
32
33
34
35
36
36
36
36
37
37
37
37
36
35
33
32
30
28
24
21
16
11
8
3
-3
-9
-15
-22
-30
-36
-44
-51
-60
-67
-75
-83
-90
-95
-101
-108
-112
-116
-119
-120
-122
-122
-122
-120
-118
-114
-110
-105
-99
-92
-86
-77
-69
-61
-52
-44
-36
-27
-18
-11
-2
5
11
17
23
29
35
39
43
46
49
52
55
56
58
58
59
59
60
60
59
59
58
56
55
55
54
51
49
47
46
45
43
42
40
38
38
37
35
35
34
33
32
31
30
30
30
29
29
29
29
29
29
28
29
29
28
29
29
29
29
29
28
28
28
29
29
29
28
28
28
28
29
29
28
28
27
28
29
28
29
28
28
27
27
28
27
27
27
26
26
26
26
27
26
26
25
25
25
26
26
26
26
25
26
26
26
26
26
26
26
26
27
26
26
26
26
26
26
26
26
26
26
25
25
26
25
25
25
25
25
24
24
25
25
24
24
24
24
25
24
25
24
24
24
24
25
24
24
23
24
24
24
24
24
23
23
24
23
23
23
23
22
22
22
23
22
23
22
22
21
21
22
22
21
21
20
20
20
20
20
20
20
19
20
20
20
19
19
18
18
18
19
18
18
18
17
17
18
18
17
18
17
16
17
16
17
16
16
14
15
15
15
15
14
13
12
12
12
12
12
10
10
10
10
9
9
9
8
7
7
7
6
6
5
4
4
3
2
3
2
1
0
-1
-1
-1
-2
-3
-4
-4
-6
-6
-6
-6
-7
-8
-9
-9
-9
-11
-10
-12
-12
-13
-13
-14
-15
-15
-16
-17
-18
-19
-19
-19
-20
-21
-21
-22
-23
-23
-24
-24
-25
-25
-26
-26
-27
-27
-27
-28
-29
-29
-29
-29
-30
-31
-31
-31
-32
-31
-31
-31
-32
-32
-31
-31
-32
-31
-31
-31
-31
-31
-30
-29
-29
-29
-27
-27
-26
-25
-23
-23
-22
-21
-20
-18
-17
-17
-15
-14
-14
-12
-10
-9
-8
-7
-6
-5
-3
-2
0
1
2
3
4
5
7
7
7
8
9
10
11
13
14
14
14
15
16
17
18
19
20
20
21
22
23
24
24
23
24
24
25
26
26
26
27
26
27
27
28
28
28
28
28
28
29
29
29
29
29
29
30
30
30
30
30
30
30
30
31
30
30
31
31
31
32
32
32
31
31
32
32
32
32
32
31
32
32
33
33
32
32
31
32
32
32
32
32
31
32
31
31
32
32
31
32
31
32
32
32
32
32
32
32
32
32
32
32
31
31
32
32
32
32
31
32
32
32
33
32
32
32
32
32
32
32
32
32
31
32
32
32
32
31
31
32
32
32
32
32
32
32
32
32
32
33
33
32
32
32
33
33
33
33
33
32
33
33
34
33
34
33
33
33
33
33
34
33
33
33
33
33
34
33
33
32
33
33
33
33
33
32
33
32
33
33
33
33
32
33
32
32
33
33
32
33
32
33
33
33
33
33
32
33
33
34
33
32
33
33
33
33
34
33
33
33
33
34
34
35
34
34
33
34
34
35
34
33
33
33
34
34
34
33
33
33
33
33
34
33
33
33
33
33
33
33
33
32
32
32
33
33
33
33
32
32
32
32
33
32
33
33
32
31
33
32
33
32
32
32
32
33
33
33
33
33
33
33
33
34
34
33
34
33
35
35
35
34
34
34
34
35
35
35
35
34
35
35
35
35
35
35
34
34
35
34
34
34
33
33
34
34
34
34
33
33
33
33
34
34
34
33
33
33
34
34
34
33
33
33
34
34
34
34
33
33
33
33
34
35
34
34
33
34
34
34
34
33
33
34
34
34
34
34
33
34
33
34
34
34
35
34
34
34
35
34
35
34
34
34
34
34
35
35
34
33
34
35
34
34
34
34
33
33
33
34
33
32
33
32
33
33
34
33
32
32
33
33
34
33
33
32
33
32
33
34
34
33
33
33
34
34
34
34
34
33
33
33
34
35
34
34
33
34
34
35
34
34
34
34
34
34
35
34
34
34
34
35
35
36
35
35
34
35
35
35
35
35
34
34
35
34
35
34
34
33
34
34
34
34
35
34
34
34
35
34
35
34
34
34
34
35
34
35
35
34
34
35
35
36
35
35
34
35
36
36
36
35
36
35
35
36
35
36
36
35
36
36
36
36
35
35
35
35
35
36
35
35
35
34
35
35
36
35
34
34
34
35
35
35
35
34
35
34
35
35
36
35
35
35
35
35
36
35
35
34
34
35
35
36
35
35
35
35
35
35
35
34
34
34
35
35
35
35
34
34
34
35
35
35
36
36
35
35
35
36
37
36
36
35
36
37
36
37
37
36
36
37
37
37
37
36
35
36
35
36
36
35
34
35
35
34
34
34
34
33
33
34
33
34
34
32
32
33
33
33
32
32
31
31
31
31
31
30
29
29
28
28
28
27
26
25
24
24
23
23
23
21
21
20
21
20
20
20
20
20
20
20
21
21
21
22
22
23
24
25
25
25
25
26
26
27
27
27
27
27
27
27
28
28
28
28
27
28
28
29
28
29
28
29
29
30
30
30
30
31
32
32
33
34
34
34
34
34
36
36
36
36
36
36
36
38
38
37
38
37
38
38
39
39
40
39
39
39
39
40
40
40
39
40
39
40
40
40
40
39
39
39
39
39
40
40
39
39
39
40
40
39
39
38
39
39
39
39
39
38
38
39
39
39
40
39
39
38
39
39
39
39
39
39
39
39
39
39
39
40
39
40
41
41
42
41
42
43
44
44
45
45
46
46
47
47
49
48
49
49
49
48
48
48
47
44
41
39
36
33
28
24
18
13
8
1
-5
-12
-21
-28
-36
-44
-51
-60
-68
-76
-84
-90
-97
-103
-108
-112
-116
-119
-121
-121
-120
-120
-118
-115
-111
-105
-98
-91
-83
-76
-67
-58
-48
-38
-29
-20
-11
-2
7
15
23
29
36
42
47
53
57
61
64
66
68
70
71
72
72
72
72
71
71
70
69
66
64
63
62
60
58
57
55
52
50
49
47
47
45
43
42
41
41
40
39
39
38
37
37
37
37
37
37
36
37
36
36
37
36
36
36
36
36
37
37
36
36
36
36
36
37
37
37
36
36
36
36
37
37
36
36
35
36
36
35
36
35
35
35
35
36
35
35
34
34
34
34
35
34
34
33
33
34
35
34
35
35
34
34
34
35
34
34
33
34
33
34
33
33
33
33
33
33
33
33
33
32
32
32
32
32
32
32
32
32
32
32
33
32
32
31
31
31
32
31
32
32
31
31
31
32
32
31
31
30
31
31
31
31
31
30
30
30
30
31
30
30
29
29
30
30
30
30
30
30
29
29
30
29
29
29
29
29
29
28
29
28
28
28
27
28
28
28
27
27
27
27
27
27
25
25
24
25
25
25
25
24
23
23
24
23
23
23
22
22
22
22
22
21
21
21
20
20
20
20
19
18
18
18
17
18
18
17
17
15
15
15
14
14
14
13
12
12
12
11
10
9
9
8
7
7
7
6
5
3
3
3
3
1
0
-1
-1
-1
-2
-3
-4
-5
-6
-6
-6
-7
-7
-8
-9
-10
-10
-11
-11
-12
-13
-14
-14
-14
-15
-16
-16
-17
-18
-18
-18
-18
-19
-20
-21
-21
-22
-21
-21
-22
-23
-23
-24
-24
-25
-24
-24
-26
-26
-25
-26
-25
-25
-25
-25
-24
-24
-24
-22
-23
-22
-21
-20
-20
-18
-17
-17
-16
-15
-14
-13
-11
-10
-9
-8
-7
-5
-5
-2
-2
-1
0
2
4
5
7
8
9
10
11
13
14
15
16
17
18
19
21
22
23
23
24
24
25
26
27
28
27
28
28
30
30
31
31
31
31
31
32
33
34
33
34
34
34
36
36
36
36
36
36
37
37
38
37
38
37
38
39
39
39
39
39
39
39
39
40
40
40
39
40
40
40
40
40
40
41
40
40
41
41
40
40
40
40
41
41
41
40
40
40
41
41
41
41
41
40
40
40
41
41
41
40
40
40
41
40
41
39
40
40
40
41
40
41
41
40
39
41
40
40
40
39
39
40
40
41
40
40
41
40
41
41
41
41
41
41
41
42
42
43
42
42
42
42
42
43
43
42
43
42
43
43
43
44
43
43
43
43
43
43
42
42
42
42
43
42
42
42
42
42
42
42
42
43
42
42
42
42
42
43
42
42
42
42
42
43
42
41
41
42
42
43
42
42
41
41
41
42
42
41
41
41
41
41
41
41
42
41
41
42
42
42
42
42
41
42
41
42
42
42
42
41
41
41
41
42
42
41
41
41
42
42
42
41
41
41
41
41
41
41
41
41
41
41
41
41
40
40
41
41
41
41
42
41
41
40
41
41
42
42
42
41
41
41
41
42
41
41
41
41
42
42
42
42
42
41
41
42
42
42
41
41
41
42
42
42
42
41
41
41
42
42
42
42
42
41
42
42
42
43
42
42
42
41
42
43
42
41
42
42
42
43
42
42
42
42
42
42
43
42
42
41
41
42
42
42
43
42
41
42
43
43
42
42
42
42
42
42
42
42
42
42
42
42
42
42
42
42
41
41
41
42
41
42
41
41
41
41
42
42
41
41
40
40
41
41
41
41
40
41
41
42
41
41
41
40
41
41
42
41
41
41
40
41
41
41
41
41
40
40
40
41
40
41
40
40
39
40
40
41
40
40
40
40
41
41
41
40
40
40
40
41
42
41
41
40
41
41
41
41
41
40
40
41
41
41
41
40
40
40
40
41
41
41
41
40
40
40
41
41
41
40
40
40
40
41
41
41
40
41
41
41
41
42
40
41
41
41
41
41
41
41
41
40
41
41
41
40
40
40
41
41
41
42
41
41
41
42
41
41
41
41
41
41
42
41
42
42
41
41
41
42
42
42
42
41
42
42
42
42
41
41
41
41
41
42
41
41
41
41
41
42
41
42
40
41
40
41
41
41
41
41
40
40
41
42
41
41
40
40
40
40
41
41
41
40
41
41
41
41
41
40
41
40
41
41
41
40
41
41
41
42
42
41
41
41
41
41
42
41
41
40
40
40
41
41
41
40
40
40
40
41
41
41
39
39
39
40
40
39
39
39
38
38
38
38
38
38
37
37
37
38
38
37
37
36
36
36
36
36
35
35
34
34
33
33
33
32
31
30
30
30
29
28
26
26
26
25
25
25
24
23
23
24
24
24
23
24
24
24
25
25
27
27
27
27
27
28
29
29
29
29
29
29
30
30
30
30
29
30
31
31
31
30
30
31
31
32
32
33
32
32
33
34
34
35
35
35
35
36
37
37
38
38
38
38
39
40
40
40
40
39
39
40
40
41
41
41
40
41
41
42
41
42
41
41
42
42
42
42
42
41
41
42
42
43
42
42
42
42
43
43
43
43
42
42
42
43
42
42
42
41
42
41
42
43
42
42
41
41
41
42
42
42
42
42
41
41
42
43
42
42
41
42
42
43
42
42
42
43
43
44
43
44
44
44
46
47
47
48
48
49
49
49
50
51
51
51
51
50
50
49
47
45
42
40
36
33
29
24
19
13
7
1
-5
-12
-19
-27
-35
-43
-51
-58
-66
-73
-81
-88
-94
-99
-103
-107
-110
-112
-114
-113
-112
-110
-108
-105
-100
-94
-88
-79
-72
-64
-55
-47
-37
-28
-19
-10
-2
6
14
22
30
36
42
47
52
56
60
64
67
69
70
72
73
75
75
75
75
74
73
72
72
70
68
67
65
63
62
60
58
57
55
53
52
50
49
48
47
45
45
44
44
43
42
42
41
41
41
41
41
41
40
40
39
40
40
40
40
39
40
39
40
40
40
40
39
40
40
39
40
40
39
39
39
40
39
39
39
38
38
38
38
39
38
38
37
37
38
38
38
38
37
37
37
37
37
37
37
36
37
36
36
37
37
37
36
36
36
36
36
36
36
36
36
36
37
36
36
35
35
36
36
36
35
35
35
35
36
36
36
35
35
35
35
35
36
35
35
34
34
35
35
35
34
34
34
34
34
34
35
34
33
33
33
33
33
33
32
31
32
31
32
32
31
31
31
30
31
30
30
31
30
29
30
30
30
30
30
29
29
28
29
29
29
29
28
28
29
28
28
28
27
27
27
28
27
28
26
26
26
26
26
26
26
26
25
25
24
25
25
25
23
23
23
23
23
22
22
22
21
21
20
20
20
18
18
18
18
18
17
17
16
15
15
15
14
14
13
11
11
11
10
11
9
8
7
6
6
6
5
4
4
2
2
2
1
1
0
-1
-2
-3
-3
-3
-4
-6
-7
-7
-7
-7
-8
-9
-10
-10
-12
-12
-12
-12
-13
-14
-15
-16
-16
-16
-17
-18
-18
-19
-18
-18
-19
-19
-20
-20
-21
-21
-21
-22
-22
-23
-23
-23
-24
-23
-23
-23
-24
-24
-24
-23
-23
-23
-23
-23
-22
-21
-20
-19
-19
-19
-18
-17
-16
-14
-13
-13
-12
-11
-9
-7
-6
-5
-5
-4
-2
-1
0
2
3
3
4
6
7
8
9
10
11
12
13
15
15
16
17
18
19
20
21
22
22
22
23
23
24
26
26
26
26
27
28
28
28
29
29
29
29
31
31
31
31
31
31
31
32
32
33
32
33
32
34
34
34
34
34
34
34
34
34
35
34
34
34
35
35
36
35
35
35
35
35
36
36
36
35
36
36
37
37
37
37
37
37
36
36
37
37
37
36
37
37
37
37
36
36
37
36
36
37
37
37
37
37
36
37
37
37
37
37
37
37
38
37
37
37
37
37
37
38
37
36
37
36
37
37
37
37
37
36
36
37
37
38
37
37
37
36
37
37
37
37
37
37
36
36
37
37
36
37
37
37
37
37
37
37
36
36
36
37
37
37
36
35
36
36
36
35
35
34
34
34
35
35
35
34
34
34
34
35
35
35
34
34
34
34
35
34
34
34
34
35
35
35
35
35
34
35
35
35
35
35
34
35
35
35
35
35
35
35
35
35
35
35
36
35
35
35
35
36
35
36
35
34
35
35
36
35
35
35
35
35
36
36
35
35
34
35
35
35
35
35
34
35
34
34
35
35
35
34
34
34
35
35
35
34
34
34
35
35
35
35
35
35
35
35
35
35
35
35
34
36
36
36
35
35
35
35
35
36
36
35
35
35
36
36
35
36
34
35
34
35
35
36
36
35
34
35
36
35
35
35
35
35
36
36
35
36
35
35
35
35
36
36
36
36
35
35
36
35
36
35
34
34
35
36
36
36
35
36
36
36
36
36
37
36
36
36
36
37
36
36
36
36
36
37
36
36
36
36
36
36
36
36
37
35
36
35
37
36
36
36
36
36
36
36
36
35
35
36
35
35
35
35
36
35
35
35
35
35
35
35
34
35
34
35
35
35
35
34
35
35
35
36
35
35
34
35
36
35
35
35
35
35
35
36
35
36
36
35
36
36
36
36
37
36
36
36
37
37
37
37
37
37
38
38
37
38
38
37
37
39
38
39
38
38
37
38
38
38
38
38
38
37
37
37
37
37
37
37
37
37
38
38
38
37
37
37
38
37
38
37
37
36
37
37
37
37
37
36
36
36
37
37
37
36
36
36
36
36
35
35
35
34
34
34
34
34
34
34
34
34
34
34
34
33
33
33
33
33
33
32
31
30
31
30
30
29
29
27
27
26
26
25
24
23
23
22
22
22
21
21
21
20
21
21
21
21
21
21
22
23
24
24
24
25
25
25
26
26
27
27
27
27
27
28
28
28
27
28
28
28
28
29
28
28
29
28
29
30
30
30
30
30
31
31
31
32
32
33
32
33
35
34
35
34
35
35
35
36
36
36
36
36
37
37
37
37
36
36
36
37
37
37
37
37
36
37
37
37
37
36
37
37
37
38
37
37
37
37
37
38
38
38
38
37
37
37
38
39
38
37
37
37
38
38
38
37
37
38
38
38
38
38
38
38
37
38
38
38
38
37
37
37
38
38
37
37
36
37
37
37
38
38
38
38
38
40
41
41
42
42
42
43
44
45
45
46
46
45
45
46
45
45
44
42
40
37
34
31
28
23
19
14
8
3
-3
-9
-17
-24
-31
-38
-45
-52
-60
-67
-75
-82
-87
-93
-98
-102
-106
-108
-110
-111
-110
-109
-108
-105
-102
-96
-90
-84
-78
-70
-62
-54
-46
-38
-29
-21
-14
-6
2
9
17
22
27
32
38
42
46
50
53
56
58
59
61
62
64
64
64
64
64
63
63
62
60
60
58
57
56
55
53
51
49
48
47
45
44
42
41
40
40
39
38
37
36
35
35
36
35
35
34
34
33
33
34
34
33
33
33
33
33
33
33
33
32
32
32
32
32
32
32
32
32
32
32
31
32
31
31
31
31
31
31
31
30
31
31
31
31
31
31
31
30
31
31
30
31
31
30
29
30
30
30
30
30
29
29
29
30
29
30
29
29
28
29
29
29
29
29
28
28
29
28
28
28
27
27
28
28
28
28
27
28
27
28
28
27
27
27
27
27
27
27
27
27
27
26
26
27
27
27
26
26
26
27
26
26
26
26
26
26
27
27
26
26
26
25
26
26
26
26
24
25
24
25
24
25
25
23
23
23
23
23
23
22
21
22
22
22
22
21
21
20
20
20
20
20
20
20
19
19
19
19
18
18
18
17
18
18
18
18
17
16
17
17
17
16
16
16
15
15
15
14
14
13
12
12
13
12
12
12
11
10
10
9
9
9
7
7
6
5
6
5
5
4
3
3
2
2
2
1
0
-1
-2
-2
-2
-3
-4
-5
-5
-6
-6
-7
-7
-9
-10
-10
-10
-10
-11
-12
-13
-14
-14
-15
-15
-15
-16
-17
-17
-18
-18
-19
-19
-20
-21
-21
-21
-21
-21
-22
-22
-24
-24
-23
-24
-24
-24
-25
-25
-26
-25
-25
-25
-25
-26
-25
-25
-24
-24
-23
-24
-24
-22
-21
-21
-20
-19
-19
-18
-17
-16
-15
-14
-13
-13
-11
-11
-9
-7
-6
-6
-5
-3
-2
0
0
1
3
3
4
6
7
8
8
10
11
13
14
15
15
16
16
17
18
19
20
20
20
21
22
23
24
25
24
25
26
27
28
28
28
28
28
29
30
30
30
31
30
30
30
32
31
31
31
31
32
32
32
32
32
32
31
32
32
33
33
32
32
32
32
33
33
33
32
32
32
33
33
33
33
32
32
32
32
33
32
33
32
32
32
32
33
32
32
33
32
32
33
34
33
33
33
32
33
33
33
33
32
32
33
33
33
34
33
33
32
33
33
34
34
33
33
33
34
33
34
33
33
33
33
33
33
33
33
32
33
33
34
34
33
33
32
33
33
33
33
33
32
33
32
33
33
33
33
32
33
33
33
33
33
32
32
32
33
33
32
32
32
31
32
32
32
32
32
31
32
32
32
32
32
32
31
32
33
32
32
32
31
32
32
32
32
33
33
32
32
32
32
33
32
32
31
32
32
31
31
31
30
30
31
31
31
31
31
30
31
31
32
32
31
31
30
31
31
32
31
31
30
31
31
31
31
31
31
31
31
31
31
31
32
30
31
31
32
31
32
31
30
31
31
32
31
31
30
31
30
30
31
31
31
31
30
31
31
30
31
30
30
30
30
31
30
30
30
30
30
30
30
30
31
30
30
30
31
31
31
30
30
30
30
31
32
31
31
30
31
31
31
31
31
31
31
32
32
31
32
31
31
31
32
32
32
31
31
31
31
31
32
32
32
32
31
31
32
31
31
31
30
30
31
31
31
31
31
30
30
31
32
32
31
31
31
30
31
32
32
31
31
31
31
31
32
31
31
30
31
31
32
32
31
31
31
31
31
32
32
31
31
31
30
31
32
31
31
31
31
31
32
32
32
31
31
32
32
32
32
31
31
31
32
32
32
31
31
31
31
31
31
31
32
31
31
31
31
31
31
31
31
31
30
30
31
31
31
31
31
31
31
31
32
31
31
31
32
31
31
31
30
31
31
32
31
31
30
31
30
31
31
31
31
30
30
30
30
31
31
31
30
30
30
30
31
31
30
30
31
31
31
31
31
30
31
30
30
31
31
31
30
31
30
30
31
30
30
30
30
30
30
30
30
30
30
30
30
31
30
30
29
30
30
31
30
30
30
30
30
30
30
30
31
31
30
30
30
30
30
30
30
29
30
30
30
30
30
29
30
30
31
30
30
29
29
29
30
31
30
29
29
29
30
30
30
29
30
29
30
29
30
30
29
29
30
30
30
30
30
29
29
29
29
29
29
29
29
29
29
28
29
29
28
27
27
28
28
28
27
27
27
26
26
27
26
26
26
25
26
27
26
26
25
25
24
24
24
24
23
21
21
20
20
19
19
18
16
16
16
15
15
15
14
14
13
14
14
14
14
14
13
14
14
15
15
16
16
17
17
18
18
19
19
19
19
19
20
20
20
20
19
19
19
19
20
20
20
20
20
20
21
21
22
22
22
22
24
24
24
24
25
24
25
26
26
27
26
26
27
27
28
28
28
28
28
28
28
29
29
29
28
28
28
30
29
30
29
29
29
30
30
30
31
30
30
30
31
31
32
31
31
31
31
31
32
31
31
32
31
32
32
32
31
31
31
31
31
31
31
31
30
30
31
31
31
30
30
30
30
31
31
31
30
30
30
30
30
31
31
31
30
30
31
32
32
32
32
32
33
34
35
36
36
36
37
38
38
40
40
40
39
39
39
39
37
36
34
32
29
26
23
18
13
9
3
-3
-8
-15
-22
-30
-38
-45
-53
-61
-69
-77
-85
-92
-100
-105
-111
-116
-120
-123
-126
-128
-128
-128
-126
-124
-121
-116
-111
-104
-97
-89
-82
-73
-64
-54
-45
-35
-26
-18
-9
-1
7
15
22
28
33
38
43
47
52
54
57
58
60
60
62
62
61
62
61
60
59
58
56
54
51
50
48
47
46
43
41
39
37
36
35
35
34
32
31
30
30
28
28
28
26
27
26
26
26
26
25
26
25
25
26
27
26
25
25
25
25
25
25
25
25
25
24
24
25
24
24
24
24
24
24
24
24
23
23
22
23
24
23
23
22
22
23
23
23
22
22
22
22
23
23
23
22
22
23
22
22
23
22
22
23
22
22
23
22
22
21
22
22
22
22
22
22
22
21
21
21
21
21
20
21
20
20
21
21
20
20
20
20
20
21
20
20
19
19
19
20
20
20
19
18
18
19
18
19
18
18
17
17
17
18
18
17
17
16
16
17
17
16
16
16
16
16
16
17
16
16
16
15
16
16
17
16
16
15
15
15
16
15
15
14
14
14
15
14
14
14
13
13
13
13
13
13
12
12
11
12
11
12
10
10
10
10
10
10
10
8
8
8
7
8
8
7
6
5
5
6
6
5
4
4
3
3
3
3
2
2
1
0
1
0
0
-1
-2
-2
-3
-3
-3
-4
-5
-6
-7
-7
-7
-8
-8
-9
-11
-11
-12
-12
-13
-13
-15
-15
-16
-17
-17
-18
-19
-20
-21
-22
-22
-23
-23
-25
-25
-26
-27
-27
-28
-28
-29
-30
-30
-30
-30
-32
-33
-32
-33
-34
-34
-34
-34
-35
-36
-37
-36
-37
-37
-38
-38
-38
-39
-38
-39
-39
-39
-39
-39
-39
-38
-38
-38
-38
-37
-37
-36
-35
-35
-34
-34
-33
-32
-31
-30
-29
-28
-27
-26
-25
-23
-22
-22
-20
-19
-18
-17
-15
-14
-13
-12
-11
-9
-8
-6
-6
-5
-5
-3
-2
0
0
1
2
2
3
5
6
6
8
8
9
9
10
11
12
12
12
12
13
15
15
15
16
16
16
16
18
18
18
18
18
18
20
20
20
20
20
20
21
21
21
21
21
21
21
22
22
22
22
22
22
21
22
22
22
21
22
22
21
22
22
22
22
22
22
23
23
23
23
22
23
23
23
23
23
23
23
23
23
23
24
23
23
22
22
22
23
23
23
22
22
23
23
23
23
23
22
22
23
23
23
24
23
22
23
24
24
24
24
24
23
24
24
25
24
23
23
23
23
24
23
24
24
23
22
23
23
24
24
23
22
23
23
24
23
23
22
22
23
23
24
24
23
23
23
24
24
24
24
23
24
23
23
24
24
24
24
24
23
24
24
24
24
23
23
24
24
24
23
23
23
23
23
24
24
24
23
24
23
23
24
23
23
22
23
24
24
24
23
23
23
24
24
24
24
24
23
23
24
24
23
23
23
23
23
23
23
24
24
23
23
23
24
23
23
23
23
23
23
23
23
22
22
23
22
22
23
23
23
23
22
22
23
23
23
23
23
23
23
24
24
23
23
23
23
23
24
25
24
24
23
24
24
24
24
24
23
23
23
23
24
23
23
23
23
24
24
24
24
23
23
24
24
24
24
23
23
23
23
24
25
24
24
23
24
24
24
24
24
24
24
24
25
24
25
24
24
24
23
25
25
24
24
24
24
24
24
24
24
23
24
23
25
24
24
24
23
24
23
23
24
24
24
23
24
24
24
24
23
23
23
23
23
23
23
23
22
22
23
23
23
23
22
22
22
22
23
23
23
23
23
22
23
23
24
23
23
23
23
24
23
23
22
23
23
23
23
23
23
23
22
23
23
23
23
22
22
22
23
23
22
22
22
22
22
22
22
23
23
22
23
22
23
23
23
22
23
22
23
23
23
23
22
22
22
23
23
23
23
22
22
22
23
23
23
22
22
22
23
23
22
23
22
22
22
22
23
23
23
23
22
22
23
23
23
22
22
22
23
23
23
22
22
23
22
23
23
23
23
22
23
22
23
24
23
22
22
22
23
23
23
23
22
23
22
22
23
23
22
22
22
22
22
23
22
22
21
21
22
22
22
21
21
22
21
22
22
22
21
21
21
22
22
22
22
22
22
21
22
22
23
22
22
22
22
22
23
23
23
23
22
23
23
23
23
22
23
22
22
23
23
23
22
22
22
22
23
23
22
22
21
22
22
23
22
22
21
21
22
22
22
21
21
22
21
22
22
22
21
21
21
21
22
22
22
22
21
22
21
22
21
22
21
22
22
22
23
23
22
22
21
22
21
22
22
22
20
21
21
21
20
20
20
19
19
20
19
19
19
19
18
19
18
19
18
18
17
17
17
17
17
16
15
14
14
14
13
14
12
11
10
9
10
8
8
7
6
6
5
6
5
6
4
5
5
5
6
6
6
6
6
7
7
9
9
9
9
9
10
10
11
12
11
11
12
12
13
12
12
12
12
13
13
13
13
13
13
14
13
14
15
14
15
14
15
17
17
18
18
18
19
19
21
21
21
21
21
21
21
22
23
22
22
22
23
23
23
24
23
23
23
24
24
24
24
23
24
23
23
23
24
24
24
23
23
24
24
24
23
23
24
23
23
24
24
24
23
24
23
23
24
24
23
23
23
24
24
23
24
23
23
23
24
24
24
23
23
23
23
23
23
23
23
23
22
23
23
23
23
23
23
23
23
24
25
24
24
25
27
28
28
29
29
29
30
31
32
33
32
31
31
32
31
29
28
25
22
18
15
12
7
1
-4
-11
-16
-23
-30
-37
-45
-54
-62
-70
-78
-86
-94
-101
-110
-116
-122
-126
-130
-133
-136
-138
-138
-138
-135
-133
-129
-124
-119
-113
-104
-96
-89
-80
-71
-61
-51
-42
-32
-24
-15
-6
1
10
17
23
29
34
38
43
46
49
52
53
54
56
57
57
58
57
55
54
53
52
51
49
48
45
43
42
40
39
38
35
33
31
30
29
28
27
25
25
24
23
24
23
22
22
22
21
21
22
21
21
21
21
21
22
22
21
20
21
20
21
21
21
20
20
20
20
20
21
20
19
19
19
19
19
19
18
18
17
18
19
18
18
18
17
18
17
17
18
17
17
16
17
16
17
16
17
16
16
16
16
17
16
16
16
16
16
16
17
16
16
16
15
16
16
16
17
15
15
15
16
16
16
16
16
15
15
16
15
15
15
14
14
15
15
14
14
14
13
13
13
13
13
13
13
13
13
13
13
13
13
12
13
12
12
12
13
12
12
12
13
13
13
12
12
12
12
12
12
12
11
11
11
10
11
10
11
10
10
10
10
11
10
10
9
9
8
9
9
9
8
8
7
8
7
7
7
7
6
6
6
6
6
6
6
5
5
5
5
5
4
3
3
3
3
2
2
2
1
1
1
1
0
0
-1
-2
-2
-2
-2
-2
-3
-5
-5
-6
-5
-6
-7
-8
-8
-9
-10
-9
-10
-11
-12
-12
-14
-14
-14
-15
-16
-16
-18
-18
-18
-19
-20
-21
-21
-22
-22
-22
-23
-24
-26
-26
-27
-28
-29
-29
-30
-31
-31
-33
-33
-33
-34
-35
-36
-36
-36
-37
-37
-38
-39
-40
-40
-39
-40
-40
-41
-41
-42
-42
-42
-42
-43
-43
-44
-43
-43
-43
-43
-42
-43
-44
-43
-42
-41
-41
-41
-41
-40
-40
-39
-38
-37
-37
-37
-36
-35
-33
-33
-32
-31
-30
-29
-27
-26
-24
-23
-23
-22
-20
-18
-17
-16
-15
-14
-13
-11
-9
-8
-7
-7
-5
-4
-2
-1
-1
1
1
1
2
4
6
5
6
7
8
9
10
11
11
11
11
12
13
14
15
15
14
15
15
17
17
17
17
17
18
19
19
19
19
19
19
19
21
20
20
21
20
20
20
21
21
21
20
21
20
21
21
21
21
21
20
21
21
21
21
20
20
20
21
21
21
21
21
20
21
21
22
22
21
21
21
22
22
22
22
22
21
21
22
22
23
22
22
23
22
22
23
23
23
22
22
23
23
23
23
23
22
22
23
23
23
22
22
23
22
22
23
23
23
23
22
23
23
24
23
23
22
22
23
23
23
24
23
23
22
24
23
24
23
23
22
23
23
24
23
23
23
23
22
23
24
23
23
22
23
23
23
23
23
23
23
23
23
23
23
22
22
22
23
23
23
23
22
22
22
23
23
23
23
23
22
22
23
22
23
22
21
22
22
22
22
22
21
22
21
21
22
22
21
21
22
21
21
22
21
21
21
21
21
22
22
21
21
21
21
21
22
22
21
21
21
21
21
22
21
20
20
20
20
20
20
20
19
19
19
19
20
21
20
20
19
19
20
20
20
19
19
19
20
20
21
20
20
21
20
21
21
22
22
21
22
21
21
22
22
22
22
22
22
22
22
22
21
20
21
22
22
22
21
21
21
21
22
22
22
21
21
21
22
22
23
22
22
22
22
22
23
23
23
22
23
23
24
23
23
23
23
23
23
24
23
23
23
23
23
23
24
24
23
23
22
23
23
23
23
22
23
23
22
23
23
23
22
22
22
23
23
23
22
22
23
22
22
23
22
22
23
22
22
22
22
23
23
22
22
23
22
23
22
22
22
22
22
23
22
23
22
22
22
22
23
22
22
22
22
22
22
23
22
22
21
22
22
22
22
22
21
21
22
22
22
23
21
22
22
23
23
23
23
22
22
22
22
23
22
22
21
22
22
22
22
22
21
21
22
22
22
22
22
21
21
21
21
22
21
21
21
21
21
21
21
21
21
20
21
21
21
21
20
20
20
21
21
20
21
21
20
20
21
21
21
20
20
20
20
20
21
21
21
21
21
21
21
21
22
21
20
20
21
21
22
22
21
20
21
21
22
22
21
21
21
21
22
22
22
22
21
21
21
21
22
21
21
21
20
21
21
21
21
21
21
20
21
21
21
20
20
20
20
21
21
20
20
20
20
20
20
21
21
21
20
20
20
21
20
20
20
20
20
20
20
20
20
20
20
20
20
20
20
20
20
20
21
20
20
19
20
19
20
20
20
20
19
20
20
20
21
21
20
20
20
20
20
20
20
20
19
19
20
20
19
19
19
18
19
19
19
19
18
18
17
18
18
18
18
17
17
17
17
17
17
17
17
16
17
16
17
16
16
15
14
14
14
14
13
12
11
11
10
9
8
8
7
6
6
6
6
6
5
5
4
4
5
6
6
6
6
7
7
7
9
9
9
9
10
11
12
12
12
11
12
12
12
13
12
12
12
11
12
12
12
12
12
12
12
13
14
14
13
14
13
15
15
16
16
16
16
17
18
18
19
19
19
19
19
21
21
22
21
21
21
21
22
22
22
22
22
22
23
22
22
