# Simple Text Format
# Sampling Rate (Hz):= 1200.00
# Resolution:= 12
# Labels:= ECG	 V5
# Age:=	23
# Gender:=	Feminino
129
128
126
125
124
122
120
118
116
115
112
110
108
106
104
102
100
99
96
94
91
88
87
85
83
81
79
76
75
73
72
70
68
66
64
62
61
60
59
57
55
54
53
52
51
50
49
47
46
46
45
45
44
43
42
41
41
41
41
41
39
39
39
39
39
39
38
37
37
37
37
37
37
36
36
36
36
36
36
36
34
35
34
34
35
35
34
34
33
34
33
33
32
32
32
32
32
32
32
31
31
30
31
31
32
32
31
31
31
31
31
32
31
31
30
31
31
32
31
31
31
31
31
31
31
31
32
31
31
31
31
31
30
30
30
29
30
30
30
29
29
29
29
29
30
30
29
29
29
30
30
30
30
30
29
29
30
30
31
30
30
29
30
30
31
31
30
30
29
30
30
31
30
30
29
29
30
30
30
29
29
29
29
29
30
30
30
29
29
30
31
31
30
31
30
31
31
31
31
32
31
30
31
31
32
32
31
31
30
30
31
31
31
30
31
30
30
30
31
31
31
30
30
31
31
31
31
30
31
31
31
31
31
31
31
31
31
31
31
31
30
31
30
31
31
31
32
31
31
31
31
32
31
31
31
31
31
31
31
31
31
31
31
32
31
32
31
31
30
31
31
32
31
31
31
31
31
31
31
31
30
31
30
31
31
31
32
30
31
30
31
31
31
30
30
30
31
31
31
30
30
30
30
31
31
31
31
30
30
30
31
30
30
30
29
29
30
30
31
30
30
29
30
30
30
30
30
30
29
30
30
29
30
29
29
29
29
29
30
29
28
28
28
28
29
29
28
28
27
28
28
28
28
28
27
27
28
28
28
28
28
28
28
28
28
29
28
28
28
28
28
29
29
28
28
28
28
29
29
28
28
28
28
28
29
29
29
28
28
29
29
29
29
28
28
28
28
28
28
29
27
28
27
28
28
28
27
27
28
27
27
28
27
27
26
27
26
27
27
27
27
26
27
27
28
28
27
27
27
27
27
28
27
26
27
26
27
26
26
26
25
26
25
25
26
26
25
25
26
25
26
26
26
25
25
25
26
26
26
27
26
26
26
26
27
27
26
26
26
26
27
27
27
26
26
26
25
26
27
26
25
26
26
26
26
26
26
26
26
26
26
26
26
26
25
26
26
27
26
26
26
26
26
26
27
27
26
25
26
25
26
26
26
26
25
24
25
25
25
25
25
24
24
25
26
26
25
25
25
25
25
26
26
26
25
25
26
26
26
25
25
25
25
25
26
25
26
25
25
25
25
26
25
24
24
24
25
25
25
25
25
25
24
24
25
26
25
25
25
25
25
25
26
25
25
25
25
26
26
26
26
26
26
26
27
27
27
26
27
26
27
27
27
27
27
26
26
26
26
26
25
25
25
26
25
26
25
25
24
25
26
25
25
25
26
25
26
26
27
26
26
26
26
27
27
28
28
28
27
28
29
28
29
28
28
27
28
29
29
30
29
29
29
29
30
31
31
30
31
31
31
32
32
32
32
32
33
33
33
34
34
33
34
35
35
35
35
35
34
35
35
36
36
35
36
36
37
37
38
38
38
39
38
40
40
40
40
40
40
41
41
41
41
41
40
40
40
40
40
40
39
38
37
37
37
38
37
37
36
36
36
36
36
35
35
34
35
34
35
34
33
33
33
34
33
34
34
32
33
33
33
33
33
32
32
31
32
32
31
30
30
29
29
29
29
29
29
28
28
28
28
27
27
27
27
27
26
26
27
26
25
25
26
26
26
26
26
25
25
25
26
25
26
25
25
25
25
25
25
25
25
25
25
25
25
25
26
24
25
25
25
25
26
25
25
25
26
26
25
26
25
26
26
26
27
27
27
26
27
27
27
27
27
27
27
27
28
28
28
28
27
27
28
28
28
28
28
27
27
26
26
27
27
26
27
27
27
29
30
32
34
37
39
44
48
53
59
65
71
79
87
96
105
114
125
135
146
158
170
181
193
204
217
228
240
250
260
268
276
283
289
294
298
300
301
300
298
293
287
278
268
258
246
233
220
206
191
177
162
147
132
118
104
90
79
67
58
49
41
35
29
24
21
19
17
16
15
14
14
14
15
16
17
17
17
18
20
21
23
24
24
24
26
27
28
29
30
30
31
31
32
33
34
34
33
33
34
34
34
34
34
33
33
33
33
34
33
33
33
33
33
33
33
33
33
33
33
33
34
33
33
33
33
33
34
34
34
34
34
34
34
35
35
35
34
35
34
35
35
35
35
34
34
35
34
35
35
34
34
35
35
35
35
35
34
35
34
35
35
36
35
35
35
35
36
37
37
37
36
36
37
37
37
38
37
37
37
38
38
38
37
38
38
38
38
39
38
38
39
39
40
40
41
40
40
40
40
40
41
41
41
41
41
42
42
42
42
42
42
41
42
42
42
42
42
42
43
43
43
43
43
42
43
44
44
44
44
44
44
44
45
45
45
45
45
45
45
45
46
46
46
46
47
47
48
49
48
48
48
48
50
50
50
50
51
51
52
52
53
53
53
54
53
55
55
56
56
56
57
57
58
59
60
60
61
61
62
62
63
64
65
64
66
67
68
69
69
70
71
72
74
74
75
76
77
78
79
80
82
82
84
84
86
87
89
89
91
92
93
94
96
97
97
98
99
101
102
103
105
105
107
107
109
110
111
113
113
115
114
116
117
118
120
120
120
121
122
123
125
126
126
126
127
128
129
130
131
131
131
132
132
133
133
134
134
133
134
133
134
133
133
132
131
132
131
130
130
128
128
127
126
125
124
122
120
119
117
116
114
113
110
108
107
105
104
102
100
98
95
93
91
89
87
85
83
81
78
77
75
72
71
68
66
65
63
61
60
57
55
54
53
52
50
48
48
46
45
44
44
43
41
40
39
39
38
39
38
37
35
35
35
35
35
34
32
32
32
32
31
31
31
30
29
30
30
29
30
29
29
29
29
28
28
28
28
27
27
27
27
27
26
25
25
25
25
25
25
24
23
23
23
24
23
22
22
23
22
23
23
23
22
22
23
23
24
23
24
23
23
23
23
24
24
24
22
22
22
23
23
22
22
22
22
22
22
22
22
22
22
21
21
22
22
21
21
20
21
22
21
21
21
21
21
21
22
21
22
21
21
21
21
22
21
21
20
21
20
21
21
21
21
21
21
21
21
21
21
20
21
20
21
21
21
21
20
19
20
21
21
20
20
19
19
19
20
20
20
19
19
20
20
20
20
20
20
19
20
20
21
20
20
20
20
20
21
21
21
21
20
21
22
22
22
22
22
21
22
22
22
22
22
21
21
22
22
23
22
22
21
21
22
22
22
22
20
21
21
21
21
21
21
21
21
21
21
21
21
21
20
20
20
21
21
20
20
19
20
20
20
20
20
19
19
20
20
21
20
20
21
20
21
21
21
21
21
21
21
21
21
20
20
20
20
20
20
20
20
20
19
20
19
20
20
19
19
18
19
19
20
20
18
19
19
18
19
19
19
19
17
18
19
18
18
17
17
17
17
17
17
17
17
17
16
16
16
16
16
16
15
16
16
17
17
16
16
15
15
15
16
16
16
15
15
15
16
16
16
16
16
16
16
16
16
15
15
15
15
15
16
15
15
14
14
15
15
15
15
15
15
15
15
15
15
15
14
15
15
15
15
16
15
15
15
15
15
15
15
15
14
13
13
14
14
13
13
13
14
13
13
14
13
13
12
13
13
14
13
13
13
13
13
13
13
13
12
13
13
13
13
13
13
13
13
14
14
14
14
13
12
13
13
13
13
12
12
12
12
13
13
12
12
11
11
11
11
11
11
11
11
10
11
11
11
11
11
10
11
12
12
11
11
11
11
11
12
12
11
11
11
11
11
11
11
11
11
10
11
12
11
11
11
11
11
11
11
11
11
11
11
11
11
11
11
11
11
11
11
11
12
11
11
10
10
11
11
11
11
11
11
11
11
11
10
11
10
10
10
10
10
10
10
9
9
10
10
10
11
10
10
10
10
10
10
10
9
9
9
9
9
9
9
9
8
8
8
9
8
8
7
7
8
8
8
8
7
7
7
7
8
8
8
8
8
9
9
9
9
9
9
9
11
11
11
11
10
11
11
12
13
13
12
13
13
12
14
14
14
14
14
14
15
15
15
14
14
14
14
15
15
15
15
15
15
14
16
15
15
15
15
16
16
17
17
18
18
18
19
19
19
21
21
20
20
22
22
23
23
22
22
22
22
22
22
22
21
20
20
20
20
19
18
18
17
17
17
18
17
16
16
16
16
15
15
14
14
14
13
14
14
13
13
13
12
13
13
13
13
13
12
12
12
12
11
11
10
10
9
9
10
10
10
8
8
8
8
9
8
8
7
7
7
8
7
7
6
6
6
7
7
7
6
5
6
6
6
7
6
6
6
6
6
6
6
6
5
5
5
5
5
6
5
4
4
5
5
5
5
5
4
4
5
6
6
5
5
5
5
6
6
6
6
6
6
6
7
7
6
6
6
6
6
6
7
7
6
6
6
6
7
6
6
6
6
7
7
7
6
6
6
7
6
7
8
10
10
12
15
18
22
26
29
34
41
48
55
64
72
81
91
101
111
123
135
146
159
170
184
196
208
219
230
240
249
258
266
273
278
282
284
285
286
283
279
272
264
254
244
232
220
207
192
177
162
146
132
116
102
87
73
60
49
40
30
23
15
10
5
1
-1
-3
-5
-5
-7
-6
-5
-5
-4
-4
-4
-3
-2
-1
0
0
0
1
2
3
4
5
5
5
6
7
8
8
9
9
9
9
10
10
11
11
11
11
11
11
12
12
12
11
11
12
12
12
12
12
12
12
12
13
12
12
13
12
12
12
13
13
13
12
13
13
13
12
12
12
12
12
13
13
13
12
12
13
13
13
13
13
13
13
13
14
14
15
15
15
14
15
15
15
15
15
16
15
15
15
15
15
15
15
15
15
16
16
16
16
16
16
16
16
17
17
17
17
17
17
17
18
17
18
18
19
19
19
20
20
19
19
20
20
21
21
20
21
21
21
21
22
21
21
21
22
23
22
22
22
22
22
23
23
24
24
23
24
24
24
25
25
25
25
25
26
26
27
26
26
26
26
27
27
28
28
28
28
29
29
30
30
30
29
29
30
31
32
32
32
31
32
33
33
34
34
34
34
34
35
36
36
36
36
37
37
39
39
40
40
41
41
42
43
44
43
44
45
46
47
48
48
49
50
50
52
53
54
55
56
56
57
59
61
62
62
63
64
66
68
68
70
71
72
73
74
75
77
79
79
80
81
83
84
86
87
87
87
89
90
92
93
94
94
95
96
98
99
100
100
102
102
104
105
106
107
107
108
109
110
110
112
112
112
113
114
114
115
115
116
116
116
116
117
117
117
116
116
116
115
116
115
113
112
112
111
110
108
107
106
104
103
102
99
98
96
94
92
91
88
87
85
82
80
77
75
74
72
70
68
65
62
61
59
57
55
53
51
49
48
47
44
42
40
39
37
36
35
34
32
31
30
29
28
26
26
24
23
23
21
22
20
19
18
17
17
16
15
15
14
13
12
12
12
11
11
10
9
9
8
9
9
8
7
7
7
7
7
7
6
6
6
6
7
6
7
7
6
6
6
6
6
6
5
5
6
6
7
7
6
6
6
6
7
6
6
6
5
6
6
7
7
6
5
5
6
6
7
6
6
6
5
6
6
6
6
5
6
5
6
6
6
6
5
4
5
5
5
4
4
4
4
4
5
5
5
5
4
4
5
5
5
5
5
5
6
6
5
6
5
5
5
5
6
6
6
5
5
6
6
6
6
6
6
6
6
6
7
6
5
5
6
6
7
6
6
6
6
6
6
7
7
6
6
6
7
7
8
8
7
7
7
7
8
9
8
7
8
7
8
8
8
7
8
8
8
9
9
9
9
8
8
9
9
10
9
9
9
9
10
10
10
9
8
9
9
10
9
9
9
8
8
9
9
9
8
8
7
8
9
9
9
8
7
7
8
8
8
9
9
8
8
9
8
9
9
9
8
8
8
8
8
8
8
8
9
9
8
9
9
7
7
8
8
8
9
8
8
8
8
8
8
8
8
8
8
9
10
9
9
9
9
9
9
9
8
7
7
8
7
7
7
7
7
6
7
7
7
7
7
7
7
7
8
8
7
7
7
7
7
7
7
7
7
7
7
8
8
8
8
8
8
8
8
8
8
8
7
7
8
8
8
7
7
6
7
7
7
7
7
6
6
6
7
7
6
6
6
6
6
6
6
6
7
6
6
7
7
7
6
6
7
7
7
7
6
6
6
6
6
6
6
6
6
5
6
6
7
7
6
5
5
5
6
6
6
6
5
6
6
7
7
6
6
6
5
7
7
6
6
6
7
7
8
7
7
7
7
7
7
8
8
8
7
8
8
8
9
8
8
7
7
8
8
8
8
7
7
7
7
8
8
6
6
6
7
7
7
7
7
5
6
6
6
6
5
5
6
6
6
6
6
6
5
5
6
6
7
7
6
6
6
6
6
6
6
5
6
5
6
6
6
5
5
5
6
6
7
6
5
5
6
6
6
6
6
6
5
5
6
6
6
5
6
6
6
6
7
6
5
5
5
6
6
5
6
6
5
5
6
6
6
6
6
6
6
7
7
7
7
7
7
7
8
8
7
7
8
8
8
8
8
8
7
8
8
9
9
9
10
8
8
9
9
10
10
10
10
11
11
12
12
11
10
11
11
12
12
12
12
12
12
12
13
14
13
13
13
13
15
15
15
16
16
16
16
18
18
18
18
18
19
19
20
20
20
19
19
19
19
19
20
19
18
17
17
17
17
17
16
15
15
15
15
14
14
13
13
12
13
13
13
12
11
12
12
12
12
12
12
12
12
11
12
11
12
12
11
11
11
11
10
10
9
9
9
9
9
9
9
7
7
7
7
8
7
7
6
6
7
7
7
6
6
5
6
6
6
7
6
5
5
5
6
6
6
6
5
5
5
6
6
5
5
5
5
6
6
5
5
4
4
5
5
6
5
5
4
5
6
6
6
6
6
6
6
7
6
6
6
6
6
7
7
7
8
8
7
7
7
7
8
8
8
7
7
8
8
8
7
7
7
7
7
7
7
6
7
8
9
10
11
13
15
17
20
24
29
33
39
44
51
60
68
77
86
96
105
116
127
138
151
162
173
186
198
210
222
232
241
251
258
266
273
278
282
284
285
285
283
279
273
264
254
244
232
220
208
193
179
163
148
133
118
103
89
75
62
51
41
32
24
17
11
6
3
0
-1
-2
-4
-5
-4
-4
-3
-2
-1
-2
0
0
1
3
4
5
6
7
8
10
11
11
12
12
13
14
15
15
15
15
15
16
16
17
17
16
15
16
16
17
17
16
16
16
16
16
16
17
16
16
15
15
16
17
17
17
17
17
16
18
17
17
17
16
17
17
17
17
17
17
16
16
17
18
18
18
17
18
17
19
19
19
19
18
19
19
20
20
20
19
20
20
20
20
20
20
20
20
19
21
20
20
20
20
20
20
21
21
21
20
20
20
21
21
21
21
21
21
21
23
22
22
23
22
23
23
24
23
24
24
23
24
25
25
25
25
26
25
25
26
27
27
27
27
27
27
27
28
28
27
28
28
28
29
29
28
29
29
29
29
30
30
30
30
30
30
31
31
31
30
31
31
31
32
33
33
32
32
33
33
34
34
35
34
34
35
35
36
37
37
37
37
38
39
39
39
39
40
41
41
42
43
42
42
43
44
45
45
46
47
47
47
49
50
51
52
52
52
54
55
56
57
57
58
59
59
61
62
62
63
64
65
67
68
70
70
70
72
73
74
76
76
78
79
80
81
83
84
85
86
86
88
90
91
92
93
94
95
97
97
99
100
101
102
102
104
106
106
106
107
108
109
109
111
111
112
113
114
115
116
117
117
118
119
119
120
121
121
122
122
121
122
122
123
123
122
122
121
122
121
120
120
118
117
117
116
115
114
113
112
110
108
106
105
104
101
100
97
95
93
92
89
87
84
82
80
78
76
73
71
68
67
65
63
60
59
56
54
52
51
50
49
47
45
44
43
41
40
39
37
35
35
34
32
32
30
29
27
27
27
26
25
24
23
23
22
22
22
21
20
19
19
18
18
18
18
16
16
17
16
16
16
16
16
15
15
15
15
14
14
14
14
14
15
14
14
14
13
13
14
14
14
14
13
12
13
13
14
13
13
12
12
13
13
13
12
12
12
12
12
13
12
11
11
11
12
12
12
11
11
10
10
11
11
11
11
10
11
10
10
11
11
10
10
10
11
11
12
11
11
11
11
11
11
11
11
11
11
11
11
11
11
11
11
11
11
11
11
12
11
10
10
11
11
11
11
10
11
11
12
12
12
12
11
11
11
12
12
11
11
11
11
12
12
12
11
11
11
12
12
12
12
12
12
12
11
12
12
11
12
11
11
12
12
12
12
11
12
12
12
13
13
12
12
11
12
12
13
12
12
11
11
12
12
12
13
12
12
12
12
13
13
13
13
14
14
14
14
14
14
14
13
14
15
15
14
14
13
14
14
15
14
15
14
14
14
14
15
14
14
14
14
14
15
15
14
14
13
14
14
15
14
13
13
13
13
13
13
13
12
11
11
12
12
12
12
11
10
11
12
12
11
11
10
10
11
11
11
11
11
10
10
11
11
11
10
10
10
11
11
12
12
11
11
11
11
12
11
11
10
10
10
10
10
10
10
10
9
10
10
10
10
10
9
9
10
10
10
10
10
9
9
10
10
10
9
9
9
9
9
10
10
9
9
8
8
9
10
9
9
8
8
8
8
8
8
8
7
8
8
8
8
8
8
8
8
8
8
7
7
7
8
7
8
8
8
7
6
7
7
8
8
7
7
8
7
8
8
7
7
8
8
8
8
8
8
7
7
8
8
9
9
8
8
7
7
8
9
8
7
7
7
8
8
8
8
7
6
7
7
8
8
8
7
6
7
7
7
7
7
6
6
7
7
7
7
6
6
6
7
7
7
7
7
7
7
8
7
7
7
7
7
7
7
7
7
6
6
6
7
7
7
7
5
6
6
6
6
6
6
6
6
6
6
6
6
5
6
6
7
6
6
6
6
6
6
7
6
7
6
6
6
6
7
7
6
6
6
7
7
8
8
7
7
7
7
7
7
6
6
7
7
7
7
7
6
6
5
6
6
6
6
6
6
6
6
6
6
6
6
6
6
6
6
6
6
6
5
6
6
5
5
5
5
5
4
5
5
5
5
4
4
5
5
5
4
4
4
5
5
5
5
5
5
5
5
7
6
6
6
5
5
6
6
7
7
7
6
6
7
7
7
7
6
6
6
7
7
6
6
7
7
7
7
7
7
7
7
6
7
7
7
7
7
7
7
8
7
8
7
7
7
7
8
7
7
7
7
6
8
7
7
7
7
6
6
8
8
8
7
7
7
7
8
7
7
7
7
8
8
9
9
8
7
8
8
8
8
9
9
8
8
9
10
10
9
9
9
9
10
9
9
10
9
9
9
10
10
10
10
10
10
10
11
12
11
11
11
12
12
13
13
13
12
13
13
14
15
14
15
14
15
16
16
17
17
16
17
17
18
19
20
19
20
20
21
21
22
22
22
21
22
23
23
23
23
23
22
22
22
22
23
22
20
20
20
20
19
19
19
18
18
18
18
17
17
16
15
16
16
16
16
15
15
15
14
15
15
15
14
14
14
14
15
14
13
13
12
13
13
13
12
12
12
11
12
12
11
11
10
10
10
9
10
9
9
8
8
8
8
8
8
8
7
7
7
7
8
7
7
7
7
7
7
7
7
7
7
7
7
7
8
8
7
7
7
8
9
8
7
8
8
9
9
9
8
8
8
9
9
9
9
9
9
9
9
10
10
10
10
9
9
10
10
10
11
9
10
10
10
11
11
11
11
10
10
11
11
11
10
9
9
10
10
10
11
10
11
12
14
16
18
20
24
27
31
37
43
49
55
63
71
80
90
99
110
120
131
143
155
167
179
191
202
214
225
235
246
254
262
267
274
279
283
285
286
284
282
277
271
262
253
241
229
215
203
190
176
161
145
130
115
100
88
75
63
51
41
33
25
20
15
10
6
3
2
1
1
1
1
1
1
2
3
4
5
6
6
8
9
10
12
12
13
13
14
16
16
17
17
17
18
17
18
18
18
18
18
18
19
19
19
19
19
19
18
20
19
20
19
19
19
20
20
20
19
19
19
20
20
21
21
20
20
20
20
21
22
21
20
21
21
21
22
21
21
21
21
22
22
22
22
22
22
21
21
22
22
22
21
21
21
21
22
23
22
22
21
22
22
23
23
22
22
22
22
22
23
22
22
23
23
22
24
23
23
23
23
23
23
23
24
24
24
24
24
25
25
24
25
25
25
26
26
27
27
26
27
26
28
28
28
28
27
28
28
29
30
30
29
29
29
30
30
31
30
30
30
30
31
31
31
31
31
31
31
31
32
31
31
31
31
31
33
32
32
32
32
33
33
34
34
34
34
34
35
36
36
37
37
36
37
38
38
38
38
38
39
39
40
41
41
41
42
42
43
43
44
44
45
44
45
46
47
48
47
48
49
50
50
51
52
53
53
53
55
55
56
57
58
58
58
60
61
62
62
63
64
65
67
67
68
69
70
71
73
74
76
76
77
78
80
82
84
85
86
87
88
89
91
92
94
95
95
97
98
99
100
101
102
103
104
105
105
106
106
108
108
109
110
112
112
113
114
115
115
116
117
117
118
118
119
119
120
121
120
120
121
121
121
121
121
121
120
119
119
119
119
117
117
115
115
114
113
111
110
109
108
106
105
104
101
99
97
95
93
92
90
87
86
82
81
79
77
75
72
71
68
66
64
63
61
59
56
55
53
52
50
49
47
45
44
43
41
40
39
38
36
35
34
34
33
31
31
30
29
28
27
26
26
24
24
23
23
23
22
21
20
20
19
20
20
19
19
18
18
18
18
17
17
16
16
17
17
16
16
16
16
15
16
16
16
15
15
15
15
16
16
16
16
15
15
15
15
16
15
14
14
14
14
15
14
14
12
13
12
13
12
12
11
11
11
11
11
11
10
10
10
10
10
11
11
11
11
10
10
11
10
11
10
10
10
11
11
11
11
11
10
11
11
12
12
11
12
11
12
12
12
13
12
12
12
12
13
12
12
11
12
11
12
12
12
11
11
11
11
11
11
11
11
10
10
10
10
11
11
11
10
11
11
11
11
11
11
10
11
11
12
11
11
11
11
12
12
12
11
11
12
12
12
13
13
13
13
12
13
13
14
13
13
12
12
13
13
13
12
12
12
12
13
13
13
12
12
12
12
13
12
13
12
12
12
12
12
13
12
12
12
12
12
13
12
12
12
12
12
12
12
12
11
11
11
11
11
12
11
11
10
11
11
11
11
11
11
10
10
11
11
10
10
10
10
10
11
11
10
10
10
10
10
11
10
10
10
9
10
10
9
10
9
9
9
9
10
9
9
9
8
9
9
8
8
9
9
8
8
9
8
8
8
8
8
7
8
8
8
8
7
8
8
8
8
8
7
8
7
9
8
8
8
7
7
8
8
8
8
7
8
7
7
8
8
8
7
7
7
7
7
6
6
6
6
6
6
6
5
5
4
4
4
5
5
4
4
3
3
3
4
3
3
2
3
3
4
3
4
3
3
3
4
4
4
4
4
4
3
4
4
4
4
3
3
4
4
4
3
3
2
3
3
4
3
3
3
2
3
3
3
4
3
3
3
4
4
5
4
4
4
4
5
5
5
5
4
5
5
6
5
5
4
4
4
3
4
3
3
3
2
2
2
3
2
2
1
1
0
1
1
1
0
-1
-1
0
0
0
0
-1
-1
-1
0
0
0
1
0
0
0
1
1
1
1
1
0
1
1
2
1
1
0
1
1
2
2
1
1
0
1
1
1
1
1
0
0
0
0
0
0
0
-1
0
0
0
0
0
-1
-1
-1
-1
-1
-1
-1
-1
-1
-1
-1
0
0
-1
-1
-1
0
0
0
0
-1
0
-1
1
0
0
0
0
0
-1
-1
0
0
-1
0
0
0
0
0
-1
-1
-1
-1
-1
0
-1
-1
-1
-1
-1
-1
-1
-1
-1
-2
-1
-1
-1
-1
-1
-1
-2
-2
-2
-1
-1
-2
-2
-2
-2
-1
-1
-1
-2
-2
-2
-1
-1
-1
-1
-2
-1
-2
-2
-1
-2
-2
-2
-2
-2
-2
-2
-2
-3
-3
-2
-2
-2
-2
-2
-2
-2
-1
-1
-1
-1
-2
-2
-1
-1
0
0
-1
-1
0
0
1
1
1
2
2
1
2
3
3
3
3
3
3
3
4
5
4
5
4
5
6
6
6
6
6
5
6
6
7
7
7
7
7
7
9
8
9
8
9
9
10
10
11
11
10
11
11
12
12
12
12
12
12
12
12
13
12
12
11
11
11
11
11
10
9
9
8
8
8
8
7
7
6
6
6
7
6
6
5
5
5
5
5
5
5
5
5
6
5
5
4
4
3
4
4
4
3
2
2
2
1
2
1
0
0
-1
-1
-1
0
-1
-2
-2
-2
-2
-2
-2
-3
-3
-4
-3
-3
-2
-3
-3
-3
-3
-4
-3
-2
-3
-4
-4
-4
-3
-3
-3
-3
-3
-4
-3
-4
-3
-4
-4
-4
-5
-4
-4
-5
-4
-5
-5
-5
-5
-4
-5
-4
-4
-5
-4
-4
-4
-4
-3
-3
-4
-3
-3
-3
-2
-3
-3
-3
-3
-2
-2
-3
-3
-2
-3
-1
-1
-2
-1
-2
-3
-3
-2
-2
-2
-3
-3
-3
-2
-2
-1
0
0
1
3
6
9
12
17
20
26
32
39
47
54
63
72
81
91
102
113
123
135
146
159
171
184
195
207
217
227
236
245
253
259
265
269
272
273
274
272
269
262
256
246
237
226
213
201
186
172
157
142
128
113
98
84
69
57
46
35
26
17
10
4
-1
-5
-7
-10
-12
-13
-14
-14
-14
-13
-13
-13
-12
-11
-10
-8
-8
-7
-6
-5
-3
-2
-1
0
0
1
2
3
4
4
4
4
5
5
6
7
6
5
6
6
6
6
6
6
6
5
5
6
6
6
5
5
5
5
5
6
5
5
5
5
6
6
6
5
5
5
5
5
6
6
6
5
5
5
5
6
6
6
6
6
6
7
7
6
6
7
6
6
7
7
7
7
7
8
8
9
8
8
9
8
8
10
10
10
10
10
10
11
11
11
11
11
11
12
12
11
12
12
11
12
12
12
12
12
11
12
11
12
12
13
12
12
12
13
13
13
13
13
13
14
14
14
14
14
15
14
15
15
15
16
15
15
15
16
16
17
17
16
16
17
17
17
18
17
17
16
17
18
18
18
18
18
18
19
19
20
19
19
19
20
20
22
21
22
22
22
23
23
24
24
24
24
24
25
25
26
26
26
26
27
27
28
29
29
29
30
30
30
31
33
33
33
34
34
36
37
37
37
38
39
40
41
42
42
42
43
44
46
46
47
48
48
49
50
52
52
53
53
54
55
56
58
59
60
61
62
64
64
66
67
68
69
69
71
73
74
75
76
78
79
81
81
83
84
85
86
87
89
90
90
91
92
92
94
95
96
97
97
98
99
99
100
101
102
102
103
104
104
105
106
106
106
107
108
108
109
108
108
108
108
109
108
108
107
107
106
106
105
105
103
102
101
100
99
98
96
94
92
90
89
87
86
84
81
79
76
74
73
71
67
65
63
60
58
57
55
52
50
48
46
44
42
41
39
36
35
33
32
30
28
27
25
23
22
22
20
18
16
15
14
14
13
11
11
9
9
8
7
6
6
5
3
4
3
2
2
1
1
0
-1
0
0
0
-1
-2
-2
-2
-2
-1
-2
-3
-3
-3
-3
-3
-3
-4
-4
-4
-4
-4
-4
-4
-4
-5
-5
-5
-5
-5
-5
-5
-6
-6
-6
-6
-6
-6
-6
-6
-6
-6
-5
-5
-6
-6
-7
-6
-6
-6
-6
-6
-7
-6
-6
-6
-6
-7
-7
-7
-7
-7
-6
-7
-6
-6
-7
-7
-7
-6
-7
-8
-8
-8
-8
-8
-7
-8
-9
-8
-9
-8
-8
-8
-9
-9
-9
-9
-8
-8
-8
-8
-9
-9
-8
-8
-8
-9
-9
-9
-8
-8
-8
-8
-9
-9
-9
-9
-8
-7
-8
-8
-9
-9
-8
-8
-8
-8
-8
-8
-8
-7
-7
-7
-7
-7
-8
-7
-7
-6
-7
-7
-7
-7
-8
-7
-7
-7
-8
-8
-8
-8
-8
-8
-8
-9
-8
-9
-8
-8
-9
-8
-8
-9
-8
-8
-8
-8
-8
-9
-8
-8
-8
-8
-7
-8
-8
-8
-7
-7
-6
-7
-8
-8
-7
-6
-7
-6
-7
-7
-6
-6
-6
-6
-7
-7
-6
-7
-7
-6
-7
-7
-7
-7
-7
-7
-7
-8
-8
-9
-9
-9
-9
-9
-9
-10
-10
-10
-10
-10
-11
-11
-11
-11
-10
-10
-10
-10
-11
-11
-11
-11
-10
-10
-10
-10
-10
-11
-9
-10
-10
-10
-11
-11
-10
-10
-10
-10
-12
-11
-11
-11
-11
-10
-11
-11
-12
-11
-11
-11
-11
-11
-12
-12
-12
-12
-12
-12
-13
-13
-13
-13
-13
-13
-13
-14
-13
-14
-13
-13
-13
-14
-15
-14
-14
-13
-13
-14
-14
-14
-14
-13
-13
-13
-13
-14
-14
-14
-14
-13
-14
-15
-14
-15
-14
-14
-14
-15
-15
-15
-16
-15
-15
-15
-14
-15
-15
-15
-14
-15
-15
-15
-15
-15
-15
-14
-15
-14
-15
-15
-15
-14
-14
-14
-14
-15
-15
-15
-14
-14
-13
-14
-15
-14
-14
-13
-14
-14
-15
-15
-16
-15
-15
-15
-16
-16
-17
-16
-16
-16
-16
-17
-17
-18
-17
-17
-17
-17
-17
-18
-18
-18
-17
-16
-17
-17
-18
-17
-17
-17
-17
-17
-18
-18
-17
-17
-17
-16
-16
-17
-16
-16
-16
-16
-17
-17
-17
-16
-16
-16
-16
-16
-17
-17
-16
-16
-16
-17
-17
-17
-17
-17
-16
-16
-17
-18
-18
-17
-17
-16
-17
-18
-17
-18
-17
-17
-17
-16
-17
-17
-17
-16
-16
-16
-17
-17
-16
-17
-16
-16
-16
-16
-16
-16
-17
-16
-16
-16
-16
-17
-16
-16
-16
-16
-15
-15
-16
-15
-14
-14
-13
-14
-14
-14
-13
-12
-12
-12
-12
-11
-11
-11
-11
-10
-10
-10
-11
-10
-10
-9
-10
-10
-11
-10
-10
-9
-9
-9
-9
-9
-9
-8
-8
-8
-7
-7
-7
-7
-6
-5
-4
-5
-5
-4
-3
-3
-3
-3
-3
-3
-2
-2
-2
-1
-2
-2
-2
-2
-2
-2
-2
-3
-4
-4
-4
-4
-3
-4
-5
-5
-6
-6
-5
-6
-5
-6
-6
-6
-5
-6
-6
-6
-7
-7
-6
-6
-6
-6
-7
-7
-7
-7
-7
-7
-8
-8
-9
-9
-8
-9
-10
-10
-11
-11
-11
-12
-11
-12
-12
-13
-12
-12
-13
-12
-13
-13
-14
-13
-13
-13
-14
-14
-14
-14
-14
-14
-13
-14
-14
-15
-15
-15
-15
-14
-14
-15
-15
-15
-14
-14
-14
-14
-15
-14
-14
-13
-13
-13
-14
-13
-13
-12
-12
-12
-12
-13
-12
-12
-11
-12
-11
-12
-12
-12
-11
-11
-10
-11
-11
-12
-11
-11
-10
-10
-10
-10
-11
-10
-10
-10
-10
-10
-11
-11
-10
-11
-10
-10
-11
-12
-11
-10
-10
-9
-8
-7
-6
-4
-2
1
4
7
12
16
22
29
36
43
52
60
69
80
90
101
112
123
135
147
160
172
184
195
207
217
227
236
245
252
257
263
266
269
270
269
266
261
254
246
237
226
215
202
188
173
159
143
128
113
97
83
69
56
44
34
23
14
6
0
-5
-8
-11
-14
-16
-17
-17
-17
-17
-17
-17
-16
-15
-13
-13
-12
-10
-10
-10
-9
-7
-6
-6
-5
-5
-4
-3
-2
-2
-1
-1
0
1
0
1
1
2
2
1
1
2
2
2
2
2
2
2
2
2
2
2
2
2
2
2
3
3
2
3
2
4
3
4
3
4
4
4
5
5
5
5
5
5
7
7
7
7
7
6
6
8
7
7
7
7
7
7
8
8
8
8
7
8
8
9
9
9
9
9
10
10
11
11
11
11
11
11
12
12
12
12
12
12
12
12
13
13
13
13
12
13
13
13
13
14
14
13
14
14
15
14
15
15
15
17
16
16
17
16
17
17
18
18
18
18
19
18
19
19
20
19
19
20
20
20
21
21
20
21
20
22
21
22
22
22
22
22
23
24
24
24
24
24
25
25
25
26
26
26
27
27
28
28
28
27
27
28
30
29
30
30
29
30
31
32
32
33
33
32
33
34
35
35
35
35
36
37
38
38
38
39
39
40
41
42
42
42
43
44
45
46
47
47
48
48
49
51
51
52
52
53
54
55
56
58
59
60
61
61
62
64
65
66
67
68
69
70
72
73
74
75
76
77
79
80
82
82
84
85
86
87
88
90
91
92
92
94
95
96
98
98
99
100
101
102
102
103
104
105
106
107
108
109
109
110
110
111
112
113
113
113
113
114
114
115
115
116
114
115
115
115
114
115
113
113
112
111
110
110
108
107
107
105
104
103
102
100
97
95
93
92
90
87
86
84
81
79
77
75
73
70
68
66
65
62
61
59
56
54
52
51
49
46
44
42
40
39
38
37
35
33
31
30
29
28
27
25
24
23
22
21
21
20
19
18
17
16
16
16
15
13
13
12
12
12
12
11
11
10
10
9
10
10
9
9
8
8
8
8
7
7
7
7
7
7
7
6
6
7
6
6
7
6
6
5
5
6
6
6
5
5
5
5
5
6
6
5
5
4
5
5
5
5
5
4
5
5
5
5
5
4
5
4
5
5
5
4
4
5
4
4
5
4
4
4
3
4
4
4
4
3
4
4
4
5
4
4
4
3
4
4
4
4
4
3
3
3
3
3
3
2
3
3
3
3
3
3
2
3
3
3
3
3
3
3
3
3
4
4
4
4
3
4
4
5
5
5
5
4
5
5
5
6
5
5
5
6
6
6
5
5
5
5
5
5
5
6
5
5
5
6
6
5
6
5
6
5
6
6
6
5
6
5
7
7
7
6
6
6
7
7
8
7
7
7
7
7
7
8
7
7
7
7
8
8
8
8
7
7
8
8
8
8
7
7
7
7
7
8
7
7
6
7
7
8
7
7
7
6
7
7
6
7
6
6
6
7
7
7
7
7
6
6
7
8
7
7
7
7
6
7
7
8
7
7
7
6
7
7
7
7
7
7
7
7
7
7
6
7
6
7
8
8
7
7
6
6
7
7
7
7
6
6
6
6
6
7
6
6
5
7
6
6
6
5
5
5
5
6
5
5
4
5
5
5
6
5
4
4
4
5
5
5
4
4
4
5
5
5
4
4
3
4
4
5
5
4
4
3
4
4
5
4
3
4
4
4
4
5
4
4
4
4
5
5
5
5
4
5
4
5
5
6
5
5
5
5
5
6
6
5
5
5
6
6
5
6
6
5
5
5
5
5
4
4
4
5
5
5
4
3
3
4
4
5
4
4
3
3
3
4
4
4
3
3
3
4
4
4
4
4
3
4
4
5
5
4
4
3
4
4
5
5
4
4
4
4
5
5
4
4
4
4
5
5
5
5
4
4
4
4
5
5
5
4
3
4
4
5
4
4
3
4
4
4
4
4
4
3
3
4
4
4
4
4
3
3
4
4
4
4
3
3
4
4
4
4
4
3
4
5
4
5
4
4
4
4
5
4
5
4
4
4
4
4
5
4
4
5
4
5
5
5
5
4
4
5
5
6
5
4
4
4
5
5
5
5
4
5
5
6
5
6
5
5
5
6
6
6
6
5
5
5
6
6
7
6
6
6
6
6
7
6
5
6
5
6
6
7
6
6
5
6
7
7
7
7
7
7
7
8
8
9
8
8
8
9
10
9
10
10
9
10
11
10
11
11
11
10
11
11
11
12
11
11
12
12
12
13
12
13
13
13
14
14
15
15
14
15
15
16
16
16
17
16
16
17
17
18
18
18
19
19
20
20
21
21
21
21
21
22
23
23
22
22
22
23
22
23
22
22
22
22
21
22
21
21
20
20
19
19
20
19
19
18
17
17
18
17
17
17
16
16
16
17
16
17
16
16
16
16
17
16
16
15
16
15
16
15
14
14
14
14
14
14
14
13
13
12
11
12
12
11
11
10
10
9
10
10
9
9
8
9
9
9
9
9
8
8
8
8
8
8
8
7
8
7
8
7
8
7
7
7
7
7
7
7
7
6
7
7
8
7
6
6
6
7
7
7
7
6
6
6
7
7
8
8
7
8
8
9
9
8
9
9
9
9
9
10
9
9
10
9
9
11
10
11
10
9
10
10
9
9
9
9
9
9
10
11
12
13
15
17
20
23
27
32
36
41
49
56
64
72
82
90
100
111
121
133
145
156
168
180
192
205
216
227
237
246
256
263
270
276
281
284
286
286
286
283
277
270
262
251
240
229
216
202
188
174
158
144
129
114
98
84
71
59
49
39
29
22
16
11
7
4
1
-1
-2
-2
-3
-3
-2
-1
0
0
1
2
4
5
5
6
7
9
10
10
12
12
12
13
14
14
16
15
15
15
16
16
16
16
17
16
16
16
17
16
17
17
16
16
16
16
16
16
16
16
16
16
17
17
16
17
16
17
17
18
18
18
18
17
18
18
19
19
18
18
18
19
19
19
19
19
18
19
19
20
19
19
18
19
19
19
20
20
20
19
19
20
21
20
21
21
20
21
21
22
21
21
20
21
20
22
21
21
21
21
21
22
22
22
22
22
21
22
23
23
23
22
22
23
23
23
24
24
24
23
23
24
25
25
25
25
25
25
25
27
27
27
27
26
27
27
28
28
28
28
28
28
28
29
29
29
28
29
30
30
30
30
30
30
30
30
31
31
31
31
31
32
32
32
32
32
32
32
32
33
34
34
33
34
35
35
36
36
35
36
36
37
38
38
38
39
38
39
40
41
41
42
41
42
43
44
45
45
46
46
47
47
49
50
50
50
51
52
53
54
55
56
57
57
58
60
60
62
62
63
64
65
67
68
68
69
70
71
72
74
75
76
77
77
78
80
82
82
83
84
86
87
88
89
91
91
92
94
95
97
98
99
100
101
102
103
104
104
105
106
107
108
109
110
111
111
112
113
114
116
116
116
116
117
118
119
120
120
120
121
120
121
121
122
122
121
121
121
121
121
120
119
119
119
117
117
117
115
113
112
112
111
110
108
106
104
102
100
99
98
95
93
91
89
87
84
84
81
78
76
74
72
71
69
67
64
62
60
59
57
55
53
51
49
47
46
45
43
42
40
38
37
36
35
34
32
31
29
30
29
28
27
26
25
24
24
24
23
22
22
21
21
22
21
20
20
19
19
19
19
19
18
18
17
17
17
17
17
17
17
16
16
16
16
15
15
14
14
14
14
14
13
13
13
13
13
13
13
12
12
12
12
13
12
13
12
11
12
13
13
13
12
12
12
12
12
13
13
13
12
12
12
13
12
13
11
12
12
12
13
12
12
12
12
11
12
12
11
11
11
10
11
11
11
11
11
11
10
11
11
11
11
11
11
10
12
11
12
11
11
11
11
11
12
12
11
11
11
12
12
12
12
11
12
12
12
12
12
11
12
11
12
12
12
12
12
12
12
12
12
12
13
13
12
13
13
12
13
12
12
12
13
13
14
13
12
12
13
13
14
13
13
12
13
12
13
13
12
12
13
12
12
12
12
13
11
12
12
12
12
13
13
12
12
12
13
13
13
13
12
11
12
12
13
13
12
11
12
13
13
13
12
12
12
12
12
13
12
12
12
12
12
12
12
11
11
12
12
12
12
12
11
11
11
11
11
12
12
12
11
10
11
11
11
11
10
10
10
11
11
11
10
10
10
10
10
11
10
10
10
10
10
10
11
10
9
10
9
10
10
10
10
9
9
9
9
9
10
9
9
8
8
9
9
8
7
7
8
8
9
8
8
8
7
8
8
8
8
8
7
7
7
7
8
8
7
6
7
8
8
7
8
7
7
7
8
7
7
7
7
7
7
7
7
7
7
7
7
7
8
7
7
7
7
7
7
8
7
6
7
6
6
7
7
6
6
5
6
6
7
6
6
6
5
6
6
6
6
5
5
4
5
5
5
5
4
4
4
4
5
4
5
3
4
3
4
4
5
4
4
3
4
4
5
4
4
3
3
3
4
5
4
4
3
4
4
5
4
5
4
3
4
4
4
3
3
3
3
3
3
3
3
2
2
2
2
2
2
2
1
1
1
1
2
2
2
1
2
2
2
2
2
1
1
2
2
2
1
1
1
1
1
2
1
1
0
1
0
1
1
1
1
0
0
0
1
0
0
0
0
0
-1
1
0
0
0
0
0
0
1
1
1
1
1
1
2
2
2
1
1
1
2
2
2
1
1
0
1
1
2
1
1
0
0
0
1
0
0
0
0
0
0
1
1
0
0
0
0
0
0
0
0
0
-1
0
0
0
0
0
-1
-1
-1
0
-1
-1
-2
-2
-1
-1
0
0
-1
-1
-1
-1
-1
0
0
0
-1
-1
-1
0
1
0
0
1
1
1
2
2
2
1
1
1
2
3
3
3
3
3
3
4
4
4
4
4
4
5
6
6
6
6
6
6
7
6
7
7
7
7
7
7
8
8
8
8
8
9
9
10
10
9
10
10
10
11
11
11
10
10
11
11
11
10
10
10
9
9
9
10
9
8
8
7
7
7
7
6
6
6
5
5
6
5
5
4
4
5
5
5
4
4
4
4
5
4
4
3
3
3
3
3
3
2
2
1
1
1
1
1
0
0
-1
-1
-1
-1
-2
-2
-3
-3
-3
-3
-2
-3
-3
-4
-4
-4
-3
-4
-3
-4
-4
-4
-4
-3
-4
-4
-5
-5
-4
-4
-4
-5
-5
-5
-5
-4
-5
-4
-4
-5
-5
-5
-4
-5
-5
-5
-6
-5
-6
-5
-4
-5
-5
-5
-5
-5
-4
-3
-4
-4
-4
-4
-4
-3
-2
-3
-3
-3
-3
-3
-2
-3
-3
-4
-3
-3
-3
-4
-4
-5
-5
-5
-4
-5
-5
-5
-4
-4
-3
-2
0
2
4
7
10
14
19
24
30
35
43
50
60
69
78
88
97
108
119
131
143
154
166
178
190
201
213
223
233
241
249
256
262
267
270
272
273
272
270
265
258
249
239
228
216
204
192
177
162
147
131
117
102
88
74
60
48
37
27
19
12
6
-1
-5
-9
-11
-12
-13
-14
-15
-15
-15
-13
-13
-12
-12
-11
-11
-10
-8
-8
-7
-6
-5
-5
-4
-2
-2
-1
-1
-1
1
0
1
2
2
2
2
3
3
3
3
3
3
3
3
3
3
4
3
3
3
4
3
3
3
2
3
2
3
3
3
3
2
3
3
3
3
3
2
3
3
4
4
3
4
3
3
3
3
4
3
3
3
3
4
4
4
5
4
4
5
5
5
5
5
4
5
5
5
5
6
5
5
5
5
5
5
6
6
5
6
6
7
6
7
6
6
7
7
8
7
7
7
8
9
9
10
9
9
9
10
10
11
11
11
10
10
11
11
11
10
10
10
10
10
11
11
11
10
10
10
10
11
11
11
10
11
10
11
12
11
11
12
11
13
13
13
14
14
13
14
14
15
15
15
15
15
15
16
16
16
16
15
16
17
17
17
17
17
18
17
19
19
19
19
19
19
20
21
22
22
23
22
23
24
25
26
26
26
26
27
28
29
29
29
30
30
31
31
32
33
32
33
34
36
36
37
38
39
39
40
42
42
43
44
44
45
47
47
50
50
50
51
52
54
56
56
57
58
59
60
62
63
65
66
67
67
69
71
72
73
73
74
75
77
79
80
81
81
82
83
84
86
87
87
88
88
89
91
92
92
93
94
94
95
97
97
98
98
99
99
100
100
100
100
100
100
101
101
101
101
101
100
100
100
100
99
98
98
96
95
95
94
93
91
89
88
86
85
84
82
80
78
76
74
73
70
68
65
62
61
58
56
55
52
49
47
45
43
41
39
37
35
33
31
30
28
26
25
23
22
21
19
18
16
14
13
12
11
10
9
7
6
5
5
4
3
2
1
0
-1
-1
-2
-2
-3
-4
-4
-5
-5
-6
-6
-7
-7
-8
-7
-7
-7
-8
-9
-9
-9
-9
-9
-9
-10
-10
-10
-10
-10
-9
-10
-10
-11
-10
-10
-9
-10
-10
-11
-11
-11
-10
-10
-10
-11
-11
-11
-12
-12
-12
-11
-12
-12
-12
-12
-12
-12
-13
-13
-13
-14
-14
-13
-13
-13
-14
-14
-14
-14
-14
-14
-14
-15
-15
-15
-15
-15
-15
-16
-16
-16
-16
-15
-16
-17
-17
-17
-16
-16
-16
-16
-16
-17
-16
-15
-15
-15
-16
-16
-16
-16
-16
-15
-16
-16
-15
-16
-16
-16
-16
-16
-17
-16
-16
-16
-16
-16
-16
-16
-17
-16
-16
-16
-16
-16
-17
-17
-16
-16
-16
-16
-17
-17
-17
-17
-16
-15
-16
-16
-17
-16
-16
-15
-16
-15
-16
-16
-16
-16
-15
-16
-16
-16
-16
-15
-15
-15
-15
-16
-16
-16
-15
-15
-15
-15
-16
-15
-16
-16
-15
-15
-15
-16
-16
-16
-16
-15
-15
-16
-16
-16
-16
-16
-16
-16
-17
-17
-17
-17
-16
-17
-17
-18
-18
-18
-17
-17
-18
-18
-19
-18
-18
-18
-19
-19
-20
-19
-20
-20
-20
-19
-20
-20
-20
-20
-19
-19
-20
-20
-21
-20
-20
-20
-20
-20
-20
-20
-21
-20
-20
-21
-21
-21
-21
-20
-20
-20
-21
-21
-21
-21
-20
-20
-20
-21
-21
-21
-20
-20
-21
-21
-22
-22
-22
-21
-21
-21
-21
-23
-23
-23
-22
-22
-23
-23
-22
-23
-22
-22
-23
-22
-22
-23
-22
-22
-21
-22
-22
-22
-22
-23
-22
-22
-21
-22
-23
-23
-23
-22
-22
-22
-23
-23
-23
-23
-23
-23
-22
-24
-24
-24
-24
-24
-24
-25
-25
-25
-26
-25
-26
-26
-26
-27
-26
-26
-27
-26
-26
-27
-26
-27
-25
-26
-26
-26
-25
-25
-26
-25
-25
-26
-26
-25
-26
-26
-26
-26
-26
-27
-27
-27
-27
-27
-28
-28
-29
-28
-29
-28
-29
-29
-29
-30
-30
-30
-29
-29
-30
-30
-31
-30
-29
-30
-30
-30
-30
-30
-30
-29
-30
-30
-30
-30
-30
-30
-30
-30
-29
-31
-30
-30
-29
-30
-30
-30
-30
-30
-29
-29
-29
-29
-29
-30
-30
-28
-29
-28
-29
-29
-30
-30
-30
-29
-30
-30
-30
-30
-31
-31
-31
-31
-31
-32
-31
-31
-31
-30
-30
-31
-31
-31
-30
-31
-30
-31
-31
-31
-31
-30
-30
-30
-30
-31
-30
-30
-30
-29
-29
-30
-30
-29
-29
-29
-29
-29
-29
-29
-29
-29
-28
-28
-28
-28
-27
-27
-27
-27
-27
-28
-27
-27
-27
-26
-26
-26
-27
-27
-26
-26
-25
-25
-25
-25
-25
-24
-23
-23
-23
-23
-22
-23
-21
-22
-22
-21
-21
-22
-21
-21
-22
-22
-23
-23
-23
-23
-23
-24
-24
-25
-25
-26
-26
-26
-27
-27
-28
-28
-28
-27
-28
-28
-29
-29
-28
-28
-28
-28
-29
-29
-29
-29
-29
-29
-29
-29
-30
-30
-30
-30
-31
-31
-32
-32
-32
-33
-32
-33
-33
-34
-34
-34
-34
-34
-34
-36
-36
-36
-35
-35
-36
-36
-37
-37
-37
-36
-36
-36
-37
-37
-37
-37
-37
-36
-36
-37
-37
-37
-37
-36
-37
-37
-37
-37
-37
-37
-37
-37
-37
-38
-38
-38
-37
-36
-37
-37
-37
-37
-37
-36
-36
-37
-36
-36
-35
-35
-35
-35
-34
-34
-35
-34
-34
-33
-33
-34
-33
-33
-33
-32
-33
-33
-33
-33
-33
-33
-33
-32
-32
-33
-34
-33
-32
-33
-33
-33
-34
-33
-32
-31
-30
-29
-28
-26
-24
-20
-16
-12
-7
-2
4
10
18
26
35
44
54
65
75
86
98
110
121
134
145
157
170
181
192
202
211
219
227
234
239
243
245
247
246
244
240
233
225
216
205
194
181
167
152
138
122
107
91
76
61
46
33
21
9
0
-9
-17
-24
-30
-34
-37
-39
-41
-43
-43
-43
-44
-42
-42
-41
-40
-40
-39
-38
-37
-35
-35
-34
-33
-32
-31
-30
-29
-28
-28
-28
-27
-26
-25
-25
-25
-25
-24
-23
-23
-23
-23
-23
-23
-23
-22
-22
-21
-22
-22
-23
-23
-21
-22
-22
-22
-21
-22
-22
-22
-21
-22
-22
-22
-22
-21
-21
-21
-20
-20
-21
-20
-20
-20
-19
-20
-20
-20
-19
-19
-18
-19
-19
-18
-18
-17
-17
-17
-17
-17
-17
-16
-16
-16
-16
-15
-16
-16
-16
-15
-15
-15
-15
-16
-15
-15
-14
-15
-15
-16
-15
-15
-14
-14
-15
-15
-14
-14
-15
-13
-14
-13
-13
-14
-13
-12
-11
-11
-12
-11
-11
-11
-10
-10
-10
-9
-9
-9
-9
-9
-8
-9
-9
-8
-8
-8
-7
-7
-7
-8
-7
-7
-6
-6
-6
-6
-5
-5
-5
-4
-3
-4
-4
-3
-3
-2
-2
-2
-2
-3
-2
-2
-1
-1
0
0
-1
-1
0
0
1
1
1
1
1
3
3
3
3
3
3
4
4
5
5
6
6
6
6
8
8
8
8
9
9
10
11
11
12
12
12
13
14
15
15
16
17
17
17
19
19
20
20
20
21
23
24
25
26
27
27
28
29
31
32
32
33
34
35
37
38
39
40
40
42
43
45
46
47
48
48
50
52
53
54
55
56
58
59
61
62
63
64
65
67
68
70
71
72
72
74
75
76
77
78
79
79
81
81
82
83
84
84
85
85
87
88
89
89
89
89
90
91
91
92
92
92
93
93
94
93
94
93
93
93
93
93
92
92
90
89
89
89
87
86
85
83
82
80
79
77
75
73
70
69
66
64
63
60
58
55
53
51
50
46
44
42
39
37
36
34
31
29
28
26
25
23
21
19
17
15
14
13
12
11
9
7
6
6
5
5
3
2
1
1
0
0
0
-1
-3
-4
-4
-4
-5
-5
-6
-7
-7
-8
-7
-8
-9
-9
-10
-10
-10
-11
-11
-12
-12
-13
-12
-12
-12
-12
-13
-13
-13
-14
-13
-13
-13
-15
-14
-15
-14
-14
-14
-13
-15
-14
-14
-14
-14
-14
-14
-15
-14
-14
-14
-13
-14
-14
-13
-14
-14
-13
-13
-13
-13
-14
-14
-14
-13
-14
-14
-15
-15
-14
-14
-14
-14
-15
-15
-15
-14
-14
-14
-14
-15
-15
-15
-14
-14
-14
-15
-15
-15
-14
-14
-15
-14
-15
-15
-15
-15
-14
-14
-15
-15
-15
-15
-15
-14
-15
-15
-16
-15
-15
-14
-15
-15
-15
-16
-15
-15
-15
-15
-14
-16
-15
-15
-14
-14
-14
-14
-15
-15
-14
-14
-14
-14
-14
-14
-13
-13
-13
-13
-13
-13
-13
-13
-11
-12
-12
-12
-13
-12
-12
-12
-11
-11
-11
-12
-11
-11
-11
-11
-11
-11
-12
-11
-11
-11
-11
-11
-12
-12
-11
-11
-10
-11
-11
-12
-11
-11
-10
-10
-10
-10
-11
-10
-10
-10
-10
-10
-11
-10
-10
-10
-10
-10
-10
-10
-10
-10
-10
-10
-9
-11
-10
-10
-9
-10
-9
-10
-11
-10
-11
-10
-10
-10
-11
-11
-11
-11
-11
-10
-11
-11
-12
-11
-11
-12
-11
-12
-12
-12
-13
-12
-12
-12
-12
-13
-12
-12
-12
-12
-12
-12
-13
-13
-12
-11
-12
-13
-13
-13
-13
-12
-11
-12
-12
-13
-12
-12
-12
-12
-12
-12
-12
-12
-12
-12
-12
-13
-13
-13
-12
-12
-12
-12
-13
-13
-13
-13
-12
-12
-13
-13
-13
-13
-12
-13
-13
-13
-14
-14
-13
-13
-13
-13
-13
-14
-14
-14
-13
-13
-13
-14
-14
-15
-14
-13
-14
-15
-15
-15
-14
-14
-14
-15
-15
-15
-15
-15
-14
-14
-14
-15
-15
-14
-14
-14
-14
-15
-15
-15
-15
-14
-14
-14
-14
-15
-15
-15
-14
-14
-14
-15
-15
-15
-15
-14
-15
-16
-15
-16
-15
-15
-14
-15
-15
-16
-15
-15
-15
-15
-15
-15
-15
-15
-15
-15
-15
-15
-15
-15
-15
-15
-15
-15
-15
-15
-15
-15
-15
-15
-14
-15
-15
-15
-14
-14
-15
-15
-15
-15
-15
-14
-14
-14
-15
-14
-15
-14
-14
-14
-14
-14
-15
-14
-14
-13
-14
-14
-15
-15
-14
-14
-14
-13
-15
-14
-14
-14
-14
-14
-15
-15
-14
-15
-14
-14
-14
-14
-15
-14
-15
-15
-14
-15
-15
-15
-14
-14
-14
-14
-14
-14
-15
-14
-14
-14
-14
-14
-15
-15
-15
-14
-15
-14
-15
-15
-15
-15
-15
-14
-14
-14
-14
-15
-15
-14
-14
-14
-15
-15
-14
-14
-14
-14
-15
-15
-15
-15
-14
-15
-15
-16
-15
-16
-15
-15
-15
-16
-16
-17
-16
-16
-16
-17
-16
-16
-16
-16
-15
-15
-15
-16
-15
-14
-14
-14
-14
-14
-14
-14
-13
-13
-13
-12
-12
-12
-11
-11
-10
-10
-11
-11
-10
-9
-9
-8
-9
-9
-8
-8
-9
-7
-8
-7
-7
-8
-7
-6
-6
-6
-6
-6
-6
-5
-5
-4
-4
-5
-4
-4
-3
-3
-3
-2
-3
-2
-1
-1
-1
-1
-1
-1
-1
-1
0
-1
-1
-2
-3
-3
-3
-3
-3
-4
-4
-5
-5
-5
-5
-5
-6
-6
-7
-7
-6
-7
-7
-7
-8
-8
-7
-7
-7
-7
-7
-7
-7
-7
-7
-7
-7
-7
-8
-8
-7
-8
-9
-9
-9
-10
-10
-10
-11
-11
-12
-13
-13
-13
-14
-13
-14
-15
-15
-15
-15
-15
-15
-15
-16
-16
-16
-15
-15
-15
-16
-15
-16
-15
-15
-14
-14
-15
-15
-15
-14
-14
-14
-15
-14
-15
-14
-14
-14
-14
-14
-14
-15
-14
-14
-13
-14
-14
-14
-14
-14
-13
-13
-13
-14
-14
-13
-13
-13
-13
-14
-13
-14
-13
-13
-12
-13
-13
-13
-13
-13
-12
-12
-12
-13
-13
-12
-12
-12
-13
-13
-13
-13
-13
-13
-13
-13
-14
-13
-13
-12
-11
-10
-8
-7
-5
-2
2
6
10
15
21
28
35
44
53
62
72
82
93
105
115
127
138
151
163
176
188
199
210
221
230
239
247
254
260
263
267
268
269
267
264
258
251
241
231
219
208
195
181
166
151
135
120
105
90
76
61
48
36
26
16
8
1
-6
-11
-15
-18
-19
-21
-22
-24
-23
-23
-22
-21
-21
-19
-19
-18
-17
-15
-15
-14
-13
-12
-11
-10
-9
-8
-8
-8
-8
-7
-6
-5
-4
-5
-4
-5
-4
-4
-3
-3
-4
-3
-3
-3
-3
-2
-3
-3
-3
-3
-2
-1
-2
-3
-2
-3
-2
-2
-2
-2
-2
-2
-2
-2
-2
-2
-2
-2
-2
-1
-2
-1
-1
-2
-2
-2
-1
0
-1
0
-1
-1
-1
0
0
-1
-1
0
-1
1
1
1
0
0
1
0
1
1
1
1
2
2
1
3
2
3
2
2
3
3
3
4
4
4
4
5
5
5
6
5
5
5
5
6
6
6
6
5
6
6
7
6
6
5
6
5
6
7
7
6
6
6
7
7
7
6
6
6
7
7
8
8
7
7
7
8
9
8
8
8
9
9
9
10
10
10
10
10
10
11
11
13
12
12
12
13
13
14
14
14
14
14
15
16
16
17
17
17
18
18
18
19
19
19
20
20
21
21
22
22
22
22
23
24
25
25
25
25
26
27
28
29
28
29
29
30
31
32
33
33
34
34
36
36
38
38
39
40
40
42
43
45
45
45
46
48
49
51
51
52
53
54
55
57
58
59
60
60
62
63
65
66
67
68
69
70
71
73
74
75
76
76
78
80
81
82
82
84
85
86
87
88
89
90
91
92
94
95
95
96
97
98
99
99
101
102
102
102
103
104
104
106
105
105
106
106
107
106
107
107
106
106
106
106
106
104
103
103
101
101
100
98
97
95
94
92
91
90
88
86
84
82
81
80
77
74
73
71
69
66
65
62
60
57
55
53
52
50
47
45
43
41
39
38
36
34
32
30
29
28
27
25
24
22
21
19
19
17
16
15
13
12
11
12
10
9
9
8
6
6
7
6
5
4
3
3
4
3
3
3
2
1
2
2
1
2
1
1
0
1
1
0
1
0
0
0
0
0
0
-1
-1
-1
-2
-1
-1
-2
-2
-2
-2
-1
-1
-1
-1
-2
-2
-2
-2
-2
-2
-2
-2
-2
-2
-2
-2
-2
-3
-3
-3
-3
-2
-2
-3
-3
-4
-3
-3
-2
-3
-3
-4
-4
-3
-3
-3
-2
-4
-4
-4
-3
-3
-3
-3
-3
-4
-3
-3
-3
-3
-4
-4
-4
-4
-3
-4
-4
-4
-4
-5
-4
-4
-4
-4
-5
-5
-4
-4
-4
-4
-4
-5
-5
-4
-4
-3
-3
-4
-3
-4
-3
-3
-2
-2
-3
-3
-3
-3
-2
-3
-3
-2
-3
-3
-2
-3
-2
-2
-3
-3
-2
-2
-2
-2
-2
-3
-2
-2
-2
-2
-2
-3
-2
-2
-2
-2
-3
-3
-3
-3
-2
-2
-2
-3
-3
-3
-3
-2
-2
-2
-2
-3
-3
-2
-2
-3
-3
-3
-3
-3
-3
-3
-2
-2
-3
-3
-3
-2
-2
-3
-3
-2
-3
-3
-3
-3
-3
-3
-3
-3
-3
-3
-2
-3
-3
-4
-4
-3
-3
-2
-3
-3
-3
-3
-3
-2
-3
-3
-4
-3
-3
-2
-2
-3
-4
-4
-4
-4
-3
-4
-4
-5
-5
-5
-5
-4
-5
-5
-6
-5
-4
-5
-4
-5
-5
-6
-5
-5
-4
-5
-6
-5
-6
-6
-5
-4
-5
-5
-6
-6
-6
-6
-5
-5
-5
-6
-6
-5
-6
-5
-6
-6
-6
-6
-5
-5
-6
-6
-7
-6
-6
-6
-6
-6
-7
-7
-7
-6
-7
-7
-7
-8
-7
-7
-7
-7
-7
-7
-8
-7
-7
-7
-7
-8
-8
-8
-8
-8
-8
-8
-8
-9
-9
-8
-8
-8
-8
-9
-9
-9
-9
-8
-9
-8
-8
-9
-9
-8
-9
-8
-9
-9
-9
-9
-8
-9
-9
-10
-9
-9
-9
-9
-9
-9
-9
-10
-9
-9
-9
-9
-10
-10
-10
-9
-9
-10
-10
-10
-10
-10
-10
-10
-10
-10
-11
-10
-11
-9
-10
-9
-10
-10
-10
-10
-10
-9
-10
-10
-11
-10
-9
-9
-9
-10
-10
-10
-9
-9
-9
-9
-10
-10
-10
-10
-9
-10
-10
-10
-11
-10
-10
-9
-9
-10
-10
-11
-11
-10
-10
-10
-11
-11
-11
-11
-11
-11
-11
-12
-11
-12
-11
-11
-11
-11
-12
-11
-12
-11
-10
-10
-11
-11
-11
-11
-11
-10
-11
-11
-11
-11
-11
-11
-10
-11
-12
-12
-12
-12
-11
-12
-12
-13
-13
-13
-13
-13
-13
-14
-13
-14
-13
-13
-13
-13
-13
-14
-13
-13
-12
-13
-13
-14
-14
-13
-13
-12
-13
-13
-14
-13
-13
-12
-12
-13
-13
-13
-12
-12
-13
-12
-13
-13
-13
-13
-12
-12
-13
-13
-13
-13
-13
-12
-12
-13
-13
-13
-12
-12
-12
-12
-12
-13
-13
-13
-12
-12
-13
-13
-13
-13
-12
-12
-12
-13
-13
-14
-13
-13
-13
-13
-13
-14
-13
-13
-12
-13
-13
-13
-12
-11
-11
-10
-10
-10
-10
-10
-9
-9
-9
-8
-8
-9
-8
-7
-7
-7
-7
-7
-7
-7
-6
-6
-6
-5
-6
-6
-5
-5
-4
-5
-4
-5
-5
-4
-4
-3
-3
-3
-3
-2
-2
-2
0
0
0
0
0
1
1
2
1
1
1
1
2
2
2
1
2
1
1
1
1
0
-1
-2
-2
-2
-2
-2
-3
-4
-4
-5
-5
-5
-5
-6
-7
-6
-6
-6
-7
-7
-7
-8
-7
-7
-7
-7
-7
-8
-8
-8
-8
-8
-8
-9
-9
-9
-8
-8
-8
-9
-9
-10
-10
-9
-10
-10
-10
-11
-12
-12
-12
-12
-13
-13
-13
-13
-13
-13
-13
-14
-14
-15
-14
-14
-14
-14
-15
-15
-15
-15
-15
-15
-15
-15
-15
-16
-15
-15
-15
-15
-15
-15
-15
-15
-14
-15
-14
-15
-14
-14
-14
-14
-14
-15
-14
-13
-13
-12
-13
-13
-13
-14
-13
-12
-12
-12
-12
-12
-13
-12
-12
-12
-12
-13
-12
-13
-12
-12
-12
-13
-13
-13
-14
-13
-13
-13
-14
-15
-15
-14
-14
-15
-14
-15
-15
-14
-13
-10
-9
-8
-6
-3
1
5
9
15
20
26
34
42
52
61
70
80
90
102
113
124
136
148
160
172
184
196
207
217
227
234
242
248
255
259
262
264
263
262
259
254
246
237
226
215
203
191
177
161
146
131
116
101
86
72
57
44
32
22
13
5
-3
-8
-14
-18
-20
-22
-24
-24
-25
-26
-25
-24
-23
-22
-22
-21
-21
-19
-18
-16
-15
-15
-14
-13
-12
-11
-9
-9
-9
-9
-9
-8
-7
-7
-7
-7
-7
-6
-6
-5
-5
-6
-6
-6
-6
-6
-5
-6
-5
-5
-5
-5
-4
-4
-5
-6
-5
-6
-4
-4
-4
-5
-5
-5
-5
-5
-4
-4
-5
-5
-5
-4
-4
-4
-4
-5
-5
-4
-3
-3
-3
-4
-4
-3
-3
-3
-3
-3
-3
-4
-3
-3
-2
-2
-2
-2
-3
-2
-2
-1
-2
-2
-2
-2
-2
-1
-1
-1
-1
-2
-2
-1
0
0
0
-1
-1
0
1
1
1
2
2
1
1
2
2
2
2
2
1
2
2
1
2
2
1
2
2
2
2
3
3
2
3
3
4
4
4
4
5
4
5
5
6
6
5
6
7
7
7
7
7
7
7
9
8
9
8
9
9
9
10
9
10
10
9
10
10
11
10
11
11
11
11
12
12
12
12
12
12
13
13
14
14
14
14
15
15
16
16
17
17
17
18
18
19
20
19
19
20
21
21
22
23
23
23
24
26
27
28
28
29
29
31
31
33
34
35
35
36
37
38
40
40
40
41
43
43
45
46
47
48
49
49
51
53
54
55
56
56
58
60
61
62
62
64
65
67
68
69
70
71
72
73
74
75
77
77
78
79
80
81
82
83
84
85
86
87
88
90
89
90
91
92
94
94
95
95
96
96
97
97
98
99
99
98
99
100
100
100
100
99
98
99
99
99
98
97
96
95
94
93
93
91
89
87
86
85
83
81
79
77
75
73
72
70
68
65
62
60
59
57
55
52
50
48
46
44
43
40
38
35
34
32
31
29
27
26
24
21
20
19
19
16
15
14
13
12
12
11
10
8
7
6
6
6
5
3
2
2
1
2
1
-1
-1
-2
-2
-2
-2
-2
-4
-4
-4
-5
-4
-5
-5
-5
-6
-6
-7
-6
-7
-7
-8
-7
-8
-7
-7
-7
-8
-8
-9
-8
-8
-8
-9
-10
-10
-10
-9
-9
-9
-10
-10
-11
-11
-11
-10
-10
-11
-11
-12
-11
-11
-10
-11
-11
-12
-12
-11
-11
-11
-12
-12
-11
-12
-12
-11
-11
-12
-12
-12
-12
-11
-11
-11
-11
-12
-12
-12
-12
-11
-12
-12
-12
-12
-12
-12
-12
-12
-13
-13
-12
-12
-12
-12
-12
-13
-13
-13
-13
-12
-12
-13
-13
-13
-12
-12
-12
-13
-13
-13
-13
-12
-12
-12
-13
-13
-13
-13
-12
-12
-13
-13
-13
-13
-13
-13
-13
-13
-13
-14
-13
-13
-13
-13
-14
-14
-14
-13
-13
-13
-13
-14
-14
-14
-13
-13
-12
-13
-13
-14
-14
-13
-13
-13
-14
-15
-14
-14
-14
-13
-13
-14
-14
-14
-14
-13
-13
-14
-14
-13
-14
-14
-13
-14
-14
-14
-14
-14
-13
-13
-14
-14
-15
-14
-14
-14
-14
-14
-14
-15
-14
-14
-13
-14
-14
-14
-14
-14
-14
-13
-13
-14
-14
-14
-14
-13
-12
-13
-13
-14
-14
-13
-13
-13
-14
-14
-14
-13
-13
-13
-14
-14
-13
-14
-13
-13
-13
-13
-14
-14
-14
-14
-14
-15
-15
-15
-15
-15
-15
-15
-15
-16
-17
-16
-15
-16
-16
-16
-17
-17
-16
-16
-16
-16
-17
-17
-17
-17
-16
-16
-17
-17
-18
-17
-17
-16
-17
-17
-18
-17
-18
-17
-17
-18
-18
-18
-18
-18
-18
-18
-18
-18
-19
-19
-19
-18
-18
-19
-19
-19
-19
-19
-19
-19
-20
-20
-20
-20
-19
-20
-20
-21
-20
-21
-20
-20
-20
-21
-21
-21
-21
-21
-20
-21
-21
-21
-21
-21
-21
-21
-21
-21
-21
-21
-21
-21
-21
-21
-22
-21
-21
-21
-21
-21
-21
-22
-21
-22
-22
-21
-22
-22
-22
-23
-23
-22
-22
-23
-23
-23
-23
-23
-22
-23
-23
-23
-24
-23
-23
-23
-22
-24
-23
-24
-22
-23
-23
-22
-24
-23
-23
-23
-23
-23
-24
-25
-24
-24
-24
-24
-24
-25
-25
-25
-25
-25
-25
-25
-25
-26
-25
-25
-25
-25
-25
-25
-26
-26
-26
-26
-26
-26
-26
-26
-26
-26
-26
-27
-27
-28
-27
-27
-27
-27
-27
-28
-28
-27
-27
-27
-28
-28
-29
-28
-28
-27
-27
-28
-28
-28
-28
-28
-27
-27
-28
-28
-29
-28
-28
-27
-27
-28
-29
-29
-29
-28
-28
-28
-29
-29
-28
-28
-28
-29
-29
-30
-30
-29
-29
-29
-30
-30
-29
-30
-29
-29
-29
-29
-29
-30
-30
-29
-30
-29
-30
-30
-31
-31
-30
-30
-31
-31
-31
-31
-31
-31
-31
-30
-31
-31
-31
-31
-30
-31
-31
-30
-31
-31
-31
-30
-30
-30
-30
-29
-29
-29
-29
-29
-29
-29
-30
-28
-29
-29
-30
-29
-30
-29
-29
-29
-29
-31
-30
-30
-30
-30
-30
-31
-30
-31
-30
-30
-30
-30
-31
-31
-31
-30
-29
-30
-29
-29
-30
-29
-28
-28
-28
-28
-28
-28
-27
-27
-27
-26
-27
-26
-26
-26
-25
-25
-25
-25
-25
-24
-24
-23
-24
-23
-23
-23
-23
-22
-21
-21
-21
-22
-20
-20
-20
-20
-19
-19
-19
-19
-18
-18
-18
-19
-19
-19
-19
-19
-18
-18
-19
-20
-20
-20
-21
-20
-21
-22
-22
-22
-22
-22
-22
-23
-24
-23
-24
-24
-23
-24
-24
-25
-25
-24
-25
-24
-24
-25
-25
-25
-25
-25
-25
-26
-26
-27
-26
-27
-26
-27
-27
-29
-29
-29
-29
-29
-30
-30
-31
-32
-31
-31
-31
-32
-33
-33
-34
-33
-33
-34
-34
-35
-35
-34
-35
-35
