# Simple Text Format
# Sampling Rate (Hz):= 1200.00
# Resolution:= 12
# Labels:= ECG	 V3
# Age:=	23
# Gender:=	Feminino
-259
-259
-259
-258
-257
-257
-257
-258
-257
-257
-257
-257
-257
-257
-258
-258
-258
-257
-257
-258
-259
-260
-259
-259
-259
-260
-261
-262
-262
-262
-262
-263
-263
-264
-265
-266
-266
-266
-266
-267
-268
-269
-269
-269
-270
-270
-271
-272
-273
-273
-273
-273
-274
-275
-275
-277
-277
-276
-277
-277
-278
-279
-279
-279
-279
-279
-280
-281
-281
-280
-280
-281
-281
-282
-282
-282
-282
-282
-282
-283
-284
-284
-284
-284
-284
-284
-285
-285
-285
-285
-286
-286
-286
-286
-286
-286
-287
-286
-286
-287
-288
-288
-288
-288
-287
-287
-288
-288
-289
-288
-288
-287
-288
-288
-289
-289
-289
-288
-289
-289
-290
-290
-290
-290
-291
-291
-291
-292
-292
-293
-293
-292
-293
-293
-294
-294
-294
-293
-293
-294
-294
-294
-293
-293
-292
-292
-292
-292
-292
-291
-290
-290
-290
-289
-290
-290
-289
-288
-288
-288
-288
-288
-288
-287
-286
-286
-287
-287
-287
-286
-286
-285
-286
-286
-286
-286
-285
-285
-285
-286
-286
-285
-285
-285
-284
-284
-285
-285
-285
-284
-283
-283
-283
-283
-284
-283
-283
-283
-282
-282
-283
-284
-283
-283
-282
-282
-282
-282
-283
-283
-281
-282
-281
-282
-282
-282
-282
-282
-282
-281
-281
-282
-282
-281
-281
-281
-281
-282
-281
-281
-281
-280
-281
-281
-281
-281
-281
-281
-281
-280
-281
-281
-281
-280
-280
-280
-280
-281
-280
-281
-280
-280
-280
-280
-280
-280
-280
-280
-280
-281
-280
-281
-280
-280
-280
-280
-281
-282
-282
-281
-281
-281
-281
-282
-282
-283
-282
-282
-283
-283
-284
-283
-284
-283
-283
-283
-283
-284
-284
-284
-284
-284
-284
-285
-285
-285
-284
-285
-284
-285
-285
-285
-286
-285
-285
-285
-285
-286
-285
-286
-284
-285
-285
-285
-286
-286
-286
-286
-285
-286
-286
-286
-286
-286
-286
-286
-287
-287
-287
-286
-286
-287
-286
-287
-287
-287
-287
-287
-287
-288
-288
-288
-288
-288
-287
-287
-288
-288
-289
-288
-288
-288
-288
-288
-289
-290
-289
-289
-289
-289
-289
-290
-289
-289
-289
-289
-290
-290
-291
-290
-290
-289
-290
-291
-291
-291
-290
-290
-290
-290
-291
-291
-291
-291
-290
-290
-291
-291
-291
-291
-291
-290
-291
-292
-291
-292
-292
-292
-291
-291
-292
-292
-292
-291
-291
-291
-292
-292
-292
-292
-292
-292
-292
-292
-293
-292
-292
-291
-292
-292
-292
-292
-292
-292
-291
-291
-292
-292
-292
-292
-292
-291
-292
-293
-292
-293
-292
-293
-292
-293
-293
-293
-293
-293
-293
-292
-293
-293
-293
-293
-292
-293
-292
-293
-293
-293
-292
-292
-292
-292
-292
-292
-292
-292
-291
-291
-292
-292
-292
-292
-292
-291
-291
-292
-292
-292
-293
-292
-291
-292
-293
-292
-292
-292
-292
-292
-292
-292
-292
-292
-292
-291
-292
-292
-292
-292
-292
-291
-291
-291
-291
-292
-291
-291
-290
-290
-291
-292
-291
-292
-291
-291
-290
-291
-292
-292
-292
-292
-291
-292
-292
-293
-292
-292
-291
-291
-292
-292
-293
-292
-292
-291
-292
-292
-293
-293
-292
-292
-292
-292
-292
-293
-293
-292
-291
-292
-292
-292
-292
-292
-292
-291
-291
-292
-292
-292
-292
-292
-291
-292
-292
-292
-292
-292
-292
-291
-292
-292
-293
-292
-292
-293
-292
-293
-293
-293
-293
-292
-292
-292
-292
-292
-292
-292
-292
-291
-291
-292
-291
-291
-290
-291
-291
-291
-291
-291
-291
-291
-291
-290
-292
-291
-292
-291
-291
-291
-292
-292
-292
-292
-291
-291
-292
-292
-291
-292
-291
-291
-290
-291
-291
-291
-291
-290
-290
-290
-289
-289
-290
-289
-288
-289
-288
-289
-288
-289
-288
-287
-286
-286
-287
-286
-286
-286
-284
-284
-284
-285
-284
-284
-283
-283
-283
-283
-282
-282
-282
-281
-281
-280
-280
-280
-280
-279
-278
-278
-278
-278
-278
-277
-277
-275
-275
-276
-275
-275
-274
-274
-273
-273
-273
-273
-273
-272
-272
-272
-272
-272
-273
-272
-273
-273
-274
-274
-275
-275
-276
-276
-276
-277
-279
-280
-281
-281
-282
-282
-283
-284
-285
-285
-286
-285
-286
-287
-287
-287
-287
-287
-287
-288
-288
-289
-289
-288
-288
-288
-288
-289
-289
-288
-288
-288
-288
-289
-289
-290
-289
-289
-290
-290
-291
-291
-291
-291
-291
-291
-292
-292
-292
-292
-292
-292
-293
-293
-292
-293
-293
-293
-293
-294
-295
-295
-294
-294
-295
-294
-294
-295
-295
-296
-294
-295
-294
-295
-295
-295
-295
-295
-294
-295
-295
-295
-294
-294
-294
-294
-294
-295
-294
-294
-294
-294
-293
-294
-294
-294
-293
-293
-294
-293
-294
-294
-293
-293
-292
-293
-293
-294
-293
-293
-293
-293
-293
-293
-293
-293
-292
-292
-292
-292
-293
-292
-292
-291
-291
-290
-289
-289
-289
-288
-287
-285
-283
-282
-280
-279
-277
-274
-271
-268
-265
-262
-259
-254
-250
-246
-241
-238
-234
-229
-224
-220
-216
-214
-211
-210
-209
-208
-208
-210
-212
-215
-218
-222
-227
-234
-242
-252
-261
-270
-279
-288
-298
-308
-318
-327
-336
-345
-354
-362
-370
-377
-383
-388
-392
-396
-398
-400
-402
-402
-402
-401
-401
-400
-397
-396
-392
-389
-386
-382
-379
-375
-370
-366
-362
-357
-354
-349
-346
-342
-338
-333
-330
-327
-325
-322
-318
-315
-312
-309
-307
-305
-303
-300
-298
-296
-294
-294
-291
-290
-288
-287
-286
-285
-286
-285
-284
-284
-283
-283
-283
-283
-283
-283
-282
-282
-282
-282
-283
-282
-282
-282
-283
-282
-282
-283
-282
-282
-281
-282
-282
-282
-282
-282
-281
-282
-281
-281
-282
-282
-281
-281
-281
-281
-282
-281
-281
-281
-280
-281
-281
-282
-281
-280
-281
-281
-280
-281
-281
-280
-280
-280
-281
-280
-281
-281
-281
-280
-281
-280
-281
-281
-281
-281
-280
-280
-280
-281
-281
-281
-281
-280
-281
-281
-282
-281
-282
-281
-281
-281
-282
-282
-282
-282
-281
-281
-281
-281
-281
-280
-280
-279
-278
-279
-279
-279
-278
-277
-276
-276
-276
-275
-275
-274
-274
-273
-274
-273
-273
-273
-272
-272
-272
-271
-271
-271
-271
-270
-269
-270
-270
-271
-270
-269
-269
-269
-269
-269
-269
-270
-269
-269
-269
-269
-269
-269
-269
-269
-268
-268
-268
-268
-268
-268
-266
-266
-266
-266
-267
-266
-265
-265
-265
-264
-264
-264
-264
-263
-262
-263
-263
-263
-263
-262
-262
-261
-262
-262
-261
-261
-260
-260
-260
-259
-259
-259
-259
-259
-258
-258
-258
-258
-257
-257
-256
-256
-256
-256
-256
-256
-255
-256
-256
-256
-256
-256
-255
-255
-255
-256
-255
-256
-255
-255
-254
-255
-255
-255
-256
-256
-255
-254
-255
-255
-255
-255
-255
-255
-254
-255
-255
-256
-255
-255
-255
-254
-255
-255
-256
-255
-256
-255
-255
-255
-257
-257
-257
-256
-256
-255
-256
-257
-256
-257
-256
-256
-256
-256
-256
-256
-257
-256
-256
-256
-257
-257
-257
-257
-256
-257
-257
-258
-257
-256
-256
-256
-255
-256
-255
-256
-255
-255
-254
-254
-254
-254
-254
-253
-252
-252
-253
-253
-252
-252
-251
-251
-251
-252
-252
-252
-252
-252
-252
-252
-253
-253
-254
-253
-253
-254
-254
-255
-256
-256
-256
-257
-257
-258
-259
-259
-259
-259
-260
-261
-262
-262
-263
-263
-263
-264
-265
-265
-266
-266
-266
-266
-266
-268
-269
-268
-268
-269
-269
-270
-271
-271
-271
-271
-272
-272
-273
-274
-274
-273
-273
-274
-274
-275
-275
-275
-275
-275
-276
-276
-276
-276
-276
-276
-277
-276
-277
-277
-278
-278
-278
-278
-278
-278
-279
-279
-279
-279
-279
-280
-280
-279
-280
-279
-279
-280
-280
-280
-280
-280
-279
-280
-279
-280
-280
-280
-280
-279
-279
-279
-281
-281
-281
-280
-280
-281
-281
-281
-281
-281
-281
-281
-281
-281
-281
-282
-282
-281
-281
-282
-282
-283
-282
-281
-282
-282
-282
-282
-282
-282
-281
-281
-281
-282
-281
-281
-281
-280
-280
-281
-280
-280
-280
-279
-279
-279
-279
-279
-279
-279
-279
-278
-279
-279
-279
-279
-278
-278
-278
-278
-279
-279
-279
-278
-278
-278
-278
-279
-279
-279
-277
-278
-277
-278
-278
-278
-278
-278
-278
-278
-278
-279
-278
-278
-278
-278
-278
-278
-278
-278
-278
-277
-278
-278
-279
-278
-277
-277
-277
-278
-278
-278
-278
-278
-278
-277
-278
-279
-279
-278
-278
-278
-278
-278
-279
-279
-278
-278
-278
-278
-279
-279
-278
-278
-279
-279
-279
-279
-279
-279
-279
-278
-279
-279
-280
-279
-279
-278
-278
-279
-279
-280
-280
-280
-280
-280
-280
-281
-281
-280
-280
-280
-280
-280
-281
-281
-280
-281
-281
-281
-281
-281
-281
-281
-282
-282
-282
-282
-282
-283
-283
-282
-283
-283
-283
-283
-284
-283
-283
-284
-284
-285
-285
-285
-284
-284
-285
-285
-285
-286
-285
-285
-285
-286
-287
-286
-285
-286
-286
-287
-287
-287
-287
-287
-286
-287
-287
-287
-287
-287
-287
-287
-287
-287
-287
-287
-287
-286
-286
-287
-287
-288
-288
-288
-287
-287
-287
-288
-288
-288
-287
-288
-288
-288
-288
-288
-288
-288
-288
-289
-289
-289
-289
-289
-288
-288
-288
-289
-290
-289
-289
-288
-289
-289
-289
-289
-289
-289
-289
-289
-290
-290
-289
-289
-289
-289
-290
-290
-290
-290
-289
-289
-289
-289
-289
-290
-290
-289
-289
-290
-291
-290
-290
-290
-290
-290
-291
-291
-291
-291
-291
-290
-291
-291
-291
-291
-291
-292
-292
-293
-293
-293
-293
-293
-293
-294
-294
-294
-294
-294
-294
-293
-294
-295
-295
-295
-295
-294
-294
-295
-295
-295
-295
-294
-294
-294
-294
-295
-294
-294
-294
-293
-293
-293
-293
-294
-292
-292
-292
-293
-292
-293
-292
-291
-291
-291
-291
-291
-291
-291
-290
-290
-291
-291
-291
-291
-291
-291
-291
-291
-291
-291
-291
-290
-290
-291
-291
-291
-291
-291
-291
-291
-291
-291
-291
-291
-291
-291
-291
-291
-291
-291
-291
-291
-290
-290
-290
-291
-292
-291
-291
-290
-291
-291
-291
-291
-291
-291
-291
-291
-292
-291
-291
-291
-291
-291
-291
-292
-292
-291
-291
-292
-291
-292
-292
-292
-292
-292
-292
-291
-293
-292
-292
-292
-292
-292
-292
-292
-292
-292
-292
-292
-292
-292
-293
-293
-292
-292
-292
-292
-292
-293
-292
-292
-292
-292
-292
-292
-292
-291
-291
-290
-291
-291
-291
-291
-289
-289
-289
-289
-290
-289
-289
-289
-288
-288
-288
-287
-287
-287
-286
-285
-286
-286
-285
-285
-284
-284
-283
-284
-284
-283
-283
-282
-282
-282
-282
-282
-282
-282
-281
-281
-281
-281
-280
-280
-279
-279
-278
-278
-277
-278
-277
-276
-276
-275
-275
-276
-276
-275
-275
-274
-275
-276
-276
-276
-277
-277
-278
-278
-280
-281
-282
-282
-283
-283
-285
-285
-286
-287
-287
-286
-287
-288
-289
-289
-289
-289
-289
-290
-291
-290
-291
-290
-291
-291
-291
-291
-291
-291
-291
-290
-290
-290
-291
-291
-291
-290
-291
-291
-292
-292
-293
-293
-292
-292
-293
-294
-294
-294
-294
-294
-294
-294
-295
-295
-295
-295
-296
-296
-297
-296
-297
-296
-296
-297
-297
-298
-297
-297
-297
-296
-297
-297
-297
-296
-296
-296
-296
-296
-297
-296
-296
-296
-296
-295
-295
-296
-296
-295
-295
-295
-295
-295
-296
-296
-294
-294
-294
-295
-295
-294
-295
-294
-294
-294
-294
-294
-294
-294
-292
-293
-293
-293
-293
-292
-292
-292
-292
-292
-292
-292
-292
-292
-290
-291
-291
-290
-290
-288
-287
-286
-285
-284
-283
-280
-279
-277
-274
-271
-269
-266
-262
-258
-253
-249
-245
-241
-235
-230
-226
-220
-217
-213
-209
-205
-202
-200
-198
-198
-198
-200
-201
-204
-208
-214
-220
-229
-237
-246
-256
-265
-276
-287
-298
-309
-318
-329
-340
-351
-360
-370
-378
-386
-393
-399
-405
-410
-413
-416
-417
-418
-418
-419
-418
-418
-415
-412
-410
-407
-403
-400
-395
-391
-386
-381
-376
-371
-367
-361
-356
-351
-346
-342
-338
-334
-330
-326
-322
-320
-317
-313
-311
-307
-305
-302
-300
-299
-297
-295
-293
-291
-290
-289
-287
-287
-285
-284
-283
-283
-283
-282
-281
-281
-280
-280
-280
-280
-280
-279
-279
-279
-279
-279
-279
-279
-279
-277
-278
-277
-277
-278
-277
-277
-276
-276
-276
-277
-276
-275
-275
-275
-275
-274
-274
-273
-273
-272
-272
-272
-272
-271
-270
-270
-270
-269
-269
-269
-269
-267
-267
-266
-266
-266
-267
-265
-265
-265
-264
-264
-264
-264
-264
-263
-263
-263
-263
-263
-263
-263
-262
-262
-262
-262
-262
-261
-261
-261
-261
-260
-260
-261
-260
-260
-260
-259
-260
-260
-260
-259
-259
-259
-258
-258
-259
-259
-258
-258
-257
-257
-258
-257
-257
-257
-257
-256
-257
-257
-257
-256
-255
-256
-256
-256
-257
-257
-255
-255
-255
-255
-256
-255
-255
-255
-255
-255
-255
-255
-255
-254
-254
-254
-254
-254
-254
-254
-253
-253
-253
-253
-253
-253
-253
-253
-252
-253
-253
-254
-254
-253
-253
-252
-253
-253
-254
-254
-252
-252
-252
-253
-253
-253
-253
-253
-252
-252
-252
-254
-253
-253
-252
-252
-251
-252
-252
-252
-252
-251
-251
-251
-252
-251
-251
-250
-250
-250
-250
-251
-251
-250
-250
-250
-250
-250
-251
-251
-250
-249
-249
-250
-251
-251
-251
-250
-250
-250
-250
-251
-251
-250
-251
-250
-250
-250
-251
-251
-251
-251
-251
-251
-251
-253
-252
-252
-252
-251
-252
-253
-253
-253
-253
-253
-253
-254
-254
-254
-254
-253
-253
-254
-254
-254
-254
-254
-254
-254
-254
-255
-255
-254
-254
-254
-254
-254
-254
-254
-254
-253
-253
-253
-254
-253
-253
-252
-251
-251
-252
-251
-251
-251
-250
-250
-249
-248
-249
-248
-247
-247
-246
-246
-246
-246
-245
-245
-244
-243
-243
-244
-244
-243
-242
-242
-242
-242
-243
-243
-243
-242
-243
-243
-244
-244
-244
-244
-244
-245
-246
-247
-247
-247
-247
-247
-247
-248
-248
-249
-249
-249
-250
-250
-251
-252
-251
-253
-252
-253
-253
-255
-255
-255
-255
-256
-256
-257
-258
-258
-259
-259
-259
-259
-260
-261
-261
-261
-261
-261
-262
-263
-263
-263
-263
-263
-263
-264
-265
-265
-265
-264
-265
-265
-265
-265
-265
-265
-265
-266
-266
-267
-267
-266
-266
-265
-265
-266
-267
-267
-266
-265
-266
-266
-266
-267
-267
-267
-266
-266
-266
-267
-268
-267
-267
-266
-267
-267
-267
-268
-267
-267
-267
-268
-268
-267
-268
-267
-267
-267
-267
-268
-269
-268
-268
-268
-268
-268
-269
-269
-269
-268
-268
-269
-269
-270
-270
-269
-269
-269
-269
-269
-269
-269
-268
-269
-268
-269
-269
-270
-270
-269
-270
-269
-270
-270
-270
-270
-270
-270
-270
-270
-270
-270
-270
-270
-270
-271
-271
-271
-270
-269
-270
-269
-269
-270
-269
-269
-268
-268
-269
-268
-268
-267
-267
-266
-265
-266
-266
-265
-265
-264
-263
-264
-264
-264
-264
-263
-262
-262
-263
-263
-263
-262
-262
-262
-262
-262
-263
-262
-261
-261
-261
-261
-261
-261
-262
-261
-261
-261
-261
-262
-261
-261
-260
-260
-261
-261
-262
-262
-261
-261
-261
-261
-261
-262
-262
-261
-261
-261
-261
-262
-262
-261
-261
-261
-261
-261
-262
-262
-261
-262
-261
-261
-261
-262
-262
-262
-262
-262
-262
-263
-263
-262
-262
-263
-262
-262
-263
-264
-263
-263
-263
-263
-264
-263
-263
-263
-264
-264
-264
-264
-264
-264
-264
-263
-264
-265
-265
-265
-265
-265
-264
-265
-266
-266
-266
-266
-266
-266
-266
-266
-267
-266
-266
-265
-266
-266
-266
-266
-266
-265
-265
-266
-266
-266
-266
-266
-266
-266
-266
-266
-266
-266
-266
-266
-267
-267
-267
-267
-267
-267
-267
-267
-267
-268
-268
-267
-267
-267
-268
-268
-268
-268
-268
-267
-267
-268
-268
-268
-268
-267
-267
-268
-268
-268
-268
-268
-268
-268
-268
-268
-268
-268
-267
-267
-267
-268
-268
-267
-267
-267
-267
-268
-267
-268
-268
-268
-268
-268
-268
-268
-268
-267
-267
-266
-267
-268
-268
-268
-268
-267
-268
-268
-268
-268
-268
-268
-267
-267
-269
-269
-269
-269
-268
-268
-268
-268
-268
-268
-268
-267
-268
-268
-268
-268
-268
-268
-267
-267
-267
-268
-267
-267
-267
-266
-266
-266
-267
-267
-266
-266
-267
-266
-267
-267
-267
-267
-266
-266
-267
-267
-268
-267
-267
-266
-266
-267
-268
-267
-267
-267
-267
-267
-267
-267
-267
-267
-267
-267
-267
-268
-268
-268
-267
-267
-267
-268
-268
-268
-268
-268
-268
-268
-269
-268
-269
-268
-268
-268
-269
-269
-269
-268
-268
-267
-267
-268
-269
-268
-268
-268
-267
-268
-268
-269
-269
-268
-268
-268
-269
-268
-268
-268
-268
-267
-267
-268
-268
-269
-268
-267
-268
-268
-268
-269
-269
-268
-268
-268
-268
-268
-268
-268
-267
-267
-267
-267
-267
-267
-267
-266
-265
-266
-266
-266
-266
-266
-264
-265
-265
-266
-265
-265
-264
-264
-264
-263
-264
-263
-262
-262
-262
-261
-261
-261
-260
-260
-259
-259
-258
-259
-258
-258
-257
-257
-256
-256
-256
-256
-256
-254
-254
-254
-254
-254
-254
-253
-252
-252
-252
-252
-252
-252
-250
-251
-251
-250
-250
-250
-250
-249
-250
-250
-251
-252
-252
-252
-252
-253
-254
-256
-256
-257
-257
-257
-258
-259
-261
-261
-262
-262
-263
-263
-264
-264
-265
-265
-265
-265
-266
-267
-267
-267
-267
-267
-267
-267
-267
-267
-267
-266
-267
-267
-267
-267
-267
-267
-267
-267
-267
-268
-268
-267
-267
-268
-268
-268
-269
-270
-270
-270
-270
-270
-271
-271
-272
-271
-271
-271
-272
-272
-273
-272
-272
-272
-271
-272
-272
-273
-273
-272
-271
-272
-272
-273
-273
-273
-272
-272
-273
-273
-273
-273
-272
-272
-272
-272
-273
-273
-272
-272
-272
-272
-272
-273
-273
-272
-272
-272
-272
-272
-272
-271
-271
-271
-271
-271
-271
-271
-271
-270
-270
-270
-270
-270
-270
-270
-270
-270
-270
-269
-269
-269
-268
-268
-268
-268
-267
-266
-265
-264
-263
-262
-261
-259
-256
-254
-252
-249
-246
-243
-240
-236
-231
-226
-222
-218
-214
-209
-203
-199
-194
-192
-188
-185
-183
-182
-181
-181
-184
-186
-189
-193
-197
-203
-211
-220
-229
-240
-249
-259
-270
-280
-291
-302
-311
-321
-331
-340
-349
-357
-364
-370
-376
-380
-384
-387
-389
-390
-391
-391
-390
-389
-388
-387
-384
-381
-378
-375
-371
-367
-363
-359
-354
-349
-344
-340
-336
-332
-327
-322
-318
-314
-312
-307
-304
-301
-297
-294
-291
-289
-286
-283
-280
-278
-277
-274
-273
-271
-269
-268
-267
-266
-265
-265
-263
-263
-262
-261
-261
-262
-261
-261
-259
-259
-259
-259
-259
-259
-258
-258
-258
-258
-258
-258
-258
-257
-257
-257
-257
-257
-257
-257
-255
-256
-256
-255
-256
-255
-255
-255
-255
-255
-255
-256
-256
-255
-254
-254
-255
-256
-255
-255
-254
-254
-254
-255
-256
-255
-255
-254
-255
-255
-256
-256
-256
-256
-256
-256
-256
-256
-257
-257
-256
-256
-256
-256
-256
-256
-256
-256
-255
-255
-256
-256
-256
-255
-255
-254
-254
-254
-254
-254
-252
-252
-252
-251
-252
-251
-251
-249
-250
-249
-249
-249
-248
-247
-247
-246
-246
-246
-246
-246
-246
-245
-245
-244
-244
-244
-244
-244
-244
-243
-244
-244
-244
-244
-243
-243
-244
-244
-243
-243
-243
-242
-242
-242
-242
-242
-242
-242
-241
-241
-242
-242
-242
-242
-241
-241
-241
-242
-242
-241
-241
-240
-240
-240
-241
-241
-240
-240
-239
-239
-239
-240
-239
-238
-238
-238
-238
-238
-238
-238
-237
-237
-237
-238
-238
-238
-237
-237
-237
-237
-237
-237
-237
-236
-235
-235
-235
-236
-236
-235
-235
-234
-234
-234
-234
-234
-234
-233
-233
-234
-234
-234
-234
-233
-233
-232
-234
-234
-233
-233
-233
-233
-233
-232
-233
-233
-233
-232
-232
-232
-232
-234
-233
-232
-233
-232
-233
-233
-233
-233
-233
-233
-233
-233
-233
-234
-234
-233
-233
-235
-235
-235
-235
-235
-235
-235
-235
-235
-236
-235
-236
-235
-236
-236
-236
-236
-235
-236
-236
-235
-236
-237
-236
-236
-235
-235
-236
-236
-236
-235
-234
-234
-234
-235
-235
-234
-234
-233
-233
-233
-233
-233
-233
-233
-232
-232
-232
-232
-232
-232
-231
-231
-231
-232
-232
-232
-232
-232
-232
-233
-233
-234
-234
-234
-234
-235
-235
-236
-237
-238
-238
-238
-238
-239
-240
-240
-240
-241
-241
-242
-243
-244
-244
-244
-245
-245
-247
-247
-248
-248
-248
-248
-249
-250
-250
-251
-251
-251
-251
-252
-252
-253
-253
-253
-253
-253
-254
-255
-255
-255
-255
-255
-255
-255
-256
-256
-256
-256
-256
-257
-257
-258
-258
-258
-257
-258
-258
-258
-259
-259
-258
-258
-258
-258
-260
-260
-259
-259
-259
-259
-259
-260
-260
-259
-259
-260
-261
-261
-260
-261
-261
-260
-260
-261
-261
-262
-261
-261
-261
-262
-262
-262
-262
-261
-262
-262
-262
-263
-262
-263
-262
-262
-262
-263
-263
-263
-262
-262
-262
-263
-263
-263
-263
-263
-263
-263
-263
-263
-263
-263
-263
-262
-262
-262
-262
-262
-262
-262
-262
-261
-262
-263
-262
-261
-261
-261
-261
-262
-261
-262
-261
-261
-261
-261
-262
-262
-261
-261
-260
-261
-261
-262
-262
-261
-261
-260
-261
-261
-262
-261
-260
-261
-260
-260
-260
-260
-260
-260
-260
-260
-260
-261
-261
-260
-260
-260
-260
-261
-260
-260
-260
-259
-259
-260
-261
-261
-260
-260
-260
-260
-260
-261
-261
-260
-260
-260
-260
-261
-261
-261
-261
-260
-260
-261
-261
-261
-261
-261
-260
-261
-261
-261
-261
-261
-260
-260
-261
-261
-262
-261
-261
-260
-261
-261
-262
-261
-262
-262
-261
-262
-262
-262
-262
-262
-261
-261
-262
-263
-263
-263
-263
-262
-262
-263
-264
-264
-263
-263
-263
-264
-264
-265
-265
-265
-265
-265
-265
-266
-267
-266
-265
-265
-266
-266
-267
-267
-266
-267
-266
-267
-267
-268
-268
-267
-267
-267
-268
-268
-269
-268
-268
-267
-268
-269
-269
-269
-269
-268
-269
-269
-270
-270
-270
-270
-270
-270
-270
-270
-271
-270
-270
-270
-270
-271
-271
-271
-270
-270
-270
-271
-271
-271
-271
-271
-271
-270
-271
-272
-272
-271
-271
-271
-271
-272
-272
-272
-272
-271
-271
-272
-272
-273
-273
-273
-273
-273
-273
-273
-274
-273
-273
-273
-274
-274
-274
-274
-274
-274
-274
-275
-275
-276
-275
-275
-275
-275
-275
-276
-277
-276
-276
-275
-275
-276
-277
-276
-276
-276
-276
-276
-276
-276
-276
-276
-276
-276
-276
-277
-278
-277
-277
-276
-276
-277
-277
-277
-278
-277
-276
-277
-278
-278
-278
-278
-278
-278
-278
-279
-280
-279
-279
-278
-279
-279
-280
-281
-280
-280
-280
-280
-281
-281
-281
-281
-281
-281
-281
-282
-283
-282
-282
-282
-282
-283
-283
-283
-283
-283
-284
-283
-285
-284
-284
-285
-285
-285
-285
-286
-285
-286
-284
-285
-284
-284
-285
-284
-284
-284
-284
-283
-283
-284
-284
-283
-283
-282
-282
-283
-283
-283
-282
-282
-282
-282
-282
-282
-282
-281
-281
-281
-281
-281
-281
-281
-280
-279
-280
-280
-280
-279
-279
-278
-278
-278
-278
-278
-278
-278
-277
-278
-278
-277
-277
-277
-277
-277
-278
-278
-278
-278
-277
-278
-278
-278
-278
-278
-278
-278
-277
-278
-278
-278
-278
-278
-278
-278
-277
-278
-278
-277
-277
-277
-277
-277
-278
-278
-278
-277
-278
-278
-278
-279
-279
-278
-278
-278
-279
-279
-279
-278
-278
-278
-278
-278
-278
-279
-279
-277
-278
-279
-279
-279
-279
-279
-279
-278
-278
-278
-279
-279
-278
-278
-278
-278
-279
-280
-279
-279
-278
-279
-279
-279
-279
-279
-279
-278
-278
-278
-279
-279
-278
-278
-278
-278
-278
-279
-279
-278
-278
-278
-279
-279
-279
-279
-278
-279
-279
-279
-279
-279
-278
-278
-278
-279
-279
-279
-279
-278
-278
-278
-279
-279
-279
-279
-278
-279
-279
-279
-279
-278
-278
-278
-278
-278
-279
-278
-278
-278
-278
-277
-277
-278
-278
-277
-276
-276
-277
-277
-276
-276
-275
-275
-275
-275
-275
-275
-275
-273
-274
-273
-273
-273
-273
-273
-271
-271
-272
-272
-271
-270
-269
-268
-268
-268
-269
-268
-267
-266
-265
-265
-265
-265
-263
-263
-262
-261
-260
-260
-260
-259
-258
-256
-255
-255
-255
-254
-253
-252
-251
-251
-251
-251
-251
-250
-250
-250
-250
-251
-251
-251
-251
-252
-252
-253
-254
-255
-255
-256
-256
-257
-258
-259
-259
-259
-259
-260
-261
-262
-262
-262
-262
-261
-261
-262
-263
-263
-263
-262
-263
-263
-264
-263
-263
-264
-263
-264
-263
-264
-264
-263
-263
-262
-264
-264
-264
-264
-263
-263
-264
-264
-265
-265
-265
-265
-264
-265
-265
-266
-267
-266
-266
-267
-267
-267
-268
-268
-268
-268
-267
-268
-268
-268
-268
-268
-268
-268
-268
-268
-268
-267
-267
-267
-266
-267
-267
-268
-268
-267
-266
-267
-268
-267
-267
-267
-267
-266
-267
-267
-268
-267
-267
-267
-267
-267
-267
-267
-266
-266
-266
-266
-266
-267
-267
-266
-266
-266
-266
-267
-266
-266
-266
-265
-265
-265
-265
-265
-264
-264
-263
-262
-262
-262
-261
-259
-257
-256
-254
-253
-251
-249
-246
-242
-240
-236
-232
-229
-225
-220
-215
-211
-208
-203
-200
-195
-192
-188
-186
-185
-185
-184
-184
-186
-188
-191
-196
-201
-206
-214
-222
-231
-241
-251
-261
-270
-280
-290
-300
-310
-319
-328
-336
-344
-351
-359
-365
-370
-373
-376
-378
-380
-382
-382
-382
-381
-379
-377
-375
-373
-371
-367
-364
-359
-355
-351
-348
-344
-339
-335
-330
-326
-322
-319
-316
-311
-308
-304
-301
-298
-296
-293
-290
-287
-284
-282
-281
-278
-276
-274
-273
-271
-270
-269
-268
-267
-266
-265
-265
-264
-264
-263
-262
-262
-262
-261
-261
-261
-261
-260
-260
-260
-261
-260
-260
-259
-259
-259
-260
-260
-260
-259
-259
-258
-258
-258
-258
-259
-259
-257
-257
-257
-258
-258
-258
-258
-257
-257
-257
-257
-257
-256
-256
-256
-256
-256
-256
-256
-256
-255
-255
-255
-255
-256
-255
-255
-254
-254
-254
-254
-255
-254
-254
-253
-253
-254
-254
-253
-253
-253
-253
-253
-253
-253
-253
-253
-252
-253
-253
-253
-253
-252
-252
-252
-252
-252
-252
-252
-253
-251
-252
-252
-252
-252
-252
-251
-251
-251
-251
-252
-251
-252
-251
-251
-251
-250
-252
-251
-251
-250
-249
-250
-250
-250
-250
-249
-249
-249
-250
-250
-249
-250
-249
-249
-249
-249
-249
-250
-249
-249
-249
-249
-249
-250
-250
-250
-249
-249
-249
-250
-250
-250
-250
-249
-249
-250
-250
-251
-250
-250
-250
-250
-250
-251
-252
-251
-251
-251
-253
-253
-252
-253
-252
-252
-252
-252
-252
-252
-251
-251
-250
-250
-250
-250
-249
-249
-248
-247
-248
-247
-246
-245
-245
-244
-243
-243
-243
-243
-242
-241
-240
-240
-240
-240
-240
-239
-238
-238
-238
-238
-238
-237
-236
-237
-237
-237
-237
-236
-236
-236
-235
-235
-236
-236
-235
-235
-234
-234
-234
-235
-234
-234
-233
-234
-233
-233
-234
-234
-234
-234
-234
-234
-234
-234
-234
-234
-234
-234
-235
-234
-235
-235
-234
-234
-234
-234
-235
-235
-235
-234
-234
-235
-235
-236
-235
-235
-234
-234
-235
-235
-235
-234
-234
-234
-234
-234
-235
-235
-234
-234
-233
-234
-234
-234
-234
-233
-233
-233
-233
-233
-233
-233
-232
-232
-232
-233
-233
-233
-233
-232
-232
-233
-233
-234
-234
-234
-234
-234
-235
-235
-236
-236
-236
-236
-236
-237
-238
-238
-238
-238
-239
-239
-240
-241
-241
-241
-242
-242
-243
-243
-244
-244
-244
-245
-245
-246
-246
-247
-247
-247
-248
-248
-249
-250
-250
-250
-250
-250
-251
-252
-252
-252
-253
-252
-252
-253
-254
-254
-255
-255
-254
-255
-255
-256
-256
-256
-256
-257
-257
-257
-257
-258
-257
-257
-257
-258
-258
-259
-258
-258
-258
-258
-258
-259
-259
-258
-258
-258
-258
-259
-259
-259
-259
-258
-259
-259
-260
-259
-260
-259
-259
-259
-260
-260
-260
-259
-259
-259
-260
-260
-261
-260
-260
-260
-260
-259
-260
-260
-260
-259
-260
-259
-260
-260
-260
-259
-259
-259
-260
-260
-260
-260
-259
-258
-258
-259
-259
-259
-258
-258
-258
-258
-259
-258
-258
-258
-257
-258
-257
-258
-258
-258
-257
-257
-257
-257
-257
-257
-257
-256
-256
-256
-256
-257
-257
-256
-256
-255
-255
-255
-255
-254
-254
-254
-254
-254
-254
-254
-253
-253
-252
-253
-253
-253
-253
-252
-252
-252
-252
-252
-252
-252
-252
-251
-250
-251
-251
-252
-251
-251
-250
-250
-250
-251
-251
-250
-250
-250
-251
-251
-252
-251
-250
-250
-250
-251
-251
-251
-251
-251
-251
-250
-251
-251
-251
-251
-251
-251
-252
-252
-252
-251
-251
-250
-251
-251
-251
-252
-251
-251
-252
-251
-252
-252
-252
-252
-252
-252
-253
-253
-253
-253
-253
-253
-253
-253
-253
-254
-254
-253
-254
-255
-255
-255
-255
-256
-255
-255
-256
-256
-257
-257
-257
-256
-257
-257
-258
-258
-258
-258
-259
-258
-259
-259
-260
-260
-259
-260
-260
-260
-261
-260
-260
-261
-260
-260
-260
-261
-261
-260
-261
-261
-261
-261
-261
-262
-261
-261
-261
-261
-262
-261
-261
-262
-262
-262
-263
-263
-263
-262
-263
-263
-264
-265
-265
-264
-264
-264
-265
-265
-265
-265
-265
-264
-264
-265
-265
-266
-265
-265
-266
-266
-266
-266
-266
-266
-266
-266
-267
-267
-267
-267
-267
-266
-266
-267
-267
-268
-267
-267
-267
-267
-267
-268
-268
-268
-267
-268
-268
-268
-268
-268
-268
-268
-268
-268
-268
-268
-269
-268
-268
-268
-268
-269
-269
-268
-268
-268
-269
-269
-270
-269
-269
-268
-269
-269
-269
-270
-269
-269
-270
-269
-270
-270
-270
-270
-270
-270
-271
-271
-270
-271
-270
-270
-270
-270
-271
-271
-271
-270
-271
-270
-271
-271
-272
-272
-271
-272
-272
-272
-273
-272
-272
-272
-273
-273
-273
-274
-274
-273
-274
-273
-274
-275
-276
-275
-275
-275
-275
-276
-275
-276
-275
-275
-275
-275
-276
-275
-276
-275
-275
-275
-275
-276
-276
-275
-275
-275
-276
-276
-277
-276
-276
-276
-275
-276
-276
-277
-276
-276
-276
-276
-276
-277
-276
-277
-277
-277
-276
-277
-277
-277
-277
-277
-277
-277
-278
-278
-278
-278
-278
-278
-278
-278
-279
-279
-279
-279
-279
-280
-279
-280
-279
-279
-279
-279
-280
-280
-280
-279
-280
-280
-280
-280
-280
-281
-281
-281
-280
-282
-281
-281
-281
-281
-281
-282
-283
-283
-283
-283
-283
-284
-284
-284
-284
-285
-284
-285
-286
-286
-287
-286
-287
-287
-287
-287
-287
-288
-288
-288
-288
-288
-289
-289
-289
-289
-288
-289
-289
-290
-290
-289
-288
-288
-288
-289
-289
-288
-288
-288
-287
-287
-287
-287
-286
-286
-286
-285
-285
-286
-285
-284
-284
-283
-283
-282
-282
-282
-281
-281
-280
-280
-281
-280
-279
-279
-278
-277
-277
-277
-276
-276
-274
-274
-274
-273
-273
-273
-273
-271
-272
-271
-271
-271
-270
-270
-269
-269
-269
-268
-269
-268
-267
-267
-266
-266
-266
-266
-265
-265
-264
-264
-264
-263
-263
-263
-262
-262
-262
-262
-261
-261
-260
-260
-259
-259
-260
-259
-259
-258
-258
-259
-258
-258
-258
-259
-259
-259
-260
-260
-261
-262
-262
-263
-263
-264
-266
-267
-267
-268
-269
-269
-271
-271
-272
-272
-272
-272
-273
-273
-274
-273
-274
-274
-274
-274
-274
-274
-274
-273
-274
-273
-275
-275
-275
-274
-274
-274
-275
-275
-275
-276
-276
-275
-276
-277
-277
-278
-277
-277
-277
-277
-279
-279
-279
-279
-279
-279
-280
-280
-281
-281
-281
-280
-281
-280
-281
-281
-281
-280
-280
-280
-282
-281
-282
-281
-281
-281
-280
-281
-281
-281
-281
-280
-281
-281
-281
-281
-281
-280
-281
-280
-281
-280
-280
-281
-279
-280
-279
-279
-280
-279
-279
-279
-279
-278
-278
-279
-278
-278
-278
-278
-279
-278
-278
-278
-278
-277
-278
-278
-277
-277
-276
-276
-276
-275
-276
-275
-275
-273
-272
-271
-271
-269
-269
-266
-264
-262
-260
-258
-256
-253
-248
-244
-241
-236
-233
-228
-223
-218
-212
-208
-204
-200
-195
-192
-188
-186
-185
-184
-185
-185
-186
-188
-191
-196
-202
-209
-217
-225
-235
-245
-254
-264
-274
-285
-295
-305
-315
-325
-334
-343
-350
-358
-365
-371
-377
-381
-384
-387
-388
-389
-389
-390
-389
-388
-386
-384
-381
-378
-374
-371
-367
-363
-358
-353
-349
-345
-341
-336
-332
-327
-323
-320
-316
-312
-309
-305
-302
-299
-296
-293
-290
-288
-285
-283
-282
-280
-278
-276
-273
-273
-272
-271
-270
-269
-267
-266
-267
-267
-266
-265
-265
-265
-264
-264
-264
-264
-264
-263
-263
-262
-263
-263
-263
-263
-263
-262
-263
-263
-262
-263
-262
-262
-262
-262
-262
-263
-262
-262
-262
-262
-262
-263
-263
-263
-263
-262
-262
-262
-262
-262
-262
-261
-261
-262
-262
-261
-262
-262
-261
-261
-261
-261
-262
-261
-261
-260
-261
-261
-261
-261
-261
-260
-260
-261
-261
-261
-261
-260
-260
-260
-261
-261
-261
-260
-260
-260
-260
-260
-260
-260
-260
-260
-260
-259
-261
-260
-261
-259
-260
-259
-260
-260
-261
-260
-260
-260
-260
-261
-260
-260
-260
-260
-260
-260
-260
-260
-259
-259
-260
-259
-260
-260
-260
-260
-260
-259
-259
-260
-260
-260
-260
-260
-259
-259
-260
-261
-260
-259
-260
-260
-260
-260
-260
-260
-260
-259
-260
-260
-261
-260
-260
-259
-260
-260
-260
-261
-260
-260
-260
-260
-260
-260
-260
-260
-260
-260
-260
-261
-260
-260
-260
-259
-259
-260
-260
-260
-260
-260
-259
-259
-258
-259
-258
-259
-258
-257
-258
-258
-258
-257
-257
-256
-256
-257
-257
-257
-256
-255
-255
-255
-255
-255
-255
-254
-253
-254
-254
-254
-253
-253
-253
-252
-252
-252
-252
-252
-251
-251
-251
-251
-251
-252
-252
-252
-251
-251
-251
-251
-251
-251
-250
-251
-250
-250
-250
-250
-250
-249
-249
-250
-250
-249
-250
-250
-249
-249
-249
-250
-250
-250
-250
-250
-250
-250
-251
-250
-250
-250
-250
-250
-251
-251
-250
-249
-249
-249
-249
-249
-249
-249
-248
-248
-247
-248
-248
-248
-247
-246
-245
-246
-245
-245
-244
-243
-242
-242
-242
-242
-242
-241
-240
-239
-239
-239
-240
-240
-239
-239
-238
-239
-240
-239
-240
-239
-239
-239
-239
-240
-240
-241
-240
-241
-241
-241
-242
-243
-243
-243
-243
-245
-245
-246
-247
-246
-247
-247
-248
-250
-251
-251
-251
-251
-252
-253
-254
-254
-255
-255
-256
-255
-257
-258
-257
-258
-258
-258
-259
-259
-260
-261
-260
-260
-260
-261
-261
-261
-261
-261
-260
-261
-262
-262
-262
-262
-262
-262
-263
-263
-264
-263
-263
-263
-263
-264
-264
-265
-264
-264
-264
-265
-265
-266
-265
-265
-265
-265
-266
-265
-266
-265
-265
-265
-265
-265
-266
-266
-266
-266
-265
-266
-266
-266
-266
-266
-266
-266
-266
-266
-267
-267
-266
-265
-266
-266
-266
-266
-266
-266
-265
-265
-266
-266
-266
-265
-265
-265
-265
-265
-265
-265
-264
-264
-264
-264
-264
-265
-264
-264
-263
-264
-263
-264
-264
-264
-264
-263
-264
-264
-264
-263
-263
-263
-263
-264
-264
-264
-264
-263
-262
-263
-263
-264
-264
-263
-263
-262
-263
-263
-262
-263
-262
-262
-261
-262
-262
-262
-262
-261
-261
-261
-262
-261
-261
-262
-261
-261
-261
-262
-261
-261
-261
-261
-261
-260
-261
-261
-261
-260
-260
-261
-261
-261
-261
-260
-260
-260
-260
-260
-261
-260
-260
-260
-260
-259
-260
-260
-260
-259
-260
-259
-260
-261
-261
-260
-259
-260
-260
-261
-260
-260
-260
-260
-260
-261
-261
-261
-261
-261
-261
-261
-261
-262
-261
-262
-262
-261
-262
-262
-263
-263
-263
-263
-263
-262
-264
-263
-264
-264
-264
-264
-264
-264
-265
-264
-265
-264
-264
-266
-266
-266
-266
-266
-266
-267
-268
-268
-268
-268
-268
-269
-269
-271
-271
-271
-271
-271
-272
-274
-273
-273
-273
-274
-273
-274
-274
-275
-274
-274
-274
-274
-274
-274
-274
-274
-273
-273
-273
-273
-273
-273
-272
-272
-272
-271
-272
-271
-272
-270
-270
-270
-270
-271
-270
-271
-269
-269
-270
-270
-270
-270
-269
-269
-269
-269
-269
-270
-269
-269
-268
-269
-270
-269
-269
-269
-269
-268
-269
-269
-268
-269
-268
-268
-267
-267
-268
-267
-268
-267
-267
-267
-267
-267
-267
-267
-266
-266
-266
-267
-267
-267
-266
-266
-266
-265
-266
-267
-266
-265
-265
-265
-266
-266
-266
-266
-265
-265
-265
-266
-266
-266
-265
-265
-265
-266
-266
-267
-266
-266
-266
-266
-267
-267
-267
-267
-267
-266
-267
-267
-267
-267
-267
-266
-266
-266
-266
-267
-266
-266
-266
-266
-266
-267
-267
-266
-266
-265
-265
-265
-266
-265
-265
-265
-265
-265
-266
-266
-265
-265
-265
-265
-265
-266
-266
-265
-265
-265
-265
-265
-266
-266
-266
-265
-265
-265
-266
-266
-265
-265
-264
-265
-266
-266
-266
-265
-265
-264
-264
-265
-265
-265
-264
-264
-264
-264
-265
-264
-264
-263
-264
-264
-264
-264
-264
-264
-263
-263
-263
-263
-263
-263
-263
-262
-262
-262
-262
-262
-261
-260
-260
-259
-260
-260
-260
-259
-257
-258
-257
-257
-257
-256
-256
-256
-255
-255
-255
-255
-254
-254
-253
-253
-253
-254
-253
-253
-252
-252
-251
-251
-251
-251
-250
-250
-250
-249
-249
-249
-248
-247
-246
-245
-246
-245
-245
-244
-243
-243
-243
-243
-244
-243
-243
-243
-243
-244
-244
-245
-245
-246
-246
-247
-248
-249
-250
-251
-251
-251
-252
-253
-254
-255
-255
-254
-255
-255
-257
-256
-257
-256
-257
-257
-257
-258
-258
-258
-257
-257
-257
-258
-257
-258
-257
-257
-257
-257
-257
-258
-258
-257
-257
-258
-258
-259
-259
-259
-259
-259
-260
-260
-260
-260
-260
-261
-260
-261
-261
-262
-261
-261
-261
-262
-262
-263
-262
-262
-262
-261
-262
-262
-263
-262
-262
-262
-262
-262
-263
-262
-262
-261
-262
-262
-262
-263
-262
-262
-261
-261
-261
-262
-262
-262
-261
-261
-261
-261
-262
-261
-262
-260
-261
-260
-261
-261
-261
-261
-260
-260
-261
-261
-261
-260
-260
-259
-259
-259
-259
-260
-259
-259
-258
-258
-259
-259
-258
-256
-256
-255
-254
-254
-253
-251
-249
-247
-244
-242
-240
-238
-234
-231
-227
-222
-219
-214
-210
-205
-200
-194
-190
-185
-182
-178
-173
-170
-168
-165
-164
-164
-165
-166
-169
-172
-178
-183
-190
-198
-207
-216
-226
-237
-246
-257
-267
-277
-288
-299
-309
-318
-327
-335
-344
-351
-357
-363
-369
-372
-375
-377
-379
-381
-381
-380
-379
-378
-376
-374
-373
-369
-366
-361
-357
-352
-348
-344
-339
-334
-329
-324
-320
-316
-311
-307
-302
-298
-295
-291
-288
-286
-282
-278
-275
-274
-272
-270
-268
-266
-263
-262
-261
-260
-258
-257
-256
-255
-254
-254
-253
-253
-253
-252
-251
-251
-251
-251
-251
-250
-250
-250
-250
-250
-250
-250
-250
-250
-249
-249
-250
-250
-250
-249
-249
-249
-249
-249
-249
-250
-249
-248
-249
-249
-250
-249
-248
-248
-248
-248
-248
-249
-249
-248
-248
-248
-248
-249
-249
-248
-248
-247
-248
-247
-248
-247
-247
-245
-245
-245
-245
-245
-244
-244
-243
-242
-242
-241
-241
-241
-240
-240
-239
-239
-239
-238
-238
-237
-237
-236
-236
-236
-236
-235
-235
-235
-235
-234
-234
-234
-234
-234
-233
-234
-233
-233
-232
-231
-232
-231
-231
-232
-231
-231
-230
-230
-230
-231
-230
-230
-230
-229
-229
-230
-229
-229
-229
-229
-229
-228
-229
-229
-229
-228
-228
-227
-228
-228
-228
-228
-227
-226
-227
-227
-227
-227
-227
-227
-226
-226
-226
-226
-226
-225
-225
-225
-225
-226
-226
-225
-224
-224
-224
-224
-224
-224
-223
-223
-223
-222
-222
-223
-222
-222
-221
-221
-221
-222
-221
-220
-220
-220
-221
-221
-221
-221
-220
-220
-219
-220
-220
-220
-219
-219
-219
-219
-219
-220
-219
-219
-219
-218
-219
-219
-219
-219
-219
-218
-218
-218
-218
-219
-219
-218
-219
-218
-219
-219
-219
-219
-218
-218
-218
-219
-219
-219
-218
-219
-218
-219
-219
-219
-219
-219
-219
-219
-219
-220
-220
-220
-220
-220
-220
-220
-220
-220
-221
-220
-220
-221
-221
-221
-221
-221
-221
-221
-221
-221
-222
-222
-221
-221
-222
-223
-223
-222
-223
-222
-222
-221
-223
-222
-221
-221
-221
-221
-221
-221
-221
-221
-220
-219
-219
-220
-219
-219
-218
-217
-216
-216
-217
-217
-216
-215
-215
-216
-215
-215
-215
-215
-214
-214
-214
-215
-215
-215
-215
-215
-215
-215
-216
-216
-216
-216
-216
-217
-218
-219
-219
-219
-219
-219
-220
-221
-222
-222
-222
-222
-222
-223
-224
-224
-225
-225
-225
-225
-226
-228
-228
-228
-229
-228
-229
-231
-230
-231
-231
-232
-232
-232
-233
-233
-234
-234
-233
-234
-235
-235
-235
-235
-235
-235
-236
-236
-237
-236
-236
-237
-237
-237
-238
-237
-238
-238
-238
-238
-238
-239
-240
-239
-239
-239
-240
-240
-241
-240
-241
-240
-240
-241
-241
-241
-241
-241
-241
-241
-241
-242
-241
-242
-242
-241
-241
-242
-242
-243
-242
-242
-241
-242
-242
-242
-242
-242
-241
-242
-242
-242
-243
-242
-242
-241
-241
-242
-242
-241
-241
-240
-241
-241
-241
-241
-241
-241
-240
-241
-241
-241
-241
-241
-241
-241
-241
-241
-241
-240
-240
-240
-240
-241
-241
-240
-241
-240
-240
-240
-241
-240
-241
-240
-240
-239
-240
-239
-240
-239
-239
-238
-238
-238
-238
-238
-237
-237
-237
-236
-237
-237
-237
-236
-236
-235
-236
-236
-236
-235
-235
-235
-235
-234
-236
-235
-235
-234
-234
-235
-235
-235
-235
-235
-235
-234
-234
-235
-235
-236
-235
-235
-234
-235
-235
-236
-235
-235
-235
-235
-236
-236
-236
-236
-236
-236
-236
-237
-237
-237
-236
-236
-236
-237
-237
-238
-238
-238
-237
-238
-239
-239
-239
-238
-239
-238
-239
-239
-240
-240
-240
-239
-240
-240
-240
-241
-240
-240
-241
-240
-241
-241
-242
-241
-241
-241
-242
-242
-243
-242
-242
-242
-243
-242
-243
-243
-244
-243
-244
-243
-244
-244
-244
-245
-244
-244
-244
-244
-245
-245
-245
-245
-245
-244
-246
-245
-246
-245
-244
-245
-246
-246
-246
-246
-246
-245
-246
-246
-247
-247
-247
-247
-247
-246
-246
-247
-247
-246
-247
-247
-247
-248
-248
-248
-248
-247
-248
-248
-248
-248
-248
-247
-247
-248
-249
-249
-249
-248
-248
-248
-249
-249
-249
-249
-249
-248
-249
-249
-250
-249
-249
-249
-248
-249
-249
-250
-250
-250
-249
-249
-250
-250
-250
-250
-250
-250
-250
-250
-250
-251
-250
-250
-250
-249
-250
-250
-251
-250
-250
-249
-250
-250
-251
-250
-250
-250
-249
-251
-251
-251
-250
-250
-251
-251
-251
-251
-252
-252
-251
-251
-252
-252
-253
-252
-252
-252
-253
-254
-254
-253
-253
-253
-254
-253
-255
-254
-255
-254
-253
-254
-255
-255
-255
-254
-254
-254
-255
-255
-256
-255
-256
-255
-254
-255
-255
-256
-256
-255
-255
-255
-256
-256
-257
-256
-256
-256
-257
-257
-258
-257
-257
-257
-257
-258
-258
-259
-258
-258
-258
-258
-258
-259
-259
-259
-259
-258
-259
-259
-259
-259
-258
-258
-258
-257
-257
-257
-257
-256
-256
-255
-256
-256
-255
-256
-254
-255
-254
-254
-254
-254
-252
-252
-252
-252
-252
-253
-252
-251
-251
-251
-251
-251
-251
-251
-250
-251
-251
-251
-251
-251
-251
-251
-251
-251
-251
-251
-251
-251
-250
-251
-250
-251
-251
-251
-250
-250
-250
-251
-251
-252
-250
-250
-250
-251
-251
-251
-251
-250
-251
-250
-251
-251
-252
-251
-252
-251
-252
-253
-253
-253
-252
-253
-253
-254
-254
-254
-254
-254
-254
-254
-255
-255
-256
-255
-255
-255
-255
-256
-256
-256
-255
-255
-255
-254
-254
-255
-254
-254
-253
-253
-254
-253
-253
-253
-251
-252
-251
-251
-252
-251
-250
-250
-250
-249
-249
-249
-249
-248
-247
-246
-247
-247
-246
-245
-245
-244
-244
-243
-244
-243
-242
-242
-241
-241
-242
-241
-240
-240
-239
-239
-239
-239
-239
-238
-238
-237
-238
-237
-237
-237
-235
-235
-235
-235
-235
-235
-234
-234
-233
-234
-234
-234
-235
-234
-235
-235
-236
-237
-238
-238
-239
-238
-240
-241
-241
-243
-243
-244
-244
-245
-246
-247
-248
-248
-247
-248
-249
-250
-250
-250
-250
-250
-251
-251
-251
-252
-251
-251
-251
-251
-251
-252
-252
-252
-251
-252
-253
-253
-252
-252
-252
-252
-252
-253
-253
-254
-255
-254
-255
-255
-255
-256
-256
-257
-256
-257
-257
-258
-258
-258
-258
-258
-258
-258
-259
-259
-259
-259
-259
-259
-259
-260
-259
-260
-259
-260
-260
-260
-261
-261
-261
-261
-261
-261
-261
-261
-261
-261
-260
-261
-261
-261
-261
-261
-261
-260
-261
-261
-261
-261
-260
-260
-259
-259
-260
-259
-260
-259
-259
-259
-259
-259
-259
-260
-260
-259
-260
-260
-259
-260
-260
-258
-259
-258
-258
-258
-257
-256
-255
-254
-254
-252
-250
-249
-246
-244
-242
-239
-236
-233
-230
-226
-221
-217
-214
-210
-205
-200
-196
-192
-188
-185
-182
-179
-178
-177
-177
-179
-181
-183
-187
-190
-195
-202
-210
-219
-228
-238
-248
-258
-268
-279
-289
-299
-308
-317
-327
-336
-344
-352
-358
-363
-368
-373
-377
-379
-381
-381
-381
-381
-381
-379
-378
-375
-372
-370
-367
-363
-359
-355
-350
-346
-341
-337
-333
-329
-325
-320
-316
-312
-309
-305
-302
-298
-295
-291
-289
-287
-284
-281
-278
-277
-274
-272
-271
-270
-268
-267
-265
-264
-264
-263
-262
-261
-261
-260
-260
-259
-260
-259
-258
-258
-258
-257
-258
-257
-258
-257
-257
-257
-257
-257
-256
-256
-255
-256
-256
-256
-257
-256
-256
-255
-255
-255
-255
-255
-255
-255
-254
-254
-255
-255
-255
-254
-254
-254
-254
-254
-255
-254
-254
-253
-254
-253
-254
-254
-253
-253
-253
-253
-253
-254
-254
-254
-253
-253
-253
-253
-254
-253
-254
-253
-253
-253
-254
-254
-255
-254
-254
-255
-255
-255
-255
-254
-254
-254
-254
-254
-255
-254
-253
-253
-253
-253
-253
-253
-252
-252
-251
-251
-251
-251
-251
-250
-249
-249
-249
-249
-249
-248
-248
-247
-247
-247
-247
-247
-246
-246
-245
-245
-245
-246
-246
-245
-245
-244
-244
-244
-245
-244
-243
-243
-243
-243
-243
-243
-243
-243
-242
-242
-242
-242
-242
-241
-241
-241
-241
-241
-241
-241
-241
-240
-240
-239
-240
-240
-239
-239
-239
-239
-240
-240
-240
-239
-238
-239
-238
-238
-239
-238
-237
-237
-237
-236
-237
-237
-236
-236
-235
-235
-235
-235
-235
-235
-234
-234
-234
-234
-234
-233
-233
-232
-232
-232
-232
-232
-232
-231
-231
-230
-230
-230
-230
-230
-229
-228
-229
-229
-228
-228
-228
-227
-227
-227
-227
-228
-228
-227
-226
-227
-227
-227
-227
-226
-227
-226
-226
-227
-227
-227
-226
-226
-226
-226
-226
-226
-226
-226
-225
-226
-226
-226
-226
-226
-226
-226
-226
-226
-226
-226
-226
-225
-225
-226
-226
-226
-226
-225
-225
-225
-225
-225
-226
-225
-225
-225
-225
-226
-225
-225
-225
-225
-225
-225
-225
-224
-224
-224
-223
-224
-224
-224
-223
-223
-222
-222
-222
-223
-223
-223
-222
-222
-222
-222
-222
-222
-222
-223
-222
-223
-223
-224
-224
-224
-223
-224
-224
-225
-225
-226
-226
-225
-226
-227
-228
-228
-229
-228
-229
-229
-230
-231
-231
-232
-232
-232
-233
-234
-235
-236
-235
-235
-236
-236
-237
-237
-238
-238
-237
-238
-239
-239
-239
-239
-238
-239
-240
-240
-241
-240
-241
-241
-240
-241
-241
-242
-242
-241
-242
-242
-242
-242
-242
-243
-243
-243
-243
-243
-244
-244
-244
-244
-244
-245
-245
-244
-245
-245
-244
-244
-245
-245
-245
-245
-244
-245
-244
-245
-246
-245
-244
-244
-244
-244
-245
-245
-245
-244
-244
-244
-244
-245
-244
-245
-244
-244
-244
-245
-244
-244
-244
-243
-244
-243
-243
-244
-244
-243
-244
-244
-244
-245
-245
-244
-244
-244
-244
-244
-244
-244
-243
-243
-243
-243
-243
-243
-243
-242
-242
-241
-242
-242
-242
-241
-241
-241
-240
-241
-241
-241
-240
-240
-240
-239
-240
-239
-240
-239
-238
-239
-239
-239
-239
-238
-238
-238
-238
-238
-238
-238
-237
-237
-237
-237
-237
-237
-237
-236
-237
-236
-237
-236
-237
-236
-236
-235
-236
-237
-236
-236
-236
-235
-236
-235
-236
-236
-236
-235
-235
-236
-236
-235
-236
-236
-236
-235
-235
-236
-235
-235
-235
-235
-234
-234
-235
-235
-235
-234
-234
-235
-235
-236
-236
-235
-235
-235
-235
-236
-237
-236
-235
-236
-235
-236
-236
-236
-236
-236
-236
-236
-236
-236
-236
-237
-237
-236
-237
-237
-237
-237
-237
-237
-237
-238
-238
-239
-238
-238
-238
-238
-238
-239
-240
-239
-239
-239
-240
-240
-241
-241
-240
-240
-240
-241
-241
-242
-241
-241
-241
-241
-242
-242
-242
-242
-242
-241
-242
-243
-243
-244
-243
-243
-243
-244
-244
-245
-244
-244
-245
-244
-245
-245
-246
-246
-245
-245
-246
-247
-247
-246
-247
-246
-247
-246
-247
-247
-247
-247
-247
-247
-247
-248
-248
-248
-248
-248
-247
-249
-249
-249
-248
-248
-249
-249
-249
-250
-250
-250
-250
-251
-251
-251
-251
-251
-251
-252
-252
-252
-253
-253
-253
-252
-253
-253
-253
-254
-254
-254
-253
-254
-255
-254
-255
-255
-254
-254
-255
-255
-255
-255
-255
-254
-255
-255
-255
-256
-255
-255
-255
-255
-256
-256
-257
-256
-257
-256
-257
-258
-259
-259
-259
-258
-259
-259
-260
-260
-261
-260
-261
-260
-261
-261
-261
-261
-261
-261
-261
-261
-262
-262
-261
-260
-260
-261
-261
-261
-260
-260
-259
-260
-259
-260
-260
-259
-259
-258
-259
-259
-259
-258
-258
-257
-256
-257
-257
-257
-256
-256
-255
-255
-255
-256
-256
-255
-255
-254
-254
-254
-254
-254
-253
-253
-253
-253
-254
-253
-253
-253
-253
-253
-253
-253
-253
-254
-253
-253
-253
-254
-253
-254
-253
-253
-253
-252
-253
-253
-253
-252
-253
-253
-253
-253
-253
-253
-252
-253
-252
-253
-253
-253
-253
-252
-253
-252
-252
-253
-252
-252
-251
-252
-252
-252
-252
-252
-251
-251
-251
-252
-252
-252
-252
-251
-251
-251
-252
-252
-252
-251
-252
-252
-252
-252
-252
-252
-251
-251
-252
-252
-253
-252
-252
-252
-252
-252
-252
-253
-252
-252
-251
-252
-252
-253
-252
-252
-251
-251
-251
-252
-252
-251
-251
-250
-250
-250
-250
-251
-250
-250
-249
-249
-249
-250
-250
-250
-248
-248
-249
-249
-248
-248
-248
-247
-246
-246
-247
-247
-246
-245
-244
-244
-244
-244
-244
-243
-243
-242
-241
-241
-241
-241
-240
-239
-238
-239
-238
-239
-238
-237
-237
-236
-237
-236
-236
-236
-236
-235
-234
-234
-235
-234
-233
-232
-232
-232
-233
-232
-232
-232
-231
-231
-232
-233
-233
-233
-233
-234
-235
-235
-236
-237
-238
-238
-238
-239
-241
-242
-243
-243
-244
-244
-245
-245
-246
-247
-247
-247
-248
-248
-249
-249
-248
-248
-248
-249
-249
-248
-249
-248
-248
-247
-248
-248
-249
-248
-248
-247
-248
-248
-249
-249
-249
-249
-249
-249
-250
-251
-250
-250
-251
-251
-251
-253
-253
-252
-253
-252
-253
-254
-254
-254
-254
-253
-254
-254
-254
-255
-254
-254
-254
-254
-254
-255
-255
-254
-254
-254
-254
-254
-254
-255
-253
-253
-253
-253
-254
-253
-254
-253
-253
-254
-254
-254
-254
-254
-253
-253
-253
-253
-254
-253
-253
-252
-252
-252
-252
-252
-252
-252
-251
-250
-251
-251
-251
-250
-250
-250
-250
-250
-250
-250
-249
-249
-249
-248
-248
-248
-246
-245
-244
-243
-242
-240
-238
-236
-233
-230
-227
-224
-221
-217
-213
-208
-204
-199
-196
-190
-186
-181
-176
-173
-169
-167
-164
-162
-160
-160
-161
-163
-165
-168
-172
-177
-184
-191
-200
-209
-218
-228
-237
-248
-258
-268
-279
-288
-297
-306
-316
-325
-332
-340
-345
-350
-354
-358
-361
-363
-364
-364
-364
-364
-363
-362
-360
-358
-354
-351
-348
-345
-341
-337
-333
-328
-323
-320
-316
-312
-307
-303
-299
-296
-292
-289
-286
-283
-279
-278
-275
-272
-270
-268
-265
-263
-262
-260
-259
-258
-255
-255
-254
-252
-252
-252
-250
-250
-249
-249
-249
-248
-249
-248
-248
-248
-248
-248
-249
-249
-249
-248
-249
-249
-249
-250
-249
-250
-249
-249
-249
-249
-249
-249
-249
-249
-248
-248
-249
-248
-248
-247
-247
-247
-247
-247
-247
-246
-246
-245
-246
-246
-246
-245
-244
-244
-243
-243
-244
-243
-242
-242
-242
-241
-240
-241
-240
-240
-240
-239
-239
-239
-239
-238
-238
-238
-238
-237
-237
-238
-237
-237
-236
-236
-236
-237
-237
-236
-236
-235
-236
-236
-236
-236
-234
-234
-234
-234
-234
-235
-234
-233
-233
-233
-233
-233
-234
-233
-233
-232
-233
-233
-233
-233
-233
-232
-232
-233
-233
-233
-233
-233
-232
-232
-232
-233
-233
-233
-232
-231
-232
-232
-232
-232
-231
-231
-231
-230
-230
-231
-230
-230
-229
-229
-229
-229
-229
-229
-228
-229
-229
-229
-229
-229
-228
-228
-228
-228
-229
-228
-229
-227
-228
-227
-228
-228
-229
-228
-228
-228
-227
-228
-228
-228
-228
-227
-227
-227
-228
-227
-227
-226
-226
-226
-226
-226
-226
-226
-225
-225
-225
-226
-225
-225
-224
-224
-224
-224
-224
-224
-224
-223
-223
-223
-223
-224
-223
-223
-223
-222
-223
-223
-223
-223
-222
-221
-222
-222
-222
-223
-223
-222
-222
-221
-222
-222
-222
-222
-222
-222
-222
-224
-224
-224
-223
-223
-223
-223
-224
-224
-225
-224
-224
-224
-224
-225
-225
-225
-224
-224
-224
-225
-225
-225
-224
-224
-224
-224
-224
-224
-224
-224
-224
-224
-224
-224
-225
-224
-224
-224
-223
-223
-224
-223
-223
-222
-222
-222
-221
-221
-221
-220
-219
-218
-219
-219
-218
-218
-217
-215
-215
-216
-215
-215
-214
-213
-213
-213
-214
-215
-213
-214
-214
-213
-214
-215
-215
-215
-215
-215
-216
-217
-217
-218
-217
-217
-218
-219
-219
-220
-220
-220
-221
-221
-222
-223
-223
-224
-224
-224
-225
-226
-227
-226
-226
-227
-228
-227
-229
-230
-230
-229
-230
-230
-231
-231
-232
-232
-232
-233
-233
-234
-234
-235
-234
-234
-234
-235
-235
-236
-235
-235
-236
-236
-237
-237
-237
-236
-237
-236
-237
-237
-238
-237
-238
-237
-238
-237
-239
-238
-239
-238
-238
-238
-239
-239
-239
-239
-240
-239
-239
-239
-240
-239
-239
-240
-239
-240
-240
-240
-240
-240
-239
-240
-240
-239
-240
-240
-239
-240
-239
-239
-240
-240
-240
-239
-240
-239
-240
-240
-240
-240
-239
-240
-241
-240
-241
-240
-240
-240
-241
-241
-241
-241
-240
-240
-240
-241
-241
-241
-241
-241
-241
-241
-241
-241
-241
-241
-241
-241
-240
-242
-241
-241
-240
-240
-240
-241
-241
-241
-241
-240
-240
-240
-240
-241
-241
-240
-240
-240
-240
-240
-241
-240
-240
-239
-239
-240
-240
-240
-239
-239
-239
-239
-239
-240
-240
-239
-239
-239
-239
-239
-240
-240
-238
-239
-238
-239
-239
-240
-239
-239
-239
-239
-239
-240
-239
-240
-240
-240
-239
-240
-240
-240
-240
-240
-240
-240
-242
-241
-242
-242
-241
-242
-242
-243
-243
-243
-243
-242
-243
-243
-244
-244
-244
-243
-243
-244
-245
-245
-245
-245
-245
-245
-246
-247
-246
-247
-247
-247
-247
-247
-248
-248
-248
-247
-247
-248
-249
-249
-249
-249
-249
-250
-250
-250
-251
-251
-252
-251
-252
-253
-253
-254
-253
-253
-254
-254
-255
-256
-255
-255
-255
-256
-257
-257
-257
-256
-256
-257
-257
-258
-258
-258
-257
-257
-257
-257
-258
-258
-258
-256
-257
-257
-257
-256
-256
-255
-255
-255
-255
-255
-255
-254
-254
-253
-253
-253
-253
-253
-253
-252
-253
-252
-253
-253
-254
-253
-252
-252
-252
-253
-252
-252
-252
-252
-252
-252
-253
-252
-253
-253
-252
-253
-253
-253
-253
-253
-252
-253
-253
-253
-253
-253
-253
-253
-253
-253
-254
-253
-253
-252
-253
-253
-253
-253
-253
-253
-253
-252
-253
-253
-253
-253
-253
-253
-253
-253
-254
-253
-254
-254
-253
-253
-254
-254
-254
-254
-253
-254
-254
-254
-254
-254
-254
-253
-253
-254
-254
-255
-254
-253
-254
-254
-254
-254
-254
-255
-254
-254
-254
-254
-254
-254
-254
-254
-254
-253
-255
-254
-254
-253
-254
-254
-254
-254
-254
-253
-253
-254
-254
-254
-255
-254
-253
-253
-253
-254
-254
-255
-254
-254
-253
-254
-254
-254
-254
-254
-254
-254
-253
-254
-254
-254
-254
-253
-252
-252
-253
-253
-253
-252
-252
-251
-252
-252
-252
-251
-251
-251
-250
-250
-251
-250
-250
-249
-249
-248
-249
-248
-248
-247
-247
-247
-247
-247
-247
-246
-245
-245
-244
-244
-244
-243
-243
-242
-242
-242
-243
-242
-241
-241
-240
-240
-240
-241
-241
-240
-240
-239
-239
-239
-239
-238
-238
-237
-236
-237
-237
-236
-236
-235
-235
-235
-235
-235
-236
-236
-236
-237
-237
-238
-239
-239
-239
-240
-241
-242
-243
-244
-244
-245
-246
-246
-247
-248
-249
-249
-249
-250
-250
-251
-251
-250
-251
-251
-251
-252
-252
-251
-252
-252
-251
-251
-251
-252
-252
-252
-252
-252
-252
-253
-253
-253
-253
-252
-253
-253
-254
-254
-255
-255
-254
-255
-256
-256
-257
-256
-256
-257
-257
-258
-258
-258
-257
-257
-257
-258
-258
-258
-258
-257
-257
-257
-258
-258
-258
-257
-257
-257
-257
-257
-257
-257
-257
-257
-257
-256
-258
-257
-257
-256
-256
-256
-257
-257
-257
-256
-256
-256
-256
-257
-256
-255
-255
-255
-255
-255
-255
-255
-254
-254
-253
-253
-254
-254
-254
-253
-253
-253
-253
-254
-253
-253
-252
-252
-251
-251
-251
-251
-249
-247
-246
-245
-244
-243
-241
-238
-236
-234
-231
-228
-225
-221
-216
-212
-207
-202
-197
-193
-188
-183
-178
-174
-170
-166
-163
-161
-158
-157
-157
-158
-160
-162
-166
-169
-175
-182
-190
-199
-209
-219
-229
-240
-251
-262
-273
-284
-295
-304
-315
-326
-335
-344
-351
-358
-365
-371
-375
-379
-381
-383
-385
-385
-386
-385
-384
-382
-380
-377
-375
-371
-368
-363
-359
-354
-348
-344
-339
-334
-329
-324
-319
-314
-310
-306
-302
-298
-294
-290
-287
-284
-280
-277
-274
-271
-268
-266
-264
-262
-260
-257
-255
-253
-252
-251
-249
-247
-246
-245
-244
-243
-243
-242
-240
-239
-239
-239
-238
-238
-238
-237
-237
-236
-236
-235
-235
-235
-235
-234
-235
-234
-235
-234
-233
-233
-233
-232
-232
-232
-231
-231
-231
-231
-231
-231
-231
-230
-230
-229
-230
-230
-229
-229
-229
-229
-228
-228
-228
-228
-228
-227
-228
-227
-227
-228
-228
-227
-227
-226
-227
-227
-227
-226
-226
-225
-226
-226
-226
-226
-226
-225
-225
-226
-225
-225
-225
-225
-224
-225
-224
-224
-225
-224
-223
-223
-222
-223
-223
-222
-222
-221
-221
-222
-221
-221
-221
-221
-221
-220
-221
-221
-220
-221
-220
-219
-220
-220
-221
-220
-220
-219
-220
-220
-220
-219
-220
-220
-219
-218
-219
-219
-219
-219
-218
-218
-218
-218
-219
-219
-219
-218
-219
-218
-218
-219
-219
-218
-218
-218
-219
-219
-219
-219
-218
-218
-218
-218
-219
-219
-219
-219
-219
-219
-219
-219
-220
-220
-219
-219
-220
-220
-220
-221
-220
-220
-220
-220
-220
-221
-220
-220
-220
-220
-220
-220
-220
-221
-220
-220
-220
-220
-221
-220
-219
-219
-219
-219
-219
-219
-219
-219
-218
-218
-219
-218
-219
-218
-217
-217
-216
-216
-217
-216
-216
-215
-215
-215
-215
-215
-215
-214
-213
-214
-214
-214
-213
-214
-213
-213
-213
-213
-214
-213
-213
-213
-213
-213
-214
-214
-213
-214
-214
-214
-214
-215
-215
-215
-215
-215
-215
-216
-216
-216
-216
-215
-215
-216
-216
-217
-217
-216
-216
-216
-216
-217
-216
-216
-215
-216
-216
-216
-216
-215
-215
-213
-214
-213
-214
-213
-212
-211
-211
-211
-210
-210
-209
-209
-208
-207
-207
-206
-207
-206
-206
-205
-204
-204
-204
-204
-204
-204
-203
-204
-204
-203
-204
-204
-204
-204
-205
-205
-205
-205
-205
-205
-206
-206
-207
-208
-208
-208
-209
-209
-210
-211
-211
-211
-212
-211
-212
-213
-214
-214
-214
-214
-214
-215
-217
-217
-217
-217
-218
-218
-219
-220
-220
-221
-220
-221
-221
-222
-222
-222
-222
-223
-223
-223
-224
-224
-224
-224
-223
-224
-225
-225
-225
-225
-225
-224
-225
-226
-226
-227
-226
-226
-226
-226
-227
-226
-227
-227
-226
-227
-227
-227
-227
-227
-227
-226
-227
-227
-227
-227
-227
-226
-226
-227
-227
-227
-228
-228
-227
-227
-227
-228
-228
-228
-228
-227
-227
-228
-228
-228
-227
-227
-227
-227
-228
-228
-228
-227
-227
-227
-228
-227
-227
-227
-227
-227
-227
-227
-227
-227
-227
-226
-225
-226
-226
-227
-226
-226
-225
-225
-225
-226
-225
-225
-224
-225
-225
-225
-225
-225
-225
-225
-225
-224
-226
-225
-225
-224
-225
-225
-225
-226
-226
-225
-225
-225
-225
-225
-225
-225
-225
-225
-224
-225
-225
-225
-225
-223
-224
-224
-224
-224
-223
-224
-224
-223
-223
-223
-223
-223
-223
-223
-223
-223
-224
-224
-223
-223
-224
-224
-224
-225
-225
-224
-224
-224
-225
-225
-225
-225
-225
-224
-224
-225
-225
-225
-225
-225
-224
-225
-225
-226
-225
-225
-225
-225
-225
-225
-225
-225
-225
-225
-225
-225
-226
-226
-226
-225
-226
-226
-227
-228
-227
-227
-226
-227
-227
-228
-228
-229
-229
-228
-228
-229
-229
-230
-229
-229
-230
-229
-231
-230
-231
-231
-230
-231
-231
-231
-232
-232
-232
-232
-232
-232
-232
-233
-233
-232
-232
-232
-233
-233
-234
-234
-233
-233
-233
-234
-234
-234
-234
-234
-234
-234
-234
-234
-234
-234
-234
-234
-235
-235
-235
-234
-234
-234
-235
-235
-236
-236
-236
-235
-235
-236
-236
-237
-237
-236
-236
-237
-237
-238
-238
-237
-237
-237
-238
-238
-238
-238
-238
-237
-237
-238
-238
-238
-239
-238
-237
-238
-239
-238
-239
-238
-238
-238
-239
-239
-240
-239
-240
-239
-239
-240
-240
-241
-240
-240
-240
-240
-241
-241
-242
-242
-241
-241
-242
-242
-243
-243
-243
-242
-242
-243
-243
-244
-244
-244
-243
-244
-245
-245
-245
-244
-244
-244
-245
-245
-246
-245
-245
-245
-244
-244
-244
-244
-243
-243
-243
-243
-243
-242
-242
-242
-241
-240
-240
-240
-240
-239
-238
-238
-238
-237
-238
-237
-237
-236
-236
-236
-236
-237
-236
-236
-235
-235
-235
-236
-235
-236
-235
-235
-234
-235
-235
-236
-235
-234
-234
-234
-234
-235
-235
-234
-234
-234
-233
-234
-234
-233
-233
-234
-233
-234
-234
-234
-234
-234
-234
-234
-234
-235
-234
-235
-235
-234
-235
-235
-235
-234
-234
-235
-235
-234
-235
-235
-235
-235
-234
-234
-235
-235
-235
-235
-234
-235
-235
-235
-235
-235
-235
-235
-235
-234
-235
-235
-235
-235
-235
-235
-235
-236
-236
-235
-235
-235
-236
-236
-236
-236
-236
-235
-236
-236
-237
-237
-237
-236
-235
-236
-237
-237
-237
-236
-236
-235
-236
-235
-236
-235
-235
-234
-234
-234
-234
-234
-233
-233
-232
-233
-232
-232
-232
-231
-231
-231
-230
-230
-230
-229
-229
-228
-228
-228
-228
-227
-227
-226
-226
-226
-225
-225
-225
-225
-224
-224
-224
-224
-224
-223
-222
-221
-221
-222
-221
-222
-221
-220
-220
-220
-220
-220
-220
-219
-219
-218
-218
-219
-218
-218
-218
-218
-218
-219
-219
-220
-219
-219
-220
-221
-222
-223
-224
-224
-225
-226
-227
-227
-228
-229
-229
-229
-229
-230
-231
-231
-232
-231
-232
-232
-232
-233
-234
-233
-233
-233
-233
-233
-233
-233
-233
-233
-233
-233
-233
-234
-234
-233
-234
-234
-234
-234
-236
-235
-235
-236
-236
-237
-238
-238
-238
-238
-238
-239
-239
-240
-240
-240
-239
-240
-240
-241
-241
-241
-240
-240
-240
-241
-241
-241
-240
-240
-240
-240
-241
-240
-240
-239
-240
-239
-240
-240
-240
-239
-239
-239
-240
-240
-239
-240
-239
-239
-239
-240
-240
-239
-239
-239
-239
-239
-239
-240
-240
-239
-239
-238
-239
-239
-239
-239
-238
-238
-238
-238
-239
-238
-238
-238
-238
-238
-238
-238
-238
-237
-237
-237
-237
-236
-236
-235
-234
-233
-231
-231
-230
-228
-226
-223
-221
-218
-216
-213
-209
-205
-201
-197
-193
-189
-184
-180
-176
-171
-167
-163
-160
-157
-155
-153
-153
-153
-155
-157
-160
-163
-168
-174
-181
-189
-199
-208
-218
-228
-238
-249
-260
-271
-281
-290
-300
-308
-317
-326
-333
-339
-344
-349
-352
-356
-358
-359
-359
-359
-358
-357
-357
-354
-352
-349
-346
-342
-338
-335
-331
-326
-321
-316
-311
-307
-303
-298
-294
-290
-285
-282
-278
-275
-271
-268
-264
-262
-260
-257
-255
-252
-250
-247
-246
-245
-243
-242
-240
-239
-237
-236
-236
-235
-235
-233
-233
-232
-232
-233
-232
-232
-231
-231
-230
-231
-230
-231
-231
-229
-229
-230
-231
-230
-230
-230
-229
-229
-229
-229
-229
-229
-229
-228
-229
-229
-229
-228
-228
-228
-228
-227
-228
-228
-228
-227
-226
-227
-226
-227
-227
-226
-226
-226
-226
-226
-226
-226
-225
-225
-225
-226
-226
-225
-225
-225
-225
-225
-225
-224
-225
-225
-224
-224
-224
-225
-225
-224
-224
-224
-224
-223
-223
-224
-223
-223
-223
-222
-223
-223
-223
-223
-222
-222
-222
-223
-223
-223
-223
-222
-222
-222
-223
-223
-223
-222
-221
-222
-222
-222
-222
-222
-222
-221
-222
-222
-222
-222
-222
-221
-221
-221
-221
-222
-221
-220
-220
-221
-221
-221
-221
-220
-220
-219
-220
-220
-220
-220
-219
-219
-218
-219
-219
-219
-219
-218
-218
-218
-218
-219
-219
-218
-217
-218
-217
-217
-218
-217
-217
-217
-217
-217
-218
-217
-217
-216
-216
-216
-217
-216
-216
-216
-215
-215
-215
-216
-215
-215
-215
-214
-214
-215
-215
-215
-215
-214
-213
-214
-214
-214
-214
-214
-214
-214
-214
-214
-214
-214
-213
-214
-213
-214
-214
-214
-213
-213
-212
-213
-213
-213
-214
-213
-213
-213
-213
-213
-214
-213
-213
-213
-213
-214
-214
-214
-214
-215
-215
-215
-215
-216
-216
-216
-216
-216
-216
-217
-217
-217
-217
-217
-217
-217
-218
-218
-217
-217
-216
-217
-217
-217
-217
-217
-217
-216
-216
-216
-217
-216
-215
-215
-214
-215
-215
-215
-215
-214
-214
-213
-213
-213
-213
-212
-212
-211
-211
-212
-211
-211
-210
-210
-210
-209
-210
-210
-209
-209
-209
-208
-209
-209
-209
-208
-208
-208
-209
-209
-209
-209
-209
-209
-209
-210
-210
-211
-211
-210
-211
-212
-212
-213
-213
-213
-213
-214
-215
-216
-216
-217
-217
-217
-218
-218
-219
-219
-220
-220
-220
-221
-222
-223
-224
-224
-223
-224
-225
-225
-226
-227
-227
-226
-227
-227
-228
-229
-229
-229
-229
-230
-230
-231
-231
-231
-231
-232
-232
-232
-233
-233
-232
-233
-234
-234
-234
-234
-235
-235
-234
-235
-236
-236
-236
-236
-236
-236
-237
-237
-237
-237
-236
-236
-236
-236
-237
-237
-237
-237
-236
-237
-237
-237
-237
-236
-236
-236
-237
-237
-238
-238
-238
-237
-237
-238
-238
-238
-238
-238
-237
-238
-238
-239
-239
-238
-238
-238
-238
-239
-239
-239
-238
-238
-238
-239
-239
-239
-238
-238
-238
-238
-239
-239
-239
-239
-238
-239
-239
-239
-239
-240
-238
-238
-238
-238
-239
-239
-239
-238
-238
-238
-238
-239
-239
-238
-238
-237
-237
-238
-237
-237
-236
-236
-236
-236
-237
-236
-236
-236
-236
-236
-236
-236
-236
-236
-235
-236
-235
-235
-236
-235
-234
-234
-234
-235
-235
-235
-235
-235
-234
-234
-234
-235
-234
-234
-234
-234
-234
-234
-235
-234
-233
-233
-233
-234
-234
-234
-234
-234
-233
-234
-234
-234
-234
-234
-234
-234
-234
-234
-235
-234
-234
-234
-234
-233
-235
-234
-234
-233
-233
-234
-234
-234
-234
-234
-234
-234
-235
-235
-234
-235
-235
-234
-234
-235
-235
-235
-236
-234
-235
-234
-235
-235
-235
-235
-235
-234
-235
-235
-236
-236
-236
-235
-235
-236
-236
-237
-236
-236
-236
-236
-237
-238
-238
-237
-237
-237
-238
-238
-239
-239
-238
-238
-238
-239
-239
-239
-239
-239
-239
-239
-240
-240
-240
-241
-240
-239
-240
-240
-241
-241
-241
-241
-241
-241
-241
-241
-242
-241
-242
-241
-242
-242
-242
-243
-242
-242
-243
-243
-244
-243
-243
-244
-244
-243
-245
-244
-245
-244
-244
-245
-245
-246
-245
-246
-246
-245
-245
-245
-246
-246
-246
-246
-246
-247
-247
-246
-247
-247
-246
-247
-247
-248
-248
-247
-247
-247
-247
-248
-248
-248
-248
-247
-248
-247
-248
-248
-248
-247
-248
-247
-248
-248
-248
-249
-248
-248
-248
-249
-249
-248
-248
-249
-249
-249
-249
-249
-249
-249
-249
-249
-250
-250
-250
-249
-249
-250
-250
-250
-250
-250
-250
-250
-250
-250
-251
-251
-251
-250
-251
-250
-251
-251
-252
-251
-251
-251
-252
-252
-252
-252
-251
-251
-251
-252
-252
-252
-252
-252
-251
-251
-252
-252
-252
-252
-252
-252
-252
-252
-253
-252
-252
-251
-251
-252
-252
-252
-253
-252
-251
-252
-253
-252
-253
-252
-252
-252
-253
-253
-252
-253
-252
-252
-252
-252
-253
-253
-253
-252
-252
-252
-253
-253
-253
-253
-253
-253
-254
-254
-253
-254
-254
-253
-253
-254
-254
-255
-254
-254
-254
-254
-254
-255
-255
-255
-254
-254
-255
-255
-255
-255
-254
-254
-254
-255
-255
-255
-254
-254
-254
-254
-254
-255
-255
-254
-254
-254
-254
-254
-255
-254
-254
-253
-253
-254
-254
-255
-254
-254
-254
-254
-255
-254
-255
-255
-254
-254
-255
-255
-255
-255
-255
-254
-254
-255
-255
-255
-254
-254
-254
-254
-254
-255
-255
-255
-255
-254
-255
-255
-255
-255
-254
-254
-254
-255
-255
-255
-255
-254
-254
-254
-254
-255
-254
-254
-253
-254
-254
-254
-253
-252
-252
-251
-251
-251
-251
-251
-250
-250
-250
-249
-249
-250
-249
-248
-248
-247
-247
-247
-247
-247
-245
-245
-245
-245
-245
-245
-244
-243
-243
-243
-243
-243
-243
-242
-242
-241
-241
-241
-241
-240
-240
-240
-238
-239
-238
-238
-238
-237
-238
-237
-238
-238
-238
-238
-237
-238
-238
-239
-239
-239
-240
-240
-240
-242
-243
-244
-245
-245
-245
-246
-247
-248
-249
-249
-250
-250
-250
-251
-252
-252
-252
-252
-253
-253
-253
-254
-253
-253
-253
-254
-254
-255
-254
-254
-254
-254
-255
-255
-256
-255
-254
-255
-255
-255
-256
-256
-256
-255
-256
-257
-257
-258
-258
-258
-258
-258
-259
-259
-259
-259
-259
-259
-259
-260
-260
-261
-260
-260
-260
-260
-261
-261
-261
-261
-261
-261
-260
-260
-261
-261
-260
-260
-260
-261
-261
-260
-261
-261
-260
-260
-260
-261
-260
-261
-261
-260
-260
-261
-261
-260
-260
-259
-260
-260
-260
-261
-260
-259
-259
-259
-260
-260
-260
-259
-259
-259
-259
-260
-259
-259
-258
-258
-258
-259
-259
-259
-259
-258
-257
-257
-257
-257
-256
-255
-253
-253
-251
-250
-249
-246
-244
-241
-238
-236
-233
-230
-225
-221
-218
-213
-209
-206
-202
-197
-192
-188
-186
-183
-181
-179
-178
-178
-178
-180
-182
-185
-189
-193
-200
-208
-215
-225
-234
-243
-252
-261
-271
-281
-291
-300
-309
-317
-326
-334
-341
-347
-353
-357
-361
-365
-368
-369
-370
-370
-369
-368
-368
-367
-365
-362
-358
-355
-352
-348
-344
-340
-335
-331
-327
-322
-319
-315
-310
-306
-302
-298
-294
-291
-288
-285
-281
-278
-275
-273
-271
-269
-266
-264
-261
-259
-258
-257
-256
-255
-253
-252
-251
-251
-250
-249
-248
-247
-247
-247
-247
-246
-246
-246
-245
-245
-245
-244
-244
-244
-243
-242
-242
-243
-242
-243
-241
-241
-241
-241
-241
-241
-241
-240
-240
-240
-241
-241
-241
-240
-239
-239
-240
-240
-240
-240
-238
-238
-238
-239
-239
-238
-239
-238
-238
-238
-238
-239
-238
-238
-237
-237
-237
-237
-237
-237
-237
-236
-236
-236
-236
-236
-236
-235
-235
-235
-235
-236
-236
-235
-235
-234
-234
-235
-235
-235
-234
-234
-233
-233
-233
-233
-234
-232
-233
-232
-232
-233
-233
-232
-232
-233
-233
-233
-233
-232
-232
-232
-232
-232
-232
-232
-232
-231
-231
-231
-231
-232
-231
-231
-231
-231
-231
-231
-231
-231
-229
-230
-229
-230
-230
-230
-230
-229
-229
-228
-229
-229
-229
-229
-228
-229
-228
-228
-229
-228
-228
-227
-228
-227
-228
-228
-228
-227
-227
-227
-228
-227
-227
-227
-227
-226
-226
-226
-226
-226
-226
-225
-225
-224
-225
-225
-224
-224
-223
-223
-224
-224
-224
-223
-223
-223
-222
-222
-223
-222
-221
-221
-221
-221
-221
-222
-221
-221
-220
-220
-220
-221
-220
-220
-219
-219
-220
-220
-220
-220
-220
-219
-219
-219
-220
-219
-220
-219
-219
-218
-219
-219
-219
-219
-218
-218
-218
-219
-219
-219
-218
-217
-218
-218
-219
-219
-218
-219
-219
-219
-219
-220
-219
-220
-220
-220
-220
-221
-221
-221
-220
-221
-220
-221
-222
-222
-222
-221
-222
-222
-222
-222
-222
-222
-222
-222
-222
-222
-223
-223
-222
-222
-222
-221
-223
-223
-222
-222
-221
-221
-221
-222
-221
-221
-221
-220
-220
-221
-221
-221
-220
-220
-220
-220
-221
-221
-220
-220
-219
-219
-220
-221
-220
-220
-220
-220
-220
-221
-221
-221
-221
-221
-222
-222
-223
-224
-224
-224
-224
-225
-225
-226
-227
-228
-228
-227
-229
-229
-230
-230
-230
-231
-231
-231
-233
-233
-234
-234
-233
-234
-235
-236
-236
-237
-236
-237
-238
-238
-239
-238
-239
-239
-239
-240
-240
-241
-241
-240
-241
-242
-242
-243
-243
-244
-243
-244
-244
-245
-245
-245
-244
-245
-245
-246
-246
-247
-246
-246
-246
-247
-248
-248
-248
-247
-247
-247
-248
-248
-249
-249
-249
-248
-248
-249
-249
-250
-249
-249
-249
-250
-250
-251
-251
-250
-250
-250
-251
-251
-251
-251
-251
-251
-251
-251
-252
-252
-251
-251
-251
-251
-251
-252
-252
-251
-251
-251
-252
-252
-251
-252
-252
-251
-251
-252
-252
-252
-251
-251
-251
-251
-251
-252
-252
-251
-251
-251
-250
-251
-251
-251
-250
-250
-250
-251
-251
-251
-250
-250
-250
-250
-251
-251
-251
-251
-250
-250
-250
-250
-251
-250
-250
-250
-250
-250
-250
-250
-249
-249
-250
-249
-250
-250
-250
-249
-248
-248
-249
-249
-249
-249
-247
-247
-247
-248
-248
-248
-248
-247
-248
-247
-248
-249
-248
-248
-248
-248
-247
-248
-248
-248
-248
-247
-247
-248
-248
-248
-248
-248
-247
-248
-248
-248
-248
-248
-247
-247
-248
-248
-249
-248
-248
-248
-248
-249
-249
-249
-248
-248
-248
-249
-250
-249
-249
-250
-250
-249
-249
-250
-251
-250
-250
-250
-250
-251
-251
-251
-252
-250
-251
-251
-252
-252
-252
-251
-251
-251
-252
-252
-251
-252
-251
-251
-251
-251
-252
-252
-252
-252
-252
-252
-252
-252
-253
-253
-253
-253
-253
-254
-255
-254
-254
-254
-254
-255
-255
-256
-255
-255
-255
-255
-256
-256
-256
-256
-256
-256
-257
-257
-257
-257
-257
-256
-257
-257
-258
-258
-258
-257
-258
-258
-258
-258
-258
-259
-258
-259
-258
-259
-259
-259
-259
-258
-258
-259
-259
-260
-259
-259
-259
-259
-260
-260
-260
-260
-259
-260
-260
-261
-261
-261
-260
-260
-260
-261
-261
-261
-261
-261
-261
-261
-261
-261
-261
-262
-262
-261
-261
-262
-262
-262
-262
-262
-262
-263
-263
-262
-263
-263
-262
-263
-263
-264
-263
-263
-263
-263
-264
-264
-264
-265
-265
-264
-264
-265
-266
-266
-265
-266
-265
-266
-266
-267
-268
-267
-267
-267
-267
-268
-268
-268
-267
-268
-268
-268
-269
-268
-269
-269
-268
-269
-269
-270
-269
-270
-270
-270
-270
-271
-271
-271
-271
-271
-271
-272
-272
-273
-272
-272
-272
-273
-273
-273
-273
-274
-274
-274
-274
-274
-275
-274
-275
-275
-275
-276
-276
-277
-276
-276
-277
-277
-277
-278
-278
-278
-278
-278
-279
-279
-280
-280
-280
-279
-279
-280
-280
-280
-280
-280
-280
-279
-280
-281
-281
-280
-280
-280
-280
-281
-281
-281
-281
-280
-280
-281
-281
-281
-281
-281
-280
-281
-281
-282
-282
-281
-281
-281
-282
-282
-282
-282
-281
-282
-282
-282
-282
-282
-283
-282
-283
-282
-283
-283
-283
-284
-283
-283
-283
-284
-284
-284
-283
-284
-284
-283
-284
-284
-284
-284
-284
-284
-284
-284
-284
-285
-285
-284
-284
-284
-285
-285
-285
-285
-285
-285
-285
-286
-286
-285
-286
-285
-287
-287
-287
-286
-286
-286
-286
-288
-287
-287
-287
-286
-286
-287
-286
-286
-285
-285
-284
-285
-285
-284
-284
-283
-282
-282
-282
-281
-282
-281
-279
-279
-279
-278
-278
-278
-276
-276
-275
-274
-275
-274
-274
-273
-272
-272
-271
-271
-271
-270
-270
-269
-269
-269
-269
-269
-269
-267
-266
-266
-266
-267
-265
-265
-265
-264
-264
-264
-264
-264
-263
-263
-263
-264
-264
-265
-265
-265
-265
-265
-267
-268
-268
-268
-270
-270
-271
-272
-273
-272
-272
-273
-273
-274
-275
-275
-275
-275
-275
-275
-275
-276
-277
-276
-276
-276
-276
-276
-276
-276
-276
-275
-275
-276
-276
-277
-276
-276
-276
-276
-276
-277
-277
-277
-277
-277
-277
-278
-278
-279
-278
-278
-278
-279
-279
-280
-280
-280
-279
-280
-280
-281
-281
-280
-281
-280
