# Simple Text Format
# Sampling Rate (Hz):= 1200.00
# Resolution:= 12
# Labels:= ECG	 II
# Age:=	23
# Gender:=	Feminino
263
263
261
259
257
256
256
255
254
252
250
248
247
246
245
244
241
238
236
236
235
234
232
229
227
225
225
224
223
221
218
217
216
215
215
214
212
210
208
208
208
208
206
204
202
201
201
201
201
199
197
196
196
197
197
197
195
194
193
194
194
194
193
192
191
190
191
192
192
191
189
189
189
190
191
191
190
188
188
189
190
190
189
188
187
187
188
189
189
188
186
186
186
187
188
188
187
186
185
186
187
187
187
186
185
185
186
187
187
186
185
185
185
186
187
187
187
186
185
186
187
188
187
186
185
185
186
187
187
186
185
185
185
186
187
187
186
185
185
185
187
187
187
185
185
185
185
187
187
186
185
184
185
186
186
187
186
185
184
185
186
187
186
185
184
184
185
186
186
185
184
184
184
185
186
186
186
185
184
185
186
187
186
185
185
185
185
187
187
187
186
185
186
187
187
188
187
186
185
186
187
187
187
185
184
184
185
186
186
185
184
184
184
185
186
186
185
184
184
185
186
187
186
185
184
184
185
186
187
186
185
184
185
186
187
187
186
185
184
185
186
187
186
185
184
184
185
186
186
185
184
183
184
185
186
186
185
184
184
184
186
186
186
184
183
183
184
185
186
185
184
184
184
185
186
186
185
184
183
184
185
186
185
184
183
183
184
185
186
185
184
184
184
185
186
186
185
184
184
185
186
187
186
185
184
184
185
186
187
186
185
184
184
185
186
186
185
184
184
184
185
185
185
184
182
182
183
184
184
183
182
181
182
183
184
184
183
182
182
182
184
184
184
183
182
182
182
184
184
184
183
182
182
183
184
184
183
182
181
182
183
183
183
182
181
180
181
182
182
182
180
180
180
181
182
182
181
180
180
181
182
183
182
181
180
180
181
182
182
182
180
180
180
181
182
182
181
180
180
181
182
182
182
181
180
180
180
181
182
181
180
179
180
181
181
182
181
180
179
180
181
182
181
180
179
179
180
181
181
181
180
179
180
180
181
181
181
179
179
179
180
181
180
179
178
178
179
180
181
180
180
179
180
181
182
182
182
181
181
182
183
184
183
183
182
182
182
183
184
183
182
182
182
183
184
184
183
182
182
182
183
184
184
182
181
181
182
183
184
183
182
181
182
182
183
184
183
182
181
182
183
184
183
182
181
181
181
182
183
182
181
180
181
181
182
182
181
180
180
180
181
182
181
180
179
179
180
181
181
181
180
179
180
181
181
182
181
180
180
180
181
182
182
180
180
179
180
181
182
181
180
180
180
181
182
182
181
180
180
181
182
183
182
181
180
180
181
182
182
181
180
179
180
180
181
181
181
180
179
180
181
182
181
180
179
179
180
181
182
181
180
180
180
181
182
182
181
180
179
180
181
182
181
180
179
179
180
181
181
181
180
179
179
180
181
182
181
180
180
180
182
182
182
181
180
180
181
183
183
183
183
182
183
184
186
186
186
186
186
187
188
189
189
188
188
188
189
190
191
191
190
190
190
192
193
193
193
192
192
193
194
195
195
194
193
193
194
195
196
195
194
194
194
195
196
197
196
195
195
196
198
199
199
198
197
197
198
200
200
200
199
198
198
199
199
199
198
197
196
196
196
196
195
194
192
191
191
192
192
191
189
189
188
189
190
190
189
188
188
188
189
190
190
189
188
188
188
189
190
189
188
187
187
187
188
188
187
185
184
184
185
185
184
183
181
180
180
181
181
181
179
178
178
179
180
180
179
177
177
177
178
179
178
177
176
176
177
178
178
178
177
176
177
178
179
179
178
178
177
178
179
180
180
179
178
177
178
179
180
180
179
178
178
179
180
180
180
178
178
178
179
180
180
179
178
177
178
179
179
179
178
177
177
178
179
180
179
178
178
178
179
180
180
179
178
177
178
179
179
179
177
177
177
178
179
180
179
179
179
181
183
185
186
188
189
192
196
201
206
210
215
220
226
233
241
248
255
262
270
280
291
302
311
321
330
340
351
362
372
380
387
393
399
405
410
413
413
412
410
407
404
399
392
382
372
361
351
341
329
317
303
290
278
267
257
247
236
225
216
209
202
197
191
184
179
175
172
170
169
167
164
163
162
163
164
165
165
165
166
168
170
172
173
174
174
175
177
179
181
182
182
182
183
185
186
187
187
186
185
186
187
187
187
186
185
184
184
185
186
185
184
183
183
184
185
185
185
184
183
184
186
187
187
186
185
185
186
187
188
188
187
186
187
188
189
189
188
187
187
187
188
189
189
188
186
186
187
188
188
188
187
186
186
187
188
189
188
187
187
187
188
189
189
188
187
187
188
189
190
189
188
188
188
189
190
190
190
189
188
189
190
191
191
190
189
189
189
191
192
191
190
190
190
191
192
193
192
191
191
191
193
194
194
193
192
192
192
193
194
194
193
192
193
194
195
195
195
194
194
194
195
196
196
195
194
194
194
196
197
196
195
195
195
196
197
198
198
197
196
197
198
199
200
199
198
198
199
200
201
201
200
200
200
201
202
203
202
201
201
201
203
204
204
203
202
202
203
205
206
206
206
205
206
207
209
210
210
209
209
210
212
213
214
213
213
213
214
216
217
217
217
216
217
219
220
221
221
221
221
222
224
225
226
225
225
225
226
228
230
231
231
231
232
233
235
237
237
237
238
239
242
243
244
245
244
245
247
249
250
251
251
251
252
254
255
257
257
257
257
258
260
261
261
261
261
261
262
263
265
265
264
264
264
265
267
267
267
266
265
266
267
267
267
266
265
264
264
265
265
264
262
261
260
260
259
259
257
255
253
252
251
250
249
246
243
241
240
240
239
237
234
232
230
230
229
228
226
224
222
221
221
220
219
217
215
213
212
212
212
211
209
207
206
206
206
206
204
202
201
200
201
201
200
198
196
195
195
195
195
195
193
191
191
191
191
191
191
189
188
188
189
189
189
188
186
186
186
187
188
187
186
185
185
186
187
188
187
186
185
186
187
188
188
186
185
185
185
186
187
187
185
185
185
185
187
187
187
186
185
185
186
187
187
186
185
185
185
186
187
187
186
185
185
186
187
187
187
186
185
185
186
187
187
186
185
184
185
186
187
186
185
184
184
185
186
187
186
186
185
185
187
188
188
187
186
185
186
187
188
188
187
187
187
187
189
189
189
188
187
187
188
189
189
188
187
187
187
188
189
188
187
186
186
187
188
188
188
187
186
186
187
188
188
187
186
186
186
187
188
188
187
186
186
187
188
189
189
188
187
188
189
190
190
189
187
187
187
188
189
189
188
187
186
187
188
189
188
187
186
186
188
189
189
188
187
187
187
189
190
190
189
188
188
189
190
191
190
189
188
188
189
190
190
189
187
187
187
188
189
188
187
186
186
187
188
188
188
187
186
187
188
189
189
188
187
187
188
189
190
190
189
188
188
189
190
191
190
189
188
188
190
190
190
189
188
187
188
189
190
190
188
187
187
188
189
189
189
188
187
187
188
189
188
187
186
186
186
187
187
187
186
185
185
185
186
187
187
186
185
185
187
188
188
187
186
186
186
188
189
189
187
187
187
187
189
189
189
188
187
187
188
188
188
187
186
185
185
186
187
187
185
184
184
185
186
186
186
185
184
184
185
186
186
185
184
184
184
186
187
186
185
184
184
185
186
187
187
186
185
186
187
188
188
187
186
185
185
187
188
188
186
185
185
186
187
188
188
187
186
186
187
188
188
188
186
186
186
187
189
189
187
187
186
187
188
189
189
188
187
187
188
189
189
189
187
187
187
188
189
189
188
187
187
188
189
189
189
188
187
187
188
189
189
188
186
186
186
187
188
188
187
186
186
186
188
188
188
187
186
186
188
189
189
188
187
186
187
188
189
189
188
187
187
188
189
190
190
189
188
188
189
190
190
189
188
188
188
189
190
190
189
188
188
189
190
190
190
189
188
189
190
191
191
190
189
189
189
190
191
191
190
189
189
190
191
191
191
190
189
189
190
191
191
190
189
188
189
190
191
191
189
188
188
189
190
191
190
189
188
188
189
190
190
189
188
187
187
188
189
189
188
187
187
188
189
190
190
189
188
189
190
192
192
191
190
190
191
192
194
194
193
192
192
194
195
196
196
195
194
195
196
197
198
197
196
196
197
198
200
200
199
199
199
200
202
202
202
202
201
201
203
204
204
203
202
202
202
204
205
205
204
203
203
204
206
207
207
206
205
206
208
209
209
209
208
207
208
209
210
210
209
208
207
208
208
208
207
206
204
204
204
204
204
202
200
199
199
199
200
200
198
197
196
197
198
199
198
197
196
196
197
198
198
197
196
195
195
196
196
196
194
193
192
193
193
194
193
191
190
190
191
191
191
190
188
188
188
189
189
189
188
187
187
187
188
189
188
187
186
186
187
188
188
188
186
186
186
187
188
188
186
185
185
186
187
188
187
186
185
186
187
188
188
187
186
185
186
187
188
188
187
186
186
187
188
189
188
187
186
187
188
189
189
188
187
186
186
187
188
188
187
186
186
187
188
189
188
187
186
186
187
188
188
187
186
185
185
186
187
187
185
184
185
186
187
189
189
190
191
193
196
201
204
207
211
215
221
227
235
241
247
254
262
271
281
291
301
310
319
329
341
352
363
372
380
388
396
403
410
414
417
418
419
419
419
416
411
405
397
389
381
372
362
350
338
326
315
304
294
283
272
261
251
243
235
228
221
213
206
200
196
193
189
185
181
178
176
176
176
175
173
172
172
174
175
177
178
178
178
180
182
184
186
186
186
187
188
190
192
193
192
192
192
193
195
195
195
195
194
194
195
196
196
195
194
193
193
195
196
196
195
194
194
195
196
197
196
195
194
194
195
196
197
196
195
194
194
195
196
196
195
194
193
194
195
196
196
195
194
194
196
197
197
196
195
195
195
196
197
198
197
196
196
196
198
198
198
197
196
196
197
198
199
198
197
196
197
198
199
199
198
197
197
198
199
199
199
198
197
198
199
200
200
199
198
197
198
199
200
200
199
199
199
200
201
202
202
201
200
201
202
203
203
203
202
201
201
203
203
203
202
201
201
202
203
203
203
202
201
201
203
204
204
204
203
202
203
204
206
206
205
205
205
206
208
209
209
209
208
208
210
211
211
210
210
209
209
211
212
212
211
210
210
210
212
212
212
211
210
211
212
213
214
213
213
212
213
215
216
217
216
215
216
217
219
220
220
220
219
220
221
223
224
223
223
223
224
225
227
227
227
227
227
229
231
232
232
232
232
233
235
236
237
237
237
237
238
240
242
243
243
242
243
245
247
248
249
249
249
250
252
254
255
255
255
255
256
258
260
261
261
261
261
263
264
266
266
266
265
266
268
269
270
269
269
269
269
271
273
273
272
272
272
273
274
275
275
274
273
273
273
274
274
272
270
269
268
268
269
267
265
263
262
261
261
260
259
256
254
253
252
252
250
248
246
243
242
242
241
240
237
235
233
233
232
232
230
228
226
224
224
224
223
221
219
217
216
216
217
216
214
212
211
211
211
211
210
208
207
206
206
207
206
205
203
202
202
202
203
203
201
200
199
200
201
201
201
200
199
199
200
201
201
200
198
197
198
198
199
199
198
197
196
197
198
198
198
196
195
195
196
197
197
197
195
195
195
196
197
197
196
195
195
196
197
197
197
196
195
195
197
198
198
197
196
195
196
197
198
197
196
195
195
195
196
197
196
195
194
194
195
195
195
195
193
193
193
194
195
195
194
193
193
194
195
196
196
195
195
195
196
198
198
197
196
195
196
197
198
198
197
196
196
196
197
198
198
197
196
196
197
198
198
197
196
195
195
196
197
197
196
195
194
195
196
197
197
196
195
195
196
197
197
196
195
195
195
196
197
197
196
195
195
195
196
197
196
195
194
194
195
196
196
195
194
193
193
194
195
195
194
193
193
194
195
196
195
194
193
193
194
195
196
195
194
193
193
194
195
195
194
193
193
194
195
195
195
194
193
193
195
196
196
195
194
193
193
195
196
196
195
193
193
194
195
196
195
194
193
193
194
196
196
195
194
193
194
195
196
196
195
194
194
195
196
197
197
196
195
195
196
197
197
196
195
194
194
195
196
196
194
193
193
193
194
195
194
193
192
192
193
194
195
194
193
192
192
193
195
195
194
193
193
193
194
195
195
194
192
192
193
194
194
193
192
191
191
192
193
193
192
190
190
191
192
193
193
192
191
191
193
194
194
194
193
193
193
194
196
196
195
194
194
195
196
197
197
196
194
195
196
197
197
196
194
194
194
195
195
195
194
193
193
193
194
195
194
193
192
192
193
194
194
194
192
192
192
193
194
194
193
191
191
192
193
194
193
192
191
191
193
194
194
193
192
191
191
193
194
194
193
192
192
192
194
194
194
193
192
192
193
194
195
194
192
192
192
193
194
194
193
192
191
192
193
194
193
193
192
192
193
194
194
193
192
192
192
193
194
195
194
193
193
193
194
195
195
194
193
193
194
195
195
194
192
192
192
193
194
194
193
192
191
192
193
194
193
192
191
191
192
194
194
193
192
192
192
193
194
195
194
193
193
193
195
195
195
194
193
193
194
196
196
195
194
193
193
194
195
195
194
193
192
193
194
195
195
194
193
193
194
195
196
195
194
194
194
195
197
197
196
195
195
196
197
198
199
198
197
198
199
200
201
200
199
199
199
201
202
202
202
201
201
202
204
205
205
204
203
204
205
206
207
206
205
205
205
207
208
208
207
207
206
207
209
209
210
209
208
208
210
211
212
211
211
210
210
212
213
213
212
212
211
212
213
213
213
212
210
210
210
211
210
209
207
205
205
205
205
205
203
201
200
201
201
202
201
200
199
199
200
201
201
200
199
199
199
200
201
201
200
199
198
199
200
200
199
198
196
196
196
197
196
195
194
192
192
192
193
193
191
190
189
190
190
191
191
190
188
188
189
190
191
190
189
188
188
189
190
190
189
188
188
189
190
190
190
189
188
188
189
190
190
189
188
187
187
188
189
189
188
187
186
187
188
189
189
188
187
187
188
189
190
189
188
187
187
188
190
190
189
187
187
188
189
189
189
188
187
187
188
189
189
188
186
185
185
186
187
187
186
185
184
185
186
187
187
186
186
186
188
191
192
193
194
196
199
203
208
212
216
220
226
232
240
247
254
261
268
277
287
298
308
317
326
336
346
357
369
378
386
393
400
407
413
418
421
422
421
420
419
416
411
404
395
386
376
367
357
346
333
320
307
296
285
274
263
252
241
232
225
218
212
205
198
192
188
185
183
180
177
174
173
173
173
174
174
173
173
173
175
177
179
179
179
179
181
183
185
186
186
186
186
188
189
190
191
190
189
190
191
192
193
192
191
190
191
192
193
193
192
191
191
191
193
193
193
192
192
192
193
194
194
194
193
192
192
193
194
195
194
193
192
193
194
195
195
194
193
193
194
195
195
195
194
193
193
194
195
195
195
194
193
194
195
196
196
195
194
194
195
196
196
195
194
193
194
195
196
196
195
194
194
195
196
196
196
195
194
195
196
197
197
196
195
194
195
196
197
197
197
196
196
196
198
199
199
198
197
197
198
200
200
199
198
198
198
199
200
200
199
198
198
199
200
201
201
200
199
199
200
201
202
201
200
200
200
201
203
203
202
201
201
202
203
204
204
203
202
203
204
205
205
205
204
203
203
205
206
206
206
205
205
206
207
208
208
208
207
207
208
210
210
210
209
209
209
210
212
212
212
211
211
212
214
215
215
215
215
215
217
218
219
219
218
218
218
220
221
222
221
221
221
222
224
225
226
225
225
226
227
229
230
230
230
230
231
233
235
236
236
236
236
238
240
241
242
242
242
243
245
247
248
248
248
248
249
251
253
254
254
254
255
256
258
260
261
260
260
261
263
265
266
266
265
265
265
267
269
269
269
268
268
269
271
271
272
271
270
270
271
272
272
271
269
268
268
268
269
268
267
265
264
264
264
263
262
260
258
257
257
257
255
253
251
248
247
246
246
244
242
239
237
236
236
235
233
231
228
226
226
226
224
222
220
218
217
216
216
215
213
211
209
209
209
209
208
206
204
203
203
204
203
202
200
199
198
199
199
199
198
196
196
196
197
197
197
196
194
194
195
195
195
194
193
192
192
193
194
194
193
192
191
192
193
193
193
192
191
191
192
193
193
192
191
190
190
191
192
192
191
190
189
190
191
191
191
190
189
188
189
190
191
190
189
188
188
189
190
191
190
189
189
189
190
191
191
190
189
189
190
191
191
190
189
188
188
189
190
190
189
188
188
189
190
191
191
190
189
189
190
191
191
190
189
189
189
190
191
191
190
189
189
190
191
191
191
190
189
189
190
191
192
191
190
189
189
190
191
191
190
189
189
190
191
191
191
190
189
189
190
191
191
190
189
188
188
189
190
190
189
188
188
188
189
190
190
189
188
188
189
190
191
190
189
188
188
189
190
191
190
189
189
189
190
191
191
190
189
189
190
192
192
191
190
189
189
190
191
192
191
190
189
190
191
192
192
191
189
189
190
191
191
191
189
189
188
189
190
190
189
188
188
188
189
190
189
188
187
187
188
189
189
189
188
187
187
188
189
189
188
187
187
188
189
190
190
189
188
188
189
190
190
190
189
188
188
189
190
190
189
188
187
188
189
189
189
188
187
186
187
188
188
188
187
186
186
187
188
188
187
186
186
186
187
188
188
187
186
186
187
189
189
188
187
186
186
187
188
188
188
186
186
187
188
189
189
188
187
186
187
188
189
188
187
186
186
187
188
188
187
186
186
187
188
188
188
187
186
186
187
188
189
188
187
186
186
187
188
188
187
186
186
186
187
188
188
187
185
185
186
187
187
187
185
185
185
185
186
187
186
185
184
185
186
187
187
186
184
184
185
186
186
186
184
184
184
185
186
186
185
184
184
184
185
186
186
185
184
184
185
186
186
186
184
183
183
184
185
185
184
183
183
183
184
185
185
184
183
183
184
185
185
185
184
183
183
184
185
185
185
184
183
184
185
186
185
185
183
183
184
185
186
185
184
183
183
184
185
185
184
183
183
184
185
185
186
185
184
184
185
186
186
186
185
184
184
185
187
187
186
185
185
185
186
187
187
186
185
185
186
187
188
187
186
185
185
185
186
187
186
184
184
184
185
186
186
185
184
184
184
186
186
185
184
183
183
184
185
185
184
183
183
183
184
185
185
184
183
183
184
185
185
185
184
183
183
184
185
185
184
183
183
184
185
185
185
185
184
183
184
185
186
185
184
183
183
184
185
185
184
183
182
183
184
184
184
183
182
182
183
184
184
183
182
181
181
182
183
183
182
181
181
182
183
184
184
183
182
182
183
185
185
185
184
183
183
184
186
186
185
184
184
184
185
186
186
185
184
184
185
186
186
185
184
183
182
183
184
184
183
182
182
182
183
184
184
183
182
181
182
184
184
183
182
182
182
183
184
185
184
183
183
184
185
186
186
186
185
185
186
187
188
188
187
186
186
187
189
189
188
188
187
188
189
191
191
190
190
190
191
192
193
193
192
191
191
193
194
195
194
193
193
194
195
196
197
196
195
195
196
197
198
198
197
197
197
198
199
200
199
199
198
199
200
201
201
200
199
199
200
201
201
200
198
197
196
196
197
197
195
194
193
192
193
193
193
191
190
189
190
190
190
189
188
187
187
187
188
188
187
186
185
186
186
187
187
186
184
184
185
186
186
185
184
183
182
183
184
184
183
182
181
181
182
182
182
181
180
179
180
180
180
179
178
177
177
177
178
178
177
176
175
176
177
178
178
177
176
176
177
178
179
178
177
176
177
178
179
179
178
177
177
177
178
179
179
178
177
177
178
179
179
178
177
176
176
177
178
179
178
177
177
177
178
179
179
179
178
177
178
179
180
179
178
177
177
178
179
179
178
176
176
176
177
177
177
176
175
174
175
177
177
177
177
177
178
181
184
186
188
190
193
198
203
209
215
220
225
232
240
248
257
265
273
281
291
302
313
324
333
342
352
363
373
382
390
396
400
405
409
413
414
413
410
406
401
396
390
381
371
360
348
337
326
315
302
289
276
264
254
245
235
225
216
207
200
194
190
185
180
175
172
170
169
168
167
165
164
163
164
166
167
167
167
167
168
170
172
173
174
174
174
176
178
179
180
179
179
179
180
182
182
182
181
180
180
181
183
183
182
181
181
182
183
184
184
183
182
182
183
185
185
185
183
183
183
183
185
185
184
183
183
183
184
185
185
184
183
183
184
185
185
185
184
183
183
184
185
186
185
184
183
184
185
185
186
185
184
184
185
186
186
186
185
184
184
185
186
187
186
185
185
185
187
187
188
187
186
186
187
188
188
188
187
186
186
187
188
189
188
187
186
187
188
189
189
189
188
188
189
190
191
190
189
189
189
190
191
192
191
190
190
190
191
192
192
192
191
191
192
193
194
193
192
191
191
192
194
194
194
193
192
193
194
195
195
195
194
194
195
196
197
196
195
195
195
196
197
198
198
197
197
197
199
200
200
199
199
198
199
201
201
201
200
199
199
201
202
202
202
201
201
201
203
204
205
204
204
204
205
207
208
208
208
207
208
209
211
212
211
211
211
212
214
215
215
215
215
215
216
218
219
219
219
218
219
221
223
224
224
224
225
226
228
230
231
231
232
232
234
237
238
239
239
239
240
242
244
245
245
245
245
247
248
250
251
251
251
251
253
255
256
256
256
256
256
258
259
261
260
260
260
261
263
264
265
264
264
264
265
266
267
267
266
265
265
265
266
266
265
263
263
262
263
263
262
261
258
257
257
257
256
255
252
250
249
248
248
247
245
242
240
239
239
238
236
234
231
230
229
229
227
225
223
220
219
218
218
217
215
212
210
209
209
209
208
206
203
202
202
202
202
201
199
197
196
196
197
197
195
194
193
193
193
194
193
192
190
190
190
191
191
190
188
187
187
187
188
188
187
186
185
186
186
187
187
186
185
184
185
186
186
185
184
183
183
184
185
185
184
183
183
183
184
185
185
184
183
183
183
185
185
185
184
183
182
183
184
185
184
183
182
183
184
184
185
184
183
182
183
184
185
184
183
183
183
183
185
185
184
183
183
183
184
185
185
185
184
183
184
185
186
185
184
183
183
184
185
185
185
183
183
183
184
185
185
184
183
182
183
184
184
184
183
182
182
182
183
184
183
182
181
182
183
184
184
183
183
182
183
185
185
185
184
183
183
184
186
186
185
184
184
184
185
186
186
185
184
184
184
186
186
185
184
183
183
184
185
186
185
184
184
184
185
186
186
186
184
184
185
186
186
186
185
184
184
185
186
186
185
184
183
184
184
185
185
184
183
183
183
185
185
184
183
182
182
183
184
184
184
183
182
183
184
185
185
184
183
183
183
184
185
184
183
182
182
183
184
184
183
182
182
182
183
184
184
183
182
182
183
184
184
184
183
182
182
183
184
184
184
183
182
183
184
184
185
184
183
182
183
184
185
184
183
182
182
183
184
184
183
182
182
182
183
184
184
183
182
182
183
184
184
184
183
182
181
182
183
184
183
182
181
181
182
183
183
182
181
181
181
182
183
182
181
180
180
180
182
182
181
180
179
179
180
181
181
180
179
178
179
180
180
180
179
178
178
179
180
181
180
179
179
180
181
182
182
182
181
181
182
183
183
183
182
181
181
182
183
183
182
181
180
181
182
182
182
181
180
180
180
181
182
181
180
179
179
180
181
181
181
180
179
180
181
182
182
181
180
180
181
182
183
183
182
181
181
182
183
184
183
182
182
182
183
184
184
183
182
181
182
183
184
183
182
181
181
181
183
183
182
181
180
181
181
182
182
182
181
180
181
182
183
182
181
180
180
181
182
183
182
181
180
181
182
183
183
182
181
181
181
183
183
183
181
181
180
181
183
183
182
181
181
181
183
183
184
183
182
182
183
184
184
184
183
182
182
182
183
184
183
182
181
182
183
184
184
183
182
181
182
183
184
183
182
182
181
182
183
184
183
182
182
182
183
184
184
183
182
182
183
184
184
184
183
182
182
182
183
184
183
182
181
182
183
184
184
184
183
182
183
184
185
184
183
182
182
183
184
184
183
182
181
181
182
183
183
182
181
180
181
182
182
182
181
180
180
181
182
183
182
181
181
181
182
183
183
182
181
181
181
182
183
182
181
180
180
181
182
182
182
181
181
181
182
183
184
183
183
183
184
185
186
186
186
185
186
187
188
189
189
188
188
188
190
191
191
191
190
190
191
193
194
193
193
192
192
194
195
196
196
195
195
195
197
198
198
198
197
197
198
199
200
200
199
198
198
199
200
201
201
200
200
200
201
202
202
202
201
200
201
201
201
201
199
198
197
197
198
197
196
194
193
193
193
194
193
192
191
190
191
192
192
192
190
189
189
190
191
192
191
190
189
190
190
191
191
190
189
188
189
189
190
189
187
186
185
185
186
186
185
183
183
183
183
184
184
183
181
181
181
182
183
182
181
180
180
180
182
182
181
180
180
180
181
182
182
182
181
181
181
183
183
183
182
181
181
182
183
183
183
182
181
181
182
183
183
182
181
181
182
183
183
183
182
181
181
181
183
183
183
181
181
181
182
183
183
183
182
181
182
183
184
183
182
181
180
181
182
182
181
180
179
179
180
181
181
180
179
179
180
181
182
183
183
184
185
188
192
196
199
202
206
211
217
224
231
236
242
249
258
268
277
286
295
304
314
325
337
348
357
366
375
383
392
399
405
409
411
413
415
416
415
411
406
399
392
384
376
367
355
343
331
320
309
298
287
275
263
253
244
236
228
220
211
204
198
194
190
187
182
178
175
174
173
172
172
171
169
169
170
172
173
174
174
174
175
177
179
181
181
181
182
183
185
186
187
187
187
187
188
190
190
190
189
188
188
189
190
191
190
189
189
189
190
191
191
190
189
189
189
190
191
191
190
189
189
189
191
191
191
190
189
190
191
191
192
191
190
190
191
192
193
193
192
191
191
192
193
194
193
192
192
192
193
194
195
194
193
193
194
195
196
195
194
193
193
194
195
196
195
194
194
194
195
196
196
196
195
194
195
196
197
196
195
194
194
195
196
197
196
195
195
195
196
197
197
197
196
195
196
197
198
198
197
196
196
196
198
198
198
197
196
197
198
199
199
199
198
198
199
200
201
201
200
199
200
201
202
203
203
202
201
202
203
204
205
204
203
203
204
205
206
205
204
204
203
204
206
206
206
205
205
205
206
208
208
208
207
207
208
209
210
210
209
208
209
210
211
212
211
210
210
211
213
214
215
214
214
214
215
217
218
218
218
217
218
219
221
222
223
222
222
223
225
226
227
227
227
227
228
230
231
231
231
231
231
233
234
236
236
235
236
237
238
240
241
241
241
242
243
246
247
248
247
247
248
250
252
253
254
254
254
255
257
259
260
260
260
261
262
264
265
266
265
265
265
267
269
270
270
269
269
270
271
272
273
273
272
272
273
274
275
274
273
272
272
272
273
273
272
271
270
269
270
270
269
268
266
264
264
264
264
262
260
258
257
256
256
255
253
250
248
247
246
246
244
242
240
238
237
236
236
234
231
229
227
227
227
226
224
222
220
219
219
219
218
217
215
213
213
213
213
212
210
208
207
207
208
208
207
205
204
204
204
205
205
204
202
201
202
203
203
202
201
200
199
200
201
201
201
199
199
199
200
200
200
200
198
198
198
199
199
199
198
196
196
196
197
198
197
195
195
195
196
196
197
196
195
194
195
197
197
197
196
196
196
197
198
199
198
197
197
197
198
199
199
198
197
196
197
198
198
198
197
196
195
196
197
198
197
196
195
195
196
197
197
197
196
195
196
197
198
197
196
195
195
196
197
197
196
195
195
195
196
197
197
197
196
195
196
197
198
198
197
196
195
196
197
198
197
196
196
196
197
198
198
197
196
196
197
198
199
198
197
197
196
197
198
199
198
197
197
197
198
199
199
198
197
197
197
198
199
199
197
196
196
197
198
199
198
197
197
197
198
199
199
199
198
197
198
199
200
199
198
197
197
198
199
199
199
198
197
198
198
199
199
199
198
197
198
199
200
200
199
198
197
198
199
200
199
198
198
198
199
200
200
199
198
197
198
199
199
199
197
196
196
196
197
198
197
196
195
196
197
198
198
198
197
197
198
199
200
200
199
198
198
199
200
201
200
199
198
198
199
200
200
199
198
197
197
198
199
198
197
196
196
196
197
198
197
196
196
196
197
198
198
197
196
196
196
197
198
197
196
195
195
195
196
197
196
195
194
195
195
196
197
196
195
195
196
197
198
197
197
196
196
196
197
198
197
196
196
196
197
198
198
197
196
196
197
198
199
198
197
196
196
197
198
198
197
196
196
196
197
198
198
197
196
196
196
197
198
197
196
195
195
196
197
197
197
196
195
196
197
197
198
197
196
195
196
197
197
197
196
194
194
195
196
196
196
195
194
194
195
196
196
195
194
194
194
195
196
196
195
194
194
195
196
197
196
195
195
195
196
197
197
197
196
196
196
198
198
198
197
195
195
196
197
197
197
195
195
195
196
197
197
196
195
194
195
196
196
196
195
194
194
194
195
196
195
194
194
194
195
196
196
195
194
194
195
196
197
196
195
195
195
195
197
197
197
196
195
195
196
197
197
197
196
195
196
197
198
197
196
195
195
196
197
198
198
197
196
197
198
199
200
199
199
198
199
201
202
202
201
200
200
201
203
203
203
202
202
202
203
204
205
204
204
203
204
206
206
206
205
204
204
205
206
207
207
206
206
207
208
209
209
209
208
208
209
210
211
211
210
209
208
209
210
210
209
208
207
207
207
207
207
205
204
203
203
203
203
202
200
199
198
199
199
200
199
198
197
197
198
198
198
198
196
196
196
197
197
197
195
194
193
194
194
194
193
192
190
190
191
191
191
189
188
187
187
188
188
187
186
185
184
185
186
186
185
184
183
183
184
185
185
184
183
182
183
184
184
184
183
182
182
182
183
184
183
182
181
182
183
183
184
183
182
181
182
183
184
183
182
181
181
182
183
183
183
182
181
182
183
183
184
183
182
181
182
183
183
183
182
181
181
181
182
183
182
180
180
180
180
181
181
180
178
178
178
179
179
179
177
176
176
177
179
180
180
180
181
183
186
190
193
196
199
203
208
215
221
226
232
238
245
253
263
272
280
289
298
308
319
331
341
350
359
368
378
387
395
400
405
408
411
413
415
415
412
407
402
396
389
382
373
362
350
339
328
317
306
294
282
270
259
250
241
233
224
216
208
202
197
193
188
184
179
176
174
173
172
170
168
167
166
167
168
169
169
169
169
171
173
174
176
176
176
177
178
180
182
182
182
181
182
183
184
185
185
184
184
184
186
187
187
187
186
185
186
187
187
187
186
185
185
186
187
187
187
186
185
186
187
188
188
187
186
186
187
188
189
188
188
187
187
187
188
189
188
187
186
187
188
189
189
188
187
187
188
189
189
189
188
187
187
187
189
189
189
188
187
188
189
190
190
189
188
188
189
190
190
190
189
188
188
189
190
190
190
189
188
189
190
191
191
190
189
189
190
191
192
191
191
190
190
191
192
193
192
191
191
191
192
193
194
193
192
192
193
194
194
194
193
192
192
193
194
195
194
193
192
193
194
194
195
194
193
193
193
195
195
195
194
193
193
194
196
196
196
195
195
196
197
198
198
198
197
197
198
199
200
200
199
198
198
199
201
202
201
200
200
201
202
203
204
204
203
203
204
205
206
206
206
205
205
206
208
209
209
208
208
209
210
211
212
212
211
211
212
214
215
215
215
215
215
216
218
219
220
219
219
221
222
224
225
225
225
226
227
229
231
231
231
231
232
233
235
237
237
237
237
238
240
242
242
243
242
243
244
246
248
248
248
248
248
250
252
253
253
253
253
254
256
257
258
258
258
258
259
260
261
261
260
260
260
261
262
262
262
261
260
260
261
261
261
260
258
257
257
257
257
256
254
252
251
250
250
250
248
245
243
242
242
241
240
238
235
233
232
231
230
229
226
223
222
221
221
220
218
216
214
213
212
212
211
209
207
206
206
206
205
204
202
200
199
199
200
199
198
196
195
195
195
195
195
193
192
191
191
191
191
190
189
187
187
187
187
188
186
185
184
184
184
185
185
184
183
182
183
184
184
183
182
181
181
181
182
183
182
181
180
180
181
182
182
181
180
179
180
181
181
181
180
179
179
179
181
181
181
180
179
180
180
181
182
181
180
179
180
181
182
181
180
179
179
179
180
181
180
179
178
178
179
180
180
179
178
178
179
180
181
180
179
179
178
179
180
181
181
180
179
180
181
182
182
181
180
179
180
181
182
182
181
180
179
180
181
182
181
180
179
180
180
181
182
181
180
179
180
181
181
181
180
179
179
179
181
181
181
179
179
179
180
181
181
181
180
179
180
181
181
181
180
179
179
179
180
181
180
179
178
178
179
180
180
179
178
178
179
180
180
180
179
178
178
178
179
180
180
179
178
178
179
180
181
180
179
179
179
180
181
181
180
179
179
180
181
181
181
180
179
179
180
181
181
181
179
179
180
181
181
181
180
179
178
179
180
181
180
179
178
179
179
180
180
180
179
178
179
180
180
180
179
178
178
178
180
180
179
178
178
178
179
180
180
179
178
178
179
180
180
180
179
178
178
179
180
181
180
179
179
179
180
181
181
180
179
179
180
181
181
181
179
178
178
179
180
180
179
178
177
177
178
179
179
178
177
177
177
178
179
178
177
176
176
176
177
178
177
176
176
176
177
178
178
177
176
176
176
178
178
178
177
176
176
177
178
179
179
178
177
178
178
179
180
179
178
177
178
179
180
179
178
177
177
178
179
179
179
178
177
178
179
180
180
179
178
178
179
180
180
180
179
178
177
178
179
179
178
177
176
177
177
178
178
177
176
176
176
177
178
178
177
176
175
176
177
178
177
176
176
176
177
178
178
177
176
176
176
177
178
177
176
175
175
176
177
177
177
176
175
175
176
177
177
176
175
175
176
177
177
177
176
175
175
175
176
177
176
175
174
175
176
176
177
176
175
174
175
176
177
176
175
174
174
175
176
176
176
175
174
175
176
177
177
176
175
175
176
177
178
177
177
176
176
177
178
178
178
177
176
177
178
178
179
178
177
176
177
178
178
178
177
176
176
176
178
178
177
176
176
176
177
178
178
177
176
176
176
177
178
177
176
175
175
176
177
178
177
176
175
176
177
178
178
177
176
176
176
178
178
178
177
176
175
176
177
178
177
176
175
175
176
177
178
177
176
176
176
178
178
178
177
177
177
178
179
180
180
179
179
180
181
182
183
182
182
181
182
184
185
185
184
184
184
185
186
187
187
186
186
187
188
189
190
190
189
189
190
192
193
193
192
191
191
192
193
194
194
193
192
193
194
195
195
195
194
194
194
196
197
197
196
195
195
196
197
198
198
197
196
197
198
199
199
199
197
197
197
198
198
198
196
195
194
194
195
195
194
193
192
191
192
192
192
191
190
189
189
190
191
190
189
188
187
188
189
189
189
188
187
187
188
189
189
188
187
186
186
187
187
187
185
184
183
183
184
184
183
182
180
180
181
181
181
180
179
178
178
179
179
179
178
176
176
177
178
178
178
176
176
176
177
178
178
178
177
176
177
178
179
178
177
176
176
177
178
178
178
177
176
176
177
178
178
178
177
176
177
178
179
179
178
177
177
178
179
180
179
178
178
178
179
180
180
179
178
178
178
179
180
179
178
177
176
177
178
178
177
176
175
175
175
176
176
176
175
175
176
178
179
180
180
181
183
187
191
195
199
203
207
213
220
228
235
242
248
256
265
275
286
295
304
314
324
335
347
357
367
375
383
390
398
404
409
412
413
414
414
413
411
405
398
390
381
372
362
352
340
326
313
301
290
279
267
255
244
233
224
217
210
202
195
188
183
179
176
174
171
167
165
164
164
165
165
164
164
164
165
167
169
170
170
170
171
173
175
177
177
177
178
179
180
182
183
183
182
182
183
184
185
185
184
183
183
184
185
186
185
184
184
184
185
186
186
186
185
184
185
186
186
186
185
184
184
185
186
186
186
185
184
185
185
186
186
186
185
184
185
186
187
186
185
185
184
185
186
187
187
186
185
186
187
188
188
188
187
187
187
189
189
189
188
187
187
187
188
189
188
187
187
187
188
189
189
189
188
187
188
189
190
190
189
188
188
189
191
191
191
190
190
191
192
193
193
193
192
192
193
194
194
194
193
192
192
193
194
195
194
193
192
193
194
195
195
195
194
193
194
195
196
196
195
194
194
195
196
197
196
195
195
195
196
197
197
197
196
195
196
197
198
198
197
197
197
198
199
200
200
199
199
199
200
202
202
202
201
201
202
204
204
204
204
203
203
204
205
206
206
205
205
205
207
208
208
208
208
208
209
211
212
212
212
211
212
213
215
216
216
216
216
217
219
220
221
221
221
221
222
224
225
225
225
224
225
226
228
229
229
229
229
230
232
234
235
235
235
235
237
239
241
241
241
241
242
244
246
247
248
247
248
249
251
252
254
254
254
254
255
257
259
259
259
259
259
260
262
263
263
263
263
263
265
266
267
266
266
265
266
267
268
268
266
265
265
265
266
267
266
264
263
262
262
262
262
260
258
256
255
255
254
252
250
248
246
245
245
244
242
239
237
236
235
235
233
231
229
227
226
226
226
224
222
219
218
217
217
216
214
212
210
209
209
208
208
206
204
202
202
202
202
200
199
197
196
196
196
196
195
193
192
192
192
193
193
192
191
190
190
191
191
190
189
188
187
188
189
189
188
187
186
186
187
188
188
187
186
185
186
187
187
187
186
185
185
185
186
187
186
185
184
184
185
186
186
185
184
183
184
185
185
185
184
183
182
183
184
185
184
183
183
183
184
185
185
185
184
183
184
185
186
186
185
184
183
184
185
185
184
183
182
183
183
184
184
183
182
182
182
183
184
184
183
182
181
182
183
184
184
183
182
183
184
185
185
185
184
184
185
186
186
186
185
184
184
185
186
186
185
184
184
184
184
185
185
185
183
183
184
185
185
185
184
183
183
183
185
185
185
184
183
183
184
185
185
185
183
183
183
184
185
185
184
183
182
183
184
185
184
183
182
183
184
185
185
184
183
183
184
185
186
185
185
184
183
184
185
186
185
184
183
184
184
185
185
185
184
183
184
185
185
185
184
183
183
184
185
186
185
184
184
184
185
186
186
185
184
184
184
186
186
186
185
183
183
184
185
185
184
183
183
183
184
185
185
184
183
183
183
185
185
185
184
183
183
183
185
185
185
184
183
183
184
185
185
184
183
183
183
184
185
184
183
182
182
182
183
184
183
182
181
181
182
183
183
182
181
181
181
182
183
183
182
181
180
181
182
183
182
181
181
181
182
183
183
183
182
181
182
183
183
183
182
181
180
181
182
183
182
181
180
180
181
182
182
182
181
180
181
182
183
182
181
180
180
180
182
182
182
180
180
180
181
182
182
181
180
180
181
182
183
182
181
181
180
181
182
183
183
182
181
181
182
183
183
183
182
181
182
183
183
183
181
180
180
180
181
182
181
180
179
180
181
182
182
181
180
180
180
182
182
182
181
180
180
181
182
183
182
181
181
181
182
183
183
183
182
181
181
182
183
182
181
180
180
181
182
182
182
180
180
180
181
182
182
182
181
181
181
183
183
183
182
181
181
182
183
183
183
181
181
181
182
183
183
182
181
181
181
182
183
182
181
180
180
181
182
183
182
181
181
181
182
183
183
182
181
181
182
183
184
183
182
182
181
182
183
184
184
182
182
182
183
184
185
184
183
182
183
184
185
184
183
182
182
182
183
184
183
182
182
182
183
184
184
183
182
182
182
183
184
183
182
181
181
182
183
184
183
182
182
182
183
184
184
184
183
182
183
184
185
185
184
183
183
184
185
185
185
184
183
184
185
186
186
186
186
185
186
188
189
189
188
187
188
189
190
192
192
191
191
192
193
194
195
195
194
194
195
196
197
197
196
195
195
196
197
198
197
196
195
196
197
197
198
197
196
196
197
199
200
200
200
199
199
201
202
203
203
203
202
203
204
205
205
204
203
202
202
203
203
202
200
199
198
198
198
198
197
195
194
193
194
194
194
193
192
191
192
193
193
193
192
191
190
191
192
193
192
191
190
190
191
192
192
191
189
189
189
190
190
189
187
186
185
186
186
186
185
184
183
183
184
184
184
184
182
182
182
183
184
184
182
181
181
182
183
183
183
181
181
181
182
183
183
182
181
181
181
183
183
183
182
181
181
182
183
183
183
182
181
181
182
183
183
183
182
182
182
183
184
184
183
182
182
183
184
185
184
183
183
184
185
186
186
185
184
184
185
186
186
186
185
184
183
184
184
185
184
183
182
182
183
184
184
184
183
184
185
187
189
191
192
193
196
200
205
210
214
218
223
229
237
244
252
259
266
274
284
295
305
315
324
334
344
355
366
376
384
391
397
404
410
415
418
419
418
416
414
411
406
399
390
381
371
361
351
340
328
315
302
290
280
270
259
248
238
229
221
215
208
202
195
189
185
182
180
178
175
172
170
170
170
171
171
171
171
171
173
175
177
178
178
178
179
181
183
185
186
186
186
187
189
190
191
191
190
190
191
193
194
193
192
191
191
192
193
194
193
192
191
192
193
193
194
193
192
192
193
194
194
194
193
192
192
193
194
195
194
193
192
193
194
194
195
194
193
193
193
195
195
195
194
193
193
194
195
196
196
195
194
195
196
197
198
197
196
196
197
198
199
198
197
196
196
197
198
199
198
197
196
197
198
199
199
198
197
197
198
199
199
199
198
197
197
198
199
200
199
198
198
198
199
200
200
199
198
198
198
200
200
200
199
198
198
198
199
200
199
198
198
199
200
201
201
201
200
200
201
202
203
203
203
202
202
203
204
205
205
204
203
204
205
206
206
206
205
204
205
206
207
207
206
205
205
206
207
208
207
207
206
207
208
210
210
210
209
209
210
212
213
213
212
212
212
213
214
215
215
214
214
215
216
217
218
217
217
217
218
219
220
220
220
219
219
221
222
223
223
223
223
224
226
227
228
228
228
229
230
232
233
234
234
234
234
236
238
240
240
240
240
241
243
245
246
246
246
246
248
249
251
251
251
251
251
253
255
256
256
256
256
257
259
261
262
262
262
262
264
266
267
268
267
267
268
269
271
272
272
271
271
272
273
274
275
274
273
273
274
275
275
275
273
272
271
272
272
272
271
269
268
267
268
268
267
265
263
262
261
261
260
259
256
254
252
251
250
249
247
244
242
241
240
239
238
235
233
231
230
230
229
228
225
223
222
221
222
221
219
217
216
215
215
215
215
213
211
210
210
210
210
209
207
206
205
205
205
205
204
203
202
201
202
202
202
201
199
198
199
199
200
199
198
197
196
197
198
198
198
197
196
196
197
198
199
198
197
197
197
199
199
199
197
196
196
196
197
198
197
196
195
196
196
197
197
196
195
195
196
197
197
197
196
195
195
195
197
197
196
195
195
195
196
197
197
196
195
195
195
197
197
197
196
195
194
195
196
197
196
195
195
195
196
197
197
196
195
195
196
197
197
197
196
195
194
195
196
197
196
195
195
195
196
197
197
196
195
195
196
197
197
197
196
195
195
195
196
197
196
195
195
195
196
197
197
196
195
195
195
196
197
196
195
194
194
195
196
197
196
195
194
195
196
197
197
196
195
195
195
197
197
197
196
195
195
195
197
197
197
196
195
195
196
197
198
197
196
196
197
198
199
198
197
196
196
197
198
198
198
196
196
196
197
197
198
197
196
195
196
197
198
197
196
195
195
196
197
197
197
196
195
196
197
197
198
197
196
196
197
198
198
198
197
196
196
197
198
198
198
197
196
197
198
199
199
198
197
197
197
199
199
199
198
197
196
197
198
198
198
196
196
196
197
198
198
197
195
195
195
196
197
196
195
194
194
195
196
196
196
195
194
195
196
197
197
197
196
195
196
197
198
198
197
196
195
196
197
197
196
195
195
195
196
196
196
196
195
194
195
196
196
196
195
194
194
195
196
196
195
194
194
194
195
196
196
195
194
194
194
196
196
196
195
194
194
194
195
196
195
194
194
194
195
196
196
195
194
193
194
195
196
195
194
192
192
193
194
194
193
192
191
192
193
193
194
193
192
191
192
193
194
194
193
192
192
193
194
194
194
193
192
193
194
195
195
194
193
193
194
195
195
195
194
193
193
193
194
195
194
193
193
193
194
195
195
195
194
193
194
195
196
196
195
194
193
194
195
196
195
194
194
194
195
196
196
195
194
194
195
196
197
196
195
195
195
196
197
197
197
196
195
196
197
198
198
198
197
197
197
199
199
199
198
198
198
199
200
201
201
200
200
200
202
203
203
203
202
202
203
205
206
206
205
204
204
205
206
207
207
206
205
206
207
208
208
208
207
207
208
209
210
210
209
208
209
210
211
212
212
211
211
211
212
213
213
212
211
210
211
212
212
211
209
208
207
207
208
208
207
205
204
204
205
205
205
204
203
202
203
204
204
204
203
201
201
201
202
203
202
200
199
199
200
200
200
199
197
196
197
197
197
197
195
194
193
193
194
194
193
192
191
191
192
192
192
192
190
190
190
191
192
191
190
189
188
189
190
190
190
188
188
188
189
190
190
189
188
187
188
189
189
189
188
187
187
187
188
189
188
187
187
187
188
189
189
189
188
187
188
189
190
190
189
188
188
189
190
191
191
190
189
189
190
191
191
191
190
189
190
191
191
190
189
188
187
188
188
188
187
186
185
185
186
186
186
186
185
185
186
188
190
190
191
192
194
198
202
206
210
213
218
224
231
238
244
250
257
264
273
283
293
302
311
320
330
341
353
363
372
380
388
396
404
410
415
418
419
420
421
420
418
413
407
399
391
383
375
365
354
342
330
319
309
298
288
277
266
256
248
240
233
225
217
210
204
200
197
193
189
185
182
180
179
179
178
177
175
175
176
178
179
179
179
179
180
182
184
186
186
186
186
188
189
191
192
192
191
191
192
194
195
194
194
193
193
194
195
195
194
193
193
193
194
195
195
194
193
193
193
194
195
194
193
192
192
193
194
194
194
193
192
193
194
195
196
195
194
194
195
196
197
197
196
195
195
196
198
198
198
197
196
197
198
199
199
198
197
196
197
198
198
198
197
196
195
196
197
198
197
196
195
196
197
198
198
197
196
196
197
198
199
199
198
197
198
198
200
201
200
199
199
199
200
201
201
200
199
199
199
200
201
200
199
198
198
198
199
200
199
198
198
198
199
200
201
200
200
199
200
202
203
202
202
201
201
202
203
204
203
202
202
203
204
205
205
204
203
203
203
205
205
205
204
203
203
204
205
206
205
205
204
205
206
207
208
207
207
207
208
209
210
210
209
208
209
210
211
212
212
211
211
211
213
214
214
214
213
213
215
216
217
217
216
215
216
217
219
219
219
219
219
220
221
223
223
223
223
223
225
227
228
229
228
228
229
231
233
234
234
234
235
236
237
239
240
240
240
240
242
244
245
246
245
245
246
247
249
250
250
250
250
251
253
255
256
256
255
256
257
259
260
261
260
260
261
262
264
265
265
264
264
265
266
267
268
267
266
266
267
268
268
268
267
266
265
266
266
266
265
263
262
262
262
262
261
259
257
255
255
255
254
252
250
247
246
245
245
244
242
239
237
236
235
235
234
232
229
227
227
226
226
224
222
220
218
218
218
217
215
213
211
211
211
210
210
208
206
205
205
205
205
204
202
200
200
200
200
200
199
197
196
196
197
197
197
196
195
194
194
195
195
195
193
192
192
192
193
194
193
192
191
191
192
193
193
192
191
191
191
192
193
192
191
190
190
191
192
192
192
190
190
190
191
192
192
191
190
190
190
191
192
191
190
189
189
189
190
190
190
188
188
188
189
189
190
189
188
188
189
190
190
190
189
188
188
189
190
191
190
189
188
189
190
191
191
190
189
188
189
190
191
190
189
188
188
189
190
191
190
189
189
189
191
191
192
191
190
190
190
192
192
192
191
190
189
190
191
192
191
190
189
189
190
191
191
190
189
188
189
190
191
190
189
188
188
188
190
190
190
189
188
188
189
190
191
190
189
189
190
191
191
191
190
189
189
189
190
191
190
188
187
188
188
189
189
189
187
187
188
189
189
189
187
187
187
187
188
189
188
187
187
187
188
189
190
189
188
188
189
190
191
190
189
188
188
189
190
191
190
189
188
189
190
190
191
190
189
188
189
190
190
190
188
187
187
188
189
189
189
188
187
187
188
189
189
188
187
187
187
189
189
189
188
187
187
187
189
189
188
187
187
187
188
189
189
188
187
187
187
188
189
188
187
186
186
187
188
188
188
187
186
187
188
189
189
188
187
187
188
189
189
189
188
187
187
187
188
189
188
187
186
186
187
188
188
187
186
186
186
187
188
187
186
185
185
185
187
187
186
185
185
185
186
186
186
186
185
184
185
186
186
186
185
184
184
184
186
186
185
184
184
184
185
186
186
185
184
184
185
186
186
186
185
184
184
184
185
186
185
184
184
184
185
186
186
185
184
184
185
186
187
186
185
184
184
185
186
187
186
185
184
184
185
186
186
185
184
184
185
186
186
186
184
183
183
184
185
185
185
184
183
183
184
185
186
185
184
183
184
185
186
185
184
183
183
184
185
185
184
183
183
183
184
185
185
184
184
183
184
185
186
186
185
184
184
184
185
186
185
184
184
184
185
186
186
185
184
184
184
186
186
186
185
184
184
185
186
187
186
185
185
185
186
187
188
187
186
185
186
187
188
187
186
185
185
186
187
187
186
185
184
185
185
186
186
186
185
184
185
186
186
186
185
184
183
184
185
186
185
184
184
184
185
186
186
186
185
185
185
187
188
188
187
186
186
187
188
189
189
188
188
189
190
191
192
192
191
191
193
194
195
195
194
194
194
195
197
197
197
196
196
197
198
199
199
198
197
197
198
199
200
200
199
198
198
199
200
201
200
199
199
200
201
202
203
202
202
202
203
204
205
205
204
203
203
204
205
205
204
203
202
201
202
202
202
200
198
197
197
198
198
197
195
194
193
194
195
195
194
193
192
192
193
194
194
193
192
192
193
194
194
194
192
191
190
191
192
192
191
189
188
188
188
189
188
187
185
184
184
185
185
184
183
181
181
181
182
182
181
179
179
179
180
180
180
179
178
178
178
179
180
179
178
177
177
178
179
180
179
178
177
178
179
180
180
180
179
178
179
180
181
180
179
178
178
179
180
181
180
179
178
179
179
180
180
180
178
178
179
180
181
180
179
178
178
179
180
181
180
179
179
179
180
181
181
180
178
178
178
179
179
179
177
176
176
176
177
178
177
176
176
177
179
180
182
183
184
186
189
193
197
201
205
209
214
221
228
236
242
249
256
266
276
286
297
306
315
325
337
348
359
368
376
384
391
398
405
410
412
413
414
413
412
409
404
397
388
379
370
361
350
338
324
311
298
287
276
265
253
241
230
222
214
207
200
193
186
181
177
175
172
169
166
164
163
163
164
165
164
164
164
165
167
169
171
171
171
172
174
176
178
178
178
178
179
180
182
183
183
182
181
182
183
184
185
184
183
183
183
184
185
184
183
182
182
182
183
184
183
182
181
182
183
184
184
183
182
182
182
184
184
184
183
182
182
183
184
185
184
183
183
183
185
186
186
185
184
184
185
186
187
186
185
184
184
185
186
187
186
185
185
185
186
187
187
186
186
185
186
187
188
188
187
186
186
187
188
188
188
187
186
187
188
189
189
188
187
187
187
189
189
189
187
187
186
187
188
189
188
187
187
187
188
189
190
189
188
188
189
190
190
190
189
188
188
189
191
191
191
190
190
190
191
192
193
192
191
191
192
193
194
194
193
192
193
193
195
195
195
194
193
194
195
196
196
196
195
194
195
197
197
197
196
195
195
196
197
198
198
197
196
197
198
199
200
200
199
199
200
201
202
202
201
201
201
202
204
204
204
204
204
204
206
207
208
208
207
207
209
211
212
212
212
211
212
213
215
217
217
216
217
218
220
221
222
222
222
223
224
226
227
228
227
227
228
229
231
233
233
233
233
234
236
238
239
239
239
239
241
243
245
245
245
245
245
247
249
250
250
250
250
251
253
255
256
256
255
256
257
259
260
260
259
258
259
260
261
262
262
261
260
261
262
263
263
262
260
260
260
261
261
260
258
256
255
255
255
255
253
251
249
249
248
248
247
244
242
240
239
239
238
236
233
230
228
228
227
226
224
221
219
218
217
216
215
213
211
209
209
209
208
206
204
202
201
201
201
200
199
197
196
195
195
195
195
193
192
191
191
191
191
190
188
187
186
187
187
187
186
185
184
184
185
185
185
184
183
182
183
184
184
183
182
181
180
181
182
182
181
180
179
179
180
180
180
179
178
178
178
179
180
180
179
178
178
179
180
181
180
179
179
179
180
181
182
181
180
180
181
182
182
182
180
179
179
180
181
181
181
179
179
179
180
181
181
180
179
179
180
181
181
181
180
179
179
179
180
181
180
179
178
179
179
180
180
179
178
178
178
180
180
179
178
177
177
178
179
179
178
177
177
177
178
179
179
179
178
177
178
179
180
179
178
177
177
178
179
180
179
178
177
178
179
180
180
179
178
178
179
180
181
181
180
179
179
179
181
181
181
180
179
180
181
181
182
181
180
179
180
182
182
182
181
180
180
181
182
182
182
181
180
181
182
182
182
182
181
180
181
182
182
182
181
180
179
180
181
182
181
180
179
179
180
181
181
180
179
179
179
180
181
180
179
178
178
178
179
180
179
178
178
178
179
180
180
180
179
179
180
181
181
181
180
179
179
179
181
181
180
179
178
179
180
180
180
180
178
178
179
180
180
180
179
178
178
178
179
180
179
178
178
178
179
180
180
179
178
178
179
180
180
180
179
178
178
178
180
180
179
178
178
178
179
180
180
179
178
178
178
180
180
180
178
177
177
178
179
180
179
178
177
178
179
179
180
179
178
178
179
180
180
180
179
178
178
178
179
180
179
178
177
178
178
179
179
178
177
177
178
179
179
178
177
176
176
177
178
178
177
176
176
176
177
178
178
177
176
176
176
177
178
177
176
175
175
176
177
177
177
176
175
176
177
177
178
177
176
175
176
177
178
177
176
175
175
176
177
178
177
176
176
176
177
178
178
178
177
176
177
178
179
179
178
177
176
177
178
178
177
176
176
176
177
178
178
177
176
175
176
177
178
177
176
176
176
176
178
178
177
176
176
176
177
178
178
178
177
176
177
178
179
178
177
177
176
177
178
179
178
177
177
177
178
179
179
179
178
177
178
179
180
179
178
177
177
178
179
179
179
178
177
178
179
179
179
179
177
177
178
179
180
179
178
177
177
178
179
179
179
177
177
177
178
179
179
178
177
176
177
178
179
178
177
176
176
177
178
179
178
177
176
177
178
179
179
178
177
177
178
179
179
179
178
177
177
178
179
179
179
178
177
178
179
180
180
179
178
178
178
179
180
179
178
177
177
177
179
179
178
177
177
177
178
179
180
179
178
178
179
181
182
182
181
181
181
182
184
185
185
184
184
185
186
187
188
188
187
187
188
190
191
191
190
189
189
190
192
192
192
191
190
191
192
193
193
192
191
191
192
193
193
193
192
191
192
193
194
195
194
194
193
194
195
196
197
196
195
195
195
196
197
196
194
193
193
193
194
194
192
191
190
190
190
190
190
189
188
187
188
188
189
188
187
186
185
186
187
187
187
185
185
185
186
187
187
186
184
184
184
185
185
185
183
182
181
182
182
182
181
180
179
179
179
179
179
178
176
176
176
177
177
176
175
173
173
174
175
175
174
173
172
173
173
174
174
174
172
172
173
174
174
173
172
171
171
171
172
173
172
171
170
171
172
173
173
172
171
171
172
173
174
174
173
172
172
173
175
175
175
174
173
174
175
176
176
176
175
174
175
176
177
177
176
175
175
175
176
176
175
174
173
173
174
174
174
173
172
172
172
174
174
174
173
173
173
175
177
180
181
182
184
188
193
198
203
207
212
217
225
233
240
247
254
262
271
281
292
303
312
321
331
342
353
363
372
379
385
391
397
403
406
408
407
405
403
400
396
390
382
372
362
351
341
331
319
306
292
280
269
258
248
237
226
216
207
200
195
189
183
177
172
169
167
165
163
161
159
158
159
160
161
161
161
161
162
164
166
168
168
168
169
171
173
174
175
175
175
175
176
178
179
178
178
177
177
178
179
180
179
178
178
178
179
180
181
180
179
179
179
180
181
180
179
178
178
179
180
180
180
178
178
178
179
180
180
180
179
178
179
180
181
181
180
179
179
180
181
182
181
180
180
180
181
182
183
182
181
181
182
183
184
183
182
181
181
182
183
184
183
182
182
182
183
184
185
184
183
183
184
185
185
185
184
183
183
184
186
186
185
184
184
185
186
186
187
186
185
184
185
186
187
186
185
184
184
185
186
186
186
185
185
185
186
187
188
187
186
186
187
189
190
189
189
188
188
189
190
191
191
190
189
190
191
192
192
191
190
190
191
192
193
193
192
191
191
191
193
193
192
191
191
191
192
193
193
193
192
192
193
194
195
195
194
194
194
195
197
198
198
197
197
198
199
200
201
201
200
200
202
203
204
204
203
203
203
204
206
207
207
206
206
207
209
210
211
210
210
210
211
213
214
214
214
214
214
216
218
219
219
219
220
221
223
225
226
226
226
227
229
231
232
233
233
233
233
235
237
239
239
239
239
240
242
244
245
245
245
245
247
249
250
250
250
249
250
251
253
254
254
254
254
255
256
258
258
258
257
257
259
260
261
261
260
259
259
260
261
261
260
259
258
258
259
259
258
257
255
254
254
254
253
251
249
247
245
245
244
243
241
239
237
236
235
234
233
231
228
226
226
225
224
223
220
218
216
216
216
215
213
210
208
207
207
207
205
203
201
200
199
199
199
197
195
194
193
193
193
193
191
190
188
188
189
189
188
187
186
185
185
186
186
185
184
182
182
182
183
183
182
181
180
180
181
181
181
180
179
179
179
180
181
180
179
178
177
178
179
179
179
177
177
177
178
179
179
178
177
177
178
179
179
179
177
177
177
178
179
179
179
178
177
178
179
179
180
179
178
177
178
179
180
179
178
177
177
178
179
179
178
177
177
178
179
179
179
179
178
177
178
179
180
179
178
177
177
178
179
179
178
177
177
177
178
179
179
178
177
177
178
179
179
179
178
177
177
177
178
179
178
177
176
177
177
178
178
177
176
176
177
178
178
177
176
175
175
176
177
177
177
176
175
176
177
178
178
178
177
176
177
179
179
179
178
177
177
177
179
179
178
177
176
177
178
178
178
177
176
176
177
178
178
178
176
175
175
176
177
178
177
176
176
176
177
178
179
178
177
177
178
179
179
179
178
177
177
178
179
179
179
178
177
177
178
179
179
178
177
176
177
178
178
177
176
175
175
175
176
177
176
175
174
175
176
177
177
176
175
175
176
177
178
178
177
176
176
177
178
179
178
177
177
177
178
179
179
178
177
176
177
178
178
178
177
176
175
176
177
177
177
175
175
175
176
177
177
176
175
175
176
177
177
177
176
175
174
175
176
177
176
175
174
175
176
177
177
176
175
175
175
177
177
177
176
175
175
175
176
177
176
175
174
174
175
176
176
175
174
173
174
175
175
175
174
173
173
173
174
175
174
173
173
173
174
175
175
174
173
173
174
175
175
175
174
173
173
173
174
175
174
173
172
173
174
174
175
174
173
172
173
174
175
174
173
172
172
173
174
174
174
173
172
173
174
174
174
174
173
172
173
174
174
174
173
172
172
173
174
174
173
172
172
172
173
174
174
173
172
172
173
174
175
174
173
172
172
173
175
175
175
174
173
174
175
176
176
175
174
174
175
176
177
176
175
174
174
174
175
175
174
173
172
173
174
174
174
174
172
172
173
174
175
174
173
173
173
173
175
175
174
173
173
174
174
175
175
174
173
173
174
175
175
174
173
172
172
173
174
174
173
172
172
172
173
174
174
173
172
171
172
173
174
173
173
172
172
173
174
174
174
173
172
173
174
175
175
174
173
173
174
175
175
175
174
173
173
174
175
175
174
173
172
173
174
175
175
174
173
173
174
175
175
175
174
173
173
173
175
175
174
173
173
173
174
175
175
175
174
174
175
176
177
176
176
175
175
176
178
178
178
177
177
178
179
181
181
181
180
180
181
182
183
183
182
181
182
183
184
185
184
183
183
184
185
186
187
186
185
185
186
188
189
188
187
187
187
188
189
190
189
189
189
189
191
192
193
192
191
191
193
194
195
194
193
193
192
193
194
194
193
192
191
191
191
191
191
189
187
186
186
187
186
185
184
182
182
182
183
183
182
181
180
180
181
182
182
181
180
180
181
182
182
182
181
180
180
180
181
181
180
179
178
178
179
179
179
178
176
175
176
176
176
175
174
172
172
172
173
173
172
171
170
170
171
171
171
171
169
169
