# Simple Text Format
# Sampling Rate (Hz):= 1200.00
# Resolution:= 12
# Labels:= ECG	 V6
# Age:=	65
# Gender:=	Masculino
-142
-142
-142
-142
-142
-141
-142
-141
-141
-142
-142
-141
-140
-141
-140
-140
-141
-141
-140
-139
-139
-139
-139
-140
-139
-138
-138
-137
-138
-137
-138
-137
-136
-136
-136
-137
-136
-136
-136
-136
-136
-136
-137
-138
-137
-137
-137
-137
-138
-138
-137
-137
-137
-137
-137
-136
-136
-136
-135
-135
-133
-133
-134
-135
-134
-134
-133
-134
-134
-136
-136
-136
-136
-136
-135
-136
-137
-137
-137
-137
-136
-137
-138
-137
-138
-137
-137
-136
-136
-136
-136
-136
-135
-135
-134
-135
-135
-134
-134
-133
-133
-133
-133
-133
-132
-132
-131
-132
-132
-132
-133
-133
-132
-133
-133
-133
-134
-134
-134
-132
-132
-133
-133
-134
-134
-134
-134
-134
-134
-134
-134
-133
-133
-132
-131
-132
-132
-131
-130
-130
-131
-131
-131
-131
-132
-132
-131
-131
-132
-132
-133
-132
-133
-132
-132
-132
-133
-134
-134
-133
-133
-133
-133
-133
-133
-133
-132
-132
-132
-133
-132
-131
-131
-130
-130
-130
-131
-130
-130
-128
-128
-128
-127
-127
-127
-126
-126
-127
-128
-128
-128
-128
-128
-127
-128
-127
-128
-128
-128
-127
-127
-127
-127
-127
-128
-127
-127
-127
-127
-127
-127
-126
-126
-125
-124
-125
-124
-124
-123
-123
-122
-122
-121
-122
-121
-121
-120
-120
-120
-121
-120
-121
-120
-120
-119
-120
-121
-121
-121
-121
-121
-121
-122
-123
-122
-122
-123
-124
-124
-124
-124
-123
-122
-121
-122
-123
-123
-122
-122
-122
-121
-121
-120
-121
-121
-121
-120
-120
-120
-120
-120
-120
-120
-119
-120
-120
-120
-119
-119
-118
-118
-117
-117
-116
-115
-115
-114
-114
-114
-114
-113
-112
-111
-111
-110
-110
-110
-109
-109
-109
-109
-109
-109
-109
-110
-109
-109
-108
-109
-109
-109
-109
-108
-107
-108
-108
-108
-108
-107
-107
-107
-107
-107
-108
-108
-107
-107
-107
-108
-108
-109
-110
-109
-109
-109
-109
-109
-110
-109
-109
-109
-110
-110
-110
-110
-110
-110
-110
-111
-111
-111
-112
-112
-112
-113
-113
-114
-115
-114
-115
-115
-115
-116
-117
-117
-117
-116
-116
-117
-117
-117
-116
-115
-115
-115
-116
-115
-115
-114
-113
-113
-113
-113
-114
-114
-114
-113
-114
-114
-115
-114
-115
-114
-114
-115
-115
-115
-116
-115
-114
-114
-113
-113
-114
-113
-113
-111
-111
-111
-112
-111
-111
-110
-109
-109
-109
-109
-109
-108
-107
-108
-107
-108
-107
-107
-107
-106
-106
-106
-105
-105
-104
-103
-103
-102
-101
-101
-100
-98
-95
-93
-91
-89
-87
-83
-80
-75
-71
-66
-60
-55
-48
-40
-32
-24
-15
-7
3
12
22
32
39
47
53
60
66
71
74
76
76
75
73
70
66
60
52
44
33
24
13
2
-11
-23
-34
-46
-57
-67
-76
-87
-96
-105
-112
-117
-122
-126
-131
-133
-136
-136
-136
-136
-135
-135
-134
-132
-129
-126
-125
-123
-121
-118
-116
-114
-111
-110
-108
-106
-105
-104
-102
-101
-100
-100
-100
-99
-99
-99
-98
-99
-100
-99
-99
-98
-97
-98
-99
-99
-99
-98
-98
-98
-98
-98
-98
-99
-98
-98
-98
-99
-100
-99
-99
-100
-99
-100
-100
-100
-101
-101
-101
-102
-101
-101
-102
-101
-100
-99
-99
-99
-98
-98
-97
-96
-94
-93
-93
-93
-91
-89
-88
-88
-88
-88
-88
-87
-87
-88
-88
-88
-88
-89
-88
-89
-89
-90
-91
-92
-92
-92
-92
-92
-92
-92
-92
-93
-92
-92
-92
-92
-91
-92
-91
-91
-90
-89
-89
-89
-88
-88
-86
-85
-86
-86
-85
-85
-85
-84
-83
-83
-82
-83
-83
-81
-82
-82
-82
-83
-82
-82
-81
-80
-81
-81
-82
-82
-82
-82
-83
-83
-84
-83
-83
-82
-82
-82
-82
-82
-82
-81
-81
-81
-81
-81
-81
-81
-80
-80
-79
-80
-81
-80
-80
-80
-79
-79
-79
-79
-78
-77
-77
-76
-76
-75
-75
-74
-74
-73
-72
-72
-71
-71
-71
-70
-69
-69
-69
-68
-68
-68
-67
-67
-67
-67
-67
-67
-66
-66
-66
-66
-66
-66
-64
-64
-63
-62
-62
-62
-61
-60
-59
-58
-57
-57
-57
-55
-54
-53
-53
-52
-52
-50
-49
-47
-46
-45
-45
-44
-43
-41
-40
-39
-38
-37
-37
-36
-35
-34
-33
-33
-33
-32
-32
-31
-29
-29
-29
-28
-28
-26
-26
-25
-24
-24
-24
-23
-21
-20
-19
-19
-18
-18
-17
-15
-14
-13
-12
-11
-11
-10
-8
-7
-7
-5
-6
-4
-3
-2
-1
0
0
1
2
3
4
4
4
4
5
7
7
8
8
8
7
8
8
9
9
9
8
8
9
9
9
10
9
9
8
9
8
8
7
6
6
5
5
4
4
2
1
1
0
-1
-2
-3
-4
-5
-5
-6
-6
-7
-8
-10
-11
-13
-13
-13
-14
-16
-16
-17
-18
-19
-18
-19
-20
-22
-22
-23
-23
-24
-24
-26
-27
-27
-27
-27
-28
-30
-30
-31
-32
-32
-32
-33
-34
-34
-35
-35
-35
-36
-36
-37
-38
-38
-39
-39
-40
-40
-41
-41
-42
-42
-41
-42
-43
-43
-44
-43
-43
-42
-42
-42
-43
-43
-42
-42
-42
-43
-43
-44
-44
-44
-44
-44
-45
-45
-45
-46
-44
-45
-45
-46
-46
-46
-46
-45
-45
-46
-46
-46
-46
-44
-44
-44
-44
-44
-44
-44
-44
-43
-43
-43
-43
-43
-43
-42
-41
-42
-41
-42
-41
-40
-39
-38
-38
-38
-37
-36
-35
-34
-33
-33
-33
-33
-32
-32
-32
-32
-33
-32
-32
-32
-31
-32
-33
-33
-34
-34
-34
-34
-34
-34
-35
-34
-34
-32
-33
-33
-33
-32
-32
-31
-31
-31
-30
-31
-30
-29
-29
-29
-29
-29
-30
-30
-29
-29
-28
-29
-29
-28
-28
-27
-26
-26
-26
-26
-25
-25
-24
-23
-24
-24
-23
-24
-23
-22
-22
-22
-22
-23
-22
-22
-21
-21
-22
-22
-21
-20
-19
-19
-19
-19
-19
-18
-17
-16
-16
-16
-17
-17
-17
-16
-17
-17
-17
-18
-19
-19
-19
-19
-20
-21
-21
-21
-21
-21
-21
-22
-21
-22
-22
-20
-20
-19
-19
-19
-18
-17
-16
-16
-16
-15
-15
-15
-15
-14
-14
-15
-15
-15
-15
-15
-15
-15
-16
-16
-17
-17
-15
-16
-17
-17
-16
-16
-16
-16
-15
-16
-16
-18
-17
-17
-16
-16
-16
-16
-16
-16
-14
-15
-15
-16
-16
-15
-14
-14
-13
-13
-13
-13
-12
-11
-11
-11
-11
-11
-11
-9
-9
-9
-8
-9
-10
-9
-9
-9
-9
-9
-10
-10
-10
-10
-10
-10
-11
-11
-11
-11
-10
-11
-11
-11
-12
-12
-11
-11
-11
-12
-12
-11
-10
-9
-8
-7
-8
-8
-7
-7
-6
-5
-4
-5
-5
-4
-3
-2
-2
-2
-2
-2
-2
-1
-2
-2
-2
-2
-2
-2
-2
-2
-2
-2
-3
-3
-3
-3
-3
-3
-2
-2
-2
-1
-1
-1
-1
-1
0
0
1
0
1
1
1
1
2
2
1
1
1
1
2
2
2
2
2
2
3
4
5
5
5
6
6
7
8
9
9
10
9
10
10
10
11
11
11
11
11
12
12
12
11
11
10
11
10
11
11
10
10
11
11
11
12
12
12
13
12
14
14
15
15
14
15
15
16
17
17
17
17
16
17
18
17
17
17
18
18
19
20
21
20
19
20
19
20
21
21
20
20
20
21
21
21
21
21
21
21
21
21
21
21
20
20
20
19
20
20
19
17
18
18
18
18
18
19
19
18
19
19
20
20
19
19
19
20
20
20
21
21
21
22
23
23
23
24
24
25
25
25
26
26
26
26
27
28
28
29
29
29
29
29
29
29
28
27
27
27
26
25
25
24
23
22
22
22
21
21
20
19
19
19
20
20
20
21
21
21
23
24
25
26
26
27
27
28
28
28
27
27
27
27
28
27
26
25
24
24
24
23
23
23
22
22
22
22
22
22
22
23
23
25
26
28
29
29
30
31
32
33
34
35
34
34
34
36
35
35
35
33
33
32
32
31
31
30
29
29
29
28
28
27
26
26
26
25
26
26
26
25
26
26
25
26
26
26
25
26
27
27
27
27
27
27
27
28
28
28
28
28
28
29
29
29
30
31
31
33
34
35
35
36
36
37
37
37
38
39
39
38
38
39
39
39
39
38
38
37
38
38
37
37
36
36
36
36
36
36
37
37
37
38
38
40
39
39
40
41
42
44
44
45
45
46
47
48
49
49
50
50
50
51
51
51
51
51
50
51
51
50
50
50
49
48
47
47
46
46
45
45
45
45
45
45
45
44
44
44
44
45
46
45
45
44
45
43
44
43
42
42
42
42
42
43
43
43
42
42
43
43
43
44
43
42
42
42
42
42
42
41
41
41
40
40
40
39
38
38
38
38
38
38
38
38
39
39
40
40
41
41
42
43
44
45
45
45
45
46
47
48
48
47
47
46
47
47
47
47
47
47
47
47
48
47
47
47
47
47
49
50
51
50
52
51
52
53
55
55
56
56
58
60
63
65
68
70
74
77
82
87
92
97
103
110
116
124
131
139
148
157
165
175
184
193
201
208
214
220
226
230
233
235
234
233
230
227
222
215
207
197
187
177
166
154
141
128
116
103
93
82
72
61
53
45
37
32
27
22
19
16
15
15
15
15
15
17
18
19
21
23
24
27
28
29
31
32
34
36
37
38
39
41
42
43
43
43
44
45
46
47
48
47
47
48
48
47
48
48
47
47
47
47
47
48
47
46
45
44
44
44
43
42
42
40
40
40
39
38
37
36
35
36
36
35
36
35
35
35
36
37
38
39
39
39
40
40
40
40
40
40
40
40
41
40
39
38
38
36
36
35
34
34
34
33
33
33
34
34
34
35
36
37
39
41
42
44
45
46
48
49
50
51
51
51
52
52
52
51
50
50
49
48
48
47
47
45
45
44
44
43
43
42
41
41
41
41
41
41
39
39
39
40
40
40
39
39
38
38
39
38
39
39
38
37
37
38
38
38
39
39
39
40
40
40
41
40
41
42
42
44
44
45
45
44
45
46
46
46
46
46
47
47
48
48
49
49
49
49
51
51
52
53
52
53
53
54
54
54
54
54
53
54
54
54
54
53
52
52
53
53
52
52
51
51
52
53
53
54
54
55
56
57
59
60
60
62
62
65
66
68
70
72
72
73
74
75
77
78
78
79
79
80
81
80
80
80
81
81
82
81
81
81
80
80
80
80
81
81
81
81
82
83
85
86
87
88
89
90
92
94
95
96
97
98
98
100
100
101
101
101
102
103
103
104
103
103
103
104
104
105
106
106
107
107
108
109
110
111
111
111
111
111
113
112
112
111
111
110
109
109
108
107
105
104
103
101
101
99
98
97
97
97
97
97
97
97
97
97
98
99
99
98
99
99
99
99
99
98
97
95
94
94
93
92
90
88
87
86
85
84
82
81
79
78
76
75
74
73
71
69
68
67
66
65
64
63
61
59
58
57
55
54
52
51
50
49
48
47
46
44
44
44
44
43
43
42
41
41
41
42
41
41
40
41
40
41
40
41
41
41
40
41
41
42
41
42
42
43
43
44
44
43
43
43
43
44
44
44
43
43
42
42
41
41
40
40
39
39
40
40
39
38
37
37
37
38
38
39
39
38
40
41
41
42
43
43
43
43
44
45
45
45
45
45
45
45
45
44
44
42
42
42
41
41
42
41
41
42
42
43
42
42
42
42
43
43
44
44
44
44
45
45
46
46
46
45
44
44
44
43
43
42
41
40
41
40
39
38
38
38
37
37
37
38
37
38
39
39
41
42
43
44
45
45
47
49
49
50
50
51
51
51
52
51
52
51
50
50
50
49
49
48
47
47
46
47
46
45
45
45
45
45
45
46
46
45
46
46
48
47
47
47
47
46
47
47
46
46
46
45
45
45
45
45
44
44
43
43
43
44
43
44
44
44
45
46
46
46
45
46
45
45
47
47
46
47
47
48
49
49
48
48
48
48
49
49
49
49
50
50
50
49
50
50
49
49
49
49
49
50
49
48
48
47
47
47
46
46
45
43
43
43
42
42
42
40
40
39
40
39
39
37
37
37
37
37
38
38
38
38
38
39
39
39
40
40
40
40
41
42
42
41
41
41
42
42
42
42
42
42
43
44
45
46
46
46
47
47
48
49
49
50
49
50
50
51
50
50
50
49
49
49
49
49
48
49
49
49
48
49
49
47
47
47
47
46
46
46
46
45
45
46
46
46
46
44
44
43
42
43
41
41
40
39
40
40
40
38
38
37
38
37
37
38
38
38
38
39
39
40
40
39
40
40
41
42
42
42
43
42
44
44
45
45
45
45
44
45
45
46
46
45
45
45
45
44
44
42
41
40
40
39
40
38
38
38
36
35
36
35
35
35
35
35
34
35
35
36
35
36
36
36
38
38
38
39
39
39
41
41
42
42
41
41
42
42
41
41
40
40
39
39
40
40
39
38
37
36
36
35
35
32
32
32
31
31
31
31
30
30
30
30
31
30
31
31
30
31
31
32
33
33
34
33
34
35
35
35
35
34
35
36
36
36
35
35
35
35
34
34
35
34
33
32
31
31
30
28
27
27
26
26
27
27
26
25
26
26
26
27
27
28
28
29
30
31
32
32
33
33
34
34
35
35
36
36
36
36
36
36
35
35
33
33
33
32
32
31
30
30
29
30
29
28
28
27
27
28
29
28
29
28
28
28
29
29
29
29
29
29
29
29
30
31
30
30
31
32
32
32
32
32
31
31
31
31
31
31
31
29
30
29
29
28
28
27
26
25
25
25
25
24
23
22
22
22
23
22
22
22
22
23
22
22
23
23
23
24
25
25
25
25
25
25
25
25
26
25
24
24
24
24
25
25
24
24
24
23
23
23
22
21
21
19
19
19
18
18
17
16
17
17
16
15
14
14
14
13
14
14
14
13
13
13
13
13
13
12
12
11
11
10
10
9
8
8
7
5
5
5
4
3
1
1
-1
-1
-2
-3
-4
-5
-6
-6
-6
-6
-7
-7
-8
-9
-9
-8
-9
-10
-10
-11
-11
-11
-11
-11
-13
-13
-12
-12
-12
-12
-12
-13
-13
-13
-12
-12
-11
-12
-13
-13
-12
-12
-11
-12
-12
-13
-13
-13
-13
-13
-14
-14
-14
-14
-14
-13
-14
-15
-15
-15
-15
-15
-15
-15
-16
-16
-15
-14
-15
-14
-13
-13
-12
-12
-11
-8
-8
-6
-4
-3
1
4
7
11
14
18
23
28
34
41
46
54
61
70
78
88
96
105
114
122
130
138
145
151
155
159
163
166
168
168
166
163
158
153
146
138
129
118
107
95
84
73
61
49
37
26
15
5
-5
-15
-23
-29
-37
-41
-45
-48
-52
-54
-55
-57
-56
-55
-55
-54
-53
-52
-51
-48
-47
-44
-43
-40
-38
-36
-33
-31
-29
-29
-28
-27
-25
-24
-23
-23
-22
-22
-21
-21
-21
-21
-20
-21
-20
-20
-20
-20
-21
-21
-22
-23
-23
-23
-24
-24
-25
-26
-26
-26
-25
-25
-26
-26
-26
-26
-25
-26
-26
-26
-26
-26
-25
-25
-25
-25
-26
-26
-25
-25
-25
-25
-26
-25
-25
-24
-25
-24
-25
-25
-25
-26
-26
-25
-26
-26
-26
-27
-26
-26
-27
-27
-27
-27
-27
-27
-27
-26
-26
-27
-27
-27
-27
-25
-26
-26
-26
-28
-28
-27
-26
-28
-27
-28
-28
-27
-27
-28
-28
-29
-29
-29
-27
-27
-26
-26
-25
-26
-25
-24
-23
-22
-22
-22
-21
-20
-19
-19
-18
-18
-18
-18
-18
-17
-17
-18
-19
-19
-19
-19
-19
-19
-20
-21
-21
-20
-21
-20
-21
-22
-23
-23
-23
-23
-23
-24
-24
-24
-24
-24
-24
-25
-24
-25
-25
-24
-24
-24
-24
-24
-25
-26
-25
-25
-25
-26
-26
-27
-27
-26
-25
-26
-26
-26
-27
-26
-26
-25
-25
-26
-26
-26
-25
-25
-26
-26
-26
-26
-26
-26
-26
-25
-26
-26
-26
-25
-25
-24
-24
-24
-24
-24
-23
-21
-21
-20
-21
-20
-19
-19
-17
-17
-16
-15
-14
-13
-12
-11
-10
-10
-10
-10
-9
-8
-7
-6
-6
-6
-5
-4
-3
-2
-2
-2
-2
-1
0
1
2
2
2
3
4
5
5
6
6
6
7
8
10
10
11
11
12
13
15
15
16
16
16
18
18
19
20
20
20
19
21
20
21
21
20
20
20
21
21
21
21
20
20
20
21
21
21
21
21
20
21
21
22
22
22
21
22
22
22
21
20
20
18
17
16
16
15
14
12
11
10
9
9
7
6
5
4
2
2
2
1
-1
-2
-2
-3
-3
-4
-5
-7
-8
-10
-10
-11
-12
-13
-16
-17
-18
-19
-19
-21
-22
-23
-24
-25
-25
-27
-29
-30
-31
-32
-33
-32
-33
-34
-35
-36
-36
-36
-36
-37
-38
-39
-40
-41
-40
-41
-42
-43
-43
-44
-44
-44
-45
-46
-46
-47
-47
-47
-47
-48
-48
-50
-50
-51
-52
-52
-53
-54
-54
-55
-55
-54
-55
-54
-54
-54
-54
-54
-53
-53
-54
-53
-53
-52
-52
-51
-51
-51
-52
-51
-50
-49
-49
-49
-49
-49
-49
-49
-48
-49
-49
-50
-50
-49
-50
-50
-50
-51
-52
-51
-52
-52
-52
-53
-54
-55
-55
-55
-55
-56
-55
-56
-56
-56
-56
-55
-56
-56
-56
-55
-55
-55
-55
-54
-54
-54
-53
-52
-51
-52
-52
-52
-52
-51
-51
-51
-52
-51
-51
-51
-51
-51
-51
-52
-52
-51
-51
-51
-50
-51
-51
-51
-52
-52
-51
-52
-53
-53
-53
-54
-54
-53
-55
-55
-56
-56
-56
-57
-56
-57
-58
-59
-59
-59
-59
-59
-60
-59
-60
-59
-59
-59
-59
-59
-59
-59
-58
-58
-57
-57
-57
-57
-58
-58
-57
-58
-58
-58
-58
-57
-58
-56
-57
-57
-58
-58
-57
-57
-57
-57
-58
-58
-59
-58
-57
-57
-58
-59
-59
-59
-59
-59
-59
-59
-59
-60
-59
-59
-60
-59
-61
-61
-60
-60
-60
-60
-61
-61
-61
-61
-61
-60
-61
-61
-61
-61
-61
-61
-61
-61
-61
-62
-62
-61
-61
-61
-61
-63
-62
-62
-62
-61
-62
-62
-62
-62
-62
-61
-61
-61
-62
-63
-63
-63
-63
-64
-64
-64
-65
-65
-65
-64
-66
-65
-66
-65
-65
-64
-64
-63
-64
-63
-63
-63
-62
-62
-61
-62
-62
-62
-62
-62
-62
-63
-64
-64
-65
-65
-66
-66
-67
-68
-69
-69
-70
-70
-71
-71
-72
-71
-71
-70
-71
-71
-71
-71
-71
-70
-71
-71
-71
-71
-71
-70
-69
-70
-70
-70
-71
-71
-71
-71
-71
-71
-72
-71
-71
-71
-72
-71
-72
-73
-72
-72
-73
-72
-73
-73
-73
-73
-73
-72
-72
-72
-72
-72
-72
-72
-71
-71
-72
-72
-72
-72
-71
-71
-71
-71
-72
-72
-72
-72
-73
-73
-74
-74
-74
-73
-73
-74
-75
-75
-75
-76
-76
-75
-76
-77
-77
-77
-77
-77
-77
-77
-77
-77
-77
-76
-76
-76
-76
-76
-77
-76
-77
-76
-76
-76
-76
-76
-75
-75
-76
-76
-76
-76
-76
-75
-75
-75
-75
-75
-76
-75
-75
-75
-75
-75
-76
-76
-76
-75
-76
-77
-78
-78
-79
-78
-78
-79
-80
-81
-81
-81
-81
-82
-82
-83
-83
-82
-82
-82
-81
-82
-82
-81
-80
-80
-80
-80
-79
-79
-79
-78
-78
-77
-78
-77
-77
-77
-77
-76
-76
-76
-76
-77
-77
-76
-77
-77
-77
-78
-78
-79
-79
-80
-80
-81
-81
-81
-81
-81
-81
-81
-81
-82
-82
-81
-81
-81
-81
-81
-81
-81
-80
-80
-80
-81
-81
-80
-80
-80
-80
-81
-82
-82
-81
-81
-80
-80
-80
-81
-81
-81
-80
-80
-81
-81
-81
-80
-80
-79
-79
-80
-80
-80
-80
-80
-80
-80
-80
-81
-81
-81
-81
-81
-82
-82
-82
-82
-82
-81
-81
-81
-81
-82
-81
-80
-80
-81
-81
-81
-82
-82
-82
-82
-83
-84
-83
-84
-83
-82
-83
-83
-84
-84
-83
-83
-83
-83
-83
-83
-83
-82
-82
-81
-81
-82
-82
-81
-81
-80
-81
-81
-81
-81
-79
-79
-78
-78
-78
-78
-78
-78
-77
-76
-77
-76
-77
-76
-75
-75
-74
-76
-75
-75
-75
-75
-74
-75
-75
-76
-76
-74
-74
-74
-75
-75
-74
-75
-73
-73
-72
-72
-73
-72
-71
-70
-69
-69
-70
-69
-68
-69
-67
-68
-67
-69
-68
-68
-68
-67
-67
-68
-69
-69
-70
-70
-70
-71
-72
-73
-74
-74
-74
-74
-75
-76
-77
-76
-76
-77
-77
-78
-78
-79
-79
-78
-79
-79
-80
-81
-81
-81
-81
-81
-81
-81
-82
-82
-82
-82
-82
-82
-83
-82
-81
-81
-81
-81
-81
-81
-82
-81
-81
-82
-82
-83
-83
-83
-83
-83
-83
-83
-84
-84
-83
-83
-83
-84
-84
-84
-84
-83
-83
-83
-83
-84
-83
-83
-83
-83
-83
-83
-83
-84
-83
-82
-84
-84
-85
-85
-85
-85
-84
-85
-85
-86
-86
-87
-86
-87
-87
-87
-87
-87
-86
-86
-86
-85
-86
-86
-85
-83
-81
-81
-80
-78
-77
-75
-72
-70
-66
-63
-60
-56
-51
-47
-41
-35
-30
-24
-17
-9
-1
7
15
24
32
42
51
60
68
75
82
88
94
98
102
104
105
103
102
99
95
89
81
74
64
54
44
33
22
9
-3
-14
-25
-36
-45
-56
-65
-74
-82
-88
-94
-99
-103
-107
-109
-111
-112
-112
-112
-111
-111
-110
-108
-106
-105
-104
-102
-101
-99
-97
-97
-95
-95
-94
-94
-94
-92
-92
-91
-92
-92
-92
-92
-92
-91
-92
-92
-93
-93
-92
-92
-92
-91
-92
-91
-91
-90
-90
-89
-89
-88
-89
-87
-87
-87
-86
-86
-87
-87
-86
-86
-86
-86
-87
-87
-88
-87
-88
-88
-89
-90
-90
-90
-89
-90
-89
-90
-90
-90
-90
-89
-89
-89
-89
-89
-89
-88
-87
-87
-87
-86
-86
-85
-84
-84
-84
-85
-85
-85
-84
-84
-85
-85
-85
-86
-86
-86
-86
-86
-86
-86
-88
-87
-87
-86
-87
-87
-87
-86
-86
-85
-85
-84
-85
-85
-85
-85
-84
-84
-84
-85
-84
-84
-83
-83
-84
-84
-84
-85
-85
-85
-86
-86
-87
-87
-87
-87
-86
-86
-87
-87
-86
-86
-85
-85
-85
-85
-85
-84
-84
-84
-83
-83
-83
-83
-82
-82
-81
-81
-81
-81
-81
-80
-80
-80
-80
-81
-81
-81
-81
-81
-80
-81
-81
-81
-81
-81
-80
-80
-81
-80
-80
-80
-78
-79
-79
-79
-79
-78
-77
-77
-76
-76
-75
-75
-74
-74
-73
-73
-72
-72
-71
-70
-68
-68
-68
-68
-67
-66
-66
-64
-64
-64
-64
-63
-63
-61
-61
-61
-60
-60
-60
-59
-58
-58
-58
-58
-58
-58
-57
-56
-56
-56
-56
-55
-55
-54
-53
-52
-51
-50
-50
-48
-47
-46
-46
-45
-44
-44
-42
-42
-41
-41
-41
-40
-40
-40
-39
-38
-38
-39
-39
-38
-37
-36
-35
-36
-36
-35
-34
-33
-32
-31
-31
-31
-29
-28
-27
-26
-26
-26
-25
-23
-23
-22
-22
-22
-22
-21
-21
-20
-20
-21
-21
-22
-22
-21
-21
-20
-20
-21
-20
-20
-19
-20
-19
-19
-19
-20
-19
-19
-19
-19
-19
-19
-20
-19
-18
-20
-20
-20
-21
-21
-21
-22
-23
-24
-25
-27
-27
-29
-30
-31
-33
-34
-35
-37
-37
-39
-41
-42
-44
-44
-46
-47
-48
-50
-51
-53
-53
-53
-55
-57
-57
-59
-59
-60
-61
-62
-63
-65
-66
-67
-67
-67
-68
-69
-71
-72
-73
-73
-74
-75
-75
-76
-76
-75
-75
-76
-76
-77
-78
-78
-78
-78
-79
-79
-80
-80
-80
-80
-81
-82
-82
-83
-84
-82
-84
-84
-83
-84
-85
-84
-83
-83
-83
-84
-83
-84
-83
-83
-83
-84
-84
-84
-84
-84
-84
-84
-84
-85
-85
-84
-84
-84
-84
-84
-85
-85
-85
-84
-85
-85
-86
-87
-87
-86
-87
-87
-86
-87
-86
-86
-86
-86
-85
-86
-86
-86
-85
-85
-85
-85
-85
-84
-84
-84
-83
-83
-84
-84
-84
-84
-84
-84
-85
-86
-86
-86
-86
-85
-86
-86
-86
-87
-86
-86
-85
-85
-86
-85
-85
-85
-84
-84
-83
-83
-83
-84
-83
-83
-83
-83
-83
-84
-84
-83
-83
-83
-83
-84
-84
-84
-84
-84
-84
-84
-84
-85
-84
-84
-83
-84
-84
-84
-84
-83
-83
-83
-82
-82
-82
-82
-80
-80
-80
-81
-80
-81
-80
-80
-79
-80
-80
-80
-79
-79
-79
-78
-78
-78
-78
-78
-78
-78
-79
-80
-80
-80
-80
-80
-81
-81
-82
-82
-82
-83
-82
-83
-83
-84
-84
-83
-82
-82
-82
-82
-82
-83
-83
-82
-82
-83
-83
-83
-82
-82
-82
-83
-83
-83
-84
-83
-83
-83
-83
-84
-85
-84
-84
-84
-84
-84
-85
-84
-84
-84
-84
-84
-84
-85
-84
-85
-84
-84
-85
-85
-85
-85
-85
-85
-86
-87
-87
-88
-87
-87
-87
-88
-88
-88
-89
-89
-89
-88
-88
-90
-90
-90
-89
-90
-90
-89
-90
-90
-89
-88
-88
-88
-88
-88
-88
-87
-86
-85
-84
-85
-84
-84
-83
-83
-83
-83
-84
-84
-83
-84
-84
-84
-85
-85
-86
-85
-85
-86
-86
-87
-88
-88
-88
-88
-88
-88
-90
-90
-89
-89
-89
-89
-90
-90
-90
-89
-89
-88
-88
-89
-89
-88
-88
-87
-87
-87
-86
-86
-86
-86
-84
-84
-84
-85
-84
-83
-83
-83
-83
-84
-84
-84
-83
-83
-83
-83
-84
-84
-83
-84
-83
-83
-83
-84
-84
-84
-84
-84
-85
-86
-86
-87
-87
-86
-88
-88
-89
-90
-90
-90
-90
-90
-91
-90
-91
-90
-91
-90
-91
-92
-92
-92
-91
-91
-91
-91
-92
-92
-92
-91
-91
-91
-90
-91
-90
-89
-89
-88
-89
-88
-89
-88
-88
-88
-88
-87
-88
-87
-87
-87
-87
-86
-87
-87
-87
-87
-87
-87
-87
-87
-87
-88
-86
-87
-87
-87
-87
-87
-87
-87
-85
-85
-86
-86
-86
-85
-85
-86
-86
-87
-87
-87
-87
-87
-87
-87
-88
-88
-88
-88
-88
-88
-88
-89
-89
-88
-88
-87
-88
-88
-88
-88
-88
-87
-88
-87
-88
-88
-89
-89
-89
-89
-89
-90
-90
-89
-89
-90
-89
-90
-90
-91
-91
-90
-91
-91
-91
-92
-91
-90
-89
-89
-90
-90
-91
-90
-90
-90
-90
-90
-90
-91
-91
-90
-90
-90
-91
-91
-90
-90
-90
-89
-89
-89
-89
-88
-88
-87
-88
-89
-88
-88
-88
-88
-88
-89
-89
-89
-89
-89
-89
-89
-89
-90
-90
-89
-89
-89
-90
-90
-90
-90
-90
-90
-89
-90
-90
-90
-90
-90
-90
-90
-90
-90
-90
-90
-89
-88
-88
-89
-89
-89
-89
-88
-88
-89
-90
-90
-90
-89
-89
-89
-90
-91
-91
-90
-91
-91
-92
-93
-93
-93
-93
-93
-92
-93
-94
-93
-93
-93
-92
-93
-92
-93
-92
-91
-90
-90
-89
-89
-88
-88
-87
-86
-86
-87
-86
-86
-85
-85
-83
-83
-83
-82
-81
-81
-79
-78
-78
-78
-77
-77
-77
-76
-75
-75
-75
-76
-75
-75
-74
-74
-75
-75
-75
-75
-74
-75
-75
-75
-76
-76
-76
-75
-75
-76
-76
-76
-76
-76
-75
-75
-76
-77
-76
-76
-76
-76
-77
-78
-79
-79
-79
-79
-81
-82
-82
-83
-83
-84
-84
-84
-85
-86
-87
-86
-86
-86
-86
-87
-87
-86
-86
-85
-86
-85
-86
-86
-86
-85
-86
-86
-86
-86
-86
-85
-85
-85
-86
-86
-87
-87
-86
-87
-86
-88
-88
-88
-88
-89
-89
-90
-91
-91
-91
-90
-90
-91
-92
-93
-93
-94
-94
-95
-95
-95
-95
-96
-95
-95
-95
-95
-95
-95
-95
-94
-94
-93
-94
-93
-94
-94
-93
-92
-93
-93
-94
-93
-94
-93
-93
-93
-93
-94
-94
-94
-93
-93
-94
-94
-93
-93
-91
-90
-90
-89
-89
-88
-87
-85
-85
-83
-81
-80
-78
-74
-72
-69
-67
-64
-60
-56
-52
-46
-41
-35
-29
-21
-14
-5
4
13
22
31
41
49
58
67
74
79
85
90
92
95
95
94
91
87
83
76
68
59
49
38
27
15
4
-8
-20
-32
-44
-55
-65
-75
-84
-92
-99
-106
-111
-114
-118
-121
-123
-125
-125
-124
-124
-123
-123
-122
-120
-118
-117
-114
-112
-111
-109
-108
-106
-105
-103
-102
-101
-101
-99
-98
-98
-97
-96
-97
-96
-96
-96
-96
-96
-96
-96
-97
-97
-97
-97
-97
-98
-98
-99
-98
-98
-98
-99
-99
-100
-100
-100
-100
-101
-101
-102
-101
-101
-100
-100
-101
-101
-100
-100
-99
-99
-99
-99
-99
-100
-99
-99
-98
-99
-99
-99
-99
-98
-97
-97
-97
-97
-97
-97
-96
-96
-96
-96
-97
-97
-97
-97
-97
-97
-97
-98
-98
-98
-98
-98
-99
-99
-99
-99
-99
-99
-99
-99
-100
-100
-100
-100
-100
-100
-100
-100
-101
-100
-99
-98
-98
-99
-99
-98
-97
-97
-97
-97
-96
-97
-96
-96
-96
-96
-97
-96
-97
-97
-97
-97
-96
-97
-97
-97
-97
-96
-96
-96
-96
-96
-95
-94
-93
-94
-94
-94
-95
-93
-93
-93
-93
-93
-94
-94
-94
-93
-93
-94
-95
-95
-95
-95
-95
-95
-95
-95
-96
-96
-96
-96
-95
-96
-95
-94
-94
-94
-93
-93
-93
-93
-92
-91
-90
-90
-90
-89
-90
-89
-88
-87
-86
-85
-85
-84
-84
-83
-84
-84
-84
-85
-84
-84
-84
-84
-84
-85
-85
-84
-85
-84
-85
-84
-84
-83
-81
-81
-80
-80
-79
-79
-78
-77
-76
-75
-74
-73
-72
-72
-71
-70
-69
-69
-69
-68
-67
-66
-65
-65
-65
-64
-64
-63
-62
-62
-62
-61
-61
-60
-58
-58
-57
-57
-56
-56
-55
-54
-53
-54
-53
-53
-53
-52
-51
-51
-50
-49
-50
-49
-49
-48
-47
-46
-46
-45
-44
-43
-42
-42
-42
-41
-41
-40
-39
-38
-38
-38
-37
-36
-35
-34
-34
-34
-33
-32
-31
-31
-30
-31
-31
-30
-30
-30
-30
-30
-30
-31
-31
-31
-31
-31
-32
-33
-33
-34
-34
-35
-35
-36
-37
-38
-38
-39
-40
-41
-41
-42
-43
-44
-44
-45
-45
-46
-47
-48
-49
-50
-51
-53
-54
-55
-55
-56
-57
-58
-60
-61
-62
-63
-64
-66
-66
-67
-68
-68
-70
-70
-71
-72
-74
-75
-76
-77
-78
-79
-80
-81
-83
-84
-84
-85
-86
-86
-87
-87
-88
-88
-89
-89
-91
-91
-92
-91
-92
-92
-93
-93
-94
-93
-94
-94
-95
-95
-96
-96
-95
-95
-95
-95
-96
-96
-96
-96
-96
-96
-96
-96
-95
-95
-96
-95
-95
-95
-96
-96
-96
-95
-96
-97
-97
-98
-98
-98
-98
-98
-99
-99
-99
-99
-99
-99
-99
-99
-99
-99
-99
-98
-98
-98
-99
-99
-98
-98
-98
-98
-99
-99
-99
-99
-98
-99
-99
-99
-99
-100
-99
-99
-98
-99
-99
-100
-99
-99
-99
-99
-99
-100
-99
-99
-99
-98
-98
-99
-98
-97
-97
-97
-97
-97
-97
-97
-96
-96
-95
-95
-96
-96
-96
-96
-96
-96
-97
-97
-97
-97
-98
-97
-97
-98
-99
-100
-100
-100
-100
-100
-101
-101
-102
-101
-101
-101
-101
-101
-101
-100
-100
-100
-101
-101
-102
-102
-102
-102
-101
-101
-102
-102
-103
-103
-102
-102
-103
-103
-103
-103
-103
-103
-103
-104
-104
-104
-104
-103
-104
-103
-103
-105
-105
-105
-105
-104
-104
-105
-106
-105
-105
-105
-105
-106
-106
-106
-106
-106
-106
-106
-107
-108
-108
-107
-107
-106
-107
-107
-108
-108
-108
-108
-107
-108
-109
-109
-109
-109
-109
-109
-109
-110
-110
-109
-109
-108
-109
-109
-109
-109
-108
-107
-107
-108
-108
-108
-107
-108
-107
-107
-108
-108
-108
-107
-108
-108
-108
-109
-110
-109
-109
-109
-109
-110
-110
-110
-110
-110
-110
-111
-112
-112
-111
-112
-111
-112
-112
-112
-113
-112
-112
-111
-112
-111
-112
-111
-112
-111
-111
-111
-111
-112
-112
-111
-111
-110
-110
-111
-111
-110
-110
-110
-110
-111
-111
-111
-111
-112
-111
-112
-112
-112
-113
-112
-112
-111
-112
-112
-112
-112
-112
-112
-112
-112
-114
-113
-114
-113
-114
-113
-115
-114
-115
-115
-115
-114
-114
-115
-115
-114
-114
-113
-113
-113
-113
-114
-114
-113
-113
-113
-113
-113
-113
-112
-112
-111
-111
-112
-112
-112
-112
-112
-112
-113
-113
-113
-113
-113
-114
-114
-114
-116
-116
-116
-116
-116
-117
-118
-118
-117
-117
-116
-116
-116
-117
-116
-116
-116
-116
-116
-115
-116
-115
-115
-114
-114
-114
-114
-115
-114
-114
-114
-113
-114
-114
-115
-114
-114
-114
-115
-115
-116
-116
-115
-116
-115
-116
-116
-116
-116
-116
-116
-116
-117
-117
-117
-117
-117
-116
-117
-117
-117
-117
-116
-115
-116
-115
-116
-115
-115
-115
-115
-114
-114
-115
-115
-115
-115
-115
-116
-116
-116
-116
-117
-116
-117
-117
-118
-118
-118
-118
-118
-118
-117
-118
-118
-117
-117
-117
-117
-117
-116
-116
-116
-115
-115
-114
-114
-113
-112
-111
-110
-109
-109
-109
-109
-109
-108
-108
-108
-109
-109
-110
-110
-109
-109
-109
-110
-111
-112
-111
-112
-112
-113
-113
-113
-113
-113
-113
-113
-113
-114
-113
-113
-114
-113
-114
-114
-113
-113
-113
-113
-113
-112
-113
-113
-112
-111
-111
-111
-111
-111
-111
-111
-110
-110
-110
-110
-110
-109
-108
-108
-108
-109
-109
-109
-109
-108
-108
-108
-108
-108
-108
-107
-107
-106
-106
-106
-106
-106
-106
-106
-106
-106
-107
-107
-107
-107
-107
-108
-108
-109
-109
-109
-108
-108
-110
-110
-110
-109
-109
-109
-109
-109
-109
-110
-109
-110
-109
-109
-110
-111
-111
-110
-111
-110
-111
-111
-111
-111
-110
-110
-110
-110
-110
-110
-110
-109
-109
-109
-109
-110
-109
-109
-108
-108
-108
-108
-107
-107
-107
-106
-106
-106
-106
-107
-106
-106
-106
-107
-107
-108
-108
-108
-108
-108
-108
-110
-110
-110
-109
-108
-108
-108
-108
-108
-108
-107
-106
-106
-106
-105
-104
-103
-101
-101
-100
-100
-99
-99
-97
-97
-97
-97
-97
-97
-97
-97
-97
-97
-98
-98
-98
-99
-98
-99
-99
-99
-100
-101
-101
-100
-101
-102
-102
-103
-105
-105
-105
-106
-107
-107
-107
-108
-108
-108
-109
-109
-109
-110
-110
-109
-109
-109
-110
-110
-109
-109
-108
-108
-107
-106
-106
-106
-106
-105
-105
-105
-104
-104
-103
-102
-102
-102
-103
-103
-102
-103
-104
-103
-105
-106
-106
-106
-107
-107
-108
-109
-110
-109
-109
-110
-110
-110
-111
-111
-111
-110
-110
-111
-111
-111
-110
-111
-110
-110
-110
-110
-111
-110
-110
-111
-110
-111
-111
-111
-112
-112
-113
-113
-113
-113
-113
-113
-112
-111
-111
-111
-110
-109
-108
-106
-105
-104
-104
-102
-101
-99
-97
-95
-93
-92
-90
-86
-83
-79
-76
-71
-67
-62
-56
-49
-43
-37
-29
-21
-12
-3
6
15
23
31
39
46
53
59
63
67
69
71
71
69
67
63
57
50
42
33
23
12
1
-10
-23
-34
-46
-57
-68
-78
-89
-98
-106
-113
-120
-125
-131
-135
-137
-140
-141
-142
-143
-143
-142
-141
-139
-137
-136
-134
-132
-129
-127
-124
-122
-120
-119
-117
-115
-113
-112
-112
-111
-111
-110
-110
-109
-109
-109
-110
-110
-110
-110
-110
-111
-112
-112
-112
-112
-113
-113
-114
-114
-114
-114
-114
-113
-112
-113
-112
-112
-111
-111
-110
-109
-109
-109
-109
-108
-107
-107
-107
-107
-106
-107
-106
-106
-105
-106
-105
-106
-106
-106
-105
-106
-106
-106
-108
-107
-107
-107
-108
-108
-108
-109
-108
-108
-108
-109
-109
-109
-109
-109
-109
-108
-109
-109
-110
-109
-108
-109
-109
-110
-109
-109
-109
-108
-108
-108
-108
-108
-108
-107
-107
-106
-106
-105
-104
-103
-102
-103
-102
-103
-102
-101
-101
-100
-99
-98
-98
-97
-97
-97
-96
-96
-97
-98
-98
-99
-98
-98
-99
-99
-100
-100
-100
-99
-100
-101
-101
-101
-101
-101
-99
-99
-100
-99
-99
-98
-98
-98
-99
-99
-99
-98
-98
-97
-97
-96
-98
-97
-97
-96
-95
-96
-96
-96
-96
-96
-95
-94
-94
-94
-93
-93
-93
-92
-92
-92
-93
-93
-93
-91
-91
-92
-91
-91
-91
-91
-91
-90
-91
-91
-91
-90
-90
-89
-89
-88
-87
-88
-87
-86
-85
-85
-85
-84
-84
-84
-84
-83
-82
-83
-82
-81
-80
-79
-79
-78
-79
-78
-76
-75
-73
-73
-72
-72
-71
-70
-68
-67
-67
-66
-65
-65
-63
-62
-61
-60
-59
-58
-57
-56
-56
-55
-54
-54
-53
-53
-52
-51
-51
-50
-50
-49
-48
-47
-46
-46
-45
-45
-44
-43
-42
-41
-41
-40
-40
-39
-38
-37
-37
-37
-36
-36
-35
-34
-34
-34
-33
-33
-32
-30
-30
-29
-29
-29
-29
-28
-28
-27
-27
-27
-27
-26
-26
-25
-24
-24
-24
-24
-24
-24
-23
-23
-23
-24
-25
-24
-25
-25
-26
-26
-27
-28
-28
-28
-28
-29
-30
-31
-31
-31
-31
-32
-33
-34
-35
-36
-36
-36
-37
-39
-40
-40
-41
-42
-43
-44
-45
-47
-48
-49
-50
-52
-53
-55
-56
-58
-58
-60
-61
-63
-65
-65
-66
-67
-67
-68
-69
-70
-70
-70
-70
-72
-72
-73
-73
-73
-73
-74
-74
-75
-76
-75
-75
-74
-75
-76
-76
-76
-76
-76
-76
-76
-76
-76
-77
-76
-77
-76
-77
-77
-77
-77
-78
-77
-77
-77
-78
-77
-77
-77
-76
-77
-77
-77
-77
-78
-78
-77
-79
-79
-79
-80
-79
-80
-79
-79
-81
-80
-80
-79
-78
-78
-79
-79
-78
-79
-78
-77
-77
-77
-77
-77
-76
-76
-75
-75
-75
-75
-75
-74
-73
-73
-73
-74
-73
-73
-72
-72
-71
-72
-71
-72
-71
-71
-71
-71
-71
-71
-71
-70
-70
-70
-70
-70
-70
-70
-69
-68
-68
-68
-69
-69
-68
-68
-67
-67
-67
-66
-66
-65
-64
-65
-64
-65
-65
-65
-65
-65
-65
-65
-65
-65
-64
-64
-64
-64
-64
-65
-64
-64
-64
-63
-64
-64
-64
-63
-64
-63
-63
-63
-62
-62
-62
-61
-60
-60
-60
-60
-60
-59
-58
-58
-58
-59
-58
-58
-57
-58
-57
-58
-59
-59
-58
-58
-58
-60
-60
-61
-60
-60
-60
-60
-60
-60
-59
-59
-59
-58
-58
-58
-58
-58
-57
-57
-57
-56
-57
-56
-55
-55
-54
-54
-55
-55
-55
-54
-55
-54
-54
-54
-54
-53
-53
-52
-52
-52
-52
-52
-51
-50
-50
-50
-50
-49
-50
-49
-49
-49
-50
-50
-50
-49
-49
-49
-49
-49
-49
-50
-49
-48
-48
-48
-49
-48
-48
-49
-48
-48
-48
-49
-49
-49
-49
-49
-49
-50
-50
-51
-49
-49
-49
-48
-49
-49
-49
-48
-47
-47
-47
-47
-47
-46
-46
-46
-45
-45
-45
-45
-45
-45
-44
-45
-45
-46
-46
-46
-46
-46
-46
-47
-48
-47
-47
-47
-46
-46
-45
-45
-44
-43
-43
-43
-42
-42
-41
-40
-40
-39
-39
-39
-39
-38
-37
-37
-36
-36
-37
-36
-36
-35
-35
-34
-35
-35
-36
-36
-35
-34
-35
-35
-35
-35
-35
-34
-35
-35
-35
-35
-35
-35
-35
-35
-34
-35
-35
-34
-34
-34
-33
-34
-34
-33
-32
-32
-32
-32
-32
-32
-32
-31
-31
-31
-31
-32
-32
-32
-31
-31
-32
-33
-33
-32
-32
-32
-31
-31
-31
-31
-29
-29
-28
-28
-27
-28
-27
-27
-26
-25
-25
-25
-25
-26
-26
-25
-25
-25
-25
-25
-25
-25
-24
-25
-25
-25
-26
-25
-25
-25
-24
-24
-24
-24
-23
-23
-21
-22
-21
-20
-20
-20
-18
-18
-19
-18
-18
-17
-17
-16
-17
-17
-16
-17
-16
-15
-15
-15
-14
-14
-14
-13
-13
-13
-13
-12
-13
-12
-12
-11
-12
-12
-12
-13
-13
-12
-12
-12
-12
-12
-11
-11
-11
-12
-12
-12
-12
-12
-11
-11
-12
-13
-13
-12
-12
-12
-12
-12
-11
-12
-12
-10
-10
-10
-10
-10
-10
-10
-10
-9
-9
-10
-10
-9
-8
-8
-8
-8
-7
-8
-7
-7
-6
-7
-7
-7
-6
-6
-6
-6
-6
-7
-7
-6
-6
-6
-5
-5
-5
-5
-5
-4
-3
-4
-4
-4
-3
-2
-2
-2
-2
-2
-3
-2
-2
-2
-2
-3
-3
-3
-3
-2
-3
-3
-3
-4
-3
-3
-3
-3
-4
-3
-4
-2
-2
-1
-2
-2
-2
-2
-1
0
1
1
2
2
2
3
3
4
5
5
5
6
7
8
7
8
7
8
9
9
9
9
9
8
7
8
8
8
8
7
7
8
7
8
8
8
8
9
9
10
11
12
11
12
13
13
14
15
15
15
15
16
16
17
17
18
18
19
19
20
20
21
21
21
22
22
23
24
24
24
25
25
26
27
27
26
26
27
27
27
29
28
27
27
28
27
28
29
27
28
27
28
29
29
31
31
31
32
32
33
33
33
33
33
34
34
35
35
35
35
34
34
35
36
36
36
35
35
35
37
37
36
37
36
36
36
36
36
35
34
34
34
34
34
33
32
31
31
31
32
32
31
31
31
31
32
32
33
34
33
35
36
37
37
38
38
38
38
38
38
38
38
37
36
36
35
36
34
34
33
33
33
32
32
33
32
32
32
33
34
35
35
35
36
36
37
38
38
38
37
38
38
39
40
40
39
40
40
40
41
42
40
41
41
41
42
42
42
43
43
44
45
46
46
47
48
48
50
51
52
54
55
57
59
61
64
67
71
75
78
83
89
95
102
109
116
124
132
142
151
160
170
178
188
196
204
212
219
224
228
231
234
236
236
235
232
227
222
215
207
200
189
178
167
154
144
131
120
108
97
86
77
67
58
51
44
38
33
29
26
23
21
20
18
19
19
21
23
25
26
28
30
33
35
37
39
41
43
45
48
49
50
50
51
52
53
54
55
54
53
53
52
53
52
52
52
51
51
52
51
52
51
50
50
50
51
52
53
52
53
53
54
55
57
56
57
57
58
59
60
59
60
60
60
60
60
61
61
61
61
61
62
62
63
65
64
66
66
67
69
70
71
72
72
73
75
75
75
75
76
75
75
75
75
74
73
72
71
71
71
70
69
68
66
65
65
64
64
63
63
63
63
64
65
65
66
66
67
68
69
71
72
71
72
73
75
75
75
75
75
76
77
77
77
77
77
77
76
77
76
76
75
75
76
75
75
76
75
74
75
73
74
75
75
75
75
75
75
76
76
78
78
78
78
78
80
79
80
81
80
81
81
82
83
83
83
84
84
85
86
86
87
87
88
88
89
90
91
91
91
92
93
93
95
95
95
95
96
97
99
99
99
100
100
100
101
102
103
103
103
103
103
104
105
105
105
105
105
106
107
107
107
108
108
109
109
110
111
111
112
113
114
115
117
116
117
117
118
118
120
121
121
121
121
122
123
123
125
124
124
125
126
127
128
128
129
129
130
132
133
134
135
136
136
137
139
140
141
142
142
143
144
145
146
147
148
148
148
149
150
150
151
150
151
151
152
152
153
153
154
154
155
156
156
158
158
159
160
161
161
163
163
163
163
164
165
165
166
166
166
165
165
165
166
166
166
166
166
166
166
165
166
164
164
164
163
163
162
162
160
160
159
159
158
157
156
155
154
154
153
153
151
150
149
148
147
146
146
144
142
142
141
140
139
139
137
136
135
134
134
133
132
132
131
131
130
130
128
128
126
126
125
125
125
124
124
122
121
121
120
119
118
116
115
113
112
111
111
110
108
107
108
107
107
106
105
105
105
105
106
105
105
106
106
107
107
109
109
108
108
109
108
109
110
111
111
111
110
111
112
111
111
110
110
110
109
110
110
109
108
108
108
109
109
109
109
110
109
110
110
111
111
111
110
110
111
111
112
111
110
109
110
110
109
109
109
108
108
108
108
109
108
109
108
109
110
110
111
111
111
111
112
113
114
114
116
116
117
118
118
117
117
116
115
115
115
116
116
116
115
115
115
115
116
116
116
116
117
118
119
120
121
122
123
123
125
126
128
128
128
129
130
130
131
131
132
132
132
132
133
132
132
131
129
130
129
130
128
127
126
125
125
124
124
124
123
122
122
122
122
123
121
121
121
121
121
122
122
122
122
122
123
124
124
124
124
125
125
126
126
127
127
127
127
127
127
126
126
125
125
124
124
123
124
123
122
121
120
119
120
119
118
117
117
116
117
117
117
117
117
117
118
119
119
120
121
122
122
124
125
127
127
127
127
128
129
129
129
129
129
129
129
128
128
128
127
126
125
125
125
124
124
123
123
123
123
124
124
123
123
123
124
124
125
124
125
125
125
126
126
127
127
126
126
126
125
125
125
123
123
123
123
124
123
124
122
122
122
122
122
122
121
121
122
122
123
123
124
124
125
125
125
126
127
127
126
127
127
127
128
128
129
128
128
127
127
127
127
125
125
124
124
124
124
124
123
123
123
123
124
124
125
124
124
125
124
125
125
126
126
126
127
128
129
129
129
129
130
130
130
130
129
128
128
128
129
129
129
127
127
127
128
127
127
127
127
126
126
126
126
127
127
126
126
128
128
129
129
129
130
129
130
131
131
131
130
130
130
129
129
129
128
127
127
126
126
125
125
124
124
123
123
124
124
125
126
127
128
130
130
132
133
134
134
136
137
138
138
138
138
137
138
139
138
137
137
136
135
135
134
134
133
133
132
132
132
132
132
132
131
131
130
131
131
131
131
131
131
131
132
132
132
131
132
132
132
133
133
132
132
132
133
133
134
135
134
135
135
136
136
137
137
137
138
138
138
138
138
137
138
137
137
136
136
137
136
135
135
134
135
134
134
133
133
133
133
133
133
133
134
133
134
134
134
134
135
134
135
136
136
136
136
135
135
135
136
136
136
135
135
135
134
134
134
134
134
134
134
135
136
136
137
136
137
136
137
138
137
137
137
137
138
138
137
138
137
136
137
136
136
136
135
135
133
133
132
133
133
132
131
132
132
132
132
132
132
132
132
133
134
135
135
135
135
135
135
135
135
135
134
134
135
135
135
136
135
134
136
136
136
136
136
136
135
136
136
136
136
136
136
136
136
136
136
136
135
136
137
136
136
137
137
137
137
137
138
138
139
139
138
138
139
139
139
138
139
137
137
138
138
138
138
136
136
136
134
134
133
132
131
129
128
127
126
125
124
122
121
120
119
118
116
115
114
113
113
112
112
112
111
112
112
113
114
115
115
115
116
116
117
118
118
118
118
118
119
118
118
117
117
116
115
114
115
114
113
113
112
113
112
112
112
112
111
111
112
112
112
112
112
111
111
111
111
110
109
108
108
109
108
108
108
106
105
105
105
104
104
103
102
101
101
101
101
101
101
100
100
101
102
103
102
101
102
102
102
102
102
102
102
101
102
102
102
102
102
101
101
101
101
101
100
100
100
100
101
102
103
104
104
106
107
109
112
114
117
119
123
128
133
138
143
148
155
161
169
177
185
193
202
211
221
231
240
248
255
262
269
275
281
284
286
287
286
285
282
278
272
264
256
246
236
225
214
202
190
178
165
154
142
131
120
110
101
93
86
79
73
69
64
61
59
57
57
57
57
57
58
59
61
63
65
67
68
70
72
75
77
78
79
81
82
84
86
87
87
88
88
89
89
90
89
89
88
88
88
88
88
87
86
85
85
85
85
85
84
83
83
84
84
84
84
84
85
85
87
88
88
88
89
89
89
91
91
92
92
92
92
93
93
93
93
92
92
91
92
92
91
90
90
89
89
88
89
89
89
89
90
89
90
90
90
89
89
88
89
89
89
88
88
88
87
87
87
88
88
87
87
88
89
89
89
89
89
89
90
90
90
90
90
89
90
91
91
92
91
91
90
91
91
92
91
90
90
89
89
89
90
89
89
89
89
89
90
90
90
90
90
90
90
91
90
90
89
89
89
90
91
90
89
88
89
88
88
87
87
86
86
86
86
86
87
87
86
87
88
88
88
89
90
90
91
92
93
94
94
95
95
97
97
98
98
98
97
98
98
99
99
98
98
98
98
99
99
98
99
99
99
100
100
101
101
101
101
102
102
103
103
104
103
104
104
104
105
106
106
106
108
108
109
110
109
110
109
110
111
111
112
111
112
112
112
114
114
115
115
115
116
117
119
120
120
121
122
124
126
127
129
130
131
132
134
136
137
138
139
140
141
142
143
145
145
145
145
145
146
147
146
147
146
146
146
147
147
147
148
147
148
148
150
149
149
149
148
148
148
148
149
148
148
148
147
148
147
147
146
146
146
146
146
147
148
146
147
147
147
148
148
149
148
148
148
149
148
149
147
147
147
145
145
144
143
142
141
139
139
138
136
135
133
133
132
132
131
131
129
128
128
128
126
126
125
124
124
122
121
120
119
118
115
113
113
112
111
109
108
106
105
104
103
103
101
100
99
98
98
98
97
96
96
94
94
94
94
93
93
93
92
91
91
91
90
89
89
88
88
88
87
86
85
84
83
83
83
84
82
82
82
81
82
81
81
81
81
81
81
82
82
82
82
82
83
83
85
85
85
85
86
87
88
88
88
88
88
88
88
89
89
88
88
88
88
89
89
89
88
87
87
86
88
86
86
87
87
87
87
88
88
88
88
88
88
88
88
89
89
89
90
90
91
92
91
90
90
90
89
90
89
88
88
89
88
89
89
89
88
88
88
87
87
88
88
88
88
88
88
89
88
88
87
87
87
87
88
87
87
88
88
89
89
90
89
89
89
90
90
91
91
91
91
91
92
92
93
93
93
94
93
94
94
94
94
93
92
92
92
92
92
92
91
90
90
90
90
90
89
89
89
89
90
90
90
90
90
90
92
92
92
93
93
94
96
95
97
97
97
98
99
99
100
100
100
100
99
99
99
99
99
98
98
97
97
97
96
96
94
93
93
92
92
92
91
90
89
89
89
89
89
88
88
88
88
89
89
89
90
89
90
90
91
91
92
92
92
92
92
92
92
92
91
90
91
91
92
91
91
91
91
92
93
93
93
92
92
92
92
92
93
93
93
93
93
93
94
94
94
93
93
94
94
95
94
94
94
93
93
93
93
92
92
91
91
92
92
92
92
92
92
93
92
92
91
91
92
92
92
92
92
92
91
91
91
91
91
90
90
89
89
89
89
89
87
87
86
86
86
86
86
86
85
85
85
86
86
86
86
86
87
88
88
90
89
89
89
90
90
92
92
92
92
92
92
92
93
92
92
92
91
91
92
92
91
91
91
91
91
91
92
91
90
91
91
91
91
92
92
92
93
93
93
93
93
92
92
91
92
92
92
92
91
90
90
91
91
90
90
89
90
90
90
89
89
88
88
88
89
89
89
88
88
88
88
89
89
89
89
90
90
90
91
91
91
91
91
91
91
92
91
91
91
91
91
92
91
91
91
90
90
91
92
92
92
91
91
91
92
92
92
92
92
92
92
93
93
92
92
91
91
91
92
92
90
90
89
89
89
88
88
87
86
86
85
86
85
85
84
84
84
84
85
85
84
85
85
85
86
87
87
87
87
88
87
89
90
90
89
90
90
90
91
91
91
91
91
91
92
92
93
92
91
91
91
91
91
90
90
90
90
89
90
90
88
88
87
88
87
87
88
87
87
87
88
89
89
89
89
89
88
89
90
90
90
90
90
90
90
91
90
90
90
90
90
90
90
91
91
91
91
92
93
94
92
92
93
92
92
93
92
92
91
91
91
90
90
90
89
89
88
89
89
89
89
88
87
87
88
88
88
88
88
88
88
90
91
91
92
93
93
94
95
95
94
93
94
94
94
95
94
94
94
94
93
93
93
92
91
90
90
90
90
90
89
88
88
88
87
88
88
87
86
86
85
86
85
85
84
84
84
84
84
84
83
82
82
81
81
80
79
78
77
77
76
76
76
75
74
73
73
73
72
72
71
70
69
69
68
68
68
66
66
66
65
65
65
65
65
64
65
65
65
65
66
65
64
64
64
65
65
64
64
64
63
63
63
62
61
60
59
59
58
58
57
56
55
55
56
55
55
54
53
53
54
54
53
52
52
52
52
52
53
53
53
51
52
51
51
51
50
50
50
50
50
51
50
50
50
50
50
51
51
51
50
50
49
50
50
50
50
50
50
50
51
52
53
55
55
57
58
61
64
67
70
74
78
82
87
93
99
104
111
118
126
134
142
150
159
168
177
187
196
204
211
217
223
228
233
235
237
236
235
232
229
224
217
209
200
190
180
169
158
146
133
121
110
98
87
77
67
58
49
41
36
30
26
23
20
17
16
15
16
15
16
16
17
18
19
21
23
24
25
27
29
31
33
35
36
37
37
38
40
40
41
41
41
41
42
42
42
41
41
40
40
40
39
39
37
37
37
37
37
37
36
35
35
36
36
36
37
36
36
37
38
39
40
40
40
41
42
43
43
43
44
43
43
43
43
43
43
43
43
42
42
42
41
41
41
40
40
40
40
40
40
39
39
40
40
40
40
39
39
39
39
39
40
39
40
39
40
40
39
40
39
38
38
38
38
38
38
37
36
36
36
36
36
36
35
35
34
35
35
36
35
35
35
36
36
37
37
37
37
37
38
38
39
38
38
39
38
39
40
40
40
39
40
40
40
40
40
39
38
39
39
39
39
38
38
38
37
38
37
37
37
36
35
36
36
37
38
37
38
37
37
38
39
40
40
40
41
42
43
43
43
43
43
43
43
43
43
43
42
42
42
43
43
42
42
42
43
42
43
43
44
44
44
45
46
47
48
48
48
48
48
49
50
50
49
49
50
51
51
52
52
51
51
52
53
53
54
54
55
55
56
58
59
60
60
61
62
64
65
66
67
67
67
69
70
70
71
71
71
73
74
74
75
75
76
77
79
79
81
82
82
82
83
84
84
86
86
87
86
87
87
89
90
89
90
91
91
92
93
94
94
94
94
95
96
97
98
97
98
98
99
99
100
100
100
100
100
100
100
101
100
100
100
100
99
100
99
98
97
97
97
96
96
96
95
95
94
94
93
93
92
92
90
90
89
88
87
86
86
85
84
83
82
81
80
79
78
77
77
75
75
73
72
70
70
69
67
66
65
63
63
62
61
59
58
57
56
55
55
54
53
52
51
51
51
50
50
49
48
47
47
46
46
45
45
44
44
44
44
42
42
40
40
39
39
38
38
37
36
35
36
35
34
34
33
33
33
34
33
33
33
32
33
32
33
33
33
32
32
32
33
33
34
34
34
33
34
34
34
34
33
33
32
32
32
32
32
31
31
30
31
31
31
31
30
30
30
31
32
32
31
31
31
31
32
32
31
31
31
30
30
30
31
30
29
29
29
29
28
28
27
27
27
27
28
28
28
28
28
29
29
30
31
31
32
32
33
34
35
35
35
35
34
35
35
36
35
35
34
34
35
35
34
34
34
33
33
34
34
35
35
34
35
35
35
35
35
35
34
35
35
35
35
34
35
35
35
35
35
34
34
33
34
33
33
33
33
34
33
33
33
34
33
33
33
32
32
33
33
33
32
32
31
31
32
31
31
30
30
30
31
32
32
32
32
32
32
33
34
34
34
34
34
35
35
35
35
34
33
33
33
33
33
32
31
31
30
30
29
29
29
27
26
26
26
26
26
25
26
25
26
27
27
28
28
28
30
30
31
31
32
32
33
33
33
34
34
33
32
32
32
32
32
31
31
31
31
31
31
31
30
29
29
29
29
30
29
29
29
29
30
30
30
29
29
28
29
29
29
29
29
28
28
27
27
27
25
25
23
23
23
22
22
21
22
20
20
21
22
22
22
20
21
21
22
22
22
21
22
21
22
23
23
23
23
23
23
24
24
25
24
24
23
24
25
24
25
25
25
25
25
26
27
26
25
26
25
25
25
25
25
25
25
25
25
26
26
25
25
25
26
26
26
27
27
27
27
27
28
28
28
28
28
28
28
29
29
28
28
28
28
28
29
28
27
27
26
26
27
27
26
26
26
26
26
26
26
26
25
26
26
27
27
27
27
27
28
28
29
29
29
28
28
28
28
28
28
28
27
27
27
27
28
28
27
27
28
28
29
28
29
28
28
28
28
29
28
28
27
28
29
29
29
28
27
27
28
28
28
28
27
26
26
26
25
25
24
24
23
23
23
22
22
22
22
21
22
22
23
23
22
21
21
23
24
24
24
24
24
24
24
24
25
25
25
24
25
26
26
27
26
26
26
26
27
28
28
28
27
28
28
28
28
28
28
28
29
28
28
28
27
26
26
25
25
25
24
24
23
23
23
23
23
23
22
23
23
24
24
24
23
24
23
24
25
25
25
24
24
24
25
26
25
25
25
25
25
25
26
26
25
26
25
25
25
25
25
25
24
24
24
25
24
25
25
24
24
25
24
24
24
23
23
24
24
24
24
23
23
22
22
22
22
23
23
23
23
24
25
25
25
24
25
26
26
26
26
27
26
26
26
27
27
26
26
26
26
25
26
25
25
24
24
24
25
24
25
24
24
24
25
25
25
26
26
26
26
27
28
27
27
27
27
27
27
27
26
26
25
26
25
25
25
25
24
24
24
25
25
25
25
24
24
24
25
25
25
25
25
24
26
26
26
27
27
27
28
29
30
30
30
31
32
33
34
33
34
33
33
34
33
34
34
34
33
32
31
32
31
31
30
29
29
28
27
28
27
26
26
26
26
26
26
25
26
25
24
24
24
24
23
23
22
23
22
22
21
20
19
18
17
17
17
16
16
15
15
14
15
14
13
13
12
12
12
12
12
11
10
11
10
10
11
10
10
10
11
11
11
12
11
11
11
11
11
11
12
12
12
12
13
14
14
13
13
13
13
13
14
12
12
12
11
12
12
13
12
11
11
10
11
11
11
11
10
10
11
13
13
13
13
13
14
14
15
17
18
18
20
22
25
28
32
36
39
44
49
55
62
68
75
83
91
100
110
119
128
137
145
154
161
169
176
181
185
188
190
191
191
188
184
178
172
164
154
145
133
122
109
97
85
73
61
49
37
26
17
9
0
-7
-14
-18
-24
-26
-29
-31
-32
-32
-33
-31
-31
-29
-27
-25
-24
-22
-20
-18
-15
-13
-13
-11
-9
-8
-6
-6
-4
-5
-5
-4
-4
-3
-3
-3
-3
-3
-4
-3
-4
-4
-5
-5
-6
-6
-6
-7
-7
-9
-10
-9
-10
-9
-9
-10
-10
-10
-10
-9
-9
-9
-9
-9
-10
-10
-10
-9
-10
-10
-10
-10
-10
-9
-9
-9
-9
-10
-9
-8
-9
-9
-9
-9
-9
-9
-8
-8
-8
-8
-9
-9
-8
-8
-8
-8
-8
-8
-7
-7
-7
-7
-7
-9
-8
-8
-8
-8
-8
-8
-8
-8
-8
-8
-8
-9
-8
-8
-9
-9
-8
-8
-8
-9
-9
-8
-8
-8
-7
-7
-7
-8
-6
-6
-6
-6
-6
-6
-5
-5
-4
-4
-4
-5
-5
-4
-4
-4
-4
-5
-5
-5
-5
-5
-5
-4
-4
-4
-4
-5
-4
-4
-5
-5
-5
-5
-4
-4
-4
-5
-5
-5
-5
-5
-5
-4
-5
-5
-5
-4
-4
-4
-4
-4
-4
-4
-4
-4
-5
-5
-5
-6
-6
-5
-5
-5
-6
-6
-5
-4
-5
-5
-5
-5
-5
-4
-4
-3
-2
-3
-2
-1
0
1
2
2
2
3
3
4
5
6
6
6
6
6
7
6
6
5
5
5
5
6
6
5
6
5
6
7
7
7
8
8
9
10
10
11
12
13
14
14
16
17
18
19
20
20
21
23
23
24
25
26
26
27
28
28
28
29
29
30
31
32
33
33
34
34
35
36
37
37
39
39
39
41
41
43
44
43
44
45
46
47
47
48
48
48
48
49
50
50
50
50
50
51
51
51
51
51
51
51
52
53
53
52
52
52
52
53
52
52
51
51
51
51
52
51
50
49
48
48
48
47
48
47
46
45
45
44
44
43
42
41
39
38
37
37
36
34
33
32
30
31
29
27
26
25
24
24
23
20
20
18
17
16
15
14
12
11
10
10
9
10
9
8
7
7
7
6
6
5
4
3
2
2
2
1
0
-1
-3
-3
-4
-5
-5
-6
-7
-7
-7
-7
-7
-8
-8
-8
-8
-8
-8
-8
-7
-8
-8
-9
-7
-7
-8
-8
-8
-9
-9
-8
-9
-9
-9
-10
-10
-10
-10
-10
-11
-10
-11
-10
-10
-10
-10
-10
-10
-11
-10
-9
-10
-10
-10
-10
-10
-11
-10
-10
-10
-11
-11
-11
-10
-10
-10
-10
-10
-10
-10
-9
-10
-10
-10
-11
-11
-11
-11
-10
-10
-10
-11
-11
-11
-10
-10
-10
-9
-9
-9
-8
-7
-7
-7
-7
-7
-5
-5
-5
-5
-6
-6
-6
-5
-5
-6
-6
-6
-6
-6
-5
-6
-5
-6
-6
-6
-6
-5
-5
-6
-6
-5
-5
-5
-6
-6
-6
-7
-6
-7
-6
-5
-5
-6
-6
-6
-6
-5
-6
-6
-6
-5
-6
-5
-5
-5
-5
-5
-5
-5
-4
-3
-4
-5
-5
-5
-6
-5
-6
-6
-7
-6
-7
-5
-5
-5
-6
-6
-5
-5
-5
-5
-5
-5
-5
-5
-5
-4
-4
-5
-5
-6
-6
-5
-5
-5
-5
-6
-7
-7
-7
-8
-9
-10
-10
-10
-11
-11
-12
-12
-13
-15
-15
-15
-16
-17
-17
-18
-18
-17
-17
-18
-19
-19
-20
-20
-20
-20
-21
-23
-23
-24
-24
-24
-24
-25
-26
-27
-27
-27
-27
-28
-29
-30
-30
-31
-30
-30
-30
-31
-31
-32
-32
-32
-32
-33
-33
-34
-34
-34
-34
-34
-35
-35
-35
-36
-36
-36
-36
-38
-39
-39
-39
-39
-40
-39
-40
-41
-40
-40
-40
-40
-40
-41
-41
-41
-41
-40
-40
-40
-40
-41
-40
-40
-40
-40
-40
-40
-41
-41
-41
-41
-41
-43
-43
-44
-44
-44
-44
-45
-45
-46
-46
-46
-46
-46
-47
-47
-47
-47
-47
-47
-47
-48
-48
-49
-48
-48
-48
-48
-49
-50
-50
-49
-49
-49
-49
-49
-49
-48
-47
-48
-47
-48
-48
-47
-46
-46
-46
-47
-47
-48
-48
-48
-48
-49
-49
-49
-50
-51
-51
-51
-51
-52
-51
-52
-52
-51
-51
-52
-52
-52
-51
-51
-50
-50
-51
-51
-50
-49
-49
-49
-49
-49
-50
-50
-50
-50
-49
-50
-50
-50
-51
-50
-50
-50
-50
-50
-51
-50
-50
-50
-50
-50
-50
-50
-50
-49
-49
-49
-49
-49
-49
-48
-47
-47
-47
-47
-47
-47
-46
-46
-46
-46
-47
-46
-46
-46
-46
-46
-47
-47
-47
-47
-46
-46
-47
-46
-46
-46
-44
-44
-44
-44
-44
-44
-43
-43
-42
-42
-43
-43
-42
-42
-41
-41
-41
-41
-40
-41
-41
-41
-40
-41
-41
-42
-42
-42
-42
-42
-43
-43
-43
-43
-43
-43
-43
-44
-44
-43
-42
-43
-43
-43
-43
-43
-42
-42
-41
-40
-40
-40
-39
-39
-38
-38
-38
-38
-37
-37
-36
-36
-36
-36
-37
-36
-36
-35
-35
-36
-37
-37
-36
-35
-34
-35
-35
-34
-35
-34
-34
-33
-34
-34
-33
-33
-33
-32
-31
-32
-31
-32
-32
-31
-31
-32
-33
-33
-33
-33
-33
-33
-33
-33
-34
-35
-34
-35
-35
-36
-36
-37
-37
-37
-36
-36
-37
-37
-37
-37
-36
-37
-37
-37
-39
-38
-38
-38
-38
-38
-39
-39
-39
-39
-39
-39
-40
-40
-40
-40
-40
-39
-39
-39
-39
-39
-38
-38
-38
-38
-38
-38
-37
-36
-36
-35
-34
-34
-34
-33
-32
-31
-32
-32
-31
-32
-31
-31
-30
-31
-32
-32
-32
-33
-34
-33
-34
-35
-35
-36
-36
-35
-35
-36
-37
-36
-36
-37
-36
-37
-37
-37
-36
-36
-34
-35
-34
-34
-34
-33
-33
-31
-31
-32
-32
-31
-31
-31
-32
-32
-32
-32
-32
-31
-31
-31
-31
-32
-31
-31
-30
-30
-29
-29
-30
-29
-28
-27
-27
-26
-26
-26
-26
-25
-24
-24
-24
-23
-23
-22
-23
-22
-22
-23
-24
-24
-24
-23
-24
-25
-25
-25
-25
-24
-24
-24
-23
-24
-24
-23
-22
-21
-21
-21
-21
-21
-19
-19
-19
-19
-20
-21
-21
-21
-21
-21
-22
-24
-24
-24
-23
-24
-24
-26
-26
-26
-27
-27
-26
-26
-26
-26
-26
-25
-25
-25
-25
-26
-26
-26
-25
-25
-25
-25
-26
-27
-27
-27
-27
-28
-29
-28
-28
-28
-28
-28
-29
-29
-29
-29
-28
-28
-28
-29
-29
-29
-29
-29
-29
-30
-30
-31
-31
-31
-31
-31
-31
-32
-31
-32
-32
-31
-31
-32
-32
-32
-31
-30
-30
-30
-30
-29
-29
-28
-28
-28
-28
-28
-28
-27
-27
-27
-27
-28
-28
-29
-29
-30
-31
-31
-31
-32
-32
-31
-31
-31
-31
-31
-31
-29
-27
-26
-25
-24
-22
-21
-19
-15
-12
-9
-6
-2
2
7
12
17
23
28
35
43
52
60
70
78
87
96
106
115
122
130
135
141
146
150
153
154
153
151
148
144
138
130
122
113
101
91
79
67
56
43
31
19
9
-1
-10
-19
-27
-34
-41
-45
-49
-52
-55
-57
-58
-59
-58
-58
-58
-57
-56
-55
-53
-51
-49
-48
-46
-45
-44
-42
-41
-39
-38
-37
-37
-36
-36
-36
-34
-35
-36
-36
-36
-35
-34
-34
-34
-33
-35
-34
-33
-33
-33
-34
-34
-34
-33
-34
-33
-33
-33
-33
-32
-31
-31
-31
-31
-32
-31
-31
-30
-30
-30
-30
-30
-31
-30
-30
-30
-30
-31
-32
-31
-31
-31
-31
-31
-32
-32
-32
-31
-30
-30
-31
-30
-30
-30
-29
-29
-29
-30
-29
-28
-28
-26
-26
-27
-27
-27
-26
-26
-25
-25
-26
-26
-26
-27
-27
-27
-27
-28
-28
-28
-28
-28
-29
-29
-30
-29
-29
-28
-27
-28
-28
-28
-28
-29
-28
-28
-27
-28
-28
-27
-26
-26
-26
-25
-26
-27
-26
-26
-26
-25
-27
-26
-26
-26
-26
-26
-26
-27
-27
-28
-27
-26
-27
-27
-27
-27
-27
-26
-25
-24
-25
-23
-23
-23
-21
-22
-21
-21
-21
-20
-20
-20
-19
-18
-19
-19
-19
-18
-18
-19
-19
-20
-20
-19
-20
-20
-20
-20
-21
-21
-20
-20
-19
-19
-20
-19
-19
-19
-18
-18
-18
-18
-17
-16
-15
-15
-15
-15
-14
-13
-13
-11
-11
-10
-9
-8
-8
-6
-5
-5
-5
-4
-3
-2
-1
0
0
0
1
2
3
4
4
5
5
6
6
8
8
9
9
9
10
11
12
13
14
13
14
15
15
16
17
17
18
18
19
20
21
21
22
22
23
24
25
25
25
26
26
28
28
29
29
29
30
30
31
31
32
32
32
33
33
34
35
35
35
35
36
36
37
38
39
38
40
39
40
40
41
42
41
41
42
43
43
43
43
43
43
43
44
43
44
43
43
43
44
44
45
45
44
43
43
44
44
43
42
40
40
39
39
38
37
36
35
34
33
33
32
31
30
29
28
27
27
26
25
24
23
22
22
21
19
18
17
17
15
15
14
12
11
9
8
7
6
4
3
1
0
0
-1
-1
-1
-2
-3
-3
-3
-3
-3
-3
-4
-4
-4
-5
-5
-5
-6
-7
-7
-8
-8
-9
-9
-11
-11
-12
-12
-13
-12
-14
-14
-15
-15
-15
-15
-14
-15
-15
-16
-15
-14
-14
-13
-14
-13
-13
-13
-12
-13
-12
-12
-13
-13
-13
-14
-14
-14
-16
-16
-15
-16
-15
-15
-16
-16
-16
-15
-15
-15
-15
-15
-15
-15
-14
-14
-14
-14
-14
-14
-13
-12
-12
-11
-12
-13
-13
-13
-13
-12
-13
-13
-14
-14
-14
-14
-16
-16
-17
-17
-17
-16
-16
-15
-16
-16
-16
-15
-15
-14
-15
-14
-14
-14
-13
-13
-12
-12
-13
-13
-13
-12
-11
-12
-12
-12
-12
-11
-10
-10
-10
-11
-10
-11
-10
-10
-10
-10
-11
-10
-10
-9
-9
-9
-9
-9
-9
-9
-9
-9
-9
-11
-12
-12
-11
-12
-12
-12
-13
-13
-14
-13
-12
-12
-12
-12
-12
-11
-10
-10
-10
-10
-10
-10
-8
-7
-8
-8
-8
-8
-8
-7
-7
-7
-8
-8
-8
-8
-8
-8
-9
-9
-9
-9
-10
-10
-9
-10
-10
-11
-11
-11
-11
-12
-12
-13
-12
-13
-13
-13
-13
-15
-15
-15
-15
-15
-16
-16
-16
-15
-15
-15
-14
-14
-14
-14
-13
-13
-12
-11
-11
-12
-11
-11
-11
-11
-11
-12
-12
-12
-11
-12
-12
-12
-12
-13
-12
-13
-12
-12
-13
-14
-14
-14
-14
-14
-13
-14
-15
-14
-14
-14
-14
-15
-15
-15
-15
-16
-14
-14
-14
-14
-15
-15
-15
-16
-15
-16
-16
-16
-16
-16
-16
-16
-18
-18
-18
-19
-18
-18
-18
-18
-19
-19
-18
-18
-18
-18
-18
-18
-18
-16
-17
-16
-16
-15
-15
-15
-14
-14
-14
-14
-13
-14
-13
-14
-14
-14
-15
-14
-15
-15
-14
-15
-15
-16
-16
-17
-16
-16
-17
-16
-17
-17
-16
-16
-16
-17
-17
-18
-17
-16
-16
-15
-16
-16
-16
-16
-16
-15
-15
-16
-16
-16
-15
-15
-15
-14
-15
-14
-15
-13
-13
-13
-13
-12
-12
-12
-11
-11
-12
-12
-13
-13
-13
-12
-13
-13
-13
-14
-14
-14
-14
-14
-14
-16
-15
-16
-15
-15
-16
-16
-16
-16
-15
-15
-15
-16
-16
-16
-16
-15
-14
-15
-14
-14
-14
-14
-14
-13
-13
-14
-14
-14
-15
-15
-15
-15
-15
-15
-16
-15
-15
-15
-16
-17
-17
-17
-16
-16
-17
-18
-18
-18
-18
-19
-19
-19
-20
-19
-19
-19
-18
-18
-17
-18
-17
-17
-16
-15
-15
-15
-14
-13
-13
-13
-13
-13
-13
-13
-13
-13
-13
-13
-13
-13
-14
-13
-12
-13
-12
-13
-13
-13
-12
-12
-12
-12
-12
-12
-12
-12
-11
-11
-10
-10
-10
-10
-9
-10
-10
-11
-11
-11
-11
-11
-11
-11
-12
-12
-12
-11
-12
-11
-13
-13
-13
-12
-13
-13
-13
-14
