# Simple Text Format
# Sampling Rate (Hz):= 1200.00
# Resolution:= 12
# Labels:= ECG	 V1
# Age:=	65
# Gender:=	Masculino
-83
-83
-83
-84
-84
-83
-84
-83
-83
-84
-84
-84
-83
-84
-84
-84
-85
-86
-85
-85
-85
-85
-86
-86
-86
-85
-85
-85
-86
-86
-86
-86
-85
-85
-85
-86
-86
-86
-86
-86
-85
-85
-86
-86
-86
-86
-85
-85
-86
-86
-85
-85
-85
-85
-84
-84
-84
-84
-83
-83
-82
-82
-83
-83
-83
-83
-82
-83
-83
-85
-86
-85
-85
-86
-85
-86
-87
-87
-87
-87
-86
-87
-88
-87
-88
-86
-86
-86
-85
-86
-85
-85
-85
-85
-85
-86
-85
-85
-85
-85
-85
-85
-86
-86
-86
-86
-86
-86
-87
-87
-87
-87
-87
-87
-87
-87
-87
-87
-87
-86
-85
-85
-85
-86
-87
-86
-85
-85
-85
-85
-85
-85
-84
-83
-83
-83
-84
-83
-83
-83
-83
-84
-85
-85
-85
-86
-85
-85
-86
-86
-87
-87
-87
-87
-87
-87
-88
-88
-89
-88
-88
-88
-88
-88
-88
-88
-88
-88
-87
-88
-88
-87
-87
-86
-86
-86
-87
-86
-86
-84
-84
-84
-84
-84
-84
-84
-84
-84
-85
-86
-86
-86
-87
-86
-87
-86
-87
-87
-88
-87
-87
-88
-88
-89
-89
-89
-89
-89
-89
-90
-91
-90
-90
-89
-89
-90
-90
-91
-89
-89
-89
-89
-89
-89
-88
-88
-88
-87
-88
-87
-87
-88
-87
-87
-86
-87
-88
-88
-87
-87
-88
-88
-88
-89
-89
-89
-90
-91
-91
-91
-91
-90
-90
-89
-89
-90
-91
-90
-90
-89
-88
-88
-87
-88
-87
-88
-87
-87
-87
-87
-88
-87
-87
-87
-87
-88
-88
-87
-87
-87
-86
-85
-85
-85
-84
-84
-83
-84
-83
-84
-83
-82
-81
-81
-80
-80
-80
-80
-80
-80
-80
-80
-81
-81
-82
-82
-82
-82
-84
-85
-86
-87
-87
-88
-89
-91
-92
-93
-94
-95
-96
-97
-98
-100
-101
-100
-101
-101
-102
-103
-103
-104
-103
-103
-102
-102
-101
-101
-100
-99
-98
-98
-97
-97
-97
-96
-96
-95
-96
-95
-95
-95
-95
-96
-96
-96
-96
-97
-96
-97
-96
-97
-97
-98
-98
-98
-96
-96
-96
-96
-96
-95
-94
-94
-94
-95
-94
-94
-94
-93
-93
-93
-93
-94
-94
-95
-94
-95
-95
-96
-96
-96
-96
-95
-96
-97
-96
-97
-96
-96
-96
-95
-95
-96
-95
-96
-94
-94
-95
-95
-95
-95
-95
-94
-94
-94
-95
-95
-93
-92
-92
-91
-91
-90
-89
-88
-87
-86
-85
-83
-82
-80
-78
-77
-75
-74
-72
-71
-69
-67
-66
-65
-65
-66
-67
-69
-70
-73
-77
-82
-88
-94
-100
-107
-116
-126
-137
-147
-159
-170
-181
-192
-203
-214
-223
-231
-238
-245
-251
-257
-260
-263
-264
-263
-261
-259
-255
-251
-246
-239
-233
-227
-222
-214
-208
-201
-195
-188
-184
-178
-174
-169
-163
-159
-155
-152
-148
-146
-142
-139
-136
-132
-130
-127
-124
-120
-117
-114
-111
-109
-107
-105
-102
-100
-98
-96
-94
-92
-91
-89
-87
-86
-86
-85
-85
-85
-84
-83
-84
-84
-83
-83
-81
-80
-80
-81
-81
-81
-80
-79
-79
-79
-78
-79
-79
-78
-78
-78
-79
-79
-80
-79
-80
-79
-80
-80
-81
-81
-82
-82
-82
-82
-82
-83
-82
-82
-81
-81
-82
-81
-81
-80
-79
-78
-78
-78
-78
-77
-75
-74
-74
-74
-74
-74
-73
-73
-73
-73
-73
-73
-74
-74
-74
-74
-75
-76
-77
-77
-77
-77
-77
-78
-78
-78
-79
-78
-78
-79
-78
-79
-79
-79
-79
-78
-77
-77
-77
-77
-76
-75
-74
-75
-75
-74
-75
-74
-74
-73
-73
-73
-73
-74
-73
-73
-73
-74
-74
-74
-74
-73
-72
-72
-73
-73
-73
-73
-73
-73
-73
-74
-73
-73
-72
-72
-72
-72
-72
-72
-71
-71
-72
-72
-73
-72
-73
-72
-72
-71
-72
-72
-73
-73
-72
-72
-72
-72
-72
-72
-71
-70
-70
-69
-69
-69
-68
-68
-67
-67
-66
-65
-66
-66
-65
-64
-65
-65
-64
-64
-64
-64
-64
-64
-64
-65
-65
-65
-65
-65
-65
-66
-66
-65
-64
-65
-64
-64
-65
-64
-65
-64
-64
-63
-64
-64
-64
-63
-63
-63
-62
-62
-62
-61
-60
-59
-59
-59
-59
-59
-58
-57
-57
-56
-57
-57
-57
-57
-56
-57
-58
-59
-60
-61
-61
-60
-61
-62
-63
-63
-63
-64
-64
-65
-65
-66
-66
-66
-66
-66
-67
-67
-68
-68
-68
-68
-69
-69
-70
-71
-71
-71
-72
-73
-73
-75
-75
-75
-75
-76
-77
-78
-79
-80
-80
-81
-82
-84
-85
-85
-85
-86
-87
-88
-89
-90
-91
-92
-92
-92
-93
-95
-96
-95
-95
-96
-95
-95
-96
-96
-96
-97
-97
-98
-98
-98
-99
-98
-98
-98
-99
-100
-100
-100
-100
-101
-101
-102
-102
-102
-101
-101
-101
-101
-101
-102
-102
-101
-101
-101
-101
-100
-100
-100
-99
-98
-97
-98
-98
-98
-98
-97
-97
-97
-97
-98
-97
-97
-97
-97
-98
-98
-99
-98
-98
-98
-97
-97
-97
-97
-97
-96
-96
-96
-96
-96
-95
-95
-94
-95
-94
-94
-94
-93
-94
-92
-92
-93
-93
-93
-92
-92
-91
-91
-90
-91
-91
-90
-90
-90
-91
-91
-92
-92
-92
-92
-92
-93
-93
-93
-94
-93
-94
-95
-95
-95
-95
-96
-95
-95
-96
-96
-96
-96
-95
-95
-95
-95
-95
-95
-96
-95
-95
-95
-94
-94
-94
-94
-93
-92
-93
-93
-93
-93
-92
-91
-92
-92
-92
-93
-93
-92
-92
-92
-93
-93
-94
-93
-93
-94
-94
-95
-94
-94
-94
-94
-94
-95
-95
-96
-95
-94
-94
-93
-94
-94
-94
-94
-93
-93
-94
-94
-94
-94
-94
-94
-94
-94
-95
-95
-95
-94
-95
-95
-96
-97
-98
-97
-97
-96
-98
-98
-97
-97
-97
-96
-97
-97
-97
-96
-96
-96
-95
-96
-97
-96
-97
-97
-96
-96
-97
-97
-97
-97
-98
-97
-98
-99
-99
-99
-98
-98
-98
-99
-98
-99
-99
-98
-97
-97
-97
-98
-98
-98
-97
-97
-97
-97
-97
-97
-97
-97
-97
-98
-98
-98
-99
-99
-100
-100
-101
-101
-102
-102
-101
-101
-101
-101
-101
-101
-101
-100
-100
-100
-100
-100
-100
-100
-99
-99
-100
-100
-100
-100
-100
-100
-100
-101
-101
-101
-101
-100
-100
-101
-101
-100
-100
-100
-99
-99
-99
-99
-100
-100
-99
-99
-99
-99
-99
-99
-99
-98
-98
-99
-99
-100
-100
-100
-100
-99
-100
-101
-101
-101
-101
-101
-102
-102
-102
-102
-101
-101
-101
-101
-101
-102
-102
-101
-102
-102
-102
-102
-103
-103
-102
-103
-103
-103
-103
-104
-103
-102
-103
-102
-102
-103
-103
-102
-102
-102
-102
-103
-103
-102
-101
-101
-101
-102
-103
-103
-103
-103
-102
-102
-103
-104
-104
-104
-103
-103
-104
-103
-104
-104
-103
-104
-104
-105
-105
-105
-105
-105
-105
-106
-106
-107
-107
-107
-107
-107
-108
-107
-107
-107
-106
-106
-105
-105
-105
-104
-104
-102
-102
-102
-101
-101
-101
-100
-100
-100
-101
-101
-101
-101
-100
-102
-102
-102
-103
-103
-103
-103
-104
-104
-104
-105
-105
-105
-104
-105
-105
-106
-105
-106
-106
-105
-105
-106
-106
-106
-105
-105
-105
-105
-105
-106
-105
-106
-105
-105
-106
-106
-105
-105
-106
-105
-106
-106
-106
-107
-106
-106
-106
-106
-107
-107
-108
-107
-107
-107
-107
-108
-109
-109
-108
-109
-109
-110
-109
-109
-108
-107
-106
-107
-107
-107
-107
-106
-105
-105
-105
-104
-104
-103
-103
-103
-103
-102
-102
-102
-102
-102
-102
-102
-103
-103
-103
-104
-104
-104
-105
-107
-107
-107
-107
-108
-108
-107
-108
-108
-108
-107
-107
-107
-107
-108
-107
-107
-107
-107
-106
-106
-106
-105
-105
-105
-105
-104
-105
-104
-104
-104
-104
-104
-104
-104
-104
-103
-103
-103
-103
-103
-103
-103
-103
-103
-103
-104
-104
-104
-105
-105
-105
-105
-106
-106
-106
-107
-107
-107
-108
-109
-109
-109
-109
-109
-109
-109
-109
-110
-109
-108
-108
-107
-107
-106
-106
-106
-105
-105
-106
-106
-106
-106
-105
-106
-106
-106
-107
-108
-108
-108
-108
-109
-109
-110
-110
-111
-110
-110
-111
-111
-111
-110
-110
-109
-109
-109
-108
-108
-107
-107
-106
-106
-107
-107
-107
-106
-106
-106
-105
-106
-106
-106
-106
-107
-106
-106
-107
-107
-106
-107
-107
-107
-108
-108
-108
-109
-108
-108
-108
-110
-110
-110
-111
-110
-110
-111
-112
-112
-111
-111
-111
-111
-112
-112
-112
-112
-113
-113
-112
-112
-113
-112
-112
-112
-112
-112
-112
-111
-110
-109
-109
-108
-109
-108
-107
-107
-107
-106
-105
-106
-105
-104
-104
-104
-104
-104
-103
-104
-103
-103
-103
-103
-103
-103
-103
-102
-103
-103
-102
-103
-102
-102
-102
-101
-102
-103
-103
-103
-103
-102
-103
-104
-105
-106
-106
-107
-107
-108
-109
-110
-112
-112
-113
-114
-115
-115
-116
-116
-117
-118
-117
-117
-118
-118
-119
-119
-119
-118
-118
-118
-117
-117
-117
-116
-116
-117
-116
-116
-115
-115
-114
-114
-114
-115
-114
-115
-114
-115
-116
-116
-116
-115
-115
-115
-115
-115
-115
-115
-114
-114
-115
-114
-114
-115
-114
-114
-114
-114
-113
-113
-113
-113
-113
-113
-112
-112
-113
-112
-112
-112
-111
-111
-111
-111
-111
-110
-110
-110
-109
-110
-109
-109
-108
-108
-108
-109
-109
-109
-109
-108
-108
-108
-109
-110
-109
-110
-109
-109
-109
-108
-108
-108
-107
-107
-107
-106
-106
-105
-103
-101
-99
-99
-97
-96
-94
-92
-90
-88
-87
-86
-84
-82
-81
-80
-79
-79
-80
-81
-82
-84
-87
-91
-96
-101
-108
-114
-122
-131
-140
-150
-162
-172
-182
-193
-203
-214
-224
-232
-240
-247
-253
-258
-264
-267
-269
-269
-269
-267
-264
-260
-256
-251
-245
-239
-233
-227
-220
-214
-206
-199
-193
-187
-181
-176
-171
-165
-161
-157
-153
-150
-146
-143
-140
-137
-134
-131
-129
-127
-124
-122
-120
-117
-115
-114
-112
-111
-108
-106
-105
-104
-102
-101
-100
-99
-99
-98
-98
-97
-95
-95
-94
-94
-94
-93
-93
-93
-92
-92
-92
-92
-92
-91
-90
-89
-89
-90
-90
-91
-90
-91
-91
-91
-91
-92
-93
-92
-92
-93
-94
-94
-95
-94
-94
-94
-93
-93
-93
-93
-92
-91
-89
-89
-89
-89
-88
-87
-87
-87
-87
-87
-87
-87
-86
-86
-87
-87
-87
-89
-88
-89
-90
-90
-90
-91
-91
-91
-91
-91
-91
-91
-90
-91
-90
-89
-89
-88
-87
-87
-86
-85
-85
-84
-84
-85
-84
-84
-84
-84
-85
-85
-85
-85
-86
-86
-85
-87
-87
-87
-86
-87
-87
-87
-87
-86
-86
-85
-85
-84
-85
-85
-85
-84
-84
-84
-84
-84
-85
-85
-84
-84
-84
-84
-84
-85
-86
-85
-85
-86
-85
-85
-85
-85
-85
-84
-84
-84
-84
-83
-82
-81
-81
-81
-81
-81
-81
-80
-80
-80
-80
-81
-80
-80
-81
-80
-80
-80
-81
-81
-81
-81
-81
-80
-80
-80
-80
-79
-79
-79
-79
-78
-79
-78
-77
-78
-77
-77
-78
-77
-76
-76
-76
-77
-77
-77
-76
-75
-76
-76
-76
-76
-76
-75
-75
-75
-75
-75
-75
-74
-74
-73
-73
-72
-74
-74
-74
-74
-73
-73
-73
-73
-74
-74
-73
-74
-74
-74
-73
-74
-73
-74
-74
-75
-76
-76
-77
-77
-77
-77
-79
-80
-81
-82
-81
-82
-83
-83
-84
-85
-85
-84
-85
-85
-86
-87
-87
-87
-87
-87
-88
-88
-88
-89
-89
-89
-91
-92
-92
-93
-94
-94
-95
-95
-96
-97
-97
-97
-97
-98
-98
-99
-100
-100
-100
-101
-101
-102
-102
-102
-103
-102
-103
-104
-105
-106
-106
-107
-107
-107
-107
-108
-108
-108
-108
-108
-108
-109
-109
-109
-108
-107
-107
-108
-108
-107
-108
-107
-107
-108
-108
-109
-110
-109
-110
-109
-110
-110
-110
-111
-110
-110
-110
-111
-111
-111
-112
-112
-111
-111
-111
-112
-111
-111
-111
-110
-110
-110
-110
-111
-110
-110
-111
-111
-111
-111
-111
-111
-111
-110
-111
-111
-111
-110
-109
-109
-109
-109
-109
-109
-108
-107
-107
-106
-107
-106
-106
-105
-106
-105
-105
-105
-105
-105
-105
-105
-105
-105
-105
-104
-104
-103
-104
-104
-104
-104
-103
-103
-103
-102
-102
-102
-103
-103
-103
-102
-103
-103
-103
-103
-102
-102
-103
-103
-104
-104
-105
-105
-105
-105
-105
-106
-106
-106
-106
-106
-106
-106
-106
-106
-105
-104
-104
-104
-104
-104
-104
-103
-103
-103
-103
-104
-104
-103
-104
-103
-103
-104
-103
-103
-103
-102
-103
-103
-103
-103
-103
-103
-102
-102
-102
-103
-102
-102
-101
-100
-100
-100
-101
-101
-100
-101
-101
-101
-101
-102
-101
-102
-102
-103
-103
-103
-104
-104
-105
-104
-105
-105
-105
-106
-105
-105
-104
-104
-105
-105
-104
-104
-104
-103
-104
-104
-103
-103
-103
-104
-103
-104
-105
-105
-105
-106
-106
-107
-108
-108
-109
-108
-109
-110
-111
-111
-112
-111
-112
-112
-112
-113
-112
-112
-110
-111
-110
-110
-110
-110
-109
-109
-109
-108
-108
-108
-107
-107
-106
-105
-106
-106
-106
-106
-106
-106
-106
-106
-105
-106
-106
-105
-105
-106
-107
-107
-108
-108
-107
-107
-108
-107
-107
-107
-106
-106
-107
-107
-107
-108
-107
-106
-106
-106
-106
-105
-105
-105
-104
-104
-105
-105
-104
-104
-103
-102
-102
-103
-104
-104
-104
-104
-105
-105
-105
-107
-108
-107
-108
-108
-109
-110
-111
-112
-111
-112
-112
-113
-113
-113
-113
-113
-112
-112
-112
-112
-112
-112
-112
-112
-112
-112
-112
-112
-111
-111
-111
-112
-112
-112
-112
-112
-112
-112
-112
-112
-112
-111
-110
-109
-109
-109
-108
-108
-108
-107
-106
-106
-107
-106
-106
-105
-106
-106
-106
-107
-107
-108
-107
-108
-109
-108
-108
-108
-109
-108
-108
-110
-110
-110
-110
-110
-110
-110
-109
-110
-109
-108
-108
-108
-107
-108
-108
-108
-108
-107
-108
-108
-108
-109
-108
-108
-108
-109
-110
-110
-110
-111
-111
-111
-111
-112
-112
-111
-112
-111
-112
-113
-112
-112
-111
-111
-110
-111
-110
-111
-109
-109
-108
-108
-108
-108
-109
-108
-108
-107
-107
-107
-107
-107
-107
-108
-107
-108
-108
-109
-109
-109
-109
-109
-109
-109
-110
-111
-111
-111
-111
-111
-111
-111
-112
-111
-111
-111
-112
-112
-112
-112
-111
-111
-111
-111
-111
-110
-109
-108
-108
-108
-108
-108
-107
-107
-108
-107
-108
-108
-108
-108
-107
-107
-108
-108
-109
-110
-110
-110
-110
-112
-112
-112
-113
-112
-112
-112
-113
-113
-113
-113
-112
-113
-112
-112
-113
-113
-112
-111
-110
-110
-109
-110
-109
-108
-108
-109
-108
-109
-109
-108
-108
-107
-108
-108
-108
-108
-108
-108
-107
-108
-109
-109
-110
-110
-110
-112
-112
-112
-113
-113
-112
-111
-112
-112
-112
-112
-112
-111
-111
-111
-111
-111
-110
-109
-109
-109
-109
-108
-108
-108
-108
-108
-107
-107
-108
-108
-108
-108
-109
-109
-110
-110
-110
-110
-110
-111
-111
-112
-112
-111
-111
-112
-112
-113
-112
-112
-112
-112
-112
-112
-113
-113
-112
-112
-113
-112
-113
-113
-113
-113
-113
-112
-113
-113
-113
-112
-112
-112
-112
-112
-113
-112
-112
-112
-111
-111
-111
-112
-111
-111
-110
-110
-109
-110
-110
-110
-109
-109
-108
-108
-108
-109
-109
-109
-108
-109
-108
-108
-109
-108
-108
-108
-108
-108
-108
-107
-107
-107
-106
-106
-106
-106
-106
-105
-105
-105
-106
-106
-107
-107
-107
-108
-109
-110
-111
-113
-114
-114
-116
-118
-119
-121
-121
-123
-123
-124
-125
-125
-125
-125
-125
-125
-125
-124
-123
-123
-121
-120
-119
-119
-118
-117
-116
-115
-114
-114
-114
-114
-114
-114
-114
-114
-114
-114
-115
-116
-116
-116
-116
-117
-118
-118
-118
-118
-117
-118
-119
-119
-119
-118
-118
-117
-117
-116
-116
-116
-116
-115
-115
-115
-115
-115
-115
-115
-115
-115
-116
-116
-115
-115
-115
-115
-114
-115
-115
-115
-114
-114
-113
-114
-115
-114
-114
-114
-113
-113
-113
-114
-114
-114
-113
-113
-114
-113
-113
-112
-112
-111
-111
-111
-110
-109
-109
-107
-106
-105
-105
-104
-103
-101
-100
-98
-96
-95
-93
-92
-91
-88
-88
-86
-86
-86
-84
-84
-85
-86
-88
-91
-94
-98
-103
-108
-115
-122
-130
-138
-148
-158
-169
-181
-192
-204
-215
-226
-236
-246
-256
-265
-271
-278
-282
-286
-289
-291
-292
-291
-289
-285
-281
-277
-271
-265
-258
-251
-244
-236
-229
-223
-216
-209
-204
-198
-193
-187
-183
-178
-172
-168
-165
-161
-158
-155
-152
-148
-145
-142
-139
-137
-134
-131
-128
-125
-123
-120
-116
-114
-111
-108
-105
-104
-103
-101
-99
-97
-96
-95
-94
-94
-93
-93
-92
-92
-92
-92
-91
-92
-91
-92
-92
-93
-93
-94
-94
-94
-94
-94
-95
-96
-95
-95
-94
-94
-95
-94
-94
-93
-93
-92
-92
-92
-91
-91
-90
-90
-90
-89
-90
-90
-89
-90
-89
-89
-90
-90
-90
-89
-90
-89
-90
-90
-91
-92
-92
-91
-92
-91
-92
-92
-92
-92
-92
-92
-92
-92
-92
-92
-92
-91
-90
-91
-90
-90
-90
-88
-88
-88
-88
-89
-88
-88
-87
-88
-87
-88
-88
-87
-87
-88
-88
-90
-90
-90
-89
-89
-89
-88
-88
-89
-89
-88
-88
-87
-87
-87
-87
-87
-86
-85
-84
-85
-84
-84
-84
-83
-83
-84
-84
-84
-85
-85
-85
-84
-85
-86
-85
-85
-85
-84
-85
-85
-85
-85
-84
-84
-84
-84
-83
-83
-83
-82
-81
-81
-80
-80
-80
-79
-78
-78
-77
-77
-78
-77
-76
-76
-76
-76
-76
-77
-77
-76
-75
-76
-76
-76
-76
-76
-75
-74
-75
-75
-75
-76
-75
-75
-75
-75
-75
-75
-75
-75
-75
-74
-75
-74
-74
-74
-74
-73
-72
-73
-72
-73
-72
-71
-71
-70
-71
-71
-70
-70
-69
-69
-68
-68
-68
-67
-67
-66
-66
-66
-66
-67
-66
-65
-65
-65
-65
-65
-65
-65
-65
-65
-66
-67
-68
-68
-68
-69
-69
-70
-71
-72
-72
-73
-73
-74
-76
-77
-77
-78
-77
-78
-78
-78
-79
-79
-78
-79
-79
-80
-80
-80
-81
-81
-81
-82
-82
-84
-83
-84
-85
-85
-87
-88
-89
-89
-89
-90
-91
-92
-93
-94
-94
-94
-95
-96
-96
-98
-98
-99
-99
-100
-100
-101
-101
-101
-102
-103
-104
-104
-106
-107
-107
-107
-108
-108
-109
-110
-110
-110
-109
-110
-110
-110
-110
-110
-109
-109
-109
-109
-109
-108
-108
-107
-107
-107
-107
-107
-108
-107
-107
-107
-107
-108
-109
-108
-108
-107
-108
-108
-108
-108
-108
-107
-107
-108
-108
-108
-108
-107
-106
-106
-105
-105
-106
-105
-105
-104
-104
-103
-104
-104
-104
-102
-102
-102
-103
-103
-103
-103
-102
-103
-103
-103
-104
-103
-103
-103
-103
-103
-104
-104
-105
-105
-105
-106
-106
-106
-106
-106
-105
-105
-105
-104
-104
-103
-103
-101
-101
-102
-102
-101
-100
-100
-100
-100
-100
-100
-100
-100
-99
-99
-98
-99
-99
-99
-99
-99
-99
-99
-100
-100
-99
-99
-99
-100
-100
-100
-100
-100
-100
-100
-101
-101
-101
-102
-101
-101
-101
-101
-101
-101
-102
-101
-101
-101
-102
-101
-101
-102
-101
-101
-101
-102
-102
-101
-101
-100
-101
-101
-101
-101
-100
-100
-100
-101
-100
-100
-100
-100
-100
-99
-100
-100
-99
-99
-98
-98
-98
-99
-99
-99
-99
-99
-99
-100
-100
-101
-102
-102
-101
-102
-102
-103
-103
-104
-104
-103
-104
-104
-105
-105
-105
-104
-104
-104
-103
-104
-103
-103
-102
-103
-103
-102
-102
-102
-101
-101
-100
-101
-101
-102
-102
-102
-102
-103
-103
-104
-103
-104
-103
-103
-103
-104
-105
-104
-103
-103
-103
-104
-104
-104
-104
-103
-103
-103
-104
-103
-104
-104
-104
-104
-104
-104
-105
-104
-105
-105
-105
-106
-106
-106
-106
-105
-105
-106
-106
-106
-105
-105
-104
-104
-105
-105
-104
-104
-104
-104
-104
-104
-104
-104
-104
-104
-104
-104
-105
-105
-104
-104
-104
-104
-104
-104
-104
-104
-103
-103
-103
-103
-105
-104
-105
-104
-105
-104
-105
-106
-106
-105
-105
-106
-106
-106
-106
-105
-104
-104
-103
-104
-103
-103
-102
-101
-101
-101
-101
-101
-101
-101
-100
-100
-101
-101
-101
-102
-101
-102
-102
-103
-104
-104
-105
-105
-105
-106
-106
-107
-107
-107
-106
-106
-107
-107
-107
-107
-106
-107
-107
-107
-107
-107
-107
-106
-106
-106
-107
-108
-107
-108
-108
-107
-108
-108
-108
-107
-107
-108
-107
-108
-108
-107
-107
-107
-106
-106
-106
-107
-106
-106
-105
-106
-105
-105
-105
-104
-104
-104
-103
-104
-104
-104
-103
-102
-102
-102
-103
-104
-104
-104
-104
-105
-105
-106
-106
-107
-106
-106
-107
-107
-108
-108
-108
-108
-107
-107
-108
-109
-108
-108
-108
-108
-108
-107
-107
-107
-106
-106
-106
-106
-107
-107
-107
-107
-107
-106
-106
-106
-106
-105
-105
-105
-105
-106
-105
-105
-104
-104
-104
-104
-105
-105
-105
-104
-104
-104
-105
-105
-105
-105
-105
-105
-106
-107
-107
-107
-106
-106
-106
-106
-107
-106
-106
-106
-106
-107
-107
-107
-107
-107
-107
-106
-107
-108
-108
-107
-107
-108
-108
-108
-109
-109
-108
-108
-108
-108
-108
-108
-108
-107
-106
-107
-106
-106
-106
-105
-105
-105
-105
-105
-105
-105
-106
-106
-106
-106
-107
-107
-108
-107
-107
-108
-107
-108
-109
-108
-107
-107
-107
-107
-107
-107
-107
-106
-105
-105
-106
-106
-105
-104
-105
-105
-105
-106
-106
-105
-105
-104
-104
-104
-105
-105
-105
-104
-104
-105
-105
-105
-105
-105
-104
-104
-105
-105
-105
-105
-105
-105
-106
-106
-106
-106
-107
-106
-106
-106
-107
-106
-106
-105
-104
-104
-104
-104
-104
-104
-103
-102
-103
-103
-103
-103
-103
-103
-104
-105
-105
-105
-106
-105
-105
-105
-106
-106
-107
-106
-106
-106
-105
-105
-105
-105
-104
-104
-103
-102
-103
-103
-103
-103
-102
-102
-103
-103
-103
-102
-101
-101
-101
-101
-101
-102
-101
-101
-100
-101
-100
-101
-100
-100
-99
-99
-100
-99
-100
-99
-99
-99
-99
-99
-100
-100
-98
-98
-98
-99
-99
-99
-99
-98
-98
-98
-98
-98
-98
-98
-98
-97
-98
-99
-99
-100
-101
-101
-103
-104
-106
-107
-108
-109
-110
-111
-112
-114
-115
-116
-117
-117
-118
-119
-119
-119
-119
-118
-117
-117
-117
-117
-115
-114
-114
-113
-113
-112
-112
-111
-111
-110
-110
-111
-111
-111
-112
-112
-112
-112
-112
-112
-112
-112
-112
-112
-112
-112
-111
-111
-110
-109
-109
-109
-108
-108
-107
-107
-107
-106
-107
-107
-106
-106
-106
-107
-106
-107
-108
-107
-106
-107
-107
-108
-108
-107
-107
-107
-107
-106
-107
-107
-107
-107
-107
-107
-106
-107
-107
-107
-106
-107
-107
-108
-108
-108
-108
-107
-108
-107
-108
-108
-107
-107
-107
-106
-106
-105
-105
-103
-102
-101
-100
-99
-98
-96
-93
-90
-89
-87
-85
-84
-83
-81
-80
-79
-80
-81
-83
-84
-88
-90
-95
-102
-108
-116
-124
-133
-143
-155
-167
-180
-192
-205
-218
-231
-243
-253
-264
-273
-282
-288
-295
-300
-305
-307
-308
-308
-306
-304
-300
-295
-290
-283
-275
-269
-262
-255
-247
-239
-232
-224
-217
-211
-205
-199
-193
-187
-182
-178
-174
-169
-164
-160
-155
-151
-146
-143
-140
-135
-131
-128
-124
-121
-118
-115
-112
-110
-107
-105
-103
-102
-101
-98
-97
-96
-96
-95
-94
-94
-93
-93
-93
-92
-92
-92
-91
-90
-90
-89
-89
-88
-88
-87
-86
-85
-85
-84
-84
-83
-82
-82
-81
-81
-81
-81
-80
-81
-81
-81
-81
-81
-82
-82
-83
-82
-83
-84
-85
-84
-84
-84
-84
-85
-84
-84
-84
-83
-82
-83
-82
-82
-82
-81
-80
-80
-80
-79
-79
-78
-78
-77
-78
-78
-78
-79
-78
-79
-79
-80
-80
-80
-81
-81
-80
-81
-81
-81
-82
-82
-81
-81
-81
-81
-81
-80
-80
-78
-78
-77
-78
-78
-78
-78
-77
-77
-77
-78
-77
-78
-77
-76
-77
-77
-77
-78
-78
-78
-78
-78
-79
-78
-79
-78
-77
-77
-77
-77
-77
-76
-75
-75
-75
-75
-75
-75
-75
-75
-74
-75
-74
-75
-74
-74
-73
-73
-74
-73
-73
-73
-73
-72
-72
-72
-72
-72
-72
-71
-71
-71
-71
-71
-70
-70
-69
-68
-68
-67
-67
-66
-65
-65
-65
-64
-64
-64
-63
-62
-61
-61
-61
-61
-61
-61
-60
-60
-60
-60
-60
-59
-58
-59
-59
-59
-59
-58
-58
-57
-57
-57
-56
-56
-56
-55
-55
-55
-54
-54
-55
-54
-54
-53
-53
-54
-54
-54
-53
-53
-53
-53
-54
-54
-54
-53
-53
-52
-52
-51
-52
-51
-50
-50
-50
-50
-51
-51
-50
-50
-50
-51
-51
-51
-52
-52
-52
-53
-54
-55
-56
-56
-57
-56
-56
-57
-59
-59
-59
-60
-60
-60
-61
-62
-62
-62
-62
-62
-64
-64
-65
-65
-65
-65
-66
-67
-67
-68
-69
-69
-70
-71
-73
-74
-76
-76
-78
-78
-79
-81
-82
-83
-83
-84
-85
-86
-87
-88
-88
-89
-89
-89
-89
-90
-91
-90
-89
-91
-91
-92
-92
-92
-92
-93
-94
-94
-95
-97
-97
-98
-98
-99
-101
-101
-101
-102
-102
-102
-103
-103
-104
-103
-103
-103
-103
-103
-103
-104
-103
-102
-102
-103
-102
-102
-102
-102
-101
-102
-102
-103
-102
-102
-101
-100
-101
-100
-101
-101
-101
-100
-100
-100
-99
-100
-99
-98
-97
-97
-96
-96
-97
-96
-96
-96
-96
-96
-96
-95
-95
-95
-95
-95
-95
-96
-96
-95
-96
-95
-95
-95
-96
-96
-95
-95
-95
-95
-95
-95
-95
-96
-96
-96
-97
-97
-97
-97
-97
-97
-97
-98
-98
-97
-97
-96
-96
-96
-97
-96
-96
-95
-95
-95
-95
-96
-96
-95
-96
-96
-96
-96
-96
-96
-96
-96
-96
-97
-97
-98
-97
-97
-97
-97
-97
-97
-97
-96
-96
-96
-96
-96
-97
-96
-97
-96
-98
-98
-98
-98
-99
-97
-98
-99
-99
-99
-99
-99
-98
-98
-99
-98
-99
-98
-98
-97
-97
-97
-96
-97
-96
-96
-96
-96
-96
-96
-96
-96
-96
-96
-96
-97
-97
-97
-97
-97
-98
-98
-98
-99
-99
-98
-98
-99
-99
-100
-100
-99
-99
-99
-99
-99
-99
-99
-97
-96
-97
-97
-96
-96
-95
-95
-94
-95
-95
-95
-94
-94
-94
-94
-94
-94
-94
-95
-95
-95
-96
-97
-97
-98
-98
-99
-99
-99
-100
-100
-100
-101
-100
-101
-101
-102
-102
-101
-101
-100
-100
-101
-101
-101
-101
-100
-100
-101
-101
-100
-100
-100
-100
-100
-100
-101
-101
-100
-100
-99
-100
-101
-102
-100
-101
-101
-100
-100
-101
-101
-101
-101
-100
-100
-101
-101
-100
-101
-100
-99
-100
-99
-100
-100
-99
-99
-99
-100
-100
-101
-100
-100
-100
-101
-101
-101
-101
-101
-101
-101
-100
-102
-102
-102
-102
-102
-102
-102
-102
-102
-102
-101
-102
-102
-102
-102
-102
-101
-101
-101
-100
-100
-99
-100
-99
-99
-99
-99
-100
-100
-99
-99
-99
-100
-100
-100
-101
-100
-99
-100
-100
-101
-102
-102
-101
-101
-101
-101
-102
-103
-102
-102
-102
-102
-103
-103
-103
-103
-103
-102
-102
-103
-103
-102
-103
-102
-102
-102
-102
-101
-101
-101
-100
-100
-100
-100
-99
-99
-98
-98
-98
-99
-99
-99
-98
-97
-97
-97
-98
-98
-97
-97
-96
-97
-97
-98
-97
-98
-98
-98
-98
-99
-99
-100
-101
-100
-101
-101
-103
-103
-104
-103
-103
-103
-103
-103
-104
-103
-103
-102
-103
-103
-104
-103
-102
-102
-101
-101
-102
-102
-102
-101
-101
-101
-101
-101
-101
-100
-100
-99
-100
-99
-100
-100
-100
-100
-100
-100
-101
-100
-100
-101
-100
-100
-101
-101
-101
-101
-101
-100
-100
-100
-100
-100
-99
-100
-99
-99
-99
-99
-99
-99
-98
-97
-98
-98
-99
-98
-98
-98
-99
-99
-99
-100
-100
-100
-100
-100
-101
-101
-101
-101
-101
-101
-101
-102
-101
-100
-100
-99
-100
-100
-99
-99
-99
-98
-98
-98
-98
-99
-99
-99
-99
-99
-99
-100
-100
-99
-99
-100
-100
-101
-101
-102
-102
-101
-102
-102
-102
-102
-102
-101
-100
-100
-101
-101
-101
-101
-101
-100
-101
-100
-101
-101
-101
-100
-100
-100
-101
-102
-101
-101
-101
-100
-100
-100
-100
-100
-100
-99
-99
-100
-100
-100
-100
-100
-100
-101
-101
-101
-101
-101
-101
-101
-100
-101
-101
-100
-100
-100
-100
-100
-100
-100
-99
-99
-98
-99
-99
-99
-99
-98
-99
-98
-99
-99
-99
-99
-98
-98
-98
-99
-99
-99
-100
-99
-99
-100
-101
-101
-101
-100
-100
-101
-101
-101
-101
-101
-101
-101
-101
-102
-102
-102
-101
-101
-100
-101
-101
-101
-101
-101
-100
-100
-100
-100
-100
-99
-99
-99
-98
-98
-98
-98
-97
-96
-96
-97
-97
-97
-97
-96
-95
-96
-96
-95
-94
-95
-93
-93
-93
-93
-93
-93
-93
-92
-92
-91
-91
-92
-91
-91
-90
-90
-90
-90
-90
-90
-90
-90
-90
-90
-91
-92
-92
-92
-92
-94
-94
-96
-97
-98
-98
-100
-101
-103
-104
-104
-105
-106
-108
-109
-111
-111
-112
-112
-113
-114
-114
-114
-114
-114
-113
-112
-112
-111
-111
-110
-109
-108
-107
-107
-106
-105
-105
-103
-103
-102
-103
-103
-103
-102
-102
-102
-101
-102
-102
-101
-101
-100
-101
-101
-101
-101
-100
-101
-100
-101
-101
-101
-101
-101
-101
-101
-102
-102
-101
-101
-100
-101
-101
-102
-102
-102
-102
-102
-102
-102
-102
-102
-102
-102
-102
-102
-102
-102
-103
-102
-102
-102
-103
-102
-103
-103
-103
-103
-103
-104
-105
-104
-104
-103
-103
-102
-103
-103
-103
-102
-100
-100
-100
-98
-97
-96
-93
-91
-90
-88
-86
-85
-82
-80
-78
-76
-74
-73
-72
-70
-70
-70
-72
-75
-77
-81
-85
-90
-96
-104
-111
-120
-130
-140
-150
-162
-174
-187
-198
-211
-222
-232
-242
-253
-261
-268
-276
-281
-286
-289
-292
-293
-292
-291
-288
-284
-279
-274
-269
-262
-256
-249
-242
-235
-230
-223
-216
-210
-203
-198
-192
-187
-181
-176
-171
-167
-162
-158
-154
-149
-145
-140
-137
-133
-129
-125
-122
-118
-115
-112
-109
-107
-104
-101
-99
-97
-95
-94
-92
-91
-90
-89
-87
-88
-87
-86
-86
-85
-85
-84
-84
-84
-84
-83
-82
-82
-82
-82
-82
-81
-81
-81
-81
-81
-82
-82
-81
-82
-82
-82
-83
-83
-83
-82
-82
-82
-83
-83
-83
-82
-82
-81
-82
-82
-82
-82
-81
-80
-81
-81
-81
-81
-80
-79
-79
-78
-78
-79
-78
-77
-76
-77
-76
-77
-77
-77
-76
-77
-77
-77
-78
-78
-77
-78
-78
-79
-79
-79
-80
-79
-80
-80
-80
-81
-81
-81
-81
-80
-80
-80
-80
-81
-80
-79
-78
-78
-78
-78
-77
-76
-76
-76
-76
-75
-75
-75
-74
-74
-74
-75
-74
-75
-75
-75
-75
-74
-75
-75
-75
-75
-74
-74
-75
-75
-75
-74
-73
-73
-73
-73
-73
-74
-72
-72
-71
-72
-71
-72
-72
-72
-70
-70
-71
-71
-71
-71
-70
-70
-70
-70
-70
-70
-70
-70
-70
-69
-70
-69
-68
-68
-68
-67
-67
-66
-66
-65
-65
-64
-64
-64
-62
-63
-62
-61
-60
-59
-58
-57
-57
-57
-56
-57
-56
-56
-57
-57
-57
-57
-57
-57
-58
-57
-57
-58
-57
-58
-58
-58
-57
-56
-56
-55
-55
-55
-54
-54
-53
-52
-52
-51
-51
-50
-50
-50
-49
-49
-50
-49
-49
-49
-48
-48
-49
-49
-49
-50
-49
-50
-50
-51
-51
-52
-52
-51
-52
-52
-53
-53
-54
-55
-55
-55
-56
-56
-57
-58
-58
-58
-59
-60
-60
-62
-62
-63
-63
-63
-64
-64
-65
-65
-65
-65
-66
-67
-68
-68
-68
-68
-69
-70
-71
-72
-72
-72
-73
-73
-75
-76
-76
-77
-77
-78
-79
-80
-81
-82
-83
-84
-85
-86
-87
-88
-89
-89
-90
-91
-93
-93
-94
-94
-94
-95
-95
-96
-97
-96
-97
-97
-97
-97
-98
-98
-98
-98
-98
-98
-98
-98
-99
-98
-98
-98
-99
-99
-99
-99
-99
-98
-99
-99
-100
-100
-100
-100
-101
-100
-100
-100
-100
-100
-99
-100
-99
-99
-100
-99
-99
-99
-99
-99
-100
-101
-101
-100
-100
-100
-99
-99
-99
-99
-99
-99
-99
-100
-100
-100
-99
-99
-98
-99
-98
-99
-99
-99
-98
-99
-99
-99
-99
-98
-98
-98
-98
-99
-99
-99
-99
-99
-99
-99
-99
-98
-98
-98
-98
-98
-98
-99
-99
-99
-98
-98
-99
-99
-100
-100
-99
-100
-99
-100
-100
-101
-100
-101
-101
-101
-101
-101
-101
-101
-100
-99
-99
-100
-100
-99
-98
-98
-97
-97
-97
-97
-97
-96
-96
-95
-95
-95
-96
-95
-95
-94
-95
-95
-96
-96
-96
-96
-96
-97
-98
-98
-98
-98
-98
-98
-99
-98
-98
-98
-98
-97
-98
-98
-98
-97
-97
-96
-97
-98
-98
-98
-98
-98
-98
-98
-98
-98
-98
-99
-98
-98
-99
-99
-100
-100
-100
-100
-100
-100
-101
-101
-101
-101
-100
-100
-100
-99
-99
-99
-99
-99
-100
-100
-101
-100
-100
-100
-100
-101
-101
-102
-102
-102
-102
-102
-102
-103
-102
-102
-102
-102
-103
-103
-103
-102
-102
-102
-101
-101
-102
-103
-102
-102
-101
-101
-101
-102
-102
-101
-101
-101
-102
-102
-102
-101
-102
-102
-102
-102
-103
-104
-103
-103
-102
-104
-104
-104
-105
-105
-105
-104
-105
-105
-106
-105
-105
-104
-104
-104
-105
-104
-104
-103
-102
-103
-103
-103
-103
-102
-101
-100
-101
-101
-101
-101
-101
-101
-101
-102
-103
-103
-102
-103
-103
-103
-104
-105
-104
-104
-104
-104
-105
-105
-105
-105
-105
-104
-105
-105
-105
-104
-105
-104
-105
-105
-105
-106
-106
-106
-105
-105
-105
-106
-105
-106
-105
-105
-105
-105
-105
-105
-104
-104
-103
-103
-104
-104
-103
-103
-103
-102
-103
-103
-102
-103
-103
-102
-103
-103
-104
-104
-103
-103
-103
-103
-103
-103
-103
-103
-103
-103
-103
-105
-104
-105
-104
-105
-105
-106
-106
-107
-107
-108
-108
-108
-109
-109
-109
-109
-108
-109
-108
-108
-109
-109
-109
-108
-109
-108
-109
-108
-108
-107
-106
-106
-106
-106
-106
-106
-106
-105
-106
-106
-106
-106
-106
-106
-107
-107
-108
-108
-108
-109
-109
-110
-110
-110
-110
-110
-108
-108
-109
-109
-108
-108
-108
-107
-107
-107
-107
-107
-106
-106
-105
-106
-105
-106
-106
-105
-105
-105
-105
-106
-106
-106
-106
-106
-107
-107
-108
-108
-108
-108
-108
-108
-108
-109
-108
-109
-109
-109
-109
-109
-110
-109
-109
-109
-109
-109
-109
-109
-109
-108
-108
-108
-108
-107
-107
-107
-107
-106
-106
-106
-106
-106
-106
-106
-107
-107
-108
-108
-109
-108
-109
-109
-110
-111
-111
-111
-111
-112
-112
-113
-112
-112
-111
-111
-111
-111
-110
-109
-110
-109
-108
-107
-107
-106
-105
-105
-104
-103
-103
-103
-103
-104
-102
-102
-103
-104
-104
-105
-105
-105
-104
-104
-106
-106
-106
-106
-106
-106
-107
-107
-107
-106
-106
-106
-106
-106
-106
-106
-106
-107
-106
-107
-107
-107
-106
-106
-107
-107
-106
-107
-107
-107
-106
-107
-107
-106
-107
-107
-107
-107
-107
-106
-106
-106
-105
-105
-105
-104
-105
-105
-106
-105
-104
-105
-104
-105
-105
-104
-104
-104
-103
-102
-103
-103
-103
-103
-103
-104
-104
-104
-105
-105
-104
-104
-105
-105
-106
-106
-106
-105
-106
-107
-107
-107
-107
-107
-106
-106
-106
-106
-106
-106
-106
-105
-105
-106
-106
-106
-106
-106
-105
-105
-106
-106
-106
-105
-105
-105
-105
-105
-105
-106
-105
-105
-105
-105
-105
-104
-105
-104
-103
-104
-103
-103
-103
-103
-101
-101
-101
-101
-102
-101
-101
-101
-101
-101
-102
-102
-102
-101
-101
-101
-102
-102
-102
-101
-100
-100
-100
-100
-100
-99
-99
-98
-98
-98
-98
-97
-97
-96
-96
-96
-97
-97
-98
-98
-99
-99
-101
-102
-103
-105
-106
-107
-109
-111
-112
-113
-115
-115
-116
-117
-118
-119
-120
-120
-119
-119
-120
-120
-120
-120
-120
-119
-119
-119
-119
-118
-118
-117
-116
-116
-116
-115
-116
-116
-115
-115
-114
-114
-115
-114
-113
-113
-112
-112
-111
-111
-111
-110
-109
-109
-109
-108
-108
-108
-107
-106
-106
-107
-107
-106
-107
-107
-107
-108
-108
-109
-108
-108
-108
-109
-110
-110
-110
-110
-110
-110
-109
-110
-110
-110
-109
-108
-109
-108
-109
-108
-109
-108
-108
-108
-108
-109
-109
-109
-109
-109
-109
-109
-109
-110
-109
-110
-109
-109
-108
-107
-107
-105
-104
-103
-102
-100
-98
-97
-94
-91
-90
-88
-85
-83
-81
-78
-76
-75
-76
-75
-75
-75
-77
-80
-82
-87
-91
-96
-103
-111
-120
-129
-139
-150
-161
-173
-184
-197
-208
-220
-231
-240
-249
-257
-264
-271
-276
-280
-283
-283
-284
-283
-281
-277
-273
-268
-263
-257
-251
-245
-238
-232
-224
-219
-212
-207
-202
-196
-190
-185
-180
-176
-172
-168
-164
-160
-157
-154
-150
-147
-144
-140
-136
-133
-130
-127
-123
-119
-116
-113
-110
-108
-104
-101
-99
-97
-95
-93
-93
-91
-91
-89
-88
-87
-87
-87
-86
-86
-86
-86
-86
-87
-86
-86
-87
-87
-87
-88
-88
-88
-88
-87
-87
-88
-87
-88
-87
-87
-87
-86
-86
-86
-86
-85
-84
-84
-84
-84
-83
-83
-82
-82
-81
-81
-81
-81
-81
-81
-80
-81
-81
-81
-82
-82
-82
-82
-83
-83
-84
-84
-84
-84
-85
-85
-86
-86
-86
-86
-85
-85
-85
-85
-85
-85
-84
-84
-84
-85
-84
-84
-84
-83
-83
-83
-83
-83
-84
-82
-82
-82
-81
-81
-80
-80
-79
-79
-79
-79
-79
-78
-78
-77
-77
-75
-76
-75
-75
-75
-74
-74
-75
-76
-76
-76
-75
-75
-76
-76
-76
-76
-75
-75
-75
-76
-75
-75
-75
-75
-73
-73
-74
-73
-73
-72
-72
-72
-73
-73
-73
-73
-73
-72
-72
-72
-74
-74
-74
-73
-72
-73
-73
-73
-73
-73
-72
-71
-70
-70
-70
-70
-70
-69
-68
-69
-69
-69
-69
-68
-68
-68
-68
-68
-68
-68
-68
-67
-68
-68
-68
-68
-68
-67
-66
-65
-65
-66
-65
-64
-64
-63
-64
-63
-63
-64
-63
-63
-63
-63
-63
-62
-62
-61
-61
-61
-61
-61
-60
-59
-58
-58
-57
-58
-57
-58
-57
-56
-56
-56
-56
-57
-56
-56
-55
-56
-55
-56
-56
-56
-57
-57
-57
-58
-58
-59
-59
-60
-60
-61
-62
-61
-62
-62
-63
-63
-64
-65
-65
-66
-65
-65
-66
-66
-67
-68
-67
-67
-68
-69
-70
-71
-71
-71
-71
-72
-73
-74
-74
-74
-74
-75
-76
-77
-78
-79
-79
-80
-81
-83
-83
-84
-84
-84
-85
-85
-86
-87
-87
-88
-88
-89
-90
-91
-92
-92
-92
-92
-93
-94
-95
-95
-95
-95
-95
-96
-96
-96
-96
-96
-95
-95
-96
-96
-96
-97
-97
-96
-96
-97
-97
-97
-97
-97
-97
-97
-97
-98
-98
-98
-98
-98
-99
-99
-99
-100
-99
-100
-99
-100
-100
-100
-100
-99
-99
-99
-98
-98
-97
-97
-96
-96
-96
-96
-95
-94
-93
-93
-93
-92
-93
-92
-92
-91
-91
-91
-92
-91
-91
-92
-91
-92
-92
-92
-93
-92
-93
-92
-92
-92
-93
-93
-93
-92
-92
-92
-92
-91
-91
-91
-90
-90
-90
-90
-90
-90
-90
-89
-91
-92
-91
-92
-92
-93
-92
-93
-94
-94
-94
-93
-92
-92
-93
-93
-93
-94
-93
-93
-93
-93
-93
-93
-93
-92
-92
-92
-92
-92
-92
-92
-91
-91
-90
-91
-90
-90
-89
-89
-88
-88
-88
-88
-88
-88
-87
-87
-88
-88
-88
-87
-88
-89
-89
-89
-89
-89
-89
-89
-89
-89
-90
-90
-90
-90
-90
-90
-90
-89
-90
-89
-89
-90
-89
-90
-91
-91
-91
-92
-92
-92
-93
-94
-93
-94
-93
-94
-94
-95
-95
-95
-95
-94
-95
-95
-95
-95
-95
-95
-94
-94
-94
-94
-93
-93
-92
-92
-92
-92
-92
-91
-91
-91
-91
-92
-91
-91
-90
-91
-91
-92
-93
-93
-93
-92
-93
-94
-95
-95
-95
-95
-95
-95
-95
-96
-95
-95
-95
-95
-95
-95
-95
-95
-95
-95
-95
-94
-95
-95
-94
-94
-93
-93
-94
-94
-94
-94
-94
-94
-94
-94
-93
-93
-93
-93
-92
-93
-92
-92
-92
-91
-92
-91
-91
-91
-92
-90
-90
-91
-91
-91
-91
-91
-91
-91
-90
-91
-90
-90
-89
-89
-89
-88
-89
-88
-89
-89
-88
-88
-89
-89
-89
-90
-90
-90
-91
-92
-92
-93
-92
-92
-92
-92
-92
-93
-93
-92
-91
-91
-91
-91
-91
-91
-90
-90
-89
-89
-89
-88
-89
-88
-88
-88
-89
-90
-90
-90
-90
-90
-91
-92
-93
-93
-93
-93
-93
-93
-93
-93
-93
-92
-92
-92
-92
-92
-92
-91
-92
-90
-91
-91
-91
-91
-90
-90
-90
-90
-91
-91
-90
-89
-90
-89
-89
-89
-90
-90
-89
-88
-89
-89
-88
-88
-88
-87
-88
-87
-88
-88
-88
-89
-88
-89
-88
-89
-89
-88
-87
-87
-87
-88
-88
-88
-88
-87
-87
-88
-88
-89
-89
-88
-88
-88
-89
-90
-90
-90
-90
-90
-90
-91
-91
-90
-90
-90
-90
-90
-90
-90
-88
-88
-87
-87
-87
-87
-87
-86
-86
-85
-85
-85
-86
-86
-87
-87
-87
-87
-88
-88
-88
-88
-88
-90
-89
-90
-91
-91
-91
-91
-90
-91
-91
-91
-90
-91
-89
-90
-89
-89
-89
-89
-88
-88
-88
-87
-88
-87
-87
-86
-87
-87
-86
-87
-86
-85
-85
-85
-84
-84
-85
-84
-84
-83
-84
-83
-84
-83
-83
-83
-84
-84
-85
-86
-86
-85
-85
-86
-86
-86
-86
-86
-86
-87
-88
-87
-88
-88
-87
-87
-88
-89
-89
-89
-89
-89
-89
-89
-89
-90
-90
-89
-89
-89
-90
-90
-90
-90
-90
-89
-89
-90
-90
-89
-88
-88
-88
-88
-86
-87
-86
-86
-85
-85
-86
-85
-85
-85
-84
-84
-85
-86
-86
-85
-85
-85
-85
-85
-85
-86
-86
-86
-85
-85
-86
-86
-85
-84
-84
-84
-84
-84
-84
-84
-84
-84
-84
-84
-84
-84
-84
-84
-84
-84
-85
-85
-85
-86
-86
-86
-87
-86
-88
-87
-87
-87
-88
-88
-89
-89
-89
-88
-88
-88
-88
-88
-88
-88
-88
-87
-86
-87
-87
-86
-85
-84
-85
-84
-85
-85
-84
-84
-84
-84
-84
-86
-86
-86
-86
-86
-86
-88
-88
-88
-89
-88
-88
-89
-89
-89
-89
-88
-87
-87
-88
-88
-87
-87
-87
-86
-86
-86
-87
-86
-86
-85
-85
-85
-85
-84
-83
-82
-83
-82
-81
-81
-80
-80
-79
-78
-77
-77
-76
-77
-76
-75
-75
-76
-75
-75
-75
-75
-74
-75
-76
-76
-76
-78
-78
-78
-80
-80
-81
-82
-82
-83
-83
-85
-85
-86
-88
-88
-89
-90
-92
-92
-92
-93
-93
-94
-94
-95
-96
-96
-96
-95
-95
-95
-95
-94
-94
-92
-91
-91
-90
-91
-90
-90
-89
-89
-90
-91
-90
-90
-91
-90
-91
-91
-92
-92
-92
-91
-91
-92
-92
-91
-91
-90
-90
-89
-88
-88
-87
-85
-85
-84
-84
-84
-84
-84
-84
-84
-84
-84
-85
-86
-86
-87
-86
-87
-87
-89
-89
-88
-89
-89
-88
-89
-89
-89
-88
-88
-87
-87
-87
-87
-87
-87
-87
-87
-87
-89
-89
-89
-89
-89
-89
-90
-90
-90
-90
-90
-89
-90
-89
-89
-89
-88
-87
-86
-84
-83
-81
-80
-77
-76
-74
-72
-71
-68
-66
-64
-61
-60
-58
-57
-56
-55
-54
-55
-56
-58
-61
-63
-67
-73
-78
-85
-92
-101
-108
-118
-128
-139
-150
-161
-172
-183
-193
-202
-212
-220
-228
-234
-239
-244
-246
-249
-249
-249
-247
-244
-239
-234
-229
-223
-217
-210
-204
-196
-189
-183
-176
-170
-165
-159
-154
-149
-145
-141
-137
-134
-131
-128
-126
-125
-122
-120
-118
-115
-112
-111
-109
-106
-104
-102
-100
-98
-96
-93
-90
-88
-85
-83
-82
-81
-79
-77
-75
-74
-73
-73
-73
-72
-71
-71
-70
-70
-70
-70
-70
-70
-70
-70
-72
-72
-72
-71
-71
-71
-71
-71
-72
-71
-71
-70
-70
-70
-70
-70
-70
-69
-70
-69
-69
-70
-70
-69
-68
-69
-68
-69
-69
-69
-68
-68
-66
-67
-66
-66
-66
-65
-64
-63
-63
-63
-63
-62
-62
-61
-61
-61
-62
-62
-62
-62
-62
-62
-63
-63
-63
-62
-63
-63
-64
-65
-66
-65
-66
-66
-66
-67
-67
-67
-67
-66
-66
-66
-66
-66
-66
-65
-65
-64
-65
-64
-63
-62
-62
-62
-62
-62
-61
-60
-60
-60
-60
-60
-60
-61
-59
-60
-60
-60
-60
-60
-61
-61
-60
-61
-61
-62
-63
-63
-62
-62
-62
-63
-63
-63
-63
-62
-61
-61
-60
-60
-60
-59
-58
-57
-56
-56
-56
-55
-54
-53
-53
-52
-51
-51
-50
-50
-50
-49
-49
-49
-49
-49
-49
-49
-49
-50
-50
-50
-50
-49
-50
-50
-51
-51
-50
-49
-49
-49
-49
-49
-49
-48
-47
-47
-47
-47
-47
-47
-46
-46
-46
-46
-46
-46
-46
-46
-46
-46
-46
-47
-46
-47
-46
-45
-46
-46
-46
-45
-45
-44
-44
-44
-45
-44
-45
-44
-44
-44
-44
-45
-45
-44
-45
-45
-46
-47
-47
-48
-47
-48
-49
-49
-50
-50
-50
-50
-50
-50
-51
-51
-52
-51
-51
-51
-51
-52
-52
-51
-51
-51
-50
-51
-51
-52
-51
-52
-52
-53
-54
-55
-55
-55
-56
-57
-57
-58
-59
-60
-60
-61
-60
-62
-63
-63
-63
-64
-63
-64
-65
-66
-66
-66
-66
-67
-68
-68
-70
-71
-71
-72
-72
-73
-74
-75
-75
-75
-76
-76
-78
-78
-78
-79
-79
-79
-79
-80
-81
-81
-81
-81
-81
-82
-82
-82
-82
-82
-82
-83
-83
-83
-83
-83
-83
-82
-83
-83
-83
-83
-83
-82
-81
-81
-81
-81
-80
-79
-78
-78
-77
-76
-76
-75
-73
-74
-74
-74
-73
-73
-72
-72
-71
-71
-72
-72
-72
-72
-72
-72
-73
-74
-75
-75
-75
-75
-75
-76
-77
-76
-76
-76
-76
-76
-76
-76
-76
-75
-75
-75
-75
-74
-74
-74
-73
-73
-74
-74
-74
-75
-75
-74
-74
-74
-74
-75
-75
-75
-75
-76
-76
-77
-77
-77
-77
-76
-76
-76
-76
-75
-74
-74
-74
-73
-73
-73
-72
-72
-71
-71
-71
-72
-72
-71
-71
-71
-72
-73
-74
-74
-74
-74
-75
-74
-75
-75
-76
-75
-74
-75
-75
-75
-74
-73
-73
-72
-72
-73
-73
-73
-72
-71
-71
-70
-71
-70
-70
-70
-70
-71
-71
-72
-72
-72
-72
-71
-72
-72
-73
-73
-73
-72
-72
-73
-73
-74
-73
-73
-73
-73
-74
-74
-74
-74
-75
-74
-74
-76
-76
-76
-76
-76
-76
-77
-77
-77
-77
-76
-77
-77
-77
-78
-77
-77
-76
-77
-77
-77
-78
-78
-78
-78
-77
-78
-79
-79
-79
-79
-78
-80
-80
-81
-81
-81
-80
-80
-81
-81
-81
-81
-80
-80
-80
-80
-80
-80
-80
-79
-78
-78
-78
-78
-78
-77
-77
-77
-78
-78
-78
-78
-78
-77
-78
-78
-78
-79
-80
-79
-79
-80
-81
-81
-82
-81
-81
-80
-81
-81
-82
-81
-81
-82
-81
-81
-80
-81
-80
-79
-78
-79
-78
-79
-78
-77
-77
-77
-77
-77
-77
-77
-77
-77
-77
-77
-78
-78
-79
-79
-79
-79
-80
-80
-80
-80
-80
-80
-81
-81
-81
-81
-81
-80
-81
-81
-81
-81
-80
-80
-79
-79
-80
-80
-81
-81
-81
-81
-82
-83
-83
-83
-82
-83
-82
-83
-83
-83
-83
-83
-82
-83
-83
-83
-82
-81
-81
-80
-80
-79
-79
-79
-78
-78
-78
-79
-79
-78
-78
-78
-78
-77
-79
-79
-79
-80
-80
-80
-81
-82
-82
-82
-83
-82
-83
-83
-84
-84
-84
-84
-84
-83
-84
-84
-84
-85
-84
-84
-84
-85
-85
-84
-84
-84
-84
-84
-84
-84
-84
-83
-83
-83
-84
-84
-83
-83
-82
-82
-83
-84
-84
-83
-84
-83
-83
-83
-84
-84
-84
-84
-84
-84
-85
-86
-85
-85
-84
-85
-84
-84
-85
-84
-84
-84
-83
-84
-84
-84
-84
-84
-83
-83
-83
-83
-84
-83
-83
-83
-83
-84
-85
-85
-84
-84
-84
-84
-84
-84
-83
-83
-82
-82
-82
-82
-82
-82
-81
-82
-82
-82
-83
-82
-81
-82
-82
-82
-82
-82
-82
-82
-81
-82
-82
-83
-83
-83
-82
-82
-82
-83
-84
-85
-84
-85
-85
-85
-85
-85
-85
-85
-85
-85
-86
-85
-85
-85
-85
-85
-86
-86
-86
-85
-85
-85
-85
-85
-85
-85
-85
-85
-84
-85
-85
-84
-84
-84
-83
-83
-84
-83
-84
-83
-83
-83
-82
-82
-83
-82
-83
-82
-83
-83
-83
-85
-84
-85
-84
-84
-85
-85
-85
-85
-85
-85
-85
-84
-85
-85
-84
-84
-83
-84
-84
-84
-84
-84
-83
-83
-83
-83
-83
-83
-83
-83
-83
-82
-83
-82
-82
-81
-81
-80
-81
-81
-81
-80
-81
-81
-82
-83
-83
-83
-83
-84
-84
-85
-87
-86
-87
-87
-87
-88
-88
-89
-89
-89
-87
-87
-87
-87
-86
-86
-85
-84
-83
-83
-83
-83
-82
-81
-80
-81
-81
-82
-82
-83
-83
-83
-83
-85
-85
-84
-84
-85
-84
-85
-85
-84
-84
-83
-83
-83
-83
-83
-82
-82
-81
-81
-81
-81
-81
-81
-81
-80
-80
-81
-81
-80
-80
-79
-78
-78
-78
-78
-78
-77
-77
-76
-76
-77
-77
-76
-76
-76
-77
-76
-78
-79
-78
-78
-78
-79
-81
-81
-82
-83
-83
-84
-85
-86
-88
-89
-90
-91
-92
-93
-94
-94
-94
-95
-95
-95
-96
-97
-96
-96
-96
-96
-96
-96
-95
-95
-93
-92
-92
-91
-91
-91
-91
-90
-89
-89
-89
-89
-88
-88
-88
-88
-88
-88
-89
-89
-89
-88
-88
-89
-89
-89
-88
-88
-88
-88
-88
-88
-88
-87
-86
-86
-86
-86
-86
-87
-86
-85
-85
-85
-85
-85
-83
-83
-83
-82
-83
-83
-83
-82
-82
-83
-83
-83
-83
-84
-83
-84
-84
-85
-85
-85
-85
-84
-84
-86
-86
-86
-86
-86
-86
-86
-86
-85
-85
-85
-84
-83
-83
-81
-81
-80
-78
-77
-76
-75
-75
-73
-72
-70
-68
-66
-64
-64
-62
-61
-60
-59
-59
-59
-60
-60
-62
-63
-65
-68
-73
-77
-83
-89
-96
-104
-113
-123
-133
-143
-154
-164
-175
-186
-196
-205
-213
-220
-228
-234
-240
-245
-247
-249
-249
-249
-247
-244
-240
-235
-230
-224
-217
-211
-205
-198
-191
-184
-178
-172
-165
-160
-154
-149
-144
-139
-135
-132
-128
-125
-121
-117
-115
-112
-109
-107
-105
-102
-99
-97
-95
-93
-92
-89
-87
-85
-83
-82
-81
-79
-77
-75
-74
-73
-72
-71
-70
-69
-68
-68
-67
-67
-67
-66
-65
-65
-65
-66
-66
-66
-66
-66
-66
-67
-67
-67
-68
-67
-68
-68
-68
-68
-67
-67
-66
-66
-65
-65
-66
-65
-64
-64
-64
-63
-64
-63
-63
-63
-62
-63
-63
-63
-63
-63
-63
-63
-64
-63
-64
-64
-64
-63
-63
-63
-63
-62
-62
-61
-61
-61
-61
-61
-61
-60
-60
-60
-60
-60
-60
-61
-60
-60
-60
-60
-61
-61
-61
-61
-61
-61
-62
-63
-63
-63
-63
-63
-63
-64
-64
-64
-63
-63
-63
-63
-63
-63
-63
-61
-61
-61
-61
-61
-61
-61
-60
-59
-59
-59
-59
-59
-58
-58
-58
-58
-57
-57
-57
-56
-56
-56
-56
-57
-57
-57
-56
-55
-55
-56
-56
-55
-55
-55
-55
-55
-55
-56
-55
-55
-54
-54
-53
-54
-53
-52
-52
-52
-52
-52
-52
-52
-51
-51
-50
-50
-50
-51
-50
-49
-49
-50
-50
-51
-51
-51
-50
-50
-51
-52
-52
-52
-52
-52
-53
-52
-52
-53
-52
-52
-52
-51
-52
-51
-51
-50
-50
-49
-49
-49
-49
-49
-48
-47
-47
-47
-47
-46
-46
-45
-45
-46
-46
-46
-46
-45
-45
-45
-46
-46
-46
-47
-46
-47
-47
-48
-48
-48
-48
-48
-48
-49
-49
-50
-50
-50
-50
-49
-51
-51
-51
-52
-51
-51
-52
-52
-53
-53
-53
-53
-52
-52
-53
-54
-54
-54
-54
-55
-55
-56
-57
-57
-58
-58
-58
-59
-60
-60
-61
-61
-62
-62
-63
-65
-66
-66
-66
-66
-67
-69
-69
-70
-71
-73
-73
-74
-75
-76
-76
-77
-77
-77
-79
-80
-80
-81
-81
-81
-81
-83
-83
-83
-83
-83
-83
-84
-84
-84
-85
-84
-84
-85
-84
-85
-85
-85
-84
-84
-84
-85
-84
-84
-83
-82
-82
-82
-82
-81
-81
-81
-80
-80
-79
-79
-79
-80
-79
-79
-79
-80
-81
-80
-79
-79
-79
-79
-79
-79
-79
-78
-77
-78
-77
-78
-77
-77
-77
-77
-77
-77
-78
-78
-78
-77
-78
-78
-78
-78
-78
-78
-78
-78
-78
-78
-78
-78
-77
-77
-77
-77
-77
-77
-77
-76
-76
-76
-76
-76
-77
-76
-77
-77
-77
-77
-78
-77
-77
-78
-78
-78
-78
-79
-78
-78
-78
-78
-79
-78
-78
-77
-78
-77
-77
-77
-78
-78
-76
-77
-77
-78
-77
-77
-76
-75
-76
-76
-77
-76
-76
-75
-75
-75
-74
-74
-74
-73
-72
-72
-72
-72
-72
-72
-72
-72
-72
-71
-72
-71
-71
-71
-70
-71
-72
-72
-72
-73
-72
-73
-74
-74
-73
-74
-73
-73
-73
-74
-74
-74
-74
-75
-74
-73
-74
-74
-74
-74
-73
-74
-74
-76
-77
-77
-77
-77
-78
-78
-78
-79
-78
-78
-78
-79
-79
-80
-80
-80
-80
-80
-80
-80
-80
-80
-80
-79
-79
-79
-79
-79
-79
-78
-77
-78
-78
-79
-79
-78
-79
-78
-78
-79
-79
-80
-80
-80
-79
-80
-81
-81
-81
-80
-80
-81
-81
-82
-82
-81
-81
-82
-81
-81
-81
-80
-81
-80
-80
-80
-79
-79
-78
-78
-77
-77
-77
-78
-77
-76
-76
-76
-75
-75
-76
-75
-76
-76
-76
-77
-78
-78
-78
-78
-78
-78
-79
-80
-80
-80
-81
-81
-81
-82
-83
-83
-82
-82
-82
-82
-83
-83
-83
-82
-82
-82
-82
-82
-82
-83
-82
-82
-83
-83
-84
-83
-83
-83
-83
-83
-83
-83
-82
-81
-81
-81
-82
-82
-81
-81
-81
-81
-80
-80
-80
-80
-80
-80
-79
-79
-80
-80
-79
-78
-78
-78
-78
-78
-78
-78
-77
-77
-79
-79
-80
-80
-79
-79
-79
-79
-80
-80
-80
-81
-81
-82
-82
-81
-81
-81
-81
-81
-81
-81
-82
-81
-81
-80
-81
-81
-81
-81
-80
-80
-80
-80
-81
-81
-81
-81
-80
-80
-80
-81
-80
-81
-80
-80
-80
-81
-81
-80
-80
-80
-78
-79
-79
-79
-79
-78
-77
-77
-77
-78
-78
-78
-79
-78
-79
-79
-80
-81
-81
-81
-81
-82
-82
-82
-82
-83
-83
-82
-82
-83
-83
-83
-82
-82
-81
-80
-80
-80
-79
-78
-77
-78
-78
-77
-77
-76
-76
-76
-76
-77
-78
-77
-77
-77
-77
-78
-79
-78
-78
-78
-79
-80
-81
-81
-81
-81
-80
-80
-81
-81
-81
-81
-81
-80
-79
-79
-78
-78
-77
-77
-76
-76
-76
-76
-76
-75
-74
-75
-75
-75
-75
-76
-75
-76
-76
-77
-77
-77
-77
-76
-77
-77
-77
-77
-77
-77
-76
-76
-76
-76
-76
-76
-75
-75
-76
-76
-77
-77
-76
-76
-75
-77
-76
-77
-77
-77
-77
-77
-78
-79
-78
-79
-78
-78
-78
-78
-78
-78
-78
-77
-77
-77
-77
-77
-77
-76
-75
-75
-75
-76
-75
-76
-75
-74
-74
-75
-75
-75
-75
-75
-74
-75
-75
-75
-75
-74
-74
-73
-74
-74
-75
-75
-75
-75
-75
-76
-76
-76
-76
-76
-76
-77
-77
-78
-78
-78
-79
-78
-79
-79
-79
-78
-78
-78
-77
-77
-77
-78
-77
-76
-76
-75
-76
-75
-75
-74
-73
-73
-73
-73
-73
-73
-73
-72
-71
-71
-71
-70
-70
-69
-68
-69
-69
-69
-69
-69
-68
-68
-69
-70
-70
-70
-71
-72
-72
-73
-74
-75
-75
-75
-75
-75
-76
-77
-77
-76
-77
-77
-76
-77
-77
-76
-75
-73
-73
-72
-71
-71
-69
-67
-67
-67
-67
-67
-66
-65
-64
-64
-64
-64
-64
-64
-64
-64
-64
-65
-65
-66
-65
-65
-65
-66
-66
-67
-67
-67
-67
-67
-68
-69
-71
-72
-72
-73
-74
-76
-77
-78
-78
-79
-80
-81
-82
-83
-84
-84
-85
-85
-86
-86
-86
-85
-85
-84
-83
-83
-82
-81
-80
-80
-79
-78
-78
-78
-77
-77
-76
-76
-77
-77
-77
-77
-77
-77
-77
-77
-78
-78
-78
-77
-77
-76
-77
-77
-77
-76
-75
-74
-75
-74
-73
-73
-73
-72
-73
-73
-74
-74
-73
-74
-73
-74
-75
-76
-75
-75
-75
-75
-75
-76
-76
-75
-75
-76
-76
-76
-76
-76
-76
-74
-73
-74
-74
-74
-75
-74
-74
-74
-74
-73
-73
-72
-71
-71
-71
-71
-70
-70
-69
-68
-68
-67
-67
-67
-66
-64
-63
-63
-61
-61
-60
-58
-57
-54
-53
-52
-51
-50
-48
-47
-47
-47
-47
-49
-50
-53
-56
-59
-65
-70
-77
-84
-92
-101
-111
-123
-134
-145
-156
-167
-178
-189
-200
-209
-218
-225
-233
-239
-245
-249
-252
-253
-252
-252
-249
-246
-242
-237
-231
-225
-218
-211
-205
-197
-190
-183
-176
-170
-163
-157
-152
-145
-140
-134
-129
-125
-121
-117
-113
-108
-106
-102
-100
-96
-94
-90
-88
-85
-83
-81
-78
-75
-73
-70
-68
-66
-65
-64
-62
-59
-59
-57
-57
-56
-56
-54
-54
-53
-54
-54
-54
-54
-54
-54
-54
-55
-55
-55
-55
-55
-54
-55
-56
-56
-55
-55
-55
-54
-54
-54
-53
-52
-51
-50
-50
-49
-49
-48
-47
-47
-46
-46
-47
-46
-46
-46
-46
-46
-46
-46
-47
-46
-46
-47
-47
-47
-47
-48
-48
-48
-47
-48
-49
-49
-49
-49
-49
-49
-50
-50
-50
-50
-50
-50
-50
-50
-51
-50
-49
-50
-49
-49
-49
-49
-49
-48
-49
-48
-48
-48
-48
-48
-48
-47
-47
-47
-47
-47
-47
-46
-45
-45
-45
-45
-44
-44
-43
-42
-42
-41
-41
-40
-40
-39
-39
-40
-39
-39
-39
-39
-38
-39
-39
-39
-39
-40
-40
-40
-42
-42
-42
-42
-42
-42
-43
-44
-44
-44
-43
-44
-43
-43
-43
-44
-42
-42
-41
-40
-41
-39
-40
-39
-38
-38
-37
-36
-36
-35
-34
-33
-33
-33
-33
-33
-33
-33
-32
-33
-33
-34
-34
-34
-33
-33
-34
-34
-34
-34
-34
-34
-34
-33
-33
-34
-32
-31
-31
-30
-30
-30
-30
-30
-29
-29
-28
-29
-29
-27
-26
-27
-26
-26
-26
-27
-26
-25
-25
-24
-25
-25
-25
-24
-23
-23
-23
-24
-24
-24
-23
-23
-23
-24
-24
-25
-25
-25
-25
-25
-26
-27
-26
-26
-27
-26
-27
-27
-27
-26
-26
-25
-25
-26
-27
-27
-27
-27
-27
-27
-28
-29
-30
-31
-31
-31
-32
-33
-34
-34
-35
-35
-36
-37
-38
-39
-40
-40
-40
-41
-43
-43
-44
-45
-45
-45
-46
-47
-48
-48
-49
-50
-50
-51
-52
-53
-53
-54
-55
-56
-57
-58
-59
-59
-60
-60
-61
-62
-62
-62
-63
-63
-63
-63
-64
-65
-64
-65
-65
-65
-65
-65
-65
-65
-65
-64
-65
-65
-64
-64
-64
-63
-63
-62
-63
-63
-63
-63
-61
-62
-62
-63
-63
-62
-63
-62
-63
-64
-64
-64
-64
-64
-64
-63
-63
-63
-63
-62
-62
-61
-61
-62
-62
-61
-61
-61
-61
-60
-60
-60
-60
-59
-60
-60
-61
-61
-61
-61
-61
-61
-62
-63
-63
-62
-62
-62
-62
-63
-63
-62
-61
-61
-61
-60
-60
-59
-60
-59
-58
-58
-59
-58
-58
-57
-57
-57
-57
-57
-57
-57
-57
-57
-57
-58
-58
-59
-59
-59
-59
-59
-59
-60
-60
-59
-59
-59
-59
-60
-60
-59
-59
-58
-58
-58
-58
-58
-58
-58
-58
-59
-59
-60
-60
-60
-61
-61
-61
-62
-62
-62
-63
-63
-63
-64
-63
-64
-63
-62
-62
-62
-61
-62
-60
-61
-59
-59
-59
-58
-58
-57
-57
-55
-56
-55
-56
-56
-56
-56
-55
-56
-55
-56
-57
-56
-56
-57
-57
-57
-58
-57
-56
-56
-56
-55
-56
-56
-56
-56
-56
-56
-56
-57
-56
-56
-57
-57
-57
-57
-57
-57
-57
-58
-58
-58
-59
-59
-60
-60
-59
-59
-59
-60
-60
-60
-59
-60
-60
-60
-61
-61
-60
-60
-60
-61
-61
-62
-62
-61
-61
-61
-62
-61
-62
-61
-60
-60
-60
-60
-60
-60
-60
-59
-59
-59
-59
-59
-59
-59
-59
-60
-60
-62
-62
-63
-62
-63
-63
-64
-64
-65
-64
-65
-65
-65
-66
-67
-66
-66
-65
-65
-65
-65
-65
-64
-63
-63
-62
-62
-62
-61
-60
-59
-59
-58
-59
-57
-57
-57
-56
-56
-57
-57
-58
-57
-57
-57
-58
-59
-59
-59
-59
-59
-59
-60
-61
-60
-61
-61
-61
-62
-61
-62
-62
-61
-61
-61
-62
-62
-62
-62
-61
-61
-61
-61
-61
-61
-61
-61
-60
-61
-61
-62
-62
-62
-62
-62
-62
-62
-63
-63
-62
-62
-62
-62
-63
-63
-63
-63
-63
-63
-64
-64
-65
-64
-63
-63
-63
-63
-63
-64
-63
-63
-63
-63
-63
-64
-63
-62
-62
-62
-62
-62
-62
-62
-61
-61
-61
-61
-61
-62
-62
-61
-61
-62
-61
-61
-61
-61
-60
-60
-61
-61
-61
-60
-60
-60
-60
-59
-60
-60
-60
-59
-59
-59
-59
-59
-59
-59
-58
-58
-59
-59
-59
-59
-59
-59
-59
-60
-60
-61
-61
-61
-61
-61
-61
-61
-61
-61
-61
-61
-61
-62
-61
-60
-60
-59
-59
-59
-59
-57
-57
-57
-56
-56
-57
-57
-58
-57
-57
-57
-57
-58
-58
-58
-58
-58
-58
-59
-59
-59
-59
-58
-59
-59
-60
-59
-60
-59
-59
-60
-60
-60
-60
-59
-59
-59
-59
-60
-59
-59
-59
-58
-58
-59
-59
-59
-59
-59
-59
-58
-58
-58
-58
-58
-58
-58
-57
-57
-57
-56
-56
-55
-55
-55
-56
-56
-55
-54
-54
-54
-54
-55
-55
-56
-56
-55
-56
-56
-57
-57
-56
-56
-56
-57
-57
-57
-57
-56
-56
-56
-56
-56
-56
-56
-56
-56
-56
-56
-56
-56
-56
-56
-56
-57
-58
-57
-58
-57
-57
-57
-57
-58
-57
-58
-57
-57
-57
-57
-56
-56
-55
-55
-55
-56
-55
-56
-56
-55
-55
-55
-56
-56
-56
-56
-55
-55
-55
-55
-55
-56
-55
-55
-54
-55
-54
-55
-55
-55
-54
-54
-54
-55
-55
-55
-54
-55
-55
-55
-56
-56
-56
-56
-57
-57
-57
-58
-57
-57
-57
-57
-59
-59
-60
-60
-59
-59
-58
-58
-57
-57
-56
-55
-55
-54
-55
-54
-53
-52
-52
-52
-51
-52
-52
-52
-52
-52
-52
-52
-53
-53
-54
-54
-55
-55
-56
-56
-56
-55
-56
-56
-57
-56
-56
-56
-56
-55
-54
-54
-54
-53
-53
-51
-52
-51
-51
-51
-50
-50
-49
-50
-50
-51
-50
-50
-49
-49
-49
-50
-50
-49
-49
-48
-49
-49
-50
-50
-51
-50
-50
-50
-51
-51
-52
-51
-52
-52
-52
-52
-53
-54
-54
-54
-55
-56
-56
-57
-57
-57
-59
-59
-61
-62
-62
-63
-64
-64
-65
-66
-67
-68
-67
-67
-67
-67
-67
-67
-67
-67
-66
-66
-66
-65
-64
-63
-62
-62
-61
-61
-61
-61
-60
-60
-59
-59
-59
-59
-58
-58
-58
-58
-59
-59
-60
-59
-59
-59
-59
-59
-59
-59
-58
-57
-57
-58
-58
-58
-58
-57
-57
-57
-57
-58
-57
-58
-58
-57
-58
-58
-58
-57
-57
-57
-56
-58
-58
-58
-58
-58
-58
-58
-58
-58
-58
-57
-57
-56
-57
-57
-58
-58
-58
-57
-58
-59
-58
-59
-58
-57
-56
-56
-56
-56
-55
-54
-53
-52
-51
-50
-49
-47
-44
-42
-41
-40
-38
-36
-35
-33
-31
-30
-31
-32
-33
-33
-34
-36
-39
-43
-48
-54
-60
-66
-75
-84
-94
-104
-115
-126
-139
-151
-163
-176
-186
-198
-207
-215
-224
-231
-238
-243
-246
-249
-251
-251
-251
-248
-245
-242
-236
-231
-225
-219
-212
-205
-199
-192
-186
-180
-174
-167
-160
-155
-149
-145
-139
-135
-129
-124
-120
-115
-111
-106
-101
-98
-93
-88
-84
-81
-77
-73
-70
-66
-62
-60
-57
-55
-53
-50
-49
-46
-46
-45
-44
-43
-42
-41
-41
-41
-40
-40
-39
-40
-39
-39
-39
-40
-40
-39
-39
-39
-40
-41
-40
-40
-39
-39
-39
-39
-39
-39
-38
-37
-38
-37
-38
-38
-38
-38
-37
-38
-38
-38
-37
-38
-37
-36
-37
-37
-38
-37
-36
-36
-35
-36
-35
-35
-35
-33
-33
-33
-32
-33
-32
-31
-31
-31
-31
-31
-31
-31
-31
-30
-31
-31
-32
-32
-32
-32
-32
-32
-33
-32
-33
-33
-33
-33
-34
-33
-34
-34
-34
-33
-33
-33
-33
-33
-33
-32
-32
-32
-32
-32
-32
-31
-31
-30
-31
-30
-30
-30
-29
-29
-29
-28
-29
-28
-28
-28
-28
-28
-29
-29
-28
-28
-28
-27
-27
-27
-26
-27
-27
-26
-26
-27
-27
-26
-26
-26
-25
-26
-26
-26
-26
-26
-26
-25
-24
-25
-25
-24
-24
-23
-23
-22
-22
-22
-21
-21
-20
-21
-21
-21
-22
-22
-21
-21
-21
-22
-22
-21
-20
-20
-20
-20
-20
-20
-19
-18
-18
-17
-17
-16
-15
-14
-12
-12
-11
-11
-10
-9
-9
-7
-7
-6
-6
-6
-6
-5
-5
-5
-6
-7
-7
-7
-7
-7
-8
-8
-9
-8
-8
-8
-9
-9
-9
-9
-9
-9
-9
-8
-9
-9
-9
-8
-8
-7
-7
-7
-8
-7
-7
-7
-7
-8
-7
-8
-8
-8
-9
-10
-10
-11
-12
-11
-11
-11
-13
-13
-13
-13
-13
-13
-14
-14
-14
-15
-15
-16
-15
-16
-17
-18
-18
-19
-19
-20
-20
-22
-23
-24
-24
-25
-26
-28
-28
-30
-30
-31
-32
-33
-34
-34
-36
-36
-36
-36
-38
-39
-40
-40
-40
-41
-42
-43
-43
-44
-45
-44
-45
-46
-47
-48
-48
-49
-49
-49
-49
-51
-51
-51
-52
-52
-51
-52
-52
-53
-53
-53
-52
-53
-53
-54
-54
-54
-53
-54
-54
-54
-55
-55
-54
-54
-55
-55
-56
-56
-56
-56
-56
-57
-56
-57
-56
-56
-54
-54
-54
-54
-54
-53
-53
-53
-53
-53
-54
-54
-53
-53
-53
-54
-54
-55
-55
-55
-55
-55
-55
-55
-55
-54
-54
-53
-53
-53
-52
-52
-51
-51
-50
-49
-50
-49
-50
-48
-48
-49
-49
-48
-49
-49
-48
-49
-49
-49
-50
-50
-50
-50
-49
-50
-49
-51
-50
-50
-50
-50
-51
-50
-51
-51
-50
-51
-51
-51
-52
-51
-52
-51
-51
-51
-52
-52
-52
-51
-51
-50
-51
-50
-50
-51
-50
-50
-51
-51
-52
-52
-52
-52
-52
-52
-53
-54
-54
-55
-54
-55
-55
-55
-55
-55
-54
-54
-54
-53
-54
-53
-52
-52
-52
-51
-52
-51
-51
-51
-51
-51
-51
-51
-52
-52
-51
-51
-51
-52
-52
-52
-52
-52
-52
-53
-53
-53
-54
-53
-55
-55
-55
-57
-56
-57
-56
-56
-56
-56
-56
-56
-56
-55
-56
-56
-56
-55
-55
-55
-55
-54
-54
-55
-54
-54
-54
-53
-54
-54
-55
-55
-56
-56
-56
-57
-57
-57
-58
-57
-57
-57
-58
-57
-57
-57
-57
-57
-57
-57
-57
-56
-56
-55
-55
-55
-56
-56
-56
-55
-54
-54
-54
-54
-54
-55
-54
-55
-55
-56
-56
-56
-57
-57
-58
-58
-59
-60
-61
-60
-61
-62
-62
-62
-62
-62
-61
-61
-62
-61
-61
-60
-60
-59
-59
-60
-59
-60
-59
-58
-58
-57
-58
-58
-58
-57
-57
-57
-57
-57
-58
-58
-57
-57
-57
-57
-57
-58
-57
-58
-58
-58
-58
-59
-59
-59
-58
-59
-59
-59
-59
-59
-60
-59
-59
-60
-61
-61
-61
-61
-62
-61
-62
-62
-61
-61
-61
-61
-61
-61
-61
-61
-61
-59
-59
-59
-59
-60
-59
-59
-58
-58
-58
-58
-59
-59
-59
-58
-58
-60
-60
-61
-61
-61
-60
-61
-61
-61
-61
-61
-61
-61
-61
-61
-61
-61
-60
-60
-60
-61
-60
-61
-60
-60
-61
-61
-61
-62
-62
-61
-61
-61
-61
-61
-61
-60
-59
-60
-59
-60
-59
-59
-58
-58
-57
-58
-59
-59
-59
-59
-59
-60
-60
-60
-60
-60
-60
-60
-60
-60
-60
-60
-60
-58
-59
-59
-59
-59
-59
-58
-57
-57
-57
-57
-57
-56
-56
-55
-56
-56
-56
-56
-56
-55
-55
-55
-55
-55
-55
-55
-54
-54
-54
-54
-55
-54
-54
-54
-54
-55
-54
-55
-55
-54
-55
-54
-55
-55
-55
-55
-54
-54
-54
-54
-54
-53
-53
-52
-53
-52
-54
-53
-53
-53
-53
-53
-54
-54
-54
-54
-53
-53
-54
-54
-54
-54
-52
-52
-52
-51
-51
-51
-50
-50
-50
-50
-50
-50
-50
-49
-49
-48
-48
-48
-48
-49
-49
-49
-48
-49
-49
-50
-50
-50
-50
-50
-51
-51
-51
-51
-52
-51
-52
-52
-52
-51
-50
-51
-51
-51
-51
-51
-50
-49
-49
-48
-47
-48
-47
-47
-46
-46
-46
-47
-46
-46
-46
-46
-46
-46
-47
-46
-47
-47
-46
-47
-48
-48
-48
-47
-46
-47
-47
-46
-47
-47
-46
-46
-46
-46
-46
-45
-46
-44
-44
-44
-43
-44
-44
-44
-44
-44
-44
-45
-45
-44
-44
-44
-44
-43
-44
-44
-44
-44
-44
-44
-44
-44
-44
-43
-43
-42
-42
-42
-42
-41
-41
-41
-41
-40
-42
-41
-41
-41
-40
-40
-40
-41
-41
-40
-41
-40
-41
-41
-41
-41
-41
-40
-40
-40
-40
-40
-39
-40
-39
-39
-40
-40
-40
-39
-38
-38
-38
-38
-37
-37
-37
-36
-36
-36
-36
-36
-35
-35
-34
-35
-36
-36
-36
-36
-36
-35
-36
-37
-37
-37
-37
-36
-36
-37
-37
-37
-37
-37
-36
-37
-37
-37
-36
-36
-35
-36
-35
-36
-36
-35
-35
-34
-34
-35
-35
-35
-35
-35
-36
-36
-36
-36
-36
-35
-36
-35
-34
-35
-35
-34
-33
-33
-32
-32
-32
-31
-30
-28
-28
-27
-26
-26
-26
-25
-24
-24
-23
-23
-23
-22
-22
-22
-22
-22
-24
-25
-24
-24
-25
-26
-27
-27
-28
-27
-28
-29
-29
-31
-32
-33
-33
-33
-35
-36
-37
-38
-38
-39
-40
-41
-43
-44
-45
-45
-46
-46
-46
-48
-47
-47
-46
-46
-45
-45
-44
-44
-43
-42
-40
-39
-38
-38
-37
-36
-35
-34
-35
-35
-35
-35
-34
-34
-34
-34
-35
-36
-36
-36
-36
-36
-37
-37
-36
-36
-36
-36
-37
-36
-36
-35
-34
-34
-34
-34
-34
-34
-33
-33
-32
-33
-33
-34
-34
-35
-35
-34
-35
-35
-35
-36
-36
-35
-36
-36
-36
-36
-35
-35
-34
-34
-34
-34
-33
-32
-32
-32
-32
-32
-31
-31
-30
-30
-30
-30
-31
-31
-31
-30
-31
-31
-30
-30
-29
-28
-26
-25
-24
-23
-22
-19
-16
-14
-11
-10
-8
-7
-6
-4
-4
-4
-5
-7
-9
-12
-16
-21
-27
-35
-43
-51
-59
-70
-80
-92
-104
-117
-128
-139
-151
-162
-173
-182
-190
-197
-203
-209
-213
-217
-218
-219
-218
-217
-214
-209
-206
-200
-194
-188
-181
-175
-169
-162
-155
-148
-140
-134
-128
-122
-116
-110
-104
-99
-95
-90
-85
-82
-77
-72
-69
-64
-61
-58
-54
-50
-47
-44
-42
-39
-37
-34
-31
-29
-27
-24
-23
-21
-20
-19
-17
-18
-18
-17
-17
-15
-14
-14
-13
-12
-13
-12
-12
-11
-11
-12
-12
-11
-11
-11
-10
-10
-10
-10
-9
-8
-8
-8
-7
-8
-8
-8
-6
-6
-6
-6
-6
-6
-6
-5
-5
-5
-6
-6
-6
-6
-6
-5
-6
-6
-6
-7
-6
-5
-5
-6
-6
-5
-5
-4
-5
-5
-6
-5
-4
-4
-3
-2
-3
-3
-3
-3
-2
-1
-2
-2
-2
-2
-2
-2
-2
-2
-3
-3
-3
-3
-3
-4
-4
-5
-4
-5
-3
-3
-3
-3
-3
-3
-4
-3
-2
-2
-2
-2
-1
0
1
1
2
1
0
2
1
1
2
2
2
2
2
3
3
2
2
1
1
1
2
1
1
1
1
1
3
3
4
3
4
5
5
6
6
6
6
6
7
7
8
8
9
8
8
9
9
9
9
9
8
9
10
9
9
9
10
9
9
10
11
11
12
11
11
12
11
12
12
12
12
12
13
13
13
13
13
13
13
13
14
14
15
15
16
16
17
18
18
19
19
20
21
22
22
22
22
23
23
24
24
24
24
24
24
24
26
26
26
26
25
25
26
26
26
27
25
26
26
26
26
26
26
25
25
25
25
25
25
24
23
23
23
23
22
21
20
20
20
19
20
19
18
17
17
16
16
16
15
14
14
13
13
14
13
12
11
11
10
10
10
9
8
8
6
5
4
4
3
1
0
-1
-2
-3
-4
-4
-5
-7
-8
-8
-9
-9
-11
-12
-12
-12
-13
-12
-13
-14
-15
-16
-15
-16
-16
-17
-19
-19
-20
-19
-20
-21
-21
-23
-23
-23
-23
-24
-24
-24
-24
-24
-24
-23
-23
-24
-23
-23
-24
-22
-22
-23
-23
-23
-22
-23
-22
-22
-23
-23
-23
-24
-23
-23
-24
-24
-25
-26
-25
-25
-24
-23
-23
-24
-23
-22
-22
-21
-20
-21
-20
-20
-20
-19
-19
-19
-19
-19
-19
-18
-18
-18
-19
-19
-20
-20
-20
-19
-20
-20
-20
-20
-20
-20
-19
-20
-20
-20
-20
-19
-19
-18
-18
-18
-18
-18
-17
-18
-17
-17
-18
-18
-18
-18
-18
-19
-20
-20
-20
-20
-19
-20
-20
-21
-21
-20
-20
-19
-20
-20
-20
-20
-19
-19
-19
-19
-19
-19
-19
-18
-19
-18
-19
-20
-21
-21
-21
-20
-22
-21
-23
-22
-23
-23
-24
-24
-25
-25
-25
-25
-25
-24
-24
-24
-24
-24
-24
-23
-24
-23
-23
-24
-22
-23
-22
-22
-23
-24
-24
-23
-23
-24
-24
-24
-24
-24
-24
-24
-24
-24
-24
-25
-24
-24
-25
-24
-25
-25
-25
-24
-25
-24
-25
-25
-25
-25
-25
-26
-26
-28
-29
-29
-29
-29
-29
-30
-30
-31
-31
-31
-30
-30
-29
-29
-30
-29
-28
-27
-27
-27
-28
-27
-26
-25
-26
-26
-26
-26
-26
-26
-26
-26
-27
-27
-27
-27
-28
-28
-28
-28
-28
-28
-29
-29
-28
-29
-29
-30
-29
-29
-30
-30
-30
-31
-30
-31
-31
-31
-31
-32
-32
-32
-32
-32
-32
-32
-33
-32
-32
-32
-31
-31
-31
-31
-31
-31
-30
-30
-30
-30
-30
-30
-31
-31
-31
-32
-32
-32
-31
-32
-32
-32
-32
-33
-33
-34
-33
-33
-34
-34
-35
-35
-34
-34
-33
-34
-34
-34
-34
-34
-34
-34
-34
-35
-35
-35
-34
-33
-34
-34
-35
-35
-34
-35
-35
-35
-35
-36
-36
-36
-36
-36
-37
-37
-38
-38
-38
-38
-38
-38
-39
-39
-39
-39
-39
-39
-39
-39
-39
-38
-38
-38
-37
-37
-36
-36
-35
-35
-35
-35
-34
-34
-34
-34
-34
-34
-35
-35
-36
-36
-35
-35
-36
-37
-37
-38
-38
-38
-38
-38
-39
-39
-39
-39
-39
-40
-41
-42
-41
-40
-40
-40
-40
-41
-40
-40
-40
-39
-39
-40
-39
-39
-38
-38
-38
-37
-37
-37
-37
-37
-37
-37
-36
-36
-36
-36
-35
-36
-36
-37
-38
-38
-38
-37
-38
-38
-38
-39
-39
-40
-39
-40
-40
-41
-41
-42
-41
-41
-42
-42
-42
-42
-41
-41
-41
-42
-42
-43
-42
-42
-41
-42
-41
-41
-41
-41
-41
-40
-40
-40
-40
-40
-40
-41
-40
-41
-41
-41
-41
-41
-40
-41
-41
-43
-42
-43
-42
-42
-43
-44
-44
-44
-45
-45
-46
-46
-47
-46
-47
-46
-46
-46
-45
-46
-46
-45
-44
-44
-43
-43
-43
-42
-43
-42
-42
-43
-43
-43
-44
-44
-44
-44
-45
-45
-45
-45
-45
-45
-45
-45
-45
-45
-44
-44
-43
-43
-44
-44
-43
-43
-43
-42
-42
-42
-42
-42
-42
-42
-42
-43
-43
-43
-44
-43
-43
-44
-45
-45
-45
-45
-46
-45
-47
-47
-47
-47
-47
-48
-48
-49
