# Simple Text Format
# Sampling Rate (Hz):= 1200.00
# Resolution:= 12
# Labels:= ECG	 V2
# Age:=	65
# Gender:=	Masculino
-101
-101
-101
-102
-102
-101
-101
-100
-100
-101
-101
-101
-100
-101
-101
-101
-102
-103
-102
-102
-103
-103
-103
-104
-103
-103
-103
-103
-103
-103
-104
-103
-102
-102
-102
-102
-102
-102
-102
-102
-101
-101
-102
-102
-102
-102
-101
-101
-102
-102
-101
-101
-100
-100
-100
-100
-100
-100
-99
-99
-98
-98
-98
-99
-99
-99
-98
-99
-99
-100
-101
-101
-101
-101
-100
-101
-102
-102
-102
-102
-101
-101
-102
-101
-102
-100
-100
-100
-100
-100
-99
-99
-99
-99
-99
-99
-99
-99
-99
-98
-99
-99
-99
-99
-99
-99
-99
-100
-100
-100
-100
-101
-100
-100
-100
-100
-101
-100
-100
-99
-99
-99
-99
-100
-100
-100
-100
-100
-100
-101
-100
-100
-100
-100
-99
-100
-101
-100
-100
-101
-101
-102
-102
-103
-103
-104
-103
-103
-104
-104
-105
-105
-105
-104
-105
-105
-106
-106
-106
-105
-105
-105
-105
-105
-105
-105
-105
-104
-104
-105
-104
-103
-103
-102
-102
-102
-103
-102
-102
-100
-100
-100
-100
-100
-100
-100
-100
-100
-102
-102
-102
-103
-103
-102
-103
-103
-104
-104
-104
-104
-104
-104
-104
-105
-105
-105
-104
-104
-105
-105
-105
-105
-105
-104
-104
-104
-104
-105
-103
-103
-103
-103
-103
-103
-103
-103
-102
-102
-103
-103
-102
-103
-102
-103
-102
-103
-104
-104
-103
-103
-104
-104
-104
-105
-104
-105
-106
-106
-106
-106
-107
-106
-105
-105
-105
-106
-106
-106
-106
-105
-104
-104
-104
-104
-104
-104
-104
-104
-104
-104
-104
-104
-104
-104
-104
-105
-105
-104
-104
-103
-103
-102
-103
-103
-102
-101
-101
-102
-102
-102
-101
-101
-99
-99
-98
-98
-98
-98
-97
-96
-96
-95
-96
-96
-96
-95
-94
-93
-93
-93
-93
-93
-92
-91
-92
-93
-93
-94
-93
-94
-94
-95
-96
-97
-97
-97
-97
-98
-99
-99
-100
-101
-100
-101
-101
-101
-100
-101
-100
-100
-100
-100
-100
-100
-100
-99
-99
-99
-100
-99
-99
-100
-99
-100
-100
-100
-100
-101
-100
-101
-100
-101
-102
-102
-102
-102
-101
-101
-102
-102
-103
-103
-102
-102
-101
-103
-102
-103
-102
-101
-102
-102
-102
-103
-103
-103
-103
-104
-104
-104
-104
-104
-104
-104
-105
-105
-105
-106
-105
-105
-105
-105
-105
-106
-105
-106
-105
-105
-106
-107
-107
-107
-106
-106
-106
-106
-106
-106
-105
-104
-104
-103
-103
-102
-101
-101
-99
-98
-98
-96
-94
-92
-90
-88
-85
-83
-80
-78
-74
-70
-67
-64
-61
-59
-57
-54
-52
-51
-51
-51
-52
-53
-55
-57
-61
-67
-73
-79
-87
-94
-102
-111
-121
-131
-139
-148
-157
-165
-175
-184
-192
-200
-208
-214
-220
-226
-231
-237
-241
-244
-248
-251
-255
-256
-258
-259
-259
-259
-260
-259
-258
-256
-253
-250
-246
-242
-237
-233
-227
-221
-215
-208
-202
-195
-188
-181
-173
-167
-161
-155
-149
-143
-138
-132
-128
-124
-120
-116
-113
-109
-106
-104
-103
-101
-100
-99
-98
-96
-97
-96
-95
-95
-93
-92
-92
-93
-92
-92
-91
-90
-90
-90
-89
-89
-89
-88
-87
-87
-87
-88
-87
-87
-87
-85
-86
-86
-86
-86
-87
-86
-87
-86
-86
-87
-86
-86
-85
-85
-85
-84
-84
-83
-82
-81
-80
-80
-79
-78
-76
-75
-75
-75
-74
-74
-74
-73
-73
-73
-73
-73
-74
-74
-74
-75
-75
-76
-77
-77
-77
-77
-77
-78
-79
-78
-79
-79
-79
-79
-79
-79
-79
-78
-78
-77
-76
-76
-76
-75
-75
-73
-72
-73
-73
-72
-72
-72
-71
-70
-70
-70
-70
-70
-69
-69
-69
-69
-70
-69
-69
-68
-67
-67
-67
-67
-67
-66
-66
-66
-66
-66
-65
-65
-64
-64
-63
-63
-63
-63
-62
-62
-62
-62
-63
-62
-62
-61
-61
-60
-61
-62
-62
-62
-61
-61
-61
-60
-61
-60
-59
-58
-58
-57
-57
-56
-55
-55
-54
-53
-53
-52
-52
-52
-51
-50
-50
-50
-49
-49
-49
-49
-48
-48
-48
-49
-48
-48
-48
-48
-47
-47
-47
-46
-45
-44
-43
-43
-43
-42
-41
-40
-39
-38
-38
-38
-37
-36
-35
-35
-34
-34
-33
-32
-31
-29
-29
-29
-28
-28
-26
-25
-24
-23
-23
-23
-23
-22
-21
-21
-21
-21
-21
-21
-21
-20
-20
-20
-20
-20
-20
-20
-19
-20
-19
-20
-20
-19
-18
-18
-18
-18
-19
-18
-18
-17
-18
-17
-18
-18
-18
-18
-19
-19
-19
-20
-20
-20
-21
-21
-22
-24
-25
-26
-26
-27
-28
-30
-31
-32
-32
-33
-34
-35
-37
-39
-40
-41
-42
-43
-44
-46
-47
-47
-48
-49
-49
-50
-51
-52
-52
-53
-54
-56
-57
-58
-60
-60
-60
-61
-63
-64
-65
-66
-67
-68
-70
-71
-72
-73
-73
-73
-74
-75
-77
-78
-79
-79
-79
-80
-81
-81
-82
-83
-83
-82
-83
-84
-85
-85
-85
-85
-86
-85
-86
-87
-87
-87
-87
-87
-89
-89
-89
-89
-89
-89
-89
-89
-89
-89
-90
-89
-89
-89
-90
-90
-90
-91
-90
-91
-90
-91
-91
-91
-91
-90
-90
-91
-91
-91
-90
-90
-89
-89
-89
-90
-90
-89
-89
-90
-90
-91
-92
-92
-93
-92
-93
-94
-94
-94
-96
-95
-95
-96
-96
-97
-97
-97
-96
-96
-97
-97
-97
-97
-96
-95
-95
-95
-95
-95
-95
-95
-94
-94
-93
-94
-93
-93
-93
-92
-93
-92
-93
-93
-92
-91
-91
-92
-92
-92
-91
-91
-90
-90
-91
-91
-91
-91
-90
-90
-90
-91
-90
-89
-89
-89
-89
-90
-90
-91
-90
-89
-89
-89
-89
-90
-89
-90
-89
-90
-90
-90
-90
-90
-90
-90
-90
-90
-91
-90
-90
-89
-90
-90
-91
-91
-92
-91
-91
-90
-92
-92
-91
-91
-91
-90
-91
-91
-90
-90
-89
-89
-89
-89
-90
-90
-90
-90
-89
-89
-90
-90
-90
-90
-91
-90
-90
-91
-92
-91
-91
-91
-91
-91
-91
-92
-91
-90
-89
-89
-90
-90
-90
-90
-88
-89
-89
-88
-89
-89
-89
-88
-89
-89
-89
-89
-89
-90
-90
-91
-91
-91
-92
-92
-92
-91
-91
-91
-91
-91
-91
-90
-91
-91
-90
-91
-90
-90
-90
-90
-91
-91
-91
-91
-91
-91
-91
-91
-92
-92
-92
-90
-91
-92
-91
-91
-91
-91
-90
-89
-90
-90
-91
-91
-90
-90
-90
-90
-91
-90
-90
-89
-90
-90
-91
-92
-91
-91
-91
-90
-91
-91
-92
-92
-91
-91
-91
-91
-91
-91
-91
-91
-91
-91
-91
-92
-92
-91
-92
-92
-92
-92
-93
-92
-91
-91
-91
-92
-91
-92
-91
-90
-90
-90
-89
-90
-90
-89
-88
-89
-89
-89
-89
-89
-88
-87
-88
-88
-89
-89
-89
-89
-88
-88
-89
-90
-91
-90
-90
-90
-91
-90
-91
-91
-90
-91
-92
-92
-92
-91
-92
-92
-92
-92
-92
-93
-92
-93
-93
-93
-93
-92
-92
-92
-92
-91
-91
-91
-91
-90
-90
-88
-89
-89
-88
-88
-88
-88
-87
-88
-88
-88
-88
-88
-87
-88
-89
-89
-89
-90
-90
-89
-90
-90
-90
-91
-90
-90
-90
-91
-91
-92
-91
-92
-92
-91
-90
-91
-90
-91
-90
-89
-89
-89
-89
-90
-90
-90
-89
-89
-90
-91
-90
-90
-91
-90
-91
-92
-91
-92
-91
-92
-92
-91
-93
-92
-93
-92
-92
-91
-91
-92
-92
-92
-91
-92
-92
-93
-92
-92
-91
-91
-90
-90
-91
-91
-91
-90
-90
-89
-89
-89
-89
-89
-88
-88
-88
-88
-88
-88
-88
-87
-88
-88
-89
-89
-89
-90
-90
-90
-90
-92
-92
-92
-92
-93
-92
-92
-92
-93
-92
-92
-91
-91
-92
-92
-92
-91
-91
-91
-90
-91
-91
-90
-89
-89
-89
-88
-89
-88
-88
-88
-87
-88
-88
-88
-88
-87
-87
-87
-87
-88
-88
-88
-87
-87
-88
-89
-89
-89
-89
-90
-90
-90
-90
-91
-91
-91
-91
-92
-92
-93
-93
-93
-93
-93
-93
-93
-93
-94
-92
-92
-91
-91
-91
-90
-90
-90
-90
-90
-90
-90
-91
-90
-89
-90
-90
-90
-91
-91
-91
-91
-91
-91
-91
-91
-92
-92
-92
-92
-93
-92
-92
-91
-91
-90
-90
-91
-90
-90
-89
-89
-88
-88
-89
-89
-89
-88
-88
-88
-88
-89
-88
-89
-88
-89
-88
-88
-89
-89
-88
-88
-88
-89
-90
-90
-91
-91
-90
-90
-90
-92
-92
-92
-93
-93
-92
-93
-94
-94
-93
-93
-93
-93
-93
-93
-93
-93
-93
-93
-93
-93
-93
-93
-93
-93
-93
-93
-93
-92
-92
-91
-91
-90
-91
-90
-89
-89
-89
-88
-87
-88
-87
-86
-86
-85
-86
-85
-85
-86
-85
-84
-85
-85
-85
-85
-85
-85
-85
-85
-84
-85
-84
-84
-83
-82
-83
-83
-83
-83
-82
-81
-81
-81
-81
-80
-80
-79
-79
-79
-79
-80
-80
-80
-81
-81
-82
-82
-83
-83
-83
-84
-84
-84
-85
-86
-87
-88
-88
-88
-89
-89
-89
-88
-88
-87
-87
-88
-87
-87
-86
-86
-85
-85
-85
-85
-85
-86
-85
-85
-86
-86
-87
-86
-86
-86
-86
-86
-87
-87
-87
-87
-87
-87
-87
-88
-88
-88
-88
-89
-89
-89
-90
-90
-90
-90
-90
-90
-91
-91
-91
-91
-91
-91
-91
-91
-91
-91
-91
-91
-90
-91
-90
-90
-89
-89
-89
-89
-89
-89
-89
-88
-88
-88
-89
-90
-89
-89
-88
-88
-88
-88
-88
-88
-87
-87
-87
-87
-87
-86
-85
-83
-82
-81
-79
-79
-77
-75
-72
-70
-68
-66
-63
-60
-57
-54
-51
-49
-47
-46
-44
-43
-42
-43
-44
-46
-49
-51
-56
-61
-68
-75
-83
-91
-99
-109
-118
-129
-139
-149
-158
-167
-177
-186
-195
-203
-211
-217
-223
-229
-233
-238
-242
-244
-246
-248
-250
-250
-250
-251
-249
-247
-245
-244
-241
-238
-235
-230
-227
-223
-218
-214
-208
-202
-197
-191
-185
-179
-174
-168
-162
-155
-150
-144
-139
-134
-129
-125
-120
-115
-111
-107
-103
-100
-97
-94
-93
-91
-89
-87
-85
-83
-82
-82
-82
-81
-81
-81
-80
-79
-80
-79
-79
-79
-78
-77
-77
-77
-77
-77
-77
-77
-77
-77
-77
-78
-77
-77
-77
-77
-78
-78
-78
-78
-78
-78
-77
-77
-77
-77
-76
-74
-73
-72
-72
-72
-71
-71
-71
-70
-71
-70
-70
-70
-69
-69
-69
-69
-69
-70
-70
-71
-71
-71
-71
-72
-72
-72
-72
-71
-71
-71
-70
-70
-70
-68
-68
-67
-67
-67
-66
-66
-66
-65
-65
-66
-65
-65
-65
-65
-66
-66
-66
-67
-67
-67
-66
-68
-67
-67
-67
-67
-67
-67
-67
-66
-66
-65
-65
-64
-65
-65
-65
-64
-64
-64
-64
-64
-65
-64
-63
-64
-63
-63
-64
-64
-64
-64
-63
-64
-63
-63
-63
-62
-62
-61
-61
-61
-61
-60
-59
-57
-57
-56
-56
-56
-55
-54
-54
-54
-54
-54
-53
-53
-53
-53
-52
-52
-53
-53
-52
-52
-52
-51
-52
-51
-51
-50
-50
-49
-49
-48
-48
-47
-46
-46
-45
-45
-45
-44
-43
-42
-42
-43
-43
-42
-41
-40
-40
-40
-40
-40
-39
-39
-38
-37
-37
-36
-36
-34
-34
-32
-32
-31
-31
-31
-31
-30
-28
-28
-28
-28
-28
-27
-26
-26
-26
-26
-25
-25
-24
-24
-25
-25
-25
-25
-25
-25
-24
-24
-25
-26
-26
-27
-26
-26
-26
-26
-26
-26
-25
-25
-25
-25
-26
-26
-26
-26
-26
-25
-26
-27
-27
-27
-27
-27
-29
-30
-30
-31
-32
-32
-32
-33
-34
-35
-36
-36
-36
-36
-37
-38
-39
-40
-40
-41
-42
-43
-43
-44
-45
-45
-46
-47
-49
-50
-51
-52
-53
-54
-55
-57
-56
-58
-58
-59
-60
-61
-62
-63
-63
-63
-64
-66
-66
-67
-68
-68
-69
-70
-72
-73
-74
-75
-76
-76
-77
-78
-78
-79
-79
-79
-80
-81
-82
-83
-83
-84
-83
-84
-85
-86
-86
-86
-86
-86
-87
-87
-88
-89
-89
-89
-90
-91
-91
-92
-92
-92
-92
-92
-93
-94
-94
-93
-93
-93
-93
-94
-94
-94
-94
-92
-93
-93
-94
-93
-93
-92
-93
-92
-92
-92
-92
-91
-92
-91
-92
-91
-91
-90
-89
-89
-89
-89
-89
-89
-89
-89
-89
-89
-89
-89
-90
-90
-90
-90
-91
-91
-91
-91
-91
-91
-92
-92
-93
-93
-93
-93
-93
-93
-93
-94
-93
-93
-93
-92
-92
-93
-92
-92
-91
-91
-91
-90
-91
-90
-90
-90
-90
-90
-90
-91
-91
-90
-91
-90
-90
-90
-90
-90
-90
-89
-90
-90
-90
-90
-89
-89
-88
-89
-88
-89
-88
-88
-87
-86
-87
-87
-87
-87
-86
-87
-87
-87
-87
-88
-87
-87
-87
-88
-88
-88
-88
-88
-88
-88
-89
-89
-88
-89
-88
-88
-87
-87
-88
-88
-88
-87
-87
-87
-88
-87
-87
-87
-87
-87
-87
-88
-88
-89
-88
-89
-89
-90
-91
-90
-91
-91
-91
-92
-93
-93
-93
-93
-94
-94
-93
-94
-94
-94
-92
-93
-93
-92
-92
-93
-92
-92
-92
-91
-91
-91
-91
-90
-89
-89
-90
-90
-90
-90
-90
-90
-90
-90
-90
-90
-90
-90
-90
-91
-92
-92
-93
-94
-93
-93
-93
-93
-93
-93
-93
-93
-93
-94
-93
-94
-93
-92
-92
-92
-92
-91
-91
-91
-90
-90
-91
-90
-90
-90
-89
-88
-89
-89
-90
-91
-91
-90
-91
-91
-92
-93
-94
-94
-94
-94
-95
-96
-96
-97
-96
-97
-97
-98
-98
-98
-97
-97
-97
-96
-97
-97
-97
-97
-97
-97
-97
-97
-98
-98
-97
-97
-97
-98
-98
-99
-99
-99
-99
-99
-99
-99
-99
-98
-97
-96
-96
-96
-95
-95
-94
-93
-93
-93
-93
-92
-92
-92
-92
-92
-92
-93
-94
-94
-93
-94
-95
-94
-94
-94
-95
-94
-95
-96
-97
-97
-97
-98
-97
-97
-97
-97
-97
-95
-95
-95
-94
-95
-94
-94
-94
-93
-94
-93
-94
-95
-94
-94
-94
-95
-96
-97
-97
-98
-98
-98
-99
-99
-99
-99
-100
-99
-100
-101
-100
-100
-99
-99
-98
-98
-97
-98
-96
-96
-95
-94
-95
-95
-95
-93
-93
-93
-93
-93
-93
-93
-93
-94
-94
-94
-95
-96
-96
-96
-96
-97
-96
-97
-98
-99
-98
-99
-99
-99
-99
-99
-99
-99
-99
-99
-99
-99
-99
-99
-97
-98
-97
-97
-97
-97
-95
-95
-95
-95
-95
-95
-94
-94
-95
-94
-95
-95
-96
-96
-95
-95
-95
-96
-97
-97
-97
-97
-97
-99
-99
-99
-99
-99
-99
-99
-99
-99
-99
-99
-98
-99
-98
-98
-99
-99
-99
-98
-97
-97
-97
-98
-97
-96
-97
-97
-97
-98
-98
-97
-97
-97
-97
-97
-98
-97
-98
-97
-97
-97
-98
-98
-99
-99
-99
-100
-101
-100
-101
-101
-100
-100
-100
-100
-100
-100
-99
-98
-99
-98
-98
-98
-97
-97
-97
-97
-97
-96
-96
-96
-96
-96
-95
-96
-96
-96
-96
-96
-97
-97
-98
-98
-98
-98
-98
-99
-100
-100
-100
-99
-100
-100
-100
-101
-100
-100
-99
-100
-99
-100
-100
-100
-99
-99
-100
-99
-100
-100
-99
-100
-99
-99
-99
-99
-99
-98
-98
-98
-98
-98
-100
-99
-99
-99
-99
-98
-99
-100
-99
-99
-99
-99
-99
-99
-99
-99
-99
-99
-98
-98
-99
-99
-99
-98
-97
-98
-97
-97
-97
-96
-96
-96
-95
-96
-95
-94
-94
-93
-93
-93
-93
-93
-92
-92
-91
-91
-92
-92
-92
-92
-91
-91
-91
-92
-92
-92
-92
-92
-92
-94
-94
-95
-95
-95
-95
-96
-96
-97
-96
-96
-96
-96
-97
-96
-96
-96
-95
-94
-93
-94
-94
-93
-93
-92
-92
-92
-91
-92
-91
-91
-91
-91
-91
-91
-91
-92
-91
-91
-92
-92
-94
-93
-94
-94
-94
-95
-96
-96
-97
-97
-97
-96
-97
-97
-97
-97
-98
-97
-97
-98
-99
-99
-99
-99
-99
-99
-100
-100
-99
-99
-99
-99
-99
-99
-99
-99
-97
-98
-97
-97
-98
-97
-97
-97
-95
-96
-96
-96
-96
-97
-96
-96
-96
-96
-96
-95
-95
-94
-95
-95
-95
-94
-94
-93
-93
-92
-92
-92
-91
-89
-89
-87
-85
-84
-82
-80
-78
-75
-73
-70
-69
-67
-64
-61
-60
-58
-57
-57
-57
-57
-58
-59
-63
-65
-69
-74
-80
-85
-93
-101
-110
-118
-128
-137
-147
-157
-167
-176
-185
-193
-200
-207
-215
-222
-229
-234
-239
-243
-246
-250
-252
-254
-254
-254
-255
-254
-253
-253
-252
-250
-249
-247
-244
-240
-237
-233
-228
-223
-219
-214
-209
-204
-198
-191
-185
-179
-173
-168
-161
-155
-149
-142
-137
-131
-125
-121
-115
-110
-106
-103
-100
-97
-94
-91
-89
-87
-85
-85
-83
-82
-82
-81
-80
-81
-79
-79
-78
-79
-79
-80
-80
-81
-80
-81
-80
-80
-81
-82
-81
-81
-80
-80
-80
-80
-80
-79
-78
-78
-78
-77
-77
-77
-76
-75
-75
-74
-75
-74
-74
-74
-73
-73
-74
-73
-73
-72
-72
-71
-72
-71
-72
-73
-73
-72
-72
-72
-71
-72
-72
-71
-71
-71
-71
-71
-71
-70
-70
-70
-69
-70
-69
-69
-69
-67
-68
-67
-68
-68
-68
-68
-67
-67
-67
-67
-67
-67
-67
-68
-68
-69
-69
-69
-68
-68
-67
-67
-67
-68
-67
-66
-66
-65
-65
-65
-64
-63
-62
-62
-60
-61
-60
-60
-60
-58
-58
-59
-59
-59
-59
-59
-58
-57
-58
-58
-58
-57
-57
-56
-57
-57
-56
-56
-55
-55
-55
-54
-54
-53
-53
-52
-52
-52
-50
-50
-51
-49
-49
-48
-48
-48
-48
-48
-47
-46
-46
-46
-46
-47
-47
-45
-45
-45
-45
-44
-45
-43
-43
-42
-42
-42
-42
-41
-40
-40
-39
-39
-39
-38
-37
-37
-36
-35
-35
-34
-33
-32
-32
-31
-30
-30
-29
-29
-28
-27
-26
-26
-26
-26
-25
-25
-23
-23
-22
-21
-20
-19
-18
-17
-17
-17
-17
-17
-16
-15
-14
-14
-14
-14
-14
-13
-12
-12
-12
-13
-14
-13
-13
-13
-13
-13
-13
-14
-14
-13
-13
-14
-15
-15
-15
-15
-13
-14
-14
-14
-14
-13
-12
-13
-13
-13
-14
-13
-14
-13
-13
-14
-15
-16
-15
-16
-17
-17
-19
-19
-20
-21
-21
-22
-23
-24
-26
-26
-27
-27
-28
-30
-30
-32
-32
-33
-33
-35
-36
-37
-37
-38
-39
-41
-42
-43
-46
-47
-48
-49
-50
-52
-54
-55
-56
-57
-57
-58
-59
-60
-60
-61
-61
-61
-62
-63
-63
-63
-63
-63
-64
-64
-65
-65
-66
-66
-66
-67
-68
-70
-70
-70
-71
-71
-72
-72
-72
-73
-73
-73
-74
-74
-75
-76
-76
-76
-75
-75
-75
-75
-76
-75
-75
-75
-75
-75
-76
-76
-76
-75
-76
-76
-77
-77
-77
-77
-77
-77
-78
-78
-79
-79
-79
-78
-78
-78
-80
-79
-80
-81
-80
-81
-82
-82
-82
-82
-81
-81
-80
-80
-79
-79
-78
-77
-77
-78
-78
-78
-77
-77
-77
-77
-77
-77
-77
-77
-76
-76
-76
-77
-77
-77
-77
-76
-77
-77
-78
-78
-77
-77
-77
-77
-78
-78
-78
-78
-78
-78
-78
-79
-80
-80
-80
-80
-80
-80
-81
-81
-81
-80
-80
-81
-81
-81
-81
-81
-81
-81
-81
-81
-81
-80
-79
-78
-79
-79
-79
-79
-78
-78
-78
-78
-78
-78
-78
-77
-77
-77
-78
-78
-77
-76
-76
-76
-76
-76
-76
-77
-77
-77
-77
-78
-78
-79
-80
-80
-79
-80
-80
-81
-81
-81
-81
-80
-81
-81
-82
-82
-82
-82
-81
-82
-81
-82
-81
-81
-80
-81
-81
-81
-81
-80
-80
-79
-79
-80
-80
-81
-81
-80
-81
-82
-82
-82
-81
-82
-80
-81
-81
-82
-82
-81
-81
-81
-81
-82
-82
-82
-82
-81
-80
-81
-82
-81
-82
-82
-82
-82
-82
-83
-84
-83
-84
-84
-84
-86
-86
-86
-86
-86
-86
-88
-88
-88
-88
-88
-87
-88
-88
-88
-88
-87
-87
-86
-87
-87
-87
-87
-86
-86
-86
-86
-87
-87
-87
-87
-86
-86
-86
-86
-86
-86
-85
-86
-85
-86
-87
-87
-87
-87
-87
-87
-88
-89
-89
-88
-88
-89
-88
-89
-88
-88
-87
-87
-86
-87
-86
-86
-86
-85
-85
-85
-85
-85
-85
-85
-84
-84
-85
-86
-86
-86
-86
-87
-87
-87
-88
-89
-89
-89
-89
-90
-91
-91
-91
-91
-91
-91
-91
-92
-92
-92
-92
-92
-93
-93
-93
-94
-93
-93
-93
-93
-94
-95
-94
-94
-94
-94
-95
-95
-95
-94
-95
-95
-94
-95
-96
-95
-94
-95
-94
-94
-94
-95
-95
-95
-94
-94
-94
-94
-94
-93
-93
-92
-92
-93
-93
-93
-92
-92
-92
-92
-92
-93
-93
-93
-94
-94
-95
-96
-96
-97
-96
-96
-97
-98
-99
-99
-99
-99
-99
-99
-100
-101
-100
-100
-100
-100
-100
-100
-99
-99
-98
-98
-98
-98
-99
-99
-98
-99
-99
-98
-98
-98
-98
-97
-97
-98
-98
-99
-98
-98
-97
-97
-98
-98
-98
-98
-98
-97
-97
-97
-98
-98
-98
-98
-97
-98
-98
-99
-99
-99
-98
-98
-99
-99
-100
-100
-100
-100
-100
-100
-101
-101
-101
-101
-101
-100
-101
-101
-101
-101
-101
-101
-101
-101
-102
-102
-102
-101
-101
-102
-102
-102
-102
-101
-101
-101
-100
-101
-101
-101
-100
-101
-101
-100
-101
-101
-101
-101
-102
-102
-103
-103
-104
-103
-103
-104
-103
-104
-105
-105
-104
-104
-105
-105
-105
-105
-105
-105
-104
-104
-105
-105
-104
-104
-104
-104
-105
-106
-106
-105
-104
-104
-104
-104
-105
-105
-105
-104
-104
-105
-105
-105
-104
-104
-103
-103
-104
-104
-104
-104
-104
-104
-104
-104
-105
-105
-106
-105
-105
-106
-106
-106
-106
-106
-105
-104
-105
-105
-105
-104
-103
-103
-103
-103
-103
-104
-103
-103
-104
-104
-105
-104
-104
-104
-103
-103
-104
-105
-105
-105
-105
-105
-105
-105
-105
-105
-105
-105
-105
-105
-106
-106
-106
-106
-106
-106
-106
-106
-106
-105
-105
-104
-104
-104
-104
-105
-104
-103
-102
-103
-102
-103
-102
-101
-101
-100
-102
-101
-101
-101
-101
-101
-102
-102
-103
-103
-102
-102
-102
-103
-103
-103
-103
-102
-102
-101
-101
-101
-101
-100
-99
-98
-98
-98
-97
-97
-97
-96
-97
-96
-98
-98
-98
-99
-98
-99
-100
-101
-102
-103
-103
-104
-105
-106
-107
-108
-108
-108
-108
-109
-109
-109
-108
-108
-108
-107
-108
-107
-107
-106
-105
-105
-105
-105
-106
-105
-105
-105
-105
-104
-104
-104
-104
-104
-104
-104
-104
-105
-104
-104
-104
-104
-104
-104
-105
-105
-105
-105
-106
-106
-107
-107
-107
-107
-107
-108
-107
-108
-109
-108
-107
-108
-108
-109
-109
-108
-108
-108
-108
-108
-109
-109
-109
-109
-109
-109
-109
-109
-110
-110
-109
-110
-111
-111
-112
-112
-112
-111
-111
-111
-112
-112
-112
-111
-112
-111
-111
-111
-111
-110
-109
-108
-108
-107
-106
-105
-103
-99
-98
-96
-93
-91
-89
-86
-83
-80
-78
-76
-75
-73
-73
-71
-72
-73
-75
-77
-80
-83
-88
-93
-100
-108
-114
-122
-130
-139
-149
-157
-166
-175
-183
-191
-199
-207
-215
-222
-228
-233
-239
-244
-248
-252
-255
-257
-259
-260
-263
-263
-264
-263
-263
-262
-261
-260
-258
-256
-252
-249
-245
-242
-238
-233
-228
-222
-215
-209
-202
-196
-189
-182
-175
-169
-164
-158
-152
-147
-141
-137
-132
-129
-125
-122
-120
-116
-114
-112
-112
-110
-109
-108
-107
-106
-106
-106
-105
-105
-104
-103
-103
-102
-102
-102
-101
-100
-99
-98
-98
-97
-98
-96
-96
-96
-95
-94
-95
-95
-94
-94
-94
-94
-95
-94
-95
-95
-95
-95
-95
-97
-97
-96
-95
-95
-95
-95
-95
-94
-94
-93
-93
-93
-93
-93
-92
-92
-90
-90
-90
-89
-89
-88
-87
-87
-87
-88
-88
-88
-87
-87
-88
-88
-88
-88
-89
-88
-88
-88
-88
-88
-89
-88
-88
-87
-87
-87
-87
-86
-86
-84
-84
-84
-84
-84
-84
-84
-83
-83
-83
-84
-83
-83
-83
-82
-83
-83
-83
-84
-84
-83
-84
-84
-85
-84
-84
-84
-82
-82
-82
-82
-81
-80
-79
-79
-79
-78
-78
-77
-78
-77
-76
-77
-76
-77
-76
-76
-75
-75
-75
-75
-75
-74
-74
-74
-73
-74
-74
-73
-73
-72
-71
-71
-71
-70
-69
-69
-68
-67
-67
-67
-66
-65
-64
-64
-64
-63
-63
-62
-61
-60
-59
-59
-59
-59
-58
-57
-56
-56
-56
-56
-55
-54
-52
-53
-52
-52
-52
-51
-50
-49
-49
-49
-48
-47
-47
-45
-45
-45
-44
-44
-43
-42
-42
-41
-41
-41
-41
-41
-39
-38
-38
-38
-39
-38
-38
-36
-35
-34
-33
-32
-32
-31
-30
-29
-29
-28
-28
-28
-27
-26
-26
-27
-27
-27
-27
-27
-27
-27
-28
-28
-29
-29
-29
-28
-28
-29
-30
-29
-29
-29
-29
-28
-29
-29
-29
-28
-28
-28
-29
-29
-29
-29
-29
-29
-30
-30
-31
-31
-32
-33
-34
-35
-37
-38
-39
-40
-42
-42
-43
-46
-46
-47
-47
-49
-50
-51
-52
-54
-54
-55
-56
-56
-57
-59
-60
-60
-60
-62
-63
-64
-65
-66
-67
-68
-70
-71
-73
-75
-76
-77
-79
-80
-82
-83
-84
-85
-85
-86
-88
-88
-90
-89
-90
-90
-91
-92
-93
-94
-94
-93
-94
-95
-96
-96
-96
-97
-97
-97
-98
-99
-99
-99
-99
-99
-99
-99
-101
-101
-101
-101
-101
-101
-101
-102
-101
-100
-100
-100
-100
-100
-101
-100
-100
-100
-101
-100
-101
-100
-100
-100
-101
-101
-102
-103
-103
-102
-103
-103
-103
-104
-104
-104
-104
-104
-104
-104
-104
-105
-105
-105
-105
-105
-105
-106
-105
-105
-105
-105
-105
-106
-106
-105
-105
-104
-104
-104
-105
-105
-104
-104
-104
-104
-104
-105
-105
-104
-105
-105
-104
-105
-105
-104
-104
-104
-103
-104
-104
-104
-103
-104
-103
-103
-103
-103
-103
-103
-102
-103
-103
-103
-104
-104
-105
-105
-106
-107
-107
-108
-108
-107
-108
-108
-108
-109
-108
-108
-107
-107
-108
-107
-107
-107
-106
-106
-105
-105
-105
-105
-104
-104
-104
-104
-104
-105
-104
-104
-104
-104
-104
-105
-105
-105
-105
-105
-106
-106
-107
-107
-107
-107
-107
-107
-107
-108
-108
-107
-107
-107
-107
-107
-107
-106
-105
-105
-105
-105
-105
-105
-104
-105
-104
-104
-104
-104
-104
-103
-103
-103
-103
-103
-103
-103
-102
-103
-103
-104
-104
-104
-105
-105
-105
-105
-106
-106
-106
-107
-107
-107
-107
-109
-109
-108
-107
-107
-107
-108
-108
-108
-108
-107
-107
-108
-108
-108
-107
-107
-107
-107
-107
-108
-108
-107
-108
-107
-108
-108
-109
-108
-108
-109
-108
-108
-109
-109
-108
-109
-108
-109
-109
-109
-109
-109
-108
-108
-109
-109
-110
-109
-109
-110
-110
-110
-111
-111
-111
-111
-111
-111
-111
-111
-111
-111
-111
-110
-110
-111
-111
-111
-110
-111
-111
-110
-111
-110
-110
-109
-109
-109
-109
-110
-109
-108
-108
-108
-107
-107
-106
-107
-106
-106
-106
-106
-107
-107
-107
-107
-107
-108
-109
-108
-109
-108
-108
-109
-109
-110
-111
-111
-111
-110
-111
-111
-112
-112
-111
-111
-111
-111
-112
-111
-111
-110
-110
-109
-109
-110
-110
-109
-110
-108
-109
-109
-109
-108
-108
-108
-107
-108
-107
-108
-107
-107
-106
-106
-106
-107
-107
-107
-106
-106
-105
-106
-106
-106
-105
-106
-105
-105
-105
-106
-106
-106
-107
-107
-107
-108
-108
-109
-109
-109
-110
-110
-111
-112
-112
-112
-111
-111
-112
-111
-112
-111
-111
-111
-111
-112
-113
-112
-111
-111
-111
-111
-112
-112
-112
-111
-111
-111
-111
-111
-111
-110
-110
-109
-110
-109
-110
-110
-109
-109
-109
-109
-109
-109
-109
-109
-109
-108
-109
-109
-109
-109
-109
-109
-109
-109
-109
-110
-108
-109
-109
-110
-109
-109
-110
-109
-108
-108
-108
-108
-109
-108
-108
-108
-109
-109
-109
-109
-109
-109
-109
-109
-110
-110
-110
-109
-109
-109
-109
-110
-110
-108
-108
-107
-108
-108
-107
-107
-107
-106
-106
-106
-107
-107
-107
-107
-107
-107
-107
-108
-108
-107
-107
-108
-108
-109
-109
-111
-110
-110
-110
-110
-110
-111
-110
-109
-108
-108
-110
-109
-110
-109
-109
-108
-109
-108
-109
-109
-109
-108
-108
-108
-109
-109
-108
-108
-108
-107
-107
-107
-107
-106
-107
-106
-106
-107
-106
-107
-107
-106
-106
-107
-107
-108
-107
-107
-107
-108
-108
-108
-108
-108
-108
-108
-108
-108
-108
-108
-107
-107
-107
-107
-107
-107
-107
-106
-106
-106
-106
-106
-106
-106
-105
-104
-105
-106
-105
-106
-106
-105
-106
-107
-107
-108
-108
-107
-107
-108
-108
-109
-109
-108
-109
-109
-110
-111
-110
-111
-109
-110
-109
-110
-110
-110
-109
-109
-108
-109
-108
-108
-108
-107
-106
-106
-105
-105
-105
-105
-104
-104
-104
-105
-105
-105
-104
-104
-103
-104
-104
-104
-103
-104
-103
-102
-103
-103
-103
-103
-104
-103
-103
-103
-103
-103
-103
-102
-102
-101
-102
-101
-101
-101
-100
-100
-99
-100
-100
-100
-99
-98
-98
-99
-99
-99
-99
-99
-99
-99
-100
-101
-101
-100
-101
-101
-103
-104
-105
-106
-106
-107
-108
-109
-109
-110
-110
-110
-110
-110
-110
-110
-111
-109
-109
-108
-108
-108
-107
-106
-106
-104
-104
-103
-103
-103
-103
-102
-102
-102
-102
-103
-103
-102
-102
-102
-103
-103
-103
-104
-104
-105
-104
-106
-106
-107
-107
-108
-108
-109
-110
-110
-110
-110
-109
-110
-111
-112
-112
-112
-112
-113
-113
-113
-113
-113
-113
-112
-112
-112
-112
-113
-113
-112
-112
-112
-112
-111
-112
-112
-112
-111
-112
-112
-113
-113
-113
-112
-112
-111
-112
-113
-113
-112
-111
-111
-111
-111
-110
-109
-108
-107
-106
-104
-103
-101
-99
-96
-94
-91
-88
-86
-83
-79
-77
-74
-73
-72
-71
-70
-70
-70
-71
-73
-75
-78
-82
-86
-90
-96
-103
-111
-118
-126
-134
-142
-150
-160
-168
-175
-184
-191
-200
-207
-215
-222
-228
-234
-240
-245
-249
-253
-257
-260
-263
-264
-267
-268
-270
-271
-270
-269
-268
-267
-264
-262
-258
-253
-249
-245
-239
-233
-227
-220
-213
-205
-199
-192
-185
-178
-172
-164
-158
-153
-146
-142
-136
-132
-127
-123
-120
-117
-113
-111
-109
-107
-105
-105
-103
-102
-101
-100
-100
-100
-100
-100
-100
-100
-100
-99
-100
-100
-100
-99
-99
-98
-99
-99
-100
-99
-98
-99
-99
-98
-99
-98
-98
-96
-96
-96
-96
-95
-95
-94
-94
-93
-93
-93
-93
-93
-92
-92
-92
-92
-92
-92
-91
-90
-90
-89
-90
-90
-89
-88
-88
-88
-87
-88
-88
-87
-87
-87
-87
-87
-88
-88
-87
-87
-87
-88
-88
-88
-88
-88
-88
-88
-88
-89
-89
-88
-88
-88
-88
-87
-87
-88
-87
-86
-85
-84
-85
-85
-84
-83
-83
-82
-82
-82
-82
-81
-81
-80
-80
-81
-80
-80
-80
-80
-80
-79
-80
-79
-79
-79
-78
-78
-79
-79
-79
-78
-77
-76
-77
-77
-77
-77
-76
-76
-75
-75
-75
-75
-75
-75
-73
-73
-73
-73
-74
-73
-72
-72
-71
-71
-70
-70
-70
-69
-69
-68
-69
-67
-67
-66
-65
-65
-64
-64
-64
-63
-62
-61
-61
-61
-60
-60
-59
-57
-56
-55
-55
-54
-53
-52
-51
-52
-51
-51
-51
-51
-50
-50
-50
-49
-50
-50
-49
-49
-48
-49
-48
-48
-47
-45
-45
-44
-43
-43
-42
-42
-40
-39
-38
-36
-36
-35
-34
-33
-31
-31
-31
-30
-30
-29
-28
-28
-28
-27
-28
-28
-27
-27
-27
-27
-27
-27
-27
-26
-27
-26
-27
-26
-26
-26
-25
-25
-25
-25
-25
-25
-24
-24
-24
-24
-24
-25
-25
-25
-25
-26
-26
-26
-27
-27
-26
-26
-27
-28
-29
-30
-30
-30
-31
-31
-32
-32
-32
-32
-33
-33
-34
-35
-35
-36
-36
-37
-39
-40
-41
-42
-43
-44
-45
-47
-48
-50
-51
-52
-54
-55
-58
-58
-60
-60
-61
-62
-63
-65
-67
-67
-68
-69
-70
-70
-71
-72
-73
-73
-73
-74
-75
-75
-76
-76
-77
-77
-79
-80
-80
-81
-81
-81
-82
-83
-84
-85
-86
-87
-88
-87
-88
-89
-89
-90
-90
-91
-90
-92
-93
-93
-93
-93
-93
-94
-95
-96
-96
-96
-95
-96
-95
-95
-95
-95
-95
-95
-96
-96
-96
-97
-96
-96
-95
-96
-96
-97
-96
-96
-96
-97
-97
-98
-97
-96
-96
-96
-96
-97
-97
-97
-96
-96
-96
-96
-96
-95
-95
-95
-94
-94
-94
-94
-94
-94
-94
-94
-95
-95
-96
-96
-95
-96
-96
-97
-97
-97
-97
-97
-98
-97
-98
-97
-97
-97
-96
-95
-95
-96
-96
-95
-94
-94
-93
-93
-93
-92
-93
-91
-92
-91
-91
-91
-91
-91
-91
-90
-91
-91
-92
-92
-92
-92
-93
-93
-94
-93
-94
-94
-93
-93
-94
-93
-93
-92
-92
-92
-92
-91
-91
-91
-90
-89
-89
-90
-90
-90
-90
-90
-90
-91
-91
-91
-91
-92
-91
-91
-92
-93
-93
-93
-94
-94
-94
-94
-95
-95
-95
-95
-94
-94
-94
-94
-93
-93
-93
-93
-94
-94
-95
-94
-94
-94
-94
-95
-95
-95
-95
-95
-95
-95
-95
-96
-95
-95
-95
-95
-96
-96
-96
-95
-95
-95
-94
-95
-96
-96
-96
-95
-95
-95
-95
-96
-96
-95
-95
-95
-96
-96
-96
-96
-97
-96
-97
-97
-98
-98
-98
-97
-97
-98
-98
-98
-99
-99
-98
-98
-98
-99
-99
-98
-98
-97
-97
-97
-98
-97
-97
-97
-96
-97
-97
-97
-97
-96
-95
-95
-96
-96
-96
-96
-97
-96
-96
-97
-98
-98
-97
-98
-97
-98
-99
-99
-98
-98
-98
-98
-99
-99
-99
-99
-99
-98
-99
-99
-99
-99
-100
-99
-100
-100
-100
-100
-100
-100
-99
-100
-100
-101
-101
-101
-100
-101
-101
-101
-101
-101
-100
-100
-99
-99
-100
-100
-99
-99
-99
-98
-99
-99
-99
-99
-99
-99
-99
-99
-100
-100
-100
-100
-99
-99
-99
-100
-100
-99
-99
-99
-99
-100
-100
-100
-99
-100
-99
-101
-101
-101
-102
-102
-101
-102
-102
-102
-102
-102
-101
-102
-102
-102
-103
-103
-102
-102
-103
-102
-103
-102
-102
-101
-101
-100
-101
-101
-101
-101
-101
-100
-101
-101
-101
-101
-101
-102
-102
-102
-103
-104
-103
-104
-104
-105
-105
-105
-105
-105
-103
-103
-104
-104
-104
-104
-104
-103
-103
-103
-103
-103
-102
-102
-101
-101
-101
-102
-102
-101
-101
-101
-101
-102
-102
-102
-102
-102
-103
-103
-105
-104
-104
-104
-104
-105
-104
-105
-105
-105
-105
-105
-105
-105
-106
-105
-105
-105
-105
-105
-105
-105
-105
-104
-104
-104
-105
-103
-103
-104
-104
-103
-103
-104
-104
-104
-104
-104
-105
-105
-105
-106
-106
-105
-106
-106
-107
-107
-107
-107
-107
-107
-107
-108
-107
-107
-106
-106
-106
-106
-106
-106
-106
-105
-105
-104
-104
-103
-103
-102
-102
-101
-102
-101
-102
-102
-101
-101
-102
-102
-103
-103
-103
-103
-102
-103
-104
-105
-105
-104
-105
-105
-105
-105
-105
-105
-104
-104
-104
-104
-104
-104
-104
-105
-104
-104
-105
-104
-104
-104
-105
-105
-105
-106
-106
-106
-106
-107
-107
-107
-108
-108
-108
-107
-107
-107
-107
-107
-106
-106
-105
-105
-106
-106
-106
-105
-104
-105
-104
-105
-104
-104
-103
-103
-102
-101
-102
-102
-102
-101
-102
-102
-102
-102
-103
-103
-103
-103
-104
-104
-105
-105
-105
-105
-105
-106
-106
-106
-106
-105
-105
-105
-105
-105
-105
-104
-104
-104
-103
-104
-104
-105
-104
-104
-103
-104
-104
-104
-104
-104
-104
-104
-104
-104
-104
-104
-103
-104
-104
-103
-104
-103
-104
-103
-102
-102
-102
-102
-102
-102
-101
-101
-101
-101
-102
-102
-101
-101
-102
-102
-103
-103
-103
-103
-103
-103
-104
-104
-105
-104
-103
-102
-103
-102
-102
-101
-101
-99
-99
-99
-99
-97
-97
-95
-94
-94
-93
-93
-93
-93
-93
-93
-93
-94
-95
-96
-97
-98
-98
-100
-101
-102
-103
-103
-104
-105
-105
-105
-106
-106
-105
-105
-106
-106
-107
-107
-107
-106
-107
-107
-106
-106
-106
-106
-106
-106
-106
-106
-106
-106
-106
-106
-106
-106
-106
-106
-105
-105
-105
-105
-104
-104
-105
-104
-104
-104
-105
-104
-104
-104
-104
-103
-104
-105
-106
-105
-106
-107
-106
-107
-108
-109
-108
-109
-109
-109
-110
-111
-110
-110
-110
-110
-110
-111
-111
-111
-110
-110
-110
-110
-110
-110
-110
-110
-110
-110
-110
-110
-110
-110
-110
-110
-110
-110
-110
-110
-110
-110
-110
-110
-109
-109
-108
-107
-107
-106
-106
-104
-102
-101
-98
-96
-94
-93
-90
-87
-84
-80
-77
-74
-72
-69
-66
-63
-61
-60
-58
-58
-58
-58
-59
-61
-65
-69
-74
-79
-85
-91
-99
-107
-115
-124
-134
-142
-151
-160
-168
-177
-186
-194
-202
-209
-216
-223
-229
-235
-241
-245
-250
-254
-257
-260
-263
-265
-266
-267
-268
-268
-268
-267
-265
-262
-259
-256
-252
-247
-242
-236
-231
-225
-219
-213
-206
-198
-191
-184
-178
-171
-164
-157
-150
-145
-139
-135
-129
-124
-121
-117
-114
-110
-109
-106
-104
-101
-101
-99
-98
-98
-97
-96
-96
-96
-96
-96
-96
-95
-96
-95
-96
-96
-96
-96
-96
-95
-94
-94
-94
-94
-93
-93
-92
-91
-90
-91
-90
-89
-88
-87
-87
-87
-86
-87
-85
-85
-84
-84
-84
-84
-84
-83
-83
-83
-84
-83
-85
-84
-84
-84
-85
-85
-85
-85
-85
-85
-85
-85
-86
-86
-85
-85
-85
-84
-84
-85
-85
-84
-83
-84
-83
-84
-83
-83
-82
-82
-82
-82
-81
-81
-81
-80
-80
-79
-79
-78
-77
-77
-76
-76
-76
-76
-76
-75
-75
-74
-73
-72
-72
-71
-71
-71
-70
-70
-71
-71
-71
-71
-70
-71
-71
-71
-71
-70
-70
-69
-69
-70
-69
-69
-69
-68
-67
-66
-66
-66
-65
-64
-64
-64
-64
-64
-64
-64
-63
-62
-62
-61
-62
-62
-61
-60
-59
-60
-60
-60
-60
-59
-58
-57
-56
-55
-55
-54
-54
-53
-52
-52
-52
-52
-52
-50
-50
-50
-49
-49
-49
-48
-48
-47
-47
-47
-47
-46
-46
-45
-44
-43
-42
-43
-41
-40
-39
-38
-38
-37
-37
-37
-36
-35
-34
-34
-34
-32
-31
-30
-29
-28
-28
-28
-26
-24
-23
-23
-21
-22
-20
-20
-19
-18
-17
-17
-17
-16
-16
-15
-14
-14
-13
-13
-13
-12
-12
-12
-12
-12
-12
-12
-12
-12
-11
-12
-12
-11
-10
-9
-9
-9
-9
-9
-9
-10
-9
-8
-9
-9
-9
-10
-9
-9
-10
-11
-11
-12
-12
-12
-13
-14
-14
-15
-16
-15
-15
-16
-17
-18
-19
-20
-20
-21
-22
-24
-24
-25
-26
-26
-26
-27
-28
-29
-30
-31
-32
-33
-34
-36
-37
-38
-39
-40
-41
-42
-44
-46
-46
-47
-48
-49
-51
-51
-52
-52
-53
-54
-55
-56
-57
-58
-59
-59
-60
-61
-62
-62
-63
-64
-64
-66
-66
-67
-69
-69
-70
-71
-72
-72
-73
-74
-74
-76
-76
-77
-78
-78
-79
-78
-78
-79
-79
-79
-79
-79
-79
-79
-79
-79
-79
-78
-78
-78
-78
-78
-79
-78
-78
-78
-78
-79
-79
-79
-79
-80
-80
-81
-81
-82
-83
-82
-83
-83
-84
-84
-85
-85
-85
-84
-84
-84
-84
-84
-83
-83
-82
-82
-82
-82
-82
-82
-82
-81
-82
-83
-82
-83
-82
-83
-82
-82
-83
-83
-82
-81
-81
-81
-82
-82
-81
-82
-81
-81
-81
-81
-82
-81
-81
-81
-80
-81
-81
-81
-81
-80
-80
-80
-80
-81
-80
-80
-79
-80
-79
-80
-79
-80
-79
-79
-79
-79
-80
-80
-80
-79
-80
-81
-81
-81
-81
-81
-81
-80
-80
-80
-81
-81
-81
-81
-81
-80
-81
-80
-80
-79
-79
-80
-80
-81
-81
-81
-81
-82
-82
-82
-83
-84
-82
-83
-83
-84
-84
-84
-84
-84
-84
-83
-83
-84
-83
-83
-83
-83
-82
-82
-82
-82
-82
-81
-81
-81
-81
-81
-81
-81
-81
-81
-81
-82
-82
-82
-82
-83
-83
-83
-84
-84
-84
-84
-84
-85
-86
-86
-86
-85
-85
-85
-85
-86
-85
-85
-85
-85
-85
-85
-85
-85
-84
-85
-85
-85
-85
-85
-85
-84
-84
-84
-85
-85
-85
-84
-85
-85
-84
-84
-84
-84
-83
-83
-83
-83
-83
-83
-82
-81
-82
-81
-82
-81
-82
-81
-81
-82
-82
-82
-82
-82
-82
-82
-81
-82
-81
-81
-80
-80
-79
-79
-80
-79
-79
-80
-79
-79
-79
-80
-80
-80
-81
-81
-82
-83
-83
-85
-84
-84
-84
-84
-85
-85
-85
-85
-84
-83
-84
-84
-84
-83
-82
-82
-81
-81
-81
-80
-81
-80
-80
-80
-81
-82
-82
-82
-82
-82
-82
-83
-84
-84
-84
-84
-84
-84
-84
-84
-84
-82
-82
-83
-83
-83
-83
-82
-83
-81
-82
-83
-83
-83
-82
-82
-82
-82
-82
-82
-81
-81
-81
-80
-81
-81
-81
-81
-80
-79
-79
-79
-78
-78
-77
-76
-77
-76
-77
-77
-77
-77
-76
-77
-76
-77
-77
-76
-76
-76
-77
-78
-78
-78
-78
-78
-78
-79
-80
-80
-80
-79
-79
-80
-80
-81
-81
-81
-81
-81
-82
-82
-82
-81
-81
-81
-81
-81
-81
-81
-79
-79
-78
-78
-78
-78
-78
-78
-77
-77
-77
-77
-77
-78
-78
-78
-77
-78
-78
-78
-78
-78
-78
-79
-79
-80
-80
-80
-80
-80
-80
-80
-80
-80
-79
-79
-78
-78
-78
-77
-77
-77
-76
-76
-76
-76
-76
-75
-75
-75
-75
-75
-75
-75
-74
-74
-73
-73
-73
-73
-73
-73
-73
-72
-73
-73
-73
-73
-73
-73
-73
-74
-74
-75
-76
-75
-75
-76
-75
-76
-75
-75
-75
-76
-76
-76
-76
-76
-76
-76
-77
-77
-77
-77
-77
-77
-77
-77
-77
-77
-78
-76
-76
-76
-77
-77
-77
-76
-76
-76
-76
-76
-76
-76
-75
-75
-75
-75
-74
-74
-74
-74
-73
-73
-74
-73
-73
-73
-72
-73
-73
-74
-74
-73
-73
-73
-72
-72
-72
-73
-73
-72
-71
-72
-72
-71
-71
-70
-70
-70
-69
-70
-70
-69
-70
-69
-69
-70
-70
-70
-70
-70
-70
-70
-71
-71
-71
-71
-72
-72
-73
-73
-74
-73
-74
-73
-74
-75
-75
-76
-75
-75
-75
-75
-75
-75
-75
-74
-75
-74
-73
-73
-73
-72
-71
-70
-71
-70
-71
-70
-70
-70
-69
-70
-70
-71
-71
-71
-71
-71
-71
-72
-72
-72
-72
-72
-71
-72
-71
-71
-70
-69
-69
-68
-69
-68
-67
-66
-66
-65
-64
-64
-64
-62
-62
-61
-61
-60
-60
-59
-59
-57
-58
-57
-56
-57
-55
-56
-55
-55
-54
-54
-53
-53
-52
-52
-52
-52
-52
-52
-51
-51
-50
-50
-51
-50
-49
-50
-49
-48
-50
-49
-50
-49
-49
-48
-47
-47
-47
-47
-47
-46
-46
-47
-47
-47
-46
-47
-46
-47
-47
-47
-48
-48
-47
-47
-47
-46
-47
-46
-46
-45
-44
-44
-43
-43
-43
-43
-42
-41
-42
-42
-42
-41
-41
-41
-41
-41
-42
-42
-42
-41
-41
-42
-42
-42
-42
-42
-42
-41
-41
-41
-40
-40
-39
-39
-39
-39
-40
-40
-40
-40
-39
-39
-40
-41
-41
-41
-40
-41
-41
-42
-42
-41
-42
-41
-40
-41
-41
-40
-40
-39
-38
-38
-38
-38
-38
-38
-38
-38
-38
-40
-40
-40
-40
-40
-40
-41
-41
-42
-42
-42
-41
-42
-42
-42
-42
-41
-41
-40
-39
-38
-36
-35
-32
-31
-29
-26
-25
-21
-18
-14
-10
-7
-3
-1
3
6
10
13
15
16
18
19
20
19
18
15
12
7
3
-2
-9
-17
-26
-35
-44
-54
-63
-73
-84
-94
-104
-113
-122
-131
-139
-147
-154
-160
-166
-170
-174
-178
-181
-183
-186
-186
-187
-186
-186
-186
-185
-183
-182
-180
-177
-174
-171
-168
-163
-159
-154
-150
-145
-141
-136
-131
-125
-119
-112
-107
-102
-95
-89
-83
-78
-72
-67
-61
-56
-51
-47
-43
-40
-37
-34
-31
-28
-25
-24
-23
-22
-21
-20
-19
-18
-17
-17
-17
-16
-16
-16
-15
-17
-17
-16
-15
-15
-14
-15
-14
-15
-14
-14
-13
-13
-13
-13
-13
-12
-12
-12
-11
-11
-12
-12
-11
-10
-10
-9
-9
-9
-9
-8
-7
-5
-6
-5
-4
-4
-2
-1
0
0
1
1
2
2
3
3
3
2
2
2
2
1
1
0
0
0
1
0
-1
-2
-3
-4
-3
-4
-4
-4
-5
-5
-5
-4
-3
-3
-2
-2
-2
0
0
1
2
2
3
4
5
5
5
6
6
6
7
7
8
8
8
9
8
9
9
9
9
9
9
9
9
9
9
8
8
7
8
8
8
9
8
8
8
9
10
11
11
12
12
13
14
14
16
16
17
17
18
19
20
20
21
22
22
23
24
24
25
25
25
25
25
26
26
26
25
25
26
26
27
27
27
27
27
28
29
29
30
30
31
31
32
33
34
34
35
35
35
37
38
38
39
39
40
41
41
42
42
43
42
43
43
44
45
45
46
46
47
48
49
49
49
49
50
50
52
52
52
53
52
53
53
53
54
54
53
54
54
55
55
55
55
55
55
56
56
57
57
57
57
57
58
59
59
59
59
59
59
60
60
61
61
60
60
60
60
60
59
58
57
57
57
56
55
55
55
53
53
53
52
53
52
51
51
51
51
51
50
49
48
47
48
47
46
45
44
42
41
40
39
38
37
36
34
33
33
32
31
29
28
27
26
25
23
23
21
20
19
18
18
16
16
15
13
13
12
11
10
9
8
7
6
6
6
4
3
3
3
2
2
3
2
1
2
2
2
3
3
3
3
3
4
4
3
3
3
3
2
3
3
3
3
2
1
1
1
1
0
-1
-2
-3
-4
-4
-3
-4
-5
-6
-5
-4
-4
-6
-5
-5
-5
-5
-5
-5
-5
-5
-5
-4
-4
-3
-3
-4
-4
-4
-5
-4
-4
-3
-3
-3
-4
-4
-3
-3
-4
-4
-5
-5
-5
-5
-5
-5
-6
-5
-5
-4
-5
-4
-4
-4
-4
-3
-2
-2
-2
-2
-3
-2
-1
-1
-1
-1
-2
-2
-2
-2
-2
-2
-1
-2
-2
-2
-1
0
-1
-1
-1
0
1
1
2
2
1
1
2
2
3
3
4
3
3
4
3
3
2
2
1
1
1
1
2
1
1
0
0
0
1
1
1
1
1
2
3
2
3
3
3
2
3
3
4
4
3
3
3
3
4
4
4
3
3
4
4
3
3
3
2
3
2
3
2
2
1
1
1
1
1
2
1
1
1
1
1
2
1
1
0
0
0
1
1
1
0
1
1
2
2
1
1
1
1
2
2
3
3
3
3
3
3
3
3
2
1
1
1
1
2
1
1
1
0
0
0
0
-1
-2
-2
-3
-2
-2
-2
-2
-3
-3
-2
-2
-2
-1
-1
-1
-1
-1
0
1
1
1
1
1
2
2
1
1
1
1
1
1
1
0
-1
-1
-2
-3
-3
-4
-4
-4
-4
-5
-5
-5
-5
-6
-7
-6
-6
-6
-5
-6
-6
-6
-6
-6
-6
-5
-5
-6
-7
-7
-7
-7
-8
-9
-9
-10
-10
-9
-10
-9
-10
-10
-10
-10
-10
-9
-10
-10
-10
-9
-9
-8
-7
-7
-7
-7
-7
-6
-5
-6
-6
-6
-6
-6
-6
-6
-5
-6
-7
-7
-8
-8
-8
-9
-10
-10
-10
-10
-10
-10
-11
-11
-11
-11
-11
-11
-11
-12
-12
-12
-13
-13
-13
-13
-14
-14
-13
-13
-12
-13
-13
-13
-12
-12
-11
-11
-11
-12
-12
-11
-10
-10
-10
-11
-11
-12
-11
-12
-11
-11
-11
-12
-12
-12
-12
-12
-12
-13
-13
-12
-13
-12
-12
-12
-12
-13
-12
-12
-13
-12
-12
-13
-12
-13
-12
-12
-12
-12
-13
-13
-13
-13
-13
-13
-13
-14
-14
-13
-13
-13
-13
-12
-12
-11
-11
-10
-10
-10
-10
-10
-9
-9
-9
-10
-10
-10
-10
-9
-10
-10
-10
-11
-11
-11
-11
-11
-12
-12
-13
-13
-13
-13
-12
-13
-14
-15
-15
-14
-15
-14
-14
-15
-14
-14
-14
-13
-13
-14
-14
-14
-14
-13
-13
-14
-14
-14
-14
-14
-13
-13
-14
-14
-14
-14
-14
-13
-14
-14
-14
-14
-14
-13
-13
-14
-14
-14
-14
-14
-13
-13
-13
-14
-14
-14
-13
-14
-14
-14
-16
-15
-16
-15
-15
-16
-16
-16
-16
-16
-16
-16
-16
-17
-17
-16
-16
-16
-17
-17
-17
-17
-17
-17
-16
-17
-17
-17
-17
-17
-17
-17
-17
-17
-17
-16
-16
-15
-15
-16
-15
-16
-15
-15
-15
-16
-17
-17
-16
-16
-17
-17
-18
-19
-19
-19
-19
-19
-19
-19
-20
-20
-20
-19
-19
-19
-19
-18
-18
-17
-17
-16
-16
-16
-16
-15
-15
-14
-15
-16
-16
-17
-17
-18
-18
-18
-20
-20
-19
-19
-20
-19
-20
-21
-20
-19
-19
-19
-18
-18
-18
-18
-17
-16
-16
-16
-16
-16
-16
-16
-15
-16
-16
-16
-15
-15
-15
-14
-15
-14
-14
-14
-13
-13
-13
-12
-12
-12
-11
-11
-11
-11
-10
-11
-11
-10
-9
-9
-9
-10
-10
-10
-10
-10
-10
-10
-11
-12
-13
-13
-14
-14
-15
-16
-16
-17
-17
-17
-18
-19
-20
-21
-21
-22
-22
-22
-23
-22
-22
-21
-21
-20
-19
-20
-19
-19
-18
-18
-17
-17
-17
-16
-16
-16
-16
-16
-16
-17
-18
-18
-17
-17
-19
-19
-19
-19
-20
-20
-20
-20
-21
-21
-21
-21
-20
-21
-21
-21
-22
-21
-20
-20
-21
-21
-21
-19
-19
-19
-19
-20
-20
-20
-19
-19
-19
-20
-20
-20
-20
-20
-21
-20
-21
-21
-21
-21
-20
-20
-21
-22
-22
-22
-23
-23
-22
-23
-23
-23
-23
-22
-23
-23
-22
-23
-22
-21
-20
-19
-19
-19
-17
-17
-14
-12
-10
-7
-5
-2
0
3
5
8
10
12
15
17
19
20
20
19
17
15
12
8
4
-3
-9
-17
-25
-33
-42
-52
-62
-73
-83
-92
-101
-110
-120
-129
-138
-145
-152
-158
-164
-170
-173
-177
-180
-182
-183
-183
-184
-185
-184
-183
-181
-180
-178
-175
-173
-169
-165
-161
-157
-153
-149
-144
-138
-133
-126
-121
-115
-109
-103
-98
-92
-85
-80
-74
-70
-65
-60
-55
-50
-46
-43
-39
-36
-32
-28
-26
-23
-21
-20
-18
-16
-14
-14
-13
-13
-12
-11
-10
-10
-10
-11
-11
-11
-11
-11
-10
-11
-11
-11
-11
-10
-10
-10
-9
-9
-8
-7
-6
-6
-6
-5
-5
-5
-4
-3
-3
-2
-3
-2
-2
-2
-1
-1
-2
-2
-2
-2
-1
-2
-2
-2
-2
-1
-2
-1
-1
0
0
1
1
2
3
2
2
2
2
3
3
3
3
2
2
2
2
2
2
2
1
1
2
2
2
2
2
1
1
1
2
1
2
2
1
2
3
4
4
4
4
4
5
6
7
7
7
6
6
6
7
8
8
7
7
7
8
8
8
8
9
9
9
10
10
10
10
10
10
10
12
12
12
12
12
13
13
14
13
13
13
13
14
14
14
15
15
15
15
16
16
16
17
18
18
19
20
21
22
22
22
22
24
24
25
25
25
24
25
25
26
26
25
25
25
25
26
26
25
26
26
26
26
27
27
28
28
29
30
31
31
32
33
33
34
34
35
36
37
37
38
39
39
40
41
41
42
41
42
43
43
44
43
43
44
44
45
45
46
46
46
47
47
48
48
48
48
48
48
49
49
50
49
49
49
50
50
51
50
50
50
51
51
51
52
52
51
51
51
51
51
51
50
49
48
48
48
48
47
47
45
45
44
45
43
43
42
39
38
38
37
37
35
34
33
32
31
30
29
28
26
26
25
24
23
23
21
20
19
18
17
16
16
14
13
12
12
11
11
9
8
7
6
6
5
3
3
2
1
0
0
-1
-1
-3
-3
-3
-4
-4
-4
-5
-6
-6
-6
-7
-6
-7
-8
-8
-9
-10
-10
-10
-11
-12
-13
-13
-12
-13
-13
-13
-14
-14
-14
-14
-14
-14
-14
-15
-15
-15
-15
-16
-16
-16
-18
-18
-18
-18
-18
-19
-18
-19
-20
-19
-19
-20
-20
-20
-21
-20
-20
-20
-20
-21
-21
-21
-21
-20
-19
-20
-20
-20
-21
-20
-21
-21
-20
-21
-21
-21
-21
-21
-21
-22
-22
-22
-22
-21
-22
-22
-23
-22
-22
-21
-22
-21
-22
-22
-22
-22
-21
-22
-22
-22
-22
-21
-20
-19
-20
-20
-21
-21
-20
-19
-19
-19
-18
-17
-17
-16
-15
-14
-15
-14
-14
-15
-14
-14
-14
-13
-14
-13
-13
-13
-12
-13
-14
-15
-14
-16
-15
-15
-16
-16
-15
-16
-15
-14
-15
-15
-15
-16
-16
-16
-16
-15
-16
-15
-15
-16
-15
-16
-16
-17
-18
-19
-18
-18
-19
-19
-19
-19
-18
-18
-18
-19
-19
-20
-19
-19
-19
-18
-18
-18
-18
-17
-17
-16
-16
-16
-15
-15
-15
-15
-14
-15
-15
-17
-17
-17
-17
-17
-17
-18
-19
-20
-20
-20
-19
-20
-21
-21
-21
-20
-20
-21
-21
-21
-21
-20
-20
-20
-19
-20
-19
-18
-19
-18
-18
-18
-18
-17
-17
-16
-15
-16
-16
-17
-17
-16
-16
-16
-15
-15
-16
-16
-16
-16
-17
-18
-19
-18
-19
-19
-19
-20
-21
-22
-22
-22
-23
-23
-24
-24
-25
-24
-24
-24
-24
-24
-25
-24
-24
-23
-23
-23
-23
-23
-23
-24
-23
-23
-24
-24
-25
-25
-25
-24
-25
-24
-24
-24
-24
-23
-22
-22
-23
-23
-23
-23
-23
-23
-22
-22
-22
-22
-22
-21
-21
-21
-22
-22
-21
-21
-21
-21
-22
-22
-22
-23
-22
-23
-24
-25
-25
-25
-24
-25
-25
-25
-26
-26
-25
-26
-26
-27
-26
-26
-26
-25
-26
-25
-25
-26
-26
-26
-26
-25
-26
-26
-26
-26
-26
-25
-25
-26
-26
-26
-26
-27
-26
-26
-25
-26
-26
-26
-26
-26
-26
-26
-26
-26
-25
-25
-24
-25
-26
-26
-26
-26
-25
-25
-26
-26
-27
-27
-27
-27
-28
-28
-28
-29
-29
-29
-29
-30
-30
-29
-29
-29
-29
-29
-29
-29
-29
-29
-29
-28
-28
-27
-27
-26
-25
-25
-24
-24
-24
-24
-25
-24
-24
-24
-24
-25
-26
-26
-25
-26
-26
-27
-28
-28
-28
-28
-29
-30
-31
-32
-32
-31
-30
-30
-30
-31
-30
-30
-29
-28
-28
-27
-27
-26
-25
-25
-24
-24
-24
-24
-24
-24
-23
-24
-25
-25
-25
-26
-26
-26
-26
-27
-28
-28
-28
-27
-28
-28
-28
-28
-29
-28
-27
-27
-28
-27
-27
-27
-26
-26
-27
-27
-28
-27
-27
-27
-26
-28
-28
-29
-29
-29
-29
-30
-31
-32
-31
-32
-31
-31
-31
-32
-32
-32
-31
-31
-31
-31
-31
-31
-30
-29
-29
-29
-29
-29
-29
-30
-29
-28
-29
-30
-29
-29
-29
-29
-29
-29
-29
-30
-30
-29
-29
-28
-29
-30
-30
-30
-30
-30
-30
-30
-30
-30
-30
-30
-30
-31
-31
-32
-32
-32
-33
-32
-33
-33
-33
-32
-32
-32
-32
-31
-31
-32
-31
-31
-30
-30
-31
-30
-30
-30
-29
-29
-30
-29
-29
-30
-30
-29
-28
-28
-27
-27
-26
-25
-24
-26
-25
-25
-26
-25
-25
-25
-26
-26
-27
-27
-28
-29
-29
-30
-31
-31
-31
-31
-32
-32
-33
-34
-34
-33
-33
-33
-33
-34
-34
-33
-32
-31
-31
-30
-29
-29
-28
-26
-26
-27
-28
-27
-27
-26
-26
-26
-25
-26
-25
-25
-26
-25
-25
-25
-25
-25
-24
-24
-23
-23
-23
-23
-22
-22
-21
-20
-21
-21
-21
-21
-21
-21
-21
-22
-23
-23
-23
-24
-24
-25
-26
-27
-28
-29
-30
-30
-31
-31
-32
-32
-32
-32
-31
-32
-32
-31
-30
-31
-30
-30
-30
-30
-29
-28
-28
-27
-28
-28
-28
-28
-27
-27
-27
-27
-28
-28
-28
-28
-27
-27
-28
-28
-28
-28
-27
-27
-28
-28
-28
-28
-28
-28
-29
-29
-30
-31
-31
-31
-31
-32
-34
-34
-34
-34
-34
-34
-35
-36
-36
-36
-36
-36
-36
-37
-36
-36
-36
-35
-34
-34
-35
-35
-36
-35
-36
-36
-36
-35
-35
-35
-34
-34
-34
-34
-34
-33
-32
-32
-32
-31
-32
-32
-31
-30
-29
-29
-28
-27
-26
-24
-23
-20
-18
-16
-14
-12
-10
-7
-5
-2
-1
1
2
3
3
3
1
0
-3
-6
-10
-15
-21
-28
-36
-44
-52
-61
-70
-80
-90
-100
-109
-118
-127
-136
-146
-154
-162
-168
-174
-179
-184
-188
-192
-195
-197
-198
-199
-199
-199
-198
-197
-195
-193
-191
-188
-185
-182
-177
-173
-167
-162
-157
-152
-146
-140
-133
-128
-122
-116
-110
-104
-98
-92
-86
-82
-77
-71
-66
-61
-56
-52
-48
-45
-42
-39
-35
-34
-31
-30
-28
-27
-26
-25
-24
-24
-24
-24
-23
-23
-23
-23
-24
-24
-23
-23
-23
-23
-24
-25
-25
-24
-24
-24
-23
-23
-23
-22
-22
-20
-20
-20
-19
-19
-18
-17
-17
-16
-15
-16
-15
-16
-15
-15
-14
-14
-14
-15
-14
-14
-14
-15
-14
-14
-15
-14
-14
-14
-14
-15
-16
-15
-15
-15
-15
-15
-15
-15
-15
-15
-15
-15
-15
-15
-14
-14
-14
-13
-14
-14
-13
-13
-12
-13
-12
-13
-12
-12
-12
-12
-11
-11
-11
-11
-11
-10
-10
-9
-9
-9
-9
-8
-8
-7
-7
-6
-6
-6
-5
-5
-4
-4
-4
-3
-3
-3
-2
-2
-2
-2
-2
-2
-2
-2
-2
-3
-3
-3
-3
-2
-3
-4
-4
-4
-4
-4
-4
-3
-4
-4
-5
-3
-3
-2
-1
-2
-1
-1
0
1
1
2
3
3
4
6
7
7
7
7
8
8
9
10
9
10
9
9
10
10
11
10
10
10
11
11
12
12
13
13
13
14
16
16
17
17
18
18
19
20
21
21
21
21
23
24
24
25
25
25
25
26
27
27
28
28
28
28
29
30
31
31
31
31
32
33
34
34
34
34
33
34
35
35
35
35
35
35
36
36
37
36
37
37
38
38
39
40
39
39
39
40
39
40
39
39
38
38
38
38
38
38
37
37
36
36
36
36
35
34
34
33
33
33
32
30
31
29
29
29
28
27
26
26
25
24
23
22
21
20
18
18
16
16
14
12
10
9
9
7
7
6
4
3
2
1
0
-1
-2
-3
-4
-4
-6
-7
-8
-8
-9
-10
-10
-10
-11
-12
-13
-13
-14
-14
-14
-15
-15
-17
-17
-18
-18
-18
-19
-20
-21
-22
-22
-23
-23
-24
-25
-26
-26
-27
-27
-27
-27
-28
-28
-28
-28
-28
-28
-28
-29
-30
-29
-30
-29
-30
-30
-30
-30
-30
-30
-31
-31
-33
-33
-34
-34
-34
-34
-35
-36
-36
-35
-35
-36
-36
-36
-36
-35
-35
-35
-35
-34
-35
-34
-34
-34
-33
-33
-33
-32
-32
-31
-31
-30
-30
-30
-31
-30
-30
-30
-30
-31
-31
-32
-32
-32
-32
-32
-33
-33
-34
-33
-34
-34
-34
-35
-35
-34
-34
-33
-32
-33
-33
-33
-33
-33
-33
-33
-33
-33
-34
-33
-33
-33
-34
-34
-35
-35
-36
-36
-36
-38
-38
-39
-38
-38
-39
-39
-39
-39
-39
-39
-38
-38
-38
-37
-37
-36
-36
-35
-35
-35
-35
-36
-35
-35
-34
-35
-35
-35
-35
-35
-34
-35
-35
-35
-35
-35
-33
-33
-33
-32
-33
-32
-32
-33
-33
-33
-33
-33
-33
-33
-34
-34
-34
-35
-34
-34
-35
-35
-35
-35
-37
-36
-37
-37
-36
-36
-36
-36
-36
-36
-35
-36
-36
-36
-37
-36
-35
-35
-35
-36
-37
-38
-38
-37
-38
-37
-38
-38
-39
-38
-38
-38
-38
-38
-38
-38
-38
-37
-37
-37
-38
-37
-37
-37
-37
-38
-38
-39
-39
-40
-39
-40
-41
-42
-42
-43
-42
-43
-44
-44
-45
-46
-46
-46
-46
-46
-46
-46
-47
-46
-45
-45
-43
-44
-44
-42
-42
-41
-41
-40
-41
-39
-39
-39
-38
-38
-39
-40
-40
-40
-40
-40
-41
-42
-42
-42
-42
-42
-42
-44
-45
-44
-44
-45
-45
-45
-45
-45
-45
-45
-44
-45
-45
-45
-45
-45
-44
-44
-44
-44
-44
-44
-44
-44
-44
-45
-45
-46
-46
-46
-47
-47
-47
-46
-47
-48
-47
-46
-47
-47
-48
-47
-47
-47
-47
-48
-48
-48
-49
-48
-48
-48
-48
-48
-49
-49
-49
-49
-48
-49
-49
-50
-49
-49
-49
-48
-48
-48
-48
-48
-47
-46
-46
-47
-47
-48
-48
-47
-46
-47
-46
-46
-46
-46
-45
-45
-46
-46
-46
-45
-45
-45
-44
-44
-45
-45
-45
-44
-45
-45
-45
-45
-45
-45
-45
-45
-46
-46
-46
-46
-46
-46
-46
-47
-47
-48
-47
-47
-47
-47
-47
-47
-47
-47
-46
-46
-46
-47
-46
-46
-45
-45
-44
-44
-45
-43
-43
-42
-42
-42
-43
-43
-44
-43
-43
-43
-43
-44
-44
-44
-44
-43
-44
-44
-44
-44
-44
-43
-44
-44
-45
-45
-45
-45
-45
-45
-46
-47
-46
-46
-45
-45
-45
-46
-46
-46
-45
-45
-45
-46
-46
-46
-46
-46
-46
-46
-45
-46
-46
-46
-46
-46
-45
-45
-45
-44
-44
-43
-43
-44
-45
-45
-43
-43
-43
-43
-43
-44
-44
-45
-45
-45
-45
-46
-47
-46
-46
-46
-46
-47
-47
-48
-47
-47
-46
-46
-47
-47
-46
-46
-46
-46
-45
-46
-46
-45
-45
-44
-44
-45
-46
-45
-46
-45
-45
-45
-45
-45
-45
-46
-45
-45
-45
-45
-44
-44
-44
-44
-44
-45
-44
-45
-45
-44
-44
-44
-45
-45
-45
-45
-44
-44
-44
-44
-44
-45
-44
-44
-44
-44
-44
-45
-45
-45
-44
-45
-45
-45
-45
-45
-44
-45
-44
-44
-45
-45
-44
-45
-45
-46
-46
-46
-46
-46
-46
-46
-47
-48
-49
-49
-48
-48
-48
-48
-48
-47
-46
-45
-46
-45
-45
-44
-43
-43
-43
-42
-42
-42
-42
-42
-41
-41
-42
-42
-43
-43
-44
-43
-44
-44
-46
-46
-46
-46
-46
-46
-47
-47
-47
-47
-47
-46
-46
-46
-46
-45
-44
-43
-44
-43
-43
-43
-42
-42
-41
-42
-42
-43
-42
-42
-41
-41
-41
-42
-42
-42
-41
-41
-41
-41
-42
-42
-42
-41
-41
-41
-41
-41
-41
-40
-40
-40
-39
-38
-39
-38
-37
-37
-37
-37
-36
-37
-36
-35
-37
-36
-38
-38
-38
-39
-39
-39
-40
-41
-42
-43
-42
-43
-43
-43
-44
-44
-44
-44
-43
-44
-44
-43
-43
-42
-41
-41
-41
-40
-40
-40
-40
-40
-39
-40
-40
-40
-40
-40
-40
-41
-42
-43
-43
-43
-43
-43
-44
-44
-45
-45
-45
-45
-45
-46
-47
-47
-47
-47
-47
-47
-48
-49
-48
-49
-49
-49
-49
-49
-49
-49
-49
-49
-48
-49
-49
-49
-49
-49
-49
-49
-49
-48
-48
-48
-47
-47
-48
-48
-48
-49
-49
-48
-50
-50
-50
-51
-50
-50
-50
-50
-51
-51
-51
-50
-49
-49
-49
-48
-48
-46
-43
-42
-40
-39
-37
-35
-33
-31
-28
-25
-25
-23
-22
-20
-18
-16
-16
-16
-16
-18
-19
-20
-23
-28
-32
-37
-43
-48
-56
-64
-72
-81
-89
-98
-106
-113
-122
-130
-139
-146
-152
-159
-166
-173
-179
-184
-189
-194
-197
-201
-204
-207
-209
-210
-211
-212
-213
-214
-214
-212
-210
-208
-205
-202
-198
-195
-189
-184
-179
-173
-167
-161
-153
-147
-139
-132
-125
-119
-112
-106
-100
-93
-88
-83
-79
-74
-71
-66
-63
-60
-59
-57
-55
-54
-52
-50
-50
-50
-49
-49
-48
-48
-47
-48
-47
-48
-47
-47
-47
-47
-47
-48
-47
-47
-46
-45
-45
-45
-44
-44
-43
-42
-43
-42
-42
-43
-43
-43
-42
-43
-43
-43
-43
-43
-42
-42
-42
-42
-43
-42
-41
-41
-41
-41
-41
-41
-41
-40
-39
-39
-39
-39
-39
-38
-38
-37
-38
-37
-37
-37
-37
-36
-36
-36
-37
-37
-37
-37
-37
-36
-37
-37
-37
-37
-37
-37
-37
-37
-37
-37
-37
-36
-36
-36
-36
-36
-36
-35
-35
-35
-35
-35
-35
-34
-33
-33
-33
-32
-32
-31
-30
-30
-30
-29
-30
-29
-28
-28
-28
-28
-29
-28
-28
-27
-27
-27
-26
-26
-26
-26
-26
-26
-25
-26
-26
-26
-26
-25
-24
-25
-25
-25
-24
-24
-24
-23
-22
-23
-23
-21
-21
-20
-20
-19
-19
-19
-17
-17
-17
-17
-17
-17
-17
-17
-15
-15
-15
-15
-15
-14
-13
-13
-13
-12
-12
-11
-10
-9
-8
-7
-8
-7
-6
-4
-2
-1
0
-1
1
1
2
4
4
5
5
5
5
6
6
6
5
5
5
6
6
6
6
6
6
7
8
9
9
10
10
10
11
12
13
13
14
14
15
16
17
18
19
19
19
19
21
21
21
21
22
21
22
23
22
22
23
23
22
23
24
24
23
24
24
24
24
24
24
24
24
23
24
23
24
23
22
21
21
21
21
21
20
19
18
17
17
17
16
14
14
13
12
11
11
9
8
8
7
6
6
6
4
3
1
1
1
-1
-2
-4
-5
-6
-7
-7
-9
-10
-12
-13
-14
-15
-16
-16
-17
-19
-20
-21
-22
-22
-23
-24
-25
-27
-27
-28
-28
-30
-31
-32
-33
-34
-34
-35
-36
-37
-38
-38
-38
-38
-40
-40
-41
-42
-42
-43
-43
-44
-44
-45
-44
-45
-44
-44
-44
-45
-44
-44
-45
-45
-45
-46
-47
-47
-47
-47
-47
-48
-48
-49
-49
-50
-50
-50
-50
-51
-51
-50
-49
-49
-49
-49
-49
-49
-48
-49
-48
-48
-48
-48
-48
-47
-47
-48
-48
-48
-49
-49
-49
-49
-49
-49
-50
-50
-50
-50
-50
-51
-50
-52
-51
-51
-51
-51
-51
-51
-52
-52
-51
-52
-52
-52
-52
-52
-53
-52
-52
-52
-53
-53
-53
-53
-52
-52
-52
-52
-52
-53
-52
-53
-53
-53
-54
-55
-55
-55
-55
-54
-55
-56
-56
-56
-55
-56
-56
-55
-55
-54
-54
-53
-53
-53
-53
-53
-52
-51
-52
-51
-52
-52
-52
-51
-51
-51
-51
-50
-51
-50
-49
-50
-49
-50
-49
-50
-50
-49
-49
-50
-50
-50
-51
-50
-51
-52
-52
-54
-53
-54
-54
-53
-53
-54
-54
-54
-54
-53
-53
-54
-54
-53
-54
-53
-53
-52
-53
-53
-53
-52
-52
-52
-53
-53
-54
-54
-55
-55
-55
-56
-56
-56
-57
-55
-55
-55
-55
-55
-54
-54
-54
-54
-54
-54
-53
-53
-53
-52
-52
-52
-53
-53
-53
-52
-52
-52
-52
-53
-53
-53
-53
-54
-55
-56
-56
-56
-57
-57
-57
-58
-59
-60
-60
-60
-61
-61
-61
-62
-62
-61
-60
-60
-61
-60
-60
-59
-59
-58
-58
-59
-59
-59
-58
-58
-57
-57
-57
-58
-58
-57
-57
-57
-57
-58
-58
-59
-58
-58
-57
-58
-58
-59
-58
-59
-59
-59
-59
-60
-60
-59
-59
-59
-60
-59
-59
-60
-60
-59
-59
-60
-61
-61
-61
-61
-61
-60
-61
-61
-61
-61
-60
-60
-60
-61
-60
-60
-60
-59
-59
-59
-60
-60
-59
-59
-58
-58
-58
-58
-59
-59
-58
-58
-58
-59
-59
-60
-60
-59
-59
-59
-59
-59
-59
-59
-59
-58
-59
-59
-59
-59
-58
-58
-58
-59
-58
-59
-58
-58
-59
-59
-59
-60
-60
-59
-59
-59
-59
-58
-59
-58
-57
-57
-56
-57
-57
-57
-56
-56
-55
-56
-56
-56
-56
-57
-57
-57
-57
-57
-57
-58
-58
-58
-58
-59
-58
-59
-59
-58
-58
-59
-59
-59
-59
-58
-57
-57
-58
-58
-58
-57
-57
-56
-57
-57
-57
-57
-56
-56
-56
-56
-56
-56
-56
-56
-55
-56
-56
-56
-56
-56
-56
-56
-56
-56
-56
-57
-57
-56
-57
-56
-57
-57
-56
-56
-55
-55
-55
-56
-56
-55
-55
-54
-55
-54
-56
-55
-55
-56
-56
-55
-57
-57
-57
-57
-56
-56
-57
-57
-57
-57
-55
-55
-55
-55
-54
-55
-54
-54
-53
-53
-54
-54
-53
-53
-53
-52
-52
-52
-52
-53
-52
-52
-51
-52
-53
-53
-53
-53
-53
-53
-54
-54
-55
-55
-55
-55
-55
-56
-55
-55
-55
-55
-56
-56
-56
-56
-55
-55
-54
-54
-54
-54
-53
-53
-53
-53
-53
-54
-53
-53
-53
-53
-53
-53
-54
-54
-54
-54
-53
-55
-56
-56
-55
-54
-53
-54
-54
-53
-54
-53
-53
-52
-52
-52
-52
-52
-52
-50
-50
-51
-50
-50
-50
-50
-50
-50
-50
-51
-51
-50
-50
-50
-50
-49
-50
-50
-49
-50
-49
-49
-50
-50
-50
-49
-49
-48
-48
-49
-48
-48
-48
-48
-49
-48
-50
-49
-49
-49
-49
-49
-49
-49
-49
-49
-49
-48
-49
-49
-49
-49
-48
-47
-47
-47
-47
-48
-47
-47
-47
-47
-47
-47
-47
-46
-46
-45
-45
-45
-45
-44
-44
-43
-44
-43
-43
-43
-43
-43
-42
-43
-44
-44
-44
-44
-44
-43
-44
-45
-45
-45
-45
-44
-45
-46
-46
-46
-45
-46
-45
-46
-46
-46
-45
-45
-44
-45
-44
-44
-44
-43
-44
-43
-43
-43
-43
-43
-43
-43
-44
-44
-44
-44
-44
-43
-44
-43
-43
-44
-43
-42
-42
-41
-41
-41
-41
-40
-39
-38
-38
-37
-37
-37
-36
-36
-35
-35
-35
-34
-34
-33
-33
-33
-33
-34
-35
-35
-35
-34
-34
-35
-36
-35
-36
-35
-34
-35
-34
-34
-34
-34
-34
-33
-33
-33
-33
-34
-33
-34
-34
-34
-35
-36
-36
-37
-37
-37
-37
-39
-38
-38
-37
-38
-37
-38
-38
-37
-37
-36
-35
-34
-33
-33
-32
-32
-31
-30
-31
-31
-31
-31
-30
-30
-30
-30
-31
-32
-32
-32
-32
-33
-34
-34
-34
-34
-35
-35
-36
-36
-36
-36
-36
-36
-36
-37
-37
-37
-36
-37
-36
-37
-37
-38
-37
-38
-38
-37
-38
-38
-38
-38
-38
-37
-37
-38
-38
-38
-37
-37
-36
-37
-36
-36
-36
-35
-34
-34
-35
-35
-34
-34
-34
-34
-34
-34
-35
-36
-36
-36
-37
-38
-37
-38
-38
-37
-36
-36
-35
-34
-33
-31
-27
-25
-21
-19
-16
-13
-10
-6
-3
0
2
5
7
8
9
8
8
5
3
0
-3
-8
-13
-20
-28
-35
-43
-51
-61
-69
-79
-88
-96
-105
-113
-121
-130
-138
-146
-153
-159
-166
-172
-176
-182
-186
-189
-193
-195
-197
-200
-201
-201
-201
-199
-198
-197
-194
-192
-188
-183
-178
-173
-168
-161
-156
-149
-142
-136
-128
-122
-115
-108
-101
-94
-88
-82
-77
-72
-67
-62
-58
-54
-50
-48
-44
-43
-41
-38
-38
-37
-36
-35
-34
-32
-32
-31
-30
-30
-29
-29
-28
-28
-29
-28
-27
-27
-27
-26
-26
-26
-25
-24
-23
-23
-23
-22
-23
-22
-22
-20
-20
-20
-19
-19
-19
-19
-18
-18
-18
-18
-19
-18
-18
-18
-17
-18
-18
-18
-18
-18
-17
-17
-18
-17
-17
-17
-16
-17
-16
-17
-16
-16
-15
-14
-14
-14
-14
-15
-14
-13
-13
-13
-13
-13
-13
-13
-13
-13
-13
-14
-14
-14
-14
-13
-14
-14
-15
-14
-14
-13
-12
-12
-12
-12
-13
-13
-12
-12
-11
-11
-11
-9
-8
-8
-7
-7
-7
-8
-6
-6
-6
-5
-6
-6
-5
-6
-5
-5
-5
-6
-7
-7
-7
-6
-6
-7
-7
-7
-6
-5
-4
-3
-4
-2
-2
-1
1
1
2
3
3
4
5
5
6
8
8
8
8
9
9
9
10
9
9
10
10
10
10
10
9
9
10
10
11
11
10
11
12
11
12
12
13
12
13
15
15
16
16
16
17
18
19
20
21
22
23
24
25
27
28
29
29
30
31
32
33
33
34
34
35
35
37
37
37
38
38
38
38
40
40
41
40
40
41
42
43
44
44
44
44
45
46
47
47
48
48
49
49
50
51
51
51
51
51
52
52
52
52
52
52
53
53
54
53
53
53
53
52
52
52
52
51
52
51
51
52
51
51
49
50
49
49
49
49
48
48
47
46
45
45
45
43
41
41
40
39
38
37
36
34
33
32
31
30
28
27
25
25
24
24
23
22
20
19
19
18
16
15
13
12
10
11
9
7
7
5
4
3
3
2
1
0
-1
-2
-2
-2
-3
-4
-4
-5
-6
-5
-6
-8
-9
-9
-9
-11
-10
-11
-12
-13
-14
-15
-15
-16
-17
-18
-19
-20
-20
-20
-20
-20
-20
-21
-21
-20
-20
-20
-20
-20
-20
-20
-21
-20
-20
-20
-21
-21
-22
-21
-21
-21
-22
-22
-23
-23
-24
-23
-24
-24
-25
-24
-25
-24
-24
-24
-25
-25
-24
-23
-23
-23
-23
-23
-22
-23
-22
-23
-22
-22
-23
-24
-24
-24
-24
-25
-26
-26
-26
-26
-26
-26
-27
-27
-27
-27
-26
-26
-26
-26
-26
-26
-25
-25
-25
-25
-25
-25
-24
-23
-23
-23
-24
-25
-25
-26
-25
-25
-26
-25
-27
-26
-27
-27
-28
-28
-29
-29
-29
-28
-28
-27
-28
-28
-27
-27
-27
-26
-27
-26
-26
-27
-26
-27
-26
-26
-27
-27
-27
-27
-27
-27
-28
-28
-28
-28
-27
-26
-26
-27
-27
-27
-26
-26
-27
-26
-27
-26
-27
-25
-25
-25
-26
-25
-25
-25
-25
-26
-26
-27
-28
-29
-28
-28
-29
-29
-30
-30
-31
-31
-30
-30
-30
-30
-30
-30
-29
-29
-29
-29
-30
-29
-28
-28
-28
-28
-28
-29
-28
-28
-28
-28
-29
-30
-29
-29
-30
-30
-30
-30
-31
-31
-31
-31
-31
-32
-32
-32
-32
-32
-33
-33
-33
-34
-33
-34
-34
-34
-34
-35
-36
-35
-35
-35
-36
-36
-36
-35
-35
-34
-34
-34
-34
-34
-33
-33
-32
-32
-32
-33
-33
-33
-34
-34
-34
-35
-35
-36
-35
-36
-36
-36
-36
-38
-37
-38
-37
-38
-38
-39
-39
-39
-39
-39
-37
-39
-39
-39
-39
-39
-39
-39
-40
-40
-40
-41
-40
-39
-40
-40
-41
-41
-40
-41
-41
-41
-41
-41
-42
-41
-41
-41
-42
-42
-42
-43
-42
-42
-42
-42
-43
-43
-42
-43
-43
-43
-43
-43
-42
-41
-42
-41
-41
-41
-41
-40
-40
-40
-40
-39
-39
-39
-39
-39
-40
-40
-40
-40
-41
-41
-40
-40
-41
-42
-42
-42
-42
-42
-42
-42
-42
-42
-41
-41
-41
-42
-42
-43
-42
-41
-41
-41
-41
-41
-41
-41
-41
-40
-39
-40
-40
-40
-39
-39
-39
-38
-38
-38
-39
-38
-38
-38
-37
-37
-37
-37
-37
-37
-38
-38
-39
-39
-39
-39
-40
-40
-40
-41
-41
-41
-41
-42
-42
-43
-42
-43
-42
-42
-42
-42
-42
-42
-41
-41
-41
-42
-42
-43
-42
-42
-40
-41
-40
-40
-40
-40
-40
-40
-40
-40
-40
-41
-41
-41
-41
-41
-41
-41
-41
-40
-39
-40
-40
-41
-41
-41
-40
-39
-40
-41
-41
-41
-41
-42
-42
-42
-43
-42
-43
-42
-42
-42
-41
-42
-42
-41
-41
-40
-40
-40
-40
-39
-40
-39
-40
-40
-41
-41
-41
-41
-41
-41
-42
-42
-42
-41
-41
-41
-41
-41
-41
-41
-41
-41
-40
-40
-40
-41
-40
-40
-39
-39
-39
-39
-39
-39
-39
-39
-39
-40
-41
-41
-42
-41
-41
-42
-43
-43
-43
-42
-43
-43
-44
-44
-44
-44
-44
-44
-44
-45
