# Simple Text Format
# Sampling Rate (Hz):= 1200.00
# Resolution:= 12
# Labels:= ECG	 I 
# Age:=	65
# Gender:=	Masculino
112
113
113
113
113
113
112
111
111
111
109
109
108
107
107
106
105
105
104
103
103
103
102
102
102
102
103
104
104
106
107
107
108
108
108
109
109
109
109
108
108
108
107
107
108
107
107
107
107
106
106
107
107
107
109
109
111
112
113
115
115
116
117
117
117
118
118
117
118
118
118
118
118
117
116
114
113
112
110
109
108
108
106
105
104
102
101
100
100
100
100
101
102
103
103
104
105
107
107
109
110
112
113
113
115
116
117
117
116
116
116
115
115
115
114
114
113
113
112
111
110
110
109
109
109
109
110
109
109
109
109
109
108
107
107
107
107
106
106
105
105
104
104
102
102
102
101
101
102
102
102
102
103
104
105
106
107
109
109
111
112
112
113
115
115
117
117
118
118
118
118
118
118
118
117
117
116
116
116
116
116
115
115
115
114
113
112
112
111
110
110
110
110
109
109
108
108
107
107
106
106
106
106
106
106
106
106
106
107
108
108
109
109
109
110
111
112
113
113
114
114
115
115
114
115
115
114
114
115
115
115
114
114
115
114
114
114
114
114
114
114
114
115
116
115
115
115
115
115
115
114
115
115
114
114
114
113
114
112
112
111
111
111
110
110
110
109
109
110
110
110
110
111
111
111
112
111
112
112
113
113
114
114
115
117
117
117
118
119
119
121
121
122
123
122
123
124
124
125
126
126
127
128
129
128
129
128
128
128
127
128
128
128
129
129
128
128
128
127
127
126
125
124
125
125
125
125
125
125
125
125
124
124
125
125
125
125
126
126
127
128
128
129
129
129
130
130
131
132
132
132
132
133
133
133
133
133
132
132
130
128
128
126
124
124
123
122
121
120
119
118
117
116
115
114
114
114
113
114
115
115
116
117
117
118
120
120
121
121
122
122
122
122
123
123
122
121
120
119
117
117
116
115
113
112
111
110
109
108
107
106
105
106
105
105
105
106
106
106
107
107
107
108
108
108
108
107
107
107
107
108
107
108
107
107
108
109
110
110
113
114
116
118
121
124
127
131
136
141
146
153
160
166
173
180
187
193
199
205
210
216
220
224
227
230
233
233
234
233
232
229
225
221
216
210
203
196
189
181
173
164
154
145
135
126
117
109
101
94
87
82
77
72
68
65
63
62
62
62
63
64
65
66
69
71
74
77
79
82
84
87
89
91
92
94
95
96
98
99
101
101
102
101
102
102
101
102
102
102
103
102
103
103
103
103
103
104
104
104
104
106
106
107
107
107
107
107
107
107
107
108
109
109
109
108
108
107
107
106
106
105
105
103
102
102
102
102
102
103
104
104
104
105
106
108
109
110
111
112
113
113
115
115
116
117
117
118
118
118
117
117
117
116
116
116
115
114
114
113
113
113
113
113
113
112
112
113
113
112
111
112
111
111
112
112
113
114
114
114
114
114
115
114
114
114
114
113
112
112
112
111
111
111
110
110
109
109
109
108
109
109
110
110
111
112
113
114
116
117
119
120
121
121
121
122
123
123
123
124
124
124
123
121
120
119
119
118
117
116
115
114
113
112
111
111
110
111
111
112
111
113
113
114
114
116
116
117
118
119
120
121
122
124
125
126
126
128
128
129
129
130
131
131
130
130
130
130
130
130
130
131
131
132
131
132
131
131
131
131
132
132
132
133
133
133
133
134
133
134
134
134
134
134
135
135
136
136
137
138
139
140
141
143
144
145
146
148
149
150
151
151
152
152
153
154
154
155
155
155
155
156
156
156
157
157
158
159
159
160
160
161
161
162
162
163
163
164
164
164
165
165
165
165
165
165
165
164
164
165
165
164
164
164
164
164
164
164
164
164
164
164
164
164
164
165
165
165
165
165
165
164
164
163
163
163
163
163
163
163
162
161
160
160
160
159
159
159
159
160
159
160
160
160
160
161
160
160
159
160
159
158
158
156
155
153
151
150
148
147
146
145
143
142
141
140
139
138
138
137
137
137
136
135
136
135
136
136
137
136
136
136
135
134
133
132
132
132
131
131
130
130
129
128
127
126
126
126
125
124
125
124
125
125
125
125
125
126
126
126
126
127
127
126
126
126
126
127
127
127
126
125
123
123
122
122
121
120
120
120
120
119
119
118
119
118
118
119
119
120
120
121
123
123
124
125
125
126
126
127
128
128
129
129
129
130
130
130
131
131
131
131
131
130
131
130
130
129
129
129
129
128
129
127
127
126
126
125
126
125
125
124
124
124
125
125
125
126
125
125
124
125
124
124
123
123
123
123
123
124
125
126
126
127
127
127
127
127
128
130
130
131
132
133
133
133
133
133
132
132
131
130
129
128
127
126
126
125
125
123
123
123
122
122
122
123
124
124
126
126
128
129
130
130
131
132
133
134
135
136
136
137
137
137
138
138
138
138
138
137
136
136
135
134
133
133
133
132
132
132
131
130
130
129
129
129
129
129
130
130
130
131
132
132
133
134
134
135
135
135
135
134
134
134
134
133
131
130
129
127
125
124
124
123
122
121
120
120
119
118
118
117
118
118
118
120
121
123
124
125
125
126
127
127
128
128
129
129
130
130
130
130
130
129
129
128
128
127
126
126
126
125
125
125
124
124
124
123
123
122
123
122
122
123
123
123
124
125
125
125
125
125
126
127
127
127
128
129
129
131
131
132
131
132
132
132
133
133
133
133
133
133
133
133
133
133
133
133
133
132
132
131
131
131
130
130
129
130
129
129
129
128
127
126
126
125
124
124
124
123
124
122
122
121
120
119
119
118
119
119
119
119
119
120
120
121
122
122
123
125
125
126
127
129
130
131
132
133
133
134
135
135
135
135
134
134
133
132
132
132
131
130
130
129
128
128
127
126
127
126
126
125
125
125
125
124
123
124
123
123
122
122
121
121
121
120
120
121
121
121
122
123
123
123
124
125
126
127
128
129
130
131
132
132
133
134
134
134
134
134
132
132
131
130
130
129
129
129
129
129
129
129
129
128
128
127
127
127
126
127
127
127
127
127
127
127
127
127
126
126
125
125
125
125
124
124
125
125
126
127
127
127
127
127
128
128
129
129
130
129
130
130
130
129
129
130
129
128
129
128
128
128
128
128
127
127
127
127
127
127
126
126
125
124
125
125
125
125
125
126
126
126
126
126
126
127
126
127
127
127
127
128
128
128
128
128
127
127
127
127
127
126
126
125
125
125
125
125
124
124
124
124
123
124
124
124
125
125
126
127
127
128
129
130
130
131
131
131
131
131
132
131
131
131
130
130
129
128
128
127
126
125
125
124
123
123
123
123
122
123
123
124
123
124
124
124
126
127
127
127
128
129
130
130
131
132
133
133
135
135
135
135
134
133
132
132
131
130
129
128
126
125
125
124
123
123
123
123
123
123
123
123
123
123
123
125
125
127
127
128
129
128
129
128
127
127
126
125
124
123
124
123
122
122
122
122
122
122
123
124
124
124
126
127
129
130
131
132
134
135
136
136
138
137
138
139
140
139
139
140
140
140
138
139
138
138
137
137
137
137
136
136
136
137
137
138
138
138
138
138
138
139
138
138
138
138
139
140
141
142
142
143
143
143
143
143
143
143
143
144
144
145
145
145
146
146
145
145
144
144
143
143
143
143
141
142
141
140
139
138
137
136
136
134
135
133
133
132
131
131
131
131
130
129
130
129
129
130
130
130
130
130
130
129
129
128
127
127
126
125
125
123
123
122
120
120
118
118
118
117
117
118
119
119
119
119
120
120
121
123
123
123
124
123
123
124
124
125
126
126
125
126
125
125
124
124
124
123
123
123
123
123
123
123
123
123
122
123
122
123
123
124
125
127
128
130
132
136
139
142
146
150
154
158
163
167
171
176
181
186
191
196
199
203
206
208
211
213
215
216
217
218
217
216
214
211
206
202
196
190
183
177
171
163
156
148
141
132
124
117
108
102
95
89
84
80
76
73
71
70
68
68
68
69
70
71
73
75
78
81
84
88
90
94
96
99
102
105
107
109
110
111
112
113
114
113
113
113
113
112
112
113
113
112
112
111
110
110
110
110
112
113
115
117
118
119
120
122
122
123
124
124
125
126
126
126
125
125
125
124
124
123
122
120
120
119
118
118
118
117
117
116
116
115
115
114
114
115
115
115
115
115
116
117
118
118
120
120
121
120
120
120
120
120
120
120
120
120
120
120
120
120
119
120
120
119
120
120
121
121
122
123
124
124
125
125
126
126
126
127
126
126
126
126
126
125
125
125
124
124
123
123
123
122
123
123
123
123
124
124
125
125
125
125
125
125
125
124
124
124
124
124
124
124
123
124
124
123
123
124
123
125
124
125
125
125
125
127
127
128
129
128
128
129
128
128
128
128
129
129
129
130
130
131
131
131
131
131
131
132
132
133
133
134
134
135
135
135
135
136
137
138
138
137
138
137
136
137
137
137
137
138
138
139
139
139
140
141
141
142
143
144
145
146
147
148
148
149
150
150
150
151
151
151
152
152
152
152
153
153
153
153
153
153
152
153
154
154
155
156
156
156
157
157
158
158
158
157
157
156
157
156
156
156
157
158
158
159
160
160
160
160
161
161
162
162
163
164
164
165
165
165
165
165
165
165
166
165
165
165
164
164
165
164
165
166
166
167
167
168
169
170
171
171
172
173
173
174
175
175
175
176
175
175
174
174
174
173
173
172
172
171
170
169
168
167
165
165
164
163
163
161
161
159
159
159
158
157
157
156
155
154
153
153
151
151
151
151
151
151
150
150
148
148
146
145
145
143
143
142
141
140
140
139
138
136
136
134
133
133
132
130
128
128
127
126
125
125
124
124
125
125
125
126
127
127
127
128
129
129
131
132
132
133
132
133
133
134
134
135
137
137
137
137
136
136
135
135
134
134
133
132
131
130
129
128
127
127
126
126
126
125
126
125
124
125
124
125
125
126
126
127
128
129
130
131
131
131
131
130
130
129
129
129
128
128
128
127
127
127
126
126
125
125
124
124
124
124
124
125
125
125
126
127
128
129
130
130
132
132
133
134
134
134
134
135
135
134
133
132
132
131
131
130
130
129
128
127
127
125
125
124
124
125
126
127
127
128
129
128
130
130
130
130
131
130
130
130
131
131
132
132
131
132
131
131
131
130
129
129
129
130
130
129
129
128
128
128
128
128
128
129
129
129
129
129
129
129
130
130
130
131
132
133
133
134
134
134
134
134
134
134
134
134
133
134
133
133
133
133
133
133
133
133
133
133
132
133
133
133
132
132
132
132
132
132
132
132
132
132
131
131
131
131
131
131
132
132
132
133
134
134
134
133
134
134
133
134
134
134
134
134
133
132
131
131
130
129
128
128
127
126
125
125
125
125
126
125
125
125
125
125
125
125
126
126
127
128
129
129
129
130
130
131
131
132
132
133
133
132
133
132
133
132
132
132
132
131
130
129
129
128
128
128
127
128
128
128
128
129
129
130
130
131
132
133
134
135
135
137
137
138
138
138
139
139
139
138
138
138
138
138
136
136
135
135
134
134
133
133
133
131
131
130
129
128
128
128
128
128
128
128
127
127
127
127
127
126
126
125
125
124
125
125
124
124
124
123
123
122
123
122
122
122
123
122
122
121
122
122
123
123
124
124
125
126
127
128
129
130
131
132
132
133
133
134
134
134
135
135
136
136
136
137
136
135
135
134
133
132
132
131
131
130
129
130
129
129
128
127
127
127
127
127
127
128
128
128
128
129
129
130
130
130
131
131
132
133
133
133
133
133
133
134
134
134
134
134
134
133
134
133
132
132
132
131
131
131
131
130
130
130
129
128
127
127
126
126
125
125
124
124
124
123
124
124
124
124
124
124
126
126
126
127
127
127
127
127
128
128
129
129
129
129
130
130
130
130
129
129
130
130
128
128
128
127
128
128
127
127
127
127
127
127
127
127
128
128
128
129
129
130
131
131
132
133
133
134
134
134
136
136
136
136
136
137
136
137
136
136
136
135
135
134
133
133
133
132
132
131
131
131
130
131
130
131
131
130
130
130
130
130
130
130
130
130
130
130
129
127
126
126
126
125
125
126
126
126
126
127
127
127
127
127
127
128
129
129
130
131
131
131
131
131
132
132
132
131
132
132
132
133
132
132
133
133
133
134
134
134
135
136
137
138
138
139
139
139
139
139
139
141
141
141
141
141
141
142
141
142
142
144
144
144
144
144
144
145
145
146
147
147
146
146
146
145
144
145
144
145
145
145
144
144
144
144
144
144
144
144
145
146
147
147
148
148
149
150
149
149
149
149
148
148
149
148
147
147
146
144
144
142
140
139
138
137
135
135
133
132
131
130
130
129
129
130
129
129
129
129
129
129
129
130
131
131
131
132
132
132
133
132
132
132
131
131
131
130
129
127
126
125
124
122
122
121
120
119
118
118
117
117
117
116
117
117
118
119
120
122
123
123
125
125
125
125
126
126
126
127
126
126
126
125
124
123
123
122
122
122
122
123
123
124
126
129
131
133
136
139
142
146
150
155
159
164
169
175
181
187
193
197
203
207
211
215
220
222
225
226
227
228
227
226
225
223
220
215
210
204
198
192
184
177
170
162
153
146
138
131
124
117
111
105
100
96
91
88
85
82
80
79
77
77
77
78
80
81
83
85
87
90
92
93
95
96
98
100
102
103
104
104
105
106
107
108
109
110
111
111
112
112
113
113
113
114
114
115
116
117
118
118
119
119
120
120
119
120
120
120
120
121
121
121
122
121
121
122
122
121
122
122
122
122
121
120
120
119
118
118
118
117
117
116
116
116
115
116
115
115
115
116
117
117
118
119
120
120
121
122
123
124
125
125
125
125
126
127
127
127
128
128
128
128
128
128
128
129
128
127
127
127
126
127
126
126
125
125
123
122
121
119
118
117
117
116
116
117
117
118
117
117
118
118
119
120
121
122
124
124
126
127
127
127
128
127
127
127
125
124
124
123
122
122
121
121
120
119
118
119
118
120
119
121
122
122
123
124
125
125
126
128
128
129
129
130
130
131
131
132
132
132
132
133
132
132
133
133
134
134
135
135
136
136
136
136
137
136
136
137
136
137
137
137
137
137
136
136
135
135
134
133
133
132
132
131
131
131
130
131
130
131
132
131
132
133
133
135
136
137
139
140
142
144
144
146
147
148
149
149
150
150
151
151
151
151
150
149
149
149
148
148
148
149
149
150
149
151
152
152
152
153
154
155
156
156
157
158
158
159
160
160
161
162
163
164
165
165
165
166
167
167
167
168
169
169
170
170
171
171
171
172
173
173
172
172
172
172
171
171
171
171
171
170
170
170
169
170
170
170
170
169
169
169
168
167
167
167
167
167
167
165
165
163
161
160
159
157
155
154
153
152
150
149
147
146
144
143
143
141
141
141
141
141
141
141
140
140
140
140
140
140
140
140
140
139
137
136
134
134
133
134
134
133
133
132
131
130
130
129
130
130
130
131
131
132
132
132
131
131
132
132
132
132
132
131
131
130
129
128
127
127
125
124
124
123
123
121
121
120
119
119
118
118
117
117
117
117
117
118
118
119
119
119
119
119
121
121
122
123
123
123
124
124
124
124
124
125
126
127
126
127
127
126
126
126
125
124
124
123
124
123
123
123
122
122
121
121
120
120
119
117
117
116
117
116
116
115
115
114
114
114
115
115
115
115
116
116
117
118
118
120
121
121
121
122
123
123
123
125
124
125
125
125
124
124
124
123
123
123
122
122
122
121
121
120
121
120
120
120
121
121
120
121
121
120
120
120
120
119
120
120
119
119
120
119
120
120
121
121
121
121
122
121
122
122
123
123
122
122
122
121
121
121
122
121
121
121
120
120
120
120
121
121
121
122
122
122
123
123
124
124
124
124
123
124
124
124
124
124
123
123
122
121
120
121
119
120
119
119
119
118
118
118
118
118
119
120
121
121
121
122
121
121
121
121
122
121
122
122
122
122
122
122
123
123
122
121
121
121
120
121
121
120
120
121
121
121
120
120
120
119
119
119
119
119
120
119
119
119
119
119
120
120
119
120
120
119
119
119
119
119
119
119
118
118
117
117
116
117
116
115
115
114
114
113
113
114
114
113
113
114
114
114
115
116
116
116
117
117
118
118
118
119
119
119
118
118
118
117
117
117
117
118
117
118
117
117
116
116
116
117
117
118
119
119
120
120
120
121
122
121
121
121
122
120
120
119
118
118
117
116
115
114
114
113
113
113
112
112
111
112
111
112
113
113
114
115
116
116
117
118
118
118
119
119
120
120
120
121
120
120
119
119
119
120
120
120
119
119
119
118
118
118
118
117
117
116
116
116
115
116
115
115
115
115
114
114
114
114
114
114
114
114
114
114
114
114
114
113
113
112
112
111
112
112
112
112
113
113
113
112
112
111
112
112
111
112
112
113
114
114
114
114
113
113
113
113
113
113
113
112
113
113
113
113
113
114
113
113
113
113
113
113
113
114
114
114
115
116
116
117
116
116
115
116
115
116
116
116
116
117
118
117
118
117
117
117
116
116
116
116
115
113
113
112
111
111
110
109
108
108
108
107
107
107
106
106
106
107
107
106
107
107
108
109
109
110
110
111
111
112
112
113
113
113
113
113
113
113
112
112
111
111
111
110
110
110
110
109
109
109
109
109
110
111
111
111
111
111
111
110
110
109
109
109
109
109
109
108
108
107
106
106
104
104
104
103
103
103
103
104
104
104
105
106
106
106
105
106
106
106
106
108
108
108
108
108
108
107
107
108
108
107
108
108
109
109
110
110
110
111
112
112
113
113
114
115
114
115
116
116
116
117
118
118
118
118
120
120
120
120
120
120
120
120
120
120
120
120
120
119
119
118
118
116
116
115
115
114
114
114
114
114
115
116
116
117
118
118
119
121
121
123
124
126
127
127
128
128
129
129
129
129
129
129
128
127
127
126
125
125
125
124
123
122
121
120
120
121
120
120
121
121
121
122
123
124
123
124
124
124
125
125
126
127
127
127
126
127
128
128
128
129
129
128
127
126
126
125
124
123
122
121
120
118
117
115
114
112
110
109
108
107
107
106
106
107
107
108
108
109
110
110
111
113
113
114
116
116
117
117
117
117
116
116
116
115
114
114
113
112
111
111
110
109
109
108
107
107
106
106
105
104
103
102
101
101
100
100
99
98
98
97
97
97
97
98
98
100
102
104
107
109
112
116
120
124
128
133
138
143
147
152
158
163
170
176
183
189
196
201
206
211
215
218
222
225
228
229
230
230
230
228
224
221
217
211
205
198
191
183
176
167
158
149
141
131
123
115
108
101
95
89
83
79
75
71
69
67
66
66
65
67
68
69
70
73
75
77
79
81
84
86
88
90
92
94
96
97
99
100
102
103
103
104
104
104
104
105
104
104
103
103
101
102
101
101
100
100
100
99
100
99
99
99
98
99
99
100
101
102
103
104
104
105
105
105
105
105
105
105
106
105
105
105
104
103
103
102
102
102
102
102
102
102
102
102
101
101
102
101
102
102
102
104
105
106
106
107
107
107
106
106
108
107
107
108
107
108
108
109
109
110
110
110
110
109
108
108
108
108
108
108
108
108
108
107
108
107
107
108
108
108
108
109
109
110
109
109
109
109
109
109
109
108
108
108
107
106
106
106
105
105
105
105
105
106
106
106
106
106
107
106
107
107
108
108
109
109
108
108
108
107
107
106
106
106
106
106
106
106
105
106
106
105
106
106
106
106
106
106
106
107
108
108
109
110
112
112
112
113
113
113
114
115
115
116
116
118
119
118
120
119
119
119
119
119
118
119
118
118
118
117
118
117
116
117
116
116
117
117
118
118
120
120
121
122
123
123
124
125
127
129
130
131
133
134
135
135
136
137
137
138
139
139
140
140
140
140
139
140
139
140
140
140
141
141
141
141
141
141
140
141
141
140
141
141
142
142
143
142
143
143
144
144
145
145
146
147
148
148
149
150
150
150
151
151
152
152
152
152
152
152
152
151
150
150
149
149
148
147
146
145
144
143
143
142
141
141
140
140
140
139
140
140
141
143
143
145
145
146
147
148
149
150
151
152
153
154
154
154
154
154
152
152
151
150
149
147
146
144
143
141
140
138
137
135
134
132
131
129
128
126
126
125
125
124
124
123
122
121
121
121
120
120
119
119
119
118
117
116
116
116
115
115
114
113
112
111
110
109
109
108
108
107
107
108
107
108
109
109
110
109
110
109
110
109
109
109
108
108
108
108
108
107
106
106
105
105
104
102
103
102
102
102
101
102
101
102
101
102
102
103
103
104
104
105
107
107
107
107
108
108
108
109
110
110
111
110
110
110
110
111
111
110
110
110
109
109
109
108
108
107
108
107
107
107
106
106
105
105
105
104
104
104
103
104
103
103
102
102
101
100
100
99
99
99
98
98
99
99
100
100
100
100
101
100
101
102
104
105
105
105
106
107
107
107
108
109
109
109
109
110
110
109
110
109
109
109
109
108
109
109
108
108
109
109
108
108
109
109
109
109
108
108
108
107
107
107
107
106
107
107
106
107
106
107
107
108
107
108
109
109
109
109
109
109
108
107
107
107
106
106
106
105
105
103
103
102
101
101
101
100
101
101
101
101
101
101
102
103
102
102
104
103
104
105
105
105
105
105
106
106
106
106
106
106
105
104
103
103
103
102
101
100
100
99
98
98
97
97
97
96
97
96
97
97
98
98
100
100
101
101
101
102
102
101
102
102
103
104
105
106
106
106
107
107
107
108
109
109
109
109
109
108
107
107
106
105
104
103
102
101
100
99
98
98
97
97
96
96
97
97
97
98
99
99
100
101
101
102
103
103
103
102
103
102
102
101
100
100
99
98
98
97
98
97
97
97
97
97
98
98
98
99
99
100
101
101
102
102
103
104
104
104
104
104
105
104
104
104
104
103
103
102
101
101
100
100
100
99
99
98
98
98
97
99
99
99
100
101
100
101
103
103
103
104
104
105
105
105
104
105
106
105
105
104
103
103
102
102
101
100
99
98
97
96
96
96
97
97
97
97
97
97
96
96
95
95
95
97
98
98
99
100
100
100
100
100
100
101
101
101
101
101
101
102
102
102
102
102
102
101
101
100
100
99
99
98
97
97
97
95
94
94
94
94
94
94
94
94
93
93
93
94
94
95
95
96
97
97
97
98
99
100
101
102
102
103
104
104
104
104
105
105
106
106
106
106
106
105
106
105
105
104
104
103
102
101
101
101
102
101
101
101
100
100
100
100
100
99
98
98
97
97
97
97
97
98
97
97
96
95
95
95
96
96
97
97
98
98
98
98
99
100
100
101
101
101
101
100
101
101
100
100
100
100
99
98
98
97
96
95
94
94
94
94
93
93
94
93
94
94
94
95
96
96
97
97
97
97
98
99
99
100
101
100
101
101
101
101
101
100
99
100
99
98
98
98
98
98
98
97
98
97
97
97
96
96
96
97
97
98
100
100
101
101
101
101
101
101
100
99
100
100
99
100
100
101
100
100
100
99
99
99
99
99
99
100
100
101
101
102
101
101
101
101
101
100
100
101
101
101
102
102
102
102
102
102
102
103
102
103
103
103
104
104
105
105
105
105
105
105
105
106
106
106
108
108
108
110
112
112
114
115
116
117
118
118
119
120
120
121
121
121
121
121
121
121
120
120
120
118
116
115
114
113
113
112
112
111
111
111
110
110
109
109
109
110
110
112
112
113
113
113
114
114
114
115
115
115
115
115
115
114
113
113
111
111
110
109
108
108
107
106
105
104
104
103
102
102
101
101
101
101
101
101
102
101
102
102
102
102
102
102
103
103
103
102
102
102
103
103
102
103
102
102
101
101
101
100
100
99
100
100
100
100
99
99
98
97
97
95
94
93
92
92
91
90
89
88
87
86
86
85
85
84
84
85
86
87
89
90
93
95
97
99
101
105
108
110
115
119
122
128
133
139
145
151
156
162
169
175
181
187
194
200
206
211
216
219
222
225
225
226
225
223
220
216
212
206
200
193
186
177
167
158
148
138
128
117
108
99
90
82
75
68
62
56
51
48
45
45
43
43
43
44
46
48
50
52
54
57
60
62
65
69
71
74
75
78
80
81
82
83
83
84
85
86
88
89
89
90
90
91
92
92
92
92
93
92
92
92
92
91
91
91
91
91
90
89
89
88
87
87
86
86
85
85
85
85
85
86
86
86
87
87
86
86
86
86
86
86
87
87
88
88
89
90
91
90
91
91
91
91
92
91
92
92
92
91
91
91
90
89
89
89
88
88
88
86
86
86
86
86
86
87
88
89
89
90
90
90
90
90
91
92
92
93
92
92
93
92
93
92
92
91
90
90
89
89
90
89
90
91
91
91
92
93
93
93
94
94
93
94
94
96
96
97
97
97
96
96
95
94
95
94
93
93
93
92
92
91
90
90
90
89
89
89
89
88
88
88
88
89
90
90
90
90
91
91
90
91
92
93
94
94
96
96
97
97
97
97
97
97
98
98
97
97
97
96
96
96
96
95
96
96
95
95
96
96
96
95
96
96
96
97
97
99
101
102
102
103
104
104
105
106
107
109
109
110
111
112
113
114
114
115
115
115
116
116
117
117
116
116
116
115
115
114
115
114
115
115
116
115
116
116
116
117
118
118
119
120
121
122
124
126
127
128
129
129
131
131
132
132
133
132
133
133
133
133
132
132
132
131
131
131
131
131
130
129
129
130
130
130
131
130
132
132
133
134
133
133
133
133
134
133
133
132
133
132
131
130
130
130
129
129
128
128
128
128
128
128
129
128
129
128
128
128
128
128
129
129
128
128
126
126
124
124
124
123
123
123
122
121
120
119
117
116
115
115
115
114
114
114
112
112
111
109
108
106
106
105
104
103
103
102
102
101
100
99
98
98
97
97
97
97
97
96
96
97
97
98
98
99
99
99
100
101
101
101
101
101
100
100
100
99
98
97
96
95
94
93
92
90
89
88
87
86
85
83
82
81
80
79
78
78
79
79
79
80
80
80
80
80
80
81
81
81
82
82
82
83
83
83
83
83
83
82
83
82
82
81
81
81
82
82
83
84
85
87
87
87
88
89
89
90
91
91
93
94
94
95
96
96
96
95
95
95
94
93
93
92
91
91
90
89
89
89
88
87
86
87
87
86
86
85
85
85
85
85
85
84
85
85
85
85
85
85
84
84
83
84
83
83
85
84
84
85
85
85
85
86
86
88
88
89
88
89
88
89
89
90
89
90
89
89
90
90
90
89
89
88
88
87
86
86
85
85
84
84
84
84
84
83
83
83
83
84
84
85
85
85
86
87
88
89
90
92
92
93
94
95
95
96
95
95
95
95
95
94
93
92
90
88
87
87
86
85
84
84
82
81
80
79
79
78
79
80
80
80
80
80
80
81
82
82
82
84
84
84
85
85
85
85
84
84
84
83
83
83
82
82
81
80
80
80
79
80
80
80
80
81
81
82
82
83
83
84
85
85
86
87
86
87
86
85
85
84
84
83
83
82
80
80
80
79
79
78
77
78
78
77
78
78
78
79
80
80
82
83
85
86
87
87
87
88
89
89
89
89
89
89
88
87
86
85
84
84
82
81
80
79
78
78
77
76
76
76
76
76
76
75
76
76
77
78
78
78
79
80
80
80
79
80
79
79
79
79
80
79
78
78
77
75
75
75
74
75
74
74
74
74
74
74
74
73
74
74
75
76
76
77
77
78
79
79
80
80
81
81
81
82
81
82
82
82
82
82
82
82
82
81
81
81
80
80
80
80
80
79
79
79
79
78
79
78
78
79
78
78
79
79
78
78
78
78
78
79
79
80
80
80
81
81
81
82
82
83
82
82
83
82
83
83
84
84
84
85
84
85
84
85
84
84
84
84
84
84
84
83
83
83
82
82
82
82
82
82
81
81
81
80
79
79
78
78
77
77
77
76
76
77
77
77
77
77
78
78
78
79
79
81
82
82
83
84
85
86
87
88
88
89
89
89
90
89
89
89
88
89
88
88
88
89
88
88
88
88
87
87
86
87
86
87
85
85
85
85
85
85
84
83
83
82
82
81
81
81
81
80
81
81
82
82
84
84
85
86
87
87
89
90
91
92
93
94
94
95
95
94
94
93
93
93
92
91
91
90
90
88
88
88
87
87
87
87
88
87
87
88
88
89
89
90
91
91
91
91
92
91
91
91
91
91
91
91
92
92
92
92
92
92
92
92
92
92
92
92
91
92
93
94
94
94
94
94
94
94
95
95
95
95
96
96
96
96
96
96
97
96
96
96
96
95
94
94
93
94
94
93
93
93
93
92
92
93
93
93
93
92
93
93
94
94
95
95
96
97
99
99
99
100
101
101
102
103
103
104
105
106
106
107
108
110
110
110
111
111
111
111
112
112
112
112
113
113
113
113
113
113
113
113
113
113
113
113
113
113
113
112
112
112
112
112
111
111
111
110
110
109
108
109
108
109
108
108
108
108
107
106
106
107
106
107
106
106
106
106
106
105
105
104
104
104
104
103
103
104
103
102
102
101
100
99
98
97
96
95
95
94
95
95
95
96
96
97
96
96
96
97
98
98
99
99
100
100
102
102
102
101
101
100
101
99
99
99
98
98
97
96
95
95
95
94
94
94
94
94
94
94
93
93
92
92
93
92
93
93
94
95
95
96
98
98
100
102
103
106
109
111
116
119
123
127
131
137
142
147
152
159
165
170
177
183
189
196
201
206
211
214
218
221
224
225
225
225
224
221
217
213
206
201
193
186
177
169
159
149
140
131
121
112
103
95
86
79
72
67
61
57
53
51
49
47
47
47
47
48
50
51
53
56
58
61
65
69
72
75
77
80
83
86
88
90
91
92
93
94
95
95
95
94
95
94
94
93
92
92
92
91
91
91
91
91
91
92
92
93
93
95
96
97
98
98
99
100
100
101
102
103
103
103
103
103
102
102
101
100
101
101
101
101
101
101
100
100
99
99
99
99
99
99
99
100
100
101
102
102
103
103
103
104
104
104
104
105
105
106
105
106
105
105
106
105
106
105
105
105
104
104
104
103
103
102
101
101
101
101
102
102
102
103
103
103
104
105
105
106
106
107
108
109
111
111
112
114
114
115
116
116
116
116
117
117
117
116
115
115
114
114
113
112
111
112
112
111
112
112
112
112
112
112
113
114
115
115
116
116
117
118
118
118
118
118
118
119
118
117
118
117
117
117
117
118
118
119
119
120
120
121
122
123
125
126
126
128
128
129
128
129
128
127
127
128
128
128
127
127
126
126
125
125
125
124
124
124
124
124
124
125
125
126
127
128
128
130
131
132
133
134
135
136
138
138
140
141
141
142
142
142
143
143
144
144
144
145
145
145
146
146
148
148
149
150
151
153
155
157
158
159
160
161
162
162
163
163
163
164
165
166
166
166
166
166
165
165
165
165
165
165
166
166
167
167
168
169
168
169
169
169
170
171
172
172
172
173
173
173
173
172
172
173
172
172
171
170
170
169
169
168
168
167
166
167
165
165
164
165
164
163
164
164
164
165
165
165
165
165
165
165
165
166
165
165
165
165
164
164
163
163
162
162
162
161
160
158
158
158
157
157
156
156
155
155
154
154
153
152
152
150
150
148
148
148
148
146
145
145
143
143
141
141
141
140
139
138
137
137
135
135
135
134
135
134
134
133
133
132
131
131
132
132
132
133
132
132
132
131
132
131
131
131
131
131
130
130
130
129
129
129
129
128
128
128
127
128
127
127
127
126
126
127
127
127
127
126
126
127
127
128
129
129
129
129
129
129
130
132
133
134
135
136
137
137
138
137
138
138
138
138
139
140
139
139
139
139
140
139
139
139
139
139
137
137
136
136
135
135
134
135
135
134
135
135
134
134
133
133
132
133
133
133
133
134
134
134
135
136
135
135
136
136
137
137
138
138
137
138
138
137
137
137
137
137
137
137
137
137
137
137
137
138
138
138
137
138
139
139
140
139
140
141
140
140
140
140
140
141
140
140
141
141
141
141
142
142
142
142
142
142
142
143
143
144
145
145
145
146
146
147
147
148
149
149
150
150
150
150
151
151
151
152
152
152
153
152
153
152
153
153
153
154
154
153
152
152
151
150
149
149
148
148
148
149
149
149
148
148
148
148
148
149
148
149
149
149
150
150
150
150
151
152
152
151
152
152
151
151
151
152
152
153
153
154
154
154
155
155
154
155
155
155
154
154
154
153
153
152
153
152
153
152
153
155
155
156
155
157
157
157
158
159
160
161
161
163
164
165
166
166
166
167
167
166
165
165
165
166
166
167
167
167
167
167
167
166
167
166
166
166
166
167
166
167
166
166
166
165
165
165
164
164
163
162
161
161
160
159
159
159
159
158
158
158
158
157
157
158
159
160
161
162
162
162
163
163
164
166
167
169
170
171
171
171
172
172
172
173
172
172
172
172
172
171
171
170
170
169
168
167
166
166
166
166
165
166
165
166
166
167
167
167
167
168
168
169
170
171
171
172
172
173
174
174
175
174
175
175
175
175
175
175
174
174
173
172
171
171
171
171
170
170
170
169
168
168
168
168
168
168
169
169
169
170
171
173
174
175
175
175
176
176
177
177
177
177
177
177
177
176
176
175
174
173
171
172
171
171
171
171
171
171
170
171
172
173
175
176
177
179
179
180
181
181
182
183
185
185
185
185
186
186
186
186
185
184
184
183
181
180
180
179
178
178
176
176
175
174
173
172
171
170
170
170
170
171
171
172
172
172
172
173
174
174
175
177
178
179
180
181
182
182
183
183
184
184
184
184
184
184
183
183
182
181
180
179
178
177
177
176
176
175
175
175
175
174
174
174
174
175
176
177
179
180
180
182
182
183
184
184
184
184
185
184
185
184
184
184
184
184
184
183
184
185
185
186
186
186
185
185
186
186
187
188
188
188
188
188
188
187
186
185
185
183
183
182
181
181
180
180
181
182
181
181
182
182
182
183
184
184
186
186
187
187
188
188
188
188
187
188
187
187
186
185
184
184
184
183
183
182
181
181
181
180
181
182
183
183
184
185
186
187
188
190
191
192
194
195
195
195
195
196
196
196
196
195
194
194
193
192
191
191
189
188
188
187
187
187
188
188
189
189
189
189
190
191
191
194
195
197
198
199
200
202
202
205
206
207
207
208
208
208
208
209
208
209
208
208
208
208
208
207
207
207
206
206
206
206
207
206
207
207
209
209
209
209
210
210
210
210
211
210
209
208
207
205
205
203
202
201
199
199
198
197
197
197
196
196
195
194
195
195
195
195
196
196
196
196
196
197
196
195
194
193
192
191
191
190
190
190
190
188
188
188
188
188
188
189
189
190
190
190
190
191
191
191
191
191
191
191
190
190
190
189
189
189
189
189
188
188
187
187
187
187
187
187
187
187
187
188
188
189
189
190
191
192
193
195
196
196
198
200
201
204
207
210
214
219
223
229
233
238
243
249
254
259
265
271
278
283
287
293
296
300
303
305
306
306
306
304
302
299
295
291
285
278
272
264
256
247
238
230
221
212
204
195
187
179
172
164
159
154
150
147
143
142
142
141
141
142
143
145
146
148
150
153
155
159
161
163
166
169
171
173
174
175
175
176
177
177
178
179
179
181
182
182
183
183
184
183
183
183
184
185
185
186
186
186
186
186
187
187
187
188
188
188
190
190
191
192
192
193
192
193
193
194
195
196
197
198
199
198
199
198
198
199
198
199
200
201
202
202
202
202
202
203
203
203
204
204
204
204
204
204
205
204
204
204
204
203
204
204
204
204
203
203
203
203
203
202
202
202
201
201
201
201
201
201
200
199
199
199
199
199
198
199
199
198
198
198
198
198
198
198
199
198
199
199
199
201
202
203
204
205
206
206
206
207
207
207
207
207
208
207
207
206
206
205
205
205
204
203
202
201
200
201
201
202
202
202
203
205
204
205
206
207
209
209
211
212
213
214
214
216
216
216
215
216
215
215
215
215
215
216
216
216
216
216
216
216
217
218
218
219
219
220
220
221
221
220
220
221
221
222
221
222
222
223
223
223
222
222
222
221
221
221
221
222
222
222
221
221
221
221
222
222
222
223
224
225
226
227
227
228
229
230
231
233
234
235
235
237
237
238
239
241
240
241
241
241
241
241
241
240
240
241
241
241
242
242
242
242
242
242
243
242
243
243
244
245
246
247
248
249
250
252
252
253
254
255
256
257
259
260
260
261
261
261
260
259
260
259
257
257
256
256
256
255
255
254
254
253
253
252
252
253
253
253
253
253
254
253
253
253
252
252
252
251
250
250
248
248
247
246
244
243
242
242
240
240
240
239
239
238
238
238
237
237
237
237
236
237
237
236
236
235
234
233
232
232
231
231
230
228
227
226
225
223
222
221
220
218
218
218
217
217
216
216
215
215
215
215
215
215
215
216
215
214
214
214
214
213
213
212
212
211
212
210
210
211
210
211
211
211
211
210
211
210
210
210
210
211
211
212
212
212
212
212
212
211
212
212
212
212
212
213
213
214
213
213
212
212
211
210
211
211
210
210
210
211
210
210
210
210
211
210
211
211
211
210
211
211
211
211
210
211
211
210
209
209
207
207
207
207
207
207
208
208
209
209
209
209
209
208
209
210
211
212
212
213
213
214
214
214
214
215
215
215
215
215
214
214
213
214
213
213
213
213
211
210
210
210
210
210
210
209
210
209
209
210
209
209
208
209
208
209
209
210
211
211
212
213
213
212
213
213
212
213
213
213
213
214
214
215
214
214
213
212
213
212
212
212
212
212
212
211
210
210
209
209
208
208
207
207
207
207
207
207
206
207
207
208
208
209
209
210
210
211
212
213
215
215
215
216
216
217
217
218
219
218
218
217
216
216
215
215
215
215
215
215
215
215
215
215
215
214
214
213
213
212
212
212
212
212
212
212
212
211
211
210
210
210
210
210
209
209
210
210
210
210
210
209
209
209
209
208
209
208
208
208
208
208
208
207
207
207
206
207
207
207
207
208
208
208
209
209
208
209
209
209
209
208
208
207
207
206
206
206
206
206
207
206
206
206
206
205
206
205
205
205
206
206
206
207
208
208
208
209
209
209
209
209
209
209
209
209
209
209
208
207
207
207
206
206
205
204
204
203
204
204
203
203
204
204
204
204
205
205
206
206
206
206
207
208
208
208
208
208
208
209
208
208
208
208
207
208
207
207
207
207
208
208
207
208
208
208
207
207
207
208
208
208
209
209
209
210
210
209
210
209
209
209
209
208
207
207
206
206
207
206
206
205
204
203
202
202
202
203
202
202
202
202
203
204
204
204
205
205
204
205
204
204
204
205
205
205
205
205
205
206
205
205
205
205
205
205
206
206
206
206
206
206
206
206
206
207
206
206
205
205
205
204
203
202
201
201
200
199
198
198
197
196
196
195
195
196
195
196
196
197
197
199
199
200
202
202
203
203
204
205
206
207
207
207
208
209
208
208
208
207
206
205
205
204
204
203
203
202
202
202
202
203
204
204
205
204
206
205
206
205
205
206
206
207
207
206
206
206
206
205
204
204
204
203
203
203
202
202
202
201
201
202
202
203
202
203
203
203
203
204
204
204
204
205
205
205
205
204
205
205
204
205
205
205
204
204
204
205
204
204
203
203
201
201
200
200
198
198
198
197
197
197
196
196
196
195
195
194
195
194
195
196
197
197
198
199
200
201
202
203
203
203
203
205
205
206
206
207
207
207
207
207
206
206
207
206
206
206
205
205
204
204
204
204
205
205
206
206
206
206
206
206
207
207
207
208
209
210
210
211
211
212
211
212
211
211
211
211
211
210
211
211
211
211
211
210
211
210
210
210
211
211
210
211
212
213
214
215
216
216
218
217
218
218
219
218
218
218
217
217
216
216
215
215
215
215
214
213
213
213
212
213
213
214
214
215
216
216
216
216
217
217
217
216
216
216
215
215
214
213
212
211
209
209
207
206
206
204
204
203
202
203
203
203
203
203
203
203
203
204
204
204
205
205
205
205
206
206
206
206
205
205
205
205
204
204
203
202
201
201
200
200
200
200
199
198
197
197
195
195
193
193
192
191
191
191
189
189
188
187
186
186
185
184
184
183
183
182
182
183
183
183
184
185
186
187
188
190
192
195
197
200
204
207
211
216
220
224
229
234
239
244
250
255
261
266
271
277
281
287
291
294
297
300
301
302
302
302
301
300
296
293
289
283
277
270
262
254
246
238
228
220
211
203
195
188
180
174
167
162
156
152
149
145
141
140
139
138
139
139
141
142
143
145
146
148
150
152
155
158
161
164
168
172
174
177
180
181
183
184
186
187
187
189
188
188
188
188
187
186
185
185
184
183
182
181
181
180
180
181
183
184
185
187
188
190
191
193
193
195
195
196
197
197
198
199
198
199
199
198
197
197
196
195
194
194
193
192
191
191
190
190
189
190
190
190
191
191
192
192
192
193
193
193
194
194
194
195
194
195
195
195
195
196
194
194
194
193
193
193
193
193
193
192
192
191
191
191
192
193
192
193
192
193
192
191
191
190
189
189
188
187
188
188
188
188
188
188
188
188
188
188
188
190
191
192
193
195
196
197
198
198
200
200
200
201
201
202
201
201
201
200
200
198
198
197
196
196
195
195
194
194
193
192
191
191
190
190
189
190
191
191
192
192
193
194
194
195
195
196
195
195
196
197
198
199
200
201
201
201
202
202
202
201
201
201
201
200
201
200
200
200
200
199
200
199
200
200
201
201
201
202
204
204
205
205
205
206
205
206
207
207
208
209
209
210
210
212
212
212
212
211
211
211
212
213
214
215
216
218
219
220
221
221
222
222
223
223
223
223
224
224
224
224
225
225
224
225
225
226
226
227
226
227
227
228
229
229
230
230
231
232
233
234
235
236
236
236
236
236
235
236
236
236
236
236
236
235
234
233
233
233
233
233
234
233
233
233
233
233
234
234
234
233
233
234
234
234
234
234
233
233
232
231
231
230
230
228
227
225
224
223
223
221
221
220
218
218
217
216
214
214
213
211
211
210
209
208
207
207
205
205
205
204
204
203
202
203
202
202
202
203
203
204
205
205
206
206
206
206
206
204
204
203
203
202
202
201
200
199
197
196
194
193
192
192
191
190
189
188
188
188
188
187
187
187
188
188
188
187
187
188
187
188
187
187
188
188
188
188
188
189
189
190
190
190
190
190
190
191
190
190
191
191
191
191
191
192
192
191
191
191
192
192
191
191
191
190
190
189
189
189
187
186
185
183
182
180
180
179
179
178
177
176
176
175
175
175
175
176
176
176
177
178
179
180
180
181
182
182
183
184
184
185
186
186
187
188
188
188
188
189
190
191
191
191
191
191
190
189
190
189
190
190
190
189
188
188
187
186
186
186
186
185
185
185
185
185
185
185
186
186
187
187
188
189
189
190
190
190
189
190
191
191
192
191
192
192
192
192
193
193
192
192
192
191
191
190
189
188
186
185
184
183
182
181
179
179
179
178
178
178
178
178
179
179
181
181
182
183
184
184
185
186
187
188
188
188
188
188
187
188
188
188
188
188
187
186
186
185
185
185
185
184
184
184
184
185
186
186
186
187
187
188
188
189
190
191
192
193
194
194
194
194
194
194
194
194
194
195
194
193
191
190
188
187
186
186
186
185
184
183
183
182
181
181
180
180
179
180
179
180
179
179
179
180
180
181
181
181
182
182
182
182
182
183
183
184
184
185
185
186
187
187
187
187
187
187
187
186
186
185
185
184
184
183
182
182
182
180
180
180
178
178
178
178
178
178
178
178
176
176
176
177
179
179
180
180
181
181
181
182
182
182
184
184
185
185
186
186
185
185
185
185
185
184
184
183
184
182
182
182
181
181
182
182
182
182
182
182
182
182
183
183
183
184
184
185
184
185
185
185
184
184
183
182
181
181
180
179
179
179
179
179
179
179
179
179
179
179
181
181
182
183
183
184
185
186
186
186
185
185
186
185
184
184
183
182
181
180
179
177
176
175
175
174
173
173
174
173
174
174
175
176
176
176
178
178
180
181
182
183
184
184
184
184
184
184
184
183
183
182
182
180
180
180
179
179
179
179
179
179
179
180
180
181
181
181
182
183
183
184
184
185
185
184
184
183
183
184
184
184
184
183
183
182
182
181
180
180
179
179
179
178
179
180
179
180
179
179
179
179
178
178
177
178
178
177
178
179
179
180
179
180
180
180
180
180
179
180
181
181
181
181
180
180
180
179
179
178
177
177
175
174
173
172
172
171
171
170
170
170
169
168
168
169
169
169
170
171
172
173
174
175
176
176
178
178
179
180
181
182
183
183
184
185
185
186
186
187
186
186
186
186
187
187
186
186
187
186
185
185
184
183
183
183
182
181
180
178
178
177
176
177
176
176
176
176
175
175
175
175
175
175
176
176
176
177
177
178
178
178
178
177
177
176
176
176
176
176
176
175
176
176
177
177
177
177
177
177
177
178
179
180
182
183
184
185
185
186
186
186
187
188
188
188
188
188
188
188
188
188
188
188
188
188
188
189
189
190
190
189
190
191
191
192
192
194
194
194
195
195
196
196
196
196
196
196
196
197
196
197
196
197
197
197
197
197
197
197
197
196
196
196
195
194
193
193
193
192
192
191
191
189
188
187
185
184
184
183
182
182
181
180
179
178
178
177
177
178
178
177
177
177
177
177
177
176
175
175
174
175
175
176
176
175
176
176
175
174
174
174
173
173
174
174
175
175
175
175
175
175
174
174
174
173
173
174
173
174
174
173
172
171
169
168
167
166
165
165
164
164
163
163
163
163
163
163
164
165
166
168
168
171
172
176
179
181
184
188
191
195
199
204
208
213
220
224
230
235
240
246
251
257
262
267
271
275
278
280
280
282
281
280
278
276
273
269
264
260
254
246
238
230
222
215
207
199
192
183
175
168
161
155
149
144
140
135
132
128
126
125
123
123
123
122
123
123
123
124
127
128
130
134
136
138
140
142
143
145
148
149
151
153
156
159
161
163
165
166
167
168
169
170
171
171
172
171
172
171
171
170
170
169
169
168
166
165
165
163
162
162
161
162
161
161
163
163
163
165
165
167
167
169
170
171
172
173
173
175
174
175
175
175
175
175
175
174
173
173
173
173
172
171
171
170
169
169
168
167
167
167
167
168
168
167
166
166
166
166
166
166
166
166
167
167
166
167
167
168
168
168
168
168
169
168
168
168
169
169
170
170
170
170
169
170
170
169
170
171
170
170
170
171
170
170
171
171
171
171
170
170
170
169
170
170
170
171
170
170
169
169
169
169
169
169
169
169
169
169
170
171
172
172
172
172
172
172
172
171
171
172
171
172
172
172
172
173
172
173
172
173
173
172
172
173
173
173
174
174
175
175
175
176
176
175
176
176
175
175
176
175
175
175
175
175
175
176
177
177
178
178
177
178
178
178
178
178
179
180
182
183
184
185
186
186
187
188
189
190
191
192
193
195
195
196
196
197
197
198
198
197
198
197
197
196
196
196
195
194
192
193
191
192
192
192
192
193
193
194
195
196
197
198
199
200
202
202
203
204
206
206
207
208
208
208
208
208
209
210
210
210
209
210
210
211
210
211
210
211
210
211
210
210
210
210
210
210
212
212
212
212
213
213
213
213
213
213
213
213
212
212
212
212
212
211
211
210
210
210
209
209
209
210
210
209
209
208
208
208
207
207
207
206
206
206
204
204
203
202
199
198
197
196
195
194
194
193
192
191
190
189
188
188
188
188
187
187
187
187
186
185
185
185
184
184
183
182
181
180
179
178
177
177
177
176
175
174
173
174
173
173
173
172
171
171
170
171
170
170
171
170
170
170
169
169
168
168
168
168
168
168
168
168
168
169
169
169
170
170
171
170
171
170
170
171
171
173
173
173
173
172
172
171
171
170
171
170
170
169
168
169
168
168
167
168
167
167
166
166
165
165
165
165
165
165
166
167
166
167
167
167
167
168
169
169
170
171
170
171
171
171
172
172
172
172
172
172
171
171
170
170
169
168
168
167
167
166
165
165
165
166
166
167
166
167
167
168
169
169
169
170
170
170
171
171
171
172
172
172
172
172
171
171
171
171
170
170
169
169
170
170
169
169
170
170
170
170
170
171
170
171
171
173
173
174
173
173
174
173
173
173
173
172
172
172
171
171
169
169
168
168
166
165
165
163
163
162
163
163
163
163
164
164
164
165
166
168
168
169
170
171
172
173
174
174
176
177
177
177
178
178
178
177
178
178
178
179
180
180
179
179
179
179
178
178
177
178
177
178
177
178
178
179
179
180
179
180
180
180
179
180
179
180
180
180
180
180
179
179
178
178
178
177
177
176
175
175
174
173
173
173
174
172
173
173
173
174
174
174
174
174
175
174
175
175
175
175
175
175
175
175
175
175
176
175
175
174
175
173
173
172
172
172
172
172
172
173
173
174
174
175
175
175
177
176
177
178
178
178
178
178
178
177
177
177
176
175
175
174
174
174
173
172
172
171
172
172
172
173
174
175
176
176
177
178
179
179
179
180
181
181
180
180
180
180
179
179
178
177
176
176
175
175
175
175
175
175
176
177
177
178
179
180
182
182
183
184
186
187
187
187
188
188
189
189
188
188
188
188
188
188
188
187
187
186
185
184
184
184
184
184
184
184
184
183
183
183
183
182
183
182
182
182
181
181
181
181
181
181
181
181
181
180
181
181
182
181
181
181
182
182
182
182
183
183
183
183
183
184
183
184
185
184
185
185
185
185
186
186
186
187
187
186
186
186
187
186
186
187
186
186
186
186
187
187
188
190
189
190
190
190
190
190
191
191
192
192
192
192
192
192
192
191
190
190
189
188
188
188
188
188
188
187
187
187
187
187
187
188
189
190
191
191
192
193
193
194
194
195
195
196
196
196
196
196
195
195
196
195
196
195
195
195
193
193
192
192
192
191
191
192
192
192
192
192
192
192
191
191
192
192
193
192
193
194
194
195
195
195
197
198
199
199
200
200
200
201
200
201
200
201
201
200
199
198
197
197
196
196
195
195
193
193
192
191
190
190
189
189
190
190
191
191
191
190
191
191
191
192
193
194
195
196
197
198
199
200
200
201
201
202
202
202
202
201
202
201
201
200
200
201
199
200
199
198
197
197
197
196
195
195
195
195
195
195
195
196
197
197
197
198
198
198
199
199
199
200
201
201
203
203
203
203
202
203
202
203
202
203
203
203
203
203
202
203
204
203
203
204
204
204
204
205
206
207
209
210
211
212
212
212
213
214
216
217
218
219
220
221
221
222
223
222
223
223
223
222
222
221
220
220
219
218
217
217
216
216
215
213
214
213
213
213
213
213
214
215
216
217
218
218
219
221
221
221
222
222
222
221
221
221
219
218
217
216
215
212
212
211
209
207
206
204
203
201
199
199
198
197
197
196
197
197
196
197
197
197
197
198
198
198
199
198
199
199
199
200
201
201
202
202
202
202
203
203
202
203
202
203
203
202
202
201
201
200
200
199
199
198
197
196
195
194
194
192
192
191
190
190
190
189
189
190
190
190
190
189
188
188
188
189
190
191
192
194
197
199
203
206
210
214
218
222
228
234
239
247
254
261
268
275
281
288
294
301
306
310
313
316
319
320
320
320
319
317
314
311
306
301
295
287
280
271
263
254
246
236
228
219
211
203
195
188
181
175
169
165
161
157
155
152
150
149
148
149
149
150
152
154
155
158
160
162
164
166
168
170
172
175
176
178
180
181
182
183
184
185
185
186
187
187
187
188
188
188
188
187
187
186
186
187
187
188
187
188
187
188
188
189
191
191
192
192
193
193
194
195
195
196
196
196
196
195
195
194
194
194
194
194
194
193
193
192
192
191
191
190
189
189
189
189
189
189
189
189
188
189
189
189
190
189
190
191
191
192
193
194
194
194
195
195
195
195
195
193
193
193
192
192
191
191
190
190
189
188
187
188
188
187
187
186
186
186
186
187
187
187
188
188
189
190
191
192
193
194
194
194
196
196
198
199
199
200
200
200
200
200
200
200
200
198
198
197
197
196
195
194
193
192
191
192
192
192
192
192
191
193
193
195
197
198
198
200
200
201
201
203
203
204
204
205
205
205
204
204
203
203
203
204
204
204
204
205
204
204
205
205
206
206
206
207
206
207
207
208
209
209
209
209
208
208
207
206
206
206
206
205
205
204
204
204
205
204
205
205
206
207
207
207
209
209
210
210
211
213
214
215
215
216
217
217
219
219
220
220
221
222
223
223
225
224
225
225
225
225
226
227
228
228
228
229
230
231
231
232
232
233
234
234
235
235
236
236
237
237
237
236
236
235
235
235
235
235
235
235
235
233
233
234
234
234
234
235
235
236
237
237
237
239
239
240
241
242
243
244
243
244
243
243
243
243
243
242
242
242
242
240
239
238
239
238
238
238
238
237
238
238
238
238
238
238
237
238
238
238
237
237
237
237
236
235
232
231
228
226
225
223
222
220
219
217
216
213
211
209
207
205
204
203
202
201
199
199
199
198
198
198
198
198
198
198
199
199
200
200
201
202
203
203
202
203
203
203
203
203
204
203
203
203
203
203
203
203
203
203
203
203
203
201
202
201
202
201
201
201
200
199
199
198
196
196
194
194
193
193
193
193
193
192
192
192
193
192
193
193
193
193
193
194
194
195
195
195
195
196
196
196
196
195
195
194
193
193
193
192
192
192
192
192
192
192
193
192
192
192
193
193
193
194
195
195
196
196
196
196
195
194
193
193
193
192
193
192
191
190
190
188
188
188
188
187
188
189
188
190
190
190
191
191
190
191
192
191
192
193
193
193
193
193
193
193
193
193
193
193
193
195
195
196
196
196
195
196
196
197
198
198
198
199
199
199
198
197
197
196
197
196
195
195
194
194
193
192
192
191
191
190
190
189
189
188
189
188
188
188
188
189
189
189
189
190
190
190
190
191
191
191
191
192
192
193
193
193
193
193
194
193
193
193
193
193
192
193
193
193
193
193
192
192
191
191
192
191
191
190
189
189
189
189
189
189
190
190
190
189
190
191
191
192
193
193
194
194
194
195
195
196
196
196
196
197
196
196
196
195
194
194
193
193
192
191
191
191
190
190
189
189
189
189
189
188
189
189
188
189
189
189
189
188
188
187
187
187
187
186
186
185
184
185
185
186
185
186
186
185
184
184
185
185
186
187
187
188
188
189
188
188
188
189
189
190
190
191
191
192
192
192
192
192
192
192
193
192
192
191
190
191
190
190
189
189
189
188
188
188
187
187
186
185
186
186
187
186
187
188
188
188
188
188
188
187
187
188
188
188
187
186
186
186
186
185
185
184
185
185
186
186
187
187
187
187
188
188
188
188
189
189
190
189
189
189
189
188
188
187
187
187
187
186
186
186
185
186
186
187
188
189
190
191
193
193
194
196
196
197
198
199
199
201
201
203
203
204
203
204
204
204
203
202
202
202
202
202
201
202
201
200
200
200
199
199
200
200
200
200
200
201
201
201
202
202
202
204
204
204
205
205
206
206
206
206
206
206
206
206
207
207
207
208
208
208
208
208
209
210
210
210
211
210
210
210
210
210
210
211
210
211
212
211
211
211
211
210
210
209
209
210
210
209
209
209
210
210
210
209
210
210
211
211
211
211
211
211
212
211
211
211
212
212
213
214
215
216
216
217
217
217
217
218
219
220
220
221
221
222
223
223
224
225
226
227
227
227
227
227
227
227
228
228
228
228
228
228
228
228
227
227
227
227
227
227
228
228
228
229
229
230
231
231
231
232
233
233
234
235
236
237
238
237
238
238
239
238
237
238
238
238
238
238
238
239
239
239
239
239
240
240
241
242
243
243
243
245
245
246
247
246
247
247
248
247
247
247
247
248
248
248
247
247
247
246
246
246
246
246
246
246
247
247
247
247
247
247
247
248
248
249
250
251
252
253
254
255
255
256
257
257
259
260
261
261
262
261
261
262
262
262
262
262
261
262
261
260
260
260
260
260
259
259
259
258
258
258
258
257
257
257
257
258
258
258
258
258
259
258
259
259
261
262
263
265
265
266
267
269
270
272
274
275
276
278
278
279
280
283
283
285
285
285
285
285
285
285
285
286
286
286
286
285
285
285
285
285
285
285
285
285
284
284
284
284
284
285
285
286
286
287
287
287
287
288
288
289
290
291
291
291
292
292
292
291
292
292
292
292
293
292
291
290
290
289
288
288
287
287
287
286
286
286
286
286
284
284
284
283
283
282
282
282
282
282
282
281
281
281
281
281
281
280
279
279
278
278
278
278
277
277
277
277
277
276
275
275
275
275
275
276
275
275
275
274
273
273
273
273
273
273
273
273
273
274
273
273
272
273
272
273
272
272
272
272
271
270
269
269
269
269
269
269
269
268
268
267
268
269
270
271
272
274
276
279
282
286
290
294
298
304
309
314
321
327
332
339
345
352
358
364
371
376
382
387
392
395
398
400
402
402
403
402
400
397
394
388
383
377
370
362
355
346
338
329
320
310
301
293
284
276
270
262
257
251
246
242
239
236
234
232
231
230
230
231
232
233
234
236
238
240
243
244
247
249
251
253
255
256
257
259
260
262
263
265
265
266
266
265
266
266
267
267
269
269
270
271
271
271
272
273
274
275
275
276
276
277
277
278
278
278
279
279
279
279
279
278
279
279
278
278
278
279
278
278
279
279
280
280
280
281
281
282
282
283
282
283
283
284
284
285
284
285
285
284
284
283
283
282
282
281
281
280
280
278
277
277
277
276
276
275
274
273
273
273
274
274
276
276
276
276
277
277
278
279
279
280
281
281
281
282
282
283
284
284
285
285
285
287
287
288
288
289
289
290
290
291
291
292
292
293
293
292
291
291
290
290
290
290
290
289
288
288
288
287
286
286
286
287
287
287
287
287
287
288
288
289
288
289
290
291
292
293
293
294
294
295
296
295
297
297
297
298
298
298
299
299
298
298
298
298
297
297
297
296
296
296
296
296
296
296
296
297
298
298
299
299
301
302
303
305
306
307
308
309
311
313
314
315
316
316
317
316
316
316
316
315
315
315
315
314
315
315
315
315
316
315
315
315
316
316
316
317
318
319
320
321
321
321
321
322
322
322
322
323
323
323
324
325
325
326
326
326
327
327
327
328
329
331
332
334
335
336
337
338
338
339
340
341
342
342
343
343
343
343
343
343
343
343
343
342
342
342
342
342
342
342
341
342
341
341
341
342
342
343
344
344
343
344
343
343
344
343
344
344
344
343
343
343
342
342
342
342
340
340
339
339
337
336
336
335
335
334
335
334
334
334
334
332
332
331
331
331
330
330
329
329
328
327
326
326
324
323
322
320
319
317
315
315
313
313
311
310
308
307
306
305
304
303
303
303
302
302
301
301
300
300
299
299
299
299
299
299
300
300
301
301
301
301
302
301
301
302
303
302
302
301
301
300
300
300
300
299
298
297
297
296
296
295
294
294
294
293
293
293
293
293
293
294
293
293
293
292
292
293
293
294
294
294
294
294
293
294
294
295
295
295
295
295
296
296
295
295
296
296
295
295
295
295
295
295
294
295
295
296
296
296
296
295
295
296
295
296
297
296
297
297
296
296
296
296
295
295
294
294
295
294
294
294
293
293
293
292
292
291
292
292
292
293
293
293
293
293
292
291
291
291
292
293
294
294
295
295
296
296
295
296
295
295
295
295
295
296
295
296
297
297
297
297
297
297
298
297
297
297
297
298
298
299
299
300
300
300
301
301
300
300
301
300
300
299
299
299
299
299
299
299
299
299
298
298
298
298
298
298
297
298
297
297
296
295
295
294
294
293
293
293
292
291
291
290
289
290
291
291
292
292
292
292
293
293
293
294
294
295
296
296
297
296
297
297
297
296
297
296
295
295
295
295
295
295
296
296
295
295
295
295
295
295
294
294
294
293
293
292
292
291
290
290
290
288
287
287
286
286
285
284
284
285
285
286
287
288
288
289
290
290
291
292
293
292
294
294
294
294
294
293
293
293
291
291
290
289
289
288
288
287
287
287
286
286
286
286
286
286
287
287
287
286
286
287
286
287
287
288
289
289
289
290
290
290
290
290
290
290
291
291
292
292
292
292
292
290
290
289
288
288
287
287
287
285
285
284
284
284
283
283
282
282
282
282
284
284
286
286
287
288
288
289
290
292
292
293
293
294
294
294
294
295
295
294
294
293
293
291
290
289
287
286
286
286
286
285
284
283
282
281
281
281
280
280
280
281
281
283
283
283
283
285
285
286
287
287
287
286
287
288
289
290
290
291
291
291
292
292
292
292
292
292
292
293
292
293
293
292
291
290
290
288
287
287
286
285
284
284
282
281
280
279
278
278
277
276
276
276
276
276
275
276
276
278
279
280
281
281
282
283
284
286
287
289
289
291
292
294
294
294
294
294
294
294
294
294
294
293
291
291
290
289
287
285
284
283
282
281
280
279
278
279
278
278
278
277
277
277
277
277
276
277
278
278
278
278
279
279
279
279
279
278
279
279
279
280
279
279
279
280
281
281
281
282
282
