# Simple Text Format
# Sampling Rate (Hz):= 1200.00
# Resolution:= 12
# Labels:= ECG	 V3
# Age:=	65
# Gender:=	Masculino
-84
-84
-84
-84
-84
-83
-83
-83
-83
-84
-83
-83
-82
-83
-83
-83
-84
-85
-84
-84
-85
-85
-86
-86
-86
-85
-85
-85
-86
-86
-86
-85
-85
-85
-85
-85
-85
-84
-84
-84
-83
-83
-84
-84
-83
-84
-83
-83
-83
-83
-83
-82
-82
-82
-82
-82
-82
-82
-82
-81
-80
-81
-82
-82
-82
-83
-82
-83
-84
-85
-86
-86
-86
-85
-85
-85
-86
-86
-86
-85
-84
-84
-85
-84
-84
-82
-82
-82
-81
-81
-81
-81
-81
-81
-81
-82
-82
-82
-82
-81
-82
-82
-83
-83
-83
-83
-83
-84
-84
-84
-85
-85
-84
-84
-84
-84
-84
-84
-83
-82
-81
-82
-81
-82
-82
-82
-81
-81
-81
-81
-81
-80
-79
-78
-78
-78
-78
-78
-78
-78
-79
-80
-80
-81
-81
-82
-81
-81
-83
-83
-84
-84
-85
-84
-85
-85
-86
-86
-86
-85
-86
-85
-86
-85
-85
-85
-85
-84
-84
-85
-84
-83
-83
-82
-82
-81
-82
-81
-81
-79
-79
-79
-78
-79
-78
-78
-77
-78
-79
-80
-80
-80
-80
-80
-81
-80
-81
-81
-82
-81
-82
-82
-83
-83
-84
-83
-83
-83
-83
-83
-84
-83
-83
-82
-82
-82
-82
-82
-81
-81
-80
-80
-80
-80
-80
-79
-79
-78
-79
-79
-79
-79
-79
-79
-78
-79
-80
-80
-79
-80
-80
-80
-81
-82
-81
-82
-82
-83
-83
-83
-83
-82
-82
-80
-81
-82
-82
-81
-81
-80
-79
-79
-78
-79
-78
-78
-77
-77
-77
-77
-77
-77
-77
-76
-77
-77
-77
-76
-76
-75
-75
-74
-74
-73
-72
-71
-71
-71
-71
-70
-69
-68
-67
-67
-66
-65
-65
-65
-64
-64
-63
-63
-64
-64
-64
-64
-64
-63
-63
-64
-64
-64
-63
-63
-63
-64
-64
-65
-65
-65
-65
-67
-67
-69
-70
-69
-70
-71
-72
-73
-74
-75
-75
-76
-76
-76
-77
-78
-77
-77
-77
-78
-78
-78
-78
-78
-78
-78
-79
-79
-79
-80
-80
-80
-81
-81
-81
-82
-81
-82
-81
-81
-82
-83
-82
-82
-81
-81
-81
-81
-81
-81
-79
-79
-79
-80
-80
-80
-79
-79
-79
-80
-80
-81
-81
-81
-81
-82
-83
-83
-83
-83
-83
-83
-84
-84
-84
-85
-84
-83
-83
-82
-82
-83
-82
-82
-81
-81
-81
-82
-82
-82
-81
-80
-80
-80
-81
-80
-79
-78
-78
-77
-77
-75
-74
-72
-70
-68
-66
-63
-60
-56
-52
-49
-44
-40
-35
-31
-25
-20
-15
-11
-7
-5
-2
0
2
2
1
-1
-5
-9
-13
-18
-25
-33
-42
-50
-60
-69
-79
-89
-100
-110
-120
-128
-137
-145
-154
-163
-171
-179
-186
-193
-200
-207
-214
-221
-227
-233
-241
-247
-254
-260
-266
-271
-275
-278
-283
-285
-287
-287
-285
-283
-280
-277
-271
-266
-259
-251
-243
-234
-225
-215
-205
-194
-184
-174
-165
-156
-148
-139
-131
-124
-117
-111
-106
-101
-96
-91
-88
-85
-83
-81
-79
-78
-76
-75
-75
-75
-74
-73
-72
-70
-70
-71
-70
-70
-68
-68
-67
-67
-66
-65
-65
-64
-64
-63
-63
-63
-63
-62
-62
-61
-61
-61
-62
-62
-62
-62
-63
-62
-62
-63
-62
-62
-61
-61
-61
-60
-60
-59
-58
-56
-55
-55
-54
-53
-51
-50
-49
-49
-48
-48
-48
-47
-47
-46
-46
-46
-47
-46
-46
-47
-47
-48
-49
-49
-49
-49
-49
-49
-49
-49
-50
-49
-49
-49
-49
-49
-50
-49
-49
-47
-47
-46
-46
-46
-45
-44
-43
-43
-43
-42
-42
-41
-41
-40
-40
-39
-39
-39
-37
-38
-38
-38
-38
-37
-37
-35
-34
-34
-34
-34
-34
-33
-33
-32
-32
-32
-31
-31
-29
-28
-27
-27
-27
-26
-25
-25
-25
-24
-25
-24
-24
-23
-22
-21
-22
-22
-22
-22
-21
-20
-20
-19
-19
-18
-16
-15
-14
-12
-11
-10
-9
-8
-6
-5
-4
-2
-2
-1
1
2
2
3
4
5
5
6
7
7
8
7
8
9
10
10
11
12
13
15
16
17
19
20
21
23
24
26
28
30
31
32
34
36
37
39
40
41
43
45
47
49
50
51
52
53
56
57
58
60
60
61
62
63
65
65
66
65
66
66
67
69
68
69
69
69
70
71
72
72
72
72
73
74
75
76
76
77
77
78
79
80
79
80
80
80
80
81
80
80
80
79
79
79
78
78
77
75
74
73
72
72
70
68
66
66
65
64
63
61
59
57
55
54
53
52
49
47
45
45
44
42
41
40
37
36
35
33
31
29
27
25
23
22
20
18
16
13
12
10
8
6
4
2
0
-2
-3
-4
-6
-8
-10
-12
-14
-15
-16
-17
-19
-20
-21
-23
-24
-24
-25
-26
-28
-29
-30
-30
-32
-32
-34
-36
-36
-37
-38
-39
-41
-42
-43
-44
-44
-45
-45
-46
-47
-48
-48
-48
-49
-49
-50
-51
-51
-52
-51
-53
-53
-54
-54
-54
-54
-53
-54
-55
-55
-55
-55
-54
-54
-54
-54
-54
-54
-54
-53
-54
-54
-55
-56
-56
-56
-56
-57
-58
-58
-59
-60
-59
-60
-60
-61
-62
-62
-62
-61
-61
-62
-62
-62
-62
-61
-61
-61
-61
-60
-60
-60
-60
-59
-59
-58
-59
-58
-58
-57
-57
-58
-57
-57
-57
-56
-55
-55
-55
-55
-55
-54
-53
-52
-52
-53
-53
-53
-52
-51
-51
-51
-51
-51
-50
-50
-49
-50
-51
-50
-51
-51
-50
-50
-49
-49
-51
-50
-50
-49
-50
-51
-51
-50
-50
-50
-50
-50
-50
-51
-50
-50
-50
-50
-50
-51
-52
-52
-52
-51
-51
-52
-53
-52
-53
-52
-52
-53
-53
-53
-53
-53
-53
-52
-53
-54
-54
-55
-55
-54
-54
-55
-55
-56
-56
-56
-56
-56
-56
-57
-56
-56
-55
-56
-56
-56
-56
-56
-55
-54
-54
-55
-55
-55
-55
-54
-54
-55
-55
-56
-56
-56
-56
-56
-57
-57
-57
-57
-58
-59
-59
-60
-60
-61
-61
-61
-60
-60
-61
-61
-61
-61
-61
-61
-61
-61
-61
-61
-61
-60
-60
-61
-61
-61
-61
-61
-61
-62
-62
-62
-63
-63
-62
-62
-63
-63
-63
-63
-64
-63
-63
-64
-65
-66
-66
-65
-66
-66
-66
-66
-66
-67
-66
-66
-67
-68
-68
-68
-68
-68
-67
-68
-68
-69
-68
-68
-68
-68
-68
-68
-68
-67
-67
-66
-66
-66
-68
-67
-66
-67
-67
-67
-67
-68
-68
-67
-67
-67
-68
-67
-68
-67
-66
-67
-66
-66
-67
-67
-67
-66
-67
-67
-68
-67
-67
-66
-66
-66
-67
-68
-68
-68
-67
-67
-67
-68
-69
-69
-69
-68
-68
-69
-69
-69
-69
-68
-69
-70
-70
-70
-70
-70
-70
-70
-70
-70
-71
-71
-71
-72
-72
-72
-71
-71
-71
-71
-70
-70
-70
-70
-69
-69
-68
-68
-68
-67
-67
-67
-66
-66
-66
-67
-67
-67
-66
-66
-67
-67
-68
-68
-68
-68
-67
-67
-68
-68
-68
-68
-68
-67
-68
-68
-69
-68
-69
-69
-68
-68
-69
-69
-70
-69
-68
-68
-69
-69
-70
-69
-70
-69
-69
-70
-70
-70
-70
-71
-70
-70
-71
-70
-71
-70
-71
-71
-71
-72
-72
-72
-71
-71
-71
-71
-72
-73
-72
-72
-72
-73
-73
-73
-72
-72
-71
-71
-71
-72
-71
-72
-70
-70
-69
-70
-69
-70
-69
-69
-69
-69
-68
-68
-68
-68
-68
-68
-68
-69
-69
-69
-69
-69
-69
-70
-72
-72
-72
-73
-73
-73
-73
-73
-74
-74
-73
-73
-73
-74
-75
-74
-74
-74
-74
-73
-74
-73
-72
-72
-72
-71
-71
-71
-70
-70
-70
-69
-70
-69
-69
-69
-68
-68
-68
-68
-69
-69
-69
-69
-69
-70
-70
-71
-71
-72
-72
-72
-73
-73
-74
-74
-74
-74
-75
-75
-76
-76
-75
-75
-75
-75
-74
-74
-75
-73
-72
-72
-71
-71
-70
-70
-70
-69
-69
-70
-70
-70
-69
-69
-69
-70
-70
-71
-72
-72
-72
-72
-73
-73
-73
-73
-74
-73
-73
-74
-73
-73
-72
-72
-71
-71
-71
-70
-70
-69
-69
-68
-68
-69
-70
-69
-68
-69
-69
-69
-70
-70
-70
-70
-70
-70
-70
-71
-70
-69
-70
-70
-71
-71
-71
-71
-72
-71
-71
-71
-73
-72
-73
-74
-74
-74
-75
-75
-75
-74
-75
-75
-75
-75
-75
-75
-75
-75
-75
-75
-75
-75
-74
-74
-74
-74
-73
-73
-72
-71
-71
-71
-70
-70
-70
-69
-69
-68
-67
-67
-67
-66
-65
-64
-64
-64
-64
-63
-64
-62
-62
-61
-61
-61
-61
-61
-60
-60
-59
-59
-59
-58
-57
-57
-56
-56
-56
-56
-55
-54
-53
-53
-53
-54
-53
-53
-52
-52
-53
-53
-53
-54
-54
-55
-56
-57
-57
-59
-59
-60
-62
-62
-63
-65
-66
-68
-69
-70
-70
-71
-72
-73
-73
-73
-73
-73
-74
-74
-74
-74
-73
-72
-72
-72
-73
-73
-74
-73
-73
-74
-74
-74
-73
-73
-73
-73
-73
-73
-73
-72
-72
-72
-71
-72
-73
-72
-72
-72
-73
-73
-73
-74
-74
-75
-76
-76
-76
-77
-76
-76
-76
-76
-76
-77
-77
-76
-76
-76
-75
-74
-75
-74
-74
-72
-72
-72
-72
-72
-71
-71
-70
-70
-70
-71
-72
-71
-71
-70
-70
-69
-69
-69
-68
-67
-67
-66
-65
-65
-63
-60
-57
-54
-52
-49
-46
-43
-38
-33
-29
-24
-20
-15
-9
-4
0
4
6
9
10
11
11
10
6
2
-3
-11
-18
-28
-38
-49
-61
-74
-87
-100
-113
-127
-141
-155
-167
-178
-190
-201
-212
-222
-232
-241
-248
-256
-262
-269
-275
-281
-285
-289
-294
-298
-301
-303
-306
-306
-307
-307
-307
-305
-302
-299
-294
-289
-284
-278
-271
-262
-253
-244
-235
-226
-216
-206
-197
-186
-176
-167
-157
-148
-140
-132
-124
-116
-109
-103
-97
-92
-86
-82
-77
-75
-72
-69
-66
-63
-61
-59
-59
-58
-57
-56
-56
-55
-55
-55
-54
-54
-53
-52
-51
-51
-51
-51
-51
-50
-50
-50
-50
-49
-50
-49
-48
-48
-48
-49
-49
-49
-48
-47
-47
-46
-46
-45
-45
-44
-42
-41
-40
-40
-39
-38
-38
-38
-37
-38
-37
-37
-37
-36
-36
-36
-36
-36
-38
-37
-38
-38
-38
-38
-39
-39
-38
-38
-37
-37
-37
-36
-36
-35
-33
-33
-32
-32
-32
-30
-30
-30
-28
-28
-29
-28
-28
-28
-28
-29
-28
-28
-28
-28
-28
-27
-28
-28
-27
-26
-26
-25
-25
-25
-24
-23
-22
-21
-20
-21
-21
-20
-19
-18
-18
-18
-18
-18
-18
-16
-17
-16
-16
-16
-17
-16
-16
-15
-16
-15
-15
-14
-13
-13
-12
-11
-11
-11
-9
-8
-7
-6
-6
-5
-5
-4
-3
-3
-2
-2
-2
-1
0
0
1
2
3
3
3
5
6
7
8
8
10
10
12
13
15
16
17
18
20
22
22
24
25
25
27
28
30
30
31
32
33
35
37
38
39
40
41
43
44
46
47
48
49
50
53
54
56
58
60
60
61
62
64
66
67
67
68
68
70
71
72
73
73
75
76
78
78
79
79
79
80
81
81
82
83
82
82
82
82
84
84
84
84
84
85
86
87
87
87
86
87
87
87
87
88
87
87
87
87
87
87
85
85
84
84
83
83
82
81
80
79
78
78
77
77
75
74
73
72
71
69
68
66
65
64
62
61
59
57
54
52
50
48
47
45
43
40
39
37
35
33
32
30
28
26
25
24
22
19
17
16
13
12
11
8
6
3
1
-1
-3
-5
-7
-9
-11
-13
-14
-16
-18
-20
-22
-24
-25
-27
-27
-29
-31
-33
-34
-35
-36
-36
-38
-39
-40
-42
-43
-44
-45
-47
-48
-49
-50
-51
-52
-52
-54
-55
-55
-55
-55
-55
-56
-57
-57
-57
-57
-56
-57
-56
-57
-57
-57
-57
-57
-57
-57
-58
-58
-58
-58
-58
-58
-58
-59
-58
-57
-56
-56
-57
-57
-57
-56
-56
-56
-56
-56
-57
-57
-58
-58
-58
-59
-59
-59
-59
-59
-59
-61
-61
-62
-63
-63
-63
-63
-63
-63
-64
-63
-63
-63
-62
-62
-62
-62
-62
-61
-60
-60
-60
-60
-60
-60
-59
-59
-59
-59
-60
-60
-59
-59
-58
-57
-58
-57
-57
-56
-55
-56
-55
-55
-55
-54
-54
-53
-53
-52
-53
-52
-52
-51
-50
-51
-51
-51
-51
-51
-51
-51
-51
-52
-53
-52
-52
-52
-53
-53
-53
-53
-53
-53
-53
-53
-53
-53
-53
-52
-52
-52
-51
-52
-52
-52
-51
-52
-51
-52
-52
-52
-52
-52
-52
-52
-53
-54
-54
-54
-54
-55
-56
-56
-56
-57
-56
-56
-57
-58
-58
-59
-59
-59
-60
-59
-60
-60
-60
-58
-59
-59
-59
-59
-59
-59
-58
-58
-58
-58
-58
-58
-57
-56
-56
-56
-56
-56
-57
-56
-56
-57
-56
-56
-57
-57
-57
-57
-58
-59
-59
-60
-61
-60
-60
-61
-61
-61
-61
-61
-61
-62
-63
-62
-64
-63
-62
-63
-63
-63
-62
-62
-63
-62
-62
-62
-62
-62
-61
-60
-59
-60
-60
-61
-61
-61
-61
-62
-63
-63
-65
-66
-65
-66
-67
-68
-69
-70
-71
-71
-72
-72
-74
-74
-74
-73
-73
-73
-72
-72
-72
-72
-72
-72
-72
-72
-72
-72
-72
-71
-71
-71
-71
-72
-72
-72
-72
-72
-72
-73
-72
-73
-72
-71
-70
-71
-71
-70
-70
-70
-69
-69
-69
-69
-68
-68
-67
-67
-68
-67
-68
-68
-69
-68
-69
-69
-68
-68
-68
-69
-68
-69
-70
-71
-71
-71
-72
-72
-72
-72
-72
-72
-71
-71
-70
-70
-70
-70
-69
-69
-68
-69
-68
-69
-69
-68
-68
-68
-69
-70
-71
-70
-71
-72
-72
-73
-74
-74
-74
-75
-75
-76
-77
-77
-77
-76
-76
-75
-75
-75
-75
-73
-73
-72
-71
-71
-71
-71
-69
-69
-68
-67
-68
-67
-67
-67
-68
-68
-68
-69
-70
-69
-70
-70
-71
-71
-71
-72
-74
-73
-74
-74
-74
-74
-74
-75
-74
-74
-74
-75
-74
-74
-74
-73
-73
-73
-72
-72
-72
-70
-70
-69
-69
-69
-69
-68
-68
-69
-68
-69
-69
-69
-69
-68
-68
-69
-70
-70
-71
-71
-71
-71
-73
-73
-73
-73
-73
-73
-73
-73
-73
-73
-73
-72
-72
-72
-72
-73
-73
-72
-72
-71
-71
-71
-71
-71
-70
-70
-71
-71
-72
-71
-71
-71
-70
-71
-71
-71
-71
-71
-71
-71
-71
-72
-73
-74
-74
-74
-75
-76
-76
-77
-77
-76
-76
-76
-76
-76
-76
-75
-74
-74
-74
-73
-73
-72
-72
-71
-71
-70
-70
-69
-69
-69
-69
-68
-68
-69
-69
-69
-69
-69
-70
-71
-71
-71
-71
-72
-73
-73
-73
-74
-73
-73
-74
-74
-75
-75
-74
-74
-74
-74
-74
-74
-74
-73
-73
-73
-73
-73
-73
-72
-73
-72
-72
-72
-72
-72
-71
-71
-71
-71
-71
-72
-72
-71
-72
-71
-71
-71
-73
-72
-72
-71
-72
-71
-71
-71
-71
-70
-70
-69
-69
-69
-69
-68
-67
-66
-66
-65
-65
-65
-63
-63
-63
-62
-62
-62
-60
-59
-59
-59
-59
-59
-59
-58
-58
-57
-57
-58
-57
-57
-57
-56
-56
-56
-57
-57
-57
-58
-57
-58
-60
-60
-62
-62
-63
-63
-64
-65
-66
-66
-67
-67
-68
-69
-70
-70
-71
-70
-70
-69
-70
-71
-70
-70
-70
-70
-70
-70
-70
-70
-70
-70
-70
-71
-71
-71
-72
-71
-71
-72
-72
-74
-73
-74
-73
-73
-74
-75
-75
-75
-75
-75
-74
-76
-75
-76
-76
-76
-76
-76
-77
-78
-78
-78
-78
-78
-78
-80
-80
-79
-79
-78
-78
-78
-79
-78
-78
-76
-76
-75
-75
-76
-75
-74
-74
-73
-73
-72
-73
-72
-72
-72
-71
-72
-71
-71
-70
-70
-69
-69
-69
-68
-68
-67
-65
-64
-63
-61
-60
-57
-54
-52
-48
-45
-41
-37
-33
-28
-22
-19
-14
-11
-8
-4
-1
1
1
1
-1
-3
-7
-12
-18
-26
-34
-44
-54
-65
-76
-90
-103
-116
-129
-143
-155
-168
-180
-191
-203
-212
-221
-228
-236
-244
-251
-258
-264
-269
-274
-278
-283
-287
-291
-293
-296
-299
-300
-302
-303
-304
-304
-304
-303
-300
-296
-293
-287
-281
-274
-267
-259
-251
-242
-233
-222
-212
-202
-192
-183
-173
-162
-153
-143
-134
-126
-117
-110
-102
-95
-89
-84
-79
-75
-70
-66
-64
-61
-58
-57
-55
-54
-53
-52
-51
-52
-50
-50
-49
-49
-49
-50
-50
-51
-51
-51
-51
-50
-51
-52
-51
-51
-50
-49
-49
-49
-49
-47
-46
-46
-45
-44
-44
-43
-41
-41
-40
-38
-38
-37
-37
-36
-36
-35
-36
-36
-36
-34
-35
-34
-35
-35
-35
-37
-37
-36
-37
-37
-38
-38
-38
-38
-38
-38
-38
-37
-38
-37
-37
-36
-35
-36
-35
-34
-34
-32
-33
-32
-32
-33
-32
-31
-30
-31
-30
-31
-31
-30
-30
-30
-30
-31
-31
-30
-29
-29
-28
-28
-28
-28
-28
-26
-26
-25
-25
-25
-24
-23
-22
-21
-20
-20
-20
-19
-19
-18
-18
-18
-18
-18
-18
-18
-17
-16
-17
-17
-17
-15
-15
-14
-15
-15
-14
-14
-13
-12
-12
-11
-10
-10
-9
-8
-7
-6
-5
-4
-4
-2
-1
0
1
2
2
3
5
6
7
7
8
9
9
11
12
12
13
13
14
15
16
18
18
18
18
19
20
21
21
22
22
23
24
26
27
29
29
31
33
34
36
38
40
41
42
43
45
47
48
49
50
51
52
53
54
56
57
58
59
61
62
63
64
65
65
66
68
70
71
72
73
74
75
76
78
78
79
79
79
80
82
82
83
83
83
83
84
85
85
85
84
84
85
85
86
86
86
87
86
87
88
88
88
88
88
88
88
89
89
88
87
86
86
85
85
84
82
81
80
80
79
77
76
74
72
71
70
69
67
65
64
61
61
59
58
56
54
52
51
49
47
45
43
40
37
35
33
31
28
26
23
20
18
16
14
12
10
7
6
3
2
1
-1
-3
-5
-6
-7
-8
-10
-11
-13
-14
-16
-17
-18
-20
-22
-24
-26
-27
-28
-29
-31
-33
-34
-36
-36
-37
-39
-41
-42
-44
-44
-45
-45
-46
-47
-48
-49
-49
-50
-50
-51
-51
-53
-53
-54
-53
-54
-54
-55
-55
-56
-56
-56
-56
-57
-58
-59
-58
-59
-59
-59
-59
-61
-61
-62
-63
-63
-64
-65
-65
-65
-65
-64
-64
-64
-63
-63
-62
-61
-60
-60
-61
-60
-60
-59
-59
-58
-59
-59
-59
-59
-59
-58
-59
-59
-59
-60
-60
-60
-60
-61
-61
-62
-62
-61
-61
-61
-62
-62
-62
-62
-61
-61
-61
-62
-62
-62
-62
-62
-62
-62
-61
-61
-61
-61
-61
-60
-61
-61
-61
-60
-60
-60
-60
-60
-60
-60
-59
-58
-57
-57
-57
-57
-57
-56
-56
-56
-57
-56
-56
-56
-55
-55
-54
-55
-55
-55
-54
-54
-54
-54
-55
-55
-55
-56
-55
-55
-56
-57
-57
-58
-58
-57
-58
-58
-59
-59
-59
-59
-59
-60
-60
-61
-60
-60
-60
-59
-60
-59
-60
-59
-58
-58
-58
-58
-58
-58
-58
-57
-57
-57
-57
-58
-59
-59
-59
-59
-60
-61
-61
-61
-61
-61
-62
-62
-63
-64
-63
-63
-63
-63
-64
-64
-65
-65
-63
-63
-64
-65
-65
-65
-65
-65
-65
-65
-66
-66
-66
-67
-67
-67
-69
-69
-69
-70
-70
-70
-72
-72
-72
-73
-73
-73
-73
-74
-74
-74
-74
-74
-74
-74
-74
-75
-75
-74
-74
-74
-74
-76
-75
-75
-75
-74
-74
-74
-74
-74
-74
-73
-74
-74
-74
-75
-75
-75
-74
-75
-75
-75
-76
-76
-75
-75
-76
-76
-76
-76
-75
-74
-74
-73
-74
-74
-74
-74
-73
-73
-73
-73
-73
-73
-73
-72
-73
-74
-74
-74
-75
-74
-75
-75
-75
-77
-77
-77
-77
-77
-78
-78
-79
-78
-78
-77
-78
-78
-79
-78
-79
-78
-79
-79
-79
-79
-80
-79
-79
-79
-79
-80
-81
-80
-80
-80
-80
-81
-81
-80
-80
-80
-80
-80
-81
-81
-80
-80
-80
-79
-80
-80
-80
-80
-80
-79
-79
-79
-79
-79
-78
-78
-78
-78
-78
-78
-78
-78
-77
-77
-77
-77
-78
-78
-78
-79
-79
-79
-81
-81
-81
-81
-81
-82
-82
-83
-83
-83
-83
-82
-82
-83
-83
-83
-83
-82
-82
-82
-82
-82
-81
-80
-80
-80
-80
-81
-81
-80
-81
-81
-80
-80
-80
-80
-79
-79
-80
-80
-81
-80
-80
-79
-79
-80
-80
-80
-81
-81
-80
-81
-81
-82
-82
-82
-82
-82
-83
-83
-84
-84
-84
-83
-83
-83
-84
-84
-84
-84
-83
-84
-84
-85
-84
-84
-84
-84
-83
-84
-85
-84
-84
-84
-84
-84
-84
-85
-85
-84
-84
-84
-84
-84
-84
-84
-83
-83
-83
-82
-82
-83
-82
-81
-82
-81
-81
-81
-81
-82
-81
-82
-82
-83
-83
-83
-82
-83
-83
-83
-84
-84
-84
-84
-83
-84
-84
-85
-84
-84
-84
-83
-83
-84
-84
-83
-82
-83
-83
-83
-84
-84
-83
-83
-82
-82
-82
-83
-83
-83
-81
-81
-82
-83
-82
-82
-82
-81
-81
-82
-81
-81
-81
-81
-81
-82
-82
-82
-82
-83
-82
-82
-83
-83
-83
-82
-82
-81
-80
-81
-81
-81
-80
-79
-79
-79
-80
-80
-80
-80
-80
-80
-81
-81
-81
-81
-80
-79
-79
-80
-80
-80
-79
-79
-79
-79
-79
-79
-79
-78
-78
-78
-78
-79
-79
-79
-79
-78
-79
-79
-79
-79
-78
-78
-77
-76
-77
-77
-77
-76
-75
-74
-75
-74
-74
-73
-72
-72
-71
-72
-71
-71
-70
-70
-70
-70
-70
-71
-70
-69
-69
-69
-70
-70
-69
-70
-68
-68
-68
-68
-68
-67
-67
-66
-65
-65
-65
-64
-63
-63
-62
-63
-63
-64
-64
-65
-65
-65
-66
-67
-69
-70
-71
-72
-73
-75
-77
-78
-79
-79
-80
-81
-82
-83
-83
-82
-82
-82
-82
-83
-82
-82
-82
-81
-81
-81
-81
-82
-81
-81
-81
-81
-81
-81
-81
-81
-81
-81
-80
-81
-81
-81
-80
-80
-79
-79
-80
-80
-80
-80
-80
-80
-80
-82
-81
-81
-81
-82
-82
-82
-83
-83
-82
-82
-82
-83
-83
-83
-83
-82
-82
-82
-82
-83
-82
-82
-82
-82
-82
-82
-82
-83
-83
-82
-83
-83
-84
-85
-85
-85
-83
-84
-84
-84
-84
-84
-83
-83
-82
-81
-80
-79
-76
-74
-72
-69
-67
-64
-60
-56
-50
-46
-42
-37
-33
-29
-24
-21
-17
-15
-13
-13
-12
-13
-14
-17
-22
-27
-33
-40
-47
-56
-65
-75
-86
-95
-106
-115
-125
-135
-143
-151
-158
-165
-170
-177
-183
-189
-194
-198
-202
-207
-212
-217
-222
-227
-231
-236
-241
-247
-252
-257
-261
-265
-268
-271
-274
-275
-276
-275
-273
-270
-267
-262
-256
-248
-240
-231
-221
-212
-202
-192
-182
-171
-162
-153
-144
-136
-128
-120
-114
-107
-102
-97
-93
-90
-86
-83
-81
-80
-78
-77
-77
-76
-75
-75
-74
-74
-74
-73
-71
-71
-70
-70
-69
-68
-67
-66
-65
-64
-63
-63
-61
-60
-60
-59
-58
-58
-58
-57
-57
-57
-57
-58
-57
-58
-58
-58
-58
-58
-60
-60
-59
-58
-58
-58
-58
-58
-57
-57
-56
-55
-56
-55
-55
-54
-54
-52
-52
-52
-51
-50
-49
-48
-48
-48
-48
-48
-48
-47
-48
-48
-48
-48
-48
-48
-48
-47
-47
-47
-47
-48
-47
-47
-46
-45
-45
-45
-44
-44
-42
-42
-41
-42
-42
-42
-41
-40
-40
-40
-41
-40
-40
-39
-38
-39
-39
-39
-39
-39
-39
-39
-39
-39
-39
-39
-38
-37
-36
-36
-36
-35
-34
-33
-32
-32
-31
-31
-30
-30
-29
-28
-28
-28
-28
-26
-26
-25
-24
-25
-24
-24
-23
-23
-23
-22
-22
-22
-21
-21
-20
-19
-19
-19
-18
-17
-16
-14
-13
-13
-11
-10
-9
-7
-6
-6
-5
-4
-3
-1
0
1
2
3
3
5
5
7
7
8
9
9
11
13
13
14
15
16
18
18
20
21
22
24
25
26
28
30
30
32
33
34
36
37
39
39
40
40
41
43
45
45
46
46
47
48
50
51
53
54
56
57
59
61
62
62
64
64
65
67
68
69
69
69
70
71
71
72
72
72
72
72
72
73
74
74
74
74
74
75
75
76
77
76
77
78
79
79
80
79
79
79
80
80
80
79
78
78
77
76
76
75
73
71
69
68
67
65
64
63
60
59
58
57
55
54
52
50
48
47
46
44
43
42
40
38
38
37
34
32
30
28
26
24
22
19
17
14
11
9
6
4
1
-2
-4
-7
-9
-11
-13
-16
-18
-20
-22
-23
-25
-27
-29
-31
-33
-34
-34
-36
-38
-39
-41
-41
-43
-44
-45
-47
-49
-49
-50
-51
-51
-52
-53
-55
-56
-57
-57
-57
-59
-59
-60
-60
-59
-59
-60
-60
-60
-61
-61
-60
-61
-62
-62
-62
-62
-62
-62
-63
-64
-64
-65
-66
-65
-67
-67
-68
-69
-70
-70
-70
-70
-71
-72
-71
-72
-72
-73
-73
-73
-74
-74
-74
-74
-73
-73
-73
-73
-73
-72
-72
-71
-71
-70
-71
-71
-70
-69
-69
-69
-70
-70
-70
-70
-70
-70
-70
-70
-70
-70
-70
-71
-70
-71
-71
-72
-71
-72
-72
-72
-72
-72
-72
-71
-71
-71
-71
-71
-72
-72
-72
-72
-73
-74
-74
-74
-74
-73
-73
-74
-74
-74
-74
-74
-73
-73
-73
-72
-73
-73
-72
-72
-71
-71
-71
-72
-71
-71
-70
-70
-70
-71
-71
-70
-71
-71
-71
-71
-71
-71
-71
-72
-72
-72
-72
-73
-72
-72
-72
-73
-73
-73
-73
-72
-72
-73
-72
-72
-72
-72
-71
-70
-71
-71
-71
-71
-70
-70
-69
-70
-69
-69
-69
-68
-68
-68
-68
-68
-68
-68
-67
-68
-68
-69
-69
-70
-70
-71
-71
-71
-73
-73
-73
-74
-74
-75
-75
-76
-76
-75
-75
-75
-75
-76
-76
-76
-76
-75
-75
-76
-77
-76
-76
-76
-76
-76
-76
-77
-77
-76
-76
-76
-77
-77
-78
-77
-77
-77
-76
-76
-77
-76
-76
-76
-76
-76
-76
-77
-76
-77
-77
-77
-77
-78
-79
-79
-79
-80
-80
-82
-83
-84
-84
-84
-84
-85
-85
-85
-85
-85
-85
-85
-84
-86
-85
-86
-85
-86
-85
-85
-85
-85
-85
-84
-84
-84
-83
-84
-84
-83
-82
-82
-81
-81
-80
-81
-80
-80
-80
-80
-81
-81
-80
-80
-81
-81
-82
-82
-83
-82
-81
-82
-82
-83
-84
-84
-84
-83
-84
-84
-85
-85
-84
-84
-84
-84
-85
-84
-84
-84
-83
-83
-83
-84
-84
-83
-84
-82
-83
-83
-83
-83
-83
-83
-82
-82
-82
-83
-82
-81
-81
-81
-80
-81
-81
-81
-80
-79
-78
-78
-79
-79
-78
-78
-77
-78
-78
-79
-78
-79
-79
-79
-80
-82
-82
-83
-83
-83
-85
-85
-86
-87
-88
-88
-88
-88
-88
-88
-89
-88
-88
-88
-88
-89
-90
-89
-88
-88
-87
-88
-88
-88
-88
-87
-87
-87
-87
-87
-87
-85
-85
-85
-85
-85
-85
-85
-85
-85
-85
-85
-86
-85
-85
-85
-85
-85
-86
-86
-86
-86
-86
-85
-86
-85
-86
-86
-85
-85
-85
-85
-85
-85
-85
-85
-83
-83
-84
-84
-84
-83
-83
-84
-84
-85
-85
-85
-85
-85
-85
-85
-86
-86
-86
-86
-86
-86
-86
-87
-86
-85
-85
-84
-85
-85
-84
-84
-83
-82
-83
-82
-83
-83
-83
-83
-83
-83
-83
-84
-84
-83
-83
-84
-84
-85
-85
-87
-86
-86
-87
-87
-87
-88
-87
-86
-85
-86
-87
-87
-87
-86
-86
-86
-87
-87
-87
-88
-88
-87
-87
-87
-88
-88
-87
-87
-87
-87
-86
-86
-86
-85
-86
-85
-85
-86
-85
-85
-85
-85
-85
-86
-86
-86
-86
-86
-86
-86
-86
-87
-87
-86
-86
-86
-86
-86
-86
-86
-85
-85
-84
-84
-85
-85
-85
-84
-84
-83
-84
-84
-84
-84
-82
-82
-82
-83
-83
-84
-84
-83
-83
-84
-85
-85
-85
-85
-85
-86
-87
-88
-88
-87
-88
-88
-89
-89
-89
-89
-88
-88
-87
-88
-88
-88
-87
-87
-85
-86
-86
-86
-84
-83
-83
-82
-81
-81
-81
-80
-79
-78
-78
-79
-79
-79
-78
-78
-77
-77
-77
-77
-76
-76
-75
-74
-75
-75
-75
-75
-75
-74
-74
-73
-73
-73
-73
-72
-72
-71
-71
-71
-70
-70
-69
-69
-68
-69
-69
-69
-68
-67
-67
-68
-68
-68
-68
-68
-68
-68
-69
-70
-71
-70
-71
-72
-73
-75
-77
-77
-78
-79
-81
-82
-83
-84
-84
-85
-86
-86
-86
-87
-88
-87
-87
-86
-87
-87
-87
-86
-86
-84
-85
-84
-84
-84
-84
-83
-83
-83
-83
-84
-83
-82
-82
-82
-82
-83
-83
-83
-82
-83
-82
-83
-83
-83
-83
-84
-84
-84
-85
-86
-85
-85
-85
-86
-87
-87
-88
-88
-89
-89
-90
-90
-90
-91
-91
-91
-91
-90
-91
-91
-91
-90
-90
-90
-90
-89
-90
-90
-89
-89
-89
-89
-90
-89
-89
-88
-88
-87
-88
-88
-87
-86
-85
-84
-83
-82
-80
-78
-75
-72
-69
-65
-63
-59
-54
-49
-45
-41
-35
-32
-28
-23
-20
-17
-16
-16
-15
-17
-18
-21
-24
-29
-35
-41
-48
-55
-62
-71
-80
-89
-97
-106
-114
-121
-129
-137
-143
-148
-155
-160
-166
-171
-177
-183
-188
-194
-199
-205
-211
-218
-224
-231
-238
-244
-251
-257
-264
-269
-273
-277
-279
-281
-282
-281
-279
-275
-271
-267
-260
-253
-245
-236
-227
-217
-208
-198
-188
-178
-169
-159
-150
-142
-133
-126
-119
-112
-106
-101
-97
-93
-89
-86
-83
-81
-79
-78
-77
-76
-75
-75
-74
-74
-75
-75
-75
-75
-75
-75
-75
-75
-76
-74
-74
-74
-74
-74
-74
-73
-72
-72
-72
-72
-73
-72
-72
-70
-70
-70
-70
-69
-69
-68
-68
-67
-67
-67
-68
-67
-66
-65
-66
-66
-66
-65
-65
-63
-63
-63
-63
-63
-62
-61
-60
-60
-59
-60
-60
-59
-59
-58
-58
-58
-58
-58
-57
-57
-58
-58
-58
-58
-58
-58
-58
-58
-58
-59
-59
-59
-59
-58
-58
-58
-58
-58
-57
-56
-55
-54
-54
-54
-53
-52
-51
-51
-51
-50
-50
-49
-48
-48
-48
-48
-47
-47
-47
-47
-47
-46
-46
-46
-46
-45
-44
-44
-44
-44
-44
-43
-42
-41
-41
-40
-40
-41
-39
-39
-38
-37
-37
-37
-37
-36
-35
-34
-34
-34
-34
-33
-32
-31
-31
-30
-29
-29
-29
-28
-27
-26
-26
-25
-24
-23
-22
-21
-20
-19
-19
-17
-16
-15
-14
-14
-12
-12
-10
-8
-7
-5
-4
-3
-2
-1
1
1
2
2
2
3
4
5
5
6
6
7
8
9
10
10
11
12
14
16
17
18
20
20
22
23
25
26
27
29
30
32
33
35
37
38
38
39
41
43
44
45
46
47
47
48
50
50
51
51
52
52
53
54
54
55
55
56
56
57
57
58
58
58
59
59
60
60
60
61
61
60
61
61
61
61
62
61
61
62
62
62
62
61
60
60
60
60
59
59
58
57
58
58
57
56
55
54
54
53
52
51
49
48
47
45
44
42
40
38
36
34
32
30
28
26
23
21
19
18
16
14
12
10
8
7
5
4
2
1
-1
-2
-4
-5
-6
-7
-9
-11
-13
-14
-16
-17
-20
-22
-24
-25
-27
-28
-30
-32
-35
-36
-39
-40
-42
-43
-45
-46
-47
-48
-49
-51
-51
-53
-55
-55
-56
-57
-58
-60
-61
-63
-63
-63
-64
-65
-65
-66
-67
-67
-67
-68
-69
-70
-71
-71
-71
-71
-71
-72
-72
-74
-73
-74
-73
-75
-75
-76
-76
-75
-75
-75
-74
-75
-75
-75
-74
-75
-74
-74
-74
-73
-73
-73
-73
-72
-72
-73
-73
-73
-72
-73
-74
-74
-75
-75
-75
-76
-75
-76
-76
-77
-76
-76
-77
-77
-77
-76
-76
-76
-75
-74
-74
-74
-74
-73
-72
-72
-71
-71
-70
-70
-70
-68
-68
-68
-68
-68
-68
-67
-68
-67
-68
-68
-69
-69
-70
-70
-71
-71
-73
-73
-74
-74
-74
-74
-75
-75
-74
-74
-74
-73
-73
-73
-73
-72
-71
-70
-70
-70
-70
-70
-69
-69
-69
-69
-69
-69
-69
-70
-69
-69
-70
-71
-72
-72
-72
-73
-73
-73
-74
-75
-74
-74
-74
-74
-74
-74
-73
-73
-73
-73
-74
-74
-75
-74
-74
-73
-73
-74
-74
-75
-74
-74
-73
-74
-74
-74
-74
-73
-73
-73
-74
-74
-74
-74
-73
-74
-73
-73
-74
-75
-75
-74
-74
-74
-75
-76
-76
-75
-75
-75
-76
-76
-76
-76
-76
-76
-77
-77
-78
-78
-77
-77
-77
-78
-78
-78
-79
-79
-79
-78
-79
-79
-80
-79
-79
-78
-78
-78
-79
-78
-78
-77
-77
-78
-78
-78
-78
-77
-76
-76
-77
-77
-77
-78
-78
-78
-78
-80
-81
-81
-80
-81
-81
-82
-83
-84
-83
-83
-83
-83
-84
-84
-84
-84
-84
-83
-84
-84
-84
-84
-84
-83
-84
-84
-84
-85
-84
-84
-83
-84
-84
-85
-85
-86
-85
-85
-86
-86
-87
-87
-86
-86
-85
-85
-86
-86
-86
-85
-85
-85
-85
-85
-85
-85
-85
-84
-85
-85
-85
-86
-85
-85
-84
-84
-84
-85
-85
-84
-84
-84
-84
-85
-85
-85
-84
-85
-84
-85
-85
-86
-86
-86
-85
-86
-86
-86
-86
-86
-85
-86
-85
-86
-87
-87
-86
-86
-86
-86
-87
-86
-85
-85
-84
-84
-84
-84
-83
-83
-83
-83
-83
-83
-83
-83
-83
-83
-84
-84
-85
-85
-85
-86
-86
-87
-87
-87
-87
-87
-86
-86
-86
-86
-86
-86
-86
-86
-85
-85
-85
-85
-84
-83
-83
-83
-83
-83
-83
-83
-82
-82
-82
-83
-83
-83
-83
-84
-84
-85
-86
-86
-86
-87
-87
-87
-87
-88
-88
-88
-88
-88
-89
-89
-90
-89
-89
-89
-89
-89
-89
-89
-88
-87
-87
-86
-87
-86
-86
-86
-86
-85
-84
-85
-85
-85
-84
-84
-85
-86
-86
-86
-86
-85
-86
-86
-87
-87
-87
-87
-87
-86
-86
-87
-86
-86
-85
-85
-85
-85
-85
-84
-84
-84
-83
-82
-82
-81
-80
-79
-79
-78
-78
-78
-79
-79
-78
-78
-79
-79
-80
-80
-80
-80
-79
-80
-81
-82
-82
-81
-82
-82
-83
-83
-82
-82
-81
-81
-81
-81
-81
-81
-81
-82
-81
-82
-82
-82
-81
-82
-82
-82
-82
-83
-84
-83
-83
-84
-84
-84
-85
-85
-85
-85
-85
-84
-84
-84
-83
-83
-83
-82
-83
-82
-83
-82
-81
-81
-80
-81
-81
-80
-80
-79
-78
-77
-78
-78
-78
-77
-78
-78
-78
-79
-80
-80
-79
-79
-80
-81
-81
-81
-81
-81
-81
-82
-82
-82
-82
-82
-82
-81
-81
-81
-81
-80
-80
-79
-79
-80
-79
-79
-79
-79
-78
-78
-78
-78
-78
-77
-77
-77
-77
-77
-77
-78
-76
-76
-76
-76
-77
-76
-76
-75
-74
-74
-74
-73
-73
-72
-71
-71
-70
-70
-71
-71
-70
-70
-71
-70
-71
-71
-71
-70
-71
-71
-72
-72
-72
-71
-70
-69
-70
-69
-69
-68
-68
-66
-66
-66
-65
-64
-63
-61
-60
-60
-59
-59
-59
-58
-58
-58
-58
-59
-60
-60
-61
-62
-63
-65
-65
-67
-68
-68
-69
-71
-71
-72
-74
-74
-74
-74
-75
-76
-77
-78
-78
-78
-78
-79
-79
-79
-79
-79
-79
-80
-80
-80
-81
-81
-81
-81
-81
-81
-82
-82
-81
-81
-80
-80
-79
-79
-79
-79
-78
-78
-78
-77
-77
-76
-76
-75
-75
-76
-77
-76
-76
-77
-77
-78
-79
-79
-79
-79
-79
-80
-80
-81
-80
-80
-80
-80
-80
-80
-81
-80
-79
-78
-79
-78
-79
-78
-79
-78
-78
-79
-79
-79
-79
-79
-79
-79
-80
-79
-80
-80
-80
-80
-80
-79
-78
-77
-76
-74
-72
-70
-68
-65
-62
-59
-54
-50
-46
-42
-37
-32
-27
-22
-16
-12
-9
-5
-1
2
4
5
5
4
3
0
-3
-8
-15
-21
-29
-36
-44
-52
-61
-71
-79
-88
-98
-105
-113
-121
-128
-135
-142
-149
-156
-162
-169
-175
-182
-188
-195
-202
-209
-216
-223
-230
-237
-243
-249
-255
-260
-265
-269
-270
-271
-271
-270
-268
-265
-261
-256
-249
-243
-235
-227
-218
-209
-199
-190
-180
-171
-162
-152
-143
-134
-126
-119
-112
-105
-99
-94
-89
-85
-81
-78
-75
-73
-70
-69
-66
-66
-65
-64
-63
-63
-63
-63
-63
-63
-63
-63
-63
-63
-64
-64
-64
-64
-63
-62
-63
-62
-62
-61
-61
-60
-59
-59
-59
-59
-57
-56
-56
-55
-55
-54
-54
-53
-52
-51
-51
-51
-50
-50
-49
-48
-49
-49
-49
-50
-49
-49
-49
-49
-49
-49
-50
-49
-49
-50
-50
-50
-50
-50
-50
-49
-49
-49
-49
-49
-48
-47
-48
-47
-48
-47
-47
-46
-46
-46
-46
-45
-45
-45
-44
-43
-43
-42
-42
-41
-40
-39
-39
-39
-38
-38
-36
-36
-35
-34
-33
-32
-31
-31
-30
-29
-29
-30
-31
-30
-30
-29
-30
-30
-30
-30
-30
-29
-28
-28
-29
-29
-29
-29
-28
-27
-26
-26
-26
-25
-23
-23
-23
-23
-23
-23
-23
-22
-21
-21
-20
-21
-21
-20
-19
-18
-18
-17
-17
-17
-16
-15
-14
-13
-12
-11
-11
-10
-9
-8
-7
-7
-6
-6
-4
-3
-3
-1
-1
0
1
2
3
3
4
5
6
6
8
9
11
12
12
14
15
17
18
19
20
21
22
23
25
26
26
27
30
31
33
34
36
36
38
40
42
44
45
47
47
49
50
52
54
55
56
57
58
59
61
62
63
64
65
65
66
67
67
68
69
69
70
70
71
71
71
71
73
74
74
75
75
75
75
76
76
77
77
77
77
77
77
78
78
77
77
76
75
75
76
75
74
74
74
73
74
74
73
72
71
70
69
68
67
66
64
63
62
61
61
59
58
56
55
54
52
51
49
47
45
43
42
40
38
36
34
32
30
29
27
25
23
21
19
18
16
15
13
11
9
8
6
4
4
2
0
-3
-4
-5
-7
-8
-11
-12
-14
-16
-17
-19
-21
-22
-24
-26
-27
-28
-30
-31
-34
-35
-36
-37
-38
-38
-40
-40
-41
-42
-43
-43
-44
-45
-46
-46
-46
-46
-47
-47
-48
-49
-48
-49
-49
-49
-51
-51
-52
-52
-52
-53
-54
-54
-55
-55
-55
-57
-56
-57
-57
-58
-58
-59
-58
-59
-59
-59
-58
-58
-58
-57
-57
-57
-58
-57
-57
-57
-57
-58
-59
-58
-59
-58
-59
-58
-58
-59
-59
-58
-57
-57
-57
-57
-57
-57
-57
-56
-56
-56
-55
-56
-55
-55
-54
-53
-53
-53
-53
-53
-53
-52
-52
-51
-52
-52
-51
-51
-51
-50
-51
-50
-51
-51
-51
-50
-51
-51
-51
-51
-51
-51
-52
-52
-52
-52
-52
-51
-51
-51
-51
-51
-51
-50
-50
-50
-49
-50
-49
-49
-48
-47
-48
-48
-49
-49
-49
-49
-50
-51
-51
-51
-52
-51
-52
-52
-53
-53
-54
-54
-54
-54
-53
-54
-54
-54
-54
-55
-54
-53
-53
-53
-53
-52
-52
-51
-51
-51
-51
-51
-50
-50
-50
-51
-52
-51
-52
-51
-52
-53
-53
-54
-55
-55
-55
-55
-57
-57
-58
-58
-58
-58
-58
-58
-58
-57
-58
-58
-57
-58
-58
-58
-58
-57
-58
-58
-57
-58
-58
-58
-57
-57
-57
-57
-58
-57
-57
-58
-58
-57
-58
-57
-57
-57
-57
-57
-57
-57
-57
-56
-56
-57
-56
-57
-56
-57
-56
-56
-57
-57
-57
-58
-58
-58
-58
-57
-58
-57
-58
-57
-56
-56
-55
-56
-56
-56
-57
-56
-56
-57
-57
-57
-58
-58
-58
-59
-61
-61
-62
-62
-62
-62
-62
-63
-64
-63
-63
-62
-62
-62
-63
-63
-62
-61
-61
-61
-61
-61
-60
-61
-60
-60
-60
-62
-62
-62
-62
-62
-62
-62
-63
-64
-64
-63
-63
-63
-63
-63
-62
-62
-61
-61
-61
-61
-61
-61
-60
-60
-59
-60
-60
-60
-60
-59
-59
-58
-58
-59
-59
-58
-58
-58
-57
-58
-58
-59
-58
-58
-57
-57
-58
-57
-57
-57
-56
-57
-57
-58
-58
-58
-58
-58
-58
-58
-59
-59
-58
-58
-58
-58
-59
-59
-59
-59
-58
-59
-60
-60
-60
-60
-59
-59
-60
-60
-61
-61
-61
-61
-61
-62
-62
-62
-61
-61
-61
-61
-61
-61
-61
-59
-59
-58
-58
-58
-58
-58
-57
-57
-56
-56
-56
-57
-57
-57
-57
-57
-58
-58
-58
-58
-58
-58
-59
-59
-60
-60
-60
-60
-60
-60
-60
-60
-60
-60
-60
-59
-59
-59
-58
-58
-58
-57
-57
-57
-57
-57
-56
-56
-55
-56
-56
-55
-56
-55
-54
-54
-54
-54
-54
-54
-53
-53
-53
-54
-53
-54
-53
-53
-53
-54
-55
-55
-56
-57
-56
-56
-57
-56
-57
-56
-56
-56
-57
-57
-57
-58
-57
-57
-57
-58
-58
-58
-58
-58
-58
-58
-58
-58
-59
-59
-58
-58
-58
-59
-59
-59
-58
-58
-58
-58
-59
-59
-58
-58
-57
-57
-57
-56
-57
-56
-56
-55
-55
-55
-55
-54
-54
-53
-53
-53
-54
-54
-53
-53
-53
-52
-52
-52
-53
-53
-52
-51
-52
-52
-52
-51
-50
-49
-49
-49
-50
-50
-49
-50
-49
-49
-50
-50
-50
-49
-49
-50
-50
-51
-51
-51
-51
-51
-52
-53
-53
-54
-53
-54
-54
-55
-55
-56
-57
-57
-57
-57
-57
-57
-57
-58
-57
-58
-57
-57
-57
-57
-56
-55
-54
-54
-53
-54
-53
-52
-52
-52
-52
-52
-53
-54
-53
-54
-54
-54
-55
-55
-55
-56
-55
-56
-56
-56
-56
-56
-55
-55
-55
-55
-55
-54
-54
-53
-52
-51
-51
-51
-50
-49
-48
-48
-47
-47
-46
-45
-44
-44
-43
-42
-42
-41
-41
-40
-40
-39
-40
-39
-39
-38
-37
-38
-38
-38
-38
-38
-38
-37
-38
-38
-38
-38
-38
-38
-37
-39
-38
-39
-38
-38
-38
-36
-37
-37
-37
-37
-36
-36
-38
-38
-39
-39
-39
-39
-40
-41
-42
-43
-44
-44
-44
-45
-45
-47
-46
-47
-46
-45
-46
-46
-46
-46
-47
-46
-46
-47
-48
-48
-47
-48
-47
-48
-49
-49
-49
-49
-48
-49
-49
-50
-50
-50
-49
-49
-49
-48
-49
-48
-47
-46
-46
-46
-46
-47
-47
-47
-47
-47
-47
-48
-49
-49
-50
-49
-50
-50
-51
-51
-51
-51
-51
-50
-50
-51
-50
-49
-48
-47
-47
-47
-47
-48
-48
-48
-48
-48
-50
-50
-51
-50
-50
-51
-52
-52
-53
-53
-53
-52
-53
-53
-52
-52
-50
-49
-47
-45
-43
-40
-37
-33
-30
-27
-22
-18
-12
-7
-1
5
10
16
20
25
29
34
37
40
40
41
41
40
36
32
26
19
11
3
-7
-17
-29
-42
-54
-67
-81
-93
-105
-118
-129
-142
-152
-162
-171
-180
-189
-198
-205
-212
-218
-224
-230
-235
-240
-245
-248
-252
-254
-257
-260
-262
-263
-264
-263
-262
-260
-258
-254
-249
-244
-238
-232
-225
-218
-210
-202
-193
-183
-173
-165
-156
-146
-137
-128
-119
-111
-103
-95
-87
-79
-73
-67
-62
-58
-53
-49
-45
-42
-40
-38
-37
-35
-33
-32
-31
-30
-30
-30
-28
-28
-28
-28
-30
-30
-30
-28
-28
-28
-29
-28
-29
-28
-28
-27
-27
-27
-27
-27
-26
-26
-26
-25
-25
-26
-26
-25
-24
-24
-23
-23
-23
-22
-21
-19
-18
-18
-17
-16
-15
-13
-12
-11
-11
-10
-10
-8
-8
-8
-8
-8
-8
-9
-9
-9
-10
-10
-11
-11
-11
-11
-12
-12
-13
-14
-15
-14
-15
-15
-15
-15
-15
-15
-14
-13
-13
-12
-12
-11
-10
-9
-8
-7
-7
-6
-5
-3
-3
-2
-2
-1
0
1
1
2
3
3
4
3
4
4
4
4
4
5
4
4
5
4
4
4
3
4
4
5
5
4
5
5
6
7
9
9
11
11
12
14
14
16
17
18
19
20
21
22
23
24
24
25
26
27
27
29
28
29
30
30
31
32
32
31
32
33
34
36
36
36
36
37
39
41
41
42
43
44
45
47
48
50
51
52
53
54
56
58
59
60
61
62
64
65
66
67
68
69
71
71
73
74
74
76
77
78
80
82
82
83
84
85
86
88
89
90
91
91
93
94
94
96
96
96
97
97
99
100
100
100
100
101
102
103
104
104
105
106
106
108
109
110
110
111
112
112
114
114
115
116
116
116
116
116
116
116
115
114
113
113
112
111
110
109
107
107
106
105
105
103
102
101
102
101
101
99
98
97
96
96
95
93
92
91
88
86
85
84
81
80
78
75
73
72
70
68
65
63
62
60
58
56
54
51
49
47
46
44
42
40
38
36
34
32
30
27
25
22
21
18
17
16
13
11
10
8
7
6
5
4
2
1
1
1
0
-1
-1
-2
-2
-2
-2
-4
-4
-5
-6
-7
-7
-8
-8
-9
-11
-12
-13
-14
-14
-16
-18
-19
-21
-22
-22
-23
-24
-25
-26
-26
-26
-26
-28
-28
-28
-28
-28
-28
-28
-29
-29
-28
-28
-28
-26
-26
-27
-28
-28
-28
-28
-28
-27
-27
-28
-28
-28
-28
-28
-28
-29
-30
-30
-30
-30
-29
-30
-30
-30
-29
-28
-28
-28
-28
-27
-27
-26
-26
-25
-25
-25
-26
-26
-25
-25
-25
-26
-26
-27
-27
-26
-27
-27
-26
-27
-27
-27
-26
-25
-26
-25
-26
-25
-24
-23
-22
-22
-23
-23
-22
-22
-21
-21
-20
-21
-20
-20
-20
-20
-21
-21
-22
-21
-21
-21
-20
-21
-21
-21
-22
-21
-20
-20
-21
-20
-20
-19
-18
-19
-18
-19
-19
-19
-18
-19
-18
-18
-20
-20
-19
-19
-19
-19
-20
-20
-21
-20
-20
-21
-21
-21
-22
-21
-22
-21
-22
-23
-23
-24
-24
-24
-24
-24
-24
-25
-25
-25
-24
-23
-25
-25
-25
-25
-25
-25
-25
-26
-26
-26
-26
-25
-25
-26
-26
-26
-27
-27
-26
-26
-27
-27
-27
-27
-27
-27
-27
-28
-28
-28
-28
-29
-28
-29
-29
-29
-30
-30
-30
-29
-30
-31
-31
-32
-30
-31
-30
-30
-31
-31
-30
-30
-30
-30
-30
-29
-30
-29
-29
-28
-28
-28
-29
-29
-28
-28
-28
-29
-29
-29
-29
-29
-29
-30
-30
-31
-32
-32
-32
-33
-34
-34
-34
-34
-34
-34
-34
-35
-35
-34
-34
-34
-33
-34
-34
-34
-34
-33
-33
-32
-32
-34
-34
-34
-34
-35
-35
-37
-38
-38
-38
-37
-38
-38
-39
-38
-39
-39
-38
-38
-38
-39
-38
-37
-36
-36
-34
-34
-34
-34
-34
-32
-32
-32
-33
-33
-32
-32
-31
-31
-31
-32
-32
-32
-33
-32
-33
-34
-34
-35
-34
-35
-34
-35
-36
-36
-36
-36
-36
-36
-35
-37
-37
-37
-38
-38
-38
-38
-39
-39
-38
-37
-37
-37
-37
-37
-37
-36
-36
-36
-36
-36
-37
-36
-35
-35
-35
-36
-37
-37
-37
-37
-37
-37
-38
-38
-38
-39
-39
-38
-39
-39
-39
-38
-38
-37
-38
-37
-37
-38
-36
-36
-36
-35
-36
-36
-35
-36
-35
-35
-35
-35
-35
-36
-35
-35
-35
-36
-36
-37
-37
-36
-37
-37
-36
-36
-36
-35
-34
-34
-33
-33
-34
-33
-33
-32
-32
-33
-33
-33
-33
-32
-32
-32
-32
-33
-33
-33
-33
-32
-33
-34
-35
-35
-35
-34
-34
-34
-36
-36
-37
-36
-36
-37
-36
-37
-37
-36
-36
-35
-36
-36
-36
-36
-36
-35
-35
-36
-36
-35
-35
-35
-34
-34
-35
-35
-35
-35
-35
-34
-35
-35
-35
-35
-35
-34
-34
-35
-34
-35
-34
-35
-34
-33
-34
-35
-34
-35
-34
-35
-35
-36
-37
-37
-37
-37
-37
-38
-38
-38
-37
-37
-37
-37
-36
-37
-37
-36
-36
-36
-36
-37
-36
-36
-36
-35
-35
-35
-35
-35
-36
-35
-35
-35
-34
-35
-34
-34
-33
-33
-32
-33
-32
-33
-32
-32
-33
-33
-34
-34
-34
-33
-34
-34
-35
-36
-36
-36
-36
-35
-36
-36
-36
-36
-36
-34
-34
-33
-33
-32
-32
-31
-31
-30
-30
-30
-30
-29
-29
-28
-29
-30
-31
-32
-32
-33
-33
-34
-35
-36
-35
-35
-35
-35
-35
-35
-34
-33
-32
-32
-32
-32
-31
-31
-30
-29
-29
-29
-29
-29
-28
-28
-27
-28
-28
-27
-26
-26
-25
-24
-24
-23
-22
-22
-20
-20
-19
-18
-18
-18
-16
-16
-16
-16
-15
-16
-16
-15
-15
-14
-15
-16
-16
-17
-17
-17
-18
-18
-20
-21
-22
-23
-23
-24
-25
-26
-26
-27
-28
-28
-30
-30
-32
-33
-33
-34
-35
-35
-36
-36
-36
-35
-35
-34
-34
-34
-34
-34
-33
-33
-32
-32
-33
-32
-32
-32
-32
-32
-33
-34
-34
-34
-34
-34
-35
-35
-36
-36
-36
-36
-36
-37
-38
-37
-37
-37
-36
-37
-37
-37
-37
-37
-36
-36
-37
-37
-37
-35
-35
-35
-35
-36
-36
-36
-35
-35
-35
-35
-36
-36
-36
-35
-35
-35
-35
-35
-35
-34
-33
-33
-34
-34
-34
-34
-34
-34
-34
-34
-34
-34
-33
-33
-33
-32
-31
-31
-30
-27
-26
-23
-22
-20
-16
-14
-9
-4
1
6
10
16
20
24
28
32
35
37
39
40
40
39
36
32
27
20
13
3
-6
-18
-30
-43
-56
-69
-83
-97
-111
-125
-137
-149
-159
-171
-182
-192
-202
-210
-218
-225
-232
-238
-243
-249
-253
-257
-260
-263
-266
-269
-271
-272
-273
-273
-273
-271
-270
-266
-262
-258
-252
-246
-240
-232
-224
-214
-204
-195
-185
-174
-164
-154
-144
-133
-124
-115
-107
-98
-90
-82
-75
-69
-63
-58
-53
-48
-42
-39
-36
-33
-31
-29
-26
-24
-24
-23
-22
-21
-21
-19
-19
-18
-20
-20
-19
-19
-19
-19
-19
-19
-19
-18
-18
-17
-17
-16
-15
-15
-13
-12
-11
-10
-10
-9
-9
-8
-7
-7
-6
-7
-6
-6
-6
-6
-6
-7
-7
-7
-7
-7
-8
-8
-8
-8
-8
-8
-7
-6
-6
-5
-4
-4
-2
-1
-1
-1
0
0
1
2
2
2
2
2
2
2
2
2
2
1
2
2
2
2
2
2
1
1
1
2
1
2
2
2
3
4
5
6
6
6
7
8
9
10
10
10
11
11
11
12
13
12
12
12
12
13
14
13
14
14
14
14
15
16
16
16
15
16
16
18
19
19
19
20
21
21
22
23
23
23
24
25
26
27
28
29
29
29
31
31
32
32
34
34
35
37
37
39
39
40
40
42
43
44
44
45
45
45
46
47
48
48
48
49
50
51
52
52
53
54
55
56
57
59
60
60
62
63
65
67
68
70
70
72
73
75
77
78
79
80
82
83
85
86
87
88
89
90
92
93
94
95
96
97
97
99
100
101
102
103
104
105
107
108
108
109
110
111
112
113
115
114
115
116
117
118
119
119
120
120
121
122
123
124
124
124
124
124
125
125
125
125
125
124
124
124
124
123
123
121
121
120
120
119
118
116
114
112
111
110
109
107
105
104
102
101
99
97
95
94
92
91
90
88
87
84
82
80
79
77
75
74
71
69
68
66
64
62
59
57
56
53
52
50
48
47
44
42
41
40
38
36
34
33
32
31
29
28
26
24
23
21
19
18
16
15
13
11
8
7
6
4
1
-1
-2
-2
-4
-5
-6
-8
-9
-9
-10
-10
-11
-12
-13
-13
-14
-14
-15
-16
-17
-19
-19
-20
-20
-21
-22
-22
-23
-24
-24
-24
-25
-25
-25
-26
-25
-25
-25
-26
-26
-27
-27
-27
-27
-26
-27
-27
-27
-28
-28
-28
-29
-29
-30
-30
-30
-30
-31
-31
-32
-32
-33
-33
-32
-32
-32
-33
-33
-32
-32
-33
-33
-33
-33
-33
-33
-32
-33
-34
-34
-34
-33
-32
-31
-31
-31
-32
-32
-32
-30
-30
-30
-28
-28
-27
-26
-25
-24
-24
-24
-24
-24
-24
-23
-23
-23
-23
-23
-22
-22
-21
-22
-23
-24
-23
-25
-24
-24
-25
-25
-24
-25
-24
-23
-24
-24
-24
-24
-24
-24
-24
-23
-24
-23
-23
-23
-22
-23
-23
-24
-25
-25
-25
-24
-25
-25
-25
-25
-24
-24
-24
-25
-25
-26
-26
-26
-25
-25
-26
-26
-26
-26
-26
-25
-25
-25
-25
-25
-25
-24
-24
-24
-25
-26
-26
-26
-26
-26
-26
-27
-27
-28
-28
-28
-28
-29
-30
-29
-30
-29
-29
-30
-30
-30
-30
-30
-29
-30
-29
-30
-29
-28
-29
-28
-28
-28
-28
-27
-27
-26
-26
-26
-26
-27
-27
-26
-26
-26
-26
-26
-27
-27
-27
-28
-28
-29
-30
-30
-31
-31
-31
-32
-33
-34
-34
-35
-35
-35
-36
-36
-37
-36
-36
-36
-36
-36
-37
-37
-36
-36
-36
-36
-36
-36
-36
-36
-36
-37
-37
-38
-38
-38
-38
-38
-38
-38
-38
-38
-38
-37
-37
-37
-38
-38
-38
-38
-38
-38
-37
-38
-38
-38
-38
-38
-37
-38
-39
-39
-37
-37
-37
-37
-37
-37
-37
-38
-37
-37
-38
-39
-39
-39
-38
-38
-38
-38
-39
-39
-38
-39
-39
-40
-40
-40
-40
-40
-40
-40
-40
-40
-41
-40
-40
-40
-40
-41
-41
-40
-40
-40
-40
-40
-41
-41
-41
-41
-40
-40
-39
-40
-40
-40
-39
-39
-39
-39
-39
-39
-38
-38
-37
-37
-38
-38
-38
-38
-37
-37
-38
-38
-39
-39
-40
-39
-40
-41
-41
-42
-42
-41
-42
-42
-42
-42
-42
-42
-42
-41
-41
-42
-42
-42
-42
-41
-41
-40
-40
-40
-39
-39
-38
-39
-39
-39
-39
-39
-39
-39
-39
-40
-40
-40
-39
-40
-40
-41
-41
-41
-41
-41
-42
-43
-43
-44
-44
-43
-42
-43
-43
-44
-43
-43
-42
-42
-41
-41
-40
-40
-40
-39
-39
-39
-39
-39
-39
-39
-38
-39
-40
-40
-40
-41
-41
-41
-42
-43
-43
-43
-42
-42
-42
-42
-42
-42
-42
-41
-40
-40
-41
-40
-40
-40
-39
-39
-39
-40
-41
-40
-40
-40
-39
-41
-41
-42
-42
-42
-42
-42
-43
-44
-44
-45
-44
-44
-44
-44
-44
-44
-43
-43
-42
-43
-43
-42
-42
-41
-39
-39
-40
-40
-39
-40
-39
-38
-38
-39
-39
-39
-39
-39
-39
-39
-39
-40
-40
-39
-39
-38
-40
-40
-41
-41
-40
-40
-41
-41
-41
-41
-42
-41
-41
-42
-43
-44
-43
-44
-45
-44
-45
-45
-45
-44
-43
-43
-43
-43
-42
-43
-42
-42
-41
-41
-41
-40
-40
-40
-39
-39
-40
-39
-39
-40
-40
-39
-39
-39
-38
-38
-37
-36
-35
-36
-36
-35
-36
-35
-34
-35
-35
-36
-36
-36
-37
-37
-37
-38
-38
-39
-39
-38
-39
-39
-40
-41
-41
-40
-40
-40
-39
-40
-40
-39
-38
-37
-36
-36
-34
-34
-33
-31
-31
-31
-31
-31
-30
-29
-29
-28
-28
-28
-28
-28
-28
-27
-27
-27
-27
-27
-26
-25
-25
-25
-25
-25
-24
-24
-23
-23
-23
-23
-24
-24
-24
-24
-24
-26
-26
-27
-27
-28
-29
-30
-32
-33
-35
-35
-36
-37
-39
-40
-41
-41
-42
-42
-42
-43
-43
-43
-42
-43
-43
-43
-43
-44
-43
-43
-42
-42
-44
-43
-43
-43
-43
-43
-43
-43
-43
-43
-43
-43
-42
-42
-43
-43
-43
-42
-42
-41
-42
-41
-41
-41
-41
-41
-41
-42
-43
-43
-42
-43
-43
-44
-45
-46
-45
-45
-45
-45
-46
-47
-47
-46
-46
-47
-48
-48
-48
-48
-48
-47
-46
-46
-47
-47
-47
-46
-47
-47
-46
-46
-46
-45
-43
-43
-43
-43
-42
-41
-40
-39
-38
-37
-36
-36
-34
-32
-29
-28
-25
-23
-19
-15
-11
-6
-1
3
7
11
15
19
22
24
25
26
25
24
22
18
12
5
-3
-11
-21
-32
-43
-56
-69
-82
-95
-108
-120
-133
-146
-158
-168
-177
-187
-196
-205
-214
-221
-227
-233
-239
-244
-248
-253
-257
-261
-264
-267
-270
-272
-273
-275
-276
-276
-276
-274
-272
-270
-265
-260
-253
-246
-239
-232
-223
-214
-203
-194
-184
-174
-164
-154
-144
-134
-125
-116
-108
-99
-91
-83
-76
-70
-64
-59
-55
-50
-45
-42
-39
-37
-35
-33
-31
-30
-28
-28
-27
-27
-26
-26
-26
-26
-26
-26
-25
-25
-25
-24
-24
-25
-25
-24
-24
-24
-22
-23
-22
-21
-20
-19
-19
-19
-18
-18
-17
-16
-15
-15
-14
-15
-14
-14
-14
-13
-13
-13
-13
-13
-12
-12
-13
-13
-12
-12
-13
-12
-12
-11
-12
-13
-13
-12
-12
-12
-11
-12
-12
-12
-11
-11
-10
-10
-10
-10
-9
-8
-8
-7
-8
-8
-7
-7
-6
-6
-5
-6
-6
-5
-5
-5
-4
-4
-4
-4
-4
-3
-2
-1
0
-1
1
2
2
3
4
4
5
5
6
7
8
8
7
8
8
9
10
10
10
9
10
10
10
11
10
9
9
10
11
11
11
11
10
10
11
11
11
12
12
12
12
13
14
15
17
16
18
18
19
20
21
23
24
24
26
28
29
30
31
32
33
33
35
36
36
37
37
38
39
40
41
41
41
42
43
44
45
46
47
48
48
51
52
54
55
56
58
59
60
61
63
64
65
66
69
71
72
73
74
75
75
77
78
80
81
82
82
83
85
87
88
89
90
91
92
94
95
96
97
98
98
100
101
102
103
104
104
106
107
108
109
110
110
112
113
114
116
117
117
117
118
118
119
119
119
120
119
118
119
119
119
119
118
118
117
117
117
116
116
114
114
113
113
113
113
111
111
110
109
109
108
107
106
105
104
103
101
100
98
97
95
94
92
90
88
85
82
81
79
77
75
73
70
68
66
64
62
61
59
56
54
53
50
48
46
45
43
41
39
38
36
34
32
30
29
27
26
24
23
21
19
17
16
15
12
10
9
7
6
5
4
2
0
-1
-3
-4
-5
-6
-7
-8
-9
-10
-10
-11
-11
-13
-14
-15
-15
-16
-17
-18
-18
-19
-19
-20
-19
-21
-22
-23
-23
-24
-25
-25
-26
-27
-28
-28
-28
-28
-29
-29
-30
-30
-30
-29
-30
-30
-29
-30
-30
-31
-31
-30
-30
-31
-31
-31
-30
-30
-29
-30
-30
-30
-30
-30
-29
-29
-30
-30
-31
-31
-31
-31
-31
-31
-32
-32
-31
-31
-31
-31
-32
-31
-31
-30
-29
-28
-29
-29
-28
-28
-27
-27
-28
-27
-27
-28
-27
-27
-27
-27
-28
-29
-29
-29
-30
-30
-31
-31
-32
-31
-31
-31
-31
-31
-32
-31
-31
-30
-29
-29
-28
-28
-27
-27
-25
-26
-25
-26
-26
-25
-25
-24
-25
-24
-25
-25
-24
-24
-24
-24
-24
-24
-24
-23
-22
-22
-21
-22
-21
-21
-21
-21
-21
-21
-21
-21
-21
-21
-21
-22
-22
-21
-21
-22
-22
-23
-23
-24
-24
-25
-25
-25
-25
-25
-25
-25
-25
-24
-25
-25
-25
-26
-26
-24
-24
-24
-25
-25
-26
-25
-25
-26
-25
-26
-26
-27
-26
-26
-26
-26
-27
-27
-27
-26
-26
-26
-26
-27
-27
-26
-27
-26
-27
-27
-29
-29
-29
-29
-30
-30
-31
-32
-32
-32
-33
-34
-34
-35
-36
-36
-36
-36
-36
-37
-36
-37
-36
-35
-35
-34
-34
-34
-33
-32
-32
-31
-30
-31
-30
-30
-29
-28
-28
-29
-30
-30
-29
-29
-29
-30
-31
-30
-30
-30
-30
-30
-31
-32
-32
-32
-32
-32
-33
-32
-33
-32
-32
-32
-33
-33
-33
-34
-34
-33
-33
-33
-33
-34
-34
-34
-34
-33
-35
-35
-36
-36
-35
-36
-36
-36
-36
-37
-37
-36
-35
-35
-35
-36
-35
-35
-34
-34
-34
-35
-35
-36
-35
-35
-36
-36
-36
-37
-37
-37
-37
-37
-38
-38
-40
-39
-39
-40
-39
-40
-40
-39
-39
-39
-38
-38
-38
-37
-38
-38
-37
-36
-36
-36
-35
-35
-34
-33
-33
-34
-33
-33
-32
-32
-32
-31
-31
-32
-31
-31
-30
-31
-31
-31
-30
-30
-30
-30
-29
-31
-30
-31
-31
-31
-30
-31
-32
-32
-33
-33
-33
-33
-34
-33
-34
-34
-34
-33
-34
-34
-35
-34
-34
-33
-33
-32
-32
-32
-31
-31
-30
-29
-30
-30
-30
-30
-30
-29
-30
-30
-30
-30
-30
-30
-30
-30
-31
-31
-31
-30
-30
-31
-31
-32
-31
-32
-31
-31
-32
-32
-32
-31
-31
-31
-31
-30
-31
-31
-30
-29
-29
-28
-29
-30
-30
-30
-29
-30
-29
-29
-30
-30
-29
-30
-30
-29
-29
-30
-29
-29
-28
-28
-29
-29
-29
-28
-28
-27
-27
-28
-28
-28
-29
-29
-29
-29
-30
-31
-30
-29
-29
-29
-30
-30
-30
-30
-29
-29
-28
-29
-29
-28
-28
-28
-28
-27
-27
-27
-26
-27
-26
-26
-27
-28
-28
-28
-27
-28
-28
-28
-28
-28
-29
-28
-28
-28
-28
-28
-28
-27
-27
-27
-28
-27
-28
-28
-27
-27
-27
-28
-28
-27
-27
-26
-27
-27
-27
-27
-27
-27
-27
-26
-27
-27
-27
-28
-28
-27
-27
-28
-28
-28
-29
-28
-28
-28
-28
-28
-28
-27
-28
-28
-28
-28
-28
-27
-27
-27
-27
-28
-29
-30
-30
-30
-30
-29
-29
-29
-29
-28
-28
-28
-28
-29
-28
-27
-27
-27
-26
-26
-26
-26
-26
-25
-25
-26
-26
-26
-26
-27
-27
-27
-27
-28
-29
-28
-27
-28
-28
-29
-29
-29
-28
-28
-27
-26
-26
-26
-25
-24
-23
-23
-23
-23
-22
-22
-21
-21
-21
-21
-21
-20
-20
-19
-19
-18
-19
-18
-18
-17
-16
-16
-16
-17
-17
-17
-15
-16
-15
-15
-16
-16
-15
-15
-15
-14
-14
-14
-13
-13
-13
-13
-13
-13
-13
-13
-12
-14
-14
-16
-16
-16
-18
-18
-18
-19
-21
-22
-23
-23
-23
-24
-25
-26
-26
-26
-27
-26
-27
-28
-28
-28
-27
-26
-26
-27
-26
-27
-27
-27
-27
-27
-28
-27
-28
-28
-28
-28
-29
-29
-30
-31
-31
-30
-30
-30
-31
-31
-31
-31
-30
-31
-32
-32
-32
-32
-32
-32
-32
-33
-33
-33
-33
-33
-33
-33
-33
-34
-33
-33
-32
-31
-32
-33
-32
-32
-32
-32
-31
-31
-31
-31
-30
-29
-29
-30
-30
-30
-31
-31
-30
-31
-32
-32
-33
-31
-31
-30
-30
-30
-30
-29
-27
-25
-23
-21
-20
-18
-14
-10
-6
-2
1
5
10
14
18
23
27
28
31
33
35
36
36
35
33
30
26
21
16
9
1
-8
-17
-26
-35
-45
-55
-66
-76
-84
-94
-101
-107
-115
-121
-127
-132
-137
-142
-147
-152
-158
-162
-167
-173
-177
-183
-189
-195
-200
-205
-210
-215
-220
-225
-228
-230
-231
-232
-231
-230
-227
-224
-217
-211
-205
-197
-188
-180
-169
-160
-149
-139
-129
-119
-109
-100
-91
-82
-74
-67
-61
-55
-49
-43
-40
-35
-33
-31
-28
-26
-24
-22
-21
-21
-20
-19
-18
-19
-18
-19
-18
-19
-18
-18
-18
-18
-18
-19
-18
-18
-16
-16
-16
-16
-15
-15
-14
-13
-13
-12
-12
-13
-13
-12
-11
-12
-12
-12
-11
-11
-10
-10
-10
-10
-10
-9
-8
-8
-7
-7
-7
-6
-6
-4
-3
-3
-3
-3
-2
-1
0
0
0
1
1
2
2
3
2
2
1
2
2
2
3
3
3
3
3
3
4
4
4
4
4
5
5
6
6
6
7
7
8
8
9
9
10
10
10
11
12
13
13
13
13
14
15
15
16
16
15
16
17
17
17
17
16
16
16
17
17
17
18
18
18
18
18
19
20
20
20
21
21
22
23
23
23
24
25
26
27
28
29
29
30
32
33
34
34
35
36
36
38
38
39
39
39
39
39
40
41
42
42
42
43
45
46
46
47
48
48
50
51
53
54
56
56
58
59
62
64
65
67
67
69
70
72
74
75
77
78
78
79
81
81
81
81
81
82
83
84
85
85
86
86
87
89
90
91
92
93
94
95
97
98
99
100
102
103
105
106
108
109
111
111
113
114
115
116
117
118
118
120
121
121
122
123
123
123
125
126
127
126
127
128
128
129
130
129
130
130
130
131
131
131
131
130
129
129
129
129
129
128
127
126
125
125
125
123
122
121
120
119
118
117
116
115
114
112
111
111
110
108
107
105
104
104
102
100
98
97
95
93
93
91
88
86
84
82
80
79
77
75
72
70
68
66
64
62
60
57
55
53
51
49
47
45
42
40
38
38
36
33
31
29
28
27
26
23
21
19
18
16
14
13
11
10
8
8
6
7
5
4
3
2
2
0
0
-1
-2
-4
-4
-5
-5
-6
-7
-8
-10
-10
-11
-12
-12
-13
-14
-14
-13
-13
-14
-14
-14
-14
-14
-14
-14
-14
-13
-14
-14
-15
-13
-13
-14
-14
-14
-15
-15
-14
-15
-15
-15
-16
-16
-16
-16
-16
-16
-16
-17
-16
-16
-15
-16
-16
-15
-16
-16
-15
-15
-15
-15
-15
-15
-15
-14
-14
-14
-15
-15
-15
-14
-14
-14
-14
-14
-14
-14
-14
-14
-15
-15
-16
-16
-16
-16
-16
-16
-17
-18
-18
-18
-17
-18
-18
-18
-17
-17
-17
-16
-16
-16
-16
-16
-15
-14
-15
-14
-15
-15
-15
-14
-14
-14
-14
-14
-14
-14
-13
-13
-12
-14
-13
-13
-13
-13
-13
-14
-14
-14
-14
-14
-15
-15
-15
-17
-16
-16
-16
-15
-15
-16
-16
-16
-16
-15
-15
-15
-15
-14
-15
-14
-14
-13
-14
-14
-13
-13
-13
-13
-13
-14
-15
-15
-16
-16
-16
-17
-18
-18
-18
-17
-17
-17
-18
-18
-17
-17
-17
-17
-17
-17
-16
-16
-16
-15
-15
-16
-16
-16
-17
-16
-16
-16
-16
-17
-18
-18
-18
-19
-20
-21
-21
-22
-22
-23
-24
-24
-25
-27
-27
-27
-28
-28
-29
-29
-29
-29
-28
-28
-29
-29
-29
-28
-28
-27
-27
-28
-28
-29
-28
-28
-27
-27
-27
-28
-28
-27
-26
-27
-27
-27
-28
-28
-27
-27
-26
-27
-27
-28
-27
-27
-27
-28
-28
-28
-29
-28
-28
-28
-29
-29
-29
-30
-30
-30
-30
-31
-32
-32
-32
-32
-33
-32
-33
-33
-33
-33
-32
-32
-32
-33
-33
-33
-32
-31
-31
-31
-32
-32
-32
-31
-31
-31
-31
-32
-32
-32
-32
-32
-32
-35
-35
-36
-36
-36
-36
-36
-36
-37
-37
-37
-37
-37
-37
-38
-38
-37
-37
-37
-37
-37
-37
-38
-37
-37
-37
-37
-37
-38
-38
-37
-37
-37
-37
-36
-36
-36
-34
-35
-34
-35
-34
-34
-32
-32
-32
-32
-33
-33
-33
-33
-33
-33
-34
-33
-34
-34
-34
-34
-34
-35
-34
-35
-34
-33
-34
-35
-35
-34
-34
-33
-33
-33
-33
-33
-33
-32
-32
-31
-32
-32
-32
-32
-31
-31
-30
-31
-30
-31
-31
-30
-30
-30
-30
-31
-31
-30
-30
-30
-30
-31
-30
-31
-31
-31
-31
-30
-31
-31
-31
-30
-29
-29
-29
-29
-30
-29
-29
-28
-29
-28
-30
-29
-29
-29
-29
-29
-31
-31
-31
-31
-31
-31
-32
-32
-32
-32
-30
-30
-30
-30
-30
-30
-29
-29
-28
-28
-29
-29
-28
-27
-27
-26
-26
-26
-25
-26
-26
-25
-25
-26
-26
-27
-26
-26
-26
-27
-27
-28
-28
-28
-28
-28
-29
-30
-29
-29
-28
-29
-29
-29
-29
-29
-28
-28
-27
-27
-26
-26
-25
-25
-24
-24
-24
-25
-24
-24
-24
-24
-24
-24
-25
-24
-25
-25
-24
-26
-27
-27
-27
-26
-26
-26
-26
-25
-26
-26
-25
-25
-25
-25
-24
-24
-23
-22
-21
-22
-21
-21
-21
-20
-20
-20
-21
-22
-22
-21
-21
-21
-21
-20
-21
-21
-21
-21
-21
-21
-21
-21
-21
-20
-20
-19
-19
-19
-19
-18
-17
-18
-18
-18
-19
-18
-18
-18
-18
-18
-18
-18
-18
-18
-19
-18
-19
-19
-19
-19
-18
-17
-17
-17
-17
-17
-16
-16
-16
-16
-16
-16
-16
-15
-14
-13
-13
-13
-13
-12
-12
-11
-12
-11
-11
-11
-10
-10
-10
-10
-11
-11
-11
-11
-12
-10
-11
-12
-11
-12
-11
-11
-11
-12
-12
-11
-11
-11
-10
-11
-11
-11
-11
-10
-9
-10
-10
-10
-10
-9
-10
-9
-9
-10
-10
-10
-10
-10
-11
-11
-11
-11
-11
-10
-11
-10
-9
-10
-9
-9
-8
-7
-6
-5
-5
-3
-2
0
0
2
3
3
4
5
6
6
7
7
7
8
8
8
8
8
6
6
6
6
6
4
4
4
3
4
4
4
4
3
3
3
4
5
4
4
4
3
4
3
3
2
1
0
-1
-1
-2
-3
-4
-6
-6
-6
-6
-7
-6
-8
-8
-8
-8
-7
-7
-6
-5
-6
-5
-4
-4
-3
-3
-4
-4
-4
-3
-3
-3
-3
-5
-5
-5
-5
-5
-6
-7
-7
-6
-6
-7
-7
-7
-7
-7
-7
-6
-6
-6
-7
-7
-7
-6
-7
-6
-7
-7
-8
-8
-8
-8
-8
-8
-9
-8
-8
-8
-7
-7
-8
-8
-8
-6
-6
-5
-6
-5
-5
-4
-3
-2
-2
-2
-2
-1
0
1
0
1
0
0
0
0
1
0
1
2
2
3
6
8
10
12
15
18
22
27
32
37
41
46
51
55
60
64
67
69
71
72
72
71
68
65
60
55
49
43
35
28
19
9
0
-9
-17
-27
-35
-44
-51
-58
-64
-70
-77
-84
-91
-97
-103
-109
-116
-122
-128
-136
-142
-149
-156
-163
-169
-176
-182
-187
-191
-194
-197
-199
-199
-199
-197
-193
-188
-184
-177
-170
-163
-153
-144
-135
-125
-116
-106
-96
-86
-76
-68
-60
-52
-45
-37
-30
-24
-19
-14
-11
-6
-3
-1
3
3
5
6
7
9
10
11
12
13
12
13
14
15
14
14
14
15
15
15
16
16
16
17
18
19
19
19
20
19
20
20
21
22
22
22
23
23
23
24
24
24
24
23
24
24
25
25
25
24
25
25
26
27
27
26
27
27
28
29
28
29
28
29
30
31
32
33
32
32
32
33
33
34
34
33
34
34
34
34
34
34
33
33
34
35
35
35
34
34
35
36
37
39
39
39
39
40
40
41
42
43
42
43
44
45
46
47
47
47
46
48
48
48
49
48
49
49
49
50
50
50
49
49
49
49
50
50
50
50
50
51
52
53
54
54
56
56
57
59
59
61
61
62
63
64
65
66
67
67
68
69
70
70
70
70
70
71
72
72
72
73
73
73
74
75
76
76
77
77
78
79
79
80
81
82
82
83
85
86
87
87
88
89
90
91
93
94
96
97
99
100
102
104
105
106
107
109
111
113
114
115
115
117
118
120
121
121
122
123
123
124
126
126
128
128
128
129
131
132
133
134
134
135
137
138
139
140
141
142
143
144
145
147
147
148
148
149
150
151
151
152
152
153
154
154
155
155
155
155
155
155
156
156
156
156
156
156
157
157
157
157
156
156
156
156
156
157
155
155
154
153
153
153
152
150
149
148
147
145
144
143
141
139
138
137
134
133
131
129
127
127
125
124
122
121
118
116
116
114
112
110
107
105
103
102
100
97
96
93
91
89
88
85
84
82
80
78
77
76
74
72
71
69
67
67
66
63
61
60
59
57
56
55
53
51
49
47
46
45
42
41
38
36
36
35
34
33
32
30
30
30
29
29
29
28
27
27
26
26
26
25
24
24
23
23
23
22
21
21
20
20
19
20
18
18
17
17
17
17
17
17
16
16
17
18
18
18
18
18
18
18
19
18
19
18
17
17
17
16
16
16
14
14
14
14
15
15
14
13
13
14
15
15
15
15
16
16
17
18
18
18
18
19
19
21
21
21
21
20
20
19
20
21
19
20
18
19
18
18
17
17
15
16
15
16
16
17
16
16
17
17
17
18
18
18
18
18
19
18
19
19
19
18
18
19
19
18
18
18
18
18
19
19
19
18
18
17
18
19
18
19
18
18
18
19
20
20
19
20
20
20
20
19
19
18
16
16
17
16
16
15
15
14
13
14
14
14
15
14
14
14
15
16
15
15
15
15
17
17
17
17
17
16
17
17
17
17
16
15
15
16
15
15
15
15
14
14
14
14
14
14
14
13
13
13
13
12
12
11
11
11
10
10
10
8
8
8
8
7
6
6
6
6
6
6
7
7
7
7
8
9
10
10
10
10
10
10
9
9
9
8
8
8
8
7
7
7
7
5
5
4
5
4
4
3
2
3
3
3
4
3
3
3
3
3
3
3
2
2
2
1
2
2
2
1
0
0
0
-1
-1
-1
-1
-2
-2
-2
-2
-2
-3
-3
-3
-4
-3
-3
-3
-3
-4
-4
-3
-3
-3
-3
-4
-3
-3
-2
-2
-2
-1
-1
-1
-1
0
0
0
0
1
0
1
0
0
0
-1
-1
-1
-1
-1
-1
-1
-2
-2
-2
-2
-2
-2
-2
-3
-2
-1
-1
-1
-2
-2
-3
-2
-1
-1
0
-1
-1
-1
-1
-1
0
0
-1
-1
-1
0
0
1
1
1
1
1
2
2
2
3
3
3
4
4
4
3
3
2
2
2
3
2
2
1
0
0
0
0
-1
-1
-3
-2
-3
-2
-3
-3
-4
-4
-4
-3
-4
-4
-5
-5
-6
-5
-4
-3
-4
-3
-3
-3
-3
-3
-2
-2
-2
-3
-3
-3
-3
-3
-3
-3
-3
-4
-3
-2
-3
-3
-5
-4
-5
-4
-3
-4
-5
-5
-5
-6
-6
-6
-6
-7
-7
-7
-7
-6
-6
-5
-6
-5
-5
-4
-4
-3
-4
-4
-3
-3
-2
-3
-3
-4
-4
-5
-4
-5
-5
-6
-6
-6
-6
-6
-6
-6
-6
-6
-6
-5
-6
-5
-5
-5
-5
-5
-5
-4
-3
-3
-3
-3
-2
-2
-2
-2
-3
-3
-3
-3
-2
-2
-3
-4
-4
-4
-3
-4
-4
-5
-5
-6
-5
-6
-6
-7
-8
