# Simple Text Format
# Sampling Rate (Hz):= 1200.00
# Resolution:= 12
# Labels:= ECG	aVL
# Age:=	16
# Gender:=	Feminino
-32
-32
-32
-31
-32
-31
-32
-32
-32
-31
-31
-31
-31
-31
-31
-31
-31
-31
-31
-31
-31
-31
-31
-30
-30
-30
-30
-29
-30
-30
-30
-30
-30
-29
-29
-29
-30
-29
-29
-29
-30
-30
-29
-30
-30
-30
-30
-30
-30
-29
-30
-30
-29
-29
-29
-29
-29
-29
-28
-28
-28
-28
-28
-28
-27
-27
-27
-27
-27
-27
-27
-27
-26
-26
-26
-26
-26
-26
-25
-25
-25
-25
-25
-25
-25
-25
-24
-24
-24
-24
-23
-24
-24
-24
-24
-24
-24
-24
-24
-23
-23
-23
-23
-24
-24
-24
-23
-23
-24
-23
-23
-23
-23
-23
-23
-24
-24
-24
-23
-23
-23
-23
-23
-24
-24
-24
-24
-24
-23
-24
-24
-23
-23
-23
-23
-23
-23
-23
-22
-22
-22
-22
-22
-23
-23
-23
-23
-23
-23
-22
-22
-22
-22
-22
-21
-22
-22
-22
-21
-21
-21
-21
-21
-21
-21
-20
-20
-20
-20
-19
-19
-19
-19
-19
-19
-19
-19
-19
-18
-19
-19
-19
-19
-19
-18
-19
-19
-19
-18
-18
-18
-18
-18
-19
-19
-18
-18
-18
-18
-18
-18
-18
-19
-19
-19
-19
-19
-19
-19
-19
-19
-19
-19
-18
-18
-19
-19
-19
-18
-18
-18
-18
-18
-19
-18
-18
-18
-17
-17
-17
-18
-18
-17
-17
-17
-17
-17
-17
-17
-16
-16
-16
-16
-17
-17
-17
-17
-17
-17
-16
-16
-16
-16
-16
-16
-16
-16
-15
-15
-15
-15
-15
-15
-14
-14
-14
-14
-14
-14
-13
-14
-14
-14
-14
-14
-14
-14
-14
-14
-14
-14
-15
-14
-14
-15
-15
-14
-14
-14
-13
-13
-13
-12
-12
-12
-12
-12
-12
-11
-11
-11
-11
-11
-11
-12
-13
-12
-12
-12
-12
-13
-12
-12
-12
-12
-12
-12
-12
-12
-12
-12
-12
-12
-12
-13
-13
-12
-12
-12
-12
-12
-12
-11
-11
-11
-12
-12
-12
-11
-11
-11
-11
-11
-12
-11
-11
-11
-11
-11
-11
-11
-11
-11
-10
-10
-10
-10
-10
-10
-11
-10
-10
-10
-10
-11
-11
-10
-10
-10
-9
-10
-10
-9
-9
-8
-9
-9
-8
-8
-7
-7
-7
-7
-8
-8
-8
-7
-7
-7
-7
-7
-6
-6
-6
-6
-5
-6
-6
-5
-5
-5
-4
-5
-5
-4
-4
-4
-4
-4
-4
-4
-4
-4
-4
-4
-4
-4
-3
-3
-4
-3
-3
-4
-3
-3
-3
-4
-4
-4
-3
-3
-3
-3
-3
-3
-3
-3
-3
-3
-2
-2
-2
-3
-3
-3
-3
-3
-3
-2
-3
-3
-2
-2
-2
-2
-2
-2
-2
-2
-1
-1
-1
-2
-1
-1
-2
-1
-1
-1
-1
-1
-1
-1
1
0
0
0
0
0
1
1
1
0
1
1
1
1
1
1
2
2
2
2
3
3
2
2
3
3
4
4
4
4
3
3
3
3
3
4
5
5
6
7
8
9
9
11
12
13
15
16
18
20
23
24
26
28
30
32
34
37
39
41
42
44
46
47
49
51
52
53
54
55
57
58
59
59
61
62
63
64
65
66
66
67
68
69
70
71
71
72
73
74
75
75
76
76
78
78
79
79
80
81
81
82
82
83
83
84
84
84
85
85
86
85
87
87
87
88
89
90
90
91
91
92
92
92
92
93
93
94
94
94
94
95
95
95
95
96
97
96
96
97
98
98
98
98
99
99
100
100
101
101
101
102
101
103
103
104
104
105
105
106
106
107
107
106
107
107
107
107
108
107
107
107
106
107
107
107
106
107
107
106
107
106
106
105
106
106
105
105
105
105
105
106
105
106
107
107
107
109
109
109
110
111
112
112
113
114
115
116
116
117
118
118
118
119
119
120
120
121
122
122
122
123
123
122
123
124
124
125
125
124
124
125
125
126
126
126
127
126
127
128
127
128
128
128
128
128
128
128
128
128
128
127
127
127
127
126
126
127
126
126
126
126
126
126
126
126
127
127
126
126
126
126
126
126
127
127
127
127
127
127
127
127
126
126
126
127
127
127
128
128
127
127
127
127
128
128
128
129
130
130
131
131
132
134
135
136
138
138
140
141
142
144
144
146
147
147
149
149
150
149
149
149
147
146
144
142
138
135
131
125
119
112
106
98
90
82
73
64
54
45
34
24
15
5
-4
-12
-19
-26
-32
-38
-41
-44
-45
-45
-43
-41
-37
-33
-29
-23
-17
-9
-3
5
13
21
29
37
44
51
57
64
69
74
79
84
88
91
95
98
101
104
107
109
111
114
116
117
118
119
120
122
123
125
126
127
128
129
129
131
131
131
132
132
132
133
134
134
134
134
134
134
134
135
135
135
136
136
136
136
136
137
137
137
137
137
137
137
137
138
137
137
137
137
138
138
138
138
138
137
137
137
137
138
138
138
138
139
138
138
139
138
138
139
139
139
139
140
139
139
139
139
140
139
140
139
139
139
139
140
140
139
140
140
140
140
140
142
142
142
142
143
143
142
142
143
143
143
143
142
142
142
142
142
142
142
142
142
142
142
142
142
142
142
142
143
143
143
143
142
142
142
142
142
142
143
143
143
143
143
143
143
142
142
142
142
142
142
142
141
141
141
141
142
142
142
142
142
143
143
143
142
143
143
143
143
143
144
144
144
143
144
144
144
144
144
144
144
144
144
143
143
143
144
143
144
144
143
143
144
143
142
142
143
143
143
143
143
143
142
142
142
142
142
142
142
143
142
143
143
143
142
142
143
143
143
143
144
143
143
143
142
143
142
143
143
143
143
143
142
142
142
142
142
142
142
141
142
142
143
142
143
142
142
142
142
142
142
142
141
141
140
141
140
140
139
140
139
139
139
139
138
139
138
138
138
137
137
137
136
136
136
135
136
135
135
135
134
134
134
134
134
133
134
133
133
132
133
132
132
132
131
131
131
131
131
130
129
129
129
129
129
129
129
129
128
128
128
128
128
127
127
127
127
126
127
127
127
128
127
128
128
128
128
128
128
130
130
130
131
131
130
131
131
132
132
132
133
133
133
134
134
134
134
134
134
135
134
134
133
134
134
134
134
133
132
133
133
132
133
133
133
133
134
134
134
134
134
135
134
135
135
135
135
136
136
136
137
137
136
136
137
137
137
136
137
137
136
137
137
136
135
136
136
135
135
135
136
135
135
135
135
134
134
134
135
134
134
134
134
134
134
134
135
135
135
135
136
136
135
136
136
136
136
136
137
136
136
136
136
136
136
136
135
135
135
135
134
135
135
135
134
133
133
133
133
133
133
133
133
133
133
133
133
133
134
134
134
135
135
135
135
135
135
135
135
135
135
135
135
135
135
134
135
133
133
134
134
133
133
133
133
133
133
133
134
133
133
133
134
133
133
133
133
132
133
133
133
133
133
133
133
133
133
133
133
133
133
133
133
132
133
133
133
133
133
133
134
134
134
134
134
134
133
133
134
134
134
134
133
133
133
132
133
132
132
132
132
132
132
132
131
131
131
131
132
131
131
131
131
131
131
131
131
130
131
131
132
132
131
132
132
132
132
132
133
132
132
132
132
132
131
131
130
131
131
130
130
130
130
131
130
130
130
130
130
130
131
131
130
130
131
130
131
131
130
130
130
130
130
130
130
130
130
130
129
130
130
130
129
129
129
129
129
129
130
130
130
129
129
129
130
129
129
129
129
129
129
128
128
128
128
128
128
128
128
128
127
127
127
127
127
127
127
128
128
129
129
128
128
128
128
128
128
129
129
128
129
129
129
129
129
129
129
129
128
128
128
128
128
129
128
128
128
128
128
129
128
128
128
128
129
128
128
129
128
128
129
129
128
128
128
128
127
127
128
128
127
127
127
128
128
127
126
126
127
126
126
126
126
125
125
125
125
125
125
125
126
126
126
126
126
126
126
126
126
126
126
126
126
126
125
125
125
125
126
125
125
125
125
125
125
125
125
124
125
125
125
125
124
124
124
124
124
124
123
123
123
123
123
122
122
121
122
121
121
121
120
120
119
119
118
119
118
118
118
118
118
118
117
117
118
118
117
117
117
117
117
118
118
117
118
117
118
118
118
118
117
118
118
119
119
119
120
120
120
121
122
121
122
122
122
122
123
123
124
124
125
125
125
126
126
126
126
126
126
127
126
127
126
127
127
127
127
126
127
127
127
127
127
127
127
127
127
126
127
126
127
126
126
126
126
125
125
125
125
125
125
124
124
124
124
123
123
123
123
123
123
123
122
122
122
122
121
121
122
122
122
121
121
121
121
121
121
121
122
122
122
122
122
122
122
122
123
124
125
126
127
128
129
131
132
134
135
136
138
139
140
141
142
142
143
143
143
143
142
142
141
139
137
134
131
126
121
117
111
105
96
89
80
70
61
50
40
29
18
7
-3
-13
-23
-33
-42
-50
-57
-62
-67
-70
-72
-72
-71
-70
-67
-64
-59
-53
-46
-39
-31
-24
-15
-7
2
9
17
25
33
39
46
52
57
61
66
71
75
78
81
85
87
90
93
95
97
99
100
102
103
105
106
107
108
108
109
111
111
113
113
114
114
115
115
116
117
117
117
118
118
119
119
120
120
120
120
120
119
120
120
120
120
120
120
121
120
120
120
120
120
121
120
120
120
120
120
120
120
120
120
121
121
121
121
121
121
121
122
122
123
123
123
123
123
122
122
122
122
122
123
123
123
123
122
122
122
122
122
122
122
123
123
123
123
122
122
122
122
122
122
122
121
121
121
121
121
121
121
121
120
121
121
121
121
121
120
121
121
121
121
121
121
122
121
122
122
121
122
122
122
122
122
122
122
121
121
122
122
121
122
121
121
121
121
121
121
121
121
121
121
121
121
121
121
122
121
121
121
121
121
121
121
121
121
121
121
122
121
121
121
121
121
122
122
121
122
121
121
121
121
122
122
122
122
123
122
122
122
122
122
122
123
123
122
122
122
121
121
121
122
122
122
122
121
121
121
121
121
121
121
121
121
121
121
121
120
121
120
120
120
120
120
120
120
120
119
120
119
120
119
119
119
119
119
119
118
118
118
119
118
118
118
118
119
118
118
118
118
118
118
117
118
117
118
117
117
116
117
117
116
117
117
116
117
116
116
116
116
116
116
116
115
116
115
115
115
115
114
114
115
115
114
114
114
114
114
114
113
113
112
112
112
112
111
111
110
109
109
109
109
108
108
109
109
107
107
107
107
106
107
106
106
106
106
105
105
104
105
104
105
105
105
105
104
105
105
105
105
105
105
106
106
106
106
106
105
105
105
105
106
106
106
105
105
105
105
105
105
105
105
105
105
105
105
105
104
105
104
104
104
105
105
105
106
105
105
106
105
105
106
106
107
106
106
106
106
106
106
106
107
106
107
107
106
107
107
107
107
106
107
107
107
107
106
106
107
106
106
106
106
106
105
106
106
106
105
105
105
105
104
104
104
104
104
104
103
103
103
103
103
104
104
103
104
104
105
104
104
104
104
105
105
105
105
105
105
105
105
105
106
106
106
106
106
106
106
106
106
106
106
106
106
106
106
105
105
104
105
104
104
104
104
103
103
103
103
103
102
102
102
103
103
103
103
102
102
101
102
102
102
102
102
103
103
103
103
103
103
103
103
104
104
104
104
103
103
103
103
103
103
103
103
104
103
103
103
103
102
102
102
103
103
103
103
102
102
103
103
103
103
103
103
103
104
104
103
103
104
104
104
103
103
103
103
103
102
102
102
102
102
102
102
102
102
102
102
101
101
101
101
102
102
101
101
100
101
100
100
100
100
101
100
100
100
100
101
101
100
100
101
101
101
101
101
100
100
99
99
100
100
100
100
100
100
100
101
100
100
100
101
100
100
100
100
101
101
101
101
101
102
102
102
101
101
101
101
101
101
101
101
100
100
100
100
100
99
99
99
99
99
99
99
99
99
99
99
99
99
99
99
99
99
99
98
99
98
98
98
98
98
98
98
98
97
97
98
98
97
97
97
98
98
98
98
98
98
98
98
98
98
99
99
100
100
100
100
100
99
99
100
99
99
99
99
98
98
98
98
98
98
98
98
98
98
98
98
98
98
98
98
97
97
97
97
97
96
96
96
96
97
96
97
96
96
96
96
96
96
96
96
96
97
96
97
97
96
96
96
97
97
97
97
97
96
96
96
96
95
95
95
95
94
94
94
94
93
92
93
93
92
92
93
92
92
91
92
91
91
91
91
91
90
91
90
90
89
89
89
88
88
89
89
89
88
89
89
89
89
89
89
90
90
90
90
90
90
90
90
90
91
91
91
92
92
92
92
93
93
94
94
95
94
95
96
95
96
95
96
97
97
97
98
98
99
99
99
100
100
100
100
101
101
101
101
101
100
100
100
100
100
100
100
99
100
100
99
99
98
98
98
98
97
97
97
97
96
96
95
96
96
96
96
96
96
96
96
96
96
96
96
96
96
96
96
96
95
95
95
95
95
95
95
95
95
95
94
94
94
94
94
94
95
95
96
96
97
97
98
100
101
103
104
106
107
109
111
111
113
114
115
116
117
117
117
116
115
114
112
109
105
101
97
92
86
81
74
66
58
48
38
28
18
6
-5
-17
-28
-39
-50
-60
-69
-77
-85
-92
-98
-103
-106
-107
-106
-105
-103
-99
-94
-88
-80
-73
-65
-56
-46
-37
-28
-18
-8
0
9
17
24
29
36
41
47
52
55
59
62
65
67
69
70
73
75
76
78
79
80
82
83
84
85
86
87
89
89
90
90
91
91
92
92
93
93
93
93
94
94
95
95
94
95
96
95
96
96
96
97
96
96
96
97
97
98
97
97
97
98
98
98
98
98
98
97
97
97
97
97
97
97
96
96
97
96
96
96
97
97
97
96
97
97
96
97
97
97
97
97
96
97
96
96
97
97
97
96
96
96
96
96
96
96
96
96
96
96
96
96
96
96
96
96
96
96
96
96
96
96
96
96
96
96
96
97
97
97
97
97
96
97
96
97
97
97
97
97
97
97
97
97
97
96
97
97
97
97
97
96
96
96
95
95
95
95
95
96
96
96
95
95
95
95
95
95
95
95
95
95
95
95
95
95
95
95
96
96
96
96
97
97
97
97
97
97
98
98
98
97
98
97
97
97
97
97
97
97
97
97
97
96
96
95
96
96
95
95
96
95
95
95
94
94
94
95
94
94
94
95
94
94
95
94
95
94
94
94
94
94
94
93
93
93
93
94
93
93
94
94
93
94
93
94
94
94
94
94
94
94
94
94
93
94
93
94
93
94
93
94
93
93
93
93
92
92
93
92
92
92
91
91
90
91
90
90
89
90
90
89
89
90
89
88
89
88
88
88
87
87
87
86
85
85
85
84
85
85
84
84
84
85
84
84
84
84
84
84
84
84
84
83
84
84
84
83
83
84
84
84
84
83
84
83
83
83
83
83
83
82
82
82
81
81
81
81
81
81
81
81
82
81
82
82
82
82
82
82
82
83
82
82
83
83
83
83
83
83
83
84
83
85
84
84
84
85
85
85
85
86
85
85
86
85
85
86
86
86
86
87
86
87
86
87
87
86
87
87
87
87
86
86
86
86
86
86
86
86
87
87
86
86
86
86
86
86
86
87
87
87
86
86
86
86
87
87
87
87
87
88
88
88
88
88
89
89
89
89
89
89
90
89
89
89
89
88
88
88
87
87
87
87
86
86
86
86
86
86
86
86
85
86
85
85
85
85
85
85
85
85
85
85
86
86
85
86
86
86
86
87
86
86
86
86
86
86
86
87
87
87
88
88
88
87
87
87
87
87
88
87
87
87
86
86
87
87
86
86
86
86
86
86
86
86
86
86
86
86
86
86
87
86
86
86
86
87
87
87
87
87
87
88
87
87
87
87
88
88
87
86
87
86
86
86
86
87
87
87
86
86
86
86
86
86
87
86
86
87
87
87
86
86
86
86
86
86
86
85
86
87
87
87
87
87
88
88
88
89
89
90
89
90
90
90
90
90
90
90
91
91
90
90
90
90
89
88
89
89
88
88
87
87
86
87
87
87
87
87
87
87
87
87
88
88
88
88
87
88
88
87
88
88
87
87
88
88
88
87
87
87
87
87
87
87
87
87
86
86
86
86
86
85
85
85
85
85
85
85
85
85
85
85
85
84
84
84
85
85
85
84
84
84
84
84
85
85
85
85
85
85
85
86
86
86
86
86
87
86
86
86
86
86
86
86
86
85
85
86
86
86
85
85
85
85
85
85
85
85
85
85
84
84
84
84
85
85
85
85
85
85
85
85
85
85
85
85
85
86
86
86
85
85
85
85
85
84
84
85
85
85
84
84
84
84
83
84
84
84
84
84
84
84
84
84
84
84
84
85
85
85
86
86
86
85
85
85
85
85
85
85
84
84
83
83
83
83
83
84
83
83
83
83
83
83
82
83
83
82
82
82
83
82
82
82
82
83
83
83
83
83
83
83
84
84
83
84
84
84
85
85
85
84
85
85
85
85
84
84
84
85
85
85
84
84
84
83
83
84
84
83
83
83
82
83
82
82
82
82
83
83
83
83
83
83
83
83
83
84
84
84
83
83
82
82
83
83
83
83
82
82
82
82
82
82
82
82
82
83
83
83
82
83
82
82
83
83
83
83
83
83
83
82
82
83
82
82
82
82
82
81
82
82
81
81
81
82
82
82
82
83
82
82
82
81
82
82
82
82
82
82
82
82
82
82
82
82
83
83
83
83
83
83
83
83
83
83
83
83
83
83
83
82
83
83
82
82
82
83
83
83
83
83
83
83
83
82
82
82
82
82
82
82
82
82
81
82
82
82
82
82
82
82
82
82
82
82
82
82
82
82
82
81
81
81
81
81
81
81
81
81
81
81
81
80
80
80
81
81
81
81
81
80
80
80
80
80
81
81
81
81
82
82
82
81
81
81
81
82
82
81
81
82
81
81
81
81
82
82
81
81
81
82
82
82
82
82
82
83
83
83
82
83
82
82
83
83
82
82
82
82
82
82
82
82
81
81
81
81
81
81
80
80
80
80
80
80
80
80
81
81
81
81
81
81
81
81
82
82
82
82
81
81
81
81
81
81
81
81
81
80
80
80
80
80
80
80
80
80
80
80
79
80
80
80
80
80
79
78
79
79
79
79
79
78
78
78
79
79
79
79
78
78
79
79
78
78
78
78
79
79
79
80
80
80
80
81
81
81
81
81
81
80
80
81
81
80
80
81
81
81
80
80
79
79
79
78
78
78
77
76
76
75
74
73
74
74
73
73
73
73
73
73
72
73
72
73
73
73
74
74
75
74
75
75
76
76
76
76
77
77
77
77
78
77
78
78
78
79
79
79
79
79
80
80
80
81
81
82
82
82
83
83
84
84
84
85
85
86
86
86
86
86
86
87
87
87
87
87
87
87
86
87
86
85
85
86
85
85
85
85
84
83
83
83
83
83
82
83
83
83
83
82
83
82
82
83
83
83
83
83
83
82
82
82
82
82
82
82
82
82
82
82
82
83
83
82
82
82
82
82
82
82
82
82
83
84
85
87
88
90
92
92
94
95
97
98
99
100
101
101
103
102
102
101
101
100
98
96
94
90
86
82
77
72
65
59
52
43
34
25
15
4
-7
-17
-27
-38
-47
-58
-66
-74
-81
-88
-93
-97
-100
-100
-100
-99
-97
-92
-89
-83
-77
-70
-62
-53
-45
-36
-28
-19
-11
-2
5
11
17
23
30
35
39
43
46
50
52
55
58
59
61
63
66
67
68
69
71
72
73
73
74
75
75
76
76
76
77
77
77
78
78
78
79
78
78
78
79
79
79
79
79
79
79
80
80
79
79
80
80
80
81
81
81
82
82
82
82
82
82
82
83
83
83
83
82
83
82
82
82
82
82
82
83
83
83
83
83
82
82
82
83
82
82
82
82
82
82
82
82
82
83
83
83
84
84
84
85
85
84
85
85
86
86
86
86
86
86
86
86
86
86
86
85
86
86
85
85
85
84
84
84
84
84
84
83
84
83
83
83
83
83
83
83
83
83
83
83
83
83
83
83
84
84
83
83
83
83
83
83
83
83
83
84
84
84
83
83
84
83
83
83
83
83
83
83
83
83
83
83
83
83
83
83
83
83
83
83
83
83
83
83
83
83
83
82
82
82
82
82
82
82
82
82
82
82
82
82
82
82
82
82
83
82
82
82
81
81
81
81
81
81
81
80
81
81
80
80
80
80
80
80
80
79
80
79
79
78
79
79
78
79
79
78
78
78
78
78
77
77
77
76
76
76
76
75
75
75
74
75
74
74
74
74
74
74
74
74
74
74
73
74
73
74
74
73
73
73
72
73
72
71
72
71
71
71
70
69
70
69
68
69
68
68
67
67
66
66
66
65
65
66
65
65
65
64
64
64
63
62
62
62
62
61
61
61
60
60
60
60
60
59
59
59
59
60
60
60
60
60
60
60
60
60
61
61
60
59
60
60
60
60
60
60
60
60
61
61
61
61
61
62
62
62
62
63
63
62
63
63
63
64
64
65
65
65
65
65
65
64
66
65
65
66
66
66
66
67
67
67
67
67
68
68
68
68
68
69
69
68
69
69
69
69
70
69
69
69
69
69
69
69
70
70
70
70
70
70
70
70
71
71
72
72
72
71
71
71
71
70
71
71
71
71
71
71
71
71
71
71
70
70
70
70
70
70
70
69
69
69
69
70
69
69
70
70
69
69
69
69
69
69
70
69
69
69
69
68
68
68
69
70
70
70
70
71
71
71
72
71
71
72
72
72
73
72
72
71
71
71
71
70
71
71
70
71
71
71
70
69
70
69
69
70
70
70
69
69
69
69
69
69
69
69
69
69
69
69
69
69
69
69
69
69
69
69
70
69
69
69
69
69
70
70
70
70
70
70
70
71
70
70
70
70
70
70
69
69
69
69
69
69
69
68
69
69
69
69
69
69
69
68
68
68
68
68
67
67
67
67
67
67
67
67
66
66
66
66
66
66
66
66
67
67
67
67
67
67
67
67
68
68
68
69
69
69
69
69
69
69
69
69
68
68
68
68
67
67
67
67
67
66
67
66
66
66
66
66
66
65
65
65
65
64
64
64
64
64
64
64
64
65
65
65
65
65
66
66
66
67
67
67
68
68
68
68
67
67
67
67
67
67
66
66
66
65
65
65
65
64
64
63
64
64
63
63
64
63
63
63
64
63
63
64
64
64
64
65
65
64
64
65
65
65
65
65
64
64
64
64
64
64
64
64
64
64
64
64
64
64
64
64
64
64
64
64
64
64
64
63
63
63
63
63
63
63
63
63
63
63
62
62
62
62
62
62
62
61
61
61
61
61
62
62
61
61
61
61
62
61
61
61
61
61
61
60
61
61
60
60
61
61
61
61
61
62
61
61
61
61
61
61
61
61
62
62
61
61
61
61
61
61
61
61
61
61
62
61
61
61
61
62
61
61
61
61
60
60
60
60
60
59
59
59
59
59
59
59
59
59
59
59
59
59
59
59
59
59
59
59
60
60
60
60
60
60
61
60
60
60
60
59
60
59
59
59
59
59
59
59
58
59
59
59
59
59
59
58
58
58
58
58
59
59
58
58
58
57
57
57
57
57
56
56
57
57
57
56
56
56
56
56
56
56
56
56
56
55
55
55
55
56
56
56
56
56
56
56
56
56
56
56
56
56
56
56
56
55
55
55
55
55
54
54
54
54
54
54
54
54
54
54
53
53
53
53
54
54
54
54
55
54
54
55
55
55
55
56
56
55
55
56
55
55
55
54
55
54
54
54
54
54
54
53
54
54
54
54
54
53
54
54
53
54
54
54
53
53
53
53
53
53
54
53
53
53
53
53
53
52
52
53
53
53
52
52
52
52
52
52
52
53
52
52
52
52
53
52
52
52
52
52
52
53
52
52
52
52
51
51
53
53
53
53
53
53
53
54
53
53
53
53
53
53
53
53
53
52
52
51
52
52
51
51
52
51
51
52
52
52
52
52
51
51
51
52
51
51
50
50
51
51
51
51
50
50
49
49
50
49
49
49
48
49
49
49
48
48
48
48
49
49
49
49
49
49
49
49
48
48
48
48
47
48
47
46
46
45
45
44
44
44
43
43
43
44
43
43
43
42
42
42
42
42
43
43
42
42
42
43
42
42
43
43
44
44
45
44
45
45
46
47
46
47
47
48
48
48
49
49
50
51
51
51
51
52
52
53
53
52
52
53
53
53
53
53
52
52
51
52
51
51
50
51
50
51
50
50
50
49
49
50
49
49
49
49
48
48
48
48
48
48
49
49
49
49
48
49
49
48
49
48
48
48
48
47
48
48
48
48
48
48
48
48
48
48
48
48
48
47
47
48
48
49
49
49
50
51
52
53
55
55
57
58
60
62
62
63
65
65
66
67
67
68
68
67
66
65
64
62
59
56
51
48
44
39
34
27
19
11
3
-6
-15
-25
-35
-45
-55
-66
-76
-86
-94
-103
-111
-118
-125
-130
-133
-136
-137
-137
-136
-134
-131
-127
-122
-116
-111
-104
-97
-89
-81
-73
-65
-57
-49
-41
-34
-27
-23
-17
-12
-7
-3
1
5
8
11
13
16
18
20
23
25
27
28
29
31
32
33
34
35
36
37
37
39
39
39
40
40
40
41
41
42
41
41
42
42
42
42
42
42
43
43
44
44
44
44
44
44
45
45
45
46
46
46
46
47
47
47
47
47
47
47
47
47
47
47
47
46
47
47
47
47
47
47
47
47
47
47
47
47
47
48
48
48
47
48
47
47
47
47
47
47
47
47
47
47
47
48
48
48
48
48
48
48
48
47
47
47
47
47
47
47
47
48
48
48
48
47
47
47
47
47
47
47
47
46
47
47
46
47
47
46
46
46
46
46
46
47
47
46
46
46
46
46
46
46
46
45
46
47
47
47
47
47
47
47
47
48
48
48
48
48
48
48
48
47
47
48
47
47
47
47
47
46
46
46
46
46
45
46
46
46
46
46
46
46
45
46
46
46
46
47
47
47
46
47
47
47
46
47
47
47
46
46
46
45
45
45
45
45
44
44
44
44
44
45
45
44
45
44
45
45
46
46
46
46
46
46
46
46
46
47
47
46
47
46
46
46
45
45
45
45
44
44
44
43
43
42
42
42
42
42
42
42
41
42
41
41
41
41
41
41
41
41
41
40
40
39
39
39
39
39
39
39
39
38
39
38
38
38
37
37
36
36
36
35
35
34
33
33
33
32
33
32
32
32
32
32
31
32
31
31
31
31
32
31
31
31
31
31
31
31
31
31
31
31
30
30
30
30
30
30
30
30
29
29
29
28
29
29
29
29
29
29
29
30
31
30
30
31
31
31
31
31
31
30
31
31
31
31
31
31
32
33
33
33
33
34
33
33
33
34
34
33
34
34
34
34
33
34
34
34
34
34
34
34
34
34
34
34
34
34
34
34
34
34
33
34
34
34
34
34
34
34
35
34
34
35
35
35
35
36
35
35
35
36
36
36
36
36
37
37
38
38
38
38
38
38
38
39
39
39
39
40
39
39
39
39
40
40
40
40
40
40
40
41
41
41
41
41
41
42
42
42
41
41
42
41
41
42
42
42
42
42
43
43
43
43
43
44
44
44
44
44
44
45
44
44
45
46
46
46
45
46
46
46
46
47
47
47
47
47
47
47
47
47
46
46
46
46
47
47
47
47
47
47
47
47
48
48
47
47
47
47
47
47
47
47
47
47
47
47
47
47
47
47
47
48
48
48
48
48
49
49
49
49
49
49
50
50
50
51
51
51
51
51
52
51
51
51
52
52
52
52
52
51
52
52
52
52
51
51
51
52
52
52
51
50
50
50
50
51
51
51
49
50
49
49
49
50
50
49
49
49
49
49
49
49
49
50
50
50
50
50
50
49
49
49
49
50
50
50
50
50
50
50
50
50
50
50
51
51
51
51
51
51
50
50
50
51
51
51
51
52
52
51
51
51
51
51
51
51
51
51
51
51
50
50
50
50
50
50
51
50
50
51
51
51
51
51
51
52
52
52
52
51
51
50
50
51
51
51
51
50
49
49
49
49
49
49
50
50
50
50
49
49
49
49
49
50
50
50
51
51
51
51
51
51
51
51
51
51
51
51
51
51
50
50
50
51
50
50
50
50
50
51
51
51
50
50
50
51
51
51
50
50
49
49
49
49
49
49
49
49
49
49
49
49
49
49
49
49
49
49
49
50
49
49
49
49
50
50
50
50
50
50
50
50
50
51
50
50
50
50
50
50
50
50
50
50
50
50
50
50
50
50
49
50
50
50
50
49
49
49
50
50
49
49
49
49
50
50
50
50
50
50
50
50
51
50
51
51
51
51
51
50
50
50
50
50
50
50
50
50
50
50
50
50
49
50
50
50
50
50
50
50
50
50
50
50
50
50
50
50
50
49
49
49
49
49
49
49
49
49
48
48
48
48
48
48
48
48
49
49
49
49
49
49
49
49
49
49
49
49
49
49
50
49
50
50
50
49
50
50
50
50
50
50
50
50
50
50
50
50
50
50
49
49
49
49
49
49
50
50
50
50
50
50
50
50
50
50
49
49
50
50
49
49
49
50
50
50
50
50
50
50
50
50
50
50
50
50
50
50
50
49
50
49
49
49
49
49
49
49
48
48
48
48
48
47
47
47
48
48
47
47
47
46
47
46
46
46
46
46
46
46
46
46
45
45
45
45
45
45
45
45
45
44
44
45
45
45
45
46
46
46
47
46
46
46
47
48
48
48
49
49
49
49
50
50
50
51
52
53
53
53
53
54
54
54
55
56
55
56
56
56
56
56
57
57
57
58
58
58
58
58
58
58
57
58
58
58
58
57
57
56
56
55
55
55
55
55
55
55
55
55
54
54
54
54
54
55
55
55
55
55
54
54
54
54
54
54
53
53
53
53
53
52
52
52
52
51
51
51
51
51
51
51
51
51
52
52
52
53
54
55
57
57
58
60
61
63
65
67
68
69
70
71
72
73
74
74
75
74
74
72
69
67
63
60
56
52
46
41
35
27
19
12
3
-7
-16
-27
-37
-47
-58
-68
-78
-87
-96
-105
-112
-118
-124
-128
-131
-132
-133
-133
-130
-126
-122
-117
-111
-104
-96
-88
-80
-72
-62
-55
-46
-38
-30
-22
-16
-10
-5
0
5
9
13
16
20
22
25
28
30
31
33
35
36
38
39
40
41
43
44
45
45
46
48
48
48
49
50
50
51
51
51
51
52
53
53
53
54
54
53
54
54
54
55
55
56
56
56
55
56
56
56
56
56
56
57
57
56
56
57
56
57
57
57
57
57
58
58
58
59
59
58
58
58
59
59
60
59
59
59
59
59
59
59
59
59
59
59
60
60
60
59
59
60
60
60
60
61
61
60
60
60
61
61
61
61
61
61
61
61
61
60
60
60
60
59
59
59
58
58
58
58
58
58
58
58
58
58
58
58
58
59
58
59
59
59
60
59
59
59
59
59
59
59
59
59
59
59
59
60
60
59
59
59
59
60
60
60
60
60
59
60
60
60
60
60
60
60
60
60
60
59
60
60
60
60
60
59
59
59
58
58
58
58
58
59
59
59
59
59
58
58
58
58
58
58
58
58
58
58
57
57
57
57
56
57
57
57
58
57
58
57
58
57
57
58
58
57
57
56
56
56
56
56
55
55
55
56
55
55
54
55
54
54
54
55
54
55
54
54
53
54
53
53
54
53
54
53
54
53
54
53
53
53
53
52
53
53
52
52
52
52
52
51
52
51
52
51
51
51
51
51
50
49
49
49
49
48
48
47
46
47
47
46
46
45
46
46
45
46
45
46
45
46
45
45
46
45
45
44
45
44
44
44
44
43
43
43
43
43
43
43
42
42
42
42
42
41
41
41
41
40
41
41
41
41
41
41
41
41
41
41
41
41
42
42
42
41
42
41
41
41
41
41
41
42
42
42
42
43
43
42
42
43
43
43
44
44
44
45
44
45
45
46
46
47
47
48
49
49
49
49
49
49
49
49
50
49
49
48
49
48
49
48
49
48
49
48
49
49
48
48
48
49
49
49
49
49
49
49
49
49
49
50
50
50
50
50
50
50
50
50
50
51
50
50
50
50
50
50
49
50
49
49
49
49
49
48
48
48
48
48
48
48
48
48
48
48
48
48
47
48
49
49
49
49
49
49
49
49
49
49
49
49
49
49
49
49
49
49
48
48
49
49
48
49
49
49
49
50
50
49
49
49
49
50
49
49
49
49
48
48
49
49
49
48
49
49
49
49
49
49
49
49
49
49
49
49
50
49
49
49
49
50
50
50
50
51
51
51
51
51
51
51
51
51
51
51
51
50
50
50
50
50
50
51
51
51
50
50
50
50
50
50
50
49
49
49
50
49
49
49
49
49
49
49
49
50
50
50
50
50
50
51
51
51
51
52
52
51
51
51
52
52
52
51
51
51
51
51
51
51
50
50
50
50
50
50
50
50
50
51
51
51
51
51
51
51
52
52
52
52
51
51
52
52
52
52
51
52
51
51
51
52
52
52
52
52
52
53
53
53
53
53
53
54
53
52
53
53
52
52
52
51
51
51
52
51
51
51
51
50
50
50
50
51
50
50
50
49
49
49
49
49
49
50
50
50
50
50
50
50
49
49
49
49
49
49
50
49
49
49
49
49
49
49
49
49
49
50
49
49
49
49
50
50
50
50
49
49
49
49
48
48
48
48
48
48
48
48
48
49
49
49
49
50
50
51
50
50
50
50
51
51
51
51
51
51
50
50
50
50
50
50
50
51
51
50
50
50
50
50
50
50
50
50
50
51
51
51
50
50
49
50
50
50
50
50
50
49
49
49
49
49
49
49
50
50
50
50
50
50
51
51
51
50
50
50
51
50
50
50
50
50
51
50
50
50
50
50
50
50
50
50
51
51
51
51
50
51
50
50
51
51
51
51
50
50
50
50
50
50
50
50
50
51
50
49
49
50
49
49
49
49
49
49
49
49
50
50
50
49
49
49
50
50
51
51
50
50
51
51
51
51
51
51
51
51
52
52
52
51
51
51
51
51
51
50
50
49
49
49
49
49
49
49
49
49
49
50
51
51
50
51
52
53
53
54
53
54
54
54
55
55
56
56
56
55
55
56
55
55
55
54
55
55
54
54
53
53
52
52
53
52
52
52
52
52
52
52
52
52
52
52
52
52
52
52
53
52
52
52
52
52
53
53
53
53
53
53
53
53
53
53
52
53
53
52
52
51
51
51
51
51
51
51
52
52
52
52
52
51
51
51
52
52
52
52
53
52
53
53
53
53
53
53
54
54
54
54
54
53
53
53
53
54
54
53
53
53
52
52
52
52
52
52
52
53
53
53
53
52
52
52
52
53
53
52
52
51
51
51
51
51
51
51
51
51
51
51
51
52
51
52
51
51
51
51
52
51
51
51
51
51
51
52
52
52
52
52
52
51
52
52
52
52
52
52
52
51
51
51
51
51
50
50
51
51
50
50
50
50
50
49
49
49
50
49
49
48
48
48
48
48
48
48
48
48
49
49
48
48
48
48
48
48
48
48
47
47
46
46
47
47
47
47
47
47
47
47
47
48
48
48
48
48
48
49
48
49
48
48
49
49
49
49
49
49
49
49
49
48
48
48
48
48
47
46
46
45
45
44
44
43
42
42
41
41
41
41
40
41
40
40
40
40
40
41
41
41
41
42
43
43
43
44
44
45
45
46
46
47
47
47
47
48
48
48
48
48
48
48
49
49
49
49
50
51
50
51
52
52
52
52
53
54
53
54
54
54
54
55
55
55
55
55
55
55
54
54
53
53
53
52
52
51
51
51
51
50
50
49
49
49
49
49
49
49
50
50
50
50
50
50
51
50
50
51
51
50
50
50
50
50
50
51
52
52
52
52
52
51
51
51
50
50
50
50
50
50
50
50
51
51
52
53
55
55
57
58
59
60
62
64
65
66
67
68
68
69
68
68
68
67
65
62
59
56
52
47
43
37
31
24
17
8
-1
-11
-21
-32
-42
-53
-64
-74
-86
-95
-104
-113
-121
-127
-133
-137
-141
-142
-142
-141
-139
-136
-132
-126
-120
-113
-105
-97
-88
-79
-70
-61
-53
-44
-36
-28
-21
-16
-10
-4
0
4
8
11
14
17
19
21
23
25
27
29
30
32
33
34
36
37
39
39
40
41
41
42
43
43
44
44
46
46
47
47
48
48
48
48
48
48
48
49
49
49
49
49
49
49
49
49
49
48
49
49
49
49
49
49
49
49
50
49
50
50
50
49
49
50
51
51
51
51
51
51
51
51
51
52
52
52
52
52
52
52
51
52
51
51
51
51
51
51
51
52
52
52
52
51
51
51
51
52
52
52
52
52
51
51
51
51
51
52
52
53
53
53
53
53
52
52
52
52
52
52
52
52
51
51
52
52
52
52
52
52
52
52
52
51
51
51
51
51
51
51
52
51
51
50
50
51
51
52
52
52
52
52
52
51
52
52
52
52
52
52
51
52
51
51
52
52
52
52
52
52
52
52
53
53
52
52
52
52
52
52
52
52
51
51
52
52
52
52
52
52
52
52
52
52
51
52
52
52
52
53
52
51
51
51
51
51
51
52
52
51
51
51
52
51
51
51
51
51
51
51
50
50
51
50
50
51
51
50
50
51
51
52
51
52
51
51
51
52
51
52
52
51
51
50
51
50
50
50
50
49
50
49
49
49
48
48
48
48
48
47
47
47
46
47
47
47
47
47
46
47
46
47
46
46
46
46
45
45
45
44
43
43
42
42
42
42
41
42
41
41
41
41
41
41
40
41
41
41
41
41
40
41
40
40
40
40
40
40
40
40
40
39
39
39
39
38
38
37
37
38
38
37
37
37
37
38
37
38
38
38
39
39
39
40
39
39
41
41
41
41
42
42
42
42
42
42
43
43
43
43
44
44
44
44
44
45
44
45
45
45
46
45
45
46
46
47
47
48
49
49
50
50
51
50
51
51
52
52
52
52
52
52
52
51
52
51
51
51
51
51
51
50
51
51
51
50
51
51
51
51
51
51
51
51
52
52
52
52
53
53
53
54
53
53
53
52
52
52
52
52
52
51
51
49
50
50
49
49
49
49
49
49
49
49
49
49
50
50
50
50
50
50
50
50
50
51
51
52
52
52
52
52
52
52
52
52
51
51
51
51
51
50
50
50
50
50
50
51
50
50
50
50
50
50
50
50
50
50
51
50
50
50
49
50
51
51
51
50
50
51
51
51
51
52
51
52
52
52
52
52
52
51
52
51
51
52
51
51
51
51
51
51
51
51
50
49
50
50
50
50
50
49
49
49
49
48
48
48
49
48
48
48
48
48
49
49
49
50
49
49
49
50
49
49
50
50
51
51
51
51
52
52
52
52
52
52
52
53
52
52
52
51
51
51
50
50
50
51
50
50
50
50
49
49
50
49
50
50
50
50
51
51
50
50
51
51
51
51
51
52
52
52
52
52
52
52
51
51
51
51
51
50
50
50
50
50
50
50
50
51
51
51
51
50
50
50
51
51
51
51
51
51
50
50
50
51
51
51
51
51
51
50
50
50
50
50
50
50
50
50
50
49
49
49
49
49
49
49
48
48
48
48
48
48
48
48
48
49
49
49
49
48
48
48
48
48
49
49
49
49
49
49
50
49
49
49
50
50
50
50
50
49
49
50
49
49
49
50
50
50
50
50
50
50
50
50
51
50
50
50
49
49
50
48
48
49
49
49
48
48
48
48
48
49
48
49
49
49
49
49
49
48
49
49
49
49
50
50
50
51
51
50
50
50
50
50
51
51
51
51
51
50
50
50
50
50
50
50
50
50
50
50
50
49
49
49
49
50
50
50
49
49
49
49
48
48
49
49
50
50
49
49
51
51
50
51
50
51
51
51
50
51
51
51
51
51
51
50
50
50
50
51
51
50
50
50
49
49
50
49
49
49
48
49
48
48
48
49
49
49
49
49
49
50
49
49
50
50
50
50
49
49
48
48
48
48
49
49
49
49
49
49
49
49
49
49
49
49
50
50
50
49
49
49
49
50
50
49
49
50
50
50
50
50
50
49
49
49
49
49
49
48
49
49
49
49
49
49
49
50
50
50
50
50
50
50
50
51
51
50
51
50
50
50
50
50
50
50
50
51
51
50
50
50
49
49
50
50
50
50
50
49
49
49
49
49
50
50
50
50
50
50
50
50
50
50
51
51
51
51
51
51
51
51
51
50
50
51
50
50
50
50
50
50
50
50
50
49
50
50
50
49
50
50
50
51
51
51
51
51
51
52
52
53
52
52
52
52
52
52
52
51
51
51
51
51
50
51
51
51
51
51
50
50
49
49
49
49
49
49
49
48
47
48
48
47
47
46
46
47
46
46
45
45
45
45
45
45
45
44
44
44
44
43
43
44
44
44
44
44
44
44
44
44
43
44
44
44
45
45
44
44
44
45
45
46
46
47
47
48
48
48
49
49
50
50
51
52
52
52
53
53
53
53
54
55
55
55
56
56
57
56
56
56
56
56
56
56
56
55
55
55
54
53
53
53
53
52
52
52
52
52
52
52
52
52
51
51
52
52
52
51
52
52
51
51
52
52
51
51
52
52
51
51
51
51
50
50
50
49
49
48
48
48
48
47
47
48
48
49
49
50
51
52
53
55
56
58
59
60
62
63
64
65
67
68
69
70
70
71
71
71
71
69
67
65
63
58
55
50
45
40
34
27
20
12
3
-7
-16
-26
-37
-47
-57
-67
-78
-88
-96
-105
-112
-119
-124
-129
-132
-134
-135
-133
-132
-129
-125
-119
-114
-107
-101
-94
-86
-78
-70
-62
-54
-46
-39
-32
-26
-21
-16
-10
-6
-1
3
6
9
12
15
17
20
22
24
25
27
29
30
31
33
34
35
37
37
39
40
41
42
42
44
44
45
46
46
47
47
47
48
48
48
48
48
49
49
50
50
49
50
50
50
50
50
50
51
50
50
50
50
50
51
51
51
51
52
52
51
52
51
51
51
51
52
52
52
52
52
52
52
52
52
51
51
51
52
51
51
51
51
51
51
51
52
52
52
52
52
52
52
51
52
52
52
52
52
52
53
53
53
53
53
53
52
52
52
52
52
51
51
50
50
49
49
49
49
50
50
50
50
50
50
50
51
50
51
51
51
52
51
51
51
51
51
52
52
52
52
52
52
52
51
52
52
52
52
51
51
51
51
51
50
50
50
50
50
51
51
51
51
51
51
51
51
51
51
51
51
51
52
52
51
52
52
52
52
52
52
53
53
52
52
52
51
51
51
51
51
51
50
50
50
49
49
49
49
49
49
49
49
49
49
50
49
49
50
50
50
50
50
50
50
49
50
50
49
50
50
50
50
49
50
49
49
49
49
48
49
48
47
47
46
46
46
45
46
45
45
45
45
44
45
44
44
44
44
43
44
43
43
43
43
43
43
43
43
43
43
44
43
43
43
42
42
42
41
42
42
41
41
41
41
40
41
40
40
39
39
39
39
38
37
37
37
36
36
35
35
34
33
32
32
31
31
31
31
31
31
31
30
31
31
30
31
31
31
31
31
31
31
30
30
30
30
30
30
30
29
30
29
30
29
29
29
29
29
28
28
29
29
28
29
29
29
29
29
29
30
31
31
31
32
31
31
32
32
32
32
33
33
33
33
34
34
34
34
34
34
35
35
35
35
34
34
35
35
35
35
35
35
34
35
34
34
35
34
34
35
34
35
34
35
34
34
34
34
34
34
33
33
33
33
33
33
33
34
33
33
33
33
34
33
33
33
33
34
33
33
33
33
33
33
33
33
34
34
33
34
34
34
34
34
34
34
34
35
35
35
35
34
34
34
33
33
33
34
34
34
34
34
34
33
32
33
33
32
32
32
32
33
32
32
33
33
33
33
33
34
34
34
34
35
34
34
35
36
35
35
35
35
35
36
35
35
35
35
34
35
35
35
35
35
35
34
34
35
34
34
34
33
34
34
33
33
34
34
34
34
34
34
35
35
34
34
34
34
35
35
35
35
34
34
34
34
34
34
34
35
34
34
34
34
34
34
34
34
34
34
34
34
35
34
34
34
34
34
34
34
34
34
34
34
34
34
34
34
34
34
34
34
34
33
33
32
33
33
33
32
32
32
33
33
33
33
33
32
32
32
32
32
32
32
32
32
32
32
32
32
33
33
33
33
32
32
32
32
32
32
32
32
32
32
32
32
32
32
31
32
32
32
32
32
32
31
31
30
31
31
29
29
30
29
29
29
29
29
29
30
30
31
31
31
32
31
31
33
33
33
34
33
33
34
33
33
34
33
33
33
32
32
32
31
31
31
31
30
31
31
31
31
30
30
30
30
30
30
31
31
31
31
31
31
31
32
31
31
32
32
32
32
31
31
30
31
30
30
30
30
29
29
29
29
29
29
29
29
30
30
29
29
29
28
28
28
28
29
29
28
28
28
28
28
28
29
29
29
29
29
29
30
29
28
29
29
29
29
29
30
30
30
30
30
30
30
30
30
30
30
30
30
30
29
29
30
30
30
30
30
30
30
30
29
30
29
29
29
29
29
28
28
28
27
27
26
26
25
26
25
25
25
25
24
23
24
23
23
23
22
23
22
22
22
21
21
21
22
22
23
23
23
23
23
23
23
23
24
24
25
25
25
25
25
26
25
26
27
27
27
28
29
29
29
30
30
30
31
32
31
32
32
32
32
32
33
33
33
34
34
34
34
34
35
34
35
34
35
34
35
35
34
34
34
33
33
33
32
32
32
32
32
32
32
32
31
31
31
32
32
32
32
31
31
31
31
31
31
31
31
31
31
31
31
31
31
31
31
32
32
32
31
31
30
30
30
31
31
31
32
31
31
32
32
33
33
34
35
36
37
39
40
41
43
45
46
47
48
50
52
53
54
55
55
55
54
53
52
50
48
45
41
37
30
24
19
13
4
-4
-13
-22
-33
-43
-54
-66
-77
-89
-99
-109
-119
-129
-138
-146
-153
-158
-163
-165
-167
-167
-166
-163
-160
-155
-150
-144
-136
-129
-121
-112
-102
-94
-85
-76
-67
-59
-51
-45
-39
-32
-28
-22
-18
-13
-9
-5
-3
0
3
5
7
9
11
13
14
15
17
18
20
21
22
24
25
25
27
28
28
29
30
31
31
31
32
32
32
32
33
33
34
33
33
34
34
34
34
34
34
34
34
34
34
34
34
34
33
33
33
33
34
34
34
35
35
35
35
35
36
36
36
36
37
37
37
36
37
37
37
37
37
38
38
38
39
39
39
39
38
38
38
38
38
38
38
38
38
37
37
37
37
37
38
38
38
38
38
38
38
38
38
38
38
39
39
38
38
38
38
38
38
38
38
39
38
39
39
38
38
38
38
38
38
38
38
37
38
37
37
37
37
38
38
38
38
38
37
38
38
37
37
38
38
38
37
38
37
36
37
37
37
37
37
37
37
37
37
37
37
37
37
37
37
37
37
37
36
36
37
37
37
37
37
37
37
37
38
38
37
38
38
38
38
39
38
39
38
39
38
38
38
38
39
39
39
39
38
38
38
38
38
38
38
37
37
37
36
35
36
36
36
36
36
36
36
37
36
37
37
36
36
37
37
37
37
37
36
36
37
37
36
36
37
36
36
37
36
36
36
35
35
36
36
35
35
35
35
35
34
35
34
34
34
34
35
34
35
34
34
34
34
34
34
34
34
33
33
32
32
31
31
31
30
31
30
30
30
30
29
29
29
29
29
29
28
28
27
28
27
27
27
28
27
27
27
27
26
26
25
25
26
25
25
25
24
24
23
23
24
23
24
23
24
23
24
24
24
24
24
25
24
24
25
25
24
25
24
24
24
24
24
24
24
24
24
24
24
25
24
24
24
24
24
25
25
24
24
24
24
25
25
25
25
25
26
26
25
26
26
25
26
26
26
26
26
26
25
26
25
26
26
26
26
26
26
27
26
26
26
26
26
27
26
26
26
26
26
26
26
27
27
26
27
27
27
27
27
27
27
27
27
27
27
27
27
26
27
26
26
27
27
27
26
26
26
26
26
27
26
26
26
27
27
27
26
27
26
26
26
26
26
26
26
26
26
26
26
26
26
26
26
27
27
27
26
26
26
26
26
27
27
27
27
27
27
27
27
27
27
27
27
26
26
26
26
26
26
25
26
26
26
26
25
26
26
26
26
26
26
25
26
26
26
26
26
25
25
25
25
25
25
25
25
25
25
26
26
25
26
26
26
25
25
25
26
26
26
25
26
26
26
26
26
26
26
27
27
27
27
27
27
27
27
27
27
27
27
26
27
27
27
27
27
27
28
28
28
28
27
27
28
27
27
27
27
26
26
27
26
26
26
27
27
27
27
27
27
27
27
27
27
28
28
28
28
28
27
28
28
28
28
29
29
29
29
29
29
29
29
29
29
29
29
29
29
28
29
28
28
29
29
29
29
28
28
28
28
28
28
28
28
27
27
27
26
26
25
25
25
25
25
25
25
25
25
25
25
25
25
25
25
26
26
26
26
25
25
25
25
25
26
26
26
26
26
27
27
27
27
27
27
27
27
27
27
27
26
27
27
26
26
26
26
27
27
27
27
27
27
26
27
27
27
27
27
26
27
27
27
27
27
27
27
26
27
28
27
28
27
27
27
27
28
27
27
27
27
27
27
27
27
27
27
27
27
27
27
27
27
26
27
26
26
26
26
26
25
26
25
25
26
26
26
26
26
26
26
26
26
26
26
27
27
27
26
26
26
26
26
26
27
27
27
27
27
27
27
27
26
26
26
27
27
26
26
26
25
25
25
25
25
25
25
25
25
25
25
25
24
24
25
25
25
25
25
25
25
25
25
25
25
25
25
25
26
27
27
27
26
26
26
27
27
27
27
27
27
27
27
27
27
27
28
27
27
27
27
27
27
27
27
27
27
27
27
27
26
26
26
26
26
26
26
26
26
27
26
26
26
26
25
26
26
26
26
25
26
26
26
26
26
26
26
26
26
26
26
27
27
27
27
27
27
27
27
27
26
27
27
27
27
27
27
27
27
26
26
27
26
26
26
26
26
26
26
25
25
25
25
25
25
25
25
25
24
25
24
24
24
24
23
23
23
23
22
22
22
21
21
21
21
21
21
21
21
21
21
21
20
20
20
21
21
21
20
21
21
22
22
22
23
24
24
24
25
25
26
27
27
28
28
28
29
29
30
30
31
31
32
32
33
32
33
33
34
35
34
34
35
35
34
35
35
35
35
34
33
33
33
33
33
33
32
31
32
32
31
31
30
30
30
29
30
30
29
28
28
28
28
28
28
28
28
28
28
28
29
28
28
29
28
28
28
28
29
28
28
28
29
28
28
28
28
28
28
28
28
28
28
28
29
30
30
31
32
33
34
35
36
37
39
40
42
43
45
45
47
48
48
48
48
48
47
46
44
42
38
36
30
26
21
17
11
4
-3
-11
-20
-29
-39
-48
-59
-69
-79
-90
-100
-110
-120
-129
-136
-144
-150
-154
-158
-161
-162
-161
-159
-157
-153
-148
-143
-136
-128
-120
-111
-103
-95
-85
-77
-67
-59
-51
-44
-38
-33
-27
-21
-17
-13
-10
-7
-3
0
2
4
6
7
9
11
12
13
16
17
18
20
20
21
22
23
23
25
26
26
26
28
27
27
27
27
28
28
29
29
29
30
29
29
29
29
29
30
30
30
30
30
30
31
30
31
31
31
32
32
32
33
33
33
33
32
32
32
33
32
32
33
32
32
31
31
32
32
32
32
32
32
32
32
33
32
32
32
32
32
32
32
31
32
32
32
32
32
32
32
32
32
32
33
33
33
33
34
34
34
35
35
34
35
34
34
34
34
35
35
35
34
34
34
34
34
33
33
34
34
33
33
33
32
32
32
32
32
32
32
32
32
32
32
31
32
32
32
32
32
33
32
32
32
32
32
32
32
32
32
32
32
32
32
32
32
32
33
33
33
33
32
32
32
32
32
32
32
32
32
33
33
34
34
33
33
34
34
34
34
34
34
34
34
34
33
33
33
33
34
34
33
33
33
33
33
32
32
33
33
32
32
32
31
31
31
31
31
31
31
31
31
32
31
31
31
31
32
32
31
32
31
32
31
31
31
31
31
31
31
31
30
31
30
31
30
30
30
30
30
29
28
28
28
27
27
27
27
27
26
27
27
27
27
27
26
26
26
26
26
26
26
25
25
24
25
24
24
24
24
24
23
23
22
23
22
22
22
22
21
21
21
20
20
19
19
18
19
19
18
18
18
19
19
19
19
19
19
19
19
19
19
18
18
18
18
17
17
17
17
17
17
17
16
16
16
15
16
16
15
15
14
15
14
15
15
15
15
16
16
17
17
17
17
17
17
17
17
18
19
20
20
20
20
21
21
21
21
21
22
22
22
23
23
23
22
23
23
23
24
24
23
24
24
23
24
24
23
24
24
24
24
24
25
24
24
25
24
25
25
25
25
25
25
24
25
25
25
25
25
25
25
25
25
25
25
25
24
25
25
25
25
25
24
24
24
24
23
24
24
24
24
24
24
23
23
23
23
23
24
24
23
23
23
23
23
23
23
23
23
23
24
24
24
24
24
24
24
24
24
24
23
24
23
23
23
23
23
23
24
23
23
23
23
23
23
23
24
24
25
25
25
24
24
24
24
24
25
25
25
25
25
25
26
26
25
25
25
25
26
26
25
25
25
25
25
24
24
25
24
25
25
25
25
25
25
25
26
25
25
25
26
26
25
25
25
25
25
25
26
26
26
26
26
26
26
26
26
27
27
27
26
26
27
26
26
27
26
26
26
27
27
27
27
27
27
27
26
27
27
27
27
27
27
27
27
28
28
28
28
28
28
28
28
28
28
28
28
28
29
29
29
28
28
27
27
27
27
27
27
26
26
26
26
26
26
26
26
25
25
25
25
25
25
25
25
25
25
26
26
26
26
26
26
26
27
27
27
27
27
27
27
26
27
27
27
27
27
27
27
27
27
27
27
27
26
26
27
27
26
26
27
27
26
26
26
26
27
27
27
27
26
26
27
27
26
26
26
27
27
27
27
26
27
27
27
27
27
27
27
26
26
26
26
26
26
26
26
26
26
26
26
25
25
25
25
25
25
25
25
26
25
25
25
25
25
24
25
25
25
25
25
26
25
25
25
25
25
25
25
26
26
26
26
26
25
25
25
26
26
26
26
25
25
25
25
25
25
26
26
25
25
25
26
26
25
25
25
26
26
26
26
25
25
26
26
26
26
26
26
27
27
26
26
26
27
27
27
26
26
26
26
27
27
26
26
27
27
27
27
27
27
27
27
27
27
27
27
27
27
27
27
27
26
26
26
25
25
24
25
25
25
25
25
25
25
25
25
25
25
25
25
26
25
25
25
25
26
26
26
26
26
27
27
27
27
26
27
27
27
27
27
26
26
25
25
26
26
26
26
26
26
25
25
25
25
26
25
25
26
26
26
25
25
25
25
25
26
26
26
26
27
26
26
27
27
27
27
27
28
28
27
27
27
26
26
27
27
27
27
27
27
27
28
28
27
27
28
28
29
29
29
28
28
28
28
28
28
28
29
29
29
29
29
29
29
29
29
29
29
28
28
29
28
28
28
28
28
28
27
28
28
28
28
28
28
28
28
28
28
28
28
28
28
28
28
28
29
29
29
29
29
29
29
29
29
29
29
30
30
30
30
30
29
29
29
29
29
30
30
30
30
30
30
30
30
30
30
29
29
29
29
29
29
29
29
28
28
28
28
28
28
28
29
29
28
29
29
29
29
29
29
29
29
29
29
29
29
29
29
29
29
28
28
28
28
28
28
29
29
28
28
29
28
28
28
28
28
28
29
29
29
29
29
29
29
29
29
29
29
30
29
29
29
29
29
30
29
29
30
30
30
30
30
30
31
31
31
31
31
31
31
31
30
30
30
30
30
31
31
30
30
30
30
30
30
29
29
29
30
30
30
29
29
28
28
29
29
29
29
29
29
29
29
29
30
30
30
30
30
30
31
30
29
30
30
30
29
30
30
30
30
29
29
29
29
29
29
29
28
28
28
27
27
26
27
26
25
26
25
25
25
25
24
25
24
23
24
24
24
24
24
25
24
24
24
25
25
25
26
26
27
27
28
28
29
28
29
30
29
30
30
30
30
30
31
31
32
33
32
33
33
34
34
35
35
35
36
37
37
38
37
37
37
38
39
39
39
40
40
40
40
39
40
39
39
38
38
38
37
37
37
35
35
35
34
34
34
33
33
33
33
33
33
33
33
32
33
33
33
33
33
33
32
33
33
33
33
34
34
34
34
34
33
34
33
33
33
33
33
33
33
33
33
32
33
34
35
35
36
38
38
40
42
42
43
45
47
48
50
52
52
53
54
54
54
55
55
55
53
52
50
46
42
38
34
29
25
18
11
3
-5
-15
-24
-34
-45
-56
-67
-78
-88
-99
-109
-118
-128
-136
-144
-150
-155
-158
-160
-161
-162
-160
-157
-153
-148
-142
-135
-127
-118
-109
-100
-90
-81
-72
-62
-55
-47
-40
-33
-28
-22
-17
-12
-8
-5
-1
1
4
6
9
11
13
14
17
18
20
21
23
24
25
26
27
28
29
29
30
31
32
32
32
33
33
34
34
34
34
35
34
35
35
35
35
35
35
35
36
36
37
37
38
38
38
39
39
39
39
38
39
39
39
39
39
38
38
38
38
38
38
38
38
38
38
39
39
39
39
39
39
39
40
40
39
40
40
40
40
40
40
41
41
41
41
41
41
42
42
42
42
42
42
42
41
42
41
41
41
41
41
41
41
41
41
42
41
41
41
42
42
42
42
42
42
41
42
42
42
42
42
43
43
43
43
43
43
43
42
42
43
43
43
43
42
43
42
42
42
41
41
41
41
41
41
41
41
42
42
42
42
42
42
41
42
41
41
42
42
42
42
42
42
42
43
43
43
42
42
41
42
42
42
41
41
41
40
40
40
40
41
41
40
40
41
41
41
41
41
42
42
42
42
42
42
42
42
43
42
42
42
43
43
43
43
43
43
43
43
43
43
43
43
43
43
43
42
42
42
42
42
42
42
42
41
41
41
40
41
40
40
41
40
40
41
40
40
39
40
40
40
40
39
39
40
39
39
39
39
39
39
39
39
39
38
38
38
37
37
37
37
38
37
38
37
38
37
37
36
37
37
36
37
36
35
35
34
34
34
33
33
32
32
33
32
32
31
31
31
31
31
31
30
31
30
29
29
29
29
29
29
29
29
29
29
29
29
29
28
28
28
28
29
28
28
27
28
28
28
28
28
28
28
28
29
29
28
29
28
30
30
30
30
31
31
30
31
31
32
32
32
32
33
33
34
35
36
36
36
36
36
37
38
38
38
38
38
39
39
39
39
40
40
40
40
41
41
41
40
41
41
41
41
41
40
41
41
40
40
41
40
41
40
41
40
41
41
40
40
40
40
41
41
40
40
40
39
40
40
40
41
40
40
40
41
41
41
41
41
41
41
41
41
41
41
42
41
41
41
41
42
42
42
42
43
43
43
43
43
43
43
42
42
42
42
41
41
41
41
40
40
40
41
41
41
41
41
40
40
40
40
41
41
42
41
41
42
42
42
42
43
42
42
42
42
43
43
43
42
43
43
42
42
42
41
42
42
42
42
42
42
42
41
42
42
42
42
42
42
43
43
42
42
43
43
42
42
42
42
43
43
43
43
42
43
43
43
43
43
43
43
44
44
44
44
43
44
44
43
43
43
44
44
44
44
44
44
44
44
44
43
43
43
43
44
43
43
43
43
44
44
43
43
43
44
44
44
44
44
44
43
43
44
43
43
44
44
44
44
44
44
44
44
45
45
45
45
44
45
45
46
46
46
46
46
45
45
45
45
46
46
46
46
46
46
46
46
46
46
46
45
46
46
45
45
45
44
44
44
44
44
44
45
45
45
45
45
45
44
45
45
45
45
45
45
45
45
45
45
44
44
44
44
44
44
44
44
44
44
44
43
43
43
43
43
42
42
42
42
41
42
42
42
42
43
42
42
41
41
42
42
42
42
42
42
43
42
42
43
43
43
43
43
43
44
44
44
44
43
43
44
44
44
44
44
43
43
43
44
44
44
44
44
45
45
45
45
44
44
43
44
44
44
44
43
43
43
43
43
43
43
43
44
44
44
44
44
44
44
44
44
44
44
44
44
44
44
44
44
44
44
44
45
45
45
45
45
45
45
44
45
45
45
45
45
44
44
44
44
44
44
44
44
44
44
44
44
45
45
45
45
45
45
45
45
45
45
45
45
46
46
45
45
45
46
45
45
45
45
45
44
45
45
44
44
44
43
43
44
44
44
44
43
44
44
44
44
44
43
43
44
44
44
44
44
44
44
44
44
44
43
43
44
44
44
44
44
44
45
44
44
45
45
45
44
44
44
44
43
44
44
44
44
44
44
44
44
44
44
44
44
44
44
44
44
43
43
43
43
44
44
44
44
45
45
45
45
45
45
45
46
46
46
46
46
45
45
45
45
45
45
46
46
46
45
45
45
45
44
45
45
45
45
45
45
44
44
44
44
44
44
44
44
44
44
44
44
43
43
43
44
44
44
43
43
42
42
42
42
42
43
43
43
43
43
43
44
43
43
43
44
44
44
44
44
45
44
45
44
44
44
44
44
44
45
45
45
44
44
44
44
44
44
44
44
43
43
43
43
43
43
44
44
44
44
44
44
44
44
44
44
45
46
45
45
44
45
45
45
45
45
45
45
45
45
46
45
44
44
43
43
44
44
43
42
42
41
41
41
40
40
40
40
39
39
38
39
39
38
38
38
38
38
39
38
38
38
39
38
39
39
39
40
41
41
42
42
42
42
43
43
43
44
44
44
44
45
45
46
46
47
48
47
48
49
49
50
50
50
51
52
51
52
51
52
52
51
52
52
51
51
52
51
51
51
51
50
49
49
49
48
48
48
47
47
48
47
47
46
46
46
46
46
46
47
47
47
46
46
46
46
47
47
46
46
46
45
45
45
46
45
45
45
45
45
46
45
45
45
45
46
46
46
47
47
47
48
49
50
51
53
54
55
57
59
60
61
63
65
66
67
68
69
69
70
70
70
69
68
67
65
62
60
56
52
47
41
35
29
22
15
5
-4
-13
-24
-34
-44
-55
-65
-74
-85
-94
-102
-110
-118
-124
-129
-133
-136
