# Simple Text Format
# Sampling Rate (Hz):= 1200.00
# Resolution:= 12
# Labels:= ECG	III
# Age:=	16
# Gender:=	Feminino
54
54
54
54
55
54
54
54
54
53
53
53
53
53
53
53
53
52
52
52
52
52
52
52
52
52
52
51
51
51
51
51
51
50
50
50
51
50
50
50
50
50
50
51
51
51
51
51
51
50
50
50
49
49
49
49
49
49
48
48
48
48
48
48
48
48
48
47
47
47
47
47
46
46
46
46
46
46
45
45
45
45
45
46
46
46
45
45
45
45
44
44
44
44
44
44
44
44
44
43
43
43
43
44
44
44
43
43
43
42
42
42
42
42
41
42
42
42
41
41
41
41
41
42
42
42
42
42
41
41
41
40
40
40
40
40
40
40
39
39
39
39
39
40
40
40
39
39
39
38
38
38
38
38
37
38
38
38
37
37
37
37
37
38
38
38
38
38
38
37
37
37
37
37
37
37
37
37
36
36
36
36
36
36
36
36
36
36
35
35
35
35
35
35
35
35
35
35
34
34
34
34
35
35
35
35
35
35
35
34
34
34
34
33
33
34
34
34
33
33
33
33
33
34
34
34
34
33
33
33
33
33
32
32
32
32
32
32
32
31
31
31
31
32
32
32
32
32
32
31
31
31
31
31
31
31
32
31
31
31
31
31
31
31
31
31
31
30
30
29
29
29
29
28
28
28
28
28
28
27
27
28
28
28
29
29
29
29
29
28
28
28
28
28
28
28
28
28
27
27
27
27
27
27
28
28
27
27
27
27
27
26
26
26
26
26
26
26
26
26
26
26
26
26
27
27
26
26
26
26
26
26
25
25
25
26
26
26
25
25
25
25
25
26
26
26
26
25
25
25
25
25
25
24
24
24
24
24
24
24
23
24
24
24
25
25
24
24
24
23
23
23
23
23
22
23
23
22
22
21
21
21
21
22
22
22
21
21
21
21
21
20
20
20
20
20
21
21
20
20
20
20
21
21
21
21
21
21
21
21
20
20
20
20
20
20
20
19
19
19
18
18
19
19
19
19
19
19
19
18
18
18
18
18
18
18
18
18
18
17
17
17
18
18
18
18
18
18
17
17
17
16
16
16
16
16
16
16
16
15
15
15
16
16
16
17
16
16
16
16
16
16
16
15
16
16
16
16
16
15
15
15
16
16
16
16
16
16
16
15
15
15
15
14
14
15
15
14
14
13
13
13
13
14
14
14
14
14
13
13
13
13
13
12
12
13
13
13
13
13
13
13
13
13
14
14
14
14
14
14
13
13
13
13
13
13
13
13
12
12
12
12
12
12
12
12
12
11
11
11
10
10
10
10
10
10
10
10
10
10
10
10
10
10
11
11
11
10
10
10
10
10
9
9
9
9
9
9
8
8
8
8
8
8
9
8
8
8
8
7
7
7
7
7
7
7
8
8
7
7
7
7
8
8
8
8
8
8
8
7
7
7
7
6
6
6
7
6
6
5
5
5
6
6
6
7
6
6
6
6
6
6
6
6
6
6
7
7
7
7
7
7
8
9
9
10
10
10
10
11
11
11
12
12
13
14
15
15
15
16
16
17
17
18
18
19
18
18
18
18
17
17
17
16
16
15
15
15
14
13
12
12
11
11
11
11
10
10
9
9
8
7
7
7
6
6
6
5
4
4
3
3
3
3
2
2
1
0
0
-1
-1
-2
-3
-3
-4
-4
-4
-5
-5
-6
-6
-6
-6
-6
-5
-5
-5
-5
-5
-5
-6
-6
-6
-6
-6
-6
-6
-6
-6
-7
-7
-6
-6
-6
-5
-5
-5
-6
-6
-6
-6
-6
-6
-6
-6
-5
-5
-5
-6
-6
-6
-6
-6
-5
-5
-5
-5
-5
-5
-6
-7
-8
-8
-9
-10
-11
-13
-14
-16
-18
-19
-21
-22
-23
-24
-24
-25
-26
-25
-25
-24
-22
-19
-16
-12
-6
0
8
16
26
36
48
61
76
91
106
123
140
157
175
193
211
229
247
264
280
295
309
320
330
339
345
350
352
351
348
342
334
324
312
299
285
269
252
234
217
199
180
162
144
127
112
97
84
72
61
52
43
35
28
23
18
14
11
8
6
4
3
1
0
0
0
0
0
-1
-1
-2
-2
-3
-3
-4
-4
-5
-5
-5
-6
-6
-6
-7
-8
-8
-8
-8
-8
-8
-8
-9
-9
-9
-10
-10
-11
-11
-11
-12
-12
-12
-12
-12
-13
-13
-13
-13
-12
-12
-12
-12
-13
-13
-13
-13
-13
-13
-13
-13
-13
-13
-13
-13
-13
-14
-13
-13
-13
-12
-12
-13
-13
-13
-13
-14
-14
-14
-14
-14
-14
-13
-14
-14
-14
-14
-14
-14
-14
-13
-13
-13
-13
-13
-13
-14
-14
-14
-14
-14
-14
-13
-13
-14
-14
-14
-14
-13
-13
-13
-13
-13
-13
-13
-13
-14
-14
-14
-14
-14
-14
-14
-14
-15
-15
-15
-15
-14
-14
-14
-14
-14
-14
-14
-14
-14
-14
-14
-14
-14
-13
-13
-13
-13
-13
-13
-13
-12
-12
-12
-11
-12
-12
-12
-12
-12
-13
-13
-13
-12
-12
-12
-12
-12
-12
-12
-12
-12
-11
-11
-11
-11
-11
-11
-11
-11
-11
-11
-10
-10
-10
-10
-9
-10
-10
-9
-9
-9
-8
-7
-7
-7
-7
-7
-7
-7
-7
-6
-6
-6
-6
-5
-5
-5
-6
-5
-5
-5
-4
-3
-3
-3
-3
-3
-3
-3
-2
-2
-2
-1
-1
0
0
0
0
0
1
2
3
3
4
4
5
5
6
6
6
6
7
7
8
9
9
9
9
10
10
11
12
13
13
14
14
15
15
16
16
17
17
18
18
19
20
20
21
21
22
23
24
25
26
26
27
28
28
29
29
30
30
31
32
32
33
33
34
34
35
35
36
37
37
37
37
37
38
38
38
38
38
38
38
38
38
38
38
38
38
38
39
39
39
39
39
38
38
37
36
36
35
35
34
34
33
32
30
29
28
27
26
26
24
23
21
20
19
17
16
15
13
12
11
10
9
8
6
5
4
4
3
2
1
0
0
0
-2
-3
-4
-5
-6
-7
-8
-9
-10
-11
-12
-13
-14
-14
-15
-15
-16
-17
-18
-19
-20
-21
-22
-22
-23
-24
-25
-25
-25
-26
-27
-27
-28
-28
-28
-27
-28
-28
-28
-28
-28
-29
-29
-29
-29
-29
-28
-28
-28
-29
-29
-29
-29
-29
-29
-29
-29
-30
-30
-31
-31
-32
-32
-32
-33
-33
-33
-33
-33
-34
-34
-34
-34
-34
-34
-33
-33
-33
-33
-33
-33
-33
-34
-34
-34
-34
-33
-33
-33
-34
-34
-34
-34
-34
-34
-34
-34
-34
-34
-35
-35
-35
-36
-36
-36
-36
-36
-36
-36
-36
-36
-36
-36
-36
-36
-36
-35
-36
-35
-35
-36
-36
-36
-36
-36
-36
-36
-36
-36
-37
-37
-37
-37
-37
-36
-36
-36
-36
-36
-37
-37
-37
-37
-37
-37
-37
-37
-37
-37
-37
-38
-38
-38
-38
-37
-37
-37
-37
-37
-37
-37
-38
-38
-38
-38
-38
-38
-37
-37
-38
-38
-38
-38
-37
-37
-37
-36
-37
-37
-37
-37
-37
-38
-38
-38
-38
-38
-38
-38
-39
-39
-39
-39
-39
-39
-39
-39
-39
-39
-40
-40
-41
-41
-41
-42
-42
-42
-42
-42
-43
-43
-43
-43
-43
-43
-42
-42
-42
-43
-43
-43
-43
-43
-43
-44
-44
-44
-44
-44
-44
-44
-45
-45
-44
-44
-44
-43
-44
-44
-44
-44
-44
-44
-44
-44
-44
-44
-44
-44
-44
-45
-45
-45
-44
-44
-44
-44
-44
-44
-45
-45
-45
-45
-45
-45
-46
-45
-45
-45
-45
-46
-46
-45
-45
-45
-44
-44
-44
-44
-44
-44
-44
-44
-44
-44
-44
-44
-44
-45
-45
-46
-46
-46
-46
-46
-46
-46
-46
-47
-47
-47
-48
-48
-48
-48
-48
-48
-48
-48
-48
-48
-48
-48
-48
-48
-47
-47
-47
-47
-47
-48
-48
-48
-48
-48
-49
-48
-48
-49
-49
-49
-50
-50
-49
-49
-49
-49
-49
-49
-50
-50
-50
-50
-50
-51
-51
-51
-50
-50
-51
-51
-51
-51
-51
-50
-50
-50
-50
-50
-50
-50
-51
-51
-51
-51
-51
-51
-51
-51
-51
-51
-51
-51
-51
-51
-50
-50
-50
-50
-51
-51
-51
-51
-51
-51
-51
-51
-51
-50
-51
-51
-51
-51
-50
-50
-49
-49
-49
-49
-48
-48
-48
-48
-48
-47
-47
-46
-46
-45
-45
-45
-44
-44
-43
-42
-41
-41
-40
-40
-40
-40
-40
-40
-39
-39
-39
-39
-38
-38
-38
-38
-38
-38
-38
-37
-37
-36
-37
-37
-37
-37
-37
-38
-38
-39
-39
-39
-40
-40
-41
-42
-43
-43
-44
-44
-44
-44
-45
-46
-47
-47
-48
-49
-49
-50
-50
-51
-51
-51
-52
-53
-53
-54
-54
-55
-55
-55
-56
-56
-57
-58
-58
-59
-60
-60
-61
-61
-61
-61
-62
-62
-63
-63
-63
-63
-63
-63
-63
-63
-64
-64
-64
-64
-64
-64
-64
-64
-64
-64
-64
-64
-64
-64
-64
-64
-63
-63
-63
-63
-64
-64
-64
-64
-64
-64
-64
-64
-64
-64
-65
-65
-65
-65
-65
-65
-65
-65
-66
-67
-68
-70
-71
-73
-74
-76
-78
-80
-81
-83
-85
-86
-87
-88
-88
-87
-86
-85
-83
-81
-77
-73
-68
-62
-54
-46
-36
-25
-12
0
13
28
45
62
80
99
118
138
157
176
195
213
230
246
261
275
287
297
305
310
313
313
311
306
299
291
280
268
254
238
221
204
185
167
148
129
111
94
77
61
46
33
20
9
0
-8
-16
-23
-29
-34
-38
-42
-45
-48
-50
-52
-54
-55
-55
-56
-57
-58
-59
-59
-59
-59
-59
-60
-60
-61
-61
-62
-62
-63
-63
-64
-64
-64
-64
-65
-65
-66
-66
-67
-67
-67
-67
-67
-67
-68
-68
-68
-69
-69
-69
-70
-70
-70
-70
-70
-70
-71
-71
-71
-71
-70
-70
-70
-70
-70
-70
-71
-71
-71
-71
-71
-71
-71
-71
-71
-72
-72
-72
-72
-72
-71
-71
-71
-71
-71
-72
-72
-72
-72
-72
-72
-72
-72
-72
-72
-72
-73
-73
-73
-73
-72
-72
-72
-72
-72
-72
-72
-72
-72
-72
-72
-72
-72
-71
-71
-71
-72
-72
-71
-71
-71
-70
-70
-70
-70
-70
-70
-70
-71
-70
-71
-71
-70
-70
-70
-70
-70
-70
-70
-70
-69
-69
-69
-69
-69
-69
-69
-69
-69
-69
-69
-69
-69
-69
-69
-69
-69
-69
-69
-69
-69
-68
-68
-68
-68
-68
-68
-68
-68
-68
-68
-68
-68
-67
-67
-67
-67
-67
-67
-67
-66
-66
-65
-65
-65
-65
-65
-65
-65
-65
-65
-64
-64
-63
-63
-63
-63
-63
-63
-62
-61
-61
-60
-60
-60
-61
-61
-61
-61
-60
-60
-60
-60
-59
-59
-59
-59
-59
-59
-59
-58
-57
-57
-56
-56
-56
-56
-56
-55
-55
-55
-54
-54
-53
-53
-52
-52
-52
-51
-51
-50
-49
-48
-48
-48
-47
-47
-46
-46
-46
-45
-45
-44
-44
-43
-43
-42
-42
-41
-41
-40
-39
-38
-38
-38
-37
-37
-37
-36
-36
-35
-35
-34
-34
-33
-33
-33
-32
-32
-31
-30
-29
-29
-28
-28
-28
-28
-27
-27
-27
-26
-26
-26
-25
-25
-24
-24
-24
-24
-23
-23
-22
-21
-21
-21
-21
-21
-21
-22
-22
-21
-21
-21
-21
-21
-22
-22
-22
-22
-23
-22
-22
-22
-23
-23
-24
-25
-25
-26
-26
-27
-28
-29
-29
-30
-31
-32
-33
-34
-35
-35
-35
-36
-37
-38
-40
-41
-42
-43
-44
-45
-46
-47
-47
-48
-50
-51
-52
-53
-53
-54
-54
-55
-55
-56
-57
-58
-59
-60
-61
-61
-62
-63
-63
-63
-64
-65
-66
-66
-66
-66
-66
-66
-67
-67
-68
-68
-69
-69
-69
-70
-70
-70
-70
-70
-71
-71
-71
-71
-71
-71
-71
-70
-71
-71
-71
-71
-71
-72
-72
-72
-72
-72
-72
-72
-72
-72
-72
-72
-72
-72
-71
-71
-71
-71
-71
-72
-72
-72
-72
-72
-73
-72
-72
-72
-72
-73
-73
-73
-73
-73
-72
-72
-72
-72
-73
-73
-73
-73
-73
-73
-73
-73
-73
-73
-73
-73
-73
-73
-73
-72
-72
-71
-72
-72
-72
-72
-72
-72
-72
-72
-72
-72
-71
-71
-71
-72
-72
-72
-72
-71
-71
-70
-71
-71
-71
-71
-71
-72
-72
-72
-72
-72
-72
-72
-72
-73
-73
-73
-73
-72
-72
-72
-72
-72
-72
-72
-72
-73
-73
-73
-73
-73
-72
-72
-72
-73
-73
-73
-73
-72
-72
-72
-72
-72
-72
-72
-72
-72
-73
-73
-73
-73
-73
-73
-73
-73
-73
-73
-73
-73
-72
-72
-72
-72
-72
-72
-72
-72
-73
-73
-73
-72
-72
-72
-72
-73
-73
-73
-73
-72
-72
-72
-72
-72
-72
-73
-73
-73
-73
-73
-74
-74
-73
-73
-74
-74
-74
-74
-74
-73
-73
-72
-72
-73
-73
-73
-73
-73
-73
-73
-74
-73
-73
-73
-74
-74
-74
-74
-74
-74
-74
-74
-74
-74
-75
-75
-75
-75
-75
-75
-75
-75
-75
-75
-75
-75
-75
-75
-75
-75
-74
-74
-74
-74
-74
-74
-74
-74
-74
-74
-74
-74
-74
-74
-74
-74
-74
-74
-74
-74
-73
-73
-73
-74
-74
-74
-74
-74
-74
-74
-75
-75
-74
-74
-74
-75
-75
-75
-75
-74
-74
-74
-74
-74
-74
-74
-74
-75
-75
-75
-75
-75
-74
-74
-75
-75
-75
-75
-75
-74
-74
-74
-74
-74
-74
-74
-75
-75
-75
-75
-75
-75
-75
-75
-75
-75
-75
-75
-75
-75
-74
-74
-74
-74
-74
-73
-74
-74
-74
-74
-74
-73
-73
-73
-73
-73
-74
-73
-73
-73
-72
-72
-72
-73
-73
-73
-73
-73
-73
-73
-73
-73
-72
-72
-72
-72
-72
-72
-71
-71
-70
-69
-69
-69
-68
-68
-68
-67
-67
-66
-66
-65
-64
-64
-63
-63
-62
-62
-61
-60
-59
-58
-58
-57
-57
-57
-57
-57
-56
-56
-56
-56
-56
-55
-55
-56
-56
-56
-56
-55
-55
-55
-56
-56
-57
-57
-58
-59
-60
-60
-61
-62
-62
-63
-64
-65
-65
-66
-67
-67
-67
-67
-68
-69
-69
-70
-71
-71
-72
-73
-73
-74
-74
-74
-75
-76
-76
-77
-77
-77
-76
-76
-77
-77
-77
-78
-78
-78
-79
-79
-79
-79
-79
-79
-79
-80
-80
-80
-80
-80
-79
-79
-79
-80
-80
-80
-81
-81
-81
-81
-81
-81
-81
-81
-81
-81
-81
-81
-81
-81
-80
-80
-80
-80
-80
-80
-80
-80
-80
-80
-80
-80
-79
-79
-80
-80
-81
-81
-82
-82
-83
-84
-85
-87
-89
-91
-93
-95
-96
-98
-100
-100
-101
-101
-101
-101
-100
-98
-95
-91
-86
-80
-73
-65
-55
-45
-34
-21
-8
6
21
38
56
75
94
113
133
154
174
194
213
231
248
263
276
288
298
306
311
314
314
311
305
297
287
274
260
244
226
208
189
169
148
127
107
87
67
49
32
16
2
-9
-20
-30
-39
-47
-53
-58
-62
-65
-67
-69
-70
-72
-73
-73
-74
-74
-74
-75
-75
-75
-75
-75
-75
-76
-76
-76
-76
-76
-76
-76
-76
-77
-77
-77
-77
-78
-78
-79
-79
-79
-79
-80
-80
-81
-81
-81
-82
-81
-81
-81
-82
-82
-83
-83
-83
-83
-84
-84
-84
-84
-84
-84
-84
-84
-84
-84
-84
-83
-83
-82
-82
-83
-82
-82
-82
-83
-83
-83
-82
-82
-82
-81
-82
-82
-82
-82
-82
-81
-81
-80
-80
-81
-81
-81
-81
-81
-81
-81
-81
-81
-81
-81
-81
-81
-81
-81
-81
-81
-80
-80
-80
-80
-80
-80
-80
-80
-80
-80
-80
-80
-80
-79
-80
-80
-80
-80
-80
-79
-79
-78
-79
-79
-79
-79
-79
-79
-79
-79
-79
-79
-78
-78
-78
-78
-78
-78
-77
-77
-76
-75
-75
-75
-75
-75
-75
-75
-75
-74
-74
-74
-74
-73
-74
-74
-74
-73
-73
-73
-72
-72
-72
-72
-72
-72
-72
-72
-72
-73
-73
-72
-72
-72
-72
-72
-72
-72
-71
-71
-70
-70
-69
-69
-69
-69
-69
-69
-69
-69
-68
-68
-67
-67
-67
-67
-67
-67
-66
-66
-65
-64
-64
-64
-64
-63
-63
-63
-63
-62
-62
-62
-61
-61
-60
-60
-60
-59
-59
-58
-57
-56
-56
-56
-56
-55
-55
-55
-55
-54
-54
-53
-53
-52
-52
-52
-51
-51
-50
-49
-48
-47
-47
-46
-46
-45
-45
-44
-44
-43
-43
-42
-41
-40
-40
-40
-39
-39
-38
-37
-36
-35
-35
-34
-34
-33
-33
-33
-32
-32
-32
-31
-30
-30
-29
-29
-29
-28
-28
-27
-26
-25
-25
-25
-24
-24
-24
-23
-23
-23
-23
-22
-22
-21
-21
-21
-21
-21
-20
-20
-19
-19
-19
-19
-19
-19
-20
-20
-21
-21
-21
-22
-22
-22
-23
-24
-25
-25
-25
-26
-26
-26
-27
-28
-29
-30
-31
-32
-33
-34
-35
-36
-37
-38
-39
-40
-41
-42
-43
-43
-44
-45
-46
-47
-48
-49
-50
-51
-53
-53
-55
-55
-56
-57
-58
-59
-60
-61
-62
-62
-62
-63
-63
-64
-65
-66
-66
-67
-68
-68
-69
-69
-70
-70
-70
-71
-72
-72
-72
-72
-72
-72
-72
-73
-73
-73
-74
-75
-75
-75
-75
-75
-75
-75
-76
-76
-77
-77
-77
-76
-76
-76
-76
-77
-77
-77
-77
-77
-77
-77
-77
-77
-77
-77
-77
-77
-77
-77
-77
-77
-76
-76
-76
-76
-76
-76
-76
-76
-76
-76
-76
-76
-76
-76
-76
-77
-77
-77
-77
-76
-76
-75
-75
-75
-75
-75
-75
-75
-75
-75
-75
-75
-75
-74
-75
-75
-75
-75
-75
-74
-74
-74
-74
-74
-74
-74
-75
-75
-75
-76
-76
-76
-75
-75
-76
-76
-76
-77
-76
-76
-76
-75
-75
-76
-76
-76
-76
-76
-76
-76
-76
-76
-76
-76
-76
-76
-76
-76
-76
-76
-75
-75
-75
-75
-76
-76
-76
-76
-76
-76
-77
-76
-76
-76
-76
-77
-77
-77
-76
-76
-75
-75
-75
-75
-76
-76
-76
-76
-76
-76
-76
-76
-76
-76
-76
-76
-77
-77
-77
-76
-76
-76
-76
-76
-76
-76
-76
-77
-77
-77
-77
-77
-77
-77
-77
-77
-78
-78
-78
-77
-77
-77
-77
-77
-77
-77
-77
-78
-78
-78
-78
-78
-78
-77
-77
-78
-78
-78
-78
-77
-77
-76
-77
-77
-77
-77
-77
-78
-78
-78
-78
-78
-78
-78
-78
-78
-79
-79
-78
-78
-78
-77
-77
-78
-78
-78
-78
-78
-78
-78
-78
-78
-78
-78
-78
-78
-78
-78
-78
-78
-77
-77
-77
-77
-77
-77
-77
-77
-77
-77
-77
-77
-76
-76
-76
-77
-77
-77
-76
-76
-76
-75
-75
-76
-76
-76
-76
-76
-76
-76
-77
-77
-76
-76
-76
-77
-77
-77
-77
-77
-76
-76
-76
-76
-76
-76
-77
-77
-77
-77
-77
-77
-77
-77
-77
-77
-77
-77
-77
-76
-76
-75
-75
-76
-76
-76
-76
-76
-76
-76
-76
-76
-76
-76
-76
-76
-77
-77
-77
-76
-76
-76
-76
-76
-76
-76
-77
-77
-77
-77
-77
-77
-77
-76
-77
-77
-77
-77
-77
-76
-76
-76
-76
-76
-76
-76
-76
-76
-76
-77
-77
-77
-76
-76
-76
-77
-77
-77
-77
-76
-76
-75
-75
-75
-75
-75
-76
-76
-76
-76
-76
-76
-76
-75
-76
-76
-76
-76
-76
-76
-75
-75
-75
-75
-76
-76
-76
-76
-76
-76
-76
-76
-76
-75
-76
-76
-76
-76
-76
-76
-75
-75
-75
-75
-75
-75
-75
-75
-76
-76
-76
-75
-75
-75
-75
-75
-76
-76
-75
-75
-75
-74
-75
-75
-75
-75
-75
-76
-76
-76
-76
-76
-76
-76
-76
-76
-77
-77
-77
-76
-76
-75
-75
-76
-76
-76
-76
-76
-76
-76
-76
-76
-76
-76
-76
-76
-77
-77
-77
-76
-76
-75
-75
-76
-76
-76
-76
-76
-76
-76
-76
-76
-76
-75
-75
-75
-76
-76
-75
-75
-75
-74
-74
-74
-75
-75
-75
-75
-76
-76
-76
-76
-75
-75
-76
-76
-76
-76
-76
-76
-75
-75
-75
-75
-75
-76
-76
-76
-76
-76
-76
-76
-76
-76
-76
-76
-76
-76
-76
-76
-75
-75
-75
-75
-75
-75
-76
-76
-76
-76
-76
-76
-76
-76
-76
-76
-76
-76
-76
-76
-75
-75
-75
-75
-76
-76
-76
-76
-76
-76
-76
-76
-76
-76
-76
-76
-76
-76
-76
-76
-75
-75
-75
-75
-75
-75
-75
-76
-76
-76
-76
-76
-75
-75
-75
-76
-76
-76
-76
-76
-75
-75
-75
-75
-75
-75
-75
-75
-75
-76
-76
-76
-75
-75
-75
-75
-76
-76
-75
-75
-75
-74
-74
-74
-74
-75
-75
-75
-75
-75
-75
-75
-75
-75
-75
-75
-76
-76
-76
-75
-75
-74
-74
-75
-75
-75
-75
-75
-75
-75
-75
-75
-75
-74
-75
-75
-75
-75
-75
-74
-74
-74
-74
-74
-74
-74
-74
-75
-75
-75
-75
-75
-75
-75
-75
-76
-76
-76
-76
-75
-75
-75
-75
-75
-75
-75
-75
-75
-75
-75
-75
-75
-75
-75
-75
-75
-75
-75
-75
-74
-74
-74
-74
-74
-74
-73
-73
-74
-74
-74
-74
-74
-73
-73
-73
-74
-74
-74
-74
-73
-73
-73
-73
-73
-73
-73
-73
-74
-74
-74
-74
-74
-74
-74
-74
-74
-74
-74
-74
-73
-72
-72
-72
-72
-71
-71
-71
-71
-71
-70
-70
-69
-68
-68
-67
-67
-67
-66
-65
-64
-63
-62
-61
-61
-61
-60
-60
-59
-59
-58
-58
-57
-57
-56
-56
-56
-56
-56
-56
-56
-55
-55
-55
-56
-56
-56
-57
-58
-58
-59
-59
-60
-60
-61
-61
-62
-63
-64
-64
-64
-64
-65
-65
-66
-67
-67
-68
-69
-69
-70
-70
-71
-71
-71
-72
-73
-74
-74
-75
-75
-75
-75
-76
-77
-77
-78
-78
-79
-79
-79
-80
-80
-79
-79
-80
-80
-80
-80
-80
-80
-79
-79
-79
-79
-79
-79
-80
-80
-80
-80
-80
-81
-80
-80
-81
-81
-81
-81
-81
-81
-80
-80
-80
-80
-80
-80
-80
-80
-80
-80
-80
-80
-80
-80
-80
-80
-80
-80
-80
-80
-80
-80
-81
-82
-84
-85
-87
-88
-90
-92
-93
-95
-96
-97
-98
-99
-99
-99
-98
-97
-94
-91
-87
-83
-78
-71
-63
-55
-45
-34
-22
-9
4
19
34
50
68
86
104
123
143
162
180
197
214
229
244
256
267
276
283
287
289
289
285
279
271
261
248
235
220
203
185
166
146
126
106
87
68
50
33
18
4
-8
-19
-30
-39
-46
-52
-57
-61
-64
-67
-69
-70
-71
-72
-73
-73
-73
-73
-73
-73
-73
-73
-73
-73
-73
-73
-72
-72
-72
-72
-72
-73
-73
-73
-74
-74
-74
-74
-75
-75
-75
-75
-76
-76
-76
-77
-77
-76
-76
-77
-77
-77
-78
-78
-78
-79
-79
-79
-79
-79
-79
-79
-80
-80
-80
-80
-79
-79
-78
-78
-78
-78
-78
-78
-79
-79
-79
-79
-79
-78
-78
-78
-79
-79
-79
-79
-78
-78
-78
-78
-78
-78
-78
-78
-78
-79
-79
-79
-79
-79
-78
-79
-79
-79
-79
-79
-79
-79
-78
-78
-78
-78
-78
-78
-78
-79
-79
-78
-78
-78
-77
-77
-77
-77
-77
-77
-76
-76
-75
-75
-75
-75
-75
-75
-75
-75
-75
-75
-75
-75
-74
-74
-74
-75
-75
-74
-74
-73
-73
-73
-73
-73
-72
-72
-73
-73
-73
-72
-72
-72
-71
-71
-71
-71
-71
-71
-71
-70
-70
-70
-70
-70
-70
-70
-70
-70
-70
-70
-70
-70
-70
-70
-70
-70
-70
-70
-69
-69
-68
-68
-68
-68
-68
-68
-68
-68
-67
-67
-67
-66
-66
-66
-66
-66
-65
-65
-64
-63
-62
-62
-62
-62
-61
-61
-60
-60
-60
-59
-59
-58
-58
-57
-57
-57
-56
-56
-55
-54
-53
-53
-53
-52
-52
-52
-51
-51
-51
-50
-50
-49
-48
-48
-47
-47
-46
-46
-45
-44
-43
-42
-42
-41
-41
-40
-40
-39
-39
-38
-38
-37
-36
-35
-35
-34
-34
-33
-32
-31
-30
-29
-29
-28
-27
-27
-26
-26
-25
-24
-23
-23
-22
-21
-21
-20
-20
-19
-18
-17
-16
-16
-15
-15
-15
-14
-14
-14
-13
-13
-13
-12
-11
-11
-11
-11
-10
-10
-9
-8
-8
-7
-7
-7
-6
-6
-6
-6
-6
-6
-6
-6
-6
-6
-6
-6
-6
-7
-7
-6
-6
-7
-8
-9
-9
-10
-11
-12
-13
-14
-15
-16
-17
-18
-20
-21
-22
-23
-24
-25
-25
-27
-28
-29
-30
-31
-33
-34
-35
-36
-37
-38
-38
-40
-41
-42
-43
-44
-45
-46
-47
-48
-49
-50
-51
-52
-53
-54
-55
-56
-57
-58
-58
-59
-60
-61
-62
-63
-63
-63
-64
-64
-65
-65
-66
-67
-68
-68
-69
-69
-70
-70
-70
-71
-71
-72
-72
-72
-72
-71
-71
-71
-71
-72
-72
-72
-72
-72
-72
-72
-72
-72
-72
-72
-72
-72
-72
-72
-72
-72
-71
-71
-71
-71
-72
-72
-72
-73
-73
-73
-73
-73
-73
-73
-73
-74
-73
-73
-73
-73
-72
-72
-72
-72
-73
-73
-73
-73
-73
-73
-73
-73
-72
-72
-73
-73
-73
-73
-72
-72
-71
-71
-71
-71
-71
-72
-72
-72
-73
-73
-73
-73
-72
-73
-73
-73
-74
-74
-74
-73
-73
-73
-73
-73
-74
-74
-74
-74
-74
-74
-74
-74
-74
-74
-74
-74
-74
-74
-74
-74
-73
-73
-73
-73
-73
-74
-74
-74
-74
-74
-74
-74
-74
-74
-74
-74
-74
-74
-74
-73
-73
-73
-73
-73
-73
-73
-73
-74
-74
-74
-74
-74
-74
-74
-74
-74
-74
-74
-74
-73
-73
-73
-73
-73
-73
-73
-73
-73
-73
-73
-73
-73
-73
-73
-73
-74
-74
-74
-73
-73
-73
-73
-73
-74
-74
-74
-75
-75
-75
-75
-75
-75
-75
-75
-75
-75
-75
-75
-75
-74
-74
-74
-74
-74
-73
-74
-74
-74
-74
-74
-74
-74
-74
-74
-74
-74
-74
-74
-74
-73
-73
-73
-73
-73
-74
-74
-74
-74
-74
-75
-75
-75
-75
-75
-75
-76
-76
-76
-76
-75
-75
-75
-75
-75
-75
-75
-75
-75
-75
-75
-75
-75
-74
-74
-74
-75
-75
-74
-74
-74
-73
-73
-73
-74
-74
-74
-75
-75
-75
-75
-76
-76
-75
-75
-76
-76
-76
-76
-76
-75
-75
-75
-75
-75
-75
-75
-75
-75
-75
-75
-75
-75
-75
-75
-75
-75
-75
-75
-75
-75
-75
-75
-75
-75
-75
-75
-76
-76
-76
-76
-76
-76
-76
-76
-76
-76
-76
-76
-76
-76
-75
-75
-75
-75
-75
-76
-76
-76
-76
-76
-76
-76
-75
-75
-76
-76
-76
-76
-75
-75
-75
-74
-74
-75
-75
-75
-75
-75
-76
-76
-76
-76
-75
-75
-76
-76
-76
-76
-76
-75
-75
-75
-75
-75
-75
-75
-75
-75
-75
-76
-75
-75
-75
-75
-76
-76
-76
-76
-76
-75
-75
-75
-75
-75
-75
-75
-75
-75
-75
-75
-75
-75
-75
-75
-75
-75
-75
-75
-75
-75
-74
-74
-74
-75
-75
-75
-75
-75
-75
-76
-75
-75
-75
-75
-75
-76
-75
-75
-75
-75
-74
-74
-74
-74
-75
-75
-75
-75
-75
-75
-75
-75
-75
-75
-75
-76
-76
-75
-75
-75
-74
-74
-74
-74
-74
-74
-74
-75
-75
-75
-74
-74
-74
-74
-74
-74
-74
-74
-74
-74
-73
-73
-73
-73
-74
-74
-74
-74
-74
-74
-74
-74
-74
-74
-74
-74
-74
-74
-74
-74
-73
-73
-73
-73
-73
-73
-73
-73
-73
-73
-73
-73
-73
-73
-73
-73
-73
-73
-73
-73
-73
-73
-73
-74
-74
-74
-75
-75
-75
-75
-76
-76
-75
-75
-76
-76
-76
-76
-75
-75
-74
-74
-74
-74
-74
-74
-74
-75
-75
-75
-75
-75
-74
-75
-75
-75
-76
-76
-76
-75
-75
-75
-75
-75
-75
-76
-76
-76
-76
-76
-76
-76
-75
-75
-76
-76
-76
-75
-75
-75
-74
-74
-74
-74
-75
-75
-75
-75
-75
-76
-76
-76
-76
-76
-76
-76
-77
-76
-76
-76
-76
-75
-75
-76
-76
-76
-76
-76
-76
-76
-76
-75
-75
-75
-75
-75
-75
-75
-75
-75
-74
-74
-74
-75
-75
-75
-75
-76
-76
-76
-77
-77
-77
-77
-77
-77
-77
-77
-77
-76
-76
-75
-75
-76
-76
-76
-76
-75
-75
-75
-75
-75
-74
-74
-74
-74
-74
-74
-74
-73
-72
-72
-72
-72
-72
-72
-72
-72
-71
-71
-71
-70
-69
-69
-69
-68
-68
-67
-66
-65
-64
-64
-63
-63
-63
-62
-62
-62
-62
-61
-61
-61
-60
-60
-60
-60
-60
-60
-60
-59
-59
-59
-59
-59
-59
-60
-60
-61
-61
-62
-62
-63
-63
-64
-65
-65
-66
-66
-67
-67
-67
-68
-68
-69
-70
-70
-71
-71
-72
-72
-73
-73
-73
-73
-74
-75
-75
-76
-76
-76
-76
-76
-77
-77
-78
-78
-79
-79
-80
-80
-80
-80
-80
-80
-81
-81
-81
-81
-81
-80
-80
-80
-80
-80
-80
-81
-81
-81
-81
-81
-82
-82
-81
-82
-82
-82
-82
-83
-82
-82
-82
-82
-82
-82
-82
-82
-82
-82
-82
-82
-82
-82
-81
-81
-82
-82
-83
-83
-84
-85
-86
-87
-89
-91
-92
-94
-96
-98
-100
-101
-102
-103
-103
-103
-103
-102
-101
-99
-95
-91
-86
-80
-73
-65
-56
-46
-36
-24
-11
2
17
34
51
68
86
104
123
142
160
178
196
213
228
241
254
264
273
280
284
285
285
281
276
268
259
247
234
219
204
188
171
153
134
116
98
80
63
47
32
18
5
-5
-15
-24
-32
-39
-45
-50
-54
-57
-59
-61
-63
-65
-67
-68
-69
-70
-70
-71
-72
-72
-72
-73
-73
-74
-74
-75
-75
-75
-75
-75
-75
-76
-76
-77
-77
-77
-78
-78
-78
-78
-78
-78
-79
-79
-80
-80
-80
-80
-79
-79
-80
-80
-80
-81
-81
-81
-81
-82
-82
-82
-82
-82
-82
-82
-82
-82
-82
-82
-82
-81
-82
-82
-82
-82
-83
-83
-83
-83
-83
-83
-83
-83
-83
-84
-84
-84
-83
-83
-82
-82
-82
-82
-82
-82
-82
-82
-82
-82
-82
-82
-82
-82
-82
-82
-82
-82
-82
-81
-81
-81
-81
-81
-81
-81
-81
-82
-82
-82
-82
-81
-81
-81
-81
-81
-81
-81
-81
-80
-80
-80
-79
-80
-80
-79
-79
-79
-79
-79
-79
-79
-79
-78
-78
-78
-78
-78
-78
-77
-77
-76
-76
-77
-77
-77
-77
-77
-77
-77
-77
-77
-77
-77
-77
-77
-77
-77
-77
-76
-76
-76
-76
-76
-76
-76
-76
-75
-75
-75
-75
-75
-74
-74
-74
-74
-74
-74
-74
-73
-72
-72
-72
-72
-72
-72
-72
-72
-71
-71
-71
-71
-70
-70
-70
-70
-69
-69
-69
-68
-67
-67
-67
-67
-66
-66
-66
-66
-66
-66
-66
-65
-65
-64
-64
-64
-64
-64
-63
-62
-62
-61
-61
-60
-60
-60
-60
-59
-59
-58
-58
-57
-56
-56
-55
-55
-54
-54
-53
-52
-51
-50
-50
-49
-49
-49
-48
-48
-47
-47
-46
-46
-45
-44
-44
-44
-43
-43
-42
-41
-40
-39
-39
-39
-38
-38
-38
-37
-37
-36
-36
-35
-34
-34
-33
-33
-32
-32
-31
-30
-29
-28
-27
-27
-27
-26
-26
-25
-25
-25
-24
-24
-23
-23
-22
-22
-22
-22
-22
-21
-20
-20
-20
-20
-20
-20
-21
-21
-21
-21
-21
-21
-21
-21
-22
-22
-23
-23
-23
-23
-23
-23
-24
-25
-26
-26
-27
-28
-29
-30
-31
-31
-32
-33
-34
-35
-36
-37
-38
-38
-39
-40
-41
-42
-43
-44
-45
-47
-48
-49
-50
-51
-51
-52
-53
-55
-56
-56
-57
-58
-58
-59
-59
-61
-62
-63
-63
-64
-65
-66
-66
-67
-67
-68
-68
-69
-70
-70
-70
-71
-70
-71
-71
-72
-72
-72
-73
-73
-74
-74
-74
-75
-75
-75
-75
-76
-76
-76
-76
-76
-76
-76
-76
-76
-77
-77
-77
-77
-77
-77
-77
-76
-76
-76
-76
-76
-76
-76
-75
-75
-74
-74
-74
-74
-74
-74
-74
-74
-74
-74
-74
-74
-74
-74
-74
-75
-75
-75
-74
-74
-74
-73
-73
-74
-74
-74
-74
-74
-74
-74
-74
-74
-74
-74
-74
-74
-74
-74
-74
-74
-73
-73
-73
-74
-74
-74
-74
-75
-75
-75
-75
-75
-75
-75
-75
-75
-75
-75
-75
-75
-74
-74
-74
-74
-75
-75
-75
-75
-75
-75
-75
-75
-75
-75
-75
-75
-75
-75
-75
-75
-74
-74
-74
-74
-74
-74
-74
-74
-74
-74
-74
-74
-74
-74
-74
-74
-74
-74
-74
-73
-73
-73
-73
-73
-73
-74
-74
-74
-74
-74
-75
-74
-74
-74
-75
-75
-75
-75
-75
-74
-74
-74
-74
-74
-74
-74
-74
-75
-75
-75
-75
-74
-74
-74
-74
-75
-75
-75
-74
-74
-73
-73
-73
-74
-74
-74
-74
-74
-74
-74
-74
-74
-74
-74
-74
-74
-74
-74
-74
-73
-73
-72
-72
-73
-73
-73
-73
-73
-73
-73
-73
-73
-72
-72
-73
-73
-73
-73
-73
-73
-72
-72
-72
-73
-73
-73
-73
-74
-74
-74
-74
-74
-74
-74
-74
-74
-74
-74
-74
-74
-73
-73
-73
-73
-73
-73
-74
-74
-74
-74
-74
-74
-74
-74
-74
-75
-75
-75
-75
-74
-74
-73
-73
-74
-74
-74
-74
-74
-73
-73
-73
-73
-73
-72
-73
-73
-73
-73
-72
-72
-71
-71
-71
-71
-71
-71
-72
-72
-72
-72
-72
-72
-72
-72
-72
-73
-73
-73
-73
-73
-72
-72
-72
-73
-73
-73
-73
-73
-73
-74
-74
-74
-73
-73
-73
-74
-74
-74
-73
-73
-72
-72
-72
-72
-72
-72
-72
-72
-72
-72
-72
-72
-72
-72
-72
-72
-72
-72
-72
-72
-71
-71
-71
-71
-72
-72
-72
-72
-72
-72
-72
-72
-72
-72
-72
-72
-72
-72
-72
-71
-71
-71
-71
-71
-71
-71
-71
-71
-71
-71
-71
-71
-71
-71
-71
-71
-71
-71
-71
-71
-70
-70
-70
-70
-71
-71
-71
-71
-71
-71
-71
-71
-71
-70
-71
-71
-71
-71
-71
-70
-70
-70
-70
-70
-70
-70
-70
-71
-71
-71
-71
-71
-70
-70
-71
-71
-71
-71
-71
-70
-70
-70
-70
-70
-70
-70
-70
-70
-70
-70
-70
-70
-70
-70
-70
-70
-70
-70
-69
-69
-68
-68
-68
-68
-68
-68
-69
-69
-69
-69
-69
-69
-69
-69
-69
-69
-69
-69
-69
-69
-69
-68
-69
-69
-69
-69
-70
-70
-70
-70
-70
-70
-70
-70
-70
-70
-70
-70
-70
-70
-69
-69
-69
-69
-69
-69
-70
-70
-70
-70
-70
-70
-70
-70
-70
-70
-70
-70
-70
-70
-69
-69
-69
-70
-70
-70
-70
-70
-70
-70
-70
-70
-70
-70
-70
-70
-70
-70
-70
-69
-69
-68
-68
-68
-68
-68
-68
-68
-67
-67
-67
-66
-66
-65
-65
-65
-65
-65
-64
-63
-62
-61
-61
-60
-60
-59
-59
-58
-58
-57
-57
-56
-55
-54
-54
-54
-54
-53
-53
-52
-52
-51
-51
-52
-52
-52
-52
-53
-53
-53
-54
-54
-54
-54
-55
-56
-57
-57
-58
-58
-58
-58
-59
-60
-60
-61
-62
-63
-63
-64
-64
-65
-65
-65
-66
-67
-67
-68
-68
-68
-68
-68
-69
-70
-70
-71
-71
-72
-72
-73
-73
-73
-73
-74
-74
-75
-75
-75
-75
-74
-74
-74
-74
-74
-75
-75
-75
-76
-76
-76
-76
-76
-76
-76
-76
-77
-77
-77
-77
-77
-76
-76
-76
-76
-76
-76
-76
-76
-76
-76
-76
-75
-75
-75
-75
-75
-75
-75
-75
-74
-74
-74
-74
-74
-75
-75
-76
-77
-78
-79
-81
-82
-83
-85
-86
-88
-90
-92
-93
-93
-93
-93
-93
-93
-92
-90
-88
-85
-81
-75
-69
-61
-52
-42
-32
-20
-7
6
21
37
54
71
89
108
126
145
164
182
200
217
233
248
261
273
283
290
295
298
298
296
292
285
275
263
250
235
219
201
182
163
143
124
104
86
67
50
34
19
6
-5
-15
-24
-32
-39
-45
-50
-54
-57
-60
-62
-63
-64
-64
-65
-65
-66
-66
-66
-66
-66
-66
-66
-66
-66
-67
-67
-67
-68
-68
-68
-69
-69
-69
-69
-70
-71
-71
-71
-72
-72
-71
-71
-72
-72
-73
-73
-74
-74
-74
-74
-75
-75
-75
-75
-75
-75
-76
-76
-75
-75
-75
-74
-75
-75
-75
-75
-75
-76
-76
-76
-76
-76
-75
-75
-75
-76
-76
-76
-75
-75
-74
-74
-74
-74
-74
-74
-74
-74
-74
-75
-75
-75
-74
-74
-75
-75
-75
-75
-75
-75
-74
-74
-74
-74
-74
-74
-74
-74
-74
-74
-74
-74
-73
-73
-73
-73
-73
-73
-73
-72
-71
-71
-71
-71
-71
-71
-71
-71
-71
-71
-71
-71
-71
-70
-71
-71
-71
-71
-70
-70
-69
-69
-69
-69
-69
-69
-69
-69
-69
-69
-69
-69
-68
-68
-68
-68
-68
-68
-68
-67
-67
-66
-66
-66
-66
-66
-66
-66
-66
-66
-66
-66
-65
-65
-65
-65
-65
-65
-64
-64
-63
-62
-62
-62
-62
-62
-62
-62
-62
-62
-62
-61
-61
-60
-60
-60
-60
-60
-59
-59
-58
-57
-57
-57
-57
-56
-56
-56
-56
-56
-55
-55
-54
-54
-53
-53
-53
-53
-52
-51
-50
-50
-49
-49
-49
-48
-48
-48
-48
-47
-47
-46
-46
-45
-45
-45
-45
-44
-44
-43
-42
-41
-41
-40
-40
-40
-39
-39
-38
-38
-37
-37
-36
-35
-34
-34
-33
-33
-32
-31
-30
-29
-29
-28
-27
-27
-26
-26
-25
-25
-24
-24
-23
-22
-21
-21
-21
-20
-19
-18
-17
-16
-16
-16
-15
-15
-14
-14
-14
-13
-13
-12
-12
-11
-11
-10
-10
-10
-9
-8
-7
-7
-6
-6
-6
-6
-5
-5
-5
-5
-5
-5
-5
-5
-5
-5
-6
-6
-6
-6
-6
-6
-6
-7
-8
-8
-9
-9
-10
-11
-11
-12
-12
-13
-14
-15
-16
-17
-17
-18
-18
-19
-20
-21
-22
-23
-25
-26
-27
-28
-30
-31
-31
-32
-34
-35
-36
-37
-38
-39
-40
-40
-41
-42
-44
-45
-46
-47
-48
-49
-50
-50
-51
-51
-52
-53
-54
-55
-55
-55
-55
-56
-56
-57
-57
-58
-58
-59
-59
-60
-60
-60
-60
-60
-61
-61
-62
-62
-62
-62
-62
-61
-62
-62
-63
-63
-63
-63
-64
-64
-64
-64
-64
-64
-65
-65
-65
-65
-65
-65
-65
-64
-65
-65
-65
-65
-65
-65
-65
-65
-65
-65
-65
-65
-65
-65
-65
-65
-65
-64
-64
-63
-63
-64
-64
-64
-64
-64
-64
-64
-64
-64
-64
-64
-64
-64
-64
-64
-64
-64
-63
-62
-62
-63
-63
-62
-63
-63
-63
-63
-63
-63
-62
-62
-62
-62
-63
-62
-62
-62
-62
-61
-61
-62
-62
-62
-62
-63
-63
-63
-63
-63
-63
-63
-63
-64
-64
-64
-64
-64
-63
-63
-63
-63
-64
-64
-64
-64
-64
-64
-64
-64
-64
-64
-64
-64
-64
-64
-64
-64
-63
-63
-63
-63
-63
-63
-64
-64
-64
-64
-64
-64
-64
-64
-64
-64
-64
-64
-64
-64
-63
-63
-63
-63
-63
-63
-63
-63
-64
-64
-64
-64
-63
-63
-64
-64
-64
-64
-64
-64
-63
-63
-63
-64
-64
-64
-64
-64
-64
-64
-65
-65
-65
-64
-65
-65
-65
-65
-65
-65
-65
-64
-65
-65
-65
-65
-65
-66
-66
-66
-66
-66
-66
-65
-65
-66
-66
-66
-66
-65
-65
-64
-64
-64
-65
-65
-65
-65
-65
-65
-65
-65
-65
-65
-65
-65
-66
-66
-65
-65
-65
-64
-64
-65
-64
-64
-64
-65
-65
-65
-65
-65
-64
-64
-64
-64
-65
-64
-64
-64
-63
-63
-63
-63
-63
-63
-64
-64
-64
-64
-64
-64
-64
-63
-63
-64
-64
-64
-64
-64
-63
-63
-63
-63
-63
-63
-64
-64
-64
-64
-65
-64
-64
-64
-64
-65
-65
-65
-65
-64
-64
-64
-64
-64
-64
-64
-64
-64
-64
-64
-64
-64
-64
-64
-64
-64
-65
-65
-65
-64
-64
-63
-63
-64
-64
-64
-64
-64
-64
-64
-64
-64
-64
-64
-64
-64
-65
-65
-64
-64
-64
-63
-63
-64
-64
-64
-64
-64
-65
-65
-65
-65
-65
-64
-65
-65
-65
-65
-65
-65
-64
-64
-64
-64
-64
-64
-64
-65
-65
-65
-65
-65
-65
-65
-65
-65
-65
-65
-65
-65
-64
-64
-64
-64
-64
-65
-65
-65
-65
-65
-65
-65
-65
-65
-65
-66
-66
-66
-66
-65
-65
-64
-64
-65
-65
-65
-65
-65
-65
-65
-65
-65
-65
-65
-65
-65
-66
-66
-65
-65
-65
-64
-64
-65
-65
-65
-65
-65
-65
-66
-66
-66
-65
-65
-65
-66
-66
-66
-66
-65
-65
-65
-65
-65
-65
-65
-65
-65
-65
-66
-66
-66
-65
-65
-66
-66
-66
-66
-66
-66
-65
-65
-65
-65
-66
-66
-66
-66
-66
-66
-67
-67
-67
-66
-67
-67
-68
-68
-68
-67
-67
-67
-67
-67
-67
-68
-68
-68
-68
-68
-69
-68
-68
-68
-68
-69
-69
-69
-69
-68
-68
-67
-67
-68
-68
-68
-68
-68
-68
-68
-68
-68
-68
-68
-68
-68
-68
-68
-68
-68
-67
-67
-67
-67
-67
-68
-68
-68
-68
-68
-68
-68
-68
-68
-68
-68
-69
-69
-68
-68
-67
-67
-67
-67
-67
-67
-67
-68
-68
-68
-68
-68
-67
-67
-67
-68
-68
-68
-68
-68
-67
-67
-67
-67
-67
-67
-67
-68
-68
-68
-68
-68
-67
-67
-67
-67
-68
-68
-67
-67
-67
-66
-66
-66
-66
-66
-66
-66
-67
-67
-67
-67
-66
-66
-66
-66
-67
-67
-66
-66
-65
-65
-65
-65
-65
-65
-65
-66
-66
-66
-66
-66
-66
-65
-66
-66
-66
-66
-66
-66
-65
-65
-65
-65
-65
-65
-65
-65
-65
-65
-65
-65
-64
-64
-64
-64
-64
-64
-64
-64
-63
-63
-63
-63
-63
-63
-63
-64
-64
-64
-64
-64
-64
-64
-64
-64
-64
-65
-64
-64
-63
-63
-63
-63
-63
-63
-63
-63
-63
-64
-64
-63
-63
-63
-63
-63
-63
-63
-63
-62
-62
-61
-61
-62
-62
-62
-62
-62
-62
-62
-62
-62
-62
-62
-62
-62
-62
-62
-62
-61
-61
-60
-60
-60
-60
-60
-60
-60
-59
-59
-59
-59
-58
-57
-57
-57
-57
-56
-55
-54
-53
-52
-51
-51
-50
-49
-49
-48
-48
-47
-47
-46
-46
-45
-45
-45
-45
-45
-45
-45
-44
-44
-44
-45
-45
-45
-46
-46
-47
-47
-48
-48
-49
-49
-49
-50
-51
-52
-52
-52
-52
-52
-53
-54
-55
-55
-56
-57
-58
-58
-59
-60
-60
-60
-61
-62
-63
-63
-64
-64
-64
-64
-65
-66
-66
-67
-67
-68
-68
-68
-68
-68
-68
-68
-68
-68
-68
-68
-68
-68
-67
-67
-67
-67
-67
-67
-68
-68
-68
-69
-69
-69
-69
-69
-69
-70
-70
-70
-70
-70
-69
-69
-69
-69
-69
-69
-70
-70
-70
-70
-70
-70
-69
-69
-69
-69
-69
-69
-69
-69
-69
-69
-70
-71
-72
-73
-75
-77
-78
-80
-82
-83
-84
-86
-87
-88
-88
-88
-88
-86
-84
-81
-78
-74
-69
-63
-55
-46
-37
-26
-14
-2
12
27
42
58
76
94
113
132
152
171
190
208
225
242
257
270
282
292
299
305
308
309
306
301
293
284
272
259
244
228
210
191
171
151
131
111
91
73
55
39
24
11
0
-11
-21
-29
-35
-41
-45
-48
-51
-53
-55
-56
-57
-58
-59
-59
-59
-59
-59
-59
-59
-60
-60
-60
-60
-60
-60
-60
-60
-61
-61
-62
-62
-63
-63
-64
-64
-64
-64
-64
-65
-65
-66
-66
-66
-66
-66
-66
-66
-66
-66
-66
-66
-67
-67
-67
-67
-67
-67
-67
-67
-68
-68
-68
-68
-68
-67
-67
-67
-68
-68
-68
-68
-68
-68
-68
-68
-68
-68
-68
-68
-68
-68
-68
-68
-67
-67
-66
-66
-66
-66
-66
-66
-66
-67
-67
-67
-67
-66
-66
-66
-66
-67
-67
-66
-66
-66
-65
-65
-65
-65
-65
-66
-66
-66
-66
-66
-66
-66
-65
-65
-65
-65
-65
-65
-64
-64
-63
-63
-63
-63
-63
-63
-63
-63
-63
-63
-63
-62
-62
-62
-62
-62
-62
-62
-62
-61
-61
-60
-60
-61
-60
-61
-61
-61
-61
-61
-61
-60
-60
-60
-60
-60
-60
-60
-59
-59
-58
-58
-58
-58
-58
-58
-58
-58
-58
-58
-58
-58
-57
-57
-57
-57
-57
-57
-56
-56
-55
-55
-55
-55
-55
-55
-55
-55
-55
-55
-54
-54
-53
-53
-53
-53
-53
-53
-52
-51
-51
-51
-50
-50
-50
-50
-50
-49
-49
-49
-49
-48
-47
-47
-47
-47
-46
-46
-45
-44
-44
-43
-43
-43
-43
-42
-42
-42
-42
-42
-41
-41
-40
-39
-39
-39
-38
-38
-37
-36
-35
-34
-34
-33
-33
-32
-32
-31
-31
-30
-30
-29
-28
-27
-27
-27
-26
-25
-24
-23
-22
-22
-21
-21
-20
-20
-19
-19
-18
-18
-17
-16
-15
-15
-14
-14
-13
-12
-11
-10
-9
-9
-8
-8
-7
-7
-6
-6
-6
-5
-5
-4
-3
-3
-3
-3
-2
-2
-1
-1
0
0
0
0
0
0
0
0
0
0
0
0
0
0
0
0
0
-1
-1
-1
-1
-1
-2
-3
-3
-4
-5
-6
-7
-8
-9
-10
-10
-11
-13
-14
-15
-16
-17
-18
-19
-20
-21
-22
-24
-25
-26
-27
-29
-30
-31
-32
-33
-35
-36
-38
-39
-40
-41
-41
-42
-43
-44
-46
-47
-48
-49
-50
-51
-52
-53
-53
-54
-55
-56
-57
-58
-58
-58
-59
-59
-59
-60
-60
-61
-61
-62
-62
-63
-63
-64
-64
-64
-64
-65
-65
-65
-65
-65
-65
-65
-65
-66
-66
-66
-66
-67
-67
-67
-68
-67
-67
-67
-67
-67
-67
-67
-67
-67
-66
-66
-65
-66
-66
-66
-66
-66
-66
-66
-66
-66
-66
-66
-66
-67
-67
-67
-67
-67
-66
-66
-66
-66
-66
-66
-67
-67
-67
-67
-67
-67
-67
-67
-67
-67
-67
-67
-67
-67
-66
-66
-66
-66
-66
-66
-67
-67
-67
-67
-67
-67
-67
-67
-67
-67
-67
-68
-67
-67
-67
-66
-66
-67
-67
-67
-67
-67
-68
-68
-68
-68
-68
-67
-68
-68
-68
-68
-68
-68
-67
-67
-66
-66
-67
-67
-67
-67
-67
-67
-67
-67
-67
-66
-66
-67
-67
-67
-67
-67
-66
-66
-66
-66
-66
-66
-66
-67
-67
-67
-67
-67
-67
-67
-67
-67
-68
-67
-67
-67
-67
-66
-66
-67
-67
-67
-67
-67
-67
-68
-68
-68
-68
-68
-68
-68
-69
-69
-69
-69
-68
-68
-68
-68
-68
-68
-69
-69
-69
-69
-69
-69
-69
-69
-69
-70
-70
-70
-70
-70
-70
-69
-69
-70
-70
-70
-70
-70
-71
-71
-71
-71
-71
-71
-71
-71
-71
-71
-71
-71
-70
-70
-70
-70
-70
-70
-70
-70
-71
-71
-71
-71
-70
-70
-70
-71
-71
-71
-71
-71
-71
-70
-70
-70
-71
-71
-71
-71
-71
-71
-71
-71
-71
-71
-71
-71
-71
-71
-71
-71
-70
-70
-70
-70
-70
-70
-70
-70
-70
-70
-70
-70
-70
-70
-70
-70
-71
-71
-71
-71
-70
-70
-70
-70
-70
-71
-71
-71
-71
-71
-71
-72
-71
-71
-71
-72
-72
-72
-72
-72
-71
-71
-71
-71
-71
-71
-72
-72
-72
-72
-72
-72
-72
-72
-72
-73
-73
-73
-73
-72
-72
-72
-71
-71
-72
-72
-72
-72
-72
-72
-72
-72
-72
-71
-72
-72
-72
-72
-72
-72
-71
-71
-71
-71
-71
-72
-72
-72
-73
-73
-73
-73
-73
-73
-73
-74
-74
-74
-74
-74
-73
-73
-73
-73
-73
-73
-73
-73
-73
-73
-73
-73
-72
-72
-72
-72
-73
-73
-73
-72
-72
-72
-72
-72
-72
-73
-73
-74
-74
-74
-74
-75
-75
-74
-75
-75
-76
-76
-76
-75
-75
-75
-75
-75
-75
-75
-75
-75
-75
-75
-76
-76
-75
-75
-75
-75
-75
-76
-75
-75
-75
-74
-74
-74
-74
-74
-75
-75
-75
-75
-75
-75
-75
-74
-74
-75
-75
-75
-75
-74
-74
-73
-73
-73
-73
-74
-74
-74
-74
-74
-74
-75
-75
-74
-75
-75
-75
-76
-76
-76
-75
-75
-75
-75
-76
-76
-76
-76
-77
-77
-77
-77
-77
-77
-77
-77
-77
-77
-77
-77
-76
-76
-76
-76
-76
-76
-76
-76
-77
-77
-77
-77
-77
-77
-77
-77
-78
-78
-78
-78
-77
-77
-77
-77
-78
-78
-78
-78
-79
-79
-79
-79
-79
-78
-78
-79
-79
-79
-79
-79
-78
-78
-77
-77
-77
-78
-78
-78
-78
-78
-78
-78
-78
-78
-78
-79
-79
-79
-79
-79
-79
-79
-79
-79
-79
-79
-80
-80
-80
-80
-80
-80
-80
-80
-80
-80
-80
-80
-80
-80
-79
-79
-79
-79
-79
-79
-79
-79
-79
-79
-80
-80
-80
-79
-79
-80
-80
-80
-80
-80
-79
-79
-79
-79
-79
-78
-79
-79
-79
-79
-79
-78
-78
-77
-77
-77
-77
-77
-77
-76
-75
-74
-74
-74
-73
-73
-72
-72
-72
-71
-71
-70
-69
-69
-68
-68
-68
-68
-67
-66
-66
-65
-64
-64
-64
-64
-64
-64
-64
-64
-64
-64
-64
-63
-64
-64
-64
-65
-65
-65
-65
-65
-66
-66
-67
-68
-69
-69
-70
-71
-71
-72
-72
-73
-73
-74
-75
-75
-75
-76
-76
-76
-76
-77
-78
-78
-79
-80
-81
-82
-82
-83
-83
-84
-84
-85
-86
-86
-86
-86
-86
-86
-85
-85
-86
-86
-86
-86
-86
-86
-86
-86
-86
-86
-86
-86
-86
-87
-87
-87
-86
-86
-86
-86
-86
-87
-87
-87
-87
-88
-88
-87
-87
-87
-87
-87
-87
-87
-86
-86
-85
-84
-84
-84
-84
-84
-85
-85
-86
-87
-88
-89
-91
-92
-94
-96
-98
-100
-101
-103
-104
-105
-106
-107
-107
-107
-107
-106
-105
-102
-99
-95
-89
-82
-75
-67
-57
-47
-35
-22
-8
6
22
38
55
73
92
110
129
148
166
183
200
216
231
243
255
264
271
276
279
279
277
272
264
255
244
231
216
201
184
167
150
131
113
95
77
60
44
30
16
4
-6
-16
-26
-34
-41
-47
-52
-56
-60
-63
-65
-67
-69
-70
-71
-72
-73
-73
-73
-73
-74
-74
-75
-75
-76
-77
-77
-78
-78
-79
-79
-79
-80
-80
-81
-81
-81
-82
-82
-82
-82
-82
-83
-83
-84
-84
-84
-85
-85
-85
-85
-85
-85
-86
-86
-86
-86
-86
-86
-86
-86
-86
-86
-87
-87
-87
-88
-87
-87
-87
-87
-87
-87
-88
-88
-88
-88
-88
-87
-87
-86
-86
-86
-87
-86
-86
-86
-86
-86
-86
-86
-86
-86
-86
-86
-86
-86
-86
-85
-85
-85
-85
-85
-85
-85
-86
-86
-86
-86
-86
-86
-85
-85
-86
-86
-86
-85
-85
-84
-84
-83
-83
-83
-83
-83
-83
-83
-83
-83
-83
-83
-83
-82
-83
-83
-83
-83
-82
-82
-81
-81
-81
-81
-81
-81
-81
-82
-82
-82
-81
-81
-81
-81
-81
-81
-81
-80
-80
-80
-79
-79
-79
-79
-79
-79
-79
-79
-79
-79
-79
-79
-78
-78
-78
-78
-78
-78
-78
-78
-77
-77
-77
-77
-77
-77
-77
-78
-78
-77
-77
-77
-76
-76
-76
-76
-76
-76
-75
-75
-74
-73
-73
-73
-73
-73
-73
-73
-72
-72
-72
-72
-71
-71
-71
-71
-71
-71
-70
-70
-69
-68
-68
-68
-67
-67
-67
-67
-67
-66
-66
-65
-64
-64
-64
-63
-63
-62
-61
-60
-59
-58
-58
-57
-57
-56
-56
-55
-55
-54
-54
-53
-52
-51
-51
-50
-50
-49
-48
-47
-46
-46
-45
-45
-45
-44
-44
-44
-43
-43
-43
-42
-41
-41
-40
-40
-40
-39
-38
-38
-37
-36
-36
-35
-35
-34
-34
-33
-33
-32
-31
-31
-30
-29
-29
-28
-28
-27
-26
-25
-24
-23
-23
-23
-22
-22
-22
-22
-21
-21
-21
-20
-20
-20
-20
-20
-20
-20
-20
-19
-19
-19
-19
-19
-20
-20
-20
-21
-21
-22
-22
-23
-23
-24
-25
-25
-26
-27
-28
-28
-29
-30
-31
-32
-33
-34
-36
-37
-38
-39
-41
-41
-42
-43
-44
-45
-46
-47
-48
-48
-49
-50
-51
-52
-53
-54
-55
-56
-57
-58
-59
-59
-60
-61
-62
-63
-64
-65
-66
-66
-67
-67
-68
-69
-69
-70
-71
-71
-72
-72
-73
-73
-73
-73
-74
-74
-74
-74
-74
-74
-74
-74
-74
-74
-75
-75
-75
-75
-75
-76
-76
-76
-76
-76
-77
-77
-77
-77
-77
-77
-77
-77
-77
-78
-78
-78
-79
-79
-79
-79
-79
-79
-79
-79
-80
-80
-80
-80
-79
-79
-79
-78
-78
-78
-79
-79
-79
-79
-79
-79
-79
-78
-78
-78
-78
-78
-78
-78
-78
-77
-77
-77
-77
-77
-77
-77
-78
-78
-78
-78
-79
-78
-78
-78
-79
-79
-79
-79
-79
-79
-79
-79
-79
-79
-79
-79
-80
-80
-80
-80
-80
-80
-79
-79
-80
-80
-80
-80
-79
-79
-79
-78
-78
-79
-79
-79
-79
-79
-79
-80
-80
-79
-79
-79
-79
-80
-80
-80
-80
-79
-79
-79
-79
-79
-79
-79
-80
-80
-80
-80
-80
-80
-80
-80
-80
-80
-80
-80
-80
-80
-79
-79
-79
-79
-79
-79
-79
-79
-79
-79
-79
-79
-79
-79
-79
-79
-79
-79
-79
-79
-78
-78
-78
-79
-79
-79
-79
-79
-79
-80
-80
-80
-80
-80
-80
-80
-80
-80
-80
-79
-79
-79
-79
-79
-79
-79
-79
-80
-80
-80
-80
-79
-79
-79
-79
-79
-79
-79
-79
-79
-78
-78
-78
-78
-78
-78
-79
-79
-79
-79
-79
-79
-78
-78
-78
-79
-79
-78
-78
-78
-77
-77
-77
-77
-77
-77
-78
-78
-78
-78
-78
-78
-77
-77
-78
-78
-78
-78
-77
-77
-77
-76
-76
-77
-77
-77
-77
-77
-77
-77
-77
-77
-77
-77
-77
-78
-78
-78
-78
-77
-77
-77
-77
-77
-77
-78
-78
-78
-78
-78
-78
-78
-78
-78
-78
-79
-79
-79
-79
-78
-78
-77
-78
-78
-78
-78
-78
-78
-78
-78
-78
-78
-78
-78
-78
-79
-79
-78
-78
-78
-77
-77
-77
-77
-78
-78
-78
-78
-78
-78
-78
-78
-78
-78
-78
-78
-78
-78
-78
-77
-76
-76
-76
-76
-76
-76
-76
-76
-76
-76
-76
-76
-76
-76
-76
-76
-76
-76
-76
-76
-75
-75
-75
-75
-75
-75
-75
-75
-75
-75
-74
-74
-73
-73
-72
-72
-72
-71
-71
-70
-69
-68
-67
-67
-66
-66
-65
-65
-64
-64
-63
-62
-62
-61
-61
-61
-60
-60
-59
-59
-58
-57
-57
-57
-57
-57
-58
-58
-58
-58
-58
-58
-58
-58
-59
-59
-60
-60
-60
-60
-60
-61
-61
-62
-63
-64
-64
-65
-66
-66
-67
-68
-68
-68
-69
-70
-70
-71
-71
-71
-71
-71
-72
-73
-73
-74
-75
-75
-76
-76
-77
-77
-78
-78
-79
-79
-80
-80
-80
-80
-80
-79
-80
-80
-80
-80
-80
-80
-80
-81
-81
-81
-80
-80
-80
-81
-81
-81
-81
-80
-80
-80
-80
-80
-80
-80
-80
-80
-80
-80
-80
-80
-80
-80
-80
-81
-81
-81
-80
-80
-79
-79
-79
-80
-80
-80
-81
-81
-81
-82
-83
-84
-85
-86
-88
-89
-91
-93
-94
-96
-97
-99
-100
-101
-102
-103
-104
-104
-103
-102
-100
-97
-93
-88
-83
-76
-68
-59
-49
-37
-24
-10
3
18
35
52
70
89
109
128
148
168
187
206
223
239
254
268
280
290
298
303
306
305
302
297
289
278
267
253
238
222
204
186
167
147
127
108
89
72
55
39
24
11
-1
-12
-21
-30
-37
-44
-49
-54
-57
-60
-63
-65
-67
-68
-69
-70
-70
-70
-71
-71
-72
-72
-73
-74
-74
-74
-75
-75
-75
-75
-76
-77
-77
-77
-77
-77
-77
-77
-78
-78
-79
-79
-79
-80
-80
-80
-81
-81
-81
-81
-81
-82
-82
-82
-82
-82
-81
-81
-81
-81
-82
-82
-82
-83
-83
-83
-83
-83
-83
-83
-83
-83
-84
-84
-84
-83
-83
-83
-83
-83
-83
-84
-84
-84
-84
-84
-84
-84
-83
-83
-83
-83
-83
-83
-83
-82
-82
-81
-81
-81
-81
-81
-82
-82
-82
-82
-82
-82
-81
-81
-82
-82
-82
-82
-82
-81
-81
-81
-81
-81
-81
-81
-81
-82
-81
-82
-82
-81
-81
-81
-81
-81
-81
-81
-81
-80
-80
-79
-79
-79
-79
-79
-79
-79
-79
-79
-78
-78
-78
-77
-77
-77
-77
-77
-76
-76
-75
-74
-74
-74
-74
-74
-74
-74
-74
-74
-74
-74
-73
-73
-73
-73
-73
-73
-73
-72
-71
-71
-71
-71
-71
-71
-71
-71
-71
-71
-71
-71
-70
-70
-70
-70
-70
-70
-69
-69
-68
-68
-67
-67
-67
-67
-67
-67
-67
-67
-66
-66
-65
-65
-65
-65
-65
-64
-64
-63
-62
-61
-61
-61
-61
-60
-60
-60
-60
-60
-59
-59
-58
-57
-57
-57
-57
-56
-56
-55
-54
-53
-53
-53
-52
-52
-52
-51
-51
-51
-50
-50
-49
-48
-48
-48
-48
-47
-46
-46
-45
-44
-43
-43
-42
-42
-41
-41
-41
-40
-40
-39
-38
-37
-37
-37
-36
-36
-35
-34
-33
-32
-32
-31
-31
-31
-30
-30
-29
-29
-28
-28
-27
-26
-26
-26
-25
-25
-24
-23
-22
-22
-21
-21
-21
-21
-20
-20
-20
-20
-20
-20
-19
-19
-20
-20
-20
-20
-20
-20
-19
-19
-20
-20
-21
-21
-22
-22
-23
-23
-24
-24
-24
-25
-25
-26
-27
-28
-28
-29
-29
-29
-30
-31
-32
-33
-34
-35
-36
-37
-38
-39
-39
-40
-41
-42
-43
-44
-45
-45
-45
-46
-47
-48
-49
-50
-51
-52
-53
-54
-54
-55
-56
-56
-57
-58
-59
-59
-60
-60
-60
-61
-61
-62
-63
-63
-64
-65
-65
-66
-66
-66
-66
-67
-67
-68
-68
-68
-68
-68
-68
-68
-68
-69
-69
-69
-70
-70
-70
-70
-70
-70
-70
-70
-70
-71
-71
-71
-71
-70
-70
-69
-69
-70
-70
-70
-70
-70
-70
-70
-70
-70
-69
-69
-69
-70
-70
-70
-69
-69
-68
-68
-68
-68
-68
-68
-68
-68
-68
-68
-68
-68
-67
-67
-67
-68
-68
-68
-67
-67
-66
-66
-66
-67
-67
-67
-67
-67
-67
-67
-67
-67
-67
-67
-67
-67
-67
-67
-67
-67
-67
-66
-67
-67
-67
-67
-67
-68
-68
-68
-68
-68
-68
-67
-68
-68
-68
-68
-68
-67
-66
-66
-66
-66
-66
-66
-66
-66
-66
-67
-67
-66
-66
-66
-66
-66
-66
-66
-66
-66
-66
-65
-66
-66
-66
-67
-67
-67
-67
-68
-68
-68
-68
-68
-68
-68
-68
-68
-68
-68
-68
-67
-68
-68
-68
-68
-68
-68
-69
-69
-69
-69
-68
-68
-69
-69
-69
-69
-69
-68
-68
-68
-68
-68
-68
-69
-69
-69
-69
-69
-69
-69
-69
-69
-69
-70
-70
-70
-70
-70
-69
-69
-69
-69
-69
-70
-70
-70
-70
-70
-70
-70
-70
-70
-70
-70
-70
-70
-70
-69
-69
-68
-68
-69
-69
-69
-69
-69
-69
-69
-69
-69
-69
-69
-69
-69
-69
-69
-68
-68
-67
-67
-67
-67
-67
-67
-67
-67
-67
-68
-68
-68
-67
-67
-67
-68
-68
-68
-68
-67
-67
-67
-67
-67
-68
-68
-68
-68
-68
-69
-69
-69
-69
-69
-69
-69
-69
-69
-69
-69
-68
-68
-68
-68
-68
-68
-68
-69
-69
-69
-69
-69
-69
-68
-69
-69
-69
-69
-69
-68
-68
-68
-68
-68
-68
-68
-68
-68
-68
-69
-69
-69
-68
-68
-68
-68
-69
-68
-68
-68
-67
-67
-67
-67
-67
-67
-67
-67
-67
-67
-67
-67
-67
-66
-67
-67
-67
-67
-67
-67
-66
-66
-66
-66
-67
-67
-67
-67
-67
-67
-67
-67
-67
-67
-67
-68
-68
-68
-67
-67
-66
-66
-66
-66
-66
-66
-66
-66
-66
-66
-66
-66
-65
-65
-65
-66
-66
-65
-65
-65
-64
-64
-64
-64
-65
-65
-65
-65
-65
-65
-66
-66
-65
-65
-66
-66
-66
-66
-66
-65
-65
-65
-65
-65
-65
-65
-65
-65
-66
-66
-66
-66
-65
-65
-65
-66
-66
-66
-66
-65
-65
-65
-65
-65
-65
-65
-66
-66
-66
-66
-66
-66
-66
-66
-66
-66
-66
-66
-66
-66
-65
-65
-65
-65
-65
-65
-65
-65
-65
-66
-66
-66
-65
-65
-65
-66
-66
-66
-66
-65
-65
-65
-65
-65
-66
-66
-66
-66
-66
-66
-66
-66
-66
-66
-66
-66
-66
-66
-66
-66
-65
-65
-65
-65
-65
-65
-65
-65
-65
-64
-64
-64
-63
-63
-63
-63
-63
-62
-62
-61
-60
-60
-60
-59
-59
-59
-58
-58
-57
-57
-56
-56
-55
-54
-53
-53
-52
-52
-51
-50
-49
-48
-48
-47
-47
-47
-47
-47
-47
-47
-47
-47
-46
-46
-46
-47
-47
-47
-47
-47
-47
-48
-48
-49
-50
-51
-51
-52
-53
-53
-54
-55
-55
-56
-56
-57
-58
-58
-59
-59
-59
-59
-60
-60
-61
-61
-62
-62
-63
-64
-64
-64
-65
-65
-65
-66
-67
-67
-67
-67
-66
-66
-67
-67
-68
-68
-68
-68
-69
-69
-69
-69
-69
-69
-69
-69
-70
-70
-70
-69
-69
-69
-69
-69
-69
-69
-69
-69
-69
-69
-70
-69
-69
-69
-69
-69
-69
-69
-69
-68
-68
-68
-68
-68
-68
-68
-68
-68
-68
-68
-68
-69
-69
-69
-70
-71
-72
-73
-74
-75
-76
-77
-79
-80
-82
-83
-85
-86
-87
-87
-88
-87
-86
-84
-82
-79
-75
-70
-64
-56
-47
-38
-27
-16
-4
8
23
38
54
71
89
108
127
146
165
184
202
220
237
253
268
281
291
300
306
310
311
310
306
299
290
280
267
253
237
219
200
181
161
141
122
102
83
65
48
32
18
5
-5
-16
-25
-32
-38
-43
-47
-51
-54
-56
-57
-58
-58
-58
-59
-59
-59
-60
-60
-60
-61
-61
-61
-61
-61
-61
-62
-63
-63
-63
-64
-63
-63
-63
-63
-64
-64
-65
-65
-65
-66
-66
-66
-66
-66
-66
-67
-67
-67
-67
-67
-67
-67
-66
-67
-67
-67
-67
-67
-67
-68
-68
-68
-68
-67
-67
-67
-68
-68
-68
-68
-67
-67
-66
-66
-67
-67
-67
-67
-67
-67
-67
-67
-67
-66
-66
-66
-66
-66
-66
-66
-65
-65
-65
-65
-65
-65
-65
-65
-65
-65
-65
-65
-65
-65
-64
-65
-65
-65
-65
-65
-64
-64
-63
-63
-63
-63
-64
-64
-64
-63
-63
-63
-63
-63
-62
-62
-63
-63
-62
-62
-62
-61
-60
-60
-60
-60
-60
-60
-60
-60
-60
-60
-59
-59
-59
-59
-59
-59
-59
-58
-58
-57
-57
-57
-57
-57
-57
-57
-57
-57
-57
-57
-57
-57
-56
-57
-57
-57
-57
-56
-56
-55
-55
-55
-55
-54
-54
-54
-55
-55
-55
-55
-54
-54
-54
-54
-54
-54
-54
-53
-53
-52
-52
-51
-51
-51
-51
-51
-51
-50
-50
-50
-49
-49
-48
-48
-48
-48
-47
-47
-46
-45
-44
-44
-44
-44
-43
-43
-43
-43
-43
-42
-42
-41
-41
-41
-41
-40
-40
-39
-39
-38
-37
-37
-36
-36
-36
-35
-35
-34
-34
-33
-33
-32
-31
-31
-30
-30
-29
-28
-27
-26
-25
-24
-24
-23
-23
-22
-22
-22
-21
-21
-20
-19
-18
-18
-18
-17
-17
-16
-15
-14
-13
-13
-12
-12
-12
-11
-11
-10
-10
-9
-9
-8
-7
-7
-7
-6
-6
-5
-4
-3
-2
-2
-1
-1
-1
0
0
0
0
0
0
0
1
1
1
1
1
1
2
2
3
3
3
3
3
3
2
2
2
2
2
2
2
1
0
0
0
0
-1
-1
-2
-3
-4
-5
-6
-7
-9
-10
-11
-12
-13
-14
-15
-16
-18
-19
-20
-21
-22
-23
-24
-25
-26
-27
-28
-30
-31
-32
-33
-34
-35
-35
-36
-37
-38
-39
-40
-40
-41
-41
-41
-42
-43
-43
-44
-45
-46
-46
-47
-48
-48
-48
-49
-49
-50
-51
-51
-51
-51
-51
-51
-52
-52
-53
-53
-53
-53
-54
-54
-54
-54
-54
-54
-54
-55
-55
-55
-55
-55
-54
-54
-54
-54
-54
-55
-55
-55
-55
-55
-56
-55
-55
-55
-55
-55
-56
-56
-55
-55
-54
-54
-54
-54
-54
-54
-54
-54
-54
-54
-54
-54
-54
-54
-54
-54
-54
-54
-53
-53
-52
-52
-52
-52
-52
-52
-53
-53
-53
-53
-53
-53
-53
-53
-54
-54
-55
-55
-55
-54
-54
-54
-54
-54
-55
-55
-55
-55
-55
-55
-56
-56
-55
-55
-55
-55
-56
-56
-55
-55
-55
-54
-54
-54
-54
-54
-54
-55
-55
-55
-55
-55
-54
-54
-55
-55
-55
-55
-55
-55
-54
-54
-54
-54
-54
-54
-55
-55
-55
-55
-55
-55
-54
-54
-54
-55
-55
-55
-54
-54
-54
-53
-53
-54
-54
-54
-54
-55
-55
-55
-55
-55
-55
-55
-55
-56
-56
-56
-56
-56
-55
-55
-55
-56
-56
-56
-56
-56
-56
-56
-56
-56
-56
-56
-56
-56
-57
-57
-57
-56
-56
-55
-55
-56
-56
-56
-56
-56
-56
-56
-56
-56
-56
-56
-56
-56
-56
-56
-56
-56
-55
-55
-55
-55
-55
-56
-56
-56
-56
-56
-56
-56
-56
-56
-56
-56
-56
-56
-56
-55
-55
-55
-55
-55
-55
-55
-55
-56
-56
-56
-56
-56
-55
-55
-56
-56
-56
-56
-56
-56
-55
-55
-55
-55
-56
-56
-56
-56
-56
-56
-57
-57
-56
-56
-56
-57
-57
-57
-57
-56
-56
-56
-56
-56
-56
-56
-56
-56
-56
-56
-56
-56
-56
-56
-56
-56
-56
-56
-56
-55
-55
-55
-55
-55
-55
-55
-55
-56
-56
-56
-56
-56
-56
-55
-56
-56
-56
-56
-56
-56
-55
-55
-55
-55
-55
-55
-55
-56
-56
-56
-56
-56
-55
-55
-55
-56
-56
-56
-56
-55
-55
-55
-55
-55
-55
-56
-56
-56
-56
-56
-57
-57
-56
-56
-56
-57
-57
-57
-57
-56
-56
-56
-56
-56
-56
-56
-56
-57
-57
-57
-57
-57
-57
-57
-57
-57
-57
-57
-57
-57
-57
-56
-56
-57
-57
-57
-57
-58
-58
-58
-58
-58
-58
-58
-58
-58
-58
-58
-58
-58
-57
-57
-57
-57
-57
-56
-57
-57
-57
-57
-57
-56
-56
-56
-56
-56
-56
-56
-56
-56
-55
-55
-55
-55
-56
-56
-56
-56
-56
-57
-57
-57
-57
-56
-57
-57
-57
-57
-57
-56
-56
-55
-55
-56
-56
-56
-56
-56
-56
-56
-56
-56
-56
-56
-56
-56
-57
-57
-57
-56
-56
-56
-56
-56
-57
-57
-57
-57
-57
-57
-57
-57
-57
-57
-57
-57
-58
-58
-57
-57
-57
-56
-56
-57
-57
-57
-57
-58
-58
-58
-59
-59
-58
-58
-59
-59
-60
-60
-60
-59
-59
-59
-59
-59
-59
-59
-60
-60
-60
-60
-60
-60
-60
-60
-60
-60
-60
-60
-60
-60
-59
-59
-59
-59
-59
-59
-59
-60
-60
-60
-60
-60
-60
-60
-60
-60
-60
-60
-60
-60
-59
-59
-59
-59
-60
-60
-60
-60
-60
-60
-60
-60
-60
-60
-60
-61
-61
-61
-61
-61
-60
-60
-60
-60
-60
-61
-61
-61
-61
-61
-61
-61
-61
-61
-61
-61
-61
-61
-61
-61
-60
-60
-60
-60
-60
-60
-60
-60
-60
-60
-61
-61
-60
-60
-60
-60
-60
-60
-60
-60
-59
-59
-59
-59
-59
-59
-59
-59
-59
-59
-59
-59
-59
-59
-59
-60
-60
-60
-60
-60
-59
-59
-59
-60
-60
-60
-61
-61
-61
-61
-61
-61
-61
-61
-61
-61
-61
-62
-61
-61
-61
-60
-60
-61
-60
-60
-61
-61
-61
-61
-61
-61
-61
-61
-61
-61
-61
-61
-61
-61
-60
-60
-60
-60
-60
-61
-61
-61
-61
-61
-61
-61
-61
-61
-61
-61
-62
-62
-62
-61
-61
-60
-60
-61
-61
-61
-61
-61
-61
-61
-61
-61
-61
-61
-61
-61
-61
-61
-61
-60
-59
-59
-59
-59
-59
-59
-59
-59
-59
-58
-58
-58
-58
-57
-57
-57
-56
-56
-55
-54
-53
-52
-52
-51
-50
-50
-49
-49
-48
-48
-47
-47
-46
-45
-45
-45
-45
-45
-45
-45
-44
-44
-44
-45
-45
-45
-46
-46
-47
-47
-48
-48
-49
-49
-50
-51
-51
-52
-52
-52
-52
-52
-53
-53
-54
-55
-55
-56
-56
-57
-57
-58
-58
-58
-59
-60
-60
-61
-61
-61
-61
-62
-63
-63
-64
-65
-66
-66
-67
-67
-68
-68
-68
-68
-68
-69
-69
-69
-69
-68
-68
-68
-68
-68
-68
-68
-68
-68
-69
-69
-69
-69
-69
-68
-69
-69
-69
-69
-69
-69
-68
-68
-68
-68
-68
-69
-69
-69
-69
-69
-69
-69
-68
-68
-68
-68
-68
-68
-68
-68
-68
-67
-68
-69
-70
-71
-72
-74
-75
-77
-79
-80
-81
-83
-85
-86
-88
-89
-89
-89
-88
-87
-85
-83
-81
-77
-72
-66
-59
-50
-41
-30
-19
-6
6
21
36
53
70
89
108
127
147
166
185
204
221
238
254
268
281
292
301
308
311
312
310
306
300
291
280
268
253
236
218
199
179
158
138
117
97
78
60
44
28
14
1
-9
-19
-27
-34
-40
-45
-49
-52
-54
-56
-58
-59
-60
-60
-61
-61
-61
-61
-62
-62
-62
-62
-62
-62
-62
-62
-63
-63
-64
-64
-64
-65
-65
-66
-66
-66
-66
-67
-67
-68
-68
-68
-68
-68
-68
-68
-69
-69
-70
-70
-71
-71
-71
-72
-72
-72
-72
-72
-73
-73
-73
-73
-73
-72
-72
-72
-72
-72
-72
-72
-72
-72
-72
-73
-72
-72
-72
-72
-72
-72
-72
-72
-71
-71
-71
-71
-71
-71
-71
-72
-72
-72
-72
-72
-72
-72
-72
-72
-73
-73
-73
-73
-72
-72
-71
-71
-71
-71
-71
-71
-71
-71
-71
-72
-71
-71
-71
-71
-71
-71
-71
-71
-70
-69
-69
-69
-69
-69
-69
-69
-69
-69
-69
-69
-69
-69
-68
-68
-69
-69
-69
-69
-68
-68
-67
-67
-67
-67
-67
-67
-67
-67
-67
-67
-67
-67
-67
-67
-67
-67
-67
-66
-66
-65
-65
-65
-65
-65
-65
-65
-65
-65
-65
-65
-65
-64
-64
-63
-64
-64
-64
-63
-63
-62
-61
-61
-61
-61
-61
-61
-60
-60
-60
-60
-60
-59
-59
-59
-59
-59
-59
-58
-58
-57
-57
-57
-56
-56
-56
-56
-56
-56
-56
-56
-56
-55
-55
-55
-55
-55
-55
-54
-54
-53
-52
-52
-52
-51
-51
-51
-50
-50
-49
-49
-48
-47
-47
-46
-46
-46
-45
-44
-44
-43
-42
-41
-41
-41
-40
-40
-39
-39
-39
-38
-38
-37
-36
-36
-36
-35
-35
-34
-33
-32
-31
-30
-30
-29
-29
-29
-28
-28
-27
-27
-26
-25
-24
-24
-24
-23
-23
-22
-21
-20
-19
-18
-18
-17
-17
-16
-16
-16
-15
-15
-14
-13
-13
-12
-12
-12
-11
-11
-10
-9
-8
-8
-8
-8
-7
-7
-7
-7
-7
-7
-7
-7
-6
-7
-7
-7
-8
-8
-8
-7
-8
-8
-9
-9
-10
-10
-11
-12
-13
-14
-14
-15
-15
-17
-18
-19
-20
-21
-22
-22
-23
-24
-26
-27
-28
-29
-31
-32
-33
-35
-36
-37
-38
-39
-40
-42
-43
-44
-45
-46
-46
-48
-49
-50
-51
-53
-54
-55
-56
-57
-58
-59
-59
-60
-61
-62
-63
-63
-63
-64
-64
-64
-65
-66
-66
-67
-67
-68
-68
-69
-69
-69
-69
-69
-70
-71
-71
-71
-71
-71
-70
-71
-71
-71
-72
-72
-72
-72
-73
-73
-73
-73
-73
-73
-73
-73
-73
-73
-73
-73
-72
-72
-72
-72
-73
-73
-73
-73
-73
-73
-73
-73
-73
-73
-73
-73
-73
-73
-73
-72
-72
-72
-72
-71
-71
-71
-72
-72
-72
-72
-72
-71
-71
-71
-71
-72
-72
-72
-71
-71
-71
-71
-71
-71
-72
-72
-72
-72
-72
-73
-73
-73
-72
-73
-73
-73
-73
-73
-72
-72
-72
-72
-72
-72
-72
-72
-72
-73
-73
-73
-73
-72
-72
-73
-73
-73
-73
-73
-73
-72
-72
-72
-72
-73
-73
-73
-73
-73
-74
-74
-74
-74
-74
-74
-74
-75
-75
-75
-75
-74
-74
-74
-74
-74
-74
-75
-75
-75
-75
-75
-75
-75
-75
-75
-75
-75
-75
-75
-75
-74
-74
-74
-74
-75
-75
-75
-75
-75
-76
-76
-76
-76
-76
-76
-76
-76
-77
-76
-76
-76
-76
-76
-76
-76
-76
-76
-76
-77
-77
-77
-77
-76
-76
-76
-77
-77
-77
-77
-77
-76
-76
-76
-76
-77
-77
-77
-78
-78
-78
-78
-78
-78
-78
-78
-78
-79
-79
-78
-78
-78
-77
-77
-77
-77
-77
-77
-78
-78
-78
-78
-78
-78
-77
-78
-78
-78
-78
-78
-78
-77
-77
-77
-77
-77
-77
-77
-77
-77
-77
-77
-77
-77
-77
-77
-77
-77
-77
-77
-77
-76
-76
-76
-76
-76
-77
-77
-77
-77
-78
-78
-78
-77
-77
-78
-78
-78
-78
-78
-78
-78
-77
-77
-78
-78
-78
-78
-78
-78
-79
-79
-79
-79
-78
-78
-79
-79
-79
-79
-79
-78
-78
-78
-79
-79
-79
-79
-79
-80
-80
-80
-80
-79
-79
-79
-80
-80
-80
-80
-79
-79
-79
-79
-79
-79
-79
-79
-80
-80
-80
-80
-80
-80
-80
-80
-80
-80
-80
-80
-80
-79
-79
-79
-79
-79
-79
-79
-80
-80
-80
-80
-80
-80
-80
-80
-81
-81
-81
-81
-81
-80
-80
-80
-80
-80
-81
-81
-81
-81
-81
-81
-81
-81
-81
-81
-81
-81
-81
-81
-81
-80
-80
-80
-80
-81
-81
-81
-81
-81
-82
-82
-82
-82
-82
-82
-82
-83
-83
-82
-82
-82
-81
-81
-82
-82
-82
-82
-82
-83
-83
-83
-83
-83
-82
-82
-83
-83
-83
-83
-83
-82
-82
-82
-82
-82
-82
-82
-83
-83
-83
-83
-83
-83
-83
-83
-83
-84
-84
-84
-83
-83
-82
-82
-82
-83
-83
-83
-83
-83
-83
-83
-83
-83
-83
-83
-83
-83
-83
-83
-83
-82
-82
-82
-82
-83
-83
-83
-83
-84
-84
-84
-84
-84
-84
-84
-85
-85
-85
-85
-85
-84
-84
-84
-84
-84
-84
-85
-85
-85
-85
-85
-85
-85
-84
-85
-85
-85
-85
-85
-85
-84
-84
-84
-84
-84
-84
-84
-85
-85
-85
-85
-85
-84
-84
-84
-85
-85
-85
-84
-84
-83
-83
-83
-83
-83
-84
-84
-84
-84
-84
-84
-85
-84
-84
-84
-85
-85
-85
-85
-85
-85
-84
-85
-85
-85
-85
-85
-85
-85
-86
-86
-86
-85
-85
-85
-85
-85
-85
-85
-85
-84
-84
-84
-84
-84
-84
-85
-85
-85
-85
-85
-85
-85
-85
-85
-85
-86
-86
-85
-85
-84
-84
-84
-84
-84
-84
-84
-84
-84
-84
-84
-83
-82
-82
-81
-81
-81
-81
-80
-79
-78
-77
-76
-76
-75
-75
-74
-74
-73
-73
-72
-72
-72
-71
-71
-71
-71
-71
-71
-70
-70
-70
-70
-70
-71
-71
-71
-72
-73
-73
-74
-74
-74
-74
-75
-76
-76
-77
-77
-77
-77
-78
-78
-79
-79
-80
-81
-81
-82
-83
-83
-84
-84
-85
-86
-87
-87
-88
-88
-89
-89
-89
-90
-91
-91
-92
-93
-93
-94
-94
-95
-95
-94
-94
-95
-95
-95
-95
-95
-95
-95
-94
-94
-94
-94
-94
-94
-94
-94
-95
-95
-95
-94
-94
-94
-94
-95
-95
-94
-94
-94
-93
-93
-93
-94
-94
-94
-94
-94
-94
-95
-94
-94
-94
-94
-95
-95
-95
-96
-96
-96
-97
-98
-99
-101
-103
-104
-106
-108
-110
-112
-113
-115
-116
-117
-118
-118
-118
-117
-116
-114
-111
-107
-103
-98
-91
-83
-75
-65
-55
-43
-30
-16
-1
14
30
48
66
84
104
123
142
160
177
193
209
223
235
246
255
262
266
268
268
