# Simple Text Format
# Sampling Rate (Hz):= 1200.00
# Resolution:= 12
# Labels:= ECG	aVF
# Age:=	16
# Gender:=	Feminino
49
49
49
50
50
50
49
49
49
48
48
48
48
48
48
48
48
47
47
47
47
47
47
48
48
48
48
47
47
47
47
47
47
46
46
46
47
46
46
46
45
45
46
46
47
46
46
46
46
46
45
45
45
45
45
45
45
45
44
44
44
44
44
44
45
45
45
44
44
44
44
44
43
43
43
43
43
43
43
43
43
43
43
44
44
44
43
43
43
43
43
42
42
42
42
42
42
42
42
41
41
41
41
42
42
42
41
41
41
40
40
40
40
40
39
39
39
39
38
38
38
38
38
39
39
39
39
39
38
38
38
37
37
37
37
37
37
37
36
36
36
36
36
37
37
37
36
36
35
35
35
35
35
35
34
35
35
35
34
34
34
35
35
36
36
37
37
37
37
37
37
37
37
37
37
37
37
36
36
35
35
35
35
35
36
35
35
35
34
34
34
34
34
34
34
34
34
34
33
33
33
33
34
34
34
34
33
33
33
32
32
32
32
31
31
32
32
32
31
31
31
31
32
32
33
33
33
32
32
32
32
32
31
31
31
31
31
31
31
30
30
30
30
31
31
31
31
31
31
30
30
30
30
30
31
31
32
31
31
31
31
32
32
32
32
32
32
31
31
30
30
30
29
28
28
28
28
28
28
27
27
27
28
28
29
29
29
29
30
29
29
29
30
30
30
30
30
30
29
29
29
29
29
29
30
29
29
28
28
28
28
27
27
27
27
27
27
27
27
27
27
27
27
27
28
28
27
27
27
27
27
27
26
26
26
27
27
27
26
26
26
26
27
27
28
28
28
27
27
27
27
27
27
26
26
26
26
26
26
25
25
26
26
26
27
27
26
26
26
25
25
25
25
25
25
26
26
25
25
24
24
24
24
25
25
25
25
25
25
25
25
24
24
24
24
25
25
25
25
25
25
26
26
27
27
27
27
27
27
27
26
26
26
26
26
26
26
25
25
25
24
24
25
25
25
25
25
25
25
24
24
24
24
24
24
24
24
24
24
23
23
23
24
24
24
24
24
24
23
23
23
22
22
22
22
22
22
22
22
21
21
22
22
23
23
24
23
23
23
23
23
23
23
23
24
24
24
24
24
23
24
24
24
25
25
25
25
25
25
24
24
24
24
24
24
24
25
24
24
23
23
23
23
24
24
24
24
24
24
24
25
25
26
26
27
29
30
31
33
34
36
38
40
42
45
47
49
51
53
55
56
58
60
62
64
65
67
68
69
70
71
72
73
75
76
77
77
78
78
79
79
80
81
81
82
83
84
85
86
86
87
88
89
90
91
92
93
93
93
94
94
95
94
95
95
96
96
96
96
96
96
97
97
98
99
99
99
99
100
100
100
101
101
102
102
103
104
104
104
104
104
105
106
106
107
107
107
107
108
107
107
107
107
107
107
107
108
108
108
108
108
108
110
110
111
112
112
112
113
113
114
114
115
115
116
116
117
117
117
118
118
118
119
120
121
121
122
122
122
123
123
123
124
125
126
127
128
128
128
129
129
130
131
132
133
134
133
134
134
134
134
134
135
134
135
134
135
135
135
134
134
134
134
134
134
135
134
134
134
133
133
132
132
132
132
132
131
131
130
130
129
129
129
129
128
128
127
126
126
125
125
124
123
123
122
122
122
121
120
119
119
119
119
119
119
119
119
119
119
119
118
117
117
117
117
117
117
117
117
116
116
117
117
117
118
118
118
118
118
118
118
118
118
118
118
119
119
119
118
118
118
119
119
120
120
120
120
120
120
119
119
118
118
117
116
116
114
114
112
111
110
109
108
108
108
108
108
108
110
111
113
117
121
125
131
138
146
156
166
177
189
203
217
233
249
265
282
300
317
335
353
371
388
405
420
435
448
459
468
476
482
486
487
487
483
477
468
458
445
431
415
398
380
361
342
323
303
283
264
245
227
212
197
183
172
161
152
143
136
130
126
122
119
118
116
116
115
116
115
116
117
118
119
120
121
122
122
123
123
123
123
123
123
123
123
123
123
123
123
122
122
122
122
122
122
122
122
122
122
121
121
120
120
120
119
119
119
119
119
118
118
118
118
119
119
119
119
118
118
118
118
118
118
118
118
118
118
118
118
118
118
118
119
119
120
120
119
119
119
119
119
118
118
118
118
119
119
119
118
118
118
118
119
119
120
120
120
120
121
121
121
121
121
121
122
122
123
123
122
122
122
122
123
123
123
123
123
123
122
122
121
121
121
121
121
121
121
121
120
120
120
120
121
121
121
121
121
121
122
122
122
122
122
122
122
123
123
123
122
122
122
122
123
123
123
124
124
124
124
124
124
123
124
124
124
125
125
125
125
125
126
126
126
127
127
127
127
127
127
127
127
127
128
128
128
128
129
129
129
129
130
130
130
131
132
132
132
132
132
132
132
132
133
133
133
133
134
134
134
134
135
135
136
137
138
138
138
138
139
139
139
140
140
140
141
141
142
143
143
143
143
144
145
146
147
148
148
149
150
150
151
151
152
153
153
154
155
155
156
156
157
157
158
159
160
160
161
161
162
162
163
163
164
164
165
166
167
168
168
169
169
170
171
172
173
174
175
176
177
177
178
178
179
179
180
181
182
182
183
183
184
184
185
186
186
186
186
186
186
187
186
186
186
186
186
186
186
186
185
185
185
185
185
185
185
185
185
185
184
184
183
182
181
181
180
179
179
178
176
175
173
172
171
170
169
167
166
164
162
161
159
157
156
154
152
150
149
147
146
144
142
140
139
138
137
135
134
133
132
130
128
126
125
124
123
121
120
119
117
116
115
114
113
112
112
111
110
109
107
106
105
104
103
102
101
100
99
99
98
96
96
95
95
94
95
94
94
93
93
93
92
92
92
92
92
92
92
92
91
91
91
91
91
91
91
91
90
90
89
89
88
88
87
87
87
86
86
86
86
85
85
85
85
85
86
86
86
86
85
85
85
84
84
84
83
84
83
83
82
82
82
82
82
82
82
82
82
82
81
81
81
81
81
81
81
81
81
81
81
81
81
81
81
81
81
81
81
81
81
80
80
79
79
79
79
79
79
79
78
78
78
78
78
79
79
79
79
78
78
78
78
77
77
77
77
77
77
77
77
76
76
76
76
77
77
77
77
77
77
77
77
77
77
77
77
77
77
77
77
77
77
77
77
77
77
78
77
77
77
76
76
75
75
75
74
74
74
74
73
73
73
72
72
72
72
72
72
72
71
71
70
70
70
69
69
69
69
69
68
68
68
67
67
67
68
68
67
66
66
66
66
65
65
65
64
64
64
64
64
64
64
64
64
64
65
65
65
65
64
64
64
64
64
64
64
64
64
64
63
63
63
63
63
63
63
63
63
63
62
62
62
62
62
62
61
61
62
61
61
60
60
61
61
61
62
62
62
62
62
62
61
61
61
61
61
61
61
61
61
60
60
59
59
59
59
59
59
58
58
58
57
57
57
57
57
57
57
57
56
56
56
56
56
57
57
58
57
57
57
57
56
56
56
56
55
56
56
55
55
55
54
54
54
54
54
54
54
54
53
53
52
52
52
51
51
51
51
51
50
50
50
50
50
50
50
50
50
50
50
50
49
49
49
49
49
49
49
49
49
49
49
49
49
50
50
50
50
50
49
49
49
49
49
48
48
48
48
49
48
48
48
48
49
49
50
50
50
50
51
51
51
51
51
52
52
52
53
53
53
53
54
54
55
56
57
57
58
58
58
58
58
58
59
59
59
59
60
60
60
60
60
61
61
62
62
63
62
62
62
62
62
61
61
60
60
60
60
60
59
58
57
57
56
56
56
56
55
54
54
53
53
52
52
51
51
50
50
49
48
47
47
46
45
45
44
44
43
42
41
40
40
38
37
37
36
36
35
35
34
33
32
32
32
31
31
31
31
30
29
29
29
28
28
28
28
27
27
27
27
27
27
27
26
26
27
27
27
27
26
26
26
25
25
25
25
25
25
25
24
24
24
24
24
25
25
25
24
23
23
21
20
19
18
17
15
14
13
12
11
10
10
9
10
12
14
16
19
22
27
32
39
46
56
65
77
89
103
117
131
147
164
182
200
219
238
257
275
293
310
327
342
356
368
379
389
396
401
403
403
400
394
387
377
366
353
338
322
304
286
267
246
227
207
187
168
150
133
117
102
88
76
66
57
49
42
36
31
27
24
22
20
18
18
17
16
17
17
18
18
18
18
19
19
20
21
21
21
21
21
21
21
21
21
20
21
21
21
20
20
20
20
19
19
19
19
19
19
18
18
18
17
17
16
16
15
15
15
15
15
14
14
14
14
15
15
15
15
15
15
14
14
14
14
15
15
15
15
15
15
15
15
15
15
16
16
16
16
16
15
15
15
15
14
14
14
14
14
14
14
13
13
13
13
14
14
14
14
14
14
14
13
13
13
13
13
13
14
14
14
13
13
14
14
15
15
16
16
16
16
16
16
16
16
16
16
16
17
17
17
17
17
17
17
18
18
18
18
18
18
18
18
18
18
18
18
18
18
18
18
17
17
18
18
18
19
19
19
19
19
19
19
19
19
19
19
20
21
21
21
21
21
21
21
22
23
23
24
24
24
24
24
24
25
25
26
26
27
28
28
28
28
28
29
30
31
31
31
31
31
31
31
31
31
31
31
31
32
32
32
32
32
33
33
34
35
35
36
36
36
36
36
37
37
38
38
39
40
40
41
41
41
42
43
44
45
46
46
47
48
48
49
49
50
51
51
52
52
53
54
54
55
56
56
57
58
59
60
60
61
61
61
62
63
63
64
65
65
66
66
67
67
68
69
70
71
71
72
72
73
73
73
74
74
75
75
75
76
76
76
76
76
76
77
77
77
78
78
78
77
77
77
76
76
76
76
75
75
75
74
73
73
73
72
72
72
71
70
70
69
68
67
66
65
64
63
62
61
60
59
58
56
55
54
53
52
51
50
48
46
44
43
41
39
38
36
35
34
33
30
29
27
26
25
24
23
22
21
20
19
18
16
15
14
13
12
11
11
11
10
9
8
7
7
7
7
7
6
5
5
4
3
3
3
2
2
2
2
1
1
0
0
0
0
0
0
1
0
0
0
0
-1
-1
-2
-2
-2
-2
-3
-3
-3
-3
-4
-4
-4
-4
-3
-3
-3
-3
-3
-4
-4
-4
-4
-4
-4
-4
-4
-4
-4
-4
-4
-4
-4
-4
-3
-2
-2
-2
-3
-3
-3
-3
-3
-3
-3
-3
-3
-3
-3
-3
-3
-3
-3
-3
-3
-2
-3
-3
-3
-4
-4
-4
-4
-4
-4
-4
-4
-4
-4
-5
-5
-5
-5
-4
-4
-3
-4
-4
-4
-4
-4
-5
-5
-5
-5
-5
-5
-5
-5
-5
-5
-5
-5
-5
-4
-4
-4
-4
-5
-5
-5
-5
-6
-6
-6
-6
-5
-5
-5
-6
-6
-6
-6
-5
-5
-5
-5
-5
-5
-5
-5
-5
-5
-5
-6
-6
-5
-5
-5
-6
-6
-6
-6
-6
-5
-5
-5
-5
-5
-6
-6
-6
-7
-7
-7
-6
-6
-6
-7
-7
-7
-8
-8
-7
-7
-7
-7
-8
-8
-8
-9
-9
-9
-9
-10
-10
-9
-9
-10
-10
-10
-10
-10
-9
-9
-8
-8
-9
-9
-9
-9
-9
-9
-9
-10
-9
-9
-9
-10
-10
-10
-10
-10
-10
-10
-10
-10
-10
-10
-10
-10
-11
-11
-11
-11
-11
-11
-11
-11
-12
-12
-12
-12
-12
-11
-11
-11
-11
-11
-11
-12
-12
-12
-12
-12
-12
-12
-12
-12
-12
-12
-12
-12
-12
-11
-11
-11
-12
-12
-13
-13
-13
-13
-13
-14
-14
-13
-13
-13
-14
-14
-14
-14
-13
-13
-12
-12
-12
-12
-12
-12
-12
-12
-12
-12
-12
-12
-12
-12
-13
-13
-13
-13
-12
-12
-12
-12
-13
-13
-13
-14
-14
-14
-14
-14
-14
-14
-14
-14
-15
-15
-15
-15
-15
-14
-14
-14
-14
-14
-13
-14
-14
-14
-14
-14
-13
-13
-13
-13
-13
-13
-13
-12
-12
-11
-11
-11
-12
-12
-12
-12
-12
-13
-13
-13
-13
-12
-12
-13
-13
-13
-13
-12
-12
-11
-11
-10
-10
-9
-9
-9
-8
-8
-7
-7
-6
-5
-4
-3
-3
-2
-2
-1
0
1
2
2
3
3
3
3
4
4
5
5
5
5
6
6
6
6
6
6
7
7
7
6
6
5
5
4
3
2
2
1
0
0
0
-1
-2
-3
-4
-4
-5
-4
-5
-5
-6
-6
-7
-8
-8
-9
-10
-10
-11
-11
-11
-12
-13
-13
-14
-14
-14
-14
-14
-15
-15
-15
-16
-17
-17
-18
-18
-19
-19
-20
-20
-20
-22
-22
-22
-23
-23
-22
-22
-23
-23
-24
-24
-25
-25
-25
-25
-25
-25
-25
-25
-25
-25
-25
-25
-25
-25
-24
-24
-24
-24
-25
-25
-25
-25
-25
-25
-25
-25
-24
-24
-25
-25
-26
-26
-27
-27
-27
-28
-29
-30
-32
-33
-35
-36
-37
-38
-39
-38
-38
-37
-36
-35
-32
-29
-25
-20
-13
-6
2
11
22
34
46
60
74
90
106
123
142
160
179
198
217
237
256
274
291
307
322
335
345
355
362
367
369
368
365
360
351
341
328
312
296
278
259
239
219
197
176
154
133
112
92
74
57
41
27
16
6
-3
-11
-18
-24
-28
-31
-32
-33
-34
-34
-34
-34
-33
-33
-31
-30
-30
-29
-28
-27
-26
-25
-25
-24
-24
-23
-23
-22
-22
-22
-22
-22
-22
-22
-23
-23
-23
-23
-24
-23
-24
-24
-25
-25
-25
-26
-25
-25
-25
-26
-26
-26
-27
-27
-27
-28
-28
-28
-28
-28
-28
-28
-28
-28
-28
-28
-27
-27
-26
-26
-27
-26
-26
-26
-27
-27
-27
-26
-26
-26
-25
-25
-26
-26
-25
-25
-25
-24
-24
-24
-24
-24
-24
-25
-25
-25
-25
-25
-25
-25
-25
-25
-25
-25
-25
-25
-25
-24
-24
-24
-24
-24
-24
-24
-24
-24
-24
-23
-23
-23
-22
-23
-23
-23
-23
-22
-22
-21
-20
-21
-21
-21
-21
-21
-21
-21
-21
-21
-21
-20
-20
-20
-20
-20
-20
-19
-19
-18
-17
-17
-17
-17
-17
-16
-16
-16
-16
-16
-15
-15
-14
-15
-15
-15
-14
-14
-14
-13
-12
-12
-12
-12
-12
-12
-12
-12
-12
-12
-11
-11
-10
-10
-10
-10
-10
-9
-8
-7
-7
-6
-6
-6
-6
-6
-6
-6
-6
-6
-5
-5
-4
-4
-5
-5
-4
-4
-3
-2
-2
-1
-1
-1
0
0
0
0
1
1
2
3
3
4
4
4
5
6
7
8
9
9
9
10
11
11
11
12
12
13
14
15
16
16
16
17
18
19
20
22
23
23
24
25
26
26
27
28
29
29
30
31
32
32
33
33
34
35
36
37
38
38
39
39
40
40
40
41
41
42
43
43
44
44
44
44
45
45
46
47
48
48
48
48
49
49
49
50
50
50
51
51
52
52
53
53
53
54
54
55
55
55
55
55
55
54
54
53
52
52
51
50
50
49
47
46
45
44
43
43
42
40
39
37
36
35
33
32
31
29
28
26
25
24
22
21
19
18
17
16
15
14
12
11
10
8
7
5
4
2
1
0
-1
-2
-3
-5
-6
-7
-7
-8
-8
-9
-10
-11
-12
-13
-14
-15
-15
-16
-17
-17
-18
-18
-19
-20
-21
-21
-21
-21
-21
-22
-23
-23
-23
-24
-25
-25
-26
-26
-26
-26
-26
-27
-27
-28
-28
-28
-28
-28
-27
-27
-28
-28
-28
-28
-28
-27
-27
-27
-27
-27
-26
-26
-26
-26
-26
-26
-25
-25
-25
-25
-25
-25
-25
-26
-26
-26
-27
-27
-27
-27
-27
-28
-29
-29
-29
-29
-28
-28
-27
-27
-27
-27
-27
-27
-27
-27
-27
-27
-26
-26
-25
-26
-26
-26
-26
-25
-25
-24
-24
-24
-24
-24
-24
-25
-25
-25
-26
-26
-26
-25
-25
-26
-26
-27
-27
-27
-27
-26
-26
-26
-27
-27
-27
-27
-27
-27
-27
-27
-27
-27
-27
-27
-27
-27
-27
-27
-27
-26
-26
-26
-26
-26
-26
-26
-26
-26
-27
-27
-27
-27
-26
-27
-27
-27
-28
-27
-27
-26
-26
-26
-26
-27
-27
-27
-27
-27
-27
-27
-27
-27
-27
-27
-27
-28
-28
-28
-28
-28
-28
-28
-28
-28
-28
-28
-29
-28
-28
-28
-28
-28
-27
-27
-27
-27
-27
-27
-26
-25
-25
-25
-25
-25
-25
-25
-26
-26
-26
-26
-27
-27
-26
-27
-28
-28
-28
-28
-28
-28
-27
-28
-28
-28
-28
-28
-29
-29
-29
-29
-29
-29
-29
-29
-29
-30
-30
-29
-29
-29
-28
-28
-29
-29
-29
-29
-29
-29
-29
-30
-30
-30
-30
-30
-30
-30
-30
-30
-30
-30
-30
-30
-30
-30
-30
-30
-30
-30
-30
-30
-30
-30
-30
-30
-30
-30
-30
-30
-29
-29
-28
-28
-29
-29
-29
-28
-28
-28
-28
-29
-29
-28
-28
-28
-28
-29
-29
-29
-29
-28
-28
-28
-28
-28
-28
-29
-29
-29
-30
-30
-30
-30
-30
-30
-30
-30
-30
-30
-29
-29
-28
-28
-29
-29
-29
-29
-29
-29
-29
-29
-28
-28
-28
-28
-28
-29
-29
-29
-29
-29
-29
-29
-29
-29
-29
-30
-30
-30
-31
-31
-31
-31
-30
-31
-31
-31
-31
-31
-30
-29
-29
-29
-29
-29
-29
-29
-29
-29
-29
-29
-29
-29
-29
-29
-30
-30
-30
-30
-29
-29
-29
-29
-29
-29
-29
-30
-30
-30
-31
-31
-31
-31
-30
-31
-31
-31
-31
-31
-31
-30
-30
-30
-30
-30
-30
-30
-30
-30
-30
-30
-30
-29
-29
-29
-29
-29
-29
-29
-28
-28
-27
-27
-27
-27
-28
-28
-28
-28
-29
-29
-28
-28
-28
-29
-29
-30
-30
-29
-29
-29
-29
-29
-30
-30
-30
-30
-30
-30
-31
-31
-31
-31
-30
-31
-31
-31
-31
-31
-31
-30
-30
-30
-31
-31
-31
-31
-31
-31
-31
-31
-31
-31
-31
-31
-31
-32
-32
-32
-31
-31
-30
-30
-31
-31
-31
-31
-31
-31
-31
-31
-31
-31
-30
-30
-30
-31
-31
-31
-30
-30
-30
-29
-29
-30
-30
-30
-30
-31
-31
-31
-31
-31
-30
-31
-31
-31
-31
-31
-31
-30
-30
-30
-30
-30
-31
-31
-31
-31
-31
-31
-31
-30
-30
-30
-30
-31
-31
-31
-30
-30
-29
-29
-30
-30
-30
-30
-31
-31
-31
-31
-31
-31
-31
-31
-31
-31
-31
-31
-31
-30
-30
-30
-31
-31
-31
-31
-31
-31
-31
-32
-32
-31
-31
-31
-32
-32
-32
-32
-32
-31
-31
-31
-31
-31
-31
-31
-32
-32
-32
-32
-32
-32
-32
-32
-33
-33
-33
-33
-33
-32
-32
-32
-32
-32
-31
-31
-31
-31
-32
-32
-32
-31
-31
-31
-31
-31
-31
-31
-31
-30
-30
-30
-30
-30
-30
-30
-31
-31
-31
-30
-30
-30
-30
-30
-30
-31
-30
-30
-30
-29
-29
-29
-29
-29
-30
-30
-30
-30
-30
-30
-30
-30
-30
-31
-31
-31
-31
-31
-31
-30
-30
-30
-30
-30
-30
-30
-31
-31
-31
-31
-31
-31
-31
-31
-32
-32
-32
-32
-31
-31
-31
-31
-31
-31
-31
-31
-31
-32
-32
-32
-32
-32
-32
-32
-32
-32
-32
-32
-31
-31
-31
-31
-31
-31
-30
-31
-31
-31
-31
-31
-31
-31
-31
-31
-32
-32
-32
-32
-31
-31
-30
-30
-31
-31
-31
-31
-31
-31
-31
-31
-31
-30
-30
-30
-30
-30
-30
-29
-28
-27
-27
-27
-27
-26
-26
-25
-25
-25
-25
-24
-24
-23
-23
-22
-22
-22
-21
-21
-20
-19
-18
-18
-17
-17
-16
-16
-15
-15
-14
-14
-13
-12
-11
-11
-10
-10
-10
-9
-9
-8
-7
-7
-8
-8
-8
-9
-9
-10
-11
-11
-12
-12
-13
-13
-14
-15
-16
-17
-17
-17
-17
-17
-18
-19
-19
-20
-21
-21
-21
-21
-22
-22
-22
-23
-24
-25
-25
-26
-26
-26
-26
-27
-28
-28
-29
-30
-31
-31
-32
-33
-33
-33
-33
-34
-34
-35
-35
-35
-35
-35
-35
-35
-35
-35
-36
-36
-37
-37
-37
-37
-38
-38
-38
-38
-38
-38
-38
-38
-38
-37
-37
-37
-37
-37
-37
-37
-37
-37
-37
-37
-37
-37
-37
-37
-37
-37
-38
-38
-38
-38
-38
-39
-40
-41
-42
-43
-44
-45
-46
-47
-48
-49
-49
-49
-49
-48
-47
-45
-42
-38
-34
-29
-23
-16
-8
1
11
23
35
49
63
78
94
110
127
145
163
181
199
218
236
253
268
283
296
308
318
327
333
337
338
337
334
327
318
307
295
280
264
247
228
208
187
166
144
123
103
83
64
47
32
17
5
-5
-15
-23
-30
-35
-39
-42
-44
-45
-46
-46
-45
-45
-44
-43
-41
-40
-39
-38
-36
-36
-35
-34
-34
-33
-32
-31
-31
-31
-31
-31
-31
-31
-32
-32
-32
-32
-33
-33
-33
-33
-34
-34
-34
-35
-35
-34
-34
-35
-35
-35
-36
-36
-36
-36
-36
-36
-36
-36
-36
-36
-37
-37
-37
-36
-36
-35
-34
-34
-34
-35
-35
-35
-35
-35
-35
-35
-35
-35
-35
-35
-35
-36
-36
-36
-35
-35
-35
-34
-34
-34
-34
-34
-33
-34
-34
-34
-33
-33
-32
-33
-33
-32
-32
-32
-32
-32
-31
-31
-31
-31
-31
-31
-31
-32
-32
-32
-32
-31
-31
-31
-31
-31
-31
-31
-30
-30
-29
-29
-29
-29
-29
-29
-29
-29
-29
-29
-29
-29
-28
-28
-28
-28
-28
-27
-27
-26
-26
-26
-26
-26
-25
-25
-25
-25
-25
-24
-24
-24
-23
-23
-23
-23
-23
-23
-23
-22
-21
-21
-21
-21
-21
-21
-21
-21
-21
-21
-21
-21
-21
-21
-21
-21
-21
-21
-21
-21
-20
-20
-20
-20
-19
-19
-19
-19
-18
-18
-18
-17
-17
-16
-16
-16
-15
-15
-14
-13
-12
-11
-11
-11
-10
-10
-9
-9
-9
-8
-8
-7
-6
-5
-5
-5
-4
-4
-3
-2
-1
0
0
0
1
1
2
2
2
3
3
4
5
5
6
6
7
7
8
9
10
11
12
12
13
14
14
15
16
17
17
19
20
21
21
22
23
24
25
27
28
29
29
30
31
31
32
32
33
34
35
35
36
37
37
38
38
39
40
41
42
42
43
43
43
44
44
44
44
44
44
45
46
46
46
46
46
46
47
48
48
49
49
49
50
50
50
50
51
51
51
51
51
51
51
51
51
50
50
51
50
49
48
47
46
45
44
42
41
40
38
37
36
34
32
31
29
28
27
25
25
23
21
20
19
17
15
14
12
11
9
8
7
6
4
2
1
0
-1
-2
-3
-4
-6
-7
-9
-10
-11
-13
-14
-15
-16
-18
-18
-19
-21
-22
-23
-24
-25
-25
-26
-27
-28
-28
-29
-30
-31
-32
-33
-33
-34
-34
-35
-35
-35
-36
-36
-36
-37
-36
-36
-36
-36
-37
-37
-37
-37
-37
-37
-37
-37
-37
-37
-38
-38
-38
-38
-38
-38
-38
-38
-38
-38
-38
-38
-39
-39
-40
-40
-40
-40
-40
-40
-40
-41
-41
-41
-41
-41
-40
-40
-40
-40
-39
-40
-40
-39
-39
-39
-39
-38
-38
-37
-37
-37
-37
-37
-37
-36
-36
-35
-36
-36
-36
-36
-37
-37
-38
-38
-39
-39
-39
-39
-40
-40
-40
-41
-41
-41
-41
-41
-41
-41
-41
-42
-42
-42
-42
-42
-42
-42
-42
-42
-42
-42
-42
-42
-42
-42
-41
-41
-40
-40
-40
-40
-41
-41
-41
-41
-41
-41
-41
-40
-41
-41
-41
-41
-41
-41
-40
-40
-40
-40
-41
-41
-41
-41
-42
-42
-42
-42
-42
-42
-42
-43
-43
-43
-43
-43
-42
-42
-42
-42
-42
-43
-43
-43
-43
-43
-43
-43
-43
-43
-43
-43
-44
-44
-44
-43
-43
-43
-42
-43
-43
-43
-43
-44
-44
-44
-44
-44
-44
-43
-44
-44
-44
-44
-44
-44
-44
-44
-44
-44
-44
-43
-44
-45
-45
-45
-45
-45
-45
-46
-46
-46
-46
-47
-47
-47
-46
-46
-46
-46
-46
-46
-46
-46
-46
-46
-46
-46
-46
-46
-46
-46
-46
-46
-46
-46
-45
-45
-45
-46
-46
-46
-46
-47
-47
-47
-47
-48
-48
-47
-47
-48
-48
-48
-48
-48
-47
-47
-47
-47
-47
-48
-48
-48
-48
-48
-48
-49
-49
-48
-48
-49
-49
-49
-49
-49
-48
-48
-48
-48
-48
-48
-48
-48
-49
-49
-49
-48
-48
-48
-48
-48
-49
-49
-49
-49
-49
-49
-49
-49
-49
-50
-50
-51
-51
-51
-51
-51
-51
-51
-52
-52
-52
-52
-52
-52
-52
-51
-51
-51
-52
-52
-52
-52
-53
-53
-53
-53
-52
-52
-52
-53
-53
-53
-53
-52
-52
-52
-51
-51
-52
-52
-52
-52
-52
-52
-53
-53
-53
-52
-52
-53
-53
-53
-52
-52
-51
-51
-51
-51
-51
-51
-51
-51
-51
-51
-52
-52
-52
-52
-52
-52
-53
-53
-53
-53
-52
-52
-52
-53
-53
-53
-53
-53
-53
-53
-53
-53
-53
-53
-53
-54
-54
-54
-54
-53
-53
-52
-52
-52
-53
-53
-53
-53
-53
-53
-53
-53
-53
-53
-53
-53
-54
-53
-53
-53
-53
-52
-52
-52
-53
-53
-53
-54
-54
-54
-54
-54
-54
-54
-54
-54
-55
-55
-55
-55
-55
-54
-54
-54
-54
-54
-55
-55
-55
-55
-55
-55
-55
-55
-55
-55
-55
-55
-55
-55
-55
-54
-54
-54
-54
-55
-55
-55
-55
-55
-55
-55
-55
-55
-55
-55
-55
-55
-55
-55
-55
-54
-54
-55
-55
-55
-55
-55
-56
-56
-56
-56
-56
-56
-56
-56
-56
-56
-56
-56
-56
-56
-56
-56
-56
-57
-57
-57
-57
-58
-58
-58
-58
-58
-58
-58
-59
-59
-59
-58
-58
-57
-57
-57
-57
-57
-57
-58
-58
-58
-58
-58
-58
-58
-59
-59
-59
-60
-60
-60
-59
-59
-59
-59
-60
-60
-60
-61
-61
-61
-61
-61
-61
-60
-60
-61
-61
-61
-60
-60
-60
-59
-59
-59
-59
-60
-60
-60
-61
-61
-61
-62
-62
-62
-62
-62
-62
-63
-62
-62
-62
-62
-61
-61
-61
-61
-61
-61
-61
-61
-61
-60
-60
-59
-59
-59
-59
-59
-59
-59
-59
-59
-59
-60
-60
-61
-61
-62
-62
-63
-63
-63
-63
-63
-64
-64
-64
-64
-64
-64
-63
-63
-63
-63
-63
-63
-63
-63
-63
-63
-63
-63
-63
-62
-62
-62
-63
-62
-62
-62
-61
-60
-60
-60
-59
-59
-59
-59
-59
-58
-58
-57
-57
-56
-55
-55
-55
-54
-54
-53
-52
-51
-51
-50
-50
-50
-50
-50
-50
-49
-49
-49
-49
-48
-48
-48
-48
-48
-47
-47
-47
-46
-46
-46
-46
-46
-47
-47
-47
-48
-48
-49
-49
-49
-50
-51
-51
-52
-52
-52
-52
-52
-53
-53
-54
-54
-54
-55
-55
-56
-56
-57
-57
-57
-57
-58
-59
-60
-61
-61
-62
-62
-63
-64
-65
-66
-67
-68
-68
-69
-70
-70
-70
-71
-71
-72
-72
-72
-72
-72
-72
-72
-72
-72
-72
-72
-72
-73
-73
-73
-73
-74
-74
-74
-74
-75
-75
-75
-76
-76
-75
-75
-75
-75
-75
-75
-75
-75
-75
-75
-75
-75
-75
-74
-74
-75
-75
-76
-76
-77
-77
-78
-79
-80
-82
-83
-84
-86
-87
-88
-89
-90
-90
-89
-88
-88
-86
-84
-80
-76
-70
-64
-56
-48
-39
-28
-17
-5
8
22
37
53
70
88
105
123
141
160
178
195
212
228
243
256
267
278
285
291
295
296
295
291
285
277
266
254
240
224
207
190
171
152
133
112
93
74
55
37
21
6
-7
-20
-30
-40
-48
-55
-61
-66
-70
-73
-74
-75
-76
-76
-77
-77
-77
-77
-77
-76
-76
-76
-75
-74
-74
-74
-74
-74
-74
-74
-73
-73
-73
-73
-73
-73
-74
-74
-74
-75
-75
-75
-75
-75
-75
-75
-76
-76
-76
-76
-76
-75
-75
-75
-75
-75
-75
-75
-75
-75
-76
-76
-76
-76
-76
-76
-76
-76
-76
-76
-76
-76
-75
-76
-76
-76
-76
-77
-77
-77
-77
-77
-77
-77
-77
-77
-78
-78
-78
-77
-77
-76
-76
-76
-76
-76
-76
-76
-76
-76
-76
-76
-75
-75
-75
-75
-75
-75
-75
-75
-75
-75
-74
-74
-75
-75
-75
-75
-75
-75
-75
-75
-75
-75
-75
-75
-75
-75
-75
-74
-74
-73
-73
-73
-73
-73
-72
-72
-72
-72
-72
-72
-72
-72
-71
-71
-71
-71
-71
-71
-70
-69
-69
-68
-69
-69
-68
-68
-68
-68
-68
-68
-68
-68
-68
-68
-68
-68
-67
-67
-67
-67
-66
-67
-67
-67
-67
-67
-66
-66
-66
-66
-66
-66
-65
-65
-65
-65
-65
-65
-64
-63
-62
-62
-62
-62
-61
-61
-61
-60
-60
-60
-59
-59
-58
-58
-58
-58
-58
-58
-57
-56
-56
-56
-56
-55
-55
-55
-55
-55
-54
-54
-53
-52
-52
-51
-51
-50
-50
-49
-47
-47
-46
-45
-44
-44
-43
-43
-42
-42
-41
-41
-40
-39
-39
-38
-38
-37
-37
-36
-35
-34
-33
-33
-32
-32
-31
-30
-30
-29
-29
-28
-28
-26
-25
-25
-25
-24
-23
-22
-21
-20
-19
-19
-19
-18
-17
-17
-16
-16
-15
-15
-14
-13
-13
-12
-12
-11
-11
-10
-9
-8
-8
-7
-7
-7
-6
-6
-5
-5
-5
-4
-4
-3
-2
-2
-2
-1
-1
-1
0
1
1
1
1
1
1
0
0
0
0
-1
-1
-1
-1
-2
-3
-4
-4
-5
-5
-5
-6
-7
-8
-9
-10
-11
-12
-14
-15
-16
-17
-18
-19
-20
-22
-23
-25
-26
-27
-28
-29
-30
-32
-33
-35
-36
-38
-39
-40
-42
-43
-44
-45
-47
-48
-50
-51
-52
-53
-53
-55
-55
-57
-59
-60
-61
-62
-63
-65
-65
-66
-67
-68
-68
-70
-71
-71
-71
-72
-72
-72
-73
-74
-74
-74
-75
-76
-76
-77
-77
-77
-77
-77
-78
-78
-79
-79
-79
-78
-78
-78
-78
-78
-78
-78
-78
-78
-78
-77
-77
-76
-76
-75
-75
-75
-75
-74
-74
-73
-72
-72
-71
-71
-71
-71
-71
-71
-71
-70
-70
-70
-70
-70
-70
-71
-71
-70
-70
-70
-69
-69
-68
-69
-69
-69
-69
-69
-68
-68
-68
-68
-68
-67
-67
-67
-67
-67
-67
-66
-65
-65
-65
-65
-65
-65
-66
-66
-66
-66
-66
-66
-66
-66
-66
-66
-66
-66
-66
-66
-65
-65
-65
-65
-65
-65
-65
-65
-65
-65
-65
-65
-65
-65
-65
-65
-65
-65
-65
-65
-64
-64
-64
-64
-64
-64
-64
-64
-64
-64
-64
-63
-63
-63
-63
-63
-62
-62
-62
-61
-60
-60
-60
-60
-60
-60
-60
-60
-60
-60
-60
-60
-60
-60
-60
-60
-61
-60
-60
-60
-59
-59
-59
-59
-60
-60
-60
-61
-61
-61
-61
-61
-61
-61
-61
-62
-62
-62
-62
-61
-61
-61
-61
-61
-61
-62
-62
-62
-62
-62
-62
-62
-62
-61
-61
-61
-61
-61
-61
-60
-60
-59
-59
-60
-60
-60
-60
-60
-60
-60
-59
-59
-58
-58
-59
-59
-59
-59
-59
-59
-58
-58
-58
-58
-59
-59
-59
-59
-59
-60
-60
-60
-60
-60
-60
-60
-60
-60
-60
-60
-60
-60
-60
-60
-60
-60
-60
-61
-61
-60
-60
-60
-60
-60
-60
-61
-61
-61
-61
-60
-60
-59
-59
-60
-60
-60
-60
-61
-60
-60
-60
-60
-60
-59
-60
-60
-60
-60
-59
-59
-58
-57
-57
-57
-57
-57
-57
-57
-57
-57
-57
-57
-57
-57
-57
-58
-58
-58
-59
-58
-58
-58
-58
-59
-59
-59
-59
-59
-59
-60
-60
-60
-60
-60
-60
-60
-60
-60
-60
-60
-59
-59
-59
-59
-59
-59
-59
-59
-59
-59
-59
-59
-59
-59
-59
-59
-59
-59
-59
-58
-58
-57
-57
-57
-58
-58
-58
-58
-58
-58
-58
-58
-58
-57
-58
-58
-58
-58
-58
-57
-57
-56
-56
-57
-57
-57
-57
-57
-57
-57
-57
-57
-57
-57
-57
-57
-57
-57
-57
-57
-56
-56
-56
-56
-56
-56
-56
-56
-56
-56
-56
-56
-56
-55
-56
-56
-56
-56
-56
-55
-55
-55
-55
-55
-55
-55
-55
-56
-56
-56
-56
-56
-56
-55
-56
-56
-56
-56
-56
-55
-55
-55
-55
-55
-55
-55
-55
-55
-55
-56
-56
-56
-56
-56
-56
-56
-56
-56
-55
-55
-54
-54
-54
-54
-54
-54
-55
-55
-55
-55
-55
-54
-54
-54
-54
-54
-54
-54
-54
-54
-54
-53
-54
-54
-54
-54
-55
-55
-55
-55
-55
-55
-55
-55
-55
-55
-55
-55
-55
-55
-54
-54
-54
-54
-54
-54
-55
-55
-55
-55
-55
-55
-55
-55
-55
-55
-56
-56
-55
-55
-54
-54
-54
-55
-55
-55
-55
-55
-55
-55
-55
-55
-55
-55
-55
-55
-55
-55
-55
-54
-54
-53
-53
-53
-53
-53
-53
-53
-52
-52
-52
-51
-51
-50
-50
-50
-50
-50
-49
-48
-46
-45
-45
-44
-44
-43
-42
-41
-41
-40
-40
-38
-37
-36
-36
-36
-36
-35
-34
-33
-33
-32
-32
-33
-33
-33
-33
-34
-34
-34
-34
-35
-35
-35
-36
-36
-37
-37
-38
-38
-38
-38
-39
-40
-40
-40
-41
-42
-42
-43
-43
-43
-43
-43
-44
-45
-45
-46
-46
-46
-46
-46
-47
-48
-48
-49
-49
-50
-50
-51
-52
-52
-52
-53
-53
-54
-55
-55
-56
-55
-55
-56
-56
-56
-57
-58
-58
-59
-59
-59
-60
-60
-60
-60
-60
-61
-61
-61
-61
-61
-60
-60
-60
-60
-60
-60
-61
-61
-61
-61
-61
-61
-61
-61
-61
-61
-61
-61
-61
-60
-60
-60
-60
-60
-61
-61
-62
-62
-63
-64
-65
-66
-66
-67
-68
-69
-70
-71
-71
-71
-70
-69
-68
-66
-64
-61
-57
-53
-48
-41
-34
-24
-14
-3
8
22
36
50
66
83
100
118
136
155
173
191
209
226
242
258
272
285
296
305
312
317
319
319
316
312
305
295
283
268
253
235
217
197
177
156
135
114
94
74
55
37
21
6
-7
-18
-28
-36
-43
-50
-55
-59
-61
-63
-65
-65
-65
-65
-63
-63
-61
-61
-60
-59
-58
-56
-55
-54
-54
-53
-53
-53
-52
-53
-52
-52
-53
-52
-52
-52
-53
-53
-53
-53
-54
-54
-53
-53
-54
-54
-54
-55
-55
-55
-55
-56
-56
-56
-56
-56
-56
-56
-57
-57
-56
-56
-56
-55
-56
-56
-55
-55
-55
-56
-56
-56
-55
-55
-54
-54
-54
-55
-55
-54
-54
-53
-52
-52
-52
-52
-52
-52
-52
-52
-52
-52
-52
-52
-52
-52
-52
-52
-52
-52
-52
-52
-51
-51
-51
-50
-50
-50
-50
-50
-50
-50
-50
-50
-50
-49
-50
-50
-50
-50
-50
-50
-49
-49
-49
-49
-49
-49
-49
-49
-49
-48
-48
-48
-48
-47
-47
-47
-47
-47
-46
-46
-45
-45
-45
-45
-44
-44
-44
-44
-44
-44
-44
-44
-43
-43
-43
-43
-42
-42
-42
-41
-40
-40
-39
-39
-39
-39
-39
-39
-39
-39
-39
-39
-38
-38
-38
-38
-38
-38
-37
-37
-36
-35
-35
-35
-35
-35
-34
-34
-34
-34
-34
-33
-33
-32
-32
-32
-32
-32
-31
-31
-29
-28
-28
-28
-28
-27
-27
-27
-26
-26
-25
-24
-23
-23
-22
-22
-21
-21
-20
-19
-18
-18
-17
-17
-17
-16
-16
-16
-16
-15
-15
-14
-14
-13
-13
-13
-12
-11
-11
-10
-9
-8
-7
-6
-6
-6
-5
-4
-3
-3
-2
-1
0
1
2
2
3
4
5
6
7
8
9
10
11
11
12
13
14
14
15
15
16
17
18
18
18
19
20
21
22
22
23
23
23
24
24
25
25
26
26
27
28
29
29
30
30
31
32
33
34
34
35
35
35
35
36
36
36
35
35
35
35
35
35
34
33
33
32
32
32
32
31
30
29
29
28
27
26
25
24
23
23
22
20
19
18
17
16
15
14
13
11
10
8
7
5
3
2
0
-2
-3
-4
-5
-7
-9
-10
-11
-13
-14
-15
-15
-16
-18
-19
-21
-22
-23
-24
-25
-26
-26
-27
-28
-29
-30
-32
-33
-33
-34
-34
-35
-36
-37
-37
-38
-39
-40
-40
-41
-41
-42
-42
-42
-43
-43
-44
-44
-44
-44
-44
-43
-44
-44
-44
-45
-45
-45
-46
-46
-46
-46
-46
-46
-47
-47
-47
-48
-48
-48
-48
-47
-48
-48
-48
-48
-49
-49
-49
-49
-49
-49
-49
-49
-49
-49
-49
-49
-49
-48
-48
-47
-47
-47
-47
-47
-47
-47
-47
-47
-47
-47
-47
-47
-47
-47
-47
-47
-47
-47
-46
-45
-45
-45
-45
-45
-45
-45
-45
-45
-45
-45
-44
-44
-44
-44
-45
-44
-44
-44
-44
-43
-43
-44
-44
-44
-45
-45
-45
-46
-46
-46
-46
-46
-46
-47
-47
-47
-47
-46
-46
-45
-45
-45
-46
-46
-46
-46
-45
-45
-45
-45
-45
-45
-45
-45
-45
-45
-45
-45
-44
-44
-44
-44
-45
-45
-45
-45
-45
-46
-46
-46
-46
-46
-46
-46
-47
-47
-47
-46
-46
-46
-46
-46
-46
-46
-46
-46
-46
-46
-46
-46
-45
-45
-45
-45
-45
-45
-44
-44
-43
-43
-43
-44
-44
-44
-45
-45
-45
-45
-46
-46
-47
-46
-47
-47
-48
-48
-48
-47
-47
-46
-47
-47
-47
-47
-47
-48
-48
-47
-47
-47
-47
-46
-47
-47
-47
-47
-47
-46
-46
-45
-45
-45
-45
-45
-45
-45
-45
-45
-45
-45
-45
-44
-45
-45
-45
-46
-45
-45
-45
-44
-44
-45
-45
-45
-45
-46
-46
-46
-46
-46
-46
-46
-46
-46
-47
-46
-46
-46
-45
-45
-45
-45
-46
-46
-46
-46
-46
-46
-46
-46
-46
-46
-46
-47
-47
-47
-47
-46
-46
-46
-46
-46
-46
-46
-47
-47
-47
-47
-47
-47
-47
-47
-47
-48
-48
-48
-48
-47
-47
-47
-47
-48
-48
-48
-48
-48
-48
-48
-48
-48
-47
-47
-47
-47
-47
-47
-47
-46
-46
-45
-45
-45
-45
-45
-45
-45
-45
-46
-46
-46
-46
-46
-46
-46
-47
-47
-46
-46
-46
-45
-45
-46
-46
-46
-46
-46
-47
-47
-47
-47
-47
-47
-47
-48
-48
-48
-48
-48
-47
-47
-47
-47
-47
-47
-47
-47
-47
-47
-47
-47
-47
-47
-47
-47
-47
-47
-47
-47
-46
-46
-46
-46
-46
-47
-47
-47
-47
-47
-48
-48
-47
-47
-47
-48
-48
-48
-48
-47
-47
-46
-46
-47
-47
-47
-47
-47
-47
-47
-47
-47
-47
-47
-47
-48
-48
-49
-48
-48
-48
-47
-47
-48
-48
-48
-48
-48
-48
-49
-49
-49
-48
-48
-48
-49
-49
-48
-48
-47
-47
-47
-47
-47
-47
-47
-47
-47
-47
-47
-47
-47
-47
-47
-48
-48
-48
-48
-49
-49
-48
-48
-49
-49
-50
-50
-50
-50
-50
-50
-50
-50
-50
-49
-49
-49
-49
-49
-48
-47
-47
-46
-46
-46
-46
-46
-46
-46
-47
-47
-47
-47
-47
-47
-48
-49
-49
-49
-49
-49
-49
-48
-49
-49
-50
-50
-50
-50
-50
-50
-50
-50
-50
-50
-50
-50
-50
-50
-50
-49
-49
-48
-48
-48
-48
-49
-49
-49
-49
-49
-49
-49
-49
-49
-49
-50
-50
-50
-50
-50
-49
-49
-49
-49
-49
-49
-50
-50
-50
-50
-50
-50
-50
-50
-49
-50
-50
-50
-50
-49
-48
-48
-48
-48
-48
-47
-47
-48
-48
-48
-48
-48
-47
-47
-47
-47
-48
-48
-48
-48
-47
-47
-47
-47
-47
-47
-47
-47
-48
-48
-48
-48
-47
-47
-47
-47
-48
-48
-47
-47
-47
-46
-46
-47
-47
-47
-47
-48
-48
-48
-48
-48
-47
-47
-47
-48
-48
-48
-48
-47
-47
-46
-46
-46
-46
-46
-46
-46
-46
-46
-46
-46
-45
-44
-44
-44
-44
-44
-44
-44
-43
-43
-43
-44
-44
-44
-44
-45
-45
-46
-46
-46
-46
-46
-47
-47
-47
-48
-47
-47
-46
-46
-46
-47
-47
-47
-47
-47
-47
-47
-47
-47
-47
-47
-47
-47
-47
-47
-47
-46
-46
-45
-45
-46
-46
-46
-46
-46
-46
-46
-46
-46
-45
-45
-45
-45
-45
-45
-44
-43
-43
-42
-42
-41
-41
-41
-41
-41
-40
-40
-40
-39
-39
-38
-38
-38
-38
-37
-36
-35
-34
-33
-33
-33
-32
-31
-31
-31
-31
-30
-30
-29
-28
-28
-27
-27
-27
-27
-27
-26
-25
-25
-24
-25
-25
-25
-25
-25
-25
-25
-26
-26
-27
-27
-27
-28
-29
-30
-30
-30
-30
-30
-31
-32
-33
-34
-35
-35
-36
-37
-37
-38
-38
-38
-39
-40
-41
-41
-42
-42
-42
-42
-43
-44
-44
-45
-46
-47
-47
-48
-48
-49
-49
-49
-50
-50
-51
-51
-51
-51
-51
-51
-51
-51
-52
-52
-53
-53
-53
-54
-54
-54
-54
-54
-54
-54
-55
-55
-54
-54
-54
-53
-53
-53
-53
-53
-54
-53
-53
-53
-53
-53
-53
-53
-53
-53
-53
-53
-54
-54
-54
-54
-55
-56
-57
-58
-59
-61
-62
-63
-65
-65
-66
-67
-67
-67
-66
-65
-64
-61
-57
-53
-49
-43
-36
-29
-20
-9
1
13
26
40
55
71
87
104
122
140
158
177
196
214
232
248
263
277
290
301
310
317
322
325
325
323
317
309
299
287
272
257
240
222
202
181
160
138
117
96
76
57
38
22
8
-5
-16
-27
-36
-43
-49
-53
-56
-58
-60
-61
-61
-61
-60
-60
-59
-58
-57
-55
-54
-53
-52
-51
-51
-50
-49
-49
-48
-47
-47
-47
-47
-47
-47
-48
-48
-48
-48
-48
-48
-48
-49
-49
-50
-50
-50
-50
-50
-50
-50
-50
-50
-50
-51
-51
-51
-52
-52
-52
-52
-52
-52
-52
-53
-52
-52
-52
-51
-51
-51
-51
-51
-51
-51
-51
-51
-51
-51
-51
-50
-50
-50
-50
-50
-50
-50
-49
-49
-48
-48
-48
-48
-48
-48
-48
-49
-49
-49
-48
-48
-48
-48
-48
-48
-48
-47
-47
-47
-46
-46
-46
-46
-46
-47
-47
-46
-46
-46
-46
-46
-45
-45
-45
-45
-45
-45
-44
-44
-43
-43
-43
-43
-43
-43
-43
-43
-43
-43
-43
-42
-42
-42
-42
-42
-42
-42
-41
-41
-40
-40
-40
-40
-39
-40
-40
-40
-40
-40
-39
-39
-38
-38
-38
-38
-38
-38
-37
-37
-36
-36
-35
-35
-35
-35
-35
-35
-35
-35
-34
-34
-33
-33
-33
-33
-33
-33
-32
-32
-31
-31
-31
-31
-31
-31
-31
-30
-30
-30
-29
-29
-28
-28
-28
-28
-27
-27
-26
-25
-25
-25
-24
-23
-23
-23
-23
-22
-22
-22
-21
-20
-19
-19
-19
-19
-18
-17
-17
-15
-15
-14
-14
-13
-13
-12
-12
-12
-11
-11
-10
-9
-8
-7
-7
-6
-5
-5
-3
-2
-1
0
0
0
1
2
2
3
3
4
4
5
6
7
7
8
9
10
11
12
13
14
15
16
17
17
18
18
19
20
21
22
23
23
24
24
25
26
27
28
29
29
30
30
31
31
32
32
32
33
34
35
36
36
36
37
38
38
39
39
40
40
40
40
40
40
40
40
40
39
39
39
39
38
38
37
37
36
36
36
36
35
34
33
33
32
30
29
28
27
26
25
24
23
21
20
19
17
16
15
14
12
11
9
7
6
4
3
0
-1
-2
-4
-5
-7
-9
-11
-13
-14
-15
-16
-17
-18
-20
-22
-23
-24
-25
-26
-27
-28
-29
-29
-30
-31
-32
-34
-35
-35
-35
-36
-37
-37
-38
-39
-40
-41
-42
-42
-43
-44
-45
-45
-45
-46
-46
-47
-47
-47
-47
-47
-47
-47
-47
-47
-47
-47
-48
-48
-48
-48
-48
-48
-48
-48
-48
-49
-49
-49
-49
-48
-48
-48
-49
-49
-50
-50
-50
-50
-50
-50
-50
-50
-50
-50
-51
-51
-51
-50
-50
-49
-49
-49
-49
-48
-48
-49
-49
-49
-49
-49
-49
-49
-49
-49
-49
-49
-49
-50
-50
-49
-49
-49
-49
-49
-49
-50
-50
-50
-50
-50
-50
-50
-50
-50
-50
-50
-51
-50
-50
-50
-50
-49
-50
-50
-50
-50
-50
-51
-51
-51
-51
-50
-50
-50
-50
-50
-50
-50
-50
-49
-49
-48
-48
-49
-49
-49
-49
-49
-49
-50
-50
-50
-49
-50
-50
-51
-51
-51
-51
-50
-50
-50
-50
-51
-51
-51
-52
-52
-52
-52
-52
-52
-52
-52
-52
-52
-52
-52
-51
-51
-50
-50
-50
-50
-50
-50
-50
-50
-50
-50
-50
-50
-50
-50
-50
-51
-51
-51
-51
-51
-51
-51
-52
-52
-52
-53
-53
-54
-54
-54
-54
-54
-54
-54
-55
-55
-55
-55
-54
-54
-53
-53
-54
-54
-54
-54
-54
-54
-54
-55
-55
-55
-55
-55
-55
-55
-56
-56
-56
-55
-55
-55
-55
-55
-55
-55
-55
-56
-56
-56
-56
-55
-55
-55
-56
-56
-56
-56
-55
-55
-55
-55
-55
-55
-56
-56
-56
-56
-56
-56
-56
-56
-56
-56
-56
-57
-57
-57
-57
-56
-56
-56
-56
-56
-56
-56
-57
-57
-57
-57
-57
-57
-57
-57
-57
-58
-58
-58
-58
-57
-57
-57
-57
-57
-57
-57
-57
-57
-57
-57
-58
-57
-57
-57
-58
-58
-58
-58
-58
-57
-57
-57
-57
-57
-57
-58
-58
-58
-58
-58
-58
-58
-58
-58
-59
-59
-59
-59
-59
-59
-58
-58
-58
-59
-59
-59
-60
-60
-60
-60
-60
-59
-59
-59
-59
-59
-59
-59
-59
-58
-58
-58
-58
-58
-58
-58
-58
-59
-59
-59
-59
-59
-59
-59
-60
-60
-60
-60
-60
-59
-59
-59
-59
-59
-59
-59
-59
-59
-59
-59
-60
-59
-59
-59
-59
-60
-60
-60
-59
-59
-59
-59
-60
-60
-60
-61
-61
-61
-62
-62
-62
-62
-61
-62
-62
-63
-63
-63
-62
-62
-62
-62
-62
-62
-62
-62
-62
-62
-62
-63
-63
-63
-63
-63
-63
-63
-64
-63
-63
-63
-63
-62
-63
-63
-63
-63
-63
-63
-63
-63
-63
-63
-62
-62
-63
-63
-63
-63
-62
-62
-61
-61
-61
-61
-62
-62
-62
-62
-62
-62
-63
-63
-62
-63
-63
-63
-64
-64
-64
-63
-63
-63
-64
-64
-64
-65
-65
-66
-66
-66
-66
-66
-66
-66
-66
-66
-67
-66
-66
-66
-65
-65
-65
-65
-65
-65
-65
-66
-66
-66
-66
-66
-66
-66
-66
-66
-66
-67
-66
-66
-66
-66
-66
-67
-67
-67
-67
-68
-68
-68
-68
-68
-68
-68
-68
-69
-69
-69
-69
-68
-68
-67
-67
-67
-67
-67
-67
-67
-67
-67
-67
-67
-67
-67
-68
-68
-68
-68
-68
-67
-67
-68
-68
-68
-68
-69
-70
-70
-70
-70
-70
-70
-70
-70
-70
-71
-70
-70
-70
-69
-69
-68
-68
-68
-68
-68
-67
-67
-67
-68
-68
-67
-67
-67
-68
-68
-68
-68
-68
-67
-67
-67
-67
-67
-67
-67
-68
-68
-68
-68
-67
-67
-66
-66
-66
-66
-66
-66
-65
-65
-64
-63
-63
-63
-63
-62
-62
-61
-61
-60
-60
-59
-58
-57
-57
-57
-57
-56
-55
-55
-54
-53
-53
-52
-52
-52
-52
-52
-52
-52
-52
-52
-51
-52
-52
-52
-53
-53
-53
-53
-53
-54
-54
-55
-56
-56
-57
-57
-58
-58
-59
-59
-59
-59
-60
-61
-61
-61
-61
-61
-61
-61
-62
-62
-62
-63
-64
-65
-66
-67
-68
-69
-70
-70
-71
-73
-73
-74
-74
-74
-75
-75
-75
-76
-76
-77
-77
-77
-77
-77
-77
-77
-77
-77
-78
-78
-78
-78
-78
-78
-77
-77
-78
-78
-79
-79
-79
-79
-80
-80
-80
-80
-80
-80
-80
-80
-80
-80
-80
-79
-78
-78
-78
-79
-79
-79
-80
-80
-81
-82
-83
-84
-85
-86
-88
-89
-91
-92
-93
-93
-93
-94
-94
-93
-92
-91
-89
-86
-82
-78
-72
-65
-56
-48
-38
-27
-15
-2
12
28
43
60
77
94
112
131
149
167
185
202
217
233
246
259
269
277
284
288
290
289
286
281
273
263
251
237
222
205
187
169
150
131
111
92
72
53
36
20
5
-8
-20
-30
-40
-49
-57
-63
-68
-72
-75
-78
-79
-80
-81
-81
-81
-81
-81
-80
-79
-78
-77
-77
-76
-76
-75
-75
-75
-75
-75
-75
-75
-74
-74
-74
-74
-75
-75
-75
-75
-75
-75
-75
-75
-75
-76
-76
-76
-77
-77
-77
-77
-77
-77
-78
-78
-79
-79
-79
-79
-79
-78
-78
-78
-78
-79
-79
-79
-80
-79
-79
-79
-79
-79
-79
-80
-80
-80
-80
-80
-79
-79
-78
-78
-78
-79
-78
-78
-78
-78
-78
-78
-78
-77
-77
-77
-77
-77
-77
-77
-76
-76
-76
-75
-75
-75
-75
-76
-76
-76
-76
-76
-76
-76
-76
-77
-77
-77
-76
-76
-76
-76
-75
-75
-75
-75
-75
-75
-75
-75
-74
-74
-74
-74
-73
-73
-73
-73
-73
-72
-72
-71
-70
-70
-70
-70
-70
-70
-71
-71
-71
-70
-70
-70
-70
-70
-70
-70
-69
-69
-69
-68
-68
-68
-68
-68
-68
-68
-68
-68
-67
-67
-67
-66
-66
-66
-66
-66
-66
-65
-65
-64
-64
-64
-64
-64
-64
-64
-64
-64
-64
-64
-63
-63
-63
-63
-63
-63
-63
-62
-62
-61
-61
-61
-61
-60
-60
-60
-60
-59
-59
-59
-58
-57
-57
-57
-57
-56
-56
-55
-55
-53
-53
-52
-52
-51
-51
-51
-51
-50
-50
-49
-48
-47
-47
-47
-46
-46
-45
-44
-43
-42
-41
-41
-40
-40
-39
-39
-38
-37
-37
-36
-35
-34
-33
-33
-32
-31
-30
-29
-28
-26
-26
-25
-24
-24
-23
-23
-22
-22
-21
-21
-20
-19
-19
-18
-18
-17
-17
-16
-15
-14
-13
-13
-12
-12
-11
-11
-10
-10
-10
-9
-9
-8
-7
-7
-7
-7
-6
-5
-5
-4
-3
-3
-3
-2
-2
-1
-1
-1
0
0
0
1
1
1
1
1
1
1
2
2
2
2
1
0
0
0
-1
-2
-3
-3
-5
-5
-6
-8
-9
-10
-11
-13
-14
-14
-16
-17
-19
-20
-22
-24
-25
-26
-28
-30
-30
-32
-33
-34
-36
-37
-38
-39
-39
-40
-41
-43
-44
-45
-47
-48
-49
-51
-52
-54
-54
-56
-57
-58
-60
-61
-63
-64
-65
-66
-66
-68
-69
-70
-71
-72
-72
-73
-74
-75
-75
-76
-76
-77
-77
-77
-78
-78
-78
-78
-78
-78
-78
-79
-79
-79
-79
-80
-80
-81
-81
-81
-81
-82
-82
-82
-82
-83
-82
-82
-82
-83
-83
-83
-84
-84
-85
-85
-85
-85
-85
-85
-85
-85
-85
-85
-85
-85
-85
-84
-84
-84
-84
-85
-85
-85
-85
-85
-85
-85
-85
-84
-84
-85
-85
-85
-85
-84
-83
-83
-83
-83
-83
-82
-82
-83
-83
-83
-83
-83
-83
-83
-82
-83
-83
-83
-83
-83
-83
-83
-83
-83
-84
-84
-84
-85
-85
-85
-85
-85
-85
-85
-85
-85
-86
-86
-86
-85
-85
-85
-84
-84
-85
-85
-85
-85
-85
-85
-85
-85
-85
-84
-84
-84
-85
-85
-85
-85
-85
-84
-84
-84
-85
-85
-85
-85
-86
-86
-86
-86
-86
-86
-86
-86
-86
-86
-86
-86
-85
-84
-84
-84
-84
-84
-84
-84
-84
-84
-84
-84
-84
-84
-84
-84
-84
-85
-85
-85
-85
-84
-84
-85
-85
-86
-86
-86
-86
-86
-87
-87
-87
-87
-87
-88
-88
-88
-88
-88
-87
-87
-87
-87
-87
-87
-87
-87
-87
-87
-87
-87
-87
-87
-86
-87
-87
-87
-87
-86
-86
-85
-85
-85
-85
-85
-86
-86
-86
-86
-86
-87
-87
-86
-86
-87
-88
-88
-88
-88
-87
-87
-87
-87
-87
-87
-86
-87
-87
-86
-86
-86
-85
-84
-84
-84
-84
-84
-83
-83
-82
-82
-81
-81
-82
-82
-83
-83
-83
-83
-84
-84
-84
-84
-85
-85
-86
-86
-86
-86
-86
-85
-85
-85
-85
-85
-86
-86
-86
-86
-86
-86
-86
-85
-86
-86
-86
-87
-87
-87
-86
-86
-86
-86
-87
-87
-87
-87
-88
-88
-88
-88
-88
-88
-88
-88
-89
-89
-88
-88
-88
-88
-88
-88
-88
-88
-88
-89
-89
-89
-89
-89
-89
-88
-88
-88
-88
-88
-88
-87
-87
-86
-85
-85
-85
-85
-85
-84
-84
-84
-84
-84
-84
-84
-84
-84
-84
-84
-84
-84
-84
-83
-83
-83
-83
-83
-83
-83
-83
-82
-82
-82
-81
-80
-80
-79
-79
-79
-78
-78
-77
-76
-75
-75
-74
-74
-73
-73
-72
-71
-71
-71
-70
-69
-69
-68
-68
-68
-67
-67
-66
-65
-64
-64
-64
-64
-64
-64
-64
-64
-64
-64
-64
-64
-64
-64
-65
-65
-65
-65
-65
-65
-66
-66
-67
-68
-69
-69
-70
-70
-70
-71
-72
-72
-72
-73
-73
-74
-74
-74
-74
-74
-75
-75
-76
-76
-77
-78
-79
-80
-80
-81
-81
-82
-83
-84
-84
-85
-85
-86
-86
-86
-86
-87
-87
-88
-88
-88
-88
-88
-89
-89
-89
-89
-89
-89
-90
-90
-90
-90
-89
-89
-89
-89
-89
-89
-89
-89
-89
-89
-89
-89
-89
-89
-89
-89
-90
-90
-90
-89
-89
-88
-88
-88
-89
-89
-89
-90
-90
-91
-91
-92
-93
-94
-95
-97
-98
-99
-101
-101
-103
-103
-104
-104
-105
-105
-104
-104
-103
-101
-98
-95
-91
-85
-79
-72
-64
-54
-44
-32
-19
-5
9
24
40
57
74
92
111
130
149
168
186
204
220
236
249
262
273
282
289
294
296
296
292
286
278
267
254
240
224
207
189
170
150
130
109
88
68
49
32
15
-1
-15
-28
-40
-50
-59
-67
-73
-79
-83
-86
-88
-90
-92
-93
-93
-93
-93
-92
-91
-90
-89
-89
-88
-87
-87
-87
-86
-86
-86
-85
-84
-84
-84
-84
-84
-84
-84
-84
-83
-83
-84
-84
-85
-85
-85
-86
-86
-86
-87
-87
-87
-88
-88
-89
-89
-89
-89
-89
-88
-88
-88
-88
-89
-89
-89
-90
-89
-89
-89
-89
-89
-89
-89
-89
-89
-89
-89
-88
-88
-88
-87
-87
-87
-88
-88
-88
-87
-87
-87
-87
-86
-86
-86
-86
-86
-86
-86
-85
-85
-84
-84
-84
-84
-84
-85
-85
-85
-85
-85
-85
-84
-84
-85
-85
-85
-84
-84
-84
-83
-83
-83
-83
-83
-84
-84
-84
-84
-84
-84
-84
-84
-84
-84
-84
-84
-84
-83
-83
-82
-81
-81
-81
-81
-81
-81
-81
-80
-80
-80
-79
-79
-78
-78
-78
-78
-77
-77
-76
-75
-75
-74
-74
-74
-74
-74
-74
-74
-74
-74
-74
-73
-73
-73
-73
-72
-72
-72
-71
-70
-70
-70
-70
-70
-70
-70
-70
-69
-69
-69
-69
-68
-67
-67
-67
-67
-66
-65
-65
-64
-63
-63
-62
-62
-62
-62
-62
-61
-61
-61
-61
-60
-60
-60
-60
-60
-59
-59
-58
-57
-56
-56
-56
-55
-54
-54
-54
-54
-53
-52
-52
-50
-49
-49
-49
-48
-47
-47
-46
-45
-43
-43
-43
-42
-42
-41
-41
-40
-40
-39
-39
-38
-37
-37
-36
-36
-35
-34
-34
-32
-31
-30
-30
-29
-29
-28
-27
-27
-26
-25
-24
-23
-22
-22
-21
-20
-20
-19
-18
-17
-16
-16
-15
-15
-15
-14
-14
-13
-13
-12
-12
-11
-10
-9
-9
-8
-8
-7
-6
-5
-5
-4
-4
-4
-3
-3
-3
-3
-3
-3
-3
-3
-3
-4
-4
-4
-5
-5
-5
-5
-5
-6
-6
-7
-8
-9
-9
-10
-10
-12
-12
-12
-13
-14
-15
-16
-17
-18
-19
-19
-20
-21
-23
-24
-25
-27
-28
-30
-31
-33
-34
-35
-36
-37
-39
-40
-41
-43
-43
-44
-45
-46
-47
-49
-50
-51
-53
-54
-55
-56
-57
-58
-59
-60
-61
-62
-63
-64
-64
-65
-66
-66
-67
-68
-69
-70
-71
-71
-72
-73
-73
-73
-74
-74
-75
-76
-76
-76
-76
-76
-76
-76
-77
-77
-77
-78
-78
-78
-78
-78
-78
-78
-78
-78
-79
-79
-79
-79
-79
-78
-78
-78
-78
-78
-78
-79
-79
-79
-79
-79
-78
-78
-77
-77
-78
-78
-78
-77
-77
-76
-76
-76
-76
-76
-76
-76
-76
-76
-76
-76
-76
-75
-75
-75
-75
-75
-75
-75
-74
-73
-73
-73
-74
-74
-74
-74
-74
-74
-74
-74
-74
-74
-74
-74
-74
-74
-74
-74
-74
-74
-74
-74
-74
-75
-75
-75
-76
-76
-76
-76
-76
-76
-75
-76
-76
-76
-76
-76
-75
-74
-74
-74
-74
-74
-74
-74
-74
-74
-74
-74
-74
-73
-73
-73
-74
-74
-74
-73
-73
-73
-72
-73
-73
-73
-74
-74
-74
-74
-75
-75
-75
-75
-75
-75
-75
-75
-75
-75
-75
-75
-74
-75
-75
-75
-75
-75
-75
-76
-76
-76
-76
-75
-75
-76
-76
-76
-76
-76
-76
-76
-75
-76
-76
-76
-76
-77
-77
-77
-77
-77
-77
-77
-77
-77
-77
-77
-77
-77
-77
-76
-76
-76
-76
-76
-76
-76
-76
-76
-76
-76
-76
-76
-76
-76
-76
-76
-76
-76
-75
-75
-74
-74
-75
-75
-75
-75
-75
-75
-75
-76
-76
-76
-76
-76
-76
-76
-76
-76
-76
-75
-75
-75
-76
-76
-76
-76
-76
-76
-77
-77
-77
-76
-76
-76
-76
-76
-76
-76
-76
-75
-75
-75
-75
-76
-76
-76
-76
-76
-76
-77
-76
-76
-76
-76
-76
-77
-76
-76
-76
-76
-75
-75
-76
-76
-76
-76
-76
-76
-76
-76
-76
-76
-76
-76
-76
-77
-77
-76
-76
-75
-75
-75
-75
-75
-75
-75
-76
-75
-76
-76
-76
-75
-75
-75
-75
-75
-75
-75
-75
-74
-74
-74
-74
-73
-73
-73
-74
-74
-74
-74
-74
-74
-73
-74
-74
-74
-74
-74
-74
-74
-73
-74
-74
-74
-75
-75
-75
-75
-75
-75
-75
-75
-75
-75
-75
-75
-75
-74
-74
-73
-73
-73
-73
-72
-72
-72
-72
-72
-72
-72
-72
-71
-71
-71
-72
-72
-72
-72
-72
-71
-71
-71
-71
-72
-72
-73
-73
-73
-73
-74
-74
-73
-73
-74
-74
-74
-74
-74
-73
-73
-72
-72
-72
-72
-72
-72
-72
-73
-72
-72
-72
-71
-71
-71
-72
-72
-72
-72
-71
-71
-70
-70
-71
-71
-71
-71
-72
-72
-72
-72
-72
-72
-72
-72
-72
-72
-72
-72
-72
-71
-71
-71
-71
-72
-72
-72
-72
-72
-72
-73
-73
-72
-72
-72
-73
-73
-73
-73
-72
-72
-72
-72
-72
-73
-73
-73
-73
-73
-73
-73
-72
-72
-72
-72
-72
-72
-72
-72
-72
-71
-71
-71
-71
-71
-70
-70
-70
-70
-70
-70
-69
-69
-68
-68
-68
-68
-67
-67
-66
-65
-65
-65
-64
-64
-63
-62
-62
-61
-61
-60
-60
-58
-57
-57
-56
-55
-55
-54
-53
-52
-51
-51
-50
-50
-50
-50
-50
-50
-50
-50
-50
-49
-49
-49
-50
-50
-50
-50
-50
-50
-50
-50
-51
-52
-53
-53
-54
-54
-54
-55
-56
-56
-56
-56
-57
-58
-58
-58
-58
-58
-58
-58
-58
-59
-59
-60
-60
-61
-61
-62
-62
-63
-63
-63
-64
-65
-65
-66
-66
-66
-66
-67
-68
-69
-69
-70
-71
-71
-72
-72
-73
-73
-73
-74
-74
-75
-75
-76
-75
-75
-75
-75
-75
-75
-75
-76
-76
-76
-76
-76
-75
-75
-75
-75
-75
-75
-75
-75
-74
-74
-74
-73
-74
-74
-74
-74
-74
-74
-74
-74
-75
-75
-75
-76
-77
-78
-78
-79
-80
-80
-81
-82
-83
-84
-85
-86
-86
-86
-85
-85
-83
-81
-78
-75
-71
-65
-59
-52
-42
-32
-21
-10
2
15
29
45
61
78
96
114
133
152
171
189
207
224
240
255
269
282
292
300
306
309
311
309
304
297
288
276
263
248
231
213
193
172
151
130
109
88
68
48
30
12
-3
-17
-30
-41
-51
-59
-65
-70
-74
-77
-80
-81
-82
-82
-81
-80
-78
-78
-76
-75
-74
-73
-72
-72
-71
-70
-69
-69
-68
-68
-69
-68
-68
-68
-68
-67
-67
-67
-68
-68
-69
-69
-69
-69
-70
-70
-70
-70
-70
-70
-70
-70
-70
-70
-70
-70
-69
-69
-69
-69
-69
-69
-69
-69
-69
-69
-69
-69
-69
-69
-69
-70
-70
-69
-69
-69
-68
-68
-68
-68
-68
-68
-68
-68
-68
-68
-68
-67
-67
-67
-67
-67
-67
-67
-66
-66
-66
-66
-66
-66
-66
-65
-65
-65
-65
-65
-65
-64
-63
-64
-63
-63
-63
-63
-62
-61
-60
-60
-60
-60
-61
-61
-61
-60
-60
-61
-60
-60
-60
-60
-61
-61
-60
-60
-60
-59
-58
-58
-58
-58
-58
-58
-58
-58
-58
-58
-57
-57
-56
-56
-56
-56
-56
-55
-55
-54
-54
-54
-54
-54
-53
-53
-53
-53
-53
-53
-53
-53
-52
-53
-53
-53
-53
-52
-52
-51
-50
-50
-50
-49
-49
-49
-49
-49
-49
-49
-48
-48
-47
-47
-47
-47
-47
-46
-45
-44
-44
-43
-43
-43
-43
-43
-43
-42
-42
-42
-41
-40
-40
-40
-39
-39
-39
-38
-37
-36
-35
-35
-35
-35
-34
-34
-33
-33
-33
-32
-32
-31
-30
-30
-30
-29
-28
-27
-27
-26
-25
-24
-23
-23
-23
-22
-21
-21
-20
-19
-19
-18
-16
-16
-15
-15
-14
-13
-12
-11
-10
-9
-8
-7
-7
-6
-6
-5
-4
-4
-3
-2
-1
0
0
0
1
2
3
4
5
5
6
6
6
7
7
8
8
9
9
10
11
11
11
12
12
13
14
15
16
16
17
17
17
18
18
18
19
19
19
19
20
20
20
20
20
20
21
21
22
22
22
22
21
21
20
20
20
19
19
19
18
17
16
15
15
14
13
13
12
11
9
8
7
5
3
2
1
0
-2
-3
-5
-6
-8
-9
-10
-12
-13
-14
-15
-17
-18
-20
-21
-23
-24
-26
-27
-28
-29
-30
-31
-32
-34
-35
-36
-37
-38
-38
-38
-39
-41
-41
-42
-44
-45
-45
-46
-47
-48
-48
-49
-49
-50
-51
-51
-52
-52
-52
-52
-53
-53
-54
-54
-55
-55
-56
-56
-56
-56
-56
-56
-57
-58
-58
-58
-58
-58
-57
-57
-57
-57
-58
-58
-58
-59
-59
-59
-60
-59
-59
-59
-59
-59
-60
-60
-59
-59
-58
-58
-58
-58
-58
-58
-58
-58
-57
-57
-57
-57
-57
-57
-57
-57
-57
-57
-56
-56
-55
-55
-55
-55
-55
-55
-56
-56
-56
-56
-56
-56
-56
-56
-57
-57
-58
-58
-58
-57
-57
-57
-57
-57
-58
-58
-58
-58
-58
-58
-58
-58
-58
-57
-58
-58
-58
-58
-58
-57
-57
-56
-56
-57
-57
-56
-57
-57
-57
-57
-57
-57
-56
-56
-57
-57
-57
-57
-57
-57
-56
-56
-56
-56
-56
-56
-56
-56
-56
-56
-56
-56
-55
-55
-55
-56
-56
-56
-55
-55
-54
-54
-54
-54
-55
-55
-55
-56
-56
-56
-56
-56
-56
-56
-56
-57
-57
-57
-57
-57
-56
-56
-56
-56
-56
-56
-56
-56
-56
-56
-56
-56
-56
-56
-56
-56
-57
-57
-57
-56
-56
-56
-56
-57
-57
-57
-57
-58
-58
-58
-58
-58
-58
-58
-58
-59
-59
-59
-59
-59
-58
-57
-57
-58
-58
-58
-58
-58
-58
-58
-58
-58
-57
-57
-57
-57
-57
-57
-57
-56
-56
-56
-56
-56
-56
-56
-56
-57
-57
-57
-57
-57
-57
-57
-57
-57
-58
-58
-57
-57
-57
-56
-56
-57
-57
-57
-57
-57
-58
-58
-58
-58
-58
-58
-58
-58
-58
-58
-58
-58
-57
-57
-57
-57
-57
-57
-57
-58
-58
-58
-58
-58
-58
-58
-58
-58
-58
-58
-58
-58
-57
-57
-58
-58
-58
-58
-58
-58
-59
-59
-59
-59
-59
-58
-59
-59
-59
-59
-59
-58
-58
-58
-58
-58
-58
-58
-58
-58
-58
-58
-58
-58
-57
-57
-57
-58
-58
-58
-58
-57
-57
-57
-57
-57
-58
-58
-58
-59
-59
-59
-60
-60
-59
-59
-59
-60
-60
-60
-60
-59
-59
-58
-58
-58
-58
-58
-58
-59
-59
-59
-59
-59
-59
-59
-59
-59
-59
-59
-59
-59
-59
-58
-58
-59
-59
-59
-59
-60
-60
-60
-60
-60
-60
-60
-60
-60
-60
-60
-60
-60
-60
-60
-60
-60
-60
-60
-60
-60
-60
-60
-60
-59
-59
-59
-59
-59
-59
-59
-59
-58
-58
-57
-57
-57
-58
-58
-58
-58
-58
-59
-59
-59
-59
-58
-59
-59
-59
-59
-59
-58
-58
-57
-57
-58
-58
-58
-58
-58
-58
-59
-59
-59
-59
-58
-59
-59
-59
-59
-59
-59
-59
-59
-59
-59
-59
-59
-59
-59
-59
-59
-59
-59
-59
-59
-59
-59
-59
-59
-59
-58
-58
-58
-58
-58
-59
-59
-59
-60
-60
-60
-60
-60
-60
-60
-60
-61
-61
-61
-61
-60
-60
-60
-60
-60
-60
-60
-61
-61
-61
-61
-61
-61
-61
-61
-61
-61
-61
-62
-62
-61
-61
-61
-61
-61
-61
-61
-61
-62
-62
-62
-62
-62
-62
-62
-62
-62
-62
-62
-62
-62
-61
-61
-61
-61
-61
-61
-61
-61
-61
-61
-61
-61
-61
-61
-61
-62
-62
-62
-62
-62
-61
-61
-61
-61
-61
-61
-62
-62
-62
-62
-62
-62
-62
-62
-62
-62
-62
-62
-62
-62
-61
-61
-61
-62
-62
-62
-62
-62
-62
-62
-63
-62
-62
-61
-61
-61
-61
-61
-61
-61
-60
-60
-60
-60
-60
-60
-60
-60
-60
-60
-60
-60
-60
-60
-61
-61
-61
-62
-62
-61
-61
-61
-61
-62
-62
-62
-62
-62
-62
-62
-63
-63
-63
-62
-63
-63
-63
-63
-63
-63
-62
-61
-61
-62
-61
-61
-61
-61
-61
-61
-61
-61
-61
-61
-61
-61
-61
-61
-61
-60
-60
-60
-60
-60
-60
-61
-61
-61
-61
-62
-62
-62
-62
-62
-62
-63
-63
-63
-63
-63
-63
-62
-62
-62
-62
-62
-62
-63
-63
-62
-62
-62
-62
-61
-61
-61
-61
-61
-61
-60
-59
-59
-59
-59
-59
-59
-59
-59
-59
-58
-58
-58
-58
-57
-57
-57
-56
-56
-55
-54
-53
-52
-51
-51
-50
-49
-49
-48
-47
-47
-46
-46
-45
-44
-44
-44
-44
-44
-43
-43
-42
-42
-42
-42
-42
-42
-43
-43
-43
-43
-44
-44
-45
-45
-46
-47
-47
-48
-48
-48
-48
-48
-48
-49
-49
-50
-50
-51
-51
-51
-51
-52
-52
-52
-52
-53
-53
-54
-54
-54
-54
-55
-55
-56
-57
-58
-59
-59
-61
-61
-62
-63
-63
-64
-64
-65
-66
-67
-67
-67
-67
-67
-68
-68
-68
-69
-69
-69
-70
-70
-71
-71
-71
-70
-71
-71
-71
-71
-71
-70
-70
-69
-69
-69
-69
-70
-70
-70
-70
-70
-70
-70
-69
-69
-69
-69
-69
-69
-69
-69
-69
-68
-69
-70
-70
-71
-72
-73
-74
-76
-77
-78
-78
-79
-80
-81
-82
-82
-81
-80
-78
-76
-73
-70
-66
-61
-55
-47
-39
-29
-19
-7
6
20
34
49
65
82
100
119
138
156
175
193
211
228
244
258
272
284
294
302
308
312
312
310
305
298
288
277
263
249
231
212
192
172
150
128
107
85
64
45
27
11
-5
-19
-31
-41
-50
-58
-63
-68
-72
-75
-77
-77
-78
-78
-78
-77
-76
-75
-73
-72
-71
-70
-69
-68
-67
-66
-65
-64
-64
-64
-64
-64
-64
-64
-65
-65
-65
-65
-65
-65
-66
-66
-67
-67
-67
-67
-67
-67
-67
-67
-67
-68
-68
-69
-69
-69
-69
-69
-69
-69
-70
-70
-71
-71
-71
-70
-70
-70
-70
-70
-70
-70
-70
-70
-70
-70
-70
-69
-69
-69
-69
-69
-69
-68
-68
-67
-67
-67
-66
-66
-66
-66
-67
-67
-67
-67
-67
-67
-66
-66
-66
-67
-67
-67
-67
-67
-66
-66
-66
-66
-66
-66
-66
-66
-66
-66
-66
-66
-65
-65
-65
-65
-65
-64
-64
-63
-62
-62
-62
-61
-61
-61
-61
-61
-61
-61
-61
-60
-60
-60
-60
-60
-60
-60
-60
-60
-59
-59
-59
-59
-59
-59
-59
-59
-59
-59
-59
-59
-59
-59
-59
-59
-59
-58
-58
-57
-56
-56
-56
-56
-56
-55
-55
-55
-55
-55
-55
-55
-54
-54
-53
-54
-54
-54
-53
-53
-52
-51
-51
-51
-51
-51
-51
-50
-50
-49
-49
-49
-48
-47
-47
-47
-47
-46
-45
-45
-44
-43
-43
-42
-42
-42
-41
-41
-41
-41
-41
-41
-40
-40
-39
-39
-39
-39
-38
-38
-37
-36
-36
-36
-35
-35
-34
-33
-33
-32
-32
-31
-30
-30
-29
-29
-28
-27
-26
-25
-24
-23
-22
-22
-21
-20
-20
-19
-19
-18
-18
-17
-16
-15
-15
-14
-13
-13
-12
-11
-9
-8
-7
-7
-6
-6
-5
-4
-4
-3
-2
-1
0
0
1
1
2
2
3
4
5
6
7
7
8
8
8
8
9
9
9
10
11
12
13
13
13
14
14
15
16
17
17
17
17
18
18
18
18
18
18
18
18
19
18
18
17
17
16
16
17
16
16
15
14
13
13
11
10
9
8
7
7
6
4
3
2
0
0
-2
-2
-3
-5
-7
-8
-9
-11
-13
-14
-15
-17
-18
-19
-21
-22
-24
-26
-27
-28
-29
-31
-31
-33
-35
-36
-38
-39
-41
-42
-44
-45
-46
-47
-48
-49
-51
-52
-53
-54
-54
-55
-55
-56
-57
-58
-59
-60
-60
-61
-62
-63
-63
-63
-63
-64
-65
-66
-66
-66
-66
-66
-66
-66
-66
-67
-67
-68
-68
-68
-69
-69
-69
-69
-69
-69
-69
-69
-69
-69
-68
-68
-67
-67
-67
-67
-67
-67
-67
-67
-67
-67
-67
-67
-67
-67
-67
-67
-67
-67
-67
-67
-67
-67
-67
-67
-67
-67
-67
-67
-67
-67
-67
-67
-66
-66
-66
-67
-67
-66
-66
-65
-65
-65
-65
-65
-65
-66
-66
-66
-66
-66
-66
-66
-66
-67
-67
-67
-67
-67
-67
-66
-66
-66
-66
-66
-66
-66
-67
-67
-67
-67
-67
-66
-66
-67
-67
-67
-67
-67
-67
-66
-66
-66
-66
-67
-67
-67
-67
-67
-68
-68
-68
-68
-68
-68
-68
-68
-68
-68
-68
-68
-67
-67
-68
-68
-68
-68
-69
-69
-69
-69
-69
-69
-69
-69
-69
-69
-69
-69
-69
-68
-68
-68
-68
-69
-69
-69
-69
-69
-70
-70
-70
-70
-70
-70
-71
-71
-71
-71
-71
-70
-70
-70
-70
-70
-70
-70
-70
-71
-71
-71
-70
-70
-69
-69
-70
-70
-70
-70
-70
-69
-69
-69
-69
-70
-70
-70
-71
-71
-71
-71
-71
-71
-71
-71
-72
-73
-73
-72
-72
-72
-71
-71
-71
-71
-71
-71
-72
-72
-72
-72
-72
-72
-71
-72
-72
-72
-72
-72
-72
-71
-71
-71
-71
-71
-71
-71
-71
-71
-72
-72
-72
-72
-72
-72
-72
-72
-72
-72
-72
-72
-72
-72
-72
-73
-73
-73
-74
-74
-74
-75
-75
-74
-74
-75
-75
-75
-75
-75
-75
-74
-74
-74
-74
-74
-74
-74
-74
-74
-75
-75
-75
-75
-74
-74
-75
-75
-75
-75
-75
-74
-74
-74
-74
-74
-74
-74
-75
-75
-75
-75
-75
-75
-75
-75
-76
-76
-76
-76
-75
-75
-75
-75
-76
-76
-76
-76
-76
-76
-76
-76
-76
-76
-76
-76
-76
-76
-76
-76
-76
-75
-75
-75
-75
-75
-75
-75
-75
-75
-75
-75
-75
-75
-75
-76
-76
-77
-77
-77
-77
-76
-76
-76
-76
-76
-77
-77
-77
-77
-77
-77
-77
-77
-77
-77
-77
-77
-77
-76
-76
-75
-75
-75
-75
-76
-76
-76
-76
-77
-77
-78
-78
-78
-78
-78
-79
-79
-80
-79
-79
-79
-78
-79
-79
-79
-79
-79
-80
-80
-80
-80
-80
-80
-80
-80
-80
-80
-80
-80
-80
-79
-79
-79
-79
-79
-80
-80
-80
-80
-80
-80
-80
-80
-80
-80
-80
-81
-81
-81
-80
-80
-79
-79
-80
-80
-80
-80
-81
-81
-81
-81
-81
-81
-81
-81
-81
-81
-81
-81
-81
-80
-80
-80
-80
-80
-80
-80
-80
-81
-81
-81
-81
-81
-81
-81
-82
-82
-82
-82
-82
-81
-81
-81
-81
-81
-81
-82
-82
-82
-82
-82
-82
-82
-82
-82
-82
-83
-83
-83
-83
-82
-82
-82
-82
-82
-82
-82
-83
-83
-83
-84
-84
-83
-83
-83
-84
-84
-84
-83
-83
-82
-82
-82
-82
-82
-83
-83
-83
-83
-83
-83
-83
-83
-83
-83
-83
-83
-83
-83
-83
-83
-82
-83
-83
-83
-83
-83
-83
-84
-84
-84
-84
-84
-83
-84
-84
-84
-84
-84
-84
-83
-83
-83
-83
-83
-83
-83
-83
-83
-83
-83
-83
-83
-83
-83
-83
-84
-83
-83
-82
-82
-81
-81
-81
-81
-81
-81
-81
-81
-81
-80
-80
-79
-79
-78
-78
-78
-78
-77
-76
-75
-74
-73
-73
-72
-72
-71
-71
-71
-70
-70
-69
-69
-68
-68
-68
-68
-68
-68
-67
-67
-67
-66
-67
-67
-67
-67
-68
-69
-69
-69
-69
-69
-69
-70
-71
-71
-71
-72
-72
-71
-72
-72
-72
-73
-73
-74
-74
-75
-75
-76
-76
-76
-77
-78
-79
-79
-80
-81
-82
-82
-82
-83
-85
-85
-87
-88
-89
-90
-90
-92
-92
-92
-92
-94
-94
-95
-95
-95
-95
-95
-94
-94
-95
-95
-95
-95
-95
-95
-95
-95
-95
-95
-95
-95
-95
-96
-96
-95
-95
-95
-95
-95
-95
-95
-96
-96
-96
-96
-96
-97
-96
-96
-96
-96
-97
-97
-97
-97
-97
-97
-97
-98
-99
-100
-101
-102
-104
-105
-106
-108
-108
-109
-109
-110
-110
-109
-108
-106
-104
-101
-97
-92
-86
-80
-71
-62
-53
-42
-30
-17
-3
11
27
43
60
77
95
113
132
151
169
185
201
215
229
240
250
259
265
269
270
269
266
