# Simple Text Format
# Sampling Rate (Hz):= 1200.00
# Resolution:= 12
# Labels:= ECG	 V3
# Age:=	20
# Gender:=	Feminino
0
0
0
0
0
0
0
0
0
0
0
0
0
0
0
0
0
0
0
0
0
0
0
0
0
0
0
0
0
0
0
0
0
0
0
0
0
0
0
0
0
0
0
0
0
0
0
0
0
0
0
0
0
0
0
0
0
0
0
0
0
0
0
0
0
0
0
0
0
0
0
0
0
0
0
0
0
0
0
0
0
0
0
0
0
0
0
0
0
0
0
0
0
0
0
0
0
0
0
0
0
0
0
0
0
0
0
0
0
0
0
0
0
0
0
0
0
0
0
0
0
0
0
0
0
0
0
0
0
0
0
0
0
0
0
0
0
0
0
0
0
0
0
0
0
0
0
0
0
0
0
0
0
0
0
0
0
0
0
0
0
0
0
0
0
0
0
0
0
0
0
0
0
0
0
0
0
0
0
0
0
0
0
0
0
0
0
0
0
0
0
0
0
0
0
0
0
0
0
0
0
0
0
0
0
0
0
0
0
0
0
0
0
0
0
0
0
0
0
0
0
0
0
0
0
0
0
0
0
0
0
0
0
0
0
0
0
0
0
0
0
0
0
0
0
0
0
0
0
0
0
0
0
0
0
0
0
0
0
0
0
0
0
0
0
0
0
0
0
0
0
0
0
0
0
0
0
0
0
0
0
0
0
0
0
0
0
0
0
0
0
0
0
0
0
0
0
0
0
0
0
0
0
0
0
0
0
0
0
0
0
0
0
0
0
0
0
0
0
0
0
0
0
0
0
0
0
0
0
0
0
0
0
0
0
0
0
0
0
0
0
0
0
0
0
0
0
0
0
0
0
0
0
0
0
0
0
0
0
0
0
0
0
0
0
0
0
0
0
0
0
0
0
0
0
0
0
0
0
0
0
0
0
0
0
0
0
0
0
0
0
0
0
0
0
0
0
0
0
0
0
0
0
0
0
0
0
0
0
0
0
0
0
0
0
0
0
0
0
0
0
0
0
0
0
0
0
0
0
0
0
0
0
0
0
0
0
0
0
0
0
0
0
0
0
0
0
0
0
0
0
0
0
0
0
0
0
0
0
0
0
0
0
0
0
0
0
0
0
0
0
0
0
0
0
0
0
0
0
0
0
0
0
0
0
0
0
0
0
0
0
0
0
0
0
0
0
0
0
0
0
0
0
0
0
0
0
0
0
0
0
0
0
0
0
0
0
0
0
0
0
0
0
0
0
0
0
0
0
0
0
0
0
0
0
0
0
0
0
0
0
0
0
0
0
0
0
0
0
0
0
0
0
0
0
0
0
0
0
0
0
0
0
0
0
0
0
0
0
0
0
0
0
0
0
0
0
0
0
0
0
0
0
0
0
0
0
0
0
0
0
0
0
0
0
0
0
0
0
0
0
0
0
0
0
0
0
0
0
0
0
0
0
0
0
0
0
0
0
0
0
0
0
0
0
0
0
0
0
0
0
0
0
0
0
0
0
0
0
0
0
0
0
0
0
0
0
0
0
0
0
0
0
0
0
0
0
0
0
0
0
0
0
0
0
0
0
0
0
0
0
0
0
0
0
0
0
0
0
0
0
0
0
0
0
0
0
0
0
0
0
0
0
0
0
0
0
0
0
0
0
0
0
0
0
0
0
0
0
0
0
0
0
0
0
0
0
0
0
0
0
0
0
0
0
0
0
0
0
0
0
0
0
0
0
0
0
0
0
0
0
0
0
0
0
0
0
0
0
0
0
0
0
0
0
0
0
0
0
0
0
0
0
0
0
0
0
0
0
0
0
0
0
0
0
0
0
0
0
0
0
0
0
0
0
0
0
0
0
0
0
0
0
0
0
0
0
0
0
0
0
0
0
0
0
0
0
0
0
0
0
0
0
0
0
0
0
0
0
0
0
0
0
0
0
0
0
0
0
0
0
0
0
0
0
0
0
0
0
0
0
0
0
0
0
0
0
0
0
0
0
0
0
0
0
0
0
0
0
0
0
0
0
0
0
0
0
0
0
0
0
0
0
0
0
0
0
0
0
0
0
0
0
0
0
0
0
0
0
0
0
0
0
0
0
0
0
0
0
0
0
0
0
0
0
0
0
0
0
0
0
0
0
0
0
0
0
0
0
0
0
0
0
0
0
0
0
0
0
0
0
0
0
0
0
0
0
0
0
0
0
0
0
0
0
0
0
0
0
0
0
0
0
0
0
0
0
0
0
0
0
0
0
0
0
0
0
0
0
0
0
0
0
0
0
0
0
0
0
0
0
0
0
0
0
0
0
0
0
0
0
0
0
0
0
0
0
0
0
0
0
0
0
0
0
0
0
0
0
0
0
0
0
0
0
0
0
0
0
0
0
0
0
0
0
0
0
0
0
0
0
0
0
0
0
0
0
0
0
0
0
0
0
0
0
0
0
0
0
0
0
0
0
0
0
0
0
0
0
0
0
0
0
0
0
0
0
0
0
0
0
0
0
0
0
0
0
0
0
0
0
0
0
0
0
0
0
0
0
0
0
0
0
0
0
0
0
0
0
0
0
0
0
0
0
0
0
0
0
0
0
0
0
0
0
0
0
0
0
0
0
0
0
0
0
0
0
0
0
0
0
0
0
0
0
0
0
0
0
0
0
0
0
0
0
0
0
0
0
0
0
0
0
0
0
0
0
0
0
0
0
0
0
0
0
0
0
0
0
0
0
-116
-116
-116
-116
-116
-116
-116
-116
-117
-117
-117
-117
-117
-117
-118
-118
-118
-117
-117
-117
-117
-117
-118
-118
-117
-117
-117
-117
-117
-116
-116
-115
-115
-115
-114
-114
-113
-113
-112
-112
-112
-111
-111
-110
-110
-109
-109
-109
-108
-108
-108
-108
-107
-108
-108
-108
-108
-108
-108
-109
-108
-109
-109
-108
-109
-108
-108
-108
-107
-108
-107
-107
-106
-107
-106
-105
-106
-105
-105
-104
-105
-105
-105
-105
-104
-104
-104
-104
-105
-105
-105
-106
-106
-106
-107
-107
-106
-107
-108
-107
-108
-108
-109
-109
-109
-110
-111
-112
-111
-112
-113
-114
-115
-115
-116
-117
-118
-119
-119
-120
-120
-121
-122
-123
-124
-124
-124
-125
-126
-127
-127
-127
-128
-128
-129
-129
-129
-130
-130
-130
-131
-131
-132
-132
-132
-132
-133
-133
-133
-133
-134
-134
-134
-134
-134
-134
-135
-135
-134
-135
-135
-135
-135
-136
-136
-136
-136
-136
-136
-136
-136
-136
-136
-136
-136
-136
-136
-136
-136
-136
-137
-137
-137
-137
-137
-137
-137
-137
-137
-137
-137
-137
-137
-137
-137
-136
-136
-135
-134
-133
-132
-131
-129
-126
-124
-121
-118
-114
-110
-106
-101
-95
-89
-83
-77
-69
-62
-53
-45
-37
-28
-19
-10
-2
6
13
21
27
32
36
39
39
39
36
32
24
15
2
-13
-30
-49
-72
-96
-123
-151
-180
-210
-240
-272
-302
-333
-361
-390
-415
-440
-462
-482
-499
-513
-525
-533
-539
-542
-542
-540
-535
-529
-520
-510
-497
-485
-471
-455
-439
-423
-407
-390
-374
-359
-343
-328
-313
-300
-287
-276
-264
-253
-243
-233
-225
-218
-211
-205
-199
-196
-191
-188
-184
-182
-178
-177
-174
-172
-169
-167
-165
-163
-161
-160
-158
-155
-153
-152
-149
-148
-147
-145
-143
-142
-140
-139
-138
-137
-137
-135
-135
-133
-133
-133
-132
-132
-132
-131
-131
-131
-131
-131
-130
-129
-129
-129
-129
-129
-129
-129
-129
-128
-128
-128
-128
-129
-129
-129
-129
-129
-129
-129
-128
-128
-128
-128
-128
-129
-129
-129
-128
-128
-128
-128
-128
-128
-128
-128
-128
-127
-127
-128
-128
-128
-128
-128
-127
-127
-127
-127
-127
-127
-128
-128
-128
-128
-128
-128
-128
-128
-128
-128
-127
-127
-127
-127
-127
-127
-127
-127
-127
-127
-127
-128
-128
-127
-127
-127
-127
-126
-127
-127
-126
-126
-126
-126
-125
-125
-126
-126
-126
-126
-126
-126
-126
-126
-126
-126
-126
-126
-126
-127
-127
-126
-126
-126
-126
-126
-125
-125
-125
-125
-124
-124
-124
-123
-123
-123
-122
-123
-122
-122
-122
-121
-121
-121
-121
-121
-120
-120
-121
-120
-120
-119
-119
-119
-119
-119
-118
-119
-118
-118
-118
-117
-117
-117
-117
-117
-117
-117
-117
-117
-116
-117
-117
-117
-116
-117
-116
-116
-117
-116
-116
-117
-117
-116
-117
-117
-117
-117
-117
-117
-117
-117
-117
-117
-117
-117
-117
-117
-117
-118
-118
-117
-117
-117
-118
-118
-118
-117
-118
-118
-117
-118
-117
-118
-117
-117
-117
-116
-117
-116
-116
-116
-116
-116
-116
-116
-116
-115
-115
-116
-115
-115
-115
-115
-114
-115
-115
-115
-116
-115
-116
-116
-116
-116
-116
-116
-116
-116
-117
-117
-118
-117
-118
-118
-119
-119
-119
-119
-120
-120
-121
-122
-122
-123
-123
-124
-124
-125
-125
-126
-126
-127
-128
-128
-129
-129
-129
-130
-131
-131
-132
-132
-133
-133
-133
-134
-135
-135
-135
-136
-136
-136
-137
-137
-137
-138
-138
-138
-139
-139
-139
-140
-140
-140
-140
-141
-141
-141
-141
-142
-142
-142
-142
-142
-142
-142
-142
-142
-142
-142
-142
-142
-142
-142
-142
-143
-143
-143
-143
-142
-142
-142
-142
-142
-142
-142
-142
-141
-141
-141
-141
-142
-142
-142
-142
-141
-141
-141
-141
-140
-140
-140
-140
-140
-140
-140
-140
-140
-140
-140
-139
-139
-139
-139
-138
-138
-138
-138
-138
-138
-137
-137
-137
-137
-137
-136
-136
-136
-136
-136
-136
-135
-135
-135
-135
-136
-135
-135
-135
-135
-135
-135
-134
-133
-133
-133
-133
-133
-133
-133
-133
-133
-132
-133
-133
-133
-133
-133
-132
-132
-132
-132
-132
-132
-132
-132
-133
-133
-133
-133
-133
-133
-133
-134
-133
-133
-133
-133
-134
-134
-134
-134
-134
-134
-134
-134
-134
-134
-134
-134
-134
-135
-135
-134
-134
-134
-134
-135
-135
-135
-135
-135
-135
-135
-135
-135
-135
-135
-136
-136
-136
-136
-136
-136
-136
-136
-136
-136
-136
-136
-136
-136
-136
-136
-136
-136
-135
-135
-134
-133
-133
-133
-132
-132
-131
-131
-131
-130
-129
-129
-128
-128
-127
-127
-126
-126
-126
-125
-125
-124
-125
-125
-124
-124
-125
-124
-124
-124
-124
-124
-125
-124
-125
-124
-125
-124
-125
-124
-125
-124
-125
-125
-125
-125
-125
-125
-125
-125
-125
-126
-126
-125
-126
-125
-125
-125
-125
-126
-126
-125
-126
-126
-125
-126
-126
-125
-125
-126
-125
-126
-126
-126
-125
-125
-126
-126
-127
-127
-127
-128
-128
-129
-129
-130
-131
-132
-133
-134
-134
-135
-136
-136
-137
-139
-139
-140
-141
-141
-142
-142
-142
-143
-143
-144
-144
-145
-145
-145
-146
-146
-146
-147
-147
-147
-147
-147
-148
-149
-149
-149
-149
-149
-150
-150
-150
-150
-150
-150
-151
-151
-151
-151
-151
-151
-151
-151
-151
-151
-151
-151
-151
-151
-151
-151
-151
-152
-151
-151
-151
-151
-151
-151
-151
-151
-151
-151
-151
-152
-152
-152
-152
-152
-152
-152
-152
-151
-151
-150
-149
-148
-145
-144
-142
-140
-138
-134
-131
-126
-122
-117
-111
-106
-99
-93
-86
-78
-70
-62
-53
-44
-35
-26
-17
-8
1
8
15
21
25
27
28
27
25
20
12
2
-11
-26
-44
-65
-88
-114
-141
-171
-201
-234
-267
-300
-333
-365
-396
-426
-454
-480
-504
-525
-543
-559
-571
-581
-587
-590
-590
-588
-583
-576
-567
-556
-542
-528
-513
-497
-479
-462
-444
-426
-409
-391
-374
-358
-342
-327
-313
-301
-287
-276
-265
-255
-246
-237
-230
-223
-217
-212
-207
-202
-198
-196
-193
-190
-187
-185
-182
-180
-178
-176
-174
-173
-171
-169
-166
-165
-164
-162
-160
-159
-157
-156
-154
-154
-153
-151
-151
-150
-150
-150
-149
-148
-147
-147
-147
-147
-147
-147
-147
-147
-147
-147
-147
-147
-147
-147
-146
-147
-147
-147
-147
-147
-147
-147
-147
-146
-146
-146
-146
-146
-146
-145
-145
-145
-145
-145
-145
-145
-145
-145
-146
-146
-146
-145
-145
-145
-146
-146
-145
-145
-146
-146
-146
-145
-145
-145
-145
-145
-145
-145
-145
-146
-146
-145
-145
-145
-144
-144
-145
-144
-144
-144
-143
-143
-144
-143
-143
-143
-143
-143
-142
-142
-142
-142
-142
-142
-142
-142
-142
-142
-142
-142
-142
-141
-141
-141
-141
-141
-141
-140
-141
-141
-140
-140
-140
-140
-139
-139
-139
-139
-139
-139
-138
-138
-137
-137
-137
-136
-136
-137
-136
-136
-135
-135
-134
-135
-134
-134
-134
-133
-133
-133
-132
-132
-131
-131
-131
-130
-130
-130
-130
-130
-129
-128
-129
-129
-129
-128
-127
-128
-128
-127
-127
-127
-126
-126
-125
-125
-125
-125
-125
-125
-126
-125
-125
-125
-125
-125
-125
-125
-125
-125
-125
-125
-126
-126
-125
-126
-125
-126
-126
-127
-126
-126
-127
-126
-127
-127
-127
-128
-127
-127
-128
-128
-128
-128
-128
-129
-129
-128
-128
-129
-128
-128
-128
-128
-128
-128
-128
-128
-129
-128
-129
-128
-128
-128
-128
-128
-128
-128
-128
-128
-128
-128
-128
-129
-128
-129
-129
-129
-129
-129
-129
-130
-130
-130
-130
-131
-131
-132
-131
-131
-132
-132
-132
-132
-133
-133
-134
-135
-135
-135
-136
-136
-136
-137
-137
-138
-139
-139
-140
-140
-141
-141
-142
-143
-144
-144
-145
-145
-145
-146
-147
-147
-147
-149
-149
-149
-150
-150
-150
-151
-151
-151
-152
-153
-153
-153
-154
-154
-154
-155
-155
-155
-156
-156
-156
-156
-156
-156
-156
-157
-157
-157
-157
-157
-156
-157
-157
-157
-157
-157
-157
-158
-158
-158
-158
-158
-158
-158
-158
-158
-158
-157
-157
-157
-157
-157
-157
-156
-156
-156
-155
-155
-155
-155
-155
-155
-155
-155
-154
-154
-154
-154
-154
-154
-154
-154
-153
-153
-153
-152
-152
-152
-152
-152
-152
-152
-152
-152
-152
-152
-151
-150
-150
-150
-150
-150
-150
-150
-150
-150
-149
-149
-149
-149
-149
-148
-148
-148
-148
-147
-148
-148
-148
-147
-147
-147
-147
-147
-146
-146
-146
-147
-147
-147
-147
-146
-146
-146
-146
-146
-146
-146
-146
-146
-146
-146
-146
-147
-147
-147
-147
-147
-147
-146
-146
-147
-147
-147
-147
-146
-147
-147
-147
-147
-148
-148
-148
-148
-148
-148
-149
-149
-149
-149
-149
-149
-149
-149
-149
-150
-150
-150
-150
-151
-151
-151
-151
-151
-151
-151
-151
-151
-151
-152
-152
-152
-152
-152
-152
-152
-152
-152
-152
-152
-152
-152
-152
-152
-153
-153
-153
-153
-153
-153
-153
-153
-153
-154
-154
-154
-154
-154
-154
-154
-155
-155
-155
-155
-155
-155
-155
-154
-154
-154
-154
-154
-154
-154
-154
-154
-153
-153
-153
-152
-152
-152
-151
-150
-150
-149
-148
-148
-147
-146
-146
-145
-145
-144
-144
-144
-144
-144
-143
-143
-143
-142
-144
-143
-143
-143
-143
-144
-144
-145
-145
-145
-145
-145
-146
-146
-146
-145
-145
-146
-146
-145
-145
-145
-145
-144
-144
-144
-143
-143
-143
-143
-143
-142
-142
-142
-142
-142
-142
-141
-142
-142
-142
-142
-141
-142
-141
-142
-141
-142
-141
-142
-142
-142
-142
-143
-143
-144
-144
-144
-144
-146
-146
-146
-148
-148
-149
-150
-150
-152
-152
-153
-154
-155
-155
-156
-156
-157
-157
-158
-158
-158
-159
-159
-159
-160
-160
-160
-160
-161
-161
-161
-162
-162
-163
-163
-163
-163
-164
-164
-164
-164
-164
-165
-165
-165
-165
-165
-165
-165
-165
-166
-166
-166
-166
-166
-166
-166
-166
-166
-166
-166
-166
-166
-166
-166
-166
-166
-166
-166
-166
-166
-166
-166
-166
-166
-166
-166
-166
-166
-165
-166
-166
-166
-166
-165
-165
-165
-164
-163
-162
-162
-161
-159
-156
-154
-151
-148
-145
-142
-138
-132
-127
-122
-115
-110
-102
-95
-87
-79
-70
-62
-54
-45
-36
-27
-20
-11
-4
2
7
10
12
12
10
5
0
-9
-21
-35
-51
-71
-93
-117
-144
-172
-202
-233
-266
-298
-330
-362
-393
-423
-451
-477
-501
-524
-542
-558
-570
-581
-588
-591
-591
-590
-585
-579
-570
-559
-547
-533
-518
-502
-484
-467
-450
-432
-415
-398
-382
-365
-350
-335
-321
-308
-296
-283
-273
-262
-253
-245
-237
-231
-225
-219
-215
-210
-206
-203
-200
-197
-195
-193
-191
-189
-186
-184
-182
-180
-179
-177
-175
-174
-172
-170
-168
-168
-166
-164
-164
-162
-161
-160
-159
-159
-159
-157
-157
-157
-156
-156
-156
-156
-156
-155
-155
-155
-155
-155
-155
-155
-154
-154
-154
-154
-154
-154
-154
-154
-154
-154
-153
-153
-153
-153
-153
-153
-153
-153
-153
-153
-153
-152
-152
-152
-152
-152
-152
-152
-152
-152
-152
-152
-152
-152
-152
-152
-151
-151
-151
-151
-151
-151
-151
-151
-151
-151
-151
-151
-151
-151
-150
-150
-150
-150
-150
-150
-149
-149
-150
-150
-150
-149
-149
-149
-149
-149
-149
-149
-149
-149
-149
-149
-149
-148
-148
-148
-148
-147
-147
-147
-147
-147
-147
-147
-147
-146
-146
-146
-146
-145
-145
-146
-145
-145
-144
-144
-144
-144
-144
-143
-143
-142
-142
-142
-142
-142
-141
-141
-141
-141
-140
-140
-140
-140
-139
-139
-139
-139
-139
-138
-138
-137
-138
-137
-137
-137
-137
-136
-136
-136
-135
-136
-136
-134
-135
-135
-135
-135
-135
-133
-133
-133
-133
-133
-134
-134
-133
-133
-133
-133
-133
-133
-133
-133
-134
-133
-133
-134
-134
-133
-133
-134
-134
-134
-134
-134
-134
-134
-135
-134
-134
-135
-135
-135
-135
-135
-135
-136
-136
-136
-136
-136
-137
-137
-137
-138
-137
-137
-137
-138
-137
-137
-138
-137
-137
-137
-137
-138
-137
-136
-137
-136
-137
-136
-137
-136
-137
-136
-137
-136
-137
-136
-136
-136
-136
-137
-136
-136
-136
-136
-136
-136
-136
-137
-137
-136
-137
-137
-137
-138
-138
-138
-139
-139
-139
-140
-140
-140
-140
-141
-141
-142
-142
-143
-143
-143
-144
-145
-145
-145
-146
-147
-147
-148
-148
-149
-149
-149
-151
-151
-151
-151
-152
-152
-153
-153
-154
-154
-154
-155
-155
-155
-155
-156
-157
-157
-157
-157
-158
-158
-158
-158
-159
-159
-159
-159
-159
-159
-159
-159
-160
-160
-160
-160
-160
-160
-160
-160
-160
-161
-161
-160
-160
-160
-160
-160
-160
-160
-160
-160
-160
-160
-160
-159
-159
-159
-159
-159
-159
-159
-159
-159
-158
-158
-158
-158
-158
-158
-158
-158
-158
-158
-157
-157
-157
-157
-157
-157
-157
-157
-157
-156
-156
-156
-156
-156
-156
-155
-155
-155
-155
-154
-154
-154
-154
-153
-153
-153
-153
-152
-153
-153
-153
-153
-153
-152
-152
-152
-152
-152
-151
-150
-151
-151
-151
-151
-151
-150
-150
-150
-150
-150
-150
-150
-150
-150
-150
-150
-150
-150
-150
-150
-150
-150
-150
-150
-150
-151
-151
-151
-151
-151
-151
-151
-151
-151
-151
-151
-151
-151
-151
-151
-151
-152
-151
-151
-151
-151
-152
-152
-152
-152
-152
-152
-152
-152
-152
-152
-153
-153
-153
-154
-154
-154
-154
-154
-154
-154
-154
-154
-155
-155
-155
-155
-155
-155
-155
-155
-155
-155
-155
-156
-156
-156
-156
-156
-157
-157
-157
-157
-157
-157
-157
-157
-157
-157
-157
-157
-157
-157
-157
-158
-158
-158
-158
-158
-158
-158
-158
-158
-158
-158
-158
-159
-160
-160
-160
-160
-160
-160
-160
-160
-159
-159
-159
-159
-159
-159
-159
-159
-159
-159
-159
-159
-159
-159
-159
-159
-159
-159
-158
-158
-158
-158
-157
-157
-157
-156
-156
-155
-154
-154
-153
-153
-153
-152
-152
-151
-150
-150
-149
-148
-148
-148
-147
-147
-148
-148
-148
-147
-147
-147
-147
-147
-146
-146
-146
-146
-146
-146
-147
-146
-146
-146
-146
-146
-145
-145
-145
-145
-144
-144
-144
-144
-143
-143
-143
-143
-143
-143
-143
-143
-144
-143
-143
-143
-143
-143
-143
-143
-143
-143
-143
-143
-143
-143
-143
-143
-144
-144
-143
-144
-144
-145
-146
-146
-147
-147
-148
-149
-149
-151
-151
-152
-153
-154
-154
-154
-156
-156
-156
-156
-158
-158
-158
-159
-159
-159
-159
-159
-160
-160
-160
-160
-161
-161
-161
-162
-162
-163
-163
-163
-163
-163
-163
-164
-164
-164
-164
-164
-164
-164
-164
-164
-165
-166
-166
-166
-166
-165
-165
-165
-165
-165
-165
-165
-165
-165
-166
-166
-166
-166
-166
-166
-166
-166
-165
-165
-165
-165
-166
-166
-166
-165
-165
-165
-165
-166
-166
-166
-165
-165
-165
-164
-163
-162
-161
-160
-159
-157
-155
-153
-151
-148
-145
-142
-139
-135
-129
-124
-118
-112
-105
-98
-91
-83
-75
-66
-59
-50
-41
-33
-24
-16
-9
-3
2
6
8
9
7
5
-2
-9
-19
-33
-48
-65
-87
-109
-134
-162
-190
-220
-251
-283
-314
-345
-375
-405
-432
-458
-483
-504
-524
-540
-554
-565
-572
-577
-578
-577
-574
-568
-560
-551
-540
-527
-512
-497
-482
-465
-448
-431
-414
-398
-382
-366
-350
-336
-321
-308
-296
-285
-273
-263
-254
-245
-237
-230
-224
-219
-214
-210
-206
-202
-200
-197
-195
-192
-189
-187
-185
-183
-181
-179
-177
-175
-173
-171
-170
-168
-166
-165
-164
-163
-161
-161
-159
-159
-158
-157
-156
-156
-156
-154
-154
-154
-154
-154
-153
-152
-152
-152
-152
-151
-151
-151
-151
-151
-151
-151
-151
-151
-150
-150
-150
-150
-150
-149
-149
-149
-149
-149
-149
-149
-149
-149
-149
-149
-149
-149
-148
-148
-148
-148
-148
-148
-147
-147
-147
-147
-147
-146
-146
-146
-146
-146
-146
-146
-146
-146
-146
-145
-145
-145
-145
-145
-145
-144
-144
-145
-144
-144
-144
-143
-144
-144
-144
-143
-143
-143
-143
-142
-142
-142
-142
-142
-141
-141
-141
-141
-141
-141
-141
-141
-141
-141
-141
-140
-140
-140
-139
-139
-140
-140
-139
-139
-139
-139
-138
-138
-137
-137
-136
-137
-136
-136
-135
-136
-135
-134
-134
-133
-134
-133
-133
-133
-132
-132
-131
-131
-131
-131
-131
-131
-130
-130
-130
-129
-129
-129
-129
-128
-128
-128
-127
-127
-127
-127
-126
-126
-126
-126
-126
-126
-126
-126
-125
-125
-125
-125
-125
-125
-125
-125
-124
-124
-125
-125
-125
-125
-125
-125
-125
-125
-125
-125
-125
-125
-126
-126
-126
-126
-126
-126
-126
-127
-127
-127
-127
-127
-127
-127
-128
-127
-127
-128
-127
-127
-128
-128
-128
-128
-128
-128
-128
-129
-129
-128
-129
-128
-129
-128
-128
-129
-128
-128
-128
-128
-128
-128
-128
-127
-127
-127
-127
-126
-126
-126
-126
-126
-125
-125
-126
-125
-125
-125
-124
-125
-125
-125
-125
-125
-124
-125
-125
-125
-125
-126
-126
-126
-126
-126
-127
-127
-127
-127
-128
-128
-129
-129
-130
-130
-130
-132
-132
-132
-132
-133
-133
-133
-134
-135
-135
-135
-135
-136
-137
-137
-137
-137
-138
-138
-139
-139
-140
-140
-140
-140
-140
-140
-140
-141
-141
-141
-141
-141
-141
-143
-143
-143
-143
-143
-143
-143
-143
-143
-143
-143
-143
-144
-144
-144
-143
-143
-143
-143
-143
-143
-143
-142
-142
-142
-143
-142
-142
-142
-142
-142
-141
-141
-141
-141
-141
-141
-141
-141
-141
-141
-140
-140
-140
-140
-140
-140
-140
-139
-139
-139
-138
-138
-138
-138
-138
-138
-138
-138
-138
-137
-137
-137
-136
-136
-136
-136
-135
-135
-135
-135
-134
-134
-134
-134
-133
-133
-133
-132
-133
-133
-133
-133
-132
-132
-132
-132
-132
-131
-131
-131
-131
-131
-131
-131
-130
-130
-130
-130
-130
-130
-130
-130
-130
-129
-129
-129
-129
-129
-129
-129
-129
-129
-129
-129
-129
-129
-129
-129
-129
-129
-130
-130
-130
-130
-130
-131
-130
-130
-130
-131
-131
-131
-131
-131
-131
-131
-131
-131
-132
-132
-132
-132
-132
-132
-132
-132
-132
-132
-132
-132
-132
-132
-132
-133
-133
-133
-133
-133
-134
-134
-134
-134
-134
-134
-135
-135
-135
-135
-135
-135
-135
-134
-134
-134
-134
-134
-134
-133
-133
-132
-132
-131
-131
-130
-129
-129
-128
-127
-126
-126
-125
-125
-125
-124
-124
-124
-124
-123
-123
-123
-123
-123
-122
-123
-124
-123
-124
-124
-124
-124
-124
-124
-125
-125
-124
-125
-125
-125
-125
-124
-124
-125
-124
-124
-123
-123
-123
-123
-123
-123
-123
-123
-122
-123
-123
-122
-123
-123
-123
-123
-123
-123
-123
-124
-124
-123
-124
-124
-125
-125
-124
-125
-125
-125
-125
-126
-126
-127
-127
-128
-128
-129
-129
-130
-130
-131
-132
-132
-133
-133
-134
-134
-134
-135
-135
-136
-136
-137
-137
-137
-138
-138
-138
-139
-139
-139
-139
-140
-141
-141
-141
-142
-142
-142
-142
-143
-143
-143
-143
-143
-143
-143
-144
-144
-144
-144
-144
-144
-144
-144
-144
-144
-143
-143
-143
-143
-143
-143
-143
-143
-144
-144
-144
-144
-144
-144
-144
-144
-143
-143
-143
-143
-143
-143
-143
-143
-143
-143
-143
-143
-143
-143
-143
-143
-143
-143
-142
-142
-141
-139
-138
-136
-134
-132
-130
-127
-124
-120
-116
-112
-107
-102
-96
-90
-83
-76
-69
-61
-53
-44
-37
-28
-19
-10
-3
4
11
17
21
24
26
26
25
22
16
9
-2
-13
-29
-46
-66
-87
-111
-137
-163
-192
-220
-250
-280
-308
-337
-364
-390
-414
-436
-457
-475
-490
-503
-514
-520
-526
-528
-527
-524
-520
-513
-504
-495
-483
-470
-457
-443
-428
-413
-398
-383
-367
-353
-338
-325
-311
-298
-285
-273
-263
-252
-243
-234
-227
-219
-212
-206
-201
-197
-192
-189
-185
-182
-179
-176
-175
-173
-171
-169
-167
-165
-163
-161
-159
-157
-155
-154
-152
-150
-149
-147
-146
-145
-143
-142
-141
-140
-140
-138
-138
-137
-137
-136
-136
-135
-135
-135
-135
-134
-134
-134
-133
-133
-133
-132
-132
-132
-132
-132
-132
-131
-131
-132
-132
-132
-132
-131
-131
-131
-131
-131
-131
-131
-131
-131
-131
-130
-130
-130
-130
-130
-130
-130
-130
-131
-131
-131
-131
-131
-131
-131
-130
-131
-131
-131
-131
-131
-130
-130
-130
-130
-130
-130
-129
-129
-129
-129
-130
-130
-130
-130
-130
-129
-129
-129
-130
-129
-129
-129
-129
-129
-129
-128
-128
-128
-128
-128
-128
-129
-129
-129
-129
-128
-128
-128
-128
-128
-128
-129
-128
-128
-128
-128
-128
-128
-128
-128
-128
-128
-128
-128
-128
-127
-127
-127
-127
-127
-127
-127
-126
-126
-127
-126
-126
-126
-125
-125
-126
-125
-125
-124
-124
-124
-124
-124
-123
-124
-124
-123
-123
-123
-123
-122
-122
-123
-123
-123
-123
-122
-122
-122
-122
-122
-122
-122
-121
-121
-121
-121
-121
-121
-121
-120
-120
-120
-120
-120
-120
-120
-120
-120
-120
-121
-120
-120
-121
-121
-120
-120
-121
-121
-121
-121
-120
-120
-120
-120
-120
-121
-121
-120
-120
-120
-120
-119
-120
-120
-119
-120
-119
-120
-119
-120
-119
-119
-119
-119
-119
-118
-119
-118
-118
-118
-118
-117
-118
-118
-117
-116
-117
-116
-115
-115
-115
-115
-114
-115
-114
-113
-114
-113
-113
-113
-113
-113
-113
-113
-113
-113
-113
-113
-113
-114
-114
-113
-114
-114
-114
-114
-115
-115
-115
-116
-117
-117
-117
-117
-118
-119
-119
-119
-119
-120
-120
-121
-122
-122
-122
-123
-124
-124
-125
-125
-125
-126
-126
-126
-127
-127
-127
-128
-128
-129
-130
-130
-130
-130
-131
-131
-131
-131
-131
-131
-132
-132
-133
-133
-133
-133
-133
-133
-133
-133
-133
-133
-133
-133
-133
-133
-133
-133
-132
-133
-133
-133
-132
-132
-132
-132
-132
-131
-131
-131
-131
-131
-131
-131
-131
-131
-131
-131
-131
-131
-130
-130
-130
-130
-130
-130
-130
-129
-129
-129
-129
-129
-129
-129
-129
-128
-128
-128
-128
-128
-127
-127
-127
-127
-126
-126
-126
-126
-126
-126
-125
-126
-126
-125
-125
-125
-124
-124
-125
-124
-124
-124
-124
-124
-124
-124
-123
-122
-122
-123
-123
-123
-123
-123
-123
-123
-123
-122
-122
-122
-122
-122
-122
-121
-121
-122
-121
-121
-121
-120
-121
-121
-120
-120
-121
-121
-121
-121
-120
-120
-120
-120
-121
-121
-121
-121
-120
-120
-121
-121
-121
-120
-120
-121
-121
-121
-121
-121
-121
-121
-121
-122
-122
-122
-122
-122
-122
-122
-122
-122
-123
-123
-123
-123
-122
-122
-122
-123
-123
-123
-123
-123
-123
-123
-123
-123
-124
-123
-123
-123
-123
-123
-123
-122
-122
-122
-121
-121
-120
-120
-119
-118
-118
-117
-116
-116
-116
-115
-114
-114
-114
-114
-113
-113
-113
-113
-113
-113
-113
-113
-113
-113
-113
-113
-114
-114
-113
-114
-114
-114
-114
-114
-114
-114
-114
-114
-114
-115
-115
-114
-115
-115
-114
-115
-115
-115
-115
-115
-115
-115
-116
-116
-115
-115
-116
-115
-115
-115
-115
-115
-115
-115
-115
-115
-115
-115
-115
-115
-115
-116
-116
-116
-117
-117
-117
-118
-119
-119
-120
-121
-122
-123
-123
-124
-124
-125
-126
-127
-128
-128
-129
-129
-130
-130
-131
-131
-132
-132
-132
-132
-133
-133
-134
-134
-133
-134
-134
-134
-135
-135
-135
-135
-136
-136
-136
-135
-136
-136
-136
-137
-137
-137
-137
-137
-137
-137
-137
-137
-137
-137
-137
-137
-138
-138
-138
-138
-138
-138
-138
-138
-139
-139
-138
-138
-138
-138
-139
-139
-139
-138
-138
-139
-139
-139
-139
-138
-138
-138
-139
-139
-138
-137
-136
-136
-135
-134
-132
-130
-128
-125
-122
-119
-116
-112
-107
-103
-98
-92
-85
-78
-72
-65
-57
-48
-42
-33
-24
-15
-7
2
11
18
24
29
33
36
37
37
35
29
23
13
1
-14
-31
-51
-73
-97
-123
-151
-182
-212
-243
-275
-306
-337
-367
-395
-422
-446
-470
-491
-508
-524
-535
-544
-551
-554
-555
-552
-548
-541
-533
-522
-510
-497
-481
-466
-450
-433
-416
-400
-383
-367
-350
-336
-320
-306
-292
-280
-268
-256
-246
-236
-228
-220
-213
-207
-202
-196
-192
-188
-184
-181
-179
-176
-173
-171
-169
-166
-164
-162
-160
-159
-156
-154
-153
-152
-149
-148
-146
-144
-143
-141
-140
-138
-138
-136
-136
-135
-134
-133
-133
-133
-132
-132
-132
-132
-131
-131
-131
-131
-131
-131
-131
-131
-130
-130
-130
-130
-130
-130
-130
-130
-130
-129
-129
-129
-129
-129
-129
-129
-128
-128
-128
-128
-128
-128
-128
-129
-128
-128
-128
-128
-128
-128
-127
-127
-127
-127
-127
-127
-128
-127
-127
-127
-127
-127
-127
-127
-127
-127
-127
-127
-127
-127
-126
-126
-126
-126
-127
-127
-127
-127
-127
-126
-126
-127
-127
-127
-127
-127
-127
-127
-126
-126
-126
-125
-126
-126
-125
-125
-125
-125
-125
-124
-124
-124
-124
-124
-124
-124
-124
-123
-123
-123
-123
-123
-123
-123
-123
-123
-123
-123
-122
-122
-122
-122
-121
-121
-121
-121
-121
-121
-120
-120
-120
-120
-119
-119
-119
-119
-118
-118
-117
-118
-117
-117
-116
-116
-116
-115
-115
-115
-114
-114
-114
-114
-114
-113
-113
-113
-113
-113
-113
-113
-112
-112
-112
-112
-112
-112
-112
-113
-112
-112
-112
-112
-112
-113
-112
-112
-112
-112
-113
-113
-112
-112
-113
-113
-114
-113
-113
-114
-114
-113
-114
-114
-114
-115
-114
-114
-115
-114
-115
-114
-115
-114
-115
-114
-115
-114
-115
-114
-115
-114
-115
-114
-114
-114
-114
-114
-114
-114
-114
-115
-114
-114
-114
-114
-113
-114
-113
-113
-113
-113
-113
-113
-113
-113
-113
-112
-113
-112
-113
-113
-113
-113
-113
-114
-114
-114
-115
-114
-115
-115
-116
-117
-117
-117
-117
-117
-119
-119
-119
-120
-120
-121
-121
-122
-122
-123
-123
-124
-124
-124
-125
-125
-126
-126
-127
-127
-127
-128
-128
-129
-129
-130
-131
-131
-131
-132
-132
-132
-133
-133
-133
-133
-133
-133
-135
-135
-135
-135
-135
-135
-135
-136
-136
-136
-136
-136
-136
-136
-136
-137
-137
-137
-137
-136
-136
-136
-136
-136
-136
-136
-136
-136
-136
-136
-136
-135
-135
-135
-135
-135
-135
-135
-135
-135
-135
-135
-135
-134
-134
-134
-134
-134
-134
-133
-133
-133
-133
-133
-133
-133
-133
-133
-133
-133
-132
-132
-132
-132
-132
-131
-131
-131
-131
-131
-131
-131
-131
-131
-130
-130
-130
-129
-129
-129
-129
-129
-129
-128
-129
-129
-129
-129
-129
-128
-128
-128
-128
-128
-128
-128
-127
-127
-127
-128
-128
-128
-128
-128
-128
-127
-127
-127
-127
-127
-127
-128
-128
-128
-128
-128
-128
-128
-128
-128
-128
-128
-128
-129
-128
-128
-128
-128
-128
-128
-128
-128
-129
-129
-129
-129
-129
-128
-128
-128
-128
-128
-129
-129
-129
-129
-129
-129
-129
-129
-129
-129
-129
-130
-130
-130
-130
-130
-130
-130
-130
-130
-130
-131
-131
-131
-131
-131
-131
-131
-131
-132
-132
-132
-132
-132
-132
-132
-132
-132
-132
-132
-132
-132
-132
-131
-131
-131
-130
-130
-129
-129
-128
-127
-127
-126
-125
-125
-124
-123
-123
-123
-122
-123
-122
-122
-123
-122
-122
-123
-122
-122
-123
-123
-123
-124
-125
-125
-125
-126
-125
-125
-126
-126
-126
-125
-126
-126
-126
-125
-126
-125
-125
-124
-124
-125
-124
-124
-125
-125
-125
-124
-124
-124
-124
-125
-125
-124
-125
-125
-125
-125
-125
-125
-125
-125
-125
-126
-126
-126
-126
-126
-126
-127
-127
-127
-127
-128
-129
-129
-129
-131
-131
-131
-133
-134
-135
-135
-136
-137
-137
-139
-139
-139
-141
-141
-142
-142
-142
-143
-144
-144
-145
-144
-145
-146
-146
-146
-147
-147
-148
-148
-148
-148
-148
-149
-149
-150
-150
-150
-150
-150
-151
-151
-151
-151
-151
-151
-152
-152
-152
-152
-152
-152
-152
-153
-153
-153
-153
-153
-152
-152
-152
-153
-153
-153
-153
-152
-152
-152
-152
-152
-152
-151
-151
-151
-151
-152
-152
-152
-152
-152
-152
-151
-151
-151
-150
-149
-148
-147
-145
-143
-141
-138
-135
-132
-129
-125
-120
-115
-110
-103
-96
-90
-82
-74
-66
-58
-49
-41
-32
-23
-14
-6
2
10
16
20
24
25
25
24
20
14
5
-6
-20
-37
-56
-78
-102
-128
-157
-186
-217
-249
-281
-313
-345
-376
-406
-435
-461
-485
-507
-527
-543
-556
-566
-573
-579
-579
-578
-575
-569
-560
-550
-538
-525
-510
-495
-479
-461
-444
-426
-409
-392
-376
-360
-344
-329
-315
-301
-289
-277
-266
-256
-247
-238
-230
-223
-217
-211
-206
-202
-198
-194
-191
-188
-186
-183
-181
-179
-177
-175
-172
-170
-169
-167
-165
-163
-161
-160
-158
-157
-156
-154
-154
-153
-151
-151
-150
-149
-149
-148
-147
-147
-147
-146
-146
-146
-146
-145
-145
-145
-145
-145
-145
-145
-145
-145
-144
-144
-144
-144
-144
-144
-144
-144
-144
-144
-144
-144
-144
-144
-144
-144
-144
-144
-144
-144
-144
-144
-144
-143
-143
-143
-144
-144
-144
-144
-143
-143
-143
-143
-143
-143
-143
-142
-143
-143
-143
-143
-143
-143
-143
-142
-142
-142
-142
-142
-142
-142
-142
-141
-141
-141
-141
-141
-140
-141
-141
-141
-141
-140
-140
-140
-140
-139
-139
-139
-139
-138
-138
-138
-138
-138
-138
-138
-138
-137
-138
-138
-138
-138
-138
-137
-137
-136
-136
-136
-136
-136
-135
-135
-135
-135
-134
-134
-134
-134
-133
-133
-133
-133
-133
-132
-132
-131
-131
-132
-131
-131
-130
-130
-129
-129
-129
-128
-128
-128
-127
-127
-127
-127
-127
-127
-125
-125
-125
-126
-125
-125
-125
-125
-123
-123
-123
-123
-123
-123
-123
-123
-123
-123
-122
-122
-122
-122
-123
-123
-122
-122
-122
-122
-122
-122
-122
-122
-122
-122
-123
-122
-123
-122
-123
-123
-123
-123
-124
-123
-124
-124
-124
-125
-125
-125
-125
-126
-125
-125
-126
-126
-126
-127
-127
-126
-126
-127
-126
-126
-126
-126
-125
-126
-126
-126
-126
-126
-126
-126
-125
-126
-125
-126
-125
-126
-126
-125
-126
-125
-126
-125
-126
-126
-125
-126
-126
-125
-126
-126
-126
-127
-127
-127
-127
-127
-127
-129
-128
-128
-129
-130
-130
-131
-131
-131
-132
-132
-133
-133
-134
-134
-135
-136
-136
-137
-137
-137
-138
-139
-139
-140
-140
-140
-142
-142
-142
-143
-143
-143
-143
-145
-145
-145
-145
-145
-147
-147
-147
-147
-148
-148
-148
-149
-149
-149
-150
-150
-150
-150
-150
-150
-151
-151
-151
-151
-151
-152
-152
-152
-152
-152
-152
-152
-152
-153
-153
-153
-153
-152
-152
-152
-153
-153
-153
-153
-153
-153
-153
-153
-153
-153
-153
-153
-153
-152
-152
-152
-152
-152
-152
-151
-151
-151
-151
-151
-151
-150
-150
-150
-150
-150
-149
-149
-150
-150
-150
-150
-149
-149
-149
-149
-148
-148
-148
-148
-147
-146
-146
-146
-146
-146
-146
-145
-145
-145
-145
-145
-145
-145
-145
-145
-145
-145
-144
-144
-144
-144
-144
-144
-143
-143
-143
-144
-144
-143
-143
-144
-144
-144
-143
-143
-143
-143
-143
-143
-143
-143
-143
-142
-143
-144
-144
-144
-144
-144
-144
-143
-143
-143
-143
-143
-143
-144
-144
-144
-144
-144
-144
-144
-145
-145
-145
-145
-145
-145
-145
-146
-146
-146
-146
-146
-146
-146
-146
-146
-147
-146
-146
-147
-147
-147
-147
-147
-147
-147
-147
-148
-148
-148
-148
-148
-148
-148
-148
-148
-148
-149
-149
-149
-149
-149
-149
-149
-150
-150
-150
-150
-150
-150
-150
-151
-150
-150
-150
-150
-151
-151
-151
-151
-151
-151
-151
-151
-151
-151
-151
-152
-152
-152
-152
-152
-152
-152
-152
-152
-152
-152
-151
-151
-151
-151
-151
-151
-151
-150
-150
-150
-150
-149
-149
-148
-148
-147
-147
-146
-146
-145
-144
-144
-143
-143
-142
-141
-141
-141
-140
-140
-139
-139
-139
-139
-138
-138
-138
-139
-139
-139
-139
-139
-138
-139
-139
-139
-139
-139
-139
-139
-139
-139
-139
-139
-139
-139
-139
-139
-138
-138
-139
-137
-137
-137
-137
-137
-136
-136
-135
-136
-135
-134
-134
-134
-133
-133
-133
-132
-132
-131
-131
-131
-131
-131
-132
-132
-132
-132
-133
-135
-135
-136
-137
-138
-139
-139
-141
-141
-143
-143
-145
-145
-147
-147
-148
-149
-149
-150
-151
-151
-151
-151
-151
-152
-153
-153
-153
-153
-153
-153
-153
-154
-154
-154
-154
-155
-155
-155
-155
-156
-156
-157
-157
-157
-157
-158
-157
-157
-157
-157
-158
-158
-158
-158
-158
-158
-158
-158
-158
-158
-158
-158
-158
-158
-157
-157
-157
-157
-157
-157
-157
-157
-157
-157
-157
-158
-158
-158
-158
-158
-158
-158
-158
-158
-158
-158
-158
-158
-157
-157
-156
-155
-154
-152
-151
-149
-146
-143
-141
-138
-134
-131
-126
-121
-116
-109
-103
-96
-89
-81
-74
-65
-57
-48
-40
-31
-22
-13
-6
1
7
12
15
16
17
16
11
5
-3
-14
-28
-44
-63
-84
-108
-134
-161
-191
-221
-252
-284
-315
-347
-376
-406
-433
-459
-482
-504
-522
-539
-551
-561
-568
-572
-573
-571
-567
-561
-554
-542
-531
-518
-504
-488
-472
-456
-439
-422
-405
-388
-372
-356
-341
-327
-313
-300
-288
-276
-265
-255
-245
-237
-230
-224
-218
-211
-207
-202
-198
-196
-193
-190
-186
-184
-182
-180
-178
-175
-173
-171
-170
-168
-167
-165
-163
-162
-160
-159
-158
-156
-155
-154
-154
-152
-152
-151
-151
-150
-149
-149
-148
-148
-148
-147
-147
-147
-147
-147
-146
-146
-146
-146
-146
-146
-146
-146
-146
-146
-146
-146
-146
-146
-146
-146
-146
-145
-145
-145
-145
-145
-145
-145
-145
-145
-145
-145
-145
-145
-145
-145
-145
-144
-145
-145
-145
-145
-145
-144
-144
-144
-144
-144
-143
-143
-143
-144
-144
-143
-143
-143
-143
-143
-143
-142
-142
-143
-143
-143
-143
-143
-143
-142
-142
-142
-142
-141
-141
-141
-141
-141
-140
-140
-140
-140
-141
-140
-140
-140
-139
-139
-139
-139
-139
-139
-138
-138
-138
-138
-138
-137
-137
-137
-138
-137
-137
-136
-136
-136
-135
-135
-135
-134
-134
-133
-133
-133
-132
-132
-132
-132
-132
-132
-131
-131
-131
-131
-131
-130
-130
-130
-130
-129
-128
-129
-129
-128
-128
-128
-127
-127
-127
-126
-126
-126
-125
-125
-125
-125
-125
-125
-125
-125
-125
-125
-124
-124
-124
-124
-124
-125
-124
-124
-124
-124
-125
-124
-124
-125
-125
-124
-125
-125
-125
-125
-125
-125
-125
-126
-125
-125
-126
-126
-126
-126
-126
-126
-127
-127
-128
-127
-127
-128
-128
-129
-128
-128
-129
-128
-129
-128
-129
-128
-129
-129
-129
-129
-129
-129
-128
-129
-128
-128
-128
-128
-127
-128
-128
-127
-127
-126
-127
-127
-126
-126
-127
-127
-127
-127
-127
-127
-126
-127
-127
-127
-127
-127
-127
-128
-128
-128
-129
-128
-128
-128
-130
-129
-129
-130
-131
-131
-132
-132
-132
-132
-133
-134
-134
-134
-135
-135
-136
-136
-136
-137
-138
-138
-138
-139
-139
-139
-139
-140
-141
-141
-142
-142
-142
-143
-143
-143
-144
-144
-144
-144
-145
-146
-146
-146
-146
-146
-146
-146
-147
-148
-147
-147
-148
-148
-148
-149
-149
-150
-150
-150
-149
-150
-150
-150
-150
-150
-150
-150
-150
-150
-150
-150
-150
-151
-151
-150
-150
-150
-150
-150
-150
-149
-149
-149
-149
-149
-149
-149
-149
-149
-149
-149
-149
-149
-148
-148
-148
-147
-147
-147
-146
-146
-146
-146
-146
-146
-146
-146
-146
-146
-146
-145
-145
-145
-145
-145
-144
-144
-144
-144
-144
-143
-143
-143
-142
-142
-142
-141
-141
-141
-141
-141
-141
-141
-141
-141
-141
-140
-140
-140
-141
-141
-140
-140
-140
-140
-140
-140
-140
-140
-140
-140
-140
-140
-140
-140
-140
-140
-140
-140
-140
-140
-141
-141
-141
-141
-141
-141
-141
-141
-141
-141
-141
-141
-141
-142
-141
-141
-141
-141
-142
-142
-142
-142
-142
-142
-142
-142
-142
-142
-142
-142
-142
-142
-142
-143
-143
-143
-143
-143
-142
-143
-144
-144
-144
-144
-144
-144
-144
-144
-144
-144
-144
-144
-144
-144
-144
-145
-145
-145
-145
-145
-145
-145
-145
-145
-145
-145
-145
-146
-146
-146
-146
-146
-146
-146
-146
-146
-145
-145
-145
-146
-146
-146
-145
-145
-145
-144
-144
-143
-143
-142
-142
-141
-141
-140
-140
-139
-139
-138
-137
-137
-136
-136
-136
-135
-135
-136
-135
-135
-135
-135
-135
-135
-134
-134
-134
-135
-135
-134
-134
-134
-133
-133
-133
-132
-132
-131
-131
-130
-130
-129
-129
-129
-128
-128
-128
-128
-127
-126
-126
-127
-127
-126
-126
-126
-126
-126
-126
-126
-126
-126
-125
-126
-126
-126
-126
-127
-126
-127
-128
-128
-129
-130
-130
-131
-131
-133
-133
-134
-135
-136
-137
-138
-139
-140
-141
-141
-143
-143
-144
-145
-145
-146
-146
-147
-147
-148
-148
-149
-149
-149
-150
-150
-150
-151
-151
-151
-152
-152
-152
-153
-153
-153
-153
-154
-154
-154
-154
-155
-155
-155
-154
-155
-155
-155
-155
-155
-155
-155
-155
-155
-155
-155
-155
-155
-155
-155
-155
-155
-155
-155
-155
-155
-155
-155
-155
-155
-155
-155
-155
-156
-156
-156
-156
-156
-155
-155
-155
-155
-155
-155
-155
-154
-154
-153
-153
-152
-151
-149
-148
-146
-144
-142
-140
-137
-134
-131
-126
-122
-117
-112
-106
-100
-93
-86
-78
-71
-62
-55
-46
-38
-30
-22
-14
-5
1
6
11
14
16
16
14
10
5
-4
-13
-27
-42
-60
-80
-102
-127
-154
-181
-211
-240
-271
-301
-331
-359
-387
-414
-438
-461
-481
-499
-515
-527
-536
-543
-547
-549
-548
-545
-539
-532
-523
-511
-499
-486
-472
-456
-441
-424
-410
-393
-378
-363
-348
-334
-320
-306
-294
-282
-271
-261
-251
-242
-235
-227
-220
-214
-209
-203
-200
-196
-193
-190
-187
-184
-182
-180
-178
-176
-173
-171
-169
-167
-166
-164
-162
-160
-159
-157
-155
-155
-153
-152
-151
-150
-149
-148
-148
-147
-146
-146
-145
-145
-145
-145
-145
-145
-144
-144
-144
-144
-143
-143
-143
-143
-143
-143
-143
-143
-143
-143
-143
-142
-142
-142
-141
-141
-142
-142
-142
-142
-141
-141
-141
-141
-140
-140
-140
-140
-139
-139
-139
-139
-139
-138
-138
-138
-138
-139
-138
-138
-138
-138
-138
-138
-138
-138
-138
-137
-137
-137
-137
-137
-137
-137
-137
-137
-137
-137
-137
-137
-137
-137
-137
-137
-137
-137
-136
-136
-136
-136
-136
-135
-135
-135
-134
-134
-135
-134
-134
-134
-133
-133
-133
-134
-133
-133
-133
-133
-133
-132
-132
-132
-132
-132
-131
-131
-131
-132
-131
-131
-131
-130
-129
-129
-129
-130
-129
-129
-129
-129
-128
-128
-128
-128
-128
-127
-127
-127
-127
-127
-126
-126
-126
-126
-125
-125
-125
-125
-125
-125
-125
-125
-125
-124
-124
-124
-123
-123
-123
-123
-123
-123
-123
-123
-123
-122
-122
-121
-122
-122
-122
-121
-121
-121
-121
-121
-122
-122
-122
-122
-122
-122
-122
-122
-121
-122
-122
-122
-122
-122
-122
-123
-122
-123
-123
-123
-124
-123
-124
-123
-124
-124
-124
-124
-124
-124
-125
-124
-124
-125
-124
-124
-124
-124
-124
-123
-124
-123
-123
-124
-123
-123
-122
-123
-122
-122
-121
-121
-121
-121
-120
-120
-120
-119
-119
-120
-119
-119
-119
-118
-118
-118
-118
-118
-117
-118
-118
-118
-118
-118
-119
-118
-118
-118
-119
-119
-119
-120
-120
-120
-120
-122
-122
-122
-122
-122
-122
-123
-123
-124
-124
-124
-124
-125
-126
-126
-127
-127
-128
-128
-128
-128
-128
-130
-130
-130
-130
-131
-131
-131
-131
-132
-133
-133
-134
-134
-134
-134
-135
-135
-135
-135
-136
-136
-136
-136
-136
-136
-136
-136
-137
-136
-136
-136
-136
-136
-136
-136
-136
-136
-136
-136
-136
-136
-136
-136
-135
-136
-136
-136
-136
-135
-136
-136
-136
-136
-136
-136
-136
-136
-136
-136
-135
-135
-134
-134
-134
-134
-134
-133
-134
-134
-134
-133
-133
-133
-133
-132
-132
-132
-132
-131
-131
-131
-131
-130
-130
-130
-130
-130
-130
-130
-129
-129
-128
-128
-128
-127
-127
-127
-127
-127
-127
-127
-127
-127
-127
-127
-127
-126
-126
-126
-126
-126
-126
-126
-126
-126
-126
-126
-126
-125
-125
-125
-125
-125
-126
-125
-125
-125
-124
-125
-125
-124
-124
-124
-125
-124
-124
-124
-124
-124
-124
-124
-124
-124
-124
-124
-124
-124
-124
-124
-124
-124
-124
-124
-124
-124
-125
-125
-125
-125
-125
-125
-125
-125
-126
-126
-126
-126
-126
-127
-126
-126
-127
-127
-127
-128
-127
-127
-128
-128
-128
-128
-129
-129
-129
-129
-129
-129
-129
-129
-129
-128
-128
-128
-128
-128
-128
-128
-128
-128
-127
-127
-127
-127
-127
-126
-126
-125
-124
-124
-123
-123
-122
-122
-120
-120
-119
-119
-118
-118
-117
-117
-116
-116
-116
-115
-115
-115
-115
-115
-116
-116
-115
-115
-115
-115
-114
-114
-115
-114
-114
-113
-113
-113
-112
-111
-111
-110
-110
-110
-109
-109
-108
-108
-108
-106
-106
-106
-106
-106
-106
-106
-105
-105
-105
-106
-105
-105
-106
-106
-105
-106
-106
-106
-106
-106
-107
-107
-107
-108
-109
-108
-109
-109
-110
-111
-111
-112
-113
-114
-115
-115
-117
-118
-119
-120
-120
-121
-122
-123
-123
-124
-124
-125
-125
-126
-126
-127
-126
-126
-127
-127
-128
-127
-127
-128
-128
-128
-129
-129
-129
-130
-130
-130
-131
-131
-131
-132
-132
-132
-132
-133
-133
-133
-133
-133
-133
-133
-133
-133
-133
-133
-133
-133
-133
-133
-133
-133
-133
-132
-132
-132
-132
-132
-132
-131
-131
-131
-131
-131
-131
-131
-131
-131
-131
-131
-131
-131
-131
-131
-131
-131
-130
-130
-129
-129
-128
-126
-125
-124
-122
-120
-117
-114
-111
-108
-105
-100
-94
-90
-84
-78
-72
-64
-57
-49
-42
-33
-25
-17
-8
-1
7
15
21
28
32
36
38
39
38
36
31
24
14
3
-11
-27
-47
-68
-91
-115
-141
-170
-198
-227
-256
-285
-313
-339
-366
-390
-412
-433
-451
-467
-480
-490
-498
-503
-506
-506
-505
-500
-494
-486
-477
-465
-453
-441
-427
-413
-398
-383
-368
-353
-338
-324
-310
-297
-284
-271
-261
-249
-239
-229
-220
-212
-205
-198
-192
-187
-182
-178
-175
-171
-168
-165
-163
-160
-158
-156
-154
-152
-150
-148
-146
-144
-142
-140
-139
-137
-135
-133
-131
-130
-129
-128
-126
-125
-124
-123
-122
-121
-121
-121
-119
-119
-119
-119
-118
-118
-118
-118
-118
-117
-116
-117
-117
-117
-117
-117
-116
-116
-116
-117
-117
-117
-117
-117
-117
-117
-117
-117
-117
-117
-117
-117
-116
-116
-116
-116
-116
-116
-116
-115
-115
-115
-116
-116
-115
-115
-115
-115
-115
-115
-115
-115
-115
-115
-115
-115
-115
-115
-115
-115
-114
-114
-114
-114
-114
-114
-114
-114
-113
-113
-113
-113
-113
-113
-113
-112
-112
-112
-113
-112
-112
-112
-112
-112
-111
-111
-111
-111
-112
-112
-112
-112
-112
-111
-111
-111
-111
-111
-111
-110
-110
-111
-111
-111
-110
-110
-110
-110
-109
-109
-109
-110
-109
-109
-109
-109
-109
-108
-108
-108
-108
-108
-107
-107
-108
-108
-107
-107
-107
-107
-106
-107
-107
-106
-106
-106
-106
-105
-105
-105
-106
-106
-105
-105
-105
-105
-104
-105
-105
-105
-105
-105
-105
-105
-105
-105
-104
-104
-104
-104
-104
-103
-104
-104
-104
-104
-104
-103
-103
-103
-103
-103
-103
-103
-103
-102
-102
-103
-103
-102
-102
-103
-102
-102
-103
-102
-103
-103
-103
-103
-103
-103
-104
-103
-104
-104
-103
-104
-103
-103
-103
-103
-103
-102
-103
-102
-102
-102
-102
-102
-101
-101
-101
-101
-100
-100
-100
-100
-99
-99
-99
-99
-98
-98
-98
-98
-98
-97
-97
-97
-96
-97
-97
-97
-96
-96
-97
-97
-97
-96
-97
-97
-97
-97
-97
-97
-98
-98
-99
-99
-99
-100
-100
-101
-101
-102
-102
-102
-103
-103
-104
-104
-104
-104
-106
-106
-106
-106
-108
-108
-108
-109
-109
-109
-110
-110
-110
-110
-110
-112
-112
-112
-112
-112
-112
-112
-112
-114
-114
-114
-114
-113
-114
-114
-115
-115
-115
-115
-115
-115
-115
-115
-115
-114
-115
-115
-115
-114
-114
-114
-114
-114
-114
-114
-114
-114
-114
-114
-114
-114
-114
-113
-113
-113
-113
-114
-114
-113
-112
-112
-112
-112
-112
-112
-112
-111
-111
-112
-112
-111
-111
-111
-111
-110
-110
-110
-110
-110
-109
-109
-109
-109
-109
-109
-109
-108
-108
-108
-108
-108
-107
-107
-107
-107
-107
-106
-106
-106
-106
-106
-106
-106
-106
-106
-105
-105
-105
-105
-105
-105
-104
-104
-104
-104
-104
-104
-104
-104
-104
-103
-103
-103
-103
-103
-103
-103
-103
-103
-103
-103
-103
-103
-103
-103
-103
-104
-104
-104
-104
-104
-104
-104
-104
-104
-104
-104
-104
-104
-105
-105
-105
-105
-105
-104
-104
-104
-105
-105
-105
-104
-104
-104
-104
-105
-105
-105
-105
-105
-105
-105
-105
-105
-105
-105
-106
-105
-105
-105
-105
-105
-105
-105
-104
-105
-105
-104
-104
-103
-103
-102
-102
-101
-101
-100
-100
-98
-98
-97
-97
-96
-96
-96
-95
-95
-94
-95
-95
-95
-95
-95
-95
-95
-95
-95
-95
-95
-94
-95
-95
-94
-94
-94
-93
-93
-93
-93
-92
-92
-92
-91
-92
-91
-90
-90
-91
-91
-91
-90
-90
-90
-90
-90
-90
-90
-90
-90
-90
-90
-90
-91
-91
-90
-91
-90
-91
-91
-92
-92
-92
-93
-93
-94
-95
-95
-95
-96
-97
-97
-98
-99
-99
-100
-101
-101
-103
-104
-104
-105
-106
-106
-106
-106
-107
-107
-107
-108
-109
-110
-110
-110
-111
-111
-111
-111
-112
-112
-114
-114
-114
-115
-115
-115
-115
-116
-116
-116
-116
-117
-117
-117
-116
-117
-117
-117
-117
-117
-117
-118
-118
-118
-118
-118
-118
-118
-118
-118
-118
-119
-119
-119
-119
-119
-119
-119
-119
-119
-119
-119
-119
-119
-119
-119
-119
-119
-119
-119
-119
-119
-119
-119
-119
-119
-118
-118
-117
-115
-115
-114
-112
-110
-107
-105
-102
-98
-95
-91
-87
-81
-75
-70
-63
-56
-49
-41
-33
-25
-17
-9
-1
8
17
25
33
38
45
49
52
54
54
52
48
43
35
24
10
-6
-24
-44
-67
-92
-118
-146
-176
-206
-237
-267
-298
-327
-354
-381
-406
-429
-449
-468
-483
-496
-506
-514
-518
-520
-519
-516
-510
-503
-495
-483
-472
-458
-444
-429
-414
-398
-381
-366
-350
-334
-319
-305
-291
-278
-265
-254
-242
-231
-222
-214
-205
-199
-193
-186
-182
-177
-173
-170
-167
-164
-162
-159
-157
-155
-153
-151
-149
-147
-146
-143
-141
-139
-138
-136
-134
-132
-131
-129
-127
-126
-124
-124
-122
-122
-120
-120
-119
-119
-118
-117
-117
-117
-117
-116
-116
-115
-115
-115
-115
-115
-115
-115
-115
-115
-115
-115
-115
-115
-115
-115
-115
-115
-115
-115
-115
-115
-115
-115
-115
-114
-114
-114
-115
-115
-115
-115
-115
-115
-115
-115
-114
-114
-114
-114
-115
-115
-115
-115
-115
-115
-115
-115
-115
-115
-115
-115
-115
-115
-115
-115
-115
-115
-115
-115
-115
-115
-115
-115
-115
-115
-115
-115
-114
-115
-115
-115
-115
-115
-115
-114
-114
-114
-114
-113
-113
-113
-113
-113
-113
-113
-113
-113
-113
-113
-112
-112
-112
-112
-112
-112
-112
-112
-112
-112
-112
-111
-111
-111
-112
-111
-111
-111
-110
-110
-110
-111
-110
-110
-110
-109
-109
-109
-109
-109
-109
-109
-109
-109
-109
-108
-108
-108
-108
-107
-108
-108
-107
-107
-107
-106
-106
-106
-106
-106
-105
-105
-104
-105
-104
-104
-104
-104
-104
-103
-103
-103
-103
-103
-103
-103
-103
-103
-103
-103
-103
-103
-103
-103
-104
-104
-103
-104
-104
-104
-104
-104
-104
-104
-105
-104
-104
-105
-105
-104
-104
-105
-105
-105
-105
-105
-106
-105
-106
-105
-106
-106
-106
-106
-106
-106
-106
-106
-107
-106
-107
-106
-106
-106
-106
-107
-106
-105
-106
-105
-105
-105
-105
-104
-105
-104
-104
-104
-104
-104
-104
-104
-104
-104
-104
-104
-104
-105
-104
-105
-105
-105
-105
-106
-106
-106
-106
-107
-107
-108
-108
-108
-109
-109
-110
-110
-110
-111
-111
-112
-113
-113
-113
-114
-114
-115
-116
-117
-117
-117
-118
-119
-120
-120
-120
-121
-121
-122
-122
-123
-124
-124
-125
-125
-125
-125
-126
-127
-127
-127
-128
-128
-128
-128
-128
-129
-129
-129
-130
-130
-131
-131
-130
-130
-130
-131
-131
-131
-131
-131
-131
-131
-131
-132
-132
-132
-132
-132
-133
-132
-132
-132
-132
-132
-132
-132
-132
-132
-132
-132
-132
-131
-131
-131
-131
-131
-131
-132
-131
-131
-130
-130
-130
-130
-130
-130
-130
-130
-130
-130
-130
-130
-130
-130
-129
-130
-130
-130
-130
-130
-130
-130
-130
-130
-130
-129
-129
-129
-129
-129
-128
-128
-128
-128
-128
-128
-128
-127
-127
-128
-128
-127
-127
-127
-127
-127
-127
-127
-127
-127
-127
-127
-127
-127
-127
-127
-127
-127
-127
-126
-127
-127
-127
-127
-127
-127
-127
-127
-127
-127
-127
-127
-127
-127
-127
-127
-128
-128
-128
-128
-128
-128
-129
-129
-129
-129
-129
-129
-129
-129
-129
-128
-128
-128
-128
-129
-128
-128
-128
-128
-128
-128
-127
-127
-127
-127
-127
-127
-127
-127
-127
-127
-127
-127
-128
-128
-128
-128
-128
-127
-127
-126
-127
-127
-126
-126
-125
-125
-125
-124
-124
-123
-122
-122
-121
-121
-120
-120
-119
-119
-118
-118
-117
-117
-117
-116
-117
-117
-117
-117
-117
-117
-118
-118
-117
-118
-118
-118
-118
-117
-118
-117
-118
-117
-118
-117
-118
-117
-117
-117
-117
-117
-116
-117
-117
-117
-117
-117
-117
-117
-117
-117
-116
-116
-116
-116
-115
-116
-116
-115
-116
-115
-116
-115
-116
-116
-115
-116
-117
-117
-118
-119
-119
-120
-121
-121
-122
-123
-124
-125
-126
-127
-128
-130
-130
-131
-132
-132
-133
-133
-134
-134
-135
-136
-136
-137
-137
-137
-138
-138
-138
-139
-139
-140
-140
-140
-140
-141
-141
-143
-143
-143
-143
-144
-144
-145
-145
-145
-145
-145
-145
-145
-145
-146
-146
-146
-146
-146
-146
-146
-146
-146
-146
-146
-146
-146
-146
-146
-146
-146
-146
-146
-146
-146
-146
-146
-146
-146
-146
-146
-147
-147
-147
-147
-147
-147
-147
-147
-146
-146
-145
-145
-145
-144
-143
-142
-140
-138
-136
-134
-131
-128
-126
-121
-117
-113
-108
-102
-96
-89
-82
-74
-66
-58
-49
-41
-32
-24
-15
-6
2
10
16
21
25
29
31
32
29
25
18
10
-2
-16
-33
-52
-73
-97
-124
-152
-181
-213
-244
-276
-308
-339
-369
-398
-426
-451
-476
-496
-516
-532
-544
-555
-561
-565
-567
-565
-561
-555
-547
-537
-526
-512
-498
-483
-466
-449
-432
-416
-399
-382
-366
-350
-335
-320
-306
-293
-280
-269
-259
-249
-239
-231
-223
-216
-211
-205
-200
-196
-192
-188
-185
-182
-179
-177
-175
-172
-170
-168
-166
-165
-163
-161
-159
-156
-156
-154
-152
-151
-149
-148
-148
-146
-146
-144
-144
-143
-142
-142
-142
-142
-141
-140
-140
-140
-140
-140
-140
-140
-140
-140
-140
-139
-139
-139
-139
-139
-139
-139
-139
-139
-138
-138
-138
-138
-138
-137
-137
-137
-137
-137
-137
-137
-137
-137
-136
-136
-136
-136
-136
-136
-136
-136
-136
-136
-136
-136
-136
-136
-135
-135
-135
-135
-136
-136
-136
-136
-136
-136
-136
-136
-135
-135
-135
-135
-135
-135
-136
-136
-136
-136
-136
-135
-135
-135
-135
-135
-134
-134
-134
-134
-134
-133
-133
-133
-133
-133
-132
-132
-132
-131
-131
-131
-131
-131
-130
-130
-130
-130
-130
-130
-130
-129
-129
-129
-129
-129
-129
-129
-128
-128
-128
-128
-127
-127
-126
-126
-126
-125
-125
-124
-124
-124
-124
-124
-124
-123
-123
-122
-122
-122
-122
-122
-122
-121
-121
-121
-120
-120
-120
-119
-119
-119
-119
-118
-118
-118
-118
-118
-118
-118
-117
-117
-117
-117
-116
-116
-116
-116
-116
-116
-116
-116
-116
-116
-116
-116
-116
-116
-116
-116
-116
-116
-116
-117
-116
-116
-117
-116
-117
-117
-118
-117
-118
-117
-118
-118
-118
-119
-119
-120
-120
-119
-120
-120
-119
-120
-120
-120
-120
-120
-120
-120
-119
-119
-120
-120
-119
-119
-119
-118
-119
-118
-119
-118
-118
-118
-118
-118
-117
-118
-117
-118
-117
-118
-117
-118
-117
-118
-117
-118
-118
-119
-119
-119
-119
-120
-120
-120
-121
-121
-121
-121
-122
-122
-122
-123
-123
-123
-123
-124
-124
-124
-125
-126
-126
-126
-126
-127
-127
-127
-129
-129
-130
-130
-131
-132
-132
-132
-133
-133
-134
-134
-135
-135
-136
-137
-137
-138
-138
-138
-138
-139
-140
-140
-140
-140
-141
-141
-141
-141
-141
-142
-142
-142
-142
-142
-142
-142
-143
-143
-143
-143
-144
-143
-143
-143
-143
-143
-143
-143
-143
-143
-143
-143
-143
-143
-143
-143
-143
-143
-143
-142
-142
-142
-142
-143
-142
-142
-142
-142
-142
-142
-142
-141
-141
-141
-141
-141
-141
-141
-141
-140
-140
-139
-139
-139
-139
-139
-138
-138
-138
-138
-138
-138
-137
-137
-137
-137
-137
-137
-137
-137
-137
-137
-137
-137
-137
-137
-137
-136
-136
-136
-136
-135
-135
-135
-135
-135
-135
-135
-135
-135
-135
-135
-135
-135
-135
-135
-135
-135
-135
-135
-135
-135
-135
-134
-134
-134
-134
-135
-135
-135
-135
-135
-135
-136
-136
-136
-136
-136
-136
-136
-137
-137
-137
-137
-137
-137
-137
-137
-137
-137
-137
-137
-137
-137
-137
-137
-137
-137
-137
-137
-137
-137
-137
-136
-136
-136
-136
-137
-137
-137
-137
-137
-137
-137
-137
-136
-136
-136
-136
-136
-137
-137
-137
-137
-137
-136
-136
-135
-135
-135
-135
-134
-134
-133
-133
-133
-132
-131
-130
-130
-129
-129
-128
-127
-127
-127
-126
-126
-125
-126
-125
-125
-126
-125
-126
-126
-125
-126
-125
-126
-126
-125
-126
-126
-125
-125
-125
-125
-125
-124
-124
-124
-124
-123
-123
-122
-123
-123
-122
-122
-122
-122
-122
-121
-121
-121
-122
-122
-121
-121
-122
-122
-122
-122
-122
-122
-122
-122
-123
-122
-123
-122
-123
-124
-124
-125
-126
-126
-127
-127
-128
-130
-130
-131
-132
-133
-134
-135
-136
-137
-137
-138
-139
-139
-140
-140
-141
-141
-142
-142
-143
-143
-144
-144
-145
-145
-146
-146
-146
-146
-147
-147
-147
-148
-148
-148
-148
-149
-149
-149
-150
-150
-150
-150
-151
-151
-151
-151
-151
-151
-151
-151
-151
-151
-151
-151
-151
-151
-151
-150
-150
-150
-150
-150
-150
-150
-151
-151
-151
-151
-151
-151
-151
-151
-151
-151
-151
-152
-151
-151
-151
-151
-151
-151
-151
-151
-151
-151
-150
-149
-148
-147
-145
-143
-141
-139
-136
-133
-130
-126
-122
-117
-111
-105
-99
-93
-85
-78
-70
-62
-53
-46
-37
-29
-20
-12
-3
3
9
14
18
21
22
21
18
13
6
-4
-17
-31
-48
-67
-89
-114
-140
-167
-197
-227
-257
-289
-318
-348
-377
-404
-430
-455
-476
-496
-512
-526
-538
-546
-551
-554
-554
-551
-547
-540
-531
-521
-509
-496
-481
-466
-451
-434
-418
-403
-387
-370
-355
-340
-327
-313
-300
-287
-276
-264
-254
-245
-236
-229
-222
-216
-210
-205
-201
-196
-193
-190
-187
-184
-181
-179
-176
-174
-172
-170
-168
-166
-165
-163
-161
-160
-158
-156
-155
-153
-152
-151
-150
-149
-149
-148
-147
-146
-146
-146
-146
-144
-144
-144
-144
-144
-143
-143
-143
-143
-143
-143
-143
-143
-142
-142
-142
-142
-142
-142
-142
-142
-142
-142
-141
-141
-141
-141
-142
-141
-141
-141
-141
-141
-141
-141
-141
-141
-140
-140
-140
-140
-140
-141
-140
-140
-140
-140
-139
-139
-140
-140
-139
-139
-139
-139
-139
-139
-138
-138
-138
-138
-138
-139
-139
-139
-139
-139
-138
-138
-138
-138
-138
-138
-138
-138
-138
-138
-137
-137
-137
-137
-137
-137
-137
-137
-137
-137
-137
-137
-137
-137
-136
-136
-136
-136
-135
-135
-135
-135
-135
-134
-134
-134
-134
-134
-134
-134
-134
-134
-134
-133
-133
-133
-132
-132
-132
-132
-131
-131
-131
-131
-131
-130
-130
-130
-130
-129
-129
-129
-129
-129
-128
-128
-128
-127
-127
-128
-128
-127
-127
-127
-126
-126
-126
-126
-125
-125
-125
-125
-125
-125
-124
-124
-124
-124
-124
-124
-123
-124
-124
-124
-124
-124
-124
-124
-125
-125
-124
-125
-125
-125
-125
-125
-126
-125
-126
-126
-127
-127
-126
-127
-127
-127
-128
-128
-128
-127
-128
-128
-128
-129
-128
-128
-129
-128
-128
-129
-128
-128
-128
-128
-128
-128
-128
-128
-128
-128
-127
-128
-127
-127
-127
-126
-127
-127
-126
-126
-126
-126
-126
-126
-126
-125
-125
-125
-126
-125
-125
-125
-124
-125
-125
-125
-125
-125
-125
-125
-125
-126
-126
-126
-126
-127
-127
-127
-128
-128
-128
-129
-129
-130
-130
-130
-131
-131
-131
-132
-133
-133
-134
-134
-134
-136
-136
-136
-136
-137
-138
-138
-138
-138
-139
-139
-140
-140
-140
-141
-142
-142
-142
-142
-142
-143
-144
-144
-144
-144
-145
-145
-145
-145
-145
-146
-146
-146
-146
-146
-146
-148
-148
-147
-147
-147
-147
-147
-148
-148
-148
-148
-148
-148
-148
-148
-148
-148
-148
-148
-148
-148
-148
-148
-148
-148
-148
-148
-148
-148
-148
-148
-148
-148
-147
-147
-147
-147
-147
-147
-147
-146
-146
-146
-146
-146
-146
-146
-146
-146
-146
-145
-145
-145
-145
-145
-144
-144
-144
-144
-144
-143
-143
-143
-143
-143
-143
-143
-143
-143
-142
-142
-142
-142
-142
-142
-142
-142
-142
-142
-142
-142
-142
-142
-142
-142
-141
-141
-141
-142
-142
-142
-142
-141
-141
-141
-141
-141
-141
-141
-141
-141
-141
-141
-141
-141
-141
-141
-141
-140
-140
-140
-140
-141
-141
-141
-141
-141
-141
-141
-141
-141
-141
-141
-141
-142
-142
-142
-142
-142
-142
-142
-142
-143
-143
-143
-143
-143
-143
-144
-144
-144
-144
-144
-144
-144
-144
-144
-144
-144
-144
-144
-144
-144
-145
-145
-145
-145
-145
-145
-145
-145
-145
-145
-145
-145
-145
-145
-146
-146
-146
-146
-146
-146
-146
-146
-146
-146
-145
-145
-145
-145
-145
-144
-144
-144
-143
-142
-142
-141
-141
-140
-139
-139
-138
-137
-137
-136
-136
-136
-135
-135
-135
-134
-134
-134
-134
-133
-133
-133
-134
-134
-133
-133
-133
-133
-132
-132
-132
-131
-131
-131
-130
-130
-129
-129
-128
-128
-127
-127
-127
-126
-126
-126
-125
-125
-125
-125
-125
-124
-124
-124
-124
-125
-124
-124
-124
-124
-124
-123
-124
-124
-124
-124
-125
-124
-125
-125
-125
-126
-126
-126
-127
-127
-129
-129
-130
-130
-132
-133
-133
-134
-134
-136
-136
-138
-138
-138
-140
-140
-140
-142
-142
-142
-142
-143
-143
-143
-143
-143
-143
-144
-144
-144
-145
-145
-145
-145
-145
-146
-146
-146
-146
-147
-147
-147
-147
-148
-147
-147
-147
-148
-148
-148
-148
-148
-147
-148
-148
-148
-148
-148
-148
-147
-147
-147
-147
-147
-147
-147
-147
-148
-148
-148
-147
-147
-147
-147
-147
-147
-147
-147
-147
-147
-147
-147
-147
-147
-146
-146
-146
-145
-145
-144
-144
-143
-141
-139
-138
-135
-133
-130
-127
-124
-120
-116
-112
-107
-101
-95
-88
-80
-74
-66
-59
-51
-42
-33
-25
-16
-9
-1
7
13
17
21
24
25
25
23
18
12
2
-9
-24
-40
-58
-79
-102
-127
-154
-182
-211
-241
-270
-301
-329
-357
-384
-410
-434
-456
-475
-492
-507
-518
-527
-533
-536
-537
-535
-532
-525
-517
-508
-497
-485
-471
-457
-441
-425
-409
-394
-378
-363
-348
-333
-319
-305
-292
-279
-267
-256
-247
-238
-229
-221
-214
-208
-202
-197
-192
-189
-185
-182
-180
-177
-174
-172
-170
-168
-166
-163
-161
-159
-157
-156
-154
-151
-150
-148
-146
-145
-144
-142
-140
-139
-139
-137
-137
-136
-135
-135
-134
-134
-133
-133
-133
-132
-132
-132
-132
-132
-132
-132
-132
-132
-131
-131
-131
-131
-131
-131
-130
-130
-130
-130
-130
-130
-130
-130
-130
-129
-129
-129
-129
-129
-128
-128
-128
-128
-129
-129
-128
-128
-128
-128
-128
-128
-128
-128
-128
-128
-127
-127
-127
-127
-127
-127
-126
-126
-126
-126
-126
-126
-126
-126
-126
-125
-125
-125
-125
-125
-125
-125
-124
-125
-125
-125
-125
-125
-125
-124
-124
-124
-124
-124
-123
-123
-123
-123
-123
-122
-122
-122
-122
-121
-121
-121
-121
-120
-120
-120
-120
-120
-120
-120
-120
-119
-119
-119
-119
-118
-118
-118
-118
-118
-118
-117
-117
-118
-117
-117
-117
-116
-116
-115
-116
-116
-115
-115
-114
-115
-114
-114
-113
-114
-114
-113
-113
-112
-113
-113
-111
-112
-112
-112
-112
-112
-111
-111
-111
-111
-111
-111
-110
-110
-110
-110
-110
-110
-110
-110
-110
-109
-109
-110
-110
-110
-110
-110
-110
-110
-110
-110
-111
-110
-110
-111
-110
-111
-111
-111
-111
-111
-111
-111
-112
-111
-112
-112
-112
-112
-112
-113
-112
-113
-113
-112
-113
-113
-113
-113
-113
-113
-113
-113
-113
-112
-112
-113
-112
-112
-111
-111
-112
-111
-111
-110
-111
-110
-110
-109
-109
-109
-108
-109
-108
-108
-107
-108
-108
-107
-108
-107
-107
-107
-107
-107
-107
-107
-108
-108
-108
-107
-107
-107
-109
-108
-108
-108
-108
-109
-110
-110
-110
-110
-111
-111
-111
-111
-112
-112
-113
-113
-113
-114
-114
-115
-115
-116
-116
-116
-117
-117
-118
-119
-119
-119
-120
-120
-120
-120
-121
-121
-122
-122
-122
-123
-123
-123
-123
-124
-124
-124
-124
-125
-125
-125
-125
-125
-125
-125
-125
-125
-125
-126
-126
-126
-126
-125
-125
-125
-125
-125
-125
-125
-125
-125
-125
-125
-125
-125
-125
-125
-125
-124
-124
-124
-124
-123
-123
-123
-122
-122
-122
-122
-122
-122
-122
-121
-121
-121
-121
-121
-121
-120
-120
-120
-121
-120
-120
-119
-119
-119
-119
-119
-119
-119
-119
-118
-118
-118
-118
-117
-117
-117
-117
-117
-117
-116
-116
-116
-116
-116
-116
-116
-116
-116
-115
-115
-115
-115
-115
-114
-114
-114
-114
-114
-114
-114
-114
-113
-113
-113
-113
-113
-113
-112
-112
-112
-112
-112
-112
-112
-112
-112
-112
-112
-112
-113
-113
-113
-113
-113
-112
-112
-113
-113
-113
-113
-113
-113
-113
-113
-113
-113
-113
-114
-114
-114
-114
-113
-113
-113
-114
-114
-114
-114
-114
-114
-115
-115
-115
-114
-114
-114
-114
-114
-114
-114
-114
-114
-114
-114
-114
-114
-115
-114
-114
-114
-113
-112
-113
-112
-112
-111
-111
-110
-109
-109
-108
-108
-107
-107
-107
-107
-106
-106
-105
-105
-106
-106
-105
-106
-106
-105
-105
-106
-106
-105
-106
-106
-105
-105
-105
-104
-105
-104
-104
-103
-103
-102
-102
-102
-101
-101
-100
-101
-101
-100
-100
-100
-100
-100
-100
-100
-100
-100
-100
-100
-100
-100
-101
-100
-101
-101
-101
-101
-101
-102
-101
-102
-103
-103
-103
-104
-105
-105
-105
-106
-107
-108
-108
-109
-109
-110
-111
-111
-113
-113
-114
-115
-115
-117
-117
-118
-118
-119
-119
-120
-120
-120
-121
-121
-121
-122
-122
-122
-123
-123
-124
-124
-124
-124
-125
-125
-125
-125
-125
-125
-125
-125
-125
-125
-125
-126
-126
-125
-125
-125
-125
-125
-125
-125
-125
-125
-125
-125
-125
-125
-125
-126
-126
-126
-126
-126
-126
-126
-126
-126
-126
-126
-126
-126
-126
-126
-125
-125
-125
-126
-126
-126
-126
-125
-125
-125
-124
-124
-124
-123
-123
-122
-120
-119
-118
-117
-114
-112
-109
-106
-103
-99
-95
-90
-85
-78
-72
-66
-59
-51
-44
-36
-27
-18
-10
-2
7
14
22
30
35
40
44
47
47
47
44
39
32
23
11
-4
-21
-40
-62
-84
-110
-137
-165
-194
-224
-254
-283
-313
-340
-367
-391
-415
-436
-455
-471
-484
-495
-504
-509
-511
-512
-510
-506
-499
-492
-481
-470
-457
-444
-429
-414
-399
-383
-368
-352
-337
-323
-308
-294
-281
-268
-257
-246
-235
-225
-217
-209
-201
-194
-188
-183
-179
-174
-170
-167
-165
-161
-159
-157
-155
-153
-150
-149
-147
-145
-143
-141
-139
-137
-135
-133
-132
-130
-128
-127
-125
-125
-124
-122
-121
-121
-120
-119
-118
-118
-118
-118
-116
-116
-116
-116
-115
-115
-115
-115
-115
-114
-114
-114
-115
-114
-114
-114
-114
-114
-114
-114
-114
-114
-114
-113
-113
-113
-113
-113
-113
-113
-113
-113
-113
-113
-113
-113
-113
-113
-113
-114
-113
-113
-113
-112
-112
-112
-111
-112
-112
-112
-111
-111
-111
-111
-111
-111
-111
-111
-111
-111
-111
-111
-112
-112
-111
-111
-111
-111
-112
-112
-112
-112
-112
-112
-112
-112
-113
-113
-113
-113
-113
-113
-113
-113
-113
-113
-113
-112
-112
-112
-112
-113
-113
-112
-112
-112
-112
-111
-112
-112
-111
-111
-111
-112
-111
-111
-111
-111
-110
-110
-110
-110
-109
-110
-110
-110
-109
-109
-109
-108
-108
-109
-108
-108
-107
-107
-107
-107
-107
-106
-106
-106
-106
-105
-105
-105
-105
-104
-104
-105
-104
-104
-104
-104
-103
-103
-103
-103
-103
-103
-103
-102
-102
-102
-103
-103
-103
-103
-103
-102
-102
-102
-102
-102
-102
-102
-101
-101
-101
-101
-101
-101
-101
-101
-102
-101
-101
-101
-101
-101
-101
-101
-101
-101
-102
-101
-102
-101
-102
-101
-102
-102
-102
-102
-102
-102
-102
-102
-102
-102
-102
-102
-101
-102
-101
-101
-101
-100
-101
-100
-100
-100
-99
-99
-99
-99
-98
-98
-98
-97
-98
-97
-97
-97
-97
-96
-97
-96
-96
-96
-97
-96
-97
-97
-97
-97
-96
-97
-97
-97
-97
-98
-98
-98
-98
-99
-99
-99
-100
-101
-101
-102
-102
-102
-103
-103
-104
-104
-104
-105
-106
-107
-107
-107
-108
-109
-109
-109
-110
-110
-111
-111
-112
-112
-112
-112
-112
-114
-114
-114
-114
-114
-115
-115
-115
-115
-116
-116
-116
-116
-116
-116
-116
-116
-117
-117
-117
-117
-117
-117
-117
-117
-117
-117
-117
-117
-117
-117
-117
-117
-117
-117
-117
-117
-117
-116
-116
-116
-116
-116
-116
-116
-116
-116
-116
-116
-116
-116
-116
-116
-116
-115
-115
-115
-115
-115
-115
-115
-114
-114
-115
-115
-115
-114
-114
-114
-114
-113
-113
-113
-113
-113
-112
-112
-112
-112
-112
-112
-112
-112
-112
-111
-111
-111
-111
-111
-110
-110
-110
-109
-109
-109
-110
-109
-109
-109
-108
-109
-108
-108
-108
-108
-107
-107
-107
-107
-108
-108
-107
-107
-107
-107
-107
-107
-107
-107
-107
-107
-107
-106
-107
-107
-107
-107
-107
-107
-107
-107
-107
-107
-107
-107
-108
-108
-108
-108
-108
-108
-108
-108
-108
-108
-108
-108
-108
-108
-109
-109
-108
-108
-109
-109
-109
-109
-110
-110
-110
-110
-110
-110
-110
-111
-111
-111
-111
-111
-111
-111
-111
-112
-111
-111
-110
-110
-111
-110
-110
-109
-110
-109
-109
-108
-107
-107
-106
-106
-106
-105
-105
-104
-104
-104
-103
-103
-103
-103
-102
-102
-102
-102
-101
-101
-101
-101
-101
-101
-102
-101
-102
-102
-102
-102
-101
-102
-101
-101
-101
-101
-100
-100
-100
-100
-99
-100
-99
-99
-98
-99
-99
-99
-100
-99
-99
-99
-99
-100
-100
-100
-101
-101
-100
-101
-101
-101
-101
-102
-102
-102
-103
-103
-103
-104
-104
-105
-106
-106
-107
-107
-108
-109
-109
-111
-112
-113
-113
-114
-114
-116
-116
-116
-117
-118
-119
-119
-120
-120
-121
-121
-121
-122
-123
-123
-124
-124
-124
-125
-125
-126
-127
-127
-127
-127
-128
-128
-128
-128
-128
-129
-129
-129
-129
-130
-130
-130
-130
-130
-131
-130
-130
-130
-130
-130
-130
-130
-130
-130
-130
-130
-131
-131
-131
-131
-131
-130
-130
-130
-131
-131
-131
-131
-131
-131
-131
-131
-131
-131
-131
-131
-131
-131
-131
-131
-131
-131
-130
-130
-129
-128
-126
-126
-124
-122
-120
-117
-114
-111
-107
-103
-99
-94
-88
-82
-76
-68
-61
-53
-45
-37
-28
-19
-11
-2
5
14
22
29
34
40
43
45
45
44
41
36
27
17
3
-13
-30
-51
-75
-100
-127
-156
-187
-218
-250
-282
-313
-344
-373
-401
-427
-452
-474
-494
-511
-525
-535
-543
-548
-550
-549
-547
-542
-534
-524
-513
-501
-487
-471
-455
-439
-421
-405
-388
-370
-355
-339
-323
-309
-295
-281
-269
-257
-246
-236
-226
-218
-210
-204
-198
-192
-189
-184
-180
-177
-174
-171
-169
-167
-165
-163
-160
-158
-156
-154
-152
-150
-148
-146
-145
-143
-141
-140
-138
-136
-136
-134
-132
-132
-131
-130
-129
-128
-128
-127
-127
-127
-126
-125
-125
-125
-125
-125
-125
-125
-124
-124
-124
-124
-124
-124
-124
-124
-124
-124
-124
-124
-124
-124
-124
-124
-124
-124
-124
-123
-123
-123
-123
-124
-124
-124
-123
-123
-123
-123
-123
-123
-123
-123
-123
-123
-123
-123
-123
-124
-124
-123
-123
-123
-123
-123
-123
-123
-123
-123
-123
-123
-123
-123
-123
-123
-123
-122
-122
-122
-122
-122
-122
-122
-123
-123
-123
-123
-123
-123
-123
-123
-123
-123
-123
-123
-123
-122
-122
-122
-121
-121
-122
-121
-121
-120
-120
-121
-120
-120
-120
-119
-119
-119
-119
-118
-118
-119
-119
-118
-118
-118
-118
-118
-118
-117
-117
-117
-117
-117
-116
-116
-116
-116
-115
-115
-115
-114
-115
-115
-114
-114
-113
-113
-112
-113
-113
-112
-112
-111
-112
-111
-111
-111
-110
-110
-110
-109
-109
-109
-109
-109
-109
-109
-108
-108
-108
-108
-108
-108
-109
-108
-108
-108
-108
-109
-108
-108
-108
-109
-109
-108
-108
-108
-109
-109
-108
-108
-109
-109
-109
-109
-109
-109
-110
-109
-110
-110
-111
-111
-111
-111
-111
-112
-111
-112
-111
-112
-112
-112
-112
-112
-112
-112
-112
-112
-112
-112
-111
-112
-111
-112
-111
-111
-111
-111
-111
-110
-111
-111
-110
-110
-111
-111
-110
-111
-110
-111
-112
-111
-112
-111
-112
-112
-113
-113
-113
-114
-114
-114
-115
-115
-116
-115
-116
-117
-117
-117
-118
-118
-119
-119
-120
-121
-121
-122
-122
-122
-123
-123
-124
-125
-125
-126
-126
-128
-128
-128
-129
-129
-130
-131
-131
-132
-132
-132
-133
