# Simple Text Format
# Sampling Rate (Hz):= 1200.00
# Resolution:= 12
# Labels:= ECG	 V5
# Age:=	20
# Gender:=	Feminino
0
0
0
0
0
0
0
0
0
0
0
0
0
0
0
0
0
0
0
0
0
0
0
0
0
0
0
0
0
0
0
0
0
0
0
0
0
0
0
0
0
0
0
0
0
0
0
0
0
0
0
0
0
0
0
0
0
0
0
0
0
0
0
0
0
0
0
0
0
0
0
0
0
0
0
0
0
0
0
0
0
0
0
0
0
0
0
0
0
0
0
0
0
0
0
0
0
0
0
0
0
0
0
0
0
0
0
0
0
0
0
0
0
0
0
0
0
0
0
0
0
0
0
0
0
0
0
0
0
0
0
0
0
0
0
0
0
0
0
0
0
0
0
0
0
0
0
0
0
0
0
0
0
0
0
0
0
0
0
0
0
0
0
0
0
0
0
0
0
0
0
0
0
0
0
0
0
0
0
0
0
0
0
0
0
0
0
0
0
0
0
0
0
0
0
0
0
0
0
0
0
0
0
0
0
0
0
0
0
0
0
0
0
0
0
0
0
0
0
0
0
0
0
0
0
0
0
0
0
0
0
0
0
0
0
0
0
0
0
0
0
0
0
0
0
0
0
0
0
0
0
0
0
0
0
0
0
0
0
0
0
0
0
0
0
0
0
0
0
0
0
0
0
0
0
0
0
0
0
0
0
0
0
0
0
0
0
0
0
0
0
0
0
0
0
0
0
0
0
0
0
0
0
0
0
0
0
0
0
0
0
0
0
0
0
0
0
0
0
0
0
0
0
0
0
0
0
0
0
0
0
0
0
0
0
0
0
0
0
0
0
0
0
0
0
0
0
0
0
0
0
0
0
0
0
0
0
0
0
0
0
0
0
0
0
0
0
0
0
0
0
0
0
0
0
0
0
0
0
0
0
0
0
0
0
0
0
0
0
0
0
0
0
0
0
0
0
0
0
0
0
0
0
0
0
0
0
0
0
0
0
0
0
0
0
0
0
0
0
0
0
0
0
0
0
0
0
0
0
0
0
0
0
0
0
0
0
0
0
0
0
0
0
0
0
0
0
0
0
0
0
0
0
0
0
0
0
0
0
0
0
0
0
0
0
0
0
0
0
0
0
0
0
0
0
0
0
0
0
0
0
0
0
0
0
0
0
0
0
0
0
0
0
0
0
0
0
0
0
0
0
0
0
0
0
0
0
0
0
0
0
0
0
0
0
0
0
0
0
0
0
0
0
0
0
0
0
0
0
0
0
0
0
0
0
0
0
0
0
0
0
0
0
0
0
0
0
0
0
0
0
0
0
0
0
0
0
0
0
0
0
0
0
0
0
0
0
0
0
0
0
0
0
0
0
0
0
0
0
0
0
0
0
0
0
0
0
0
0
0
0
0
0
0
0
0
0
0
0
0
0
0
0
0
0
0
0
0
0
0
0
0
0
0
0
0
0
0
0
0
0
0
0
0
0
0
0
0
0
0
0
0
0
0
0
0
0
0
0
0
0
0
0
0
0
0
0
0
0
0
0
0
0
0
0
0
0
0
0
0
0
0
0
0
0
0
0
0
0
0
0
0
0
0
0
0
0
0
0
0
0
0
0
0
0
0
0
0
0
0
0
0
0
0
0
0
0
0
0
0
0
0
0
0
0
0
0
0
0
0
0
0
0
0
0
0
0
0
0
0
0
0
0
0
0
0
0
0
0
0
0
0
0
0
0
0
0
0
0
0
0
0
0
0
0
0
0
0
0
0
0
0
0
0
0
0
0
0
0
0
0
0
0
0
0
0
0
0
0
0
0
0
0
0
0
0
0
0
0
0
0
0
0
0
0
0
0
0
0
0
0
0
0
0
0
0
0
0
0
0
0
0
0
0
0
0
0
0
0
0
0
0
0
0
0
0
0
0
0
0
0
0
0
0
0
0
0
0
0
0
0
0
0
0
0
0
0
0
0
0
0
0
0
0
0
0
0
0
0
0
0
0
0
0
0
0
0
0
0
0
0
0
0
0
0
0
0
0
0
0
0
0
0
0
0
0
0
0
0
0
0
0
0
0
0
0
0
0
0
0
0
0
0
0
0
0
0
0
0
0
0
0
0
0
0
0
0
0
0
0
0
0
0
0
0
0
0
0
0
0
0
0
0
0
0
0
0
0
0
0
0
0
0
0
0
0
0
0
0
0
0
0
0
0
0
0
0
0
0
0
0
0
0
0
0
0
0
0
0
0
0
0
0
0
0
0
0
0
0
0
0
0
0
0
0
0
0
0
0
0
0
0
0
0
0
0
0
0
0
0
0
0
0
0
0
0
0
0
0
0
0
0
0
0
0
0
0
0
0
0
0
0
0
0
0
0
0
0
0
0
0
0
0
0
0
0
0
0
0
0
0
0
0
0
0
0
0
0
0
0
0
0
0
0
0
0
0
0
0
0
0
0
0
0
0
0
0
0
0
0
0
0
0
0
0
0
0
0
0
0
0
0
0
0
0
0
0
0
0
0
0
0
0
0
0
0
0
0
0
0
0
0
0
0
0
0
0
0
0
0
0
0
0
0
0
0
0
0
0
0
0
0
0
0
0
0
0
0
0
0
0
0
0
0
0
0
0
0
0
0
0
0
0
0
0
0
0
0
0
0
0
0
0
0
0
0
0
0
0
0
0
0
0
0
0
0
0
0
0
0
0
0
0
0
0
0
0
0
0
0
0
-43
-43
-43
-43
-43
-43
-43
-43
-44
-44
-44
-44
-45
-45
-45
-45
-45
-44
-44
-44
-44
-44
-44
-44
-44
-44
-44
-44
-44
-43
-43
-42
-42
-42
-41
-41
-40
-40
-39
-40
-40
-39
-39
-38
-39
-38
-38
-38
-37
-36
-37
-37
-36
-36
-36
-35
-35
-34
-35
-35
-34
-34
-34
-33
-33
-32
-31
-32
-31
-31
-30
-30
-29
-29
-28
-27
-28
-27
-27
-26
-26
-26
-26
-26
-25
-24
-24
-24
-24
-24
-24
-24
-23
-24
-24
-24
-23
-24
-24
-24
-24
-25
-25
-25
-25
-26
-26
-27
-27
-27
-28
-29
-29
-29
-30
-31
-32
-33
-32
-33
-33
-34
-35
-35
-37
-37
-37
-38
-38
-40
-40
-40
-41
-41
-42
-42
-42
-43
-43
-43
-44
-44
-45
-45
-45
-45
-46
-46
-46
-46
-47
-47
-47
-47
-47
-47
-48
-49
-48
-49
-49
-49
-49
-49
-49
-49
-49
-49
-49
-49
-49
-49
-49
-49
-49
-49
-49
-49
-49
-49
-49
-49
-49
-49
-49
-49
-49
-49
-49
-49
-49
-49
-49
-49
-49
-49
-49
-49
-49
-49
-49
-49
-49
-48
-48
-47
-46
-46
-45
-44
-43
-42
-40
-39
-38
-36
-34
-31
-28
-26
-22
-18
-14
-9
-4
1
8
15
21
29
37
44
53
62
71
79
88
96
104
111
119
126
132
137
142
147
151
154
157
159
162
163
163
164
164
162
159
155
150
143
136
127
119
109
99
89
77
65
53
40
27
13
1
-12
-23
-34
-43
-52
-61
-68
-73
-77
-81
-85
-87
-89
-89
-89
-88
-88
-88
-86
-86
-84
-84
-82
-82
-80
-79
-78
-77
-76
-75
-73
-71
-70
-69
-68
-68
-67
-65
-64
-63
-61
-61
-61
-60
-59
-58
-57
-56
-56
-56
-56
-55
-55
-54
-54
-54
-54
-54
-54
-54
-54
-54
-54
-54
-54
-53
-53
-53
-53
-52
-52
-52
-52
-52
-52
-52
-52
-52
-52
-52
-52
-52
-52
-52
-51
-51
-51
-51
-51
-51
-52
-52
-51
-51
-51
-51
-51
-51
-51
-51
-51
-51
-51
-51
-51
-51
-51
-50
-50
-50
-50
-49
-49
-49
-50
-49
-49
-49
-49
-49
-49
-49
-49
-49
-48
-48
-48
-48
-48
-48
-48
-48
-48
-48
-48
-49
-49
-49
-49
-48
-48
-48
-49
-48
-48
-48
-47
-47
-47
-47
-47
-47
-47
-47
-47
-47
-47
-47
-47
-47
-46
-46
-46
-47
-47
-47
-47
-47
-46
-46
-46
-45
-46
-45
-45
-45
-44
-44
-43
-43
-42
-43
-42
-42
-41
-41
-40
-41
-40
-40
-39
-39
-39
-39
-38
-38
-37
-37
-37
-37
-36
-37
-36
-36
-36
-35
-35
-35
-35
-35
-34
-34
-34
-34
-33
-32
-32
-32
-31
-31
-30
-30
-30
-29
-29
-29
-29
-29
-29
-29
-29
-29
-28
-28
-28
-27
-27
-28
-28
-27
-27
-27
-27
-27
-27
-26
-26
-27
-27
-27
-27
-26
-26
-27
-26
-26
-26
-26
-25
-26
-25
-25
-25
-25
-25
-25
-25
-25
-25
-25
-25
-25
-25
-25
-25
-24
-25
-24
-24
-25
-24
-25
-26
-25
-26
-26
-26
-26
-26
-27
-26
-27
-27
-28
-28
-28
-28
-29
-29
-30
-29
-30
-30
-31
-31
-32
-32
-33
-33
-34
-34
-34
-35
-35
-35
-36
-37
-37
-37
-37
-37
-38
-38
-38
-40
-40
-40
-40
-40
-40
-41
-41
-41
-41
-42
-42
-42
-42
-43
-43
-43
-43
-44
-44
-44
-44
-45
-45
-45
-45
-45
-45
-45
-45
-45
-45
-45
-45
-45
-45
-45
-45
-44
-44
-44
-44
-44
-44
-44
-44
-44
-44
-44
-44
-44
-44
-44
-43
-43
-43
-43
-43
-43
-43
-43
-43
-44
-44
-44
-43
-43
-43
-43
-43
-43
-43
-43
-43
-43
-43
-43
-43
-43
-43
-42
-42
-42
-42
-42
-42
-41
-41
-41
-41
-41
-41
-40
-40
-40
-40
-40
-39
-39
-39
-39
-39
-39
-39
-39
-40
-39
-39
-39
-39
-39
-39
-39
-38
-38
-38
-38
-38
-38
-38
-38
-38
-37
-38
-38
-38
-38
-38
-37
-37
-37
-37
-37
-37
-37
-38
-38
-38
-38
-38
-39
-39
-39
-39
-39
-39
-39
-39
-39
-39
-40
-40
-40
-40
-40
-40
-40
-40
-40
-40
-40
-40
-40
-40
-40
-40
-40
-40
-40
-40
-40
-40
-40
-40
-40
-40
-40
-40
-41
-41
-41
-42
-42
-41
-41
-41
-41
-41
-41
-41
-41
-42
-42
-42
-42
-42
-41
-41
-41
-40
-40
-40
-39
-39
-38
-38
-38
-37
-36
-36
-35
-35
-34
-34
-34
-34
-34
-33
-33
-32
-32
-33
-32
-32
-32
-31
-32
-31
-31
-31
-31
-31
-31
-30
-30
-30
-30
-30
-30
-29
-29
-29
-29
-29
-29
-28
-28
-28
-28
-28
-27
-26
-27
-26
-26
-26
-25
-26
-25
-25
-25
-25
-24
-25
-24
-24
-23
-24
-23
-24
-24
-23
-23
-23
-23
-23
-24
-24
-24
-25
-25
-26
-26
-27
-28
-28
-29
-30
-30
-31
-32
-32
-33
-34
-34
-35
-36
-37
-38
-38
-38
-39
-39
-40
-40
-41
-42
-42
-43
-43
-43
-44
-44
-44
-44
-44
-44
-45
-45
-45
-45
-45
-46
-46
-46
-46
-46
-46
-46
-46
-46
-46
-46
-46
-46
-46
-46
-46
-46
-46
-46
-46
-46
-46
-46
-47
-47
-47
-47
-47
-47
-47
-47
-47
-47
-47
-47
-47
-47
-47
-47
-47
-47
-47
-47
-47
-48
-48
-47
-47
-46
-46
-46
-46
-46
-46
-45
-44
-43
-43
-41
-41
-39
-38
-37
-35
-33
-30
-28
-24
-20
-16
-12
-6
-1
5
13
20
27
35
43
51
60
69
78
87
95
104
111
119
126
133
139
144
149
153
157
160
162
165
167
168
168
168
166
164
161
156
150
143
135
127
117
107
96
84
72
59
46
33
19
5
-7
-20
-31
-42
-52
-60
-68
-74
-79
-84
-87
-90
-91
-91
-92
-92
-91
-90
-89
-87
-85
-84
-83
-81
-79
-78
-77
-75
-74
-72
-71
-69
-68
-67
-66
-65
-64
-63
-61
-60
-60
-58
-56
-57
-56
-55
-54
-54
-53
-52
-53
-52
-52
-52
-52
-52
-51
-51
-51
-51
-51
-51
-51
-52
-52
-52
-52
-51
-51
-51
-51
-52
-52
-52
-51
-51
-51
-51
-51
-50
-50
-50
-50
-50
-50
-49
-49
-49
-49
-49
-50
-50
-50
-50
-50
-50
-50
-49
-50
-50
-50
-50
-49
-50
-50
-50
-50
-49
-49
-49
-49
-49
-49
-49
-49
-50
-50
-49
-49
-48
-48
-47
-48
-48
-47
-47
-47
-46
-47
-46
-46
-46
-46
-45
-45
-45
-45
-45
-45
-45
-45
-45
-45
-45
-45
-45
-45
-45
-45
-45
-45
-45
-45
-45
-46
-46
-46
-46
-45
-45
-45
-45
-45
-46
-45
-45
-45
-44
-44
-44
-44
-43
-43
-44
-43
-43
-43
-42
-42
-42
-42
-42
-41
-41
-41
-41
-40
-40
-40
-39
-39
-38
-38
-39
-39
-38
-37
-37
-38
-37
-37
-37
-36
-36
-36
-36
-35
-35
-34
-33
-33
-33
-32
-32
-32
-32
-31
-30
-30
-30
-30
-30
-28
-28
-28
-27
-27
-27
-27
-27
-26
-26
-25
-26
-26
-26
-25
-25
-25
-25
-25
-25
-25
-25
-25
-25
-25
-26
-25
-25
-25
-25
-26
-25
-25
-25
-25
-25
-24
-24
-24
-24
-24
-24
-25
-24
-24
-24
-24
-23
-24
-23
-24
-24
-24
-24
-24
-24
-24
-25
-24
-25
-25
-25
-25
-26
-25
-26
-26
-26
-26
-27
-27
-28
-27
-27
-27
-28
-28
-28
-28
-28
-30
-30
-30
-31
-31
-31
-32
-32
-32
-32
-34
-34
-34
-35
-35
-35
-36
-37
-37
-38
-38
-38
-38
-39
-39
-40
-40
-41
-41
-41
-41
-41
-42
-42
-42
-42
-42
-43
-43
-43
-43
-44
-44
-44
-44
-44
-44
-44
-45
-45
-45
-45
-45
-45
-45
-45
-45
-45
-44
-44
-45
-45
-45
-45
-45
-45
-45
-45
-45
-46
-46
-45
-45
-45
-45
-45
-45
-44
-44
-45
-44
-44
-44
-43
-43
-43
-43
-43
-43
-43
-43
-42
-42
-42
-42
-42
-42
-42
-42
-42
-41
-41
-41
-41
-41
-41
-41
-41
-41
-41
-41
-41
-41
-41
-41
-40
-39
-39
-39
-39
-39
-39
-39
-39
-38
-38
-38
-38
-38
-38
-38
-38
-37
-37
-38
-38
-37
-37
-37
-37
-37
-36
-36
-36
-36
-37
-37
-37
-37
-36
-36
-36
-36
-36
-36
-36
-36
-36
-36
-36
-36
-36
-36
-37
-37
-37
-37
-36
-36
-36
-36
-37
-37
-36
-36
-37
-37
-37
-37
-37
-37
-38
-38
-38
-38
-38
-38
-38
-38
-38
-38
-38
-38
-39
-39
-39
-39
-39
-39
-39
-39
-39
-39
-39
-39
-38
-38
-39
-39
-39
-39
-39
-39
-39
-40
-40
-40
-40
-40
-40
-40
-40
-40
-40
-40
-40
-40
-40
-40
-40
-40
-40
-41
-41
-41
-41
-41
-41
-41
-41
-41
-41
-41
-41
-41
-41
-40
-40
-40
-40
-40
-40
-40
-40
-39
-39
-39
-38
-38
-38
-37
-36
-36
-36
-35
-35
-34
-33
-34
-33
-33
-32
-32
-31
-32
-32
-31
-31
-31
-30
-31
-30
-30
-30
-30
-30
-30
-31
-31
-30
-30
-30
-30
-30
-30
-29
-29
-30
-30
-29
-29
-29
-29
-28
-28
-28
-26
-26
-26
-26
-26
-25
-25
-25
-25
-25
-24
-24
-25
-24
-24
-24
-23
-24
-23
-24
-23
-23
-23
-23
-23
-23
-23
-24
-23
-24
-24
-24
-24
-25
-25
-25
-26
-27
-28
-28
-28
-30
-30
-30
-31
-31
-32
-33
-33
-34
-34
-35
-35
-35
-36
-37
-37
-38
-38
-38
-38
-39
-40
-40
-41
-41
-42
-42
-42
-42
-43
-43
-43
-43
-43
-44
-44
-44
-44
-44
-44
-44
-44
-44
-44
-44
-44
-44
-45
-45
-45
-45
-45
-45
-45
-45
-45
-45
-45
-45
-45
-45
-45
-45
-45
-45
-45
-45
-46
-46
-46
-46
-45
-45
-45
-45
-45
-45
-45
-45
-45
-45
-45
-46
-45
-45
-44
-44
-43
-43
-42
-42
-41
-40
-39
-38
-37
-36
-34
-32
-30
-28
-25
-22
-18
-14
-10
-5
0
7
13
21
28
36
45
53
62
70
80
89
98
106
115
123
130
137
143
149
154
159
162
166
169
171
173
175
174
175
174
171
168
163
158
151
143
134
125
114
103
91
78
66
52
38
25
11
-1
-15
-27
-38
-48
-57
-65
-71
-77
-81
-85
-88
-89
-89
-90
-89
-88
-88
-86
-85
-83
-81
-80
-79
-77
-75
-74
-72
-71
-69
-68
-67
-65
-63
-62
-61
-60
-59
-58
-57
-55
-54
-53
-53
-52
-51
-51
-50
-50
-49
-49
-49
-49
-48
-48
-48
-48
-48
-48
-48
-48
-48
-48
-47
-47
-47
-47
-47
-46
-46
-46
-46
-47
-47
-47
-47
-47
-47
-46
-46
-46
-46
-46
-46
-46
-46
-46
-46
-46
-46
-45
-45
-45
-45
-45
-45
-45
-45
-45
-45
-45
-45
-45
-44
-44
-44
-44
-44
-44
-44
-43
-43
-44
-44
-44
-43
-43
-43
-43
-43
-43
-43
-42
-42
-42
-42
-43
-43
-43
-43
-43
-43
-42
-42
-42
-43
-43
-43
-43
-43
-43
-42
-42
-42
-42
-42
-42
-42
-42
-42
-42
-42
-42
-42
-42
-42
-41
-41
-41
-42
-42
-41
-41
-41
-40
-41
-41
-40
-40
-40
-39
-40
-40
-39
-39
-39
-39
-39
-39
-38
-38
-38
-38
-38
-38
-38
-37
-37
-37
-36
-37
-36
-36
-36
-35
-35
-35
-34
-34
-34
-34
-33
-33
-33
-32
-32
-32
-30
-30
-30
-30
-29
-29
-29
-28
-28
-28
-28
-27
-27
-26
-26
-26
-25
-25
-25
-26
-25
-24
-24
-24
-24
-24
-23
-23
-23
-24
-23
-23
-23
-23
-23
-22
-22
-23
-23
-23
-22
-22
-23
-23
-23
-23
-24
-23
-23
-23
-23
-23
-23
-23
-23
-23
-22
-23
-23
-22
-22
-22
-22
-22
-22
-22
-22
-22
-22
-22
-22
-23
-22
-23
-22
-22
-23
-22
-23
-23
-22
-23
-23
-23
-24
-24
-23
-24
-24
-25
-25
-25
-26
-26
-26
-27
-27
-27
-28
-28
-28
-29
-30
-30
-30
-31
-31
-32
-32
-32
-32
-33
-34
-34
-35
-35
-35
-35
-36
-37
-37
-37
-37
-37
-37
-38
-38
-38
-38
-38
-39
-39
-39
-39
-40
-40
-40
-41
-41
-41
-41
-41
-41
-41
-41
-42
-42
-41
-41
-41
-41
-42
-42
-42
-42
-42
-42
-42
-42
-42
-42
-42
-42
-42
-42
-42
-42
-42
-42
-42
-41
-41
-41
-41
-41
-41
-40
-40
-40
-40
-40
-40
-40
-40
-40
-39
-39
-39
-39
-39
-39
-40
-40
-39
-39
-39
-39
-39
-39
-40
-40
-40
-39
-39
-39
-39
-39
-39
-39
-39
-38
-38
-38
-38
-38
-37
-37
-37
-37
-37
-37
-37
-37
-37
-37
-37
-37
-37
-36
-36
-36
-35
-35
-36
-36
-35
-35
-35
-35
-35
-35
-35
-34
-34
-34
-34
-34
-34
-34
-34
-34
-34
-35
-35
-35
-35
-35
-35
-35
-35
-35
-35
-35
-35
-35
-35
-36
-36
-36
-36
-36
-36
-36
-36
-36
-35
-36
-36
-36
-36
-36
-36
-37
-37
-37
-37
-37
-37
-37
-37
-37
-37
-38
-38
-38
-38
-38
-37
-37
-37
-37
-38
-38
-38
-38
-38
-38
-38
-38
-38
-38
-38
-39
-39
-39
-39
-39
-39
-39
-39
-39
-39
-39
-39
-39
-39
-39
-39
-39
-40
-40
-40
-40
-40
-40
-40
-40
-40
-40
-40
-40
-40
-40
-40
-41
-41
-41
-41
-41
-41
-41
-41
-41
-41
-41
-41
-41
-40
-40
-40
-40
-40
-41
-41
-41
-40
-40
-40
-40
-40
-40
-39
-39
-39
-39
-38
-38
-39
-38
-38
-37
-36
-37
-36
-36
-35
-34
-35
-34
-33
-33
-32
-31
-32
-32
-31
-31
-31
-31
-31
-30
-29
-29
-29
-29
-29
-29
-29
-28
-28
-28
-29
-28
-28
-28
-28
-28
-27
-27
-27
-27
-26
-26
-26
-26
-25
-25
-24
-24
-24
-24
-24
-23
-24
-24
-23
-24
-24
-23
-24
-23
-24
-23
-24
-23
-24
-24
-24
-24
-24
-24
-24
-24
-24
-25
-25
-25
-26
-26
-26
-27
-27
-28
-28
-28
-29
-29
-30
-30
-31
-31
-32
-32
-33
-33
-33
-34
-34
-35
-35
-35
-36
-36
-36
-36
-37
-37
-37
-38
-38
-39
-39
-39
-39
-40
-40
-41
-41
-41
-41
-41
-41
-41
-41
-41
-42
-43
-43
-43
-43
-43
-43
-42
-42
-42
-43
-43
-43
-43
-43
-43
-44
-44
-44
-44
-44
-44
-44
-44
-44
-44
-44
-44
-44
-44
-44
-43
-43
-44
-44
-44
-43
-43
-43
-43
-42
-42
-42
-42
-42
-41
-41
-41
-41
-40
-40
-40
-40
-40
-38
-38
-36
-36
-34
-32
-30
-28
-26
-22
-20
-16
-11
-7
-1
5
12
19
27
35
42
51
59
69
78
88
96
105
113
122
129
136
143
149
155
160
164
167
170
173
175
176
177
177
177
176
173
169
162
156
148
139
131
120
108
97
85
72
59
44
31
17
3
-9
-22
-33
-43
-52
-61
-68
-73
-78
-81
-84
-86
-88
-87
-87
-87
-86
-84
-83
-82
-81
-79
-78
-76
-74
-73
-72
-70
-69
-66
-65
-64
-62
-61
-60
-58
-57
-56
-54
-53
-52
-51
-50
-50
-49
-48
-49
-48
-48
-47
-48
-47
-47
-47
-47
-47
-47
-48
-48
-47
-47
-47
-47
-47
-47
-47
-47
-47
-47
-47
-47
-47
-47
-46
-46
-46
-46
-46
-45
-45
-45
-45
-45
-45
-45
-44
-45
-45
-45
-45
-45
-45
-44
-44
-44
-44
-44
-44
-44
-43
-43
-43
-43
-43
-43
-43
-43
-43
-43
-43
-43
-43
-43
-43
-43
-43
-43
-43
-43
-42
-43
-43
-43
-42
-42
-43
-42
-42
-42
-42
-42
-42
-41
-41
-41
-41
-41
-41
-40
-40
-40
-40
-40
-40
-40
-41
-41
-41
-40
-40
-40
-40
-40
-41
-41
-41
-41
-41
-41
-41
-41
-40
-40
-40
-40
-40
-39
-39
-40
-39
-39
-38
-38
-38
-38
-37
-37
-36
-36
-36
-35
-35
-36
-35
-35
-35
-34
-34
-34
-34
-33
-33
-33
-32
-32
-32
-31
-31
-31
-30
-30
-30
-29
-29
-29
-29
-28
-27
-27
-27
-26
-26
-26
-26
-26
-25
-24
-24
-24
-24
-24
-24
-24
-22
-22
-22
-22
-22
-22
-22
-22
-22
-21
-21
-21
-21
-21
-21
-21
-22
-21
-21
-22
-22
-21
-21
-22
-21
-21
-22
-22
-21
-22
-22
-22
-22
-22
-23
-22
-22
-22
-22
-21
-21
-21
-21
-21
-20
-20
-21
-20
-20
-19
-20
-19
-19
-19
-19
-18
-18
-19
-18
-19
-19
-18
-19
-19
-19
-19
-20
-20
-20
-21
-20
-21
-21
-22
-22
-22
-23
-23
-24
-24
-24
-25
-25
-26
-26
-26
-27
-28
-28
-28
-29
-30
-30
-30
-31
-31
-31
-31
-32
-32
-32
-33
-33
-34
-34
-34
-34
-34
-34
-35
-36
-36
-36
-36
-36
-36
-36
-36
-37
-37
-37
-37
-37
-38
-38
-39
-39
-39
-39
-39
-39
-39
-39
-39
-39
-39
-39
-40
-40
-40
-39
-39
-39
-39
-39
-39
-39
-38
-38
-38
-39
-38
-38
-38
-38
-38
-38
-38
-38
-37
-37
-37
-37
-37
-37
-37
-37
-37
-36
-36
-36
-36
-36
-36
-36
-36
-35
-35
-36
-36
-36
-36
-36
-36
-36
-36
-36
-36
-36
-36
-36
-36
-36
-35
-35
-35
-35
-34
-34
-34
-34
-34
-33
-33
-34
-34
-33
-33
-33
-33
-33
-32
-32
-32
-32
-32
-32
-32
-32
-32
-32
-32
-32
-32
-32
-32
-32
-32
-32
-31
-31
-31
-31
-31
-31
-31
-31
-31
-31
-31
-31
-31
-31
-31
-31
-31
-31
-31
-31
-31
-31
-31
-31
-31
-31
-32
-32
-32
-31
-32
-32
-32
-32
-32
-33
-33
-33
-33
-33
-33
-33
-33
-33
-33
-32
-32
-32
-32
-32
-33
-33
-33
-33
-33
-33
-33
-34
-34
-34
-34
-34
-34
-34
-34
-34
-34
-34
-34
-34
-34
-34
-34
-34
-33
-34
-33
-33
-32
-33
-32
-31
-31
-30
-30
-30
-30
-29
-29
-29
-28
-28
-27
-27
-26
-26
-26
-26
-25
-24
-24
-25
-24
-24
-24
-24
-24
-23
-24
-24
-24
-23
-23
-23
-23
-23
-22
-22
-22
-21
-21
-20
-20
-20
-20
-19
-19
-19
-18
-18
-18
-18
-17
-18
-18
-18
-18
-17
-18
-18
-19
-19
-18
-19
-19
-20
-19
-19
-20
-20
-20
-20
-21
-20
-21
-21
-22
-22
-22
-22
-23
-23
-23
-24
-24
-25
-25
-26
-26
-26
-27
-27
-28
-28
-29
-30
-30
-31
-31
-31
-32
-32
-33
-33
-34
-34
-34
-34
-35
-35
-35
-35
-37
-37
-37
-37
-37
-37
-37
-38
-38
-38
-38
-38
-38
-38
-38
-38
-38
-38
-38
-38
-38
-38
-38
-38
-38
-39
-39
-39
-39
-39
-39
-39
-39
-39
-39
-39
-39
-39
-39
-39
-39
-39
-39
-40
-40
-40
-40
-41
-41
-41
-41
-41
-42
-42
-41
-41
-41
-41
-40
-40
-39
-39
-38
-38
-37
-36
-35
-33
-32
-29
-28
-25
-23
-20
-16
-13
-9
-4
2
6
12
19
26
32
40
48
55
64
72
81
89
96
105
111
118
125
131
137
142
147
150
155
157
159
163
164
165
166
166
166
163
160
156
150
143
136
127
119
109
100
88
77
65
52
40
27
14
1
-11
-22
-33
-42
-50
-58
-64
-70
-74
-76
-79
-80
-82
-82
-82
-81
-82
-80
-79
-78
-76
-75
-74
-73
-71
-70
-69
-67
-67
-66
-64
-63
-62
-61
-60
-59
-57
-56
-55
-55
-54
-53
-52
-51
-50
-50
-49
-48
-48
-47
-47
-46
-46
-46
-46
-46
-45
-45
-45
-45
-45
-45
-45
-45
-44
-43
-43
-43
-43
-43
-43
-43
-43
-42
-43
-43
-43
-43
-43
-43
-43
-43
-43
-43
-43
-43
-43
-43
-43
-43
-43
-43
-43
-43
-43
-43
-43
-44
-44
-44
-44
-44
-44
-44
-43
-44
-44
-44
-43
-43
-43
-43
-42
-42
-42
-41
-41
-41
-41
-41
-41
-41
-41
-41
-41
-40
-40
-40
-41
-40
-40
-40
-40
-40
-40
-39
-39
-39
-39
-39
-39
-39
-39
-39
-39
-38
-38
-38
-38
-37
-37
-38
-38
-38
-37
-37
-37
-37
-37
-38
-38
-38
-37
-37
-37
-37
-37
-37
-37
-37
-37
-37
-37
-36
-37
-37
-36
-36
-35
-35
-35
-35
-34
-34
-33
-34
-33
-33
-33
-33
-33
-33
-32
-32
-32
-32
-31
-32
-32
-32
-31
-31
-31
-30
-30
-30
-29
-29
-29
-28
-28
-27
-27
-27
-26
-25
-25
-25
-25
-25
-25
-25
-24
-24
-24
-24
-23
-23
-24
-24
-23
-23
-23
-22
-22
-22
-21
-21
-21
-20
-20
-20
-20
-19
-19
-19
-19
-18
-18
-19
-18
-18
-18
-19
-18
-19
-19
-18
-19
-19
-19
-19
-19
-19
-19
-19
-19
-19
-19
-20
-19
-19
-19
-19
-18
-19
-18
-19
-18
-19
-19
-18
-19
-19
-19
-19
-20
-20
-20
-20
-21
-20
-21
-21
-22
-22
-22
-21
-22
-22
-22
-22
-23
-23
-23
-23
-25
-25
-25
-25
-26
-27
-27
-27
-27
-28
-28
-29
-29
-30
-30
-30
-31
-31
-32
-32
-32
-32
-32
-32
-33
-33
-33
-33
-33
-34
-35
-35
-35
-35
-35
-35
-35
-35
-35
-35
-36
-36
-37
-37
-37
-37
-37
-37
-37
-36
-36
-36
-37
-37
-36
-36
-36
-36
-36
-36
-36
-35
-35
-35
-35
-35
-34
-34
-34
-34
-34
-34
-34
-34
-34
-34
-34
-35
-35
-35
-34
-34
-35
-35
-35
-35
-35
-35
-35
-35
-35
-35
-35
-35
-35
-35
-35
-35
-35
-34
-34
-34
-34
-34
-33
-33
-33
-33
-33
-32
-32
-33
-32
-32
-31
-31
-30
-30
-31
-30
-30
-30
-30
-30
-30
-30
-30
-29
-30
-30
-30
-30
-30
-30
-31
-31
-31
-31
-31
-31
-31
-31
-31
-30
-30
-31
-31
-31
-30
-30
-31
-30
-30
-29
-30
-30
-30
-30
-29
-29
-29
-29
-30
-29
-29
-29
-29
-29
-29
-29
-30
-29
-29
-30
-30
-30
-30
-30
-30
-30
-31
-31
-31
-31
-31
-31
-31
-31
-31
-31
-32
-32
-31
-31
-31
-31
-31
-31
-31
-31
-31
-31
-31
-31
-31
-31
-31
-30
-31
-30
-30
-31
-31
-30
-29
-30
-29
-30
-29
-29
-29
-28
-28
-27
-27
-27
-27
-26
-25
-25
-25
-25
-24
-24
-24
-24
-24
-22
-22
-22
-22
-22
-21
-21
-21
-21
-20
-20
-21
-20
-20
-19
-19
-19
-19
-18
-19
-19
-19
-18
-19
-19
-18
-18
-18
-17
-17
-17
-17
-17
-17
-17
-16
-16
-16
-16
-15
-15
-15
-15
-14
-15
-14
-14
-14
-14
-14
-14
-13
-14
-14
-14
-15
-15
-15
-16
-16
-16
-17
-18
-18
-20
-20
-21
-21
-22
-23
-23
-24
-25
-26
-27
-28
-28
-29
-29
-30
-30
-31
-30
-31
-31
-32
-32
-32
-33
-33
-33
-34
-34
-34
-34
-35
-35
-35
-35
-36
-36
-36
-36
-36
-36
-36
-36
-36
-36
-37
-37
-37
-37
-37
-37
-38
-38
-38
-37
-37
-38
-38
-38
-38
-39
-38
-38
-38
-38
-38
-39
-39
-38
-38
-38
-38
-38
-38
-38
-38
-38
-39
-39
-39
-39
-38
-39
-38
-39
-38
-37
-37
-37
-36
-35
-35
-34
-33
-33
-32
-31
-30
-28
-27
-25
-23
-20
-18
-15
-11
-7
-3
3
9
15
21
27
34
43
51
60
68
77
86
95
103
111
118
125
132
139
145
150
154
158
162
164
167
168
171
172
172
172
170
167
164
158
153
146
137
129
119
110
99
89
76
64
51
38
26
12
0
-12
-23
-34
-43
-51
-57
-64
-68
-72
-75
-78
-79
-80
-80
-80
-80
-78
-77
-76
-76
-74
-73
-72
-70
-69
-69
-67
-65
-64
-63
-61
-60
-59
-58
-58
-55
-54
-54
-53
-51
-51
-50
-49
-49
-48
-47
-46
-46
-45
-46
-45
-45
-44
-44
-45
-44
-44
-44
-44
-43
-43
-43
-43
-43
-43
-43
-43
-43
-43
-43
-43
-43
-42
-42
-42
-42
-42
-42
-41
-41
-41
-41
-41
-41
-40
-40
-40
-40
-40
-40
-40
-40
-40
-40
-40
-39
-39
-39
-39
-39
-38
-38
-38
-39
-39
-38
-38
-38
-38
-38
-38
-38
-38
-38
-38
-39
-39
-38
-38
-38
-38
-39
-39
-39
-39
-39
-38
-39
-40
-40
-40
-40
-40
-40
-40
-40
-39
-39
-39
-40
-39
-39
-39
-39
-39
-39
-38
-38
-38
-38
-38
-38
-38
-37
-37
-37
-37
-37
-37
-37
-37
-37
-37
-37
-37
-37
-37
-36
-36
-36
-35
-36
-36
-35
-35
-35
-34
-35
-34
-34
-33
-33
-33
-32
-32
-31
-32
-31
-30
-30
-29
-29
-28
-28
-28
-27
-27
-27
-26
-26
-26
-25
-25
-25
-25
-25
-24
-24
-24
-24
-24
-23
-23
-23
-23
-22
-22
-22
-21
-21
-21
-20
-20
-19
-19
-19
-19
-17
-17
-17
-17
-17
-16
-16
-16
-16
-16
-16
-15
-16
-16
-15
-16
-16
-15
-16
-15
-16
-16
-16
-16
-16
-16
-17
-16
-17
-16
-17
-16
-16
-16
-16
-16
-16
-16
-17
-17
-16
-17
-16
-16
-16
-16
-16
-15
-16
-15
-16
-15
-16
-15
-16
-15
-16
-15
-16
-15
-16
-16
-16
-17
-16
-17
-17
-17
-17
-18
-18
-19
-19
-19
-19
-19
-21
-21
-20
-21
-22
-22
-22
-23
-23
-23
-23
-24
-24
-24
-24
-25
-25
-25
-25
-26
-26
-26
-27
-27
-27
-28
-28
-29
-29
-29
-29
-30
-30
-30
-30
-30
-30
-30
-31
-31
-31
-32
-32
-32
-31
-32
-32
-32
-32
-32
-32
-32
-32
-32
-32
-32
-32
-32
-32
-32
-32
-32
-32
-32
-32
-32
-32
-32
-32
-31
-31
-31
-31
-31
-31
-30
-30
-30
-30
-30
-30
-30
-30
-30
-30
-30
-30
-29
-29
-29
-29
-29
-29
-29
-29
-29
-29
-29
-28
-28
-29
-29
-29
-29
-28
-28
-28
-28
-28
-28
-28
-28
-28
-28
-28
-27
-26
-26
-26
-26
-26
-26
-27
-26
-26
-26
-26
-25
-25
-25
-25
-25
-25
-25
-24
-24
-24
-25
-25
-25
-25
-25
-25
-24
-24
-24
-24
-24
-24
-25
-25
-25
-25
-24
-24
-24
-24
-24
-24
-24
-24
-25
-24
-24
-24
-24
-24
-24
-24
-24
-25
-25
-25
-25
-25
-24
-24
-24
-24
-25
-25
-25
-25
-25
-25
-26
-26
-26
-26
-26
-26
-26
-26
-27
-27
-27
-27
-27
-27
-27
-27
-28
-28
-28
-28
-28
-28
-28
-28
-29
-29
-29
-29
-29
-29
-29
-29
-29
-29
-29
-29
-29
-29
-28
-28
-28
-27
-27
-26
-26
-26
-25
-25
-24
-24
-24
-23
-23
-22
-23
-22
-22
-22
-22
-22
-22
-22
-22
-22
-22
-22
-22
-22
-22
-23
-23
-22
-23
-22
-22
-22
-22
-21
-20
-20
-20
-20
-19
-19
-18
-18
-18
-18
-18
-17
-17
-17
-17
-17
-16
-15
-15
-15
-16
-15
-15
-15
-15
-15
-15
-15
-15
-15
-15
-15
-16
-15
-16
-15
-16
-15
-16
-16
-16
-16
-16
-17
-17
-17
-18
-18
-18
-20
-21
-21
-21
-23
-23
-23
-24
-25
-25
-26
-27
-28
-28
-28
-29
-29
-29
-30
-30
-31
-32
-32
-32
-33
-33
-34
-34
-35
-35
-35
-35
-35
-36
-36
-36
-36
-36
-37
-37
-38
-38
-38
-38
-38
-38
-39
-39
-39
-39
-39
-39
-39
-39
-39
-39
-39
-39
-39
-39
-39
-39
-39
-39
-39
-39
-39
-38
-38
-38
-38
-38
-38
-38
-38
-39
-39
-39
-39
-39
-39
-39
-39
-39
-39
-39
-39
-39
-38
-38
-38
-37
-36
-36
-35
-35
-34
-32
-30
-29
-27
-25
-22
-20
-16
-13
-9
-5
1
6
12
19
26
33
40
48
57
66
74
84
92
101
110
117
125
132
139
145
150
155
160
163
167
170
172
174
175
176
176
175
174
170
166
161
154
147
137
129
118
107
96
84
71
58
45
32
18
4
-8
-20
-31
-41
-50
-58
-65
-71
-76
-79
-81
-84
-84
-85
-85
-85
-84
-82
-81
-79
-77
-76
-74
-72
-70
-69
-68
-66
-65
-63
-62
-61
-60
-58
-57
-56
-55
-54
-52
-51
-50
-49
-49
-48
-47
-47
-46
-46
-46
-45
-45
-45
-44
-44
-44
-44
-45
-45
-45
-45
-45
-45
-45
-45
-45
-45
-45
-45
-45
-45
-45
-45
-45
-45
-45
-45
-45
-45
-45
-44
-44
-44
-44
-44
-44
-44
-44
-44
-44
-44
-44
-44
-43
-43
-43
-44
-43
-43
-43
-43
-43
-43
-43
-42
-42
-42
-42
-43
-43
-43
-42
-42
-42
-42
-42
-42
-42
-42
-42
-42
-42
-41
-41
-41
-41
-41
-40
-40
-41
-41
-41
-41
-40
-40
-40
-40
-40
-40
-39
-39
-39
-39
-39
-39
-39
-39
-39
-39
-39
-40
-40
-40
-40
-40
-39
-39
-39
-39
-39
-39
-39
-39
-39
-39
-38
-38
-38
-38
-38
-37
-37
-38
-38
-37
-37
-36
-36
-36
-36
-36
-36
-35
-35
-34
-34
-34
-33
-33
-33
-32
-32
-32
-32
-32
-32
-31
-30
-30
-31
-30
-30
-30
-30
-28
-28
-28
-28
-28
-27
-27
-27
-27
-27
-26
-26
-25
-25
-25
-25
-24
-23
-23
-23
-23
-23
-22
-22
-22
-22
-22
-21
-21
-20
-21
-21
-21
-21
-21
-20
-21
-21
-21
-21
-21
-21
-21
-22
-21
-21
-21
-22
-22
-22
-22
-22
-22
-22
-22
-22
-21
-22
-21
-21
-22
-21
-22
-21
-21
-21
-20
-21
-20
-21
-20
-21
-21
-20
-21
-20
-21
-20
-21
-21
-21
-21
-21
-21
-21
-22
-22
-22
-23
-23
-23
-23
-23
-25
-24
-24
-25
-26
-26
-27
-27
-27
-28
-28
-28
-29
-29
-29
-31
-31
-31
-31
-32
-32
-32
-33
-34
-34
-34
-34
-35
-36
-36
-36
-36
-36
-36
-37
-37
-37
-37
-37
-38
-38
-38
-38
-39
-39
-39
-39
-39
-38
-39
-39
-39
-39
-40
-40
-40
-40
-40
-40
-40
-40
-41
-41
-41
-41
-41
-41
-41
-41
-42
-42
-42
-41
-41
-41
-41
-41
-41
-41
-42
-42
-42
-42
-42
-42
-42
-42
-42
-41
-41
-41
-41
-41
-41
-41
-41
-41
-40
-40
-40
-40
-40
-40
-39
-39
-39
-39
-40
-40
-39
-39
-39
-39
-39
-39
-38
-38
-38
-38
-37
-37
-37
-37
-36
-36
-36
-36
-36
-36
-36
-36
-36
-36
-36
-36
-36
-36
-36
-35
-35
-35
-35
-35
-34
-34
-34
-35
-35
-34
-34
-35
-35
-35
-34
-35
-35
-35
-35
-35
-35
-35
-35
-34
-35
-35
-35
-35
-35
-35
-35
-34
-34
-34
-35
-35
-35
-35
-35
-35
-35
-35
-36
-36
-36
-36
-36
-37
-36
-36
-36
-37
-37
-37
-37
-37
-37
-37
-36
-36
-36
-36
-36
-37
-37
-36
-36
-36
-36
-37
-37
-37
-37
-37
-37
-37
-38
-38
-38
-38
-38
-38
-38
-38
-39
-39
-39
-39
-40
-40
-39
-39
-39
-39
-39
-39
-39
-39
-39
-39
-40
-40
-39
-39
-39
-39
-39
-39
-39
-39
-39
-40
-40
-40
-40
-40
-40
-40
-40
-40
-40
-40
-39
-39
-39
-39
-39
-39
-39
-38
-38
-38
-38
-37
-37
-36
-37
-36
-36
-35
-35
-34
-33
-34
-33
-33
-32
-31
-31
-31
-30
-30
-29
-30
-30
-30
-29
-29
-29
-29
-29
-29
-29
-29
-28
-28
-28
-28
-28
-28
-27
-27
-27
-27
-26
-26
-26
-26
-26
-26
-25
-25
-25
-24
-24
-23
-24
-23
-23
-22
-22
-22
-22
-21
-20
-21
-20
-19
-20
-19
-18
-18
-18
-17
-18
-17
-18
-17
-18
-18
-19
-20
-19
-20
-21
-22
-23
-23
-24
-24
-26
-26
-27
-27
-29
-29
-29
-31
-31
-31
-33
-33
-33
-34
-34
-34
-35
-36
-36
-36
-36
-37
-37
-38
-38
-38
-38
-39
-39
-39
-39
-40
-40
-41
-41
-41
-41
-42
-42
-41
-41
-41
-42
-42
-42
-42
-41
-42
-42
-42
-42
-42
-42
-42
-42
-42
-41
-42
-42
-42
-42
-42
-42
-42
-42
-43
-43
-43
-43
-43
-43
-43
-43
-43
-43
-43
-43
-44
-44
-44
-44
-43
-43
-43
-43
-43
-43
-42
-41
-41
-41
-40
-40
-39
-39
-37
-36
-35
-34
-32
-30
-27
-26
-22
-20
-16
-12
-8
-2
4
10
16
23
30
38
46
55
64
73
82
91
100
108
117
124
132
138
145
151
155
160
164
167
170
172
174
175
176
176
175
172
170
165
160
153
144
136
126
116
105
93
80
68
54
40
26
13
-1
-14
-26
-36
-47
-55
-62
-69
-75
-79
-82
-85
-86
-87
-87
-86
-85
-84
-83
-82
-80
-78
-77
-75
-73
-72
-71
-69
-67
-65
-64
-63
-62
-60
-59
-58
-57
-56
-55
-54
-53
-52
-51
-51
-50
-49
-48
-48
-48
-47
-47
-47
-47
-46
-46
-46
-46
-46
-46
-46
-46
-46
-46
-46
-46
-46
-46
-46
-46
-46
-46
-46
-46
-46
-46
-46
-46
-46
-46
-46
-46
-46
-46
-46
-46
-46
-46
-46
-45
-45
-45
-45
-45
-45
-45
-45
-45
-45
-45
-45
-45
-45
-45
-45
-45
-44
-44
-44
-44
-44
-44
-45
-45
-45
-44
-44
-44
-44
-44
-44
-44
-45
-45
-45
-45
-44
-44
-44
-44
-44
-44
-43
-43
-43
-43
-43
-43
-42
-42
-42
-43
-43
-43
-43
-42
-42
-42
-42
-42
-42
-42
-42
-42
-42
-42
-41
-41
-41
-42
-42
-41
-41
-41
-41
-40
-40
-40
-40
-39
-39
-38
-38
-38
-38
-37
-38
-38
-38
-37
-37
-37
-37
-37
-37
-37
-36
-36
-36
-35
-36
-35
-35
-35
-35
-34
-34
-34
-33
-33
-33
-32
-32
-32
-31
-31
-31
-31
-31
-30
-30
-29
-29
-29
-29
-29
-29
-28
-28
-28
-28
-28
-27
-27
-27
-27
-26
-26
-26
-26
-25
-25
-25
-25
-25
-24
-24
-24
-24
-24
-23
-23
-23
-23
-24
-24
-23
-23
-24
-24
-24
-24
-24
-24
-24
-24
-24
-24
-24
-24
-24
-24
-25
-24
-24
-24
-24
-23
-24
-23
-24
-23
-23
-23
-23
-23
-22
-23
-23
-22
-23
-23
-23
-24
-23
-23
-24
-23
-24
-24
-25
-24
-24
-25
-25
-26
-26
-26
-26
-26
-26
-28
-27
-27
-28
-29
-29
-30
-30
-30
-30
-31
-32
-32
-32
-33
-33
-33
-33
-33
-34
-35
-35
-35
-35
-35
-35
-35
-35
-37
-37
-37
-37
-37
-38
-38
-38
-39
-39
-39
-38
-38
-39
-39
-39
-39
-39
-39
-39
-40
-41
-40
-40
-40
-41
-41
-41
-41
-42
-42
-42
-41
-41
-42
-42
-42
-42
-42
-42
-42
-42
-42
-42
-41
-42
-42
-42
-42
-42
-41
-41
-41
-41
-41
-41
-41
-41
-41
-41
-41
-41
-41
-41
-41
-41
-41
-41
-41
-40
-39
-39
-39
-39
-39
-39
-39
-39
-39
-40
-40
-39
-39
-39
-39
-39
-39
-39
-38
-38
-38
-38
-38
-38
-38
-37
-37
-37
-36
-36
-36
-36
-36
-36
-36
-36
-36
-36
-36
-36
-36
-36
-36
-36
-35
-35
-35
-35
-35
-36
-36
-36
-36
-36
-35
-35
-35
-35
-35
-35
-35
-35
-35
-35
-36
-36
-35
-35
-35
-35
-35
-35
-36
-36
-36
-36
-36
-36
-35
-36
-36
-36
-36
-36
-36
-36
-37
-37
-37
-37
-37
-37
-37
-37
-37
-37
-37
-37
-37
-37
-37
-37
-37
-38
-38
-38
-38
-38
-38
-38
-38
-38
-38
-38
-38
-38
-38
-38
-38
-39
-39
-39
-39
-39
-39
-39
-38
-38
-38
-38
-38
-39
-39
-39
-39
-39
-39
-39
-39
-40
-39
-39
-39
-39
-39
-39
-38
-39
-39
-38
-38
-37
-37
-37
-37
-36
-36
-35
-35
-35
-35
-34
-33
-33
-32
-32
-32
-32
-32
-32
-31
-31
-31
-31
-31
-31
-30
-30
-30
-29
-29
-28
-28
-28
-27
-27
-27
-26
-25
-24
-24
-23
-23
-22
-22
-22
-21
-21
-21
-20
-19
-19
-19
-19
-19
-19
-18
-19
-18
-19
-18
-18
-18
-18
-17
-18
-18
-18
-18
-19
-18
-19
-19
-19
-20
-21
-21
-22
-22
-23
-23
-23
-25
-25
-26
-26
-27
-28
-28
-29
-30
-30
-31
-31
-32
-33
-33
-33
-33
-34
-34
-35
-36
-36
-37
-37
-37
-38
-38
-38
-39
-39
-39
-40
-40
-40
-40
-41
-41
-41
-41
-42
-42
-42
-42
-43
-43
-43
-43
-43
-43
-44
-44
-44
-43
-43
-43
-43
-44
-44
-44
-44
-44
-43
-43
-43
-43
-43
-43
-43
-43
-43
-43
-44
-44
-44
-44
-44
-44
-44
-44
-43
-43
-43
-43
-43
-43
-43
-43
-43
-43
-43
-42
-42
-42
-42
-41
-41
-41
-41
-39
-39
-38
-37
-35
-35
-33
-31
-28
-26
-23
-20
-16
-12
-7
-3
3
9
15
22
30
37
46
55
64
72
81
90
99
107
115
123
130
137
144
149
154
158
163
165
168
170
172
173
174
174
172
170
166
160
156
149
140
132
121
110
99
88
75
61
48
35
21
7
-5
-18
-29
-40
-50
-58
-65
-72
-77
-81
-84
-86
-87
-88
-88
-88
-87
-86
-85
-83
-82
-80
-78
-77
-76
-75
-73
-72
-70
-69
-67
-66
-65
-62
-61
-60
-59
-58
-56
-55
-54
-53
-52
-51
-51
-50
-49
-49
-49
-49
-48
-48
-48
-47
-47
-47
-47
-47
-47
-47
-47
-47
-47
-47
-47
-47
-47
-47
-46
-46
-46
-47
-47
-47
-47
-47
-46
-46
-46
-46
-45
-46
-46
-46
-46
-46
-46
-46
-45
-45
-45
-45
-45
-44
-44
-44
-44
-44
-43
-43
-43
-43
-44
-44
-43
-43
-43
-43
-43
-43
-43
-42
-42
-42
-42
-42
-42
-42
-42
-42
-42
-42
-42
-41
-41
-41
-41
-41
-41
-41
-41
-41
-41
-41
-40
-40
-40
-40
-40
-39
-39
-40
-40
-40
-39
-39
-39
-39
-40
-40
-40
-39
-39
-39
-39
-39
-39
-39
-39
-39
-38
-38
-39
-39
-39
-39
-38
-37
-37
-37
-38
-38
-38
-38
-38
-38
-38
-38
-38
-37
-37
-37
-37
-37
-37
-36
-36
-36
-35
-35
-35
-34
-34
-35
-34
-34
-33
-33
-32
-32
-31
-31
-30
-30
-30
-30
-29
-29
-29
-29
-29
-28
-27
-27
-27
-27
-26
-26
-26
-26
-26
-26
-26
-26
-25
-25
-25
-25
-24
-23
-23
-23
-23
-22
-22
-22
-22
-21
-22
-21
-21
-21
-20
-21
-20
-20
-20
-19
-19
-19
-19
-19
-19
-19
-19
-19
-19
-19
-19
-19
-18
-19
-18
-19
-19
-19
-19
-19
-19
-18
-19
-18
-19
-18
-18
-17
-18
-18
-17
-18
-18
-17
-17
-17
-17
-17
-17
-17
-18
-17
-17
-17
-18
-18
-19
-19
-19
-19
-19
-20
-20
-21
-21
-22
-22
-23
-24
-24
-25
-25
-25
-25
-26
-26
-27
-27
-27
-27
-28
-28
-28
-29
-29
-30
-30
-30
-30
-30
-31
-31
-31
-31
-32
-32
-32
-32
-32
-33
-34
-34
-34
-34
-34
-34
-35
-35
-35
-35
-35
-35
-35
-34
-35
-35
-34
-35
-35
-35
-34
-34
-34
-34
-34
-35
-35
-35
-35
-35
-35
-35
-35
-34
-35
-35
-35
-36
-35
-35
-35
-36
-36
-36
-36
-36
-36
-37
-36
-36
-36
-35
-35
-35
-35
-35
-35
-35
-35
-35
-35
-35
-34
-34
-34
-33
-33
-33
-33
-32
-32
-32
-31
-31
-31
-31
-31
-31
-31
-31
-31
-29
-29
-29
-29
-29
-29
-29
-29
-30
-30
-30
-30
-30
-30
-31
-30
-30
-30
-30
-30
-29
-29
-29
-29
-29
-29
-29
-29
-29
-29
-29
-29
-29
-29
-29
-29
-28
-29
-29
-29
-29
-28
-29
-29
-29
-29
-28
-28
-28
-28
-28
-28
-28
-28
-28
-28
-28
-28
-28
-28
-28
-28
-28
-28
-29
-29
-30
-30
-30
-30
-30
-31
-31
-31
-32
-32
-32
-33
-32
-32
-33
-33
-34
-34
-33
-34
-34
-34
-34
-35
-35
-35
-35
-35
-35
-35
-35
-34
-34
-34
-34
-34
-34
-33
-33
-33
-33
-33
-33
-33
-32
-32
-32
-31
-32
-31
-31
-31
-30
-30
-29
-29
-28
-28
-27
-27
-26
-26
-25
-25
-24
-24
-24
-23
-23
-23
-24
-24
-24
-24
-23
-23
-23
-23
-22
-22
-22
-21
-21
-20
-20
-20
-19
-18
-18
-17
-17
-17
-16
-16
-15
-15
-14
-13
-13
-13
-13
-13
-13
-12
-12
-12
-11
-12
-12
-11
-12
-12
-11
-12
-12
-12
-12
-12
-12
-13
-13
-14
-14
-14
-15
-15
-15
-16
-16
-17
-17
-19
-19
-19
-21
-21
-22
-23
-23
-24
-25
-25
-25
-26
-26
-27
-27
-28
-28
-29
-29
-29
-29
-29
-30
-30
-30
-31
-31
-31
-32
-32
-33
-34
-34
-34
-34
-35
-35
-35
-36
-36
-36
-36
-37
-37
-37
-37
-37
-37
-37
-37
-37
-37
-37
-36
-36
-37
-37
-37
-37
-36
-36
-36
-36
-36
-36
-36
-36
-36
-36
-36
-36
-36
-36
-36
-36
-37
-37
-37
-37
-37
-37
-38
-38
-38
-38
-38
-38
-37
-37
-37
-37
-36
-36
-35
-35
-34
-34
-33
-31
-31
-29
-28
-27
-25
-22
-20
-17
-14
-10
-8
-3
2
7
13
19
26
34
41
49
57
66
74
83
92
100
108
116
124
130
137
143
149
154
157
162
165
167
169
171
173
173
173
173
171
168
163
159
153
145
137
129
119
108
98
86
74
61
49
36
22
9
-3
-15
-25
-35
-43
-51
-57
-63
-68
-72
-74
-76
-77
-78
-78
-78
-76
-76
-75
-74
-73
-72
-71
-70
-68
-68
-66
-65
-64
-63
-61
-60
-59
-58
-57
-56
-54
-53
-52
-51
-50
-49
-48
-47
-46
-45
-45
-44
-43
-43
-43
-42
-42
-41
-41
-40
-40
-40
-40
-40
-40
-40
-40
-40
-40
-39
-39
-39
-39
-39
-39
-39
-39
-39
-39
-39
-40
-40
-40
-40
-40
-40
-40
-40
-40
-40
-40
-39
-39
-39
-39
-39
-39
-39
-39
-38
-38
-39
-39
-39
-39
-39
-39
-39
-38
-38
-38
-38
-38
-38
-38
-38
-38
-38
-38
-37
-37
-37
-37
-37
-37
-37
-37
-37
-36
-36
-37
-37
-37
-36
-36
-36
-36
-37
-37
-37
-37
-36
-36
-36
-36
-36
-36
-37
-37
-36
-36
-36
-36
-35
-35
-35
-35
-34
-34
-34
-34
-34
-34
-34
-33
-33
-33
-33
-33
-33
-34
-34
-33
-33
-33
-33
-33
-33
-33
-33
-32
-32
-32
-33
-33
-32
-32
-32
-32
-31
-32
-32
-32
-32
-32
-31
-31
-31
-30
-31
-30
-30
-30
-29
-29
-28
-29
-28
-28
-27
-27
-27
-27
-27
-26
-26
-26
-25
-25
-25
-24
-24
-24
-24
-23
-23
-22
-22
-22
-22
-22
-21
-21
-21
-20
-20
-20
-20
-19
-19
-19
-19
-19
-19
-18
-19
-19
-18
-19
-18
-18
-19
-18
-18
-18
-18
-18
-18
-18
-17
-17
-18
-17
-17
-17
-17
-17
-17
-17
-16
-17
-16
-16
-16
-16
-15
-15
-14
-15
-14
-14
-14
-14
-13
-14
-14
-13
-13
-14
-13
-14
-14
-14
-14
-14
-14
-15
-15
-15
-15
-16
-16
-16
-16
-16
-17
-17
-18
-18
-19
-19
-20
-20
-21
-21
-22
-22
-22
-23
-23
-23
-23
-24
-25
-25
-25
-25
-26
-26
-26
-27
-27
-27
-28
-27
-28
-28
-28
-29
-29
-29
-29
-29
-29
-29
-30
-31
-31
-31
-31
-30
-30
-30
-31
-31
-31
-31
-31
-31
-31
-31
-31
-30
-31
-31
-30
-30
-30
-30
-30
-30
-30
-30
-30
-30
-30
-30
-30
-30
-30
-29
-29
-30
-30
-30
-30
-29
-29
-29
-29
-29
-29
-29
-29
-29
-29
-30
-30
-30
-29
-29
-29
-29
-29
-29
-28
-28
-28
-28
-28
-28
-28
-28
-28
-28
-27
-27
-27
-27
-27
-27
-26
-26
-26
-25
-25
-25
-25
-25
-25
-25
-25
-25
-25
-25
-25
-25
-25
-25
-25
-24
-24
-24
-24
-24
-24
-24
-24
-24
-24
-24
-24
-24
-24
-24
-24
-24
-24
-24
-24
-24
-24
-24
-24
-25
-25
-25
-25
-25
-25
-25
-25
-25
-25
-25
-25
-25
-26
-26
-26
-26
-26
-26
-26
-26
-26
-26
-26
-26
-26
-26
-26
-26
-26
-26
-26
-26
-26
-26
-26
-26
-26
-26
-26
-25
-25
-25
-26
-25
-25
-25
-25
-25
-25
-24
-25
-24
-24
-24
-24
-23
-24
-23
-23
-22
-22
-21
-22
-21
-21
-21
-20
-20
-19
-19
-19
-18
-18
-18
-17
-17
-17
-17
-16
-16
-16
-16
-16
-15
-14
-14
-14
-13
-13
-13
-12
-11
-11
-11
-11
-10
-9
-9
-9
-8
-8
-8
-7
-7
-6
-6
-6
-5
-5
-4
-5
-4
-4
-5
-5
-5
-5
-5
-5
-5
-6
-6
-6
-7
-7
-8
-9
-9
-9
-10
-11
-11
-13
-14
-14
-15
-16
-16
-17
-19
-19
-20
-21
-21
-22
-22
-23
-23
-23
-24
-24
-25
-25
-25
-26
-26
-26
-26
-27
-27
-28
-28
-28
-29
-29
-30
-30
-30
-30
-30
-31
-32
-32
-32
-31
-32
-32
-32
-32
-32
-32
-33
-33
-33
-33
-33
-33
-33
-33
-32
-32
-33
-33
-33
-33
-33
-33
-33
-33
-33
-32
-32
-32
-32
-33
-33
-33
-33
-33
-33
-33
-33
-33
-33
-33
-33
-33
-33
-33
-33
-33
-33
-33
-32
-32
-31
-30
-30
-29
-29
-28
-27
-26
-25
-23
-22
-20
-17
-15
-14
-10
-7
-3
2
7
12
19
24
32
39
47
55
63
72
80
89
97
106
113
121
128
136
142
148
154
158
162
166
168
171
173
175
177
177
176
176
174
170
167
161
154
146
138
128
119
109
97
85
73
61
47
35
21
9
-4
-15
-25
-35
-43
-50
-56
-61
-65
-68
-71
-73
-73
-73
-73
-74
-72
-72
-71
-70
-69
-68
-67
-66
-64
-64
-62
-61
-60
-58
-57
-56
-55
-54
-53
-51
-50
-49
-49
-48
-47
-46
-45
-44
-43
-42
-41
-41
-40
-40
-39
-39
-39
-39
-38
-39
-39
-39
-39
-38
-38
-38
-38
-38
-38
-38
-38
-38
-38
-38
-37
-37
-37
-37
-37
-37
-36
-36
-36
-36
-36
-36
-36
-36
-36
-36
-36
-36
-36
-36
-36
-36
-36
-36
-37
-37
-36
-36
-36
-36
-37
-36
-36
-36
-36
-36
-36
-36
-36
-36
-36
-35
-35
-35
-35
-35
-35
-36
-36
-36
-36
-36
-36
-36
-36
-35
-35
-35
-35
-36
-35
-35
-35
-35
-35
-34
-34
-34
-34
-33
-33
-33
-33
-33
-34
-34
-33
-33
-33
-33
-32
-32
-32
-32
-32
-32
-33
-33
-33
-32
-32
-32
-31
-31
-32
-31
-31
-31
-30
-30
-30
-30
-30
-30
-29
-29
-29
-29
-29
-28
-28
-29
-29
-28
-28
-28
-28
-28
-28
-28
-29
-28
-28
-28
-27
-27
-27
-27
-27
-26
-26
-25
-25
-25
-25
-24
-24
-23
-23
-23
-23
-22
-22
-22
-22
-20
-20
-20
-20
-20
-20
-19
-19
-19
-19
-19
-18
-18
-18
-18
-18
-17
-17
-17
-18
-17
-17
-17
-17
-17
-17
-17
-17
-18
-17
-18
-18
-18
-18
-18
-18
-18
-18
-18
-18
-18
-18
-18
-18
-17
-17
-17
-16
-17
-16
-17
-16
-16
-16
-15
-16
-15
-15
-15
-15
-14
-15
-14
-15
-14
-15
-14
-15
-14
-15
-14
-15
-15
-15
-15
-16
-15
-15
-16
-16
-16
-16
-17
-17
-18
-18
-18
-19
-19
-19
-20
-20
-20
-20
-22
-22
-22
-22
-23
-23
-23
-25
-25
-25
-25
-25
-26
-26
-27
-27
-27
-27
-27
-27
-28
-29
-29
-29
-29
-29
-29
-29
-30
-30
-30
-30
-30
-30
-30
-30
-30
-30
-30
-31
-31
-32
-32
-31
-31
-31
-32
-32
-32
-32
-31
-32
-32
-32
-32
-32
-33
-33
-33
-33
-32
-32
-32
-31
-31
-31
-31
-31
-31
-31
-31
-30
-30
-30
-30
-30
-30
-30
-30
-30
-30
-29
-29
-29
-29
-29
-29
-29
-29
-29
-29
-29
-30
-30
-30
-29
-29
-29
-29
-29
-29
-29
-29
-29
-29
-29
-29
-29
-29
-29
-28
-28
-28
-27
-27
-28
-27
-27
-26
-26
-27
-26
-26
-26
-26
-26
-26
-26
-26
-26
-26
-26
-26
-26
-26
-26
-26
-26
-26
-26
-25
-25
-26
-26
-26
-26
-26
-26
-26
-26
-26
-26
-26
-26
-26
-26
-26
-26
-26
-27
-27
-27
-27
-27
-27
-27
-27
-27
-27
-27
-27
-27
-27
-26
-26
-26
-27
-27
-27
-26
-26
-26
-26
-26
-26
-26
-26
-26
-26
-26
-26
-26
-26
-26
-26
-27
-27
-27
-27
-27
-26
-27
-26
-26
-27
-26
-26
-26
-26
-27
-26
-26
-26
-25
-25
-25
-25
-24
-24
-23
-23
-22
-22
-21
-21
-21
-20
-20
-20
-20
-19
-19
-18
-18
-18
-17
-17
-17
-16
-16
-16
-16
-15
-15
-14
-15
-14
-14
-13
-13
-12
-13
-13
-12
-12
-12
-12
-12
-11
-11
-11
-11
-10
-10
-9
-9
-8
-8
-8
-8
-7
-8
-7
-8
-7
-8
-8
-7
-8
-9
-9
-9
-10
-10
-11
-12
-12
-13
-14
-14
-14
-15
-16
-17
-18
-18
-19
-20
-20
-21
-21
-22
-22
-23
-24
-24
-25
-25
-26
-27
-27
-27
-28
-28
-29
-29
-29
-29
-30
-30
-31
-32
-32
-32
-33
-33
-33
-33
-34
-34
-34
-34
-34
-34
-34
-34
-34
-34
-34
-34
-34
-34
-34
-34
-34
-34
-34
-34
-34
-34
-34
-34
-34
-34
-34
-34
-34
-34
-34
-34
-34
-35
-35
-35
-35
-35
-35
-35
-36
-35
-35
-35
-34
-35
-35
-35
-34
-34
-34
-33
-33
-32
-32
-32
-31
-30
-29
-29
-27
-26
-25
-23
-20
-18
-16
-13
-10
-7
-3
1
6
11
17
24
30
38
47
54
64
72
81
90
99
107
116
124
132
139
146
152
157
162
166
170
173
175
177
179
180
180
180
178
176
172
167
163
155
148
139
128
119
108
96
84
71
57
44
30
16
4
-8
-20
-32
-42
-50
-57
-64
-69
-73
-76
-78
-79
-80
-81
-81
-80
-79
-77
-75
-75
-72
-71
-70
-68
-66
-64
-63
-61
-60
-58
-57
-56
-54
-53
-52
-51
-50
-48
-46
-46
-45
-44
-43
-42
-42
-42
-40
-40
-39
-39
-38
-38
-38
-39
-39
-38
-38
-38
-38
-39
-39
-38
-38
-39
-39
-39
-38
-39
-39
-39
-39
-39
-39
-39
-39
-39
-39
-39
-39
-38
-38
-38
-38
-38
-38
-38
-38
-38
-37
-37
-37
-37
-37
-37
-36
-36
-36
-36
-36
-36
-36
-36
-36
-36
-36
-36
-36
-36
-36
-36
-36
-36
-36
-36
-36
-35
-35
-35
-35
-35
-35
-35
-35
-35
-35
-35
-35
-35
-34
-34
-34
-34
-34
-33
-34
-34
-33
-33
-33
-34
-33
-33
-33
-33
-33
-32
-32
-32
-32
-32
-32
-32
-32
-32
-32
-32
-32
-32
-32
-32
-32
-32
-32
-32
-31
-31
-31
-31
-30
-30
-30
-30
-29
-29
-29
-28
-28
-29
-28
-28
-28
-27
-27
-27
-26
-27
-27
-26
-26
-26
-25
-25
-25
-25
-24
-24
-24
-23
-23
-23
-23
-23
-23
-23
-23
-23
-23
-23
-22
-21
-21
-21
-21
-20
-20
-20
-20
-19
-19
-19
-19
-18
-18
-17
-17
-17
-17
-17
-17
-16
-16
-17
-16
-16
-16
-17
-16
-16
-15
-16
-16
-15
-16
-16
-16
-16
-15
-15
-15
-14
-14
-14
-15
-14
-14
-14
-14
-13
-14
-14
-14
-13
-13
-14
-13
-14
-13
-13
-13
-13
-13
-13
-13
-12
-13
-12
-13
-12
-13
-12
-13
-12
-12
-12
-12
-13
-13
-14
-13
-13
-14
-14
-15
-15
-15
-16
-16
-16
-17
-17
-17
-18
-18
-18
-18
-19
-19
-20
-20
-20
-20
-21
-21
-21
-21
-23
-23
-23
-23
-24
-24
-25
-25
-25
-25
-26
-26
-26
-27
-27
-28
-28
-28
-29
-29
-29
-29
-30
-30
-30
-30
-30
-30
-30
-30
-30
-31
-31
-31
-31
-31
-31
-31
-31
-31
-30
-30
-31
-31
-31
-31
-31
-31
-31
-31
-31
-31
-30
-30
-30
-30
-30
-30
-30
-30
-30
-30
-29
-29
-29
-30
-30
-30
-29
-29
-29
-29
-29
-29
-29
-28
-28
-28
-28
-28
-28
-28
-28
-27
-27
-27
-27
-27
-27
-26
-27
-27
-27
-27
-26
-26
-26
-26
-26
-26
-26
-26
-26
-26
-26
-26
-26
-26
-26
-25
-25
-25
-25
-25
-25
-25
-25
-25
-25
-25
-25
-25
-25
-24
-24
-24
-24
-24
-24
-24
-24
-24
-24
-24
-24
-23
-23
-23
-23
-24
-24
-24
-24
-24
-24
-24
-24
-24
-24
-25
-25
-25
-25
-25
-24
-24
-24
-24
-25
-25
-25
-25
-25
-25
-24
-24
-24
-24
-24
-24
-24
-25
-25
-25
-25
-25
-25
-25
-25
-26
-25
-25
-25
-25
-25
-25
-25
-25
-25
-25
-25
-25
-25
-25
-25
-25
-25
-24
-24
-24
-24
-24
-24
-23
-23
-22
-22
-22
-22
-21
-20
-20
-19
-20
-19
-18
-18
-18
-17
-17
-16
-17
-16
-16
-16
-16
-16
-16
-15
-16
-15
-15
-15
-14
-14
-14
-14
-14
-13
-13
-13
-12
-12
-11
-11
-10
-10
-9
-9
-9
-8
-8
-8
-8
-8
-7
-7
-7
-7
-7
-6
-6
-6
-6
-6
-6
-6
-5
-6
-5
-6
-5
-6
-5
-6
-6
-6
-7
-8
-8
-9
-9
-10
-11
-11
-12
-13
-13
-14
-15
-15
-16
-17
-17
-18
-18
-19
-19
-20
-20
-21
-21
-22
-22
-23
-23
-24
-24
-25
-25
-26
-26
-27
-27
-27
-28
-28
-28
-28
-29
-29
-29
-30
-30
-30
-30
-30
-30
-30
-30
-31
-31
-31
-31
-31
-31
-31
-31
-31
-31
-31
-31
-31
-31
-31
-31
-31
-31
-32
-32
-32
-32
-32
-32
-32
-32
-32
-32
-32
-32
-31
-32
-32
-32
-32
-32
-32
-33
-33
-33
-33
-33
-33
-33
-32
-32
-32
-31
-31
-30
-30
-29
-28
-28
-26
-25
-23
-22
-20
-18
-16
-13
-10
-7
-3
0
6
10
17
23
29
37
45
53
62
71
79
88
98
106
114
123
131
139
146
152
158
163
167
171
175
177
180
182
183
184
184
182
180
177
173
167
159
153
144
134
124
113
101
89
77
63
50
36
23
9
-4
-15
-27
-37
-46
-53
-60
-65
-70
-74
-76
-77
-78
-78
-78
-77
-76
-75
-73
-73
-70
-69
-68
-66
-65
-63
-61
-59
-58
-56
-55
-54
-52
-51
-50
-49
-47
-46
-45
-44
-43
-42
-42
-41
-40
-39
-39
-38
-38
-38
-38
-37
-37
-37
-37
-36
-36
-36
-37
-37
-37
-37
-37
-37
-37
-37
-37
-37
-37
-37
-37
-37
-37
-37
-36
-36
-36
-37
-36
-36
-36
-36
-36
-35
-35
-36
-36
-36
-36
-36
-36
-36
-35
-35
-35
-35
-34
-35
-35
-35
-34
-34
-34
-33
-34
-34
-34
-33
-33
-33
-33
-33
-32
-32
-32
-32
-32
-33
-33
-33
-33
-33
-32
-32
-32
-32
-32
-32
-32
-32
-32
-32
-32
-32
-32
-31
-31
-32
-32
-32
-32
-32
-32
-32
-32
-32
-32
-32
-32
-32
-31
-31
-31
-31
-31
-31
-31
-31
-30
-30
-31
-31
-31
-31
-30
-30
-30
-30
-30
-29
-29
-29
-29
-29
-29
-29
-28
-28
-28
-28
-27
-27
-27
-27
-27
-27
-26
-26
-26
-25
-25
-26
-26
-25
-25
-25
-24
-24
-24
-23
-23
-23
-22
-22
-22
-22
-22
-21
-21
-21
-21
-21
-20
-20
-20
-20
-20
-19
-19
-19
-19
-19
-18
-18
-18
-17
-17
-17
-17
-16
-16
-16
-16
-16
-15
-15
-15
-15
-16
-16
-16
-15
-15
-15
-16
-16
-15
-15
-16
-15
-16
-16
-15
-16
-15
-15
-16
-15
-16
-16
-16
-16
-16
-16
-16
-15
-15
-15
-15
-16
-15
-15
-15
-15
-15
-15
-15
-14
-15
-15
-15
-15
-15
-15
-15
-15
-15
-16
-16
-15
-16
-16
-16
-17
-17
-17
-18
-18
-18
-19
-19
-19
-20
-20
-21
-21
-21
-22
-22
-22
-23
-23
-24
-24
-24
-25
-25
-26
-26
-26
-27
-27
-28
-28
-28
-28
-28
-28
-29
-29
-29
-30
-30
-30
-30
-30
-30
-30
-31
-31
-31
-31
-31
-31
-32
-32
-32
-32
-32
-32
-32
-32
-32
-33
-33
-33
-32
-32
-32
-32
-33
-33
-33
-33
-33
-33
-33
-33
-33
-33
-32
-32
-32
-32
-33
-33
-33
-33
-33
-32
-32
-32
-33
-33
-33
-33
-33
-33
-33
-33
-33
-33
-33
-32
-32
-32
-32
-32
-32
-32
-32
-32
-32
-32
-31
-31
-31
-31
-31
-31
-30
-30
-30
-30
-30
-30
-30
-30
-30
-29
-29
-29
-29
-29
-29
-29
-29
-29
-29
-29
-29
-29
-29
-28
-28
-28
-28
-28
-28
-28
-28
-28
-28
-28
-28
-28
-28
-28
-28
-28
-28
-28
-28
-28
-28
-28
-28
-28
-28
-28
-27
-27
-27
-27
-28
-28
-28
-28
-28
-28
-28
-28
-28
-28
-29
-29
-29
-29
-29
-29
-29
-30
-30
-30
-30
-30
-30
-30
-30
-31
-31
-31
-31
-31
-31
-31
-31
-31
-31
-31
-31
-31
-30
-30
-30
-30
-31
-31
-31
-31
-31
-30
-30
-30
-30
-30
-30
-30
-30
-30
-31
-31
-31
-31
-31
-31
-31
-31
-31
-31
-31
-31
-31
-31
-31
-30
-30
-30
-29
-28
-29
-29
-29
-28
-27
-27
-27
-26
-26
-25
-24
-25
-24
-24
-24
-23
-23
-23
-23
-23
-23
-23
-23
-23
-22
-22
-22
-22
-21
-21
-21
-20
-20
-20
-19
-18
-17
-17
-16
-16
-15
-15
-14
-13
-13
-13
-13
-12
-12
-12
-11
-11
-11
-11
-11
-11
-11
-11
-11
-11
-11
-11
-11
-12
-11
-11
-12
-11
-12
-13
-12
-13
-12
-13
-14
-13
-14
-14
-15
-15
-16
-17
-17
-17
-17
-18
-19
-20
-20
-20
-22
-22
-23
-24
-24
-25
-25
-26
-27
-27
-27
-27
-28
-29
-29
-29
-30
-30
-30
-31
-31
-31
-31
-31
-31
-32
-32
-32
-31
-32
-32
-32
-32
-32
-32
-32
-32
-32
-32
-33
-33
-33
-33
-33
-33
-33
-33
-33
-34
-34
-34
-34
-34
-34
-34
-34
-34
-34
-34
-34
-34
-34
-35
-35
-35
-35
-35
-35
-35
-35
-35
-35
-35
-35
-35
-35
-36
-35
-35
-35
-34
-34
-33
-33
-32
-32
-31
-31
-30
-29
-28
-26
-24
-22
-21
-19
-16
-13
-9
-5
-1
3
7
13
20
27
34
41
49
57
66
75
83
92
100
109
116
124
132
138
145
151
155
160
165
168
171
173
176
177
179
179
178
176
174
170
164
159
152
144
135
126
115
104
92
80
67
54
40
27
14
2
-10
-21
-32
-40
-49
-56
-62
-67
-70
-73
-75
-76
-76
-77
-77
-76
-75
-74
-73
-71
-70
-68
-67
-66
-64
-63
-62
-61
-59
-58
-57
-55
-53
-52
-50
-49
-49
-48
-46
-45
-44
-43
-43
-42
-41
-40
-40
-40
-39
-39
-39
-39
-39
-39
-39
-39
-39
-39
-39
-39
-39
-39
-39
-39
-39
-40
-40
-39
-39
-39
-39
-38
-38
-38
-38
-37
-37
-37
-37
-37
-36
-36
-36
-36
-35
-35
-35
-35
-35
-35
-34
-35
-35
-35
-35
-35
-35
-35
-35
-35
-35
-35
-35
-35
-35
-36
-36
-35
-35
-35
-35
-35
-34
-34
-35
-35
-35
-35
-35
-35
-34
-34
-34
-34
-34
-34
-35
-35
-35
-35
-35
-34
-34
-34
-34
-34
-34
-34
-34
-34
-34
-33
-33
-33
-33
-33
-33
-33
-32
-32
-32
-32
-32
-32
-32
-32
-32
-32
-32
-32
-31
-31
-31
-31
-31
-31
-31
-31
-30
-30
-31
-30
-30
-30
-29
-29
-29
-29
-29
-28
-28
-27
-28
-27
-27
-27
-28
-27
-27
-27
-26
-27
-27
-25
-26
-26
-26
-25
-25
-25
-25
-25
-24
-24
-24
-23
-23
-23
-23
-22
-22
-22
-22
-22
-21
-20
-20
-20
-20
-20
-19
-19
-18
-18
-18
-18
-17
-18
-18
-17
-17
-17
-18
-17
-17
-17
-17
-18
-17
-18
-17
-18
-17
-18
-18
-18
-18
-19
-18
-18
-18
-17
-17
-17
-16
-16
-16
-17
-16
-16
-16
-15
-15
-14
-14
-14
-13
-14
-13
-13
-12
-13
-12
-11
-12
-11
-12
-11
-12
-12
-12
-13
-12
-13
-12
-13
-13
-12
-13
-13
-13
-14
-14
-14
-13
-14
-14
-15
-14
-15
-15
-15
-17
-17
-17
-17
-18
-19
-19
-19
-19
-20
-20
-21
-21
-22
-22
-22
-23
-23
-24
-24
-24
-24
-24
-25
-26
-26
-26
-26
-26
-26
-26
-26
-27
-28
-28
-28
-28
-28
-28
-28
-29
-29
-29
-29
-29
-29
-29
-29
-29
-29
-29
-29
-29
-29
-30
-30
-30
-30
-30
-30
-30
-30
-30
-30
-30
-30
-30
-30
-30
-30
-30
-30
-30
-30
-30
-30
-30
-29
-29
-29
-29
-29
-28
-28
-28
-28
-28
-28
-28
-28
-28
-28
-29
-29
-28
-28
-28
-28
-27
-27
-27
-27
-27
-27
-27
-27
-27
-26
-26
-26
-26
-26
-25
-25
-25
-25
-25
-25
-25
-25
-25
-25
-26
-26
-26
-25
-25
-25
-25
-25
-25
-25
-25
-25
-25
-25
-25
-24
-24
-24
-24
-24
-24
-24
-24
-24
-23
-23
-23
-23
-23
-23
-22
-22
-22
-22
-22
-22
-23
-23
-23
-23
-23
-23
-23
-23
-23
-23
-23
-23
-23
-23
-23
-23
-24
-24
-24
-24
-24
-24
-24
-24
-24
-24
-25
-25
-25
-25
-25
-26
-26
-26
-26
-26
-26
-26
-26
-26
-26
-26
-25
-25
-25
-25
-25
-25
-24
-24
-25
-24
-23
-23
-23
-23
-22
-22
-21
-20
-21
-20
-20
-20
-20
-19
-19
-19
-19
-18
-18
-18
-19
-18
-18
-18
-17
-17
-17
-17
-16
-16
-16
-15
-15
-15
-14
-13
-12
-12
-11
-11
-10
-9
-9
-8
-8
-7
-7
-7
-6
-7
-7
-7
-7
-7
-6
-6
-6
-6
-5
-6
-5
-6
-5
-6
-5
-6
-5
-6
-6
-5
-6
-6
-7
-6
-7
-7
-8
-8
-8
-9
-10
-10
-10
-10
-11
-12
-12
-13
-13
-14
-15
-15
-16
-17
-18
-18
-19
-19
-20
-20
-21
-22
-22
-22
-24
-24
-24
-25
-26
-27
-27
-27
-27
-28
-28
-28
-28
-29
-29
-29
-29
-29
-28
-28
-29
-29
-29
-29
-29
-29
-29
-29
-29
-29
-29
-29
-29
-30
-30
-30
-30
-31
-31
-31
-31
-31
-31
-31
-30
-30
-30
-30
-30
-30
-30
-30
-30
-30
-30
-30
-30
-30
-29
-29
-29
-30
-30
-30
-30
-30
-30
-30
-29
-30
-30
-29
-29
-28
-27
-27
-26
-25
-24
-24
-22
-21
-19
-17
-15
-13
-11
-8
-4
0
4
9
13
19
26
32
39
47
55
63
72
80
88
97
105
113
121
128
135
142
149
154
158
163
167
169
172
175
175
177
177
178
176
174
171
167
163
156
149
141
132
123
112
101
91
78
66
53
41
28
16
4
-7
-17
-28
-36
-43
-50
-55
-59
-63
-65
-67
-68
-69
-69
-69
-68
-67
-66
-65
-64
-64
-62
-61
-60
-59
-57
-56
-55
-54
-53
-52
-51
-49
-48
-47
-46
-45
-43
-43
-42
-41
-40
-39
-39
-38
-38
-38
-37
-36
-37
-36
-36
-36
-36
-36
-36
-36
-36
-36
-36
-35
-35
-35
-35
-35
-35
-35
-34
-35
-35
-35
-34
-34
-34
-34
-33
-33
-33
-33
-32
-32
-32
-32
-32
-32
-32
-31
-31
-31
-31
-31
-30
-30
-30
-30
-30
-30
-30
-29
-29
-29
-29
-28
-29
-29
-29
-29
-29
-29
-29
-29
-29
-29
-29
-29
-29
-30
-30
-30
-31
-30
-30
-30
-30
-30
-30
-31
-31
-31
-30
-30
-30
-30
-30
-30
-30
-30
-30
-30
-30
-30
-29
-29
-29
-29
-29
-29
-30
-29
-29
-29
-29
-29
-29
-29
-29
-29
-28
-28
-29
-28
-28
-28
-28
-28
-28
-28
-28
-28
-29
-28
-28
-28
-28
-27
-27
-27
-27
-27
-27
-26
-26
-26
-26
-25
-25
-24
-25
-24
-24
-23
-24
-23
-22
-22
-22
-22
-22
-21
-21
-20
-20
-19
-19
-19
-18
-18
-18
-18
-18
-18
-18
-18
-18
-18
-17
-17
-17
-17
-17
-17
-17
-15
-15
-15
-15
-15
-15
-15
-14
-14
-13
-13
-13
-12
-12
-12
-12
-11
-12
-12
-11
-12
-11
-12
-12
-12
-13
-12
-13
-13
-12
-13
-13
-13
-13
-13
-13
-13
-13
-12
-13
-13
-12
-12
-12
-12
-12
-11
-11
-11
-11
-10
-11
-10
-9
-10
-9
-9
-9
-9
-8
-8
-7
-8
-7
-8
-7
-8
-9
-8
-9
-8
-9
-9
-9
-10
-10
-11
-11
-11
-12
-12
-12
-13
-14
-14
-15
-15
-15
-16
-16
-16
-16
-16
-16
-17
-18
-18
-18
-19
-19
-19
-19
-19
-19
-20
-20
-21
-21
-21
-21
-21
-22
-23
-23
-23
-23
-23
-23
-23
-24
-24
-24
-24
-24
-24
-24
-24
-24
-24
-24
-24
-24
-24
-24
-24
-23
-23
-23
-23
-23
-24
-24
-24
-24
-24
-24
-23
-23
-23
-23
-23
-23
-24
-24
-24
-24
-24
-24
-23
-23
-23
-23
-23
-24
-24
-23
-23
-23
-23
-23
-23
-23
-23
-22
-23
-23
-23
-23
-23
-22
-22
-22
-22
-22
-21
-21
-21
-21
-21
-21
-21
-21
-21
-21
-21
-21
-21
-20
-20
-20
-20
-19
-19
-19
-19
-18
-19
-19
-19
-19
-18
-19
-19
-19
-19
-19
-19
-19
-18
-18
-19
-20
-20
-20
-20
-20
-19
-19
-20
-20
-20
-20
-20
-19
-19
-19
-19
-20
-20
-20
-20
-20
-20
-20
-20
-20
-20
-20
-20
-20
-20
-20
-20
-20
-20
-20
-20
-20
-20
-21
-21
-21
-20
-20
-21
-21
-21
-21
-21
-21
-22
-22
-22
-22
-22
-22
-22
-22
-22
-22
-23
-23
-23
-23
-22
-22
-22
-22
-22
-22
-22
-21
-22
-21
-21
-20
-20
-20
-19
-19
-19
-19
-19
-18
-18
-18
-16
-16
-16
-16
-15
-15
-15
-15
-14
-14
-14
-13
-13
-13
-13
-12
-13
-12
-12
-11
-11
-11
-10
-9
-10
-9
-8
-8
-8
-7
-6
-7
-6
-6
-5
-5
-5
-5
-5
-4
-3
-3
-3
-4
-4
-3
-4
-3
-3
-4
-3
-3
-3
-3
-4
-3
-3
-4
-3
-4
-5
-5
-6
-5
-6
-6
-7
-8
-8
-9
-10
-11
-11
-12
-12
-13
-13
-14
-15
-15
-17
-17
-18
-18
-19
-20
-20
-21
-22
-22
-23
-23
-24
-25
-25
-25
-26
-27
-27
-27
-28
-28
-28
-28
-28
-29
-29
-29
-29
-30
-30
-30
-30
-29
-30
-30
-30
-30
-30
-30
-30
-30
-30
-30
-31
-31
-31
-31
-31
-31
-31
-30
-30
-31
-31
-31
-31
-31
-31
-31
-31
-31
-31
-31
-31
-31
-31
-31
-31
-31
-31
-31
-31
-31
-30
-30
-30
-31
-30
-30
-29
-29
-28
-28
-27
-27
-26
-25
-24
-23
-22
-20
-18
-16
-14
-12
-8
-5
-1
2
6
12
18
24
30
38
45
53
61
70
79
88
97
106
114
122
130
138
144
150
156
161
165
169
172
174
176
178
179
180
180
179
177
174
170
164
158
150
141
132
123
111
101
89
77
65
51
38
26
13
1
-11
-21
-31
-39
-47
-54
-58
-63
-67
-69
-72
-72
-72
-72
-72
-71
-70
-69
-68
-66
-66
-64
-63
-62
-61
-60
-58
-57
-56
-56
-54
-53
-52
-51
-49
-48
-48
-47
-46
-45
-44
-43
-42
-41
-41
-40
-39
-39
-39
-38
-38
-37
-37
-37
-37
-37
-37
-37
-37
-37
-37
-37
-37
-37
-37
-36
-36
-36
-36
-36
-36
-36
-36
-36
-36
-36
-36
-36
-36
-36
-36
-36
-36
-35
-35
-35
-35
-35
-35
-35
-34
-34
-35
-35
-35
-35
-35
-35
-35
-35
-34
-34
-34
-35
-35
-34
-34
-34
-34
-34
-34
-34
-34
-33
-33
-33
-33
-33
-33
-33
-32
-32
-32
-32
-32
-32
-33
-33
-33
-33
-33
-33
-33
-34
-34
-34
-34
-34
-34
-34
-34
-34
-33
-33
-33
-33
-33
-33
-32
-32
-32
-32
-32
-31
-31
-31
-31
-30
-30
-30
-30
-31
-31
-30
-30
-30
-30
-30
-30
-30
-30
-29
-29
-29
-29
-29
-29
-28
-28
-28
-28
-27
-28
-28
-27
-27
-27
-26
-26
-26
-26
-25
-25
-25
-25
-25
-24
-24
-24
-23
-23
-23
-23
-23
-23
-23
-23
-23
-22
-22
-22
-22
-21
-21
-21
-20
-20
-20
-20
-20
-19
-19
-19
-19
-19
-18
-18
-18
-18
-17
-17
-17
-17
-17
-17
-16
-16
-16
-17
-16
-16
-16
-16
-16
-16
-16
-16
-16
-16
-17
-16
-17
-16
-17
-17
-16
-17
-17
-16
-17
-16
-17
-16
-16
-16
-16
-15
-16
-15
-15
-15
-14
-14
-15
-14
-14
-14
-14
-14
-14
-14
-14
-15
-14
-15
-15
-15
-15
-16
-16
-16
-17
-17
-17
-18
-18
-19
-18
-19
-20
-19
-20
-20
-20
-21
-21
-22
-22
-22
-23
-23
-23
-24
-24
-24
-25
-25
-26
-26
-27
-27
-27
-28
-28
-28
-29
-30
-30
-30
-30
-30
