# Simple Text Format
# Sampling Rate (Hz):= 1200.00
# Resolution:= 12
# Labels:= ECG	aVF
# Age:=	20
# Gender:=	Feminino
0
0
0
0
0
0
0
0
0
0
0
0
0
0
0
0
0
0
0
0
0
0
0
0
0
0
0
0
0
0
0
0
0
0
0
0
0
0
0
0
0
0
0
0
0
0
0
0
0
0
0
0
0
0
0
0
0
0
0
0
0
0
0
0
0
0
0
0
0
0
0
0
0
0
0
0
0
0
0
0
0
0
0
0
0
0
0
0
0
0
0
0
0
0
0
0
0
0
0
0
0
0
0
0
0
0
0
0
0
0
0
0
0
0
0
0
0
0
0
0
0
0
0
0
0
0
0
0
0
0
0
0
0
0
0
0
0
0
0
0
0
0
0
0
0
0
0
0
0
0
0
0
0
0
0
0
0
0
0
0
0
0
0
0
0
0
0
0
0
0
0
0
0
0
0
0
0
0
0
0
0
0
0
0
0
0
0
0
0
0
0
0
0
0
0
0
0
0
0
0
0
0
0
0
0
0
0
0
0
0
0
0
0
0
0
0
0
0
0
0
0
0
0
0
0
0
0
0
0
0
0
0
0
0
0
0
0
0
0
0
0
0
0
0
0
0
0
0
0
0
0
0
0
0
0
0
0
0
0
0
0
0
0
0
0
0
0
0
0
0
0
0
0
0
0
0
0
0
0
0
0
0
0
0
0
0
0
0
0
0
0
0
0
0
0
0
0
0
0
0
0
0
0
0
0
0
0
0
0
0
0
0
0
0
0
0
0
0
0
0
0
0
0
0
0
0
0
0
0
0
0
0
0
0
0
0
0
0
0
0
0
0
0
0
0
0
0
0
0
0
0
0
0
0
0
0
0
0
0
0
0
0
0
0
0
0
0
0
0
0
0
0
0
0
0
0
0
0
0
0
0
0
0
0
0
0
0
0
0
0
0
0
0
0
0
0
0
0
0
0
0
0
0
0
0
0
0
0
0
0
0
0
0
0
0
0
0
0
0
0
0
0
0
0
0
0
0
0
0
0
0
0
0
0
0
0
0
0
0
0
0
0
0
0
0
0
0
0
0
0
0
0
0
0
0
0
0
0
0
0
0
0
0
0
0
0
0
0
0
0
0
0
0
0
0
0
0
0
0
0
0
0
0
0
0
0
0
0
0
0
0
0
0
0
0
0
0
0
0
0
0
0
0
0
0
0
0
0
0
0
0
0
0
0
0
0
0
0
0
0
0
0
0
0
0
0
0
0
0
0
0
0
0
0
0
0
0
0
0
0
0
0
0
0
0
0
0
0
0
0
0
0
0
0
0
0
0
0
0
0
0
0
0
0
0
0
0
0
0
0
0
0
0
0
0
0
0
0
0
0
0
0
0
0
0
0
0
0
0
0
0
0
0
0
0
0
0
0
0
0
0
0
0
0
0
0
0
0
0
0
0
0
0
0
0
0
0
0
0
0
0
0
0
0
0
0
0
0
0
0
0
0
0
0
0
0
0
0
0
0
0
0
0
0
0
0
0
0
0
0
0
0
0
0
0
0
0
0
0
0
0
0
0
0
0
0
0
0
0
0
0
0
0
0
0
0
0
0
0
0
0
0
0
0
0
0
0
0
0
0
0
0
0
0
0
0
0
0
0
0
0
0
0
0
0
0
0
0
0
0
0
0
0
0
0
0
0
0
0
0
0
0
0
0
0
0
0
0
0
0
0
0
0
0
0
0
0
0
0
0
0
0
0
0
0
0
0
0
0
0
0
0
0
0
0
0
0
0
0
0
0
0
0
0
0
0
0
0
0
0
0
0
0
0
0
0
0
0
0
0
0
0
0
0
0
0
0
0
0
0
0
0
0
0
0
0
0
0
0
0
0
0
0
0
0
0
0
0
0
0
0
0
0
0
0
0
0
0
0
0
0
0
0
0
0
0
0
0
0
0
0
0
0
0
0
0
0
0
0
0
0
0
0
0
0
0
0
0
0
0
0
0
0
0
0
0
0
0
0
0
0
0
0
0
0
0
0
0
0
0
0
0
0
0
0
0
0
0
0
0
0
0
0
0
0
0
0
0
0
0
0
0
0
0
0
0
0
0
0
0
0
0
0
0
0
0
0
0
0
0
0
0
0
0
0
0
0
0
0
0
0
0
0
0
0
0
0
0
0
0
0
0
0
0
0
0
0
0
0
0
0
0
0
0
0
0
0
0
0
0
0
0
0
0
0
0
0
0
0
0
0
0
0
0
0
0
0
0
0
0
0
0
0
0
0
0
0
0
0
0
0
0
0
0
0
0
0
0
0
0
0
0
0
0
0
0
0
0
0
0
0
0
0
0
0
0
0
0
0
0
0
0
0
0
0
0
0
0
0
0
0
0
0
0
0
0
0
0
0
0
0
0
0
0
0
0
0
0
0
0
0
0
0
0
0
0
0
0
0
0
0
0
0
0
0
0
0
0
0
0
0
0
0
0
0
0
0
0
0
0
0
0
0
0
0
0
0
0
0
0
0
0
0
0
0
0
0
0
0
0
0
0
0
0
0
0
0
0
0
0
0
0
0
0
0
0
0
0
0
0
0
0
0
0
0
0
0
0
0
0
0
0
0
0
0
0
0
0
0
0
0
0
0
0
0
0
0
0
0
0
0
0
0
0
0
0
0
0
0
0
0
0
0
0
0
0
0
0
0
0
0
0
0
0
0
0
0
0
0
0
0
-10
-10
-10
-10
-11
-11
-11
-11
-11
-10
-10
-10
-10
-10
-10
-10
-10
-10
-10
-10
-9
-9
-9
-9
-8
-8
-8
-7
-7
-6
-6
-5
-5
-4
-4
-3
-2
-1
-1
0
1
2
2
3
4
4
5
5
6
7
7
8
9
9
10
11
11
12
12
12
13
13
14
15
16
17
18
19
20
20
21
23
24
25
26
27
28
28
29
30
30
31
31
31
31
31
31
31
31
30
30
29
28
27
26
26
25
24
23
22
21
20
19
18
17
16
14
13
12
10
9
8
7
6
4
3
2
1
0
-1
-2
-3
-4
-5
-6
-6
-7
-7
-8
-9
-9
-10
-10
-11
-12
-12
-13
-13
-14
-14
-15
-15
-16
-16
-17
-17
-18
-18
-19
-19
-20
-20
-20
-20
-20
-20
-21
-21
-20
-21
-21
-21
-21
-21
-21
-21
-21
-21
-21
-21
-21
-21
-21
-21
-21
-22
-22
-22
-22
-22
-22
-22
-22
-22
-22
-22
-22
-22
-22
-22
-22
-21
-21
-21
-21
-22
-22
-22
-22
-22
-22
-22
-22
-23
-23
-23
-23
-23
-23
-23
-23
-23
-22
-21
-21
-19
-18
-16
-14
-12
-9
-6
-2
2
7
11
17
23
29
36
44
52
61
70
80
90
100
111
121
133
144
154
165
176
187
197
207
217
227
235
243
250
256
261
264
266
266
265
263
259
253
246
239
229
219
207
194
180
165
150
134
118
102
86
70
55
42
28
15
3
-7
-17
-26
-34
-42
-48
-53
-57
-61
-64
-66
-68
-69
-70
-70
-71
-70
-70
-69
-68
-67
-66
-64
-62
-61
-59
-57
-56
-54
-52
-50
-48
-46
-44
-43
-42
-41
-39
-38
-36
-35
-34
-34
-33
-32
-32
-31
-31
-30
-30
-30
-30
-30
-30
-30
-30
-30
-30
-29
-29
-29
-29
-29
-29
-29
-29
-29
-29
-29
-29
-29
-29
-29
-29
-29
-28
-28
-28
-28
-28
-27
-27
-27
-27
-27
-26
-26
-26
-26
-26
-26
-26
-26
-26
-26
-26
-27
-27
-27
-27
-28
-28
-28
-28
-28
-28
-28
-28
-28
-28
-28
-28
-28
-28
-28
-28
-28
-28
-28
-28
-28
-28
-28
-28
-28
-28
-28
-28
-28
-28
-28
-28
-29
-29
-29
-30
-30
-30
-30
-31
-31
-31
-31
-31
-31
-32
-32
-32
-32
-32
-32
-32
-32
-32
-32
-32
-33
-33
-33
-33
-33
-33
-33
-34
-34
-34
-34
-34
-35
-35
-35
-35
-35
-35
-36
-36
-36
-36
-36
-37
-37
-38
-38
-38
-38
-39
-39
-39
-39
-40
-40
-40
-41
-41
-42
-42
-42
-42
-42
-42
-42
-42
-42
-42
-42
-42
-42
-41
-41
-41
-40
-39
-39
-38
-38
-38
-37
-37
-36
-36
-35
-35
-34
-34
-34
-33
-33
-33
-32
-32
-32
-32
-31
-31
-31
-30
-30
-30
-29
-29
-29
-28
-28
-28
-27
-27
-27
-26
-25
-24
-24
-23
-22
-21
-20
-20
-19
-17
-16
-15
-14
-13
-12
-11
-10
-8
-7
-6
-5
-5
-3
-2
-2
-1
0
0
1
2
2
2
3
4
4
4
5
5
5
5
6
6
7
7
7
7
7
7
8
8
8
8
8
8
8
8
8
7
7
7
7
7
6
6
6
6
5
5
4
4
4
3
3
3
3
2
2
2
2
2
1
1
1
1
1
1
1
1
2
2
2
2
2
2
2
2
2
2
2
2
2
2
2
2
2
2
2
2
2
2
2
2
2
1
1
1
1
1
1
1
1
0
0
0
0
0
1
1
1
1
2
2
2
2
3
3
3
3
4
4
4
4
5
5
5
5
5
5
5
5
5
5
5
5
5
5
5
5
5
5
4
4
4
4
4
4
4
4
4
4
4
4
4
4
4
4
4
4
4
4
4
4
4
4
4
4
4
4
4
4
4
4
4
4
4
4
4
4
4
4
4
4
4
4
4
4
4
5
5
5
5
5
5
6
6
6
6
6
6
6
6
6
6
6
6
6
6
6
6
6
5
5
5
5
5
5
5
5
5
5
5
5
5
5
4
5
5
5
5
5
5
5
6
6
6
6
6
6
6
6
6
7
7
7
7
8
8
8
9
9
10
10
11
12
12
13
14
15
16
16
17
18
19
19
20
20
21
22
22
23
23
24
25
25
26
26
27
27
27
28
29
29
30
31
31
32
33
34
35
35
35
36
36
37
37
38
38
38
38
38
39
38
38
38
38
37
37
36
36
35
35
34
34
33
33
33
32
31
31
31
30
30
30
29
29
28
27
27
26
25
25
24
23
22
21
19
19
18
17
15
15
14
13
12
11
10
9
8
8
7
7
6
5
4
4
4
3
2
2
1
1
0
0
0
0
-1
-1
-2
-2
-2
-2
-3
-3
-3
-3
-3
-3
-4
-4
-4
-4
-4
-4
-4
-4
-4
-4
-4
-4
-4
-4
-4
-4
-4
-4
-4
-4
-5
-5
-5
-5
-5
-5
-5
-5
-5
-5
-5
-5
-5
-5
-5
-4
-4
-4
-4
-4
-4
-4
-4
-4
-4
-4
-4
-4
-4
-4
-4
-3
-2
-2
-1
0
1
2
3
5
7
10
12
15
19
23
27
32
37
43
49
56
64
71
80
89
98
109
119
129
140
150
161
171
181
192
202
212
222
231
240
248
255
261
266
270
272
273
273
271
267
262
255
247
239
228
216
203
189
175
159
143
127
110
94
78
63
49
35
22
11
0
-10
-18
-26
-33
-38
-42
-46
-49
-51
-52
-54
-54
-55
-54
-54
-53
-52
-51
-50
-48
-47
-45
-44
-43
-41
-39
-38
-36
-34
-33
-31
-29
-28
-27
-25
-24
-22
-21
-20
-19
-18
-17
-17
-16
-15
-15
-14
-14
-13
-13
-13
-13
-12
-12
-12
-12
-12
-12
-12
-12
-13
-13
-13
-13
-13
-13
-13
-13
-14
-14
-14
-14
-14
-14
-14
-14
-14
-14
-14
-14
-14
-14
-14
-14
-13
-13
-13
-13
-13
-13
-12
-12
-12
-12
-11
-11
-11
-11
-10
-10
-10
-10
-10
-10
-10
-10
-10
-10
-10
-10
-11
-11
-11
-11
-12
-12
-12
-13
-13
-13
-13
-13
-13
-14
-14
-14
-14
-14
-14
-14
-14
-14
-14
-14
-14
-14
-14
-14
-14
-14
-14
-14
-14
-14
-14
-14
-15
-15
-15
-15
-15
-16
-16
-16
-16
-16
-16
-16
-17
-17
-17
-17
-17
-17
-17
-18
-18
-18
-18
-18
-19
-19
-19
-19
-20
-20
-19
-19
-19
-20
-20
-20
-20
-20
-20
-21
-21
-21
-20
-20
-21
-21
-21
-21
-20
-21
-21
-21
-21
-21
-20
-20
-20
-20
-20
-20
-20
-19
-19
-19
-18
-18
-18
-18
-17
-17
-17
-16
-16
-16
-15
-15
-14
-14
-13
-13
-12
-12
-11
-11
-11
-10
-10
-10
-9
-9
-8
-8
-7
-7
-7
-6
-6
-6
-6
-5
-5
-4
-3
-3
-2
-2
-1
-1
0
0
1
1
2
3
3
4
5
6
6
7
8
9
10
11
12
13
13
14
15
16
16
17
18
18
19
19
20
20
20
20
21
21
21
21
21
21
21
21
20
20
20
20
20
20
20
19
19
19
18
18
18
18
18
18
18
17
17
17
16
16
16
15
15
15
15
14
14
14
14
14
14
14
14
13
13
13
13
13
13
13
13
13
13
13
13
13
13
13
13
13
13
13
13
13
13
13
13
13
13
13
13
13
13
14
14
14
14
14
14
14
14
14
14
14
14
13
13
13
13
13
13
12
12
12
12
11
11
11
11
11
11
11
11
11
11
11
11
11
12
12
12
12
12
12
12
12
12
13
13
13
13
13
13
13
13
14
14
14
14
14
14
14
15
15
15
15
15
15
15
15
15
15
14
14
14
14
14
14
14
14
13
13
13
13
13
13
13
13
13
13
14
14
14
14
14
14
14
14
14
14
14
14
14
14
14
15
15
15
15
15
15
16
16
16
16
16
17
17
17
17
17
17
17
17
17
17
17
17
17
16
16
16
16
16
16
15
15
15
15
15
15
15
15
15
15
14
14
14
14
14
14
14
14
14
14
14
14
14
14
14
13
13
13
13
13
13
13
13
13
14
14
14
14
14
14
14
14
14
14
14
14
14
14
14
14
14
14
14
14
14
14
14
15
15
15
16
17
17
18
19
20
21
22
23
24
25
26
27
27
28
29
30
30
31
31
32
32
33
32
33
33
33
33
33
33
32
32
33
33
33
33
34
34
34
34
35
35
36
36
36
37
37
38
38
39
39
39
39
39
39
39
39
38
38
38
37
37
36
35
35
34
33
33
32
31
31
30
29
28
28
27
26
25
25
25
24
24
23
23
22
21
21
20
20
19
19
19
18
17
17
16
16
16
15
15
14
14
13
12
12
12
11
11
10
10
9
9
9
8
8
7
6
6
6
5
5
4
4
4
4
3
3
3
3
3
3
3
3
3
3
3
3
3
3
3
3
3
3
3
3
3
3
3
3
3
3
3
3
3
3
3
4
4
4
4
4
4
4
4
4
4
4
4
4
5
5
5
4
4
4
3
3
3
3
3
3
3
4
4
5
6
7
8
9
11
13
15
17
20
23
26
30
34
39
44
49
55
62
69
76
84
92
102
111
121
131
141
151
161
172
182
192
203
213
223
232
241
249
256
263
268
272
275
275
275
272
268
263
256
248
238
227
214
201
187
171
155
139
122
106
90
74
59
45
31
19
8
-2
-11
-19
-26
-31
-36
-39
-43
-44
-46
-46
-47
-47
-46
-46
-45
-44
-42
-41
-40
-38
-36
-35
-33
-31
-29
-28
-26
-24
-23
-21
-20
-18
-17
-16
-14
-13
-12
-11
-10
-9
-9
-8
-8
-8
-7
-7
-7
-6
-6
-6
-6
-6
-6
-6
-6
-6
-6
-6
-6
-6
-5
-5
-5
-5
-5
-4
-4
-4
-4
-4
-4
-3
-3
-4
-4
-4
-4
-3
-3
-3
-3
-3
-3
-3
-3
-3
-3
-3
-4
-4
-4
-4
-4
-4
-4
-4
-4
-4
-5
-5
-5
-5
-5
-5
-6
-6
-6
-6
-6
-6
-6
-6
-6
-6
-6
-7
-7
-7
-7
-7
-7
-7
-8
-8
-8
-8
-8
-9
-9
-9
-9
-9
-9
-8
-8
-8
-8
-8
-8
-8
-8
-8
-8
-8
-8
-8
-8
-8
-8
-8
-8
-9
-9
-9
-9
-10
-10
-10
-11
-11
-11
-11
-11
-12
-12
-12
-12
-12
-12
-12
-12
-12
-12
-12
-12
-12
-12
-12
-12
-12
-12
-11
-12
-12
-12
-12
-12
-12
-13
-13
-13
-13
-13
-13
-13
-13
-13
-13
-13
-13
-13
-13
-13
-12
-12
-12
-11
-11
-11
-11
-10
-10
-9
-9
-9
-8
-8
-7
-7
-7
-7
-6
-6
-6
-6
-5
-5
-5
-4
-4
-4
-3
-3
-3
-2
-2
-2
-1
-1
0
0
0
0
0
1
1
1
2
2
2
3
4
4
5
5
6
6
7
8
9
9
10
11
12
13
13
14
15
16
17
17
18
19
19
20
20
21
22
22
22
22
23
23
23
23
24
24
24
24
24
25
25
24
24
25
25
24
24
24
24
24
23
23
23
22
22
21
21
21
21
20
20
19
19
19
18
18
18
17
17
17
17
16
16
16
16
15
15
15
14
14
14
14
13
13
13
13
13
13
13
13
13
13
13
13
13
13
13
13
13
13
13
13
13
13
13
13
13
13
13
13
13
13
13
13
12
12
12
12
12
12
12
12
12
12
12
12
12
12
12
12
12
12
12
12
12
12
12
12
13
13
13
13
13
13
14
14
14
14
14
14
15
15
15
15
15
16
16
16
15
15
15
15
15
15
15
15
15
15
15
14
14
14
14
14
14
14
14
14
14
15
15
14
14
14
14
14
14
14
14
13
13
13
13
13
13
13
13
13
13
14
14
14
14
14
14
14
14
14
14
14
14
14
14
14
14
14
14
14
14
14
14
14
14
15
15
15
15
15
15
15
15
15
15
15
15
15
15
15
15
15
14
14
14
14
14
14
13
13
13
13
13
13
12
12
12
12
12
12
12
12
11
11
11
11
11
11
11
11
11
11
11
11
11
11
11
11
11
11
10
10
10
10
10
10
10
10
10
10
10
10
10
10
10
10
10
10
10
10
10
10
10
10
10
9
9
9
9
9
9
9
8
8
8
8
8
8
8
8
8
9
9
9
10
10
11
11
12
13
14
15
16
17
17
18
19
20
21
22
23
24
25
25
26
27
27
28
28
28
28
28
28
29
28
28
29
28
28
28
28
28
28
28
29
29
29
30
30
30
31
31
32
32
32
33
33
33
33
33
33
33
33
32
32
32
31
31
30
29
28
27
27
26
25
25
24
23
22
22
21
21
20
19
19
18
18
17
17
16
15
15
14
14
13
13
12
12
12
11
11
10
10
9
9
9
8
8
8
8
7
7
6
6
6
5
4
4
3
3
2
2
2
1
1
1
0
0
0
0
0
-1
-1
-1
-1
-1
-1
-1
-1
-1
-2
-2
-2
-2
-2
-2
-2
-2
-2
-2
-1
-1
-1
-1
-1
-1
-1
-1
-1
0
0
0
0
0
0
0
0
-1
-1
-1
-1
-1
-1
-1
-1
0
0
0
0
-1
-1
-1
-1
-1
0
0
0
0
1
2
2
3
4
5
6
7
9
11
13
16
18
22
25
29
33
38
44
49
55
62
69
77
85
94
103
113
122
132
142
152
162
172
182
192
202
212
221
230
238
245
251
257
261
264
266
266
264
260
255
250
242
234
223
212
199
186
171
156
140
124
108
92
77
62
48
35
22
11
1
-8
-16
-23
-29
-34
-39
-41
-44
-46
-46
-47
-47
-47
-46
-46
-45
-44
-42
-42
-40
-39
-37
-35
-34
-32
-30
-29
-28
-26
-25
-23
-22
-20
-19
-17
-16
-15
-14
-13
-12
-11
-10
-10
-9
-8
-8
-7
-7
-6
-6
-6
-6
-5
-5
-5
-5
-5
-5
-5
-5
-5
-5
-4
-4
-4
-4
-4
-4
-4
-4
-4
-4
-4
-4
-4
-4
-4
-4
-4
-4
-4
-4
-4
-4
-4
-4
-5
-5
-5
-5
-5
-5
-5
-5
-5
-5
-5
-5
-5
-5
-5
-5
-5
-5
-5
-5
-5
-5
-5
-5
-5
-5
-5
-6
-6
-6
-6
-6
-7
-7
-7
-7
-7
-8
-8
-8
-8
-8
-8
-8
-8
-8
-8
-8
-8
-8
-8
-8
-8
-8
-7
-7
-7
-7
-7
-7
-7
-7
-7
-7
-7
-7
-7
-8
-8
-8
-8
-9
-9
-9
-10
-10
-10
-11
-11
-11
-12
-12
-12
-12
-12
-12
-13
-13
-13
-13
-13
-13
-13
-14
-14
-14
-14
-13
-13
-14
-14
-14
-14
-14
-14
-14
-14
-14
-14
-14
-14
-13
-13
-13
-13
-13
-13
-12
-12
-12
-12
-12
-11
-11
-11
-11
-11
-11
-11
-10
-10
-10
-10
-10
-9
-9
-9
-9
-9
-8
-8
-8
-8
-8
-7
-7
-7
-7
-6
-6
-6
-5
-5
-5
-4
-4
-3
-3
-2
-2
-1
-1
0
0
1
1
2
3
4
4
4
5
6
7
7
8
8
9
10
11
11
12
13
14
14
15
15
16
17
17
17
18
19
19
19
19
20
20
20
20
21
21
21
21
21
21
21
21
22
21
21
21
21
21
21
21
20
20
20
20
20
19
19
18
18
18
18
18
17
17
17
16
16
15
15
15
15
15
15
15
14
14
14
14
13
13
13
13
13
13
13
13
13
13
13
13
13
13
12
12
12
12
12
12
12
12
12
11
11
11
11
10
10
10
10
10
10
10
10
10
10
10
10
10
10
10
10
10
10
10
10
10
10
10
10
10
10
10
10
11
11
11
11
11
11
11
12
12
12
12
12
13
13
13
13
13
13
13
13
13
13
13
13
13
13
13
12
12
12
12
12
12
12
12
11
11
11
11
11
11
11
11
11
11
11
11
11
11
11
11
11
11
11
11
11
11
11
11
11
12
12
12
12
12
12
12
12
12
12
12
12
12
12
12
12
12
13
13
13
13
13
13
13
13
14
14
14
14
15
15
15
15
15
15
14
14
14
14
14
14
14
14
14
13
13
13
13
13
13
12
12
12
12
12
12
12
13
13
13
13
13
13
13
13
13
13
13
14
14
14
15
15
16
17
17
18
19
20
20
21
22
23
24
25
25
26
27
28
28
29
29
29
29
30
30
30
31
31
31
31
31
31
31
32
32
32
33
33
33
34
34
35
35
36
37
37
38
38
39
40
40
40
41
41
41
41
41
41
40
40
39
39
38
38
37
36
36
35
34
34
33
33
32
31
31
31
30
29
29
28
28
27
27
26
25
25
24
23
23
21
21
20
19
18
17
16
16
15
15
14
13
13
12
11
11
11
10
10
9
8
8
8
8
7
7
6
6
5
5
4
4
4
4
4
3
3
3
3
2
2
2
2
2
2
2
2
2
2
1
1
1
1
1
1
1
1
1
1
0
0
0
0
0
0
0
0
0
0
0
0
0
0
0
0
0
0
0
0
0
0
0
0
0
0
0
0
0
0
0
0
0
0
0
0
-1
0
0
0
0
1
1
2
3
5
7
9
11
14
18
22
26
31
37
42
49
56
63
71
80
89
99
109
119
130
140
151
161
171
181
191
201
211
221
230
238
246
253
259
263
267
270
271
270
269
266
262
257
250
242
233
223
211
199
186
171
157
142
128
112
98
83
70
56
44
32
21
11
2
-6
-13
-20
-26
-31
-35
-38
-42
-44
-46
-47
-47
-48
-48
-48
-47
-46
-46
-44
-43
-42
-41
-39
-38
-36
-34
-33
-31
-29
-27
-26
-24
-22
-21
-20
-19
-18
-17
-16
-15
-14
-13
-13
-12
-12
-12
-12
-12
-12
-12
-12
-12
-12
-12
-12
-11
-11
-11
-11
-11
-11
-10
-10
-10
-10
-10
-9
-9
-9
-9
-9
-9
-9
-9
-9
-9
-9
-9
-9
-10
-10
-10
-10
-10
-10
-10
-10
-10
-10
-10
-10
-10
-10
-10
-10
-10
-10
-11
-11
-11
-11
-11
-11
-11
-11
-11
-11
-11
-11
-11
-11
-12
-12
-12
-12
-12
-13
-13
-13
-13
-13
-13
-14
-14
-14
-14
-14
-14
-14
-14
-14
-14
-15
-15
-15
-15
-15
-15
-16
-16
-16
-16
-16
-16
-17
-17
-17
-17
-17
-17
-18
-18
-18
-18
-18
-19
-19
-19
-19
-18
-18
-18
-18
-19
-19
-19
-19
-19
-20
-20
-20
-21
-21
-21
-22
-22
-22
-23
-23
-23
-24
-24
-24
-24
-25
-25
-25
-25
-25
-25
-25
-26
-26
-26
-25
-26
-26
-26
-26
-26
-25
-25
-25
-25
-25
-25
-25
-25
-25
-24
-24
-24
-24
-23
-23
-22
-22
-22
-21
-21
-21
-20
-20
-20
-19
-19
-19
-19
-18
-18
-18
-18
-18
-18
-17
-17
-17
-17
-16
-16
-15
-14
-13
-13
-12
-11
-10
-9
-8
-8
-7
-6
-5
-4
-4
-3
-2
-1
0
0
1
2
3
4
5
6
6
7
8
9
10
10
12
12
13
14
15
15
16
16
17
17
18
18
18
19
19
19
19
19
19
20
19
19
19
19
19
19
19
19
18
18
17
17
17
17
17
16
16
16
15
15
15
14
14
14
14
14
14
14
14
13
13
13
13
13
13
12
12
12
12
12
12
12
12
12
12
12
12
11
11
11
11
11
11
10
10
10
10
10
10
9
9
9
9
9
8
8
8
8
8
7
7
7
7
7
7
7
7
7
7
7
7
8
8
8
8
9
9
9
9
10
10
10
10
11
11
11
11
11
11
11
12
12
12
12
12
12
12
12
12
12
12
12
11
11
11
11
10
10
10
10
9
9
9
8
8
8
8
8
8
8
8
8
9
9
9
9
9
10
10
10
10
10
10
10
10
10
9
9
9
9
8
8
8
7
7
7
6
6
6
5
5
5
5
4
4
4
4
4
4
3
3
3
3
3
4
4
4
4
4
4
4
5
5
5
5
5
5
5
5
5
5
5
5
4
4
4
4
4
3
3
3
3
2
2
2
2
2
2
2
2
2
2
3
3
4
4
5
5
6
7
8
9
9
10
11
12
13
14
15
16
17
17
18
19
19
20
20
21
21
22
22
22
23
23
23
23
23
24
24
25
25
25
26
26
27
28
28
29
30
30
31
31
32
32
33
33
34
34
35
35
35
35
35
34
34
34
34
33
33
32
32
31
31
30
30
30
29
28
28
28
27
27
27
27
26
26
25
25
25
24
23
23
22
21
20
19
19
18
17
16
15
14
13
12
12
11
10
8
8
7
6
5
4
4
3
2
1
1
0
0
-1
-1
-2
-3
-3
-4
-4
-4
-5
-5
-5
-6
-6
-6
-6
-6
-6
-6
-7
-7
-7
-7
-7
-7
-7
-7
-7
-7
-7
-7
-7
-6
-6
-6
-6
-6
-6
-5
-5
-5
-5
-5
-5
-4
-4
-4
-4
-4
-4
-4
-4
-4
-4
-4
-5
-5
-5
-5
-6
-6
-7
-8
-8
-9
-9
-9
-10
-10
-10
-10
-10
-9
-9
-8
-7
-6
-5
-3
-1
1
4
7
11
14
19
24
29
34
40
47
54
62
71
80
89
99
110
120
131
142
152
163
174
184
195
205
215
225
234
243
251
258
264
269
273
274
275
274
272
269
264
257
250
241
231
219
207
193
178
162
146
130
114
98
82
67
53
40
26
15
4
-6
-15
-23
-30
-36
-41
-45
-48
-52
-53
-55
-56
-57
-57
-57
-57
-56
-56
-55
-54
-53
-52
-50
-49
-47
-46
-44
-43
-41
-40
-39
-37
-35
-34
-33
-32
-30
-29
-28
-26
-25
-24
-24
-23
-22
-22
-21
-21
-20
-20
-19
-19
-19
-18
-18
-18
-18
-18
-18
-18
-18
-18
-18
-18
-18
-18
-18
-18
-18
-18
-18
-18
-18
-18
-18
-18
-18
-18
-18
-18
-18
-19
-19
-19
-19
-19
-19
-19
-19
-19
-20
-20
-20
-20
-20
-20
-21
-21
-21
-21
-21
-21
-21
-21
-21
-21
-21
-21
-21
-21
-20
-20
-20
-20
-20
-19
-19
-19
-19
-19
-19
-19
-19
-19
-19
-19
-19
-19
-19
-20
-20
-20
-21
-21
-21
-21
-21
-21
-21
-21
-21
-21
-21
-21
-21
-21
-21
-21
-22
-22
-21
-21
-21
-21
-21
-21
-21
-21
-21
-21
-21
-22
-22
-22
-23
-23
-23
-24
-24
-25
-26
-26
-26
-26
-27
-27
-28
-28
-28
-28
-29
-29
-29
-29
-29
-29
-29
-29
-29
-29
-29
-29
-29
-29
-29
-29
-29
-29
-29
-29
-29
-29
-29
-29
-29
-28
-28
-28
-28
-28
-28
-27
-27
-27
-26
-26
-26
-25
-25
-25
-25
-25
-25
-24
-24
-23
-23
-23
-22
-22
-21
-20
-20
-19
-19
-18
-18
-17
-17
-16
-15
-14
-14
-13
-12
-11
-10
-10
-9
-8
-7
-6
-5
-4
-3
-2
-1
-1
0
0
1
2
3
4
4
5
6
7
8
9
10
10
11
12
12
13
14
15
15
16
17
18
18
19
19
20
20
21
21
21
21
22
22
22
22
22
22
22
22
22
22
21
21
20
20
20
20
20
20
20
20
20
19
19
20
20
20
19
19
19
20
20
20
20
20
20
20
20
19
19
19
19
19
19
18
18
18
18
18
18
18
17
17
17
17
17
17
17
17
17
17
17
17
17
17
17
17
17
17
17
17
17
17
17
17
18
18
18
18
18
18
18
18
18
18
19
19
19
19
19
19
19
19
19
19
20
20
20
20
20
20
20
20
20
21
21
21
21
21
21
21
22
22
22
22
22
22
22
22
22
22
22
22
22
22
22
22
22
22
22
22
22
22
22
22
22
22
22
22
22
22
22
22
22
22
22
22
22
22
22
22
22
22
22
22
22
22
22
21
21
21
21
21
21
21
21
21
20
20
20
20
20
20
20
19
19
19
19
19
19
19
19
19
19
19
19
19
19
19
19
19
19
19
19
20
20
20
19
19
20
20
20
20
20
20
20
20
20
20
20
20
20
19
19
19
19
19
19
18
18
18
18
18
18
18
18
19
19
19
19
20
20
21
21
22
23
24
25
26
27
28
29
30
32
33
33
34
35
36
36
37
38
38
38
39
39
39
39
39
39
38
38
39
38
39
39
39
39
40
40
41
41
41
42
43
43
44
45
45
45
46
47
47
47
47
48
48
48
48
47
46
46
45
45
44
43
43
42
41
40
39
38
38
37
36
35
34
33
33
32
31
31
31
30
30
29
29
28
27
26
26
25
25
24
24
23
23
22
22
21
20
20
19
19
18
18
17
16
15
14
14
13
12
12
11
10
10
9
9
8
7
7
7
6
6
6
5
5
5
5
5
5
5
5
5
5
5
5
5
5
5
5
5
5
5
4
4
4
4
4
4
3
3
3
3
3
3
3
3
3
3
3
3
3
3
3
3
3
3
3
4
4
4
3
3
3
3
3
3
3
3
3
3
3
4
5
6
6
7
9
11
12
15
17
20
23
27
31
35
40
46
52
59
65
73
81
89
99
108
118
129
139
149
159
169
180
190
200
210
220
229
238
246
253
260
265
269
272
273
272
271
267
262
256
248
240
230
218
206
192
177
162
146
130
114
98
83
68
54
41
28
16
6
-4
-12
-20
-26
-32
-37
-40
-44
-46
-48
-49
-49
-50
-50
-50
-49
-49
-47
-47
-45
-44
-43
-41
-39
-38
-36
-34
-32
-30
-29
-27
-25
-23
-21
-20
-19
-17
-16
-15
-13
-12
-12
-11
-10
-10
-10
-9
-9
-9
-9
-9
-9
-9
-9
-9
-9
-9
-9
-9
-9
-9
-9
-9
-9
-9
-9
-9
-9
-9
-9
-9
-9
-9
-9
-9
-9
-9
-9
-9
-9
-9
-9
-9
-9
-9
-8
-8
-8
-9
-9
-9
-9
-9
-9
-9
-9
-9
-9
-9
-10
-10
-10
-10
-11
-11
-11
-11
-11
-11
-11
-11
-11
-11
-11
-11
-11
-11
-11
-11
-11
-11
-12
-12
-12
-12
-12
-12
-13
-13
-13
-13
-13
-13
-13
-13
-13
-13
-13
-13
-13
-13
-13
-13
-13
-13
-13
-13
-13
-13
-13
-13
-13
-13
-13
-13
-13
-13
-13
-13
-13
-13
-13
-13
-13
-13
-13
-13
-14
-14
-14
-14
-15
-15
-15
-15
-15
-15
-15
-15
-15
-15
-16
-16
-16
-16
-16
-16
-16
-16
-16
-16
-16
-16
-16
-16
-16
-16
-16
-16
-16
-15
-15
-15
-15
-15
-15
-14
-14
-14
-13
-13
-13
-13
-13
-13
-12
-12
-12
-11
-11
-10
-10
-10
-9
-9
-8
-8
-7
-7
-6
-6
-5
-5
-4
-4
-3
-3
-2
-2
-1
-1
-1
0
0
0
0
1
1
2
2
3
3
4
5
6
6
6
7
8
9
10
11
12
13
13
14
15
15
16
17
17
18
19
19
20
20
21
21
22
22
22
22
23
23
23
23
24
24
24
23
24
24
24
23
23
23
23
23
23
23
22
22
22
22
22
22
22
21
21
21
21
20
20
20
20
19
19
19
19
19
18
18
18
17
17
17
16
16
16
15
15
15
14
14
14
13
13
13
12
12
12
12
12
12
12
12
12
12
12
12
13
13
13
13
14
14
14
14
14
14
14
15
15
15
15
15
15
15
15
15
16
16
16
15
15
15
16
16
15
15
15
15
15
15
15
15
15
15
15
15
15
15
15
15
15
15
14
14
14
14
14
14
14
14
14
14
14
14
15
15
15
15
15
15
15
15
15
15
15
15
15
15
15
16
16
16
16
15
15
15
15
15
15
15
15
14
14
14
13
13
13
13
13
13
13
13
13
13
13
13
13
13
13
13
13
13
13
13
13
13
13
13
13
13
13
13
14
14
14
14
14
14
14
14
14
14
15
15
15
14
14
14
14
14
14
14
14
14
13
13
13
13
12
12
12
12
12
12
12
12
12
12
12
12
12
12
12
12
12
12
12
12
12
12
12
12
11
11
11
11
10
10
10
10
9
9
9
9
8
8
8
8
8
8
7
7
7
7
7
7
7
6
6
6
6
7
7
6
6
6
6
6
6
6
6
7
7
7
7
8
8
9
9
10
11
12
12
13
14
15
16
17
18
19
20
21
21
22
23
23
24
24
24
25
25
25
26
26
26
26
26
26
27
27
27
28
27
28
28
28
28
28
29
29
29
29
29
29
30
30
29
30
30
30
29
29
29
29
29
28
28
27
27
26
26
26
25
25
24
24
23
22
21
21
20
19
18
18
17
15
15
14
13
12
11
10
9
9
8
7
6
6
5
4
4
4
3
3
2
2
2
2
1
1
1
1
0
0
0
0
-1
-1
-1
-2
-2
-3
-3
-4
-4
-5
-5
-6
-6
-6
-7
-7
-8
-8
-8
-8
-9
-9
-9
-9
-10
-10
-10
-10
-10
-10
-10
-10
-10
-10
-10
-10
-10
-10
-10
-10
-10
-10
-10
-10
-10
-10
-9
-10
-10
-10
-10
-10
-9
-9
-9
-9
-9
-9
-9
-9
-9
-9
-9
-9
-9
-9
-8
-8
-8
-8
-8
-8
-7
-7
-6
-5
-4
-3
-2
-1
1
3
5
8
11
14
18
22
27
32
37
43
50
56
64
72
80
89
99
109
119
129
139
149
158
168
178
188
198
208
217
226
233
240
247
251
256
258
259
258
256
252
246
239
232
222
212
199
186
172
157
141
125
109
93
76
61
46
32
19
6
-5
-15
-24
-32
-39
-45
-49
-54
-57
-59
-61
-62
-63
-63
-63
-62
-62
-60
-59
-58
-57
-55
-53
-51
-50
-48
-46
-44
-42
-41
-39
-37
-36
-35
-33
-32
-31
-30
-29
-27
-26
-26
-25
-25
-24
-24
-24
-23
-23
-23
-23
-23
-23
-23
-23
-23
-23
-23
-23
-23
-23
-23
-23
-23
-23
-23
-23
-23
-23
-23
-23
-23
-23
-23
-23
-23
-23
-23
-23
-23
-23
-23
-23
-23
-23
-23
-23
-23
-23
-23
-23
-23
-24
-24
-24
-24
-24
-24
-24
-25
-25
-25
-25
-25
-25
-26
-26
-26
-26
-26
-26
-26
-26
-26
-26
-27
-27
-27
-27
-27
-27
-27
-27
-27
-27
-27
-27
-27
-27
-28
-28
-28
-28
-28
-28
-28
-29
-29
-29
-29
-29
-29
-29
-29
-29
-29
-29
-29
-29
-29
-29
-29
-30
-30
-30
-30
-30
-30
-30
-30
-30
-30
-30
-30
-30
-31
-31
-31
-31
-31
-31
-31
-31
-31
-31
-32
-32
-31
-31
-31
-31
-31
-31
-31
-31
-31
-31
-32
-32
-32
-32
-31
-32
-32
-32
-32
-32
-32
-32
-32
-32
-32
-32
-31
-31
-30
-30
-30
-30
-30
-29
-29
-28
-28
-28
-28
-27
-27
-27
-26
-26
-26
-25
-25
-24
-24
-24
-24
-23
-23
-23
-22
-22
-22
-22
-21
-21
-21
-21
-20
-20
-20
-19
-19
-19
-18
-18
-17
-17
-16
-15
-14
-13
-13
-12
-12
-11
-10
-9
-9
-8
-8
-7
-6
-5
-5
-4
-4
-3
-2
-2
-1
-1
0
0
0
1
1
2
2
3
3
4
4
4
4
5
5
5
5
5
6
6
6
5
6
6
6
5
5
5
5
5
4
4
3
3
3
2
2
2
1
1
1
0
0
0
0
0
-1
-1
-1
-1
-2
-2
-2
-2
-3
-3
-3
-4
-4
-5
-5
-5
-6
-6
-6
-6
-7
-7
-7
-7
-7
-7
-7
-7
-7
-7
-6
-6
-6
-6
-6
-5
-5
-5
-5
-5
-5
-5
-5
-5
-5
-5
-5
-5
-6
-6
-6
-6
-6
-6
-6
-6
-6
-6
-6
-6
-6
-6
-6
-6
-6
-6
-6
-6
-6
-6
-6
-6
-5
-5
-5
-5
-5
-5
-5
-5
-5
-5
-6
-6
-6
-6
-6
-6
-6
-6
-6
-6
-6
-6
-6
-6
-6
-6
-6
-6
-6
-6
-6
-6
-6
-6
-6
-6
-6
-6
-6
-6
-6
-6
-6
-6
-6
-5
-5
-5
-5
-5
-5
-5
-5
-5
-4
-4
-4
-5
-5
-5
-5
-5
-5
-5
-5
-6
-6
-6
-6
-6
-6
-6
-6
-6
-6
-6
-6
-6
-6
-5
-5
-5
-5
-5
-5
-5
-5
-5
-5
-5
-5
-5
-5
-5
-5
-5
-5
-5
-6
-6
-6
-6
-6
-7
-7
-7
-7
-7
-7
-7
-7
-8
-8
-8
-8
-8
-8
-8
-8
-8
-9
-9
-9
-9
-9
-9
-10
-10
-10
-10
-10
-10
-10
-10
-10
-10
-10
-10
-10
-10
-10
-10
-10
-9
-9
-9
-9
-8
-8
-7
-6
-6
-5
-5
-4
-3
-2
-1
0
0
1
2
3
4
5
6
6
7
8
8
8
9
9
9
10
10
10
10
10
11
11
11
12
12
12
13
14
14
15
16
16
17
18
18
19
20
20
21
21
22
22
22
22
22
22
22
21
21
20
20
19
18
17
16
15
15
14
13
12
11
10
9
8
7
6
5
4
3
2
1
1
0
0
-1
-2
-3
-3
-4
-4
-5
-5
-6
-7
-7
-8
-8
-9
-9
-10
-10
-11
-11
-12
-12
-12
-13
-13
-14
-15
-15
-15
-16
-16
-17
-18
-18
-19
-19
-20
-20
-20
-20
-21
-21
-21
-21
-22
-22
-22
-22
-22
-22
-22
-22
-23
-23
-23
-23
-23
-23
-23
-23
-23
-23
-23
-23
-23
-23
-23
-23
-23
-23
-23
-23
-24
-24
-24
-24
-24
-24
-24
-24
-24
-24
-24
-24
-24
-24
-24
-24
-24
-24
-24
-24
-24
-24
-24
-24
-24
-24
-24
-23
-22
-22
-21
-20
-19
-18
-17
-15
-13
-11
-9
-6
-3
0
4
8
13
18
23
29
35
42
49
57
65
74
83
93
102
112
122
132
142
153
162
172
182
192
200
209
217
223
230
235
239
240
241
241
238
234
229
222
214
205
194
182
169
155
140
125
109
93
77
62
47
33
19
6
-6
-17
-27
-36
-44
-50
-56
-61
-64
-68
-70
-72
-73
-74
-74
-74
-74
-73
-72
-71
-70
-69
-67
-66
-64
-63
-61
-60
-58
-56
-55
-53
-51
-50
-48
-47
-45
-44
-43
-42
-41
-39
-39
-38
-37
-37
-36
-36
-35
-35
-35
-35
-35
-35
-34
-34
-34
-34
-34
-34
-34
-34
-34
-34
-33
-33
-33
-33
-33
-33
-33
-32
-32
-32
-32
-32
-33
-33
-33
-33
-33
-33
-33
-33
-33
-33
-33
-33
-33
-33
-33
-34
-34
-34
-34
-34
-34
-34
-35
-35
-35
-35
-35
-35
-35
-35
-35
-35
-35
-35
-35
-35
-35
-35
-35
-35
-35
-35
-35
-35
-34
-34
-34
-34
-34
-34
-34
-34
-34
-34
-34
-35
-35
-35
-35
-35
-36
-36
-36
-36
-36
-37
-37
-37
-37
-37
-37
-37
-37
-37
-38
-38
-38
-38
-38
-38
-38
-39
-39
-39
-39
-38
-38
-38
-38
-39
-39
-39
-39
-39
-39
-39
-39
-39
-39
-39
-39
-39
-39
-39
-39
-40
-40
-39
-40
-40
-40
-40
-40
-40
-40
-41
-41
-41
-41
-41
-41
-41
-41
-41
-41
-41
-40
-40
-41
-41
-40
-40
-40
-40
-40
-40
-40
-40
-40
-40
-40
-39
-39
-39
-39
-39
-39
-39
-38
-38
-38
-37
-37
-37
-36
-36
-35
-34
-34
-33
-33
-32
-31
-31
-30
-30
-29
-28
-28
-27
-27
-26
-25
-25
-25
-24
-24
-23
-23
-22
-21
-20
-20
-19
-19
-18
-17
-16
-15
-15
-14
-13
-13
-12
-11
-11
-10
-10
-9
-9
-8
-8
-8
-7
-7
-6
-6
-6
-5
-5
-5
-5
-5
-4
-4
-4
-4
-4
-3
-3
-3
-3
-4
-4
-4
-4
-4
-4
-5
-5
-5
-5
-5
-6
-6
-7
-7
-8
-8
-8
-9
-9
-10
-10
-10
-11
-11
-12
-12
-12
-12
-13
-13
-13
-13
-13
-13
-13
-13
-13
-13
-13
-13
-13
-13
-13
-13
-14
-14
-14
-14
-15
-15
-16
-16
-16
-17
-17
-17
-17
-17
-17
-18
-18
-18
-18
-18
-18
-18
-18
-17
-17
-17
-17
-16
-16
-16
-16
-15
-15
-15
-15
-15
-15
-15
-15
-15
-15
-14
-14
-14
-14
-14
-14
-15
-15
-15
-15
-15
-15
-15
-15
-15
-15
-15
-15
-15
-15
-15
-15
-16
-16
-16
-16
-16
-16
-16
-16
-16
-16
-16
-16
-16
-16
-16
-16
-15
-15
-15
-15
-15
-15
-15
-14
-14
-14
-14
-13
-13
-13
-13
-13
-13
-13
-13
-13
-13
-13
-13
-13
-13
-14
-14
-14
-14
-15
-15
-15
-15
-15
-16
-16
-16
-16
-16
-17
-17
-17
-17
-17
-17
-17
-17
-17
-17
-17
-17
-17
-17
-17
-17
-17
-18
-18
-18
-18
-18
-18
-18
-18
-18
-18
-18
-18
-18
-18
-17
-17
-17
-17
-17
-16
-16
-16
-16
-16
-15
-15
-15
-15
-15
-15
-15
-15
-15
-15
-16
-16
-16
-16
-16
-16
-16
-16
-16
-16
-16
-16
-15
-15
-15
-14
-14
-13
-13
-12
-11
-11
-10
-9
-8
-8
-7
-6
-5
-4
-4
-3
-2
-2
-1
-1
0
0
0
0
1
1
1
2
2
2
3
3
4
4
5
6
6
7
8
9
9
10
11
11
12
13
13
14
14
15
15
15
15
15
15
15
15
15
15
14
13
13
13
12
12
11
10
9
8
7
6
5
4
3
2
1
1
0
-1
-1
-2
-3
-4
-4
-5
-5
-6
-6
-7
-7
-8
-8
-9
-9
-10
-10
-11
-12
-12
-13
-14
-15
-15
-16
-16
-17
-18
-19
-19
-20
-20
-20
-21
-22
-22
-23
-23
-23
-23
-23
-23
-23
-23
-23
-23
-23
-23
-23
-23
-23
-23
-23
-23
-23
-23
-23
-23
-23
-23
-24
-24
-24
-24
-24
-24
-24
-24
-24
-24
-24
-25
-25
-25
-25
-25
-25
-25
-25
-25
-24
-24
-24
-24
-24
-24
-24
-24
-24
-24
-24
-24
-24
-25
-25
-25
-26
-26
-26
-26
-26
-27
-27
-26
-27
-26
-26
-25
-24
-22
-21
-19
-17
-14
-12
-8
-4
0
4
9
15
21
27
34
42
50
59
68
78
87
98
108
118
128
139
149
159
169
179
189
198
207
215
223
229
235
239
242
243
243
242
239
235
230
224
216
207
196
185
172
158
143
129
114
98
83
68
53
40
26
13
2
-9
-19
-29
-37
-44
-51
-56
-60
-64
-67
-70
-72
-74
-74
-75
-75
-75
-75
-74
-73
-72
-71
-70
-68
-67
-65
-64
-62
-61
-59
-57
-56
-54
-53
-51
-50
-49
-47
-46
-46
-45
-44
-43
-42
-42
-41
-41
-40
-40
-40
-39
-39
-39
-39
-39
-39
-39
-39
-39
-38
-38
-38
-38
-38
-38
-38
-38
-38
-38
-38
-38
-37
-37
-37
-37
-37
-37
-37
-37
-37
-37
-37
-37
-37
-37
-37
-37
-37
-37
-37
-37
-37
-37
-37
-37
-37
-37
-37
-37
-37
-37
-37
-37
-37
-37
-37
-37
-37
-37
-37
-37
-37
-37
-37
-37
-38
-38
-38
-38
-38
-39
-39
-39
-39
-39
-39
-40
-40
-40
-40
-40
-41
-41
-41
-41
-41
-41
-42
-42
-42
-42
-42
-42
-42
-42
-42
-42
-42
-43
-43
-43
-44
-44
-44
-44
-44
-44
-44
-44
-44
-45
-45
-45
-45
-45
-45
-45
-45
-45
-45
-46
-46
-46
-46
-46
-46
-47
-47
-47
-47
-48
-48
-48
-48
-48
-48
-49
-49
-49
-49
-49
-49
-50
-50
-50
-50
-51
-51
-51
-51
-51
-51
-51
-51
-51
-51
-51
-51
-51
-51
-50
-50
-50
-49
-49
-49
-49
-49
-49
-49
-48
-48
-48
-48
-47
-47
-47
-46
-46
-45
-45
-44
-44
-43
-43
-42
-42
-41
-40
-40
-39
-39
-38
-37
-37
-36
-36
-35
-35
-34
-34
-33
-32
-31
-31
-30
-30
-29
-29
-28
-27
-26
-26
-25
-24
-23
-22
-22
-21
-20
-19
-19
-18
-17
-17
-17
-16
-16
-15
-14
-14
-14
-13
-13
-12
-12
-12
-12
-11
-11
-11
-10
-10
-10
-10
-9
-9
-9
-9
-9
-9
-9
-9
-9
-9
-9
-9
-9
-9
-9
-10
-10
-10
-10
-11
-11
-11
-12
-12
-13
-13
-14
-14
-15
-15
-16
-16
-16
-16
-16
-17
-17
-17
-17
-17
-17
-18
-18
-18
-18
-17
-17
-17
-18
-18
-18
-18
-18
-18
-18
-18
-18
-18
-19
-19
-19
-19
-19
-20
-20
-20
-20
-20
-19
-19
-19
-19
-19
-19
-19
-18
-18
-18
-18
-18
-18
-17
-17
-17
-17
-17
-17
-17
-17
-17
-17
-18
-18
-18
-18
-18
-18
-18
-18
-19
-19
-19
-19
-19
-19
-19
-19
-19
-19
-19
-19
-19
-19
-19
-19
-19
-19
-19
-19
-19
-19
-19
-18
-18
-18
-18
-18
-18
-18
-18
-18
-18
-18
-18
-18
-18
-18
-18
-18
-19
-19
-19
-19
-19
-19
-19
-19
-19
-19
-19
-19
-19
-18
-18
-18
-19
-19
-19
-18
-18
-18
-18
-19
-19
-19
-19
-18
-18
-18
-18
-18
-18
-18
-18
-18
-18
-18
-18
-19
-19
-19
-19
-19
-19
-19
-19
-19
-20
-20
-20
-20
-20
-20
-20
-20
-20
-20
-20
-19
-19
-19
-18
-18
-17
-17
-16
-16
-15
-15
-14
-14
-13
-12
-11
-11
-10
-9
-8
-7
-6
-6
-5
-4
-4
-3
-3
-2
-1
-1
0
0
0
0
1
1
2
2
2
3
3
4
5
5
6
7
8
9
10
11
13
14
15
16
17
17
18
19
19
20
20
20
20
20
20
20
19
18
18
17
16
15
15
13
12
11
10
9
9
8
7
6
5
4
4
3
2
1
0
-1
-2
-3
-4
-5
-6
-7
-8
-9
-10
-11
-12
-13
-14
-15
-15
-17
-17
-18
-19
-19
-20
-20
-21
-21
-22
-22
-23
-23
-23
-24
-25
-25
-26
-26
-27
-27
-27
-27
-27
-27
-27
-28
-28
-28
-28
-28
-28
-28
-28
-28
-28
-28
-28
-28
-28
-28
-28
-28
-28
-28
-28
-28
-28
-28
-28
-28
-28
-28
-29
-29
-29
-29
-29
-29
-29
-29
-29
-29
-29
-29
-29
-29
-29
-29
-29
-29
-29
-29
-29
-29
-29
-30
-30
-30
-30
-30
-30
-31
-31
-31
-31
-31
-31
-30
-30
-29
-28
-27
-25
-23
-21
-18
-15
-12
-8
-3
2
7
13
19
26
33
41
49
58
68
78
88
99
110
121
131
142
153
163
174
184
194
204
214
222
230
238
244
249
253
255
256
256
254
251
246
241
234
226
216
205
193
180
166
151
136
120
104
88
73
57
44
29
17
4
-7
-18
-27
-36
-44
-51
-56
-61
-65
-69
-71
-73
-75
-76
-77
-77
-77
-76
-76
-75
-74
-72
-71
-69
-68
-66
-65
-63
-61
-59
-58
-56
-54
-53
-51
-50
-48
-47
-46
-44
-43
-42
-41
-40
-40
-40
-39
-39
-38
-38
-37
-37
-37
-37
-36
-36
-36
-36
-36
-36
-36
-36
-36
-36
-36
-36
-36
-36
-36
-37
-37
-37
-36
-36
-36
-36
-36
-36
-36
-35
-35
-35
-35
-35
-35
-35
-35
-35
-35
-35
-34
-34
-34
-34
-34
-34
-34
-34
-34
-34
-35
-35
-35
-35
-35
-35
-35
-35
-35
-35
-35
-35
-35
-34
-34
-34
-35
-35
-35
-35
-35
-35
-35
-36
-36
-36
-36
-36
-36
-36
-36
-36
-37
-37
-37
-37
-37
-37
-37
-37
-37
-37
-37
-37
-37
-37
-37
-37
-37
-37
-37
-37
-37
-37
-37
-38
-38
-38
-39
-39
-39
-39
-39
-39
-40
-40
-40
-41
-41
-41
-41
-41
-41
-41
-41
-42
-42
-42
-42
-42
-42
-42
-43
-43
-43
-43
-44
-44
-44
-44
-44
-45
-45
-45
-45
-46
-46
-46
-46
-46
-46
-47
-47
-47
-47
-46
-46
-46
-46
-46
-46
-46
-45
-45
-45
-44
-44
-44
-43
-43
-43
-42
-42
-42
-42
-41
-41
-41
-40
-40
-40
-39
-39
-38
-38
-38
-38
-37
-37
-36
-36
-35
-34
-33
-33
-32
-32
-31
-30
-29
-28
-28
-27
-26
-25
-24
-23
-22
-21
-21
-19
-19
-18
-17
-17
-16
-15
-14
-14
-13
-12
-11
-11
-10
-9
-8
-8
-7
-6
-5
-5
-4
-4
-3
-3
-2
-2
-1
-1
-1
-1
0
0
0
0
0
0
0
0
0
-1
-1
-1
-1
-1
-2
-2
-2
-2
-2
-3
-3
-3
-3
-3
-4
-4
-4
-4
-5
-5
-5
-5
-5
-6
-6
-6
-7
-7
-7
-7
-7
-7
-8
-8
-8
-8
-8
-8
-8
-8
-8
-9
-9
-9
-9
-8
-8
-8
-8
-8
-8
-8
-7
-7
-7
-7
-7
-6
-6
-6
-6
-6
-5
-5
-5
-5
-5
-5
-5
-5
-5
-5
-5
-5
-5
-5
-5
-5
-5
-5
-6
-6
-6
-5
-5
-5
-5
-5
-5
-5
-5
-5
-4
-4
-4
-4
-4
-3
-3
-3
-3
-3
-3
-3
-3
-3
-3
-3
-3
-3
-3
-3
-3
-3
-3
-3
-4
-4
-4
-5
-5
-5
-6
-6
-6
-6
-6
-6
-6
-6
-6
-6
-6
-6
-6
-6
-6
-6
-6
-6
-6
-6
-5
-5
-5
-5
-5
-5
-5
-5
-5
-5
-5
-5
-5
-5
-5
-4
-4
-4
-4
-4
-4
-4
-4
-4
-4
-4
-4
-4
-4
-4
-4
-5
-5
-5
-5
-5
-6
-6
-6
-6
-6
-6
-7
-7
-7
-7
-7
-7
-7
-7
-7
-7
-7
-7
-7
-6
-6
-6
-6
-6
-5
-5
-4
-3
-3
-2
-1
-1
0
0
1
2
3
4
5
6
7
8
8
9
10
11
11
12
12
12
13
13
14
14
15
15
15
15
16
16
17
17
18
19
20
20
21
22
22
23
24
24
25
26
27
27
28
28
28
29
29
29
29
29
29
29
29
29
29
29
28
28
27
27
27
26
26
25
24
23
23
22
21
20
19
18
17
17
15
14
13
12
11
10
9
7
6
5
4
3
1
0
0
-1
-2
-3
-4
-5
-6
-7
-8
-8
-9
-10
-11
-11
-12
-13
-13
-14
-14
-14
-15
-16
-16
-16
-17
-17
-18
-18
-18
-18
-18
-18
-18
-18
-18
-18
-18
-18
-18
-18
-18
-18
-18
-18
-18
-18
-18
-18
-18
-18
-18
-18
-18
-18
-18
-19
-19
-19
-19
-19
-19
-19
-19
-19
-20
-20
-20
-20
-20
-19
-19
-19
-19
-19
-19
-19
-20
-20
-20
-20
-20
-20
-20
-20
-20
-21
-20
-20
-20
-19
-19
-18
-17
-16
-14
-13
-11
-8
-6
-3
0
3
7
12
17
22
28
34
41
47
55
63
72
81
92
101
112
122
132
143
153
163
173
183
193
202
211
220
227
234
240
245
249
251
252
251
248
244
239
233
225
215
205
193
180
167
152
136
120
104
88
72
57
42
28
14
2
-9
-19
-29
-37
-44
-50
-55
-59
-63
-66
-67
-69
-69
-70
-70
-70
-69
-69
-68
-67
-65
-64
-62
-61
-59
-58
-56
-54
-53
-51
-49
-48
-46
-44
-43
-42
-41
-39
-38
-38
-37
-36
-36
-35
-35
-34
-34
-33
-33
-33
-32
-32
-32
-31
-31
-31
-31
-30
-30
-30
-30
-29
-29
-29
-29
-29
-29
-29
-29
-29
-29
-29
-29
-29
-29
-29
-29
-29
-29
-30
-30
-30
-30
-30
-30
-30
-31
-31
-31
-31
-31
-31
-31
-31
-31
-31
-31
-31
-31
-31
-31
-31
-31
-30
-30
-30
-30
-30
-30
-30
-29
-29
-29
-29
-29
-28
-28
-28
-28
-28
-28
-28
-28
-29
-29
-29
-29
-29
-29
-30
-30
-30
-30
-31
-31
-31
-31
-32
-32
-32
-32
-32
-32
-32
-32
-32
-32
-32
-32
-32
-32
-32
-32
-32
-31
-31
-31
-31
-32
-32
-32
-32
-32
-32
-32
-32
-32
-32
-32
-32
-32
-32
-33
-33
-33
-33
-34
-34
-34
-34
-34
-34
-34
-34
-35
-34
-34
-34
-35
-35
-35
-35
-35
-35
-35
-35
-35
-35
-35
-35
-35
-34
-34
-34
-34
-34
-34
-34
-33
-34
-34
-33
-33
-33
-33
-33
-32
-32
-32
-32
-32
-31
-31
-31
-31
-30
-30
-29
-29
-28
-28
-27
-27
-26
-26
-25
-25
-24
-24
-24
-24
-23
-23
-22
-22
-21
-21
-21
-20
-20
-20
-20
-19
-19
-18
-18
-17
-17
-16
-16
-15
-14
-14
-13
-12
-11
-10
-9
-8
-7
-7
-6
-5
-4
-3
-3
-2
-1
-1
0
0
0
1
1
1
2
2
2
2
2
2
2
2
2
2
2
2
2
2
1
1
1
1
1
0
0
0
0
-1
-1
-1
-2
-2
-2
-3
-3
-3
-3
-3
-3
-3
-4
-4
-4
-4
-4
-4
-5
-5
-5
-5
-5
-6
-6
-6
-6
-6
-6
-6
-6
-7
-7
-7
-7
-7
-8
-8
-8
-8
-8
-8
-8
-9
-9
-9
-9
-9
-9
-9
-9
-9
-9
-10
-10
-10
-10
-10
-10
-10
-10
-10
-10
-10
-10
-10
-10
-10
-10
-10
-10
-10
-10
-10
-10
-10
-10
-10
-10
-10
-10
-10
-10
-10
-10
-10
-10
-10
-10
-10
-10
-10
-9
-9
-9
-8
-8
-8
-8
-8
-8
-8
-8
-8
-7
-7
-7
-7
-7
-7
-6
-6
-6
-6
-6
-6
-6
-6
-6
-6
-6
-6
-6
-6
-6
-6
-6
-6
-6
-6
-6
-6
-6
-6
-6
-6
-5
-5
-5
-5
-5
-5
-5
-5
-5
-5
-5
-5
-4
-4
-4
-4
-4
-4
-4
-4
-4
-4
-4
-4
-4
-4
-4
-4
-5
-5
-5
-5
-5
-5
-5
-5
-5
-5
-5
-5
-5
-5
-5
-5
-6
-6
-6
-6
-6
-6
-6
-6
-6
-6
-7
-6
-6
-6
-6
-6
-6
-6
-5
-5
-4
-4
-3
-3
-2
-2
-1
0
0
1
2
3
4
4
5
6
7
7
8
9
9
10
11
12
12
13
14
14
14
15
15
16
16
17
18
18
19
19
20
21
21
22
22
23
24
25
25
26
27
27
28
28
28
28
29
28
28
28
28
28
27
27
27
26
26
25
24
23
23
22
21
20
20
19
18
17
16
15
14
13
12
11
10
9
8
7
6
5
4
3
2
1
1
0
0
-2
-2
-3
-3
-4
-5
-6
-6
-7
-8
-9
-10
-10
-11
-12
-12
-13
-14
-15
-15
-16
-16
-17
-17
-17
-18
-18
-18
-19
-19
-19
-19
-20
-20
-20
-20
-20
-20
-20
-20
-20
-20
-20
-20
-20
-20
-20
-20
-20
-20
-20
-20
-20
-20
-21
-21
-21
-21
-21
-21
-21
-21
-21
-21
-21
-21
-20
-20
-20
-20
-20
-20
-20
-19
-19
-19
-19
-19
-19
-19
-19
-19
-20
-20
-20
-20
-20
-20
-20
-19
-18
-18
-17
-16
-15
-14
-12
-10
-8
-6
-3
0
4
8
13
19
23
29
35
42
49
57
65
74
84
93
103
113
123
133
144
153
164
174
183
193
202
211
219
226
233
238
243
245
247
246
244
241
236
230
223
213
203
192
179
165
151
136
120
104
88
73
57
43
29
16
3
-8
-18
-28
-36
-44
-50
-54
-59
-62
-65
-67
-68
-69
-70
-70
-70
-69
-69
-68
-67
-66
-65
-63
-62
-60
-59
-57
-56
-54
-52
-51
-50
-48
-46
-45
-44
-42
-40
-39
-38
-37
-36
-35
-34
-34
-33
-32
-32
-32
-31
-31
-31
-31
-31
-30
-30
-30
-30
-30
-30
-30
-30
-30
-30
-30
-30
-30
-30
-30
-30
-30
-30
-30
-29
-29
-29
-29
-28
-28
-28
-28
-28
-27
-27
-27
-27
-27
-26
-26
-26
-26
-26
-27
-27
-27
-27
-27
-28
-28
-28
-29
-29
-29
-29
-29
-29
-29
-29
-29
-29
-29
-29
-30
-30
-30
-30
-30
-30
-30
-30
-30
-31
-31
-31
-31
-31
-30
-31
-31
-31
-31
-30
-30
-30
-30
-30
-30
-30
-30
-30
-30
-30
-30
-30
-30
-29
-29
-29
-29
-29
-29
-29
-29
-29
-29
-30
-30
-30
-30
-30
-30
-30
-30
-30
-30
-30
-30
-30
-30
-30
-30
-30
-30
-30
-30
-30
-30
-30
-30
-30
-30
-30
-31
-31
-31
-31
-31
-31
-31
-31
-32
-31
-31
-32
-32
-32
-32
-32
-32
-32
-32
-32
-32
-32
-32
-32
-31
-31
-30
-30
-30
-30
-29
-29
-29
-28
-28
-27
-27
-27
-26
-26
-26
-25
-25
-25
-24
-24
-24
-23
-23
-23
-23
-22
-22
-22
-22
-21
-21
-21
-21
-20
-20
-19
-19
-18
-18
-17
-17
-16
-16
-15
-14
-14
-13
-13
-12
-11
-10
-9
-8
-8
-7
-7
-6
-5
-4
-4
-3
-3
-2
-1
0
0
0
1
1
1
2
3
3
3
4
4
4
4
5
5
5
5
5
5
5
5
5
5
5
5
5
5
5
5
5
5
4
4
4
4
3
3
3
3
2
2
2
1
1
0
0
0
0
-1
-1
-2
-2
-2
-3
-3
-3
-4
-4
-4
-4
-4
-4
-5
-5
-5
-5
-5
-5
-5
-5
-5
-5
-5
-5
-5
-6
-6
-6
-6
-6
-6
-7
-7
-7
-7
-7
-7
-7
-7
-7
-7
-7
-7
-6
-6
-6
-6
-6
-6
-6
-6
-5
-5
-5
-5
-5
-5
-5
-5
-5
-5
-5
-5
-4
-4
-4
-4
-4
-4
-4
-4
-4
-4
-4
-4
-4
-4
-4
-4
-4
-4
-3
-3
-3
-3
-3
-3
-3
-3
-3
-3
-3
-3
-3
-3
-3
-3
-3
-3
-3
-3
-3
-3
-3
-3
-3
-3
-3
-3
-3
-3
-3
-3
-3
-3
-3
-3
-3
-3
-3
-3
-3
-3
-3
-3
-3
-3
-3
-3
-3
-3
-3
-3
-3
-3
-3
-3
-3
-3
-3
-3
-3
-3
-3
-3
-3
-3
-3
-3
-3
-3
-3
-3
-3
-3
-3
-3
-3
-3
-3
-3
-3
-3
-3
-3
-3
-3
-3
-3
-3
-3
-3
-4
-4
-4
-4
-4
-4
-4
-4
-4
-5
-5
-5
-5
-5
-5
-5
-5
-5
-5
-5
-6
-6
-6
-6
-6
-6
-6
-6
-6
-6
-5
-5
-5
-5
-4
-4
-3
-3
-2
-1
0
1
1
2
3
4
5
6
7
8
9
10
10
11
11
12
12
13
13
13
13
13
14
14
15
15
15
15
16
16
17
18
18
19
19
20
21
22
22
23
24
24
25
25
25
26
26
26
26
26
26
25
25
24
24
23
23
22
22
21
20
19
18
17
16
15
14
13
12
11
11
10
9
8
7
6
5
4
3
3
2
1
0
0
-1
-1
-2
-3
-3
-4
-4
-4
-5
-6
-6
-6
-7
-7
-7
-8
-8
-8
-8
-9
-10
-10
-11
-11
-11
-12
-12
-13
-14
-14
-14
-15
-15
-16
-16
-16
-17
-17
-17
-18
-18
-18
-18
-18
-18
-19
-19
-19
-19
-19
-20
-20
-20
-20
-20
-20
-20
-20
-20
-20
-20
-20
-19
-19
-19
-19
-19
-19
-18
-18
-18
-18
-18
-18
-18
-18
-18
-18
-18
-18
-18
-19
-19
-19
-19
-20
-20
-20
-20
-20
-20
-20
-20
-20
-20
-19
-19
-18
-17
-16
-15
-13
-12
-10
-8
-5
-2
1
5
10
15
20
25
31
38
45
53
61
70
79
89
99
109
119
129
139
149
159
169
179
189
198
207
215
223
230
235
240
243
245
246
245
242
239
233
227
219
210
200
188
175
162
147
132
116
100
85
69
54
40
26
13
1
-10
-21
-30
-38
-45
-51
-56
-61
-64
-67
-69
-71
-72
-72
-72
-72
-71
-71
-70
-68
-68
-66
-64
-63
-61
-60
-58
-56
-55
-53
-52
-51
-49
-47
-46
-45
-44
-43
-42
-41
-40
-40
-39
-38
-38
-37
-37
-36
-36
-36
-35
-35
-34
-34
-34
-33
-33
-33
-33
-33
-33
-33
-32
-32
-32
-32
-32
-32
-32
-32
-32
-32
-32
-33
-33
-33
-33
-33
-33
-34
-34
-34
-34
-34
-34
-34
-34
-34
-34
-34
-34
-34
-34
-34
-34
-34
-34
-34
-34
-34
-34
-34
-34
-34
-34
-34
-34
-34
-34
-34
-34
-34
-34
-34
-34
-34
-34
-34
-34
-34
-34
-34
-34
-34
-34
-34
-34
-35
-35
-35
-35
-35
-35
-35
-35
-35
-35
-35
-35
-35
-35
-35
-35
-35
-35
-35
-35
-35
-35
-35
-36
-36
-36
-36
-37
-37
-37
-37
-37
-37
-37
-37
-36
-36
-37
-37
-37
-38
-38
-38
-38
-38
-39
-39
-39
-40
-40
-40
-41
-41
-41
-42
-42
-42
-42
-43
-43
-43
-43
-43
-43
-43
-43
-43
-44
-44
-44
-44
-44
-44
-44
-44
-44
-44
-44
-44
-43
-43
-43
-43
-43
-43
-43
-42
-42
-42
-42
-41
-41
-40
-40
-39
-39
-39
-38
-38
-37
-37
-36
-36
-35
-35
-34
-34
-33
-32
-32
-31
-30
-30
-29
-28
-28
-28
-27
-27
-26
-26
-26
-25
-25
-24
-24
-23
-23
-22
-22
-21
-20
-20
-19
-18
-18
-17
-16
-15
-15
-14
-13
-12
-11
-11
-10
-9
-8
-8
-7
-7
-6
-5
-5
-5
-4
-4
-3
-3
-3
-3
-3
-2
-2
-2
-3
-2
-2
-2
-2
-3
-3
-3
-3
-3
-4
-4
-5
-5
-5
-5
-6
-6
-6
-7
-7
-7
-8
-8
-8
-8
-8
-8
-9
-9
-9
-9
-9
-10
-10
-10
-10
-10
-10
-11
-11
-11
-11
-11
-11
-12
-12
-12
-12
-12
-12
-12
-12
-13
-13
-13
-13
-13
-13
-13
-13
-13
-13
-13
-13
-13
-13
-13
-13
-13
-13
-13
-13
-13
-13
-13
-13
-13
-13
-13
-13
-13
-13
-13
-13
-13
-13
-14
-14
-13
-13
-13
-13
-13
-13
-13
-13
-13
-13
-12
-12
-12
-12
-11
-11
-11
-11
-11
-11
-11
-11
-11
-11
-11
-11
-11
-11
-11
-11
-11
-11
-11
-11
-11
-11
-11
-11
-12
-12
-12
-12
-12
-12
-12
-12
-12
-12
-12
-12
-12
-12
-12
-12
-12
-12
-12
-12
-12
-12
-12
-12
-11
-11
-11
-11
-11
-11
-11
-11
-11
-11
-11
-11
-12
-12
-12
-12
-12
-12
-12
-12
-12
-12
-12
-12
-12
-12
-12
-12
-12
-12
-12
-12
-12
-12
-11
-11
-11
-11
-11
-11
-11
-11
-11
-12
-12
-12
-12
-12
-12
-13
-13
-13
-13
-13
-13
-13
-13
-12
-12
-12
-11
-10
-10
-9
-8
-7
-7
-6
-5
-4
-3
-2
-1
0
0
1
2
3
3
4
5
6
6
7
7
8
8
8
9
9
10
10
11
11
11
12
12
13
14
14
15
16
17
17
18
19
20
21
22
22
23
23
24
24
25
25
25
25
25
25
24
24
24
23
22
22
21
20
19
18
18
17
16
15
14
13
11
10
9
8
7
6
5
3
2
1
0
0
-1
-3
-4
-5
-5
-7
-8
-8
-9
-10
-10
-11
-12
-12
-13
-14
-14
-15
-15
-16
-17
-17
-17
-18
-18
-19
-19
-20
-20
-21
-21
-21
-22
-22
-22
-23
-23
-23
-23
-23
-24
-24
-24
-24
-24
-24
-25
-25
-25
-25
-25
-25
-25
-25
-25
-25
-24
-24
-24
-24
-24
-24
-24
-24
-24
-24
-24
-24
-24
-24
-24
-24
-25
-25
-25
-25
-25
-25
-25
-25
-25
-25
-25
-25
-25
-25
-25
-25
-25
-25
-25
-25
-26
-26
-26
-26
-26
-26
-25
-25
-25
-24
-24
-22
-21
-19
-18
-15
-13
-9
-6
-2
2
7
13
19
25
31
39
47
56
64
74
84
94
105
116
127
137
148
159
169
179
189
199
209
218
226
233
240
245
249
251
253
253
251
249
245
239
233
225
216
205
194
181
167
154
138
123
108
93
78
63
49
35
22
10
-1
-12
-21
-30
-38
-45
-51
-56
-60
-64
-67
-70
-71
-73
-74
-75
-75
-75
-75
-75
-74
-73
-72
-70
-69
-67
-66
-65
-63
-62
-60
-58
-56
-55
-53
-51
-50
-48
-47
-46
-45
-43
-42
-41
-40
-40
-39
-38
-38
-37
-37
-36
-36
-36
-36
-36
-36
-36
-36
-37
-37
-37
-37
-37
-37
-37
-37
-37
-38
-38
-38
-38
-38
-37
-37
-37
-37
-37
-37
-36
-36
-36
-36
-36
-36
-36
-36
-36
-36
-37
-37
-38
-38
-38
-38
-38
-38
-38
-39
-39
-39
-39
-39
-39
-40
-40
-40
-39
-39
-39
-39
-39
-39
-39
-39
-38
-38
-38
-38
-38
-38
-38
-38
-38
-38
-38
-38
-38
-38
-38
-37
-37
-37
-37
-37
-37
-38
-38
-38
-38
-38
-38
-39
-39
-39
-40
-40
-40
-40
-41
-41
-41
-41
-41
-42
-42
-42
-42
-42
-42
-42
-42
-42
-43
-43
-43
-43
-44
-44
-44
-44
-44
-45
-45
-46
-46
-46
-46
-46
-47
-47
-47
-48
-48
-48
-49
-49
-50
-50
-50
-51
-51
-51
-51
-51
-51
-51
-51
-52
-52
-52
-52
-52
-51
-51
-51
-51
-51
-51
-51
-50
-50
-50
-50
-49
-49
-49
-49
-49
-49
-49
-48
-48
-48
-48
-48
-47
-47
-47
-46
-46
-46
-45
-44
-44
-43
-42
-42
-41
-41
-40
-39
-39
-38
-37
-36
-35
-35
-34
-33
-33
-32
-32
-31
-30
-29
-29
-29
-28
-27
-26
-26
-25
-25
-24
-23
-22
-21
-21
-20
-19
-18
-17
-16
-15
-14
-13
-12
-11
-11
-10
-9
-8
-8
-7
-7
-6
-5
-5
-5
-5
-5
-5
-5
-5
-5
-5
-5
-5
-5
-6
-6
-6
-6
-6
-6
-6
-6
-7
-7
-7
-7
-8
-8
-8
-9
-9
-9
-9
-10
-10
-10
-10
-10
-11
-11
-11
-11
-12
-12
-12
-12
-12
-13
-13
-13
-13
-12
-12
-13
-13
-13
-13
-13
-13
-13
-13
-13
-13
-13
-13
-13
-13
-13
-13
-13
-13
-13
-13
-13
-13
-13
-13
-13
-13
-13
-13
-12
-12
-12
-12
-12
-12
-12
-12
-11
-11
-11
-11
-10
-10
-10
-10
-10
-10
-10
-10
-10
-10
-10
-10
-10
-10
-10
-10
-10
-10
-11
-11
-11
-11
-11
-11
-11
-11
-11
-11
-11
-11
-11
-11
-11
-11
-11
-11
-11
-11
-11
-11
-11
-11
-11
-11
-12
-12
-12
-13
-13
-13
-13
-14
-14
-14
-14
-14
-14
-14
-15
-15
-15
-15
-15
-15
-15
-15
-15
-15
-15
-15
-15
-14
-14
-14
-14
-14
-14
-14
-14
-13
-13
-14
-14
-14
-13
-13
-13
-13
-13
-13
-14
-14
-14
-14
-14
-14
-14
-14
-14
-13
-13
-13
-13
-13
-13
-13
-13
-12
-12
-12
-12
-12
-12
-12
-12
-12
-12
-12
-12
-12
-12
-12
-11
-11
-10
-10
-9
-8
-7
-7
-6
-5
-4
-3
-2
-1
0
0
1
2
2
3
4
4
5
5
5
5
6
6
6
7
7
8
8
9
9
9
10
10
11
12
13
14
15
16
17
18
19
20
21
22
23
24
25
26
27
28
28
29
29
29
29
30
30
30
30
29
29
29
28
28
27
26
25
25
24
23
22
21
20
19
18
17
16
14
13
12
10
9
8
7
6
5
3
2
1
0
0
-1
-2
-2
-3
-4
-5
-5
-6
-7
-8
-8
-8
-9
-9
-10
-11
-11
-11
-12
-12
-13
-13
-13
-14
-14
-15
-15
-15
-16
-16
-17
-17
-17
-17
-18
-18
-18
-18
-19
-19
-19
-19
-19
-19
-19
-19
-19
-19
-19
-19
-19
-19
-19
-19
-19
-19
-18
-18
-18
-18
-18
-18
-18
-18
-18
-18
-18
-18
-18
-18
-18
-18
-19
-19
-19
-19
-19
-19
-19
-19
-19
-19
-19
-19
-20
-20
-20
-20
-20
-20
-20
-20
-19
-19
-18
-18
-17
-15
-14
-12
-10
-8
-5
-2
1
5
10
15
21
26
33
40
47
55
64
73
83
93
103
114
125
136
147
157
168
179
189
199
210
220
229
238
245
252
258
262
266
267
268
266
263
259
254
247
238
229
218
206
193
179
164
148
131
116
99
83
67
52
38
25
12
0
-10
-20
-29
-36
-43
-49
-53
-57
-60
-63
-65
-67
-68
-68
-69
-68
-68
-67
-66
-65
-63
-61
-60
-58
-56
-54
-52
-51
-49
-47
-45
-44
-42
-40
-39
-38
-36
-35
-34
-33
-32
-31
-31
-30
-30
-29
-29
-29
-28
-28
-28
-28
-28
-28
-28
-28
-28
-28
-28
-28
-28
-28
-28
-28
-28
-28
-28
-28
-27
-27
-27
-27
-27
-27
-27
-27
-27
-26
-26
-26
-25
-25
-25
-25
-25
-25
-25
-25
-25
-25
-25
-25
-25
-25
-25
-25
-25
-25
-25
-25
-25
-25
-25
-26
-26
-26
-26
-26
-26
-26
-26
-26
-26
-26
-26
-26
-26
-26
-26
-26
-26
-26
-26
-26
-25
-25
-25
-25
-25
-25
-25
-25
-25
-25
-25
-26
-26
-26
-26
-26
-27
-27
-27
-28
-28
-28
-29
-29
-29
-29
-29
-29
-29
-29
-29
-30
-30
-30
-30
-30
-30
-30
-30
-30
-30
-30
-30
-30
-31
-31
-31
-31
-31
-31
-31
-31
-31
-31
-31
-32
-32
-32
-32
-33
-33
-33
-34
-34
-34
-34
-34
-35
-35
-35
-35
-35
-35
-35
-35
-34
-34
-34
-34
-34
-34
-33
-33
-33
-33
-32
-32
-31
-31
-31
-31
-30
-30
-30
-30
-29
-29
-29
-28
-28
-28
-28
-27
-27
-27
-26
-26
-26
-25
-25
-24
-24
-24
-24
-23
-22
-22
-21
-20
-20
-19
-18
-17
-16
-15
-14
-13
-12
-11
-10
-10
-9
-8
-8
-7
-6
-5
-4
-4
-4
-3
-2
-1
-1
-1
0
0
0
1
2
3
3
4
5
5
6
7
8
8
8
9
10
10
10
11
11
11
12
12
11
12
12
12
12
12
12
11
11
11
11
11
11
11
10
10
10
10
10
10
9
9
9
9
9
9
8
8
8
8
8
8
