# Simple Text Format
# Sampling Rate (Hz):= 1200.00
# Resolution:= 12
# Labels:= ECG	aVL
# Age:=	20
# Gender:=	Feminino
0
0
0
0
0
0
0
0
0
0
0
0
0
0
0
0
0
0
0
0
0
0
0
0
0
0
0
0
0
0
0
0
0
0
0
0
0
0
0
0
0
0
0
0
0
0
0
0
0
0
0
0
0
0
0
0
0
0
0
0
0
0
0
0
0
0
0
0
0
0
0
0
0
0
0
0
0
0
0
0
0
0
0
0
0
0
0
0
0
0
0
0
0
0
0
0
0
0
0
0
0
0
0
0
0
0
0
0
0
0
0
0
0
0
0
0
0
0
0
0
0
0
0
0
0
0
0
0
0
0
0
0
0
0
0
0
0
0
0
0
0
0
0
0
0
0
0
0
0
0
0
0
0
0
0
0
0
0
0
0
0
0
0
0
0
0
0
0
0
0
0
0
0
0
0
0
0
0
0
0
0
0
0
0
0
0
0
0
0
0
0
0
0
0
0
0
0
0
0
0
0
0
0
0
0
0
0
0
0
0
0
0
0
0
0
0
0
0
0
0
0
0
0
0
0
0
0
0
0
0
0
0
0
0
0
0
0
0
0
0
0
0
0
0
0
0
0
0
0
0
0
0
0
0
0
0
0
0
0
0
0
0
0
0
0
0
0
0
0
0
0
0
0
0
0
0
0
0
0
0
0
0
0
0
0
0
0
0
0
0
0
0
0
0
0
0
0
0
0
0
0
0
0
0
0
0
0
0
0
0
0
0
0
0
0
0
0
0
0
0
0
0
0
0
0
0
0
0
0
0
0
0
0
0
0
0
0
0
0
0
0
0
0
0
0
0
0
0
0
0
0
0
0
0
0
0
0
0
0
0
0
0
0
0
0
0
0
0
0
0
0
0
0
0
0
0
0
0
0
0
0
0
0
0
0
0
0
0
0
0
0
0
0
0
0
0
0
0
0
0
0
0
0
0
0
0
0
0
0
0
0
0
0
0
0
0
0
0
0
0
0
0
0
0
0
0
0
0
0
0
0
0
0
0
0
0
0
0
0
0
0
0
0
0
0
0
0
0
0
0
0
0
0
0
0
0
0
0
0
0
0
0
0
0
0
0
0
0
0
0
0
0
0
0
0
0
0
0
0
0
0
0
0
0
0
0
0
0
0
0
0
0
0
0
0
0
0
0
0
0
0
0
0
0
0
0
0
0
0
0
0
0
0
0
0
0
0
0
0
0
0
0
0
0
0
0
0
0
0
0
0
0
0
0
0
0
0
0
0
0
0
0
0
0
0
0
0
0
0
0
0
0
0
0
0
0
0
0
0
0
0
0
0
0
0
0
0
0
0
0
0
0
0
0
0
0
0
0
0
0
0
0
0
0
0
0
0
0
0
0
0
0
0
0
0
0
0
0
0
0
0
0
0
0
0
0
0
0
0
0
0
0
0
0
0
0
0
0
0
0
0
0
0
0
0
0
0
0
0
0
0
0
0
0
0
0
0
0
0
0
0
0
0
0
0
0
0
0
0
0
0
0
0
0
0
0
0
0
0
0
0
0
0
0
0
0
0
0
0
0
0
0
0
0
0
0
0
0
0
0
0
0
0
0
0
0
0
0
0
0
0
0
0
0
0
0
0
0
0
0
0
0
0
0
0
0
0
0
0
0
0
0
0
0
0
0
0
0
0
0
0
0
0
0
0
0
0
0
0
0
0
0
0
0
0
0
0
0
0
0
0
0
0
0
0
0
0
0
0
0
0
0
0
0
0
0
0
0
0
0
0
0
0
0
0
0
0
0
0
0
0
0
0
0
0
0
0
0
0
0
0
0
0
0
0
0
0
0
0
0
0
0
0
0
0
0
0
0
0
0
0
0
0
0
0
0
0
0
0
0
0
0
0
0
0
0
0
0
0
0
0
0
0
0
0
0
0
0
0
0
0
0
0
0
0
0
0
0
0
0
0
0
0
0
0
0
0
0
0
0
0
0
0
0
0
0
0
0
0
0
0
0
0
0
0
0
0
0
0
0
0
0
0
0
0
0
0
0
0
0
0
0
0
0
0
0
0
0
0
0
0
0
0
0
0
0
0
0
0
0
0
0
0
0
0
0
0
0
0
0
0
0
0
0
0
0
0
0
0
0
0
0
0
0
0
0
0
0
0
0
0
0
0
0
0
0
0
0
0
0
0
0
0
0
0
0
0
0
0
0
0
0
0
0
0
0
0
0
0
0
0
0
0
0
0
0
0
0
0
0
0
0
0
0
0
0
0
0
0
0
0
0
0
0
0
0
0
0
0
0
0
0
0
0
0
0
0
0
0
0
0
0
0
0
0
0
0
0
0
0
0
0
0
0
0
0
0
0
0
0
0
0
0
0
0
0
0
0
0
0
0
0
0
0
0
0
0
0
0
0
0
0
0
0
0
0
0
0
0
0
0
0
0
0
0
0
0
0
0
0
0
0
0
0
0
0
0
0
0
0
0
0
0
0
0
0
0
0
0
0
0
0
0
0
0
0
0
0
0
0
0
0
0
0
0
0
0
0
0
0
0
0
0
0
0
0
0
0
0
0
0
0
0
0
0
0
0
0
0
0
0
0
0
0
0
0
0
0
0
0
0
0
0
0
0
0
0
0
0
0
0
0
0
0
0
0
0
0
0
0
0
0
0
0
0
0
0
0
0
0
0
0
0
0
0
0
0
0
0
0
0
-57
-57
-57
-57
-56
-56
-56
-56
-57
-57
-57
-57
-57
-57
-57
-57
-57
-56
-56
-56
-57
-57
-57
-57
-58
-58
-58
-58
-58
-59
-59
-59
-60
-60
-61
-61
-61
-61
-62
-63
-63
-64
-63
-64
-65
-64
-65
-65
-65
-66
-66
-66
-66
-67
-66
-67
-67
-67
-67
-67
-67
-67
-68
-68
-68
-68
-69
-69
-70
-69
-70
-71
-71
-71
-71
-72
-72
-72
-72
-73
-73
-72
-72
-72
-72
-72
-72
-72
-71
-71
-70
-70
-69
-68
-68
-68
-67
-67
-66
-66
-65
-64
-63
-63
-62
-62
-62
-60
-60
-60
-59
-59
-59
-58
-58
-58
-58
-57
-57
-57
-56
-57
-57
-57
-57
-57
-56
-57
-57
-57
-57
-56
-57
-57
-57
-57
-56
-57
-56
-56
-55
-56
-55
-55
-56
-55
-55
-54
-55
-55
-54
-54
-54
-55
-55
-55
-54
-54
-55
-54
-54
-54
-54
-54
-54
-54
-54
-54
-54
-54
-54
-54
-54
-54
-54
-55
-55
-55
-55
-55
-55
-55
-55
-55
-55
-55
-55
-55
-55
-55
-55
-56
-56
-55
-54
-55
-55
-55
-55
-55
-54
-54
-54
-53
-53
-52
-52
-52
-52
-50
-50
-50
-50
-50
-49
-49
-49
-49
-48
-48
-48
-48
-48
-48
-48
-48
-49
-49
-50
-51
-52
-53
-55
-58
-60
-63
-66
-70
-74
-79
-83
-87
-93
-99
-104
-110
-117
-123
-130
-135
-142
-147
-152
-156
-161
-163
-166
-168
-169
-170
-170
-169
-169
-167
-164
-161
-157
-153
-147
-143
-136
-131
-125
-120
-113
-107
-100
-94
-88
-83
-78
-73
-68
-64
-60
-57
-53
-51
-49
-47
-45
-44
-42
-41
-40
-39
-39
-40
-39
-39
-39
-39
-39
-40
-40
-41
-41
-41
-42
-42
-42
-43
-43
-44
-43
-44
-44
-45
-45
-45
-46
-46
-46
-46
-47
-47
-47
-47
-47
-48
-48
-48
-48
-48
-48
-48
-48
-48
-47
-47
-47
-47
-47
-47
-47
-47
-47
-47
-47
-47
-47
-47
-47
-47
-47
-46
-46
-47
-47
-47
-47
-47
-47
-48
-48
-47
-47
-47
-47
-47
-47
-47
-47
-47
-47
-47
-46
-46
-47
-47
-46
-46
-46
-46
-46
-46
-46
-45
-45
-45
-45
-45
-45
-45
-45
-45
-45
-44
-44
-44
-44
-44
-44
-44
-44
-44
-44
-44
-43
-43
-43
-43
-42
-43
-43
-42
-42
-42
-42
-41
-41
-41
-41
-40
-40
-41
-41
-41
-40
-40
-40
-40
-40
-40
-40
-40
-39
-39
-39
-39
-38
-38
-38
-37
-37
-36
-36
-36
-35
-35
-35
-35
-35
-35
-34
-34
-34
-33
-33
-32
-33
-32
-32
-31
-31
-30
-30
-29
-29
-28
-28
-27
-26
-26
-25
-25
-24
-24
-24
-24
-24
-24
-23
-23
-23
-22
-22
-23
-23
-23
-22
-23
-23
-23
-23
-23
-23
-23
-24
-24
-23
-23
-24
-24
-24
-24
-24
-25
-25
-25
-26
-26
-26
-26
-26
-27
-27
-27
-28
-28
-29
-28
-28
-28
-29
-29
-30
-30
-31
-32
-33
-33
-34
-35
-35
-36
-37
-38
-39
-39
-40
-42
-42
-44
-44
-46
-46
-47
-47
-48
-50
-50
-51
-52
-52
-53
-54
-55
-56
-56
-57
-57
-57
-58
-59
-59
-60
-60
-61
-61
-62
-62
-62
-63
-63
-63
-64
-64
-64
-65
-65
-65
-65
-65
-65
-66
-66
-66
-66
-66
-65
-66
-66
-66
-65
-65
-66
-65
-65
-65
-64
-64
-64
-65
-64
-64
-64
-64
-64
-64
-64
-64
-64
-64
-64
-64
-65
-65
-65
-65
-65
-65
-65
-65
-66
-66
-66
-66
-66
-66
-66
-66
-66
-65
-65
-65
-65
-65
-65
-65
-65
-64
-65
-65
-65
-65
-65
-65
-65
-64
-64
-64
-64
-64
-64
-64
-64
-64
-65
-65
-65
-65
-65
-65
-65
-65
-66
-66
-66
-66
-66
-66
-66
-66
-66
-66
-66
-66
-65
-65
-65
-65
-65
-65
-65
-65
-65
-65
-64
-64
-64
-64
-64
-64
-64
-64
-64
-64
-64
-64
-64
-64
-63
-63
-63
-63
-63
-63
-63
-63
-63
-63
-63
-63
-63
-63
-63
-63
-63
-63
-62
-62
-62
-62
-62
-63
-63
-63
-63
-63
-63
-63
-63
-63
-63
-64
-63
-63
-63
-63
-63
-64
-64
-64
-64
-64
-64
-64
-63
-63
-63
-63
-63
-63
-63
-63
-63
-63
-63
-62
-62
-62
-62
-62
-62
-62
-62
-62
-62
-62
-62
-62
-63
-62
-62
-63
-63
-63
-63
-63
-63
-63
-63
-63
-63
-63
-63
-63
-64
-63
-63
-63
-63
-64
-64
-63
-64
-64
-65
-64
-65
-66
-65
-66
-67
-67
-68
-67
-68
-69
-69
-69
-70
-69
-70
-69
-70
-71
-71
-71
-71
-71
-71
-71
-72
-71
-71
-71
-71
-71
-71
-71
-70
-71
-70
-71
-70
-70
-70
-69
-69
-68
-68
-67
-67
-67
-65
-65
-65
-64
-64
-63
-63
-62
-61
-61
-60
-60
-60
-60
-59
-60
-60
-60
-61
-60
-61
-61
-61
-61
-61
-62
-62
-62
-62
-63
-63
-63
-63
-63
-64
-63
-63
-63
-63
-63
-62
-62
-63
-62
-62
-63
-62
-62
-62
-62
-62
-61
-62
-61
-62
-61
-62
-62
-61
-62
-61
-61
-60
-61
-61
-60
-60
-61
-60
-60
-60
-60
-59
-60
-60
-60
-60
-60
-59
-59
-59
-59
-59
-59
-59
-59
-59
-59
-59
-59
-59
-59
-59
-59
-59
-59
-60
-60
-60
-59
-59
-59
-59
-59
-59
-59
-59
-59
-59
-59
-59
-59
-59
-59
-60
-60
-60
-60
-60
-60
-60
-59
-59
-59
-58
-58
-58
-58
-58
-58
-58
-58
-57
-58
-57
-57
-56
-56
-55
-54
-54
-53
-53
-53
-53
-54
-53
-53
-53
-53
-53
-53
-53
-55
-57
-59
-62
-64
-67
-72
-75
-79
-83
-87
-93
-98
-104
-110
-115
-121
-127
-132
-136
-141
-145
-148
-151
-153
-155
-156
-157
-157
-156
-156
-153
-151
-148
-144
-140
-135
-130
-125
-119
-114
-109
-103
-98
-92
-87
-82
-77
-73
-69
-65
-61
-59
-56
-54
-51
-51
-49
-48
-47
-46
-45
-45
-44
-44
-44
-44
-44
-44
-44
-44
-43
-44
-44
-44
-45
-45
-45
-46
-46
-46
-46
-47
-48
-48
-48
-49
-49
-50
-50
-50
-50
-51
-51
-51
-51
-52
-52
-52
-52
-51
-51
-51
-51
-51
-51
-51
-51
-50
-50
-50
-49
-49
-49
-49
-49
-48
-48
-48
-48
-48
-47
-47
-47
-47
-47
-47
-47
-47
-47
-47
-47
-48
-48
-48
-48
-48
-47
-48
-48
-48
-48
-49
-48
-48
-48
-49
-49
-49
-49
-49
-49
-49
-49
-49
-48
-48
-48
-47
-47
-47
-47
-46
-46
-47
-46
-46
-46
-45
-45
-45
-45
-45
-44
-44
-44
-44
-44
-44
-44
-44
-44
-44
-44
-44
-44
-44
-43
-43
-43
-43
-43
-43
-43
-42
-42
-42
-42
-42
-41
-41
-41
-41
-40
-40
-40
-39
-39
-39
-38
-38
-38
-38
-37
-37
-37
-36
-36
-37
-36
-36
-36
-35
-35
-34
-34
-34
-33
-33
-33
-32
-32
-32
-31
-31
-31
-31
-31
-30
-30
-30
-30
-29
-28
-28
-28
-28
-28
-28
-28
-28
-28
-27
-27
-27
-27
-27
-28
-27
-27
-27
-27
-28
-27
-27
-28
-28
-28
-28
-28
-29
-29
-29
-29
-30
-30
-29
-30
-30
-31
-31
-31
-32
-31
-32
-32
-33
-33
-34
-33
-34
-34
-34
-35
-35
-36
-36
-36
-37
-38
-39
-38
-39
-40
-41
-40
-41
-42
-43
-43
-44
-45
-46
-46
-47
-48
-49
-50
-51
-51
-52
-53
-53
-54
-55
-56
-57
-58
-57
-58
-59
-59
-60
-60
-61
-61
-61
-61
-63
-63
-63
-63
-63
-63
-63
-63
-64
-64
-64
-64
-64
-64
-64
-64
-64
-64
-64
-64
-64
-65
-65
-64
-64
-64
-64
-64
-64
-64
-64
-63
-63
-64
-64
-64
-64
-64
-64
-64
-64
-63
-63
-63
-63
-63
-63
-63
-63
-63
-63
-63
-63
-63
-63
-63
-63
-63
-63
-63
-63
-63
-64
-64
-64
-64
-64
-64
-64
-65
-65
-65
-65
-65
-65
-65
-65
-65
-65
-64
-64
-64
-64
-63
-63
-63
-63
-63
-63
-63
-63
-62
-62
-62
-62
-62
-62
-62
-62
-62
-62
-62
-62
-62
-61
-61
-61
-61
-61
-61
-61
-61
-61
-62
-62
-62
-62
-62
-62
-61
-61
-62
-62
-62
-62
-62
-62
-62
-63
-62
-62
-62
-62
-62
-62
-61
-61
-61
-62
-62
-61
-61
-61
-61
-61
-61
-61
-61
-61
-60
-60
-60
-60
-61
-61
-61
-61
-61
-61
-61
-61
-61
-61
-61
-61
-60
-60
-60
-60
-60
-60
-61
-61
-61
-61
-61
-61
-61
-61
-61
-61
-61
-61
-62
-62
-62
-62
-61
-61
-61
-61
-61
-61
-61
-61
-61
-61
-60
-60
-60
-60
-59
-59
-59
-59
-59
-60
-60
-60
-60
-60
-59
-59
-59
-59
-59
-59
-60
-60
-60
-60
-59
-59
-59
-59
-59
-60
-60
-60
-60
-60
-60
-60
-60
-60
-61
-61
-61
-61
-61
-61
-61
-61
-62
-62
-62
-62
-61
-61
-61
-61
-61
-61
-61
-61
-60
-60
-60
-61
-61
-61
-61
-61
-62
-62
-63
-63
-64
-64
-65
-65
-66
-66
-67
-67
-67
-68
-67
-68
-68
-69
-68
-68
-69
-68
-67
-67
-67
-66
-66
-66
-65
-65
-65
-63
-63
-63
-62
-61
-60
-60
-60
-59
-59
-58
-58
-58
-57
-57
-57
-57
-57
-57
-57
-56
-56
-56
-56
-55
-55
-54
-54
-53
-52
-52
-52
-51
-51
-50
-50
-50
-50
-50
-50
-50
-50
-50
-50
-50
-50
-50
-50
-51
-51
-52
-52
-53
-54
-54
-55
-55
-56
-56
-56
-56
-56
-57
-57
-57
-58
-58
-57
-58
-58
-58
-58
-58
-58
-58
-58
-58
-58
-58
-58
-58
-58
-57
-58
-58
-57
-57
-57
-57
-57
-57
-57
-56
-56
-57
-57
-57
-57
-57
-57
-57
-57
-57
-57
-57
-57
-57
-57
-57
-57
-57
-58
-58
-58
-58
-58
-58
-58
-58
-58
-58
-58
-58
-57
-57
-57
-57
-57
-58
-58
-58
-58
-58
-58
-58
-58
-58
-58
-58
-57
-57
-57
-56
-56
-56
-56
-56
-55
-55
-55
-55
-55
-55
-54
-53
-53
-53
-53
-52
-52
-52
-50
-52
-51
-50
-50
-49
-48
-48
-48
-48
-48
-49
-50
-53
-54
-56
-59
-62
-65
-68
-73
-77
-82
-87
-93
-98
-104
-110
-115
-120
-126
-130
-134
-138
-140
-142
-145
-146
-147
-146
-145
-144
-142
-140
-136
-133
-129
-124
-119
-114
-109
-104
-99
-93
-89
-82
-78
-74
-69
-65
-62
-59
-55
-54
-51
-49
-47
-46
-46
-45
-44
-43
-43
-43
-42
-42
-41
-41
-41
-42
-42
-42
-42
-43
-43
-44
-44
-44
-44
-45
-45
-45
-46
-46
-46
-47
-47
-48
-48
-48
-49
-49
-48
-49
-49
-49
-50
-50
-50
-49
-49
-49
-49
-49
-49
-49
-49
-49
-49
-49
-49
-49
-49
-50
-49
-49
-49
-49
-49
-49
-50
-50
-49
-49
-49
-49
-49
-49
-49
-49
-48
-48
-48
-48
-48
-48
-48
-49
-49
-48
-48
-48
-48
-48
-48
-48
-48
-47
-47
-47
-47
-47
-47
-46
-46
-46
-46
-46
-46
-45
-45
-45
-45
-45
-44
-44
-44
-43
-43
-43
-43
-42
-42
-42
-43
-43
-42
-42
-42
-42
-42
-42
-41
-41
-41
-41
-41
-41
-41
-41
-41
-41
-41
-41
-41
-41
-41
-40
-40
-40
-40
-39
-39
-39
-38
-38
-39
-38
-38
-38
-37
-37
-37
-36
-36
-36
-36
-36
-36
-36
-36
-35
-35
-35
-35
-35
-34
-34
-34
-34
-34
-33
-33
-33
-33
-32
-32
-31
-31
-31
-30
-30
-29
-28
-28
-28
-28
-28
-28
-28
-28
-28
-27
-27
-27
-28
-28
-27
-27
-28
-28
-27
-27
-28
-28
-28
-28
-28
-28
-28
-29
-28
-28
-28
-29
-29
-29
-30
-29
-29
-30
-30
-30
-31
-31
-30
-31
-31
-32
-32
-32
-33
-32
-33
-33
-34
-34
-35
-35
-35
-36
-36
-37
-38
-37
-38
-39
-40
-40
-41
-42
-43
-43
-44
-45
-45
-46
-47
-47
-48
-49
-50
-51
-50
-51
-52
-53
-53
-54
-54
-55
-55
-56
-56
-57
-57
-58
-58
-58
-59
-59
-59
-59
-60
-60
-61
-61
-61
-61
-61
-61
-61
-61
-61
-61
-61
-61
-61
-61
-61
-61
-61
-60
-60
-61
-61
-61
-60
-60
-60
-61
-60
-60
-60
-60
-59
-60
-60
-59
-59
-59
-59
-59
-59
-59
-59
-59
-59
-59
-59
-59
-59
-59
-59
-59
-60
-60
-60
-60
-60
-60
-60
-60
-60
-60
-60
-60
-60
-59
-59
-59
-59
-59
-59
-59
-59
-59
-59
-59
-59
-59
-59
-59
-59
-59
-58
-58
-59
-59
-59
-59
-59
-59
-59
-59
-59
-59
-59
-60
-60
-60
-60
-60
-60
-61
-60
-60
-60
-60
-60
-60
-61
-61
-61
-61
-60
-60
-60
-59
-59
-59
-59
-59
-59
-59
-59
-59
-58
-58
-59
-59
-59
-59
-59
-59
-59
-59
-59
-59
-58
-58
-57
-57
-57
-58
-58
-58
-58
-58
-57
-57
-57
-57
-57
-57
-57
-57
-57
-57
-56
-56
-57
-57
-57
-57
-57
-57
-57
-57
-57
-57
-57
-57
-57
-57
-57
-57
-57
-57
-57
-57
-57
-57
-57
-57
-57
-58
-58
-58
-58
-58
-58
-57
-57
-57
-57
-57
-57
-57
-57
-57
-57
-57
-57
-56
-56
-57
-57
-57
-56
-56
-56
-56
-56
-56
-56
-56
-56
-56
-55
-56
-56
-56
-56
-56
-56
-56
-56
-56
-56
-56
-56
-56
-56
-56
-56
-56
-56
-55
-55
-55
-55
-55
-55
-55
-55
-55
-55
-55
-55
-55
-55
-56
-56
-56
-56
-56
-56
-56
-56
-56
-56
-56
-55
-55
-55
-55
-55
-55
-55
-54
-54
-54
-54
-54
-54
-54
-54
-54
-55
-55
-55
-54
-55
-55
-56
-56
-56
-56
-57
-57
-58
-57
-58
-58
-59
-59
-60
-60
-61
-61
-61
-62
-61
-61
-62
-62
-62
-61
-61
-61
-61
-60
-60
-59
-58
-58
-57
-57
-56
-56
-56
-55
-54
-53
-53
-52
-52
-52
-51
-51
-50
-50
-50
-50
-49
-49
-49
-48
-48
-48
-47
-46
-46
-46
-46
-45
-44
-44
-43
-42
-43
-42
-43
-42
-43
-42
-43
-42
-42
-42
-42
-42
-43
-43
-44
-44
-45
-46
-46
-47
-47
-48
-48
-49
-49
-49
-50
-50
-51
-51
-50
-51
-51
-51
-51
-52
-52
-52
-53
-52
-52
-52
-52
-52
-52
-52
-52
-51
-52
-52
-52
-52
-52
-52
-52
-52
-52
-51
-52
-52
-52
-52
-52
-52
-52
-52
-52
-51
-51
-52
-52
-52
-52
-52
-52
-51
-51
-52
-52
-52
-52
-52
-52
-52
-53
-53
-53
-53
-53
-53
-53
-53
-53
-53
-53
-52
-52
-52
-52
-52
-52
-52
-53
-53
-53
-53
-52
-52
-52
-52
-52
-51
-51
-51
-52
-51
-52
-51
-52
-51
-50
-50
-49
-49
-49
-48
-48
-47
-47
-47
-47
-46
-46
-45
-44
-44
-43
-43
-44
-45
-46
-48
-51
-53
-55
-59
-61
-66
-69
-74
-78
-84
-90
-95
-100
-106
-111
-116
-121
-126
-129
-132
-135
-137
-139
-139
-140
-140
-140
-138
-136
-134
-131
-127
-123
-118
-114
-109
-104
-99
-94
-90
-83
-79
-74
-71
-67
-63
-59
-56
-54
-51
-49
-47
-46
-45
-44
-43
-42
-42
-41
-41
-41
-41
-40
-40
-40
-40
-40
-40
-40
-41
-41
-41
-41
-41
-42
-43
-43
-43
-44
-44
-45
-45
-46
-46
-46
-46
-47
-48
-47
-48
-48
-49
-48
-48
-49
-49
-49
-49
-49
-49
-49
-49
-49
-49
-49
-49
-49
-49
-49
-49
-49
-49
-49
-49
-49
-49
-49
-49
-49
-49
-49
-49
-49
-48
-48
-48
-48
-48
-48
-48
-47
-47
-47
-47
-47
-47
-47
-47
-47
-47
-47
-47
-47
-47
-47
-47
-47
-47
-47
-47
-47
-47
-47
-46
-46
-46
-46
-46
-45
-45
-45
-45
-45
-45
-45
-45
-45
-44
-44
-44
-44
-44
-44
-44
-44
-44
-44
-44
-44
-44
-44
-44
-44
-44
-43
-44
-44
-44
-44
-44
-43
-43
-43
-43
-43
-43
-43
-42
-42
-42
-41
-42
-41
-41
-41
-40
-40
-39
-39
-40
-39
-39
-39
-38
-38
-38
-37
-37
-37
-36
-36
-36
-36
-35
-35
-35
-35
-34
-34
-33
-33
-33
-33
-33
-32
-32
-32
-32
-32
-32
-32
-31
-31
-31
-31
-31
-31
-30
-30
-30
-30
-30
-29
-29
-29
-29
-29
-29
-29
-30
-29
-29
-29
-29
-29
-29
-29
-29
-30
-29
-29
-29
-29
-30
-30
-30
-30
-31
-30
-30
-31
-31
-32
-32
-32
-32
-33
-33
-34
-35
-34
-35
-36
-37
-36
-37
-38
-39
-39
-40
-40
-41
-42
-42
-43
-43
-44
-44
-45
-46
-47
-47
-48
-49
-50
-49
-50
-51
-52
-52
-53
-54
-54
-54
-55
-55
-56
-56
-57
-57
-58
-58
-58
-59
-59
-59
-59
-59
-60
-61
-61
-61
-61
-61
-61
-61
-62
-62
-62
-62
-62
-62
-62
-62
-62
-62
-63
-63
-62
-62
-62
-63
-63
-62
-62
-62
-63
-63
-63
-63
-63
-62
-62
-62
-63
-63
-63
-63
-63
-63
-63
-63
-63
-63
-63
-63
-63
-63
-62
-62
-62
-62
-62
-62
-62
-62
-62
-62
-62
-62
-62
-61
-61
-61
-61
-61
-61
-61
-61
-61
-62
-61
-61
-61
-61
-61
-61
-61
-61
-61
-61
-61
-61
-61
-61
-61
-61
-61
-61
-61
-61
-61
-61
-62
-62
-62
-61
-61
-61
-62
-62
-62
-62
-62
-62
-62
-62
-62
-62
-62
-62
-62
-62
-62
-62
-62
-61
-61
-61
-61
-61
-61
-61
-61
-60
-60
-60
-60
-60
-60
-60
-60
-60
-59
-59
-59
-59
-59
-59
-59
-59
-59
-59
-59
-60
-60
-60
-60
-60
-60
-60
-60
-60
-60
-60
-60
-60
-60
-60
-60
-60
-60
-60
-60
-60
-60
-60
-60
-60
-60
-60
-60
-61
-61
-61
-61
-62
-62
-61
-61
-61
-61
-61
-61
-62
-62
-62
-62
-61
-61
-61
-61
-61
-61
-61
-61
-61
-61
-61
-61
-61
-61
-61
-61
-61
-61
-62
-62
-62
-62
-62
-62
-62
-62
-62
-62
-62
-62
-62
-63
-63
-64
-63
-64
-65
-64
-65
-65
-66
-67
-67
-67
-67
-68
-69
-69
-69
-69
-69
-70
-70
-69
-69
-70
-70
-70
-69
-69
-69
-69
-68
-67
-67
-67
-66
-66
-66
-66
-66
-65
-65
-64
-64
-63
-64
-63
-63
-62
-63
-62
-62
-62
-61
-61
-61
-60
-60
-60
-59
-59
-58
-57
-57
-57
-56
-55
-56
-55
-54
-53
-54
-53
-53
-53
-53
-53
-53
-53
-54
-54
-54
-54
-54
-54
-54
-54
-55
-56
-56
-56
-57
-58
-57
-58
-59
-58
-59
-59
-60
-60
-60
-60
-61
-60
-60
-61
-60
-60
-61
-60
-60
-61
-61
-60
-60
-60
-60
-60
-59
-60
-60
-60
-60
-60
-59
-60
-60
-60
-60
-60
-60
-60
-60
-60
-60
-59
-59
-59
-60
-60
-60
-60
-60
-60
-60
-60
-59
-59
-59
-59
-59
-59
-58
-58
-58
-58
-58
-58
-57
-57
-57
-57
-57
-57
-57
-57
-58
-58
-58
-58
-58
-58
-58
-58
-58
-58
-58
-58
-57
-57
-57
-56
-56
-56
-55
-54
-54
-54
-53
-53
-52
-51
-50
-50
-50
-49
-48
-48
-49
-48
-49
-49
-49
-49
-49
-49
-51
-52
-54
-56
-59
-62
-65
-69
-73
-77
-81
-85
-90
-95
-100
-106
-112
-118
-124
-129
-134
-139
-143
-147
-150
-154
-156
-158
-160
-161
-162
-161
-160
-160
-158
-155
-152
-149
-144
-140
-135
-130
-125
-120
-115
-109
-103
-97
-92
-86
-82
-77
-72
-69
-65
-62
-58
-56
-53
-51
-48
-47
-47
-46
-45
-44
-43
-43
-43
-43
-43
-43
-42
-42
-42
-42
-43
-43
-43
-44
-44
-45
-45
-46
-46
-47
-47
-47
-48
-48
-49
-49
-49
-49
-50
-50
-50
-50
-49
-49
-49
-49
-49
-49
-49
-49
-49
-49
-49
-50
-50
-50
-50
-49
-49
-49
-50
-50
-50
-50
-50
-50
-50
-50
-50
-50
-50
-50
-50
-50
-50
-49
-49
-49
-49
-49
-49
-49
-49
-49
-49
-49
-49
-49
-49
-49
-49
-49
-48
-48
-48
-48
-48
-48
-48
-48
-47
-47
-47
-47
-47
-47
-47
-46
-46
-46
-46
-47
-46
-46
-46
-45
-45
-45
-45
-45
-45
-44
-44
-44
-44
-44
-44
-44
-43
-43
-43
-43
-44
-44
-43
-43
-43
-43
-42
-42
-42
-42
-41
-41
-41
-41
-40
-40
-41
-41
-41
-40
-40
-40
-40
-39
-39
-39
-39
-38
-38
-37
-37
-37
-36
-36
-37
-36
-36
-35
-34
-34
-33
-33
-32
-32
-31
-31
-30
-30
-29
-29
-29
-29
-28
-28
-28
-27
-27
-27
-27
-26
-26
-26
-26
-26
-25
-25
-25
-25
-25
-25
-25
-25
-25
-24
-24
-24
-24
-23
-24
-24
-24
-25
-24
-24
-24
-25
-25
-24
-25
-25
-25
-25
-26
-26
-26
-26
-26
-27
-26
-26
-27
-27
-28
-28
-28
-29
-30
-31
-31
-32
-33
-33
-34
-35
-35
-36
-37
-37
-38
-39
-39
-40
-41
-41
-42
-43
-43
-45
-46
-46
-47
-48
-49
-49
-50
-51
-52
-53
-54
-55
-55
-55
-56
-57
-58
-58
-58
-59
-59
-60
-60
-60
-61
-61
-61
-62
-63
-63
-63
-63
-63
-63
-63
-63
-64
-64
-63
-63
-64
-64
-64
-64
-63
-63
-64
-64
-63
-63
-63
-63
-63
-64
-64
-64
-64
-64
-64
-64
-64
-64
-65
-64
-64
-64
-64
-64
-64
-64
-64
-64
-64
-64
-64
-63
-63
-63
-64
-64
-64
-63
-63
-63
-63
-63
-63
-62
-62
-62
-62
-63
-62
-62
-62
-62
-62
-61
-61
-61
-63
-63
-63
-63
-63
-63
-63
-63
-63
-62
-62
-63
-63
-63
-63
-64
-64
-63
-63
-63
-63
-64
-64
-63
-63
-63
-63
-63
-63
-63
-63
-63
-63
-63
-63
-63
-63
-63
-63
-63
-62
-62
-62
-62
-62
-62
-62
-62
-61
-61
-61
-60
-60
-60
-60
-60
-60
-60
-60
-60
-61
-61
-61
-61
-61
-60
-60
-60
-60
-60
-60
-60
-60
-60
-59
-60
-60
-60
-59
-59
-59
-58
-58
-59
-58
-58
-58
-57
-57
-57
-57
-57
-57
-57
-57
-56
-56
-56
-56
-56
-56
-56
-56
-56
-57
-57
-57
-57
-57
-56
-58
-58
-58
-58
-58
-58
-58
-57
-58
-58
-58
-57
-57
-57
-57
-57
-56
-57
-57
-57
-56
-56
-56
-56
-56
-56
-56
-56
-56
-56
-56
-56
-57
-57
-57
-57
-58
-58
-59
-60
-59
-60
-60
-61
-61
-62
-62
-63
-64
-63
-64
-64
-64
-65
-65
-64
-65
-65
-65
-65
-65
-65
-65
-65
-65
-65
-65
-65
-65
-64
-64
-63
-64
-63
-63
-63
-63
-62
-63
-63
-63
-62
-62
-61
-61
-60
-60
-60
-59
-58
-58
-57
-57
-56
-56
-55
-55
-55
-55
-54
-54
-54
-54
-54
-54
-54
-54
-55
-55
-55
-55
-55
-56
-56
-57
-57
-57
-58
-57
-58
-58
-58
-59
-58
-59
-58
-58
-58
-58
-58
-58
-58
-58
-58
-57
-57
-58
-57
-58
-57
-57
-57
-57
-56
-55
-56
-55
-56
-55
-55
-55
-55
-54
-55
-55
-54
-54
-54
-53
-54
-54
-54
-54
-54
-54
-54
-53
-53
-53
-53
-53
-53
-53
-53
-53
-54
-54
-54
-55
-54
-54
-54
-54
-55
-55
-55
-55
-56
-56
-56
-56
-55
-56
-56
-56
-56
-56
-56
-56
-56
-56
-55
-56
-56
-56
-55
-55
-54
-54
-53
-53
-52
-51
-51
-50
-50
-50
-50
-50
-50
-49
-49
-49
-48
-48
-48
-47
-47
-47
-47
-47
-47
-47
-48
-48
-48
-48
-49
-49
-50
-52
-54
-56
-60
-63
-66
-70
-74
-77
-82
-87
-92
-98
-103
-109
-115
-121
-126
-132
-137
-142
-147
-150
-153
-155
-158
-160
-160
-162
-161
-161
-160
-158
-155
-152
-148
-143
-138
-133
-128
-121
-116
-110
-104
-98
-92
-86
-81
-75
-71
-66
-62
-59
-55
-52
-50
-48
-46
-44
-43
-41
-40
-39
-39
-39
-38
-38
-37
-38
-38
-38
-38
-38
-38
-38
-38
-39
-40
-40
-39
-39
-40
-40
-40
-41
-41
-42
-43
-43
-43
-44
-43
-44
-45
-44
-45
-45
-45
-45
-45
-45
-46
-45
-45
-45
-45
-45
-45
-45
-44
-44
-44
-43
-43
-43
-43
-43
-44
-44
-44
-44
-44
-44
-44
-44
-44
-44
-44
-44
-44
-44
-44
-43
-43
-43
-43
-43
-43
-43
-42
-42
-43
-43
-43
-43
-42
-42
-42
-42
-42
-42
-42
-42
-42
-42
-42
-42
-42
-42
-41
-42
-42
-42
-42
-42
-42
-42
-42
-43
-43
-42
-42
-42
-42
-42
-42
-42
-42
-41
-41
-41
-40
-40
-40
-40
-39
-39
-39
-39
-39
-39
-39
-39
-39
-39
-39
-39
-38
-38
-38
-38
-38
-39
-39
-39
-38
-38
-38
-38
-38
-37
-37
-37
-36
-36
-35
-35
-35
-34
-33
-33
-32
-32
-32
-32
-31
-31
-31
-30
-30
-29
-29
-29
-29
-29
-29
-29
-29
-29
-29
-28
-28
-28
-28
-27
-27
-27
-26
-26
-26
-26
-26
-26
-26
-25
-25
-25
-25
-25
-25
-25
-25
-25
-25
-25
-26
-25
-25
-25
-25
-25
-25
-24
-25
-25
-26
-26
-27
-26
-27
-28
-29
-28
-29
-30
-31
-32
-32
-32
-33
-34
-35
-35
-36
-37
-37
-38
-39
-39
-40
-41
-43
-43
-44
-44
-45
-46
-46
-47
-48
-49
-49
-50
-51
-51
-53
-54
-54
-55
-56
-57
-57
-58
-59
-60
-61
-61
-62
-63
-64
-64
-65
-66
-67
-67
-68
-69
-69
-70
-70
-71
-71
-72
-72
-72
-72
-72
-73
-74
-74
-73
-73
-74
-74
-74
-75
-75
-75
-76
-76
-76
-76
-76
-77
-77
-77
-78
-78
-78
-79
-79
-79
-79
-79
-79
-79
-79
-79
-79
-79
-79
-79
-79
-79
-79
-79
-79
-79
-79
-79
-78
-78
-78
-79
-79
-79
-79
-79
-79
-79
-79
-79
-79
-79
-79
-79
-79
-79
-80
-80
-80
-80
-80
-80
-81
-80
-80
-80
-80
-80
-80
-80
-80
-80
-81
-81
-81
-81
-81
-81
-81
-81
-82
-82
-82
-82
-82
-82
-82
-82
-83
-83
-83
-82
-82
-82
-83
-83
-83
-83
-83
-83
-83
-83
-83
-83
-83
-83
-83
-83
-82
-82
-82
-82
-82
-82
-82
-81
-81
-81
-81
-81
-82
-82
-82
-82
-81
-81
-81
-82
-82
-82
-81
-81
-81
-81
-81
-81
-81
-81
-81
-81
-81
-81
-81
-81
-81
-80
-80
-80
-80
-80
-80
-80
-79
-79
-80
-80
-79
-79
-79
-79
-79
-78
-78
-78
-78
-78
-78
-78
-78
-78
-78
-78
-78
-78
-78
-78
-78
-78
-78
-78
-78
-77
-77
-77
-76
-76
-77
-77
-77
-77
-77
-77
-77
-77
-77
-77
-77
-77
-77
-76
-76
-76
-77
-77
-77
-76
-76
-76
-76
-76
-76
-75
-75
-75
-75
-75
-75
-76
-75
-76
-76
-76
-77
-77
-78
-78
-79
-79
-80
-80
-80
-81
-80
-81
-81
-81
-82
-81
-82
-81
-81
-81
-79
-79
-79
-78
-78
-77
-77
-77
-76
-75
-74
-74
-73
-73
-72
-72
-72
-71
-71
-71
-71
-70
-71
-70
-70
-71
-70
-70
-70
-70
-69
-69
-69
-69
-68
-68
-68
-67
-66
-66
-65
-65
-65
-64
-63
-63
-62
-63
-62
-63
-62
-62
-63
-63
-63
-63
-63
-63
-64
-64
-65
-65
-66
-67
-66
-67
-67
-68
-68
-69
-68
-68
-69
-69
-70
-69
-69
-69
-69
-69
-69
-68
-69
-68
-68
-68
-67
-67
-67
-67
-66
-66
-66
-66
-65
-64
-65
-65
-64
-64
-64
-64
-64
-64
-64
-64
-64
-64
-64
-64
-64
-64
-64
-64
-64
-64
-64
-64
-64
-64
-64
-64
-63
-63
-63
-63
-64
-64
-64
-63
-63
-63
-63
-63
-63
-63
-63
-63
-63
-63
-63
-63
-64
-64
-64
-63
-63
-63
-62
-62
-62
-62
-62
-61
-61
-61
-61
-61
-61
-60
-61
-60
-59
-58
-58
-58
-57
-57
-56
-56
-56
-55
-56
-55
-54
-54
-53
-54
-53
-55
-56
-56
-59
-61
-63
-66
-70
-73
-76
-80
-84
-89
-94
-100
-106
-111
-117
-123
-128
-133
-137
-142
-145
-149
-151
-152
-153
-155
-155
-154
-153
-151
-149
-147
-143
-139
-135
-130
-125
-120
-115
-109
-104
-99
-94
-88
-84
-79
-74
-71
-67
-64
-61
-58
-55
-53
-51
-49
-49
-48
-47
-46
-45
-45
-44
-44
-44
-44
-44
-43
-43
-44
-44
-45
-44
-44
-45
-45
-46
-47
-47
-48
-49
-49
-50
-50
-51
-51
-51
-51
-52
-52
-52
-52
-53
-53
-52
-52
-52
-52
-52
-52
-52
-52
-52
-52
-52
-52
-52
-52
-52
-52
-52
-52
-51
-51
-51
-51
-51
-51
-51
-51
-50
-50
-49
-49
-49
-49
-49
-49
-49
-49
-49
-49
-49
-49
-48
-48
-48
-48
-48
-47
-47
-47
-47
-47
-47
-46
-46
-46
-46
-45
-45
-45
-45
-45
-45
-45
-45
-45
-45
-45
-45
-44
-44
-44
-44
-44
-44
-44
-44
-44
-44
-44
-44
-43
-43
-43
-43
-43
-43
-43
-43
-43
-43
-43
-43
-43
-43
-43
-42
-42
-42
-42
-42
-41
-41
-41
-41
-41
-41
-41
-41
-41
-41
-41
-40
-40
-40
-40
-40
-40
-39
-39
-39
-38
-38
-38
-38
-37
-37
-37
-36
-36
-36
-36
-35
-35
-35
-34
-34
-34
-33
-33
-33
-33
-32
-32
-32
-31
-31
-31
-31
-31
-31
-31
-31
-31
-30
-30
-30
-30
-30
-30
-29
-30
-30
-30
-30
-30
-29
-29
-29
-29
-29
-30
-29
-29
-30
-30
-30
-30
-30
-31
-31
-31
-31
-32
-32
-32
-33
-33
-34
-34
-34
-35
-35
-36
-35
-35
-36
-36
-37
-37
-38
-37
-38
-39
-39
-40
-40
-41
-42
-43
-43
-43
-44
-45
-45
-47
-48
-48
-49
-50
-51
-50
-51
-52
-53
-54
-54
-55
-55
-56
-57
-56
-57
-58
-58
-58
-59
-59
-60
-60
-61
-61
-61
-62
-63
-63
-63
-63
-63
-63
-63
-64
-64
-64
-64
-64
-64
-64
-65
-65
-65
-65
-65
-65
-64
-65
-65
-65
-65
-64
-65
-65
-65
-65
-64
-64
-64
-65
-65
-64
-64
-64
-63
-64
-64
-64
-63
-63
-63
-63
-63
-63
-62
-62
-62
-62
-62
-62
-62
-62
-62
-62
-62
-62
-63
-63
-63
-64
-64
-64
-64
-64
-65
-65
-65
-64
-64
-64
-64
-64
-65
-65
-65
-65
-65
-65
-65
-65
-65
-65
-65
-65
-65
-65
-65
-64
-64
-64
-64
-64
-64
-64
-64
-64
-64
-64
-64
-64
-64
-64
-63
-63
-63
-63
-63
-63
-63
-63
-63
-63
-63
-63
-63
-63
-63
-63
-63
-63
-63
-63
-62
-62
-62
-62
-62
-62
-62
-62
-62
-62
-62
-62
-62
-62
-61
-61
-61
-61
-61
-61
-61
-61
-60
-60
-60
-60
-60
-60
-60
-60
-60
-60
-60
-60
-60
-60
-59
-59
-59
-59
-59
-59
-59
-60
-60
-60
-60
-60
-60
-60
-59
-59
-59
-59
-59
-60
-60
-60
-60
-60
-61
-61
-61
-60
-60
-60
-60
-60
-60
-60
-60
-61
-60
-60
-60
-59
-59
-59
-59
-59
-59
-59
-59
-59
-59
-59
-59
-59
-59
-60
-60
-60
-60
-59
-59
-59
-59
-59
-60
-60
-59
-59
-59
-59
-58
-58
-58
-59
-58
-58
-58
-58
-57
-57
-57
-57
-58
-58
-57
-57
-57
-57
-57
-57
-57
-56
-56
-56
-56
-57
-57
-56
-56
-56
-56
-56
-56
-56
-56
-57
-57
-57
-57
-57
-57
-58
-58
-58
-59
-59
-59
-60
-60
-61
-61
-62
-62
-62
-62
-63
-64
-63
-64
-64
-64
-64
-64
-65
-64
-64
-64
-64
-64
-63
-63
-62
-61
-61
-61
-60
-59
-59
-58
-58
-57
-57
-57
-55
-55
-55
-55
-53
-53
-53
-52
-51
-51
-51
-50
-51
-51
-51
-51
-50
-50
-51
-50
-50
-51
-51
-50
-50
-50
-51
-50
-51
-50
-51
-50
-51
-50
-51
-50
-50
-51
-50
-50
-49
-50
-49
-49
-49
-49
-49
-49
-49
-49
-49
-49
-50
-49
-49
-50
-50
-50
-50
-51
-51
-51
-51
-52
-52
-52
-53
-52
-52
-52
-52
-52
-52
-51
-52
-52
-51
-51
-51
-51
-51
-50
-51
-50
-50
-50
-50
-50
-50
-50
-50
-50
-49
-49
-49
-49
-49
-49
-49
-49
-49
-50
-50
-50
-50
-50
-50
-50
-50
-50
-50
-50
-50
-51
-50
-50
-50
-50
-50
-51
-51
-51
-51
-51
-51
-51
-51
-51
-51
-51
-51
-51
-51
-50
-50
-50
-50
-50
-50
-49
-49
-49
-49
-49
-48
-47
-47
-47
-46
-46
-46
-46
-45
-44
-45
-45
-45
-44
-44
-43
-43
-43
-44
-44
-46
-48
-52
-54
-57
-59
-63
-67
-70
-75
-80
-85
-91
-97
-103
-107
-112
-118
-122
-127
-130
-133
-135
-137
-138
-139
-139
-139
-138
-136
-134
-130
-127
-123
-118
-113
-109
-104
-98
-92
-88
-82
-77
-72
-68
-63
-59
-56
-53
-50
-48
-45
-43
-41
-40
-38
-37
-36
-36
-35
-35
-35
-34
-34
-34
-34
-35
-35
-35
-36
-36
-37
-36
-36
-37
-37
-36
-38
-38
-38
-38
-39
-39
-39
-40
-40
-40
-40
-41
-40
-40
-41
-41
-41
-41
-41
-41
-41
-41
-41
-41
-41
-41
-41
-41
-41
-40
-40
-40
-40
-40
-40
-40
-39
-39
-39
-39
-39
-39
-39
-38
-38
-38
-38
-38
-38
-38
-38
-37
-37
-37
-37
-37
-37
-37
-37
-36
-36
-36
-36
-36
-36
-36
-35
-35
-35
-35
-35
-35
-35
-35
-35
-35
-35
-35
-35
-35
-35
-35
-34
-34
-34
-34
-34
-34
-34
-34
-33
-33
-33
-33
-33
-33
-32
-32
-32
-32
-32
-31
-31
-32
-32
-32
-32
-32
-32
-32
-31
-30
-30
-30
-30
-30
-30
-30
-30
-30
-30
-30
-30
-30
-30
-30
-30
-30
-29
-29
-29
-29
-28
-28
-28
-28
-27
-27
-27
-27
-27
-27
-26
-26
-25
-25
-25
-25
-25
-25
-24
-24
-24
-24
-23
-23
-23
-23
-22
-21
-21
-21
-21
-21
-21
-20
-20
-20
-20
-20
-19
-20
-20
-20
-20
-19
-19
-19
-20
-19
-19
-19
-19
-20
-19
-19
-19
-20
-20
-19
-20
-20
-20
-20
-21
-20
-20
-20
-21
-21
-22
-22
-21
-21
-21
-21
-22
-22
-22
-22
-22
-23
-24
-24
-24
-24
-25
-26
-26
-27
-28
-27
-28
-29
-30
-30
-31
-31
-32
-32
-33
-34
-35
-34
-35
-36
-37
-37
-37
-38
-39
-39
-40
-41
-40
-41
-42
-43
-43
-44
-44
-45
-45
-46
-46
-47
-47
-47
-48
-48
-48
-48
-49
-49
-49
-50
-50
-50
-50
-50
-51
-50
-50
-50
-51
-50
-50
-50
-51
-51
-51
-50
-50
-51
-51
-50
-50
-50
-50
-51
-50
-50
-50
-50
-51
-50
-50
-49
-49
-50
-49
-49
-49
-48
-48
-48
-49
-49
-49
-49
-48
-49
-49
-49
-49
-49
-50
-50
-49
-49
-49
-50
-50
-50
-50
-50
-50
-50
-50
-50
-50
-50
-50
-50
-49
-50
-50
-50
-50
-50
-50
-50
-50
-50
-50
-50
-50
-50
-49
-49
-49
-49
-49
-49
-49
-49
-49
-49
-49
-49
-49
-49
-49
-49
-49
-49
-49
-49
-48
-48
-48
-48
-48
-48
-48
-48
-48
-48
-48
-48
-48
-48
-48
-48
-48
-48
-48
-48
-48
-48
-48
-48
-48
-48
-48
-48
-48
-48
-48
-48
-48
-48
-48
-47
-47
-47
-48
-48
-48
-48
-48
-48
-48
-48
-48
-47
-47
-47
-47
-47
-47
-47
-47
-46
-46
-46
-46
-46
-46
-46
-46
-46
-46
-46
-46
-46
-46
-47
-47
-47
-47
-47
-47
-47
-47
-47
-47
-47
-47
-47
-47
-47
-47
-47
-47
-47
-46
-47
-47
-47
-47
-46
-46
-46
-46
-46
-46
-46
-46
-47
-47
-46
-46
-46
-46
-46
-46
-46
-46
-46
-46
-46
-46
-45
-46
-46
-46
-46
-46
-46
-45
-45
-45
-45
-45
-45
-45
-45
-45
-44
-44
-45
-45
-45
-45
-46
-45
-46
-47
-46
-47
-47
-47
-48
-49
-49
-50
-50
-51
-51
-52
-52
-52
-52
-52
-53
-53
-53
-53
-54
-53
-53
-53
-53
-53
-52
-52
-52
-52
-53
-52
-52
-52
-52
-52
-53
-52
-53
-52
-53
-54
-53
-54
-53
-54
-54
-54
-54
-54
-54
-54
-54
-53
-53
-52
-52
-51
-50
-50
-49
-48
-48
-47
-46
-46
-45
-45
-44
-44
-43
-43
-42
-42
-41
-41
-41
-41
-40
-41
-40
-41
-40
-41
-40
-41
-41
-40
-41
-41
-41
-41
-42
-42
-41
-42
-42
-43
-43
-42
-43
-43
-43
-44
-43
-43
-44
-43
-43
-44
-43
-43
-43
-43
-42
-43
-43
-42
-42
-43
-43
-42
-42
-42
-42
-42
-42
-42
-42
-42
-42
-42
-42
-42
-42
-41
-41
-41
-41
-41
-41
-41
-41
-41
-41
-41
-41
-41
-41
-41
-41
-41
-41
-42
-42
-42
-42
-42
-42
-42
-41
-41
-41
-41
-41
-41
-41
-41
-41
-41
-41
-41
-41
-41
-41
-41
-41
-40
-40
-40
-40
-40
-40
-40
-40
-40
-39
-39
-39
-39
-38
-37
-37
-36
-36
-36
-36
-36
-36
-36
-34
-34
-35
-35
-35
-36
-37
-40
-42
-45
-48
-50
-54
-59
-63
-67
-74
-79
-84
-89
-96
-101
-107
-112
-116
-121
-124
-128
-130
-131
-133
-134
-134
-134
-133
-131
-128
-125
-121
-118
-113
-108
-103
-98
-93
-88
-82
-77
-72
-67
-63
-58
-55
-51
-48
-45
-43
-40
-38
-36
-34
-33
-32
-31
-30
-29
-29
-29
-28
-28
-28
-28
-28
-28
-28
-28
-28
-29
-29
-29
-30
-30
-30
-30
-32
-32
-32
-32
-33
-33
-33
-33
-34
-34
-34
-35
-34
-35
-35
-35
-35
-35
-35
-34
-34
-34
-34
-34
-34
-34
-34
-34
-34
-35
-35
-34
-34
-34
-34
-34
-34
-34
-34
-34
-34
-33
-33
-33
-33
-33
-33
-33
-33
-33
-33
-33
-33
-33
-33
-33
-32
-32
-32
-32
-32
-32
-33
-32
-32
-32
-32
-32
-32
-32
-31
-31
-31
-31
-31
-31
-31
-31
-31
-31
-31
-31
-32
-32
-32
-31
-31
-31
-31
-31
-31
-31
-31
-31
-31
-31
-30
-30
-31
-31
-31
-30
-30
-30
-30
-29
-29
-29
-28
-28
-28
-28
-28
-28
-28
-27
-27
-27
-27
-27
-27
-26
-27
-27
-27
-27
-26
-26
-26
-26
-25
-25
-25
-25
-24
-24
-24
-24
-24
-24
-24
-23
-23
-23
-23
-23
-22
-22
-21
-20
-20
-20
-20
-19
-19
-19
-18
-18
-18
-18
-17
-17
-17
-17
-17
-17
-17
-16
-16
-15
-15
-15
-16
-16
-16
-16
-14
-14
-14
-14
-14
-14
-14
-14
-14
-14
-15
-15
-15
-14
-14
-15
-15
-16
-16
-16
-16
-17
-18
-17
-18
-18
-19
-19
-20
-20
-21
-21
-22
-22
-23
-22
-23
-24
-24
-25
-24
-25
-25
-26
-26
-27
-28
-28
-28
-29
-30
-30
-31
-32
-33
-33
-34
-35
-36
-37
-36
-37
-38
-39
-39
-40
-41
-41
-41
-41
-42
-43
-43
-44
-44
-44
-45
-45
-46
-46
-47
-47
-47
-48
-48
-48
-48
-49
-49
-49
-49
-49
-49
-50
-50
-50
-50
-50
-50
-50
-50
-50
-50
-50
-50
-49
-50
-49
-49
-49
-50
-49
-49
-49
-49
-50
-49
-49
-49
-49
-49
-49
-49
-49
-49
-49
-49
-49
-49
-49
-49
-49
-50
-49
-49
-49
-48
-48
-49
-48
-48
-48
-47
-47
-47
-47
-47
-48
-48
-47
-47
-47
-47
-47
-48
-47
-47
-48
-48
-48
-49
-49
-49
-48
-49
-49
-49
-49
-49
-49
-49
-49
-49
-50
-50
-50
-50
-50
-49
-49
-49
-49
-49
-49
-49
-49
-49
-48
-48
-48
-48
-48
-48
-48
-48
-47
-47
-48
-48
-48
-48
-48
-48
-47
-47
-47
-47
-47
-47
-47
-47
-48
-48
-48
-48
-48
-48
-48
-49
-48
-48
-48
-49
-49
-49
-49
-49
-49
-49
-49
-49
-49
-49
-49
-49
-48
-48
-48
-47
-47
-48
-48
-47
-47
-47
-46
-46
-46
-46
-46
-46
-46
-46
-46
-46
-46
-46
-45
-45
-45
-45
-44
-44
-44
-44
-44
-44
-45
-45
-44
-44
-44
-44
-44
-44
-44
-44
-44
-45
-45
-45
-44
-44
-45
-45
-45
-45
-46
-46
-46
-46
-46
-46
-46
-46
-46
-46
-46
-46
-46
-46
-46
-46
-46
-46
-46
-46
-46
-46
-46
-46
-46
-46
-45
-46
-46
-46
-47
-47
-47
-48
-47
-48
-49
-49
-50
-50
-50
-51
-51
-52
-52
-52
-52
-53
-52
-53
-53
-53
-53
-53
-53
-53
-52
-53
-53
-53
-52
-52
-53
-52
-53
-52
-53
-53
-53
-54
-53
-54
-54
-54
-55
-54
-55
-55
-56
-55
-55
-55
-55
-55
-55
-55
-55
-54
-54
-53
-52
-52
-51
-51
-51
-50
-50
-49
-48
-48
-47
-47
-46
-46
-45
-45
-45
-45
-44
-45
-44
-44
-44
-45
-44
-44
-45
-45
-45
-45
-45
-46
-46
-45
-46
-46
-47
-46
-47
-46
-47
-46
-46
-46
-46
-46
-46
-46
-46
-45
-46
-46
-45
-46
-46
-45
-45
-45
-45
-46
-46
-46
-46
-47
-47
-47
-47
-47
-47
-47
-47
-47
-47
-47
-47
-47
-47
-47
-47
-46
-46
-46
-47
-47
-47
-47
-47
-47
-47
-47
-46
-46
-46
-46
-46
-46
-46
-46
-46
-47
-47
-47
-47
-47
-47
-47
-47
-47
-47
-47
-47
-47
-46
-46
-46
-45
-45
-44
-44
-44
-43
-43
-43
-42
-41
-41
-40
-40
-40
-39
-39
-38
-38
-37
-38
-37
-38
-37
-37
-37
-39
-39
-39
-40
-41
-43
-45
-48
-51
-54
-57
-62
-65
-70
-75
-80
-86
-92
-98
-105
-111
-116
-122
-128
-133
-137
-141
-144
-147
-148
-151
-152
-152
-153
-152
-150
-148
-145
-142
-138
-133
-128
-123
-118
-112
-107
-101
-95
-90
-84
-79
-74
-69
-65
-60
-56
-52
-50
-47
-45
-42
-40
-38
-36
-35
-35
-33
-33
-33
-32
-33
-32
-32
-32
-32
-32
-32
-34
-34
-34
-34
-35
-35
-35
-35
-36
-36
-37
-37
-37
-37
-37
-38
-38
-38
-39
-38
-38
-39
-39
-38
-39
-39
-39
-39
-39
-39
-39
-39
-39
-38
-38
-38
-38
-38
-38
-38
-38
-38
-38
-38
-38
-37
-37
-37
-37
-37
-37
-37
-37
-37
-37
-37
-37
-37
-37
-37
-37
-37
-37
-37
-37
-37
-37
-37
-37
-37
-37
-37
-37
-37
-37
-37
-37
-37
-37
-37
-37
-37
-37
-37
-37
-37
-37
-37
-37
-36
-36
-36
-36
-35
-36
-36
-36
-36
-35
-35
-35
-34
-34
-34
-34
-33
-33
-33
-34
-34
-34
-33
-33
-33
-33
-33
-33
-33
-32
-32
-32
-32
-31
-31
-31
-30
-30
-30
-30
-30
-29
-29
-29
-29
-28
-28
-28
-28
-27
-27
-27
-27
-27
-27
-26
-26
-26
-25
-25
-25
-26
-25
-25
-25
-24
-24
-24
-23
-23
-23
-22
-22
-22
-21
-21
-21
-20
-20
-19
-19
-18
-18
-18
-18
-18
-17
-16
-16
-16
-16
-16
-15
-15
-15
-16
-15
-15
-15
-15
-15
-14
-14
-14
-14
-15
-15
-15
-15
-16
-15
-15
-16
-16
-17
-17
-17
-17
-18
-19
-18
-19
-20
-19
-20
-21
-21
-22
-22
-22
-23
-24
-23
-24
-25
-25
-25
-26
-27
-28
-27
-28
-29
-29
-29
-30
-31
-32
-32
-33
-34
-34
-35
-36
-37
-37
-38
-39
-40
-40
-41
-41
-41
-42
-43
-44
-44
-45
-44
-45
-45
-46
-46
-47
-48
-48
-48
-49
-49
-49
-50
-50
-51
-51
-51
-52
-52
-52
-52
-52
-52
-52
-53
-53
-53
-53
-53
-53
-54
-53
-53
-53
-54
-53
-53
-52
-53
-52
-52
-52
-52
-52
-52
-52
-52
-51
-51
-51
-52
-52
-52
-51
-51
-51
-51
-52
-52
-52
-51
-51
-51
-51
-51
-51
-51
-51
-51
-51
-51
-51
-51
-51
-51
-50
-50
-50
-50
-51
-51
-51
-51
-51
-51
-51
-51
-51
-51
-51
-51
-51
-52
-52
-52
-52
-52
-52
-52
-52
-52
-52
-52
-51
-51
-51
-51
-51
-51
-51
-51
-50
-50
-50
-50
-50
-50
-49
-49
-49
-49
-49
-49
-49
-49
-48
-48
-48
-48
-48
-48
-49
-49
-49
-48
-48
-48
-48
-48
-48
-48
-48
-48
-48
-48
-48
-48
-48
-48
-48
-48
-47
-47
-47
-47
-47
-47
-47
-47
-47
-47
-47
-47
-47
-48
-48
-48
-47
-47
-47
-48
-48
-48
-48
-47
-47
-47
-47
-48
-48
-48
-48
-48
-48
-48
-48
-48
-48
-48
-48
-47
-47
-47
-47
-47
-47
-47
-47
-47
-47
-47
-47
-47
-47
-47
-47
-47
-47
-47
-47
-48
-47
-47
-48
-48
-49
-48
-49
-49
-50
-49
-50
-50
-50
-51
-52
-51
-52
-52
-53
-54
-54
-54
-55
-55
-55
-55
-55
-56
-55
-56
-56
-56
-56
-56
-56
-57
-56
-56
-56
-57
-56
-57
-58
-57
-58
-58
-59
-59
-60
-60
-60
-61
-61
-62
-62
-62
-62
-63
-63
-62
-62
-62
-62
-62
-61
-61
-60
-59
-60
-59
-58
-58
-57
-55
-55
-54
-54
-53
-54
-53
-52
-52
-51
-51
-51
-51
-50
-50
-49
-49
-48
-49
-49
-48
-48
-47
-47
-48
-47
-47
-47
-47
-47
-46
-47
-47
-47
-47
-47
-47
-47
-47
-48
-47
-47
-48
-47
-47
-47
-47
-47
-46
-47
-47
-46
-46
-46
-46
-47
-47
-47
-46
-46
-46
-46
-47
-47
-47
-47
-47
-47
-47
-47
-47
-47
-47
-47
-47
-47
-47
-47
-47
-48
-48
-48
-48
-48
-48
-47
-47
-47
-47
-47
-47
-47
-47
-47
-47
-47
-47
-47
-47
-47
-47
-47
-47
-47
-47
-47
-47
-47
-46
-46
-46
-45
-45
-45
-44
-44
-44
-43
-43
-43
-42
-42
-42
-42
-42
-41
-41
-40
-41
-40
-40
-41
-41
-41
-42
-42
-43
-45
-45
-46
-48
-50
-52
-56
-59
-62
-66
-70
-74
-80
-84
-89
-95
-101
-107
-114
-119
-126
-131
-137
-143
-147
-151
-154
-158
-160
-161
-163
-163
-163
-162
-161
-159
-156
-153
-149
-145
-140
-134
-128
-123
-117
-110
-105
-98
-92
-86
-81
-75
-70
-65
-60
-56
-52
-50
-47
-44
-42
-40
-39
-37
-35
-35
-34
-33
-33
-32
-33
-33
-33
-33
-33
-33
-33
-33
-34
-34
-35
-35
-36
-36
-36
-37
-38
-38
-38
-38
-40
-40
-39
-40
-40
-40
-40
-40
-40
-40
-41
-40
-40
-40
-41
-41
-41
-41
-41
-41
-41
-41
-41
-41
-41
-41
-40
-40
-40
-40
-40
-40
-40
-39
-39
-39
-39
-39
-39
-39
-40
-40
-40
-40
-39
-39
-39
-39
-39
-39
-39
-40
-40
-40
-40
-39
-39
-39
-39
-39
-39
-39
-39
-39
-38
-38
-38
-38
-38
-38
-38
-38
-38
-38
-39
-39
-39
-38
-38
-38
-38
-38
-38
-38
-37
-37
-37
-37
-37
-36
-36
-36
-36
-37
-37
-37
-37
-37
-37
-36
-36
-36
-36
-36
-36
-35
-35
-35
-35
-35
-35
-34
-34
-34
-34
-34
-33
-34
-34
-33
-33
-33
-32
-32
-32
-31
-31
-31
-30
-30
-30
-30
-29
-29
-29
-29
-28
-28
-28
-28
-27
-27
-27
-26
-26
-25
-25
-24
-24
-24
-23
-23
-22
-22
-21
-21
-20
-20
-19
-19
-19
-19
-18
-18
-18
-18
-18
-18
-18
-18
-17
-17
-17
-17
-17
-18
-17
-17
-17
-18
-18
-17
-18
-18
-18
-18
-19
-18
-18
-19
-19
-19
-20
-20
-20
-20
-20
-21
-21
-22
-23
-22
-23
-24
-24
-25
-25
-26
-26
-27
-28
-28
-28
-28
-29
-30
-30
-31
-31
-32
-33
-34
-34
-35
-35
-36
-37
-38
-38
-39
-40
-41
-41
-42
-43
-44
-44
-45
-46
-47
-47
-48
-49
-49
-50
-51
-52
-51
-52
-52
-53
-53
-54
-54
-55
-55
-55
-56
-56
-56
-56
-56
-56
-56
-57
-57
-57
-57
-57
-58
-58
-57
-57
-57
-57
-57
-57
-57
-57
-57
-57
-57
-57
-56
-56
-57
-57
-57
-56
-56
-56
-56
-55
-55
-56
-56
-56
-56
-56
-56
-56
-56
-55
-55
-55
-55
-55
-56
-56
-56
-56
-56
-56
-56
-56
-56
-56
-56
-56
-57
-57
-57
-57
-57
-56
-56
-56
-57
-57
-57
-57
-57
-57
-57
-57
-57
-56
-56
-56
-56
-56
-56
-57
-57
-57
-56
-56
-56
-57
-57
-57
-57
-57
-57
-57
-57
-57
-57
-57
-57
-57
-57
-57
-57
-57
-57
-57
-57
-57
-57
-57
-57
-57
-57
-56
-56
-56
-56
-55
-55
-55
-54
-54
-54
-54
-54
-54
-54
-54
-54
-53
-53
-53
-53
-53
-53
-54
-54
-54
-54
-54
-54
-54
-54
-53
-53
-53
-53
-53
-54
-54
-54
-54
-54
-54
-54
-53
-53
-53
-54
-54
-54
-54
-54
-54
-54
-54
-54
-54
-54
-54
-54
-54
-54
-54
-53
-53
-53
-53
-53
-52
-52
-52
-52
-52
-52
-52
-52
-52
-52
-52
-52
-52
-52
-52
-52
-52
-52
-52
-52
-52
-52
-52
-52
-53
-53
-53
-54
-54
-55
-55
-55
-55
-56
-57
-57
-58
-58
-59
-59
-59
-59
-60
-61
-60
-61
-61
-61
-61
-61
-61
-61
-61
-62
-61
-61
-61
-61
-62
-61
-62
-62
-62
-62
-62
-62
-62
-62
-61
-62
-61
-61
-61
-61
-61
-61
-60
-60
-60
-59
-59
-59
-59
-59
-59
-59
-59
-59
-59
-58
-58
-58
-58
-58
-58
-58
-58
-57
-58
-57
-56
-57
-56
-56
-55
-55
-54
-55
-55
-54
-54
-53
-53
-53
-52
-52
-52
-51
-51
-51
-51
-50
-51
-51
-50
-51
-50
-50
-51
-50
-50
-50
-50
-49
-50
-49
-49
-49
-49
-48
-49
-49
-48
-49
-48
-48
-48
-48
-48
-48
-48
-48
-48
-48
-48
-48
-48
-48
-48
-48
-48
-48
-48
-48
-48
-48
-48
-48
-48
-48
-48
-48
-48
-48
-48
-48
-48
-49
-49
-49
-49
-49
-49
-49
-49
-48
-48
-48
-48
-48
-48
-49
-49
-49
-49
-49
-49
-49
-48
-48
-48
-48
-48
-47
-47
-47
-47
-46
-46
-46
-46
-46
-46
-46
-45
-46
-46
-44
-44
-44
-44
-44
-43
-43
-43
-43
-43
-44
-43
-43
-43
-43
-44
-45
-46
-48
-51
-53
-56
-60
-63
-67
-72
-76
-81
-87
-92
-98
-104
-109
-115
-120
-126
-130
-134
-137
-140
-142
-143
-144
-145
-145
-144
-143
-141
-138
-135
-132
-127
-122
-117
-112
-107
-102
-96
-90
-84
-80
-74
-69
-66
-62
-58
-54
-50
-49
-46
-43
-42
-40
-39
-38
-37
-36
-35
-35
-34
-33
-34
-34
-34
-34
-34
-34
-34
-34
-35
-35
-35
-36
-36
-36
-37
-37
-37
-38
-38
-38
-38
-37
-38
-37
-38
-38
-38
-38
-38
-39
-39
-38
-38
-38
-39
-39
-39
-40
-39
-39
-39
-39
-40
-40
-40
-40
-40
-40
-40
-39
-39
-39
-39
-39
-39
-39
-39
-38
-38
-38
-39
-38
-38
-38
-38
-38
-38
-37
-37
-37
-37
-37
-37
-37
-37
-37
-37
-37
-37
-37
-37
-37
-37
-37
-36
-36
-36
-36
-37
-37
-37
-37
-37
-37
-37
-37
-37
-37
-37
-37
-37
-37
-37
-37
-36
-36
-36
-36
-35
-35
-36
-36
-35
-35
-35
-34
-34
-34
-34
-34
-34
-34
-34
-34
-34
-34
-34
-34
-34
-34
-33
-33
-33
-33
-33
-33
-33
-33
-33
-32
-32
-32
-32
-32
-32
-32
-32
-32
-32
-32
-31
-31
-31
-30
-30
-30
-30
-29
-29
-29
-29
-28
-28
-28
-28
-27
-27
-27
-27
-26
-26
-26
-26
-25
-24
-24
-24
-24
-23
-23
-23
-23
-22
-22
-22
-22
-22
-22
-22
-21
-20
-20
-21
-21
-21
-21
-21
-20
-20
-20
-20
-20
-21
-21
-21
-20
-21
-21
-22
-22
-22
-22
-23
-23
-23
-23
-24
-25
-24
-24
-24
-24
-24
-24
-25
-25
-26
-26
-25
-26
-26
-27
-27
-28
-28
-29
-29
-29
-30
-31
-31
-32
-32
-33
-34
-34
-35
-36
-37
-38
-39
-40
-40
-41
-42
-42
-43
-44
-45
-44
-45
-46
-46
-47
-48
-48
-49
-49
-50
-50
-50
-50
-51
-51
-51
-51
-51
-52
-52
-52
-52
-52
-52
-53
-53
-52
-53
-53
-53
-53
-53
-52
-53
-53
-53
-52
-52
-53
-53
-53
-53
-53
-53
-53
-53
-53
-52
-52
-53
-53
-53
-53
-53
-52
-52
-52
-52
-53
-53
-53
-53
-52
-52
-52
-52
-52
-51
-52
-52
-52
-52
-52
-52
-52
-51
-51
-51
-51
-51
-51
-51
-51
-51
-52
-52
-52
-52
-52
-52
-52
-52
-52
-52
-52
-52
-52
-51
-51
-51
-51
-51
-51
-51
-51
-51
-51
-51
-51
-51
-51
-51
-51
-51
-51
-50
-50
-50
-50
-50
-50
-50
-50
-51
-51
-51
-50
-50
-50
-50
-50
-50
-50
-51
-51
-51
-51
-51
-51
-51
-51
-51
-51
-51
-51
-51
-51
-51
-51
-51
-51
-51
-51
-51
-51
-51
-51
-51
-51
-51
-51
-51
-51
-51
-51
-51
-51
-50
-50
-50
-50
-51
-51
-51
-51
-51
-51
-51
-51
-51
-51
-51
-51
-51
-51
-51
-51
-51
-51
-51
-51
-51
-51
-51
-51
-50
-50
-50
-50
-50
-50
-50
-50
-50
-50
-50
-50
-50
-50
-50
-50
-49
-49
-49
-49
-49
-49
-50
-50
-50
-50
-49
-50
-50
-50
-50
-49
-49
-49
-50
-50
-50
-50
-50
-51
-51
-51
-52
-52
-52
-53
-53
-54
-54
-54
-54
-55
-55
-55
-56
-56
-56
-57
-56
-57
-58
-57
-58
-58
-57
-58
-58
-58
-58
-59
-58
-58
-59
-58
-58
-58
-58
-59
-58
-59
-58
-59
-58
-59
-58
-58
-59
-58
-58
-58
-58
-57
-57
-57
-57
-56
-56
-55
-55
-55
-55
-54
-53
-53
-53
-53
-52
-51
-52
-51
-51
-50
-50
-50
-50
-50
-49
-50
-49
-49
-48
-49
-49
-48
-48
-49
-48
-48
-48
-48
-48
-48
-49
-48
-48
-48
-48
-48
-48
-48
-48
-48
-47
-48
-47
-47
-47
-46
-47
-46
-46
-46
-46
-45
-46
-46
-45
-45
-45
-45
-45
-45
-45
-45
-45
-45
-45
-45
-45
-45
-45
-45
-45
-45
-45
-45
-45
-46
-46
-46
-46
-46
-46
-46
-46
-46
-45
-45
-45
-46
-46
-46
-46
-46
-46
-46
-46
-46
-46
-46
-46
-47
-47
-47
-46
-46
-46
-46
-46
-46
-46
-46
-46
-45
-45
-45
-45
-44
-44
-44
-43
-44
-44
-43
-43
-42
-42
-42
-42
-41
-40
-40
-40
-40
-39
-39
-39
-40
-39
-38
-39
-39
-39
-40
-42
-44
-46
-49
-52
-55
-59
-63
-67
-72
-77
-82
-88
-93
-100
-105
-111
-116
-122
-126
-130
-133
-135
-137
-138
-139
-139
-139
-138
-136
-134
-131
-127
-123
-119
-114
-109
-104
-100
-94
-88
-83
-78
-73
-69
-65
-61
-57
-53
-50
-48
-45
-43
-41
-40
-38
-36
-35
-34
-34
-33
-33
-32
-31
-32
-32
-32
-32
-32
-32
-32
-32
-32
-33
-33
-33
-34
-34
-34
-35
-36
-36
-36
-37
-37
-36
-37
-37
-37
-38
-38
-38
-38
-39
-38
-38
-38
-38
-39
-39
-39
-39
-39
-39
-39
-39
-38
-38
-38
-38
-38
-38
-37
-37
-37
-37
-37
-38
-38
-38
-38
-39
-38
-38
-38
-38
-38
-39
-39
-39
-39
-38
-38
-38
-38
-38
-38
-38
-38
-38
-38
-37
-37
-37
-36
-36
-36
-36
-35
-35
-35
-35
-35
-35
-35
-35
-34
-34
-34
-34
-34
-34
-35
-35
-35
-34
-34
-34
-34
-34
-33
-34
-34
-34
-34
-33
-33
-33
-33
-33
-33
-33
-33
-33
-33
-33
-33
-33
-33
-32
-32
-32
-32
-32
-32
-32
-32
-32
-32
-31
-31
-31
-31
-31
-30
-30
-30
-30
-30
-30
-30
-30
-30
-30
-30
-30
-30
-30
-30
-30
-29
-29
-29
-29
-29
-29
-28
-28
-28
-28
-27
-27
-27
-27
-26
-25
-25
-24
-24
-24
-23
-23
-23
-23
-23
-23
-23
-21
-21
-21
-21
-22
-21
-21
-21
-21
-20
-21
-21
-21
-21
-21
-21
-21
-22
-21
-21
-22
-22
-22
-22
-22
-22
-23
-23
-23
-23
-22
-22
-22
-23
-23
-23
-24
-24
-24
-24
-25
-25
-26
-26
-26
-27
-28
-28
-28
-29
-30
-30
-31
-31
-32
-33
-33
-34
-35
-35
-35
-36
-37
-37
-38
-39
-39
-39
-40
-41
-42
-43
-42
-43
-43
-44
-45
-45
-46
-47
-47
-48
-48
-49
-49
-49
-50
-50
-50
-51
-51
-51
-51
-52
-53
-53
-53
-53
-53
-53
-53
-54
-54
-54
-54
-53
-54
-54
-54
-54
-53
-53
-54
-54
-53
-53
-54
-53
-53
-53
-53
-53
-52
-52
-52
-53
-52
-52
-52
-52
-52
-52
-51
-52
-52
-52
-52
-52
-52
-52
-52
-52
-52
-52
-52
-52
-51
-51
-51
-51
-51
-52
-51
-51
-51
-51
-51
-51
-51
-51
-51
-51
-50
-51
-51
-51
-51
-51
-51
-51
-51
-52
-52
-52
-52
-51
-51
-51
-51
-51
-51
-51
-51
-52
-52
-52
-52
-52
-52
-52
-52
-52
-52
-52
-52
-52
-52
-52
-52
-52
-52
-51
-51
-51
-51
-51
-51
-51
-51
-52
-52
-52
-52
-52
-51
-51
-51
-51
-51
-51
-51
-51
-51
-51
-51
-51
-51
-51
-51
-51
-51
-51
-51
-51
-51
-51
-51
-51
-51
-51
-51
-51
-51
-51
-51
-51
-51
-51
-51
-51
-51
-51
-51
-51
-51
-51
-51
-51
-51
-51
-51
-51
-51
-51
-51
-51
-51
-51
-51
-51
-51
-51
-51
-51
-51
-51
-50
-50
-51
-51
-51
-51
-51
-51
-51
-50
-50
-50
-51
-51
-51
-51
-50
-50
-50
-50
-50
-50
-51
-51
-51
-50
-50
-50
-50
-50
-50
-50
-50
-50
-50
-50
-49
-49
-49
-49
-49
-49
-49
-49
-49
-49
-50
-50
-50
-50
-51
-50
-51
-51
-51
-52
-52
-53
-53
-53
-54
-54
-55
-55
-56
-56
-57
-57
-57
-57
-57
-58
-58
-57
-57
-57
-57
-57
-57
-57
-57
-57
-56
-56
-57
-57
-56
-57
-56
-57
-57
-57
-57
-57
-58
-58
-58
-58
-59
-58
-58
-58
-58
-58
-58
-58
-58
-57
-57
-56
-56
-56
-55
-55
-54
-54
-53
-52
-52
-51
-51
-50
-50
-49
-49
-48
-47
-47
-46
-46
-45
-46
-45
-45
-44
-45
-44
-44
-44
-44
-44
-45
-44
-45
-45
-46
-46
-46
-47
-46
-47
-47
-47
-48
-48
-48
-48
-49
-49
-48
-49
-49
-48
-48
-49
-48
-48
-48
-48
-48
-47
-48
-48
-47
-47
-48
-47
-47
-47
-46
-46
-47
-47
-47
-47
-46
-46
-46
-46
-46
-47
-47
-47
-47
-47
-47
-47
-47
-47
-47
-47
-47
-47
-47
-47
-47
-47
-47
-48
-48
-48
-48
-48
-48
-48
-48
-48
-48
-48
-48
-48
-49
-48
-48
-48
-47
-47
-47
-47
-46
-46
-46
-46
-46
-45
-45
-45
-45
-44
-44
-43
-43
-43
-42
-41
-41
-41
-40
-39
-39
-39
-40
-39
-39
-40
-39
-40
-41
-43
-45
-48
-51
-53
-57
-60
-64
-69
-73
-79
-85
-90
-96
-102
-108
-114
-120
-125
-129
-133
-137
-140
-142
-143
-145
-146
-146
-145
-145
-143
-140
-137
-134
-129
-124
-119
-114
-109
-103
-98
-91
-86
-81
-75
-70
-66
-61
-58
-54
-51
-49
-46
-43
-40
-39
-38
-37
-36
-35
-34
-34
-33
-34
-34
-33
-33
-34
-34
-34
-34
-34
-35
-35
-35
-35
-36
-36
-37
-37
-37
-38
-37
-37
-38
-38
-38
-39
-38
-38
-39
-38
-39
-39
-39
-40
-39
-40
-40
-40
-41
-41
-41
-41
-40
-40
-40
-41
-41
-41
-41
-41
-40
-40
-40
-40
-40
-40
-39
-39
-39
-39
-39
-39
-38
-38
-38
-38
-38
-38
-38
-37
-37
-37
-37
-37
-37
-37
-37
-37
-37
-37
-37
-37
-37
-37
-37
-37
-37
-37
-37
-37
-37
-37
-37
-37
-37
-37
-37
-37
-37
-37
-37
-37
-37
-37
-36
-36
-36
-36
-36
-36
-35
-35
-35
-35
-35
-35
-35
-35
-35
-35
-35
-35
-35
-35
-35
-34
-34
-34
-34
-34
-34
-34
-34
-33
-33
-33
-33
-32
-32
-32
-32
-32
-32
-32
-32
-32
-32
-31
-31
-31
-30
-30
-29
-29
-29
-28
-29
-29
-28
-28
-27
-27
-26
-26
-25
-25
-24
-24
-25
-24
-24
-23
-22
-22
-22
-22
-22
-21
-21
-21
-21
-20
-20
-20
-20
-20
-20
-20
-20
-19
-19
-19
-19
-19
-19
-19
-18
-18
-18
-18
-17
-18
-18
-18
-18
-18
-18
-19
-19
-19
-19
-20
-21
-20
-21
-21
-22
-22
-23
-23
-23
-24
-24
-25
-25
-25
-26
-27
-27
-26
-26
-27
-28
-28
-29
-28
-29
-29
-30
-31
-31
-32
-32
-33
-33
-34
-35
-36
-36
-37
-38
-38
-39
-40
-41
-41
-42
-43
-44
-43
-44
-45
-46
-47
-47
-47
-47
-48
-48
-49
-49
-49
-50
-50
-50
-51
-52
-52
-52
-52
-52
-52
-52
-53
-53
-52
-52
-53
-53
-53
-53
-53
-53
-53
-53
-53
-54
-53
-53
-53
-53
-53
-53
-54
-54
-54
-53
-53
-53
-53
-53
-53
-53
-54
-53
-53
-53
-53
-53
-53
-52
-52
-52
-52
-52
-53
-53
-53
-52
-52
-52
-52
-52
-52
-52
-52
-52
-52
-52
-52
-52
-52
-52
-52
-52
-52
-52
-52
-52
-52
-52
-52
-52
-52
-52
-52
-52
-52
-52
-52
-52
-52
-53
-53
-52
-52
-52
-52
-52
-52
-52
-52
-52
-52
-53
-53
-53
-53
-53
-53
-53
-53
-53
-53
-53
-53
-53
-53
-53
-53
-53
-53
-52
-52
-52
-52
-52
-52
-52
-52
-52
-52
-51
-51
-51
-51
-51
-51
-51
-51
-51
-50
-50
-50
-50
-50
-50
-50
-50
-50
-50
-49
-49
-49
-49
-49
-50
-50
-50
-50
-50
-50
-50
-50
-50
-50
-50
-50
-49
-49
-49
-49
-49
-50
-50
-50
-49
-50
-50
-50
-50
-50
-50
-50
-50
-50
-50
-50
-50
-49
-50
-50
-50
-50
-50
-50
-50
-50
-50
-49
-49
-49
-50
-50
-50
-49
-49
-49
-49
-49
-49
-49
-49
-50
-50
-49
-50
-51
-51
-51
-52
-52
-53
-53
-53
-54
-54
-55
-55
-56
-56
-57
-57
-58
-58
-58
-59
-58
-59
-59
-59
-59
-59
-59
-59
-59
-59
-59
-59
-59
-59
-58
-59
-59
-59
-59
-60
-60
-61
-60
-61
-61
-62
-63
-63
-63
-63
-63
-64
-64
-63
-63
-63
-63
-63
-63
-62
-62
-61
-61
-60
-60
-60
-59
-58
-58
-57
-56
-56
-55
-55
-54
-53
-52
-52
-52
-51
-51
-50
-50
-50
-49
-49
-50
-49
-49
-49
-48
-49
-49
-48
-49
-49
-49
-49
-49
-49
-50
-49
-50
-50
-50
-50
-50
-50
-50
-50
-50
-50
-49
-49
-50
-50
-49
-49
-50
-49
-49
-49
-48
-49
-49
-49
-49
-48
-48
-48
-48
-48
-48
-49
-49
-49
-49
-49
-49
-49
-49
-49
-49
-50
-50
-49
-49
-49
-49
-48
-48
-48
-48
-48
-48
-48
-48
-48
-48
-49
-49
-48
-48
-48
-48
-49
-49
-49
-49
-49
-49
-49
-49
-49
-49
-49
-48
-48
-48
-47
-47
-47
-47
-45
-45
-45
-45
-44
-44
-43
-43
-42
-42
-42
-41
-41
-41
-40
-41
-41
-42
-42
-42
-43
-44
-45
-46
-48
-50
-52
-55
-59
-63
-67
-71
-76
-80
-86
-91
-97
-103
-110
-115
-121
-128
-133
-138
-144
-147
-151
-154
-157
-158
-159
-160
-161
-160
-159
-158
-156
-153
-149
-145
-140
-135
-130
-124
-119
-113
-108
-100
-95
-90
-84
-78
-73
-68
-63
-59
-56
-51
-50
-47
-43
-42
-40
-38
-37
-35
-34
-33
-33
-33
-33
-32
-32
-33
-33
-33
-33
-33
-33
-33
-33
-34
-34
-35
-35
-36
-36
-37
-38
-38
-38
-39
-39
-39
-40
-40
-40
-40
-40
-41
-40
-40
-41
-41
-41
-41
-41
-41
-41
-40
-40
-40
-40
-40
-39
-39
-39
-39
-39
-39
-39
-39
-39
-39
-40
-40
-40
-40
-40
-40
-40
-40
-40
-39
-39
-39
-39
-39
-39
-39
-38
-39
-38
-38
-38
-38
-38
-38
-38
-37
-37
-38
-38
-38
-38
-37
-37
-37
-38
-38
-38
-38
-38
-38
-38
-38
-38
-38
-38
-38
-38
-38
-38
-38
-38
-38
-38
-38
-38
-38
-38
-37
-37
-37
-37
-37
-37
-38
-37
-37
-37
-37
-37
-36
-36
-36
-35
-35
-35
-35
-35
-35
-34
-34
-34
-33
-33
-33
-33
-32
-32
-32
-32
-32
-31
-31
-31
-31
-30
-30
-30
-29
-29
-28
-28
-28
-28
-28
-27
-27
-26
-26
-25
-25
-24
-24
-23
-22
-23
-22
-22
-21
-21
-21
-20
-19
-19
-18
-18
-17
-17
-17
-17
-17
-17
-17
-17
-17
-16
-16
-16
-16
-16
-16
-15
-16
-16
-16
-16
-16
-16
-16
-15
-16
-16
-16
-16
-16
-17
-17
-17
-17
-17
-18
-19
-18
-19
-20
-20
-20
-21
-22
-21
-22
-23
-24
-24
-25
-25
-25
-26
-27
-26
-27
-28
-29
-29
-29
-29
-29
-30
-31
-31
-31
-32
-33
-34
-34
-35
-36
-36
-37
-39
-39
-40
-40
-42
-43
-44
-44
-45
-46
-47
-47
-48
-48
-49
-50
-50
-50
-50
-51
-52
-52
-53
-53
-53
-53
-53
-53
-53
-54
-54
-54
-54
-54
-54
-54
-54
-55
-55
-55
-54
-54
-54
-54
-54
-54
-54
-54
-53
-53
-54
-54
-54
-53
-53
-53
-53
-54
-54
-54
-54
-53
-53
-53
-53
-53
-54
-54
-53
-53
-53
-53
-53
-53
-53
-53
-53
-53
-53
-53
-53
-53
-53
-53
-53
-53
-53
-53
-53
-53
-53
-53
-53
-53
-53
-53
-54
-54
-54
-54
-54
-54
-54
-54
-53
-54
-54
-54
-54
-54
-54
-55
-55
-55
-55
-55
-55
-55
-55
-55
-54
-54
-54
-54
-54
-54
-53
-53
-53
-53
-53
-53
-53
-53
-53
-53
-53
-53
-53
-53
-53
-53
-53
-53
-53
-53
-53
-53
-52
-52
-52
-52
-51
-51
-51
-50
-50
-51
-51
-50
-50
-50
-50
-50
-50
-49
-49
-49
-49
-49
-49
-49
-49
-49
-49
-49
-49
-49
-49
-49
-50
-50
-50
-50
-50
-50
-50
-49
-49
-50
-50
-50
-49
-49
-49
-49
-49
-49
-50
-50
-50
-50
-50
-50
-50
-50
-50
-49
-50
-50
-50
-50
-50
-50
-50
-50
-51
-51
-51
-51
-51
-51
-51
-51
-51
-51
-51
-51
-51
-51
-51
-51
-52
-52
-52
-53
-54
-53
-54
-55
-55
-56
-56
-57
-57
-57
-57
-58
-59
-58
-59
-59
-59
-59
-59
-59
-59
-59
-59
-59
-60
-59
-59
-60
-60
-59
-60
-60
-60
-61
-60
-61
-61
-62
-62
-63
-63
-64
-64
-64
-65
-65
-66
-66
-67
-66
-67
-67
-66
-66
-66
-66
-66
-66
-66
-65
-65
-64
-63
-63
-63
-62
-61
-60
-60
-59
-59
-58
-58
-57
-57
-56
-56
-54
-54
-54
-54
-53
-53
-53
-52
-52
-52
-51
-51
-52
-51
-51
-51
-52
-51
-52
-51
-52
-51
-52
-51
-51
-52
-51
-51
-52
-51
-51
-52
-51
-51
-50
-51
-51
-50
-50
-51
-50
-50
-50
-50
-50
-50
-50
-50
-49
-49
-50
-50
-49
-49
-49
-49
-49
-49
-49
-49
-49
-49
-49
-49
-49
-49
-49
-49
-49
-49
-50
-50
-50
-50
-50
-50
-50
-50
-50
-50
-50
-50
-50
-50
-50
-50
-50
-50
-50
-50
-50
-50
-50
-50
-50
-50
-49
-49
-48
-48
-48
-48
-47
-47
-47
-47
-46
-46
-45
-45
-45
-45
-44
-44
-43
-43
-43
-43
-43
-42
-43
-43
-43
-44
-45
-46
-46
-47
-49
-52
-54
-57
-60
-64
-68
-72
-77
-81
-86
-91
-96
-102
-108
-115
-121
-127
-133
-137
-141
-146
-150
-153
-155
-157
-158
-159
-159
-158
-158
-156
-154
-151
-146
-142
-138
-133
-127
-121
-115
-109
-104
-98
-90
-85
-79
-74
-70
-65
-60
-56
-52
-49
-47
-45
-42
-41
-38
-37
-36
-35
-34
-34
-33
-34
-33
-33
-33
-34
-34
-34
-35
-35
-36
-36
-37
-37
-38
-38
-39
-39
-39
-38
-39
-39
-39
-39
-40
-40
-40
-41
-40
-41
-41
-41
-42
-42
-41
-41
-41
-41
-41
-41
-41
-41
-41
-41
-41
-41
-41
-41
-41
-41
-41
-41
-41
-41
-41
-41
-41
-41
-41
-41
-40
-41
-41
-41
-42
-42
-42
-42
-41
-41
-41
-41
-41
-41
-41
-41
-41
-41
-41
-41
-41
-40
-40
-40
-40
-40
-40
-39
-39
-39
-39
-39
-39
-39
-39
-39
-38
-38
-38
-38
-38
-38
-38
-38
-39
-39
-39
-39
-39
-39
-39
-39
-39
-39
-39
-39
-39
-39
-39
-38
-38
-38
-37
-37
-36
-36
-36
-35
-35
-36
-35
-35
-35
-34
-34
-34
-34
-34
-34
-33
-33
-33
-33
-33
-33
-32
-32
-32
-32
-32
-32
-32
-31
-31
-31
-31
-31
-31
-31
-31
-30
-30
-30
-29
-29
-28
-28
-27
-27
-27
-26
-26
-25
-25
-25
-24
-24
-24
-23
-23
-23
-23
-23
-22
-22
-22
-22
-22
-22
-21
-21
-21
-21
-21
-21
-21
-21
-21
-20
-21
-21
-21
-21
-20
-21
-21
-21
-21
-22
-22
-21
-22
-22
-22
-23
-23
-24
-23
-24
-24
-24
-24
-25
-25
-26
-26
-26
-27
-28
-28
-29
-30
-30
-31
-31
-33
-34
-34
-34
-35
-35
-36
-37
-37
-38
-39
-40
-40
-40
-41
-42
-42
-43
-43
-43
-44
-45
-46
-46
-47
-48
-49
-50
-50
-51
-52
-52
-53
-53
-54
-54
-55
-56
-56
-56
-57
-57
-57
-58
-58
-58
-58
-58
-58
-59
-59
-59
-59
-59
-59
-59
-60
-60
-60
-60
-60
-60
-59
-59
-59
-60
-60
-60
-59
-59
-59
-59
-59
-59
