# Simple Text Format
# Sampling Rate (Hz):= 1200.00
# Resolution:= 12
# Labels:= ECG	III
# Age:=	20
# Gender:=	Feminino
0
0
0
0
0
0
0
0
0
0
0
0
0
0
0
0
0
0
0
0
0
0
0
0
0
0
0
0
0
0
0
0
0
0
0
0
0
0
0
0
0
0
0
0
0
0
0
0
0
0
0
0
0
0
0
0
0
0
0
0
0
0
0
0
0
0
0
0
0
0
0
0
0
0
0
0
0
0
0
0
0
0
0
0
0
0
0
0
0
0
0
0
0
0
0
0
0
0
0
0
0
0
0
0
0
0
0
0
0
0
0
0
0
0
0
0
0
0
0
0
0
0
0
0
0
0
0
0
0
0
0
0
0
0
0
0
0
0
0
0
0
0
0
0
0
0
0
0
0
0
0
0
0
0
0
0
0
0
0
0
0
0
0
0
0
0
0
0
0
0
0
0
0
0
0
0
0
0
0
0
0
0
0
0
0
0
0
0
0
0
0
0
0
0
0
0
0
0
0
0
0
0
0
0
0
0
0
0
0
0
0
0
0
0
0
0
0
0
0
0
0
0
0
0
0
0
0
0
0
0
0
0
0
0
0
0
0
0
0
0
0
0
0
0
0
0
0
0
0
0
0
0
0
0
0
0
0
0
0
0
0
0
0
0
0
0
0
0
0
0
0
0
0
0
0
0
0
0
0
0
0
0
0
0
0
0
0
0
0
0
0
0
0
0
0
0
0
0
0
0
0
0
0
0
0
0
0
0
0
0
0
0
0
0
0
0
0
0
0
0
0
0
0
0
0
0
0
0
0
0
0
0
0
0
0
0
0
0
0
0
0
0
0
0
0
0
0
0
0
0
0
0
0
0
0
0
0
0
0
0
0
0
0
0
0
0
0
0
0
0
0
0
0
0
0
0
0
0
0
0
0
0
0
0
0
0
0
0
0
0
0
0
0
0
0
0
0
0
0
0
0
0
0
0
0
0
0
0
0
0
0
0
0
0
0
0
0
0
0
0
0
0
0
0
0
0
0
0
0
0
0
0
0
0
0
0
0
0
0
0
0
0
0
0
0
0
0
0
0
0
0
0
0
0
0
0
0
0
0
0
0
0
0
0
0
0
0
0
0
0
0
0
0
0
0
0
0
0
0
0
0
0
0
0
0
0
0
0
0
0
0
0
0
0
0
0
0
0
0
0
0
0
0
0
0
0
0
0
0
0
0
0
0
0
0
0
0
0
0
0
0
0
0
0
0
0
0
0
0
0
0
0
0
0
0
0
0
0
0
0
0
0
0
0
0
0
0
0
0
0
0
0
0
0
0
0
0
0
0
0
0
0
0
0
0
0
0
0
0
0
0
0
0
0
0
0
0
0
0
0
0
0
0
0
0
0
0
0
0
0
0
0
0
0
0
0
0
0
0
0
0
0
0
0
0
0
0
0
0
0
0
0
0
0
0
0
0
0
0
0
0
0
0
0
0
0
0
0
0
0
0
0
0
0
0
0
0
0
0
0
0
0
0
0
0
0
0
0
0
0
0
0
0
0
0
0
0
0
0
0
0
0
0
0
0
0
0
0
0
0
0
0
0
0
0
0
0
0
0
0
0
0
0
0
0
0
0
0
0
0
0
0
0
0
0
0
0
0
0
0
0
0
0
0
0
0
0
0
0
0
0
0
0
0
0
0
0
0
0
0
0
0
0
0
0
0
0
0
0
0
0
0
0
0
0
0
0
0
0
0
0
0
0
0
0
0
0
0
0
0
0
0
0
0
0
0
0
0
0
0
0
0
0
0
0
0
0
0
0
0
0
0
0
0
0
0
0
0
0
0
0
0
0
0
0
0
0
0
0
0
0
0
0
0
0
0
0
0
0
0
0
0
0
0
0
0
0
0
0
0
0
0
0
0
0
0
0
0
0
0
0
0
0
0
0
0
0
0
0
0
0
0
0
0
0
0
0
0
0
0
0
0
0
0
0
0
0
0
0
0
0
0
0
0
0
0
0
0
0
0
0
0
0
0
0
0
0
0
0
0
0
0
0
0
0
0
0
0
0
0
0
0
0
0
0
0
0
0
0
0
0
0
0
0
0
0
0
0
0
0
0
0
0
0
0
0
0
0
0
0
0
0
0
0
0
0
0
0
0
0
0
0
0
0
0
0
0
0
0
0
0
0
0
0
0
0
0
0
0
0
0
0
0
0
0
0
0
0
0
0
0
0
0
0
0
0
0
0
0
0
0
0
0
0
0
0
0
0
0
0
0
0
0
0
0
0
0
0
0
0
0
0
0
0
0
0
0
0
0
0
0
0
0
0
0
0
0
0
0
0
0
0
0
0
0
0
0
0
0
0
0
0
0
0
0
0
0
0
0
0
0
0
0
0
0
0
0
0
0
0
0
0
0
0
0
0
0
0
0
0
0
0
0
0
0
0
0
0
0
0
0
0
0
0
0
0
0
0
0
0
0
0
0
0
0
0
0
0
0
0
0
0
0
0
0
0
0
0
0
0
0
0
0
0
0
0
0
0
0
0
0
0
0
0
0
0
0
0
0
0
0
0
0
0
0
0
0
0
0
0
0
0
0
0
0
0
0
0
0
0
0
0
0
0
0
0
0
0
0
0
0
0
0
0
0
0
0
0
0
0
0
0
0
0
0
0
0
0
0
0
0
0
0
0
0
0
0
0
0
0
0
0
0
0
0
0
0
0
0
0
0
31
31
31
31
30
30
30
30
31
31
31
31
31
31
31
31
31
31
31
31
32
32
32
32
33
33
33
34
34
35
35
36
37
37
38
39
39
40
41
42
43
44
44
45
46
46
47
47
48
49
49
50
50
51
51
52
52
53
53
53
54
54
55
56
56
57
58
59
60
60
61
63
64
64
65
66
67
67
68
69
69
69
69
69
69
69
69
69
68
68
67
66
65
64
63
63
62
61
60
59
58
56
55
54
53
52
51
49
48
47
46
45
44
43
42
41
40
39
38
37
36
36
35
35
34
34
33
33
33
32
32
31
31
31
30
30
29
29
28
28
27
27
26
26
26
25
25
24
24
24
23
23
23
23
23
23
22
22
23
22
22
22
22
22
22
22
22
22
22
22
22
22
22
22
22
22
22
22
22
22
22
22
22
22
22
22
22
22
22
22
22
23
23
23
22
22
22
22
22
22
21
21
21
20
20
19
19
19
19
18
18
18
19
19
19
20
21
22
23
24
26
28
31
34
37
40
44
48
53
58
64
70
77
85
93
102
111
121
130
141
151
161
172
183
194
205
216
227
238
247
257
265
272
278
283
286
288
289
288
286
282
277
272
264
255
245
234
222
208
195
180
166
151
137
122
108
95
82
69
58
47
37
28
20
12
6
0
-4
-8
-11
-14
-16
-18
-19
-20
-21
-21
-20
-20
-19
-19
-18
-17
-15
-14
-12
-11
-10
-8
-7
-5
-3
-2
0
0
1
2
4
5
6
7
8
8
9
10
10
11
11
11
12
12
12
12
12
12
12
12
12
12
12
12
12
12
12
12
12
12
12
12
12
12
12
12
12
12
12
12
13
13
13
13
13
13
14
14
14
14
14
14
14
14
14
14
14
14
14
13
13
13
13
12
12
12
12
12
12
12
11
11
11
11
11
11
11
11
11
11
11
11
11
11
11
11
11
11
11
11
11
10
10
10
10
9
9
9
8
8
8
8
7
7
7
7
6
6
6
6
6
5
5
5
5
5
5
5
5
4
4
4
4
3
3
3
2
2
1
1
1
0
0
0
0
0
0
-1
-1
-1
-2
-2
-3
-3
-4
-4
-5
-5
-6
-6
-7
-7
-8
-8
-9
-10
-10
-11
-11
-12
-12
-12
-12
-12
-12
-13
-13
-13
-13
-13
-12
-12
-12
-12
-11
-11
-10
-10
-10
-9
-9
-8
-8
-8
-8
-7
-7
-7
-6
-6
-5
-5
-5
-4
-4
-3
-3
-3
-2
-2
-2
-1
-1
0
0
0
0
1
1
2
3
4
5
6
7
8
9
10
11
12
14
15
16
17
19
20
22
23
25
26
27
28
29
31
32
33
34
35
36
37
38
39
39
40
41
41
42
43
43
44
44
45
45
46
46
46
47
47
47
48
48
48
49
49
49
49
49
49
49
49
49
49
49
48
48
48
48
47
47
47
46
46
46
45
45
45
45
44
44
44
44
44
44
44
44
44
44
44
44
45
45
45
45
45
45
45
45
46
46
46
46
46
46
46
46
46
45
45
45
45
45
45
45
45
44
44
44
44
44
44
44
44
43
43
43
43
43
44
44
44
44
45
45
45
45
46
46
46
46
47
47
47
47
48
48
48
48
48
48
48
48
47
47
47
47
47
47
47
47
47
47
46
46
46
46
46
46
46
46
46
46
46
46
46
46
45
45
45
45
45
45
45
45
45
45
45
45
45
45
45
45
45
45
44
44
44
44
44
45
45
45
45
45
45
45
45
45
45
46
46
46
46
46
46
47
47
47
47
47
47
47
46
46
46
46
46
46
46
46
46
46
46
45
45
45
45
45
45
45
45
45
45
45
45
45
45
45
45
46
46
46
46
46
46
46
46
46
46
46
46
46
47
47
47
47
47
48
48
48
49
49
50
50
51
52
52
53
54
55
56
56
57
58
59
59
60
60
61
61
62
63
63
64
64
64
65
65
66
66
66
66
67
67
68
68
68
69
69
70
70
70
70
70
70
70
70
70
70
70
69
69
69
68
68
67
67
66
65
65
64
63
63
63
62
62
62
62
62
61
61
61
61
61
61
61
61
60
60
60
60
59
59
58
58
57
56
55
55
54
53
52
52
51
50
50
49
48
48
47
47
46
46
45
45
44
44
44
43
43
42
42
41
41
41
40
40
40
39
39
39
39
38
38
38
38
38
38
37
37
37
37
37
37
37
37
37
37
37
37
37
37
37
37
37
37
37
37
37
36
36
36
36
36
36
36
36
36
36
36
36
36
36
36
37
37
37
37
37
37
37
37
37
37
36
36
36
36
36
36
37
37
37
38
38
39
39
40
40
41
43
44
46
48
51
54
57
60
64
68
73
78
83
90
97
105
114
122
131
141
150
160
169
179
190
200
211
221
231
241
250
258
265
271
277
280
283
284
284
282
279
275
269
263
254
245
234
222
210
196
182
168
153
139
125
111
98
85
73
62
51
42
34
26
19
14
9
5
1
0
-2
-4
-5
-6
-6
-6
-6
-5
-5
-4
-3
-2
-1
0
0
2
3
4
6
7
8
10
11
12
13
15
16
17
18
19
20
21
22
22
23
24
24
25
25
26
26
26
26
26
26
26
26
26
26
26
26
25
25
25
24
24
24
24
24
23
23
23
23
23
22
22
22
22
22
22
22
22
22
22
22
23
23
23
23
23
23
24
24
24
24
25
25
25
25
26
26
26
26
26
26
26
26
26
25
25
25
24
24
24
24
23
23
23
22
22
22
21
21
21
21
21
20
20
20
20
20
20
20
20
20
20
20
20
20
20
19
19
19
19
19
19
19
18
18
18
18
18
17
17
17
17
16
16
16
15
15
15
14
14
14
14
13
13
13
12
12
12
11
11
11
10
10
10
10
10
9
9
9
8
8
8
7
7
7
7
7
6
6
6
6
6
5
5
5
5
5
5
5
5
5
5
5
5
5
5
6
6
6
6
6
7
7
7
8
8
8
9
9
10
10
11
11
12
12
12
13
13
14
14
14
15
15
16
16
17
17
18
18
19
19
19
20
20
21
22
22
23
24
25
25
26
27
28
28
29
30
31
32
33
34
35
36
37
38
40
41
42
43
44
45
46
47
48
49
50
51
51
52
53
53
54
54
55
55
55
55
56
56
56
56
56
56
56
56
56
56
56
56
56
56
55
55
55
55
55
55
55
55
55
54
54
54
54
53
53
53
53
52
52
52
52
52
52
52
52
52
52
51
51
51
51
51
51
51
51
51
51
51
51
51
51
51
51
51
51
51
51
51
52
52
52
52
52
52
52
53
53
53
53
53
53
53
53
53
53
52
52
52
52
51
51
51
51
50
50
50
50
49
49
49
49
49
49
49
49
49
49
49
49
49
49
49
49
49
49
49
49
49
49
50
50
50
50
50
50
50
50
51
51
51
51
51
51
51
52
52
52
52
52
52
52
51
51
51
51
51
50
50
50
50
50
50
50
50
50
49
49
49
49
50
50
50
50
50
50
50
50
50
50
50
50
50
50
50
50
50
50
51
51
51
51
51
51
52
52
52
52
52
52
53
53
53
53
52
52
52
52
52
52
52
52
52
52
51
51
51
51
50
50
50
50
50
50
50
50
50
50
49
49
49
49
49
49
50
50
50
50
49
49
49
49
49
49
49
49
49
49
49
49
49
49
50
50
50
50
50
50
50
50
51
51
51
51
50
50
50
50
50
50
50
50
50
50
50
51
51
51
52
52
53
54
55
56
57
58
59
60
61
62
63
63
64
65
65
66
66
67
67
67
68
67
67
67
67
66
66
66
65
65
65
64
64
64
64
63
63
63
63
63
63
63
63
63
63
63
63
64
64
64
64
63
63
63
63
62
62
61
61
60
59
58
58
57
56
55
55
54
54
53
53
52
52
51
51
50
50
50
50
50
50
50
50
50
50
50
50
50
50
50
50
49
49
49
49
49
49
49
48
48
48
47
47
47
46
46
46
46
45
45
45
44
44
43
43
43
42
42
42
41
41
41
41
40
40
40
40
40
40
40
40
40
40
40
40
40
40
40
40
40
40
40
41
41
41
41
41
41
41
41
41
41
41
41
41
41
41
41
41
42
42
42
42
42
42
42
42
42
42
42
41
41
41
40
40
40
40
40
39
39
40
40
40
41
41
41
42
43
44
45
46
48
49
52
54
56
59
62
65
69
73
78
83
89
95
103
110
118
127
135
144
153
163
173
183
193
204
214
224
234
243
251
259
265
271
275
277
278
278
276
273
268
262
255
246
236
225
213
200
186
172
157
143
129
115
101
89
76
65
55
45
36
29
22
16
12
8
4
2
0
0
-1
-2
-2
-2
-1
-1
0
0
1
2
4
5
6
7
9
10
12
13
14
15
17
18
19
20
21
22
23
24
25
26
26
27
27
27
28
28
28
29
29
29
29
29
29
29
29
29
29
29
29
29
29
29
29
29
30
30
30
30
30
30
30
31
31
30
30
30
30
31
31
31
31
30
30
30
30
30
30
30
30
30
29
29
29
29
29
29
29
29
28
28
28
28
28
28
27
27
27
27
27
27
26
26
26
26
26
25
25
25
24
24
24
24
23
23
23
23
23
22
22
22
22
22
22
22
22
22
22
22
22
22
22
22
22
22
22
22
22
22
21
21
21
21
20
20
20
19
19
19
18
18
18
17
17
17
16
16
16
16
16
16
16
16
15
15
15
15
15
15
15
15
15
15
14
14
14
14
13
13
12
12
12
11
11
11
10
10
10
10
10
10
10
10
10
10
10
10
11
11
11
11
12
12
12
12
13
13
13
14
14
14
14
15
15
15
15
16
16
16
17
17
17
18
18
18
19
19
19
20
20
21
21
21
22
22
23
23
24
24
25
25
26
27
27
28
29
29
30
31
32
33
34
35
36
37
38
39
40
41
42
43
44
45
46
47
47
48
49
50
50
51
51
52
52
53
53
54
54
55
55
55
56
56
56
56
57
57
57
57
57
57
57
56
56
56
56
56
55
55
55
55
54
54
54
53
53
53
53
53
52
52
52
52
51
51
51
51
50
50
50
49
49
49
49
48
48
48
48
48
48
48
48
48
48
48
48
48
49
49
49
49
49
49
49
49
49
49
49
49
49
48
48
48
48
48
48
48
48
48
48
48
48
48
48
48
48
48
47
47
48
48
48
48
48
48
48
48
48
48
48
49
49
49
49
49
49
50
50
50
50
50
50
50
51
51
51
51
51
51
51
50
50
50
50
50
50
50
50
50
49
49
49
49
49
49
49
49
49
49
49
49
49
49
48
48
48
48
48
48
48
48
47
47
47
47
47
47
47
47
47
47
47
47
48
48
48
48
48
48
48
48
48
48
48
48
48
48
48
48
48
48
48
48
48
48
48
48
48
49
49
49
49
49
49
48
48
48
48
48
48
48
48
48
48
48
48
47
47
47
47
47
46
46
46
46
46
46
46
46
46
46
45
45
45
45
45
45
45
45
45
45
45
45
45
45
45
45
45
45
45
44
44
44
44
44
44
44
44
44
44
44
44
44
44
44
44
44
44
44
44
44
44
44
44
44
43
43
43
43
43
43
43
42
42
42
42
42
42
42
42
42
43
43
43
43
44
44
45
46
46
47
48
49
50
50
51
52
53
54
55
56
57
58
58
59
59
59
60
60
60
60
60
60
60
59
59
59
58
58
57
57
56
56
56
56
55
55
55
55
55
55
55
55
55
55
55
55
55
55
55
54
54
54
53
52
52
51
51
50
49
48
47
46
46
45
45
44
44
43
43
42
42
42
41
41
41
41
41
41
41
41
41
41
41
41
41
41
41
41
41
41
41
41
40
40
40
40
40
40
40
40
40
39
39
39
38
38
38
37
37
36
36
36
36
36
36
35
35
35
35
34
34
34
34
34
34
34
34
34
34
33
33
33
33
33
33
33
33
33
33
34
34
34
34
34
34
34
35
35
35
35
35
35
35
35
35
35
35
34
34
34
34
34
34
34
35
35
35
35
34
34
34
34
34
34
34
34
35
35
36
36
37
37
37
38
38
39
40
41
43
44
46
48
51
53
56
59
62
66
70
75
81
87
93
101
109
117
125
134
142
152
161
171
180
191
201
211
220
229
237
245
252
258
262
265
267
267
266
263
260
255
249
241
232
222
211
199
186
172
159
145
131
117
104
92
79
68
57
48
39
31
24
18
13
8
5
2
0
-1
-2
-3
-3
-3
-3
-3
-2
-1
-1
0
1
2
3
4
5
7
8
9
10
11
13
14
15
16
18
19
20
21
22
23
23
24
25
26
26
27
27
28
28
28
29
29
29
29
29
29
29
29
29
29
29
29
30
30
30
30
30
30
30
30
30
30
30
30
30
30
30
30
30
29
29
29
29
29
29
29
28
28
28
28
28
28
28
28
28
28
28
28
28
28
28
28
28
28
28
28
28
28
28
27
27
27
27
27
26
26
26
26
25
25
25
25
25
24
24
24
24
24
24
24
24
24
24
24
24
24
24
24
24
24
24
25
25
25
25
25
24
24
24
24
24
24
24
23
23
23
22
22
21
21
21
20
20
19
19
19
18
18
18
17
17
17
16
16
16
15
15
15
15
14
14
14
14
14
14
13
13
13
13
13
12
12
12
12
12
12
12
12
12
12
12
12
12
12
12
12
12
12
12
12
12
12
12
12
12
13
13
13
13
13
13
13
13
13
14
14
14
14
14
15
15
15
15
16
16
16
17
17
18
18
19
19
20
20
21
22
22
23
24
25
25
26
27
28
29
30
30
31
32
33
34
34
35
36
37
38
39
40
41
42
43
43
44
45
46
46
47
48
49
49
50
50
51
51
52
52
53
53
53
54
54
54
54
54
55
55
55
55
55
55
55
55
55
55
55
55
55
54
54
54
54
54
54
54
53
53
53
53
53
52
52
52
52
52
52
52
52
51
51
51
51
51
51
51
51
51
51
51
51
51
51
51
51
51
50
50
50
50
50
50
50
50
50
49
49
49
49
48
48
48
48
48
48
48
48
48
48
48
48
48
48
48
48
48
48
48
48
48
48
48
48
48
48
48
48
48
48
48
48
49
49
49
49
49
49
50
50
50
50
50
50
50
50
50
50
50
50
50
50
50
50
50
49
49
49
49
49
49
49
49
48
48
48
48
48
48
48
48
48
47
47
47
47
47
47
47
47
47
47
47
48
48
48
48
48
48
48
48
48
48
48
48
48
48
48
48
48
48
48
48
48
48
49
49
49
49
49
49
50
50
50
50
51
51
51
51
51
51
51
51
51
51
51
51
50
50
50
50
50
50
50
50
50
50
50
49
49
49
49
49
49
49
50
50
50
50
50
50
50
50
50
50
50
51
51
52
52
53
53
54
55
55
56
57
58
59
60
60
61
62
63
64
64
65
65
66
66
66
66
67
67
67
67
67
67
67
66
66
66
66
66
66
66
66
66
66
66
66
66
66
67
67
67
67
68
68
68
68
68
68
68
67
67
67
66
66
65
64
63
63
62
61
61
60
59
58
58
57
57
56
56
56
55
55
55
55
55
54
54
54
53
53
53
53
53
52
52
52
51
51
51
50
50
50
50
50
49
49
49
48
48
48
47
47
47
46
46
46
46
45
45
44
44
44
43
43
43
43
43
43
42
42
42
42
42
42
42
42
42
42
42
41
41
41
41
41
41
41
41
41
41
41
40
40
40
40
40
40
39
39
39
39
39
39
38
38
38
38
38
38
38
38
39
39
39
39
39
39
39
39
39
39
39
39
38
38
38
37
37
37
36
36
36
36
36
36
36
36
36
37
38
39
40
42
45
47
50
53
57
61
65
70
76
82
89
97
105
114
123
133
142
152
161
171
181
191
201
211
222
232
241
250
258
265
271
276
280
283
284
285
284
282
279
274
268
262
254
244
234
223
210
198
185
172
158
145
132
119
106
94
83
72
62
53
44
37
30
24
18
14
10
6
3
1
0
-1
-2
-3
-3
-3
-2
-2
-1
0
0
1
2
3
5
6
7
9
10
12
13
15
16
17
18
19
20
21
22
23
23
24
25
25
25
25
25
25
25
25
25
25
25
25
25
25
25
26
26
26
26
26
26
26
27
27
27
27
27
27
27
27
27
27
27
27
27
27
27
26
26
26
26
26
26
26
26
26
26
26
26
26
26
26
26
26
25
25
25
25
25
25
25
25
24
24
24
24
24
24
24
23
23
23
23
23
22
22
22
21
21
21
21
21
21
20
20
20
20
20
20
20
19
19
19
19
19
19
18
18
18
18
17
17
17
17
16
16
16
16
15
15
15
15
15
14
14
14
14
14
14
14
14
13
13
12
12
12
11
11
11
10
10
9
8
8
7
7
6
6
5
5
4
4
3
3
3
3
2
2
2
1
1
1
1
0
0
0
0
0
0
0
0
0
0
0
0
0
0
0
0
0
0
0
1
1
1
2
2
2
2
3
3
3
4
4
4
4
5
5
5
5
5
6
6
6
7
7
8
8
9
10
11
12
13
14
15
16
17
18
19
20
21
22
23
24
25
26
27
28
29
30
31
33
34
35
36
37
38
39
40
41
43
44
45
46
47
47
48
49
50
50
51
52
52
53
53
53
54
54
54
55
55
55
55
55
55
55
55
55
55
55
54
54
54
54
54
54
53
53
53
53
52
52
52
52
52
52
52
52
52
52
52
52
52
52
52
51
51
51
51
51
51
51
51
51
51
51
51
50
50
50
50
50
50
49
49
49
49
49
49
48
48
48
48
48
47
47
47
47
47
46
46
46
47
47
47
47
47
47
47
47
47
47
47
48
48
48
48
49
49
49
49
49
49
50
50
50
50
50
50
50
50
50
50
50
50
50
50
50
50
50
50
50
49
49
49
49
48
48
48
48
47
47
47
46
46
46
46
46
46
46
46
46
47
47
47
47
47
47
47
47
47
47
47
47
47
47
46
46
46
46
45
45
45
44
44
44
43
43
43
42
42
42
42
41
41
41
41
40
40
40
40
40
40
40
40
40
41
41
41
41
41
41
42
42
42
42
42
42
42
42
42
42
42
41
41
41
41
41
40
40
40
40
39
39
39
39
39
39
39
39
39
39
40
40
41
41
42
42
43
44
45
46
46
47
48
49
50
51
52
53
54
54
55
56
56
57
57
57
58
58
58
58
59
59
59
59
59
60
60
60
60
60
60
60
61
61
61
62
62
62
63
63
63
63
63
63
63
63
63
63
63
62
62
61
61
60
60
59
59
58
58
57
57
56
56
56
55
55
55
55
55
55
55
55
55
55
55
55
55
55
54
54
54
53
53
52
52
51
50
50
49
48
48
47
47
46
45
44
44
43
43
42
41
41
40
39
38
38
37
37
36
36
35
35
34
34
34
33
33
33
32
32
32
32
32
32
32
32
31
31
31
31
31
31
31
31
31
31
31
31
32
32
32
32
32
33
33
33
33
34
34
34
34
34
35
35
35
35
35
35
35
35
35
34
34
34
34
33
33
32
31
30
30
29
28
28
27
27
27
27
27
27
27
27
28
28
29
30
31
32
34
36
39
41
44
48
51
55
59
64
69
75
82
89
97
106
115
124
134
144
153
163
174
184
195
205
216
227
237
246
255
263
271
277
282
285
287
288
288
286
284
279
274
267
259
249
239
227
214
200
186
172
157
143
128
114
101
88
75
64
53
43
34
26
19
13
7
3
0
-4
-6
-8
-10
-11
-12
-12
-12
-12
-12
-12
-11
-10
-9
-8
-7
-6
-5
-4
-3
-1
0
0
1
3
4
5
6
7
9
10
11
12
13
13
14
15
15
16
16
17
17
17
17
18
18
18
18
18
18
18
18
17
17
17
17
17
17
17
17
17
17
17
17
17
17
17
17
17
17
17
17
17
17
17
16
16
16
16
16
16
16
15
15
15
15
15
15
14
14
14
14
14
14
14
14
14
14
14
14
14
14
14
15
15
15
15
15
15
15
15
16
16
15
15
15
15
15
15
15
15
14
14
14
13
13
13
13
12
12
12
12
12
12
12
12
12
12
12
12
11
11
11
11
11
12
12
12
11
11
11
11
11
10
10
10
9
9
8
7
7
6
5
5
4
4
3
3
2
2
2
1
1
0
0
0
0
0
0
0
0
0
0
-1
-1
-1
-1
-1
-1
-1
-2
-2
-2
-2
-2
-2
-2
-2
-2
-2
-2
-2
-2
-1
-1
-1
-1
-1
0
0
0
0
0
0
0
0
1
1
2
2
3
3
4
5
6
6
7
8
9
10
10
11
12
13
14
15
16
17
18
19
20
21
22
23
25
26
27
28
29
30
31
32
33
34
35
36
37
38
40
41
42
43
44
45
46
47
48
49
50
51
52
53
54
55
56
57
58
58
59
60
60
61
61
62
62
63
63
63
63
63
64
64
64
63
63
63
63
63
64
64
64
64
64
64
64
64
65
65
65
65
65
65
66
66
66
66
66
66
66
66
66
66
66
66
66
66
65
65
65
65
65
65
65
64
64
64
64
64
64
64
64
64
64
64
64
64
64
64
64
64
64
65
65
65
65
65
65
66
66
66
66
66
66
66
66
66
66
67
67
67
67
67
67
67
67
68
68
68
68
68
68
68
68
69
69
69
69
69
69
70
70
70
70
70
70
70
70
70
70
70
70
70
70
70
70
70
70
70
70
70
69
69
69
69
69
70
70
70
70
69
69
69
70
70
70
69
69
69
69
69
69
69
69
69
69
69
69
69
69
69
68
68
68
68
68
68
68
67
67
67
67
66
66
66
66
66
65
65
65
65
65
65
65
65
65
65
65
65
65
65
65
65
65
65
65
65
65
65
65
64
64
65
65
65
65
65
65
65
65
65
65
65
65
65
64
64
64
64
64
64
63
63
63
63
63
63
62
62
63
63
63
63
64
64
65
65
66
67
68
69
70
71
72
73
74
75
76
76
77
78
78
79
79
80
80
80
80
79
79
79
78
78
77
77
77
76
76
75
75
75
75
75
75
75
75
75
76
76
76
77
77
77
78
78
78
78
78
78
78
78
78
77
76
76
75
74
73
72
72
71
70
69
68
67
67
66
66
65
64
64
64
63
63
63
63
63
63
63
63
63
63
62
62
62
62
62
62
61
61
61
61
61
60
60
59
59
58
58
57
57
56
55
55
54
53
53
52
51
51
50
50
49
48
48
48
47
47
47
46
46
46
46
46
46
46
46
46
46
46
46
46
46
46
46
46
46
46
46
46
45
45
45
45
45
45
45
44
44
44
44
44
44
44
44
44
44
44
44
44
45
45
45
45
45
45
44
44
44
44
44
43
43
43
43
43
43
43
44
44
44
44
45
46
46
48
49
51
53
55
58
60
63
67
70
75
79
85
91
97
105
113
121
130
139
148
157
166
176
186
196
207
217
227
237
246
254
262
268
274
278
281
282
282
280
278
274
268
262
254
245
235
223
211
198
184
170
156
142
128
115
102
90
78
67
57
47
39
31
25
19
14
10
6
3
1
0
-1
-2
-3
-3
-3
-3
-2
-2
-1
0
0
1
3
4
6
7
8
10
11
13
15
16
18
19
20
22
23
24
25
26
26
27
28
28
28
29
29
29
29
29
29
29
29
29
29
29
29
29
29
29
29
29
29
29
29
28
28
28
28
28
28
28
28
27
27
27
27
27
27
27
27
27
27
27
27
27
27
26
26
26
26
26
25
25
25
25
25
25
24
24
24
24
23
23
23
23
23
23
23
23
23
23
23
23
22
22
22
22
22
22
21
21
21
21
21
21
20
20
20
20
20
20
20
20
20
20
20
20
20
20
20
19
19
19
19
19
19
19
19
19
19
19
19
19
19
19
19
18
18
18
18
18
18
17
17
17
16
16
16
16
15
15
15
14
14
14
14
13
13
13
12
12
12
11
11
11
11
11
11
11
10
10
10
10
10
10
10
10
10
10
10
10
10
10
10
10
11
11
11
11
11
11
11
11
11
11
12
12
12
13
13
13
14
14
15
15
16
16
17
17
18
19
19
20
21
21
22
22
23
23
23
24
24
25
25
26
26
27
28
28
29
30
31
32
33
33
34
35
36
37
39
40
41
42
43
44
44
45
46
47
48
49
50
50
51
52
52
53
54
54
54
55
55
56
56
57
57
57
57
58
58
58
58
58
58
58
58
58
58
58
58
58
58
58
58
58
58
58
58
57
57
57
57
57
56
56
56
56
56
55
55
55
55
55
54
54
54
53
53
53
53
52
52
52
51
51
51
50
50
50
50
50
50
50
50
50
50
50
50
51
51
51
52
52
52
52
52
53
53
53
53
53
53
53
53
54
54
54
54
54
54
54
54
54
54
54
54
54
54
54
53
53
53
53
53
53
53
53
53
53
53
53
53
53
53
52
52
52
52
52
52
52
52
52
52
52
52
52
52
52
52
52
52
52
52
52
52
52
52
52
52
52
52
52
52
52
52
52
52
51
51
51
51
51
50
50
50
49
49
49
49
49
49
49
49
49
49
49
49
49
49
48
48
48
48
48
48
48
49
49
49
49
49
49
49
49
49
49
49
49
50
50
50
50
50
51
51
51
50
50
50
50
50
50
50
50
50
49
49
49
48
48
48
48
48
48
48
48
48
48
48
48
48
48
48
48
48
48
48
48
48
48
48
48
48
47
47
47
47
46
46
46
46
45
45
45
45
44
44
44
44
44
44
43
43
43
43
43
43
43
42
42
42
42
43
43
42
42
42
42
42
42
42
42
43
43
43
43
44
44
45
45
46
47
48
48
49
50
51
52
53
54
54
55
56
57
57
58
58
59
59
59
60
60
60
60
60
60
60
60
59
59
59
59
59
58
58
58
58
57
57
57
56
56
56
56
55
55
55
54
54
54
54
53
53
53
53
53
52
52
52
51
51
51
51
50
50
50
50
49
49
48
48
47
47
46
46
45
44
44
43
42
41
41
40
39
39
38
38
37
37
36
36
36
36
35
35
35
35
35
35
35
35
35
35
35
35
35
35
34
34
34
33
33
33
32
32
32
31
31
30
30
30
29
29
28
28
28
28
27
27
27
27
27
26
26
26
26
26
26
26
26
26
27
27
27
27
27
27
27
27
27
27
27
27
28
27
27
27
27
27
28
28
28
28
28
28
28
28
28
28
28
28
28
28
28
28
28
28
28
28
28
28
29
29
30
30
30
31
32
33
34
36
38
40
42
45
48
51
54
58
62
66
71
77
83
90
98
107
115
124
132
141
150
159
169
179
189
199
209
219
227
235
243
249
255
259
261
262
262
260
257
252
247
240
232
222
211
199
187
173
159
145
131
116
102
89
76
64
52
42
32
23
16
9
3
-1
-6
-9
-12
-14
-16
-17
-18
-18
-18
-18
-17
-17
-16
-15
-14
-12
-11
-10
-8
-7
-5
-4
-3
-1
0
0
2
3
4
5
6
7
8
9
9
10
10
11
11
11
12
12
12
12
12
12
12
12
12
12
12
12
12
12
12
11
11
11
11
11
11
11
11
11
11
11
11
11
11
10
10
10
10
10
10
10
10
9
9
9
9
9
9
9
9
8
8
8
8
8
8
8
7
7
7
7
7
7
6
6
6
6
6
6
6
6
6
6
5
5
5
5
5
5
5
5
4
4
4
4
4
4
3
3
3
3
3
2
2
2
2
2
2
2
2
2
1
1
1
1
1
1
1
1
1
0
0
0
0
0
0
0
0
0
-1
-1
-1
-1
-2
-2
-2
-2
-3
-3
-3
-3
-3
-3
-4
-4
-4
-4
-4
-4
-4
-4
-5
-5
-5
-5
-6
-6
-6
-6
-6
-7
-7
-7
-7
-7
-7
-8
-8
-8
-8
-8
-8
-7
-7
-7
-7
-7
-7
-7
-6
-6
-6
-6
-6
-5
-5
-5
-5
-4
-4
-4
-3
-3
-3
-3
-2
-2
-2
-2
-1
-1
0
0
0
0
0
0
1
1
1
2
2
3
4
4
5
5
6
7
8
9
10
10
11
12
13
14
15
15
16
17
18
19
20
20
21
22
23
23
24
25
26
26
27
28
28
29
30
31
31
32
32
33
33
34
34
35
35
35
36
36
36
36
37
37
37
37
37
37
37
37
37
36
36
36
36
35
35
35
35
35
35
34
34
34
34
33
33
33
33
33
32
32
32
32
32
31
31
30
30
30
29
29
29
28
28
28
28
28
28
28
27
28
28
28
28
28
29
29
29
29
29
30
30
30
30
30
30
30
30
30
30
30
30
30
29
29
29
29
29
29
29
29
29
29
29
29
29
29
29
29
29
29
29
29
29
29
29
29
29
29
29
29
29
29
29
29
29
29
28
28
28
28
28
28
28
28
28
28
28
28
28
28
28
28
28
28
28
28
28
28
28
28
28
28
28
28
28
28
28
28
28
28
28
28
28
28
29
29
29
29
29
29
29
29
29
28
28
28
28
28
28
28
28
27
27
27
27
27
27
27
27
27
27
27
27
27
27
28
28
28
28
28
28
28
28
28
28
28
28
28
28
28
28
28
28
28
27
27
27
27
27
26
26
26
26
26
26
26
26
26
26
25
25
25
25
25
25
25
25
25
25
25
25
24
24
24
24
24
24
24
23
23
23
23
23
23
23
23
23
23
23
24
24
24
24
25
25
26
27
27
28
28
29
30
31
32
33
34
35
36
37
38
38
39
39
40
41
41
41
42
42
42
42
42
42
42
42
42
42
43
43
43
43
44
44
45
45
46
46
47
48
48
49
49
50
50
50
51
51
51
51
51
50
50
49
49
48
47
46
45
44
43
42
41
40
39
38
37
36
35
34
33
32
31
30
30
29
28
28
27
27
26
26
25
25
25
24
24
24
23
23
23
23
22
22
22
22
22
21
21
21
21
21
20
20
20
19
19
19
18
18
17
17
16
16
16
15
15
15
15
14
14
14
14
13
13
13
13
13
13
13
13
13
13
12
12
12
12
12
12
12
12
12
12
12
12
12
12
12
12
12
12
12
12
12
12
12
12
12
11
11
11
11
11
11
11
11
11
11
11
11
11
11
11
11
11
11
11
11
11
12
12
13
13
14
14
15
16
17
18
19
21
22
24
27
30
33
36
39
42
46
51
56
61
67
74
82
90
98
107
115
124
134
144
153
164
174
184
193
203
212
220
228
234
240
243
246
247
246
245
242
237
232
225
217
207
196
184
172
159
145
131
117
103
90
77
64
52
41
31
21
13
5
-1
-7
-12
-16
-20
-23
-25
-27
-28
-29
-29
-30
-29
-29
-29
-28
-27
-26
-25
-24
-23
-22
-21
-19
-18
-17
-15
-14
-13
-12
-10
-9
-8
-7
-6
-5
-4
-4
-3
-2
-2
-1
-1
0
0
0
0
0
0
0
0
0
0
0
0
0
0
0
0
1
1
1
1
1
1
1
1
1
1
1
1
0
0
0
0
0
0
0
0
0
0
0
0
0
0
0
-1
-1
-1
-1
-1
-1
-1
-2
-2
-2
-2
-2
-2
-2
-3
-3
-3
-3
-3
-3
-3
-3
-3
-3
-3
-3
-2
-2
-2
-2
-2
-2
-2
-2
-2
-2
-2
-2
-2
-2
-3
-3
-3
-3
-3
-4
-4
-4
-4
-5
-5
-5
-6
-6
-6
-6
-6
-6
-6
-7
-7
-7
-7
-7
-7
-8
-8
-8
-8
-8
-8
-8
-8
-8
-9
-9
-9
-9
-10
-10
-10
-10
-10
-10
-10
-11
-11
-11
-11
-11
-12
-12
-12
-13
-13
-13
-13
-14
-14
-14
-15
-15
-15
-15
-16
-16
-16
-16
-16
-16
-16
-16
-16
-17
-17
-17
-16
-16
-16
-16
-17
-17
-17
-17
-17
-17
-17
-17
-17
-17
-16
-16
-16
-16
-16
-15
-15
-14
-14
-13
-13
-12
-11
-11
-10
-10
-9
-8
-7
-7
-6
-5
-4
-4
-3
-3
-2
-1
-1
0
0
1
1
2
3
4
5
5
6
7
8
9
10
11
12
13
14
15
16
17
17
18
19
20
20
21
22
22
23
23
24
25
25
26
26
26
27
27
28
28
29
29
29
30
30
30
30
30
30
30
30
30
30
30
30
30
30
30
29
29
29
29
28
28
28
27
27
26
26
26
26
25
25
25
25
25
24
24
24
24
24
24
24
24
24
24
24
24
24
24
24
24
24
23
23
23
22
22
22
21
21
21
20
20
20
20
20
20
20
19
19
19
19
19
20
20
20
21
21
21
22
22
22
22
23
23
23
23
23
23
23
23
23
24
24
24
24
24
23
23
23
23
23
23
23
23
23
22
22
22
22
22
22
22
22
21
21
21
21
21
21
21
21
21
21
21
21
21
21
21
21
22
22
22
22
22
22
22
23
23
23
23
24
24
24
24
24
24
24
24
24
24
24
24
24
23
23
23
22
22
22
22
21
21
21
20
20
20
20
20
19
19
19
19
19
19
19
19
19
19
19
18
18
18
18
18
18
18
18
17
17
17
17
17
17
17
17
17
18
18
18
18
18
19
19
19
19
20
20
20
20
21
21
21
21
21
21
21
21
21
21
20
20
20
20
20
20
20
20
20
20
20
20
20
21
21
21
22
23
23
24
24
25
26
27
28
28
29
30
31
32
32
33
33
34
34
35
35
35
36
36
36
36
36
37
37
37
37
37
38
38
39
39
40
40
41
42
42
43
44
44
45
45
46
46
47
47
47
47
47
47
47
47
47
46
46
45
44
44
43
42
42
41
40
39
38
37
36
35
34
33
32
31
31
30
29
29
28
27
27
27
26
26
26
26
25
25
25
25
25
24
24
24
24
23
23
22
22
21
21
20
20
19
19
18
18
17
17
17
16
16
16
15
15
15
15
15
15
15
15
16
16
16
16
16
16
16
16
16
16
16
16
16
16
16
16
15
15
15
15
15
15
15
15
15
15
15
14
14
14
14
14
14
14
14
14
15
15
15
15
15
15
15
15
15
15
15
15
15
14
14
14
13
13
12
12
12
11
11
11
10
10
10
10
11
12
12
13
14
16
17
20
22
25
28
31
35
40
44
49
55
61
68
75
84
92
101
110
120
129
139
149
159
170
181
191
202
212
221
230
238
245
251
255
258
260
260
260
258
255
251
245
238
229
220
209
197
184
171
158
144
130
117
103
90
78
65
54
43
33
24
15
8
1
-4
-9
-13
-17
-20
-23
-25
-26
-27
-28
-28
-28
-28
-27
-27
-26
-25
-24
-23
-22
-20
-19
-18
-17
-15
-14
-13
-12
-10
-9
-8
-7
-6
-6
-5
-4
-3
-3
-2
-2
-2
-1
-1
-1
0
0
0
0
0
0
0
0
0
0
0
0
0
0
0
0
0
0
0
0
0
0
0
0
0
0
0
0
0
0
0
0
0
0
0
0
0
0
0
0
0
0
0
0
0
0
0
0
0
0
0
0
0
0
0
0
0
0
0
0
0
0
0
0
0
-1
-1
-1
-1
-2
-2
-2
-2
-2
-3
-3
-3
-4
-4
-4
-4
-5
-5
-5
-5
-5
-5
-6
-6
-6
-6
-6
-6
-6
-7
-7
-7
-7
-8
-8
-8
-9
-9
-9
-9
-9
-10
-10
-10
-10
-11
-11
-11
-11
-12
-12
-12
-12
-12
-12
-13
-13
-13
-14
-14
-14
-14
-15
-15
-15
-16
-16
-16
-17
-17
-17
-18
-18
-18
-19
-19
-19
-20
-20
-21
-21
-22
-22
-22
-22
-22
-23
-23
-23
-23
-23
-23
-24
-24
-24
-23
-23
-23
-23
-23
-23
-23
-23
-23
-23
-22
-22
-22
-22
-21
-21
-21
-20
-20
-19
-19
-18
-18
-17
-16
-16
-15
-14
-14
-13
-12
-12
-11
-10
-10
-9
-8
-8
-7
-6
-6
-5
-4
-3
-2
-2
-1
0
0
1
2
3
4
5
6
7
8
9
10
11
12
13
14
15
15
16
17
17
18
19
20
20
21
21
22
22
23
23
24
25
25
25
26
26
26
27
27
28
28
28
29
29
29
29
29
29
29
29
29
29
29
29
29
29
28
28
28
28
27
27
26
26
25
25
25
24
24
24
24
24
23
23
23
23
23
23
22
22
22
22
23
23
23
22
22
22
22
22
22
22
22
22
22
21
21
21
21
21
20
20
20
20
21
21
21
21
21
21
21
21
22
22
22
22
22
23
23
23
23
23
23
23
23
23
23
23
22
22
22
22
22
22
22
22
21
21
21
21
21
21
20
20
20
20
20
20
20
20
19
19
19
19
19
19
20
20
20
20
20
20
20
20
20
20
20
20
20
20
20
20
20
20
20
20
19
19
19
19
19
19
19
19
19
19
19
19
19
20
20
20
19
19
19
20
20
20
20
19
19
19
19
20
20
20
20
20
20
20
20
20
20
20
20
19
19
19
19
19
19
19
19
19
18
18
18
18
18
18
18
18
18
18
18
19
19
19
20
20
21
21
22
22
23
23
24
24
25
26
27
27
28
29
30
31
32
32
33
34
34
35
35
36
36
37
37
37
38
38
38
39
39
39
39
40
40
41
42
42
43
44
45
46
47
48
49
50
51
52
53
53
54
55
55
55
55
55
55
55
54
54
53
52
52
51
50
49
48
46
45
44
43
42
42
41
40
39
38
37
37
36
35
34
33
32
31
31
30
29
28
27
26
26
25
24
23
23
22
21
21
20
20
19
19
19
18
18
18
17
17
17
16
16
16
15
15
14
14
14
13
13
13
13
13
13
13
12
12
12
12
13
13
13
13
13
13
13
13
13
13
13
13
13
13
13
13
13
13
13
13
13
13
13
12
12
12
12
12
12
12
12
12
12
12
12
12
12
12
12
12
12
12
12
12
12
12
11
11
11
10
10
10
9
9
9
8
8
8
8
8
9
9
10
11
12
13
15
17
19
22
25
29
33
37
42
47
52
58
65
72
80
89
98
107
117
127
137
148
158
168
179
190
201
212
222
232
241
250
258
264
269
273
276
277
277
276
273
269
264
258
250
241
231
219
207
194
180
165
151
137
122
108
95
81
69
57
45
35
25
16
8
1
-4
-9
-14
-18
-21
-23
-25
-27
-28
-29
-29
-29
-29
-28
-27
-26
-25
-24
-23
-22
-21
-19
-18
-16
-15
-13
-12
-11
-9
-8
-7
-6
-5
-3
-2
-2
-1
0
0
0
1
1
1
2
2
2
2
3
3
3
3
3
3
3
3
3
3
3
3
3
3
3
3
2
2
2
2
2
2
2
2
2
2
3
3
3
3
3
3
3
3
3
3
3
4
4
4
4
3
3
3
3
3
3
3
3
3
2
2
2
2
2
2
2
2
2
2
3
3
3
2
2
2
2
2
2
2
1
1
1
1
1
0
0
0
0
0
0
0
0
0
0
-1
-1
-1
-1
-1
-1
-1
-1
-1
-1
-1
-1
-2
-2
-2
-2
-2
-3
-3
-3
-4
-4
-4
-5
-5
-5
-6
-6
-6
-7
-7
-7
-7
-8
-8
-8
-8
-9
-9
-9
-9
-10
-10
-10
-11
-11
-12
-12
-13
-13
-13
-14
-14
-15
-15
-16
-16
-17
-17
-18
-18
-18
-18
-19
-19
-19
-19
-19
-19
-19
-19
-19
-19
-19
-19
-19
-18
-18
-18
-18
-17
-17
-17
-16
-16
-16
-16
-15
-15
-15
-14
-14
-14
-13
-13
-12
-12
-12
-11
-11
-10
-9
-9
-8
-7
-6
-5
-5
-4
-3
-2
-1
0
0
1
2
3
4
5
6
7
8
10
10
11
12
13
14
15
16
17
18
19
20
21
22
23
24
25
26
27
28
29
30
30
31
32
33
33
34
34
35
35
36
36
37
37
37
37
37
37
37
37
37
37
37
37
37
37
37
37
37
36
36
36
36
36
35
35
35
35
35
35
35
34
34
34
34
34
33
33
33
33
32
32
32
32
32
32
32
32
32
32
31
31
31
31
31
32
32
32
32
32
32
32
33
33
33
33
33
34
34
34
34
34
34
34
34
35
35
35
35
35
35
35
35
35
34
34
34
34
34
34
34
34
34
34
34
34
35
35
35
35
35
35
35
35
35
35
35
36
36
36
36
36
36
36
36
36
36
36
36
36
36
36
35
35
35
35
34
34
34
33
33
33
32
32
32
32
32
32
31
31
31
31
31
31
32
32
32
32
32
32
32
32
32
32
32
32
32
33
33
33
33
33
33
33
32
32
32
33
33
33
33
33
33
33
33
33
33
33
33
33
33
33
33
32
32
32
32
32
31
31
31
31
31
31
30
30
30
30
30
30
30
30
30
30
30
30
30
31
31
31
31
31
32
32
33
34
34
35
36
36
37
38
39
40
41
42
43
44
44
45
46
47
47
48
48
49
49
49
50
50
50
51
51
51
51
51
52
52
53
53
54
54
55
55
56
56
56
57
57
57
58
58
59
59
59
59
59
59
59
59
59
59
59
59
59
59
59
58
58
58
57
57
57
56
56
55
55
54
53
53
52
51
50
49
48
48
47
46
45
44
43
42
41
40
39
38
37
36
35
34
34
33
32
32
31
30
30
29
28
28
27
26
26
25
25
24
24
23
23
23
22
22
21
21
21
21
20
20
20
20
20
20
20
20
20
20
20
20
20
20
20
20
20
20
20
20
20
20
20
20
20
20
20
20
20
20
20
20
20
20
20
20
20
19
19
19
19
19
19
20
20
20
20
20
20
20
19
19
19
19
19
18
18
18
18
17
17
17
17
18
18
19
19
20
21
21
22
24
25
27
29
31
34
37
40
44
47
51
56
60
66
72
79
86
95
103
112
121
130
140
150
159
169
180
190
200
210
219
228
236
244
250
255
259
261
262
261
259
256
252
246
239
231
221
210
199
186
172
158
144
130
116
102
88
75
63
51
40
31
22
14
7
0
-4
-9
-13
-16
-18
-20
-21
-22
-23
-23
-23
-23
-23
-22
-21
-20
-19
-18
-17
-16
-15
-13
-12
-11
-9
-8
-7
-5
-4
-3
-2
-1
0
0
0
1
1
2
2
3
3
3
4
4
4
4
4
5
5
5
6
6
6
6
6
7
7
7
7
7
7
7
7
7
7
7
7
7
7
7
6
6
6
6
5
5
5
5
5
5
4
4
4
4
4
4
4
4
4
4
4
4
4
4
4
4
4
4
4
4
4
5
5
5
5
5
5
5
5
6
6
6
6
6
6
6
6
5
5
5
5
4
4
4
4
3
3
3
2
2
2
1
1
1
1
1
1
1
1
1
1
1
1
1
1
1
1
1
1
1
1
1
0
0
0
0
0
0
0
0
0
0
0
-1
-1
-1
-2
-2
-2
-2
-3
-3
-3
-3
-4
-4
-4
-4
-5
-5
-5
-5
-6
-6
-6
-6
-7
-7
-7
-7
-7
-8
-8
-8
-8
-8
-8
-8
-8
-8
-8
-8
-8
-9
-9
-8
-8
-8
-8
-8
-8
-8
-8
-8
-8
-7
-7
-7
-7
-6
-6
-5
-5
-4
-4
-3
-3
-2
-2
-1
0
0
0
0
0
1
1
2
2
3
3
3
4
4
5
5
6
6
7
7
8
9
10
10
11
12
13
14
15
16
17
19
20
21
22
23
24
25
26
27
28
29
29
30
31
31
32
33
33
34
34
35
35
35
35
36
36
36
36
36
36
36
36
36
36
36
36
36
35
35
35
35
35
35
34
34
34
34
33
33
33
33
33
33
33
33
33
33
33
32
32
32
32
32
32
32
31
31
31
31
31
31
31
31
30
30
30
30
30
29
29
29
29
29
29
29
29
28
28
28
28
28
28
28
28
28
28
28
28
28
28
28
28
28
28
28
28
28
28
27
27
27
27
27
27
27
27
27
27
27
27
27
27
27
27
27
27
27
27
27
27
27
27
27
27
28
28
28
28
28
28
28
28
28
28
29
29
29
29
29
29
29
29
30
30
30
30
30
30
30
30
30
30
30
30
30
30
30
30
30
30
30
30
30
30
30
30
30
30
30
30
30
30
31
31
31
31
31
31
31
31
31
31
31
31
31
31
31
31
31
31
31
31
31
31
31
31
30
30
30
30
30
30
30
30
30
30
30
30
30
30
30
30
29
29
29
29
29
29
29
29
29
29
28
29
29
29
29
29
29
29
30
30
31
31
31
32
33
33
34
35
35
36
37
38
39
39
40
41
42
42
43
44
44
45
45
46
47
47
48
48
48
49
49
50
50
51
51
51
52
52
52
53
53
54
54
55
55
56
56
57
57
57
58
58
58
58
58
57
57
57
57
56
56
55
55
54
54
53
52
51
51
50
49
48
48
47
46
45
44
44
43
42
41
41
40
39
38
38
37
36
35
35
34
33
33
32
32
31
31
30
30
29
29
28
28
27
27
26
25
25
24
23
23
22
22
21
21
20
20
19
19
19
18
18
18
17
17
17
17
17
17
17
17
17
17
17
17
17
17
17
17
17
17
17
17
17
17
17
17
17
17
17
16
16
16
17
17
17
17
17
17
17
17
17
17
17
17
18
18
18
18
18
18
18
18
18
18
18
18
17
17
17
17
16
16
16
16
17
17
17
18
18
19
20
21
22
23
25
27
30
32
35
39
42
45
49
54
59
64
70
77
85
93
101
110
119
128
138
147
157
167
177
187
197
207
216
225
233
240
246
250
253
254
254
253
250
246
241
234
226
217
207
195
183
170
156
142
128
115
101
88
75
63
51
41
31
22
14
6
0
-4
-9
-13
-16
-18
-20
-22
-23
-24
-24
-24
-24
-24
-24
-23
-22
-21
-20
-19
-18
-17
-16
-15
-13
-12
-11
-9
-8
-7
-6
-4
-3
-2
-1
0
0
1
2
2
3
4
4
4
5
5
5
5
5
6
6
6
6
6
6
6
6
5
5
5
5
5
5
5
5
5
5
5
6
6
6
6
7
7
7
7
7
7
8
8
8
8
8
8
8
8
8
7
7
7
7
7
6
6
6
5
5
5
5
4
4
4
4
4
4
4
4
3
3
3
3
3
3
3
3
3
2
2
2
2
2
2
2
2
2
2
2
2
2
2
2
2
2
2
2
2
2
2
2
2
2
2
2
2
2
2
2
2
2
2
1
1
1
1
1
0
0
0
0
0
0
0
0
0
0
0
0
0
0
0
0
-1
-1
-1
-1
-1
-1
-2
-2
-2
-2
-3
-3
-3
-3
-4
-4
-4
-5
-5
-5
-6
-6
-6
-6
-6
-6
-6
-7
-7
-7
-7
-6
-6
-6
-6
-6
-6
-5
-5
-5
-5
-4
-4
-4
-3
-3
-3
-2
-2
-2
-1
-1
-1
0
0
0
0
0
0
0
1
1
1
2
2
3
3
4
4
5
5
6
7
8
8
9
10
11
11
12
13
14
15
16
17
18
19
19
20
21
22
23
24
24
25
26
27
28
29
29
30
30
31
32
32
33
34
34
35
35
36
36
36
37
37
37
38
38
38
38
38
39
39
39
39
39
39
39
39
39
39
39
38
38
38
38
38
37
37
37
37
36
36
36
35
35
35
34
34
33
33
33
33
32
32
32
32
32
32
31
31
31
31
31
31
31
31
31
31
31
31
31
31
30
30
30
30
30
30
29
29
29
29
29
29
29
29
29
29
29
30
30
30
30
30
30
30
30
31
31
31
31
31
31
31
31
31
31
31
31
32
32
32
32
32
32
32
32
32
32
32
32
32
32
32
32
32
32
32
32
32
32
32
32
32
32
33
33
33
33
33
32
32
32
32
32
32
32
32
32
32
32
32
32
32
32
32
32
32
32
32
32
32
32
32
32
32
32
32
32
32
32
32
32
32
32
32
32
32
32
32
32
32
32
32
32
32
32
32
32
32
32
32
32
32
32
32
32
32
32
32
32
32
31
31
32
32
32
32
32
32
32
31
31
31
32
32
32
32
31
31
31
31
31
31
31
31
31
30
30
30
30
30
30
30
30
30
30
30
29
29
29
29
29
29
29
29
29
29
30
30
30
30
31
31
32
32
33
34
35
36
36
37
38
39
40
41
42
43
44
45
45
46
46
47
47
47
47
47
47
47
48
48
48
48
48
48
49
49
49
50
50
51
51
52
52
53
54
54
55
55
56
56
56
56
56
56
56
56
56
55
55
54
54
53
52
52
51
50
49
48
47
46
45
44
43
42
41
40
39
38
37
36
35
35
34
33
32
32
31
30
30
29
29
29
28
28
28
28
28
28
28
27
27
27
27
27
27
27
27
27
27
26
26
26
25
25
25
24
24
23
23
23
22
22
22
21
21
21
20
20
20
19
19
19
19
19
19
18
18
18
18
18
18
18
18
18
18
18
18
18
18
18
18
18
19
19
19
19
19
19
20
20
20
20
20
20
20
20
20
20
20
20
20
20
19
19
19
18
18
18
18
17
17
17
17
17
17
17
17
18
18
19
19
20
21
21
22
24
26
28
30
33
36
40
43
47
52
56
62
68
75
83
91
100
108
117
126
135
145
155
165
176
186
196
206
215
225
233
240
246
251
255
257
258
257
256
253
249
243
237
229
219
208
197
184
171
157
143
129
115
101
88
75
63
51
40
30
21
13
6
0
-5
-10
-14
-18
-20
-22
-23
-24
-25
-25
-25
-25
-24
-23
-23
-22
-20
-19
-18
-17
-16
-14
-13
-12
-11
-10
-9
-7
-6
-5
-4
-4
-3
-2
-1
-1
0
0
0
1
1
2
2
2
3
3
4
4
4
5
5
5
5
5
5
5
6
6
6
6
6
5
5
5
5
5
5
4
4
4
4
4
4
3
3
3
3
3
3
3
2
2
2
2
2
2
2
2
2
2
2
2
2
2
2
2
2
2
2
2
2
2
2
2
2
2
2
2
2
2
2
2
2
2
2
1
1
1
1
1
1
0
0
0
0
0
0
0
0
0
0
0
0
0
0
0
-1
-1
-1
-1
-1
-1
-1
-1
-2
-2
-2
-2
-3
-3
-3
-3
-3
-3
-3
-3
-3
-3
-4
-4
-4
-5
-5
-6
-6
-6
-7
-7
-7
-8
-8
-9
-9
-10
-10
-11
-11
-12
-12
-12
-13
-13
-13
-14
-14
-14
-14
-14
-15
-15
-15
-15
-16
-16
-16
-16
-16
-16
-16
-16
-16
-16
-16
-16
-16
-16
-16
-16
-16
-16
-16
-16
-15
-15
-15
-14
-14
-14
-13
-13
-12
-12
-11
-10
-10
-9
-9
-8
-7
-6
-6
-5
-4
-4
-3
-2
-2
-1
0
0
0
0
1
2
2
3
3
4
4
5
6
7
8
8
9
10
11
12
13
14
15
16
17
18
19
20
21
22
23
24
24
25
26
27
28
28
29
29
30
30
31
31
31
32
32
32
32
33
33
33
33
33
33
33
33
33
32
32
32
32
32
32
31
31
31
31
31
31
30
30
30
30
30
30
30
30
30
29
29
29
29
29
29
29
29
28
28
28
28
28
28
27
27
27
27
27
27
27
27
26
26
26
26
26
26
26
26
26
26
26
26
26
26
26
26
26
26
26
26
26
26
26
26
26
26
26
26
26
26
26
26
26
26
26
26
26
26
26
26
26
26
26
26
26
26
27
27
27
27
28
28
28
28
28
28
28
28
28
28
28
28
28
28
27
27
27
27
27
27
27
27
27
27
26
26
26
26
26
26
26
26
26
25
25
25
25
25
25
25
25
25
25
25
25
25
25
25
26
26
26
26
26
26
26
26
26
26
26
26
25
25
25
25
25
25
25
25
25
25
25
25
25
25
25
25
25
25
25
25
25
25
26
26
26
26
26
26
26
26
26
25
25
25
25
25
25
24
24
24
24
24
24
24
24
25
25
25
26
27
27
28
29
30
31
31
32
33
34
35
36
37
38
39
40
41
41
42
43
43
44
44
44
45
45
45
46
46
46
46
47
47
47
47
48
48
49
49
50
51
52
52
53
54
55
56
57
57
58
58
59
59
59
59
59
59
59
59
58
58
57
56
55
55
54
53
52
51
50
49
48
47
46
45
43
42
41
40
39
38
37
36
35
34
33
33
32
31
30
29
29
28
27
27
27
26
26
25
25
25
24
24
24
23
23
23
22
22
22
21
21
20
20
20
20
19
19
19
18
18
18
17
17
17
17
17
16
16
16
16
16
16
16
16
16
16
16
16
16
16
16
16
17
17
17
17
17
17
16
16
16
16
16
16
16
16
16
16
16
16
15
15
15
15
16
16
16
16
16
16
16
16
16
16
16
15
15
15
14
14
14
14
13
13
13
13
13
13
13
14
14
15
16
17
19
21
23
26
29
33
37
41
45
50
56
62
69
76
84
93
102
112
122
132
142
152
163
173
184
195
206
216
226
236
244
252
259
264
268
271
273
273
272
270
267
262
256
249
241
231
220
208
196
182
169
155
141
127
114
100
87
75
63
51
41
31
22
14
7
0
-4
-9
-14
-17
-20
-22
-24
-26
-27
-28
-28
-28
-28
-28
-27
-26
-25
-24
-23
-22
-21
-20
-19
-17
-16
-14
-13
-11
-10
-9
-7
-6
-5
-4
-3
-2
-1
0
0
1
1
2
2
2
3
3
3
3
3
3
3
3
2
2
2
2
1
1
1
1
1
1
1
1
1
1
2
2
2
2
2
2
3
3
3
2
2
2
2
2
2
2
1
1
0
0
0
0
0
0
0
-1
-1
-1
-1
-1
-1
-2
-2
-2
-1
-1
-1
-1
-1
-1
-1
-1
0
0
0
0
0
0
0
0
0
0
0
0
0
0
0
0
0
0
0
0
0
0
-1
-1
-1
-1
-1
-2
-2
-2
-3
-3
-3
-3
-4
-4
-5
-5
-5
-6
-6
-6
-6
-7
-7
-7
-7
-7
-8
-8
-8
-8
-9
-9
-9
-10
-10
-11
-11
-12
-12
-12
-13
-13
-14
-14
-15
-15
-16
-16
-17
-18
-18
-19
-19
-20
-20
-20
-21
-21
-21
-22
-22
-23
-23
-23
-23
-23
-23
-23
-23
-23
-23
-23
-23
-23
-23
-23
-23
-22
-22
-22
-22
-22
-22
-22
-22
-21
-21
-21
-21
-21
-20
-20
-19
-19
-19
-18
-17
-17
-16
-15
-15
-14
-13
-12
-12
-11
-10
-9
-8
-7
-7
-6
-5
-4
-4
-3
-2
-1
0
0
0
1
2
3
3
4
5
6
7
8
9
10
11
12
14
15
16
17
19
20
21
22
23
24
25
26
27
27
28
29
30
30
30
31
31
31
32
32
32
32
32
32
32
32
32
32
32
32
32
32
32
32
32
32
31
31
31
31
30
30
30
30
29
29
29
29
29
28
28
28
28
28
28
28
28
27
27
27
27
27
28
28
27
27
27
27
27
27
27
27
27
27
27
27
27
27
27
27
27
27
27
27
27
27
27
27
27
27
27
27
28
28
28
28
28
28
28
28
28
29
29
29
29
29
29
30
30
30
30
30
30
30
30
30
29
29
29
29
29
29
28
28
28
28
28
28
28
28
28
28
28
28
28
28
28
28
28
28
28
28
28
28
27
27
27
27
26
26
26
25
25
25
25
24
24
24
24
24
24
23
23
23
23
23
23
23
23
23
23
23
23
23
23
23
24
24
24
24
24
24
24
24
24
24
24
24
24
24
24
24
24
24
24
24
24
24
24
24
24
24
24
24
25
25
25
25
25
25
25
25
26
26
26
26
26
26
26
26
26
26
26
26
26
26
27
27
28
28
29
30
31
31
32
33
34
35
36
37
38
38
39
40
41
41
42
42
43
43
43
43
44
44
44
44
45
45
45
46
46
46
47
47
48
49
49
50
51
52
53
54
55
56
57
58
59
60
61
62
63
63
64
64
64
64
64
64
64
64
64
63
63
62
61
61
60
59
58
57
56
55
54
53
52
51
50
49
48
46
45
44
43
42
41
40
39
38
37
36
35
35
34
33
33
33
32
32
31
31
30
30
29
29
29
28
28
28
27
27
27
26
26
25
25
25
24
24
24
23
23
23
23
22
22
22
22
21
21
21
21
20
20
20
20
20
20
20
20
20
20
20
20
20
20
20
20
20
20
21
21
21
21
21
21
21
21
21
21
21
21
21
21
21
21
21
21
21
21
21
21
21
21
21
21
20
20
19
19
19
19
18
18
18
18
18
18
18
18
19
20
20
21
22
23
25
27
30
32
36
39
43
47
52
57
62
68
75
83
91
100
109
119
129
139
149
159
169
180
190
201
212
223
233
243
252
259
266
272
277
280
282
282
281
279
275
270
264
257
248
238
226
214
201
187
172
158
143
128
114
100
86
74
61
50
40
30
21
13
6
0
-4
-8
-12
-15
-18
-20
-21
-22
-23
-23
-23
-22
-22
-21
-20
-18
-17
-16
-14
-13
-11
-10
-8
-7
-5
-4
-2
-1
0
0
2
3
3
4
5
6
6
7
7
8
8
8
9
9
9
9
9
9
9
9
9
9
9
9
9
9
9
9
9
9
9
9
9
9
9
9
9
9
9
9
9
10
10
10
11
11
11
11
11
11
11
11
11
11
11
11
11
11
11
11
11
10
10
10
10
10
10
9
9
9
9
9
9
9
9
9
8
8
8
8
8
8
8
8
9
9
9
9
9
9
9
9
9
9
9
9
9
9
9
8
8
8
7
7
6
6
6
5
5
5
4
4
4
3
3
3
3
3
3
2
2
2
2
2
2
1
1
1
1
1
1
1
0
0
0
0
0
0
0
0
-1
-1
-1
-2
-2
-3
-3
-4
-4
-4
-5
-5
-6
-6
-6
-7
-7
-7
-8
-8
-8
-8
-8
-8
-8
-8
-8
-8
-8
-8
-8
-8
-8
-7
-7
-7
-7
-7
-7
-6
-6
-6
-6
-6
-5
-5
-5
-5
-4
-4
-4
-3
-3
-3
-2
-2
-1
-1
0
0
0
0
1
2
3
3
4
5
6
7
8
9
10
11
12
14
15
16
16
17
18
19
20
21
22
23
24
24
25
26
27
27
28
29
29
30
31
32
33
34
35
36
37
38
39
40
40
41
42
43
43
44
45
45
45
46
46
46
47
47
47
47
47
47
47
47
47
47
47
47
47
47
47
47
47
47
47
46
46
46
46
46
46
45
45
45
45
45
45
