# Simple Text Format
# Sampling Rate (Hz):= 1200.00
# Resolution:= 12
# Labels:= ECG	 V2
# Age:=	20
# Gender:=	Feminino
0
0
0
0
0
0
0
0
0
0
0
0
0
0
0
0
0
0
0
0
0
0
0
0
0
0
0
0
0
0
0
0
0
0
0
0
0
0
0
0
0
0
0
0
0
0
0
0
0
0
0
0
0
0
0
0
0
0
0
0
0
0
0
0
0
0
0
0
0
0
0
0
0
0
0
0
0
0
0
0
0
0
0
0
0
0
0
0
0
0
0
0
0
0
0
0
0
0
0
0
0
0
0
0
0
0
0
0
0
0
0
0
0
0
0
0
0
0
0
0
0
0
0
0
0
0
0
0
0
0
0
0
0
0
0
0
0
0
0
0
0
0
0
0
0
0
0
0
0
0
0
0
0
0
0
0
0
0
0
0
0
0
0
0
0
0
0
0
0
0
0
0
0
0
0
0
0
0
0
0
0
0
0
0
0
0
0
0
0
0
0
0
0
0
0
0
0
0
0
0
0
0
0
0
0
0
0
0
0
0
0
0
0
0
0
0
0
0
0
0
0
0
0
0
0
0
0
0
0
0
0
0
0
0
0
0
0
0
0
0
0
0
0
0
0
0
0
0
0
0
0
0
0
0
0
0
0
0
0
0
0
0
0
0
0
0
0
0
0
0
0
0
0
0
0
0
0
0
0
0
0
0
0
0
0
0
0
0
0
0
0
0
0
0
0
0
0
0
0
0
0
0
0
0
0
0
0
0
0
0
0
0
0
0
0
0
0
0
0
0
0
0
0
0
0
0
0
0
0
0
0
0
0
0
0
0
0
0
0
0
0
0
0
0
0
0
0
0
0
0
0
0
0
0
0
0
0
0
0
0
0
0
0
0
0
0
0
0
0
0
0
0
0
0
0
0
0
0
0
0
0
0
0
0
0
0
0
0
0
0
0
0
0
0
0
0
0
0
0
0
0
0
0
0
0
0
0
0
0
0
0
0
0
0
0
0
0
0
0
0
0
0
0
0
0
0
0
0
0
0
0
0
0
0
0
0
0
0
0
0
0
0
0
0
0
0
0
0
0
0
0
0
0
0
0
0
0
0
0
0
0
0
0
0
0
0
0
0
0
0
0
0
0
0
0
0
0
0
0
0
0
0
0
0
0
0
0
0
0
0
0
0
0
0
0
0
0
0
0
0
0
0
0
0
0
0
0
0
0
0
0
0
0
0
0
0
0
0
0
0
0
0
0
0
0
0
0
0
0
0
0
0
0
0
0
0
0
0
0
0
0
0
0
0
0
0
0
0
0
0
0
0
0
0
0
0
0
0
0
0
0
0
0
0
0
0
0
0
0
0
0
0
0
0
0
0
0
0
0
0
0
0
0
0
0
0
0
0
0
0
0
0
0
0
0
0
0
0
0
0
0
0
0
0
0
0
0
0
0
0
0
0
0
0
0
0
0
0
0
0
0
0
0
0
0
0
0
0
0
0
0
0
0
0
0
0
0
0
0
0
0
0
0
0
0
0
0
0
0
0
0
0
0
0
0
0
0
0
0
0
0
0
0
0
0
0
0
0
0
0
0
0
0
0
0
0
0
0
0
0
0
0
0
0
0
0
0
0
0
0
0
0
0
0
0
0
0
0
0
0
0
0
0
0
0
0
0
0
0
0
0
0
0
0
0
0
0
0
0
0
0
0
0
0
0
0
0
0
0
0
0
0
0
0
0
0
0
0
0
0
0
0
0
0
0
0
0
0
0
0
0
0
0
0
0
0
0
0
0
0
0
0
0
0
0
0
0
0
0
0
0
0
0
0
0
0
0
0
0
0
0
0
0
0
0
0
0
0
0
0
0
0
0
0
0
0
0
0
0
0
0
0
0
0
0
0
0
0
0
0
0
0
0
0
0
0
0
0
0
0
0
0
0
0
0
0
0
0
0
0
0
0
0
0
0
0
0
0
0
0
0
0
0
0
0
0
0
0
0
0
0
0
0
0
0
0
0
0
0
0
0
0
0
0
0
0
0
0
0
0
0
0
0
0
0
0
0
0
0
0
0
0
0
0
0
0
0
0
0
0
0
0
0
0
0
0
0
0
0
0
0
0
0
0
0
0
0
0
0
0
0
0
0
0
0
0
0
0
0
0
0
0
0
0
0
0
0
0
0
0
0
0
0
0
0
0
0
0
0
0
0
0
0
0
0
0
0
0
0
0
0
0
0
0
0
0
0
0
0
0
0
0
0
0
0
0
0
0
0
0
0
0
0
0
0
0
0
0
0
0
0
0
0
0
0
0
0
0
0
0
0
0
0
0
0
0
0
0
0
0
0
0
0
0
0
0
0
0
0
0
0
0
0
0
0
0
0
0
0
0
0
0
0
0
0
0
0
0
0
0
0
0
0
0
0
0
0
0
0
0
0
0
0
0
0
0
0
0
0
0
0
0
0
0
0
0
0
0
0
0
0
0
0
0
0
0
0
0
0
0
0
0
0
0
0
0
0
0
0
0
0
0
0
0
0
0
0
0
0
0
0
0
0
0
0
0
0
0
0
0
0
0
0
0
0
0
0
0
0
0
0
0
0
0
0
0
0
0
0
0
0
0
0
0
0
0
0
0
0
0
0
0
0
0
0
0
0
0
0
0
0
0
0
0
0
0
0
0
0
0
0
0
0
0
0
0
0
0
0
0
0
0
0
0
0
0
0
0
0
0
0
-53
-53
-53
-53
-53
-53
-53
-53
-53
-53
-53
-53
-54
-54
-54
-54
-54
-53
-53
-53
-53
-54
-54
-54
-53
-54
-54
-54
-55
-54
-54
-54
-54
-55
-54
-55
-54
-55
-54
-55
-55
-55
-56
-55
-56
-55
-55
-56
-56
-55
-56
-56
-56
-56
-57
-57
-57
-57
-58
-58
-58
-59
-60
-59
-60
-60
-60
-61
-61
-62
-62
-62
-62
-63
-63
-63
-64
-64
-64
-64
-64
-64
-64
-64
-63
-63
-63
-62
-63
-62
-62
-62
-61
-61
-61
-60
-59
-59
-59
-58
-58
-58
-59
-58
-58
-58
-59
-59
-58
-58
-59
-59
-59
-59
-59
-59
-60
-60
-59
-60
-59
-60
-60
-60
-60
-60
-59
-60
-60
-60
-60
-59
-60
-60
-60
-60
-60
-60
-60
-60
-61
-60
-61
-61
-61
-60
-61
-61
-61
-60
-61
-61
-61
-61
-61
-61
-62
-62
-61
-62
-62
-62
-62
-62
-62
-62
-62
-62
-62
-62
-62
-62
-62
-62
-62
-61
-61
-61
-61
-61
-62
-62
-62
-62
-62
-62
-62
-62
-62
-62
-62
-63
-63
-62
-62
-62
-61
-61
-60
-59
-59
-57
-55
-53
-51
-48
-45
-42
-38
-34
-30
-25
-19
-14
-9
-3
4
12
19
26
33
41
49
56
63
70
76
82
86
90
93
94
94
91
88
82
75
66
55
41
28
11
-6
-25
-45
-66
-87
-109
-132
-153
-174
-194
-213
-230
-245
-259
-271
-281
-289
-295
-298
-301
-300
-298
-293
-287
-280
-270
-260
-248
-235
-222
-207
-193
-178
-163
-147
-133
-119
-106
-92
-79
-68
-59
-49
-41
-34
-28
-22
-17
-14
-12
-10
-9
-10
-10
-11
-12
-14
-16
-19
-21
-23
-24
-26
-28
-30
-32
-34
-35
-36
-38
-40
-40
-43
-44
-46
-47
-48
-49
-50
-52
-53
-55
-55
-57
-57
-58
-59
-60
-61
-61
-62
-62
-62
-62
-63
-63
-62
-62
-62
-62
-62
-62
-62
-62
-62
-62
-62
-62
-62
-63
-63
-63
-63
-63
-63
-62
-62
-63
-63
-63
-63
-64
-64
-63
-63
-63
-63
-63
-63
-63
-63
-63
-62
-62
-63
-63
-63
-63
-63
-63
-63
-62
-62
-62
-62
-63
-63
-63
-63
-63
-63
-63
-63
-63
-63
-62
-62
-62
-62
-62
-62
-62
-62
-62
-62
-62
-63
-62
-62
-62
-62
-61
-61
-62
-61
-61
-61
-61
-60
-60
-60
-61
-60
-60
-60
-60
-60
-60
-60
-59
-59
-59
-59
-59
-60
-59
-59
-59
-59
-58
-58
-58
-57
-58
-57
-57
-56
-56
-56
-55
-55
-54
-55
-54
-54
-54
-53
-53
-53
-53
-52
-52
-51
-52
-51
-51
-50
-50
-49
-50
-49
-48
-49
-48
-48
-48
-47
-47
-47
-47
-47
-47
-47
-47
-47
-46
-46
-47
-47
-46
-47
-46
-47
-47
-47
-47
-48
-48
-47
-48
-48
-49
-49
-48
-49
-49
-49
-49
-50
-50
-49
-50
-50
-51
-51
-51
-51
-51
-52
-52
-53
-54
-53
-54
-54
-54
-55
-55
-56
-55
-56
-56
-56
-57
-57
-57
-59
-59
-59
-60
-60
-61
-61
-61
-62
-62
-62
-63
-63
-63
-64
-64
-65
-66
-66
-66
-67
-67
-67
-67
-67
-67
-67
-67
-68
-68
-67
-68
-68
-68
-68
-67
-67
-68
-68
-68
-68
-68
-68
-68
-68
-68
-68
-68
-68
-68
-68
-69
-69
-68
-68
-68
-69
-68
-68
-69
-69
-69
-68
-68
-68
-69
-69
-69
-69
-69
-69
-69
-69
-69
-69
-69
-70
-70
-70
-70
-71
-71
-71
-71
-71
-72
-72
-72
-72
-72
-72
-72
-72
-72
-72
-72
-72
-72
-72
-72
-72
-72
-72
-72
-72
-72
-72
-72
-72
-72
-72
-72
-72
-72
-72
-72
-71
-71
-72
-72
-72
-72
-72
-72
-72
-72
-72
-72
-71
-71
-71
-72
-72
-72
-72
-71
-71
-71
-71
-71
-71
-71
-70
-70
-70
-70
-70
-70
-69
-69
-69
-69
-69
-69
-68
-68
-68
-68
-68
-68
-68
-67
-67
-67
-68
-68
-67
-67
-67
-67
-67
-67
-66
-65
-65
-65
-65
-65
-65
-65
-65
-64
-65
-65
-65
-65
-65
-64
-64
-64
-64
-64
-64
-64
-64
-64
-64
-64
-64
-64
-64
-65
-65
-64
-64
-64
-64
-64
-64
-64
-64
-64
-64
-64
-64
-64
-64
-64
-64
-64
-65
-64
-64
-64
-64
-64
-64
-64
-64
-65
-65
-65
-64
-64
-64
-64
-65
-65
-65
-65
-65
-66
-65
-65
-65
-65
-65
-65
-65
-65
-65
-65
-66
-66
-66
-65
-65
-65
-65
-65
-65
-65
-65
-65
-65
-66
-65
-65
-66
-65
-66
-65
-66
-65
-66
-66
-66
-66
-66
-66
-67
-66
-67
-68
-67
-68
-67
-68
-69
-70
-69
-70
-70
-71
-72
-73
-73
-74
-74
-75
-76
-76
-77
-78
-78
-78
-79
-79
-80
-80
-79
-80
-79
-79
-79
-78
-78
-78
-77
-77
-76
-75
-75
-74
-73
-73
-73
-72
-72
-71
-70
-69
-69
-69
-68
-69
-68
-68
-68
-68
-68
-68
-68
-69
-68
-68
-69
-68
-69
-69
-69
-69
-70
-69
-70
-70
-70
-70
-70
-70
-70
-70
-71
-70
-71
-71
-71
-72
-71
-71
-72
-72
-72
-72
-72
-72
-73
-72
-72
-72
-72
-73
-73
-73
-73
-73
-73
-73
-73
-73
-73
-73
-73
-73
-73
-73
-73
-73
-73
-73
-73
-73
-73
-72
-73
-73
-73
-73
-73
-73
-73
-73
-73
-73
-73
-73
-73
-73
-73
-73
-73
-73
-73
-73
-73
-73
-72
-71
-70
-68
-66
-64
-63
-60
-58
-54
-50
-46
-41
-35
-30
-24
-18
-12
-5
2
10
17
26
35
43
52
61
69
77
84
91
96
100
103
104
105
102
98
91
83
73
61
46
30
13
-7
-27
-49
-73
-96
-121
-144
-168
-190
-212
-232
-250
-267
-281
-293
-304
-311
-317
-320
-321
-320
-317
-312
-305
-296
-286
-275
-262
-249
-235
-219
-204
-189
-174
-159
-144
-130
-117
-104
-92
-81
-72
-63
-55
-49
-43
-38
-35
-33
-30
-29
-28
-28
-28
-29
-31
-32
-33
-34
-36
-38
-40
-41
-43
-45
-47
-48
-50
-50
-52
-54
-55
-55
-58
-59
-60
-61
-62
-63
-64
-65
-66
-67
-68
-68
-69
-69
-70
-70
-71
-71
-71
-71
-72
-72
-72
-72
-72
-72
-71
-71
-72
-72
-72
-72
-72
-72
-71
-71
-71
-71
-71
-71
-71
-71
-70
-70
-70
-70
-70
-70
-71
-71
-71
-71
-71
-71
-70
-70
-71
-71
-71
-70
-71
-71
-71
-71
-70
-70
-71
-71
-71
-71
-71
-71
-72
-71
-71
-71
-71
-70
-70
-71
-70
-70
-70
-69
-69
-70
-70
-69
-69
-69
-69
-68
-68
-68
-68
-68
-68
-68
-68
-68
-68
-68
-68
-68
-68
-68
-68
-68
-68
-67
-67
-68
-68
-68
-67
-67
-67
-67
-66
-66
-67
-66
-66
-66
-65
-65
-65
-64
-64
-64
-64
-64
-63
-63
-62
-62
-63
-62
-62
-61
-61
-61
-60
-60
-60
-59
-59
-58
-58
-58
-58
-58
-58
-56
-56
-57
-56
-56
-56
-54
-55
-55
-54
-54
-54
-52
-52
-52
-52
-52
-52
-52
-52
-52
-51
-51
-51
-51
-52
-51
-51
-52
-51
-51
-52
-52
-52
-52
-52
-52
-52
-53
-53
-53
-53
-54
-53
-54
-54
-54
-55
-55
-55
-56
-56
-56
-56
-57
-57
-58
-58
-58
-59
-58
-59
-59
-60
-60
-60
-61
-62
-63
-62
-63
-63
-64
-64
-65
-65
-66
-66
-67
-67
-67
-68
-68
-69
-69
-70
-70
-71
-70
-71
-71
-71
-72
-72
-72
-72
-73
-73
-72
-72
-72
-72
-72
-72
-72
-72
-73
-73
-73
-73
-73
-73
-73
-73
-73
-73
-74
-74
-74
-74
-74
-73
-73
-74
-74
-74
-74
-74
-74
-75
-75
-75
-74
-75
-75
-75
-76
-76
-76
-76
-76
-76
-76
-77
-77
-77
-78
-78
-78
-78
-78
-78
-78
-79
-79
-79
-79
-79
-79
-79
-79
-79
-79
-79
-78
-78
-79
-79
-79
-79
-79
-79
-79
-79
-80
-80
-80
-80
-79
-79
-79
-79
-79
-79
-78
-79
-79
-78
-78
-78
-78
-77
-77
-78
-78
-77
-77
-77
-77
-77
-77
-77
-77
-77
-77
-77
-76
-75
-75
-75
-75
-75
-75
-75
-75
-75
-75
-75
-75
-75
-75
-74
-74
-74
-74
-73
-73
-74
-74
-74
-73
-73
-72
-72
-72
-72
-72
-72
-72
-71
-72
-72
-71
-71
-71
-70
-70
-70
-70
-70
-69
-70
-70
-70
-70
-69
-69
-69
-68
-68
-68
-68
-68
-68
-68
-68
-68
-69
-69
-69
-69
-69
-69
-68
-68
-68
-68
-69
-69
-68
-68
-69
-69
-69
-69
-69
-69
-69
-69
-69
-69
-69
-69
-69
-70
-70
-70
-69
-69
-70
-70
-70
-70
-70
-70
-70
-70
-70
-70
-70
-70
-70
-70
-71
-71
-71
-71
-71
-71
-71
-71
-71
-72
-72
-72
-72
-72
-72
-72
-72
-72
-72
-72
-72
-72
-72
-72
-72
-72
-73
-73
-73
-73
-73
-73
-73
-73
-73
-73
-73
-73
-73
-73
-73
-73
-73
-73
-73
-73
-73
-72
-72
-73
-72
-72
-73
-72
-72
-73
-72
-72
-73
-72
-72
-73
-72
-73
-73
-73
-73
-73
-74
-73
-73
-74
-73
-74
-74
-74
-74
-75
-75
-75
-77
-77
-77
-77
-78
-78
-79
-79
-79
-80
-80
-81
-80
-81
-81
-82
-81
-82
-82
-81
-82
-82
-82
-81
-81
-81
-80
-81
-80
-79
-78
-78
-77
-77
-76
-75
-75
-74
-74
-73
-73
-72
-72
-71
-71
-70
-71
-70
-70
-70
-70
-69
-70
-70
-69
-70
-70
-71
-71
-71
-72
-71
-71
-72
-72
-72
-73
-73
-73
-72
-73
-73
-73
-74
-74
-73
-74
-74
-74
-74
-75
-75
-75
-76
-76
-76
-76
-76
-76
-77
-77
-77
-77
-77
-77
-77
-77
-77
-77
-77
-77
-77
-77
-77
-77
-77
-77
-77
-77
-77
-77
-77
-77
-77
-77
-77
-77
-77
-77
-77
-77
-77
-78
-78
-78
-78
-78
-78
-78
-78
-78
-77
-77
-77
-77
-77
-77
-77
-77
-76
-76
-75
-75
-73
-71
-69
-67
-64
-61
-58
-54
-50
-45
-40
-35
-28
-22
-15
-8
0
8
16
24
33
42
51
61
69
78
86
94
101
106
111
113
114
113
111
105
97
88
77
63
47
29
10
-11
-34
-58
-84
-109
-134
-160
-184
-207
-230
-250
-268
-285
-299
-311
-319
-326
-331
-333
-332
-330
-325
-318
-310
-300
-289
-276
-262
-247
-231
-216
-200
-184
-169
-154
-141
-126
-113
-101
-91
-81
-72
-63
-56
-50
-45
-42
-38
-36
-35
-34
-35
-35
-36
-37
-38
-40
-42
-43
-45
-47
-48
-50
-52
-53
-55
-57
-58
-59
-60
-62
-63
-64
-65
-66
-67
-68
-69
-69
-70
-71
-72
-72
-72
-73
-73
-73
-74
-74
-74
-74
-74
-74
-74
-74
-74
-74
-73
-73
-73
-73
-73
-73
-73
-73
-73
-74
-73
-73
-73
-73
-73
-73
-73
-73
-73
-73
-73
-73
-73
-73
-73
-73
-73
-73
-73
-72
-73
-73
-73
-73
-73
-73
-72
-72
-72
-72
-72
-72
-72
-72
-72
-72
-72
-72
-72
-72
-72
-71
-71
-71
-71
-71
-71
-71
-71
-71
-71
-71
-71
-71
-71
-71
-70
-71
-71
-71
-71
-71
-71
-70
-70
-70
-70
-70
-70
-70
-70
-70
-70
-70
-69
-69
-69
-69
-69
-68
-68
-69
-68
-68
-67
-67
-67
-67
-67
-66
-66
-65
-65
-65
-65
-65
-64
-64
-64
-63
-63
-63
-62
-62
-62
-62
-61
-61
-61
-61
-60
-59
-60
-60
-59
-59
-58
-58
-57
-57
-57
-57
-57
-55
-56
-56
-55
-55
-55
-53
-53
-53
-53
-53
-53
-53
-52
-52
-53
-53
-52
-52
-52
-53
-53
-52
-52
-53
-53
-52
-53
-53
-53
-53
-54
-53
-53
-54
-54
-53
-54
-54
-55
-55
-55
-55
-56
-56
-57
-56
-57
-57
-58
-59
-59
-60
-59
-60
-61
-61
-61
-62
-62
-62
-63
-63
-63
-64
-64
-64
-65
-65
-66
-66
-67
-67
-68
-68
-69
-69
-70
-70
-71
-71
-71
-72
-72
-72
-73
-72
-72
-73
-73
-73
-74
-73
-73
-73
-74
-74
-74
-74
-74
-74
-74
-74
-74
-74
-74
-74
-74
-75
-74
-74
-74
-74
-75
-74
-74
-74
-75
-75
-74
-75
-75
-75
-75
-75
-76
-76
-76
-76
-76
-76
-77
-77
-76
-76
-76
-77
-77
-77
-77
-78
-78
-78
-78
-78
-78
-78
-79
-79
-79
-79
-79
-79
-78
-79
-79
-79
-79
-79
-79
-79
-79
-79
-79
-79
-79
-80
-80
-80
-80
-80
-80
-80
-80
-80
-80
-79
-79
-79
-79
-79
-79
-79
-79
-79
-78
-78
-78
-78
-78
-78
-78
-78
-78
-78
-78
-78
-78
-78
-77
-77
-77
-77
-77
-77
-77
-77
-77
-76
-76
-76
-76
-76
-76
-76
-75
-75
-75
-74
-74
-74
-74
-73
-73
-73
-72
-72
-73
-73
-73
-72
-72
-72
-72
-72
-72
-72
-70
-70
-71
-71
-71
-71
-70
-70
-70
-70
-70
-69
-69
-69
-69
-69
-69
-69
-69
-69
-69
-69
-69
-69
-69
-69
-69
-69
-69
-69
-69
-69
-69
-69
-69
-69
-70
-70
-70
-70
-70
-70
-70
-70
-69
-69
-69
-70
-70
-70
-70
-70
-70
-70
-70
-70
-70
-70
-70
-70
-70
-71
-71
-71
-71
-71
-71
-71
-71
-71
-71
-71
-71
-71
-71
-71
-71
-71
-71
-71
-71
-72
-72
-72
-72
-72
-72
-73
-73
-73
-73
-73
-73
-73
-73
-73
-73
-73
-73
-73
-73
-73
-73
-73
-73
-73
-73
-73
-73
-73
-73
-73
-73
-74
-74
-74
-74
-74
-74
-74
-74
-74
-74
-74
-74
-74
-73
-73
-73
-73
-73
-74
-73
-73
-73
-73
-73
-73
-73
-73
-72
-72
-73
-73
-72
-72
-73
-72
-73
-72
-72
-73
-72
-73
-73
-73
-73
-73
-73
-73
-73
-72
-73
-73
-73
-73
-74
-74
-74
-73
-73
-74
-74
-74
-74
-74
-74
-74
-74
-74
-75
-75
-75
-75
-76
-76
-76
-76
-77
-77
-76
-77
-77
-78
-77
-77
-77
-77
-77
-77
-77
-77
-77
-77
-76
-76
-75
-74
-75
-73
-73
-72
-72
-71
-71
-70
-70
-69
-69
-69
-68
-68
-68
-68
-68
-68
-68
-68
-68
-69
-69
-69
-69
-69
-70
-70
-70
-70
-71
-71
-71
-71
-72
-72
-71
-72
-72
-72
-72
-72
-73
-72
-72
-72
-73
-73
-73
-73
-73
-74
-74
-74
-74
-74
-74
-75
-75
-75
-75
-75
-75
-74
-74
-74
-74
-75
-75
-75
-75
-75
-75
-75
-74
-75
-75
-75
-75
-75
-75
-75
-76
-76
-76
-76
-76
-76
-75
-75
-75
-76
-76
-76
-76
-75
-75
-75
-75
-76
-76
-75
-75
-75
-75
-75
-73
-73
-72
-71
-69
-68
-66
-64
-61
-58
-55
-52
-48
-44
-38
-33
-27
-21
-14
-6
2
9
17
26
35
44
54
63
72
82
90
98
105
111
116
119
121
121
117
114
106
96
86
72
56
39
19
-2
-25
-49
-75
-101
-126
-153
-177
-202
-224
-245
-264
-281
-296
-309
-319
-327
-332
-335
-334
-333
-329
-323
-314
-305
-294
-282
-267
-253
-238
-222
-207
-190
-175
-160
-145
-131
-117
-105
-93
-83
-74
-66
-57
-51
-46
-42
-38
-35
-34
-33
-33
-34
-34
-35
-37
-39
-40
-42
-43
-44
-46
-48
-49
-51
-52
-53
-54
-56
-57
-58
-59
-60
-62
-62
-63
-64
-65
-66
-66
-67
-67
-68
-69
-69
-69
-70
-70
-71
-70
-70
-70
-70
-70
-70
-70
-70
-70
-70
-70
-70
-70
-70
-70
-70
-70
-70
-70
-69
-69
-69
-69
-68
-68
-68
-68
-69
-69
-69
-69
-68
-68
-68
-68
-68
-68
-68
-67
-67
-67
-67
-67
-67
-67
-67
-67
-67
-67
-67
-67
-67
-67
-66
-66
-66
-66
-66
-66
-66
-65
-66
-66
-65
-65
-65
-66
-65
-65
-65
-65
-64
-64
-64
-64
-64
-64
-64
-64
-64
-63
-63
-63
-64
-64
-64
-64
-64
-64
-63
-63
-63
-63
-63
-63
-63
-63
-63
-63
-62
-62
-62
-61
-61
-61
-61
-60
-60
-59
-60
-59
-59
-58
-58
-58
-58
-57
-57
-57
-56
-56
-55
-55
-56
-55
-55
-55
-54
-54
-54
-53
-53
-53
-52
-52
-52
-51
-51
-51
-51
-50
-50
-50
-50
-49
-49
-49
-49
-48
-48
-48
-48
-48
-48
-48
-48
-47
-47
-47
-47
-47
-47
-47
-47
-46
-47
-47
-47
-47
-47
-48
-48
-48
-47
-48
-48
-48
-49
-49
-50
-50
-49
-50
-51
-51
-51
-51
-52
-51
-52
-52
-53
-53
-53
-54
-54
-55
-55
-56
-56
-57
-56
-57
-57
-58
-58
-58
-59
-59
-60
-61
-60
-61
-61
-62
-62
-63
-62
-63
-63
-63
-64
-64
-64
-65
-64
-65
-65
-65
-65
-65
-66
-66
-66
-65
-65
-65
-65
-65
-65
-65
-65
-65
-65
-65
-65
-65
-65
-65
-64
-65
-65
-65
-64
-64
-65
-65
-65
-65
-64
-64
-64
-65
-64
-64
-64
-64
-65
-65
-64
-64
-64
-64
-64
-65
-65
-65
-65
-65
-65
-65
-65
-65
-65
-66
-66
-66
-66
-66
-67
-67
-67
-67
-67
-67
-68
-68
-68
-68
-67
-67
-68
-68
-68
-68
-67
-67
-67
-67
-67
-67
-67
-66
-66
-67
-66
-66
-66
-66
-66
-66
-66
-66
-66
-66
-66
-65
-65
-65
-65
-65
-65
-65
-64
-64
-64
-64
-64
-64
-64
-63
-63
-63
-63
-63
-63
-63
-63
-63
-63
-63
-62
-62
-62
-62
-61
-61
-61
-61
-60
-60
-60
-59
-59
-59
-59
-59
-58
-59
-59
-59
-59
-58
-58
-58
-58
-58
-58
-57
-57
-57
-57
-57
-57
-57
-57
-57
-57
-57
-57
-57
-57
-57
-56
-56
-56
-56
-56
-56
-56
-56
-56
-56
-55
-55
-55
-55
-55
-56
-56
-56
-56
-56
-56
-56
-56
-56
-56
-56
-57
-57
-57
-57
-57
-57
-57
-57
-57
-59
-59
-59
-59
-59
-59
-59
-59
-59
-59
-59
-58
-58
-58
-58
-59
-59
-59
-59
-59
-59
-59
-59
-60
-60
-60
-60
-60
-60
-60
-60
-60
-60
-60
-60
-60
-60
-60
-61
-60
-61
-60
-61
-60
-61
-60
-60
-60
-60
-60
-60
-60
-60
-60
-61
-60
-60
-61
-61
-60
-60
-61
-61
-61
-60
-61
-62
-62
-62
-62
-63
-64
-63
-64
-65
-66
-66
-67
-68
-67
-68
-68
-69
-70
-70
-70
-70
-70
-71
-71
-71
-71
-71
-70
-70
-70
-70
-69
-69
-68
-68
-67
-66
-67
-66
-66
-65
-64
-64
-63
-64
-63
-62
-63
-62
-62
-61
-62
-61
-62
-61
-62
-61
-62
-61
-61
-61
-61
-62
-61
-61
-61
-62
-61
-61
-62
-61
-62
-61
-62
-62
-62
-62
-62
-62
-63
-63
-63
-63
-64
-64
-64
-63
-64
-64
-64
-64
-65
-65
-65
-65
-65
-65
-64
-65
-65
-65
-65
-65
-65
-65
-65
-65
-65
-65
-65
-65
-65
-65
-65
-65
-65
-66
-66
-66
-66
-66
-66
-66
-66
-65
-65
-65
-65
-65
-65
-65
-65
-65
-65
-65
-65
-66
-66
-66
-66
-66
-65
-65
-64
-64
-62
-61
-59
-57
-55
-53
-50
-47
-43
-39
-35
-30
-25
-19
-13
-6
0
6
13
20
29
36
44
52
60
67
73
80
85
89
93
96
96
96
93
88
82
73
64
51
37
22
5
-13
-33
-53
-75
-96
-119
-142
-162
-184
-203
-222
-238
-252
-266
-277
-286
-293
-298
-301
-303
-301
-298
-293
-287
-278
-269
-259
-246
-234
-220
-206
-192
-178
-163
-148
-134
-120
-107
-94
-82
-71
-61
-51
-43
-36
-30
-25
-22
-18
-16
-14
-13
-13
-14
-15
-15
-17
-18
-20
-23
-25
-27
-27
-29
-31
-33
-35
-36
-37
-39
-41
-42
-44
-45
-46
-47
-49
-50
-51
-53
-54
-55
-55
-57
-58
-59
-59
-60
-61
-61
-61
-62
-62
-62
-63
-62
-62
-62
-62
-62
-62
-62
-62
-62
-61
-61
-61
-62
-62
-62
-62
-61
-61
-61
-61
-61
-61
-61
-61
-61
-61
-61
-61
-61
-61
-61
-61
-61
-62
-62
-62
-62
-62
-62
-62
-61
-62
-62
-62
-62
-62
-62
-62
-62
-62
-62
-62
-61
-61
-61
-61
-62
-62
-62
-61
-61
-61
-61
-61
-61
-61
-61
-61
-61
-60
-60
-60
-60
-60
-60
-60
-59
-60
-60
-60
-60
-60
-59
-59
-59
-59
-58
-59
-59
-58
-58
-58
-58
-57
-57
-58
-58
-57
-57
-57
-57
-57
-56
-56
-56
-56
-56
-55
-55
-55
-55
-55
-55
-54
-54
-53
-54
-53
-53
-52
-52
-52
-52
-51
-51
-52
-51
-51
-50
-50
-49
-49
-49
-50
-49
-49
-49
-48
-48
-48
-48
-47
-47
-47
-47
-47
-47
-47
-47
-47
-47
-46
-46
-46
-46
-46
-47
-47
-47
-47
-48
-48
-48
-48
-49
-49
-49
-49
-49
-50
-50
-50
-50
-50
-50
-51
-51
-51
-52
-51
-51
-52
-52
-52
-52
-53
-53
-54
-54
-54
-54
-55
-55
-55
-56
-56
-57
-57
-58
-58
-59
-59
-60
-60
-61
-62
-61
-61
-62
-62
-62
-63
-63
-63
-63
-64
-64
-64
-64
-64
-65
-64
-65
-66
-65
-66
-66
-65
-66
-66
-66
-66
-66
-65
-65
-65
-65
-65
-65
-65
-65
-64
-65
-65
-64
-64
-64
-64
-64
-64
-63
-63
-63
-64
-63
-63
-63
-63
-64
-63
-63
-63
-63
-63
-63
-63
-63
-63
-63
-63
-63
-64
-64
-64
-64
-64
-64
-64
-64
-64
-64
-64
-64
-64
-65
-65
-65
-65
-65
-65
-65
-65
-65
-65
-66
-65
-65
-65
-65
-65
-64
-65
-65
-65
-64
-64
-64
-64
-64
-64
-64
-63
-63
-63
-63
-63
-63
-63
-63
-64
-64
-64
-63
-63
-63
-64
-64
-64
-64
-63
-63
-63
-63
-63
-63
-63
-63
-62
-62
-62
-62
-62
-62
-62
-62
-61
-61
-61
-61
-61
-61
-61
-60
-61
-61
-60
-60
-60
-59
-59
-60
-59
-59
-59
-59
-59
-59
-59
-59
-58
-58
-58
-58
-58
-58
-58
-58
-58
-58
-58
-58
-57
-57
-57
-57
-56
-56
-57
-57
-56
-56
-56
-56
-56
-56
-55
-56
-56
-56
-55
-55
-55
-55
-55
-55
-55
-55
-55
-55
-55
-55
-55
-55
-54
-54
-55
-55
-55
-55
-55
-55
-55
-55
-55
-55
-56
-56
-56
-56
-56
-56
-55
-56
-56
-56
-56
-55
-55
-55
-56
-56
-56
-56
-56
-56
-56
-56
-56
-56
-55
-56
-55
-55
-56
-56
-56
-55
-56
-56
-56
-56
-57
-56
-56
-57
-56
-56
-56
-57
-56
-56
-56
-57
-57
-56
-57
-57
-57
-58
-57
-57
-58
-58
-59
-58
-59
-59
-60
-59
-60
-61
-61
-62
-62
-63
-63
-64
-64
-65
-66
-67
-67
-68
-68
-68
-68
-69
-69
-69
-69
-69
-68
-69
-69
-68
-67
-68
-67
-66
-65
-65
-64
-63
-63
-62
-61
-61
-60
-60
-59
-59
-59
-59
-58
-59
-58
-58
-59
-58
-58
-59
-59
-59
-60
-59
-60
-60
-60
-61
-60
-61
-60
-61
-61
-62
-61
-62
-61
-62
-61
-62
-61
-62
-61
-62
-61
-61
-62
-62
-61
-62
-62
-62
-61
-62
-62
-62
-62
-63
-63
-63
-63
-62
-62
-62
-62
-62
-62
-62
-62
-62
-62
-62
-62
-64
-64
-64
-63
-63
-63
-63
-64
-64
-64
-63
-64
-64
-64
-64
-65
-65
-64
-64
-64
-64
-64
-64
-64
-64
-64
-65
-65
-64
-64
-63
-63
-61
-61
-59
-56
-55
-52
-50
-47
-43
-40
-36
-31
-27
-22
-15
-9
-4
2
9
17
23
30
38
47
54
62
70
76
82
87
91
94
96
97
96
92
87
80
72
61
48
34
18
1
-17
-37
-59
-81
-103
-126
-148
-170
-191
-210
-229
-244
-260
-273
-283
-292
-298
-303
-306
-306
-304
-300
-294
-286
-278
-268
-256
-243
-229
-215
-200
-185
-170
-155
-140
-126
-111
-99
-86
-74
-63
-54
-45
-37
-31
-26
-21
-17
-14
-13
-12
-12
-12
-13
-13
-15
-17
-19
-20
-22
-24
-26
-28
-30
-30
-33
-34
-35
-38
-39
-40
-42
-43
-45
-46
-47
-48
-49
-51
-52
-53
-54
-55
-55
-57
-58
-58
-58
-59
-60
-59
-60
-60
-61
-61
-61
-61
-61
-61
-61
-61
-61
-61
-61
-61
-61
-61
-61
-61
-61
-60
-60
-60
-60
-60
-60
-60
-60
-60
-59
-59
-60
-60
-60
-60
-60
-60
-59
-59
-59
-59
-59
-59
-59
-60
-60
-59
-59
-59
-59
-59
-59
-59
-59
-59
-59
-59
-60
-59
-59
-59
-59
-59
-60
-60
-60
-60
-59
-59
-60
-60
-60
-60
-60
-60
-60
-60
-60
-59
-59
-60
-60
-59
-59
-59
-59
-58
-58
-58
-58
-58
-58
-58
-57
-57
-57
-57
-57
-57
-57
-57
-56
-56
-56
-56
-56
-56
-55
-55
-55
-54
-54
-55
-54
-53
-54
-53
-53
-53
-52
-52
-51
-52
-51
-51
-50
-50
-50
-50
-49
-49
-48
-48
-47
-47
-46
-46
-46
-45
-45
-45
-44
-44
-44
-44
-43
-43
-43
-43
-43
-42
-42
-42
-42
-43
-43
-42
-42
-42
-42
-43
-43
-42
-42
-43
-43
-43
-43
-43
-43
-43
-44
-44
-44
-44
-45
-45
-45
-45
-45
-46
-46
-46
-46
-47
-46
-47
-47
-48
-47
-48
-48
-49
-49
-50
-50
-50
-50
-51
-51
-51
-52
-52
-53
-54
-54
-55
-56
-55
-56
-56
-57
-57
-58
-58
-58
-59
-59
-60
-59
-60
-60
-60
-60
-61
-61
-61
-61
-62
-61
-62
-62
-62
-62
-63
-62
-62
-63
-63
-63
-63
-62
-62
-62
-63
-63
-62
-63
-62
-62
-62
-63
-62
-62
-62
-62
-61
-61
-61
-61
-61
-61
-61
-61
-60
-60
-61
-61
-61
-61
-61
-61
-61
-61
-61
-61
-62
-62
-62
-62
-62
-61
-62
-62
-62
-62
-62
-62
-62
-63
-63
-63
-63
-63
-63
-63
-63
-63
-63
-63
-63
-63
-63
-63
-63
-63
-63
-63
-63
-63
-63
-64
-64
-63
-63
-63
-63
-63
-63
-63
-63
-62
-62
-62
-62
-62
-62
-62
-62
-62
-62
-61
-61
-61
-61
-61
-61
-61
-61
-61
-61
-61
-60
-60
-60
-60
-60
-60
-60
-60
-60
-60
-60
-60
-60
-59
-59
-59
-59
-58
-58
-58
-58
-58
-57
-57
-58
-58
-57
-57
-57
-56
-56
-56
-55
-56
-56
-56
-55
-54
-54
-55
-55
-55
-55
-55
-55
-54
-54
-54
-54
-54
-54
-54
-54
-54
-54
-54
-54
-54
-54
-54
-54
-54
-53
-54
-54
-54
-54
-54
-54
-53
-53
-53
-54
-54
-54
-54
-54
-53
-53
-53
-53
-53
-53
-53
-53
-54
-54
-54
-54
-54
-54
-54
-54
-55
-55
-55
-55
-55
-56
-56
-56
-56
-56
-56
-56
-56
-56
-56
-56
-56
-56
-57
-57
-57
-57
-57
-57
-57
-57
-57
-57
-57
-57
-57
-57
-56
-56
-57
-56
-57
-56
-57
-56
-56
-57
-56
-56
-57
-57
-57
-56
-57
-57
-58
-58
-58
-59
-59
-59
-60
-60
-60
-60
-61
-61
-62
-63
-64
-63
-65
-64
-65
-65
-66
-67
-67
-67
-68
-69
-69
-70
-69
-70
-70
-71
-71
-71
-71
-72
-72
-72
-71
-71
-71
-70
-71
-70
-69
-69
-68
-68
-67
-67
-66
-66
-65
-65
-65
-63
-63
-62
-63
-62
-62
-61
-62
-61
-61
-61
-61
-61
-61
-61
-61
-62
-62
-62
-62
-63
-63
-62
-63
-63
-63
-64
-63
-64
-64
-64
-65
-64
-64
-65
-64
-65
-66
-65
-65
-66
-65
-66
-66
-66
-66
-66
-66
-66
-67
-67
-67
-67
-66
-67
-67
-67
-68
-68
-68
-68
-68
-68
-68
-68
-68
-68
-68
-68
-68
-68
-68
-68
-68
-68
-69
-69
-69
-68
-68
-68
-68
-68
-68
-68
-68
-68
-68
-68
-68
-68
-68
-68
-68
-68
-68
-68
-68
-67
-66
-65
-64
-63
-61
-59
-56
-53
-50
-46
-42
-38
-33
-28
-22
-15
-8
-1
6
13
21
30
38
47
56
66
74
82
90
97
103
108
112
114
116
114
111
105
98
88
77
63
48
31
12
-9
-31
-54
-78
-102
-126
-151
-174
-196
-218
-237
-254
-269
-284
-294
-303
-309
-314
-317
-316
-314
-310
-304
-296
-287
-276
-264
-250
-236
-222
-207
-192
-176
-161
-146
-132
-118
-105
-94
-82
-72
-63
-55
-48
-42
-37
-32
-29
-27
-25
-24
-24
-24
-25
-25
-27
-28
-29
-31
-32
-34
-36
-38
-39
-41
-43
-44
-46
-47
-48
-50
-51
-52
-53
-54
-56
-57
-58
-59
-60
-61
-62
-62
-63
-63
-64
-64
-65
-65
-65
-66
-66
-66
-66
-66
-66
-66
-66
-66
-66
-66
-66
-66
-66
-66
-66
-66
-66
-66
-66
-66
-66
-66
-66
-66
-66
-66
-66
-66
-66
-66
-66
-65
-65
-65
-66
-66
-66
-66
-66
-66
-65
-65
-65
-65
-65
-65
-66
-66
-66
-66
-66
-66
-66
-66
-66
-66
-66
-66
-66
-66
-65
-65
-65
-65
-65
-65
-64
-65
-65
-65
-65
-64
-64
-64
-64
-63
-63
-63
-63
-63
-62
-62
-62
-62
-62
-62
-62
-62
-63
-63
-63
-63
-63
-62
-61
-61
-61
-61
-61
-61
-61
-61
-61
-60
-60
-60
-60
-60
-59
-59
-60
-59
-59
-58
-58
-58
-57
-58
-57
-57
-56
-56
-56
-55
-55
-55
-54
-54
-53
-53
-53
-53
-53
-53
-51
-51
-51
-51
-51
-51
-50
-50
-49
-48
-48
-48
-48
-47
-47
-47
-47
-47
-46
-46
-46
-46
-46
-46
-46
-46
-46
-46
-46
-46
-46
-46
-46
-47
-47
-47
-47
-47
-47
-48
-48
-48
-49
-48
-49
-50
-50
-50
-51
-51
-51
-52
-51
-52
-52
-53
-53
-54
-55
-54
-55
-55
-55
-56
-56
-56
-56
-57
-58
-58
-59
-59
-60
-60
-60
-61
-61
-62
-62
-63
-63
-63
-64
-64
-65
-64
-65
-66
-65
-66
-66
-66
-66
-67
-67
-67
-68
-68
-67
-67
-68
-69
-68
-68
-68
-69
-69
-69
-69
-69
-69
-69
-69
-69
-69
-69
-70
-70
-70
-69
-69
-69
-69
-70
-70
-70
-70
-70
-71
-71
-70
-70
-70
-70
-70
-71
-71
-71
-71
-71
-72
-72
-71
-71
-72
-72
-72
-72
-72
-72
-73
-73
-73
-73
-73
-73
-73
-73
-73
-74
-74
-74
-74
-74
-75
-74
-74
-75
-75
-75
-75
-75
-76
-75
-75
-75
-75
-75
-75
-75
-75
-75
-75
-75
-75
-75
-74
-74
-74
-74
-74
-74
-74
-73
-73
-73
-73
-73
-73
-72
-72
-72
-72
-72
-72
-71
-71
-71
-72
-72
-72
-71
-71
-71
-71
-71
-71
-71
-70
-70
-69
-69
-69
-69
-69
-68
-68
-68
-68
-68
-68
-68
-68
-68
-68
-68
-67
-67
-67
-67
-67
-66
-66
-66
-65
-65
-65
-65
-65
-65
-64
-65
-65
-65
-64
-64
-64
-64
-64
-64
-64
-64
-64
-63
-64
-64
-64
-64
-64
-64
-64
-63
-63
-63
-63
-63
-63
-63
-63
-64
-64
-64
-64
-64
-64
-64
-65
-65
-64
-64
-64
-65
-65
-65
-65
-65
-65
-65
-65
-65
-65
-65
-65
-66
-66
-65
-65
-65
-65
-65
-66
-66
-66
-66
-66
-66
-66
-66
-66
-66
-66
-66
-66
-66
-66
-66
-66
-66
-67
-67
-67
-67
-66
-66
-66
-67
-67
-66
-66
-66
-67
-67
-67
-67
-67
-67
-67
-67
-66
-66
-66
-67
-67
-67
-67
-67
-67
-67
-67
-67
-67
-67
-67
-66
-66
-66
-66
-66
-66
-66
-66
-66
-66
-65
-66
-65
-66
-65
-65
-65
-66
-65
-65
-65
-65
-65
-65
-65
-65
-66
-65
-66
-65
-65
-66
-66
-66
-66
-66
-66
-67
-67
-67
-68
-67
-68
-68
-69
-69
-69
-69
-69
-70
-70
-71
-71
-72
-72
-72
-73
-72
-72
-73
-72
-72
-72
-72
-72
-71
-71
-70
-70
-69
-68
-67
-67
-65
-64
-64
-63
-62
-60
-60
-59
-59
-58
-58
-58
-58
-57
-58
-58
-58
-58
-59
-59
-60
-59
-60
-60
-61
-61
-62
-62
-63
-63
-63
-64
-64
-64
-65
-65
-65
-65
-65
-64
-65
-65
-65
-65
-65
-65
-65
-66
-66
-66
-66
-67
-67
-67
-67
-68
-68
-68
-68
-68
-68
-69
-68
-68
-68
-68
-69
-69
-68
-68
-68
-69
-69
-68
-68
-68
-68
-68
-68
-68
-67
-67
-68
-68
-68
-68
-68
-68
-68
-68
-68
-68
-68
-68
-68
-68
-68
-68
-68
-68
-68
-68
-68
-68
-68
-68
-67
-66
-65
-64
-62
-60
-57
-55
-52
-49
-45
-41
-37
-31
-25
-19
-12
-5
2
10
17
26
34
44
53
62
72
81
90
98
106
113
118
122
124
126
125
122
117
109
99
87
74
58
39
20
-1
-25
-48
-74
-100
-125
-150
-174
-198
-220
-241
-259
-276
-290
-302
-311
-319
-324
-326
-325
-323
-318
-312
-304
-293
-282
-270
-256
-241
-226
-211
-195
-179
-163
-148
-133
-119
-106
-93
-82
-72
-63
-55
-47
-40
-36
-32
-30
-27
-26
-24
-24
-24
-25
-27
-28
-30
-30
-32
-33
-35
-37
-38
-40
-41
-43
-45
-46
-47
-49
-50
-51
-52
-53
-54
-54
-56
-57
-57
-58
-59
-60
-59
-60
-60
-61
-61
-61
-61
-61
-61
-61
-61
-61
-61
-61
-61
-61
-60
-60
-60
-60
-60
-60
-60
-60
-60
-60
-60
-60
-60
-60
-60
-60
-60
-60
-60
-60
-60
-60
-60
-60
-60
-60
-59
-59
-59
-60
-60
-60
-59
-59
-59
-59
-59
-59
-59
-58
-58
-58
-59
-59
-59
-59
-59
-59
-58
-58
-58
-58
-59
-59
-59
-59
-59
-59
-59
-59
-58
-58
-58
-58
-58
-58
-58
-57
-57
-57
-57
-58
-58
-57
-57
-57
-57
-57
-57
-57
-57
-56
-56
-56
-56
-56
-55
-55
-55
-56
-55
-55
-55
-54
-54
-54
-53
-53
-52
-52
-52
-51
-51
-50
-50
-50
-50
-50
-50
-50
-49
-49
-49
-49
-49
-49
-48
-48
-48
-46
-47
-47
-46
-46
-46
-45
-45
-45
-44
-44
-43
-43
-43
-42
-42
-42
-42
-41
-41
-41
-41
-40
-40
-40
-40
-40
-40
-40
-40
-40
-40
-40
-39
-40
-40
-40
-39
-40
-40
-40
-40
-40
-40
-41
-41
-40
-40
-41
-41
-42
-41
-42
-42
-42
-43
-43
-43
-43
-44
-44
-45
-45
-45
-46
-46
-46
-46
-47
-47
-48
-48
-49
-50
-50
-51
-50
-51
-51
-52
-52
-53
-53
-54
-55
-54
-55
-55
-55
-56
-56
-57
-57
-58
-58
-58
-59
-59
-59
-59
-60
-60
-60
-60
-60
-61
-61
-61
-61
-60
-60
-61
-62
-61
-61
-61
-62
-62
-61
-61
-61
-61
-62
-62
-61
-61
-62
-62
-62
-61
-61
-61
-62
-62
-62
-62
-61
-61
-61
-61
-62
-62
-62
-62
-62
-63
-63
-62
-63
-63
-63
-63
-63
-64
-64
-63
-63
-63
-64
-64
-64
-65
-64
-64
-64
-65
-65
-65
-66
-66
-66
-66
-66
-66
-66
-66
-66
-66
-66
-66
-66
-66
-66
-66
-66
-67
-67
-67
-66
-66
-66
-66
-66
-66
-66
-66
-65
-65
-65
-65
-65
-65
-65
-65
-65
-65
-64
-64
-64
-63
-63
-63
-62
-62
-62
-62
-62
-62
-62
-63
-63
-62
-62
-62
-62
-62
-61
-61
-61
-61
-61
-61
-61
-60
-60
-60
-60
-59
-59
-59
-58
-58
-58
-58
-58
-58
-58
-57
-57
-57
-57
-57
-57
-57
-56
-56
-56
-56
-56
-56
-56
-56
-56
-56
-56
-56
-55
-55
-55
-55
-55
-55
-55
-55
-56
-56
-56
-55
-55
-55
-55
-55
-55
-55
-56
-56
-56
-56
-55
-55
-55
-55
-56
-56
-56
-56
-56
-56
-56
-56
-56
-56
-56
-56
-56
-56
-56
-57
-57
-57
-57
-57
-57
-58
-58
-58
-58
-58
-58
-58
-58
-58
-58
-58
-58
-58
-58
-58
-58
-59
-59
-59
-59
-59
-59
-59
-59
-59
-59
-59
-58
-59
-59
-59
-59
-59
-60
-60
-60
-60
-59
-59
-59
-59
-60
-60
-59
-59
-60
-59
-59
-59
-59
-59
-59
-59
-59
-59
-59
-59
-59
-59
-59
-59
-58
-59
-59
-59
-59
-60
-59
-59
-60
-60
-60
-60
-59
-60
-60
-60
-61
-60
-60
-61
-60
-60
-61
-60
-61
-60
-61
-60
-61
-60
-61
-61
-61
-61
-61
-61
-60
-60
-60
-61
-61
-60
-60
-60
-59
-59
-58
-58
-57
-57
-56
-55
-55
-54
-54
-54
-53
-53
-54
-53
-53
-54
-54
-54
-54
-55
-55
-54
-55
-55
-56
-56
-56
-57
-57
-57
-58
-58
-59
-59
-58
-59
-59
-59
-59
-60
-59
-60
-60
-60
-61
-61
-61
-62
-62
-62
-62
-62
-62
-63
-63
-63
-63
-64
-64
-64
-64
-65
-65
-64
-64
-65
-65
-65
-65
-65
-65
-65
-65
-64
-64
-64
-64
-64
-64
-64
-64
-64
-64
-64
-64
-64
-64
-64
-64
-64
-64
-64
-64
-65
-65
-64
-64
-64
-64
-64
-64
-64
-64
-64
-64
-64
-63
-63
-62
-62
-61
-60
-58
-56
-54
-52
-49
-47
-43
-40
-35
-30
-24
-19
-13
-8
0
7
15
23
33
41
50
60
69
77
86
96
104
110
117
122
126
128
129
127
123
117
110
99
87
73
57
39
20
-3
-25
-50
-75
-101
-126
-151
-175
-198
-220
-240
-258
-274
-288
-300
-309
-315
-320
-322
-322
-320
-315
-308
-300
-291
-279
-266
-253
-239
-223
-208
-191
-177
-161
-146
-131
-118
-105
-93
-81
-71
-62
-54
-46
-42
-36
-32
-29
-26
-25
-24
-23
-24
-25
-27
-28
-30
-31
-33
-35
-36
-38
-38
-39
-41
-42
-44
-45
-46
-47
-48
-49
-49
-51
-52
-52
-53
-54
-55
-55
-56
-56
-56
-57
-57
-58
-58
-58
-59
-59
-59
-59
-59
-60
-59
-59
-59
-59
-59
-59
-59
-59
-59
-59
-59
-58
-58
-58
-57
-57
-58
-58
-58
-58
-57
-57
-57
-57
-57
-56
-56
-56
-56
-55
-55
-55
-55
-55
-55
-55
-54
-55
-55
-55
-55
-55
-55
-55
-55
-55
-55
-55
-54
-54
-54
-54
-55
-55
-55
-55
-55
-55
-55
-55
-55
-55
-55
-55
-55
-55
-55
-55
-55
-54
-54
-54
-54
-53
-53
-53
-54
-53
-53
-53
-53
-52
-52
-53
-53
-53
-52
-52
-52
-52
-52
-52
-51
-51
-51
-51
-50
-51
-51
-51
-50
-49
-49
-49
-49
-49
-49
-49
-48
-48
-48
-47
-47
-47
-47
-46
-46
-46
-46
-45
-45
-45
-44
-44
-43
-43
-43
-42
-43
-43
-42
-42
-42
-41
-41
-40
-40
-40
-39
-39
-39
-39
-39
-39
-38
-38
-38
-37
-37
-37
-37
-37
-36
-36
-36
-36
-36
-36
-36
-36
-36
-36
-37
-37
-36
-36
-36
-37
-36
-37
-37
-38
-37
-38
-38
-38
-39
-38
-39
-39
-40
-40
-40
-41
-40
-41
-41
-41
-42
-43
-42
-43
-44
-44
-44
-44
-45
-45
-46
-47
-47
-48
-48
-49
-49
-49
-49
-50
-50
-51
-50
-51
-52
-51
-52
-53
-52
-53
-53
-53
-53
-53
-54
-54
-53
-54
-54
-54
-54
-55
-55
-54
-54
-54
-54
-55
-55
-55
-55
-55
-55
-55
-55
-55
-55
-55
-55
-54
-54
-55
-55
-55
-54
-55
-55
-54
-55
-55
-55
-55
-55
-55
-55
-55
-55
-55
-55
-55
-55
-55
-55
-55
-56
-57
-57
-57
-57
-57
-57
-57
-58
-58
-58
-58
-58
-58
-58
-59
-58
-58
-59
-59
-59
-58
-58
-58
-58
-58
-59
-59
-59
-59
-59
-59
-59
-59
-58
-58
-58
-58
-59
-58
-58
-58
-58
-58
-58
-58
-58
-58
-58
-58
-58
-58
-57
-56
-56
-56
-56
-56
-56
-56
-56
-56
-56
-55
-55
-55
-55
-54
-54
-54
-53
-53
-53
-53
-52
-52
-53
-52
-52
-52
-52
-51
-50
-50
-50
-50
-49
-49
-49
-49
-49
-49
-49
-49
-49
-49
-49
-48
-48
-48
-48
-48
-48
-48
-48
-48
-48
-48
-47
-47
-47
-47
-47
-47
-47
-47
-47
-47
-46
-47
-47
-46
-46
-46
-47
-46
-46
-46
-46
-46
-46
-46
-46
-46
-46
-46
-46
-46
-46
-47
-47
-47
-47
-47
-47
-47
-48
-48
-48
-48
-48
-48
-48
-48
-48
-49
-49
-49
-49
-50
-49
-49
-50
-50
-50
-51
-50
-50
-51
-51
-51
-51
-51
-51
-51
-51
-51
-51
-51
-51
-51
-51
-51
-50
-50
-50
-50
-50
-50
-50
-50
-50
-50
-50
-50
-50
-50
-49
-50
-50
-49
-50
-49
-49
-49
-49
-49
-50
-49
-49
-49
-49
-49
-49
-50
-49
-49
-50
-50
-50
-51
-51
-50
-51
-51
-51
-51
-51
-52
-51
-52
-51
-52
-52
-52
-52
-52
-52
-53
-54
-53
-54
-53
-54
-54
-54
-54
-54
-54
-54
-54
-54
-53
-53
-52
-53
-52
-51
-52
-51
-50
-50
-50
-49
-49
-47
-47
-47
-47
-47
-47
-47
-47
-47
-46
-47
-47
-48
-48
-49
-49
-49
-50
-50
-51
-51
-51
-51
-52
-52
-52
-53
-52
-53
-53
-53
-53
-53
-53
-52
-53
-52
-53
-53
-52
-53
-53
-53
-54
-53
-53
-54
-54
-54
-55
-55
-55
-55
-56
-56
-56
-56
-56
-56
-57
-57
-56
-56
-56
-56
-56
-56
-56
-56
-56
-57
-57
-57
-56
-56
-56
-56
-56
-56
-56
-56
-56
-56
-56
-56
-56
-56
-56
-56
-56
-56
-56
-56
-56
-56
-56
-56
-56
-55
-55
-54
-53
-52
-50
-49
-47
-45
-42
-39
-36
-32
-29
-25
-19
-16
-9
-3
3
10
17
25
32
41
49
57
66
73
82
89
95
102
107
111
114
115
115
113
109
103
94
85
73
61
45
28
10
-9
-30
-52
-74
-98
-120
-143
-165
-185
-204
-222
-238
-252
-264
-274
-282
-287
-291
-293
-292
-290
-287
-280
-274
-265
-255
-242
-230
-217
-203
-189
-175
-160
-146
-132
-118
-104
-92
-79
-69
-58
-49
-40
-33
-27
-22
-16
-13
-11
-8
-8
-7
-7
-8
-9
-11
-12
-14
-16
-17
-19
-21
-23
-25
-27
-28
-30
-32
-33
-34
-34
-35
-36
-37
-39
-40
-41
-42
-42
-44
-45
-45
-46
-46
-47
-47
-47
-48
-48
-49
-49
-49
-49
-49
-49
-49
-49
-49
-49
-49
-49
-49
-49
-49
-49
-50
-50
-50
-50
-50
-50
-50
-50
-50
-50
-50
-50
-49
-49
-49
-49
-49
-49
-49
-49
-49
-49
-50
-50
-50
-50
-50
-50
-50
-49
-49
-49
-49
-49
-49
-49
-49
-49
-49
-49
-48
-48
-49
-49
-49
-49
-49
-49
-48
-48
-48
-49
-48
-48
-48
-48
-47
-47
-48
-48
-47
-47
-47
-47
-47
-46
-46
-46
-47
-47
-47
-46
-46
-46
-46
-46
-46
-45
-45
-45
-45
-45
-45
-45
-45
-44
-44
-44
-44
-43
-43
-44
-44
-43
-43
-43
-42
-42
-42
-41
-41
-41
-40
-40
-41
-40
-40
-40
-39
-39
-38
-39
-38
-38
-37
-37
-37
-36
-36
-35
-36
-35
-35
-35
-34
-34
-33
-34
-34
-34
-34
-34
-34
-34
-34
-34
-34
-34
-34
-34
-34
-33
-33
-33
-33
-33
-33
-32
-32
-32
-32
-33
-33
-33
-33
-33
-33
-33
-34
-33
-34
-34
-34
-35
-35
-35
-36
-37
-37
-37
-37
-38
-39
-38
-39
-40
-40
-40
-40
-41
-41
-41
-42
-42
-42
-42
-43
-44
-44
-44
-44
-45
-45
-46
-46
-46
-46
-47
-47
-48
-48
-49
-48
-49
-48
-49
-49
-49
-49
-50
-49
-50
-50
-50
-50
-50
-50
-50
-51
-50
-50
-50
-50
-49
-49
-50
-50
-50
-50
-50
-50
-50
-50
-50
-50
-50
-50
-50
-50
-50
-50
-49
-49
-49
-50
-50
-49
-49
-50
-49
-49
-50
-49
-49
-50
-49
-49
-49
-49
-49
-49
-49
-49
-49
-49
-49
-49
-50
-50
-50
-50
-49
-49
-49
-50
-50
-50
-50
-50
-50
-50
-50
-50
-50
-51
-51
-51
-50
-50
-50
-50
-50
-50
-50
-50
-50
-50
-50
-51
-51
-51
-50
-50
-50
-50
-50
-50
-49
-49
-49
-49
-49
-49
-49
-49
-48
-48
-49
-49
-49
-48
-48
-48
-48
-48
-47
-47
-47
-47
-47
-46
-47
-47
-47
-47
-46
-46
-46
-46
-46
-45
-45
-45
-45
-45
-44
-44
-44
-44
-44
-44
-44
-44
-44
-43
-43
-43
-43
-43
-43
-42
-42
-42
-42
-42
-42
-42
-42
-42
-41
-41
-41
-41
-41
-41
-41
-41
-41
-41
-41
-41
-42
-42
-42
-42
-42
-42
-42
-42
-42
-42
-42
-42
-42
-42
-42
-42
-42
-42
-42
-42
-42
-42
-42
-42
-42
-42
-42
-41
-41
-41
-41
-41
-42
-42
-42
-42
-42
-42
-42
-42
-42
-42
-42
-42
-41
-42
-42
-42
-42
-42
-43
-42
-43
-43
-42
-43
-42
-43
-42
-43
-43
-43
-43
-43
-43
-43
-43
-43
-43
-43
-44
-43
-44
-43
-43
-44
-44
-45
-45
-44
-45
-45
-46
-45
-46
-45
-46
-47
-47
-46
-47
-47
-47
-48
-48
-48
-48
-49
-49
-50
-50
-50
-50
-50
-51
-51
-51
-51
-50
-50
-50
-49
-49
-49
-48
-48
-46
-46
-46
-46
-45
-45
-44
-44
-43
-44
-44
-43
-44
-44
-44
-45
-44
-44
-44
-45
-44
-45
-46
-45
-46
-46
-46
-46
-47
-46
-47
-47
-47
-47
-47
-47
-47
-46
-47
-47
-48
-47
-47
-48
-48
-48
-47
-48
-48
-49
-49
-49
-50
-50
-50
-50
-50
-50
-50
-50
-51
-51
-51
-50
-50
-50
-50
-50
-50
-51
-51
-51
-51
-51
-51
-51
-51
-51
-51
-51
-52
-52
-52
-52
-52
-52
-52
-52
-52
-52
-52
-52
-52
-52
-52
-52
-52
-52
-52
-52
-52
-52
-52
-52
-51
-51
-50
-50
-49
-48
-47
-45
-43
-41
-39
-36
-33
-29
-26
-22
-18
-13
-8
-1
4
11
19
25
32
40
48
55
63
71
78
85
90
96
100
103
105
106
105
102
97
91
82
72
60
46
32
15
-3
-22
-42
-64
-86
-108
-130
-152
-172
-191
-209
-226
-240
-253
-264
-273
-280
-285
-288
-289
-288
-285
-280
-273
-265
-256
-244
-233
-219
-206
-191
-178
-163
-147
-133
-118
-104
-91
-79
-66
-56
-45
-37
-29
-21
-16
-11
-6
-4
-2
0
0
0
0
-2
-3
-5
-7
-8
-11
-13
-15
-17
-19
-22
-24
-25
-26
-28
-30
-31
-33
-33
-35
-36
-37
-38
-39
-41
-42
-43
-44
-45
-46
-48
-48
-48
-49
-50
-51
-50
-50
-51
-51
-51
-51
-51
-51
-52
-52
-52
-52
-52
-52
-52
-52
-52
-51
-51
-51
-52
-52
-52
-52
-52
-52
-51
-51
-51
-52
-52
-52
-52
-52
-52
-52
-52
-51
-52
-52
-52
-53
-53
-53
-53
-53
-53
-53
-53
-53
-53
-53
-53
-53
-53
-53
-53
-53
-53
-53
-53
-53
-53
-53
-53
-53
-53
-53
-53
-52
-53
-53
-53
-53
-52
-52
-52
-52
-51
-51
-51
-51
-50
-50
-50
-51
-51
-51
-51
-51
-50
-49
-49
-49
-49
-49
-49
-50
-50
-50
-50
-49
-49
-49
-49
-49
-49
-49
-48
-48
-48
-47
-48
-48
-47
-47
-46
-46
-46
-46
-45
-45
-45
-45
-45
-44
-44
-44
-43
-43
-43
-43
-43
-42
-42
-41
-41
-41
-41
-41
-40
-40
-39
-39
-39
-39
-39
-38
-38
-38
-38
-38
-38
-38
-38
-38
-37
-37
-37
-37
-37
-37
-37
-37
-37
-38
-38
-38
-38
-38
-39
-39
-39
-39
-40
-40
-39
-40
-41
-41
-41
-41
-42
-42
-43
-42
-43
-44
-43
-44
-44
-45
-45
-46
-46
-47
-47
-48
-48
-49
-49
-50
-50
-50
-51
-51
-53
-53
-53
-53
-53
-54
-54
-55
-55
-55
-55
-56
-56
-56
-56
-57
-57
-57
-57
-58
-57
-58
-59
-58
-59
-59
-59
-59
-60
-60
-60
-60
-60
-61
-61
-61
-61
-61
-61
-61
-60
-60
-60
-60
-61
-60
-60
-60
-60
-60
-60
-61
-61
-60
-60
-60
-61
-61
-61
-61
-61
-61
-61
-61
-61
-62
-62
-62
-62
-62
-62
-62
-63
-63
-63
-63
-63
-63
-63
-63
-63
-63
-63
-64
-64
-64
-64
-64
-64
-64
-64
-64
-65
-65
-64
-64
-65
-65
-65
-65
-65
-66
-66
-66
-65
-65
-65
-65
-65
-65
-65
-65
-65
-65
-65
-65
-64
-64
-64
-64
-64
-64
-65
-65
-65
-64
-64
-64
-64
-64
-64
-64
-64
-64
-64
-64
-64
-64
-64
-63
-63
-63
-63
-63
-63
-63
-63
-63
-63
-63
-63
-63
-62
-62
-62
-62
-61
-61
-61
-61
-61
-60
-60
-60
-60
-60
-60
-59
-59
-59
-59
-59
-58
-58
-58
-58
-58
-58
-58
-58
-58
-58
-58
-58
-57
-57
-57
-57
-57
-57
-57
-57
-57
-57
-57
-57
-57
-57
-57
-57
-57
-57
-57
-57
-57
-57
-57
-57
-57
-57
-57
-57
-57
-57
-57
-57
-57
-57
-56
-56
-57
-57
-57
-57
-56
-56
-56
-56
-56
-56
-56
-56
-56
-56
-56
-56
-56
-56
-56
-56
-57
-57
-57
-57
-56
-57
-56
-57
-57
-56
-57
-56
-57
-57
-57
-58
-57
-57
-58
-57
-58
-57
-58
-57
-58
-57
-58
-57
-57
-58
-57
-57
-58
-58
-58
-58
-59
-59
-59
-59
-60
-60
-60
-61
-61
-61
-61
-62
-62
-63
-63
-64
-64
-65
-65
-66
-66
-66
-66
-67
-67
-67
-67
-67
-67
-66
-66
-65
-65
-64
-63
-62
-62
-61
-60
-60
-59
-59
-58
-58
-57
-57
-57
-57
-56
-57
-57
-57
-57
-58
-57
-57
-58
-58
-58
-58
-59
-59
-60
-59
-59
-60
-59
-60
-59
-59
-59
-59
-60
-59
-59
-59
-59
-60
-60
-59
-60
-60
-61
-61
-61
-60
-61
-61
-62
-62
-62
-62
-63
-63
-63
-63
-63
-63
-63
-63
-63
-63
-63
-63
-63
-63
-63
-63
-63
-63
-63
-63
-63
-63
-63
-63
-64
-64
-64
-64
-64
-63
-63
-63
-63
-63
-63
-63
-63
-64
-64
-64
-64
-64
-64
-64
-64
-63
-63
-63
-63
-63
-62
-61
-60
-58
-56
-54
-52
-50
-47
-44
-40
-35
-31
-26
-20
-15
-9
-2
6
13
21
30
38
47
55
64
73
82
90
98
104
110
116
119
122
122
120
116
111
102
92
81
68
52
35
15
-6
-28
-52
-75
-100
-125
-149
-172
-194
-215
-233
-251
-266
-280
-291
-299
-306
-310
-311
-312
-308
-304
-298
-290
-281
-271
-258
-245
-231
-216
-200
-185
-171
-156
-141
-126
-113
-100
-88
-77
-67
-57
-49
-43
-38
-32
-28
-25
-22
-22
-20
-20
-21
-21
-22
-24
-25
-27
-28
-30
-32
-34
-36
-36
-38
-40
-41
-43
-43
-45
-46
-47
-48
-49
-51
-52
-53
-54
-54
-55
-55
-56
-57
-58
-59
-58
-59
-60
-60
-60
-61
-60
-60
-61
-61
-61
-60
-61
-61
-61
-61
-61
-61
-61
-61
-61
-61
-61
-61
-60
-60
-60
-60
-60
-60
-60
-60
-60
-60
-60
-60
-60
-59
-59
-59
-59
-59
-59
-59
-59
-59
-59
-59
-59
-59
-59
-59
-59
-59
-59
-59
-59
-59
-59
-59
-58
-58
-59
-59
-59
-59
-59
-59
-59
-59
-59
-59
-59
-59
-59
-59
-59
-58
-58
-59
-58
-58
-58
-57
-58
-58
-58
-57
-57
-57
-57
-57
-57
-56
-56
-56
-56
-56
-56
-56
-56
-56
-56
-56
-56
-55
-55
-55
-55
-55
-55
-54
-54
-54
-53
-53
-53
-52
-52
-51
-51
-51
-51
-51
-51
-50
-50
-49
-49
-48
-49
-49
-48
-48
-48
-47
-47
-46
-46
-46
-45
-45
-45
-44
-44
-44
-43
-43
-43
-43
-43
-43
-42
-42
-41
-41
-41
-41
-41
-41
-41
-41
-41
-41
-41
-41
-40
-40
-40
-40
-40
-40
-41
-41
-40
-41
-41
-41
-41
-42
-42
-42
-42
-42
-43
-43
-43
-44
-44
-45
-46
-45
-46
-46
-46
-46
-47
-48
-47
-48
-48
-49
-48
-49
-50
-50
-50
-50
-51
-51
-52
-52
-53
-53
-54
-54
-55
-55
-55
-56
-56
-57
-57
-57
-57
-58
-58
-59
-58
-59
-60
-60
-60
-60
-60
-61
-61
-61
-61
-61
-61
-61
-62
-62
-62
-62
-61
-61
-61
-61
-61
-61
-61
-61
-61
-61
-60
-60
-60
-60
-61
-61
-61
-61
-62
-62
-61
-61
-61
-61
-62
-62
-62
-62
-62
-63
-63
-63
-63
-63
-63
-63
-64
-64
-64
-64
-64
-64
-64
-64
-64
-65
-65
-65
-65
-65
-65
-65
-65
-65
-65
-65
-66
-66
-66
-66
-66
-66
-66
-66
-66
-66
-66
-66
-66
-65
-65
-65
-65
-65
-65
-65
-65
-65
-64
-65
-65
-65
-64
-64
-64
-64
-64
-63
-63
-63
-63
-63
-63
-63
-63
-62
-62
-61
-61
-61
-61
-61
-61
-61
-61
-61
-61
-61
-60
-60
-60
-60
-60
-60
-60
-60
-60
-60
-60
-60
-60
-60
-60
-59
-59
-59
-58
-58
-58
-58
-58
-58
-58
-58
-58
-58
-57
-57
-57
-57
-57
-57
-57
-57
-57
-57
-57
-57
-57
-56
-56
-56
-55
-55
-56
-56
-56
-56
-56
-56
-56
-56
-56
-56
-56
-56
-56
-56
-56
-56
-56
-56
-56
-56
-56
-56
-56
-56
-56
-56
-55
-55
-55
-55
-55
-55
-55
-55
-55
-55
-55
-55
-55
-56
-56
-56
-56
-55
-55
-55
-55
-55
-55
-55
-55
-55
-55
-55
-55
-55
-56
-55
-55
-55
-55
-55
-55
-55
-55
-54
-55
-55
-56
-55
-55
-55
-55
-55
-55
-54
-55
-55
-55
-56
-55
-56
-55
-56
-57
-56
-57
-58
-57
-58
-57
-58
-59
-58
-59
-60
-59
-60
-60
-60
-61
-61
-61
-61
-62
-62
-62
-62
-62
-63
-62
-63
-63
-63
-63
-62
-62
-62
-62
-61
-61
-60
-60
-59
-59
-58
-58
-57
-57
-56
-56
-55
-55
-54
-54
-55
-54
-54
-55
-54
-55
-54
-55
-56
-55
-56
-57
-56
-57
-58
-57
-58
-58
-57
-58
-58
-58
-58
-58
-58
-59
-58
-59
-58
-59
-59
-59
-59
-59
-59
-60
-60
-60
-60
-60
-61
-61
-60
-60
-61
-61
-61
-62
-62
-62
-62
-62
-62
-62
-62
-62
-62
-62
-62
-62
-62
-62
-62
-62
-62
-62
-62
-62
-62
-62
-61
-61
-61
-62
-62
-62
-62
-62
-62
-62
-62
-62
-62
-62
-62
-62
-62
-62
-62
-62
-62
-62
-62
-62
-62
-62
-61
-60
-58
-57
-55
-53
-50
-47
-44
-40
-36
-32
-27
-21
-15
-9
-3
5
13
21
29
38
47
56
65
75
83
93
101
108
115
121
126
129
130
130
127
123
116
106
95
82
68
51
31
11
-11
-35
-60
-84
-110
-134
-158
-182
-204
-224
-244
-261
-275
-288
-298
-306
-311
-314
-315
-314
-310
-305
-298
-288
-278
-266
-253
-239
-225
-209
-193
-178
-163
-148
-133
-119
-106
-94
-82
-71
-61
-53
-45
-39
-33
-29
-26
-23
-22
-20
-19
-20
-20
-22
-23
-24
-26
-27
-29
-31
-32
-34
-36
-36
-38
-39
-41
-42
-43
-44
-46
-46
-47
-48
-49
-50
-51
-52
-53
-54
-54
-55
-55
-56
-56
-56
-56
-57
-57
-57
-57
-57
-57
-58
-58
-58
-58
-58
-57
-57
-57
-57
-58
-58
-58
-58
-58
-57
-57
-57
-57
-58
-57
-57
-57
-57
-57
-57
-58
-58
-58
-57
-57
-57
-56
-56
-57
-57
-57
-56
-56
-56
-56
-56
-56
-56
-55
-55
-55
-55
-55
-55
-55
-54
-54
-54
-55
-55
-55
-55
-55
-55
-55
-55
-55
-55
-55
-55
-55
-55
-55
-55
-55
-55
-55
-55
-55
-55
-55
-55
-55
-55
-55
-55
-55
-55
-55
-55
-55
-53
-53
-53
-53
-53
-53
-53
-53
-52
-52
-53
-53
-53
-52
-52
-52
-51
-51
-51
-51
-50
-50
-50
-49
-49
-49
-49
-48
-48
-48
-47
-47
-47
-47
-46
-46
-46
-45
-45
-44
-44
-45
-44
-44
-43
-43
-42
-42
-42
-41
-41
-41
-40
-40
-40
-40
-40
-39
-39
-39
-39
-39
-38
-38
-38
-38
-39
-38
-38
-38
-39
-39
-38
-38
-39
-38
-39
-39
-39
-39
-39
-40
-40
-40
-40
-40
-41
-41
-41
-42
-42
-42
-42
-43
-43
-44
-43
-44
-45
-44
-45
-46
-45
-46
-46
-47
-47
-47
-48
-49
-49
-50
-50
-51
-50
-50
-51
-51
-52
-53
-53
-54
-53
-54
-55
-55
-55
-55
-56
-56
-57
-57
-57
-58
-57
-57
-58
-58
-59
-58
-59
-59
-59
-59
-59
-60
-60
-60
-60
-60
-60
-60
-60
-60
-60
-61
-60
-60
-60
-60
-60
-60
-61
-60
-60
-60
-60
-61
-61
-61
-61
-60
-61
-61
-61
-61
-61
-60
-61
-61
-61
-62
-62
-62
-62
-62
-62
-62
-63
-63
-63
-63
-63
-63
-63
-63
-63
-63
-63
-63
-63
-63
-63
-64
-64
-64
-64
-64
-64
-64
-65
-65
-65
-65
-65
-65
-65
-65
-65
-65
-64
-64
-64
-64
-64
-64
-64
-64
-64
-63
-63
-63
-63
-63
-63
-63
-63
-63
-63
-63
-63
-63
-63
-62
-62
-62
-62
-62
-62
-62
-62
-62
-61
-61
-61
-61
-61
-61
-60
-60
-60
-60
-60
-59
-59
-59
-59
-59
-59
-59
-59
-59
-58
-58
-58
-58
-58
-58
-57
-57
-57
-57
-57
-57
-56
-56
-56
-56
-56
-56
-56
-56
-56
-56
-56
-56
-56
-55
-55
-55
-55
-55
-55
-55
-55
-55
-55
-54
-54
-54
-54
-54
-54
-54
-54
-54
-54
-54
-54
-54
-54
-54
-54
-54
-54
-54
-54
-54
-54
-54
-55
-55
-55
-55
-55
-55
-55
-55
-55
-55
-55
-55
-55
-55
-55
-55
-55
-55
-55
-55
-55
-55
-55
-55
-55
-55
-56
-56
-56
-56
-56
-56
-56
-56
-56
-56
-56
-56
-56
-56
-57
-57
-57
-57
-57
-57
-57
-57
-57
-57
-56
-57
-57
-57
-57
-56
-57
-57
-56
-56
-56
-57
-57
-57
-56
-57
-57
-56
-57
-56
-56
-57
-56
-57
-57
-56
-57
-57
-57
-57
-57
-57
-57
-57
-56
-57
-57
-57
-56
-57
-57
-57
-57
-57
-57
-57
-57
-57
-57
-58
-57
-58
-58
-58
-58
-58
-58
-59
-59
-58
-58
-58
-58
-58
-57
-58
-57
-56
-56
-56
-56
-54
-54
-54
-53
-53
-53
-52
-52
-52
-51
-51
-51
-51
-52
-51
-52
-52
-52
-52
-53
-53
-53
-53
-53
-54
-54
-55
-55
-55
-55
-55
-55
-56
-56
-56
-55
-56
-56
-56
-56
-56
-55
-56
-56
-56
-57
-57
-57
-57
-57
-58
-58
-58
-58
-59
-59
-59
-58
-59
-59
-59
-59
-60
-60
-59
-59
-59
-59
-60
-60
-60
-59
-59
-59
-59
-59
-59
-59
-59
-59
-59
-59
-59
-59
-59
-58
-58
-59
-59
-59
-59
-59
-59
-59
-59
-59
-59
-59
-59
-59
-59
-59
-58
-58
-57
-57
-56
-54
-52
-50
-48
-46
-43
-40
-36
-32
-28
-23
-18
-13
-7
0
8
14
22
30
38
48
57
66
74
82
91
100
106
113
118
121
125
126
125
122
118
110
101
89
78
63
46
28
8
-14
-36
-59
-84
-108
-133
-155
-178
-199
-219
-237
-253
-267
-279
-289
-296
-302
-305
-306
-305
-302
-297
-290
-281
-271
-260
-248
-234
-220
-205
-190
-174
-160
-144
-131
-117
-103
-91
-78
-68
-58
-48
-40
-35
-29
-24
-20
-17
-15
-14
-13
-13
-14
-15
-16
-18
-20
-21
-23
-25
-27
-28
-29
-31
-32
-34
-35
-36
-36
-38
-39
-40
-42
-42
-43
-43
-45
-46
-46
-48
-49
-49
-50
-50
-51
-51
-52
-52
-52
-52
-53
-53
-53
-53
-53
-53
-53
-53
-53
-53
-53
-53
-52
-52
-52
-52
-52
-52
-52
-52
-52
-52
-52
-52
-52
-52
-52
-51
-51
-51
-51
-52
-52
-52
-52
-52
-52
-52
-52
-52
-52
-52
-51
-51
-51
-52
-52
-51
-51
-51
-51
-50
-50
-50
-51
-51
-51
-51
-51
-51
-50
-50
-50
-50
-50
-50
-51
-51
-51
-50
-50
-50
-50
-50
-50
-49
-49
-49
-49
-49
-49
-49
-49
-48
-48
-48
-48
-48
-48
-47
-47
-47
-47
-47
-47
-47
-47
-47
-47
-46
-46
-46
-46
-45
-45
-45
-45
-45
-44
-44
-45
-44
-44
-43
-43
-43
-42
-43
-42
-42
-41
-41
-41
-41
-40
-39
-40
-39
-39
-38
-38
-38
-38
-36
-37
-37
-36
-36
-36
-35
-35
-35
-35
-34
-34
-34
-34
-33
-33
-33
-33
-33
-33
-33
-33
-33
-33
-33
-33
-33
-34
-34
-33
-34
-34
-35
-34
-35
-35
-35
-35
-36
-36
-36
-37
-36
-37
-38
-37
-38
-38
-39
-38
-39
-40
-40
-40
-41
-41
-42
-42
-42
-43
-44
-43
-44
-45
-45
-45
-45
-46
-46
-46
-46
-47
-48
-47
-48
-48
-49
-48
-49
-49
-49
-50
-50
-50
-50
-51
-50
-51
-52
-51
-52
-52
-52
-52
-52
-52
-52
-53
-53
-53
-53
-52
-52
-52
-53
-52
-51
-51
-51
-52
-52
-51
-51
-51
-51
-51
-51
-50
-50
-50
-51
-50
-50
-50
-50
-50
-50
-50
-50
-50
-50
-50
-51
-51
-51
-51
-51
-51
-51
-51
-51
-51
-52
-52
-52
-51
-51
-51
-51
-52
-52
-52
-52
-52
-52
-52
-52
-52
-52
-52
-52
-52
-52
-53
-53
-53
-53
-53
-52
-52
-52
-52
-53
-53
-53
-53
-53
-53
-53
-53
-53
-53
-52
-52
-52
-52
-52
-51
-51
-51
-51
-50
-50
-50
-50
-50
-50
-50
-50
-50
-49
-50
-50
-49
-49
-49
-49
-48
-48
-48
-48
-48
-48
-48
-48
-48
-48
-48
-48
-48
-47
-47
-47
-47
-47
-47
-46
-46
-46
-46
-46
-46
-46
-46
-46
-46
-45
-45
-45
-45
-45
-44
-44
-44
-44
-44
-44
-44
-44
-44
-44
-43
-43
-43
-43
-42
-42
-42
-42
-42
-42
-42
-42
-42
-42
-42
-42
-43
-42
-42
-42
-42
-42
-42
-42
-42
-42
-42
-42
-42
-42
-42
-43
-43
-43
-43
-43
-43
-43
-43
-43
-43
-43
-43
-43
-43
-43
-43
-44
-44
-44
-44
-44
-44
-43
-43
-43
-43
-43
-43
-43
-43
-43
-44
-44
-44
-44
-44
-44
-44
-44
-44
-45
-44
-45
-44
-44
-45
-44
-45
-45
-45
-45
-46
-45
-46
-45
-46
-46
-47
-46
-47
-47
-47
-47
-48
-48
-48
-48
-49
-48
-49
-49
-49
-50
-49
-50
-50
-51
-51
-50
-51
-51
-52
-52
-52
-53
-52
-53
-53
-53
-53
-53
-53
-52
-52
-51
-50
-51
-50
-50
-49
-49
-48
-48
-47
-46
-46
-45
-45
-45
-46
-45
-45
-46
-46
-45
-46
-46
-47
-46
-47
-46
-47
-48
-47
-48
-47
-48
-49
-48
-49
-48
-49
-49
-49
-49
-49
-49
-49
-49
-49
-49
-50
-49
-49
-50
-50
-51
-50
-50
-50
-51
-51
-51
-51
-52
-51
-51
-51
-51
-51
-51
-52
-52
-52
-52
-51
-51
-51
-51
-51
-51
-51
-51
-51
-52
-52
-52
-52
-52
-52
-52
-52
-52
-52
-52
-52
-52
-52
-52
-52
-52
-52
-52
-52
-51
-52
-52
-52
-52
-51
-51
-51
-51
-51
-51
-50
-49
-49
-47
-46
-45
-44
-41
-39
-36
-33
-30
-26
-22
-18
-14
-8
-2
4
10
17
24
31
39
47
55
62
70
77
84
91
95
100
104
107
108
108
105
101
95
87
77
67
53
39
22
6
-14
-34
-55
-76
-98
-120
-141
-163
-182
-201
-217
-233
-246
-258
-267
-274
-280
-284
-285
-284
-282
-278
-272
-264
-256
-245
-233
-221
-207
-193
-178
-164
-149
-135
-120
-106
-93
-80
-68
-56
-46
-37
-29
-21
-15
-10
-5
-1
2
3
4
4
4
3
2
0
-1
-3
-5
-7
-9
-11
-13
-15
-17
-19
-21
-23
-24
-25
-27
-29
-30
-31
-32
-33
-35
-36
-37
-38
-40
-41
-42
-43
-44
-45
-46
-45
-46
-46
-47
-47
-47
-47
-47
-47
-47
-47
-47
-48
-48
-48
-47
-47
-47
-47
-47
-47
-47
-47
-46
-46
-47
-47
-47
-47
-48
-48
-48
-48
-48
-48
-48
-48
-48
-48
-48
-48
-48
-47
-47
-47
-47
-46
-47
-47
-47
-47
-46
-46
-46
-46
-46
-46
-46
-46
-46
-46
-46
-47
-47
-46
-46
-46
-46
-46
-46
-47
-47
-47
-47
-47
-47
-47
-47
-47
-47
-47
-47
-47
-46
-46
-46
-46
-46
-45
-45
-45
-46
-45
-45
-45
-44
-44
-44
-44
-44
-43
-43
-43
-43
-43
-43
-43
-42
-42
-42
-42
-41
-41
-42
-42
-41
-41
-41
-40
-40
-40
-40
-40
-39
-39
-38
-39
-38
-38
-37
-37
-37
-37
-36
-36
-36
-35
-35
-34
-35
-35
-34
-34
-34
-34
-34
-34
-34
-33
-33
-33
-33
-33
-33
-33
-33
-34
-34
-34
-33
-33
-33
-33
-33
-33
-33
-32
-33
-33
-33
-33
-34
-34
-34
-34
-34
-34
-34
-34
-34
-35
-35
-35
-35
-36
-36
-37
-36
-37
-37
-38
-39
-39
-40
-40
-39
-40
-41
-41
-42
-42
-43
-42
-43
-43
-44
-45
-44
-45
-45
-46
-46
-46
-47
-47
-48
-47
-48
-48
-48
-49
-49
-49
-50
-50
-49
-50
-50
-51
-50
-51
-51
-51
-52
-51
-51
-51
-51
-51
-51
-51
-51
-51
-50
-50
-50
-50
-50
-50
-51
-50
-50
-50
-50
-50
-50
-49
-49
-49
-49
-50
-50
-49
-49
-50
-50
-49
-49
-49
-49
-50
-50
-50
-50
-49
-49
-49
-50
-50
-50
-50
-50
-50
-50
-50
-50
-50
-50
-50
-50
-50
-50
-51
-51
-51
-51
-51
-51
-51
-51
-51
-51
-51
-51
-51
-51
-51
-51
-51
-51
-51
-51
-51
-51
-51
-51
-51
-51
-51
-51
-51
-51
-51
-51
-50
-51
-51
-51
-51
-51
-51
-50
-50
-51
-51
-51
-50
-50
-50
-50
-51
-51
-51
-51
-50
-50
-50
-50
-49
-49
-49
-49
-49
-49
-49
-49
-49
-49
-48
-48
-48
-48
-48
-48
-47
-47
-47
-47
-46
-46
-45
-45
-46
-45
-45
-45
-44
-45
-45
-44
-44
-44
-44
-44
-43
-43
-44
-44
-44
-44
-44
-44
-43
-43
-43
-43
-43
-43
-43
-43
-43
-43
-43
-43
-43
-43
-43
-43
-43
-43
-43
-43
-43
-43
-43
-43
-43
-43
-43
-43
-43
-43
-43
-43
-43
-43
-43
-44
-43
-43
-43
-43
-43
-44
-44
-44
-44
-44
-44
-44
-44
-44
-44
-44
-44
-44
-44
-45
-45
-45
-44
-45
-44
-45
-45
-45
-45
-45
-46
-45
-46
-46
-45
-46
-45
-46
-47
-46
-47
-46
-46
-47
-46
-46
-46
-47
-46
-46
-46
-47
-46
-47
-47
-47
-47
-48
-49
-48
-49
-49
-50
-50
-50
-51
-51
-52
-53
-53
-53
-53
-54
-54
-54
-55
-55
-55
-55
-55
-55
-55
-55
-54
-54
-54
-54
-54
-54
-53
-53
-53
-52
-52
-51
-51
-50
-50
-50
-49
-49
-49
-48
-48
-48
-49
-49
-48
-48
-48
-48
-49
-48
-49
-49
-50
-49
-50
-49
-50
-49
-49
-50
-49
-50
-50
-50
-50
-51
-51
-50
-51
-51
-51
-52
-52
-52
-53
-53
-52
-53
-53
-53
-53
-54
-54
-54
-54
-54
-54
-54
-54
-54
-55
-55
-55
-54
-54
-55
-55
-55
-55
-55
-55
-55
-55
-55
-55
-55
-55
-55
-55
-55
-55
-55
-54
-54
-55
-55
-55
-55
-55
-55
-55
-55
-55
-55
-55
-55
-55
-55
-55
-55
-55
-55
-55
-55
-54
-54
-53
-52
-51
-49
-47
-45
-43
-40
-37
-34
-30
-26
-21
-15
-11
-6
1
7
14
21
28
37
45
52
60
67
75
82
89
94
100
103
106
107
107
105
101
95
87
77
67
54
39
22
4
-15
-35
-57
-79
-102
-125
-148
-169
-189
-208
-226
-242
-256
-268
-279
-287
-292
-296
-298
-297
-294
-291
-284
-276
-266
-255
-244
-231
-216
-202
-187
-171
-156
-142
-126
-112
-99
-85
-73
-62
-52
-43
-34
-27
-21
-16
-12
-8
-6
-5
-4
-5
-4
-6
-6
-9
-10
-12
-14
-16
-19
-20
-22
-24
-26
-27
-29
-30
-31
-33
-34
-36
-37
-38
-39
-41
-42
-43
-45
-46
-47
-48
-48
-49
-50
-51
-52
-51
-52
-53
-53
-53
-53
-53
-54
-54
-54
-53
-53
-53
-54
-54
-54
-54
-54
-54
-54
-54
-54
-54
-54
-54
-54
-54
-53
-54
-54
-54
-54
-55
-55
-54
-54
-54
-54
-54
-54
-55
-55
-55
-55
-55
-54
-54
-55
-55
-55
-55
-55
-55
-55
-55
-55
-55
-55
-55
-54
-54
-54
-54
-54
-54
-54
-54
-54
-54
-54
-54
-54
-54
-54
-54
-54
-54
-54
-54
-54
-54
-54
-54
-54
-54
-54
-54
-53
-53
-53
-53
-53
-52
-52
-52
-52
-52
-51
-51
-51
-50
-50
-50
-50
-49
-50
-50
-50
-50
-49
-49
-49
-49
-49
-48
-48
-48
-48
-48
-47
-47
-47
-47
-46
-46
-45
-46
-46
-45
-45
-44
-44
-43
-44
-43
-43
-42
-42
-42
-42
-42
-41
-41
-41
-40
-40
-40
-40
-40
-40
-40
-40
-39
-39
-39
-39
-39
-39
-39
-39
-39
-39
-39
-39
-39
-39
-39
-40
-40
-39
-39
-40
-40
-40
-40
-40
-40
-41
-41
-41
-41
-42
-42
-42
-42
-43
-43
-44
-44
-45
-44
-45
-45
-46
-46
-47
-47
-48
-48
-48
-49
-49
-49
-50
-50
-51
-51
-52
-52
-53
-53
-53
-53
-54
-55
-54
-55
-56
-56
-56
-57
-58
-57
-58
-58
-59
-60
-59
-60
-60
-60
-60
-61
-62
-61
-62
-62
-62
-62
-62
-63
-62
-62
-63
-62
-62
-62
-62
-62
-62
-63
-62
-62
-62
-62
-62
-62
-62
-62
-62
-62
-62
-62
-63
-63
-63
-62
-62
-62
-63
-63
-63
-63
-63
-63
