# Simple Text Format
# Sampling Rate (Hz):= 1200.00
# Resolution:= 12
# Labels:= ECG	III
# Age:=	77
# Gender:=	Masculino
-160
-159
-159
-158
-158
-157
-157
-156
-156
-156
-155
-155
-155
-154
-154
-154
-154
-154
-154
-154
-153
-153
-152
-152
-151
-151
-150
-150
-150
-150
-149
-149
-149
-149
-149
-148
-148
-148
-148
-148
-148
-149
-149
-149
-149
-150
-150
-150
-151
-151
-151
-152
-152
-152
-153
-153
-153
-154
-154
-155
-155
-155
-156
-156
-156
-156
-156
-157
-157
-157
-157
-157
-157
-157
-157
-157
-157
-157
-156
-156
-156
-156
-156
-156
-155
-155
-155
-155
-155
-155
-155
-155
-155
-155
-155
-155
-155
-155
-155
-155
-155
-155
-155
-155
-155
-155
-155
-155
-155
-155
-155
-155
-155
-155
-154
-154
-154
-154
-154
-154
-154
-153
-153
-153
-152
-152
-151
-151
-150
-150
-150
-150
-150
-150
-150
-149
-149
-149
-149
-148
-148
-148
-148
-148
-148
-148
-148
-148
-148
-148
-148
-148
-148
-148
-147
-147
-147
-147
-147
-147
-147
-147
-146
-146
-146
-146
-146
-146
-146
-146
-146
-145
-145
-145
-145
-145
-145
-145
-145
-145
-145
-146
-145
-145
-145
-145
-145
-144
-144
-144
-144
-144
-144
-144
-144
-143
-143
-143
-143
-143
-143
-143
-142
-142
-142
-142
-142
-142
-142
-141
-141
-141
-141
-140
-140
-139
-139
-139
-139
-139
-138
-138
-138
-138
-137
-137
-137
-136
-136
-136
-136
-135
-135
-135
-135
-135
-134
-134
-134
-133
-133
-133
-133
-133
-133
-133
-133
-132
-133
-133
-133
-133
-133
-133
-133
-134
-134
-134
-134
-134
-134
-135
-135
-135
-135
-135
-135
-135
-134
-134
-134
-134
-134
-134
-134
-133
-133
-133
-133
-132
-132
-132
-132
-132
-132
-131
-131
-131
-131
-131
-131
-131
-131
-131
-131
-131
-131
-132
-132
-132
-132
-133
-133
-133
-133
-133
-133
-133
-133
-133
-133
-133
-133
-133
-133
-133
-132
-132
-132
-131
-131
-130
-130
-130
-130
-130
-130
-130
-130
-131
-131
-131
-131
-132
-132
-133
-133
-134
-134
-134
-135
-135
-135
-136
-136
-136
-136
-136
-136
-136
-136
-135
-135
-135
-135
-135
-134
-134
-134
-134
-134
-134
-134
-134
-134
-134
-133
-133
-133
-133
-133
-133
-133
-133
-133
-133
-133
-133
-133
-133
-133
-134
-134
-134
-135
-135
-135
-136
-136
-136
-136
-137
-137
-137
-137
-137
-137
-137
-137
-137
-137
-137
-137
-136
-136
-136
-136
-136
-136
-136
-136
-136
-136
-136
-136
-136
-136
-136
-137
-137
-137
-137
-137
-137
-137
-137
-137
-137
-137
-137
-137
-137
-137
-137
-137
-137
-137
-137
-137
-137
-137
-137
-137
-136
-136
-136
-136
-136
-136
-135
-135
-134
-134
-133
-133
-132
-132
-131
-131
-130
-130
-129
-129
-128
-128
-128
-128
-128
-127
-127
-127
-127
-127
-127
-127
-127
-127
-127
-128
-128
-128
-128
-128
-129
-129
-129
-129
-129
-130
-130
-130
-130
-131
-131
-131
-132
-132
-132
-132
-132
-132
-132
-133
-133
-133
-133
-134
-134
-135
-135
-136
-137
-137
-138
-138
-139
-140
-141
-142
-143
-144
-144
-145
-146
-146
-146
-147
-147
-148
-148
-148
-148
-148
-148
-148
-148
-148
-148
-148
-148
-148
-148
-148
-148
-149
-149
-149
-150
-150
-150
-151
-151
-151
-152
-152
-153
-153
-154
-154
-155
-155
-155
-156
-156
-156
-156
-156
-157
-157
-157
-157
-158
-158
-158
-158
-159
-159
-159
-160
-160
-160
-160
-160
-160
-160
-160
-160
-160
-160
-160
-159
-159
-158
-158
-158
-158
-157
-157
-157
-156
-156
-156
-156
-156
-156
-157
-157
-158
-159
-160
-161
-162
-163
-163
-164
-165
-166
-167
-167
-168
-168
-168
-168
-168
-168
-167
-167
-167
-166
-165
-165
-164
-163
-162
-161
-159
-158
-156
-154
-152
-149
-146
-143
-139
-135
-130
-125
-119
-113
-107
-101
-95
-89
-84
-78
-73
-68
-64
-60
-57
-54
-52
-50
-49
-48
-48
-48
-48
-50
-51
-53
-55
-58
-60
-63
-66
-69
-72
-74
-77
-80
-83
-86
-89
-93
-96
-99
-103
-106
-109
-112
-115
-118
-121
-124
-127
-129
-132
-134
-136
-138
-140
-142
-144
-146
-148
-149
-151
-153
-154
-155
-157
-158
-159
-160
-161
-162
-163
-164
-165
-165
-166
-166
-166
-167
-167
-167
-167
-168
-168
-168
-168
-168
-169
-169
-169
-169
-169
-169
-170
-170
-170
-170
-170
-171
-171
-171
-171
-172
-172
-173
-173
-173
-174
-174
-174
-174
-174
-174
-174
-175
-175
-175
-175
-175
-175
-175
-174
-174
-174
-174
-174
-174
-174
-174
-174
-174
-174
-174
-174
-174
-174
-174
-174
-174
-175
-175
-175
-175
-175
-175
-175
-175
-175
-175
-175
-175
-175
-175
-175
-176
-176
-176
-176
-176
-176
-177
-177
-177
-177
-178
-178
-178
-178
-178
-178
-178
-178
-178
-178
-178
-178
-178
-178
-178
-178
-178
-178
-178
-178
-178
-178
-178
-178
-178
-179
-179
-179
-179
-179
-179
-180
-180
-180
-180
-180
-180
-180
-180
-180
-180
-180
-180
-180
-180
-180
-180
-180
-180
-180
-180
-180
-180
-180
-180
-180
-180
-180
-180
-180
-180
-180
-180
-181
-181
-181
-181
-182
-182
-182
-182
-182
-181
-181
-181
-181
-181
-181
-181
-181
-181
-181
-181
-180
-180
-180
-180
-180
-180
-180
-180
-179
-179
-179
-179
-179
-179
-178
-178
-178
-177
-177
-177
-176
-176
-176
-175
-175
-175
-174
-174
-174
-173
-173
-172
-172
-171
-171
-171
-170
-170
-170
-170
-169
-169
-169
-168
-168
-167
-167
-166
-166
-166
-166
-165
-165
-165
-164
-164
-163
-163
-163
-162
-162
-162
-162
-161
-161
-161
-160
-160
-160
-160
-160
-159
-159
-159
-159
-159
-159
-159
-159
-159
-159
-159
-159
-160
-160
-160
-160
-160
-161
-161
-161
-162
-162
-162
-162
-163
-163
-163
-163
-164
-164
-164
-165
-165
-165
-166
-166
-166
-167
-167
-167
-167
-168
-168
-168
-169
-169
-170
-170
-170
-170
-170
-170
-170
-170
-170
-170
-170
-170
-170
-170
-170
-170
-170
-170
-169
-169
-169
-169
-169
-169
-169
-169
-169
-169
-169
-169
-169
-169
-168
-168
-168
-168
-168
-168
-168
-168
-168
-168
-168
-168
-168
-167
-168
-168
-168
-168
-168
-168
-168
-168
-168
-168
-168
-168
-168
-168
-168
-168
-168
-168
-168
-168
-168
-167
-167
-167
-166
-166
-166
-166
-166
-166
-166
-166
-166
-166
-166
-166
-166
-166
-166
-166
-166
-166
-166
-166
-166
-166
-165
-165
-165
-165
-165
-165
-165
-165
-165
-165
-165
-165
-166
-166
-166
-167
-167
-167
-167
-168
-168
-168
-168
-168
-168
-168
-168
-167
-167
-167
-166
-166
-165
-165
-164
-164
-163
-163
-163
-162
-162
-162
-161
-161
-161
-161
-161
-161
-161
-161
-160
-160
-160
-160
-161
-161
-161
-161
-161
-161
-162
-162
-162
-162
-163
-163
-163
-164
-164
-164
-164
-164
-164
-164
-164
-164
-164
-164
-163
-163
-163
-162
-162
-161
-161
-161
-161
-160
-160
-160
-159
-159
-159
-159
-159
-160
-160
-160
-160
-160
-160
-160
-161
-161
-161
-162
-162
-162
-162
-162
-162
-163
-163
-163
-163
-163
-163
-163
-163
-163
-163
-163
-163
-163
-163
-163
-162
-162
-162
-162
-162
-162
-162
-162
-162
-162
-161
-161
-161
-161
-161
-161
-160
-160
-160
-160
-159
-159
-159
-159
-159
-159
-159
-160
-160
-160
-160
-160
-161
-161
-161
-162
-162
-162
-162
-163
-163
-163
-163
-163
-163
-164
-164
-164
-164
-164
-165
-165
-165
-165
-165
-165
-165
-165
-165
-165
-165
-165
-165
-164
-164
-164
-164
-164
-164
-164
-164
-164
-164
-164
-164
-164
-164
-163
-163
-163
-164
-164
-164
-164
-164
-164
-164
-164
-164
-164
-164
-164
-164
-164
-165
-165
-165
-165
-165
-165
-165
-165
-165
-165
-165
-165
-165
-165
-165
-164
-164
-164
-164
-164
-164
-164
-164
-164
-164
-165
-165
-165
-165
-164
-164
-164
-164
-164
-164
-164
-164
-164
-163
-163
-162
-162
-162
-161
-161
-160
-160
-160
-159
-159
-158
-158
-157
-157
-157
-157
-157
-156
-156
-156
-155
-155
-154
-154
-154
-153
-153
-153
-152
-152
-152
-152
-152
-151
-151
-151
-151
-151
-151
-151
-151
-151
-151
-151
-151
-151
-151
-151
-151
-151
-151
-151
-151
-151
-151
-151
-151
-152
-152
-152
-152
-153
-153
-153
-154
-154
-155
-155
-156
-156
-157
-157
-158
-158
-159
-159
-159
-160
-160
-161
-161
-162
-162
-162
-163
-163
-164
-164
-164
-165
-165
-165
-166
-166
-167
-167
-167
-167
-167
-167
-168
-168
-168
-168
-168
-168
-168
-168
-168
-168
-168
-168
-168
-168
-168
-168
-169
-169
-169
-170
-170
-170
-170
-170
-171
-171
-171
-171
-172
-172
-172
-172
-172
-172
-172
-172
-172
-172
-172
-171
-171
-171
-171
-171
-171
-170
-170
-170
-170
-170
-171
-171
-171
-171
-171
-172
-172
-173
-173
-173
-174
-174
-175
-175
-175
-176
-176
-176
-176
-176
-176
-176
-175
-175
-175
-174
-174
-173
-173
-172
-171
-170
-169
-168
-167
-165
-164
-162
-160
-158
-155
-153
-149
-145
-141
-136
-130
-124
-118
-111
-105
-98
-91
-84
-77
-70
-64
-59
-54
-49
-45
-42
-39
-37
-35
-35
-34
-34
-35
-37
-39
-42
-45
-49
-52
-56
-60
-63
-67
-70
-74
-78
-81
-85
-89
-92
-96
-99
-103
-107
-110
-113
-116
-119
-122
-124
-127
-130
-132
-135
-137
-140
-142
-145
-147
-149
-151
-153
-155
-156
-158
-160
-162
-163
-165
-166
-167
-168
-169
-170
-171
-172
-172
-172
-173
-173
-174
-174
-174
-175
-175
-175
-175
-175
-176
-176
-176
-176
-176
-176
-176
-176
-176
-176
-177
-177
-178
-178
-178
-178
-178
-178
-178
-178
-179
-179
-179
-179
-179
-179
-180
-180
-180
-180
-180
-180
-180
-180
-180
-180
-180
-180
-180
-179
-179
-179
-179
-179
-179
-179
-179
-179
-179
-179
-179
-179
-179
-179
-179
-179
-179
-179
-179
-179
-179
-179
-179
-179
-178
-178
-178
-178
-178
-178
-177
-177
-177
-177
-176
-176
-176
-176
-176
-176
-176
-176
-176
-176
-176
-177
-177
-177
-177
-177
-177
-177
-177
-177
-177
-177
-177
-177
-178
-178
-178
-178
-178
-178
-178
-178
-178
-178
-178
-178
-178
-178
-178
-178
-178
-178
-178
-178
-178
-178
-178
-178
-177
-177
-177
-177
-177
-177
-177
-177
-177
-177
-177
-177
-177
-177
-177
-177
-177
-177
-177
-176
-176
-176
-176
-176
-175
-175
-175
-175
-175
-175
-175
-175
-175
-174
-174
-174
-174
-174
-174
-174
-174
-174
-174
-174
-174
-173
-173
-173
-172
-172
-172
-171
-171
-170
-170
-170
-169
-169
-169
-168
-168
-167
-167
-167
-166
-166
-166
-166
-165
-165
-165
-165
-164
-164
-163
-163
-163
-162
-162
-162
-161
-161
-160
-160
-159
-159
-159
-159
-159
-159
-158
-158
-157
-157
-157
-157
-156
-156
-156
-155
-155
-154
-154
-153
-153
-153
-153
-152
-152
-152
-152
-152
-152
-152
-152
-152
-152
-152
-152
-153
-153
-153
-153
-154
-154
-155
-155
-155
-156
-156
-156
-156
-156
-156
-156
-157
-157
-157
-157
-157
-157
-157
-157
-157
-157
-156
-156
-156
-155
-155
-155
-156
-156
-156
-156
-157
-157
-157
-157
-158
-158
-159
-159
-160
-160
-161
-161
-161
-162
-162
-162
-162
-162
-162
-162
-162
-162
-161
-161
-161
-161
-160
-160
-160
-160
-160
-159
-159
-159
-159
-159
-159
-159
-159
-159
-159
-159
-159
-159
-159
-159
-159
-159
-159
-158
-158
-158
-157
-157
-157
-157
-157
-157
-156
-156
-156
-156
-155
-155
-155
-154
-155
-155
-155
-155
-155
-155
-155
-155
-155
-155
-155
-155
-155
-155
-155
-155
-155
-154
-154
-154
-154
-153
-153
-153
-153
-153
-153
-153
-153
-153
-152
-152
-152
-152
-152
-152
-152
-152
-152
-152
-152
-152
-152
-152
-152
-152
-152
-153
-153
-153
-153
-154
-154
-154
-154
-154
-154
-154
-153
-153
-153
-153
-153
-153
-153
-152
-152
-152
-152
-151
-151
-150
-150
-150
-150
-149
-149
-149
-149
-149
-149
-149
-149
-149
-149
-149
-149
-149
-149
-148
-148
-148
-148
-148
-148
-148
-148
-148
-147
-147
-147
-147
-147
-147
-147
-147
-146
-146
-146
-146
-146
-146
-145
-145
-145
-145
-145
-145
-145
-145
-145
-145
-145
-144
-144
-144
-144
-144
-144
-144
-144
-144
-143
-143
-143
-143
-143
-143
-143
-143
-143
-143
-143
-143
-143
-143
-143
-143
-143
-143
-143
-143
-143
-143
-143
-143
-142
-142
-142
-142
-142
-142
-142
-142
-142
-142
-142
-142
-142
-142
-142
-142
-143
-143
-143
-143
-143
-143
-143
-143
-143
-143
-144
-144
-144
-144
-143
-143
-143
-143
-143
-143
-143
-143
-143
-143
-142
-142
-142
-141
-141
-141
-141
-141
-140
-140
-140
-140
-140
-140
-140
-140
-140
-139
-139
-139
-139
-139
-139
-139
-139
-139
-139
-139
-139
-139
-139
-139
-139
-139
-139
-139
-139
-139
-139
-139
-140
-140
-140
-140
-140
-140
-140
-140
-140
-140
-140
-140
-140
-140
-140
-140
-140
-140
-140
-140
-140
-140
-140
-139
-139
-139
-138
-138
-137
-137
-136
-136
-135
-135
-134
-134
-133
-132
-131
-131
-130
-129
-129
-128
-128
-128
-127
-127
-127
-126
-126
-125
-125
-124
-124
-123
-123
-122
-122
-121
-121
-120
-120
-119
-118
-118
-117
-117
-117
-117
-116
-116
-116
-116
-116
-115
-115
-115
-115
-116
-116
-116
-116
-115
-115
-115
-115
-115
-115
-115
-115
-115
-115
-116
-116
-116
-116
-116
-117
-117
-118
-118
-119
-119
-120
-121
-121
-121
-122
-122
-123
-123
-124
-124
-124
-125
-125
-125
-125
-126
-126
-126
-126
-126
-126
-126
-127
-127
-127
-127
-128
-128
-128
-129
-129
-129
-129
-129
-129
-129
-129
-130
-130
-130
-131
-131
-131
-131
-132
-132
-133
-133
-134
-134
-134
-134
-134
-134
-135
-135
-135
-136
-136
-136
-136
-136
-135
-135
-135
-135
-135
-134
-134
-134
-134
-134
-134
-134
-134
-134
-133
-133
-133
-134
-134
-134
-134
-134
-134
-134
-134
-134
-134
-135
-135
-135
-135
-135
-135
-136
-136
-136
-136
-136
-136
-137
-137
-137
-137
-137
-137
-136
-136
-136
-135
-135
-135
-135
-134
-133
-132
-131
-130
-129
-127
-125
-123
-120
-118
-114
-111
-106
-102
-96
-91
-85
-78
-72
-65
-59
-52
-46
-40
-34
-29
-25
-21
-18
-16
-14
-12
-12
-11
-12
-13
-14
-17
-19
-22
-26
-29
-33
-36
-40
-43
-46
-49
-52
-55
-58
-61
-64
-67
-70
-73
-75
-78
-81
-83
-85
-88
-90
-92
-95
-97
-99
-101
-103
-105
-107
-108
-110
-112
-114
-116
-117
-119
-121
-122
-123
-124
-126
-127
-128
-129
-130
-131
-131
-132
-133
-134
-134
-135
-135
-135
-135
-136
-136
-136
-136
-136
-136
-136
-136
-137
-137
-137
-137
-137
-137
-137
-138
-138
-138
-138
-138
-138
-138
-138
-138
-138
-139
-139
-139
-139
-139
-139
-139
-139
-139
-139
-139
-139
-139
-139
-139
-139
-138
-138
-138
-138
-139
-139
-139
-139
-138
-138
-138
-137
-137
-137
-137
-137
-137
-137
-137
-136
-136
-136
-136
-136
-136
-136
-135
-135
-135
-135
-135
-136
-136
-136
-136
-136
-136
-136
-136
-136
-136
-136
-136
-136
-136
-136
-136
-136
-136
-136
-136
-136
-136
-136
-136
-136
-136
-136
-136
-136
-136
-136
-136
-136
-136
-136
-136
-136
-136
-136
-136
-136
-136
-136
-136
-137
-137
-137
-137
-137
-137
-137
-137
-137
-137
-137
-137
-136
-136
-136
-136
-136
-136
-136
-135
-135
-135
-134
-134
-133
-133
-133
-132
-132
-132
-131
-131
-131
-130
-130
-130
-130
-129
-129
-129
-128
-128
-128
-128
-127
-127
-127
-127
-126
-126
-126
-125
-125
-125
-125
-124
-124
-123
-123
-122
-122
-121
-121
-120
-120
-119
-119
-118
-117
-117
-116
-116
-115
-115
-114
-114
-113
-113
-112
-112
-111
-111
-111
-110
-110
-110
-109
-109
-108
-108
-107
-107
-106
-106
-105
-105
-104
-104
-103
-103
-102
-102
-101
-101
-100
-100
-99
-99
-98
-98
-98
-98
-97
-97
-96
-96
-96
-95
-95
-95
-95
-95
-95
-95
-95
-94
-94
-94
-94
-94
-94
-94
-94
-94
-95
-95
-95
-95
-95
-95
-96
-96
-96
-96
-96
-96
-96
-96
-96
-96
-96
-96
-96
-96
-96
-96
-95
-95
-95
-96
-96
-96
-96
-96
-96
-96
-97
-97
-97
-97
-97
-97
-97
-97
-97
-97
-97
-97
-97
-97
-97
-97
-96
-96
-96
-95
-95
-95
-95
-95
-95
-95
-95
-95
-95
-95
-95
-95
-95
-95
-95
-95
-95
-94
-94
-94
-94
-94
-93
-93
-93
-92
-92
-92
-92
-91
-91
-91
-91
-91
-90
-90
-90
-89
-89
-89
-89
-89
-89
-89
-89
-88
-88
-88
-87
-87
-86
-86
-86
-85
-85
-84
-84
-84
-84
-83
-83
-82
-82
-82
-81
-81
-81
-81
-81
-80
-80
-80
-80
-80
-80
-80
-80
-80
-80
-80
-80
-79
-79
-78
-78
-78
-78
-78
-77
-77
-77
-77
-77
-76
-76
-76
-76
-76
-76
-76
-76
-76
-76
-76
-76
-76
-76
-76
-76
-75
-75
-75
-75
-75
-74
-74
-74
-74
-73
-73
-73
-73
-73
-72
-72
-72
-72
-72
-72
-72
-72
-72
-72
-72
-72
-72
-71
-71
-71
-71
-71
-71
-71
-71
-71
-71
-71
-71
-71
-70
-70
-70
-70
-70
-70
-69
-69
-69
-69
-68
-68
-68
-68
-68
-67
-67
-67
-66
-66
-66
-66
-66
-66
-65
-65
-65
-65
-65
-65
-64
-64
-64
-64
-64
-64
-64
-63
-63
-63
-63
-64
-64
-64
-63
-63
-63
-63
-63
-63
-63
-63
-63
-63
-62
-62
-63
-63
-62
-62
-62
-62
-62
-62
-62
-62
-62
-62
-62
-61
-61
-61
-61
-60
-60
-60
-60
-60
-60
-60
-60
-60
-60
-60
-60
-60
-60
-60
-61
-61
-61
-62
-62
-62
-62
-63
-63
-63
-63
-63
-63
-63
-63
-63
-63
-63
-63
-63
-62
-62
-62
-62
-62
-61
-61
-61
-61
-61
-61
-61
-61
-61
-62
-62
-62
-63
-63
-63
-63
-63
-63
-63
-63
-63
-63
-63
-63
-63
-63
-63
-62
-62
-62
-62
-61
-61
-61
-61
-61
-61
-61
-61
-61
-61
-61
-61
-61
-61
-61
-61
-61
-61
-61
-61
-61
-61
-62
-62
-62
-62
-62
-62
-61
-61
-62
-62
-62
-62
-62
-62
-62
-62
-62
-63
-63
-64
-64
-64
-64
-64
-64
-64
-64
-64
-64
-64
-64
-63
-63
-62
-61
-61
-60
-59
-58
-58
-57
-56
-56
-55
-54
-54
-53
-53
-52
-52
-51
-51
-51
-50
-50
-50
-50
-50
-50
-49
-49
-49
-49
-48
-48
-48
-48
-48
-48
-48
-47
-47
-47
-47
-47
-47
-47
-47
-47
-47
-47
-47
-47
-47
-47
-47
-47
-47
-48
-48
-48
-49
-49
-49
-50
-50
-51
-51
-52
-52
-52
-53
-53
-53
-54
-54
-54
-54
-55
-55
-55
-55
-55
-55
-55
-55
-55
-55
-55
-55
-56
-56
-56
-56
-57
-57
-57
-58
-58
-58
-59
-59
-60
-60
-60
-61
-61
-62
-62
-63
-64
-64
-64
-64
-65
-65
-65
-66
-66
-66
-66
-67
-67
-67
-68
-68
-68
-69
-69
-69
-69
-69
-70
-70
-70
-70
-70
-70
-70
-70
-70
-69
-69
-69
-69
-69
-68
-68
-68
-68
-68
-67
-67
-67
-67
-67
-67
-67
-67
-67
-67
-66
-66
-66
-66
-67
-67
-68
-68
-68
-69
-69
-69
-69
-70
-70
-70
-70
-70
-70
-70
-69
-69
-69
-68
-68
-67
-66
-65
-64
-63
-62
-60
-59
-57
-55
-52
-50
-47
-44
-41
-37
-33
-28
-23
-18
-12
-6
-1
4
9
15
20
25
29
33
36
38
41
42
43
44
44
44
43
41
39
36
34
31
28
25
22
19
16
13
11
8
6
4
1
0
-2
-5
-8
-10
-12
-15
-17
-19
-20
-22
-24
-26
-28
-30
-31
-33
-35
-36
-38
-40
-41
-42
-44
-45
-47
-48
-49
-50
-52
-53
-54
-55
-56
-57
-58
-58
-59
-60
-60
-61
-61
-62
-62
-63
-63
-63
-63
-63
-63
-63
-63
-63
-63
-63
-63
-63
-63
-62
-62
-62
-62
-62
-62
-62
-62
-62
-62
-62
-62
-61
-61
-61
-62
-62
-62
-62
-62
-62
-62
-62
-62
-62
-62
-63
-63
-63
-63
-62
-62
-62
-62
-62
-62
-62
-62
-62
-62
-62
-62
-62
-62
-61
-61
-62
-62
-62
-62
-62
-61
-61
-61
-61
-60
-60
-60
-60
-60
-59
-59
-59
-58
-58
-58
-57
-57
-57
-57
-57
-57
-57
-57
-57
-57
-57
-57
-58
-58
-58
-58
-58
-58
-58
-57
-57
-57
-57
-57
-57
-57
-57
-57
-57
-56
-56
-56
-56
-56
-56
-56
-56
-56
-56
-56
-56
-56
-56
-56
-56
-56
-55
-55
-55
-55
-55
-55
-54
-54
-54
-54
-54
-54
-54
-54
-54
-53
-53
-53
-52
-52
-52
-52
-52
-52
-51
-51
-51
-50
-50
-49
-49
-48
-48
-48
-47
-47
-47
-46
-46
-46
-46
-45
-45
-45
-44
-44
-44
-44
-44
-44
-44
-43
-43
-43
-43
-42
-42
-42
-41
-41
-41
-40
-40
-40
-39
-39
-38
-37
-37
-36
-35
-35
-34
-34
-33
-33
-32
-32
-32
-31
-31
-31
-30
-30
-29
-29
-28
-28
-27
-27
-26
-26
-25
-25
-24
-24
-23
-23
-22
-22
-22
-21
-21
-20
-20
-19
-19
-19
-18
-18
-18
-18
-17
-17
-17
-17
-17
-16
-16
-16
-16
-16
-15
-15
-15
-16
-16
-16
-16
-16
-16
-16
-16
-16
-16
-17
-17
-17
-17
-18
-18
-18
-18
-19
-19
-19
-19
-19
-19
-19
-19
-19
-19
-19
-19
-20
-20
-20
-20
-20
-20
-20
-20
-20
-20
-20
-20
-20
-20
-20
-20
-20
-20
-20
-20
-20
-20
-20
-20
-20
-19
-19
-19
-19
-18
-18
-18
-18
-17
-17
-17
-16
-16
-16
-16
-16
-16
-15
-15
-15
-15
-15
-15
-14
-14
-14
-14
-13
-13
-13
-13
-13
-13
-13
-13
-12
-12
-12
-12
-12
-12
-12
-12
-12
-12
-12
-11
-11
-11
-11
-11
-11
-11
-11
-11
-10
-10
-10
-9
-9
-9
-9
-8
-8
-8
-8
-7
-7
-7
-7
-7
-7
-6
-6
-6
-6
-6
-6
-6
-6
-6
-6
-6
-7
-7
-7
-7
-7
-7
-7
-6
-6
-6
-6
-6
-6
-6
-6
-6
-6
-5
-5
-5
-4
-4
-3
-3
-3
-3
-3
-3
-3
-3
-3
-2
-2
-2
-2
-2
-1
-1
-1
-1
-1
-1
0
0
0
0
0
0
0
0
1
1
1
1
1
2
2
1
1
1
1
1
1
1
1
1
1
1
1
1
1
1
1
1
1
2
2
2
3
3
3
3
4
4
5
5
6
6
6
7
7
6
7
7
7
7
8
8
8
8
8
8
8
9
9
9
9
10
10
11
11
11
12
12
12
12
12
12
12
12
12
12
13
13
13
13
13
13
13
13
13
13
14
14
14
14
14
14
14
14
14
14
14
14
14
14
14
14
14
14
15
15
15
15
15
15
16
16
16
16
16
16
17
17
17
17
17
17
17
17
18
18
18
18
18
18
18
18
18
19
19
19
19
19
19
19
19
19
19
19
18
18
18
18
17
17
17
17
17
17
17
17
17
16
16
17
17
17
17
17
17
18
18
18
18
19
19
19
20
20
21
21
21
21
21
21
21
21
21
21
21
21
21
21
21
21
21
20
20
20
20
20
20
20
20
20
20
20
21
20
21
21
21
21
21
21
22
22
22
22
23
23
23
23
23
23
24
24
24
25
25
25
25
26
26
26
27
27
28
28
28
29
29
30
31
32
32
33
34
34
35
35
36
36
37
37
38
38
38
39
39
39
39
39
39
39
40
40
40
40
40
40
40
39
39
39
39
39
38
38
38
38
38
37
37
37
36
36
35
35
34
34
34
33
33
32
32
31
30
30
29
29
29
29
29
29
29
28
28
28
28
28
28
28
28
28
28
28
28
28
28
28
28
28
27
27
27
27
27
27
27
27
27
27
26
26
26
26
25
25
25
25
25
25
25
24
24
24
23
23
23
23
22
22
22
22
22
22
22
22
22
22
22
22
22
22
22
22
22
22
22
22
22
23
23
23
23
23
23
23
23
23
23
24
24
24
24
24
24
24
24
24
24
24
24
24
24
23
23
23
23
22
22
22
21
21
21
21
21
21
21
21
21
21
21
21
21
22
22
23
24
25
27
28
30
32
35
38
40
43
47
51
55
60
66
72
78
83
89
95
101
106
111
115
119
122
125
128
130
132
133
133
134
133
132
131
129
127
124
122
119
116
114
111
108
106
103
101
98
95
93
90
88
86
83
81
79
77
75
73
71
69
67
65
63
62
60
59
57
55
53
51
50
48
47
45
44
42
41
39
38
37
35
34
33
33
32
31
30
29
29
29
28
28
28
28
28
28
28
28
28
28
28
28
28
28
28
28
28
28
28
28
28
28
27
27
27
27
27
27
27
27
27
27
27
27
28
28
28
28
28
28
28
28
28
28
28
28
29
29
29
29
29
29
29
29
30
30
30
30
31
31
31
31
31
31
31
32
32
32
32
32
32
32
32
31
31
31
31
30
30
30
30
30
30
30
30
30
30
31
31
31
31
31
31
31
31
31
31
31
31
31
32
32
32
32
32
32
32
32
32
32
33
33
33
33
33
33
33
33
34
34
34
34
34
35
35
35
35
35
35
35
35
35
35
35
35
35
36
36
36
36
36
37
37
37
37
37
37
38
38
39
39
39
40
40
41
41
42
42
42
43
43
43
44
44
44
44
45
45
45
45
46
46
46
46
47
47
47
47
47
48
48
48
49
49
49
50
50
50
50
50
51
51
51
52
52
53
53
54
54
55
55
56
57
57
58
59
59
60
61
62
62
63
63
64
65
65
65
66
66
67
67
67
67
68
68
68
68
68
68
69
69
69
69
69
70
70
70
70
70
70
70
70
71
71
71
72
72
72
73
73
73
73
73
73
73
73
73
74
74
74
74
73
73
73
73
73
72
72
72
72
71
71
70
69
69
68
68
67
67
67
66
66
66
66
65
65
65
66
66
66
66
67
67
67
67
68
68
68
69
69
70
70
70
71
71
71
71
72
72
72
72
72
72
72
72
73
73
73
73
73
73
73
73
73
73
73
73
73
73
73
73
73
73
73
73
73
74
74
74
74
74
74
74
74
75
75
75
76
76
76
76
77
77
77
77
78
78
79
79
79
79
79
80
80
80
81
81
81
81
81
81
82
82
82
82
83
83
83
83
83
83
83
83
84
84
84
84
85
85
85
86
86
86
87
87
87
87
87
87
88
88
88
89
89
89
89
90
90
90
90
90
90
90
90
90
90
90
90
90
91
91
91
91
92
92
92
92
93
93
94
95
95
96
96
96
96
97
97
98
98
98
99
99
99
99
99
99
98
98
98
98
98
99
98
98
98
98
98
98
98
98
98
98
98
98
98
98
98
98
98
98
98
98
98
98
98
98
98
98
98
98
98
98
98
98
99
99
99
99
100
100
100
100
101
101
101
101
102
102
103
103
103
104
104
105
105
105
106
106
106
107
107
107
107
107
108
108
108
108
108
108
108
107
107
107
107
106
106
106
106
106
106
106
106
106
106
106
106
106
106
106
106
106
107
107
108
108
108
109
109
109
109
109
109
109
109
109
109
109
109
109
109
109
108
108
108
108
108
108
108
108
108
108
108
108
108
108
109
109
109
110
110
110
110
110
110
110
110
110
110
110
110
110
110
110
110
110
110
110
110
110
110
110
110
110
110
110
111
111
111
111
111
111
112
112
112
113
113
113
113
113
113
113
113
113
114
114
114
114
114
114
113
113
113
113
113
113
113
114
114
115
115
116
116
116
117
117
117
118
119
119
120
121
122
122
123
123
124
124
124
125
125
126
126
127
127
127
128
128
128
129
129
129
129
129
130
129
129
129
129
129
129
129
128
128
128
127
127
127
127
127
127
127
127
127
127
127
127
127
127
127
127
127
127
127
127
126
126
126
126
126
125
125
124
123
123
122
122
122
121
121
121
121
120
120
120
120
120
120
120
120
120
120
120
120
119
119
119
119
119
119
119
120
119
119
119
119
119
119
119
119
119
119
119
119
119
118
118
118
117
117
117
116
116
116
115
115
115
114
114
113
113
112
112
112
112
112
112
112
112
112
112
112
112
112
112
112
112
112
112
112
113
114
114
115
115
115
115
115
116
116
116
117
117
117
117
116
116
116
115
115
114
114
113
113
113
112
112
112
112
112
112
112
111
111
112
112
112
113
114
115
116
117
119
120
122
124
127
130
133
138
142
147
153
158
165
171
178
184
191
197
203
208
214
218
222
226
229
231
233
235
236
237
237
236
235
234
232
230
227
224
221
218
215
213
210
207
204
201
198
195
192
189
185
182
179
176
174
171
168
166
163
161
159
157
156
154
152
151
149
148
146
145
144
142
141
140
138
137
136
135
134
132
131
130
129
128
127
126
125
125
124
123
122
122
122
121
121
121
121
120
120
120
120
120
120
120
120
120
120
120
120
120
120
120
120
120
120
120
120
120
120
120
121
121
121
121
121
121
121
121
120
120
120
119
119
119
119
119
119
118
118
118
118
118
118
118
118
118
118
119
119
119
119
120
120
121
121
121
121
122
122
122
123
123
123
123
123
123
123
123
123
123
123
122
122
122
122
122
122
122
122
121
121
121
121
120
120
120
120
121
121
121
121
121
122
122
122
122
123
123
124
124
124
124
125
125
125
125
124
124
124
124
124
124
124
124
124
123
123
123
123
123
123
122
122
122
122
122
122
122
122
122
123
123
123
123
123
124
124
124
125
125
125
125
125
126
126
126
126
126
126
126
126
126
126
126
126
127
127
127
127
127
128
128
128
129
129
130
130
131
132
132
133
134
134
135
136
136
137
137
138
138
138
138
138
139
139
140
140
140
140
140
140
140
140
140
141
141
142
142
142
143
143
144
144
145
145
145
146
146
147
148
149
150
151
151
152
152
153
154
154
155
156
156
156
157
157
157
157
158
158
158
158
158
158
158
158
158
158
158
158
159
159
159
159
159
159
159
160
160
160
160
160
160
160
159
159
159
158
158
157
157
157
156
156
156
155
155
155
154
154
154
154
153
153
152
152
152
152
152
152
152
152
152
152
152
152
152
152
153
153
154
154
154
155
155
155
156
156
156
157
157
157
157
157
157
157
156
156
156
156
156
155
155
155
155
154
154
154
154
154
154
154
155
155
155
156
156
157
157
158
158
159
159
159
160
160
160
160
161
161
161
162
162
162
162
162
162
162
163
163
163
163
163
163
164
164
164
164
164
165
165
165
165
165
165
165
165
165
165
164
164
164
164
164
164
164
165
165
165
166
166
166
166
167
167
167
168
168
169
169
169
169
169
170
170
170
170
170
170
170
170
170
171
171
171
171
171
171
171
170
170
170
170
170
170
170
170
171
171
171
171
172
172
172
173
173
174
174
174
175
175
175
176
176
176
177
177
177
177
177
176
176
176
176
176
176
176
176
176
176
176
176
177
177
178
178
179
179
179
180
180
181
181
182
182
182
183
183
183
184
184
184
184
185
185
185
185
185
184
184
184
184
185
185
185
185
186
186
186
186
186
186
187
187
187
187
187
187
187
187
187
187
187
187
187
187
187
187
188
188
188
187
187
187
188
188
189
189
189
190
190
190
190
190
190
190
190
190
190
190
190
190
190
190
190
190
190
190
190
190
190
190
190
190
190
190
190
190
190
191
191
190
190
190
190
191
191
191
191
191
191
191
191
192
192
192
192
192
192
193
193
193
194
194
194
194
194
194
194
194
194
194
194
193
193
193
192
192
192
192
191
191
191
191
191
191
192
192
192
193
194
194
195
196
197
197
198
199
199
200
200
201
201
202
202
202
203
203
204
204
204
204
204
204
205
205
206
206
207
207
208
208
209
210
210
211
211
212
212
212
213
213
214
214
214
214
215
214
214
214
214
214
214
214
214
214
213
213
213
213
213
212
212
212
211
211
210
210
210
209
209
208
208
208
208
208
208
207
207
207
206
206
206
206
206
206
206
206
206
206
206
206
206
206
206
206
206
206
206
205
205
205
205
204
204
204
204
203
203
202
201
200
200
199
198
198
197
197
196
196
196
195
195
195
194
194
193
193
193
193
193
194
194
194
194
194
194
195
195
195
195
195
194
194
194
195
195
195
195
196
196
196
195
195
195
195
195
195
195
195
195
194
194
194
193
193
192
191
191
190
189
189
188
188
188
188
188
188
188
188
188
188
188
189
189
190
191
192
193
194
195
197
199
201
203
206
209
212
215
219
224
229
235
241
248
254
261
267
274
280
286
292
298
302
307
310
314
316
319
320
321
322
322
321
320
318
316
313
311
308
305
302
299
296
293
290
287
284
281
278
275
272
268
265
261
257
254
251
247
245
242
239
236
233
231
228
225
223
221
218
216
214
213
211
209
208
206
204
203
201
200
199
198
197
196
195
194
193
193
192
192
191
191
191
190
189
189
189
189
189
189
188
188
188
188
187
187
187
187
187
187
187
187
187
187
187
187
187
187
187
187
187
187
187
187
187
187
187
188
188
188
188
188
188
188
188
188
188
188
188
188
188
188
188
188
188
189
189
189
189
189
189
189
189
189
189
189
189
189
189
189
189
188
188
188
188
188
188
188
187
187
188
188
188
188
188
189
189
189
189
190
190
191
191
192
193
193
194
194
194
194
195
195
195
195
195
195
195
195
194
193
193
192
192
191
191
190
190
189
189
188
188
188
188
188
188
188
188
188
189
189
189
190
190
191
191
191
192
192
192
192
193
193
193
193
193
193
193
193
193
193
193
193
193
193
193
193
193
193
193
194
195
195
195
196
196
196
196
197
197
198
198
199
199
200
200
201
201
201
201
202
202
202
202
202
203
203
203
204
204
204
204
205
205
205
206
206
206
206
206
206
207
207
208
208
209
209
209
210
210
211
211
211
212
212
213
213
214
214
215
215
215
216
216
216
216
217
217
217
218
218
219
220
220
220
221
221
221
222
222
223
223
224
225
225
225
225
225
225
225
224
224
224
224
223
223
223
222
222
221
221
220
220
219
219
219
218
218
218
218
218
218
218
218
218
218
218
218
218
218
219
219
219
219
219
219
219
219
219
219
219
219
219
220
220
220
220
220
219
219
219
219
219
218
218
218
217
217
216
216
215
215
215
214
214
214
214
214
214
214
214
214
215
215
216
216
216
217
218
218
219
219
220
220
221
221
222
222
223
223
223
223
224
224
224
224
224
224
224
225
225
225
225
225
225
225
225
225
226
226
226
227
227
227
227
227
227
228
228
228
228
229
229
229
229
229
230
230
230
230
230
230
231
231
231
231
231
232
232
232
232
233
233
234
234
234
234
234
235
235
235
235
235
235
235
235
235
235
235
235
235
235
235
235
235
235
235
235
236
236
236
237
237
238
238
239
239
240
240
240
241
241
242
242
243
244
244
244
244
244
244
244
244
245
245
245
245
245
245
245
245
244
244
244
244
244
244
244
245
245
245
245
245
245
245
246
246
246
247
247
247
247
247
248
248
248
248
249
249
249
249
249
249
250
250
250
250
250
250
250
250
250
250
251
251
251
251
252
252
252
252
253
253
253
253
254
254
254
254
255
255
255
255
255
255
255
255
255
255
255
254
254
254
254
254
255
255
255
255
256
256
256
256
256
256
256
257
257
257
257
257
258
258
258
258
257
257
257
257
257
257
257
257
257
257
257
257
257
257
258
258
258
258
258
258
258
258
258
258
259
259
259
259
259
259
259
259
259
259
260
260
260
259
260
260
260
260
261
261
262
262
262
262
263
263
264
264
265
265
266
266
266
266
266
266
267
267
267
267
268
268
268
268
268
268
269
269
269
269
269
270
270
270
271
271
272
272
272
272
273
273
273
274
274
274
275
275
276
276
276
276
277
277
278
278
279
279
279
279
280
280
281
281
281
282
282
282
282
282
282
283
283
283
283
283
283
283
283
283
283
283
283
284
284
284
284
283
283
283
283
283
283
283
282
282
282
281
280
279
278
277
276
275
274
273
273
272
271
271
270
270
270
269
270
270
270
270
270
270
270
271
271
271
271
271
272
272
272
271
271
271
271
271
270
270
269
269
269
268
268
268
268
267
267
266
266
266
265
265
265
265
265
265
265
265
265
265
265
266
266
266
266
266
266
267
267
267
268
268
268
269
269
269
269
268
268
268
268
268
268
268
267
267
267
267
267
267
266
266
266
266
266
265
265
265
264
264
264
264
264
264
264
264
264
265
265
265
266
266
267
267
268
269
270
272
273
275
277
279
281
284
287
291
295
299
304
309
315
321
328
334
340
347
353
359
364
369
374
378
381
383
385
387
388
388
388
387
386
384
381
378
375
372
369
366
363
360
357
354
352
349
346
344
341
339
336
334
331
329
327
324
322
319
317
314
312
309
307
305
303
300
298
296
294
292
290
289
287
286
284
283
282
280
279
278
277
276
276
275
274
274
273
273
273
272
272
272
272
271
271
271
271
271
272
272
272
272
272
272
272
272
272
272
272
272
273
273
273
273
272
272
272
272
272
271
271
271
270
270
270
270
269
269
269
268
268
268
268
268
268
268
268
268
268
268
268
268
268
268
268
268
268
268
268
268
268
268
268
268
268
268
268
268
269
269
269
269
269
270
270
270
271
271
271
272
272
272
272
272
272
272
272
272
272
272
272
273
273
273
272
273
273
273
273
274
274
274
274
275
275
275
275
275
275
275
275
275
275
275
275
275
275
275
275
275
275
275
275
275
276
276
276
276
277
277
277
277
277
277
278
278
278
278
278
279
279
279
279
279
280
280
280
280
281
281
281
281
281
281
281
281
282
282
282
283
283
283
283
284
284
284
285
285
286
286
286
287
287
288
288
288
288
289
289
289
289
290
290
290
290
290
290
291
291
291
291
292
292
293
294
294
295
295
296
296
297
297
298
299
300
300
301
302
302
303
304
304
305
305
305
306
306
306
307
307
307
308
308
308
308
308
308
308
308
308
309
309
309
309
309
310
310
310
310
310
311
311
311
311
311
311
312
312
312
312
312
312
312
312
312
312
312
311
311
311
310
310
310
309
309
309
308
308
308
308
307
307
306
306
306
305
305
305
305
305
305
305
305
305
305
305
305
305
305
305
305
305
305
306
306
306
305
305
305
305
305
305
305
305
306
306
306
306
306
306
306
306
306
306
306
307
307
307
307
307
308
308
308
308
309
309
309
309
310
310
310
310
310
310
309
309
309
310
310
310
309
309
308
308
308
308
308
308
308
308
308
308
308
308
309
309
309
309
310
310
310
311
311
312
312
312
312
312
312
313
313
313
313
313
314
314
314
314
314
315
315
315
315
315
315
316
316
316
316
317
317
317
317
317
317
317
317
317
317
317
318
318
318
318
318
318
319
319
319
319
319
320
320
320
320
320
320
320
320
321
322
323
323
323
324
324
324
324
324
324
324
324
325
325
325
324
324
324
324
324
323
323
323
323
322
322
322
322
322
322
322
322
322
322
322
322
322
322
322
322
322
322
323
323
323
323
323
324
324
324
324
325
325
325
326
326
327
327
328
328
328
328
328
328
328
328
328
329
329
329
329
329
329
330
330
330
330
330
331
331
331
332
332
333
333
333
334
334
334
334
334
334
334
334
334
334
334
334
334
334
333
334
334
334
334
334
335
335
336
336
336
337
337
338
338
338
339
339
339
340
340
340
341
341
341
341
341
341
342
342
342
342
342
342
342
342
342
342
342
342
342
342
341
341
341
341
340
340
340
340
340
340
340
340
340
340
340
340
341
341
341
342
342
342
342
342
343
343
343
343
343
343
343
344
344
344
345
345
345
345
345
345
346
346
346
347
347
348
348
348
348
349
349
350
350
351
351
352
352
353
353
354
354
355
355
356
356
357
358
358
359
359
359
360
360
361
361
361
362
362
363
363
363
364
364
365
365
365
366
366
366
366
366
366
366
366
365
365
365
365
365
365
365
365
365
365
365
365
365
365
364
364
364
364
364
364
364
364
365
365
365
364
364
364
363
363
363
362
362
361
361
361
360
360
359
359
358
357
357
356
356
356
356
355
355
355
355
355
355
355
355
354
355
355
355
355
356
356
356
356
356
356
356
356
356
356
356
356
356
356
356
356
356
356
355
355
354
354
353
353
352
352
351
351
350
350
350
349
349
349
349
349
349
349
349
350
350
350
350
350
350
351
351
351
351
351
351
351
351
351
351
351
351
351
351
351
351
350
350
350
350
351
351
351
351
351
351
352
352
352
352
352
353
353
353
353
354
354
354
355
355
356
357
358
359
361
363
365
367
370
373
377
381
386
391
397
403
409
415
421
427
433
438
444
449
453
456
459
462
464
465
466
466
466
465
464
462
460
457
454
451
447
444
441
438
435
433
430
427
425
422
419
417
414
411
409
406
404
402
399
397
395
393
391
389
387
385
384
382
381
379
378
377
375
374
373
371
370
369
368
367
367
366
365
364
363
362
362
361
360
360
360
359
358
358
357
357
357
357
357
357
357
357
356
356
356
356
356
355
355
355
355
354
354
354
354
354
354
354
353
353
353
353
353
353
353
353
353
353
353
354
354
354
354
354
354
355
355
355
356
356
356
356
356
356
357
357
357
357
357
357
357
357
358
358
358
358
358
358
359
359
359
360
360
360
361
361
362
362
363
363
363
364
364
364
364
364
363
363
363
363
363
363
362
362
362
362
362
362
361
361
360
360
360
360
360
360
360
360
360
361
361
361
361
362
362
362
362
362
362
363
363
363
364
364
364
363
363
363
363
363
362
362
362
362
362
362
362
362
362
362
363
363
363
363
363
363
364
364
364
364
365
365
366
366
366
366
367
367
367
367
368
368
369
369
370
370
370
371
371
372
372
372
372
373
373
374
374
374
374
374
374
374
374
374
374
374
374
374
375
375
375
375
376
376
377
377
378
378
379
379
380
380
381
382
382
383
384
384
385
385
386
387
387
388
388
389
389
390
390
391
391
391
392
392
393
393
394
394
394
395
395
395
396
396
396
397
397
397
396
396
396
396
396
396
396
396
396
396
396
396
396
396
396
396
396
396
396
397
397
397
397
397
397
397
397
397
397
396
396
396
396
396
395
395
395
395
394
394
394
394
394
394
394
393
393
393
393
393
393
394
394
394
394
394
394
394
394
395
395
395
395
395
394
394
394
394
394
394
394
394
394
394
394
394
394
394
394
394
395
395
395
395
395
396
397
397
398
398
398
399
399
400
400
400
401
401
401
401
401
401
401
401
401
401
400
400
400
400
400
400
400
400
401
401
401
402
403
404
404
405
406
406
407
408
409
410
411
411
412
412
412
412
412
413
413
413
413
413
413
413
412
412
412
412
412
412
412
412
412
412
413
413
413
414
414
414
414
414
415
415
415
415
416
416
416
416
416
416
417
417
417
417
417
417
418
418
418
418
418
418
419
419
419
419
420
420
420
420
421
421
421
422
422
423
423
423
424
424
424
425
425
425
425
425
425
425
425
425
425
425
425
425
425
424
424
424
424
425
425
425
425
425
425
426
426
426
427
427
428
428
429
429
429
430
430
431
431
431
431
432
432
432
432
433
433
433
433
433
434
434
434
434
433
433
433
433
433
433
434
434
434
435
435
435
435
435
435
436
436
436
437
437
437
437
438
438
438
438
438
438
438
438
438
438
438
438
438
438
438
438
438
438
438
438
439
439
439
439
439
439
439
440
440
440
440
440
440
440
439
439
439
439
439
439
439
439
439
439
439
439
439
439
439
439
439
440
440
440
440
440
440
441
441
441
441
441
441
442
442
442
442
443
443
443
444
444
444
445
446
446
447
447
448
448
448
448
449
449
449
450
450
450
449
449
449
449
449
450
450
450
450
450
451
451
451
452
453
453
454
455
455
456
457
458
459
459
460
460
460
461
461
462
462
463
463
464
465
465
466
466
467
467
467
467
467
467
468
468
469
469
470
470
470
470
470
470
470
469
469
469
469
469
469
469
469
469
469
469
469
469
469
469
469
469
469
469
469
469
469
468
468
467
467
467
466
466
465
465
464
464
463
463
462
462
462
462
462
462
462
462
462
462
462
462
462
462
462
462
462
462
462
462
463
463
463
463
463
463
463
462
462
462
462
462
462
462
461
461
461
461
461
461
461
461
460
460
460
460
460
459
459
459
459
458
458
458
458
458
458
458
458
458
458
458
458
458
458
458
458
458
458
459
459
459
459
459
459
460
460
461
461
461
461
461
461
461
461
461
461
461
460
459
459
458
458
458
458
458
458
457
458
458
458
458
458
458
459
459
460
460
461
461
462
462
463
464
465
466
467
469
470
472
474
476
479
482
486
491
496
501
506
511
517
522
528
533
538
543
548
552
556
559
562
564
566
567
568
568
568
567
566
565
563
561
558
556
553
551
549
546
544
542
540
537
535
532
530
527
525
522
520
517
515
512
510
507
505
503
501
499
497
496
494
493
492
490
488
487
485
484
483
482
481
480
479
477
476
475
474
473
472
471
470
469
468
467
467
466
466
465
465
465
464
464
464
464
464
464
464
464
465
465
465
465
465
465
465
465
465
465
465
465
465
465
465
465
466
466
466
467
467
467
467
467
468
468
469
469
469
470
470
470
470
470
470
470
470
470
470
470
470
469
469
469
469
469
469
469
469
469
469
469
469
469
469
469
470
470
470
470
470
470
470
470
470
471
471
471
471
471
471
471
471
471
471
471
471
471
470
470
470
471
471
471
471
472
472
472
472
472
472
472
472
472
472
472
472
472
473
473
473
472
472
472
472
472
471
471
471
471
471
471
471
471
472
472
472
471
471
471
471
471
471
471
471
472
472
472
472
472
472
473
473
474
474
475
475
476
476
477
478
478
479
480
480
481
481
481
482
482
482
482
483
482
482
482
482
482
482
482
482
482
482
481
482
482
482
482
483
483
483
484
484
485
485
486
487
487
488
489
489
490
490
491
491
492
492
493
493
493
494
494
495
495
495
496
496
496
496
497
497
497
498
498
499
499
500
500
501
501
502
502
503
503
504
504
505
505
506
507
507
507
507
508
508
508
508
508
508
508
508
508
508
507
507
507
507
507
507
507
507
507
507
507
507
506
506
506
506
506
506
506
506
507
506
506
506
506
505
505
505
505
504
504
504
504
504
504
505
505
505
505
504
504
504
504
504
504
504
504
504
504
504
504
504
503
503
503
503
502
502
502
502
502
502
501
501
501
501
501
501
502
502
502
502
502
503
503
503
504
504
504
505
505
505
506
506
506
506
506
506
506
507
507
507
508
508
508
508
508
508
508
509
509
509
510
510
510
510
510
511
511
511
511
511
511
512
512
512
512
512
512
512
512
512
512
512
512
512
513
513
513
513
513
513
513
513
513
514
514
514
514
514
514
515
515
515
515
516
516
516
516
516
517
517
517
518
518
518
518
518
518
518
518
519
519
519
519
519
519
520
520
520
521
521
521
522
522
522
523
523
524
524
524
525
525
525
525
525
526
526
526
526
527
527
527
527
527
527
526
526
526
526
525
525
525
525
524
524
524
524
524
524
523
523
523
523
524
524
524
525
526
526
527
527
528
528
529
529
530
530
530
531
531
531
531
531
531
531
531
531
531
532
532
532
532
532
531
531
531
531
530
530
530
530
530
530
530
530
530
530
530
529
529
529
529
529
528
528
528
529
529
529
529
529
529
529
530
530
530
530
530
531
531
531
531
531
532
532
532
532
532
532
532
532
532
531
531
531
530
530
530
530
530
530
530
530
530
530
530
530
530
530
530
530
530
530
530
530
530
530
530
530
531
531
531
531
531
531
531
531
531
531
531
531
531
531
531
531
531
531
531
532
532
533
533
534
534
534
535
535
536
536
537
538
539
539
540
541
542
542
542
542
542
543
543
543
543
544
544
544
545
545
545
544
544
544
544
545
545
545
545
546
546
546
546
547
547
547
547
548
548
548
549
549
550
550
550
550
550
551
551
551
551
551
551
551
551
551
551
551
551
551
551
551
550
550
550
550
550
550
550
550
549
549
548
548
547
547
547
547
546
546
546
545
545
544
544
544
544
544
543
543
543
543
542
542
542
542
542
542
542
541
541
541
540
540
539
539
539
539
538
538
538
537
537
537
537
537
537
536
536
536
536
536
536
536
536
536
535
535
535
535
535
534
534
534
534
534
534
533
533
533
533
532
532
532
532
532
532
532
532
531
531
531
531
531
532
532
532
532
532
532
532
532
532
532
532
532
532
531
531
531
531
531
531
531
530
530
530
530
531
531
532
532
533
533
534
534
534
535
535
535
536
536
537
538
539
541
542
544
546
549
552
556
560
565
570
575
581
587
593
599
606
612
618
623
628
632
636
640
643
645
647
648
649
650
650
649
648
647
645
642
640
637
634
631
629
626
623
620
617
615
612
609
606
603
599
596
593
590
587
584
581
579
576
573
571
569
567
565
563
561
559
557
555
553
552
550
548
547
545
544
543
541
540
538
537
536
535
534
534
533
533
532
532
532
531
531
531
531
531
530
530
530
530
530
530
530
530
530
530
529
529
529
529
528
528
528
528
528
528
528
528
528
528
528
528
528
528
528
528
528
528
528
528
528
528
528
529
529
529
529
530
530
530
530
530
531
531
531
531
532
532
532
532
532
531
531
531
531
531
530
530
530
530
530
530
530
529
529
529
529
529
529
529
529
529
529
528
528
528
528
528
528
528
528
528
528
528
528
528
528
528
528
529
529
529
529
529
529
529
529
529
529
529
529
529
529
529
530
530
530
530
530
530
531
531
532
532
532
533
533
533
533
533
534
534
534
534
535
535
535
535
535
535
535
535
535
535
535
535
535
535
535
535
535
536
536
536
536
536
536
536
537
537
537
538
538
538
539
539
540
540
540
541
541
541
541
541
541
541
541
541
542
542
542
542
542
542
543
543
544
544
544
545
545
545
546
546
547
548
548
549
549
550
551
551
551
552
552
553
553
554
554
554
555
555
555
556
556
556
556
557
557
557
557
558
558
558
558
558
558
559
559
559
559
559
560
560
560
561
561
561
561
562
562
562
562
562
562
562
562
562
562
562
562
562
561
561
561
561
561
561
560
560
560
560
560
560
560
560
560
560
561
561
561
561
561
561
561
561
561
561
561
561
561
561
560
560
560
560
560
559
559
559
558
558
557
557
557
557
557
557
557
557
557
557
557
557
557
558
558
558
558
558
558
558
558
558
559
559
559
559
559
559
559
560
560
559
559
559
558
558
558
558
558
558
558
559
559
559
559
559
559
559
559
560
560
560
560
561
561
561
562
562
562
562
563
563
563
563
563
563
564
564
564
564
564
564
564
564
564
564
564
564
564
563
563
563
563
563
563
563
563
563
563
563
563
563
563
563
563
564
564
564
565
565
566
566
567
567
567
567
568
568
568
569
569
569
569
568
568
568
568
568
568
568
568
567
567
566
566
565
565
565
565
565
565
565
564
564
564
564
564
564
564
564
564
564
565
565
566
566
567
567
568
568
568
569
570
570
571
572
572
573
573
573
573
573
573
573
573
573
573
572
572
572
571
571
570
570
570
569
569
569
569
569
569
569
569
569
569
569
569
570
570
570
571
571
571
572
572
572
572
573
573
573
573
573
574
574
574
574
574
574
574
574
574
574
574
574
573
573
573
573
573
573
573
574
574
574
574
574
574
574
574
574
574
574
574
574
575
575
575
576
576
576
576
577
577
577
577
578
578
578
579
579
580
580
581
581
581
581
581
581
581
581
581
581
581
581
581
582
582
582
582
582
582
582
582
582
582
582
582
582
582
582
582
582
582
582
582
582
582
582
582
582
582
582
582
582
582
582
582
582
582
582
583
583
583
584
584
585
585
586
587
587
588
589
589
590
591
591
591
592
592
592
592
593
593
593
593
593
593
593
594
594
594
594
595
595
595
595
596
596
596
597
597
598
598
599
599
599
600
600
601
601
601
601
601
601
601
601
601
601
601
601
601
601
601
600
600
599
599
598
598
597
596
596
595
595
594
593
593
592
592
592
592
592
591
591
591
591
592
592
592
592
592
592
592
592
592
592
592
592
592
592
591
591
590
590
589
588
587
586
585
584
584
583
582
581
581
580
579
578
578
577
576
576
575
575
575
575
575
575
575
575
575
575
575
575
575
575
575
575
576
576
576
576
576
577
577
577
577
577
577
576
576
576
576
576
576
576
576
576
576
576
576
576
576
576
576
576
576
576
575
575
575
575
574
573
573
572
572
571
570
569
569
568
567
566
565
564
564
563
563
563
562
562
562
563
564
565
567
569
571
574
577
580
584
589
594
599
606
612
619
626
633
639
646
653
659
665
670
675
679
683
686
689
691
693
694
695
695
694
693
692
689
687
684
681
678
675
672
669
666
663
660
657
653
650
646
642
638
635
631
628
624
621
619
616
613
611
608
606
603
601
599
596
594
592
590
588
586
584
583
581
580
579
577
576
575
574
573
572
572
571
571
570
570
570
570
570
569
569
569
569
568
568
567
567
566
566
566
565
565
564
564
563
563
563
563
563
562
562
562
562
562
562
562
562
562
562
562
562
562
562
562
562
562
562
562
562
562
562
562
561
561
561
560
560
560
560
559
559
559
558
558
557
557
557
556
556
556
556
556
556
556
556
556
556
556
556
555
555
554
554
553
552
551
551
550
549
548
546
545
544
543
542
541
540
539
539
538
538
538
538
539
540
541
541
543
544
545
546
548
549
550
551
552
553
553
554
555
555
556
557
557
558
558
558
558
558
558
558
558
558
558
558
558
558
558
558
558
558
558
558
558
558
558
558
558
558
559
559
559
559
559
559
559
559
559
559
559
559
559
559
559
559
559
559
560
560
561
561
562
562
562
563
563
564
565
566
566
567
567
567
567
568
568
568
568
568
568
568
569
569
569
569
569
569
569
569
569
570
570
570
571
571
571
572
572
572
573
573
574
574
575
575
576
577
577
578
579
579
580
580
581
581
582
583
583
584
584
584
585
585
585
585
585
585
585
585
585
584
584
584
584
584
585
585
585
585
585
585
585
585
585
585
585
585
586
586
586
586
586
585
585
585
585
584
584
584
584
584
584
584
583
583
583
582
582
582
582
581
581
580
580
580
580
579
579
579
579
579
578
578
578
578
578
578
578
578
578
579
579
579
580
580
581
581
581
582
582
583
583
584
584
584
585
585
585
585
585
585
585
585
584
584
584
583
582
582
581
581
580
580
580
579
579
579
579
579
578
579
579
579
579
580
580
580
581
581
581
582
582
582
582
583
583
583
584
584
584
584
583
583
583
583
583
584
584
584
584
584
584
584
583
583
583
583
583
583
583
583
583
583
583
583
583
583
583
582
582
582
582
582
582
583
582
582
582
583
583
583
583
583
584
584
584
584
585
585
585
585
585
585
586
586
586
586
586
586
586
586
586
586
586
586
586
586
586
586
586
586
586
586
587
587
588
588
589
589
589
589
589
589
589
589
590
590
590
590
590
590
590
590
589
589
589
589
589
589
589
589
589
588
588
588
588
588
588
589
589
589
589
590
590
590
591
591
591
592
592
592
592
593
593
593
594
594
595
595
596
596
596
596
596
596
596
596
596
596
596
596
596
596
596
595
595
594
594
593
593
593
593
593
592
592
592
592
591
591
591
591
591
591
592
592
592
593
593
594
594
595
595
595
595
596
596
596
596
597
597
597
597
597
597
597
597
596
596
596
596
596
596
596
596
596
596
596
596
596
596
595
595
595
595
595
594
594
594
593
593
593
593
593
593
592
592
592
592
592
592
592
593
593
593
593
594
594
594
594
594
594
594
594
594
594
594
594
593
593
593
593
593
593
593
593
594
594
595
595
596
597
597
597
598
598
598
599
599
600
601
601
602
602
602
603
603
603
603
603
603
604
604
604
605
605
605
606
606
607
607
608
608
608
609
609
608
608
608
608
608
608
607
607
607
607
606
606
606
606
606
605
605
605
605
605
605
605
605
605
605
605
605
605
605
605
604
604
603
603
602
602
601
600
600
599
598
598
597
597
596
596
595
595
595
594
594
593
593
593
593
593
593
592
592
591
591
591
591
590
590
590
589
589
588
588
587
587
587
586
586
585
585
585
585
585
585
585
585
584
584
584
584
583
583
583
583
583
582
582
582
582
581
581
580
580
580
579
579
579
579
579
579
579
579
579
579
580
580
581
581
582
582
583
583
583
584
584
585
585
586
586
586
586
586
586
585
585
584
584
583
583
582
582
581
581
580
580
580
580
579
579
579
579
579
579
579
579
580
580
582
583
585
587
589
592
594
598
601
606
610
616
621
628
634
640
647
653
659
665
670
675
680
684
687
689
691
693
694
694
694
694
693
691
689
687
684
681
677
674
671
668
665
662
660
657
655
652
649
646
644
641
638
636
633
630
628
625
623
621
618
616
614
612
610
608
605
603
601
599
597
596
594
592
591
589
588
587
586
584
583
582
581
580
579
579
578
577
577
577
576
576
576
576
575
575
575
575
575
575
575
575
575
574
574
574
574
574
574
574
573
573
573
573
572
572
572
572
571
571
571
571
571
571
571
571
571
571
571
571
571
571
571
571
571
571
571
572
572
572
572
572
571
571
571
571
571
572
572
572
572
572
573
573
573
573
573
573
573
573
573
572
572
572
572
572
572
571
571
571
571
570
570
570
570
570
570
570
570
570
570
571
571
571
571
571
572
572
572
571
571
571
571
571
571
571
571
571
571
571
571
571
571
571
571
571
571
571
571
571
571
571
572
572
572
572
572
573
573
573
573
573
573
573
573
573
573
573
573
573
573
573
572
572
572
572
571
571
571
571
571
572
572
572
573
573
573
573
574
574
575
576
576
576
576
576
576
576
576
576
576
576
576
576
575
575
575
574
574
575
575
575
575
576
576
576
577
577
578
579
580
580
581
582
582
583
583
584
584
584
584
585
585
586
586
586
587
587
587
588
588
589
589
590
590
591
591
592
592
592
593
593
593
594
594
594
594
594
594
594
594
594
594
594
594
594
594
593
593
593
593
593
593
593
593
593
593
593
592
592
592
592
591
591
591
591
592
592
592
591
591
591
591
591
591
590
590
590
590
590
589
589
589
589
589
589
589
589
589
589
589
588
588
588
588
588
588
588
588
587
587
587
587
587
587
586
586
586
586
586
586
586
586
586
586
585
585
585
585
585
586
586
586
586
586
586
586
586
585
585
585
585
585
585
585
585
585
585
585
585
585
585
585
585
585
585
585
586
586
586
586
586
586
587
587
587
587
587
587
587
587
587
587
587
588
588
588
588
589
589
589
589
589
589
589
590
590
590
590
591
591
591
591
592
592
592
592
592
592
592
592
593
593
593
594
594
594
595
595
595
595
595
594
594
594
594
594
594
593
593
593
592
592
592
592
592
592
592
592
592
592
592
592
593
593
594
595
595
596
596
597
597
597
597
597
597
597
597
597
597
597
597
596
596
596
595
595
594
594
594
594
594
594
594
593
593
593
593
593
593
593
593
593
593
593
593
593
593
593
593
594
594
594
594
594
594
595
595
595
595
595
595
596
595
595
595
595
595
595
595
595
596
596
596
596
596
595
595
595
595
596
596
596
596
596
596
596
597
597
597
597
596
596
596
596
596
595
595
595
595
595
595
594
594
594
594
594
593
593
593
593
593
593
593
593
593
594
594
594
594
594
595
595
595
595
595
595
595
595
596
596
596
596
596
596
596
596
596
596
596
596
595
595
595
595
595
596
596
596
596
596
596
595
595
595
595
595
595
596
596
596
595
595
595
595
595
595
595
594
594
594
594
594
594
594
594
594
594
594
593
594
594
594
594
594
594
594
595
595
595
595
595
595
595
595
595
595
595
595
595
595
595
594
594
594
594
594
594
594
594
593
593
593
593
593
593
594
594
594
594
594
595
595
596
596
597
598
598
598
599
599
600
601
601
602
602
602
603
603
603
604
604
604
604
604
604
604
604
604
604
604
603
603
603
603
602
602
602
602
601
601
601
601
600
600
600
600
600
600
600
600
600
600
600
600
600
599
599
598
598
597
597
596
596
595
595
594
593
592
592
591
590
589
589
588
587
587
586
586
585
585
585
584
584
584
583
583
583
582
582
582
582
582
582
582
581
581
580
580
580
580
580
579
579
579
578
578
578
577
577
577
577
577
577
577
576
576
576
576
576
576
576
575
575
575
574
574
574
574
573
573
573
572
572
572
571
571
571
570
570
570
570
570
570
570
570
570
570
570
570
570
570
570
570
569
569
569
568
568
567
567
566
565
565
564
564
563
563
562
562
561
561
561
561
561
561
561
562
562
563
563
564
565
566
567
568
570
572
574
576
579
582
585
589
593
597
602
608
614
620
626
632
638
643
649
653
658
661
665
667
670
672
673
674
674
673
672
670
668
666
663
659
656
653
649
646
643
640
637
634
631
629
626
623
621
618
615
613
610
608
606
604
602
600
598
596
594
591
589
587
585
583
581
579
577
575
573
572
570
568
567
565
564
563
562
561
560
559
559
558
557
557
557
556
556
556
556
556
556
556
555
555
554
554
553
552
552
551
551
550
550
550
549
549
549
548
548
548
547
547
547
547
547
547
547
547
546
546
546
546
546
546
546
546
546
546
546
546
546
546
546
546
546
546
546
546
546
546
546
546
546
546
546
546
546
546
546
546
546
546
546
546
546
547
547
547
547
547
547
547
547
548
548
548
548
548
548
548
548
548
548
548
548
547
547
547
547
547
547
546
546
546
545
545
545
544
544
544
544
543
543
542
542
541
541
541
541
540
540
540
540
539
539
539
539
539
539
538
538
538
538
539
539
539
539
539
539
539
539
539
540
540
541
541
542
542
542
543
543
543
543
544
544
544
544
544
545
544
544
544
543
543
543
542
542
542
541
541
541
541
541
541
541
541
541
541
541
541
541
541
542
542
542
543
543
543
543
543
543
543
543
543
543
543
543
544
544
544
544
545
545
545
546
546
546
546
546
547
547
547
548
548
549
549
550
550
550
550
550
551
551
551
552
552
553
553
553
554
554
554
554
554
554
554
554
554
554
554
554
554
554
554
553
553
553
552
552
552
552
553
553
553
552
552
552
551
551
551
551
551
551
551
551
551
551
550
550
549
548
548
547
547
547
546
546
546
545
545
544
544
543
543
543
542
542
542
542
542
542
542
542
542
542
541
541
541
541
541
541
541
541
541
541
541
541
541
541
541
541
541
541
542
542
542
542
542
542
542
542
542
542
542
542
542
542
542
542
541
541
541
540
540
540
540
540
540
540
540
540
540
540
540
540
540
540
540
539
539
539
539
539
539
539
539
539
539
539
539
539
539
539
540
540
540
540
540
540
540
540
540
540
540
540
540
540
540
540
540
540
540
540
540
539
539
539
539
539
539
539
539
539
539
539
539
539
539
539
539
539
539
539
539
540
540
540
540
540
540
540
540
540
540
540
541
541
541
541
541
540
540
540
540
540
539
539
539
539
539
540
540
540
540
540
539
539
540
540
540
541
541
541
541
541
541
542
542
542
542
542
542
542
542
542
542
542
542
542
542
542
542
542
543
543
543
542
542
542
542
541
541
541
541
541
540
540
539
539
539
538
538
538
538
538
538
538
537
537
537
537
537
537
537
537
537
537
537
537
537
537
537
537
537
537
536
536
537
537
537
537
537
537
537
536
536
536
536
536
536
536
536
536
536
536
536
535
535
535
535
534
534
534
533
533
533
533
532
532
532
532
532
532
532
533
533
533
533
533
533
533
533
533
533
533
533
533
534
534
534
534
534
534
533
533
532
532
531
531
530
530
530
530
529
529
529
528
527
527
526
526
526
525
525
525
525
525
525
525
525
525
525
525
524
524
524
524
524
524
524
524
524
524
524
524
523
523
523
523
523
523
523
522
522
521
521
521
521
520
520
520
520
519
519
519
519
519
519
519
519
519
519
519
520
520
521
521
522
522
523
523
524
524
525
525
525
526
526
527
527
527
528
528
528
528
528
528
528
528
528
528
528
528
528
528
528
527
527
527
527
526
526
526
526
526
526
526
526
526
526
526
526
526
527
527
527
527
528
528
528
528
528
528
528
528
528
527
527
527
526
526
526
525
524
524
523
522
521
520
520
519
519
518
517
517
516
515
514
514
513
513
513
512
512
512
511
511
511
510
510
509
509
509
508
508
508
508
508
508
507
507
507
507
506
506
506
506
506
506
506
506
506
505
505
504
504
503
503
502
502
501
501
500
499
499
498
497
497
496
495
495
494
494
493
493
493
493
492
492
492
492
491
491
491
491
491
491
491
491
491
491
491
491
491
491
492
492
493
493
492
492
491
491
491
490
490
490
490
490
489
489
488
487
486
485
485
484
483
483
482
482
482
482
482
482
482
482
482
482
482
483
483
483
484
484
485
486
487
489
491
493
495
498
501
504
508
512
517
522
527
533
538
544
549
554
559
564
568
572
575
578
581
582
584
584
585
585
584
583
582
580
578
576
573
570
567
564
562
559
557
554
552
549
546
543
541
538
535
532
529
526
524
522
519
517
515
512
510
508
506
504
501
499
498
496
494
492
490
489
487
485
483
482
480
479
478
477
476
475
474
473
472
471
471
471
470
470
470
470
470
470
470
470
470
470
470
470
469
469
469
469
468
468
468
467
467
466
466
465
465
464
463
463
462
462
461
461
461
461
461
461
461
461
461
461
462
462
462
462
463
463
463
463
463
463
463
462
462
462
462
462
461
461
461
460
460
459
459
458
458
457
457
456
456
455
455
