# Simple Text Format
# Sampling Rate (Hz):= 1200.00
# Resolution:= 12
# Labels:= ECG	 V1
# Age:=	77
# Gender:=	Masculino
-350
-349
-350
-351
-350
-351
-352
-351
-352
-353
-353
-353
-353
-354
-355
-354
-355
-355
-356
-356
-357
-357
-357
-357
-358
-358
-359
-359
-360
-361
-360
-362
-362
-362
-363
-363
-363
-363
-364
-364
-365
-365
-365
-365
-366
-366
-366
-365
-366
-366
-367
-366
-366
-367
-366
-367
-366
-366
-366
-366
-366
-365
-365
-365
-364
-364
-363
-364
-363
-363
-362
-362
-362
-361
-361
-361
-361
-360
-360
-360
-360
-360
-359
-359
-359
-359
-359
-359
-360
-359
-359
-359
-359
-359
-359
-360
-360
-360
-360
-360
-361
-361
-361
-361
-361
-361
-361
-361
-361
-361
-361
-361
-361
-361
-361
-361
-361
-361
-361
-361
-361
-360
-360
-360
-360
-360
-359
-359
-358
-358
-358
-358
-358
-358
-359
-358
-358
-358
-358
-358
-357
-357
-357
-357
-357
-357
-357
-357
-357
-357
-357
-357
-357
-356
-356
-357
-357
-357
-357
-357
-357
-357
-356
-356
-357
-357
-357
-358
-358
-358
-359
-359
-359
-359
-359
-360
-360
-360
-359
-359
-359
-360
-360
-360
-360
-360
-359
-358
-358
-358
-358
-357
-357
-357
-357
-357
-357
-357
-357
-357
-358
-358
-357
-357
-357
-357
-358
-358
-358
-358
-359
-358
-358
-358
-358
-359
-359
-359
-359
-358
-358
-358
-358
-359
-358
-358
-358
-357
-357
-357
-357
-356
-356
-356
-356
-356
-355
-355
-355
-355
-355
-355
-355
-355
-355
-355
-356
-355
-356
-356
-356
-356
-356
-357
-357
-357
-357
-357
-357
-357
-358
-359
-359
-359
-359
-359
-359
-358
-358
-358
-358
-358
-358
-358
-357
-357
-357
-357
-357
-357
-357
-357
-357
-357
-357
-356
-356
-356
-357
-358
-358
-358
-358
-358
-358
-358
-358
-358
-359
-358
-358
-358
-359
-359
-359
-359
-359
-359
-359
-359
-359
-359
-359
-359
-359
-359
-358
-359
-359
-359
-359
-358
-358
-358
-358
-358
-358
-358
-358
-358
-357
-357
-357
-357
-357
-357
-357
-357
-357
-357
-356
-356
-356
-357
-356
-356
-356
-356
-356
-356
-356
-356
-355
-355
-355
-355
-354
-354
-354
-354
-353
-353
-353
-353
-353
-353
-353
-352
-352
-352
-352
-352
-352
-352
-352
-352
-352
-351
-351
-351
-351
-351
-351
-351
-351
-350
-350
-350
-351
-350
-350
-350
-351
-351
-350
-350
-350
-350
-350
-350
-350
-350
-350
-350
-349
-349
-349
-350
-350
-350
-349
-349
-348
-348
-348
-348
-348
-347
-348
-348
-348
-348
-348
-348
-348
-347
-347
-347
-347
-347
-348
-347
-347
-347
-347
-347
-347
-346
-346
-346
-346
-346
-347
-346
-346
-346
-346
-346
-346
-345
-346
-345
-345
-346
-345
-345
-346
-345
-346
-345
-345
-346
-346
-345
-346
-346
-345
-346
-347
-347
-347
-347
-348
-348
-349
-350
-350
-351
-353
-353
-354
-355
-355
-356
-358
-358
-359
-359
-359
-360
-360
-360
-360
-360
-360
-360
-360
-360
-360
-359
-359
-359
-359
-359
-359
-358
-358
-358
-358
-357
-358
-357
-357
-357
-356
-356
-357
-356
-356
-356
-356
-355
-356
-355
-355
-354
-354
-354
-353
-353
-353
-352
-353
-352
-352
-351
-350
-349
-349
-349
-348
-347
-346
-346
-345
-345
-344
-344
-342
-342
-341
-341
-340
-340
-338
-339
-338
-337
-336
-336
-335
-336
-335
-335
-334
-334
-334
-334
-334
-334
-334
-334
-333
-333
-333
-333
-333
-333
-333
-333
-332
-332
-332
-332
-332
-332
-332
-332
-332
-332
-332
-332
-331
-331
-331
-331
-331
-331
-331
-330
-330
-330
-329
-329
-329
-330
-329
-328
-329
-328
-328
-327
-327
-326
-326
-326
-325
-325
-324
-323
-322
-321
-321
-320
-319
-319
-318
-319
-318
-318
-320
-320
-322
-324
-327
-330
-334
-339
-344
-351
-357
-365
-373
-383
-393
-403
-413
-425
-436
-448
-460
-471
-482
-493
-503
-512
-519
-526
-532
-536
-540
-542
-544
-544
-543
-542
-539
-535
-532
-527
-522
-516
-509
-503
-497
-490
-484
-479
-472
-467
-461
-456
-451
-445
-440
-434
-429
-424
-419
-414
-409
-404
-398
-393
-388
-383
-378
-374
-369
-364
-360
-356
-351
-347
-344
-341
-337
-334
-333
-329
-327
-325
-323
-322
-320
-319
-318
-316
-316
-316
-315
-315
-314
-313
-313
-313
-313
-313
-312
-312
-312
-311
-311
-312
-310
-310
-310
-310
-309
-309
-309
-309
-308
-308
-308
-307
-307
-307
-306
-306
-305
-305
-305
-305
-305
-304
-304
-303
-303
-303
-303
-302
-302
-302
-302
-302
-302
-302
-302
-302
-303
-303
-303
-303
-304
-304
-304
-304
-305
-305
-305
-305
-305
-304
-304
-305
-305
-305
-305
-305
-304
-304
-304
-304
-303
-303
-303
-303
-303
-302
-304
-304
-304
-304
-304
-304
-304
-304
-304
-304
-305
-305
-305
-305
-305
-305
-305
-306
-306
-306
-306
-306
-306
-306
-306
-307
-307
-307
-306
-307
-307
-307
-307
-307
-307
-309
-309
-309
-309
-309
-309
-310
-310
-310
-310
-310
-310
-310
-310
-310
-310
-310
-311
-311
-311
-311
-311
-311
-311
-311
-311
-311
-311
-312
-312
-312
-311
-311
-311
-310
-311
-311
-311
-311
-310
-310
-310
-310
-311
-311
-310
-310
-309
-309
-310
-310
-310
-310
-310
-310
-310
-311
-311
-312
-311
-312
-312
-313
-314
-315
-315
-315
-316
-316
-317
-317
-318
-319
-320
-320
-320
-321
-321
-321
-322
-322
-322
-323
-322
-323
-323
-323
-323
-324
-323
-324
-323
-324
-325
-325
-325
-325
-326
-326
-326
-327
-328
-328
-329
-330
-329
-330
-331
-331
-332
-333
-333
-333
-334
-335
-335
-336
-337
-337
-338
-338
-339
-339
-341
-340
-342
-342
-342
-343
-343
-343
-343
-344
-345
-345
-345
-345
-345
-345
-345
-345
-345
-345
-345
-345
-345
-345
-345
-345
-346
-346
-345
-345
-346
-346
-345
-346
-346
-347
-346
-346
-347
-346
-346
-346
-346
-346
-345
-345
-346
-345
-346
-345
-345
-345
-345
-345
-345
-344
-345
-345
-345
-344
-344
-344
-345
-345
-345
-344
-344
-344
-345
-345
-345
-345
-345
-345
-344
-344
-344
-344
-344
-343
-343
-343
-343
-343
-343
-343
-343
-343
-343
-343
-342
-342
-342
-342
-342
-343
-342
-342
-342
-342
-342
-342
-343
-343
-343
-343
-343
-343
-343
-343
-343
-344
-344
-344
-344
-343
-343
-343
-343
-343
-343
-343
-343
-343
-343
-343
-342
-343
-342
-342
-342
-342
-341
-341
-341
-341
-342
-342
-342
-342
-342
-343
-343
-343
-342
-342
-343
-343
-343
-343
-343
-343
-343
-343
-343
-343
-343
-342
-342
-343
-342
-342
-342
-341
-341
-341
-341
-341
-341
-341
-341
-341
-340
-340
-340
-340
-339
-339
-339
-338
-339
-339
-339
-338
-338
-338
-337
-337
-338
-338
-337
-337
-337
-337
-337
-338
-338
-338
-339
-339
-339
-339
-339
-340
-340
-341
-341
-341
-340
-341
-341
-341
-341
-341
-341
-341
-341
-341
-341
-341
-341
-341
-341
-341
-340
-341
-341
-340
-340
-340
-341
-340
-340
-340
-340
-340
-340
-340
-340
-340
-340
-340
-340
-340
-340
-340
-340
-341
-341
-340
-340
-340
-340
-339
-339
-339
-339
-339
-337
-337
-337
-337
-337
-337
-336
-335
-336
-336
-336
-336
-335
-335
-335
-335
-336
-336
-336
-337
-337
-337
-337
-337
-338
-338
-338
-338
-338
-338
-338
-338
-338
-338
-338
-337
-337
-336
-335
-336
-336
-335
-335
-333
-334
-333
-333
-332
-332
-331
-331
-332
-332
-331
-331
-331
-332
-332
-332
-332
-332
-332
-333
-333
-333
-333
-333
-334
-334
-334
-333
-333
-333
-332
-332
-332
-332
-332
-332
-331
-331
-331
-330
-330
-330
-329
-329
-329
-329
-328
-328
-328
-328
-328
-327
-327
-327
-328
-328
-327
-327
-327
-327
-327
-327
-327
-327
-328
-328
-328
-327
-327
-327
-327
-327
-327
-327
-327
-327
-327
-327
-326
-326
-326
-326
-326
-326
-326
-326
-326
-326
-326
-326
-326
-326
-325
-326
-326
-326
-326
-327
-327
-326
-327
-327
-327
-327
-327
-328
-327
-328
-327
-328
-328
-327
-328
-328
-328
-328
-329
-329
-330
-330
-330
-331
-331
-332
-332
-333
-334
-335
-335
-336
-337
-337
-338
-339
-340
-341
-341
-342
-343
-344
-344
-345
-345
-346
-346
-346
-346
-347
-347
-347
-347
-347
-346
-347
-347
-347
-347
-346
-345
-345
-346
-345
-344
-344
-345
-345
-344
-344
-343
-343
-343
-343
-343
-342
-342
-342
-342
-341
-341
-341
-341
-340
-340
-340
-340
-340
-339
-338
-338
-337
-337
-337
-337
-336
-335
-335
-335
-333
-333
-332
-332
-332
-331
-331
-330
-330
-329
-328
-328
-327
-327
-326
-326
-326
-325
-325
-324
-324
-324
-324
-323
-323
-323
-323
-322
-322
-322
-322
-323
-322
-322
-322
-322
-322
-323
-322
-322
-322
-322
-323
-323
-323
-323
-323
-323
-323
-323
-324
-323
-323
-323
-323
-322
-323
-323
-323
-322
-322
-322
-321
-321
-320
-319
-318
-318
-318
-317
-316
-316
-315
-314
-313
-312
-311
-311
-309
-309
-308
-307
-307
-307
-307
-307
-307
-308
-309
-311
-313
-316
-320
-324
-328
-334
-339
-346
-354
-361
-370
-378
-388
-398
-409
-419
-429
-440
-451
-461
-470
-479
-486
-494
-500
-506
-510
-512
-515
-516
-516
-516
-513
-512
-508
-505
-501
-496
-491
-486
-480
-475
-469
-463
-458
-453
-448
-443
-438
-433
-428
-424
-419
-413
-409
-404
-399
-394
-388
-384
-379
-374
-369
-365
-360
-356
-351
-346
-342
-339
-335
-331
-328
-325
-322
-319
-317
-314
-313
-310
-309
-307
-306
-304
-303
-302
-301
-301
-299
-298
-298
-298
-297
-296
-296
-296
-295
-294
-294
-293
-294
-294
-293
-293
-293
-293
-293
-292
-292
-292
-291
-291
-292
-292
-291
-291
-292
-291
-291
-291
-292
-291
-291
-291
-292
-291
-291
-291
-291
-291
-290
-290
-290
-290
-290
-290
-290
-290
-290
-290
-290
-289
-289
-289
-289
-289
-288
-288
-288
-287
-287
-287
-287
-287
-287
-287
-287
-286
-286
-286
-286
-286
-286
-286
-285
-285
-285
-285
-284
-284
-285
-285
-285
-285
-285
-285
-285
-285
-285
-285
-285
-285
-285
-285
-286
-286
-286
-286
-286
-286
-286
-286
-286
-286
-286
-286
-286
-286
-286
-286
-285
-285
-285
-286
-286
-286
-286
-285
-285
-285
-285
-285
-285
-285
-285
-284
-284
-283
-283
-283
-283
-283
-283
-283
-283
-283
-282
-283
-283
-283
-283
-283
-283
-283
-282
-282
-282
-282
-282
-282
-282
-282
-282
-283
-283
-283
-282
-282
-282
-282
-282
-282
-282
-283
-283
-283
-282
-283
-283
-283
-283
-283
-283
-284
-284
-283
-284
-284
-284
-284
-283
-284
-284
-285
-284
-285
-284
-285
-285
-285
-285
-286
-285
-286
-286
-286
-286
-287
-286
-287
-286
-287
-287
-288
-287
-288
-288
-288
-289
-289
-290
-290
-290
-290
-291
-292
-292
-293
-293
-294
-294
-295
-295
-296
-295
-295
-296
-296
-297
-297
-298
-298
-299
-298
-299
-299
-300
-300
-300
-301
-301
-301
-301
-302
-302
-302
-302
-302
-303
-303
-303
-303
-303
-304
-303
-303
-304
-303
-304
-304
-304
-304
-304
-304
-304
-305
-304
-305
-305
-304
-304
-305
-305
-304
-304
-304
-304
-303
-303
-303
-303
-303
-303
-303
-303
-303
-303
-303
-303
-303
-303
-302
-302
-303
-303
-302
-302
-303
-303
-303
-302
-302
-302
-302
-303
-303
-303
-302
-302
-302
-303
-303
-303
-303
-303
-303
-302
-302
-302
-302
-302
-302
-302
-302
-301
-301
-301
-301
-300
-300
-301
-301
-301
-301
-301
-301
-300
-301
-301
-301
-301
-301
-301
-302
-302
-302
-302
-303
-303
-302
-303
-303
-302
-303
-303
-303
-303
-303
-303
-303
-303
-303
-303
-303
-303
-303
-303
-303
-303
-303
-303
-303
-302
-302
-301
-301
-300
-300
-300
-300
-300
-300
-300
-299
-299
-299
-298
-298
-298
-298
-299
-299
-299
-299
-300
-300
-300
-300
-300
-300
-300
-301
-301
-301
-301
-301
-301
-301
-300
-300
-300
-300
-300
-300
-300
-299
-299
-299
-299
-299
-299
-300
-299
-299
-299
-299
-299
-299
-299
-299
-300
-300
-300
-300
-300
-300
-300
-300
-299
-300
-300
-300
-300
-299
-299
-299
-299
-299
-299
-299
-299
-299
-299
-299
-299
-299
-299
-299
-299
-298
-298
-298
-298
-298
-298
-298
-298
-298
-298
-298
-298
-298
-298
-299
-299
-299
-298
-298
-298
-298
-298
-299
-299
-299
-299
-298
-299
-299
-299
-299
-299
-300
-300
-300
-300
-300
-300
-299
-299
-299
-299
-300
-300
-300
-301
-301
-301
-301
-301
-300
-301
-301
-301
-301
-301
-301
-301
-301
-300
-299
-299
-299
-299
-299
-299
-299
-299
-300
-300
-300
-300
-300
-300
-300
-299
-300
-300
-300
-301
-301
-301
-301
-301
-301
-301
-301
-301
-301
-301
-301
-301
-301
-300
-300
-300
-300
-300
-300
-300
-299
-299
-299
-299
-299
-299
-299
-299
-299
-299
-299
-299
-299
-300
-300
-300
-300
-300
-300
-300
-301
-301
-300
-300
-300
-300
-300
-300
-300
-300
-299
-299
-299
-299
-299
-299
-300
-300
-300
-300
-300
-300
-300
-300
-299
-299
-299
-299
-299
-299
-299
-299
-299
-298
-299
-299
-299
-299
-299
-299
-300
-299
-300
-300
-301
-300
-301
-301
-301
-301
-302
-302
-302
-302
-302
-302
-302
-302
-302
-302
-302
-302
-302
-302
-302
-302
-303
-303
-303
-303
-304
-304
-305
-306
-307
-308
-308
-309
-310
-311
-311
-311
-312
-313
-314
-313
-314
-314
-314
-314
-315
-315
-315
-315
-315
-315
-316
-316
-316
-316
-316
-316
-316
-317
-316
-316
-317
-316
-316
-315
-316
-315
-315
-314
-314
-314
-313
-313
-312
-311
-311
-310
-311
-309
-309
-309
-308
-308
-307
-307
-307
-307
-307
-306
-305
-305
-304
-304
-303
-302
-302
-301
-301
-300
-300
-299
-298
-296
-295
-296
-295
-294
-293
-292
-292
-292
-291
-290
-290
-291
-290
-290
-290
-290
-290
-290
-289
-290
-290
-290
-290
-290
-290
-290
-290
-290
-289
-289
-289
-289
-289
-289
-289
-289
-289
-288
-288
-288
-288
-288
-287
-287
-287
-287
-287
-287
-286
-286
-286
-286
-286
-286
-285
-285
-285
-284
-285
-284
-283
-283
-282
-281
-280
-280
-280
-279
-278
-278
-277
-277
-275
-275
-274
-274
-274
-273
-273
-274
-274
-276
-277
-278
-281
-284
-287
-292
-297
-302
-309
-315
-323
-332
-341
-350
-361
-372
-382
-394
-405
-416
-427
-438
-448
-456
-465
-472
-479
-484
-488
-491
-493
-493
-494
-492
-491
-489
-485
-481
-477
-472
-466
-460
-454
-448
-442
-436
-431
-426
-420
-415
-410
-405
-399
-394
-389
-384
-379
-374
-368
-364
-358
-354
-348
-344
-338
-333
-329
-324
-320
-316
-311
-308
-304
-300
-297
-294
-291
-289
-286
-284
-282
-280
-278
-277
-276
-274
-274
-273
-273
-272
-272
-271
-271
-271
-270
-270
-270
-270
-269
-269
-269
-270
-269
-269
-269
-269
-268
-268
-268
-268
-268
-268
-268
-268
-267
-267
-267
-267
-267
-267
-265
-266
-266
-266
-266
-265
-265
-265
-266
-266
-266
-265
-265
-265
-265
-265
-265
-265
-265
-265
-265
-265
-265
-266
-266
-265
-265
-265
-265
-265
-265
-265
-265
-265
-265
-265
-265
-265
-265
-265
-265
-265
-265
-264
-264
-264
-264
-264
-265
-265
-265
-265
-265
-264
-264
-265
-265
-265
-265
-265
-264
-264
-264
-264
-264
-263
-263
-263
-263
-263
-263
-263
-263
-263
-263
-263
-263
-264
-264
-264
-265
-265
-265
-265
-265
-265
-266
-266
-266
-265
-265
-266
-266
-266
-266
-266
-267
-266
-266
-266
-266
-266
-266
-266
-267
-266
-266
-266
-266
-266
-266
-265
-265
-266
-266
-266
-266
-265
-266
-266
-266
-266
-266
-266
-266
-266
-266
-266
-267
-266
-266
-267
-266
-266
-267
-267
-266
-267
-267
-267
-267
-267
-267
-267
-267
-268
-268
-268
-268
-267
-268
-267
-268
-268
-268
-268
-269
-269
-269
-269
-270
-269
-270
-271
-270
-271
-271
-271
-272
-272
-272
-273
-273
-273
-274
-274
-274
-275
-276
-276
-276
-277
-278
-277
-278
-279
-279
-279
-280
-280
-280
-281
-280
-281
-282
-282
-282
-283
-282
-283
-284
-283
-284
-284
-285
-285
-286
-287
-287
-287
-287
-288
-288
-290
-290
-290
-291
-291
-291
-292
-293
-293
-293
-293
-293
-294
-294
-294
-295
-295
-295
-294
-295
-295
-295
-295
-294
-294
-294
-294
-294
-294
-294
-294
-293
-293
-293
-293
-293
-293
-293
-294
-294
-294
-294
-295
-295
-295
-295
-295
-295
-295
-296
-296
-296
-296
-296
-295
-295
-295
-294
-294
-294
-294
-293
-293
-293
-293
-293
-293
-293
-293
-293
-293
-293
-293
-293
-294
-294
-294
-294
-294
-294
-294
-294
-293
-293
-293
-294
-294
-293
-293
-293
-293
-294
-294
-294
-293
-293
-293
-294
-294
-293
-293
-293
-293
-294
-294
-294
-294
-294
-294
-294
-294
-294
-294
-294
-294
-294
-294
-294
-293
-294
-293
-293
-293
-293
-293
-293
-293
-293
-293
-292
-292
-293
-293
-293
-293
-293
-293
-293
-293
-293
-293
-292
-292
-293
-293
-293
-293
-293
-293
-293
-293
-293
-293
-292
-292
-292
-292
-292
-291
-291
-292
-292
-292
-291
-291
-291
-291
-291
-291
-291
-291
-292
-291
-291
-290
-290
-290
-291
-291
-290
-290
-291
-291
-290
-290
-290
-290
-290
-290
-290
-290
-290
-289
-289
-289
-289
-289
-289
-288
-288
-288
-288
-288
-287
-287
-287
-287
-287
-287
-287
-287
-287
-287
-287
-287
-287
-287
-287
-286
-286
-286
-286
-286
-286
-285
-285
-286
-286
-286
-285
-285
-285
-284
-284
-284
-284
-284
-284
-284
-284
-284
-284
-284
-284
-285
-285
-285
-285
-285
-284
-284
-285
-284
-284
-284
-284
-284
-284
-283
-284
-284
-284
-284
-284
-284
-284
-284
-284
-284
-284
-285
-285
-285
-285
-285
-285
-285
-287
-287
-287
-287
-287
-287
-287
-287
-287
-287
-288
-288
-288
-288
-288
-288
-288
-289
-289
-289
-289
-289
-289
-289
-289
-290
-290
-290
-290
-290
-290
-289
-289
-289
-289
-289
-288
-288
-288
-288
-288
-287
-287
-286
-286
-286
-286
-286
-285
-285
-285
-285
-285
-285
-284
-284
-284
-284
-283
-283
-283
-283
-283
-282
-282
-282
-282
-282
-281
-281
-281
-281
-282
-281
-281
-281
-281
-281
-281
-280
-280
-279
-279
-279
-278
-278
-278
-278
-278
-278
-278
-277
-277
-277
-277
-277
-277
-276
-276
-276
-276
-276
-276
-275
-275
-275
-275
-274
-274
-274
-274
-273
-274
-274
-274
-273
-273
-273
-273
-273
-273
-273
-273
-273
-273
-273
-273
-273
-273
-273
-272
-273
-273
-273
-272
-272
-273
-272
-272
-271
-271
-271
-271
-271
-271
-270
-270
-270
-270
-270
-270
-270
-271
-270
-270
-271
-270
-270
-271
-271
-272
-272
-272
-272
-273
-273
-274
-273
-274
-275
-275
-275
-276
-277
-278
-279
-278
-279
-279
-280
-281
-281
-282
-282
-282
-283
-283
-282
-282
-282
-282
-282
-282
-281
-282
-281
-281
-281
-281
-280
-280
-279
-278
-278
-277
-277
-276
-276
-275
-275
-274
-273
-273
-272
-272
-271
-271
-270
-270
-270
-270
-269
-269
-269
-269
-268
-268
-268
-268
-267
-266
-266
-265
-265
-264
-263
-262
-262
-260
-260
-259
-259
-258
-258
-257
-256
-256
-255
-255
-254
-253
-253
-252
-252
-252
-251
-251
-250
-251
-251
-250
-250
-249
-249
-249
-249
-248
-248
-248
-248
-248
-247
-247
-247
-247
-247
-246
-246
-246
-245
-245
-245
-244
-244
-244
-244
-243
-243
-243
-243
-243
-242
-241
-241
-241
-240
-240
-239
-240
-239
-239
-238
-238
-238
-237
-236
-236
-235
-234
-234
-233
-232
-232
-231
-230
-230
-230
-229
-229
-229
-228
-229
-229
-230
-232
-235
-238
-242
-246
-251
-257
-264
-271
-280
-289
-298
-309
-320
-332
-343
-355
-368
-381
-393
-404
-415
-424
-433
-441
-447
-453
-457
-460
-462
-463
-463
-462
-460
-456
-453
-448
-442
-436
-429
-422
-416
-409
-404
-396
-391
-384
-378
-373
-368
-362
-356
-350
-345
-340
-334
-329
-324
-318
-312
-308
-302
-298
-292
-288
-283
-278
-273
-268
-265
-260
-256
-253
-249
-246
-243
-241
-238
-236
-234
-232
-231
-229
-228
-226
-226
-225
-224
-224
-223
-222
-222
-221
-221
-221
-221
-220
-220
-219
-219
-219
-218
-218
-218
-217
-217
-217
-216
-215
-215
-215
-215
-214
-214
-214
-214
-214
-214
-214
-213
-213
-213
-213
-213
-213
-212
-212
-212
-212
-212
-211
-211
-211
-211
-210
-210
-209
-209
-209
-208
-208
-208
-208
-208
-208
-208
-208
-208
-208
-208
-208
-208
-208
-208
-208
-208
-209
-209
-209
-209
-209
-209
-209
-210
-210
-209
-209
-209
-209
-209
-209
-208
-209
-209
-208
-208
-208
-208
-208
-208
-208
-207
-207
-207
-207
-207
-207
-207
-207
-207
-208
-208
-208
-207
-207
-207
-208
-208
-208
-208
-208
-208
-208
-208
-208
-207
-207
-207
-207
-207
-207
-207
-207
-206
-206
-206
-206
-207
-207
-207
-206
-206
-206
-206
-206
-206
-205
-206
-206
-206
-206
-206
-206
-206
-206
-205
-206
-206
-205
-205
-206
-206
-206
-206
-205
-206
-206
-205
-205
-206
-205
-205
-205
-205
-205
-205
-205
-204
-205
-205
-205
-204
-205
-205
-204
-205
-205
-206
-206
-207
-207
-206
-207
-208
-208
-209
-209
-210
-210
-210
-211
-212
-212
-213
-213
-213
-213
-214
-214
-214
-215
-214
-215
-215
-216
-216
-215
-216
-217
-217
-217
-217
-218
-217
-217
-218
-218
-219
-219
-219
-219
-220
-220
-221
-220
-221
-222
-222
-222
-223
-224
-224
-225
-226
-226
-227
-228
-228
-229
-230
-230
-231
-231
-231
-232
-232
-233
-232
-233
-234
-234
-234
-234
-234
-233
-233
-233
-233
-233
-233
-233
-232
-232
-232
-232
-232
-233
-232
-233
-232
-233
-233
-232
-233
-233
-232
-232
-233
-232
-232
-231
-232
-232
-231
-231
-232
-231
-231
-229
-229
-230
-229
-229
-228
-228
-228
-228
-227
-227
-227
-227
-226
-226
-226
-226
-226
-226
-226
-226
-226
-225
-225
-225
-225
-225
-225
-225
-226
-226
-226
-226
-227
-227
-227
-228
-228
-228
-229
-228
-228
-229
-229
-230
-229
-230
-230
-231
-230
-231
-231
-232
-232
-232
-233
-233
-234
-234
-235
-235
-235
-236
-236
-236
-237
-237
-238
-238
-239
-239
-238
-239
-239
-240
-240
-240
-240
-240
-241
-241
-241
-242
-242
-241
-242
-242
-242
-243
-243
-243
-244
-244
-244
-244
-245
-245
-245
-245
-245
-245
-246
-246
-246
-246
-246
-247
-247
-247
-247
-247
-248
-247
-247
-247
-247
-248
-248
-248
-248
-249
-248
-248
-248
-249
-248
-248
-248
-249
-249
-249
-249
-249
-249
-249
-249
-249
-249
-250
-249
-249
-249
-249
-249
-249
-249
-250
-249
-249
-249
-249
-249
-249
-249
-249
-249
-250
-250
-250
-250
-250
-250
-250
-251
-251
-251
-251
-250
-250
-251
-251
-251
-251
-251
-251
-251
-251
-251
-251
-252
-252
-252
-252
-252
-252
-253
-253
-253
-253
-253
-254
-254
-254
-254
-254
-255
-255
-255
-256
-256
-256
-255
-255
-256
-256
-256
-256
-256
-255
-256
-256
-256
-255
-255
-255
-255
-255
-255
-255
-254
-255
-255
-255
-255
-256
-256
-256
-255
-256
-257
-257
-257
-258
-258
-258
-259
-259
-259
-260
-260
-260
-260
-260
-260
-260
-260
-259
-259
-259
-259
-259
-259
-259
-259
-258
-258
-257
-257
-257
-258
-258
-257
-257
-257
-258
-258
-258
-258
-258
-258
-259
-260
-260
-260
-261
-261
-261
-261
-261
-261
-261
-261
-261
-261
-261
-261
-261
-261
-261
-261
-261
-260
-260
-260
-260
-260
-260
-260
-260
-260
-259
-259
-259
-259
-259
-259
-259
-259
-260
-260
-260
-260
-260
-260
-260
-260
-260
-260
-260
-261
-260
-260
-260
-260
-260
-260
-260
-261
-261
-261
-261
-261
-261
-262
-262
-262
-261
-261
-261
-262
-262
-262
-262
-262
-262
-262
-262
-263
-263
-263
-263
-263
-263
-263
-263
-263
-263
-263
-263
-263
-263
-263
-263
-264
-264
-263
-263
-263
-263
-263
-263
-263
-264
-263
-263
-264
-263
-264
-265
-264
-265
-265
-266
-266
-266
-267
-267
-268
-268
-267
-268
-269
-268
-269
-270
-269
-270
-271
-270
-271
-272
-272
-272
-273
-273
-274
-275
-275
-276
-277
-278
-278
-279
-281
-282
-283
-284
-285
-285
-286
-286
-287
-287
-289
-289
-289
-289
-290
-290
-290
-290
-290
-290
-290
-290
-290
-289
-289
-288
-289
-289
-288
-289
-288
-288
-288
-288
-288
-287
-286
-286
-286
-286
-285
-285
-285
-284
-284
-283
-283
-283
-283
-282
-282
-282
-281
-281
-280
-280
-279
-279
-279
-278
-278
-277
-276
-276
-275
-275
-275
-274
-274
-273
-273
-272
-271
-271
-270
-269
-268
-269
-268
-267
-267
-266
-266
-265
-266
-266
-266
-265
-264
-264
-264
-264
-264
-264
-264
-265
-265
-265
-265
-265
-265
-265
-264
-264
-264
-264
-264
-264
-264
-263
-263
-263
-263
-263
-262
-262
-262
-262
-262
-262
-262
-262
-262
-261
-261
-261
-261
-260
-260
-260
-259
-259
-258
-258
-257
-256
-256
-255
-254
-253
-253
-252
-251
-250
-249
-249
-248
-248
-248
-249
-251
-252
-254
-256
-259
-263
-268
-273
-279
-286
-294
-303
-312
-323
-333
-345
-356
-367
-380
-393
-405
-416
-428
-439
-449
-457
-466
-473
-479
-483
-487
-489
-490
-490
-489
-487
-484
-480
-476
-470
-465
-458
-451
-445
-438
-431
-425
-418
-412
-406
-400
-394
-388
-383
-377
-371
-365
-359
-354
-348
-343
-336
-332
-326
-320
-314
-309
-304
-299
-294
-289
-285
-280
-276
-273
-269
-266
-263
-260
-258
-255
-254
-252
-251
-250
-249
-248
-247
-246
-246
-245
-246
-245
-244
-245
-244
-244
-244
-243
-243
-243
-243
-242
-242
-242
-242
-242
-242
-242
-242
-242
-241
-241
-241
-240
-240
-240
-239
-239
-239
-239
-239
-238
-238
-237
-237
-237
-237
-237
-236
-235
-235
-235
-235
-235
-235
-235
-235
-235
-235
-235
-235
-235
-234
-234
-234
-234
-234
-234
-234
-233
-233
-233
-233
-233
-232
-232
-232
-232
-231
-231
-231
-231
-231
-231
-231
-231
-232
-231
-231
-231
-231
-231
-232
-232
-232
-233
-233
-233
-233
-233
-233
-234
-234
-233
-234
-234
-234
-234
-234
-235
-235
-235
-235
-235
-235
-235
-235
-235
-235
-236
-236
-236
-236
-236
-235
-235
-235
-235
-236
-236
-236
-235
-235
-236
-236
-236
-235
-235
-236
-236
-235
-235
-236
-236
-236
-236
-237
-237
-236
-236
-236
-237
-237
-237
-236
-236
-236
-236
-236
-236
-235
-235
-235
-235
-235
-234
-234
-234
-234
-233
-234
-234
-233
-234
-233
-234
-233
-234
-235
-234
-235
-235
-235
-236
-235
-236
-237
-237
-238
-238
-239
-239
-239
-239
-240
-240
-241
-241
-240
-241
-241
-242
-242
-243
-243
-243
-244
-243
-244
-244
-245
-244
-245
-245
-246
-246
-247
-247
-248
-248
-249
-248
-249
-250
-250
-251
-252
-252
-253
-254
-253
-254
-255
-255
-256
-257
-257
-258
-258
-259
-259
-260
-260
-261
-261
-262
-262
-262
-262
-263
-264
-264
-265
-266
-266
-267
-267
-268
-268
-269
-269
-270
-270
-272
-272
-272
-272
-274
-274
-274
-274
-274
-275
-274
-274
-274
-275
-275
-274
-274
-274
-273
-273
-273
-273
-273
-273
-273
-273
-273
-272
-273
-273
-272
-272
-273
-273
-273
-273
-273
-273
-274
-274
-274
-274
-274
-275
-275
-275
-275
-275
-274
-274
-274
-274
-274
-273
-273
-274
-274
-274
-273
-273
-274
-274
-274
-274
-274
-274
-275
-275
-275
-275
-275
-276
-276
-276
-276
-276
-276
-277
-277
-277
-277
-277
-277
-277
-277
-278
-277
-277
-277
-277
-277
-277
-277
-278
-277
-277
-278
-278
-278
-279
-279
-278
-278
-279
-279
-279
-280
-280
-280
-280
-281
-281
-280
-280
-280
-280
-281
-281
-281
-281
-281
-280
-280
-280
-280
-280
-280
-280
-280
-280
-280
-280
-280
-279
-279
-279
-279
-279
-279
-279
-279
-279
-279
-278
-279
-279
-279
-279
-279
-279
-280
-280
-280
-280
-280
-280
-280
-280
-280
-280
-280
-280
-280
-280
-280
-280
-280
-280
-279
-279
-280
-280
-279
-279
-279
-278
-279
-279
-279
-280
-279
-279
-280
-280
-281
-281
-280
-281
-281
-281
-282
-282
-282
-283
-283
-283
-284
-284
-284
-284
-284
-285
-284
-285
-284
-285
-285
-285
-285
-285
-285
-286
-286
-286
-286
-286
-286
-286
-286
-286
-287
-287
-287
-286
-286
-286
-286
-286
-286
-286
-286
-286
-286
-286
-285
-285
-286
-286
-285
-285
-285
-286
-286
-285
-286
-286
-286
-287
-287
-287
-288
-288
-288
-289
-289
-290
-290
-289
-290
-290
-290
-291
-291
-291
-292
-291
-291
-292
-292
-292
-291
-292
-293
-293
-292
-292
-294
-294
-293
-293
-293
-294
-294
-294
-294
-294
-294
-294
-294
-294
-294
-293
-294
-294
-294
-294
-294
-294
-293
-294
-294
-294
-294
-294
-294
-295
-295
-296
-296
-296
-296
-296
-296
-296
-296
-296
-296
-296
-297
-297
-296
-296
-296
-296
-296
-296
-296
-295
-295
-295
-295
-295
-295
-295
-295
-295
-295
-295
-295
-295
-295
-295
-295
-295
-296
-296
-297
-297
-297
-297
-297
-297
-297
-297
-297
-297
-298
-298
-297
-297
-297
-297
-297
-298
-298
-298
-297
-296
-296
-296
-296
-296
-296
-296
-296
-295
-295
-295
-295
-295
-295
-295
-295
-294
-294
-295
-295
-295
-294
-294
-294
-294
-294
-294
-293
-294
-293
-294
-294
-294
-294
-293
-293
-293
-293
-293
-294
-293
-294
-295
-295
-296
-295
-296
-297
-296
-297
-298
-299
-300
-300
-301
-302
-303
-303
-303
-304
-305
-306
-307
-308
-308
-309
-310
-310
-311
-311
-312
-312
-313
-314
-314
-314
-315
-315
-315
-315
-315
-315
-315
-315
-315
-314
-314
-314
-314
-313
-313
-313
-313
-313
-313
-313
-312
-312
-311
-312
-312
-311
-311
-311
-310
-311
-310
-310
-311
-310
-310
-310
-310
-310
-309
-308
-309
-308
-308
-307
-307
-306
-306
-305
-304
-304
-304
-303
-303
-303
-302
-302
-301
-300
-300
-300
-300
-299
-299
-299
-299
-298
-298
-297
-297
-297
-296
-295
-296
-296
-295
-295
-295
-294
-294
-294
-294
-294
-293
-293
-293
-293
-293
-293
-293
-293
-294
-294
-294
-294
-294
-294
-295
-295
-295
-295
-296
-296
-296
-296
-296
-297
-297
-297
-297
-296
-296
-296
-297
-296
-296
-295
-295
-294
-294
-293
-293
-292
-291
-291
-290
-290
-289
-289
-289
-288
-288
-288
-288
-289
-290
-292
-293
-297
-300
-304
-308
-313
-318
-325
-332
-340
-349
-358
-367
-377
-388
-399
-411
-423
-434
-445
-456
-467
-477
-485
-493
-500
-507
-511
-515
-518
-519
-520
-519
-518
-516
-513
-510
-506
-501
-495
-490
-484
-479
-472
-467
-460
-455
-450
-445
-440
-435
-430
-425
-420
-415
-410
-405
-400
-395
-390
-386
-380
-376
-371
-366
-362
-357
-352
-348
-344
-340
-336
-333
-330
-327
-325
-321
-319
-317
-315
-313
-312
-311
-310
-308
-307
-307
-306
-306
-305
-305
-304
-303
-304
-303
-303
-302
-303
-302
-302
-302
-302
-302
-302
-301
-302
-302
-302
-302
-302
-302
-302
-302
-302
-302
-302
-302
-302
-303
-303
-303
-302
-302
-302
-302
-303
-303
-303
-302
-302
-302
-302
-303
-303
-303
-303
-303
-303
-303
-303
-303
-305
-305
-305
-305
-305
-305
-305
-306
-306
-306
-306
-306
-306
-307
-307
-308
-307
-308
-308
-309
-309
-309
-309
-310
-310
-310
-311
-311
-311
-312
-312
-312
-313
-313
-313
-314
-314
-314
-314
-314
-315
-315
-316
-317
-317
-318
-318
-319
-319
-319
-320
-320
-320
-321
-321
-321
-322
-322
-322
-323
-323
-323
-324
-324
-324
-324
-324
-325
-325
-325
-326
-326
-326
-326
-326
-326
-327
-328
-328
-328
-328
-328
-329
-329
-330
-330
-331
-331
-330
-331
-331
-332
-332
-332
-333
-333
-334
-335
-335
-336
-336
-336
-337
-337
-338
-337
-338
-338
-338
-339
-338
-339
-339
-339
-339
-339
-339
-339
-339
-340
-339
-339
-340
-340
-340
-340
-341
-341
-342
-342
-342
-343
-344
-343
-344
-344
-345
-345
-346
-347
-346
-347
-348
-348
-349
-350
-351
-351
-351
-352
-353
-353
-354
-355
-355
-356
-357
-358
-359
-359
-359
-360
-361
-361
-362
-362
-362
-363
-364
-364
-364
-365
-365
-366
-365
-366
-366
-367
-368
-368
-368
-368
-369
-369
-370
-371
-371
-371
-372
-372
-373
-373
-374
-374
-375
-375
-376
-377
-377
-377
-378
-379
-379
-379
-380
-380
-380
-381
-381
-381
-381
-381
-383
-383
-383
-383
-383
-383
-383
-384
-384
-384
-384
-384
-385
-384
-384
-385
-384
-385
-385
-385
-384
-385
-385
-384
-385
-385
-385
-385
-385
-384
-384
-384
-384
-384
-384
-384
-383
-383
-384
-384
-383
-384
-385
-385
-385
-386
-386
-386
-386
-387
-387
-387
-387
-389
-389
-389
-390
-390
-390
-390
-390
-391
-391
-391
-391
-392
-391
-391
-392
-392
-392
-392
-391
-392
-392
-391
-392
-391
-391
-391
-391
-391
-392
-392
-392
-392
-392
-393
-392
-393
-393
-394
-394
-394
-395
-395
-395
-395
-394
-395
-395
-395
-395
-395
-395
-395
-395
-396
-397
-396
-396
-396
-397
-397
-397
-397
-397
-397
-397
-397
-397
-397
-397
-397
-397
-397
-396
-397
-397
-396
-397
-397
-397
-397
-397
-398
-398
-399
-398
-399
-399
-399
-400
-399
-399
-400
-400
-400
-401
-401
-401
-401
-401
-400
-400
-400
-400
-401
-401
-401
-401
-401
-401
-401
-401
-401
-402
-401
-402
-402
-402
-403
-403
-404
-404
-404
-405
-404
-405
-405
-406
-406
-406
-407
-407
-407
-407
-406
-407
-407
-407
-407
-407
-407
-407
-406
-406
-406
-406
-406
-406
-406
-407
-407
-407
-407
-406
-407
-407
-407
-408
-408
-408
-408
-408
-409
-409
-409
-409
-409
-410
-410
-410
-410
-410
-411
-410
-410
-412
-411
-411
-411
-411
-411
-412
-412
-412
-412
-412
-412
-412
-411
-411
-411
-411
-411
-411
-411
-411
-411
-412
-411
-411
-411
-411
-411
-410
-410
-411
-411
-411
-411
-411
-411
-412
-412
-411
-412
-412
-412
-412
-413
-413
-413
-413
-413
-414
-414
-414
-414
-414
-414
-414
-414
-414
-414
-414
-415
-415
-414
-414
-414
-414
-414
-415
-415
-415
-415
-415
-414
-414
-414
-415
-416
-416
-415
-416
-416
-416
-416
-417
-417
-417
-417
-417
-417
-417
-417
-417
-417
-417
-417
-418
-417
-417
-418
-418
-418
-418
-418
-418
-418
-419
-419
-419
-419
-420
-420
-420
-419
-419
-419
-419
-419
-419
-419
-418
-418
-418
-418
-417
-418
-417
-418
-417
-418
-418
-418
-418
-419
-419
-419
-420
-420
-421
-421
-422
-423
-422
-423
-424
-424
-425
-426
-427
-428
-428
-428
-429
-430
-431
-431
-431
-433
-434
-434
-435
-436
-437
-437
-438
-439
-439
-440
-440
-441
-442
-443
-443
-444
-444
-444
-444
-444
-444
-444
-444
-444
-444
-444
-444
-444
-443
-443
-443
-443
-442
-442
-443
-442
-442
-443
-442
-442
-442
-441
-442
-442
-441
-441
-442
-441
-441
-442
-441
-441
-440
-440
-440
-439
-439
-439
-438
-437
-438
-437
-436
-435
-434
-434
-433
-432
-431
-431
-430
-428
-428
-427
-427
-426
-426
-426
-425
-425
-424
-423
-424
-423
-424
-424
-423
-424
-424
-424
-424
-424
-425
-426
-426
-426
-426
-425
-425
-426
-426
-426
-426
-425
-425
-425
-425
-425
-425
-425
-425
-424
-424
-424
-423
-423
-423
-423
-424
-424
-423
-423
-423
-423
-423
-423
-422
-423
-423
-423
-422
-422
-422
-422
-422
-421
-420
-421
-420
-419
-418
-417
-416
-415
-415
-415
-414
-413
-413
-412
-413
-413
-413
-414
-415
-418
-420
-422
-426
-431
-436
-442
-448
-454
-462
-470
-479
-488
-498
-508
-518
-529
-540
-551
-561
-571
-581
-589
-597
-604
-610
-615
-620
-623
-625
-625
-625
-625
-623
-621
-618
-615
-611
-606
-601
-596
-590
-584
-579
-574
-568
-563
-557
-552
-547
-543
-537
-533
-528
-523
-518
-513
-508
-503
-499
-493
-489
-484
-480
-475
-470
-465
-462
-457
-454
-451
-447
-443
-439
-436
-434
-431
-429
-427
-425
-424
-421
-420
-419
-418
-417
-415
-415
-414
-414
-413
-412
-412
-411
-411
-411
-411
-411
-410
-410
-410
-410
-410
-410
-410
-410
-410
-410
-410
-410
-410
-409
-409
-409
-409
-409
-409
-409
-409
-409
-409
-409
-409
-408
-408
-408
-408
-408
-408
-408
-408
-409
-409
-408
-408
-408
-408
-408
-408
-408
-408
-408
-408
-408
-408
-408
-408
-407
-408
-408
-407
-407
-407
-406
-407
-407
-407
-407
-407
-407
-407
-408
-409
-409
-409
-409
-410
-410
-410
-410
-411
-411
-412
-412
-412
-412
-413
-413
-413
-413
-413
-413
-414
-413
-414
-415
-414
-415
-415
-415
-416
-416
-415
-416
-416
-416
-417
-417
-417
-417
-418
-418
-418
-418
-418
-418
-417
-417
-417
-417
-416
-417
-417
-416
-416
-416
-416
-416
-417
-417
-416
-416
-416
-417
-417
-417
-417
-418
-417
-418
-418
-419
-418
-418
-419
-418
-418
-419
-419
-419
-420
-420
-419
-420
-420
-420
-421
-421
-421
-422
-422
-421
-422
-421
-421
-422
-422
-423
-423
-422
-423
-423
-423
-423
-424
-423
-424
-423
-424
-424
-425
-424
-425
-426
-425
-426
-426
-426
-427
-427
-427
-428
-429
-428
-429
-430
-429
-430
-431
-430
-431
-432
-431
-432
-432
-433
-432
-433
-434
-433
-434
-435
-436
-435
-436
-437
-438
-438
-438
-439
-439
-440
-441
-441
-442
-442
-443
-443
-444
-445
-445
-446
-446
-446
-447
-447
-448
-448
-449
-449
-449
-450
-451
-450
-451
-451
-452
-452
-452
-452
-452
-453
-453
-453
-453
-454
-455
-454
-455
-455
-456
-455
-456
-456
-456
-456
-456
-457
-457
-457
-457
-457
-457
-456
-456
-456
-456
-456
-456
-456
-456
-456
-456
-456
-456
-456
-455
-455
-455
-455
-455
-455
-455
-455
-455
-456
-456
-455
-455
-456
-456
-456
-456
-457
-457
-457
-457
-458
-458
-459
-459
-461
-461
-461
-461
-461
-461
-462
-463
-463
-463
-463
-464
-463
-463
-464
-464
-464
-464
-464
-463
-464
-464
-464
-464
-465
-465
-465
-465
-466
-466
-467
-467
-466
-467
-467
-468
-469
-469
-470
-469
-469
-470
-470
-471
-471
-471
-472
-472
-471
-472
-472
-472
-472
-473
-473
-473
-474
-473
-473
-474
-474
-473
-473
-474
-474
-474
-474
-475
-475
-475
-475
-476
-476
-476
-476
-477
-477
-477
-477
-478
-479
-478
-479
-479
-478
-479
-479
-479
-479
-480
-480
-480
-480
-481
-481
-480
-481
-481
-481
-481
-480
-480
-480
-480
-481
-481
-480
-480
-481
-481
-481
-480
-481
-481
-481
-481
-481
-481
-481
-481
-481
-481
-481
-481
-482
-483
-482
-483
-483
-483
-483
-484
-484
-483
-484
-484
-485
-484
-484
-484
-484
-484
-484
-484
-484
-484
-484
-485
-484
-484
-484
-484
-484
-485
-485
-485
-485
-485
-486
-486
-486
-486
-486
-486
-486
-486
-485
-485
-485
-485
-485
-485
-485
-485
-485
-485
-485
-485
-485
-485
-485
-485
-485
-485
-486
-486
-485
-486
-486
-486
-486
-486
-486
-487
-487
-486
-487
-487
-487
-486
-486
-486
-486
-486
-486
-487
-488
-488
-487
-487
-488
-488
-488
-487
-487
-487
-488
-488
-488
-487
-487
-487
-488
-488
-488
-488
-488
-489
-489
-489
-489
-489
-489
-489
-489
-490
-490
-490
-490
-490
-490
-489
-489
-489
-489
-488
-488
-489
-488
-488
-488
-488
-488
-488
-488
-488
-488
-488
-488
-489
-489
-489
-489
-490
-490
-490
-490
-490
-490
-490
-490
-490
-491
-491
-491
-491
-491
-491
-491
-491
-491
-491
-491
-490
-490
-490
-490
-489
-489
-488
-488
-488
-488
-488
-488
-488
-487
-487
-487
-487
-486
-487
-487
-487
-488
-488
-488
-489
-488
-489
-489
-490
-490
-490
-490
-491
-491
-491
-491
-492
-492
-493
-493
-493
-494
-495
-494
-495
-495
-496
-497
-497
-499
-499
-500
-502
-502
-503
-504
-505
-506
-507
-507
-509
-510
-510
-511
-512
-513
-514
-513
-514
-514
-515
-515
-515
-515
-516
-516
-516
-516
-516
-515
-515
-516
-516
-516
-516
-516
-516
-516
-515
-515
-516
-515
-515
-515
-515
-515
-515
-514
-514
-515
-514
-514
-514
-514
-513
-513
-512
-513
-512
-512
-511
-511
-511
-510
-510
-509
-508
-508
-507
-506
-505
-504
-503
-502
-501
-502
-500
-499
-498
-499
-498
-498
-497
-496
-496
-495
-496
-495
-495
-495
-495
-494
-495
-495
-495
-495
-495
-495
-495
-495
-495
-495
-494
-495
-495
-496
-496
-495
-496
-496
-496
-495
-495
-495
-496
-496
-495
-495
-495
-495
-494
-495
-495
-494
-494
-494
-494
-493
-493
-493
-493
-493
-493
-493
-492
-492
-491
-491
-490
-491
-490
-489
-489
-488
-487
-487
-486
-486
-484
-484
-484
-482
-482
-482
-481
-481
-481
-482
-482
-484
-486
-488
-491
-494
-498
-503
-509
-514
-521
-529
-538
-546
-555
-566
-577
-588
-599
-611
-622
-634
-644
-655
-665
-674
-682
-689
-695
-700
-703
-706
-708
-708
-708
-707
-705
-701
-699
-694
-689
-683
-678
-671
-666
-659
-653
-648
-642
-636
-632
-625
-620
-615
-610
-605
-599
-594
-589
-583
-579
-574
-568
-563
-558
-554
-548
-543
-539
-534
-529
-526
-521
-517
-514
-510
-507
-503
-501
-497
-495
-493
-491
-490
-488
-487
-485
-483
-483
-482
-482
-481
-480
-479
-479
-478
-479
-478
-478
-478
-477
-477
-477
-477
-477
-477
-477
-477
-477
-477
-477
-478
-478
-478
-478
-478
-478
-478
-479
-479
-479
-478
-478
-478
-478
-478
-478
-477
-477
-477
-477
-477
-477
-477
-476
-476
-476
-476
-476
-476
-476
-476
-476
-476
-476
-476
-476
-476
-476
-476
-476
-476
-476
-476
-476
-476
-475
-475
-475
-475
-476
-476
-475
-475
-476
-476
-476
-477
-477
-477
-477
-477
-478
-477
-477
-477
-478
-478
-478
-478
-479
-479
-479
-478
-479
-479
-478
-478
-478
-478
-479
-478
-478
-478
-478
-478
-478
-478
-478
-478
-478
-479
-479
-479
-479
-479
-479
-479
-479
-479
-478
-478
-478
-478
-478
-479
-479
-479
-478
-478
-478
-479
-478
-478
-478
-478
-478
-479
-479
-479
-479
-479
-480
-479
-479
-480
-480
-481
-480
-480
-480
-481
-481
-482
-482
-481
-482
-482
-482
-483
-482
-483
-483
-483
-483
-484
-483
-483
-483
-483
-483
-483
-483
-483
-483
-483
-482
-483
-483
-483
-482
-482
-483
-483
-484
-484
-485
-485
-485
-486
-487
-486
-487
-487
-488
-489
-490
-489
-490
-491
-491
-490
-491
-491
-491
-492
-492
-492
-492
-492
-492
-492
-493
-493
-492
-493
-493
-493
-494
-493
-494
-494
-495
-496
-496
-496
-496
-497
-497
-498
-498
-499
-499
-501
-500
-501
-502
-503
-504
-505
-505
-506
-507
-507
-508
-508
-509
-510
-511
-511
-511
-512
-513
-513
-513
-514
-514
-514
-514
-514
-514
-515
-515
-514
-515
-515
-515
-515
-515
-515
-514
-515
-514
-514
-515
-514
-514
-514
-514
-514
-514
-514
-514
-514
-514
-514
-514
-514
-514
-514
-514
-513
-513
-513
-514
-514
-514
-513
-515
-515
-514
-514
-514
-515
-515
-515
-515
-515
-515
-515
-515
-515
-515
-515
-515
-515
-515
-515
-515
-514
-514
-514
-514
-513
-513
-513
-512
-512
-512
-512
-511
-511
-511
-511
-511
-511
-511
-511
-511
-511
-512
-511
-511
-511
-512
-512
-512
-512
-513
-512
-512
-512
-513
-514
-514
-514
-514
-514
-514
-514
-514
-514
-513
-514
-515
-514
-514
-514
-514
-514
-514
-514
-513
-513
-513
-513
-513
-512
-512
-512
-512
-512
-512
-511
-511
-512
-512
-512
-512
-512
-512
-512
-512
-512
-512
-512
-512
-512
-512
-513
-513
-513
-513
-513
-513
-512
-512
-512
-512
-512
-512
-512
-512
-513
-513
-512
-512
-512
-512
-512
-512
-513
-513
-513
-513
-513
-513
-512
-512
-512
-512
-511
-511
-511
-511
-511
-510
-510
-510
-510
-510
-510
-509
-510
-510
-510
-509
-509
-510
-510
-510
-510
-510
-510
-510
-510
-511
-511
-511
-511
-510
-510
-510
-510
-510
-510
-509
-509
-509
-509
-508
-508
-508
-508
-508
-507
-507
-507
-506
-507
-507
-507
-506
-506
-506
-507
-507
-507
-507
-507
-508
-507
-508
-509
-509
-509
-509
-510
-510
-510
-510
-510
-510
-510
-510
-510
-510
-510
-509
-509
-509
-509
-509
-509
-509
-509
-509
-509
-509
-509
-509
-510
-510
-510
-510
-510
-510
-511
-511
-511
-510
-510
-511
-511
-510
-510
-510
-509
-509
-509
-510
-509
-509
-509
-509
-509
-508
-508
-508
-508
-509
-509
-509
-509
-509
-509
-509
-509
-509
-509
-509
-509
-509
-509
-509
-508
-508
-508
-508
-508
-507
-507
-507
-506
-506
-506
-506
-506
-506
-506
-505
-505
-505
-505
-506
-505
-505
-506
-506
-506
-506
-506
-506
-506
-506
-506
-506
-506
-506
-506
-506
-506
-505
-505
-505
-505
-505
-504
-505
-505
-504
-505
-504
-504
-505
-504
-505
-504
-505
-504
-505
-505
-505
-506
-506
-506
-506
-507
-506
-507
-508
-507
-507
-508
-508
-509
-508
-509
-510
-509
-510
-511
-511
-512
-512
-513
-513
-514
-514
-515
-516
-516
-517
-518
-518
-519
-519
-520
-520
-521
-521
-522
-522
-522
-522
-522
-522
-522
-522
-522
-522
-521
-521
-521
-522
-521
-521
-521
-521
-521
-521
-521
-521
-521
-521
-521
-520
-520
-521
-520
-520
-520
-519
-520
-519
-519
-518
-517
-517
-517
-516
-516
-515
-514
-513
-514
-513
-513
-512
-511
-511
-510
-509
-509
-508
-508
-507
-506
-507
-506
-505
-504
-504
-504
-504
-504
-503
-504
-504
-504
-504
-505
-505
-505
-505
-505
-505
-505
-506
-506
-506
-506
-507
-507
-507
-506
-507
-507
-507
-507
-507
-507
-507
-507
-507
-506
-506
-506
-506
-506
-506
-507
-507
-507
-507
-507
-507
-507
-507
-507
-508
-508
-508
-508
-508
-508
-508
-508
-508
-508
-508
-509
-508
-508
-507
-506
-506
-505
-505
-505
-503
-503
-502
-501
-501
-500
-499
-499
-499
-498
-498
-499
-500
-501
-502
-505
-506
-510
-514
-519
-524
-530
-538
-545
-553
-562
-572
-582
-593
-604
-616
-628
-640
-653
-664
-676
-687
-697
-705
-713
-720
-726
-729
-732
-734
-735
-735
-733
-731
-728
-725
-720
-714
-709
-702
-696
-688
-682
-675
-669
-662
-657
-651
-645
-640
-634
-629
-624
-619
-613
-608
-602
-597
-593
-587
-582
-577
-573
-568
-563
-558
-554
-549
-545
-541
-537
-533
-531
-527
-524
-521
-519
-516
-514
-512
-511
-509
-508
-506
-506
-505
-504
-504
-503
-502
-502
-503
-502
-502
-501
-501
-501
-500
-500
-500
-500
-500
-500
-500
-500
-499
-499
-499
-499
-500
-499
-499
-499
-499
-499
-498
-498
-498
-497
-497
-497
-497
-497
-497
-497
-496
-496
-495
-495
-494
-494
-493
-493
-493
-493
-493
-493
-493
-492
-493
-493
-493
-493
-493
-493
-494
-494
-495
-495
-495
-495
-495
-496
-496
-496
-497
-497
-497
-497
-497
-497
-497
-496
-496
-497
-497
-496
-496
-496
-496
-495
-494
-494
-494
-494
-494
-494
-494
-494
-494
-493
-494
-495
-495
-494
-494
-494
-494
-494
-495
-496
-496
-496
-496
-496
-496
-496
-497
-497
-497
-497
-498
-498
-497
-498
-498
-498
-498
-498
-498
-498
-498
-497
-498
-498
-498
-498
-498
-498
-498
-499
-499
-499
-499
-499
-498
-498
-498
-499
-498
-498
-498
-498
-498
-498
-498
-497
-498
-497
-497
-497
-498
-497
-497
-497
-497
-498
-498
-498
-498
-499
-498
-498
-499
-498
-499
-499
-499
-499
-500
-499
-500
-499
-500
-499
-500
-499
-500
-500
-501
-501
-500
-501
-501
-502
-501
-502
-502
-503
-504
-503
-504
-505
-505
-505
-506
-505
-506
-506
-507
-506
-507
-508
-508
-509
-508
-509
-509
-510
-511
-510
-511
-511
-512
-513
-513
-513
-514
-515
-516
-517
-517
-517
-518
-518
-519
-520
-520
-521
-522
-522
-522
-523
-524
-524
-524
-524
-524
-525
-525
-526
-526
-526
-527
-527
-527
-527
-527
-527
-527
-527
-527
-528
-528
-528
-529
-529
-529
-529
-530
-530
-530
-530
-531
-531
-530
-531
-531
-532
-531
-531
-531
-531
-531
-531
-531
-531
-531
-531
-531
-531
-531
-531
-531
-531
-531
-531
-530
-530
-530
-530
-530
-530
-530
-530
-530
-530
-530
-530
-530
-530
-530
-531
-531
-531
-531
-531
-532
-532
-532
-532
-532
-532
-532
-532
-532
-532
-532
-533
-533
-533
-533
-532
-532
-532
-532
-531
-531
-532
-532
-531
-531
-532
-532
-531
-531
-531
-532
-532
-533
-533
-533
-533
-533
-533
-533
-533
-534
-534
-535
-535
-535
-534
-534
-535
-534
-534
-534
-534
-534
-534
-535
-534
-535
-535
-534
-535
-535
-534
-534
-534
-534
-534
-533
-533
-533
-533
-533
-533
-533
-533
-532
-532
-532
-533
-532
-532
-532
-532
-532
-532
-531
-531
-531
-531
-532
-532
-531
-531
-532
-532
-532
-532
-532
-532
-533
-533
-533
-533
-533
-533
-533
-533
-533
-534
-534
-534
-534
-535
-535
-534
-534
-534
-534
-534
-535
-535
-534
-534
-534
-534
-533
-533
-533
-533
-533
-533
-533
-533
-533
-533
-533
-533
-533
-534
-534
-534
-534
-534
-534
-534
-534
-534
-535
-535
-535
-535
-534
-534
-534
-534
-534
-534
-533
-533
-533
-533
-534
-534
-533
-533
-534
-534
-534
-534
-534
-534
-535
-535
-535
-536
-536
-535
-536
-536
-536
-536
-536
-535
-536
-536
-535
-535
-535
-535
-535
-535
-534
-534
-534
-534
-534
-534
-533
-533
-534
-534
-534
-535
-535
-535
-535
-535
-536
-535
-536
-536
-536
-536
-536
-536
-536
-537
-537
-537
-537
-537
-537
-537
-537
-537
-537
-537
-537
-536
-537
-537
-537
-536
-536
-536
-536
-535
-535
-535
-535
-535
-535
-535
-535
-535
-535
-535
-535
-535
-535
-536
-536
-536
-536
-536
-536
-536
-535
-535
-535
-535
-535
-535
-535
-535
-534
-534
-534
-533
-533
-533
-532
-532
-532
-532
-533
-533
-533
-533
-533
-533
-533
-532
-532
-532
-532
-532
-532
-533
-533
-532
-532
-533
-532
-532
-532
-532
-532
-532
-533
-533
-533
-533
-533
-533
-533
-533
-533
-533
-534
-533
-534
-534
-534
-534
-534
-534
-534
-533
-534
-533
-534
-534
-534
-533
-534
-534
-534
-534
-534
-535
-536
-535
-536
-537
-538
-538
-539
-540
-541
-542
-542
-543
-544
-545
-546
-547
-547
-548
-549
-550
-550
-551
-551
-552
-552
-552
-553
-553
-552
-552
-552
-552
-552
-552
-552
-552
-551
-551
-551
-550
-550
-550
-549
-549
-550
-549
-549
-548
-549
-548
-547
-548
-547
-547
-547
-547
-547
-546
-546
-546
-546
-545
-545
-545
-544
-544
-544
-543
-543
-542
-542
-541
-541
-540
-539
-538
-537
-537
-536
-535
-535
-534
-534
-533
-533
-532
-532
-530
-529
-530
-530
-529
-528
-529
-528
-527
-527
-527
-527
-527
-526
-526
-527
-527
-526
-526
-526
-526
-526
-526
-526
-525
-525
-525
-525
-524
-524
-525
-525
-524
-524
-524
-524
-524
-523
-523
-523
-523
-522
-522
-522
-522
-521
-521
-521
-521
-521
-521
-521
-520
-520
-520
-519
-520
-519
-520
-519
-518
-519
-518
-517
-516
-516
-515
-514
-513
-513
-512
-511
-509
-509
-508
-508
-507
-507
-507
-508
-509
-510
-513
-516
-520
-525
-530
-536
-542
-550
-558
-567
-577
-587
-598
-610
-622
-634
-646
-658
-671
-682
-692
-702
-711
-718
-726
-731
-736
-738
-740
-742
-741
-740
-738
-735
-732
-727
-721
-715
-710
-703
-697
-691
-683
-677
-672
-666
-660
-655
-649
-643
-638
-632
-627
-623
-617
-612
-606
-601
-596
-590
-586
-580
-576
-571
-566
-561
-557
-552
-547
-544
-540
-536
-533
-530
-526
-524
-522
-520
-517
-516
-514
-513
-511
-510
-510
-508
-508
-507
-507
-506
-505
-505
-505
-504
-504
-504
-505
-505
-505
-504
-504
-505
-505
-505
-505
-505
-505
-506
-506
-506
-507
-507
-507
-508
-507
-507
-507
-508
-508
-508
-507
-508
-508
-508
-507
-508
-508
-508
-508
-508
-509
-509
-509
-508
-508
-509
-509
-509
-509
-509
-509
-509
-509
-510
-510
-510
-510
-511
-511
-511
-511
-511
-511
-511
-511
-512
-512
-512
-513
-513
-512
-513
-512
-513
-513
-514
-513
-514
-514
-514
-515
-515
-515
-516
-515
-515
-515
-516
-517
-517
-517
-518
-518
-519
-519
-520
-519
-520
-520
-521
-521
-522
-522
-523
-523
-523
-523
-523
-524
-524
-525
-524
-524
-525
-524
-526
-525
-526
-526
-526
-526
-526
-527
-527
-527
-528
-528
-529
-529
-529
-530
-530
-530
-530
-530
-531
-531
-531
-531
-532
-532
-532
-533
-532
-533
-533
-533
-533
-533
-534
-534
-534
-535
-535
-535
-536
-536
-536
-536
-536
-537
-538
-537
-538
-539
-538
-539
-539
-540
-541
-540
-541
-541
-542
-542
-543
-543
-544
-544
-544
-545
-546
-546
-546
-547
-548
-548
-549
-549
-549
-549
-550
-550
-551
-552
-552
-553
-553
-553
-554
-555
-555
-556
-557
-557
-557
-558
-559
-560
-560
-560
-561
-562
-562
-562
-563
-563
-564
-564
-564
-564
-565
-566
-565
-566
-567
-567
-568
-568
-568
-569
-570
-570
-571
-571
-572
-573
-574
-575
-575
-576
-578
-578
-579
-579
-581
-581
-583
-583
-583
-585
-585
-585
-586
-587
-588
-588
-588
-588
-589
-589
-589
-589
-589
-589
-589
-589
-589
-590
-590
-590
-589
-590
-590
-589
-590
-589
-590
-590
-590
-590
-590
-590
-590
-590
-590
-591
-591
-591
-591
-591
-591
-592
-592
-592
-592
-592
-592
-593
-593
-594
-594
-594
-594
-594
-594
-594
-594
-593
-593
-593
-593
-593
-593
-593
-592
-592
-592
-593
-592
-592
-592
-592
-592
-592
-592
-592
-593
-593
-593
-593
-594
-593
-593
-594
-594
-594
-595
-595
-596
-596
-597
-597
-596
-596
-597
-597
-597
-598
-597
-598
-598
-598
-599
-598
-599
-599
-600
-599
-599
-600
-600
-600
-601
-601
-601
-601
-602
-602
-602
-602
-603
-603
-602
-604
-604
-604
-604
-604
-604
-604
-604
-604
-604
-604
-603
-603
-603
-602
-602
-602
-603
-602
-602
-602
-601
-601
-602
-601
-601
-601
-600
-600
-601
-601
-601
-601
-601
-601
-601
-601
-601
-601
-602
-602
-602
-602
-602
-602
-603
-603
-603
-603
-604
-604
-603
-604
-604
-604
-604
-604
-604
-605
-604
-604
-604
-604
-603
-603
-603
-603
-603
-603
-603
-603
-602
-602
-602
-602
-602
-602
-602
-601
-601
-601
-600
-600
-601
-601
-601
-601
-600
-600
-600
-600
-599
-600
-600
-600
-600
-600
-600
-601
-600
-600
-601
-601
-601
-602
-602
-602
-602
-602
-602
-603
-603
-603
-603
-602
-602
-602
-602
-602
-602
-602
-602
-602
-602
-602
-602
-602
-601
-601
-601
-602
-601
-601
-601
-601
-602
-602
-602
-602
-603
-603
-603
-603
-603
-603
-603
-603
-603
-603
-603
-603
-603
-602
-602
-602
-603
-603
-602
-603
-603
-603
-603
-603
-602
-602
-603
-603
-602
-603
-604
-604
-604
-604
-604
-604
-604
-604
-603
-603
-603
-603
-603
-603
-603
-603
-603
-603
-603
-603
-603
-603
-603
-603
-603
-602
-601
-601
-601
-602
-602
-602
-602
-602
-602
-602
-602
-602
-602
-602
-602
-602
-602
-602
-603
-602
-602
-603
-603
-603
-602
-602
-603
-603
-602
-602
-603
-602
-602
-602
-602
-602
-603
-602
-602
-602
-601
-601
-602
-601
-601
-600
-601
-601
-600
-602
-602
-601
-602
-603
-603
-604
-604
-605
-607
-608
-609
-609
-611
-612
-614
-615
-616
-618
-619
-620
-620
-621
-622
-623
-624
-624
-624
-624
-625
-625
-625
-625
-624
-624
-624
-623
-623
-622
-622
-622
-621
-621
-621
-620
-620
-620
-620
-620
-620
-620
-620
-621
-621
-621
-621
-622
-621
-622
-621
-622
-621
-622
-621
-620
-621
-620
-620
-620
-619
-618
-618
-617
-616
-615
-615
-615
-614
-614
-613
-611
-611
-610
-610
-609
-608
-608
-607
-607
-606
-606
-605
-604
-604
-603
-603
-602
-602
-601
-601
-601
-600
-600
-600
-599
-599
-599
-598
-599
-599
-598
-598
-598
-598
-597
-597
-597
-597
-597
-596
-597
-597
-597
-597
-596
-596
-596
-596
-597
-596
-596
-596
-596
-596
-596
-596
-596
-597
-597
-596
-596
-596
-596
-596
-596
-596
-595
-595
-595
-594
-594
-593
-593
-592
-592
-592
-590
-590
-589
-589
-588
-587
-587
-587
-586
-586
-587
-587
-589
-590
-592
-594
-598
-602
-606
-611
-617
-624
-631
-640
-648
-657
-667
-677
-689
-700
-711
-723
-734
-745
-755
-765
-774
-782
-789
-794
-799
-803
-805
-808
-808
-807
-806
-803
-800
-797
-792
-787
-782
-776
-769
-764
-757
-751
-744
-739
-733
-728
-722
-717
-712
-707
-702
-698
-692
-687
-682
-677
-672
-666
-661
-657
-652
-646
-642
-638
-633
-629
-624
-620
-616
-612
-609
-606
-603
-600
-598
-595
-593
-592
-590
-588
-587
-586
-585
-585
-584
-583
-583
-582
-581
-582
-581
-581
-580
-580
-580
-580
-579
-579
-579
-579
-578
-578
-578
-578
-577
-577
-577
-576
-576
-576
-576
-575
-575
-575
-574
-575
-575
-574
-573
-573
-573
-573
-573
-573
-572
-572
-572
-572
-572
-572
-572
-572
-572
-572
-572
-572
-572
-571
-571
-571
-571
-571
-571
-571
-571
-572
-572
-571
-571
-571
-571
-572
-572
-572
-571
-571
-572
-572
-572
-572
-572
-571
-571
-572
-571
-570
-570
-570
-570
-570
-571
-571
-571
-571
-571
-571
-571
-572
-572
-573
-573
-573
-574
-574
-575
-575
-575
-575
-575
-575
-575
-575
-576
-576
-576
-576
-575
-575
-575
-576
-575
-575
-575
-576
-575
-575
-576
-575
-576
-576
-576
-576
-575
-576
-576
-576
-577
-576
-576
-576
-576
-576
-576
-576
-575
-576
-576
-576
-576
-576
-576
-576
-576
-576
-577
-577
-577
-577
-577
-577
-577
-578
-578
-578
-579
-579
-579
-579
-579
-578
-579
-579
-579
-580
-579
-580
-579
-580
-580
-579
-580
-580
-581
-580
-580
-581
-582
-582
-582
-582
-583
-583
-583
-584
-584
-584
-584
-585
-586
-585
-586
-586
-587
-587
-587
-587
-588
-588
-589
-589
-590
-590
-591
-592
-592
-592
-593
-594
-594
-595
-596
-596
-597
-598
-597
-598
-599
-599
-600
-600
-601
-601
-602
-602
-602
-602
-603
-603
-604
-604
-605
-604
-605
-605
-606
-605
-606
-606
-606
-607
-607
-607
-608
-608
-608
-608
-609
-610
-610
-610
-610
-611
-611
-611
-611
-611
-612
-612
-612
-612
-613
-613
-612
-613
-613
-613
-613
-614
-613
-614
-614
-614
-614
-614
-613
-613
-613
-613
-613
-613
-613
-613
-614
-613
-613
-613
-613
-614
-614
-613
-614
-614
-614
-614
-613
-613
-613
-613
-613
-613
-613
-612
-612
-612
-612
-611
-611
-611
-611
-611
-611
-611
-612
-612
-612
-612
-613
-613
-614
-614
-615
-616
-616
-618
-618
-619
-619
-619
-619
-619
-619
-619
-620
-620
-619
-619
-619
-619
-618
-618
-617
-617
-617
-616
-616
-615
-615
-615
-614
-614
-615
-615
-614
-615
-615
-615
-615
-616
-615
-615
-616
-617
-617
-617
-618
-619
-619
-619
-619
-619
-619
-620
-620
-620
-620
-620
-620
-619
-619
-619
-619
-619
-619
-619
-619
-618
-618
-618
-618
-618
-617
-617
-616
-616
-617
-617
-617
-617
-617
-617
-617
-617
-617
-617
-617
-618
-619
-619
-619
-619
-619
-620
-619
-620
-620
-620
-620
-620
-620
-620
-620
-619
-619
-619
-619
-619
-619
-619
-619
-619
-619
-619
-619
-620
-620
-619
-620
-620
-620
-620
-619
-620
-620
-620
-620
-619
-620
-619
-619
-620
-620
-620
-620
-620
-620
-620
-620
-619
-619
-619
-619
-619
-619
-619
-619
-619
-619
-619
-619
-620
-620
-620
-620
-619
-619
-620
-621
-621
-621
-621
-621
-621
-621
-621
-622
-622
-622
-622
-622
-623
-622
-622
-622
-623
-622
-622
-622
-622
-622
-622
-621
-621
-621
-621
-621
-621
-621
-620
-620
-621
-621
-620
-620
-619
-620
-619
-619
-619
-619
-619
-620
-620
-620
-620
-620
-621
-620
-620
-620
-621
-621
-620
-621
-621
-621
-620
-621
-621
-620
-620
-621
-621
-620
-620
-620
-620
-622
-622
-622
-622
-622
-622
-622
-623
-623
-623
-623
-624
-624
-624
-625
-625
-625
-624
-624
-624
-624
-624
-624
-625
-625
-625
-624
-624
-624
-624
-623
-623
-623
-622
-622
-621
-621
-621
-621
-620
-620
-620
-620
-620
-621
-621
-621
-621
-622
-621
-622
-623
-622
-623
-623
-624
-624
-624
-625
-624
-625
-625
-625
-625
-626
-626
-626
-626
-626
-627
-627
-628
-627
-628
-628
-629
-629
-630
-630
-631
-631
-631
-632
-633
-634
-634
-636
-636
-637
-637
-638
-639
-639
-639
-639
-640
-640
-641
-640
-640
-640
-641
-641
-641
-641
-640
-640
-640
-641
-640
-640
-640
-640
-640
-640
-640
-640
-640
-641
-640
-639
-640
-639
-640
-639
-639
-638
-638
-638
-637
-637
-636
-636
-635
-635
-635
-634
-634
-633
-633
-632
-631
-632
-631
-630
-629
-629
-628
-628
-627
-627
-625
-625
-624
-624
-623
-622
-621
-620
-620
-619
-618
-617
-617
-616
-616
-616
-616
-615
-615
-616
-615
-615
-615
-615
-615
-615
-615
-616
-616
-616
-616
-616
-616
-616
-616
-616
-617
-617
-617
-617
-617
-617
-617
-617
-618
-618
-618
-618
-618
-618
-618
-618
-617
-617
-617
-617
-616
-616
-615
-615
-615
-615
-615
-614
-614
-613
-612
-613
-612
-611
-611
-610
-611
-611
-610
-609
-609
-609
-609
-609
-609
-609
-609
-609
-610
-610
-612
-613
-615
-617
-621
-624
-628
-633
-639
-645
-652
-660
-668
-677
-686
-696
-707
-717
-728
-738
-749
-760
-769
-778
-786
-795
-800
-807
-811
-815
-817
-818
-819
-819
-818
-815
-813
-809
-805
-800
-795
-789
-783
-778
-772
-766
-760
-754
-749
-743
-738
-732
-727
-722
-717
-712
-706
-702
-696
-692
-687
-682
-677
-672
-667
-662
-658
-654
-649
-645
-640
-637
-633
-629
-626
-623
-620
-617
-615
-612
-610
-609
-606
-605
-604
-602
-601
-600
-600
-598
-598
-598
-597
-596
-596
-595
-595
-595
-594
-594
-593
-594
-593
-593
-593
-592
-593
-591
-592
-592
-591
-591
-591
-591
-590
-590
-590
-589
-589
-589
-589
-589
-589
-589
-588
-588
-588
-588
-587
-587
-587
-586
-586
-586
-587
-586
-586
-586
-585
-585
-585
-585
-585
-585
-584
-584
-584
-584
-585
-585
-585
-585
-586
-586
-586
-587
-586
-586
-587
-587
-588
-588
-589
-589
-589
-591
-590
-591
-591
-591
-591
-592
-592
-592
-593
-592
-593
-593
-594
-593
-594
-593
-593
-594
-594
-593
-593
-593
-593
-593
-593
-593
-592
-593
-592
-593
-592
-592
-592
-592
-591
-592
-592
-592
-591
-592
-592
-591
-591
-592
-592
-592
-592
-592
-593
-593
-593
-593
-593
-593
-593
-593
-594
-594
-594
-594
-595
-595
-595
-595
-595
-596
-596
-596
-596
-595
-595
-595
-595
-595
-595
-595
-595
-595
-595
-594
-595
-595
-595
-595
-595
-595
-596
-595
-596
-596
-596
-597
-597
-597
-597
-598
-598
-598
-599
-600
-600
-600
-601
-602
-601
-602
-602
-603
-603
-604
-604
-604
-604
-604
-605
-604
-605
-605
-605
-605
-605
-605
-605
-605
-606
-606
-606
-606
-607
-606
-607
-608
-608
-609
-610
-610
-611
-612
-612
-612
-613
-614
-614
-614
-614
-615
-615
-616
-615
-615
-616
-616
-616
-616
-616
-617
-618
-618
-618
-618
-618
-619
-619
-620
-620
-621
-621
-621
-621
-622
-622
-622
-623
-623
-623
-623
-623
-623
-623
-623
-623
-623
-624
-623
-623
-623
-622
-622
-622
-622
-623
-622
-622
-622
-622
-621
-622
-621
-622
-621
-621
-621
-621
-621
-621
-621
-621
-621
-620
-620
-619
-620
-620
-619
-619
-619
-618
-618
-618
-618
-618
-617
-617
-616
-616
-616
-615
-615
-615
-614
-614
-614
-613
-612
-612
-612
-612
-611
-611
-611
-611
-610
-610
-610
-609
-610
-609
-609
-609
-609
-608
-609
-608
-607
-608
-607
-608
-608
-607
-607
-607
-606
-607
-607
-606
-606
-606
-605
-605
-605
-605
-604
-604
-604
-603
-603
-602
-602
-602
-601
-601
-602
-601
-601
-601
-601
-601
-601
-601
-601
-602
-602
-601
-602
-602
-602
-602
-602
-602
-602
-602
-602
-602
-601
-601
-601
-601
-600
-600
-600
-600
-600
-599
-599
-599
-599
-599
-598
-598
-598
-598
-598
-597
-596
-596
-596
-596
-595
-595
-596
-596
-596
-596
-596
-596
-596
-596
-596
-596
-596
-596
-596
-596
-596
-596
-596
-596
-596
-596
-597
-597
-597
-597
-596
-596
-596
-596
-596
-596
-596
-596
-596
-596
-596
-595
-595
-595
-595
-595
-595
-594
-594
-594
-594
-594
-594
-594
-594
-594
-594
-594
-594
-594
-594
-594
-594
-594
-594
-594
-594
-595
-595
-595
-595
-595
-596
-596
-596
-596
-595
-595
-595
-595
-595
-595
-594
-594
-594
-594
-593
-593
-593
-593
-593
-592
-592
-592
-592
-592
-592
-592
-592
-591
-591
-592
-592
-592
-592
-591
-592
-592
-591
-591
-591
-590
-590
-590
-591
-591
-591
-590
-590
-590
-590
-589
-589
-589
-589
-588
-588
-589
-589
-588
-588
-588
-588
-588
-589
-588
-588
-588
-588
-589
-589
-589
-589
-590
-590
-590
-589
-589
-589
-589
-589
-589
-588
-588
-588
-588
-588
-587
-587
-587
-586
-587
-586
-586
-586
-586
-586
-585
-585
-585
-585
-585
-585
-585
-585
-585
-584
-584
-584
-583
-583
-583
-583
-582
-582
-582
-582
-582
-582
-582
-582
-582
-583
-583
-583
-583
-583
-583
-584
-584
-584
-585
-586
-587
-587
-587
-587
-588
-588
-588
-589
-589
-589
-590
-589
-590
-589
-590
-589
-590
-590
-589
-590
-590
-590
-590
-591
-591
-591
-591
-592
-593
-594
-594
-595
-595
-596
-597
-599
-599
-600
-601
-602
-603
-604
-605
-606
-605
-607
-607
-607
-607
-608
-608
-608
-608
-607
-608
-607
-607
-607
-605
-605
-604
-605
-605
-604
-604
-604
-603
-603
-602
-603
-603
-603
-603
-603
-602
-603
-602
-602
-602
-603
-602
-601
-602
-601
-600
-601
-600
-599
-600
-599
-599
-598
-597
-597
-596
-596
-595
-595
-595
-594
-593
-592
-592
-590
-589
-588
-588
-587
-587
-586
-584
-584
-583
-583
-583
-582
-582
-582
-581
-581
-581
-580
-580
-580
-580
-580
-580
-580
-579
-579
-579
-580
-580
-580
-580
-579
-579
-579
-579
-579
-579
-578
-578
-578
-578
-578
-578
-577
-577
-577
-577
-577
-576
-576
-577
-577
-576
-576
-576
-576
-576
-575
-575
-575
-575
-575
-575
-575
-574
-574
-574
-573
-572
-572
-571
-570
-569
-568
-567
-567
-565
-565
-565
-564
-564
-564
-564
-565
-565
-566
-568
-570
-572
-575
-579
-584
-588
-594
-601
-607
-615
-623
-631
-641
-650
-662
-672
-683
-694
-705
-716
-727
-737
-746
-755
-762
-769
-775
-779
-783
-785
-786
-787
-786
-784
-782
-779
-775
-771
-766
-761
-755
-748
-743
-737
-731
-725
-719
-715
-709
-704
-699
-694
-689
-684
-680
-674
-670
-665
-659
-654
-649
-644
-640
-634
-629
-625
-620
-615
-611
-607
-603
-599
-596
-592
-589
-586
-583
-581
-578
-576
-573
-572
-570
-568
-568
-566
-566
-564
-563
-563
-562
-562
-561
-561
-560
-560
-561
-560
-560
-560
-560
-560
-560
-560
-560
-560
-559
-559
-559
-559
-559
-559
-558
-559
-559
-558
-558
-557
-557
-557
-557
-556
-556
-556
-556
-556
-555
-555
-555
-554
-554
-554
-554
-554
-554
-554
-554
-554
-554
-555
-555
-555
-555
-555
-555
-555
-556
-556
-556
-556
-556
-556
-557
-557
-556
-557
-557
-557
-557
-557
-557
-557
-557
-557
-557
-557
-557
-557
-557
-556
-556
-556
-556
-557
-558
-558
-558
-557
-558
-558
-558
-558
-559
-558
-559
-559
-560
-560
-560
-561
-561
-562
-562
-562
-563
-563
-563
-563
-564
-564
-565
-565
-565
-564
-565
-565
-565
-566
-566
-565
-566
-566
-566
-566
-567
-567
-568
-568
-568
-568
-568
-569
-569
-570
-571
-571
-571
-571
-571
-572
-572
-571
-571
-571
-571
-571
-572
-572
-572
-572
-572
-572
-573
-573
-573
-573
-573
-574
-574
-575
-574
-575
-575
-576
-575
-576
-577
-577
-577
-577
-578
-578
-578
-578
-579
-579
-579
-579
-579
-580
-580
-580
-581
-580
-581
-581
-582
-582
-582
-583
-584
-583
-583
-584
-585
-585
-586
-586
-586
-586
-587
-588
-589
-589
-590
-590
-591
-592
-591
-592
-593
-594
-595
-596
-596
-597
-597
-598
-598
-599
-600
-599
-600
-601
-601
-601
-602
-602
-603
-604
-604
-605
-606
-607
-607
-607
-609
-609
-610
-611
-612
-612
-613
-614
-615
-615
-616
-616
-617
-617
-617
-617
-617
-617
-618
-618
-618
-618
-619
-619
-619
-619
-619
-619
-619
-619
-620
-620
-620
-620
-620
-620
-621
-621
-621
-621
-620
-620
-621
-621
-621
-621
-622
-623
-624
-624
-623
-623
-624
-624
-625
-626
-626
-626
-626
-627
-627
-626
-626
-627
-627
-627
-627
-627
-627
-627
-627
-628
-628
-628
-628
-627
-627
-627
-627
-627
-627
-627
-627
-627
-628
-627
-627
-627
-627
-627
-627
-627
-627
-628
-628
-628
-628
-629
-629
-630
-630
-631
-631
-630
-632
-632
-632
-633
-633
-633
-633
-634
-634
-634
-634
-634
-633
-633
-633
-633
-633
-633
-633
-633
-632
-633
-632
-632
-632
-633
-633
-633
-633
-633
-633
-633
-634
-634
-634
-634
-634
-634
-635
-635
-636
-636
-636
-636
-637
-637
-636
-636
-636
-637
-637
-637
-637
-637
-637
-637
-637
-637
-637
-637
-638
-638
-638
-638
-638
-638
-638
-638
-638
-639
-639
-638
-638
-639
-639
-639
-639
-639
-640
-640
-639
-640
-640
-640
-640
-640
-640
-640
-641
-641
-640
-640
-640
-640
-641
-640
-640
-640
-640
-640
-640
-641
-641
-642
-641
-641
-641
-641
-641
-641
-641
-641
-642
-641
-641
-641
-641
-641
-641
-641
-641
-641
-641
-641
-641
-642
-642
-642
-642
-643
-643
-643
-644
-644
-643
-645
-645
-645
-645
-646
-646
-647
-647
-647
-647
-647
-648
-648
-648
-648
-648
-649
-649
-649
-649
-649
-650
-650
-650
-649
-649
-649
-649
-650
-650
-650
-650
-650
-650
-650
-650
-650
-651
-651
-652
-651
-651
-651
-651
-652
-652
-652
-652
-653
-653
-653
-653
-653
-652
-652
-652
-653
-653
-653
-653
-653
-653
-653
-653
-653
-653
-653
-654
-654
-654
-654
-654
-654
-654
-654
-654
-654
-654
-654
-654
-654
-653
-653
-653
-653
-653
-652
-653
-653
-653
-653
-653
-653
-653
-654
-653
-654
-654
-654
-655
-655
-655
-655
-655
-654
-655
-655
-655
-655
-655
-654
-654
-654
-654
-654
-654
-654
-654
-654
-653
-653
-653
-653
-653
-653
-653
-653
-653
-653
-654
-654
-654
-654
-655
-655
-655
-654
-654
-654
-654
-654
-654
-654
-654
-654
-654
-653
-654
-653
-653
-653
-653
-654
-653
-653
-653
-653
-654
-653
-654
-654
-654
-655
-654
-655
-656
-656
-657
-657
-657
-657
-658
-659
-659
-659
-660
-661
-661
-662
-663
-664
-664
-665
-665
-666
-667
-668
-668
-669
-669
-670
-670
-671
-671
-671
-672
-672
-672
-672
-672
-672
-672
-672
-672
-672
-673
-672
-672
-672
-672
-672
-673
-673
-673
-673
-673
-673
-673
-672
-672
-672
-672
-671
-671
-670
-671
-670
-669
-669
-668
-667
-667
-666
-665
-664
-664
-663
-663
-662
-662
-661
-661
-661
-660
-660
-659
-659
-658
-658
-658
-657
-657
-656
-656
-656
-655
-654
-654
-653
-653
-652
-651
-651
-650
-650
-650
-649
-649
-649
-648
-648
-647
-648
-648
-648
-648
-648
-649
-648
-648
-648
-647
-647
-647
-647
-646
-647
-647
-645
-646
-645
-645
-644
-644
-644
-643
-643
-643
-642
-642
-642
-641
-641
-641
-641
-641
-641
-641
-641
-641
-641
-641
-641
-642
-642
-641
-642
-641
-641
-641
-641
-640
-639
-639
-638
-638
-637
-636
-634
-634
-632
-632
-631
-629
-629
-630
-629
-629
-631
-632
-633
-636
-639
-643
-647
-652
-659
-665
-674
-682
-691
-701
-712
-722
-734
-746
-758
-771
-783
-795
-807
-817
-827
-835
-844
-850
-856
-860
-863
-866
-866
-866
-866
-863
-860
-856
-852
-846
-841
-834
-828
-822
-815
-809
-802
-795
-790
-784
-778
-772
-767
-761
-756
-750
-745
-739
-734
-728
-723
-717
-711
-706
-700
-696
-690
-686
-681
-676
-671
-667
-663
-660
-656
-653
-648
-646
-643
-641
-639
-636
-635
-633
-631
-631
-629
-629
-628
-627
-627
-626
-626
-626
-625
-624
-625
-624
-624
-624
-623
-624
-623
-624
-623
-623
-623
-623
-622
-622
-622
-622
-622
-622
-621
-621
-621
-622
-621
-621
-621
-621
-620
-620
-620
-620
-620
-620
-620
-619
-619
-619
-619
-618
-618
-618
-618
-618
-617
-617
-617
-617
-617
-617
-618
-618
-617
-617
-617
-618
-618
-619
-619
-619
-619
-619
-619
-619
-619
-620
-619
-619
-619
-618
-618
-618
-617
-617
-618
-618
-617
-617
-617
-617
-618
-618
-618
-618
-618
-618
-618
-618
-619
-619
-619
-619
-620
-619
-619
-620
-620
-620
-620
-620
-620
-619
-619
-619
-620
-620
-620
-620
-620
-620
-620
-620
-620
-621
-621
-622
-622
-622
-622
-622
-622
-622
-622
-622
-622
-622
-622
-622
-622
-622
-622
-622
-622
-621
-622
-621
-622
-621
-622
-622
-623
-623
-622
-623
-623
-623
-623
-624
-624
-624
-624
-624
-624
-624
-624
-624
-624
-624
-624
-624
-624
-624
-624
-624
-624
-624
-624
-624
-624
-624
-624
-625
-625
-626
-626
-627
-627
-628
-628
-628
-628
-629
-629
-629
-630
-630
-630
-630
-631
-631
-631
-631
-630
-631
-630
-631
-631
-631
-632
-632
-632
-633
-632
-633
-633
-633
-633
-633
-634
-635
-635
-635
-635
-636
-636
-637
-636
-637
-638
-638
-639
-638
-639
-639
-640
-641
-641
-642
-642
-643
-643
-643
-644
-644
-645
-645
-645
-645
-646
-647
-647
-647
-647
-649
-649
-649
-648
-649
-649
-649
-650
-650
-651
-651
-651
-651
-651
-651
-651
-651
-651
-651
-652
-651
-651
-651
-651
-650
-651
-650
-651
-650
-651
-650
-650
-650
-650
-649
-650
-649
-649
-649
-649
-649
-649
-648
-648
-648
-648
-648
-648
-648
-648
-648
-648
-648
-648
-648
-648
-647
-647
-648
-648
-648
-648
-648
-648
-648
-648
-647
-647
-648
-648
-648
-648
-647
-647
-647
-647
-647
-647
-646
-647
-647
-647
-646
-646
-646
-646
-646
-646
-646
-645
-645
-645
-645
-645
-645
-645
-645
-645
-646
-646
-645
-645
-645
-645
-645
-645
-645
-645
-645
-645
-645
-645
-645
-644
-644
-644
-643
-643
-643
-643
-643
-643
-642
-642
-642
-642
-642
-642
-642
-642
-642
-642
-642
-642
-643
-643
-643
-643
-643
-643
-643
-643
-643
-643
-643
-643
-643
-643
-643
-642
-642
-642
-642
-642
-642
-642
-642
-641
-641
-641
-641
-641
-641
-640
-640
-640
-639
-639
-639
-640
-639
-639
-639
-638
-639
-639
-639
-639
-638
-638
-638
-638
-638
-638
-638
-638
-638
-637
-637
-637
-636
-636
-635
-635
-635
-635
-634
-634
-634
-634
-633
-633
-633
-633
-632
-632
-632
-632
-632
-632
-632
-632
-632
-632
-632
-632
-633
-633
-633
-633
-634
-634
-633
-633
-633
-634
-634
-634
-634
-633
-634
-634
-634
-634
-634
-632
-632
-633
-632
-632
-632
-631
-631
-631
-631
-631
-630
-631
-630
-630
-630
-630
-629
-629
-629
-630
-630
-628
-628
-628
-628
-628
-628
-627
-628
-627
-626
-627
-627
-627
-626
-626
-625
-625
-624
-625
-625
-625
-625
-625
-625
-625
-624
-625
-625
-624
-624
-624
-624
-623
-623
-623
-623
-623
-622
-622
-621
-621
-621
-621
-621
-620
-620
-621
-621
-621
-621
-620
-620
-620
-620
-620
-620
-620
-620
-619
-620
-619
-619
-620
-619
-619
-619
-619
-618
-618
-619
-619
-618
-619
-619
-618
-618
-619
-619
-618
-618
-618
-616
-616
-616
-616
-615
-615
-614
-614
-614
-613
-613
-612
-612
-612
-611
-611
-610
-611
-610
-610
-610
-609
-609
-609
-609
-608
-609
-609
-608
-608
-609
-608
-608
-608
-608
-607
-607
-607
-607
-606
-606
-606
-606
-606
-606
-605
-605
-605
-605
-605
-604
-604
-605
-604
-604
-604
-604
-604
-604
-604
-604
-604
-605
-604
-604
-603
-603
-603
-603
-603
-603
-603
-603
-603
-603
-603
-603
-602
-602
-602
-603
-603
-603
-603
-604
-604
-604
-605
-606
-605
-606
-607
-607
-608
-609
-608
-609
-610
-611
-610
-611
-611
-611
-612
-611
-611
-611
-611
-612
-612
-611
-611
-610
-609
-609
-609
-608
-607
-607
-606
-606
-605
-604
-604
-603
-603
-602
-602
-601
-601
-600
-601
-600
-600
-599
-599
-598
-598
-597
-597
-597
-596
-596
-596
-595
-594
-594
-593
-592
-591
-590
-590
-589
-588
-587
-586
-586
-585
-584
-584
-582
-581
-581
-580
-579
-578
-578
-578
-577
-577
-576
-576
-576
-575
-575
-575
-574
-573
-574
-573
-573
-574
-573
-573
-572
-573
-573
-573
-572
-572
-572
-571
-571
-571
-571
-571
-570
-570
-570
-569
-569
-568
-568
-568
-567
-568
-567
-566
-566
-566
-566
-566
-566
-565
-565
-565
-564
-564
-563
-563
-562
-562
-561
-561
-560
-559
-558
-557
-555
-555
-554
-552
-551
-550
-549
-548
-547
-546
-546
-544
-545
-544
-544
-545
-546
-547
-550
-552
-555
-559
-564
-569
-575
-582
-590
-598
-607
-617
-627
-638
-649
-660
-672
-684
-696
-707
-719
-728
-738
-746
-754
-760
-765
-769
-773
-774
-776
-775
-774
-772
-769
-765
-761
-756
-750
-744
-738
-732
-725
-719
-713
-707
-700
-695
-689
-684
-678
-672
-666
-660
-655
-649
-644
-637
-632
-627
-621
-616
-610
-605
-599
-594
-589
-585
-580
-576
-572
-568
-564
-561
-557
-555
-552
-549
-547
-546
-544
-542
-541
-540
-539
-538
-538
-537
-537
-536
-535
-535
-535
-534
-534
-535
-534
-534
-534
-534
-534
-534
-533
-533
-533
-533
-532
-532
-531
-531
-531
-530
-529
-530
-529
-528
-528
-527
-527
-526
-525
-526
-525
-525
-524
-524
-524
-523
-523
-523
-523
-523
-522
-522
-522
-522
-522
-522
-522
-522
-522
-522
-522
-522
-522
-522
-521
-521
-522
-522
-521
-522
-521
-521
-522
-521
-522
-522
-521
-522
-521
-522
