# Simple Text Format
# Sampling Rate (Hz):= 1200.00
# Resolution:= 12
# Labels:= ECG	aVF
# Age:=	74
# Gender:=	Masculino
559
560
561
562
563
563
563
563
564
566
567
567
568
569
570
571
572
573
573
573
574
575
577
578
578
579
579
580
581
583
584
584
584
585
586
588
589
589
590
590
591
593
594
595
596
596
596
596
597
598
599
600
600
600
600
601
602
602
602
602
601
602
602
603
603
602
601
602
603
603
603
603
602
602
602
602
603
602
601
601
600
600
601
601
600
600
599
599
599
599
599
598
597
597
597
597
597
597
596
595
595
595
596
596
595
594
594
594
594
595
595
594
594
593
594
594
595
595
594
594
594
594
594
595
594
594
594
594
594
595
595
595
594
594
594
595
595
595
595
594
594
594
594
595
594
594
594
594
594
595
596
595
595
595
595
596
596
596
596
595
595
596
596
596
596
595
594
594
594
594
594
594
593
593
593
594
594
594
594
593
592
593
594
594
593
593
592
592
592
592
592
591
591
590
590
590
590
589
588
587
586
586
586
586
585
583
583
582
582
582
581
581
580
579
578
578
578
577
576
574
574
573
574
574
573
572
571
571
572
572
572
572
571
571
571
572
572
572
572
572
572
572
573
574
574
573
573
574
575
575
576
575
575
575
575
576
577
577
577
576
576
576
577
577
577
576
575
575
575
576
576
576
575
575
575
576
576
576
576
575
575
575
576
576
576
576
575
575
576
576
577
577
576
576
576
577
578
577
576
576
576
577
577
578
578
578
578
578
579
580
581
582
582
582
584
586
588
589
590
591
593
595
597
600
601
603
605
607
610
613
615
617
619
622
624
627
630
632
634
635
637
640
643
645
647
648
649
650
652
654
655
656
656
657
658
659
660
660
660
660
660
661
663
664
664
664
665
666
667
668
669
670
671
671
672
674
675
675
674
674
673
673
672
672
670
667
665
663
661
658
656
652
648
645
642
639
636
632
628
624
620
617
614
611
607
603
599
596
593
590
587
584
580
576
573
570
568
565
561
557
554
552
549
547
544
541
538
536
534
532
530
528
526
523
522
521
520
518
516
514
512
511
511
510
509
508
507
506
506
507
507
507
507
508
510
512
514
517
518
520
522
525
528
531
534
536
539
542
545
548
550
552
553
555
557
558
560
561
561
561
562
563
564
565
565
564
564
564
565
566
566
566
566
566
566
567
567
567
567
566
566
566
567
567
566
565
565
565
565
565
565
565
564
563
563
564
564
564
563
562
562
563
563
563
562
562
561
561
561
562
562
561
561
561
561
561
561
561
560
560
559
560
561
561
561
560
560
560
560
560
560
560
559
559
559
559
559
559
558
558
557
558
558
558
558
557
557
557
558
559
559
559
558
558
559
560
560
560
560
559
559
560
561
561
561
560
560
560
560
561
561
561
561
561
562
563
564
564
563
563
563
564
565
566
566
566
566
567
567
568
569
569
569
569
569
570
571
571
571
571
571
572
573
574
574
574
574
574
575
575
576
576
576
576
577
579
579
580
580
580
580
582
583
583
584
584
584
585
586
588
589
590
590
590
592
593
594
595
595
596
597
598
599
600
600
600
600
601
602
602
603
603
603
603
603
604
604
604
603
603
603
603
603
603
603
603
602
602
602
603
603
602
601
601
601
601
601
601
600
599
598
598
599
599
598
597
596
596
596
596
596
595
594
594
594
594
594
593
592
591
591
591
592
592
592
591
590
590
590
591
591
591
590
590
590
591
591
591
590
589
589
590
590
591
590
590
590
590
591
591
592
591
591
591
591
592
592
592
592
591
591
591
592
592
591
591
590
590
590
590
590
590
589
589
589
590
590
589
589
588
588
589
589
590
590
589
589
589
589
590
590
589
588
588
589
589
589
588
587
586
586
586
586
586
585
584
583
583
583
584
583
583
582
581
581
581
581
580
579
578
577
577
578
577
576
575
574
574
574
574
573
572
571
571
571
572
572
572
571
571
570
571
572
572
571
571
570
570
571
571
571
570
570
570
570
571
571
571
570
569
569
569
570
571
570
570
569
569
569
570
570
569
569
568
568
569
569
569
568
567
567
568
568
569
568
568
568
568
568
569
569
569
569
569
569
570
570
570
569
569
568
569
570
570
569
569
568
568
568
569
569
568
568
568
568
569
570
570
569
569
569
570
571
572
572
572
573
573
574
576
577
577
577
578
580
582
584
585
586
588
590
592
594
597
599
600
602
605
608
611
614
616
619
621
625
628
631
634
635
637
639
642
645
647
649
650
652
653
656
658
659
659
660
660
662
664
665
665
666
666
667
668
670
672
673
674
675
676
678
680
681
682
682
683
684
685
685
685
683
682
680
679
678
676
673
670
666
663
660
657
654
649
645
641
637
634
630
626
621
617
613
609
606
602
598
594
590
586
583
579
576
572
568
565
562
559
557
554
550
547
544
542
540
538
535
532
530
528
526
525
523
520
518
515
514
512
511
509
506
504
503
502
501
500
500
498
497
498
498
499
500
500
501
502
505
507
510
512
514
515
518
522
525
528
530
532
534
536
539
541
543
544
545
546
547
549
550
551
551
551
551
552
553
553
553
552
552
552
552
553
553
552
551
551
552
552
553
552
552
551
551
551
552
552
552
551
550
550
551
551
552
551
551
551
551
551
551
551
550
549
548
548
548
548
548
547
546
545
546
546
546
545
545
544
545
545
546
545
545
544
544
545
546
546
545
545
544
545
545
545
546
546
545
545
545
546
546
546
546
545
545
546
547
547
546
546
545
546
546
546
547
546
546
545
546
547
547
547
546
546
546
546
547
547
547
546
545
545
546
546
546
546
545
545
545
546
546
546
545
545
545
546
546
547
547
547
547
548
549
550
551
551
551
552
553
554
555
555
555
555
555
556
557
558
558
558
557
558
559
560
561
561
561
561
563
564
565
565
565
565
565
567
569
570
570
571
571
572
573
575
576
577
577
577
579
581
582
582
583
583
584
585
586
587
587
587
587
588
588
589
589
589
589
589
589
590
590
590
589
589
588
588
589
589
589
588
588
588
588
588
588
587
587
586
587
587
587
587
586
585
584
584
584
584
583
582
581
580
580
580
580
579
578
577
577
578
578
577
576
575
575
576
576
576
576
575
575
576
577
577
577
577
576
576
577
578
578
578
577
576
576
577
578
578
578
577
577
577
577
578
578
577
577
576
577
577
577
576
576
575
575
575
576
576
576
575
575
575
575
576
576
575
575
575
576
576
577
576
576
575
575
576
577
577
577
577
576
576
576
576
576
576
576
575
575
576
576
576
575
573
573
573
573
573
572
571
570
569
569
569
568
567
566
565
565
564
564
563
562
560
560
559
559
559
558
556
555
554
554
554
554
553
552
551
551
552
552
551
550
549
549
549
550
550
549
548
548
548
549
549
549
549
548
548
549
549
549
549
548
548
548
549
549
550
550
549
548
548
549
549
549
548
548
548
548
549
549
548
547
547
546
547
548
548
547
547
546
546
547
548
548
547
547
547
547
548
548
547
546
546
546
546
547
548
547
547
546
546
546
546
546
546
546
546
546
547
548
547
547
547
546
548
548
549
549
549
549
550
552
553
554
555
556
558
560
563
564
565
567
569
570
573
576
578
580
581
584
586
589
592
595
597
599
601
604
608
610
612
614
615
618
620
623
626
628
629
630
632
634
636
638
638
639
640
641
643
645
645
646
646
647
649
651
653
654
654
655
656
658
659
660
661
661
662
662
663
663
663
661
660
658
657
656
654
651
648
644
641
639
636
632
628
624
621
618
615
611
608
603
599
595
592
590
586
583
579
575
572
569
566
562
558
554
551
548
546
543
539
535
531
528
526
524
521
518
515
513
510
508
506
504
502
500
498
497
496
494
492
490
487
486
485
485
484
482
481
480
480
480
481
481
481
481
482
484
486
488
490
491
492
495
497
501
503
505
507
509
511
514
516
518
519
520
522
524
525
527
527
527
527
528
528
529
530
529
529
529
529
529
530
530
529
528
528
528
529
529
529
528
527
527
527
527
527
526
525
525
525
525
525
525
525
524
524
525
525
525
525
524
523
523
524
525
525
524
523
523
523
524
524
524
524
523
523
523
523
524
523
522
522
522
522
523
523
522
522
521
521
521
522
522
521
521
521
521
522
522
522
521
521
521
521
522
522
522
521
520
521
521
521
521
521
520
520
521
521
521
521
520
520
520
520
521
521
521
521
520
521
521
522
522
522
521
521
522
523
523
523
522
522
522
523
524
524
524
524
524
524
525
526
527
527
527
527
528
529
530
530
530
529
530
531
532
532
532
532
532
533
533
534
535
535
535
535
536
537
538
538
538
538
539
540
542
543
543
543
544
544
546
547
548
548
549
550
551
552
553
553
553
553
554
555
556
557
557
557
557
558
559
560
561
561
560
561
562
563
564
564
563
563
563
563
564
564
563
562
562
562
562
562
561
561
560
559
559
559
559
558
557
557
556
556
557
557
556
556
555
555
555
555
555
555
554
554
554
555
555
555
554
554
554
554
555
555
555
554
554
554
554
555
555
554
554
554
555
555
555
555
554
554
554
554
555
554
554
553
553
553
553
554
553
552
552
551
551
552
552
551
550
550
550
550
551
551
551
550
550
550
551
551
552
551
551
550
551
552
552
552
551
550
550
551
551
551
550
549
549
548
549
549
548
548
547
546
547
546
546
545
544
543
543
543
542
542
541
539
538
538
537
537
536
535
533
533
533
532
532
531
530
529
528
528
528
528
527
525
524
524
524
524
524
523
523
522
523
523
523
522
521
521
520
521
522
522
522
521
521
521
522
522
522
522
521
520
521
522
522
522
521
520
520
521
521
521
520
520
519
520
520
521
521
520
520
519
520
520
521
520
519
519
519
519
520
520
519
519
518
518
519
519
519
519
518
518
519
519
519
519
518
517
517
518
518
519
518
517
517
517
518
518
518
518
518
518
519
520
520
520
519
519
520
521
523
524
525
525
527
528
530
532
534
536
537
539
542
545
548
549
551
553
556
558
561
564
566
568
570
573
576
578
580
582
583
585
587
590
592
593
594
595
596
598
600
601
601
601
602
603
604
605
605
606
606
607
607
609
610
610
610
610
611
612
614
614
614
614
614
614
615
615
614
613
611
610
609
608
606
603
600
597
594
591
588
585
582
578
574
571
567
564
560
556
552
549
546
543
540
536
533
529
526
523
520
516
513
509
506
503
500
497
494
490
487
484
481
479
477
474
471
468
466
464
462
460
457
455
453
452
451
449
448
446
444
443
443
443
442
441
440
440
440
441
443
443
444
445
446
449
451
454
456
458
460
463
467
470
473
475
477
479
481
484
486
488
489
489
491
492
493
494
495
494
494
494
495
495
496
495
494
494
494
494
495
494
494
493
493
493
493
494
494
493
493
493
493
494
494
494
493
492
493
493
494
494
493
492
492
492
492
493
493
492
491
491
491
491
492
491
490
489
489
489
490
490
489
489
488
488
489
489
489
489
488
488
489
489
490
489
489
488
488
489
490
490
489
488
488
488
488
489
489
488
487
487
487
488
488
488
487
486
487
487
488
488
487
487
487
487
487
488
488
487
487
487
488
489
489
489
488
488
488
489
489
490
490
489
489
490
490
491
491
491
491
491
492
493
493
493
493
493
493
494
496
496
496
496
497
498
499
500
500
500
500
501
502
503
504
504
504
504
505
506
507
508
508
508
508
509
510
511
511
512
512
512
513
514
515
516
516
516
517
518
520
520
521
521
522
523
524
525
526
526
526
527
528
530
530
530
530
530
530
530
531
532
531
531
530
530
531
531
531
531
530
530
530
530
531
530
529
528
529
529
530
529
528
527
527
526
526
526
526
525
524
524
524
525
524
524
523
522
522
522
523
523
522
521
520
520
521
521
521
521
520
520
521
521
521
521
520
519
519
520
520
520
519
519
518
518
518
519
518
517
517
516
517
517
517
516
516
515
515
515
515
515
515
515
515
515
515
515
516
515
515
515
516
516
517
517
516
516
516
517
517
517
517
517
516
516
516
517
516
516
515
515
516
516
516
515
514
514
514
514
514
514
513
512
512
511
512
511
511
510
509
508
508
508
508
506
505
504
504
504
503
503
502
500
500
500
500
499
499
498
497
497
497
497
497
496
495
494
494
494
495
494
493
493
492
492
493
493
493
492
492
492
492
492
492
492
491
490
490
491
491
491
490
489
489
489
489
489
489
488
487
487
488
488
489
488
487
487
487
487
488
488
488
487
487
488
489
489
489
489
488
488
489
489
489
489
488
488
488
489
489
489
488
488
487
488
488
488
488
488
487
487
488
488
488
488
487
487
488
489
489
489
489
489
489
489
490
491
492
492
492
493
494
496
497
498
499
499
501
503
505
507
509
510
512
514
517
520
521
523
525
527
530
533
535
537
539
541
543
545
548
550
551
552
553
555
557
559
561
562
562
564
565
567
568
568
568
568
569
570
572
572
572
573
573
574
575
577
578
578
578
579
580
581
582
582
581
581
581
582
582
582
580
578
577
576
574
573
572
569
566
564
562
560
557
554
550
547
544
542
539
536
532
528
524
520
517
514
510
506
502
498
495
491
487
483
479
475
472
469
466
463
459
455
452
450
448
446
444
441
439
437
435
434
432
430
428
427
425
424
424
423
421
419
418
417
417
417
416
415
415
415
416
417
418
419
419
420
422
424
427
430
431
433
435
438
441
444
446
448
450
452
456
458
460
461
462
464
465
466
468
469
469
469
469
470
470
471
471
470
470
469
470
470
470
469
468
467
467
467
468
468
467
466
465
466
466
466
466
465
465
465
466
467
467
467
467
466
466
466
467
467
467
466
466
466
466
466
466
465
464
464
464
465
464
464
463
462
462
462
462
462
461
461
461
461
461
462
462
461
461
461
462
462
462
462
461
461
461
462
463
463
462
462
461
462
462
462
462
461
460
460
461
461
461
461
460
460
460
460
461
461
460
460
460
460
461
461
461
461
461
461
462
463
463
463
462
461
461
462
463
463
462
462
462
462
463
464
464
463
463
464
465
466
467
467
467
467
468
468
469
470
470
470
470
471
472
473
473
473
474
474
476
477
478
478
479
479
480
481
482
483
484
484
484
485
486
487
488
488
488
488
489
490
491
490
490
490
490
491
491
492
492
492
492
493
494
495
495
495
495
496
497
498
499
499
499
499
500
501
501
502
502
501
501
501
502
502
501
501
500
499
499
499
499
498
497
495
495
495
495
495
494
492
492
491
491
491
491
490
489
489
489
489
489
489
488
487
488
488
489
488
488
487
488
488
488
489
489
489
488
489
490
490
491
490
489
489
489
490
491
491
491
490
490
490
491
492
492
492
492
492
492
493
493
493
493
493
493
493
494
494
493
493
492
493
493
494
493
493
492
492
492
493
493
493
493
492
492
493
493
493
493
492
492
492
493
494
494
493
492
493
493
494
493
493
492
491
491
491
491
491
489
489
488
488
488
488
487
486
485
484
484
485
483
483
481
480
480
479
479
479
477
476
475
474
474
473
473
472
471
471
471
470
470
469
468
467
467
467
468
467
466
465
465
465
465
465
465
464
463
463
463
463
463
463
462
461
461
462
462
462
462
461
461
461
462
462
462
461
461
461
462
463
463
463
462
462
462
463
464
464
463
463
463
464
465
465
465
465
465
465
465
466
466
466
465
464
464
465
465
465
464
463
462
462
462
462
462
461
460
460
460
461
460
460
459
459
459
460
461
461
461
461
461
461
462
463
464
463
463
465
466
467
468
469
469
470
471
473
475
476
477
479
480
483
485
488
490
491
493
495
498
501
504
505
507
509
512
515
518
521
523
524
526
529
531
534
536
537
539
541
543
545
547
548
549
550
551
552
554
555
555
556
557
558
560
562
563
564
564
566
568
569
571
572
572
573
573
575
575
576
575
574
573
572
571
569
567
564
561
558
556
553
549
545
541
537
534
531
528
524
520
516
512
508
505
502
498
494
490
486
483
480
476
472
468
464
460
457
453
450
445
441
438
435
433
430
427
424
421
419
418
416
414
411
409
407
405
404
402
401
399
397
396
395
394
394
393
391
390
390
390
391
391
391
391
391
393
395
396
398
399
401
402
404
407
410
412
414
415
417
421
423
425
426
428
429
430
432
434
435
436
436
437
438
439
440
440
440
439
440
440
441
441
440
439
439
439
439
440
440
439
438
438
438
438
438
438
437
437
436
437
437
437
436
435
435
434
435
435
435
434
433
433
433
434
434
434
433
433
433
433
434
434
433
432
432
432
432
432
432
431
430
430
429
430
430
430
429
428
428
429
429
429
429
428
428
429
429
430
430
430
429
429
430
430
431
431
430
429
429
430
430
430
429
428
427
427
427
428
428
427
426
426
426
427
427
427
427
426
426
427
428
428
428
427
427
427
428
428
429
428
428
428
429
430
430
430
430
430
430
431
432
432
432
432
433
433
435
436
436
436
436
437
438
440
441
441
441
442
443
444
445
446
446
446
446
446
447
449
449
449
449
449
449
450
450
451
451
451
451
453
454
454
454
454
454
455
457
458
459
459
459
460
461
463
464
465
465
465
466
468
469
470
470
469
470
471
471
472
472
472
471
472
472
472
472
472
471
470
470
470
470
470
469
468
467
467
467
467
466
465
464
463
463
463
463
462
461
461
460
461
461
460
460
459
459
459
460
461
461
460
460
460
461
461
462
462
461
461
461
461
462
462
461
460
460
460
460
461
460
460
459
459
459
459
459
459
458
458
458
458
459
459
458
457
457
457
458
458
458
458
458
458
459
459
459
459
459
458
458
459
460
460
460
459
459
459
460
460
460
459
458
457
457
458
458
457
457
456
456
457
457
457
456
455
455
455
456
456
456
455
455
454
454
454
454
454
452
451
451
451
451
450
449
447
446
445
445
445
445
443
442
441
441
441
441
440
439
438
437
438
438
438
437
436
435
435
435
435
435
433
432
432
432
432
432
431
431
430
430
430
431
430
430
429
428
428
429
429
429
428
427
427
428
428
428
428
428
427
427
428
428
428
427
427
426
426
427
427
427
427
426
425
425
426
426
426
425
425
425
425
426
426
425
424
424
424
425
426
426
425
425
425
425
426
426
426
426
426
426
427
427
427
426
425
425
425
426
427
426
426
425
426
426
427
427
428
428
428
429
431
432
433
434
435
436
437
440
442
444
446
447
449
451
454
457
459
461
464
467
470
473
476
478
480
482
485
488
491
494
495
497
499
502
504
506
508
509
510
512
514
516
517
518
518
519
520
521
523
524
524
525
526
528
529
531
532
532
533
534
536
537
538
538
538
538
538
539
539
538
536
534
532
531
529
527
525
522
518
515
513
510
507
503
498
495
491
488
485
481
477
473
469
465
462
458
455
451
446
443
440
437
433
429
426
422
419
416
414
411
407
404
401
399
397
395
393
390
387
385
384
382
380
378
376
374
372
371
369
367
365
363
361
361
360
360
359
357
357
357
357
358
358
358
358
359
360
363
365
367
368
370
372
374
377
380
382
384
386
388
391
393
395
397
398
399
400
402
404
404
404
404
405
405
406
406
406
405
405
405
405
405
405
404
404
403
403
403
403
403
402
401
401
401
402
402
402
401
401
401
401
402
402
401
400
399
399
400
400
400
399
398
398
398
398
397
397
396
395
395
396
396
396
395
395
394
394
395
396
396
395
395
395
395
396
396
396
396
395
395
396
397
397
396
395
394
394
395
395
395
394
394
394
394
394
394
394
394
393
393
394
395
395
394
394
394
394
395
396
396
395
394
394
394
395
395
395
394
394
394
395
395
395
395
395
394
395
395
396
396
396
396
396
397
398
398
399
399
399
400
401
402
402
402
402
402
403
404
405
406
406
406
406
407
408
409
410
410
410
411
412
413
414
415
415
415
416
418
419
420
420
420
421
422
423
424
424
424
424
425
426
428
428
428
428
429
429
430
432
433
433
433
434
435
436
437
438
438
438
439
440
441
442
441
441
441
441
442
442
442
441
441
440
440
441
441
440
440
439
439
439
439
438
437
436
436
436
437
437
437
436
435
434
434
435
435
434
433
433
433
434
434
434
433
432
432
432
432
432
432
431
431
431
431
431
431
431
431
430
430
431
431
431
431
430
430
430
431
432
432
431
430
430
430
430
431
431
430
430
430
430
430
430
430
429
429
429
430
431
431
430
429
429
430
430
431
430
430
430
430
430
430
430
430
429
428
428
428
429
428
428
427
427
427
427
427
427
427
427
427
427
428
428
427
427
426
426
427
426
426
425
424
423
423
423
422
422
420
419
419
419
418
418
416
415
414
414
414
414
413
412
411
410
410
410
410
409
408
407
407
407
407
406
405
404
403
403
403
403
402
401
400
400
400
400
401
400
400
399
399
400
401
401
400
400
399
400
400
401
400
400
399
399
400
400
401
401
400
400
401
401
402
402
402
401
401
402
403
403
403
403
402
402
402
403
403
403
402
402
402
403
403
403
403
402
402
402
402
402
402
402
401
401
401
402
402
401
400
400
400
401
402
401
401
400
400
401
402
402
403
403
403
403
404
406
407
408
408
409
410
412
414
415
416
417
419
421
423
426
427
428
430
432
435
438
440
442
444
447
450
453
456
459
461
463
465
467
470
473
474
475
476
478
480
482
483
484
484
485
486
487
488
488
488
488
489
489
491
492
493
493
493
494
496
497
498
499
499
499
499
501
501
501
500
498
497
496
495
494
492
489
486
483
481
479
476
473
469
466
463
460
457
454
450
446
442
439
436
433
430
426
422
419
416
413
410
406
402
398
395
393
390
387
383
379
376
373
371
369
366
363
360
358
356
354
352
350
347
345
343
342
341
339
337
335
333
332
331
331
330
329
327
326
327
327
328
328
329
329
331
332
334
336
338
340
342
345
348
351
353
355
357
359
362
365
368
369
370
372
373
375
376
377
377
377
377
377
378
379
379
378
378
378
378
379
379
378
378
377
377
378
378
378
377
376
376
376
377
377
376
375
374
374
374
374
374
374
373
373
373
373
374
373
373
372
373
373
374
374
374
373
372
372
372
373
373
373
372
372
372
372
372
372
371
369
369
369
369
370
369
368
368
368
368
368
368
368
367
367
367
368
368
368
368
367
366
366
367
367
367
366
366
365
366
367
367
366
365
365
366
366
367
367
367
366
366
367
367
368
368
367
367
367
368
368
369
368
368
368
368
369
370
370
369
369
368
369
369
370
370
369
369
369
370
371
371
371
371
371
372
373
375
375
375
375
376
377
378
379
379
379
379
380
381
381
382
382
382
382
383
384
385
385
384
384
385
385
386
387
388
388
388
388
389
391
392
392
392
392
393
395
396
396
396
396
397
397
398
399
400
399
399
400
401
401
401
401
401
401
401
402
402
402
402
401
401
401
402
402
401
401
400
400
400
400
400
399
398
397
397
397
397
397
396
394
393
393
393
393
392
390
389
389
389
389
388
387
386
386
386
386
386
385
384
384
383
383
383
384
383
382
382
382
383
383
383
383
383
382
383
383
384
384
384
383
383
383
384
385
385
384
384
384
384
384
385
384
384
383
383
383
384
383
382
381
381
381
382
382
381
380
379
379
380
380
380
379
379
379
379
379
380
380
379
378
378
378
378
378
378
377
376
376
376
376
376
376
375
374
374
374
374
374
373
371
371
371
371
371
370
369
368
368
368
367
367
366
365
364
363
364
363
363
361
360
359
359
359
359
358
358
357
356
356
356
355
355
354
354
353
353
353
353
352
351
350
350
351
351
350
350
349
349
350
350
351
350
350
350
350
351
351
351
350
350
349
350
350
350
349
348
347
347
347
347
347
346
345
344
344
345
345
345
344
344
344
344
345
346
346
345
344
344
345
346
346
346
345
345
345
346
346
346
345
344
344
344
345
345
345
344
343
343
343
343
343
343
342
342
343
344
344
344
344
344
344
344
346
347
348
348
349
350
352
354
356
357
359
360
363
365
368
370
371
373
375
377
380
382
385
386
388
390
393
396
398
400
401
402
405
407
410
411
412
413
414
416
417
419
420
420
421
421
422
423
424
423
423
424
424
426
427
427
427
427
428
429
431
432
433
433
433
435
435
436
436
436
435
435
435
434
433
432
430
427
424
422
420
417
414
410
406
403
400
397
394
390
386
382
379
377
374
371
367
363
360
356
354
351
348
343
340
336
334
331
328
325
321
318
315
312
310
306
302
299
296
294
292
290
287
284
281
279
277
275
273
271
269
267
266
265
264
263
261
260
259
259
259
260
260
259
260
261
262
265
266
268
269
271
274
277
280
282
284
287
289
292
295
298
299
301
303
304
307
308
309
310
311
311
312
313
314
314
314
313
313
313
314
314
314
313
312
312
313
313
313
312
312
312
312
312
313
312
311
311
311
311
311
312
311
310
310
310
310
310
310
310
309
309
309
309
310
309
308
308
307
308
308
308
308
307
306
306
307
307
307
306
306
306
306
306
307
306
306
305
305
305
305
305
305
304
303
303
303
304
304
303
303
303
304
304
305
305
304
304
304
304
305
305
304
304
303
304
304
305
305
304
303
303
303
304
304
303
303
302
302
302
303
303
303
302
302
302
303
304
304
304
303
303
303
304
305
305
304
304
304
305
306
306
307
306
307
307
308
309
309
310
309
310
311
312
313
313
313
313
313
314
315
316
317
316
317
317
318
319
320
320
320
321
322
323
324
325
325
325
326
326
328
329
329
329
330
330
331
332
333
334
334
334
336
337
338
339
339
339
339
340
342
343
343
343
342
343
344
344
345
345
344
344
344
345
345
344
343
342
342
341
341
341
340
339
337
337
337
337
336
335
334
334
334
334
334
333
332
331
331
331
331
332
331
330
330
330
330
331
331
330
329
329
329
330
330
329
329
328
328
328
329
329
329
328
327
327
328
328
328
327
326
326
326
327
327
326
325
325
325
325
325
326
325
324
324
324
325
325
325
325
324
324
324
325
326
325
325
325
325
325
326
326
326
325
324
324
325
325
325
324
324
323
323
324
324
324
323
322
322
322
323
323
322
322
321
321
322
322
322
322
321
321
322
322
322
322
321
320
320
320
320
319
319
318
317
317
316
317
316
315
314
313
313
312
312
311
309
308
307
307
307
306
306
304
303
302
302
302
301
300
299
298
298
298
298
297
296
295
294
294
294
294
294
293
292
292
292
293
293
292
292
292
292
293
293
293
292
291
291
291
292
292
292
291
291
291
291
292
292
291
291
290
291
291
292
292
291
291
291
291
292
292
291
291
290
290
291
291
292
291
291
290
290
291
291
291
290
289
289
289
290
290
290
289
289
289
290
290
290
290
290
290
291
292
292
292
292
291
292
292
293
294
294
293
293
294
295
295
297
297
297
298
299
301
303
304
306
307
309
312
315
317
319
320
323
325
328
332
334
336
339
341
344
347
350
352
354
355
357
360
363
365
366
367
369
371
373
375
376
377
378
379
381
383
384
385
385
386
388
389
391
393
394
395
395
397
399
400
401
401
402
402
402
403
403
402
400
398
397
395
393
391
388
384
381
378
375
372
368
364
360
356
353
350
347
342
338
333
330
327
324
321
316
313
308
305
302
298
295
291
287
283
280
277
274
270
266
263
259
257
255
253
250
246
243
241
239
238
236
234
231
229
227
226
225
223
221
219
217
216
215
215
213
212
211
211
211
213
213
214
214
216
218
220
223
224
226
228
230
234
237
240
242
243
246
248
250
253
255
256
257
258
260
261
262
262
262
262
262
262
263
264
264
263
263
263
263
263
263
262
261
261
262
262
263
262
262
261
261
262
262
262
262
261
260
261
261
261
261
261
260
260
260
260
260
260
259
258
258
258
259
259
259
258
258
258
259
259
259
259
258
258
258
258
258
258
257
257
256
257
257
257
256
255
255
255
255
255
255
254
253
253
253
254
254
253
253
252
252
252
253
253
253
252
252
252
253
254
254
254
253
253
254
255
255
255
254
253
253
253
254
254
254
253
253
253
253
254
254
253
253
253
254
254
255
255
254
254
254
255
256
256
256
256
256
257
258
259
260
260
260
260
261
262
263
263
263
264
264
265
266
266
266
266
266
267
268
269
269
269
269
270
271
272
273
273
273
274
274
275
277
278
278
278
279
280
281
283
283
284
284
285
286
287
288
289
289
289
289
290
291
292
292
292
292
292
293
294
295
295
294
294
295
296
296
296
295
295
295
296
296
297
296
295
295
295
295
295
295
294
293
293
293
293
293
292
292
291
291
291
291
291
290
289
289
289
289
289
289
289
288
287
287
288
288
287
286
285
284
284
285
284
284
283
282
282
281
281
281
280
279
279
280
280
281
281
280
280
280
281
282
282
282
282
282
282
283
283
284
284
284
284
285
286
286
286
285
284
285
285
286
286
285
285
284
284
284
284
284
283
282
282
282
282
282
282
281
280
280
280
280
280
280
279
279
279
279
279
279
279
278
277
278
278
278
277
276
275
275
275
275
276
274
273
272
272
272
272
271
270
269
268
268
268
267
266
264
263
262
262
262
261
259
258
257
256
256
256
256
255
254
254
254
254
254
254
253
252
252
252
253
253
252
252
251
251
252
252
252
251
250
250
250
250
251
250
249
248
248
248
249
249
248
247
247
247
248
248
248
247
247
247
247
248
248
248
247
246
246
247
248
248
248
247
246
247
247
247
247
247
246
246
247
247
248
247
247
246
246
246
247
247
247
246
246
246
246
247
247
247
246
247
247
248
249
248
248
248
248
250
251
251
252
252
252
253
255
256
258
258
259
261
263
265
267
268
269
271
273
275
278
281
283
285
287
290
294
296
299
302
304
306
309
312
315
317
318
320
322
325
327
329
331
332
333
335
337
338
339
340
340
341
343
345
346
347
347
348
349
350
352
353
354
354
355
356
356
358
358
358
358
357
358
357
357
355
353
351
350
348
346
344
341
337
334
331
328
326
323
319
315
311
308
305
302
297
293
290
286
283
280
277
273
269
265
262
259
256
253
249
245
242
240
237
235
231
228
224
222
220
218
215
212
209
207
205
203
201
199
196
194
192
190
189
187
185
183
181
180
180
179
179
178
177
176
177
178
179
180
181
181
183
185
188
190
192
193
195
197
199
203
205
207
208
210
212
213
216
217
218
218
219
221
222
223
223
223
223
223
224
225
225
225
225
224
225
225
226
226
225
225
225
225
226
226
225
224
223
223
223
224
224
223
222
222
222
222
222
222
222
221
221
222
222
223
222
222
221
221
222
222
222
222
221
220
220
221
221
221
220
219
219
219
219
219
218
218
217
217
217
218
218
218
217
217
217
218
218
218
218
217
217
218
219
219
218
218
217
217
217
218
218
217
216
216
216
216
217
216
216
215
215
215
216
216
215
215
215
215
216
217
217
217
217
217
217
218
219
219
219
219
219
220
221
221
221
220
220
220
221
222
222
222
222
222
222
223
224
224
224
224
224
225
226
227
227
227
227
227
228
230
230
230
230
230
231
233
234
234
234
234
235
236
237
238
239
239
239
240
241
243
243
243
244
244
245
246
247
248
248
249
249
251
252
253
254
254
254
254
255
256
257
257
257
257
258
259
260
260
260
259
259
260
261
261
261
260
259
260
260
260
260
259
259
258
258
259
259
259
258
257
257
258
258
258
257
256
255
255
255
255
255
255
254
254
254
254
255
254
254
253
253
253
254
254
253
252
252
251
251
251
251
250
250
249
249
250
250
250
249
248
248
248
249
249
249
248
248
248
248
249
248
248
247
247
247
248
248
248
247
246
246
246
247
247
246
245
245
245
246
246
246
246
245
245
245
246
247
246
246
246
246
247
247
247
247
246
246
246
246
247
247
246
245
244
244
244
244
243
243
241
241
241
241
240
239
237
236
236
235
235
234
233
232
231
231
230
230
229
228
227
226
226
226
226
225
223
222
222
222
222
222
221
220
220
219
219
219
219
219
218
218
218
219
219
218
218
217
217
218
219
219
218
217
217
217
217
217
217
217
216
216
217
217
218
217
216
216
216
216
217
217
217
216
216
216
217
217
217
217
216
216
217
218
218
218
217
216
216
217
217
217
217
216
216
216
216
217
216
216
215
215
216
216
216
215
214
214
213
214
214
214
214
213
213
213
214
215
215
215
215
215
217
218
219
219
220
220
221
224
225
227
228
230
231
233
236
238
240
242
243
245
248
251
253
255
257
259
261
265
268
270
272
273
275
277
280
283
284
285
287
289
290
292
294
295
296
296
297
298
300
300
301
301
301
302
304
305
306
306
307
308
310
311
313
313
313
314
315
315
317
317
316
315
315
314
314
313
311
309
306
304
302
300
298
294
291
287
284
282
279
276
273
269
266
263
259
256
253
249
245
241
239
236
233
228
224
220
217
214
211
207
204
200
196
194
191
189
186
183
180
177
176
174
172
169
166
164
162
160
159
157
154
152
150
149
148
147
145
144
142
142
143
143
143
144
144
144
145
147
150
152
153
155
157
160
163
166
169
171
173
176
179
182
185
186
188
189
191
193
195
197
197
197
197
198
199
200
200
200
200
200
200
201
201
201
200
200
200
200
201
201
200
199
199
199
200
200
200
199
199
198
199
199
199
199
198
198
198
198
199
199
198
197
197
197
197
198
198
197
196
196
196
197
197
196
195
195
195
195
196
196
195
194
194
194
195
195
195
195
194
194
195
196
196
195
195
194
194
195
195
195
194
194
193
194
194
195
194
194
194
194
194
195
195
195
194
194
194
195
195
195
195
194
194
195
195
196
196
195
195
195
196
196
196
196
195
195
196
196
197
197
197
196
196
197
198
199
199
199
199
199
200
201
202
202
202
202
203
204
205
206
207
207
207
208
210
211
212
212
212
212
214
215
216
215
216
216
216
217
218
218
218
218
219
219
220
221
222
222
222
223
224
225
227
227
227
227
228
230
231
232
232
232
233
234
235
236
237
237
237
237
238
239
240
240
239
239
240
241
242
242
241
241
241
241
242
242
242
241
240
240
241
241
241
240
239
238
238
238
238
237
236
235
234
234
234
234
233
233
232
232
233
233
233
233
232
231
231
232
232
232
232
231
231
232
232
233
232
232
231
231
231
231
231
231
230
230
229
230
230
230
229
229
229
229
229
229
229
228
228
228
229
229
229
228
227
227
227
227
228
228
228
227
227
227
227
228
228
227
227
228
228
229
230
229
229
229
229
230
230
230
230
229
229
229
229
229
229
228
228
227
227
228
228
227
226
225
225
225
226
225
224
223
223
222
222
222
221
220
219
219
219
220
219
218
218
216
216
216
216
215
214
213
212
212
212
212
211
210
209
208
208
208
207
206
205
204
203
204
204
203
202
201
200
200
201
201
201
200
200
200
200
201
201
200
200
199
200
200
201
201
201
200
200
200
200
201
201
200
200
200
200
201
201
200
200
199
199
200
201
201
200
200
200
200
201
201
201
201
201
201
201
202
202
202
201
201
201
202
202
202
202
201
201
201
202
202
202
202
201
201
202
202
202
201
200
200
201
201
202
202
202
202
202
203
204
205
206
206
207
208
209
211
212
213
214
216
217
220
222
224
225
227
228
231
233
236
238
240
242
244
247
250
253
254
256
258
260
263
265
267
269
270
272
274
276
278
280
281
281
282
284
285
286
287
287
288
289
290
291
292
292
292
293
295
296
298
299
300
300
301
302
304
304
304
304
304
304
304
304
303
301
299
297
295
293
290
287
284
280
277
275
272
269
265
262
258
254
252
249
246
242
238
235
232
229
227
223
220
216
213
210
207
204
200
197
193
190
187
184
181
177
174
171
169
167
165
163
160
157
155
154
152
150
148
145
143
142
141
140
139
138
136
134
134
133
133
133
132
132
133
134
136
137
138
139
141
142
146
149
151
153
155
158
161
164
167
170
172
174
176
179
181
183
184
184
185
186
187
189
189
189
189
188
189
189
190
189
189
188
189
189
190
190
190
189
189
189
190
191
191
191
190
190
190
191
191
191
190
190
190
190
191
191
190
189
188
188
188
188
188
187
186
186
186
186
187
187
186
185
185
186
186
187
186
186
185
186
186
186
186
186
185
185
185
186
186
186
186
185
186
187
187
188
187
187
186
187
188
188
189
188
188
188
188
189
189
189
188
188
188
188
188
188
187
187
186
187
187
188
188
187
187
187
187
188
188
188
188
188
189
190
191
191
191
190
190
191
192
193
193
192
192
192
193
193
194
195
195
195
195
197
198
199
199
199
200
200
202
203
203
204
204
204
205
206
207
208
208
208
209
210
211
211
211
211
212
212
213
215
215
215
215
216
217
219
220
220
221
221
222
224
225
226
226
226
227
228
229
230
231
231
231
231
233
234
235
236
236
235
236
238
239
239
239
239
239
240
241
241
241
241
240
240
240
240
240
240
239
238
238
239
239
239
238
237
236
235
236
236
235
235
234
234
234
234
234
233
232
231
231
232
232
232
231
230
230
229
230
230
230
229
228
228
228
228
229
228
228
228
228
228
229
229
229
228
228
228
228
229
229
228
228
228
229
229
229
229
229
228
229
229
230
230
230
230
230
230
231
232
232
232
232
232
232
233
233
233
233
233
233
233
234
234
233
233
232
232
233
233
233
232
231
231
232
232
232
231
231
230
230
231
231
231
230
229
229
229
229
229
229
228
227
227
227
227
227
226
225
224
224
224
225
224
223
222
221
221
221
221
220
219
219
218
218
218
218
218
217
216
216
216
216
215
215
214
213
213
213
213
212
211
210
210
210
210
210
209
208
208
207
208
208
208
207
205
205
205
205
206
206
205
204
204
205
205
206
205
205
204
205
206
207
207
207
207
207
208
209
210
210
210
209
210
210
211
211
212
211
211
211
212
212
212
212
211
210
210
211
211
210
209
208
208
208
209
209
208
208
207
207
208
209
209
209
209
209
209
210
211
211
210
210
210
210
211
212
212
212
213
213
214
216
216
216
216
217
219
221
223
224
225
227
229
231
234
237
239
241
243
246
249
252
255
257
259
261
264
267
271
273
275
276
278
281
283
286
288
289
291
293
295
297
299
300
301
302
303
305
307
308
308
309
310
312
314
316
317
318
319
320
322
324
326
327
327
328
329
330
331
330
330
328
327
327
325
324
322
319
316
313
311
308
305
301
296
292
289
286
283
279
274
270
266
263
259
256
252
247
244
240
237
234
230
226
221
218
214
212
209
205
201
196
193
191
189
186
183
180
177
175
173
170
168
165
163
161
159
158
157
155
152
150
149
148
147
146
145
144
143
143
144
144
145
144
145
145
147
149
151
153
154
156
159
161
164
167
169
171
173
176
179
181
184
185
186
187
189
191
192
193
193
194
194
196
197
198
198
197
197
197
198
199
199
198
198
197
198
198
198
198
197
196
196
196
196
196
196
195
195
195
195
195
195
194
194
193
194
194
195
195
194
194
193
194
194
194
194
193
193
193
194
195
195
194
193
193
193
193
194
193
192
192
192
192
193
193
193
192
191
192
192
193
193
192
192
191
191
192
192
192
191
191
191
191
191
191
191
190
189
190
190
191
191
190
190
189
189
190
191
191
190
190
190
190
191
191
191
191
191
191
192
193
193
192
192
192
193
194
195
195
194
194
195
195
196
197
197
196
196
197
198
199
199
199
198
198
199
200
201
201
201
201
201
202
202
203
204
203
203
205
206
207
207
208
208
209
209
211
212
213
213
213
214
215
217
218
218
218
218
219
221
222
222
222
222
223
224
225
226
226
227
227
227
228
230
231
231
232
232
233
235
236
236
236
236
236
237
238
239
239
239
238
239
239
240
240
240
239
239
239
239
240
240
239
238
238
238
238
239
238
237
236
236
236
236
236
236
235
234
235
235
235
235
234
233
232
232
233
233
232
231
231
231
231
232
232
231
231
230
231
232
232
232
231
231
231
231
232
232
232
232
231
231
232
232
232
232
232
231
232
232
233
233
232
231
231
232
232
233
232
232
231
231
231
232
232
232
232
231
232
233
233
233
233
233
232
233
233
234
234
233
232
233
233
233
234
233
232
232
232
232
232
232
230
230
229
229
230
230
229
228
228
227
228
227
228
227
227
226
226
226
226
226
225
223
223
223
223
223
221
220
219
218
218
218
218
217
215
215
214
214
214
213
212
211
210
210
210
210
210
209
209
208
209
209
209
209
208
208
208
209
209
209
208
207
207
208
209
209
209
208
207
207
208
208
209
208
208
207
208
208
209
209
208
207
207
208
209
209
209
208
208
208
209
209
210
209
209
209
209
210
211
211
210
210
210
210
211
212
212
211
211
211
211
212
212
212
212
212
212
212
213
212
212
211
211
211
212
212
212
212
211
211
212
213
213
214
214
214
215
217
219
220
220
221
222
224
226
228
230
231
233
234
237
240
242
244
245
248
251
254
257
259
261
263
266
269
272
275
278
280
282
284
287
290
292
294
296
297
300
302
304
305
306
306
307
308
310
311
312
312
313
314
315
317
318
319
319
320
321
323
325
326
326
327
327
327
329
329
328
327
325
324
324
322
320
317
314
312
309
307
304
301
297
293
289
286
284
281
277
273
270
266
263
261
258
255
251
248
245
243
240
236
232
228
224
221
218
215
212
208
204
201
198
196
193
190
186
184
182
180
178
176
174
171
169
168
166
165
163
161
159
158
157
156
156
155
153
153
153
153
154
154
155
155
156
158
160
161
163
165
167
169
172
175
178
180
182
184
187
189
192
194
195
196
198
200
201
203
203
204
204
205
206
206
207
206
206
206
206
206
207
206
206
205
204
205
205
205
205
204
203
203
204
204
204
204
203
203
203
204
204
204
204
203
203
204
204
204
204
203
203
203
203
204
204
203
202
202
202
203
203
203
202
201
201
202
203
203
203
202
202
202
203
203
204
203
203
203
203
204
204
204
203
202
202
202
203
203
203
202
201
201
201
202
202
202
201
201
201
202
202
202
202
201
201
202
203
203
203
202
202
202
203
204
204
204
204
204
204
205
206
206
206
206
206
207
208
208
208
208
208
208
209
209
210
210
210
210
210
212
212
213
212
212
212
213
214
215
215
215
215
216
217
218
219
219
220
220
221
223
224
224
224
224
225
226
227
228
228
229
229
230
231
232
233
234
234
234
235
237
238
239
239
239
240
242
244
245
245
245
246
247
248
249
250
251
251
251
252
253
254
254
254
254
254
255
255
256
256
255
255
255
255
256
256
255
255
254
255
255
256
255
255
254
253
253
254
254
254
253
253
253
253
253
254
253
253
252
252
253
253
253
252
251
251
251
252
252
251
250
250
250
250
250
250
250
249
249
249
250
250
250
249
248
248
248
249
249
249
248
248
248
249
250
250
250
249
249
250
251
252
252
251
251
251
252
253
253
252
251
251
251
252
252
252
252
252
251
252
252
253
252
252
251
251
251
252
252
252
251
250
251
251
252
252
251
251
251
252
252
252
252
250
250
249
249
250
250
250
249
248
248
247
247
246
246
244
243
242
242
242
241
240
239
239
238
238
238
237
236
234
234
234
234
234
234
233
232
233
233
233
233
232
232
232
232
233
233
233
232
232
232
232
232
232
232
231
231
231
232
232
231
231
230
230
230
231
231
231
230
230
230
231
231
231
231
231
231
231
232
233
233
233
232
232
233
233
233
233
232
232
232
233
234
234
234
234
234
235
236
236
236
236
235
235
236
236
236
236
235
235
235
236
236
236
236
235
235
235
236
237
236
236
236
236
238
239
240
241
240
241
243
244
246
248
249
249
251
253
256
258
259
261
263
265
267
271
273
275
277
278
281
284
287
289
291
293
296
298
301
304
305
307
308
310
312
315
316
317
318
319
320
322
323
324
325
325
326
327
328
330
330
330
330
331
332
334
335
336
336
337
338
339
340
341
341
341
341
341
342
342
340
339
337
336
335
334
332
329
326
323
321
318
316
313
310
306
303
301
298
295
292
288
284
280
278
275
272
269
265
261
258
255
252
249
245
242
238
236
233
231
227
224
220
218
216
214
212
209
206
204
202
200
199
197
195
193
191
189
188
187
186
184
182
181
181
180
180
180
179
179
180
182
183
184
186
187
189
191
194
197
200
202
204
207
210
214
217
218
221
222
225
227
230
232
233
234
235
236
238
239
239
239
239
239
240
241
241
241
241
241
241
241
242
242
241
241
241
241
242
243
243
242
242
242
243
243
244
243
243
243
243
244
245
245
245
244
244
244
245
245
245
245
244
244
244
245
245
244
243
243
243
244
244
244
244
243
243
243
244
244
244
243
242
242
243
244
244
244
243
242
242
243
243
243
243
243
242
243
244
244
244
244
243
243
244
244
245
245
244
244
244
245
245
245
245
245
245
246
246
247
247
247
246
246
247
248
249
249
248
248
248
249
250
250
250
249
250
250
251
252
252
251
251
251
252
252
253
253
253
253
254
255
256
256
256
256
257
258
259
261
261
261
261
262
263
264
265
265
266
266
267
269
270
271
271
271
272
273
274
276
276
276
276
277
278
279
280
281
281
282
282
284
285
286
286
286
287
288
289
291
291
291
291
292
293
294
295
295
295
295
295
296
297
298
297
297
297
298
299
300
299
298
298
298
299
299
299
299
298
297
297
297
297
297
296
295
295
295
295
295
295
294
293
293
293
294
294
294
293
293
293
294
294
294
294
294
294
294
295
295
295
294
293
293
293
294
294
293
293
293
293
293
293
293
293
292
292
293
294
294
293
293
292
292
293
293
293
293
292
292
292
292
293
293
293
293
293
294
295
295
295
294
294
295
295
296
297
297
296
295
296
296
296
296
295
294
294
294
295
294
294
293
292
292
292
292
293
292
291
291
291
291
291
291
290
290
289
289
290
290
289
289
288
287
288
288
288
287
286
285
285
286
286
285
284
284
283
283
283
283
282
280
279
278
278
279
278
277
276
275
275
275
275
275
274
273
273
273
273
273
273
272
272
272
273
273
273
273
273
273
273
274
275
275
275
275
275
276
276
277
277
276
276
276
277
278
278
277
277
277
277
277
278
278
277
276
276
277
277
278
278
277
277
276
277
278
278
277
277
276
277
277
278
278
278
277
277
278
278
279
278
277
277
277
278
279
279
278
278
278
278
279
280
280
280
280
281
282
284
285
285
286
287
288
290
292
295
296
297
299
301
304
306
308
310
312
314
317
320
323
325
327
329
332
335
339
342
344
345
347
350
353
355
357
359
360
361
363
365
367
367
367
367
368
368
369
370
370
370
370
372
373
375
376
377
377
378
380
382
384
385
386
386
387
389
390
391
391
390
389
389
388
387
385
383
380
378
375
373
370
366
362
359
355
352
349
346
342
338
335
331
329
326
323
319
316
312
310
307
304
300
296
291
288
285
282
278
274
270
266
262
260
257
254
251
248
245
243
241
240
238
235
233
231
230
230
229
227
225
224
223
223
223
222
220
219
219
219
220
220
220
220
220
221
223
225
227
229
230
232
235
238
241
244
246
248
251
254
257
259
262
263
264
266
269
271
272
272
273
273
274
275
276
276
276
276
276
276
276
277
276
276
275
275
276
276
276
276
275
274
274
274
275
275
274
274
274
274
275
275
274
273
273
273
273
274
274
274
274
273
274
274
275
275
275
274
274
275
275
275
275
274
273
273
273
274
273
273
272
271
271
271
271
271
270
270
269
270
270
271
270
270
269
269
270
270
271
271
270
270
271
272
272
272
272
271
271
272
273
273
273
272
272
272
273
273
274
273
273
273
273
274
274
274
274
274
274
275
275
276
276
275
275
275
276
277
278
278
277
278
278
279
280
281
281
281
281
282
283
283
283
283
283
284
285
286
287
287
286
287
287
289
290
290
290
290
291
292
294
295
295
296
296
297
298
300
301
301
301
302
303
304
305
306
306
307
308
309
310
312
312
312
312
313
314
316
317
317
317
317
318
320
321
321
321
321
322
323
324
324
325
325
325
325
326
327
327
327
326
326
327
328
328
328
328
327
327
327
328
328
327
326
326
326
326
326
326
325
324
324
324
324
324
324
323
322
321
321
321
321
320
319
318
318
318
318
318
318
317
317
317
317
318
318
318
318
318
319
319
320
320
320
320
321
321
322
323
322
321
321
321
321
321
321
321
320
320
320
321
321
320
319
318
318
319
319
319
319
318
318
319
319
320
320
319
319
319
319
320
320
320
319
319
319
320
321
321
321
320
320
321
322
322
322
322
322
323
323
324
324
324
324
323
323
324
324
324
323
323
322
322
322
322
322
321
320
320
320
320
319
319
317
316
315
316
315
315
314
313
312
312
312
311
311
310
308
308
308
308
308
306
305
304
304
303
303
303
302
300
300
300
300
300
299
299
298
298
298
298
298
298
297
297
297
297
298
298
298
297
297
298
298
299
299
299
299
299
300
300
301
301
300
300
300
301
302
303
302
302
302
303
303
304
304
303
303
302
303
303
303
303
302
301
301
301
302
302
301
300
300
300
300
301
301
300
300
300
301
302
302
302
302
301
302
303
304
304
304
303
304
305
305
306
307
307
307
307
308
309
309
309
309
309
310
311
313
314
314
315
316
317
319
321
322
324
325
327
330
333
335
337
339
341
344
347
350
353
356
358
361
364
368
371
374
376
378
381
384
387
390
392
394
395
398
400
402
404
405
406
407
409
411
413
414
415
416
417
420
422
423
425
425
426
428
430
432
433
434
435
435
436
436
437
436
435
434
432
432
430
428
426
422
419
416
413
410
407
402
398
395
391
388
384
380
376
372
368
365
362
358
354
350
345
342
339
335
332
328
324
320
317
314
311
308
304
300
298
296
294
292
289
287
284
282
280
279
277
274
272
270
268
267
265
263
261
259
258
257
256
255
254
252
251
251
251
252
252
253
253
254
256
258
260
261
263
264
267
270
273
275
277
279
280
283
286
288
290
292
292
294
295
297
299
299
300
300
301
302
303
304
304
303
303
304
304
305
305
304
304
303
304
304
305
305
304
303
303
304
304
304
303
302
302
302
302
303
302
302
301
300
301
301
301
301
300
300
300
300
301
301
301
300
299
299
300
300
300
299
299
298
299
299
300
300
299
299
299
300
300
301
300
300
299
299
300
300
300
300
299
299
299
300
300
300
300
299
299
299
300
300
300
299
299
299
300
301
301
301
300
300
301
302
302
302
302
301
302
302
303
303
303
302
302
302
303
304
304
304
303
303
303
304
304
304
304
304
304
305
306
306
306
305
305
305
306
307
307
307
307
308
309
310
310
311
311
311
312
313
315
315
315
315
316
317
318
319
320
321
321
321
322
323
324
325
326
326
327
328
329
330
330
331
331
332
334
335
336
336
336
337
338
340
341
342
343
343
344
346
347
347
348
348
348
349
350
351
351
351
351
351
352
352
353
353
353
352
353
354
354
354
354
353
352
353
353
354
353
352
351
351
351
351
351
351
350
349
349
349
349
349
348
347
347
347
347
347
347
347
346
345
346
346
346
346
345
345
345
345
345
345
344
344
343
343
344
344
344
344
343
343
343
344
344
345
344
344
345
346
347
347
347
346
346
346
346
347
347
346
345
345
345
345
345
345
344
344
344
344
345
345
344
344
343
343
344
345
345
344
343
344
344
344
345
345
344
343
343
344
344
344
344
343
342
342
343
343
344
343
342
342
342
342
342
342
341
341
340
341
340
340
339
338
337
337
336
336
335
334
333
332
331
331
331
330
329
328
327
327
327
327
326
325
323
323
323
323
323
322
321
321
320
321
321
321
320
320
320
320
320
320
320
319
319
319
320
320
320
320
319
319
319
320
321
321
320
319
319
320
321
321
320
320
319
319
320
321
321
320
319
319
319
319
320
320
319
319
319
319
320
320
320
319
319
319
319
320
320
320
319
319
320
321
321
321
320
320
320
321
321
322
321
321
320
320
321
322
322
322
322
322
322
323
324
324
324
325
326
327
328
329
329
330
331
332
334
336
337
338
339
341
343
345
348
350
351
353
356
359
361
364
366
368
370
373
377
380
382
384
386
388
390
393
396
398
399
400
402
404
406
408
409
409
409
410
411
413
413
413
414
415
416
417
419
420
420
421
423
424
426
427
428
428
428
430
431
432
432
431
430
429
428
427
426
425
422
419
417
415
413
410
406
402
399
396
393
390
387
383
379
375
372
369
365
362
358
354
351
348
345
341
337
333
329
325
322
320
316
313
309
306
303
301
298
295
292
289
287
285
283
281
279
276
274
272
271
270
268
266
264
262
262
261
260
259
258
256
255
256
256
256
256
256
257
258
260
262
263
265
266
268
271
274
277
279
281
283
286
289
291
293
294
296
297
298
300
302
303
303
303
304
304
305
306
306
305
305
305
306
307
307
307
306
305
305
306
306
306
306
305
305
305
305
305
305
304
304
304
304
305
305
304
304
303
303
304
305
304
304
303
303
303
304
304
304
304
303
304
304
305
305
304
304
303
303
303
304
304
303
302
302
302
303
302
302
301
301
301
301
302
302
301
300
300
300
301
301
301
301
300
300
301
302
302
302
301
301
301
302
303
303
302
301
301
301
301
302
302
301
301
300
301
301
301
301
301
300
301
301
301
302
301
301
302
302
304
304
304
304
304
304
305
307
307
308
308
308
308
309
310
310
310
310
310
311
312
313
314
313
313
314
315
316
316
317
317
317
318
320
321
321
322
322
322
323
324
326
327
326
326
327
328
330
331
331
331
331
332
333
335
335
335
335
336
336
337
339
339
339
340
341
342
344
345
345
346
347
348
349
350
351
351
351
351
352
353
353
353
353
353
352
352
352
352
352
351
350
350
350
350
350
349
348
347
347
348
348
348
347
346
346
346
347
347
347
346
346
346
346
347
346
345
345
344
344
344
345
344
343
342
342
342
343
343
343
342
341
342
342
343
343
342
342
341
342
342
343
343
342
341
342
342
343
343
343
342
342
342
342
343
343
342
342
341
341
342
342
342
341
340
340
340
341
341
341
340
339
340
340
341
340
340
339
339
339
339
340
339
339
338
338
339
339
339
339
338
338
338
338
339
338
337
336
336
336
336
336
335
334
333
332
332
332
332
331
330
329
328
329
329
328
327
325
325
325
325
324
324
323
322
321
321
321
321
321
319
319
318
319
319
318
317
316
316
316
316
316
316
315
314
314
314
314
314
314
313
313
313
314
314
314
314
313
313
313
314
314
314
313
313
313
313
314
314
314
314
314
314
315
315
315
315
314
313
313
314
314
314
313
312
312
313
313
313
313
312
312
312
312
313
312
312
311
310
311
311
312
312
311
311
311
311
312
313
312
312
312
312
313
314
314
313
313
313
313
315
316
316
316
316
317
318
319
320
321
322
323
325
327
329
331
332
333
335
337
340
343
344
346
348
350
352
355
358
360
361
364
367
369
372
374
376
377
379
381
383
386
388
389
390
391
393
395
396
396
396
397
398
399
400
400
400
400
401
402
404
405
405
406
406
407
409
410
411
412
413
413
414
415
416
416
414
413
412
411
410
409
407
405
402
399
396
394
391
388
384
380
378
375
372
369
364
360
357
353
350
348
344
340
336
332
329
326
323
319
315
311
308
306
303
299
296
292
289
287
285
283
280
277
275
272
271
269
267
265
262
260
259
258
257
256
254
252
251
250
249
249
248
247
247
247
248
248
249
250
250
252
254
256
259
261
262
265
267
270
273
276
279
280
283
285
288
290
293
294
295
296
297
299
300
301
300
300
300
301
302
302
302
301
300
300
300
301
301
300
300
299
299
300
300
300
299
298
298
298
298
298
298
297
296
296
297
297
297
296
295
295
295
295
295
295
294
293
292
292
292
292
292
291
290
289
290
290
290
289
288
288
288
288
288
288
288
287
287
287
287
287
287
286
286
286
286
287
287
286
285
285
285
286
286
286
285
285
285
285
286
286
286
285
284
284
285
285
285
285
285
284
284
285
285
285
284
283
283
284
284
284
284
283
283
283
283
284
284
284
284
284
284
285
286
286
286
285
285
286
287
287
287
287
286
287
288
289
290
290
290
290
291
292
293
294
294
294
294
295
296
297
297
297
297
298
299
300
300
301
301
301
302
303
304
304
304
304
304
306
307
308
308
308
308
309
310
311
312
312
313
313
314
316
317
318
318
318
319
320
322
323
323
324
324
324
326
327
327
327
327
327
327
328
328
328
328
327
327
327
327
327
327
325
324
324
324
325
325
324
323
322
322
323
323
322
321
320
319
319
319
319
319
318
317
317
317
318
318
317
317
317
317
318
318
318
318
317
317
317
318
319
319
318
318
317
318
318
318
317
317
316
316
317
317
317
316
315
315
315
316
316
315
315
314
314
315
315
315
315
314
314
315
315
316
316
315
315
315
315
316
317
317
316
316
316
316
317
317
317
317
316
317
318
318
318
317
317
317
317
317
318
317
317
316
316
316
317
317
316
315
314
314
315
315
315
314
312
312
312
312
312
311
310
309
308
308
308
308
307
306
305
304
305
304
303
302
301
300
300
300
300
299
298
297
297
297
297
296
296
294
294
294
294
294
294
293
292
291
291
292
292
291
291
290
290
290
291
291
291
291
291
292
292
293
293
293
293
293
294
295
295
295
295
295
295
295
296
296
296
295
295
295
295
295
295
294
293
293
294
294
295
295
294
293
294
294
295
295
295
294
294
295
296
296
296
296
295
295
295
296
296
296
295
294
295
295
295
295
295
295
294
295
296
296
296
296
296
296
297
298
300
300
301
301
303
305
306
308
309
311
313
316
318
320
323
324
325
328
330
334
336
339
340
342
345
348
351
354
356
358
360
363
366
369
370
372
373
375
378
380
382
384
385
385
387
388
390
391
392
393
393
395
397
399
400
401
401
403
404
406
408
408
409
409
410
411
412
412
412
410
410
409
408
407
405
402
399
397
394
392
389
386
382
378
375
372
369
365
362
358
354
351
348
345
341
337
333
329
327
323
320
316
312
308
304
301
298
295
291
287
284
281
278
276
272
269
265
262
260
258
255
253
250
247
245
243
242
240
238
236
234
233
233
232
231
229
229
228
229
230
230
231
231
232
233
235
237
240
241
242
245
248
251
254
257
259
261
264
266
270
272
274
275
277
278
280
282
283
284
284
284
285
285
286
285
285
284
284
284
285
285
285
284
284
284
284
285
285
285
284
285
286
287
288
288
287
287
287
287
288
288
288
287
287
287
287
288
287
287
286
285
285
286
286
285
284
283
283
284
284
284
284
283
283
283
283
284
284
284
283
283
283
284
284
284
283
283
282
283
283
283
283
282
281
281
281
282
282
281
280
280
281
281
282
282
282
282
282
282
283
283
282
282
282
283
283
284
284
284
284
283
284
285
285
285
285
284
285
286
286
287
286
286
285
286
287
287
288
288
288
288
289
290
290
290
290
289
289
289
290
290
290
290
289
290
290
291
291
291
291
291
292
294
295
295
296
296
297
299
300
301
301
302
302
304
305
306
307
308
308
308
309
310
311
312
312
311
312
312
314
314
315
315
316
316
317
318
319
320
320
321
322
323
324
325
326
326
327
329
331
331
332
331
332
333
334
335
335
335
335
335
336
336
337
336
335
334
334
335
335
335
334
332
332
331
331
331
331
330
329
329
329
329
329
328
327
326
326
326
327
327
327
326
326
325
326
326
326
325
325
324
325
325
325
325
324
324
323
324
325
325
325
324
324
324
325
325
325
325
325
325
325
326
326
326
325
324
324
324
325
325
325
325
324
325
325
325
325
325
324
325
326
327
328
328
327
327
327
328
328
328
328
328
328
328
328
329
329
328
327
327
327
327
327
327
326
325
324
325
325
325
324
323
323
323
323
323
323
323
322
322
322
322
322
321
321
320
319
319
319
319
318
317
316
316
315
315
314
313
312
311
311
311
310
309
308
307
307
307
307
306
305
304
304
303
304
304
304
303
303
303
303
304
304
303
303
302
302
302
302
302
302
301
300
300
300
301
300
299
298
298
298
299
299
298
298
297
297
298
299
299
299
299
299
300
301
301
302
301
301
301
301
302
302
302
301
300
300
300
301
301
300
299
299
299
299
300
299
299
298
298
298
299
299
299
299
299
299
300
300
301
300
300
300
300
301
302
301
301
301
301
302
303
303
304
304
304
305
306
307
308
309
310
311
313
315
318
320
322
323
325
328
331
334
335
338
340
342
346
349
352
354
356
359
362
366
369
372
374
376
379
382
385
388
390
391
393
395
398
401
403
404
405
406
407
409
411
412
413
414
416
417
420
421
422
423
424
425
426
428
429
430
429
430
430
431
430
430
428
427
425
423
422
419
417
413
410
406
403
401
397
392
388
384
381
377
374
370
366
361
358
354
351
348
343
339
335
332
328
325
322
318
314
310
307
305
302
299
295
292
289
287
286
284
281
278
276
274
273
272
271
268
266
264
262
261
260
258
256
254
252
251
250
249
248
246
244
243
244
244
245
244
244
246
247
249
251
253
255
257
259
262
266
268
271
273
274
277
280
282
284
285
286
287
289
290
291
292
292
292
293
294
295
295
294
294
293
293
294
294
