# Simple Text Format
# Sampling Rate (Hz):= 1200.00
# Resolution:= 12
# Labels:= ECG	III
# Age:=	74
# Gender:=	Masculino
533
534
535
536
537
537
537
537
538
540
540
541
541
542
543
544
545
545
545
545
546
546
548
549
549
549
549
550
551
552
553
553
553
554
555
556
557
557
558
558
558
560
561
562
562
562
562
562
563
564
565
565
565
565
565
566
567
567
566
566
565
566
566
566
566
565
564
564
565
565
565
564
563
563
563
563
564
563
562
561
561
561
562
562
561
561
560
560
559
560
559
559
558
557
557
557
557
557
556
555
554
554
555
555
554
553
553
552
553
553
553
553
552
552
552
552
553
553
552
552
552
552
552
553
552
552
551
551
552
552
552
552
551
551
551
551
552
551
551
550
550
550
550
551
550
550
549
549
549
550
550
549
549
548
548
549
549
548
548
547
546
547
547
547
547
546
545
545
545
545
545
545
544
544
544
545
546
546
546
545
545
546
547
547
547
547
547
547
547
548
548
548
548
548
548
549
549
549
549
548
548
548
549
549
548
547
547
546
546
547
546
546
545
544
543
543
543
542
541
540
539
539
539
539
539
538
537
537
537
538
538
538
537
537
537
538
538
538
538
537
537
538
539
539
539
539
539
539
540
540
541
541
541
541
541
542
543
543
543
542
542
543
543
544
544
543
542
542
542
543
543
543
542
542
542
542
543
542
542
541
541
541
542
542
542
542
541
541
542
542
543
543
542
542
542
542
543
542
541
541
540
541
541
542
541
541
540
540
541
542
542
543
543
543
544
546
548
549
550
550
552
554
556
558
559
561
562
564
566
568
570
571
572
574
576
578
580
581
582
582
583
585
586
587
588
588
588
588
589
590
590
590
589
588
588
589
589
588
587
586
586
586
587
587
587
587
587
588
589
590
591
592
593
593
595
597
598
599
599
599
599
600
600
600
599
597
596
595
594
592
591
588
585
583
581
579
577
574
571
568
565
563
560
558
555
552
548
546
543
541
538
535
531
528
525
522
520
517
513
509
506
504
501
499
496
493
490
488
486
484
482
480
478
475
474
473
472
470
468
466
465
464
463
463
462
461
460
460
460
461
462
462
463
464
467
470
473
476
478
481
484
487
491
495
498
501
504
508
511
515
518
520
522
524
526
528
530
532
532
532
533
534
535
536
536
535
535
535
536
537
537
537
537
537
537
538
538
538
537
537
537
537
537
538
537
536
536
535
536
536
536
536
535
534
534
535
535
535
534
533
533
534
534
535
534
534
533
533
533
534
534
533
533
533
533
533
533
533
532
531
531
531
532
532
532
531
531
531
531
532
532
532
531
531
531
532
532
532
532
531
531
532
532
533
533
532
532
532
533
534
534
534
533
533
534
535
535
535
535
534
534
535
536
536
536
535
535
535
535
536
536
536
536
536
537
538
539
539
539
539
539
540
541
542
542
541
541
542
543
543
544
544
544
544
544
545
546
546
546
546
546
547
548
549
548
548
548
548
549
549
550
550
549
549
550
551
551
551
551
551
551
552
553
553
553
553
553
554
555
556
557
558
558
558
559
560
561
562
562
562
563
564
565
565
565
565
565
565
566
566
566
566
566
566
566
567
567
567
566
565
565
565
565
565
565
564
563
563
563
563
563
562
561
561
561
561
561
561
560
559
558
558
559
559
558
557
556
556
555
555
555
554
554
553
553
553
553
552
551
550
550
550
550
550
550
549
548
548
548
549
549
548
547
547
547
548
548
548
547
546
546
546
547
547
547
546
546
546
547
548
548
548
547
547
547
548
548
548
548
547
547
547
548
548
547
546
545
545
544
544
544
543
542
541
541
542
542
541
540
539
539
539
539
540
539
538
538
538
539
539
539
539
538
538
539
539
539
539
539
538
538
538
539
540
539
539
538
539
539
540
540
540
539
539
539
540
540
540
539
539
538
538
539
539
538
537
536
536
536
536
536
535
534
534
534
535
535
535
534
534
534
534
535
535
535
534
534
534
534
534
535
534
534
534
534
535
535
535
534
534
534
534
535
536
535
535
534
534
534
535
535
534
534
533
533
534
534
533
532
532
532
532
532
533
532
532
532
532
532
533
533
533
533
533
533
534
534
534
534
533
533
534
534
534
534
533
533
533
533
533
533
533
532
532
532
533
533
533
532
531
531
532
532
533
533
533
533
533
534
535
536
536
536
537
538
540
542
543
544
545
547
549
551
553
555
556
557
559
562
564
567
568
570
572
575
577
579
581
582
583
584
586
588
589
590
590
591
591
593
594
594
594
593
593
594
595
595
595
595
595
595
596
598
599
600
601
602
603
605
607
609
610
611
612
613
615
616
616
615
614
613
613
612
611
609
606
604
601
599
597
595
591
588
585
582
580
577
573
570
566
563
560
557
554
551
547
543
540
537
533
530
526
522
519
516
513
510
507
503
500
497
494
492
490
487
484
481
479
477
475
473
470
468
465
464
462
461
459
456
454
453
452
452
451
451
450
449
450
451
452
454
455
456
458
461
464
468
470
473
475
479
483
487
490
493
495
497
500
503
506
508
509
510
512
513
515
516
517
517
517
517
518
519
519
519
518
518
518
518
519
519
518
517
517
517
518
518
518
518
517
517
517
518
518
518
517
517
517
518
518
519
518
518
518
518
518
518
518
517
516
515
515
515
515
515
514
513
512
512
513
512
512
511
511
511
512
512
512
511
510
510
511
512
512
512
511
511
511
512
512
513
513
512
512
513
514
514
514
514
513
513
514
515
515
515
515
514
515
515
515
516
515
515
514
515
516
516
516
515
515
515
515
516
516
516
515
515
515
516
516
516
516
515
515
515
516
516
516
516
515
515
516
517
518
518
518
518
518
520
521
521
522
521
522
523
524
525
525
524
524
524
525
526
526
526
526
525
526
526
527
528
528
528
528
529
530
531
531
531
531
531
532
534
535
535
535
535
536
537
538
539
540
540
540
542
543
544
544
544
544
545
546
547
548
548
548
548
548
548
549
549
549
548
548
548
549
549
548
547
547
546
546
547
547
546
545
545
545
545
545
544
544
543
543
543
544
544
543
542
541
540
540
540
540
539
538
537
536
536
536
536
535
534
533
533
534
534
533
532
532
531
532
532
532
532
531
531
531
532
532
532
532
531
531
531
532
532
532
531
531
531
531
532
533
532
531
531
531
531
532
532
531
531
530
531
531
531
530
529
529
528
529
529
529
528
527
527
526
527
527
527
526
525
525
525
525
525
524
523
523
522
522
523
523
523
523
522
522
523
523
523
523
523
523
523
524
525
525
524
523
523
523
524
524
524
523
522
522
522
522
522
521
520
520
520
520
520
520
518
517
517
517
517
517
516
514
513
513
513
513
513
512
511
510
510
511
511
510
509
509
508
509
509
509
509
508
508
508
508
508
508
508
507
507
508
508
509
508
508
507
507
508
509
509
509
508
507
507
508
508
508
508
507
507
507
508
508
507
506
506
505
506
506
507
506
505
505
505
505
506
506
505
505
505
505
506
506
506
505
505
505
505
506
507
506
506
505
505
505
505
505
505
504
504
504
505
505
504
503
503
502
503
503
504
503
503
503
504
505
506
507
508
509
510
512
515
516
517
518
520
521
523
526
528
529
530
532
534
536
539
541
542
543
545
547
550
551
553
553
554
556
557
559
561
562
562
562
563
564
565
566
566
566
566
566
567
568
568
568
568
569
570
572
573
574
574
575
576
578
579
580
581
582
583
584
585
586
586
585
584
583
582
582
580
578
576
573
571
569
567
564
561
558
556
553
551
549
546
542
539
536
534
532
529
526
523
519
516
514
511
508
504
500
497
494
492
489
485
481
477
474
472
470
467
464
461
459
456
454
452
450
448
446
444
443
442
441
439
437
434
433
432
432
431
430
429
428
428
428
429
430
430
431
432
435
437
440
442
444
446
449
452
456
459
461
464
466
469
472
475
477
479
480
482
484
486
488
488
489
489
489
490
491
492
491
491
491
491
491
492
492
491
490
490
490
490
490
490
489
488
488
488
489
489
488
487
487
487
487
487
487
487
486
486
487
487
488
487
486
486
486
486
487
487
487
486
486
486
487
487
487
487
486
486
486
486
487
486
485
485
485
485
486
486
485
485
484
484
484
485
485
485
484
485
485
486
486
486
486
485
486
486
487
487
487
486
486
486
486
487
487
486
486
486
486
487
487
487
486
486
486
486
487
487
487
487
486
487
487
488
488
488
487
487
488
489
489
489
489
489
489
490
491
491
491
491
491
491
492
493
493
493
493
494
494
495
496
496
496
495
496
496
497
498
498
497
497
498
498
499
499
499
499
499
499
500
501
501
501
500
501
502
503
504
504
503
504
504
505
506
507
507
507
508
509
510
511
511
511
511
511
512
513
514
514
514
514
515
515
516
517
517
516
517
518
518
519
518
518
517
517
517
517
517
516
515
514
514
514
514
513
512
511
510
510
510
510
509
508
507
507
507
507
507
506
506
505
505
505
505
505
505
504
504
504
505
505
504
504
503
503
503
504
504
504
503
503
503
503
503
503
503
502
502
503
503
503
503
502
501
501
501
502
501
501
500
499
499
499
500
499
498
498
497
497
498
497
496
495
495
494
494
495
494
494
493
492
493
493
493
493
492
492
491
492
492
492
492
491
490
490
491
491
491
491
490
490
490
491
491
491
491
490
490
491
491
491
491
490
490
490
490
490
490
489
488
487
487
487
487
486
485
484
484
484
484
484
483
482
482
481
482
482
482
481
480
479
479
479
479
479
479
478
477
478
478
478
477
476
476
475
476
476
476
476
475
475
475
476
476
476
476
475
475
476
477
477
477
476
475
475
476
476
477
476
476
475
475
476
476
476
475
475
474
475
475
476
475
474
474
474
474
475
475
474
474
473
473
474
474
474
474
473
473
474
474
474
474
473
472
472
472
473
473
472
471
471
471
471
471
471
470
470
470
470
471
471
471
470
470
470
472
473
474
475
475
476
477
479
481
482
484
485
487
489
491
494
495
496
498
500
502
504
506
508
509
510
512
514
515
516
517
517
518
519
521
521
521
521
521
521
521
522
522
521
520
520
520
520
520
520
520
519
520
520
521
522
522
522
522
523
524
526
527
527
527
528
528
529
530
530
529
528
527
527
527
525
523
521
519
517
515
513
511
509
506
503
501
498
496
493
490
487
484
482
480
478
475
472
468
466
463
460
457
454
450
447
444
441
438
435
431
428
425
422
420
417
414
411
408
406
404
402
400
397
395
393
392
391
390
389
387
385
384
384
384
384
384
383
383
384
385
388
389
391
392
394
397
400
403
406
409
412
415
419
424
427
430
432
434
437
440
443
445
446
447
449
450
452
453
454
454
454
454
455
455
456
455
455
454
454
454
455
454
454
453
453
453
453
453
453
453
452
452
452
453
453
453
452
451
452
452
453
453
452
451
451
451
452
452
452
452
451
451
451
451
452
451
450
450
450
450
451
451
450
449
449
449
450
450
450
450
449
449
450
450
450
450
449
449
449
449
450
450
449
449
449
449
449
450
450
449
449
449
449
450
450
450
450
449
450
450
451
451
451
451
451
451
451
452
452
451
451
452
453
454
454
454
453
453
453
454
454
455
455
454
454
455
455
456
456
456
456
456
457
458
458
458
458
458
458
459
461
461
461
461
462
463
464
465
465
465
465
466
467
468
469
469
469
469
469
470
471
471
471
471
471
471
472
473
473
473
473
473
474
475
476
476
476
476
476
477
479
479
480
480
480
481
481
482
483
483
483
483
484
486
486
486
485
485
485
485
486
486
485
485
484
484
485
485
485
484
483
483
483
483
483
482
481
480
480
480
481
480
479
478
478
477
477
477
477
476
475
475
475
475
475
474
473
472
472
472
473
473
472
471
470
470
470
470
470
470
469
469
470
470
470
470
469
468
468
468
468
468
467
467
466
466
466
467
466
465
464
464
464
465
465
464
464
463
463
463
463
463
463
462
462
462
462
462
462
461
461
461
461
461
461
461
460
459
459
460
460
460
459
459
458
458
458
459
458
458
457
457
458
458
459
458
457
457
457
457
458
458
458
457
457
457
458
458
458
457
457
456
456
457
457
456
455
455
455
455
455
455
454
453
453
453
453
453
453
452
451
451
452
452
452
451
450
450
449
450
450
450
449
449
448
448
449
449
449
449
448
448
448
449
449
449
448
447
447
448
448
448
447
446
446
446
446
446
446
446
445
445
445
446
446
446
445
444
444
445
445
445
445
444
444
445
446
446
446
445
444
444
445
445
445
445
444
443
443
444
444
444
444
443
443
443
444
444
444
444
443
443
444
444
444
444
443
443
443
444
444
444
444
443
443
443
444
444
445
445
445
445
446
448
449
449
450
450
451
453
455
457
458
459
461
462
465
467
468
469
470
472
474
476
478
479
480
481
482
484
485
486
486
486
486
487
488
489
489
489
488
488
488
489
489
488
487
486
486
486
487
487
486
486
486
486
487
488
489
489
489
490
491
493
494
494
494
494
495
496
497
497
496
495
494
494
493
493
492
490
488
487
486
485
483
481
478
476
474
473
471
469
466
463
460
457
455
452
449
446
442
439
436
433
429
425
421
417
414
411
408
405
401
397
394
391
389
387
385
382
380
378
376
375
373
371
368
367
365
364
364
363
361
359
358
358
358
358
358
357
357
358
359
361
363
364
366
367
370
374
377
381
383
386
389
392
396
399
403
405
408
410
414
416
419
420
421
423
424
426
427
428
428
428
428
429
430
430
430
430
430
429
430
430
429
429
428
427
427
427
428
427
427
426
425
426
426
426
426
425
425
425
426
427
427
427
427
426
426
426
427
427
427
426
426
426
426
426
426
425
424
424
424
424
424
424
423
422
422
422
422
422
421
421
421
421
422
422
423
422
422
422
423
424
424
424
423
423
423
424
425
425
425
424
424
424
424
425
425
424
423
423
424
425
425
425
424
424
424
425
426
426
425
425
425
425
425
426
426
426
425
425
426
427
427
427
426
425
425
426
427
427
427
427
427
427
428
428
429
428
428
429
430
431
431
431
431
431
432
432
433
434
434
433
433
434
435
436
436
436
436
436
438
439
440
440
440
440
441
442
443
444
444
444
444
445
446
447
447
447
446
446
447
448
448
447
447
446
446
447
447
448
448
447
447
448
449
450
450
450
450
451
452
453
454
454
454
454
454
455
455
455
455
454
454
454
454
454
453
452
451
450
450
450
449
448
447
445
445
445
445
444
443
442
441
440
440
440
440
439
438
438
438
439
439
439
438
437
438
438
439
439
439
438
439
439
440
441
441
441
440
441
442
442
443
443
442
442
442
443
444
444
444
444
444
444
445
446
446
446
446
446
447
448
448
448
448
448
448
448
449
449
448
448
447
448
448
448
448
447
446
446
446
447
447
446
446
445
445
445
445
445
444
443
443
443
444
444
444
443
442
442
442
443
443
442
442
441
441
442
442
442
441
441
440
441
441
441
441
441
440
440
440
441
440
440
439
438
438
438
438
438
437
435
435
434
435
434
434
433
432
432
432
432
432
431
430
430
430
430
431
431
430
429
429
429
430
430
430
429
428
428
428
428
428
428
427
426
426
426
427
427
426
426
425
425
426
426
426
426
425
426
427
427
427
427
426
426
427
427
428
428
428
428
428
429
430
430
430
430
430
430
430
431
431
431
430
429
429
429
430
429
428
427
426
425
425
425
425
424
423
423
423
424
423
423
422
422
422
423
423
423
423
422
422
422
423
423
424
423
423
424
425
426
426
427
427
427
428
430
432
433
434
435
436
438
441
443
445
446
447
449
452
454
456
457
458
460
462
464
466
468
469
470
471
472
474
475
476
477
477
478
480
481
482
482
482
482
482
483
484
484
484
484
484
485
487
488
489
490
490
492
494
495
497
498
498
499
500
502
503
504
503
503
502
502
502
501
499
497
495
493
491
489
486
483
480
477
474
472
470
468
464
461
458
455
452
450
447
443
440
437
434
431
428
424
420
416
412
409
406
403
398
394
391
388
385
383
380
377
374
371
370
368
366
363
361
358
356
355
353
352
350
348
346
345
345
344
343
342
341
341
341
342
343
344
344
345
347
350
352
355
357
359
361
364
368
371
374
376
378
381
385
388
390
392
394
395
397
399
401
402
403
403
404
404
405
406
406
406
405
406
406
407
407
406
405
405
404
405
405
405
405
404
404
404
404
404
404
403
403
403
403
403
403
403
402
401
401
401
402
401
400
400
399
400
400
400
400
399
399
399
399
400
400
399
399
398
398
399
399
399
398
397
397
397
398
398
398
397
397
397
397
398
398
398
397
397
398
398
399
399
399
398
398
399
399
400
400
399
399
399
399
399
399
398
397
397
397
397
398
398
397
396
396
396
397
397
398
397
397
397
398
399
399
399
398
398
399
400
400
400
400
399
399
400
401
401
401
401
401
401
402
403
403
403
403
404
404
406
407
407
407
407
408
409
410
411
411
411
411
412
413
414
414
414
414
414
414
415
416
416
416
416
416
416
417
417
418
417
417
418
419
420
420
420
420
420
421
422
423
424
424
424
424
425
426
427
428
428
428
429
430
431
432
432
431
431
432
432
433
433
432
432
432
432
432
432
432
431
430
429
429
429
429
428
427
426
426
426
426
425
424
423
422
422
422
422
421
420
420
419
420
420
419
419
418
418
418
418
419
419
419
418
418
419
419
420
420
419
419
419
419
420
420
419
418
418
418
418
418
418
417
416
416
416
416
416
415
415
414
414
414
415
415
414
413
413
413
413
414
414
413
413
413
414
414
414
414
413
412
412
413
413
413
413
412
411
411
411
411
411
410
409
408
408
408
408
407
407
406
406
407
407
407
407
406
406
406
407
408
408
407
407
407
407
407
408
408
407
406
406
407
407
407
406
405
405
404
405
405
405
404
403
402
402
402
402
402
401
400
399
400
400
400
399
398
397
397
397
397
397
396
395
395
395
395
395
394
394
393
393
393
394
393
393
392
391
391
392
393
392
392
391
391
392
392
392
392
392
392
392
393
393
393
392
392
391
391
392
392
392
391
390
390
389
390
390
390
389
389
389
389
390
390
389
388
388
388
389
390
390
389
389
389
389
390
390
390
390
389
389
390
390
390
389
388
388
388
388
389
388
388
387
387
387
388
388
389
388
389
389
391
392
393
393
394
395
396
399
401
402
404
405
406
408
411
413
415
417
419
421
424
426
428
430
431
432
434
436
439
440
441
441
442
444
445
446
447
447
447
448
449
450
450
450
449
449
449
450
451
452
452
452
453
455
456
458
459
459
460
461
463
465
466
467
467
467
468
469
469
469
468
466
465
464
463
462
460
458
455
453
451
450
447
444
441
438
435
433
431
428
424
421
418
415
412
409
406
403
399
396
393
390
387
383
380
376
374
371
369
366
362
359
356
354
352
350
347
344
341
339
338
336
334
332
329
327
325
324
322
320
318
316
314
314
313
313
312
311
311
311
312
313
314
315
316
317
319
322
325
328
330
332
335
338
341
345
347
350
352
355
358
361
363
365
366
367
369
371
373
374
374
374
375
375
376
376
376
375
375
375
375
375
375
374
373
372
372
372
373
372
371
371
370
370
371
371
371
370
370
370
371
372
372
371
371
370
370
371
371
371
370
369
369
369
369
369
369
368
367
367
367
367
367
366
366
365
365
366
366
366
366
365
365
365
366
366
366
366
366
366
367
368
368
367
367
366
366
367
368
368
367
367
367
367
368
368
368
368
368
368
369
370
370
370
370
370
370
371
372
372
371
371
371
371
372
372
372
371
371
371
372
372
372
372
372
372
372
373
373
374
373
373
374
374
375
376
377
377
377
378
379
380
380
380
380
380
380
381
382
383
383
383
383
384
385
385
386
386
386
387
388
389
390
390
390
390
391
392
394
394
394
394
394
395
396
396
397
396
396
397
398
399
399
399
398
399
399
400
401
402
402
402
403
404
405
406
406
406
406
407
408
409
409
408
408
407
407
408
408
408
407
406
405
405
406
405
405
404
403
403
403
403
402
401
400
399
399
400
400
400
399
398
397
397
398
398
397
396
396
396
396
396
396
396
395
394
394
395
395
395
394
393
393
393
393
393
393
393
392
392
393
393
393
392
391
391
391
392
392
392
391
390
390
390
390
391
390
389
389
389
389
389
389
389
388
387
387
388
388
388
387
386
386
386
387
387
386
386
385
385
385
385
385
384
383
382
382
382
382
382
381
380
380
380
381
381
381
381
381
381
382
383
383
383
383
382
383
384
384
384
384
383
383
383
383
383
383
382
381
381
381
381
381
380
379
378
378
378
379
378
377
377
376
376
376
376
376
375
374
374
374
374
374
373
372
371
371
371
372
371
370
369
369
369
369
370
369
369
368
368
369
369
369
368
368
367
368
368
369
368
368
367
367
368
368
369
369
368
368
369
369
370
370
370
369
369
370
371
371
371
371
370
370
370
371
371
371
370
370
370
371
371
371
371
370
370
370
370
370
370
370
369
369
369
370
370
369
368
368
368
368
369
368
368
367
367
367
368
368
368
368
368
368
369
370
371
372
372
373
374
375
377
378
379
380
381
383
385
387
388
389
390
392
394
396
398
399
400
402
404
406
408
410
411
411
412
414
415
417
417
417
417
417
418
419
419
419
418
418
418
418
418
418
417
416
416
416
417
418
419
419
419
420
421
423
424
425
425
425
426
428
428
429
428
427
426
426
426
425
424
422
420
418
416
415
413
411
408
406
404
402
401
398
395
392
389
387
385
383
380
377
374
371
368
366
363
359
356
352
349
347
344
341
337
333
330
328
325
323
320
317
315
312
310
308
306
304
301
299
297
296
295
293
291
289
288
287
286
286
285
284
283
282
283
284
285
286
287
288
290
292
295
298
300
303
306
309
313
317
320
323
325
328
332
335
338
340
341
343
344
346
348
349
349
349
349
349
350
351
351
350
350
350
350
351
351
351
350
350
350
351
351
351
350
349
349
349
350
350
349
349
348
348
348
348
348
347
347
346
346
347
347
347
346
346
346
346
347
347
347
347
346
346
346
347
347
347
346
346
346
347
347
347
346
344
344
344
344
344
344
343
342
342
342
342
342
342
341
341
341
342
343
343
343
342
342
342
343
344
344
343
343
343
344
345
345
345
344
344
345
345
346
346
346
345
345
346
346
347
347
346
346
346
347
347
348
347
347
347
347
348
349
349
348
348
348
348
349
350
349
349
349
349
350
350
351
351
351
351
352
353
354
355
354
354
355
356
357
358
358
358
358
358
359
359
360
360
359
359
359
360
361
361
360
360
360
360
361
362
362
362
362
362
363
364
365
365
365
365
366
367
368
368
368
368
368
368
369
370
370
369
369
369
370
370
370
370
369
369
369
370
370
370
369
369
368
368
369
369
368
367
366
366
366
366
366
365
364
363
363
363
363
362
361
359
358
358
358
358
357
355
354
354
353
353
353
352
351
350
350
350
350
349
348
348
347
347
347
348
347
346
346
346
346
346
346
346
345
344
345
345
346
346
345
344
344
344
345
345
345
345
344
344
344
344
345
344
344
343
343
343
344
343
342
341
341
341
341
341
340
339
338
338
338
338
338
337
336
336
336
336
336
336
335
334
334
334
334
334
333
332
332
331
332
332
332
332
331
331
331
331
332
332
331
330
330
330
331
332
331
331
330
330
331
331
331
331
330
329
329
330
330
330
329
328
327
327
328
328
327
327
326
326
326
326
325
325
324
324
324
324
324
324
323
322
321
321
322
322
321
321
320
320
321
321
322
321
321
321
321
322
322
322
321
320
320
320
321
321
320
319
318
317
317
317
317
316
315
315
315
316
316
316
315
315
315
315
316
317
317
317
316
316
317
318
318
318
317
317
317
318
318
318
317
316
316
316
316
316
316
315
314
313
313
313
313
313
312
311
312
312
312
312
312
311
311
311
312
313
314
314
315
316
317
319
321
322
324
325
327
330
332
334
335
336
338
340
342
344
346
347
348
349
351
353
354
355
355
355
356
358
359
359
359
358
358
359
359
359
359
358
358
357
357
357
357
356
355
355
355
356
356
356
356
356
357
358
359
361
361
362
362
364
365
366
367
367
367
367
368
368
368
367
366
364
362
361
360
358
356
353
350
348
346
344
342
339
336
333
331
329
327
325
322
318
316
313
311
309
306
302
298
295
293
290
287
284
280
277
274
271
269
265
261
258
255
252
250
248
245
242
239
237
235
233
231
229
227
225
224
223
222
221
220
219
219
219
220
221
221
221
222
224
226
229
231
234
236
238
242
245
249
252
255
258
261
264
268
271
273
275
277
279
282
284
285
286
287
287
288
289
290
290
290
289
289
289
290
290
290
289
288
288
289
289
289
289
288
288
288
289
289
289
288
287
287
288
288
288
288
287
287
287
287
287
287
287
286
286
286
286
287
286
285
285
285
285
286
286
286
285
284
284
284
285
285
284
284
284
284
284
285
284
284
283
283
283
283
284
283
283
282
282
282
282
283
282
282
282
283
283
284
284
284
283
283
284
284
285
284
284
283
284
284
285
285
285
284
284
284
285
285
285
285
284
284
284
285
285
285
284
284
284
285
286
286
286
285
285
285
286
286
286
285
285
285
286
287
287
287
287
287
288
289
289
290
290
290
290
291
293
293
294
294
293
294
294
296
297
297
297
297
297
298
299
299
299
299
300
301
302
303
303
303
302
303
303
304
305
305
305
305
305
306
307
308
308
308
308
309
310
311
312
312
312
312
313
314
315
315
315
314
315
316
316
316
316
316
315
315
316
316
315
313
312
312
311
311
310
309
308
306
306
305
305
304
303
302
301
301
301
301
300
299
298
298
298
298
299
298
297
297
297
297
298
298
297
297
296
296
297
297
296
296
295
295
295
296
296
296
295
294
295
295
295
295
295
294
293
294
294
294
294
293
292
292
292
292
293
292
291
291
290
291
291
291
291
290
290
290
291
292
291
291
290
290
290
291
291
290
289
288
288
288
288
287
287
286
285
285
286
286
285
284
283
283
283
284
284
283
283
282
282
283
283
283
283
283
282
283
284
284
284
283
283
283
283
283
283
283
282
282
282
282
283
283
282
281
281
281
281
281
280
279
278
278
278
278
277
277
275
274
274
274
274
274
273
272
272
272
272
272
271
270
269
269
269
269
269
269
268
267
267
267
267
267
267
266
266
266
267
267
267
266
265
265
265
266
266
266
265
265
265
265
266
266
265
265
264
265
265
266
266
265
265
265
265
266
266
265
265
264
264
265
265
266
265
265
264
264
265
265
265
264
263
263
263
264
264
264
263
263
263
263
264
264
264
263
264
264
265
265
265
264
263
263
263
264
264
264
263
263
263
264
264
265
265
265
265
266
268
270
271
272
273
275
277
280
282
283
284
286
288
290
293
295
296
298
299
302
304
306
307
308
309
310
312
314
315
316
316
317
318
319
320
321
321
320
321
322
323
324
324
324
324
325
326
328
329
330
331
331
333
335
336
338
338
339
339
340
341
342
342
340
339
338
337
336
335
332
329
327
324
322
320
318
315
311
309
306
304
302
298
295
291
288
286
283
281
277
274
270
267
264
261
258
254
250
246
243
240
237
233
229
226
222
220
217
215
212
208
205
203
201
199
197
195
192
190
188
187
186
184
182
180
178
178
177
177
176
175
174
174
175
177
178
179
180
182
185
188
191
193
196
198
201
205
209
212
214
216
219
221
224
227
229
231
232
233
235
236
237
238
238
237
238
238
239
240
240
239
239
239
239
239
239
239
238
238
239
239
240
239
239
238
238
238
238
238
238
237
237
237
237
237
237
237
236
236
236
236
237
236
235
235
235
235
236
236
236
235
235
235
236
236
236
236
236
235
236
236
236
236
235
235
234
235
235
235
235
234
233
233
233
233
233
232
231
231
231
232
232
232
231
230
230
231
232
232
232
231
231
231
232
233
233
233
233
233
234
235
235
235
234
234
234
234
235
235
235
235
234
235
235
236
236
235
235
235
236
236
237
237
237
236
236
237
238
238
238
238
238
239
239
240
241
241
241
241
242
243
244
244
244
244
244
245
246
246
246
246
246
247
248
248
249
249
249
249
250
251
252
252
252
252
252
253
254
255
255
255
255
256
257
258
258
258
259
259
260
261
262
262
262
262
262
263
264
265
264
264
264
264
265
266
266
266
265
265
266
267
267
267
266
266
266
266
267
267
266
266
265
265
265
265
265
264
263
262
262
262
262
261
260
259
259
259
259
259
259
258
257
257
257
258
257
257
256
256
256
256
256
256
255
253
253
253
253
253
252
251
250
250
249
249
249
248
247
247
248
248
249
248
248
247
247
248
249
249
249
249
249
249
250
250
251
251
251
251
251
252
252
252
251
250
250
250
251
251
250
249
248
247
247
247
246
245
244
244
244
244
243
243
242
241
241
241
241
241
241
240
240
240
241
241
241
241
240
240
241
242
242
241
241
240
240
241
241
242
241
240
240
240
240
240
239
239
238
237
238
238
237
237
235
234
234
234
234
233
232
231
230
230
230
230
230
229
228
228
228
228
228
228
227
226
226
226
227
227
226
225
225
225
225
225
225
225
224
224
224
224
225
224
223
223
223
223
224
224
223
223
222
222
223
223
223
223
222
222
223
223
223
223
222
221
221
222
223
223
223
222
221
222
222
222
222
222
221
221
222
222
223
222
222
221
221
222
222
222
222
221
221
221
221
222
221
221
220
220
220
221
221
220
220
219
219
220
221
221
221
221
221
222
223
225
226
226
227
229
231
233
235
236
237
238
240
242
245
247
249
250
252
254
257
259
261
263
264
266
268
270
272
273
273
274
275
277
278
279
280
280
280
280
281
281
282
281
281
281
282
283
284
284
284
284
285
286
288
289
290
290
291
292
293
295
296
296
296
296
297
297
297
296
295
294
293
292
291
289
287
284
282
280
278
276
274
271
268
265
263
261
259
255
252
249
246
244
241
239
235
231
228
225
222
219
216
212
208
205
203
200
198
194
191
187
185
183
181
179
176
173
170
168
166
164
162
159
157
155
153
152
151
149
147
145
144
144
144
143
143
142
142
143
144
146
147
149
150
152
155
158
161
164
166
168
171
174
178
181
183
185
188
190
192
195
196
197
198
199
201
202
203
203
203
203
203
204
205
205
205
204
204
204
205
205
205
205
204
204
205
205
205
205
204
203
203
203
204
204
203
202
202
202
202
202
202
202
201
201
202
202
203
202
202
202
202
202
203
203
202
202
201
201
202
202
202
201
200
200
200
201
201
200
200
199
199
199
200
200
200
199
199
199
200
201
201
200
200
200
201
201
202
201
201
200
201
201
202
202
201
200
200
200
200
201
201
200
200
200
200
200
201
200
200
199
200
201
201
202
202
201
201
202
203
204
204
204
204
204
205
206
207
206
206
206
206
207
208
208
208
208
208
208
209
210
210
210
210
210
211
212
213
213
212
212
212
213
214
214
214
214
214
215
216
217
217
217
217
217
218
219
220
220
220
220
220
221
223
223
223
223
223
224
224
225
226
226
226
226
228
229
230
230
230
230
230
231
232
233
233
232
232
233
233
234
234
234
233
233
233
234
234
234
233
232
232
232
232
232
231
231
230
230
231
231
231
230
229
228
229
229
229
228
227
226
226
226
226
226
225
225
224
224
224
225
224
224
223
222
223
223
223
222
221
221
220
220
220
220
219
219
218
218
218
218
218
217
216
216
216
217
217
217
216
216
216
216
217
216
216
215
215
215
215
215
215
214
213
212
212
213
212
211
210
209
209
209
209
209
208
207
207
207
207
208
207
207
207
207
207
208
208
208
207
207
208
208
209
209
209
208
208
208
208
209
208
208
207
207
207
208
207
206
205
204
204
204
204
204
203
202
202
202
202
202
202
201
200
200
200
201
201
200
199
198
198
198
198
198
197
196
196
196
196
196
195
195
194
194
194
195
195
194
194
193
193
194
195
195
194
194
193
193
194
194
194
194
193
193
194
194
195
194
193
193
193
193
194
194
194
193
193
193
194
194
194
194
193
193
194
195
195
195
194
193
193
194
194
194
194
193
193
193
193
194
193
193
192
192
192
192
192
192
191
190
190
191
191
191
190
189
189
189
189
190
190
189
189
189
190
191
192
192
192
192
193
195
196
198
199
200
201
203
205
207
209
210
211
213
216
218
220
222
223
224
225
228
230
231
232
233
234
235
236
238
238
238
238
239
239
240
240
240
240
239
239
239
240
239
239
238
238
238
239
240
240
240
240
241
243
244
246
246
247
248
249
250
252
252
252
252
252
252
252
252
251
249
248
246
245
244
243
240
237
235
232
231
229
227
225
222
220
218
215
213
210
207
204
201
199
197
194
190
186
182
179
176
174
170
167
163
159
157
154
152
149
146
143
140
139
137
135
132
129
127
125
123
122
120
117
115
113
112
111
110
109
107
106
106
107
108
108
109
109
110
111
114
117
120
122
125
128
131
135
139
142
145
148
152
155
159
162
164
166
168
170
173
175
177
177
178
178
179
180
181
181
181
181
181
181
182
182
181
181
180
180
180
181
180
179
178
178
178
179
179
179
178
178
177
178
178
179
178
178
178
178
179
179
180
179
179
178
179
179
180
180
179
179
179
179
179
179
179
178
177
177
177
178
178
177
176
176
176
177
177
177
177
176
176
177
178
178
178
177
177
177
178
178
178
178
177
177
177
178
178
178
178
178
178
178
179
179
179
178
178
178
179
180
180
180
179
179
180
181
181
182
181
181
181
182
183
183
183
182
182
183
183
184
184
184
183
183
184
185
185
186
186
186
186
187
188
189
189
189
189
190
191
192
193
194
194
194
195
196
197
198
198
198
198
199
200
201
200
200
200
200
201
201
201
201
201
201
201
202
203
203
203
203
204
205
206
207
207
207
207
208
209
211
211
211
211
212
212
213
214
214
214
214
214
215
216
216
216
215
215
215
216
217
217
216
215
215
215
215
215
215
214
213
213
213
213
213
212
211
210
209
209
210
209
208
207
206
206
206
206
205
205
204
204
204
204
204
204
203
202
202
203
203
203
202
202
202
202
202
203
203
202
201
201
201
201
201
200
199
199
198
199
199
199
198
197
197
197
197
197
197
196
196
196
196
197
196
196
195
195
194
195
195
195
195
194
194
194
194
194
194
193
193
193
193
194
194
193
193
192
192
192
192
192
191
190
190
190
190
190
190
189
188
188
188
189
189
188
187
187
187
188
189
189
188
188
188
188
188
188
188
188
187
187
188
189
189
188
188
187
187
187
187
187
186
185
185
185
185
185
185
184
183
182
182
182
182
181
180
179
178
179
179
178
177
176
175
175
176
176
176
175
175
175
175
176
176
175
175
174
174
175
176
176
176
175
175
175
175
176
176
175
175
175
175
176
176
175
175
174
174
175
176
176
175
175
175
175
176
176
176
176
176
176
176
177
177
177
176
176
176
177
177
177
177
176
175
176
176
176
176
176
175
175
176
176
176
175
174
174
174
174
175
175
174
174
174
174
175
176
176
177
177
178
179
180
181
182
183
184
185
187
189
191
192
193
194
196
198
200
201
203
204
205
208
210
212
213
214
214
216
217
219
220
220
220
221
222
223
224
224
224
223
223
224
224
224
224
223
223
223
224
225
225
225
224
225
226
227
229
230
231
231
232
234
236
237
237
237
237
238
239
239
239
237
236
235
234
233
231
229
227
224
222
221
219
217
214
212
209
207
205
204
201
198
195
192
190
188
186
183
180
176
174
171
168
165
161
158
154
151
148
145
142
138
135
131
129
127
125
123
120
117
115
114
112
110
108
105
103
102
101
100
99
98
96
95
94
94
94
94
94
94
95
97
99
101
103
104
107
109
113
117
120
123
126
129
133
137
141
144
147
149
152
155
158
160
161
162
163
164
165
167
167
167
167
166
167
167
168
167
167
166
166
167
167
167
167
166
166
166
167
168
168
168
167
167
167
167
168
168
167
167
167
167
168
168
167
166
165
165
165
166
165
164
163
163
163
163
164
164
163
162
162
163
163
164
163
163
162
163
163
164
164
163
162
162
163
163
164
164
164
163
164
164
165
165
165
165
164
165
166
166
167
166
166
166
167
167
168
168
167
167
167
168
168
168
167
167
166
167
167
168
168
168
167
168
168
169
169
169
169
169
170
171
172
172
172
171
171
172
173
174
174
173
173
173
174
174
175
175
175
175
176
177
178
179
179
179
180
180
182
183
183
183
183
183
184
185
186
187
187
186
187
188
189
189
189
188
189
189
190
191
191
191
191
191
192
193
194
194
194
194
195
196
197
198
198
198
198
199
200
201
201
201
201
201
202
203
204
205
205
204
205
206
207
207
207
207
206
207
208
208
208
208
207
207
207
207
207
207
206
205
205
205
205
205
204
203
202
201
201
201
200
199
198
198
198
198
198
197
196
195
195
196
196
196
195
194
194
193
194
194
194
193
192
192
192
192
193
192
192
192
192
192
193
192
192
191
191
191
191
192
192
191
191
190
191
191
191
191
191
190
191
191
192
192
192
192
192
192
193
194
194
194
194
194
194
195
195
195
194
194
194
194
194
194
193
192
191
191
191
191
191
189
188
188
188
188
188
187
186
186
185
186
186
186
185
184
184
184
184
185
185
185
184
184
184
185
185
185
184
184
184
185
186
186
185
185
184
184
185
185
185
184
184
183
184
184
185
184
184
183
183
183
184
183
183
182
181
181
181
182
181
180
179
179
179
179
179
178
177
177
177
177
177
177
176
175
175
175
175
176
176
175
174
174
175
175
176
175
175
175
175
176
177
177
177
177
177
177
178
179
179
179
179
179
179
180
180
181
180
180
180
181
181
181
181
180
180
180
180
180
180
179
178
178
178
179
179
178
178
177
177
178
179
179
178
178
178
178
179
179
179
178
177
177
177
178
178
178
178
178
178
179
180
180
180
180
181
182
184
186
187
188
189
191
193
196
198
200
202
203
206
209
211
213
215
216
218
220
222
225
226
227
228
229
230
232
234
235
235
236
237
238
239
240
240
240
240
241
242
243
244
243
243
244
245
247
248
249
250
251
252
254
256
258
259
259
261
262
264
265
265
265
264
264
264
263
263
261
259
257
255
254
252
249
246
242
239
237
235
233
230
226
223
220
217
214
211
208
204
201
197
195
192
188
184
180
176
173
170
167
163
159
154
151
148
146
143
140
137
134
132
130
127
125
122
120
117
116
114
113
111
109
107
106
105
104
103
102
101
101
101
101
102
103
103
104
105
107
110
113
115
117
120
123
126
130
133
136
139
141
144
148
151
154
155
157
159
161
163
164
165
166
166
167
168
169
170
170
169
169
169
170
171
171
170
170
169
170
170
170
170
169
168
168
168
168
168
168
167
166
166
167
167
167
166
166
165
166
166
167
167
166
166
166
166
166
167
167
166
166
166
167
167
167
166
166
165
165
166
166
166
165
164
164
164
165
165
165
164
164
164
165
166
166
165
165
164
164
165
166
166
165
165
165
165
165
166
165
165
164
165
165
166
166
165
165
165
165
166
167
167
166
166
166
167
168
168
168
168
168
169
169
170
170
170
170
170
170
171
172
172
172
171
172
172
173
174
174
173
173
174
175
176
176
176
176
176
176
177
178
178
178
178
178
178
179
180
180
179
179
180
181
182
182
182
182
183
183
185
186
186
186
186
187
188
189
190
190
190
190
191
192
193
193
193
193
193
194
195
196
196
196
196
196
197
198
199
200
200
200
201
203
204
204
204
204
204
205
206
207
206
206
205
206
206
206
207
206
205
204
204
204
204
204
203
202
202
202
202
202
201
200
199
199
199
199
199
199
198
197
198
198
198
198
197
196
195
196
196
196
196
195
195
195
195
196
196
196
195
195
195
196
196
196
195
194
194
194
195
195
195
194
193
193
194
194
194
194
193
193
193
194
194
194
194
193
193
194
194
195
194
194
193
193
193
194
194
194
193
192
193
193
193
193
192
192
191
191
191
191
191
190
189
189
189
189
189
188
187
187
187
187
187
187
186
186
186
186
187
188
188
187
187
187
188
188
189
189
189
188
189
189
190
190
189
188
188
188
188
188
187
186
185
185
185
185
185
184
183
183
183
183
183
182
182
181
180
180
180
180
180
179
179
178
179
179
179
179
178
178
179
179
179
179
178
178
178
178
179
180
179
179
178
178
178
179
179
179
178
178
178
179
179
179
179
178
178
179
180
181
181
180
180
180
181
181
181
181
181
181
181
182
183
183
182
182
181
182
182
183
183
182
182
182
182
182
183
183
182
182
182
182
183
182
182
181
181
181
181
182
181
181
180
180
181
181
182
182
182
182
183
185
186
187
187
187
188
190
192
194
195
196
197
198
200
203
205
206
207
209
211
214
216
218
219
221
223
225
228
230
232
233
234
235
237
239
240
241
242
242
244
245
246
246
246
245
245
245
246
247
247
246
246
247
248
249
250
251
251
252
253
255
257
258
259
260
260
261
263
264
264
263
262
262
262
261
260
258
256
254
253
251
249
247
244
241
238
236
235
233
230
227
224
221
219
217
215
212
209
206
204
202
199
196
192
188
184
181
178
175
172
168
164
161
158
156
153
150
146
144
142
140
138
136
134
131
129
128
126
125
123
121
119
118
117
116
116
115
114
113
114
114
115
116
117
118
119
122
125
127
130
132
135
138
142
146
150
152
155
158
161
164
167
170
172
173
175
177
179
181
181
182
182
183
184
184
185
184
184
184
184
184
185
184
184
183
182
182
183
183
182
181
181
180
181
181
181
181
180
180
180
181
182
182
181
181
181
181
182
182
182
181
181
181
181
182
182
182
181
181
181
181
182
181
181
180
180
180
181
181
181
181
180
181
181
182
182
182
182
182
182
183
184
184
183
182
182
182
183
183
183
182
182
182
182
183
183
183
182
182
182
183
183
183
183
182
182
183
184
185
185
184
184
184
185
186
187
187
186
187
187
188
189
189
189
189
189
190
191
191
191
191
191
191
192
192
193
193
193
193
193
194
195
195
194
194
194
195
196
197
197
197
197
198
199
200
201
201
202
202
203
204
205
206
205
205
205
206
207
208
208
208
208
208
209
210
210
211
211
211
212
213
214
214
214
214
215
216
218
219
219
219
219
220
221
222
223
224
224
224
225
226
227
227
226
226
226
227
227
228
227
226
226
226
226
226
226
225
225
224
225
225
225
225
224
223
222
222
223
223
222
221
221
221
221
221
221
220
220
219
219
219
219
219
218
217
217
218
218
218
218
217
216
216
216
216
216
216
215
215
215
216
216
216
215
214
214
214
215
215
215
214
214
214
215
215
215
215
214
214
215
216
216
216
215
215
215
215
216
216
215
214
214
214
214
214
214
214
213
212
212
213
213
212
212
211
211
211
211
212
211
211
210
211
211
212
212
212
212
212
213
213
214
214
213
213
213
213
214
215
215
214
214
214
214
215
214
214
213
212
212
212
213
212
211
210
210
210
210
210
209
208
207
207
207
207
207
207
206
206
206
207
207
207
206
206
206
206
207
207
207
206
206
206
206
207
207
206
206
205
206
206
207
206
206
205
205
206
206
207
207
206
206
206
207
207
207
207
207
206
207
208
208
208
208
207
207
208
208
208
208
207
207
207
208
209
209
209
209
209
210
211
211
211
211
210
210
211
212
212
212
211
211
211
211
212
212
211
210
210
210
210
211
210
210
209
209
210
211
211
212
211
212
213
214
215
217
218
218
220
222
224
226
227
228
230
232
234
237
239
241
242
243
245
248
250
252
253
254
256
257
259
261
261
262
262
263
264
265
265
265
265
264
264
264
265
264
264
263
263
264
264
265
264
264
264
264
265
266
267
268
268
269
270
271
273
274
274
274
275
275
276
277
276
275
274
274
273
273
272
270
268
266
265
264
263
261
259
256
254
253
251
249
247
244
241
238
236
234
231
228
225
221
218
215
212
209
205
202
198
196
193
191
187
184
180
178
176
174
172
169
166
164
162
160
159
157
155
153
151
150
149
148
147
145
143
142
142
142
142
142
142
143
144
146
148
150
152
154
157
160
164
168
171
174
177
181
185
189
193
195
198
200
203
206
209
211
213
214
215
217
219
220
220
220
220
220
221
222
222
222
222
222
222
222
223
223
222
222
222
222
223
224
224
223
223
223
224
224
225
225
225
224
225
225
226
226
226
225
225
225
226
226
226
225
224
224
224
225
225
224
223
223
223
224
225
225
225
224
224
225
226
227
227
226
226
226
227
228
228
228
227
227
227
228
228
228
228
228
227
228
229
229
229
229
228
228
229
229
230
230
229
229
229
230
231
231
231
231
231
232
233
234
234
234
234
234
235
236
237
237
237
237
237
238
238
239
238
238
238
239
240
240
240
239
239
239
240
240
241
241
241
241
242
243
244
244
244
244
245
246
247
248
249
249
249
249
250
251
252
252
253
253
254
255
256
257
257
257
258
259
260
261
261
261
261
262
263
264
265
265
265
266
266
267
268
269
269
269
269
270
271
272
272
272
272
272
273
274
274
274
274
274
274
275
276
276
275
275
275
276
276
277
276
275
275
274
275
275
275
275
274
273
273
273
273
272
271
270
270
270
270
270
269
268
268
267
268
268
269
268
267
267
267
267
268
268
268
267
267
267
268
268
268
267
266
266
266
267
267
266
265
265
265
265
265
265
265
264
264
264
265
265
264
264
263
263
263
264
264
263
262
262
262
262
263
263
263
263
263
263
264
264
264
263
263
263
263
264
264
264
263
262
262
262
262
262
261
260
260
259
260
259
259
258
257
257
258
258
259
258
258
258
258
259
259
260
260
260
260
260
261
262
262
262
261
261
262
263
263
263
262
262
262
263
263
263
262
262
261
262
262
262
261
260
259
258
258
259
258
258
257
256
255
255
255
255
254
253
253
253
254
254
254
253
253
253
253
254
254
254
254
254
254
255
256
256
256
256
256
257
257
258
258
257
257
257
257
258
258
258
257
257
257
258
258
258
257
257
257
257
258
259
259
258
258
258
258
259
259
259
258
258
258
259
259
259
259
258
258
259
259
260
259
258
258
258
258
259
259
258
258
257
257
257
258
258
258
258
258
259
260
261
261
262
262
263
265
267
269
270
271
273
275
277
279
281
283
284
286
288
291
293
295
296
298
300
302
305
307
308
309
310
311
313
314
315
316
316
316
317
318
318
317
316
315
315
315
315
315
314
314
313
314
315
316
316
317
317
318
320
322
324
325
326
327
328
330
332
333
333
333
333
333
333
333
332
331
329
327
325
324
322
319
316
314
312
310
308
306
303
300
298
295
294
292
289
287
284
281
279
277
274
270
266
262
259
256
253
249
245
241
237
233
231
228
225
221
218
215
213
211
209
207
204
202
200
199
198
197
195
193
192
191
191
191
190
189
188
188
189
190
191
192
192
193
195
197
200
203
205
207
210
214
217
221
225
228
230
233
237
240
243
246
247
249
251
254
256
258
258
259
259
260
261
262
262
262
262
262
263
263
264
263
263
262
262
263
263
263
263
262
261
261
261
261
261
261
260
260
260
261
261
260
259
259
259
260
260
261
260
260
260
260
261
262
262
262
262
262
262
263
263
263
262
261
261
261
262
261
261
260
259
259
259
259
259
259
258
258
259
259
260
259
259
259
259
259
260
261
261
261
261
261
262
262
263
262
262
262
263
264
264
264
263
263
263
264
264
265
264
264
264
264
265
265
265
265
265
265
266
267
268
267
267
267
267
268
269
269
269
269
269
270
271
272
272
272
272
272
273
274
275
275
275
275
276
277
278
279
279
278
279
279
281
282
282
282
282
283
284
285
286
286
286
286
287
288
289
290
290
290
290
291
292
293
294
294
294
295
296
297
298
298
298
298
299
300
301
302
302
302
302
303
304
305
305
305
304
305
306
307
307
307
307
307
307
307
308
308
308
307
307
307
308
308
308
308
307
307
307
308
308
307
306
306
306
306
306
306
305
304
304
303
304
303
303
302
301
300
300
300
300
299
297
296
296
296
296
296
296
295
295
295
295
296
296
296
296
296
297
298
299
299
299
299
300
300
301
302
301
300
300
300
300
300
300
299
298
297
298
298
298
297
297
296
296
296
297
297
297
296
296
296
297
298
298
297
297
297
297
298
298
297
296
295
295
296
296
296
295
294
294
294
294
294
294
294
293
294
294
295
295
295
294
294
294
294
295
295
294
294
293
293
294
294
294
293
293
293
293
293
293
293
292
291
291
292
292
292
292
291
291
291
291
291
291
290
289
289
289
290
289
288
287
286
286
286
286
285
284
283
282
282
282
282
282
282
281
281
281
281
281
281
280
280
280
281
282
282
282
281
281
282
282
283
283
283
283
283
284
285
285
285
284
284
284
285
286
286
286
286
286
286
286
287
287
286
286
285
286
286
286
286
285
285
285
285
286
286
285
284
284
284
284
285
285
284
284
284
285
286
286
286
286
285
286
286
287
287
287
286
286
287
287
288
288
288
287
287
288
288
289
288
288
288
288
289
291
291
292
292
293
294
296
298
299
301
302
304
306
309
311
312
314
316
318
321
324
327
329
330
333
335
338
340
342
344
345
347
349
351
353
354
355
356
357
358
360
361
361
361
361
362
363
364
365
366
366
367
369
371
372
374
374
375
377
379
382
383
384
385
386
387
388
389
389
389
388
387
387
386
385
383
380
377
375
373
370
368
364
361
358
355
353
350
347
344
340
337
335
332
329
325
322
318
315
312
309
306
302
298
295
292
289
286
283
279
275
273
271
269
266
264
261
258
256
254
253
251
248
245
243
241
240
238
236
234
232
230
230
229
228
227
225
224
224
225
226
227
228
229
230
233
235
238
240
242
244
247
251
254
257
260
262
264
267
270
273
275
277
278
280
281
283
285
286
287
287
288
289
290
291
291
291
291
291
291
292
292
291
291
290
291
291
291
291
291
290
290
290
291
291
290
289
289
289
289
290
290
289
288
288
288
288
289
289
288
288
288
288
289
289
289
288
288
288
288
289
289
288
287
287
288
288
288
288
288
287
287
288
288
289
288
288
287
287
288
289
289
289
288
288
288
289
289
289
289
288
288
289
290
290
290
289
289
289
290
291
291
291
290
290
291
292
292
293
293
292
293
294
294
295
294
294
294
294
295
296
296
296
295
295
296
296
297
297
296
296
296
297
298
298
298
298
298
298
299
300
300
300
300
300
301
302
302
303
303
303
303
305
306
306
306
306
306
307
308
309
310
310
310
310
311
312
313
314
314
314
315
316
317
318
318
318
318
319
320
321
322
322
322
322
323
324
325
326
327
327
327
329
330
330
330
330
330
331
332
333
333
333
332
332
333
333
334
334
334
334
334
335
335
335
335
334
333
333
333
334
333
332
331
331
331
330
330
330
329
327
327
327
327
327
326
325
325
325
325
325
325
325
324
323
324
324
324
324
323
322
322
322
322
322
321
321
320
320
321
321
321
321
320
320
320
321
321
322
321
321
322
322
323
323
323
322
322
322
323
323
323
322
321
321
321
321
321
321
320
319
319
319
319
319
318
317
316
316
316
317
316
315
314
314
314
314
314
314
313
312
312
313
313
313
313
312
312
312
313
313
314
314
313
313
314
315
315
316
315
315
315
316
316
316
316
315
315
315
315
315
315
314
313
312
312
312
312
312
311
310
309
310
310
310
309
308
307
307
307
307
307
306
305
305
305
306
306
306
305
305
305
305
306
306
305
305
304
304
305
306
306
305
304
304
304
305
305
305
304
303
303
304
305
305
304
304
303
303
304
304
304
304
303
303
303
303
304
304
303
303
303
303
304
304
304
303
303
303
303
304
304
304
303
303
303
304
304
304
303
303
303
303
304
304
303
303
302
302
303
304
304
303
303
303
303
304
305
305
305
305
306
307
308
309
309
309
310
311
313
315
316
316
317
319
320
322
324
326
327
329
331
333
335
337
339
340
341
343
346
348
350
351
351
353
354
356
357
358
358
358
359
360
361
361
361
360
359
359
360
360
360
359
359
359
359
360
361
362
362
363
364
366
367
368
369
370
370
372
373
375
375
375
375
375
374
374
374
373
371
369
368
367
365
363
361
358
355
353
352
350
348
344
341
338
336
334
331
328
325
322
319
317
314
311
307
303
299
296
293
291
287
284
280
277
274
271
269
266
262
259
257
255
253
251
248
246
243
241
240
239
237
235
233
231
231
230
230
229
228
227
226
227
228
229
229
230
231
233
236
238
241
243
245
248
251
254
258
261
263
266
269
273
276
278
280
282
283
285
287
289
290
291
291
292
293
294
295
295
294
294
294
295
295
295
295
294
293
293
294
294
294
293
292
292
292
293
293
293
292
292
292
292
293
293
292
292
291
292
292
293
293
292
291
291
291
292
292
292
292
291
292
292
293
293
293
292
292
292
292
293
293
292
291
291
291
292
292
292
291
290
291
291
292
292
291
291
291
291
292
292
292
292
291
291
292
293
293
293
292
292
292
293
294
294
293
292
292
292
292
293
293
292
292
291
292
292
292
292
292
291
292
293
293
294
293
293
294
294
296
297
297
297
297
297
298
299
300
300
300
300
300
301
302
302
302
302
302
303
304
305
305
305
304
305
306
307
307
308
308
308
309
310
311
311
311
311
311
312
313
314
315
314
314
315
316
317
318
318
318
318
318
320
321
321
321
321
321
321
322
323
323
323
323
324
325
326
327
327
327
328
329
330
331
332
331
331
331
332
333
333
333
333
332
331
331
331
331
330
329
328
328
328
327
327
326
324
324
323
324
324
323
322
321
321
321
321
321
321
320
320
320
320
321
320
319
319
318
318
318
318
318
317
316
316
316
317
317
316
316
315
315
315
316
316
315
315
314
315
315
316
316
315
314
314
314
315
315
315
314
314
314
314
315
314
314
313
312
312
313
313
312
311
310
309
309
309
309
308
307
306
306
306
306
305
304
303
303
303
303
304
303
303
302
302
303
304
304
305
304
304
305
305
306
306
305
305
305
305
306
306
306
305
304
304
304
304
304
304
303
302
302
303
303
303
302
301
301
301
301
301
301
300
299
299
299
299
299
299
298
297
297
297
298
297
296
295
295
295
295
295
295
294
293
293
293
294
294
293
293
292
292
293
293
293
293
292
292
292
293
293
293
292
292
292
292
293
293
293
293
293
293
294
294
294
294
293
293
293
293
294
293
293
292
292
292
293
293
293
292
292
292
292
293
293
292
292
291
292
292
293
292
292
291
291
291
292
292
291
291
290
290
291
291
290
289
288
288
288
289
290
290
290
290
290
291
292
293
294
295
295
297
299
302
303
304
305
306
308
311
313
314
315
317
318
320
322
324
325
326
328
330
332
333
334
335
335
336
337
338
340
340
340
340
340
340
341
341
340
339
338
338
338
338
337
337
336
336
336
338
339
339
339
339
340
342
343
345
346
347
348
349
351
352
353
352
352
351
351
351
351
350
348
346
344
342
341
339
337
334
331
330
328
326
324
320
317
314
311
309
307
304
301
297
294
291
289
286
282
278
274
271
269
266
262
259
255
252
250
248
245
243
240
237
235
233
231
230
228
225
223
222
221
221
219
218
216
215
214
214
214
214
213
213
214
215
216
217
218
219
221
224
227
230
233
235
238
241
245
249
253
256
258
261
264
267
270
273
275
276
277
279
281
283
283
283
283
283
284
285
285
285
284
284
283
284
284
284
284
283
283
283
283
283
283
282
281
281
281
281
281
281
280
279
279
279
279
279
278
277
277
277
277
277
277
276
275
274
274
275
275
274
274
273
272
273
273
273
272
271
271
271
272
272
272
272
271
271
272
272
272
272
271
271
271
271
272
272
271
271
270
270
271
271
271
270
270
270
270
271
271
271
270
270
270
270
271
271
271
271
271
271
272
272
272
272
271
271
272
272
273
273
272
272
272
272
273
273
273
273
273
273
274
275
275
274
273
273
273
274
274
274
274
273
274
274
275
276
276
276
277
278
279
280
281
281
281
281
282
284
285
285
285
285
285
286
287
287
287
287
287
287
288
289
289
289
288
288
289
290
291
291
290
290
291
292
293
294
294
294
294
295
296
297
298
298
298
298
299
301
302
302
302
302
302
303
304
304
304
304
304
304
304
304
304
304
303
303
303
303
303
302
300
299
299
299
299
299
298
297
296
296
296
296
295
294
293
292
292
292
292
292
291
290
290
290
291
291
290
290
289
289
290
290
290
290
289
289
289
290
290
290
289
289
288
289
289
289
288
288
287
287
288
288
288
287
286
286
286
286
286
286
285
284
284
285
285
285
285
284
284
284
284
285
285
284
284
284
284
285
285
285
284
283
283
283
283
283
283
282
281
281
282
282
281
281
280
280
280
280
281
280
280
279
279
280
281
281
281
280
280
280
281
282
282
281
280
280
280
281
281
281
280
279
279
280
280
280
280
279
278
278
279
279
278
277
277
276
276
276
276
276
275
274
274
274
274
274
273
272
272
272
272
272
272
271
270
270
270
270
271
270
270
269
269
269
270
270
270
270
270
270
271
272
272
272
272
272
272
273
274
274
273
273
273
274
274
275
274
273
273
273
274
274
274
273
272
272
273
273
274
274
273
272
273
273
274
274
274
273
273
274
274
275
274
274
273
273
273
274
274
274
273
272
272
272
272
272
272
271
270
271
271
271
271
271
270
270
271
272
273
273
274
274
275
277
278
280
281
283
284
287
289
291
293
294
295
297
299
302
304
306
307
308
310
313
315
317
318
320
321
323
325
327
328
328
329
330
331
332
333
334
334
334
334
335
336
336
336
336
336
337
338
340
340
341
341
343
344
346
348
349
349
350
351
352
354
355
355
354
354
354
354
354
352
350
348
346
344
343
341
338
335
332
330
328
326
323
320
317
314
312
310
308
305
301
298
295
293
290
287
284
280
276
273
270
267
263
260
256
252
249
246
244
240
237
233
230
227
225
222
219
216
213
211
209
208
206
204
202
200
199
199
198
197
195
195
194
195
196
197
198
199
200
202
204
207
210
212
214
217
221
225
229
233
236
238
242
245
249
252
254
256
258
260
262
264
265
266
266
267
267
268
268
268
267
266
266
266
267
267
267
266
266
266
266
267
267
267
266
266
267
268
269
269
268
268
268
268
269
269
269
268
268
268
269
270
269
269
268
267
268
268
268
268
267
266
266
266
266
266
266
265
265
265
265
266
266
266
265
265
265
266
267
266
266
265
265
266
266
266
266
265
265
265
265
266
266
265
264
264
265
265
266
266
266
266
266
267
267
268
267
267
267
268
268
269
269
269
269
269
270
270
271
271
271
270
271
272
272
273
272
272
271
272
273
273
274
274
274
274
275
276
276
276
276
275
275
275
276
276
276
276
275
276
276
277
277
277
276
277
277
279
280
280
280
280
281
282
283
284
284
284
285
286
287
288
289
289
289
289
290
291
292
292
292
291
292
292
294
294
295
295
295
295
296
297
298
298
298
299
300
301
302
303
303
303
304
305
307
307
308
307
308
308
309
310
310
310
310
310
310
311
311
310
309
308
308
308
309
308
308
306
305
305
305
304
304
303
302
302
302
302
302
301
300
299
299
299
300
300
299
299
298
298
298
298
298
298
297
297
297
297
297
297
296
296
295
296
297
297
296
296
295
295
296
296
296
296
296
295
296
296
296
296
295
294
294
294
295
295
294
294
293
294
294
294
294
294
293
294
294
295
296
296
295
295
294
295
295
295
295
294
294
294
294
294
294
293
292
291
291
291
291
291
290
289
288
289
289
289
289
288
288
288
288
289
289
289
288
289
289
290
291
290
290
289
289
289
290
290
289
288
288
288
288
288
287
286
285
285
284
285
284
283
282
281
281
281
281
281
280
279
279
278
279
279
279
278
278
278
279
279
280
279
279
278
278
279
279
279
279
278
277
277
277
277
276
276
275
274
275
275
275
274
274
273
273
274
275
275
275
275
275
276
277
277
278
278
278
278
278
279
279
279
278
277
277
278
278
278
278
277
276
276
276
277
277
276
275
275
275
276
276
276
276
275
275
276
276
277
276
275
275
275
275
276
275
275
274
274
274
275
275
275
275
275
275
276
277
278
279
279
280
282
284
286
288
290
291
293
296
298
301
302
304
306
308
311
314
316
318
320
322
325
328
330
332
334
335
337
339
341
343
344
345
346
347
349
351
352
352
352
352
353
354
355
356
356
357
358
359
361
363
364
364
365
366
368
370
371
372
372
373
374
375
375
375
374
373
372
371
370
368
366
363
360
357
355
353
350
346
343
339
337
334
332
328
325
321
318
315
313
310
306
303
299
296
293
290
287
283
279
276
272
270
267
264
260
257
254
252
251
249
246
243
241
239
238
237
235
233
230
228
226
225
224
222
220
218
216
215
214
213
212
210
209
208
209
210
211
211
212
214
216
218
221
224
226
228
231
235
239
242
245
247
249
252
255
258
260
261
262
263
265
266
268
269
269
269
270
271
272
272
272
271
271
271
271
272
