# Simple Text Format
# Sampling Rate (Hz):= 1200.00
# Resolution:= 12
# Labels:= ECG	 V4
# Age:=	74
# Gender:=	Masculino
-55
-54
-54
-53
-53
-52
-52
-52
-52
-52
-52
-52
-52
-52
-52
-52
-53
-53
-54
-54
-54
-56
-57
-57
-59
-58
-60
-60
-63
-64
-65
-67
-69
-70
-71
-73
-75
-78
-80
-82
-84
-87
-90
-92
-95
-97
-100
-103
-106
-109
-112
-114
-117
-120
-123
-126
-130
-133
-135
-137
-140
-143
-146
-148
-150
-153
-155
-158
-160
-163
-165
-167
-170
-171
-174
-177
-178
-181
-182
-184
-186
-188
-190
-192
-194
-195
-197
-199
-201
-203
-204
-205
-207
-208
-209
-211
-213
-213
-214
-215
-216
-218
-218
-219
-219
-220
-221
-221
-222
-223
-224
-224
-224
-225
-225
-226
-227
-227
-227
-227
-228
-229
-230
-231
-231
-231
-231
-232
-233
-234
-235
-235
-235
-236
-237
-238
-238
-239
-239
-239
-239
-239
-240
-241
-240
-240
-239
-239
-240
-239
-239
-238
-237
-238
-237
-237
-237
-236
-235
-233
-234
-233
-233
-232
-231
-230
-230
-229
-229
-229
-229
-228
-228
-227
-227
-226
-226
-226
-225
-225
-225
-225
-224
-224
-225
-224
-224
-225
-225
-224
-226
-225
-225
-225
-226
-227
-227
-227
-228
-228
-228
-229
-229
-231
-230
-231
-231
-231
-232
-232
-233
-233
-233
-232
-233
-234
-234
-234
-233
-234
-234
-234
-235
-235
-234
-235
-234
-234
-234
-234
-235
-234
-234
-234
-234
-234
-235
-235
-234
-234
-234
-234
-234
-235
-235
-234
-234
-235
-234
-235
-234
-235
-235
-235
-236
-236
-235
-235
-236
-235
-235
-236
-237
-236
-236
-236
-237
-237
-238
-237
-238
-238
-238
-238
-239
-238
-239
-239
-239
-239
-239
-240
-240
-241
-241
-240
-241
-241
-240
-240
-240
-239
-237
-236
-235
-234
-231
-229
-226
-223
-220
-217
-214
-211
-208
-205
-202
-200
-199
-198
-198
-197
-198
-199
-201
-204
-207
-211
-215
-219
-225
-231
-237
-243
-249
-255
-262
-268
-276
-283
-289
-296
-302
-309
-316
-323
-330
-338
-344
-352
-359
-366
-375
-382
-390
-397
-404
-413
-420
-428
-435
-443
-451
-458
-466
-474
-482
-491
-499
-508
-517
-527
-538
-550
-561
-573
-586
-599
-615
-629
-643
-659
-673
-688
-703
-718
-731
-745
-758
-769
-780
-790
-799
-807
-814
-818
-822
-824
-826
-826
-826
-824
-821
-817
-813
-808
-802
-796
-789
-781
-773
-765
-758
-749
-740
-732
-724
-715
-707
-698
-689
-679
-670
-661
-651
-642
-632
-622
-611
-602
-591
-580
-569
-559
-548
-536
-525
-513
-502
-491
-481
-469
-459
-448
-438
-428
-419
-409
-399
-390
-382
-373
-366
-357
-350
-343
-335
-328
-322
-314
-308
-301
-295
-289
-282
-276
-270
-264
-258
-252
-247
-242
-237
-232
-226
-222
-217
-212
-208
-205
-201
-198
-194
-192
-190
-188
-186
-184
-182
-180
-178
-177
-176
-176
-175
-174
-173
-172
-171
-171
-170
-170
-169
-168
-168
-167
-167
-166
-165
-165
-164
-164
-163
-163
-162
-161
-160
-160
-159
-158
-158
-158
-156
-156
-156
-154
-154
-153
-152
-150
-149
-149
-148
-148
-146
-146
-144
-143
-143
-142
-141
-140
-138
-137
-136
-135
-135
-133
-133
-131
-130
-129
-128
-127
-126
-125
-124
-123
-123
-122
-121
-119
-119
-117
-117
-115
-114
-114
-112
-110
-110
-108
-108
-107
-105
-104
-103
-102
-100
-99
-98
-96
-94
-93
-92
-90
-89
-88
-86
-84
-82
-81
-80
-78
-77
-75
-74
-72
-71
-70
-68
-67
-65
-64
-63
-61
-60
-59
-58
-56
-56
-54
-53
-52
-51
-50
-49
-47
-47
-47
-45
-44
-43
-42
-42
-42
-41
-40
-40
-39
-38
-39
-38
-37
-38
-38
-37
-38
-38
-39
-38
-39
-39
-39
-39
-40
-41
-42
-43
-43
-44
-45
-47
-48
-49
-50
-52
-53
-55
-57
-60
-61
-63
-66
-68
-70
-72
-74
-77
-79
-82
-86
-88
-91
-94
-96
-99
-102
-105
-108
-110
-113
-115
-118
-121
-125
-127
-129
-132
-134
-137
-140
-143
-146
-148
-150
-153
-155
-158
-159
-162
-165
-166
-169
-170
-173
-175
-177
-178
-180
-182
-184
-186
-188
-189
-190
-192
-193
-194
-195
-196
-198
-198
-199
-200
-201
-202
-203
-202
-203
-203
-204
-205
-206
-206
-206
-207
-207
-208
-208
-208
-208
-209
-209
-210
-211
-211
-212
-213
-213
-213
-214
-215
-215
-216
-216
-216
-217
-217
-218
-218
-218
-218
-219
-219
-219
-219
-219
-220
-219
-219
-219
-219
-219
-219
-218
-218
-217
-217
-217
-217
-216
-214
-215
-214
-213
-213
-212
-211
-210
-209
-209
-208
-208
-207
-207
-206
-205
-204
-204
-203
-202
-202
-201
-201
-201
-201
-200
-200
-199
-199
-199
-199
-199
-199
-199
-199
-199
-199
-199
-199
-200
-200
-200
-201
-202
-202
-202
-202
-203
-202
-203
-204
-204
-204
-205
-204
-205
-205
-206
-206
-206
-206
-206
-206
-207
-207
-207
-207
-206
-206
-206
-206
-206
-205
-206
-205
-205
-206
-206
-205
-206
-205
-205
-206
-206
-206
-206
-205
-206
-206
-206
-206
-206
-206
-205
-206
-206
-207
-206
-206
-206
-206
-205
-206
-206
-207
-206
-207
-206
-206
-207
-206
-207
-206
-207
-207
-207
-207
-207
-207
-207
-207
-207
-208
-208
-208
-208
-209
-208
-208
-208
-208
-208
-208
-207
-207
-206
-206
-206
-205
-203
-202
-200
-197
-195
-192
-189
-187
-183
-180
-177
-175
-172
-169
-167
-164
-164
-163
-163
-164
-164
-166
-169
-172
-175
-180
-185
-189
-195
-201
-208
-215
-221
-228
-235
-242
-249
-256
-263
-270
-277
-284
-291
-299
-306
-314
-321
-329
-336
-345
-353
-362
-371
-379
-387
-395
-404
-412
-421
-430
-440
-448
-458
-468
-479
-490
-501
-512
-524
-537
-550
-563
-578
-593
-608
-623
-640
-656
-672
-688
-703
-718
-733
-747
-760
-772
-784
-794
-802
-810
-816
-821
-826
-827
-828
-828
-827
-824
-821
-817
-812
-806
-800
-793
-787
-779
-771
-762
-753
-745
-736
-727
-719
-709
-699
-690
-680
-671
-661
-650
-640
-630
-619
-607
-596
-585
-573
-561
-549
-537
-525
-513
-502
-488
-476
-465
-452
-441
-429
-419
-408
-396
-386
-376
-366
-356
-347
-338
-329
-321
-314
-306
-299
-291
-283
-277
-269
-263
-257
-250
-244
-237
-231
-226
-220
-214
-209
-203
-198
-193
-187
-183
-178
-174
-170
-165
-162
-159
-155
-153
-151
-148
-145
-144
-142
-141
-140
-138
-137
-136
-135
-135
-134
-134
-133
-132
-132
-131
-131
-131
-130
-129
-128
-127
-127
-127
-126
-124
-124
-123
-123
-122
-122
-121
-120
-119
-119
-119
-119
-117
-117
-116
-115
-115
-115
-114
-113
-112
-111
-110
-110
-109
-108
-107
-106
-105
-104
-103
-102
-101
-100
-98
-97
-96
-96
-94
-93
-92
-91
-90
-88
-87
-86
-85
-84
-82
-81
-81
-80
-78
-77
-76
-75
-75
-73
-73
-71
-70
-69
-68
-67
-66
-65
-64
-62
-61
-59
-58
-58
-56
-55
-53
-52
-51
-50
-48
-47
-45
-43
-42
-41
-40
-39
-38
-36
-35
-34
-32
-31
-30
-28
-27
-26
-25
-23
-22
-21
-20
-18
-17
-16
-16
-14
-13
-12
-11
-10
-10
-9
-8
-8
-7
-6
-6
-5
-5
-4
-3
-3
-3
-2
-3
-3
-2
-2
-3
-3
-4
-4
-4
-4
-5
-6
-6
-7
-9
-10
-11
-11
-13
-15
-16
-18
-20
-21
-22
-25
-27
-29
-31
-34
-36
-38
-41
-44
-47
-50
-52
-55
-57
-60
-63
-66
-69
-72
-75
-77
-81
-84
-86
-89
-92
-95
-97
-100
-103
-105
-107
-110
-112
-115
-117
-119
-122
-124
-125
-128
-130
-133
-135
-137
-139
-140
-143
-146
-148
-149
-151
-152
-155
-156
-158
-160
-161
-162
-163
-164
-167
-168
-169
-169
-170
-171
-172
-173
-174
-175
-175
-176
-177
-177
-178
-179
-179
-180
-180
-180
-181
-181
-182
-182
-182
-183
-184
-184
-185
-185
-186
-186
-186
-187
-187
-188
-188
-189
-189
-190
-190
-190
-191
-192
-191
-191
-192
-192
-192
-193
-192
-192
-192
-192
-192
-192
-191
-191
-190
-190
-190
-189
-189
-189
-188
-187
-186
-186
-186
-185
-184
-184
-183
-182
-182
-182
-181
-180
-179
-178
-178
-178
-178
-177
-176
-176
-176
-175
-175
-174
-174
-174
-173
-173
-173
-173
-173
-173
-172
-173
-173
-173
-173
-174
-174
-173
-175
-175
-176
-176
-177
-177
-177
-177
-178
-179
-178
-180
-179
-180
-181
-181
-181
-181
-181
-182
-183
-182
-182
-183
-183
-183
-183
-183
-184
-184
-184
-184
-184
-185
-184
-185
-185
-184
-185
-185
-185
-186
-186
-186
-186
-186
-186
-186
-186
-187
-186
-186
-187
-187
-186
-187
-187
-188
-187
-187
-188
-187
-188
-188
-188
-189
-189
-188
-189
-190
-189
-190
-190
-190
-191
-191
-191
-191
-192
-192
-192
-192
-192
-192
-192
-191
-191
-192
-191
-191
-192
-191
-190
-189
-189
-189
-187
-186
-184
-182
-180
-178
-175
-172
-170
-166
-164
-160
-158
-155
-153
-151
-149
-148
-147
-149
-149
-150
-151
-153
-157
-160
-165
-169
-174
-179
-185
-191
-198
-205
-211
-218
-224
-230
-237
-244
-251
-257
-264
-271
-278
-286
-293
-300
-308
-316
-323
-332
-340
-348
-356
-364
-373
-381
-391
-399
-407
-417
-426
-435
-446
-456
-466
-478
-489
-500
-514
-526
-540
-554
-569
-584
-600
-616
-632
-648
-664
-680
-695
-709
-724
-738
-751
-762
-773
-782
-791
-798
-805
-809
-812
-814
-816
-816
-814
-812
-810
-805
-801
-795
-789
-783
-777
-769
-761
-754
-745
-737
-729
-721
-713
-703
-695
-686
-677
-667
-657
-648
-639
-628
-618
-607
-597
-586
-575
-563
-551
-540
-528
-516
-504
-492
-479
-467
-455
-444
-432
-421
-409
-397
-387
-377
-367
-356
-346
-337
-328
-320
-312
-304
-297
-288
-281
-274
-267
-261
-253
-248
-241
-235
-229
-224
-219
-213
-207
-202
-196
-192
-186
-183
-178
-173
-169
-165
-163
-159
-156
-153
-150
-148
-146
-145
-143
-142
-140
-139
-137
-137
-136
-136
-135
-134
-134
-133
-133
-133
-133
-132
-131
-131
-131
-131
-131
-130
-129
-129
-128
-128
-128
-127
-126
-125
-124
-124
-124
-123
-123
-122
-121
-121
-119
-119
-119
-118
-117
-116
-115
-115
-114
-113
-113
-112
-111
-110
-110
-110
-109
-107
-106
-106
-105
-104
-104
-103
-102
-101
-100
-99
-99
-98
-97
-95
-95
-94
-93
-92
-91
-90
-89
-88
-88
-86
-85
-84
-83
-82
-81
-80
-79
-78
-76
-76
-74
-73
-73
-72
-71
-69
-67
-66
-65
-64
-63
-62
-60
-58
-57
-56
-56
-55
-53
-52
-50
-50
-49
-47
-46
-44
-44
-43
-41
-41
-40
-39
-37
-35
-34
-33
-32
-32
-30
-29
-28
-28
-27
-25
-25
-24
-23
-23
-22
-22
-21
-21
-20
-19
-19
-19
-20
-19
-19
-19
-20
-19
-20
-20
-21
-21
-21
-21
-22
-23
-23
-24
-25
-26
-27
-28
-30
-30
-32
-33
-35
-36
-38
-41
-43
-45
-46
-49
-51
-54
-56
-59
-61
-63
-67
-69
-72
-75
-78
-81
-84
-86
-90
-92
-95
-97
-101
-103
-106
-110
-112
-114
-117
-119
-122
-125
-128
-130
-133
-135
-138
-140
-143
-145
-147
-148
-150
-152
-154
-157
-158
-161
-162
-163
-165
-167
-169
-170
-172
-173
-174
-176
-177
-179
-180
-181
-182
-183
-185
-185
-187
-187
-188
-189
-190
-191
-191
-192
-193
-194
-194
-195
-196
-197
-197
-199
-199
-200
-200
-201
-202
-203
-204
-204
-204
-205
-205
-207
-207
-207
-208
-208
-209
-209
-209
-210
-209
-210
-210
-210
-210
-210
-209
-209
-209
-209
-208
-208
-207
-207
-207
-206
-206
-206
-204
-204
-203
-203
-203
-202
-202
-201
-201
-201
-200
-200
-200
-200
-199
-199
-198
-199
-198
-198
-198
-197
-197
-197
-197
-197
-197
-197
-196
-196
-196
-196
-198
-197
-198
-198
-198
-198
-199
-199
-200
-200
-200
-200
-200
-201
-202
-201
-202
-202
-202
-202
-202
-202
-203
-203
-203
-203
-203
-204
-203
-203
-203
-203
-203
-204
-204
-203
-204
-203
-203
-204
-203
-204
-203
-204
-204
-204
-204
-204
-204
-203
-204
-204
-204
-204
-204
-204
-204
-205
-205
-204
-205
-205
-204
-204
-204
-205
-204
-205
-205
-205
-205
-205
-206
-206
-206
-206
-206
-206
-207
-207
-208
-209
-208
-208
-209
-209
-209
-210
-210
-210
-210
-210
-210
-211
-211
-210
-210
-209
-209
-208
-208
-206
-205
-203
-200
-198
-196
-194
-191
-188
-184
-182
-178
-177
-175
-173
-171
-170
-169
-169
-170
-171
-172
-175
-178
-182
-187
-191
-196
-202
-208
-214
-221
-228
-234
-241
-247
-253
-261
-268
-275
-281
-288
-294
-301
-308
-315
-323
-331
-337
-346
-352
-361
-368
-376
-384
-391
-399
-407
-415
-422
-431
-439
-446
-455
-464
-474
-484
-494
-504
-515
-527
-540
-553
-567
-580
-594
-609
-625
-640
-655
-671
-686
-700
-714
-728
-740
-753
-764
-773
-783
-791
-797
-802
-806
-809
-810
-811
-810
-809
-807
-804
-799
-795
-790
-784
-778
-771
-764
-756
-748
-740
-732
-725
-717
-709
-700
-692
-683
-674
-666
-656
-646
-637
-627
-617
-607
-597
-586
-575
-563
-552
-541
-530
-517
-505
-493
-482
-470
-459
-448
-436
-425
-414
-403
-393
-383
-374
-364
-356
-347
-339
-331
-324
-316
-309
-302
-295
-288
-281
-275
-269
-263
-257
-251
-245
-239
-234
-229
-223
-217
-212
-208
-204
-199
-194
-190
-187
-183
-180
-177
-175
-172
-170
-167
-166
-164
-163
-161
-161
-160
-159
-158
-158
-157
-156
-156
-154
-154
-154
-153
-153
-152
-151
-151
-150
-149
-149
-148
-147
-147
-146
-145
-145
-145
-143
-142
-142
-141
-140
-140
-139
-139
-138
-137
-136
-136
-136
-135
-134
-134
-133
-133
-132
-131
-131
-130
-129
-128
-128
-126
-125
-125
-123
-123
-123
-121
-121
-120
-118
-118
-117
-115
-115
-114
-112
-111
-110
-109
-108
-107
-106
-105
-104
-103
-102
-101
-99
-98
-98
-96
-95
-94
-94
-93
-91
-89
-89
-88
-87
-86
-85
-83
-82
-81
-80
-78
-77
-76
-75
-74
-72
-71
-70
-69
-67
-67
-65
-64
-62
-61
-60
-59
-57
-56
-55
-54
-53
-52
-51
-49
-48
-47
-47
-46
-45
-43
-42
-42
-42
-41
-40
-40
-39
-39
-38
-38
-37
-38
-37
-37
-36
-37
-37
-37
-37
-37
-37
-38
-38
-38
-39
-40
-40
-40
-41
-42
-44
-44
-45
-46
-48
-49
-51
-53
-54
-55
-57
-60
-62
-64
-66
-68
-70
-72
-75
-77
-80
-83
-84
-87
-90
-93
-96
-99
-101
-104
-106
-109
-113
-115
-118
-121
-123
-127
-130
-132
-135
-138
-140
-143
-145
-148
-151
-152
-155
-156
-159
-161
-164
-165
-168
-169
-171
-172
-174
-176
-178
-179
-181
-183
-185
-187
-187
-189
-190
-191
-192
-193
-194
-196
-197
-197
-198
-198
-199
-200
-201
-202
-202
-202
-203
-204
-206
-206
-206
-206
-207
-208
-209
-209
-210
-211
-211
-212
-213
-214
-214
-215
-215
-216
-216
-217
-218
-218
-219
-219
-220
-220
-221
-222
-222
-222
-221
-221
-221
-222
-222
-221
-222
-221
-221
-220
-220
-220
-219
-218
-217
-217
-216
-216
-216
-216
-215
-214
-214
-214
-212
-213
-212
-212
-211
-210
-211
-210
-210
-209
-209
-209
-209
-208
-208
-208
-208
-207
-207
-207
-208
-208
-207
-208
-208
-209
-209
-209
-210
-210
-210
-210
-210
-212
-212
-212
-213
-212
-213
-213
-214
-214
-214
-215
-215
-215
-216
-216
-217
-216
-216
-217
-217
-217
-218
-217
-217
-217
-217
-217
-218
-218
-217
-216
-216
-217
-218
-218
-217
-218
-217
-217
-218
-218
-218
-217
-218
-218
-218
-219
-219
-219
-219
-219
-219
-220
-221
-220
-221
-220
-221
-221
-221
-221
-221
-221
-221
-221
-221
-221
-222
-222
-222
-222
-222
-222
-223
-223
-223
-223
-223
-223
-223
-224
-224
-224
-224
-224
-224
-224
-225
-224
-223
-222
-222
-222
-221
-220
-218
-216
-213
-211
-209
-207
-204
-200
-197
-194
-191
-188
-187
-184
-182
-181
-181
-182
-182
-184
-185
-187
-190
-194
-199
-204
-210
-215
-221
-228
-235
-242
-248
-255
-261
-268
-276
-283
-289
-296
-303
-309
-316
-323
-331
-338
-346
-353
-360
-367
-375
-384
-391
-398
-406
-413
-420
-429
-435
-444
-450
-458
-466
-475
-484
-493
-502
-512
-521
-533
-544
-558
-570
-583
-597
-612
-626
-642
-656
-671
-685
-701
-715
-728
-741
-753
-764
-774
-783
-791
-797
-803
-808
-811
-813
-814
-813
-811
-809
-806
-802
-796
-791
-784
-778
-772
-764
-756
-747
-740
-731
-723
-715
-706
-698
-689
-679
-670
-662
-652
-643
-633
-623
-614
-604
-593
-582
-572
-561
-550
-538
-528
-516
-504
-493
-481
-470
-459
-448
-438
-426
-417
-406
-397
-387
-378
-369
-361
-352
-345
-337
-330
-323
-316
-309
-303
-296
-290
-283
-277
-271
-265
-259
-253
-247
-242
-236
-231
-224
-219
-214
-209
-205
-201
-195
-191
-188
-183
-181
-177
-175
-172
-170
-167
-166
-165
-164
-163
-161
-161
-159
-159
-158
-158
-158
-156
-156
-156
-156
-155
-154
-153
-153
-152
-152
-151
-150
-150
-148
-148
-147
-147
-146
-145
-145
-144
-144
-143
-143
-143
-142
-140
-140
-140
-138
-138
-137
-136
-136
-134
-134
-132
-132
-130
-130
-129
-128
-127
-126
-126
-124
-122
-122
-120
-120
-119
-118
-117
-115
-114
-113
-113
-111
-110
-110
-108
-108
-106
-106
-105
-104
-103
-102
-101
-99
-99
-98
-96
-95
-94
-93
-92
-91
-89
-89
-87
-86
-84
-84
-82
-81
-80
-78
-77
-75
-74
-73
-71
-70
-68
-66
-65
-64
-63
-61
-59
-58
-56
-55
-54
-52
-50
-50
-48
-47
-46
-45
-43
-42
-40
-39
-38
-37
-37
-35
-34
-33
-32
-31
-31
-30
-29
-28
-27
-28
-27
-27
-26
-25
-25
-25
-24
-25
-26
-25
-24
-25
-26
-26
-26
-27
-28
-28
-29
-30
-32
-32
-34
-35
-35
-38
-39
-40
-42
-44
-45
-48
-49
-51
-53
-55
-57
-60
-63
-65
-68
-70
-73
-75
-78
-81
-84
-86
-90
-92
-95
-98
-102
-105
-107
-110
-112
-115
-118
-120
-124
-126
-128
-130
-133
-136
-138
-140
-143
-145
-147
-149
-152
-154
-157
-158
-160
-163
-164
-167
-169
-170
-172
-174
-175
-178
-180
-181
-183
-184
-185
-186
-187
-189
-190
-191
-192
-192
-193
-194
-194
-196
-196
-196
-196
-197
-197
-197
-197
-197
-198
-198
-199
-198
-199
-198
-199
-198
-199
-200
-200
-200
-200
-199
-200
-200
-201
-201
-201
-201
-201
-202
-203
-203
-203
-203
-204
-204
-204
-204
-204
-204
-204
-203
-204
-203
-204
-204
-203
-203
-202
-202
-202
-201
-201
-201
-200
-199
-199
-199
-197
-197
-196
-195
-194
-194
-193
-193
-192
-191
-191
-190
-190
-189
-188
-188
-187
-187
-186
-186
-186
-185
-185
-183
-184
-183
-183
-183
-183
-182
-182
-181
-181
-181
-182
-181
-181
-181
-181
-182
-183
-182
-182
-183
-183
-183
-184
-185
-185
-185
-186
-186
-187
-188
-188
-189
-188
-189
-189
-190
-189
-190
-190
-190
-190
-190
-190
-190
-189
-189
-188
-189
-188
-188
-188
-188
-188
-188
-188
-187
-188
-187
-187
-187
-187
-187
-187
-187
-187
-188
-187
-188
-187
-188
-188
-188
-187
-187
-188
-189
-188
-189
-188
-188
-188
-189
-189
-189
-190
-189
-189
-190
-191
-191
-192
-191
-191
-192
-192
-191
-192
-192
-192
-192
-192
-192
-192
-192
-192
-192
-191
-192
-191
-191
-190
-190
-188
-187
-186
-183
-182
-180
-177
-174
-171
-168
-165
-163
-159
-156
-154
-152
-151
-150
-149
-149
-149
-151
-152
-155
-159
-163
-167
-171
-177
-182
-189
-194
-201
-207
-214
-220
-227
-234
-240
-247
-254
-261
-268
-275
-283
-289
-297
-304
-312
-321
-329
-337
-345
-353
-362
-370
-379
-388
-396
-405
-413
-423
-432
-442
-452
-462
-473
-484
-495
-507
-520
-534
-547
-561
-577
-592
-607
-624
-640
-655
-671
-686
-702
-716
-731
-743
-756
-767
-776
-786
-794
-800
-805
-808
-810
-812
-812
-811
-809
-806
-800
-796
-790
-784
-777
-771
-763
-754
-746
-737
-729
-720
-711
-702
-693
-684
-675
-666
-657
-646
-636
-626
-616
-606
-595
-584
-573
-562
-550
-538
-527
-514
-502
-490
-478
-466
-455
-443
-431
-419
-407
-396
-384
-374
-364
-354
-344
-334
-325
-317
-309
-302
-294
-286
-279
-272
-266
-259
-253
-246
-240
-233
-227
-222
-216
-211
-205
-199
-194
-189
-184
-179
-173
-168
-164
-160
-156
-153
-149
-146
-142
-139
-137
-135
-134
-132
-129
-128
-127
-126
-126
-125
-124
-123
-122
-122
-122
-121
-121
-121
-119
-119
-119
-118
-118
-117
-116
-116
-115
-115
-114
-114
-113
-112
-111
-110
-110
-109
-109
-107
-106
-105
-105
-104
-104
-103
-102
-100
-100
-99
-99
-98
-97
-97
-95
-95
-94
-93
-92
-92
-90
-89
-88
-87
-87
-86
-85
-85
-83
-82
-82
-81
-80
-78
-77
-76
-75
-74
-73
-72
-71
-70
-68
-68
-67
-66
-65
-63
-62
-61
-60
-59
-58
-57
-55
-54
-53
-53
-51
-49
-48
-46
-45
-44
-43
-42
-40
-39
-37
-36
-35
-34
-32
-31
-29
-28
-27
-26
-25
-23
-21
-20
-18
-18
-17
-15
-14
-13
-12
-10
-10
-9
-8
-7
-6
-5
-4
-3
-3
-2
-1
0
1
1
2
2
3
3
3
4
4
4
4
4
4
4
4
4
3
3
3
2
1
1
0
-1
-2
-2
-4
-5
-6
-8
-9
-11
-12
-13
-15
-18
-19
-21
-23
-26
-29
-31
-34
-36
-39
-41
-44
-47
-50
-53
-55
-58
-61
-63
-67
-70
-73
-75
-78
-81
-83
-87
-89
-92
-95
-97
-100
-103
-105
-108
-110
-113
-116
-118
-121
-123
-125
-128
-129
-131
-133
-135
-137
-139
-141
-142
-144
-146
-148
-150
-151
-153
-153
-155
-157
-158
-159
-160
-162
-162
-164
-165
-166
-167
-167
-168
-169
-169
-170
-170
-171
-172
-172
-173
-174
-174
-174
-175
-175
-175
-175
-177
-178
-178
-179
-178
-179
-179
-180
-181
-182
-183
-183
-183
-184
-184
-185
-186
-185
-185
-186
-187
-187
-188
-187
-187
-187
-187
-187
-187
-187
-186
-186
-186
-185
-186
-185
-184
-183
-183
-182
-182
-182
-181
-180
-180
-179
-179
-179
-178
-178
-178
-177
-176
-176
-176
-176
-175
-174
-173
-173
-172
-172
-172
-172
-170
-170
-170
-171
-170
-170
-171
-170
-171
-170
-172
-172
-172
-172
-173
-173
-174
-175
-176
-176
-176
-176
-177
-177
-178
-178
-178
-178
-179
-179
-179
-179
-180
-180
-179
-179
-180
-180
-179
-180
-180
-180
-180
-180
-180
-181
-180
-180
-181
-180
-181
-181
-181
-180
-181
-181
-181
-182
-182
-182
-181
-181
-182
-182
-183
-183
-182
-182
-182
-183
-183
-183
-183
-182
-183
-183
-183
-184
-183
-184
-183
-184
-184
-184
-185
-185
-186
-185
-186
-187
-186
-187
-187
-187
-188
-187
-188
-188
-188
-188
-188
-188
-188
-187
-188
-187
-186
-185
-185
-184
-184
-182
-180
-179
-176
-174
-171
-169
-166
-162
-160
-156
-153
-152
-149
-147
-145
-144
-144
-144
-145
-146
-148
-149
-153
-157
-162
-166
-172
-177
-183
-190
-196
-203
-210
-216
-223
-230
-237
-244
-251
-258
-264
-271
-279
-286
-294
-302
-309
-317
-325
-333
-341
-350
-359
-366
-376
-384
-393
-402
-411
-420
-429
-439
-448
-460
-471
-482
-493
-505
-517
-531
-544
-558
-573
-589
-604
-620
-636
-652
-668
-684
-698
-712
-727
-740
-753
-765
-776
-785
-792
-799
-805
-810
-813
-815
-815
-815
-814
-811
-808
-803
-799
-794
-787
-781
-775
-767
-759
-751
-743
-735
-727
-718
-710
-701
-692
-684
-674
-665
-656
-646
-636
-625
-616
-605
-595
-583
-572
-561
-549
-537
-525
-513
-501
-488
-476
-464
-452
-440
-428
-417
-405
-394
-382
-372
-362
-352
-342
-333
-323
-315
-307
-299
-291
-284
-277
-269
-262
-255
-249
-243
-236
-230
-225
-219
-214
-209
-204
-198
-193
-188
-184
-180
-175
-172
-167
-164
-160
-158
-155
-153
-150
-148
-145
-144
-143
-141
-141
-139
-138
-137
-137
-136
-136
-135
-135
-134
-133
-133
-133
-132
-132
-131
-131
-130
-130
-129
-129
-128
-127
-127
-126
-125
-125
-124
-124
-123
-122
-122
-121
-120
-120
-119
-119
-118
-118
-117
-117
-115
-115
-114
-113
-113
-112
-111
-110
-110
-109
-108
-108
-107
-106
-105
-103
-103
-103
-101
-100
-100
-98
-98
-97
-96
-95
-94
-93
-92
-92
-91
-89
-89
-87
-87
-85
-84
-84
-83
-82
-80
-80
-78
-78
-76
-75
-75
-73
-71
-70
-70
-68
-67
-65
-63
-62
-61
-60
-59
-57
-56
-54
-53
-52
-51
-50
-49
-47
-46
-45
-44
-44
-42
-41
-39
-38
-37
-37
-36
-35
-33
-32
-31
-30
-29
-29
-27
-26
-25
-24
-24
-23
-22
-21
-20
-19
-19
-19
-18
-18
-17
-17
-16
-17
-16
-17
-17
-17
-17
-17
-17
-19
-19
-19
-20
-20
-22
-23
-23
-24
-25
-26
-28
-29
-30
-32
-33
-34
-36
-39
-40
-42
-45
-47
-48
-50
-53
-55
-58
-61
-63
-66
-68
-70
-73
-77
-79
-82
-85
-87
-91
-94
-97
-99
-102
-104
-107
-111
-113
-115
-118
-121
-124
-127
-129
-131
-134
-135
-138
-140
-143
-145
-147
-149
-151
-153
-155
-157
-159
-160
-162
-163
-165
-167
-168
-170
-172
-173
-173
-175
-177
-178
-179
-179
-181
-181
-182
-184
-185
-186
-187
-187
-187
-188
-189
-190
-191
-191
-191
-192
-193
-194
-194
-194
-195
-196
-196
-197
-197
-197
-198
-198
-200
-200
-201
-202
-202
-203
-203
-204
-204
-204
-205
-204
-205
-205
-205
-205
-206
-206
-206
-205
-205
-205
-204
-204
-203
-202
-202
-202
-201
-201
-200
-200
-198
-198
-198
-198
-197
-197
-195
-195
-195
-195
-194
-193
-193
-193
-192
-192
-191
-191
-191
-190
-190
-190
-190
-190
-191
-190
-190
-190
-190
-190
-191
-192
-191
-192
-192
-192
-193
-193
-194
-194
-193
-194
-194
-194
-195
-195
-195
-195
-195
-196
-196
-196
-195
-196
-196
-196
-196
-197
-196
-196
-197
-197
-197
-198
-197
-198
-198
-197
-197
-197
-198
-198
-198
-198
-198
-198
-198
-199
-198
-199
-198
-198
-198
-198
-198
-198
-197
-198
-198
-198
-198
-199
-198
-198
-198
-198
-199
-199
-199
-199
-200
-200
-200
-200
-201
-201
-201
-201
-201
-202
-202
-203
-203
-204
-204
-204
-205
-205
-205
-206
-205
-205
-205
-206
-206
-206
-205
-206
-205
-205
-204
-203
-203
-201
-199
-197
-196
-193
-191
-188
-185
-182
-179
-176
-174
-172
-169
-167
-165
-165
-164
-164
-164
-165
-166
-170
-173
-176
-180
-185
-190
-195
-201
-207
-213
-219
-226
-232
-239
-245
-252
-259
-265
-271
-277
-283
-290
-297
-304
-311
-318
-324
-333
-340
-347
-355
-362
-370
-378
-385
-393
-401
-408
-416
-425
-433
-443
-451
-461
-470
-480
-490
-502
-514
-526
-539
-552
-566
-581
-596
-611
-627
-642
-657
-672
-687
-701
-715
-728
-740
-752
-762
-772
-780
-787
-792
-797
-800
-802
-804
-803
-802
-800
-797
-793
-789
-784
-778
-772
-765
-758
-751
-743
-735
-727
-720
-711
-703
-694
-686
-678
-669
-660
-650
-641
-632
-622
-612
-601
-591
-580
-569
-557
-547
-535
-523
-511
-500
-488
-476
-465
-454
-441
-430
-419
-408
-398
-388
-378
-369
-359
-350
-342
-333
-325
-317
-310
-303
-296
-288
-282
-275
-268
-262
-256
-250
-245
-238
-232
-227
-221
-215
-210
-205
-200
-196
-190
-186
-183
-179
-175
-172
-169
-166
-163
-162
-159
-157
-156
-154
-153
-152
-151
-150
-149
-148
-148
-147
-146
-146
-145
-145
-144
-143
-143
-143
-142
-141
-140
-140
-139
-139
-138
-137
-137
-136
-135
-135
-134
-133
-133
-132
-131
-130
-130
-129
-128
-127
-126
-126
-125
-124
-124
-123
-123
-122
-120
-120
-119
-119
-118
-117
-117
-115
-114
-113
-113
-112
-111
-110
-109
-108
-107
-107
-106
-104
-104
-102
-101
-100
-100
-99
-98
-96
-96
-95
-94
-93
-92
-90
-90
-88
-88
-87
-85
-84
-83
-81
-81
-80
-79
-78
-77
-76
-74
-72
-72
-71
-70
-68
-66
-65
-64
-63
-62
-61
-60
-58
-57
-56
-55
-53
-53
-51
-50
-49
-47
-47
-45
-44
-42
-42
-40
-40
-39
-38
-37
-36
-35
-33
-33
-33
-32
-31
-30
-29
-29
-28
-28
-27
-26
-26
-26
-26
-26
-25
-25
-25
-26
-26
-27
-26
-27
-28
-28
-29
-30
-31
-32
-32
-33
-34
-35
-37
-38
-39
-40
-42
-43
-45
-47
-48
-50
-52
-54
-56
-58
-61
-63
-65
-68
-70
-73
-76
-79
-82
-84
-87
-90
-93
-96
-100
-102
-105
-107
-110
-113
-116
-119
-121
-124
-126
-129
-131
-134
-137
-138
-141
-142
-145
-147
-149
-151
-153
-154
-156
-158
-160
-162
-163
-166
-166
-168
-170
-171
-173
-174
-176
-177
-178
-179
-180
-181
-183
-183
-184
-185
-186
-187
-188
-188
-189
-190
-192
-191
-193
-193
-193
-194
-195
-196
-196
-197
-197
-197
-198
-199
-199
-200
-200
-201
-201
-202
-203
-204
-204
-204
-205
-205
-206
-207
-208
-208
-208
-209
-209
-210
-209
-210
-209
-209
-209
-209
-209
-209
-208
-207
-206
-206
-205
-205
-204
-203
-203
-202
-202
-201
-201
-200
-200
-199
-198
-198
-198
-197
-196
-196
-195
-195
-194
-194
-194
-194
-193
-194
-193
-193
-193
-192
-192
-192
-192
-192
-192
-192
-192
-192
-193
-193
-193
-194
-195
-195
-195
-196
-196
-197
-197
-197
-198
-198
-199
-199
-199
-200
-199
-200
-199
-200
-200
-201
-201
-200
-200
-200
-201
-202
-202
-201
-201
-201
-201
-202
-201
-201
-202
-201
-202
-202
-201
-202
-201
-202
-202
-202
-202
-202
-202
-202
-202
-202
-202
-202
-203
-203
-202
-203
-203
-203
-203
-203
-203
-203
-203
-203
-204
-203
-203
-203
-204
-203
-203
-204
-204
-205
-204
-204
-205
-205
-205
-206
-205
-206
-205
-205
-206
-206
-206
-207
-206
-206
-206
-206
-205
-204
-203
-203
-201
-201
-199
-197
-195
-192
-190
-187
-185
-182
-179
-176
-173
-170
-168
-167
-165
-164
-163
-163
-164
-165
-168
-170
-173
-177
-181
-186
-191
-197
-203
-209
-215
-222
-227
-235
-242
-248
-255
-261
-267
-274
-281
-288
-295
-302
-308
-316
-322
-331
-338
-345
-353
-360
-367
-375
-382
-390
-397
-405
-413
-420
-428
-436
-445
-453
-462
-471
-480
-490
-502
-512
-524
-536
-550
-563
-577
-592
-607
-621
-636
-650
-666
-680
-695
-708
-721
-733
-744
-755
-764
-771
-778
-784
-787
-791
-793
-793
-792
-791
-788
-784
-780
-776
-771
-764
-757
-750
-742
-735
-727
-718
-710
-701
-692
-684
-675
-667
-657
-648
-640
-630
-621
-611
-602
-592
-581
-570
-560
-550
-539
-528
-517
-506
-494
-483
-472
-460
-449
-438
-427
-416
-406
-396
-386
-375
-366
-357
-348
-340
-332
-324
-316
-309
-302
-295
-288
-282
-275
-268
-262
-256
-250
-244
-239
-232
-227
-220
-215
-211
-205
-200
-194
-189
-184
-180
-175
-172
-169
-164
-161
-158
-156
-154
-152
-150
-148
-146
-145
-144
-143
-142
-140
-140
-139
-139
-138
-138
-136
-136
-135
-134
-134
-134
-133
-132
-131
-130
-130
-130
-129
-128
-128
-127
-126
-126
-125
-124
-124
-123
-121
-122
-120
-120
-120
-119
-118
-117
-117
-117
-116
-115
-115
-113
-112
-112
-112
-111
-110
-108
-108
-107
-106
-105
-104
-103
-102
-101
-100
-100
-99
-97
-95
-95
-93
-93
-92
-91
-90
-88
-87
-86
-85
-85
-82
-82
-80
-79
-78
-78
-76
-75
-74
-73
-72
-70
-69
-68
-66
-65
-64
-63
-62
-60
-59
-57
-56
-54
-53
-52
-51
-49
-47
-46
-45
-44
-42
-41
-39
-39
-37
-36
-34
-34
-33
-31
-30
-28
-28
-26
-26
-24
-22
-22
-20
-19
-18
-18
-17
-15
-14
-13
-13
-12
-12
-11
-10
-10
-9
-9
-10
-9
-8
-9
-8
-9
-9
-9
-9
-9
-10
-10
-11
-11
-13
-13
-14
-14
-16
-17
-18
-19
-20
-22
-23
-25
-27
-29
-31
-32
-34
-37
-39
-42
-44
-47
-49
-51
-53
-57
-60
-62
-65
-67
-71
-73
-76
-80
-83
-85
-88
-90
-94
-97
-99
-102
-105
-108
-111
-113
-116
-119
-121
-123
-125
-128
-131
-133
-135
-136
-138
-140
-143
-145
-147
-149
-150
-152
-154
-157
-158
-160
-162
-162
-164
-166
-168
-169
-171
-171
-172
-173
-175
-176
-177
-177
-178
-179
-180
-180
-181
-182
-181
-182
-183
-182
-183
-184
-184
-184
-184
-185
-186
-187
-187
-187
-187
-187
-188
-188
-188
-189
-189
-190
-190
-191
-191
-191
-191
-192
-192
-192
-193
-194
-194
-194
-194
-194
-194
-194
-195
-195
-194
-194
-194
-193
-194
-193
-192
-192
-191
-190
-190
-190
-189
-188
-187
-187
-187
-185
-185
-184
-183
-183
-182
-181
-181
-181
-180
-180
-179
-179
-179
-178
-178
-177
-176
-175
-175
-174
-174
-175
-174
-174
-173
-173
-173
-172
-172
-171
-172
-171
-172
-172
-172
-172
-172
-172
-173
-173
-173
-174
-174
-174
-174
-174
-174
-175
-175
-176
-175
-176
-176
-177
-176
-177
-177
-176
-177
-178
-178
-178
-178
-178
-178
-179
-180
-180
-179
-180
-179
-179
-180
-180
-180
-180
-180
-180
-181
-180
-180
-180
-179
-180
-179
-180
-180
-179
-180
-179
-178
-178
-179
-179
-179
-179
-179
-179
-179
-180
-179
-180
-180
-179
-180
-180
-181
-181
-181
-181
-181
-182
-181
-182
-182
-182
-181
-182
-183
-183
-183
-183
-183
-182
-182
-183
-183
-183
-183
-182
-182
-181
-181
-181
-180
-179
-177
-175
-173
-171
-168
-165
-162
-159
-156
-152
-150
-147
-144
-143
-141
-140
-140
-140
-140
-141
-143
-146
-149
-152
-157
-161
-166
-172
-178
-184
-190
-197
-203
-210
-215
-222
-229
-236
-243
-250
-256
-263
-271
-278
-285
-293
-300
-308
-317
-325
-334
-343
-351
-360
-368
-377
-387
-395
-404
-414
-423
-432
-443
-454
-465
-476
-487
-499
-512
-525
-538
-553
-568
-582
-598
-613
-629
-646
-661
-677
-691
-706
-720
-734
-746
-756
-767
-775
-783
-789
-794
-798
-801
-801
-801
-800
-798
-794
-791
-785
-780
-774
-767
-760
-753
-745
-736
-727
-718
-709
-701
-692
-683
-674
-665
-656
-646
-636
-626
-617
-607
-597
-587
-575
-564
-553
-542
-530
-518
-507
-495
-483
-471
-458
-446
-434
-423
-411
-399
-387
-376
-366
-356
-345
-335
-327
-317
-307
-300
-292
-285
-276
-269
-262
-254
-248
-241
-235
-229
-223
-216
-210
-204
-199
-194
-188
-182
-177
-172
-167
-162
-158
-153
-149
-145
-142
-138
-136
-133
-130
-128
-125
-124
-122
-122
-120
-118
-118
-116
-116
-116
-115
-114
-113
-112
-112
-111
-111
-110
-109
-108
-108
-106
-106
-106
-105
-103
-103
-102
-102
-101
-101
-100
-98
-99
-97
-97
-97
-96
-95
-95
-94
-94
-94
-93
-92
-92
-90
-89
-89
-88
-87
-87
-86
-84
-84
-83
-83
-82
-81
-79
-78
-77
-77
-76
-74
-73
-72
-70
-70
-69
-68
-66
-65
-64
-63
-62
-61
-60
-59
-58
-56
-56
-54
-53
-51
-51
-49
-48
-47
-46
-45
-43
-42
-41
-40
-39
-38
-37
-35
-34
-32
-32
-30
-29
-28
-27
-25
-24
-23
-22
-21
-19
-18
-17
-15
-14
-13
-12
-10
-10
-9
-7
-7
-5
-4
-3
-2
-1
1
1
2
3
5
6
6
7
7
9
10
11
11
12
12
12
13
13
15
15
14
14
14
14
14
14
14
14
13
12
12
11
11
10
9
9
8
7
6
6
4
2
1
0
-1
-2
-5
-6
-8
-10
-12
-14
-16
-18
-22
-24
-26
-29
-32
-34
-38
-41
-43
-47
-50
-53
-55
-59
-62
-65
-68
-70
-73
-76
-79
-83
-85
-87
-89
-92
-95
-98
-99
-102
-104
-107
-109
-111
-113
-115
-117
-119
-121
-123
-125
-127
-128
-130
-131
-132
-134
-136
-138
-139
-140
-142
-143
-145
-145
-147
-148
-148
-150
-151
-152
-153
-154
-154
-154
-156
-157
-157
-158
-158
-159
-158
-159
-160
-161
-161
-161
-161
-162
-161
-162
-163
-163
-163
-164
-165
-165
-165
-166
-166
-166
-167
-168
-168
-169
-170
-170
-170
-171
-171
-172
-173
-172
-171
-172
-171
-171
-171
-170
-170
-169
-169
-168
-168
-167
-167
-166
-165
-164
-163
-163
-163
-162
-161
-161
-161
-161
-160
-159
-159
-158
-158
-157
-157
-157
-156
-155
-155
-154
-154
-154
-154
-153
-153
-153
-152
-153
-153
-153
-153
-153
-154
-154
-154
-155
-156
-155
-156
-157
-157
-158
-158
-158
-158
-159
-158
-160
-160
-160
-160
-160
-160
-160
-161
-161
-162
-161
-161
-161
-161
-162
-162
-161
-162
-161
-161
-161
-161
-161
-162
-161
-162
-162
-161
-162
-162
-162
-161
-162
-163
-162
-162
-163
-162
-163
-163
-163
-163
-163
-163
-163
-163
-163
-163
-163
-163
-163
-163
-164
-163
-164
-164
-164
-164
-164
-164
-165
-165
-165
-165
-165
-166
-166
-166
-167
-167
-167
-167
-167
-168
-168
-168
-169
-168
-168
-168
-169
-169
-169
-168
-167
-166
-165
-165
-163
-163
-161
-158
-156
-153
-151
-147
-145
-141
-138
-135
-133
-130
-129
-127
-125
-125
-125
-126
-127
-129
-132
-136
-138
-143
-149
-154
-159
-166
-172
-178
-185
-192
-198
-204
-210
-217
-224
-230
-238
-245
-251
-258
-265
-272
-280
-287
-295
-303
-311
-318
-327
-335
-344
-351
-360
-369
-377
-387
-396
-405
-415
-424
-435
-446
-457
-468
-481
-493
-506
-520
-535
-549
-565
-580
-595
-612
-627
-644
-659
-673
-689
-702
-715
-728
-739
-749
-758
-766
-773
-778
-782
-785
-787
-787
-787
-785
-782
-779
-775
-770
-765
-758
-752
-745
-738
-730
-723
-715
-706
-697
-689
-681
-672
-664
-655
-645
-637
-627
-618
-608
-597
-588
-577
-566
-555
-544
-532
-520
-509
-496
-484
-472
-460
-448
-436
-423
-412
-400
-388
-378
-366
-355
-344
-335
-325
-316
-307
-298
-289
-281
-273
-267
-259
-252
-244
-238
-231
-225
-219
-213
-207
-201
-195
-190
-185
-180
-174
-169
-164
-160
-155
-151
-147
-143
-139
-136
-133
-131
-128
-126
-123
-122
-119
-118
-117
-115
-114
-112
-111
-111
-111
-110
-110
-109
-108
-108
-107
-107
-107
-106
-106
-105
-104
-104
-104
-104
-103
-102
-101
-101
-100
-100
-100
-99
-98
-97
-97
-97
-96
-96
-95
-94
-94
-92
-92
-92
-90
-89
-89
-88
-87
-87
-86
-85
-84
-83
-82
-82
-81
-80
-80
-78
-77
-77
-76
-76
-75
-73
-72
-72
-71
-70
-70
-68
-68
-66
-66
-64
-64
-63
-62
-60
-59
-59
-57
-57
-56
-54
-54
-52
-51
-50
-49
-48
-46
-45
-44
-43
-42
-40
-39
-38
-36
-36
-34
-33
-32
-30
-28
-27
-26
-25
-23
-22
-21
-20
-18
-18
-16
-15
-14
-12
-12
-11
-10
-9
-8
-6
-5
-4
-4
-2
-2
0
1
2
2
3
4
4
5
6
6
7
8
8
8
9
9
9
9
9
9
9
9
9
9
8
8
7
6
6
5
4
3
2
1
0
-1
-2
-4
-5
-7
-8
-10
-12
-14
-16
-18
-20
-22
-24
-27
-29
-32
-34
-37
-40
-42
-46
-48
-51
-55
-57
-60
-63
-65
-69
-72
-74
-77
-79
-82
-85
-88
-90
-93
-95
-97
-100
-103
-106
-108
-110
-111
-114
-117
-118
-120
-122
-125
-127
-128
-130
-132
-134
-136
-137
-138
-140
-141
-143
-145
-145
-147
-148
-149
-151
-151
-153
-153
-154
-155
-156
-157
-158
-159
-159
-159
-161
-162
-163
-164
-164
-164
-165
-166
-167
-168
-168
-168
-169
-170
-171
-171
-172
-172
-173
-173
-174
-175
-175
-176
-176
-175
-175
-176
-176
-177
-177
-176
-176
-176
-176
-176
-176
-175
-175
-174
-174
-173
-173
-173
-172
-172
-171
-171
-170
-170
-170
-169
-168
-168
-168
-167
-167
-166
-166
-165
-165
-165
-165
-165
-164
-164
-163
-163
-163
-163
-163
-162
-162
-162
-163
-162
-163
-163
-163
-164
-164
-164
-164
-165
-165
-166
-165
-166
-167
-167
-167
-168
-168
-168
-169
-169
-170
-169
-169
-170
-170
-170
-171
-171
-171
-171
-171
-171
-171
-171
-171
-171
-171
-171
-172
-172
-172
-172
-171
-172
-172
-172
-171
-171
-171
-170
-171
-171
-171
-171
-171
-171
-171
-172
-171
-172
-172
-171
-172
-171
-172
-172
-172
-172
-172
-172
-172
-173
-173
-173
-173
-174
-173
-173
-174
-174
-175
-175
-175
-175
-175
-176
-176
-176
-177
-176
-176
-177
-177
-178
-178
-177
-177
-177
-176
-176
-176
-176
-174
-173
-172
-170
-169
-166
-164
-161
-158
-156
-152
-150
-147
-144
-141
-139
-137
-136
-135
-134
-134
-134
-137
-138
-141
-144
-148
-152
-157
-163
-168
-175
-180
-187
-193
-200
-207
-214
-220
-227
-233
-240
-247
-254
-261
-268
-275
-282
-290
-297
-305
-313
-321
-328
-335
-343
-351
-359
-366
-374
-381
-389
-397
-405
-414
-423
-431
-441
-450
-460
-471
-482
-493
-506
-519
-533
-547
-562
-576
-592
-606
-621
-636
-652
-666
-680
-693
-706
-717
-728
-738
-747
-754
-760
-765
-770
-772
-773
-774
-773
-770
-768
-765
-761
-756
-751
-745
-739
-731
-724
-717
-709
-702
-694
-686
-678
-670
-662
-653
-645
-636
-626
-617
-608
-598
-589
-578
-568
-557
-546
-535
-524
-512
-500
-489
-477
-466
-454
-443
-431
-420
-408
-396
-387
-375
-366
-356
-345
-336
-327
-319
-310
-302
-294
-287
-279
-272
-266
-259
-251
-244
-238
-233
-226
-220
-214
-208
-202
-196
-192
-187
-181
-176
-171
-166
-162
-158
-154
-150
-147
-143
-140
-138
-135
-133
-131
-129
-128
-127
-125
-124
-124
-123
-122
-121
-121
-121
-120
-120
-119
-118
-117
-117
-117
-116
-115
-115
-114
-114
-113
-113
-112
-112
-110
-110
-109
-109
-109
-108
-107
-106
-105
-104
-104
-104
-103
-102
-102
-101
-100
-100
-98
-97
-97
-96
-95
-95
-94
-94
-92
-92
-90
-90
-90
-89
-88
-87
-87
-86
-85
-84
-83
-82
-81
-80
-80
-78
-78
-77
-75
-74
-73
-73
-71
-71
-70
-69
-67
-66
-65
-65
-63
-63
-61
-60
-59
-58
-56
-55
-54
-53
-51
-50
-49
-48
-47
-46
-45
-43
-42
-41
-40
-39
-37
-36
-35
-34
-33
-32
-30
-29
-28
-27
-25
-25
-24
-22
-21
-19
-19
-17
-17
-15
-14
-13
-13
-13
-12
-10
-9
-8
-7
-7
-7
-6
-6
-4
-4
-4
-4
-3
-4
-3
-3
-3
-3
-3
-3
-3
-4
-3
-4
-5
-5
-7
-7
-8
-9
-9
-10
-11
-13
-14
-15
-17
-19
-21
-22
-24
-26
-27
-30
-31
-34
-36
-39
-41
-43
-46
-49
-52
-55
-57
-60
-62
-66
-68
-72
-75
-77
-81
-83
-85
-89
-91
-94
-97
-100
-102
-104
-107
-109
-111
-113
-115
-118
-120
-123
-125
-126
-128
-130
-132
-135
-136
-138
-140
-141
-143
-145
-147
-148
-151
-152
-153
-154
-156
-158
-159
-160
-161
-162
-163
-164
-165
-166
-167
-168
-168
-169
-170
-170
-171
-172
-172
-172
-173
-174
-175
-175
-175
-175
-176
-177
-178
-179
-179
-180
-180
-181
-181
-182
-182
-183
-183
-184
-185
-185
-187
-186
-187
-187
-187
-188
-188
-188
-187
-187
-187
-187
-188
-187
-186
-187
-186
-185
-185
-184
-184
-183
-182
-182
-181
-181
-181
-181
-180
-180
-179
-178
-178
-178
-177
-177
-176
-177
-177
-176
-175
-175
-175
-174
-174
-174
-174
-173
-173
-172
-172
-172
-172
-172
-173
-172
-172
-172
-173
-173
-173
-174
-173
-174
-174
-175
-175
-176
-177
-176
-177
-177
-178
-178
-178
-179
-179
-179
-180
-180
-180
-180
-180
-180
-181
-181
-181
-182
-182
-181
-182
-183
-182
-183
-182
-183
-182
-183
-183
-183
-183
-184
-183
-183
-183
-184
-183
-183
-183
-183
-183
-183
-184
-183
-183
-183
-183
-183
-184
-183
-183
-184
-183
-183
-184
-184
-184
-184
-185
-185
-185
-185
-185
-186
-186
-186
-186
-186
-187
-187
-187
-187
-187
-187
-187
-188
-188
-188
-187
-188
-188
-188
-188
-188
-188
-187
-185
-185
-184
-183
-182
-179
-177
-175
-171
-169
-166
-163
-160
-157
-153
-152
-149
-147
-146
-146
-145
-146
-147
-149
-151
-153
-156
-160
-164
-170
-176
-182
-188
-194
-200
-207
-214
-221
-228
-234
-241
-248
-254
-261
-269
-276
-281
-289
-296
-304
-311
-319
-326
-334
-342
-349
-357
-365
-373
-380
-388
-395
-403
-411
-419
-427
-435
-443
-453
-462
-472
-483
-492
-504
-517
-529
-543
-557
-571
-585
-600
-615
-631
-646
-660
-674
-688
-701
-714
-725
-736
-745
-754
-761
-767
-772
-776
-779
-780
-779
-778
-776
-773
-770
-765
-759
-753
-746
-741
-733
-725
-717
-709
-700
-693
-685
-676
-667
-659
-650
-641
-632
-623
-614
-605
-596
-585
-576
-566
-556
-544
-533
-523
-511
-500
-489
-478
-466
-455
-444
-433
-421
-410
-400
-389
-379
-370
-359
-350
-341
-333
-325
-316
-309
-302
-294
-287
-281
-274
-267
-260
-254
-248
-242
-236
-229
-224
-217
-212
-206
-201
-196
-189
-184
-179
-174
-170
-166
-161
-158
-153
-151
-148
-145
-142
-140
-138
-136
-134
-133
-132
-131
-130
-129
-129
-128
-128
-127
-127
-126
-126
-124
-124
-124
-124
-123
-122
-121
-121
-120
-120
-120
-119
-117
-117
-116
-116
-115
-115
-113
-113
-113
-111
-111
-110
-110
-108
-107
-107
-106
-106
-104
-104
-102
-101
-101
-100
-99
-98
-97
-97
-96
-95
-94
-93
-92
-90
-90
-88
-88
-88
-87
-85
-85
-83
-83
-81
-81
-80
-78
-78
-76
-76
-74
-73
-72
-70
-70
-68
-67
-67
-65
-64
-63
-62
-61
-59
-58
-57
-56
-54
-53
-52
-51
-50
-48
-46
-45
-44
-42
-42
-40
-38
-38
-36
-34
-34
-33
-31
-30
-28
-26
-26
-25
-23
-22
-21
-20
-18
-17
-16
-15
-14
-12
-11
-11
-10
-9
-7
-6
-5
-5
-4
-4
-3
-3
-2
0
-1
0
0
0
2
2
2
2
1
1
2
2
1
1
0
-1
-1
-2
-3
-3
-4
-6
-7
-8
-9
-10
-11
-13
-14
-17
-18
-19
-22
-23
-26
-28
-30
-32
-34
-37
-39
-43
-46
-48
-50
-53
-56
-59
-62
-65
-68
-70
-73
-76
-79
-82
-85
-87
-90
-92
-95
-98
-101
-104
-106
-109
-111
-114
-117
-120
-122
-124
-126
-128
-131
-134
-136
-138
-139
-141
-143
-145
-147
-149
-151
-151
-153
-154
-156
-158
-160
-160
-162
-163
-164
-165
-166
-167
-168
-169
-169
-171
-172
-172
-173
-173
-174
-175
-176
-176
-177
-177
-177
-177
-178
-178
-180
-180
-179
-180
-180
-181
-181
-181
-182
-182
-182
-183
-183
-183
-183
-184
-184
-185
-185
-186
-186
-186
-186
-186
-186
-186
-187
-187
-187
-187
-187
-186
-187
-187
-186
-186
-185
-185
-185
-185
-184
-184
-183
-182
-181
-181
-181
-181
-179
-179
-179
-178
-178
-177
-176
-175
-175
-174
-173
-173
-172
-171
-171
-170
-169
-169
-168
-167
-167
-167
-166
-166
-166
-166
-165
-165
-166
-166
-166
-165
-166
-165
-165
-166
-166
-167
-167
-167
-167
-167
-167
-168
-169
-169
-169
-168
-169
-169
-170
-171
-172
-171
-172
-171
-172
-173
-173
-174
-173
-174
-174
-174
-174
-174
-175
-175
-175
-175
-175
-176
-175
-175
-175
-174
-174
-175
-175
-175
-174
-175
-175
-175
-175
-175
-176
-175
-175
-175
-175
-175
-175
-175
-175
-175
-176
-176
-175
-176
-175
-176
-176
-176
-177
-177
-177
-177
-177
-177
-178
-179
-179
-178
-179
-179
-179
-180
-180
-180
-181
-180
-180
-180
-181
-181
-181
-180
-181
-181
-180
-180
-180
-178
-177
-176
-174
-172
-171
-168
-165
-162
-159
-156
-153
-151
-148
-145
-142
-140
-139
-138
-138
-138
-139
-139
-141
-144
-148
-152
-156
-161
-167
-172
-178
-184
-191
-197
-204
-210
-218
-225
-231
-238
-245
-252
-259
-267
-274
-281
-288
-296
-305
-313
-321
-329
-337
-345
-354
-363
-371
-381
-389
-398
-407
-416
-426
-436
-446
-456
-467
-478
-489
-502
-515
-528
-542
-556
-571
-587
-602
-619
-634
-650
-665
-681
-696
-711
-725
-738
-750
-761
-771
-779
-787
-793
-798
-802
-804
-804
-805
-803
-801
-797
-793
-787
-781
-776
-770
-762
-754
-746
-738
-729
-721
-712
-703
-694
-685
-675
-666
-657
-648
-638
-628
-618
-607
-597
-587
-576
-564
-553
-541
-530
-518
-506
-494
-482
-470
-458
-446
-435
-422
-411
-398
-387
-376
-366
-356
-345
-336
-326
-317
-308
-301
-293
-285
-277
-270
-263
-256
-250
-243
-236
-230
-223
-217
-212
-206
-200
-194
-188
-182
-178
-173
-168
-162
-158
-154
-150
-146
-142
-139
-136
-133
-130
-128
-127
-125
-124
-121
-120
-120
-119
-118
-117
-116
-116
-116
-115
-115
-115
-114
-113
-112
-112
-111
-110
-110
-109
-109
-107
-106
-106
-106
-105
-104
-103
-102
-101
-101
-101
-100
-100
-98
-97
-97
-96
-95
-94
-94
-93
-92
-92
-91
-90
-89
-88
-87
-86
-86
-85
-84
-83
-82
-81
-81
-79
-79
-78
-77
-76
-74
-74
-73
-73
-72
-71
-70
-69
-69
-67
-67
-66
-64
-64
-63
-61
-60
-59
-58
-57
-55
-55
-54
-53
-51
-49
-48
-47
-45
-45
-43
-43
-41
-39
-39
-37
-37
-35
-35
-33
-32
-31
-30
-29
-28
-26
-25
-24
-23
-22
-21
-19
-17
-16
-15
-13
-12
-10
-10
-8
-6
-6
-6
-4
-3
-2
-1
0
0
0
1
2
3
4
4
4
5
5
6
7
7
6
7
6
8
7
7
7
6
6
6
6
5
6
4
4
2
2
1
0
0
-2
-4
-5
-6
-8
-9
-11
-13
-14
-17
-18
-20
-22
-24
-27
-29
-31
-34
-36
-40
-42
-45
-47
-50
-53
-56
-59
-62
-65
-68
-71
-74
-77
-80
-82
-86
-89
-91
-93
-96
-99
-101
-104
-106
-109
-111
-113
-116
-117
-119
-122
-124
-126
-127
-130
-132
-135
-136
-138
-140
-142
-144
-146
-147
-148
-151
-151
-153
-155
-157
-158
-159
-161
-161
-162
-163
-164
-165
-165
-165
-166
-167
-168
-168
-168
-169
-169
-170
-171
-171
-171
-171
-171
-172
-173
-173
-173
-174
-174
-175
-176
-176
-177
-177
-178
-178
-179
-179
-180
-181
-180
-181
-181
-182
-182
-183
-183
-184
-183
-183
-184
-184
-184
-183
-184
-183
-183
-183
-183
-183
-182
-181
-180
-180
-180
-179
-178
-178
-176
-176
-176
-176
-174
-174
-173
-173
-173
-172
-172
-171
-171
-170
-169
-169
-169
-169
-168
-168
-167
-168
-167
-168
-167
-168
-167
-167
-168
-168
-168
-169
-168
-168
-169
-169
-170
-170
-171
-170
-171
-171
-172
-172
-172
-173
-173
-173
-173
-174
-174
-175
-175
-174
-175
-175
-176
-177
-176
-177
-176
-177
-177
-178
-178
-178
-179
-179
-178
-179
-179
-179
-180
-179
-179
-180
-179
-180
-180
-179
-180
-180
-180
-180
-180
-179
-180
-179
-180
-179
-180
-180
-179
-180
-180
-180
-180
-181
-181
-181
-182
-181
-182
-183
-182
-184
-183
-184
-184
-184
-185
-185
-185
-184
-184
-185
-186
-185
-185
-184
-185
-184
-184
-185
-185
-185
-184
-183
-183
-183
-182
-181
-179
-178
-176
-174
-172
-170
-167
-164
-162
-158
-156
-153
-151
-148
-146
-144
-144
-143
-143
-144
-145
-147
-149
-152
-156
-161
-165
-170
-175
-182
-188
-194
-201
-207
-214
-220
-227
-234
-241
-247
-254
-261
-268
-275
-283
-290
-297
-305
-312
-320
-328
-336
-345
-352
-360
-368
-376
-385
-394
-402
-410
-419
-429
-438
-448
-459
-469
-480
-492
-504
-517
-530
-544
-559
-573
-589
-605
-621
-636
-653
-668
-682
-698
-712
-726
-739
-750
-760
-770
-779
-785
-791
-797
-800
-802
-802
-802
-802
-800
-796
-791
-787
-781
-776
-770
-763
-756
-748
-740
-733
-725
-716
-708
-700
-692
-683
-674
-665
-656
-647
-637
-627
-618
-608
-598
-588
-576
-565
-553
-541
-530
-518
-505
-494
-482
-470
-458
-446
-434
-423
-410
-399
-389
-377
-367
-357
-347
-338
-329
-321
-312
-305
-296
-289
-282
-274
-267
-261
-255
-247
-241
-235
-228
-223
-218
-212
-206
-200
-195
-191
-186
-181
-177
-172
-168
-163
-160
-157
-154
-151
-148
-145
-143
-141
-140
-139
-138
-135
-134
-134
-132
-132
-131
-131
-130
-130
-130
-130
-129
-129
-128
-127
-127
-127
-126
-125
-125
-124
-124
-123
-122
-122
-121
-120
-120
-119
-119
-118
-118
-117
-116
-115
-115
-113
-113
-113
-112
-111
-110
-110
-109
-108
-107
-107
-106
-105
-104
-104
-103
-102
-101
-100
-99
-99
-98
-97
-96
-95
-94
-93
-92
-92
-90
-90
-89
-88
-87
-86
-85
-84
-83
-81
-81
-79
-79
-78
-77
-76
-74
-73
-73
-71
-70
-69
-67
-66
-65
-64
-63
-61
-60
-59
-58
-57
-55
-55
-53
-51
-51
-49
-48
-47
-46
-44
-43
-42
-41
-40
-39
-38
-36
-35
-34
-32
-32
-30
-29
-28
-27
-26
-25
-25
-23
-22
-21
-20
-20
-19
-19
-17
-17
-16
-15
-15
-15
-14
-14
-13
-12
-11
-11
-12
-11
-11
-11
-11
-12
-12
-12
-12
-12
-13
-13
-14
-15
-16
-16
-17
-18
-19
-20
-22
-24
-24
-26
-28
-29
-31
-33
-35
-37
-40
-41
-44
-46
-49
-52
-54
-56
-59
-62
-65
-68
-70
-73
-76
-79
-82
-86
-89
-91
-94
-97
-99
-103
-105
-109
-111
-113
-116
-119
-122
-124
-126
-128
-131
-133
-135
-138
-139
-141
-143
-145
-148
-150
-152
-153
-155
-157
-159
-160
-162
-163
-165
-166
-167
-169
-171
-172
-173
-173
-174
-175
-176
-176
-177
-179
-178
-180
-180
-181
-182
-183
-183
-183
-183
-184
-186
-187
-187
-187
-188
-189
-190
-191
-192
-192
-193
-194
-195
-195
-196
-196
-197
-197
-197
-197
-198
-198
-198
-199
-199
-199
-199
-199
-199
-199
-199
-198
-198
-198
-198
-198
-197
-196
-196
-195
-196
-196
-195
-194
-194
-193
-193
-192
-192
-191
-191
-190
-190
-190
-189
-189
-189
-188
-188
-187
-188
-188
-187
-187
-187
-187
-187
-188
-187
-188
-187
-188
-188
-188
-189
-190
-189
-189
-190
-191
-192
-192
-192
-192
-192
-192
-192
-192
-193
-192
-192
-193
-193
-193
-193
-193
-193
-193
-193
-193
-194
-194
-194
-193
-194
-194
-194
-194
-195
-194
-195
-194
-195
-195
-195
-195
-195
-194
-194
-194
-195
-194
-195
-194
-194
-194
-195
-195
-195
-195
-195
-195
-195
-195
-195
-196
-196
-195
-196
-196
-196
-197
-197
-197
-198
-198
-198
-199
-199
-199
-199
-199
-199
-200
-200
-200
-200
-200
-200
-201
-201
-201
-201
-201
-201
-202
-201
-202
-202
-201
-200
-199
-199
-198
-197
-196
-194
-191
-189
-187
-185
-181
-179
-175
-172
-169
-167
-164
-162
-160
-159
-158
-158
-158
-160
-162
-164
-167
-171
-175
-180
-185
-191
-196
-203
-209
-216
-223
-229
-236
-243
-250
-256
-263
-270
-277
-284
-291
-298
-306
-314
-321
-329
-336
-344
-352
-360
-367
-375
-383
-390
-398
-406
-413
-421
-429
-437
-445
-453
-462
-472
-481
-491
-501
-512
-525
-537
-550
-564
-577
-592
-607
-622
-637
-652
-667
-682
-695
-709
-722
-734
-745
-756
-765
-773
-779
-786
-790
-794
-796
-796
-796
-794
-793
-790
-786
-783
-777
-771
-766
-760
-753
-745
-737
-729
-721
-714
-706
-698
-689
-681
-672
-663
-655
-646
-637
-628
-618
-608
-598
-588
-577
-567
-555
-544
-533
-521
-509
-498
-487
-475
-462
-450
-440
-429
-418
-406
-396
-385
-375
-366
-356
-347
-339
-331
-323
-315
-308
-301
-293
-287
-280
-273
-266
-260
-254
-247
-242
-235
-230
-225
-219
-213
-208
-202
-196
-192
-188
-183
-179
-174
-171
-167
-165
-162
-160
-157
-155
-154
-152
-150
-150
-149
-147
-146
-146
-145
-144
-144
-143
-143
-142
-141
-140
-140
-140
-139
-139
-138
-137
-137
-136
-135
-135
-134
-134
-133
-133
-132
-131
-130
-129
-129
-128
-127
-127
-125
-125
-124
-123
-123
-122
-121
-120
-119
-119
-117
-117
-116
-115
-115
-114
-113
-113
-111
-111
-110
-109
-108
-108
-106
-106
-104
-104
-103
-102
-101
-101
-100
-99
-97
-97
-96
-95
-94
-93
-92
-90
-90
-88
-88
-86
-85
-84
-82
-81
-81
-79
-78
-77
-76
-75
-74
-72
-72
-71
-69
-68
-67
-65
-65
-63
-63
-61
-59
-58
-57
-57
-55
-53
-52
-51
-50
-49
-48
-46
-45
-44
-42
-41
-40
-39
-37
-37
-35
-34
-33
-33
-31
-30
-29
-28
-28
-27
-27
-26
-25
-24
-24
-24
-24
-23
-23
-23
-22
-23
-23
-23
-22
-22
-22
-23
-23
-23
-24
-25
-25
-25
-26
-27
-28
-28
-30
-31
-32
-34
-35
-37
-38
-40
-42
-43
-46
-48
-50
-53
-55
-57
-60
-62
-65
-67
-70
-72
-74
-77
-80
-82
-86
-88
-90
-92
-95
-98
-101
-103
-106
-108
-111
-113
-117
-118
-122
-124
-126
-129
-131
-134
-137
-138
-141
-142
-145
-147
-149
-151
-154
-156
-157
-158
-160
-162
-164
-165
-167
-168
-170
-171
-172
-173
-175
-175
-177
-177
-179
-180
-181
-181
-182
-183
-184
-185
-186
-186
-187
-188
-189
-189
-190
-191
-191
-192
-192
-193
-194
-195
-195
-195
-196
-197
-197
-198
-199
-199
-199
-199
-200
-201
-202
-202
-202
-202
-203
-203
-203
-204
-203
-203
-203
-203
-203
-203
-203
-202
-201
-201
-200
-201
-199
-198
-198
-197
-197
-196
-196
-196
-194
-194
-193
-193
-193
-192
-191
-191
-189
-190
-189
-189
-189
-189
-188
-187
-187
-187
-187
-187
-187
-186
-186
-187
-187
-188
-187
-188
-187
-189
-188
-189
-190
-190
-191
-191
-191
-192
-192
-192
-193
-192
-193
-192
-193
-194
-193
-193
-193
-194
-194
-193
-194
-193
-193
-194
-194
-194
-194
-194
-194
-193
-193
-193
-194
-194
-193
-194
-193
-193
-193
-193
-194
-193
-193
-193
-193
-194
-193
-194
-194
-193
-193
-193
-194
-194
-194
-194
-194
-194
-194
-194
-194
-194
-194
-193
-194
-193
-193
-193
-194
-193
-193
-193
-193
-193
-193
-193
-193
-193
-194
-193
-194
-193
-194
-194
-194
-194
-194
-195
-194
-194
-194
-194
-194
-193
-193
-191
-190
-188
-187
-184
-182
-180
-177
-173
-171
-167
-164
-162
-158
-155
-154
-152
-151
-150
-150
-150
-151
-153
-155
-158
-162
-166
-171
-176
-181
-188
-194
-201
-206
-213
-220
-226
-234
-240
-247
-254
-261
-268
-275
-282
-289
-296
-304
-312
-320
-328
-336
-344
-352
-359
-367
-376
-384
-392
-399
-407
-416
-423
-433
-441
-450
-460
-469
-479
-490
-501
-513
-526
-539
-553
-567
-583
-597
-613
-629
-644
-660
-675
-690
-704
-717
-730
-741
-752
-762
-770
-778
-783
-788
-792
-793
-794
-794
-793
-790
-787
-782
-776
-771
-765
-758
-751
-744
-735
-727
-718
-710
-701
-692
-684
-675
-666
-656
-647
-638
-628
-619
-608
-599
-589
-579
-569
-557
-546
-535
-524
-512
-501
-489
-477
-465
-453
-442
-430
-419
-408
-396
-386
-376
-365
-355
-345
-335
-326
-317
-310
-302
-294
-287
-280
-273
-266
-260
-253
-246
-240
-233
-228
-222
-216
-210
-204
-198
-192
-188
-183
-178
-173
-167
-163
-158
-154
-151
-147
-143
-140
-137
-135
-132
-131
-129
-128
-125
-124
-123
-122
-121
-120
-119
-118
-117
-117
-117
-116
-116
-114
-114
-114
-113
-113
-112
-111
-111
-110
-109
-109
-109
-108
-107
-107
-106
-105
-104
-103
-103
-102
-100
-100
-99
-99
-98
-97
-96
-95
-95
-94
-93
-92
-91
-90
-89
-88
-88
-87
-86
-84
-84
-83
-82
-81
-80
-79
-78
-77
-76
-75
-74
-74
-72
-70
-70
-68
-68
-67
-65
-64
-63
-62
-61
-60
-59
-58
-56
-55
-54
-52
-51
-50
-48
-47
-46
-45
-44
-43
-41
-40
-39
-37
-36
-35
-34
-32
-30
-28
-27
-26
-25
-23
-23
-21
-20
-18
-18
-15
-14
-13
-11
-10
-9
-8
-7
-5
-4
-2
-2
0
1
2
4
5
6
7
7
8
9
10
11
11
11
11
12
12
12
13
13
13
13
13
13
13
13
13
13
12
13
12
12
12
11
11
9
10
9
8
7
6
3
3
1
-1
-2
-4
-6
-8
-10
-12
-14
-16
-20
-22
-25
-27
-30
-33
-35
-38
-40
-43
-46
-49
-52
-55
-57
-61
-63
-66
-68
-71
-74
-77
-80
-82
-85
-88
-90
-93
-95
-98
-100
-103
-106
-109
-111
-113
-116
-119
-120
-123
-125
-128
-130
-131
-133
-135
-137
-139
-141
-142
-144
-145
-146
-148
-149
-150
-152
-153
-153
-154
-155
-156
-157
-157
-158
-159
-160
-161
-161
-161
-162
-162
-163
-164
-164
-165
-166
-166
-166
-166
-167
-167
-167
-168
-167
-167
-168
-168
-169
-169
-169
-169
-169
-170
-170
-170
-171
-170
-171
-172
-173
-172
-173
-172
-173
-173
-174
-173
-174
-174
-173
-174
-174
-173
-173
-173
-172
-171
-171
-169
-169
-168
-168
-167
-166
-166
-164
-164
-163
-162
-161
-161
-160
-160
-159
-159
-158
-157
-157
-157
-156
-156
-155
-155
-154
-154
-153
-152
-152
-152
-151
-150
-150
-149
-149
-148
-148
-148
-148
-148
-148
-148
-148
-148
-148
-148
-148
-149
-150
-150
-151
-151
-151
-152
-153
-153
-153
-154
-154
-154
-155
-155
-155
-155
-155
-155
-155
-155
-156
-156
-156
-156
-156
-157
-156
-156
-157
-156
-156
-156
-157
-157
-157
-156
-157
-157
-158
-157
-158
-158
-158
-158
-158
-158
-159
-159
-159
-158
-158
-158
-158
-159
-158
-159
-159
-159
-158
-159
-159
-159
-159
-158
-159
-158
-159
-159
-158
-159
-158
-159
-159
-160
-160
-161
-160
-160
-160
-160
-161
-161
-161
-161
-161
-162
-162
-163
-163
-162
-162
-162
-161
-161
-160
-159
-157
-156
-153
-152
-149
-146
-143
-140
-137
-134
-130
-128
-125
-123
-121
-120
-119
-119
-118
-119
-120
-122
-125
-128
-133
-137
-142
-148
-154
-160
-167
-174
-181
-187
-194
-201
-208
-216
-223
-229
-237
-243
-251
-259
-266
-274
-281
-290
-298
-307
-316
-324
-333
-342
-352
-360
-371
-380
-390
-399
-409
-420
-431
-442
-454
-466
-477
-491
-504
-517
-532
-547
-562
-578
-594
-610
-626
-642
-658
-674
-688
-703
-717
-730
-743
-753
-763
-772
-780
-786
-791
-795
-797
-799
-798
-797
-796
-793
-789
-784
-779
-773
-767
-760
-753
-746
-737
-728
-721
-712
-703
-694
-686
-677
-668
-658
-649
-641
-631
-621
-610
-600
-590
-580
-569
-558
-546
-535
-522
-511
-499
-487
-473
-461
-449
-436
-424
-412
-399
-387
-376
-363
-353
-341
-331
-321
-311
-301
-292
-284
-275
-267
-259
-251
-244
-237
-230
-223
-217
-210
-203
-198
-193
-186
-181
-176
-171
-165
-160
-155
-150
-146
-141
-137
-133
-130
-127
-124
-121
-118
-115
-113
-111
-109
-108
-107
-105
-104
-104
-103
-102
-102
-101
-100
-99
-99
-99
-99
-99
-98
-98
-97
-96
-96
-96
-96
-95
-94
-94
-94
-93
-92
-92
-91
-90
-89
-89
-88
-88
-87
-86
-85
-85
-85
-83
-83
-82
-81
-81
-81
-80
-80
-79
-77
-77
-76
-75
-75
-74
-74
-72
-71
-71
-71
-69
-68
-68
-66
-65
-64
-64
-63
-61
-60
-60
-59
-57
-57
-56
-55
-54
-53
-53
-51
-51
-50
-48
-48
-47
-46
-45
-44
-42
-41
-40
-39
-38
-37
-35
-34
-32
-31
-30
-29
-28
-27
-26
-24
-23
-23
-21
-20
-19
-18
-17
-16
-15
-15
-14
-12
-11
-10
-9
-8
-7
-6
-5
-4
-3
-2
0
0
2
2
3
4
5
6
6
8
9
9
10
10
10
10
11
11
12
12
12
11
11
12
11
11
11
11
10
10
10
9
9
7
7
6
5
4
4
1
0
-1
-2
-4
-4
-7
-9
-11
-12
-14
-16
-19
-21
-24
-26
-28
-30
-33
-36
-39
-42
-45
-47
-49
-52
-56
-59
-62
-65
-67
-70
-73
-76
-79
-82
-85
-87
-90
-93
-95
-98
-101
-102
-105
-107
-110
-113
-114
-117
-119
-121
-123
-125
-127
-129
-130
-132
-135
-136
-138
-139
-141
-142
-144
-145
-146
-148
-149
-150
-151
-151
-153
-153
-154
-155
-156
-157
-157
-158
-159
-160
-161
-162
-162
-163
-164
-164
-166
-166
-166
-168
-168
-168
-170
-171
-170
-172
-172
-172
-174
-174
-175
-175
-176
-176
-177
-177
-178
-178
-179
-178
-178
-179
-179
-179
-179
-179
-178
-178
-178
-177
-177
-177
-176
-175
-174
-174
-173
-172
-172
-171
-170
-170
-170
-169
-168
-168
-167
-167
-167
-167
-167
-166
-166
-165
-165
-164
-164
-164
-163
-163
-163
-163
-163
-164
-163
-164
-163
-163
-164
-164
-164
-164
-165
-164
-166
-166
-167
-167
-167
-167
-168
-168
-168
-169
-169
-169
-169
-169
-170
-170
-170
-170
-170
-171
-171
-171
-172
-172
-172
-171
-171
-172
-172
-172
-172
-173
-173
-173
-174
-174
-175
-174
-174
-175
-175
-175
-176
-176
-175
-175
-175
-175
-176
-175
-175
-176
-175
-175
-176
-176
-176
-176
-176
-175
-176
-176
-176
-176
-176
-176
-176
-176
-177
-177
-177
-177
-177
-177
-177
-178
-178
-178
-178
-179
-178
-179
-180
-180
-179
-179
-179
-180
-179
-180
-180
-180
-180
-179
-179
-179
-178
-177
-175
-174
-173
-171
-168
-166
-164
-160
-157
-154
-152
-149
-146
-143
-141
-139
-138
-137
-138
-138
-138
-140
-142
-144
-148
-152
-157
-161
-167
-173
-179
-184
-191
-197
-204
-210
-216
-223
-230
-236
-242
-248
-254
-261
-268
-275
-282
-289
-295
-304
-311
-318
-326
-333
-341
-349
-358
-365
-373
-382
-390
-399
-408
-417
-426
-437
-447
-457
-468
-480
-493
-505
-519
-533
-547
-562
-578
-593
-610
-625
-641
-656
-671
-686
-700
-713
-726
-737
-748
-758
-766
-773
-779
-784
-787
-789
-789
-790
-789
-786
-783
-779
-775
-771
-765
-759
-752
-745
-737
-730
-722
-715
-707
-699
-690
-681
-673
-664
-656
-647
-636
-627
-618
-608
-598
-587
-577
-566
-554
-543
-532
-520
-508
-497
-485
-473
-461
-449
-438
-426
-414
-403
-392
-381
-370
-360
-350
-340
-331
-323
-314
-306
-299
-290
-283
-276
-270
-262
-256
-249
-242
-236
-230
-225
-219
-214
-208
-202
-196
-192
-187
-182
-177
-172
-167
-164
-160
-157
-154
-151
-147
-145
-143
-141
-139
-137
-136
-134
-133
-132
-132
-130
-130
-129
-129
-128
-127
-127
-127
-125
-124
-124
-124
-123
-123
-122
-121
-121
-120
-120
-120
-119
-119
-117
-116
-116
-116
-116
-115
-115
-114
-113
-113
-113
-112
-111
-111
-110
-109
-109
-108
-108
-107
-106
-105
-105
-104
-103
-102
-101
-100
-99
-99
-98
-97
-97
-95
-94
-93
-93
-91
-91
-90
-88
-88
-87
-86
-85
-84
-84
-82
-81
-80
-79
-78
-77
-76
-75
-74
-72
-72
-71
-70
-68
-67
-66
-65
-64
-63
-62
-60
-58
-57
-57
-56
-55
-53
-52
-51
-49
-48
-47
-46
-45
-44
-43
-41
-41
-40
-38
-37
-35
-35
-34
-32
-31
-30
-29
-28
-27
-26
-25
-24
-23
-22
-21
-21
-19
-19
-18
-17
-16
-16
-15
-15
-14
-13
-14
-12
-12
-12
-12
-12
-12
-11
-11
-11
-11
-12
-12
-12
-12
-13
-14
-15
-15
-16
-17
-18
-19
-20
-22
-24
-24
-26
-28
-30
-31
-34
-35
-37
-38
-41
-44
-46
-48
-51
-53
-56
-58
-61
-64
-67
-70
-72
-75
-78
-82
-84
-87
-89
-92
-96
-99
-102
-105
-107
-109
-112
-114
-117
-120
-123
-124
-127
-129
-132
-134
-136
-138
-139
-142
-144
-145
-147
-149
-151
-152
-153
-155
-157
-159
-160
-162
-163
-164
-166
-167
-168
-169
-169
-171
-172
-174
-174
-175
-175
-177
-177
-178
-179
-180
-181
-181
-182
-182
-184
-185
-185
-186
-186
-187
-188
-189
-189
-191
-191
-192
-192
-193
-194
-195
-195
-195
-195
-196
-197
-197
-198
-198
-197
-198
-198
-197
-198
-197
-197
-196
-197
-196
-196
-196
-195
-195
-194
-194
-193
-193
-192
-192
-191
-190
-190
-190
-189
-189
-188
-188
-188
-187
-187
-187
-186
-186
-185
-185
-185
-184
-184
-184
-183
-182
-182
-182
-182
-183
-182
-182
-183
-183
-183
-183
-183
-183
-184
-184
-185
-185
-185
-185
-186
-186
-187
-187
-188
-187
-188
-188
-189
-189
-190
-190
-189
-190
-190
-190
-191
-190
-191
-191
-191
-191
-191
-191
-192
-191
-190
-190
-190
-190
-191
-190
-190
-189
-190
-190
-190
-190
-190
-189
-190
-190
-189
-190
-191
-191
-190
-190
-190
-191
-191
-192
-191
-191
-191
-191
-191
-192
-192
-191
-192
-191
-192
-192
-193
-193
-192
-193
-193
-194
-193
-194
-193
-194
-194
-194
-195
-196
-196
-195
-196
-196
-196
-197
-196
-196
-196
-195
-195
-195
-194
-193
-191
-189
-187
-186
-183
-181
-178
-175
-172
-168
-166
-163
-161
-158
-156
-154
-154
-154
-154
-155
-156
-158
-161
-164
-168
-173
-178
-182
-188
-194
-199
-206
-213
-220
-226
-232
-239
-245
-252
-259
-265
-272
-279
-285
-292
-299
-306
-313
-320
-327
-334
-342
-349
-357
-363
-370
-378
-385
-393
-400
-408
-415
-423
-431
-439
-449
-458
-467
-477
-488
-499
-512
-524
-538
-552
-566
-581
-596
-611
-626
-641
-656
-671
-685
-699
-712
-724
-736
-746
-755
-763
-771
-776
-781
-783
-785
-786
-786
-786
-783
-780
-776
-772
-767
-762
-756
-748
-741
-734
-726
-720
-712
-704
-696
-687
-679
-672
-663
-655
-646
-636
-627
-619
-609
-599
-589
-580
-568
-557
-546
-535
-524
-513
-500
-488
-477
-465
-454
-442
-431
-419
-408
-397
-386
-376
-366
-356
-347
-337
-329
-321
-313
-305
-298
-290
-284
-277
-270
-264
-257
-251
-244
-238
-232
-227
-222
-215
-210
-205
-199
-194
-189
-185
-179
-175
-171
-167
-164
-161
-158
-155
-153
-150
-148
-147
-145
-144
-142
-141
-140
-139
-138
-138
-137
-136
-135
-135
-134
-134
-133
-132
-131
-131
-130
-129
-129
-128
-127
-127
-126
-126
-125
-124
-123
-123
-122
-122
-121
-121
-120
-120
-119
-119
-119
-118
-118
-117
-115
-115
-115
-114
-113
-112
-111
-110
-109
-108
-107
-107
-106
-104
-103
-102
-101
-101
-100
-99
-97
-97
-96
-95
-95
-94
-93
-91
-90
-89
-88
-87
-86
-86
-84
-82
-81
-81
-80
-79
-77
-75
-74
-73
-72
-71
-70
-68
-67
-66
-64
-63
-62
-61
-59
-58
-57
-56
-55
-53
-52
-50
-50
-48
-47
-46
-45
-43
-41
-40
-40
-39
-38
-37
-35
-34
-33
-32
-30
-29
-29
-27
-26
-26
-24
-24
-23
-21
-20
-19
-18
-18
-17
-16
-15
-15
-14
-13
-14
-12
-12
-11
-11
-11
-11
-11
-11
-10
-10
-11
-11
-11
-12
-12
-13
-13
-14
-15
-16
-16
-17
-19
-19
-20
-23
-24
-25
-27
-28
-30
-32
-34
-36
-38
-40
-42
-45
-47
-49
-51
-54
-56
-59
-62
-65
-68
-71
-72
-75
-78
-81
-84
-87
-90
-93
-95
-99
-102
-105
-107
-109
-111
-113
-115
-118
-121
-122
-125
-127
-129
-131
-134
-135
-137
-139
-140
-142
-144
-146
-148
-149
-151
-152
-154
-156
-158
-160
-160
-162
-163
-165
-166
-167
-169
-169
-170
-171
-172
-173
-173
-173
-175
-175
-176
-177
-177
-178
-177
-177
-179
-178
-179
-180
-181
-180
-181
-181
-182
-183
-183
-183
-183
-183
-184
-185
-186
-186
-186
-187
-187
-187
-188
-188
-188
-189
-189
-188
-189
-189
-189
-189
-188
-188
-188
-187
-187
-187
-186
-186
-185
-184
-185
-184
-183
-182
-182
-181
-181
-181
-180
-180
-179
-178
-178
-178
-177
-177
-176
-176
-176
-174
-174
-174
-173
-173
-173
-173
-172
-172
-172
-172
-172
-172
-172
-172
-172
-173
-173
-173
-174
-174
-175
-175
-176
-175
-176
-176
-177
-177
-178
-178
-178
-178
-179
-180
-180
-180
-179
-180
-180
-180
-180
-181
-180
-180
-180
-180
-180
-180
-180
-180
-180
-179
-180
-180
-179
-180
-179
-180
-180
-180
-180
-180
-180
-179
-180
-180
-180
-181
-181
-181
-180
-181
-180
-181
-181
-181
-181
-181
-181
-181
-182
-182
-181
-182
-182
-182
-182
-182
-182
-182
-182
-182
-182
-182
-182
-182
-182
-183
-182
-183
-183
-183
-183
-184
-184
-184
-184
-185
-185
-184
-185
-185
-184
-185
-184
-184
-182
-182
-181
-179
-177
-175
-172
-170
-167
-164
-161
-159
-155
-152
-149
-147
-145
-143
-142
-141
-141
-141
-142
-144
-147
-150
-154
-158
-163
-168
-173
-180
-185
-191
-197
-204
-211
-218
-224
-230
-237
-243
-250
-257
-264
-271
-278
-284
-292
-300
-308
-316
-324
-332
-340
-348
-356
-365
-373
-381
-391
-399
-408
-417
-427
-438
-447
-457
-469
-480
-493
-504
-518
-531
-546
-561
-577
-592
-608
-624
-641
-656
-672
-688
-704
-717
-731
-744
-755
-766
-775
-783
-789
-794
-798
-801
-802
-803
-802
-799
-796
-792
-787
-781
-775
-770
-762
-754
-746
-738
-730
-721
-713
-704
-694
-686
-676
-668
-659
-648
-639
-629
-619
-609
-599
-589
-578
-567
-555
-544
-533
-520
-509
-496
-484
-471
-460
-448
-436
-424
-412
-401
-389
-378
-368
-357
-346
-337
-327
-319
-310
-302
-294
-286
-279
-271
-265
-258
-252
-244
-238
-232
-226
-220
-214
-208
-202
-197
-191
-186
-181
-176
-171
-165
-161
-156
-153
-148
-145
-142
-138
-135
-132
-129
-127
-126
-123
-122
-120
-118
-118
-117
-116
-114
-114
-113
-113
-112
-111
-110
-110
-109
-109
-109
-108
-108
-107
-107
-106
-106
-105
-104
-103
-103
-102
-102
-102
-101
-100
-99
-99
-98
-98
-98
-97
-97
-95
-95
-94
-93
-92
-92
-90
-90
-88
-87
-86
-86
-84
-83
-82
-81
-80
-78
-78
-77
-76
-74
-74
-72
-72
-72
-70
-69
-68
-67
-67
-65
-65
-64
-62
-62
-61
-60
-59
-57
-57
-55
-54
-53
-52
-50
-49
-47
-45
-44
-44
-43
-41
-40
-39
-37
-36
-35
-34
-33
-31
-30
-28
-28
-26
-25
-24
-22
-22
-20
-19
-18
-17
-15
-15
-13
-11
-10
-10
-8
-6
-5
-4
-3
-2
-1
1
2
3
4
6
6
7
8
10
11
11
12
13
13
14
14
15
15
15
16
15
16
15
16
16
15
16
15
15
14
14
13
13
13
12
11
10
9
8
6
6
5
3
2
-1
-2
-5
-6
-8
-11
-13
-16
-18
-20
-23
-26
-28
-32
-35
-38
-40
-43
-46
-49
-52
-55
-58
-61
-63
-66
-69
-72
-75
-78
-81
-83
-86
-88
-91
-94
-96
-99
-101
-103
-106
-109
-111
-112
-116
-117
-119
-122
-125
-127
-128
-130
-132
-134
-136
-138
-139
-141
-143
-144
-146
-147
-148
-149
-150
-151
-152
-153
-154
-155
-155
-156
-156
-157
-158
-158
-159
-159
-159
-161
-161
-162
-162
-163
-163
-164
-165
-166
-166
-166
-167
-167
-168
-168
-169
-170
-170
-171
-171
-171
-172
-172
-172
-173
-173
-173
-173
-173
-173
-174
-173
-174
-173
-173
-173
-173
-173
-172
-172
-171
-171
-171
-170
-169
-169
-169
-168
-167
-167
-166
-166
-165
-164
-164
-164
-164
-163
-162
-162
-161
-161
-161
-160
-159
-159
-158
-157
-157
-157
-156
-155
-155
-155
-155
-154
-154
-154
-154
-154
-154
-155
-154
-154
-155
-155
-156
-156
-156
-157
-158
-158
-157
-158
-158
-159
-159
-159
-160
-159
-160
-160
-161
-161
-161
-160
-161
-161
-161
-161
-162
-161
-161
-161
-161
-162
-161
-162
-161
-161
-161
-162
-162
-162
-162
-161
-162
-162
-162
-162
-162
-162
-161
-162
-161
-162
-162
-161
-161
-161
-161
-161
-161
-162
-161
-161
-161
-160
-161
-161
-161
-161
-161
-161
-161
-162
-162
-162
-162
-162
-162
-163
-164
-164
-164
-164
-164
-164
-165
-165
-166
-165
-165
-165
-166
-166
-167
-166
-166
-165
-165
-164
-164
-163
-161
-159
-157
-155
-153
-149
-147
-143
-140
-136
-134
-131
-129
-126
-124
-121
-121
-120
-120
-122
-122
-124
-127
-129
-134
-138
-144
-150
-156
-161
-168
-176
-183
-190
-196
-204
-211
-219
-225
-234
-241
-249
-256
-264
-271
-279
-287
-296
-304
-314
-323
-332
-341
-350
-359
-368
-379
-388
-398
-408
-418
-428
-440
-451
-463
-475
-487
-500
-513
-527
-541
-556
-571
-587
-602
-618
-634
-650
-666
-681
-696
-711
-725
-737
-750
-761
-772
-780
-788
-794
-800
-804
-808
-808
-809
-808
-806
-804
-800
-797
-792
-785
-779
-773
-767
-759
-752
-743
-735
-727
-718
-710
-701
-693
-684
-675
-665
-656
-647
-638
-627
-617
-607
-597
-586
-575
-564
-552
-540
-528
-516
-503
-491
-478
-466
-452
-439
-427
-415
-403
-390
-378
-366
-354
-344
-333
-322
-311
-302
-293
-284
-275
-268
-259
-251
-244
-237
-230
-223
-216
-210
-204
-197
-192
-187
-182
-176
-171
-166
-161
-156
-152
-148
-144
-139
-136
-133
-130
-127
-125
-122
-120
-118
-116
-115
-113
-112
-111
-110
-109
-108
-108
-108
-107
-106
-106
-106
-105
-105
