# Simple Text Format
# Sampling Rate (Hz):= 1200.00
# Resolution:= 12
# Labels:= ECG	 V1
# Age:=	74
# Gender:=	Masculino
-101
-102
-102
-103
-103
-104
-104
-105
-106
-107
-107
-109
-110
-110
-111
-112
-114
-115
-116
-117
-118
-120
-122
-123
-125
-125
-127
-128
-131
-132
-134
-136
-138
-139
-141
-143
-144
-147
-149
-150
-152
-154
-156
-158
-160
-162
-164
-166
-168
-170
-172
-173
-175
-177
-179
-181
-183
-185
-186
-187
-188
-190
-192
-193
-194
-196
-197
-198
-199
-201
-202
-203
-205
-205
-207
-208
-209
-210
-210
-212
-212
-213
-213
-214
-216
-215
-216
-217
-217
-218
-218
-218
-218
-218
-218
-219
-219
-219
-219
-218
-219
-219
-219
-219
-219
-219
-219
-219
-220
-220
-221
-221
-221
-222
-222
-223
-224
-224
-225
-225
-225
-227
-228
-230
-230
-231
-232
-233
-234
-236
-237
-238
-239
-239
-241
-243
-243
-244
-245
-245
-245
-246
-247
-248
-248
-247
-247
-247
-248
-247
-247
-247
-246
-246
-245
-245
-245
-244
-243
-242
-242
-241
-241
-240
-239
-238
-237
-236
-236
-236
-235
-234
-233
-232
-231
-230
-230
-229
-227
-227
-226
-225
-224
-223
-223
-222
-221
-221
-221
-219
-220
-218
-217
-217
-216
-216
-216
-215
-215
-214
-213
-213
-213
-213
-212
-212
-212
-211
-211
-211
-211
-210
-210
-209
-209
-209
-209
-209
-208
-207
-208
-208
-208
-208
-207
-207
-207
-206
-207
-207
-207
-207
-206
-207
-206
-207
-208
-208
-207
-207
-207
-207
-207
-208
-208
-208
-207
-208
-208
-208
-208
-209
-208
-208
-209
-209
-208
-208
-209
-208
-208
-209
-209
-209
-209
-209
-209
-210
-210
-210
-210
-210
-210
-210
-210
-210
-211
-211
-210
-211
-211
-211
-211
-212
-212
-212
-212
-213
-212
-213
-213
-212
-212
-211
-212
-212
-211
-211
-211
-210
-210
-210
-210
-211
-211
-211
-212
-213
-215
-216
-219
-220
-223
-227
-231
-236
-240
-247
-252
-258
-266
-274
-282
-290
-298
-307
-317
-326
-337
-348
-358
-369
-380
-392
-404
-417
-429
-443
-454
-468
-480
-493
-506
-518
-530
-542
-553
-566
-576
-586
-595
-604
-612
-618
-625
-630
-634
-638
-640
-642
-644
-644
-645
-645
-643
-642
-640
-637
-636
-634
-630
-628
-623
-620
-617
-613
-609
-605
-601
-595
-590
-585
-580
-574
-569
-562
-556
-549
-543
-535
-528
-521
-513
-505
-497
-489
-481
-474
-466
-457
-449
-441
-434
-426
-418
-411
-404
-397
-391
-385
-379
-372
-366
-360
-355
-350
-345
-340
-335
-330
-326
-320
-317
-313
-308
-304
-299
-294
-290
-286
-283
-279
-275
-270
-267
-263
-260
-256
-251
-248
-244
-240
-237
-234
-230
-226
-222
-219
-216
-212
-209
-205
-202
-199
-195
-193
-190
-187
-185
-181
-179
-177
-175
-173
-171
-169
-167
-166
-164
-163
-161
-160
-159
-158
-157
-157
-157
-156
-155
-154
-153
-153
-153
-153
-153
-152
-152
-152
-151
-152
-152
-151
-150
-150
-150
-150
-150
-149
-148
-148
-148
-148
-147
-147
-147
-146
-145
-145
-144
-144
-143
-143
-142
-142
-142
-141
-141
-140
-140
-138
-138
-137
-137
-137
-136
-136
-135
-134
-134
-134
-133
-132
-131
-130
-130
-130
-130
-129
-128
-127
-126
-126
-124
-124
-123
-123
-121
-121
-120
-120
-119
-118
-118
-117
-116
-115
-115
-115
-113
-112
-112
-111
-111
-110
-109
-109
-108
-108
-107
-107
-106
-106
-104
-104
-104
-103
-103
-102
-101
-100
-99
-99
-98
-98
-97
-97
-96
-95
-95
-94
-94
-93
-92
-92
-92
-92
-91
-91
-92
-91
-91
-91
-91
-91
-91
-91
-91
-90
-91
-92
-92
-92
-91
-91
-92
-93
-92
-93
-94
-94
-94
-95
-95
-95
-97
-97
-98
-99
-100
-102
-102
-103
-104
-106
-107
-108
-110
-112
-113
-114
-115
-116
-119
-120
-122
-123
-125
-127
-128
-130
-133
-134
-136
-138
-140
-142
-143
-145
-146
-148
-150
-153
-155
-156
-158
-159
-161
-163
-165
-167
-168
-170
-171
-173
-175
-177
-178
-179
-181
-182
-183
-185
-187
-189
-189
-190
-192
-193
-194
-195
-196
-197
-197
-199
-199
-200
-201
-202
-201
-202
-202
-203
-204
-204
-204
-204
-205
-205
-205
-205
-205
-206
-205
-205
-205
-205
-205
-206
-205
-205
-204
-205
-205
-205
-205
-204
-204
-205
-205
-205
-205
-205
-205
-206
-207
-207
-208
-208
-210
-210
-211
-212
-214
-214
-216
-217
-218
-219
-220
-222
-223
-224
-225
-226
-227
-228
-229
-229
-230
-230
-230
-231
-231
-232
-232
-231
-231
-231
-231
-231
-231
-230
-229
-229
-229
-228
-228
-227
-227
-225
-225
-224
-223
-223
-222
-221
-220
-220
-218
-218
-217
-216
-215
-214
-214
-213
-213
-212
-211
-209
-209
-209
-208
-207
-207
-206
-205
-204
-204
-204
-203
-203
-202
-202
-201
-201
-201
-200
-199
-199
-198
-198
-197
-197
-196
-196
-195
-195
-195
-195
-194
-195
-194
-193
-193
-194
-194
-194
-194
-193
-193
-193
-193
-193
-193
-193
-193
-193
-193
-194
-193
-193
-193
-193
-193
-194
-194
-193
-192
-193
-193
-193
-193
-193
-193
-192
-193
-193
-193
-193
-193
-194
-193
-193
-193
-194
-194
-194
-194
-194
-194
-194
-194
-195
-194
-195
-195
-195
-196
-196
-196
-196
-196
-196
-197
-197
-197
-197
-198
-197
-197
-198
-198
-198
-199
-198
-197
-198
-198
-198
-198
-197
-197
-197
-196
-197
-196
-196
-196
-196
-196
-195
-196
-196
-197
-198
-198
-200
-202
-204
-207
-210
-213
-218
-223
-228
-234
-240
-247
-254
-262
-271
-279
-288
-297
-307
-317
-327
-338
-349
-360
-371
-384
-396
-409
-421
-435
-447
-459
-471
-483
-496
-508
-520
-532
-543
-553
-564
-572
-581
-589
-597
-602
-608
-612
-616
-619
-622
-622
-623
-624
-624
-623
-622
-621
-618
-615
-614
-611
-608
-605
-602
-598
-595
-590
-586
-582
-578
-573
-568
-562
-556
-551
-546
-538
-532
-525
-518
-510
-503
-495
-487
-479
-472
-464
-457
-448
-440
-432
-424
-416
-409
-401
-395
-387
-380
-374
-367
-362
-356
-350
-344
-339
-334
-328
-323
-319
-314
-308
-303
-299
-295
-291
-287
-282
-277
-273
-269
-265
-261
-258
-254
-249
-246
-242
-239
-234
-231
-228
-224
-220
-218
-214
-211
-207
-204
-201
-196
-194
-191
-187
-185
-181
-178
-175
-173
-170
-167
-165
-162
-160
-157
-155
-154
-152
-150
-148
-148
-146
-145
-144
-144
-143
-142
-142
-142
-141
-141
-140
-140
-140
-139
-140
-139
-140
-139
-138
-138
-138
-138
-138
-137
-137
-137
-136
-136
-136
-135
-134
-134
-134
-134
-133
-133
-133
-133
-132
-132
-132
-132
-131
-131
-130
-130
-130
-130
-130
-129
-128
-127
-127
-127
-126
-126
-124
-124
-123
-123
-122
-121
-120
-120
-119
-118
-117
-117
-116
-116
-114
-114
-113
-112
-111
-110
-110
-109
-108
-108
-108
-107
-106
-105
-105
-104
-104
-103
-103
-102
-101
-100
-100
-99
-99
-99
-98
-97
-97
-95
-95
-95
-94
-93
-92
-92
-91
-91
-90
-90
-89
-88
-87
-87
-87
-87
-86
-85
-85
-85
-84
-84
-84
-83
-83
-83
-83
-82
-83
-82
-82
-82
-82
-81
-82
-82
-81
-81
-81
-82
-82
-82
-83
-83
-83
-82
-83
-84
-84
-84
-84
-85
-85
-86
-87
-88
-88
-89
-91
-91
-93
-94
-94
-96
-97
-98
-100
-101
-104
-105
-107
-107
-109
-111
-113
-115
-117
-118
-120
-122
-124
-126
-128
-130
-131
-133
-135
-137
-139
-141
-143
-145
-146
-148
-150
-152
-154
-155
-157
-158
-160
-163
-163
-165
-167
-168
-169
-171
-173
-174
-175
-176
-177
-179
-179
-181
-182
-183
-183
-184
-186
-187
-188
-189
-189
-190
-191
-192
-193
-193
-194
-193
-194
-195
-196
-196
-196
-195
-196
-196
-197
-197
-197
-196
-196
-196
-196
-197
-197
-197
-196
-196
-196
-195
-196
-196
-195
-196
-195
-195
-195
-195
-195
-195
-196
-196
-197
-197
-198
-198
-200
-200
-201
-202
-203
-204
-205
-207
-207
-209
-210
-211
-212
-214
-214
-215
-216
-217
-218
-219
-219
-220
-220
-221
-221
-221
-221
-221
-221
-221
-222
-221
-221
-221
-220
-220
-219
-219
-219
-218
-217
-217
-216
-215
-215
-215
-214
-213
-212
-211
-211
-210
-209
-208
-207
-207
-206
-205
-204
-203
-202
-201
-200
-199
-199
-198
-197
-197
-195
-196
-195
-194
-193
-193
-193
-191
-192
-192
-191
-191
-190
-190
-189
-189
-189
-189
-188
-188
-187
-187
-187
-187
-187
-186
-186
-186
-186
-186
-185
-186
-186
-185
-185
-185
-186
-186
-185
-186
-185
-186
-185
-185
-186
-185
-186
-186
-186
-186
-187
-186
-187
-186
-187
-186
-187
-187
-187
-186
-187
-187
-186
-187
-187
-187
-187
-186
-187
-187
-187
-187
-187
-187
-187
-187
-188
-188
-188
-188
-188
-189
-189
-189
-189
-189
-190
-190
-190
-190
-190
-190
-190
-189
-189
-190
-190
-190
-190
-189
-189
-189
-189
-190
-189
-189
-188
-188
-188
-188
-188
-188
-188
-188
-188
-188
-189
-189
-190
-191
-192
-194
-196
-199
-202
-205
-208
-212
-218
-222
-229
-235
-241
-248
-256
-264
-273
-282
-291
-301
-310
-320
-330
-341
-353
-364
-375
-387
-400
-413
-426
-439
-451
-464
-476
-489
-502
-514
-525
-536
-547
-558
-568
-576
-585
-592
-598
-603
-609
-613
-616
-619
-621
-621
-622
-622
-622
-621
-619
-617
-615
-613
-611
-608
-605
-602
-598
-594
-591
-587
-583
-578
-573
-568
-562
-557
-552
-546
-540
-533
-527
-521
-513
-506
-499
-491
-483
-475
-467
-460
-452
-444
-436
-428
-420
-413
-406
-398
-392
-384
-378
-372
-366
-360
-354
-348
-343
-338
-333
-328
-323
-318
-314
-308
-304
-300
-295
-291
-287
-282
-277
-273
-269
-265
-261
-257
-252
-247
-244
-240
-236
-232
-227
-224
-220
-217
-213
-210
-207
-202
-199
-195
-192
-189
-185
-183
-179
-176
-173
-171
-169
-166
-163
-160
-157
-156
-153
-152
-150
-148
-146
-145
-144
-143
-142
-141
-140
-139
-139
-139
-138
-138
-137
-137
-136
-137
-136
-136
-136
-135
-136
-135
-135
-135
-135
-134
-134
-133
-133
-134
-133
-132
-131
-131
-131
-131
-131
-130
-129
-129
-128
-127
-127
-127
-127
-126
-126
-125
-124
-124
-124
-122
-122
-121
-120
-120
-119
-119
-119
-118
-117
-116
-116
-116
-115
-114
-113
-114
-112
-112
-112
-111
-111
-110
-109
-109
-109
-108
-107
-106
-106
-105
-105
-103
-103
-103
-101
-101
-100
-99
-99
-97
-97
-96
-95
-95
-94
-93
-92
-92
-91
-90
-90
-90
-89
-88
-87
-86
-86
-87
-86
-85
-84
-83
-83
-83
-84
-83
-83
-82
-81
-81
-81
-80
-80
-79
-80
-79
-79
-79
-79
-79
-78
-77
-77
-76
-76
-77
-76
-76
-75
-76
-76
-75
-76
-76
-76
-76
-76
-78
-78
-78
-78
-79
-80
-81
-82
-83
-83
-85
-86
-87
-89
-89
-91
-92
-93
-93
-95
-97
-97
-99
-100
-101
-103
-105
-107
-108
-109
-111
-113
-114
-116
-119
-120
-122
-123
-126
-128
-130
-131
-134
-135
-137
-140
-141
-143
-146
-148
-149
-151
-153
-155
-157
-158
-159
-162
-163
-164
-167
-168
-169
-170
-171
-173
-175
-176
-177
-179
-179
-181
-182
-183
-184
-185
-185
-186
-187
-188
-189
-189
-190
-191
-191
-191
-192
-192
-193
-193
-193
-193
-193
-194
-195
-195
-194
-195
-195
-196
-196
-196
-196
-196
-196
-197
-197
-198
-198
-198
-199
-200
-201
-202
-203
-204
-205
-206
-207
-208
-210
-211
-212
-214
-215
-216
-217
-218
-220
-221
-221
-223
-224
-225
-225
-225
-226
-226
-227
-228
-227
-227
-228
-227
-227
-226
-227
-226
-226
-225
-225
-224
-223
-223
-223
-222
-222
-221
-220
-220
-219
-219
-218
-218
-216
-216
-215
-215
-214
-212
-212
-210
-210
-209
-208
-208
-207
-206
-205
-204
-203
-203
-202
-200
-200
-199
-198
-199
-198
-197
-197
-196
-195
-195
-194
-194
-194
-193
-192
-192
-191
-191
-190
-189
-189
-188
-188
-188
-188
-187
-187
-187
-186
-186
-186
-186
-185
-185
-185
-185
-185
-185
-184
-184
-184
-184
-185
-184
-184
-184
-184
-184
-185
-184
-185
-185
-184
-184
-184
-185
-185
-185
-184
-185
-185
-185
-185
-185
-185
-185
-184
-185
-185
-185
-185
-185
-186
-185
-186
-186
-186
-186
-186
-186
-186
-186
-187
-188
-188
-188
-187
-188
-188
-188
-189
-189
-189
-189
-189
-189
-189
-190
-189
-190
-189
-189
-190
-190
-189
-189
-188
-188
-188
-188
-189
-189
-188
-188
-188
-188
-190
-191
-192
-193
-194
-197
-199
-202
-206
-209
-213
-218
-224
-231
-237
-244
-252
-260
-269
-277
-287
-296
-306
-316
-325
-336
-348
-359
-371
-383
-394
-407
-420
-433
-446
-460
-471
-485
-496
-509
-521
-534
-545
-555
-566
-576
-585
-592
-600
-607
-611
-615
-619
-623
-625
-626
-626
-626
-626
-625
-624
-623
-620
-617
-614
-612
-609
-605
-602
-598
-594
-590
-586
-581
-577
-572
-566
-561
-556
-550
-544
-538
-531
-524
-517
-510
-504
-497
-489
-481
-473
-466
-458
-450
-442
-435
-427
-419
-411
-404
-397
-390
-384
-377
-371
-364
-359
-354
-348
-342
-337
-331
-327
-322
-318
-313
-308
-303
-299
-295
-291
-286
-282
-277
-273
-269
-265
-261
-256
-252
-248
-244
-240
-237
-233
-228
-225
-221
-218
-214
-210
-206
-203
-200
-196
-192
-189
-186
-183
-179
-177
-174
-170
-167
-166
-163
-160
-157
-155
-154
-152
-151
-148
-147
-146
-144
-144
-143
-142
-141
-141
-139
-139
-139
-139
-138
-139
-138
-138
-137
-138
-137
-137
-137
-136
-135
-135
-135
-135
-134
-133
-134
-133
-133
-132
-132
-131
-131
-130
-129
-130
-129
-128
-127
-127
-127
-126
-126
-126
-126
-125
-124
-124
-124
-124
-124
-123
-123
-122
-122
-122
-121
-121
-121
-120
-119
-119
-118
-117
-117
-116
-116
-116
-115
-114
-114
-112
-112
-111
-110
-110
-109
-108
-107
-106
-106
-105
-104
-104
-102
-102
-101
-100
-100
-98
-98
-97
-96
-95
-95
-95
-94
-93
-92
-92
-91
-91
-90
-90
-89
-89
-88
-88
-87
-87
-86
-86
-85
-84
-84
-83
-83
-82
-82
-81
-81
-80
-80
-80
-79
-78
-78
-78
-77
-78
-78
-77
-77
-77
-77
-78
-77
-77
-77
-77
-78
-80
-80
-80
-80
-81
-81
-82
-83
-84
-85
-85
-86
-86
-88
-89
-89
-90
-91
-91
-93
-94
-95
-97
-98
-99
-99
-101
-102
-105
-105
-107
-108
-110
-112
-114
-116
-117
-118
-120
-123
-125
-127
-128
-130
-132
-133
-135
-137
-139
-141
-142
-144
-147
-148
-150
-152
-154
-155
-157
-159
-161
-163
-165
-166
-167
-169
-171
-172
-174
-176
-176
-178
-179
-181
-183
-183
-184
-185
-186
-187
-188
-189
-190
-190
-191
-191
-192
-192
-193
-193
-194
-194
-195
-195
-195
-196
-195
-195
-194
-194
-195
-196
-196
-195
-195
-195
-195
-195
-196
-196
-196
-196
-196
-197
-199
-199
-199
-199
-200
-201
-202
-203
-204
-205
-205
-207
-208
-210
-210
-212
-212
-214
-215
-216
-217
-218
-219
-219
-221
-221
-223
-224
-224
-224
-224
-224
-225
-225
-226
-225
-225
-225
-225
-224
-224
-224
-224
-223
-222
-222
-221
-221
-221
-220
-219
-218
-218
-218
-216
-216
-215
-215
-214
-212
-212
-211
-211
-209
-208
-207
-207
-205
-204
-204
-203
-202
-201
-201
-200
-200
-199
-198
-198
-197
-197
-196
-196
-195
-194
-194
-193
-194
-193
-193
-192
-191
-191
-191
-191
-190
-190
-190
-189
-189
-189
-189
-189
-188
-188
-188
-188
-187
-188
-187
-187
-187
-187
-187
-187
-187
-187
-186
-186
-187
-187
-187
-187
-187
-187
-187
-187
-188
-188
-187
-187
-187
-187
-187
-188
-188
-188
-187
-187
-188
-189
-188
-188
-188
-188
-188
-188
-189
-189
-189
-188
-188
-189
-189
-189
-189
-189
-189
-190
-189
-190
-190
-190
-190
-190
-190
-190
-190
-190
-191
-190
-190
-190
-191
-191
-191
-191
-190
-190
-191
-191
-191
-190
-190
-189
-189
-189
-189
-189
-189
-189
-189
-190
-190
-192
-192
-194
-196
-198
-201
-203
-208
-211
-215
-220
-226
-233
-239
-247
-254
-262
-270
-280
-289
-298
-308
-317
-327
-338
-349
-361
-372
-384
-396
-408
-421
-434
-447
-460
-472
-484
-496
-509
-521
-533
-544
-555
-565
-574
-584
-592
-599
-605
-610
-614
-619
-622
-624
-626
-626
-625
-625
-624
-624
-622
-619
-617
-614
-611
-608
-605
-601
-597
-594
-589
-585
-581
-576
-571
-566
-561
-555
-549
-543
-538
-531
-525
-518
-510
-503
-496
-489
-481
-472
-465
-457
-449
-442
-434
-426
-417
-410
-403
-396
-390
-382
-375
-369
-362
-356
-351
-345
-340
-335
-329
-325
-320
-314
-310
-305
-301
-297
-292
-288
-284
-279
-275
-271
-267
-263
-259
-255
-251
-247
-243
-239
-235
-232
-228
-225
-221
-218
-214
-211
-207
-204
-200
-197
-194
-191
-187
-184
-181
-178
-175
-172
-169
-167
-164
-162
-158
-157
-154
-153
-151
-149
-147
-145
-145
-142
-142
-141
-140
-139
-138
-137
-137
-137
-137
-137
-137
-136
-136
-136
-136
-136
-136
-135
-135
-135
-135
-135
-134
-133
-133
-133
-133
-132
-132
-132
-130
-131
-130
-130
-130
-129
-129
-128
-128
-128
-128
-128
-127
-126
-126
-126
-125
-125
-125
-123
-123
-123
-122
-121
-120
-119
-119
-119
-118
-117
-116
-116
-115
-113
-113
-112
-112
-112
-111
-110
-109
-108
-108
-108
-107
-106
-106
-105
-104
-104
-104
-103
-102
-102
-101
-100
-99
-99
-99
-98
-96
-97
-95
-95
-95
-94
-93
-92
-92
-91
-91
-91
-89
-89
-88
-88
-87
-87
-86
-85
-85
-84
-83
-83
-82
-82
-81
-80
-80
-79
-79
-79
-78
-77
-77
-77
-76
-77
-77
-76
-75
-75
-75
-75
-75
-76
-75
-75
-76
-76
-76
-76
-76
-76
-77
-77
-78
-79
-80
-80
-80
-81
-82
-82
-84
-86
-86
-86
-88
-89
-91
-92
-93
-95
-96
-97
-99
-101
-102
-104
-105
-106
-109
-110
-111
-113
-115
-116
-118
-120
-121
-123
-125
-126
-129
-131
-132
-135
-136
-138
-139
-141
-144
-145
-147
-149
-151
-153
-154
-157
-158
-159
-161
-162
-164
-166
-167
-169
-171
-171
-172
-173
-175
-176
-177
-179
-179
-180
-181
-182
-183
-185
-185
-186
-187
-188
-189
-189
-190
-190
-191
-191
-192
-193
-193
-193
-194
-193
-193
-194
-194
-194
-194
-194
-194
-194
-194
-194
-194
-194
-193
-193
-193
-193
-192
-192
-191
-192
-191
-191
-190
-190
-190
-190
-190
-190
-191
-191
-191
-191
-191
-192
-193
-194
-195
-196
-196
-197
-198
-200
-201
-203
-203
-205
-205
-207
-207
-208
-209
-209
-209
-211
-211
-211
-212
-212
-213
-212
-212
-212
-212
-212
-212
-211
-211
-211
-211
-210
-210
-210
-209
-208
-208
-207
-207
-206
-205
-204
-203
-203
-202
-201
-200
-198
-198
-196
-196
-195
-194
-193
-191
-191
-190
-189
-188
-188
-186
-185
-184
-184
-184
-184
-182
-181
-181
-180
-181
-181
-180
-179
-179
-179
-178
-178
-179
-178
-177
-177
-177
-177
-178
-177
-177
-176
-176
-176
-176
-175
-176
-175
-174
-174
-174
-174
-174
-173
-173
-172
-173
-172
-172
-172
-171
-171
-171
-171
-171
-171
-171
-171
-171
-171
-172
-172
-172
-172
-173
-173
-173
-173
-174
-174
-174
-173
-173
-173
-174
-174
-174
-174
-173
-173
-174
-174
-174
-175
-174
-174
-174
-175
-176
-176
-176
-175
-176
-176
-176
-176
-176
-176
-176
-176
-176
-176
-176
-176
-177
-176
-177
-176
-176
-176
-177
-176
-176
-176
-176
-176
-176
-176
-176
-176
-176
-176
-177
-177
-178
-179
-179
-182
-184
-186
-188
-190
-194
-198
-202
-208
-213
-219
-225
-232
-239
-247
-255
-264
-273
-282
-291
-301
-311
-321
-332
-343
-355
-366
-379
-391
-403
-416
-428
-440
-453
-465
-477
-490
-501
-513
-524
-535
-546
-554
-563
-571
-578
-585
-590
-595
-599
-602
-604
-606
-607
-608
-608
-607
-606
-604
-602
-600
-599
-596
-592
-589
-584
-581
-578
-574
-569
-565
-560
-554
-550
-545
-539
-533
-526
-520
-513
-507
-500
-493
-485
-477
-469
-461
-454
-446
-439
-431
-422
-414
-406
-400
-392
-384
-377
-371
-364
-358
-351
-346
-339
-333
-327
-323
-317
-312
-307
-302
-297
-292
-287
-283
-278
-274
-269
-265
-261
-257
-253
-249
-245
-240
-237
-233
-229
-226
-222
-218
-214
-211
-208
-205
-202
-198
-195
-192
-188
-186
-183
-180
-176
-174
-170
-167
-164
-162
-159
-156
-153
-151
-149
-147
-145
-142
-140
-138
-137
-136
-134
-133
-132
-131
-129
-129
-129
-129
-128
-127
-126
-126
-126
-126
-126
-125
-125
-124
-124
-125
-124
-124
-124
-123
-122
-123
-122
-122
-122
-121
-121
-121
-120
-120
-120
-119
-119
-118
-118
-118
-118
-118
-117
-116
-115
-116
-115
-115
-114
-114
-113
-113
-112
-112
-112
-111
-111
-110
-110
-110
-109
-109
-109
-107
-106
-106
-106
-106
-105
-104
-104
-103
-102
-102
-101
-101
-99
-99
-98
-97
-97
-97
-96
-96
-95
-93
-93
-93
-93
-92
-91
-90
-90
-89
-89
-88
-87
-86
-85
-85
-85
-84
-83
-82
-81
-80
-80
-80
-79
-78
-78
-77
-77
-77
-77
-75
-75
-74
-74
-73
-74
-73
-73
-71
-72
-71
-71
-71
-70
-70
-70
-70
-69
-70
-70
-70
-70
-70
-70
-70
-70
-71
-71
-71
-71
-71
-72
-72
-73
-74
-74
-75
-75
-76
-77
-78
-79
-80
-80
-81
-82
-84
-85
-86
-87
-88
-89
-91
-92
-93
-94
-96
-98
-99
-101
-102
-104
-105
-106
-108
-111
-112
-114
-115
-117
-120
-122
-124
-125
-127
-129
-131
-133
-135
-137
-138
-140
-142
-143
-145
-148
-149
-151
-152
-154
-155
-157
-159
-160
-162
-163
-165
-167
-167
-169
-170
-172
-173
-174
-176
-177
-177
-178
-178
-179
-180
-181
-182
-182
-182
-183
-183
-184
-185
-185
-185
-185
-185
-185
-186
-186
-187
-186
-187
-186
-187
-187
-187
-187
-187
-187
-187
-186
-187
-186
-186
-187
-186
-186
-187
-187
-187
-188
-187
-188
-188
-190
-191
-191
-193
-193
-194
-195
-197
-198
-199
-201
-202
-204
-205
-206
-207
-209
-209
-210
-211
-212
-214
-214
-214
-215
-215
-215
-216
-216
-215
-215
-215
-215
-215
-215
-215
-214
-214
-213
-213
-213
-213
-212
-210
-210
-209
-209
-209
-208
-207
-207
-206
-205
-205
-204
-203
-202
-201
-200
-199
-197
-197
-196
-195
-194
-192
-192
-192
-190
-190
-190
-188
-189
-187
-188
-187
-186
-186
-186
-185
-184
-184
-184
-184
-182
-182
-182
-181
-181
-181
-180
-179
-180
-179
-179
-178
-178
-178
-177
-177
-177
-177
-177
-176
-177
-176
-176
-176
-176
-177
-176
-176
-177
-176
-177
-177
-177
-176
-177
-177
-176
-177
-177
-177
-177
-177
-177
-178
-178
-178
-177
-177
-177
-178
-179
-179
-178
-178
-178
-179
-178
-179
-179
-179
-178
-179
-179
-179
-179
-179
-180
-179
-180
-180
-180
-180
-180
-179
-180
-179
-180
-180
-180
-180
-180
-180
-180
-180
-181
-180
-180
-180
-180
-180
-181
-181
-180
-180
-180
-180
-179
-180
-179
-179
-179
-178
-179
-181
-181
-182
-184
-185
-187
-190
-193
-196
-200
-203
-209
-214
-220
-226
-234
-241
-248
-257
-265
-274
-285
-294
-304
-313
-324
-335
-346
-358
-369
-381
-394
-406
-419
-432
-444
-457
-469
-482
-494
-506
-518
-529
-540
-550
-560
-569
-577
-584
-591
-596
-600
-605
-609
-611
-613
-614
-613
-614
-613
-612
-610
-609
-606
-604
-601
-599
-596
-593
-588
-584
-582
-577
-573
-569
-565
-559
-554
-548
-543
-537
-532
-524
-517
-511
-504
-496
-489
-481
-474
-466
-457
-450
-442
-434
-426
-418
-410
-403
-396
-389
-382
-375
-369
-363
-356
-351
-345
-340
-335
-329
-324
-319
-315
-310
-305
-301
-296
-292
-287
-283
-279
-274
-270
-266
-261
-257
-254
-250
-245
-241
-237
-233
-229
-225
-221
-218
-213
-210
-207
-203
-199
-196
-192
-188
-185
-182
-179
-176
-172
-169
-167
-164
-161
-159
-157
-154
-152
-149
-148
-147
-145
-144
-142
-141
-139
-139
-138
-138
-137
-136
-135
-134
-134
-134
-134
-134
-134
-133
-133
-133
-133
-133
-133
-132
-132
-132
-132
-131
-131
-130
-130
-130
-130
-129
-129
-128
-128
-127
-127
-126
-126
-125
-126
-125
-124
-125
-124
-123
-123
-122
-122
-122
-122
-121
-121
-120
-120
-119
-119
-119
-118
-117
-117
-117
-116
-115
-115
-114
-114
-112
-111
-111
-111
-110
-109
-109
-108
-107
-107
-106
-105
-105
-103
-103
-103
-102
-101
-101
-99
-99
-98
-97
-97
-96
-95
-94
-94
-93
-93
-91
-91
-91
-90
-89
-88
-88
-87
-86
-85
-84
-83
-83
-83
-82
-81
-81
-80
-79
-79
-79
-79
-78
-77
-76
-76
-76
-76
-76
-75
-74
-74
-74
-75
-74
-74
-73
-73
-73
-73
-73
-74
-73
-73
-73
-73
-74
-74
-74
-74
-74
-74
-75
-76
-76
-77
-78
-78
-78
-80
-81
-82
-82
-83
-84
-85
-87
-89
-89
-91
-92
-92
-94
-96
-97
-98
-100
-101
-103
-105
-106
-109
-110
-111
-113
-115
-117
-119
-121
-123
-124
-125
-128
-130
-132
-134
-136
-138
-139
-141
-142
-145
-146
-148
-150
-151
-154
-155
-157
-159
-160
-161
-163
-165
-166
-168
-169
-170
-173
-174
-175
-176
-178
-178
-180
-181
-182
-183
-184
-185
-185
-186
-187
-187
-188
-188
-189
-189
-190
-190
-190
-191
-192
-191
-191
-191
-192
-192
-192
-192
-192
-192
-192
-192
-193
-193
-193
-192
-192
-193
-193
-194
-194
-193
-193
-194
-195
-196
-197
-197
-198
-199
-199
-200
-201
-202
-203
-204
-206
-207
-208
-210
-211
-212
-213
-214
-215
-216
-217
-217
-218
-219
-219
-220
-221
-221
-221
-221
-221
-221
-220
-220
-219
-219
-219
-219
-218
-218
-217
-216
-215
-215
-214
-214
-213
-213
-211
-211
-210
-209
-208
-207
-206
-206
-205
-204
-203
-203
-202
-200
-200
-199
-199
-198
-198
-197
-196
-196
-195
-194
-194
-194
-193
-193
-192
-192
-191
-191
-191
-190
-188
-188
-187
-187
-186
-186
-186
-184
-184
-184
-183
-183
-182
-181
-181
-181
-181
-181
-180
-180
-180
-180
-180
-180
-179
-179
-179
-179
-178
-179
-179
-179
-179
-179
-179
-179
-179
-180
-180
-180
-179
-179
-179
-179
-180
-180
-179
-180
-180
-179
-180
-180
-180
-180
-180
-180
-181
-181
-181
-181
-181
-182
-181
-181
-182
-182
-182
-182
-182
-182
-182
-183
-183
-183
-183
-184
-184
-184
-184
-185
-184
-184
-184
-184
-185
-185
-184
-185
-184
-185
-184
-184
-185
-184
-183
-183
-184
-183
-184
-183
-182
-182
-183
-183
-184
-184
-185
-186
-187
-190
-192
-194
-196
-200
-203
-208
-214
-219
-224
-231
-238
-245
-254
-262
-270
-279
-289
-298
-309
-319
-329
-341
-352
-364
-375
-388
-401
-414
-426
-440
-452
-465
-478
-491
-503
-516
-527
-539
-550
-560
-570
-579
-587
-594
-601
-606
-611
-615
-618
-620
-621
-621
-622
-622
-621
-619
-617
-614
-612
-610
-607
-603
-600
-596
-593
-588
-584
-580
-576
-571
-566
-561
-557
-551
-546
-539
-533
-527
-520
-514
-507
-500
-493
-486
-478
-470
-463
-455
-447
-439
-431
-424
-416
-408
-401
-395
-387
-380
-374
-367
-361
-355
-350
-344
-339
-333
-328
-323
-318
-313
-309
-304
-298
-295
-290
-286
-281
-276
-272
-268
-264
-260
-255
-251
-246
-242
-239
-235
-231
-227
-223
-219
-216
-212
-208
-204
-200
-197
-194
-190
-187
-182
-179
-176
-173
-170
-167
-164
-161
-158
-155
-152
-150
-148
-146
-145
-142
-141
-140
-138
-137
-136
-135
-134
-133
-133
-132
-132
-132
-131
-130
-130
-131
-130
-130
-129
-129
-129
-128
-128
-129
-129
-128
-127
-128
-127
-127
-126
-126
-125
-124
-124
-124
-123
-123
-123
-122
-122
-121
-121
-121
-120
-119
-118
-118
-118
-117
-117
-116
-116
-115
-115
-115
-114
-114
-113
-112
-112
-112
-111
-110
-110
-110
-109
-108
-107
-107
-107
-106
-105
-105
-103
-103
-103
-102
-101
-100
-99
-98
-98
-98
-97
-96
-95
-95
-95
-94
-93
-92
-91
-91
-90
-89
-89
-88
-87
-86
-85
-85
-84
-84
-83
-82
-82
-81
-80
-80
-80
-79
-78
-77
-76
-76
-75
-75
-75
-75
-74
-74
-73
-73
-72
-72
-72
-71
-71
-71
-71
-70
-70
-69
-70
-69
-70
-69
-70
-69
-69
-69
-68
-69
-70
-70
-70
-70
-70
-70
-71
-71
-71
-72
-73
-73
-74
-76
-76
-76
-77
-78
-79
-81
-82
-83
-85
-85
-87
-89
-91
-92
-93
-94
-95
-97
-99
-100
-102
-103
-105
-106
-108
-110
-111
-113
-114
-116
-118
-120
-121
-123
-125
-127
-129
-130
-133
-134
-136
-138
-140
-142
-143
-146
-148
-150
-151
-152
-154
-156
-158
-159
-160
-162
-163
-165
-166
-167
-169
-169
-170
-171
-172
-173
-174
-174
-175
-176
-176
-177
-178
-179
-178
-179
-179
-179
-180
-180
-181
-181
-181
-181
-181
-181
-181
-182
-182
-181
-182
-182
-182
-182
-182
-182
-183
-183
-184
-183
-184
-184
-184
-184
-185
-186
-187
-188
-188
-188
-189
-191
-191
-192
-193
-194
-195
-197
-198
-200
-200
-201
-202
-203
-204
-206
-207
-207
-208
-209
-210
-210
-210
-211
-210
-211
-211
-211
-211
-211
-210
-210
-209
-209
-209
-209
-208
-207
-207
-206
-206
-205
-204
-203
-203
-202
-201
-200
-200
-199
-198
-197
-195
-195
-193
-193
-192
-192
-190
-189
-188
-188
-187
-185
-184
-184
-183
-182
-182
-181
-180
-179
-179
-178
-178
-178
-178
-177
-177
-177
-176
-176
-176
-175
-174
-174
-174
-173
-173
-173
-172
-172
-170
-171
-171
-171
-170
-169
-169
-168
-169
-169
-169
-169
-169
-168
-168
-169
-168
-168
-169
-168
-169
-169
-168
-169
-168
-169
-168
-168
-169
-169
-169
-169
-169
-169
-169
-169
-170
-170
-169
-170
-170
-170
-170
-170
-170
-170
-169
-170
-170
-170
-170
-170
-170
-170
-170
-170
-170
-171
-171
-170
-171
-171
-171
-171
-171
-171
-171
-171
-171
-172
-171
-172
-171
-171
-171
-171
-171
-171
-171
-171
-170
-171
-171
-170
-170
-170
-170
-170
-170
-170
-171
-171
-171
-171
-173
-175
-176
-178
-179
-182
-185
-188
-193
-197
-202
-208
-214
-220
-227
-235
-243
-252
-260
-269
-278
-288
-298
-308
-319
-330
-341
-353
-365
-377
-390
-403
-416
-428
-441
-454
-466
-478
-491
-502
-514
-526
-537
-547
-556
-565
-573
-579
-586
-591
-596
-599
-602
-604
-605
-606
-606
-605
-604
-602
-601
-599
-596
-593
-591
-586
-583
-579
-576
-572
-568
-563
-559
-554
-549
-545
-539
-533
-528
-522
-515
-509
-502
-496
-488
-481
-473
-465
-457
-450
-442
-434
-426
-418
-410
-403
-395
-387
-380
-372
-365
-360
-352
-346
-340
-334
-328
-323
-318
-312
-308
-302
-297
-291
-287
-283
-278
-274
-269
-264
-260
-255
-252
-248
-243
-239
-235
-231
-228
-224
-220
-216
-212
-208
-205
-202
-198
-195
-191
-188
-184
-181
-178
-175
-172
-168
-165
-162
-159
-156
-154
-150
-148
-144
-142
-141
-138
-136
-133
-131
-128
-128
-125
-125
-124
-121
-120
-120
-119
-119
-118
-117
-117
-116
-116
-116
-116
-115
-115
-115
-115
-115
-114
-114
-114
-114
-113
-113
-113
-113
-112
-112
-111
-110
-110
-110
-110
-109
-109
-108
-107
-107
-107
-106
-106
-105
-104
-105
-104
-103
-103
-102
-102
-101
-101
-101
-101
-100
-100
-98
-98
-97
-97
-97
-96
-95
-95
-94
-94
-93
-92
-92
-91
-90
-89
-89
-89
-88
-86
-86
-85
-85
-85
-85
-84
-82
-82
-81
-81
-80
-78
-78
-77
-76
-76
-76
-75
-74
-73
-73
-72
-71
-71
-71
-70
-69
-68
-68
-68
-67
-66
-65
-65
-64
-64
-64
-64
-63
-62
-61
-61
-61
-60
-59
-59
-59
-58
-57
-57
-57
-57
-56
-55
-55
-55
-55
-55
-55
-54
-55
-54
-55
-55
-55
-55
-55
-55
-55
-56
-57
-57
-58
-58
-59
-59
-60
-61
-61
-61
-63
-63
-65
-66
-66
-67
-68
-69
-71
-72
-73
-74
-76
-77
-78
-80
-82
-83
-85
-85
-88
-89
-91
-93
-95
-97
-98
-100
-102
-104
-107
-108
-110
-112
-113
-115
-118
-120
-121
-123
-124
-127
-128
-130
-132
-134
-135
-137
-138
-140
-143
-144
-145
-147
-149
-150
-151
-153
-154
-155
-156
-156
-159
-160
-161
-162
-162
-163
-163
-165
-166
-166
-167
-166
-168
-168
-170
-170
-170
-171
-171
-171
-171
-172
-173
-173
-173
-173
-173
-173
-174
-174
-173
-174
-173
-173
-173
-173
-173
-172
-172
-172
-171
-171
-171
-171
-171
-171
-171
-172
-172
-172
-172
-172
-172
-173
-173
-174
-175
-175
-176
-177
-178
-179
-180
-180
-182
-182
-183
-185
-186
-187
-188
-188
-189
-191
-192
-193
-193
-194
-195
-195
-195
-196
-197
-196
-197
-196
-196
-196
-196
-196
-195
-194
-195
-194
-193
-193
-192
-192
-192
-191
-189
-189
-189
-188
-187
-186
-185
-185
-185
-184
-182
-181
-180
-179
-178
-177
-177
-176
-175
-174
-173
-173
-172
-171
-170
-169
-169
-168
-168
-167
-166
-166
-165
-165
-165
-164
-164
-163
-162
-161
-161
-161
-161
-160
-160
-159
-160
-159
-159
-158
-158
-158
-157
-157
-159
-158
-158
-158
-158
-158
-158
-158
-158
-158
-158
-158
-158
-158
-158
-158
-158
-158
-158
-159
-158
-158
-158
-157
-157
-157
-157
-158
-157
-157
-156
-156
-156
-157
-157
-157
-157
-156
-157
-157
-157
-157
-157
-157
-156
-157
-157
-158
-158
-158
-157
-158
-159
-158
-159
-159
-159
-158
-159
-159
-159
-159
-159
-160
-159
-159
-159
-160
-161
-160
-160
-160
-160
-160
-161
-161
-160
-160
-160
-159
-160
-159
-158
-159
-158
-158
-158
-159
-159
-160
-161
-163
-164
-167
-169
-171
-174
-178
-183
-188
-193
-200
-206
-213
-221
-228
-237
-245
-255
-264
-273
-282
-292
-303
-314
-325
-337
-348
-361
-373
-386
-399
-412
-423
-435
-448
-460
-472
-485
-496
-507
-518
-528
-538
-546
-554
-562
-567
-572
-577
-581
-584
-587
-587
-588
-588
-588
-587
-586
-585
-582
-580
-577
-574
-572
-569
-566
-561
-558
-554
-551
-546
-541
-537
-531
-526
-520
-515
-508
-503
-496
-488
-481
-474
-467
-460
-451
-444
-436
-428
-420
-412
-404
-396
-388
-380
-372
-365
-358
-351
-344
-338
-331
-325
-319
-313
-307
-302
-297
-292
-287
-282
-277
-273
-267
-263
-259
-255
-251
-246
-242
-237
-233
-230
-226
-221
-216
-213
-209
-206
-201
-198
-194
-190
-186
-183
-179
-177
-173
-169
-166
-162
-159
-156
-152
-150
-147
-143
-140
-138
-135
-133
-130
-127
-124
-123
-120
-119
-117
-115
-114
-112
-111
-110
-110
-108
-107
-107
-106
-106
-106
-106
-105
-104
-105
-104
-104
-105
-104
-104
-104
-103
-103
-103
-103
-102
-101
-101
-100
-99
-100
-99
-98
-97
-97
-97
-97
-97
-97
-96
-95
-95
-94
-94
-94
-93
-92
-92
-92
-92
-92
-91
-90
-90
-89
-88
-88
-88
-87
-87
-86
-85
-85
-85
-85
-84
-83
-82
-82
-81
-81
-80
-79
-79
-78
-77
-76
-76
-75
-74
-73
-72
-71
-70
-70
-69
-69
-68
-67
-67
-66
-65
-64
-64
-62
-62
-62
-61
-61
-60
-59
-59
-58
-58
-58
-57
-56
-55
-55
-55
-54
-54
-53
-53
-52
-51
-51
-51
-51
-50
-49
-49
-47
-47
-47
-47
-46
-47
-46
-46
-46
-45
-45
-45
-45
-45
-44
-45
-45
-45
-44
-44
-45
-45
-46
-45
-46
-46
-46
-47
-47
-48
-48
-49
-48
-49
-51
-52
-53
-54
-54
-55
-56
-57
-58
-60
-61
-62
-63
-65
-66
-67
-69
-70
-72
-72
-75
-77
-78
-80
-81
-82
-84
-86
-88
-89
-91
-92
-94
-95
-98
-100
-102
-103
-105
-106
-109
-111
-112
-115
-116
-118
-120
-122
-124
-126
-127
-129
-130
-132
-134
-136
-137
-138
-139
-140
-142
-143
-144
-145
-145
-147
-148
-148
-150
-150
-151
-152
-153
-154
-155
-156
-156
-156
-156
-156
-157
-158
-158
-159
-158
-159
-159
-159
-159
-160
-159
-159
-160
-160
-160
-159
-160
-159
-159
-160
-160
-160
-161
-160
-160
-160
-160
-161
-162
-162
-162
-162
-163
-163
-164
-165
-166
-166
-168
-169
-170
-171
-173
-174
-174
-176
-177
-178
-180
-182
-182
-183
-184
-185
-186
-187
-187
-187
-188
-187
-188
-188
-187
-188
-187
-187
-186
-186
-186
-186
-186
-184
-184
-183
-183
-183
-182
-181
-181
-180
-180
-179
-178
-178
-177
-176
-175
-175
-174
-173
-172
-171
-170
-170
-169
-168
-167
-166
-165
-164
-164
-164
-163
-162
-162
-161
-161
-160
-160
-160
-158
-158
-158
-158
-157
-157
-156
-155
-155
-154
-154
-154
-153
-153
-152
-152
-151
-151
-151
-151
-150
-150
-150
-150
-150
-150
-150
-150
-149
-149
-149
-149
-149
-149
-148
-149
-149
-149
-149
-149
-150
-149
-150
-150
-150
-150
-151
-150
-150
-150
-151
-150
-150
-151
-150
-150
-150
-150
-150
-150
-150
-150
-151
-150
-151
-151
-151
-151
-151
-151
-152
-152
-152
-152
-152
-153
-153
-153
-153
-154
-153
-154
-154
-155
-155
-155
-155
-155
-154
-154
-155
-156
-156
-155
-155
-154
-155
-155
-154
-155
-155
-154
-154
-154
-154
-153
-154
-154
-154
-155
-155
-156
-158
-158
-160
-162
-164
-167
-171
-175
-179
-185
-189
-196
-204
-210
-218
-226
-234
-242
-252
-262
-271
-280
-291
-302
-313
-324
-337
-348
-360
-373
-385
-398
-411
-424
-436
-448
-461
-472
-485
-497
-509
-518
-529
-538
-547
-555
-562
-568
-573
-577
-581
-584
-586
-587
-588
-589
-587
-587
-586
-584
-582
-579
-576
-574
-571
-568
-565
-560
-557
-553
-549
-545
-540
-535
-530
-525
-519
-514
-508
-502
-496
-489
-483
-475
-467
-460
-453
-445
-437
-429
-421
-414
-406
-398
-390
-382
-374
-366
-360
-353
-346
-340
-333
-326
-321
-316
-310
-305
-299
-294
-289
-284
-280
-275
-270
-265
-261
-256
-253
-248
-244
-240
-236
-230
-227
-223
-219
-215
-210
-206
-202
-199
-195
-191
-188
-184
-179
-176
-172
-169
-165
-162
-157
-155
-151
-148
-145
-141
-139
-135
-132
-130
-128
-126
-122
-120
-118
-116
-115
-113
-112
-110
-109
-108
-107
-107
-105
-105
-104
-104
-103
-103
-102
-102
-101
-101
-100
-100
-101
-100
-100
-100
-99
-99
-98
-98
-98
-98
-97
-96
-95
-95
-96
-95
-94
-94
-93
-92
-92
-92
-92
-91
-91
-90
-89
-89
-89
-89
-88
-88
-88
-87
-87
-87
-86
-85
-85
-85
-84
-84
-84
-83
-82
-81
-81
-81
-80
-80
-79
-78
-77
-77
-77
-76
-76
-74
-73
-73
-72
-72
-71
-70
-70
-69
-68
-67
-67
-66
-65
-64
-63
-63
-62
-61
-61
-60
-60
-58
-58
-58
-57
-57
-55
-54
-54
-54
-53
-53
-52
-51
-51
-51
-50
-49
-49
-48
-47
-47
-46
-46
-45
-44
-44
-44
-43
-43
-42
-42
-42
-41
-41
-42
-41
-41
-41
-40
-40
-40
-41
-41
-41
-41
-40
-40
-41
-42
-42
-42
-43
-43
-43
-44
-44
-45
-46
-46
-47
-48
-48
-49
-51
-51
-52
-54
-54
-56
-57
-58
-60
-61
-63
-64
-65
-67
-68
-70
-71
-73
-75
-76
-78
-80
-81
-83
-85
-87
-89
-91
-93
-94
-97
-99
-101
-103
-105
-106
-108
-111
-113
-115
-117
-119
-120
-122
-123
-126
-127
-129
-130
-131
-133
-135
-136
-138
-139
-140
-141
-143
-145
-146
-147
-148
-148
-150
-151
-151
-152
-153
-154
-155
-156
-156
-156
-157
-158
-158
-158
-158
-159
-159
-159
-159
-159
-159
-160
-160
-160
-161
-160
-160
-161
-161
-162
-162
-163
-162
-162
-163
-164
-165
-166
-166
-166
-168
-169
-170
-171
-172
-173
-174
-175
-177
-178
-180
-180
-182
-183
-184
-185
-186
-188
-188
-188
-189
-190
-191
-192
-192
-191
-192
-192
-192
-192
-192
-191
-192
-191
-190
-190
-190
-189
-188
-188
-188
-187
-186
-186
-186
-185
-183
-183
-183
-182
-181
-180
-179
-178
-177
-176
-176
-175
-173
-173
-171
-170
-170
-169
-169
-167
-167
-165
-166
-164
-164
-164
-163
-163
-162
-161
-161
-161
-160
-160
-158
-158
-159
-158
-157
-157
-156
-156
-156
-155
-156
-154
-154
-154
-153
-154
-154
-153
-153
-153
-153
-152
-153
-153
-152
-152
-152
-152
-152
-152
-152
-152
-151
-152
-152
-151
-151
-151
-151
-150
-151
-151
-151
-151
-151
-151
-151
-151
-151
-152
-152
-151
-151
-151
-151
-152
-152
-152
-151
-152
-151
-152
-153
-152
-152
-153
-152
-153
-153
-153
-154
-154
-154
-154
-154
-155
-155
-155
-155
-155
-155
-155
-156
-156
-156
-155
-156
-155
-155
-155
-155
-156
-155
-155
-155
-154
-155
-155
-155
-154
-154
-154
-154
-155
-155
-156
-156
-157
-159
-160
-162
-164
-166
-169
-173
-176
-181
-186
-191
-197
-204
-212
-219
-228
-236
-245
-254
-264
-273
-284
-294
-305
-315
-327
-339
-351
-364
-377
-389
-402
-415
-428
-441
-454
-467
-479
-490
-502
-514
-525
-535
-544
-552
-560
-567
-573
-578
-583
-586
-588
-589
-591
-592
-592
-591
-590
-588
-586
-584
-582
-579
-576
-572
-568
-564
-562
-558
-554
-549
-545
-539
-535
-530
-525
-520
-513
-507
-502
-495
-488
-482
-474
-466
-460
-452
-444
-437
-429
-421
-413
-405
-397
-390
-382
-376
-367
-361
-354
-347
-341
-335
-329
-323
-316
-311
-306
-300
-296
-290
-285
-280
-276
-272
-267
-262
-258
-253
-249
-245
-241
-237
-233
-229
-224
-220
-217
-213
-209
-206
-201
-197
-194
-190
-186
-183
-179
-175
-172
-168
-165
-162
-158
-154
-151
-149
-145
-142
-139
-136
-133
-130
-129
-127
-124
-122
-120
-118
-116
-115
-114
-112
-111
-110
-109
-108
-107
-107
-106
-106
-105
-105
-104
-104
-104
-104
-104
-103
-103
-104
-103
-103
-102
-102
-102
-101
-102
-101
-100
-100
-99
-100
-99
-99
-99
-98
-97
-97
-96
-96
-96
-95
-95
-94
-93
-93
-93
-93
-92
-91
-91
-90
-90
-90
-89
-88
-88
-87
-86
-86
-86
-86
-85
-85
-84
-83
-83
-83
-82
-81
-81
-80
-80
-79
-78
-78
-76
-76
-75
-74
-74
-73
-72
-71
-71
-70
-69
-69
-68
-68
-66
-65
-65
-65
-64
-64
-63
-62
-61
-61
-60
-60
-58
-58
-57
-57
-56
-56
-56
-55
-55
-54
-53
-53
-53
-52
-51
-50
-50
-50
-49
-49
-48
-48
-48
-48
-47
-47
-47
-46
-46
-46
-46
-45
-46
-45
-45
-45
-46
-47
-47
-47
-47
-47
-47
-48
-49
-49
-50
-50
-50
-52
-52
-53
-55
-55
-56
-57
-58
-59
-60
-61
-63
-62
-64
-65
-66
-69
-70
-71
-72
-73
-75
-76
-79
-80
-81
-83
-85
-87
-89
-90
-92
-94
-96
-97
-99
-102
-104
-105
-107
-109
-111
-113
-116
-117
-119
-121
-123
-125
-128
-129
-131
-133
-135
-136
-138
-139
-141
-142
-144
-145
-146
-147
-149
-150
-150
-152
-153
-154
-156
-157
-157
-158
-158
-160
-161
-161
-162
-162
-162
-163
-163
-164
-165
-166
-166
-165
-166
-166
-167
-167
-167
-167
-166
-167
-167
-167
-167
-167
-167
-166
-167
-167
-166
-166
-167
-166
-167
-167
-168
-168
-168
-169
-169
-170
-171
-172
-173
-174
-175
-176
-177
-178
-179
-180
-182
-183
-184
-186
-186
-188
-188
-190
-190
-191
-192
-192
-192
-192
-192
-192
-193
-193
-193
-192
-193
-192
-191
-191
-191
-190
-190
-189
-189
-187
-187
-187
-187
-185
-185
-184
-182
-182
-182
-180
-180
-178
-178
-178
-176
-175
-174
-174
-172
-171
-170
-170
-169
-168
-167
-166
-166
-165
-164
-164
-163
-163
-162
-162
-162
-161
-161
-159
-159
-159
-158
-158
-158
-158
-157
-157
-156
-156
-156
-155
-154
-154
-153
-154
-154
-153
-153
-152
-152
-153
-152
-152
-152
-153
-152
-152
-152
-152
-152
-152
-152
-151
-151
-152
-152
-152
-152
-152
-151
-152
-152
-152
-152
-151
-152
-151
-152
-152
-152
-152
-152
-152
-152
-153
-152
-152
-153
-152
-152
-152
-153
-153
-153
-154
-153
-153
-154
-154
-155
-155
-154
-154
-154
-155
-155
-155
-155
-155
-155
-155
-156
-155
-155
-154
-155
-155
-155
-155
-156
-156
-155
-154
-154
-155
-155
-155
-155
-155
-154
-153
-154
-154
-154
-155
-155
-155
-156
-157
-158
-160
-162
-164
-167
-171
-174
-178
-182
-187
-193
-199
-207
-214
-222
-229
-238
-246
-255
-266
-275
-286
-296
-306
-318
-329
-341
-354
-366
-378
-391
-404
-417
-430
-442
-455
-467
-479
-490
-503
-514
-525
-534
-544
-552
-560
-567
-572
-577
-582
-584
-588
-590
-591
-592
-591
-591
-590
-589
-587
-585
-582
-578
-576
-573
-570
-567
-562
-558
-554
-550
-545
-540
-536
-530
-525
-518
-512
-507
-500
-494
-487
-479
-471
-464
-457
-449
-441
-433
-425
-416
-409
-400
-393
-385
-377
-369
-362
-355
-348
-341
-334
-328
-322
-316
-311
-306
-300
-295
-289
-285
-280
-276
-270
-266
-262
-257
-253
-249
-245
-240
-237
-233
-229
-225
-221
-217
-213
-210
-206
-202
-199
-195
-192
-189
-184
-181
-178
-174
-171
-168
-165
-161
-157
-154
-151
-148
-145
-141
-139
-135
-132
-130
-127
-126
-122
-120
-118
-116
-115
-113
-111
-110
-108
-108
-107
-106
-105
-105
-103
-103
-103
-102
-102
-102
-102
-101
-102
-101
-101
-102
-101
-100
-100
-99
-100
-100
-100
-99
-98
-97
-97
-97
-97
-97
-96
-95
-94
-94
-94
-94
-94
-93
-93
-92
-92
-92
-91
-91
-90
-89
-89
-89
-89
-88
-88
-86
-86
-85
-85
-85
-84
-83
-83
-82
-81
-81
-81
-80
-78
-78
-77
-77
-77
-76
-75
-74
-74
-73
-72
-72
-71
-70
-70
-69
-69
-68
-67
-66
-65
-65
-63
-63
-63
-62
-62
-60
-60
-59
-58
-58
-57
-56
-55
-54
-54
-54
-54
-52
-51
-51
-50
-49
-49
-49
-48
-48
-47
-46
-47
-47
-46
-45
-45
-44
-44
-44
-44
-43
-43
-43
-42
-42
-42
-42
-42
-41
-41
-42
-42
-42
-42
-41
-42
-42
-43
-43
-44
-44
-44
-44
-45
-46
-47
-48
-47
-48
-49
-50
-51
-52
-52
-53
-55
-56
-57
-59
-59
-61
-63
-63
-65
-66
-68
-70
-71
-73
-74
-75
-77
-80
-81
-83
-85
-86
-89
-91
-92
-94
-96
-98
-100
-103
-105
-107
-108
-110
-113
-114
-116
-119
-120
-122
-123
-125
-127
-128
-130
-131
-133
-134
-135
-137
-138
-141
-141
-142
-143
-145
-146
-148
-149
-150
-151
-152
-153
-154
-155
-156
-156
-157
-157
-158
-159
-159
-160
-160
-160
-160
-161
-161
-162
-161
-162
-162
-161
-162
-162
-162
-162
-161
-161
-162
-162
-162
-162
-161
-161
-161
-161
-160
-161
-160
-160
-160
-161
-160
-161
-161
-161
-161
-161
-162
-162
-163
-164
-164
-165
-166
-167
-168
-169
-170
-171
-172
-173
-175
-177
-177
-178
-179
-180
-181
-183
-184
-184
-185
-186
-186
-187
-188
-188
-188
-187
-187
-188
-187
-187
-187
-186
-186
-185
-185
-185
-185
-184
-183
-183
-182
-182
-181
-180
-179
-178
-177
-176
-176
-175
-174
-173
-172
-171
-170
-169
-168
-167
-166
-165
-164
-164
-163
-162
-162
-162
-161
-161
-160
-160
-159
-158
-158
-158
-158
-157
-157
-157
-156
-156
-156
-156
-156
-155
-154
-154
-154
-154
-154
-155
-154
-154
-153
-153
-153
-153
-154
-153
-153
-153
-153
-153
-153
-154
-154
-153
-153
-154
-154
-154
-153
-153
-153
-153
-153
-154
-154
-153
-153
-153
-154
-153
-154
-154
-154
-154
-154
-154
-154
-154
-154
-154
-154
-155
-155
-155
-155
-155
-156
-156
-156
-157
-157
-157
-157
-156
-157
-158
-158
-158
-157
-158
-158
-158
-158
-159
-159
-159
-158
-158
-158
-159
-159
-159
-158
-159
-160
-159
-160
-160
-159
-159
-159
-159
-159
-159
-158
-158
-157
-157
-158
-157
-158
-159
-159
-159
-161
-162
-164
-166
-168
-171
-174
-178
-183
-189
-194
-200
-207
-214
-222
-230
-238
-247
-256
-265
-275
-285
-296
-306
-317
-328
-340
-352
-364
-377
-389
-402
-414
-427
-439
-451
-463
-476
-487
-499
-510
-521
-531
-540
-548
-556
-563
-569
-575
-579
-582
-585
-587
-588
-589
-590
-590
-589
-587
-585
-584
-581
-579
-576
-572
-569
-566
-562
-558
-555
-550
-545
-540
-536
-530
-525
-519
-514
-508
-501
-494
-488
-481
-474
-466
-459
-450
-442
-436
-428
-419
-411
-403
-396
-388
-380
-373
-365
-358
-351
-344
-337
-331
-325
-319
-313
-306
-301
-296
-291
-286
-280
-275
-270
-266
-261
-257
-253
-248
-244
-240
-236
-232
-228
-223
-218
-215
-211
-208
-204
-200
-197
-193
-189
-185
-183
-180
-175
-172
-169
-166
-162
-159
-156
-153
-149
-146
-143
-140
-137
-135
-132
-129
-126
-125
-123
-121
-119
-117
-116
-114
-113
-112
-112
-111
-109
-109
-108
-108
-108
-108
-106
-106
-106
-106
-106
-105
-105
-105
-105
-105
-105
-105
-105
-104
-103
-103
-102
-102
-102
-102
-101
-100
-100
-100
-99
-99
-98
-98
-97
-97
-97
-97
-96
-96
-95
-94
-94
-94
-93
-93
-93
-92
-91
-91
-91
-91
-90
-89
-88
-88
-88
-87
-86
-86
-85
-85
-85
-84
-83
-83
-82
-81
-80
-80
-80
-80
-79
-78
-78
-77
-77
-76
-77
-75
-74
-74
-74
-73
-72
-72
-71
-70
-69
-69
-69
-68
-67
-65
-65
-64
-63
-63
-62
-62
-61
-60
-59
-59
-59
-58
-58
-57
-57
-56
-56
-56
-55
-55
-54
-54
-53
-53
-53
-52
-51
-51
-51
-50
-49
-49
-49
-49
-48
-48
-49
-48
-48
-47
-47
-48
-48
-49
-49
-49
-49
-49
-50
-50
-50
-51
-51
-52
-53
-54
-54
-56
-56
-57
-58
-59
-60
-61
-63
-64
-65
-65
-67
-68
-70
-71
-72
-74
-75
-77
-79
-80
-82
-83
-85
-86
-88
-90
-91
-93
-94
-96
-98
-100
-102
-104
-106
-108
-110
-112
-114
-115
-118
-120
-122
-123
-125
-127
-129
-131
-132
-134
-135
-137
-139
-141
-141
-143
-144
-146
-147
-148
-149
-151
-152
-153
-155
-155
-156
-157
-159
-159
-160
-161
-162
-164
-164
-165
-165
-166
-167
-168
-168
-167
-168
-168
-168
-169
-169
-169
-169
-169
-168
-169
-169
-168
-168
-167
-167
-167
-168
-168
-167
-167
-167
-167
-168
-169
-169
-168
-168
-169
-169
-171
-171
-171
-173
-173
-174
-175
-176
-177
-178
-180
-181
-182
-183
-185
-186
-186
-188
-188
-190
-190
-192
-192
-193
-194
-194
-195
-195
-196
-196
-197
-197
-197
-197
-197
-197
-197
-196
-196
-196
-196
-195
-194
-193
-192
-192
-191
-191
-190
-189
-188
-187
-187
-185
-186
-184
-183
-182
-180
-180
-179
-178
-177
-176
-175
-175
-173
-174
-172
-172
-171
-171
-170
-170
-169
-169
-168
-167
-167
-167
-167
-167
-166
-165
-165
-165
-164
-164
-163
-163
-163
-162
-161
-161
-161
-161
-161
-159
-160
-160
-160
-160
-160
-160
-159
-159
-159
-160
-160
-160
-160
-160
-160
-161
-161
-161
-161
-161
-161
-161
-161
-162
-161
-161
-161
-161
-162
-161
-161
-161
-162
-161
-162
-162
-162
-162
-161
-162
-162
-163
-163
-164
-164
-163
-164
-164
-165
-165
-165
-166
-166
-166
-166
-166
-167
-167
-166
-166
-166
-166
-167
-167
-166
-166
-167
-166
-166
-167
-167
-167
-166
-166
-167
-167
-167
-167
-167
-167
-167
-166
-166
-167
-167
-166
-167
-166
-167
-167
-168
-169
-170
-171
-174
-175
-178
-181
-184
-188
-192
-197
-203
-209
-216
-222
-230
-238
-246
-254
-264
-274
-283
-293
-303
-314
-325
-336
-347
-359
-371
-384
-397
-410
-422
-435
-446
-459
-472
-484
-497
-507
-518
-529
-539
-549
-558
-566
-572
-578
-584
-589
-593
-596
-598
-599
-601
-601
-601
-601
-599
-598
-596
-594
-592
-589
-586
-583
-580
-575
-572
-569
-564
-560
-555
-550
-545
-541
-535
-529
-524
-518
-512
-504
-497
-491
-484
-476
-468
-461
-452
-445
-438
-430
-422
-414
-406
-399
-392
-384
-377
-370
-364
-357
-351
-344
-339
-333
-327
-322
-317
-312
-307
-302
-297
-292
-287
-282
-278
-274
-269
-265
-260
-256
-252
-248
-243
-240
-235
-231
-228
-223
-220
-216
-212
-208
-204
-201
-197
-194
-190
-186
-183
-179
-175
-173
-170
-165
-162
-159
-155
-153
-150
-148
-145
-142
-140
-138
-136
-134
-132
-129
-128
-126
-125
-124
-123
-122
-121
-120
-119
-119
-119
-118
-118
-117
-116
-117
-116
-117
-116
-116
-116
-115
-115
-116
-115
-115
-114
-113
-114
-114
-113
-113
-113
-112
-112
-111
-110
-110
-110
-109
-109
-108
-108
-108
-108
-107
-106
-106
-105
-104
-105
-105
-104
-104
-103
-103
-103
-102
-101
-101
-100
-99
-99
-99
-99
-98
-96
-96
-95
-95
-94
-94
-93
-92
-92
-90
-90
-90
-88
-88
-87
-86
-86
-85
-85
-84
-83
-82
-82
-81
-81
-80
-79
-79
-78
-77
-77
-76
-75
-75
-74
-73
-72
-71
-71
-70
-70
-69
-68
-68
-67
-67
-66
-65
-65
-64
-64
-63
-63
-62
-62
-61
-61
-61
-61
-61
-60
-59
-59
-59
-59
-59
-59
-58
-59
-58
-59
-59
-59
-59
-58
-58
-59
-59
-60
-59
-60
-61
-61
-61
-63
-63
-64
-64
-65
-65
-65
-67
-68
-69
-70
-70
-72
-73
-74
-76
-77
-78
-78
-81
-82
-83
-85
-86
-88
-89
-91
-93
-95
-96
-98
-100
-102
-104
-106
-109
-110
-112
-114
-116
-118
-120
-122
-124
-125
-128
-130
-132
-135
-136
-137
-140
-141
-143
-146
-148
-149
-150
-152
-154
-156
-157
-159
-160
-161
-163
-165
-166
-168
-169
-169
-171
-172
-173
-174
-175
-175
-176
-177
-178
-179
-180
-180
-181
-181
-181
-181
-182
-182
-183
-183
-183
-183
-184
-184
-184
-183
-184
-184
-184
-184
-184
-185
-184
-185
-185
-186
-186
-187
-187
-187
-187
-189
-190
-191
-192
-192
-194
-195
-197
-198
-199
-200
-202
-203
-205
-206
-207
-208
-209
-210
-211
-211
-213
-213
-213
-214
-214
-214
-214
-215
-215
-214
-215
-214
-214
-213
-213
-213
-212
-212
-212
-211
-211
-211
-210
-209
-209
-208
-208
-207
-206
-205
-205
-204
-203
-203
-201
-200
-200
-199
-198
-197
-196
-196
-194
-193
-193
-192
-191
-191
-190
-189
-188
-188
-187
-187
-186
-186
-184
-184
-184
-184
-184
-183
-182
-181
-181
-180
-179
-179
-179
-178
-177
-177
-176
-176
-176
-175
-174
-174
-174
-174
-174
-174
-173
-172
-173
-172
-173
-172
-173
-172
-172
-172
-172
-173
-172
-172
-173
-172
-172
-172
-172
-172
-172
-171
-172
-172
-172
-172
-172
-172
-172
-172
-172
-172
-172
-173
-173
-172
-172
-173
-173
-174
-174
-174
-174
-174
-174
-175
-176
-175
-175
-175
-175
-175
-175
-175
-175
-175
-175
-176
-175
-176
-176
-175
-176
-176
-176
-176
-177
-177
-176
-176
-176
-176
-177
-177
-176
-175
-175
-175
-176
-175
-176
-176
-175
-176
-177
-178
-178
-180
-182
-183
-185
-188
-192
-195
-199
-205
-210
-216
-223
-230
-237
-244
-253
-262
-271
-280
-289
-299
-309
-320
-330
-342
-353
-365
-378
-390
-403
-416
-430
-442
-455
-467
-480
-492
-505
-516
-528
-540
-550
-560
-569
-577
-584
-590
-596
-601
-604
-607
-609
-611
-611
-611
-611
-610
-609
-607
-605
-602
-599
-596
-593
-590
-586
-583
-579
-575
-570
-566
-561
-557
-552
-546
-541
-535
-530
-524
-518
-511
-504
-497
-490
-483
-475
-468
-461
-453
-445
-438
-431
-423
-415
-407
-400
-392
-386
-379
-373
-365
-359
-352
-346
-341
-336
-330
-325
-320
-315
-310
-306
-301
-297
-292
-287
-283
-278
-274
-270
-266
-262
-257
-252
-249
-245
-241
-236
-232
-228
-225
-221
-217
-213
-210
-206
-202
-199
-195
-192
-188
-185
-181
-177
-174
-171
-168
-164
-162
-158
-157
-154
-152
-149
-146
-143
-141
-139
-138
-136
-135
-133
-132
-130
-130
-129
-128
-127
-126
-127
-126
-125
-126
-126
-125
-125
-125
-124
-124
-124
-124
-124
-124
-124
-123
-123
-123
-122
-123
-122
-122
-122
-121
-120
-120
-119
-119
-118
-118
-118
-117
-116
-116
-115
-115
-114
-114
-113
-113
-112
-111
-112
-111
-111
-109
-109
-109
-108
-108
-107
-106
-106
-105
-105
-105
-104
-104
-104
-103
-102
-102
-101
-101
-100
-99
-99
-99
-97
-98
-97
-96
-95
-95
-94
-93
-93
-92
-91
-90
-90
-88
-88
-87
-86
-86
-84
-84
-84
-82
-82
-81
-81
-80
-79
-78
-78
-78
-77
-76
-75
-74
-75
-74
-74
-73
-72
-72
-71
-72
-71
-70
-70
-70
-69
-69
-69
-68
-68
-67
-67
-67
-67
-66
-66
-66
-66
-66
-65
-66
-65
-65
-65
-65
-66
-66
-67
-67
-67
-67
-68
-69
-69
-70
-70
-71
-72
-73
-74
-75
-75
-76
-77
-78
-79
-80
-82
-83
-85
-85
-87
-88
-90
-91
-92
-94
-95
-97
-99
-100
-102
-103
-105
-106
-109
-110
-112
-114
-115
-117
-119
-121
-123
-125
-127
-129
-130
-132
-134
-136
-138
-140
-141
-142
-145
-147
-148
-150
-152
-153
-155
-156
-158
-159
-161
-162
-162
-164
-165
-167
-168
-168
-169
-170
-170
-172
-173
-173
-174
-175
-175
-175
-176
-177
-178
-177
-178
-178
-179
-179
-180
-180
-180
-180
-181
-180
-181
-181
-181
-181
-181
-182
-183
-183
-183
-183
-184
-184
-185
-185
-186
-187
-188
-188
-189
-191
-192
-193
-193
-194
-195
-196
-197
-199
-200
-201
-201
-202
-204
-205
-206
-206
-207
-208
-208
-208
-209
-210
-210
-209
-209
-209
-210
-210
-209
-209
-208
-208
-207
-207
-206
-205
-204
-203
-203
-202
-202
-201
-200
-199
-198
-197
-197
-196
-194
-194
-192
-192
-190
-190
-189
-189
-187
-186
-185
-185
-184
-183
-183
-182
-181
-181
-181
-180
-179
-179
-178
-178
-177
-177
-177
-177
-177
-176
-175
-175
-175
-175
-175
-174
-174
-173
-173
-174
-173
-172
-172
-173
-173
-172
-172
-172
-172
-172
-172
-172
-172
-172
-172
-171
-171
-171
-172
-172
-172
-172
-172
-172
-172
-173
-173
-173
-172
-172
-173
-174
-173
-174
-174
-173
-173
-173
-174
-174
-174
-174
-173
-173
-174
-174
-174
-173
-173
-173
-173
-173
-173
-173
-173
-173
-173
-173
-173
-173
-173
-173
-173
-173
-174
-174
-174
-174
-174
-174
-175
-175
-176
-176
-176
-176
-176
-177
-177
-177
-177
-177
-176
-176
-176
-176
-176
-177
-176
-176
-176
-176
-176
-177
-176
-177
-179
-180
-182
-184
-187
-189
-192
-196
-201
-205
-211
-217
-223
-230
-237
-246
-254
-263
-271
-280
-290
-300
-310
-321
-331
-342
-354
-366
-379
-391
-403
-416
-429
-441
-454
-466
-479
-491
-503
-514
-525
-536
-547
-556
-564
-572
-580
-585
-591
-596
-599
-602
-603
-605
-606
-606
-606
-606
-604
-603
-600
-598
-595
-593
-590
-586
-583
-580
-576
-572
-567
-563
-558
-553
-548
-542
-537
-531
-525
-519
-511
-505
-499
-492
-484
-476
-468
-460
-452
-445
-437
-429
-421
-413
-405
-398
-390
-383
-375
-368
-361
-355
-348
-341
-335
-329
-323
-317
-312
-307
-303
-298
-292
-287
-283
-278
-274
-270
-265
-261
-257
-253
-249
-245
-242
-238
-234
-230
-227
-223
-220
-216
-212
-209
-205
-202
-199
-195
-192
-189
-185
-182
-179
-175
-172
-169
-165
-163
-160
-157
-155
-152
-149
-146
-144
-142
-140
-138
-136
-134
-132
-131
-130
-129
-128
-127
-126
-125
-124
-124
-124
-124
-122
-122
-123
-122
-121
-121
-121
-120
-120
-120
-121
-120
-120
-119
-119
-119
-118
-118
-117
-116
-116
-116
-115
-115
-115
-114
-114
-113
-113
-113
-112
-112
-112
-110
-109
-109
-109
-109
-108
-108
-107
-106
-106
-105
-105
-104
-103
-102
-102
-102
-102
-101
-100
-98
-98
-97
-96
-96
-95
-94
-93
-93
-92
-91
-90
-90
-89
-88
-88
-87
-87
-86
-85
-84
-84
-83
-82
-82
-81
-80
-79
-78
-78
-77
-77
-76
-75
-74
-73
-73
-72
-72
-71
-71
-70
-69
-68
-68
-68
-67
-66
-65
-65
-65
-65
-64
-64
-63
-63
-62
-62
-61
-61
-61
-60
-60
-60
-59
-60
-59
-58
-58
-59
-58
-58
-58
-58
-57
-57
-57
-58
-58
-58
-58
-58
-59
-59
-60
-60
-61
-62
-62
-63
-64
-64
-66
-67
-67
-68
-69
-70
-72
-73
-74
-75
-76
-77
-79
-81
-81
-82
-84
-85
-87
-89
-90
-92
-94
-95
-97
-99
-100
-102
-104
-106
-107
-110
-112
-114
-116
-118
-120
-121
-123
-125
-127
-129
-130
-132
-134
-136
-138
-140
-141
-143
-144
-146
-147
-149
-150
-152
-153
-154
-156
-157
-158
-159
-161
-162
-164
-164
-165
-167
-168
-168
-169
-170
-172
-172
-172
-173
-173
-174
-175
-175
-175
-176
-176
-176
-177
-177
-177
-177
-177
-177
-176
-176
-177
-177
-176
-176
-176
-176
-176
-175
-175
-175
-174
-174
-175
-175
-175
-175
-174
-174
-173
-174
-174
-174
-174
-173
-173
-174
-175
-176
-176
-176
-177
-178
-179
-180
-181
-183
-183
-185
-186
-188
-189
-190
-191
-192
-193
-194
-195
-196
-197
-197
-198
-198
-198
-199
-199
-199
-198
-199
-198
-198
-198
-198
-197
-197
-197
-196
-196
-195
-195
-194
-194
-193
-193
-192
-192
-191
-189
-189
-189
-187
-187
-186
-186
-184
-184
-183
-182
-181
-181
-179
-178
-177
-177
-176
-175
-174
-173
-173
-172
-171
-171
-170
-169
-169
-168
-167
-167
-167
-167
-166
-166
-166
-165
-165
-165
-165
-164
-164
-163
-163
-163
-162
-162
-162
-161
-161
-161
-160
-161
-160
-160
-160
-160
-159
-159
-160
-159
-159
-159
-159
-159
-159
-159
-159
-159
-160
-159
-160
-160
-160
-160
-161
-160
-161
-162
-162
-161
-161
-162
-162
-163
-162
-163
-163
-163
-162
-163
-163
-163
-163
-162
-163
-163
-163
-163
-163
-163
-162
-163
-163
-164
-163
-164
-163
-163
-163
-163
-164
-164
-163
-163
-164
-165
-165
-165
-165
-165
-165
-165
-165
-166
-166
-166
-165
-165
-165
-165
-165
-165
-164
-164
-164
-164
-164
-165
-165
-165
-166
-168
-170
-172
-174
-177
-180
-184
-189
-193
-199
-205
-212
-219
-226
-234
-242
-252
-260
-269
-278
-288
-298
-309
-320
-330
-342
-352
-364
-377
-389
-402
-413
-426
-438
-450
-462
-474
-486
-497
-508
-518
-529
-538
-546
-553
-560
-566
-572
-576
-580
-583
-584
-587
-588
-588
-589
-588
-587
-586
-584
-582
-579
-577
-574
-572
-568
-565
-562
-558
-554
-549
-545
-540
-535
-529
-524
-519
-512
-506
-499
-493
-486
-479
-471
-464
-456
-448
-441
-434
-426
-418
-409
-402
-394
-387
-380
-372
-365
-358
-352
-345
-339
-334
-328
-322
-316
-311
-306
-301
-296
-291
-286
-282
-276
-273
-268
-264
-259
-254
-250
-246
-242
-238
-234
-230
-226
-221
-218
-213
-210
-207
-202
-198
-195
-192
-189
-185
-182
-178
-175
-171
-169
-165
-162
-159
-155
-153
-150
-147
-145
-143
-140
-138
-135
-133
-131
-130
-127
-125
-124
-123
-122
-121
-120
-119
-118
-117
-116
-116
-116
-116
-115
-114
-115
-115
-115
-115
-115
-114
-114
-114
-114
-114
-114
-114
-114
-113
-113
-113
-113
-112
-112
-112
-111
-111
-110
-110
-110
-110
-108
-108
-108
-107
-107
-106
-106
-106
-105
-105
-104
-104
-104
-103
-103
-103
-103
-103
-102
-101
-101
-101
-100
-100
-100
-100
-99
-98
-98
-98
-97
-96
-96
-95
-94
-93
-93
-93
-92
-90
-90
-90
-89
-89
-88
-87
-87
-86
-86
-85
-85
-84
-83
-83
-82
-83
-82
-81
-80
-80
-79
-78
-77
-77
-76
-76
-75
-74
-74
-73
-73
-72
-71
-70
-70
-70
-69
-69
-68
-68
-68
-67
-67
-67
-67
-67
-66
-66
-66
-66
-66
-66
-66
-66
-66
-66
-65
-66
-65
-66
-66
-66
-66
-66
-66
-66
-66
-67
-67
-68
-68
-69
-69
-70
-70
-71
-72
-73
-74
-75
-76
-76
-78
-79
-80
-80
-82
-83
-84
-87
-88
-89
-90
-91
-92
-95
-97
-98
-99
-101
-102
-104
-106
-108
-110
-111
-113
-115
-117
-119
-121
-123
-124
-126
-128
-130
-132
-134
-135
-136
-138
-140
-142
-144
-146
-147
-148
-150
-152
-153
-155
-157
-158
-159
-160
-161
-163
-164
-165
-167
-167
-169
-170
-171
-172
-173
-174
-174
-175
-176
-177
-177
-178
-179
-179
-180
-180
-180
-181
-181
-181
-181
-182
-182
-182
-182
-181
-182
-181
-181
-181
-181
-181
-181
-181
-182
-182
-182
-183
-183
-184
-184
-184
-186
-187
-187
-188
-189
-190
-191
-193
-193
-195
-196
-197
-199
-200
-202
-203
-204
-205
-207
-207
-209
-209
-210
-210
-211
-211
-212
-212
-212
-213
-212
-212
-212
-211
-211
-211
-209
-208
-208
-208
-207
-207
-207
-205
-205
-205
-204
-203
-202
-202
-201
-200
-200
-200
-199
-198
-197
-196
-195
-194
-194
-193
-191
-191
-190
-189
-189
-189
-188
-188
-186
-185
-185
-185
-184
-184
-183
-182
-182
-182
-181
-181
-179
-179
-179
-178
-178
-178
-177
-176
-176
-175
-175
-175
-174
-174
-173
-173
-173
-173
-173
-172
-172
-171
-171
-172
-172
-172
-171
-172
-171
-171
-172
-172
-173
-172
-172
-172
-173
-172
-173
-173
-172
-172
-172
-172
-173
-172
-172
-172
-172
-172
-173
-173
-173
-173
-173
-172
-173
-173
-173
-173
-174
-173
-173
-174
-174
-175
-175
-174
-175
-175
-175
-176
-176
-176
-175
-176
-176
-176
-177
-177
-177
-176
-176
-177
-177
-177
-177
-177
-177
-177
-177
-178
-178
-177
-176
-177
-177
-176
-176
-176
-176
-175
-175
-175
-176
-176
-176
-177
-178
-179
-181
-183
-186
-188
-191
-195
-199
-203
-209
-215
-222
-229
-236
-245
-253
-261
-270
-279
-289
-298
-309
-319
-331
-341
-353
-364
-376
-389
-402
-414
-427
-440
-452
-466
-478
-490
-503
-514
-526
-537
-549
-558
-567
-575
-583
-590
-595
-600
-604
-608
-610
-611
-612
-612
-613
-612
-610
-609
-606
-604
-602
-599
-597
-593
-589
-586
-582
-578
-574
-570
-566
-560
-556
-551
-546
-541
-534
-529
-522
-515
-509
-502
-495
-487
-480
-472
-465
-457
-450
-442
-434
-426
-418
-410
-403
-396
-389
-382
-374
-368
-361
-355
-350
-344
-337
-332
-326
-321
-317
-311
-307
-301
-296
-292
-288
-283
-279
-275
-271
-266
-262
-258
-254
-249
-245
-242
-238
-233
-230
-226
-222
-218
-214
-211
-207
-204
-200
-195
-192
-189
-185
-181
-178
-174
-170
-167
-164
-162
-159
-156
-153
-150
-147
-145
-143
-141
-139
-137
-135
-134
-133
-131
-131
-129
-128
-127
-126
-126
-126
-125
-124
-124
-124
-123
-123
-123
-122
-122
-122
-122
-121
-122
-121
-121
-120
-120
-120
-119
-119
-119
-118
-118
-117
-117
-117
-117
-117
-116
-115
-114
-115
-115
-114
-114
-113
-112
-112
-112
-111
-111
-111
-110
-109
-109
-109
-109
-108
-107
-106
-106
-106
-105
-105
-104
-103
-102
-102
-102
-101
-101
-99
-99
-98
-98
-96
-97
-96
-94
-94
-94
-92
-92
-91
-91
-90
-89
-88
-87
-87
-86
-84
-84
-83
-82
-82
-82
-81
-80
-78
-78
-78
-77
-76
-76
-75
-74
-73
-73
-73
-72
-71
-71
-71
-69
-69
-69
-69
-69
-68
-68
-67
-67
-67
-66
-65
-65
-65
-65
-64
-64
-64
-63
-63
-64
-64
-63
-64
-63
-63
-64
-64
-64
-64
-64
-64
-64
-65
-66
-66
-67
-67
-68
-68
-68
-70
-70
-71
-72
-73
-74
-75
-76
-78
-79
-80
-81
-83
-84
-86
-87
-89
-90
-92
-93
-95
-97
-99
-100
-102
-104
-106
-108
-110
-112
-114
-115
-118
-120
-122
-124
-126
-128
-129
-131
-133
-135
-137
-139
-140
-142
-144
-146
-147
-149
-150
-152
-154
-156
-158
-159
-160
-161
-163
-164
-165
-166
-168
-168
-170
-171
-172
-173
-174
-175
-175
-176
-177
-177
-178
-178
-179
-179
-179
-180
-181
-181
-182
-182
-182
-183
-183
-183
-183
-183
-183
-184
-184
-185
-184
-185
-184
-184
-184
-185
-185
-185
-187
-186
-188
-187
-189
-190
-191
-191
-192
-194
-194
-196
-197
-199
-200
-202
-202
-204
-206
-207
-208
-209
-209
-211
-212
-212
-214
-214
-213
-214
-215
-214
-215
-214
-214
-214
-214
-213
-213
-213
-213
-212
-212
-211
-210
-210
-210
-209
-208
-207
-207
-207
-205
-205
-204
-204
-203
-201
-201
-200
-199
-199
-197
-196
-196
-194
-194
-193
-192
-190
-190
-189
-189
-189
-187
-187
-187
-186
-186
-185
-184
-183
-183
-182
-182
-182
-181
-181
-180
-180
-179
-179
-179
-178
-178
-178
-177
-177
-177
-177
-176
-176
-176
-176
-176
-175
-175
-175
-174
-175
-175
-175
-175
-174
-174
-174
-173
-174
-174
-174
-173
-173
-173
-173
-173
-174
-174
-173
-174
-173
-173
-174
-174
-174
-174
-174
-174
-174
-175
-175
-175
-174
-174
-175
-174
-175
-175
-174
-175
-174
-175
-175
-176
-176
-175
-176
-176
-176
-176
-176
-176
-177
-176
-177
-177
-178
-178
-177
-178
-177
-178
-178
-178
-178
-178
-177
-177
-178
-177
-177
-177
-176
-176
-176
-176
-176
-176
-175
-176
-175
-176
-176
-178
-178
-179
-180
-182
-184
-187
-191
-194
-197
-202
-207
-212
-219
-226
-233
-240
-248
-256
-265
-275
-285
-294
-303
-314
-325
-336
-349
-360
-372
-385
-398
-411
-424
-437
-450
-462
-475
-487
-500
-512
-524
-535
-545
-555
-565
-573
-581
-588
-594
-599
-603
-606
-610
-612
-612
-612
-613
-612
-611
-610
-608
-606
-604
-601
-598
-595
-592
-588
-585
-581
-577
-573
-569
-564
-559
-554
-549
-543
-538
-531
-525
-518
-511
-504
-497
-490
-482
-475
-467
-459
-451
-443
-436
-427
-419
-412
-404
-397
-390
-382
-376
-368
-362
-356
-350
-345
-339
-333
-328
-323
-318
-313
-308
-304
-298
-293
-289
-285
-280
-276
-271
-267
-262
-259
-254
-251
-246
-242
-238
-234
-229
-226
-223
-219
-214
-210
-206
-203
-200
-196
-193
-188
-185
-182
-178
-175
-171
-169
-165
-161
-159
-156
-154
-151
-148
-146
-143
-141
-139
-138
-135
-134
-133
-131
-130
-130
-128
-127
-127
-126
-125
-125
-124
-124
-123
-122
-122
-122
-122
-122
-121
-121
-120
-120
-120
-120
-119
-119
-118
-118
-118
-117
-117
-116
-116
-116
-115
-115
-114
-114
-113
-113
-113
-113
-112
-112
-112
-112
-111
-111
-111
-111
-111
-110
-108
-108
-108
-108
-107
-106
-106
-105
-104
-104
-103
-103
-102
-101
-101
-100
-99
-99
-99
-98
-96
-96
-95
-95
-95
-94
-93
-92
-90
-90
-89
-88
-88
-87
-85
-84
-84
-83
-83
-82
-80
-79
-78
-77
-77
-76
-75
-74
-73
-73
-71
-71
-71
-70
-68
-68
-68
-67
-67
-66
-65
-64
-64
-63
-63
-63
-63
-61
-61
-60
-60
-61
-61
-60
-59
-59
-59
-59
-58
-58
-58
-58
-57
-58
-58
-58
-58
-57
-57
-58
-58
-58
-58
-58
-58
-59
-59
-60
-61
-61
-61
-62
-63
-64
-65
-65
-66
-67
-68
-69
-70
-71
-73
-74
-75
-75
-77
-78
-80
-81
-82
-84
-85
-86
-89
-90
-92
-93
-95
-96
-99
-100
-102
-104
-106
-108
-109
-112
-113
-115
-116
-118
-121
-123
-125
-127
-129
-129
-131
-134
-135
-137
-139
-141
-142
-144
-146
-148
-150
-151
-152
-152
-153
-155
-156
-158
-158
-159
-161
-161
-163
-164
-164
-165
-166
-166
-167
-168
-168
-169
-169
-170
-170
-170
-171
-171
-172
-171
-171
-172
-172
-172
-172
-173
-172
-172
-173
-172
-173
-172
-172
-172
-173
-173
-173
-174
-174
-173
-173
-175
-174
-175
-176
-177
-177
-179
-179
-180
-181
-182
-183
-184
-185
-186
-188
-190
-190
-191
-192
-193
-194
-195
-196
-197
-198
-198
-198
-199
-200
-200
-199
-199
-199
-199
-199
-199
-199
-198
-198
-198
-197
-197
-196
-196
-195
-194
-194
-193
-193
-192
-192
-190
-190
-189
-189
-188
-187
-186
-185
-184
-183
-182
-181
-180
-179
-179
-178
-177
-176
-175
-175
-174
-173
-172
-172
-171
-171
-171
-170
-170
-170
-169
-169
-168
-167
-167
-167
-166
-166
-166
-165
-164
-164
-164
-164
-163
-163
-162
-162
-162
-162
-162
-162
-161
-161
-161
-161
-161
-161
-161
-161
-161
-160
-161
-161
-160
-161
-160
-161
-161
-162
-161
-161
-161
-161
-161
-162
-162
-162
-162
-162
-162
-162
-162
-163
-162
-162
-163
-163
-163
-163
-163
-163
-163
-164
-164
-164
-164
-164
-164
-164
-165
-165
-164
-165
-164
-165
-165
-165
-165
-166
-165
-166
-166
-166
-166
-166
-167
-167
-167
-166
-167
-167
-167
-167
-168
-167
-167
-167
-167
-167
-167
-166
-166
-166
-166
-165
-166
-166
-167
-167
-167
-168
-169
-171
-172
-174
-177
-179
-183
-187
-192
-197
-202
-208
-215
-222
-229
-238
-245
-254
-263
-273
-282
-292
-303
-312
-323
-335
-346
-358
-370
-383
-396
-407
-420
-433
-445
-457
-469
-481
-493
-505
-515
-527
-536
-545
-554
-562
-569
-575
-580
-586
-589
-591
-594
-596
-597
-597
-597
-595
-594
-593
-591
-588
-586
-583
-580
-576
-573
-570
-567
-562
-558
-554
-549
-545
-540
-535
-529
-523
-517
-511
-504
-498
-491
-484
-477
-468
-461
-453
-445
-438
-429
-421
-413
-405
-397
-390
-382
-375
-367
-360
-353
-347
-341
-334
-328
-322
-316
-311
-306
-302
-296
-291
-286
-282
-278
-272
-268
-263
-258
-254
-250
-246
-242
-238
-233
-229
-225
-221
-218
-214
-210
-206
-203
-200
-196
-192
-189
-186
-183
-180
-177
-174
-171
-167
-164
-162
-159
-156
-154
-150
-148
-146
-143
-141
-139
-137
-135
-132
-131
-129
-128
-126
-125
-124
-123
-121
-121
-119
-119
-119
-118
-117
-116
-116
-116
-116
-115
-114
-114
-113
-114
-113
-113
-113
-113
-112
-112
-113
-112
-112
-111
-112
-111
-111
-111
-110
-110
-110
-110
-109
-110
-109
-109
-109
-109
-108
-109
-109
-108
-108
-107
-107
-106
-106
-106
-106
-105
-105
-104
-103
-103
-102
-102
-101
-100
-99
-99
-98
-98
-97
-96
-95
-95
-94
-94
-94
-93
-92
-91
-91
-90
-89
-89
-89
-87
-87
-87
-86
-85
-84
-84
-83
-82
-82
-82
-81
-80
-79
-78
-77
-77
-77
-76
-76
-75
-74
-74
-73
-73
-73
-72
-71
-70
-70
-69
-69
-69
-68
-68
-67
-67
-67
-66
-66
-66
-65
-65
-65
-65
-65
-64
-64
-64
-64
-64
-64
-64
-63
-64
-64
-63
-64
-64
-64
-63
-63
-64
-64
-64
-65
-65
-66
-66
-67
-68
-68
-69
-70
-71
-71
-72
-74
-74
-75
-76
-78
-79
-80
-81
-82
-83
-85
-86
-87
-89
-91
-92
-93
-95
-97
-99
-101
-104
-104
-106
-108
-110
-112
-114
-116
-118
-120
-121
-124
-126
-128
-129
-130
-132
-134
-136
-138
-139
-141
-142
-144
-145
-148
-149
-151
-152
-154
-155
-156
-158
-160
-161
-162
-163
-164
-165
-167
-168
-168
-170
-170
-171
-172
-174
-174
-174
-175
-175
-176
-177
-177
-177
-178
-178
-178
-179
-178
-178
-178
-178
-177
-177
-177
-178
-177
-177
-177
-177
-177
-177
-177
-177
-177
-176
-177
-177
-178
-178
-179
-179
-179
-180
-181
-181
-182
-183
-183
-185
-186
-187
-189
-189
-191
-191
-192
-194
-194
-196
-197
-198
-199
-200
-201
-202
-203
-203
-204
-204
-205
-205
-206
-206
-206
-205
-205
-206
-205
-205
-204
-204
-203
-203
-202
-202
-201
-201
-199
-198
-198
-198
-197
-196
-195
-195
-194
-194
-193
-193
-191
-191
-190
-189
-188
-188
-187
-186
-185
-184
-184
-183
-182
-182
-181
-180
-179
-180
-178
-178
-177
-177
-176
-176
-175
-175
-175
-174
-173
-173
-172
-172
-171
-171
-171
-169
-170
-169
-169
-169
-169
-167
-168
-167
-167
-167
-167
-167
-166
-166
-166
-167
-166
-167
-166
-166
-166
-167
-167
-167
-167
-166
-167
-167
-167
-167
-167
-167
-167
-167
-167
-167
-167
-167
-167
-167
-167
-167
-168
-168
-168
-168
-168
-168
-168
-168
-168
-168
-168
-168
-168
-169
-169
-169
-169
-169
-168
-169
-169
-170
-169
-169
-169
-169
-170
-169
-170
-169
-169
-169
-170
-170
-171
-171
-170
-170
-170
-170
-171
-171
-170
-170
-169
-169
-170
-169
-169
-169
-169
-168
-169
-169
-170
-171
-171
-172
-174
-175
-178
-181
-183
-187
-191
-195
-201
-207
-214
-221
-228
-235
-243
-253
-261
-271
-279
-289
-299
-310
-320
-332
-343
-355
-366
-378
-390
-403
-415
-427
-439
-452
-464
-476
-488
-499
-509
-520
-531
-540
-549
-557
-564
-570
-576
-581
-584
-588
-590
-593
-594
-594
-595
-594
-593
-592
-590
-588
-586
-584
-581
-578
-575
-571
-568
-563
-560
-556
-552
-547
-541
-536
-531
-525
-520
-513
-507
-500
-493
-486
-479
-473
-465
-457
-450
-442
-435
-427
-420
-411
-404
-397
-389
-382
-375
-368
-361
-355
-348
-342
-336
-331
-325
-320
-314
-310
-304
-300
-295
-290
-285
-281
-277
-272
-268
-264
-260
-255
-251
-247
-244
-240
-235
-231
-227
-223
-219
-216
-212
-207
-204
-200
-197
-193
-189
-186
-182
-178
-175
-172
-169
-166
-163
-160
-157
-154
-152
-150
-148
-145
-143
-141
-139
-138
-136
-135
-133
-132
-131
-130
-129
-128
-127
-127
-126
-125
-125
-125
-124
-123
-123
-123
-123
-123
-123
-123
-122
-123
-122
-122
-122
