# Simple Text Format
# Sampling Rate (Hz):= 1200.00
# Resolution:= 12
# Labels:= ECG	 V6
# Age:=	45
# Gender:=	Masculino
-120
-120
-121
-122
-122
-123
-122
-122
-122
-122
-123
-123
-123
-123
-122
-123
-123
-124
-123
-124
-123
-122
-124
-124
-124
-125
-124
-124
-124
-125
-125
-126
-126
-126
-126
-126
-126
-127
-127
-127
-126
-126
-126
-127
-127
-127
-127
-127
-126
-126
-127
-127
-127
-127
-127
-127
-127
-128
-128
-129
-128
-129
-128
-130
-131
-132
-131
-132
-133
-133
-134
-135
-136
-136
-136
-136
-137
-137
-137
-135
-133
-132
-129
-127
-125
-122
-117
-112
-107
-101
-95
-88
-81
-72
-63
-54
-46
-36
-25
-15
-4
5
15
24
32
41
50
57
64
71
75
79
83
85
87
86
84
80
77
72
66
59
50
41
31
20
10
-1
-12
-23
-35
-47
-58
-69
-80
-90
-101
-110
-119
-128
-135
-142
-148
-154
-160
-165
-168
-172
-176
-178
-182
-184
-186
-187
-188
-190
-191
-192
-191
-192
-190
-190
-189
-189
-187
-186
-183
-181
-178
-176
-174
-172
-168
-164
-161
-158
-155
-152
-149
-145
-142
-138
-135
-133
-131
-128
-125
-123
-120
-119
-118
-117
-115
-114
-112
-112
-112
-111
-111
-109
-108
-107
-107
-107
-108
-107
-106
-106
-105
-104
-104
-105
-104
-103
-102
-102
-103
-103
-101
-101
-100
-99
-99
-100
-100
-100
-99
-98
-98
-97
-97
-98
-98
-96
-96
-96
-96
-95
-95
-95
-93
-93
-93
-93
-94
-93
-93
-91
-91
-91
-91
-92
-91
-91
-89
-90
-90
-90
-90
-89
-89
-89
-89
-89
-89
-88
-88
-87
-87
-87
-87
-87
-87
-85
-85
-85
-84
-84
-84
-83
-82
-81
-81
-81
-80
-80
-79
-78
-78
-77
-77
-77
-77
-75
-75
-74
-74
-73
-73
-71
-70
-69
-69
-69
-68
-67
-66
-65
-64
-63
-63
-63
-62
-61
-60
-59
-59
-59
-58
-58
-56
-55
-55
-55
-54
-54
-53
-51
-50
-51
-50
-49
-49
-48
-46
-46
-46
-45
-44
-42
-41
-40
-40
-38
-38
-37
-36
-35
-34
-33
-33
-33
-32
-32
-30
-30
-30
-29
-29
-28
-27
-27
-27
-27
-27
-26
-26
-25
-24
-24
-25
-24
-24
-23
-22
-22
-22
-23
-22
-22
-22
-21
-21
-22
-22
-22
-21
-21
-21
-22
-22
-22
-23
-22
-22
-23
-23
-24
-24
-24
-24
-24
-24
-25
-26
-26
-26
-26
-26
-27
-28
-29
-29
-29
-30
-30
-31
-33
-34
-34
-34
-35
-35
-38
-39
-39
-40
-42
-42
-44
-46
-47
-48
-48
-49
-50
-52
-53
-54
-54
-55
-56
-57
-57
-59
-59
-60
-60
-61
-62
-63
-64
-64
-64
-65
-66
-67
-68
-69
-69
-69
-68
-70
-71
-72
-72
-72
-72
-72
-73
-74
-74
-75
-74
-74
-74
-76
-76
-76
-76
-75
-74
-74
-76
-76
-75
-75
-75
-74
-75
-75
-75
-74
-74
-74
-73
-74
-74
-74
-74
-73
-72
-72
-73
-73
-73
-72
-70
-71
-70
-71
-71
-71
-70
-69
-69
-70
-70
-70
-70
-69
-69
-69
-70
-70
-70
-70
-70
-70
-71
-72
-72
-72
-72
-72
-72
-72
-73
-73
-72
-71
-71
-71
-71
-71
-71
-71
-69
-69
-70
-70
-70
-69
-69
-69
-68
-68
-68
-68
-67
-67
-67
-66
-67
-67
-66
-65
-64
-64
-63
-64
-63
-62
-62
-60
-60
-60
-60
-59
-58
-57
-56
-56
-56
-56
-56
-56
-55
-55
-55
-55
-56
-56
-56
-55
-56
-56
-56
-57
-57
-56
-57
-57
-57
-58
-58
-58
-58
-58
-59
-60
-61
-61
-61
-60
-62
-62
-63
-63
-63
-63
-64
-64
-65
-65
-65
-65
-65
-65
-65
-66
-66
-66
-66
-66
-66
-67
-67
-67
-67
-66
-67
-67
-68
-69
-68
-68
-68
-67
-67
-68
-67
-68
-66
-66
-66
-66
-66
-65
-65
-64
-64
-64
-63
-64
-64
-62
-62
-62
-62
-62
-62
-62
-60
-59
-60
-59
-59
-59
-57
-57
-56
-55
-56
-56
-55
-54
-53
-53
-53
-53
-52
-52
-51
-51
-51
-52
-52
-51
-51
-49
-50
-50
-50
-50
-49
-47
-47
-47
-47
-47
-47
-46
-44
-44
-43
-42
-42
-42
-41
-40
-38
-39
-39
-39
-38
-37
-37
-37
-37
-37
-38
-37
-36
-36
-37
-38
-38
-39
-39
-38
-39
-39
-40
-41
-41
-40
-40
-41
-42
-43
-43
-44
-44
-44
-44
-46
-47
-46
-46
-46
-46
-47
-47
-48
-48
-47
-47
-47
-47
-48
-48
-48
-47
-47
-47
-48
-49
-49
-48
-49
-49
-49
-51
-51
-52
-51
-52
-52
-53
-54
-55
-55
-55
-55
-57
-57
-58
-58
-58
-58
-58
-58
-59
-59
-59
-59
-59
-59
-59
-59
-60
-60
-60
-60
-60
-61
-61
-61
-61
-62
-61
-62
-63
-64
-63
-64
-64
-64
-64
-64
-65
-65
-65
-64
-64
-65
-66
-64
-64
-64
-63
-63
-64
-64
-63
-64
-63
-63
-64
-64
-65
-65
-64
-65
-66
-66
-68
-67
-68
-67
-68
-68
-69
-71
-69
-69
-68
-67
-66
-64
-62
-59
-56
-51
-48
-44
-39
-33
-25
-18
-11
-3
5
13
22
32
42
50
59
66
75
83
90
97
103
109
113
116
120
122
123
122
119
116
112
108
102
95
87
77
67
57
47
37
25
13
2
-9
-20
-30
-40
-50
-59
-69
-77
-82
-88
-95
-101
-107
-112
-115
-118
-121
-125
-128
-131
-133
-135
-136
-137
-139
-140
-142
-142
-141
-141
-141
-141
-140
-138
-136
-133
-130
-129
-126
-124
-120
-117
-112
-109
-106
-103
-99
-96
-92
-89
-85
-82
-80
-77
-74
-72
-69
-67
-65
-64
-61
-59
-57
-56
-55
-53
-52
-51
-49
-49
-48
-48
-47
-47
-46
-45
-44
-45
-45
-45
-46
-45
-44
-44
-45
-45
-45
-45
-45
-45
-45
-45
-46
-46
-46
-46
-46
-46
-47
-47
-47
-47
-46
-45
-46
-46
-46
-45
-44
-44
-43
-42
-42
-42
-41
-40
-38
-38
-38
-37
-36
-35
-33
-33
-32
-32
-32
-31
-30
-30
-29
-29
-29
-29
-29
-29
-28
-29
-30
-30
-30
-29
-29
-28
-29
-29
-29
-29
-27
-26
-26
-26
-25
-24
-23
-21
-21
-19
-19
-18
-17
-17
-15
-14
-14
-14
-14
-14
-13
-12
-12
-13
-13
-14
-14
-14
-14
-14
-15
-15
-14
-14
-13
-11
-11
-11
-10
-9
-7
-7
-6
-5
-4
-3
-2
-1
1
2
2
3
3
5
6
6
7
7
8
8
9
10
11
11
11
11
12
13
15
14
15
15
16
17
19
21
21
21
22
23
25
25
26
26
26
27
28
30
30
30
30
30
30
32
33
33
33
34
33
33
35
35
35
35
35
35
35
35
34
35
34
32
32
32
32
31
30
29
28
26
26
25
24
22
21
20
19
19
18
17
15
14
14
13
13
12
11
9
8
8
8
7
7
5
4
2
2
1
-1
-3
-4
-7
-9
-10
-10
-12
-15
-16
-20
-20
-22
-22
-24
-25
-27
-29
-29
-30
-30
-31
-32
-33
-33
-34
-34
-34
-35
-37
-38
-38
-38
-39
-39
-41
-42
-43
-43
-43
-42
-44
-45
-45
-45
-45
-44
-45
-44
-46
-46
-46
-45
-45
-45
-45
-46
-47
-47
-48
-48
-49
-50
-51
-51
-52
-54
-54
-55
-55
-57
-57
-58
-58
-58
-59
-59
-60
-60
-60
-60
-60
-61
-61
-60
-60
-59
-58
-59
-59
-58
-58
-57
-58
-58
-57
-58
-57
-57
-57
-58
-57
-57
-58
-59
-58
-58
-57
-59
-59
-60
-60
-59
-59
-60
-61
-61
-62
-62
-61
-61
-60
-61
-60
-60
-59
-58
-57
-57
-58
-57
-57
-56
-55
-56
-56
-56
-57
-58
-57
-57
-58
-59
-61
-61
-61
-60
-61
-62
-63
-63
-63
-63
-62
-63
-63
-63
-63
-62
-62
-61
-61
-60
-61
-59
-58
-57
-56
-56
-56
-56
-55
-54
-54
-53
-53
-54
-55
-55
-54
-54
-55
-56
-56
-57
-56
-56
-56
-58
-59
-60
-60
-60
-60
-60
-61
-61
-61
-61
-60
-60
-60
-61
-60
-60
-59
-59
-59
-59
-59
-60
-59
-59
-59
-59
-60
-61
-62
-61
-61
-62
-62
-62
-63
-62
-62
-61
-62
-62
-61
-62
-61
-61
-60
-59
-59
-58
-59
-57
-57
-56
-55
-55
-55
-55
-54
-53
-53
-54
-54
-54
-54
-54
-54
-54
-55
-55
-56
-56
-56
-56
-56
-56
-57
-56
-55
-55
-54
-54
-54
-52
-52
-50
-49
-49
-48
-48
-47
-46
-45
-44
-43
-44
-44
-43
-43
-42
-42
-42
-43
-43
-43
-43
-43
-44
-44
-45
-47
-47
-46
-47
-48
-49
-50
-50
-50
-50
-50
-50
-51
-51
-51
-50
-50
-50
-51
-51
-52
-52
-52
-52
-53
-54
-56
-56
-56
-56
-57
-58
-59
-60
-60
-61
-61
-61
-62
-61
-62
-62
-61
-60
-61
-61
-61
-61
-61
-60
-61
-62
-63
-64
-65
-65
-67
-67
-68
-70
-71
-72
-72
-73
-74
-75
-76
-76
-76
-75
-76
-76
-76
-76
-76
-76
-75
-75
-75
-75
-76
-75
-75
-74
-74
-75
-76
-76
-75
-75
-74
-75
-76
-76
-77
-76
-76
-76
-77
-77
-78
-78
-78
-78
-77
-77
-77
-77
-77
-76
-76
-76
-77
-78
-78
-77
-77
-77
-77
-78
-79
-80
-80
-81
-83
-85
-86
-89
-90
-91
-92
-94
-96
-98
-98
-98
-98
-98
-97
-96
-94
-91
-88
-84
-79
-74
-68
-61
-52
-43
-34
-25
-14
-4
7
19
30
42
51
62
72
81
92
100
108
113
119
124
128
130
131
130
127
123
118
111
103
94
83
70
58
46
34
21
7
-6
-21
-33
-46
-58
-69
-81
-92
-102
-110
-117
-124
-130
-137
-141
-146
-149
-152
-154
-157
-160
-163
-164
-165
-166
-166
-168
-168
-169
-169
-169
-167
-167
-166
-164
-162
-160
-157
-154
-151
-149
-146
-142
-138
-134
-131
-127
-124
-121
-117
-113
-109
-107
-105
-103
-101
-99
-97
-95
-94
-94
-92
-90
-88
-86
-85
-84
-83
-83
-81
-79
-77
-77
-75
-74
-72
-70
-68
-66
-64
-64
-63
-60
-58
-57
-57
-56
-56
-56
-55
-55
-54
-53
-54
-54
-54
-54
-54
-54
-55
-55
-55
-55
-55
-56
-56
-55
-55
-56
-55
-55
-55
-55
-55
-54
-55
-54
-54
-53
-53
-53
-53
-51
-50
-49
-47
-47
-46
-45
-44
-43
-42
-40
-40
-40
-39
-37
-37
-36
-36
-37
-37
-35
-34
-34
-33
-32
-32
-32
-31
-31
-30
-30
-31
-31
-30
-30
-30
-30
-29
-31
-31
-31
-30
-30
-30
-30
-31
-32
-31
-30
-29
-28
-29
-28
-28
-26
-24
-23
-22
-21
-20
-18
-16
-15
-14
-13
-11
-11
-10
-8
-6
-6
-5
-5
-4
-3
-1
1
1
2
3
5
6
8
9
10
11
12
14
15
16
17
18
19
20
20
21
22
22
22
21
22
22
23
22
22
22
22
23
23
23
25
25
25
26
27
29
30
31
32
33
34
36
37
38
37
38
38
38
38
38
37
36
35
34
33
33
32
31
30
28
28
28
28
27
27
26
26
26
26
26
26
26
24
24
24
23
23
22
21
20
19
19
19
17
15
14
13
11
11
10
8
6
4
3
2
1
0
-1
-4
-6
-6
-7
-8
-9
-11
-12
-14
-15
-15
-17
-18
-19
-21
-23
-23
-24
-25
-26
-29
-29
-31
-32
-32
-33
-35
-37
-38
-39
-39
-41
-41
-42
-44
-45
-45
-45
-45
-46
-46
-46
-46
-46
-46
-45
-46
-47
-47
-47
-46
-47
-47
-48
-49
-50
-50
-50
-51
-52
-52
-54
-53
-53
-53
-53
-54
-54
-55
-54
-53
-53
-53
-53
-53
-53
-52
-51
-51
-51
-51
-51
-51
-51
-51
-51
-51
-53
-53
-53
-54
-54
-54
-55
-56
-57
-57
-57
-57
-58
-58
-59
-59
-59
-60
-60
-60
-60
-61
-61
-60
-61
-61
-61
-61
-62
-61
-61
-61
-61
-60
-60
-59
-60
-58
-57
-57
-57
-57
-56
-56
-54
-55
-55
-55
-55
-54
-55
-54
-55
-55
-55
-55
-55
-55
-55
-56
-56
-56
-56
-56
-56
-56
-55
-55
-55
-54
-54
-53
-53
-53
-53
-53
-52
-52
-52
-52
-52
-54
-53
-54
-53
-53
-54
-55
-54
-55
-56
-56
-56
-56
-57
-57
-57
-57
-58
-57
-58
-58
-58
-57
-58
-58
-57
-57
-57
-56
-57
-56
-55
-56
-55
-55
-56
-54
-55
-55
-55
-54
-54
-54
-54
-55
-55
-54
-55
-54
-55
-56
-55
-57
-57
-57
-56
-56
-57
-56
-57
-57
-56
-56
-56
-56
-55
-55
-54
-52
-52
-50
-50
-50
-49
-49
-47
-46
-45
-45
-45
-45
-44
-43
-44
-43
-43
-44
-45
-45
-44
-44
-45
-45
-44
-44
-45
-44
-44
-45
-45
-45
-45
-44
-43
-43
-43
-44
-44
-43
-42
-41
-41
-41
-40
-40
-38
-37
-37
-36
-36
-36
-34
-33
-33
-32
-33
-33
-32
-33
-33
-32
-33
-33
-33
-33
-35
-35
-35
-36
-37
-38
-38
-39
-39
-40
-40
-40
-41
-41
-41
-41
-41
-42
-42
-42
-42
-41
-42
-41
-43
-42
-43
-42
-42
-43
-43
-44
-43
-43
-43
-44
-44
-45
-45
-45
-45
-45
-45
-46
-47
-48
-48
-47
-48
-49
-50
-51
-51
-52
-52
-52
-52
-54
-55
-55
-55
-55
-56
-57
-57
-58
-58
-57
-58
-58
-59
-59
-59
-59
-59
-59
-60
-60
-61
-60
-59
-58
-59
-58
-58
-59
-58
-57
-56
-55
-56
-56
-55
-55
-55
-54
-54
-55
-55
-54
-54
-54
-53
-53
-55
-55
-55
-56
-56
-56
-58
-59
-60
-60
-61
-62
-63
-64
-66
-67
-68
-68
-70
-71
-73
-74
-75
-75
-76
-76
-76
-76
-77
-75
-73
-71
-69
-67
-64
-61
-55
-50
-45
-39
-33
-25
-18
-9
1
11
22
32
43
55
67
77
89
99
109
119
129
138
146
152
157
160
164
166
167
166
162
158
152
145
138
128
118
106
94
82
70
57
45
31
16
3
-9
-21
-33
-43
-55
-64
-74
-81
-88
-94
-100
-106
-110
-114
-117
-120
-123
-125
-128
-129
-131
-131
-132
-133
-134
-135
-135
-135
-134
-134
-134
-133
-133
-132
-130
-128
-126
-124
-123
-121
-118
-115
-111
-109
-106
-102
-99
-96
-91
-87
-84
-81
-78
-74
-70
-67
-63
-60
-58
-55
-53
-50
-47
-45
-44
-44
-43
-41
-39
-39
-38
-38
-38
-36
-36
-36
-34
-35
-36
-35
-35
-34
-34
-34
-34
-35
-35
-35
-34
-34
-34
-34
-33
-34
-32
-31
-31
-30
-30
-29
-28
-28
-26
-26
-26
-26
-26
-25
-24
-24
-24
-24
-25
-25
-24
-23
-24
-24
-26
-25
-25
-25
-25
-25
-25
-26
-25
-26
-24
-25
-24
-25
-25
-25
-24
-22
-22
-22
-22
-21
-21
-19
-19
-19
-18
-18
-17
-16
-14
-14
-13
-13
-12
-11
-11
-9
-8
-8
-8
-7
-7
-6
-5
-5
-5
-5
-4
-3
-2
-2
-1
-1
-1
0
1
2
2
3
3
4
4
6
7
7
8
8
9
10
11
13
13
13
14
16
17
19
20
20
21
21
22
23
25
25
26
26
28
28
30
31
32
32
32
34
35
37
38
38
38
39
41
42
44
44
45
45
46
47
48
49
49
50
49
50
51
52
52
52
52
51
52
52
52
52
51
51
50
51
51
51
50
50
49
49
50
50
50
49
48
48
48
48
48
48
46
46
45
45
45
45
43
43
41
41
41
41
41
39
38
37
36
35
35
33
33
31
30
29
29
27
26
24
23
22
21
20
19
17
16
14
14
14
13
12
10
9
8
8
7
6
6
4
3
3
3
2
1
1
-1
-3
-2
-2
-4
-5
-6
-7
-8
-9
-9
-9
-10
-11
-12
-11
-12
-12
-12
-13
-14
-14
-15
-14
-15
-15
-17
-18
-19
-18
-18
-19
-20
-20
-21
-21
-21
-21
-22
-22
-24
-23
-24
-24
-23
-23
-23
-24
-25
-24
-24
-23
-24
-24
-24
-24
-23
-23
-22
-23
-23
-23
-23
-22
-21
-22
-22
-23
-22
-22
-21
-20
-21
-21
-21
-21
-20
-20
-19
-20
-20
-20
-20
-18
-18
-18
-18
-18
-18
-18
-17
-17
-17
-18
-17
-17
-16
-16
-16
-16
-17
-17
-16
-15
-16
-16
-16
-16
-16
-16
-16
-16
-16
-17
-18
-17
-17
-17
-17
-18
-18
-18
-19
-18
-18
-18
-18
-18
-19
-18
-18
-17
-17
-17
-18
-18
-17
-16
-17
-16
-18
-17
-16
-17
-16
-16
-17
-17
-18
-18
-18
-17
-18
-18
-19
-18
-17
-17
-16
-17
-17
-17
-17
-16
-15
-15
-16
-16
-15
-15
-14
-15
-15
-15
-15
-14
-14
-13
-13
-14
-14
-14
-13
-13
-13
-12
-14
-14
-14
-13
-13
-13
-14
-14
-14
-15
-14
-14
-14
-15
-15
-16
-15
-14
-14
-14
-14
-15
-14
-13
-13
-12
-13
-13
-13
-12
-12
-11
-11
-11
-11
-11
-11
-9
-9
-9
-9
-9
-9
-8
-7
-7
-7
-6
-7
-5
-5
-4
-4
-4
-4
-3
-2
-2
-2
-1
-1
-2
-1
-1
0
0
0
0
0
0
2
2
3
3
3
3
4
5
6
6
6
7
6
7
7
9
8
8
8
9
9
10
10
10
9
9
9
10
10
9
8
8
8
8
8
7
7
6
5
6
5
6
5
5
5
5
5
4
5
5
4
4
4
4
6
5
5
5
5
4
5
5
5
4
4
2
2
3
2
2
0
-1
-2
-3
-2
-3
-4
-4
-5
-5
-4
-5
-5
-6
-6
-7
-7
-7
-7
-7
-8
-8
-8
-8
-9
-8
-9
-9
-10
-11
-10
-10
-10
-11
-11
-11
-11
-10
-10
-10
-10
-11
-10
-10
-9
-9
-9
-9
-10
-9
-9
-9
-8
-9
-10
-9
-10
-9
-9
-10
-10
-10
-11
-10
-10
-9
-10
-10
-11
-11
-11
-11
-11
-13
-13
-15
-16
-16
-16
-17
-19
-20
-21
-22
-22
-23
-24
-25
-26
-25
-24
-23
-21
-20
-19
-17
-13
-9
-5
-1
4
9
15
22
30
38
47
55
65
74
85
95
106
117
126
135
145
154
163
171
178
185
191
195
201
203
204
204
204
202
199
195
189
181
173
164
155
145
135
124
111
99
87
75
64
51
39
28
17
7
-2
-9
-19
-26
-34
-40
-45
-49
-53
-58
-60
-64
-67
-69
-70
-71
-73
-75
-75
-76
-75
-75
-74
-74
-74
-74
-72
-71
-68
-66
-66
-64
-61
-58
-54
-52
-49
-46
-44
-40
-37
-33
-30
-27
-24
-22
-19
-15
-13
-11
-9
-7
-5
-3
-1
0
1
1
3
3
5
7
7
8
8
7
9
10
10
11
10
10
10
11
11
12
11
10
11
11
12
13
13
13
13
13
13
14
15
15
16
16
16
17
18
18
19
18
18
19
20
21
21
20
20
21
21
22
22
23
23
22
22
23
24
25
25
25
25
26
26
27
28
28
28
27
28
28
30
30
29
29
30
29
31
30
31
30
30
31
32
33
34
33
33
34
34
35
37
37
37
38
38
39
40
40
41
41
42
42
43
44
45
45
44
45
46
48
48
50
50
50
50
52
52
54
54
55
55
57
58
60
59
60
60
61
63
64
64
65
65
66
66
67
68
69
70
70
70
71
72
74
75
76
76
76
77
79
80
80
81
81
81
82
83
83
83
84
83
84
85
86
86
87
86
86
87
88
89
89
89
89
89
90
91
92
92
92
91
92
93
94
93
93
93
92
93
94
94
93
93
92
92
92
92
92
91
90
90
90
91
90
90
89
88
87
87
86
86
86
84
84
82
82
82
81
79
78
77
76
76
76
74
74
71
70
70
70
69
68
66
65
64
63
63
63
61
60
58
58
58
57
56
55
54
52
52
51
51
50
48
48
47
46
46
46
44
42
42
42
41
42
41
41
39
39
39
39
39
39
38
37
37
37
37
37
36
35
35
34
34
35
35
34
32
32
32
33
32
32
31
31
30
30
31
31
31
30
30
30
31
31
31
31
31
32
31
32
33
33
33
33
33
33
34
34
33
33
32
33
34
34
34
34
33
33
33
33
33
32
32
32
31
31
31
31
30
30
30
29
30
31
30
30
29
29
29
30
30
30
30
29
29
30
30
30
29
29
29
30
30
31
31
31
32
31
31
33
33
33
33
32
33
33
34
34
34
34
33
33
33
35
34
33
33
32
32
33
32
33
32
31
32
31
33
32
32
32
32
33
33
34
34
34
34
34
34
35
35
35
35
35
35
36
36
37
36
36
36
36
36
37
36
36
35
35
35
36
36
35
35
34
35
34
34
35
34
34
33
34
34
35
35
35
35
34
35
35
35
35
34
34
34
34
35
35
35
34
35
34
35
36
36
35
35
35
36
36
37
38
38
38
37
38
39
40
40
40
40
40
41
42
42
42
42
43
43
44
45
44
44
44
44
45
45
46
45
46
45
46
47
47
47
47
47
47
48
49
49
50
50
50
50
52
52
53
53
53
54
54
55
56
56
55
55
55
56
56
56
56
56
55
55
55
55
54
54
54
53
54
54
55
54
54
54
53
53
54
54
54
53
53
53
53
54
54
53
52
51
52
52
53
52
52
51
51
51
52
52
52
51
50
50
50
50
50
50
50
49
50
50
50
50
49
49
48
48
48
48
47
46
45
44
44
43
43
42
40
40
40
39
39
39
38
37
36
37
37
36
36
35
35
34
34
34
35
33
33
32
33
32
32
32
32
30
31
31
30
31
30
30
30
29
29
30
30
29
28
28
28
29
28
28
27
25
25
24
25
23
22
21
19
18
17
17
16
14
13
13
12
12
12
11
11
10
10
9
10
12
12
13
14
17
19
22
26
29
33
37
42
49
55
61
67
75
82
91
101
109
118
128
135
145
153
161
169
177
182
188
194
199
203
207
207
207
207
205
203
200
193
187
179
170
162
153
142
131
120
109
97
87
75
64
52
42
30
22
13
5
-2
-10
-18
-23
-27
-31
-36
-40
-43
-46
-48
-49
-51
-52
-54
-55
-56
-56
-56
-56
-56
-55
-56
-55
-54
-52
-50
-49
-48
-46
-43
-40
-37
-34
-32
-29
-26
-22
-19
-15
-12
-9
-5
-2
1
5
8
10
13
15
18
21
23
25
26
27
29
30
32
33
34
33
34
34
34
35
35
35
35
35
36
36
36
36
37
36
36
36
37
38
37
37
37
37
37
38
38
38
38
38
38
38
38
38
38
37
37
37
38
38
38
38
37
37
38
39
39
39
39
40
40
41
43
43
44
44
44
45
47
48
49
49
49
49
50
51
52
52
51
52
52
52
53
53
52
51
51
51
51
51
51
50
50
50
50
51
51
51
51
51
53
54
55
56
57
57
58
59
61
63
63
64
64
64
65
67
68
68
68
68
69
70
71
71
71
71
72
72
73
74
74
74
74
74
76
76
77
77
78
78
79
80
81
82
82
82
84
85
87
88
89
90
91
91
93
95
96
97
97
99
100
101
102
103
103
103
103
105
106
106
106
106
105
106
106
107
106
106
106
105
106
107
107
107
107
106
107
108
108
109
109
108
108
108
108
109
110
109
108
108
109
110
109
108
108
107
106
106
105
105
104
103
102
101
100
99
99
98
96
96
96
96
95
95
94
93
92
92
91
91
90
88
87
86
85
84
84
82
80
79
77
77
76
74
72
70
69
68
68
67
66
64
64
62
62
60
60
59
57
56
55
55
55
53
51
50
49
48
47
46
46
44
42
42
41
41
41
39
38
37
37
37
37
36
36
36
35
35
36
35
34
34
33
33
33
34
34
32
31
31
32
32
33
32
31
31
31
31
32
32
32
31
31
31
32
33
33
33
33
32
33
34
35
35
34
34
33
34
34
33
33
32
31
30
30
30
29
28
27
25
25
25
25
25
24
23
23
23
23
23
23
23
24
24
24
26
27
26
26
27
28
29
30
31
30
29
30
30
31
31
30
30
30
29
30
30
30
29
28
27
28
28
28
29
29
28
29
28
30
30
30
30
29
29
29
30
29
29
28
28
28
27
27
27
26
26
25
25
25
26
26
25
25
25
26
27
28
28
28
28
29
31
31
33
33
32
33
33
34
34
34
32
32
32
32
32
31
29
29
28
27
27
27
26
25
25
23
23
24
24
24
24
23
24
24
24
25
25
24
24
24
25
26
25
25
24
24
24
25
25
25
25
25
25
25
26
26
26
26
25
26
28
28
28
29
28
29
30
30
31
31
31
31
32
33
33
34
34
34
36
37
38
39
40
40
39
40
41
42
43
42
42
41
42
41
42
42
41
40
40
41
41
41
41
41
40
39
40
42
43
43
43
43
43
44
46
46
45
46
45
46
47
47
47
46
45
45
45
45
45
45
44
44
44
43
44
43
43
42
41
41
42
42
42
41
40
40
40
41
41
40
39
39
38
39
39
40
39
39
38
38
39
39
39
38
37
36
37
36
35
35
33
32
31
30
29
28
27
26
25
25
24
24
23
22
21
20
20
20
21
21
19
19
19
20
20
20
19
19
19
19
21
21
21
21
21
21
22
22
23
23
22
22
22
21
22
22
21
21
20
20
20
20
20
19
18
17
18
18
18
18
17
16
17
16
17
17
17
16
15
16
15
16
15
14
13
11
10
11
9
8
7
5
4
3
2
1
0
-1
-2
-1
-1
0
1
2
3
5
8
11
16
19
23
28
33
39
46
53
61
68
76
85
95
104
113
121
130
138
147
154
162
170
175
180
184
189
193
194
195
195
193
191
188
183
177
170
161
151
142
132
122
111
98
86
75
63
52
41
30
19
10
0
-8
-15
-22
-28
-34
-38
-41
-45
-47
-50
-53
-55
-57
-58
-60
-60
-62
-64
-64
-64
-64
-63
-63
-64
-64
-63
-63
-62
-60
-59
-58
-56
-55
-51
-49
-45
-43
-41
-38
-34
-30
-26
-23
-20
-16
-14
-9
-6
-3
1
2
5
8
11
14
16
18
18
21
22
25
27
27
28
28
29
30
32
32
32
33
33
34
35
35
36
36
36
37
37
38
38
39
39
39
39
40
41
41
42
42
42
42
41
43
43
43
42
42
43
43
44
44
44
44
43
44
44
45
45
45
45
45
46
46
46
46
46
45
46
47
48
49
48
48
48
48
49
50
50
50
51
51
52
52
53
54
53
54
55
56
56
58
57
58
58
59
61
61
61
61
61
62
62
63
63
64
63
63
63
65
65
65
64
64
64
64
66
67
67
67
67
67
68
70
71
71
72
72
73
75
76
77
78
79
80
82
84
85
86
87
88
88
90
91
92
93
93
93
94
95
96
96
97
97
97
98
99
99
100
100
101
102
102
104
105
106
106
107
108
109
110
111
111
111
111
112
113
114
114
114
113
114
115
116
116
115
115
114
115
115
115
115
115
114
113
114
114
113
113
112
112
111
110
110
109
108
107
107
106
105
105
104
103
102
101
100
100
99
99
97
96
96
96
96
95
94
94
93
92
92
92
92
90
89
88
88
87
87
85
85
83
82
81
80
78
76
75
73
71
71
70
69
67
65
64
63
63
61
60
58
57
56
55
55
54
53
51
50
50
49
48
48
47
45
44
44
43
42
41
41
40
39
39
39
38
37
36
36
35
36
36
35
34
34
34
34
34
34
34
34
33
33
33
34
34
34
34
33
34
35
36
36
36
36
36
37
38
38
38
38
38
38
38
38
38
38
37
36
36
36
36
36
35
33
34
33
33
32
32
31
30
31
30
30
31
30
30
30
30
31
31
31
32
31
31
32
32
33
33
33
32
33
33
34
34
35
35
34
35
36
36
37
38
38
38
39
39
40
40
40
39
40
40
41
41
41
40
40
40
41
41
41
40
39
39
39
39
40
39
39
38
38
38
39
39
38
38
37
38
39
39
39
40
38
39
40
41
42
42
42
41
42
43
43
44
43
43
43
44
44
44
45
44
43
42
43
43
42
42
41
40
40
40
41
41
40
40
40
41
41
42
42
43
42
43
43
44
44
44
44
44
44
44
44
45
44
43
43
43
44
44
43
43
42
42
43
42
43
43
42
42
42
42
42
43
42
42
42
42
44
44
44
44
43
43
44
45
45
46
46
46
47
48
48
50
49
50
50
51
52
53
54
54
54
54
55
57
57
58
58
58
58
59
60
60
61
60
61
62
62
63
63
63
63
63
63
64
64
64
63
63
62
63
64
64
62
62
61
61
62
61
61
60
60
60
60
60
60
60
59
60
59
60
60
60
60
60
60
60
60
61
60
59
59
59
59
59
59
59
58
57
57
57
57
57
56
56
56
55
56
56
56
55
55
54
54
55
55
54
53
53
52
53
52
52
51
49
48
47
47
46
46
45
43
42
42
42
41
41
39
38
37
37
37
37
36
35
34
34
34
33
33
33
32
32
32
32
33
32
32
32
32
33
34
34
35
35
36
36
38
39
40
40
40
41
41
43
43
43
44
44
44
45
46
45
44
44
42
43
42
40
39
37
35
33
32
30
29
26
25
22
20
19
18
17
16
14
14
15
16
18
20
22
25
28
32
37
43
47
53
59
67
75
84
94
103
112
123
133
144
155
165
174
183
192
201
210
217
223
229
233
236
239
241
242
240
237
233
229
223
216
208
199
189
178
168
157
146
135
122
110
98
87
76
65
55
44
35
27
20
14
6
0
-5
-10
-13
-17
-19
-23
-26
-28
-30
-32
-33
-33
-35
-36
-37
-37
-36
-35
-35
-34
-34
-34
-31
-29
-28
-25
-23
-21
-18
-15
-12
-9
-6
-3
0
4
8
11
15
17
20
22
25
28
32
34
35
37
38
40
42
43
44
45
46
47
49
49
50
51
51
51
52
52
53
54
53
53
53
54
56
55
55
55
56
56
56
58
57
58
58
58
59
60
60
61
61
61
61
63
63
64
65
65
66
66
67
68
68
69
68
68
69
69
70
70
69
69
69
70
70
69
69
69
68
69
69
69
69
69
69
68
69
70
71
71
71
71
71
72
73
74
74
74
74
75
77
77
78
78
78
78
79
80
80
80
81
81
82
83
83
84
84
84
86
86
88
89
90
90
91
91
92
94
95
96
96
96
97
98
100
100
100
101
101
101
103
103
104
104
104
104
105
105
106
106
107
107
107
108
110
111
111
112
112
113
116
116
117
118
119
120
122
124
124
125
126
126
127
128
129
130
130
130
130
131
131
133
133
132
132
132
133
133
133
133
134
133
133
133
134
134
133
133
133
132
134
133
133
132
133
132
132
132
132
131
131
131
129
130
130
130
129
129
128
129
129
129
129
129
127
127
126
126
126
125
124
123
123
122
121
120
119
117
116
116
115
114
113
111
110
110
109
108
107
107
105
104
103
103
103
102
102
100
99
99
99
99
97
97
96
94
93
93
92
90
88
86
85
85
83
83
81
79
77
77
76
76
74
74
73
72
72
72
71
71
70
69
69
69
69
68
68
68
67
66
67
67
67
65
65
64
64
64
65
64
63
63
63
63
64
64
63
63
62
63
63
64
64
64
64
63
64
64
64
64
64
64
64
63
64
64
64
63
63
63
64
64
64
64
64
63
64
64
65
65
64
64
64
64
65
65
65
65
65
65
66
66
67
67
67
67
68
68
69
69
69
69
69
70
71
72
71
71
71
71
72
73
72
72
71
70
70
71
70
70
68
67
66
66
66
66
65
64
63
64
64
64
64
63
63
63
63
63
64
64
64
64
64
65
65
65
66
66
65
66
66
66
67
65
65
64
65
64
64
64
63
63
62
63
63
63
62
62
63
62
63
65
65
65
65
65
66
68
68
70
69
69
70
71
72
72
72
72
72
72
73
74
74
73
73
72
72
73
73
72
72
71
71
70
71
71
70
69
69
70
70
71
70
70
70
70
70
71
72
72
72
72
73
74
74
75
75
75
75
76
77
78
78
78
77
78
78
79
79
79
78
78
78
79
79
79
79
79
79
79
80
81
81
81
81
81
82
83
83
84
83
83
83
84
84
84
84
84
83
84
84
84
84
83
82
82
82
82
82
82
81
81
81
81
81
81
81
80
80
80
81
81
82
81
81
81
81
81
81
81
80
79
79
79
79
79
79
78
77
78
78
78
77
77
76
76
76
77
77
77
76
76
75
75
75
75
75
73
73
73
72
72
71
70
69
68
67
67
67
65
63
63
62
62
61
61
60
59
59
58
59
59
59
59
58
58
58
58
59
59
59
58
58
59
60
59
60
60
60
60
61
62
62
61
61
61
62
63
64
64
63
63
64
64
64
64
64
62
62
62
61
62
60
58
57
56
55
54
54
52
50
48
47
46
45
44
43
42
41
42
44
45
47
49
51
53
57
62
67
73
77
85
92
100
109
119
129
138
149
160
170
181
192
201
210
219
228
236
244
249
254
257
261
263
264
263
261
257
253
247
240
233
224
214
204
193
182
170
159
147
134
122
111
99
89
78
68
58
48
41
34
28
22
17
11
7
4
1
-1
-5
-7
-9
-10
-11
-12
-12
-12
-13
-14
-14
-12
-12
-11
-10
-9
-8
-7
-5
-2
0
2
4
7
9
12
15
18
20
24
26
30
34
37
40
41
44
46
50
52
54
56
57
59
61
63
64
65
66
66
67
69
70
70
70
70
71
70
71
72
71
71
71
71
71
72
72
71
71
70
71
73
73
74
73
73
74
74
75
76
76
76
77
77
78
79
79
79
79
79
79
80
81
80
80
80
80
79
80
80
79
79
79
79
80
80
81
80
80
81
82
83
84
85
85
86
86
88
88
90
90
91
91
91
93
93
94
93
93
94
94
95
95
96
95
95
95
96
96
97
97
97
97
98
98
100
100
101
101
100
101
102
104
104
104
104
104
105
106
107
107
107
107
108
109
110
110
111
111
111
112
113
115
116
116
116
117
119
119
121
122
122
122
123
123
125
126
126
127
128
129
130
131
132
132
133
133
135
136
136
136
137
137
137
139
139
140
140
140
141
142
142
144
144
144
144
145
145
146
146
147
146
145
145
146
146
147
147
147
146
147
147
147
148
147
147
147
147
147
147
148
147
147
146
146
147
146
146
146
145
145
145
145
145
143
142
142
141
140
140
140
138
137
135
135
134
133
132
131
129
129
127
126
125
124
122
121
120
119
118
116
115
113
112
111
110
109
107
106
105
105
103
103
101
99
97
97
97
96
96
94
94
92
92
91
91
91
91
89
89
89
89
88
88
87
86
86
86
86
86
85
84
84
83
82
81
81
79
79
78
78
77
77
77
75
75
73
74
73
73
72
72
71
71
72
72
71
72
70
71
70
71
72
72
71
71
70
70
72
71
71
71
71
71
71
72
72
71
71
71
70
72
72
72
71
70
70
70
71
71
71
70
70
70
69
70
70
70
70
69
70
70
70
70
69
69
70
69
71
71
71
70
70
70
71
70
71
71
70
69
69
71
70
70
70
69
68
68
68
69
69
68
68
68
69
69
70
70
70
70
71
72
73
74
74
75
75
76
76
77
78
78
78
78
79
79
79
78
78
77
77
77
77
77
76
75
74
74
74
75
75
73
72
72
73
73
74
73
73
74
75
75
76
76
76
76
76
77
77
78
78
77
76
76
77
77
77
77
75
76
76
76
76
76
76
76
75
75
75
76
76
75
75
74
75
75
75
75
74
74
74
75
75
75
75
74
75
74
75
76
76
76
76
76
76
78
78
78
79
79
80
81
82
83
84
84
85
85
87
88
89
89
89
90
91
91
92
92
92
92
93
93
94
94
94
93
93
93
94
93
94
92
93
92
92
92
92
92
91
90
90
90
90
91
90
89
89
90
89
90
90
90
89
89
89
90
90
89
89
89
89
89
89
89
89
87
87
87
86
86
86
85
84
84
84
84
84
83
82
83
82
83
83
83
82
82
81
82
82
82
82
81
80
79
79
79
79
77
76
76
75
75
75
74
73
72
71
70
70
70
69
69
68
68
68
68
68
67
67
66
67
68
68
69
69
68
69
68
69
70
70
69
69
69
69
70
69
69
68
67
67
67
67
67
66
65
65
64
64
64
63
62
61
60
60
59
59
59
57
57
56
55
55
55
53
53
52
52
52
52
51
50
49
49
49
50
50
51
51
52
54
58
61
64
67
70
74
78
84
91
97
104
111
120
129
138
147
156
165
175
185
194
203
211
220
226
232
239
245
249
252
254
253
254
251
249
244
239
232
225
216
207
198
187
176
163
151
141
128
117
105
94
82
71
62
53
44
36
28
21
16
11
7
3
-1
-5
-7
-9
-11
-12
-13
-14
-15
-16
-16
-14
-14
-15
-14
-13
-11
-10
-8
-5
-3
-2
0
3
6
9
12
16
18
22
25
29
32
36
38
42
45
49
53
55
57
60
61
63
66
68
70
71
71
73
73
75
76
76
76
76
77
78
78
78
78
78
77
77
77
77
77
76
76
75
76
76
77
76
75
75
76
76
76
77
76
75
76
76
76
78
78
77
77
77
78
79
80
80
80
80
81
82
83
83
84
84
85
86
87
87
88
88
87
88
89
89
90
89
89
90
91
91
91
92
91
91
92
93
93
94
95
95
95
96
96
98
98
99
99
98
99
101
101
101
102
102
101
101
102
103
103
102
101
101
102
102
102
102
102
101
102
103
103
104
104
104
105
106
106
107
109
109
109
110
111
113
114
115
115
116
117
118
120
121
121
122
123
123
125
126
127
127
128
129
129
131
132
132
132
132
133
135
136
137
136
137
138
138
140
140
141
141
141
142
143
144
144
145
145
145
145
147
148
148
149
148
148
149
149
149
150
149
150
149
150
150
151
151
150
150
150
151
151
151
151
150
150
150
150
151
150
150
149
149
149
149
149
148
148
147
146
146
146
144
144
142
141
140
140
139
138
136
136
135
134
134
132
131
129
128
128
128
127
126
125
123
122
122
122
121
120
119
117
116
115
115
114
112
111
110
109
108
108
107
105
104
102
102
101
101
99
97
96
95
94
94
93
92
91
90
90
89
89
89
88
87
86
87
87
86
86
85
84
85
84
85
84
84
84
83
83
83
83
83
82
82
81
80
82
81
80
80
79
79
79
80
79
79
79
78
79
79
80
80
80
79
79
79
80
80
80
80
80
79
80
80
79
79
78
78
79
79
79
79
78
78
77
78
78
79
79
78
78
78
78
79
79
79
78
79
79
80
80
80
80
80
79
80
80
81
81
80
80
80
80
81
80
79
79
78
79
79
79
79
78
78
78
78
78
79
78
78
78
77
78
78
78
78
78
77
77
78
79
79
78
77
77
77
78
78
78
77
78
78
78
79
79
78
78
78
79
80
80
80
81
80
80
80
81
81
81
80
81
80
81
81
82
81
81
80
81
81
81
81
80
80
80
80
80
80
80
80
79
79
79
79
79
78
78
78
78
78
78
79
79
77
78
78
79
79
79
79
79
79
80
81
82
81
82
82
82
84
85
85
85
84
85
85
87
88
87
87
87
87
87
89
89
88
88
88
89
89
90
90
89
89
89
90
90
91
90
90
90
91
90
92
92
92
92
92
92
93
94
94
94
94
94
95
95
96
96
96
96
95
95
96
96
96
96
96
96
97
98
97
97
96
97
96
97
97
97
96
95
94
94
95
94
93
93
92
91
91
91
90
89
89
88
88
88
87
87
87
86
86
86
86
86
86
85
85
85
86
86
87
86
86
85
85
85
85
85
84
84
82
83
83
82
81
80
80
79
78
79
78
76
75
75
75
74
74
73
73
71
71
71
71
70
70
70
69
68
70
70
69
69
68
68
68
69
69
69
68
67
67
68
68
67
68
68
67
68
68
68
69
68
68
68
67
69
68
69
68
67
66
66
66
67
66
65
63
63
63
62
60
60
58
58
57
57
56
56
55
55
55
56
57
59
59
62
64
67
71
75
79
83
88
93
100
108
115
123
130
139
146
156
165
174
182
190
198
206
215
222
228
234
238
242
247
249
251
250
250
248
245
241
236
231
224
215
206
198
189
179
169
157
146
136
124
114
104
94
84
74
66
57
50
43
37
30
25
20
17
14
11
7
4
2
1
0
-2
-3
-3
-4
-4
-4
-3
-3
-3
-2
-1
1
3
5
6
8
10
12
15
18
21
24
26
29
32
36
39
41
45
47
49
52
54
57
59
61
61
63
65
66
68
68
69
70
70
71
72
72
72
72
72
73
74
74
74
74
73
74
74
74
75
75
75
75
75
76
76
77
76
77
76
77
78
78
79
78
79
78
79
79
80
80
80
79
79
79
80
79
80
78
79
78
79
80
80
79
79
79
80
81
81
81
81
81
81
82
83
83
83
84
84
85
86
86
87
87
87
88
88
89
90
91
90
90
91
92
92
93
93
93
92
93
94
95
94
95
94
95
95
95
96
95
96
96
96
96
97
98
98
98
98
99
101
102
102
103
104
104
105
107
108
109
109
110
110
111
113
114
114
114
114
115
116
118
117
118
118
118
119
119
121
121
121
121
121
123
123
124
124
125
124
125
126
128
127
128
128
128
129
130
130
131
131
131
131
132
133
133
133
133
134
134
135
136
136
135
135
135
136
137
137
137
136
136
136
136
137
137
137
136
135
136
136
137
137
136
135
135
135
135
136
135
135
133
133
134
133
133
133
131
131
131
130
130
129
128
126
126
125
125
124
123
121
121
119
118
118
117
115
114
114
112
112
111
111
110
109
107
108
107
107
105
105
104
103
102
102
102
101
100
98
99
99
98
97
97
95
94
94
93
92
91
89
89
87
87
86
85
84
83
81
81
81
81
80
78
78
77
77
77
76
76
76
75
74
75
75
75
74
74
73
74
74
74
75
74
74
73
74
74
74
74
74
74
74
74
75
75
75
75
74
74
75
75
75
74
74
73
74
74
74
73
73
73
72
73
73
73
72
72
72
73
73
74
74
73
73
73
73
74
74
74
74
73
73
73
73
74
73
73
72
73
73
74
74
74
73
73
73
74
74
74
74
73
74
73
74
75
74
73
73
73
74
74
74
73
73
72
73
73
73
73
73
73
72
72
72
73
72
72
72
72
72
73
73
73
72
72
71
72
73
72
71
71
72
71
73
72
72
72
72
72
73
73
74
74
73
74
74
75
75
75
75
75
75
76
75
75
75
75
74
75
74
76
75
74
74
74
74
74
75
74
75
74
73
74
75
75
75
75
75
75
76
76
76
76
75
75
76
77
76
77
76
77
76
76
77
76
77
76
77
77
78
78
79
79
79
79
80
81
81
82
81
81
82
83
83
84
84
84
84
85
85
86
87
86
85
85
86
86
87
87
87
87
86
87
88
88
88
88
88
89
89
90
90
90
89
89
90
90
91
90
90
90
90
90
90
90
90
89
88
89
90
90
90
89
89
88
88
89
89
88
88
87
87
87
87
87
86
86
85
85
86
86
85
85
84
84
84
85
85
84
83
83
83
83
83
83
82
81
82
81
81
82
82
81
81
80
79
80
80
79
78
78
76
77
77
76
75
75
74
74
74
74
73
72
72
71
70
71
70
70
69
69
68
69
69
68
69
67
68
67
68
68
68
67
67
67
67
67
67
67
67
66
66
66
66
66
65
65
65
64
65
66
65
65
64
64
65
66
65
65
64
64
64
64
64
63
63
62
62
62
61
61
60
59
58
58
57
58
58
59
58
59
61
63
67
69
72
76
80
85
91
97
103
110
117
125
132
142
151
159
168
176
185
192
201
209
216
222
228
232
238
242
245
246
247
246
245
243
240
234
229
222
214
206
197
189
179
167
157
147
136
126
115
105
94
83
74
65
57
49
41
33
27
21
17
12
7
3
0
-2
-5
-6
-8
-10
-11
-12
-12
-11
-11
-11
-10
-10
-9
-8
-6
-3
-2
0
2
4
7
10
12
16
17
20
23
26
30
33
35
38
40
42
45
49
50
52
54
55
58
59
60
61
62
62
63
65
65
66
66
66
66
66
68
68
68
68
67
68
68
69
69
69
69
69
70
71
72
72
72
72
72
72
73
73
74
73
74
74
74
75
75
75
75
75
75
75
76
76
76
74
75
75
75
76
75
75
76
76
77
77
77
77
77
77
78
79
79
79
79
79
79
79
80
80
80
81
80
81
81
82
83
82
82
83
83
84
85
85
85
86
86
86
88
89
88
89
88
90
90
90
91
91
91
91
90
90
91
91
90
90
89
90
90
91
90
90
90
91
92
93
94
94
94
95
96
98
98
99
100
100
100
102
103
104
104
104
105
106
107
107
108
109
109
108
109
110
112
112
113
112
113
114
115
116
115
116
116
116
118
118
119
118
118
118
119
119
120
120
118
118
119
119
119
120
119
119
119
119
120
121
121
121
120
119
120
120
121
121
121
119
120
119
120
120
120
119
118
118
118
118
118
117
116
116
115
115
115
115
113
112
112
112
112
112
111
110
109
109
109
109
110
108
107
107
106
106
106
104
102
101
100
99
98
96
94
91
90
88
87
85
83
82
79
78
76
75
74
74
72
70
69
68
69
68
67
66
66
65
65
65
64
64
63
61
61
61
60
59
57
56
55
54
54
53
50
49
48
47
46
45
44
43
41
40
39
38
38
37
36
35
34
34
34
33
34
33
33
33
33
35
35
34
34
34
35
35
35
35
34
34
32
32
33
32
32
30
30
29
30
30
30
30
28
29
29
29
29
30
30
29
28
29
30
29
29
29
27
28
29
28
28
28
26
26
26
25
25
24
24
24
23
23
24
23
23
22
22
22
23
23
24
23
22
22
23
23
24
24
23
22
22
22
22
22
21
21
20
19
19
21
20
20
19
19
20
20
20
20
20
20
19
19
19
20
19
19
18
18
19
19
19
17
16
16
16
16
15
15
14
13
12
12
12
13
12
11
10
11
11
12
12
12
11
11
12
13
13
13
12
12
12
13
14
13
14
13
13
13
13
14
13
13
12
11
11
10
11
10
9
7
7
7
7
7
6
5
5
5
6
6
6
6
6
7
8
8
10
10
11
11
11
12
14
15
15
15
15
16
16
17
16
16
16
14
14
14
14
12
11
10
9
8
8
7
7
5
4
4
4
4
5
4
4
4
4
5
6
6
7
8
8
9
11
11
12
13
13
14
15
17
17
18
17
17
17
17
17
17
17
15
15
14
14
13
12
11
9
8
8
8
7
6
4
2
3
2
2
2
0
-1
-2
-1
-2
-2
-3
-4
-4
-5
-5
-5
-6
-6
-8
-9
-9
-9
-9
-10
-11
-12
-13
-13
-13
-13
-14
-15
-15
-15
-15
-16
-15
-16
-17
-18
-18
-19
-18
-20
-21
-22
-23
-23
-23
-24
-25
-27
-28
-28
-28
-29
-29
-30
-31
-32
-32
-32
-32
-32
-33
-34
-35
-34
-34
-35
-34
-35
-36
-36
-35
-35
-35
-35
-36
-36
-37
-35
-35
-35
-36
-36
-35
-36
-35
-35
-35
-36
-36
-36
-36
-35
-36
-36
-38
-39
-38
-39
-40
-40
-42
-43
-44
-44
-45
-45
-46
-48
-48
-48
-48
-47
-46
-46
-44
-43
-41
-37
-34
-30
-26
-22
-17
-11
-4
2
8
15
22
30
37
45
52
59
64
71
76
82
87
91
95
98
100
102
104
105
104
102
100
96
93
88
82
75
67
58
51
43
34
24
14
4
-6
-14
-24
-33
-42
-50
-58
-66
-72
-77
-82
-87
-92
-95
-98
-100
-103
-104
-107
-109
-111
-112
-114
-115
-117
-119
-121
-121
-122
-122
-123
-123
-124
-124
-123
-123
-121
-121
-120
-120
-119
-116
-114
-111
-110
-107
-105
-101
-100
-96
-93
-90
-88
-85
-81
-78
-75
-72
-69
-66
-64
-61
-59
-56
-54
-53
-53
-51
-49
-48
-47
-47
-47
-48
-47
-47
-46
-47
-47
-48
-47
-48
-47
-48
-47
-48
-48
-48
-48
-47
-47
-47
-47
-48
-47
-47
-47
-47
-47
-47
-48
-47
-47
-47
-48
-47
-48
-46
-46
-44
-44
-43
-44
-43
-42
-40
-39
-38
-38
-37
-37
-36
-35
-34
-34
-34
-34
-34
-33
-33
-33
-33
-34
-35
-35
-35
-34
-35
-36
-37
-36
-37
-36
-36
-37
-37
-38
-37
-37
-36
-37
-37
-37
-37
-37
-36
-36
-35
-35
-35
-36
-35
-35
-35
-34
-35
-36
-34
-33
-32
-32
-31
-31
-30
-28
-27
-27
-25
-25
-24
-23
-22
-21
-19
-19
-19
-19
-18
-16
-16
-15
-16
-16
-16
-15
-13
-13
-12
-11
-11
-11
-10
-9
-7
-7
-6
-5
-4
-3
-1
0
0
0
1
2
2
2
3
3
3
3
4
5
6
6
6
6
7
8
8
10
9
9
9
10
11
12
12
12
11
12
13
13
13
13
13
13
13
14
16
16
16
17
17
18
18
19
19
19
19
19
19
19
18
18
17
16
15
14
13
12
11
9
8
6
6
5
4
2
0
-2
-3
-4
-5
-5
-7
-8
-10
-10
-10
-12
-13
-15
-17
-18
-19
-20
-23
-24
-27
-29
-29
-31
-33
-35
-36
-39
-40
-41
-43
-44
-46
-48
-50
-51
-51
-52
-54
-55
-56
-57
-58
-59
-59
-60
-62
-63
-63
-63
-63
-64
-65
-65
-67
-67
-68
-69
-70
-70
-71
-73
-74
-74
-75
-77
-78
-79
-79
-80
-80
-81
-82
-84
-84
-84
-84
-84
-84
-83
-84
-84
-83
-83
-82
-82
-82
-82
-82
-81
-81
-81
-81
-82
-83
-83
-83
-82
-83
-84
-84
-85
-85
-85
-86
-87
-87
-88
-89
-88
-88
-87
-88
-89
-89
-88
-89
-88
-89
-89
-91
-91
-91
-91
-91
-92
-93
-93
-93
-93
-92
-92
-92
-94
-94
-94
-93
-92
-92
-92
-93
-92
-93
-92
-92
-92
-93
-94
-94
-94
-94
-94
-96
-98
-98
-99
-100
-100
-101
-102
-102
-103
-104
-103
-103
-103
-103
-102
-101
-100
-98
-97
-97
-96
-95
-94
-92
-91
-89
-89
-89
-88
-88
-87
-86
-87
-88
-89
-89
-90
-89
-90
-91
-92
-94
-94
-94
-95
-95
-96
-96
-97
-97
-97
-96
-97
-98
-98
-98
-97
-97
-96
-96
-97
-96
-96
-96
-95
-95
-95
-95
-96
-95
-95
-94
-95
-95
-95
-95
-95
-94
-93
-94
-94
-94
-94
-93
-92
-92
-92
-92
-92
-91
-91
-90
-91
-91
-90
-90
-90
-89
-89
-90
-90
-90
-90
-90
-89
-90
-90
-91
-91
-91
-91
-91
-90
-91
-90
-90
-89
-89
-88
-88
-88
-87
-87
-85
-84
-84
-83
-83
-83
-82
-82
-82
-81
-83
-83
-83
-83
-82
-81
-82
-83
-83
-83
-84
-84
-84
-85
-85
-86
-86
-85
-86
-87
-87
-87
-87
-87
-87
-86
-87
-87
-88
-88
-88
-88
-88
-89
-90
-90
-90
-90
-90
-91
-91
-92
-92
-92
-91
-92
-92
-94
-93
-94
-93
-93
-94
-94
-94
-94
-94
-93
-93
-94
-94
-94
-93
-94
-93
-94
-94
-95
-96
-96
-97
-97
-97
-99
-100
-101
-101
-102
-103
-104
-105
-106
-106
-106
-106
-107
-107
-108
-108
-109
-109
-108
-109
-108
-109
-109
-109
-109
-108
-108
-109
-110
-109
-108
-108
-108
-108
-108
-109
-109
-108
-108
-108
-108
-108
-108
-108
-107
-107
-108
-109
-109
-109
-109
-109
-109
-110
-111
-111
-112
-112
-113
-113
-115
-116
-118
-118
-119
-120
-121
-123
-124
-125
-125
-125
-126
-127
-127
-128
-127
-127
-126
-125
-123
-121
-119
-116
-113
-109
-104
-100
-95
-89
-82
-75
-67
-59
-51
-44
-34
-24
-14
-3
6
15
24
33
42
51
58
65
72
78
84
88
91
93
93
91
90
87
82
77
69
60
51
42
32
21
10
-2
-15
-26
-38
-49
-60
-72
-83
-93
-103
-109
-118
-124
-131
-137
-143
-146
-151
-154
-158
-160
-163
-166
-168
-169
-171
-173
-175
-177
-178
-179
-180
-180
-182
-183
-183
-183
-183
-182
-182
-182
-181
-180
-177
-175
-172
-170
-168
-165
-162
-158
-154
-151
-147
-144
-141
-137
-133
-129
-124
-122
-118
-115
-111
-108
-104
-102
-100
-98
-95
-93
-91
-89
-88
-88
-87
-85
-84
-83
-82
-83
-82
-81
-81
-80
-80
-80
-79
-79
-79
-78
-79
-78
-78
-78
-77
-77
-76
-75
-75
-76
-75
-74
-73
-72
-72
-71
-71
-71
-70
-70
-69
-68
-69
-69
-68
-67
-67
-66
-66
-66
-65
-65
-64
-64
-63
-63
-63
-62
-61
-61
-60
-60
-59
-59
-59
-59
-57
-57
-56
-57
-56
-56
-55
-54
-54
-53
-53
-53
-52
-50
-50
-49
-49
-49
-48
-48
-47
-46
-45
-46
-46
-45
-43
-43
-42
-42
-42
-41
-40
-39
-38
-38
-37
-37
-37
-36
-34
-34
-33
-33
-32
-32
-31
-29
-28
-28
-28
-28
-27
-25
-24
-23
-22
-22
-22
-20
-18
-18
-17
-17
-16
-15
-12
-11
-11
-9
-9
-9
-7
-6
-4
-3
-2
-3
-2
0
0
2
3
3
4
5
6
7
9
9
9
9
10
12
13
13
14
13
14
15
16
17
17
17
17
18
19
19
20
20
20
20
20
20
21
22
21
21
21
21
21
21
21
20
20
20
20
20
20
19
18
16
16
15
16
15
14
13
11
11
11
11
10
9
8
8
7
7
7
6
5
5
4
4
3
3
1
1
-1
-1
-1
-2
-4
-5
-7
-7
-8
-9
-9
-11
-12
-13
-15
-15
-15
-16
-18
-18
-19
-20
-21
-21
-22
-23
-24
-25
-25
-25
-26
-27
-28
-30
-31
-31
-31
-33
-34
-35
-36
-36
-37
-37
-38
-40
-40
-41
-41
-40
-41
-41
-42
-43
-42
-42
-43
-43
-44
-44
-44
-44
-44
-44
-44
-45
-46
-45
-45
-45
-45
-45
-46
-45
-46
-45
-45
-44
-45
-45
-46
-45
-44
-44
-44
-45
-45
-45
-45
-43
-43
-44
-44
-45
-45
-44
-43
-44
-44
-45
-44
-44
-44
-43
-43
-44
-44
-44
-43
-43
-43
-42
-42
-43
-43
-42
-42
-43
-42
-42
-43
-42
-42
-42
-42
-43
-43
-43
-43
-42
-43
-42
-44
-44
-44
-42
-43
-43
-43
-43
-44
-43
-42
-41
-42
-42
-42
-42
-41
-41
-41
-41
-42
-42
-41
-41
-40
-40
-41
-40
-41
-40
-40
-40
-40
-40
-40
-40
-40
-38
-39
-39
-38
-39
-39
-39
-39
-39
-38
-38
-39
-40
-38
-39
-39
-39
-39
-39
-39
-38
-39
-38
-38
-39
-39
-38
-37
-38
-38
-38
-38
-38
-37
-37
-37
-37
-37
-37
-37
-35
-36
-35
-36
-37
-36
-36
-36
-35
-35
-36
-36
-35
-34
-34
-34
-34
-34
-34
-33
-31
-31
-30
-31
-30
-30
-29
-29
-28
-28
-28
-28
-28
-27
-27
-27
-27
-27
-27
-27
-27
-26
-26
-27
-27
-26
-26
-25
-25
-26
-26
-26
-26
-25
-24
-24
-24
-24
-24
-23
-22
-22
-22
-22
-22
-22
-22
-21
-21
-22
-22
-22
-22
-22
-22
-21
-23
-24
-23
-23
-22
-23
-23
-23
-24
-25
-24
-24
-23
-24
-25
-25
-25
-25
-25
-25
-26
-27
-26
-26
-26
-26
-26
-27
-28
-27
-27
-27
-26
-27
-27
-27
-27
-27
-26
-27
-27
-28
-27
-27
-27
-26
-26
-28
-29
-29
-29
-30
-30
-31
-32
-33
-34
-34
-35
-35
-36
-37
-38
-38
-38
-39
-39
-40
-41
-42
-41
-41
-41
-41
-42
-43
-43
-41
-41
-41
-42
-43
-42
-41
-41
-40
-40
-40
-40
-40
-40
-40
-39
-39
-41
-40
-40
-40
-40
-39
-39
-41
-41
-40
-40
-40
-40
-42
-42
-42
-42
-42
-43
-44
-45
-46
-47
-47
-48
-49
-50
-51
-52
-53
-53
-53
-55
-56
-57
-58
-57
-57
-57
-58
-57
-57
-55
-53
-51
-48
-45
-42
-38
-33
-27
-21
-15
-9
-1
6
16
25
35
44
55
65
75
86
96
106
115
123
133
141
149
155
160
165
169
172
173
174
173
170
166
161
154
147
139
130
120
109
98
87
75
65
52
39
28
16
5
-5
-15
-25
-35
-42
-50
-56
-62
-68
-73
-78
-81
-85
-87
-91
-93
-96
-98
-100
-101
-102
-104
-105
-107
-108
-108
-108
-108
-108
-108
-106
-105
-103
-102
-99
-98
-96
-94
-90
-87
-84
-80
-78
-74
-72
-68
-64
-61
-58
-55
-53
-50
-47
-44
-42
-40
-40
-39
-36
-35
-33
-32
-31
-31
-31
-31
-30
-30
-29
-29
-29
-29
-28
-28
-27
-28
-27
-28
-28
-27
-26
-26
-27
-27
-26
-26
-26
-25
-25
-25
-25
-23
-23
-21
-21
-21
-20
-20
-20
-19
-18
-18
-18
-18
-19
-18
-17
-17
-17
-17
-17
-17
-16
-16
-15
-15
-16
-17
-16
-16
-16
-15
-16
-16
-15
-16
-15
-14
-14
-14
-14
-13
-13
-11
-11
-10
-10
-10
-9
-7
-7
-6
-6
-6
-5
-5
-4
-2
-3
-3
-3
-3
-1
-1
0
0
-1
-1
0
0
1
2
2
2
2
3
5
6
6
6
7
8
8
11
11
12
12
13
14
14
15
16
17
18
18
19
20
21
21
21
22
22
23
25
25
27
27
27
28
29
31
30
31
32
32
33
34
35
36
36
36
37
37
38
39
39
40
39
39
41
41
42
42
42
42
42
44
44
45
45
45
45
47
47
48
49
49
49
49
49
50
50
49
49
48
49
50
49
49
48
48
48
48
48
47
47
46
46
46
46
46
46
44
44
43
43
42
42
41
40
40
38
39
39
38
37
36
34
34
33
33
33
31
30
30
30
29
28
27
26
25
24
25
24
23
22
21
20
19
18
18
16
16
14
13
12
12
11
11
9
7
6
6
6
5
3
3
1
1
0
0
0
-1
-2
-3
-3
-3
-3
-4
-6
-6
-7
-7
-7
-8
-8
-8
-10
-10
-10
-10
-10
-11
-11
-12
-12
-12
-11
-11
-13
-13
-12
-12
-12
-12
-12
-12
-12
-12
-12
-12
-13
-12
-14
-13
-13
-13
-13
-14
-14
-15
-15
-14
-13
-14
-13
-14
-14
-14
-14
-14
-13
-14
-14
-14
-13
-13
-13
-13
-13
-13
-13
-13
-13
-12
-13
-13
-13
-14
-13
-13
-13
-13
-13
-14
-14
-13
-14
-14
-14
-15
-15
-15
-13
-13
-14
-14
-14
-14
-13
-13
-14
-13
-13
-14
-14
-13
-12
-13
-13
-13
-13
-13
-11
-11
-11
-11
-11
-11
-11
-9
-9
-10
-10
-10
-9
-9
-8
-9
-9
-9
-9
-9
-8
-9
-9
-9
-9
-9
-9
-9
-8
-8
-8
-9
-9
-7
-7
-7
-8
-8
-7
-7
-7
-6
-6
-7
-7
-7
-7
-6
-6
-7
-7
-8
-7
-7
-7
-7
-7
-7
-7
-7
-6
-6
-7
-7
-7
-7
-6
-5
-5
-5
-5
-4
-4
-3
-2
-2
-2
-2
-1
-1
1
1
1
1
1
1
2
3
3
3
3
2
3
4
4
4
3
3
3
4
5
6
5
5
6
6
6
7
8
8
8
9
9
10
11
11
11
11
12
12
12
13
13
13
12
13
13
14
14
14
13
13
13
13
13
13
13
13
13
13
14
13
13
13
13
12
12
13
13
12
12
11
11
11
11
11
11
10
10
10
11
10
10
10
9
9
10
10
10
10
9
10
9
10
10
10
8
8
8
7
7
8
7
6
5
4
4
5
4
3
2
1
1
1
1
0
-1
-2
-3
-2
-3
-2
-2
-4
-4
-4
-4
-4
-4
-5
-6
-6
-5
-6
-5
-5
-6
-6
-5
-4
-3
-3
-3
-4
-4
-3
-2
-2
-1
-2
-2
-1
-1
-1
0
0
-1
-2
-1
-1
0
-1
-1
-2
-2
-3
-3
-2
-3
-4
-5
-6
-7
-7
-8
-9
-10
-11
-12
-12
-13
-13
-14
-15
-16
-17
-16
-16
-16
-16
-16
-15
-13
-10
-8
-6
-2
0
5
11
16
23
28
36
42
50
60
70
79
89
99
109
120
129
139
149
156
164
172
180
187
193
197
201
203
205
206
205
204
200
196
190
183
176
168
159
149
139
129
118
107
96
85
72
61
51
40
31
21
12
4
-5
-12
-18
-24
-29
-35
-40
-44
-47
-50
-52
-55
-58
-60
-62
-63
-64
-64
-65
-65
-66
-66
-64
-63
-63
-61
-60
-59
-55
-53
-50
-47
-45
-43
-40
-36
-32
-29
-26
-24
-21
-19
-16
-13
-10
-8
-7
-4
-1
0
2
3
4
6
7
8
10
11
11
11
11
12
13
15
15
14
14
14
16
16
17
16
16
16
16
17
17
18
17
17
17
17
19
19
20
19
19
20
20
21
21
21
21
21
22
22
23
23
23
23
24
23
25
25
25
25
25
26
26
28
29
29
29
29
30
32
32
32
33
34
33
35
35
36
37
36
37
37
37
38
39
38
38
38
38
38
39
38
39
39
38
38
39
40
40
40
39
41
41
42
43
43
44
43
45
45
46
47
47
46
47
47
48
48
48
48
48
48
50
50
51
51
52
52
52
54
55
56
56
56
57
59
60
61
62
62
63
64
65
67
67
68
67
67
67
68
68
69
68
69
68
69
69
70
69
69
70
70
71
72
72
74
73
73
74
76
77
78
79
79
79
81
82
82
84
84
84
85
86
87
88
88
88
88
88
89
90
90
89
88
88
89
89
88
89
87
87
86
87
86
87
86
86
84
83
84
84
84
82
81
80
80
79
79
78
76
75
74
74
74
73
72
71
69
68
67
67
67
65
64
64
62
62
63
61
60
60
59
59
59
58
57
57
56
55
55
54
54
52
51
50
48
48
48
46
44
43
42
41
41
40
39
38
37
36
36
36
35
34
34
33
34
33
33
33
33
32
32
32
32
32
31
30
29
28
28
27
27
25
24
22
22
21
20
19
18
17
16
17
16
17
16
15
15
15
15
15
15
15
14
15
15
16
16
16
16
16
16
17
18
19
18
18
18
19
19
19
20
19
19
19
19
19
20
20
20
19
19
19
19
20
20
19
19
19
20
21
21
21
20
20
20
20
20
20
19
19
18
18
18
18
18
17
16
16
16
16
16
15
14
14
14
15
16
16
15
15
16
16
16
17
17
16
17
17
17
17
17
17
17
17
17
18
18
18
17
17
17
17
18
18
17
17
17
17
17
17
17
17
15
15
15
15
15
15
15
14
14
15
16
17
16
16
15
16
16
17
17
17
16
16
16
16
16
16
15
14
14
14
15
14
14
13
13
13
13
14
15
15
15
15
15
17
17
18
17
17
18
18
19
19
19
19
18
18
18
18
18
18
17
17
17
17
17
17
17
18
18
19
19
20
20
20
21
21
22
23
24
23
23
23
23
24
25
24
24
23
23
23
23
24
23
22
22
21
22
23
23
22
22
22
23
23
24
23
23
23
24
25
26
27
27
27
27
27
28
29
30
30
30
29
30
30
31
30
29
29
27
27
27
27
25
24
23
22
22
21
20
19
17
16
15
15
15
14
14
13
13
13
14
14
14
14
13
13
13
14
14
13
13
12
11
11
11
11
10
10
9
9
9
9
8
8
6
6
6
5
6
5
4
3
2
2
1
1
0
-2
-2
-3
-3
-4
-5
-5
-6
-7
-7
-6
-6
-6
-6
-7
-7
-7
-6
-7
-7
-7
-6
-6
-6
-6
-6
-7
-7
-8
-7
-7
-7
-8
-8
-9
-8
-8
-8
-8
-8
-8
-9
-8
-8
-7
-7
-8
-9
-9
-9
-8
-9
-9
-10
-11
-11
-12
-12
-12
-13
-14
-16
-15
-15
-15
-14
-15
-15
-14
-11
-9
-6
-4
-1
3
7
12
18
23
28
35
43
51
59
67
76
83
90
98
107
115
123
129
136
141
147
153
157
160
162
164
164
165
164
161
158
152
146
140
132
124
115
105
96
84
74
63
53
42
31
21
11
1
-7
-15
-24
-31
-39
-45
-51
-55
-59
-64
-68
-72
-74
-77
-78
-80
-83
-84
-85
-86
-87
-87
-88
-88
-88
-88
-86
-84
-83
-81
-80
-79
-76
-73
-70
-68
-66
-63
-60
-55
-53
-48
-45
-42
-39
-36
-32
-29
-25
-23
-21
-18
-15
-12
-9
-8
-6
-5
-3
-1
0
1
2
2
2
1
3
3
3
3
3
2
2
3
3
4
4
4
5
6
7
8
10
10
11
13
14
15
17
18
19
20
21
21
22
23
23
23
22
22
22
23
22
20
20
18
19
17
17
16
16
15
15
14
14
14
13
13
13
14
15
17
17
18
18
20
21
23
24
24
25
27
27
28
30
31
30
31
31
31
32
32
32
32
31
30
31
31
31
30
31
30
30
31
32
33
33
34
34
35
37
39
39
39
40
41
43
44
45
45
46
47
48
49
50
51
52
52
53
54
55
56
58
58
58
59
60
62
62
63
64
64
65
66
68
68
69
69
70
72
73
74
75
75
76
77
78
79
81
81
82
82
84
84
86
86
87
87
88
89
92
93
94
95
94
95
97
98
99
99
99
99
99
100
101
101
99
98
99
98
98
97
96
94
93
92
91
91
91
90
89
88
88
89
88
88
87
87
86
87
87
87
86
85
84
83
83
82
82
80
79
77
76
76
75
74
74
73
72
72
72
71
71
69
68
66
66
65
64
62
60
58
57
56
53
52
49
47
45
44
43
42
39
38
36
35
34
34
33
32
30
30
28
28
27
27
25
23
22
21
20
19
19
17
15
14
13
12
11
10
8
7
5
4
4
3
1
1
0
-1
0
0
-1
-2
-2
-2
-2
-1
-1
-1
-1
-1
0
1
2
2
2
2
3
3
3
4
3
3
1
0
0
0
-1
-3
-4
-5
-6
-7
-7
-7
-9
-9
-10
-9
-8
-8
-8
-8
-7
-7
-6
-5
-5
-4
-4
-4
-4
-4
-4
-5
-6
-7
-8
-8
-9
-9
-10
-12
-14
-15
-15
-16
-16
-17
-18
-18
-18
-17
-16
-15
-16
-15
-15
-14
-12
-11
-10
-10
-8
-8
-6
-4
-3
-2
-1
-1
0
0
1
0
0
-1
-1
-1
-1
0
-1
-3
-5
-6
-7
-7
-8
-10
-10
-11
-12
-12
-12
-13
-14
-15
-15
-14
-14
-14
-14
-15
-15
-15
-15
-14
-14
-14
-15
-16
-16
-15
-15
-15
-15
-15
-16
-16
-15
-14
-16
-16
-16
-17
-16
-17
-16
-17
-17
-18
-18
-16
-16
-16
-16
-16
-16
-15
-14
-13
-13
-13
-13
-13
-12
-11
-11
-11
-11
-12
-12
-11
-11
-11
-12
-13
-14
-13
-13
-14
-13
-14
-14
-14
-14
-13
-12
-12
-12
-11
-10
-10
-9
-9
-9
-9
-9
-8
-6
-7
-6
-6
-6
-6
-5
-4
-4
-3
-3
-4
-3
-2
-1
-1
0
0
1
1
3
3
3
3
3
3
4
4
4
4
4
3
4
4
4
4
3
3
3
4
4
4
5
6
5
6
6
6
7
7
7
6
7
7
7
7
8
6
6
7
7
6
6
5
5
4
4
5
5
5
4
4
4
4
4
5
4
4
4
4
5
5
4
4
3
3
2
2
2
1
0
-1
-1
-2
-1
-2
-3
-4
-3
-4
-3
-3
-4
-5
-5
-5
-4
-4
-4
-5
-5
-7
-7
-7
-7
-7
-9
-9
-10
-10
-9
-10
-10
-11
-12
-13
-13
-13
-14
-14
-15
-15
-16
-15
-16
-16
-16
-16
-17
-17
-16
-16
-16
-16
-16
-17
-16
-15
-15
-15
-15
-14
-15
-14
-13
-13
-14
-14
-14
-14
-13
-14
-14
-16
-17
-18
-19
-20
-21
-23
-26
-27
-29
-30
-31
-33
-35
-36
-38
-38
-39
-39
-39
-40
-39
-37
-36
-32
-30
-26
-23
-18
-13
-7
0
7
13
22
30
40
50
61
72
82
92
104
115
126
137
147
156
165
174
182
191
197
202
206
209
212
212
212
209
204
198
191
184
175
165
153
141
128
116
103
90
76
62
47
34
22
10
-1
-11
-22
-31
-39
-46
-52
-58
-63
-68
-73
-76
-79
-82
-84
-87
-89
-91
-91
-92
-93
-95
-96
-97
-97
-98
-98
-98
-98
-98
-97
-97
-95
-94
-92
-91
-89
-87
-84
-81
-77
-74
-71
-68
-64
-60
-56
-52
-48
-46
-42
-38
-34
-30
-27
-25
-23
-20
-17
