# Simple Text Format
# Sampling Rate (Hz):= 1200.00
# Resolution:= 12
# Labels:= ECG	 V2
# Age:=	45
# Gender:=	Masculino
128
128
128
128
128
128
129
129
130
130
129
129
130
129
130
129
129
128
129
128
129
130
128
128
128
127
129
128
128
128
128
127
127
127
127
127
127
127
127
127
127
127
128
127
126
126
127
127
127
128
126
126
127
126
127
127
127
127
127
126
127
127
128
127
127
128
129
129
129
130
130
131
132
134
135
137
139
141
142
146
150
152
156
159
162
165
169
174
178
182
186
190
193
198
202
204
205
207
208
209
210
209
208
206
202
199
195
190
184
178
170
162
153
144
135
125
114
102
91
79
68
56
43
31
19
7
-4
-15
-24
-34
-43
-51
-58
-64
-70
-74
-78
-81
-83
-84
-84
-83
-82
-79
-77
-73
-69
-64
-59
-53
-48
-44
-38
-32
-25
-19
-13
-7
0
6
13
20
26
31
38
44
51
57
63
68
73
79
85
90
96
101
106
110
114
119
124
128
131
135
137
141
144
146
149
151
152
153
155
156
158
158
158
159
159
160
160
161
161
160
160
160
161
161
161
162
162
161
161
162
163
163
162
163
164
164
165
166
166
165
165
166
166
168
167
168
168
168
169
170
170
171
171
172
172
172
174
175
175
175
175
176
176
177
178
178
178
177
179
179
180
180
179
179
179
179
180
180
180
180
180
181
181
182
182
182
183
183
183
185
186
186
187
187
188
189
190
192
192
192
193
194
194
195
196
197
197
197
198
199
199
201
201
201
201
203
203
205
205
205
205
207
208
208
209
210
211
211
212
212
214
215
215
216
216
217
219
220
221
221
222
223
224
226
227
228
228
230
231
232
233
234
235
235
237
239
240
241
241
243
243
243
245
246
246
247
247
247
248
248
249
249
249
250
250
250
251
251
251
251
251
251
252
252
253
253
252
252
253
253
254
253
253
252
252
252
252
252
251
250
249
249
248
247
247
245
244
243
241
241
240
239
238
237
235
235
234
234
233
232
230
229
229
228
228
226
225
224
224
223
222
221
220
218
217
216
216
215
214
212
211
210
209
207
206
205
203
201
200
200
199
198
196
195
194
193
192
191
190
190
188
188
186
186
186
185
183
182
182
181
181
180
179
178
178
177
178
178
177
177
175
176
176
176
176
176
175
175
175
176
176
176
175
175
175
175
175
176
176
175
175
175
175
175
176
175
175
175
176
176
175
176
175
174
174
174
174
175
175
173
173
173
173
174
174
174
173
172
172
173
174
174
173
173
173
173
175
175
174
174
174
174
174
175
175
175
173
173
173
173
173
173
172
171
170
171
171
171
170
169
169
168
168
168
168
167
166
166
166
166
165
165
165
164
164
164
164
164
164
162
162
162
162
163
163
163
162
162
162
163
164
164
163
163
164
165
166
166
167
167
167
167
168
168
169
169
169
168
169
169
170
169
169
169
168
168
169
169
169
169
168
168
169
169
169
168
168
168
169
169
170
169
169
169
169
170
170
170
170
170
170
171
171
172
172
173
172
172
173
173
173
173
173
173
174
174
175
175
175
175
174
174
174
175
175
176
175
175
174
175
175
175
175
174
175
175
175
176
175
175
175
174
175
175
175
175
174
175
175
175
176
176
176
176
176
177
177
178
179
179
179
179
180
180
181
181
181
181
182
183
183
182
182
182
182
182
184
183
183
183
183
184
184
184
184
183
183
183
183
184
183
183
183
182
182
182
181
182
181
180
179
179
179
178
178
176
176
174
174
175
174
174
172
171
171
171
171
170
169
169
167
168
168
168
168
167
166
166
166
166
167
167
166
166
167
168
169
169
169
169
169
170
171
172
172
172
172
172
172
173
173
174
173
173
173
174
174
174
174
174
175
175
176
176
177
177
176
176
177
177
178
177
177
177
176
176
177
176
177
175
175
175
175
175
175
175
174
174
174
174
174
174
174
175
175
176
176
177
177
176
176
177
177
177
178
178
178
177
178
177
178
178
177
176
177
176
176
176
176
175
174
174
174
174
174
173
173
172
172
172
172
171
171
170
171
171
173
173
175
176
177
180
182
184
187
190
193
197
201
205
209
213
217
222
226
232
237
241
246
249
253
255
259
262
263
264
263
264
263
261
258
254
250
243
236
230
222
214
204
192
181
170
159
146
133
120
106
93
79
66
55
42
30
19
9
0
-8
-16
-23
-29
-35
-39
-42
-43
-45
-46
-47
-46
-44
-41
-38
-36
-33
-29
-25
-20
-15
-9
-6
0
4
10
16
22
27
32
37
44
50
55
62
67
72
77
83
89
96
101
106
111
117
122
127
131
137
140
144
147
151
154
157
159
162
163
165
168
169
170
171
172
173
173
174
174
174
174
174
174
174
175
176
176
175
175
175
176
176
177
177
177
177
177
177
178
178
179
178
178
179
179
179
179
179
179
180
180
180
181
181
181
181
181
181
181
181
182
181
180
181
180
181
181
180
180
180
181
182
181
182
182
182
182
183
183
184
184
184
185
185
185
186
185
185
185
184
185
185
186
185
185
184
184
185
185
185
185
185
185
185
186
186
187
188
188
188
189
190
192
191
192
192
193
193
195
195
195
195
195
196
197
198
198
198
198
199
200
201
202
202
202
203
203
205
205
205
206
207
208
208
210
211
211
212
213
213
215
216
217
218
218
219
220
221
222
223
223
224
224
226
227
228
228
228
229
229
230
232
233
233
233
233
234
235
235
235
235
235
235
235
236
236
235
235
234
234
234
234
233
233
232
230
230
230
230
229
228
227
226
226
225
223
223
221
219
218
218
218
216
215
214
213
211
211
210
208
207
206
204
204
203
203
201
199
198
198
197
196
195
194
192
191
190
189
188
187
184
183
181
180
179
178
176
174
172
170
170
169
168
165
164
161
161
160
160
159
158
156
154
154
153
153
152
152
150
150
149
149
149
148
146
145
145
144
144
143
142
141
140
140
140
140
138
137
137
137
137
137
136
136
135
135
135
135
135
135
135
134
134
135
135
135
135
135
134
134
135
135
135
135
135
134
135
134
135
135
134
134
133
134
133
133
132
132
131
131
131
131
131
130
130
129
129
129
129
129
129
127
127
127
127
126
127
126
125
125
126
127
127
127
126
126
126
127
127
127
127
127
126
127
128
128
128
128
128
127
128
128
128
129
127
127
127
127
128
127
128
128
127
127
128
128
127
127
126
127
127
128
128
128
127
127
127
127
128
127
127
126
126
126
126
127
126
126
125
126
126
126
126
126
125
125
126
126
126
126
127
126
125
126
127
127
127
127
127
128
129
129
130
130
130
130
131
131
131
132
132
132
131
132
132
132
131
131
131
131
131
132
132
131
131
130
130
131
131
131
130
130
130
130
131
130
131
131
130
131
131
132
131
132
132
131
133
133
134
134
134
134
134
135
135
136
137
137
137
137
138
139
139
139
138
138
139
139
139
139
138
138
136
136
137
136
136
135
134
135
134
134
134
134
133
133
133
134
134
133
133
133
133
133
132
133
133
132
131
131
130
131
131
130
129
129
128
128
127
127
126
125
124
124
125
125
125
124
123
124
123
124
123
123
122
122
122
122
123
122
122
122
121
121
122
122
122
121
121
122
123
124
124
125
125
125
127
127
128
129
129
130
130
131
132
133
132
133
133
134
134
135
135
135
135
135
135
136
136
137
136
136
136
136
137
137
137
136
137
137
137
138
138
137
137
137
136
136
137
137
136
136
135
135
135
136
136
136
135
135
137
137
138
138
138
138
138
140
140
141
141
141
141
142
142
143
144
143
143
144
144
144
145
145
144
144
144
145
144
145
144
144
143
143
143
143
142
142
142
141
142
142
144
144
145
145
148
150
152
155
158
161
165
169
173
178
183
187
192
197
203
208
213
217
222
226
231
234
237
240
241
243
243
243
243
241
238
234
229
225
219
212
205
197
188
178
168
158
148
136
125
112
101
90
80
70
58
49
38
30
22
15
9
2
-4
-9
-13
-15
-17
-19
-21
-22
-22
-21
-20
-17
-16
-13
-11
-8
-5
0
3
6
11
15
19
23
28
32
36
41
46
50
56
61
65
69
73
78
83
89
93
97
101
104
109
113
117
120
124
126
130
133
136
139
141
143
145
148
150
152
154
155
156
157
158
160
161
161
162
162
162
163
164
164
164
163
162
163
164
164
164
164
162
162
163
163
164
164
163
163
164
164
164
165
165
165
165
166
166
166
167
168
168
168
169
169
169
170
170
170
170
171
172
173
173
174
173
174
175
176
176
176
176
176
177
177
177
178
177
177
177
178
178
178
177
177
176
178
178
178
178
179
179
178
180
180
181
181
181
181
182
183
184
184
185
185
186
187
188
189
190
191
191
192
193
195
196
197
197
198
198
199
200
200
201
201
201
203
204
204
204
205
205
205
206
207
208
208
208
209
209
210
212
213
213
214
215
216
217
218
220
220
221
221
223
224
224
225
226
226
226
227
227
228
228
228
228
229
230
231
231
232
232
232
233
233
233
235
235
235
236
236
237
237
237
237
237
237
238
238
239
238
238
238
237
237
237
237
235
235
234
233
233
232
231
230
228
228
227
226
225
224
222
221
221
220
220
218
217
215
215
214
213
213
212
211
210
208
209
208
206
205
204
203
202
202
201
200
199
197
196
195
195
194
193
191
190
189
188
188
187
186
185
184
183
182
181
181
179
177
176
176
176
175
173
171
171
170
169
169
168
168
166
165
165
165
164
164
163
162
162
162
162
162
162
161
161
162
162
162
163
162
161
161
162
163
163
162
161
161
160
161
160
160
159
159
158
158
158
158
157
156
156
155
155
155
154
154
153
153
152
152
153
152
152
151
150
150
150
150
149
149
148
147
147
147
147
147
146
146
145
145
145
146
145
145
144
144
145
145
146
145
145
144
145
145
146
146
145
145
144
145
145
146
145
145
145
145
145
146
147
147
146
146
147
147
148
147
147
147
148
148
148
149
148
148
148
148
149
149
150
149
149
148
149
149
149
149
150
149
149
149
149
150
149
148
148
148
148
148
148
148
148
146
147
147
148
148
147
146
146
146
146
147
146
146
145
146
146
146
145
146
144
144
144
144
144
144
144
143
143
143
143
143
144
142
142
142
143
144
143
144
144
144
145
145
146
146
146
146
146
147
147
147
147
146
146
146
146
146
145
145
145
144
144
144
144
144
144
143
144
145
145
145
146
145
146
146
147
148
149
149
150
150
150
151
151
152
151
151
150
150
151
151
150
149
148
148
148
148
148
147
147
145
146
145
146
146
146
144
144
144
145
145
144
143
143
142
143
143
142
141
140
139
139
139
137
137
136
134
134
132
132
132
131
130
129
129
128
129
129
128
128
127
128
129
129
129
130
129
129
130
131
131
130
129
130
129
130
130
129
130
128
129
128
129
129
129
130
129
130
130
131
132
132
133
133
134
134
136
136
136
136
136
136
137
137
136
136
135
135
135
135
135
135
133
132
133
132
132
132
131
131
131
131
131
131
131
130
130
131
131
131
131
131
130
129
129
130
130
130
130
129
128
128
128
129
128
127
126
126
126
125
126
125
124
124
124
125
125
125
125
124
124
124
124
124
125
123
123
123
123
124
123
123
123
122
123
123
124
123
124
123
124
125
126
127
129
131
133
134
137
140
143
146
149
152
155
160
164
167
171
175
179
183
186
190
193
196
198
199
202
204
204
205
204
203
202
201
198
195
191
186
180
175
168
162
154
145
137
127
117
108
97
86
75
64
53
44
33
24
14
3
-5
-13
-20
-27
-32
-38
-43
-47
-50
-52
-53
-54
-56
-55
-54
-52
-50
-48
-46
-44
-40
-37
-33
-29
-25
-22
-18
-14
-9
-5
0
4
9
13
18
23
28
33
38
42
47
52
57
62
66
71
75
80
84
89
93
97
100
103
107
111
114
117
120
121
123
125
127
129
130
131
131
132
133
134
134
133
134
133
134
134
133
134
133
132
132
132
132
132
132
132
131
131
130
132
131
131
131
131
131
132
133
132
133
132
133
133
134
135
134
134
134
134
134
135
135
135
134
133
134
134
135
134
135
133
133
134
134
134
134
134
133
134
134
135
135
135
135
134
135
135
136
137
136
136
137
136
138
138
137
137
137
137
138
139
138
139
138
139
139
140
141
142
142
143
143
144
145
147
147
148
149
150
152
152
154
155
155
156
157
158
160
160
161
161
162
162
163
164
164
165
164
165
166
167
168
168
168
169
170
171
173
174
173
175
175
176
177
178
179
180
181
182
182
184
185
186
186
186
187
188
190
191
191
191
192
193
193
195
195
195
195
195
196
196
197
196
197
196
196
196
197
196
196
196
195
195
195
195
195
194
193
192
193
192
192
191
190
189
189
189
189
188
186
185
184
183
183
181
181
179
177
176
175
174
173
171
170
168
167
166
165
164
162
161
159
157
156
156
154
152
150
148
148
147
145
143
142
140
139
137
136
135
133
132
130
129
128
127
126
124
123
121
121
120
119
118
117
115
115
114
114
113
113
111
110
110
110
109
108
107
106
106
105
105
105
104
104
103
103
102
102
103
102
100
101
100
100
100
100
98
97
97
97
97
96
95
95
94
94
94
94
93
93
91
91
91
91
91
91
91
90
89
89
89
90
89
88
88
88
88
88
88
87
87
86
87
87
87
87
86
85
85
85
85
86
84
84
84
83
84
84
84
83
82
82
81
82
82
81
81
81
80
80
80
81
80
79
79
79
79
79
79
79
78
78
78
78
78
78
78
78
77
77
77
77
76
76
75
75
75
75
75
74
73
73
72
72
73
72
72
72
71
71
71
72
72
71
71
71
71
72
71
72
70
70
71
70
71
71
70
70
70
70
70
70
70
69
69
69
70
70
70
69
69
69
69
69
70
70
69
69
69
70
70
69
69
69
69
69
69
70
70
69
69
69
70
70
70
71
70
70
70
71
71
71
71
70
70
70
70
70
70
69
69
68
68
68
68
67
67
66
66
66
66
66
65
64
64
64
64
64
64
63
64
63
63
64
63
64
64
63
62
64
63
63
63
64
62
64
64
64
64
63
63
63
63
63
62
63
62
61
61
61
62
61
61
60
59
59
60
59
59
59
58
57
57
57
57
56
55
55
54
53
52
53
51
50
49
49
48
49
47
46
45
44
44
44
44
43
42
42
41
41
41
40
39
39
38
39
38
39
38
39
39
39
39
38
40
40
40
39
40
40
42
42
42
43
43
43
43
44
45
44
44
43
44
45
45
45
45
44
44
44
45
45
45
44
44
45
46
45
46
45
45
45
45
45
45
45
45
45
45
45
44
45
44
43
43
42
42
43
43
42
42
42
42
43
43
43
43
42
42
42
43
43
43
42
42
42
42
42
43
42
41
41
41
41
41
40
40
40
39
40
39
40
38
39
37
38
38
38
37
37
36
36
35
35
36
35
35
34
35
35
36
37
38
39
40
42
46
48
51
54
56
60
65
68
72
77
81
84
89
93
98
102
106
109
112
113
116
116
117
118
116
114
113
110
107
102
97
91
84
76
69
60
50
40
30
20
9
-2
-14
-26
-38
-50
-62
-73
-83
-95
-106
-116
-126
-134
-142
-150
-158
-164
-169
-172
-175
-177
-179
-180
-181
-180
-178
-176
-173
-170
-166
-162
-158
-153
-148
-143
-138
-133
-128
-122
-115
-110
-103
-98
-93
-87
-81
-76
-69
-63
-59
-53
-47
-41
-35
-29
-24
-19
-15
-9
-4
1
5
10
13
16
21
24
27
30
31
34
36
37
39
41
41
42
43
43
45
46
46
46
46
45
47
47
47
47
47
47
47
47
47
48
47
46
46
47
47
48
48
48
47
48
47
48
49
49
49
49
48
49
50
49
50
48
49
49
50
50
50
49
49
50
50
51
51
52
52
52
51
52
53
54
54
54
54
54
54
56
56
56
55
55
55
55
56
56
55
54
55
55
56
55
56
55
55
56
57
58
58
58
58
59
59
60
62
63
63
64
64
65
66
67
68
68
69
69
70
71
72
72
72
72
73
75
75
76
77
77
77
78
79
80
80
81
81
82
83
85
85
86
86
87
88
89
90
91
91
92
92
93
94
95
96
96
96
97
98
100
100
101
101
101
102
104
105
105
105
106
106
107
107
108
107
108
107
108
110
110
110
111
111
110
111
111
112
112
113
113
113
113
114
114
114
114
113
113
114
114
113
113
112
111
111
111
110
109
108
107
106
105
104
103
101
99
98
98
97
95
94
92
91
89
88
87
87
85
83
82
80
80
79
78
76
75
73
72
71
71
69
68
66
64
64
63
62
61
59
58
57
55
55
54
53
52
50
50
50
48
48
47
46
45
44
44
43
43
42
41
41
40
40
40
39
37
37
37
36
37
36
36
35
34
35
35
35
34
34
33
33
33
34
33
32
32
32
31
31
32
32
31
30
30
30
30
30
30
29
30
29
29
31
30
31
31
30
31
31
31
32
32
31
32
31
32
32
32
32
32
31
31
31
31
30
29
28
28
28
28
28
28
26
26
25
25
25
24
24
24
24
23
23
23
23
22
22
22
22
23
22
22
21
21
21
22
21
21
21
20
19
20
19
20
19
18
18
18
18
18
18
17
17
17
16
18
17
17
17
16
17
16
17
17
17
17
16
17
17
18
17
17
17
16
17
17
17
17
17
16
16
16
17
16
16
16
16
16
17
17
17
17
16
17
17
18
18
18
17
17
17
18
18
19
18
18
18
17
17
18
17
17
16
16
16
16
15
15
15
13
14
13
13
14
13
12
12
12
12
13
13
13
13
12
13
14
14
14
13
13
13
14
14
14
14
13
13
13
13
14
14
13
12
12
13
13
13
13
13
12
12
12
13
13
12
12
12
12
12
13
13
12
12
12
12
13
13
13
12
12
11
12
12
13
12
12
11
11
12
12
11
11
10
10
11
12
11
12
11
11
10
11
11
11
11
10
10
9
10
10
9
8
7
6
6
6
5
4
4
2
2
2
1
0
0
0
-1
-1
-1
-1
-2
-2
-2
-3
-4
-3
-3
-3
-4
-4
-4
-4
-3
-3
-4
-4
-5
-4
-3
-3
-3
-3
-3
-3
-2
-1
-1
-1
-1
-2
-1
-1
0
0
0
0
0
1
1
2
2
2
2
2
3
3
4
4
4
3
3
3
4
4
4
3
3
3
3
3
3
3
2
1
2
2
2
2
1
1
1
2
2
2
2
2
1
2
2
3
3
3
2
3
3
3
4
4
4
4
4
4
4
5
5
4
5
5
6
6
7
6
6
6
7
8
8
8
8
7
8
8
8
9
8
8
8
9
9
11
11
12
13
15
16
19
22
24
26
29
32
36
40
45
48
53
57
61
67
72
76
80
84
88
91
95
97
98
100
99
99
98
96
94
91
86
80
74
68
60
53
43
32
22
12
2
-9
-22
-35
-47
-60
-72
-84
-97
-108
-120
-131
-142
-151
-161
-170
-178
-185
-192
-197
-202
-204
-207
-210
-212
-212
-211
-209
-208
-206
-203
-200
-195
-190
-186
-181
-177
-171
-166
-161
-155
-149
-143
-137
-132
-126
-120
-113
-107
-101
-95
-90
-83
-78
-72
-66
-61
-56
-50
-45
-40
-34
-30
-26
-22
-18
-15
-10
-7
-5
-2
0
2
5
7
8
10
11
12
13
15
15
16
16
16
16
17
17
18
18
18
18
19
19
19
19
19
18
18
18
19
19
18
18
18
18
18
19
19
19
18
18
19
19
20
20
21
20
20
21
21
22
22
22
22
22
22
24
24
23
23
23
23
23
24
25
25
24
23
24
25
25
25
25
25
24
25
25
26
25
25
25
25
25
26
26
25
25
25
26
25
26
26
27
27
27
28
28
30
29
30
30
31
32
33
34
34
34
34
35
37
38
38
38
39
39
40
41
42
42
43
43
45
46
48
48
49
49
51
52
53
55
56
56
56
57
58
59
60
60
61
60
61
62
63
63
64
64
65
66
67
68
69
70
70
70
72
74
75
76
76
77
78
79
80
81
81
81
81
82
83
83
83
83
82
83
83
84
84
84
84
83
83
85
84
84
84
83
83
83
83
83
83
82
81
80
79
79
79
78
76
76
76
76
75
74
73
72
71
70
69
68
68
67
65
64
62
61
60
58
56
55
54
52
50
48
47
44
43
41
40
39
37
34
33
31
30
29
28
26
25
23
22
21
21
19
18
16
15
14
14
13
12
11
10
9
9
8
8
7
5
6
5
5
6
5
4
3
3
3
2
2
2
1
0
0
0
0
0
-1
-2
-3
-4
-3
-3
-5
-5
-5
-6
-7
-6
-7
-8
-8
-8
-9
-9
-8
-8
-9
-10
-10
-9
-9
-8
-9
-9
-9
-10
-9
-9
-9
-9
-10
-11
-12
-11
-11
-11
-12
-13
-13
-13
-13
-13
-13
-14
-14
-15
-15
-15
-15
-15
-16
-17
-17
-17
-17
-17
-18
-19
-20
-20
-20
-20
-20
-21
-21
-21
-22
-22
-22
-22
-22
-22
-23
-23
-22
-22
-22
-23
-23
-22
-22
-21
-20
-21
-22
-21
-21
-21
-21
-21
-21
-21
-22
-21
-21
-21
-22
-23
-24
-23
-23
-23
-24
-24
-24
-24
-25
-24
-23
-24
-24
-24
-24
-25
-24
-24
-24
-24
-25
-24
-25
-25
-24
-25
-25
-25
-25
-26
-25
-25
-26
-25
-26
-25
-25
-25
-25
-25
-25
-25
-24
-25
-24
-24
-25
-25
-25
-24
-25
-24
-25
-25
-25
-25
-25
-25
-25
-25
-25
-25
-24
-24
-24
-24
-24
-25
-24
-24
-24
-24
-23
-24
-24
-24
-24
-24
-24
-25
-25
-25
-25
-24
-25
-25
-26
-26
-25
-25
-24
-24
-24
-24
-24
-23
-23
-22
-22
-22
-22
-22
-20
-20
-20
-20
-21
-21
-20
-20
-20
-21
-21
-21
-21
-21
-21
-21
-21
-22
-21
-21
-21
-20
-20
-20
-21
-21
-20
-19
-19
-20
-20
-20
-20
-20
-20
-19
-20
-21
-21
-21
-21
-21
-21
-21
-22
-23
-22
-22
-21
-22
-23
-23
-24
-25
-24
-24
-26
-26
-27
-27
-27
-27
-28
-29
-30
-29
-30
-30
-29
-30
-31
-31
-31
-31
-31
-31
-31
-32
-32
-33
-32
-31
-32
-32
-33
-33
-32
-31
-31
-32
-32
-31
-32
-30
-31
-29
-30
-30
-30
-30
-29
-29
-28
-29
-30
-30
-29
-29
-29
-29
-29
-30
-29
-29
-29
-28
-28
-27
-27
-26
-25
-24
-24
-22
-23
-22
-22
-21
-19
-19
-20
-20
-20
-19
-19
-18
-19
-19
-19
-20
-18
-18
-19
-19
-20
-20
-19
-20
-19
-19
-19
-19
-19
-19
-19
-18
-19
-19
-19
-20
-19
-18
-18
-19
-19
-19
-18
-17
-17
-17
-17
-18
-17
-18
-17
-16
-16
-17
-18
-17
-18
-17
-17
-18
-18
-19
-19
-18
-19
-19
-20
-20
-21
-20
-20
-19
-18
-17
-17
-15
-13
-10
-8
-5
-4
0
3
7
12
16
19
24
29
34
39
44
49
54
59
64
69
74
78
81
84
86
88
89
89
89
87
84
80
77
72
65
58
50
40
31
20
9
-2
-14
-28
-41
-54
-67
-78
-91
-105
-116
-127
-137
-147
-157
-166
-174
-181
-188
-193
-197
-201
-204
-206
-207
-207
-207
-205
-204
-203
-201
-198
-195
-192
-187
-185
-181
-177
-172
-168
-162
-157
-153
-149
-144
-139
-134
-128
-124
-119
-114
-109
-103
-98
-92
-88
-85
-80
-75
-70
-65
-61
-58
-53
-50
-46
-42
-39
-35
-34
-31
-29
-26
-24
-22
-21
-21
-19
-19
-17
-16
-16
-16
-16
-16
-16
-15
-16
-16
-16
-17
-16
-16
-16
-15
-15
-15
-14
-13
-13
-12
-12
-11
-11
-10
-9
-8
-8
-7
-6
-6
-6
-6
-5
-4
-4
-6
-5
-5
-5
-5
-5
-5
-5
-6
-6
-6
-5
-6
-6
-7
-7
-7
-7
-7
-7
-8
-9
-9
-9
-8
-8
-9
-9
-9
-9
-9
-8
-8
-8
-8
-8
-7
-7
-6
-6
-6
-5
-5
-4
-3
-2
-2
-2
0
0
2
2
3
3
3
4
5
7
7
7
7
7
8
9
10
10
10
10
10
10
12
13
13
13
13
13
14
15
16
16
16
16
17
18
19
19
20
20
21
23
24
25
26
27
28
29
31
32
34
35
36
37
39
40
41
42
43
44
44
45
46
47
47
47
48
49
49
50
51
51
50
51
51
52
53
53
53
52
52
53
53
54
54
54
53
54
54
54
54
54
54
53
53
53
54
54
53
53
52
52
52
51
50
50
49
48
47
46
46
44
42
42
40
40
39
38
36
34
32
31
31
29
28
26
25
23
23
22
20
19
18
16
14
14
13
12
10
9
7
6
5
5
3
2
0
-1
-3
-4
-5
-7
-8
-10
-11
-12
-13
-14
-16
-17
-18
-18
-19
-20
-21
-23
-24
-25
-26
-26
-27
-28
-30
-31
-31
-32
-33
-33
-34
-36
-37
-37
-38
-38
-39
-39
-40
-40
-40
-40
-40
-41
-40
-41
-41
-40
-40
-40
-41
-41
-41
-41
-40
-40
-40
-40
-41
-41
-41
-41
-41
-42
-42
-43
-43
-43
-43
-43
-43
-44
-44
-44
-44
-44
-45
-45
-46
-47
-46
-47
-47
-47
-48
-49
-49
-49
-49
-50
-50
-51
-51
-51
-51
-51
-51
-51
-52
-51
-51
-51
-51
-51
-51
-51
-51
-51
-50
-50
-50
-51
-51
-51
-51
-50
-50
-51
-52
-51
-52
-52
-51
-51
-52
-53
-52
-52
-52
-52
-52
-52
-52
-51
-51
-51
-51
-51
-52
-52
-52
-51
-52
-52
-53
-53
-53
-53
-53
-53
-54
-54
-54
-54
-54
-54
-54
-54
-55
-54
-54
-53
-52
-52
-52
-53
-52
-50
-50
-49
-49
-50
-49
-48
-48
-47
-47
-47
-48
-47
-48
-48
-48
-48
-49
-50
-49
-49
-49
-49
-50
-51
-51
-51
-51
-51
-51
-52
-52
-53
-53
-52
-52
-53
-54
-54
-54
-54
-53
-53
-54
-54
-54
-54
-54
-54
-54
-54
-54
-54
-54
-54
-53
-54
-54
-55
-54
-54
-54
-54
-54
-55
-56
-55
-56
-55
-55
-57
-57
-57
-57
-58
-58
-59
-59
-59
-59
-59
-60
-60
-60
-61
-61
-61
-60
-60
-60
-60
-60
-59
-58
-58
-56
-57
-56
-56
-54
-53
-52
-52
-51
-50
-50
-50
-49
-49
-48
-48
-48
-48
-48
-48
-48
-48
-48
-48
-48
-48
-48
-48
-49
-50
-51
-51
-52
-52
-53
-54
-55
-56
-56
-56
-56
-58
-59
-60
-60
-60
-61
-61
-62
-62
-63
-63
-63
-63
-63
-64
-64
-65
-64
-64
-63
-64
-64
-64
-64
-63
-62
-62
-63
-62
-62
-61
-60
-59
-58
-58
-58
-57
-56
-55
-53
-53
-52
-51
-50
-48
-46
-46
-46
-45
-44
-43
-42
-41
-40
-40
-40
-40
-39
-39
-38
-38
-39
-39
-39
-40
-39
-39
-39
-40
-40
-39
-39
-38
-38
-38
-39
-39
-38
-38
-37
-37
-37
-37
-36
-36
-36
-36
-35
-36
-35
-36
-35
-35
-35
-35
-35
-36
-35
-35
-35
-35
-35
-35
-35
-34
-34
-34
-35
-35
-35
-35
-34
-34
-34
-35
-35
-35
-35
-34
-35
-35
-35
-36
-34
-35
-35
-34
-34
-35
-35
-34
-35
-33
-34
-33
-33
-32
-31
-29
-28
-25
-25
-22
-19
-16
-13
-10
-7
-3
1
5
9
15
18
23
26
31
35
40
44
47
49
52
54
55
57
58
58
57
55
54
52
48
43
38
32
25
18
10
2
-7
-17
-28
-38
-49
-60
-72
-84
-95
-108
-119
-130
-141
-151
-162
-172
-181
-188
-196
-203
-209
-216
-220
-224
-227
-228
-230
-231
-232
-231
-229
-227
-224
-221
-219
-215
-211
-207
-202
-197
-192
-188
-183
-177
-171
-165
-159
-153
-148
-142
-135
-129
-123
-117
-111
-105
-99
-94
-89
-84
-79
-74
-69
-64
-59
-54
-50
-47
-43
-40
-37
-34
-30
-28
-26
-25
-23
-21
-19
-18
-18
-17
-16
-16
-14
-14
-13
-13
-14
-14
-13
-13
-13
-12
-13
-13
-14
-13
-12
-13
-13
-13
-13
-13
-13
-12
-13
-12
-13
-13
-12
-12
-12
-12
-13
-13
-13
-12
-12
-12
-11
-12
-11
-11
-10
-10
-10
-9
-9
-9
-8
-8
-7
-7
-7
-7
-7
-6
-6
-6
-6
-6
-7
-6
-6
-6
-6
-6
-6
-7
-6
-5
-5
-5
-6
-6
-6
-6
-5
-4
-4
-4
-5
-4
-2
-2
-2
-2
-2
-2
-1
0
0
0
1
1
2
3
3
4
3
4
4
4
6
7
7
8
8
8
9
11
11
12
12
13
13
14
16
16
17
17
18
18
20
20
21
22
22
22
23
24
26
26
27
27
27
29
30
31
32
32
32
33
34
35
35
36
36
37
38
39
39
40
41
41
41
42
43
44
45
45
45
46
46
48
48
48
48
47
48
49
49
49
49
48
48
48
48
48
47
46
46
45
45
45
44
43
43
41
41
41
39
38
37
36
34
34
33
32
30
29
27
27
26
25
24
23
21
21
19
19
19
18
17
15
15
14
14
13
12
11
9
9
8
7
6
4
2
2
0
-1
-2
-4
-6
-8
-9
-10
-11
-13
-14
-16
-17
-18
-18
-19
-21
-22
-23
-24
-25
-25
-26
-26
-27
-29
-29
-29
-30
-30
-31
-32
-33
-32
-33
-33
-34
-34
-35
-35
-36
-35
-35
-35
-36
-37
-37
-37
-37
-38
-37
-38
-38
-39
-38
-38
-38
-39
-39
-39
-40
-39
-39
-39
-40
-40
-40
-40
-40
-39
-40
-40
-41
-41
-41
-40
-41
-41
-41
-42
-41
-41
-42
-42
-42
-42
-43
-43
-42
-43
-43
-43
-43
-43
-42
-42
-42
-42
-42
-42
-41
-40
-40
-40
-40
-40
-40
-40
-39
-40
-40
-40
-41
-40
-40
-40
-40
-40
-41
-41
-41
-41
-41
-41
-42
-42
-43
-42
-42
-42
-43
-42
-43
-43
-43
-42
-43
-43
-43
-44
-44
-43
-43
-43
-44
-45
-45
-44
-44
-43
-44
-44
-44
-43
-43
-43
-42
-43
-43
-42
-42
-42
-41
-40
-40
-40
-40
-39
-39
-38
-38
-38
-38
-38
-37
-37
-36
-37
-37
-38
-37
-37
-37
-37
-38
-37
-37
-36
-36
-35
-36
-35
-35
-35
-34
-33
-32
-32
-32
-32
-31
-29
-29
-28
-29
-29
-29
-28
-27
-28
-28
-28
-29
-28
-28
-27
-26
-27
-27
-28
-28
-27
-27
-28
-28
-28
-28
-28
-27
-27
-28
-28
-28
-27
-27
-26
-26
-26
-27
-26
-27
-26
-25
-25
-25
-26
-25
-25
-25
-25
-25
-26
-26
-26
-25
-25
-25
-26
-27
-27
-26
-27
-26
-27
-28
-28
-29
-28
-29
-29
-29
-29
-29
-30
-30
-29
-29
-30
-30
-31
-31
-30
-31
-31
-32
-33
-33
-33
-34
-34
-34
-35
-36
-36
-36
-37
-37
-38
-38
-39
-38
-39
-38
-38
-38
-38
-38
-38
-37
-38
-37
-38
-37
-37
-37
-36
-36
-36
-36
-36
-36
-36
-36
-36
-37
-38
-38
-38
-37
-38
-37
-38
-38
-38
-37
-36
-37
-36
-37
-37
-36
-35
-34
-33
-33
-32
-33
-31
-31
-30
-29
-30
-29
-29
-28
-27
-27
-27
-28
-27
-28
-27
-27
-28
-29
-29
-29
-29
-29
-29
-30
-31
-31
-32
-31
-31
-31
-32
-32
-33
-33
-33
-32
-33
-33
-34
-34
-33
-33
-33
-33
-33
-34
-34
-32
-32
-32
-33
-33
-33
-33
-33
-32
-33
-34
-34
-34
-34
-34
-34
-35
-36
-36
-35
-36
-35
-35
-36
-37
-36
-37
-37
-36
-36
-37
-36
-36
-34
-33
-31
-31
-29
-28
-25
-22
-19
-16
-13
-10
-7
-3
1
6
10
13
18
22
26
30
33
37
39
41
43
44
45
46
45
43
41
38
35
31
26
19
12
5
-4
-13
-22
-32
-43
-54
-66
-78
-88
-101
-114
-126
-139
-151
-163
-174
-185
-195
-205
-214
-222
-228
-235
-240
-245
-250
-252
-254
-255
-255
-255
-254
-253
-250
-246
-242
-239
-234
-231
-226
-220
-215
-210
-203
-198
-193
-186
-180
-174
-167
-161
-154
-148
-142
-136
-129
-123
-118
-112
-106
-102
-97
-91
-87
-82
-77
-74
-69
-64
-61
-57
-56
-52
-50
-46
-44
-42
-40
-39
-38
-36
-34
-34
-33
-32
-32
-32
-31
-30
-30
-30
-31
-30
-31
-30
-30
-30
-30
-30
-30
-31
-30
-29
-30
-30
-30
-30
-28
-28
-27
-28
-28
-28
-28
-28
-27
-27
-27
-26
-26
-26
-24
-24
-24
-24
-23
-23
-22
-21
-21
-20
-21
-20
-20
-19
-19
-19
-19
-18
-18
-17
-17
-17
-17
-18
-17
-16
-16
-16
-15
-15
-15
-15
-15
-14
-14
-14
-14
-14
-14
-13
-13
-13
-14
-14
-13
-13
-13
-12
-11
-12
-12
-11
-10
-10
-9
-9
-8
-8
-7
-7
-5
-4
-4
-4
-4
-3
-2
0
0
0
1
1
2
3
4
4
5
5
6
7
9
9
10
10
11
12
13
15
16
17
17
18
20
21
23
24
25
25
27
27
29
30
31
31
32
34
34
35
36
37
37
37
38
39
39
40
40
40
40
41
42
42
43
43
43
44
45
46
46
47
47
47
47
48
48
49
48
48
48
48
48
48
48
47
46
46
46
45
45
44
43
42
41
41
40
40
38
37
36
35
35
33
33
31
30
29
28
27
26
24
23
22
21
20
19
19
17
16
14
13
12
12
10
9
7
7
5
4
4
2
1
-1
-2
-3
-4
-5
-6
-8
-9
-11
-12
-12
-14
-15
-16
-16
-18
-18
-20
-22
-23
-24
-24
-25
-25
-27
-27
-29
-29
-30
-31
-31
-31
-33
-33
-34
-34
-35
-35
-35
-36
-36
-37
-36
-36
-36
-36
-36
-36
-37
-37
-36
-37
-37
-37
-36
-37
-37
-36
-37
-37
-39
-38
-39
-39
-40
-40
-41
-42
-41
-42
-42
-43
-44
-44
-45
-45
-44
-44
-45
-45
-46
-46
-45
-45
-46
-46
-46
-46
-47
-46
-46
-47
-48
-48
-48
-47
-47
-48
-49
-49
-50
-49
-49
-49
-49
-51
-51
-51
-52
-51
-52
-52
-53
-54
-54
-54
-54
-54
-55
-55
-55
-55
-54
-55
-54
-55
-55
-55
-55
-55
-55
-54
-55
-56
-55
-55
-55
-55
-55
-56
-57
-57
-57
-57
-57
-57
-58
-58
-58
-58
-58
-59
-59
-58
-58
-57
-57
-57
-56
-56
-57
-56
-55
-54
-54
-54
-53
-53
-52
-52
-51
-52
-52
-52
-51
-51
-50
-50
-50
-50
-50
-50
-50
-49
-49
-50
-51
-51
-50
-50
-49
-50
-50
-50
-50
-50
-50
-50
-50
-51
-52
-52
-52
-51
-52
-53
-53
-54
-54
-54
-54
-54
-56
-55
-55
-55
-55
-55
-55
-55
-56
-56
-55
-55
-55
-55
-55
-55
-55
-55
-55
-55
-55
-55
-55
-54
-54
-53
-53
-53
-53
-53
-52
-51
-51
-51
-51
-52
-51
-50
-50
-51
-50
-51
-51
-50
-51
-50
-50
-51
-51
-51
-50
-50
-50
-51
-51
-51
-50
-50
-50
-50
-51
-51
-51
-51
-50
-50
-51
-52
-52
-52
-52
-53
-53
-55
-54
-55
-55
-56
-56
-56
-57
-59
-59
-59
-60
-60
-61
-62
-62
-62
-63
-62
-62
-63
-64
-64
-64
-64
-64
-64
-64
-64
-64
-64
-64
-63
-63
-63
-63
-63
-63
-62
-61
-61
-61
-61
-60
-60
-58
-58
-59
-58
-58
-57
-56
-55
-56
-55
-56
-54
-54
-54
-53
-54
-55
-55
-55
-55
-54
-56
-56
-56
-57
-57
-57
-57
-58
-59
-59
-60
-59
-59
-60
-59
-60
-59
-59
-59
-58
-59
-59
-59
-58
-57
-57
-56
-55
-56
-55
-55
-55
-53
-53
-54
-54
-54
-54
-53
-53
-53
-54
-54
-54
-54
-54
-54
-53
-54
-53
-54
-54
-53
-53
-54
-54
-55
-54
-55
-55
-55
-56
-56
-56
-56
-56
-56
-57
-57
-58
-57
-57
-56
-56
-55
-54
-53
-51
-48
-46
-43
-41
-38
-34
-30
-25
-21
-17
-13
-8
-4
1
6
11
15
19
23
26
29
32
33
34
36
36
36
35
33
31
27
22
17
11
5
-3
-11
-21
-29
-40
-50
-61
-72
-84
-96
-108
-120
-132
-144
-157
-170
-181
-192
-203
-212
-222
-230
-240
-247
-253
-259
-263
-267
-270
-273
-274
-274
-273
-271
-270
-268
-264
-261
-256
-252
-246
-241
-236
-230
-224
-217
-211
-205
-198
-192
-185
-178
-171
-164
-157
-151
-146
-139
-132
-126
-120
-114
-109
-103
-98
-94
-89
-84
-80
-76
-72
-68
-64
-61
-59
-56
-55
-53
-51
-49
-48
-48
-47
-47
-47
-46
-46
-46
-47
-48
-48
-47
-47
-47
-48
-48
-49
-49
-49
-49
-49
-49
-49
-50
-49
-48
-47
-48
-48
-47
-47
-46
-46
-45
-46
-46
-45
-45
-45
-44
-43
-44
-44
-44
-43
-43
-43
-43
-44
-43
-43
-43
-43
-43
-43
-43
-43
-42
-42
-43
-42
-42
-44
-43
-43
-43
-43
-43
-44
-44
-43
-43
-43
-43
-44
-44
-43
-42
-42
-41
-41
-41
-40
-39
-39
-38
-37
-36
-36
-36
-35
-33
-32
-32
-31
-30
-30
-30
-29
-27
-27
-27
-27
-26
-25
-24
-24
-23
-23
-23
-22
-21
-20
-20
-19
-19
-18
-17
-16
-15
-14
-14
-13
-13
-12
-10
-9
-9
-9
-8
-7
-6
-5
-4
-3
-3
-2
-2
0
1
2
2
3
4
4
6
7
7
7
7
8
10
10
11
10
10
11
11
12
12
13
12
12
12
12
13
12
12
12
12
11
13
12
13
13
12
11
12
12
12
12
11
11
11
11
11
12
12
11
11
10
11
11
10
10
9
8
8
7
7
6
5
3
2
1
0
-1
-3
-5
-7
-9
-10
-11
-13
-14
-17
-19
-21
-22
-23
-25
-27
-29
-30
-31
-32
-34
-35
-38
-39
-39
-40
-42
-43
-43
-46
-46
-47
-47
-48
-50
-50
-52
-54
-54
-55
-56
-57
-58
-60
-60
-62
-62
-63
-64
-66
-67
-68
-68
-69
-71
-72
-74
-74
-75
-75
-76
-77
-78
-79
-78
-79
-79
-78
-79
-79
-79
-79
-78
-78
-78
-78
-79
-78
-79
-78
-78
-78
-78
-79
-78
-78
-78
-78
-79
-79
-80
-80
-79
-80
-81
-81
-82
-82
-82
-82
-83
-83
-83
-84
-84
-84
-84
-84
-84
-86
-86
-86
-85
-86
-87
-87
-87
-88
-88
-88
-89
-90
-91
-91
-91
-91
-91
-92
-93
-93
-94
-93
-93
-92
-92
-94
-94
-94
-93
-93
-93
-92
-94
-93
-93
-93
-92
-92
-92
-93
-94
-94
-94
-93
-94
-95
-95
-96
-97
-96
-97
-98
-98
-99
-99
-99
-99
-99
-100
-100
-99
-100
-99
-98
-98
-98
-98
-98
-97
-97
-96
-96
-96
-97
-96
-96
-95
-95
-96
-96
-97
-96
-96
-95
-96
-97
-96
-96
-95
-95
-95
-95
-96
-95
-95
-94
-94
-93
-92
-93
-93
-93
-91
-91
-91
-91
-91
-91
-90
-90
-90
-90
-91
-91
-91
-91
-91
-90
-91
-92
-92
-92
-92
-91
-92
-92
-93
-92
-93
-93
-92
-93
-92
-93
-93
-92
-92
-92
-92
-93
-93
-94
-92
-93
-93
-93
-93
-93
-93
-92
-92
-92
-92
-92
-92
-91
-89
-89
-89
-89
-89
-88
-87
-86
-86
-86
-86
-86
-86
-85
-85
-86
-86
-87
-87
-87
-87
-88
-89
-90
-90
-90
-91
-91
-91
-92
-93
-93
-94
-93
-93
-94
-95
-95
-95
-96
-95
-96
-97
-98
-98
-99
-99
-99
-101
-101
-102
-103
-104
-104
-105
-105
-106
-106
-106
-106
-106
-106
-106
-107
-106
-106
-105
-105
-105
-106
-107
-107
-107
-106
-106
-107
-107
-108
-109
-109
-109
-110
-111
-111
-112
-111
-112
-113
-113
-112
-113
-113
-112
-112
-112
-111
-111
-110
-110
-109
-108
-107
-107
-106
-106
-105
-105
-104
-103
-103
-103
-104
-103
-102
-102
-103
-103
-103
-103
-104
-103
-104
-105
-105
-105
-106
-106
-106
-106
-106
-108
-108
-108
-108
-108
-108
-108
-109
-110
-109
-108
-109
-109
-110
-110
-111
-109
-110
-110
-111
-111
-112
-111
-111
-112
-112
-112
-113
-113
-112
-112
-112
-113
-113
-113
-113
-112
-112
-112
-112
-112
-113
-113
-112
-111
-112
-112
-113
-112
-112
-112
-113
-113
-113
-112
-112
-111
-110
-109
-107
-106
-104
-101
-98
-95
-93
-89
-86
-82
-77
-73
-68
-64
-60
-55
-51
-46
-41
-38
-36
-33
-32
-30
-29
-29
-29
-32
-34
-36
-39
-43
-48
-54
-62
-71
-79
-89
-98
-110
-121
-133
-145
-158
-170
-183
-197
-211
-225
-237
-250
-262
-274
-286
-297
-306
-316
-324
-331
-337
-344
-348
-352
-355
-356
-357
-357
-357
-355
-353
-349
-345
-340
-336
-331
-326
-320
-314
-308
-302
-295
-288
-282
-275
-267
-261
-254
-248
-240
-233
-226
-218
-212
-205
-199
-193
-186
-179
-173
-167
-162
-157
-151
-146
-141
-137
-132
-129
-126
-122
-119
-116
-113
-111
-110
-108
-106
-104
-103
-102
-101
-101
-101
-100
-99
-99
-99
-99
-99
-98
-98
-98
-97
-98
-98
-98
-98
-98
-97
-97
-97
-97
-98
-97
-97
-97
-97
-97
-97
-97
-96
-95
-95
-96
-95
-95
-95
-95
-94
-94
-94
-94
-94
-94
-93
-94
-93
-94
-94
-94
-93
-93
-92
-93
-92
-92
-91
-90
-90
-89
-89
-88
-88
-86
-86
-86
-85
-84
-84
-83
-82
-82
-81
-81
-81
-80
-80
-79
-78
-77
-78
-78
-77
-77
-77
-76
-75
-75
-76
-75
-74
-72
-73
-72
-73
-71
-71
-71
-70
-70
-70
-69
-69
-68
-67
-66
-66
-65
-65
-64
-62
-61
-61
-60
-59
-59
-58
-56
-54
-54
-53
-52
-52
-51
-49
-47
-47
-47
-47
-45
-44
-42
-43
-42
-41
-41
-40
-39
-38
-37
-36
-36
-35
-34
-33
-32
-32
-31
-31
-30
-29
-27
-28
-27
-26
-25
-24
-23
-23
-22
-22
-21
-21
-20
-18
-18
-18
-17
-17
-17
-15
-15
-15
-15
-15
-16
-15
-15
-15
-16
-17
-17
-18
-18
-18
-18
-19
-20
-21
-22
-22
-22
-22
-24
-25
-26
-26
-27
-27
-28
-29
-32
-32
-33
-34
-35
-36
-39
-40
-41
-43
-44
-46
-48
-50
-52
-54
-54
-56
-58
-60
-61
-62
-64
-65
-66
-68
-70
-71
-73
-74
-74
-75
-77
-78
-79
-79
-81
-81
-82
-83
-85
-85
-86
-87
-87
-88
-90
-91
-91
-91
-92
-93
-93
-95
-96
-96
-97
-98
-99
-100
-100
-102
-102
-102
-103
-104
-105
-106
-106
-106
-106
-107
-108
-109
-110
-109
-110
-110
-110
-110
-111
-112
-111
-111
-112
-112
-112
-113
-112
-112
-112
-111
-112
-112
-112
-111
-111
-111
-111
-111
-111
-111
-111
-110
-111
-110
-111
-111
-111
-111
-111
-111
-112
-113
-113
-113
-113
-113
-114
-115
-115
-116
-116
-116
-116
-117
-118
-118
-117
-117
-116
-116
-117
-117
-117
-117
-116
-116
-115
-115
-116
-116
-115
-115
-114
-114
-115
-115
-115
-115
-114
-115
-115
-115
-116
-116
-115
-115
-115
-115
-116
-116
-116
-116
-115
-116
-116
-116
-117
-116
-115
-115
-116
-117
-117
-117
-116
-117
-117
-117
-117
-117
-118
-117
-117
-117
-118
-117
-118
-118
-117
-117
-117
-118
-118
-119
-119
-118
-118
-119
-119
-119
-120
-119
-119
-119
-119
-119
-120
-118
-118
-118
-118
-118
-118
-117
-117
-116
-115
-115
-115
-115
-114
-114
-113
-114
-113
-113
-112
-112
-111
-111
-111
-111
-111
-110
-110
-109
-110
-109
-110
-110
-110
-109
-109
-110
-110
-110
-111
-110
-110
-110
-110
-112
-112
-112
-111
-112
-111
-113
-112
-112
-112
-111
-112
-111
-112
-111
-110
-110
-109
-109
-109
-109
-109
-108
-107
-107
-106
-107
-107
-107
-106
-107
-106
-106
-107
-107
-107
-107
-106
-106
-108
-108
-108
-108
-108
-107
-107
-107
-108
-108
-108
-107
-107
-108
-108
-108
-109
-109
-109
-110
-110
-111
-112
-112
-113
-113
-114
-115
-116
-116
-116
-117
-118
-117
-119
-120
-119
-119
-118
-119
-119
-119
-119
-119
-119
-118
-119
-119
-120
-120
-120
-119
-119
-120
-120
-120
-120
-120
-119
-120
-120
-120
-121
-120
-119
-119
-119
-120
-119
-119
-119
-118
-118
-118
-118
-117
-117
-116
-115
-114
-114
-114
-114
-114
-113
-112
-112
-112
-111
-112
-111
-111
-111
-111
-111
-111
-111
-110
-110
-111
-111
-111
-112
-112
-111
-111
-111
-112
-112
-112
-112
-112
-112
-112
-113
-113
-113
-113
-113
-112
-113
-113
-113
-113
-113
-113
-113
-112
-113
-113
-112
-112
-112
-112
-112
-112
-112
-112
-110
-111
-111
-111
-110
-110
-109
-110
-110
-110
-110
-110
-109
-109
-110
-110
-110
-111
-110
-110
-110
-110
-110
-109
-108
-107
-104
-103
-101
-99
-97
-94
-90
-86
-83
-79
-75
-70
-66
-60
-55
-51
-47
-43
-39
-36
-32
-29
-28
-26
-26
-26
-28
-28
-31
-34
-39
-44
-51
-57
-65
-73
-83
-94
-105
-116
-128
-140
-154
-167
-181
-195
-209
-222
-235
-249
-262
-274
-285
-296
-306
-315
-323
-331
-339
-344
-348
-351
-354
-356
-357
-357
-356
-354
-351
-348
-345
-340
-335
-330
-323
-318
-312
-306
-300
-292
-285
-278
-271
-264
-257
-250
-243
-235
-227
-220
-213
-205
-199
-191
-184
-177
-170
-164
-158
-152
-146
-141
-135
-131
-126
-123
-119
-115
-111
-109
-107
-105
-103
-101
-100
-99
-98
-98
-98
-97
-96
-97
-96
-97
-97
-98
-97
-97
-96
-96
-97
-98
-97
-97
-96
-96
-96
-96
-95
-95
-95
-94
-94
-94
-94
-95
-94
-95
-94
-94
-94
-94
-94
-94
-94
-94
-93
-93
-93
-93
-92
-91
-91
-90
-91
-90
-89
-89
-87
-88
-87
-87
-86
-85
-85
-85
-85
-85
-85
-85
-84
-84
-84
-84
-84
-84
-84
-83
-84
-84
-83
-84
-84
-83
-83
-82
-83
-83
-83
-83
-83
-82
-82
-82
-82
-83
-82
-81
-81
-82
-81
-82
-80
-80
-79
-78
-77
-77
-76
-76
-74
-74
-73
-72
-71
-70
-69
-68
-66
-66
-65
-64
-63
-61
-60
-59
-59
-58
-58
-57
-55
-55
-54
-54
-53
-53
-52
-51
-49
-49
-49
-48
-47
-46
-45
-43
-42
-41
-41
-40
-38
-36
-35
-34
-34
-33
-31
-30
-29
-28
-27
-27
-26
-24
-23
-22
-22
-22
-21
-20
-19
-18
-18
-19
-18
-18
-17
-17
-17
-17
-18
-18
-17
-16
-17
-17
-17
-17
-19
-18
-19
-18
-19
-19
-21
-21
-22
-22
-22
-23
-24
-25
-26
-26
-26
-27
-28
-30
-30
-31
-32
-33
-33
-35
-37
-38
-38
-39
-41
-43
-44
-46
-47
-48
-50
-50
-52
-54
-56
-57
-59
-60
-62
-64
-65
-66
-67
-68
-70
-72
-74
-75
-76
-77
-78
-80
-80
-82
-83
-84
-85
-85
-86
-87
-89
-90
-91
-90
-91
-93
-94
-94
-95
-95
-96
-97
-97
-99
-100
-101
-100
-101
-102
-103
-104
-105
-106
-105
-105
-107
-107
-108
-108
-108
-108
-109
-109
-110
-111
-111
-112
-111
-112
-113
-114
-114
-115
-115
-115
-115
-116
-116
-116
-116
-115
-115
-116
-116
-116
-115
-115
-114
-114
-114
-115
-115
-115
-114
-114
-114
-115
-115
-115
-115
-114
-114
-114
-116
-115
-116
-115
-115
-115
-115
-117
-117
-117
-116
-117
-116
-117
-118
-118
-117
-117
-116
-116
-118
-118
-117
-117
-117
-117
-117
-117
-117
-118
-116
-117
-117
-118
-118
-118
-117
-117
-117
-118
-119
-119
-119
-119
-118
-119
-120
-120
-121
-121
-121
-121
-122
-123
-124
-125
-126
-125
-126
-126
-128
-128
-128
-128
-128
-128
-127
-127
-128
-127
-126
-126
-126
-125
-125
-125
-123
-122
-122
-122
-122
-122
-121
-121
-121
-120
-120
-121
-121
-121
-121
-120
-120
-121
-121
-121
-121
-120
-120
-120
-122
-121
-121
-121
-121
-121
-121
-121
-122
-122
-121
-121
-121
-122
-122
-122
-122
-121
-122
-122
-122
-122
-122
-122
-122
-122
-122
-123
-123
-123
-123
-122
-123
-123
-123
-122
-122
-122
-122
-122
-122
-122
-122
-121
-120
-120
-120
-120
-120
-120
-119
-118
-118
-118
-117
-116
-115
-114
-113
-112
-111
-112
-110
-109
-108
-108
-107
-107
-107
-107
-105
-106
-105
-106
-106
-106
-106
-106
-106
-107
-107
-108
-108
-108
-108
-109
-109
-109
-111
-111
-110
-112
-112
-113
-114
-115
-114
-114
-115
-115
-116
-118
-118
-118
-119
-119
-119
-120
-120
-121
-121
-121
-121
-121
-122
-122
-122
-121
-121
-122
-123
-123
-123
-122
-122
-122
-122
-123
-123
-123
-123
-122
-123
-123
-123
-123
-122
-122
-122
-122
-123
-123
-123
-122
-121
-122
-122
-122
-122
-122
-121
-120
-120
-120
-119
-119
-118
-118
-117
-117
-116
-116
-115
-116
-114
-114
-115
-114
-114
-114
-113
-113
-113
-114
-114
-114
-114
-114
-113
-114
-115
-115
-115
-115
-115
-114
-115
-115
-115
-115
-114
-114
-113
-114
-114
-113
-113
-112
-111
-111
-111
-111
-111
-110
-110
-110
-111
-111
-111
-111
-111
-111
-111
-112
-112
-112
-113
-112
-112
-112
-112
-112
-111
-111
-110
-109
-109
-109
-108
-106
-105
-103
-101
-101
-98
-96
-93
-90
-88
-85
-82
-79
-76
-72
-68
-64
-60
-56
-52
-47
-42
-38
-34
-29
-25
-21
-18
-14
-11
-9
-8
-6
-6
-6
-8
-10
-13
-17
-22
-28
-33
-41
-50
-60
-69
-81
-92
-103
-116
-129
-141
-155
-167
-180
-193
-205
-218
-230
-241
-250
-260
-269
-277
-284
-291
-296
-301
-304
-306
-308
-310
-311
-310
-308
-307
-304
-302
-299
-296
-291
-287
-282
-278
-273
-269
-263
-258
-252
-247
-241
-236
-231
-225
-220
-213
-209
-203
-198
-194
-188
-183
-177
-172
-167
-163
-158
-153
-148
-143
-139
-136
-132
-127
-124
-120
-116
-113
-110
-107
-105
-102
-99
-97
-97
-96
-93
-92
-90
-89
-88
-87
-88
-86
-86
-85
-85
-84
-84
-83
-84
-83
-83
-82
-83
-82
-82
-81
-81
-80
-80
-80
-80
-79
-78
-78
-77
-77
-76
-77
-76
-76
-76
-76
-76
-77
-76
-76
-75
-75
-75
-76
-77
-76
-76
-76
-76
-77
-76
-76
-76
-77
-76
-76
-77
-77
-77
-77
-77
-76
-76
-76
-77
-76
-75
-74
-73
-74
-73
-72
-72
-71
-71
-71
-70
-70
-69
-68
-67
-67
-67
-66
-67
-66
-65
-65
-64
-64
-64
-64
-63
-63
-63
-62
-62
-63
-61
-61
-60
-60
-59
-59
-58
-57
-56
-55
-53
-53
-52
-50
-49
-48
-46
-45
-44
-43
-42
-40
-38
-37
-36
-36
-35
-34
-31
-31
-30
-29
-28
-28
-27
-26
-25
-25
-25
-24
-24
-23
-22
-21
-21
-21
-21
-20
-20
-19
-19
-18
-18
-19
-18
-16
-15
-15
-15
-15
-13
-13
-12
-11
-11
-11
-11
-10
-9
-8
-8
-8
-9
-8
-8
-8
-8
-8
-9
-9
-9
-10
-9
-9
-10
-10
-11
-11
-12
-12
-13
-14
-15
-15
-16
-17
-17
-18
-20
-21
-22
-23
-24
-26
-27
-29
-30
-32
-33
-34
-35
-37
-39
-41
-42
-43
-45
-45
-48
-50
-52
-53
-54
-55
-57
-59
-61
-63
-64
-65
-67
-69
-71
-73
-74
-75
-77
-78
-80
-81
-82
-82
-83
-83
-84
-85
-86
-86
-86
-85
-86
-86
-86
-86
-86
-86
-86
-86
-87
-88
-87
-87
-87
-87
-87
-88
-89
-88
-88
-89
-89
-89
-90
-91
-91
-91
-91
-92
-92
-94
-93
-93
-93
-94
-94
-95
-95
-95
-95
-95
-95
-94
-96
-95
-95
-95
-94
-95
-95
-95
-94
-93
-93
-93
-93
-94
-94
-94
-94
-93
-93
-94
-95
-95
-95
-96
-96
-97
-97
-98
-99
-99
-99
-98
-99
-100
-100
-99
-99
-98
-98
-98
-98
-98
-98
-96
-96
-96
-96
-96
-95
-95
-94
-94
-93
-94
-94
-94
-94
-93
-93
-94
-95
-95
-96
-95
-95
-96
-96
-96
-96
-96
-96
-95
-96
-97
-96
-96
-96
-95
-95
-95
-95
-95
-95
-94
-94
-94
-94
-94
-94
-94
-93
-93
-94
-94
-95
-95
-95
-94
-94
-95
-95
-96
-96
-96
-96
-97
-97
-98
-98
-98
-97
-98
-99
-99
-100
-100
-99
-100
-100
-101
-101
-101
-102
-101
-101
-101
-102
-102
-102
-102
-102
-101
-102
-102
-101
-101
-101
-99
-99
-100
-100
-100
-99
-99
-98
-98
-99
-98
-98
-98
-97
-96
-97
-97
-97
-97
-96
-95
-95
-95
-96
-95
-95
-96
-94
-95
-95
-95
-95
-95
-94
-93
-94
-94
-94
-94
-94
-93
-94
-94
-95
-94
-94
-94
-93
-93
-93
-93
-93
-92
-92
-92
-91
-92
-92
-92
-91
-90
-91
-91
-91
-92
-92
-92
-92
-92
-94
-94
-94
-95
-95
-95
-96
-97
-98
-98
-98
-99
-100
-100
-101
-102
-102
-101
-102
-102
-103
-103
-103
-103
-102
-102
-102
-102
-103
-102
-102
-102
-102
-102
-103
-103
-102
-102
-102
-102
-101
-102
-101
-100
-100
-99
-99
-100
-99
-98
-97
-96
-97
-96
-96
-95
-95
-94
-93
-94
-93
-93
-92
-92
-91
-91
-91
-92
-92
-91
-92
-91
-91
-91
-92
-92
-92
-91
-91
-91
-91
-92
-92
-91
-91
-91
-90
-91
-91
-91
-91
-90
-91
-90
-91
-91
-91
-91
-91
-92
-92
-93
-94
-93
-93
-93
-93
-93
-94
-94
-93
-93
-93
-93
-93
-93
-92
-91
-90
-90
-91
-90
-90
-89
-88
-87
-87
-87
-86
-85
-86
-86
-84
-85
-84
-84
-83
-83
-82
-82
-82
-81
-81
-80
-78
-77
-76
-75
-73
-71
-70
-67
-65
-62
-59
-56
-52
-49
-45
-41
-38
-34
-29
-25
-21
-18
-14
-11
-9
-6
-3
0
2
3
3
3
2
1
0
-3
-6
-10
-14
-18
-24
-30
-37
-44
-54
-62
-71
-81
-91
-101
-113
-124
-134
-145
-156
-166
-177
-188
-198
-207
-215
-223
-231
-238
-244
-249
-253
-257
-259
-261
-263
-264
-263
-263
-261
-260
-257
-255
-252
-249
-244
-241
-237
-233
-229
-225
-220
-215
-210
-206
-202
-198
-193
-188
-183
-178
-174
-169
-165
-160
-155
-150
-146
-142
-138
-134
-129
-124
-121
-116
-113
-109
-105
-101
-99
-95
-93
-90
-87
-84
-81
-78
-76
-74
-73
-71
-69
-68
-66
-66
-65
-65
-64
-63
-62
-62
-62
-62
-61
-62
-61
-60
-61
-61
-61
-60
-60
-60
-60
-60
-61
-60
-60
-60
-59
-59
-60
-60
-60
-59
-58
-59
-58
-58
-58
-57
-57
-57
-56
-56
-56
-56
-55
-55
-54
-55
-55
-54
-54
-54
-54
-53
-53
-54
-53
-53
-53
-52
-52
-52
-52
-52
-51
-50
-50
-49
-50
-50
-50
-50
-49
-49
-48
-48
-49
-49
-47
-47
-47
-46
-47
-46
-46
-45
-45
-44
-44
-44
-43
-41
-40
-39
-39
-39
-38
-37
-35
-34
-34
-33
-32
-32
-31
-30
-30
-28
-28
-28
-27
-27
-25
-24
-24
-24
-23
-23
-21
-20
-19
-18
-18
-18
-17
-15
-15
-15
-14
-14
-13
-11
-10
-10
-9
-8
-8
-7
-6
-5
-4
-3
-4
-3
-2
-1
0
1
1
2
2
3
4
5
5
5
6
6
8
8
8
9
8
9
9
10
10
10
10
10
10
10
11
11
10
10
10
10
9
9
9
8
7
6
5
5
4
2
1
0
-1
-2
-3
-3
-5
-6
-9
-10
-11
-11
-12
-14
-15
-16
-17
-18
-18
-19
-20
-21
-21
-22
-22
-22
-23
-24
-25
-26
-26
-27
-28
-29
-30
-32
-33
-34
-35
-37
-38
-40
-41
-42
-44
-44
-47
-48
-49
-51
-51
-52
-53
-54
-55
-56
-57
-58
-58
-58
-59
-61
-61
-62
-61
-62
-63
-63
-65
-65
-65
-64
-66
-67
-67
-68
-68
-68
-68
-69
-70
-70
-71
-71
-71
-71
-72
-72
-73
-73
-72
-73
-73
-74
-74
-75
-75
-75
-75
-76
-76
-77
-77
-77
-77
-77
-78
-78
-78
-79
-78
-78
-78
-79
-79
-80
-80
-79
-80
-79
-80
-80
-80
-81
-80
-80
-80
-81
-82
-82
-82
-81
-82
-81
-82
-82
-81
-81
-80
-80
-81
-81
-81
-79
-81
-80
-79
-79
-79
-79
-78
-78
-79
-78
-78
-78
-78
-78
-78
-77
-78
-78
-78
-78
-76
-77
-76
-77
-77
-77
-76
-76
-75
-75
-75
-76
-75
-74
-74
-74
-74
-74
-74
-74
-74
-74
-74
-75
-75
-74
-74
-74
-74
-74
-74
-75
-74
-74
-75
-75
-75
-75
-75
-75
-74
-74
-75
-74
-75
-75
-74
-74
-74
-74
-74
-74
-75
-74
-74
-74
-75
-75
-74
-74
-74
-75
-74
-74
-75
-75
-74
-73
-74
-74
-74
-74
-74
-73
-73
-73
-74
-74
-74
-74
-72
-73
-73
-73
-74
-74
-74
-74
-73
-74
-75
-75
-75
-75
-74
-75
-74
-74
-74
-73
-73
-72
-72
-71
-71
-71
-70
-70
-69
-69
-69
-68
-69
-68
-68
-68
-68
-68
-68
-68
-68
-68
-68
-69
-68
-68
-69
-69
-69
-70
-71
-71
-71
-71
-70
-71
-71
-72
-72
-72
-72
-73
-73
-74
-75
-75
-76
-75
-76
-78
-78
-79
-79
-80
-81
-81
-82
-84
-84
-84
-84
-84
-85
-85
-86
-86
-86
-86
-85
-86
-86
-87
-87
-87
-87
-87
-87
-87
-87
-87
-86
-87
-87
-87
-88
-87
-87
-86
-86
-86
-86
-86
-86
-85
-85
-85
-84
-85
-84
-84
-83
-82
-82
-83
-83
-82
-81
-82
-81
-81
-81
-82
-82
-81
-81
-81
-81
-82
-82
-82
-82
-82
-83
-83
-83
-84
-83
-82
-83
-82
-83
-84
-83
-82
-82
-82
-82
-82
-82
-81
-81
-80
-80
-80
-80
-80
-80
-80
-79
-79
-80
-80
-80
-80
-80
-80
-80
-81
-81
-81
-81
-80
-81
-82
-82
-82
-83
-82
-83
-83
-84
-84
-84
-84
-84
-83
-83
-83
-83
-83
-82
-81
-81
-80
-79
-78
-75
-73
-71
-69
-66
-64
-61
-59
-55
-51
-48
-44
-40
-35
-30
-26
-22
-19
-15
-12
-8
-6
-3
-2
-1
-1
-1
-1
-2
-5
-8
-12
-16
-21
-26
-33
-41
-49
-56
-65
-74
-84
-94
-105
-116
-128
-140
-152
-163
-176
-188
-200
-211
-222
-232
-241
-252
-261
-268
-276
-282
-287
-292
-296
-299
-300
-302
-301
-300
-300
-298
-295
-291
-288
-283
-279
-273
-268
-263
-257
-252
-246
-241
-234
-229
-224
-217
-210
-204
-198
-193
-186
-180
-174
-167
-161
-156
-150
-145
-139
-133
-128
-122
-118
-113
-109
-104
-99
-95
-92
-88
-86
-82
-79
-76
-73
-71
-69
-68
-65
-64
-62
-60
-59
-59
-59
-58
-57
-57
-56
-56
-56
-56
-56
-56
-55
-56
-55
-56
-56
-55
-54
-54
-54
-54
-54
-54
-54
-53
-53
-53
-53
-52
-51
-50
-50
-51
-50
-50
-49
-49
-48
-48
-48
-48
-48
-48
-46
-46
-46
-46
-46
-46
-45
-45
-44
-44
-44
-45
-44
-44
-43
-43
-43
-43
-43
-43
-43
-41
-41
-41
-41
-41
-40
-39
-39
-38
-38
-38
-38
-36
-36
-35
-35
-35
-34
-34
-33
-32
-32
-32
-32
-32
-31
-30
-29
-30
-30
-29
-29
-29
-28
-27
-26
-26
-26
-25
-23
-22
-21
-21
-20
-19
-18
-15
-15
-13
-12
-11
-10
-9
-7
-6
-4
-3
-3
-1
1
2
3
3
4
5
6
8
9
10
10
11
12
12
14
14
14
15
16
16
17
18
18
19
19
20
20
21
23
23
23
23
23
25
25
26
26
26
26
27
28
28
29
29
29
29
30
30
30
31
30
30
30
30
31
30
29
29
28
28
28
28
27
26
25
25
24
24
23
22
21
20
19
18
18
17
15
14
13
12
11
10
9
8
6
4
4
4
2
1
0
-2
-3
-4
-5
-6
-8
-9
-10
-11
-12
-14
-15
-17
-18
-20
-20
-21
-23
-24
-26
-27
-28
-29
-30
-31
-32
-34
-35
-35
-36
-36
-37
-38
-40
-41
-41
-41
-42
-43
-43
-44
-44
-45
-45
-45
-46
-46
-47
-47
-47
-47
-47
-49
-49
-49
-49
-49
-50
-49
-50
-51
-51
-51
-51
-51
-52
-52
-53
-53
-54
-53
-53
-55
-55
-55
-55
-55
-56
-56
-56
-57
-57
-57
-56
-57
-57
-58
-58
-58
-57
-57
-57
-58
-58
-58
-56
-56
-56
-55
-56
-56
-56
-55
-55
-55
-55
-55
-55
-54
-54
-54
-55
-55
-55
-55
-55
-56
-55
-56
-56
-57
-57
-57
-57
-57
-57
-58
-59
-59
-58
-59
-59
-60
-60
-60
-60
-59
-59
-60
-60
-60
-60
-60
-59
-60
-60
-60
-61
-61
-61
-60
-61
-62
-62
-62
-63
-62
-61
-62
-63
-63
-63
-63
-62
-62
-63
-64
-64
-64
-64
-64
-64
-64
-65
-65
-65
-65
-65
-66
-66
-66
-66
-66
-66
-65
-65
-65
-65
-65
-64
-64
-63
-64
-64
-63
-62
-62
-61
-61
-62
-62
-61
-61
-61
-60
-61
-61
-62
-62
-62
-62
-62
-62
-63
-63
-63
-63
-64
-64
-65
-65
-65
-65
-65
-65
-65
-65
-65
-65
-64
-64
-64
-64
-65
-64
-64
-63
-63
-62
-63
-63
-63
-63
-61
-62
-62
-62
-63
-63
-62
-62
-62
-63
-63
-63
-63
-63
-62
-63
-63
-63
-63
-63
-62
-62
-62
-63
-63
-63
-62
-62
-62
-63
-64
-63
-64
-65
-65
-65
-65
-67
-67
-67
-68
-68
-69
-71
-71
-72
-72
-73
-73
-74
-74
-75
-75
-75
-75
-76
-76
-76
-77
-77
-76
-77
-77
-78
-78
-78
-78
-77
-77
-77
-78
-77
-77
-76
-76
-76
-75
-76
-76
-75
-73
-73
-73
-73
-72
-73
-72
-71
-71
-72
-71
-71
-71
-71
-69
-69
-70
-69
-70
-69
-68
-68
-68
-68
-69
-68
-68
-68
-68
-69
-68
-69
-68
-69
-68
-68
-69
-69
-69
-69
-69
-69
-70
-71
-70
-70
-70
-69
-69
-70
-70
-69
-68
-68
-68
-67
-68
-67
-67
-66
-65
-65
-65
-65
-65
-65
-65
-64
-64
-64
-65
-65
-65
-64
-64
-65
-65
-65
-65
-65
-64
-64
-64
-65
-65
-64
-64
-64
-64
-64
-64
-64
-63
-63
-62
-60
-60
-59
-57
-54
-52
-50
-47
-46
-43
-39
-35
-31
-27
-23
-20
-14
-9
-4
1
6
11
14
18
23
26
29
30
31
32
33
32
31
29
25
20
15
10
3
-4
-13
-22
-33
-43
-54
-64
-75
-88
-102
-115
-129
-142
-155
-168
-181
-194
-207
-219
-230
-240
-250
-260
-268
-275
-282
-286
-291
-294
-297
-300
-300
-299
-297
-295
-293
-290
-285
-280
-274
-269
-262
-257
-250
-244
-237
-229
-221
-215
-207
-200
-193
-185
-176
-170
-162
-156
-149
-141
-134
-126
-120
-114
-108
-102
-95
-90
-85
-80
-76
-71
-68
-64
-60
-57
-55
-53
-50
-47
-45
-44
-43
-42
-41
-40
-39
-38
-37
-38
-38
-37
-37
-36
-36
-36
-36
-36
-37
-36
-36
-35
-35
-36
-36
-36
-35
-35
-35
-35
-36
-35
-35
-34
-34
-33
-34
-34
-33
-33
-33
-32
-32
-32
-32
-32
-31
-31
-30
-31
-31
-30
-31
-30
-30
-30
-30
-30
-30
-30
-28
-28
-28
-28
-29
-28
-27
-27
-27
-27
-26
-27
-26
-26
-26
-25
-26
-25
-26
-26
-25
-25
-25
-25
-25
-25
-25
-24
-24
-24
-24
-24
-24
-24
-22
-22
-22
-23
-21
-21
-20
-19
-18
-17
-17
-16
-15
-14
-13
-11
-12
-10
-10
-9
-8
-7
-7
-6
-6
-4
-3
-1
-1
-1
-1
0
1
3
4
4
4
5
6
8
8
9
9
10
11
12
14
14
16
15
16
16
17
18
19
20
20
20
21
22
24
24
24
25
25
27
28
28
30
29
29
30
31
32
33
34
34
34
35
36
36
37
36
36
36
37
37
37
37
36
35
35
34
34
34
33
31
30
30
29
28
28
26
25
24
25
23
23
22
22
20
19
19
18
18
16
15
14
13
12
12
11
8
7
5
5
4
2
1
-1
-4
-5
-7
-8
-9
-11
-14
-15
-18
-19
-19
-22
-24
-25
-27
-28
-29
-30
-31
-32
-33
-34
-35
-36
-36
-38
-38
-39
-40
-40
-41
-41
-43
-44
-44
-45
-45
-45
-46
-47
-48
-49
-49
-49
-50
-51
-51
-52
-52
-53
-53
-53
-53
-54
-54
-54
-54
-54
-54
-55
-56
-56
-56
-56
-56
-56
-58
-58
-58
-58
-59
-59
-59
-61
-61
-60
-61
-60
-61
-62
-62
-62
-62
-62
-62
-62
-63
-63
-63
-62
-62
-62
-63
-63
-63
-62
-62
-61
-61
-61
-61
-60
-60
-59
-59
-59
-59
-59
-59
-58
-58
-58
-57
-58
-58
-58
-58
-57
-57
-59
-59
-59
-58
-59
-59
-59
-61
-61
-62
-62
-62
-63
-64
-65
-66
-67
-67
-67
-68
-69
-69
-70
-70
-70
-70
-71
-71
-71
-72
-71
-70
-71
-71
-71
-70
-71
-71
-70
-69
-71
-70
-70
-70
-70
-70
-71
-71
-71
-72
-71
-71
-71
-72
-72
-72
-72
-72
-72
-72
-72
-72
-72
-72
-71
-72
-72
-73
-72
-72
-73
-73
-73
-73
-73
-74
-73
-73
-73
-74
-74
-75
-74
-74
-73
-74
-74
-74
-74
-74
-74
-73
-73
-73
-74
-74
-73
-72
-72
-72
-73
-73
-73
-73
-73
-73
-73
-73
-74
-74
-74
-74
-74
-75
-75
-74
-75
-74
-74
-74
-74
-73
-73
-73
-73
-73
-72
-72
-71
-71
-72
-71
-71
-71
-70
-70
-70
-70
-70
-71
-71
-71
-72
-72
-73
-72
-74
-74
-75
-76
-75
-75
-75
-76
-76
-77
-76
-76
-76
-76
-76
-76
-76
-75
-75
-74
-75
-75
-75
-74
-75
-74
-75
-76
-76
-76
-76
-76
-76
-76
-77
-78
-79
-78
-79
-78
-79
-79
-80
-80
-81
-80
-81
-81
-81
-82
-81
-81
-81
-81
-82
-83
-83
-83
-83
-83
-83
-84
-85
-85
-85
-85
-85
-85
-86
-86
-86
-86
-86
-86
-86
-87
-87
-87
-87
-86
-87
-87
-88
-88
-88
-88
-88
-88
-88
-88
-88
-87
-86
-87
-86
-86
-85
-85
-85
-84
-83
-83
-83
-82
-81
-82
-81
-81
-81
-80
-81
-80
-80
-81
-81
-81
-81
-81
-80
-80
-81
-81
-81
-81
-81
-80
-81
-81
-81
-81
-81
-80
-80
-80
-80
-80
-81
-79
-80
-79
-80
-79
-80
-80
-80
-80
-80
-80
-81
-82
-81
-82
-82
-82
-83
-82
-82
-82
-81
-82
-82
-83
-84
-84
-84
-84
-83
-83
-83
-82
-80
-79
-76
-73
-72
-70
-67
-62
-58
-54
-50
-45
-40
-34
-28
-22
-16
-11
-5
1
7
13
17
23
26
29
32
34
36
37
36
34
32
29
25
20
13
5
-3
-12
-21
-32
-43
-55
-68
-82
-94
-109
-122
-134
-148
-161
-175
-187
-198
-209
-219
-229
-237
-245
-252
-258
-262
-267
-270
-273
-275
-276
-276
-274
-273
-272
-270
-267
-264
-260
-256
-253
-249
-245
-240
-236
-231
-226
-221
-217
-212
-205
-200
-194
-188
-183
-178
-171
-165
-158
-153
-147
-141
-136
-129
-124
-118
-112
-107
-103
-99
-94
-91
-87
-84
-82
-78
-76
-73
-71
-70
-69
-68
-67
-65
-65
-64
-63
-63
-63
-63
-62
-62
-61
-61
-61
-61
-62
-61
-61
-61
-61
-62
-61
-60
-60
-59
-59
-59
-59
-58
-57
-57
-56
-56
-55
-54
-54
-54
-53
-53
-52
-52
-52
-52
-52
-51
-51
-52
-51
-52
-51
-51
-51
-51
-51
-51
-51
-50
-50
-50
-51
-51
-52
-51
-51
-50
-51
-51
-52
-51
-52
-51
-51
-51
-51
-50
-51
-50
-49
-48
-48
-47
-46
-45
-43
-42
-42
-41
-40
-40
-38
-37
-35
-35
-34
-33
-33
-31
-29
-28
-28
-27
-26
-25
-24
-22
-21
-21
-20
-19
-18
-17
-16
-15
-15
-14
-13
-12
-12
-10
-10
-10
-9
-8
-7
-6
-5
-5
-5
-4
-3
-1
-1
0
1
1
3
3
5
5
6
6
7
8
9
10
11
11
12
12
13
13
15
14
15
15
16
17
18
19
19
19
20
20
22
23
23
24
24
24
26
27
28
28
28
28
28
28
30
30
29
28
29
29
29
29
28
27
26
26
26
25
25
24
23
22
21
21
20
19
17
16
15
14
13
12
10
9
7
5
4
3
2
0
-2
-4
-6
-7
-9
-10
-12
-13
-14
-16
-17
-18
-19
-21
-22
-24
-25
-26
-27
-28
-29
-31
-31
-32
-34
-35
-36
-38
-39
-40
-40
-41
-43
-44
-46
-47
-47
-48
-49
-51
-53
-53
-55
-55
-56
-56
-58
-59
-59
-60
-60
-60
-60
-61
-61
-62
-61
-61
-60
-61
-60
-61
-61
-61
-61
-60
-61
-61
-62
-62
-61
-61
-62
-63
-63
-63
-64
-63
-64
-64
-65
-65
-65
-64
-64
-64
-65
-65
-64
-64
-64
-63
-63
-63
-64
-64
-63
-63
-62
-63
-63
-63
-63
-63
-63
-63
-64
-64
-65
-64
-64
-64
-65
-65
-65
-65
-65
-65
-65
-64
-65
-65
-65
-64
-64
-64
-65
-65
-65
-65
-64
-64
-64
-65
-66
-66
-65
-66
-66
-66
-67
-67
-67
-67
-67
-67
-68
-68
-69
-69
-68
-67
-67
-67
-67
-67
-66
-65
-65
-64
-64
-64
-64
-63
-62
-63
-62
-62
-62
-62
-61
-60
-60
-61
-62
-62
-61
-61
-61
-61
-61
-61
-61
-61
-61
-61
-62
-62
-62
-62
-61
-62
-62
-62
-63
-63
-63
-62
-61
-62
-62
-62
-62
-61
-61
-61
-61
-61
-61
-60
-60
-59
-59
-59
-59
-59
-58
-58
-57
-57
-57
-57
-57
-55
-55
-55
-55
-55
-55
-54
-54
-53
-54
-54
-54
-55
-54
-54
-55
-55
-55
-56
-56
-56
-56
-56
-56
-57
-57
-56
-56
-56
-55
-55
-54
-54
-54
-53
-52
-51
-51
-51
-50
-50
-50
-49
-49
-50
-50
-49
-49
-49
-49
-50
-50
-50
-51
-50
-50
-50
-51
-53
-52
-53
-52
-53
-53
-54
-54
-54
-53
-54
-54
-54
-55
-55
-55
-55
-55
-55
-55
-55
-54
-55
-55
-55
-55
-55
-55
-54
-55
-56
-55
-55
-57
-56
-57
-57
-57
-58
-58
-60
-59
-60
-61
-62
-62
-63
-64
-64
-64
-65
-66
-66
-67
-67
-68
-68
-67
-67
-68
-67
-67
-66
-65
-64
-64
-63
-62
-61
-60
-58
-59
-58
-57
-56
-55
-53
-52
-52
-52
-52
-50
-50
-49
-49
-49
-49
-49
-49
-48
-48
-49
-49
-49
-49
-49
-49
-50
-50
-51
-52
-52
-53
-52
-52
-54
-54
-55
-55
-54
-55
-56
-56
-57
-58
-58
-58
-58
-57
-58
-58
-59
-58
-58
-58
-57
-57
-57
-57
-55
-55
-55
-54
-54
-54
-53
-52
-52
-52
-52
-51
-52
-51
-51
-51
-52
-52
-52
-52
-52
-53
-52
-54
-54
-55
-54
-54
-55
-55
-56
-56
-57
-57
-57
-57
-57
-57
-57
-55
-54
-52
-50
-49
-47
-43
-41
-37
-33
-29
-26
-21
-17
-12
-5
-1
3
8
12
17
22
27
30
33
35
38
40
42
42
42
41
39
37
34
31
26
21
15
8
1
-7
-16
-25
-36
-46
-57
-68
-78
-88
-100
-111
-123
-132
-143
-152
-161
-170
-180
-187
-193
-199
-204
-208
-212
-216
-218
-219
-219
-219
-219
-218
-218
-215
-212
-210
-206
-203
-200
-196
-191
-187
-182
-178
-174
-170
-166
-161
-156
-151
-147
-143
-138
-134
-128
-123
-118
-113
-109
-104
-99
-95
-90
-85
-82
-77
-73
-69
-64
-60
-56
-53
-50
-46
-43
-40
-38
-35
-34
-31
-29
