# Simple Text Format
# Sampling Rate (Hz):= 1200.00
# Resolution:= 12
# Labels:= ECG	III
# Age:=	45
# Gender:=	Masculino
-22
-24
-24
-23
-22
-22
-23
-25
-26
-25
-25
-24
-24
-26
-27
-27
-27
-26
-25
-27
-28
-29
-29
-28
-27
-27
-28
-30
-30
-30
-29
-28
-28
-30
-31
-31
-30
-29
-28
-29
-31
-32
-31
-30
-29
-29
-30
-31
-31
-30
-29
-27
-27
-27
-27
-26
-24
-22
-20
-20
-19
-19
-16
-13
-9
-7
-5
-3
-1
2
6
10
13
15
17
21
25
29
32
34
35
36
39
42
45
47
47
48
48
50
51
53
52
51
49
47
46
45
42
37
32
26
21
16
11
5
-2
-10
-17
-23
-28
-33
-39
-46
-52
-56
-59
-60
-63
-65
-68
-70
-70
-68
-66
-64
-64
-63
-62
-59
-56
-53
-50
-49
-48
-46
-43
-40
-38
-37
-37
-37
-35
-33
-31
-30
-31
-32
-32
-31
-30
-30
-30
-31
-33
-33
-32
-31
-31
-33
-34
-36
-36
-35
-34
-34
-35
-37
-37
-37
-36
-35
-35
-36
-37
-36
-35
-34
-33
-34
-35
-36
-36
-34
-33
-33
-34
-35
-35
-34
-33
-31
-31
-32
-33
-32
-31
-29
-29
-29
-30
-31
-31
-29
-28
-27
-28
-29
-30
-29
-28
-27
-27
-28
-29
-29
-28
-26
-26
-27
-28
-29
-29
-28
-27
-26
-28
-29
-29
-28
-27
-26
-26
-27
-28
-28
-27
-25
-25
-26
-27
-28
-28
-26
-25
-25
-26
-27
-27
-26
-25
-24
-24
-25
-25
-25
-24
-22
-22
-23
-24
-25
-25
-24
-22
-22
-24
-25
-25
-25
-24
-23
-23
-24
-25
-25
-24
-23
-22
-23
-25
-26
-25
-24
-23
-23
-24
-25
-25
-24
-23
-22
-22
-23
-24
-24
-23
-21
-21
-22
-23
-24
-24
-23
-21
-21
-23
-24
-25
-24
-23
-22
-23
-24
-25
-25
-24
-22
-22
-23
-25
-25
-25
-24
-23
-23
-24
-25
-25
-25
-24
-23
-23
-24
-25
-25
-23
-22
-22
-23
-24
-25
-25
-23
-22
-22
-23
-24
-25
-24
-23
-22
-23
-24
-25
-25
-24
-22
-22
-23
-25
-26
-26
-25
-24
-24
-25
-26
-27
-26
-25
-24
-24
-25
-26
-26
-25
-24
-24
-25
-26
-27
-27
-25
-24
-24
-25
-26
-26
-26
-25
-24
-24
-25
-26
-25
-24
-22
-22
-23
-24
-25
-25
-23
-22
-22
-23
-24
-25
-24
-23
-23
-23
-24
-25
-25
-23
-22
-22
-23
-24
-25
-24
-23
-22
-21
-22
-23
-24
-23
-22
-21
-21
-22
-23
-23
-21
-20
-20
-21
-22
-23
-23
-22
-21
-21
-23
-24
-25
-24
-23
-23
-23
-24
-26
-26
-25
-24
-24
-25
-26
-27
-27
-27
-26
-26
-27
-29
-30
-29
-29
-28
-29
-30
-31
-32
-31
-30
-30
-31
-32
-33
-33
-32
-31
-31
-32
-33
-33
-33
-31
-30
-31
-32
-32
-32
-31
-30
-30
-31
-32
-33
-33
-32
-31
-31
-32
-33
-34
-33
-32
-32
-32
-33
-34
-34
-33
-32
-32
-33
-34
-35
-35
-34
-32
-32
-34
-35
-35
-34
-33
-32
-32
-33
-34
-34
-32
-31
-31
-31
-33
-33
-33
-31
-30
-30
-31
-31
-31
-31
-29
-28
-28
-29
-30
-29
-28
-26
-26
-26
-28
-28
-28
-27
-26
-26
-27
-28
-29
-28
-27
-26
-26
-27
-28
-27
-26
-24
-24
-24
-26
-26
-25
-24
-22
-22
-23
-24
-24
-23
-22
-21
-21
-22
-23
-23
-22
-21
-21
-23
-24
-25
-25
-24
-24
-24
-26
-27
-28
-28
-27
-27
-28
-29
-30
-31
-30
-29
-29
-30
-32
-33
-33
-31
-30
-30
-32
-33
-33
-33
-32
-31
-31
-32
-34
-34
-32
-31
-31
-33
-34
-35
-35
-34
-33
-33
-34
-36
-36
-35
-34
-33
-34
-35
-35
-35
-33
-32
-31
-32
-33
-34
-33
-31
-30
-29
-29
-30
-30
-29
-27
-26
-26
-26
-27
-26
-24
-23
-22
-23
-24
-24
-24
-22
-21
-21
-22
-23
-23
-22
-21
-20
-20
-21
-22
-22
-20
-19
-19
-20
-21
-22
-21
-20
-19
-19
-21
-23
-22
-21
-19
-18
-18
-19
-20
-20
-18
-17
-16
-17
-18
-18
-17
-16
-14
-14
-15
-16
-17
-16
-15
-15
-15
-16
-18
-18
-17
-16
-16
-17
-19
-20
-20
-19
-18
-19
-21
-22
-23
-23
-23
-23
-24
-26
-27
-28
-27
-27
-27
-29
-31
-33
-33
-32
-32
-32
-34
-35
-36
-36
-35
-35
-35
-36
-37
-38
-37
-36
-36
-37
-39
-40
-40
-39
-38
-39
-40
-42
-43
-42
-42
-41
-42
-43
-44
-45
-44
-42
-42
-44
-45
-46
-45
-44
-43
-43
-44
-45
-45
-44
-43
-42
-42
-43
-44
-44
-43
-42
-42
-43
-45
-46
-46
-45
-44
-44
-46
-47
-48
-48
-47
-47
-47
-49
-50
-50
-49
-48
-47
-48
-49
-49
-48
-46
-44
-42
-42
-42
-40
-37
-34
-30
-28
-26
-24
-21
-16
-12
-8
-6
-4
-2
1
5
8
11
12
13
14
17
20
22
23
22
22
23
24
25
25
23
20
18
15
13
10
5
0
-7
-14
-21
-28
-35
-44
-54
-65
-74
-82
-90
-99
-109
-118
-127
-133
-139
-143
-148
-153
-158
-160
-161
-161
-160
-160
-160
-159
-157
-153
-149
-146
-144
-142
-139
-135
-130
-124
-120
-117
-114
-111
-106
-101
-97
-94
-91
-89
-86
-83
-79
-77
-77
-77
-77
-76
-74
-72
-72
-73
-74
-74
-73
-71
-70
-70
-71
-71
-71
-69
-67
-66
-66
-66
-66
-65
-63
-60
-60
-60
-61
-60
-59
-57
-56
-56
-56
-57
-56
-55
-53
-53
-54
-55
-55
-54
-52
-51
-51
-51
-52
-52
-51
-49
-48
-48
-49
-49
-48
-47
-46
-45
-46
-48
-48
-48
-47
-46
-46
-47
-48
-49
-48
-47
-47
-47
-49
-50
-50
-49
-47
-47
-48
-50
-50
-50
-49
-47
-47
-48
-49
-49
-48
-47
-46
-46
-47
-47
-47
-45
-44
-44
-45
-46
-47
-46
-44
-43
-43
-44
-45
-45
-44
-43
-42
-42
-43
-44
-43
-42
-40
-40
-41
-43
-43
-43
-41
-40
-41
-42
-43
-43
-43
-42
-41
-42
-43
-44
-44
-42
-41
-41
-42
-44
-44
-44
-42
-41
-41
-42
-43
-43
-43
-42
-41
-42
-43
-44
-44
-44
-43
-43
-45
-46
-48
-48
-47
-46
-46
-47
-48
-49
-48
-46
-45
-45
-46
-46
-45
-43
-41
-41
-41
-42
-42
-42
-40
-39
-39
-40
-42
-42
-41
-41
-40
-41
-42
-43
-44
-43
-42
-42
-44
-45
-46
-46
-45
-44
-44
-45
-46
-46
-45
-44
-43
-43
-44
-45
-45
-43
-42
-41
-42
-43
-44
-43
-42
-41
-41
-42
-42
-42
-41
-40
-39
-39
-40
-41
-40
-39
-38
-38
-39
-41
-41
-41
-40
-39
-40
-42
-43
-44
-43
-42
-41
-42
-43
-44
-44
-43
-41
-41
-42
-43
-43
-42
-41
-39
-39
-40
-41
-41
-40
-38
-37
-37
-38
-39
-39
-37
-36
-37
-38
-39
-40
-40
-39
-39
-39
-41
-43
-44
-44
-44
-44
-45
-46
-48
-48
-47
-47
-47
-49
-50
-51
-51
-50
-49
-49
-50
-52
-52
-51
-50
-49
-49
-50
-51
-51
-50
-49
-49
-50
-51
-52
-51
-50
-49
-49
-50
-51
-52
-51
-50
-50
-50
-52
-53
-53
-52
-52
-52
-54
-56
-57
-57
-56
-56
-56
-58
-59
-60
-59
-59
-58
-58
-60
-61
-60
-59
-58
-58
-59
-60
-61
-61
-59
-58
-58
-59
-60
-60
-59
-58
-57
-57
-58
-59
-59
-57
-56
-56
-57
-58
-58
-58
-56
-54
-54
-55
-56
-56
-56
-54
-54
-54
-55
-56
-55
-54
-53
-52
-54
-55
-56
-55
-54
-52
-53
-54
-55
-55
-54
-53
-52
-53
-54
-55
-55
-54
-53
-53
-54
-55
-56
-56
-54
-53
-53
-54
-55
-56
-55
-53
-52
-52
-53
-53
-53
-51
-50
-49
-50
-51
-51
-51
-49
-48
-48
-49
-50
-50
-49
-48
-48
-48
-49
-50
-50
-49
-48
-48
-49
-50
-51
-51
-50
-49
-49
-50
-52
-52
-51
-50
-50
-50
-51
-52
-52
-51
-50
-50
-51
-52
-53
-53
-52
-51
-51
-53
-54
-54
-54
-53
-52
-53
-54
-55
-55
-54
-53
-52
-53
-54
-55
-54
-52
-51
-51
-51
-52
-51
-50
-48
-47
-47
-47
-48
-47
-45
-44
-43
-44
-45
-46
-45
-44
-43
-43
-45
-46
-46
-45
-44
-43
-43
-43
-44
-43
-41
-39
-38
-39
-40
-40
-39
-37
-35
-35
-35
-36
-36
-35
-33
-32
-33
-34
-35
-34
-33
-32
-32
-33
-34
-35
-34
-33
-32
-32
-33
-34
-35
-34
-32
-32
-32
-33
-34
-34
-33
-33
-33
-35
-37
-38
-38
-38
-37
-38
-39
-41
-41
-41
-40
-40
-41
-42
-43
-43
-43
-42
-42
-44
-45
-46
-46
-45
-45
-45
-47
-49
-49
-49
-48
-48
-49
-51
-53
-53
-53
-52
-53
-55
-57
-59
-59
-58
-58
-59
-61
-63
-64
-64
-63
-63
-64
-65
-66
-66
-65
-64
-64
-66
-67
-68
-67
-66
-65
-65
-67
-68
-68
-67
-66
-65
-65
-66
-67
-66
-65
-64
-64
-65
-66
-66
-66
-64
-63
-64
-65
-66
-66
-65
-64
-63
-64
-65
-65
-65
-63
-62
-62
-63
-64
-64
-63
-62
-60
-60
-60
-60
-59
-56
-54
-51
-50
-49
-47
-45
-41
-37
-34
-33
-31
-29
-26
-22
-19
-16
-15
-14
-12
-10
-7
-5
-4
-4
-4
-3
-1
0
0
-2
-4
-7
-9
-11
-14
-18
-25
-32
-39
-46
-52
-60
-69
-78
-88
-97
-105
-113
-122
-132
-141
-150
-156
-161
-165
-170
-176
-180
-183
-184
-184
-185
-185
-186
-185
-184
-180
-177
-174
-173
-171
-168
-164
-159
-155
-151
-149
-146
-142
-138
-133
-128
-125
-123
-120
-116
-112
-108
-105
-104
-104
-102
-100
-97
-95
-93
-93
-93
-92
-90
-87
-86
-85
-86
-86
-84
-82
-81
-80
-81
-82
-82
-81
-80
-78
-78
-79
-80
-80
-79
-77
-76
-77
-78
-79
-78
-77
-75
-75
-76
-77
-77
-76
-74
-73
-73
-73
-74
-74
-72
-70
-69
-69
-69
-69
-68
-66
-64
-63
-64
-65
-65
-64
-63
-61
-62
-63
-64
-64
-63
-62
-61
-62
-63
-64
-63
-62
-61
-60
-61
-63
-63
-62
-61
-60
-60
-61
-62
-62
-62
-60
-60
-61
-62
-63
-63
-62
-61
-62
-63
-65
-66
-65
-64
-63
-64
-65
-66
-66
-65
-64
-63
-63
-64
-65
-64
-62
-61
-60
-61
-62
-62
-60
-58
-57
-56
-57
-57
-57
-56
-54
-54
-54
-55
-56
-56
-55
-54
-55
-57
-59
-60
-60
-60
-60
-61
-63
-65
-66
-66
-66
-65
-66
-67
-68
-67
-66
-65
-64
-65
-66
-66
-65
-63
-61
-61
-62
-62
-62
-60
-59
-58
-58
-59
-59
-59
-57
-56
-56
-58
-59
-60
-60
-59
-58
-58
-60
-61
-61
-61
-62
-62
-62
-62
-63
-63
-62
-61
-62
-63
-65
-66
-65
-64
-63
-63
-65
-66
-66
-65
-64
-63
-63
-64
-65
-64
-62
-61
-61
-62
-63
-63
-62
-60
-59
-59
-60
-61
-62
-61
-60
-60
-60
-62
-63
-63
-62
-61
-61
-63
-64
-65
-64
-63
-62
-62
-62
-63
-63
-61
-60
-58
-58
-59
-59
-58
-57
-55
-55
-56
-57
-57
-57
-55
-54
-55
-56
-57
-57
-56
-55
-55
-55
-57
-58
-57
-56
-56
-56
-57
-59
-60
-59
-58
-57
-58
-59
-61
-61
-61
-60
-60
-60
-61
-62
-62
-61
-60
-60
-62
-64
-65
-64
-64
-63
-64
-66
-68
-68
-68
-67
-67
-68
-70
-71
-71
-70
-69
-69
-71
-72
-73
-72
-71
-70
-70
-71
-73
-73
-72
-71
-71
-71
-72
-73
-73
-72
-71
-71
-73
-74
-75
-74
-73
-72
-73
-74
-75
-75
-74
-73
-72
-72
-73
-74
-73
-71
-70
-70
-70
-72
-72
-71
-70
-68
-69
-70
-71
-70
-69
-68
-68
-68
-69
-70
-70
-69
-68
-68
-69
-71
-71
-71
-70
-69
-70
-71
-72
-73
-72
-71
-70
-71
-72
-73
-73
-71
-70
-70
-72
-73
-73
-72
-71
-69
-69
-70
-71
-71
-70
-68
-67
-67
-68
-69
-68
-67
-65
-66
-67
-68
-69
-68
-67
-66
-66
-68
-69
-69
-68
-67
-66
-66
-67
-68
-67
-65
-64
-64
-65
-66
-66
-66
-64
-63
-63
-65
-66
-66
-65
-65
-64
-65
-66
-67
-67
-66
-65
-66
-67
-69
-69
-69
-68
-67
-68
-69
-70
-70
-69
-68
-68
-68
-69
-70
-69
-68
-67
-67
-68
-69
-70
-69
-67
-66
-66
-67
-68
-68
-67
-66
-66
-66
-67
-68
-68
-67
-66
-66
-68
-69
-70
-69
-68
-67
-67
-69
-70
-70
-69
-67
-66
-66
-67
-68
-67
-65
-63
-63
-63
-64
-64
-63
-61
-59
-59
-60
-61
-60
-59
-58
-57
-57
-57
-58
-57
-55
-54
-54
-55
-57
-57
-56
-55
-54
-54
-55
-56
-56
-55
-54
-53
-53
-53
-54
-53
-51
-49
-49
-49
-50
-49
-48
-46
-44
-44
-44
-45
-44
-43
-41
-40
-41
-42
-43
-42
-41
-41
-41
-43
-45
-46
-47
-46
-46
-47
-49
-51
-52
-52
-52
-53
-54
-56
-58
-58
-57
-57
-58
-59
-61
-62
-62
-61
-60
-60
-62
-63
-63
-62
-61
-60
-61
-62
-63
-63
-61
-61
-61
-63
-65
-66
-66
-65
-65
-66
-68
-70
-71
-70
-70
-70
-71
-73
-74
-73
-72
-72
-72
-74
-75
-76
-76
-75
-74
-75
-76
-77
-77
-77
-76
-75
-76
-77
-78
-78
-77
-76
-76
-77
-78
-79
-78
-77
-76
-76
-77
-78
-78
-77
-76
-75
-76
-77
-78
-77
-76
-74
-75
-76
-77
-78
-77
-76
-75
-75
-76
-77
-76
-75
-73
-72
-71
-71
-71
-68
-65
-62
-60
-59
-58
-56
-53
-49
-45
-43
-41
-40
-37
-33
-29
-26
-24
-23
-22
-19
-16
-13
-12
-11
-12
-11
-10
-8
-6
-7
-9
-11
-13
-14
-16
-19
-24
-30
-36
-41
-46
-52
-59
-68
-77
-86
-93
-100
-108
-116
-125
-133
-139
-144
-148
-153
-157
-162
-166
-167
-167
-168
-168
-169
-170
-169
-167
-164
-161
-159
-158
-156
-153
-150
-145
-141
-139
-136
-133
-129
-124
-120
-117
-114
-113
-110
-107
-103
-99
-98
-97
-96
-95
-92
-90
-89
-88
-89
-89
-88
-87
-86
-86
-88
-90
-90
-90
-89
-89
-90
-91
-92
-93
-92
-91
-90
-91
-92
-92
-91
-89
-88
-88
-89
-90
-89
-88
-86
-85
-85
-85
-85
-85
-83
-81
-80
-80
-80
-80
-79
-77
-75
-74
-75
-76
-75
-74
-73
-72
-72
-73
-74
-74
-73
-72
-72
-73
-74
-75
-74
-73
-72
-73
-74
-75
-76
-75
-73
-72
-73
-74
-74
-74
-73
-71
-71
-71
-72
-72
-71
-70
-69
-69
-70
-71
-71
-71
-70
-69
-69
-71
-72
-72
-71
-70
-70
-71
-72
-73
-72
-71
-70
-70
-72
-73
-73
-72
-71
-70
-71
-72
-73
-73
-72
-71
-70
-70
-71
-72
-71
-69
-68
-68
-70
-71
-71
-70
-69
-68
-68
-70
-70
-70
-69
-68
-67
-67
-68
-69
-68
-67
-66
-66
-67
-68
-69
-68
-66
-66
-66
-67
-68
-68
-68
-67
-66
-67
-68
-69
-68
-67
-66
-66
-68
-69
-69
-69
-67
-67
-67
-68
-69
-69
-68
-67
-66
-67
-68
-68
-67
-66
-65
-65
-67
-68
-69
-68
-67
-66
-67
-68
-69
-69
-68
-67
-66
-67
-68
-68
-68
-66
-65
-66
-67
-68
-68
-68
-66
-65
-66
-67
-69
-69
-68
-67
-67
-67
-69
-69
-69
-67
-67
-67
-68
-69
-69
-69
-67
-66
-67
-68
-69
-68
-67
-66
-65
-66
-67
-67
-66
-65
-64
-64
-65
-66
-67
-66
-64
-63
-64
-65
-65
-65
-64
-63
-62
-62
-63
-64
-63
-61
-60
-60
-62
-63
-63
-62
-61
-60
-60
-62
-63
-63
-62
-61
-60
-61
-62
-63
-62
-61
-60
-60
-61
-62
-63
-62
-61
-60
-61
-62
-64
-64
-63
-63
-63
-64
-65
-66
-66
-65
-65
-65
-67
-69
-69
-69
-68
-68
-69
-71
-72
-72
-71
-70
-70
-70
-72
-72
-72
-71
-70
-70
-72
-73
-73
-73
-72
-71
-72
-73
-74
-74
-73
-72
-72
-73
-74
-74
-74
-73
-72
-72
-73
-74
-74
-74
-72
-71
-72
-73
-73
-73
-72
-71
-70
-71
-72
-72
-72
-70
-70
-70
-71
-72
-73
-72
-70
-70
-70
-71
-72
-72
-71
-70
-70
-70
-71
-72
-71
-70
-68
-69
-70
-71
-71
-70
-69
-68
-68
-69
-70
-70
-69
-68
-68
-68
-69
-70
-69
-68
-67
-67
-69
-70
-71
-70
-69
-68
-68
-70
-71
-71
-70
-69
-68
-69
-70
-70
-70
-68
-68
-68
-69
-70
-71
-70
-69
-68
-68
-70
-71
-71
-70
-69
-69
-70
-71
-71
-71
-70
-69
-70
-71
-72
-73
-72
-71
-70
-71
-72
-73
-73
-72
-71
-70
-70
-71
-72
-71
-69
-68
-68
-69
-70
-70
-69
-68
-67
-68
-69
-70
-70
-70
-69
-69
-69
-71
-72
-71
-70
-69
-70
-71
-73
-73
-72
-71
-70
-71
-72
-73
-73
-71
-70
-69
-69
-70
-70
-69
-68
-66
-66
-67
-68
-68
-67
-65
-64
-64
-65
-66
-66
-65
-63
-63
-63
-64
-64
-63
-62
-61
-61
-62
-63
-64
-63
-61
-61
-61
-62
-63
-62
-61
-60
-59
-60
-61
-61
-60
-59
-58
-58
-59
-60
-60
-59
-58
-56
-57
-58
-58
-58
-57
-55
-54
-55
-56
-56
-55
-54
-52
-53
-54
-55
-56
-55
-54
-53
-54
-56
-57
-57
-57
-56
-56
-57
-59
-60
-60
-59
-58
-59
-61
-63
-64
-63
-62
-62
-63
-65
-66
-66
-66
-65
-65
-66
-67
-68
-68
-67
-66
-67
-68
-70
-70
-69
-68
-68
-69
-70
-71
-71
-71
-70
-70
-71
-72
-73
-73
-72
-72
-72
-74
-76
-77
-76
-75
-75
-76
-78
-79
-80
-79
-78
-78
-79
-80
-80
-80
-78
-77
-78
-79
-80
-80
-79
-78
-77
-77
-78
-79
-79
-78
-77
-77
-78
-79
-80
-80
-79
-78
-79
-80
-82
-82
-81
-80
-79
-80
-81
-82
-82
-81
-79
-79
-79
-79
-79
-78
-76
-74
-73
-73
-73
-72
-70
-66
-64
-62
-61
-59
-56
-52
-48
-44
-42
-39
-37
-33
-28
-24
-21
-20
-18
-16
-13
-9
-6
-4
-4
-3
-2
0
1
2
2
1
0
0
0
-1
-4
-9
-14
-18
-22
-26
-32
-38
-46
-54
-61
-67
-73
-80
-87
-94
-101
-106
-110
-113
-117
-122
-126
-129
-129
-129
-129
-129
-130
-130
-129
-126
-124
-121
-120
-120
-118
-116
-113
-110
-108
-107
-105
-104
-101
-98
-95
-94
-93
-93
-91
-88
-86
-85
-84
-85
-84
-83
-82
-81
-81
-82
-84
-84
-84
-83
-83
-84
-86
-87
-87
-87
-86
-86
-86
-87
-88
-87
-85
-84
-84
-85
-85
-85
-84
-82
-81
-81
-82
-82
-82
-80
-79
-78
-78
-79
-79
-78
-77
-75
-76
-76
-77
-77
-76
-75
-74
-74
-75
-76
-75
-74
-73
-72
-73
-74
-74
-73
-72
-71
-71
-72
-73
-73
-72
-71
-70
-71
-72
-73
-73
-72
-71
-70
-71
-72
-73
-73
-72
-71
-71
-73
-74
-75
-74
-73
-72
-72
-74
-74
-74
-73
-71
-71
-71
-72
-72
-71
-69
-68
-68
-69
-70
-70
-68
-67
-66
-66
-67
-68
-68
-67
-66
-65
-65
-66
-67
-66
-65
-64
-64
-65
-66
-67
-66
-65
-64
-65
-66
-67
-67
-66
-65
-65
-65
-66
-67
-66
-65
-64
-65
-66
-67
-67
-66
-65
-64
-64
-65
-66
-66
-65
-64
-63
-64
-65
-65
-64
-63
-62
-62
-64
-65
-66
-65
-64
-63
-64
-66
-67
-68
-67
-66
-65
-66
-67
-67
-66
-65
-64
-64
-65
-66
-66
-65
-63
-62
-62
-63
-63
-63
-62
-60
-60
-61
-62
-62
-62
-60
-59
-60
-61
-62
-63
-62
-61
-60
-61
-62
-63
-63
-62
-61
-60
-61
-62
-63
-62
-61
-60
-60
-61
-62
-63
-62
-61
-60
-60
-61
-62
-62
-61
-60
-60
-60
-61
-62
-61
-59
-59
-59
-60
-61
-62
-61
-59
-59
-59
-61
-61
-61
-60
-59
-59
-59
-60
-61
-60
-58
-58
-58
-59
-60
-61
-60
-58
-58
-58
-59
-60
-60
-59
-58
-57
-58
-59
-60
-59
-58
-57
-57
-58
-60
-60
-59
-58
-57
-58
-59
-60
-60
-59
-58
-58
-59
-60
-60
-60
-59
-58
-58
-60
-61
-62
-61
-60
-60
-60
-62
-63
-63
-62
-62
-62
-62
-64
-65
-65
-64
-64
-64
-66
-68
-68
-68
-67
-66
-67
-69
-70
-70
-69
-69
-68
-69
-70
-71
-70
-69
-68
-68
-69
-71
-71
-70
-68
-67
-68
-69
-70
-70
-69
-67
-67
-67
-68
-68
-68
-66
-65
-66
-67
-68
-68
-67
-66
-65
-66
-68
-69
-69
-68
-67
-67
-68
-69
-70
-69
-68
-67
-68
-69
-70
-71
-70
-68
-68
-68
-69
-70
-70
-68
-67
-67
-67
-68
-69
-68
-66
-65
-66
-67
-68
-68
-68
-66
-66
-66
-67
-68
-68
-67
-66
-65
-66
-67
-67
-66
-65
-64
-64
-65
-66
-66
-65
-64
-63
-64
-65
-66
-65
-64
-63
-63
-63
-64
-65
-64
-63
-62
-62
-64
-65
-65
-64
-63
-62
-63
-64
-65
-65
-64
-63
-63
-63
-64
-65
-64
-63
-62
-63
-64
-65
-66
-65
-64
-63
-64
-66
-67
-67
-66
-65
-64
-65
-66
-67
-66
-65
-64
-64
-65
-67
-67
-66
-64
-64
-64
-65
-66
-66
-66
-65
-64
-65
-66
-67
-66
-65
-64
-65
-66
-67
-67
-66
-65
-64
-64
-65
-66
-65
-63
-62
-61
-61
-62
-62
-61
-59
-58
-58
-59
-60
-60
-58
-57
-56
-56
-57
-58
-58
-56
-55
-54
-55
-56
-56
-55
-53
-52
-52
-53
-54
-54
-53
-51
-50
-50
-51
-52
-51
-50
-49
-48
-48
-49
-50
-49
-47
-46
-47
-48
-49
-50
-49
-47
-47
-47
-48
-49
-49
-49
-48
-47
-48
-50
-51
-50
-49
-48
-49
-50
-52
-53
-52
-51
-51
-52
-53
-54
-54
-54
-53
-53
-54
-55
-56
-56
-55
-54
-55
-57
-58
-59
-58
-57
-56
-57
-59
-60
-60
-59
-59
-58
-59
-61
-61
-61
-59
-59
-59
-61
-62
-63
-63
-62
-61
-62
-64
-65
-65
-65
-64
-64
-65
-67
-67
-67
-66
-65
-65
-67
-68
-68
-67
-66
-65
-66
-67
-68
-67
-66
-65
-65
-65
-67
-68
-67
-66
-66
-66
-68
-69
-70
-70
-69
-68
-69
-71
-72
-73
-72
-71
-71
-72
-73
-74
-74
-73
-72
-72
-73
-75
-75
-74
-72
-71
-71
-71
-71
-70
-67
-65
-62
-61
-60
-58
-55
-51
-47
-45
-43
-41
-38
-34
-30
-26
-24
-23
-21
-18
-15
-12
-9
-8
-8
-7
-5
-3
-2
-2
-3
-5
-6
-6
-7
-8
-12
-16
-21
-25
-29
-34
-39
-47
-55
-63
-70
-76
-83
-91
-100
-109
-116
-122
-127
-132
-138
-144
-149
-153
-154
-155
-156
-158
-159
-159
-157
-155
-152
-151
-150
-149
-147
-143
-139
-136
-133
-132
-129
-126
-122
-118
-115
-113
-112
-110
-107
-104
-101
-100
-100
-100
-99
-97
-95
-94
-94
-95
-96
-96
-95
-94
-94
-95
-96
-96
-95
-93
-92
-92
-93
-93
-92
-91
-88
-87
-86
-86
-86
-85
-83
-81
-80
-80
-80
-80
-79
-77
-76
-76
-77
-78
-78
-78
-76
-76
-77
-78
-79
-79
-78
-77
-77
-77
-79
-79
-78
-77
-76
-76
-77
-78
-78
-76
-75
-73
-73
-74
-74
-74
-72
-70
-69
-69
-69
-69
-68
-66
-65
-65
-66
-68
-68
-68
-67
-66
-68
-69
-71
-71
-71
-70
-71
-72
-73
-74
-74
-73
-72
-72
-74
-75
-75
-74
-73
-72
-72
-73
-74
-73
-72
-71
-70
-71
-71
-72
-70
-69
-67
-67
-68
-69
-69
-68
-66
-65
-65
-67
-67
-67
-66
-65
-65
-66
-67
-68
-67
-66
-66
-67
-68
-70
-71
-70
-69
-69
-69
-71
-71
-71
-70
-68
-68
-68
-69
-69
-68
-66
-65
-65
-66
-67
-68
-67
-65
-65
-66
-67
-68
-68
-68
-67
-67
-67
-69
-69
-69
-67
-66
-66
-68
-68
-69
-67
-66
-65
-65
-66
-66
-66
-64
-63
-62
-63
-64
-64
-63
-62
-61
-61
-63
-64
-65
-64
-63
-63
-64
-66
-67
-67
-67
-66
-66
-67
-68
-69
-68
-67
-67
-67
-68
-70
-70
-69
-67
-67
-67
-68
-69
-69
-67
-66
-66
-66
-67
-67
-67
-65
-65
-67
-70
-71
-70
-69
-68
-68
-69
-71
-73
-73
-72
-72
-72
-72
-73
-74
-73
-71
-70
-70
-71
-71
-71
-69
-67
-66
-66
-67
-67
-67
-66
-64
-64
-64
-65
-65
-64
-63
-62
-63
-64
-65
-66
-65
-64
-64
-65
-66
-68
-68
-67
-66
-66
-67
-69
-69
-69
-68
-67
-68
-70
-71
-72
-71
-70
-70
-71
-73
-74
-74
-74
-73
-73
-74
-76
-77
-77
-76
-75
-76
-78
-79
-80
-79
-78
-77
-78
-79
-80
-80
-78
-77
-77
-77
-78
-78
-78
-76
-75
-76
-77
-78
-79
-78
-77
-77
-78
-79
-81
-81
-81
-80
-80
-81
-82
-83
-83
-82
-81
-82
-84
-85
-85
-85
-83
-83
-83
-85
-86
-85
-84
-83
-83
-83
-84
-85
-84
-83
-82
-82
-84
-85
-85
-84
-83
-82
-83
-84
-85
-85
-84
-83
-83
-84
-85
-85
-85
-83
-82
-82
-83
-84
-84
-83
-82
-81
-81
-82
-83
-82
-81
-80
-79
-79
-80
-80
-79
-78
-77
-77
-78
-79
-79
-78
-77
-76
-77
-78
-79
-79
-78
-77
-77
-78
-79
-80
-79
-78
-78
-78
-80
-82
-82
-82
-81
-81
-82
-84
-85
-85
-84
-83
-83
-83
-84
-84
-83
-81
-80
-80
-80
-81
-80
-79
-77
-75
-75
-76
-77
-76
-75
-74
-73
-74
-75
-76
-76
-75
-75
-76
-78
-80
-81
-81
-80
-80
-82
-83
-85
-85
-84
-83
-83
-84
-85
-86
-85
-84
-83
-83
-84
-85
-86
-85
-83
-83
-84
-85
-86
-86
-85
-84
-83
-84
-85
-85
-84
-83
-82
-82
-83
-84
-84
-83
-81
-80
-80
-80
-81
-80
-79
-77
-76
-76
-77
-77
-76
-74
-72
-72
-73
-74
-74
-72
-71
-70
-70
-71
-71
-71
-70
-69
-68
-68
-69
-69
-69
-67
-66
-66
-67
-68
-68
-67
-66
-65
-65
-66
-66
-66
-64
-63
-62
-62
-63
-64
-63
-61
-61
-61
-62
-64
-64
-64
-63
-62
-63
-65
-66
-67
-66
-65
-65
-66
-68
-69
-68
-67
-67
-68
-70
-71
-72
-72
-72
-72
-73
-75
-76
-77
-77
-76
-77
-78
-80
-81
-81
-80
-80
-81
-83
-85
-85
-85
-84
-84
-85
-87
-89
-89
-88
-88
-88
-89
-91
-92
-91
-90
-90
-91
-92
-94
-94
-93
-92
-92
-92
-93
-94
-94
-93
-92
-91
-92
-93
-93
-93
-91
-90
-91
-92
-93
-94
-93
-92
-91
-92
-94
-95
-95
-94
-93
-93
-94
-96
-97
-96
-95
-95
-95
-97
-99
-99
-99
-97
-97
-98
-100
-101
-101
-100
-99
-98
-99
-100
-100
-98
-96
-95
-94
-94
-94
-92
-90
-86
-83
-82
-80
-78
-75
-71
-67
-64
-61
-59
-56
-53
-48
-45
-43
-42
-41
-39
-36
-34
-32
-31
-32
-32
-32
-31
-30
-31
-32
-35
-38
-40
-42
-46
-52
-59
-67
-75
-83
-90
-99
-109
-121
-132
-142
-152
-162
-172
-182
-193
-203
-210
-216
-222
-227
-233
-238
-240
-241
-240
-240
-239
-239
-237
-234
-230
-225
-221
-217
-213
-209
-203
-197
-191
-186
-182
-179
-174
-168
-162
-157
-153
-150
-146
-142
-137
-133
-129
-127
-125
-123
-120
-117
-115
-113
-113
-113
-112
-111
-109
-107
-107
-108
-109
-108
-107
-106
-106
-106
-107
-107
-106
-105
-104
-103
-104
-105
-105
-103
-101
-100
-100
-101
-101
-100
-98
-96
-95
-95
-96
-95
-94
-92
-91
-91
-91
-92
-92
-91
-89
-88
-88
-89
-90
-90
-88
-87
-87
-87
-88
-88
-87
-85
-84
-84
-85
-86
-86
-85
-83
-83
-83
-84
-85
-85
-83
-82
-82
-83
-84
-84
-83
-82
-81
-81
-83
-84
-84
-83
-82
-81
-82
-83
-84
-83
-82
-81
-81
-81
-82
-83
-82
-80
-80
-80
-81
-82
-82
-82
-80
-79
-80
-81
-82
-82
-81
-79
-79
-79
-81
-81
-80
-78
-77
-78
-79
-80
-80
-80
-78
-78
-79
-80
-81
-81
-81
-80
-79
-80
-81
-82
-81
-80
-79
-80
-81
-82
-82
-81
-80
-79
-80
-81
-81
-81
-80
-79
-78
-79
-80
-80
-79
-78
-77
-77
-79
-80
-80
-79
-78
-77
-77
-79
-80
-80
-79
-78
-78
-78
-80
-80
-80
-79
-78
-79
-80
-82
-82
-81
-80
-79
-80
-82
-83
-83
-82
-81
-80
-81
-82
-82
-81
-80
-79
-79
-80
-81
-82
-80
-79
-78
-78
-80
-80
-80
-79
-78
-78
-78
-80
-81
-81
-80
-79
-79
-80
-81
-82
-81
-80
-79
-80
-81
-82
-82
-81
-79
-79
-79
-80
-81
-80
-78
-77
-78
-79
-80
-81
-80
-79
-78
-79
-80
-81
-81
-80
-78
-78
-78
-79
-80
-79
-77
-76
-77
-78
-79
-79
-78
-76
-75
-76
-77
-77
-77
-76
-75
-75
-75
-76
-76
-76
-74
-73
-74
-75
-76
-76
-76
-74
-74
-74
-76
-77
-77
-76
-75
-75
-76
-77
-78
-77
-76
-76
-77
-78
-80
-81
-80
-79
-79
-80
-82
-83
-83
-82
-82
-82
-83
-84
-85
-85
-84
-84
-84
-86
-88
-88
-88
-87
-86
-87
-89
-90
-90
-89
-89
-89
-89
-91
-91
-91
-89
-89
-89
-90
-91
-92
-91
-89
-89
-89
-90
-91
-91
-89
-88
-88
-89
-90
-90
-89
-87
-86
-87
-88
-89
-89
-88
-87
-86
-87
-88
-89
-89
-88
-87
-87
-88
-89
-89
-89
-87
-87
-87
-88
-90
-90
-89
-88
-87
-88
-89
-90
-89
-88
-87
-87
-88
-89
-89
-88
-87
-86
-86
-87
-89
-89
-88
-87
-86
-86
-88
-89
-88
-88
-87
-86
-87
-88
-88
-88
-87
-86
-86
-87
-88
-89
-88
-87
-86
-86
-88
-88
-88
-87
-86
-85
-86
-87
-87
-87
-85
-85
-85
-86
-87
-88
-87
-86
-85
-86
-87
-88
-87
-86
-85
-85
-86
-87
-87
-87
-85
-85
-85
-87
-88
-89
-88
-87
-87
-88
-89
-90
-90
-89
-88
-88
-89
-90
-90
-89
-88
-87
-87
-88
-88
-88
-87
-86
-85
-85
-86
-87
-87
-86
-85
-84
-85
-86
-87
-86
-85
-85
-85
-87
-88
-89
-88
-87
-87
-88
-90
-91
-90
-90
-88
-88
-88
-89
-90
-89
-87
-86
-86
-87
-88
-88
-86
-85
-84
-84
-84
-85
-84
-82
-81
-80
-81
-81
-81
-80
-78
-77
-77
-78
-79
-79
-78
-76
-76
-76
-77
-78
-78
-77
-75
-75
-76
-77
-77
-76
-75
-74
-74
-75
-76
-76
-75
-73
-72
-72
-73
-74
-73
-72
-70
-70
-70
-71
-71
-70
-69
-68
-68
-70
-71
-71
-70
-69
-69
-70
-72
-73
-73
-73
-72
-73
-74
-76
-77
-77
-76
-76
-77
-79
-81
-82
-82
-81
-81
-82
-84
-85
-86
-86
-85
-85
-86
-88
-89
-88
-87
-87
-88
-90
-91
-92
-91
-90
-90
-91
-93
-94
-94
-94
-93
-93
-94
-96
-97
-97
-96
-96
-97
-99
-100
-101
-101
-100
-100
-101
-102
-104
-104
-103
-102
-102
-103
-104
-105
-104
-103
-103
-104
-104
-105
-106
-105
-104
-103
-104
-105
-106
-106
-105
-104
-103
-104
-105
-105
-105
-103
-102
-103
-104
-105
-106
-105
-103
-103
-103
-104
-105
-104
-103
-102
-101
-101
-101
-101
-99
-96
-94
-93
-93
-93
-91
-89
-85
-83
-81
-81
-79
-77
-73
-70
-67
-66
-64
-63
-60
-56
-53
-52
-51
-50
-48
-46
-43
-40
-39
-39
-39
-38
-36
-34
-34
-35
-37
-38
-39
-41
-43
-47
-53
-60
-66
-72
-78
-85
-94
-103
-112
-121
-128
-135
-143
-152
-160
-167
-173
-177
-181
-185
-190
-193
-195
-195
-194
-193
-193
-192
-191
-189
-185
-181
-178
-175
-173
-170
-165
-161
-156
-153
-151
-148
-145
-141
-136
-133
-130
-129
-127
-124
-121
-118
-117
-116
-116
-115
-114
-112
-111
-111
-112
-113
-114
-113
-112
-112
-113
-115
-116
-116
-115
-115
-114
-115
-116
-117
-116
-115
-114
-114
-115
-116
-116
-115
-113
-112
-113
-114
-114
-113
-112
-111
-110
-110
-110
-110
-109
-107
-106
-105
-106
-107
-106
-105
-104
-103
-103
-104
-104
-104
-103
-102
-102
-102
-103
-104
-103
-102
-101
-101
-103
-104
-104
-103
-101
-101
-101
-102
-103
-102
-101
-100
-100
-100
-101
-101
-101
-99
-98
-99
-100
-101
-101
-100
-99
-99
-99
-101
-101
-101
-100
-100
-99
-100
-101
-102
-101
-100
-100
-100
-101
-102
-103
-102
-100
-100
-100
-101
-101
-101
-100
-99
-98
-98
-99
-99
-98
-97
-96
-96
-97
-98
-98
-97
-96
-95
-96
-97
-98
-98
-98
-97
-97
-97
-98
-99
-98
-97
-96
-97
-98
-99
-99
-99
-97
-97
-97
-98
-99
-99
-98
-97
-97
-97
-98
-99
-98
-97
-96
-97
-98
-100
-100
-100
-98
-98
-99
-100
-101
-102
-101
-100
-100
-100
-101
-101
-100
-99
-98
-98
-99
-100
-100
-99
-97
-96
-96
-96
-97
-96
-95
-93
-93
-93
-94
-94
-93
-92
-92
-92
-94
-95
-96
-95
-94
-94
-95
-97
-98
-98
-98
-97
-97
-98
-99
-99
-99
-97
-96
-97
-98
-99
-99
-99
-97
-96
-97
-98
-99
-99
-98
-96
-96
-97
-98
-98
-97
-95
-94
-94
-95
-96
-96
-95
-94
-93
-93
-95
-95
-95
-94
-93
-92
-93
-94
-94
-93
-92
-91
-92
-93
-94
-95
-94
-92
-91
-92
-93
-94
-94
-93
-92
-91
-92
-93
-93
-92
-91
-91
-91
-92
-94
-94
-93
-92
-92
-92
-94
-95
-95
-94
-94
-94
-94
-96
-96
-96
-95
-94
-95
-97
-98
-99
-98
-97
-97
-98
-100
-101
-101
-101
-100
-100
-101
-103
-104
-103
-102
-102
-103
-105
-107
-107
-107
-106
-106
-106
-108
-109
-109
-108
-107
-107
-108
-109
-109
-108
-107
-106
-106
-107
-107
-107
-106
-105
-104
-104
-105
-105
-105
-104
-102
-102
-103
-104
-104
-104
-103
-102
-103
-104
-105
-106
-105
-104
-104
-105
-106
-107
-107
-107
-106
-106
-107
-108
-108
-108
-107
-106
-106
-108
-109
-109
-108
-106
-106
-106
-107
-108
-107
-106
-105
-104
-104
-105
-105
-104
-102
-101
-101
-102
-103
-103
-102
-101
-101
-101
-102
-103
-103
-103
-102
-102
-102
-104
-104
-103
-102
-102
-102
-103
-105
-105
-104
-103
-102
-103
-104
-105
-105
-104
-103
-103
-104
-105
-105
-104
-103
-102
-103
-104
-106
-106
-105
-104
-104
-104
-106
-107
-107
-106
-105
-104
-105
-106
-106
-106
-104
-104
-104
-106
-107
-107
-106
-104
-104
-104
-105
-106
-106
-105
-104
-104
-104
-105
-106
-105
-104
-103
-103
-104
-105
-105
-105
-103
-103
-103
-104
-105
-104
-103
-102
-102
-102
-103
-103
-102
-101
-100
-100
-101
-102
-102
-101
-100
-99
-100
-101
-101
-101
-100
-98
-98
-98
-99
-99
-97
-96
-95
-95
-95
-96
-96
-94
-93
-92
-92
-93
-93
-93
-91
-90
-90
-90
-91
-91
-90
-89
-88
-89
-90
-91
-91
-90
-89
-88
-88
-89
-90
-89
-88
-87
-87
-88
-89
-89
-88
-87
-86
-87
-88
-90
-90
-90
-89
-89
-90
-92
-93
-93
-93
-92
-93
-94
-96
-97
-97
-96
-96
-97
-99
-100
-101
-101
-100
-100
-101
-102
-103
-103
-103
-102
-102
-103
-104
-105
-104
-103
-102
-103
-104
-105
-105
-104
-103
-103
-103
-105
-106
-106
-105
-105
-105
-106
-108
-109
-108
-108
-108
-109
-111
-113
-114
-114
-113
-113
-115
-116
-118
-118
-118
-117
-117
-118
-119
-119
-119
-117
-116
-117
-118
-119
-119
-118
-117
-116
-117
-118
-119
-119
-118
-117
-117
-117
-118
-119
-118
-117
-116
-117
-118
-119
-119
-118
-117
-116
-117
-118
-118
-118
-117
-115
-114
-115
-115
-115
-113
-111
-109
-108
-108
-107
-106
-103
-99
-96
-95
-93
-91
-89
-85
-81
-78
-76
-74
-72
-68
-65
-62
-60
-59
-58
-57
-55
-52
-50
-50
-51
-51
-50
-50
-49
-49
-51
-54
-56
-58
-60
-63
-68
-75
-82
-88
-94
-100
-107
-116
-125
-133
-141
-148
-155
-162
-170
-177
-184
-188
-192
-195
-198
-201
-204
-205
-204
-202
-201
-200
-199
-197
-194
-190
-185
-182
-179
-176
-173
-169
-164
-159
-156
-154
-152
-149
-145
-141
-137
-136
-135
-133
-132
-129
-127
-126
-126
-127
-127
-126
-124
-124
-124
-126
-128
-128
-128
-127
-127
-129
-130
-131
-131
-131
-130
-129
-130
-131
-131
-130
-128
-126
-126
-127
-127
-127
-125
-123
-122
-122
-122
-123
-122
-120
-119
-118
-119
-119
-120
-119
-117
-116
-116
-117
-118
-118
-117
-115
-114
-115
-116
-116
-116
-115
-114
-113
-114
-115
-115
-114
-113
-112
-112
-113
-115
-115
-114
-113
-112
-113
-114
-115
-115
-114
-113
-113
-113
-114
-114
-113
-112
-111
-111
-112
-113
-114
-113
-111
-110
-111
-112
-113
-113
-111
-110
-110
-110
-111
-111
-111
-109
-108
-109
-110
-111
-111
-110
-108
-108
-108
-109
-109
-109
-107
-106
-106
-106
-107
-107
-106
-105
-104
-104
-105
-106
-106
-105
-104
-103
-104
-105
-105
-105
-104
-103
-103
-104
-105
-105
-105
-103
-103
-103
-104
-106
-106
-106
-104
-104
-105
-106
-107
-107
-107
-106
-105
-106
-107
-108
-107
-106
-105
-105
-107
-108
-108
-107
-105
-105
-105
-106
-107
-107
-106
-105
-105
-106
-107
-108
-107
-106
-105
-106
-107
-108
-109
-108
-107
-106
-107
-108
-109
-109
-108
-107
-107
-107
-108
-108
-107
-106
-105
-105
-107
-108
-108
-107
-106
-105
-106
-107
-108
-108
-108
-107
-107
-107
-109
-109
-109
-107
-107
-107
-108
-109
-110
-109
-108
-107
-108
-109
-110
-109
-108
-107
-106
-107
-108
-108
-107
-105
-104
-104
-105
-106
-106
-105
-103
-102
-102
-103
-104
-103
-102
-101
-101
-101
-103
-103
-102
-101
-101
-101
-103
-104
-105
-104
-103
-102
-103
-105
-106
-106
-105
-104
-103
-104
-105
-106
-105
-105
-106
-107
-108
-109
-109
-108
-108
-108
-109
-110
-112
-112
-111
-110
-110
-110
-111
-111
-110
-109
-108
-108
-109
-110
-110
-109
-107
-106
-107
-108
-109
-109
-108
-107
-107
-108
-110
-111
-110
-110
-109
-110
-112
-114
-114
-114
-113
-113
-114
-116
-117
-117
-116
-115
-115
-116
-117
-118
-117
-116
-115
-116
-117
-118
-118
-118
-117
-116
-117
-118
-119
-119
-118
-117
-117
-118
-119
-119
-118
-117
-116
-117
-118
-119
-119
-119
-117
-117
-117
-119
-119
-119
-118
-117
-117
-118
-119
-119
-118
-117
-116
-117
-118
-119
-119
-118
-116
-115
-116
-117
-117
-117
-116
-115
-114
-115
-116
-116
-115
-113
-112
-112
-113
-114
-114
-113
-111
-110
-111
-112
-112
-112
-111
-109
-109
-109
-110
-110
-110
-108
-107
-108
-109
-110
-110
-110
-108
-108
-108
-110
-110
-110
-109
-108
-108
-109
-110
-110
-110
-108
-108
-108
-110
-111
-111
-111
-110
-109
-110
-111
-112
-112
-112
-111
-111
-111
-112
-113
-112
-111
-110
-110
-112
-113
-113
-112
-111
-110
-110
-111
-112
-112
-111
-110
-109
-110
-111
-111
-111
-110
-109
-109
-111
-112
-112
-111
-110
-109
-109
-111
-111
-111
-110
-109
-108
-109
-110
-110
-109
-107
-106
-107
-108
-109
-109
-108
-106
-105
-106
-107
-107
-107
-105
-104
-103
-103
-104
-104
-103
-101
-100
-100
-100
-101
-100
-99
-97
-96
-97
-98
-98
-98
-97
-96
-95
-96
-96
-97
-96
-95
-94
-94
-95
-96
-96
-95
-93
-92
-92
-93
-94
-93
-92
-90
-90
-90
-91
-91
-91
-89
-89
-89
-90
-92
-92
-92
-91
-90
-91
-93
-94
-94
-94
-93
-94
-95
-96
-97
-97
-97
-97
-98
-100
-102
-103
-103
-103
-103
-105
-107
-109
-110
-110
-109
-110
-111
-113
-113
-113
-112
-111
-112
-113
-114
-115
-114
-112
-112
-112
-113
-114
-114
-113
-112
-112
-113
-115
-115
-115
-114
-113
-114
-115
-117
-117
-117
-115
-115
-116
-117
-118
-118
-117
-116
-115
-116
-117
-118
-117
-116
-116
-116
-118
-119
-120
-119
-118
-118
-119
-120
-121
-121
-120
-119
-119
-120
-121
-121
-120
-119
-118
-118
-119
-120
-120
-119
-117
-116
-117
-118
-119
-118
-117
-116
-115
-115
-116
-115
-114
-111
-109
-108
-108
-107
-105
-102
-98
-94
-92
-90
-88
-85
-81
-77
-74
-71
-70
-67
-64
-61
-58
-57
-56
-56
-55
-54
-52
-51
-52
-54
-55
-56
-56
-57
-59
-63
-68
-73
-77
-81
-86
-94
-102
-111
-119
-126
-133
-141
-150
-160
-169
-177
-183
-189
-195
-202
-208
-213
-215
-217
-218
-219
-220
-221
-220
-218
-214
-211
-209
-207
-204
-200
-195
-190
-186
-183
-180
-176
-171
-166
-162
-159
-157
-155
-152
-149
-145
-142
-140
-140
-140
-138
-137
-135
-134
-134
-134
-134
-133
-132
-131
-131
-132
-134
-134
-133
-132
-131
-132
-132
-133
-132
-131
-129
-128
-128
-129
-128
-127
-125
-123
-123
-124
-124
-124
-123
-121
-120
-120
-120
-121
-120
-119
-118
-117
-117
-118
-118
-117
-115
-114
-114
-115
-116
-116
-115
-113
-113
-113
-114
-114
-114
-113
-112
-112
-112
-113
-114
-113
-112
-112
-112
-114
-115
-115
-115
-113
-113
-113
-115
-116
-116
-115
-114
-113
-114
-115
-115
-114
-113
-112
-112
-113
-114
-114
-113
-112
-111
-111
-112
-113
-112
-111
-110
-109
-109
-110
-111
-110
-108
-107
-108
-109
-110
-110
-110
-108
-107
-108
-109
-110
-110
-109
-108
-107
-108
-109
-109
-108
-107
-106
-106
-107
-108
-108
-107
-106
-106
-106
-108
-109
-109
-108
-108
-108
-108
-110
-111
-110
-109
-109
-110
-111
-113
-113
-113
-111
-111
-111
-112
-113
-113
-112
-110
-110
-110
-111
-112
-111
-109
-108
-108
-109
-110
-110
-109
-108
-107
-108
-109
-110
-110
-109
-108
-108
-109
-110
-110
-110
-108
-108
-108
-109
-111
-111
-110
-109
-108
-109
-110
-111
-111
-110
-109
-108
-109
-110
-110
-109
-108
-107
-108
-109
-110
-110
-109
-108
-107
-107
-109
-110
-109
-109
-108
-107
-108
-109
-109
-109
-107
-106
-107
-108
-109
-109
-108
-107
-106
-106
-108
-108
-108
-107
-106
-105
-106
-107
-107
-107
-105
-105
-105
-106
-108
-108
-107
-106
-105
-106
-107
-108
-108
-107
-106
-105
-105
-106
-106
-105
-104
-103
-103
-104
-105
-105
-104
-103
-102
-102
-103
-104
-104
-103
-102
-102
-102
-104
-104
-104
-102
-102
-102
-104
-105
-105
-105
-104
-103
-104
-105
-106
-107
-106
-105
-105
-106
-108
-108
-108
-107
-107
-108
-110
-111
-112
-111
-110
-109
-110
-111
-112
-112
-111
-110
-109
-110
-111
-111
-110
-109
-108
-108
-110
-111
-111
-110
-109
-109
-110
-111
-112
-113
-112
-111
-112
-112
-114
-115
-114
-113
-113
-113
-115
-116
-116
-115
-114
-113
-114
-115
-116
-116
-115
-114
-113
-113
-114
-115
-114
-112
-111
-111
-112
-113
-113
-113
-111
-111
-111
-113
-113
-113
-112
-111
-111
-112
-113
-114
-113
-112
-111
-111
-113
-114
-114
-113
-112
-111
-111
-112
-113
-113
-112
-111
-110
-111
-112
-112
-112
-110
-110
-110
-111
-112
-113
-112
-111
-110
-111
-112
-113
-113
-112
-111
-110
-111
-112
-112
-112
-110
-109
-110
-111
-112
-112
-112
-111
-110
-111
-112
-113
-113
-112
-110
-110
-110
-112
-112
-111
-110
-109
-109
-111
-112
-112
-111
-110
-109
-110
-111
-112
-112
-111
-110
-110
-110
-111
-112
-111
-110
-109
-109
-110
-111
-112
-111
-110
-109
-109
-111
-111
-111
-110
-109
-109
-109
-111
-111
-111
-109
-108
-109
-110
-111
-112
-111
-110
-109
-110
-111
-111
-111
-110
-109
-108
-108
-109
-109
-108
-106
-105
-105
-105
-106
-106
-104
-103
-102
-102
-103
-103
-103
-102
-100
-100
-100
-101
-101
-101
-99
-99
-99
-100
-101
-102
-101
-100
-99
-99
-100
-101
-101
-99
-98
-97
-98
-98
-98
-97
-96
-95
-95
-95
-96
-96
-95
-93
-92
-92
-93
-94
-94
-93
-91
-91
-92
-93
-94
-93
-92
-92
-93
-95
-96
-97
-97
-96
-96
-97
-99
-101
-101
-101
-100
-101
-102
-103
-104
-104
-103
-103
-104
-106
-107
-108
-108
-107
-106
-107
-109
-110
-110
-109
-109
-108
-109
-110
-111
-110
-109
-108
-108
-110
-111
-111
-111
-109
-109
-110
-112
-113
-113
-113
-113
-113
-114
-115
-116
-116
-115
-114
-115
-117
-118
-118
-118
-117
-116
-117
-118
-119
-119
-118
-117
-117
-117
-118
-119
-118
-117
-116
-117
-118
-119
-120
-119
-118
-117
-118
-119
-120
-120
-119
-118
-118
-118
-119
-120
-119
-118
-117
-118
-119
-120
-121
-120
-119
-118
-118
-119
-120
-119
-117
-116
-114
-114
-113
-112
-110
-106
-103
-101
-100
-99
-96
-92
-88
-84
-82
-80
-78
-75
-71
-67
-64
-62
-61
-59
-57
-54
-51
-50
-50
-49
-49
-47
-46
-45
-45
-47
-49
-50
-52
-53
-56
-60
-65
-71
-75
-80
-85
-92
-100
-109
-116
-122
-128
-134
-141
-149
-155
-161
-164
-167
-169
-172
-175
-176
-175
-173
-171
-169
-168
-167
-164
-160
-155
-150
-147
-145
-142
-138
-134
-130
-126
-124
-123
-121
-118
-115
-112
-111
-111
-112
-112
-111
-110
-109
-110
-112
-113
-114
-114
-113
-114
-115
-117
-119
-119
-119
-118
-120
-121
-123
-124
-123
-122
-121
-122
-123
-124
-123
-122
-120
-120
-120
-121
-121
-120
-118
-117
-117
-118
-119
-119
-118
-117
-116
-116
-117
-118
-118
-117
-116
-116
-117
-118
-118
-118
-116
-116
-116
-117
-119
-119
-118
-117
-116
-117
-118
-119
-119
-118
-116
-116
-116
-117
-118
-117
-115
-114
-114
-115
-116
-117
-116
-114
-113
-114
-115
-116
-115
-115
-113
-113
-114
-115
-115
-115
-114
-113
-114
-115
-116
-117
-116
-115
-115
-115
-117
-118
-118
-117
-116
-116
-116
-117
-118
-117
-116
-115
-115
-116
-118
-118
-117
-116
-115
-115
-116
-117
-116
-115
-114
-114
-114
-115
-115
-114
-113
-112
-112
-113
-114
-114
-114
-113
-112
-113
-114
-115
-116
-115
-114
-114
-115
-116
-116
-116
-114
-114
-114
-115
-116
-116
-116
-114
-113
-114
-115
-116
-115
-115
-113
-113
-114
-115
-115
-115
-114
-113
-113
-115
-116
-117
-116
-115
-114
-115
-116
-117
-117
-116
-115
-115
-115
-117
-117
-117
-115
-115
-115
-116
-117
-118
-117
-116
-115
-115
-116
-117
-117
-116
-115
-115
-115
-116
-117
-116
-115
-114
-115
-116
-118
-118
-118
-116
-116
-117
-118
-119
-120
-119
-118
-118
-118
-120
-120
-120
-118
-118
-118
-119
-120
-120
-120
-118
-117
-117
-119
-119
-119
-118
-117
-116
-116
-117
-117
-116
-115
-114
-114
-115
-116
-116
-115
-113
-112
-112
-113
-114
-114
-113
-111
-110
-111
-111
-112
-111
-109
-108
-108
-109
-110
-110
-109
-108
-107
-107
-108
-109
-109
-108
-107
-107
-108
-109
-109
-109
-107
-107
-107
-108
-110
-110
-109
-108
-108
-108
-110
-111
-111
-111
-110
-110
-111
-112
-113
-112
-111
-110
-111
-112
-114
-114
-114
-112
-112
-112
-114
-115
-115
-114
-113
-113
-114
-115
-116
-116
-114
-114
-114
-116
-117
-117
-117
-116
-115
-116
-117
-118
-118
-118
-117
-116
-117
-118
-119
-119
-117
-117
-117
-119
-120
-120
-120
-119
-118
-118
-119
-120
-120
-119
-118
-118
-118
-119
-119
-118
-117
-116
-116
-117
-118
-118
-117
-116
-115
-116
-117
-118
-119
-118
-117
-117
-117
-118
-119
-119
-117
-117
-117
-119
-120
-120
-119
-118
-117
-117
-118
-119
-119
-117
-116
-116
-116
-117
-117
-116
-115
-114
-114
-115
-116
-116
-115
-114
-113
-114
-115
-116
-116
-115
-114
-114
-115
-116
-116
-116
-115
-114
-115
-116
-117
-118
-117
-116
-116
-117
-118
-119
-119
-119
-118
-117
-117
-118
-119
-118
-117
-116
-116
-117
-118
-118
-117
-115
-114
-114
-115
-116
-116
-115
-113
-113
-113
-115
-115
-115
-113
-113
-113
-115
-116
-117
-117
-116
-115
-116
-118
-119
-119
-119
-118
-118
-118
-120
-120
-119
-118
-117
-117
-118
-119
-119
-118
-117
-115
-115
-116
-117
-116
-115
-113
-112
-112
-113
-113
-111
-110
-108
-108
-109
-110
-111
-110
-108
-107
-108
-109
-110
-109
-109
-108
-107
-108
-109
-110
-109
-108
-107
-107
-108
-109
-109
-108
-107
-106
-106
-107
-108
-107
-106
-104
-104
-104
-104
-104
-103
-101
-100
-99
-100
-101
-101
-100
-98
-98
-98
-99
-100
-100
-99
-98
-98
-99
-100
-101
-101
-100
-100
-101
-102
-104
-105
-105
-104
-104
-105
-107
-108
-109
-109
-109
-109
-110
-112
-113
-113
-112
-112
-113
-115
-116
-117
-117
-116
-116
-116
-118
-119
-119
-118
-117
-116
-117
-118
-118
-118
-116
-115
-116
-117
-118
-119
-118
-117
-116
-117
-118
-120
-120
-119
-118
-118
-118
-120
-120
-120
-119
-118
-118
-119
-120
-121
-120
-118
-118
-118
-119
-120
-121
-120
-119
-119
-119
-121
-122
-121
-120
-120
-121
-122
-124
-124
-124
-123
-122
-123
-125
-126
-126
-125
-124
-124
-125
-126
-127
-126
-125
-124
-124
-125
-126
-126
-125
-123
-121
-121
-121
-121
-119
-117
-114
-111
-109
-108
-106
-103
-99
-95
-92
-91
-89
-86
-83
-78
-75
-73
-71
-70
-68
-65
-62
-59
-58
-58
-57
-56
-54
-52
-52
-53
-54
-55
-55
-55
-56
-59
-63
-67
-71
-74
-78
-83
-90
-97
-104
-110
-115
-121
-129
-136
-144
-151
-156
-160
-164
-168
-173
-177
-179
-179
-178
-178
-178
-177
-176
-173
-169
-165
-162
-160
-157
-154
-150
-145
-140
-137
-135
-133
-130
-127
-124
-121
-120
-119
-118
-117
-115
-113
-113
-115
-116
-117
-117
-116
-116
-118
-120
-122
-123
-123
-122
-123
-124
-126
-127
-127
-126
-125
-126
-128
-129
-130
-129
-128
-127
-128
-129
-130
-130
-129
-128
-128
-129
-130
-130
-130
-128
-128
-128
-129
-130
-130
-129
-128
-127
-127
-128
-128
-128
-126
-125
-124
-124
-125
-125
-124
-123
-122
-122
-123
-124
-124
-124
-122
-122
-122
-123
-124
-124
-122
-121
-120
-121
-122
-122
-121
-120
-118
-118
-119
-120
-120
-119
-117
-116
-117
-118
-119
-119
-118
-117
-117
-118
-119
-120
-120
-119
-118
-118
-120
-121
-121
-121
-120
-119
-119
-120
-121
-121
-120
-119
-119
-119
-120
-121
-121
-119
-119
-119
-120
-122
-122
-122
-121
-120
-121
-122
-123
-123
-122
-121
-120
-120
-121
-121
-121
-119
-118
-118
-119
-120
-120
-119
-118
-117
-118
-119
-120
-121
-120
-119
-119
-120
-121
-122
-121
-120
-119
-119
-120
-122
-122
-121
-119
-118
-118
-118
-119
-118
-117
-115
-114
-114
-115
-115
-115
-113
-112
-112
-114
-115
-116
-115
-114
-114
-114
-116
-117
-118
-117
-117
-116
-117
-119
-120
-120
-118
-118
-118
-119
-121
-121
-121
-120
-119
-119
-120
-121
-121
-121
-119
-119
-119
-120
-121
-120
-119
-117
-118
-119
-120
-120
-119
-117
-116
-116
-118
-118
-118
-117
-116
-115
-116
-117
-117
-117
-115
-115
-115
-116
-118
-118
-118
-117
-116
-117
-119
-120
-120
-120
-119
-119
-119
-120
-121
-120
-118
-117
-117
-118
-119
-118
-117
-115
-114
-114
-114
-114
-114
-113
-111
-110
-110
-111
-112
-111
-110
-109
-110
-111
-113
-114
-113
-113
-112
-113
-115
-116
-117
-116
-115
-115
-116
-117
-117
-117
-115
-114
-114
-115
-116
-116
-115
-113
-112
-112
-113
-114
-114
-113
-112
-112
-113
-114
-115
-116
-115
-115
-116
-118
-120
-121
-121
-121
-121
-122
-125
-126
-127
-127
-127
-127
-128
-130
-131
-130
-129
-128
-128
-129
-130
-130
-129
-127
-126
-126
-126
-127
-127
-125
-124
-123
-123
-124
-124
-124
-123
-122
-122
-124
-125
-126
-126
-125
-124
-125
-127
-128
-128
-127
-126
-126
-126
-127
-128
-127
-126
-125
-125
-126
-127
-128
-127
-126
-125
-125
-126
-128
-128
-127
-126
-126
-127
-128
-129
-129
-127
-126
-127
-128
-129
-129
-128
-127
-126
-126
-127
-127
-127
-126
-125
-124
-125
-126
-126
-126
-124
-123
-124
-125
-126
-127
-126
-125
-124
-124
-126
-127
-127
-126
-125
-125
-125
-126
-127
-127
-125
-125
-125
-126
-128
-128
-128
-126
-125
-126
-127
-128
-128
-127
-126
-126
-126
-127
-128
-128
-126
-125
-125
-126
-128
-128
-128
-127
-126
-126
-128
-129
-129
-129
-128
-127
-127
-128
-129
-128
-127
-126
-126
-127
-127
-128
-127
-125
-124
-124
-125
-126
-125
-124
-123
-122
-122
-123
-124
-123
-122
-121
-121
-122
-123
-123
-122
-121
-120
-120
-121
-121
-121
-120
-119
-118
-118
-119
-119
-118
-116
-115
-114
-115
-116
-116
-115
-113
-112
-112
-113
-114
-114
-113
-112
-111
-111
-112
-113
-112
-111
-110
-110
-111
-112
-113
-112
-110
-109
-109
-110
-111
-110
-109
-107
-106
-106
-106
-107
-106
-104
-102
-102
-103
-104
-104
-103
-102
-101
-101
-103
-104
-105
-104
-104
-104
-104
-106
-107
-108
-107
-107
-108
-109
-111
-113
-113
-112
-112
-112
-114
-116
-116
-116
-116
-115
-116
-118
-118
-118
-117
-116
-117
-118
-119
-120
-120
-119
-118
-119
-120
-121
-122
-122
-121
-121
-122
-124
-125
-126
-125
-125
-126
-128
-130
-131
-131
-130
-129
-130
-132
-133
-133
-133
-132
-131
-132
-133
-133
-132
-131
-130
-129
-130
-132
-132
-131
-130
-129
-129
-130
-131
-131
-130
-129
-129
-129
-131
-132
-131
-131
-130
-131
-132
-134
-134
-134
-133
-132
-133
-134
-135
-136
-135
-134
-134
-134
-135
-136
-135
-133
-131
-131
-131
-131
-130
-128
-125
-122
-121
-120
-119
-117
-114
-110
-107
-105
-103
-101
-99
-95
-92
-90
-89
-89
-88
-87
-84
-83
-83
-84
-85
-86
-86
-86
-86
-88
-92
-95
-98
-101
-105
-111
-119
-127
-135
-143
-151
-160
-170
-181
-193
-203
-212
-221
-231
-240
-250
-259
-265
-270
-274
-278
-281
-284
-285
-284
-282
-279
-276
-273
-270
-265
-259
-252
-245
-239
-234
-229
-222
-214
-207
-202
-197
-193
-187
-181
-175
-169
-164
-161
-157
-153
-149
-144
-141
-138
-137
-136
-134
-131
-129
-128
-128
-129
-129
-128
-126
-126
-126
-128
-129
-130
-129
-129
-129
-130
-131
-133
-133
-132
-132
-132
-134
-136
-137
-137
-136
-136
-136
-138
-139
-140
-139
-138
-137
-138
-138
-138
-137
-136
-134
-133
-134
-134
-134
-132
-130
-129
-128
-129
-129
-129
-128
-126
-125
-126
-127
-127
-127
-126
-125
-125
-126
-128
-129
-129
-128
-127
-128
-130
-131
-131
-130
-129
-129
-129
-130
-130
-130
-128
-127
-126
-127
-128
-128
-127
-125
-123
-122
-123
-123
-123
-121
-120
-119
-119
-119
-120
-119
-117
-116
-116
-116
-117
-118
-117
-116
-115
-115
-117
-118
-118
-118
-117
-116
-117
-118
-120
-120
-119
-118
-119
-120
-122
-123
-123
-122
-122
-123
-124
-125
-125
-125
-124
-123
-124
-125
-126
-125
-124
-123
-122
-123
-124
-125
-124
-123
-122
-122
-123
-124
-124
-124
-122
-122
-122
-124
-125
-124
-123
-123
-123
-124
-126
-127
-126
-125
-124
-125
-126
-128
-128
-127
-126
-126
-126
-127
-128
-128
-127
-125
-126
-127
-128
-128
-128
-126
-125
-125
-127
-127
-127
-126
-125
-125
-125
-126
-127
-126
-125
-124
-124
-126
-127
-127
-127
-126
-125
-125
-126
-127
-127
-126
-125
-124
-125
-126
-126
-125
-124
-123
-123
-124
-124
-125
-124
-122
-121
-121
-122
-122
-122
-121
-119
-119
-119
-120
-120
-119
-118
-116
-116
-117
-118
-119
-118
-117
-116
-117
-118
-119
-119
-119
-118
-117
-118
-119
-120
-119
-118
-117
-118
-119
-120
-121
-120
-119
-118
-118
-119
-120
-120
-119
-118
-117
-117
-118
-119
-118
-117
-116
-116
-117
-119
-120
-119
-119
-118
-119
-121
-122
-123
-123
-123
-123
-124
-125
-126
-126
-125
-124
-124
-125
-126
-127
-126
-124
-123
-123
-124
-125
-124
-123
-122
-121
-122
-123
-124
-123
-122
-122
-122
-124
-125
-126
-126
-126
-125
-126
-128
-129
-130
-129
-129
-128
-129
-130
-130
-130
-129
-128
-128
-129
-130
-130
-129
-128
-126
-126
-127
-128
-128
-127
-126
-126
-126
-127
-128
-128
-127
-126
-127
-128
-130
-130
-130
-129
-128
-128
-130
-131
-131
-131
-130
-129
-130
-131
-131
-131
-130
-129
-129
-130
-131
-132
-131
-130
-129
-129
-130
-131
-131
-130
-129
-128
-129
-129
-130
-129
-128
-126
-126
-128
-129
-129
-129
-128
-127
-128
-129
-131
-131
-131
-130
-130
-131
-132
-134
-133
-132
-132
-132
-133
-134
-134
-134
-132
-130
-130
-130
-131
-130
-129
-127
-126
-126
-126
-126
-125
-124
-122
-122
-123
-124
-125
-124
-123
-122
-123
-124
-126
-126
-126
-125
-125
-126
-127
-128
-128
-127
-126
-126
-127
-129
-129
-129
-127
-126
-126
-127
-128
-128
-127
-126
-126
-126
-127
-127
-127
-125
-124
-124
-125
-126
-126
-125
-124
-123
-123
-124
-124
-124
-123
-122
-121
-121
-122
-122
-122
-120
-118
-118
-119
-120
-120
-119
-117
-116
-116
-117
-118
-118
-116
-115
-114
-114
-115
-115
-114
-113
-112
-112
-112
-113
-114
-113
-111
-110
-110
-111
-111
-111
-110
-109
-108
-108
-109
-109
-108
-107
-105
-105
-106
-107
-107
-106
-105
-103
-103
-104
-105
-105
-104
-103
-103
-103
-104
-105
-105
-104
-104
-104
-105
-107
-108
-108
-107
-107
-108
-110
-111
-112
-112
-111
-111
-112
-113
-114
-114
-113
-113
-113
-114
-116
-117
-117
-116
-115
-116
-117
-119
-119
-119
-118
-118
-119
-120
-122
-122
-121
-121
-121
-123
-125
-126
-127
-126
-126
-126
-128
-130
-130
-130
-129
-129
-129
-130
-131
-131
-130
-129
-129
-130
-132
-132
-132
-131
-130
-130
-131
-132
-132
-131
-130
-129
-129
-130
-131
-131
-129
-128
-128
-129
-130
-131
-130
-129
-128
-128
-130
-131
-131
-131
-130
-130
-131
-132
-133
-133
-132
-132
-132
-134
-135
-136
-135
-133
-132
-132
-132
-133
-132
-130
-127
-125
-123
-122
-121
-118
-115
-111
-109
-107
-105
-103
-100
-95
-92
-89
-88
-86
-84
-81
-78
-76
-74
-74
-73
-72
-70
-68
-68
-69
-71
-72
-73
-74
-76
-80
-85
-91
-96
-102
-107
-114
-122
-131
-139
-147
-155
-162
-171
-180
-190
-198
-204
-209
-214
-219
-224
-229
-231
-233
-233
-233
-233
-233
-233
-230
-227
-223
-220
-218
-215
-212
-208
-203
-198
-194
-191
-188
-185
-180
-175
-170
-166
-164
-161
-157
-152
-148
-146
-144
-143
-142
-140
-137
-135
-134
-135
-135
-134
-133
-132
-132
-132
-134
-136
-136
-135
-134
-135
-137
-139
-140
-141
-140
-140
-140
-142
-143
-144
-143
-142
-142
-142
-143
-144
-143
-142
-140
-140
-141
-142
-142
-141
-139
-138
-137
-138
-138
-138
-137
-135
-133
-133
-133
-133
-132
-130
-128
-128
-128
-129
-129
-128
-126
-124
-124
-125
-126
-126
-125
-124
-123
-123
-124
-125
-125
-124
-123
-123
-124
-125
-126
-125
-124
-123
-123
-125
-126
-126
-125
-124
-124
-124
-125
-126
-126
-125
-124
-124
-125
-126
-127
-126
-125
-124
-124
-126
-127
-127
-126
-125
-124
-124
-125
-126
-125
-124
-123
-123
-124
-125
-125
-124
-123
-122
-122
-122
-123
-123
-122
-121
-120
-121
-122
-122
-122
-121
-120
-120
-121
-123
-123
-123
-122
-121
-122
-123
-125
-125
-124
-123
-123
-123
-124
-125
-124
-123
-122
-122
-123
-124
-124
-124
-122
-121
-121
-122
-123
-123
-122
-121
-121
-121
-122
-123
-123
-122
-122
-122
-123
-125
-126
-125
-124
-124
-124
-126
-127
-127
-126
-125
-125
-125
-126
-126
-126
-124
-123
-123
-124
-125
-125
-125
-124
-123
-123
-124
-125
-125
-125
-124
-123
-124
-125
-126
-125
-124
-124
-124
-125
-126
-127
-126
-125
-124
-124
-126
-127
-127
-126
-125
-124
-125
-126
-126
-126
-125
-124
-123
-124
-125
-126
-126
-124
-123
-123
-124
-125
-125
-124
-123
-122
-122
-123
-124
-123
-121
-120
-120
-121
-122
-122
-121
-120
-119
-119
-120
-120
-120
-120
-118
-118
-118
-119
-120
-120
-118
-117
-117
-118
-120
-120
-120
-119
-118
-118
-120
-121
-121
-121
-120
-119
-120
-121
-122
-121
-120
-119
-119
-120
-121
-122
-121
-120
-119
-119
-120
-121
-121
-121
-120
-119
-120
-121
-122
-122
-121
-120
-121
-122
-124
-125
-125
-124
-123
-124
-125
-127
-127
-127
-126
-125
-126
-127
-128
-128
-127
-126
-126
-127
-128
-129
-129
-128
-127
-127
-128
-129
-130
-129
-128
-127
-127
-128
-129
-128
-127
-126
-126
-127
-128
-128
-128
-126
-125
-125
-127
-128
-128
-128
-127
-126
-126
-128
-128
-128
-127
-126
-126
-127
-129
-129
-129
-127
-126
-126
-127
-128
-129
-128
-127
-126
-127
-128
-129
-128
-127
-126
-126
-127
-128
-129
-128
-127
-126
-126
-127
-128
-128
-127
-126
-125
-125
-125
-126
-126
-124
-123
-123
-124
-126
-126
-126
-125
-124
-124
-125
-127
-127
-126
-125
-125
-125
-127
-128
-127
-126
-125
-125
-126
-127
-128
-128
-126
-125
-125
-127
-128
-128
-127
-126
-126
-126
-127
-127
-127
-126
-125
-125
-126
-127
-128
-127
-126
-126
-126
-127
-128
-129
-128
-127
-126
-127
-128
-128
-128
-127
-125
-125
-126
-127
-127
-127
-125
-124
-123
-124
-125
-124
-123
-122
-121
-121
-121
-122
-121
-120
-118
-118
-118
-119
-120
-119
-117
-116
-116
-117
-118
-118
-117
-116
-115
-115
-116
-117
-117
-115
-114
-114
-115
-116
-117
-116
-115
-114
-114
-114
-115
-115
-114
-113
-111
-111
-112
-112
-112
-110
-108
-108
-108
-109
-110
-109
-108
-106
-107
-108
-109
-109
-109
-108
-107
-107
-108
-109
-109
-108
-108
-108
-110
-111
-112
-112
-111
-111
-111
-113
-115
-115
-115
-115
-115
-116
-117
-119
-119
-118
-118
-118
-120
-121
-122
-122
-121
-121
-121
-123
-124
-125
-124
-123
-123
-123
-125
-126
-126
-125
-124
-124
-125
-126
-127
-127
-126
-125
-126
-127
-129
-129
-129
-128
-127
-128
-129
-130
-130
-129
-128
-128
-130
-131
-132
-132
-131
-130
-131
-132
-133
-134
-133
-132
-132
-132
-133
-134
-134
-133
-132
-132
-133
-135
-135
-135
-134
-133
-133
-134
-135
-136
-135
-134
-133
-133
-134
-135
-135
-133
-132
-132
-133
-134
-134
-134
-132
-131
-130
-131
-131
-131
-129
-127
-125
-123
-123
-122
-120
-116
-112
-110
-108
-106
-104
-101
-97
-93
-90
-88
-86
-83
-80
-76
-73
-70
-69
-68
-65
-62
-60
-58
-58
-58
-58
-57
-56
-55
-56
-58
-61
-64
-66
-68
-71
-76
-82
-88
-94
-99
-104
-111
-119
-127
-135
-141
-146
-151
-157
-163
-169
-174
-176
-178
-179
-181
-183
-184
-183
-181
-178
-176
-175
-174
-171
-168
-164
-160
-157
-155
-153
-150
-147
-143
-139
-137
-136
-135
-133
-130
-127
-125
-125
-126
-126
-125
-123
-122
-122
-123
-125
-126
-125
-125
-125
-126
-127
-129
-130
-130
-129
-130
-132
-134
-135
-135
-134
-134
-134
-135
-137
-137
-136
-135
-134
-134
-135
-136
-135
-133
-132
-132
-133
-134
-134
-134
-133
-131
-131
-133
-134
-134
-133
-132
-131
-131
-132
-133
-132
-131
-130
-129
-130
-131
-132
-131
-129
-128
-128
-128
-129
-130
-129
-128
-127
-127
-127
-128
-128
-127
-125
-125
-126
-127
-128
-128
-126
-125
-125
-126
-127
-128
-127
-126
-125
-125
-126
-127
-127
-126
-125
-125
-126
-127
-127
-127
-126
-125
-125
-126
-127
-128
-127
-126
-125
-126
-127
-128
-127
-126
-125
-125
-126
-127
-128
-128
-127
-125
-125
-126
-128
-128
-127
-126
-125
-125
-126
-126
-126
-125
-123
-123
-124
-125
-125
-125
-123
-122
-122
-123
-124
-124
-123
-122
-121
-121
-121
-122
-122
-121
-119
-119
-120
-122
-123
-122
-121
-120
-120
-122
-123
-124
-123
-122
-122
-122
-123
-124
-125
-124
-123
-123
-124
-125
-126
-126
-125
-124
-124
-125
-126
-127
-126
-125
-124
-124
-125
-126
-126
-125
-124
-123
-124
-126
-126
-126
-125
-124
-124
-125
-126
-127
-126
-125
-124
-124
-125
-126
-126
-124
-123
-123
-124
-125
-126
-126
-125
-124
-124
-125
-126
-126
-126
-125
-124
-124
-125
-126
-126
-124
-123
-123
-124
-125
-126
-126
-124
-123
-123
-124
-125
-125
-124
-123
-123
-123
-124
-125
-124
-123
-122
-122
-123
-124
-125
-124
-123
-122
-122
-123
-124
-124
-124
-122
-121
-121
-122
-123
-122
-121
-119
-119
-119
-120
-121
-120
-118
-117
-117
-117
-118
-119
-118
-117
-116
-116
-117
-118
-118
-117
-117
-117
-118
-119
-120
-121
-120
-119
-119
-121
-122
-123
-122
-121
-121
-121
-122
-124
-124
-123
-122
-122
-123
-125
-126
-125
-124
-123
-123
-125
-126
-126
-126
-125
-124
-124
-125
-126
-126
-125
-124
-124
-125
-127
-127
-127
-126
-125
-125
-127
-128
-129
-128
-127
-126
-127
-128
-129
-129
-127
-126
-126
-127
-128
-129
-128
-127
-126
-126
-127
-129
-129
-129
-128
-127
-127
-128
-130
-130
-128
-127
-127
-128
-129
-130
-129
-128
-127
-127
-128
-129
-129
-128
-126
-125
-125
-126
-127
-127
-126
-124
-124
-125
-126
-127
-127
-126
-125
-125
-126
-127
-128
-127
-126
-125
-125
-126
-127
-127
-125
-124
-124
-125
-126
-126
-126
-124
-123
-123
-124
-125
-125
-124
-123
-122
-122
-123
-124
-124
-122
-121
-121
-122
-123
-124
-124
-122
-121
-121
-122
-124
-124
-123
-122
-121
-121
-122
-123
-123
-122
-121
-121
-122
-123
-123
-123
-122
-121
-121
-122
-124
-124
-124
-123
-122
-122
-123
-124
-124
-123
-122
-122
-123
-124
-125
-125
-123
-122
-122
-123
-124
-124
-123
-121
-120
-120
-120
-121
-120
-119
-117
-117
-117
-118
-119
-118
-117
-115
-115
-116
-117
-118
-117
-116
-115
-115
-116
-117
-117
-116
-114
-114
-114
-115
-116
-115
-114
-112
-112
-113
-114
-114
-113
-111
-110
-109
-110
-110
-110
-108
-106
-106
-107
-108
-108
-108
-106
-105
-105
-106
-107
-108
-107
-107
-106
-106
-108
-109
-110
-109
-108
-109
-110
-112
-114
-114
-113
-112
-113
-114
-115
-116
-116
-115
-115
-115
-116
-117
-117
-116
-115
-116
-117
-118
-120
-120
-119
-118
-119
-121
-122
-123
-123
-123
-122
-123
-124
-126
-126
-125
-124
-123
-125
-126
-127
-127
-126
-125
-125
-126
-127
-128
-127
-126
-126
-126
-127
-128
-128
-127
-126
-126
-127
-129
-129
-129
-128
-127
-127
-128
-129
-130
-129
-129
-128
-128
-130
-131
-131
-130
-129
-128
-130
-131
-132
-132
-131
-130
-130
-131
-132
-133
-132
-131
-130
-130
-131
-132
-132
-131
-130
-129
-130
-131
-132
-132
-130
-129
-128
-129
-129
-128
-126
-124
-121
-119
-118
-117
-114
-110
-106
-103
-101
-99
-96
-93
-88
-84
-81
-79
-77
-75
-72
-69
-66
-64
-63
-62
-61
-58
-56
-55
-55
-56
-57
-57
-56
-56
-58
-61
-64
-68
-71
-74
-77
-82
-89
-96
-102
-107
-113
-119
-126
-134
-141
-147
-152
-156
-160
-166
-170
-174
-175
-175
-175
-175
-175
-175
-173
-169
-165
-162
-159
-157
-154
-150
-146
-141
-137
-135
-133
-131
-127
-124
-121
-119
-118
-118
-116
-114
-113
-112
-113
-114
-116
-116
-116
-116
-117
-119
-121
-123
-123
-123
-124
-125
-127
-129
-129
-129
-128
-129
-130
-132
-132
-132
-131
-130
-130
-131
-132
-132
-132
-130
-129
-129
-130
-131
-131
-130
-129
-129
-129
-131
-131
-131
-130
-128
-128
-129
-130
-130
-129
-128
-126
-126
-127
-127
-127
-126
-124
-124
-125
-126
-126
-126
-125
-124
-124
-125
-126
-127
-127
-126
-125
-125
-126
-127
-127
-126
-125
-124
-125
-127
-127
-127
-125
-124
-124
-125
-126
-126
-125
-124
-123
-123
-124
-124
-124
-123
-122
-122
-123
-124
-124
-124
-122
-121
-120
-121
-122
-122
-121
-119
-118
-118
-118
-119
-118
-117
-115
-115
-116
-117
-118
-118
-116
-115
-115
-117
-118
-119
-118
-117
-117
-117
-118
-119
-119
-118
-117
-117
-118
-119
-120
-120
-118
-117
-117
-118
-119
-120
-119
-118
-118
-118
-119
-120
-120
-119
-118
-117
-118
-119
-120
-120
-118
-117
-117
-118
-118
-119
-118
-117
-116
-115
-116
-117
-117
-115
-114
-114
-115
-116
-117
-117
-117
-116
-116
-117
-119
-120
-120
-119
-119
-119
-121
-122
-123
-122
-121
-121
-122
-124
-125
-124
-123
-122
-122
-123
-124
-124
-124
-122
-121
-121
-122
-123
-122
-121
-120
-119
-120
-121
-122
-122
-121
-119
-119
-120
-121
-121
-121
-120
-119
-119
-120
-121
-120
-119
-118
-118
-118
-120
-121
-120
-119
-118
-118
-119
-120
-120
-120
-119
-118
-118
-119
-120
-120
-119
-118
-117
-118
-119
-120
-120
-118
-117
-117
-117
-118
-119
-118
-116
-115
-115
-116
-116
-116
-115
-113
-113
-113
-114
-115
-115
-114
-112
-112
-113
-114
-115
-114
-113
-112
-112
-113
-114
-114
-113
-111
-111
-112
-113
-114
-114
-113
-112
-112
-113
-114
-115
-114
-114
-113
-113
-115
-116
-116
-115
-114
-114
-115
-117
-118
-118
-117
-116
-117
-118
-120
-121
-121
-120
-120
-120
-122
-124
-124
-124
-123
-123
-124
-126
-127
-127
-126
-125
-126
-127
-128
-128
-127
-126
-125
-124
-125
-125
-125
-123
-122
-121
-121
-122
-123
-122
-121
-120
-120
-121
-122
-123
-123
-122
-121
-121
-123
-124
-124
-123
-123
-123
-124
-126
-127
-127
-126
-125
-125
-126
-127
-127
-126
-125
-124
-124
-125
-126
-125
-124
-123
-122
-123
-124
-124
-124
-123
-121
-121
-122
-123
-123
-123
-121
-120
-120
-121
-121
-121
-120
-118
-117
-118
-119
-119
-119
-118
-116
-116
-117
-118
-118
-118
-117
-116
-116
-117
-118
-118
-117
-116
-116
-117
-118
-119
-119
-118
-117
-117
-119
-120
-121
-121
-120
-120
-120
-122
-123
-123
-122
-121
-121
-122
-123
-123
-123
-121
-120
-119
-119
-120
-120
-119
-117
-116
-115
-116
-117
-116
-115
-114
-114
-115
-116
-117
-118
-117
-116
-116
-117
-119
-120
-120
-119
-118
-118
-119
-120
-119
-118
-117
-116
-117
-118
-118
-118
-116
-115
-114
-115
-116
-116
-115
-114
-113
-113
-114
-115
-114
-113
-111
-111
-111
-112
-113
-112
-111
-109
-108
-109
-110
-109
-108
-107
-105
-105
-105
-106
-106
-105
-103
-102
-103
-104
-105
-104
-103
-102
-102
-102
-104
-104
-103
-102
-101
-100
-101
-102
-101
-100
-98
-98
-98
-99
-100
-99
-98
-96
-96
-97
-98
-98
-98
-97
-97
-97
-98
-99
-100
-99
-98
-99
-100
-102
-104
-105
-105
-105
-106
-108
-110
-111
-112
-111
-111
-112
-114
-115
-116
-115
-114
-114
-115
-117
-118
-117
-116
-115
-115
-116
-117
-117
-117
-116
-115
-116
-117
-118
-119
-118
-117
-118
-119
-121
-122
-123
-122
-121
-122
-123
-125
-126
-126
-125
-125
-125
-127
-129
-129
-128
-127
-127
-128
-130
-131
-131
-130
-129
-128
-129
-130
-130
-130
-128
-127
-127
-128
-129
-129
-128
-127
-127
-128
-129
-130
-131
-130
-129
-130
-131
-133
-134
-134
-133
-132
-133
-134
-135
-135
-134
-132
-131
-132
-132
-131
-130
-127
-124
-121
-120
-118
-116
-113
-109
-105
-101
-99
-96
-93
-88
-83
-80
-78
-76
-74
-71
-68
-65
-63
-62
-62
-62
-61
-59
-58
-58
-60
-62
-64
-65
-67
-71
-76
-83
-91
-98
-105
-112
-122
-133
-144
-156
-166
-176
-187
-197
-209
-220
-230
-238
-245
-252
-259
-266
-271
-274
-275
-274
-274
-275
-275
-273
-270
-265
-261
-256
-252
-249
-243
-237
-230
-225
-220
-216
-212
-206
-200
-193
-188
-185
-182
-178
-174
-169
-165
-162
-160
-159
-157
-154
-151
-150
-150
-150
-150
-149
-147
-145
-144
-144
-145
-144
-143
-142
-140
-140
-140
-140
-140
-138
-136
-135
-135
-136
-136
-136
-134
-132
-132
-133
-134
-134
-133
-132
-131
-130
-131
-131
-131
-129
-127
-126
-127
-128
-128
-127
-126
-124
-124
-125
-126
-126
-126
-124
-123
-123
-123
-124
-123
-122
-120
-120
-120
-121
-122
-121
-120
-118
-118
-118
-119
-119
-118
-116
-115
-115
-116
-117
-117
-116
-114
-114
-115
-116
-117
-117
-117
-116
-116
-117
-119
-119
-119
-118
-118
-118
-119
-120
-121
-119
-118
-118
-118
-119
-120
-120
-118
-117
-116
-117
-117
-117
-116
-115
-113
-113
-113
-114
-113
-112
-110
-110
-111
-112
-112
-111
-110
-109
-110
-111
-112
-113
-113
-112
-112
-112
-113
-115
-115
-114
-113
-113
-114
-116
-117
-117
-117
-116
-116
-117
-118
-118
-118
-117
-116
-116
-116
-117
-117
-115
-114
-113
-114
-115
-115
-115
-114
-112
-112
-113
-114
-115
-114
-113
-113
-113
-114
-115
-115
-114
-113
-113
-113
-115
-115
-115
-114
-112
-112
-112
-113
-113
-113
-111
-110
-110
-111
-112
-112
-111
-110
-110
-111
-112
-114
-114
-113
-112
-112
-113
-114
-114
-114
-113
-113
-113
-114
-115
-115
-114
-113
-112
-113
-115
-116
-116
-116
-115
-114
-116
-117
-117
-117
-115
-114
-114
-114
-115
-115
-113
-111
-111
-111
-112
-112
-112
-111
-109
-108
-109
-110
-110
-110
-108
-107
-107
-108
-109
-109
-108
-106
-106
-107
-108
-109
-109
-108
-107
-107
-108
-109
-110
-110
-109
-109
-109
-110
-112
-112
-111
-111
-111
-112
-113
-115
-115
-114
-113
-113
-114
-115
-116
-116
-115
-114
-114
-115
-117
-117
-116
-115
-114
-115
-116
-117
-116
-115
-114
-114
-115
-116
-117
-117
-116
-116
-116
-118
-120
-120
-120
-119
-120
-121
-123
-125
-125
-125
-124
-124
-126
-127
-128
-127
-126
-125
-125
-125
-126
-126
-124
-123
-122
-123
-124
-125
-125
-123
-122
-122
-123
-124
-125
-125
-124
-123
-124
-125
-126
-127
-126
-125
-124
-125
-126
-127
-127
-126
-124
-123
-124
-124
-124
-123
-122
-121
-121
-121
-123
-123
-122
-121
-121
-122
-124
-125
-126
-125
-125
-125
-126
-128
-129
-129
-127
-126
-126
-126
-127
-126
-125
-123
-122
-122
-122
-122
-121
-119
-117
-116
-117
-117
-117
-116
-115
-114
-114
-115
-116
-117
-116
-115
-115
-116
-118
-119
-119
-119
-118
-118
-120
-121
-122
-122
-121
-120
-120
-121
-122
-123
-121
-120
-120
-120
-121
-122
-122
-121
-120
-120
-121
-122
-122
-122
-121
-120
-120
-121
-122
-122
-121
-120
-120
-121
-122
-123
-124
-123
-122
-122
-123
-125
-126
-125
-124
-123
-123
-124
-125
-125
-124
-123
-122
-123
-124
-124
-124
-122
-121
-120
-121
-121
-122
-121
-119
-118
-118
-119
-119
-119
-118
-117
-116
-117
-118
-119
-119
-118
-116
-116
-117
-118
-118
-117
-116
-115
-114
-115
-116
-115
-114
-112
-111
-111
-112
-113
-112
-111
-109
-108
-109
-110
-110
-109
-107
-106
-105
-106
-106
-106
-104
-103
-102
-102
-103
-104
-103
-102
-101
-100
-101
-102
-102
-102
-100
-99
-99
-100
-101
-101
-100
-99
-98
-99
-100
-101
-100
-99
-98
-97
-98
-100
-100
-100
-99
-98
-97
-98
-99
-99
-97
-96
-96
-97
-98
-99
-99
-98
-97
-97
-98
-100
-100
-100
-100
-99
-100
-101
-103
-104
-103
-103
-103
-104
-106
-107
-108
-107
-107
-107
-109
-111
-113
-113
-113
-113
-113
-115
-117
-118
-118
-118
-118
-120
-122
-124
-124
-124
-123
-123
-124
-125
-126
-126
-125
-124
-124
-125
-125
-125
-124
-123
-122
-123
-124
-125
-124
-123
-122
-121
-122
-123
-124
-123
-122
-121
-121
-122
-123
-123
-122
-120
-120
-121
-122
-124
-124
-123
-122
-123
-124
-126
-127
-126
-126
-125
-126
-127
-128
-129
-128
-127
-126
-126
-127
-127
-126
-124
-121
-120
-119
-118
-116
-113
-110
-106
-104
-101
-100
-97
-92
-88
-84
-82
-80
-78
-75
-72
-68
-66
-65
-64
-63
-61
-59
-57
-56
-56
-56
-56
-55
-55
-55
-57
-61
-64
-68
-71
-74
-79
-86
-94
-101
-108
-115
-121
-129
-138
-147
-155
-161
-167
-174
-180
-187
-193
-197
-199
-200
-202
-204
-206
-207
-206
-205
-203
-201
-200
-199
-197
-194
-191
-188
-186
-185
-183
-181
-177
-174
-171
-169
-168
-166
-163
-159
-156
-153
-151
-150
-148
-145
-142
-140
-139
-139
-138
-137
-135
-133
-132
-132
-133
-133
-132
-131
-130
-131
-132
-133
-133
-132
-131
-131
-132
-134
-135
-135
-134
-132
-132
-133
-134
-134
-133
-132
-130
-130
-130
-130
-129
-128
-126
-124
-124
