# Simple Text Format
# Sampling Rate (Hz):= 1200.00
# Resolution:= 12
# Labels:= ECG	 V3
# Age:=	45
# Gender:=	Masculino
494
494
493
493
494
493
494
494
495
494
494
494
494
494
495
494
494
493
494
493
494
494
493
493
493
492
493
493
493
493
493
492
493
493
493
493
493
493
493
493
493
493
494
492
492
491
491
491
491
491
489
489
488
488
489
489
490
489
490
491
493
494
497
497
499
501
505
507
510
513
515
518
522
526
529
534
537
540
543
548
553
556
560
563
566
570
574
579
582
585
589
592
594
597
600
601
600
599
598
596
595
591
587
581
574
567
560
551
542
532
520
509
497
485
473
459
445
431
418
404
391
378
364
351
338
326
315
304
294
285
276
268
262
257
252
249
246
244
243
243
245
246
249
252
254
259
264
269
273
279
283
288
293
299
304
309
313
318
323
328
333
338
343
347
351
356
361
366
370
375
379
383
388
394
398
403
408
411
416
420
425
429
433
437
439
443
447
449
452
455
456
458
460
461
463
463
464
465
465
467
467
468
468
467
467
467
468
468
468
468
468
467
467
467
467
467
466
465
466
466
466
467
466
465
464
464
464
465
464
464
464
463
463
464
464
464
463
464
463
463
465
465
465
464
464
465
465
466
466
467
467
466
467
468
469
469
469
469
469
470
470
470
470
470
470
470
471
471
471
471
470
470
470
471
471
470
470
470
469
469
470
471
470
470
470
470
470
470
470
470
470
469
470
471
471
472
472
472
472
474
475
476
476
476
476
478
479
480
481
482
482
482
483
484
485
486
486
486
487
487
488
489
489
490
490
490
491
493
493
493
493
494
494
495
496
496
496
496
497
498
499
499
499
499
499
499
500
500
500
500
500
499
499
499
500
499
499
499
499
499
500
500
499
499
499
499
500
500
501
501
500
500
500
500
502
501
501
500
501
501
501
502
501
501
500
500
501
501
501
500
499
499
498
499
498
498
497
496
495
494
494
494
492
491
489
488
487
486
485
483
481
479
479
478
476
475
474
471
470
469
468
467
467
464
463
462
462
460
459
458
456
454
454
453
452
451
449
449
448
447
446
446
445
444
443
443
442
441
441
440
439
438
438
438
437
436
435
434
433
433
432
433
431
430
428
427
427
427
426
425
423
422
421
421
421
420
418
417
417
416
416
417
416
414
414
413
413
413
413
412
412
412
412
412
412
412
411
410
410
410
410
410
409
408
407
407
407
408
406
406
405
404
403
403
404
404
402
402
402
401
403
402
402
401
401
401
401
401
401
401
400
400
400
399
399
400
399
398
397
398
398
398
398
397
397
397
397
397
397
396
396
396
396
395
395
396
395
394
394
395
395
394
395
393
392
392
392
393
392
392
390
390
390
389
390
389
388
387
386
386
386
386
385
384
383
382
382
381
380
380
379
377
377
376
376
375
374
373
372
372
372
372
371
371
370
371
371
372
371
371
371
371
372
373
374
373
373
374
374
374
375
375
374
374
374
374
374
374
374
374
372
372
372
371
371
370
369
369
368
368
368
367
366
366
364
364
364
364
363
363
362
362
361
361
361
361
360
360
361
361
361
361
361
361
361
361
362
362
362
362
362
362
362
363
363
363
363
363
363
364
364
364
365
364
364
364
365
365
365
364
364
364
364
364
364
363
362
362
362
362
363
362
361
361
360
361
362
361
361
360
359
359
359
360
360
359
359
358
358
358
358
359
358
357
356
357
357
356
356
355
355
354
354
354
354
353
351
351
350
349
349
348
347
346
344
344
343
343
342
340
339
338
337
336
336
336
334
333
333
334
334
334
333
333
332
333
333
334
333
333
332
332
332
333
333
333
332
331
332
332
332
332
332
331
332
331
332
332
332
332
331
331
332
332
332
331
331
331
331
331
332
332
332
331
331
331
332
332
332
332
332
332
332
333
333
333
332
332
333
333
333
333
333
332
332
332
331
332
332
331
331
330
331
330
331
331
330
329
330
331
331
332
333
333
333
335
336
338
340
342
344
345
348
352
354
356
360
362
366
369
374
378
382
386
389
394
399
403
407
412
416
421
425
430
435
439
443
447
452
457
461
464
466
468
469
469
469
469
467
465
460
457
451
445
438
430
422
411
401
390
380
368
355
341
328
314
302
288
274
260
246
233
220
208
197
185
174
165
155
147
141
134
129
124
120
117
116
116
116
116
117
119
122
126
130
133
137
141
146
151
156
162
165
170
175
180
186
192
196
201
206
212
218
223
229
234
239
244
249
255
262
267
272
276
282
287
292
297
302
305
309
312
316
320
323
326
329
330
333
336
338
339
341
342
343
344
346
346
347
347
347
348
348
349
350
349
349
348
348
349
350
350
350
349
349
349
350
350
350
350
349
349
350
350
350
349
349
349
348
348
348
349
348
347
347
346
346
346
346
345
345
344
344
344
345
344
344
344
344
345
346
346
347
347
347
347
349
349
350
350
350
350
351
351
351
351
350
350
350
350
350
351
350
349
349
348
349
349
349
349
349
349
349
350
350
351
351
351
351
352
353
354
354
353
353
354
354
355
356
355
355
355
355
356
356
356
355
355
356
356
357
358
357
357
357
357
359
359
358
358
359
359
359
360
361
361
362
362
362
363
365
365
366
366
367
368
369
370
370
371
371
371
373
373
375
374
374
374
374
375
376
377
376
376
376
376
377
376
376
375
375
375
375
376
375
374
373
373
373
374
374
373
373
373
372
372
373
373
373
373
373
373
373
373
373
373
373
371
371
372
372
371
371
370
370
369
369
368
367
365
364
362
361
360
359
357
355
354
352
351
350
348
347
344
343
342
341
339
338
336
335
333
333
332
331
330
329
327
325
325
325
324
322
321
319
319
318
318
317
316
315
313
313
311
311
310
309
307
306
305
304
304
302
300
299
298
297
296
295
293
292
291
290
289
290
287
287
286
286
286
286
285
285
283
283
283
283
282
282
282
281
280
281
281
280
280
279
278
278
278
277
277
276
276
275
275
274
274
274
273
273
273
273
273
273
272
272
272
272
272
272
272
272
271
271
272
272
272
272
272
271
271
271
271
271
271
271
270
270
271
271
271
270
269
269
268
269
269
269
267
267
266
266
266
266
266
265
264
264
263
263
264
264
262
261
261
261
262
261
261
261
260
259
260
260
259
259
257
257
257
258
258
257
256
256
256
256
256
255
255
254
254
254
254
254
253
254
253
254
254
254
254
253
253
252
252
252
252
252
252
251
250
250
251
251
250
249
249
249
250
250
251
250
250
250
250
251
251
251
252
252
252
252
253
253
253
253
253
253
253
254
253
253
252
251
252
252
252
252
251
250
249
249
249
249
249
249
248
249
249
250
250
250
250
249
251
251
252
252
252
252
252
253
253
254
254
253
253
253
253
253
253
252
251
251
251
250
250
249
249
248
247
247
247
246
246
245
245
246
246
246
246
246
245
246
246
246
246
246
245
244
244
244
244
244
244
243
242
241
241
241
241
240
239
238
237
237
236
235
235
234
232
232
233
232
231
230
229
229
228
228
227
226
224
224
223
224
224
223
223
223
222
222
223
223
223
222
222
223
224
225
225
226
226
225
226
226
226
227
226
226
225
225
225
225
224
223
222
222
221
222
221
221
219
218
218
219
218
218
218
217
217
216
217
217
216
215
215
216
215
217
217
216
216
216
215
216
216
216
215
215
214
214
214
215
214
214
212
212
214
214
214
213
213
213
212
213
213
213
213
213
212
212
212
212
212
212
212
212
212
213
214
214
213
214
214
216
217
219
220
222
224
226
228
231
233
235
238
240
243
247
251
253
257
260
265
269
273
277
281
285
289
294
298
303
308
311
315
319
324
327
329
331
333
333
334
334
333
332
328
325
321
316
311
305
297
288
279
271
261
250
239
228
216
202
190
177
165
151
138
123
110
98
86
74
62
52
40
32
23
16
10
4
-2
-6
-9
-10
-10
-10
-11
-10
-8
-5
-1
4
7
12
16
21
26
32
37
41
46
50
55
60
65
69
73
77
81
85
90
94
98
101
105
110
114
119
123
127
131
135
140
145
149
153
157
160
164
168
172
176
179
181
184
187
191
194
196
197
199
200
202
204
206
206
207
207
208
209
211
211
211
210
210
211
212
212
213
213
211
211
211
212
213
213
212
211
212
211
211
212
211
210
210
210
210
210
210
210
210
210
210
211
211
211
211
211
211
212
212
214
214
214
213
214
215
216
217
216
216
216
217
217
218
219
218
217
218
218
218
219
218
217
217
218
218
218
219
219
219
218
219
219
220
219
218
218
219
220
221
221
222
222
222
224
225
226
227
228
228
228
230
231
233
234
233
234
234
235
236
236
236
235
235
236
237
237
237
237
237
237
237
238
238
238
237
237
237
238
239
240
239
239
240
240
241
242
243
243
244
245
246
247
248
248
250
250
250
251
252
253
253
253
253
254
255
256
256
257
256
256
257
257
257
258
257
257
257
257
258
257
257
257
257
257
257
257
258
257
257
257
257
257
257
257
256
256
256
255
256
255
255
254
253
253
253
253
252
251
249
249
248
248
248
247
245
243
242
242
241
240
238
236
235
233
232
231
229
227
225
224
222
221
219
218
216
213
211
211
210
209
207
205
203
203
201
201
200
199
198
196
195
195
194
193
192
190
189
189
189
188
187
185
185
184
184
184
183
182
181
180
179
179
178
178
177
175
175
174
174
173
172
171
170
170
170
169
169
168
167
166
166
167
166
166
164
164
163
164
164
163
162
162
161
162
162
163
162
162
161
161
161
161
161
161
161
161
160
160
161
160
160
159
158
158
157
157
157
157
155
154
154
154
153
154
152
152
151
151
152
152
151
151
150
150
150
151
151
150
150
149
149
150
150
149
148
148
148
148
148
149
149
148
148
149
149
150
151
151
150
150
150
150
151
151
151
150
150
150
150
150
149
148
148
148
149
149
149
148
147
147
147
147
147
147
147
147
147
147
147
148
147
147
147
147
147
148
148
148
148
147
148
148
149
150
149
148
148
148
148
148
148
147
146
146
146
146
145
145
143
143
143
143
143
142
142
142
141
142
142
143
143
142
142
143
143
144
144
144
144
144
144
144
144
144
144
144
143
144
144
143
144
142
142
143
143
144
143
144
144
143
144
145
145
145
145
145
146
147
147
148
148
148
148
148
149
150
150
150
150
150
151
152
152
152
152
152
152
152
153
154
153
153
153
154
154
155
156
155
155
154
155
155
157
157
157
156
156
157
158
158
158
157
158
157
158
159
158
157
157
156
156
156
155
155
154
152
152
151
150
150
148
148
146
146
146
146
146
145
145
144
145
146
146
146
147
147
146
148
149
150
150
149
150
150
152
153
153
154
154
155
155
156
157
158
159
159
160
161
162
162
163
163
163
165
165
166
167
167
166
166
167
168
168
168
168
167
168
168
169
170
170
169
168
169
169
170
170
170
170
169
170
171
171
171
170
170
171
170
171
171
170
170
169
169
170
170
169
169
168
167
168
168
169
168
167
167
168
167
168
169
168
168
169
170
170
171
172
173
172
172
173
174
174
176
175
176
177
178
180
181
182
184
185
187
190
193
195
198
199
203
206
210
214
219
222
226
230
234
239
244
248
251
255
259
265
268
272
275
279
283
286
289
291
293
294
294
293
293
292
290
287
283
279
275
270
263
256
249
239
230
221
211
200
189
177
164
152
138
126
112
99
86
72
59
48
36
25
14
3
-6
-14
-22
-28
-33
-39
-42
-45
-46
-46
-46
-45
-45
-42
-39
-35
-30
-27
-22
-19
-13
-9
-3
2
7
10
15
19
25
30
34
38
42
46
50
55
60
64
68
71
76
80
84
89
93
96
101
105
109
114
118
122
126
130
134
139
143
148
151
154
158
160
164
168
170
172
173
174
176
178
179
179
179
179
180
180
180
181
179
179
178
178
178
178
178
177
176
176
176
177
177
176
176
176
176
178
179
178
179
179
179
180
181
182
182
182
182
181
182
183
183
183
183
182
182
183
184
183
184
182
182
183
183
183
183
183
182
183
182
184
184
184
184
183
184
185
186
187
186
186
187
187
189
189
189
190
190
190
191
192
192
193
193
193
194
194
196
196
196
196
196
197
198
198
198
198
198
198
199
199
199
199
199
199
199
200
201
200
200
200
200
200
202
202
202
203
202
203
205
206
207
207
208
209
210
211
214
215
215
216
216
217
219
220
221
221
221
222
222
224
224
225
225
224
225
225
226
227
226
226
227
228
228
229
230
230
230
231
232
232
233
232
233
233
233
234
235
235
235
235
234
235
235
235
235
234
234
233
234
234
234
233
232
231
231
232
232
232
231
230
230
230
230
229
230
228
227
227
227
226
226
225
223
222
222
221
221
220
218
217
215
214
213
213
211
209
207
206
205
204
203
201
200
198
197
196
195
195
193
192
190
190
190
189
188
186
185
184
184
183
182
181
180
178
177
177
176
175
174
172
171
171
170
169
168
167
166
165
165
165
165
164
164
164
165
164
165
165
164
163
163
163
163
163
163
161
160
160
160
160
159
158
157
156
156
156
156
156
156
154
154
154
154
155
155
155
155
155
156
156
157
156
156
156
157
158
158
158
157
158
157
158
158
158
158
157
156
156
156
156
156
155
154
154
153
154
154
154
153
153
153
152
154
154
154
154
154
154
155
155
156
156
155
156
156
157
157
157
157
156
156
156
156
156
155
155
154
154
153
153
153
152
151
150
150
150
150
150
149
148
148
148
148
149
148
148
148
148
149
149
150
150
150
149
150
151
152
151
151
150
151
151
151
152
152
151
150
150
150
150
151
150
150
149
150
150
151
151
151
150
151
151
151
153
153
152
152
152
153
153
153
153
152
152
153
153
154
154
153
152
152
152
152
151
152
150
149
149
149
149
149
148
147
147
146
146
146
146
145
144
144
144
145
145
145
145
144
145
146
146
147
146
146
146
147
148
148
148
148
149
148
149
150
150
151
151
150
150
151
151
152
152
152
151
153
153
153
154
154
154
154
155
155
155
156
156
155
156
155
157
156
156
156
155
155
156
156
156
155
154
154
154
154
154
153
152
152
151
151
150
150
149
147
147
146
146
146
145
144
143
142
142
142
141
141
139
139
138
138
137
137
136
135
134
134
132
132
131
130
130
128
128
127
127
127
125
124
124
123
124
124
124
124
123
123
124
125
126
125
126
125
127
128
128
129
129
128
129
129
131
131
131
131
131
132
133
132
133
132
132
131
131
131
131
131
130
130
129
129
128
129
128
127
126
126
126
126
126
125
125
125
124
126
125
125
124
123
124
123
125
124
124
124
123
124
124
125
125
124
124
124
124
124
124
124
124
123
123
124
124
125
124
125
124
126
127
129
130
131
133
134
136
139
142
144
146
148
151
154
158
161
165
168
171
175
180
184
189
192
196
200
205
209
214
219
223
227
232
236
241
245
248
250
253
253
255
254
253
251
248
243
239
233
227
219
210
201
190
179
168
155
141
128
114
100
86
72
57
42
28
13
-1
-14
-26
-38
-51
-61
-71
-79
-87
-95
-102
-108
-112
-114
-116
-116
-117
-117
-116
-114
-110
-107
-102
-98
-93
-88
-83
-78
-72
-67
-62
-57
-52
-46
-39
-34
-28
-23
-19
-14
-8
-3
4
8
12
17
23
28
34
39
43
48
52
58
63
68
73
77
81
84
89
93
96
99
101
104
107
109
112
114
115
116
118
118
120
122
122
123
123
122
124
125
124
125
125
125
125
126
126
127
126
126
126
127
128
129
129
130
130
130
130
131
132
132
132
132
132
132
132
132
132
130
130
131
130
130
130
129
128
128
129
129
129
129
129
129
129
129
131
131
132
132
132
133
133
135
135
136
135
135
136
137
138
137
136
136
137
137
138
137
138
136
136
137
137
138
138
137
136
137
137
137
138
138
138
138
138
139
140
141
141
141
142
142
144
145
146
146
146
146
148
149
150
151
151
151
151
153
153
154
155
155
156
157
158
160
160
160
160
161
162
163
164
164
164
164
165
166
166
167
168
167
167
168
168
170
170
170
170
170
171
172
173
174
174
174
174
175
176
177
176
177
177
178
180
181
182
182
182
182
183
184
185
185
185
185
185
186
186
186
186
185
184
184
185
184
183
183
182
180
181
181
181
180
179
179
178
178
178
178
177
176
175
175
175
175
174
173
171
170
170
168
168
167
165
164
162
162
161
159
158
157
155
154
153
153
151
151
149
147
147
147
146
145
144
143
142
141
141
141
139
138
137
137
137
135
135
133
132
131
130
129
128
127
125
124
123
122
121
121
119
117
117
117
116
116
115
115
113
112
113
113
113
112
112
111
110
111
111
110
109
109
108
108
108
108
108
107
105
105
105
105
104
104
102
102
101
100
101
100
100
99
98
98
98
98
98
98
98
98
97
98
99
99
99
99
99
100
100
100
100
99
98
99
99
99
99
99
97
97
97
97
96
96
95
95
94
94
94
94
93
92
92
92
92
94
93
93
93
93
93
94
94
94
94
94
94
95
95
95
95
94
95
95
96
96
97
96
96
96
96
97
97
97
97
96
97
97
98
98
98
98
97
98
98
99
99
99
98
98
98
98
98
99
99
97
98
97
98
97
97
97
97
97
97
97
97
97
96
96
96
97
96
96
96
95
95
95
95
95
94
93
93
93
93
94
93
93
91
92
92
92
92
92
92
91
91
91
91
92
91
91
90
90
91
91
91
91
90
90
90
91
90
90
89
89
89
89
90
90
89
89
89
89
90
91
92
91
91
91
92
93
94
95
95
95
95
96
98
99
99
99
100
101
101
103
103
104
103
104
104
105
105
105
104
104
103
103
103
103
102
102
100
100
101
100
100
99
98
98
98
98
98
98
97
97
96
97
96
96
96
95
94
93
94
94
93
91
90
90
90
89
88
87
86
85
85
84
83
82
82
81
80
80
80
79
78
78
77
76
75
76
75
74
72
72
71
70
71
70
68
67
66
66
66
65
64
64
62
62
62
62
62
62
61
60
60
60
61
61
61
61
61
62
62
63
62
62
62
62
62
62
62
62
62
61
60
60
60
61
60
58
58
58
57
57
57
57
57
56
56
57
56
57
56
56
56
57
57
58
57
57
57
58
59
59
60
60
60
61
61
62
63
63
63
63
63
63
64
65
64
63
63
64
64
65
65
64
64
64
65
66
67
68
68
69
71
73
75
78
79
82
84
87
90
95
98
101
104
109
112
117
122
125
129
132
137
141
146
151
154
159
162
166
172
176
179
182
184
186
188
190
189
189
188
184
182
178
173
168
162
153
145
136
126
115
105
91
78
65
52
39
25
10
-5
-19
-34
-47
-60
-73
-85
-97
-108
-119
-128
-137
-145
-152
-158
-164
-166
-170
-171
-172
-172
-172
-171
-168
-165
-162
-158
-154
-150
-145
-139
-135
-130
-125
-120
-115
-110
-104
-99
-94
-88
-84
-80
-75
-68
-63
-57
-53
-47
-41
-34
-28
-23
-18
-13
-7
-1
4
10
15
20
24
28
33
38
41
44
47
50
53
56
58
60
62
63
64
65
67
68
69
69
69
69
70
70
71
71
71
71
72
72
72
72
73
73
73
72
74
74
74
73
74
73
74
75
75
74
74
74
74
74
74
74
74
73
73
73
74
73
73
74
73
73
73
75
74
74
74
75
75
75
77
78
78
78
78
80
81
82
83
83
83
83
84
85
86
86
86
86
87
87
88
88
87
87
87
88
88
89
89
89
90
90
91
92
93
93
93
94
95
97
98
99
100
101
101
103
105
107
108
108
109
110
111
113
114
115
115
116
118
119
121
121
121
122
123
123
124
126
126
126
126
126
127
128
128
128
129
128
129
130
131
131
131
131
132
133
135
136
136
137
137
137
138
139
140
140
140
141
142
143
143
143
143
143
142
143
144
144
144
144
144
145
145
146
146
146
146
146
147
148
149
149
149
148
149
149
149
150
150
149
149
148
147
148
148
147
146
146
146
147
146
145
144
143
142
142
141
141
140
139
138
137
136
135
135
133
132
131
130
130
128
127
126
124
124
122
122
121
119
117
115
114
112
111
110
108
107
105
103
103
102
100
98
96
95
94
93
93
92
90
90
88
88
87
87
86
84
84
83
84
84
83
82
81
80
80
79
79
79
78
76
76
76
76
75
74
73
72
71
71
71
70
70
69
68
68
68
68
67
67
66
66
66
67
67
65
65
65
65
65
65
64
64
63
63
63
63
63
62
61
60
60
61
61
60
60
60
59
60
61
61
61
60
60
60
60
60
60
61
59
59
58
59
58
58
57
56
55
55
55
55
55
54
54
54
54
54
54
54
54
54
54
54
55
55
54
54
54
54
55
56
56
54
53
53
54
53
53
52
51
51
50
50
50
50
49
49
48
48
49
49
49
49
49
50
50
51
52
52
53
53
53
53
55
55
55
55
55
56
56
57
57
57
56
56
56
55
56
56
55
54
54
54
54
54
53
52
52
51
52
52
52
52
51
50
51
52
51
51
50
50
51
50
51
50
50
50
49
49
50
51
50
50
50
49
49
49
49
49
49
48
49
49
49
50
50
48
49
49
49
50
50
50
49
49
50
50
51
50
50
50
50
50
50
51
51
50
50
50
51
51
51
51
51
51
52
52
53
53
53
53
54
55
55
56
56
56
57
57
58
59
59
59
58
58
59
60
60
59
59
58
58
58
58
59
57
57
57
57
57
56
56
55
54
53
53
54
55
54
53
52
51
51
52
51
50
50
48
48
49
49
48
47
46
46
45
45
45
45
43
43
43
42
42
41
41
39
38
38
38
38
37
36
35
35
35
35
35
34
33
34
33
34
34
35
35
35
35
36
37
38
39
38
38
38
39
39
40
40
39
39
39
39
39
39
39
39
38
39
39
39
39
39
38
38
38
38
39
39
38
38
38
38
39
39
38
38
38
37
38
38
37
37
36
35
36
35
36
35
34
34
34
34
34
34
33
33
33
33
33
34
34
34
34
33
34
35
35
35
35
35
35
35
36
36
37
36
36
37
38
39
41
41
42
43
45
48
50
52
54
56
58
61
64
67
71
74
77
81
85
89
93
97
100
104
108
113
118
122
125
129
133
137
141
145
148
150
151
153
154
155
154
152
150
146
143
138
133
127
118
109
100
92
82
70
58
46
33
21
8
-5
-18
-32
-46
-59
-72
-85
-96
-108
-119
-130
-139
-148
-155
-163
-170
-175
-179
-183
-185
-187
-187
-187
-187
-185
-182
-179
-175
-172
-169
-164
-159
-155
-150
-145
-141
-137
-133
-128
-124
-118
-114
-111
-107
-103
-99
-95
-91
-88
-85
-81
-77
-72
-68
-63
-59
-55
-50
-45
-40
-35
-30
-26
-21
-17
-12
-7
-3
1
4
7
11
15
18
21
23
24
27
28
31
32
33
34
33
34
35
36
36
35
36
35
35
36
36
36
36
35
35
36
36
36
36
37
36
37
38
38
38
39
39
39
38
38
39
39
39
38
37
38
38
37
37
36
36
34
35
34
35
34
33
33
32
33
32
33
33
32
31
32
33
34
34
34
34
35
35
36
37
37
38
38
38
40
40
41
41
41
42
42
43
43
44
43
43
43
43
44
44
43
43
42
43
42
44
43
43
42
43
43
45
45
46
45
45
46
46
47
49
49
49
49
49
50
52
52
53
53
52
53
55
55
56
56
56
57
58
59
61
61
62
62
63
64
65
66
67
68
68
70
71
72
73
73
74
74
75
76
77
77
77
77
78
78
80
80
81
80
81
81
82
83
83
83
82
82
83
83
84
85
85
83
84
85
85
85
85
84
84
83
83
83
84
83
82
81
82
82
81
80
80
80
79
79
78
78
77
77
77
76
76
76
75
73
72
71
70
70
69
68
66
64
63
62
61
59
58
57
55
53
53
52
51
49
47
46
45
44
44
42
41
40
39
38
37
36
34
33
32
31
31
30
30
28
27
25
25
25
24
23
21
21
20
19
19
18
18
16
14
15
13
13
13
11
10
9
9
8
7
7
6
5
4
4
4
3
2
1
0
0
0
0
-1
-2
-2
-3
-3
-2
-3
-3
-3
-4
-4
-4
-4
-3
-4
-5
-5
-5
-5
-5
-5
-5
-6
-7
-6
-6
-6
-6
-7
-7
-7
-7
-7
-7
-7
-7
-8
-7
-7
-7
-7
-7
-8
-8
-8
-8
-8
-9
-9
-11
-10
-11
-11
-11
-12
-12
-13
-13
-13
-13
-13
-13
-13
-14
-13
-12
-12
-12
-12
-13
-12
-12
-11
-11
-10
-10
-11
-10
-9
-9
-9
-9
-9
-9
-8
-8
-8
-8
-8
-9
-9
-9
-8
-8
-8
-9
-9
-9
-8
-8
-8
-9
-10
-9
-10
-10
-9
-10
-10
-11
-11
-12
-11
-11
-12
-13
-14
-13
-12
-12
-13
-13
-14
-14
-13
-13
-12
-12
-12
-13
-12
-12
-12
-11
-12
-12
-12
-11
-11
-11
-10
-11
-12
-13
-12
-11
-12
-12
-13
-13
-13
-13
-12
-12
-13
-13
-13
-13
-13
-12
-12
-12
-13
-13
-12
-12
-12
-13
-13
-14
-14
-14
-14
-14
-15
-15
-16
-15
-15
-15
-16
-16
-17
-17
-16
-17
-16
-16
-17
-17
-18
-17
-17
-16
-17
-17
-17
-16
-15
-15
-15
-14
-15
-14
-13
-12
-12
-11
-11
-11
-10
-9
-8
-7
-7
-7
-7
-5
-5
-4
-4
-4
-5
-5
-5
-3
-4
-3
-4
-4
-5
-4
-5
-5
-5
-6
-6
-6
-6
-5
-6
-6
-7
-7
-6
-7
-6
-7
-7
-8
-8
-8
-7
-7
-8
-8
-9
-9
-9
-9
-9
-11
-11
-12
-13
-13
-14
-14
-16
-16
-18
-18
-19
-19
-20
-21
-22
-23
-22
-22
-23
-24
-24
-25
-25
-24
-24
-24
-25
-25
-25
-25
-25
-24
-24
-24
-24
-24
-23
-22
-22
-23
-22
-22
-22
-21
-21
-20
-21
-20
-21
-20
-20
-19
-20
-20
-20
-20
-20
-20
-19
-19
-20
-20
-20
-19
-19
-19
-19
-20
-20
-20
-20
-19
-20
-21
-21
-21
-21
-22
-22
-21
-23
-22
-22
-22
-21
-21
-22
-21
-22
-21
-20
-20
-19
-19
-19
-19
-18
-17
-17
-18
-18
-18
-18
-17
-17
-18
-18
-18
-19
-18
-17
-17
-17
-15
-15
-13
-12
-10
-8
-6
-5
-2
0
3
6
8
11
14
17
21
25
29
33
35
40
44
48
52
56
59
63
67
71
75
80
83
87
90
94
97
101
103
105
105
105
106
105
104
102
99
94
89
84
78
71
62
54
43
33
22
11
-1
-14
-27
-40
-54
-67
-80
-93
-107
-120
-133
-145
-157
-168
-179
-190
-199
-208
-214
-221
-227
-231
-236
-239
-240
-240
-239
-239
-238
-236
-232
-228
-224
-219
-214
-210
-205
-200
-195
-189
-183
-179
-174
-170
-165
-159
-153
-149
-144
-140
-136
-130
-125
-121
-115
-111
-106
-101
-96
-91
-87
-83
-78
-74
-69
-64
-59
-55
-51
-47
-44
-40
-36
-32
-29
-27
-25
-22
-19
-17
-15
-13
-12
-10
-9
-7
-6
-5
-4
-4
-4
-3
-2
-2
-1
-2
-2
-2
-2
0
-1
-1
-1
-1
-1
-1
1
0
1
1
0
1
2
2
3
3
3
3
4
5
6
6
6
7
7
8
9
9
9
9
9
10
10
11
11
10
11
11
11
12
11
11
11
10
11
11
11
11
11
11
10
11
12
12
12
12
12
11
12
13
14
14
14
13
14
15
16
16
16
16
16
17
17
17
17
18
18
19
20
20
21
21
21
22
22
24
25
25
26
26
27
28
30
31
32
32
33
33
35
37
37
38
38
39
40
42
43
43
44
44
44
46
46
48
48
49
49
50
51
53
53
54
54
54
55
57
58
59
59
59
60
61
63
63
64
64
64
64
65
66
66
66
66
65
65
66
66
66
65
65
64
65
65
64
64
64
63
62
63
63
63
62
62
62
62
63
63
63
63
63
63
63
64
63
63
63
63
61
62
61
61
60
59
58
58
58
57
57
56
54
54
53
52
52
51
50
48
48
46
46
45
44
42
41
41
41
40
38
37
36
35
34
34
33
32
30
28
27
27
26
24
24
22
20
20
20
19
17
17
16
15
14
14
13
13
11
10
10
10
9
10
9
8
7
8
7
8
7
7
6
6
6
6
6
6
5
4
4
3
3
2
2
1
0
-1
-1
-1
-2
-3
-4
-5
-6
-6
-6
-7
-8
-9
-9
-9
-9
-9
-10
-11
-12
-11
-11
-10
-11
-11
-11
-12
-12
-12
-12
-13
-13
-13
-14
-14
-13
-14
-14
-14
-15
-15
-14
-14
-14
-14
-14
-14
-13
-13
-12
-12
-13
-13
-13
-13
-12
-12
-12
-12
-13
-12
-12
-12
-12
-12
-12
-13
-12
-12
-12
-12
-12
-13
-13
-12
-11
-11
-12
-11
-12
-12
-11
-10
-11
-11
-11
-12
-12
-11
-11
-11
-12
-13
-13
-12
-12
-12
-13
-13
-13
-13
-12
-12
-12
-12
-12
-12
-12
-11
-10
-10
-10
-11
-11
-10
-10
-10
-10
-10
-11
-11
-10
-10
-10
-12
-12
-13
-13
-14
-13
-14
-15
-15
-15
-15
-14
-14
-15
-15
-14
-15
-14
-13
-12
-12
-12
-13
-12
-10
-10
-9
-10
-10
-10
-9
-8
-8
-8
-8
-9
-8
-8
-7
-7
-7
-8
-8
-9
-8
-8
-8
-9
-9
-9
-9
-8
-8
-9
-9
-9
-8
-7
-6
-6
-5
-5
-4
-4
-2
-1
-1
-1
-1
0
0
0
1
1
0
1
1
2
1
1
0
0
-1
0
-1
0
-1
-2
-2
-3
-2
-2
-2
-2
-3
-3
-3
-3
-2
-2
-3
-3
-4
-4
-3
-4
-4
-5
-6
-7
-7
-7
-7
-8
-9
-10
-10
-10
-10
-10
-11
-12
-13
-13
-14
-14
-14
-16
-16
-17
-17
-18
-19
-19
-21
-21
-22
-23
-23
-23
-25
-25
-26
-27
-26
-27
-27
-28
-29
-28
-28
-27
-27
-26
-27
-27
-25
-24
-23
-22
-21
-22
-21
-19
-18
-18
-17
-17
-17
-17
-16
-16
-16
-16
-17
-17
-17
-18
-17
-18
-19
-20
-20
-21
-21
-21
-22
-23
-23
-23
-24
-24
-23
-24
-24
-24
-25
-23
-23
-23
-23
-24
-24
-23
-23
-22
-23
-23
-24
-24
-23
-23
-24
-23
-24
-24
-25
-23
-23
-23
-24
-25
-26
-25
-25
-24
-25
-26
-26
-25
-24
-24
-23
-22
-22
-21
-19
-17
-14
-13
-11
-9
-6
-3
0
3
6
8
11
14
18
22
26
28
32
35
39
43
46
50
54
57
60
65
69
74
79
81
86
89
93
96
99
101
101
101
101
100
99
96
91
86
81
74
67
59
49
38
26
15
2
-11
-24
-38
-53
-67
-82
-95
-108
-123
-137
-151
-165
-177
-189
-200
-210
-221
-229
-237
-244
-248
-254
-257
-260
-263
-263
-263
-261
-259
-257
-254
-251
-247
-242
-236
-232
-227
-222
-217
-212
-206
-201
-195
-190
-185
-179
-173
-168
-162
-157
-151
-146
-140
-134
-128
-122
-117
-112
-106
-101
-96
-89
-84
-79
-74
-69
-64
-58
-53
-49
-47
-43
-40
-35
-33
-30
-28
-26
-25
-23
-21
-20
-19
-18
-19
-18
-16
-16
-16
-15
-15
-15
-15
-14
-13
-14
-13
-13
-13
-13
-11
-10
-11
-11
-11
-10
-8
-7
-6
-7
-7
-6
-6
-6
-5
-5
-5
-5
-5
-5
-4
-4
-4
-5
-5
-4
-4
-3
-3
-3
-3
-3
-3
-2
-2
-2
-2
-2
-2
-1
-1
-1
-1
-2
-1
-1
0
0
0
0
0
0
0
1
1
1
1
1
1
2
2
2
2
2
2
3
4
5
6
6
6
7
9
9
11
11
12
13
14
15
17
18
19
19
19
21
22
23
24
24
24
24
26
27
27
27
28
28
29
30
31
32
32
33
33
34
35
37
37
38
38
39
40
41
42
43
43
42
44
44
45
46
46
46
47
48
48
49
50
50
51
51
52
53
53
54
54
54
54
55
56
56
57
57
57
58
58
59
59
60
59
60
60
61
61
62
61
61
61
61
62
62
62
62
61
62
62
62
61
60
59
60
59
59
58
58
57
56
55
54
55
54
54
53
51
51
51
50
50
48
46
46
45
44
43
43
41
40
38
38
37
37
35
34
33
33
32
31
31
30
29
28
27
27
26
25
24
23
21
20
19
19
17
16
15
14
12
12
10
8
6
5
5
4
3
1
1
-1
-1
-2
-3
-3
-3
-5
-5
-5
-6
-6
-6
-7
-8
-8
-9
-8
-9
-9
-10
-10
-11
-12
-12
-12
-13
-13
-14
-13
-14
-14
-14
-15
-15
-16
-16
-16
-16
-17
-17
-18
-18
-18
-18
-18
-19
-20
-20
-21
-20
-20
-20
-21
-21
-22
-22
-21
-21
-22
-22
-22
-22
-22
-21
-21
-21
-22
-21
-22
-20
-20
-20
-21
-22
-22
-22
-21
-21
-21
-23
-23
-23
-24
-23
-24
-24
-24
-25
-25
-25
-25
-25
-26
-27
-26
-27
-25
-26
-25
-26
-26
-26
-25
-25
-25
-24
-25
-25
-25
-23
-23
-23
-23
-23
-24
-23
-23
-22
-23
-23
-23
-23
-22
-22
-22
-23
-23
-23
-23
-22
-22
-22
-22
-23
-24
-23
-23
-23
-23
-23
-24
-24
-24
-24
-23
-24
-25
-25
-25
-24
-24
-24
-25
-25
-25
-25
-25
-24
-24
-25
-26
-26
-25
-25
-24
-25
-25
-25
-24
-24
-24
-24
-24
-24
-24
-24
-24
-23
-23
-24
-24
-25
-24
-24
-24
-24
-26
-26
-25
-25
-25
-25
-25
-26
-26
-25
-25
-24
-24
-24
-24
-24
-23
-22
-21
-20
-20
-19
-19
-17
-17
-16
-16
-16
-16
-16
-15
-14
-15
-16
-16
-17
-17
-17
-17
-19
-19
-20
-21
-20
-21
-20
-21
-22
-22
-22
-21
-20
-20
-20
-20
-19
-18
-17
-16
-16
-16
-15
-14
-13
-12
-12
-12
-12
-12
-12
-11
-12
-12
-14
-14
-15
-16
-17
-18
-19
-20
-22
-23
-23
-24
-25
-26
-27
-29
-29
-30
-29
-30
-31
-32
-32
-33
-32
-33
-34
-34
-34
-35
-35
-34
-34
-34
-35
-35
-35
-35
-35
-35
-35
-35
-35
-35
-34
-33
-33
-34
-33
-33
-32
-31
-31
-31
-31
-32
-30
-30
-30
-30
-31
-31
-31
-31
-31
-30
-32
-32
-33
-33
-33
-32
-33
-33
-34
-34
-34
-34
-34
-33
-33
-34
-33
-33
-32
-31
-32
-32
-32
-31
-31
-30
-30
-30
-31
-30
-31
-30
-30
-30
-31
-31
-31
-32
-31
-31
-31
-32
-33
-32
-31
-31
-31
-31
-31
-31
-31
-30
-29
-29
-30
-29
-29
-27
-27
-26
-24
-24
-22
-20
-19
-16
-14
-12
-10
-8
-5
-2
2
5
8
11
14
18
23
27
30
33
37
41
46
51
55
58
61
65
69
73
77
80
83
84
87
88
89
88
87
86
84
81
78
74
68
62
55
46
38
29
18
7
-5
-18
-30
-44
-57
-71
-85
-99
-113
-128
-142
-154
-168
-182
-195
-208
-218
-229
-238
-247
-255
-262
-268
-272
-276
-278
-280
-281
-281
-280
-277
-273
-270
-266
-262
-257
-252
-246
-240
-234
-228
-223
-217
-211
-203
-198
-192
-186
-180
-173
-166
-160
-153
-147
-141
-136
-129
-122
-115
-109
-103
-98
-92
-87
-81
-76
-71
-66
-62
-57
-53
-48
-46
-43
-40
-38
-36
-34
-32
-30
-29
-29
-28
-27
-26
-25
-25
-25
-25
-25
-23
-23
-22
-22
-23
-23
-23
-22
-21
-22
-22
-21
-21
-21
-19
-18
-19
-19
-18
-17
-17
-16
-16
-16
-17
-16
-16
-16
-15
-15
-16
-16
-16
-15
-15
-14
-15
-16
-15
-15
-14
-14
-14
-14
-14
-14
-13
-13
-13
-12
-12
-13
-12
-11
-11
-11
-11
-11
-11
-10
-10
-9
-9
-9
-9
-8
-7
-6
-5
-4
-4
-3
-2
-1
0
1
2
2
2
3
4
5
5
6
6
5
5
5
6
6
5
4
4
5
6
6
6
7
7
8
9
10
11
12
12
13
14
15
17
18
19
20
20
21
23
23
24
24
24
25
25
27
27
28
27
28
28
29
30
31
30
30
31
32
33
34
34
34
34
35
37
37
38
38
38
39
40
42
42
43
43
43
45
45
47
47
47
48
48
48
50
51
51
52
51
51
52
52
52
52
51
51
50
51
50
51
50
50
49
49
49
49
49
48
47
46
46
46
46
45
45
44
43
43
42
42
40
39
38
36
36
35
33
32
30
29
27
27
26
24
22
22
20
20
20
18
18
15
15
14
14
13
12
11
9
8
8
7
6
5
4
2
1
1
0
-1
-3
-4
-5
-5
-6
-7
-7
-10
-10
-12
-12
-13
-13
-15
-16
-18
-19
-19
-20
-20
-22
-23
-24
-24
-25
-26
-26
-27
-28
-29
-29
-29
-29
-30
-30
-31
-31
-31
-30
-31
-31
-32
-33
-33
-33
-33
-33
-34
-35
-36
-36
-35
-36
-37
-37
-38
-39
-38
-38
-39
-39
-39
-40
-39
-39
-38
-38
-38
-40
-39
-40
-39
-39
-39
-40
-40
-40
-40
-40
-41
-41
-42
-42
-42
-42
-42
-42
-43
-43
-44
-44
-43
-43
-43
-44
-44
-44
-43
-43
-43
-42
-44
-43
-43
-42
-42
-42
-42
-42
-43
-42
-42
-41
-41
-42
-42
-42
-42
-40
-41
-41
-42
-42
-41
-41
-41
-40
-41
-41
-40
-41
-40
-39
-39
-39
-39
-40
-39
-39
-39
-39
-39
-40
-39
-39
-38
-38
-39
-40
-41
-40
-40
-39
-39
-40
-40
-40
-39
-39
-38
-39
-39
-39
-38
-38
-37
-37
-36
-37
-37
-37
-35
-35
-35
-36
-36
-36
-35
-35
-35
-36
-36
-37
-37
-37
-37
-38
-39
-40
-41
-42
-42
-42
-43
-44
-45
-45
-46
-46
-46
-47
-47
-48
-47
-47
-47
-46
-46
-47
-46
-46
-44
-44
-44
-43
-43
-43
-42
-40
-40
-40
-39
-40
-40
-38
-37
-37
-37
-38
-38
-37
-36
-35
-36
-36
-36
-37
-36
-35
-35
-35
-36
-36
-35
-35
-35
-34
-35
-36
-35
-34
-34
-33
-33
-33
-34
-33
-33
-32
-32
-32
-33
-33
-33
-33
-32
-33
-33
-34
-34
-34
-34
-34
-35
-36
-37
-38
-39
-39
-40
-40
-41
-42
-42
-42
-42
-43
-43
-44
-44
-44
-44
-44
-45
-46
-47
-47
-48
-47
-48
-49
-49
-50
-51
-50
-50
-51
-52
-53
-53
-53
-54
-54
-54
-54
-55
-55
-54
-54
-54
-54
-55
-54
-55
-54
-53
-53
-53
-53
-54
-54
-54
-54
-54
-54
-55
-56
-55
-54
-54
-55
-55
-55
-55
-55
-54
-55
-55
-56
-55
-55
-54
-54
-54
-54
-55
-55
-54
-54
-55
-54
-54
-55
-55
-53
-53
-54
-53
-54
-54
-54
-53
-53
-53
-54
-53
-54
-53
-53
-53
-53
-53
-53
-53
-52
-52
-51
-52
-52
-51
-51
-50
-50
-48
-48
-47
-47
-46
-44
-42
-41
-39
-37
-34
-32
-29
-27
-25
-22
-19
-16
-12
-8
-5
-1
2
6
10
15
19
21
25
29
33
37
41
45
49
52
56
59
63
66
68
69
70
70
70
69
67
64
60
55
50
45
38
30
22
11
0
-10
-22
-34
-48
-61
-74
-88
-102
-117
-131
-145
-160
-174
-187
-200
-212
-223
-235
-246
-255
-263
-271
-276
-282
-287
-290
-293
-294
-294
-294
-293
-291
-289
-285
-280
-275
-270
-266
-261
-256
-249
-243
-238
-232
-226
-220
-214
-209
-202
-197
-191
-186
-179
-173
-167
-161
-156
-150
-145
-140
-134
-128
-122
-116
-112
-106
-101
-96
-91
-87
-83
-79
-75
-71
-68
-65
-61
-59
-58
-56
-53
-51
-50
-49
-48
-48
-47
-46
-46
-45
-45
-45
-45
-44
-44
-43
-43
-44
-44
-43
-43
-43
-42
-42
-42
-42
-42
-41
-41
-41
-41
-41
-41
-41
-39
-39
-39
-40
-39
-40
-39
-38
-38
-38
-37
-37
-37
-37
-36
-36
-35
-36
-36
-36
-34
-33
-33
-33
-33
-33
-32
-32
-31
-31
-31
-31
-31
-31
-30
-31
-31
-31
-31
-31
-30
-30
-30
-30
-30
-30
-29
-29
-28
-27
-28
-28
-27
-26
-25
-24
-23
-23
-24
-23
-22
-20
-21
-20
-21
-20
-20
-19
-18
-19
-18
-18
-18
-18
-17
-16
-16
-16
-16
-15
-14
-13
-13
-12
-11
-11
-10
-8
-7
-6
-6
-5
-5
-4
-2
-1
-1
-1
-1
1
2
3
3
4
4
4
4
5
6
6
7
7
7
8
8
9
9
10
10
11
12
14
13
14
14
15
17
18
18
19
19
19
19
20
22
22
22
22
22
22
23
23
23
22
21
20
21
21
20
20
19
18
17
18
18
18
17
16
15
15
15
16
16
15
15
15
15
15
16
16
16
14
15
15
15
15
15
13
13
13
12
12
11
9
8
7
6
6
5
3
1
0
-2
-3
-3
-5
-7
-9
-10
-11
-12
-13
-14
-16
-17
-19
-19
-20
-20
-22
-23
-25
-26
-27
-27
-27
-28
-30
-31
-31
-30
-31
-31
-31
-33
-34
-33
-34
-34
-34
-35
-35
-37
-36
-36
-37
-38
-39
-40
-40
-40
-41
-42
-44
-45
-46
-46
-46
-47
-48
-48
-50
-51
-51
-51
-52
-53
-54
-54
-54
-54
-54
-54
-54
-55
-55
-55
-55
-55
-55
-55
-55
-55
-56
-55
-55
-55
-55
-56
-55
-55
-55
-54
-55
-55
-55
-55
-54
-53
-54
-54
-54
-55
-54
-54
-54
-55
-55
-55
-55
-55
-55
-55
-56
-57
-57
-58
-57
-58
-58
-59
-60
-61
-60
-60
-60
-61
-61
-62
-61
-62
-60
-61
-60
-60
-61
-60
-60
-59
-59
-59
-60
-59
-60
-59
-58
-59
-59
-59
-60
-59
-58
-58
-59
-59
-60
-59
-59
-59
-59
-59
-59
-59
-60
-60
-59
-60
-61
-61
-61
-61
-60
-62
-62
-62
-63
-64
-63
-63
-63
-64
-64
-64
-64
-64
-64
-64
-65
-65
-66
-65
-65
-65
-65
-66
-66
-66
-66
-66
-66
-67
-67
-68
-67
-68
-68
-69
-68
-69
-69
-69
-68
-69
-69
-70
-70
-69
-70
-69
-69
-69
-70
-70
-69
-69
-68
-69
-69
-69
-69
-67
-67
-67
-66
-68
-67
-66
-65
-65
-64
-65
-64
-64
-64
-63
-63
-62
-63
-61
-61
-60
-60
-59
-59
-59
-58
-57
-56
-56
-55
-56
-56
-55
-54
-54
-54
-54
-55
-55
-54
-55
-54
-54
-55
-56
-56
-56
-56
-56
-56
-57
-57
-58
-58
-58
-58
-60
-60
-61
-61
-62
-61
-62
-63
-63
-64
-64
-65
-65
-66
-66
-67
-68
-68
-68
-69
-69
-71
-72
-71
-71
-70
-71
-72
-72
-72
-72
-72
-72
-73
-73
-74
-74
-74
-74
-74
-74
-74
-75
-75
-74
-74
-74
-74
-74
-74
-73
-73
-74
-74
-74
-73
-73
-74
-73
-73
-73
-73
-73
-73
-73
-72
-72
-72
-73
-73
-73
-73
-72
-72
-73
-73
-74
-73
-73
-73
-74
-74
-74
-74
-73
-73
-74
-73
-73
-74
-74
-72
-72
-72
-72
-72
-72
-71
-70
-70
-69
-69
-69
-69
-68
-67
-67
-67
-67
-66
-67
-66
-66
-67
-67
-68
-69
-69
-69
-70
-71
-72
-72
-73
-73
-73
-73
-73
-73
-73
-72
-70
-69
-68
-67
-65
-63
-60
-57
-55
-52
-49
-46
-43
-39
-36
-32
-30
-26
-22
-18
-13
-9
-5
-2
2
6
10
16
19
23
27
31
35
41
44
48
51
53
56
57
59
60
59
58
55
53
49
46
40
34
26
18
9
-1
-11
-22
-35
-47
-61
-73
-87
-100
-115
-130
-144
-159
-173
-186
-199
-212
-225
-236
-246
-255
-264
-272
-278
-285
-290
-293
-296
-296
-297
-298
-297
-296
-293
-289
-285
-282
-277
-272
-266
-262
-255
-250
-245
-240
-235
-229
-223
-218
-212
-207
-202
-197
-191
-186
-179
-174
-169
-163
-158
-151
-146
-140
-134
-129
-123
-118
-112
-106
-101
-97
-93
-90
-86
-81
-77
-74
-71
-69
-66
-63
-62
-60
-59
-58
-57
-56
-54
-54
-53
-53
-53
-53
-52
-51
-51
-51
-51
-52
-50
-50
-50
-50
-49
-50
-49
-49
-49
-48
-48
-48
-48
-49
-48
-48
-48
-48
-48
-48
-48
-47
-47
-47
-47
-47
-47
-47
-47
-46
-46
-45
-46
-45
-45
-45
-44
-44
-44
-44
-44
-43
-43
-42
-43
-43
-43
-42
-41
-40
-40
-40
-40
-40
-40
-38
-38
-38
-37
-37
-36
-35
-35
-34
-34
-34
-33
-33
-32
-31
-31
-30
-30
-30
-30
-28
-28
-28
-28
-28
-27
-27
-26
-26
-25
-25
-24
-25
-24
-22
-22
-23
-22
-22
-21
-20
-19
-19
-19
-18
-17
-16
-15
-14
-14
-14
-14
-13
-11
-11
-10
-9
-9
-9
-8
-6
-5
-5
-5
-4
-2
-1
0
1
2
3
3
4
5
7
8
8
8
9
10
10
11
11
11
10
11
12
12
12
12
11
11
12
12
13
13
12
11
12
13
13
13
13
13
13
13
15
15
15
15
15
15
15
16
17
17
17
16
16
16
17
18
17
16
16
16
16
16
17
16
14
15
14
14
14
14
12
11
10
10
10
9
8
7
5
5
4
3
4
2
0
-1
-2
-3
-3
-4
-7
-8
-8
-9
-9
-10
-12
-13
-14
-15
-15
-16
-17
-17
-18
-19
-20
-21
-21
-21
-22
-24
-25
-25
-25
-26
-27
-28
-29
-29
-30
-30
-31
-31
-32
-34
-34
-33
-34
-34
-36
-36
-36
-37
-36
-36
-38
-38
-38
-39
-38
-39
-39
-40
-41
-41
-42
-42
-42
-43
-44
-45
-46
-46
-46
-47
-47
-48
-48
-48
-48
-47
-47
-48
-48
-48
-47
-47
-47
-47
-47
-48
-48
-48
-47
-48
-48
-49
-49
-50
-49
-49
-48
-49
-50
-50
-50
-50
-49
-49
-49
-49
-50
-49
-48
-48
-48
-48
-49
-48
-47
-47
-46
-46
-48
-47
-47
-47
-47
-47
-47
-47
-48
-48
-47
-48
-48
-49
-49
-50
-48
-48
-48
-49
-50
-50
-50
-50
-49
-49
-50
-50
-50
-50
-50
-49
-49
-49
-50
-50
-50
-48
-49
-49
-50
-50
-49
-49
-50
-50
-50
-51
-52
-52
-53
-53
-54
-54
-55
-55
-55
-55
-55
-56
-56
-56
-56
-56
-56
-56
-55
-56
-56
-55
-55
-54
-54
-54
-55
-54
-53
-53
-52
-53
-54
-53
-53
-52
-52
-52
-53
-53
-53
-53
-52
-52
-52
-53
-53
-53
-52
-51
-52
-51
-52
-51
-51
-50
-49
-49
-49
-50
-49
-48
-48
-47
-47
-47
-46
-46
-45
-45
-44
-44
-44
-44
-44
-44
-43
-44
-44
-44
-45
-45
-44
-44
-44
-44
-45
-44
-44
-43
-43
-43
-43
-44
-42
-42
-41
-41
-41
-42
-42
-42
-41
-41
-41
-42
-42
-42
-42
-42
-42
-43
-44
-45
-45
-46
-46
-47
-48
-48
-50
-50
-49
-51
-52
-53
-54
-55
-54
-54
-55
-55
-56
-57
-57
-57
-57
-57
-57
-58
-58
-59
-58
-58
-59
-59
-60
-60
-60
-59
-60
-60
-62
-62
-62
-62
-62
-62
-62
-63
-64
-63
-64
-63
-63
-64
-63
-64
-63
-62
-61
-61
-61
-61
-61
-59
-58
-58
-57
-57
-56
-55
-54
-53
-52
-52
-51
-51
-50
-50
-49
-50
-50
-50
-50
-51
-50
-52
-53
-54
-55
-55
-55
-56
-56
-58
-58
-58
-58
-58
-57
-58
-58
-58
-57
-57
-56
-56
-56
-56
-56
-55
-54
-54
-54
-55
-55
-55
-54
-54
-54
-55
-55
-55
-56
-55
-56
-56
-58
-58
-58
-58
-58
-58
-58
-58
-57
-57
-56
-54
-52
-51
-49
-48
-44
-42
-39
-36
-34
-31
-28
-24
-21
-16
-13
-11
-7
-3
1
5
8
10
13
16
19
23
26
29
32
34
37
40
43
46
47
49
50
51
51
51
50
48
45
42
38
35
29
22
15
7
-2
-11
-20
-31
-42
-55
-66
-80
-92
-104
-117
-130
-142
-156
-167
-178
-190
-201
-211
-221
-230
-237
-244
-250
-256
-260
-264
-266
-268
-268
-267
-267
-266
-264
-261
-256
-253
-248
-245
-240
-236
-230
-225
-220
-216
-211
-207
-202
-198
-193
-189
-184
-181
-177
-173
-170
-165
-162
-159
-156
-153
-149
-146
-142
-139
-135
-132
-128
-124
-119
-116
-112
-109
-106
-101
-98
-94
-91
-88
-84
-82
-79
-76
-73
-71
-69
-68
-66
-64
-62
-61
-60
-59
-60
-58
-58
-57
-57
-57
-57
-56
-57
-56
-56
-55
-56
-56
-56
-55
-55
-54
-55
-55
-55
-54
-54
-53
-53
-52
-52
-53
-52
-52
-51
-51
-51
-52
-50
-50
-49
-49
-49
-49
-49
-48
-47
-46
-47
-47
-47
-46
-46
-46
-45
-45
-46
-46
-45
-44
-44
-44
-43
-44
-44
-44
-43
-42
-42
-43
-43
-42
-42
-41
-41
-41
-41
-41
-40
-39
-39
-39
-39
-39
-39
-38
-38
-37
-37
-36
-36
-36
-35
-34
-34
-33
-33
-34
-32
-31
-29
-30
-29
-29
-28
-27
-26
-26
-24
-25
-25
-24
-23
-23
-22
-22
-22
-21
-20
-19
-18
-17
-17
-17
-17
-16
-14
-13
-12
-12
-11
-12
-11
-10
-9
-10
-10
-9
-9
-8
-7
-6
-7
-7
-6
-5
-5
-4
-4
-3
-3
-3
-2
0
1
1
1
2
4
4
5
6
5
5
5
6
7
8
9
9
8
9
9
10
10
10
10
10
11
11
13
13
13
14
14
14
14
15
15
15
14
14
14
13
13
13
12
11
11
10
10
8
8
6
6
5
4
4
3
2
1
0
-1
-1
-2
-2
-3
-5
-6
-6
-6
-7
-8
-9
-11
-11
-11
-12
-14
-15
-16
-17
-17
-18
-19
-20
-21
-22
-23
-23
-25
-25
-26
-29
-30
-32
-32
-33
-34
-36
-38
-39
-40
-41
-41
-42
-44
-45
-45
-45
-45
-46
-46
-47
-47
-47
-47
-47
-47
-47
-47
-47
-48
-47
-47
-48
-48
-48
-48
-47
-47
-47
-47
-48
-47
-47
-46
-46
-45
-45
-46
-45
-44
-44
-43
-44
-44
-44
-44
-43
-43
-43
-43
-44
-45
-45
-45
-44
-45
-46
-47
-48
-48
-48
-48
-49
-50
-51
-52
-52
-52
-52
-54
-55
-56
-56
-57
-56
-58
-58
-60
-60
-61
-60
-61
-61
-62
-62
-61
-61
-61
-60
-60
-61
-61
-60
-60
-58
-58
-58
-59
-58
-59
-58
-57
-57
-58
-57
-57
-56
-56
-55
-56
-57
-56
-56
-55
-55
-54
-54
-54
-54
-54
-53
-53
-53
-53
-53
-53
-52
-51
-51
-52
-52
-52
-53
-52
-52
-52
-52
-53
-54
-54
-54
-54
-55
-56
-57
-57
-57
-56
-57
-58
-59
-59
-59
-59
-59
-59
-60
-60
-60
-60
-60
-59
-60
-61
-61
-60
-60
-60
-60
-60
-61
-61
-60
-60
-60
-60
-61
-61
-62
-62
-62
-61
-62
-62
-62
-62
-62
-61
-60
-61
-61
-60
-60
-58
-57
-57
-57
-57
-57
-57
-57
-56
-57
-57
-57
-57
-58
-57
-57
-59
-60
-60
-60
-60
-60
-60
-61
-62
-62
-62
-62
-61
-61
-61
-61
-61
-60
-60
-60
-60
-61
-61
-61
-60
-59
-59
-59
-60
-60
-60
-60
-60
-59
-61
-61
-61
-61
-60
-60
-61
-61
-61
-61
-62
-63
-63
-63
-63
-64
-65
-64
-65
-66
-67
-68
-68
-68
-68
-68
-68
-68
-69
-69
-69
-69
-69
-69
-70
-70
-69
-69
-69
-69
-69
-70
-69
-69
-68
-68
-68
-69
-69
-69
-68
-68
-69
-69
-68
-68
-68
-67
-67
-68
-68
-68
-67
-67
-67
-67
-67
-68
-68
-68
-68
-68
-68
-68
-69
-69
-68
-68
-68
-68
-68
-68
-68
-67
-66
-67
-66
-67
-66
-66
-65
-64
-64
-64
-64
-64
-64
-63
-63
-63
-64
-64
-64
-63
-63
-63
-64
-64
-65
-65
-65
-65
-64
-65
-65
-65
-65
-64
-64
-65
-66
-65
-66
-65
-65
-64
-64
-64
-63
-63
-62
-61
-59
-59
-57
-57
-54
-51
-49
-46
-45
-42
-39
-35
-31
-28
-24
-20
-16
-12
-8
-3
1
4
8
11
15
18
22
25
28
31
34
37
39
42
44
44
44
44
45
44
44
42
39
36
31
27
23
17
10
3
-4
-12
-20
-30
-39
-50
-62
-72
-83
-95
-105
-118
-131
-143
-154
-165
-176
-186
-197
-208
-216
-224
-232
-238
-245
-250
-254
-258
-259
-260
-260
-260
-260
-258
-255
-253
-250
-246
-242
-238
-234
-229
-224
-220
-216
-212
-207
-203
-198
-194
-190
-186
-183
-179
-175
-172
-167
-165
-162
-158
-156
-152
-149
-145
-143
-140
-137
-134
-131
-127
-125
-121
-119
-116
-112
-109
-106
-102
-100
-97
-94
-92
-88
-85
-83
-80
-79
-76
-73
-71
-69
-68
-67
-66
-64
-63
-62
-61
-61
-61
-60
-60
-58
-58
-59
-58
-58
-58
-57
-57
-57
-57
-58
-57
-57
-57
-56
-56
-57
-57
-57
-55
-55
-55
-54
-54
-54
-54
-53
-53
-51
-52
-52
-51
-50
-50
-49
-49
-49
-49
-49
-48
-48
-47
-48
-48
-48
-47
-47
-47
-47
-47
-46
-47
-46
-45
-45
-44
-45
-44
-44
-43
-41
-41
-40
-40
-40
-39
-38
-37
-36
-36
-37
-36
-36
-35
-35
-34
-36
-36
-35
-34
-34
-33
-34
-34
-34
-34
-33
-33
-33
-32
-32
-33
-32
-31
-31
-30
-30
-29
-29
-28
-26
-26
-26
-26
-26
-25
-23
-22
-22
-21
-21
-21
-20
-18
-18
-18
-17
-16
-15
-13
-12
-12
-11
-10
-11
-10
-9
-7
-6
-6
-7
-6
-5
-5
-4
-3
-3
-3
-3
-2
-1
0
-1
-1
-1
0
1
1
2
2
2
3
4
4
5
5
5
6
7
7
8
9
8
8
8
9
8
9
10
9
8
8
8
8
8
7
7
6
6
6
6
6
5
4
3
2
2
2
2
0
-1
-2
-3
-4
-4
-5
-7
-8
-9
-10
-11
-11
-13
-14
-15
-16
-17
-18
-19
-20
-21
-23
-23
-24
-24
-26
-27
-29
-29
-30
-31
-31
-33
-34
-35
-37
-37
-37
-38
-40
-40
-41
-42
-43
-43
-44
-44
-46
-47
-47
-46
-47
-49
-49
-51
-51
-51
-51
-52
-53
-54
-54
-54
-54
-55
-55
-57
-57
-58
-57
-57
-58
-59
-59
-60
-60
-60
-61
-61
-62
-62
-63
-63
-63
-63
-64
-64
-65
-65
-65
-64
-65
-65
-65
-64
-65
-63
-62
-62
-62
-62
-62
-61
-60
-60
-59
-60
-60
-60
-61
-60
-60
-61
-62
-64
-64
-65
-65
-66
-67
-69
-69
-69
-70
-70
-71
-72
-73
-73
-72
-72
-72
-71
-71
-72
-71
-70
-69
-70
-69
-69
-69
-69
-68
-69
-68
-69
-69
-69
-69
-68
-69
-69
-70
-70
-70
-69
-70
-70
-70
-70
-71
-71
-70
-69
-69
-70
-70
-69
-69
-69
-69
-69
-70
-70
-69
-69
-68
-68
-69
-69
-69
-69
-68
-69
-69
-69
-69
-69
-69
-67
-68
-69
-68
-69
-69
-68
-68
-68
-68
-68
-68
-69
-68
-68
-68
-68
-68
-68
-67
-67
-67
-67
-67
-68
-67
-67
-65
-66
-66
-66
-66
-66
-64
-64
-65
-65
-64
-64
-63
-62
-62
-61
-61
-61
-60
-59
-59
-58
-57
-58
-58
-57
-56
-56
-56
-56
-56
-57
-56
-55
-55
-56
-57
-57
-58
-57
-57
-58
-58
-59
-59
-60
-60
-60
-61
-61
-62
-62
-62
-62
-61
-62
-62
-63
-62
-62
-61
-61
-62
-62
-62
-62
-61
-60
-61
-60
-60
-61
-60
-59
-60
-59
-60
-61
-61
-61
-61
-61
-63
-63
-63
-63
-64
-65
-65
-67
-68
-69
-69
-69
-70
-71
-72
-73
-74
-74
-74
-73
-74
-75
-76
-76
-76
-75
-75
-75
-76
-76
-75
-74
-74
-75
-74
-75
-74
-74
-73
-73
-73
-73
-73
-72
-72
-72
-72
-72
-72
-71
-71
-70
-69
-69
-69
-70
-69
-68
-68
-68
-68
-68
-68
-68
-68
-67
-67
-67
-67
-68
-67
-67
-66
-66
-66
-67
-67
-66
-65
-66
-65
-66
-67
-66
-65
-65
-65
-65
-67
-67
-66
-65
-65
-65
-66
-66
-66
-66
-66
-66
-66
-67
-67
-67
-67
-67
-66
-67
-68
-68
-67
-67
-66
-67
-67
-67
-66
-65
-63
-63
-62
-61
-59
-57
-54
-52
-49
-47
-44
-41
-38
-33
-29
-27
-23
-20
-16
-11
-6
-2
2
6
9
14
18
23
27
31
35
40
45
50
54
58
61
64
67
70
71
72
72
71
70
68
65
62
57
51
44
37
29
21
11
0
-12
-23
-35
-48
-60
-73
-86
-100
-114
-128
-142
-156
-169
-183
-196
-208
-219
-229
-238
-248
-257
-264
-271
-275
-279
-283
-285
-287
-287
-286
-284
-282
-280
-276
-272
-267
-263
-256
-252
-246
-241
-236
-230
-225
-219
-215
-209
-205
-201
-195
-189
-185
-180
-176
-170
-165
-160
-155
-149
-145
-140
-136
-130
-124
-120
-114
-110
-105
-101
-96
-91
-87
-83
-80
-77
-73
-70
-66
-63
-61
-59
-58
-55
-54
-52
-50
-49
-49
-49
-48
-47
-47
-46
-46
-45
-45
-45
-44
-43
-44
-43
-44
-43
-41
-41
-40
-40
-40
-39
-38
-38
-36
-36
-36
-36
-34
-34
-33
-33
-33
-33
-33
-33
-33
-33
-34
-34
-35
-36
-36
-36
-36
-36
-37
-37
-37
-37
-36
-36
-36
-36
-37
-36
-36
-35
-35
-35
-35
-34
-34
-34
-32
-32
-32
-31
-31
-30
-28
-28
-27
-27
-27
-27
-25
-25
-24
-24
-24
-23
-23
-21
-20
-21
-21
-21
-20
-19
-19
-18
-18
-18
-18
-18
-17
-17
-17
-16
-16
-16
-16
-15
-13
-13
-13
-13
-13
-12
-10
-10
-8
-8
-7
-6
-6
-5
-4
-2
-2
-2
-1
1
1
1
1
2
2
2
4
4
4
4
4
4
5
6
6
6
6
7
7
8
9
10
10
10
11
11
12
14
14
14
13
14
16
16
17
17
17
17
17
18
19
19
19
19
19
20
20
21
21
21
21
20
20
21
21
20
19
18
18
19
19
18
17
17
16
16
16
15
14
13
13
12
12
11
11
9
8
7
6
6
5
4
3
2
0
0
-1
-2
-3
-5
-7
-7
-8
-9
-10
-12
-13
-14
-15
-15
-17
-18
-19
-20
-21
-21
-22
-23
-25
-26
-27
-29
-29
-30
-32
-33
-35
-37
-38
-39
-40
-41
-43
-45
-47
-48
-49
-50
-52
-53
-55
-55
-56
-56
-57
-58
-58
-59
-59
-59
-60
-60
-61
-62
-62
-62
-62
-62
-62
-62
-63
-64
-64
-64
-64
-65
-65
-66
-66
-67
-66
-67
-69
-69
-70
-70
-70
-71
-72
-73
-74
-74
-74
-75
-76
-76
-77
-78
-78
-78
-78
-79
-79
-79
-79
-78
-78
-78
-78
-79
-79
-79
-79
-79
-79
-80
-80
-79
-79
-79
-80
-80
-80
-80
-80
-80
-81
-80
-81
-80
-80
-80
-80
-81
-81
-81
-81
-82
-82
-82
-82
-83
-83
-84
-84
-84
-83
-83
-84
-84
-85
-84
-84
-84
-85
-84
-84
-85
-85
-84
-83
-84
-84
-84
-84
-84
-82
-82
-82
-83
-83
-82
-82
-81
-81
-81
-81
-81
-81
-81
-80
-80
-81
-81
-81
-81
-80
-81
-81
-81
-81
-81
-81
-81
-81
-81
-81
-82
-82
-81
-81
-81
-82
-82
-82
-82
-82
-81
-81
-82
-82
-82
-81
-81
-80
-81
-80
-81
-80
-80
-80
-80
-80
-80
-80
-80
-79
-80
-80
-80
-81
-81
-80
-80
-80
-79
-80
-79
-79
-78
-77
-77
-77
-77
-76
-76
-74
-75
-74
-74
-74
-74
-74
-72
-73
-73
-73
-74
-74
-73
-74
-74
-75
-75
-76
-75
-75
-74
-75
-75
-75
-75
-75
-74
-74
-74
-74
-74
-74
-73
-72
-73
-74
-74
-73
-74
-74
-74
-75
-74
-76
-76
-76
-76
-77
-77
-78
-79
-79
-80
-80
-81
-82
-82
-82
-83
-82
-83
-83
-84
-84
-85
-85
-84
-84
-85
-85
-86
-86
-86
-86
-86
-86
-86
-86
-86
-85
-86
-86
-86
-87
-87
-86
-85
-85
-85
-86
-85
-85
-84
-84
-83
-84
-84
-83
-84
-83
-82
-82
-82
-82
-82
-82
-80
-80
-81
-80
-81
-80
-79
-80
-80
-80
-79
-80
-79
-79
-78
-78
-78
-78
-77
-77
-76
-76
-77
-77
-77
-76
-77
-75
-75
-76
-76
-75
-75
-75
-75
-74
-76
-76
-76
-75
-75
-74
-75
-75
-75
-75
-75
-76
-76
-76
-77
-76
-76
-76
-76
-76
-76
-76
-76
-75
-74
-73
-72
-72
-71
-69
-67
-64
-63
-61
-59
-56
-53
-50
-47
-43
-40
-37
-33
-28
-24
-19
-15
-12
-8
-3
2
6
10
15
19
24
29
34
39
43
47
49
52
55
57
58
58
57
56
55
51
48
43
37
29
22
14
5
-5
-17
-29
-42
-54
-67
-80
-93
-108
-123
-138
-152
-166
-180
-194
-207
-220
-233
-244
-255
-264
-273
-282
-289
-294
-299
-302
-305
-307
-308
-309
-308
-305
-302
-299
-295
-291
-286
-281
-275
-269
-263
-259
-253
-248
-241
-235
-229
-223
-217
-212
-207
-200
-194
-189
-183
-178
-173
-166
-161
-155
-149
-144
-140
-134
-128
-123
-117
-113
-110
-105
-101
-97
-93
-89
-88
-85
-82
-78
-76
-73
-72
-70
-68
-67
-65
-63
-62
-61
-61
-60
-59
-58
-56
-56
-56
-57
-57
-55
-55
-54
-55
-55
-55
-55
-54
-54
-54
-55
-55
-55
-55
-54
-54
-53
-54
-54
-53
-53
-53
-52
-52
-52
-53
-52
-52
-52
-51
-52
-52
-52
-53
-52
-52
-52
-52
-52
-52
-52
-50
-49
-50
-50
-50
-49
-47
-47
-46
-46
-45
-46
-44
-44
-43
-42
-43
-42
-42
-42
-41
-40
-40
-40
-39
-39
-39
-37
-38
-37
-36
-37
-36
-36
-34
-34
-34
-34
-33
-33
-32
-31
-31
-30
-31
-30
-30
-30
-29
-29
-29
-29
-28
-28
-28
-28
-27
-27
-26
-25
-24
-22
-22
-22
-22
-21
-19
-17
-16
-16
-16
-15
-13
-12
-11
-10
-10
-9
-8
-7
-6
-5
-4
-5
-5
-4
-4
-3
-2
-3
-2
-2
-2
-1
1
0
0
1
1
3
4
4
6
5
5
6
8
9
10
10
11
11
12
13
13
14
14
14
14
15
16
17
16
16
16
15
15
16
16
16
14
14
14
14
14
14
12
12
11
12
10
11
10
9
7
6
7
6
6
4
4
2
2
1
1
0
-2
-3
-3
-3
-4
-5
-6
-7
-9
-10
-10
-11
-11
-13
-15
-16
-18
-18
-18
-20
-22
-23
-24
-24
-25
-26
-27
-27
-28
-29
-29
-29
-29
-30
-31
-31
-32
-31
-32
-32
-34
-35
-35
-35
-35
-36
-37
-37
-39
-39
-40
-40
-41
-42
-42
-43
-43
-44
-45
-45
-45
-46
-46
-46
-46
-46
-46
-47
-48
-47
-47
-48
-47
-48
-48
-49
-49
-48
-49
-49
-49
-50
-50
-49
-50
-49
-49
-51
-51
-51
-51
-51
-51
-51
-52
-52
-52
-52
-52
-52
-53
-53
-53
-52
-52
-51
-52
-52
-52
-52
-51
-51
-50
-51
-51
-51
-51
-51
-51
-50
-50
-51
-51
-51
-51
-50
-50
-52
-52
-52
-51
-51
-51
-51
-52
-52
-52
-53
-52
-53
-53
-54
-54
-54
-54
-53
-54
-54
-54
-54
-54
-54
-53
-54
-54
-53
-53
-52
-51
-51
-51
-51
-50
-50
-50
-49
-48
-49
-49
-49
-48
-48
-48
-48
-48
-48
-49
-48
-48
-48
-50
-50
-50
-50
-50
-50
-51
-51
-51
-51
-50
-50
-51
-50
-51
-51
-51
-50
-50
-50
-50
-50
-50
-50
-49
-49
-50
-51
-51
-51
-51
-50
-51
-51
-51
-51
-51
-51
-51
-51
-51
-52
-52
-51
-50
-50
-50
-50
-50
-50
-49
-48
-47
-47
-47
-47
-47
-45
-45
-44
-44
-44
-43
-43
-42
-42
-41
-41
-42
-42
-41
-41
-41
-41
-41
-42
-42
-43
-42
-43
-44
-44
-45
-44
-44
-44
-45
-46
-46
-47
-46
-47
-46
-47
-48
-48
-48
-47
-46
-46
-47
-47
-47
-46
-45
-45
-45
-45
-45
-44
-43
-42
-42
-42
-42
-42
-41
-42
-41
-42
-43
-44
-44
-44
-44
-44
-44
-45
-47
-48
-47
-48
-48
-49
-50
-52
-52
-53
-52
-54
-54
-55
-56
-57
-57
-58
-59
-60
-61
-62
-62
-64
-65
-65
-66
-66
-67
-67
-68
-69
-68
-69
-69
-69
-68
-68
-68
-68
-69
-68
-67
-66
-66
-67
-66
-67
-67
-67
-66
-65
-66
-66
-66
-66
-65
-65
-66
-65
-66
-66
-65
-66
-65
-66
-66
-66
-66
-66
-66
-66
-66
-67
-66
-66
-66
-66
-67
-67
-67
-67
-67
-66
-66
-67
-67
-68
-67
-68
-67
-68
-68
-68
-68
-69
-68
-68
-68
-69
-69
-70
-69
-69
-69
-69
-69
-70
-69
-69
-69
-69
-69
-69
-69
-67
-67
-66
-64
-64
-63
-61
-60
-57
-56
-53
-52
-50
-47
-45
-42
-38
-36
-33
-30
-26
-22
-18
-13
-11
-8
-4
1
5
10
13
17
21
26
30
35
38
41
44
47
50
52
52
53
52
50
48
46
43
39
33
27
19
11
3
-7
-18
-30
-42
-55
-67
-80
-94
-108
-122
-136
-149
-164
-177
-189
-203
-214
-226
-236
-246
-254
-262
-269
-275
-280
-284
-287
-289
-290
-291
-291
-290
-288
-285
-282
-278
-275
-271
-266
-262
-256
-251
-247
-242
-237
-232
-227
-222
-217
-212
-208
-203
-196
-191
-186
-181
-177
-173
-167
-162
-157
-152
-148
-143
-138
-132
-128
-122
-118
-114
-109
-106
-101
-97
-93
-90
-88
-84
-80
-77
-74
-72
-69
-68
-65
-63
-61
-59
-57
-57
-56
-55
-53
-53
-52
-51
-51
-51
-51
-50
-50
-49
-49
-50
-49
-48
-47
-46
-46
-46
-46
-45
-44
-44
-42
-42
-41
-41
-40
-40
-39
-38
-38
-38
-38
-38
-37
-36
-36
-37
-37
-37
-36
-36
-36
-36
-35
-36
-35
-35
-34
-34
-35
-35
-35
-34
-33
-32
-32
-32
-32
-31
-31
-30
-29
-29
-29
-28
-28
-27
-27
-26
-26
-26
-26
-25
-24
-24
-24
-24
-24
-25
-24
-24
-23
-23
-23
-23
-24
-22
-21
-20
-21
-20
-19
-18
-16
-14
-13
-13
-12
-11
-9
-8
-7
-6
-6
-5
-4
-2
-1
0
1
1
2
4
4
6
7
8
8
9
11
13
13
15
16
16
18
19
21
22
22
23
23
25
26
27
27
27
28
28
29
29
30
29
30
29
29
29
30
29
29
28
28
28
29
29
29
28
27
27
28
28
29
28
28
28
28
28
30
30
29
29
30
30
31
31
31
30
30
30
30
30
31
30
29
29
28
28
27
26
25
25
23
22
21
21
19
17
15
13
13
12
11
9
7
5
4
3
2
1
0
-1
-2
-2
-2
-3
-4
-5
-6
-8
-8
-8
-9
-10
-12
-14
-15
-16
-18
-19
-21
-23
-24
-25
-26
-27
-29
-31
-33
-34
-35
-36
-37
-39
-40
-41
-42
-43
-43
-44
-46
-47
-48
-49
-49
-50
-51
-53
-54
-55
-56
-56
-56
-58
-58
-60
-61
-62
-63
-63
-64
-65
-66
-66
-66
-66
-67
-68
-69
-69
-70
-68
-69
-70
-70
-70
-70
-70
-70
-71
-72
-72
-72
-72
-72
-71
-72
-73
-74
-74
-75
-75
-75
-77
-76
-77
-78
-78
-78
-78
-80
-80
-81
-80
-80
-81
-81
-82
-81
-82
-81
-81
-81
-80
-81
-80
-80
-80
-80
-80
-81
-81
-81
-82
-81
-81
-82
-83
-84
-85
-84
-85
-85
-86
-86
-86
-87
-86
-87
-86
-88
-87
-88
-88
-87
-87
-86
-87
-87
-87
-87
-86
-86
-86
-87
-87
-87
-87
-86
-88
-88
-88
-89
-89
-89
-88
-88
-89
-90
-91
-90
-90
-91
-91
-91
-92
-91
-91
-91
-91
-92
-92
-93
-92
-91
-91
-92
-92
-92
-92
-92
-91
-91
-92
-92
-94
-94
-93
-94
-94
-95
-95
-96
-96
-96
-95
-96
-97
-97
-98
-96
-97
-96
-96
-96
-97
-96
-95
-95
-95
-94
-94
-94
-93
-93
-92
-92
-92
-93
-93
-92
-91
-92
-92
-92
-93
-93
-92
-92
-92
-93
-93
-93
-93
-92
-93
-92
-93
-93
-93
-93
-92
-91
-91
-91
-91
-91
-91
-90
-90
-90
-90
-90
-89
-88
-89
-88
-88
-89
-88
-88
-87
-86
-86
-86
-86
-85
-85
-84
-84
-84
-84
-84
-84
-83
-83
-82
-83
-83
-84
-83
-83
-84
-85
-85
-86
-86
-86
-87
-88
-88
-89
-91
-90
-91
-92
-92
-93
-95
-95
-96
-96
-96
-97
-98
-100
-99
-100
-100
-101
-100
-101
-102
-101
-101
-101
-101
-101
-101
-101
-101
-100
-100
-100
-101
-100
-100
-100
-100
-100
-101
-102
-102
-102
-102
-102
-103
-103
-104
-104
-104
-103
-103
-104
-105
-105
-104
-104
-103
-103
-103
-103
-102
-102
-101
-100
-101
-101
-101
-101
-101
-100
-101
-101
-101
-102
-102
-102
-101
-101
-103
-103
-103
-103
-102
-102
-103
-103
-104
-104
-104
-104
-104
-103
-104
-103
-104
-103
-102
-102
-101
-101
-101
-100
-99
-98
-98
-98
-97
-98
-97
-96
-96
-96
-96
-96
-97
-96
-96
-96
-97
-98
-98
-97
-96
-96
-94
-95
-93
-93
-90
-88
-86
-84
-82
-79
-77
-73
-70
-68
-65
-61
-58
-53
-49
-44
-41
-37
-33
-29
-25
-21
-17
-13
-10
-6
-2
2
6
9
12
15
16
19
21
24
24
23
22
21
20
18
15
12
6
1
-5
-12
-18
-27
-35
-45
-55
-65
-75
-86
-98
-111
-124
-137
-149
-161
-173
-186
-198
-210
-220
-231
-241
-250
-259
-269
-276
-281
-287
-291
-294
-297
-299
-300
-299
-298
-296
-294
-291
-289
-284
-280
-275
-270
-265
-261
-256
-250
-245
-240
-235
-230
-227
-222
-218
-213
-208
-205
-202
-198
-195
-191
-187
-184
-181
-178
-175
-171
-168
-164
-160
-157
-153
-150
-146
-141
-137
-133
-130
-126
-122
-118
-114
-111
-108
-105
-102
-98
