# Simple Text Format
# Sampling Rate (Hz):= 1200.00
# Resolution:= 12
# Labels:= ECG	III
# Age:=	47
# Gender:=	Feminino
-124
-123
-124
-124
-124
-124
-125
-125
-125
-125
-125
-125
-126
-125
-125
-126
-126
-125
-125
-126
-126
-126
-126
-127
-128
-128
-128
-128
-128
-128
-128
-128
-128
-127
-127
-127
-126
-126
-125
-126
-126
-126
-127
-128
-128
-129
-129
-130
-131
-131
-132
-132
-133
-133
-134
-135
-135
-135
-136
-137
-138
-138
-138
-138
-138
-138
-138
-138
-138
-137
-136
-135
-134
-132
-131
-130
-129
-128
-128
-127
-127
-126
-126
-126
-126
-126
-127
-128
-128
-129
-129
-129
-129
-130
-130
-130
-130
-130
-131
-131
-132
-133
-134
-135
-136
-137
-138
-139
-140
-140
-141
-141
-141
-142
-142
-143
-143
-143
-143
-144
-144
-143
-143
-143
-143
-143
-143
-143
-142
-142
-142
-141
-141
-140
-140
-140
-140
-140
-140
-141
-142
-143
-144
-145
-145
-146
-147
-148
-149
-150
-152
-153
-153
-153
-153
-154
-153
-153
-153
-152
-152
-152
-151
-151
-151
-150
-149
-149
-148
-148
-147
-147
-146
-146
-146
-146
-146
-146
-146
-147
-147
-147
-148
-148
-149
-149
-149
-149
-149
-149
-149
-148
-147
-146
-146
-145
-144
-143
-143
-143
-143
-143
-144
-145
-145
-146
-146
-148
-148
-149
-149
-150
-150
-150
-150
-150
-150
-149
-148
-147
-147
-146
-145
-144
-142
-141
-139
-138
-136
-135
-133
-132
-130
-128
-126
-125
-123
-122
-121
-121
-120
-120
-121
-121
-122
-122
-123
-123
-124
-124
-124
-125
-125
-125
-125
-126
-126
-126
-126
-127
-127
-127
-127
-128
-128
-128
-128
-128
-128
-127
-127
-127
-126
-126
-126
-126
-126
-125
-125
-126
-126
-126
-126
-127
-127
-127
-128
-128
-129
-129
-129
-129
-129
-129
-129
-130
-129
-129
-129
-129
-129
-130
-130
-131
-131
-131
-131
-132
-132
-132
-132
-132
-131
-131
-130
-130
-129
-129
-128
-128
-128
-128
-128
-129
-129
-129
-130
-130
-131
-132
-132
-132
-133
-133
-133
-134
-135
-136
-137
-138
-139
-140
-140
-140
-140
-140
-140
-140
-139
-138
-137
-136
-134
-132
-130
-129
-128
-126
-125
-125
-124
-123
-123
-123
-123
-123
-124
-124
-125
-125
-125
-126
-126
-126
-126
-126
-126
-125
-124
-124
-123
-123
-122
-122
-122
-122
-122
-122
-122
-121
-121
-121
-120
-120
-119
-120
-120
-120
-120
-121
-122
-123
-124
-125
-126
-127
-128
-129
-130
-130
-131
-131
-131
-131
-132
-132
-132
-132
-132
-132
-132
-132
-132
-132
-132
-132
-132
-132
-131
-130
-129
-129
-128
-127
-126
-126
-125
-124
-123
-123
-122
-122
-122
-122
-123
-123
-123
-124
-124
-125
-125
-126
-127
-127
-128
-130
-131
-131
-132
-132
-133
-133
-134
-136
-137
-137
-138
-140
-140
-141
-141
-141
-141
-140
-139
-139
-139
-138
-138
-137
-137
-136
-135
-135
-134
-132
-131
-131
-130
-128
-128
-127
-126
-126
-126
-126
-127
-127
-128
-129
-130
-131
-133
-134
-136
-137
-138
-140
-141
-142
-142
-142
-142
-141
-141
-141
-140
-139
-138
-137
-136
-135
-134
-134
-133
-133
-133
-133
-132
-132
-132
-131
-131
-130
-130
-130
-130
-130
-130
-130
-130
-130
-131
-131
-131
-131
-132
-132
-133
-133
-133
-133
-133
-133
-133
-134
-134
-135
-135
-136
-137
-138
-139
-140
-140
-140
-140
-141
-141
-141
-142
-142
-141
-140
-140
-139
-139
-138
-137
-137
-137
-137
-137
-138
-138
-138
-138
-139
-139
-139
-139
-139
-139
-138
-138
-138
-138
-138
-138
-138
-138
-138
-138
-138
-138
-138
-138
-138
-137
-137
-137
-136
-136
-135
-135
-135
-134
-133
-133
-132
-132
-132
-132
-132
-132
-132
-132
-132
-133
-133
-133
-133
-133
-133
-134
-134
-134
-134
-135
-135
-135
-135
-136
-137
-137
-138
-139
-140
-140
-141
-141
-141
-141
-141
-141
-142
-142
-142
-142
-143
-143
-143
-143
-144
-144
-143
-143
-143
-142
-141
-140
-139
-138
-136
-136
-135
-134
-133
-132
-132
-131
-131
-131
-131
-131
-131
-131
-131
-131
-132
-132
-132
-132
-133
-133
-134
-134
-135
-135
-136
-137
-137
-138
-139
-139
-139
-139
-140
-140
-140
-140
-140
-140
-140
-139
-140
-140
-140
-140
-140
-141
-141
-142
-143
-144
-145
-146
-147
-148
-149
-149
-150
-150
-149
-149
-149
-148
-148
-147
-147
-147
-147
-148
-148
-149
-149
-149
-150
-151
-151
-151
-151
-150
-150
-150
-150
-150
-150
-151
-151
-151
-151
-151
-152
-152
-152
-152
-153
-153
-153
-152
-152
-151
-151
-150
-150
-150
-149
-149
-149
-149
-149
-149
-149
-149
-148
-148
-148
-148
-147
-147
-147
-147
-147
-147
-147
-147
-147
-147
-147
-147
-147
-147
-148
-148
-148
-148
-149
-149
-150
-150
-150
-150
-150
-151
-151
-152
-152
-152
-153
-154
-155
-156
-157
-157
-157
-158
-158
-157
-157
-157
-156
-155
-153
-152
-151
-149
-148
-147
-146
-145
-144
-144
-145
-145
-145
-145
-146
-146
-146
-146
-146
-146
-146
-147
-147
-147
-147
-147
-146
-146
-146
-146
-146
-146
-145
-145
-145
-144
-143
-143
-142
-141
-139
-138
-137
-136
-135
-133
-132
-131
-130
-129
-128
-127
-126
-125
-125
-124
-124
-125
-127
-129
-132
-136
-140
-145
-151
-157
-164
-172
-180
-190
-199
-209
-219
-229
-239
-249
-259
-269
-278
-287
-295
-302
-310
-317
-323
-330
-336
-341
-345
-349
-352
-354
-354
-354
-354
-352
-349
-345
-340
-334
-328
-321
-314
-306
-297
-289
-280
-271
-263
-255
-247
-239
-232
-225
-219
-214
-209
-204
-200
-196
-192
-189
-186
-183
-181
-179
-177
-175
-174
-173
-172
-171
-170
-169
-168
-167
-166
-164
-163
-161
-160
-159
-159
-158
-157
-156
-156
-156
-156
-156
-157
-157
-158
-158
-159
-159
-159
-159
-158
-158
-157
-157
-157
-157
-157
-157
-157
-157
-157
-157
-156
-155
-155
-154
-154
-153
-153
-153
-153
-152
-151
-151
-151
-150
-149
-149
-149
-149
-149
-149
-149
-149
-149
-150
-150
-150
-150
-150
-150
-150
-149
-149
-148
-148
-147
-147
-146
-146
-146
-146
-146
-146
-145
-145
-145
-145
-145
-145
-145
-145
-146
-146
-147
-147
-148
-148
-149
-149
-150
-151
-151
-151
-151
-151
-151
-151
-150
-149
-148
-147
-146
-145
-144
-143
-142
-141
-140
-140
-140
-140
-140
-140
-141
-141
-142
-143
-143
-144
-144
-144
-144
-144
-144
-145
-145
-145
-145
-146
-147
-148
-149
-150
-150
-151
-151
-152
-152
-153
-153
-153
-153
-154
-154
-154
-154
-154
-154
-154
-153
-153
-154
-153
-153
-153
-153
-153
-153
-152
-152
-151
-150
-149
-149
-148
-148
-148
-148
-148
-148
-149
-150
-151
-151
-152
-153
-153
-153
-153
-153
-153
-153
-153
-153
-153
-152
-152
-152
-152
-152
-152
-152
-153
-153
-153
-153
-153
-154
-154
-154
-155
-155
-156
-157
-157
-158
-158
-159
-159
-160
-161
-161
-161
-161
-162
-162
-162
-162
-162
-161
-160
-159
-159
-159
-158
-157
-157
-157
-157
-157
-157
-158
-158
-158
-159
-160
-160
-161
-161
-161
-161
-161
-162
-162
-163
-163
-163
-163
-164
-165
-166
-167
-167
-168
-168
-169
-169
-169
-169
-169
-169
-169
-169
-169
-169
-168
-168
-168
-168
-168
-168
-168
-168
-168
-168
-168
-168
-168
-168
-168
-167
-167
-167
-167
-167
-168
-168
-169
-170
-170
-171
-172
-172
-172
-172
-172
-172
-172
-172
-171
-171
-170
-169
-168
-167
-166
-165
-164
-164
-163
-163
-163
-163
-163
-163
-163
-163
-163
-163
-163
-162
-162
-162
-162
-162
-161
-161
-161
-161
-161
-161
-161
-160
-160
-160
-159
-159
-158
-157
-156
-155
-153
-153
-152
-151
-150
-150
-150
-150
-150
-150
-151
-152
-152
-153
-154
-155
-155
-156
-156
-156
-156
-156
-156
-156
-155
-155
-155
-154
-154
-154
-154
-154
-153
-153
-153
-153
-152
-152
-152
-151
-151
-151
-152
-152
-152
-153
-154
-154
-155
-156
-157
-158
-158
-159
-160
-160
-160
-160
-159
-159
-158
-158
-158
-157
-156
-156
-155
-154
-153
-153
-153
-152
-151
-151
-151
-151
-151
-151
-151
-151
-150
-150
-150
-150
-149
-150
-150
-150
-150
-151
-152
-152
-152
-152
-153
-153
-153
-154
-154
-154
-154
-155
-155
-155
-155
-155
-156
-156
-157
-157
-158
-158
-157
-157
-157
-157
-157
-157
-157
-156
-155
-154
-153
-152
-151
-150
-149
-148
-147
-147
-147
-146
-145
-145
-145
-145
-144
-144
-144
-144
-144
-145
-146
-146
-147
-148
-148
-149
-150
-151
-152
-152
-153
-153
-154
-153
-153
-153
-152
-151
-150
-149
-149
-149
-148
-148
-148
-148
-149
-149
-150
-150
-150
-151
-152
-152
-152
-153
-153
-153
-152
-152
-151
-150
-149
-148
-148
-147
-146
-146
-146
-145
-144
-144
-143
-142
-142
-141
-141
-140
-140
-140
-140
-140
-140
-141
-141
-141
-142
-143
-144
-144
-145
-146
-147
-147
-148
-148
-149
-149
-149
-149
-149
-149
-149
-149
-149
-149
-149
-150
-151
-151
-151
-151
-152
-152
-152
-152
-153
-153
-153
-153
-153
-153
-153
-153
-153
-153
-153
-154
-155
-156
-156
-157
-157
-157
-157
-157
-157
-156
-156
-156
-156
-156
-155
-155
-155
-154
-154
-154
-154
-153
-153
-152
-152
-151
-150
-148
-147
-146
-145
-144
-144
-143
-143
-143
-143
-143
-144
-144
-145
-145
-145
-146
-147
-147
-148
-148
-148
-148
-148
-149
-149
-149
-148
-148
-149
-149
-149
-150
-150
-150
-150
-150
-150
-149
-149
-149
-148
-147
-146
-146
-146
-145
-145
-144
-144
-144
-145
-145
-145
-145
-146
-146
-147
-148
-149
-150
-150
-151
-152
-153
-154
-154
-155
-156
-157
-158
-159
-159
-160
-160
-159
-159
-158
-157
-157
-156
-155
-154
-152
-152
-151
-149
-148
-147
-147
-146
-145
-145
-145
-145
-145
-146
-146
-147
-147
-147
-147
-147
-147
-147
-147
-146
-146
-146
-146
-146
-146
-146
-147
-147
-147
-147
-147
-147
-147
-148
-148
-148
-147
-148
-148
-148
-148
-148
-149
-149
-149
-150
-150
-151
-151
-152
-153
-154
-154
-154
-155
-155
-154
-155
-154
-154
-153
-153
-153
-153
-153
-153
-153
-152
-152
-152
-152
-151
-151
-150
-150
-149
-148
-148
-148
-147
-147
-147
-148
-148
-148
-148
-149
-149
-149
-150
-150
-150
-150
-150
-149
-148
-147
-147
-146
-145
-145
-145
-145
-145
-145
-146
-146
-146
-146
-147
-147
-146
-146
-146
-146
-146
-146
-146
-146
-146
-146
-146
-146
-147
-147
-147
-148
-148
-148
-149
-150
-150
-150
-150
-150
-150
-150
-150
-150
-150
-150
-151
-151
-151
-152
-153
-154
-155
-155
-157
-158
-159
-159
-160
-160
-160
-160
-161
-161
-161
-161
-162
-162
-163
-163
-164
-164
-164
-164
-165
-165
-165
-165
-165
-165
-165
-165
-166
-166
-167
-168
-168
-169
-169
-169
-169
-169
-168
-167
-167
-166
-165
-163
-162
-160
-158
-155
-153
-151
-149
-148
-146
-146
-145
-145
-145
-145
-145
-146
-147
-148
-148
-149
-150
-151
-151
-152
-153
-153
-154
-154
-155
-156
-156
-156
-157
-158
-158
-158
-158
-158
-158
-158
-158
-157
-157
-156
-156
-156
-155
-154
-153
-153
-152
-151
-151
-150
-149
-149
-148
-148
-147
-147
-147
-146
-146
-146
-146
-146
-146
-147
-147
-148
-148
-149
-150
-151
-151
-151
-152
-152
-152
-152
-151
-151
-150
-149
-147
-146
-144
-143
-142
-140
-139
-138
-137
-136
-135
-134
-133
-132
-130
-128
-127
-126
-125
-124
-124
-124
-124
-125
-127
-130
-133
-137
-142
-148
-153
-160
-167
-175
-184
-193
-203
-212
-222
-232
-243
-254
-264
-275
-286
-296
-306
-315
-325
-334
-342
-349
-356
-361
-366
-368
-370
-371
-370
-368
-365
-361
-356
-350
-344
-336
-328
-319
-311
-302
-293
-284
-276
-267
-259
-251
-243
-236
-229
-222
-216
-211
-206
-201
-197
-194
-191
-187
-184
-182
-179
-176
-173
-171
-168
-165
-163
-161
-158
-156
-154
-153
-151
-150
-150
-149
-149
-148
-148
-148
-148
-147
-147
-147
-147
-147
-147
-147
-146
-146
-146
-146
-146
-146
-147
-147
-148
-149
-150
-151
-151
-152
-153
-154
-155
-155
-156
-156
-156
-155
-155
-154
-153
-152
-151
-150
-149
-148
-147
-146
-145
-144
-143
-141
-140
-138
-137
-135
-134
-132
-131
-131
-130
-130
-131
-131
-132
-133
-135
-136
-137
-138
-139
-140
-141
-141
-141
-142
-142
-141
-142
-141
-141
-140
-140
-140
-139
-139
-139
-139
-139
-139
-139
-139
-139
-139
-139
-139
-139
-138
-138
-138
-138
-138
-138
-138
-138
-137
-138
-138
-137
-137
-137
-138
-138
-138
-138
-138
-137
-137
-138
-138
-138
-138
-139
-139
-140
-140
-140
-141
-141
-141
-141
-141
-141
-141
-141
-141
-140
-140
-140
-140
-139
-139
-140
-140
-140
-141
-141
-142
-142
-143
-143
-143
-143
-143
-142
-142
-141
-141
-140
-140
-139
-139
-139
-139
-139
-139
-140
-140
-140
-141
-141
-142
-142
-142
-143
-143
-143
-144
-144
-144
-144
-144
-143
-143
-143
-143
-143
-143
-143
-143
-143
-143
-143
-142
-142
-142
-141
-141
-141
-141
-140
-141
-141
-142
-142
-143
-144
-145
-145
-146
-147
-147
-148
-148
-149
-149
-149
-149
-150
-150
-150
-150
-150
-151
-151
-152
-152
-153
-154
-154
-155
-155
-156
-156
-156
-156
-156
-156
-157
-157
-156
-156
-156
-156
-156
-156
-156
-156
-156
-156
-156
-155
-155
-154
-154
-154
-154
-154
-154
-154
-153
-153
-154
-154
-155
-155
-156
-156
-157
-157
-158
-158
-158
-158
-158
-158
-159
-159
-159
-159
-159
-160
-160
-160
-161
-161
-161
-161
-161
-161
-161
-161
-160
-160
-159
-158
-156
-155
-154
-153
-151
-150
-150
-149
-149
-148
-148
-148
-148
-148
-148
-149
-149
-148
-149
-148
-148
-147
-147
-147
-146
-146
-146
-146
-146
-146
-146
-146
-146
-146
-146
-146
-145
-145
-144
-144
-143
-142
-142
-142
-141
-141
-141
-141
-141
-141
-141
-141
-141
-141
-141
-142
-142
-142
-142
-142
-142
-141
-141
-141
-141
-140
-140
-140
-140
-140
-139
-139
-139
-139
-139
-138
-138
-138
-138
-138
-137
-137
-137
-137
-137
-137
-138
-138
-138
-138
-138
-139
-139
-139
-140
-141
-141
-140
-140
-139
-138
-137
-137
-136
-135
-135
-135
-136
-136
-136
-136
-137
-137
-137
-138
-138
-138
-138
-138
-138
-137
-137
-137
-137
-136
-136
-136
-136
-136
-136
-136
-137
-137
-138
-139
-140
-140
-141
-141
-142
-142
-141
-141
-141
-141
-140
-140
-140
-140
-140
-139
-139
-138
-138
-137
-137
-136
-135
-135
-134
-134
-133
-133
-133
-132
-132
-132
-132
-132
-133
-133
-134
-134
-135
-135
-135
-135
-135
-135
-135
-135
-134
-134
-133
-133
-132
-132
-132
-133
-133
-134
-134
-135
-135
-136
-137
-137
-137
-137
-137
-137
-137
-137
-137
-136
-136
-137
-137
-136
-136
-135
-134
-133
-133
-132
-132
-131
-130
-129
-128
-127
-127
-126
-126
-125
-125
-125
-125
-125
-126
-126
-127
-127
-127
-127
-127
-127
-127
-127
-127
-126
-126
-126
-125
-125
-125
-125
-125
-125
-126
-126
-127
-127
-128
-128
-129
-129
-129
-129
-129
-129
-129
-129
-129
-129
-129
-129
-130
-130
-130
-131
-131
-130
-130
-130
-130
-129
-129
-129
-128
-128
-127
-127
-126
-126
-126
-126
-125
-125
-125
-126
-126
-126
-127
-127
-128
-128
-128
-128
-129
-129
-129
-129
-130
-130
-130
-131
-132
-132
-133
-134
-135
-135
-136
-137
-138
-138
-138
-138
-138
-137
-136
-136
-135
-134
-133
-133
-133
-132
-132
-132
-132
-132
-132
-132
-132
-132
-131
-131
-131
-131
-131
-131
-131
-131
-131
-130
-130
-130
-130
-130
-129
-129
-129
-129
-129
-129
-129
-128
-128
-128
-127
-128
-127
-127
-127
-128
-128
-128
-129
-129
-129
-129
-129
-130
-130
-129
-129
-128
-128
-127
-126
-126
-125
-124
-124
-124
-124
-124
-124
-124
-125
-125
-126
-126
-127
-127
-127
-127
-127
-127
-127
-128
-128
-128
-129
-129
-130
-130
-131
-132
-132
-133
-133
-134
-134
-134
-134
-134
-134
-134
-133
-133
-133
-132
-132
-132
-132
-132
-132
-132
-132
-132
-132
-132
-132
-132
-132
-133
-132
-132
-132
-132
-132
-131
-131
-132
-132
-132
-132
-132
-132
-131
-130
-130
-129
-128
-128
-127
-125
-124
-123
-122
-121
-120
-120
-119
-119
-119
-119
-119
-119
-120
-120
-122
-123
-123
-124
-125
-126
-126
-126
-127
-127
-127
-127
-128
-128
-128
-129
-130
-130
-130
-131
-131
-131
-131
-131
-131
-131
-131
-131
-131
-130
-130
-130
-130
-130
-130
-130
-130
-130
-130
-129
-129
-129
-128
-127
-126
-126
-125
-124
-124
-123
-123
-123
-123
-123
-123
-123
-124
-124
-125
-126
-127
-128
-129
-130
-130
-131
-131
-132
-133
-133
-134
-134
-135
-135
-135
-136
-136
-136
-136
-136
-136
-136
-136
-136
-136
-136
-136
-136
-136
-135
-135
-135
-135
-136
-136
-136
-137
-138
-138
-138
-139
-139
-139
-139
-138
-138
-137
-137
-138
-138
-138
-139
-139
-140
-140
-140
-141
-141
-140
-140
-140
-139
-138
-137
-137
-135
-134
-132
-131
-129
-127
-126
-125
-125
-125
-125
-125
-126
-126
-127
-128
-129
-130
-131
-132
-132
-133
-133
-134
-134
-134
-134
-134
-134
-134
-134
-135
-134
-134
-133
-133
-133
-133
-132
-132
-132
-131
-131
-131
-131
-131
-131
-132
-132
-133
-133
-134
-134
-134
-134
-134
-134
-133
-132
-132
-131
-129
-129
-128
-128
-127
-126
-125
-125
-124
-124
-125
-125
-125
-126
-126
-127
-127
-127
-127
-127
-126
-126
-126
-126
-125
-125
-125
-124
-124
-123
-123
-123
-122
-121
-121
-120
-119
-117
-116
-114
-113
-111
-110
-108
-106
-105
-104
-103
-102
-102
-103
-104
-105
-107
-110
-113
-117
-121
-126
-131
-137
-144
-151
-159
-167
-176
-186
-196
-206
-217
-228
-239
-250
-260
-270
-280
-289
-297
-305
-312
-318
-324
-329
-333
-336
-338
-339
-339
-338
-336
-333
-329
-324
-318
-312
-305
-297
-289
-281
-272
-263
-255
-247
-239
-231
-223
-217
-210
-204
-198
-193
-188
-183
-179
-175
-172
-168
-165
-162
-159
-156
-154
-152
-149
-147
-145
-143
-142
-141
-140
-139
-138
-137
-137
-136
-136
-135
-134
-133
-132
-131
-130
-129
-128
-126
-126
-125
-125
-125
-125
-126
-126
-126
-127
-128
-128
-128
-128
-129
-129
-128
-128
-129
-129
-129
-129
-128
-128
-127
-127
-126
-126
-125
-125
-124
-124
-123
-123
-122
-122
-121
-121
-120
-120
-119
-119
-119
-119
-119
-119
-119
-120
-120
-120
-121
-121
-121
-120
-120
-120
-119
-119
-119
-119
-119
-119
-119
-119
-119
-119
-120
-120
-120
-120
-120
-121
-121
-121
-121
-121
-121
-121
-121
-121
-121
-121
-121
-121
-122
-122
-123
-123
-123
-123
-124
-124
-124
-124
-123
-122
-122
-121
-121
-120
-119
-119
-119
-119
-119
-120
-120
-120
-120
-121
-121
-121
-121
-121
-121
-121
-121
-121
-121
-121
-121
-121
-121
-122
-122
-123
-123
-123
-123
-124
-124
-124
-124
-124
-124
-124
-123
-123
-123
-123
-122
-122
-122
-121
-121
-121
-121
-121
-121
-122
-122
-122
-123
-123
-123
-123
-123
-123
-124
-124
-123
-124
-124
-124
-124
-125
-125
-125
-125
-125
-125
-125
-125
-125
-125
-124
-124
-124
-124
-124
-124
-124
-125
-126
-127
-128
-129
-130
-131
-132
-133
-133
-133
-134
-134
-134
-133
-133
-133
-132
-132
-131
-131
-131
-130
-130
-130
-130
-130
-129
-130
-129
-129
-129
-129
-129
-129
-130
-130
-130
-130
-131
-131
-131
-132
-132
-133
-133
-134
-134
-135
-135
-135
-136
-136
-136
-136
-136
-137
-137
-138
-138
-139
-140
-141
-142
-143
-143
-144
-144
-145
-145
-146
-146
-146
-145
-144
-143
-143
-141
-140
-139
-138
-138
-137
-137
-137
-137
-136
-136
-136
-136
-135
-135
-135
-134
-134
-134
-135
-135
-135
-136
-136
-137
-137
-138
-139
-139
-139
-139
-139
-139
-138
-138
-137
-137
-136
-135
-135
-134
-133
-132
-132
-131
-131
-131
-131
-131
-131
-131
-131
-131
-131
-131
-130
-129
-128
-127
-126
-125
-123
-122
-122
-121
-121
-121
-121
-120
-120
-120
-120
-120
-120
-120
-120
-120
-119
-120
-120
-120
-120
-120
-120
-120
-120
-121
-121
-120
-120
-119
-119
-119
-118
-118
-117
-116
-116
-115
-115
-115
-114
-114
-114
-114
-114
-114
-115
-115
-115
-115
-115
-115
-115
-115
-115
-114
-113
-113
-112
-111
-110
-110
-110
-110
-110
-111
-112
-112
-113
-114
-115
-116
-116
-117
-118
-118
-118
-118
-119
-119
-119
-120
-120
-120
-120
-120
-120
-120
-120
-120
-121
-120
-120
-120
-119
-118
-117
-116
-116
-115
-115
-114
-114
-114
-114
-114
-114
-113
-113
-112
-112
-112
-111
-111
-111
-110
-110
-110
-110
-110
-110
-111
-111
-112
-112
-113
-114
-114
-114
-115
-116
-116
-117
-117
-117
-117
-117
-117
-117
-117
-116
-116
-116
-116
-116
-116
-116
-115
-114
-114
-114
-113
-113
-112
-111
-110
-109
-108
-108
-107
-106
-105
-104
-104
-104
-104
-104
-104
-105
-105
-105
-106
-106
-106
-106
-106
-105
-106
-106
-106
-107
-107
-108
-109
-110
-112
-112
-113
-113
-113
-114
-114
-114
-113
-113
-112
-111
-111
-110
-109
-108
-107
-106
-105
-104
-104
-103
-103
-102
-102
-102
-102
-102
-102
-102
-102
-102
-103
-104
-105
-106
-107
-107
-108
-108
-109
-110
-111
-111
-112
-112
-113
-112
-112
-112
-111
-110
-110
-109
-108
-107
-107
-106
-106
-105
-105
-105
-105
-105
-105
-106
-106
-106
-106
-106
-106
-106
-106
-107
-107
-107
-108
-108
-108
-108
-109
-110
-110
-110
-110
-110
-109
-109
-108
-107
-106
-105
-104
-104
-103
-102
-102
-102
-102
-102
-102
-102
-102
-102
-103
-103
-103
-104
-104
-104
-104
-103
-103
-103
-103
-102
-103
-103
-103
-103
-104
-105
-106
-106
-107
-108
-109
-110
-111
-112
-113
-113
-113
-113
-113
-113
-113
-113
-113
-113
-113
-112
-112
-111
-110
-110
-109
-108
-107
-105
-104
-102
-101
-100
-99
-98
-98
-98
-98
-98
-99
-100
-100
-100
-101
-102
-102
-103
-104
-104
-104
-105
-105
-106
-106
-107
-107
-107
-107
-107
-108
-108
-107
-107
-106
-105
-105
-104
-103
-102
-100
-99
-98
-97
-96
-94
-93
-93
-92
-92
-93
-93
-94
-94
-95
-95
-96
-96
-97
-98
-98
-99
-99
-100
-100
-101
-101
-102
-102
-103
-103
-104
-104
-103
-103
-103
-103
-103
-103
-102
-102
-102
-102
-102
-101
-101
-101
-101
-102
-102
-103
-104
-104
-104
-105
-106
-107
-107
-108
-108
-109
-109
-110
-110
-111
-111
-111
-111
-111
-110
-110
-110
-109
-109
-108
-107
-106
-105
-104
-102
-100
-99
-98
-97
-96
-95
-95
-95
-95
-96
-97
-99
-100
-100
-101
-102
-103
-103
-104
-104
-103
-103
-102
-102
-101
-100
-100
-99
-98
-98
-97
-97
-96
-96
-96
-96
-96
-96
-96
-96
-96
-96
-96
-96
-96
-96
-97
-98
-98
-99
-100
-101
-101
-102
-102
-103
-103
-104
-104
-104
-105
-105
-105
-105
-104
-104
-104
-103
-103
-103
-103
-103
-103
-103
-103
-102
-102
-101
-101
-100
-100
-99
-99
-99
-99
-99
-100
-100
-101
-103
-104
-106
-107
-108
-110
-111
-111
-112
-113
-114
-115
-115
-116
-117
-117
-117
-117
-117
-117
-116
-116
-116
-115
-114
-113
-112
-111
-110
-109
-108
-106
-105
-104
-103
-102
-100
-100
-99
-98
-98
-98
-98
-98
-98
-99
-99
-99
-100
-100
-101
-101
-101
-101
-101
-101
-101
-102
-102
-102
-103
-104
-105
-105
-105
-106
-107
-107
-107
-107
-107
-107
-106
-106
-107
-106
-106
-106
-106
-106
-106
-107
-107
-107
-107
-107
-107
-107
-107
-106
-106
-105
-104
-104
-103
-103
-102
-102
-102
-103
-103
-104
-105
-105
-106
-107
-108
-109
-109
-110
-110
-110
-110
-110
-109
-108
-107
-107
-106
-105
-104
-103
-101
-99
-97
-95
-92
-90
-88
-85
-83
-81
-78
-76
-75
-73
-72
-72
-72
-72
-73
-76
-78
-81
-85
-89
-94
-100
-105
-111
-118
-124
-132
-140
-148
-156
-164
-173
-182
-191
-199
-208
-217
-225
-232
-240
-247
-254
-260
-265
-270
-274
-278
-280
-282
-283
-283
-283
-282
-280
-276
-273
-268
-263
-256
-250
-243
-235
-227
-219
-211
-203
-195
-188
-181
-174
-168
-162
-157
-153
-150
-147
-145
-142
-140
-139
-138
-136
-135
-134
-133
-131
-130
-128
-127
-125
-124
-123
-122
-120
-119
-118
-117
-116
-115
-114
-113
-112
-111
-110
-110
-108
-107
-106
-106
-105
-104
-103
-103
-102
-102
-102
-102
-101
-101
-101
-100
-100
-99
-99
-98
-97
-96
-96
-95
-95
-95
-95
-95
-95
-95
-96
-96
-97
-97
-97
-98
-98
-98
-98
-98
-98
-98
-99
-99
-99
-99
-99
-99
-99
-99
-100
-101
-101
-101
-102
-103
-103
-104
-104
-105
-105
-105
-105
-105
-105
-105
-106
-106
-107
-107
-108
-108
-108
-108
-108
-107
-106
-106
-105
-104
-103
-102
-101
-100
-99
-99
-98
-98
-97
-97
-98
-99
-99
-100
-101
-102
-103
-104
-105
-105
-106
-106
-106
-107
-107
-107
-107
-107
-107
-107
-108
-107
-107
-106
-105
-105
-103
-102
-101
-100
-99
-99
-98
-98
-97
-96
-97
-97
-97
-98
-99
-99
-100
-101
-102
-102
-103
-103
-104
-104
-105
-105
-105
-105
-105
-105
-105
-104
-104
-104
-104
-105
-105
-105
-105
-106
-105
-105
-105
-104
-104
-104
-104
-104
-104
-104
-104
-104
-104
-104
-104
-104
-104
-105
-105
-105
-105
-105
-105
-105
-104
-104
-105
-105
-105
-105
-106
-107
-108
-109
-110
-111
-112
-113
-114
-115
-115
-116
-116
-117
-117
-116
-116
-116
-115
-115
-115
-114
-114
-114
-115
-116
-116
-117
-118
-119
-119
-119
-120
-120
-119
-119
-120
-120
-120
-120
-120
-120
-120
-120
-120
-121
-121
-121
-121
-122
-123
-123
-124
-124
-125
-125
-125
-126
-126
-126
-126
-127
-127
-127
-127
-127
-127
-126
-126
-125
-124
-123
-121
-120
-119
-118
-117
-117
-116
-115
-115
-115
-115
-116
-116
-117
-118
-118
-119
-119
-120
-120
-121
-122
-122
-123
-124
-124
-125
-126
-127
-127
-128
-128
-129
-130
-130
-130
-130
-130
-129
-128
-127
-127
-125
-124
-123
-122
-120
-119
-118
-118
-117
-116
-115
-115
-114
-114
-113
-113
-112
-112
-111
-110
-109
-108
-107
-107
-106
-106
-105
-105
-105
-105
-106
-106
-106
-107
-107
-108
-108
-108
-108
-108
-108
-108
-108
-108
-107
-107
-107
-106
-106
-105
-105
-105
-104
-104
-104
-104
-103
-103
-103
-103
-103
-103
-103
-104
-104
-104
-105
-106
-107
-107
-108
-108
-108
-109
-109
-108
-108
-107
-106
-105
-104
-103
-102
-101
-100
-99
-99
-98
-98
-98
-98
-99
-99
-99
-100
-101
-101
-102
-102
-103
-103
-103
-103
-103
-103
-103
-102
-102
-102
-102
-103
-104
-104
-104
-105
-105
-105
-105
-105
-105
-105
-105
-105
-106
-106
-106
-106
-106
-106
-106
-107
-107
-107
-106
-106
-105
-105
-104
-103
-102
-101
-101
-100
-100
-99
-98
-98
-98
-98
-98
-99
-101
-102
-103
-104
-105
-106
-107
-107
-107
-107
-107
-106
-106
-105
-105
-104
-104
-103
-102
-101
-100
-98
-97
-96
-95
-94
-94
-93
-93
-92
-92
-92
-92
-92
-92
-93
-94
-94
-95
-96
-97
-98
-98
-99
-100
-100
-101
-101
-102
-102
-102
-102
-102
-102
-101
-101
-101
-101
-101
-101
-101
-101
-101
-101
-100
-99
-98
-97
-96
-95
-95
-94
-94
-93
-93
-92
-92
-92
-93
-93
-94
-95
-96
-98
-99
-101
-102
-104
-105
-105
-106
-107
-107
-107
-107
-107
-107
-107
-106
-106
-105
-104
-102
-101
-99
-97
-95
-94
-92
-91
-90
-89
-89
-88
-88
-89
-89
-90
-91
-92
-93
-94
-95
-97
-98
-98
-99
-99
-100
-100
-100
-100
-99
-99
-98
-98
-98
-97
-97
-97
-97
-97
-97
-97
-97
-96
-96
-96
-95
-95
-95
-95
-95
-94
-94
-94
-95
-95
-96
-97
-98
-98
-99
-100
-100
-100
-101
-101
-102
-102
-103
-104
-104
-104
-105
-105
-105
-105
-105
-106
-106
-106
-106
-106
-105
-105
-104
-103
-102
-101
-99
-99
-98
-97
-96
-96
-95
-95
-95
-96
-96
-96
-96
-97
-97
-97
-97
-97
-97
-96
-96
-96
-96
-95
-95
-95
-95
-95
-95
-95
-95
-95
-96
-96
-96
-97
-97
-97
-98
-98
-99
-99
-100
-100
-100
-101
-102
-102
-102
-103
-103
-103
-104
-104
-104
-103
-103
-102
-101
-101
-100
-100
-99
-99
-98
-98
-98
-98
-98
-99
-99
-99
-100
-101
-101
-101
-102
-102
-102
-102
-102
-102
-101
-101
-101
-101
-101
-101
-101
-101
-102
-102
-102
-102
-102
-101
-101
-101
-100
-99
-98
-98
-97
-96
-96
-96
-96
-95
-95
-96
-96
-96
-96
-97
-97
-97
-97
-98
-98
-98
-99
-99
-100
-100
-101
-101
-101
-101
-102
-102
-102
-102
-103
-103
-103
-103
-102
-101
-100
-99
-98
-98
-97
-96
-95
-95
-95
-95
-95
-95
-96
-96
-96
-97
-97
-97
-97
-96
-96
-96
-96
-96
-96
-95
-95
-95
-95
-95
-95
-95
-96
-96
-96
-96
-96
-96
-96
-96
-96
-96
-96
-97
-97
-97
-97
-97
-97
-97
-97
-98
-98
-98
-99
-99
-99
-99
-98
-98
-97
-97
-96
-96
-96
-96
-96
-96
-96
-97
-97
-98
-99
-99
-99
-100
-100
-101
-101
-101
-102
-102
-103
-103
-104
-105
-106
-107
-108
-109
-110
-111
-112
-113
-114
-115
-116
-116
-117
-117
-117
-117
-116
-116
-115
-114
-113
-112
-111
-110
-109
-108
-108
-107
-107
-107
-106
-106
-105
-104
-104
-103
-103
-103
-103
-104
-104
-105
-106
-106
-106
-107
-107
-106
-106
-107
-107
-107
-106
-106
-106
-105
-104
-104
-103
-102
-101
-101
-101
-101
-101
-101
-101
-100
-100
-99
-99
-98
-98
-97
-96
-96
-95
-95
-94
-93
-93
-93
-93
-93
-93
-93
-94
-94
-95
-97
-98
-99
-100
-100
-101
-101
-102
-102
-102
-103
-103
-104
-104
-104
-104
-105
-105
-105
-105
-106
-106
-106
-105
-105
-105
-104
-104
-103
-103
-102
-102
-101
-101
-100
-100
-100
-100
-99
-99
-99
-98
-97
-96
-94
-93
-91
-90
-89
-87
-85
-84
-83
-82
-80
-80
-79
-78
-77
-77
-77
-77
-78
-79
-81
-83
-85
-89
-93
-97
-103
-109
-116
-123
-131
-139
-149
-158
-168
-178
-188
-198
-208
-217
-226
-235
-243
-251
-259
-266
-272
-278
-284
-289
-293
-297
-299
-301
-301
-301
-299
-297
-294
-290
-285
-280
-274
-267
-260
-253
-245
-237
-229
-221
-213
-206
-199
-192
-185
-179
-173
-168
-163
-158
-154
-150
-147
-144
-141
-139
-137
-135
-133
-132
-130
-129
-128
-127
-126
-125
-124
-123
-122
-121
-119
-118
-116
-114
-113
-112
-110
-109
-108
-107
-107
-106
-106
-106
-105
-105
-105
-104
-104
-104
-103
-103
-102
-101
-101
-100
-99
-99
-98
-98
-98
-98
-98
-97
-97
-97
-97
-97
-96
-96
-96
-96
-95
-95
-95
-96
-96
-96
-97
-98
-99
-100
-101
-102
-102
-103
-104
-104
-105
-105
-105
-105
-104
-103
-103
-102
-101
-101
-100
-100
-99
-99
-99
-98
-97
-97
-97
-97
-96
-96
-96
-96
-95
-96
-96
-96
-96
-96
-97
-97
-97
-98
-98
-98
-99
-99
-100
-100
-101
-101
-101
-101
-101
-101
-101
-100
-100
-100
-100
-99
-99
-100
-100
-100
-100
-100
-101
-101
-100
-101
-101
-100
-100
-100
-100
-100
-100
-100
-100
-100
-100
-101
-101
-101
-101
-101
-101
-100
-100
-99
-99
-98
-97
-97
-97
-96
-96
-96
-96
-96
-97
-98
-99
-100
-100
-101
-102
-103
-103
-103
-104
-104
-104
-104
-104
-103
-103
-103
-103
-103
-104
-104
-105
-105
-106
-107
-108
-108
-109
-110
-111
-111
-111
-111
-111
-111
-110
-110
-110
-109
-109
-109
-109
-108
-108
-107
-107
-107
-106
-106
-105
-105
-105
-105
-106
-106
-107
-108
-109
-109
-110
-112
-113
-114
-114
-115
-116
-116
-116
-116
-115
-115
-114
-114
-113
-113
-112
-112
-112
-112
-112
-113
-114
-114
-114
-115
-115
-116
-116
-116
-116
-117
-117
-118
-119
-120
-120
-122
-122
-123
-124
-124
-125
-126
-126
-127
-128
-129
-129
-130
-130
-129
-128
-128
-127
-126
-126
-125
-124
-124
-123
-123
-123
-123
-122
-122
-122
-122
-122
-121
-121
-121
-120
-120
-120
-120
-120
-120
-120
-120
-121
-121
-122
-123
-123
-124
-125
-125
-125
-125
-126
-125
-125
-125
-125
-125
-124
-124
-123
-123
-122
-122
-122
-121
-120
-120
-120
-119
-119
-118
-117
-116
-115
-115
-115
-114
-114
-114
-113
-113
-113
-114
-114
-114
-114
-114
-115
-115
-115
-115
-115
-115
-114
-114
-113
-113
-112
-111
-111
-111
-111
-112
-112
-112
-112
-112
-111
-111
-110
-110
-110
-110
-109
-109
-109
-109
-108
-108
-108
-107
-107
-107
-107
-107
-107
-107
-106
-106
-106
-105
-105
-104
-103
-103
-103
-103
-103
-104
-104
-104
-105
-105
-106
-107
-108
-109
-110
-111
-112
-113
-113
-114
-114
-115
-116
-116
-117
-117
-118
-118
-118
-118
-119
-119
-118
-119
-119
-119
-119
-119
-118
-117
-115
-114
-113
-112
-111
-110
-109
-108
-108
-108
-107
-107
-106
-106
-105
-105
-104
-103
-102
-101
-101
-100
-100
-100
-100
-101
-101
-102
-103
-103
-105
-105
-106
-107
-108
-109
-109
-110
-110
-110
-110
-110
-111
-110
-110
-109
-109
-108
-108
-108
-108
-107
-107
-106
-107
-106
-106
-106
-106
-105
-105
-105
-105
-104
-104
-104
-104
-104
-105
-105
-106
-106
-106
-107
-107
-107
-107
-107
-107
-106
-106
-106
-107
-107
-107
-107
-108
-108
-109
-109
-110
-110
-110
-110
-110
-110
-110
-110
-109
-109
-108
-107
-107
-107
-106
-106
-105
-105
-105
-105
-106
-106
-106
-106
-106
-106
-106
-105
-105
-104
-103
-103
-103
-102
-102
-102
-101
-101
-102
-102
-103
-104
-104
-105
-106
-106
-107
-108
-108
-108
-108
-109
-109
-110
-109
-109
-110
-110
-110
-110
-111
-111
-111
-111
-112
-112
-111
-111
-111
-110
-109
-109
-108
-107
-106
-105
-105
-104
-104
-103
-103
-103
-102
-102
-102
-102
-102
-102
-102
-102
-102
-103
-104
-105
-105
-106
-107
-108
-108
-109
-110
-111
-111
-112
-113
-113
-113
-114
-114
-113
-113
-114
-114
-115
-115
-116
-116
-117
-117
-118
-118
-119
-119
-119
-119
-119
-118
-118
-117
-116
-115
-114
-113
-111
-110
-108
-107
-106
-106
-106
-105
-105
-104
-104
-104
-103
-103
-103
-102
-102
-101
-101
-101
-101
-101
-101
-102
-102
-103
-104
-105
-106
-107
-108
-110
-111
-112
-112
-113
-113
-113
-113
-114
-114
-113
-113
-113
-113
-114
-114
-115
-115
-115
-115
-115
-115
-114
-113
-113
-112
-111
-110
-110
-109
-109
-109
-109
-108
-108
-109
-109
-109
-109
-109
-109
-110
-110
-110
-110
-109
-109
-108
-108
-107
-106
-106
-105
-105
-104
-104
-104
-104
-103
-104
-104
-104
-105
-105
-106
-106
-106
-107
-108
-108
-109
-110
-111
-112
-113
-114
-115
-115
-115
-116
-116
-116
-116
-116
-115
-115
-114
-114
-114
-114
-114
-114
-114
-114
-114
-114
-114
-115
-115
-115
-116
-116
-115
-115
-115
-114
-114
-113
-113
-113
-112
-112
-112
-112
-112
-112
-112
-112
-112
-112
-113
-113
-113
-113
-113
-112
-112
-112
-112
-112
-112
-112
-112
-112
-113
-113
-114
-114
-115
-116
-116
-117
-117
-117
-117
-117
-117
-118
-118
-118
-118
-117
-117
-117
-118
-118
-118
-118
-117
-117
-116
-115
-115
-114
-113
-111
-110
-110
-109
-109
-109
-109
-109
-109
-109
-110
-111
-111
-112
-113
-113
-114
-115
-115
-116
-116
-116
-117
-117
-118
-118
-118
-119
-119
-120
-121
-122
-122
-122
-123
-124
-124
-124
-124
-123
-123
-122
-122
-122
-121
-121
-120
-120
-119
-119
-119
-118
-118
-118
-118
-118
-118
-118
-118
-119
-119
-119
-120
-121
-121
-122
-123
-124
-125
-126
-127
-127
-128
-128
-128
-129
-129
-129
-129
-128
-128
-127
-126
-125
-124
-124
-123
-123
-123
-123
-123
-123
-123
-123
-124
-124
-124
-124
-124
-124
-123
-123
-122
-122
-121
-121
-121
-121
-121
-121
-122
-122
-122
-123
-123
-124
-124
-124
-125
-125
-125
-124
-125
-125
-125
-125
-125
-125
-125
-125
-125
-125
-125
-124
-124
-124
-123
-123
-122
-122
-121
-120
-120
-119
-119
-118
-118
-118
-118
-118
-119
-119
-120
-121
-122
-122
-123
-123
-123
-124
-124
-123
-123
-123
-123
-123
-123
-123
-123
-123
-123
-123
-122
-122
-122
-122
-121
-120
-119
-118
-116
-115
-114
-113
-111
-110
-108
-107
-105
-103
-101
-100
-97
-95
-93
-92
-90
-89
-88
-87
-87
-87
-89
-91
-94
-98
-103
-109
-115
-122
-130
-138
-146
-155
-164
-173
-183
-193
-204
-214
-223
-233
-242
-251
-259
-267
-275
-282
-289
-296
-303
-309
-314
-319
-323
-326
-328
-329
-330
-329
-327
-324
-320
-316
-311
-305
-298
-291
-284
-276
-268
-260
-252
-243
-236
-228
-220
-213
-206
-200
-194
-188
-183
-178
-173
-169
-165
-162
-160
-157
-155
-154
-152
-150
-149
-148
-146
-145
-144
-143
-141
-140
-139
-138
-137
-136
-135
-134
-134
-134
-134
-133
-133
-132
-132
-131
-130
-130
-129
-128
-127
-126
-126
-126
-125
-125
-125
-125
-125
-125
-126
-126
-125
-125
-125
-125
-125
-125
-125
-125
-124
-124
-123
-122
-122
-121
-121
-120
-120
-120
-121
-121
-121
-121
-121
-121
-121
-121
-120
-120
-119
-118
-118
-118
-118
-118
-118
-119
-119
-120
-121
-122
-123
-124
-125
-126
-127
-128
-129
-129
-129
-129
-129
-129
-129
-129
-129
-129
-129
-129
-128
-128
-128
-127
-127
-127
-126
-126
-126
-125
-125
-125
-125
-125
-125
-125
-126
-127
-127
-128
-129
-130
-130
-131
-131
-132
-132
-132
-132
-132
-132
-132
-131
-131
-130
-129
-128
-128
-127
-126
-126
-126
-125
-124
-124
-123
-123
-122
-122
-122
-121
-121
-121
-122
-122
-122
-123
-123
-124
-125
-126
-127
-128
-129
-130
-131
-131
-132
-133
-133
-133
-133
-134
-134
-134
-134
-134
-134
-135
-135
-135
-136
-136
-136
-136
-135
-135
-135
-134
-134
-134
-134
-134
-135
-135
-135
-135
-136
-136
-137
-137
-138
-138
-139
-139
-140
-139
-139
-139
-138
-137
-136
-136
-135
-134
-134
-134
-134
-134
-134
-134
-135
-136
-136
-138
-139
-139
-140
-141
-142
-142
-143
-143
-143
-143
-143
-143
-144
-144
-144
-144
-144
-144
-145
-145
-146
-145
-145
-145
-145
-145
-145
-145
-145
-144
-144
-144
-145
-145
-145
-145
-146
-146
-146
-146
-146
-146
-145
-145
-145
-144
-144
-144
-145
-145
-145
-146
-146
-146
-147
-147
-148
-149
-149
-150
-150
-150
-151
-151
-151
-150
-150
-149
-149
-149
-148
-149
-149
-149
-149
-149
-150
-150
-150
-151
-151
-151
-151
-151
-151
-151
-151
-151
-151
-151
-151
-152
-152
-152
-152
-152
-152
-152
-152
-152
-152
-151
-151
-150
-150
-149
-148
-147
-146
-144
-143
-143
-142
-141
-141
-141
-141
-140
-140
-140
-140
-140
-140
-140
-140
-140
-140
-140
-140
-140
-140
-141
-141
-141
-142
-142
-143
-143
-143
-143
-142
-141
-140
-139
-139
-137
-136
-135
-134
-133
-132
-131
-131
-130
-129
-129
-129
-128
-128
-128
-127
-127
-127
-126
-126
-126
-125
-125
-125
-124
-123
-123
-123
-123
-124
-124
-125
-125
-125
-126
-127
-128
-128
-129
-129
-129
-129
-130
-130
-130
-131
-132
-133
-134
-135
-135
-136
-136
-136
-136
-136
-136
-136
-136
-136
-135
-134
-133
-133
-132
-132
-132
-132
-131
-131
-131
-132
-132
-132
-133
-133
-133
-133
-134
-134
-134
-134
-134
-134
-134
-134
-134
-134
-134
-134
-135
-135
-135
-134
-135
-134
-134
-133
-133
-132
-131
-131
-130
-130
-129
-129
-129
-129
-129
-129
-129
-129
-129
-129
-130
-130
-130
-130
-130
-130
-130
-130
-130
-130
-130
-130
-130
-130
-131
-131
-132
-132
-132
-132
-133
-133
-132
-132
-131
-130
-129
-128
-128
-127
-125
-124
-124
-123
-123
-122
-122
-122
-122
-121
-121
-121
-121
-121
-121
-121
-121
-121
-121
-122
-121
-122
-122
-123
-123
-124
-125
-125
-126
-127
-127
-128
-128
-128
-128
-128
-128
-128
-128
-128
-128
-128
-128
-128
-128
-128
-128
-128
-127
-128
-128
-128
-128
-128
-127
-127
-126
-126
-125
-125
-125
-124
-124
-124
-125
-125
-125
-125
-125
-126
-126
-126
-126
-126
-126
-126
-126
-127
-128
-128
-129
-129
-130
-130
-131
-131
-132
-132
-133
-133
-134
-134
-135
-135
-135
-134
-134
-133
-132
-131
-130
-130
-129
-129
-129
-129
-129
-129
-129
-128
-128
-128
-128
-127
-126
-126
-126
-125
-125
-125
-125
-125
-125
-125
-125
-125
-125
-126
-126
-127
-127
-128
-128
-128
-129
-129
-129
-129
-130
-130
-130
-131
-131
-131
-131
-131
-131
-131
-131
-131
-131
-131
-130
-130
-129
-128
-128
-127
-126
-125
-124
-124
-124
-124
-124
-124
-125
-126
-126
-126
-127
-127
-128
-128
-128
-128
-127
-127
-127
-127
-126
-126
-125
-125
-125
-124
-124
-124
-124
-124
-124
-124
-124
-124
-124
-124
-124
-125
-126
-126
-127
-128
-129
-130
-130
-131
-132
-132
-132
-133
-133
-132
-132
-131
-131
-130
-129
-128
-127
-125
-124
-123
-123
-122
-122
-121
-122
-122
-122
-123
-123
-124
-124
-124
-125
-125
-125
-125
-125
-124
-124
-124
-124
-124
-124
-124
-125
-125
-126
-126
-126
-126
-126
-126
-126
-126
-126
-126
-126
-126
-125
-125
-126
-126
-126
-126
-127
-127
-127
-127
-128
-128
-127
-127
-127
-127
-127
-127
-127
-127
-127
-127
-127
-128
-128
-128
-129
-129
-129
-130
-130
-131
-131
-131
-131
-130
-130
-129
-129
-129
-128
-128
-127
-127
-127
-127
-127
-127
-126
-126
-126
-126
-126
-125
-125
-125
-125
-124
-124
-124
-123
-123
-123
-124
-124
-125
-126
-126
-127
-128
-128
-129
-129
-129
-129
-130
-130
-130
-130
-130
-129
-129
-129
-129
-128
-128
-127
-127
-126
-125
-125
-124
-123
-122
-121
-120
-120
-119
-120
-120
-120
-120
-121
-123
-124
-126
-128
-129
-130
-132
-133
-134
-134
-134
-135
-135
-135
-135
-135
-135
-134
-133
-131
-130
-129
-128
-128
-128
-127
-127
-127
-127
-126
-126
-126
-126
-126
-126
-127
-127
-127
-128
-129
-130
-131
-132
-134
-135
-136
-137
-138
-140
-140
-141
-142
-142
-141
-141
-141
-140
-139
-139
-138
-137
-136
-135
-135
-134
-133
-132
-132
-131
-130
-130
-129
-128
-128
-127
-127
-127
-127
-127
-127
-127
-127
-128
-128
-128
-128
-129
-129
-129
-129
-129
-128
-128
-127
-127
-126
-126
-125
-125
-124
-124
-124
-124
-124
-124
-123
-123
-123
-123
-123
-122
-122
-122
-121
-122
-122
-123
-123
-124
-125
-126
-127
-129
-130
-131
-132
-134
-135
-137
-138
-138
-139
-139
-139
-138
-137
-136
-135
-134
-133
-133
-132
-131
-130
-129
-128
-127
-127
-126
-125
-124
-122
-121
-119
-118
-116
-115
-113
-111
-110
-109
-107
-106
-105
-104
-103
-102
-102
-101
-101
-101
-102
-103
-104
-107
-110
-113
-117
-122
-128
-135
-142
-149
-158
-166
-175
-184
-194
-205
-215
-225
-236
-246
-256
-266
-276
-286
-295
-304
-312
-320
-328
-334
-341
-346
-350
-353
-355
-355
-355
-353
-350
-346
-341
-335
-329
-322
-314
-305
-297
-288
-279
-269
-260
-251
-242
-233
-225
-217
-209
-202
-195
-188
-182
-176
-171
-166
-161
-157
-154
-150
-148
-145
-144
-142
-140
-139
-139
-138
-137
-136
-136
-135
-135
-135
-135
-135
-135
-136
-136
-136
-137
-137
-138
-138
-138
-138
-139
-139
-138
-138
-137
-136
-134
-133
-131
-130
-128
-127
-125
-124
-123
-123
-122
-121
-120
-119
-118
-118
-117
-117
-117
-117
-118
-119
-120
-120
-121
-122
-123
-124
-125
-127
-129
-130
-131
-133
-134
-135
-136
-137
-137
-137
-136
-136
-136
-135
-135
-135
-135
-134
-134
-133
-133
-132
-131
-130
-129
-128
-127
-126
-125
-124
-123
-122
-122
-121
-120
-119
-119
-119
-119
-120
-120
-121
-121
-121
-122
-122
-123
-123
-123
-124
-124
-124
-125
-125
-125
-126
-126
-127
-128
-129
-130
-131
-132
-132
-133
-133
-133
-133
-133
-133
-132
-132
-131
-130
-129
-129
-128
-128
-127
-128
-128
-128
-128
-128
-129
-129
-129
-129
-129
-129
-129
-129
-129
-128
-127
-127
-127
-126
-125
-125
-125
-125
-124
-124
-125
-125
-125
-126
-126
-126
-126
-127
-128
-128
-129
-129
-131
-132
-133
-134
-136
-136
-137
-137
-138
-138
-137
-137
-137
-137
-136
-136
-136
-136
-135
-135
-135
-135
-135
-135
-135
-135
-135
-136
-136
-137
-137
-138
-138
-139
-139
-139
-140
-140
-140
-141
-141
-141
-142
-143
-144
-145
-145
-146
-146
-146
-146
-146
-145
-145
-144
-143
-143
-142
-141
-141
-141
-141
-141
-141
-142
-142
-143
-143
-144
-144
-144
-144
-145
-145
-146
-147
-148
-148
-148
-149
-150
-151
-151
-153
-154
-154
-155
-155
-156
-156
-157
-157
-157
-157
-156
-156
-157
-156
-156
-156
-156
-156
-156
-156
-156
-156
-156
-156
-156
-157
-157
-157
-157
-156
-155
-155
-155
-155
-154
-154
-155
-155
-155
-156
-156
-156
-156
-156
-157
-157
-157
-157
-157
-156
-156
-155
-155
-155
-154
-154
-153
-153
-153
-153
-153
-153
-153
-152
-152
-151
-150
-149
-148
-147
-146
-145
-145
-144
-143
-142
-142
-141
-141
-141
-141
-141
-141
-141
-142
-142
-142
-142
-142
-141
-141
-141
-141
-141
-140
-140
-140
-140
-140
-140
-140
-140
-140
-139
-139
-139
-138
-137
-137
-136
-135
-134
-134
-133
-132
-132
-132
-131
-132
-132
-133
-133
-133
-134
-136
-137
-138
-139
-139
-140
-140
-140
-141
-142
-142
-143
-144
-144
-145
-145
-146
-146
-145
-145
-145
-144
-143
-142
-142
-141
-140
-139
-138
-136
-135
-134
-133
-133
-133
-133
-133
-134
-134
-135
-136
-137
-137
-138
-138
-138
-139
-139
-140
-140
-140
-141
-141
-141
-141
-141
-141
-141
-140
-140
-140
-140
-139
-139
-139
-139
-139
-139
-139
-138
-138
-137
-137
-137
-137
-137
-137
-137
-136
-135
-134
-133
-132
-131
-130
-128
-127
-126
-125
-124
-123
-123
-123
-124
-124
-125
-126
-127
-127
-128
-130
-131
-132
-132
-133
-133
-134
-134
-135
-135
-135
-135
-136
-136
-136
-137
-137
-137
-137
-138
-138
-138
-137
-137
-136
-135
-134
-133
-133
-132
-131
-131
-130
-130
-129
-129
-129
-129
-128
-128
-128
-128
-128
-128
-127
-127
-127
-127
-127
-126
-126
-126
-126
-126
-127
-128
-128
-129
-130
-131
-132
-133
-133
-134
-134
-134
-134
-135
-135
-136
-136
-136
-136
-136
-136
-136
-135
-135
-134
-134
-134
-133
-133
-133
-133
-132
-132
-132
-132
-132
-132
-133
-133
-133
-134
-135
-135
-135
-135
-135
-135
-134
-134
-133
-132
-131
-129
-128
-127
-126
-125
-124
-124
-123
-123
-124
-124
-124
-124
-125
-126
-127
-127
-128
-129
-129
-130
-131
-132
-132
-133
-133
-133
-134
-134
-134
-135
-134
-134
-134
-133
-133
-132
-131
-130
-128
-127
-126
-125
-124
-123
-122
-122
-121
-121
-121
-122
-123
-123
-124
-125
-126
-127
-128
-129
-129
-129
-130
-130
-131
-131
-131
-132
-133
-133
-134
-135
-135
-135
-136
-136
-136
-136
-135
-135
-134
-134
-133
-133
-132
-131
-131
-131
-130
-130
-131
-131
-131
-131
-132
-132
-132
-132
-132
-132
-132
-131
-131
-132
-132
-132
-132
-132
-132
-133
-133
-133
-133
-133
-133
-133
-133
-133
-133
-132
-132
-132
-132
-133
-133
-133
-134
-134
-134
-135
-136
-137
-138
-138
-139
-141
-142
-143
-144
-144
-145
-145
-145
-145
-145
-144
-144
-144
-143
-142
-142
-141
-140
-138
-137
-136
-134
-133
-132
-130
-128
-126
-126
-125
-124
-123
-123
-123
-122
-123
-123
-124
-125
-126
-127
-129
-129
-130
-130
-130
-130
-130
-131
-131
-131
-130
-130
-130
-130
-131
-131
-132
-132
-132
-132
-133
-133
-133
-133
-133
-133
-132
-132
-133
-133
-133
-133
-134
-135
-136
-137
-138
-139
-140
-141
-141
-142
-142
-143
-143
-143
-142
-143
-143
-142
-142
-142
-142
-141
-141
-140
-140
-138
-137
-136
-135
-134
-133
-132
-131
-129
-128
-127
-126
-125
-124
-124
-123
-123
-123
-123
-124
-124
-125
-125
-126
-127
-128
-129
-129
-130
-130
-131
-131
-132
-132
-133
-133
-134
-134
-135
-136
-136
-136
-137
-138
-139
-139
-140
-140
-141
-141
-141
-141
-141
-141
-141
-141
-141
-141
-142
-142
-142
-143
-143
-143
-143
-143
-143
-143
-143
-144
-144
-145
-145
-145
-146
-146
-147
-147
-148
-149
-150
-150
-151
-151
-151
-151
-150
-150
-149
-148
-148
-147
-147
-146
-145
-145
-145
-145
-145
-145
-145
-145
-146
-146
-146
-146
-146
-146
-145
-145
-145
-145
-144
-144
-144
-143
-143
-143
-143
-143
-142
-142
-142
-142
-142
-141
-141
-141
-141
-140
-140
-140
-139
-139
-138
-138
-138
-139
-139
-139
-139
-139
-138
-138
-138
-137
-137
-136
-135
-134
-134
-134
-133
-133
-133
-134
-134
-135
-135
-136
-136
-137
-137
-138
-139
-139
-140
-141
-141
-141
-141
-141
-141
-141
-141
-141
-141
-141
-142
-142
-142
-142
-142
-141
-141
-140
-140
-139
-139
-138
-138
-138
-137
-136
-136
-135
-135
-135
-135
-135
-134
-133
-132
-132
-131
-130
-129
-127
-126
-125
-125
-125
-125
-126
-127
-129
-131
-134
-138
-142
-147
-152
-158
-165
-171
-178
-185
-193
-201
-209
-217
-226
-234
-242
-251
-260
-268
-276
-284
-292
-299
-305
-312
-318
-323
-327
-330
-333
-333
-333
-332
-330
-327
-323
-319
-314
-307
-300
-293
-286
-277
-269
-260
-252
-243
-234
-226
-218
-210
-203
-197
-191
-186
-181
-177
-173
-170
-167
-165
-164
-162
-160
-160
-159
-158
-158
-157
-156
-155
-155
-154
-154
-153
-153
-153
-153
-153
-153
-154
-154
-154
-154
-154
-154
-153
-152
-151
-149
-148
-147
-146
-145
-144
-142
-142
-141
-140
-139
-139
-139
-139
-138
-139
-139
-139
-138
-138
-138
-137
-136
-136
-136
-136
-135
-135
-135
-135
-135
-136
-136
-136
-136
-136
-136
-136
-136
-136
-136
-136
-136
-137
-138
-138
-139
-139
-140
-141
-142
-143
-144
-144
-145
-146
-147
-147
-147
-146
-146
-145
-144
-143
-141
-140
-138
-137
-136
-134
-133
-132
-131
-129
-128
-128
-128
-127
-127
-127
-127
-127
-127
-127
-128
-128
-129
-130
-131
-132
-134
-135
-137
-137
-138
-140
-141
-142
-143
-144
-145
-145
-146
-146
-147
-147
-147
-148
-148
-149
-149
-150
-150
-150
-150
-150
-149
-148
-147
-146
-144
-143
-142
-141
-140
-139
-139
-138
-138
-138
-137
-138
-138
-138
-139
-140
-141
-142
-143
-144
-144
-144
-144
-144
-144
-143
-143
-142
-142
-142
-141
-141
-141
-140
-139
-139
-138
-138
-138
-138
-138
-138
-138
-139
-140
-140
-140
-141
-141
-142
-143
-144
-145
-145
-146
-146
-146
-146
-145
-145
-144
-143
-142
-142
-141
-141
-141
-141
-141
-142
-142
-143
-144
-145
-146
-147
-148
-148
-149
-149
-149
-149
-149
-149
-149
-149
-148
-148
-148
-148
-148
-149
-149
-149
-149
-149
-149
-149
-150
-150
-151
-151
-152
-152
-153
-154
-154
-155
-156
-157
-157
-158
-159
-159
-159
-159
-159
-159
-159
-158
-158
-157
-156
-155
-154
-153
-152
-152
-151
-151
-151
-152
-152
-153
-154
-155
-156
-157
-158
-159
-159
-159
-159
-160
-160
-161
-161
-162
-162
-162
-163
-163
-163
-163
-162
-162
-162
-161
-160
-159
-159
-158
-157
-156
-156
-155
-154
-153
-152
-152
-151
-151
-151
-151
-151
-151
-151
-150
-150
-150
-149
-149
-148
-149
-149
-149
-149
-149
-149
-148
-148
-148
-147
-147
-146
-145
-144
-143
-142
-141
-139
-138
-136
-135
-134
-133
-132
-131
-131
-131
-131
-131
-132
-132
-133
-134
-135
-136
-136
-137
-137
-138
-138
-138
-139
-139
-140
-140
-141
-142
-142
-142
-143
-142
-142
-142
-142
-141
-140
-140
-139
-138
-137
-136
-136
-135
-134
-134
-133
-132
-132
-131
-131
-130
-129
-129
-129
-128
-127
-126
-126
-125
-124
-123
-122
-121
-121
-121
-121
-121
-121
-122
-123
-123
-124
-125
-126
-126
-127
-128
-128
-128
-128
-129
-129
-128
-128
-128
-128
-128
-128
-127
-127
-127
-127
-127
-127
-126
-126
-126
-126
-126
-125
-125
-125
-124
-124
-124
-125
-125
-125
-126
-127
-127
-127
-128
-128
-128
-128
-128
-128
-127
-127
-126
-126
-125
-124
-124
-124
-123
-122
-122
-122
-121
-121
-121
-121
-120
-120
-119
-119
-119
-119
-119
-119
-119
-120
-120
-121
-121
-122
-122
-123
-124
-124
-125
-125
-125
-125
-125
-125
-124
-123
-123
-122
-121
-121
-120
-120
-120
-121
-121
-122
-122
-122
-123
-124
-124
-125
-125
-126
-126
-127
-127
-128
-128
-128
-128
-128
-128
-128
-128
-128
-127
-127
-127
-126
-125
-124
-123
-121
-120
-119
-119
-118
-118
-118
-118
-118
-118
-118
-119
-120
-120
-120
-121
-121
-122
-122
-122
-122
-122
-122
-122
-122
-121
-121
-120
-120
-120
-119
-119
-119
-118
-118
-118
-118
-117
-117
-116
-116
-116
-115
-115
-115
-114
-114
-115
-115
-115
-116
-117
-117
-117
-118
-119
-119
-119
-119
-119
-119
-118
-118
-117
-117
-117
-116
-117
-117
-116
-116
-117
-117
-117
-117
-118
-119
-119
-120
-120
-121
-121
-121
-122
-122
-122
-122
-123
-123
-123
-124
-124
-124
-124
-124
-124
-123
-122
-121
-120
-119
-118
-117
-116
-114
-113
-112
-111
-111
-110
-111
-111
-112
-112
-113
-114
-114
-114
-114
-114
-114
-114
-114
-114
-114
-114
-114
-114
-113
-113
-113
-113
-113
-112
-112
-112
-112
-112
-113
-113
-113
-113
-113
-113
-114
-114
-115
-116
-117
-118
-119
-120
-121
-122
-122
-123
-123
-123
-123
-122
-122
-121
-121
-120
-119
-117
-116
-115
-115
-114
-114
-113
-113
-113
-113
-113
-114
-114
-114
-114
-114
-114
-114
-114
-114
-114
-114
-114
-114
-114
-113
-113
-113
-112
-112
-112
-112
-112
-112
-112
-113
-112
-112
-112
-112
-112
-112
-112
-113
-114
-114
-115
-116
-116
-116
-117
-117
-116
-116
-115
-114
-113
-112
-112
-111
-110
-110
-110
-109
-109
-109
-109
-110
-110
-110
-111
-112
-112
-113
-113
-114
-114
-114
-114
-114
-114
-114
-114
-114
-114
-114
-114
-114
-114
-113
-112
-111
-110
-109
-108
-107
-106
-105
-105
-104
-103
-103
-103
-103
-103
-104
-104
-105
-106
-107
-108
-109
-110
-111
-113
-114
-115
-116
-117
-117
-117
-118
-118
-119
-119
-119
-120
-120
-119
-119
-119
-119
-119
-119
-119
-118
-118
-119
-119
-120
-120
-120
-120
-121
-121
-121
-122
-122
-122
-122
-122
-122
-121
-120
-119
-118
-117
-116
-114
-113
-112
-111
-111
-111
-111
-111
-112
-113
-113
-114
-115
-115
-116
-116
-117
-117
-117
-117
-118
-118
-118
-118
-118
-118
-118
-118
-118
-119
-119
-119
-120
-120
-120
-120
-119
-119
-119
-119
-119
-118
-117
-117
-117
-117
-117
-117
-117
-118
-118
-118
-118
-118
-118
-117
-117
-117
-116
-116
-116
-115
-115
-115
-115
-115
-115
-114
-115
-115
-115
-115
-115
-116
-116
-116
-116
-116
-116
-115
-115
-115
-115
-115
-115
-115
-116
-116
-117
-117
-117
-117
-118
-118
-117
-117
-116
-116
-115
-114
-113
-112
-111
-110
-110
-109
-109
-108
-108
-107
-107
-107
-107
-107
-106
-106
-106
-106
-105
-104
-104
-103
-102
-101
-101
-100
-99
-99
-98
-97
-96
-96
-95
-95
-94
-94
-94
-94
-94
-95
-97
-98
-100
-103
-107
-111
-115
-121
-126
-133
-139
-146
-153
-161
-168
-176
-184
-192
-200
-208
-217
-225
-232
-240
-248
-256
-263
-270
-276
-282
-287
-291
-294
-295
-296
-295
-293
-290
-286
-282
-277
-271
-264
-257
-249
-241
-234
-226
-219
-211
-204
-198
-192
-186
-180
-175
-170
-165
-161
-157
-153
-149
-146
-143
-140
-138
-135
-133
-131
-128
-126
-123
-122
-120
-118
-116
-114
-113
-112
-111
-110
-110
-110
-110
-110
-111
-111
-112
-113
-113
-113
-114
-114
-115
-115
-115
-115
-115
-114
-114
-114
-113
-112
-112
-112
-111
-111
-112
-112
-113
-113
-113
-114
-114
-115
-115
-116
-116
-116
-116
-116
-115
-114
-114
-113
-113
-113
-112
-112
-111
-111
-110
-110
-109
-108
-108
-107
-107
-106
-106
-105
-105
-105
-104
-104
-104
-104
-103
-103
-103
-102
-102
-101
-101
-100
-99
-99
-98
-97
-97
-97
-97
-96
-96
-97
-98
-99
-100
-102
-103
-105
-107
-109
-110
-111
-112
-113
-113
-113
-113
-113
-113
-112
-111
-111
-110
-109
-109
-108
-107
-106
-105
-104
-103
-101
-100
-99
-99
-98
-98
-98
-98
-98
-99
-99
-100
-101
-102
-103
-104
-104
-105
-106
-106
-107
-107
-107
-107
-107
-107
-107
-107
-107
-107
-107
-108
-108
-109
-109
-110
-110
-111
-113
-113
-114
-115
-115
-115
-115
-115
-115
-115
-116
-116
-116
-116
-116
-116
-117
-117
-117
-117
-117
-117
-117
-117
-116
-116
-116
-116
-116
-116
-116
-116
-117
-117
-117
-117
-118
-118
-119
-119
-120
-120
-120
-119
-119
-119
-118
-118
-118
-118
-118
-117
-117
-118
-118
-118
-118
-118
-118
-118
-119
-119
-119
-119
-119
-120
-120
-120
-120
-120
-120
-121
-121
-122
-122
-122
-123
-123
-123
-124
-125
-125
-125
-126
-126
-126
-126
-126
-126
-126
-126
-126
-126
-126
-126
-126
-127
-127
-128
-128
-129
-130
-130
-130
-130
-129
-129
-129
-129
-128
-128
-128
-129
-130
-131
-132
-133
-134
-134
-135
-136
-137
-138
-138
-138
-138
-137
-137
-137
-137
-136
-136
-135
-135
-135
-135
-135
-134
-134
-133
-133
-133
-133
-133
-133
-133
-132
-132
-132
-131
-130
-130
-129
-128
-128
-128
-127
-127
-126
-125
-125
-124
-124
-123
-122
-121
-120
-118
-118
-117
-116
-115
-115
-115
-114
-114
-114
-114
-113
-113
-113
-112
-111
-110
-110
-109
-109
-109
-109
-109
-109
-109
-110
-110
-111
-112
-114
-114
-115
-116
-118
-119
-120
-121
-121
-121
-121
-121
-121
-120
-119
-119
-119
-118
-118
-118
-118
-118
-118
-118
-119
-119
-118
-118
-117
-116
-115
-114
-113
-112
-111
-111
-110
-109
-108
-108
-107
-106
-104
-103
-102
-101
-100
-99
-99
-98
-98
-98
-98
-98
-98
-98
-98
-99
-99
-99
-100
-101
-101
-102
-103
-104
-104
-104
-104
-104
-104
-104
-105
-105
-104
-105
-105
-105
-105
-106
-106
-107
-107
-107
-108
-108
-108
-108
-108
-107
-106
-106
-105
-105
-104
-104
-104
-104
-104
-104
-105
-105
-105
-106
-106
-107
-107
-108
-108
-109
-109
-110
-110
-110
-110
-111
-111
-111
-112
-112
-112
-112
-112
-111
-111
-110
-109
-108
-107
-105
-104
-102
-102
-101
-100
-100
-100
-100
-100
-100
-101
-101
-101
-102
-103
-103
-103
-103
-103
-103
-102
-102
-102
-101
-100
-100
-100
-99
-98
-98
-98
-98
-97
-97
-97
-97
-97
-97
-97
-96
-96
-96
-96
-95
-95
-95
-95
-95
-96
-96
-97
-97
-97
-98
-98
-99
-99
-99
-99
-99
-99
-99
-100
-100
-101
-101
-102
-102
-103
-103
-104
-105
-105
-106
-107
-108
-108
-109
-109
-109
-109
-110
-110
-109
-109
-109
-109
-109
-108
-108
-108
-108
-108
-107
-107
-106
-105
-104
-103
-101
-100
-99
-99
-98
-97
-96
-96
-96
-96
-96
-96
-97
-97
-97
-97
-98
-98
-99
-99
-99
-99
-99
-99
-99
-99
-99
-99
-99
-100
-101
-101
-102
-102
-103
-103
-104
-104
-105
-105
-105
-104
-104
-104
-104
-104
-103
-103
-103
-103
-103
-103
-102
-102
-101
-101
-100
-99
-98
-98
-97
-96
-95
-95
-95
-95
-95
-95
-96
-97
-98
-99
-100
-100
-102
-103
-104
-105
-105
-106
-107
-107
-108
-108
-109
-109
-109
-109
-110
-110
-110
-110
-110
-109
-109
-108
-108
-107
-106
-105
-104
-103
-102
-102
-101
-100
-99
-99
-98
-98
-98
-98
-98
-98
-99
-100
-100
-101
-101
-101
-101
-100
-101
-101
-101
-101
-101
-101
-102
-102
-102
-102
-102
-102
-102
-102
-102
-102
-102
-102
-102
-102
-103
-103
-103
-103
-103
-104
-104
-104
-105
-106
-106
-107
-108
-108
-109
-109
-110
-111
-111
-111
-112
-113
-113
-114
-114
-114
-114
-114
-115
-115
-115
-114
-114
-113
-113
-113
-112
-111
-110
-109
-108
-107
-107
-106
-105
-105
-105
-105
-106
-107
-108
-108
-109
-110
-110
-110
-110
-110
-109
-109
-109
-109
-108
-108
-108
-108
-108
-108
-109
-109
-109
-109
-110
-110
-111
-111
-111
-111
-111
-111
-111
-112
-112
-111
-111
-111
-111
-111
-111
-111
-111
-111
-111
-111
-110
-110
-110
-109
-108
-107
-107
-107
-106
-105
-105
-105
-105
-106
-107
-108
-109
-110
-110
-111
-112
-113
-113
-114
-114
-114
-114
-114
-114
-114
-115
-115
-115
-115
-115
-116
-115
-115
-114
-114
-113
-113
-112
-112
-112
-111
-111
-111
-111
-111
-111
-111
-111
-112
-113
-113
-114
-114
-114
-115
-115
-116
-117
-117
-117
-118
-118
-118
-118
-118
-119
-119
-119
-120
-121
-122
-122
-123
-124
-124
-125
-125
-125
-125
-124
-124
-123
-123
-123
-122
-122
-122
-121
-121
-121
-121
-121
-121
-120
-120
-120
-119
-119
-118
-117
-116
-116
-116
-115
-114
-114
-114
-113
-113
-113
-114
-113
-113
-113
-113
-113
-113
-113
-113
-113
-113
-113
-114
-114
-115
-115
-116
-117
-118
-119
-120
-120
-121
-121
-122
-123
-123
-124
-124
-124
-124
-124
-124
-123
-122
-121
-121
-120
-119
-119
-118
-118
-117
-117
-117
-117
-117
-117
-117
-116
-115
-115
-115
-115
-115
-115
-115
-115
-116
-116
-116
-116
-116
-116
-116
-116
-115
-115
-114
-113
-112
-111
-111
-110
-109
-109
-108
-108
-107
-107
-106
-105
-103
-102
-101
-100
-99
-97
-95
-93
-91
-90
-89
-87
-86
-86
-86
-87
-88
-91
-94
-98
-102
-107
-113
-119
-125
-132
-140
-148
-156
-166
-176
-185
-195
-206
-216
-227
-237
-247
-257
-266
-274
-282
-290
-298
-304
-310
-315
-318
-321
-323
-324
-323
-321
-319
-316
-312
-307
-302
-296
-289
-282
-275
-267
-259
-250
-241
-232
-224
-215
-207
-199
-192
-184
-178
-172
-167
-163
-159
-155
-152
-148
-145
-142
-140
-137
-135
-133
-132
-130
-129
-127
-126
-125
-124
-123
-123
-122
-123
-123
-123
-122
-123
-124
-124
-124
-124
-124
-124
-124
-124
-124
-124
-123
-123
-122
-122
-122
-122
-122
-121
-121
-120
-119
-118
-117
-116
-114
-113
-111
-110
-110
-110
-109
-109
-109
-110
-110
-110
-111
-111
-111
-112
-112
-113
-113
-113
-113
-113
-113
-113
-113
-113
-112
-113
-113
-113
-114
-114
-115
-116
-117
-118
-119
-120
-120
-120
-120
-119
-118
-118
-118
-117
-116
-115
-114
-114
-113
-113
-113
-112
-111
-111
-111
-111
-111
-112
-112
-113
-113
-114
-114
-115
-115
-115
-115
-115
-115
-115
-115
-115
-114
-113
-112
-111
-110
-108
-107
-105
-104
-103
-102
-101
-100
-99
-99
-99
-100
-101
-102
-103
-104
-105
-106
-107
-108
-108
-109
-110
-110
-111
-112
-112
-113
-113
-114
-114
-115
-116
-116
-116
-116
-117
-117
-117
-118
-118
-118
-118
-118
-118
-118
-118
-118
-118
-119
-119
-120
-121
-122
-122
-122
-123
-123
-123
-123
-123
-122
-121
-121
-120
-120
-119
-118
-117
-116
-115
-115
-115
-115
-114
-114
-114
-114
-114
-113
-114
-113
-113
-113
-114
-114
-115
-116
-117
-118
-120
-121
-123
-124
-125
-126
-127
-128
-129
-129
-129
-129
-128
-128
-128
-128
-127
-126
-126
-125
-125
-125
-125
-125
-125
-125
-125
-126
-127
-127
-128
-129
-129
-130
-130
-131
-131
-131
-131
-131
-131
-131
-131
-131
-131
-131
-131
-131
-131
-131
-131
-131
-130
-130
-131
-131
-131
-131
-132
-132
-132
-133
-134
-134
-135
-136
-137
-138
-139
-140
-141
-141
-142
-142
-142
-143
-142
-142
-142
-141
-141
-141
-141
-141
-140
-139
-138
-137
-136
-134
-133
-132
-130
-129
-129
-129
-128
-128
-129
-129
-130
-131
-132
-133
-133
-134
-134
-135
-134
-134
-134
-133
-132
-130
-130
-129
-127
-126
-125
-124
-123
-122
-122
-122
-121
-120
-120
-120
-119
-119
-118
-118
-117
-116
-116
-115
-114
-113
-113
-112
-112
-112
-112
-112
-112
-113
-113
-114
-114
-114
-114
-114
-114
-114
-114
-115
-115
-115
-116
-117
-117
-118
-118
-119
-119
-119
-120
-120
-121
-121
-121
-121
-120
-120
-119
-119
-118
-117
-117
-116
-115
-114
-114
-114
-113
-112
-112
-111
-111
-110
-109
-109
-108
-108
-107
-107
-107
-107
-107
-107
-108
-108
-109
-110
-110
-111
-112
-113
-114
-115
-116
-116
-116
-117
-117
-118
-118
-118
-119
-119
-120
-120
-121
-121
-121
-120
-120
-120
-119
-119
-118
-117
-116
-115
-114
-113
-112
-111
-110
-110
-109
-109
-109
-109
-109
-108
-108
-108
-108
-108
-107
-107
-107
-107
-107
-107
-106
-106
-106
-106
-107
-107
-108
-109
-109
-110
-111
-111
-112
-112
-112
-112
-112
-112
-112
-112
-112
-111
-111
-111
-111
-110
-110
-110
-110
-109
-109
-108
-108
-107
-106
-106
-105
-105
-104
-105
-104
-104
-104
-104
-104
-104
-104
-104
-105
-105
-105
-105
-105
-104
-104
-103
-103
-102
-101
-101
-100
-99
-99
-98
-98
-98
-98
-98
-98
-97
-97
-98
-97
-97
-97
-97
-97
-97
-97
-98
-98
-99
-99
-100
-101
-101
-102
-103
-103
-104
-104
-105
-105
-105
-105
-105
-104
-104
-104
-103
-102
-101
-101
-100
-99
-99
-99
-99
-99
-98
-98
-98
-98
-98
-98
-98
-97
-97
-97
-98
-98
-99
-100
-101
-102
-103
-105
-106
-108
-109
-110
-112
-113
-113
-114
-114
-113
-113
-112
-112
-111
-110
-110
-109
-109
-108
-108
-107
-106
-105
-105
-104
-103
-102
-101
-100
-100
-99
-99
-99
-98
-98
-99
-99
-99
-100
-101
-102
-102
-102
-103
-103
-103
-103
-103
-103
-102
-102
-102
-102
-101
-101
-101
-101
-101
-101
-101
-102
-101
-101
-101
-101
-101
-101
-100
-100
-99
-99
-98
-98
-97
-96
-95
-95
-94
-93
-93
-93
-92
-92
-92
-93
-93
-93
-94
-95
-95
-96
-97
-97
-98
-98
-99
-99
-100
-100
-101
-101
-102
-102
-102
-102
-102
-102
-102
-102
-102
-102
-102
-102
-101
-101
-101
-101
-101
-102
-103
-103
-104
-104
-105
-105
-106
-106
-106
-106
-105
-105
-106
-106
-107
-107
-108
-108
-108
-109
-109
-109
-109
-109
-109
-109
-109
-109
-109
-108
-107
-107
-106
-106
-105
-105
-104
-104
-104
-104
-104
-104
-104
-104
-104
-105
-104
-104
-104
-104
-103
-103
-103
-102
-101
-101
-100
-100
-100
-100
-100
-101
-101
-101
-102
-102
-102
-102
-102
-102
-102
-101
-102
-102
-101
-102
-102
-102
-102
-102
-103
-103
-103
-103
-103
-103
-103
-102
-102
-101
-101
-101
-101
-101
-100
-100
-100
-100
-100
-101
-101
-102
-102
-103
-103
-104
-104
-105
-105
-104
-104
-103
-103
-103
-102
-102
-102
-102
-102
-102
-103
-103
-104
-104
-104
-104
-104
-104
-104
-104
-104
-104
-104
-104
-104
-104
-105
-105
-105
-105
-105
-105
-105
-104
-105
-105
-104
-104
-104
-104
-104
-104
-104
-105
-104
-104
-104
-104
-104
-105
-105
-106
-106
-106
-107
-108
-108
-108
-108
-108
-108
-108
-109
-109
-109
-109
-110
-110
-111
-111
-112
-113
-114
-115
-115
-116
-115
-115
-115
-114
-114
-113
-113
-112
-112
-111
-111
-111
-110
-110
-111
-111
-112
-112
-113
-114
-114
-115
-116
-116
-117
-117
-118
-119
-120
-121
-122
-123
-124
-124
-125
-126
-127
-128
-128
-128
-128
-128
-128
-127
-127
-126
-125
-124
-122
-121
-120
-119
-117
-117
-116
-116
-115
-115
-114
-114
-113
-112
-111
-111
-110
-109
-109
-108
-108
-108
-108
-108
-108
-108
-109
-109
-110
-110
-111
-112
-112
-112
-112
-112
-112
-112
-113
-112
-112
-112
-112
-112
-112
-112
-112
-112
-112
-111
-111
-111
-111
-111
-111
-110
-110
-110
-110
-109
-109
-109
-109
-109
-109
-109
-109
-109
-109
-109
-110
-110
-109
-109
-109
-109
-109
-109
-110
-110
-110
-111
-112
-112
-113
-113
-114
-115
-115
-115
-115
-114
-113
-112
-110
-109
-106
-104
-102
-99
-96
-94
-91
-89
-87
-86
-85
-84
-84
-84
-84
-85
-87
-89
-92
-96
-100
-105
-111
-117
-124
-132
-141
-150
-160
-170
-181
-192
-203
-215
-226
-237
-248
-258
-267
-277
-285
-293
-301
-307
-313
-318
-322
-325
-327
-328
-328
-327
-325
-322
-318
-313
-307
-300
-293
-285
-277
-268
-259
-250
-240
-231
-222
-213
-205
-197
-190
-183
-176
-170
-165
-160
-155
-151
-147
-144
-140
-138
-135
-134
-132
-130
-129
-129
-128
-128
-127
-127
-127
-127
-127
-127
-127
-127
-127
-128
-128
-128
-128
-128
-127
-126
-125
-124
-122
-120
-119
-118
-117
-115
-114
-112
-110
-108
-106
-104
-103
-101
-100
-99
-98
-97
-97
-97
-98
-99
-100
-101
-103
-104
-105
-106
-106
-106
-107
-107
-106
-106
-106
-105
-105
-105
-105
-105
-104
-105
-105
-105
-105
-105
-106
-106
-106
-106
-106
-107
-108
-108
-109
-110
-110
-110
-110
-111
-111
-111
-111
-111
-110
-110
-110
-110
-109
-108
-107
-106
-104
-102
-101
-99
-98
-98
-98
-98
-98
-98
-100
-101
-102
-103
-104
-105
-105
-106
-107
-107
-108
-108
-109
-110
-110
-111
-111
-112
-112
-112
-112
-112
-111
-110
-110
-110
-109
-108
-108
-107
-107
-106
-106
-105
-105
-104
-103
-103
-102
-102
-102
-102
-102
-103
-103
-104
-104
-104
-104
-104
-103
-103
-103
-103
-103
-103
-103
-104
-104
-105
-105
-106
-106
-107
-108
-109
-109
-110
-111
-111
-112
-113
-114
-115
-115
-116
-117
-117
-118
-118
-119
-119
-120
-120
-121
-121
-120
-120
-119
-118
-116
-115
-114
-112
-111
-110
-110
-110
-110
-110
-110
-111
-111
-111
-112
-113
-113
-114
-115
-116
-116
-117
-117
-117
-117
-117
-118
-118
-119
-119
-120
-120
-121
-121
-122
-122
-122
-122
-121
-121
-121
-120
-120
-120
-120
-120
-120
-120
-120
-120
-120
-120
-120
-121
-121
-122
-122
-122
-123
-124
-124
-124
-125
-126
-126
-127
-129
-130
-131
-131
-132
-133
-133
-133
-133
-132
-131
-130
-130
-129
-128
-127
-126
-125
-123
-122
-122
-121
-121
-121
-122
-123
-124
-125
-126
-128
-129
-129
-130
-131
-132
-133
-133
-134
-134
-135
-136
-136
-136
-136
-136
-136
-136
-135
-135
-134
-133
-132
-131
-131
-130
-129
-128
-128
-127
-126
-125
-124
-123
-123
-122
-122
-121
-121
-121
-121
-121
-120
-120
-119
-119
-119
-119
-119
-119
-119
-119
-120
-120
-121
-121
-122
-121
-121
-122
-121
-121
-120
-119
-118
-117
-115
-114
-113
-112
-111
-110
-109
-108
-108
-108
-108
-107
-107
-107
-108
-108
-108
-108
-109
-109
-109
-110
-110
-111
-111
-112
-112
-112
-113
-114
-114
-115
-116
-117
-117
-117
-117
-117
-118
-117
-117
-117
-117
-116
-116
-117
-117
-118
-118
-119
-119
-119
-119
-119
-119
-118
-118
-117
-117
-116
-115
-114
-114
-112
-111
-110
-110
-109
-108
-108
-108
-108
-108
-109
-109
-110
-110
-110
-110
-109
-109
-109
-109
-109
-109
-110
-110
-110
-110
-110
-109
-109
-109
-109
-109
-108
-108
-108
-107
-107
-107
-108
-108
-109
-109
-111
-112
-113
-115
-116
-117
-118
-119
-120
-120
-120
-119
-119
-118
-117
-116
-115
-113
-111
-109
-107
-106
-104
-102
-101
-99
-98
-97
-97
-96
-96
-96
-96
-96
-97
-97
-98
-99
-100
-101
-102
-103
-105
-106
-107
-108
-109
-110
-110
-111
-111
-110
-110
-110
-109
-108
-107
-106
-105
-104
-104
-103
-103
-102
-102
-102
-102
-102
-102
-102
-102
-103
-103
-104
-104
-105
-106
-106
-107
-107
-108
-109
-110
-110
-111
-111
-111
-111
-112
-111
-110
-110
-109
-107
-106
-104
-103
-102
-101
-100
-100
-100
-100
-100
-101
-102
-102
-103
-104
-105
-105
-106
-107
-107
-108
-108
-109
-109
-109
-109
-109
-110
-110
-109
-109
-109
-109
-108
-108
-108
-107
-107
-106
-106
-105
-104
-104
-103
-103
-102
-102
-102
-102
-103
-103
-104
-104
-104
-105
-105
-105
-105
-105
-105
-105
-104
-104
-104
-104
-104
-104
-104
-104
-105
-105
-106
-106
-106
-107
-107
-107
-108
-108
-108
-108
-108
-107
-107
-106
-106
-106
-105
-105
-104
-104
-104
-103
-103
-103
-102
-102
-102
-102
-102
-103
-103
-103
-104
-104
-104
-105
-106
-107
-108
-109
-110
-111
-112
-113
-113
-113
-113
-113
-113
-112
-112
-112
-112
-112
-112
-112
-112
-112
-112
-113
-113
-112
-112
-112
-112
-112
-111
-111
-110
-109
-108
-107
-106
-105
-105
-104
-104
-103
-103
-103
-103
-102
-102
-103
-103
-103
-103
-103
-103
-104
-104
-104
-105
-105
-105
-106
-106
-107
-107
-108
-108
-108
-109
-109
-109
-109
-109
-109
-109
-108
-108
-107
-107
-106
-106
-106
-106
-106
-107
-107
-107
-108
-109
-110
-110
-111
-111
-112
-112
-112
-112
-112
-112
-111
-111
-111
-110
-110
-110
-110
-109
-108
-108
-107
-107
-106
-106
-106
-105
-105
-105
-105
-106
-106
-107
-108
-109
-110
-110
-111
-112
-112
-112
-113
-113
-112
-112
-112
-111
-111
-110
-110
-109
-108
-108
-108
-107
-107
-107
-108
-108
-108
-109
-110
-110
-111
-111
-111
-112
-112
-112
-113
-113
-113
-113
-114
-114
-115
-115
-116
-116
-116
-116
-116
-116
-116
-115
-115
-114
-113
-113
-112
-111
-110
-110
-110
-110
-110
-110
-110
-110
-110
-110
-111
-111
-111
-112
-112
-113
-113
-113
-114
-114
-114
-114
-114
-114
-114
-114
-114
-114
-114
-114
-115
-115
-115
-115
-114
-113
-112
-112
-111
-111
-110
-110
-110
-110
-110
-111
-111
-111
-111
-111
-111
-111
-111
-111
-111
-111
-111
-111
-111
-111
-112
-112
-113
-114
-115
-117
-118
-119
-120
-121
-123
-124
-125
-126
-127
-128
-128
-129
-130
-131
-131
-132
-133
-133
-134
-134
-135
-136
-136
-137
-138
-138
-138
-138
-137
-136
-134
-133
-131
-129
-127
-125
-123
-121
-120
-118
-117
-115
-114
-113
-112
-111
-110
-109
-109
-108
-108
-108
-108
-108
-108
-109
-110
-110
-111
-112
-113
-113
-114
-115
-115
-116
-116
-117
-117
-117
-116
-117
-117
-117
-117
-117
-118
-118
-118
-119
-119
-120
-120
-120
-120
-120
-120
-120
-120
-119
-119
-119
-119
-119
-119
-119
-119
-120
-120
-121
-122
-123
-124
-125
-126
-127
-128
-128
-129
-129
-129
-128
-128
-128
-127
-127
-126
-125
-125
-124
-123
-122
-120
-119
-118
-116
-114
-113
-111
-110
-108
-106
-105
-104
-102
-101
-100
-99
-98
-97
-97
-96
-96
-96
-97
-99
-100
-103
-106
-109
-113
-118
-124
-131
-138
-145
-154
-163
-172
-183
-193
-204
-216
-227
-239
-250
-260
-270
-280
-289
-297
-305
-312
-319
-325
-330
-336
-340
-343
-345
-347
-347
-346
-343
-340
-336
-331
-325
-319
-311
-303
-294
-286
-276
-267
-257
-248
-238
-229
-221
-213
-205
-198
-192
-186
-181
-176
-171
-167
-163
-160
-157
-155
-153
-151
-150
-149
-148
-147
-147
-147
-147
-146
-146
-146
-146
-145
-144
-144
-143
-142
-141
-140
-139
-137
-136
-135
-134
-133
-131
-131
-130
-128
-128
-127
-127
-126
-126
-126
-125
-125
-125
-125
-125
-125
-126
-127
-127
-128
-129
-130
-131
-132
-132
-133
-133
-133
-133
-132
-132
-131
-130
-129
-128
-127
-126
-126
-125
-124
-124
-124
-124
-123
-123
-124
-124
-124
-124
-124
-123
-123
-123
-123
-123
-123
-123
-124
-124
-124
-124
-124
-124
-124
-124
-124
-124
-124
-123
-123
-123
-122
-122
-123
-123
-122
-123
-123
-124
-124
-125
-127
-128
-129
-130
-131
-132
-133
-133
-134
-134
-133
-133
-133
-133
-133
-133
-133
-132
-132
-131
-131
-130
-129
-128
-127
-127
-126
-125
-124
-124
-123
-122
-122
-122
-122
-122
-122
-123
-123
-124
-125
-126
-126
-127
-128
-129
-130
-131
-131
-132
-132
-132
-133
-133
-133
-133
-134
-134
-135
-136
-137
-138
-139
-140
-141
-142
-142
-142
-142
-142
-141
-141
-140
-140
-139
-138
-137
-137
-136
-135
-135
-135
-134
-134
-133
-133
-132
-132
-132
-131
-131
-131
-132
-133
-133
-134
-135
-136
-137
-138
-139
-140
-141
-141
-142
-143
-143
-143
-143
-142
-141
-141
-140
-140
-140
-139
-139
-139
-138
-138
-139
-139
-139
-139
-140
-140
-140
-140
-140
-140
-140
-140
-141
-141
-140
-141
-141
-141
-142
-142
-143
-144
-144
-145
-146
-146
-147
-147
-148
-148
-149
-149
-150
-151
-151
-151
-152
-153
-153
-154
-155
-155
-155
-155
-155
-155
-154
-154
-154
-154
-154
-154
-155
-154
-154
-154
-153
-153
-153
-153
-154
-154
-154
-154
-154
-154
-154
-154
-153
-153
-152
-151
-150
-149
-148
-148
-147
-147
-146
-146
-146
-146
-146
-146
-146
-146
-145
-145
-145
-144
-143
-143
-143
-142
-142
-142
-142
-142
-142
-142
-142
-142
