# Simple Text Format
# Sampling Rate (Hz):= 1200.00
# Resolution:= 12
# Labels:= ECG	 V3
# Age:=	47
# Gender:=	Feminino
-245
-244
-245
-245
-244
-244
-243
-243
-242
-242
-242
-242
-242
-241
-241
-241
-241
-241
-241
-241
-240
-239
-238
-239
-238
-238
-237
-237
-236
-236
-236
-236
-236
-235
-235
-236
-235
-236
-235
-235
-235
-235
-235
-235
-234
-235
-234
-235
-236
-236
-235
-235
-235
-236
-236
-236
-236
-236
-236
-235
-235
-234
-233
-232
-230
-230
-229
-227
-227
-225
-225
-224
-223
-222
-222
-220
-220
-219
-219
-219
-218
-218
-217
-216
-216
-215
-216
-215
-214
-214
-214
-213
-213
-213
-213
-212
-212
-211
-211
-211
-210
-209
-209
-208
-207
-207
-206
-205
-205
-205
-204
-204
-204
-203
-203
-203
-203
-203
-202
-202
-201
-199
-199
-198
-197
-195
-195
-194
-192
-192
-192
-190
-189
-188
-188
-187
-187
-186
-186
-185
-186
-185
-185
-185
-184
-184
-185
-184
-185
-185
-186
-186
-186
-186
-186
-187
-187
-187
-187
-187
-187
-186
-186
-186
-186
-185
-185
-184
-184
-185
-184
-185
-184
-185
-186
-186
-187
-187
-188
-188
-188
-189
-190
-189
-190
-190
-190
-190
-190
-191
-191
-191
-191
-192
-192
-192
-193
-192
-193
-193
-194
-194
-195
-195
-195
-197
-197
-198
-200
-201
-202
-203
-204
-205
-206
-207
-208
-209
-209
-209
-210
-210
-210
-211
-210
-210
-210
-210
-209
-210
-211
-210
-211
-211
-211
-212
-212
-212
-213
-213
-214
-215
-215
-216
-217
-218
-219
-219
-221
-221
-223
-224
-224
-225
-226
-227
-228
-229
-229
-230
-230
-230
-230
-231
-231
-232
-232
-232
-232
-232
-233
-233
-234
-234
-235
-235
-235
-236
-236
-237
-237
-237
-237
-238
-238
-238
-237
-237
-238
-238
-238
-239
-239
-238
-239
-240
-239
-240
-240
-239
-239
-239
-240
-240
-239
-240
-240
-240
-240
-240
-240
-240
-241
-241
-241
-241
-242
-242
-242
-242
-241
-241
-240
-240
-239
-239
-238
-238
-238
-238
-238
-238
-238
-238
-239
-239
-239
-239
-239
-239
-239
-239
-239
-238
-238
-238
-238
-237
-237
-237
-237
-237
-236
-235
-236
-235
-235
-234
-234
-234
-233
-232
-231
-232
-231
-231
-232
-231
-231
-231
-231
-231
-232
-232
-232
-232
-231
-232
-231
-231
-230
-230
-229
-228
-228
-228
-227
-227
-226
-226
-226
-226
-225
-226
-225
-226
-226
-226
-226
-226
-227
-227
-227
-228
-227
-228
-228
-228
-228
-228
-229
-229
-230
-230
-230
-230
-230
-230
-230
-230
-230
-230
-229
-229
-229
-229
-229
-228
-227
-227
-227
-227
-227
-227
-227
-227
-227
-226
-227
-227
-226
-227
-227
-226
-227
-227
-227
-227
-227
-228
-228
-229
-229
-230
-230
-231
-232
-232
-232
-232
-233
-233
-232
-233
-232
-232
-233
-234
-234
-235
-235
-235
-235
-236
-236
-236
-236
-237
-237
-237
-237
-237
-236
-236
-236
-235
-235
-235
-235
-234
-234
-235
-234
-235
-235
-235
-236
-236
-237
-237
-237
-238
-238
-238
-239
-240
-240
-241
-241
-242
-242
-242
-242
-242
-242
-242
-242
-242
-242
-242
-241
-240
-239
-239
-238
-239
-238
-238
-237
-237
-238
-238
-238
-238
-238
-238
-238
-239
-239
-239
-239
-239
-239
-239
-239
-239
-239
-238
-238
-238
-239
-239
-239
-240
-240
-240
-240
-241
-241
-241
-241
-241
-242
-241
-241
-242
-241
-241
-242
-242
-242
-242
-241
-241
-241
-241
-241
-240
-240
-239
-239
-239
-239
-238
-238
-238
-238
-239
-239
-239
-240
-240
-240
-240
-240
-241
-241
-242
-243
-242
-243
-242
-243
-243
-242
-242
-242
-243
-243
-243
-243
-242
-243
-243
-242
-242
-243
-242
-242
-242
-242
-242
-242
-241
-241
-241
-241
-240
-240
-241
-241
-241
-241
-242
-242
-242
-242
-242
-243
-243
-242
-242
-242
-242
-241
-242
-242
-241
-241
-241
-242
-242
-242
-242
-242
-243
-243
-244
-244
-243
-243
-243
-242
-243
-242
-242
-242
-241
-241
-241
-241
-240
-240
-240
-240
-239
-239
-238
-238
-238
-237
-237
-236
-235
-234
-234
-234
-233
-233
-233
-233
-233
-233
-233
-234
-234
-234
-234
-234
-234
-233
-234
-233
-233
-233
-233
-232
-231
-231
-231
-230
-230
-230
-230
-230
-229
-229
-228
-228
-227
-227
-227
-227
-226
-226
-226
-225
-225
-225
-226
-225
-225
-225
-224
-224
-223
-223
-223
-222
-221
-221
-220
-220
-220
-219
-219
-219
-219
-219
-220
-221
-221
-221
-222
-223
-223
-224
-225
-226
-227
-227
-228
-228
-229
-230
-230
-231
-231
-232
-233
-232
-233
-233
-234
-235
-235
-235
-235
-235
-234
-234
-234
-234
-233
-233
-233
-233
-232
-232
-232
-233
-233
-233
-234
-234
-235
-236
-236
-237
-237
-238
-238
-238
-238
-238
-238
-239
-240
-240
-240
-241
-241
-241
-241
-243
-243
-243
-243
-244
-243
-244
-244
-243
-244
-243
-243
-243
-243
-243
-243
-243
-242
-242
-242
-241
-241
-240
-240
-239
-239
-239
-238
-237
-238
-237
-237
-237
-237
-236
-236
-236
-237
-237
-238
-238
-238
-238
-238
-238
-238
-238
-237
-237
-236
-236
-236
-235
-235
-235
-235
-235
-234
-233
-233
-232
-230
-230
-229
-227
-225
-223
-221
-218
-215
-212
-208
-204
-200
-196
-192
-187
-182
-177
-172
-166
-161
-155
-151
-145
-139
-134
-129
-124
-118
-114
-111
-107
-103
-100
-97
-95
-93
-93
-93
-94
-95
-99
-104
-109
-116
-124
-132
-142
-153
-164
-176
-190
-204
-218
-233
-248
-263
-278
-291
-304
-317
-328
-337
-346
-353
-359
-363
-366
-368
-368
-368
-367
-365
-362
-358
-353
-349
-343
-338
-332
-326
-320
-314
-308
-302
-296
-291
-286
-281
-276
-271
-267
-263
-260
-257
-254
-251
-249
-248
-246
-245
-243
-241
-241
-240
-238
-238
-237
-237
-236
-235
-235
-235
-235
-234
-234
-235
-234
-234
-234
-233
-234
-234
-234
-233
-233
-232
-232
-231
-230
-230
-230
-229
-229
-228
-228
-228
-229
-228
-228
-228
-228
-227
-227
-227
-227
-226
-226
-225
-225
-225
-226
-225
-225
-225
-225
-225
-226
-225
-225
-225
-225
-224
-224
-224
-224
-224
-223
-222
-222
-222
-222
-221
-221
-220
-220
-220
-220
-222
-222
-222
-222
-223
-223
-223
-223
-223
-223
-222
-222
-222
-221
-221
-221
-220
-220
-219
-220
-219
-218
-217
-218
-217
-216
-216
-214
-214
-214
-213
-213
-212
-212
-212
-212
-212
-212
-212
-212
-212
-212
-212
-212
-212
-211
-212
-211
-212
-211
-211
-211
-211
-211
-211
-210
-210
-210
-210
-210
-211
-211
-211
-211
-210
-210
-209
-209
-208
-208
-208
-207
-206
-206
-206
-206
-205
-204
-204
-204
-203
-203
-203
-202
-202
-201
-201
-200
-200
-199
-198
-197
-197
-196
-196
-196
-195
-194
-194
-194
-193
-193
-193
-193
-192
-191
-191
-190
-190
-189
-188
-187
-186
-185
-184
-184
-183
-183
-182
-182
-182
-181
-181
-180
-180
-179
-180
-179
-178
-177
-177
-176
-175
-174
-173
-173
-172
-172
-172
-171
-170
-169
-169
-168
-166
-166
-166
-164
-164
-163
-162
-162
-162
-161
-161
-160
-160
-160
-160
-159
-160
-160
-159
-161
-160
-160
-160
-159
-160
-159
-160
-159
-160
-159
-159
-159
-159
-159
-160
-160
-161
-161
-161
-162
-163
-163
-163
-163
-163
-163
-162
-163
-163
-163
-163
-163
-163
-163
-164
-164
-164
-165
-165
-166
-166
-167
-167
-168
-168
-168
-169
-169
-170
-170
-171
-172
-172
-173
-174
-175
-176
-176
-176
-177
-177
-177
-177
-177
-178
-178
-179
-179
-180
-180
-180
-181
-182
-182
-183
-184
-185
-186
-187
-188
-189
-190
-191
-191
-193
-193
-193
-193
-194
-195
-195
-197
-196
-197
-198
-198
-199
-200
-199
-200
-201
-201
-202
-202
-203
-203
-203
-204
-205
-205
-205
-207
-207
-209
-209
-210
-211
-211
-211
-212
-212
-212
-213
-213
-213
-213
-213
-213
-212
-212
-212
-212
-212
-212
-213
-212
-213
-213
-213
-213
-213
-214
-214
-214
-214
-215
-214
-215
-215
-216
-216
-216
-216
-216
-217
-217
-218
-218
-218
-217
-218
-218
-217
-217
-215
-215
-214
-213
-213
-212
-212
-212
-212
-212
-212
-213
-212
-212
-212
-212
-212
-213
-213
-212
-212
-213
-212
-212
-212
-211
-212
-212
-212
-213
-213
-214
-214
-214
-215
-215
-215
-215
-216
-215
-215
-214
-215
-214
-213
-213
-213
-212
-212
-212
-213
-212
-212
-211
-211
-211
-211
-210
-210
-209
-209
-208
-208
-208
-208
-207
-207
-207
-207
-207
-207
-207
-208
-208
-209
-208
-209
-209
-209
-209
-209
-209
-208
-208
-209
-208
-208
-207
-207
-207
-208
-207
-208
-208
-207
-208
-207
-207
-207
-207
-207
-207
-207
-207
-208
-207
-208
-208
-208
-208
-209
-209
-210
-210
-210
-210
-210
-209
-211
-210
-209
-209
-210
-210
-209
-210
-209
-208
-209
-209
-209
-209
-210
-210
-210
-211
-211
-211
-211
-211
-211
-211
-211
-210
-210
-211
-211
-211
-211
-211
-212
-212
-212
-212
-212
-213
-213
-213
-212
-213
-212
-213
-214
-214
-214
-214
-215
-215
-215
-215
-216
-216
-217
-218
-218
-219
-219
-219
-219
-220
-219
-219
-220
-220
-220
-220
-220
-220
-220
-221
-222
-221
-222
-222
-222
-222
-222
-222
-222
-222
-222
-221
-222
-221
-221
-220
-220
-220
-219
-218
-219
-218
-218
-218
-218
-217
-217
-217
-217
-216
-217
-217
-216
-216
-216
-216
-216
-216
-217
-217
-218
-218
-219
-219
-219
-219
-220
-220
-221
-221
-221
-220
-221
-221
-221
-220
-220
-220
-220
-220
-220
-220
-220
-220
-220
-219
-219
-219
-219
-219
-219
-218
-219
-219
-219
-218
-219
-219
-220
-220
-220
-221
-222
-223
-223
-223
-223
-224
-225
-224
-224
-225
-224
-224
-223
-224
-222
-222
-223
-222
-222
-221
-221
-221
-221
-220
-221
-219
-219
-218
-218
-218
-217
-217
-217
-217
-217
-217
-217
-218
-218
-219
-219
-219
-220
-220
-220
-220
-220
-220
-220
-220
-221
-221
-221
-220
-220
-220
-220
-221
-221
-220
-221
-221
-221
-222
-221
-221
-221
-220
-220
-221
-220
-220
-220
-220
-220
-221
-221
-221
-221
-222
-222
-222
-222
-223
-223
-223
-223
-223
-223
-223
-223
-223
-223
-222
-222
-222
-222
-222
-223
-223
-222
-222
-222
-222
-222
-222
-222
-222
-221
-221
-221
-220
-220
-220
-220
-220
-220
-220
-219
-218
-219
-218
-218
-217
-217
-217
-217
-215
-215
-214
-213
-213
-213
-212
-212
-211
-211
-211
-211
-211
-210
-210
-210
-210
-210
-211
-210
-210
-210
-209
-208
-208
-208
-207
-207
-207
-206
-206
-206
-206
-206
-205
-205
-205
-204
-204
-203
-203
-204
-203
-203
-203
-203
-204
-203
-204
-204
-204
-205
-205
-207
-207
-207
-208
-208
-209
-209
-210
-210
-211
-210
-211
-212
-212
-212
-213
-214
-214
-215
-216
-217
-217
-218
-220
-220
-220
-220
-221
-222
-222
-222
-222
-221
-222
-221
-221
-220
-220
-221
-220
-220
-219
-220
-219
-218
-218
-218
-217
-217
-218
-218
-218
-218
-219
-219
-219
-220
-221
-221
-222
-223
-223
-224
-224
-224
-225
-225
-225
-226
-225
-226
-226
-226
-225
-225
-225
-226
-226
-225
-225
-226
-226
-226
-225
-225
-225
-225
-224
-224
-223
-223
-223
-222
-222
-222
-221
-221
-221
-221
-222
-222
-221
-221
-221
-223
-223
-222
-222
-222
-222
-222
-222
-222
-222
-221
-222
-222
-221
-221
-222
-221
-221
-221
-220
-219
-219
-218
-217
-216
-215
-213
-212
-210
-208
-205
-203
-200
-198
-194
-191
-188
-184
-179
-176
-171
-166
-161
-156
-151
-146
-141
-136
-132
-127
-123
-119
-116
-113
-111
-109
-107
-105
-105
-103
-103
-103
-104
-106
-108
-112
-117
-122
-129
-136
-145
-155
-165
-174
-186
-199
-212
-224
-238
-251
-265
-278
-290
-301
-312
-322
-331
-339
-345
-351
-355
-358
-360
-362
-362
-360
-358
-355
-351
-347
-342
-336
-331
-324
-319
-312
-305
-299
-293
-287
-281
-275
-270
-265
-261
-256
-252
-249
-245
-242
-240
-238
-235
-234
-231
-230
-229
-227
-226
-225
-224
-223
-223
-222
-222
-221
-222
-222
-221
-221
-221
-220
-220
-220
-220
-220
-219
-219
-220
-219
-219
-219
-219
-220
-220
-220
-221
-220
-220
-220
-220
-220
-219
-219
-218
-217
-217
-216
-216
-216
-214
-215
-214
-214
-213
-212
-213
-212
-212
-211
-211
-211
-210
-211
-211
-211
-210
-210
-211
-210
-211
-211
-211
-211
-211
-212
-211
-212
-211
-212
-212
-212
-211
-210
-210
-210
-210
-210
-210
-210
-209
-210
-210
-210
-210
-210
-211
-211
-211
-211
-210
-210
-210
-210
-209
-209
-208
-208
-208
-207
-207
-207
-207
-207
-207
-206
-207
-207
-207
-207
-207
-207
-208
-207
-207
-206
-207
-207
-206
-205
-205
-205
-205
-204
-204
-204
-205
-204
-203
-203
-203
-203
-202
-201
-201
-200
-199
-199
-200
-199
-198
-197
-197
-197
-197
-196
-196
-195
-195
-194
-194
-194
-194
-193
-193
-192
-192
-191
-191
-190
-191
-191
-190
-190
-190
-190
-190
-190
-191
-191
-191
-189
-189
-189
-188
-187
-187
-186
-185
-185
-184
-184
-183
-182
-182
-181
-181
-180
-180
-179
-179
-177
-177
-177
-176
-175
-175
-174
-174
-173
-172
-173
-173
-173
-173
-173
-171
-172
-172
-171
-171
-170
-170
-170
-169
-168
-167
-167
-166
-165
-165
-164
-164
-164
-164
-163
-163
-163
-163
-162
-162
-162
-161
-161
-160
-159
-159
-159
-159
-158
-158
-158
-157
-158
-158
-157
-158
-158
-158
-158
-158
-159
-159
-159
-159
-159
-159
-159
-159
-160
-160
-160
-160
-161
-161
-162
-162
-162
-163
-164
-164
-164
-164
-164
-165
-164
-165
-166
-166
-166
-166
-166
-167
-167
-168
-169
-169
-169
-170
-169
-170
-170
-171
-171
-171
-171
-171
-172
-172
-172
-173
-174
-174
-176
-175
-176
-177
-178
-179
-179
-179
-181
-181
-182
-182
-184
-184
-184
-186
-186
-186
-187
-188
-189
-190
-191
-192
-192
-193
-193
-194
-195
-195
-195
-196
-196
-197
-197
-197
-197
-198
-199
-200
-200
-202
-202
-203
-203
-204
-205
-204
-204
-204
-205
-205
-205
-205
-205
-205
-205
-205
-205
-205
-206
-206
-207
-207
-208
-208
-208
-209
-210
-210
-210
-210
-209
-210
-210
-210
-210
-210
-211
-211
-211
-211
-211
-211
-211
-211
-210
-210
-210
-211
-211
-210
-210
-210
-209
-209
-210
-209
-210
-209
-209
-210
-209
-210
-210
-210
-210
-210
-210
-209
-210
-210
-210
-209
-210
-210
-210
-210
-210
-211
-211
-211
-212
-211
-211
-211
-211
-211
-210
-210
-210
-209
-209
-208
-208
-207
-206
-206
-206
-205
-205
-205
-205
-205
-205
-205
-205
-205
-205
-205
-205
-205
-205
-205
-205
-205
-205
-205
-205
-205
-205
-205
-206
-206
-205
-205
-206
-205
-205
-204
-205
-205
-205
-205
-205
-204
-204
-204
-204
-205
-205
-205
-205
-205
-205
-205
-205
-205
-204
-204
-204
-204
-203
-203
-203
-202
-201
-201
-201
-201
-201
-201
-201
-202
-201
-201
-201
-202
-201
-201
-201
-202
-202
-202
-202
-202
-202
-202
-202
-203
-203
-204
-203
-204
-204
-204
-204
-204
-204
-204
-204
-205
-205
-205
-205
-206
-205
-205
-206
-206
-207
-207
-208
-208
-208
-209
-209
-209
-209
-210
-210
-210
-209
-209
-209
-209
-209
-209
-208
-209
-209
-209
-210
-209
-210
-210
-211
-211
-210
-210
-210
-210
-210
-209
-210
-210
-209
-210
-211
-211
-211
-211
-212
-212
-212
-212
-213
-213
-213
-213
-213
-214
-214
-214
-214
-214
-215
-215
-215
-216
-216
-216
-216
-217
-217
-216
-217
-216
-217
-217
-216
-216
-216
-216
-216
-215
-215
-216
-216
-215
-215
-215
-216
-216
-216
-216
-217
-217
-216
-216
-216
-216
-216
-215
-215
-215
-215
-214
-216
-216
-215
-215
-216
-216
-216
-216
-217
-217
-217
-217
-217
-217
-216
-216
-216
-217
-216
-216
-217
-217
-217
-217
-218
-217
-217
-217
-218
-218
-217
-217
-217
-218
-217
-217
-218
-217
-217
-218
-218
-218
-219
-219
-219
-219
-220
-220
-220
-220
-220
-221
-219
-220
-220
-219
-219
-218
-219
-219
-218
-218
-218
-219
-219
-218
-218
-218
-219
-219
-219
-218
-218
-218
-217
-217
-217
-216
-216
-217
-217
-216
-217
-217
-217
-217
-217
-218
-217
-219
-219
-219
-219
-219
-219
-219
-219
-218
-218
-218
-219
-219
-219
-218
-218
-218
-217
-218
-217
-217
-217
-217
-216
-216
-215
-215
-215
-215
-215
-216
-216
-216
-216
-218
-218
-218
-218
-219
-219
-219
-220
-220
-220
-219
-220
-219
-219
-220
-219
-219
-219
-219
-219
-219
-219
-219
-219
-219
-218
-218
-218
-218
-218
-217
-217
-215
-215
-215
-215
-214
-214
-213
-213
-213
-213
-213
-213
-212
-212
-212
-212
-211
-211
-210
-210
-210
-210
-209
-209
-209
-209
-209
-209
-209
-209
-209
-209
-208
-208
-208
-207
-207
-206
-206
-205
-204
-203
-202
-202
-201
-201
-201
-201
-201
-202
-202
-202
-201
-201
-201
-202
-202
-202
-203
-202
-203
-204
-204
-204
-204
-205
-205
-206
-208
-207
-209
-209
-210
-211
-211
-212
-213
-214
-214
-214
-214
-215
-215
-216
-216
-216
-216
-216
-217
-217
-218
-218
-217
-217
-217
-216
-217
-217
-217
-216
-217
-217
-217
-218
-218
-219
-220
-220
-221
-222
-223
-223
-224
-225
-225
-225
-225
-226
-226
-226
-226
-226
-226
-226
-226
-226
-226
-227
-227
-227
-227
-227
-228
-228
-227
-228
-228
-228
-228
-227
-227
-227
-227
-226
-227
-227
-226
-226
-226
-226
-226
-226
-226
-226
-225
-225
-225
-225
-224
-224
-223
-223
-224
-223
-224
-224
-223
-223
-223
-223
-223
-223
-222
-223
-223
-222
-221
-221
-221
-220
-220
-219
-218
-218
-217
-217
-216
-214
-213
-212
-211
-210
-207
-205
-202
-200
-197
-194
-191
-187
-183
-179
-175
-171
-167
-163
-158
-154
-150
-145
-141
-138
-133
-129
-126
-123
-120
-117
-115
-113
-112
-110
-109
-108
-108
-108
-111
-113
-116
-121
-126
-132
-139
-147
-154
-163
-173
-184
-195
-207
-219
-232
-245
-258
-271
-283
-295
-306
-315
-326
-333
-341
-347
-352
-355
-358
-359
-359
-358
-356
-354
-351
-346
-342
-338
-332
-326
-321
-315
-309
-304
-298
-292
-287
-282
-277
-272
-267
-262
-257
-254
-251
-247
-244
-242
-240
-238
-236
-234
-233
-231
-231
-230
-228
-228
-227
-226
-226
-226
-225
-225
-224
-224
-224
-223
-223
-223
-225
-225
-224
-224
-224
-224
-225
-225
-225
-225
-224
-223
-223
-222
-221
-221
-221
-221
-220
-220
-221
-220
-221
-220
-220
-220
-219
-219
-219
-219
-219
-218
-218
-218
-218
-218
-218
-218
-217
-217
-217
-218
-218
-218
-218
-218
-218
-218
-218
-218
-217
-217
-217
-216
-216
-216
-216
-216
-216
-216
-216
-217
-216
-216
-216
-217
-217
-217
-217
-216
-216
-216
-215
-215
-214
-214
-214
-214
-214
-214
-214
-214
-215
-214
-214
-214
-214
-214
-214
-213
-213
-212
-212
-211
-211
-212
-211
-210
-210
-210
-210
-210
-210
-209
-209
-209
-208
-208
-208
-209
-208
-208
-207
-207
-206
-207
-206
-206
-206
-206
-206
-206
-206
-206
-205
-205
-205
-204
-204
-204
-203
-202
-202
-201
-201
-200
-199
-199
-199
-199
-199
-199
-199
-199
-199
-199
-199
-198
-198
-197
-197
-196
-195
-195
-194
-194
-193
-193
-192
-191
-191
-191
-190
-190
-190
-190
-189
-189
-188
-188
-187
-187
-186
-187
-186
-185
-185
-184
-184
-183
-183
-183
-182
-181
-181
-180
-179
-179
-178
-178
-177
-176
-175
-175
-174
-173
-172
-172
-171
-171
-171
-171
-171
-171
-171
-170
-170
-169
-169
-169
-168
-167
-168
-166
-167
-166
-165
-165
-165
-165
-165
-165
-165
-165
-165
-165
-166
-165
-165
-165
-166
-165
-165
-165
-165
-165
-165
-165
-165
-165
-166
-166
-166
-167
-167
-166
-167
-167
-167
-167
-167
-166
-166
-166
-166
-166
-166
-167
-166
-167
-167
-167
-168
-168
-170
-170
-171
-171
-173
-173
-173
-174
-175
-175
-176
-176
-176
-178
-177
-178
-179
-180
-180
-181
-181
-182
-181
-182
-182
-182
-183
-182
-182
-183
-183
-185
-185
-185
-186
-187
-187
-188
-189
-189
-190
-190
-190
-191
-192
-192
-193
-193
-193
-194
-194
-195
-195
-195
-196
-197
-197
-198
-199
-201
-201
-202
-203
-203
-204
-205
-205
-206
-206
-206
-206
-206
-206
-206
-207
-207
-208
-208
-208
-209
-209
-210
-209
-210
-211
-211
-211
-211
-211
-211
-211
-212
-212
-212
-212
-212
-213
-213
-213
-213
-212
-212
-212
-212
-211
-210
-210
-209
-210
-209
-209
-210
-210
-210
-210
-211
-211
-212
-213
-213
-214
-214
-216
-216
-216
-217
-218
-217
-217
-217
-219
-218
-218
-218
-218
-218
-219
-218
-217
-218
-216
-217
-216
-216
-214
-214
-214
-213
-213
-211
-211
-211
-210
-210
-209
-209
-210
-210
-211
-211
-211
-211
-211
-211
-212
-212
-211
-212
-211
-211
-211
-210
-211
-211
-211
-211
-211
-211
-211
-211
-211
-211
-211
-211
-211
-211
-211
-210
-210
-210
-210
-210
-210
-210
-210
-209
-210
-209
-210
-209
-209
-209
-210
-209
-208
-208
-209
-208
-207
-207
-208
-208
-207
-208
-209
-209
-209
-210
-209
-210
-210
-211
-211
-211
-212
-212
-212
-212
-212
-212
-212
-212
-213
-213
-213
-212
-213
-212
-213
-212
-212
-211
-212
-211
-211
-210
-210
-210
-208
-208
-209
-209
-208
-209
-209
-210
-210
-211
-212
-212
-214
-214
-215
-216
-216
-217
-217
-217
-218
-218
-219
-218
-219
-219
-219
-219
-219
-220
-219
-219
-219
-218
-219
-219
-218
-218
-218
-218
-217
-217
-218
-217
-217
-218
-219
-219
-220
-221
-221
-222
-222
-223
-223
-223
-223
-224
-223
-223
-223
-223
-223
-222
-223
-222
-222
-222
-223
-222
-223
-223
-223
-223
-222
-223
-223
-223
-223
-222
-223
-222
-222
-223
-223
-223
-223
-222
-222
-223
-223
-222
-222
-222
-223
-223
-223
-223
-222
-222
-222
-223
-223
-223
-224
-224
-225
-225
-226
-227
-228
-228
-228
-228
-228
-228
-228
-229
-229
-228
-228
-228
-228
-227
-227
-226
-226
-226
-226
-225
-225
-225
-225
-225
-225
-225
-225
-225
-225
-225
-226
-226
-226
-227
-227
-227
-228
-228
-229
-229
-231
-231
-231
-231
-232
-232
-232
-232
-232
-231
-231
-231
-231
-230
-230
-230
-229
-229
-228
-228
-229
-228
-228
-227
-228
-227
-227
-227
-225
-226
-225
-225
-225
-226
-226
-226
-226
-227
-227
-228
-228
-229
-229
-229
-231
-231
-230
-230
-231
-231
-230
-230
-230
-230
-231
-230
-230
-230
-230
-229
-230
-230
-230
-229
-230
-230
-229
-229
-229
-228
-229
-229
-229
-228
-229
-229
-229
-229
-230
-231
-232
-232
-232
-232
-233
-232
-232
-233
-232
-232
-232
-231
-231
-231
-231
-231
-231
-230
-230
-230
-230
-230
-230
-230
-230
-230
-230
-230
-230
-230
-230
-230
-230
-230
-230
-231
-231
-231
-230
-231
-230
-230
-229
-230
-229
-229
-228
-228
-227
-226
-225
-225
-224
-223
-223
-223
-222
-222
-222
-223
-222
-222
-221
-221
-221
-221
-221
-221
-220
-219
-220
-219
-219
-218
-218
-217
-218
-218
-218
-218
-217
-217
-217
-216
-216
-216
-215
-215
-214
-213
-213
-212
-212
-212
-211
-211
-210
-210
-210
-211
-211
-211
-211
-211
-212
-212
-213
-213
-214
-214
-215
-216
-216
-217
-218
-219
-220
-221
-222
-223
-224
-225
-226
-227
-228
-228
-229
-229
-228
-229
-230
-229
-229
-229
-230
-230
-229
-230
-230
-230
-230
-230
-230
-230
-229
-229
-229
-229
-229
-229
-229
-229
-230
-230
-229
-231
-231
-231
-233
-233
-234
-234
-234
-235
-235
-235
-235
-235
-236
-236
-236
-236
-236
-235
-235
-235
-235
-235
-235
-236
-235
-235
-236
-236
-236
-236
-236
-236
-237
-236
-237
-237
-237
-236
-236
-236
-236
-236
-236
-237
-236
-236
-236
-237
-236
-236
-236
-236
-235
-236
-236
-235
-236
-236
-237
-237
-237
-237
-237
-238
-238
-239
-238
-238
-238
-238
-236
-236
-236
-234
-233
-232
-231
-229
-227
-226
-224
-221
-219
-217
-215
-212
-209
-206
-202
-199
-195
-192
-187
-183
-178
-173
-168
-162
-158
-152
-147
-141
-136
-131
-127
-122
-117
-113
-108
-104
-99
-97
-93
-90
-87
-86
-84
-85
-86
-88
-92
-96
-102
-110
-118
-127
-135
-147
-158
-170
-183
-197
-210
-225
-239
-253
-266
-280
-293
-304
-316
-325
-334
-341
-347
-353
-357
-359
-361
-360
-360
-359
-357
-353
-350
-346
-341
-336
-331
-325
-321
-315
-310
-304
-299
-294
-289
-284
-280
-275
-271
-267
-263
-259
-257
-253
-250
-247
-245
-243
-241
-240
-239
-238
-237
-235
-235
-234
-233
-231
-231
-231
-229
-230
-229
-228
-228
-227
-227
-227
-227
-227
-226
-226
-226
-226
-225
-226
-226
-226
-225
-225
-225
-225
-224
-224
-224
-223
-223
-223
-223
-223
-222
-222
-222
-222
-222
-222
-222
-222
-222
-222
-221
-222
-222
-222
-221
-221
-221
-221
-221
-221
-221
-222
-222
-222
-222
-222
-222
-221
-221
-222
-222
-221
-220
-220
-220
-219
-219
-219
-218
-218
-219
-218
-218
-217
-218
-217
-217
-217
-217
-216
-215
-216
-215
-215
-216
-216
-216
-216
-217
-217
-217
-218
-218
-218
-218
-218
-218
-218
-217
-216
-216
-215
-215
-215
-213
-213
-212
-211
-210
-210
-210
-210
-210
-210
-210
-209
-209
-209
-208
-208
-209
-208
-207
-208
-207
-208
-207
-207
-207
-208
-207
-208
-208
-208
-208
-208
-207
-207
-206
-206
-205
-204
-204
-203
-203
-202
-201
-200
-200
-200
-199
-199
-199
-198
-198
-198
-198
-197
-196
-195
-194
-193
-194
-193
-192
-192
-191
-190
-190
-190
-189
-189
-189
-189
-188
-188
-188
-187
-186
-186
-185
-185
-184
-183
-183
-183
-182
-180
-180
-180
-179
-179
-178
-177
-177
-176
-175
-175
-174
-173
-172
-171
-170
-169
-169
-168
-168
-167
-166
-167
-166
-165
-165
-165
-165
-165
-164
-163
-163
-163
-162
-162
-161
-161
-160
-159
-159
-159
-159
-159
-159
-160
-160
-160
-160
-161
-161
-161
-161
-161
-161
-161
-160
-160
-160
-160
-160
-160
-161
-160
-160
-160
-160
-159
-160
-160
-159
-159
-159
-159
-160
-160
-160
-160
-160
-161
-161
-162
-163
-163
-163
-164
-165
-166
-167
-168
-168
-169
-169
-171
-171
-172
-172
-172
-173
-173
-173
-174
-175
-176
-176
-177
-177
-178
-178
-179
-178
-179
-180
-181
-181
-181
-181
-182
-182
-182
-183
-184
-184
-185
-185
-186
-187
-187
-188
-189
-189
-189
-189
-189
-190
-191
-191
-191
-193
-193
-193
-193
-195
-195
-196
-196
-197
-198
-199
-199
-200
-200
-201
-201
-201
-201
-202
-202
-202
-201
-202
-202
-202
-203
-203
-204
-204
-204
-206
-206
-207
-207
-207
-208
-208
-208
-207
-207
-208
-208
-207
-207
-207
-208
-208
-207
-208
-207
-207
-207
-207
-206
-206
-206
-205
-205
-204
-204
-203
-204
-204
-204
-205
-205
-205
-205
-205
-206
-206
-205
-205
-205
-205
-205
-205
-205
-205
-205
-205
-205
-205
-205
-205
-205
-206
-206
-206
-206
-208
-207
-207
-207
-207
-207
-207
-207
-207
-207
-206
-206
-206
-205
-205
-205
-204
-204
-205
-204
-204
-204
-203
-203
-203
-203
-203
-202
-203
-202
-203
-203
-203
-203
-203
-204
-204
-204
-205
-204
-204
-203
-204
-203
-203
-202
-202
-202
-200
-200
-200
-199
-198
-199
-199
-199
-199
-198
-199
-199
-199
-199
-199
-199
-200
-200
-199
-199
-199
-199
-199
-198
-198
-198
-198
-199
-199
-199
-199
-199
-200
-200
-199
-199
-199
-199
-199
-198
-199
-199
-199
-199
-198
-198
-198
-198
-198
-198
-199
-198
-199
-199
-199
-199
-199
-199
-199
-199
-200
-200
-200
-201
-202
-202
-203
-204
-205
-205
-206
-206
-206
-207
-207
-207
-208
-208
-208
-207
-207
-206
-206
-206
-205
-205
-205
-205
-205
-205
-205
-206
-206
-206
-206
-206
-206
-206
-207
-206
-206
-207
-206
-207
-207
-207
-207
-207
-208
-208
-208
-209
-209
-210
-209
-210
-210
-210
-210
-211
-211
-211
-211
-211
-211
-211
-211
-212
-212
-212
-212
-212
-212
-212
-212
-212
-211
-211
-212
-211
-211
-211
-210
-211
-211
-211
-211
-212
-212
-212
-212
-213
-213
-213
-213
-213
-213
-213
-212
-213
-213
-212
-212
-213
-211
-212
-212
-211
-212
-212
-212
-212
-211
-211
-212
-212
-211
-211
-210
-211
-211
-210
-210
-211
-211
-211
-211
-212
-212
-211
-212
-212
-212
-213
-212
-212
-212
-212
-212
-212
-212
-212
-212
-212
-212
-212
-212
-212
-212
-213
-214
-214
-214
-214
-214
-215
-215
-215
-214
-215
-215
-214
-214
-214
-214
-214
-214
-213
-214
-214
-213
-214
-214
-213
-214
-213
-213
-213
-214
-214
-214
-214
-214
-215
-215
-215
-215
-216
-216
-216
-217
-217
-217
-217
-217
-217
-217
-216
-216
-215
-216
-215
-215
-215
-214
-213
-214
-214
-214
-214
-213
-213
-214
-213
-213
-213
-213
-213
-212
-213
-212
-212
-212
-212
-212
-212
-212
-213
-213
-214
-214
-214
-214
-214
-214
-214
-214
-214
-214
-213
-213
-213
-213
-212
-212
-212
-212
-212
-212
-212
-211
-212
-212
-212
-212
-212
-212
-211
-211
-211
-211
-211
-211
-211
-211
-212
-212
-212
-212
-212
-213
-213
-213
-213
-213
-213
-213
-212
-212
-211
-211
-211
-210
-210
-210
-209
-209
-209
-209
-209
-209
-209
-209
-209
-208
-208
-207
-207
-206
-206
-206
-205
-205
-204
-204
-203
-202
-202
-202
-201
-201
-201
-200
-200
-200
-199
-199
-199
-198
-197
-197
-196
-196
-195
-195
-195
-194
-194
-194
-194
-194
-194
-194
-195
-195
-194
-195
-194
-195
-194
-195
-196
-195
-196
-197
-197
-198
-199
-199
-200
-201
-201
-202
-203
-203
-204
-204
-204
-205
-205
-205
-205
-206
-206
-207
-207
-208
-208
-208
-208
-209
-210
-210
-211
-211
-212
-212
-212
-212
-212
-212
-211
-211
-211
-211
-211
-211
-211
-211
-211
-212
-211
-211
-211
-211
-211
-211
-211
-211
-211
-211
-210
-210
-210
-211
-211
-211
-211
-211
-212
-212
-213
-212
-212
-212
-212
-213
-213
-212
-212
-212
-212
-212
-212
-212
-213
-214
-214
-215
-214
-216
-216
-216
-216
-216
-217
-216
-216
-216
-215
-215
-215
-215
-215
-216
-216
-215
-215
-215
-216
-216
-215
-215
-216
-216
-215
-216
-214
-215
-215
-214
-214
-214
-213
-213
-213
-213
-212
-212
-211
-210
-208
-207
-206
-204
-203
-201
-197
-195
-192
-189
-185
-181
-177
-173
-169
-164
-159
-155
-150
-144
-138
-133
-128
-122
-118
-113
-107
-102
-98
-94
-91
-86
-82
-79
-77
-74
-72
-71
-71
-72
-73
-76
-80
-86
-91
-99
-107
-116
-126
-136
-148
-161
-173
-187
-201
-216
-231
-246
-260
-273
-286
-297
-308
-317
-325
-331
-337
-341
-343
-344
-345
-344
-342
-340
-337
-333
-328
-323
-319
-313
-307
-301
-295
-289
-282
-278
-271
-266
-260
-255
-251
-247
-243
-239
-236
-233
-230
-228
-225
-223
-221
-220
-219
-217
-216
-215
-213
-213
-212
-211
-210
-210
-209
-208
-208
-208
-207
-207
-206
-206
-206
-205
-204
-204
-204
-204
-204
-203
-203
-202
-201
-201
-201
-201
-201
-201
-201
-202
-201
-201
-202
-202
-203
-203
-203
-203
-204
-204
-204
-204
-204
-204
-204
-203
-204
-204
-204
-204
-203
-202
-202
-201
-202
-200
-200
-199
-199
-198
-197
-196
-196
-196
-195
-194
-194
-194
-194
-195
-194
-195
-195
-195
-195
-195
-195
-195
-194
-195
-194
-194
-194
-194
-193
-193
-194
-194
-193
-193
-194
-194
-193
-194
-194
-193
-193
-193
-193
-192
-191
-191
-191
-190
-191
-190
-189
-190
-190
-190
-190
-190
-190
-190
-191
-190
-190
-189
-188
-189
-188
-188
-188
-187
-186
-186
-186
-186
-186
-185
-185
-185
-185
-184
-184
-184
-184
-183
-183
-182
-182
-182
-181
-182
-181
-182
-182
-181
-181
-181
-182
-180
-180
-180
-180
-178
-179
-178
-178
-177
-176
-175
-175
-174
-173
-173
-172
-172
-173
-172
-172
-171
-171
-170
-170
-169
-168
-168
-167
-166
-165
-163
-163
-162
-161
-161
-160
-159
-159
-159
-159
-158
-158
-158
-157
-157
-156
-156
-155
-155
-154
-154
-152
-152
-151
-151
-149
-149
-148
-148
-147
-146
-145
-144
-143
-143
-142
-142
-141
-141
-140
-139
-139
-138
-138
-137
-137
-137
-137
-137
-137
-137
-138
-138
-138
-138
-138
-138
-138
-137
-138
-137
-137
-138
-137
-138
-138
-138
-138
-139
-138
-139
-138
-139
-139
-139
-138
-138
-138
-138
-138
-139
-138
-138
-138
-138
-139
-139
-140
-140
-140
-141
-141
-142
-142
-143
-143
-143
-143
-143
-144
-144
-145
-146
-147
-147
-148
-148
-149
-150
-151
-151
-152
-153
-153
-153
-154
-154
-154
-154
-154
-155
-155
-156
-156
-156
-157
-158
-158
-159
-159
-161
-161
-161
-162
-163
-163
-164
-165
-165
-165
-167
-167
-167
-168
-169
-169
-170
-171
-172
-173
-173
-175
-175
-176
-176
-176
-177
-177
-178
-178
-179
-180
-180
-180
-180
-181
-181
-182
-183
-184
-184
-185
-185
-186
-186
-186
-187
-187
-186
-186
-186
-187
-185
-185
-185
-186
-185
-185
-186
-185
-186
-186
-186
-186
-186
-186
-186
-187
-187
-187
-187
-188
-188
-189
-189
-190
-190
-191
-191
-192
-193
-193
-194
-194
-194
-193
-193
-193
-193
-193
-193
-193
-192
-192
-192
-192
-191
-191
-191
-190
-189
-189
-189
-189
-188
-188
-187
-187
-186
-186
-185
-185
-185
-184
-184
-184
-184
-183
-183
-184
-184
-184
-184
-184
-184
-184
-184
-185
-184
-184
-184
-184
-184
-184
-184
-184
-185
-185
-185
-185
-185
-185
-185
-185
-185
-185
-183
-183
-183
-182
-182
-181
-181
-181
-181
-180
-180
-180
-181
-180
-180
-181
-181
-181
-180
-180
-180
-181
-180
-181
-181
-181
-180
-181
-181
-181
-181
-181
-181
-181
-181
-181
-182
-182
-182
-183
-182
-182
-181
-182
-182
-182
-181
-181
-181
-181
-181
-181
-182
-182
-182
-182
-182
-182
-183
-183
-183
-182
-182
-182
-182
-182
-182
-182
-182
-182
-182
-183
-183
-183
-183
-184
-183
-183
-183
-184
-183
-184
-184
-184
-184
-185
-185
-185
-185
-186
-186
-187
-187
-188
-189
-189
-189
-189
-189
-190
-189
-189
-188
-189
-188
-188
-188
-188
-188
-188
-188
-187
-188
-187
-188
-188
-187
-186
-186
-186
-186
-186
-185
-185
-185
-185
-185
-185
-185
-185
-185
-185
-185
-186
-186
-187
-188
-188
-188
-189
-189
-188
-189
-189
-189
-189
-189
-190
-190
-190
-190
-191
-191
-192
-192
-192
-194
-194
-194
-194
-195
-195
-195
-195
-195
-195
-195
-194
-195
-195
-195
-194
-195
-194
-193
-193
-193
-192
-192
-191
-191
-191
-190
-189
-189
-189
-188
-188
-188
-189
-189
-188
-189
-189
-189
-189
-190
-190
-190
-190
-190
-191
-190
-191
-191
-191
-191
-191
-192
-192
-192
-194
-194
-193
-194
-194
-194
-193
-193
-193
-193
-193
-193
-193
-193
-193
-193
-192
-192
-193
-192
-192
-193
-193
-193
-192
-193
-193
-193
-193
-192
-192
-193
-192
-192
-192
-192
-192
-193
-193
-193
-193
-194
-194
-194
-194
-194
-194
-194
-194
-194
-194
-193
-193
-193
-193
-192
-192
-192
-193
-192
-193
-194
-193
-194
-194
-194
-194
-194
-195
-195
-195
-195
-196
-196
-196
-195
-195
-195
-195
-196
-195
-196
-196
-196
-196
-196
-195
-196
-196
-196
-195
-195
-194
-194
-193
-193
-192
-192
-192
-191
-191
-192
-192
-191
-191
-192
-192
-192
-192
-192
-191
-191
-191
-191
-190
-190
-191
-191
-191
-191
-191
-192
-192
-192
-192
-192
-192
-192
-192
-192
-193
-193
-192
-192
-193
-193
-193
-194
-194
-194
-194
-194
-195
-195
-194
-195
-195
-194
-194
-193
-193
-192
-192
-192
-191
-190
-190
-189
-189
-188
-188
-187
-187
-187
-186
-186
-185
-185
-185
-185
-184
-184
-184
-184
-184
-184
-184
-183
-184
-184
-184
-184
-184
-184
-184
-185
-185
-184
-184
-183
-183
-183
-182
-182
-181
-181
-181
-180
-180
-180
-179
-179
-178
-178
-178
-177
-178
-176
-176
-176
-174
-173
-173
-173
-172
-172
-171
-171
-171
-172
-173
-173
-174
-175
-175
-175
-177
-178
-178
-179
-180
-180
-181
-182
-182
-183
-184
-185
-186
-186
-187
-188
-188
-188
-188
-189
-190
-189
-190
-190
-190
-190
-189
-189
-189
-190
-190
-191
-191
-191
-191
-192
-192
-191
-191
-192
-192
-192
-193
-193
-193
-193
-192
-192
-193
-193
-194
-194
-194
-194
-195
-195
-195
-196
-196
-197
-197
-197
-197
-197
-197
-196
-196
-197
-196
-195
-196
-195
-195
-195
-195
-195
-195
-195
-195
-194
-195
-195
-194
-194
-194
-194
-193
-194
-194
-195
-194
-195
-195
-195
-196
-196
-196
-196
-197
-198
-198
-198
-198
-199
-198
-198
-198
-197
-197
-197
-197
-196
-196
-195
-194
-193
-193
-192
-191
-190
-188
-187
-185
-184
-182
-179
-177
-174
-172
-168
-166
-163
-159
-156
-152
-149
-146
-141
-137
-133
-129
-124
-120
-116
-111
-107
-102
-99
-96
-92
-88
-85
-82
-79
-77
-74
-73
-72
-70
-70
-70
-71
-73
-76
-81
-85
-92
-99
-107
-116
-127
-138
-150
-161
-174
-188
-202
-215
-230
-243
-256
-269
-280
-290
-299
-307
-314
-320
-324
-328
-329
-330
-330
-329
-327
-324
-321
-316
-311
-306
-300
-294
-287
-282
-276
-269
-263
-257
-252
-247
-242
-237
-233
-229
-225
-222
-219
-216
-213
-211
-210
-207
-205
-204
-202
-201
-199
-199
-198
-196
-196
-195
-195
-194
-193
-192
-193
-192
-192
-192
-191
-191
-191
-190
-189
-190
-189
-188
-188
-187
-187
-186
-186
-186
-186
-186
-186
-186
-185
-185
-184
-184
-184
-183
-183
-182
-182
-181
-181
-181
-180
-180
-180
-180
-180
-179
-180
-179
-179
-180
-180
-179
-180
-180
-180
-180
-180
-180
-181
-181
-181
-182
-182
-181
-183
-183
-183
-183
-183
-184
-184
-184
-183
-183
-183
-182
-181
-181
-180
-179
-179
-179
-179
-179
-178
-178
-178
-178
-178
-178
-177
-178
-178
-177
-177
-176
-177
-177
-176
-176
-175
-175
-176
-176
-176
-176
-176
-175
-175
-176
-175
-175
-174
-174
-173
-172
-172
-172
-171
-171
-169
-169
-168
-168
-168
-168
-168
-168
-168
-168
-168
-169
-168
-168
-169
-168
-168
-168
-169
-168
-167
-167
-167
-167
-167
-167
-167
-167
-166
-166
-165
-165
-164
-163
-162
-161
-161
-160
-160
-159
-158
-158
-158
-156
-156
-156
-156
-156
-156
-156
-155
-154
-155
-154
-154
-153
-153
-152
-151
-151
-151
-150
-149
-149
-148
-148
-147
-147
-146
-146
-145
-144
-144
-143
-143
-142
-141
-141
-140
-141
-140
-140
-139
-139
-140
-139
-139
-139
-138
-137
-137
-136
-135
-135
-134
-133
-132
-132
-131
-130
-130
-129
-128
-128
-127
-127
-128
-126
-126
-126
-126
-125
-125
-125
-124
-124
-124
-124
-124
-124
-123
-123
-124
-124
-124
-124
-124
-125
-125
-125
-125
-125
-125
-126
-126
-126
-126
-126
-127
-127
-127
-128
-129
-129
-130
-129
-130
-129
-130
-131
-131
-132
-132
-131
-131
-131
-131
-132
-132
-132
-132
-133
-133
-134
-134
-135
-135
-135
-136
-137
-138
-138
-138
-138
-138
-139
-139
-140
-141
-141
-141
-142
-144
-145
-146
-147
-148
-148
-149
-149
-150
-150
-151
-151
-153
-153
-154
-155
-155
-155
-156
-157
-157
-158
-159
-160
-161
-161
-162
-163
-164
-164
-164
-164
-165
-165
-166
-166
-166
-166
-166
-166
-167
-167
-168
-168
-168
-169
-168
-169
-169
-169
-170
-170
-170
-170
-169
-170
-169
-169
-169
-169
-170
-170
-170
-171
-171
-172
-172
-172
-172
-172
-172
-172
-172
-172
-172
-172
-172
-173
-173
-174
-174
-175
-175
-175
-176
-177
-177
-178
-178
-179
-179
-180
-180
-179
-180
-180
-180
-180
-179
-180
-180
-180
-180
-180
-180
-179
-179
-179
-179
-178
-178
-177
-176
-176
-175
-176
-175
-175
-174
-174
-174
-175
-175
-175
-176
-176
-176
-176
-176
-176
-176
-176
-176
-175
-175
-175
-175
-174
-174
-174
-174
-174
-174
-173
-174
-174
-174
-174
-174
-174
-174
-174
-174
-173
-173
-173
-173
-173
-173
-173
-173
-172
-172
-172
-173
-173
-173
-172
-172
-172
-172
-172
-171
-171
-171
-170
-170
-171
-171
-171
-171
-170
-171
-171
-171
-171
-171
-171
-171
-171
-171
-171
-171
-171
-171
-171
-171
-171
-171
-171
-171
-171
-171
-172
-172
-172
-173
-173
-173
-173
-173
-173
-174
-174
-173
-173
-173
-172
-173
-174
-174
-173
-174
-174
-174
-175
-175
-176
-175
-175
-175
-175
-175
-176
-176
-175
-175
-175
-175
-177
-177
-177
-177
-177
-177
-178
-178
-179
-179
-179
-179
-179
-179
-178
-178
-178
-179
-179
-179
-179
-180
-180
-179
-180
-180
-181
-181
-182
-181
-182
-182
-182
-182
-183
-182
-183
-183
-183
-183
-184
-184
-185
-184
-184
-185
-185
-184
-185
-185
-184
-184
-184
-184
-184
-184
-184
-183
-183
-183
-183
-183
-182
-182
-183
-183
-182
-183
-183
-183
-183
-183
-183
-183
-183
-183
-184
-183
-183
-184
-184
-184
-185
-185
-185
-186
-187
-187
-188
-188
-188
-188
-188
-188
-187
-187
-187
-187
-187
-187
-187
-187
-187
-187
-187
-187
-187
-187
-187
-187
-187
-187
-187
-187
-187
-187
-188
-188
-188
-188
-189
-188
-188
-189
-189
-190
-190
-190
-190
-190
-189
-189
-189
-188
-188
-187
-187
-187
-187
-187
-187
-187
-187
-187
-187
-187
-188
-188
-189
-189
-190
-189
-189
-189
-190
-190
-190
-190
-189
-189
-189
-190
-190
-189
-190
-190
-190
-189
-188
-189
-188
-188
-188
-188
-187
-187
-187
-187
-187
-186
-187
-187
-188
-188
-189
-189
-189
-188
-189
-189
-189
-188
-188
-188
-189
-188
-188
-188
-188
-187
-188
-188
-188
-188
-189
-188
-188
-188
-189
-189
-189
-189
-189
-188
-188
-189
-189
-188
-188
-188
-188
-188
-188
-189
-189
-190
-190
-190
-191
-191
-191
-191
-191
-191
-191
-191
-191
-191
-190
-191
-191
-191
-192
-192
-191
-192
-192
-191
-191
-191
-190
-190
-189
-189
-189
-188
-189
-189
-188
-188
-188
-188
-188
-189
-189
-188
-188
-189
-188
-188
-188
-189
-189
-188
-189
-188
-188
-188
-187
-187
-187
-186
-186
-186
-187
-187
-187
-187
-186
-186
-186
-186
-184
-184
-183
-183
-182
-181
-181
-180
-179
-179
-179
-178
-179
-178
-179
-178
-178
-178
-177
-178
-177
-177
-177
-176
-177
-176
-177
-176
-175
-175
-175
-175
-176
-176
-176
-175
-175
-174
-173
-173
-173
-171
-171
-171
-171
-170
-171
-171
-170
-170
-171
-172
-173
-173
-174
-175
-176
-177
-178
-178
-180
-181
-182
-182
-183
-184
-185
-187
-187
-188
-189
-189
-190
-191
-191
-192
-191
-192
-192
-191
-191
-191
-190
-190
-190
-189
-189
-189
-189
-189
-189
-189
-189
-190
-190
-190
-190
-191
-191
-191
-192
-192
-192
-192
-192
-192
-193
-193
-193
-193
-193
-193
-194
-194
-193
-194
-194
-194
-194
-194
-194
-194
-194
-194
-193
-193
-193
-193
-193
-193
-193
-193
-192
-192
-192
-194
-193
-193
-194
-194
-194
-194
-194
-195
-195
-195
-195
-196
-196
-196
-197
-198
-197
-197
-197
-198
-197
-197
-197
-197
-196
-195
-194
-194
-194
-193
-193
-192
-192
-192
-191
-190
-190
-190
-188
-187
-186
-184
-183
-181
-179
-177
-174
-173
-170
-167
-164
-161
-158
-154
-151
-147
-144
-141
-136
-132
-128
-124
-120
-116
-112
-108
-104
-101
-99
-96
-93
-91
-89
-87
-85
-83
-83
-83
-83
-85
-86
-90
-93
-98
-104
-110
-118
-126
-135
-145
-156
-165
-178
-191
-204
-217
-230
-243
-255
-267
-279
-289
-299
-307
-313
-319
-324
-327
-330
-331
-331
-330
-328
-326
-322
-317
-313
-307
-302
-296
-290
-284
-277
-271
-265
-259
-252
-247
-241
-237
-232
-228
-224
-220
-218
-214
-212
-210
-208
-206
-205
-204
-203
-201
-200
-199
-198
-197
-197
-195
-194
-194
-194
-193
-193
-192
-192
-191
-190
-190
-190
-189
-189
-188
-187
-187
-186
-185
-184
-184
-183
-183
-183
-183
-183
-183
-184
-184
-183
-183
-183
-184
-184
-183
-184
-183
-183
-183
-183
-183
-183
-183
-183
-184
-182
-183
-183
-183
-183
-182
-182
-182
-182
-182
-182
-181
-181
-180
-180
-179
-178
-178
-178
-178
-178
-177
-178
-178
-178
-177
-177
-176
-176
-176
-175
-176
-175
-175
-175
-175
-175
-174
-175
-175
-174
-174
-175
-175
-175
-175
-175
-175
-175
-175
-175
-175
-175
-175
-176
-175
-174
-175
-175
-175
-175
-176
-175
-175
-175
-174
-173
-173
-173
-173
-172
-172
-171
-171
-171
-170
-170
-170
-169
-169
-168
-169
-169
-169
-169
-169
-168
-168
-167
-167
-166
-165
-165
-165
-163
-164
-163
-163
-164
-164
-163
-163
-164
-163
-164
-164
-164
-164
-164
-163
-163
-163
-162
-161
-162
-160
-159
-159
-158
-157
-157
-156
-156
-155
-155
-154
-154
-152
-152
-151
-151
-150
-149
-148
-148
-147
-147
-147
-147
-146
-146
-147
-147
-147
-146
-146
-146
-146
-145
-144
-145
-144
-143
-142
-142
-141
-140
-139
-139
-138
-137
-136
-136
-135
-135
-133
-132
-132
-131
-131
-130
-129
-129
-128
-128
-128
-127
-126
-126
-126
-126
-126
-127
-127
-127
-127
-127
-127
-127
-127
-126
-127
-126
-126
-127
-126
-126
-126
-126
-126
-127
-127
-127
-127
-127
-127
-127
-127
-127
-126
-126
-125
-125
-125
-125
-125
-124
-124
-125
-125
-125
-126
-126
-126
-127
-127
-127
-127
-129
-129
-129
-130
-130
-130
-130
-131
-131
-132
-132
-133
-133
-134
-134
-135
-135
-136
-136
-137
-137
-137
-137
-138
-138
-138
-140
-140
-140
-140
-141
-142
-142
-142
-143
-144
-145
-145
-145
-146
-147
-148
-148
-148
-149
-150
-150
-152
-152
-154
-154
-155
-156
-157
-158
-158
-159
-160
-161
-161
-161
-162
-162
-162
-162
-162
-162
-161
-162
-163
-162
-163
-163
-164
-164
-164
-164
-164
-165
-165
-165
-165
-165
-165
-166
-166
-166
-167
-168
-168
-168
-169
-170
-170
-171
-171
-173
-173
-175
-175
-176
-176
-176
-176
-176
-176
-176
-176
-176
-176
-176
-175
-176
-176
-176
-176
-175
-175
-175
-174
-173
-173
-173
-174
-173
-173
-173
-174
-173
-174
-175
-175
-175
-175
-176
-176
-177
-177
-177
-178
-178
-178
-177
-177
-176
-176
-176
-176
-175
-175
-175
-175
-175
-176
-176
-176
-176
-176
-176
-176
-176
-176
-176
-176
-175
-175
-175
-175
-175
-174
-174
-173
-173
-173
-172
-172
-172
-172
-172
-172
-172
-171
-171
-170
-170
-170
-170
-170
-170
-170
-171
-170
-171
-172
-172
-172
-172
-172
-172
-172
-172
-172
-172
-172
-171
-171
-171
-170
-170
-170
-170
-170
-169
-170
-169
-169
-169
-169
-168
-168
-168
-168
-168
-168
-169
-169
-169
-169
-169
-169
-169
-169
-170
-170
-171
-171
-171
-171
-171
-171
-171
-171
-171
-171
-171
-171
-171
-172
-172
-173
-173
-173
-173
-174
-175
-175
-175
-176
-177
-177
-177
-177
-177
-177
-176
-176
-175
-175
-175
-175
-176
-176
-176
-176
-176
-177
-177
-177
-177
-179
-179
-179
-180
-179
-180
-180
-180
-180
-180
-180
-180
-180
-180
-181
-180
-180
-180
-179
-180
-179
-179
-178
-178
-178
-177
-177
-177
-177
-177
-177
-178
-178
-179
-179
-180
-181
-181
-182
-183
-183
-183
-184
-183
-184
-183
-183
-183
-184
-182
-184
-183
-183
-183
-183
-182
-182
-181
-182
-181
-181
-182
-181
-181
-180
-181
-181
-181
-181
-181
-181
-181
-183
-183
-183
-184
-184
-185
-185
-185
-185
-185
-186
-185
-185
-185
-185
-185
-186
-186
-186
-186
-186
-186
-186
-187
-187
-186
-187
-186
-186
-186
-185
-185
-185
-185
-185
-184
-185
-184
-184
-184
-184
-185
-186
-186
-186
-187
-187
-187
-187
-187
-188
-188
-188
-188
-188
-188
-187
-187
-187
-187
-188
-188
-188
-188
-188
-188
-187
-188
-188
-188
-187
-187
-187
-187
-187
-187
-187
-187
-188
-188
-188
-188
-190
-190
-190
-191
-192
-191
-192
-192
-191
-191
-190
-190
-190
-189
-189
-189
-188
-187
-187
-187
-186
-186
-185
-185
-185
-185
-185
-185
-185
-185
-185
-185
-185
-186
-186
-186
-186
-187
-187
-188
-188
-187
-188
-188
-189
-188
-188
-188
-188
-188
-188
-187
-187
-187
-187
-188
-188
-188
-188
-188
-189
-189
-190
-190
-190
-190
-190
-191
-191
-191
-191
-191
-192
-192
-191
-191
-192
-192
-192
-192
-193
-192
-192
-192
-192
-192
-192
-192
-191
-191
-190
-190
-189
-189
-188
-187
-187
-187
-186
-186
-186
-186
-185
-185
-185
-184
-184
-183
-183
-182
-182
-181
-181
-181
-180
-180
-180
-179
-179
-179
-179
-179
-179
-179
-179
-179
-179
-178
-178
-178
-177
-177
-177
-177
-176
-175
-176
-176
-176
-176
-176
-176
-176
-174
-174
-175
-173
-173
-173
-171
-172
-171
-170
-171
-170
-170
-170
-170
-170
-170
-171
-172
-172
-173
-174
-174
-175
-175
-176
-176
-177
-178
-178
-179
-179
-179
-180
-181
-180
-181
-182
-182
-182
-183
-183
-183
-183
-184
-184
-184
-184
-185
-185
-185
-186
-185
-187
-187
-187
-187
-188
-189
-189
-190
-190
-190
-190
-190
-190
-190
-191
-191
-191
-191
-191
-192
-193
-193
-193
-194
-195
-195
-195
-195
-195
-195
-195
-196
-196
-195
-195
-195
-194
-194
-193
-192
-192
-192
-192
-192
-192
-191
-192
-192
-192
-192
-192
-192
-192
-192
-192
-193
-193
-194
-193
-194
-194
-195
-195
-196
-197
-196
-197
-197
-197
-197
-197
-197
-197
-195
-196
-195
-195
-195
-195
-193
-193
-193
-194
-194
-193
-194
-194
-194
-193
-193
-192
-192
-192
-191
-190
-188
-188
-186
-185
-182
-181
-179
-176
-174
-171
-169
-165
-162
-158
-155
-150
-146
-142
-136
-132
-127
-122
-118
-112
-108
-104
-99
-95
-91
-88
-84
-80
-78
-75
-72
-71
-69
-67
-68
-68
-70
-73
-76
-81
-87
-94
-101
-110
-120
-130
-141
-153
-164
-177
-190
-203
-215
-228
-240
-252
-263
-273
-283
-291
-299
-305
-310
-314
-317
-319
-320
-320
-318
-317
-314
-311
-308
-303
-298
-293
-288
-282
-277
-272
-266
-262
-257
-253
-248
-244
-239
-236
-232
-230
-226
-223
-221
-219
-217
-215
-213
-212
-210
-208
-207
-205
-203
-203
-202
-201
-200
-199
-198
-198
-196
-195
-194
-194
-193
-192
-190
-190
-189
-190
-189
-188
-188
-188
-188
-188
-188
-188
-187
-187
-188
-188
-187
-187
-187
-187
-187
-187
-187
-187
-187
-187
-187
-187
-188
-188
-189
-189
-190
-190
-190
-190
-191
-191
-192
-191
-191
-191
-191
-190
-191
-191
-190
-190
-190
-189
-190
-189
-189
-188
-187
-187
-186
-186
-185
-184
-183
-183
-182
-181
-182
-181
-181
-181
-181
-181
-181
-181
-181
-181
-181
-180
-180
-181
-180
-181
-181
-180
-181
-180
-181
-181
-181
-183
-183
-183
-184
-184
-184
-184
-185
-184
-184
-185
-184
-184
-183
-183
-183
-182
-182
-181
-180
-179
-180
-179
-178
-178
-178
-177
-177
-176
-176
-175
-175
-174
-174
-174
-174
-173
-174
-174
-175
-174
-174
-175
-175
-175
-175
-174
-174
-173
-173
-172
-171
-170
-170
-169
-168
-167
-167
-166
-165
-165
-165
-164
-163
-163
-164
-164
-162
-163
-163
-162
-163
-162
-162
-162
-161
-161
-160
-160
-159
-159
-159
-159
-158
-158
-157
-156
-156
-155
-155
-154
-153
-153
-152
-152
-151
-151
-150
-150
-149
-149
-149
-149
-147
-147
-147
-146
-145
-144
-144
-143
-141
-141
-140
-139
-138
-137
-137
-137
-137
-136
-136
-137
-137
-136
-136
-137
-137
-136
-136
-137
-135
-136
-135
-135
-135
-134
-134
-134
-133
-133
-134
-133
-133
-133
-133
-133
-133
-133
-133
-133
-133
-133
-133
-134
-134
-135
-135
-136
-137
-137
-137
-138
-139
-139
-139
-141
-141
-141
-141
-142
-142
-142
-141
-142
-142
-142
-142
-142
-142
-142
-142
-143
-143
-143
-144
-145
-145
-145
-144
-145
-145
-145
-145
-146
-146
-146
-147
-147
-148
-149
-149
-150
-151
-151
-153
-154
-155
-155
-156
-156
-157
-157
-157
-157
-158
-158
-158
-159
-160
-160
-160
-161
-161
-162
-163
-163
-164
-164
-165
-166
-166
-167
-168
-168
-169
-169
-171
-171
-173
-173
-174
-175
-175
-176
-176
-177
-179
-179
-179
-180
-180
-180
-181
-180
-181
-181
-181
-182
-181
-183
-182
-183
-184
-183
-184
-184
-185
-185
-184
-184
-184
-184
-184
-184
-184
-184
-183
-184
-183
-183
-183
-183
-183
-183
-183
-183
-183
-183
-183
-183
-183
-183
-183
-183
-184
-183
-184
-184
-184
-185
-186
-186
-185
-186
-187
-186
-186
-186
-186
-186
-185
-185
-184
-184
-184
-183
-183
-182
-183
-183
-183
-184
-184
-184
-184
-183
-184
-184
-184
-185
-184
-184
-185
-185
-184
-184
-184
-184
-184
-184
-184
-185
-185
-184
-184
-184
-184
-183
-183
-183
-181
-181
-181
-181
-180
-180
-180
-180
-180
-180
-180
-180
-181
-181
-182
-182
-182
-183
-183
-183
-183
-183
-184
-184
-183
-184
-184
-184
-184
-184
-185
-184
-185
-185
-184
-185
-185
-184
-185
-184
-184
-184
-184
-183
-183
-183
-184
-183
-184
-183
-184
-184
-185
-185
-185
-186
-187
-186
-186
-186
-186
-186
-185
-185
-185
-185
-185
-185
-185
-185
-184
-185
-185
-185
-185
-185
-186
-186
-187
-187
-187
-188
-187
-188
-188
-189
-189
-189
-189
-190
-190
-190
-191
-191
-191
-191
-191
-191
-191
-191
-191
-190
-190
-189
-190
-190
-190
-190
-191
-190
-191
-191
-192
-192
-193
-193
-193
-195
-195
-195
-195
-196
-195
-196
-196
-196
-196
-197
-197
-197
-198
-198
-198
-198
-198
-199
-199
-199
-199
-199
-199
-198
-198
-198
-198
-199
-199
-199
-199
-199
-200
-200
-200
-201
-201
-201
-201
-202
-201
-201
-201
-201
-201
-201
-201
-201
-201
-200
-200
-200
-200
-200
-200
-200
-200
-200
-199
-199
-199
-198
-198
-198
-198
-198
-198
-198
-198
-198
-198
-198
-199
-198
-199
-199
-199
-200
-200
-201
-200
-201
-200
-200
-200
-200
-200
-199
-199
-201
-201
-201
-202
-202
-202
-203
-203
-203
-204
-204
-204
-205
-205
-204
-204
-205
-205
-204
-204
-204
-204
-203
-203
-204
-203
-203
-204
-203
-202
-202
-202
-202
-202
-200
-201
-201
-201
-201
-202
-203
-203
-204
-204
-205
-205
-205
-206
-206
-207
-207
-207
-207
-205
-205
-205
-205
-204
-204
-204
-204
-204
-204
-204
-205
-205
-205
-205
-206
-206
-206
-206
-206
-206
-207
-206
-206
-207
-207
-206
-207
-207
-206
-206
-206
-206
-207
-206
-206
-206
-206
-206
-205
-205
-205
-205
-205
-204
-205
-205
-205
-205
-206
-206
-206
-207
-207
-207
-207
-207
-208
-208
-208
-209
-208
-208
-208
-208
-206
-206
-206
-206
-206
-205
-205
-204
-204
-204
-203
-203
-202
-202
-201
-201
-200
-199
-200
-199
-199
-199
-199
-199
-200
-200
-200
-201
-201
-201
-201
-201
-201
-200
-200
-199
-199
-198
-197
-196
-195
-195
-195
-194
-194
-193
-193
-193
-193
-193
-193
-192
-192
-191
-191
-191
-191
-191
-189
-189
-189
-188
-189
-188
-188
-188
-188
-188
-188
-187
-188
-188
-188
-189
-189
-189
-190
-190
-191
-192
-193
-193
-195
-195
-196
-197
-198
-199
-200
-201
-202
-202
-203
-203
-203
-204
-204
-204
-204
-204
-205
-206
-206
-207
-206
-206
-207
-207
-207
-208
-208
-208
-208
-208
-208
-209
-208
-209
-209
-209
-208
-208
-209
-209
-209
-210
-211
-211
-211
-212
-211
-211
-211
-211
-212
-211
-212
-212
-211
-211
-212
-212
-212
-212
-212
-212
-213
-212
-212
-212
-212
-212
-212
-212
-213
-212
-212
-211
-212
-212
-211
-211
-211
-212
-212
-211
-211
-211
-211
-210
-210
-210
-210
-209
-209
-209
-208
-207
-207
-206
-207
-207
-206
-206
-206
-206
-207
-207
-207
-206
-207
-205
-205
-203
-203
-201
-199
-197
-195
-193
-190
-188
-185
-182
-179
-175
-172
-167
-163
-159
-154
-148
-142
-136
-131
-125
-119
-114
-108
-103
-97
-93
-88
-83
-80
-76
-72
-69
-66
-64
-63
-63
-63
-64
-67
-71
-76
-81
-88
-96
-105
-114
-126
-137
-148
-162
-175
-189
-204
-217
-231
-246
-259
-270
-283
-293
-302
-311
-318
-324
-329
-333
-336
-337
-338
-337
-337
-335
-332
-327
-323
-318
-313
-307
-301
-295
-289
-283
-277
-271
-266
-260
-256
-251
-247
-243
-239
-237
-233
-232
-229
-227
-225
-223
-222
-220
-219
-218
-216
-216
-215
-214
-213
-213
-212
-212
-211
-211
-211
-210
-209
-209
-209
-207
-207
-208
-207
-207
-207
-206
-206
-206
-207
-207
-207
-207
-207
-208
-208
-208
-207
-207
-207
-207
-207
-206
-206
-206
-206
-206
-205
-205
-204
-204
-204
-205
-204
-204
-204
-203
-204
-204
-204
-203
-202
-202
-202
-201
-200
-200
-199
-199
-199
-198
-198
-198
-198
-198
-198
-198
-197
-197
-198
-198
-198
-198
-199
-199
-199
-199
-199
-200
-200
-201
-201
-201
-201
-201
-201
-201
-201
-200
-200
-200
-199
-199
-197
-197
-197
-196
-195
-195
-194
-194
-193
-193
-193
-193
-193
-193
-192
-193
-193
-192
-192
-191
-191
-191
-191
-190
-190
-190
-190
-190
-189
-190
-189
-189
-189
-188
-188
-188
-187
-187
-187
-186
-185
-186
-186
-185
-185
-185
-185
-185
-185
-185
-185
-185
-185
-184
-184
-184
-183
-182
-181
-181
-181
-180
-179
-179
-178
-177
-177
-176
-176
-175
-175
-175
-174
-174
-174
-172
-173
-172
-171
-171
-170
-169
-170
-169
-168
-167
-167
-167
-166
-166
-165
-164
-164
-164
-162
-162
-161
-160
-159
-159
-157
-157
-156
-155
-154
-154
-153
-153
-152
-152
-152
-152
-151
-151
-150
-150
-149
-149
-148
-147
-146
-146
-145
-144
-144
-143
-143
-143
-143
-143
-143
-143
-142
-142
-142
-141
-141
-141
-140
-141
-140
-140
-140
-139
-140
-140
-140
-139
-139
-139
-139
-140
-140
-139
-140
-140
-140
-140
-140
-140
-140
-141
-141
-141
-141
-141
-142
-143
-143
-144
-143
-144
-144
-145
-145
-146
-146
-146
-146
-147
-147
-148
-148
-147
-149
-149
-150
-150
-151
-152
-153
-154
-155
-155
-156
-156
-157
-157
-158
-158
-158
-158
-158
-159
-159
-159
-160
-160
-161
-161
-162
-161
-163
-163
-164
-164
-165
-165
-166
-166
-166
-166
-167
-167
-169
-169
-169
-170
-172
-173
-174
-175
-175
-176
-177
-178
-179
-179
-180
-180
-181
-181
-183
-183
-184
-185
-185
-187
-187
-188
-189
-189
-190
-190
-190
-191
-191
-192
-192
-192
-191
-191
-192
-192
-192
-193
-193
-193
-193
-193
-193
-193
-194
-193
-194
-194
-193
-193
-193
-193
-192
-192
-191
-191
-190
-191
-190
-190
-190
-191
-192
-192
-192
-192
-193
-193
-193
-193
-194
-194
-193
-194
-194
-194
-195
-195
-195
-195
-195
-195
-195
-195
-195
-195
-195
-196
-195
-194
-194
-195
-194
-194
-194
-193
-193
-194
-194
-194
-194
-194
-194
-194
-195
-195
-194
-194
-194
-194
-194
-194
-194
-193
-193
-194
-193
-193
-194
-194
-194
-194
-194
-194
-194
-194
-194
-194
-194
-194
-194
-194
-193
-193
-193
-193
-192
-192
-191
-191
-190
-191
-190
-190
-190
-190
-190
-190
-190
-190
-189
-189
-189
-189
-189
-188
-189
-189
-189
-189
-189
-189
-190
-189
-189
-189
-189
-189
-189
-189
-188
-187
-187
-187
-187
-187
-186
-186
-186
-187
-187
-187
-188
-188
-188
-188
-188
-188
-189
-189
-189
-189
-189
-189
-189
-190
-189
-189
-190
-191
-191
-191
-191
-192
-193
-193
-193
-194
-194
-194
-195
-194
-194
-195
-195
-195
-195
-196
-196
-196
-196
-197
-197
-198
-198
-198
-199
-199
-199
-199
-199
-199
-198
-198
-198
-198
-199
-198
-198
-198
-198
-198
-198
-198
-198
-198
-198
-197
-197
-197
-197
-197
-196
-197
-197
-197
-197
-197
-197
-197
-197
-198
-198
-199
-199
-199
-200
-200
-199
-199
-200
-200
-200
-200
-200
-201
-200
-200
-200
-201
-202
-202
-201
-201
-202
-202
-202
-202
-202
-202
-202
-201
-201
-201
-200
-200
-200
-200
-199
-199
-199
-199
-199
-199
-199
-199
-199
-199
-199
-199
-200
-199
-200
-199
-199
-200
-200
-200
-201
-201
-202
-202
-202
-203
-203
-204
-204
-204
-205
-205
-204
-205
-204
-204
-204
-204
-204
-204
-203
-203
-203
-202
-203
-202
-202
-202
-201
-201
-201
-200
-201
-200
-200
-200
-200
-199
-199
-200
-200
-200
-200
-201
-201
-202
-202
-202
-203
-203
-203
-202
-202
-203
-202
-202
-201
-202
-201
-201
-201
-201
-201
-202
-201
-202
-202
-202
-201
-201
-202
-201
-201
-200
-200
-200
-201
-201
-201
-201
-201
-201
-202
-202
-203
-204
-204
-204
-206
-206
-206
-206
-206
-205
-205
-205
-204
-204
-203
-203
-203
-202
-203
-202
-201
-202
-201
-201
-201
-201
-201
-200
-200
-200
-200
-200
-200
-200
-200
-200
-200
-201
-201
-201
-202
-202
-202
-202
-203
-203
-203
-202
-202
-203
-202
-202
-202
-202
-203
-203
-203
-203
-203
-203
-204
-204
-204
-204
-204
-204
-204
-203
-203
-203
-203
-202
-202
-202
-201
-201
-201
-202
-201
-201
-201
-201
-201
-200
-201
-200
-200
-199
-199
-199
-198
-198
-198
-197
-197
-198
-197
-197
-197
-198
-198
-199
-199
-199
-199
-198
-198
-198
-197
-198
-197
-196
-196
-194
-194
-193
-192
-192
-191
-191
-190
-190
-189
-189
-188
-188
-187
-187
-187
-186
-185
-185
-184
-184
-183
-183
-184
-184
-184
-184
-185
-185
-184
-185
-185
-186
-186
-187
-187
-187
-188
-188
-189
-189
-190
-190
-191
-192
-193
-193
-194
-194
-195
-195
-196
-196
-196
-197
-196
-196
-196
-196
-196
-196
-196
-197
-197
-197
-198
-199
-198
-199
-199
-199
-200
-200
-200
-201
-201
-200
-201
-201
-201
-201
-201
-201
-201
-201
-202
-202
-203
-203
-203
-203
-204
-203
-203
-204
-204
-205
-204
-205
-206
-205
-205
-206
-206
-206
-208
-208
-209
-209
-209
-210
-210
-209
-210
-209
-209
-209
-209
-209
-209
-208
-208
-207
-207
-207
-207
-208
-207
-207
-207
-207
-206
-206
-206
-206
-205
-205
-204
-204
-204
-203
-203
-203
-203
-203
-202
-202
-202
-202
-202
-201
-201
-200
-200
-200
-198
-198
-197
-195
-194
-192
-191
-189
-187
-185
-183
-180
-177
-174
-170
-167
-163
-159
-153
-149
-143
-138
-131
-126
-120
-115
-110
-104
-99
-94
-89
-85
-81
-77
-74
-70
-67
-64
-62
-60
-59
-59
-60
-62
-64
-68
-74
-81
-88
-97
-107
-117
-130
-142
-154
-167
-181
-196
-211
-225
-239
-252
-265
-278
-290
-301
-309
-318
-324
-330
-335
-337
-339
-340
-339
-338
-335
-332
-328
-323
-317
-311
-305
-299
-292
-286
-279
-274
-268
-263
-257
-252
-247
-243
-238
-234
-231
-227
-225
-222
-220
-217
-216
-213
-212
-211
-209
-208
-208
-208
-207
-207
-207
-207
-206
-205
-205
-205
-204
-203
-203
-202
-202
-200
-200
-200
-199
-199
-198
-198
-197
-197
-196
-196
-196
-196
-196
-196
-196
-195
-195
-196
-195
-195
-195
-195
-194
-195
-195
-195
-195
-196
-195
-195
-195
-195
-195
-195
-195
-195
-195
-195
-195
-195
-195
-195
-195
-195
-195
-195
-195
-195
-195
-195
-195
-194
-194
-193
-193
-193
-192
-192
-191
-190
-190
-189
-189
-189
-189
-190
-190
-190
-191
-191
-191
-192
-192
-192
-192
-192
-191
-191
-190
-189
-189
-189
-187
-187
-186
-185
-185
-184
-184
-183
-182
-181
-181
-180
-180
-180
-180
-180
-180
-180
-180
-180
-180
-181
-181
-181
-181
-182
-183
-183
-183
-183
-184
-184
-184
-183
-183
-183
-182
-182
-182
-182
-181
-181
-181
-180
-180
-180
-180
-179
-179
-179
-179
-179
-178
-177
-177
-177
-176
-176
-175
-175
-174
-174
-174
-174
-173
-172
-172
-171
-171
-171
-170
-170
-169
-168
-167
-167
-167
-165
-165
-164
-164
-164
-162
-163
-162
-162
-162
-162
-161
-161
-161
-161
-161
-160
-160
-159
-159
-159
-158
-159
-158
-157
-157
-156
-155
-155
-154
-154
-154
-152
-152
-151
-150
-150
-148
-147
-146
-146
-145
-145
-145
-144
-145
-145
-145
-145
-145
-145
-146
-146
-145
-145
-144
-144
-144
-143
-142
-141
-141
-140
-139
-139
-138
-138
-137
-137
-136
-136
-136
-136
-137
-136
-136
-136
-136
-136
-136
-136
-137
-136
-137
-137
-139
-139
-139
-141
-142
-142
-142
-143
-143
-143
-144
-144
-144
-144
-144
-144
-143
-144
-144
-145
-144
-145
-146
-146
-147
-147
-148
-149
-149
-150
-150
-152
-152
-153
-154
-154
-155
-155
-156
-156
-157
-157
-158
-158
-158
-159
-160
-160
-161
-161
-162
-161
-162
-162
-163
-163
-163
-164
-164
-165
-166
-167
-167
-168
-169
-170
-171
-171
-171
-172
-172
-173
-173
-173
-173
-173
-174
-174
-175
-176
-176
-177
-178
-177
-178
-179
-180
-181
-181
-181
-183
-183
-183
-184
-184
-184
-184
-185
-186
-186
-186
-187
-187
-188
-188
-189
-189
-189
-188
-189
-188
-188
-188
-188
-189
-188
-188
-188
-188
-188
-188
-188
-188
-189
-189
-188
-189
-189
-190
-190
-190
-190
-190
-189
-190
-190
-190
-190
-190
-191
-191
-191
-191
-192
-192
-192
-192
-192
-192
-192
-192
-193
-193
-192
-192
-192
-192
-191
-191
-191
-191
-190
-191
-191
-191
-191
-191
-190
-190
-189
-189
-189
-189
-188
-189
-189
-188
-188
-188
-187
-187
-187
-187
-188
-187
-187
-187
-187
-188
-188
-188
-187
-187
-187
-186
-186
-187
-187
-186
-186
-187
-187
-187
-187
-188
-188
-188
-187
-188
-188
-187
-187
-187
-188
-187
-187
-186
-186
-185
-186
-186
-185
-185
-186
-186
-185
-186
-185
-186
-186
-186
-185
-185
-185
-185
-185
-185
-184
-184
-184
-185
-185
-184
-185
-184
-184
-184
-184
-184
-185
-184
-184
-184
-183
-183
-183
-183
-183
-183
-183
-184
-184
-184
-185
-186
-186
-186
-187
-187
-187
-188
-188
-188
-189
-189
-189
-190
-189
-190
-191
-191
-191
-192
-192
-193
-193
-193
-193
-193
-193
-192
-193
-192
-192
-192
-191
-191
-190
-190
-190
-190
-190
-190
-191
-191
-191
-191
-192
-193
-194
-194
-195
-195
-196
-196
-197
-198
-197
-198
-199
-199
-199
-200
-200
-201
-200
-201
-202
-201
-201
-200
-201
-201
-200
-199
-199
-199
-199
-199
-198
-199
-198
-198
-199
-198
-199
-199
-199
-199
-199
-198
-198
-199
-199
-199
-199
-199
-199
-199
-199
-199
-200
-200
-200
-201
-201
-201
-201
-201
-201
-201
-201
-201
-201
-201
-201
-201
-200
-200
-201
-201
-201
-201
-201
-201
-201
-202
-201
-201
-200
-200
-200
-199
-198
-198
-198
-198
-197
-197
-197
-197
-197
-197
-197
-198
-198
-198
-199
-199
-199
-199
-199
-199
-199
-199
-200
-200
-199
-199
-199
-200
-200
-200
-200
-201
-201
-201
-201
-201
-201
-200
-200
-201
-201
-200
-200
-200
-201
-200
-200
-202
-202
-202
-201
-202
-203
-203
-204
-204
-204
-204
-204
-204
-204
-204
-204
-203
-204
-204
-204
-203
-203
-203
-203
-203
-203
-204
-203
-203
-203
-203
-202
-202
-201
-201
-201
-201
-200
-200
-200
-200
-200
-200
-200
-201
-200
-200
-200
-200
-200
-200
-200
-200
-199
-200
-200
-200
-200
-200
-200
-200
-201
-200
-200
-201
-201
-201
-200
-200
-200
-200
-200
-200
-199
-199
-199
-199
-200
-199
-200
-199
-199
-199
-200
-200
-201
-201
-200
-201
-201
-201
-201
-202
-201
-201
-200
-201
-201
-201
-201
-201
-201
-201
-202
-201
-201
-201
-201
-202
-201
-201
-201
-201
-200
-200
-200
-200
-200
-199
-199
-200
-199
-199
-199
-200
-200
-200
-200
-200
-200
-200
-200
-200
-199
-199
-199
-198
-198
-198
-198
-198
-198
-197
-197
-197
-197
-197
-197
-196
-196
-195
-195
-196
-195
-195
-194
-194
-193
-194
-193
-193
-193
-193
-193
-193
-193
-193
-193
-193
-193
-192
-192
-191
-192
-191
-191
-191
-189
-190
-189
-189
-188
-187
-188
-187
-187
-186
-186
-185
-184
-184
-184
-183
-183
-183
-183
-182
-183
-183
-183
-183
-184
-185
-185
-186
-187
-188
-188
-190
-190
-191
-192
-193
-193
-193
-195
-196
-196
-197
-197
-198
-199
-200
-200
-201
-201
-202
-201
-202
-202
-201
-201
-201
-200
-200
-200
-200
-200
-200
-200
-200
-200
-200
-200
-201
-201
-200
-201
-201
-201
-201
-201
-201
-201
-202
-202
-202
-202
-203
-203
-203
-204
-204
-205
-205
-205
-206
-206
-206
-206
-206
-206
-206
-206
-205
-205
-205
-205
-205
-205
-206
-206
-206
-206
-207
-207
-206
-206
-206
-206
-206
-207
-207
-206
-206
-205
-205
-206
-205
-205
-205
-206
-206
-206
-206
-206
-206
-207
-208
-208
-208
-209
-208
-208
-208
-208
-208
-206
-206
-205
-205
-203
-203
-200
-198
-196
-194
-191
-189
-185
-182
-179
-176
-171
-167
-163
-160
-154
-149
-146
-141
-136
-132
-127
-122
-118
-114
-109
-105
-102
-98
-94
-93
-90
-87
-85
-84
-82
-81
-81
-82
-83
-86
-89
-94
-98
-105
-112
-120
-129
-138
-147
-158
-170
-182
-194
-209
-221
-235
-248
-261
-273
-284
-295
-305
-314
-321
-327
-333
-335
-338
-340
-339
-338
-336
-333
-330
-325
-321
-316
-310
-305
-300
-294
-287
-282
-276
-271
-265
-260
-255
-250
-246
-242
-237
-234
-231
-227
-225
-223
-221
-220
-219
-217
-217
-216
-215
-214
-213
-212
-211
-210
-209
-208
-206
-206
-205
-203
-202
-201
-201
-200
-199
-198
-197
-197
-197
-196
-196
-196
-196
-195
-196
-195
-195
-196
-196
-196
-196
-196
-196
-196
-196
-195
-196
-196
-196
-195
-195
-195
-195
-194
-194
-194
-193
-193
-193
-192
-193
-192
-192
-192
-193
-193
-193
-193
-193
-193
-193
-193
-193
-192
-192
-191
-191
-191
-191
-190
-190
-189
-189
-190
-190
-189
-190
-189
-189
-189
-189
-189
-188
-189
-189
-189
-189
-190
-189
-189
-189
-189
-189
-189
-190
-190
-189
-190
-190
-189
-189
-189
-188
-188
-188
-187
-187
-186
-186
-185
-185
-184
-184
-184
-184
-184
-184
-184
-184
-184
-183
-183
-183
-182
-182
-181
-181
-180
-180
-179
-179
-179
-179
-179
-178
-178
-177
-177
-177
-177
-177
-176
-177
-176
-176
-175
-175
-175
-175
-175
-174
-174
-175
-175
-174
-175
-175
-175
-175
-175
-174
-174
-173
-173
-172
-171
-171
-170
-170
-169
-168
-168
-167
-167
-166
-165
-165
-165
-164
-164
-162
-162
-162
-162
-161
-160
-159
-159
-158
-157
-158
-156
-157
-156
-156
-156
-156
-155
-154
-154
-153
-153
-151
-151
-150
-150
-149
-149
-148
-147
-146
-146
-146
-144
-144
-144
-144
-143
-142
-142
-142
-142
-140
-140
-139
-138
-138
-137
-137
-136
-137
-136
-136
-137
-137
-138
-138
-138
-138
-139
-139
-139
-140
-140
-140
-140
-140
-140
-140
-140
-139
-139
-138
-138
-139
-138
-139
-138
-138
-138
-138
-138
-138
-138
-138
-137
-138
-138
-139
-139
-140
-141
-141
-142
-143
-144
-145
-145
-146
-147
-148
-148
-148
-148
-148
-148
-148
-149
-149
-149
-149
-148
-149
-148
-150
-150
-150
-151
-152
-152
-152
-152
-153
-153
-154
-154
-154
-154
-155
-155
-155
-157
-157
-159
-159
-160
-160
-162
-163
-164
-164
-165
-165
-166
-167
-168
-168
-168
-169
-170
-170
-171
-171
-172
-172
-173
-173
-173
-174
-175
-174
-174
-175
-175
-175
-174
-174
-174
-174
-174
-175
-176
-176
-176
-178
-178
-179
-179
-179
-181
-181
-181
-181
-181
-182
-183
-183
-183
-184
-185
-185
-185
-185
-187
-187
-188
-188
-188
-189
-189
-188
-189
-189
-189
-189
-189
-189
-189
-188
-188
-188
-187
-187
-187
-187
-186
-187
-186
-186
-185
-185
-185
-185
-184
-183
-183
-183
-183
-183
-183
-183
-184
-184
-184
-185
-184
-184
-184
-185
-185
-185
-185
-185
-185
-185
-184
-184
-184
-183
-184
-184
-183
-183
-184
-183
-183
-183
-184
-184
-184
-184
-185
-184
-185
-186
-185
-185
-185
-185
-184
-184
-184
-185
-185
-184
-184
-184
-183
-184
-183
-182
-181
-180
-180
-179
-179
-178
-177
-176
-176
-176
-176
-176
-176
-176
-177
-177
-177
-178
-178
-178
-179
-179
-179
-180
-179
-180
-180
-180
-180
-180
-180
-180
-180
-181
-180
-180
-180
-180
-180
-179
-179
-179
-179
-178
-177
-177
-177
-177
-176
-176
-176
-178
-178
-178
-179
-180
-180
-180
-181
-181
-182
-182
-183
-183
-182
-182
-182
-183
-183
-183
-182
-183
-183
-182
-183
-182
-182
-182
-183
-182
-182
-182
-182
-181
-182
-182
-182
-182
-182
-183
-183
-183
-184
-185
-185
-185
-186
-187
-187
-188
-188
-187
-188
-188
-187
-187
-189
-188
-187
-188
-188
-188
-187
-188
-188
-188
-188
-188
-189
-188
-188
-187
-187
-187
-187
-188
-188
-187
-188
-188
-188
-189
-189
-189
-190
-189
-189
-190
-190
-191
-190
-190
-190
-190
-191
-191
-191
-191
-191
-191
-191
-192
-192
-192
-193
-193
-193
-194
-193
-193
-193
-193
-193
-192
-192
-192
-191
-191
-192
-190
-190
-191
-191
-191
-191
-192
-192
-193
-193
-193
-193
-193
-194
-194
-194
-194
-195
-195
-195
-195
-195
-195
-196
-196
-196
-196
-196
-196
-197
-197
-197
-196
-196
-196
-197
-196
-196
-196
-196
-196
-196
-197
-197
-197
-198
-197
-197
-197
-197
-197
-197
-196
-196
-196
-195
-195
-194
-194
-193
-193
-193
-193
-193
-194
-194
-194
-194
-194
-195
-195
-196
-195
-195
-196
-195
-196
-196
-197
-196
-196
-196
-196
-196
-197
-197
-198
-198
-198
-198
-198
-197
-197
-197
-198
-197
-197
-197
-197
-196
-196
-196
-197
-197
-197
-196
-196
-195
-196
-195
-195
-195
-193
-193
-193
-193
-192
-191
-191
-191
-191
-191
-191
-191
-191
-191
-192
-192
-193
-193
-193
-194
-194
-194
-194
-194
-194
-194
-194
-194
-194
-193
-193
-194
-194
-195
-195
-195
-194
-195
-195
-195
-195
-194
-194
-194
-194
-194
-194
-194
-194
-194
-194
-194
-195
-195
-195
-195
-195
-195
-195
-195
-195
-195
-195
-195
-195
-195
-195
-194
-194
-195
-195
-195
-195
-195
-195
-195
-194
-195
-195
-193
-193
-193
-193
-192
-192
-191
-191
-190
-190
-190
-190
-190
-190
-191
-191
-190
-191
-191
-190
-190
-189
-189
-189
-189
-188
-188
-187
-187
-186
-186
-186
-185
-185
-185
-185
-183
-183
-182
-182
-182
-181
-181
-180
-179
-178
-177
-176
-175
-175
-175
-174
-173
-173
-173
-173
-173
-173
-173
-173
-173
-174
-173
-175
-175
-175
-176
-176
-178
-178
-179
-180
-181
-182
-183
-184
-185
-186
-187
-188
-188
-189
-190
-190
-191
-192
-192
-192
-193
-193
-194
-195
-195
-195
-196
-195
-194
-195
-194
-194
-193
-193
-192
-191
-190
-190
-189
-189
-188
-189
-189
-188
-188
-189
-189
-191
-191
-191
-192
-193
-194
-194
-195
-195
-196
-196
-197
-197
-196
-197
-197
-197
-197
-198
-197
-198
-198
-198
-198
-198
-198
-197
-196
-197
-196
-196
-196
-195
-195
-195
-195
-195
-196
-195
-195
-195
-195
-195
-196
-196
-196
-196
-197
-197
-197
-198
-197
-198
-198
-199
-199
-199
-200
-200
-201
-200
-200
-200
-201
-201
-199
-199
-199
-198
-197
-196
-195
-195
-193
-193
-192
-191
-190
-189
-188
-186
-185
-184
-182
-180
-177
-175
-172
-168
-165
-161
-157
-153
-149
-145
-141
-137
-132
-127
-123
-118
-114
-110
-105
-101
-98
-95
-93
-90
-87
-85
-84
-82
-81
-80
-79
-80
-81
-84
-86
-89
-94
-100
-107
-115
-123
-132
-141
-152
-163
-174
-187
-200
-212
-225
-239
-252
-264
-275
-286
-295
-304
-312
-318
-322
-326
-329
-329
-330
-329
-326
-324
-319
-315
-310
-305
-300
-294
-289
-283
-277
-271
-265
-260
-254
-250
-244
-239
-235
-230
-227
-223
-220
-217
-215
-212
-209
-208
-206
-204
-204
-202
-201
-200
-198
-198
-197
-195
-194
-193
-193
-192
-191
-190
-190
-189
-189
-189
-189
-189
-189
-189
-188
-188
-189
-189
-188
-188
-189
-188
-188
-188
-188
-188
-188
-188
-188
-188
-188
-187
-187
-187
-186
-187
-185
-185
-185
-184
-183
-183
-182
-182
-182
-182
-182
-181
-181
-181
-181
-181
-181
-181
-181
-181
-181
-181
-181
-180
-180
-180
-179
-179
-178
-178
-177
-177
-177
-177
-178
-177
-177
-177
-178
-178
-178
-177
-178
-178
-179
-179
-179
-180
-179
-180
-179
-180
-180
-181
-181
-181
-181
-181
-181
-181
-181
-181
-179
-179
-179
-178
-177
-177
-176
-175
-175
-175
-175
-175
-174
-174
-174
-173
-173
-174
-173
-173
-174
-173
-173
-173
-173
-173
-172
-172
-172
-173
-173
-173
-173
-173
-173
-173
-173
-173
-172
-172
-172
-172
-171
-172
-171
-172
-171
-171
-171
-171
-170
-170
-169
-169
-169
-168
-168
-167
-167
-166
-166
-164
-163
-162
-162
-161
-160
-159
-159
-158
-157
-157
-156
-156
-156
-155
-155
-155
-156
-155
-155
-155
-154
-154
-154
-153
-152
-153
-152
-152
-151
-150
-150
-150
-149
-148
-148
-147
-146
-145
-144
-143
-142
-141
-140
-140
-139
-138
-137
-136
-136
-135
-135
-135
-134
-134
-133
-133
-133
-132
-132
-131
-131
-131
-130
-130
-130
-129
-129
-130
-129
-130
-129
-130
-130
-130
-130
-131
-131
-130
-131
-131
-130
-131
-131
-131
-130
-130
-130
-130
-130
-130
-130
-131
-131
-132
-131
-132
-132
-132
-132
-132
-131
-131
-131
-131
-131
-131
-131
-130
-130
-131
-131
-131
-130
-131
-131
-131
-131
-132
-132
-132
-132
-132
-133
-134
-134
-135
-135
-136
-137
-137
-138
-139
-139
-141
-141
-142
-143
-143
-144
-144
-144
-145
-146
