# Simple Text Format
# Sampling Rate (Hz):= 1200.00
# Resolution:= 12
# Labels:= ECG	aVR
# Age:=	47
# Gender:=	Feminino
92
94
93
93
93
93
93
94
94
93
93
93
91
91
91
89
89
89
89
87
87
86
86
86
85
84
84
85
85
84
84
84
84
85
85
86
86
86
87
86
86
87
88
88
89
90
91
92
92
92
91
91
90
90
88
88
87
87
85
84
82
81
80
78
77
76
75
74
73
73
72
72
71
71
71
71
71
71
71
72
72
72
73
73
73
73
74
73
73
73
73
73
72
71
70
69
69
68
68
68
67
67
66
66
65
65
64
64
63
63
63
63
63
62
62
63
63
62
62
60
60
60
59
59
59
58
58
57
56
55
54
53
52
50
49
47
46
44
44
43
42
41
41
41
41
41
41
41
41
40
39
40
40
40
40
39
40
40
40
40
40
40
41
41
41
41
42
42
42
42
42
42
41
41
41
41
40
40
40
40
40
40
39
40
40
39
39
39
39
39
39
39
40
39
39
40
39
40
40
40
40
40
39
40
40
40
41
41
42
42
42
42
42
42
42
43
43
44
44
46
46
46
48
48
50
50
52
52
53
54
56
56
57
58
59
60
61
62
63
64
65
66
67
69
69
70
71
73
73
74
75
75
76
76
76
76
76
75
75
76
75
75
76
75
76
76
76
77
77
79
79
79
79
79
79
79
80
81
81
81
81
82
82
83
83
83
82
83
83
83
83
83
83
82
82
81
82
81
81
81
81
80
81
82
82
83
83
83
83
83
83
83
84
84
85
85
87
87
87
87
87
87
87
87
87
87
86
86
87
86
86
85
85
84
83
81
80
79
78
77
77
76
76
76
76
76
76
77
78
77
78
78
79
80
81
82
82
83
84
84
84
85
85
86
86
87
87
88
88
89
89
88
88
87
87
87
86
87
86
86
86
86
86
85
85
84
84
84
83
84
83
83
82
81
82
81
81
81
81
82
82
82
82
83
83
84
84
85
85
86
87
87
87
87
85
86
85
85
85
85
85
85
85
85
85
84
84
84
84
83
84
83
83
83
83
83
83
82
83
83
83
84
84
85
86
86
86
86
86
86
85
84
84
84
83
82
82
81
80
80
80
80
79
79
79
79
79
79
79
80
80
81
81
82
83
84
84
85
85
87
88
88
90
90
91
92
93
94
94
95
95
96
95
95
95
95
95
94
93
93
92
93
92
92
92
93
93
93
94
93
94
94
94
94
94
94
94
94
94
95
94
95
94
94
95
95
95
95
94
94
94
95
95
95
95
95
94
93
93
93
93
94
94
95
95
95
94
94
93
93
93
92
92
92
92
91
92
92
92
92
92
91
92
92
92
93
93
94
95
95
94
94
94
93
92
93
92
91
92
91
91
90
90
89
89
88
88
89
89
89
89
89
89
88
89
89
89
90
90
91
92
92
93
94
94
95
95
96
98
98
98
98
97
98
97
97
96
97
96
96
96
96
96
96
97
97
97
97
97
98
98
98
98
98
97
98
98
98
98
98
97
97
96
97
97
96
96
95
95
94
94
93
92
91
91
90
90
90
90
90
90
91
91
91
91
92
93
94
94
95
96
97
96
97
96
97
96
97
96
96
96
95
95
94
93
92
92
91
91
89
89
88
88
88
89
88
88
87
86
85
85
86
85
86
87
87
87
86
86
86
85
85
84
83
83
81
81
80
79
79
79
79
79
79
78
78
77
78
77
77
77
76
75
76
76
76
75
75
75
75
75
75
74
75
75
75
76
75
76
76
77
77
77
77
78
79
79
80
81
81
82
83
84
84
85
85
87
88
88
89
89
89
90
90
90
90
90
90
90
91
90
90
91
91
91
91
91
91
91
92
93
93
93
93
93
94
95
95
96
97
98
98
99
99
100
101
102
104
105
104
105
105
104
104
104
104
103
103
103
103
102
102
101
102
102
101
100
101
102
102
102
101
101
101
101
102
102
102
103
103
104
104
104
104
104
104
104
103
103
103
103
102
102
102
102
102
102
102
102
102
102
102
103
104
104
105
105
106
106
107
107
106
106
107
106
106
105
105
105
104
104
103
103
102
102
100
100
99
97
96
95
93
90
87
83
80
76
71
66
60
54
48
42
36
29
22
16
9
2
-5
-12
-19
-25
-31
-36
-41
-44
-46
-49
-49
-48
-47
-44
-41
-37
-31
-24
-18
-10
-2
7
15
24
32
42
51
60
70
77
85
92
98
104
110
115
118
122
125
126
128
129
130
130
129
130
129
129
128
127
127
126
125
125
124
124
122
122
122
122
121
121
121
121
120
120
119
118
118
117
117
116
116
116
116
115
113
113
113
113
112
111
111
110
110
109
109
108
107
107
106
106
106
106
106
106
106
106
106
107
106
106
106
105
106
106
106
106
106
106
106
106
106
106
106
106
106
106
106
106
107
107
106
106
106
106
106
106
106
106
106
106
106
106
106
106
107
107
107
107
106
106
106
106
105
105
106
106
105
105
105
105
105
105
105
105
105
105
105
105
104
105
104
104
102
102
101
101
99
99
99
98
97
97
97
97
97
97
96
97
97
96
96
96
96
96
97
97
97
97
98
97
98
98
99
98
98
98
98
97
97
97
96
95
95
94
93
93
92
92
92
92
93
94
93
94
94
94
95
95
95
95
95
95
95
95
95
95
94
94
93
93
93
92
91
90
89
87
87
86
86
85
84
83
82
81
81
80
80
79
79
78
78
78
79
78
78
78
78
78
77
76
76
75
74
73
73
72
71
71
71
71
70
70
71
71
71
70
71
71
71
71
71
70
70
69
69
67
67
66
65
64
64
63
62
62
61
60
59
58
58
57
56
55
55
53
53
53
52
52
51
50
50
49
50
49
48
49
49
49
49
49
49
48
48
48
49
49
48
49
49
49
49
49
50
50
50
50
50
49
49
48
48
48
47
47
47
47
46
46
46
45
46
46
46
46
46
47
48
49
50
50
52
52
52
53
53
54
54
55
55
56
57
58
59
59
60
61
61
62
63
63
64
64
64
65
66
66
68
69
70
70
71
72
73
73
74
75
76
77
77
79
79
79
80
80
80
81
81
82
83
83
84
84
85
84
85
86
86
86
87
87
87
88
88
88
89
89
90
91
91
91
92
93
93
93
94
94
94
94
93
93
93
93
92
92
90
90
89
89
88
89
90
90
91
91
92
93
93
93
94
95
96
96
96
96
96
97
96
96
96
96
96
95
95
94
94
94
94
93
93
93
93
92
92
91
91
91
91
91
91
91
91
92
91
92
92
92
93
94
94
94
94
94
94
94
95
94
94
94
93
93
93
94
93
93
94
94
94
93
93
92
92
91
92
92
92
91
92
92
92
92
93
94
94
94
96
96
96
96
96
96
95
95
94
94
93
92
92
91
91
90
90
90
89
89
89
88
87
88
88
88
88
88
88
89
89
89
89
89
89
88
88
89
89
89
90
91
90
90
91
91
91
91
90
91
92
92
92
92
93
94
95
95
96
98
98
99
101
101
102
103
103
103
102
103
103
103
103
103
103
104
103
103
102
101
100
99
99
98
97
97
96
95
94
94
93
93
92
92
91
91
91
91
92
92
93
94
93
93
93
94
94
94
94
95
95
95
95
95
95
95
95
95
95
94
95
95
96
97
97
98
98
97
97
97
98
98
99
100
100
100
101
101
102
103
102
102
103
104
103
104
104
103
103
102
102
102
101
101
101
100
99
99
99
98
98
97
97
97
97
97
98
97
97
97
97
97
97
97
98
98
99
98
99
99
99
100
100
101
101
101
100
101
100
100
100
100
100
100
100
100
100
100
101
101
101
101
102
101
102
101
101
101
100
101
100
100
100
100
101
100
100
101
100
100
100
101
101
102
101
101
102
101
101
101
102
102
102
102
102
101
102
102
102
102
102
102
102
103
103
103
103
103
102
102
102
102
102
103
103
103
104
104
104
104
104
104
104
104
103
102
102
101
101
100
100
99
98
98
97
97
97
96
96
96
96
96
96
96
96
96
96
96
96
96
97
97
98
98
99
99
100
101
102
103
103
104
104
105
105
106
106
107
106
106
105
106
105
105
104
103
103
103
103
102
102
101
101
101
100
100
100
98
98
97
97
97
96
95
95
94
93
92
92
91
91
91
90
90
90
90
90
90
89
89
89
89
89
90
90
90
90
90
89
89
88
88
87
87
86
86
85
84
84
83
82
81
80
79
79
79
78
78
77
78
78
77
77
77
77
77
77
77
78
78
79
80
80
81
82
83
84
85
86
87
88
89
90
90
90
90
90
90
90
89
89
89
87
88
88
88
89
89
90
90
91
92
92
93
94
95
96
97
99
100
101
102
101
102
102
103
103
104
104
104
103
104
104
104
105
105
105
106
105
105
105
104
104
104
104
104
105
106
105
105
106
106
106
106
106
106
106
106
105
105
105
106
106
107
107
107
108
108
109
110
110
111
111
112
112
112
112
111
111
110
110
110
110
110
108
108
108
107
107
107
107
106
107
106
106
106
106
105
105
106
105
105
106
105
106
107
106
108
107
108
107
107
106
105
105
104
102
101
99
97
95
93
91
88
85
82
78
74
69
66
60
56
51
44
39
33
26
20
13
7
0
-7
-13
-20
-25
-31
-35
-40
-43
-46
-47
-49
-47
-47
-44
-40
-35
-30
-24
-17
-10
-2
6
15
25
35
45
55
64
73
80
88
95
100
105
110
114
117
120
122
124
125
126
127
127
127
128
128
128
128
128
129
129
128
129
128
128
127
127
127
127
126
125
124
124
123
122
121
120
119
119
119
118
117
116
115
114
113
112
111
110
109
109
108
108
107
107
106
106
106
105
105
104
103
103
101
101
100
101
100
100
100
100
101
101
102
101
102
102
103
103
105
106
106
107
107
108
107
108
108
108
107
106
106
106
105
105
104
104
103
102
102
102
101
101
101
100
99
100
99
100
99
99
99
99
100
100
100
101
101
102
102
102
102
102
102
102
102
102
103
103
102
101
101
101
101
102
101
101
102
102
102
101
101
100
100
100
100
99
98
98
97
97
97
98
97
97
97
98
98
97
97
97
97
97
97
97
97
96
96
95
96
95
94
94
93
93
93
92
92
92
92
92
91
91
90
90
90
89
88
88
88
87
87
87
86
86
85
85
85
84
85
84
84
84
84
84
84
83
83
84
84
84
85
86
86
86
86
87
87
87
87
87
87
86
85
84
84
83
82
80
78
77
76
74
73
72
71
70
69
68
67
67
66
66
66
65
65
64
63
63
62
62
62
62
62
60
60
60
59
58
58
58
56
55
55
54
53
52
52
51
50
49
48
48
48
47
47
47
47
47
47
47
47
46
46
45
44
44
43
43
43
43
42
42
43
43
42
43
43
43
42
42
42
42
42
42
41
41
41
41
41
39
39
39
40
40
40
41
41
42
42
43
44
44
46
46
48
49
49
50
51
51
52
53
54
54
55
55
56
56
56
56
56
55
56
56
55
56
56
56
56
56
57
58
58
59
60
61
62
63
64
65
67
67
68
68
69
69
69
69
70
70
71
71
72
73
73
74
75
75
76
75
76
76
77
78
78
80
80
80
80
80
80
80
80
80
81
81
81
81
82
82
82
82
82
82
83
83
83
84
84
84
84
84
85
85
86
86
87
87
87
88
88
89
89
90
89
90
90
90
91
90
91
90
90
90
91
91
91
91
90
90
90
89
88
88
88
87
87
87
86
86
86
86
87
87
87
88
89
88
89
89
89
89
89
88
88
88
88
88
87
86
86
85
85
85
86
85
85
84
85
85
84
84
84
84
84
85
85
85
85
85
85
85
86
86
87
87
87
88
89
90
90
90
90
90
90
90
89
90
89
89
89
89
89
89
88
87
87
86
85
84
84
83
83
83
82
82
81
81
80
80
79
79
79
80
81
82
83
83
83
83
84
84
85
85
86
86
86
86
87
87
87
88
88
87
88
88
88
89
90
90
90
90
90
90
89
88
88
89
88
88
88
88
88
87
87
87
87
87
87
88
88
88
89
89
89
89
90
90
90
90
91
90
90
90
91
91
91
91
91
90
91
91
90
90
90
90
90
90
90
90
90
92
92
92
92
92
93
93
94
94
94
94
94
94
94
93
93
91
90
90
90
89
89
89
88
88
87
86
86
85
85
84
84
84
85
84
84
85
85
85
86
86
86
86
87
87
87
88
89
90
90
91
91
91
90
90
91
91
91
91
91
92
92
92
92
94
94
94
94
94
95
95
94
94
93
93
92
93
92
92
90
90
90
90
91
91
91
92
92
92
94
94
94
94
95
95
95
96
96
96
97
97
98
99
100
100
101
100
101
101
101
101
101
101
101
100
99
99
98
97
97
96
95
95
93
93
92
91
90
90
89
89
89
88
88
88
88
88
88
87
87
87
87
87
88
88
88
89
89
90
90
89
89
88
87
87
88
88
88
89
88
88
88
89
89
90
91
92
92
94
94
94
95
95
95
96
95
96
95
95
96
96
96
96
96
96
95
95
95
95
95
94
94
93
93
93
94
94
94
94
93
93
94
94
94
94
95
95
96
96
96
96
96
95
94
94
93
93
92
92
91
91
90
90
90
89
89
90
89
89
88
88
88
87
87
87
87
87
86
86
86
86
86
85
84
84
84
83
83
82
81
79
79
78
77
75
75
73
71
70
69
69
68
67
67
66
65
65
65
64
64
64
64
64
63
63
63
64
64
64
65
64
65
66
67
67
67
68
69
69
70
70
71
72
73
74
73
73
73
73
74
74
75
76
77
79
79
80
81
83
84
85
85
87
86
87
89
89
90
90
91
90
90
90
91
90
90
90
90
90
89
90
89
89
89
90
89
90
90
91
91
92
93
94
96
96
97
98
99
99
99
99
99
99
100
100
99
99
98
97
96
96
96
96
95
95
94
94
94
94
95
95
95
96
97
97
97
97
98
98
99
99
99
100
100
100
100
100
100
101
101
100
100
100
99
99
99
98
99
98
98
98
98
99
99
99
98
99
99
98
98
98
97
97
97
97
96
95
95
94
93
93
92
91
90
88
87
85
83
81
78
75
71
68
64
59
56
51
46
40
34
29
23
18
11
6
-2
-8
-14
-21
-26
-31
-36
-41
-44
-47
-47
-48
-48
-47
-44
-41
-37
-32
-25
-18
-10
-1
7
17
26
35
44
53
62
69
77
83
89
95
99
103
107
111
115
117
120
121
123
123
124
124
124
124
123
123
123
123
123
123
123
121
120
119
118
117
116
115
114
113
113
112
111
110
109
107
108
107
106
105
106
105
104
104
103
102
102
102
101
101
101
101
101
101
100
100
100
100
99
99
99
99
99
99
99
99
100
100
100
99
100
99
99
98
98
97
96
96
96
96
96
97
97
97
98
98
98
99
100
100
100
100
100
100
101
101
101
100
100
99
99
99
99
99
98
98
98
98
97
97
96
96
96
95
94
94
94
93
93
92
92
92
90
90
90
91
91
91
91
91
92
92
93
93
93
94
94
94
95
95
95
95
96
95
95
95
95
95
95
94
94
93
93
92
91
90
90
89
88
88
88
87
87
87
88
88
88
88
88
88
88
88
88
87
88
88
88
88
87
86
86
86
86
86
87
86
86
85
85
85
84
84
84
83
83
83
82
82
83
82
82
81
81
81
81
81
81
81
81
80
80
79
79
78
77
76
76
75
74
73
72
70
70
69
70
69
68
67
67
67
67
65
65
64
64
64
64
63
62
63
63
63
63
63
63
63
62
63
61
62
61
61
60
60
59
58
57
56
55
55
54
54
52
52
53
52
51
51
52
52
52
50
50
49
48
48
48
47
46
45
45
44
44
43
43
43
41
42
42
42
41
41
41
41
41
42
42
43
42
43
43
43
44
43
43
43
42
42
42
42
43
42
42
41
41
41
41
41
41
41
42
42
43
44
45
46
47
48
49
50
50
51
53
53
52
54
54
54
55
55
55
56
56
56
57
58
58
59
60
60
60
60
61
62
62
63
63
64
64
64
64
65
65
65
66
66
66
67
67
68
68
68
68
68
70
69
69
70
70
70
71
72
73
74
75
75
76
77
78
78
78
79
80
79
79
80
81
81
80
80
81
81
82
83
84
84
85
86
87
87
87
88
88
88
89
89
89
90
90
90
89
89
88
88
87
87
87
87
87
86
86
86
85
85
85
85
85
85
86
85
86
86
87
88
89
89
90
90
91
91
92
91
92
91
90
90
89
89
88
87
86
86
85
85
84
85
84
84
84
84
85
85
85
85
85
85
86
86
85
85
86
85
85
86
85
85
84
84
84
84
83
83
83
82
81
81
81
80
80
80
80
79
80
80
80
82
81
82
82
83
83
82
83
82
83
83
83
84
84
85
86
86
87
87
88
89
89
90
91
90
90
90
90
90
91
90
90
90
89
89
88
87
86
85
85
85
84
84
84
84
84
84
84
83
83
82
82
82
81
81
81
81
81
81
82
82
82
82
82
82
82
82
82
81
81
81
81
81
80
81
81
81
81
82
82
82
83
83
84
85
85
86
86
86
86
86
87
86
87
87
88
88
89
89
89
89
89
90
89
89
90
90
90
90
90
90
90
90
89
88
88
87
87
87
86
86
86
86
87
88
88
88
89
89
91
91
91
92
92
93
93
93
94
95
96
95
95
95
95
95
93
92
91
90
89
88
88
87
87
86
86
86
85
85
85
84
84
85
84
85
85
85
85
85
84
85
85
84
84
85
85
86
86
87
88
88
89
90
90
91
91
92
92
91
92
93
93
93
92
92
91
91
91
91
91
91
91
92
92
92
93
92
92
92
92
93
92
92
92
92
92
92
93
92
92
93
92
92
93
93
92
92
91
92
92
92
93
92
93
94
93
93
92
93
93
92
92
92
92
91
92
92
91
91
91
92
91
91
92
92
92
92
92
93
92
92
94
94
95
94
94
94
93
92
91
91
90
90
90
89
89
87
87
87
87
87
87
87
87
87
87
86
86
86
86
85
85
85
85
85
85
86
86
86
87
88
88
89
90
90
92
92
92
93
94
94
96
95
96
96
96
96
95
95
94
93
93
93
92
92
92
90
89
89
88
87
86
86
85
85
85
85
84
85
84
84
83
83
83
83
83
82
81
81
80
80
80
79
79
79
78
78
78
77
77
77
76
76
76
76
75
75
75
74
73
72
72
71
70
69
70
69
68
68
69
69
69
69
69
69
70
70
70
70
71
72
73
73
74
74
75
76
76
76
76
77
76
76
77
77
76
77
75
75
75
74
74
74
74
74
74
74
74
74
75
76
76
78
78
80
80
81
81
82
83
83
85
85
86
86
88
88
89
90
91
92
93
94
94
95
94
95
95
96
96
96
97
96
96
95
95
95
95
94
95
95
95
94
94
94
94
94
93
93
92
92
92
92
91
92
92
92
93
94
95
95
95
96
97
97
97
97
97
98
98
98
99
98
98
98
98
97
97
97
97
96
96
96
96
96
96
94
94
93
93
93
94
94
95
95
95
96
96
97
97
98
98
99
99
99
99
100
99
98
97
96
95
94
92
90
89
87
86
83
81
78
75
73
69
65
62
58
53
50
45
40
36
30
25
20
14
8
3
-3
-8
-13
-19
-23
-27
-31
-34
-35
-37
-38
-38
-36
-34
-31
-28
-24
-20
-14
-7
0
7
15
23
32
41
49
57
64
72
78
84
90
96
100
103
107
111
113
115
118
119
120
121
122
122
122
122
121
121
120
119
118
118
117
116
115
114
114
114
113
113
111
111
110
110
109
108
107
106
105
104
103
102
101
100
100
99
99
98
99
99
100
100
100
101
101
102
102
101
102
102
102
103
103
102
102
101
101
101
100
100
100
99
99
98
97
97
96
95
94
94
94
94
93
93
94
94
94
94
94
95
95
95
95
95
95
94
94
94
93
93
94
94
94
93
92
92
92
92
91
91
91
91
91
93
93
92
93
93
93
93
93
93
93
93
93
93
94
94
94
94
94
94
94
94
94
93
93
93
91
91
90
90
89
89
89
88
87
87
86
86
86
86
87
86
87
86
87
87
88
87
87
87
88
88
88
88
88
87
88
88
88
88
87
88
88
88
87
86
85
85
84
84
83
82
82
82
81
81
81
81
81
80
80
79
79
78
78
77
77
76
76
76
75
75
75
75
74
74
74
75
75
75
75
76
76
76
76
76
75
75
75
75
74
74
72
72
70
70
69
69
67
67
66
65
64
62
61
61
60
59
58
58
58
57
57
57
57
57
57
56
56
57
56
56
56
55
54
54
55
54
53
52
51
50
49
49
48
48
48
47
47
46
46
44
43
43
41
40
40
39
39
37
37
36
36
36
36
36
36
37
37
37
38
40
40
41
42
42
42
42
43
43
43
43
43
43
43
42
42
42
41
40
41
41
39
39
39
37
37
37
36
36
36
35
36
37
36
37
38
38
38
39
40
41
42
43
45
46
47
47
48
47
48
49
50
51
53
54
56
57
58
59
60
61
61
61
62
62
63
63
64
64
63
63
64
64
64
64
63
64
64
65
65
65
65
66
66
67
67
68
69
70
71
72
73
75
76
78
79
80
81
82
83
83
85
85
85
85
85
85
85
85
84
84
84
83
83
83
83
83
83
83
83
83
83
84
85
86
85
86
86
87
86
87
87
88
88
88
88
88
88
88
88
88
88
87
87
87
87
87
86
86
85
85
85
84
84
85
85
85
85
85
85
85
85
85
85
85
85
85
85
84
83
83
83
83
83
83
83
84
84
84
84
86
85
85
86
86
86
86
86
86
86
86
86
87
87
87
87
87
86
86
86
86
85
84
84
84
84
83
83
82
82
81
81
81
81
81
83
83
84
86
86
88
88
88
89
89
89
89
89
89
88
88
88
87
87
87
86
86
84
84
84
82
82
81
81
79
79
78
78
78
78
79
79
79
79
79
79
80
80
80
80
80
81
80
81
80
80
80
79
79
79
78
78
79
79
79
79
79
79
79
79
80
79
78
78
78
79
78
78
79
79
79
79
80
80
81
81
83
83
84
86
87
88
89
89
90
91
91
92
92
91
90
90
90
89
89
88
88
87
87
86
85
84
84
84
83
83
83
83
83
83
83
84
85
86
88
89
90
91
91
92
93
93
93
94
95
95
95
95
95
95
95
95
94
94
93
93
92
91
91
90
91
90
90
90
89
88
88
86
86
85
85
85
85
85
85
85
85
86
86
87
88
88
88
88
88
89
90
90
89
90
90
90
91
91
91
91
91
92
92
93
93
93
93
93
93
92
92
92
91
92
91
91
91
91
91
92
92
92
91
91
90
90
90
90
89
89
90
90
89
89
89
89
88
88
89
89
89
89
89
89
89
89
89
89
90
89
89
88
89
88
88
88
89
89
90
90
91
91
91
92
92
92
91
91
91
91
91
92
93
92
92
92
92
92
93
93
93
93
93
93
93
94
94
94
94
95
94
94
95
94
94
94
94
95
94
93
93
93
93
93
93
93
92
91
91
90
89
89
88
87
87
87
87
86
85
86
86
87
87
88
88
88
88
89
88
89
89
90
91
91
92
92
93
94
94
95
94
95
95
96
96
96
96
96
95
95
94
94
93
93
93
92
92
91
90
90
89
88
88
87
87
86
86
86
86
85
85
85
84
83
82
82
82
81
81
81
81
81
81
81
81
80
80
79
80
79
78
78
77
76
76
76
75
75
75
74
73
73
72
71
70
70
69
69
67
67
66
66
65
65
64
64
63
63
63
64
64
65
65
66
66
67
68
68
69
70
70
71
73
73
75
76
78
79
80
82
83
85
86
87
88
88
90
90
90
91
91
92
92
91
92
92
91
91
92
92
92
92
92
92
92
92
92
91
91
91
90
89
90
89
89
89
89
89
89
89
89
89
89
91
92
92
92
93
94
93
95
95
95
96
97
97
98
98
99
99
99
99
99
99
98
99
98
98
98
97
96
96
97
97
97
96
96
96
96
96
97
97
98
98
99
99
100
100
100
99
99
100
99
99
99
100
101
101
102
102
103
104
104
105
105
106
106
107
107
107
106
106
106
106
104
104
102
101
99
98
96
95
93
91
90
87
85
82
80
77
73
70
67
62
58
54
50
45
40
34
27
21
14
8
1
-6
-12
-19
-25
-31
-36
-41
-46
-49
-51
-53
-52
-51
-49
-46
-42
-37
-31
-24
-17
-10
-2
8
16
24
34
42
51
59
67
75
82
89
94
100
104
108
111
115
117
119
120
121
122
122
122
122
121
120
119
118
117
116
116
115
115
113
113
112
112
111
111
111
109
109
109
109
108
108
108
107
107
106
106
105
105
105
104
104
104
103
102
103
102
101
101
101
100
100
100
100
100
99
100
100
101
100
100
100
100
100
100
100
99
100
100
101
100
100
100
101
101
102
102
103
102
102
103
103
103
104
104
104
104
103
103
102
101
101
100
99
98
99
98
98
98
98
98
98
97
97
97
97
96
97
96
96
95
95
94
94
94
94
93
93
93
92
93
92
92
92
92
91
91
90
90
90
90
90
90
90
92
92
91
92
92
92
92
92
92
92
92
92
91
91
91
91
91
90
90
90
89
89
90
90
90
90
91
91
91
91
92
92
92
92
92
92
92
91
90
90
90
90
89
90
89
89
90
89
89
89
89
88
88
87
86
86
86
86
85
86
86
85
85
85
84
82
82
80
80
79
77
77
76
75
75
74
73
72
71
71
71
71
71
71
71
71
72
72
72
71
71
72
72
71
72
71
70
69
68
67
66
65
64
64
63
62
62
61
60
59
58
58
56
55
54
54
54
53
52
52
51
51
50
49
49
49
49
49
47
47
47
47
46
46
44
44
43
42
41
41
41
41
41
42
41
41
41
41
41
42
41
41
42
41
42
43
43
43
44
44
44
46
46
46
47
46
47
47
47
47
48
47
47
46
45
45
45
45
45
45
45
46
46
46
46
46
46
47
47
48
48
47
48
48
48
48
48
47
47
48
48
49
49
50
51
51
52
52
54
55
56
57
57
58
59
59
59
59
59
61
61
62
62
62
63
63
64
65
65
66
66
67
67
67
68
71
71
72
73
73
74
75
75
77
78
78
79
81
82
82
82
83
83
84
85
85
85
85
85
85
86
86
86
86
86
86
85
85
85
84
85
84
84
84
83
83
83
83
82
82
82
83
84
84
85
85
87
87
88
88
88
89
89
90
90
90
90
90
90
89
89
89
90
90
90
90
90
90
89
89
88
87
87
87
86
86
86
86
86
86
86
86
86
87
87
87
87
88
88
88
89
89
90
90
90
91
91
91
91
92
92
92
93
93
93
92
93
92
93
93
93
93
92
92
92
91
90
89
90
89
89
89
89
89
89
88
88
87
87
86
86
85
86
85
85
85
84
84
83
83
83
83
84
84
84
85
85
86
86
86
86
86
86
85
85
85
85
85
85
84
84
84
84
84
84
84
84
85
85
86
86
87
87
87
88
88
88
88
88
89
89
89
90
89
89
89
89
89
89
89
89
89
88
89
88
89
88
88
89
90
91
90
91
92
92
93
94
94
95
95
95
95
95
95
95
95
94
94
94
93
92
92
92
92
91
91
90
89
89
89
89
88
88
88
87
87
87
86
87
87
87
87
89
90
90
90
90
90
90
90
90
90
91
91
91
91
92
92
92
92
91
92
93
93
94
94
94
95
96
96
95
95
96
96
95
95
95
95
94
94
94
94
93
93
93
93
93
93
93
93
93
93
93
93
92
93
93
92
93
93
93
93
93
94
94
93
94
94
95
95
95
94
94
95
95
95
95
95
95
94
95
96
95
96
96
96
95
95
95
94
95
95
95
94
95
94
93
94
94
94
95
94
95
95
95
95
96
96
96
96
97
96
96
96
96
95
96
96
95
95
95
95
95
95
95
95
96
97
96
97
97
97
99
99
99
99
100
100
101
102
102
102
102
103
103
104
103
103
104
104
103
102
102
101
101
100
99
99
98
98
97
97
97
98
98
98
97
98
98
98
99
100
99
99
99
99
99
98
99
99
99
99
99
99
99
99
99
98
97
98
97
97
96
96
97
97
97
97
97
97
97
97
98
99
99
100
100
101
101
102
102
102
102
102
102
101
101
101
101
101
101
101
101
101
101
101
100
101
101
101
101
101
101
101
100
100
99
99
100
99
99
98
98
97
97
97
96
96
96
95
94
94
94
93
93
93
92
91
91
91
91
91
90
91
92
91
92
92
92
92
92
91
91
91
91
91
90
90
90
89
89
88
89
88
88
88
88
87
86
86
85
85
84
83
82
81
81
80
79
79
80
79
79
79
79
79
79
79
79
80
80
81
81
81
81
82
82
82
83
83
84
83
84
86
86
86
88
88
89
89
89
90
90
91
91
93
93
93
94
95
95
95
96
97
97
97
97
98
99
99
100
100
101
101
101
101
103
103
103
104
104
104
104
104
104
105
105
105
105
105
105
105
105
104
104
105
105
104
105
105
105
105
106
106
107
107
107
108
109
109
109
109
109
109
109
110
109
108
108
108
108
108
109
109
108
109
108
108
108
108
108
108
107
108
109
109
110
110
111
112
113
114
115
116
116
116
117
117
117
117
117
116
115
115
113
113
112
110
110
109
108
107
106
105
105
104
103
102
102
102
101
100
99
98
96
94
91
88
85
81
78
74
70
65
61
56
50
45
39
32
25
19
13
6
0
-6
-12
-17
-22
-27
-30
-33
-35
-36
-37
-36
-35
-33
-30
-25
-21
-15
-9
-3
5
13
22
30
39
48
56
65
73
81
89
96
102
107
112
117
120
123
125
127
129
129
131
131
132
131
131
132
132
131
131
131
131
129
129
129
129
129
129
128
129
128
127
126
126
125
124
124
123
124
123
123
122
123
121
120
120
118
118
117
116
116
116
115
114
113
113
112
111
112
112
112
112
112
111
111
111
110
110
109
110
110
109
109
109
108
108
108
108
107
107
107
107
107
106
106
105
105
106
105
105
106
106
106
106
107
107
107
108
108
109
109
110
109
110
109
109
110
110
110
110
111
110
110
110
110
110
110
111
111
111
111
112
112
112
112
111
112
112
111
111
110
110
109
108
108
108
106
106
105
105
105
105
104
104
104
104
104
103
103
103
103
102
103
103
103
104
104
104
104
105
105
105
105
105
104
104
104
105
105
105
104
104
104
104
104
103
104
104
105
104
104
103
103
102
101
100
100
99
98
96
95
93
92
91
90
88
87
87
86
85
85
85
86
86
86
85
85
85
85
85
85
85
85
85
84
85
85
85
85
85
85
85
84
84
84
83
83
83
82
82
82
81
80
80
79
78
78
78
78
76
76
75
75
75
73
73
72
71
71
71
71
70
70
70
68
67
67
66
66
66
66
66
64
64
63
62
61
60
59
58
57
56
56
55
55
55
55
55
54
54
54
55
55
55
56
57
57
57
56
57
57
56
56
56
56
57
57
58
58
58
59
59
59
60
60
59
59
58
58
58
58
57
57
56
56
55
55
54
53
53
52
52
52
51
51
51
50
50
49
49
50
50
50
49
50
50
50
51
52
53
54
55
56
58
59
60
61
62
63
65
66
68
69
70
71
73
74
76
77
78
78
79
80
80
80
80
80
80
80
80
79
79
78
78
77
77
76
76
77
77
77
78
78
79
79
80
80
81
81
83
83
84
85
87
87
88
89
89
90
90
91
91
93
93
94
94
94
94
94
95
95
94
95
95
96
96
95
96
96
97
97
97
97
97
97
97
97
97
97
96
96
96
97
96
97
96
97
97
96
97
97
97
97
97
97
97
96
97
96
96
96
95
94
94
93
93
93
93
92
93
93
94
94
94
94
93
93
93
93
93
93
93
93
93
93
93
93
93
93
93
93
93
93
93
94
94
94
94
94
94
94
95
94
95
95
96
96
97
97
98
98
97
97
96
96
95
95
94
94
93
93
92
91
90
90
89
89
88
89
89
89
89
90
90
90
91
91
92
92
92
93
94
94
95
96
96
97
98
98
98
100
100
100
100
100
100
100
100
99
99
98
98
97
97
97
97
96
96
96
95
94
94
93
93
93
92
92
91
91
90
90
90
89
89
89
89
89
90
90
91
91
92
92
93
94
95
95
95
95
96
96
96
96
96
96
97
97
97
97
97
96
96
97
96
96
96
95
94
93
92
92
92
91
91
91
91
91
91
92
92
92
92
92
92
92
92
92
92
93
94
94
94
93
94
94
94
94
94
95
95
95
95
95
94
95
94
94
94
95
94
94
94
94
94
95
95
95
96
95
96
97
97
97
97
97
97
97
97
97
96
96
96
96
97
97
97
97
97
97
97
97
98
98
98
98
99
99
98
99
99
99
99
99
99
100
100
101
101
101
102
102
103
103
102
101
101
101
102
102
102
102
102
101
102
101
101
101
100
100
100
100
100
100
100
99
99
98
97
97
95
95
94
92
92
91
91
91
90
90
91
91
91
92
91
92
92
92
93
93
95
96
95
96
97
97
97
99
98
98
98
98
99
98
98
98
98
98
98
98
98
98
98
97
97
97
97
97
98
99
98
98
98
98
97
97
97
96
96
95
95
95
95
95
94
94
94
94
94
95
95
95
94
95
96
96
96
96
96
96
96
96
96
96
96
96
96
97
97
98
98
97
98
98
99
99
99
99
98
98
98
97
96
96
97
97
97
97
97
97
97
97
97
97
97
98
98
98
98
98
98
97
97
97
97
96
96
97
96
96
96
94
94
93
92
91
91
89
88
88
88
87
87
86
86
86
85
85
86
86
85
86
87
87
88
88
89
88
88
88
87
86
85
85
84
83
82
80
79
79
78
77
77
75
74
74
73
72
72
71
71
70
69
70
70
70
71
71
71
71
72
73
74
74
74
74
74
75
75
75
77
78
79
79
80
80
81
81
81
82
82
83
84
84
84
84
83
83
84
84
84
84
85
84
84
85
85
86
87
87
89
89
91
92
93
93
95
95
95
96
97
97
97
98
99
99
100
99
99
100
100
100
101
101
101
101
101
101
101
101
101
101
102
102
103
103
103
104
105
105
106
107
107
108
108
108
108
108
108
107
107
107
106
104
104
103
103
102
101
101
100
99
100
99
98
98
98
98
97
97
99
99
100
100
101
102
102
103
104
105
105
107
107
107
108
108
108
109
109
108
108
107
107
106
105
104
104
103
103
102
101
100
98
98
96
94
92
90
88
86
83
82
79
75
72
69
64
61
56
52
48
42
37
32
26
20
12
5
-1
-8
-14
-21
-26
-32
-37
-41
-44
-46
-46
-47
-46
-43
-40
-35
-30
-24
-18
-11
-2
6
14
22
31
41
50
58
67
75
83
90
96
102
107
111
115
117
121
122
124
125
127
127
128
128
127
128
128
129
128
128
127
128
127
126
126
124
123
123
122
121
120
120
119
117
117
116
115
114
113
112
111
110
109
109
108
107
107
106
106
105
106
105
105
106
107
106
107
107
106
107
107
108
109
109
110
111
110
110
109
108
107
107
106
105
105
104
104
103
102
101
101
100
99
99
98
98
97
97
96
96
96
97
97
97
97
97
98
99
100
100
101
101
103
104
105
106
107
107
108
108
109
109
109
109
109
109
109
108
108
108
108
108
106
106
105
104
103
101
100
99
99
98
98
97
97
97
96
96
96
97
96
97
97
98
98
98
98
98
98
97
98
97
97
97
97
97
97
96
97
96
96
96
96
95
95
95
94
94
93
93
93
93
94
93
93
93
94
94
95
95
95
96
97
97
98
97
97
97
97
97
97
97
96
96
95
94
94
93
92
92
92
91
89
88
88
87
86
85
84
82
81
80
80
79
78
78
78
78
78
78
78
77
78
78
78
77
77
77
77
77
76
76
76
76
76
76
75
74
73
73
72
70
70
69
69
68
68
67
66
66
65
64
64
64
64
63
63
63
63
62
62
62
62
61
61
61
61
61
60
59
58
58
57
57
56
56
55
54
53
53
53
53
52
52
51
51
51
50
49
48
48
47
46
45
45
44
43
43
43
43
43
43
43
43
43
43
43
43
44
44
44
44
43
43
44
44
45
45
45
46
46
47
48
48
48
48
48
48
47
49
49
49
49
49
51
51
52
53
54
55
56
57
58
60
61
62
63
64
64
65
66
66
67
68
69
71
72
73
74
75
76
77
77
78
78
79
80
81
81
81
81
81
82
82
83
83
83
83
83
82
81
82
82
83
83
84
84
84
85
85
85
85
85
85
85
86
85
86
87
87
88
87
87
87
86
86
87
86
86
86
87
86
87
87
87
87
88
89
88
89
90
90
91
91
92
92
92
92
92
92
92
92
92
91
91
91
91
92
93
92
92
92
91
92
92
91
91
91
91
91
90
90
89
89
89
89
89
89
90
90
90
91
91
91
92
92
92
92
92
92
92
92
91
92
92
92
92
93
94
94
94
95
96
96
96
97
97
97
97
97
98
98
98
98
98
96
96
96
95
95
95
95
94
94
93
92
92
92
90
91
91
91
91
90
89
89
89
89
89
89
89
88
88
88
89
89
88
89
88
89
89
88
88
88
88
89
90
91
93
93
93
94
94
94
94
94
95
95
95
95
95
95
94
94
94
93
93
92
93
93
92
93
92
92
92
91
91
91
91
91
91
90
90
90
90
90
90
90
92
92
91
92
92
92
92
92
92
92
92
92
92
92
92
92
92
93
93
94
95
95
96
96
97
97
97
98
98
98
99
98
99
98
98
98
97
97
97
96
95
95
94
94
93
93
93
92
92
92
92
92
92
93
93
94
94
94
95
96
97
97
98
99
100
101
101
102
102
102
102
102
103
102
103
102
102
102
102
103
102
102
102
101
101
100
100
99
99
99
99
98
99
99
99
99
98
98
99
98
99
99
99
99
99
99
99
100
99
98
97
98
97
96
97
96
96
95
95
96
96
97
97
96
97
98
98
98
99
99
101
102
102
102
103
103
104
105
106
107
108
108
108
108
108
108
108
108
108
107
106
105
104
103
102
100
99
98
97
96
96
94
94
95
94
93
93
92
92
93
93
94
95
95
95
96
96
97
98
98
100
100
101
102
102
103
103
102
102
102
102
101
102
101
102
102
102
102
103
103
103
103
102
103
102
103
102
102
102
102
101
101
101
101
101
101
101
101
101
102
101
101
101
101
102
102
103
103
103
103
103
103
103
103
103
103
102
102
101
101
101
101
99
100
100
99
99
99
98
98
97
97
97
96
96
96
96
97
98
98
99
100
101
102
103
103
104
104
105
105
105
106
105
105
104
103
103
103
102
102
101
100
99
98
96
96
94
93
92
90
89
89
89
87
87
87
87
86
87
87
87
87
87
87
86
86
86
85
85
84
83
83
82
81
80
79
78
77
76
75
75
74
74
74
75
75
75
75
75
76
75
76
77
78
79
79
80
81
82
82
84
83
84
85
85
86
86
86
86
86
86
86
86
86
86
87
87
87
87
88
89
90
90
91
92
93
93
94
95
96
96
97
98
99
99
100
102
103
103
104
105
106
107
107
108
108
110
110
110
110
109
109
109
109
109
109
109
108
108
108
108
108
107
107
107
107
108
107
107
107
107
108
108
109
108
108
107
107
108
109
109
110
110
111
111
111
111
110
110
110
109
110
110
110
110
110
110
110
109
108
108
108
108
108
109
109
109
109
110
109
109
108
108
108
108
107
108
108
107
107
106
105
106
105
104
104
102
102
101
99
99
97
96
94
91
90
88
86
83
81
79
76
72
68
65
61
56
52
46
41
35
30
24
19
13
8
1
-4
-9
-14
-18
-21
-24
-27
-29
-29
-29
-29
-27
-24
-21
-18
-13
-7
-1
5
11
20
28
37
45
55
63
71
79
87
94
100
106
111
116
121
124
127
130
132
134
134
136
137
136
136
136
136
136
135
134
134
132
132
130
129
128
128
127
127
126
126
125
124
124
123
123
122
121
121
119
119
119
117
117
116
116
114
113
112
112
111
110
110
109
108
107
107
107
106
106
106
105
106
105
105
104
104
104
104
104
104
104
104
105
105
105
106
106
106
107
107
107
107
106
106
106
106
106
106
106
106
105
105
105
105
104
104
104
104
103
103
103
103
102
103
104
103
104
105
104
105
106
107
108
110
110
110
111
112
112
112
111
111
110
110
109
108
108
106
106
105
104
105
104
103
102
101
101
99
99
99
99
98
97
97
97
97
96
95
95
95
95
94
95
95
95
95
96
95
96
95
96
96
95
96
96
96
95
95
95
94
95
94
95
95
95
95
96
95
95
95
95
94
94
94
93
94
93
93
93
93
94
94
94
93
94
93
93
93
92
91
91
90
89
88
87
87
86
86
87
86
86
85
86
86
84
85
85
84
85
85
85
86
85
85
86
85
85
85
84
83
83
83
82
82
80
80
79
79
78
78
77
77
76
75
74
72
71
70
70
69
68
68
68
67
67
67
66
66
64
63
63
62
60
60
59
58
57
57
56
56
55
54
54
54
53
53
53
53
52
52
52
52
51
52
52
53
52
52
53
53
53
52
53
53
52
53
52
53
52
52
52
52
51
50
50
50
50
49
50
51
51
52
52
52
53
53
53
54
54
55
55
55
55
55
55
56
55
56
56
55
56
56
56
56
56
57
57
57
57
57
58
58
58
58
59
59
59
59
60
60
60
61
63
63
64
66
67
68
69
71
72
72
74
75
75
76
77
79
79
80
81
82
81
82
83
83
84
83
84
84
84
83
82
82
82
82
81
82
82
81
82
82
83
83
84
84
85
86
86
87
88
88
89
89
89
90
90
90
91
92
92
93
94
94
95
95
96
96
97
97
97
97
97
98
98
99
99
99
99
99
99
99
100
100
100
100
100
100
100
99
99
99
98
98
98
98
97
97
97
97
97
98
97
97
97
96
96
95
95
94
94
93
93
93
93
92
92
92
92
92
92
91
92
92
92
92
92
92
92
92
92
92
92
91
90
90
90
89
89
89
89
89
89
90
90
90
90
90
90
91
91
91
91
91
92
92
92
93
94
94
94
94
95
94
94
95
95
96
96
96
96
95
96
95
95
96
95
95
96
96
96
96
95
94
94
94
93
92
92
91
89
89
88
87
86
85
84
83
83
82
82
82
83
84
84
84
85
86
86
87
88
88
89
89
89
89
89
89
90
91
91
92
91
91
91
92
92
91
91
91
91
91
91
90
90
91
91
91
91
91
92
92
92
92
93
93
94
95
95
95
95
95
96
96
96
95
95
95
96
96
95
95
96
96
95
96
96
96
96
96
96
96
95
97
97
97
97
97
97
97
97
97
97
97
97
96
97
96
95
95
94
93
92
91
90
90
89
89
89
89
89
89
90
90
90
90
92
92
93
92
93
93
94
94
94
95
94
95
95
94
94
94
93
93
93
92
92
91
90
90
90
89
89
89
89
89
89
90
91
92
92
92
93
93
94
95
95
96
96
96
96
96
96
96
95
95
95
94
94
93
92
91
91
90
90
91
90
90
90
89
89
89
88
88
89
89
89
90
90
90
90
91
92
92
92
93
93
94
94
94
95
94
94
94
94
93
93
93
93
93
94
94
94
94
95
95
95
95
95
95
94
94
94
94
94
94
94
94
95
94
95
95
95
95
96
96
97
97
96
97
96
97
96
96
96
95
95
94
95
94
94
93
92
92
92
92
91
91
90
90
89
88
88
88
89
89
89
90
91
92
93
93
93
93
95
95
96
96
97
96
97
96
96
95
94
94
93
92
92
91
90
89
88
87
87
86
86
85
85
84
82
82
81
81
80
80
78
78
78
78
78
78
78
78
78
78
78
78
77
77
76
75
75
74
73
72
71
71
70
70
70
69
69
68
68
68
67
68
68
69
70
71
71
72
73
73
75
76
77
78
79
80
81
82
82
84
85
84
85
85
86
86
86
85
85
84
84
84
84
84
84
84
84
84
84
84
84
84
84
85
85
85
85
85
85
86
87
87
88
88
89
90
90
90
90
91
92
92
93
94
94
94
94
94
95
94
94
94
94
95
95
96
96
97
97
98
97
97
96
96
96
96
97
97
97
96
96
96
96
96
96
97
97
98
98
98
98
99
99
99
98
99
98
99
98
99
99
99
100
100
100
100
100
100
100
101
101
101
101
101
101
102
102
102
103
102
102
101
101
101
100
100
100
98
97
97
96
94
92
90
89
87
85
83
81
78
76
73
70
68
64
61
58
54
49
46
40
35
29
24
18
12
6
0
-6
-12
-18
-24
-29
-32
-36
-38
-40
-41
-41
-41
-38
-36
-31
-26
-21
-15
-9
-1
7
14
23
32
40
48
56
64
72
78
83
89
94
99
103
106
109
111
113
116
117
118
119
120
121
122
122
123
123
123
124
123
123
123
123
124
124
122
122
121
120
118
117
116
115
114
112
111
110
109
106
106
104
103
101
100
99
98
96
96
95
94
94
93
94
94
93
93
93
93
93
92
93
93
93
92
92
92
92
92
92
92
92
93
93
93
93
94
95
95
96
96
98
98
98
99
98
98
97
98
97
97
96
96
96
95
96
96
95
94
94
94
94
93
94
93
93
93
92
92
92
91
91
92
91
91
91
91
92
91
91
91
90
91
90
91
91
90
90
90
90
90
91
91
91
92
92
92
93
93
94
94
95
96
96
97
97
96
96
96
96
95
95
95
93
93
92
92
91
91
91
91
91
90
90
89
89
88
87
86
85
85
84
84
82
82
82
82
81
81
81
81
81
80
80
80
80
80
80
80
80
79
79
79
80
80
80
81
81
81
81
81
81
80
79
78
77
76
75
74
73
72
71
71
70
70
69
68
68
68
68
67
67
67
68
68
68
67
67
66
66
65
66
65
64
63
63
64
64
64
64
64
64
64
63
63
62
61
61
60
60
59
59
59
58
57
57
57
57
57
55
55
55
54
53
52
52
51
51
51
51
50
50
50
50
50
51
51
51
50
50
50
49
48
47
46
46
45
45
44
43
42
42
41
39
39
37
37
36
36
35
34
34
33
33
33
33
33
33
33
33
33
34
35
36
37
38
38
39
39
40
41
41
41
42
42
42
42
42
42
43
43
43
44
45
45
46
48
49
49
51
52
52
53
54
54
55
55
56
57
58
57
59
59
59
60
61
62
62
64
64
65
66
67
68
69
71
71
72
73
73
73
73
73
73
74
73
73
74
74
74
74
75
74
75
75
75
75
75
75
75
76
77
77
78
78
79
79
80
80
80
81
81
81
81
82
81
82
82
83
83
83
83
83
84
84
84
85
85
86
87
88
89
89
90
90
90
90
90
90
90
90
90
91
91
92
92
92
92
92
91
92
91
91
91
90
89
88
88
87
87
86
86
86
85
85
84
84
84
84
84
83
84
84
84
84
85
84
84
86
86
85
85
85
85
85
85
85
85
85
84
84
84
84
83
82
82
81
80
80
80
79
79
79
79
79
79
80
80
81
83
83
84
84
84
85
86
85
86
86
86
86
85
85
85
85
85
85
85
84
83
83
83
83
83
82
82
81
80
80
80
80
79
79
80
79
80
80
80
81
81
81
81
81
81
81
81
81
81
81
82
82
82
83
83
83
84
85
85
85
84
85
85
85
86
86
85
85
85
85
84
84
84
83
83
83
83
83
83
83
82
82
82
81
81
81
81
81
80
80
82
81
81
81
81
81
82
82
83
83
85
86
86
88
88
88
89
88
89
89
89
89
89
89
89
89
89
89
89
89
89
89
88
88
88
88
88
87
87
87
87
87
87
87
87
87
88
89
88
88
89
89
89
89
89
90
90
89
89
90
89
89
90
90
90
90
90
90
90
89
90
90
90
91
90
90
90
89
90
90
89
88
88
88
86
87
86
86
86
86
86
86
85
86
86
85
85
85
84
85
85
85
85
86
85
86
87
88
88
89
89
90
90
91
91
92
91
92
91
91
92
91
92
92
92
93
93
93
93
93
93
92
93
93
93
94
93
93
93
93
93
93
93
93
92
92
93
93
93
92
93
93
93
93
93
93
93
92
92
92
92
91
91
90
90
90
91
91
92
93
93
94
95
95
95
96
97
97
97
97
97
96
96
96
96
96
96
96
96
95
94
94
94
93
92
92
91
91
91
91
91
91
92
92
93
93
93
94
93
94
94
94
94
95
95
95
95
95
95
95
94
93
93
93
92
92
93
93
93
93
92
93
93
93
93
93
93
93
93
92
92
93
93
93
93
94
95
96
96
96
97
97
97
97
97
97
97
97
96
96
95
95
94
93
91
90
89
88
87
86
85
85
84
84
84
83
83
83
84
84
84
84
85
85
85
85
86
85
86
86
86
86
86
85
84
83
82
81
80
79
77
76
75
75
74
72
72
72
70
70
70
70
70
69
70
70
70
68
68
68
68
68
69
70
71
71
72
72
73
74
74
75
76
76
77
78
78
79
80
81
81
81
81
81
83
83
84
85
85
85
85
86
86
87
88
88
89
88
89
89
90
90
90
91
92
93
94
93
95
95
95
96
96
96
96
96
96
95
95
93
93
93
93
92
93
92
92
92
92
92
92
92
92
93
92
93
93
93
94
94
96
96
97
98
98
100
101
103
103
105
105
106
106
106
106
106
105
106
105
105
104
103
102
102
102
100
101
101
100
100
99
100
100
101
101
100
101
100
101
101
101
101
100
100
99
100
100
99
99
99
98
98
97
97
96
95
94
94
92
91
91
89
87
86
84
82
80
77
74
71
68
65
61
56
51
46
40
34
28
21
16
9
1
-6
-13
-19
-25
-30
-36
-40
-43
-46
-48
-49
-49
-48
-46
-43
-39
-35
-29
-23
-16
-9
0
9
17
26
36
44
53
61
69
76
84
90
95
100
105
109
112
115
118
120
122
123
124
125
124
125
126
125
125
125
125
124
122
121
120
119
117
117
116
116
115
114
113
113
112
111
111
110
110
109
109
108
107
106
105
105
104
105
104
104
103
103
103
103
103
103
102
103
102
103
103
103
103
103
103
102
102
102
102
102
101
101
102
102
102
102
101
101
101
101
101
101
101
100
100
100
100
100
100
100
100
100
100
101
100
100
99
99
98
98
98
97
98
97
97
97
97
97
97
97
97
98
98
98
98
99
100
100
100
100
99
99
99
99
98
98
98
98
98
98
98
98
98
98
97
97
98
97
98
98
98
99
99
98
98
97
97
96
97
97
97
96
96
96
96
95
95
95
95
94
94
94
93
93
93
92
92
92
92
91
91
91
90
91
91
91
92
92
92
91
91
90
90
89
89
89
88
87
87
86
85
84
84
82
82
81
81
81
81
80
80
79
79
78
77
77
78
77
78
78
79
79
80
80
80
80
80
81
81
82
81
82
82
81
80
80
79
77
77
76
74
74
73
73
72
71
71
70
69
68
68
67
66
64
64
63
63
63
62
62
62
61
61
61
61
61
62
61
61
62
61
61
61
59
59
59
59
58
58
57
57
56
56
56
55
54
53
52
51
49
48
46
45
44
43
42
42
41
40
40
40
40
39
40
40
39
40
40
40
40
40
40
39
39
39
39
39
39
39
41
41
41
41
42
42
43
44
45
45
47
48
48
50
51
51
52
52
52
52
52
52
52
52
53
53
52
52
53
53
53
53
53
53
53
53
54
55
55
56
57
58
59
59
60
62
62
63
64
66
67
68
68
69
70
70
71
71
72
72
72
73
73
74
74
74
75
75
75
75
75
75
75
74
74
74
75
75
75
74
75
75
74
75
75
76
76
77
78
78
78
79
79
79
79
80
81
81
82
83
83
85
85
86
87
88
89
89
90
90
90
91
91
91
90
91
91
91
90
90
89
88
88
88
87
88
88
87
88
87
87
86
85
85
84
84
83
82
82
82
82
81
81
82
82
82
82
82
82
83
83
83
85
85
85
85
86
86
86
86
86
87
87
88
89
89
89
90
90
89
89
90
89
89
88
88
88
88
87
87
87
86
86
85
85
85
84
84
84
83
83
82
82
81
81
81
81
80
81
82
82
82
83
84
84
84
85
85
85
85
86
86
86
87
86
86
86
86
85
85
85
85
84
85
85
85
84
85
85
85
85
84
85
84
83
84
83
83
83
83
83
83
83
83
83
83
84
84
83
84
84
84
84
84
83
83
82
82
82
82
81
81
81
81
82
82
81
82
83
83
83
84
84
84
84
84
85
85
85
85
85
86
86
86
86
85
85
86
86
86
86
86
86
87
87
87
86
86
87
87
88
88
89
89
89
88
89
88
87
87
87
86
86
87
86
86
86
86
85
85
85
85
84
84
85
85
86
86
87
87
87
88
88
87
88
89
89
88
88
88
88
88
88
89
88
89
89
90
90
91
91
91
91
91
90
90
90
91
90
90
90
90
90
91
90
91
91
91
91
91
91
91
91
91
91
90
90
90
90
91
91
90
91
91
91
90
90
90
90
90
90
89
88
88
87
87
87
85
85
85
86
85
86
87
87
87
87
87
88
88
88
88
88
88
88
88
87
88
88
88
88
88
87
87
88
86
86
87
87
86
87
87
87
88
88
87
87
87
86
86
86
86
86
87
88
88
88
89
89
89
88
88
87
88
88
87
87
88
88
88
87
87
87
87
87
87
87
87
88
88
88
88
88
89
89
89
89
90
90
90
90
91
91
92
93
93
94
93
93
93
93
93
92
92
92
91
90
91
89
88
88
88
88
88
88
88
88
89
89
89
88
88
89
89
89
89
89
89
89
89
88
88
89
89
89
89
89
89
88
88
88
88
88
88
88
88
88
88
88
88
88
88
88
88
88
87
87
87
87
87
87
86
86
85
85
85
85
85
84
84
84
84
84
84
84
84
84
84
84
84
84
84
83
83
82
82
81
81
80
80
80
80
80
80
79
78
78
79
78
78
78
78
78
78
78
78
78
77
77
76
76
76
76
75
75
74
74
73
72
72
71
71
70
69
69
68
67
66
67
67
67
67
67
67
68
67
67
68
67
67
67
67
67
67
67
66
66
65
65
65
66
66
67
68
68
69
69
71
72
73
74
75
77
77
78
80
81
82
83
84
85
87
87
88
89
91
91
91
92
92
92
93
93
92
93
93
92
92
91
91
91
91
91
91
92
91
91
91
91
91
91
91
91
91
91
91
91
91
91
92
92
92
92
92
92
92
94
94
95
95
95
96
96
96
96
96
97
97
97
97
97
98
98
99
99
100
100
100
101
102
102
102
102
102
102
101
101
101
102
101
101
101
101
99
99
98
98
97
97
97
96
95
95
94
92
91
91
89
88
88
87
86
85
84
83
82
81
80
79
77
75
72
69
66
63
60
56
50
45
41
35
29
24
18
11
4
-4
-11
-18
-25
-32
-37
-43
-48
-52
-56
-58
-60
-61
-59
-57
-54
-50
-45
-38
-32
-24
-16
-6
3
12
22
31
40
49
58
65
73
80
86
93
98
103
106
110
113
115
117
119
120
121
121
120
120
119
119
118
117
116
116
114
113
112
113
112
111
110
109
109
108
107
107
105
104
104
103
102
102
100
100
99
99
99
99
98
98
98
97
97
97
97
97
97
97
97
97
98
97
98
98
98
98
98
98
99
98
97
98
97
96
96
96
96
95
95
94
95
94
93
93
93
93
93
93
93
93
93
92
93
92
92
92
92
91
90
90
89
88
88
88
87
87
87
87
87
87
87
87
87
88
89
90
91
92
93
94
95
94
94
95
95
96
96
96
96
96
96
95
95
95
93
93
92
90
89
89
87
86
85
85
83
83
82
82
83
83
84
84
84
85
85
85
86
86
87
87
89
89
89
90
90
90
90
90
90
90
90
90
89
88
87
87
86
86
85
85
84
83
83
82
81
81
81
82
81
82
82
82
82
82
82
82
82
81
80
79
79
78
76
76
75
74
73
73
73
71
71
70
69
69
68
68
67
67
67
67
68
68
68
68
69
69
69
70
70
69
69
68
68
67
66
66
64
63
62
62
61
59
58
57
56
55
55
54
54
53
53
52
52
52
52
52
52
52
51
51
50
49
48
48
47
47
46
46
46
46
46
46
45
44
44
44
42
42
42
42
41
40
40
40
39
39
39
38
38
38
38
38
38
39
38
38
38
37
38
37
37
38
37
37
38
38
39
38
39
38
38
37
37
37
37
36
37
36
36
36
35
35
35
34
34
34
34
35
35
36
38
38
39
40
39
40
41
41
42
42
43
44
44
46
46
48
48
48
49
50
51
52
52
53
53
54
55
55
55
56
56
56
56
57
56
57
58
59
59
61
61
61
63
64
64
65
65
66
67
67
68
69
70
71
72
73
73
74
74
75
75
76
76
76
77
77
78
78
78
77
77
77
77
76
77
77
78
78
79
79
79
80
81
82
82
83
82
83
83
84
84
84
83
83
83
82
82
82
82
81
81
81
80
79
78
78
78
77
77
77
76
77
78
78
78
79
80
80
80
81
81
82
82
81
81
81
81
82
82
82
81
81
81
80
80
80
80
80
82
82
82
83
83
83
83
84
85
85
85
85
84
84
84
83
83
83
83
82
82
81
81
80
80
79
80
80
79
79
79
79
80
80
80
81
80
81
82
83
84
83
85
85
85
85
85
85
85
84
84
83
83
81
82
81
82
81
81
81
81
81
80
81
81
81
81
81
81
82
81
82
82
83
83
83
84
83
83
83
83
83
83
83
83
83
83
83
82
82
82
80
80
79
79
78
79
78
78
79
79
79
80
79
80
80
80
80
81
81
82
82
82
83
83
83
83
83
83
83
83
83
83
83
83
84
83
83
83
82
82
83
83
83
83
83
82
82
84
85
85
86
86
86
87
87
87
86
86
86
86
86
87
87
86
86
86
86
85
85
84
84
85
86
86
87
87
87
87
87
86
86
85
85
85
85
85
85
85
86
85
85
85
86
86
85
84
84
84
84
84
86
86
86
86
86
86
86
86
87
87
88
88
89
89
89
89
88
88
88
88
88
87
86
86
87
86
86
86
86
86
87
86
87
87
87
87
87
87
87
86
86
86
85
85
85
85
86
86
87
88
88
88
89
89
89
91
91
91
92
92
93
92
93
93
93
92
93
92
92
92
91
91
91
91
90
90
89
89
88
88
88
88
88
88
87
88
88
89
89
90
91
92
93
93
94
94
94
95
95
96
98
98
98
98
98
98
98
98
98
98
97
97
95
95
94
93
91
90
88
87
86
85
84
83
83
83
83
83
84
85
86
86
88
89
89
89
89
91
91
91
91
90
90
91
90
90
89
89
89
88
88
88
89
89
89
89
89
90
90
90
90
91
91
91
92
93
93
94
94
94
94
95
94
94
94
94
94
93
92
91
91
91
90
90
89
88
88
88
87
88
88
88
89
89
89
90
90
90
90
90
90
91
90
90
89
89
88
88
88
88
88
87
87
87
86
85
84
84
83
83
82
82
81
81
81
80
80
81
81
81
81
81
81
81
81
80
79
80
79
78
79
78
77
77
76
76
75
74
74
74
73
72
72
71
71
70
70
69
69
69
69
68
67
67
67
67
67
68
68
69
69
70
71
70
71
71
71
71
71
72
72
72
72
72
72
73
73
74
75
75
75
76
76
77
78
78
80
80
81
81
82
83
84
84
85
86
86
87
88
89
89
91
91
93
93
94
94
94
95
96
97
97
98
99
99
100
101
101
102
103
102
103
103
102
102
102
102
101
100
100
99
99
98
98
96
96
95
95
95
94
94
94
94
95
95
95
96
96
96
96
97
97
97
97
98
98
99
100
100
101
100
101
101
102
101
101
102
102
102
101
101
101
101
101
101
102
102
102
103
103
104
105
104
105
105
105
105
104
104
104
104
103
102
101
100
99
98
97
96
94
92
91
90
87
85
83
79
77
74
70
66
62
56
52
46
41
36
30
25
18
12
6
-1
-8
-14
-20
-26
-31
-36
-41
-44
-46
-48
-48
-48
-47
-44
-41
-37
-32
-27
-19
-12
-4
5
14
23
32
41
50
58
67
75
82
89
96
102
108
113
117
120
122
125
127
128
130
130
131
130
131
130
130
129
128
128
127
126
125
124
123
122
121
121
120
120
119
118
118
116
116
115
114
114
113
113
112
112
112
112
111
111
110
111
110
110
109
109
109
108
107
107
106
106
105
105
105
104
104
104
104
103
103
104
104
105
105
105
105
106
106
107
106
107
107
106
107
107
107
107
106
107
107
105
105
104
104
103
104
103
103
102
102
101
102
101
101
101
101
102
101
101
101
101
101
101
102
102
101
101
101
100
100
100
100
100
99
100
101
101
100
101
100
101
101
101
101
100
100
101
101
101
100
99
99
98
98
98
98
98
98
98
98
99
99
99
100
99
98
98
98
97
97
97
97
97
98
98
97
98
97
97
97
96
97
96
96
96
95
94
94
94
93
93
93
92
92
93
92
92
92
92
91
92
91
91
90
90
89
90
89
89
88
88
88
88
87
86
87
86
86
85
85
86
86
85
85
84
84
84
83
82
82
82
81
81
80
80
80
80
79
79
79
78
78
77
76
76
75
75
74
73
72
71
71
70
69
68
67
66
66
65
65
63
63
62
62
61
60
59
59
58
58
57
57
57
57
56
56
56
55
55
54
53
53
53
52
51
50
50
50
48
48
48
48
47
47
47
47
47
48
48
48
49
49
50
50
50
50
50
50
50
49
49
49
51
51
51
51
49
49
48
48
48
48
47
47
47
47
46
46
46
47
47
47
48
48
48
48
49
50
51
52
53
53
54
55
54
54
55
55
56
55
55
55
55
55
55
56
57
57
