# Simple Text Format
# Sampling Rate (Hz):= 1200.00
# Resolution:= 12
# Labels:= ECG	 V1
# Age:=	14
# Gender:=	Masculino
-425
-425
-425
-426
-426
-426
-426
-426
-426
-426
-426
-426
-426
-426
-426
-426
-426
-426
-426
-426
-426
-426
-426
-426
-426
-426
-426
-426
-426
-426
-426
-426
-426
-426
-426
-426
-426
-426
-426
-426
-426
-426
-426
-426
-426
-426
-426
-426
-426
-426
-426
-426
-426
-426
-426
-426
-426
-426
-427
-426
-426
-426
-426
-426
-426
-426
-425
-425
-425
-425
-425
-425
-425
-424
-424
-424
-424
-424
-424
-424
-424
-425
-425
-425
-425
-425
-425
-425
-425
-426
-426
-426
-426
-426
-426
-425
-425
-425
-425
-425
-426
-426
-426
-426
-426
-426
-426
-426
-426
-426
-426
-426
-426
-426
-426
-426
-426
-426
-426
-426
-426
-425
-425
-425
-425
-425
-425
-424
-424
-424
-424
-424
-424
-424
-424
-424
-424
-424
-424
-424
-424
-424
-424
-425
-425
-425
-425
-425
-425
-425
-425
-425
-425
-425
-425
-425
-425
-425
-425
-425
-425
-425
-425
-425
-425
-425
-425
-425
-425
-425
-425
-425
-425
-425
-425
-425
-425
-425
-425
-426
-426
-426
-426
-426
-426
-426
-426
-426
-426
-426
-426
-426
-426
-426
-426
-426
-426
-426
-425
-426
-426
-426
-426
-426
-427
-427
-427
-427
-427
-427
-427
-427
-427
-427
-426
-426
-426
-426
-426
-426
-426
-426
-426
-426
-426
-427
-427
-427
-427
-427
-427
-427
-427
-427
-427
-427
-427
-427
-427
-427
-427
-427
-427
-427
-427
-427
-427
-427
-427
-427
-427
-427
-427
-427
-427
-427
-427
-426
-426
-426
-426
-426
-426
-426
-426
-426
-426
-426
-426
-426
-426
-426
-426
-425
-425
-426
-426
-426
-426
-426
-427
-427
-426
-426
-426
-426
-426
-426
-426
-426
-426
-426
-426
-426
-426
-426
-426
-426
-426
-426
-426
-426
-426
-426
-425
-426
-426
-426
-426
-426
-426
-426
-426
-427
-427
-427
-427
-427
-427
-427
-427
-428
-428
-428
-428
-428
-428
-428
-428
-428
-427
-427
-427
-427
-427
-427
-427
-427
-427
-427
-427
-427
-427
-427
-426
-426
-427
-427
-427
-427
-427
-427
-427
-427
-427
-427
-427
-426
-426
-426
-426
-426
-426
-426
-426
-426
-426
-426
-426
-426
-426
-427
-427
-427
-427
-427
-427
-427
-427
-427
-427
-427
-427
-427
-427
-427
-427
-427
-427
-427
-427
-427
-427
-427
-427
-427
-427
-427
-427
-427
-427
-427
-427
-427
-427
-427
-427
-427
-427
-427
-427
-427
-427
-428
-428
-428
-427
-427
-427
-427
-427
-427
-427
-427
-426
-426
-426
-427
-427
-427
-427
-427
-427
-427
-427
-426
-426
-426
-426
-426
-426
-427
-427
-427
-427
-427
-427
-427
-426
-426
-426
-426
-426
-426
-426
-426
-426
-426
-426
-426
-426
-426
-426
-426
-426
-426
-426
-425
-425
-426
-426
-426
-426
-426
-426
-426
-426
-426
-426
-426
-426
-426
-426
-426
-426
-426
-426
-425
-425
-425
-426
-426
-426
-426
-426
-426
-426
-426
-426
-426
-426
-426
-426
-426
-426
-426
-426
-426
-426
-426
-426
-427
-427
-427
-427
-427
-426
-426
-426
-426
-426
-426
-426
-426
-426
-426
-426
-426
-426
-427
-427
-427
-427
-427
-427
-427
-426
-426
-426
-426
-426
-426
-426
-426
-426
-426
-426
-426
-426
-426
-426
-426
-426
-426
-426
-427
-427
-427
-427
-427
-427
-427
-427
-427
-427
-427
-427
-428
-428
-427
-427
-427
-427
-427
-426
-426
-426
-425
-425
-425
-425
-425
-425
-424
-424
-424
-423
-424
-424
-423
-424
-423
-423
-423
-423
-423
-423
-424
-423
-423
-424
-424
-423
-424
-424
-425
-425
-426
-426
-428
-428
-430
-431
-433
-434
-436
-437
-439
-441
-442
-445
-447
-448
-450
-451
-453
-454
-455
-456
-456
-457
-457
-457
-456
-457
-456
-455
-454
-453
-452
-452
-451
-450
-449
-448
-447
-446
-445
-445
-443
-443
-442
-442
-442
-440
-440
-440
-439
-439
-439
-438
-438
-438
-437
-436
-436
-435
-435
-434
-434
-433
-433
-432
-431
-431
-431
-430
-429
-429
-428
-427
-426
-426
-426
-425
-424
-424
-423
-422
-422
-422
-421
-421
-421
-421
-420
-420
-420
-420
-419
-419
-419
-420
-419
-419
-419
-419
-419
-419
-419
-419
-419
-419
-419
-419
-419
-419
-419
-419
-419
-419
-419
-419
-419
-419
-419
-419
-419
-419
-419
-419
-419
-419
-420
-420
-420
-420
-419
-419
-419
-419
-419
-419
-419
-419
-419
-419
-419
-419
-419
-419
-419
-419
-420
-420
-420
-420
-420
-420
-420
-420
-420
-420
-420
-419
-419
-419
-418
-418
-418
-418
-417
-417
-417
-417
-418
-417
-418
-419
-420
-422
-424
-427
-430
-433
-438
-443
-447
-454
-460
-466
-473
-481
-488
-495
-503
-511
-518
-525
-532
-538
-542
-547
-551
-554
-557
-559
-560
-561
-560
-559
-558
-555
-551
-546
-542
-537
-531
-524
-519
-512
-507
-500
-494
-488
-481
-476
-470
-465
-460
-456
-451
-448
-444
-441
-439
-437
-436
-435
-434
-433
-432
-432
-432
-431
-431
-430
-430
-429
-429
-428
-427
-426
-425
-424
-424
-422
-422
-421
-420
-420
-419
-417
-417
-417
-416
-416
-415
-415
-415
-414
-414
-414
-414
-414
-414
-414
-413
-413
-414
-414
-414
-414
-414
-414
-414
-414
-414
-414
-414
-414
-414
-414
-414
-414
-414
-413
-413
-414
-413
-413
-413
-412
-412
-412
-412
-412
-412
-412
-412
-412
-412
-412
-412
-412
-412
-412
-412
-412
-412
-412
-413
-413
-413
-413
-413
-413
-413
-413
-413
-413
-413
-413
-413
-413
-413
-412
-412
-412
-412
-413
-413
-413
-413
-413
-413
-413
-413
-413
-413
-413
-413
-413
-413
-414
-414
-414
-413
-413
-413
-413
-414
-414
-414
-414
-414
-414
-414
-414
-414
-414
-414
-414
-414
-414
-415
-415
-415
-415
-415
-415
-415
-415
-415
-415
-415
-415
-415
-415
-415
-416
-416
-416
-416
-416
-416
-417
-417
-417
-417
-417
-417
-418
-418
-418
-418
-418
-418
-418
-418
-418
-417
-417
-417
-417
-417
-417
-418
-418
-418
-418
-418
-418
-419
-419
-419
-419
-419
-419
-419
-419
-420
-420
-420
-420
-420
-420
-421
-421
-421
-421
-421
-421
-421
-421
-422
-422
-422
-421
-422
-422
-422
-422
-422
-422
-422
-422
-422
-422
-422
-422
-423
-423
-423
-423
-423
-423
-423
-423
-423
-423
-423
-423
-424
-424
-424
-424
-425
-425
-425
-426
-426
-425
-425
-426
-426
-426
-426
-427
-427
-427
-427
-427
-428
-428
-428
-428
-429
-429
-429
-429
-430
-429
-429
-430
-431
-430
-430
-430
-431
-431
-431
-431
-432
-432
-432
-432
-433
-433
-433
-433
-433
-433
-433
-433
-433
-433
-433
-434
-435
-435
-435
-435
-436
-436
-435
-436
-436
-437
-437
-438
-438
-439
-439
-439
-439
-440
-440
-441
-441
-441
-441
-442
-442
-442
-443
-443
-444
-444
-444
-445
-445
-445
-445
-445
-445
-446
-446
-446
-446
-447
-447
-447
-448
-448
-447
-448
-448
-449
-450
-450
-450
-451
-450
-450
-452
-452
-452
-452
-452
-453
-453
-453
-453
-454
-454
-454
-454
-455
-455
-455
-455
-455
-456
-456
-456
-456
-456
-456
-456
-455
-455
-455
-455
-455
-455
-454
-454
-454
-453
-454
-453
-453
-452
-452
-451
-451
-451
-450
-450
-449
-448
-449
-448
-447
-447
-446
-446
-445
-444
-444
-444
-443
-442
-441
-441
-440
-439
-438
-439
-438
-437
-436
-436
-435
-434
-433
-433
-432
-432
-431
-431
-430
-430
-429
-428
-428
-428
-427
-426
-425
-426
-425
-424
-424
-424
-423
-423
-422
-422
-422
-421
-421
-422
-421
-421
-421
-421
-421
-420
-420
-421
-421
-420
-420
-420
-420
-420
-420
-420
-419
-419
-419
-420
-419
-419
-419
-418
-418
-418
-418
-418
-418
-417
-417
-417
-417
-416
-416
-416
-416
-415
-416
-416
-416
-416
-415
-415
-415
-415
-415
-415
-415
-415
-415
-415
-415
-415
-415
-415
-415
-415
-415
-415
-416
-416
-416
-416
-416
-417
-416
-416
-416
-416
-416
-416
-416
-416
-417
-417
-417
-417
-417
-417
-417
-417
-417
-417
-417
-417
-417
-417
-417
-418
-418
-417
-417
-418
-418
-418
-418
-418
-418
-418
-418
-418
-418
-418
-418
-418
-418
-418
-418
-418
-418
-418
-417
-417
-417
-417
-417
-417
-417
-417
-417
-417
-418
-418
-418
-418
-418
-418
-418
-418
-418
-418
-419
-419
-419
-419
-419
-419
-419
-419
-419
-419
-419
-419
-419
-419
-419
-419
-419
-419
-419
-419
-419
-419
-420
-419
-419
-419
-419
-419
-419
-420
-419
-419
-419
-419
-419
-419
-419
-419
-419
-419
-419
-419
-419
-418
-418
-418
-418
-418
-418
-418
-418
-418
-418
-418
-418
-418
-418
-417
-417
-417
-417
-417
-418
-418
-418
-419
-419
-419
-419
-419
-419
-419
-419
-419
-420
-420
-420
-419
-419
-419
-419
-419
-419
-419
-419
-419
-419
-420
-420
-420
-420
-420
-420
-419
-419
-419
-419
-419
-419
-419
-420
-420
-419
-419
-419
-419
-419
-419
-419
-419
-419
-419
-419
-419
-419
-419
-419
-419
-419
-419
-419
-419
-419
-420
-420
-420
-420
-421
-421
-421
-421
-421
-421
-420
-421
-421
-421
-421
-421
-421
-421
-421
-421
-421
-421
-421
-421
-421
-421
-421
-421
-421
-420
-420
-420
-420
-420
-420
-419
-420
-420
-420
-420
-420
-420
-420
-419
-419
-419
-419
-420
-420
-420
-420
-420
-420
-420
-420
-419
-419
-420
-420
-420
-420
-420
-420
-420
-420
-420
-420
-421
-420
-420
-420
-420
-420
-420
-421
-421
-420
-420
-420
-420
-420
-420
-420
-420
-420
-420
-420
-420
-420
-421
-421
-421
-421
-421
-421
-421
-421
-421
-421
-421
-421
-421
-421
-421
-421
-421
-420
-421
-421
-421
-421
-421
-421
-421
-421
-421
-421
-421
-421
-421
-421
-421
-421
-421
-421
-422
-422
-422
-422
-421
-421
-421
-421
-421
-421
-421
-421
-420
-420
-421
-421
-421
-421
-421
-420
-420
-420
-420
-420
-420
-420
-420
-420
-420
-420
-420
-420
-420
-420
-420
-420
-420
-420
-420
-420
-419
-419
-420
-420
-420
-420
-420
-420
-420
-420
-420
-420
-421
-420
-420
-420
-420
-420
-420
-420
-420
-420
-420
-420
-420
-421
-420
-420
-420
-420
-420
-419
-419
-419
-420
-420
-420
-420
-420
-420
-419
-419
-419
-419
-419
-419
-419
-419
-419
-419
-419
-419
-419
-419
-419
-419
-419
-419
-419
-419
-419
-419
-419
-418
-419
-419
-419
-419
-419
-418
-418
-418
-419
-419
-419
-419
-420
-419
-419
-419
-419
-419
-419
-419
-419
-419
-419
-419
-419
-420
-420
-420
-420
-420
-420
-420
-420
-421
-420
-420
-420
-421
-421
-421
-421
-421
-420
-420
-420
-420
-420
-420
-419
-420
-420
-420
-420
-419
-419
-420
-420
-420
-420
-419
-419
-419
-420
-420
-420
-420
-420
-420
-420
-420
-420
-420
-420
-420
-420
-419
-419
-419
-419
-419
-419
-419
-419
-419
-419
-420
-420
-420
-419
-419
-419
-419
-419
-419
-418
-418
-419
-419
-419
-418
-418
-418
-418
-418
-418
-418
-418
-418
-417
-417
-417
-417
-418
-418
-418
-418
-418
-417
-417
-417
-417
-417
-417
-417
-417
-417
-417
-417
-418
-418
-418
-418
-418
-418
-418
-418
-418
-418
-418
-418
-418
-418
-418
-419
-419
-419
-419
-418
-418
-418
-418
-418
-418
-417
-417
-417
-417
-416
-416
-416
-416
-416
-416
-416
-416
-416
-416
-416
-416
-416
-416
-415
-415
-415
-415
-416
-416
-416
-416
-416
-416
-416
-416
-417
-417
-417
-417
-417
-417
-416
-416
-416
-417
-417
-416
-416
-416
-416
-416
-416
-416
-415
-415
-415
-415
-415
-415
-415
-415
-414
-414
-414
-414
-414
-414
-414
-414
-414
-414
-414
-414
-414
-415
-415
-415
-415
-415
-415
-415
-415
-415
-415
-415
-415
-415
-415
-415
-415
-415
-413
-413
-413
-413
-413
-414
-414
-414
-414
-414
-414
-414
-414
-414
-414
-414
-414
-414
-414
-413
-413
-413
-414
-414
-414
-414
-414
-414
-414
-413
-413
-413
-413
-413
-413
-413
-412
-412
-412
-412
-412
-412
-412
-412
-412
-412
-412
-412
-412
-411
-411
-411
-411
-412
-412
-412
-412
-412
-412
-412
-411
-411
-411
-411
-411
-411
-411
-412
-412
-411
-411
-411
-411
-411
-411
-411
-411
-411
-411
-411
-411
-411
-411
-411
-411
-411
-411
-411
-411
-411
-411
-411
-410
-410
-410
-410
-410
-410
-410
-410
-410
-410
-410
-410
-410
-410
-410
-409
-409
-409
-409
-409
-409
-409
-409
-409
-409
-409
-409
-409
-409
-409
-409
-409
-409
-409
-409
-409
-409
-409
-409
-409
-409
-409
-409
-409
-409
-409
-409
-408
-408
-407
-407
-406
-406
-406
-406
-406
-406
-406
-406
-405
-405
-406
-405
-406
-406
-406
-406
-406
-406
-407
-406
-407
-407
-407
-408
-408
-408
-409
-409
-409
-410
-411
-412
-413
-413
-415
-416
-417
-419
-421
-422
-424
-425
-426
-427
-429
-430
-431
-432
-433
-434
-434
-435
-435
-435
-434
-434
-434
-433
-433
-432
-432
-431
-430
-429
-428
-428
-427
-426
-424
-424
-423
-423
-422
-421
-420
-420
-420
-418
-418
-418
-417
-416
-416
-416
-415
-415
-414
-414
-413
-413
-413
-412
-411
-410
-410
-409
-409
-408
-407
-407
-406
-405
-405
-404
-403
-403
-402
-402
-401
-401
-400
-400
-399
-400
-400
-399
-399
-399
-398
-398
-398
-398
-398
-397
-397
-397
-397
-397
-397
-397
-397
-397
-397
-397
-396
-397
-397
-397
-396
-396
-396
-396
-396
-396
-395
-395
-395
-395
-395
-395
-395
-395
-395
-395
-395
-396
-396
-397
-396
-396
-397
-397
-397
-397
-397
-397
-397
-397
-397
-397
-398
-398
-398
-398
-398
-397
-397
-397
-397
-397
-397
-397
-396
-395
-395
-394
-394
-394
-393
-392
-393
-392
-392
-392
-392
-392
-392
-391
-392
-393
-394
-396
-397
-400
-403
-407
-410
-415
-420
-426
-431
-438
-444
-452
-459
-466
-473
-480
-486
-493
-498
-503
-508
-511
-514
-516
-519
-519
-519
-520
-518
-516
-513
-509
-505
-500
-495
-489
-484
-478
-472
-466
-461
-454
-448
-443
-437
-433
-428
-423
-419
-416
-412
-410
-407
-406
-404
-403
-402
-402
-401
-400
-401
-401
-400
-400
-400
-400
-399
-400
-400
-398
-398
-398
-397
-395
-395
-394
-393
-392
-392
-391
-391
-390
-389
-389
-388
-388
-388
-387
-387
-387
-387
-387
-387
-387
-387
-387
-387
-387
-387
-387
-387
-386
-386
-387
-387
-387
-387
-386
-386
-386
-386
-386
-386
-386
-386
-386
-385
-385
-385
-385
-385
-385
-385
-385
-385
-385
-384
-384
-384
-383
-383
-383
-384
-384
-384
-384
-384
-384
-384
-384
-383
-384
-384
-384
-384
-384
-384
-384
-384
-384
-384
-384
-384
-384
-384
-384
-384
-384
-383
-383
-383
-383
-383
-383
-383
-383
-383
-383
-383
-383
-383
-383
-383
-383
-383
-383
-383
-383
-383
-383
-383
-383
-383
-383
-382
-382
-382
-382
-382
-382
-382
-382
-382
-383
-383
-383
-383
-382
-382
-382
-382
-383
-383
-383
-383
-383
-383
-383
-383
-383
-383
-383
-383
-382
-382
-382
-382
-381
-381
-381
-381
-381
-381
-380
-380
-380
-380
-381
-381
-381
-381
-381
-381
-381
-382
-381
-381
-381
-381
-381
-381
-382
-382
-382
-382
-382
-382
-382
-382
-382
-383
-383
-382
-382
-382
-382
-382
-382
-382
-382
-382
-382
-382
-382
-382
-382
-382
-382
-382
-382
-382
-382
-382
-382
-382
-383
-383
-383
-383
-382
-382
-382
-382
-383
-382
-382
-383
-383
-383
-383
-383
-383
-383
-383
-383
-384
-383
-383
-383
-384
-384
-384
-384
-384
-384
-384
-384
-384
-384
-384
-384
-384
-385
-385
-385
-385
-384
-384
-384
-384
-384
-384
-385
-385
-385
-385
-385
-385
-385
-386
-386
-386
-386
-386
-386
-386
-386
-386
-386
-386
-386
-387
-386
-386
-386
-386
-386
-387
-387
-387
-387
-388
-388
-388
-388
-388
-389
-389
-389
-389
-389
-389
-389
-390
-390
-390
-390
-390
-389
-390
-391
-391
-391
-390
-390
-390
-390
-391
-392
-392
-391
-391
-391
-391
-391
-391
-392
-392
-392
-392
-392
-393
-393
-393
-393
-394
-394
-394
-395
-395
-395
-396
-396
-397
-397
-397
-397
-397
-397
-397
-397
-397
-397
-398
-398
-398
-398
-398
-398
-397
-397
-397
-397
-397
-397
-397
-397
-396
-396
-396
-396
-396
-396
-396
-395
-395
-394
-395
-394
-394
-393
-393
-392
-392
-392
-391
-391
-390
-389
-389
-388
-387
-387
-386
-385
-384
-383
-383
-383
-382
-381
-380
-380
-379
-378
-377
-376
-376
-375
-375
-374
-374
-373
-372
-371
-370
-371
-370
-369
-368
-369
-368
-367
-367
-366
-366
-365
-365
-364
-363
-363
-363
-362
-362
-361
-361
-361
-360
-360
-359
-359
-359
-358
-358
-357
-358
-358
-357
-357
-356
-357
-356
-356
-356
-355
-355
-356
-356
-355
-355
-355
-355
-354
-354
-354
-354
-354
-354
-354
-354
-354
-352
-352
-352
-352
-353
-352
-352
-352
-352
-352
-351
-351
-351
-351
-351
-351
-351
-351
-351
-351
-352
-351
-351
-351
-351
-351
-351
-352
-352
-351
-351
-351
-352
-352
-352
-352
-352
-352
-352
-352
-352
-352
-352
-352
-352
-352
-352
-352
-352
-352
-352
-353
-353
-352
-352
-352
-352
-352
-352
-352
-351
-351
-350
-350
-350
-350
-350
-350
-350
-350
-350
-350
-350
-349
-349
-349
-349
-349
-349
-349
-349
-349
-348
-347
-347
-347
-347
-347
-347
-347
-347
-347
-347
-347
-347
-347
-347
-347
-347
-347
-347
-347
-347
-347
-347
-347
-347
-347
-347
-346
-346
-346
-346
-346
-345
-345
-345
-345
-345
-345
-345
-345
-345
-345
-345
-345
-344
-344
-345
-345
-345
-344
-344
-344
-344
-344
-344
-344
-344
-344
-343
-343
-343
-343
-343
-343
-343
-343
-343
-343
-343
-342
-342
-343
-342
-342
-342
-342
-342
-342
-342
-342
-342
-341
-341
-341
-341
-342
-342
-341
-341
-341
-341
-341
-341
-341
-341
-341
-341
-341
-341
-340
-340
-341
-341
-341
-341
-341
-341
-341
-341
-340
-341
-341
-341
-340
-340
-340
-341
-341
-341
-341
-340
-340
-340
-340
-340
-340
-339
-339
-339
-339
-339
-339
-339
-340
-340
-339
-339
-339
-339
-340
-338
-338
-338
-338
-338
-338
-338
-338
-338
-338
-338
-338
-338
-338
-338
-339
-339
-338
-338
-338
-338
-338
-338
-338
-338
-338
-338
-338
-339
-339
-339
-339
-339
-339
-338
-338
-338
-338
-338
-339
-339
-339
-339
-339
-338
-338
-339
-339
-339
-339
-339
-339
-339
-339
-339
-339
-339
-339
-339
-340
-339
-339
-339
-339
-339
-339
-339
-339
-339
-339
-338
-338
-338
-339
-338
-338
-338
-338
-338
-337
-338
-338
-338
-338
-338
-338
-339
-338
-338
-338
-338
-338
-339
-339
-339
-339
-339
-339
-339
-339
-339
-338
-339
-339
-339
-339
-339
-338
-338
-338
-338
-338
-338
-338
-337
-337
-337
-337
-337
-337
-338
-338
-338
-338
-339
-338
-338
-339
-339
-340
-340
-340
-339
-340
-340
-340
-340
-341
-341
-341
-340
-340
-340
-340
-340
-340
-339
-339
-339
-339
-339
-339
-339
-338
-338
-338
-338
-338
-338
-338
-338
-338
-338
-338
-338
-338
-338
-338
-338
-337
-337
-337
-337
-337
-337
-337
-337
-337
-337
-337
-337
-337
-337
-337
-338
-338
-338
-338
-337
-337
-337
-337
-338
-338
-338
-338
-338
-338
-338
-339
-338
-338
-338
-338
-338
-338
-338
-338
-338
-338
-338
-338
-338
-338
-336
-337
-337
-337
-337
-337
-337
-337
-337
-337
-337
-337
-337
-336
-336
-336
-336
-336
-336
-336
-336
-336
-336
-337
-337
-337
-337
-337
-337
-337
-337
-337
-337
-337
-336
-336
-336
-336
-336
-336
-336
-336
-336
-336
-336
-336
-336
-336
-336
-337
-337
-337
-337
-337
-337
-337
-337
-338
-338
-337
-337
-337
-337
-337
-337
-337
-337
-337
-338
-338
-338
-338
-337
-337
-338
-338
-338
-338
-338
-338
-338
-339
-339
-339
-339
-338
-339
-339
-339
-339
-339
-339
-339
-339
-339
-339
-339
-339
-339
-339
-338
-338
-338
-338
-338
-338
-339
-338
-338
-338
-338
-338
-338
-338
-338
-338
-338
-339
-339
-339
-339
-339
-338
-338
-338
-338
-338
-339
-339
-339
-339
-338
-338
-338
-338
-338
-338
-338
-338
-338
-339
-339
-339
-339
-339
-339
-339
-339
-339
-339
-339
-339
-339
-339
-339
-339
-339
-339
-339
-339
-339
-339
-339
-339
-338
-338
-338
-338
-338
-339
-339
-339
-339
-339
-339
-339
-340
-340
-340
-340
-340
-340
-340
-340
-340
-340
-340
-340
-340
-340
-340
-340
-340
-340
-340
-340
-340
-340
-339
-339
-340
-340
-340
-340
-340
-340
-340
-340
-340
-339
-339
-339
-339
-339
-339
-339
-339
-339
-340
-340
-340
-340
-340
-340
-340
-341
-341
-341
-341
-341
-341
-341
-341
-341
-341
-341
-341
-340
-340
-340
-340
-340
-340
-340
-340
-341
-341
-341
-340
-340
-340
-340
-340
-340
-340
-340
-340
-340
-340
-340
-340
-340
-340
-341
-341
-341
-341
-341
-341
-341
-341
-341
-341
-341
-341
-342
-342
-342
-342
-342
-341
-341
-341
-342
-342
-342
-342
-342
-341
-341
-341
-341
-341
-341
-341
-341
-341
-341
-341
-341
-341
-341
-340
-340
-340
-340
-341
-341
-341
-341
-341
-341
-341
-341
-341
-341
-341
-341
-341
-341
-341
-342
-342
-342
-342
-342
-342
-342
-342
-342
-342
-343
-343
-342
-342
-342
-342
-342
-342
-342
-342
-342
-342
-342
-342
-343
-343
-343
-343
-343
-343
-343
-343
-343
-343
-343
-343
-343
-343
-343
-342
-342
-342
-342
-342
-342
-342
-342
-342
-342
-342
-342
-342
-342
-342
-342
-342
-342
-342
-342
-342
-342
-343
-343
-343
-343
-343
-342
-342
-342
-342
-342
-343
-343
-343
-343
-343
-343
-343
-343
-343
-343
-343
-343
-343
-343
-343
-342
-342
-342
-342
-342
-342
-342
-342
-342
-342
-342
-342
-342
-342
-341
-342
-342
-342
-343
-342
-342
-343
-343
-343
-343
-343
-343
-343
-343
-344
-343
-344
-345
-345
-346
-346
-347
-347
-349
-350
-351
-353
-354
-356
-357
-359
-361
-362
-364
-366
-366
-368
-369
-370
-371
-372
-372
-372
-373
-373
-373
-372
-372
-371
-371
-370
-369
-370
-369
-368
-367
-366
-366
-365
-363
-362
-362
-362
-361
-361
-360
-359
-358
-358
-358
-357
-357
-357
-357
-356
-356
-355
-355
-354
-354
-354
-353
-353
-352
-351
-350
-350
-349
-349
-348
-348
-347
-347
-346
-345
-345
-345
-344
-344
-343
-344
-343
-342
-342
-342
-342
-342
-342
-342
-341
-341
-341
-341
-342
-342
-342
-342
-342
-341
-341
-341
-341
-341
-341
-341
-341
-341
-342
-342
-342
-342
-342
-341
-341
-341
-341
-341
-341
-341
-341
-341
-341
-341
-341
-341
-341
-341
-341
-341
-342
-341
-341
-341
-341
-341
-341
-342
-342
-341
-342
-342
-342
-342
-343
-342
-342
-342
-342
-343
-343
-343
-343
-343
-343
-343
-342
-342
-342
-341
-340
-340
-340
-340
-340
-339
-340
-340
-341
-341
-342
-344
-345
-347
-350
-355
-359
-363
-368
-373
-378
-385
-392
-399
-407
-414
-422
-429
-436
-444
-450
-455
-461
-466
-470
-473
-476
-478
-480
-480
-480
-479
-477
-474
-471
-468
-462
-458
-452
-446
-440
-435
-428
-422
-416
-410
-404
-398
-393
-387
-383
-379
-375
-371
-367
-365
-363
-361
-359
-358
-357
-357
-355
-355
-355
-355
-356
-355
-354
-354
-354
-354
-353
-352
-351
-350
-350
-349
-348
-348
-347
-347
-346
-345
-345
-344
-344
-343
-343
-342
-342
-342
-342
-342
-342
-342
-342
-341
-341
-341
-341
-341
-341
-342
-341
-341
-341
-341
-342
-342
-342
-342
-342
-342
-342
-343
-343
-343
-342
-342
-342
-343
-343
-343
-343
-343
-343
-343
-342
-343
-343
-343
-343
-343
-343
-342
-342
-343
-343
-343
-343
-343
-343
-343
-344
-344
-344
-344
-343
-343
-344
-344
-344
-344
-344
-344
-345
-344
-344
-344
-344
-345
-345
-345
-345
-344
-345
-345
-345
-345
-345
-345
-346
-346
-345
-345
-345
-345
-345
-346
-346
-346
-346
-346
-346
-346
-346
-346
-346
-346
-346
-347
-347
-346
-346
-346
-346
-346
-346
-346
-346
-347
-347
-347
-347
-347
-347
-347
-347
-347
-347
-347
-347
-347
-347
-348
-348
-348
-348
-348
-348
-348
-348
-348
-348
-348
-349
-349
-349
-349
-349
-349
-349
-349
-349
-349
-349
-349
-349
-350
-350
-350
-350
-349
-349
-349
-349
-349
-350
-350
-350
-350
-349
-350
-350
-351
-350
-351
-351
-352
-352
-352
-353
-352
-353
-353
-354
-354
-354
-355
-355
-355
-355
-355
-355
-355
-355
-355
-355
-355
-355
-355
-355
-355
-356
-356
-356
-356
-356
-356
-356
-356
-357
-357
-357
-357
-357
-357
-358
-358
-358
-357
-357
-357
-358
-358
-358
-358
-358
-358
-358
-358
-358
-357
-358
-358
-358
-359
-359
-359
-359
-359
-360
-360
-360
-359
-360
-361
-361
-361
-362
-362
-362
-361
-362
-362
-362
-362
-362
-363
-363
-363
-363
-363
-363
-363
-364
-364
-364
-364
-364
-364
-364
-365
-365
-366
-366
-366
-366
-367
-367
-367
-367
-367
-368
-368
-368
-369
-369
-369
-370
-370
-370
-370
-371
-371
-372
-372
-373
-372
-373
-373
-374
-374
-375
-375
-376
-376
-376
-377
-377
-378
-378
-378
-379
-379
-380
-380
-380
-381
-381
-381
-382
-381
-381
-382
-382
-383
-383
-384
-384
-384
-384
-385
-385
-386
-386
-386
-387
-387
-388
-388
-388
-388
-388
-388
-388
-388
-388
-388
-388
-389
-389
-389
-388
-388
-387
-387
-387
-387
-387
-386
-386
-385
-385
-384
-383
-383
-383
-382
-382
-381
-381
-380
-379
-379
-379
-378
-377
-377
-376
-375
-374
-374
-374
-373
-372
-371
-371
-370
-370
-369
-368
-367
-367
-367
-366
-365
-365
-364
-364
-363
-363
-362
-362
-361
-361
-361
-360
-360
-359
-359
-359
-358
-358
-357
-358
-357
-357
-356
-357
-356
-356
-355
-355
-354
-354
-354
-354
-354
-354
-354
-353
-353
-353
-353
-353
-353
-352
-352
-353
-352
-352
-352
-352
-352
-352
-351
-351
-351
-350
-351
-351
-351
-350
-350
-350
-350
-349
-349
-349
-349
-349
-349
-350
-350
-350
-350
-349
-349
-349
-349
-349
-350
-350
-350
-350
-350
-350
-350
-350
-350
-350
-350
-350
-350
-350
-350
-350
-349
-349
-349
-349
-349
-349
-349
-350
-350
-350
-350
-350
-350
-350
-350
-350
-351
-351
-351
-351
-351
-351
-351
-351
-351
-351
-351
-351
-351
-351
-351
-351
-351
-351
-351
-351
-351
-351
-351
-351
-351
-351
-351
-351
-351
-351
-352
-352
-352
-352
-352
-352
-352
-352
-353
-353
-353
-353
-353
-353
-354
-354
-354
-354
-354
-354
-354
-354
-354
-354
-354
-354
-354
-354
-354
-354
-354
-355
-355
-355
-355
-355
-355
-355
-355
-355
-355
-355
-355
-355
-354
-354
-354
-354
-355
-355
-355
-355
-355
-355
-355
-355
-355
-355
-355
-355
-355
-355
-355
-354
-355
-355
-355
-355
-355
-355
-355
-355
-355
-355
-354
-354
-354
-355
-355
-355
-355
-355
-355
-355
-355
-355
-355
-355
-355
-355
-355
-355
-354
-354
-354
-354
-354
-354
-354
-354
-355
-355
-355
-355
-355
-355
-354
-354
-354
-354
-354
-354
-354
-354
-355
-355
-355
-355
-354
-354
-354
-354
-354
-354
-354
-353
-354
-354
-354
-354
-354
-354
-354
-354
-354
-354
-354
-354
-354
-354
-354
-354
-354
-354
-354
-354
-354
-354
-354
-354
-354
-353
-353
-353
-353
-353
-353
-353
-353
-354
-354
-354
-354
-354
-354
-354
-354
-354
-354
-354
-354
-354
-354
-354
-355
-355
-354
-354
-354
-354
-354
-354
-354
-354
-354
-354
-354
-354
-354
-354
-354
-354
-355
-355
-355
-355
-355
-355
-355
-356
-355
-355
-355
-355
-355
-355
-356
-356
-356
-356
-356
-356
-356
-356
-356
-356
-355
-355
-355
-355
-356
-356
-356
-355
-355
-355
-355
-354
-354
-354
-354
-354
-354
-354
-354
-354
-354
-354
-354
-354
-355
-355
-355
-355
-355
-355
-355
-355
-355
-355
-355
-355
-355
-355
-355
-355
-355
-355
-355
-355
-355
-355
-355
-355
-355
-355
-355
-355
-355
-355
-355
-355
-355
-355
-355
-355
-355
-354
-354
-354
-354
-354
-354
-355
-355
-355
-355
-355
-355
-355
-355
-355
-355
-356
-355
-355
-355
-355
-355
-355
-356
-356
-356
-356
-356
-356
-356
-356
-356
-356
-356
-356
-356
-356
-356
-356
-356
-357
-357
-357
-357
-357
-357
-357
-356
-356
-356
-356
-356
-356
-356
-356
-356
-356
-356
-356
-356
-356
-356
-356
-356
-356
-356
-356
-356
-356
-356
-356
-356
-356
-356
-355
-355
-356
-356
-356
-356
-356
-356
-357
-356
-356
-356
-356
-356
-356
-356
-356
-356
-356
-356
-356
-356
-356
-356
-356
-356
-356
-355
-356
-356
-356
-356
-356
-356
-356
-356
-356
-356
-356
-356
-357
-356
-356
-356
-356
-356
-356
-357
-357
-357
-357
-357
-357
-357
-357
-358
-358
-358
-358
-358
-358
-358
-357
-357
-357
-357
-357
-358
-358
-358
-358
-358
-358
-358
-358
-358
-358
-358
-358
-358
-358
-358
-358
-358
-358
-357
-357
-358
-358
-358
-358
-358
-358
-358
-358
-358
-359
-358
-358
-358
-358
-359
-359
-359
-359
-359
-359
-359
-359
-359
-359
-359
-359
-359
-359
-358
-359
-359
-359
-359
-358
-358
-358
-359
-358
-358
-358
-357
-357
-357
-357
-357
-357
-357
-357
-357
-357
-357
-357
-357
-356
-357
-357
-357
-357
-357
-357
-356
-356
-356
-356
-356
-356
-356
-356
-357
-357
-357
-357
-357
-358
-357
-357
-357
-357
-357
-357
-358
-358
-358
-358
-358
-358
-358
-358
-358
-357
-358
-358
-358
-358
-358
-358
-358
-358
-358
-359
-359
-358
-358
-358
-358
-358
-359
-359
-359
-359
-359
-359
-360
-360
-360
-359
-359
-359
-360
-360
-360
-360
-360
-360
-360
-360
-360
-360
-360
-360
-360
-359
-359
-359
-359
-359
-359
-359
-359
-359
-358
-358
-359
-359
-359
-359
-359
-359
-359
-359
-359
-358
-358
-358
-359
-359
-359
-359
-359
-359
-359
-359
-359
-359
-359
-359
-359
-359
-359
-359
-359
-359
-359
-359
-359
-359
-359
-358
-359
-359
-359
-359
-359
-359
-359
-359
-359
-359
-359
-359
-359
-360
-360
-360
-360
-360
-360
-360
-360
-360
-360
-360
-360
-360
-360
-360
-360
-360
-360
-360
-360
-360
-360
-360
-360
-361
-361
-361
-361
-361
-361
-361
-361
-360
-360
-360
-361
-361
-361
-361
-361
-361
-360
-360
-361
-361
-361
-361
-361
-361
-361
-361
-360
-360
-360
-360
-361
-361
-361
-361
-361
-362
-362
-361
-361
-362
-362
-362
-362
-362
-362
-362
-362
-362
-362
-362
-362
-362
-362
-362
-362
-362
-362
-362
-363
-363
-363
-363
-362
-362
-362
-362
-362
-362
-362
-362
-362
-362
-362
-362
-362
-362
-363
-363
-363
-362
-362
-362
-362
-362
-363
-363
-363
-363
-363
-364
-364
-364
-364
-364
-363
-363
-363
-363
-364
-364
-364
-364
-364
-364
-364
-364
-364
-364
-364
-364
-363
-363
-364
-364
-364
-364
-364
-364
-364
-364
-364
-364
-364
-364
-364
-364
-364
-364
-364
-364
-364
-364
-364
-364
-364
-364
-364
-364
-364
-364
-364
-364
-364
-364
-364
-364
-364
-364
-363
-363
-363
-363
-363
-363
-363
-364
-364
-364
-364
-364
-364
-364
-364
-364
-364
-364
-363
-363
-363
-363
-364
-364
-364
-364
-364
-364
-364
-364
-364
-364
-364
-364
-364
-364
-365
-365
-365
-365
-365
-365
-365
-365
-365
-365
-365
-364
-364
-364
-364
-364
-364
-364
-364
-364
-365
-365
-365
-365
-365
-364
-365
-365
-365
-365
-365
-365
-365
-365
-365
-365
-365
-365
-365
-365
-365
-365
-365
-365
-365
-365
-365
-365
-365
-365
-364
-364
-364
-363
-363
-363
-363
-362
-363
-363
-363
-362
-362
-362
-363
-362
-363
-362
-363
-362
-363
-363
-364
-363
-363
-364
-364
-364
-365
-365
-365
-366
-366
-366
-368
-369
-370
-371
-373
-375
-377
-378
-380
-381
-384
-385
-387
-389
-391
-391
-393
-394
-395
-396
-396
-396
-396
-396
-396
-396
-396
-395
-394
-393
-392
-391
-390
-390
-389
-388
-387
-386
-385
-386
-385
-384
-384
-383
-381
-381
-380
-380
-379
-379
-378
-378
-377
-377
-376
-376
-376
-375
-375
-375
-374
-373
-373
-372
-372
-371
-371
-370
-369
-369
-369
-368
-367
-368
-367
-366
-366
-365
-365
-364
-365
-364
-364
-364
-364
-363
-363
-363
-363
-363
-363
-363
-363
-363
-363
-363
-363
-363
-363
-363
-364
-364
-364
-364
-364
-364
-364
-364
-363
-363
-363
-363
-362
-361
-361
-360
-359
-359
-358
-357
-356
-356
-355
-355
-354
-354
-354
-355
-355
-356
-357
-358
-361
-364
-367
-371
-376
-381
-386
-393
-399
-405
-413
-420
-428
-436
-445
-453
-461
-468
-476
-483
-489
-495
-500
-504
-508
-511
-513
-514
-515
-515
-514
-511
-509
-505
-500
-495
-490
-484
-479
-472
-466
-460
-453
-448
-441
-435
-429
-424
-419
-413
-409
-405
-401
-398
-396
-392
-390
-389
-386
-385
-383
-383
-381
-381
-380
-379
-378
-377
-376
-375
-374
-373
-373
-371
-370
-370
-369
-367
-367
-366
-365
-364
-365
-364
-364
-363
-363
-362
-362
-362
-362
-362
-362
-361
-361
-361
-361
-361
-361
-361
-361
-361
-361
-361
-361
-361
-361
-361
-361
-361
-361
-361
-361
-361
-362
-362
-362
-362
-362
-362
-362
-362
-361
-361
-361
-361
-361
-361
-361
-361
-361
-361
-361
-361
-361
-361
-361
-362
-362
-361
-361
-361
-362
-362
-362
-362
-363
-363
-362
-362
-363
-363
-363
-363
-363
-363
-363
-363
-363
-363
-363
-363
-363
-363
-363
-362
-362
-362
-362
-362
-362
-362
-362
-361
-361
-361
-361
-361
-361
-362
-362
-361
-361
-361
-361
-361
-361
-361
-362
-362
-362
-362
-362
-362
-362
-362
-363
-363
-363
-363
-363
-363
-362
-362
-363
-363
-363
-363
-363
-364
-364
-363
-363
-363
-363
-364
-364
-364
-364
-364
-364
-364
-364
-364
-365
-365
-365
-365
-365
-365
-365
-365
-366
-366
-365
-365
-365
-365
-365
-365
-366
-366
-365
-366
-366
-366
-365
-365
-365
-365
-365
-365
-365
-366
-366
-366
-366
-366
-365
-366
-366
-366
-367
-367
-367
-367
-367
-367
-367
-367
-367
-367
-367
-368
-368
-368
-368
-368
-368
-368
-369
-369
-369
-369
-370
-370
-370
-370
-371
-371
-371
-372
-372
-372
-372
-372
-372
-373
-373
-373
-373
-373
-373
-373
-373
-373
-373
-373
-373
-373
-373
-374
-374
-374
-374
-375
-375
-375
-375
-375
-375
-375
-376
-376
-376
-376
-376
-376
-376
-376
-376
-377
-377
-377
-377
-377
-377
-377
-377
-378
-378
-378
-378
-378
-379
-379
-379
-380
-380
-380
-381
-382
-382
-382
-383
-383
-383
-384
-384
-385
-385
-385
-386
-386
-386
-386
-387
-387
-387
-388
-389
-389
-389
-389
-390
-390
-390
-391
-391
-392
-392
-393
-393
-393
-394
-394
-395
-395
-395
-395
-397
-397
-397
-397
-397
-397
-398
-398
-398
-399
-399
-399
-400
-400
-400
-400
-400
-401
-401
-401
-402
-402
-402
-402
-402
-403
-403
-403
-404
-404
-404
-405
-405
-405
-405
-405
-405
-406
-406
-406
-406
-406
-406
-406
-406
-406
-406
-406
-404
-405
-404
-404
-403
-403
-403
-402
-402
-401
-400
-400
-400
-399
-399
-399
-397
-397
-397
-397
-395
-396
-395
-395
-394
-394
-393
-393
-392
-392
-391
-391
-390
-390
-389
-388
-388
-388
-387
-386
-386
-385
-384
-384
-383
-382
-383
-382
-381
-381
-380
-380
-379
-380
-379
-379
-379
-378
-378
-378
-377
-377
-377
-376
-376
-376
-376
-375
-375
-375
-375
-374
-374
-374
-374
-374
-373
-373
-373
-372
-373
-373
-373
-373
-373
-373
-372
-372
-372
-372
-372
-371
-371
-371
-371
-371
-371
-371
-370
-370
-371
-371
-370
-370
-370
-370
-370
-369
-369
-369
-369
-369
-369
-370
-370
-370
-370
-370
-370
-370
-370
-370
-370
-370
-371
-371
-371
-371
-371
-371
-371
-371
-371
-371
-371
-371
-371
-371
-371
-371
-371
-371
-371
-372
-371
-371
-371
-371
-371
-371
-371
-371
-371
-371
-371
-371
-371
-371
-371
-372
-372
-372
-372
-372
-372
-372
-372
-372
-372
-371
-371
-371
-372
-372
-372
-371
-371
-371
-371
-371
-371
-371
-370
-370
-370
-370
-372
-372
-372
-372
-372
-372
-372
-372
-372
-371
-372
-372
-372
-372
-372
-372
-372
-372
-372
-372
-372
-371
-371
-372
-372
-372
-372
-371
-371
-371
-371
-371
-371
-371
-371
-371
-371
-370
-370
-370
-370
-371
-371
-371
-372
-372
-372
-372
-373
-372
-372
-372
-372
-372
-373
-373
-373
-373
-372
-372
-372
-372
-372
-372
-372
-372
-372
-372
-372
-372
-372
-372
-372
-372
-372
-372
-372
-372
-372
-372
-372
-372
-372
-372
-372
-372
-372
-372
-373
-373
-373
-373
-372
-373
-373
-373
-373
-373
-374
-374
-374
-374
-373
-373
-372
-372
-372
-372
-373
-373
-373
-373
-373
-372
-372
-372
-372
-372
-372
-372
-372
-373
-373
-373
-373
-373
-373
-373
-373
-373
-373
-373
-373
-373
-373
-373
-373
-373
-373
-373
-373
-373
-373
-373
-372
-372
-372
-372
-372
-372
-373
-372
-372
-372
-372
-372
-372
-372
-372
-372
-372
-372
-372
-372
-372
-372
-372
-372
-372
-373
-372
-372
-372
-372
-373
-373
-373
-373
-373
-373
-373
-374
-374
-374
-374
-374
-374
-374
-374
-374
-375
-375
-375
-375
-375
-375
-375
-375
-374
-374
-374
-375
-375
-375
-375
-375
-374
-374
-374
-374
-374
-374
-373
-373
-373
-373
-373
-373
-373
-374
-374
-374
-374
-374
-374
-374
-374
-374
-374
-374
-374
-374
-374
-375
-375
-375
-375
-375
-375
-375
-375
-375
-375
-375
-375
-375
-375
-375
-375
-376
-376
-376
-376
-376
-376
-376
-376
-376
-376
-376
-377
-377
-377
-377
-377
-376
-376
-376
-376
-376
-376
-376
-376
-376
-376
-375
-375
-375
-375
-375
-375
-375
-375
-375
-375
-375
-375
-374
-375
-375
-375
-375
-376
-376
-376
-376
-376
-376
-376
-376
-377
-377
-377
-377
-376
-376
-377
-377
-377
-377
-377
-377
-377
-377
-377
-377
-377
-377
-377
-377
-377
-377
-377
-377
-377
-377
-377
-376
-375
-375
-375
-375
-376
-376
-376
-375
-375
-375
-375
-375
-376
-376
-376
-376
-376
-377
-377
-377
-377
-377
-377
-377
-378
-378
-378
-377
-378
-378
-378
-378
-378
-378
-379
-379
-379
-379
-379
-378
-378
-378
-378
-378
-378
-377
-377
-377
-377
-377
-376
-376
-376
-376
-376
-376
-376
-376
-376
-376
-376
-376
-376
-376
-376
-376
-376
-376
-377
-377
-377
-377
-377
-377
-377
-377
-377
-377
-377
-377
-377
-377
-377
-377
-377
-376
-377
-377
-377
-377
-377
-377
-377
-377
-377
-377
-377
-377
-377
-377
-377
-377
-377
-377
-377
-377
-377
-377
-377
-377
-377
-377
-377
-376
-377
-377
-377
-377
-377
-377
-377
-377
-377
-376
-376
-376
-376
-376
-376
-376
-376
-376
-376
-376
-376
-377
-377
-377
-376
-376
-376
-376
-376
-376
-377
-377
-377
-377
-377
-377
-377
-378
-378
-378
-378
-378
-378
-378
-378
-378
-378
-378
-378
-378
-378
-378
-378
-378
-378
-378
-377
-377
-377
-377
-377
-377
-377
-377
-377
-377
-377
-377
-377
-377
-377
-377
-377
-377
-377
-377
-377
-377
-377
-377
-377
-377
-377
-378
-378
-378
-378
-378
-377
-377
-377
-377
-377
-377
-377
-377
-377
-377
-376
-376
-376
-376
-376
-376
-376
-376
-376
-376
-376
-376
-376
-377
-377
-377
-377
-377
-376
-376
-377
-377
-377
-377
-377
-377
-377
-377
-377
-377
-377
-377
-377
-377
-377
-377
-377
-377
-377
-377
-377
-377
-377
-377
-377
-377
-377
-377
-377
-377
-377
-377
-377
-377
-377
-377
-377
-377
-377
-377
-377
-377
-377
-377
-377
-377
-377
-377
-377
-377
-377
-377
-377
-377
-377
-377
-377
-378
-377
-377
-377
-377
-377
-377
-377
-377
-377
-377
-377
-377
-377
-377
-377
-377
-377
-377
-377
-377
-377
-377
-377
-377
-377
-377
-377
-377
-377
-377
-377
-377
-377
-377
-377
-377
-377
-377
-377
-377
-377
-377
-377
-377
-377
-377
-377
-377
-377
-377
-377
-377
-377
-377
-377
-377
-377
-376
-377
-377
-377
-376
-376
-376
-376
-376
-376
-376
-375
-375
-375
-375
-375
-375
-375
-376
-376
-376
-376
-376
-376
-376
-376
-376
-376
-376
-376
-376
-376
-376
-375
-375
-375
-375
-375
-375
-375
-375
-374
-374
-374
-375
-375
-375
-375
-375
-376
-376
-376
-376
-376
-376
-376
-376
-376
-376
-376
-376
-377
-377
-377
-377
-377
-377
-377
-377
-376
-376
-377
-377
-377
-376
-376
-376
-376
-376
-376
-376
-376
-376
-376
-375
-375
-376
-375
-375
-375
-375
-374
-374
-374
-374
-374
-374
-374
-374
-374
-374
-374
-375
-375
-375
-375
-375
-375
-375
-375
-375
-375
-375
-375
-376
-376
-376
-376
-376
-376
-376
-376
-376
-376
-376
-376
-375
-375
-375
-375
-375
-375
-374
-374
-374
-374
-374
-374
-374
-374
-374
-374
-374
-374
-374
-374
-374
-374
-374
-374
-375
-374
-375
-375
-376
-376
-376
-375
-376
-376
-376
-376
-376
-376
-377
-377
-378
-378
-380
-380
-381
-382
-384
-386
-387
-389
-390
-392
-394
-395
-397
-398
-400
-401
-402
-403
-404
-405
-406
-406
-406
-406
-406
-405
-404
-404
-404
-403
-402
-401
-400
-399
-398
-397
-396
-396
-395
-395
-394
-394
-392
-392
-392
-391
-391
-390
-390
-390
-388
-388
-388
-388
-387
-387
-387
-386
-385
-384
-384
-383
-383
-382
-381
-381
-380
-379
-379
-377
-377
-376
-375
-374
-374
-373
-373
-373
-372
-371
-372
-371
-371
-370
-370
-371
-371
-371
-370
-370
-370
-371
-371
-371
-371
-371
-370
-370
-371
-371
-371
-371
-371
-371
-371
-371
-371
-371
-371
-370
-370
-370
-370
-370
-369
-370
-370
-370
-370
-370
-370
-370
-370
-370
-370
-370
-370
-370
-370
-369
-369
-369
-369
-369
-369
-369
-369
-369
-369
-369
-369
-369
-369
-369
-369
-369
-369
-369
-369
-369
-369
-369
-368
-368
-368
-368
-368
-367
-367
-367
-366
-366
-366
-366
-366
-367
-366
-367
-368
-370
-370
-373
-375
-378
-381
-385
-389
-395
-399
-406
-412
-419
-426
-433
-441
-448
-454
-460
-468
-473
-478
-483
-487
-491
-493
-495
-497
-497
-496
-496
-493
-491
-487
-483
-479
-473
-468
-462
-457
-450
-444
-438
-432
-425
-420
-414
-409
-404
-400
-395
-392
-388
-385
-383
-380
-379
-378
-377
-376
-375
-376
-375
-376
-376
-376
-377
-377
-377
-376
-376
-376
-375
-375
-374
-374
-373
-372
-372
-371
-370
-369
-369
-368
-368
-368
-367
-366
-366
-366
-365
-365
-364
-364
-364
-364
-364
-364
-364
-364
-364
-364
-364
-364
-364
-364
-364
-364
-364
-365
-365
-365
-365
-365
-365
-365
-365
-365
-365
-365
-365
-364
-364
-364
-364
-365
-365
-365
-365
-365
-365
-365
-364
-364
-364
-364
-364
-364
-364
-364
-364
-364
-364
-364
-364
-364
-364
-364
-365
-365
-365
-364
-364
-364
-364
-364
-364
-364
-364
-364
-364
-364
-365
-365
-365
-365
-365
-365
-365
-365
-365
-365
-365
-365
-365
-365
-365
-365
-365
-364
-364
-364
-364
-364
-364
-364
-364
-364
-365
-365
-365
-365
-365
-365
-365
-365
-365
-365
-366
-366
-366
-366
-365
-365
-365
-365
-365
-365
-365
-365
-365
-365
-365
-365
-365
-365
-365
-365
-365
-365
-365
-365
-365
-365
-365
-365
-365
-366
-365
-365
-365
-365
-365
-365
-365
-365
-366
-366
-366
-366
-366
-366
-366
-366
-366
-366
-365
-365
-365
-365
-365
-366
-366
-366
-366
-366
-366
-366
-367
-367
-367
-367
-367
-367
-368
-368
-368
-367
-368
-368
-368
-368
-368
-368
-368
-368
-367
-367
-367
-367
-367
-367
-368
-368
-368
-368
-368
-367
-368
-368
-368
-368
-369
-369
-369
-368
-369
-369
-369
-369
-368
-369
-369
-369
-369
-369
-369
-369
-369
-369
-369
-369
-369
-369
-369
-369
-369
-369
-368
-369
-369
-369
-369
-369
-370
-370
-370
-370
-370
-371
-370
-370
-371
-371
-371
-372
-372
-371
-372
-372
-373
-373
-373
-373
-374
-374
-374
-374
-374
-374
-375
-375
-375
-375
-375
-376
-376
-376
-376
-377
-376
-376
-377
-377
-377
-378
-378
-378
-378
-379
-379
-379
-379
-380
-380
-380
-380
-380
-380
-381
-381
-381
-381
-381
-382
-382
-382
-382
-382
-382
-382
-383
-383
-383
-383
-384
-384
-384
-385
-385
-385
-385
-386
-386
-386
-386
-386
-387
-387
-387
-387
-387
-388
-388
-387
-387
-388
-388
-389
-389
-389
-389
-389
-389
-389
-389
-389
-389
-389
-389
-389
-389
-388
-388
-387
-388
-387
-386
-387
-387
-386
-386
-385
-385
-384
-384
-383
-383
-383
-382
-382
-381
-381
-380
-379
-379
-378
-378
-377
-377
-377
-376
-375
-374
-374
-374
-373
-372
-371
-371
-370
-369
-368
-367
-366
-366
-366
-365
-364
-363
-363
-362
-362
-361
-360
-359
-360
-359
-358
-358
-357
-356
-357
-356
-355
-355
-355
-354
-354
-353
-354
-353
-352
-353
-352
-351
-352
-351
-350
-349
-350
-350
-350
-349
-348
-348
-349
-348
-348
-348
-347
-347
-348
-348
-347
-347
-347
-347
-346
-346
-346
-346
-346
-345
-345
-345
-345
-344
-344
-343
-343
-344
-343
-343
-342
-343
-343
-342
-342
-342
-342
-343
-343
-343
-343
-342
-342
-342
-342
-342
-342
-342
-342
-342
-342
-342
-342
-342
-342
-341
-342
-342
-341
-341
-341
-341
-341
-341
-342
-342
-342
-342
-341
-341
-342
-342
-342
-342
-342
-342
-342
-342
-342
-342
-342
-342
-342
-342
-342
-342
-342
-342
-342
-342
-342
-342
-342
-342
-342
-342
-342
-343
-343
-343
-343
-343
-343
-343
-344
-344
-343
-344
-344
-344
-344
-344
-344
-344
-344
-344
-343
-343
-343
-343
-343
-343
-342
-342
-342
-343
-342
-342
-342
-342
-342
-342
-342
-342
-342
-342
-342
-342
-342
-343
-342
-342
-342
-342
-342
-342
-342
-342
-342
-342
-342
-342
-342
-342
-342
-342
-342
-342
-342
-342
-342
-342
-342
-342
-342
-342
-342
-342
-342
-342
-342
-342
-342
-342
-342
-342
-341
-341
-341
-341
-341
-341
-341
-341
-341
-341
-341
-341
-341
-341
-341
-341
-341
-341
-341
-341
-341
-341
-341
-341
-341
-341
-342
-342
-341
-341
-341
-341
-341
-341
-341
-341
-341
-341
-341
-340
-340
-340
-340
-340
-341
-340
-340
-340
-340
-339
-339
-339
-339
-340
-339
-339
-339
-339
-339
-339
-339
-340
-340
-340
-340
-340
-339
-339
-339
-339
-339
-339
-339
-339
-339
-339
-340
-340
-340
-340
-339
-339
-339
-339
-339
-339
-339
-339
-339
-339
-339
-339
-339
-339
-339
-339
-339
-339
-339
-339
-339
-339
-339
-339
-338
-339
-339
-338
-338
-339
-338
-338
-339
-338
-338
-338
-338
-337
-337
-337
-337
-337
-337
-337
-338
-338
-338
-338
-338
-338
-338
-338
-338
-338
-338
-338
-338
-339
-338
-338
-338
-339
-338
-338
-338
-338
-338
-338
-338
-339
-339
-339
-339
-339
-339
-339
-339
-339
-339
-339
-339
-339
-339
-338
-338
-338
-338
-338
-338
-338
-338
-338
-338
-338
-338
-338
-339
-339
-338
-338
-338
-338
-338
-338
-339
-339
-339
-339
-339
-339
-339
-339
-339
-339
-339
-339
-339
-339
-339
-339
-339
-339
-339
-339
-339
-339
-339
-339
-339
-339
-339
-339
-339
-339
-339
-339
-339
-339
-338
-338
-338
-339
-339
-339
-339
-339
-339
-339
-339
-339
-339
-339
-339
-339
-338
-338
-338
-338
-338
-338
-338
-338
-339
-339
-338
-338
-338
-338
-338
-339
-339
-339
-339
-339
-339
-338
-338
-338
-338
-338
-338
-338
-338
-339
-339
-338
-338
-338
-338
-338
-338
-337
-338
-338
-338
-338
-337
-337
-337
-337
-337
-337
-337
-338
-338
-338
-337
-337
-337
-338
-338
-338
-338
-338
-337
-337
-338
-338
-337
-337
-337
-338
-338
-338
-338
-338
-338
-338
-338
-338
-339
-339
-339
-338
-338
-339
-339
-339
-339
-339
-339
-339
-339
-339
-339
-339
-339
-339
-339
-339
-339
-339
-339
-339
-340
-339
-339
-340
-340
-340
-339
-339
-339
-339
-339
-339
-339
-339
-339
-339
-339
-339
-339
-339
-340
-340
-339
-339
-339
-339
-339
-339
-339
-338
-338
-338
-338
-339
-339
-339
-339
-339
-339
-339
-339
-339
-339
-339
-339
-339
-338
-338
-339
-339
-339
-339
-340
-340
-339
-339
-340
-340
-340
-340
-340
-340
-340
-340
-340
-340
-340
-340
-340
-341
-341
-341
-341
-341
-341
-341
-341
-341
-341
-341
-341
-341
-341
-341
-340
-340
-340
-340
-340
-340
-339
-339
-339
-339
-339
-339
-339
-339
-339
-339
-340
-340
-340
-340
-340
-340
-340
-340
-340
-340
-340
-340
-340
-340
-340
-340
-339
-339
-339
-339
-339
-339
-339
-339
-339
-339
-339
-339
-340
-340
-340
-340
-340
-340
-340
-340
-340
-341
-341
-341
-341
-341
-341
-341
-341
-341
-341
-341
-341
-341
-341
-341
-341
-341
-341
-341
-341
-341
-341
-341
-341
-341
-341
-341
-341
-342
-342
-342
-342
-342
-342
-342
-343
-343
-342
-342
-342
-342
-342
-342
-342
-342
-342
-342
-342
-342
-342
-342
-342
-342
-342
-342
-341
-342
-342
-342
-341
-341
-341
-341
-341
-341
-340
-340
-341
-341
-341
-341
-341
-342
-342
-342
-342
-341
-341
-341
-341
-341
-341
-342
-342
-342
-342
-342
-342
-342
-342
-342
-342
-342
-342
-342
-342
-342
-342
-342
-342
-342
-342
-341
-341
-341
-341
-341
-342
-342
-342
-342
-342
-342
-342
-342
-342
-343
-343
-343
-343
-343
-343
-343
-343
-343
-343
-342
-342
-342
-343
-343
-343
-343
-343
-344
-344
-344
-344
-344
-344
-344
-344
-344
-344
-344
-343
-343
-344
-344
-344
-344
-344
-343
-342
-342
-342
-342
-342
-342
-342
-342
-341
-342
-342
-341
-342
-342
-343
-342
-343
-342
-343
-343
-344
-344
-343
-344
-344
-344
-344
-344
-344
-345
-345
-347
-347
-348
-349
-349
-351
-352
-354
-356
-357
-358
-359
-361
-363
-365
-366
-368
-369
-369
-371
-372
-372
-373
-373
-373
-373
-373
-373
-372
-373
-372
-372
-371
-370
-369
-368
-368
-367
-366
-365
-364
-364
-363
-363
-361
-361
-360
-359
-359
-358
-358
-357
-357
-357
-356
-356
-355
-354
-354
-354
-353
-353
-353
-352
-352
-352
-351
-350
-350
-349
-348
-348
-347
-346
-346
-346
-345
-345
-344
-344
-344
-343
-343
-343
-343
-342
-342
-343
-342
-342
-341
-341
-341
-342
-341
-341
-341
-341
-340
-340
-341
-341
-341
-341
-340
-340
-340
-340
-340
-340
-340
-340
-340
-340
-340
-340
-340
-341
-341
-341
-341
-341
-341
-341
-341
-341
-341
-342
-342
-342
-343
-343
-343
-343
-343
-343
-343
-343
-343
-343
-342
-342
-342
-342
-342
-342
-342
-342
-343
-343
-343
-343
-343
-343
-343
-343
-343
-342
-342
-342
-341
-341
-341
-341
-341
-341
-341
-342
-342
-343
-343
-345
-347
-350
-352
-356
-360
-364
-369
-375
-380
-387
-394
-401
-408
-415
-422
-430
-437
-444
-450
-456
-461
-466
-470
-473
-475
-477
-479
-480
-478
-477
-476
-473
-470
-466
-460
-455
-449
-443
-438
-432
-425
-419
-413
-407
-401
-395
-390
-385
-381
-376
-372
-369
-366
-363
-361
-359
-358
-357
-356
-355
-355
-355
-355
-354
-355
-355
-355
-354
-355
-354
-354
-353
-353
-352
-351
-351
-350
-350
-348
-348
-347
-347
-346
-345
-346
-345
-345
-344
-345
-344
-344
-343
-343
-344
-343
-343
-343
-343
-343
-343
-343
-343
-343
-343
-343
-343
-343
-343
-343
-344
-344
-343
-343
-343
-343
-343
-343
-343
-344
-344
-344
-344
-344
-344
-344
-343
-343
-344
-344
-344
-344
-344
-344
-345
-345
-345
-345
-345
-345
-345
-345
-344
-344
-344
-344
-345
-345
-345
-345
-345
-345
-345
-345
-345
-345
-345
-345
-345
-345
-346
-346
-346
-345
-346
-346
-346
-346
-347
-347
-347
-347
-347
-347
-347
-347
-347
-347
-347
-347
-347
-347
-347
-347
-347
-347
-347
-347
-348
-348
-348
-348
-347
-348
-348
-348
-348
-349
-349
-349
-350
-349
-349
-349
-350
-350
-350
-350
-350
-349
-350
-350
-350
-349
-349
-349
-349
-349
-349
-349
-349
-349
-349
-349
-350
-351
-351
-351
-351
-351
-351
-351
-351
-351
-351
-351
-351
-351
-351
-351
-351
-352
-352
-352
-352
-352
-352
-352
-353
-353
-353
-353
-353
-354
-354
-354
-354
-354
-354
-354
-355
-355
-355
-355
-355
-355
-355
-355
-355
-355
-355
-355
-355
-355
-355
-355
-356
-356
-356
-356
-355
-356
-356
-356
-356
-357
-357
-357
-357
-357
-357
-357
-357
-357
-358
-358
-358
-359
-359
-359
-359
-359
-360
-360
-360
-360
-361
-361
-361
-361
-362
-362
-362
-362
-363
-363
-363
-363
-362
-362
-362
-363
-363
-363
-363
-363
-363
-364
-364
-364
-364
-364
-365
-365
-365
-365
-366
-366
-366
-366
-366
-367
-367
-367
-368
-368
-367
-367
-368
-368
-368
-369
-369
-369
-369
-370
-370
-370
-370
-371
-371
-371
-371
-371
-372
-372
-373
-373
-373
-374
-374
-374
-375
-375
-376
-376
-377
-377
-377
-378
-378
-379
-379
-379
-380
-380
-381
-381
-381
-382
-382
-382
-382
-383
-383
-384
-384
-384
-385
-385
-384
-385
-385
-386
-386
-386
-387
-387
-387
-388
-388
-388
-389
-389
-389
-389
-390
-390
-390
-391
-391
-391
-391
-391
-392
-392
-392
-392
-392
-392
-392
-392
-392
-392
-392
-391
-391
-391
-390
-390
-390
-389
-389
-388
-387
-387
-387
-386
-385
-385
-384
-384
-383
-383
-382
-381
-381
-380
-379
-379
-379
-378
-377
-377
-376
-375
-376
-375
-374
-373
-372
-372
-372
-371
-370
-370
-369
-368
-369
-368
-367
-367
-366
-366
-365
-365
-365
-364
-363
-363
-363
-362
-362
-362
-361
-361
-360
-360
-359
-360
-359
-359
-358
-358
-357
-357
-358
-357
-357
-356
-356
-356
-355
-355
-356
-355
-355
-355
-355
-355
-355
-354
-354
-354
-354
-354
-354
-354
-353
-353
-353
-353
-354
-353
-353
-353
-353
-353
-352
-352
-352
-352
-352
-352
-352
-352
-352
-352
-352
-352
-352
-352
-352
-352
-352
-352
-352
-353
-353
-354
-354
-354
-354
-354
-354
-354
-354
-354
-354
-354
-353
-353
-354
-354
-354
-354
-354
-355
-355
-354
-354
-354
-354
-354
-354
-354
-354
-354
-354
-354
-355
-355
-355
-355
-355
-355
-355
-355
-355
-355
-355
-355
-355
-355
-355
-355
-355
-355
-355
-355
-355
-355
-355
-355
-355
-355
-355
-355
-355
-355
-355
-355
-356
-356
-356
-356
-356
-356
-356
-357
-357
-357
-357
-357
-357
-357
-357
-357
-357
-357
-357
-357
-357
-358
-358
-358
-358
-357
-357
-357
-357
-357
-357
-357
-357
-357
-357
-357
-357
-357
-357
-356
-356
-356
-356
-356
-357
-357
-357
-357
-357
-357
-358
-358
-358
-358
-358
-358
-357
-358
-358
-358
-358
-358
-358
-358
-358
-358
-358
-357
-357
-357
-357
-357
-357
-357
-357
-357
-357
-357
-358
-358
-358
-358
-358
-358
-358
-358
-358
-358
-359
-359
-358
-358
-358
-358
-358
-358
-358
-358
-359
-359
-359
-359
-359
-359
-359
-359
-359
-358
-358
-358
-358
-358
-358
-358
-358
-359
-359
-359
-359
-358
-358
-358
-358
-358
-358
-357
-357
-357
-357
-357
-357
-357
-357
-358
-358
-358
-358
-358
-357
-357
-357
-357
-357
-357
-358
-358
-358
-358
-358
-358
-358
-358
-358
-358
-358
-358
-359
-359
-358
-358
-358
-358
-358
-358
-358
-358
-358
-358
-358
-358
-358
-358
-358
-358
-358
-358
-358
-358
-358
-358
-358
-358
-358
-358
-359
-359
-359
-359
-359
-359
-359
-359
-360
-360
-360
-360
-360
-360
-360
-360
-359
-359
-359
-359
-360
-360
-359
-359
-359
-359
-359
-359
-359
-359
-359
-358
-358
-358
-358
-358
-358
-358
-358
-358
-358
-358
-359
-359
-359
-359
-359
-359
-359
-359
-359
-359
-359
-359
-359
-359
-359
-360
-360
-360
-360
-360
-360
-359
-359
-359
-359
-359
-359
-359
-359
-359
-359
-359
-359
-359
-359
-359
-359
-359
-359
-359
-359
-359
-359
-359
-359
-359
-359
-359
-360
-360
-360
-360
-360
-360
-360
-360
-360
-360
-360
-360
-360
-360
-360
-360
-360
-360
-360
-360
-360
-361
-361
-361
-361
-361
-361
-361
-361
-361
-361
-361
-361
-361
-361
-361
-361
-361
-361
-361
-361
-361
-361
-361
-361
-361
-360
-360
-360
-360
-360
-361
-361
-361
-361
-361
-361
-361
-361
-361
-361
-361
-361
-361
-361
-361
-361
-361
-361
-361
-361
-361
-361
-362
-362
-362
-362
-362
-362
-362
-362
-362
-362
-362
-362
-362
-362
-362
-362
-362
-362
-362
-362
-362
-362
-362
-362
-362
-362
-362
-362
-362
-362
-362
-362
-362
-362
-362
-362
-362
-362
-362
-362
-362
-361
-361
-362
-362
-362
-362
-363
-362
-362
-362
-362
-362
-362
-363
-363
-363
-363
-364
-363
-363
-363
-363
-363
-363
-363
-363
-363
-363
-363
-363
-363
-363
-363
-364
-363
-363
-363
-362
-363
-363
-363
-362
-362
-362
-362
-362
-362
-362
-362
-362
-362
-362
-363
-363
-363
-362
-363
-363
-363
-363
-363
-364
-364
-364
-364
-364
-364
-364
-364
-364
-364
-364
-364
-364
-364
-364
-364
-364
-364
-364
-364
-364
-364
-365
-365
-365
-365
-364
-364
-364
-364
-364
-365
-365
-365
-365
-365
-365
-365
-365
-366
-365
-365
-365
-365
-365
-365
-364
-364
-364
-365
-365
-364
-364
-364
-364
-364
-364
-364
-364
-364
-364
-364
-364
-364
-364
-365
-365
-365
-365
-365
-365
-365
-366
-366
-366
-365
-365
-365
-365
-365
-365
-366
-366
-365
-365
-365
-365
-365
-365
-365
-366
-366
-366
-366
-366
-366
-366
-366
-366
-366
-366
-365
-365
-365
-365
-365
-365
-365
-365
-365
-365
-365
-365
-365
-365
-365
-365
-365
-365
-365
-365
-365
-365
-365
-365
-365
-365
-365
-365
-365
-365
-365
-365
-365
-365
-364
-364
-365
-365
-365
-365
-364
-364
-364
-364
-364
-365
-365
-365
-365
-365
-365
-365
-365
-366
-366
-366
-366
-366
-366
-366
-366
-366
-366
-366
-366
-365
-366
-366
-366
-366
-366
-366
-366
-366
-366
-366
-366
-366
-366
-366
-366
-366
-366
-366
-366
-366
-366
-367
-367
-367
-367
-367
-367
-368
-367
-367
-367
-367
-367
-367
-367
-367
-367
-367
-367
-367
-367
-368
-368
-368
-368
-368
-368
-368
-368
-368
-368
-368
-368
-368
-368
-367
-367
-367
-367
-367
-367
-367
-367
-367
-367
-367
-368
-368
-368
-368
-368
-368
-368
-368
-368
-368
-369
-369
-369
-369
-369
-368
-368
-368
-367
-367
-367
-367
-368
-368
-368
-368
-368
-368
-368
-368
-368
-368
-368
-368
-368
-368
-368
-368
-368
-368
-368
-368
-368
-369
-369
-369
-369
-369
-369
-369
-369
-369
-369
-369
-369
-370
-370
-370
-369
-369
-369
-369
-369
-369
-369
-369
-369
-369
-369
-369
-369
-368
-369
-369
-369
-369
-369
-369
-369
-369
-369
-369
-369
-369
-369
-370
-370
-370
-370
-370
-370
-370
-369
-369
-369
-369
-369
-370
-370
-370
-370
-370
-370
-370
-370
-370
-369
-369
-369
-369
-369
-369
-369
-369
-370
-370
-370
-370
-370
-370
-370
-370
-370
-370
-370
-370
-370
-370
-370
-370
-370
-370
-370
-370
-370
-370
-370
-369
-369
-369
-369
-369
-369
-368
-368
-368
-368
-368
-368
-367
-367
-367
-367
-367
-367
-367
-367
-367
-367
-368
-368
-367
-368
-368
-368
-368
-369
-368
-368
-369
-369
-369
-370
-371
-371
-373
-373
-375
-376
-378
-380
-381
-383
-384
-387
-389
-391
-393
-394
-395
-397
-398
-399
-400
-401
-401
-402
-402
-402
-401
-401
-400
-400
-399
-398
-397
-396
-396
-395
-394
-392
-391
-391
-390
-390
-389
-388
-387
-386
-386
-385
-385
-384
-384
-383
-383
-383
-382
-382
-382
-380
-380
-380
-380
-379
-379
-378
-377
-376
-376
-375
-375
-375
-374
-374
-373
-372
-371
-371
-371
-370
-370
-369
-368
-369
-368
-368
-367
-367
-367
-367
-366
-367
-367
-366
-366
-366
-366
-366
-366
-366
-366
-366
-366
-366
-366
-366
-366
-366
-366
-366
-366
-366
-366
-366
-366
-366
-366
-366
-366
-366
-367
-366
-366
-366
-366
-366
-366
-366
-366
-366
-366
-366
-366
-366
-366
-366
-366
-366
-366
-366
-366
-366
-366
-366
-366
-366
-366
-366
-367
-367
-368
-367
-367
-367
-367
-368
-367
-367
-367
-366
-367
-366
-365
-366
-365
-364
-364
-365
-365
-365
-366
-366
-367
-369
-371
-373
-376
-380
-384
-388
-393
-398
-405
-411
-418
-425
-432
-440
-448
-456
-464
-472
-480
-486
-492
-497
-502
-506
-509
-513
-515
-516
-517
-517
-516
-513
-511
-507
-503
-497
-492
-486
-480
-474
-468
-462
-456
-448
-443
-437
-431
-425
-420
-414
-410
-406
-402
-398
-396
-393
-390
-389
-387
-386
-384
-384
-383
-382
-381
-381
-380
-379
-378
-377
-377
-376
-375
-374
-373
-372
-371
-370
-369
-369
-367
-366
-366
-365
-365
-365
-365
-365
-364
-364
-364
-364
-364
-364
-364
-364
-363
-363
-363
-363
-363
-363
-363
-363
-363
-363
-363
-363
-363
-363
-364
-364
-363
-363
-363
-364
-364
-364
-364
-364
-364
-364
-365
-365
-365
-365
-365
-365
-365
-366
-366
-366
-366
-366
-366
-367
-367
-367
-367
-366
-366
-366
-366
-366
-366
-366
-366
-366
-366
-366
-366
-366
-366
-367
-367
-367
-367
-367
-367
-367
-367
-367
-367
-367
-368
-367
-367
-367
-367
-367
-368
-368
-367
-367
-367
-367
-367
-367
-367
-367
-367
-367
-367
-367
-367
-368
-368
-368
-368
-368
-368
-368
-368
-368
-369
-369
-369
-369
-369
-370
-370
-370
-369
-369
-369
-369
-369
-369
-369
-370
-370
-370
-370
-370
-370
-370
-370
-370
-370
-370
-371
-371
-371
-370
-370
-371
-371
-371
-371
-371
-371
-371
-371
-372
-372
-372
-372
-372
-372
-372
-372
-372
-372
-372
-372
-372
-372
-372
-372
-374
-374
-374
-374
-374
-374
-374
-374
-375
-375
-375
-375
-376
-376
-375
-376
-376
-376
-377
-377
-377
-378
-377
-377
-378
-378
-378
-378
-379
-378
-378
-378
-379
-379
-379
-379
-379
-379
-379
-379
-379
-379
-379
-380
-380
-380
-380
-381
-381
-381
-381
-381
-382
-382
-382
-382
-382
-382
-382
-383
-383
-383
-383
-383
-384
-384
-384
-383
-384
-384
-384
-384
-384
-384
-385
-385
-385
-385
-386
-386
-386
-387
-386
-386
-387
-387
-387
-388
-388
-388
-389
-389
-390
-390
-390
-390
-391
-391
-391
-391
-392
-392
-392
-392
-393
-393
-393
-393
-394
-395
-395
-395
-394
-395
-395
-395
-396
-396
-396
-397
-397
-398
-398
-398
-398
-399
-399
-400
-400
-401
-401
-402
-402
-402
-403
-403
-405
-405
-405
-405
-406
-406
-407
-407
-408
-407
-407
-408
-408
-409
-409
-409
-410
-410
-410
-411
-411
-411
-412
-412
-412
-412
-413
-413
-413
-413
-415
-415
-415
-415
-416
-416
-416
-416
-416
-416
-417
-417
-416
-416
-416
-417
-417
-417
-417
-417
-417
-417
-416
-416
-417
-417
-417
-416
-416
-416
-417
-416
-416
-416
-415
-415
-414
-414
-413
-412
-412
-411
-410
-409
-409
-408
-406
-405
-404
-404
-403
-402
-401
-401
-400
-399
-399
-398
-397
-397
-396
-396
-395
-395
-394
-393
-394
-393
-393
-392
-392
-392
-391
-391
-390
-391
-390
-390
-389
-390
-389
-389
-388
-388
-387
-388
-387
-386
-386
-386
-385
-386
-386
-385
-385
-385
-384
-385
-385
-385
-384
-384
-384
-384
-384
-384
-384
-383
-383
-384
-384
-383
-383
-383
-383
-383
-383
-383
-383
-383
-383
-384
-383
-383
-383
-383
-383
-383
-383
-383
-382
-382
-382
-383
-383
-382
-382
-382
-382
-382
-382
-382
-382
-382
-382
-382
-382
-382
-382
-382
-381
-381
-381
-381
-381
-381
-381
-381
-381
-381
-381
-381
-381
-381
-381
-381
-381
-383
-382
-382
-383
-383
-384
-384
-385
-384
-384
-385
-385
-385
-386
-385
-385
-385
-386
-386
-386
-386
-386
-386
-386
-386
-385
-385
-385
-386
-386
-386
-386
-385
-385
-385
-385
-385
-385
-385
-385
-385
-385
-385
-385
-386
-387
-387
-387
-387
-387
-386
-387
-387
-387
-387
-388
-388
-388
-388
-389
-389
-389
-389
-388
-388
-388
-388
-388
-388
-388
-388
-388
-389
-389
-389
-389
-388
-388
-388
-388
-388
-388
-388
-388
-388
-388
-388
-388
-388
-389
-389
-389
-388
-389
-389
-389
-389
-389
-389
-389
-389
-390
-390
-390
-390
-390
-390
-390
-389
-389
-390
-390
-390
-390
-390
-390
-390
-390
-389
-389
-389
-389
-389
-389
-389
-389
-389
-389
-389
-389
-389
-389
-389
-388
-388
-388
-388
-388
-388
-389
-389
-389
-389
-389
-389
-389
-389
-389
-389
-389
-389
-388
-388
-388
-388
-389
-389
-389
-389
-389
-389
-389
-389
-389
-389
-389
-390
-390
-390
-390
-390
-390
-390
-390
-390
-389
-389
-389
-389
-389
-389
-389
-389
-389
-389
-389
-389
-389
-389
-390
-390
-390
-390
-389
-390
-390
-390
-390
-390
-390
-390
-390
-390
-390
-390
-390
-390
-390
-389
-389
-390
-390
-390
-389
-389
-389
-390
-390
-390
-389
-389
-389
-389
-389
-390
-390
-390
-390
-390
-390
-390
-390
-391
-391
-391
-391
-391
-391
-391
-391
-391
-391
-391
-392
-391
-391
-391
-391
-391
-391
-391
-391
-391
-391
-391
-391
-391
-391
-392
-392
-392
-392
-392
-392
-392
-392
-392
-392
-392
-392
-392
-392
-392
-393
-393
-392
-392
-392
-392
-392
-392
-392
-392
-392
-392
-392
-391
-391
-391
-392
-393
-392
-392
-392
-393
-393
-393
-393
-393
-393
-393
-392
-393
-393
-393
-393
-393
-393
-393
-392
-392
-392
-392
-392
-392
-392
-392
-392
-391
-392
-392
-392
-392
-392
-392
-392
-392
-391
-391
-392
-392
-392
-392
-392
-392
-392
-391
-392
-392
-392
-392
-392
-392
-392
-392
-392
-392
-392
-392
-392
-393
-393
-393
-393
-393
-393
-392
-392
-392
-392
-392
-392
-392
-392
-392
-393
-393
-393
-393
-392
-392
-392
-392
-392
-392
-392
-392
-392
-392
-392
-392
-392
-392
-392
-392
-391
-392
-392
-392
-392
-392
-392
-392
-392
-391
-391
-391
-391
-391
-391
-391
-391
-391
-391
-391
-391
-391
-391
-392
-392
-392
-392
-392
-392
-391
-391
-391
-391
-391
-391
-391
-391
-391
-391
-391
-391
-391
-391
-391
-391
-391
-391
-391
-391
-391
-391
-391
-391
-392
-392
-392
-392
-392
-392
-392
-392
-392
-392
-392
-392
-392
-392
-392
-392
-392
-392
-392
-392
-392
-392
-392
-392
-392
-392
-392
-392
-392
-392
-392
-392
-392
-392
-392
-392
-392
-392
-392
-392
-392
-392
-392
-392
-392
-392
-392
-392
-392
-392
-392
-392
-392
-392
-392
-392
-392
-392
-392
-392
-392
-391
-391
-391
-391
-391
-391
-391
-391
-391
-390
-390
-390
-390
-390
-390
-390
-390
-390
-390
-390
-390
-390
-390
-390
-390
-390
-390
-390
-390
-390
-390
-390
-390
-390
-391
-391
-391
-391
-391
-390
-390
-390
-390
-390
-390
-390
-390
-390
-390
-390
-390
-390
-390
-391
-391
-391
-391
-391
-391
-391
-391
-391
-391
-391
-391
-391
-391
-391
-390
-390
-390
-390
-390
-390
-390
-390
-390
-390
-390
-390
-391
-391
-391
-390
-390
-390
-390
-390
-390
-390
-390
-390
-390
-390
-390
-390
-390
-390
-390
-390
-389
-389
-389
-389
-389
-389
-391
-391
-391
-391
-390
-390
-390
-390
-390
-390
-390
-390
-390
-390
-390
-390
-390
-390
-391
-390
-390
-390
-390
-389
-389
-389
-389
-389
-389
-389
-389
-389
-389
-389
-389
-389
-389
-389
-389
-389
-389
-389
-389
-389
-389
-389
-389
-389
-389
-389
-389
-389
-389
-389
-389
-389
-389
-389
-389
-389
-389
-389
-389
-389
-388
-388
-388
-388
-388
-388
-388
-388
-389
-389
-389
-389
-389
-389
-389
-389
-388
-388
-388
-388
-388
-388
-388
-388
-388
-388
-388
-388
-388
-388
-388
-388
-388
-388
-388
-388
-388
-388
-388
-388
-388
-387
-387
-387
-387
-387
-387
-387
-387
-387
-387
-387
-387
-387
-387
-387
-387
-387
-386
-387
-387
-387
-387
-387
-387
-387
-387
-387
-387
-387
-387
-387
-387
-387
-386
-386
-386
-386
-385
-385
-385
-385
-385
-384
-385
-385
-384
-384
-385
-384
-384
-384
-384
-385
-385
-384
-385
-385
-386
-385
-385
-386
-385
-386
-386
-386
-386
-387
-387
-388
-388
-390
-390
-392
-392
-394
-395
-397
-398
-400
-401
-403
-404
-405
-407
-408
-409
-410
-411
-412
-413
-413
-413
-413
-414
-414
-413
-413
-412
-412
-411
-410
-409
-409
-408
-407
-406
-406
-405
-404
-404
-403
-403
-401
-401
-400
-399
-399
-398
-397
-397
-396
-396
-395
-394
-393
-393
-393
-391
-391
-391
-390
-389
-388
-388
-388
-387
-387
-386
-385
-385
-384
-384
-384
-383
-382
-382
-381
-380
-381
-380
-380
-379
-379
-378
-378
-378
-377
-377
-376
-377
-377
-376
-376
-376
-376
-377
-377
-377
-376
-376
-376
-376
-376
-376
-376
-376
-375
-375
-375
-376
-376
-376
-374
-374
-374
-374
-374
-374
-374
-374
-374
-374
-374
-374
-374
-373
-373
-373
-373
-373
-373
-373
-374
-374
-374
-374
-374
-374
-375
-375
-375
-374
-374
-374
-375
-375
-375
-374
-374
-374
-374
-373
-373
-373
-372
-372
-372
-371
-370
-370
-369
-369
-369
-368
-368
-368
-369
-369
-370
-371
-372
-374
-377
-381
-384
-388
-394
-398
-404
-411
-417
-424
-431
-439
-446
-453
-460
-467
-473
-479
-484
-488
-492
-496
-498
-499
-500
-500
-500
-498
-496
-492
-489
-484
-479
-474
-468
-462
-456
-450
-443
-437
-430
-425
-419
-414
-408
-403
-399
-396
-392
-388
-386
-384
-381
-379
-379
-377
-376
-377
-376
-376
-376
-376
-376
-376
-376
-375
-374
-374
-373
-372
-371
-371
-369
-369
-368
-367
-366
-366
-365
-364
-363
-364
-363
-363
-362
-362
-362
-362
-362
-362
-362
-362
-361
-361
-361
-361
-361
-361
-361
-361
-361
-360
-360
-360
-359
-359
-359
-359
-358
-358
-359
-359
-359
-358
-358
-358
-358
-358
-358
-358
-358
-358
-358
-358
-357
-357
-357
-357
-357
-357
-357
-357
-356
-356
-356
-356
-356
-356
-356
-356
-356
-356
-355
-355
-355
-355
-355
-355
-355
-355
-355
-355
-355
-354
-354
-354
-354
-354
-354
-354
-354
-353
-353
-353
-353
-353
-353
-353
-353
-353
-353
-353
-352
-352
-351
-351
-351
-351
-351
-351
-351
-351
-351
-351
-351
-351
-351
-350
-350
-350
-350
-351
-351
-351
-351
-351
-351
-351
-351
-351
-351
-351
-351
-351
-350
-350
-351
-351
-350
-350
-351
-351
-351
-351
-351
-351
-351
-351
-351
-351
-351
-351
-351
-351
-351
-351
-351
-350
-350
-350
-350
-350
-350
-349
-349
-349
-349
-349
-349
-349
-349
-349
-349
-349
-349
-349
-349
-348
-349
-349
-349
-349
-349
-349
-349
-349
-349
-349
-349
-349
-349
-349
-349
-349
-349
-349
-349
-348
-348
-348
-348
-348
-348
-348
-348
-348
-348
-349
-349
-348
-348
-348
-348
-348
-348
-348
-348
-348
-349
-349
-349
-348
-349
-349
-349
-349
-349
-349
-349
-349
-349
-349
-349
-349
-349
-349
-349
-349
-349
-349
-349
-349
-349
-350
-350
-350
-350
-350
-350
-350
-351
-351
-350
-350
-350
-351
-351
-351
-351
-351
-351
-351
-351
-351
-351
-352
-352
-352
-352
-352
-352
-353
-353
-353
-353
-354
-354
-354
-355
-355
-355
-355
-355
-355
-355
-356
-356
-357
-357
-357
-357
-357
-357
-357
-357
-357
-357
-357
-357
-357
-358
-358
-358
-358
-358
-359
-359
-359
-358
-359
-359
-359
-360
-360
-360
-361
-361
-361
-362
-361
-361
-363
-363
-362
-363
-363
-363
-364
-364
-364
-364
-365
-365
-365
-365
-365
-366
-366
-366
-366
-367
-367
-367
-367
-367
-368
-368
-368
-368
-369
-369
-369
-369
-369
-368
-368
-368
-368
-368
-367
-367
-367
-368
-366
-367
-366
-366
-365
-365
-364
-364
-363
-363
-362
-362
-361
-360
-361
-360
-359
-359
-358
-357
-357
-356
-355
-354
-354
-353
-352
-352
-352
-351
-351
-350
-349
-349
-349
-348
-347
-347
-346
-346
-345
-345
-344
-343
-344
-343
-342
-341
-340
-341
-340
-339
-338
-338
-338
-337
-337
-336
-336
-336
-335
-334
-334
-334
-333
-333
-332
-333
-332
-332
-332
-332
-331
-332
-332
-331
-331
-331
-331
-331
-331
-330
-330
-330
-330
-330
-330
-331
-330
-330
-330
-330
-330
-330
-330
-330
-330
-329
-329
-329
-329
-329
-329
-328
-328
-328
-328
-328
-328
-328
-328
-328
-328
-328
-328
-328
-328
-328
-328
-328
-329
-329
-329
-329
-329
-329
-329
-329
-329
-329
-330
-330
-330
-330
-330
-330
-330
-330
-330
-330
-330
-330
-330
-330
-331
-331
-331
-331
-331
-330
-330
-330
-330
-331
-331
-331
-331
-331
-331
-331
-331
-331
-331
-331
-331
-331
-331
-330
-331
-331
-331
-331
-331
-331
-331
-331
-331
-331
-331
-331
-331
-331
-331
-331
-332
-332
-332
-332
-332
-332
-332
-332
-333
-333
-332
-332
-332
-332
-332
-333
-333
-333
-333
-333
-333
-333
-333
-333
-333
-333
-333
-333
-333
-333
-333
-333
-333
-333
-333
-333
-333
-333
-333
-333
-333
-333
-333
-333
-333
-333
-333
-333
-333
-333
-333
-333
-333
-333
-333
-333
-333
-333
-333
-333
-333
-333
-333
-333
-333
-333
-333
-333
-333
-333
-333
-333
-334
-334
-334
-334
-333
-333
-333
-333
-334
-334
-334
-334
-334
-334
-334
-335
-335
-335
-335
-335
-335
-335
-335
-335
-335
-335
-335
-335
-335
-335
-335
-335
-335
-335
-335
-335
-335
-336
-336
-336
-336
-336
-336
-336
-336
-336
-336
-336
-336
-336
-336
-336
-336
-336
-336
-336
-336
-335
-335
-335
-336
-336
-337
-337
-336
-336
-336
-336
-337
-337
-337
-337
-337
-338
-338
-338
-338
-337
-337
-337
-338
-338
-338
-337
-337
-338
-338
-338
-338
-338
-338
-338
-338
-338
-338
-338
-338
-338
-338
-338
-338
-338
-338
-338
-338
-338
-338
-338
-338
-338
-338
-338
-338
-338
-338
-338
-338
-337
-337
-337
-338
-338
-338
-338
-338
-338
-338
-338
-338
-339
-339
-339
-340
-340
-340
-340
-340
-340
-340
-340
-340
-340
-340
-341
-341
-341
-341
-341
-341
-341
-341
-341
-341
-341
-341
-341
-341
-341
-341
-341
-341
-341
-341
-342
-342
-342
-342
-342
-342
-342
-342
-341
-341
-341
-341
-341
-341
-341
-341
-341
-341
-341
-341
-341
-341
-341
-341
-340
-341
-341
-341
-341
-340
-340
-341
-341
-341
-341
-341
-341
-342
-342
-342
-342
-342
-342
-342
-343
-343
-343
-343
-342
-342
-342
-342
-342
-342
-342
-342
-342
-342
-342
-342
-342
-341
-342
-342
-342
-342
-343
-343
-342
-342
-343
-343
-343
-343
-343
-344
-344
-344
-344
-344
-344
-344
-344
-344
-344
-344
-344
-343
-344
-344
-344
-344
-344
-344
-344
-344
-344
-345
-344
-344
-344
-344
-344
-344
-344
-344
-344
-344
-344
-344
-345
-345
-345
-345
-345
-345
-345
-345
-345
-345
-345
-345
-345
-345
-346
-346
-346
-346
-346
-346
-346
-346
-346
-346
-346
-346
-345
-345
-345
-346
-346
-346
-346
-346
-346
-346
-346
-346
-346
-346
-346
-346
-347
-347
-347
-347
-347
-347
-347
-347
-347
-347
-347
-347
-347
-347
-348
-348
-348
-348
-348
-348
-348
-348
-349
-349
-349
-349
-349
-349
-349
-349
-349
-349
-349
-349
-349
-349
-349
-349
-349
-349
-349
-349
-349
-349
-349
-349
-349
-349
-349
-349
-349
-349
-350
-350
-350
-350
-350
-350
-349
-349
-350
-350
-350
-350
-350
-350
-350
-349
-349
-349
-349
-349
-349
-349
-349
-350
-349
-349
-349
-349
-349
-349
-350
-350
-351
-351
-351
-351
-351
-351
-351
-351
-351
-351
-351
-351
-351
-351
-352
-352
-352
-352
-352
-352
-352
-352
-352
-352
-352
-352
-352
-352
-352
-352
-352
-352
-352
-353
-353
-353
-353
-352
-352
-352
-352
-352
-353
-353
-353
-353
-353
-352
-352
-352
-353
-353
-353
-353
-353
-353
-353
-353
-353
-353
-353
-354
-354
-354
-354
-353
-353
-353
-353
-353
-353
-353
-353
-353
-353
-353
-353
-353
-353
-354
-354
-354
-354
-354
-354
-354
-354
-354
-355
-355
-355
-355
-355
-355
-355
-355
-355
-355
-355
-355
-355
-355
-355
-355
-355
-355
-354
-355
-355
-355
-355
-355
-355
-354
-354
-355
-355
-355
-355
-355
-355
-355
-355
-355
-355
-356
-356
-356
-356
-355
-356
-356
-356
-356
-356
-356
-356
-357
-357
-357
-357
-357
-357
-356
-356
-356
-357
-357
-357
-357
-357
-357
-357
-357
-357
-357
-357
-357
-357
-357
-357
-357
-356
-356
-356
-356
-356
-357
-357
-357
-357
-357
-357
-357
-357
-357
-358
-358
-358
-358
-359
-359
-359
-359
-359
-358
-358
-358
-358
-358
-358
-358
-358
-357
-357
-357
-357
-357
-357
-357
-358
-358
-358
-358
-359
-359
-359
-358
-358
-358
-358
-358
-359
-359
-359
-359
-359
-359
-359
-359
-359
-359
-360
-359
-359
-359
-359
-359
-359
-358
-358
-358
-358
-358
-358
-358
-358
-358
-357
-357
-357
-357
-358
-357
-357
-358
-357
-358
-358
-358
-358
-359
-359
-359
-359
-360
-360
-361
-361
-360
-360
-361
-361
-363
-363
-364
-365
-366
-367
-369
-370
-371
-372
-374
-376
-378
-379
-380
-382
-383
-385
-386
-387
-387
-388
-388
-388
-388
-388
-388
-387
-388
-387
-387
-386
-385
-384
-383
-382
-381
-381
-380
-379
-379
-377
-377
-376
-376
-376
-375
-374
-374
-373
-373
-373
-372
-372
-372
-372
-371
-370
-369
-370
-369
-369
-368
-368
-367
-367
-366
-366
-365
-365
-364
-363
-363
-362
-361
-360
-360
-360
-359
-358
-358
-358
-357
-356
-357
-356
-356
-355
-355
-355
-355
-355
-355
-355
-355
-355
-355
-355
-355
-355
-355
-355
-355
-355
-355
-355
-355
-354
-354
-354
-354
-354
-354
-354
-354
-354
-354
-354
-354
-354
-354
-354
-354
-354
-354
-354
-355
-355
-355
-355
-355
-355
-355
-355
-356
-356
-356
-356
-356
-357
-357
-356
-356
-356
-356
-357
-357
-357
-358
-357
-358
-357
-357
-357
-357
