# Simple Text Format
# Sampling Rate (Hz):= 1200.00
# Resolution:= 12
# Labels:= ECG	 V5
# Age:=	14
# Gender:=	Masculino
-403
-403
-403
-403
-403
-403
-403
-403
-403
-403
-403
-403
-403
-403
-403
-403
-403
-403
-403
-403
-403
-403
-403
-403
-403
-403
-403
-403
-404
-404
-404
-404
-404
-404
-404
-404
-404
-405
-405
-405
-405
-405
-405
-405
-404
-404
-404
-404
-404
-404
-403
-403
-403
-403
-403
-402
-402
-402
-403
-403
-403
-403
-403
-403
-402
-402
-402
-402
-402
-402
-402
-402
-402
-402
-402
-402
-402
-402
-402
-402
-402
-402
-402
-402
-402
-402
-402
-402
-402
-403
-403
-403
-403
-403
-403
-403
-403
-403
-403
-403
-404
-404
-404
-404
-404
-404
-404
-404
-404
-404
-404
-404
-403
-403
-403
-403
-403
-403
-403
-402
-402
-402
-402
-402
-402
-402
-402
-402
-401
-401
-401
-401
-401
-401
-401
-401
-401
-401
-401
-401
-401
-401
-401
-401
-401
-401
-401
-401
-401
-401
-401
-401
-401
-402
-402
-402
-402
-402
-402
-402
-402
-402
-403
-403
-403
-403
-403
-403
-403
-403
-403
-403
-403
-403
-403
-403
-404
-404
-404
-404
-404
-404
-404
-404
-404
-404
-404
-404
-404
-404
-404
-404
-404
-404
-404
-404
-404
-404
-403
-403
-403
-403
-403
-402
-403
-403
-403
-403
-403
-403
-403
-402
-402
-402
-402
-402
-402
-402
-402
-402
-402
-402
-402
-402
-402
-403
-402
-402
-402
-402
-402
-402
-402
-402
-402
-402
-402
-402
-402
-402
-402
-402
-402
-402
-402
-402
-402
-402
-402
-402
-403
-403
-403
-402
-402
-402
-402
-402
-402
-402
-402
-402
-402
-402
-402
-402
-402
-402
-402
-402
-402
-402
-402
-401
-401
-401
-402
-402
-402
-403
-403
-403
-402
-402
-403
-403
-403
-403
-403
-403
-403
-403
-403
-403
-403
-403
-403
-402
-402
-402
-402
-402
-402
-402
-402
-403
-402
-402
-402
-402
-402
-401
-401
-402
-402
-402
-402
-402
-401
-401
-401
-401
-401
-401
-401
-401
-401
-401
-401
-401
-401
-401
-401
-401
-401
-401
-401
-401
-401
-401
-401
-401
-401
-401
-401
-401
-402
-401
-401
-401
-401
-401
-401
-401
-401
-401
-400
-400
-400
-400
-400
-400
-400
-400
-400
-400
-400
-400
-400
-400
-400
-400
-400
-400
-400
-400
-400
-400
-400
-400
-400
-400
-400
-400
-400
-400
-400
-400
-400
-400
-400
-400
-400
-401
-401
-401
-401
-401
-401
-401
-401
-401
-401
-401
-401
-401
-401
-400
-400
-400
-400
-400
-400
-400
-400
-400
-399
-399
-399
-399
-399
-399
-399
-399
-399
-399
-399
-400
-400
-400
-400
-400
-400
-400
-400
-400
-400
-400
-399
-399
-399
-400
-400
-400
-400
-400
-400
-400
-399
-399
-400
-400
-400
-400
-400
-400
-400
-400
-400
-400
-400
-400
-400
-400
-400
-400
-400
-400
-399
-400
-400
-400
-400
-400
-400
-400
-400
-400
-400
-400
-400
-400
-400
-400
-400
-400
-400
-398
-398
-398
-398
-398
-398
-398
-398
-398
-398
-398
-398
-398
-398
-398
-398
-398
-398
-398
-398
-398
-398
-398
-398
-399
-399
-399
-399
-399
-399
-399
-399
-399
-399
-399
-399
-399
-399
-398
-398
-398
-398
-398
-398
-398
-398
-399
-399
-399
-398
-398
-398
-399
-399
-399
-399
-399
-399
-399
-399
-399
-399
-399
-399
-399
-399
-399
-398
-399
-399
-399
-399
-399
-399
-399
-399
-399
-399
-399
-399
-399
-399
-398
-398
-398
-398
-398
-397
-397
-396
-396
-396
-396
-396
-396
-396
-395
-395
-395
-394
-394
-394
-393
-394
-393
-393
-393
-392
-392
-392
-392
-391
-391
-391
-390
-390
-390
-389
-390
-389
-389
-388
-388
-387
-387
-386
-386
-385
-385
-384
-384
-384
-383
-383
-383
-382
-382
-382
-382
-382
-381
-381
-381
-381
-381
-381
-380
-381
-381
-380
-380
-379
-379
-379
-378
-378
-377
-377
-376
-376
-375
-375
-374
-375
-374
-374
-374
-374
-374
-374
-374
-374
-375
-374
-375
-376
-376
-376
-377
-377
-378
-379
-380
-380
-381
-381
-382
-383
-384
-384
-385
-386
-387
-387
-388
-389
-389
-390
-390
-391
-392
-392
-392
-393
-393
-393
-394
-394
-394
-394
-395
-395
-395
-395
-395
-396
-396
-396
-396
-396
-396
-396
-396
-396
-396
-396
-396
-396
-396
-397
-397
-397
-397
-397
-397
-397
-397
-397
-397
-397
-397
-397
-397
-397
-397
-397
-397
-397
-397
-397
-396
-396
-396
-396
-396
-395
-395
-395
-395
-395
-394
-394
-394
-394
-394
-394
-394
-394
-394
-394
-395
-395
-395
-395
-396
-397
-397
-398
-399
-400
-401
-401
-403
-403
-404
-405
-404
-404
-404
-402
-400
-397
-394
-391
-385
-379
-370
-360
-350
-338
-324
-309
-293
-275
-256
-235
-214
-191
-168
-144
-121
-98
-76
-55
-35
-16
2
18
32
44
54
61
66
68
65
61
53
43
29
13
-4
-23
-44
-65
-89
-112
-135
-159
-182
-205
-227
-248
-268
-287
-303
-319
-332
-343
-353
-362
-368
-374
-378
-380
-381
-382
-382
-381
-381
-379
-378
-377
-376
-375
-374
-373
-372
-371
-372
-371
-371
-372
-372
-373
-373
-373
-373
-375
-376
-377
-377
-378
-378
-379
-380
-380
-381
-381
-382
-382
-382
-382
-383
-383
-383
-384
-383
-383
-383
-383
-383
-383
-383
-383
-382
-382
-382
-382
-381
-381
-381
-381
-381
-381
-380
-380
-380
-379
-379
-380
-380
-379
-379
-379
-379
-379
-379
-379
-379
-378
-378
-378
-378
-377
-377
-377
-377
-377
-377
-377
-376
-376
-376
-376
-376
-376
-376
-376
-375
-374
-374
-374
-374
-374
-374
-374
-374
-374
-373
-373
-373
-372
-372
-372
-372
-372
-372
-372
-372
-372
-371
-371
-371
-371
-371
-370
-370
-370
-370
-370
-370
-370
-370
-369
-369
-369
-369
-369
-369
-369
-368
-368
-368
-368
-368
-368
-367
-367
-367
-367
-367
-367
-366
-366
-366
-366
-366
-366
-366
-365
-365
-365
-365
-365
-364
-364
-364
-364
-364
-363
-363
-363
-363
-362
-361
-361
-360
-360
-360
-359
-360
-359
-359
-359
-358
-358
-358
-357
-357
-356
-356
-355
-355
-354
-355
-355
-354
-354
-354
-353
-353
-353
-352
-352
-352
-352
-352
-351
-351
-351
-351
-350
-350
-349
-349
-349
-349
-347
-347
-347
-346
-346
-346
-345
-345
-345
-344
-344
-343
-343
-342
-342
-341
-341
-340
-340
-339
-339
-339
-338
-338
-337
-337
-337
-337
-335
-335
-335
-334
-334
-333
-333
-333
-332
-332
-331
-331
-330
-330
-329
-329
-328
-328
-327
-327
-325
-324
-325
-324
-323
-322
-321
-321
-320
-319
-319
-318
-317
-316
-316
-316
-315
-314
-313
-312
-311
-310
-309
-308
-307
-305
-304
-304
-303
-302
-301
-300
-299
-297
-296
-295
-294
-294
-293
-292
-291
-291
-289
-288
-288
-287
-287
-286
-284
-284
-283
-282
-282
-281
-280
-279
-279
-278
-277
-276
-275
-274
-273
-272
-271
-270
-269
-268
-267
-266
-266
-266
-265
-263
-262
-261
-261
-261
-260
-259
-259
-257
-257
-257
-257
-255
-255
-254
-254
-254
-253
-253
-253
-253
-253
-253
-253
-253
-253
-254
-254
-254
-255
-255
-256
-257
-258
-258
-259
-260
-262
-263
-264
-265
-267
-268
-270
-271
-274
-276
-278
-280
-281
-283
-285
-288
-290
-292
-294
-296
-299
-301
-303
-305
-307
-310
-312
-314
-316
-318
-320
-322
-323
-326
-328
-330
-331
-334
-335
-337
-338
-341
-342
-344
-345
-348
-349
-351
-352
-354
-356
-357
-358
-359
-361
-362
-363
-364
-365
-367
-368
-369
-369
-371
-372
-372
-373
-375
-375
-376
-376
-378
-378
-378
-380
-380
-380
-381
-381
-382
-382
-382
-383
-383
-384
-384
-384
-384
-384
-384
-384
-385
-385
-386
-386
-386
-386
-386
-387
-387
-387
-388
-388
-388
-388
-388
-388
-388
-388
-387
-388
-388
-388
-387
-387
-386
-386
-386
-385
-386
-386
-385
-385
-385
-385
-384
-384
-384
-385
-385
-385
-385
-385
-386
-386
-386
-387
-387
-386
-387
-387
-387
-387
-387
-387
-387
-387
-387
-387
-387
-388
-388
-387
-387
-387
-386
-386
-386
-386
-385
-385
-386
-386
-385
-385
-386
-386
-386
-386
-386
-386
-387
-387
-387
-387
-387
-388
-388
-388
-388
-388
-389
-389
-389
-389
-389
-389
-389
-389
-389
-389
-389
-389
-389
-388
-388
-388
-388
-388
-388
-387
-387
-387
-387
-387
-386
-386
-386
-386
-386
-386
-386
-386
-386
-386
-386
-386
-386
-386
-386
-386
-386
-386
-386
-386
-386
-388
-388
-388
-388
-388
-388
-388
-389
-389
-390
-390
-390
-390
-390
-390
-390
-390
-391
-391
-391
-391
-391
-391
-391
-391
-391
-391
-391
-391
-391
-391
-391
-391
-390
-390
-390
-390
-390
-389
-389
-390
-390
-390
-390
-390
-390
-390
-390
-391
-391
-391
-391
-392
-392
-392
-391
-392
-392
-392
-392
-393
-393
-393
-393
-393
-393
-393
-393
-393
-393
-393
-393
-393
-393
-392
-392
-392
-392
-393
-392
-392
-392
-392
-392
-392
-392
-392
-392
-392
-392
-392
-393
-393
-393
-393
-393
-393
-394
-394
-394
-394
-394
-394
-394
-394
-395
-395
-395
-395
-394
-394
-394
-394
-394
-394
-394
-394
-394
-394
-394
-394
-394
-394
-394
-394
-394
-394
-394
-394
-394
-394
-394
-394
-394
-394
-393
-393
-394
-394
-394
-393
-393
-393
-393
-393
-393
-393
-392
-393
-393
-393
-393
-393
-393
-393
-393
-392
-393
-393
-393
-393
-393
-393
-393
-394
-394
-394
-394
-394
-394
-394
-394
-394
-394
-394
-395
-395
-395
-395
-395
-395
-395
-395
-395
-395
-395
-395
-395
-395
-395
-396
-396
-396
-396
-396
-396
-396
-396
-396
-395
-395
-395
-395
-395
-395
-395
-395
-395
-394
-394
-394
-394
-394
-394
-394
-394
-394
-393
-393
-393
-393
-393
-393
-393
-393
-393
-394
-394
-394
-394
-394
-394
-394
-394
-394
-394
-394
-394
-394
-394
-394
-394
-394
-394
-394
-393
-393
-393
-393
-393
-393
-393
-393
-393
-393
-393
-393
-393
-393
-393
-393
-393
-393
-393
-393
-393
-393
-393
-393
-393
-393
-393
-393
-393
-393
-394
-394
-394
-394
-393
-393
-393
-393
-394
-394
-394
-393
-393
-393
-393
-393
-394
-393
-393
-393
-392
-392
-392
-392
-391
-392
-392
-392
-392
-392
-392
-391
-391
-391
-392
-392
-392
-392
-392
-392
-392
-393
-393
-393
-393
-393
-393
-393
-393
-393
-393
-393
-392
-392
-392
-393
-392
-392
-392
-391
-391
-391
-391
-391
-391
-391
-390
-391
-391
-390
-390
-390
-390
-390
-390
-390
-390
-390
-391
-391
-391
-391
-392
-392
-391
-392
-392
-393
-393
-392
-393
-393
-393
-394
-394
-394
-394
-393
-393
-393
-393
-392
-392
-392
-393
-393
-392
-392
-392
-392
-392
-392
-392
-391
-391
-391
-391
-392
-391
-391
-391
-391
-391
-391
-391
-391
-391
-391
-392
-392
-391
-391
-391
-391
-391
-391
-391
-391
-391
-391
-391
-391
-391
-391
-391
-391
-390
-390
-390
-390
-390
-391
-391
-390
-390
-390
-390
-390
-390
-390
-390
-390
-390
-390
-390
-390
-390
-390
-389
-389
-389
-389
-389
-388
-388
-388
-388
-388
-387
-387
-387
-387
-387
-388
-388
-388
-388
-388
-389
-389
-389
-389
-389
-389
-389
-390
-390
-390
-390
-390
-390
-390
-390
-390
-390
-390
-389
-389
-389
-389
-389
-388
-388
-388
-388
-387
-387
-387
-387
-387
-387
-387
-387
-387
-387
-387
-386
-386
-386
-386
-386
-387
-387
-387
-387
-387
-387
-387
-388
-388
-388
-388
-388
-388
-388
-388
-388
-388
-388
-388
-388
-388
-388
-388
-387
-387
-387
-387
-387
-387
-387
-386
-386
-386
-385
-385
-385
-385
-385
-385
-385
-385
-385
-385
-385
-386
-386
-386
-386
-386
-386
-386
-387
-387
-387
-387
-387
-387
-388
-388
-388
-388
-387
-387
-386
-386
-386
-386
-386
-387
-386
-386
-386
-386
-385
-385
-385
-385
-385
-384
-384
-384
-384
-384
-383
-383
-384
-383
-383
-383
-383
-383
-382
-382
-382
-382
-382
-382
-382
-382
-382
-382
-382
-382
-382
-382
-382
-382
-382
-382
-381
-381
-381
-381
-381
-381
-380
-381
-381
-381
-380
-380
-380
-379
-379
-379
-379
-378
-378
-378
-378
-379
-379
-378
-378
-378
-378
-379
-379
-379
-379
-379
-379
-379
-379
-379
-379
-379
-379
-379
-379
-379
-379
-379
-379
-379
-379
-379
-379
-379
-379
-379
-379
-379
-379
-379
-379
-379
-379
-378
-378
-377
-377
-377
-377
-377
-377
-377
-377
-377
-377
-377
-377
-377
-377
-377
-377
-377
-377
-377
-377
-377
-377
-377
-377
-377
-377
-377
-376
-376
-376
-376
-376
-376
-375
-374
-374
-374
-373
-373
-373
-373
-373
-372
-372
-371
-371
-371
-370
-370
-370
-369
-370
-369
-368
-369
-368
-368
-368
-367
-367
-367
-367
-366
-366
-365
-365
-364
-364
-364
-363
-363
-362
-361
-361
-361
-360
-360
-359
-358
-357
-357
-357
-357
-356
-356
-356
-355
-355
-355
-354
-354
-354
-354
-354
-354
-353
-354
-353
-353
-352
-352
-352
-352
-351
-351
-351
-351
-351
-351
-351
-350
-351
-351
-351
-351
-351
-351
-351
-352
-353
-353
-353
-354
-355
-355
-356
-357
-357
-358
-358
-359
-359
-360
-361
-361
-362
-362
-362
-363
-363
-364
-365
-365
-365
-366
-366
-366
-366
-367
-368
-368
-369
-369
-370
-369
-369
-370
-370
-370
-371
-371
-371
-371
-372
-372
-372
-372
-372
-372
-372
-372
-373
-373
-373
-372
-372
-372
-373
-372
-372
-372
-372
-371
-371
-371
-371
-371
-371
-371
-371
-371
-371
-371
-372
-371
-371
-371
-372
-372
-372
-372
-372
-372
-372
-371
-371
-372
-372
-372
-371
-371
-371
-371
-370
-370
-370
-370
-370
-370
-371
-372
-372
-373
-374
-375
-376
-377
-378
-379
-379
-379
-379
-379
-376
-374
-372
-368
-363
-356
-348
-339
-329
-316
-302
-286
-269
-250
-230
-208
-186
-162
-138
-112
-88
-63
-39
-15
7
28
48
65
81
93
105
113
117
119
117
111
102
90
74
57
37
16
-8
-33
-58
-85
-110
-138
-163
-188
-213
-236
-256
-277
-294
-309
-323
-334
-344
-351
-357
-361
-364
-364
-364
-364
-363
-361
-359
-356
-354
-351
-350
-348
-345
-344
-343
-342
-341
-341
-340
-340
-341
-341
-342
-342
-343
-344
-344
-345
-346
-347
-347
-348
-349
-349
-350
-351
-351
-352
-352
-352
-353
-353
-353
-353
-353
-353
-353
-353
-353
-353
-352
-352
-352
-352
-351
-351
-351
-351
-351
-350
-350
-350
-350
-350
-350
-350
-350
-350
-350
-350
-350
-350
-349
-349
-349
-350
-350
-350
-350
-350
-350
-350
-350
-349
-349
-349
-349
-348
-348
-348
-348
-347
-347
-346
-346
-346
-345
-345
-345
-344
-344
-343
-343
-342
-342
-341
-341
-341
-341
-340
-340
-340
-340
-339
-339
-339
-339
-339
-338
-338
-338
-338
-338
-338
-338
-337
-337
-337
-337
-337
-337
-337
-337
-337
-337
-337
-337
-336
-336
-336
-334
-334
-334
-334
-334
-333
-333
-333
-332
-332
-332
-331
-331
-331
-330
-330
-329
-329
-328
-328
-327
-327
-327
-326
-326
-326
-325
-325
-325
-324
-324
-324
-324
-324
-323
-323
-323
-323
-322
-321
-321
-321
-321
-320
-320
-320
-320
-319
-319
-319
-318
-318
-318
-317
-317
-316
-315
-315
-315
-315
-314
-314
-314
-313
-313
-313
-312
-312
-312
-311
-311
-310
-310
-309
-308
-308
-307
-306
-307
-306
-305
-304
-304
-303
-303
-302
-301
-301
-300
-300
-299
-299
-299
-298
-298
-297
-296
-296
-296
-294
-294
-293
-294
-293
-292
-292
-291
-291
-290
-289
-289
-288
-288
-287
-287
-286
-285
-285
-284
-283
-282
-282
-281
-280
-280
-279
-279
-278
-277
-276
-276
-275
-275
-274
-273
-272
-271
-271
-270
-269
-268
-267
-266
-265
-264
-262
-261
-260
-259
-258
-257
-256
-256
-255
-254
-253
-252
-252
-251
-250
-249
-248
-247
-246
-245
-244
-243
-242
-241
-240
-239
-237
-237
-236
-235
-234
-232
-231
-230
-229
-229
-228
-227
-225
-224
-224
-223
-222
-221
-221
-219
-218
-217
-216
-216
-215
-214
-213
-212
-211
-211
-210
-209
-209
-208
-208
-207
-207
-206
-206
-204
-204
-203
-203
-203
-202
-203
-203
-203
-203
-203
-203
-203
-204
-204
-205
-205
-206
-207
-208
-209
-211
-212
-214
-215
-217
-219
-220
-222
-223
-226
-228
-231
-233
-235
-236
-240
-242
-244
-247
-249
-252
-254
-257
-259
-261
-264
-266
-269
-271
-274
-277
-279
-281
-283
-287
-289
-291
-293
-295
-298
-299
-301
-303
-306
-307
-309
-311
-312
-315
-316
-318
-319
-321
-322
-324
-325
-326
-328
-329
-330
-331
-332
-334
-334
-335
-337
-337
-338
-340
-340
-340
-341
-342
-343
-343
-344
-344
-346
-346
-347
-347
-348
-349
-350
-350
-351
-351
-351
-353
-353
-353
-354
-354
-354
-354
-355
-355
-355
-355
-355
-355
-356
-356
-355
-355
-355
-355
-356
-356
-356
-356
-356
-355
-355
-355
-355
-355
-355
-355
-355
-355
-355
-356
-356
-355
-355
-355
-355
-355
-355
-355
-355
-354
-354
-354
-354
-354
-353
-353
-353
-353
-352
-352
-352
-352
-351
-351
-351
-350
-350
-350
-349
-349
-349
-349
-349
-349
-349
-348
-348
-348
-348
-348
-348
-348
-347
-347
-347
-347
-347
-347
-347
-347
-347
-347
-347
-346
-346
-346
-346
-346
-346
-346
-346
-346
-345
-345
-345
-345
-345
-345
-345
-345
-345
-345
-345
-345
-345
-345
-345
-345
-345
-345
-345
-345
-345
-344
-344
-344
-344
-343
-343
-343
-343
-343
-343
-343
-341
-341
-341
-342
-342
-342
-342
-342
-342
-342
-342
-343
-342
-342
-343
-343
-344
-344
-344
-344
-344
-344
-345
-345
-345
-345
-345
-345
-346
-346
-346
-346
-347
-347
-347
-347
-347
-347
-347
-348
-348
-348
-348
-348
-348
-348
-348
-348
-348
-347
-347
-347
-346
-347
-347
-346
-346
-346
-346
-346
-346
-346
-346
-347
-347
-347
-348
-347
-348
-348
-349
-349
-349
-350
-350
-351
-351
-351
-351
-351
-351
-351
-351
-351
-352
-352
-352
-352
-351
-351
-351
-351
-351
-350
-350
-350
-350
-350
-349
-349
-349
-350
-350
-350
-350
-350
-350
-350
-349
-349
-350
-350
-350
-350
-350
-350
-351
-351
-351
-351
-351
-351
-351
-351
-351
-351
-351
-350
-350
-350
-350
-350
-349
-349
-349
-349
-350
-350
-350
-350
-350
-350
-349
-349
-349
-350
-350
-350
-350
-350
-350
-350
-350
-350
-350
-350
-349
-349
-349
-349
-349
-349
-349
-348
-348
-348
-348
-348
-348
-348
-348
-348
-348
-348
-348
-348
-348
-348
-348
-349
-349
-349
-348
-349
-349
-349
-349
-349
-349
-349
-350
-350
-350
-350
-350
-349
-350
-350
-350
-350
-350
-350
-350
-350
-350
-350
-350
-349
-349
-349
-349
-349
-349
-348
-348
-348
-347
-347
-347
-347
-347
-347
-347
-347
-347
-347
-347
-347
-348
-348
-348
-349
-349
-348
-349
-349
-349
-350
-350
-350
-349
-349
-349
-349
-349
-349
-349
-349
-349
-349
-349
-349
-348
-348
-348
-348
-348
-348
-348
-348
-348
-348
-348
-348
-348
-348
-348
-348
-348
-348
-348
-348
-348
-348
-348
-348
-348
-348
-348
-348
-348
-348
-347
-347
-347
-347
-347
-347
-347
-347
-347
-347
-346
-346
-346
-346
-346
-346
-346
-346
-346
-346
-346
-346
-346
-346
-346
-346
-346
-346
-346
-346
-346
-346
-346
-345
-345
-345
-345
-345
-345
-346
-345
-345
-345
-345
-345
-345
-345
-345
-345
-346
-346
-346
-346
-345
-345
-345
-346
-346
-346
-346
-346
-346
-346
-347
-346
-346
-346
-346
-346
-346
-346
-346
-345
-345
-345
-345
-344
-344
-344
-344
-344
-344
-344
-344
-344
-344
-344
-344
-344
-344
-345
-345
-345
-345
-345
-345
-345
-345
-345
-344
-344
-344
-344
-344
-344
-344
-344
-344
-345
-345
-345
-345
-344
-344
-344
-344
-345
-345
-345
-345
-345
-345
-345
-345
-345
-344
-344
-344
-344
-344
-344
-344
-344
-344
-344
-344
-344
-344
-344
-344
-344
-344
-344
-344
-343
-343
-344
-344
-344
-344
-344
-344
-344
-344
-344
-344
-344
-344
-345
-345
-345
-345
-344
-344
-345
-345
-345
-345
-345
-345
-345
-344
-345
-345
-345
-345
-345
-345
-345
-345
-345
-345
-345
-346
-346
-346
-346
-346
-346
-346
-345
-345
-345
-345
-345
-345
-345
-344
-344
-344
-344
-344
-344
-343
-343
-343
-343
-343
-343
-343
-343
-343
-343
-344
-344
-344
-344
-344
-345
-345
-345
-345
-345
-345
-345
-345
-345
-345
-345
-344
-344
-344
-344
-344
-344
-344
-343
-343
-343
-343
-343
-343
-343
-343
-343
-343
-343
-343
-343
-342
-342
-342
-342
-343
-343
-343
-343
-343
-344
-344
-344
-344
-344
-344
-345
-345
-345
-345
-345
-345
-345
-345
-345
-345
-345
-344
-344
-343
-343
-343
-343
-343
-343
-342
-342
-343
-343
-343
-343
-342
-342
-342
-342
-342
-342
-342
-342
-342
-341
-341
-341
-341
-341
-341
-341
-341
-342
-342
-342
-341
-341
-341
-341
-342
-342
-342
-342
-342
-343
-343
-342
-342
-342
-343
-343
-343
-343
-343
-343
-343
-343
-343
-343
-343
-342
-342
-342
-342
-342
-342
-342
-342
-341
-341
-341
-341
-341
-341
-341
-341
-341
-341
-341
-341
-341
-341
-341
-341
-340
-340
-340
-340
-340
-340
-340
-340
-340
-340
-340
-340
-339
-340
-340
-339
-339
-339
-339
-339
-339
-339
-340
-340
-340
-340
-341
-341
-341
-341
-341
-341
-341
-341
-341
-341
-341
-341
-341
-341
-341
-341
-340
-340
-340
-340
-340
-340
-340
-340
-340
-340
-340
-340
-340
-340
-340
-339
-339
-339
-339
-339
-339
-339
-339
-339
-339
-339
-339
-338
-338
-338
-338
-338
-338
-338
-338
-338
-338
-338
-337
-337
-337
-337
-337
-337
-337
-337
-337
-336
-336
-336
-336
-335
-335
-335
-335
-335
-335
-335
-335
-334
-335
-334
-334
-334
-333
-333
-332
-332
-332
-331
-331
-330
-330
-329
-329
-328
-328
-327
-328
-328
-327
-327
-326
-326
-325
-324
-324
-323
-323
-322
-322
-321
-321
-321
-320
-320
-320
-319
-320
-319
-319
-319
-320
-319
-319
-319
-319
-319
-319
-319
-318
-318
-318
-317
-318
-317
-317
-316
-315
-315
-314
-314
-313
-313
-313
-312
-312
-312
-312
-311
-312
-312
-312
-313
-313
-314
-314
-315
-316
-317
-317
-318
-320
-320
-321
-322
-322
-323
-324
-324
-325
-325
-326
-327
-327
-327
-327
-329
-329
-329
-329
-329
-330
-330
-331
-331
-331
-332
-332
-332
-332
-333
-333
-333
-333
-334
-335
-335
-335
-335
-334
-335
-335
-335
-335
-335
-335
-336
-336
-337
-337
-337
-336
-336
-336
-336
-336
-336
-336
-336
-336
-336
-336
-336
-336
-336
-336
-336
-336
-336
-336
-336
-335
-335
-335
-334
-334
-334
-334
-334
-333
-333
-333
-333
-333
-333
-332
-332
-332
-332
-332
-332
-332
-333
-333
-334
-334
-334
-335
-337
-337
-338
-339
-340
-340
-341
-340
-340
-339
-338
-336
-333
-330
-325
-319
-312
-304
-294
-283
-270
-255
-239
-222
-203
-184
-163
-140
-118
-93
-69
-45
-22
2
23
45
65
83
100
115
126
137
144
148
149
147
142
132
121
106
90
71
51
28
6
-18
-44
-69
-93
-118
-141
-164
-187
-208
-227
-244
-259
-273
-285
-295
-303
-309
-314
-317
-319
-320
-321
-320
-320
-319
-317
-316
-314
-313
-311
-310
-309
-308
-308
-307
-307
-308
-308
-308
-309
-309
-310
-310
-311
-312
-312
-313
-314
-314
-315
-316
-316
-317
-317
-317
-318
-318
-319
-320
-320
-321
-320
-321
-321
-321
-322
-322
-322
-321
-322
-322
-322
-322
-322
-322
-321
-321
-321
-321
-321
-320
-320
-320
-320
-319
-319
-320
-320
-319
-319
-319
-319
-318
-317
-317
-317
-317
-317
-317
-317
-317
-317
-317
-317
-317
-316
-316
-316
-316
-316
-316
-316
-316
-316
-315
-315
-315
-315
-315
-315
-315
-315
-314
-314
-314
-314
-314
-314
-314
-314
-314
-313
-313
-313
-312
-312
-313
-313
-313
-312
-311
-311
-311
-310
-310
-310
-310
-309
-309
-309
-307
-307
-307
-307
-307
-306
-306
-306
-306
-306
-306
-306
-306
-305
-305
-305
-305
-305
-305
-305
-304
-304
-304
-304
-304
-303
-303
-303
-303
-302
-302
-302
-302
-301
-301
-301
-301
-301
-300
-300
-300
-299
-299
-299
-298
-298
-298
-298
-297
-297
-296
-296
-295
-295
-295
-295
-294
-294
-294
-293
-293
-293
-293
-292
-292
-293
-293
-292
-292
-292
-291
-291
-290
-290
-290
-290
-290
-289
-289
-289
-288
-288
-287
-286
-286
-285
-285
-284
-284
-283
-282
-283
-282
-282
-281
-281
-280
-280
-279
-279
-278
-278
-277
-277
-277
-276
-276
-276
-274
-274
-274
-273
-273
-273
-272
-272
-271
-271
-270
-270
-268
-268
-267
-267
-267
-266
-266
-265
-264
-263
-263
-262
-260
-259
-260
-259
-258
-258
-257
-256
-254
-254
-253
-252
-251
-250
-250
-249
-248
-247
-246
-245
-245
-244
-243
-242
-241
-240
-239
-238
-237
-236
-236
-235
-234
-233
-232
-231
-230
-228
-227
-226
-225
-224
-223
-223
-222
-221
-220
-218
-218
-217
-216
-215
-215
-214
-212
-211
-211
-210
-209
-208
-208
-207
-206
-205
-204
-203
-203
-202
-201
-200
-200
-199
-198
-198
-197
-196
-196
-195
-194
-193
-193
-192
-192
-192
-191
-191
-190
-189
-189
-189
-189
-189
-188
-189
-189
-189
-189
-190
-189
-190
-190
-191
-192
-192
-193
-194
-196
-197
-199
-200
-201
-203
-204
-206
-208
-210
-211
-213
-215
-217
-219
-220
-222
-225
-227
-229
-232
-234
-236
-238
-240
-244
-246
-248
-250
-252
-255
-257
-260
-262
-264
-266
-268
-271
-272
-275
-276
-278
-280
-282
-284
-285
-287
-289
-291
-292
-293
-296
-297
-298
-299
-300
-303
-304
-305
-306
-307
-309
-310
-311
-312
-314
-314
-315
-316
-318
-319
-319
-320
-321
-321
-322
-323
-324
-325
-326
-326
-326
-327
-327
-328
-329
-329
-329
-329
-330
-330
-330
-330
-331
-331
-331
-331
-331
-331
-331
-332
-332
-332
-332
-332
-332
-332
-332
-332
-332
-332
-332
-332
-333
-333
-333
-332
-332
-332
-332
-332
-331
-332
-332
-332
-331
-331
-331
-331
-330
-330
-330
-330
-330
-330
-330
-330
-330
-329
-329
-329
-329
-329
-329
-329
-329
-329
-329
-329
-329
-329
-330
-330
-330
-330
-330
-329
-329
-329
-329
-329
-329
-329
-329
-329
-329
-329
-329
-329
-329
-329
-329
-329
-329
-329
-329
-328
-328
-328
-328
-328
-328
-328
-327
-327
-327
-327
-327
-327
-327
-327
-327
-327
-327
-327
-327
-327
-327
-327
-327
-327
-327
-328
-328
-328
-328
-327
-327
-327
-328
-328
-328
-328
-328
-328
-327
-327
-327
-327
-327
-327
-327
-327
-327
-327
-327
-326
-326
-326
-326
-326
-326
-327
-328
-328
-328
-328
-328
-328
-329
-329
-329
-329
-329
-329
-330
-330
-329
-330
-330
-330
-330
-330
-330
-331
-331
-331
-331
-331
-331
-331
-331
-332
-332
-332
-332
-332
-332
-333
-333
-333
-333
-333
-333
-333
-333
-333
-333
-332
-332
-332
-332
-332
-332
-332
-332
-332
-332
-332
-332
-331
-331
-331
-332
-332
-332
-332
-332
-332
-333
-333
-333
-333
-333
-333
-333
-333
-333
-333
-333
-334
-335
-335
-335
-335
-335
-335
-336
-336
-336
-336
-337
-338
-338
-338
-338
-338
-338
-338
-337
-337
-337
-337
-337
-337
-335
-335
-335
-335
-335
-335
-334
-334
-334
-334
-334
-334
-334
-334
-334
-334
-334
-334
-334
-334
-334
-334
-334
-335
-335
-336
-336
-336
-336
-336
-336
-336
-336
-336
-336
-337
-337
-337
-337
-337
-337
-337
-338
-338
-338
-338
-338
-338
-338
-337
-338
-338
-338
-338
-338
-338
-338
-338
-338
-338
-338
-338
-338
-337
-337
-337
-337
-337
-337
-338
-337
-337
-337
-337
-337
-337
-336
-336
-336
-336
-336
-336
-336
-336
-336
-336
-337
-337
-337
-337
-337
-337
-337
-337
-337
-337
-337
-337
-337
-337
-337
-337
-337
-337
-336
-336
-336
-336
-336
-336
-336
-336
-336
-335
-335
-335
-335
-335
-335
-335
-335
-336
-336
-336
-336
-336
-336
-336
-336
-336
-337
-337
-337
-337
-337
-337
-337
-337
-337
-337
-337
-338
-338
-337
-337
-337
-337
-337
-337
-338
-338
-338
-338
-338
-338
-339
-339
-339
-339
-339
-339
-339
-339
-339
-339
-339
-339
-339
-339
-339
-339
-339
-339
-339
-338
-338
-338
-338
-338
-338
-338
-338
-337
-337
-337
-338
-338
-338
-338
-338
-338
-338
-338
-338
-338
-338
-338
-338
-339
-339
-338
-339
-339
-339
-339
-340
-340
-340
-341
-340
-340
-340
-340
-340
-340
-340
-340
-339
-339
-339
-339
-338
-338
-338
-337
-337
-337
-337
-337
-337
-337
-337
-337
-337
-337
-337
-337
-337
-337
-337
-337
-337
-337
-337
-337
-338
-338
-338
-338
-338
-339
-339
-339
-339
-339
-340
-340
-340
-340
-340
-340
-340
-339
-339
-339
-340
-340
-340
-340
-340
-340
-340
-340
-340
-340
-340
-340
-339
-340
-340
-340
-340
-340
-340
-341
-340
-340
-340
-341
-341
-341
-341
-342
-342
-342
-342
-342
-342
-342
-342
-342
-342
-343
-343
-343
-343
-343
-342
-342
-342
-342
-341
-341
-341
-341
-340
-341
-341
-340
-340
-339
-339
-339
-339
-339
-339
-338
-338
-337
-337
-337
-338
-337
-337
-337
-337
-337
-337
-336
-336
-336
-337
-336
-336
-336
-336
-336
-336
-336
-336
-336
-336
-336
-336
-336
-336
-336
-336
-337
-337
-337
-336
-336
-336
-337
-337
-337
-337
-337
-337
-337
-337
-338
-338
-338
-338
-337
-337
-338
-338
-338
-338
-338
-338
-339
-339
-339
-339
-338
-338
-339
-339
-339
-339
-339
-339
-339
-339
-339
-339
-339
-339
-338
-338
-338
-338
-339
-339
-339
-339
-339
-338
-338
-338
-338
-338
-338
-338
-338
-338
-338
-338
-338
-338
-338
-338
-338
-338
-338
-339
-339
-339
-339
-338
-338
-338
-338
-338
-338
-338
-337
-338
-339
-339
-338
-338
-338
-338
-338
-338
-338
-338
-338
-338
-338
-337
-337
-338
-338
-338
-338
-338
-338
-338
-337
-337
-337
-337
-337
-337
-337
-337
-337
-338
-338
-338
-338
-338
-338
-338
-338
-338
-338
-338
-338
-338
-338
-338
-338
-338
-337
-337
-337
-337
-337
-337
-337
-337
-337
-337
-337
-337
-337
-337
-337
-337
-337
-337
-337
-337
-336
-336
-336
-336
-336
-336
-336
-336
-336
-336
-336
-336
-336
-336
-336
-336
-336
-336
-336
-336
-335
-335
-335
-336
-336
-336
-336
-336
-336
-336
-336
-336
-336
-336
-336
-336
-336
-336
-336
-337
-337
-337
-337
-337
-338
-338
-338
-338
-338
-338
-338
-338
-338
-338
-338
-337
-337
-337
-337
-337
-337
-337
-337
-337
-337
-337
-338
-338
-338
-338
-338
-338
-337
-337
-337
-337
-337
-337
-337
-337
-337
-337
-337
-337
-336
-336
-336
-336
-336
-336
-336
-336
-336
-337
-337
-337
-337
-337
-337
-337
-337
-337
-337
-336
-336
-337
-337
-337
-337
-337
-337
-337
-337
-337
-337
-337
-337
-336
-336
-336
-336
-336
-336
-336
-336
-335
-335
-335
-335
-335
-335
-335
-335
-335
-335
-335
-335
-335
-335
-335
-335
-334
-334
-334
-334
-334
-334
-334
-335
-335
-335
-335
-335
-335
-335
-335
-336
-336
-336
-336
-336
-336
-336
-336
-336
-336
-336
-336
-336
-336
-336
-336
-336
-336
-336
-335
-335
-335
-335
-334
-334
-334
-334
-334
-334
-334
-334
-334
-333
-333
-333
-333
-334
-334
-334
-334
-334
-335
-335
-335
-335
-335
-334
-336
-335
-335
-335
-335
-335
-335
-335
-335
-334
-334
-334
-334
-333
-333
-333
-333
-333
-333
-333
-332
-332
-332
-332
-331
-331
-331
-331
-331
-331
-331
-330
-330
-330
-330
-329
-329
-329
-329
-328
-328
-327
-327
-326
-327
-326
-326
-325
-325
-325
-324
-324
-324
-323
-323
-323
-322
-322
-322
-321
-321
-320
-320
-319
-319
-318
-318
-317
-317
-316
-316
-316
-316
-314
-314
-314
-313
-313
-313
-313
-312
-312
-312
-313
-313
-312
-312
-312
-311
-311
-311
-311
-311
-310
-310
-310
-309
-310
-310
-309
-310
-309
-309
-309
-309
-310
-309
-310
-310
-311
-311
-312
-312
-313
-314
-314
-315
-316
-316
-317
-318
-318
-319
-320
-321
-321
-321
-322
-323
-323
-324
-325
-325
-325
-326
-326
-326
-326
-328
-328
-328
-329
-329
-329
-330
-330
-330
-331
-331
-331
-331
-332
-332
-332
-332
-333
-333
-333
-334
-334
-334
-334
-333
-333
-333
-333
-333
-333
-333
-333
-333
-333
-334
-334
-334
-335
-335
-336
-337
-337
-338
-338
-338
-338
-337
-336
-335
-333
-330
-326
-322
-316
-309
-301
-292
-282
-270
-258
-243
-227
-210
-193
-174
-154
-134
-113
-92
-70
-49
-29
-8
9
27
44
59
72
83
92
98
100
100
98
91
83
72
59
43
25
5
-15
-37
-59
-82
-106
-129
-151
-173
-194
-214
-231
-248
-263
-275
-287
-296
-303
-309
-315
-318
-320
-321
-323
-322
-323
-321
-321
-319
-318
-316
-315
-314
-313
-313
-313
-312
-312
-312
-311
-312
-312
-312
-313
-314
-315
-315
-316
-316
-316
-317
-318
-319
-319
-320
-320
-321
-321
-321
-322
-322
-322
-322
-323
-323
-323
-323
-323
-324
-324
-324
-324
-324
-324
-324
-324
-324
-324
-324
-324
-324
-324
-324
-323
-322
-322
-322
-322
-321
-321
-321
-321
-321
-321
-321
-321
-321
-321
-321
-321
-321
-320
-320
-320
-320
-320
-321
-321
-321
-321
-320
-320
-320
-320
-320
-320
-320
-319
-319
-319
-319
-318
-318
-318
-317
-317
-316
-316
-316
-315
-315
-315
-314
-314
-313
-313
-313
-312
-312
-312
-312
-312
-311
-310
-310
-310
-310
-310
-310
-310
-310
-310
-310
-310
-310
-310
-310
-310
-310
-310
-310
-310
-310
-310
-309
-309
-309
-309
-309
-309
-309
-309
-309
-308
-308
-308
-307
-307
-307
-307
-307
-306
-306
-306
-306
-305
-305
-305
-304
-304
-303
-303
-302
-302
-302
-302
-301
-301
-301
-300
-300
-299
-299
-299
-297
-298
-298
-297
-296
-296
-295
-295
-295
-294
-294
-294
-293
-293
-292
-292
-291
-291
-290
-290
-289
-289
-288
-287
-287
-286
-286
-285
-284
-284
-283
-284
-283
-283
-283
-282
-282
-282
-282
-281
-281
-281
-281
-281
-280
-280
-280
-280
-280
-279
-279
-278
-278
-278
-277
-276
-276
-275
-275
-274
-273
-272
-272
-271
-270
-269
-269
-268
-267
-268
-267
-266
-266
-265
-264
-264
-263
-262
-262
-261
-261
-260
-260
-259
-258
-258
-257
-256
-256
-255
-254
-253
-253
-252
-251
-250
-250
-249
-248
-248
-247
-246
-245
-245
-244
-243
-242
-241
-241
-241
-240
-239
-238
-238
-237
-237
-236
-235
-234
-233
-233
-232
-231
-231
-230
-229
-228
-228
-227
-227
-226
-225
-224
-223
-222
-222
-221
-220
-219
-218
-218
-217
-216
-215
-214
-213
-212
-211
-210
-209
-208
-208
-207
-206
-206
-205
-204
-203
-202
-202
-202
-201
-201
-200
-200
-200
-200
-199
-199
-198
-198
-198
-197
-197
-197
-197
-197
-198
-198
-198
-198
-199
-199
-200
-201
-202
-203
-204
-205
-206
-208
-209
-211
-212
-214
-215
-216
-219
-220
-222
-224
-226
-228
-230
-232
-234
-236
-238
-241
-243
-245
-248
-249
-252
-255
-257
-259
-262
-264
-266
-269
-271
-272
-275
-277
-279
-281
-283
-285
-287
-289
-290
-293
-294
-296
-298
-299
-300
-302
-303
-304
-305
-307
-308
-309
-310
-311
-311
-312
-314
-315
-316
-317
-317
-318
-319
-320
-320
-321
-322
-323
-323
-324
-325
-326
-326
-327
-328
-328
-329
-329
-330
-330
-330
-331
-331
-333
-333
-333
-334
-334
-334
-335
-335
-335
-335
-335
-335
-334
-334
-335
-335
-335
-335
-335
-334
-335
-335
-335
-335
-334
-334
-334
-334
-334
-334
-334
-334
-334
-335
-335
-335
-335
-336
-336
-335
-335
-336
-336
-336
-337
-337
-337
-337
-337
-337
-337
-337
-337
-337
-337
-337
-337
-336
-336
-336
-336
-335
-335
-335
-335
-335
-334
-334
-334
-333
-333
-333
-333
-332
-332
-332
-332
-332
-332
-333
-333
-333
-333
-333
-333
-333
-332
-332
-332
-332
-332
-331
-332
-332
-332
-331
-331
-331
-331
-331
-331
-331
-331
-331
-331
-331
-332
-332
-332
-332
-332
-333
-333
-333
-333
-333
-333
-333
-333
-334
-334
-334
-334
-334
-334
-335
-335
-335
-335
-336
-336
-336
-336
-336
-336
-336
-335
-335
-335
-335
-335
-336
-336
-336
-336
-336
-336
-336
-336
-336
-338
-338
-338
-338
-338
-338
-338
-338
-339
-339
-339
-339
-340
-340
-339
-339
-339
-340
-340
-340
-340
-340
-340
-340
-340
-340
-340
-340
-340
-340
-340
-340
-341
-341
-341
-341
-341
-341
-341
-341
-341
-342
-342
-342
-343
-343
-343
-344
-343
-344
-344
-344
-345
-345
-345
-345
-345
-345
-344
-344
-344
-344
-344
-343
-344
-344
-343
-343
-343
-342
-342
-342
-342
-342
-342
-342
-342
-343
-343
-343
-343
-343
-344
-344
-344
-345
-345
-345
-346
-346
-346
-346
-346
-347
-347
-347
-347
-346
-346
-346
-346
-346
-345
-345
-345
-344
-345
-345
-345
-345
-344
-344
-344
-344
-344
-344
-344
-344
-345
-345
-345
-345
-345
-346
-346
-346
-345
-346
-346
-346
-347
-347
-347
-347
-347
-347
-348
-348
-348
-348
-348
-348
-348
-348
-348
-348
-349
-349
-349
-348
-348
-348
-348
-348
-348
-348
-348
-349
-349
-349
-349
-349
-349
-349
-349
-349
-349
-349
-349
-349
-349
-349
-349
-350
-350
-350
-350
-350
-350
-350
-350
-350
-350
-349
-349
-349
-349
-349
-349
-349
-349
-349
-349
-349
-349
-349
-349
-349
-349
-349
-349
-350
-350
-350
-350
-350
-351
-351
-351
-351
-351
-351
-352
-352
-352
-352
-353
-353
-353
-353
-353
-352
-352
-352
-352
-352
-352
-351
-351
-351
-351
-351
-351
-351
-350
-350
-350
-350
-350
-350
-350
-350
-350
-350
-351
-351
-351
-351
-351
-351
-351
-351
-351
-352
-352
-352
-352
-352
-353
-353
-352
-352
-352
-352
-353
-353
-353
-353
-353
-353
-353
-353
-353
-353
-353
-353
-353
-353
-353
-353
-353
-353
-353
-353
-352
-352
-352
-352
-353
-353
-353
-352
-352
-352
-352
-352
-352
-352
-352
-352
-352
-353
-353
-352
-352
-352
-352
-352
-352
-352
-352
-351
-351
-352
-352
-352
-352
-352
-353
-353
-353
-353
-353
-353
-354
-354
-354
-354
-354
-354
-354
-354
-354
-354
-354
-354
-354
-353
-353
-353
-353
-353
-353
-353
-352
-352
-352
-352
-352
-352
-351
-351
-352
-352
-352
-352
-352
-352
-352
-351
-351
-351
-351
-351
-351
-351
-352
-352
-352
-351
-351
-352
-352
-352
-352
-352
-353
-353
-353
-353
-353
-353
-353
-353
-353
-353
-353
-353
-353
-353
-353
-353
-353
-353
-353
-353
-352
-352
-353
-353
-353
-353
-353
-353
-352
-352
-352
-352
-352
-352
-352
-352
-352
-351
-351
-351
-352
-352
-352
-352
-352
-352
-351
-351
-351
-351
-352
-352
-352
-352
-352
-352
-353
-353
-353
-353
-353
-353
-354
-354
-354
-354
-354
-354
-355
-355
-355
-355
-355
-355
-355
-355
-355
-355
-355
-355
-355
-355
-355
-355
-355
-355
-355
-355
-355
-354
-354
-354
-354
-354
-354
-354
-354
-354
-353
-353
-353
-353
-353
-353
-353
-353
-353
-353
-353
-353
-353
-353
-353
-353
-353
-353
-353
-353
-353
-353
-353
-353
-353
-353
-353
-353
-353
-353
-354
-354
-354
-354
-354
-354
-354
-354
-354
-354
-354
-354
-354
-354
-354
-354
-354
-354
-353
-354
-354
-354
-354
-354
-354
-353
-353
-353
-353
-353
-353
-353
-353
-353
-353
-353
-353
-353
-353
-353
-353
-353
-353
-353
-353
-353
-354
-354
-354
-354
-354
-354
-354
-354
-353
-354
-354
-354
-354
-354
-354
-354
-353
-353
-353
-353
-353
-353
-353
-354
-354
-354
-354
-354
-354
-354
-354
-354
-354
-355
-355
-355
-355
-355
-355
-355
-355
-354
-354
-354
-354
-354
-354
-354
-354
-354
-354
-353
-353
-353
-354
-354
-354
-354
-353
-353
-353
-353
-353
-353
-353
-353
-353
-353
-353
-353
-353
-353
-353
-353
-353
-353
-353
-353
-353
-353
-353
-353
-354
-354
-354
-354
-354
-354
-354
-354
-354
-354
-354
-354
-354
-353
-353
-353
-353
-353
-353
-353
-353
-352
-352
-352
-352
-352
-352
-351
-351
-351
-351
-351
-351
-351
-351
-351
-352
-352
-352
-352
-352
-352
-352
-353
-354
-354
-354
-354
-354
-355
-355
-355
-355
-355
-354
-354
-354
-354
-354
-354
-354
-354
-354
-354
-354
-353
-353
-353
-353
-353
-354
-354
-354
-353
-353
-353
-353
-353
-353
-353
-352
-352
-352
-352
-352
-352
-351
-351
-351
-351
-351
-351
-351
-351
-351
-351
-351
-351
-351
-351
-351
-351
-351
-351
-352
-352
-352
-352
-352
-353
-353
-353
-353
-353
-353
-353
-354
-354
-354
-353
-353
-353
-353
-353
-352
-352
-352
-352
-352
-351
-351
-351
-351
-351
-351
-351
-351
-351
-351
-351
-351
-351
-351
-351
-350
-351
-350
-350
-349
-350
-349
-349
-348
-348
-347
-346
-345
-345
-344
-344
-343
-342
-342
-342
-341
-340
-339
-339
-338
-338
-337
-337
-337
-336
-336
-336
-336
-336
-335
-335
-335
-335
-335
-334
-334
-335
-335
-335
-335
-335
-335
-334
-333
-333
-334
-333
-333
-333
-332
-332
-331
-331
-330
-330
-330
-330
-330
-329
-330
-329
-330
-330
-330
-330
-330
-330
-331
-330
-331
-332
-333
-332
-333
-334
-334
-335
-336
-337
-337
-338
-339
-339
-341
-341
-341
-343
-343
-344
-344
-345
-345
-346
-346
-346
-347
-348
-348
-349
-349
-349
-349
-349
-350
-350
-351
-351
-351
-351
-352
-352
-352
-353
-353
-352
-352
-352
-352
-352
-353
-353
-353
-353
-353
-352
-352
-352
-352
-352
-351
-351
-351
-351
-352
-352
-352
-352
-352
-352
-352
-352
-352
-352
-352
-353
-353
-353
-352
-352
-351
-351
-351
-351
-351
-351
-351
-351
-351
-351
-350
-350
-350
-350
-350
-350
-350
-351
-351
-351
-352
-352
-352
-353
-355
-356
-357
-358
-359
-360
-361
-361
-362
-362
-362
-360
-359
-357
-354
-349
-344
-336
-328
-317
-306
-293
-278
-261
-244
-225
-204
-182
-159
-135
-111
-85
-60
-36
-13
10
32
52
70
87
102
114
123
130
133
134
130
123
113
98
83
64
44
22
-2
-27
-53
-79
-104
-130
-156
-180
-205
-227
-247
-267
-283
-298
-311
-321
-330
-338
-342
-345
-347
-349
-348
-348
-346
-345
-343
-341
-339
-336
-334
-332
-330
-329
-327
-327
-326
-326
-326
-325
-326
-326
-327
-327
-329
-329
-330
-331
-331
-332
-333
-333
-334
-335
-336
-336
-337
-338
-338
-339
-339
-340
-340
-340
-341
-341
-341
-341
-341
-341
-341
-341
-341
-341
-340
-340
-340
-340
-339
-339
-339
-338
-338
-338
-338
-338
-338
-338
-338
-338
-338
-338
-337
-337
-337
-337
-337
-337
-337
-336
-336
-336
-336
-336
-336
-336
-336
-336
-335
-335
-335
-334
-334
-334
-334
-334
-333
-333
-333
-333
-333
-333
-332
-332
-332
-332
-331
-331
-331
-330
-330
-330
-329
-329
-329
-329
-329
-328
-328
-328
-328
-328
-328
-327
-327
-327
-327
-327
-327
-326
-326
-326
-326
-326
-326
-325
-325
-325
-325
-325
-325
-324
-323
-323
-323
-323
-323
-323
-322
-322
-322
-321
-321
-320
-320
-319
-319
-319
-318
-318
-317
-317
-317
-317
-316
-316
-316
-316
-315
-315
-315
-315
-315
-315
-314
-314
-314
-314
-313
-313
-313
-313
-312
-312
-311
-311
-310
-310
-309
-309
-309
-308
-308
-308
-308
-307
-307
-307
-307
-306
-306
-305
-305
-305
-304
-304
-303
-303
-303
-303
-302
-301
-301
-300
-299
-299
-298
-298
-297
-297
-296
-296
-295
-295
-295
-294
-294
-293
-293
-293
-292
-292
-292
-292
-292
-291
-290
-290
-290
-290
-288
-288
-287
-287
-286
-285
-285
-284
-283
-282
-282
-281
-280
-279
-278
-277
-276
-274
-273
-274
-273
-272
-271
-270
-270
-269
-269
-268
-268
-267
-265
-265
-264
-264
-263
-263
-262
-261
-260
-260
-259
-259
-258
-257
-256
-255
-254
-254
-253
-252
-251
-250
-249
-248
-247
-246
-245
-244
-243
-242
-240
-239
-239
-238
-237
-236
-235
-234
-233
-232
-231
-230
-229
-228
-227
-226
-225
-224
-223
-222
-221
-220
-219
-218
-217
-216
-215
-214
-212
-211
-210
-209
-208
-207
-206
-206
-205
-204
-203
-203
-202
-202
-201
-201
-201
-200
-200
-199
-199
-198
-198
-198
-197
-197
-196
-195
-195
-195
-196
-195
-195
-195
-195
-195
-196
-196
-196
-197
-198
-199
-200
-201
-202
-203
-204
-207
-208
-209
-212
-214
-216
-218
-220
-222
-225
-227
-230
-232
-235
-237
-239
-242
-244
-246
-249
-251
-254
-256
-259
-262
-264
-266
-268
-270
-272
-275
-277
-279
-281
-284
-286
-287
-290
-292
-294
-296
-298
-300
-302
-304
-306
-308
-310
-311
-313
-315
-317
-319
-320
-322
-323
-324
-326
-327
-328
-329
-331
-332
-333
-334
-335
-336
-337
-338
-339
-339
-341
-341
-341
-342
-343
-344
-344
-344
-345
-345
-346
-346
-347
-347
-347
-347
-348
-348
-349
-349
-349
-350
-349
-349
-349
-350
-350
-350
-350
-350
-350
-350
-350
-350
-350
-351
-351
-351
-350
-351
-351
-350
-350
-350
-350
-350
-350
-350
-349
-349
-349
-349
-348
-348
-348
-347
-347
-347
-346
-346
-346
-345
-345
-345
-345
-345
-344
-344
-344
-344
-344
-344
-344
-344
-344
-344
-343
-343
-343
-344
-344
-344
-344
-344
-344
-344
-344
-344
-343
-343
-343
-342
-343
-343
-342
-342
-341
-341
-341
-340
-340
-340
-340
-340
-340
-340
-340
-341
-340
-340
-340
-341
-341
-341
-340
-341
-341
-341
-342
-342
-342
-341
-341
-341
-341
-340
-340
-341
-341
-340
-340
-339
-339
-340
-339
-339
-339
-339
-339
-339
-339
-339
-339
-339
-339
-339
-339
-339
-339
-339
-339
-339
-339
-339
-339
-339
-339
-339
-339
-339
-339
-339
-339
-339
-339
-339
-340
-340
-340
-340
-340
-341
-341
-341
-341
-341
-342
-342
-342
-342
-342
-342
-342
-342
-342
-342
-342
-342
-343
-343
-343
-343
-343
-343
-343
-343
-343
-344
-344
-344
-344
-345
-345
-345
-345
-345
-345
-345
-346
-346
-347
-347
-347
-347
-347
-347
-347
-347
-347
-347
-347
-347
-347
-347
-347
-347
-347
-346
-347
-347
-347
-347
-347
-347
-346
-346
-346
-347
-346
-346
-346
-346
-346
-345
-345
-346
-346
-346
-346
-346
-346
-346
-346
-346
-346
-346
-346
-346
-347
-347
-347
-347
-347
-347
-346
-346
-346
-346
-346
-346
-346
-346
-346
-346
-346
-346
-345
-345
-345
-345
-345
-345
-345
-345
-346
-346
-346
-346
-346
-346
-346
-346
-346
-346
-346
-346
-346
-346
-346
-345
-345
-345
-345
-344
-344
-344
-344
-344
-344
-344
-344
-345
-345
-345
-345
-345
-345
-346
-346
-346
-346
-347
-346
-346
-346
-347
-347
-347
-347
-347
-347
-347
-347
-347
-347
-347
-347
-347
-346
-346
-346
-346
-346
-346
-346
-346
-346
-345
-345
-345
-345
-345
-345
-346
-346
-346
-346
-346
-346
-346
-346
-346
-345
-345
-345
-345
-345
-345
-346
-347
-347
-347
-347
-347
-347
-347
-347
-347
-347
-347
-347
-347
-347
-347
-347
-347
-347
-347
-346
-346
-346
-346
-346
-346
-346
-346
-346
-346
-345
-345
-345
-345
-345
-345
-345
-346
-346
-346
-346
-346
-346
-346
-346
-346
-346
-346
-346
-346
-345
-345
-345
-345
-345
-345
-345
-345
-346
-346
-345
-345
-345
-345
-344
-345
-345
-345
-345
-345
-345
-345
-345
-345
-345
-345
-345
-345
-345
-345
-345
-344
-344
-344
-344
-345
-345
-344
-344
-345
-345
-345
-344
-344
-344
-345
-345
-345
-345
-345
-345
-345
-345
-345
-344
-345
-345
-344
-344
-344
-343
-343
-343
-343
-343
-342
-342
-343
-343
-343
-342
-342
-342
-343
-343
-343
-343
-343
-344
-343
-343
-344
-344
-344
-344
-344
-345
-345
-345
-345
-345
-345
-345
-344
-344
-344
-344
-344
-344
-344
-345
-343
-343
-344
-344
-344
-343
-343
-343
-343
-343
-343
-344
-344
-344
-344
-344
-344
-344
-344
-344
-344
-344
-343
-343
-343
-343
-343
-342
-342
-342
-342
-342
-343
-342
-342
-342
-342
-342
-342
-342
-342
-342
-342
-343
-343
-342
-342
-342
-342
-342
-343
-343
-343
-342
-342
-342
-342
-342
-342
-342
-342
-342
-342
-342
-342
-342
-342
-342
-343
-342
-342
-342
-342
-342
-342
-342
-343
-343
-343
-343
-343
-343
-343
-343
-343
-343
-343
-342
-342
-342
-342
-342
-342
-342
-342
-341
-341
-341
-341
-342
-342
-342
-342
-342
-342
-342
-342
-342
-342
-342
-342
-342
-342
-342
-342
-341
-341
-341
-341
-341
-341
-341
-341
-340
-340
-340
-340
-341
-341
-341
-341
-341
-341
-341
-341
-341
-341
-341
-342
-342
-342
-342
-342
-342
-342
-342
-342
-342
-341
-341
-341
-341
-341
-340
-340
-341
-341
-340
-340
-340
-340
-340
-340
-340
-341
-341
-341
-341
-341
-341
-341
-342
-342
-341
-341
-341
-341
-341
-341
-341
-341
-341
-341
-341
-341
-341
-340
-340
-340
-340
-340
-339
-340
-340
-340
-339
-339
-339
-339
-339
-339
-339
-339
-340
-340
-340
-340
-340
-340
-340
-340
-340
-339
-339
-339
-340
-340
-340
-340
-340
-340
-340
-340
-340
-340
-340
-340
-340
-340
-340
-340
-340
-340
-340
-340
-340
-340
-339
-339
-339
-339
-338
-338
-339
-339
-339
-339
-339
-339
-338
-338
-338
-338
-338
-338
-338
-338
-338
-338
-338
-338
-338
-338
-338
-338
-339
-339
-339
-339
-339
-339
-339
-339
-339
-339
-339
-340
-340
-340
-340
-340
-340
-340
-340
-340
-340
-340
-340
-340
-339
-339
-339
-339
-339
-339
-338
-338
-337
-337
-337
-335
-335
-335
-335
-333
-333
-332
-333
-332
-332
-332
-331
-331
-331
-330
-331
-330
-330
-330
-329
-330
-329
-329
-329
-328
-328
-327
-327
-327
-326
-326
-324
-324
-324
-324
-323
-323
-323
-322
-322
-322
-321
-321
-321
-321
-321
-321
-321
-321
-322
-322
-322
-322
-321
-321
-321
-320
-320
-319
-320
-319
-319
-319
-319
-318
-319
-318
-318
-318
-317
-319
-318
-318
-319
-319
-320
-319
-320
-320
-321
-321
-322
-322
-322
-323
-324
-324
-325
-326
-326
-326
-328
-328
-328
-329
-330
-331
-331
-332
-333
-333
-334
-334
-335
-336
-336
-336
-337
-338
-338
-338
-338
-338
-339
-339
-339
-340
-340
-340
-340
-341
-341
-341
-341
-341
-341
-341
-341
-341
-341
-341
-341
-341
-341
-341
-341
-341
-341
-341
-341
-341
-341
-341
-341
-341
-341
-340
-340
-340
-340
-341
-341
-341
-340
-340
-340
-340
-340
-340
-340
-339
-339
-338
-338
-338
-338
-338
-339
-339
-339
-339
-340
-340
-341
-341
-343
-344
-344
-346
-347
-348
-349
-350
-350
-351
-350
-350
-350
-348
-346
-343
-339
-334
-328
-320
-311
-300
-288
-275
-260
-243
-225
-206
-185
-163
-140
-116
-92
-67
-44
-20
3
25
46
65
83
99
112
124
132
139
142
142
139
131
121
108
93
75
56
34
12
-12
-37
-62
-87
-112
-136
-161
-184
-206
-225
-244
-260
-275
-288
-299
-308
-315
-321
-325
-328
-329
-330
-329
-328
-328
-327
-325
-323
-322
-320
-319
-318
-316
-315
-314
-314
-315
-315
-314
-314
-315
-315
-316
-316
-318
-318
-319
-319
-321
-321
-321
-322
-322
-324
-324
-325
-325
-325
-326
-326
-326
-327
-327
-326
-327
-327
-327
-328
-328
-328
-328
-327
-328
-328
-328
-328
-328
-328
-328
-328
-328
-328
-328
-327
-327
-326
-326
-326
-326
-326
-326
-326
-325
-325
-325
-325
-325
-325
-324
-324
-324
-323
-322
-322
-322
-323
-323
-322
-322
-322
-321
-321
-321
-321
-320
-320
-320
-320
-320
-320
-320
-320
-319
-318
-318
-318
-318
-318
-318
-318
-318
-318
-317
-317
-317
-317
-317
-317
-316
-316
-316
-316
-316
-315
-315
-315
-315
-315
-315
-314
-314
-313
-313
-313
-313
-313
-313
-313
-313
-313
-312
-312
-312
-312
-312
-312
-312
-312
-311
-310
-310
-310
-310
-309
-309
-309
-309
-308
-308
-308
-307
-307
-307
-308
-307
-307
-307
-307
-306
-306
-306
-306
-305
-305
-305
-305
-304
-304
-304
-304
-304
-303
-303
-303
-303
-302
-302
-302
-302
-301
-301
-301
-301
-300
-300
-299
-299
-299
-298
-298
-298
-297
-297
-296
-296
-295
-295
-294
-294
-293
-293
-292
-292
-291
-291
-291
-290
-290
-289
-288
-287
-287
-287
-286
-286
-285
-285
-285
-283
-283
-283
-282
-282
-282
-281
-281
-281
-280
-280
-279
-279
-278
-278
-277
-277
-276
-276
-275
-275
-274
-274
-273
-273
-272
-272
-271
-271
-269
-268
-268
-267
-267
-266
-266
-265
-264
-264
-263
-262
-261
-261
-260
-259
-258
-258
-257
-256
-256
-255
-254
-253
-253
-252
-251
-250
-249
-248
-247
-246
-245
-245
-244
-243
-242
-241
-240
-239
-238
-237
-236
-234
-233
-232
-231
-230
-229
-228
-227
-226
-225
-224
-223
-222
-221
-220
-219
-218
-217
-217
-216
-215
-214
-213
-212
-211
-210
-209
-209
-208
-207
-206
-205
-204
-204
-203
-202
-202
-201
-200
-199
-198
-198
-197
-197
-196
-196
-195
-195
-194
-194
-193
-193
-193
-193
-193
-193
-193
-193
-193
-193
-194
-194
-195
-196
-197
-198
-199
-200
-201
-202
-203
-205
-206
-208
-209
-211
-212
-214
-215
-218
-220
-222
-224
-226
-228
-230
-232
-234
-237
-239
-242
-244
-247
-249
-251
-253
-256
-258
-261
-263
-265
-268
-270
-272
-274
-277
-279
-281
-283
-285
-288
-289
-291
-293
-296
-297
-299
-301
-303
-304
-306
-308
-309
-310
-313
-314
-315
-316
-317
-318
-319
-321
-321
-322
-323
-323
-324
-325
-326
-327
-327
-328
-328
-329
-330
-331
-332
-332
-333
-333
-334
-334
-334
-336
-336
-336
-336
-338
-338
-338
-338
-338
-338
-339
-339
-340
-340
-340
-340
-340
-340
-341
-341
-341
-341
-341
-341
-341
-341
-341
-341
-341
-341
-341
-341
-341
-341
-341
-341
-341
-341
-341
-341
-341
-341
-340
-340
-340
-341
-341
-341
-341
-341
-341
-341
-341
-341
-341
-341
-340
-341
-342
-342
-341
-341
-341
-341
-341
-340
-340
-340
-340
-340
-340
-340
-340
-339
-339
-339
-339
-339
-339
-339
-339
-339
-339
-339
-339
-339
-339
-339
-339
-339
-339
-339
-339
-339
-339
-339
-339
-339
-339
-338
-338
-338
-338
-338
-337
-337
-337
-337
-337
-337
-337
-337
-338
-338
-338
-338
-338
-338
-338
-338
-339
-339
-339
-339
-338
-338
-338
-338
-338
-339
-339
-339
-339
-339
-339
-339
-339
-339
-339
-339
-339
-339
-339
-339
-339
-339
-339
-338
-339
-339
-339
-339
-340
-340
-341
-341
-341
-341
-341
-341
-341
-341
-341
-342
-342
-343
-343
-343
-343
-343
-343
-343
-343
-343
-343
-343
-343
-343
-343
-343
-343
-344
-344
-344
-344
-344
-345
-345
-345
-345
-345
-345
-346
-346
-346
-346
-346
-346
-345
-345
-345
-345
-345
-345
-345
-346
-346
-346
-346
-346
-346
-346
-346
-345
-345
-345
-345
-345
-345
-345
-345
-345
-345
-346
-346
-346
-346
-346
-346
-346
-346
-346
-346
-346
-347
-347
-347
-347
-347
-347
-347
-348
-348
-348
-348
-348
-348
-348
-348
-348
-349
-349
-350
-350
-350
-350
-350
-350
-350
-350
-350
-350
-350
-350
-350
-350
-349
-349
-348
-348
-348
-349
-349
-349
-349
-349
-349
-349
-349
-349
-349
-348
-348
-348
-349
-349
-349
-349
-349
-349
-350
-350
-350
-350
-350
-350
-350
-350
-350
-350
-350
-350
-350
-349
-349
-349
-350
-350
-349
-349
-349
-349
-349
-349
-348
-348
-348
-348
-349
-349
-349
-349
-349
-349
-349
-349
-349
-350
-350
-350
-350
-350
-350
-350
-351
-351
-351
-350
-350
-350
-350
-350
-350
-350
-350
-350
-350
-350
-350
-351
-351
-351
-351
-351
-351
-350
-350
-350
-350
-350
-351
-351
-350
-350
-350
-350
-350
-350
-350
-350
-350
-350
-350
-350
-350
-350
-350
-351
-351
-351
-351
-351
-351
-351
-351
-351
-351
-351
-351
-351
-351
-351
-351
-350
-350
-350
-350
-350
-350
-350
-350
-350
-349
-349
-349
-349
-349
-349
-349
-349
-349
-349
-350
-350
-350
-350
-350
-350
-350
-350
-350
-350
-350
-351
-351
-351
-351
-351
-351
-351
-351
-351
-351
-351
-351
-351
-351
-351
-351
-351
-351
-351
-351
-351
-351
-351
-351
-351
-351
-351
-351
-351
-351
-351
-351
-351
-351
-351
-351
-351
-351
-351
-351
-351
-350
-350
-350
-350
-350
-350
-350
-350
-350
-350
-350
-350
-350
-350
-351
-351
-351
-351
-351
-351
-351
-351
-351
-351
-351
-351
-351
-351
-351
-351
-351
-351
-351
-351
-352
-352
-352
-352
-352
-351
-351
-352
-352
-352
-352
-352
-352
-353
-353
-353
-352
-353
-353
-353
-353
-353
-353
-353
-353
-353
-353
-353
-353
-353
-353
-353
-353
-353
-353
-352
-353
-353
-353
-353
-353
-353
-352
-352
-352
-353
-353
-353
-353
-353
-353
-353
-353
-352
-353
-353
-353
-353
-353
-353
-353
-353
-353
-353
-353
-353
-353
-353
-353
-353
-353
-353
-353
-353
-353
-352
-352
-352
-352
-352
-352
-353
-353
-353
-353
-352
-352
-352
-352
-352
-352
-352
-352
-352
-352
-353
-353
-353
-354
-354
-354
-354
-354
-354
-354
-354
-354
-354
-355
-355
-355
-355
-355
-355
-355
-355
-355
-354
-354
-354
-354
-354
-353
-353
-353
-353
-353
-353
-353
-353
-353
-353
-353
-353
-352
-352
-352
-352
-352
-353
-354
-354
-353
-353
-353
-353
-353
-353
-353
-353
-353
-353
-353
-353
-353
-353
-353
-353
-353
-353
-353
-353
-353
-353
-353
-353
-353
-353
-353
-353
-353
-353
-353
-353
-353
-353
-353
-353
-353
-353
-353
-353
-353
-353
-353
-353
-353
-353
-353
-353
-353
-353
-353
-353
-353
-352
-353
-353
-353
-353
-353
-353
-353
-353
-353
-354
-354
-354
-354
-354
-354
-354
-354
-354
-354
-354
-354
-354
-354
-354
-353
-353
-353
-353
-354
-353
-353
-353
-353
-353
-353
-353
-353
-353
-353
-353
-353
-353
-353
-354
-354
-354
-354
-354
-354
-354
-354
-355
-355
-355
-355
-355
-355
-355
-354
-354
-354
-354
-354
-354
-354
-354
-354
-354
-354
-354
-354
-354
-354
-354
-355
-355
-355
-355
-355
-355
-355
-355
-355
-355
-355
-355
-355
-355
-355
-355
-355
-355
-355
-355
-355
-355
-355
-355
-355
-355
-355
-354
-354
-354
-354
-354
-354
-354
-354
-354
-354
-353
-353
-353
-353
-353
-353
-353
-354
-354
-354
-354
-354
-354
-354
-354
-354
-354
-354
-354
-354
-354
-354
-354
-354
-354
-354
-354
-354
-354
-354
-354
-354
-354
-354
-354
-355
-355
-355
-355
-354
-354
-354
-355
-354
-354
-354
-354
-353
-353
-353
-353
-353
-353
-354
-354
-354
-354
-355
-355
-355
-355
-355
-355
-355
-356
-356
-356
-355
-355
-355
-356
-356
-356
-356
-356
-355
-355
-355
-355
-355
-355
-355
-355
-355
-355
-355
-355
-355
-355
-355
-355
-354
-354
-354
-354
-354
-355
-355
-355
-355
-355
-355
-355
-355
-354
-354
-354
-354
-355
-355
-355
-355
-355
-355
-355
-355
-355
-355
-355
-355
-355
-354
-355
-355
-355
-355
-355
-355
-355
-355
-355
-354
-354
-354
-353
-353
-353
-352
-352
-351
-351
-351
-351
-350
-350
-349
-348
-349
-348
-348
-347
-347
-347
-346
-346
-346
-345
-345
-345
-344
-344
-343
-344
-343
-343
-343
-342
-342
-341
-341
-341
-341
-341
-340
-340
-339
-339
-339
-339
-339
-338
-339
-339
-339
-338
-338
-338
-338
-338
-338
-338
-337
-338
-338
-338
-337
-337
-337
-336
-337
-337
-336
-336
-336
-336
-336
-336
-336
-337
-336
-337
-338
-337
-338
-339
-339
-339
-340
-341
-341
-342
-342
-344
-344
-345
-345
-347
-347
-347
-349
-349
-350
-350
-350
-352
-352
-352
-352
-353
-354
-354
-354
-354
-354
-355
-355
-355
-356
-356
-356
-356
-356
-356
-357
-357
-358
-358
-358
-358
-358
-358
-358
-358
-359
-359
-359
-359
-359
-359
-359
-359
-359
-359
-359
-359
-359
-360
-359
-359
-359
-359
-359
-359
-359
-359
-359
-359
-359
-358
-358
-358
-358
-358
-358
-358
-358
-358
-358
-358
-357
-357
-357
-357
-357
-357
-358
-358
-357
-358
-357
-358
-358
-358
-359
-360
-360
-361
-362
-362
-363
-364
-363
-364
-364
-364
-362
-362
-359
-356
-354
-350
-344
-338
-331
-322
-312
-301
-288
-274
-259
-242
-224
-204
-184
-163
-141
-119
-97
-74
-53
-32
-12
7
24
41
55
67
77
84
90
92
92
89
83
73
62
48
31
14
-6
-26
-48
-71
-93
-116
-139
-160
-183
-203
-223
-242
-259
-274
-288
-301
-312
-320
-328
-333
-339
-341
-344
-345
-345
-345
-345
-344
-343
-342
-340
-340
-338
-337
-336
-335
-336
-335
-335
-335
-336
-335
-336
-336
-337
-337
-339
-340
-341
-341
-342
-343
-343
-344
-345
-345
-346
-346
-347
-347
-348
-348
-348
-349
-349
-349
-349
-350
-350
-350
-350
-350
-350
-350
-350
-350
-350
-350
-350
-349
-349
-349
-349
-349
-349
-349
-348
-348
-348
-348
-348
-348
-348
-348
-348
-348
-348
-348
-348
-348
-347
-347
-346
-346
-346
-346
-346
-346
-346
-346
-346
-346
-346
-346
-345
-345
-345
-345
-345
-344
-344
-344
-344
-343
-343
-343
-342
-342
-341
-341
-341
-341
-341
-340
-340
-340
-340
-340
-339
-339
-339
-339
-339
-338
-338
-338
-339
-339
-339
-338
-338
-338
-338
-338
-338
-338
-338
-337
-337
-337
-337
-337
-336
-335
-335
-335
-334
-334
-334
-333
-333
-333
-333
-332
-332
-332
-332
-332
-331
-331
-331
-331
-331
-331
-330
-331
-331
-330
-330
-330
-330
-330
-330
-330
-330
-330
-330
-329
-329
-329
-328
-328
-327
-327
-326
-326
-325
-325
-324
-324
-324
-324
-324
-323
-323
-323
-322
-322
-322
-322
-322
-322
-321
-321
-320
-320
-320
-320
-320
-320
-320
-320
-318
-318
-318
-318
-318
-317
-317
-316
-316
-315
-315
-315
-314
-314
-313
-313
-312
-312
-311
-310
-310
-310
-309
-309
-308
-308
-307
-307
-306
-305
-305
-304
-304
-303
-302
-302
-301
-302
-301
-300
-300
-299
-299
-299
-298
-297
-297
-296
-296
-295
-295
-294
-294
-293
-293
-292
-291
-291
-290
-290
-288
-287
-286
-286
-285
-284
-284
-283
-282
-282
-281
-280
-279
-279
-278
-277
-276
-275
-274
-273
-272
-271
-270
-269
-268
-267
-266
-266
-265
-264
-262
-261
-260
-259
-258
-257
-256
-255
-254
-254
-253
-251
-250
-249
-248
-248
-247
-246
-245
-244
-244
-243
-242
-241
-241
-240
-239
-238
-238
-237
-236
-235
-235
-233
-232
-232
-231
-230
-230
-229
-228
-228
-227
-226
-225
-225
-224
-223
-223
-222
-221
-221
-220
-220
-220
-220
-220
-219
-219
-219
-219
-219
-219
-219
-219
-219
-219
-219
-219
-221
-222
-222
-223
-224
-225
-226
-227
-229
-231
-232
-234
-236
-237
-239
-242
-244
-246
-248
-250
-252
-255
-257
-259
-261
-264
-266
-268
-270
-272
-274
-276
-278
-280
-283
-285
-287
-288
-291
-292
-294
-296
-298
-299
-301
-303
-305
-306
-308
-309
-310
-312
-314
-315
-316
-318
-319
-320
-321
-322
-324
-325
-326
-327
-328
-329
-330
-331
-332
-332
-334
-335
-335
-336
-337
-337
-339
-339
-340
-340
-341
-341
-343
-343
-343
-343
-343
-344
-345
-345
-345
-345
-345
-345
-346
-346
-346
-346
-346
-346
-346
-346
-346
-346
-346
-346
-347
-347
-347
-347
-347
-347
-347
-347
-347
-347
-347
-347
-348
-348
-348
-348
-348
-348
-348
-347
-347
-348
-348
-348
-348
-347
-347
-347
-347
-346
-346
-345
-345
-345
-345
-345
-345
-344
-344
-344
-344
-344
-344
-344
-344
-344
-345
-344
-344
-345
-345
-345
-345
-345
-344
-344
-344
-344
-345
-345
-344
-344
-344
-344
-344
-344
-344
-344
-344
-344
-344
-344
-344
-344
-345
-345
-345
-345
-345
-345
-345
-345
-345
-344
-344
-344
-344
-344
-344
-344
-344
-345
-345
-345
-345
-345
-344
-344
-344
-344
-344
-344
-345
-345
-345
-345
-345
-346
-346
-345
-345
-345
-345
-346
-346
-346
-346
-346
-347
-348
-348
-348
-348
-348
-348
-348
-349
-349
-349
-349
-350
-350
-350
-350
-351
-351
-351
-352
-351
-351
-352
-352
-352
-352
-352
-352
-352
-353
-353
-353
-353
-352
-352
-352
-352
-352
-353
-353
-353
-353
-353
-353
-353
-353
-353
-353
-354
-354
-354
-354
-355
-355
-355
-355
-355
-356
-356
-356
-356
-356
-356
-356
-356
-356
-356
-357
-357
-357
-357
-357
-357
-357
-357
-357
-357
-357
-358
-357
-357
-357
-357
-357
-357
-357
-357
-357
-357
-357
-357
-357
-356
-356
-357
-357
-357
-357
-357
-357
-357
-357
-357
-357
-357
-357
-357
-357
-357
-357
-357
-357
-357
-358
-358
-358
-358
-359
-359
-359
-359
-359
-359
-359
-359
-360
-360
-360
-360
-360
-360
-360
-360
-360
-360
-360
-360
-359
-360
-360
-360
-360
-360
-360
-360
-360
-360
-360
-360
-360
-360
-360
-360
-361
-361
-361
-361
-361
-361
-360
-361
-361
-361
-361
-361
-361
-361
-361
-361
-362
-362
-362
-361
-361
-361
-361
-361
-361
-362
-362
-362
-362
-362
-362
-362
-362
-362
-362
-362
-362
-362
-362
-362
-362
-362
-362
-363
-363
-363
-363
-363
-364
-364
-363
-363
-363
-363
-363
-363
-363
-364
-364
-364
-364
-364
-363
-363
-364
-364
-364
-364
-364
-364
-364
-364
-364
-364
-365
-365
-364
-364
-364
-364
-364
-364
-364
-365
-364
-364
-364
-364
-364
-364
-364
-364
-364
-364
-364
-364
-364
-364
-364
-364
-364
-364
-363
-363
-363
-363
-363
-363
-363
-364
-364
-363
-363
-363
-363
-363
-364
-364
-364
-364
-364
-364
-364
-364
-364
-365
-365
-365
-365
-365
-365
-365
-365
-365
-365
-365
-365
-365
-365
-365
-366
-366
-366
-366
-365
-365
-365
-365
-365
-365
-365
-365
-365
-365
-365
-365
-365
-365
-365
-365
-365
-366
-366
-366
-366
-366
-366
-366
-366
-365
-366
-366
-366
-366
-366
-366
-366
-366
-366
-366
-366
-366
-366
-367
-367
-366
-366
-366
-366
-366
-366
-366
-366
-365
-365
-365
-365
-365
-365
-365
-365
-365
-365
-365
-365
-365
-365
-365
-365
-365
-365
-365
-364
-365
-365
-365
-365
-365
-365
-365
-365
-365
-365
-365
-365
-365
-365
-365
-365
-365
-365
-364
-365
-365
-365
-365
-365
-365
-365
-365
-365
-365
-366
-366
-366
-366
-366
-366
-366
-366
-366
-366
-366
-366
-366
-366
-366
-366
-366
-365
-365
-365
-365
-365
-365
-365
-365
-365
-364
-364
-364
-364
-364
-364
-364
-365
-365
-365
-365
-365
-365
-365
-365
-365
-366
-366
-366
-366
-366
-366
-366
-366
-366
-366
-366
-365
-365
-365
-364
-364
-364
-363
-363
-363
-362
-362
-362
-362
-363
-362
-362
-362
-362
-361
-362
-362
-362
-363
-363
-363
-364
-364
-365
-365
-365
-366
-366
-366
-366
-366
-366
-366
-366
-366
-366
-366
-366
-366
-365
-365
-365
-365
-365
-364
-364
-364
-364
-364
-364
-364
-364
-364
-364
-365
-365
-365
-365
-364
-364
-364
-364
-364
-364
-364
-364
-364
-364
-364
-364
-364
-364
-364
-364
-363
-363
-363
-363
-363
-363
-363
-364
-364
-364
-364
-363
-364
-364
-364
-364
-364
-364
-364
-364
-364
-364
-364
-364
-364
-365
-365
-365
-365
-365
-364
-363
-363
-363
-363
-363
-363
-363
-363
-363
-363
-363
-363
-363
-363
-363
-363
-363
-363
-363
-363
-363
-363
-363
-363
-363
-363
-363
-363
-363
-363
-364
-364
-364
-364
-364
-364
-364
-364
-364
-364
-364
-363
-363
-363
-363
-363
-363
-362
-363
-363
-362
-362
-362
-362
-361
-361
-361
-361
-360
-360
-360
-360
-360
-360
-360
-360
-360
-360
-360
-361
-361
-361
-361
-360
-360
-360
-360
-360
-360
-360
-360
-360
-360
-360
-360
-360
-360
-360
-361
-361
-361
-361
-361
-361
-362
-362
-362
-362
-362
-362
-362
-362
-363
-363
-363
-363
-363
-363
-363
-363
-362
-362
-362
-362
-361
-361
-361
-360
-360
-360
-360
-359
-359
-359
-359
-359
-358
-358
-358
-357
-357
-356
-356
-357
-356
-355
-355
-355
-355
-354
-353
-353
-353
-353
-352
-352
-351
-351
-351
-351
-350
-350
-349
-349
-348
-348
-347
-348
-347
-347
-346
-346
-346
-345
-345
-344
-343
-343
-343
-343
-343
-341
-341
-341
-341
-341
-341
-340
-340
-340
-339
-339
-339
-338
-338
-337
-337
-338
-338
-337
-338
-337
-338
-338
-338
-338
-338
-339
-338
-339
-340
-340
-341
-342
-341
-342
-343
-344
-344
-345
-345
-345
-346
-347
-348
-348
-348
-350
-350
-350
-351
-351
-352
-353
-353
-353
-354
-354
-354
-355
-356
-356
-356
-356
-356
-357
-357
-357
-357
-357
-358
-358
-358
-358
-358
-358
-359
-360
-360
-360
-360
-360
-360
-360
-360
-360
-360
-360
-360
-360
-361
-361
-361
-360
-360
-360
-360
-360
-360
-360
-360
-361
-361
-361
-361
-361
-360
-360
-360
-360
-360
-360
-360
-360
-360
-360
-360
-360
-360
-360
-360
-360
-358
-358
-358
-359
-359
-359
-358
-359
-359
-360
-360
-361
-362
-362
-363
-365
-366
-366
-368
-369
-369
-370
-370
-369
-368
-367
-365
-362
-358
-351
-345
-337
-328
-316
-304
-291
-274
-258
-240
-219
-198
-176
-153
-128
-104
-80
-57
-33
-11
12
32
51
68
83
96
106
114
117
119
116
111
101
88
73
55
36
15
-8
-32
-57
-83
-109
-135
-159
-184
-207
-230
-250
-270
-287
-302
-315
-326
-335
-342
-348
-351
-354
-356
-356
-355
-355
-353
-352
-350
-348
-346
-343
-342
-340
-339
-337
-337
-335
-335
-335
-334
-334
-334
-335
-335
-335
-336
-337
-337
-338
-338
-339
-339
-340
-341
-341
-342
-342
-342
-343
-343
-344
-344
-345
-345
-346
-345
-345
-345
-345
-345
-345
-345
-345
-345
-345
-345
-345
-345
-345
-345
-345
-345
-345
-345
-345
-345
-345
-345
-344
-344
-344
-344
-344
-344
-344
-344
-342
-342
-342
-342
-341
-341
-341
-340
-340
-340
-338
-338
-338
-337
-337
-337
-337
-336
-336
-336
-336
-336
-335
-335
-335
-335
-334
-334
-334
-333
-333
-333
-332
-332
-332
-332
-332
-332
-331
-331
-330
-330
-330
-330
-330
-330
-330
-330
-330
-330
-329
-329
-329
-329
-328
-328
-328
-327
-327
-328
-327
-327
-327
-326
-326
-325
-325
-325
-324
-324
-324
-323
-322
-322
-323
-322
-321
-321
-321
-321
-320
-320
-320
-320
-320
-320
-319
-319
-319
-319
-319
-319
-319
-319
-318
-318
-318
-318
-317
-317
-317
-316
-316
-316
-315
-315
-315
-314
-314
-313
-313
-312
-312
-312
-311
-310
-310
-309
-309
-308
-308
-308
-307
-307
-307
-306
-306
-306
-305
-305
-304
-304
-304
-303
-303
-302
-302
-301
-301
-300
-300
-299
-299
-298
-298
-298
-297
-296
-296
-295
-295
-295
-294
-294
-294
-293
-293
-293
-292
-291
-291
-291
-290
-289
-289
-288
-287
-287
-286
-285
-284
-283
-283
-282
-281
-280
-279
-278
-277
-277
-276
-275
-275
-274
-274
-273
-273
-272
-272
-271
-270
-269
-269
-268
-268
-268
-267
-266
-265
-264
-263
-262
-261
-261
-260
-259
-258
-257
-256
-255
-254
-253
-252
-251
-250
-249
-248
-247
-246
-245
-243
-242
-242
-241
-240
-239
-239
-238
-237
-236
-235
-234
-233
-232
-231
-230
-230
-229
-228
-227
-226
-225
-224
-224
-223
-222
-220
-219
-218
-217
-217
-216
-215
-214
-213
-213
-212
-210
-209
-210
-209
-207
-206
-205
-205
-204
-203
-202
-201
-201
-200
-199
-198
-198
-197
-196
-196
-195
-195
-194
-194
-194
-194
-194
-194
-194
-194
-194
-195
-195
-196
-196
-196
-197
-198
-199
-200
-201
-203
-204
-207
-208
-210
-212
-214
-216
-218
-220
-223
-225
-227
-229
-232
-234
-236
-240
-242
-245
-247
-249
-251
-254
-256
-258
-260
-262
-265
-267
-269
-272
-274
-276
-278
-280
-283
-285
-287
-289
-292
-294
-295
-297
-300
-302
-303
-306
-308
-309
-311
-312
-314
-316
-317
-318
-319
-321
-322
-323
-324
-326
-326
-327
-328
-328
-330
-330
-331
-332
-333
-333
-334
-335
-336
-336
-337
-338
-338
-339
-339
-340
-341
-341
-342
-342
-343
-343
-343
-344
-345
-345
-346
-346
-346
-346
-346
-347
-347
-347
-347
-347
-347
-346
-346
-346
-346
-346
-346
-345
-345
-345
-345
-345
-345
-344
-344
-344
-344
-344
-344
-343
-343
-343
-343
-343
-343
-343
-343
-343
-343
-343
-343
-343
-343
-343
-343
-343
-342
-342
-342
-342
-342
-342
-342
-342
-342
-342
-342
-342
-342
-342
-341
-341
-341
-341
-341
-341
-341
-341
-341
-341
-341
-341
-340
-340
-340
-340
-339
-339
-339
-339
-338
-338
-338
-338
-338
-338
-338
-338
-338
-338
-338
-338
-338
-338
-338
-338
-338
-338
-338
-338
-338
-338
-338
-338
-338
-337
-337
-337
-337
-337
-337
-337
-337
-337
-337
-337
-337
-337
-337
-337
-338
-338
-338
-338
-338
-338
-338
-338
-338
-338
-339
-339
-339
-339
-339
-339
-339
-339
-339
-340
-340
-340
-340
-340
-340
-340
-340
-340
-340
-341
-341
-341
-341
-341
-341
-341
-341
-342
-342
-342
-342
-342
-343
-343
-343
-343
-344
-344
-344
-345
-345
-344
-344
-344
-345
-345
-345
-345
-345
-345
-345
-345
-345
-345
-345
-345
-344
-344
-344
-344
-344
-344
-344
-344
-344
-344
-344
-344
-344
-344
-344
-344
-344
-344
-345
-345
-345
-345
-345
-345
-345
-345
-345
-345
-345
-345
-345
-345
-345
-345
-345
-345
-345
-345
-345
-345
-345
-346
-347
-347
-347
-346
-347
-347
-347
-348
-348
-348
-348
-349
-349
-349
-350
-350
-349
-349
-349
-349
-349
-348
-348
-348
-349
-349
-348
-348
-348
-348
-347
-347
-347
-347
-347
-348
-347
-347
-347
-347
-347
-347
-347
-347
-347
-347
-347
-347
-347
-348
-348
-348
-348
-348
-348
-349
-348
-348
-348
-348
-348
-348
-348
-348
-348
-348
-348
-348
-348
-348
-348
-349
-349
-349
-349
-349
-349
-349
-349
-349
-349
-349
-349
-349
-349
-349
-349
-349
-349
-349
-349
-349
-349
-349
-349
-349
-348
-349
-349
-349
-349
-349
-349
-349
-349
-349
-350
-350
-350
-350
-350
-350
-350
-350
-350
-350
-350
-350
-350
-350
-350
-350
-350
-350
-350
-349
-348
-350
-350
-350
-350
-349
-349
-349
-349
-349
-349
-349
-349
-349
-349
-349
-349
-349
-348
-348
-349
-349
-349
-349
-349
-350
-350
-350
-350
-350
-350
-350
-351
-351
-351
-351
-352
-351
-351
-351
-352
-352
-352
-352
-351
-351
-352
-351
-351
-351
-351
-351
-351
-350
-350
-350
-350
-350
-349
-349
-349
-349
-348
-348
-349
-349
-348
-348
-348
-348
-348
-348
-347
-348
-348
-348
-348
-347
-347
-347
-347
-347
-347
-347
-347
-347
-347
-347
-347
-347
-347
-347
-347
-347
-347
-347
-347
-347
-347
-347
-347
-347
-347
-347
-347
-347
-346
-346
-346
-346
-346
-346
-345
-345
-345
-345
-345
-345
-345
-345
-345
-345
-344
-344
-345
-345
-345
-345
-345
-345
-345
-345
-345
-345
-345
-345
-345
-346
-346
-346
-346
-346
-346
-346
-346
-346
-347
-347
-347
-347
-347
-347
-347
-348
-348
-348
-348
-347
-347
-347
-347
-347
-347
-347
-347
-347
-347
-347
-347
-347
-346
-346
-346
-346
-346
-346
-346
-346
-346
-346
-346
-346
-346
-346
-346
-346
-346
-346
-347
-347
-347
-347
-347
-347
-347
-347
-347
-347
-347
-347
-347
-347
-347
-347
-346
-346
-345
-345
-345
-345
-345
-345
-346
-346
-346
-345
-345
-345
-345
-345
-345
-345
-345
-345
-345
-345
-345
-345
-345
-345
-345
-345
-345
-345
-345
-345
-345
-345
-345
-345
-345
-346
-345
-345
-345
-346
-346
-346
-346
-346
-346
-346
-346
-346
-347
-346
-346
-346
-346
-346
-346
-346
-346
-346
-346
-346
-345
-345
-345
-345
-345
-345
-345
-345
-345
-345
-346
-345
-345
-345
-345
-345
-345
-345
-346
-346
-346
-346
-346
-346
-346
-346
-346
-346
-345
-345
-345
-345
-345
-345
-345
-345
-345
-345
-345
-345
-345
-345
-345
-345
-345
-345
-345
-345
-345
-345
-345
-345
-345
-346
-346
-346
-346
-347
-347
-346
-346
-347
-347
-347
-347
-347
-347
-347
-347
-347
-347
-347
-347
-347
-347
-346
-346
-346
-346
-346
-346
-346
-346
-346
-346
-345
-345
-345
-345
-345
-345
-346
-347
-347
-347
-347
-347
-347
-347
-347
-347
-347
-347
-348
-348
-348
-348
-348
-347
-347
-346
-346
-346
-346
-346
-345
-345
-345
-345
-345
-345
-345
-345
-345
-345
-344
-345
-345
-345
-345
-345
-345
-345
-345
-345
-345
-346
-346
-346
-345
-345
-345
-345
-345
-345
-345
-345
-345
-345
-345
-346
-345
-345
-344
-344
-344
-344
-345
-345
-345
-345
-345
-345
-345
-345
-345
-345
-346
-346
-345
-345
-345
-345
-345
-345
-345
-345
-345
-345
-345
-345
-345
-344
-344
-343
-343
-343
-343
-343
-342
-342
-342
-341
-341
-340
-340
-339
-340
-339
-339
-338
-339
-338
-338
-338
-337
-337
-337
-336
-337
-336
-336
-335
-335
-334
-334
-333
-333
-332
-331
-331
-331
-330
-329
-329
-328
-328
-328
-328
-326
-326
-326
-326
-325
-325
-325
-325
-326
-326
-325
-325
-325
-325
-324
-324
-323
-324
-323
-323
-323
-322
-323
-322
-322
-323
-322
-323
-323
-322
-323
-323
-323
-324
-324
-325
-325
-326
-326
-327
-327
-328
-328
-329
-329
-331
-331
-332
-332
-333
-333
-333
-335
-335
-335
-335
-335
-337
-337
-337
-338
-339
-339
-339
-340
-340
-341
-341
-341
-341
-342
-343
-343
-343
-343
-343
-344
-345
-345
-345
-345
-346
-346
-346
-346
-346
-346
-345
-345
-345
-345
-345
-345
-345
-345
-345
-345
-345
-345
-345
-344
-344
-344
-344
-344
-343
-343
-343
-343
-343
-343
-343
-343
-343
-343
-343
-343
-343
-343
-343
-343
-342
-342
-343
-343
-343
-343
-343
-343
-343
-343
-343
-343
-344
-344
