# Simple Text Format
# Sampling Rate (Hz):= 1200.00
# Resolution:= 12
# Labels:= ECG	 II
# Age:=	14
# Gender:=	Masculino
-135
-135
-135
-135
-135
-135
-135
-134
-134
-134
-134
-134
-134
-134
-134
-134
-134
-134
-134
-134
-135
-135
-135
-135
-135
-135
-135
-135
-135
-135
-135
-135
-135
-135
-136
-136
-136
-136
-136
-136
-135
-135
-135
-135
-135
-135
-135
-135
-135
-135
-135
-135
-135
-135
-135
-135
-135
-135
-136
-136
-136
-136
-136
-136
-136
-136
-136
-137
-137
-137
-137
-137
-137
-137
-137
-137
-137
-137
-137
-137
-137
-137
-137
-136
-136
-136
-136
-136
-136
-136
-136
-136
-136
-136
-136
-136
-136
-136
-136
-136
-137
-137
-137
-137
-137
-137
-137
-137
-137
-137
-137
-137
-137
-136
-136
-136
-136
-136
-136
-136
-136
-136
-136
-136
-136
-136
-136
-136
-136
-137
-137
-137
-137
-137
-137
-137
-137
-137
-137
-137
-137
-137
-137
-137
-137
-137
-137
-137
-137
-137
-137
-137
-137
-137
-137
-137
-137
-137
-137
-137
-137
-137
-137
-137
-138
-138
-138
-138
-138
-138
-137
-137
-137
-137
-137
-137
-137
-137
-137
-137
-137
-137
-137
-137
-137
-137
-137
-137
-137
-137
-137
-137
-137
-137
-137
-137
-137
-137
-137
-137
-137
-137
-137
-137
-137
-137
-137
-137
-137
-137
-137
-137
-138
-138
-138
-138
-138
-138
-138
-138
-138
-138
-138
-138
-138
-138
-139
-139
-139
-139
-139
-139
-139
-139
-139
-139
-139
-139
-139
-139
-139
-139
-139
-139
-139
-139
-139
-139
-139
-139
-139
-139
-139
-139
-139
-139
-139
-139
-139
-139
-139
-139
-139
-140
-140
-140
-140
-139
-139
-139
-139
-139
-139
-139
-139
-139
-138
-138
-138
-138
-138
-138
-137
-137
-137
-137
-137
-137
-137
-137
-137
-137
-137
-137
-137
-137
-137
-137
-138
-138
-138
-138
-138
-138
-138
-138
-138
-138
-138
-139
-139
-139
-139
-139
-139
-139
-139
-139
-139
-139
-139
-139
-139
-139
-139
-139
-139
-139
-139
-139
-139
-140
-140
-140
-140
-140
-140
-140
-140
-140
-140
-140
-140
-140
-140
-140
-141
-141
-141
-141
-141
-141
-141
-141
-141
-141
-141
-141
-141
-141
-141
-141
-141
-141
-141
-141
-141
-141
-141
-141
-141
-141
-141
-141
-141
-141
-141
-141
-141
-141
-141
-141
-141
-141
-141
-141
-141
-141
-141
-141
-141
-141
-141
-142
-142
-142
-142
-142
-142
-142
-142
-142
-142
-142
-142
-142
-142
-142
-142
-142
-142
-142
-142
-142
-142
-142
-141
-141
-141
-141
-141
-141
-141
-141
-141
-141
-141
-142
-142
-142
-142
-142
-142
-142
-142
-142
-142
-142
-142
-142
-142
-142
-142
-142
-142
-142
-142
-142
-142
-142
-142
-142
-142
-142
-142
-142
-142
-142
-141
-141
-141
-141
-142
-142
-142
-142
-142
-142
-142
-143
-143
-143
-143
-143
-143
-143
-143
-143
-143
-143
-143
-143
-143
-143
-143
-143
-143
-143
-142
-142
-142
-142
-142
-142
-142
-142
-142
-142
-142
-142
-142
-142
-142
-142
-142
-142
-142
-142
-142
-142
-142
-142
-143
-143
-143
-143
-143
-143
-143
-143
-143
-143
-143
-143
-143
-143
-144
-144
-144
-143
-143
-143
-143
-143
-143
-143
-143
-143
-143
-143
-143
-143
-143
-143
-143
-143
-143
-143
-143
-143
-143
-144
-144
-144
-144
-144
-144
-145
-145
-145
-145
-145
-145
-145
-145
-145
-145
-144
-144
-144
-144
-144
-144
-144
-143
-143
-143
-143
-142
-142
-142
-141
-141
-141
-140
-140
-139
-138
-138
-137
-136
-135
-135
-134
-132
-131
-130
-129
-128
-127
-126
-124
-123
-122
-121
-120
-119
-118
-117
-116
-115
-114
-113
-112
-111
-110
-109
-109
-108
-107
-106
-106
-105
-105
-104
-104
-104
-104
-104
-104
-104
-104
-104
-104
-104
-104
-104
-105
-105
-105
-106
-106
-106
-107
-107
-108
-108
-108
-109
-109
-110
-111
-112
-113
-114
-115
-116
-117
-118
-119
-120
-122
-123
-124
-125
-126
-127
-129
-130
-131
-132
-133
-134
-134
-135
-136
-137
-137
-138
-139
-140
-140
-141
-142
-142
-143
-143
-144
-144
-145
-145
-146
-146
-147
-147
-148
-148
-149
-149
-149
-150
-150
-150
-151
-151
-151
-151
-152
-152
-152
-152
-152
-152
-152
-152
-152
-152
-152
-152
-152
-152
-152
-152
-152
-152
-152
-152
-151
-151
-151
-151
-151
-151
-151
-151
-151
-151
-151
-151
-151
-151
-151
-151
-151
-151
-151
-151
-151
-151
-151
-151
-150
-150
-150
-150
-150
-150
-150
-149
-149
-149
-149
-149
-149
-148
-148
-148
-147
-147
-146
-145
-144
-143
-141
-139
-137
-135
-133
-130
-128
-125
-121
-118
-114
-109
-105
-100
-95
-90
-85
-79
-74
-68
-63
-58
-53
-49
-46
-43
-41
-40
-40
-40
-41
-43
-46
-50
-54
-59
-66
-73
-80
-88
-97
-106
-114
-123
-132
-140
-148
-155
-162
-169
-175
-180
-184
-188
-191
-193
-194
-195
-195
-194
-193
-191
-189
-186
-183
-180
-177
-173
-169
-166
-162
-158
-155
-152
-149
-146
-144
-142
-140
-139
-138
-137
-136
-135
-135
-135
-135
-135
-135
-135
-135
-136
-136
-136
-137
-137
-137
-137
-138
-138
-138
-138
-137
-137
-137
-137
-137
-137
-136
-136
-136
-136
-136
-136
-135
-135
-135
-135
-135
-135
-136
-136
-136
-136
-136
-137
-137
-137
-137
-137
-137
-138
-138
-138
-138
-138
-138
-138
-138
-138
-138
-137
-137
-137
-137
-137
-136
-136
-136
-136
-135
-135
-135
-135
-134
-134
-134
-134
-133
-133
-133
-133
-133
-133
-133
-133
-132
-132
-132
-132
-132
-132
-132
-132
-131
-131
-131
-131
-131
-130
-130
-130
-130
-130
-129
-129
-129
-129
-129
-129
-128
-128
-128
-128
-128
-128
-128
-128
-128
-128
-128
-128
-128
-128
-128
-128
-128
-128
-128
-128
-128
-128
-128
-128
-128
-128
-128
-128
-128
-128
-128
-127
-127
-127
-127
-127
-127
-127
-127
-127
-126
-126
-126
-126
-126
-126
-126
-126
-125
-125
-125
-125
-125
-125
-125
-125
-125
-125
-125
-125
-125
-125
-125
-125
-125
-125
-125
-126
-126
-126
-126
-126
-126
-126
-126
-126
-125
-125
-125
-125
-125
-124
-124
-124
-124
-123
-123
-123
-122
-122
-122
-121
-121
-121
-120
-120
-120
-120
-120
-120
-120
-120
-120
-120
-120
-120
-120
-120
-119
-119
-119
-119
-119
-119
-119
-119
-118
-118
-118
-117
-117
-117
-117
-117
-116
-116
-116
-116
-116
-115
-115
-115
-115
-115
-115
-114
-114
-114
-114
-113
-113
-113
-113
-112
-112
-112
-112
-112
-111
-111
-111
-111
-111
-111
-111
-111
-111
-111
-111
-111
-111
-111
-111
-111
-111
-111
-111
-111
-111
-111
-111
-111
-110
-110
-110
-110
-109
-109
-109
-108
-108
-107
-107
-106
-106
-105
-105
-104
-104
-104
-104
-103
-103
-103
-102
-102
-102
-102
-102
-102
-102
-102
-102
-102
-102
-102
-102
-102
-102
-102
-102
-102
-101
-101
-101
-101
-101
-101
-101
-101
-100
-100
-100
-100
-99
-99
-99
-99
-99
-99
-99
-98
-98
-98
-98
-98
-98
-98
-98
-98
-99
-99
-99
-99
-99
-99
-99
-100
-100
-100
-100
-101
-101
-101
-101
-102
-102
-103
-103
-104
-104
-105
-106
-106
-107
-108
-109
-110
-110
-111
-112
-112
-113
-114
-115
-115
-116
-117
-118
-118
-119
-120
-121
-122
-122
-123
-124
-125
-125
-126
-127
-128
-129
-129
-130
-131
-132
-132
-133
-134
-134
-135
-135
-136
-137
-137
-138
-138
-139
-139
-140
-140
-141
-141
-142
-142
-143
-143
-144
-144
-145
-145
-146
-147
-147
-148
-148
-148
-149
-149
-149
-150
-150
-151
-151
-151
-151
-152
-152
-152
-152
-153
-153
-153
-153
-154
-154
-154
-154
-154
-154
-155
-155
-155
-155
-155
-155
-156
-156
-156
-156
-156
-157
-157
-157
-157
-157
-157
-158
-158
-158
-158
-158
-158
-158
-158
-158
-158
-158
-158
-158
-158
-157
-157
-157
-157
-157
-156
-156
-156
-156
-156
-156
-156
-156
-156
-156
-156
-155
-156
-156
-156
-156
-156
-156
-156
-157
-157
-157
-157
-157
-157
-157
-157
-157
-157
-157
-157
-157
-157
-157
-157
-157
-157
-157
-157
-157
-157
-157
-157
-157
-157
-157
-157
-157
-157
-157
-157
-157
-157
-157
-158
-158
-158
-158
-158
-158
-158
-158
-158
-158
-158
-158
-158
-158
-158
-158
-158
-158
-158
-158
-158
-158
-158
-159
-159
-159
-159
-159
-159
-159
-159
-159
-159
-159
-159
-159
-160
-160
-160
-160
-160
-161
-161
-161
-161
-161
-161
-161
-162
-162
-162
-162
-162
-162
-162
-162
-162
-162
-162
-162
-162
-162
-162
-162
-162
-162
-162
-162
-162
-162
-162
-162
-162
-162
-162
-162
-162
-162
-162
-162
-162
-162
-162
-162
-162
-162
-162
-162
-162
-162
-162
-162
-162
-162
-161
-161
-161
-161
-161
-161
-161
-161
-161
-161
-162
-162
-162
-162
-162
-162
-162
-162
-163
-163
-163
-163
-163
-164
-164
-164
-164
-164
-164
-164
-164
-164
-164
-164
-164
-164
-164
-164
-164
-164
-164
-164
-164
-164
-164
-165
-165
-165
-165
-165
-165
-165
-165
-165
-165
-166
-166
-166
-166
-166
-166
-166
-166
-166
-166
-166
-166
-166
-166
-166
-166
-166
-166
-166
-166
-166
-167
-167
-167
-167
-168
-168
-168
-168
-168
-168
-168
-168
-169
-169
-169
-169
-169
-169
-169
-169
-168
-168
-168
-168
-168
-168
-167
-167
-167
-167
-167
-167
-167
-166
-166
-166
-166
-166
-166
-167
-167
-167
-167
-167
-167
-168
-168
-168
-168
-168
-168
-168
-168
-168
-169
-169
-169
-169
-169
-169
-169
-169
-169
-169
-169
-169
-169
-169
-169
-169
-169
-169
-169
-169
-169
-169
-169
-169
-169
-169
-169
-169
-169
-169
-169
-169
-170
-170
-170
-170
-170
-170
-170
-170
-170
-171
-171
-171
-171
-171
-172
-172
-172
-172
-173
-173
-173
-173
-173
-173
-173
-173
-173
-173
-173
-173
-173
-173
-173
-173
-173
-173
-173
-173
-173
-173
-173
-173
-173
-173
-173
-173
-173
-173
-173
-173
-173
-173
-173
-173
-173
-173
-173
-173
-173
-172
-172
-172
-172
-172
-172
-172
-173
-173
-173
-173
-173
-173
-174
-174
-174
-174
-174
-174
-175
-175
-175
-175
-174
-174
-174
-174
-174
-174
-174
-174
-174
-174
-174
-174
-174
-174
-174
-174
-174
-174
-174
-174
-175
-175
-175
-175
-175
-175
-176
-176
-176
-176
-177
-177
-177
-177
-178
-178
-178
-178
-179
-179
-179
-179
-179
-179
-179
-179
-179
-179
-179
-179
-179
-179
-179
-179
-178
-178
-178
-178
-177
-177
-177
-177
-176
-176
-176
-176
-176
-176
-175
-175
-175
-175
-175
-175
-175
-175
-176
-176
-176
-176
-176
-176
-177
-177
-177
-177
-177
-177
-178
-178
-178
-178
-178
-178
-178
-178
-178
-178
-178
-178
-178
-178
-177
-177
-177
-177
-177
-177
-177
-177
-177
-177
-177
-177
-177
-177
-177
-177
-177
-177
-177
-178
-178
-178
-178
-178
-178
-178
-178
-178
-178
-178
-178
-178
-178
-178
-179
-179
-179
-178
-179
-179
-179
-179
-179
-179
-179
-179
-179
-179
-179
-179
-179
-179
-179
-179
-179
-179
-179
-179
-179
-179
-179
-179
-179
-179
-179
-179
-179
-179
-179
-179
-179
-179
-179
-179
-179
-179
-180
-180
-180
-180
-180
-181
-181
-181
-181
-181
-181
-181
-181
-181
-181
-181
-181
-180
-180
-180
-180
-180
-180
-179
-179
-179
-179
-179
-179
-179
-179
-180
-180
-180
-180
-180
-180
-181
-181
-181
-181
-182
-182
-182
-182
-182
-182
-182
-182
-182
-182
-182
-182
-182
-182
-182
-182
-181
-181
-181
-181
-181
-181
-181
-181
-181
-181
-181
-181
-181
-181
-181
-181
-181
-181
-180
-180
-180
-180
-180
-180
-180
-180
-180
-180
-180
-180
-180
-180
-180
-180
-180
-180
-181
-181
-181
-181
-181
-181
-181
-182
-182
-182
-182
-182
-182
-182
-182
-182
-182
-182
-182
-182
-182
-182
-182
-182
-182
-182
-182
-182
-182
-182
-182
-182
-182
-182
-182
-182
-182
-183
-183
-183
-183
-183
-183
-183
-183
-184
-184
-184
-184
-184
-184
-184
-185
-185
-185
-185
-185
-185
-185
-185
-185
-186
-186
-185
-185
-185
-185
-185
-185
-185
-185
-185
-185
-185
-185
-185
-185
-184
-184
-184
-184
-184
-184
-184
-184
-184
-184
-184
-184
-184
-184
-184
-184
-184
-184
-184
-184
-184
-184
-184
-184
-184
-184
-184
-184
-184
-184
-184
-184
-184
-184
-184
-184
-184
-185
-185
-185
-185
-185
-185
-185
-185
-185
-185
-185
-184
-184
-184
-184
-184
-184
-184
-184
-184
-184
-183
-183
-183
-183
-183
-183
-183
-182
-182
-181
-181
-181
-180
-179
-179
-178
-177
-176
-175
-174
-173
-172
-171
-170
-169
-168
-167
-166
-164
-163
-162
-161
-160
-159
-158
-157
-156
-154
-153
-152
-152
-151
-150
-150
-149
-148
-148
-148
-148
-147
-147
-147
-147
-147
-147
-148
-148
-148
-149
-149
-149
-149
-150
-150
-150
-150
-150
-151
-151
-151
-152
-152
-153
-154
-154
-155
-156
-157
-158
-159
-160
-161
-162
-163
-165
-166
-167
-169
-170
-171
-172
-174
-175
-176
-177
-178
-180
-181
-182
-183
-183
-184
-185
-186
-187
-187
-188
-189
-189
-190
-190
-191
-191
-191
-191
-192
-192
-192
-192
-192
-192
-192
-192
-192
-192
-192
-192
-192
-192
-192
-192
-192
-192
-192
-192
-192
-192
-192
-192
-193
-193
-193
-193
-194
-194
-194
-195
-195
-195
-195
-195
-195
-195
-195
-195
-195
-195
-195
-195
-195
-194
-194
-194
-194
-194
-194
-194
-194
-194
-194
-194
-194
-194
-194
-194
-194
-194
-194
-194
-194
-194
-194
-193
-193
-193
-193
-192
-192
-192
-191
-191
-190
-189
-188
-187
-186
-185
-183
-181
-179
-177
-175
-172
-169
-166
-163
-159
-155
-151
-146
-142
-137
-132
-127
-122
-117
-112
-108
-104
-101
-98
-96
-95
-95
-95
-96
-98
-100
-103
-107
-112
-118
-124
-130
-137
-145
-152
-160
-168
-175
-182
-189
-196
-202
-207
-212
-216
-220
-223
-225
-227
-228
-229
-229
-229
-228
-226
-225
-222
-220
-217
-214
-211
-207
-204
-201
-198
-195
-192
-189
-186
-184
-182
-180
-179
-178
-177
-176
-175
-175
-175
-175
-174
-174
-174
-175
-175
-175
-175
-176
-176
-176
-176
-176
-176
-176
-176
-176
-176
-176
-176
-176
-176
-176
-176
-176
-176
-175
-175
-175
-175
-174
-174
-174
-174
-174
-174
-174
-174
-174
-174
-174
-174
-173
-173
-173
-173
-173
-173
-173
-173
-173
-173
-172
-172
-172
-172
-172
-172
-172
-172
-172
-172
-172
-171
-171
-171
-171
-171
-171
-171
-171
-171
-171
-171
-170
-170
-170
-170
-170
-170
-170
-170
-170
-170
-170
-170
-170
-170
-170
-170
-170
-170
-170
-170
-170
-170
-170
-170
-170
-170
-169
-169
-169
-169
-169
-169
-169
-169
-169
-169
-169
-169
-169
-169
-169
-169
-169
-169
-169
-169
-168
-168
-168
-168
-167
-167
-167
-167
-167
-166
-166
-166
-166
-166
-166
-166
-166
-166
-166
-166
-166
-166
-167
-167
-167
-167
-167
-167
-167
-166
-166
-166
-166
-166
-165
-165
-165
-165
-164
-164
-164
-164
-164
-163
-163
-163
-163
-163
-163
-163
-162
-162
-162
-162
-162
-162
-161
-161
-161
-161
-161
-161
-160
-160
-160
-160
-160
-160
-160
-160
-160
-160
-160
-160
-160
-160
-160
-161
-161
-161
-161
-161
-161
-161
-161
-161
-161
-161
-161
-160
-160
-160
-160
-159
-159
-159
-159
-159
-159
-158
-158
-158
-158
-158
-158
-158
-158
-157
-157
-157
-157
-157
-157
-157
-157
-157
-157
-157
-157
-156
-156
-156
-156
-156
-156
-156
-155
-155
-155
-155
-155
-155
-155
-155
-155
-155
-155
-155
-155
-154
-154
-154
-154
-154
-154
-153
-153
-153
-153
-153
-153
-152
-152
-152
-152
-152
-152
-152
-152
-152
-151
-151
-151
-151
-151
-151
-151
-150
-150
-150
-150
-149
-149
-149
-149
-149
-148
-148
-148
-148
-148
-148
-148
-147
-147
-147
-147
-147
-147
-147
-146
-146
-146
-146
-146
-145
-145
-145
-145
-145
-144
-144
-144
-144
-143
-143
-143
-143
-143
-143
-142
-142
-142
-142
-142
-142
-143
-143
-143
-143
-143
-144
-144
-144
-144
-144
-145
-145
-145
-145
-145
-145
-146
-146
-146
-146
-146
-146
-146
-146
-147
-147
-147
-148
-148
-148
-149
-149
-150
-150
-151
-151
-152
-152
-153
-153
-154
-154
-155
-155
-156
-157
-157
-158
-158
-159
-160
-160
-161
-161
-162
-163
-164
-164
-165
-165
-166
-167
-167
-168
-169
-169
-170
-171
-171
-172
-173
-173
-174
-174
-175
-176
-176
-177
-178
-178
-179
-180
-180
-181
-181
-182
-182
-183
-183
-183
-184
-184
-185
-185
-185
-186
-186
-187
-187
-187
-188
-188
-188
-189
-189
-189
-189
-190
-190
-190
-190
-190
-190
-190
-190
-190
-190
-190
-189
-189
-189
-189
-189
-189
-189
-189
-189
-189
-189
-189
-189
-189
-189
-189
-189
-189
-189
-189
-188
-188
-188
-188
-188
-188
-187
-187
-187
-187
-187
-187
-186
-186
-186
-186
-186
-186
-186
-186
-186
-186
-186
-186
-186
-186
-187
-187
-187
-187
-187
-187
-187
-187
-187
-187
-187
-187
-187
-187
-187
-187
-186
-186
-186
-186
-186
-185
-185
-185
-185
-185
-185
-185
-185
-184
-184
-184
-184
-184
-184
-184
-184
-184
-184
-184
-184
-184
-184
-184
-184
-184
-184
-184
-184
-184
-184
-184
-184
-184
-184
-184
-184
-184
-184
-184
-184
-184
-184
-184
-184
-184
-184
-184
-184
-184
-184
-184
-184
-184
-184
-184
-184
-184
-183
-183
-183
-183
-184
-184
-184
-184
-184
-184
-184
-184
-184
-184
-185
-185
-185
-185
-185
-185
-185
-185
-185
-185
-185
-185
-185
-185
-185
-186
-186
-186
-186
-186
-186
-186
-186
-187
-187
-187
-187
-187
-187
-188
-188
-188
-188
-188
-188
-188
-188
-188
-188
-188
-188
-188
-188
-188
-188
-188
-188
-187
-187
-187
-187
-187
-187
-187
-187
-187
-187
-187
-187
-187
-188
-188
-188
-188
-188
-188
-188
-188
-188
-189
-189
-189
-189
-189
-189
-189
-189
-190
-190
-190
-190
-190
-190
-190
-190
-190
-190
-189
-189
-189
-189
-189
-189
-189
-189
-189
-189
-189
-189
-189
-189
-189
-189
-189
-189
-190
-190
-190
-190
-190
-190
-190
-191
-191
-191
-191
-191
-191
-190
-190
-190
-190
-190
-189
-189
-189
-189
-189
-188
-188
-188
-188
-188
-188
-188
-188
-188
-188
-188
-188
-189
-189
-189
-189
-189
-189
-190
-190
-190
-190
-190
-190
-190
-190
-190
-190
-190
-190
-189
-189
-189
-189
-189
-188
-188
-188
-188
-188
-188
-188
-187
-187
-187
-187
-187
-187
-187
-187
-187
-187
-187
-187
-187
-187
-187
-187
-188
-188
-188
-188
-188
-188
-188
-188
-188
-188
-188
-188
-188
-189
-189
-189
-189
-189
-189
-188
-188
-188
-188
-188
-188
-188
-188
-187
-187
-187
-186
-186
-186
-186
-185
-185
-185
-185
-185
-185
-185
-185
-185
-185
-185
-185
-185
-185
-185
-186
-186
-186
-186
-186
-186
-186
-186
-187
-187
-187
-187
-187
-187
-187
-187
-187
-187
-187
-186
-186
-186
-186
-186
-186
-186
-186
-186
-186
-186
-186
-186
-186
-186
-186
-186
-186
-186
-186
-186
-186
-186
-186
-186
-186
-186
-186
-186
-187
-187
-187
-187
-187
-187
-188
-188
-188
-188
-187
-187
-187
-187
-187
-187
-187
-187
-187
-187
-187
-187
-187
-187
-187
-187
-187
-187
-186
-186
-186
-186
-186
-186
-186
-186
-187
-187
-187
-187
-187
-187
-187
-187
-187
-187
-187
-187
-187
-187
-188
-188
-188
-188
-188
-188
-188
-188
-188
-188
-188
-188
-188
-188
-187
-187
-187
-187
-187
-187
-187
-187
-187
-187
-187
-187
-187
-187
-187
-187
-187
-187
-187
-188
-188
-188
-188
-187
-187
-187
-187
-187
-187
-187
-187
-187
-186
-186
-186
-186
-186
-186
-186
-185
-185
-185
-185
-185
-185
-185
-185
-185
-185
-185
-185
-185
-185
-185
-186
-186
-186
-186
-186
-186
-186
-186
-186
-186
-186
-186
-186
-187
-186
-186
-186
-186
-186
-186
-186
-186
-186
-186
-186
-186
-186
-185
-185
-185
-185
-185
-185
-185
-185
-185
-185
-185
-185
-185
-185
-184
-184
-184
-184
-184
-184
-184
-184
-184
-184
-183
-183
-183
-183
-183
-184
-184
-184
-184
-184
-184
-184
-184
-184
-185
-185
-185
-185
-185
-185
-185
-185
-185
-185
-185
-185
-185
-185
-185
-185
-185
-185
-185
-185
-185
-185
-185
-185
-185
-185
-185
-185
-185
-185
-185
-185
-185
-185
-185
-184
-184
-184
-184
-184
-184
-184
-184
-184
-184
-184
-184
-184
-184
-184
-184
-184
-184
-184
-184
-184
-184
-184
-184
-184
-184
-184
-184
-183
-183
-183
-183
-183
-183
-183
-183
-183
-183
-183
-183
-183
-183
-184
-184
-184
-184
-184
-184
-184
-184
-184
-184
-184
-184
-184
-184
-184
-184
-184
-184
-184
-184
-184
-184
-184
-184
-183
-183
-183
-183
-183
-183
-183
-183
-183
-183
-183
-182
-182
-182
-183
-183
-183
-183
-183
-183
-183
-184
-184
-184
-184
-184
-184
-184
-184
-184
-184
-184
-184
-184
-184
-184
-184
-183
-183
-183
-183
-183
-183
-183
-182
-182
-182
-182
-182
-183
-183
-183
-183
-183
-183
-183
-183
-183
-183
-183
-183
-183
-183
-183
-183
-183
-183
-183
-183
-183
-182
-182
-182
-182
-182
-182
-182
-182
-182
-182
-182
-182
-182
-182
-182
-182
-182
-182
-182
-182
-182
-182
-182
-182
-182
-182
-182
-182
-182
-182
-182
-182
-182
-182
-182
-182
-182
-182
-182
-182
-183
-183
-183
-183
-183
-183
-183
-183
-182
-182
-182
-182
-182
-182
-182
-181
-181
-181
-181
-181
-181
-181
-181
-181
-180
-180
-180
-180
-180
-180
-180
-180
-180
-180
-180
-180
-180
-179
-179
-179
-178
-178
-177
-176
-176
-175
-174
-173
-172
-171
-170
-169
-167
-166
-165
-164
-163
-162
-161
-160
-160
-159
-158
-157
-156
-156
-155
-154
-153
-153
-152
-151
-150
-149
-149
-148
-147
-147
-146
-146
-145
-145
-144
-144
-143
-143
-143
-142
-142
-142
-142
-142
-142
-142
-142
-143
-143
-143
-143
-144
-144
-144
-145
-145
-146
-147
-148
-149
-150
-151
-151
-152
-153
-154
-155
-157
-158
-159
-160
-161
-162
-163
-164
-165
-166
-167
-167
-168
-169
-170
-171
-171
-172
-173
-174
-174
-175
-175
-176
-177
-177
-178
-178
-179
-179
-179
-180
-180
-181
-181
-181
-182
-182
-182
-182
-182
-183
-183
-183
-183
-183
-182
-182
-182
-182
-182
-182
-182
-182
-182
-183
-183
-183
-183
-183
-183
-183
-183
-183
-184
-184
-184
-184
-184
-184
-184
-184
-184
-184
-183
-183
-183
-183
-182
-182
-182
-181
-181
-180
-180
-180
-179
-179
-179
-178
-178
-178
-177
-177
-177
-177
-177
-177
-177
-177
-177
-177
-177
-177
-176
-176
-176
-175
-174
-173
-172
-171
-169
-167
-165
-163
-160
-157
-154
-150
-146
-142
-138
-133
-128
-123
-117
-112
-106
-101
-95
-90
-84
-80
-75
-72
-69
-67
-65
-65
-65
-66
-68
-70
-73
-78
-83
-88
-95
-102
-110
-118
-127
-136
-144
-153
-161
-169
-177
-184
-190
-196
-202
-206
-210
-213
-216
-218
-219
-219
-219
-218
-216
-214
-212
-209
-205
-202
-198
-194
-190
-186
-182
-179
-175
-172
-169
-166
-164
-162
-161
-159
-158
-158
-157
-157
-157
-156
-157
-157
-157
-157
-157
-157
-158
-158
-158
-158
-158
-158
-158
-158
-158
-158
-158
-158
-158
-158
-158
-158
-157
-157
-157
-157
-157
-156
-156
-156
-155
-155
-155
-155
-154
-154
-154
-154
-154
-154
-154
-153
-153
-153
-153
-153
-153
-153
-154
-154
-154
-154
-154
-154
-153
-153
-153
-153
-153
-153
-153
-153
-152
-152
-152
-152
-152
-152
-151
-151
-151
-151
-150
-150
-150
-150
-149
-149
-149
-149
-149
-148
-148
-148
-148
-148
-148
-147
-147
-147
-147
-147
-146
-146
-146
-146
-146
-146
-146
-146
-146
-146
-145
-145
-145
-145
-145
-144
-144
-144
-144
-144
-143
-143
-143
-143
-143
-143
-143
-143
-143
-143
-143
-143
-143
-143
-143
-143
-143
-143
-143
-143
-143
-143
-143
-142
-142
-142
-142
-142
-142
-142
-142
-142
-142
-142
-142
-142
-142
-141
-141
-142
-142
-142
-142
-142
-142
-142
-142
-142
-142
-142
-142
-142
-142
-142
-142
-142
-142
-142
-141
-141
-141
-140
-140
-139
-139
-138
-138
-137
-137
-137
-136
-136
-136
-135
-135
-135
-135
-135
-135
-135
-135
-135
-135
-135
-135
-135
-135
-135
-135
-135
-135
-135
-135
-135
-135
-135
-135
-135
-135
-135
-135
-135
-134
-134
-134
-134
-134
-134
-133
-133
-133
-133
-132
-132
-132
-131
-131
-131
-131
-131
-130
-130
-130
-130
-130
-130
-130
-130
-130
-130
-130
-130
-129
-129
-129
-129
-129
-129
-129
-129
-128
-128
-128
-128
-127
-127
-127
-127
-127
-127
-126
-126
-126
-126
-126
-126
-125
-125
-125
-125
-125
-125
-126
-126
-126
-126
-125
-125
-125
-125
-125
-125
-125
-125
-124
-124
-124
-123
-123
-122
-122
-122
-121
-121
-120
-120
-119
-119
-119
-118
-118
-118
-118
-117
-117
-117
-117
-117
-117
-117
-117
-116
-116
-116
-116
-116
-116
-116
-116
-116
-115
-115
-115
-115
-114
-114
-114
-113
-113
-113
-113
-113
-113
-112
-112
-112
-112
-112
-112
-112
-112
-111
-112
-112
-112
-112
-112
-112
-113
-113
-113
-114
-114
-114
-115
-115
-116
-116
-117
-117
-118
-118
-119
-120
-120
-121
-122
-122
-123
-123
-124
-125
-125
-126
-127
-127
-128
-129
-130
-130
-131
-132
-132
-133
-134
-135
-135
-136
-137
-138
-138
-139
-140
-141
-142
-142
-143
-144
-144
-145
-145
-146
-147
-147
-148
-148
-149
-150
-150
-151
-151
-152
-152
-153
-153
-154
-154
-155
-155
-156
-156
-156
-157
-157
-157
-158
-158
-158
-158
-159
-159
-159
-160
-160
-160
-160
-161
-161
-162
-162
-162
-163
-163
-163
-163
-164
-164
-164
-165
-165
-165
-165
-165
-165
-166
-166
-166
-166
-166
-166
-166
-167
-167
-167
-167
-167
-167
-167
-168
-168
-168
-168
-168
-168
-168
-168
-168
-168
-168
-168
-168
-168
-168
-168
-168
-168
-168
-168
-167
-167
-167
-167
-167
-167
-167
-167
-167
-167
-167
-167
-167
-167
-166
-166
-166
-166
-166
-166
-166
-166
-165
-165
-165
-165
-165
-165
-165
-165
-165
-165
-165
-165
-165
-165
-164
-164
-164
-164
-164
-164
-164
-164
-164
-164
-164
-164
-164
-164
-164
-164
-164
-164
-164
-164
-164
-164
-164
-164
-164
-164
-164
-164
-164
-164
-164
-164
-164
-164
-164
-164
-164
-164
-163
-163
-163
-163
-163
-163
-163
-163
-163
-163
-163
-163
-163
-163
-163
-163
-163
-163
-164
-164
-164
-164
-164
-164
-164
-164
-164
-164
-164
-164
-164
-164
-164
-164
-164
-164
-164
-164
-164
-164
-164
-164
-164
-164
-164
-164
-164
-164
-164
-164
-164
-164
-164
-164
-164
-164
-165
-165
-165
-165
-165
-165
-165
-165
-165
-165
-165
-165
-165
-165
-165
-165
-164
-164
-164
-164
-163
-163
-163
-163
-163
-162
-162
-162
-162
-162
-162
-162
-162
-162
-162
-162
-162
-162
-162
-162
-163
-163
-163
-163
-163
-163
-164
-164
-164
-164
-164
-165
-165
-165
-165
-165
-165
-165
-165
-165
-165
-165
-165
-165
-165
-164
-164
-164
-164
-164
-164
-164
-164
-164
-164
-164
-164
-164
-164
-164
-163
-164
-164
-164
-164
-164
-164
-164
-165
-165
-165
-165
-165
-165
-165
-165
-165
-165
-165
-165
-165
-165
-165
-165
-165
-165
-165
-165
-165
-164
-164
-164
-164
-164
-164
-164
-164
-164
-164
-163
-163
-163
-163
-163
-163
-163
-163
-163
-163
-163
-163
-163
-163
-163
-164
-164
-164
-164
-164
-164
-164
-164
-164
-164
-164
-164
-164
-163
-163
-163
-163
-163
-163
-163
-163
-163
-163
-163
-163
-163
-163
-163
-163
-163
-163
-163
-163
-164
-164
-164
-164
-164
-164
-164
-164
-164
-164
-164
-164
-164
-164
-164
-164
-164
-164
-164
-164
-164
-164
-164
-164
-164
-164
-164
-163
-163
-163
-163
-163
-163
-163
-163
-163
-163
-163
-163
-163
-163
-163
-163
-163
-163
-163
-163
-162
-162
-162
-162
-162
-162
-162
-162
-162
-162
-162
-162
-162
-162
-162
-162
-162
-162
-162
-162
-162
-162
-162
-162
-163
-163
-163
-163
-163
-163
-163
-163
-163
-163
-163
-163
-164
-164
-164
-164
-164
-164
-164
-164
-164
-164
-164
-164
-164
-164
-164
-163
-163
-163
-163
-163
-163
-163
-163
-162
-162
-162
-162
-162
-162
-162
-162
-162
-162
-162
-162
-162
-162
-162
-162
-162
-162
-162
-162
-163
-163
-163
-163
-163
-163
-163
-163
-163
-163
-163
-163
-163
-162
-162
-162
-162
-162
-162
-162
-161
-161
-161
-161
-161
-161
-161
-161
-161
-161
-161
-161
-161
-161
-160
-160
-160
-160
-160
-160
-160
-160
-160
-160
-160
-159
-159
-159
-159
-159
-159
-158
-158
-158
-158
-158
-158
-157
-157
-157
-157
-157
-157
-157
-157
-157
-156
-156
-156
-156
-156
-156
-156
-156
-156
-156
-156
-156
-155
-156
-156
-156
-156
-156
-156
-156
-156
-156
-156
-157
-157
-157
-157
-157
-157
-158
-158
-158
-158
-159
-159
-159
-159
-160
-160
-160
-161
-161
-161
-161
-162
-162
-162
-163
-163
-163
-163
-164
-164
-164
-164
-164
-164
-164
-164
-164
-164
-164
-164
-163
-163
-163
-163
-162
-162
-162
-162
-162
-162
-162
-162
-161
-161
-161
-161
-161
-161
-161
-160
-160
-160
-160
-160
-160
-160
-160
-159
-159
-159
-159
-159
-159
-159
-159
-159
-158
-158
-158
-158
-158
-158
-158
-158
-158
-157
-157
-157
-157
-157
-157
-157
-157
-157
-157
-157
-157
-157
-157
-157
-157
-157
-157
-157
-157
-157
-157
-157
-157
-157
-157
-157
-158
-158
-158
-158
-158
-158
-158
-158
-158
-159
-159
-159
-159
-159
-159
-159
-159
-159
-159
-159
-159
-159
-159
-159
-159
-159
-158
-158
-158
-158
-158
-158
-158
-158
-158
-157
-157
-157
-157
-157
-157
-156
-156
-156
-156
-156
-156
-156
-156
-156
-156
-156
-156
-156
-157
-157
-157
-157
-157
-157
-157
-157
-157
-157
-157
-157
-157
-157
-157
-157
-157
-157
-157
-157
-156
-156
-156
-156
-156
-156
-156
-156
-156
-156
-156
-156
-156
-156
-156
-156
-156
-155
-155
-155
-155
-155
-155
-155
-155
-156
-156
-156
-156
-156
-156
-156
-156
-156
-156
-156
-156
-156
-156
-156
-156
-156
-155
-155
-155
-155
-155
-155
-155
-155
-155
-155
-155
-155
-155
-155
-155
-155
-155
-155
-155
-155
-155
-155
-155
-155
-155
-156
-156
-156
-156
-156
-156
-155
-155
-155
-155
-155
-155
-155
-155
-155
-155
-155
-155
-155
-155
-155
-155
-155
-155
-155
-155
-155
-155
-155
-155
-155
-155
-155
-155
-155
-155
-155
-155
-155
-155
-155
-155
-155
-155
-155
-156
-156
-156
-156
-156
-156
-156
-156
-156
-156
-156
-156
-156
-156
-156
-156
-156
-156
-156
-156
-156
-155
-155
-155
-155
-155
-155
-155
-155
-155
-155
-155
-155
-155
-155
-155
-155
-155
-155
-155
-155
-155
-155
-156
-156
-156
-156
-156
-156
-156
-156
-156
-156
-156
-156
-156
-156
-156
-156
-156
-156
-156
-156
-156
-156
-156
-156
-156
-156
-156
-156
-156
-156
-156
-156
-156
-156
-156
-156
-157
-157
-157
-157
-156
-156
-156
-156
-156
-156
-156
-156
-156
-156
-156
-156
-156
-156
-155
-155
-155
-155
-156
-156
-156
-156
-156
-156
-156
-156
-156
-156
-156
-156
-156
-156
-156
-156
-156
-156
-155
-155
-155
-155
-155
-155
-155
-154
-154
-154
-153
-153
-152
-152
-151
-151
-150
-150
-149
-148
-147
-146
-145
-144
-143
-142
-141
-140
-139
-138
-137
-136
-135
-133
-132
-131
-130
-129
-128
-127
-126
-125
-124
-123
-122
-121
-120
-119
-118
-118
-117
-116
-116
-116
-116
-116
-116
-115
-116
-116
-116
-116
-116
-116
-116
-117
-117
-117
-117
-117
-118
-118
-118
-118
-118
-119
-119
-120
-120
-121
-121
-122
-123
-124
-124
-125
-126
-127
-128
-129
-130
-131
-132
-134
-135
-136
-137
-138
-139
-139
-140
-141
-142
-143
-144
-144
-145
-146
-146
-147
-148
-148
-149
-149
-150
-150
-150
-151
-151
-151
-152
-152
-152
-152
-152
-153
-153
-153
-153
-153
-153
-153
-153
-153
-153
-153
-153
-154
-154
-154
-154
-154
-154
-154
-154
-154
-154
-154
-154
-155
-155
-155
-155
-155
-156
-156
-156
-156
-156
-155
-155
-154
-153
-152
-151
-149
-147
-144
-141
-138
-134
-130
-125
-120
-114
-108
-102
-96
-89
-82
-74
-66
-58
-50
-42
-34
-27
-21
-15
-10
-6
-3
0
1
2
2
1
0
-3
-7
-12
-19
-26
-34
-42
-51
-60
-70
-79
-88
-97
-105
-114
-121
-129
-135
-141
-146
-150
-154
-157
-159
-161
-162
-162
-161
-161
-159
-158
-156
-154
-152
-150
-147
-145
-143
-141
-139
-138
-136
-135
-134
-133
-132
-132
-131
-131
-131
-131
-131
-131
-132
-132
-132
-133
-133
-133
-134
-134
-134
-135
-135
-135
-135
-136
-136
-136
-136
-136
-136
-136
-136
-136
-136
-136
-136
-136
-136
-136
-135
-135
-135
-135
-135
-135
-134
-134
-134
-134
-134
-134
-133
-133
-133
-133
-133
-133
-133
-132
-132
-132
-132
-132
-132
-132
-132
-132
-132
-131
-131
-131
-131
-131
-131
-130
-130
-130
-130
-130
-130
-130
-129
-129
-129
-129
-129
-128
-128
-128
-128
-128
-128
-128
-128
-128
-128
-128
-127
-127
-127
-127
-127
-127
-127
-127
-127
-127
-127
-127
-126
-126
-126
-126
-126
-126
-126
-126
-126
-126
-126
-126
-125
-125
-125
-125
-125
-124
-124
-124
-124
-124
-123
-123
-123
-123
-123
-122
-122
-122
-122
-121
-121
-121
-121
-121
-121
-120
-120
-120
-120
-120
-120
-120
-120
-120
-120
-120
-120
-120
-120
-120
-121
-121
-121
-121
-121
-120
-120
-120
-120
-120
-120
-120
-120
-120
-119
-119
-119
-119
-119
-118
-118
-118
-118
-118
-118
-118
-117
-117
-117
-117
-117
-117
-117
-117
-117
-116
-116
-116
-116
-116
-116
-116
-116
-116
-116
-116
-116
-116
-116
-116
-116
-116
-116
-116
-116
-116
-115
-115
-115
-115
-115
-115
-115
-114
-114
-114
-114
-114
-114
-114
-114
-114
-113
-113
-113
-113
-113
-113
-113
-113
-113
-113
-113
-113
-113
-113
-113
-112
-112
-112
-112
-112
-111
-111
-111
-111
-111
-110
-110
-110
-110
-110
-109
-109
-109
-109
-108
-108
-108
-108
-108
-107
-107
-107
-107
-107
-107
-107
-107
-107
-107
-107
-107
-107
-107
-107
-107
-107
-108
-108
-108
-108
-108
-108
-108
-108
-109
-109
-109
-109
-109
-109
-109
-109
-109
-108
-108
-108
-108
-108
-108
-108
-107
-107
-107
-107
-107
-107
-107
-107
-107
-107
-107
-107
-108
-108
-108
-108
-108
-108
-109
-109
-109
-109
-109
-110
-110
-110
-110
-110
-110
-110
-110
-110
-110
-110
-110
-110
-110
-111
-111
-111
-111
-111
-111
-112
-112
-112
-112
-112
-113
-113
-113
-114
-114
-114
-114
-115
-115
-116
-116
-116
-117
-117
-118
-118
-118
-119
-119
-119
-120
-120
-120
-121
-121
-121
-121
-122
-122
-122
-122
-122
-122
-123
-123
-123
-123
-123
-124
-124
-124
-124
-125
-125
-125
-126
-126
-126
-127
-127
-128
-128
-129
-129
-130
-130
-131
-131
-131
-132
-132
-133
-133
-133
-133
-134
-134
-134
-134
-134
-134
-134
-134
-135
-135
-135
-135
-135
-135
-135
-135
-135
-135
-135
-135
-135
-135
-135
-135
-135
-135
-135
-135
-135
-135
-135
-135
-135
-135
-135
-136
-136
-136
-136
-136
-137
-137
-137
-137
-137
-137
-137
-138
-138
-138
-138
-138
-138
-138
-138
-138
-138
-138
-138
-138
-137
-137
-137
-137
-137
-136
-136
-136
-136
-136
-136
-137
-137
-137
-137
-137
-136
-137
-137
-137
-137
-137
-137
-137
-137
-137
-137
-137
-137
-137
-137
-137
-137
-137
-137
-137
-137
-137
-137
-137
-137
-137
-137
-137
-137
-137
-137
-137
-138
-138
-138
-138
-138
-138
-138
-138
-139
-139
-139
-139
-139
-139
-139
-139
-139
-139
-139
-139
-139
-139
-139
-139
-139
-139
-139
-139
-138
-138
-138
-138
-138
-138
-138
-138
-138
-138
-138
-138
-138
-138
-138
-138
-138
-138
-138
-138
-138
-139
-139
-139
-139
-139
-139
-139
-139
-139
-139
-139
-139
-139
-139
-139
-139
-139
-139
-139
-138
-138
-138
-138
-138
-138
-138
-138
-138
-137
-137
-137
-137
-137
-137
-137
-137
-137
-137
-137
-137
-137
-138
-138
-138
-138
-138
-138
-139
-139
-139
-139
-139
-139
-139
-139
-139
-139
-139
-139
-139
-138
-138
-138
-138
-138
-138
-137
-137
-137
-137
-137
-137
-137
-137
-137
-137
-137
-137
-138
-138
-138
-138
-138
-138
-138
-138
-138
-138
-138
-138
-138
-139
-139
-139
-139
-139
-139
-139
-139
-139
-139
-139
-139
-139
-139
-139
-139
-139
-139
-139
-139
-140
-140
-140
-140
-140
-140
-140
-140
-140
-140
-141
-141
-141
-141
-141
-141
-141
-141
-141
-141
-141
-141
-141
-141
-141
-141
-141
-140
-140
-140
-140
-140
-140
-140
-139
-139
-139
-139
-139
-139
-139
-139
-139
-139
-139
-139
-139
-139
-139
-139
-139
-139
-140
-140
-140
-140
-140
-140
-140
-140
-141
-141
-141
-141
-141
-141
-141
-142
-142
-142
-142
-141
-141
-141
-141
-141
-141
-141
-141
-141
-141
-140
-140
-140
-140
-140
-140
-140
-140
-140
-140
-140
-140
-140
-140
-140
-140
-140
-140
-140
-140
-140
-141
-141
-141
-141
-141
-141
-141
-141
-141
-141
-141
-141
-141
-141
-141
-141
-141
-142
-142
-142
-142
-142
-142
-142
-142
-142
-142
-142
-142
-142
-142
-142
-142
-142
-141
-141
-141
-141
-141
-141
-141
-141
-141
-141
-141
-142
-142
-142
-142
-142
-142
-142
-142
-142
-142
-141
-141
-141
-141
-141
-141
-141
-141
-141
-141
-141
-141
-141
-140
-140
-140
-140
-140
-140
-140
-140
-140
-140
-139
-139
-139
-139
-139
-139
-139
-138
-138
-138
-138
-138
-138
-138
-139
-139
-139
-139
-139
-140
-140
-140
-140
-140
-141
-141
-141
-141
-141
-141
-141
-141
-141
-141
-140
-140
-140
-140
-140
-140
-140
-140
-140
-140
-140
-140
-140
-140
-140
-140
-140
-140
-140
-140
-140
-140
-140
-140
-140
-140
-140
-140
-140
-140
-140
-140
-141
-141
-141
-141
-141
-141
-141
-141
-141
-142
-142
-142
-142
-142
-142
-142
-142
-142
-141
-141
-141
-141
-141
-141
-141
-141
-140
-140
-140
-140
-140
-140
-140
-139
-139
-139
-139
-140
-140
-140
-140
-140
-140
-140
-140
-140
-140
-140
-140
-140
-140
-140
-140
-140
-140
-141
-141
-141
-141
-141
-141
-141
-141
-141
-141
-141
-141
-141
-141
-141
-141
-141
-141
-141
-141
-141
-141
-141
-141
-140
-140
-140
-140
-140
-140
-140
-140
-140
-140
-140
-140
-140
-140
-140
-140
-140
-139
-139
-139
-139
-139
-139
-139
-139
-139
-139
-139
-139
-139
-139
-139
-139
-139
-139
-139
-139
-139
-139
-139
-139
-139
-139
-139
-139
-139
-138
-138
-138
-138
-138
-138
-138
-139
-139
-139
-139
-139
-139
-139
-139
-139
-139
-139
-139
-140
-140
-140
-140
-140
-140
-140
-140
-140
-140
-140
-140
-141
-141
-141
-141
-141
-141
-140
-140
-140
-140
-140
-140
-140
-140
-140
-140
-140
-141
-141
-141
-141
-141
-141
-141
-142
-142
-142
-142
-142
-142
-142
-142
-142
-142
-142
-142
-142
-142
-142
-142
-142
-142
-142
-142
-142
-142
-142
-142
-142
-142
-142
-142
-142
-142
-142
-142
-142
-142
-142
-141
-141
-141
-141
-141
-141
-141
-140
-140
-140
-140
-140
-140
-140
-140
-141
-141
-141
-141
-141
-141
-141
-141
-141
-141
-141
-141
-141
-141
-141
-141
-141
-141
-140
-140
-140
-140
-140
-140
-140
-140
-140
-140
-140
-140
-140
-140
-140
-140
-140
-140
-140
-140
-140
-140
-140
-140
-140
-140
-140
-140
-139
-139
-139
-139
-139
-139
-139
-139
-139
-139
-139
-139
-139
-140
-140
-140
-140
-140
-140
-140
-140
-141
-141
-141
-141
-141
-141
-141
-141
-141
-141
-141
-141
-141
-141
-141
-141
-141
-141
-141
-141
-141
-140
-140
-140
-140
-140
-140
-140
-140
-140
-141
-141
-141
-141
-141
-141
-141
-141
-141
-141
-141
-141
-141
-141
-141
-141
-141
-141
-141
-141
-141
-141
-140
-140
-140
-140
-140
-141
-141
-141
-141
-141
-141
-141
-141
-141
-141
-141
-141
-141
-141
-141
-141
-141
-141
-141
-141
-141
-140
-140
-140
-140
-140
-140
-140
-140
-140
-140
-140
-140
-140
-140
-140
-140
-140
-140
-140
-140
-140
-140
-140
-140
-140
-139
-139
-139
-139
-139
-139
-139
-139
-139
-139
-139
-139
-139
-139
-139
-139
-139
-139
-139
-139
-139
-139
-139
-139
-139
-138
-138
-138
-137
-137
-136
-136
-135
-134
-133
-133
-132
-131
-130
-129
-128
-127
-126
-124
-123
-122
-121
-120
-119
-118
-117
-117
-116
-115
-114
-114
-113
-112
-111
-110
-109
-109
-108
-107
-106
-105
-105
-104
-103
-102
-102
-101
-100
-100
-100
-99
-99
-99
-99
-99
-99
-99
-99
-99
-99
-99
-99
-99
-99
-99
-100
-100
-100
-101
-101
-102
-102
-103
-104
-105
-106
-107
-108
-109
-110
-111
-112
-113
-115
-116
-117
-118
-119
-120
-121
-122
-123
-124
-125
-126
-127
-128
-129
-129
-130
-131
-132
-133
-133
-134
-135
-136
-136
-137
-138
-138
-139
-139
-140
-140
-140
-141
-141
-141
-141
-142
-142
-142
-142
-142
-141
-141
-141
-141
-141
-141
-141
-141
-141
-141
-141
-141
-141
-141
-142
-142
-142
-142
-142
-142
-142
-142
-142
-142
-142
-142
-142
-142
-142
-142
-142
-142
-142
-142
-142
-141
-141
-141
-141
-141
-141
-141
-141
-141
-141
-141
-141
-141
-141
-141
-141
-141
-141
-141
-141
-141
-141
-141
-140
-140
-140
-140
-140
-139
-139
-138
-137
-136
-135
-133
-131
-129
-127
-125
-123
-120
-117
-114
-110
-106
-102
-98
-93
-88
-83
-78
-73
-68
-63
-58
-53
-49
-45
-42
-40
-39
-38
-38
-39
-41
-43
-46
-50
-54
-59
-65
-72
-79
-87
-94
-102
-110
-118
-125
-133
-140
-146
-152
-157
-162
-166
-170
-173
-176
-178
-179
-179
-179
-179
-178
-176
-174
-172
-169
-166
-162
-159
-155
-152
-148
-145
-142
-139
-136
-133
-131
-129
-127
-126
-124
-124
-123
-122
-122
-122
-122
-122
-122
-122
-123
-123
-123
-124
-124
-124
-125
-125
-125
-125
-126
-126
-126
-126
-126
-126
-126
-125
-125
-125
-125
-125
-125
-125
-125
-125
-125
-125
-125
-125
-124
-124
-124
-124
-124
-124
-124
-124
-124
-123
-123
-123
-123
-123
-123
-123
-123
-123
-122
-122
-122
-122
-122
-122
-122
-122
-122
-122
-122
-122
-122
-122
-122
-121
-121
-121
-121
-121
-121
-121
-120
-120
-120
-120
-120
-120
-119
-119
-119
-119
-119
-119
-119
-119
-119
-119
-119
-119
-119
-119
-119
-119
-119
-119
-119
-119
-119
-119
-119
-119
-119
-119
-119
-119
-119
-119
-119
-119
-118
-118
-118
-118
-117
-117
-117
-117
-117
-117
-116
-116
-116
-116
-115
-115
-115
-115
-115
-115
-115
-115
-115
-115
-115
-115
-115
-115
-115
-115
-114
-114
-114
-114
-114
-114
-113
-113
-113
-113
-112
-112
-112
-112
-112
-112
-112
-112
-112
-112
-112
-112
-112
-112
-112
-112
-112
-112
-112
-112
-112
-112
-112
-112
-111
-111
-111
-111
-111
-111
-111
-111
-111
-111
-111
-111
-111
-111
-111
-111
-111
-111
-111
-111
-111
-111
-111
-111
-111
-111
-111
-111
-110
-110
-110
-109
-109
-109
-109
-108
-108
-107
-107
-106
-106
-105
-105
-105
-104
-104
-104
-104
-103
-103
-103
-103
-103
-103
-103
-103
-103
-104
-104
-104
-104
-104
-104
-105
-105
-105
-105
-104
-104
-104
-104
-103
-103
-103
-102
-102
-102
-101
-101
-101
-100
-100
-99
-99
-99
-98
-98
-98
-98
-98
-98
-98
-98
-98
-98
-97
-97
-97
-97
-97
-97
-96
-96
-96
-95
-95
-95
-95
-95
-94
-94
-94
-94
-93
-93
-93
-93
-93
-93
-93
-93
-93
-92
-92
-92
-92
-92
-91
-91
-91
-91
-91
-90
-90
-90
-90
-89
-89
-89
-89
-89
-89
-89
-89
-88
-88
-88
-88
-88
-88
-87
-87
-87
-87
-87
-87
-87
-87
-86
-86
-86
-86
-86
-86
-86
-86
-86
-86
-86
-86
-86
-86
-86
-86
-87
-87
-87
-88
-88
-89
-89
-89
-90
-90
-91
-91
-92
-92
-93
-93
-94
-94
-95
-95
-96
-96
-96
-97
-97
-98
-98
-99
-99
-100
-100
-101
-102
-102
-103
-104
-104
-105
-106
-107
-107
-108
-109
-110
-111
-112
-112
-113
-114
-114
-115
-115
-116
-116
-117
-117
-118
-118
-119
-119
-120
-120
-121
-121
-122
-123
-123
-124
-124
-125
-125
-126
-126
-127
-127
-128
-129
-129
-130
-130
-131
-132
-132
-132
-133
-133
-134
-134
-134
-135
-135
-135
-136
-136
-136
-136
-136
-136
-136
-136
-135
-135
-135
-136
-136
-136
-136
-136
-136
-136
-136
-137
-137
-137
-137
-138
-138
-138
-139
-139
-139
-139
-139
-139
-139
-139
-139
-139
-139
-139
-139
-139
-139
-139
-139
-139
-139
-139
-139
-139
-139
-139
-139
-138
-138
-138
-138
-138
-138
-138
-138
-137
-137
-137
-137
-136
-136
-136
-136
-136
-136
-136
-136
-136
-136
-136
-136
-136
-137
-137
-137
-137
-137
-138
-138
-138
-138
-137
-137
-137
-137
-137
-137
-136
-136
-136
-135
-135
-135
-135
-134
-134
-134
-134
-134
-134
-134
-134
-134
-134
-135
-135
-135
-135
-136
-136
-136
-137
-137
-137
-137
-138
-138
-138
-138
-138
-138
-138
-138
-137
-137
-137
-137
-137
-136
-136
-136
-136
-136
-136
-135
-135
-135
-135
-135
-135
-135
-135
-135
-135
-135
-136
-136
-136
-136
-136
-136
-136
-136
-136
-136
-136
-136
-136
-136
-136
-136
-136
-137
-137
-137
-137
-137
-137
-137
-137
-137
-137
-137
-137
-137
-137
-137
-137
-137
-137
-137
-137
-137
-137
-137
-137
-137
-137
-137
-137
-138
-138
-138
-138
-138
-138
-138
-139
-139
-139
-139
-139
-139
-139
-139
-139
-140
-140
-140
-140
-140
-140
-141
-141
-141
-141
-141
-141
-142
-142
-142
-142
-142
-142
-142
-143
-143
-143
-143
-143
-143
-143
-143
-143
-142
-142
-142
-142
-142
-142
-142
-142
-142
-142
-142
-142
-142
-142
-142
-142
-142
-142
-142
-142
-142
-142
-142
-142
-142
-142
-143
-143
-143
-143
-144
-144
-144
-145
-145
-145
-146
-146
-146
-147
-147
-147
-148
-148
-148
-149
-149
-149
-149
-149
-149
-149
-149
-149
-148
-148
-148
-148
-148
-148
-147
-147
-147
-147
-147
-147
-147
-147
-146
-146
-146
-147
-147
-147
-148
-148
-148
-148
-148
-149
-149
-149
-149
-149
-149
-149
-149
-149
-149
-149
-149
-149
-149
-148
-148
-148
-148
-148
-148
-147
-147
-147
-147
-147
-147
-147
-147
-147
-146
-146
-146
-146
-146
-146
-146
-146
-146
-146
-146
-146
-147
-147
-147
-147
-147
-147
-147
-147
-147
-147
-147
-147
-147
-147
-147
-147
-148
-148
-148
-147
-147
-147
-147
-147
-147
-147
-147
-147
-147
-147
-147
-148
-148
-148
-148
-148
-148
-148
-148
-148
-148
-148
-148
-148
-148
-148
-148
-148
-148
-148
-148
-148
-149
-149
-149
-149
-149
-149
-149
-149
-149
-149
-149
-149
-149
-149
-149
-149
-149
-149
-149
-149
-149
-149
-149
-149
-148
-148
-148
-148
-148
-147
-147
-147
-147
-147
-146
-146
-146
-146
-146
-146
-146
-146
-146
-146
-146
-146
-146
-147
-147
-147
-147
-148
-148
-148
-148
-149
-149
-149
-149
-150
-150
-150
-150
-150
-150
-150
-150
-150
-150
-150
-150
-150
-149
-149
-149
-149
-149
-148
-148
-148
-148
-148
-148
-148
-148
-148
-148
-148
-148
-148
-148
-148
-148
-148
-148
-149
-149
-149
-149
-149
-149
-149
-149
-149
-149
-149
-149
-149
-149
-149
-149
-149
-149
-149
-149
-149
-149
-149
-149
-150
-150
-150
-150
-150
-150
-151
-151
-151
-151
-151
-151
-151
-151
-151
-151
-151
-151
-151
-150
-150
-150
-150
-149
-149
-149
-149
-148
-148
-148
-148
-148
-148
-148
-148
-148
-148
-148
-148
-148
-148
-149
-149
-149
-149
-149
-149
-149
-149
-149
-149
-149
-149
-149
-149
-149
-149
-149
-149
-149
-149
-149
-149
-150
-150
-150
-150
-150
-150
-150
-150
-150
-150
-150
-151
-151
-151
-151
-151
-151
-151
-150
-150
-150
-150
-150
-150
-150
-150
-149
-149
-149
-149
-149
-149
-149
-149
-149
-149
-149
-149
-150
-150
-150
-150
-150
-150
-150
-150
-150
-150
-150
-150
-150
-150
-150
-150
-150
-150
-150
-150
-150
-150
-150
-150
-150
-150
-150
-151
-151
-151
-151
-151
-152
-152
-152
-152
-152
-152
-152
-152
-152
-152
-152
-152
-152
-152
-152
-152
-152
-151
-151
-151
-151
-151
-151
-151
-151
-152
-152
-152
-152
-152
-152
-153
-153
-153
-153
-154
-154
-154
-154
-154
-154
-154
-154
-154
-154
-154
-154
-154
-154
-154
-154
-154
-154
-154
-154
-154
-154
-154
-154
-154
-154
-154
-154
-154
-154
-154
-154
-154
-154
-154
-154
-154
-154
-154
-155
-155
-155
-155
-154
-154
-154
-154
-154
-154
-154
-154
-154
-155
-155
-155
-154
-154
-154
-154
-154
-154
-154
-154
-154
-154
-154
-154
-154
-154
-154
-155
-155
-155
-155
-155
-155
-155
-155
-156
-156
-156
-156
-156
-156
-156
-156
-156
-156
-155
-155
-155
-155
-155
-155
-155
-154
-154
-154
-154
-154
-154
-153
-153
-152
-152
-152
-151
-150
-150
-149
-149
-148
-147
-146
-145
-144
-143
-142
-141
-140
-138
-137
-136
-135
-134
-133
-132
-131
-130
-129
-128
-127
-126
-125
-124
-123
-122
-121
-121
-120
-120
-119
-119
-119
-118
-118
-118
-118
-118
-118
-118
-118
-118
-118
-118
-119
-119
-119
-119
-119
-119
-119
-120
-120
-120
-121
-122
-122
-123
-124
-124
-125
-126
-127
-128
-129
-131
-132
-133
-134
-136
-137
-138
-140
-141
-142
-144
-145
-146
-147
-148
-150
-151
-152
-153
-154
-154
-155
-156
-157
-157
-158
-158
-159
-159
-160
-160
-161
-162
-162
-162
-163
-163
-164
-164
-164
-165
-165
-165
-166
-166
-166
-166
-166
-167
-167
-167
-167
-167
-167
-168
-168
-168
-168
-168
-168
-168
-168
-168
-169
-169
-169
-169
-169
-169
-169
-169
-169
-169
-169
-169
-169
-169
-169
-169
-169
-169
-169
-169
-169
-169
-169
-169
-169
-169
-169
-168
-168
-168
-168
-168
-168
-168
-168
-168
-168
-168
-168
-167
-167
-167
-167
-167
-166
-166
-165
-164
-163
-162
-160
-159
-157
-155
-153
-150
-148
-145
-142
-139
-135
-131
-127
-123
-118
-114
-109
-104
-99
-94
-89
-83
-79
-74
-70
-67
-65
-63
-62
-62
-62
-64
-66
-68
-72
-76
-81
-87
-93
-101
-108
-116
-125
-133
-141
-149
-157
-165
-172
-178
-184
-190
-195
-199
-202
-205
-207
-209
-210
-210
-209
-208
-207
-205
-202
-200
-197
-193
-190
-186
-182
-179
-175
-172
-169
-166
-163
-161
-159
-157
-155
-154
-153
-152
-151
-151
-151
-151
-151
-151
-151
-151
-151
-152
-152
-153
-153
-154
-154
-155
-155
-155
-156
-156
-156
-156
-156
-156
-156
-156
-156
-156
-156
-156
-156
-156
-156
-155
-155
-155
-155
-155
-155
-155
-155
-155
-155
-155
-155
-155
-155
-155
-155
-155
-154
-154
-154
-154
-154
-153
-153
-153
-153
-153
-152
-152
-152
-152
-152
-152
-151
-151
-151
-151
-151
-151
-151
-151
-151
-151
-151
-151
-151
-151
-151
-151
-151
-151
-151
-151
-151
-150
-150
-150
-150
-150
-150
-150
-150
-150
-149
-149
-149
-149
-149
-149
-149
-149
-149
-149
-149
-149
-149
-149
-149
-149
-149
-149
-149
-149
-148
-148
-148
-148
-147
-147
-147
-147
-146
-146
-146
-146
-145
-145
-145
-145
-145
-144
-144
-144
-144
-144
-144
-144
-144
-144
-144
-144
-144
-144
-144
-144
-144
-144
-144
-144
-145
-145
-145
-145
-145
-145
-145
-145
-145
-145
-145
-145
-145
-145
-145
-145
-145
-145
-144
-144
-144
-144
-144
-144
-143
-143
-143
-143
-143
-143
-143
-143
-143
-143
-143
-143
-143
-143
-143
-143
-143
-143
-143
-143
-143
-143
-143
-143
-143
-143
-143
-143
-142
-142
-142
-142
-141
-141
-141
-140
-140
-140
-140
-140
-139
-139
-139
-139
-139
-139
-139
-139
-139
-139
-139
-139
-139
-138
-138
-138
-138
-138
-138
-138
-137
-137
-137
-137
-137
-137
-136
-136
-136
-136
-136
-135
-135
-135
-135
-135
-135
-134
-134
-134
-134
-134
-133
-133
-133
-133
-132
-132
-132
-132
-131
-131
-131
-131
-130
-130
-130
-129
-129
-129
-129
-129
-129
-128
-128
-128
-128
-128
-128
-127
-127
-127
-126
-126
-126
-126
-126
-125
-125
-125
-125
-124
-124
-124
-123
-123
-123
-122
-122
-122
-121
-121
-121
-121
-120
-120
-120
-120
-120
-120
-120
-120
-119
-119
-119
-119
-119
-119
-118
-118
-118
-118
-118
-118
-118
-118
-118
-117
-117
-117
-117
-117
-117
-117
-117
-117
-117
-117
-117
-117
-117
-117
-117
-117
-117
-117
-117
-117
-118
-118
-118
-118
-119
-119
-120
-120
-121
-121
-122
-122
-123
-124
-124
-125
-126
-127
-128
-128
-129
-130
-130
-131
-132
-132
-133
-134
-134
-135
-136
-136
-137
-138
-138
-139
-140
-140
-141
-142
-142
-143
-144
-145
-145
-146
-147
-148
-148
-149
-150
-151
-152
-152
-153
-153
-154
-155
-155
-156
-157
-157
-158
-158
-159
-159
-159
-160
-160
-161
-161
-162
-162
-163
-163
-163
-164
-164
-164
-165
-165
-166
-166
-166
-167
-167
-167
-168
-168
-168
-169
-169
-169
-169
-170
-170
-170
-170
-171
-171
-171
-171
-172
-172
-172
-172
-173
-173
-173
-173
-173
-173
-173
-173
-173
-173
-173
-173
-173
-173
-173
-173
-173
-173
-173
-173
-173
-173
-173
-173
-173
-173
-173
-173
-173
-173
-173
-173
-173
-173
-172
-172
-172
-172
-172
-172
-172
-172
-172
-172
-172
-172
-172
-172
-172
-172
-172
-172
-172
-172
-172
-172
-172
-172
-172
-172
-172
-172
-171
-171
-171
-171
-171
-171
-171
-171
-171
-171
-171
-171
-171
-171
-171
-171
-171
-171
-171
-171
-171
-171
-171
-171
-171
-171
-171
-171
-171
-171
-171
-171
-171
-171
-171
-171
-171
-171
-171
-171
-171
-171
-172
-172
-172
-172
-172
-172
-172
-172
-172
-172
-172
-172
-172
-172
-172
-172
-172
-172
-172
-172
-172
-172
-172
-172
-172
-172
-173
-173
-173
-173
-173
-173
-173
-174
-174
-174
-174
-174
-174
-175
-175
-175
-175
-175
-175
-175
-175
-175
-175
-175
-175
-175
-175
-175
-175
-175
-175
-175
-175
-175
-176
-176
-176
-176
-176
-176
-176
-176
-176
-176
-176
-176
-175
-175
-175
-175
-175
-175
-175
-175
-175
-175
-175
-175
-175
-175
-175
-175
-175
-175
-175
-175
-175
-175
-175
-175
-176
-176
-176
-176
-176
-175
-175
-175
-175
-175
-175
-175
-175
-175
-175
-175
-175
-175
-175
-176
-176
-176
-176
-177
-177
-177
-177
-177
-177
-177
-178
-178
-178
-178
-178
-178
-178
-178
-178
-178
-177
-177
-177
-177
-177
-177
-177
-177
-177
-178
-178
-178
-178
-178
-178
-178
-178
-179
-179
-179
-179
-179
-180
-180
-180
-180
-180
-180
-180
-181
-181
-181
-181
-181
-181
-181
-181
-181
-181
-180
-180
-180
-180
-180
-180
-180
-179
-179
-179
-179
-179
-179
-178
-178
-178
-178
-178
-178
-178
-178
-178
-178
-178
-179
-179
-179
-179
-179
-179
-179
-179
-179
-180
-180
-180
-180
-180
-180
-180
-180
-180
-180
-181
-181
-180
-180
-180
-181
-181
-181
-181
-181
-181
-181
-181
-181
-181
-181
-182
-182
-182
-182
-182
-182
-183
-183
-183
-183
-183
-183
-183
-183
-183
-183
-183
-183
-183
-183
-183
-183
-183
-183
-183
-183
-183
-183
-183
-183
-183
-183
-183
-183
-183
-183
-183
-183
-183
-183
-183
-183
-183
-183
-183
-183
-183
-183
-183
-183
-183
-183
-183
-182
-182
-182
-182
-182
-182
-182
-182
-182
-182
-182
-182
-182
-182
-182
-182
-182
-182
-182
-182
-182
-182
-182
-182
-182
-182
-183
-183
-183
-183
-183
-183
-183
-183
-183
-183
-183
-183
-183
-183
-183
-183
-183
-183
-183
-183
-183
-183
-183
-183
-183
-183
-183
-183
-183
-183
-183
-183
-183
-183
-183
-183
-183
-183
-183
-183
-183
-184
-184
-184
-184
-184
-184
-184
-184
-184
-184
-184
-184
-184
-184
-184
-184
-184
-184
-185
-185
-185
-185
-185
-184
-184
-184
-184
-184
-184
-184
-183
-183
-183
-183
-182
-182
-182
-182
-182
-182
-182
-182
-182
-182
-182
-182
-182
-182
-182
-183
-183
-183
-183
-184
-184
-184
-184
-184
-185
-185
-185
-185
-185
-185
-185
-185
-185
-185
-185
-185
-185
-184
-184
-184
-184
-184
-184
-184
-184
-184
-184
-184
-184
-184
-184
-184
-184
-184
-184
-184
-184
-184
-184
-184
-184
-184
-184
-184
-184
-184
-184
-184
-184
-183
-183
-183
-183
-183
-183
-183
-183
-183
-183
-183
-183
-183
-184
-184
-184
-184
-184
-184
-184
-185
-185
-185
-185
-185
-185
-185
-185
-185
-185
-185
-185
-185
-185
-185
-185
-185
-185
-185
-185
-185
-185
-185
-185
-185
-185
-185
-185
-185
-185
-185
-185
-185
-185
-185
-185
-185
-185
-185
-185
-185
-185
-185
-185
-185
-185
-185
-185
-185
-185
-185
-184
-184
-184
-184
-184
-184
-184
-184
-184
-184
-184
-184
-184
-184
-184
-184
-184
-184
-184
-184
-184
-184
-184
-184
-184
-183
-183
-183
-183
-183
-183
-183
-183
-183
-183
-184
-184
-184
-184
-184
-185
-185
-185
-185
-185
-186
-186
-186
-186
-187
-187
-187
-187
-187
-187
-187
-187
-187
-187
-187
-187
-187
-187
-187
-186
-186
-186
-186
-186
-185
-185
-185
-185
-185
-184
-184
-184
-184
-184
-184
-184
-184
-184
-184
-184
-184
-184
-184
-184
-184
-184
-185
-185
-185
-185
-185
-185
-185
-184
-184
-185
-185
-184
-184
-184
-184
-184
-184
-184
-184
-184
-184
-184
-183
-183
-183
-183
-183
-183
-183
-183
-183
-183
-183
-183
-183
-183
-183
-183
-183
-183
-183
-184
-184
-184
-184
-184
-183
-183
-183
-183
-183
-183
-183
-183
-183
-183
-183
-183
-183
-183
-182
-182
-182
-182
-182
-182
-182
-183
-183
-183
-183
-183
-183
-183
-183
-183
-183
-183
-183
-183
-183
-183
-183
-183
-183
-183
-183
-183
-183
-183
-183
-183
-183
-183
-183
-183
-183
-183
-183
-182
-182
-182
-182
-182
-182
-182
-182
-182
-182
-182
-182
-182
-182
-182
-182
-182
-182
-182
-182
-183
-183
-183
-183
-183
-183
-183
-183
-183
-183
-183
-184
-184
-184
-184
-184
-184
-184
-184
-184
-185
-185
-185
-184
-184
-184
-184
-184
-184
-184
-184
-184
-184
-184
-183
-183
-183
-183
-183
-183
-183
-183
-183
-183
-183
-183
-183
-183
-183
-184
-184
-184
-184
-184
-184
-184
-184
-184
-184
-184
-184
-184
-184
-184
-184
-184
-184
-184
-184
-184
-184
-183
-183
-183
-183
-182
-182
-181
-181
-180
-179
-178
-177
-176
-175
-174
-173
-172
-171
-170
-168
-167
-166
-165
-163
-162
-161
-160
-159
-159
-158
-157
-156
-155
-154
-153
-153
-152
-151
-150
-150
-149
-149
-149
-148
-148
-148
-148
-148
-148
-148
-148
-148
-148
-149
-149
-149
-149
-150
-150
-150
-150
-150
-151
-151
-151
-151
-151
-151
-151
-152
-152
-152
-153
-153
-154
-154
-155
-156
-157
-158
-159
-160
-161
-162
-164
-165
-166
-167
-169
-170
-171
-172
-173
-174
-175
-176
-177
-178
-179
-180
-180
-181
-182
-182
-183
-184
-184
-185
-185
-186
-186
-186
-187
-187
-188
-188
-188
-189
-189
-190
-190
-190
-190
-191
-191
-191
-191
-192
-192
-192
-192
-192
-192
-193
-193
-193
-193
-193
-193
-193
-193
-193
-193
-193
-193
-193
-194
-194
-194
-194
-194
-194
-194
-194
-193
-193
-193
-193
-193
-193
-194
-194
-194
-193
-193
-193
-193
-193
-193
-192
-192
-192
-192
-192
-191
-191
-191
-190
-190
-189
-189
-189
-188
-188
-188
-187
-187
-186
-185
-185
-184
-182
-181
-179
-177
-175
-173
-170
-167
-164
-161
-157
-153
-149
-144
-140
-134
-129
-124
-118
-112
-106
-100
-95
-89
-84
-80
-76
-73
-71
-69
-69
-69
-70
-72
-74
-78
-82
-88
-94
-101
-109
-117
-126
-135
-145
-154
-163
-172
-180
-188
-196
-203
-209
-215
-220
-225
-228
-231
-232
-233
-234
-233
-232
-231
-229
-226
-223
-219
-216
-212
-208
-204
-200
-197
-193
-190
-186
-184
-181
-179
-177
-175
-174
-173
-173
-172
-172
-172
-172
-172
-172
-172
-172
-172
-173
-173
-173
-173
-173
-174
-174
-174
-174
-174
-174
-174
-174
-174
-174
-174
-174
-174
-175
-175
-175
-175
-174
-174
-174
-174
-174
-174
-174
-174
-173
-173
-173
-172
-172
-172
-172
-172
-171
-171
-171
-171
-171
-171
-170
-170
-170
-170
-170
-170
-170
-170
-170
-170
-169
-169
-169
-169
-169
-169
-169
-169
-169
-169
-169
-169
-168
-168
-168
-168
-168
-168
-168
-168
-168
-167
-167
-167
-167
-167
-166
-166
-166
-165
-165
-165
-165
-165
-165
-165
-165
-165
-165
-165
-165
-165
-165
-165
-165
-165
-166
-166
-166
-166
-166
-166
-166
-166
-166
-166
-165
-165
-165
-165
-165
-165
-165
-164
-164
-164
-164
-164
-164
-164
-163
-163
-163
-163
-163
-163
-163
-163
-163
-163
-163
-163
-163
-163
-162
-162
-162
-162
-162
-162
-162
-161
-161
-161
-161
-161
-160
-160
-160
-160
-160
-160
-160
-160
-160
-160
-160
-160
-160
-160
-160
-161
-161
-161
-161
-161
-161
-161
-161
-161
-160
-160
-160
-160
-159
-159
-159
-159
-158
-158
-158
-158
-157
-157
-156
-156
-156
-156
-156
-155
-155
-155
-155
-155
-155
-155
-155
-155
-155
-155
-155
-155
-155
-155
-155
-155
-155
-155
-155
-155
-155
-154
-154
-154
-154
-154
-153
-153
-153
-153
-153
-152
-152
-152
-151
-151
-151
-150
-150
-150
-150
-149
-149
-149
-149
-148
-148
-148
-148
-147
-147
-147
-146
-146
-146
-146
-145
-145
-145
-144
-144
-144
-144
-143
-143
-143
-143
-143
-143
-143
-142
-142
-142
-142
-142
-142
-142
-142
-142
-142
-142
-142
-141
-141
-141
-141
-140
-140
-140
-139
-139
-139
-139
-138
-138
-138
-138
-137
-137
-137
-137
-137
-137
-137
-137
-137
-137
-137
-137
-136
-136
-136
-136
-136
-136
-135
-135
-135
-134
-134
-134
-133
-133
-133
-133
-133
-132
-132
-132
-132
-132
-133
-133
-133
-133
-133
-133
-133
-133
-133
-133
-133
-133
-133
-133
-133
-133
-133
-133
-133
-133
-134
-134
-134
-135
-135
-136
-136
-137
-137
-138
-139
-139
-140
-141
-141
-142
-142
-143
-143
-144
-144
-145
-145
-145
-146
-146
-146
-147
-147
-148
-148
-149
-149
-150
-151
-151
-152
-153
-154
-155
-155
-156
-157
-158
-159
-160
-161
-161
-162
-163
-163
-164
-165
-166
-166
-167
-168
-168
-169
-169
-170
-171
-171
-172
-172
-173
-173
-173
-174
-174
-175
-175
-176
-176
-177
-177
-177
-177
-178
-178
-178
-179
-179
-179
-180
-180
-180
-181
-181
-181
-181
-182
-182
-182
-183
-183
-183
-183
-183
-183
-183
-184
-184
-184
-184
-184
-184
-184
-184
-184
-184
-184
-184
-184
-184
-184
-185
-185
-185
-185
-185
-185
-186
-186
-186
-186
-186
-187
-187
-187
-187
-187
-187
-187
-187
-187
-187
-187
-188
-188
-187
-187
-187
-187
-187
-187
-187
-187
-187
-187
-187
-187
-187
-186
-186
-186
-186
-185
-185
-185
-184
-184
-184
-184
-183
-183
-183
-183
-183
-182
-182
-182
-182
-182
-182
-182
-182
-183
-183
-183
-183
-183
-183
-183
-183
-183
-183
-183
-183
-183
-183
-183
-183
-183
-183
-183
-183
-184
-184
-184
-184
-184
-183
-183
-183
-183
-183
-183
-183
-182
-182
-182
-182
-182
-182
-182
-182
-181
-181
-181
-181
-181
-182
-182
-182
-182
-182
-182
-182
-183
-183
-183
-183
-183
-183
-183
-183
-183
-183
-183
-182
-182
-182
-182
-182
-181
-181
-181
-181
-181
-180
-180
-180
-181
-181
-181
-181
-181
-182
-182
-182
-182
-183
-183
-183
-184
-184
-184
-184
-185
-185
-185
-185
-185
-185
-185
-185
-185
-185
-185
-185
-185
-185
-185
-185
-185
-185
-185
-185
-185
-185
-185
-185
-185
-185
-185
-185
-185
-185
-184
-184
-184
-184
-184
-184
-184
-184
-184
-184
-184
-184
-185
-185
-185
-185
-185
-185
-185
-186
-186
-186
-186
-186
-186
-186
-186
-186
-187
-187
-187
-187
-187
-187
-187
-187
-187
-187
-187
-187
-187
-187
-186
-186
-186
-186
-185
-185
-185
-185
-185
-185
-184
-184
-184
-185
-185
-185
-185
-185
-185
-185
-185
-186
-186
-186
-186
-187
-187
-187
-187
-187
-187
-187
-188
-188
-188
-188
-188
-188
-188
-188
-188
-188
-188
-188
-188
-188
-187
-187
-187
-187
-187
-187
-187
-187
-187
-186
-186
-186
-186
-186
-186
-186
-186
-186
-186
-186
-186
-186
-186
-186
-186
-186
-186
-186
-187
-187
-187
-187
-187
-186
-186
-186
-186
-186
-186
-186
-185
-185
-185
-185
-185
-185
-185
-185
-185
-185
-185
-185
-185
-185
-185
-185
-185
-185
-185
-185
-185
-185
-185
-185
-185
-185
-185
-185
-185
-184
-184
-184
-184
-184
-184
-184
-184
-184
-184
-184
-184
-184
-184
-184
-184
-184
-184
-184
-184
-184
-184
-184
-185
-185
-185
-185
-184
-184
-184
-184
-184
-184
-184
-184
-184
-183
-183
-183
-183
-183
-183
-183
-183
-183
-183
-184
-184
-184
-184
-184
-184
-184
-184
-184
-184
-184
-184
-184
-184
-184
-184
-184
-184
-184
-183
-183
-183
-183
-183
-183
-183
-183
-183
-183
-183
-183
-183
-183
-183
-183
-183
-183
-183
-183
-183
-183
-183
-183
-183
-182
-182
-182
-182
-182
-182
-182
-182
-182
-182
-182
-182
-182
-182
-183
-183
-183
-183
-183
-183
-184
-184
-184
-184
-184
-184
-184
-184
-184
-184
-184
-184
-184
-184
-184
-184
-184
-184
-184
-184
-184
-184
-184
-184
-185
-185
-185
-185
-185
-185
-185
-185
-185
-185
-185
-185
-185
-185
-185
-185
-185
-185
-184
-184
-184
-184
-184
-184
-184
-184
-184
-184
-184
-184
-184
-184
-184
-184
-184
-184
-184
-184
-184
-184
-184
-184
-184
-184
-184
-184
-184
-184
-184
-184
-184
-184
-184
-184
-184
-184
-184
-184
-184
-184
-184
-184
-184
-184
-184
-184
-184
-184
-184
-184
-184
-184
-184
-184
-184
-184
-184
-184
-184
-184
-185
-185
-185
-185
-185
-185
-185
-185
-185
-185
-185
-185
-185
-185
-185
-185
-185
-185
-185
-185
-184
-184
-184
-184
-184
-184
-184
-184
-183
-183
-183
-183
-183
-183
-183
-183
-183
-183
-183
-183
-183
-183
-183
-183
-183
-183
-183
-184
-184
-184
-184
-184
-184
-184
-184
-184
-184
-183
-183
-183
-183
-183
-183
-183
-182
-182
-182
-182
-182
-182
-182
-182
-182
-182
-182
-182
-182
-182
-182
-183
-183
-183
-183
-183
-183
-183
-183
-183
-183
-183
-183
-182
-182
-182
-182
-182
-182
-182
-182
-182
-182
-182
-182
-182
-182
-182
-182
-182
-182
-182
-182
-182
-182
-182
-182
-182
-182
-182
-182
-182
-182
-182
-182
-181
-181
-181
-181
-181
-181
-181
-181
-181
-181
-181
-181
-181
-181
-181
-181
-181
-181
-181
-181
-181
-181
-181
-181
-181
-181
-181
-181
-180
-180
-180
-180
-180
-180
-180
-180
-181
-181
-181
-181
-181
-181
-181
-181
-181
-181
-181
-181
-181
-181
-181
-181
-181
-181
-181
-181
-181
-181
-181
-181
-181
-181
-181
-181
-181
-181
-181
-181
-181
-181
-181
-181
-181
-182
-182
-182
-182
-182
-182
-181
-181
-181
-181
-181
-181
-181
-180
-180
-180
-180
-180
-180
-179
-179
-179
-179
-179
-179
-179
-179
-179
-179
-179
-179
-179
-179
-179
-179
-179
-179
-179
-179
-178
-178
-177
-177
-176
-176
-175
-174
-174
-173
-172
-171
-170
-169
-168
-167
-166
-165
-164
-163
-162
-161
-160
-159
-158
-157
-157
-156
-155
-154
-153
-152
-151
-150
-149
-148
-147
-147
-146
-145
-145
-144
-144
-143
-143
-143
-143
-142
-142
-142
-142
-142
-142
-142
-142
-143
-143
-143
-143
-143
-143
-143
-143
-144
-144
-145
-145
-146
-146
-147
-148
-149
-150
-151
-152
-154
-155
-156
-158
-159
-160
-162
-163
-165
-166
-167
-168
-170
-171
-172
-173
-173
-174
-175
-176
-176
-177
-177
-178
-178
-179
-179
-180
-180
-180
-181
-181
-181
-182
-182
-182
-183
-183
-183
-184
-184
-184
-185
-185
-185
-185
-185
-186
-186
-186
-186
-186
-186
-186
-186
-186
-186
-186
-186
-186
-186
-187
-187
-187
-186
-186
-186
-186
-186
-186
-186
-186
-186
-186
-186
-186
-186
-185
-185
-185
-185
-185
-185
-185
-185
-185
-185
-184
-184
-184
-184
-184
-184
-183
-183
-183
-183
-183
-182
-182
-182
-181
-181
-180
-180
-180
-179
-179
-179
-178
-178
-177
-176
-175
-174
-172
-171
-169
-167
-166
-163
-161
-158
-155
-152
-148
-144
-139
-135
-130
-125
-120
-115
-109
-104
-99
-94
-90
-87
-84
-82
-81
-80
-80
-81
-83
-85
-88
-92
-97
-103
-110
-117
-124
-132
-140
-148
-156
-164
-171
-179
-185
-192
-198
-203
-208
-212
-215
-218
-220
-221
-222
-222
-222
-221
-220
-218
-215
-213
-209
-206
-203
-199
-195
-192
-188
-185
-182
-179
-176
-174
-172
-170
-169
-168
-167
-167
-166
-166
-166
-166
-166
-167
-167
-167
-168
-168
-168
-168
-169
-169
-169
-169
-169
-169
-169
-168
-168
-168
-168
-168
-167
-167
-167
-167
-166
-166
-166
-166
-166
-166
-166
-166
-166
-167
-167
-167
-167
-167
-167
-167
-167
-167
-167
-167
-167
-167
-167
-167
-167
-167
-167
-166
-166
-166
-166
-165
-165
-165
-165
-164
-164
-164
-163
-163
-163
-163
-162
-162
-162
-162
-162
-162
-162
-161
-161
-161
-161
-161
-161
-161
-161
-161
-161
-161
-160
-160
-160
-160
-160
-160
-160
-159
-159
-159
-159
-158
-158
-158
-158
-158
-158
-158
-158
-158
-158
-158
-158
-158
-158
-158
-158
-158
-158
-158
-159
-159
-159
-159
-159
-159
-159
-159
-158
-158
-158
-158
-158
-157
-157
-157
-157
-156
-156
-156
-156
-156
-156
-155
-155
-155
-155
-155
-155
-155
-155
-155
-155
-155
-155
-155
-155
-155
-155
-155
-155
-155
-155
-154
-154
-154
-154
-154
-154
-154
-154
-153
-153
-153
-153
-153
-152
-152
-152
-152
-152
-152
-152
-151
-151
-151
-151
-151
-151
-151
-151
-151
-151
-151
-151
-151
-151
-151
-151
-151
-151
-151
-151
-151
-151
-150
-150
-150
-149
-149
-149
-149
-148
-148
-148
-148
-147
-147
-147
-147
-147
-147
-147
-147
-147
-147
-147
-147
-147
-147
-147
-147
-147
-147
-147
-147
-147
-147
-147
-147
-147
-147
-147
-147
-146
-146
-146
-145
-145
-145
-145
-144
-144
-144
-143
-143
-142
-142
-142
-141
-141
-141
-141
-140
-140
-140
-140
-140
-139
-139
-139
-139
-139
-138
-138
-138
-138
-137
-137
-137
-137
-136
-136
-136
-135
-135
-134
-134
-134
-134
-133
-133
-133
-133
-133
-132
-132
-132
-132
-132
-132
-132
-132
-132
-132
-132
-132
-131
-131
-131
-131
-131
-130
-130
-130
-129
-129
-129
-128
-128
-128
-128
-127
-127
-127
-127
-127
-126
-126
-126
-126
-126
-126
-126
-125
-125
-125
-125
-125
-125
-125
-125
-125
-125
-124
-124
-124
-124
-124
-124
-124
-124
-124
-124
-124
-124
-124
-124
-125
-125
-125
-126
-126
-127
-127
-127
-128
-128
-129
-130
-130
-131
-132
-133
-133
-134
-135
-135
-136
-136
-137
-138
-138
-139
-139
-140
-141
-141
-142
-142
-143
-143
-144
-145
-145
-146
-147
-147
-148
-149
-150
-150
-151
-152
-152
-153
-154
-155
-155
-156
-156
-157
-158
-158
-159
-159
-160
-161
-161
-162
-162
-162
-163
-163
-164
-164
-165
-166
-166
-167
-167
-168
-168
-169
-169
-170
-170
-170
-171
-171
-172
-172
-172
-173
-173
-173
-173
-173
-173
-174
-174
-174
-174
-174
-174
-174
-174
-174
-175
-175
-175
-175
-175
-175
-175
-175
-175
-175
-175
-175
-175
-175
-175
-175
-175
-175
-175
-175
-175
-175
-175
-175
-174
-174
-174
-174
-174
-174
-174
-174
-174
-174
-174
-174
-174
-174
-174
-174
-174
-174
-174
-174
-174
-174
-174
-174
-174
-174
-174
-174
-174
-173
-173
-173
-173
-173
-173
-172
-172
-172
-172
-172
-172
-172
-172
-172
-172
-172
-172
-172
-172
-172
-172
-172
-172
-172
-172
-172
-172
-172
-172
-172
-172
-172
-172
-172
-172
-172
-172
-172
-172
-172
-172
-172
-172
-172
-171
-171
-171
-171
-171
-171
-171
-171
-171
-171
-171
-171
-171
-171
-171
-171
-171
-171
-171
-171
-171
-171
-171
-171
-171
-171
-171
-171
-171
-171
-171
-171
-171
-171
-171
-171
-171
-171
-171
-171
-171
-171
-171
-171
-171
-171
-171
-172
-172
-172
-172
-172
-172
-172
-172
-172
-172
-172
-172
-172
-172
-172
-172
-172
-172
-172
-172
-172
-172
-172
-172
-172
-172
-172
-172
-172
-172
-172
-172
-171
-171
-171
-171
-171
-171
-171
-171
-171
-171
-171
-171
-171
-171
-171
-171
-171
-171
-171
-171
-172
-172
-172
-172
-173
-173
-173
-173
-174
-174
-174
-174
-175
-175
-175
-175
-175
-175
-175
-175
-175
-175
-175
-175
-175
-175
-175
-175
-175
-175
-175
-175
-175
-174
-174
-174
-174
-174
-174
-174
-174
-174
-174
-174
-174
-174
-174
-174
-174
-174
-174
-174
-175
-175
-175
-175
-175
-175
-175
-176
-176
-176
-176
-176
-176
-176
-176
-177
-177
-177
-177
-177
-177
-177
-177
-177
-177
-177
-177
-177
-176
-176
-176
-176
-176
-176
-176
-176
-176
-176
-176
-176
-176
-176
-176
-176
-176
-176
-176
-176
-176
-176
-176
-176
-176
-176
-176
-176
-176
-176
-176
-176
-176
-176
-176
-176
-176
-177
-177
-177
-177
-177
-177
-177
-177
-177
-177
-177
-177
-177
-177
-177
-177
-176
-176
-176
-176
-176
-176
-176
-176
-176
-176
-176
-176
-176
-176
-176
-176
-176
-176
-177
-177
-177
-177
-176
-176
-176
-176
-176
-176
-176
-176
-176
-176
-176
-176
-176
-176
-176
-177
-177
-177
-177
-177
-177
-177
-177
-177
-177
-177
-177
-177
-177
-177
-177
-177
-176
-176
-176
-176
-176
-175
-175
-175
-175
-175
-175
-175
-174
-174
-175
-175
-175
-175
-175
-175
-175
-175
-175
-175
-176
-176
-176
-176
-176
-176
-176
-177
-177
-177
-177
-177
-177
-177
-177
-177
-177
-177
-177
-177
-177
-177
-177
-177
-177
-177
-177
-177
-177
-177
-177
-178
-178
-178
-178
-178
-178
-178
-178
-179
-179
-179
-179
-179
-179
-179
-179
-179
-179
-179
-179
-178
-178
-178
-178
-177
-177
-177
-177
-177
-177
-176
-176
-176
-176
-176
-176
-176
-176
-176
-176
-176
-176
-176
-176
-176
-176
-176
-176
-176
-176
-176
-176
-176
-176
-176
-176
-176
-176
-176
-176
-176
-176
-176
-176
-176
-175
-175
-175
-175
-175
-175
-175
-175
-175
-175
-175
-175
-175
-175
-175
-175
-175
-175
-175
-175
-175
-175
-175
-175
-175
-175
-175
-175
-175
-175
-175
-176
-176
-176
-176
-176
-176
-176
-176
-176
-176
-176
-176
-176
-176
-176
-176
-175
-175
-175
-175
-175
-175
-175
-175
-175
-175
-175
-175
-175
-175
-175
-175
-176
-176
-176
-176
-176
-176
-176
-176
-176
-176
-176
-176
-176
-176
-176
-176
-176
-176
-176
-177
-177
-177
-177
-177
-177
-177
-177
-177
-177
-178
-178
-178
-178
-178
-179
-179
-179
-179
-179
-179
-179
-179
-179
-179
-179
-179
-179
-179
-179
-179
-179
-179
-179
-179
-179
-179
-179
-178
-178
-178
-178
-178
-178
-178
-178
-178
-178
-178
-178
-178
-178
-178
-178
-178
-178
-178
-178
-178
-178
-178
-178
-178
-178
-177
-177
-177
-177
-177
-177
-177
-177
-178
-178
-178
-178
-178
-178
-178
-178
-178
-178
-178
-178
-178
-178
-178
-178
-178
-178
-178
-177
-177
-177
-177
-176
-176
-176
-176
-176
-176
-176
-175
-175
-175
-175
-175
-175
-175
-175
-175
-175
-175
-175
-175
-175
-175
-175
-175
-176
-176
-176
-176
-176
-176
-176
-176
-176
-176
-176
-176
-176
-176
-175
-175
-175
-175
-175
-175
-175
-175
-175
-174
-174
-174
-174
-174
-174
-174
-174
-174
-174
-174
-175
-175
-175
-175
-175
-175
-175
-175
-175
-175
-175
-175
-175
-175
-175
-175
-175
-175
-175
-175
-175
-175
-175
-175
-175
-175
-175
-174
-174
-174
-174
-174
-174
-174
-174
-173
-173
-173
-173
-173
-173
-173
-172
-172
-172
-172
-172
-172
-172
-172
-171
-171
-171
-171
-171
-171
-171
-171
-170
-170
-170
-169
-169
-168
-168
-167
-166
-166
-165
-164
-163
-162
-161
-159
-158
-157
-156
-155
-154
-153
-151
-150
-149
-148
-147
-146
-145
-145
-144
-143
-142
-141
-140
-140
-139
-139
-138
-138
-138
-137
-137
-137
-137
-136
-136
-136
-136
-136
-136
-136
-136
-137
-137
-137
-137
-137
-137
-137
-138
-138
-138
-138
-139
-140
-140
-141
-142
-143
-144
-145
-146
-147
-148
-149
-150
-151
-153
-154
-155
-156
-157
-158
-159
-160
-161
-162
-163
-164
-165
-166
-167
-167
-168
-169
-169
-170
-171
-171
-172
-172
-173
-173
-174
-175
-175
-176
-176
-177
-177
-177
-178
-178
-178
-179
-179
-179
-179
-180
-180
-180
-180
-180
-180
-180
-180
-180
-180
-180
-180
-180
-180
-180
-180
-180
-180
-180
-180
-180
-180
-180
-180
-180
-180
-180
-180
-180
-180
-180
-180
-180
-180
-180
-180
-180
-180
-180
-180
-180
-180
-180
-180
-180
-180
-180
-179
-179
-179
-179
-179
-178
-178
-178
-177
-177
-176
-176
-176
-175
