# Simple Text Format
# Sampling Rate (Hz):= 1200.00
# Resolution:= 12
# Labels:= ECG	 V4
# Age:=	14
# Gender:=	Masculino
-94
-94
-94
-94
-94
-94
-94
-94
-94
-94
-94
-94
-94
-94
-94
-94
-94
-94
-94
-94
-93
-94
-94
-94
-94
-93
-93
-93
-94
-94
-94
-94
-94
-94
-94
-94
-94
-94
-94
-94
-94
-94
-94
-94
-94
-94
-94
-94
-94
-94
-94
-94
-94
-94
-94
-94
-93
-93
-94
-94
-94
-94
-94
-94
-94
-94
-93
-93
-93
-93
-93
-93
-93
-93
-93
-93
-93
-93
-93
-93
-93
-93
-93
-93
-93
-93
-94
-94
-94
-94
-94
-94
-94
-94
-94
-93
-93
-93
-93
-93
-94
-94
-94
-94
-94
-94
-93
-93
-93
-93
-93
-93
-93
-93
-93
-94
-94
-94
-94
-94
-94
-94
-94
-93
-93
-93
-93
-93
-93
-93
-93
-93
-93
-93
-93
-93
-93
-93
-93
-93
-92
-92
-92
-92
-92
-92
-92
-92
-92
-92
-91
-91
-91
-91
-91
-91
-91
-91
-91
-91
-91
-91
-91
-91
-91
-91
-91
-91
-91
-91
-91
-91
-91
-91
-91
-91
-91
-91
-91
-91
-91
-91
-91
-91
-91
-91
-91
-91
-91
-91
-91
-91
-91
-91
-92
-92
-92
-92
-91
-91
-91
-91
-91
-91
-92
-92
-92
-92
-92
-92
-92
-93
-93
-93
-93
-93
-93
-93
-93
-93
-93
-93
-93
-93
-93
-94
-94
-94
-94
-95
-95
-95
-95
-95
-95
-95
-95
-95
-95
-95
-96
-96
-96
-95
-95
-95
-95
-95
-95
-95
-95
-95
-95
-95
-95
-95
-94
-94
-94
-94
-94
-94
-94
-94
-94
-94
-95
-95
-95
-95
-95
-95
-95
-95
-95
-95
-95
-95
-96
-96
-96
-96
-95
-95
-95
-95
-95
-95
-96
-96
-96
-96
-96
-96
-96
-96
-95
-95
-95
-95
-95
-95
-95
-95
-95
-96
-96
-95
-95
-95
-95
-95
-94
-95
-95
-95
-95
-95
-95
-95
-94
-94
-94
-94
-94
-94
-94
-94
-94
-94
-94
-94
-94
-94
-94
-94
-94
-94
-94
-94
-94
-95
-95
-95
-95
-95
-96
-96
-96
-96
-96
-96
-95
-95
-95
-95
-95
-95
-95
-95
-95
-95
-95
-95
-95
-95
-95
-95
-95
-95
-95
-95
-95
-95
-95
-95
-95
-95
-95
-96
-96
-96
-96
-96
-96
-96
-96
-96
-95
-95
-95
-95
-95
-96
-96
-96
-96
-96
-96
-96
-96
-96
-96
-96
-96
-96
-96
-96
-96
-96
-96
-96
-97
-97
-97
-97
-96
-96
-96
-96
-96
-96
-96
-95
-95
-95
-95
-96
-96
-95
-95
-95
-95
-95
-95
-95
-95
-95
-95
-95
-95
-95
-95
-95
-95
-96
-96
-96
-95
-95
-95
-95
-95
-95
-95
-95
-95
-95
-94
-94
-94
-94
-94
-94
-94
-93
-93
-93
-93
-94
-94
-94
-93
-93
-93
-93
-93
-93
-93
-93
-93
-93
-93
-93
-93
-94
-94
-93
-93
-93
-93
-93
-93
-93
-93
-93
-93
-93
-93
-93
-93
-93
-93
-93
-93
-93
-93
-93
-93
-93
-93
-94
-94
-94
-94
-94
-94
-94
-94
-94
-94
-94
-94
-94
-94
-94
-94
-93
-93
-93
-93
-93
-93
-93
-93
-94
-93
-93
-93
-93
-93
-93
-93
-93
-93
-93
-93
-93
-93
-93
-93
-93
-93
-93
-93
-94
-94
-94
-94
-94
-94
-94
-94
-94
-94
-94
-94
-94
-94
-94
-94
-94
-94
-94
-93
-93
-93
-93
-92
-92
-92
-92
-92
-91
-91
-91
-90
-90
-90
-89
-89
-88
-88
-87
-87
-87
-86
-86
-86
-85
-85
-84
-84
-84
-83
-83
-82
-82
-81
-81
-80
-80
-79
-78
-77
-77
-76
-76
-76
-75
-75
-75
-74
-75
-75
-75
-75
-75
-75
-75
-75
-75
-75
-75
-76
-76
-76
-76
-75
-75
-75
-75
-74
-73
-74
-73
-72
-72
-72
-71
-71
-71
-71
-71
-71
-71
-72
-71
-72
-73
-73
-73
-74
-74
-75
-76
-76
-77
-77
-78
-79
-80
-80
-80
-81
-82
-82
-82
-83
-84
-84
-84
-86
-86
-86
-87
-88
-88
-89
-89
-90
-90
-91
-92
-92
-92
-93
-94
-94
-94
-94
-94
-95
-95
-95
-95
-95
-95
-95
-95
-95
-95
-95
-96
-96
-96
-96
-96
-96
-96
-97
-97
-97
-97
-97
-97
-97
-97
-97
-97
-97
-97
-97
-97
-97
-97
-96
-95
-95
-94
-94
-94
-93
-93
-93
-92
-92
-91
-91
-91
-90
-90
-90
-89
-89
-89
-89
-89
-89
-89
-90
-90
-91
-93
-93
-94
-95
-96
-96
-97
-97
-97
-96
-93
-91
-88
-83
-78
-71
-64
-56
-45
-33
-19
-3
15
34
56
78
102
128
154
182
211
241
271
301
331
359
386
411
436
457
476
493
506
516
522
524
521
513
498
478
453
425
392
357
320
282
241
200
158
116
75
35
-2
-37
-69
-98
-122
-143
-159
-172
-181
-186
-188
-188
-185
-180
-174
-165
-156
-147
-138
-128
-120
-110
-102
-95
-89
-83
-78
-75
-71
-68
-67
-65
-64
-64
-64
-64
-65
-64
-65
-67
-68
-69
-70
-71
-72
-72
-73
-73
-74
-75
-75
-76
-75
-76
-76
-76
-76
-76
-75
-75
-75
-75
-75
-74
-74
-74
-73
-73
-73
-72
-72
-71
-71
-72
-71
-71
-71
-71
-71
-70
-70
-70
-70
-70
-69
-69
-69
-69
-68
-68
-68
-67
-67
-67
-67
-67
-67
-67
-67
-67
-67
-67
-66
-66
-66
-66
-66
-66
-65
-65
-65
-64
-64
-64
-64
-64
-64
-63
-63
-63
-63
-63
-63
-62
-61
-61
-61
-61
-61
-61
-61
-61
-59
-59
-59
-59
-59
-59
-58
-58
-58
-58
-58
-57
-57
-57
-57
-56
-56
-56
-56
-56
-55
-55
-55
-55
-54
-54
-54
-54
-54
-53
-53
-53
-53
-53
-53
-52
-52
-52
-52
-52
-52
-52
-52
-52
-51
-51
-51
-51
-51
-50
-50
-50
-50
-49
-48
-48
-47
-47
-46
-46
-47
-46
-46
-45
-45
-45
-44
-44
-43
-43
-42
-42
-42
-41
-42
-41
-41
-41
-40
-40
-39
-39
-39
-38
-38
-38
-38
-37
-37
-37
-37
-36
-36
-36
-35
-35
-35
-34
-33
-33
-33
-33
-32
-32
-31
-31
-30
-30
-29
-29
-28
-27
-27
-26
-26
-25
-25
-24
-24
-23
-23
-22
-22
-22
-21
-20
-19
-19
-18
-18
-17
-17
-16
-15
-15
-14
-13
-13
-12
-12
-11
-10
-10
-9
-9
-7
-7
-7
-7
-5
-4
-4
-3
-3
-2
-2
-1
0
0
1
1
1
2
3
4
4
5
6
7
8
9
10
10
11
12
13
14
14
16
17
18
18
19
20
20
21
21
23
23
24
24
24
25
26
27
27
28
28
28
29
29
29
30
30
31
31
32
32
33
33
34
34
34
35
35
36
35
35
37
37
38
37
38
38
38
39
40
40
39
40
41
41
41
41
41
41
41
41
41
41
41
41
40
40
40
39
39
38
38
37
37
36
36
35
34
33
32
32
31
30
29
28
27
24
23
22
21
20
18
17
14
13
11
10
8
6
4
3
1
-1
-3
-5
-7
-8
-11
-12
-14
-15
-18
-19
-21
-22
-25
-26
-28
-29
-31
-33
-34
-35
-38
-39
-40
-42
-44
-45
-47
-48
-49
-51
-52
-53
-54
-56
-58
-59
-60
-61
-63
-63
-64
-65
-67
-68
-69
-69
-71
-72
-73
-74
-75
-76
-76
-77
-79
-79
-80
-80
-80
-81
-81
-82
-82
-83
-83
-83
-85
-85
-85
-86
-86
-86
-86
-88
-88
-88
-88
-88
-88
-88
-89
-89
-89
-89
-89
-90
-90
-89
-89
-89
-89
-89
-89
-88
-89
-89
-89
-89
-89
-89
-89
-88
-88
-88
-89
-89
-89
-89
-89
-89
-89
-89
-89
-88
-88
-88
-88
-88
-88
-88
-88
-88
-88
-88
-87
-88
-88
-88
-88
-88
-87
-87
-87
-87
-87
-87
-88
-87
-86
-86
-87
-87
-87
-87
-87
-86
-86
-86
-86
-86
-87
-87
-87
-87
-87
-87
-87
-87
-87
-87
-87
-87
-87
-87
-87
-87
-87
-87
-87
-87
-87
-87
-87
-87
-87
-86
-86
-86
-86
-86
-86
-87
-87
-87
-87
-87
-87
-88
-88
-88
-88
-89
-89
-89
-89
-90
-90
-90
-91
-91
-91
-92
-92
-93
-93
-93
-93
-93
-94
-94
-94
-94
-94
-94
-94
-94
-94
-94
-93
-93
-93
-93
-92
-92
-92
-92
-92
-92
-92
-92
-93
-93
-93
-94
-94
-94
-95
-95
-96
-96
-97
-99
-99
-100
-100
-101
-101
-101
-101
-101
-101
-101
-101
-101
-101
-101
-100
-100
-100
-100
-100
-100
-100
-100
-100
-100
-100
-100
-100
-100
-100
-100
-100
-100
-100
-100
-100
-100
-100
-101
-101
-100
-100
-100
-101
-101
-101
-101
-101
-101
-101
-101
-101
-101
-101
-102
-102
-102
-102
-102
-102
-102
-102
-102
-102
-102
-103
-103
-103
-103
-102
-102
-102
-102
-102
-102
-102
-102
-102
-102
-102
-102
-102
-102
-102
-102
-102
-102
-102
-102
-102
-102
-102
-102
-102
-101
-101
-101
-102
-102
-101
-101
-101
-101
-100
-100
-100
-100
-100
-101
-101
-100
-101
-101
-101
-101
-101
-101
-101
-101
-101
-102
-102
-102
-103
-103
-103
-103
-104
-104
-103
-103
-103
-103
-103
-103
-104
-104
-104
-104
-104
-104
-103
-103
-103
-103
-103
-103
-103
-103
-103
-104
-104
-104
-104
-104
-104
-104
-104
-104
-104
-104
-104
-104
-104
-104
-104
-104
-104
-104
-105
-105
-105
-105
-105
-105
-105
-105
-105
-105
-105
-105
-105
-105
-105
-105
-105
-106
-106
-106
-106
-105
-105
-105
-105
-105
-105
-105
-105
-105
-104
-105
-105
-105
-105
-105
-104
-104
-104
-104
-104
-104
-104
-104
-104
-104
-104
-104
-104
-104
-104
-104
-104
-104
-104
-104
-104
-104
-104
-105
-105
-105
-105
-105
-105
-105
-105
-105
-106
-106
-105
-106
-106
-106
-106
-106
-107
-107
-106
-106
-106
-106
-107
-107
-106
-106
-106
-106
-105
-105
-105
-106
-106
-105
-105
-105
-105
-104
-104
-105
-105
-105
-105
-105
-105
-105
-105
-106
-106
-106
-106
-106
-106
-106
-106
-106
-106
-106
-106
-106
-106
-107
-107
-106
-106
-106
-106
-105
-105
-106
-106
-105
-105
-106
-106
-105
-105
-105
-105
-105
-105
-105
-105
-105
-105
-106
-106
-106
-107
-107
-106
-107
-107
-108
-108
-108
-108
-108
-109
-109
-109
-109
-109
-108
-109
-109
-108
-108
-108
-108
-109
-108
-108
-108
-107
-107
-107
-107
-107
-106
-106
-106
-106
-107
-107
-107
-107
-107
-107
-107
-107
-107
-107
-108
-108
-108
-108
-108
-108
-108
-109
-109
-109
-109
-109
-109
-109
-109
-109
-108
-108
-108
-108
-108
-107
-107
-107
-108
-107
-107
-107
-107
-107
-106
-106
-106
-106
-106
-106
-106
-106
-106
-106
-106
-106
-106
-106
-106
-106
-106
-106
-106
-106
-106
-105
-105
-105
-105
-105
-106
-106
-106
-106
-106
-106
-106
-106
-106
-106
-106
-106
-106
-106
-106
-106
-106
-106
-106
-106
-106
-105
-105
-105
-105
-105
-105
-104
-104
-104
-104
-104
-104
-104
-104
-104
-104
-104
-104
-105
-105
-106
-106
-106
-106
-106
-107
-107
-107
-107
-108
-108
-108
-108
-108
-109
-108
-108
-108
-107
-107
-106
-106
-105
-106
-105
-105
-105
-105
-104
-104
-104
-104
-104
-104
-104
-104
-104
-104
-104
-104
-104
-104
-104
-104
-104
-104
-104
-104
-105
-105
-105
-105
-105
-105
-105
-105
-105
-105
-105
-105
-105
-105
-105
-105
-105
-105
-105
-105
-105
-105
-104
-104
-104
-104
-104
-105
-104
-104
-104
-104
-104
-104
-103
-103
-103
-103
-102
-102
-102
-102
-102
-102
-103
-102
-102
-102
-102
-102
-102
-102
-102
-102
-102
-102
-102
-102
-102
-102
-102
-102
-102
-101
-101
-101
-101
-101
-100
-100
-100
-100
-100
-100
-100
-101
-101
-101
-101
-100
-100
-100
-100
-100
-100
-100
-100
-100
-99
-100
-101
-100
-100
-100
-100
-100
-100
-100
-100
-100
-100
-100
-100
-100
-100
-101
-101
-101
-101
-101
-100
-100
-100
-100
-100
-100
-100
-100
-100
-100
-100
-100
-100
-100
-100
-100
-100
-100
-100
-99
-99
-99
-99
-99
-99
-99
-99
-99
-99
-99
-99
-99
-99
-99
-99
-99
-99
-99
-99
-99
-99
-100
-100
-100
-100
-100
-100
-100
-100
-100
-100
-100
-99
-98
-98
-98
-98
-97
-97
-97
-96
-96
-96
-94
-94
-94
-93
-93
-93
-92
-92
-91
-90
-91
-90
-90
-90
-89
-89
-89
-89
-88
-88
-87
-87
-86
-86
-85
-84
-84
-83
-82
-82
-82
-81
-81
-80
-80
-79
-79
-79
-79
-79
-79
-79
-78
-78
-78
-78
-78
-78
-78
-78
-78
-77
-78
-78
-77
-76
-76
-76
-75
-75
-74
-74
-74
-74
-73
-74
-73
-74
-74
-73
-74
-74
-74
-75
-76
-76
-76
-77
-78
-79
-79
-80
-81
-81
-82
-82
-83
-83
-84
-84
-84
-85
-85
-85
-86
-86
-86
-87
-87
-88
-88
-88
-88
-89
-89
-90
-91
-91
-91
-92
-91
-91
-91
-92
-92
-92
-92
-92
-92
-93
-93
-93
-93
-93
-92
-92
-92
-93
-93
-92
-92
-92
-92
-92
-92
-92
-92
-91
-91
-91
-91
-91
-91
-90
-90
-90
-90
-90
-90
-91
-89
-89
-89
-89
-88
-88
-88
-88
-88
-87
-87
-87
-87
-87
-87
-86
-86
-86
-85
-84
-84
-85
-85
-85
-85
-85
-86
-86
-87
-88
-88
-88
-88
-88
-86
-85
-82
-79
-75
-68
-62
-55
-46
-36
-23
-9
7
24
45
66
88
112
139
165
194
222
253
283
314
344
373
400
427
451
472
491
507
520
528
534
534
528
517
500
477
448
416
381
343
303
262
218
175
131
87
45
4
-35
-70
-102
-130
-152
-172
-186
-197
-203
-206
-206
-202
-197
-189
-180
-169
-158
-147
-136
-124
-114
-105
-95
-87
-80
-73
-66
-62
-58
-55
-52
-50
-48
-48
-48
-48
-48
-48
-49
-50
-51
-52
-53
-54
-54
-55
-56
-57
-58
-58
-59
-59
-60
-60
-60
-60
-60
-60
-59
-59
-59
-59
-59
-59
-57
-57
-57
-56
-56
-56
-55
-55
-55
-54
-54
-54
-53
-53
-53
-52
-52
-52
-52
-52
-51
-51
-50
-50
-50
-49
-49
-49
-49
-48
-48
-48
-48
-47
-46
-46
-46
-46
-45
-45
-45
-44
-44
-44
-44
-43
-43
-43
-42
-42
-41
-41
-41
-40
-40
-39
-39
-39
-38
-38
-38
-38
-37
-37
-37
-36
-36
-35
-35
-35
-34
-34
-34
-33
-33
-33
-32
-32
-32
-31
-31
-31
-31
-30
-30
-30
-30
-30
-29
-29
-28
-28
-28
-27
-27
-27
-26
-26
-25
-25
-25
-24
-24
-23
-22
-22
-21
-21
-20
-20
-19
-19
-19
-18
-18
-18
-17
-17
-17
-17
-17
-17
-16
-16
-16
-16
-16
-16
-15
-15
-14
-14
-14
-14
-14
-13
-13
-13
-12
-12
-12
-11
-11
-10
-10
-9
-8
-8
-7
-7
-6
-6
-5
-5
-4
-4
-3
-3
-2
-1
-1
0
1
1
2
3
4
4
4
5
6
6
7
8
8
9
9
10
11
11
12
12
13
13
14
14
15
16
16
18
18
19
19
20
20
21
22
22
23
24
25
25
26
27
28
28
29
30
31
32
33
34
35
36
36
37
38
38
39
40
41
42
42
43
43
44
45
46
47
48
49
50
51
51
52
54
55
56
57
58
59
59
60
61
62
63
63
64
65
66
66
67
68
69
70
70
71
72
73
74
75
76
76
77
78
78
80
81
82
82
82
83
83
85
86
86
87
88
88
88
89
90
90
91
91
92
92
93
93
94
94
94
95
95
95
96
96
96
96
96
98
98
98
98
99
99
98
98
98
98
98
98
98
98
98
97
97
96
96
95
94
93
92
91
90
89
88
86
85
84
82
80
79
77
75
75
72
70
68
66
64
62
60
58
56
54
52
50
48
45
42
40
38
35
33
30
28
26
24
22
19
17
15
13
10
8
6
4
3
0
-2
-3
-5
-8
-9
-11
-12
-14
-16
-17
-19
-20
-21
-23
-24
-25
-27
-29
-30
-32
-33
-34
-35
-37
-38
-39
-40
-41
-43
-43
-44
-45
-46
-48
-48
-49
-50
-50
-51
-52
-53
-53
-54
-54
-54
-55
-55
-55
-55
-56
-56
-56
-56
-56
-56
-55
-55
-55
-56
-56
-56
-56
-56
-55
-55
-55
-55
-55
-55
-55
-55
-55
-55
-55
-55
-54
-54
-54
-54
-54
-54
-54
-54
-53
-53
-53
-53
-53
-53
-52
-52
-52
-51
-51
-51
-50
-50
-50
-49
-49
-48
-48
-47
-47
-46
-47
-46
-46
-45
-45
-45
-44
-44
-44
-43
-43
-42
-42
-42
-42
-42
-42
-42
-42
-42
-43
-43
-42
-42
-42
-42
-42
-42
-42
-42
-42
-41
-41
-41
-41
-41
-42
-42
-42
-42
-42
-42
-42
-42
-42
-42
-42
-42
-42
-42
-42
-42
-42
-42
-42
-42
-42
-42
-42
-42
-42
-42
-42
-42
-42
-42
-42
-42
-43
-43
-43
-43
-43
-43
-43
-43
-43
-44
-44
-44
-44
-45
-45
-45
-46
-46
-46
-47
-47
-48
-48
-48
-49
-49
-50
-50
-50
-51
-51
-51
-51
-51
-52
-52
-53
-53
-53
-53
-53
-53
-53
-53
-53
-53
-53
-53
-54
-54
-55
-55
-55
-55
-55
-55
-55
-56
-56
-56
-57
-57
-56
-57
-57
-58
-58
-58
-59
-59
-60
-60
-59
-60
-60
-60
-60
-60
-60
-62
-62
-62
-61
-61
-61
-61
-61
-61
-61
-61
-61
-61
-61
-61
-61
-61
-62
-62
-62
-62
-62
-62
-62
-62
-62
-62
-62
-62
-63
-63
-63
-63
-63
-63
-63
-63
-63
-63
-63
-63
-63
-63
-62
-62
-62
-62
-62
-62
-62
-62
-62
-63
-63
-64
-64
-64
-64
-64
-64
-64
-65
-65
-65
-65
-65
-65
-65
-64
-64
-64
-64
-64
-64
-64
-64
-64
-64
-64
-64
-64
-64
-64
-65
-64
-64
-64
-65
-65
-65
-65
-65
-65
-65
-65
-65
-65
-65
-65
-65
-65
-65
-65
-65
-65
-65
-65
-66
-66
-66
-66
-65
-66
-66
-66
-66
-66
-66
-66
-66
-66
-66
-66
-66
-66
-66
-67
-67
-67
-66
-66
-66
-66
-66
-65
-65
-65
-65
-65
-65
-65
-65
-65
-65
-65
-66
-66
-66
-67
-66
-66
-67
-67
-67
-68
-68
-67
-67
-68
-68
-68
-68
-68
-68
-68
-68
-68
-68
-68
-67
-67
-67
-67
-67
-67
-67
-67
-67
-67
-67
-67
-67
-67
-67
-67
-67
-67
-67
-67
-67
-67
-67
-67
-67
-67
-67
-67
-67
-66
-66
-66
-66
-66
-65
-65
-65
-66
-66
-66
-66
-66
-66
-65
-65
-65
-65
-65
-66
-66
-66
-66
-66
-65
-66
-66
-66
-66
-65
-65
-65
-65
-65
-64
-64
-64
-64
-64
-64
-63
-63
-63
-63
-64
-64
-64
-64
-64
-64
-65
-65
-65
-64
-64
-64
-64
-64
-64
-65
-65
-64
-64
-65
-65
-65
-65
-65
-65
-65
-65
-65
-65
-65
-65
-65
-64
-64
-64
-64
-64
-64
-64
-64
-64
-64
-65
-65
-65
-65
-65
-65
-65
-65
-65
-65
-65
-65
-65
-64
-64
-64
-64
-64
-64
-64
-64
-64
-65
-65
-65
-65
-64
-64
-64
-64
-64
-64
-64
-64
-65
-65
-65
-65
-65
-64
-64
-64
-64
-64
-64
-64
-64
-64
-64
-64
-64
-64
-64
-64
-64
-63
-63
-63
-63
-63
-64
-64
-64
-64
-64
-64
-64
-64
-64
-64
-64
-64
-65
-65
-65
-65
-64
-65
-65
-65
-65
-66
-66
-66
-66
-65
-66
-66
-66
-66
-66
-67
-67
-67
-67
-67
-67
-67
-67
-67
-67
-67
-67
-67
-66
-66
-66
-66
-66
-66
-65
-65
-65
-65
-65
-64
-64
-64
-64
-64
-64
-63
-63
-64
-64
-64
-64
-64
-64
-64
-65
-65
-65
-65
-66
-66
-66
-66
-66
-66
-66
-66
-66
-66
-66
-66
-65
-65
-65
-65
-65
-65
-65
-65
-65
-65
-65
-65
-65
-65
-65
-65
-65
-64
-64
-64
-65
-65
-65
-65
-65
-65
-65
-65
-66
-66
-66
-66
-66
-66
-66
-66
-67
-67
-67
-67
-67
-67
-67
-67
-67
-66
-66
-66
-66
-66
-66
-66
-66
-66
-66
-66
-66
-66
-66
-66
-66
-66
-66
-66
-66
-66
-66
-66
-66
-66
-66
-66
-66
-66
-66
-66
-67
-66
-66
-66
-66
-66
-66
-66
-66
-67
-67
-67
-66
-67
-67
-68
-68
-68
-68
-68
-68
-68
-68
-68
-68
-68
-68
-68
-67
-67
-67
-67
-67
-67
-66
-66
-66
-66
-66
-66
-66
-66
-66
-65
-65
-66
-66
-66
-65
-65
-65
-65
-65
-65
-65
-65
-65
-65
-65
-65
-65
-65
-65
-65
-65
-64
-64
-65
-65
-65
-65
-66
-66
-66
-66
-67
-67
-67
-67
-67
-68
-68
-68
-68
-68
-68
-68
-68
-68
-67
-67
-67
-66
-66
-66
-66
-66
-66
-66
-66
-66
-66
-66
-66
-66
-66
-66
-66
-66
-66
-66
-66
-66
-66
-67
-67
-67
-67
-67
-66
-66
-66
-66
-66
-66
-66
-66
-66
-66
-66
-66
-66
-66
-66
-66
-66
-66
-66
-65
-64
-64
-64
-64
-64
-64
-64
-64
-63
-63
-63
-63
-62
-62
-61
-61
-62
-61
-61
-60
-59
-59
-58
-58
-57
-57
-56
-56
-55
-55
-54
-54
-54
-53
-53
-52
-52
-51
-50
-50
-49
-49
-48
-48
-47
-47
-47
-47
-47
-47
-47
-47
-47
-47
-48
-48
-48
-48
-49
-49
-49
-50
-50
-50
-50
-49
-49
-49
-49
-48
-47
-47
-47
-46
-45
-44
-45
-45
-44
-44
-44
-44
-44
-45
-45
-45
-46
-47
-48
-48
-49
-50
-51
-51
-52
-54
-54
-55
-56
-56
-57
-58
-58
-59
-59
-61
-61
-62
-62
-62
-64
-64
-64
-65
-65
-66
-66
-67
-67
-67
-68
-68
-69
-69
-69
-69
-69
-69
-71
-71
-71
-71
-71
-70
-70
-70
-70
-70
-70
-70
-70
-70
-71
-71
-71
-71
-71
-71
-72
-72
-72
-72
-72
-72
-72
-73
-73
-73
-73
-73
-73
-73
-74
-74
-74
-73
-73
-73
-72
-72
-72
-72
-71
-70
-70
-70
-70
-69
-69
-68
-68
-68
-68
-68
-68
-68
-68
-69
-70
-70
-70
-71
-72
-72
-72
-73
-72
-72
-70
-67
-65
-60
-56
-50
-42
-35
-25
-13
0
14
31
50
70
93
117
141
168
195
224
254
284
317
347
377
407
435
461
485
507
526
542
555
563
569
568
563
552
534
511
483
452
416
379
339
299
255
212
169
125
83
43
5
-30
-62
-90
-114
-133
-148
-159
-167
-171
-172
-170
-165
-160
-152
-143
-134
-124
-114
-105
-96
-86
-79
-72
-66
-60
-55
-51
-48
-46
-43
-42
-41
-41
-41
-41
-42
-43
-43
-44
-45
-46
-47
-48
-49
-50
-51
-52
-52
-53
-53
-53
-54
-54
-54
-55
-55
-54
-54
-54
-54
-54
-54
-54
-53
-53
-53
-53
-53
-53
-53
-52
-52
-52
-51
-51
-51
-51
-51
-50
-50
-50
-50
-50
-50
-50
-49
-49
-48
-48
-48
-48
-48
-47
-47
-47
-47
-47
-47
-47
-47
-46
-46
-46
-46
-46
-46
-45
-45
-45
-44
-44
-44
-44
-44
-44
-43
-43
-42
-42
-42
-42
-42
-42
-42
-41
-41
-40
-40
-40
-39
-39
-40
-40
-39
-39
-38
-38
-37
-37
-37
-36
-36
-36
-36
-36
-35
-34
-34
-34
-34
-34
-33
-33
-33
-33
-33
-33
-33
-33
-33
-32
-32
-32
-32
-32
-31
-31
-31
-31
-30
-30
-30
-30
-29
-29
-29
-29
-29
-29
-28
-28
-28
-28
-27
-27
-27
-26
-26
-26
-25
-25
-25
-25
-24
-24
-23
-23
-22
-22
-22
-21
-21
-21
-20
-19
-19
-19
-19
-18
-18
-18
-19
-18
-18
-18
-17
-17
-17
-17
-17
-17
-16
-16
-16
-15
-15
-14
-14
-13
-13
-12
-12
-11
-10
-10
-9
-10
-9
-8
-8
-7
-7
-6
-6
-5
-5
-4
-4
-3
-3
-2
-2
-1
0
0
1
1
2
2
3
3
3
4
4
5
6
7
7
7
7
7
8
8
9
9
10
10
12
12
12
12
13
13
14
15
16
17
18
19
19
20
21
22
23
24
24
25
26
27
28
29
29
30
31
32
33
34
34
35
36
37
38
39
40
41
42
42
43
44
44
45
46
46
47
48
49
49
50
50
50
51
52
53
53
53
54
54
55
55
56
56
57
57
58
58
58
59
59
59
59
60
60
60
60
60
61
61
61
61
61
61
61
61
61
61
61
61
60
60
60
59
59
58
58
57
58
57
56
56
55
54
53
52
50
49
48
47
45
44
42
41
38
37
35
33
31
29
27
25
23
20
18
16
14
11
9
7
4
1
-1
-3
-6
-8
-11
-13
-16
-19
-21
-24
-26
-29
-30
-34
-36
-38
-41
-44
-46
-48
-50
-53
-56
-58
-59
-62
-65
-67
-70
-72
-76
-78
-81
-83
-86
-90
-93
-96
-99
-103
-106
-109
-113
-117
-120
-124
-127
-130
-134
-137
-141
-145
-148
-152
-155
-158
-161
-165
-169
-172
-175
-177
-180
-184
-186
-189
-191
-195
-197
-199
-202
-204
-206
-208
-211
-213
-215
-217
-219
-220
-222
-224
-226
-227
-229
-231
-233
-235
-237
-239
-240
-242
-244
-245
-247
-248
-251
-252
-254
-255
-257
-258
-259
-261
-262
-263
-264
-265
-266
-267
-269
-270
-270
-271
-272
-273
-274
-275
-276
-278
-279
-280
-281
-282
-283
-284
-285
-286
-287
-288
-289
-290
-291
-292
-293
-294
-295
-295
-296
-297
-298
-299
-300
-301
-302
-303
-304
-305
-306
-307
-307
-308
-309
-310
-311
-312
-313
-314
-315
-316
-316
-317
-318
-319
-320
-321
-321
-322
-323
-324
-325
-326
-326
-327
-328
-329
-330
-331
-332
-332
-332
-333
-334
-335
-336
-337
-337
-338
-339
-340
-341
-341
-342
-343
-343
-344
-345
-345
-346
-346
-347
-348
-348
-349
-349
-350
-351
-352
-353
-353
-354
-355
-356
-357
-357
-358
-359
-360
-360
-361
-362
-362
-363
-364
-365
-366
-366
-367
-368
-369
-369
-370
-370
-371
-371
-372
-373
-374
-374
-375
-375
-376
-377
-377
-378
-378
-379
-379
-379
-380
-380
-381
-381
-382
-382
-383
-383
-384
-384
-385
-385
-386
-386
-387
-386
-387
-388
-388
-389
-389
-390
-390
-391
-391
-392
-392
-392
-393
-393
-393
-394
-394
-394
-394
-396
-396
-396
-397
-397
-398
-398
-398
-399
-399
-400
-401
-402
-402
-402
-403
-403
-403
-404
-404
-404
-405
-405
-405
-405
-404
-405
-405
-405
-405
-405
-406
-406
-406
-406
-406
-407
-407
-407
-407
-408
-408
-408
-408
-408
-409
-409
-409
-410
-411
-411
-411
-412
-412
-412
-412
-413
-413
-413
-414
-414
-414
-414
-415
-415
-415
-416
-416
-416
-416
-417
-417
-417
-417
-417
-417
-417
-418
-418
-418
-418
-419
-419
-419
-419
-419
-420
-420
-420
-420
-421
-421
-421
-421
-422
-422
-422
-422
-422
-422
-423
-422
-422
-422
-422
-422
-423
-423
-423
-423
-423
-423
-423
-424
-424
-424
-424
-424
-424
-424
-424
-424
-424
-425
-425
-424
-424
-424
-424
-424
-424
-424
-425
-425
-425
-425
-425
-425
-425
-425
-425
-426
-426
-426
-426
-426
-426
-427
-427
-427
-427
-427
-427
-427
-427
-427
-427
-428
-428
-428
-428
-428
-428
-429
-429
-429
-429
-429
-428
-429
-429
-429
-429
-430
-430
-430
-430
-430
-430
-431
-431
-431
-431
-431
-431
-431
-431
-431
-431
-431
-431
-431
-431
-431
-431
-431
-431
-431
-431
-431
-431
-431
-431
-431
-431
-431
-431
-431
-431
-431
-432
-432
-432
-431
-431
-431
-431
-431
-431
-431
-431
-431
-431
-432
-432
-431
-431
-431
-431
-431
-432
-432
-432
-432
-431
-431
-431
-431
-431
-432
-432
-432
-432
-432
-432
-432
-432
-432
-432
-432
-432
-432
-432
-432
-432
-432
-432
-432
-432
-432
-432
-432
-432
-432
-432
-432
-431
-431
-432
-432
-432
-432
-432
-432
-433
-433
-433
-433
-433
-433
-433
-433
-433
-433
-433
-433
-433
-432
-432
-432
-432
-432
-432
-432
-432
-432
-433
-433
-433
-433
-433
-433
-433
-433
-433
-434
-434
-434
-434
-435
-434
-434
-434
-434
-434
-435
-435
-435
-435
-435
-435
-435
-434
-434
-434
-434
-434
-435
-435
-435
-435
-435
-435
-435
-434
-434
-434
-434
-434
-433
-433
-434
-433
-433
-432
-432
-432
-431
-432
-431
-431
-430
-430
-429
-429
-429
-429
-429
-428
-428
-428
-428
-427
-427
-426
-426
-427
-426
-426
-426
-426
-426
-425
-425
-425
-425
-426
-426
-426
-426
-426
-426
-427
-427
-428
-428
-427
-427
-428
-428
-428
-428
-429
-429
-429
-429
-429
-429
-429
-429
-430
-429
-429
-429
-429
-429
-428
-428
-428
-428
-428
-428
-428
-427
-427
-427
-427
-427
-427
-427
-427
-427
-427
-427
-427
-427
-427
-426
-426
-426
-426
-426
-426
-426
-426
-426
-426
-426
-426
-426
-426
-426
-426
-425
-425
-425
-425
-425
-425
-425
-425
-425
-424
-424
-425
-425
-425
-424
-424
-424
-424
-423
-423
-423
-422
-422
-423
-423
-423
-422
-422
-422
-422
-422
-422
-422
-422
-422
-422
-422
-421
-421
-421
-421
-421
-421
-421
-421
-421
-420
-420
-420
-420
-420
-420
-420
-420
-420
-420
-420
-420
-420
-420
-419
-419
-419
-419
-419
-419
-419
-419
-419
-419
-419
-419
-418
-418
-418
-418
-418
-418
-418
-418
-418
-418
-418
-418
-418
-418
-418
-418
-418
-417
-417
-417
-416
-416
-416
-416
-416
-416
-416
-416
-416
-416
-416
-416
-416
-416
-416
-416
-416
-415
-415
-415
-415
-415
-414
-415
-415
-415
-414
-414
-414
-414
-413
-413
-413
-413
-413
-413
-413
-413
-413
-413
-412
-413
-413
-413
-413
-412
-412
-412
-412
-412
-412
-412
-412
-412
-412
-411
-411
-411
-411
-411
-411
-411
-411
-411
-411
-411
-411
-411
-411
-411
-411
-411
-410
-409
-409
-409
-409
-410
-409
-409
-409
-409
-409
-409
-409
-408
-408
-408
-407
-407
-407
-407
-407
-407
-407
-407
-407
-407
-407
-407
-407
-407
-407
-406
-406
-407
-408
-408
-408
-408
-408
-408
-407
-407
-407
-407
-407
-407
-406
-406
-406
-405
-405
-405
-405
-405
-404
-404
-404
-404
-404
-403
-403
-403
-403
-403
-403
-403
-403
-403
-403
-402
-401
-401
-401
-401
-401
-401
-402
-402
-402
-402
-402
-402
-402
-402
-402
-402
-402
-402
-401
-401
-401
-401
-401
-401
-401
-401
-401
-401
-401
-401
-401
-400
-400
-400
-400
-400
-400
-400
-399
-399
-399
-399
-399
-399
-399
-399
-398
-398
-398
-398
-398
-398
-398
-398
-398
-398
-398
-398
-398
-398
-397
-398
-398
-397
-397
-397
-397
-397
-397
-396
-396
-396
-396
-396
-395
-395
-395
-395
-395
-395
-394
-394
-394
-394
-394
-393
-393
-392
-392
-392
-392
-392
-390
-390
-390
-389
-388
-388
-387
-387
-386
-386
-384
-384
-383
-383
-382
-383
-382
-381
-382
-381
-380
-380
-380
-379
-379
-379
-378
-378
-377
-377
-377
-377
-376
-376
-374
-374
-373
-373
-371
-371
-371
-371
-369
-369
-369
-368
-368
-368
-367
-367
-367
-366
-367
-367
-366
-366
-366
-365
-365
-364
-365
-364
-364
-363
-363
-362
-363
-362
-362
-363
-362
-362
-362
-362
-362
-362
-363
-362
-363
-363
-364
-364
-365
-366
-366
-367
-368
-368
-368
-369
-369
-370
-370
-371
-371
-371
-372
-373
-373
-373
-374
-374
-374
-375
-375
-375
-375
-376
-376
-377
-377
-377
-377
-378
-378
-378
-378
-378
-378
-378
-378
-378
-378
-378
-378
-378
-378
-378
-378
-378
-377
-377
-377
-376
-376
-376
-375
-375
-375
-374
-374
-374
-373
-373
-372
-372
-371
-369
-368
-365
-363
-359
-355
-350
-344
-338
-330
-322
-311
-301
-289
-275
-261
-245
-228
-209
-190
-169
-147
-124
-102
-79
-55
-33
-10
11
33
53
71
89
105
118
130
137
142
144
139
130
115
97
75
48
20
-10
-42
-77
-113
-150
-188
-225
-263
-298
-333
-364
-392
-418
-439
-457
-469
-480
-486
-488
-488
-485
-480
-472
-465
-455
-445
-434
-424
-413
-404
-394
-386
-377
-370
-363
-358
-353
-349
-346
-343
-341
-340
-339
-337
-337
-337
-337
-337
-339
-339
-339
-340
-340
-340
-341
-342
-342
-342
-342
-343
-342
-342
-342
-342
-342
-342
-341
-341
-341
-341
-340
-340
-340
-340
-340
-339
-339
-339
-339
-338
-338
-338
-338
-337
-337
-337
-337
-336
-335
-335
-334
-334
-333
-333
-333
-332
-332
-332
-331
-331
-331
-331
-330
-330
-330
-329
-329
-328
-328
-328
-328
-328
-328
-328
-326
-326
-326
-326
-325
-325
-325
-325
-324
-324
-324
-323
-322
-322
-321
-321
-320
-319
-319
-318
-318
-317
-317
-316
-316
-316
-315
-315
-314
-314
-314
-314
-313
-312
-312
-312
-312
-311
-311
-310
-310
-310
-309
-309
-309
-309
-309
-309
-308
-308
-308
-308
-307
-307
-306
-306
-305
-305
-305
-305
-304
-304
-304
-302
-302
-301
-301
-300
-300
-299
-299
-298
-297
-297
-296
-296
-295
-295
-294
-294
-293
-293
-292
-292
-292
-292
-291
-291
-290
-290
-289
-289
-289
-288
-287
-287
-287
-286
-285
-284
-284
-283
-283
-282
-282
-281
-281
-280
-280
-279
-278
-278
-277
-276
-276
-275
-274
-274
-273
-272
-271
-271
-270
-269
-268
-269
-268
-267
-266
-266
-265
-264
-264
-263
-263
-262
-262
-261
-261
-260
-260
-259
-259
-258
-258
-257
-257
-256
-256
-255
-254
-254
-253
-252
-252
-251
-250
-249
-249
-248
-247
-246
-246
-246
-245
-244
-244
-243
-242
-241
-241
-240
-239
-238
-238
-237
-236
-235
-234
-233
-232
-231
-230
-229
-228
-227
-226
-225
-224
-223
-222
-221
-220
-219
-218
-218
-217
-216
-215
-214
-214
-213
-213
-212
-212
-211
-210
-209
-209
-209
-208
-207
-206
-205
-205
-204
-203
-202
-201
-200
-199
-199
-198
-197
-197
-196
-195
-194
-193
-192
-191
-191
-190
-189
-189
-188
-187
-186
-186
-185
-184
-183
-184
-183
-182
-181
-180
-180
-180
-179
-178
-178
-177
-176
-177
-176
-176
-175
-175
-175
-175
-175
-175
-174
-174
-174
-174
-174
-174
-174
-175
-175
-175
-176
-176
-176
-177
-177
-178
-179
-180
-180
-181
-182
-184
-185
-186
-187
-189
-190
-191
-193
-194
-196
-197
-199
-201
-203
-205
-206
-208
-210
-213
-215
-217
-219
-221
-223
-226
-228
-229
-232
-234
-236
-238
-241
-242
-244
-246
-248
-250
-252
-254
-256
-258
-259
-261
-263
-265
-266
-268
-269
-270
-272
-273
-274
-277
-278
-279
-280
-281
-282
-283
-285
-286
-287
-288
-290
-291
-292
-293
-294
-296
-297
-298
-299
-300
-301
-302
-303
-304
-305
-306
-307
-308
-309
-309
-309
-310
-311
-312
-313
-313
-313
-314
-314
-314
-314
-315
-315
-315
-315
-315
-315
-316
-315
-315
-315
-315
-315
-315
-315
-315
-315
-314
-314
-314
-314
-313
-313
-313
-313
-313
-314
-314
-313
-313
-313
-313
-312
-312
-312
-312
-312
-312
-312
-312
-312
-312
-312
-312
-311
-311
-311
-311
-310
-310
-310
-309
-309
-308
-308
-307
-307
-307
-306
-306
-305
-305
-305
-304
-304
-303
-303
-302
-302
-302
-301
-301
-302
-301
-301
-301
-300
-300
-300
-299
-299
-298
-298
-298
-297
-298
-297
-297
-297
-297
-296
-296
-296
-296
-296
-296
-296
-296
-297
-298
-298
-298
-299
-299
-299
-299
-300
-300
-299
-299
-299
-299
-299
-299
-299
-299
-299
-299
-299
-299
-298
-298
-299
-299
-298
-298
-298
-298
-298
-298
-298
-299
-299
-299
-299
-299
-300
-300
-301
-301
-301
-302
-302
-304
-304
-304
-304
-305
-304
-304
-304
-304
-304
-304
-304
-305
-305
-304
-304
-304
-304
-304
-304
-304
-304
-304
-304
-304
-304
-304
-304
-304
-304
-304
-304
-305
-305
-305
-305
-305
-305
-305
-305
-306
-306
-306
-306
-306
-307
-307
-307
-306
-306
-306
-306
-307
-307
-307
-307
-307
-307
-306
-305
-305
-305
-305
-305
-306
-305
-305
-305
-305
-304
-304
-304
-304
-304
-304
-303
-303
-304
-304
-304
-304
-304
-304
-304
-304
-304
-304
-304
-304
-304
-304
-304
-304
-304
-304
-304
-304
-304
-304
-304
-304
-304
-304
-303
-303
-303
-304
-304
-303
-303
-303
-303
-303
-303
-303
-303
-303
-303
-303
-303
-303
-303
-303
-303
-303
-303
-302
-302
-303
-303
-303
-303
-303
-303
-303
-303
-303
-303
-303
-303
-302
-302
-302
-302
-302
-302
-303
-302
-302
-302
-302
-302
-301
-301
-301
-301
-301
-302
-302
-302
-302
-302
-302
-302
-302
-302
-302
-302
-301
-301
-301
-301
-301
-301
-301
-301
-301
-301
-300
-300
-300
-300
-300
-300
-300
-299
-299
-299
-299
-299
-299
-299
-298
-298
-298
-298
-298
-298
-298
-298
-298
-298
-298
-298
-298
-298
-299
-299
-299
-299
-299
-299
-299
-299
-299
-299
-300
-300
-300
-300
-299
-299
-299
-299
-298
-298
-298
-298
-297
-297
-297
-297
-296
-296
-296
-296
-295
-295
-295
-295
-295
-295
-294
-294
-295
-295
-295
-295
-295
-295
-296
-296
-296
-296
-296
-296
-296
-296
-297
-297
-296
-296
-296
-296
-296
-296
-296
-296
-296
-296
-296
-295
-295
-295
-295
-295
-295
-295
-295
-295
-295
-295
-294
-294
-293
-293
-293
-293
-294
-294
-294
-293
-293
-293
-292
-292
-293
-292
-292
-292
-291
-292
-292
-292
-292
-292
-291
-291
-291
-291
-291
-291
-291
-291
-291
-291
-291
-291
-291
-291
-291
-291
-291
-291
-291
-290
-290
-290
-290
-290
-289
-289
-289
-289
-289
-288
-288
-288
-288
-287
-287
-287
-287
-287
-286
-286
-286
-286
-286
-286
-285
-285
-286
-286
-286
-285
-285
-285
-285
-285
-285
-285
-285
-285
-285
-285
-285
-285
-286
-285
-285
-285
-285
-285
-286
-286
-286
-286
-286
-286
-286
-286
-286
-286
-285
-285
-285
-285
-285
-284
-284
-284
-284
-283
-283
-283
-282
-282
-283
-282
-282
-282
-282
-282
-282
-282
-281
-281
-281
-281
-281
-281
-281
-281
-281
-281
-281
-281
-281
-281
-281
-281
-280
-280
-280
-280
-280
-280
-280
-280
-280
-280
-280
-280
-280
-280
-280
-281
-281
-281
-281
-281
-281
-280
-280
-280
-280
-280
-280
-279
-279
-279
-279
-278
-278
-278
-277
-277
-277
-277
-277
-277
-277
-276
-276
-276
-276
-276
-276
-276
-276
-276
-276
-276
-276
-276
-276
-275
-275
-275
-275
-276
-276
-276
-275
-275
-275
-275
-275
-275
-275
-275
-275
-275
-275
-275
-274
-274
-274
-274
-274
-274
-274
-274
-274
-274
-274
-274
-274
-274
-274
-274
-274
-274
-273
-273
-274
-274
-274
-273
-273
-273
-272
-273
-273
-272
-272
-272
-272
-271
-271
-271
-271
-271
-271
-270
-270
-270
-270
-270
-270
-270
-270
-270
-270
-270
-270
-269
-269
-269
-269
-269
-269
-269
-269
-269
-269
-269
-268
-268
-268
-268
-268
-268
-268
-268
-268
-268
-268
-268
-268
-268
-267
-268
-268
-268
-268
-267
-267
-267
-267
-267
-266
-266
-266
-266
-266
-266
-266
-266
-266
-265
-265
-265
-265
-265
-265
-265
-265
-264
-264
-264
-264
-264
-264
-264
-264
-263
-263
-263
-263
-263
-263
-263
-263
-262
-262
-262
-262
-262
-262
-262
-262
-262
-262
-262
-262
-262
-261
-261
-261
-261
-262
-262
-262
-261
-261
-261
-261
-261
-260
-260
-260
-260
-259
-259
-259
-259
-259
-259
-259
-259
-259
-258
-258
-258
-258
-258
-258
-257
-257
-257
-257
-257
-256
-256
-256
-256
-256
-255
-255
-255
-255
-255
-255
-256
-256
-256
-256
-256
-256
-256
-256
-256
-256
-256
-256
-256
-256
-256
-256
-256
-256
-255
-255
-255
-255
-255
-254
-254
-254
-254
-255
-255
-255
-254
-254
-254
-254
-254
-254
-254
-254
-254
-253
-253
-253
-253
-252
-252
-251
-251
-251
-251
-250
-250
-250
-250
-249
-249
-249
-249
-249
-249
-249
-249
-249
-250
-250
-250
-250
-250
-250
-250
-250
-250
-250
-250
-250
-250
-250
-250
-250
-249
-249
-249
-248
-248
-247
-247
-247
-246
-246
-245
-245
-245
-244
-244
-244
-244
-244
-244
-244
-243
-243
-243
-242
-242
-241
-241
-240
-241
-240
-240
-239
-239
-238
-237
-236
-236
-235
-235
-234
-233
-232
-232
-231
-231
-229
-229
-228
-228
-227
-226
-226
-225
-225
-224
-224
-224
-223
-223
-223
-223
-223
-222
-222
-223
-223
-223
-223
-223
-223
-223
-222
-221
-222
-222
-221
-221
-220
-220
-219
-218
-217
-217
-217
-216
-216
-216
-216
-215
-215
-216
-215
-216
-215
-216
-216
-216
-217
-218
-219
-219
-220
-221
-221
-222
-222
-223
-224
-225
-225
-225
-226
-226
-226
-227
-227
-228
-228
-228
-228
-229
-230
-230
-231
-230
-231
-232
-232
-232
-232
-233
-234
-234
-235
-235
-235
-235
-236
-236
-236
-236
-236
-235
-236
-236
-236
-236
-236
-236
-236
-236
-236
-236
-236
-235
-235
-235
-234
-234
-234
-233
-234
-234
-234
-233
-233
-233
-232
-232
-232
-232
-231
-231
-231
-231
-230
-229
-229
-229
-229
-229
-228
-228
-228
-228
-227
-227
-227
-227
-226
-226
-226
-226
-226
-226
-227
-227
-227
-227
-228
-228
-229
-230
-230
-231
-230
-230
-229
-227
-225
-222
-218
-213
-207
-200
-192
-182
-171
-157
-143
-125
-107
-86
-65
-41
-18
8
35
64
93
123
153
184
214
241
269
293
317
337
354
368
380
386
389
388
380
367
346
321
292
257
222
183
143
101
58
15
-29
-72
-112
-152
-189
-222
-253
-278
-299
-317
-329
-338
-343
-344
-343
-339
-332
-323
-313
-304
-292
-281
-270
-259
-249
-240
-231
-223
-215
-210
-204
-200
-196
-193
-190
-189
-188
-187
-187
-187
-187
-187
-189
-189
-190
-191
-191
-192
-193
-193
-194
-194
-195
-195
-195
-196
-196
-196
-196
-196
-196
-196
-196
-196
-195
-195
-195
-195
-194
-194
-193
-193
-193
-192
-192
-191
-191
-191
-190
-189
-189
-189
-189
-188
-188
-188
-188
-187
-187
-187
-186
-185
-185
-185
-184
-184
-184
-184
-183
-183
-183
-182
-182
-182
-182
-181
-181
-181
-180
-179
-179
-179
-178
-178
-177
-177
-177
-176
-176
-175
-175
-174
-174
-173
-173
-173
-172
-172
-171
-171
-170
-170
-169
-169
-169
-168
-168
-168
-167
-167
-167
-166
-166
-165
-165
-165
-164
-164
-164
-163
-163
-162
-162
-161
-161
-160
-160
-160
-159
-159
-158
-158
-157
-157
-157
-157
-156
-156
-156
-156
-156
-155
-155
-155
-154
-154
-154
-153
-153
-153
-152
-152
-151
-151
-151
-150
-149
-148
-148
-147
-147
-146
-146
-145
-145
-144
-144
-143
-143
-142
-142
-141
-141
-140
-140
-139
-139
-138
-138
-137
-137
-137
-136
-136
-135
-135
-135
-134
-134
-133
-133
-132
-132
-131
-130
-130
-130
-130
-129
-128
-128
-127
-126
-125
-125
-124
-123
-123
-122
-122
-121
-120
-120
-119
-119
-118
-117
-117
-116
-116
-115
-115
-114
-113
-112
-112
-111
-111
-109
-108
-108
-107
-106
-105
-105
-104
-103
-102
-102
-101
-100
-99
-98
-97
-96
-95
-94
-94
-93
-92
-91
-90
-90
-89
-88
-88
-87
-86
-85
-84
-83
-83
-82
-82
-81
-80
-79
-79
-78
-77
-76
-76
-75
-74
-73
-72
-71
-70
-69
-68
-67
-66
-65
-64
-64
-63
-62
-62
-60
-59
-59
-58
-57
-57
-56
-55
-55
-54
-53
-53
-52
-51
-50
-49
-48
-48
-47
-46
-46
-46
-45
-44
-43
-42
-42
-41
-39
-39
-38
-38
-37
-37
-36
-36
-35
-35
-34
-34
-33
-33
-33
-33
-32
-32
-32
-31
-31
-31
-31
-30
-30
-30
-29
-29
-29
-28
-29
-29
-29
-29
-29
-29
-29
-30
-30
-30
-31
-32
-32
-33
-33
-34
-35
-37
-37
-38
-40
-41
-42
-43
-45
-46
-47
-48
-50
-51
-53
-55
-57
-59
-60
-62
-64
-66
-68
-70
-72
-75
-77
-79
-81
-83
-85
-88
-90
-92
-94
-97
-99
-101
-103
-105
-107
-110
-112
-114
-116
-118
-121
-123
-124
-126
-128
-130
-133
-135
-136
-138
-139
-141
-143
-145
-146
-147
-150
-151
-152
-153
-154
-155
-156
-158
-159
-160
-161
-162
-162
-163
-164
-166
-166
-166
-167
-167
-169
-169
-169
-170
-170
-170
-172
-172
-172
-173
-173
-173
-173
-173
-173
-174
-174
-174
-175
-175
-175
-175
-175
-174
-174
-175
-175
-174
-174
-175
-174
-174
-173
-173
-173
-173
-173
-172
-172
-172
-171
-171
-171
-170
-170
-170
-169
-169
-169
-168
-168
-167
-167
-167
-167
-167
-166
-165
-165
-165
-165
-165
-164
-164
-164
-164
-163
-163
-163
-163
-163
-163
-163
-163
-162
-162
-162
-162
-161
-161
-160
-160
-161
-160
-160
-159
-159
-158
-158
-158
-158
-157
-157
-157
-157
-157
-157
-157
-156
-156
-156
-156
-157
-157
-156
-156
-157
-157
-157
-157
-157
-156
-156
-156
-156
-155
-155
-156
-156
-155
-155
-155
-155
-155
-155
-155
-155
-155
-155
-155
-155
-155
-155
-156
-156
-156
-156
-156
-155
-155
-155
-155
-155
-155
-155
-155
-155
-155
-155
-155
-155
-155
-155
-155
-155
-155
-155
-155
-156
-156
-156
-156
-157
-157
-157
-157
-158
-158
-158
-158
-159
-159
-159
-159
-159
-159
-159
-159
-159
-159
-159
-159
-159
-159
-159
-159
-159
-160
-160
-160
-160
-160
-160
-160
-160
-161
-161
-161
-161
-161
-162
-162
-162
-162
-162
-162
-162
-162
-162
-162
-162
-162
-162
-162
-162
-161
-161
-161
-162
-162
-161
-161
-161
-161
-161
-160
-160
-161
-161
-161
-161
-161
-161
-161
-160
-161
-161
-161
-161
-161
-161
-161
-161
-161
-161
-161
-161
-161
-161
-161
-161
-161
-161
-161
-161
-161
-161
-161
-161
-161
-161
-161
-161
-161
-161
-161
-161
-161
-161
-160
-160
-160
-160
-160
-161
-160
-160
-160
-159
-160
-159
-159
-159
-159
-159
-158
-159
-158
-158
-157
-157
-157
-156
-156
-156
-155
-155
-155
-155
-155
-155
-155
-155
-155
-154
-155
-155
-155
-155
-155
-155
-155
-154
-154
-154
-155
-154
-154
-154
-154
-153
-153
-153
-154
-154
-154
-154
-154
-154
-154
-154
-154
-154
-154
-154
-154
-154
-154
-154
-154
-154
-154
-154
-154
-154
-154
-154
-154
-154
-154
-154
-154
-153
-153
-153
-153
-153
-153
-154
-154
-154
-154
-154
-154
-154
-154
-154
-154
-154
-154
-154
-154
-154
-154
-153
-153
-153
-153
-153
-153
-153
-153
-153
-153
-153
-153
-153
-153
-153
-153
-152
-152
-152
-152
-152
-153
-153
-153
-153
-153
-152
-152
-152
-152
-152
-152
-152
-152
-151
-151
-151
-151
-151
-151
-151
-151
-152
-152
-151
-151
-151
-151
-151
-152
-152
-152
-152
-152
-151
-151
-151
-151
-151
-151
-151
-151
-151
-152
-152
-151
-151
-151
-151
-151
-151
-151
-151
-151
-151
-151
-150
-150
-150
-151
-151
-151
-151
-150
-150
-150
-150
-150
-150
-150
-150
-150
-149
-149
-148
-148
-149
-148
-148
-148
-147
-148
-148
-148
-148
-148
-148
-148
-148
-148
-148
-148
-148
-147
-148
-148
-148
-148
-148
-149
-149
-149
-149
-149
-148
-148
-148
-148
-148
-148
-147
-147
-147
-147
-147
-146
-146
-147
-147
-147
-146
-146
-146
-146
-146
-146
-146
-146
-146
-146
-146
-146
-146
-146
-146
-146
-146
-146
-146
-146
-145
-145
-145
-145
-145
-144
-144
-145
-145
-145
-145
-145
-145
-145
-145
-145
-145
-145
-145
-145
-144
-144
-144
-145
-145
-145
-145
-145
-144
-144
-144
-144
-144
-144
-144
-144
-144
-144
-144
-144
-144
-144
-144
-144
-144
-144
-144
-144
-144
-144
-144
-144
-144
-144
-144
-144
-144
-144
-144
-144
-143
-143
-143
-143
-143
-143
-143
-143
-143
-142
-142
-142
-142
-142
-143
-143
-143
-143
-143
-143
-143
-143
-143
-143
-143
-143
-143
-143
-143
-143
-141
-141
-141
-141
-141
-141
-141
-141
-140
-140
-140
-140
-141
-141
-141
-141
-141
-141
-141
-141
-141
-141
-141
-141
-141
-141
-141
-141
-141
-141
-141
-140
-140
-140
-140
-140
-140
-139
-139
-139
-139
-139
-139
-138
-138
-138
-138
-137
-137
-138
-138
-138
-138
-138
-137
-137
-137
-137
-136
-136
-136
-136
-137
-137
-137
-137
-137
-137
-137
-137
-137
-136
-136
-136
-136
-136
-136
-137
-136
-136
-136
-136
-135
-135
-135
-135
-134
-134
-135
-135
-135
-135
-135
-135
-135
-135
-135
-134
-134
-134
-134
-134
-134
-134
-134
-134
-134
-134
-133
-133
-133
-133
-133
-133
-133
-133
-133
-132
-133
-133
-133
-133
-132
-132
-131
-131
-131
-131
-131
-131
-131
-131
-131
-131
-131
-131
-131
-131
-130
-130
-130
-130
-130
-130
-130
-130
-130
-130
-130
-129
-130
-130
-130
-130
-130
-130
-130
-130
-130
-130
-130
-130
-130
-131
-131
-131
-130
-130
-131
-131
-131
-131
-131
-131
-130
-130
-129
-129
-129
-129
-128
-128
-127
-126
-126
-125
-125
-124
-124
-123
-122
-121
-121
-120
-120
-119
-118
-118
-117
-116
-116
-115
-115
-115
-114
-114
-113
-113
-112
-111
-112
-111
-111
-111
-110
-110
-109
-109
-109
-109
-109
-109
-109
-108
-108
-108
-108
-108
-108
-108
-108
-108
-108
-108
-109
-109
-108
-108
-108
-107
-107
-106
-106
-105
-105
-104
-105
-104
-104
-104
-104
-103
-104
-104
-104
-105
-105
-105
-106
-106
-107
-107
-108
-108
-109
-109
-110
-111
-111
-112
-113
-113
-113
-114
-114
-114
-115
-115
-115
-116
-117
-117
-117
-117
-119
-119
-119
-119
-121
-121
-121
-121
-122
-123
-123
-123
-123
-123
-124
-124
-124
-124
-124
-124
-124
-125
-125
-125
-125
-125
-125
-125
-125
-125
-125
-125
-125
-125
-125
-125
-125
-125
-125
-125
-125
-124
-124
-124
-124
-124
-124
-124
-123
-123
-123
-124
-124
-123
-123
-123
-123
-122
-122
-122
-121
-120
-120
-119
-119
-119
-118
-118
-118
-118
-118
-118
-119
-118
-119
-120
-121
-122
-123
-124
-125
-125
-125
-125
-124
-123
-120
-117
-113
-108
-102
-94
-86
-75
-63
-50
-35
-17
3
24
46
71
96
123
151
181
212
242
274
304
334
363
390
415
438
458
476
491
501
508
511
509
501
487
467
441
411
379
343
304
265
222
180
136
93
51
9
-30
-67
-100
-130
-155
-177
-194
-208
-217
-222
-225
-224
-221
-215
-208
-199
-190
-180
-170
-159
-150
-141
-132
-123
-117
-110
-104
-100
-95
-92
-89
-87
-86
-86
-84
-84
-84
-85
-85
-86
-88
-88
-89
-90
-91
-92
-92
-93
-93
-95
-95
-96
-96
-96
-96
-96
-96
-97
-97
-96
-96
-96
-96
-95
-95
-95
-95
-94
-94
-94
-94
-93
-93
-93
-93
-93
-92
-92
-92
-92
-91
-90
-90
-90
-90
-89
-89
-89
-88
-88
-88
-87
-87
-87
-86
-86
-85
-84
-83
-83
-82
-83
-83
-82
-82
-82
-81
-81
-81
-80
-80
-80
-80
-80
-80
-79
-79
-79
-78
-78
-78
-78
-78
-77
-77
-77
-77
-76
-76
-75
-75
-75
-74
-74
-73
-73
-73
-72
-72
-72
-71
-71
-71
-71
-71
-71
-71
-70
-70
-70
-70
-70
-69
-69
-69
-69
-68
-68
-68
-68
-67
-67
-67
-67
-65
-65
-65
-64
-64
-63
-63
-62
-62
-61
-61
-60
-60
-60
-59
-60
-59
-59
-59
-58
-58
-57
-57
-56
-56
-56
-55
-55
-54
-54
-53
-53
-53
-53
-52
-52
-52
-51
-51
-51
-51
-50
-50
-50
-50
-49
-49
-49
-48
-48
-48
-47
-47
-46
-46
-45
-44
-44
-43
-43
-42
-42
-41
-40
-40
-39
-38
-39
-38
-37
-37
-35
-34
-34
-33
-33
-32
-32
-31
-30
-29
-28
-28
-27
-27
-26
-26
-25
-25
-24
-24
-23
-22
-22
-21
-21
-20
-19
-19
-18
-18
-17
-16
-16
-15
-14
-14
-13
-12
-10
-10
-9
-8
-8
-7
-6
-5
-5
-4
-3
-2
-1
-1
0
1
2
3
3
4
5
5
6
7
8
9
9
10
12
13
13
14
15
16
17
18
18
19
20
21
22
23
24
26
27
27
28
29
30
31
32
33
34
34
35
36
37
38
38
39
40
41
42
43
44
44
45
46
47
47
48
49
49
50
51
51
52
52
53
53
54
54
56
56
56
57
57
57
58
58
58
58
58
59
59
59
59
59
59
59
58
58
58
57
57
56
56
55
54
53
52
52
51
50
49
48
47
45
44
43
42
40
38
36
35
33
32
30
28
26
24
22
20
17
15
13
11
9
7
5
3
0
-2
-4
-6
-8
-10
-12
-15
-17
-19
-21
-23
-26
-28
-30
-32
-35
-36
-38
-41
-42
-44
-47
-48
-50
-52
-54
-56
-57
-58
-61
-62
-63
-66
-67
-68
-69
-70
-71
-72
-74
-75
-76
-77
-77
-78
-79
-81
-82
-82
-83
-84
-84
-85
-86
-87
-88
-88
-89
-90
-90
-90
-91
-91
-91
-92
-93
-93
-93
-93
-93
-93
-93
-94
-94
-94
-95
-95
-95
-95
-95
-95
-95
-95
-95
-95
-96
-96
-96
-96
-96
-96
-95
-95
-95
-95
-95
-95
-95
-95
-96
-95
-95
-95
-95
-95
-94
-94
-94
-94
-94
-93
-92
-93
-93
-93
-93
-93
-92
-92
-91
-91
-91
-91
-90
-90
-90
-90
-90
-89
-89
-89
-88
-88
-88
-88
-87
-87
-87
-87
-87
-87
-87
-87
-87
-87
-87
-87
-87
-87
-87
-87
-87
-87
-87
-87
-87
-87
-87
-87
-87
-87
-87
-87
-87
-87
-87
-87
-87
-87
-87
-87
-86
-86
-86
-86
-86
-86
-86
-86
-86
-86
-86
-86
-87
-87
-86
-86
-86
-86
-86
-86
-87
-87
-87
-87
-87
-87
-87
-87
-88
-88
-87
-87
-87
-88
-88
-89
-89
-90
-90
-90
-90
-91
-91
-91
-91
-92
-92
-92
-93
-93
-93
-93
-93
-93
-93
-93
-93
-93
-93
-93
-93
-93
-93
-93
-93
-93
-93
-93
-94
-95
-95
-95
-95
-95
-95
-95
-96
-96
-96
-96
-96
-95
-95
-96
-96
-96
-96
-96
-96
-96
-96
-96
-96
-96
-96
-96
-96
-96
-96
-96
-96
-96
-96
-96
-96
-95
-96
-96
-96
-96
-95
-95
-95
-96
-96
-96
-96
-96
-96
-96
-96
-96
-96
-96
-97
-97
-97
-97
-97
-97
-97
-97
-97
-97
-97
-98
-98
-98
-98
-98
-98
-98
-98
-97
-97
-97
-97
-97
-97
-96
-96
-96
-96
-96
-97
-97
-97
-97
-97
-97
-97
-97
-97
-96
-96
-96
-96
-97
-97
-97
-97
-97
-97
-97
-97
-97
-97
-97
-97
-97
-97
-96
-96
-96
-96
-96
-96
-96
-96
-96
-96
-95
-95
-95
-95
-96
-96
-95
-95
-95
-95
-95
-95
-95
-95
-95
-95
-95
-95
-95
-95
-95
-95
-95
-95
-95
-95
-96
-96
-96
-96
-96
-96
-96
-96
-96
-96
-96
-96
-95
-95
-95
-96
-96
-96
-96
-96
-96
-96
-96
-95
-95
-95
-96
-96
-96
-95
-95
-95
-95
-95
-95
-94
-94
-94
-94
-94
-94
-94
-94
-94
-94
-95
-95
-95
-95
-95
-95
-95
-95
-95
-95
-95
-95
-95
-95
-95
-95
-95
-95
-95
-94
-94
-94
-94
-94
-94
-94
-94
-94
-94
-94
-94
-94
-94
-94
-94
-94
-94
-94
-94
-94
-94
-94
-94
-94
-94
-94
-94
-94
-94
-94
-94
-94
-94
-94
-94
-94
-94
-94
-94
-94
-94
-94
-94
-94
-94
-93
-93
-93
-93
-93
-93
-92
-92
-92
-92
-92
-93
-93
-93
-93
-93
-93
-93
-93
-93
-93
-93
-93
-93
-92
-92
-93
-93
-93
-93
-93
-93
-93
-93
-93
-93
-93
-93
-92
-92
-92
-92
-92
-92
-92
-92
-92
-92
-92
-92
-92
-92
-92
-92
-92
-92
-92
-93
-93
-92
-92
-92
-92
-92
-92
-92
-93
-93
-93
-93
-92
-93
-93
-93
-93
-93
-93
-93
-93
-93
-93
-93
-93
-93
-93
-94
-93
-93
-93
-92
-93
-93
-93
-93
-92
-92
-92
-92
-92
-92
-92
-92
-92
-92
-92
-92
-92
-91
-91
-91
-91
-91
-91
-92
-92
-92
-92
-92
-92
-92
-92
-92
-92
-92
-92
-92
-92
-92
-92
-92
-92
-92
-92
-92
-92
-93
-93
-93
-93
-92
-92
-92
-92
-92
-92
-91
-91
-91
-91
-91
-91
-90
-91
-91
-91
-91
-91
-91
-91
-90
-90
-90
-91
-91
-91
-91
-91
-91
-91
-91
-91
-91
-91
-91
-91
-91
-91
-91
-91
-91
-91
-91
-91
-91
-91
-91
-91
-91
-90
-90
-90
-90
-90
-90
-91
-91
-90
-90
-90
-90
-90
-90
-90
-90
-90
-90
-90
-90
-90
-90
-90
-90
-90
-90
-90
-90
-90
-90
-90
-90
-90
-90
-90
-90
-90
-90
-90
-90
-90
-90
-90
-90
-90
-90
-90
-90
-90
-90
-90
-90
-90
-90
-90
-90
-90
-90
-90
-90
-90
-90
-91
-91
-91
-91
-91
-90
-90
-90
-90
-91
-91
-91
-91
-91
-91
-91
-91
-91
-91
-91
-91
-91
-91
-91
-91
-91
-91
-91
-91
-90
-90
-90
-90
-90
-90
-90
-90
-90
-90
-90
-90
-90
-90
-90
-90
-90
-90
-90
-90
-90
-90
-91
-91
-91
-91
-91
-91
-91
-90
-90
-90
-90
-90
-90
-90
-90
-90
-90
-90
-90
-90
-90
-90
-90
-90
-90
-90
-90
-90
-90
-90
-90
-90
-90
-90
-90
-90
-90
-90
-90
-90
-90
-90
-90
-90
-90
-90
-90
-90
-90
-90
-90
-90
-90
-90
-90
-90
-90
-90
-90
-90
-89
-89
-89
-89
-89
-89
-89
-90
-90
-89
-89
-89
-89
-89
-89
-89
-89
-89
-89
-89
-89
-89
-89
-89
-89
-89
-89
-89
-89
-89
-89
-89
-89
-89
-89
-89
-89
-90
-90
-90
-90
-90
-90
-89
-89
-89
-89
-89
-89
-89
-89
-89
-89
-89
-89
-89
-89
-90
-90
-90
-90
-90
-90
-90
-90
-89
-89
-89
-89
-89
-90
-90
-90
-90
-90
-90
-89
-89
-89
-89
-89
-89
-89
-89
-89
-89
-89
-89
-89
-90
-90
-89
-89
-89
-89
-89
-89
-89
-89
-89
-89
-89
-88
-88
-88
-88
-88
-88
-89
-89
-88
-88
-88
-88
-88
-88
-88
-87
-87
-87
-87
-87
-87
-87
-87
-87
-86
-86
-87
-87
-87
-87
-87
-87
-86
-86
-86
-85
-85
-84
-84
-84
-84
-83
-83
-82
-81
-81
-81
-80
-79
-79
-78
-77
-77
-76
-75
-75
-75
-74
-74
-73
-73
-72
-73
-73
-72
-72
-71
-71
-71
-71
-71
-70
-70
-70
-70
-70
-70
-70
-70
-71
-71
-71
-71
-70
-70
-71
-71
-71
-70
-70
-71
-70
-70
-70
-69
-69
-69
-69
-69
-69
-69
-68
-69
-69
-69
-69
-69
-69
-70
-71
-71
-71
-72
-72
-73
-74
-75
-75
-76
-76
-78
-78
-79
-79
-81
-81
-81
-83
-83
-83
-84
-84
-85
-86
-86
-86
-86
-88
-88
-88
-88
-88
-89
-90
-90
-91
-91
-91
-91
-91
-91
-92
-92
-92
-92
-93
-93
-93
-93
-93
-92
-93
-93
-93
-93
-94
-93
-93
-93
-93
-93
-93
-93
-93
-94
-94
-94
-93
-93
-93
-93
-93
-93
-92
-92
-92
-92
-91
-91
-91
-91
-91
-91
-91
-91
-91
-91
-90
-89
-89
-89
-90
-90
-90
-90
-90
-90
-90
-90
-91
-91
-92
-92
-92
-93
-93
-93
-94
-93
-92
-91
-89
-87
-83
-80
-74
-68
-61
-51
-41
-29
-16
0
17
36
57
78
102
127
152
180
208
237
267
296
325
354
382
407
432
454
474
492
506
517
524
527
527
520
509
492
470
443
414
381
345
308
268
229
187
146
106
66
28
-8
-42
-71
-97
-120
-139
-153
-163
-172
-176
-176
-176
-172
-167
-160
-152
-143
-134
-126
-117
-109
-100
-94
-87
-82
-76
-72
-69
-65
-64
-61
-60
-60
-60
-59
-59
-60
-60
-61
-63
-64
-65
-66
-67
-68
-69
-69
-70
-71
-71
-71
-72
-72
-72
-72
-72
-73
-73
-73
-73
-73
-73
-72
-72
-72
-72
-71
-71
-72
-72
-72
-71
-70
-70
-70
-70
-70
-70
-70
-69
-69
-69
-69
-69
-69
-68
-68
-68
-68
-68
-68
-68
-68
-67
-67
-67
-66
-66
-66
-66
-65
-65
-65
-64
-64
-63
-63
-63
-62
-62
-62
-61
-61
-61
-61
-60
-60
-60
-60
-59
-58
-58
-58
-58
-58
-58
-58
-57
-57
-57
-57
-57
-56
-56
-56
-55
-55
-55
-55
-55
-55
-55
-55
-54
-54
-54
-54
-53
-53
-53
-52
-52
-52
-51
-51
-51
-49
-49
-49
-48
-48
-47
-47
-47
-47
-46
-46
-46
-46
-45
-45
-45
-45
-45
-45
-45
-45
-44
-44
-43
-43
-43
-43
-43
-43
-42
-42
-42
-42
-41
-41
-40
-40
-39
-39
-38
-38
-37
-37
-36
-36
-35
-35
-35
-35
-34
-34
-34
-33
-33
-33
-32
-32
-32
-32
-31
-31
-30
-30
-29
-29
-29
-28
-28
-28
-27
-26
-26
-26
-26
-25
-25
-24
-23
-23
-23
-22
-22
-22
-21
-21
-20
-19
-19
-18
-18
-18
-17
-17
-16
-15
-15
-14
-13
-13
-12
-11
-11
-10
-9
-8
-8
-9
-8
-7
-6
-6
-6
-5
-5
-4
-3
-3
-2
-2
-1
-1
0
1
1
2
2
3
3
4
6
6
7
7
8
8
9
9
10
10
11
11
12
13
13
14
14
15
16
17
18
19
19
20
21
22
23
23
23
24
26
27
27
28
28
29
29
30
30
31
31
33
33
33
34
34
35
35
36
36
37
37
38
38
38
38
38
40
39
40
40
41
41
42
42
43
43
43
44
44
44
44
44
45
45
45
46
46
46
47
47
47
47
47
46
47
47
47
47
47
47
47
46
46
46
46
46
46
45
44
43
43
42
42
41
40
40
39
37
36
35
34
33
31
29
28
26
25
23
22
20
19
17
15
14
12
10
9
7
5
4
2
1
-2
-3
-5
-6
-8
-10
-11
-13
-15
-16
-18
-19
-22
-23
-24
-25
-27
-29
-30
-31
-33
-35
-36
-37
-38
-40
-42
-43
-44
-45
-47
-48
-49
-50
-51
-52
-54
-54
-55
-56
-57
-58
-60
-60
-61
-62
-63
-64
-65
-66
-66
-67
-67
-68
-69
-70
-70
-70
-71
-71
-72
-72
-72
-73
-73
-73
-73
-73
-73
-73
-73
-73
-74
-75
-75
-75
-74
-74
-74
-74
-74
-74
-74
-74
-75
-75
-75
-74
-74
-74
-74
-74
-73
-74
-74
-74
-74
-73
-73
-73
-73
-72
-72
-72
-71
-71
-71
-71
-70
-70
-70
-70
-70
-70
-69
-69
-69
-69
-70
-70
-70
-70
-70
-70
-70
-70
-70
-70
-70
-70
-70
-70
-69
-69
-69
-69
-69
-69
-69
-69
-69
-69
-69
-69
-69
-69
-70
-70
-70
-70
-69
-69
-69
-69
-69
-69
-69
-69
-69
-69
-69
-69
-69
-70
-70
-70
-70
-70
-69
-69
-69
-69
-70
-70
-70
-71
-71
-71
-72
-72
-72
-71
-72
-72
-72
-72
-73
-73
-73
-73
-74
-74
-74
-74
-74
-74
-74
-74
-74
-75
-75
-75
-76
-76
-76
-77
-77
-77
-78
-78
-78
-78
-78
-79
-79
-79
-79
-79
-79
-80
-80
-80
-80
-80
-80
-80
-80
-80
-81
-80
-81
-81
-81
-81
-81
-81
-81
-81
-81
-81
-82
-82
-82
-82
-82
-82
-82
-82
-82
-82
-83
-83
-83
-83
-83
-83
-83
-83
-83
-83
-83
-83
-83
-83
-83
-83
-83
-84
-84
-83
-83
-83
-83
-84
-84
-84
-85
-85
-85
-85
-85
-85
-85
-85
-86
-86
-86
-86
-86
-86
-86
-86
-86
-86
-86
-85
-85
-85
-85
-85
-85
-85
-85
-86
-86
-86
-86
-86
-86
-86
-86
-86
-86
-86
-86
-86
-86
-86
-86
-86
-86
-86
-86
-86
-86
-85
-85
-85
-86
-86
-86
-86
-86
-86
-87
-87
-87
-87
-87
-88
-88
-88
-88
-88
-88
-89
-89
-89
-89
-89
-89
-89
-89
-89
-88
-88
-88
-88
-88
-88
-88
-88
-87
-87
-88
-88
-88
-88
-88
-88
-88
-88
-88
-88
-88
-88
-88
-88
-88
-88
-88
-88
-88
-89
-89
-89
-89
-89
-89
-89
-89
-90
-90
-89
-89
-89
-89
-89
-89
-89
-89
-88
-88
-88
-88
-88
-88
-89
-89
-89
-89
-89
-89
-89
-89
-90
-90
-90
-91
-90
-90
-90
-91
-91
-91
-91
-92
-91
-91
-91
-91
-91
-91
-91
-91
-91
-90
-91
-91
-91
-90
-90
-90
-90
-90
-90
-90
-90
-90
-90
-90
-90
-90
-90
-89
-89
-89
-90
-90
-90
-90
-90
-90
-90
-90
-90
-90
-90
-91
-91
-91
-91
-91
-91
-91
-91
-91
-91
-91
-91
-91
-91
-91
-91
-92
-92
-92
-91
-91
-91
-90
-90
-90
-90
-90
-90
-90
-90
-90
-90
-90
-90
-90
-90
-91
-91
-91
-91
-91
-91
-91
-91
-90
-90
-90
-90
-90
-91
-91
-91
-91
-91
-91
-91
-91
-91
-92
-92
-91
-91
-91
-91
-91
-91
-90
-90
-90
-90
-89
-89
-89
-89
-89
-89
-89
-89
-89
-89
-89
-89
-89
-89
-89
-89
-89
-89
-89
-89
-89
-89
-89
-89
-89
-89
-89
-89
-89
-89
-89
-89
-89
-89
-89
-90
-89
-89
-89
-89
-89
-89
-89
-89
-89
-89
-90
-90
-90
-90
-90
-90
-90
-90
-90
-90
-90
-90
-90
-90
-90
-90
-90
-90
-90
-89
-89
-89
-89
-89
-88
-88
-88
-88
-88
-88
-88
-88
-88
-88
-88
-88
-88
-88
-88
-88
-88
-88
-88
-88
-88
-88
-88
-88
-88
-88
-88
-88
-88
-88
-88
-87
-87
-87
-87
-87
-86
-86
-86
-86
-86
-86
-85
-86
-86
-86
-86
-86
-85
-85
-85
-86
-86
-86
-86
-86
-86
-87
-87
-87
-87
-87
-87
-87
-87
-88
-88
-88
-87
-87
-87
-87
-87
-87
-87
-87
-87
-87
-87
-87
-87
-87
-87
-87
-87
-87
-87
-87
-87
-87
-87
-88
-87
-87
-87
-87
-87
-87
-87
-87
-87
-87
-86
-86
-86
-86
-86
-86
-86
-86
-86
-86
-86
-86
-86
-87
-87
-87
-87
-86
-86
-86
-86
-86
-86
-86
-86
-86
-85
-85
-85
-85
-85
-86
-85
-85
-85
-85
-84
-84
-84
-84
-85
-85
-85
-85
-85
-85
-85
-85
-85
-85
-86
-86
-86
-86
-86
-86
-86
-86
-85
-85
-85
-85
-85
-85
-85
-85
-85
-84
-84
-84
-84
-84
-84
-84
-84
-84
-84
-84
-84
-84
-83
-83
-83
-83
-83
-84
-84
-83
-83
-83
-83
-83
-83
-83
-83
-83
-83
-83
-83
-83
-83
-83
-83
-83
-83
-83
-83
-83
-83
-83
-82
-82
-82
-82
-82
-82
-82
-82
-81
-81
-81
-81
-81
-81
-81
-81
-82
-82
-82
-82
-82
-82
-83
-83
-83
-82
-82
-82
-82
-82
-82
-82
-82
-82
-82
-82
-82
-82
-82
-82
-82
-81
-81
-81
-81
-81
-80
-80
-80
-80
-79
-79
-79
-78
-78
-78
-77
-77
-76
-75
-75
-74
-73
-73
-72
-72
-71
-70
-70
-69
-69
-68
-68
-68
-68
-67
-67
-66
-66
-65
-65
-64
-65
-64
-64
-63
-63
-62
-62
-62
-61
-62
-61
-61
-61
-61
-60
-60
-59
-59
-59
-60
-60
-60
-59
-59
-59
-59
-58
-58
-57
-57
-56
-56
-56
-56
-55
-56
-55
-56
-56
-56
-56
-56
-57
-56
-57
-58
-59
-60
-61
-61
-62
-63
-64
-64
-65
-66
-66
-67
-67
-69
-69
-69
-70
-71
-71
-71
-72
-73
-73
-74
-74
-74
-74
-75
-76
-76
-76
-76
-77
-77
-78
-78
-78
-78
-78
-79
-79
-79
-79
-79
-80
-81
-81
-81
-81
-81
-81
-81
-81
-81
-81
-81
-81
-81
-81
-81
-81
-81
-80
-80
-80
-80
-80
-80
-80
-81
-81
-81
-81
-81
-81
-80
-80
-81
-81
-81
-80
-80
-80
-80
-80
-80
-80
-80
-79
-79
-79
-78
-77
-77
-77
-77
-77
-76
-76
-77
-77
-77
-78
-79
-79
-80
-81
-82
-82
-82
-82
-81
-79
-76
-73
-68
-63
-56
-49
-40
-28
-16
-2
14
33
52
73
97
120
146
173
201
230
259
290
321
350
378
406
431
455
477
495
511
523
532
536
536
530
519
501
478
449
417
381
343
304
262
219
176
132
89
46
5
-33
-68
-99
-126
-149
-168
-182
-192
-198
-201
-200
-196
-191
-183
-173
-164
-153
-141
-131
-119
-109
-100
-92
-83
-75
-69
-64
-59
-55
-52
-49
-47
-46
-45
-45
-45
-45
-45
-46
-47
-48
-48
-49
-50
-51
-51
-52
-53
-54
-54
-54
-54
-55
-55
-55
-56
-56
-56
-56
-55
-55
-55
-55
-55
-55
-55
-54
-54
-55
-54
-54
-54
-53
-53
-53
-52
-52
-52
-51
-51
-51
-50
-49
-49
-49
-49
-48
-48
-48
-48
-47
-46
-46
-46
-45
-45
-45
-45
-45
-44
-43
-43
-43
-42
-42
-42
-42
-41
-41
-41
-40
-40
-40
-39
-39
-39
-39
-38
-38
-37
-37
-37
-36
-36
-36
-36
-36
-35
-35
-35
-34
-34
-33
-33
-33
-33
-33
-32
-32
-32
-31
-31
-31
-30
-30
-29
-29
-29
-28
-29
-28
-28
-27
-27
-27
-26
-26
-25
-25
-25
-25
-24
-23
-23
-23
-23
-22
-22
-22
-21
-21
-21
-21
-20
-20
-20
-19
-19
-19
-19
-19
-18
-18
-18
-18
-17
-17
-17
-16
-16
-16
-15
-15
-15
-14
-14
-14
-13
-13
-13
-12
-12
-12
-12
-11
-10
-10
-9
-9
-9
-8
-8
-7
-7
-7
-6
-6
-5
-4
-4
-3
-2
-2
-1
0
1
1
2
3
3
4
4
5
5
5
6
6
7
8
8
8
9
9
10
10
10
11
11
12
13
13
13
14
15
15
16
17
17
18
19
20
20
21
22
23
23
24
25
25
26
27
27
28
28
29
30
30
31
32
32
34
34
35
35
36
37
37
38
40
40
41
42
43
44
44
45
46
47
48
49
49
50
51
52
53
54
55
55
56
57
59
59
60
61
61
62
63
64
64
66
67
67
68
69
70
71
72
72
73
74
75
75
76
76
76
77
79
79
80
80
81
81
81
82
82
82
83
84
84
84
84
86
86
87
87
88
88
88
89
89
90
90
90
91
91
92
92
92
92
93
93
93
93
93
93
93
92
92
92
92
91
91
91
90
90
89
88
87
86
85
83
83
81
80
78
77
75
74
72
71
69
67
65
63
61
58
56
54
52
50
48
45
43
41
39
37
34
32
30
27
25
23
21
19
16
14
12
10
7
6
4
2
-1
-3
-4
-7
-9
-11
-12
-14
-17
-19
-20
-22
-24
-26
-28
-29
-30
-33
-34
-35
-36
-37
-39
-40
-41
-42
-44
-45
-45
-47
-48
-48
-50
-50
-51
-52
-52
-54
-54
-55
-55
-55
-56
-56
-57
-57
-59
-59
-59
-60
-60
-60
-61
-61
-61
-61
-62
-62
-62
-62
-62
-62
-62
-62
-62
-62
-62
-62
-62
-62
-62
-61
-61
-61
-61
-60
-60
-60
-60
-59
-59
-59
-59
-58
-58
-58
-58
-58
-57
-57
-57
-57
-57
-57
-56
-56
-56
-56
-56
-56
-56
-56
-56
-55
-55
-55
-55
-55
-54
-54
-54
-54
-54
-54
-54
-54
-53
-53
-53
-53
-53
-53
-53
-52
-52
-52
-52
-52
-52
-52
-51
-51
-51
-51
-51
-51
-51
-51
-51
-51
-51
-51
-51
-51
-51
-51
-51
-51
-51
-52
-52
-52
-52
-51
-51
-51
-51
-51
-52
-52
-52
-52
-52
-52
-52
-52
-52
-52
-52
-53
-53
-53
-53
-53
-53
-54
-54
-54
-54
-54
-55
-55
-55
-55
-55
-55
-56
-56
-56
-56
-57
-57
-57
-57
-58
-58
-58
-58
-59
-59
-59
-59
-59
-60
-60
-60
-61
-61
-61
-61
-61
-62
-62
-62
-62
-63
-63
-63
-64
-63
-63
-63
-63
-64
-64
-64
-64
-65
-65
-65
-65
-65
-65
-65
-65
-65
-65
-65
-65
-65
-65
-65
-65
-65
-65
-66
-66
-66
-66
-66
-66
-66
-67
-67
-68
-68
-68
-68
-68
-68
-69
-69
-68
-68
-68
-68
-68
-68
-68
-68
-68
-68
-68
-68
-68
-70
-70
-70
-70
-69
-70
-70
-70
-71
-71
-71
-72
-72
-72
-72
-73
-73
-72
-72
-72
-72
-72
-72
-72
-72
-72
-72
-72
-72
-72
-72
-72
-71
-71
-71
-71
-72
-71
-71
-71
-72
-72
-72
-72
-72
-72
-72
-72
-72
-72
-72
-72
-72
-73
-73
-73
-73
-72
-72
-73
-73
-73
-73
-73
-73
-73
-73
-73
-73
-73
-73
-73
-74
-74
-74
-74
-74
-74
-74
-74
-74
-74
-74
-75
-75
-75
-75
-74
-74
-74
-74
-74
-74
-74
-74
-74
-74
-74
-74
-74
-75
-75
-75
-75
-75
-75
-75
-75
-75
-75
-75
-76
-76
-76
-76
-76
-76
-76
-76
-76
-76
-76
-75
-75
-75
-75
-75
-74
-75
-75
-75
-75
-74
-74
-74
-74
-74
-74
-74
-74
-74
-74
-74
-74
-74
-74
-74
-75
-75
-75
-75
-75
-75
-75
-75
-75
-75
-75
-75
-75
-75
-75
-75
-76
-75
-75
-75
-75
-76
-76
-76
-75
-76
-76
-76
-76
-76
-76
-76
-76
-76
-76
-76
-76
-76
-76
-76
-76
-75
-75
-75
-75
-75
-75
-75
-74
-74
-74
-74
-73
-74
-74
-74
-74
-74
-74
-74
-74
-74
-74
-75
-75
-75
-75
-75
-75
-75
-75
-75
-75
-75
-75
-75
-75
-75
-74
-74
-75
-75
-74
-74
-74
-74
-74
-73
-73
-73
-73
-73
-72
-72
-73
-73
-73
-73
-73
-73
-74
-74
-73
-73
-73
-74
-74
-74
-74
-74
-74
-74
-74
-75
-75
-74
-74
-74
-74
-74
-74
-74
-74
-75
-75
-75
-75
-75
-75
-75
-75
-75
-75
-76
-76
-76
-76
-75
-76
-76
-76
-76
-76
-76
-76
-76
-76
-76
-76
-76
-76
-76
-76
-76
-76
-75
-75
-75
-75
-75
-75
-75
-75
-75
-75
-75
-75
-75
-75
-75
-75
-75
-75
-75
-75
-75
-75
-75
-75
-75
-75
-75
-75
-75
-75
-75
-75
-75
-75
-75
-75
-75
-76
-76
-76
-76
-76
-76
-76
-76
-76
-75
-75
-75
-75
-75
-75
-75
-75
-75
-75
-75
-75
-75
-75
-75
-75
-75
-75
-75
-75
-75
-75
-75
-75
-76
-75
-75
-75
-75
-75
-74
-74
-74
-75
-75
-75
-75
-75
-75
-75
-75
-75
-75
-75
-75
-75
-75
-75
-75
-75
-75
-75
-75
-76
-76
-76
-75
-75
-75
-75
-75
-75
-75
-75
-75
-75
-75
-75
-75
-75
-75
-75
-75
-75
-75
-75
-75
-75
-75
-75
-75
-75
-75
-75
-75
-75
-75
-75
-75
-75
-75
-75
-75
-75
-75
-75
-75
-75
-76
-76
-76
-76
-76
-76
-76
-76
-76
-76
-77
-77
-77
-76
-76
-76
-77
-77
-77
-77
-77
-77
-76
-76
-76
-77
-77
-77
-77
-77
-77
-77
-77
-77
-77
-77
-77
-77
-77
-78
-78
-78
-77
-77
-77
-77
-77
-77
-77
-77
-77
-76
-76
-76
-76
-76
-76
-76
-76
-76
-76
-76
-76
-76
-76
-76
-76
-76
-76
-76
-76
-76
-76
-77
-77
-77
-77
-77
-77
-76
-76
-76
-76
-76
-76
-76
-75
-75
-75
-75
-75
-75
-75
-75
-75
-75
-76
-77
-77
-77
-76
-76
-76
-76
-76
-76
-76
-76
-76
-76
-76
-76
-76
-76
-76
-76
-75
-75
-75
-75
-75
-74
-74
-74
-74
-74
-74
-74
-73
-73
-73
-72
-72
-72
-72
-72
-71
-71
-71
-70
-70
-69
-69
-68
-68
-68
-67
-66
-66
-66
-66
-65
-64
-63
-63
-63
-63
-62
-62
-61
-61
-60
-60
-58
-58
-57
-57
-57
-57
-56
-56
-55
-55
-55
-55
-55
-54
-54
-54
-54
-54
-54
-54
-54
-55
-55
-54
-54
-54
-53
-53
-52
-52
-52
-51
-51
-51
-51
-51
-50
-51
-51
-51
-51
-52
-51
-52
-53
-53
-54
-54
-55
-55
-57
-57
-58
-58
-59
-60
-61
-61
-63
-63
-64
-65
-65
-65
-66
-67
-67
-68
-68
-68
-70
-70
-70
-71
-72
-72
-72
-74
-74
-74
-74
-74
-75
-76
-76
-76
-77
-77
-77
-78
-78
-79
-79
-79
-79
-79
-79
-79
-80
-80
-79
-79
-79
-79
-79
-79
-79
-78
-78
-78
-78
-78
-78
-78
-78
-78
-78
-78
-78
-78
-78
-78
-78
-78
-78
-77
-77
-77
-77
-77
-77
-76
-76
-76
-75
-75
-75
-75
-75
-75
-75
-76
-75
-76
-75
-76
-77
-77
