# Simple Text Format
# Sampling Rate (Hz):= 1200.00
# Resolution:= 12
# Labels:= ECG	 V3
# Age:=	14
# Gender:=	Masculino
-344
-344
-344
-344
-344
-344
-344
-344
-345
-345
-345
-345
-345
-345
-345
-345
-345
-345
-345
-345
-345
-345
-345
-345
-345
-345
-345
-345
-345
-345
-345
-345
-345
-345
-345
-345
-345
-345
-345
-345
-345
-345
-345
-345
-345
-345
-345
-345
-345
-345
-345
-345
-345
-345
-345
-345
-345
-345
-346
-345
-345
-345
-345
-345
-345
-345
-345
-345
-344
-344
-344
-344
-344
-344
-344
-344
-344
-344
-344
-344
-344
-344
-344
-344
-344
-344
-344
-345
-345
-345
-345
-345
-345
-345
-345
-344
-344
-344
-344
-344
-345
-345
-345
-345
-345
-344
-344
-344
-344
-344
-344
-344
-344
-344
-344
-344
-344
-344
-344
-344
-344
-344
-344
-344
-344
-344
-344
-344
-344
-344
-344
-344
-344
-344
-344
-345
-345
-345
-345
-345
-345
-345
-345
-345
-345
-345
-345
-345
-345
-345
-345
-345
-345
-345
-345
-345
-345
-344
-344
-344
-344
-344
-344
-344
-345
-345
-345
-345
-345
-345
-345
-345
-345
-345
-345
-345
-345
-345
-346
-346
-346
-346
-346
-346
-346
-346
-346
-346
-346
-346
-346
-346
-346
-346
-346
-346
-346
-346
-345
-345
-345
-345
-345
-344
-345
-345
-345
-345
-345
-345
-345
-345
-345
-345
-345
-345
-345
-345
-345
-345
-345
-345
-345
-345
-345
-346
-346
-346
-346
-346
-346
-346
-346
-346
-346
-345
-345
-345
-345
-345
-345
-345
-345
-345
-345
-345
-345
-345
-345
-345
-345
-345
-345
-345
-345
-345
-345
-345
-345
-345
-345
-345
-345
-345
-345
-345
-345
-345
-345
-345
-345
-345
-346
-345
-345
-345
-345
-345
-345
-345
-346
-346
-345
-345
-345
-345
-345
-345
-345
-345
-345
-345
-345
-345
-345
-345
-345
-344
-344
-344
-344
-344
-344
-344
-344
-345
-345
-345
-345
-344
-344
-344
-344
-345
-345
-345
-345
-345
-345
-345
-344
-344
-344
-344
-344
-344
-344
-344
-344
-344
-344
-344
-344
-344
-344
-344
-344
-344
-344
-344
-344
-344
-344
-344
-344
-344
-344
-344
-344
-344
-344
-344
-344
-344
-344
-344
-344
-344
-343
-343
-343
-343
-343
-343
-343
-343
-343
-343
-343
-343
-343
-343
-343
-343
-343
-343
-343
-343
-343
-343
-343
-343
-343
-343
-343
-343
-343
-343
-343
-343
-343
-343
-342
-343
-343
-343
-343
-343
-343
-342
-342
-342
-342
-342
-342
-342
-342
-342
-342
-342
-342
-342
-342
-342
-342
-342
-341
-341
-341
-341
-341
-341
-341
-341
-341
-341
-341
-342
-341
-341
-341
-341
-341
-341
-341
-341
-341
-341
-341
-341
-341
-341
-341
-341
-341
-341
-341
-341
-340
-340
-340
-340
-340
-340
-340
-340
-340
-340
-340
-340
-340
-340
-340
-340
-340
-339
-339
-339
-339
-340
-340
-340
-340
-340
-340
-340
-340
-340
-340
-340
-340
-340
-340
-340
-340
-340
-340
-339
-339
-339
-339
-339
-339
-339
-339
-339
-339
-339
-339
-339
-339
-339
-339
-339
-339
-339
-339
-339
-339
-338
-338
-339
-339
-339
-339
-339
-339
-339
-339
-339
-339
-339
-339
-339
-339
-339
-338
-338
-338
-338
-338
-338
-339
-339
-339
-339
-338
-338
-338
-338
-338
-338
-338
-338
-338
-338
-338
-338
-338
-337
-337
-337
-337
-337
-337
-338
-338
-338
-338
-338
-338
-338
-338
-338
-338
-338
-338
-338
-338
-338
-338
-337
-337
-337
-336
-336
-335
-335
-335
-335
-334
-334
-334
-333
-333
-332
-331
-331
-331
-330
-330
-328
-328
-327
-326
-326
-325
-325
-324
-323
-323
-322
-321
-321
-320
-319
-318
-318
-317
-317
-316
-316
-315
-315
-315
-315
-314
-315
-316
-316
-317
-318
-318
-319
-320
-321
-323
-324
-325
-326
-327
-328
-329
-330
-332
-332
-333
-333
-333
-333
-334
-333
-333
-333
-333
-332
-332
-331
-331
-331
-331
-331
-331
-331
-331
-331
-332
-331
-332
-333
-333
-333
-334
-334
-335
-336
-335
-336
-336
-337
-337
-338
-338
-338
-339
-339
-339
-339
-339
-339
-339
-339
-340
-340
-340
-339
-340
-340
-340
-340
-340
-340
-340
-341
-341
-341
-341
-341
-341
-341
-341
-341
-342
-342
-342
-341
-341
-341
-341
-341
-341
-341
-341
-341
-341
-341
-341
-341
-341
-341
-341
-341
-341
-341
-341
-341
-341
-341
-341
-341
-341
-341
-341
-341
-341
-341
-340
-339
-339
-339
-339
-339
-339
-338
-338
-338
-338
-338
-338
-337
-337
-337
-337
-337
-337
-337
-337
-337
-337
-336
-336
-335
-335
-334
-332
-331
-330
-327
-325
-323
-320
-316
-312
-307
-303
-298
-293
-289
-286
-285
-285
-286
-291
-296
-304
-315
-328
-343
-361
-383
-406
-433
-462
-493
-525
-560
-595
-631
-667
-703
-737
-770
-801
-830
-857
-882
-904
-923
-940
-954
-965
-973
-978
-980
-979
-976
-970
-961
-950
-939
-924
-908
-891
-871
-851
-829
-806
-782
-758
-732
-708
-681
-656
-630
-604
-580
-556
-533
-511
-490
-469
-450
-432
-415
-400
-386
-373
-362
-351
-342
-334
-327
-320
-315
-310
-306
-302
-300
-298
-296
-294
-293
-291
-290
-290
-290
-289
-288
-288
-287
-287
-286
-286
-285
-285
-284
-284
-282
-282
-282
-282
-281
-281
-280
-280
-279
-279
-279
-278
-278
-278
-277
-277
-276
-276
-275
-275
-274
-274
-274
-273
-273
-272
-272
-271
-270
-271
-270
-270
-269
-269
-269
-268
-268
-268
-268
-267
-266
-266
-266
-266
-266
-266
-266
-266
-266
-266
-265
-265
-265
-265
-265
-265
-265
-265
-265
-264
-264
-264
-264
-264
-264
-264
-264
-264
-264
-264
-264
-263
-263
-263
-263
-263
-263
-263
-263
-263
-262
-262
-262
-262
-262
-262
-262
-262
-262
-262
-262
-262
-261
-261
-261
-261
-261
-261
-261
-261
-261
-260
-260
-260
-260
-260
-260
-260
-260
-260
-260
-260
-259
-259
-259
-259
-259
-259
-259
-259
-259
-258
-258
-258
-258
-258
-258
-257
-257
-257
-257
-257
-257
-256
-255
-255
-255
-255
-254
-254
-255
-255
-254
-254
-254
-254
-254
-253
-253
-253
-252
-252
-252
-251
-252
-252
-252
-252
-251
-251
-251
-251
-251
-250
-250
-250
-250
-249
-250
-250
-250
-248
-248
-248
-248
-248
-248
-247
-247
-247
-246
-246
-246
-246
-246
-245
-245
-245
-245
-244
-244
-244
-244
-243
-243
-243
-243
-242
-242
-242
-242
-241
-241
-241
-241
-239
-239
-239
-239
-238
-238
-238
-238
-237
-237
-236
-236
-236
-235
-235
-234
-234
-234
-233
-233
-231
-231
-232
-231
-230
-230
-229
-229
-228
-228
-228
-227
-227
-226
-226
-227
-226
-226
-225
-225
-224
-224
-223
-223
-222
-222
-221
-222
-222
-221
-221
-221
-220
-219
-219
-219
-219
-219
-219
-219
-219
-219
-218
-218
-218
-219
-219
-219
-218
-219
-219
-219
-219
-219
-219
-220
-220
-220
-220
-220
-221
-221
-221
-221
-221
-221
-222
-222
-222
-223
-223
-224
-225
-224
-225
-226
-227
-228
-228
-229
-230
-230
-230
-232
-233
-233
-234
-235
-235
-236
-237
-238
-239
-240
-241
-242
-244
-245
-246
-247
-248
-249
-250
-252
-253
-254
-255
-256
-257
-259
-260
-261
-262
-263
-264
-265
-266
-267
-269
-270
-271
-272
-273
-274
-275
-277
-278
-278
-279
-280
-282
-283
-284
-285
-286
-287
-288
-289
-290
-291
-292
-293
-293
-295
-295
-296
-297
-298
-299
-299
-299
-301
-301
-302
-302
-304
-304
-305
-305
-306
-307
-307
-308
-308
-309
-310
-310
-310
-310
-312
-312
-312
-312
-314
-314
-314
-314
-315
-315
-316
-316
-317
-317
-317
-319
-319
-319
-319
-319
-320
-320
-320
-320
-320
-321
-321
-321
-321
-321
-321
-321
-322
-322
-322
-322
-322
-321
-321
-322
-322
-322
-321
-321
-321
-321
-321
-320
-320
-320
-320
-320
-320
-320
-319
-319
-319
-319
-318
-318
-319
-318
-318
-318
-317
-317
-317
-317
-316
-316
-316
-316
-315
-315
-315
-315
-315
-315
-315
-313
-313
-313
-313
-313
-313
-313
-313
-313
-313
-313
-312
-313
-313
-313
-313
-313
-313
-312
-312
-312
-312
-312
-313
-312
-311
-311
-312
-312
-312
-312
-312
-312
-311
-311
-311
-311
-311
-311
-311
-311
-311
-311
-311
-311
-311
-311
-311
-311
-311
-311
-311
-311
-311
-311
-311
-311
-311
-311
-311
-311
-311
-311
-311
-311
-311
-312
-312
-312
-312
-312
-313
-313
-313
-313
-313
-314
-314
-314
-314
-314
-315
-315
-315
-315
-315
-315
-316
-317
-317
-317
-317
-317
-317
-317
-319
-319
-319
-319
-319
-319
-319
-320
-320
-320
-320
-321
-321
-321
-321
-321
-321
-321
-322
-322
-322
-322
-322
-322
-322
-322
-322
-323
-323
-323
-323
-323
-323
-324
-324
-324
-325
-325
-325
-325
-325
-326
-326
-326
-326
-327
-327
-327
-326
-327
-327
-327
-327
-327
-328
-328
-328
-328
-328
-328
-329
-329
-329
-329
-329
-329
-329
-329
-329
-329
-329
-330
-330
-330
-329
-329
-329
-329
-329
-329
-330
-330
-330
-330
-330
-330
-330
-331
-331
-331
-331
-331
-331
-332
-332
-332
-332
-332
-333
-333
-333
-333
-333
-333
-333
-333
-333
-333
-332
-333
-333
-333
-333
-333
-333
-333
-333
-333
-333
-333
-333
-333
-333
-333
-333
-333
-333
-333
-333
-333
-334
-334
-334
-334
-334
-334
-334
-334
-334
-334
-334
-335
-335
-335
-335
-335
-335
-335
-335
-335
-335
-335
-335
-335
-335
-335
-335
-336
-336
-336
-336
-336
-335
-335
-335
-335
-335
-335
-336
-336
-336
-336
-336
-336
-336
-336
-336
-336
-336
-336
-336
-336
-336
-337
-337
-337
-337
-337
-337
-337
-337
-337
-337
-337
-337
-337
-337
-337
-337
-337
-337
-337
-337
-337
-337
-337
-337
-337
-337
-337
-337
-337
-338
-337
-337
-337
-337
-337
-337
-338
-338
-338
-338
-338
-338
-337
-337
-338
-338
-338
-338
-338
-337
-338
-338
-338
-338
-338
-337
-337
-337
-337
-337
-337
-337
-337
-338
-338
-338
-338
-338
-338
-338
-338
-338
-338
-338
-338
-338
-338
-337
-338
-338
-338
-338
-338
-338
-338
-338
-339
-339
-339
-338
-338
-338
-338
-338
-339
-339
-339
-339
-338
-338
-338
-339
-339
-339
-338
-338
-338
-338
-338
-338
-339
-338
-338
-338
-338
-338
-337
-337
-337
-338
-338
-338
-338
-338
-338
-338
-338
-338
-338
-338
-338
-338
-338
-338
-338
-338
-338
-338
-338
-338
-338
-338
-338
-338
-338
-337
-337
-337
-338
-337
-337
-337
-338
-338
-337
-337
-337
-337
-337
-337
-337
-337
-337
-337
-337
-337
-337
-338
-338
-337
-338
-338
-338
-339
-338
-338
-339
-339
-339
-339
-339
-339
-339
-339
-339
-339
-339
-338
-338
-339
-339
-339
-339
-338
-338
-339
-338
-338
-338
-338
-337
-337
-338
-338
-338
-338
-338
-337
-337
-337
-337
-337
-337
-338
-338
-337
-337
-337
-337
-337
-337
-337
-337
-337
-338
-338
-338
-338
-337
-337
-337
-337
-337
-337
-336
-336
-337
-337
-336
-336
-336
-336
-336
-335
-335
-335
-335
-335
-335
-335
-335
-335
-335
-335
-336
-336
-336
-336
-336
-336
-336
-336
-336
-336
-336
-336
-336
-336
-337
-337
-337
-337
-337
-337
-337
-337
-337
-337
-337
-337
-337
-337
-337
-337
-337
-337
-337
-337
-337
-337
-336
-336
-336
-336
-336
-336
-336
-336
-336
-336
-336
-336
-336
-336
-336
-336
-336
-336
-336
-336
-337
-336
-336
-336
-336
-336
-336
-336
-336
-336
-336
-336
-336
-337
-337
-337
-337
-337
-337
-336
-336
-336
-336
-336
-336
-336
-336
-335
-335
-335
-335
-335
-335
-335
-335
-335
-335
-335
-335
-334
-334
-334
-334
-335
-335
-335
-335
-335
-335
-335
-335
-335
-335
-335
-335
-335
-335
-335
-335
-335
-335
-335
-335
-335
-335
-335
-335
-335
-335
-334
-334
-334
-334
-334
-335
-335
-335
-334
-334
-334
-334
-334
-334
-334
-334
-334
-334
-334
-334
-333
-333
-334
-334
-334
-334
-334
-334
-334
-334
-334
-333
-333
-333
-333
-333
-333
-333
-333
-333
-333
-333
-333
-333
-333
-333
-333
-333
-333
-333
-333
-333
-332
-333
-333
-333
-333
-333
-333
-333
-333
-333
-333
-333
-333
-332
-332
-333
-334
-333
-333
-333
-333
-333
-333
-333
-333
-333
-333
-333
-333
-333
-333
-333
-333
-333
-333
-333
-333
-332
-332
-332
-332
-332
-332
-332
-332
-332
-331
-331
-331
-331
-331
-331
-331
-331
-331
-330
-330
-330
-330
-330
-330
-330
-330
-330
-330
-330
-330
-330
-330
-330
-330
-330
-330
-330
-330
-330
-330
-330
-330
-330
-330
-330
-330
-330
-330
-330
-329
-329
-329
-328
-328
-327
-327
-327
-326
-326
-326
-326
-325
-324
-324
-324
-322
-322
-322
-321
-321
-320
-319
-319
-318
-318
-317
-316
-316
-315
-315
-314
-313
-312
-312
-311
-311
-310
-309
-310
-309
-308
-309
-310
-310
-310
-310
-311
-312
-313
-314
-315
-317
-318
-319
-320
-321
-322
-323
-323
-324
-326
-326
-326
-326
-327
-327
-327
-326
-326
-326
-325
-325
-324
-324
-324
-324
-323
-324
-323
-324
-324
-323
-324
-324
-324
-325
-325
-326
-326
-326
-327
-328
-328
-328
-329
-329
-329
-329
-330
-329
-330
-330
-329
-330
-330
-329
-330
-330
-329
-330
-330
-330
-330
-330
-330
-330
-330
-331
-331
-331
-331
-331
-330
-330
-330
-330
-330
-330
-330
-330
-330
-330
-330
-330
-330
-330
-330
-330
-330
-330
-330
-330
-329
-329
-329
-330
-329
-329
-329
-329
-328
-328
-328
-328
-328
-328
-328
-328
-328
-328
-328
-329
-329
-329
-328
-328
-328
-328
-328
-328
-328
-328
-328
-328
-329
-328
-328
-328
-328
-327
-327
-326
-326
-326
-326
-325
-323
-323
-322
-320
-318
-317
-315
-312
-310
-307
-304
-300
-296
-292
-287
-281
-277
-274
-272
-271
-270
-273
-277
-284
-291
-301
-313
-328
-344
-363
-384
-409
-434
-461
-490
-520
-550
-581
-611
-641
-670
-697
-723
-747
-770
-789
-808
-824
-838
-849
-858
-864
-867
-868
-867
-863
-857
-851
-841
-830
-818
-803
-788
-771
-752
-734
-714
-693
-672
-650
-628
-606
-585
-564
-542
-522
-501
-483
-464
-446
-429
-414
-399
-385
-373
-361
-350
-341
-333
-325
-318
-313
-307
-302
-299
-295
-293
-291
-289
-288
-287
-286
-285
-285
-284
-284
-284
-283
-283
-283
-283
-282
-282
-282
-281
-281
-281
-280
-280
-279
-279
-278
-277
-277
-277
-276
-276
-274
-274
-274
-273
-273
-273
-272
-272
-271
-271
-271
-270
-270
-270
-270
-269
-269
-269
-269
-269
-268
-268
-267
-267
-267
-267
-267
-267
-266
-266
-266
-266
-266
-265
-265
-265
-265
-265
-265
-265
-264
-264
-264
-264
-264
-264
-264
-264
-263
-263
-263
-263
-263
-262
-262
-262
-262
-262
-262
-262
-262
-261
-261
-261
-261
-261
-261
-261
-261
-261
-261
-260
-260
-260
-260
-260
-260
-260
-260
-259
-259
-259
-259
-259
-259
-259
-259
-258
-258
-258
-257
-257
-257
-257
-257
-257
-257
-257
-257
-257
-257
-257
-257
-256
-256
-256
-255
-255
-255
-254
-254
-254
-254
-253
-253
-253
-253
-252
-252
-252
-252
-252
-252
-252
-252
-252
-252
-252
-251
-251
-251
-251
-251
-251
-251
-251
-251
-250
-250
-250
-250
-250
-250
-250
-250
-249
-248
-248
-248
-248
-248
-248
-248
-247
-247
-247
-247
-246
-246
-246
-246
-245
-245
-245
-244
-244
-243
-243
-244
-243
-243
-242
-242
-242
-241
-241
-241
-241
-240
-240
-240
-240
-239
-239
-239
-238
-238
-238
-238
-236
-236
-236
-236
-236
-236
-235
-235
-234
-234
-234
-233
-233
-232
-232
-232
-231
-231
-231
-230
-229
-229
-228
-228
-228
-227
-227
-227
-226
-226
-225
-225
-225
-225
-225
-224
-224
-223
-223
-223
-222
-222
-221
-221
-221
-220
-219
-219
-219
-219
-219
-218
-218
-218
-218
-218
-218
-217
-217
-217
-217
-217
-217
-217
-216
-216
-216
-216
-216
-216
-216
-216
-215
-216
-216
-216
-216
-215
-215
-215
-215
-217
-217
-217
-216
-216
-217
-217
-217
-217
-219
-218
-218
-219
-219
-220
-220
-220
-221
-221
-222
-222
-223
-224
-224
-225
-226
-226
-227
-228
-228
-228
-229
-230
-230
-231
-232
-233
-234
-235
-236
-236
-237
-238
-239
-240
-240
-241
-242
-243
-244
-245
-246
-247
-248
-249
-250
-251
-252
-253
-253
-255
-256
-257
-258
-259
-259
-260
-261
-262
-263
-264
-264
-265
-266
-266
-267
-267
-268
-269
-269
-271
-271
-272
-272
-273
-274
-275
-275
-275
-276
-277
-278
-278
-279
-280
-280
-281
-281
-281
-283
-283
-283
-283
-285
-285
-285
-285
-285
-286
-286
-286
-286
-286
-287
-287
-287
-288
-288
-288
-289
-289
-289
-289
-290
-290
-290
-290
-290
-291
-291
-291
-291
-291
-292
-292
-292
-292
-292
-292
-293
-293
-293
-293
-293
-293
-293
-293
-293
-293
-293
-293
-293
-292
-292
-291
-291
-291
-291
-291
-291
-291
-291
-290
-290
-290
-290
-290
-289
-289
-289
-289
-289
-289
-289
-289
-288
-288
-288
-288
-288
-288
-288
-288
-287
-287
-287
-287
-287
-287
-287
-287
-287
-287
-286
-286
-286
-286
-285
-285
-285
-285
-285
-284
-284
-284
-285
-285
-284
-284
-284
-284
-284
-284
-284
-284
-283
-282
-282
-282
-282
-282
-282
-282
-282
-282
-282
-282
-281
-281
-281
-281
-281
-281
-281
-281
-281
-280
-280
-280
-280
-280
-280
-280
-281
-281
-281
-281
-281
-281
-282
-282
-282
-282
-282
-282
-282
-282
-282
-282
-282
-282
-282
-283
-283
-283
-283
-283
-283
-282
-282
-283
-283
-283
-283
-283
-284
-284
-284
-284
-285
-284
-284
-285
-285
-285
-286
-286
-286
-286
-287
-287
-287
-287
-288
-288
-288
-289
-289
-289
-289
-290
-290
-290
-290
-290
-289
-289
-291
-291
-291
-291
-291
-291
-291
-291
-291
-290
-290
-290
-290
-290
-291
-291
-291
-291
-291
-291
-291
-291
-292
-292
-292
-292
-292
-293
-292
-292
-292
-293
-293
-293
-293
-294
-294
-294
-293
-294
-294
-294
-294
-294
-294
-295
-295
-295
-295
-295
-295
-295
-294
-294
-294
-294
-294
-294
-294
-294
-294
-294
-295
-295
-295
-295
-295
-295
-295
-294
-295
-295
-295
-295
-295
-295
-295
-295
-295
-296
-296
-296
-296
-296
-296
-296
-296
-296
-296
-295
-295
-295
-295
-295
-295
-295
-295
-296
-296
-296
-296
-296
-297
-296
-296
-296
-296
-296
-297
-297
-297
-297
-297
-296
-296
-297
-297
-297
-297
-297
-297
-297
-297
-297
-297
-296
-296
-296
-297
-297
-297
-297
-297
-297
-297
-297
-297
-297
-297
-297
-297
-298
-298
-297
-297
-297
-298
-298
-297
-297
-297
-298
-298
-298
-298
-298
-297
-297
-298
-298
-298
-298
-298
-298
-298
-298
-298
-298
-298
-298
-298
-299
-299
-299
-298
-298
-298
-298
-298
-298
-298
-298
-298
-298
-298
-297
-297
-297
-298
-298
-298
-298
-298
-299
-298
-298
-299
-299
-299
-299
-300
-299
-299
-300
-300
-300
-300
-300
-300
-300
-300
-300
-300
-300
-299
-299
-299
-299
-298
-298
-298
-298
-298
-298
-298
-298
-298
-298
-298
-298
-298
-298
-298
-298
-298
-298
-298
-298
-298
-298
-298
-298
-298
-297
-297
-297
-297
-297
-297
-297
-297
-297
-297
-298
-298
-298
-298
-297
-297
-297
-297
-297
-298
-298
-298
-298
-298
-298
-299
-299
-298
-298
-298
-298
-298
-298
-298
-298
-298
-298
-298
-297
-297
-296
-297
-297
-297
-297
-297
-297
-297
-297
-297
-297
-297
-297
-296
-296
-296
-296
-296
-296
-296
-296
-296
-296
-297
-297
-297
-297
-297
-297
-297
-297
-297
-297
-297
-297
-297
-297
-297
-297
-297
-297
-297
-297
-297
-297
-297
-297
-297
-297
-297
-297
-297
-297
-297
-297
-297
-297
-297
-297
-296
-296
-296
-296
-296
-296
-296
-296
-296
-297
-297
-297
-297
-296
-296
-296
-296
-296
-296
-296
-296
-296
-297
-297
-297
-297
-296
-296
-296
-296
-296
-296
-296
-296
-295
-295
-295
-295
-295
-295
-295
-294
-294
-294
-294
-294
-294
-295
-295
-295
-295
-295
-295
-295
-295
-295
-295
-295
-295
-295
-295
-296
-296
-295
-295
-295
-295
-296
-296
-296
-296
-296
-295
-295
-295
-295
-296
-296
-296
-296
-296
-296
-296
-296
-296
-296
-296
-296
-296
-296
-296
-296
-296
-296
-296
-296
-296
-296
-296
-296
-296
-295
-295
-295
-295
-295
-295
-295
-295
-295
-295
-295
-295
-295
-295
-295
-295
-295
-295
-295
-295
-295
-295
-295
-295
-296
-296
-295
-295
-295
-295
-295
-295
-295
-295
-295
-295
-295
-294
-294
-294
-294
-294
-294
-294
-294
-294
-294
-294
-295
-294
-294
-294
-294
-294
-294
-294
-294
-294
-294
-295
-295
-295
-295
-295
-295
-295
-295
-295
-295
-295
-295
-295
-295
-295
-295
-295
-295
-294
-294
-294
-294
-294
-294
-294
-294
-295
-295
-295
-295
-295
-295
-295
-295
-295
-295
-295
-295
-294
-294
-294
-294
-294
-294
-294
-294
-294
-295
-295
-295
-294
-294
-294
-294
-294
-295
-295
-295
-295
-295
-295
-294
-295
-295
-296
-296
-295
-295
-295
-295
-295
-295
-295
-295
-294
-294
-294
-294
-294
-294
-294
-294
-294
-293
-293
-293
-293
-293
-293
-293
-293
-293
-293
-293
-293
-293
-293
-293
-293
-293
-293
-293
-294
-294
-294
-294
-294
-294
-294
-294
-294
-294
-294
-294
-293
-293
-293
-293
-294
-294
-294
-294
-294
-294
-294
-294
-294
-294
-294
-294
-294
-294
-294
-294
-294
-294
-294
-294
-294
-294
-294
-293
-293
-293
-293
-293
-293
-293
-293
-293
-293
-293
-293
-293
-293
-293
-293
-293
-293
-293
-293
-293
-293
-294
-294
-293
-293
-293
-292
-292
-292
-292
-292
-292
-292
-292
-292
-292
-292
-292
-292
-292
-292
-292
-292
-292
-292
-292
-291
-291
-290
-290
-290
-290
-289
-289
-289
-289
-288
-288
-287
-287
-286
-286
-286
-285
-284
-283
-282
-282
-281
-281
-280
-279
-278
-278
-277
-277
-276
-275
-275
-274
-274
-273
-273
-271
-271
-272
-271
-271
-271
-272
-271
-272
-274
-274
-275
-277
-277
-279
-279
-281
-282
-284
-284
-286
-287
-288
-289
-289
-290
-290
-291
-291
-290
-291
-291
-290
-290
-289
-289
-288
-288
-287
-287
-287
-287
-287
-286
-287
-286
-287
-287
-287
-288
-289
-290
-289
-290
-290
-291
-291
-292
-293
-293
-294
-294
-294
-294
-295
-295
-295
-295
-296
-296
-296
-296
-295
-296
-296
-296
-296
-295
-296
-296
-296
-296
-296
-297
-297
-296
-296
-296
-296
-296
-296
-298
-298
-298
-298
-298
-297
-297
-297
-297
-297
-297
-297
-297
-297
-297
-297
-297
-297
-297
-296
-296
-296
-296
-296
-296
-296
-296
-296
-296
-296
-296
-296
-296
-296
-296
-296
-296
-295
-295
-295
-294
-294
-294
-294
-294
-293
-293
-293
-293
-293
-293
-292
-292
-292
-292
-292
-292
-292
-291
-291
-290
-289
-287
-286
-285
-282
-279
-278
-274
-271
-267
-262
-258
-253
-249
-244
-241
-240
-240
-242
-246
-253
-261
-271
-283
-298
-315
-336
-358
-383
-411
-440
-471
-502
-536
-569
-602
-633
-666
-695
-724
-750
-775
-797
-817
-835
-850
-863
-873
-880
-884
-887
-885
-883
-877
-870
-860
-850
-837
-822
-807
-790
-770
-750
-730
-708
-686
-663
-639
-616
-591
-568
-545
-522
-500
-478
-458
-438
-419
-401
-385
-369
-356
-342
-329
-319
-309
-300
-292
-285
-279
-273
-270
-265
-262
-260
-258
-256
-254
-253
-252
-251
-251
-250
-250
-249
-249
-248
-248
-248
-248
-247
-247
-246
-245
-245
-244
-244
-244
-243
-242
-241
-241
-241
-240
-240
-240
-238
-238
-238
-237
-237
-237
-236
-235
-235
-234
-234
-234
-234
-233
-233
-233
-232
-232
-233
-232
-232
-232
-232
-231
-230
-230
-230
-230
-230
-230
-229
-229
-229
-229
-229
-229
-229
-228
-228
-228
-228
-228
-228
-228
-228
-228
-227
-227
-227
-227
-227
-227
-227
-227
-226
-226
-226
-226
-226
-226
-226
-226
-226
-225
-225
-225
-225
-225
-226
-226
-226
-225
-224
-224
-224
-224
-224
-224
-224
-224
-224
-224
-223
-222
-222
-222
-222
-222
-222
-222
-222
-222
-222
-222
-222
-222
-222
-222
-222
-222
-222
-222
-222
-221
-221
-221
-221
-221
-220
-220
-220
-220
-220
-220
-220
-219
-219
-219
-219
-219
-219
-218
-218
-218
-218
-217
-217
-217
-218
-217
-217
-216
-216
-216
-215
-215
-215
-215
-215
-214
-214
-213
-213
-213
-213
-213
-213
-213
-213
-212
-212
-213
-212
-212
-212
-212
-212
-212
-212
-211
-211
-211
-211
-210
-210
-209
-209
-209
-208
-208
-207
-207
-207
-207
-207
-207
-206
-206
-206
-205
-205
-205
-204
-204
-204
-203
-203
-203
-202
-202
-201
-200
-200
-200
-199
-199
-199
-198
-198
-198
-197
-197
-196
-195
-195
-195
-195
-195
-195
-194
-194
-194
-193
-193
-192
-191
-192
-191
-191
-191
-190
-190
-188
-188
-187
-187
-186
-186
-185
-185
-184
-184
-183
-183
-182
-182
-182
-181
-181
-180
-180
-180
-179
-179
-180
-179
-179
-179
-178
-178
-178
-178
-177
-177
-177
-177
-177
-177
-177
-177
-177
-176
-177
-177
-177
-177
-177
-178
-177
-177
-178
-178
-179
-179
-179
-180
-180
-180
-181
-181
-181
-182
-182
-183
-183
-184
-184
-185
-185
-186
-187
-187
-187
-188
-188
-189
-190
-191
-192
-193
-193
-194
-195
-196
-197
-198
-199
-200
-201
-202
-203
-205
-205
-206
-207
-208
-209
-210
-211
-212
-214
-216
-217
-218
-219
-220
-221
-222
-224
-225
-226
-226
-227
-228
-229
-230
-231
-233
-234
-235
-236
-237
-237
-238
-239
-241
-241
-242
-243
-244
-244
-245
-247
-248
-248
-249
-250
-251
-251
-252
-253
-253
-254
-255
-256
-256
-257
-258
-259
-259
-260
-261
-262
-262
-263
-263
-265
-265
-265
-266
-266
-268
-268
-268
-269
-270
-270
-271
-271
-272
-273
-273
-273
-274
-274
-274
-274
-275
-276
-276
-276
-276
-276
-277
-278
-278
-278
-278
-278
-279
-278
-278
-278
-279
-279
-279
-279
-278
-278
-278
-279
-279
-278
-278
-278
-278
-277
-277
-277
-277
-276
-276
-276
-277
-276
-276
-276
-275
-275
-275
-274
-274
-275
-275
-274
-274
-274
-273
-273
-273
-272
-272
-272
-272
-272
-271
-271
-271
-270
-270
-269
-269
-269
-269
-269
-269
-268
-268
-268
-268
-268
-267
-267
-267
-267
-267
-267
-267
-266
-266
-266
-266
-266
-266
-265
-265
-265
-265
-265
-265
-265
-265
-265
-265
-265
-265
-264
-264
-264
-264
-264
-264
-264
-264
-264
-264
-264
-264
-264
-264
-265
-265
-265
-265
-265
-265
-265
-265
-266
-266
-266
-266
-266
-266
-266
-267
-266
-266
-266
-266
-267
-267
-267
-267
-267
-268
-268
-268
-268
-269
-269
-269
-269
-269
-269
-269
-269
-269
-269
-270
-270
-270
-271
-271
-271
-271
-272
-272
-272
-273
-273
-273
-274
-274
-274
-275
-275
-275
-275
-276
-276
-276
-277
-277
-277
-277
-278
-278
-277
-278
-278
-278
-278
-278
-279
-279
-279
-279
-279
-279
-280
-280
-280
-280
-280
-280
-281
-281
-281
-281
-281
-281
-282
-282
-282
-282
-282
-282
-283
-283
-282
-282
-283
-283
-283
-283
-283
-284
-284
-284
-284
-284
-284
-284
-284
-284
-284
-284
-284
-284
-285
-285
-285
-285
-285
-285
-285
-285
-285
-285
-286
-287
-287
-287
-287
-287
-287
-287
-287
-287
-287
-287
-287
-287
-287
-286
-286
-286
-286
-286
-286
-286
-286
-286
-286
-286
-286
-286
-286
-286
-286
-286
-286
-286
-286
-286
-286
-286
-287
-287
-287
-287
-287
-287
-287
-288
-288
-288
-288
-288
-288
-289
-289
-289
-289
-289
-289
-290
-290
-290
-290
-290
-290
-290
-289
-290
-290
-290
-290
-290
-290
-290
-290
-290
-290
-290
-290
-290
-290
-290
-290
-290
-290
-290
-291
-291
-291
-291
-291
-291
-291
-290
-290
-290
-290
-290
-290
-290
-290
-290
-290
-290
-290
-290
-290
-290
-290
-290
-290
-290
-290
-290
-290
-290
-290
-290
-290
-290
-290
-290
-289
-289
-289
-289
-289
-289
-289
-289
-289
-289
-289
-289
-289
-289
-289
-289
-289
-289
-289
-289
-289
-289
-289
-289
-289
-290
-290
-290
-290
-290
-290
-290
-290
-290
-290
-290
-290
-291
-290
-290
-290
-290
-290
-290
-290
-290
-290
-290
-291
-291
-291
-291
-291
-291
-291
-291
-291
-291
-291
-291
-291
-291
-291
-291
-291
-291
-291
-291
-291
-291
-291
-291
-291
-291
-291
-291
-291
-291
-291
-291
-292
-291
-291
-291
-291
-291
-291
-291
-291
-291
-291
-291
-291
-291
-291
-290
-291
-291
-291
-291
-291
-291
-291
-292
-291
-291
-291
-291
-291
-291
-291
-291
-292
-292
-292
-292
-292
-292
-292
-292
-292
-291
-291
-292
-292
-292
-292
-292
-292
-292
-292
-292
-292
-292
-292
-292
-291
-291
-291
-292
-292
-292
-292
-292
-292
-292
-292
-292
-293
-293
-293
-293
-293
-293
-293
-293
-293
-292
-292
-292
-292
-292
-292
-293
-293
-293
-293
-293
-293
-293
-293
-293
-292
-292
-293
-293
-293
-293
-293
-293
-292
-292
-293
-293
-293
-293
-293
-293
-293
-293
-294
-294
-293
-293
-293
-293
-293
-293
-294
-294
-294
-294
-293
-293
-293
-293
-293
-293
-293
-293
-292
-293
-293
-293
-293
-292
-292
-292
-293
-292
-292
-292
-292
-291
-291
-291
-292
-291
-291
-291
-291
-291
-291
-290
-290
-290
-291
-291
-291
-290
-290
-290
-290
-290
-290
-290
-290
-290
-290
-290
-290
-291
-291
-291
-291
-291
-291
-291
-291
-291
-291
-291
-291
-292
-292
-292
-292
-292
-292
-292
-292
-291
-291
-291
-291
-291
-291
-291
-291
-291
-291
-291
-291
-290
-290
-291
-291
-291
-291
-291
-291
-291
-291
-291
-291
-291
-292
-291
-291
-291
-291
-291
-291
-291
-291
-291
-291
-292
-292
-292
-292
-292
-292
-292
-291
-291
-291
-291
-291
-291
-291
-291
-291
-291
-292
-292
-292
-292
-291
-291
-291
-291
-291
-291
-291
-291
-292
-292
-292
-292
-292
-292
-292
-292
-292
-292
-292
-292
-292
-292
-291
-291
-291
-291
-291
-291
-291
-291
-291
-290
-290
-290
-290
-291
-291
-291
-291
-291
-291
-291
-292
-292
-292
-292
-292
-292
-292
-292
-292
-292
-292
-292
-292
-292
-292
-292
-292
-292
-292
-292
-292
-292
-292
-292
-292
-292
-292
-292
-292
-292
-292
-292
-292
-292
-292
-291
-291
-292
-292
-292
-292
-292
-292
-292
-292
-292
-292
-292
-292
-292
-292
-292
-292
-292
-292
-291
-291
-291
-292
-292
-292
-292
-292
-292
-292
-292
-292
-292
-292
-292
-292
-292
-292
-292
-292
-293
-293
-293
-293
-293
-293
-293
-293
-294
-294
-294
-294
-294
-294
-294
-293
-293
-293
-293
-293
-293
-293
-293
-293
-293
-293
-293
-293
-293
-294
-294
-294
-293
-293
-292
-292
-292
-293
-293
-293
-293
-293
-293
-293
-293
-292
-292
-292
-292
-292
-292
-292
-292
-292
-292
-292
-292
-292
-292
-292
-292
-293
-293
-292
-292
-293
-294
-294
-294
-294
-294
-295
-295
-295
-295
-295
-295
-295
-295
-295
-295
-295
-295
-295
-295
-295
-295
-295
-295
-295
-295
-295
-295
-295
-294
-294
-294
-294
-295
-295
-295
-294
-294
-293
-293
-294
-294
-294
-295
-295
-295
-295
-295
-295
-295
-295
-295
-295
-295
-295
-295
-295
-296
-296
-296
-296
-296
-296
-296
-296
-296
-296
-296
-296
-296
-296
-296
-296
-296
-296
-296
-296
-296
-296
-296
-296
-296
-296
-295
-295
-296
-296
-296
-296
-296
-296
-296
-296
-296
-296
-296
-296
-295
-296
-296
-296
-296
-296
-296
-296
-296
-296
-296
-296
-296
-296
-296
-295
-295
-295
-295
-295
-295
-295
-295
-295
-295
-294
-294
-293
-293
-293
-293
-293
-292
-291
-291
-291
-289
-289
-289
-289
-288
-287
-286
-286
-285
-285
-284
-284
-283
-282
-282
-281
-280
-280
-279
-278
-278
-277
-276
-276
-276
-276
-275
-275
-275
-275
-275
-276
-275
-276
-276
-277
-278
-279
-280
-281
-282
-283
-284
-285
-286
-287
-288
-289
-290
-291
-291
-292
-292
-292
-292
-292
-292
-292
-292
-291
-291
-291
-291
-291
-291
-291
-291
-290
-291
-291
-291
-291
-292
-292
-293
-292
-293
-293
-294
-295
-295
-296
-297
-297
-297
-298
-298
-299
-299
-300
-299
-299
-299
-300
-300
-300
-301
-301
-300
-300
-300
-300
-300
-301
-301
-301
-301
-301
-301
-301
-301
-301
-302
-302
-302
-302
-302
-302
-302
-302
-302
-302
-302
-303
-303
-303
-302
-302
-302
-302
-302
-301
-300
-300
-299
-298
-296
-295
-293
-291
-289
-286
-283
-280
-276
-272
-268
-262
-257
-251
-246
-241
-238
-235
-233
-235
-237
-242
-250
-260
-272
-286
-304
-323
-346
-371
-400
-431
-464
-501
-538
-577
-615
-654
-691
-727
-762
-795
-826
-855
-881
-904
-925
-944
-959
-971
-978
-984
-984
-982
-976
-969
-958
-946
-930
-913
-895
-873
-852
-828
-803
-778
-752
-724
-696
-669
-641
-613
-587
-561
-535
-510
-487
-464
-443
-423
-405
-387
-372
-357
-345
-332
-322
-312
-303
-296
-289
-285
-279
-275
-272
-269
-266
-264
-262
-261
-260
-260
-259
-258
-257
-256
-256
-255
-255
-255
-254
-253
-253
-252
-251
-250
-250
-249
-248
-248
-247
-246
-246
-245
-245
-244
-244
-244
-243
-243
-242
-242
-242
-242
-242
-241
-241
-241
-241
-241
-240
-239
-239
-238
-238
-238
-238
-237
-237
-237
-236
-236
-236
-236
-236
-236
-236
-236
-235
-235
-235
-235
-235
-235
-235
-235
-235
-234
-234
-234
-234
-234
-234
-234
-234
-234
-234
-233
-233
-233
-233
-232
-232
-232
-232
-231
-231
-231
-231
-230
-230
-230
-230
-229
-229
-229
-229
-229
-229
-229
-228
-228
-228
-227
-227
-227
-227
-227
-227
-227
-227
-226
-226
-226
-226
-226
-226
-226
-226
-226
-226
-225
-225
-225
-225
-225
-225
-225
-225
-225
-224
-224
-223
-223
-223
-223
-223
-222
-222
-222
-222
-222
-221
-221
-221
-220
-220
-220
-219
-219
-219
-219
-219
-219
-218
-218
-218
-218
-217
-217
-217
-216
-217
-216
-216
-215
-215
-214
-214
-214
-214
-213
-213
-213
-213
-212
-212
-211
-211
-211
-211
-210
-210
-210
-209
-209
-208
-208
-208
-207
-207
-206
-207
-207
-206
-206
-206
-206
-206
-205
-205
-205
-205
-205
-205
-205
-204
-204
-204
-204
-204
-203
-203
-203
-202
-202
-202
-201
-201
-201
-200
-200
-199
-198
-198
-197
-197
-196
-196
-195
-196
-195
-195
-195
-194
-194
-193
-193
-192
-192
-192
-191
-191
-190
-190
-189
-189
-188
-188
-187
-187
-186
-186
-185
-185
-184
-184
-184
-183
-183
-183
-182
-182
-182
-181
-181
-181
-180
-180
-181
-181
-180
-180
-180
-180
-180
-180
-180
-180
-180
-179
-180
-180
-180
-180
-179
-179
-179
-180
-180
-180
-180
-180
-180
-180
-180
-180
-181
-181
-181
-181
-182
-182
-182
-182
-183
-183
-183
-183
-184
-184
-185
-185
-185
-185
-187
-187
-187
-187
-188
-188
-190
-190
-191
-191
-192
-193
-194
-195
-196
-197
-197
-198
-199
-200
-201
-202
-204
-205
-206
-207
-208
-209
-211
-212
-213
-214
-216
-217
-218
-220
-221
-223
-224
-225
-227
-228
-228
-230
-231
-232
-234
-235
-236
-238
-239
-239
-240
-242
-243
-244
-246
-247
-247
-249
-250
-252
-252
-254
-254
-256
-257
-258
-258
-259
-260
-262
-262
-263
-264
-265
-266
-266
-268
-268
-269
-270
-270
-271
-272
-272
-273
-273
-275
-275
-276
-276
-277
-277
-278
-279
-280
-280
-281
-281
-282
-282
-283
-283
-284
-284
-285
-285
-285
-286
-286
-287
-287
-287
-288
-288
-288
-288
-288
-288
-288
-288
-289
-290
-290
-290
-290
-290
-290
-290
-290
-290
-290
-290
-289
-289
-290
-289
-289
-289
-288
-288
-289
-288
-288
-288
-287
-287
-287
-286
-286
-286
-286
-286
-285
-286
-286
-286
-286
-286
-286
-284
-284
-284
-284
-284
-284
-284
-284
-283
-283
-283
-283
-283
-283
-282
-282
-282
-282
-281
-281
-281
-281
-280
-280
-280
-280
-280
-279
-279
-279
-278
-278
-278
-278
-277
-277
-277
-277
-277
-277
-277
-277
-277
-277
-277
-277
-277
-277
-276
-276
-276
-276
-276
-277
-277
-276
-276
-276
-276
-276
-276
-275
-275
-275
-275
-275
-276
-277
-277
-277
-277
-277
-277
-278
-278
-278
-277
-278
-278
-278
-278
-278
-279
-279
-279
-279
-279
-279
-279
-279
-280
-280
-280
-280
-280
-280
-280
-280
-280
-280
-280
-281
-281
-281
-281
-281
-282
-282
-282
-283
-283
-284
-284
-285
-285
-285
-285
-285
-285
-286
-286
-286
-287
-287
-287
-287
-287
-287
-287
-288
-288
-288
-288
-288
-288
-289
-289
-289
-289
-289
-289
-289
-290
-291
-291
-291
-291
-291
-291
-291
-291
-291
-292
-292
-292
-293
-293
-293
-293
-292
-293
-293
-293
-294
-294
-294
-294
-294
-295
-294
-294
-294
-294
-294
-294
-295
-295
-295
-295
-295
-295
-295
-295
-295
-295
-295
-295
-295
-296
-296
-296
-296
-296
-296
-296
-296
-296
-296
-296
-296
-296
-296
-296
-296
-296
-296
-296
-296
-296
-296
-296
-296
-296
-296
-295
-295
-295
-296
-296
-296
-296
-296
-296
-296
-296
-296
-296
-296
-296
-296
-296
-296
-296
-297
-297
-297
-297
-296
-297
-297
-297
-297
-298
-298
-298
-298
-298
-298
-299
-299
-299
-299
-299
-299
-299
-299
-299
-300
-300
-300
-300
-300
-299
-299
-299
-299
-299
-299
-300
-300
-300
-299
-299
-299
-299
-299
-299
-299
-299
-298
-298
-298
-298
-299
-299
-299
-299
-299
-299
-299
-300
-300
-300
-300
-300
-300
-300
-300
-300
-300
-300
-300
-300
-300
-300
-300
-300
-300
-300
-300
-300
-300
-300
-300
-300
-300
-300
-300
-301
-301
-301
-301
-301
-301
-301
-301
-301
-302
-302
-302
-302
-302
-302
-302
-302
-301
-301
-301
-301
-301
-301
-301
-301
-301
-301
-301
-301
-301
-301
-300
-300
-300
-300
-300
-300
-301
-301
-301
-301
-301
-301
-301
-302
-302
-302
-302
-302
-302
-302
-303
-303
-302
-302
-302
-302
-303
-303
-303
-303
-303
-303
-303
-302
-302
-302
-302
-302
-303
-303
-303
-303
-303
-302
-302
-302
-301
-301
-301
-301
-302
-302
-302
-302
-302
-302
-302
-302
-302
-302
-302
-302
-302
-303
-303
-303
-303
-303
-303
-303
-303
-303
-303
-303
-303
-303
-303
-303
-303
-303
-303
-304
-304
-304
-304
-304
-304
-304
-304
-304
-304
-303
-303
-303
-303
-303
-303
-303
-303
-303
-303
-302
-302
-302
-302
-302
-302
-302
-302
-302
-302
-302
-302
-302
-302
-302
-302
-302
-302
-302
-302
-302
-302
-302
-302
-302
-302
-302
-302
-302
-302
-302
-302
-302
-302
-302
-303
-303
-303
-303
-303
-303
-303
-303
-303
-303
-303
-303
-303
-303
-303
-302
-302
-302
-302
-302
-301
-301
-301
-301
-301
-301
-301
-301
-301
-301
-301
-301
-301
-300
-300
-300
-300
-300
-301
-301
-301
-301
-301
-301
-301
-301
-302
-302
-301
-301
-301
-301
-301
-301
-302
-302
-302
-302
-302
-303
-303
-303
-303
-303
-303
-303
-303
-303
-303
-303
-303
-303
-303
-303
-303
-303
-303
-303
-303
-303
-303
-302
-302
-302
-302
-302
-302
-302
-302
-302
-302
-302
-302
-302
-302
-302
-302
-302
-302
-302
-302
-302
-302
-302
-301
-301
-301
-302
-302
-302
-302
-301
-301
-301
-301
-301
-301
-301
-301
-301
-301
-301
-302
-302
-302
-302
-302
-302
-302
-302
-302
-302
-302
-302
-302
-302
-302
-302
-302
-302
-302
-302
-303
-303
-303
-303
-303
-302
-302
-303
-303
-303
-303
-303
-303
-303
-302
-302
-302
-302
-302
-302
-302
-302
-302
-302
-302
-302
-302
-302
-302
-302
-302
-302
-302
-302
-302
-302
-302
-302
-302
-302
-302
-303
-302
-302
-302
-302
-302
-302
-302
-302
-302
-302
-302
-302
-302
-302
-301
-302
-302
-302
-302
-302
-302
-302
-302
-302
-302
-302
-302
-302
-302
-302
-303
-303
-303
-302
-302
-302
-302
-302
-302
-302
-302
-302
-302
-302
-302
-302
-302
-302
-302
-302
-302
-302
-302
-302
-302
-302
-302
-302
-302
-302
-302
-302
-302
-302
-302
-302
-302
-302
-302
-302
-302
-302
-302
-302
-303
-302
-302
-302
-302
-302
-302
-302
-302
-301
-301
-301
-301
-301
-301
-302
-302
-302
-302
-302
-302
-302
-302
-302
-302
-302
-302
-302
-302
-302
-302
-302
-302
-302
-302
-302
-301
-301
-301
-301
-301
-301
-301
-302
-302
-302
-302
-302
-302
-302
-302
-302
-302
-302
-301
-301
-301
-301
-301
-302
-302
-302
-302
-302
-302
-302
-301
-301
-301
-301
-302
-302
-302
-302
-302
-302
-302
-302
-302
-302
-302
-301
-301
-301
-301
-301
-300
-300
-300
-300
-300
-300
-300
-300
-300
-300
-300
-300
-300
-300
-300
-300
-300
-300
-300
-301
-301
-301
-301
-301
-301
-301
-302
-302
-302
-302
-302
-302
-302
-302
-302
-302
-301
-301
-301
-301
-300
-300
-300
-300
-299
-299
-299
-298
-298
-298
-298
-298
-298
-298
-298
-297
-297
-297
-296
-296
-295
-295
-294
-294
-293
-293
-292
-292
-291
-290
-289
-289
-288
-288
-286
-285
-285
-284
-283
-283
-282
-282
-281
-281
-280
-280
-281
-280
-281
-281
-282
-283
-283
-284
-285
-286
-288
-288
-290
-291
-293
-294
-295
-296
-297
-298
-297
-298
-299
-299
-299
-299
-299
-299
-298
-298
-297
-297
-297
-296
-297
-296
-297
-296
-296
-297
-296
-297
-296
-297
-298
-297
-298
-299
-300
-299
-300
-301
-301
-302
-302
-303
-303
-303
-303
-303
-304
-304
-303
-304
-303
-304
-304
-303
-303
-303
-303
-303
-303
-303
-302
-303
-303
-303
-303
-303
-304
-304
-304
-304
-304
-304
-304
-304
-304
-305
-305
-304
-304
-304
-304
-304
-305
-305
-305
-305
-305
-305
-305
-305
-304
-304
-304
-304
-304
-304
-304
-304
-304
-304
-304
-304
-304
-304
-303
-303
-303
-303
-303
-303
-302
-302
-302
-302
-302
-302
-302
-302
-302
-301
-301
-301
-301
-301
-301
-301
-301
-301
-301
-300
-300
-300
-300
-298
-297
-296
-295
-293
-291
-289
-286
-284
-281
-277
-274
-269
-265
-259
-255
-251
-248
-246
-246
-246
-250
-254
-262
-270
-281
-294
-310
-328
-348
-371
-395
-422
-450
-479
-508
-539
-569
-600
-629
-657
-684
-709
-732
-753
-773
-789
-805
-817
-828
-835
-840
-843
-842
-840
-835
-829
-821
-811
-799
-786
-770
-755
-738
-719
-700
-680
-658
-637
-615
-593
-572
-549
-528
-508
-487
-467
-448
-431
-413
-398
-382
-368
-356
-344
-333
-322
-313
-305
-298
-292
-286
-282
-278
-275
-272
-269
-267
-266
-264
-263
-263
-263
-262
-262
-261
-261
-260
-260
-260
-259
-259
-258
-258
-258
-257
-257
-257
-256
-256
-256
-255
-255
-254
-254
-254
-253
-253
-253
-252
-252
-252
-251
-251
-250
-250
-250
-250
-249
-249
-248
-248
-248
-248
-248
-248
-247
-247
-247
-246
-246
-246
-246
-245
-245
-245
-245
-245
-245
-245
-244
-244
-244
-244
-244
-244
-244
-244
-243
-243
-243
-243
-243
-243
-243
-243
-243
-243
-243
-243
-243
-242
-242
-242
-242
-242
-242
-241
-241
-241
-241
-241
-241
-241
-241
-240
-240
-240
-240
-240
-240
-239
-239
-239
-239
-239
-239
-239
-239
-239
-239
-238
-238
-238
-238
-238
-238
-238
-238
-237
-237
-237
-237
-237
-237
-237
-237
-237
-237
-237
-237
-237
-237
-236
-236
-236
-236
-236
-236
-236
-236
-236
-236
-236
-235
-234
-234
-234
-234
-234
-234
-234
-234
-234
-233
-233
-233
-233
-232
-232
-232
-232
-232
-231
-231
-231
-231
-230
-230
-230
-230
-230
-230
-230
-230
-229
-229
-229
-229
-229
-229
-228
-228
-228
-228
-228
-228
-228
-227
-227
-227
-226
-226
-226
-225
-225
-225
-225
-224
-224
-224
-224
-224
-223
-222
-222
-222
-222
-222
-222
-222
-222
-220
-220
-220
-220
-220
-219
-219
-218
-218
-218
-218
-217
-217
-216
-216
-217
-216
-216
-215
-215
-214
-213
-213
-212
-213
-212
-212
-211
-211
-210
-210
-210
-209
-209
-209
-208
-207
-207
-207
-207
-206
-206
-205
-205
-205
-205
-205
-205
-205
-204
-204
-204
-203
-203
-203
-203
-203
-203
-202
-202
-202
-202
-202
-202
-202
-201
-201
-201
-201
-201
-202
-202
-202
-202
-202
-202
-202
-202
-202
-202
-202
-202
-202
-202
-202
-202
-202
-203
-203
-203
-203
-203
-204
-203
-203
-204
-204
-205
-205
-206
-206
-206
-207
-207
-208
-209
-209
-210
-210
-211
-212
-212
-213
-214
-214
-215
-216
-217
-217
-217
-218
-219
-220
-221
-222
-223
-224
-225
-226
-227
-228
-229
-230
-231
-231
-232
-233
-234
-235
-236
-238
-237
-238
-240
-241
-242
-242
-243
-244
-245
-246
-246
-247
-248
-249
-249
-250
-251
-252
-252
-253
-254
-254
-255
-257
-257
-258
-258
-259
-260
-261
-261
-262
-262
-263
-264
-264
-265
-265
-266
-267
-267
-268
-268
-269
-270
-270
-271
-271
-271
-272
-273
-273
-274
-274
-274
-274
-276
-276
-276
-276
-277
-277
-277
-277
-278
-278
-278
-279
-279
-279
-279
-279
-279
-279
-280
-280
-280
-280
-280
-280
-281
-281
-281
-281
-281
-280
-281
-281
-281
-282
-282
-282
-281
-281
-281
-281
-281
-281
-281
-280
-280
-280
-280
-279
-279
-280
-279
-279
-279
-279
-279
-279
-278
-278
-278
-278
-278
-278
-278
-277
-277
-277
-277
-277
-277
-276
-276
-276
-276
-276
-275
-275
-275
-274
-275
-275
-274
-274
-274
-274
-274
-274
-274
-274
-274
-274
-273
-273
-273
-273
-273
-274
-274
-274
-274
-273
-273
-273
-273
-273
-273
-273
-273
-273
-273
-273
-273
-272
-272
-272
-272
-272
-273
-273
-273
-273
-273
-274
-273
-273
-273
-274
-274
-275
-274
-274
-275
-275
-275
-276
-276
-276
-276
-276
-276
-276
-276
-277
-276
-276
-276
-276
-276
-277
-277
-277
-277
-277
-278
-278
-278
-278
-279
-279
-279
-280
-280
-280
-280
-280
-280
-281
-281
-281
-281
-281
-282
-282
-282
-282
-282
-283
-283
-283
-283
-283
-283
-284
-284
-284
-284
-285
-285
-285
-285
-286
-286
-286
-286
-286
-286
-287
-287
-287
-287
-287
-287
-287
-287
-287
-287
-287
-288
-288
-288
-288
-288
-289
-289
-289
-289
-289
-289
-290
-290
-290
-290
-291
-291
-291
-292
-292
-292
-292
-293
-293
-293
-293
-293
-293
-293
-293
-293
-293
-293
-293
-292
-292
-293
-293
-293
-293
-293
-293
-292
-292
-292
-293
-293
-293
-293
-293
-293
-293
-293
-294
-294
-294
-294
-294
-293
-293
-293
-293
-293
-293
-293
-293
-294
-294
-294
-294
-294
-294
-294
-294
-294
-295
-295
-295
-295
-295
-295
-296
-296
-296
-296
-296
-296
-296
-296
-296
-296
-296
-297
-297
-297
-297
-296
-297
-297
-297
-296
-297
-297
-296
-297
-297
-297
-297
-296
-296
-296
-296
-296
-296
-296
-296
-297
-297
-297
-297
-297
-298
-297
-297
-297
-297
-298
-298
-298
-298
-297
-297
-297
-298
-298
-298
-298
-298
-298
-298
-298
-299
-299
-299
-299
-299
-299
-299
-299
-299
-299
-299
-299
-299
-300
-299
-299
-299
-299
-299
-299
-299
-299
-299
-300
-300
-300
-300
-300
-300
-299
-299
-299
-299
-299
-299
-300
-300
-300
-300
-300
-300
-300
-300
-300
-300
-300
-299
-299
-299
-299
-299
-299
-299
-299
-299
-299
-299
-299
-299
-299
-299
-300
-300
-300
-300
-300
-300
-300
-300
-300
-299
-299
-300
-300
-300
-300
-300
-300
-300
-300
-300
-300
-300
-300
-300
-299
-299
-299
-299
-299
-299
-299
-299
-300
-300
-299
-299
-299
-299
-299
-300
-300
-300
-300
-300
-300
-300
-300
-300
-300
-300
-300
-300
-300
-300
-300
-299
-299
-300
-300
-300
-300
-299
-300
-300
-300
-300
-299
-299
-299
-299
-299
-299
-299
-299
-299
-299
-299
-299
-299
-300
-299
-299
-299
-299
-298
-298
-299
-299
-298
-298
-298
-299
-299
-299
-299
-299
-299
-299
-299
-299
-299
-299
-299
-299
-299
-299
-299
-299
-300
-300
-300
-300
-300
-300
-300
-300
-300
-300
-299
-299
-299
-299
-299
-299
-300
-298
-298
-299
-299
-299
-298
-298
-298
-298
-298
-298
-298
-298
-298
-298
-298
-298
-298
-298
-298
-298
-298
-298
-298
-298
-298
-298
-298
-298
-298
-298
-298
-299
-299
-299
-299
-299
-299
-299
-298
-298
-298
-299
-299
-299
-298
-298
-298
-298
-299
-299
-299
-299
-298
-299
-299
-299
-299
-299
-299
-299
-299
-299
-299
-299
-299
-299
-299
-300
-299
-299
-299
-299
-299
-299
-299
-299
-299
-299
-299
-299
-299
-299
-299
-299
-299
-299
-299
-299
-298
-298
-298
-298
-298
-298
-298
-298
-298
-298
-299
-299
-298
-298
-298
-298
-298
-298
-298
-298
-298
-298
-298
-298
-298
-298
-297
-297
-297
-297
-297
-297
-297
-297
-297
-297
-297
-297
-298
-298
-298
-298
-298
-298
-298
-298
-298
-298
-298
-299
-299
-299
-299
-298
-298
-298
-298
-298
-298
-298
-298
-298
-298
-298
-297
-297
-298
-298
-298
-297
-297
-297
-297
-297
-297
-298
-298
-298
-297
-297
-297
-297
-297
-298
-297
-297
-297
-297
-297
-298
-298
-298
-298
-298
-298
-298
-298
-298
-298
-298
-298
-297
-297
-298
-298
-298
-298
-297
-297
-297
-297
-297
-297
-297
-298
-298
-298
-298
-298
-297
-297
-297
-298
-297
-297
-297
-297
-297
-297
-297
-297
-297
-297
-297
-297
-297
-297
-297
-297
-297
-297
-297
-297
-297
-298
-298
-298
-298
-297
-297
-297
-297
-297
-297
-297
-297
-297
-297
-297
-297
-297
-297
-297
-297
-298
-297
-298
-298
-298
-298
-298
-298
-298
-298
-297
-297
-298
-298
-298
-298
-298
-298
-298
-298
-298
-298
-298
-298
-298
-298
-298
-298
-297
-297
-297
-297
-297
-297
-297
-297
-295
-295
-295
-295
-294
-294
-294
-293
-292
-292
-291
-290
-290
-289
-289
-288
-288
-286
-286
-285
-285
-284
-283
-283
-282
-281
-281
-279
-278
-278
-277
-277
-276
-276
-276
-275
-275
-275
-275
-276
-276
-277
-277
-278
-279
-280
-282
-283
-284
-285
-286
-288
-289
-290
-291
-292
-293
-294
-295
-295
-297
-297
-297
-297
-297
-296
-296
-296
-295
-294
-295
-294
-294
-294
-294
-293
-293
-293
-293
-293
-292
-294
-293
-294
-294
-295
-295
-295
-295
-296
-297
-296
-297
-298
-298
-299
-299
-299
-299
-300
-299
-299
-300
-300
-299
-299
-300
-300
-300
-299
-300
-300
-300
-300
-300
-300
-300
-300
-301
-301
-301
-300
-300
-300
-301
-301
-301
-301
-301
-301
-301
-302
-302
-302
-302
-302
-302
-302
-302
-302
-302
-302
-302
-302
-302
-301
-301
-301
-301
-301
-301
-301
-301
-301
-301
-301
-301
-301
-300
-300
-300
-301
-301
-301
-300
-300
-300
-300
-300
-300
-300
-298
-298
-298
-298
-298
-298
-298
-298
-298
-298
-298
-297
-296
-296
-295
-294
-293
-291
-290
-288
-286
-283
-280
-277
-274
-269
-264
-260
-255
-252
-249
-248
-248
-251
-254
-261
-268
-278
-290
-305
-322
-341
-363
-387
-413
-441
-471
-501
-533
-565
-596
-627
-657
-686
-713
-738
-761
-783
-802
-820
-834
-846
-856
-863
-867
-869
-868
-865
-860
-852
-845
-833
-821
-807
-792
-775
-757
-738
-718
-697
-675
-653
-630
-607
-585
-561
-540
-518
-496
-475
-456
-437
-419
-402
-385
-370
-357
-345
-333
-322
-313
-304
-297
-290
-284
-279
-274
-271
-268
-266
-263
-261
-260
-258
-257
-256
-257
-256
-255
-255
-255
-254
-254
-253
-253
-254
-253
-253
-252
-252
-251
-251
-251
-250
-250
-248
-248
-247
-247
-247
-246
-246
-245
-244
-244
-243
-243
-243
-242
-242
-242
-242
-241
-241
-241
-241
-240
-239
-239
-239
-239
-239
-239
-239
-238
-238
-238
-238
-238
-238
-238
-237
-237
-236
-236
-235
-235
-236
-236
-236
-235
-235
-235
-235
-235
-235
-234
-234
-234
-234
-234
-234
-235
-235
-234
-234
-234
-234
-234
-234
-234
-234
-234
-234
-234
-233
-233
-233
-233
-233
-233
-233
-232
-232
-232
-232
-232
-231
-231
-231
-231
-231
-231
-230
-230
-230
-231
-231
-231
-231
-231
-231
-230
-230
-230
-230
-230
-230
-230
-230
-229
-229
-229
-229
-229
-229
-228
-228
-228
-228
-227
-227
-227
-227
-227
-227
-227
-227
-227
-227
-226
-226
-226
-226
-226
-225
-225
-225
-225
-225
-225
-225
-224
-224
-224
-224
-224
-224
-224
-223
-223
-223
-223
-223
-223
-223
-222
-222
-222
-222
-221
-221
-221
-221
-220
-220
-220
-219
-219
-219
-218
-218
-218
-217
-217
-217
-217
-217
-217
-217
-217
-215
-215
-215
-215
-215
-215
-215
-214
-214
-213
-213
-213
-212
-212
-212
-212
-211
-211
-211
-211
-211
-210
-210
-210
-209
-209
-209
-208
-208
-208
-207
-207
-207
-206
-206
-206
-205
-205
-204
-203
-203
-202
-202
-202
-201
-201
-200
-200
-200
-199
-199
-198
-198
-197
-197
-197
-196
-196
-196
-195
-195
-195
-194
-194
-194
-194
-193
-192
-192
-192
-192
-192
-191
-191
-191
-191
-190
-190
-190
-190
-190
-189
-189
-189
-189
-189
-189
-189
-189
-189
-189
-189
-189
-189
-189
-189
-190
-190
-190
-190
-190
-190
-191
-191
-191
-191
-191
-192
-192
-192
-193
-193
-193
-194
-194
-195
-195
-196
-196
-197
-197
-197
-198
-199
-199
-200
-201
-202
-202
-203
-204
-205
-206
-207
-208
-208
-209
-210
-211
-212
-213
-214
-216
-217
-218
-219
-220
-222
-223
-224
-225
-227
-228
-229
-230
-231
-232
-233
-234
-235
-237
-238
-239
-239
-240
-241
-243
-243
-244
-245
-245
-247
-248
-249
-249
-250
-251
-251
-252
-254
-255
-255
-256
-257
-258
-258
-260
-261
-261
-262
-262
-264
-265
-265
-266
-267
-267
-268
-269
-270
-270
-271
-272
-272
-273
-274
-274
-275
-275
-276
-276
-277
-278
-278
-279
-279
-279
-279
-280
-281
-281
-281
-281
-282
-282
-282
-283
-283
-283
-284
-284
-284
-284
-284
-285
-285
-285
-285
-286
-286
-286
-286
-286
-286
-287
-287
-287
-287
-287
-286
-286
-286
-287
-287
-286
-286
-286
-285
-285
-285
-285
-285
-284
-284
-284
-284
-284
-283
-283
-283
-283
-283
-282
-282
-282
-282
-282
-282
-281
-282
-282
-282
-282
-281
-281
-281
-281
-281
-280
-280
-279
-279
-280
-280
-279
-279
-279
-279
-279
-277
-277
-277
-277
-277
-277
-276
-276
-276
-276
-276
-276
-275
-275
-275
-275
-275
-275
-275
-275
-275
-275
-275
-275
-275
-275
-275
-275
-275
-275
-275
-275
-275
-275
-275
-275
-275
-275
-275
-275
-275
-275
-275
-275
-275
-275
-275
-275
-275
-275
-275
-275
-275
-275
-275
-275
-275
-275
-275
-275
-275
-275
-276
-276
-277
-277
-277
-277
-277
-277
-277
-277
-277
-278
-278
-278
-278
-278
-278
-278
-279
-279
-278
-278
-278
-279
-279
-280
-280
-281
-281
-281
-281
-281
-282
-282
-282
-282
-282
-282
-283
-284
-284
-284
-284
-284
-284
-284
-284
-285
-285
-285
-285
-285
-285
-286
-286
-286
-286
-286
-286
-288
-288
-288
-288
-289
-289
-289
-290
-290
-290
-290
-291
-290
-290
-290
-291
-291
-291
-291
-291
-292
-292
-292
-292
-292
-292
-292
-292
-292
-292
-292
-292
-292
-292
-292
-292
-292
-294
-294
-294
-294
-293
-293
-293
-294
-294
-294
-294
-294
-294
-295
-295
-295
-295
-295
-296
-296
-296
-296
-296
-296
-296
-296
-296
-296
-296
-297
-297
-297
-297
-297
-297
-297
-297
-297
-297
-297
-297
-297
-297
-296
-296
-296
-296
-296
-297
-297
-297
-297
-297
-297
-297
-297
-297
-296
-296
-296
-296
-297
-297
-297
-297
-297
-297
-297
-297
-297
-297
-297
-297
-297
-297
-298
-298
-298
-298
-298
-298
-298
-298
-298
-298
-297
-297
-297
-297
-298
-298
-297
-297
-297
-297
-297
-297
-297
-297
-297
-297
-297
-297
-297
-297
-297
-297
-297
-297
-297
-297
-298
-298
-298
-298
-298
-298
-298
-298
-298
-298
-298
-298
-298
-298
-298
-299
-299
-299
-299
-299
-299
-299
-299
-299
-299
-299
-300
-300
-299
-299
-299
-299
-299
-299
-299
-299
-299
-299
-299
-299
-299
-299
-299
-299
-299
-299
-299
-299
-299
-299
-299
-299
-299
-299
-299
-299
-299
-299
-299
-299
-299
-299
-299
-299
-299
-299
-299
-299
-299
-300
-300
-300
-300
-300
-300
-300
-300
-300
-300
-300
-300
-300
-300
-300
-300
-300
-301
-301
-301
-301
-301
-301
-301
-301
-301
-300
-300
-300
-300
-300
-300
-300
-300
-300
-300
-300
-300
-300
-300
-300
-300
-299
-299
-299
-299
-299
-299
-299
-299
-299
-299
-300
-300
-300
-300
-300
-300
-300
-300
-300
-300
-300
-300
-300
-300
-300
-300
-300
-300
-300
-300
-300
-300
-300
-300
-300
-300
-300
-300
-300
-300
-300
-300
-300
-300
-300
-300
-300
-300
-300
-300
-300
-300
-300
-301
-301
-301
-301
-301
-300
-300
-300
-300
-300
-300
-300
-300
-301
-301
-301
-300
-300
-301
-301
-301
-301
-301
-301
-301
-301
-301
-301
-301
-301
-300
-301
-301
-301
-300
-300
-301
-301
-301
-300
-300
-300
-300
-300
-300
-300
-300
-300
-300
-300
-300
-300
-300
-299
-300
-300
-300
-300
-300
-300
-300
-300
-300
-300
-301
-301
-301
-301
-301
-301
-301
-301
-301
-301
-301
-301
-301
-301
-301
-301
-301
-302
-302
-302
-302
-301
-301
-301
-301
-301
-301
-301
-301
-301
-301
-301
-301
-301
-302
-302
-301
-301
-301
-301
-301
-301
-301
-301
-302
-302
-301
-301
-301
-301
-301
-301
-301
-301
-301
-301
-301
-301
-301
-301
-301
-301
-301
-301
-301
-301
-301
-301
-301
-302
-301
-301
-301
-301
-301
-301
-302
-302
-301
-301
-301
-301
-301
-301
-301
-301
-301
-301
-301
-301
-301
-301
-301
-302
-302
-302
-302
-302
-302
-302
-301
-301
-301
-301
-301
-301
-301
-301
-301
-301
-301
-301
-301
-301
-301
-301
-301
-301
-301
-301
-301
-301
-301
-301
-301
-301
-301
-301
-301
-300
-300
-300
-301
-301
-300
-300
-300
-300
-300
-300
-300
-301
-300
-300
-300
-301
-301
-301
-301
-301
-301
-301
-302
-302
-302
-302
-301
-301
-302
-302
-302
-301
-301
-302
-302
-302
-302
-302
-302
-302
-302
-302
-302
-302
-302
-302
-302
-302
-302
-302
-302
-302
-302
-303
-303
-303
-303
-303
-303
-303
-302
-302
-302
-302
-302
-302
-302
-302
-302
-302
-302
-302
-302
-303
-303
-303
-303
-303
-303
-303
-303
-303
-303
-303
-303
-303
-303
-303
-303
-303
-303
-303
-303
-303
-303
-303
-303
-303
-303
-303
-303
-303
-303
-303
-303
-303
-303
-303
-303
-303
-303
-303
-303
-302
-302
-302
-302
-302
-302
-302
-303
-303
-303
-303
-303
-303
-303
-303
-303
-303
-302
-302
-302
-302
-302
-302
-302
-302
-302
-303
-303
-303
-303
-303
-303
-303
-303
-303
-303
-303
-303
-303
-303
-303
-304
-304
-303
-303
-303
-303
-303
-303
-303
-303
-303
-303
-303
-303
-303
-303
-304
-304
-305
-305
-305
-305
-305
-305
-305
-304
-304
-304
-304
-305
-305
-305
-305
-305
-305
-305
-305
-305
-305
-305
-305
-305
-305
-305
-305
-305
-305
-305
-305
-305
-304
-304
-304
-304
-304
-304
-304
-304
-304
-304
-304
-304
-304
-303
-303
-303
-303
-304
-304
-304
-304
-304
-303
-303
-303
-303
-303
-303
-303
-302
-302
-302
-302
-302
-302
-301
-301
-301
-301
-300
-300
-300
-300
-298
-298
-298
-297
-297
-296
-296
-295
-295
-294
-293
-292
-291
-292
-291
-290
-289
-289
-288
-287
-287
-285
-284
-284
-284
-283
-283
-282
-282
-281
-281
-282
-281
-282
-281
-282
-283
-284
-285
-285
-286
-288
-289
-290
-291
-292
-293
-295
-296
-297
-297
-298
-298
-300
-300
-300
-300
-300
-301
-300
-300
-300
-300
-299
-299
-300
-299
-299
-299
-298
-299
-299
-299
-299
-300
-299
-300
-301
-301
-301
-302
-302
-303
-304
-304
-304
-305
-305
-306
-306
-307
-306
-307
-307
-307
-308
-308
-308
-307
-307
-308
-308
-308
-307
-307
-308
-308
-308
-307
-307
-308
-308
-308
-308
-308
-308
-308
-308
-308
-309
-309
-309
-309
-309
-309
-309
-309
-309
-308
-309
-309
-309
-309
-309
-309
-309
-309
-308
-308
-308
-308
-308
-308
-308
-308
-308
-308
-308
-308
-308
-308
-307
-307
-307
-307
-307
-307
-306
-306
-306
-306
-306
-306
-306
-306
-305
-305
-305
-305
-305
-305
-305
-305
-305
-305
-304
-304
-304
-303
-302
-302
-300
-299
-296
-294
-292
-289
-284
-281
-277
-272
-267
-262
-258
-254
-253
-253
-255
-259
-266
-274
-285
-299
-315
-334
-356
-381
-409
-438
-471
-505
-541
-578
-616
-653
-689
-724
-758
-790
-820
-847
-872
-895
-915
-932
-945
-957
-964
-969
-970
-969
-965
-958
-950
-938
-926
-910
-894
-876
-856
-835
-813
-789
-765
-740
-714
-688
-662
-635
-608
-583
-558
-533
-509
-486
-465
-443
-424
-405
-389
-373
-358
-346
-333
-322
-313
-305
-297
-290
-284
-279
-276
-271
-269
-267
-265
-262
-261
-260
-259
-258
-259
-258
-258
-257
-257
-256
-256
-255
-255
-254
-254
-253
-252
-252
-251
-250
-250
-249
-248
-248
-247
-247
-246
-246
-245
-245
-245
-243
-243
-243
-243
-243
-243
-242
-242
-242
-242
-242
-241
-241
-240
-240
-240
-240
-240
-240
-240
-240
-239
-239
-239
-239
-239
-239
-238
-237
-237
-237
-237
-237
-236
-236
-236
-236
-236
-236
-235
-235
-235
-235
-235
-235
-235
-235
-235
-235
-235
-235
-235
-235
-234
-234
-234
-234
-234
-234
-234
-234
-234
-234
-234
-234
-234
-233
-233
-233
-233
-233
-233
-232
-233
-233
-233
-233
-233
-233
-233
-233
-233
-233
-232
-232
-232
-232
-232
-232
-232
-231
-231
-231
-231
-230
-230
-230
-230
-230
-230
-230
-230
-229
-229
-229
-229
-229
-229
-229
-229
-229
-228
-229
-229
-229
-228
-228
-228
-228
-228
-228
-228
-228
-228
-228
-227
-227
-227
-227
-226
-226
-226
-226
-226
-225
-225
-225
-226
-226
-225
-225
-225
-225
-225
-225
-225
-225
-225
-225
-224
-224
-223
-223
-223
-223
-223
-223
-223
-223
-222
-221
-221
-221
-221
-221
-221
-220
-220
-220
-219
-219
-219
-219
-219
-218
-218
-218
-217
-217
-217
-217
-217
-217
-216
-216
-216
-216
-215
-215
-215
-214
-214
-214
-213
-212
-212
-213
-213
-211
-211
-211
-211
-211
-210
-209
-209
-209
-208
-208
-208
-207
-207
-207
-206
-206
-205
-205
-205
-204
-203
-203
-202
-202
-202
-201
-201
-201
-201
-200
-200
-200
-200
-199
-199
-199
-198
-198
-198
-198
-197
-197
-197
-197
-196
-196
-196
-197
-197
-196
-195
-195
-195
-195
-195
-195
-195
-195
-195
-196
-196
-195
-195
-195
-196
-196
-196
-196
-197
-197
-197
-198
-198
-198
-199
-200
-200
-199
-200
-201
-201
-201
-202
-201
-201
-202
-202
-203
-203
-204
-205
-205
-206
-207
-207
-208
-209
-210
-210
-211
-212
-213
-214
-215
-218
-219
-220
-221
-222
-223
-224
-225
-227
-228
-229
-230
-230
-231
-232
-235
-236
-237
-238
-239
-240
-241
-242
-243
-245
-246
-247
-248
-249
-250
-252
-253
-254
-256
-257
-258
-259
-260
-261
-262
-263
-264
-265
-265
-266
-267
-268
-269
-270
-271
-272
-273
-273
-275
-275
-276
-278
-278
-279
-280
-281
-282
-282
-283
-283
-284
-285
-286
-286
-286
-288
-288
-288
-289
-289
-291
-291
-291
-292
-293
-293
-294
-294
-294
-294
-296
-296
-296
-296
-297
-297
-298
-298
-298
-299
-299
-299
-300
-300
-300
-301
-301
-301
-302
-302
-302
-302
-302
-302
-302
-302
-302
-302
-302
-302
-301
-301
-301
-301
-301
-301
-301
-301
-301
-300
-300
-300
-300
-299
-299
-299
-298
-298
-299
-298
-298
-298
-297
-297
-297
-296
-296
-297
-297
-296
-296
-296
-296
-295
-295
-294
-294
-294
-293
-293
-293
-293
-292
-292
-292
-292
-292
-292
-292
-291
-291
-291
-292
-291
-292
-292
-292
-292
-292
-292
-292
-292
-292
-292
-292
-292
-292
-292
-292
-292
-292
-292
-292
-292
-292
-292
-292
-292
-292
-292
-292
-292
-292
-292
-292
-292
-293
-293
-293
-293
-293
-293
-293
-293
-293
-293
-293
-294
-294
-294
-294
-294
-294
-294
-294
-294
-295
-295
-295
-296
-296
-296
-297
-297
-297
-296
-297
-297
-297
-298
-298
-298
-299
-299
-300
-300
-300
-301
-301
-301
-301
-301
-302
-302
-302
-303
-303
-303
-304
-304
-305
-305
-306
-306
-306
-306
-307
-307
-307
-308
-307
-307
-308
-309
-309
-309
-309
-310
-310
-310
-310
-310
-311
-311
-311
-311
-311
-311
-312
-312
-312
-312
-312
-312
-312
-312
-313
-313
-313
-313
-313
-313
-313
-313
-314
-314
-314
-314
-314
-315
-315
-315
-315
-315
-316
-316
-316
-316
-316
-317
-317
-317
-317
-317
-317
-317
-317
-317
-318
-318
-319
-319
-319
-319
-319
-319
-319
-319
-320
-320
-320
-320
-320
-320
-320
-320
-320
-320
-320
-320
-320
-320
-320
-320
-320
-320
-320
-320
-320
-320
-321
-321
-321
-321
-322
-321
-321
-322
-322
-322
-322
-322
-322
-322
-323
-323
-322
-322
-322
-322
-322
-322
-323
-323
-323
-322
-322
-322
-323
-323
-323
-323
-323
-324
-324
-324
-324
-324
-324
-324
-325
-325
-325
-325
-325
-326
-326
-326
-326
-326
-327
-327
-327
-327
-327
-328
-327
-327
-327
-327
-327
-327
-328
-328
-328
-328
-328
-328
-328
-328
-328
-328
-328
-328
-328
-328
-329
-329
-329
-329
-329
-329
-329
-330
-330
-330
-330
-329
-330
-330
-330
-330
-330
-330
-330
-330
-330
-330
-330
-330
-330
-331
-331
-332
-332
-332
-332
-332
-332
-332
-332
-333
-333
-332
-332
-332
-333
-333
-333
-333
-334
-333
-333
-333
-333
-333
-333
-333
-333
-333
-333
-334
-334
-334
-334
-333
-333
-333
-333
-333
-333
-334
-334
-334
-334
-334
-334
-334
-334
-334
-334
-334
-335
-335
-335
-335
-335
-336
-336
-336
-336
-336
-337
-337
-337
-337
-338
-338
-338
-338
-338
-338
-338
-338
-338
-338
-339
-339
-339
-339
-339
-338
-338
-338
-338
-338
-338
-339
-339
-339
-339
-338
-338
-338
-338
-338
-338
-338
-339
-339
-339
-339
-340
-340
-340
-340
-339
-339
-339
-339
-340
-340
-340
-340
-340
-340
-340
-340
-340
-340
-341
-340
-340
-340
-340
-340
-340
-340
-340
-340
-340
-340
-339
-339
-339
-339
-340
-340
-340
-340
-340
-340
-340
-340
-340
-340
-340
-340
-340
-340
-341
-341
-341
-341
-341
-341
-341
-341
-341
-341
-341
-341
-341
-341
-341
-341
-342
-342
-341
-341
-341
-341
-341
-341
-341
-341
-342
-342
-342
-342
-342
-342
-342
-342
-342
-342
-342
-342
-342
-342
-342
-342
-342
-342
-342
-342
-342
-342
-342
-342
-342
-342
-342
-342
-342
-342
-342
-341
-341
-341
-341
-341
-341
-341
-341
-341
-341
-341
-341
-341
-341
-341
-341
-341
-341
-341
-341
-341
-341
-341
-341
-341
-341
-341
-341
-341
-341
-341
-341
-341
-341
-341
-341
-340
-340
-341
-341
-341
-341
-341
-340
-340
-340
-340
-340
-340
-341
-341
-341
-341
-341
-341
-341
-341
-341
-341
-341
-341
-341
-341
-341
-341
-341
-341
-341
-341
-341
-341
-341
-341
-341
-341
-341
-341
-341
-341
-342
-342
-342
-342
-342
-342
-343
-343
-342
-342
-342
-342
-342
-342
-342
-342
-342
-342
-342
-342
-342
-342
-341
-341
-341
-341
-341
-341
-341
-341
-341
-342
-342
-342
-342
-341
-341
-341
-341
-341
-341
-341
-341
-341
-341
-341
-341
-341
-341
-342
-341
-341
-341
-341
-341
-341
-341
-341
-341
-341
-341
-341
-341
-341
-341
-341
-342
-342
-342
-342
-342
-342
-342
-342
-342
-342
-342
-341
-341
-341
-341
-341
-341
-341
-341
-341
-341
-341
-341
-341
-341
-341
-341
-341
-341
-341
-341
-341
-341
-341
-341
-341
-341
-342
-341
-341
-341
-341
-341
-341
-341
-341
-341
-341
-341
-341
-341
-341
-341
-341
-341
-341
-341
-341
-341
-341
-341
-341
-341
-341
-341
-341
-340
-340
-340
-340
-340
-340
-340
-340
-340
-340
-340
-340
-340
-340
-340
-341
-341
-341
-341
-341
-341
-341
-341
-341
-341
-341
-341
-341
-341
-341
-341
-341
-341
-341
-340
-340
-340
-340
-339
-339
-339
-339
-338
-338
-338
-337
-337
-337
-336
-335
-335
-335
-334
-334
-333
-333
-332
-331
-330
-330
-329
-329
-328
-327
-326
-325
-325
-324
-323
-322
-322
-321
-321
-319
-319
-318
-319
-318
-318
-318
-318
-318
-319
-319
-321
-322
-322
-324
-324
-326
-327
-329
-330
-331
-332
-333
-334
-336
-336
-337
-337
-338
-338
-338
-338
-337
-337
-336
-336
-335
-336
-335
-334
-335
-334
-334
-334
-334
-333
-334
-334
-334
-334
-335
-335
-336
-337
-336
-337
-338
-339
-339
-339
-340
-340
-341
-340
-341
-341
-341
-342
-342
-341
-341
-341
-342
-342
-342
-342
-342
-341
-341
-342
-342
-342
-342
-341
-341
-342
-342
-342
-342
-342
-342
-342
-342
-342
-342
-342
-343
-343
-343
-343
-342
-342
-342
-342
-342
-342
-342
-342
-342
-341
-342
-342
-342
-341
-341
-341
-341
-341
-341
-341
-341
-341
-341
-341
-341
-341
-340
-340
-340
-340
-340
-340
-340
-340
-340
-340
-340
-340
-340
-340
-340
-340
-339
-339
-339
-339
-339
-339
-338
-338
-338
-338
-336
-336
-335
-333
-332
-330
-328
-325
-323
-320
-317
-313
-309
-304
-299
-294
-290
-286
-284
-281
-282
-285
-289
-295
-303
-314
-325
-340
-358
-376
-398
-422
-448
-476
-505
-535
-566
-597
-628
-657
-686
-714
-740
-764
-786
-807
-825
-841
-854
-866
-874
-881
-884
-885
-883
-879
-873
-866
-857
-846
-832
-818
-803
-785
-767
-748
-728
-707
-686
-664
-642
-620
-599
-576
-555
-535
-514
-495
-477
-459
-442
-427
-412
-399
-386
-375
-364
-354
-346
-338
-331
-325
-321
-316
-312
-309
-307
-304
-303
-301
-300
-299
-299
-298
-298
-297
-297
-296
-296
-296
-296
-296
-295
-294
-294
-294
-293
-293
-293
-293
-292
-292
-291
-290
-290
-289
-289
-289
-288
-288
-287
-288
-287
-287
-286
-286
-286
-285
-285
-285
-285
-284
-284
-284
-284
-282
-282
-282
-282
-282
-282
-282
-282
-280
-280
-280
-280
-280
-280
-280
-280
-280
-280
-279
-279
-279
-279
-278
-278
-278
-278
-278
-278
-278
-278
-278
-278
-277
-277
-277
-277
-277
-276
-276
-276
-276
-276
-276
-276
-276
-276
-276
-276
-275
-275
-275
-275
-275
-275
-275
-275
-275
-275
-275
-274
-274
-274
-274
-274
-274
-274
-273
-274
-274
-274
-274
-273
-273
-273
-273
-273
-273
-273
-272
-272
-271
-271
-272
-272
-271
-271
-271
-271
-271
-271
-271
-271
-271
-271
-271
-271
-271
-271
-271
-270
-270
-270
-270
-270
-270
-270
-269
-269
-269
-269
-269
-268
-268
-268
-268
-268
-267
-267
-267
-267
-267
-267
-267
-266
-265
-265
-265
-265
-265
-265
-264
-264
-264
-264
-264
-263
-263
-263
-263
-262
-262
-262
-261
-261
-261
-261
-260
-260
-260
-259
-259
-259
-259
-259
-259
-257
-257
-257
-257
-257
-257
-257
-256
-256
-256
-256
-256
-255
-255
-255
-255
-255
-254
-254
-254
-253
-253
-253
-252
-252
-251
-251
-251
-250
-250
-249
-249
-248
-248
-248
-247
-247
-247
-246
-246
-246
-245
-245
-244
-244
-243
-243
-243
-242
-242
-242
-241
-240
-240
-240
-239
-239
-239
-238
-238
-238
-237
-237
-237
-236
-236
-236
-236
-236
-236
-235
-235
-235
-234
-234
-234
-234
-234
-234
-234
-234
-234
-233
-233
-233
-233
-233
-233
-233
-233
-233
-233
-233
-233
-233
-233
-234
-234
-235
-234
-234
-234
-235
-235
-235
-236
-236
-237
-237
-238
-237
-238
-239
-240
-239
-240
-240
-241
-241
-242
-242
-243
-243
-244
-245
-245
-246
-247
-247
-248
-249
-250
-251
-252
-252
-253
-254
-255
-256
-257
-258
-259
-260
-261
-262
-262
-263
-264
-265
-266
-267
-268
-269
-271
-271
-273
-274
-275
-276
-277
-278
-278
-279
-280
-281
-282
-282
-283
-285
-286
-286
-287
-288
-289
-289
-290
-290
-291
-292
-292
-293
-294
-295
-296
-296
-297
-297
-299
-299
-299
-300
-301
-302
-302
-302
-304
-304
-304
-305
-306
-306
-306
-306
-308
-308
-308
-309
-309
-310
-310
-310
-310
-312
-312
-312
-312
-312
-313
-313
-313
-313
-314
-314
-313
-314
-314
-314
-315
-315
-315
-315
-315
-316
-316
-316
-316
-316
-316
-316
-316
-316
-317
-317
-317
-317
-317
-316
-316
-316
-316
-316
-316
-316
-316
-316
-316
-315
-315
-315
-315
-315
-315
-314
-314
-314
-314
-314
-314
-314
-313
-313
-313
-313
-313
-313
-312
-312
-312
-312
-312
-312
-311
-311
-311
-311
-311
-311
-311
-310
-310
-310
-310
-310
-310
-310
-310
-310
-310
-310
-310
-309
-309
-309
-309
-308
-308
-308
-308
-308
-308
-308
-308
-308
-308
-308
-308
-308
-308
-308
-307
-307
-307
-307
-307
-307
-307
-307
-307
-307
-307
-307
-307
-307
-307
-307
-307
-307
-307
-307
-307
-307
-308
-308
-308
-308
-308
-308
-308
-307
-307
-307
-307
-308
-308
-308
-308
-308
-308
-309
-309
-309
-309
-309
-309
-309
-309
-310
-310
-310
-310
-310
-310
-311
-311
-311
-311
-312
-312
-312
-312
-312
-313
-313
-313
-313
-314
-314
-314
-314
-315
-315
-315
-315
-316
-316
-316
-317
-317
-317
-317
-318
-318
-318
-319
-319
-319
-319
-320
-320
-320
-320
-321
-321
-321
-320
-321
-321
-321
-321
-321
-322
-322
-322
-322
-322
-322
-323
-323
-323
-323
-323
-323
-324
-324
-324
-324
-324
-324
-325
-325
-325
-325
-325
-325
-325
-326
-326
-327
-327
-327
-327
-327
-327
-327
-327
-328
-327
-327
-327
-327
-327
-327
-327
-327
-327
-327
-327
-327
-327
-327
-328
-328
-328
-328
-327
-327
-328
-328
-328
-328
-329
-329
-329
-329
-330
-330
-330
-329
-329
-329
-329
-329
-329
-329
-329
-330
-330
-329
-329
-329
-329
-329
-329
-329
-329
-329
-330
-330
-329
-329
-329
-329
-329
-329
-329
-329
-329
-329
-329
-329
-329
-330
-330
-330
-330
-330
-330
-329
-330
-330
-330
-330
-330
-330
-330
-331
-331
-331
-331
-331
-331
-331
-332
-333
-333
-333
-333
-333
-333
-333
-333
-333
-333
-333
-333
-333
-333
-333
-333
-333
-333
-333
-333
-333
-333
-333
-333
-333
-333
-333
-333
-333
-333
-333
-333
-333
-333
-333
-333
-333
-334
-334
-334
-334
-334
-334
-333
-333
-333
-333
-333
-333
-333
-333
-333
-333
-333
-333
-334
-334
-334
-334
-333
-333
-333
-333
-333
-333
-333
-333
-333
-333
-333
-333
-333
-333
-333
-334
-334
-334
-334
-334
-334
-333
-333
-333
-333
-333
-334
-334
-334
-334
-334
-334
-333
-333
-333
-334
-334
-334
-334
-334
-334
-334
-334
-335
-335
-335
-335
-335
-335
-335
-335
-335
-335
-335
-335
-334
-334
-334
-334
-335
-334
-334
-334
-334
-334
-334
-334
-333
-334
-334
-334
-334
-334
-334
-334
-334
-334
-334
-334
-334
-334
-334
-334
-334
-334
-334
-334
-334
-334
-334
-334
-334
-334
-334
-334
-334
-334
-334
-334
-334
-334
-334
-334
-334
-334
-334
-334
-333
-333
-333
-333
-333
-333
-333
-333
-334
-334
-333
-333
-333
-334
-334
-334
-334
-334
-334
-334
-334
-334
-334
-334
-334
-334
-334
-334
-335
-335
-335
-335
-335
-335
-335
-335
-335
-335
-335
-335
-335
-336
-336
-336
-336
-335
-335
-335
-335
-335
-335
-335
-335
-335
-335
-335
-335
-335
-335
-335
-335
-335
-335
-335
-335
-334
-334
-334
-334
-334
-334
-334
-334
-334
-334
-334
-335
-335
-335
-335
-335
-335
-335
-335
-335
-335
-335
-335
-335
-335
-335
-335
-334
-334
-334
-334
-334
-334
-334
-334
-335
-335
-335
-335
-334
-334
-334
-334
-334
-334
-334
-334
-334
-334
-334
-334
-334
-334
-334
-334
-334
-334
-334
-334
-334
-334
-334
-334
-334
-334
-334
-334
-334
-335
-335
-335
-335
-334
-334
-334
-334
-333
-334
-334
-334
-334
-334
-333
-333
-333
-333
-333
-333
-333
-333
-334
-334
-334
-334
-334
-334
-334
-334
-334
-334
-333
-333
-333
-333
-333
-333
-333
-333
-333
-333
-333
-333
-333
-333
-333
-333
-333
-333
-333
-333
-333
-333
-333
-333
-333
-334
-334
-334
-334
-334
-334
-334
-334
-333
-333
-333
-333
-333
-333
-333
-333
-333
-334
-334
-334
-334
-334
-334
-333
-333
-333
-333
-334
-334
-334
-333
-333
-333
-334
-334
-334
-334
-334
-334
-333
-333
-333
-334
-334
-334
-334
-334
-334
-334
-334
-334
-334
-334
-334
-334
-334
-335
-335
-335
-334
-334
-334
-334
-334
-334
-334
-334
-334
-334
-334
-334
-334
-333
-333
-333
-333
-333
-333
-333
-333
-333
-334
-334
-334
-334
-334
-334
-334
-334
-334
-335
-335
-334
-334
-334
-334
-334
-334
-334
-334
-334
-334
-333
-332
-333
-333
-333
-333
-332
-333
-333
-333
-333
-333
-334
-334
-334
-333
-333
-333
-333
-333
-333
-333
-333
-333
-334
-334
-334
-334
-334
-334
-334
-333
-333
-333
-332
-332
-332
-332
-332
-331
-331
-331
-330
-330
-330
-329
-328
-328
-328
-327
-327
-326
-326
-326
-325
-325
-324
-324
-323
-323
-322
-321
-320
-320
-319
-319
-318
-317
-316
-315
-314
-314
-313
-313
-312
-312
-311
-312
-311
-311
-311
-312
-312
-313
-313
-314
-315
-316
-317
-319
-320
-320
-321
-322
-323
-324
-325
-326
-327
-328
-329
-329
-329
-329
-329
-328
-328
-327
-328
-327
-327
-327
-326
-327
-326
-326
-327
-326
-326
-327
-326
-327
-328
-327
-328
-329
-330
-330
-330
-330
-331
-331
-332
-332
-333
-333
-334
-334
-335
-335
-335
-334
-334
-335
-335
-335
-335
-335
-335
-335
-335
-336
-335
-335
-335
-336
-336
-336
-336
-335
-335
-336
-336
-336
-336
-336
-336
-337
-337
-337
-337
-337
-337
-337
-337
-337
-337
-337
-336
-336
-336
-336
-335
-335
-335
-335
-335
-335
-335
-335
-335
-335
-335
-335
-335
-335
-335
-334
-334
-334
-334
-334
-334
-334
-334
-334
-334
-334
-334
-334
-334
-334
-333
-333
-333
-333
-333
-333
-333
-333
-333
-333
-332
-332
-331
-330
