# Simple Text Format
# Sampling Rate (Hz):= 1200.00
# Resolution:= 12
# Labels:= ECG	aVL
# Age:=	14
# Gender:=	Masculino
13
13
13
13
13
13
13
13
13
13
13
13
13
13
13
13
13
13
13
13
13
13
13
13
13
13
13
12
12
12
12
12
12
12
10
10
10
10
10
10
11
11
11
11
11
11
11
12
12
12
12
12
12
12
13
13
13
13
12
12
12
12
12
12
12
12
12
13
13
13
13
13
13
13
13
13
13
13
13
13
13
13
13
12
12
12
12
12
12
12
12
12
12
12
12
11
11
11
11
11
11
11
11
12
12
12
12
12
12
12
12
12
12
12
12
12
12
12
12
12
12
12
12
12
12
12
12
12
12
12
12
12
12
12
12
12
12
12
12
12
12
12
12
12
12
12
12
12
12
12
12
12
12
12
12
12
12
12
12
12
12
12
12
12
11
11
11
11
11
11
12
12
12
12
12
12
12
12
12
12
12
12
12
12
12
12
11
11
11
11
11
11
11
11
11
11
11
11
10
10
10
10
10
10
11
11
11
11
11
11
11
11
10
10
10
11
11
11
11
11
11
11
11
11
11
12
12
12
12
12
12
12
12
12
12
12
12
12
12
12
12
12
12
11
11
11
11
11
11
11
11
11
11
11
11
11
11
11
11
11
11
11
11
10
10
10
10
11
11
11
11
11
11
10
10
10
10
10
10
9
9
9
9
9
9
9
9
9
9
8
8
8
8
8
8
8
8
8
7
7
8
8
8
8
8
9
9
9
9
10
10
10
10
11
11
11
11
11
11
11
11
11
11
11
11
11
11
11
11
11
11
10
10
10
10
10
10
10
10
10
10
10
10
10
10
11
11
11
11
11
11
11
11
11
11
12
12
12
12
12
13
13
13
13
13
13
13
13
13
13
13
13
13
13
13
13
13
13
13
13
13
13
13
13
13
13
13
13
13
13
13
13
13
12
12
13
13
13
13
13
13
13
13
13
13
13
13
13
13
13
13
13
12
12
12
12
13
13
13
13
12
12
13
13
13
13
13
12
12
12
12
12
12
12
12
12
13
13
13
13
12
12
12
12
12
12
12
12
11
11
11
11
11
11
11
11
11
11
12
12
11
11
10
11
11
11
11
11
11
11
11
12
12
12
12
12
12
12
11
11
11
11
11
11
11
11
11
10
10
10
10
10
10
10
10
10
10
10
10
10
10
11
11
11
11
11
11
11
11
11
11
12
12
12
12
12
12
12
12
12
12
12
12
12
12
12
11
11
10
11
11
11
11
11
11
11
10
10
10
10
10
10
10
9
9
9
9
9
9
9
9
8
8
8
8
9
9
9
9
9
9
9
9
9
9
9
9
9
9
9
9
9
9
9
10
10
10
10
10
10
10
11
11
10
10
10
10
10
9
10
9
10
9
8
8
8
8
8
7
7
6
6
7
6
6
6
6
6
6
6
6
6
7
6
7
6
7
7
6
7
7
7
7
7
7
7
7
7
8
8
8
8
8
8
9
9
9
10
10
10
9
10
10
10
11
10
11
11
12
13
12
13
13
14
14
15
15
16
16
17
17
17
17
17
18
18
18
18
17
18
17
18
17
17
17
16
16
16
15
15
14
14
14
13
13
13
14
13
13
13
14
13
13
14
14
13
14
14
14
15
14
14
15
15
15
15
15
14
14
14
14
14
14
14
14
14
14
14
14
14
14
14
14
14
14
14
14
15
15
14
14
14
14
14
14
14
14
13
13
13
13
13
13
13
13
13
13
13
13
13
13
13
13
13
13
13
13
13
14
13
13
12
12
11
11
10
9
9
7
6
5
3
2
1
0
-1
-2
-3
-4
-5
-4
-3
-3
-2
0
2
4
7
10
14
18
22
27
33
38
45
52
59
67
74
81
88
96
104
111
118
124
131
138
143
148
153
157
160
161
163
164
162
161
159
157
153
149
144
138
133
126
121
114
107
101
94
88
82
76
70
64
59
54
50
46
42
37
34
32
29
26
25
23
21
19
18
18
16
16
15
15
15
14
14
14
14
13
13
12
12
12
12
12
12
12
11
11
10
10
11
11
10
10
9
9
9
9
8
8
8
8
9
9
9
9
9
9
8
8
8
8
8
8
9
9
9
9
9
8
8
9
9
9
9
9
9
10
10
11
11
10
10
10
10
10
10
10
11
11
11
11
11
10
10
10
11
11
11
11
11
10
10
10
10
10
10
10
10
10
10
10
11
10
10
10
10
10
10
10
10
10
10
10
10
10
10
10
10
10
10
10
10
10
10
10
10
10
10
10
10
10
10
10
10
10
10
10
10
10
10
10
10
11
11
11
11
11
11
12
12
12
13
13
13
13
13
13
13
13
13
13
13
12
12
12
13
13
13
13
13
13
14
14
14
14
14
14
14
14
14
14
15
15
15
14
15
15
15
15
15
16
16
16
17
17
17
17
17
17
18
18
18
19
18
18
18
18
18
19
19
19
19
19
19
19
19
19
19
19
19
20
20
20
20
20
21
21
21
21
21
21
21
21
21
21
21
22
22
22
22
22
22
22
22
22
22
23
23
23
23
24
24
24
24
24
24
25
25
26
26
26
26
26
26
26
28
28
28
28
28
28
29
29
29
29
29
30
30
30
31
31
31
31
32
32
32
32
32
32
32
32
32
32
34
34
34
34
33
34
34
34
34
35
35
35
35
35
35
36
36
36
36
36
36
36
36
36
36
36
37
37
37
37
37
38
38
38
39
39
40
40
40
41
41
41
41
41
41
41
42
42
43
43
43
43
43
43
43
43
43
43
43
43
43
43
42
42
42
42
42
42
42
42
42
40
40
40
40
40
40
39
39
38
38
38
38
36
36
36
35
35
35
34
33
32
32
32
31
31
30
29
29
29
28
28
27
27
27
26
26
25
25
25
24
24
24
23
23
22
22
22
21
21
20
20
20
19
19
19
19
18
18
18
17
17
18
18
17
17
18
18
17
17
18
18
17
17
18
18
17
17
18
17
17
17
17
18
18
17
17
17
17
18
18
17
17
17
18
18
18
18
18
17
17
18
18
18
18
18
18
18
18
18
18
17
17
18
18
18
18
19
19
19
19
19
19
19
19
19
20
20
20
20
20
20
20
20
20
20
21
20
20
20
20
20
20
20
20
20
20
20
20
20
20
20
22
21
21
21
22
22
22
22
22
22
22
22
23
23
22
22
23
23
23
23
23
23
23
23
23
23
23
23
23
23
23
23
23
24
24
24
24
24
24
24
24
24
24
23
23
23
23
23
23
23
23
23
23
23
23
22
22
22
22
22
22
22
22
22
22
22
22
22
22
22
22
22
22
22
22
22
22
23
23
22
22
22
22
22
23
23
23
23
23
23
24
23
23
23
23
23
23
23
22
22
22
22
22
22
22
22
22
22
22
22
22
22
22
23
23
23
23
24
24
24
24
24
24
24
24
24
24
24
24
24
24
24
23
23
23
23
23
24
23
23
23
23
23
23
23
23
23
22
22
22
23
23
23
23
23
23
23
23
23
23
22
22
23
23
23
23
23
23
23
23
23
23
22
22
22
22
22
22
22
22
22
22
23
23
23
23
23
23
23
23
24
24
23
23
23
23
23
23
22
22
22
22
22
22
22
22
22
22
22
22
22
22
22
22
23
23
23
22
22
22
23
23
23
23
23
23
23
23
23
23
23
23
23
23
23
23
23
22
22
23
23
23
23
23
23
23
23
23
23
23
23
23
23
23
23
23
23
23
22
22
22
22
22
23
23
23
23
23
23
23
23
23
23
23
23
23
23
23
23
23
23
23
23
23
23
23
23
23
23
23
23
23
23
23
23
23
23
24
24
23
23
23
23
24
24
24
25
25
25
25
25
26
26
25
25
25
25
26
26
26
26
26
25
25
25
25
25
25
25
25
25
25
25
25
25
25
25
25
25
25
25
25
25
25
25
26
26
26
26
26
26
26
26
26
26
26
25
25
25
25
25
25
25
25
25
25
25
25
26
26
26
25
25
25
25
26
26
26
26
27
27
27
27
26
26
26
26
26
26
26
26
26
26
26
26
26
26
26
26
25
25
25
25
25
25
25
25
24
24
24
25
25
25
25
25
25
25
25
26
26
26
27
27
27
27
27
28
28
28
28
28
28
27
27
27
27
26
26
26
26
26
25
25
25
25
24
24
24
24
25
25
25
25
25
25
25
26
25
25
25
26
26
27
27
27
27
28
28
28
27
27
27
27
28
28
28
28
27
27
27
27
27
26
27
27
27
27
26
26
26
26
26
26
26
26
26
26
26
26
26
27
27
26
27
27
27
27
27
27
27
27
27
27
27
27
27
27
27
27
27
27
27
27
27
27
27
27
27
28
28
28
28
28
28
28
29
29
29
29
29
29
29
29
29
29
29
29
29
29
29
29
29
29
29
29
29
29
29
29
28
28
28
28
28
28
27
27
27
27
28
28
28
27
27
27
27
27
27
26
26
26
26
27
27
27
27
27
27
27
28
27
27
27
27
28
28
28
28
28
29
28
28
28
28
28
28
28
28
28
28
28
28
28
28
28
28
28
28
28
28
28
28
28
28
28
28
28
28
28
28
28
28
28
28
27
27
27
27
27
27
27
27
27
27
27
27
26
26
26
26
26
27
27
27
27
27
27
27
27
26
26
26
26
26
26
26
26
26
27
27
27
27
27
27
27
28
28
28
28
28
28
28
28
28
28
28
28
28
28
28
27
27
27
27
27
27
27
26
26
27
27
27
27
27
27
28
28
28
28
28
28
28
28
27
27
28
28
28
28
28
28
28
28
28
28
28
28
28
28
28
28
28
28
28
28
28
28
28
28
28
28
28
27
27
27
27
27
27
27
27
27
27
27
26
26
26
26
26
25
25
25
25
25
25
25
25
25
25
25
25
25
25
25
25
25
25
25
25
25
25
25
24
24
24
24
24
24
25
25
25
25
25
25
25
25
25
26
25
25
25
25
25
24
25
24
24
23
24
23
23
22
22
21
21
21
21
21
20
20
20
20
19
19
18
19
19
18
18
18
18
17
18
17
17
17
16
17
17
17
17
17
17
17
17
17
18
18
18
19
18
18
19
19
19
20
20
21
20
21
22
21
22
23
23
24
24
25
25
26
26
27
27
27
28
28
28
29
29
28
29
29
29
29
28
28
28
28
28
27
27
26
27
27
26
26
26
25
25
25
25
25
25
24
24
24
24
24
23
23
23
23
23
23
23
23
23
23
23
23
23
23
23
23
23
24
24
24
24
25
25
24
24
24
24
25
25
25
25
25
25
25
25
25
25
25
25
26
26
26
26
26
26
26
26
26
26
26
26
26
27
27
27
27
27
27
27
26
26
26
26
26
25
25
24
23
23
23
21
20
20
18
17
16
15
14
14
13
13
13
13
14
14
16
18
20
22
25
27
32
35
40
44
50
55
60
67
74
80
87
94
100
107
113
119
125
131
136
140
144
147
151
153
154
154
154
152
151
148
146
142
137
134
128
123
117
112
107
101
95
90
84
79
74
69
65
61
57
54
51
48
46
43
41
38
37
34
33
32
31
30
29
28
27
27
26
26
25
25
25
24
24
24
24
24
24
24
23
23
23
23
22
22
22
22
22
21
21
21
21
21
21
21
20
20
21
20
20
20
20
20
20
20
20
20
19
19
19
19
19
19
20
20
20
20
20
20
20
20
20
20
20
20
20
20
19
19
19
19
19
18
18
19
19
19
19
19
19
19
19
19
19
19
19
19
19
19
19
19
19
20
20
20
20
19
19
19
19
19
19
19
19
19
19
19
19
19
19
19
20
20
20
20
20
20
20
20
20
20
20
20
20
20
20
20
20
20
20
20
20
20
20
20
21
21
21
21
21
21
21
21
21
21
21
21
21
21
21
22
22
22
22
22
22
22
22
22
22
22
22
22
22
22
23
23
23
23
23
23
23
23
23
23
23
23
23
23
23
24
24
24
24
24
24
23
24
24
24
24
24
24
24
24
24
24
24
24
24
24
24
24
24
24
25
25
25
25
26
26
26
26
27
27
27
27
27
27
27
27
27
27
28
29
29
29
29
29
29
29
29
29
30
30
30
30
30
32
32
32
32
32
32
32
32
32
32
32
32
32
32
32
32
32
32
32
34
34
34
34
34
34
35
35
35
35
35
36
36
36
36
36
36
36
36
37
37
37
37
37
37
37
37
37
37
37
37
37
37
37
38
38
39
39
39
39
39
39
39
39
39
40
41
41
41
41
41
41
41
41
42
42
42
43
43
43
43
43
43
44
44
44
43
43
44
45
45
45
45
45
45
46
46
46
47
47
47
47
47
47
47
47
47
47
47
47
47
47
47
47
47
46
46
46
46
46
45
45
45
45
45
44
43
43
43
43
42
42
42
41
41
41
41
39
39
38
38
38
36
36
35
35
34
33
33
33
32
31
31
31
30
30
30
29
29
29
28
28
28
28
27
27
26
26
26
26
25
25
25
24
24
24
23
23
23
22
22
22
21
21
21
20
20
20
20
20
20
20
20
20
20
20
20
20
20
21
20
20
21
21
21
20
20
21
21
21
20
20
20
20
20
20
20
19
19
19
19
19
19
19
19
19
18
18
19
19
19
19
20
20
20
20
20
21
21
21
21
21
21
21
21
21
21
21
21
20
20
20
20
19
20
20
20
19
19
19
18
18
18
18
18
18
18
18
18
18
18
18
18
19
19
19
19
19
19
20
20
20
20
20
20
20
20
20
20
20
20
20
20
20
20
21
20
20
20
20
20
19
19
19
19
19
18
18
18
18
17
17
17
17
17
17
17
16
16
16
16
16
15
15
15
15
15
15
15
15
15
15
15
15
15
15
15
15
15
15
15
15
14
14
14
14
14
14
14
14
13
13
14
14
13
13
12
12
12
12
12
12
12
12
12
12
11
11
11
11
11
11
11
11
11
11
11
11
11
10
10
9
9
9
9
9
9
9
9
9
9
9
10
10
10
9
9
9
9
9
9
9
9
9
9
9
9
9
9
8
8
8
8
8
8
8
8
8
8
7
7
7
7
7
7
7
6
6
6
6
6
6
7
7
7
7
7
7
7
7
7
7
7
6
6
6
6
6
6
6
5
5
5
6
6
5
5
5
5
5
5
5
5
5
5
5
5
5
5
5
5
5
5
5
5
5
5
5
5
5
5
5
5
5
5
5
5
5
5
5
5
5
5
5
5
5
5
5
4
4
4
4
4
4
4
4
4
4
4
5
5
5
4
4
4
4
4
3
3
3
3
3
3
3
4
3
3
3
2
2
2
1
1
1
1
1
2
1
1
1
1
1
1
1
1
1
1
1
1
1
1
1
0
1
1
1
1
1
1
1
1
1
1
1
1
1
1
1
0
0
0
0
0
0
0
-1
-1
-1
-1
0
0
-1
-1
-1
-1
-1
-1
-1
-1
-1
-1
-1
-1
-1
-1
-1
-1
-1
-1
-1
-1
-2
-2
-2
-2
-2
-2
-2
-2
-2
-2
-3
-3
-3
-3
-3
-2
-2
-2
-2
-2
-2
-2
-2
-2
-2
-3
-3
-3
-3
-3
-3
-3
-3
-3
-3
-3
-3
-4
-4
-4
-4
-4
-4
-4
-4
-4
-4
-4
-4
-4
-4
-4
-4
-4
-5
-5
-5
-5
-4
-4
-4
-4
-4
-5
-5
-5
-5
-6
-6
-6
-6
-7
-7
-7
-7
-7
-8
-8
-8
-8
-8
-8
-8
-8
-8
-8
-7
-7
-7
-7
-7
-7
-7
-7
-7
-7
-7
-7
-7
-7
-7
-7
-7
-7
-7
-8
-8
-8
-8
-7
-7
-7
-7
-7
-7
-7
-7
-7
-7
-7
-7
-7
-8
-8
-8
-8
-8
-8
-8
-8
-8
-9
-9
-9
-9
-8
-8
-8
-8
-8
-9
-9
-9
-9
-9
-9
-9
-9
-10
-10
-10
-9
-9
-9
-9
-9
-9
-9
-9
-9
-9
-9
-9
-9
-9
-9
-10
-10
-10
-9
-9
-9
-9
-9
-9
-9
-9
-9
-9
-9
-9
-9
-9
-9
-9
-10
-10
-10
-10
-10
-11
-11
-11
-10
-11
-11
-11
-11
-11
-11
-11
-11
-11
-11
-11
-11
-11
-11
-11
-11
-11
-11
-11
-10
-10
-10
-10
-9
-9
-9
-9
-9
-10
-10
-10
-10
-10
-10
-11
-11
-11
-11
-11
-11
-11
-11
-12
-12
-12
-12
-12
-12
-12
-13
-13
-13
-13
-13
-13
-13
-13
-12
-12
-12
-12
-12
-12
-12
-12
-12
-12
-12
-12
-12
-12
-12
-12
-12
-12
-12
-12
-12
-13
-13
-13
-13
-13
-13
-13
-13
-13
-13
-13
-13
-13
-13
-13
-14
-14
-14
-14
-14
-14
-14
-13
-13
-13
-13
-13
-13
-14
-14
-14
-14
-14
-14
-14
-14
-15
-15
-15
-15
-15
-15
-15
-15
-15
-15
-15
-15
-15
-15
-15
-15
-14
-14
-14
-14
-15
-15
-15
-15
-14
-14
-15
-15
-15
-15
-16
-16
-16
-16
-16
-16
-16
-16
-16
-16
-16
-16
-16
-16
-16
-17
-17
-17
-17
-17
-18
-18
-18
-18
-18
-18
-18
-19
-19
-19
-19
-18
-18
-18
-18
-18
-18
-18
-18
-18
-18
-18
-18
-18
-18
-18
-18
-18
-18
-18
-18
-18
-19
-19
-19
-19
-19
-19
-20
-20
-20
-20
-20
-20
-20
-20
-20
-21
-21
-21
-21
-21
-21
-21
-21
-21
-21
-21
-21
-21
-21
-21
-21
-21
-21
-22
-22
-22
-22
-22
-22
-22
-23
-23
-23
-23
-23
-23
-23
-23
-23
-23
-23
-23
-23
-23
-23
-22
-22
-22
-22
-22
-22
-22
-22
-22
-22
-22
-22
-21
-21
-21
-21
-21
-21
-21
-21
-21
-21
-21
-21
-21
-22
-22
-22
-22
-22
-22
-22
-22
-22
-21
-22
-22
-22
-23
-23
-23
-24
-23
-24
-24
-25
-24
-25
-25
-25
-26
-26
-26
-26
-27
-26
-27
-27
-27
-27
-27
-27
-28
-27
-27
-27
-27
-28
-27
-28
-27
-28
-28
-28
-28
-29
-29
-29
-29
-30
-30
-29
-29
-29
-29
-29
-29
-29
-29
-29
-29
-29
-28
-28
-28
-27
-28
-27
-27
-26
-26
-26
-25
-26
-25
-25
-24
-23
-23
-22
-22
-21
-21
-21
-20
-21
-20
-20
-20
-20
-19
-20
-19
-19
-20
-20
-21
-21
-21
-22
-22
-23
-23
-23
-23
-24
-24
-24
-25
-25
-25
-25
-24
-25
-25
-25
-24
-24
-25
-25
-25
-25
-25
-24
-24
-24
-24
-25
-25
-25
-25
-25
-25
-25
-25
-25
-25
-25
-25
-25
-25
-25
-25
-24
-24
-24
-25
-25
-25
-25
-25
-25
-25
-25
-25
-26
-25
-25
-25
-25
-26
-26
-26
-26
-26
-27
-27
-27
-26
-27
-27
-27
-27
-27
-26
-26
-26
-26
-26
-26
-26
-27
-27
-28
-28
-29
-29
-30
-31
-32
-33
-34
-36
-37
-39
-40
-41
-43
-44
-44
-44
-44
-44
-43
-42
-40
-39
-36
-33
-31
-27
-23
-18
-14
-8
-3
4
9
17
24
31
38
46
52
59
66
73
79
85
91
96
100
104
107
110
110
111
111
111
109
107
103
100
96
91
86
80
75
68
62
57
51
44
38
33
27
21
17
12
7
3
-1
-5
-8
-11
-13
-16
-19
-20
-22
-24
-25
-26
-27
-28
-29
-29
-30
-30
-30
-31
-31
-31
-31
-31
-31
-32
-32
-32
-32
-32
-32
-33
-33
-33
-33
-34
-34
-34
-34
-35
-35
-34
-35
-35
-35
-35
-35
-36
-36
-35
-36
-36
-36
-36
-36
-36
-37
-37
-37
-37
-36
-36
-36
-36
-36
-36
-36
-36
-36
-36
-36
-36
-36
-35
-35
-36
-36
-36
-36
-36
-36
-36
-36
-36
-36
-36
-37
-36
-36
-36
-36
-36
-36
-36
-36
-35
-36
-36
-36
-36
-36
-36
-36
-37
-37
-37
-36
-36
-36
-36
-36
-36
-37
-37
-37
-37
-37
-36
-36
-36
-36
-35
-35
-35
-35
-35
-35
-36
-36
-36
-36
-35
-35
-35
-35
-35
-35
-35
-35
-35
-35
-35
-35
-35
-35
-35
-35
-35
-35
-35
-35
-35
-35
-35
-35
-35
-35
-35
-35
-35
-35
-35
-35
-35
-35
-35
-35
-35
-34
-34
-35
-35
-34
-34
-34
-34
-34
-33
-33
-33
-32
-32
-32
-32
-32
-32
-32
-32
-32
-31
-32
-32
-32
-33
-32
-32
-33
-33
-33
-33
-34
-34
-34
-35
-34
-34
-34
-34
-34
-34
-34
-34
-34
-34
-34
-33
-33
-33
-33
-32
-32
-32
-31
-31
-31
-31
-31
-30
-30
-30
-30
-30
-30
-30
-30
-30
-30
-30
-30
-29
-29
-29
-29
-29
-29
-29
-28
-28
-28
-28
-28
-28
-28
-28
-28
-27
-27
-27
-27
-27
-27
-27
-27
-26
-26
-25
-25
-25
-25
-25
-25
-25
-25
-25
-25
-24
-23
-23
-23
-23
-23
-23
-23
-23
-22
-22
-22
-21
-21
-21
-21
-20
-20
-21
-20
-20
-20
-19
-19
-19
-18
-18
-18
-18
-17
-17
-17
-17
-16
-16
-16
-16
-16
-15
-15
-15
-15
-14
-14
-14
-14
-14
-14
-14
-13
-13
-13
-13
-12
-12
-12
-12
-12
-12
-12
-12
-12
-12
-12
-11
-11
-11
-11
-11
-11
-11
-11
-11
-10
-11
-11
-11
-11
-11
-12
-12
-12
-12
-12
-12
-12
-13
-12
-13
-13
-13
-13
-13
-13
-13
-13
-13
-14
-14
-14
-14
-14
-15
-15
-16
-16
-17
-17
-17
-19
-19
-19
-20
-21
-21
-21
-23
-23
-23
-24
-25
-25
-26
-27
-28
-28
-28
-30
-30
-30
-31
-31
-32
-33
-33
-34
-34
-34
-35
-36
-37
-36
-36
-37
-37
-37
-37
-38
-38
-38
-39
-39
-39
-40
-40
-39
-39
-40
-40
-40
-40
-41
-41
-40
-40
-41
-41
-41
-41
-41
-41
-42
-41
-41
-41
-41
-41
-41
-42
-41
-41
-41
-41
-40
-41
-40
-40
-40
-40
-40
-40
-41
-41
-40
-40
-40
-40
-40
-40
-40
-41
-41
-41
-41
-41
-41
-40
-40
-40
-40
-40
-39
-39
-39
-40
-40
-39
-39
-39
-39
-39
-39
-39
-39
-39
-39
-39
-39
-39
-39
-39
-39
-40
-40
-39
-39
-39
-39
-39
-39
-39
-38
-38
-38
-38
-38
-38
-38
-38
-38
-38
-38
-38
-38
-38
-38
-37
-37
-37
-37
-37
-37
-37
-37
-37
-37
-37
-37
-37
-37
-38
-38
-38
-38
-38
-38
-38
-38
-38
-38
-38
-38
-38
-39
-39
-39
-39
-39
-39
-39
-39
-39
-39
-39
-39
-39
-39
-39
-39
-39
-40
-40
-40
-40
-40
-40
-40
-40
-40
-40
-40
-40
-40
-40
-40
-40
-40
-40
-40
-39
-39
-39
-39
-39
-38
-38
-39
-39
-39
-39
-38
-38
-38
-38
-39
-39
-39
-39
-39
-39
-39
-40
-40
-40
-41
-41
-41
-41
-42
-42
-42
-42
-43
-43
-43
-43
-43
-43
-44
-44
-44
-44
-44
-44
-44
-44
-44
-44
-44
-44
-44
-45
-45
-45
-45
-45
-45
-45
-45
-45
-45
-45
-45
-45
-44
-44
-44
-44
-44
-44
-44
-44
-44
-44
-44
-44
-44
-44
-44
-44
-44
-43
-43
-43
-43
-43
-43
-43
-43
-43
-43
-43
-43
-43
-43
-43
-43
-43
-43
-43
-43
-43
-43
-43
-43
-43
-43
-43
-43
-43
-43
-43
-43
-43
-43
-43
-43
-43
-43
-43
-43
-43
-43
-43
-42
-43
-43
-43
-43
-43
-43
-43
-43
-43
-43
-43
-43
-43
-43
-43
-42
-42
-42
-42
-42
-42
-42
-42
-42
-42
-42
-42
-42
-42
-42
-42
-42
-42
-43
-43
-43
-43
-43
-42
-42
-42
-42
-42
-42
-42
-42
-42
-42
-42
-42
-41
-41
-41
-42
-42
-42
-42
-42
-42
-42
-43
-43
-43
-43
-43
-43
-42
-43
-43
-43
-43
-43
-43
-43
-43
-43
-43
-43
-43
-43
-43
-43
-43
-43
-43
-43
-44
-44
-44
-44
-44
-44
-44
-44
-44
-44
-44
-43
-43
-43
-43
-43
-43
-43
-43
-43
-43
-43
-43
-43
-43
-43
-43
-42
-42
-42
-42
-42
-42
-43
-43
-43
-43
-43
-43
-43
-43
-44
-44
-44
-44
-44
-44
-44
-44
-44
-45
-45
-45
-45
-45
-45
-45
-45
-45
-45
-45
-45
-45
-45
-44
-44
-44
-44
-44
-44
-44
-44
-44
-44
-44
-44
-44
-44
-44
-44
-44
-44
-44
-45
-45
-45
-45
-45
-45
-45
-45
-45
-45
-45
-45
-45
-45
-45
-44
-44
-44
-44
-45
-45
-45
-45
-45
-46
-46
-46
-46
-46
-46
-46
-46
-46
-46
-46
-46
-46
-46
-46
-46
-46
-46
-46
-46
-45
-45
-45
-45
-45
-45
-45
-45
-45
-45
-46
-46
-46
-46
-46
-46
-46
-46
-46
-45
-45
-46
-46
-46
-46
-46
-46
-46
-46
-46
-46
-46
-46
-46
-46
-46
-46
-46
-46
-46
-46
-46
-46
-47
-46
-46
-46
-46
-47
-47
-47
-47
-47
-47
-47
-47
-47
-47
-47
-47
-48
-48
-48
-48
-48
-48
-48
-48
-49
-49
-49
-49
-49
-49
-50
-50
-50
-49
-50
-50
-50
-49
-49
-49
-49
-49
-49
-48
-48
-48
-48
-48
-48
-47
-48
-48
-48
-48
-47
-47
-47
-47
-47
-47
-47
-47
-46
-46
-46
-47
-47
-46
-46
-46
-46
-46
-47
-46
-47
-47
-47
-47
-47
-47
-47
-47
-47
-47
-46
-46
-46
-46
-46
-46
-46
-46
-46
-46
-46
-47
-46
-46
-46
-46
-46
-46
-46
-46
-46
-46
-46
-46
-46
-47
-47
-46
-46
-46
-46
-47
-47
-47
-47
-47
-47
-47
-47
-47
-47
-47
-47
-47
-48
-47
-47
-47
-47
-47
-47
-47
-47
-47
-47
-47
-48
-48
-48
-48
-48
-48
-48
-48
-48
-48
-48
-48
-48
-48
-47
-47
-48
-48
-48
-48
-47
-47
-47
-47
-47
-47
-47
-47
-46
-46
-46
-46
-46
-46
-46
-46
-46
-46
-46
-46
-46
-46
-47
-47
-47
-47
-47
-47
-47
-47
-48
-47
-47
-47
-47
-48
-48
-48
-48
-48
-48
-48
-48
-48
-48
-48
-48
-48
-48
-48
-48
-48
-48
-48
-48
-48
-48
-48
-47
-47
-47
-47
-47
-47
-47
-47
-47
-47
-48
-48
-48
-48
-48
-48
-48
-48
-48
-49
-49
-49
-49
-49
-49
-49
-49
-49
-49
-48
-48
-48
-48
-48
-48
-48
-48
-49
-49
-49
-49
-49
-48
-48
-48
-48
-48
-48
-48
-47
-47
-47
-47
-47
-46
-46
-46
-46
-46
-46
-46
-46
-46
-46
-46
-46
-46
-46
-46
-46
-46
-46
-46
-46
-47
-47
-47
-47
-47
-49
-49
-49
-49
-49
-49
-49
-49
-49
-49
-49
-49
-50
-50
-50
-50
-50
-49
-49
-49
-49
-49
-49
-49
-49
-48
-48
-48
-48
-48
-48
-48
-48
-48
-48
-48
-49
-49
-49
-49
-49
-49
-49
-50
-50
-51
-51
-51
-51
-51
-51
-51
-51
-51
-51
-51
-51
-51
-50
-50
-50
-50
-50
-50
-50
-50
-49
-49
-49
-49
-49
-49
-49
-49
-49
-49
-49
-49
-49
-49
-49
-50
-50
-50
-50
-50
-50
-50
-51
-51
-51
-51
-51
-51
-51
-51
-51
-51
-51
-51
-51
-50
-50
-51
-51
-51
-51
-51
-51
-51
-51
-51
-51
-51
-51
-51
-51
-51
-51
-51
-51
-51
-51
-51
-52
-52
-52
-52
-52
-52
-52
-52
-52
-53
-53
-53
-53
-53
-53
-53
-54
-54
-53
-52
-52
-52
-53
-53
-53
-53
-52
-52
-52
-52
-52
-52
-52
-52
-52
-52
-52
-52
-52
-52
-52
-52
-52
-53
-53
-53
-53
-54
-54
-54
-53
-53
-54
-54
-53
-53
-54
-54
-53
-54
-53
-54
-53
-54
-54
-54
-54
-55
-55
-56
-56
-57
-56
-56
-57
-57
-58
-57
-58
-57
-58
-57
-58
-57
-58
-57
-58
-57
-58
-58
-57
-57
-58
-58
-58
-58
-58
-57
-58
-58
-58
-58
-57
-57
-57
-57
-57
-56
-56
-56
-57
-57
-56
-56
-56
-56
-55
-56
-56
-55
-55
-55
-54
-55
-54
-53
-54
-53
-54
-53
-53
-53
-53
-53
-53
-53
-52
-53
-53
-52
-53
-52
-53
-52
-53
-53
-53
-54
-54
-54
-54
-54
-54
-54
-55
-55
-55
-55
-55
-55
-56
-56
-56
-56
-56
-56
-56
-56
-56
-56
-56
-56
-56
-56
-56
-56
-56
-57
-57
-57
-57
-57
-57
-57
-57
-57
-57
-57
-57
-57
-57
-57
-57
-57
-58
-58
-58
-58
-58
-58
-58
-58
-58
-59
-58
-58
-57
-57
-56
-56
-55
-55
-53
-53
-51
-50
-48
-47
-44
-43
-40
-39
-37
-36
-35
-33
-32
-30
-29
-27
-26
-24
-22
-22
-19
-18
-17
-16
-14
-13
-13
-13
-13
-13
-13
-12
-12
-12
-12
-13
-13
-14
-15
-16
-17
-18
-19
-21
-22
-24
-25
-26
-28
-30
-32
-32
-34
-36
-38
-40
-41
-43
-44
-45
-46
-48
-49
-50
-52
-53
-53
-54
-54
-55
-56
-55
-56
-56
-56
-56
-56
-57
-57
-57
-57
-57
-57
-58
-57
-57
-57
-57
-57
-57
-58
-58
-58
-58
-58
-58
-58
-58
-58
-58
-58
-58
-58
-58
-58
-57
-57
-57
-57
-57
-57
-57
-57
-57
-57
-57
-57
-56
-56
-56
-56
-56
-56
-56
-56
-56
-57
-57
-57
-57
-57
-57
-57
-57
-57
-57
-57
-57
-57
-57
-57
-57
-57
-58
-58
-58
-58
-57
-57
-57
-57
-57
-57
-57
-57
-56
-56
-56
-56
-56
-56
-56
-56
-55
-54
-54
-54
-54
-54
-54
-54
-54
-54
-54
-54
-54
-55
-55
-55
-55
-55
-55
-55
-55
-55
-55
-55
-54
-54
-54
-54
-54
-54
-54
-54
-54
-54
-53
-54
-54
-54
-54
-54
-54
-54
-54
-53
-53
-53
-53
-53
-53
-53
-53
-53
-53
-53
-53
-53
-53
-53
-52
-52
-52
-52
-52
-52
-52
-52
-52
-52
-51
-51
-51
-51
-51
-51
-52
-51
-51
-51
-50
-50
-50
-50
-51
-51
-51
-51
-51
-51
-51
-51
-50
-49
-49
-49
-49
-49
-48
-48
-48
-47
-47
-47
-46
-46
-46
-45
-45
-45
-44
-44
-44
-44
-44
-44
-44
-44
-44
-43
-43
-43
-42
-42
-42
-42
-42
-42
-42
-42
-42
-41
-41
-41
-41
-41
-41
-40
-39
-39
-39
-39
-38
-38
-38
-37
-37
-37
-37
-37
-36
-36
-36
-36
-35
-35
-35
-35
-34
-33
-33
-33
-33
-33
-33
-33
-32
-32
-31
-31
-30
-30
-30
-30
-30
-30
-29
-28
-28
-27
-27
-26
-26
-26
-25
-25
-24
-24
-24
-23
-23
-22
-22
-21
-22
-22
-21
-21
-21
-20
-20
-20
-20
-19
-19
-19
-18
-18
-18
-18
-18
-18
-17
-17
-17
-17
-17
-16
-15
-15
-15
-14
-14
-14
-13
-13
-12
-12
-11
-11
-12
-11
-11
-10
-10
-10
-9
-9
-9
-8
-8
-9
-9
-9
-8
-8
-8
-8
-8
-8
-8
-8
-8
-8
-8
-8
-8
-8
-9
-9
-9
-10
-10
-11
-11
-11
-12
-12
-13
-14
-14
-15
-16
-16
-17
-19
-19
-20
-21
-22
-24
-25
-25
-26
-27
-28
-30
-30
-31
-32
-33
-34
-35
-36
-37
-38
-39
-39
-40
-41
-41
-42
-42
-43
-44
-45
-45
-46
-46
-46
-46
-47
-48
-48
-48
-48
-49
-49
-49
-49
-50
-50
-50
-50
-50
-51
-51
-52
-52
-52
-52
-53
-53
-53
-54
-54
-54
-54
-54
-54
-55
-55
-55
-55
-55
-55
-55
-55
-56
-56
-56
-56
-55
-55
-55
-55
-55
-55
-55
-55
-55
-54
-54
-54
-54
-53
-54
-54
-53
-53
-53
-53
-52
-52
-52
-52
-52
-51
-52
-52
-52
-52
-52
-52
-52
-51
-51
-51
-51
-51
-51
-50
-50
-50
-50
-51
-51
-51
-51
-51
-51
-51
-51
-51
-51
-51
-51
-51
-51
-51
-50
-50
-50
-50
-50
-49
-49
-49
-49
-49
-49
-48
-48
-48
-48
-47
-47
-47
-47
-47
-47
-46
-46
-46
-46
-46
-46
-46
-45
-46
-46
-46
-46
-46
-45
-45
-45
-45
-45
-45
-44
-44
-44
-44
-44
-44
-44
-44
-43
-43
-43
-43
-43
-43
-43
-43
-43
-43
-43
-43
-43
-43
-43
-43
-43
-43
-43
-43
-43
-43
-43
-42
-42
-42
-42
-42
-42
-42
-42
-42
-42
-42
-42
-42
-41
-41
-41
-41
-41
-41
-41
-41
-40
-40
-40
-40
-40
-40
-41
-41
-41
-41
-41
-41
-42
-42
-41
-41
-41
-42
-42
-42
-42
-42
-42
-42
-42
-42
-42
-43
-43
-43
-43
-43
-42
-42
-42
-42
-42
-41
-41
-41
-41
-41
-41
-42
-42
-42
-42
-42
-43
-43
-43
-43
-42
-43
-43
-43
-43
-43
-44
-44
-44
-44
-44
-44
-45
-45
-45
-44
-44
-44
-44
-44
-44
-44
-43
-43
-43
-43
-43
-43
-43
-43
-43
-43
-43
-43
-43
-43
-43
-43
-43
-43
-43
-43
-43
-43
-43
-44
-44
-44
-43
-43
-43
-43
-43
-43
-42
-42
-42
-42
-42
-42
-42
-42
-42
-42
-42
-42
-42
-42
-42
-42
-42
-42
-42
-42
-43
-43
-43
-43
-43
-42
-42
-42
-42
-42
-42
-42
-42
-42
-42
-41
-41
-41
-41
-41
-40
-40
-40
-41
-41
-40
-40
-40
-40
-40
-40
-40
-40
-40
-40
-40
-40
-40
-41
-41
-42
-42
-41
-41
-41
-41
-41
-41
-41
-41
-41
-41
-42
-42
-42
-42
-42
-42
-42
-42
-42
-42
-42
-42
-42
-42
-42
-42
-41
-41
-41
-41
-41
-41
-41
-41
-41
-41
-41
-41
-41
-42
-42
-42
-42
-42
-42
-41
-41
-41
-42
-42
-42
-42
-41
-41
-41
-41
-41
-41
-41
-41
-41
-41
-41
-41
-41
-40
-39
-39
-39
-39
-39
-39
-39
-39
-39
-39
-39
-39
-39
-39
-39
-39
-38
-38
-38
-38
-37
-37
-37
-37
-37
-37
-38
-38
-38
-38
-38
-38
-38
-39
-39
-39
-39
-40
-40
-40
-40
-40
-41
-40
-40
-40
-40
-40
-40
-40
-40
-40
-40
-40
-39
-39
-39
-39
-38
-38
-38
-38
-38
-38
-38
-38
-38
-37
-37
-37
-37
-37
-37
-37
-37
-37
-37
-37
-37
-37
-37
-37
-37
-37
-37
-37
-37
-38
-38
-38
-38
-38
-38
-38
-38
-38
-38
-38
-38
-38
-38
-38
-38
-38
-38
-38
-38
-38
-38
-38
-38
-38
-38
-38
-38
-38
-38
-38
-39
-39
-39
-39
-39
-39
-39
-39
-38
-37
-37
-37
-37
-37
-37
-37
-37
-37
-37
-37
-37
-37
-37
-38
-37
-37
-37
-37
-38
-38
-38
-38
-38
-38
-38
-38
-38
-38
-38
-38
-37
-37
-37
-37
-37
-37
-37
-36
-36
-36
-36
-37
-37
-37
-37
-36
-36
-36
-36
-36
-36
-36
-36
-36
-36
-36
-36
-36
-36
-37
-37
-37
-37
-37
-37
-37
-38
-38
-38
-38
-38
-38
-38
-37
-37
-37
-38
-36
-36
-36
-36
-36
-35
-35
-35
-35
-35
-35
-36
-36
-36
-36
-36
-36
-36
-36
-36
-36
-36
-36
-36
-36
-36
-36
-36
-36
-36
-36
-36
-36
-36
-36
-35
-35
-35
-35
-35
-35
-35
-34
-34
-34
-34
-34
-34
-35
-35
-34
-34
-35
-35
-35
-35
-35
-35
-35
-35
-35
-35
-35
-35
-35
-35
-35
-35
-35
-35
-35
-35
-35
-35
-35
-34
-34
-34
-34
-33
-33
-33
-33
-32
-33
-33
-33
-33
-33
-32
-32
-32
-32
-32
-32
-32
-32
-32
-32
-32
-32
-32
-32
-32
-31
-31
-31
-31
-32
-32
-32
-32
-32
-32
-32
-32
-32
-32
-32
-32
-32
-32
-32
-32
-32
-32
-32
-32
-32
-32
-32
-32
-32
-32
-31
-31
-31
-31
-31
-31
-31
-31
-31
-31
-31
-31
-31
-31
-31
-31
-31
-31
-31
-32
-32
-32
-32
-32
-32
-32
-32
-32
-32
-32
-32
-32
-32
-32
-32
-32
-32
-31
-31
-31
-31
-31
-31
-31
-31
-31
-30
-30
-30
-30
-30
-30
-30
-30
-30
-30
-30
-30
-30
-30
-30
-30
-30
-30
-30
-30
-30
-30
-30
-29
-29
-29
-29
-29
-29
-29
-29
-29
-29
-29
-29
-29
-29
-29
-29
-29
-29
-29
-29
-29
-29
-29
-29
-29
-29
-29
-29
-29
-29
-29
-29
-29
-28
-28
-28
-28
-28
-28
-28
-28
-28
-28
-28
-29
-29
-29
-29
-29
-29
-29
-29
-29
-29
-29
-29
-29
-29
-29
-29
-28
-28
-28
-28
-28
-28
-28
-28
-28
-28
-28
-28
-27
-27
-28
-28
-28
-28
-28
-28
-28
-28
-28
-28
-28
-28
-28
-28
-28
-28
-28
-28
-28
-28
-28
-28
-28
-28
-29
-29
-29
-28
-28
-28
-28
-28
-28
-28
-28
-28
-28
-28
-28
-28
-28
-28
-27
-27
-27
-27
-27
-27
-26
-26
-26
-26
-26
-26
-26
-25
-25
-26
-26
-25
-26
-25
-26
-26
-26
-26
-26
-27
-27
-27
-27
-27
-28
-28
-29
-28
-29
-29
-30
-30
-30
-30
-31
-30
-31
-30
-31
-30
-30
-31
-30
-31
-30
-30
-31
-30
-31
-31
-30
-31
-31
-31
-31
-31
-31
-31
-31
-31
-32
-32
-31
-31
-31
-31
-31
-31
-31
-32
-31
-31
-30
-29
-30
-29
-28
-28
-27
-27
-26
-27
-26
-26
-25
-25
-24
-23
-23
-23
-23
-22
-22
-22
-22
-22
-23
-22
-23
-23
-23
-23
-23
-24
-24
-24
-24
-24
-25
-25
-25
-25
-25
-26
-25
-25
-25
-26
-25
-25
-25
-25
-25
-25
-26
-26
-26
-26
-26
-25
-25
-26
-26
-26
-26
-26
-25
-25
-25
-25
-25
-25
-25
-26
-25
-25
-25
-25
-25
-25
-24
-24
-24
-24
-24
-24
-24
-24
-24
-24
-24
-24
-24
-24
-23
-23
-24
-24
-24
-24
-24
-24
-24
-24
-24
-24
-24
-24
-24
-24
-24
-24
-24
-24
-24
-24
-25
-25
-25
-25
-26
-27
-27
-28
-29
-30
-31
-32
-32
-33
-34
-35
-36
-36
-36
-36
-36
-34
-33
-31
-29
-26
-23
-20
-17
-12
-9
-3
1
8
14
20
26
33
40
46
53
60
66
72
77
83
88
94
98
101
104
106
107
108
107
106
105
102
98
94
90
86
80
75
69
64
58
52
46
41
36
30
25
20
16
12
9
5
2
-1
-3
-6
-8
-10
-12
-13
-15
-16
-17
-17
-18
-19
-19
-20
-20
-21
-21
-22
-22
-22
-22
-22
-22
-22
-22
-23
-23
-23
-24
-24
-24
-24
-25
-25
-25
-25
-26
-26
-26
-25
-25
-25
-25
-25
-25
-25
-25
-25
-25
-25
-25
-25
-24
-24
-24
-24
-24
-24
-24
-25
-25
-24
-24
-24
-24
-24
-24
-25
-25
-25
-25
-25
-25
-25
-25
-25
-25
-25
-25
-25
-25
-25
-26
-26
-26
-25
-25
-25
-25
-26
-26
-26
-26
-26
-26
-26
-26
-26
-25
-25
-25
-25
-25
-25
-25
-25
-25
-25
-25
-25
-25
-25
-25
-25
-25
-25
-25
-25
-25
-25
-24
-24
-24
-24
-24
-24
-24
-23
-23
-23
-23
-23
-23
-23
-22
-22
-22
-22
-22
-22
-22
-22
-22
-22
-21
-21
-21
-21
-21
-21
-21
-21
-21
-21
-21
-21
-21
-21
-21
-21
-21
-21
-21
-21
-21
-21
-20
-21
-21
-21
-21
-21
-21
-21
-21
-21
-21
-21
-21
-21
-21
-20
-20
-20
-20
-20
-19
-19
-19
-19
-19
-19
-19
-19
-17
-17
-17
-17
-17
-17
-17
-17
-17
-17
-17
-17
-16
-16
-16
-16
-16
-15
-15
-15
-15
-15
-15
-14
-14
-14
-14
-14
-14
-15
-15
-14
-14
-14
-14
-14
-14
-13
-13
-14
-14
-13
-13
-13
-13
-13
-13
-13
-12
-12
-11
-11
-11
-11
-10
-10
-10
-11
-11
-10
-10
-10
-10
-9
-9
-9
-9
-8
-8
-8
-8
-7
-7
-7
-7
-7
-7
-6
-6
-6
-6
-7
-6
-6
-6
-6
-6
-6
-6
-6
-6
-5
-5
-5
-5
-4
-4
-4
-4
-3
-3
-3
-3
-3
-2
-2
-2
-2
-2
-2
-2
-2
-2
-1
-1
-1
-1
0
0
0
0
0
0
0
1
1
1
2
2
2
2
2
2
2
2
2
3
3
3
3
3
3
3
3
3
3
3
3
3
3
5
5
5
5
5
5
5
5
5
5
5
5
6
6
6
6
6
6
6
6
6
6
6
6
6
6
6
5
5
5
4
4
3
3
3
2
1
1
0
0
-2
-2
-2
-3
-4
-4
-5
-5
-6
-7
-7
-8
-8
-9
-9
-9
-10
-11
-11
-12
-12
-12
-13
-12
-12
-13
-13
-14
-14
-15
-15
-15
-16
-16
-16
-16
-17
-17
-17
-17
-18
-18
-18
-18
-19
-19
-19
-19
-20
-20
-19
-20
-20
-20
-19
-20
-20
-19
-19
-19
-19
-19
-19
-19
-18
-18
-18
-18
-17
-17
-18
-18
-17
-17
-17
-17
-18
-18
-18
-18
-18
-18
-19
-19
-18
-18
-18
-19
-19
-19
-19
-19
-19
-19
-19
-18
-18
-18
-17
-18
-18
-17
-17
-17
-17
-16
-16
-16
-16
-15
-15
-15
-15
-15
-15
-15
-15
-15
-14
-14
-14
-14
-14
-14
-13
-13
-14
-14
-14
-14
-14
-14
-14
-14
-14
-13
-14
-14
-14
-14
-15
-15
-15
-15
-15
-14
-14
-14
-14
-14
-14
-13
-13
-13
-13
-13
-12
-13
-13
-13
-13
-12
-12
-12
-12
-12
-12
-12
-13
-13
-12
-12
-13
-13
-13
-14
-14
-14
-14
-14
-14
-14
-14
-14
-14
-14
-14
-13
-14
-14
-14
-14
-14
-13
-13
-14
-14
-13
-13
-13
-13
-14
-14
-13
-12
-12
-12
-12
-13
-13
-13
-13
-13
-13
-12
-12
-12
-13
-13
-13
-13
-13
-12
-12
-12
-13
-13
-13
-13
-13
-13
-13
-13
-13
-14
-14
-14
-14
-14
-14
-14
-14
-14
-14
-14
-14
-14
-14
-14
-14
-14
-14
-14
-14
-14
-14
-14
-14
-14
-14
-14
-14
-14
-14
-14
-14
-14
-14
-14
-14
-15
-15
-15
-15
-15
-15
-15
-15
-15
-15
-15
-15
-15
-15
-15
-15
-16
-16
-15
-15
-15
-15
-14
-14
-14
-14
-14
-13
-14
-14
-14
-14
-14
-14
-14
-13
-13
-13
-13
-13
-14
-14
-14
-14
-14
-14
-15
-15
-15
-15
-15
-15
-15
-15
-15
-15
-15
-15
-15
-15
-15
-15
-15
-15
-15
-15
-15
-15
-15
-15
-15
-14
-14
-14
-15
-15
-14
-14
-14
-13
-14
-14
-13
-13
-12
-12
-12
-12
-12
-11
-11
-11
-11
-11
-11
-11
-11
-11
-11
-11
-11
-12
-12
-12
-11
-11
-12
-12
-12
-12
-13
-13
-13
-13
-13
-13
-13
-12
-13
-13
-13
-13
-13
-13
-12
-12
-12
-12
-12
-12
-12
-12
-12
-12
-12
-12
-12
-13
-13
-13
-13
-13
-13
-12
-13
-13
-13
-13
-13
-13
-13
-13
-13
-13
-13
-13
-13
-13
-12
-12
-12
-12
-12
-12
-12
-12
-12
-12
-12
-12
-12
-12
-12
-12
-12
-12
-12
-12
-12
-12
-13
-13
-13
-12
-12
-11
-11
-11
-11
-11
-11
-11
-11
-11
-11
-12
-12
-12
-12
-12
-12
-12
-12
-12
-12
-12
-12
-12
-13
-13
-13
-13
-13
-13
-13
-13
-13
-13
-14
-14
-14
-14
-14
-13
-13
-13
-13
-13
-13
-13
-13
-13
-13
-13
-13
-13
-13
-13
-13
-14
-14
-14
-14
-15
-15
-14
-14
-15
-15
-15
-16
-16
-16
-16
-16
-17
-17
-17
-17
-17
-17
-17
-16
-16
-16
-16
-16
-16
-16
-16
-15
-15
-15
-14
-14
-15
-15
-15
-15
-15
-15
-15
-15
-15
-15
-15
-15
-16
-15
-15
-15
-15
-15
-15
-15
-14
-14
-14
-14
-14
-13
-13
-13
-13
-13
-13
-13
-13
-12
-13
-13
-13
-13
-13
-14
-14
-14
-15
-15
-15
-16
-16
-16
-16
-16
-16
-16
-16
-16
-16
-16
-16
-16
-16
-15
-16
-16
-16
-16
-16
-16
-16
-15
-15
-16
-16
-16
-16
-16
-16
-16
-16
-16
-16
-16
-17
-17
-17
-16
-16
-16
-16
-17
-17
-17
-17
-17
-17
-17
-17
-17
-17
-17
-17
-17
-17
-17
-16
-16
-16
-16
-16
-16
-16
-16
-15
-15
-15
-15
-15
-15
-15
-15
-15
-15
-15
-15
-15
-16
-16
-16
-16
-16
-16
-16
-16
-16
-16
-15
-15
-15
-15
-15
-15
-15
-15
-15
-15
-15
-15
-15
-15
-15
-15
-14
-14
-14
-14
-14
-14
-15
-15
-15
-15
-15
-15
-15
-15
-15
-15
-15
-15
-15
-15
-15
-15
-15
-15
-15
-15
-15
-15
-15
-15
-15
-15
-15
-15
-15
-14
-14
-14
-14
-14
-13
-13
-13
-13
-14
-13
-13
-13
-13
-12
-12
-12
-12
-12
-12
-12
-12
-12
-13
-13
-13
-12
-13
-13
-13
-13
-13
-13
-13
-14
-14
-14
-14
-14
-14
-14
-14
-13
-13
-14
-14
-13
-13
-13
-13
-13
-13
-13
-12
-12
-12
-12
-12
-12
-12
-12
-12
-13
-13
-13
-13
-13
-13
-13
-13
-13
-13
-13
-13
-13
-13
-13
-13
-13
-13
-13
-13
-13
-13
-13
-13
-13
-13
-13
-13
-13
-13
-13
-12
-12
-12
-12
-12
-12
-12
-12
-12
-12
-11
-11
-11
-11
-11
-11
-11
-11
-11
-11
-11
-11
-10
-10
-10
-10
-10
-10
-10
-11
-11
-11
-11
-11
-12
-12
-12
-12
-13
-12
-12
-13
-13
-13
-13
-13
-13
-14
-14
-14
-14
-14
-13
-13
-14
-14
-14
-14
-14
-14
-13
-14
-14
-14
-15
-14
-15
-15
-16
-16
-16
-16
-16
-17
-17
-18
-17
-18
-18
-18
-18
-19
-18
-19
-18
-18
-18
-18
-17
-17
-17
-17
-16
-16
-16
-16
-16
-16
-16
-16
-16
-16
-16
-16
-16
-16
-16
-16
-16
-16
-16
-15
-15
-16
-16
-16
-15
-16
-15
-14
-15
-14
-13
-13
-12
-12
-11
-10
-10
-9
-9
-9
-7
-7
-7
-6
-6
-7
-6
-6
-5
-6
-6
-6
-7
-6
-7
-7
-7
-8
-8
-8
-9
-8
-8
-8
-9
-9
-9
-10
-9
-9
-9
-9
-9
-9
-9
-9
-8
-8
-9
-8
-8
-8
-8
-8
-8
-7
-7
-7
-7
-8
-8
-8
-8
-8
-8
-8
-8
-8
-8
-8
-8
-8
-8
-8
-8
-8
-8
-8
-8
-8
-8
-8
-8
-8
-8
-7
-7
-7
-7
-7
-7
-7
-7
-7
-7
-7
-7
-7
-7
-7
-7
-7
-7
-7
-7
-8
-8
-8
-8
-9
-9
-10
-11
-12
-13
-14
-15
-17
-18
-19
-20
-21
-22
-23
-23
-23
-23
-23
-22
-21
-19
-18
-16
-14
-10
-7
-3
1
6
11
16
22
28
35
42
49
55
62
69
75
82
89
94
101
107
112
117
121
124
126
128
129
129
129
127
125
121
118
114
110
105
100
95
89
83
77
71
65
60
54
49
44
39
34
30
27
22
19
16
13
10
7
5
3
1
0
-2
-3
-4
-5
-6
-7
-6
-7
-7
-8
-8
-8
-8
-8
-8
-9
-9
-8
-8
-9
-9
-9
-8
-8
-9
-9
-9
-9
-9
-9
-9
-9
-9
-9
-10
-10
-10
-10
-10
-10
-10
-10
-11
-11
-11
-11
-11
-12
-12
-12
-12
-12
-12
-13
-13
-13
-13
-13
-13
-13
-13
-12
-12
-12
-12
-12
-12
-12
-12
-12
-12
-12
-11
-11
-11
-11
-10
-10
-10
-10
-10
-10
-10
-10
-10
-10
-9
-9
-9
-9
-9
-10
-10
-10
-10
-10
-10
-10
-10
-10
-10
-10
-9
-9
-9
-9
-9
-9
-9
-10
-10
-10
-10
-9
-9
-9
-9
-9
-9
-9
-9
-9
-10
-10
-10
-10
-9
-9
-9
-9
-9
-10
-10
-10
-9
-9
-9
-10
-10
-10
-10
-10
-10
-10
-10
-10
-10
-10
-10
-10
-10
-10
-10
-10
-9
-9
-9
-9
-9
-9
-9
-9
-9
-9
-9
-8
-8
-8
-8
-8
-8
-8
-8
-8
-8
-8
-8
-7
-7
-7
-7
-7
-6
-6
-6
-6
-6
-6
-6
-6
-6
-6
-6
-6
-6
-6
-6
-6
-6
-5
-5
-5
-5
-5
-5
-5
-4
-4
-4
-4
-4
-4
-4
-4
-3
-3
-3
-3
-3
-4
-4
-4
-3
-3
-3
-3
-3
-2
-2
-2
-2
-2
-2
-2
-2
-2
-2
-2
-2
-2
-2
-2
-1
-1
-1
-1
-1
-1
-1
-1
-1
-1
-1
0
0
0
1
1
1
1
2
2
2
2
3
3
3
4
4
4
4
4
5
5
5
5
5
5
5
6
6
6
6
6
6
6
6
6
6
6
6
7
7
7
8
8
8
8
8
9
9
10
10
10
10
11
12
12
12
12
13
13
14
14
15
15
15
15
15
15
16
16
16
16
17
17
17
17
17
17
17
17
17
17
17
17
17
17
17
18
18
18
18
18
18
18
18
18
18
18
18
18
18
18
18
18
18
17
17
17
16
16
15
15
15
15
14
14
13
13
12
12
12
11
11
10
9
9
8
8
7
6
6
6
4
4
4
2
2
2
1
0
0
-1
-2
-2
-3
-3
-3
-4
-4
-4
-5
-5
-5
-6
-6
-7
-6
-6
-7
-7
-8
-8
-8
-7
-8
-8
-8
-9
-8
-8
-9
-9
-9
-9
-9
-10
-10
-10
-10
-11
-11
-11
-11
-11
-12
-12
-12
-12
-12
-13
-13
-13
-12
-12
-12
-13
-12
-12
-12
-12
-11
-11
-12
-12
-11
-11
-11
-11
-11
-11
-11
-11
-11
-11
-11
-11
-11
-11
-11
-11
-11
-11
-11
-11
-11
-11
-11
-11
-11
-11
-11
-11
-11
-11
-11
-11
-11
-10
-10
-10
-10
-10
-10
-10
-10
-10
-10
-10
-10
-10
-9
-9
-9
-9
-9
-9
-9
-10
-10
-10
-10
-10
-10
-10
-10
-10
-10
-10
-10
-10
-10
-11
-11
-11
-11
-11
-10
-10
-10
-10
-10
-10
-9
-9
-9
-9
-9
-9
-9
-9
-8
-8
-8
-8
-8
-8
-8
-8
-8
-8
-9
-9
-9
-9
-9
-9
-9
-9
-10
-10
-10
-10
-10
-10
-9
-9
-9
-9
-10
-10
-10
-9
-9
-9
-9
-9
-9
-9
-9
-9
-9
-9
-9
-9
-9
-9
-9
-9
-9
-10
-10
-10
-10
-10
-10
-10
-10
-10
-10
-10
-10
-11
-11
-11
-11
-11
-11
-10
-10
-10
-10
-10
-10
-10
-10
-10
-9
-9
-9
-9
-9
-9
-9
-9
-8
-8
-8
-8
-9
-9
-9
-9
-9
-9
-9
-9
-9
-9
-9
-9
-8
-8
-8
-8
-8
-8
-9
-9
-9
-9
-9
-9
-9
-9
-10
-10
-10
-9
-9
-9
-9
-9
-9
-9
-10
-9
-9
-9
-9
-8
-8
-8
-8
-8
-8
-8
-8
-8
-8
-8
-8
-8
-8
-9
-9
-9
-9
-9
-9
-9
-9
-9
-8
-8
-9
-9
-9
-9
-9
-8
-8
-8
-8
-8
-7
-7
-7
-7
-8
-8
-8
-8
-8
-9
-9
-9
-9
-9
-9
-9
-9
-9
-9
-9
-9
-9
-9
-9
-9
-9
-9
-9
-9
-8
-8
-8
-8
-8
-8
-8
-8
-8
-8
-8
-8
-8
-9
-9
-9
-9
-8
-8
-9
-9
-9
-9
-10
-10
-10
-10
-10
-10
-11
-11
-11
-11
-11
-11
-11
-11
-11
-11
-11
-11
-11
-11
-12
-11
-11
-11
-11
-11
-11
-11
-11
-11
-11
-11
-11
-10
-10
-10
-10
-10
-9
-9
-9
-9
-9
-8
-8
-8
-9
-9
-8
-8
-8
-8
-8
-8
-8
-8
-8
-8
-8
-8
-8
-8
-8
-8
-8
-8
-8
-8
-8
-8
-8
-8
-8
-8
-8
-8
-8
-8
-8
-8
-8
-8
-8
-8
-9
-9
-9
-9
-9
-9
-9
-9
-9
-9
-9
-9
-9
-9
-9
-9
-9
-9
-9
-9
-9
-9
-9
-9
-9
-9
-9
-9
-9
-9
-9
-9
-9
-9
-9
-9
-9
-9
-8
-8
-8
-9
-9
-9
-8
-8
-8
-8
-8
-8
-8
-8
-8
-8
-8
-8
-8
-7
-7
-7
-7
-7
-7
-7
-6
-6
-6
-6
-6
-6
-6
-6
-6
-6
-6
-6
-6
-6
-6
-6
-6
-6
-7
-7
-7
-7
-7
-7
-7
-7
-7
-7
-7
-7
-7
-7
-7
-7
-7
-7
-7
-7
-7
-7
-7
-7
-7
-7
-7
-7
-8
-8
-7
-7
-7
-7
-8
-8
-8
-8
-8
-8
-8
-8
-7
-7
-7
-7
-7
-7
-7
-6
-6
-6
-6
-7
-6
-6
-6
-6
-6
-6
-6
-6
-6
-6
-6
-6
-6
-6
-6
-6
-7
-7
-7
-7
-7
-7
-7
-7
-7
-7
-7
-7
-7
-7
-7
-7
-7
-7
-7
-7
-7
-7
-7
-7
-7
-7
-7
-7
-7
-6
-6
-6
-6
-5
-5
-6
-6
-6
-6
-5
-5
-5
-5
-5
-5
-5
-6
-6
-6
-5
-5
-5
-5
-5
-5
-5
-4
-4
-4
-4
-4
-4
-4
-4
-4
-4
-4
-4
-4
-4
-4
-4
-4
-4
-4
-4
-4
-4
-4
-4
-4
-4
-5
-5
-5
-5
-5
-5
-4
-4
-5
-5
-5
-5
-5
-5
-5
-5
-5
-5
-5
-5
-5
-5
-5
-5
-5
-5
-5
-5
-6
-6
-6
-6
-6
-6
-5
-5
-5
-5
-5
-5
-5
-5
-5
-5
-5
-5
-5
-4
-4
-3
-3
-3
-3
-3
-3
-3
-3
-4
-4
-4
-4
-4
-4
-4
-4
-4
-4
-5
-4
-4
-4
-4
-4
-4
-3
-3
-3
-3
-4
-4
-4
-4
-4
-4
-4
-4
-5
-5
-5
-5
-6
-5
-5
-5
-5
-5
-5
-5
-5
-5
-5
-5
-5
-5
-5
-5
-5
-5
-5
-5
-5
-5
-4
-4
-4
-4
-4
-4
-4
-4
-5
-5
-5
-5
-5
-5
-5
-5
-5
-5
-5
-5
-5
-5
-5
-4
-4
-4
-4
-4
-4
-4
-4
-4
-4
-4
-4
-4
-4
-4
-4
-4
-4
-4
-5
-5
-5
-5
-5
-4
-4
-4
-4
-4
-4
-4
-4
-4
-4
-4
-4
-4
-4
-4
-4
-4
-4
-4
-4
-4
-3
-3
-3
-3
-4
-4
-4
-4
-3
-3
-3
-3
-3
-3
-3
-3
-3
-3
-3
-3
-3
-3
-3
-3
-3
-3
-3
-3
-3
-3
-3
-3
-3
-3
-3
-3
-4
-4
-4
-4
-4
-4
-4
-4
-4
-4
-4
-4
-4
-4
-3
-3
-3
-3
-3
-3
-3
-3
-3
-3
-3
-2
-2
-3
-3
-3
-3
-3
-2
-2
-2
-2
-2
-2
-2
-2
-2
-2
-3
-3
-3
-3
-3
-3
-4
-4
-3
-3
-3
-3
-3
-3
-4
-4
-3
-3
-3
-3
-3
-3
-2
-3
-3
-3
-3
-2
-2
-2
-2
-2
-2
-2
-2
-2
-2
-2
-2
-2
-2
-2
-2
-2
-2
-1
-1
-1
-1
-1
-2
-1
-2
-2
-2
-2
-2
-3
-2
-3
-3
-4
-4
-5
-5
-5
-6
-6
-6
-6
-6
-7
-6
-7
-8
-7
-8
-7
-8
-7
-7
-8
-7
-7
-8
-7
-7
-7
-7
-7
-7
-7
-7
-7
-7
-7
-6
-6
-6
-6
-5
-5
-6
-5
-5
-5
-5
-4
-4
-4
-4
-3
-3
-3
-3
-3
-3
-2
-2
-2
-2
-1
-2
-1
-1
0
0
1
1
1
1
1
2
2
1
2
2
2
2
2
2
2
1
1
0
0
0
-1
-1
-1
-2
-2
-2
-2
-2
-2
-2
-2
-2
-2
-2
-2
-1
-1
-2
-1
-1
-1
0
0
0
0
-1
-1
-1
-1
-1
-1
-1
-1
-1
-1
-1
-1
-1
0
0
0
0
0
0
0
0
0
0
0
0
0
0
2
2
2
2
2
2
1
1
1
2
2
2
2
2
2
2
2
2
2
2
2
2
2
1
1
1
0
0
-1
-2
-3
-3
-4
-5
-5
-7
-9
-10
-11
-12
-13
-15
-16
-17
-17
-18
-18
-17
-17
-16
-15
-14
-12
-9
-6
-3
1
6
11
16
22
28
35
42
50
57
65
73
81
88
95
103
110
117
124
130
137
142
146
149
153
154
155
156
155
154
152
149
146
142
137
132
126
120
114
107
101
93
87
80
74
68
61
56
51
45
40
36
32
28
25
22
19
17
14
13
11
9
8
6
6
5
4
4
3
3
2
2
2
2
2
2
2
2
2
2
1
1
1
1
1
1
1
1
1
1
1
1
1
1
1
1
0
0
0
0
0
0
-1
-1
-1
-1
-1
-1
-1
-2
-2
-2
-2
-1
-1
-2
-2
-2
-2
-2
-2
-2
-2
-2
-2
-2
-2
-3
-3
-2
-2
-2
-2
-2
-2
-2
-2
-2
-2
-2
-2
-2
-2
-2
-2
-2
-2
-2
-2
-2
-1
-1
-1
-1
-1
-1
-1
-1
0
0
0
0
0
0
0
0
0
0
0
0
0
0
0
1
1
0
0
0
0
0
1
1
1
1
1
2
2
2
2
2
2
2
2
2
2
2
2
2
2
3
3
3
2
2
2
2
2
2
2
2
2
2
2
1
1
1
1
1
1
1
2
2
2
3
3
3
3
3
3
3
4
4
4
4
4
5
5
5
5
6
6
6
6
6
6
6
6
6
6
6
6
6
6
6
6
7
7
7
6
6
6
7
7
7
7
6
6
6
7
7
7
7
7
7
7
7
7
7
7
7
7
7
8
8
8
8
8
8
9
9
9
9
9
9
9
10
10
10
11
11
11
10
10
11
11
11
11
11
11
11
12
12
12
12
12
13
13
13
14
14
14
14
14
14
14
15
15
15
16
16
16
16
17
17
17
17
17
18
18
18
19
19
19
19
20
20
20
20
21
21
21
22
22
22
22
22
22
22
23
23
23
23
23
23
23
23
24
24
24
24
24
25
25
25
25
26
26
26
26
27
27
27
27
27
28
28
28
28
28
28
29
29
29
29
30
30
30
30
30
31
31
31
31
31
31
32
32
32
32
32
32
32
32
32
32
32
32
31
31
31
30
30
30
30
29
28
28
28
28
27
27
27
26
25
25
24
24
23
23
22
22
21
21
21
19
19
18
18
18
16
16
16
16
14
14
14
13
13
13
13
13
12
12
11
11
10
11
11
10
10
10
9
9
8
8
8
7
7
7
7
6
6
6
5
6
6
6
6
5
5
5
5
4
4
4
4
5
5
4
4
4
4
5
5
4
4
4
4
5
5
5
4
4
5
5
5
5
5
5
6
6
5
5
5
5
5
6
6
6
6
6
6
7
7
7
7
7
7
8
8
8
8
7
7
8
8
8
8
8
8
8
8
8
8
8
9
9
9
8
8
9
9
9
9
10
10
10
10
10
10
10
10
11
11
10
10
10
11
11
11
11
10
10
10
11
11
10
10
10
10
10
10
10
10
10
10
10
10
10
10
11
11
11
11
11
11
11
11
11
12
12
12
12
12
12
12
12
12
12
12
12
12
13
13
13
13
13
13
12
12
12
12
12
12
12
11
11
12
12
12
12
12
11
11
12
12
12
12
12
12
13
13
13
13
13
13
13
13
13
12
12
12
12
12
11
12
12
11
11
11
11
11
11
11
11
11
11
11
10
10
10
10
11
11
11
10
10
10
10
10
10
10
10
10
10
10
10
10
10
10
10
10
10
10
10
10
10
10
10
10
9
9
9
9
9
9
9
9
9
9
9
9
9
8
8
8
8
8
8
8
9
9
9
9
9
10
10
10
9
9
10
10
10
10
10
10
10
10
10
10
10
10
10
10
10
10
10
10
10
10
10
9
9
9
9
10
10
9
9
9
9
9
9
9
9
9
9
10
10
10
10
10
9
10
10
10
10
10
11
11
11
11
11
10
10
10
10
10
10
10
10
11
11
11
11
11
11
12
12
12
12
12
12
11
11
11
11
11
11
10
10
10
10
10
9
9
9
9
9
9
9
9
9
9
9
9
9
9
9
9
9
9
9
9
9
9
9
10
10
9
9
9
10
10
10
10
10
10
10
10
10
11
11
11
11
11
11
11
11
11
11
11
11
10
10
10
10
10
9
9
9
8
8
8
8
8
8
8
8
8
8
9
9
9
9
9
9
9
9
9
9
9
9
9
9
9
9
9
8
8
8
8
9
9
9
9
9
9
9
9
9
9
9
9
9
9
9
9
9
9
9
9
9
9
9
9
9
9
9
9
9
10
10
10
10
10
10
10
9
9
9
9
10
10
10
10
10
10
11
11
11
11
11
11
11
11
11
11
11
11
11
11
11
11
11
11
11
11
11
11
11
11
11
11
11
11
10
10
10
10
10
10
10
10
10
10
10
10
10
10
10
10
10
10
10
10
10
10
10
10
11
11
11
11
11
11
11
12
12
12
12
12
12
12
12
12
11
11
11
11
11
11
11
11
11
11
11
11
11
11
11
11
11
11
11
11
11
11
11
11
11
11
11
11
10
10
10
10
10
11
11
11
11
11
11
11
11
11
11
11
11
11
11
11
11
11
11
11
11
11
11
11
10
10
10
10
10
10
10
10
10
10
10
10
10
10
10
10
10
10
10
10
10
10
10
11
11
11
11
11
11
11
11
11
11
11
11
11
12
12
12
12
12
12
12
12
11
11
11
11
11
11
11
11
11
11
11
10
10
10
10
10
10
10
10
10
10
11
11
11
11
11
11
11
11
11
11
11
11
10
10
10
10
10
10
10
10
10
10
10
10
10
10
10
10
10
10
11
11
11
11
11
11
11
11
11
11
11
11
11
11
11
11
11
11
12
12
12
12
12
11
11
11
11
11
11
11
11
11
11
11
11
11
11
11
11
11
12
12
12
12
12
12
12
12
12
12
12
12
12
13
13
13
13
13
13
13
13
13
13
13
14
14
14
14
14
14
14
14
14
14
15
15
15
15
14
14
14
14
14
14
14
14
14
14
14
14
14
14
14
14
14
14
14
14
14
14
14
14
15
15
15
15
15
15
15
14
14
14
14
14
14
15
15
15
14
14
14
14
13
13
13
13
13
13
14
14
14
14
14
14
14
14
14
15
15
15
15
15
16
16
16
16
16
16
16
15
16
15
15
14
15
14
13
14
13
13
13
13
12
12
11
12
11
11
11
11
10
11
10
11
10
10
10
10
10
10
10
9
10
9
10
9
9
9
9
8
8
9
9
9
9
8
8
8
9
9
9
9
9
9
9
9
10
10
10
10
10
10
10
10
11
11
12
12
12
13
13
14
14
14
15
16
16
17
17
17
18
18
17
18
18
17
18
17
17
18
17
17
16
16
16
16
15
15
15
15
14
14
14
14
15
15
14
14
14
14
15
15
14
14
15
15
15
15
15
16
15
15
15
15
16
16
16
16
16
16
16
16
17
17
17
17
17
17
17
16
16
16
16
16
16
16
16
16
16
16
16
16
16
16
16
16
16
16
16
16
15
15
15
15
15
15
16
15
15
15
15
15
14
14
15
14
14
13
12
13
12
11
10
8
8
7
6
4
4
3
3
2
1
2
2
2
3
4
6
8
11
14
16
20
24
28
33
38
44
49
56
63
69
76
83
89
95
102
108
114
119
125
130
134
137
141
143
144
145
145
144
142
140
137
134
129
125
121
115
109
104
98
92
87
81
75
70
66
60
56
52
48
45
41
38
36
33
30
28
26
24
23
21
20
19
18
18
17
17
16
16
15
15
15
15
15
15
15
15
15
15
15
15
15
15
15
15
15
15
14
14
14
14
13
14
14
14
14
13
13
13
13
13
13
13
13
13
14
14
14
14
14
14
14
14
14
14
14
14
14
14
13
13
13
13
13
13
12
12
13
13
13
13
13
13
13
14
14
14
13
13
13
13
13
13
13
13
14
14
14
14
14
14
14
14
14
14
14
14
14
14
14
14
14
14
15
14
14
14
14
14
14
14
14
14
14
14
14
14
14
14
14
14
14
14
14
14
14
14
15
15
15
15
15
15
15
15
15
15
15
15
16
16
17
17
17
17
17
17
17
17
18
18
18
18
18
18
18
18
18
18
18
18
18
18
18
18
18
18
18
18
18
18
18
18
18
19
19
19
20
20
20
20
20
20
20
20
19
19
20
20
21
20
20
20
20
20
20
20
21
21
21
21
21
21
21
21
21
21
21
21
22
22
21
21
21
22
22
22
22
22
22
22
22
23
23
23
23
22
23
23
23
23
23
23
24
24
24
24
24
24
24
25
25
25
25
25
25
25
25
25
25
25
25
25
26
26
26
26
26
26
26
27
27
27
27
27
28
28
28
28
28
28
28
28
28
29
29
29
30
30
30
30
30
30
32
32
32
32
32
32
32
33
33
33
33
33
33
34
34
34
34
34
34
35
35
35
35
35
35
35
35
36
36
36
37
37
37
37
37
37
37
37
38
38
38
38
38
39
39
40
40
40
40
40
40
40
40
40
41
41
41
42
42
42
42
42
42
42
42
42
42
42
42
42
42
42
42
42
42
42
41
41
41
41
41
40
40
40
39
38
38
38
38
36
36
36
34
34
33
32
31
31
29
29
29
27
27
26
25
24
24
24
22
22
21
20
20
20
20
19
19
19
18
18
18
17
17
16
16
16
15
15
16
15
15
15
14
14
14
13
13
13
13
12
12
12
11
12
12
12
12
11
12
12
11
11
12
12
11
12
12
12
12
12
12
12
12
12
12
12
12
12
12
12
12
13
12
12
12
12
12
12
12
12
12
12
12
12
12
12
12
12
12
12
12
13
13
13
13
13
13
13
13
13
13
13
13
13
13
13
13
13
13
13
13
13
13
13
13
13
13
13
13
13
13
13
13
13
13
13
13
13
13
13
13
13
12
12
13
13
13
13
13
13
14
14
14
14
14
14
14
14
14
14
14
14
14
14
14
14
13
13
13
13
13
13
13
13
13
13
13
13
12
12
12
12
12
12
12
12
12
12
12
13
13
13
13
12
12
12
12
12
12
12
12
12
12
12
12
12
12
12
12
12
12
12
12
12
12
12
12
12
12
12
12
11
11
11
11
11
11
11
11
11
11
11
11
11
11
11
10
10
10
10
10
10
10
10
10
10
10
10
10
9
9
9
9
9
9
8
8
8
8
8
8
7
7
7
7
7
7
7
8
8
8
8
8
8
8
9
9
9
9
9
9
9
9
9
9
9
9
10
9
9
9
9
9
9
9
10
9
9
9
9
9
9
9
9
10
10
10
10
10
10
10
11
11
11
11
10
10
10
10
10
10
10
10
10
9
9
9
9
8
8
8
8
8
8
8
8
9
9
9
9
9
9
9
9
9
10
10
9
9
9
9
9
9
9
9
9
9
9
9
9
9
9
9
9
9
8
8
8
8
8
8
8
8
8
8
8
8
8
8
8
8
8
8
9
9
9
9
9
9
9
9
9
9
9
9
9
9
9
9
9
9
9
9
9
9
9
9
9
9
9
9
9
9
9
9
9
9
9
9
9
9
9
9
9
9
9
9
9
9
9
9
9
9
9
9
9
9
9
8
8
8
8
8
8
8
8
7
7
7
7
7
7
7
7
7
7
7
8
8
8
8
8
8
8
8
8
8
8
8
8
8
8
8
8
8
8
8
7
7
7
8
8
7
7
7
6
6
6
6
6
6
6
6
6
6
6
6
6
6
5
5
5
6
6
6
6
7
7
7
7
7
8
8
8
8
8
8
8
8
8
8
8
8
8
8
8
8
8
8
8
7
7
8
8
8
8
8
8
8
8
8
8
8
8
8
8
8
8
8
8
8
8
8
8
8
8
8
8
8
8
8
8
8
8
7
7
7
7
7
7
7
7
7
7
7
8
8
8
8
7
7
7
7
7
7
7
7
7
6
6
6
6
6
6
6
7
7
7
7
7
7
7
7
7
7
7
7
7
7
7
7
7
7
7
7
7
7
7
7
7
7
7
7
7
7
7
6
6
6
6
6
6
6
6
6
6
6
6
6
6
6
6
7
7
7
7
7
7
7
7
8
8
8
8
8
8
8
8
7
7
7
7
7
7
7
7
7
7
7
7
7
7
7
7
6
7
7
7
7
7
7
7
7
8
8
8
8
7
7
8
8
8
8
8
8
8
8
8
8
8
8
8
9
9
8
8
8
8
8
8
8
8
8
8
8
8
8
8
8
8
8
8
8
8
8
8
8
8
8
8
8
8
7
7
7
7
7
7
7
7
7
8
8
8
8
9
9
9
9
8
8
8
8
8
8
8
8
9
9
9
9
9
9
8
8
8
8
7
8
8
7
7
7
7
7
6
6
6
6
7
6
6
6
6
6
6
6
6
6
6
6
6
6
6
7
7
6
6
6
6
6
7
7
7
7
7
7
7
7
7
8
8
7
7
7
7
7
7
7
7
7
7
7
7
7
7
7
7
7
7
8
8
8
8
8
8
8
8
8
8
8
8
8
7
7
7
7
7
7
7
7
7
7
7
8
8
8
8
8
8
8
8
8
8
8
10
10
10
10
9
9
9
9
8
8
8
8
8
8
8
9
9
9
9
9
9
9
8
8
8
8
9
8
8
8
8
8
7
7
7
7
6
6
6
5
5
5
5
4
4
4
3
4
3
4
3
3
3
2
3
2
3
2
2
3
2
2
2
2
2
2
2
2
1
1
1
1
1
1
1
1
2
2
2
2
2
2
3
2
2
3
3
4
4
4
5
5
6
6
7
7
8
8
9
9
10
10
10
11
11
11
11
12
11
12
11
12
11
11
10
11
11
10
10
10
9
9
9
8
8
8
8
7
8
8
7
8
8
8
8
8
8
8
9
9
9
9
8
8
9
9
9
9
9
9
9
9
9
9
9
8
8
8
8
8
8
8
8
8
8
8
8
8
8
8
8
8
8
8
8
8
8
8
8
7
7
7
7
7
7
7
7
7
6
7
7
7
7
7
7
6
6
6
6
5
4
4
4
