# Simple Text Format
# Sampling Rate (Hz):= 1200.00
# Resolution:= 12
# Labels:= ECG	 V5
# Age:=	67
# Gender:=	Feminino
-101
-100
-100
-100
-99
-99
-99
-99
-99
-99
-99
-99
-99
-99
-100
-99
-100
-99
-100
-100
-100
-99
-99
-98
-98
-97
-95
-94
-91
-87
-83
-79
-73
-67
-60
-51
-43
-33
-23
-11
0
11
21
29
37
44
50
54
58
59
58
56
52
46
38
27
16
2
-12
-27
-43
-60
-75
-91
-107
-123
-137
-150
-163
-176
-186
-195
-203
-210
-217
-222
-227
-230
-233
-234
-234
-234
-233
-231
-229
-226
-222
-217
-212
-208
-203
-197
-192
-185
-179
-173
-167
-162
-155
-150
-144
-139
-135
-131
-127
-123
-119
-116
-113
-110
-107
-106
-103
-100
-99
-97
-95
-93
-93
-91
-89
-88
-86
-85
-83
-83
-82
-80
-80
-78
-78
-77
-77
-76
-76
-76
-75
-76
-76
-76
-75
-76
-76
-76
-76
-76
-76
-77
-77
-77
-77
-76
-77
-77
-76
-77
-77
-76
-75
-75
-75
-74
-75
-73
-73
-72
-72
-71
-70
-70
-69
-69
-70
-69
-69
-69
-69
-69
-69
-69
-69
-70
-70
-71
-71
-72
-71
-71
-71
-72
-72
-71
-71
-71
-70
-69
-68
-68
-67
-67
-66
-65
-65
-64
-63
-62
-61
-60
-59
-59
-57
-57
-56
-56
-55
-54
-53
-52
-51
-51
-50
-50
-49
-49
-49
-49
-49
-48
-48
-47
-48
-47
-48
-48
-48
-48
-47
-47
-47
-47
-46
-47
-47
-46
-46
-45
-45
-43
-43
-43
-42
-41
-40
-40
-39
-39
-38
-37
-36
-36
-35
-34
-33
-33
-32
-31
-31
-30
-30
-29
-29
-28
-27
-27
-26
-26
-25
-25
-24
-23
-22
-21
-20
-20
-18
-17
-16
-14
-13
-12
-11
-9
-8
-8
-7
-6
-4
-4
-2
-1
0
0
2
3
4
5
6
7
9
9
11
11
12
12
12
13
14
14
15
15
16
16
16
15
15
15
14
15
14
14
14
14
14
14
14
14
13
13
13
13
12
12
11
11
9
8
8
7
6
6
5
3
3
1
1
-1
-2
-3
-4
-7
-8
-9
-10
-12
-14
-16
-17
-19
-20
-22
-24
-25
-26
-27
-29
-30
-32
-33
-34
-34
-36
-36
-36
-38
-38
-39
-39
-40
-41
-42
-43
-43
-43
-44
-45
-46
-47
-48
-48
-49
-49
-50
-50
-51
-51
-52
-52
-53
-54
-54
-55
-55
-56
-57
-59
-59
-60
-61
-62
-64
-64
-65
-67
-68
-70
-71
-74
-75
-76
-78
-80
-81
-82
-83
-84
-85
-86
-87
-88
-89
-89
-91
-91
-92
-92
-93
-94
-95
-96
-96
-97
-97
-97
-98
-98
-98
-100
-100
-100
-101
-101
-102
-102
-103
-102
-103
-104
-104
-105
-105
-105
-106
-107
-106
-107
-108
-108
-110
-110
-111
-111
-112
-112
-113
-113
-115
-115
-115
-115
-115
-114
-114
-113
-113
-112
-112
-111
-109
-107
-106
-105
-103
-101
-101
-99
-97
-96
-94
-93
-93
-91
-90
-89
-89
-88
-87
-86
-86
-86
-85
-84
-83
-82
-82
-81
-80
-80
-79
-78
-77
-76
-76
-75
-74
-73
-73
-72
-71
-71
-70
-70
-69
-70
-69
-69
-68
-68
-67
-67
-67
-67
-67
-67
-67
-66
-67
-66
-67
-66
-66
-66
-65
-66
-65
-65
-65
-64
-64
-62
-62
-62
-62
-61
-61
-61
-60
-60
-60
-60
-59
-59
-59
-57
-57
-58
-58
-58
-57
-57
-57
-57
-57
-57
-57
-56
-56
-55
-54
-54
-54
-54
-54
-53
-54
-53
-53
-52
-52
-52
-52
-51
-51
-52
-52
-52
-54
-54
-54
-53
-54
-54
-55
-55
-55
-56
-57
-56
-56
-56
-56
-56
-56
-57
-57
-56
-57
-58
-58
-59
-59
-59
-61
-61
-63
-63
-65
-66
-67
-68
-69
-70
-70
-70
-71
-71
-71
-72
-72
-72
-72
-71
-72
-72
-71
-71
-71
-71
-71
-71
-71
-71
-71
-71
-71
-72
-72
-72
-73
-73
-74
-73
-74
-74
-75
-75
-76
-76
-76
-77
-76
-77
-78
-78
-78
-79
-80
-79
-79
-79
-79
-79
-78
-78
-77
-77
-77
-75
-75
-74
-73
-73
-72
-72
-71
-70
-70
-70
-69
-69
-69
-69
-70
-72
-73
-74
-75
-76
-77
-77
-79
-79
-80
-80
-79
-78
-78
-76
-72
-69
-64
-58
-51
-42
-34
-24
-12
0
13
27
40
52
64
74
84
91
98
103
108
110
111
110
105
100
91
82
69
56
42
27
11
-6
-22
-39
-54
-70
-85
-99
-113
-124
-136
-146
-155
-164
-171
-177
-182
-186
-190
-192
-194
-194
-194
-193
-191
-188
-186
-182
-177
-173
-167
-162
-156
-149
-143
-137
-131
-124
-118
-111
-105
-100
-94
-90
-85
-81
-77
-73
-70
-68
-65
-64
-62
-61
-59
-58
-58
-57
-57
-55
-55
-55
-55
-54
-54
-53
-53
-51
-51
-51
-49
-49
-48
-48
-47
-47
-47
-46
-46
-44
-44
-43
-43
-43
-42
-42
-42
-42
-41
-41
-41
-41
-41
-42
-42
-43
-43
-43
-44
-43
-44
-44
-44
-44
-44
-44
-45
-44
-44
-43
-43
-42
-42
-41
-41
-40
-39
-38
-37
-36
-36
-35
-34
-33
-32
-30
-30
-29
-28
-27
-27
-26
-25
-24
-23
-23
-22
-22
-22
-22
-22
-21
-21
-20
-20
-20
-21
-21
-20
-21
-20
-21
-20
-21
-20
-21
-20
-19
-20
-19
-19
-20
-19
-19
-19
-18
-18
-18
-17
-17
-15
-14
-13
-12
-12
-11
-10
-9
-7
-5
-4
-3
-3
-2
-1
0
1
2
2
3
3
5
5
5
7
7
7
8
9
9
10
11
11
12
12
13
14
16
15
16
17
18
19
19
20
21
23
24
25
26
27
28
29
30
31
32
32
32
32
32
32
32
32
33
32
33
32
32
31
31
31
32
31
32
32
33
34
36
37
38
40
41
43
44
45
47
47
49
50
51
52
53
54
54
55
56
56
56
55
55
55
54
55
54
53
52
51
50
50
49
48
47
45
45
43
42
41
41
39
38
38
36
35
34
33
32
31
30
28
27
26
25
24
22
21
19
18
16
14
13
11
9
8
6
4
3
2
0
-2
-3
-4
-5
-7
-8
-9
-10
-11
-13
-14
-14
-15
-16
-17
-18
-19
-20
-20
-22
-23
-24
-25
-26
-27
-27
-28
-27
-28
-29
-29
-29
-29
-30
-30
-30
-31
-31
-31
-31
-31
-31
-31
-32
-32
-33
-33
-33
-33
-35
-35
-36
-36
-37
-37
-37
-38
-38
-39
-39
-39
-39
-40
-40
-41
-42
-42
-42
-42
-42
-42
-42
-42
-43
-43
-42
-43
-43
-44
-43
-43
-43
-43
-43
-43
-42
-43
-43
-43
-44
-44
-44
-45
-45
-46
-47
-47
-47
-47
-47
-47
-48
-48
-47
-47
-46
-45
-45
-45
-44
-43
-43
-42
-40
-40
-40
-39
-38
-38
-37
-36
-36
-35
-34
-34
-33
-34
-34
-33
-33
-33
-31
-31
-30
-29
-28
-28
-26
-26
-25
-25
-23
-22
-22
-21
-19
-19
-18
-18
-17
-17
-16
-16
-16
-15
-15
-14
-14
-13
-12
-12
-11
-11
-11
-10
-10
-9
-8
-7
-7
-6
-6
-6
-5
-4
-3
-3
-3
-3
-2
-2
-1
-1
0
0
0
1
2
1
2
2
2
2
3
4
4
4
4
4
3
4
3
4
4
4
4
3
3
2
2
2
2
1
0
0
-1
-2
-3
-3
-3
-4
-3
-4
-3
-3
-3
-4
-3
-4
-3
-3
-2
-2
-2
-1
0
0
0
0
0
0
-1
-1
-2
-2
-3
-5
-5
-5
-6
-8
-9
-10
-12
-13
-13
-15
-15
-16
-17
-18
-18
-19
-20
-21
-22
-23
-23
-24
-24
-25
-25
-25
-25
-25
-25
-25
-25
-25
-24
-24
-24
-23
-22
-22
-21
-21
-21
-21
-20
-20
-20
-19
-20
-20
-20
-20
-20
-20
-20
-20
-20
-20
-21
-20
-21
-21
-21
-20
-20
-20
-20
-20
-20
-20
-20
-20
-20
-20
-21
-20
-21
-20
-21
-21
-22
-22
-23
-23
-23
-24
-24
-24
-25
-24
-24
-25
-24
-23
-21
-19
-16
-14
-8
-4
3
10
18
27
37
48
60
72
83
95
105
115
122
129
134
140
143
145
145
143
138
133
124
114
101
88
73
58
42
25
8
-7
-23
-38
-53
-66
-79
-91
-102
-112
-121
-129
-135
-140
-145
-148
-152
-153
-154
-153
-152
-150
-147
-144
-140
-136
-131
-127
-122
-116
-110
-104
-97
-91
-84
-78
-73
-68
-63
-58
-52
-48
-43
-39
-36
-32
-30
-27
-24
-22
-21
-18
-17
-15
-14
-13
-11
-10
-9
-8
-8
-7
-6
-5
-4
-4
-3
-3
-1
-1
0
1
2
3
4
5
6
7
7
8
9
10
10
10
11
10
11
11
11
11
10
10
10
10
9
10
9
9
9
9
9
10
10
10
10
10
11
11
12
13
13
14
14
13
14
14
15
16
16
15
16
16
17
17
17
18
17
17
18
18
18
18
18
19
19
19
20
20
20
21
21
22
22
23
23
25
25
26
27
28
29
30
30
31
32
32
32
32
33
32
33
33
33
33
33
33
33
32
33
33
33
33
33
34
34
35
36
36
37
38
39
39
40
40
42
42
43
44
45
45
46
47
47
49
49
50
50
51
52
54
55
55
56
57
58
59
60
60
60
61
62
63
64
65
65
65
66
66
67
68
68
69
70
70
70
71
72
72
73
73
75
76
77
78
78
79
79
79
80
81
81
82
83
84
85
86
86
87
86
87
87
87
87
88
88
88
89
88
89
90
90
89
90
89
90
90
90
90
89
90
89
88
89
88
88
87
87
86
85
84
84
82
81
79
78
77
76
74
72
71
69
68
66
65
63
62
61
59
58
56
55
54
53
52
51
49
48
47
46
45
44
43
42
41
40
39
38
36
35
35
34
33
33
32
31
31
29
29
28
28
27
27
27
25
25
25
23
22
22
20
20
20
19
18
18
16
16
16
14
14
14
14
13
12
12
12
12
11
11
10
10
8
7
7
7
6
5
4
3
3
2
1
1
0
0
0
0
-1
-2
-2
-2
-2
-2
-2
-2
-1
-1
-1
-1
-1
0
0
0
1
1
1
1
1
0
0
1
1
1
1
1
1
1
1
1
1
1
1
1
1
1
1
1
1
1
2
2
1
2
2
2
3
3
3
4
4
4
5
4
5
5
5
6
6
6
6
7
7
8
9
9
10
10
11
10
11
11
11
13
13
13
13
14
15
15
15
16
17
18
17
18
18
19
20
21
22
22
23
23
24
25
25
26
26
26
27
27
28
29
29
30
30
30
31
31
32
33
33
34
35
35
36
37
37
37
39
39
40
41
41
42
42
43
43
44
44
44
44
45
45
45
44
45
45
45
44
44
44
45
44
43
43
42
41
41
40
38
37
37
36
35
34
34
33
32
32
31
30
29
29
29
29
29
30
30
31
31
32
31
33
33
34
35
36
36
36
37
36
36
36
36
35
36
34
34
34
33
33
32
32
31
31
30
30
29
29
29
28
28
27
26
25
25
24
23
23
23
22
22
22
20
19
19
18
18
18
18
17
17
16
16
15
15
16
16
16
16
16
16
16
16
16
16
15
15
15
15
16
16
15
16
15
16
15
16
15
16
16
16
16
16
16
15
16
16
15
16
16
15
16
16
16
15
16
16
16
17
17
16
16
16
17
16
17
17
17
17
17
17
17
18
20
22
24
27
30
35
39
44
50
58
65
74
83
93
104
115
126
135
144
152
157
164
167
169
170
170
166
162
155
147
137
125
111
96
80
64
48
32
16
0
-15
-29
-43
-56
-68
-77
-86
-95
-102
-108
-114
-118
-121
-124
-126
-127
-127
-126
-124
-121
-119
-115
-112
-107
-102
-96
-90
-84
-79
-72
-66
-59
-53
-45
-39
-34
-28
-22
-16
-11
-6
-1
3
7
10
13
16
19
21
23
24
26
28
29
30
31
31
32
33
33
34
33
34
34
34
35
35
36
36
37
37
38
39
39
39
39
39
40
39
39
40
40
40
40
40
40
40
39
40
39
39
39
39
39
39
40
40
40
40
41
41
40
40
40
40
39
40
40
40
40
41
41
41
41
41
42
42
42
42
42
43
43
43
44
44
44
44
44
43
44
44
44
44
45
44
44
46
46
46
46
46
46
47
47
47
48
48
49
50
50
50
50
51
51
52
52
53
53
53
53
54
54
54
54
55
55
56
57
57
58
59
59
60
60
61
62
63
63
64
65
66
67
67
68
68
70
70
71
72
73
74
74
74
75
75
75
76
77
78
78
79
80
80
81
82
83
83
84
85
87
87
88
89
89
91
91
93
94
94
94
95
97
98
98
99
100
100
101
101
102
102
103
103
104
104
104
105
105
105
105
105
105
105
105
106
106
106
106
106
107
107
107
107
108
108
108
108
108
108
108
108
108
107
107
108
107
106
105
104
104
103
103
102
102
101
100
100
98
98
97
97
96
95
95
94
93
93
92
91
91
90
90
89
88
88
87
86
86
85
83
83
82
81
79
79
78
76
74
74
73
71
69
67
66
64
62
61
59
58
56
54
53
51
50
49
47
46
46
45
43
42
41
40
38
38
37
36
36
34
34
34
33
32
32
31
30
30
30
29
30
29
29
28
29
29
29
29
29
29
29
29
28
28
27
27
27
27
26
27
27
27
26
25
25
24
24
23
24
23
23
22
23
23
22
22
21
21
21
20
21
21
20
20
19
19
18
18
18
17
17
17
17
17
17
16
16
15
16
15
15
15
15
15
15
15
15
16
15
15
15
15
15
15
14
14
15
15
15
15
15
16
16
16
17
17
18
19
19
20
20
21
21
22
22
23
24
25
24
25
25
24
25
24
25
26
26
27
27
28
28
28
29
29
31
32
32
33
34
34
35
36
37
37
39
39
40
41
42
42
43
45
46
47
47
48
49
50
51
52
52
54
54
55
55
56
58
57
58
59
59
60
60
60
59
59
59
59
59
59
59
59
58
59
58
58
58
57
57
57
56
56
57
57
57
56
56
56
56
56
55
56
56
55
55
55
55
54
55
54
54
53
53
52
51
51
49
49
49
48
46
46
45
44
43
42
41
41
41
41
41
40
40
39
39
39
39
39
40
40
40
39
40
40
40
40
40
40
39
39
39
38
38
37
36
36
35
35
34
34
34
33
32
33
33
32
32
31
31
30
29
29
28
28
28
27
27
26
26
25
25
25
25
25
25
25
24
24
24
24
24
25
25
26
26
26
26
27
27
28
28
28
29
29
29
30
30
29
30
30
30
30
30
29
29
29
29
27
26
26
25
25
24
23
23
22
22
21
20
20
19
20
20
20
21
23
24
25
28
31
34
39
43
48
55
63
71
80
90
101
111
122
134
143
153
161
167
174
177
180
183
183
181
177
170
162
152
140
126
111
96
79
63
46
29
13
-2
-18
-31
-45
-57
-68
-77
-85
-94
-99
-105
-109
-112
-114
-116
-116
-117
-116
-114
-113
-109
-106
-102
-98
-93
-88
-83
-78
-72
-66
-60
-54
-48
-42
-35
-29
-23
-17
-11
-6
-2
3
7
11
14
17
21
24
25
28
29
32
33
34
34
36
36
37
37
38
38
39
39
40
40
40
40
40
40
41
42
42
43
43
44
44
44
45
46
46
46
46
46
48
48
48
48
49
49
49
49
48
49
48
48
47
46
46
46
46
46
46
46
46
46
46
46
46
46
48
48
49
51
51
52
53
54
54
55
55
56
56
57
57
57
56
56
56
55
55
55
55
54
55
54
54
54
54
54
54
54
53
54
54
55
55
55
55
56
56
55
56
55
56
56
55
55
56
56
57
57
58
57
58
59
59
60
61
62
63
63
64
65
66
67
67
68
69
69
70
71
72
73
73
74
75
75
76
76
77
77
78
79
80
80
82
82
82
83
84
85
84
85
85
87
87
87
89
89
90
90
91
92
93
94
96
96
97
99
100
101
102
103
104
106
107
108
109
110
111
111
112
113
113
114
114
116
116
117
117
117
119
119
119
120
121
122
122
122
123
123
124
123
123
123
123
122
122
122
121
121
120
120
120
120
118
118
116
115
115
114
113
112
111
111
109
108
106
105
104
103
102
101
100
100
99
98
97
96
95
94
93
91
91
89
88
86
85
83
82
80
79
77
75
73
71
70
68
67
65
65
64
63
62
61
60
59
58
58
58
57
57
57
56
56
55
54
53
52
52
51
50
50
49
48
47
47
46
45
44
43
42
42
41
40
39
39
38
38
37
37
35
35
34
34
33
32
31
31
31
30
30
29
28
28
27
27
26
26
26
25
25
25
24
24
23
23
23
23
24
24
24
24
24
22
23
22
22
22
22
22
22
21
22
22
22
22
21
22
22
22
22
22
22
22
22
22
22
22
21
22
22
22
22
23
23
23
23
23
24
24
24
26
26
26
27
27
27
27
28
28
28
29
28
28
28
27
27
26
26
26
25
25
25
25
25
25
25
25
25
25
25
26
26
27
28
28
29
29
29
30
31
31
31
32
33
33
33
34
35
35
36
36
38
39
40
41
42
43
44
45
47
47
49
50
51
52
52
53
53
54
54
55
55
55
55
56
57
57
57
57
57
58
58
59
59
58
58
59
59
59
60
60
60
60
60
59
60
59
59
59
59
58
58
58
58
57
57
58
57
58
57
57
57
56
56
56
55
55
55
54
54
53
53
52
52
52
52
51
51
51
50
50
51
50
51
51
50
50
50
50
51
51
50
50
51
50
50
49
48
47
47
45
45
44
44
43
42
41
40
39
38
38
37
37
35
35
34
33
33
32
32
31
30
30
29
28
28
28
28
27
26
26
26
26
25
25
25
24
24
24
23
24
24
24
25
25
25
25
25
25
24
25
25
25
25
26
26
26
26
27
27
27
27
27
27
27
27
27
26
26
25
24
24
23
22
21
19
18
16
15
14
13
11
10
8
8
8
9
9
11
12
15
18
21
27
33
39
48
57
68
79
91
103
114
124
135
143
151
158
164
168
171
171
170
166
160
153
142
130
116
102
87
71
54
38
21
4
-11
-27
-41
-55
-67
-78
-88
-96
-105
-112
-119
-125
-130
-134
-137
-139
-141
-141
-141
-139
-137
-134
-131
-127
-123
-118
-113
-108
-101
-95
-89
-82
-75
-69
-63
-56
-51
-45
-39
-34
-30
-26
-22
-18
-16
-14
-11
-9
-8
-6
-5
-4
-3
-2
-2
-2
-2
-1
-1
0
0
-1
-1
-1
-1
-1
-1
-2
-1
-2
-2
-1
-2
-2
-2
-1
-2
-2
-1
-1
-2
-2
-3
-3
-3
-3
-3
-4
-4
-4
-4
-5
-4
-5
-5
-6
-5
-6
-6
-5
-5
-5
-5
-5
-5
-4
-4
-3
-3
-3
-2
-1
0
1
1
2
2
3
4
3
4
5
5
6
7
8
7
8
8
8
8
9
9
9
9
9
9
9
9
10
9
10
10
11
10
10
11
11
12
12
13
13
13
13
13
14
13
13
14
14
15
15
15
15
14
14
14
14
15
15
14
14
15
15
16
16
17
18
18
19
19
21
22
22
23
23
25
25
26
27
28
28
29
30
30
31
31
32
33
34
35
36
37
39
39
41
42
43
45
46
47
49
50
52
53
54
56
57
60
61
62
63
63
64
66
67
68
68
68
70
70
69
70
70
72
72
72
72
73
73
73
74
74
75
74
75
75
76
75
76
76
77
77
77
77
77
77
78
78
78
77
77
77
77
77
77
76
76
75
74
72
72
71
69
68
68
66
65
64
63
62
61
59
58
57
56
55
54
51
50
49
46
45
44
43
41
40
38
36
35
33
31
30
27
25
25
23
22
20
19
17
16
16
14
13
12
12
11
10
9
8
7
6
5
4
3
2
2
1
0
-2
-3
-4
-5
-6
-6
-8
-9
-9
-10
-11
-12
-12
-14
-14
-15
-15
-16
-17
-18
-18
-19
-18
-19
-20
-20
-20
-21
-22
-21
-22
-23
-23
-24
-24
-24
-24
-26
-26
-25
-26
-27
-27
-28
-29
-29
-29
-29
-29
-29
-29
-29
-29
-29
-28
-28
-28
-28
-27
-28
-28
-27
-28
-28
-29
-28
-28
-28
-28
-29
-29
-30
-30
-30
-30
-31
-32
-32
-32
-32
-32
-32
-33
-33
-33
-34
-33
-33
-34
-34
-35
-35
-35
-35
-35
-37
-37
-37
-38
-38
-38
-38
-39
-39
-40
-41
-40
-41
-41
-40
-40
-42
-41
-41
-41
-41
-41
-41
-40
-40
-40
-39
-40
-39
-38
-39
-37
-37
-36
-36
-35
-35
-35
-34
-33
-33
-33
-32
-33
-32
-33
-33
-33
-33
-33
-33
-34
-34
-33
-33
-32
-33
-33
-32
-32
-32
-32
-32
-31
-31
-31
-30
-29
-29
-28
-27
-27
-26
-26
-25
-25
-24
-24
-24
-23
-22
-21
-20
-19
-18
-18
-18
-17
-16
-15
-15
-15
-14
-14
-14
-14
-14
-15
-15
-15
-15
-16
-16
-16
-16
-17
-18
-18
-18
-18
-19
-19
-18
-19
-18
-18
-17
-18
-17
-17
-17
-17
-17
-17
-17
-18
-19
-19
-19
-20
-20
-20
-21
-21
-23
-23
-23
-24
-24
-24
-24
-24
-24
-24
-24
-25
-25
-25
-25
-25
-25
-25
-26
-26
-27
-28
-29
-30
-31
-32
-32
-34
-35
-37
-38
-38
-39
-39
-40
-39
-38
-37
-34
-31
-27
-21
-15
-7
1
10
20
30
41
52
61
71
80
87
93
99
103
105
105
104
101
96
88
79
68
55
41
27
11
-5
-22
-38
-54
-69
-82
-96
-108
-119
-129
-139
-146
-154
-159
-165
-168
-170
-172
-173
-173
-171
-169
-167
-163
-159
-155
-149
-145
-138
-133
-127
-120
-113
-106
-100
-93
-87
-81
-76
-70
-65
-60
-57
-53
-49
-46
-42
-40
-37
-35
-33
-33
-31
-30
-29
-28
-27
-26
-25
-25
-25
-25
-24
-24
-24
-23
-22
-22
-22
-22
-22
-22
-21
-21
-21
-21
-20
-20
-20
-19
-20
-20
-20
-20
-19
-19
-18
-18
-18
-18
-18
-17
-16
-16
-16
-15
-15
-14
-14
-12
-12
-12
-11
-11
-10
-9
-9
-9
-9
-8
-8
-8
-7
-7
-7
-7
-6
-7
-7
-7
-7
-7
-8
-7
-8
-8
-8
-8
-8
-8
-8
-8
-8
-8
-8
-8
-7
-7
-6
-6
-5
-5
-4
-3
-3
-2
-2
-1
-1
1
1
1
1
1
1
1
0
1
0
0
0
-1
-2
-1
-2
-2
-2
-2
-1
0
0
1
1
2
3
4
5
7
7
9
10
11
12
13
15
16
17
18
18
20
20
21
22
22
23
24
25
25
26
27
28
29
30
30
31
32
33
34
35
36
36
36
38
39
40
41
41
42
42
43
44
44
45
45
46
47
47
47
47
48
48
48
48
49
49
49
49
49
49
49
49
49
49
49
49
50
50
49
50
49
49
49
49
49
50
50
50
50
50
50
50
50
51
51
50
51
50
51
50
50
50
49
48
48
47
46
45
44
42
42
41
41
39
39
37
35
35
33
33
32
32
30
29
29
28
27
26
26
25
23
22
21
19
17
15
13
11
10
8
6
4
3
1
0
-2
-4
-4
-5
-6
-7
-7
-8
-9
-8
-9
-8
-8
-7
-7
-7
-8
-7
-7
-8
-7
-8
-8
-8
-8
-9
-9
-9
-10
-10
-11
-11
-12
-12
-13
-13
-13
-14
-15
-16
-16
-16
-17
-18
-18
-20
-21
-22
-22
-23
-24
-24
-24
-25
-25
-26
-25
-25
-25
-26
-25
-26
-26
-25
-25
-25
-24
-23
-23
-23
-23
-24
-24
-24
-24
-23
-24
-23
-24
-24
-25
-24
-25
-25
-25
-26
-26
-27
-28
-29
-29
-29
-30
-30
-31
-30
-30
-31
-31
-31
-30
-31
-31
-30
-29
-29
-29
-28
-27
-27
-25
-25
-25
-24
-24
-23
-23
-24
-24
-24
-24
-24
-24
-24
-24
-24
-26
-26
-26
-26
-27
-27
-27
-27
-27
-28
-28
-28
-28
-28
-28
-28
-28
-27
-26
-26
-26
-26
-26
-26
-25
-25
-24
-24
-23
-22
-22
-22
-21
-21
-20
-20
-20
-19
-18
-18
-18
-17
-17
-17
-18
-17
-17
-18
-17
-18
-18
-18
-18
-19
-19
-19
-20
-19
-19
-20
-20
-20
-19
-19
-19
-19
-19
-18
-17
-17
-16
-16
-16
-15
-14
-13
-12
-12
-10
-10
-10
-9
-8
-7
-8
-6
-7
-6
-7
-6
-6
-6
-7
-6
-7
-8
-7
-7
-7
-7
-6
-6
-6
-5
-5
-5
-4
-3
-2
-1
0
1
2
3
3
4
5
5
5
5
6
6
7
7
6
7
6
6
6
5
5
6
5
5
4
5
4
5
4
4
5
3
4
3
3
3
3
2
2
1
1
1
0
0
-1
-1
-2
-1
-3
-3
-3
-3
-3
-3
-4
-4
-4
-4
-5
-5
-5
-5
-5
-5
-6
-5
-5
-6
-6
-7
-7
-7
-7
-8
-8
-8
-8
-8
-8
-8
-9
-9
-10
-10
-11
-11
-11
-12
-12
-12
-13
-13
-15
-15
-16
-16
-17
-18
-19
-19
-19
-19
-19
-19
-20
-20
-21
-21
-21
-22
-23
-23
-23
-23
-24
-24
-24
-24
-25
-26
-26
-26
-27
-27
-27
-28
-28
-27
-28
-27
-28
-28
-28
-28
-28
-27
-27
-26
-25
-25
-25
-26
-26
-25
-25
-25
-24
-24
-24
-23
-24
-23
-23
-23
-22
-22
-22
-23
-22
-22
-20
-19
-19
-19
-18
-18
-17
-15
-14
-13
-10
-9
-6
-4
-1
3
8
13
20
27
34
44
53
64
75
86
99
110
119
128
137
144
150
154
157
158
158
154
149
141
132
120
107
91
76
59
41
25
7
-11
-28
-45
-60
-75
-88
-101
-111
-121
-130
-136
-143
-148
-152
-155
-157
-159
-160
-159
-159
-157
-155
-152
-149
-145
-140
-136
-132
-126
-121
-115
-109
-103
-97
-90
-84
-78
-71
-66
-61
-55
-50
-45
-41
-37
-33
-29
-26
-23
-21
-18
-16
-14
-13
-11
-11
-10
-9
-8
-8
-8
-7
-7
-7
-7
-7
-7
-6
-6
-6
-6
-6
-6
-6
-5
-6
-6
-5
-5
-5
-6
-5
-6
-5
-6
-5
-5
-4
-4
-4
-3
-3
-4
-3
-3
-2
-2
-2
-2
-2
-2
-2
-2
-2
-2
-3
-3
-3
-3
-3
-2
-3
-2
-2
-1
-1
-1
0
1
2
3
4
5
6
6
7
7
9
9
10
10
10
10
11
12
11
12
12
12
12
12
12
12
12
12
13
13
13
12
12
12
12
12
12
12
13
13
13
14
14
14
15
15
15
16
17
18
18
18
19
20
20
21
22
22
22
24
24
24
25
25
25
26
26
27
27
28
28
29
29
29
29
30
30
31
31
31
32
32
33
34
35
35
35
36
37
37
38
37
38
38
39
41
42
43
43
44
45
45
46
47
48
48
49
50
51
52
54
54
55
56
56
58
59
59
60
60
61
62
63
64
64
66
66
66
68
67
68
68
68
67
67
67
67
67
67
65
65
65
63
62
62
61
60
60
60
60
61
61
61
62
62
64
64
64
65
66
66
66
67
68
69
68
69
69
67
67
65
64
62
60
59
58
56
55
52
51
49
48
47
46
45
44
43
42
41
40
39
39
38
39
37
37
35
35
34
33
31
30
29
29
27
25
24
22
21
20
18
17
15
15
14
13
12
11
10
10
9
8
7
6
6
5
4
3
2
2
2
2
1
1
0
0
0
-1
-2
-2
-3
-3
-3
-4
-5
-6
-7
-7
-8
-8
-9
-9
-10
-10
-12
-12
-13
-13
-14
-15
-16
-16
-17
-17
-17
-17
-18
-19
-19
-19
-19
-20
-20
-21
-22
-22
-21
-22
-22
-21
-22
-22
-22
-23
-23
-23
-23
-22
-22
-21
-21
-21
-21
-21
-20
-19
-19
-19
-18
-18
-18
-18
-18
-18
-18
-19
-19
-20
-20
-21
-21
-22
-22
-22
-23
-23
-23
-23
-23
-23
-23
-23
-23
-23
-22
-22
-21
-20
-20
-19
-19
-18
-18
-18
-17
-17
-17
-17
-16
-16
-15
-14
-14
-13
-12
-12
-12
-11
-10
-9
-8
-8
-6
-6
-5
-5
-3
-3
-2
-1
-1
0
1
0
1
2
2
3
3
3
3
5
5
6
6
7
8
8
10
10
10
11
12
13
13
15
15
15
16
15
15
16
16
17
16
16
16
16
16
16
15
15
15
14
14
14
14
14
14
13
13
12
12
13
12
12
12
13
13
13
13
15
15
15
15
15
14
14
13
14
13
13
12
12
11
10
10
10
9
9
9
10
9
10
10
11
11
11
11
11
11
12
12
12
11
11
10
10
9
8
7
5
4
2
0
-1
-3
-5
-5
-6
-7
-8
-8
-9
-9
-9
-10
-10
-11
-11
-12
-12
-12
-12
-12
-13
-13
-13
-13
-12
-12
-12
-12
-12
-13
-14
-13
-14
-13
-14
-13
-13
-13
-14
-14
-14
-14
-14
-14
-14
-15
-14
-15
-16
-15
-16
-16
-16
-17
-16
-16
-16
-16
-15
-14
-15
-13
-13
-13
-13
-12
-12
-12
-12
-11
-11
-11
-12
-12
-12
-13
-14
-14
-15
-16
-15
-14
-12
-9
-6
-1
3
10
17
25
33
44
54
66
78
90
102
113
123
131
138
144
149
153
154
153
151
145
138
129
118
105
91
76
60
44
26
9
-7
-24
-39
-53
-68
-80
-91
-102
-111
-118
-124
-129
-133
-137
-140
-142
-144
-143
-143
-141
-139
-137
-134
-130
-126
-122
-117
-111
-106
-99
-94
-88
-82
-76
-69
-63
-57
-51
-45
-39
-34
-29
-25
-22
-17
-14
-11
-8
-5
-2
0
2
4
5
7
7
8
9
9
10
11
10
11
11
12
12
12
12
12
13
13
13
13
13
14
14
14
14
14
14
13
13
14
14
14
14
14
14
14
14
14
14
14
15
15
14
15
15
15
16
16
16
17
18
17
18
18
17
17
18
19
19
20
21
21
22
22
23
22
23
23
24
24
25
24
25
24
24
24
24
24
25
25
24
24
24
24
24
25
25
25
26
26
27
27
27
27
28
28
27
27
28
28
27
28
28
28
27
28
28
28
28
29
29
30
31
31
33
34
34
35
36
37
38
38
39
40
41
43
43
44
45
46
46
47
48
47
48
49
50
51
50
51
52
51
52
52
52
53
54
54
54
55
56
57
58
60
61
63
64
65
66
68
70
72
73
75
77
78
79
80
83
84
85
85
86
87
89
90
90
91
92
93
92
94
95
95
95
96
96
97
97
97
97
97
97
97
97
97
97
96
95
94
93
92
91
90
89
87
86
84
83
83
81
80
79
79
78
77
78
78
78
78
79
79
79
80
81
81
82
83
83
83
84
84
83
82
81
80
79
78
76
74
73
71
69
66
64
62
59
57
55
53
50
48
46
45
44
42
41
40
39
37
38
37
36
36
36
35
34
33
32
31
30
29
28
28
26
25
26
25
24
23
22
21
21
20
20
19
19
19
18
18
17
17
17
16
15
15
14
13
12
12
10
9
9
8
7
5
4
2
1
1
0
0
-1
-1
-2
-2
-2
-3
-3
-4
-3
-3
-3
-4
-3
-3
-3
-3
-3
-3
-4
-3
-3
-4
-4
-4
-5
-6
-6
-7
-7
-6
-7
-7
-7
-6
-7
-6
-7
-6
-7
-6
-6
-5
-5
-4
-3
-3
-2
-2
-1
-2
-1
-1
0
1
1
2
2
3
3
3
3
3
3
3
3
2
2
2
2
2
2
1
1
1
1
1
1
0
1
1
0
1
1
2
2
2
2
2
1
1
1
2
2
2
2
2
2
2
3
2
2
1
1
0
0
0
0
-1
-1
-2
-2
-3
-3
-3
-4
-4
-3
-3
-3
-3
-2
-1
0
1
3
5
6
8
8
10
12
13
15
17
19
20
22
23
24
25
26
27
27
28
29
30
30
30
30
31
31
31
32
32
32
32
32
32
32
31
31
31
31
31
32
32
32
33
33
33
34
34
34
34
34
35
35
36
36
37
37
38
38
38
39
39
39
39
40
40
40
40
39
40
39
40
39
39
39
38
37
37
37
36
36
35
34
34
33
33
32
32
32
31
31
32
31
32
32
31
32
31
32
32
32
32
33
34
33
34
33
34
33
34
33
33
33
32
30
30
28
28
27
26
25
23
23
21
20
18
16
14
13
12
11
10
9
9
9
8
7
7
6
6
7
7
6
7
6
7
6
7
7
6
6
6
6
7
7
6
6
6
6
5
6
5
5
5
5
5
5
5
6
6
7
7
7
8
8
9
9
9
10
10
10
11
12
11
11
10
10
9
8
7
6
5
4
3
2
0
-2
-4
-5
-8
-10
-11
-12
-13
-14
-13
-13
-13
-11
-9
-6
-2
2
7
13
21
29
39
50
63
76
90
105
120
135
149
161
173
183
193
201
207
211
214
214
212
207
201
192
181
167
154
138
121
104
87
68
50
32
14
-2
-18
-33
-47
-60
-73
-83
-93
-103
-110
-118
-123
-126
-130
-131
-132
-133
-132
-130
-128
-124
-121
-116
-111
-106
-100
-94
-88
-82
-75
-69
-63
-57
-50
-44
-39
-33
-28
-24
-19
-16
-12
-9
-5
-2
0
3
5
7
8
9
11
11
12
12
12
13
13
13
13
14
13
13
12
13
13
13
13
13
13
13
13
13
14
14
13
13
13
13
13
14
14
14
15
15
15
15
15
15
15
15
15
14
14
14
14
14
14
14
15
14
14
14
14
13
14
14
14
14
14
15
14
15
16
16
17
17
17
17
16
17
17
16
16
16
16
16
17
16
16
16
17
17
17
17
18
18
18
19
20
20
20
21
21
21
22
22
23
23
24
24
25
26
26
26
27
27
27
27
27
26
26
26
26
27
27
28
28
28
28
28
28
28
28
28
27
27
27
27
28
28
29
30
30
30
31
32
31
32
33
34
35
36
38
38
39
41
41
42
44
44
46
47
48
50
51
52
53
54
55
56
56
57
58
59
60
61
61
63
64
64
65
66
68
69
70
71
73
74
75
77
77
79
79
81
81
82
83
84
84
85
86
85
86
86
85
84
84
83
82
82
82
81
79
78
77
76
76
75
75
74
73
72
72
71
70
70
70
70
69
69
70
70
70
69
69
67
66
66
64
64
62
62
60
59
58
56
54
53
52
51
48
48
46
45
44
43
42
41
40
40
39
38
37
36
35
34
34
33
31
30
29
28
26
26
24
23
21
20
19
17
16
15
12
11
10
9
8
6
5
4
2
1
1
-1
-1
-2
-3
-4
-5
-6
-7
-8
-8
-8
-9
-9
-9
-10
-12
-13
-13
-13
-14
-15
-15
-16
-18
-19
-20
-21
-22
-24
-25
-25
-27
-28
-30
-30
-32
-33
-34
-35
-36
-38
-39
-38
-38
-39
-40
-40
-41
-41
-42
-41
-41
-42
-42
-42
-43
-43
-42
-42
-42
-42
-42
-42
-43
-42
-43
-43
-42
-43
-43
-43
-43
-43
-43
-43
-43
-44
-43
-43
-44
-44
-45
-45
-45
-45
-46
-46
-47
-47
-48
-48
-48
-49
-49
-51
-51
-51
-52
-52
-52
-52
-53
-53
-53
-53
-53
-53
-53
-53
-53
-52
-52
-52
-52
-52
-50
-51
-50
-50
-50
-49
-49
-49
-48
-47
-46
-46
-45
-44
-45
-44
-44
-43
-42
-42
-42
-41
-40
-40
-39
-39
-38
-38
-37
-37
-36
-36
-36
-36
-36
-36
-36
-36
-37
-37
-37
-37
-37
-38
-37
-38
-37
-36
-36
-35
-34
-34
-33
-32
-31
-30
-29
-27
-26
-25
-24
-23
-22
-22
-20
-19
-20
-18
-18
-18
-19
-18
-19
-19
-19
-20
-20
-20
-21
-20
-21
-20
-21
-21
-21
-21
-22
-22
-22
-23
-23
-23
-23
-23
-22
-22
-23
-23
-24
-23
-24
-25
-25
-25
-25
-26
-26
-27
-27
-28
-28
-28
-28
-29
-29
-30
-31
-31
-32
-33
-34
-36
-36
-37
-38
-39
-39
-41
-42
-43
-44
-45
-46
-47
-48
-48
-49
-50
-50
-51
-51
-51
-51
-51
-52
-52
-52
-52
-52
-53
-54
-53
-54
-54
-54
-55
-55
-54
-55
-56
-56
-57
-57
-57
-57
-58
-57
-58
-58
-59
-59
-59
-59
-60
-61
-60
-61
-61
-62
-62
-63
-63
-64
-65
-65
-65
-65
-66
-65
-65
-66
-65
-65
-64
-64
-64
-64
-64
-63
-62
-62
-61
-61
-61
-61
-61
-61
-62
-61
-61
-60
-58
-57
-56
-53
-50
-46
-43
-37
-31
-24
-15
-6
4
16
27
39
51
61
71
80
88
95
100
104
107
107
107
103
98
89
79
68
54
39
24
8
-9
-25
-42
-59
-76
-92
-106
-120
-131
-142
-153
-162
-170
-177
-183
-189
-193
-196
-199
-200
-201
-200
-199
-198
-195
-192
-188
-184
-179
-174
-168
-163
-157
-151
-145
-140
-133
-127
-121
-116
-110
-105
-100
-95
-90
-87
-83
-80
-78
-76
-73
-71
-69
-68
-67
-65
-63
-63
-63
-62
-62
-61
-61
-61
-61
-60
-61
-62
-61
-61
-61
-61
-61
-61
-61
-62
-61
-62
-61
-62
-62
-62
-62
-63
-63
-63
-63
-63
-63
-63
-62
-62
-63
-63
-62
-61
-61
-61
-60
-60
-60
-59
-58
-58
-57
-57
-56
-56
-56
-55
-55
-55
-56
-56
-54
-54
-54
-53
-53
-53
-53
-53
-51
-52
-52
-51
-51
-51
-51
-50
-50
-50
-50
-51
-51
-50
-51
-51
-51
-50
-50
-50
-50
-51
-51
-51
-51
-50
-50
-49
-49
-50
-49
-49
-48
-48
-48
-47
-47
-47
-46
-46
-46
-46
-46
-46
-45
-45
-44
-44
-43
-43
-44
-43
-43
-43
-43
-42
-41
-41
-41
-39
-39
-39
-40
-39
-39
-38
-37
-37
-36
-36
-35
-35
-35
-33
-32
-31
-30
-30
-29
-28
-27
-26
-25
-24
-22
-22
-21
-19
-18
-18
-17
-15
-14
-14
-12
-11
-10
-9
-8
-7
-5
-4
-4
-3
-2
-1
-1
0
1
1
2
3
3
4
4
4
5
6
6
6
6
6
8
8
8
10
11
11
11
13
13
14
14
15
15
16
16
15
16
16
16
15
16
16
15
14
14
12
12
11
10
9
8
7
6
5
4
3
2
1
0
0
-1
-2
-4
-5
-6
-7
-7
-9
-10
-11
-13
-14
-15
-17
-19
-20
-21
-23
-25
-26
-28
-30
-32
-35
-36
-37
-39
-41
-42
-43
-45
-46
-47
-50
-51
-52
-54
-55
-57
-58
-59
-60
-62
-63
-64
-65
-66
-67
-68
-69
-70
-70
-72
-72
-73
-73
-74
-75
-75
-75
-76
-77
-77
-77
-77
-78
-79
-79
-79
-80
-81
-81
-82
-83
-83
-84
-84
-84
-84
-86
-86
-86
-86
-86
-86
-87
-87
-88
-88
-89
-89
-90
-90
-91
-91
-91
-91
-92
-92
-92
-93
-93
-93
-94
-94
-95
-95
-95
-95
-95
-96
-97
-98
-98
-99
-99
-99
-100
-100
-99
-100
-101
-101
-101
-101
-102
-101
-101
-99
-99
-98
-98
-97
-97
-96
-96
-96
-96
-96
-95
-96
-96
-95
-96
-96
-96
-97
-98
-98
-98
-98
-99
-99
-99
-99
-99
-99
-100
-99
-99
-99
-99
-99
-98
-98
-98
-98
-97
-97
-97
-97
-95
-95
-95
-94
-94
-94
-94
-93
-92
-91
-92
-92
-91
-91
-91
-91
-90
-90
-90
-90
-90
-90
-90
-90
-90
-89
-90
-90
-89
-89
-90
-89
-88
-88
-88
-87
-86
-86
-85
-85
-84
-83
-82
-82
-80
-80
-79
-78
-78
-77
-77
-76
-76
-76
-74
-74
-74
-74
-73
-73
-73
-73
-73
-72
-72
-72
-71
-71
-71
-69
-69
-69
-67
-67
-67
-66
-65
-65
-64
-64
-64
-63
-62
-62
-61
-60
-60
-60
-61
-61
-61
-62
-63
-63
-63
-64
-65
-66
-66
-67
-68
-69
-70
-70
-71
-71
-72
-71
-72
-73
-73
-72
-73
-73
-74
-74
-74
-74
-74
-75
-76
-76
-76
-77
-76
-77
-77
-78
-77
-78
-77
-78
-77
-77
-76
-77
-77
-77
-77
-77
-76
-76
-76
-77
-77
-77
-78
-79
-79
-80
-81
-81
-82
-82
-83
-84
-84
-85
-85
-86
-86
-87
-88
-89
-89
-90
-90
-90
-91
-91
-92
-92
-93
-93
-94
-93
-94
-95
-95
-95
-95
-95
-94
-94
-94
-94
-94
-94
-95
-94
-95
-94
-94
-94
-93
-93
-92
-93
-92
-93
-93
-92
-92
-92
-92
-91
-91
-91
-91
-91
-91
-92
-92
-92
-92
-92
-92
-93
-93
-94
-94
-95
-95
-96
-97
-97
-97
-97
-97
-97
-96
-96
-96
-95
-95
-94
-93
-92
-92
-91
-88
-86
-82
-78
-73
-67
-60
-53
-44
-35
-25
-14
-2
10
22
33
43
52
60
67
73
78
80
81
80
76
70
61
51
38
24
9
-7
-25
-42
-59
-77
-94
-111
-126
-141
-155
-167
-178
-188
-196
-204
-211
-215
-220
-224
-226
-228
-229
-229
-229
-227
-226
-223
-220
-217
-212
-208
-204
-199
-193
-187
-181
-175
-170
-163
-158
-151
-145
-138
-132
-126
-122
-117
-113
-109
-105
-102
-99
-98
-95
-93
-92
-90
-90
-89
-88
-88
-87
-87
-86
-86
-86
-85
-84
-83
-83
-82
-82
-81
-81
-80
-80
-80
-79
-80
-79
-80
-80
-81
-81
-82
-82
-82
-82
-83
-83
-83
-83
-83
-82
-82
-81
-81
-80
-80
-79
-78
-78
-76
-75
-74
-74
-73
-73
-73
-72
-73
-72
-73
-73
-74
-74
-74
-74
-74
-75
-75
-75
-74
-74
-74
-74
-74
-73
-73
-72
-71
-70
-70
-69
-68
-68
-67
-67
-66
-66
-66
-66
-67
-67
-67
-68
-68
-68
-68
-68
-69
-68
-69
-69
-69
-68
-69
-68
-68
-68
-67
-66
-66
-66
-65
-64
-63
-62
-62
-61
-60
-59
-59
-58
-58
-58
-58
-57
-57
-57
-57
-57
-57
-58
-57
-57
-58
-57
-58
-58
-59
-59
-58
-58
-57
-57
-56
-55
-54
-53
-52
-52
-50
-49
-47
-46
-45
-43
-41
-40
-39
-37
-36
-33
-32
-31
-30
-28
-27
-26
-25
-24
-23
-22
-21
-20
-19
-18
-17
-16
-16
-14
-14
-14
-13
-12
-11
-11
-10
-9
-9
-9
-8
-7
-7
-6
-5
-5
-4
-4
-2
-2
-1
-1
0
1
1
2
2
4
4
4
4
5
5
5
6
5
5
4
4
4
3
3
2
2
1
1
1
0
-1
-1
-2
-3
-4
-4
-5
-6
-7
-9
-9
-10
-11
-12
-13
-15
-17
-19
-20
-20
-22
-24
-26
-27
-28
-30
-31
-33
-35
-36
-37
-38
-39
-41
-42
-43
-43
-45
-46
-48
-49
-51
-52
-54
-55
-57
-58
-59
-61
-62
-64
-65
-66
-68
-69
-71
-72
-73
-74
-75
-76
-77
-78
-78
-79
-80
-80
-81
-82
-82
-83
-83
-84
-84
-84
-84
-85
-84
-85
-85
-84
-85
-84
-85
-85
-85
-85
-85
-85
-84
-84
-84
-84
-84
-85
-85
-85
-85
-85
-87
-87
-88
-88
-89
-90
-91
-91
-92
-93
-94
-95
-95
-95
-96
-96
-96
-97
-96
-97
-97
-97
-96
-96
-96
-96
-96
-96
-96
-96
-95
-96
-96
-96
-96
-96
-96
-96
-96
-95
-95
-95
-95
-95
-96
-96
-96
-95
-95
-95
-95
-95
-95
-94
-94
-95
-95
-94
-94
-95
-95
-95
-95
-96
-96
-96
-95
-94
-94
-94
-94
-94
-96
-96
-95
-95
-95
-95
-94
-95
-95
-95
-95
-95
-94
-94
-95
-94
-94
-94
-93
-93
-92
-91
-92
-90
-90
-90
-90
-90
-89
-89
-88
-88
-87
-86
-86
-86
-85
-84
-84
-84
-82
-82
-81
-81
-80
-80
-79
-78
-77
-78
-77
-77
-76
-76
-75
-75
-75
-75
-74
-73
-72
-72
-71
-70
-70
-69
-69
-68
-66
-65
-65
-64
-64
-63
-63
-62
-62
-62
-61
-61
-61
-62
-62
-61
-62
-61
-62
-61
-61
-62
-62
-62
-62
-62
-63
-62
-63
-63
-63
-63
-63
-63
-63
-63
-63
-63
-63
-63
-64
-65
-65
-66
-66
-66
-67
-67
-68
-69
-69
-70
-71
-72
-71
-72
-73
-73
-73
-73
-73
-73
-73
-74
-74
-74
-75
-75
-74
-75
-75
-75
-76
-77
-77
-78
-79
-79
-80
-81
-82
-82
-83
-85
-85
-86
-87
-87
-88
-88
-89
-89
-89
-90
-90
-90
-91
-91
-91
-90
-90
-90
-90
-90
-90
-90
-90
-89
-89
-90
-90
-90
-90
-90
-91
-91
-90
-90
-90
-90
-90
-91
-90
-90
-90
-89
-90
-89
-89
-88
-88
-88
-88
-87
-88
-88
-89
-89
-89
-89
-90
-89
-90
-91
-91
-91
-92
-93
-93
-94
-93
-93
-93
-93
-93
-93
-93
-94
-94
-94
-94
-93
-93
-93
-93
-93
-92
-91
-89
-86
-84
-81
-76
-72
-66
-60
-52
-43
-33
-23
-11
0
12
23
34
43
51
58
64
69
72
74
73
71
65
58
50
39
26
12
-4
-19
-35
-52
-69
-86
-102
-117
-132
-144
-157
-168
-178
-187
-195
-203
-208
-214
-218
-222
-224
-225
-226
-226
-226
-224
-222
-219
-217
-213
-210
-206
-201
-196
-191
-185
-179
-173
-167
-161
-154
-149
-142
-137
-131
-125
-121
-116
-111
-106
-102
-99
-96
-93
-91
-89
-87
-85
-84
-83
-82
-81
-80
-79
-78
-77
-76
-77
-76
-76
-75
-74
-74
-73
-73
-72
-72
-72
-72
-71
-71
-72
-71
-71
-72
-72
-73
-73
-73
-73
-73
-73
-73
-72
-73
-73
-72
-71
-71
-71
-70
-70
-70
-70
-70
-69
-69
-69
-69
-69
-68
-69
-70
-69
-70
-71
-71
-71
-71
-71
-72
-72
-72
-73
-72
-72
-73
-73
-74
-73
-73
-73
-72
-73
-73
-72
-71
-71
-71
-71
-70
-70
-69
-67
-67
-66
-65
-64
-62
-62
-60
-59
-57
-55
-54
-53
-53
-51
-50
-50
-50
-49
-49
-48
-48
-48
-48
-48
-48
-48
-48
-49
-48
-48
-48
-47
-47
-47
-46
-46
-45
-44
-43
-44
-43
-42
-43
-42
-42
-42
-41
-42
-41
-42
-41
-41
-42
-41
-41
-41
-40
-40
-40
-38
-38
-36
-35
-34
-32
-31
-30
-28
-26
-25
-23
-21
-19
-17
-15
-12
-11
-9
-8
-7
-5
-4
-3
-2
-1
0
1
1
1
3
3
2
2
3
2
3
2
3
3
3
4
3
4
5
4
4
5
6
6
7
8
7
8
8
9
9
9
9
8
9
9
9
9
9
7
7
7
7
7
6
5
4
4
4
2
2
1
1
-1
-1
-1
-3
-4
-5
-6
-7
-9
-9
-11
-11
-13
-14
-15
-17
-18
-20
-21
-22
-24
-26
-27
-29
-31
-34
-35
-37
-38
-40
-42
-43
-44
-46
-47
-47
-48
-48
-50
-50
-50
-51
-51
-50
-50
-49
-49
-49
-49
-50
-50
-51
-52
-52
-52
-52
-52
-53
-54
-55
-56
-58
-59
-61
-62
-63
-65
-66
-66
-67
-68
-68
-69
-71
-72
-73
-73
-74
-75
-75
-76
-76
-77
-76
-77
-78
-77
-77
-78
-77
-78
-78
-78
-77
-77
-77
-77
-78
-78
-78
-78
-79
-80
-80
-81
-82
-81
-82
-83
-83
-84
-84
-85
-85
-86
-86
-86
-85
-85
-85
-85
-85
-85
-85
-84
-85
-85
-85
-84
-84
-83
-83
-83
-83
-83
-83
-83
-83
-83
-83
-83
-83
-83
-83
-83
-83
-83
-84
-84
-84
-84
-84
-85
-85
-86
-86
-86
-86
-86
-85
-86
-86
-86
-85
-85
-85
-85
-85
-85
-85
-83
-83
-83
-83
-83
-83
-82
-81
-81
-81
-80
-80
-79
-80
-79
-79
-79
-79
-79
-79
-78
-78
-78
-77
-76
-76
-76
-75
-75
-74
-75
-74
-73
-73
-73
-72
-72
-71
-70
-70
-70
-68
-68
-67
-66
-65
-64
-63
-62
-61
-59
-59
-57
-56
-55
-52
-51
-49
-48
-47
-47
-46
-45
-45
-44
-43
-43
-43
-42
-42
-42
-41
-41
-41
-41
-42
-42
-42
-43
-43
-43
-44
-44
-45
-44
-46
-45
-45
-45
-45
-45
-45
-44
-44
-43
-43
-41
-41
-40
-40
-38
-37
-37
-37
-36
-36
-36
-36
-35
-35
-37
-37
-37
-38
-39
-39
-40
-40
-41
-42
-43
-44
-43
-44
-45
-46
-46
-46
-47
-47
-48
-49
-49
-49
-49
-49
-49
-49
-50
-49
-49
-50
-50
-51
-51
-52
-52
-53
-53
-55
-55
-56
-57
-58
-58
-60
-61
-62
-63
-63
-65
-66
-67
-68
-68
-69
-69
-69
-70
-70
-70
-69
-69
-69
-69
-69
-69
-69
-69
-70
-69
-70
-70
-70
-71
-71
-70
-71
-70
-71
-71
-71
-70
-70
-70
-69
-68
-67
-66
-65
-64
-63
-62
-61
-59
-58
-58
-57
-57
-57
-58
-58
-59
-60
-61
-62
-62
-63
-63
-64
-65
-65
-66
-68
-68
-68
-68
-68
-68
-68
-68
-68
-67
-66
-66
-65
-64
-64
-63
-61
-58
-54
-50
-46
-39
-32
-23
-14
-4
7
19
31
44
58
70
82
93
102
111
118
124
128
131
132
129
125
119
110
99
87
74
59
44
27
10
-7
-24
-41
-57
-73
-87
-102
-114
-125
-136
-146
-155
-164
-170
-177
-182
-186
-190
-191
-193
-193
-194
-192
-189
-187
-184
-180
-176
-170
-165
-159
-153
-147
-140
-134
-126
-120
-113
-107
-101
-96
-90
-85
-80
-76
-71
-68
-64
-61
-58
-57
-55
-53
-52
-51
-50
-48
-48
-47
-47
-46
-46
-45
-45
-45
-45
-45
-45
-45
-45
-45
-45
-45
-45
-44
-45
-44
-44
-45
-45
-44
-45
-44
-45
-45
-45
-45
-45
-45
-45
-46
-46
-46
-46
-47
-48
-47
-48
-47
-46
-47
-47
-46
-45
-46
-45
-44
-44
-43
-43
-42
-41
-41
-41
-40
-39
-38
-37
-37
-37
-36
-36
-36
-35
-35
-35
-35
-35
-34
-34
-35
-34
-34
-33
-33
-32
-32
-31
-31
-31
-29
-29
-28
-27
-26
-25
-24
-23
-23
-23
-22
-22
-22
-21
-21
-20
-20
-19
-19
-19
-19
-19
-18
-18
-18
-19
-18
-18
-18
-18
-17
-17
-17
-16
-17
-16
-16
-15
-15
-14
-15
-14
-13
-13
-12
-12
-11
-11
-10
-9
-8
-7
-6
-6
-5
-3
-2
-1
0
1
3
4
6
7
8
9
10
12
14
15
16
18
19
20
21
22
24
24
26
28
28
29
30
31
31
31
32
33
34
33
34
35
35
37
36
37
37
38
37
38
39
39
39
39
39
39
40
40
41
40
40
40
40
40
40
40
40
39
40
40
39
39
39
38
39
39
37
38
38
38
37
37
37
36
36
35
35
35
34
35
34
34
34
33
32
31
30
29
28
28
27
26
25
24
23
22
20
19
18
16
15
13
12
10
8
6
4
3
1
0
-2
-4
-5
-6
-9
-10
-12
-13
-15
-15
-17
-18
-19
-20
-20
-22
-23
-23
-23
-24
-25
-26
-27
-28
-29
-30
-30
-31
-31
-32
-33
-34
-34
-35
-36
-37
-38
-38
-39
-40
-41
-42
-43
-44
-44
-46
-46
-48
-48
-49
-49
-49
-51
-52
-51
-52
-53
-54
-54
-55
-55
-56
-56
-56
-57
-57
-57
-57
-57
-57
-57
-58
-58
-58
-58
-58
-58
-58
-59
-59
-60
-59
-59
-59
-60
-60
-60
-60
-59
-60
-61
-61
-61
-63
-63
-63
-63
-64
-64
-64
-64
-65
-65
-66
-67
-67
-67
-67
-67
-67
-67
-67
-67
-67
-67
-67
-68
-68
-67
-68
-68
-69
-69
-69
-69
-69
-69
-69
-69
-69
-70
-70
-70
-70
-69
-68
-67
-66
-66
-65
-64
-64
-63
-62
-61
-60
-59
-58
-57
-56
-55
-55
-54
-53
-53
-53
-51
-51
-51
-50
-50
-49
-49
-48
-48
-47
-47
-46
-45
-45
-44
-44
-44
-42
-42
-41
-41
-40
-40
-39
-38
-39
-38
-36
-36
-36
-35
-34
-33
-33
-32
-31
-30
-29
-29
-28
-28
-26
-26
-26
-24
-24
-24
-24
-25
-24
-24
-24
-24
-24
-24
-24
-25
-24
-25
-25
-25
-26
-26
-26
-26
-26
-25
-26
-26
-25
-26
-27
-26
-27
-27
-27
-26
-27
-27
-27
-28
-28
-28
-29
-29
-29
-29
-30
-30
-30
-30
-31
-31
-32
-31
-31
-32
-32
-32
-33
-33
-33
-34
-35
-35
-37
-38
-39
-40
-41
-43
-45
-47
-48
-50
-51
-53
-54
-55
-56
-57
-57
-58
-59
-60
-59
-60
-60
-60
-60
-60
-59
-59
-59
-59
-58
-59
-58
-58
-59
-59
-59
-58
-58
-58
-58
-58
-59
-60
-60
-60
-61
-61
-60
-61
-61
-62
-61
-61
-61
-62
-62
-61
-61
-60
-60
-60
-60
-59
-60
-60
-59
-59
-59
-60
-58
-58
-58
-58
-58
-58
-58
-59
-59
-60
-60
-60
-61
-62
-64
-64
-65
-67
-67
-67
-69
-69
-70
-70
-70
-70
-69
-69
-67
-65
-62
-58
-53
-47
-40
-32
-22
-12
-1
11
24
37
49
62
74
85
95
104
111
118
122
124
125
124
119
113
104
93
80
67
52
35
18
1
-17
-34
-52
-68
-84
-99
-114
-126
-137
-148
-158
-167
-174
-181
-186
-191
-194
-197
-200
-200
-200
-199
-198
-196
-192
-189
-186
-181
-176
-171
-166
-160
-153
-147
-140
-134
-127
-121
-115
-109
-103
-98
-92
-88
-84
-79
-76
-73
-70
-68
-66
-64
-63
-61
-59
-59
-58
-57
-58
-58
-57
-57
-57
-57
-57
-58
-58
-58
-58
-58
-58
-58
-57
-57
-57
-57
-56
-56
-56
-56
-55
-55
-55
-55
-55
-54
-54
-54
-54
-53
-53
-53
-53
-53
-53
-54
-53
-53
-53
-53
-52
-52
-52
-52
-51
-51
-51
-51
-51
-50
-50
-49
-49
-49
-49
-48
-49
-48
-48
-47
-47
-46
-46
-46
-45
-45
-45
-45
-45
-44
-44
-44
-43
-43
-42
-42
-41
-41
-40
-39
-39
-39
-39
-39
-39
-39
-38
-38
-39
-38
-38
-38
-39
-39
-39
-38
-38
-39
-38
-38
-38
-39
-39
-39
-38
-38
-38
-38
-38
-38
-38
-37
-37
-37
-38
-38
-37
-37
-37
-38
-37
-37
-37
-35
-35
-35
-34
-33
-33
-32
-32
-31
-30
-29
-28
-27
-26
-25
-24
-23
-22
-21
-19
-19
-18
-17
-16
-14
-13
-12
-11
-9
-9
-7
-7
-5
-4
-3
-1
-1
1
2
3
4
4
5
5
7
8
8
9
9
10
10
11
11
12
13
14
15
15
15
16
16
17
18
18
19
20
20
20
22
21
22
22
23
22
22
23
23
22
22
22
22
22
20
20
20
19
19
17
16
16
15
13
13
12
12
11
10
8
7
6
5
4
3
1
1
0
-1
-2
-3
-4
-5
-7
-9
-10
-11
-13
-13
-15
-15
-17
-18
-20
-22
-23
-25
-27
-28
-29
-30
-32
-33
-34
-35
-36
-37
-38
-39
-40
-41
-42
-42
-44
-44
-44
-46
-47
-47
-49
-50
-52
-53
-53
-55
-56
-57
-59
-60
-61
-63
-64
-66
-67
-68
-70
-70
-71
-72
-73
-73
-74
-75
-75
-76
-75
-76
-76
-77
-77
-78
-78
-79
-79
-80
-80
-80
-80
-81
-81
-83
-83
-85
-85
-86
-86
-87
-87
-88
-88
-89
-89
-89
-89
-90
-90
-91
-91
-91
-92
-91
-91
-91
-90
-90
-90
-90
-90
-90
-91
-90
-90
-90
-90
-89
-89
-89
-89
-88
-88
-90
-90
-90
-91
-91
-91
-91
-92
-91
-91
-91
-91
-91
-90
-91
-91
-91
-91
-91
-91
-90
-89
-89
-89
-88
-88
-88
-88
-88
-89
-89
-89
-89
-89
-88
-88
-88
-88
-88
-88
-87
-88
-87
-87
-86
-86
-85
-85
-84
-84
-83
-82
-81
-80
-79
-79
-79
-78
-77
-76
-76
-75
-74
-73
-73
-72
-72
-71
-70
-70
-69
-68
-67
-67
-66
-66
-65
-65
-65
-65
-64
-65
-64
-64
-64
-64
-63
-63
-64
-64
-64
-63
-63
-63
-63
-62
-61
-61
-60
-60
-60
-59
-59
-58
-57
-57
-56
-57
-56
-55
-56
-55
-55
-55
-55
-55
-56
-56
-56
-57
-56
-56
-56
-56
-56
-57
-57
-58
-57
-58
-58
-58
-58
-57
-57
-57
-58
-58
-58
-58
-59
-60
-59
-60
-60
-61
-62
-62
-63
-63
-64
-65
-66
-66
-67
-67
-67
-68
-68
-68
-69
-68
-69
-69
-68
-67
-67
-67
-67
-68
-67
-67
-67
-68
-68
-68
-68
-69
-70
-71
-72
-73
-74
-76
-76
-78
-80
-82
-83
-84
-86
-86
-87
-87
-88
-87
-87
-88
-88
-89
-88
-88
-87
-87
-86
-87
-86
-86
-86
-85
-85
-85
-84
-84
-84
-85
-85
-85
-86
-85
-85
-86
-86
-86
-87
-87
-88
-87
-89
-88
-88
-89
-89
-89
-89
-89
-89
-90
-91
-91
-91
-91
-92
-90
-90
-91
-90
-90
-89
-89
-89
-89
-88
-88
-88
-88
-88
-88
-88
-89
-88
-88
-88
-88
-88
-87
-87
-86
-84
-82
-80
-78
-73
-69
-64
-57
-49
-41
-31
-21
-10
1
12
24
36
45
54
62
70
76
80
84
84
84
81
76
69
60
48
35
22
6
-9
-25
-43
-60
-76
-93
-109
-123
-137
-150
-162
-173
-183
-191
-200
-206
-211
-216
-220
-223
-226
-227
-227
-228
-227
-226
-223
-220
-217
-214
-210
-205
-201
-196
-191
-185
-179
-172
-166
-159
-154
-148
-142
-136
-131
-126
-120
-115
-111
-107
-103
-100
-97
-95
-92
-91
-89
-87
-86
-85
-84
-83
-83
-83
-83
-82
-81
-81
-81
-80
-81
-81
-80
-80
-80
-80
-80
-80
-80
-81
-80
-80
-80
-80
-80
-80
-80
-80
-80
-80
-80
-80
-80
-79
-78
-78
-78
-78
-78
-77
-77
-76
-76
-75
-75
-75
-74
-73
-73
-73
-73
-73
-73
-73
-73
-72
-72
-72
-71
-72
-72
-72
-71
-72
-72
-72
-71
-71
-70
-70
-70
-69
-69
-69
-69
-67
-67
-66
-66
-65
-64
-64
-63
-63
-62
-62
-61
-61
-61
-61
-61
-60
-60
-60
-59
-60
-60
-60
-60
-60
-60
-61
-61
-62
-62
-62
-62
-62
-62
-62
-61
-61
-61
-61
-61
-60
-59
-59
-58
-58
-58
-57
-56
-55
-54
-54
-53
-53
-53
-52
-51
-50
-50
-50
-50
-48
-48
-48
-48
-48
-46
-46
-46
-46
-45
-44
-44
-43
-42
-41
-40
-39
-38
-37
-36
-34
-34
-33
-31
-30
-29
-28
-26
-25
-25
-24
-23
-22
-22
-20
-19
-18
-17
-16
-15
-14
-14
-12
-11
-10
-10
-9
-9
-8
-7
-7
-5
-6
-5
-4
-5
-4
-4
-4
-4
-4
-4
-4
-4
-4
-4
-4
-4
-5
-4
-4
-3
-3
-3
-3
-2
-3
-4
-4
-4
-5
-5
-5
-5
-5
-6
-5
-6
-8
-9
-9
-10
-11
-12
-12
-13
-14
-14
-16
-16
-17
-18
-19
-20
-20
-21
-22
-23
-25
-25
-27
-28
-29
-31
-33
-34
-36
-36
-38
-40
-42
-43
-45
-47
-47
-50
-52
-53
-55
-57
-58
-59
-61
-62
-63
-64
-66
-67
-68
-70
-71
-72
-72
-73
-74
-74
-76
-76
-78
-78
-78
-80
-80
-82
-82
-83
-83
-84
-84
-84
-86
-86
-87
-87
-88
-88
-89
-89
-90
-90
-90
-90
-91
-92
-92
-93
-92
-93
-93
-94
-95
-94
-95
-95
-97
-97
-98
-98
-98
-98
-98
-98
-99
-98
-99
-99
-98
-98
-98
-98
-99
-98
-99
-98
-98
-98
-98
-99
-99
-99
-99
-100
-100
-101
-101
-101
-101
-101
-101
-102
-101
-101
-101
-101
-100
-100
-99
-99
-98
-98
-98
-98
-98
-97
-96
-96
-96
-95
-96
-96
-96
-95
-95
-95
-95
-94
-94
-94
-94
-94
-95
-95
-94
-94
-95
-94
-93
-94
-93
-93
-93
-93
-93
-93
-92
-92
-91
-91
-89
-89
-89
-88
-88
-88
-87
-87
-87
-87
-86
-85
-85
-84
-84
-84
-83
-83
-83
-82
-82
-81
-80
-80
-79
-78
-77
-76
-76
-74
-73
-73
-71
-71
-71
-70
-69
-69
-67
-67
-66
-65
-65
-64
-65
-64
-64
-64
-63
-64
-63
-63
-63
-63
-64
-63
-63
-63
-64
-63
-64
-64
-64
-63
-64
-64
-65
-65
-65
-64
-64
-65
-64
-64
-64
-64
-63
-63
-63
-63
-63
-62
-62
-62
-63
-62
-62
-63
-62
-63
-64
-65
-65
-67
-67
-68
-69
-70
-70
-71
-72
-72
-73
-73
-75
-75
-75
-74
-75
-75
-75
-75
-75
-74
-75
-75
-74
-74
-74
-74
-74
-75
-75
-75
-76
-76
-77
-77
-78
-79
-79
-80
-80
-82
-82
-83
-84
-85
-85
-86
-87
-88
-89
-90
-90
-91
-91
-91
-90
-91
-90
-91
-91
-91
-91
-91
-90
-90
-90
-89
-89
-89
-88
-89
-89
-88
-89
-89
-89
-89
-89
-90
-90
-90
-89
-89
-90
-89
-89
-89
-89
-89
-89
-89
-90
-89
-89
-89
-90
-89
-89
-90
-90
-90
-91
-91
-92
-92
-93
-94
-94
-94
-94
-94
-95
-96
-97
-98
-98
-99
-99
-99
-99
-98
-98
-96
-95
-92
-90
-88
-84
-79
-73
-67
-59
-51
-41
-31
-19
-8
4
15
27
36
45
53
59
64
68
72
73
71
68
61
53
44
32
19
4
-11
-27
-44
-60
-77
-94
-110
-124
-138
-151
-163
-174
-184
-192
-199
-206
-211
-216
-220
-222
-225
-226
-227
-227
-226
-225
-223
-221
-218
-215
-211
-208
-204
-200
-195
-190
-185
-180
-174
-168
-162
-157
-151
-146
-140
-135
-129
-124
-118
-114
-110
-106
-103
-100
-97
-94
-91
-89
-87
-85
-85
-83
-83
-82
-82
-82
-81
-81
-82
-82
-81
-81
-80
-80
-79
-79
-79
-80
-79
-79
-79
-78
-78
-79
-79
-78
-78
-77
-77
-76
-77
-77
-76
-76
-77
-76
-77
-76
-76
-76
-76
-76
-75
-75
-75
-75
-74
-74
-74
-75
-75
-74
-75
-74
-73
-73
-73
-73
-73
-73
-72
-72
-72
-72
-72
-72
-72
-72
-72
-72
-72
-72
-73
-74
-74
-74
-75
-75
-75
-75
-75
-76
-76
-75
-75
-76
-75
-75
-73
-73
-72
-72
-71
-70
-70
-70
-69
-68
-68
-68
-67
-66
-66
-66
-65
-65
-65
-64
-64
-64
-64
-64
-63
-63
-63
-62
-62
-62
-61
-62
-61
-61
-61
-61
-60
-59
-58
-58
-57
-56
-56
-56
-54
-53
-53
-52
-52
-50
-49
-48
-47
-46
-45
-43
-42
-42
-41
-40
-39
-39
-37
-37
-35
-35
-34
-34
-33
-32
-32
-31
-31
-30
-29
-28
-28
-27
-25
-24
-24
-23
-21
-20
-19
-17
-16
-15
-13
-12
-11
-10
-9
-8
-7
-6
-5
-5
-4
-4
-4
-3
-3
-4
-3
-3
-3
-3
-4
-3
-3
-3
-3
-3
-3
-3
-3
-3
-3
-4
-4
-4
-5
-5
-5
-6
-6
-6
-6
-7
-7
-7
-8
-8
-9
-9
-10
-10
-11
-12
-13
-13
-14
-15
-17
-18
-19
-21
-22
-24
-26
-27
-29
-30
-33
-35
-37
-38
-40
-41
-43
-45
-47
-48
-50
-51
-52
-54
-54
-56
-57
-58
-60
-61
-61
-62
-63
-63
-64
-65
-66
-67
-68
-69
-70
-70
-71
-72
-73
-74
-76
-76
-78
-78
-80
-81
-82
-84
-84
-85
-87
-88
-88
-89
-90
-91
-91
-91
-92
-92
-92
-92
-91
-90
-91
-90
-90
-90
-91
-92
-91
-92
-92
-93
-93
-93
-95
-95
-95
-97
-97
-98
-99
-99
-100
-100
-101
-101
-101
-102
-101
-101
-100
-101
-100
-101
-100
-100
-100
-101
-100
-99
-99
-99
-100
-99
-99
-98
-99
-99
-98
-99
-98
-98
-98
-98
-98
-98
-97
-98
-97
-97
-96
-97
-97
-97
-98
-97
-97
-97
-97
-98
-98
-97
-97
-98
-98
-97
-97
-97
-97
-97
-97
-98
-97
-97
-98
-97
-97
-98
-98
-98
-98
-99
-99
-100
-99
-99
-99
-99
-100
-100
-100
-99
-99
-99
-98
-98
-97
-96
-95
-95
-94
-93
-93
-91
-90
-90
-90
-89
-88
-88
-86
-85
-85
-83
-83
-82
-81
-80
-79
-78
-76
-76
-75
-74
-73
-72
-73
-71
-71
-72
-71
-71
-70
-70
-70
-70
-70
-69
-68
-68
-69
-68
-68
-68
-67
-68
-67
-66
-65
-64
-65
-63
-62
-62
-62
-62
-62
-62
-62
-61
-61
-61
-61
-60
-61
-61
-61
-62
-62
-61
-62
-62
-63
-63
-63
-63
-63
-64
-64
-64
-63
-64
-64
-63
-63
-63
-63
-63
-63
-63
-63
-63
-63
-62
-63
-62
-63
-63
-62
-63
-63
-64
-65
-64
-64
-64
-65
-64
-65
-64
-65
-64
-64
-64
-65
-65
-65
-65
-65
-65
-65
-66
-67
-68
-69
-70
-71
-72
-73
-75
-75
-77
-78
-80
-82
-82
-83
-84
-85
-86
-87
-87
-88
-88
-89
-89
-89
-89
-88
-89
-88
-87
-88
-88
-87
-87
-88
-87
-87
-86
-86
-86
-86
-86
-86
-86
-86
-86
-86
-86
-86
-86
-86
-85
-86
-85
-85
-85
-85
-85
-85
-85
-85
-85
-85
-85
-84
-84
-84
-84
-85
-85
-85
-85
-86
-86
-86
-87
-88
-88
-89
-90
-91
-91
-93
-94
-94
-95
-96
-97
-98
-99
-99
-99
-99
-98
-97
-94
-91
-87
-82
-77
-70
-62
-53
-44
-32
-20
-8
6
19
32
45
56
68
77
86
93
99
103
105
105
102
97
90
82
71
58
45
30
14
-2
-19
-35
-53
-69
-85
-101
-115
-129
-142
-153
-163
-173
-182
-190
-197
-203
-208
-212
-215
-216
-217
-216
-215
-214
-211
-208
-204
-200
-195
-190
-185
-179
-172
-166
-160
-154
-148
-142
-137
-131
-126
-121
-116
-111
-107
-104
-100
-97
-95
-93
-91
-89
-86
-84
-83
-80
-79
-77
-77
-75
-74
-73
-72
-72
-70
-70
-68
-68
-68
-67
-67
-67
-66
-66
-66
-66
-65
-65
-65
-65
-65
-65
-65
-65
-66
-66
-66
-65
-65
-65
-65
-64
-65
-65
-65
-64
-66
-66
-65
-65
-65
-65
-65
-65
-65
-65
-64
-64
-64
-64
-64
-63
-63
-63
-62
-62
-61
-61
-60
-59
-59
-58
-57
-56
-56
-55
-55
-53
-53
-52
-51
-50
-50
-49
-49
-50
-50
-50
-50
-51
-52
-52
-53
-53
-55
-55
-56
-57
-58
-58
-59
-59
-59
-59
-59
-59
-59
-58
-57
-56
-54
-53
-51
-50
-48
-46
-44
-43
-42
-41
-38
-37
-35
-35
-33
-32
-33
-32
-32
-32
-32
-31
-31
-30
-30
-30
-30
-29
-29
-29
-29
-28
-28
-27
-25
-24
-23
-21
-20
-19
-18
-18
-16
-16
-14
-13
-13
-11
-10
-9
-9
-7
-6
-5
-5
-3
-3
-2
-1
-1
0
1
2
3
4
5
5
7
8
8
9
10
11
11
12
12
12
13
13
14
14
15
15
16
16
17
17
17
18
18
18
19
18
19
19
18
20
20
19
21
21
21
22
23
23
23
23
23
23
23
23
23
23
23
22
22
21
20
19
19
18
16
16
15
14
13
13
11
10
10
9
7
6
4
3
2
1
0
-1
-2
-4
-5
-5
-6
-8
-9
-10
-11
-13
-13
-15
-16
-18
-19
-21
-21
-22
-24
-25
-26
-29
-31
-32
-34
-36
-37
-38
-40
-41
-43
-44
-46
-48
-49
-50
-51
-52
-52
-52
-53
-53
-54
-54
-54
-55
-55
-55
-56
-57
-56
-57
-57
-58
-58
-59
-60
-60
-61
-61
-63
-64
-65
-66
-67
-68
-69
-70
-71
-73
-75
-75
-77
-78
-79
-80
-80
-81
-81
-82
-82
-83
-83
-83
-83
-83
-83
-81
-81
-81
-81
-80
-80
-78
-79
-78
-78
-79
-78
-79
-78
-78
-79
-79
-79
-79
-79
-80
-79
-80
-80
-80
-80
-79
-79
-79
-79
-79
-80
-80
-79
-79
-78
-78
-77
-77
-78
-77
-78
-78
-78
-77
-76
-77
-77
-77
-78
-77
-78
-78
-79
-79
-79
-79
-78
-78
-79
-78
-77
-78
-77
-77
-77
-77
-76
-75
-73
-74
-73
-72
-71
-71
-70
-70
-69
-68
-67
-67
-66
-65
-65
-65
-66
-64
-65
-64
-63
-62
-62
-61
-61
-61
-60
-59
-59
-58
-57
-56
-55
-54
-53
-52
-51
-50
-49
-48
-48
-46
-46
-45
-45
-44
-44
-44
-44
-44
-44
-44
-44
-45
-45
-46
-46
-46
-47
-47
-48
-49
-50
-49
-50
-50
-51
-51
-52
-53
-52
-53
-52
-52
-51
-52
-52
-51
-51
-52
-51
-51
-51
-50
-50
-50
-51
-50
-50
-51
-50
-50
-51
-51
-51
-52
-52
-52
-51
-52
-52
-52
-53
-52
-52
-53
-53
-52
-52
-52
-52
-52
-52
-51
-50
-51
-51
-51
-51
-51
-51
-52
-52
-52
-53
-53
-54
-56
-57
-57
-58
-59
-60
-61
-63
-65
-65
-66
-67
-68
-69
-70
-71
-73
-73
-74
-76
-76
-77
-78
-79
-80
-80
-81
-81
-81
-82
-81
-82
-82
-82
-81
-82
-81
-80
-79
-79
-79
-80
-80
-80
-80
-80
-80
-80
-80
-80
-81
-81
-81
-80
-81
-81
-80
-81
-81
-81
-80
-79
-79
-78
-77
-77
-76
-76
-75
-75
-75
-75
-76
-76
-77
-77
-77
-78
-79
-80
-82
-82
-84
-85
-87
-87
-88
-88
-89
-88
-87
-86
-83
-80
-76
-70
-63
-56
-47
-36
-26
-14
0
12
25
38
50
62
72
81
90
96
102
105
106
105
102
96
88
78
66
52
38
23
6
-11
-29
-47
-64
-82
-98
-114
-128
-143
-154
-165
-176
-185
-195
-202
-208
-213
-218
-220
-223
-224
-224
-223
-220
-218
-215
-211
-206
-201
-196
-191
-185
-179
-172
-167
-160
-154
-148
-143
-137
-133
-128
-124
-120
-116
-112
-109
-105
-102
-99
-96
-93
-91
-89
-86
-84
-83
-81
-79
-77
-76
-75
-73
-72
-72
-72
-71
-70
-71
-71
-70
-71
-71
-72
-72
-72
-73
-72
-72
-72
-71
-72
-71
-71
-71
-70
-71
-70
-70
-70
-70
-69
-69
-69
-69
-69
-70
-69
-69
-70
-70
-70
-70
-70
-70
-70
-70
-70
-70
-70
-70
-69
-69
-69
-68
-67
-67
-67
-67
-66
-66
-65
-65
-64
-64
-64
-64
-64
-64
-64
-65
-65
-64
-64
-65
-65
-65
-65
-65
-66
-66
-65
-66
-65
-66
-65
-65
-65
-65
-65
-64
-64
-64
-63
-63
-61
-61
-61
-60
-59
-59
-59
-58
-57
-57
-57
-57
-56
-56
-56
-56
-56
-54
-54
-55
-55
-55
-55
-55
-56
-56
-56
-57
-56
-57
-56
-56
-56
-56
-56
-56
-56
-56
-55
-55
-54
-53
-53
-52
-51
-50
-49
-47
-46
-45
-43
-42
-40
-38
-35
-34
-31
-30
-28
-26
-26
-24
-22
-21
-20
-18
-18
-16
-16
-14
-14
-13
-13
-11
-12
-11
-11
-11
-10
-10
-10
-10
-9
-9
-8
-8
-7
-7
-6
-7
-7
-6
-6
-6
-5
-5
-4
-4
-4
-4
-3
-3
-3
-3
-2
-2
-2
-3
-3
-3
-3
-4
-4
-5
-5
-6
-6
-7
-7
-8
-9
-10
-11
-11
-13
-14
-16
-16
-17
-18
-19
-19
-21
-21
-22
-23
-23
-24
-24
-25
-26
-27
-28
-29
-30
-31
-32
-33
-34
-35
-36
-38
-40
-42
-43
-46
-47
-50
-52
-54
-57
-59
-61
-64
-66
-68
-70
-71
-73
-74
-75
-76
-77
-78
-79
-80
-80
-81
-81
-81
-80
-80
-81
-80
-80
-80
-81
-81
-82
-82
-82
-83
-84
-85
-86
-87
-88
-89
-91
-92
-93
-94
-94
-95
-96
-97
-98
-99
-100
-101
-101
-102
-103
-103
-104
-105
-105
-106
-106
-107
-107
-108
-108
-108
-108
-109
-109
-110
-110
-110
-110
-110
-110
-110
-109
-109
-109
-110
-109
-109
-109
-108
-108
-107
-108
-108
-107
-107
-107
-107
-107
-106
-106
-106
-106
-105
-105
-106
-105
-105
-106
-106
-105
-106
-105
-104
-105
-104
-105
-105
-105
-105
-106
-107
-107
-107
-107
-108
-109
-109
-109
-109
-109
-110
-111
-110
-111
-111
-111
-110
-111
-110
-109
-110
-109
-108
-109
-108
-108
-107
-106
-105
-105
-104
-104
-104
-104
-103
-103
-103
-102
-102
-101
-102
-101
-101
-101
-100
-100
-99
-98
-98
-97
-97
-96
-96
-96
-96
-96
-95
-95
-95
-94
-94
-93
-93
-93
-93
-93
-93
-93
-93
-92
-92
-91
-91
-91
-90
-89
-88
-88
-87
-86
-86
-85
-84
-84
-83
-82
-83
-82
-82
-82
-81
-81
-80
-79
-80
-80
-80
-80
-80
-80
-80
-80
-80
-80
-80
-80
-81
-80
-80
-81
-80
-81
-81
-81
-81
-80
-81
-81
-81
-82
-82
-82
-82
-82
-82
-82
-82
-82
-83
-84
-84
-85
-86
-86
-86
-87
-87
-87
-88
-88
-88
-89
-90
-90
-89
-89
-89
-89
-88
-88
-87
-88
-88
-87
-87
-86
-86
-87
-87
-87
-89
-89
-89
-91
-90
-91
-92
-93
-95
-96
-97
-98
-100
-101
-101
-102
-103
-104
-104
-106
-106
-107
-107
-108
-108
-108
-109
-109
