# Simple Text Format
# Sampling Rate (Hz):= 1200.00
# Resolution:= 12
# Labels:= ECG	 V1
# Age:=	67
# Gender:=	Feminino
-4
-4
-4
-4
-3
-3
-3
-4
-4
-4
-4
-4
-3
-3
-3
-1
-1
1
2
3
5
8
10
13
16
19
23
27
32
37
43
48
54
59
65
72
77
82
86
90
93
95
96
96
96
95
93
89
85
79
72
64
55
45
34
21
9
-4
-18
-32
-46
-60
-73
-86
-99
-111
-122
-133
-143
-152
-160
-167
-173
-178
-182
-185
-188
-188
-187
-185
-181
-178
-173
-168
-161
-155
-148
-139
-131
-124
-116
-108
-99
-90
-83
-74
-66
-59
-52
-45
-38
-32
-27
-22
-18
-14
-9
-6
-4
-1
2
4
6
8
9
10
13
14
14
16
16
17
19
20
21
21
22
23
23
25
25
26
26
27
27
27
27
27
27
27
28
28
28
28
29
28
28
28
27
28
27
28
28
27
27
27
27
27
28
27
28
28
27
28
28
29
29
29
30
30
31
31
31
32
33
32
32
33
33
33
33
32
32
32
31
31
32
32
32
31
31
31
31
31
31
32
32
32
33
32
33
33
33
34
34
35
36
36
37
37
38
39
39
40
41
41
42
43
45
45
46
47
47
48
48
48
49
49
50
50
50
51
50
50
50
50
50
51
50
51
51
50
50
50
50
50
51
52
52
52
52
53
53
53
53
54
54
55
55
55
55
56
56
56
57
57
57
57
57
57
57
57
58
57
57
58
58
58
58
59
58
59
60
59
60
61
62
63
63
64
65
66
66
65
66
66
67
67
68
69
68
68
69
69
69
69
70
70
71
71
72
71
72
72
72
72
72
72
73
73
74
74
73
73
73
73
72
73
72
72
72
73
72
72
73
73
72
72
72
72
72
72
71
72
71
71
70
70
70
70
69
69
69
68
68
67
67
67
66
64
64
63
63
62
61
60
59
58
57
57
56
55
55
54
53
52
51
51
50
50
49
49
49
49
49
49
49
49
48
48
47
47
47
46
46
45
45
44
44
44
44
43
43
43
43
42
43
43
42
42
42
42
41
41
40
40
39
38
38
37
37
36
35
35
33
32
30
29
28
27
25
24
24
22
21
21
20
19
18
17
16
15
14
13
13
13
12
12
11
11
10
10
10
10
10
10
9
10
9
9
9
9
9
8
9
8
8
8
7
7
6
5
4
4
3
3
2
1
0
-1
-1
-3
-3
-4
-5
-7
-7
-8
-8
-9
-8
-9
-8
-8
-8
-8
-8
-7
-5
-5
-5
-3
-2
-1
0
1
2
3
4
4
6
6
7
7
8
8
9
9
9
10
11
10
11
11
11
12
12
13
13
13
14
14
14
15
15
16
16
17
17
17
17
18
18
19
19
19
20
20
21
21
21
21
21
22
22
21
22
22
22
23
22
23
22
22
22
21
22
21
22
21
21
20
19
19
18
18
16
15
15
14
13
12
12
11
10
8
7
7
6
5
4
4
3
2
3
2
2
3
2
2
2
1
2
1
1
2
2
2
2
1
2
2
1
1
1
0
-1
-1
0
-1
-1
-2
-2
-2
-3
-3
-2
-3
-2
-2
-2
-2
-2
-2
-1
-2
-2
-1
-2
-1
-1
-1
-1
-1
-1
-1
-1
-1
-1
-2
-1
0
0
1
1
2
2
3
3
3
4
3
4
4
4
5
5
5
4
4
4
4
4
4
3
4
3
3
3
3
3
2
3
3
3
2
2
2
2
3
2
2
2
2
1
1
2
2
1
2
2
3
3
4
4
4
6
5
6
7
7
8
8
8
9
9
9
10
10
11
11
11
11
11
12
13
14
16
19
20
23
26
30
34
38
42
47
53
59
64
71
77
85
90
96
101
106
109
111
113
113
113
112
111
107
102
96
90
82
74
64
53
43
31
19
5
-7
-20
-33
-45
-57
-68
-79
-89
-98
-107
-115
-123
-129
-134
-138
-142
-145
-147
-147
-147
-146
-144
-141
-138
-133
-128
-123
-117
-111
-105
-98
-91
-84
-76
-69
-62
-54
-47
-40
-33
-25
-19
-12
-6
-1
5
9
14
18
21
25
27
30
32
33
35
35
37
37
38
38
38
38
39
38
37
38
38
37
37
38
38
38
39
39
39
40
41
41
41
41
42
43
43
44
44
45
46
46
46
46
47
47
46
47
46
46
46
44
44
44
43
44
43
43
43
43
43
43
43
43
44
44
45
45
45
46
47
47
49
49
50
51
52
52
54
54
56
57
57
58
59
60
60
61
63
63
64
64
65
65
65
65
65
66
66
67
66
66
66
66
66
65
66
65
66
65
66
66
66
67
66
67
67
66
66
67
67
67
67
67
67
67
68
69
69
69
70
70
71
71
72
74
75
76
77
77
78
79
80
81
82
82
83
84
84
84
86
86
86
86
86
86
87
87
87
87
87
87
87
88
87
87
87
87
87
87
87
87
89
88
89
89
89
89
90
90
91
91
90
90
89
88
88
87
87
87
86
86
85
85
84
84
83
83
82
82
83
83
84
85
86
87
88
89
91
92
93
95
95
96
97
98
99
100
100
100
101
102
101
101
100
100
100
100
100
99
98
97
97
97
97
96
96
95
94
94
94
93
93
93
93
93
93
92
92
91
91
91
90
90
89
89
88
88
87
86
86
84
84
83
81
81
80
79
78
77
76
76
75
74
73
73
72
72
71
71
70
70
70
68
68
68
67
67
67
66
65
65
64
63
63
62
61
60
60
60
59
60
59
59
59
59
60
59
59
60
59
59
60
60
61
61
62
61
62
62
62
62
62
61
61
61
61
61
60
60
60
60
60
59
59
59
58
58
58
57
56
56
57
57
57
57
57
57
57
58
57
57
57
57
58
58
58
59
59
59
59
59
59
59
58
59
58
58
57
56
55
55
55
55
55
54
54
53
54
54
55
55
55
55
56
56
57
58
58
58
59
60
60
60
61
61
62
62
62
62
61
61
62
61
61
62
61
62
62
63
63
64
64
65
65
66
67
67
68
69
69
70
71
71
72
72
72
72
73
74
74
74
75
75
75
76
76
76
76
76
77
77
78
78
78
78
78
78
79
79
79
79
79
79
78
79
78
78
77
76
77
76
75
74
74
73
72
71
71
70
69
68
67
65
64
62
62
61
60
60
58
57
55
55
54
54
52
51
50
50
48
47
47
47
47
47
47
47
48
48
48
49
49
49
50
51
52
52
54
55
56
56
57
57
58
58
58
58
59
59
58
59
59
59
59
58
58
58
57
57
57
57
57
57
56
57
56
55
55
54
53
53
52
52
52
52
52
52
52
52
52
53
53
53
54
54
54
55
56
56
57
57
57
58
58
58
59
59
58
59
58
59
59
59
59
59
59
59
59
59
59
59
60
60
60
61
61
60
61
61
61
60
60
59
60
59
60
59
60
60
60
61
62
63
65
66
68
70
72
75
78
81
85
90
94
99
103
110
115
121
127
133
139
144
149
152
154
155
157
157
157
155
153
150
146
140
133
125
117
107
97
85
73
60
47
33
20
7
-7
-20
-32
-44
-54
-64
-73
-82
-91
-97
-104
-109
-113
-115
-117
-117
-116
-115
-112
-108
-103
-97
-91
-84
-76
-68
-61
-52
-45
-37
-29
-20
-12
-3
5
14
20
27
32
38
43
49
54
58
62
65
69
71
73
75
77
78
80
81
82
83
83
84
86
86
87
87
87
88
89
90
89
89
89
91
91
92
92
93
93
94
95
96
97
98
99
100
100
100
101
101
101
101
101
101
101
101
101
101
100
99
100
100
100
99
100
100
100
101
100
101
101
102
103
104
105
105
106
106
105
106
106
107
108
108
108
109
108
109
109
109
110
109
109
110
110
110
110
110
111
111
110
111
112
111
112
113
113
113
114
114
115
116
117
117
119
119
120
121
121
122
122
122
122
123
123
123
123
124
124
123
123
124
123
123
123
124
124
124
124
125
126
126
127
127
129
129
129
129
129
130
131
131
132
132
132
133
133
133
134
134
134
134
134
135
136
136
136
137
136
137
137
138
138
137
138
138
139
139
140
140
140
140
140
140
140
140
140
140
140
140
140
140
140
140
140
140
140
141
141
141
141
142
141
142
142
142
142
143
144
144
145
145
145
144
145
145
144
144
145
144
144
145
144
145
145
145
144
145
144
145
145
145
145
145
145
145
145
146
145
146
145
145
145
145
144
144
143
142
141
141
140
139
138
137
136
134
134
132
131
130
129
128
127
126
125
124
124
123
122
122
121
120
119
119
119
118
118
117
116
116
115
115
114
113
113
113
112
112
112
112
112
111
111
111
111
111
111
111
110
110
111
110
109
109
108
108
109
109
108
108
107
107
107
106
106
106
106
105
105
105
105
105
105
105
104
104
103
102
102
102
101
102
101
100
100
99
99
99
98
98
99
99
99
98
98
99
99
99
99
100
101
101
101
101
101
102
102
102
103
103
103
103
103
102
102
103
102
102
102
102
101
101
102
101
101
101
101
101
101
101
101
100
101
101
102
101
101
102
102
102
102
101
101
102
102
102
102
101
101
101
101
101
101
101
101
101
101
102
102
103
103
103
103
103
103
103
103
104
104
105
105
105
106
106
106
107
107
108
107
108
108
109
109
110
111
111
111
112
112
113
113
113
113
114
114
114
114
116
116
116
117
117
117
118
119
119
120
121
122
122
123
124
124
124
126
126
126
127
128
128
128
128
128
128
128
126
126
125
125
124
122
122
121
120
118
117
116
115
114
112
111
109
107
106
103
102
100
99
97
96
94
93
92
90
90
88
87
86
85
85
85
85
86
86
86
87
88
88
89
89
89
91
92
93
93
94
95
94
95
95
95
96
95
96
96
96
96
97
97
96
97
97
98
98
98
99
99
99
98
99
98
99
99
98
99
99
98
98
98
98
97
97
96
96
96
96
96
95
95
95
95
95
95
95
95
96
95
95
95
95
95
95
94
94
95
95
95
96
95
95
95
95
95
95
95
96
96
96
96
96
96
95
96
96
95
96
96
95
95
96
95
94
95
95
95
95
95
95
95
96
97
98
99
101
102
104
106
108
110
114
118
123
128
132
137
144
149
155
161
168
174
180
184
189
193
196
198
199
200
200
198
196
192
186
179
172
163
154
143
132
120
107
93
79
64
49
35
21
8
-5
-18
-29
-40
-51
-60
-68
-75
-83
-88
-92
-96
-98
-98
-98
-96
-94
-90
-85
-79
-72
-66
-58
-50
-41
-33
-24
-15
-6
2
12
20
29
37
46
54
60
67
73
80
86
91
95
99
103
106
109
112
114
115
118
118
119
121
121
122
122
122
123
124
124
124
124
124
125
124
125
125
126
126
127
127
127
129
129
129
129
129
130
129
129
129
130
130
129
129
130
129
129
129
129
128
129
128
128
128
129
129
129
129
130
130
130
129
130
130
129
130
129
130
130
130
131
131
131
131
131
131
132
132
132
132
133
133
133
134
134
134
133
133
134
134
133
134
134
134
134
136
136
136
137
136
137
137
138
138
139
139
140
141
142
143
143
145
145
146
146
147
148
147
148
148
149
149
149
150
150
151
152
152
153
154
154
155
155
156
156
157
158
158
158
159
159
160
160
160
161
161
161
162
162
162
163
162
162
162
162
162
163
163
163
163
164
164
164
165
165
164
165
165
166
166
166
166
166
167
167
167
168
167
167
167
168
168
168
168
168
168
168
168
168
168
167
167
167
167
166
167
167
166
166
166
166
165
165
166
165
165
165
165
165
165
165
165
166
166
165
166
165
166
166
166
166
165
166
166
165
165
164
163
163
163
163
163
163
161
161
161
160
160
160
160
160
159
159
159
159
159
159
159
159
159
159
159
159
159
159
159
159
159
158
158
157
157
156
156
155
154
153
153
152
151
150
149
149
147
145
145
143
143
141
140
139
138
138
137
136
136
136
135
133
133
132
132
130
130
130
129
129
128
128
128
127
127
127
126
126
126
126
125
126
126
126
126
126
127
127
128
128
129
128
129
129
129
129
129
130
129
129
130
130
130
130
130
130
129
129
129
129
129
129
128
129
129
128
128
128
127
128
127
128
127
127
127
126
126
125
126
125
124
125
124
124
124
124
123
123
122
123
122
122
121
122
121
121
121
121
122
121
121
121
121
120
120
119
119
120
119
119
119
119
120
120
120
121
120
121
122
122
122
122
122
122
123
123
123
124
124
124
124
123
123
123
122
123
123
123
124
124
125
125
125
126
126
127
128
129
129
130
130
131
132
132
132
134
134
135
136
136
137
137
138
139
140
140
141
141
142
143
144
144
145
146
146
146
147
148
148
148
149
149
150
149
149
148
148
147
147
147
147
147
146
145
145
144
143
141
140
139
138
137
135
134
133
132
130
129
128
126
125
123
122
121
119
119
117
117
115
115
114
113
112
112
111
109
109
108
108
108
107
107
107
105
105
104
104
103
103
104
103
104
103
103
103
103
103
103
104
104
105
105
104
105
106
107
107
108
108
108
109
109
110
110
109
110
110
110
110
110
111
111
110
110
111
111
110
110
110
110
109
109
109
108
107
107
107
107
107
106
106
106
106
106
106
106
106
106
106
106
106
106
107
108
109
109
109
109
110
110
111
111
112
112
112
112
113
113
112
113
113
113
113
113
112
111
111
110
109
108
107
106
106
105
104
105
105
106
106
107
108
110
112
114
117
120
124
128
132
137
142
148
154
159
165
172
178
185
191
197
202
205
208
210
211
211
211
210
208
204
198
193
186
177
168
157
146
133
120
105
91
78
62
48
34
20
7
-5
-17
-28
-38
-48
-56
-63
-68
-74
-77
-81
-82
-84
-83
-81
-78
-75
-69
-64
-58
-50
-44
-36
-28
-20
-11
-4
5
14
22
30
39
47
55
62
69
76
82
88
94
98
102
107
110
113
116
119
121
123
125
126
128
128
129
130
131
131
132
131
132
132
132
132
133
133
132
132
131
132
132
133
132
133
133
134
134
134
135
136
136
136
136
136
137
137
137
138
138
138
139
138
138
139
138
138
137
136
136
136
137
137
137
138
138
138
138
138
138
138
140
140
141
143
143
144
145
145
145
146
145
146
146
147
146
146
145
145
145
144
144
144
144
144
144
143
144
144
144
145
144
145
145
145
146
146
147
147
147
148
148
147
148
148
149
148
148
148
149
149
149
150
150
150
150
151
150
151
152
152
153
153
154
155
156
157
157
157
158
158
159
160
161
161
162
163
163
164
164
165
165
166
166
167
168
168
168
168
168
168
169
169
168
168
168
168
168
168
168
168
168
168
168
168
169
169
170
170
170
171
171
172
173
173
173
174
174
175
175
175
175
175
175
175
175
175
175
176
176
176
176
176
177
176
176
177
177
178
178
178
178
179
179
178
178
178
178
177
177
177
176
176
175
175
175
175
174
173
172
172
171
171
171
170
170
169
168
168
167
166
165
165
164
164
163
164
163
163
162
161
162
160
160
159
159
157
157
156
155
155
154
153
152
151
150
148
147
147
146
146
144
144
144
144
144
143
143
143
142
143
143
143
144
145
144
145
145
144
144
144
145
145
144
144
144
143
143
143
142
142
141
140
140
140
139
138
137
137
136
136
135
135
134
133
133
132
132
131
131
131
131
131
131
130
130
130
130
131
130
130
131
131
131
131
131
131
131
132
132
132
133
133
134
134
134
133
134
134
134
133
134
134
134
134
135
135
135
135
134
135
135
135
135
135
135
135
135
135
135
136
135
136
136
136
136
137
137
136
137
137
137
137
137
138
137
137
137
137
137
137
136
136
136
136
136
135
134
133
132
132
132
132
131
131
131
131
131
130
130
130
130
130
130
130
130
130
131
130
130
130
130
131
130
131
130
131
131
131
130
131
131
132
133
133
134
136
137
138
138
140
141
142
143
144
145
146
147
147
148
148
148
148
148
148
148
147
148
148
148
148
147
146
146
147
145
146
145
144
143
143
142
142
141
140
139
138
137
135
135
133
132
131
130
128
127
126
125
124
123
123
121
121
120
119
118
118
117
116
115
116
115
114
114
114
114
113
113
114
114
114
114
115
115
115
116
116
117
118
117
118
118
119
119
120
120
121
121
121
122
121
122
121
121
120
121
121
121
121
121
120
120
120
118
119
119
119
118
118
117
117
117
117
117
117
116
116
115
116
116
115
116
115
115
115
114
115
114
114
114
113
113
113
113
113
113
113
114
114
114
113
114
114
113
114
113
114
113
114
114
114
114
114
114
114
113
114
113
113
112
112
111
111
110
110
110
110
110
110
110
110
111
112
113
114
115
117
118
121
124
128
131
136
140
144
148
152
158
163
168
173
177
180
183
184
185
185
184
183
180
177
174
168
161
154
144
136
125
113
101
88
75
60
47
33
20
7
-5
-17
-28
-38
-48
-57
-65
-71
-78
-82
-85
-88
-90
-92
-93
-92
-90
-88
-85
-81
-76
-72
-66
-60
-54
-47
-40
-33
-27
-19
-12
-3
5
12
20
28
35
41
48
54
60
65
70
75
78
82
85
87
89
91
93
93
95
95
96
96
97
96
96
96
96
95
96
95
95
94
94
93
94
93
92
93
92
92
92
91
91
91
91
91
91
91
91
90
90
90
89
89
89
89
88
88
88
88
87
88
87
87
86
87
86
86
87
88
88
87
88
88
89
89
90
91
91
92
93
94
94
94
96
96
97
97
96
97
98
98
98
98
99
99
99
99
99
99
99
99
99
100
99
99
100
100
100
100
101
100
101
101
100
101
101
102
101
102
102
102
102
101
102
101
101
101
101
102
102
102
102
101
101
101
101
102
102
102
102
103
103
104
104
105
105
105
106
106
107
107
107
108
107
108
108
108
108
109
109
109
109
109
110
110
110
111
111
112
112
112
114
114
115
116
116
117
118
118
119
120
121
121
122
123
123
125
125
126
126
126
126
127
127
127
127
126
127
126
126
126
126
126
126
126
125
125
125
124
125
125
125
124
124
124
124
124
124
124
124
124
124
124
124
124
124
124
124
124
124
124
124
123
123
122
122
121
121
120
119
119
118
117
117
116
115
115
115
114
114
112
112
112
111
111
111
109
109
108
106
106
106
105
105
104
103
103
102
101
100
99
98
97
97
96
96
95
95
94
94
94
93
93
92
92
92
92
91
91
90
89
89
88
88
87
87
86
86
84
84
83
83
82
82
81
80
80
80
79
79
79
77
77
77
77
77
76
76
75
75
76
75
75
75
75
75
75
75
75
74
74
74
74
74
74
74
74
75
74
73
74
73
73
73
74
74
75
75
75
75
75
75
76
76
77
77
77
77
77
78
78
77
77
78
77
78
78
78
77
77
77
77
77
76
75
75
75
75
75
75
75
75
74
73
73
73
73
72
71
71
71
70
70
69
69
68
67
67
67
67
66
65
65
64
65
64
65
65
65
65
65
66
66
67
67
68
70
70
71
72
72
73
75
75
77
78
79
80
82
82
82
84
85
85
86
87
87
88
88
88
88
88
89
89
88
89
89
90
91
91
92
92
93
93
94
94
95
95
95
96
97
96
97
97
96
96
95
94
93
92
90
90
89
88
86
85
84
83
81
80
79
78
78
76
75
75
74
73
72
71
71
69
69
68
67
67
66
66
65
64
63
63
62
61
61
61
60
60
61
61
60
60
60
59
59
58
58
58
57
56
56
55
54
54
53
53
52
51
50
50
49
49
49
48
48
48
48
48
47
47
46
46
46
47
46
46
47
47
48
49
50
51
52
54
55
57
58
60
64
66
69
72
76
79
82
86
90
93
97
100
103
104
105
104
101
98
94
89
84
78
70
62
52
42
30
18
5
-8
-22
-36
-51
-65
-79
-92
-105
-118
-129
-140
-150
-158
-166
-173
-178
-182
-186
-188
-190
-190
-190
-188
-186
-183
-177
-172
-166
-159
-150
-142
-134
-124
-115
-106
-96
-86
-76
-67
-57
-47
-38
-28
-21
-12
-4
3
9
16
22
27
30
35
39
42
46
48
50
52
54
54
55
56
57
58
58
59
60
60
60
60
61
60
61
61
62
62
62
63
62
62
63
63
63
63
64
64
64
65
64
64
64
64
65
64
65
65
65
66
65
66
67
66
66
67
67
69
69
70
70
70
71
71
72
73
73
73
73
73
74
74
74
74
75
75
75
75
75
74
75
75
75
75
75
75
75
75
75
75
76
76
76
76
76
77
77
77
79
79
80
80
81
81
82
83
83
84
84
86
86
86
87
87
87
87
87
87
87
87
87
87
86
87
86
87
87
87
87
88
89
90
90
91
91
93
94
95
96
98
99
101
102
103
104
106
107
108
109
110
110
111
112
112
113
114
115
115
115
117
117
118
119
119
120
120
121
122
123
124
124
124
126
126
127
128
128
128
128
129
129
129
130
129
130
130
129
130
130
130
130
130
130
130
130
130
130
130
130
129
129
130
129
129
129
129
129
129
129
128
128
127
127
127
128
128
127
127
127
127
127
127
127
127
126
126
126
126
125
126
125
124
124
123
123
121
121
119
118
118
117
117
116
116
114
113
112
111
111
110
110
108
107
107
106
105
105
104
104
102
101
100
98
97
95
93
91
91
89
87
86
84
83
82
81
80
80
79
78
78
78
77
77
78
78
79
79
80
80
81
81
81
82
82
82
82
82
82
82
82
81
81
81
80
79
79
78
78
77
78
77
76
76
75
75
75
74
74
74
72
71
71
71
71
70
70
70
69
69
69
70
70
71
70
71
71
71
71
72
73
73
74
74
75
75
74
74
74
74
75
74
75
74
74
73
74
73
73
73
73
72
71
70
70
69
69
68
68
67
67
67
67
67
67
67
66
66
67
67
67
67
68
69
69
70
71
71
71
72
72
73
72
72
72
72
72
71
71
71
71
69
69
69
69
67
68
68
67
67
67
66
66
66
65
66
66
66
65
66
66
66
66
65
65
65
65
66
65
65
66
66
66
67
67
67
67
67
68
69
68
68
69
68
68
67
67
68
67
67
67
66
66
65
65
64
64
63
63
64
63
63
62
63
63
63
63
63
63
64
64
65
65
66
67
67
69
69
70
71
72
72
73
73
74
74
76
75
76
76
77
77
76
76
76
76
75
75
76
76
76
77
77
77
78
78
78
80
81
83
83
85
86
87
88
88
89
90
90
90
90
91
90
91
90
90
90
89
88
88
86
86
85
84
83
82
82
80
80
79
78
77
76
75
74
73
72
71
70
68
67
66
65
64
63
61
61
59
59
57
57
56
56
55
54
54
53
53
53
52
52
52
51
52
51
51
51
52
51
52
51
51
51
51
52
52
52
52
53
54
54
54
54
54
55
55
55
56
56
56
57
57
57
56
57
57
57
56
55
55
56
56
56
56
56
55
55
55
55
54
53
53
53
53
53
52
52
53
52
51
51
51
51
50
50
50
50
50
51
50
51
51
51
50
51
51
52
52
53
53
53
53
53
53
53
54
54
55
55
55
55
55
55
55
54
55
55
54
54
54
55
57
58
59
60
62
63
66
69
72
75
80
83
88
92
97
102
109
115
123
130
137
145
152
159
164
169
173
176
177
179
180
179
178
175
170
165
157
148
138
127
115
102
88
72
57
41
25
10
-6
-21
-36
-50
-63
-75
-87
-97
-107
-115
-123
-129
-134
-137
-140
-141
-140
-140
-137
-133
-129
-123
-116
-109
-102
-93
-85
-77
-69
-60
-50
-41
-32
-23
-14
-5
3
11
19
25
31
38
43
48
52
57
61
64
67
69
72
74
76
78
78
80
80
81
81
82
82
83
83
83
83
82
82
82
83
82
82
82
82
82
82
82
82
82
82
82
82
81
82
81
81
80
81
81
82
82
82
83
83
82
83
83
84
84
84
84
84
84
85
84
85
85
84
84
84
85
85
85
85
86
87
88
88
88
89
89
91
91
92
94
95
96
96
97
98
98
99
99
99
99
100
100
100
101
101
101
102
102
102
102
101
102
103
103
103
103
102
102
102
102
103
103
104
104
104
105
105
105
106
106
107
108
109
109
109
110
110
111
111
112
112
112
113
114
114
114
114
114
113
114
114
114
114
114
115
115
115
115
115
115
115
116
116
116
116
116
117
117
118
118
118
118
118
118
119
118
118
118
118
119
119
120
119
119
119
119
119
119
119
119
119
119
119
119
120
119
119
118
118
118
119
118
118
118
118
117
118
118
118
119
119
119
119
119
119
119
118
118
117
117
117
116
116
115
115
114
112
112
111
110
109
109
108
108
109
109
108
109
109
110
111
111
111
112
113
113
114
115
116
116
116
117
116
116
116
115
113
113
112
112
110
110
109
108
107
106
107
107
106
106
106
106
105
105
105
106
105
106
105
106
105
105
105
104
103
103
102
102
102
100
100
98
98
98
96
96
95
95
95
94
94
94
93
93
93
92
92
91
91
91
90
90
88
88
88
88
88
88
87
88
88
87
87
87
87
87
86
86
86
85
85
85
85
85
84
84
84
84
82
83
82
83
83
81
81
81
80
80
80
81
80
80
80
80
80
79
79
79
78
78
79
78
78
79
78
78
79
78
78
78
78
79
80
80
80
80
80
80
80
81
81
81
82
82
82
82
82
82
82
81
82
81
81
80
79
79
79
78
78
78
77
78
77
78
77
77
77
76
76
77
77
77
77
78
78
78
78
78
79
78
79
79
79
79
80
81
81
81
82
83
82
82
83
84
84
84
85
85
85
86
87
87
87
88
88
89
89
89
89
90
90
91
92
92
92
94
94
94
94
94
95
95
96
96
96
96
97
98
98
99
98
98
98
97
96
96
96
96
95
94
93
93
92
91
90
89
87
86
84
83
82
81
80
78
77
75
73
72
70
70
69
68
68
67
67
67
67
66
66
66
66
65
65
65
65
65
65
65
64
64
65
65
65
66
65
67
67
68
69
70
70
71
71
71
72
73
74
74
74
74
74
75
74
74
74
73
72
71
70
70
69
67
67
67
67
66
66
66
67
66
65
66
65
66
65
66
66
65
65
65
65
65
65
66
66
66
65
66
65
64
64
64
64
64
65
64
64
63
63
64
64
64
64
64
64
64
64
63
64
63
64
63
63
64
65
65
65
66
67
66
68
68
67
68
68
68
69
70
70
71
72
73
75
77
78
80
82
85
87
90
95
100
105
111
117
123
130
137
144
151
157
162
168
172
174
177
178
179
178
177
175
171
165
158
150
140
129
117
105
92
78
63
48
34
19
4
-10
-23
-36
-48
-58
-69
-78
-86
-93
-99
-103
-107
-109
-111
-111
-109
-107
-105
-100
-95
-90
-84
-77
-70
-63
-55
-47
-39
-30
-22
-13
-5
3
11
19
26
33
41
48
54
60
66
71
76
79
83
87
89
92
94
97
98
99
101
101
102
102
102
102
102
102
102
102
102
101
102
101
101
100
100
100
100
100
100
100
100
100
101
100
101
100
100
100
101
101
101
101
102
102
102
102
102
102
102
104
104
103
103
104
104
105
105
105
106
106
106
106
106
105
105
106
106
106
106
107
107
107
107
108
107
107
108
108
108
109
109
109
109
109
110
110
110
111
111
111
111
111
111
111
112
112
112
113
113
114
115
115
114
115
115
114
114
115
115
114
115
115
115
114
115
115
115
115
115
115
116
117
117
118
119
119
120
121
120
121
121
122
122
123
124
124
125
126
126
126
127
127
127
127
128
128
129
129
129
130
129
130
130
130
131
131
131
131
131
132
132
132
134
135
135
136
136
136
137
138
139
139
140
141
141
141
141
142
142
143
142
142
142
142
142
142
142
142
142
141
142
142
142
141
141
141
141
141
141
140
140
139
139
138
138
137
136
134
133
132
130
129
128
127
125
124
122
122
121
120
119
118
118
118
117
118
118
118
119
120
120
121
122
124
124
125
126
126
127
128
128
128
127
127
127
126
126
125
124
123
122
121
119
118
117
115
114
113
112
111
110
109
109
108
108
108
108
108
107
108
108
108
109
108
108
108
107
107
107
106
106
105
106
105
104
105
105
104
104
103
103
103
102
103
102
102
102
102
101
101
100
100
100
99
99
98
97
97
97
95
95
95
94
93
92
91
90
89
89
88
88
87
87
87
88
87
87
88
87
88
88
89
89
89
90
90
91
91
92
91
92
92
93
93
93
93
92
92
91
91
92
92
92
92
93
93
94
93
94
94
95
96
96
97
98
99
99
101
100
101
101
101
102
102
103
104
104
104
104
104
104
104
103
103
103
103
101
101
101
101
100
100
100
99
99
98
98
97
97
97
97
96
96
96
96
96
95
95
94
94
93
92
92
92
91
90
90
89
88
89
87
87
85
84
83
82
81
80
79
78
76
75
75
75
74
73
72
73
72
71
71
72
73
74
75
77
78
80
81
83
85
87
88
90
93
94
95
97
99
100
101
102
102
103
104
104
105
105
105
106
106
106
106
106
106
106
106
106
105
105
104
104
103
103
103
103
103
102
102
102
102
102
102
101
101
101
100
100
100
99
100
100
100
99
98
98
98
97
95
96
95
94
93
92
91
90
89
88
87
86
85
83
83
81
80
79
79
77
76
76
75
74
74
74
73
74
75
74
74
74
74
75
74
75
76
76
76
78
79
79
80
79
80
80
81
81
82
83
82
82
82
82
82
82
82
82
82
82
81
81
80
79
78
78
77
76
76
75
76
76
76
75
74
74
74
75
75
74
75
74
75
74
75
75
75
74
74
74
75
75
75
75
75
75
74
74
73
73
73
72
73
72
73
73
73
73
73
73
74
74
75
75
75
76
76
77
78
78
78
78
77
77
76
76
75
74
73
72
71
70
70
70
69
70
69
70
71
72
74
76
80
83
87
92
97
103
109
115
121
128
135
143
150
158
165
170
175
179
183
185
186
186
186
185
183
179
173
166
158
150
140
129
119
107
94
81
68
55
41
28
16
4
-8
-19
-30
-40
-48
-56
-65
-71
-78
-82
-86
-90
-92
-93
-92
-91
-89
-85
-81
-76
-71
-65
-59
-52
-45
-37
-29
-21
-14
-6
3
10
18
26
32
39
46
52
57
62
67
71
75
78
81
84
86
89
90
92
93
94
95
96
97
96
97
97
97
97
97
97
97
97
96
96
95
96
96
96
95
95
96
96
96
96
96
96
96
96
96
97
97
97
97
97
99
99
99
99
99
99
99
99
99
98
98
98
98
98
98
98
98
98
97
98
97
97
97
96
97
96
97
97
97
97
98
98
99
99
99
100
99
99
100
99
99
100
99
100
101
100
100
101
101
102
102
102
102
102
103
104
104
105
105
105
105
105
106
106
106
106
107
107
108
108
109
109
109
110
110
110
109
109
109
109
109
110
110
111
111
111
112
112
111
111
111
111
111
110
110
110
111
111
112
113
113
113
113
114
113
114
114
115
116
117
118
118
118
120
120
120
121
120
121
122
122
123
123
123
124
124
124
123
123
123
123
123
123
123
122
123
123
122
122
122
123
123
123
123
124
124
125
125
125
125
125
126
125
126
126
126
126
126
126
125
125
125
123
122
122
121
120
119
119
118
116
115
114
113
113
112
112
111
110
110
109
109
108
108
109
109
109
109
110
110
110
110
110
109
109
108
107
107
106
106
105
105
104
102
101
101
100
100
98
98
98
97
97
96
96
96
96
96
96
97
97
97
96
96
97
97
96
96
95
95
95
95
94
93
92
92
91
90
90
89
87
86
85
85
84
83
82
81
81
80
79
78
78
78
77
77
76
75
75
74
74
74
74
74
74
74
72
72
71
72
71
71
70
70
69
68
68
67
66
65
64
65
63
63
61
61
60
59
58
58
57
56
55
56
56
56
56
55
55
55
55
55
55
55
55
55
55
54
55
55
55
56
56
56
55
56
56
55
56
56
56
56
56
56
57
57
56
56
57
57
57
56
56
56
55
55
55
54
54
54
53
53
52
52
52
50
49
49
48
48
48
48
47
46
46
46
46
46
46
45
45
46
46
45
45
45
46
46
46
46
45
46
46
46
47
47
48
48
48
49
48
49
49
49
50
49
50
50
51
50
51
51
51
51
51
52
52
51
51
51
50
50
50
49
48
48
48
48
47
46
47
46
46
46
45
45
46
45
45
45
46
46
46
45
46
46
45
46
45
45
45
45
44
44
43
42
41
40
39
38
37
36
35
34
32
32
30
31
29
29
28
27
27
26
26
25
24
24
24
24
24
25
24
24
24
24
24
24
23
24
24
24
24
24
24
24
25
25
26
25
25
26
26
26
26
26
26
26
26
26
26
26
26
26
26
25
26
25
25
24
24
24
24
23
24
23
23
24
24
24
23
23
23
23
22
22
21
22
21
21
20
20
20
21
20
19
19
19
18
18
18
18
19
18
18
18
18
18
18
17
17
18
18
18
18
17
17
17
16
16
15
15
15
15
15
15
14
15
15
15
14
14
14
13
13
14
16
17
17
19
20
21
22
23
26
28
32
36
40
43
48
53
58
63
70
76
82
90
96
103
109
113
117
121
122
123
124
124
124
120
116
111
104
97
88
78
67
54
42
27
13
-1
-15
-30
-43
-57
-71
-84
-97
-108
-119
-127
-136
-144
-151
-156
-162
-165
-168
-169
-170
-169
-166
-164
-159
-153
-148
-141
-134
-127
-119
-110
-102
-92
-84
-76
-67
-59
-51
-44
-36
-29
-23
-17
-10
-5
0
5
8
12
15
16
19
21
23
24
25
26
28
29
28
29
29
29
30
30
30
30
31
29
29
30
29
29
29
29
30
29
29
30
29
30
29
30
30
29
28
29
29
29
29
29
29
30
30
29
29
30
31
30
30
31
31
32
33
33
33
33
34
35
34
35
35
35
35
35
35
36
36
37
37
37
38
38
38
39
38
39
39
39
40
40
40
40
40
40
40
40
40
39
40
40
40
40
40
40
40
40
40
40
40
40
41
41
41
42
42
42
42
42
43
42
43
44
44
43
43
43
43
43
44
45
45
45
45
44
45
45
45
46
46
47
48
48
49
49
49
48
49
49
49
50
50
51
51
52
52
52
53
53
54
55
54
55
56
56
57
57
58
59
59
60
60
61
60
61
61
62
61
62
62
63
63
63
63
63
63
63
62
63
62
62
62
62
61
61
61
60
60
59
60
60
60
59
59
59
59
59
60
59
60
60
60
60
61
61
61
61
62
61
62
62
61
62
62
61
61
62
61
61
60
60
59
60
58
58
58
56
56
55
55
55
54
54
54
53
53
53
53
51
51
51
50
51
50
49
49
48
47
47
45
44
44
43
41
41
40
38
37
36
34
33
33
31
31
30
29
29
28
27
26
25
24
23
23
22
22
21
20
19
18
18
17
17
17
16
16
16
15
14
15
14
14
14
13
13
14
13
13
14
14
14
14
13
13
14
13
13
13
12
12
12
11
11
10
10
9
9
10
9
10
10
9
9
9
9
9
9
9
8
8
7
8
9
8
9
9
8
9
8
8
8
8
8
8
8
8
7
7
6
7
5
5
6
5
6
6
6
5
5
5
5
5
6
6
7
8
8
9
10
10
9
9
9
9
9
9
8
8
9
8
7
7
5
5
5
5
5
4
4
4
3
3
3
2
3
3
3
2
2
3
3
3
2
3
3
3
3
4
3
3
4
3
4
3
3
4
4
4
4
4
3
3
3
4
3
3
2
2
2
2
2
2
2
1
1
1
1
0
1
1
1
1
1
2
2
3
2
4
4
5
5
6
6
7
8
8
9
9
10
11
11
12
12
13
13
14
14
14
14
14
15
15
15
15
15
15
16
16
16
17
17
17
16
17
17
17
17
17
16
17
16
16
16
16
15
13
12
11
10
8
7
6
4
2
0
-1
-3
-4
-6
-8
-9
-11
-12
-13
-13
-15
-16
-16
-17
-18
-18
-19
-19
-19
-20
-20
-21
-22
-22
-22
-22
-22
-22
-22
-23
-22
-22
-21
-21
-20
-20
-19
-19
-18
-18
-17
-17
-15
-15
-14
-14
-13
-13
-13
-13
-13
-13
-13
-13
-13
-13
-13
-13
-13
-13
-13
-13
-13
-14
-14
-15
-15
-15
-15
-15
-15
-15
-16
-16
-16
-16
-17
-17
-18
-19
-18
-19
-19
-18
-18
-18
-18
-18
-18
-18
-19
-18
-19
-18
-18
-18
-17
-17
-17
-17
-16
-17
-17
-16
-17
-16
-16
-16
-16
-16
-16
-16
-16
-16
-16
-16
-16
-16
-16
-17
-18
-18
-19
-20
-20
-21
-22
-22
-22
-22
-21
-21
-20
-18
-17
-15
-13
-11
-9
-6
-4
0
4
9
14
20
26
33
39
46
53
59
65
70
76
80
85
88
90
93
94
94
93
91
86
80
73
65
55
44
32
18
5
-10
-25
-41
-57
-72
-88
-102
-117
-129
-142
-154
-164
-175
-183
-190
-198
-203
-207
-210
-212
-212
-211
-208
-205
-201
-196
-190
-184
-176
-169
-160
-152
-143
-135
-125
-116
-107
-98
-90
-81
-73
-64
-57
-49
-42
-36
-32
-26
-22
-18
-14
-11
-9
-8
-6
-4
-3
-1
-1
0
1
0
1
1
1
1
1
1
2
3
3
3
4
5
4
5
5
4
5
4
5
4
4
3
3
2
1
1
1
-1
-1
-1
-1
0
1
1
2
2
3
3
4
5
5
7
8
9
9
10
9
10
10
10
10
9
9
8
7
7
7
7
7
7
7
8
8
8
8
8
9
9
10
11
12
12
13
14
14
15
15
16
16
16
17
16
16
16
15
16
15
15
15
14
14
14
14
14
14
14
14
14
15
15
16
16
16
17
17
19
20
20
21
21
22
22
23
22
23
23
23
23
24
24
24
24
24
24
24
23
23
22
22
21
21
22
21
21
22
22
22
23
23
24
24
25
25
27
26
27
28
29
29
30
31
32
33
34
35
35
36
36
36
36
36
36
37
37
37
37
37
38
38
37
38
37
37
37
37
37
36
36
36
36
36
35
36
36
36
35
35
36
35
36
35
36
35
36
36
36
36
36
37
37
37
37
37
37
36
37
36
36
36
35
35
34
34
34
34
33
33
33
33
32
33
33
32
32
32
31
31
31
30
30
30
30
30
30
29
28
27
27
26
25
24
24
23
22
22
21
20
19
18
18
18
18
17
16
16
16
15
15
14
14
13
12
12
12
11
11
10
9
9
8
7
6
5
4
3
2
1
0
0
-1
-1
-2
-2
-3
-3
-4
-4
-5
-5
-5
-5
-5
-6
-5
-5
-5
-4
-4
-4
-3
-4
-3
-2
-2
-2
-3
-2
-1
-1
-1
0
-1
0
-1
0
0
0
0
-1
-2
-2
-2
-3
-3
-4
-4
-4
-4
-5
-6
-5
-5
-5
-5
-5
-5
-4
-4
-4
-4
-3
-3
-3
-3
-3
-2
-2
-2
-1
-1
-1
-1
-2
-2
-1
-1
-1
0
0
0
0
0
-1
-1
-1
0
0
0
0
0
0
1
1
0
0
0
0
-1
-1
-2
-2
-3
-3
-3
-2
-3
-3
-3
-4
-4
-6
-7
-6
-7
-7
-7
-7
-8
-9
-9
-9
-9
-9
-9
-10
-9
-9
-10
-9
-9
-8
-7
-8
-6
-7
-6
-7
-6
-6
-5
-5
-5
-5
-4
-5
-4
-4
-4
-4
-4
-3
-4
-3
-3
-3
-3
-3
-2
-2
-2
-2
-2
-1
-1
0
0
1
0
2
2
3
4
4
4
5
6
6
7
8
9
8
9
9
10
9
9
9
8
8
7
7
5
4
4
2
2
0
0
-1
-2
-3
-4
-6
-6
-8
-8
-9
-10
-11
-11
-12
-13
-13
-14
-14
-15
-16
-16
-16
-18
-18
-19
-20
-20
-20
-21
-21
-22
-23
-23
-23
-24
-24
-24
-24
-24
-23
-23
-23
-23
-23
-23
-23
-22
-23
-22
-21
-21
-20
-20
-20
-21
-21
-21
-21
-21
-20
-21
-21
-21
-21
-22
-21
-22
-22
-22
-22
-22
-21
-21
-21
-22
-22
-21
-22
-21
-21
-20
-21
-21
-21
-20
-20
-20
-20
-19
-19
-20
-20
-20
-20
-20
-20
-20
-19
-19
-19
-19
-19
-20
-19
-19
-19
-18
-19
-19
-18
-18
-18
-18
-17
-17
-17
-17
-18
-19
-19
-19
-20
-19
-20
-20
-21
-21
-22
-23
-23
-24
-24
-25
-24
-24
-25
-24
-23
-23
-22
-21
-19
-17
-15
-13
-11
-8
-5
-1
4
8
13
17
23
28
35
40
46
52
59
64
69
73
76
79
81
82
83
82
80
77
73
67
59
51
42
31
21
8
-5
-19
-33
-47
-62
-76
-90
-105
-118
-130
-141
-151
-161
-169
-178
-185
-192
-197
-200
-204
-206
-207
-206
-204
-201
-197
-193
-188
-181
-174
-168
-161
-154
-146
-138
-130
-122
-114
-105
-97
-89
-81
-73
-66
-59
-52
-46
-39
-35
-29
-24
-19
-16
-12
-9
-7
-5
-3
-2
-1
0
0
1
1
2
3
4
4
4
4
4
4
4
5
4
5
5
6
6
7
6
7
7
7
8
7
7
7
6
6
6
6
6
6
5
6
6
6
7
7
7
7
7
8
8
8
8
8
9
9
9
9
10
9
9
9
9
8
8
8
8
8
8
7
7
7
7
7
6
6
6
6
7
6
7
6
6
7
7
7
7
7
7
8
9
10
10
11
11
12
13
13
14
15
16
17
18
19
19
20
21
20
21
22
22
22
23
24
23
24
24
24
24
24
24
24
25
25
26
26
27
27
27
28
29
28
29
29
29
29
29
28
29
28
28
28
28
27
27
27
27
27
27
27
27
28
28
29
30
30
31
32
33
34
35
36
37
38
39
40
41
43
43
43
43
44
45
44
44
45
45
45
45
45
44
45
44
43
42
43
42
42
41
41
41
41
41
41
41
41
41
40
41
40
40
41
41
40
41
41
41
40
40
40
39
39
38
38
38
38
37
37
37
36
36
36
35
35
35
36
35
35
34
35
34
35
35
34
34
34
33
33
32
33
32
32
31
31
31
31
30
29
29
28
27
26
25
24
22
20
20
18
18
16
15
14
13
12
12
12
12
11
10
10
11
10
11
12
12
14
14
14
15
15
14
14
14
14
15
15
15
14
14
13
12
11
10
9
7
8
7
6
7
6
6
5
5
4
4
3
3
3
3
3
3
2
2
3
2
2
3
2
1
2
1
2
2
2
3
2
3
2
2
1
2
1
0
0
0
0
0
0
-1
0
-1
-1
-1
-1
-1
-1
-1
1
1
1
2
2
3
3
3
3
3
3
4
4
4
4
4
4
4
4
4
5
5
5
5
5
5
5
4
4
4
4
4
3
3
3
3
3
2
1
1
1
1
1
0
0
0
0
-1
-1
-1
-2
-2
-2
-1
-2
-2
-2
-3
-3
-3
-2
-3
-3
-2
-3
-2
-2
-2
-3
-2
-3
-3
-3
-3
-3
-3
-3
-2
-2
-2
-1
-2
-1
-2
-1
0
-1
0
0
0
1
1
2
2
3
4
4
6
6
7
8
10
11
12
12
14
15
16
18
20
21
22
22
23
24
24
24
24
25
24
24
25
24
24
24
23
23
23
21
20
19
17
16
15
13
12
10
11
9
9
8
7
6
5
5
4
4
4
3
4
3
3
2
3
3
2
1
1
0
-1
-2
-2
-3
-5
-5
-6
-7
-8
-8
-9
-9
-10
-11
-11
-11
-11
-11
-11
-12
-11
-11
-11
-10
-10
-10
-11
-10
-9
-9
-8
-8
-7
-6
-6
-5
-5
-5
-4
-4
-4
-4
-4
-4
-4
-4
-4
-5
-4
-5
-6
-7
-7
-7
-8
-9
-9
-10
-10
-11
-11
-11
-11
-11
-11
-10
-10
-10
-9
-9
-9
-9
-9
-9
-8
-9
-9
-9
-9
-9
-9
-10
-9
-10
-10
-10
-9
-10
-10
-9
-9
-8
-7
-6
-5
-5
-4
-3
-1
-1
0
0
0
0
-1
-1
-2
-3
-3
-3
-3
-4
-4
-5
-6
-6
-8
-9
-8
-8
-7
-6
-4
-2
0
2
5
8
11
14
17
20
25
30
35
41
47
52
59
65
73
79
86
91
95
99
102
104
106
106
106
104
102
98
93
86
79
70
60
49
37
24
11
-3
-16
-31
-44
-58
-72
-85
-97
-109
-119
-129
-137
-146
-153
-159
-165
-170
-174
-177
-178
-180
-179
-177
-175
-171
-167
-162
-158
-151
-144
-138
-131
-124
-116
-108
-101
-92
-84
-77
-69
-61
-52
-45
-38
-33
-27
-22
-17
-12
-8
-4
0
2
6
8
10
11
13
13
14
15
15
16
16
17
17
17
17
18
17
17
17
17
17
18
17
18
17
18
18
18
18
18
18
18
18
18
18
18
17
18
18
19
18
18
18
17
17
17
17
17
16
16
16
16
16
15
15
16
16
16
16
17
17
17
17
18
18
19
18
19
20
21
22
21
22
23
22
23
23
24
24
24
25
25
25
25
25
26
27
27
28
28
29
29
29
30
30
31
31
32
33
33
33
33
33
33
34
33
34
33
34
34
34
34
34
34
34
34
35
35
34
35
34
34
34
35
35
35
35
34
34
34
34
34
35
35
36
36
36
37
37
38
38
39
40
41
42
43
43
44
45
46
47
47
48
49
49
50
51
51
51
51
52
53
53
53
54
54
54
54
54
55
54
55
56
55
56
56
56
56
56
56
56
56
55
55
54
54
54
53
53
52
52
51
51
51
50
50
49
48
48
48
47
47
46
46
46
46
45
45
45
45
45
46
46
45
45
45
44
44
44
43
44
43
43
43
42
43
42
42
41
41
41
40
41
40
40
41
41
40
39
39
39
39
40
40
40
40
40
40
39
39
39
38
38
38
37
36
35
34
33
32
32
30
30
28
28
27
26
24
23
22
21
20
20
19
18
19
18
18
18
17
17
18
18
18
18
18
18
18
17
17
17
17
17
17
17
17
16
15
15
14
14
13
12
12
11
10
9
9
8
8
7
7
7
7
6
5
5
6
5
5
4
4
4
4
4
5
5
5
5
6
6
7
7
7
7
8
8
9
9
9
10
10
10
10
11
11
11
11
11
11
11
11
11
10
10
9
8
8
8
8
7
7
7
7
6
6
5
5
5
5
5
5
4
4
4
4
4
4
4
4
3
4
3
3
2
2
1
1
1
1
1
0
0
-1
-2
-2
-2
-2
-1
-1
-1
-1
0
0
0
0
0
0
1
2
3
3
4
4
4
4
5
5
6
7
7
7
8
8
9
9
10
10
11
11
12
13
12
13
13
14
15
15
16
16
16
16
17
17
17
17
18
18
18
19
19
20
20
20
20
21
21
21
21
21
21
21
21
21
20
19
18
17
17
16
15
14
13
13
11
10
9
8
7
5
4
3
2
2
1
1
-1
-1
-1
-3
-4
-4
-5
-6
-7
-6
-7
-7
-8
-9
-8
-9
-10
-10
-10
-10
-11
-11
-11
-11
-11
-11
-11
-10
-10
-11
-10
-10
-10
-9
-9
-9
-9
-9
-10
-10
-10
-10
-10
-11
-11
-12
-13
-14
-14
-15
-15
-15
-16
-16
-16
-16
-16
-16
-15
-15
-15
-14
-14
-13
-13
-13
-12
-12
-11
-11
-11
-10
-11
-11
-11
-10
-10
-10
-10
-10
-11
-12
-12
-12
-12
-12
-11
-12
-13
-13
-12
-12
-13
-13
-13
-13
-12
-12
-12
-12
-11
-11
-11
-10
-10
-10
-9
-10
-8
-8
-7
-8
-7
-7
-8
-8
-8
-9
-9
-9
-9
-9
-10
-10
-10
-10
-8
-7
-6
-5
-3
-1
2
5
8
12
16
21
26
31
37
42
48
54
61
67
72
76
80
82
84
85
87
87
86
84
80
75
69
62
53
45
34
23
11
-2
-16
-29
-43
-58
-71
-85
-98
-109
-120
-131
-141
-151
-159
-167
-173
-179
-184
-187
-190
-191
-191
-190
-188
-186
-183
-178
-173
-167
-162
-155
-148
-142
-134
-127
-119
-111
-104
-96
-87
-80
-72
-65
-58
-51
-45
-39
-33
-27
-22
-18
-14
-10
-7
-5
-2
-1
1
2
3
4
5
5
6
6
5
5
6
5
5
5
5
4
4
4
4
3
4
4
4
5
5
5
5
5
6
6
6
6
6
6
6
7
7
7
7
7
8
7
8
7
8
7
7
7
7
7
8
8
9
8
8
8
9
9
8
9
9
9
10
9
10
10
10
10
11
11
12
13
13
13
14
14
15
15
15
15
16
15
16
17
17
18
18
19
19
20
20
20
20
20
21
21
21
21
20
20
21
21
20
20
20
21
21
20
21
21
21
20
20
20
20
20
20
20
20
20
20
20
20
20
19
19
20
20
20
19
19
19
19
21
21
21
21
23
22
23
23
23
24
25
25
26
27
27
28
29
29
29
30
30
31
31
32
32
33
33
34
35
34
35
35
36
36
36
37
37
38
38
38
38
38
38
37
38
38
38
38
37
37
37
37
37
37
37
37
38
38
37
38
38
38
39
38
39
40
39
39
40
40
41
40
41
40
40
40
40
39
39
38
38
38
36
36
36
35
35
34
33
33
32
31
31
31
31
30
30
29
28
27
27
27
27
26
26
25
25
25
25
24
23
22
21
20
20
19
19
18
18
17
16
16
14
14
13
12
12
11
11
10
10
10
9
9
9
8
8
7
7
7
7
6
6
6
5
4
4
3
2
1
1
0
-1
-1
-2
-3
-4
-4
-6
-6
-8
-8
-8
-9
-9
-10
-11
-11
-11
-12
-12
-12
-12
-12
-13
-12
-12
-12
-13
-13
-14
-14
-15
-15
-15
-15
-15
-16
-17
-17
-18
-18
-19
-19
-20
-19
-20
-20
-20
-20
-20
-20
-20
-21
-21
-20
-21
-21
-20
-20
-20
-18
-18
-18
-17
-17
-17
-18
-16
-16
-16
-16
-16
-16
-16
-16
-15
-15
-16
-16
-17
-18
-18
-18
-18
-19
-18
-18
-19
-19
-19
-18
-19
-20
-20
-20
-20
-19
-19
-19
-19
-19
-18
-19
-19
-19
-20
-20
-21
-21
-21
-22
-21
-22
-21
-22
-22
-23
-22
-23
-22
-23
-23
-23
-22
-22
-22
-22
-22
-21
-20
-20
-19
-19
-19
-19
-18
-18
-18
-17
-16
-16
-15
-15
-14
-14
-14
-14
-12
-12
-11
-11
-10
-10
-9
-10
-9
-10
-9
-9
-9
-9
-8
-8
-7
-7
-7
-7
-7
-7
-7
-6
-6
-6
-5
-5
-4
-4
-4
-3
-3
-3
-3
-3
-3
-4
-4
-4
-4
-5
-5
-6
-7
-7
-9
-10
-11
-12
-13
-13
-14
-15
-16
-18
-19
-20
-21
-22
-23
-24
-24
-24
-25
-26
-28
-28
-29
-30
-31
-32
-32
-33
-34
-35
-35
-36
-37
-37
-38
-38
-39
-39
-40
-40
-41
-41
-41
-40
-41
-40
-39
-39
-38
-36
-36
-35
-35
-34
-34
-33
-32
-32
-31
-31
-30
-31
-31
-31
-31
-32
-32
-33
-33
-34
-35
-37
-38
-38
-39
-39
-40
-40
-40
-39
-39
-39
-39
-40
-39
-38
-37
-36
-36
-36
-35
-35
-34
-33
-33
-33
-32
-32
-32
-32
-32
-33
-33
-32
-33
-33
-34
-33
-34
-34
-35
-34
-36
-35
-36
-36
-36
-37
-37
-36
-37
-37
-38
-38
-38
-38
-39
-38
-38
-38
-38
-38
-37
-37
-37
-37
-37
-37
-37
-37
-36
-36
-35
-34
-32
-31
-29
-27
-25
-23
-20
-17
-12
-8
-3
1
7
12
18
25
32
38
46
52
56
60
63
67
69
70
71
71
70
68
64
59
52
45
36
26
15
4
-9
-23
-36
-51
-65
-80
-95
-108
-122
-135
-149
-160
-172
-183
-192
-200
-208
-215
-221
-225
-228
-230
-231
-231
-229
-227
-223
-219
-213
-208
-201
-193
-186
-179
-172
-163
-155
-146
-138
-130
-121
-112
-105
-96
-89
-82
-75
-69
-63
-58
-52
-47
-43
-39
-36
-32
-30
-28
-25
-24
-23
-21
-21
-19
-19
-18
-18
-18
-18
-18
-17
-17
-17
-17
-17
-17
-16
-16
-16
-16
-17
-17
-17
-17
-17
-17
-17
-17
-17
-17
-16
-17
-17
-17
-17
-17
-17
-17
-16
-16
-15
-15
-15
-14
-14
-13
-13
-11
-11
-11
-11
-9
-9
-9
-8
-8
-8
-8
-8
-7
-6
-6
-6
-7
-6
-6
-6
-7
-6
-6
-6
-5
-5
-5
-4
-4
-4
-4
-4
-2
-2
-2
-1
0
0
0
2
2
2
3
4
4
4
5
5
6
6
6
6
6
6
6
6
6
6
5
5
4
4
4
4
4
4
4
4
4
5
5
5
5
6
6
8
8
8
9
9
11
11
11
12
12
12
13
13
14
14
14
13
14
14
14
13
13
14
14
14
13
13
14
13
14
14
15
14
15
15
15
16
17
16
17
18
18
19
19
20
20
20
20
21
21
21
22
22
22
23
23
23
23
23
24
25
25
25
25
24
25
25
24
25
24
24
25
24
24
23
23
22
23
22
21
21
21
21
20
20
20
20
20
21
21
21
21
21
21
20
20
21
20
20
20
20
20
20
21
21
19
19
19
19
18
17
18
18
17
17
17
17
16
16
16
15
15
15
15
14
13
13
12
12
11
10
9
8
7
7
6
4
3
2
1
0
0
-2
-3
-4
-5
-6
-6
-7
-8
-9
-9
-10
-11
-11
-12
-13
-13
-14
-14
-14
-15
-15
-16
-16
-17
-17
-17
-18
-18
-19
-19
-20
-19
-20
-20
-20
-21
-20
-21
-21
-21
-21
-21
-21
-22
-22
-21
-21
-22
-22
-22
-22
-22
-22
-22
-23
-23
-23
-24
-24
-25
-25
-26
-26
-27
-26
-26
-26
-27
-27
-27
-27
-27
-27
-26
-26
-27
-26
-27
-26
-27
-26
-26
-27
-27
-27
-27
-28
-28
-28
-28
-28
-28
-27
-27
-28
-28
-27
-28
-27
-27
-26
-26
-25
-25
-25
-25
-25
-25
-25
-25
-24
-25
-25
-25
-25
-26
-26
-25
-26
-26
-26
-26
-26
-26
-27
-28
-28
-28
-28
-29
-28
-28
-28
-28
-28
-29
-29
-29
-29
-29
-29
-28
-28
-27
-27
-28
-27
-26
-27
-27
-26
-27
-27
-26
-25
-26
-25
-25
-25
-24
-24
-24
-23
-23
-23
-22
-22
-21
-21
-20
-19
-18
-17
-16
-16
-15
-14
-14
-14
-13
-12
-11
-11
-10
-10
-9
-9
-9
-9
-8
-8
-8
-8
-8
-7
-8
-8
-9
-9
-9
-10
-11
-11
-12
-13
-14
-15
-17
-18
-20
-21
-22
-24
-25
-27
-27
-28
-29
-30
-30
-31
-32
-33
-34
-33
-34
-35
-35
-35
-36
-37
-36
-37
-38
-39
-40
-41
-41
-42
-43
-44
-45
-46
-47
-47
-48
-48
-49
-49
-49
-48
-49
-48
-48
-48
-48
-47
-47
-47
-46
-45
-45
-44
-43
-44
-43
-43
-43
-42
-42
-41
-41
-41
-41
-40
-40
-41
-41
-41
-41
-41
-41
-41
-43
-42
-43
-44
-44
-44
-44
-44
-44
-44
-44
-44
-44
-45
-44
-45
-44
-44
-43
-43
-42
-42
-42
-42
-42
-42
-42
-42
-42
-42
-43
-43
-43
-43
-42
-42
-43
-42
-42
-42
-42
-41
-42
-41
-42
-42
-42
-41
-42
-42
-41
-42
-42
-42
-43
-44
-44
-45
-46
-47
-47
-47
-47
-47
-48
-48
-49
-48
-47
-47
-45
-44
-41
-39
-36
-32
-28
-22
-18
-13
-8
-2
5
11
19
26
33
39
45
50
53
56
58
60
60
60
58
55
52
48
41
32
23
13
1
-11
-24
-37
-51
-66
-80
-94
-109
-122
-135
-148
-160
-171
-182
-191
-200
-208
-215
-220
-225
-229
-231
-233
-233
-232
-231
-228
-224
-219
-214
-208
-202
-195
-189
-181
-174
-167
-159
-151
-143
-135
-127
-119
-111
-104
-97
-90
-84
-77
-71
-65
-60
-54
-51
-46
-42
-39
-36
-33
-31
-28
-27
-25
-24
-23
-22
-22
-22
-22
-22
-22
-22
-23
-23
-23
-23
-23
-23
-23
-23
-23
-24
-24
-25
-24
-24
-24
-25
-25
-25
-25
-24
-24
-23
-23
-23
-23
-23
-23
-22
-22
-22
-21
-21
-21
-20
-20
-20
-19
-19
-19
-19
-19
-20
-20
-19
-19
-19
-18
-18
-18
-18
-18
-18
-17
-17
-18
-17
-18
-17
-17
-17
-17
-17
-17
-17
-18
-19
-19
-19
-20
-20
-20
-20
-20
-21
-20
-20
-20
-21
-20
-19
-18
-18
-17
-17
-16
-15
-15
-14
-13
-12
-13
-12
-11
-10
-10
-9
-9
-8
-8
-7
-7
-7
-7
-7
-6
-6
-6
-6
-5
-5
-5
-6
-5
-6
-6
-6
-6
-5
-5
-5
-5
-5
-5
-5
-4
-4
-4
-4
-4
-2
-2
-1
-1
0
0
1
2
2
2
3
3
3
5
5
6
5
6
6
6
7
7
7
7
8
8
8
8
8
9
9
9
9
10
10
10
11
11
11
12
12
12
12
13
13
13
13
13
13
13
12
12
12
12
11
11
10
10
10
9
9
9
9
8
8
8
7
7
7
7
6
5
6
5
4
4
4
5
5
4
4
4
4
4
4
3
4
4
4
3
3
3
3
2
2
1
0
0
-1
-2
-3
-3
-4
-5
-6
-7
-8
-9
-9
-10
-10
-11
-12
-13
-14
-15
-15
-15
-16
-16
-17
-17
-17
-19
-19
-19
-20
-19
-19
-20
-20
-20
-20
-21
-21
-22
-22
-22
-23
-24
-24
-25
-25
-27
-27
-28
-29
-29
-31
-32
-32
-33
-34
-34
-35
-36
-36
-36
-36
-37
-37
-36
-36
-35
-34
-34
-34
-34
-33
-34
-34
-34
-34
-34
-34
-34
-33
-34
-33
-33
-34
-34
-34
-35
-34
-35
-34
-35
-34
-33
-34
-33
-32
-32
-32
-31
-32
-31
-31
-31
-31
-30
-30
-29
-29
-30
-30
-30
-29
-29
-30
-29
-30
-29
-29
-30
-30
-29
-30
-30
-30
-29
-30
-29
-30
-30
-31
-32
-31
-31
-32
-32
-33
-33
-32
-33
-33
-34
-33
-34
-34
-35
-35
-35
-36
-36
-37
-37
-37
-37
-37
-38
-38
-38
-39
-39
-40
-39
-40
-40
-40
-41
-41
-41
-40
-40
-40
-40
-40
-40
-39
-39
-39
-39
-39
-38
-37
-37
-37
-37
-36
-36
-35
-34
-33
-33
-31
-31
-30
-29
-28
-27
-26
-24
-24
-23
-22
-21
-21
-21
-20
-20
-21
-21
-22
-22
-22
-22
-23
-23
-22
-23
-23
-24
-24
-24
-24
-24
-25
-25
-24
-24
-23
-23
-21
-21
-21
-21
-21
-21
-21
-21
-21
-21
-22
-22
-22
-23
-24
-25
-27
-27
-28
-30
-31
-33
-35
-36
-37
-38
-41
-42
-43
-43
-45
-46
-46
-46
-47
-48
-48
-48
-49
-49
-48
-48
-48
-48
-48
-48
-48
-47
-48
-48
-48
-49
-48
-48
-47
-48
-47
-47
-46
-46
-46
-45
-44
-45
-44
-44
-43
-42
-41
-41
-41
-41
-40
-41
-41
-41
-41
-41
-42
-41
-42
-43
-43
-44
-44
-44
-44
-45
-45
-46
-46
-46
-46
-47
-47
-47
-47
-46
-46
-46
-45
-46
-46
-45
-46
-46
-45
-45
-45
-44
-44
-44
-44
-44
-44
-44
-44
-44
-44
-44
-43
-44
-43
-44
-43
-43
-42
-42
-42
-42
-43
-42
-42
-42
-42
-42
-42
-41
-41
-42
-42
-42
-42
-42
-43
-43
-44
-44
-45
-45
-46
-46
-45
-45
-45
-44
-43
-41
-40
-39
-37
-35
-32
-29
-25
-21
-16
-10
-5
2
7
14
21
27
33
40
47
51
56
58
61
63
64
65
64
63
59
55
49
41
32
23
12
1
-11
-24
-37
-50
-64
-79
-92
-105
-118
-130
-141
-152
-162
-172
-180
-189
-196
-201
-206
-210
-214
-216
-217
-217
-216
-213
-209
-205
-200
-194
-188
-181
-174
-167
-160
-152
-144
-136
-128
-119
-111
-104
-96
-89
-82
-77
-71
-65
-61
-56
-51
-48
-44
-41
-39
-37
-35
-33
-32
-30
-28
-28
-26
-24
-23
-23
-21
-20
-20
-18
-18
-16
-16
-15
-14
-14
-14
-14
-13
-13
-13
-13
-13
-13
-13
-13
-13
-14
-14
-14
-14
-15
-15
-15
-14
-14
-14
-14
-13
-13
-13
-13
-12
-13
-13
-13
-13
-13
-13
-13
-13
-13
-13
-12
-13
-13
-13
-13
-13
-13
-13
-12
-12
-10
-10
-10
-9
-9
-8
-7
-6
-6
-6
-6
-4
-4
-4
-3
-2
-2
-1
-2
-2
-2
-2
-2
-3
-3
-4
-4
-5
-6
-6
-7
-8
-8
-8
-8
-8
-9
-8
-8
-9
-9
-8
-8
-7
-5
-5
-3
-3
-1
-1
0
1
2
3
5
5
7
8
9
10
10
10
11
11
11
12
12
12
13
12
13
13
14
13
13
13
13
14
15
16
16
16
17
17
17
17
17
17
18
18
18
18
19
18
18
19
19
18
18
19
18
18
18
18
18
18
19
19
19
19
19
20
20
20
20
21
21
21
20
20
20
21
21
22
21
21
21
21
21
22
21
21
21
21
21
20
20
20
19
18
19
19
18
20
19
19
19
20
20
20
19
19
19
20
20
20
20
20
20
20
20
18
18
18
18
17
17
17
16
15
16
15
15
15
15
14
14
12
12
12
13
12
12
12
11
11
11
11
10
10
8
8
7
7
6
5
4
4
2
2
2
1
1
0
-1
-2
-3
-4
-5
-5
-5
-6
-6
-8
-8
-9
-10
-10
-10
-10
-11
-10
-10
-10
-10
-10
-11
-11
-11
-11
-11
-11
-11
-11
-11
-11
-11
-11
-11
-11
-11
-11
-11
-12
-12
-13
-13
-13
-14
-14
-14
-15
-17
-18
-18
-19
-20
-21
-21
-21
-22
-22
-22
-22
-23
-23
-22
-22
-22
-22
-20
-20
-19
-19
-17
-18
-17
-17
-16
-16
-16
-15
-15
-14
-14
-14
-13
-14
-13
-13
-14
-13
-12
-12
-12
-12
-11
-11
-11
-12
-12
-12
-12
-12
-12
-12
-12
-12
-12
-13
-13
-14
-14
-15
-15
-14
-15
-15
-16
-17
-17
-17
-18
-19
-19
-19
-20
-20
-20
-20
-20
-19
-19
-19
-19
-20
-20
-19
-19
-18
-18
-18
-17
-17
-17
-16
-16
-15
-15
-14
-14
-13
-13
-13
-13
-14
-13
-13
-12
-12
-11
-10
-10
-10
-10
-9
-8
-8
-7
-6
-5
-4
-3
-2
-1
-1
1
2
2
2
3
3
4
4
4
4
4
4
3
3
2
2
1
0
-1
-2
-2
-4
-6
-7
-8
-10
-11
-13
-13
-15
-16
-18
-20
-21
-22
-23
-24
-24
-26
-27
-28
-29
-30
-31
-32
-33
-33
-34
-34
-35
-35
-36
-37
-37
-37
-38
-38
-38
-39
-39
-38
-37
-37
-37
-37
-37
-36
-36
-36
-35
-34
-34
-33
-33
-32
-32
-30
-29
-29
-28
-28
-27
-26
-25
-25
-24
-23
-23
-23
-22
-23
-23
-23
-23
-23
-23
-23
-24
-25
-25
-26
-27
-27
-28
-28
-29
-31
-31
-32
-33
-33
-34
-35
-35
-36
-36
-36
-36
-36
-36
-36
-36
-36
-35
-35
-35
-35
-34
-33
-33
-33
-34
-34
-34
-34
-34
-34
-34
-34
-34
-35
-35
-35
-35
-35
-35
-34
-34
-34
-34
-34
-33
-32
-31
-31
-30
-29
-29
-28
-28
-28
-28
-29
-28
-28
-28
-27
-27
-26
-26
-25
-24
-23
-22
-20
-18
-16
-12
-9
-5
-1
2
7
12
17
24
30
36
42
49
54
58
62
64
66
67
68
68
67
65
62
56
50
43
35
26
15
4
-8
-21
-34
-47
-61
-74
-87
-100
-113
-125
-136
-148
-157
-166
-175
-184
-190
-196
-202
-205
-209
-212
-212
-212
-211
-209
-206
-202
-197
-191
-185
-178
-172
-164
-157
-148
-141
-133
-124
-117
-108
-102
-94
-87
-80
-74
-69
-64
-59
-54
-51
-47
-44
-41
-38
-35
-33
-30
-28
-26
-24
-22
-21
-21
-19
-18
-16
-16
-14
-13
-12
-12
-12
-11
-11
-12
-11
-11
-12
-12
-13
-13
-13
-14
-14
-13
-14
-13
-13
-13
-13
-13
-12
-13
-12
-12
-12
-12
-11
-11
-11
-11
-11
-12
-11
-11
-12
-12
-12
-12
-12
-12
-12
-12
-12
-12
-12
-11
-10
-10
-10
-9
-8
-8
-8
-8
-6
-6
-6
-6
-5
-4
-4
-4
-4
-4
-4
-5
-4
-4
-4
-5
-5
-5
-5
-5
-6
-6
-6
-6
-5
-6
-5
-5
-5
-5
-5
-4
-4
-4
-3
-3
-1
-1
-1
-1
0
1
1
1
2
2
2
2
3
3
3
3
3
4
4
4
3
3
3
2
2
2
1
0
1
0
1
0
0
0
0
-1
-1
-1
0
0
1
1
1
2
2
3
4
4
5
6
7
8
9
10
12
12
14
14
14
15
15
16
17
17
17
17
17
18
17
18
17
17
17
18
17
17
17
16
16
16
16
15
16
15
15
15
15
15
15
15
16
16
16
16
15
16
16
16
15
15
16
16
16
16
17
16
16
15
15
15
15
14
14
13
13
12
12
11
10
10
9
9
8
8
7
6
5
5
5
4
4
4
3
3
3
2
3
3
3
2
2
2
1
1
1
0
0
0
-1
-1
-1
-2
-4
-5
-5
-7
-8
-9
-10
-12
-13
-15
-16
-18
-19
-20
-22
-22
-23
-24
-24
-25
-26
-26
-26
-26
-25
-26
-25
-25
-24
-23
-24
-23
-22
-22
-22
-22
-22
-22
-22
-23
-23
-24
-24
-25
-26
-26
-28
-28
-29
-30
-30
-31
-32
-32
-33
-34
-34
-35
-34
-35
-35
-35
-35
-35
-35
-35
-35
-36
-36
-36
-35
-35
-35
-35
-34
-35
-35
-34
-34
-34
-34
-33
-33
-32
-32
-32
-32
-32
-31
-31
-31
-31
-31
-31
-30
-31
-30
-30
-30
-29
-29
-29
-29
-29
-28
-29
-28
-28
-29
-29
-28
-29
-28
-27
-28
-28
-28
-29
-29
-28
-30
-30
-31
-31
-32
-32
-34
-35
-35
-35
-35
-36
-37
-37
-38
-38
-38
-38
-38
-38
-38
-38
-37
-37
-38
-37
-37
-37
-36
-35
-36
-35
-35
-35
-35
-35
-35
-35
-35
-34
-34
-35
-35
-35
-35
-35
-35
-35
-34
-35
-34
-34
-33
-34
-33
-33
-33
-33
-33
-33
-32
-31
-31
-31
-31
-30
-30
-30
-29
-29
-28
-28
-27
-27
-26
-25
-25
-24
-24
-24
-22
-22
-22
-22
-22
-21
-21
-22
-22
-22
-22
-22
-22
-22
-22
-24
-24
-25
-26
-27
-27
-28
-29
-30
-31
-31
-32
-34
-34
-35
-36
-37
-38
-39
-39
-41
-41
-42
-43
-44
-45
-45
-46
-47
-47
-48
-49
-50
-50
-52
-52
-53
-54
-54
-55
-55
-56
-56
-56
-57
-57
-56
-57
-57
-57
-56
-56
-55
-54
-54
-52
-51
-51
-51
-50
-48
-47
-46
-46
-45
-45
-45
-45
-45
-45
-44
-44
-44
-45
-45
-46
-46
-47
-48
-48
-49
-49
-49
-50
-50
-51
-51
-52
-52
-52
-53
-52
-53
-53
