# Simple Text Format
# Sampling Rate (Hz):= 1200.00
# Resolution:= 12
# Labels:= ECG	aVR
# Age:=	67
# Gender:=	Feminino
223
223
222
222
222
222
222
221
221
221
221
221
221
222
223
223
224
225
226
227
229
230
232
233
234
235
236
236
236
236
236
235
234
233
230
228
225
220
217
212
207
201
196
191
185
180
176
172
166
162
158
155
153
151
151
151
151
152
153
155
158
161
165
170
175
181
188
194
200
207
212
218
224
231
238
244
251
258
264
271
276
281
285
288
292
295
297
299
300
300
300
299
296
294
291
288
283
278
273
268
262
258
252
248
244
239
235
231
227
224
221
218
217
216
216
215
216
216
217
217
219
219
221
222
223
224
224
225
225
226
226
226
226
227
227
226
225
225
224
224
223
222
222
221
220
220
219
219
218
218
218
217
217
217
217
217
217
218
217
217
217
217
217
216
216
216
217
217
216
217
216
216
215
215
214
214
214
214
216
216
217
218
217
217
217
217
217
219
219
220
220
220
220
220
220
219
219
218
219
219
219
219
219
219
219
219
219
218
218
218
217
218
218
216
216
215
214
213
211
211
210
209
207
206
206
205
203
202
201
201
201
201
201
202
202
202
202
202
203
203
204
205
205
206
206
207
207
208
209
209
209
208
208
208
207
207
205
205
204
203
202
203
201
200
198
195
194
192
190
189
186
185
183
182
181
180
179
178
176
175
173
171
169
167
167
166
165
165
165
164
162
160
159
158
156
155
154
154
154
154
155
157
157
157
158
159
161
162
164
166
167
169
169
171
173
175
176
176
178
179
180
180
179
179
177
177
176
175
175
174
173
172
171
171
171
170
170
170
171
171
171
173
173
175
176
177
178
179
180
182
183
185
186
188
189
191
191
192
193
194
194
195
196
196
197
198
199
200
200
200
200
200
201
201
201
202
202
202
202
202
202
201
202
203
204
205
205
207
207
208
209
210
211
213
214
215
215
216
217
218
217
218
219
219
219
219
219
219
220
220
220
221
221
221
221
222
222
221
221
220
219
219
218
216
215
215
214
212
212
209
208
206
203
200
197
196
194
192
192
190
189
188
187
186
184
183
183
182
182
182
181
180
180
179
179
178
178
178
177
178
178
178
177
176
176
175
175
174
173
173
172
171
170
169
167
167
165
163
161
160
159
158
157
157
156
155
155
154
153
152
153
152
153
154
156
157
158
159
160
161
163
164
165
166
166
167
167
168
168
170
171
171
171
172
172
172
171
171
170
170
169
168
168
167
166
165
165
164
163
162
160
159
158
157
156
155
154
154
154
152
151
150
149
148
147
147
146
146
145
145
144
144
144
144
144
144
145
146
146
147
147
147
148
148
149
149
150
150
150
149
148
148
146
145
144
142
141
139
137
135
134
131
130
129
128
127
127
125
125
125
127
127
129
130
130
131
132
132
132
131
132
131
132
131
131
131
129
129
128
127
126
124
124
124
123
124
124
124
124
124
124
125
124
125
126
127
128
130
130
131
132
133
134
135
136
138
139
141
143
144
145
148
149
151
153
155
157
159
160
161
161
162
163
163
164
165
166
167
167
168
168
169
169
170
170
170
170
170
170
170
170
171
170
170
170
170
170
169
169
168
168
167
165
165
164
163
162
162
161
162
161
160
159
159
158
158
159
159
160
161
161
162
163
163
164
166
166
167
170
171
173
175
176
179
180
181
182
183
183
184
186
186
187
188
189
189
190
190
190
191
190
190
189
189
189
188
187
185
183
181
179
176
174
172
169
164
159
153
147
141
136
130
125
120
115
110
106
102
98
96
94
94
93
94
94
96
98
102
106
110
116
121
127
133
138
144
150
157
162
168
174
178
183
188
194
198
203
207
212
215
218
221
224
226
228
228
229
229
230
229
228
227
225
222
220
217
214
211
208
206
202
199
195
191
188
185
183
180
179
177
176
174
173
172
172
171
171
170
170
170
170
170
170
170
170
170
169
170
170
169
169
168
167
166
167
166
166
166
166
165
166
166
166
165
165
164
164
163
164
163
162
161
161
160
160
159
158
158
157
156
155
154
153
153
152
152
152
152
153
154
156
157
159
160
161
162
163
164
165
167
167
168
168
168
168
166
165
163
162
160
158
156
155
153
151
149
146
145
143
142
141
140
140
140
140
140
141
141
142
143
143
144
145
146
146
147
147
148
148
148
149
149
150
150
150
150
150
151
151
150
149
149
147
147
146
146
146
145
144
142
142
141
140
139
137
137
136
134
134
133
132
132
131
130
130
130
129
129
129
129
129
128
128
128
128
128
127
128
128
129
129
129
129
128
128
127
127
126
125
125
124
123
122
121
119
117
114
111
109
107
104
103
102
100
99
97
97
95
95
95
94
95
95
96
97
98
100
102
103
105
107
109
110
112
113
115
116
117
117
117
117
117
118
118
118
119
119
119
119
118
118
117
117
116
116
116
116
115
116
115
115
115
115
116
116
116
115
115
115
115
116
118
119
120
120
121
122
122
122
122
123
124
125
126
126
127
128
128
129
129
130
131
131
133
133
135
136
137
138
139
139
140
141
142
142
142
143
143
144
144
145
145
145
145
144
144
144
146
146
146
146
146
147
148
148
149
149
149
148
147
146
146
146
146
146
145
146
145
146
145
145
145
146
146
147
147
148
148
149
151
152
154
156
156
157
158
158
159
159
161
162
162
164
164
164
165
165
163
163
162
162
161
160
160
160
160
159
159
158
156
156
155
154
153
152
152
152
152
153
152
153
152
152
152
152
152
153
154
155
155
155
155
155
154
154
154
154
154
154
154
154
153
153
153
152
152
152
152
151
151
150
151
151
152
152
153
153
152
153
154
154
155
156
155
156
155
156
155
155
155
154
153
153
152
150
149
147
146
144
144
142
141
140
138
137
135
134
132
132
131
131
130
130
129
129
129
129
128
128
128
128
128
128
128
128
128
128
128
128
128
128
128
128
129
129
128
128
128
128
128
128
127
128
128
128
127
127
126
125
124
123
123
123
123
123
122
122
122
121
122
122
123
124
125
125
125
126
125
125
125
125
124
125
125
126
126
126
125
124
123
122
121
120
120
120
121
122
123
124
124
126
127
129
130
132
134
136
138
140
142
144
146
147
148
149
149
150
151
151
152
154
154
155
155
156
155
155
155
155
156
156
156
156
158
158
158
158
159
158
158
158
159
159
159
158
158
158
157
158
157
158
158
159
160
160
161
161
162
163
162
163
165
165
166
167
168
170
170
171
172
173
174
174
174
174
175
175
174
175
175
175
175
175
175
174
173
173
173
172
172
172
171
172
172
172
171
171
170
171
170
169
169
168
165
164
161
156
152
146
141
137
132
127
123
119
115
110
105
101
96
93
91
89
88
88
89
91
93
97
101
105
109
115
120
126
131
138
143
149
155
162
168
175
180
186
192
196
202
208
212
217
221
225
227
229
231
233
233
234
233
233
232
230
229
226
223
219
215
211
206
202
197
193
189
186
182
179
177
175
172
170
168
167
165
164
163
162
161
162
162
162
163
164
164
164
165
165
164
164
164
165
165
165
165
166
166
166
166
166
166
166
166
166
166
167
167
166
167
167
168
168
168
168
169
169
169
170
171
171
171
172
173
173
174
174
175
175
175
175
175
176
175
175
174
174
173
172
170
170
169
168
168
168
167
166
164
163
162
161
160
159
158
158
158
158
157
157
157
155
154
154
153
153
153
153
153
152
152
151
150
149
149
149
149
148
148
147
147
146
146
145
145
145
144
144
145
146
146
147
148
148
147
147
148
147
148
148
147
147
148
148
147
147
147
146
146
145
145
144
144
143
143
143
143
143
142
142
141
140
139
137
136
135
134
133
133
131
130
129
128
127
125
124
123
122
121
120
119
119
118
118
118
118
117
117
116
116
116
116
116
116
116
117
118
119
120
121
122
123
124
124
124
125
125
126
126
127
127
127
127
127
126
125
124
122
120
119
118
117
118
117
117
117
116
116
115
114
114
114
115
116
118
119
119
120
119
120
120
120
121
121
122
123
123
125
125
126
127
127
129
130
130
131
131
131
132
132
132
132
134
134
134
135
135
135
135
134
134
134
134
134
135
135
137
137
138
138
140
141
142
143
144
144
146
146
147
147
147
148
148
149
149
149
150
150
151
150
150
150
151
150
151
151
151
151
151
150
151
151
151
151
151
151
150
151
151
151
152
152
151
151
152
153
153
154
155
156
156
157
159
160
161
162
163
163
164
164
164
163
163
163
163
163
163
163
163
163
162
162
161
161
160
160
160
160
162
162
163
163
163
164
164
165
166
167
167
167
167
167
168
168
168
168
168
168
168
168
169
169
168
168
168
168
169
169
170
170
171
172
173
174
174
175
175
176
177
177
177
177
178
179
179
179
179
178
177
175
174
172
171
170
169
168
167
165
164
162
160
159
158
157
157
156
155
154
154
153
152
151
151
150
148
149
148
148
148
147
145
145
144
143
142
140
140
139
138
138
138
138
138
139
138
138
138
138
137
137
136
136
137
137
138
139
139
138
137
136
136
135
134
133
133
133
133
132
132
132
133
132
133
133
134
134
134
135
135
134
134
134
133
132
131
130
129
128
127
126
125
123
120
119
117
116
115
114
115
114
115
116
117
118
119
121
123
125
127
129
131
134
136
139
142
144
147
149
151
153
155
156
158
160
161
164
165
166
167
167
167
167
166
166
166
166
166
166
167
167
167
168
168
167
167
167
167
167
166
167
167
168
169
168
168
169
168
168
167
167
166
166
165
165
164
163
164
164
162
163
163
163
163
163
163
163
164
165
165
166
167
168
169
171
171
172
172
173
174
174
174
175
176
177
178
179
179
179
179
178
179
178
176
175
175
174
174
174
173
173
172
173
173
172
173
172
173
173
173
173
174
174
174
175
175
174
173
172
170
168
165
162
157
153
147
143
138
133
128
123
119
114
109
105
100
96
94
91
90
89
89
89
90
92
93
96
100
103
107
112
117
123
129
135
142
148
155
162
169
174
182
188
195
203
211
217
223
228
233
237
241
244
246
247
247
248
248
248
246
244
241
238
235
231
227
223
218
213
208
204
200
196
192
187
183
179
176
173
170
168
166
164
162
160
159
157
157
157
157
158
159
160
160
160
161
162
163
165
166
168
169
170
171
172
173
173
174
174
175
175
175
174
174
173
173
172
172
172
171
171
170
169
168
167
167
166
165
164
164
163
162
162
161
160
159
158
157
157
155
155
155
154
153
153
151
150
150
149
148
148
147
147
147
147
147
147
147
148
148
148
148
148
147
147
146
146
147
147
147
147
148
148
148
148
148
148
148
147
147
148
148
149
148
149
148
149
148
148
148
149
148
148
148
148
148
147
146
146
146
146
145
145
144
144
144
144
143
143
142
142
141
141
140
140
139
138
137
137
136
136
135
135
136
136
136
136
137
136
137
137
139
139
140
139
139
139
139
139
139
138
138
137
137
137
136
134
134
132
131
130
130
129
129
128
127
126
125
125
125
125
124
125
125
125
125
125
124
124
123
123
122
122
121
121
120
120
120
120
119
119
117
117
117
116
115
115
114
115
114
115
114
114
115
114
114
114
114
115
115
114
115
114
114
114
115
115
115
116
116
115
114
114
114
114
112
112
112
113
113
112
113
113
112
112
113
113
114
115
115
116
118
119
120
121
122
123
125
127
128
129
130
132
133
133
135
136
136
137
138
139
139
140
141
141
143
143
144
144
144
145
144
145
145
146
147
148
150
151
152
154
156
157
158
159
160
161
164
165
167
169
170
171
172
171
172
172
172
172
172
172
171
171
169
168
167
166
165
164
163
162
162
161
161
160
160
159
160
160
161
161
163
164
165
166
166
167
167
167
167
168
168
169
170
170
170
170
169
170
170
169
170
170
171
171
171
170
170
169
169
170
170
170
171
171
172
172
171
171
171
171
170
169
169
168
167
168
167
167
166
164
163
162
161
160
160
159
157
156
157
155
155
155
155
155
155
155
156
156
157
158
158
159
158
158
158
157
156
155
154
155
154
153
151
149
147
146
144
143
141
140
139
138
137
137
136
135
135
134
134
134
134
134
135
136
136
136
135
135
135
134
134
134
133
133
133
133
134
134
134
134
133
133
134
134
133
133
133
134
135
135
135
136
135
136
136
136
135
135
135
134
134
135
135
135
134
134
134
133
133
133
132
132
131
132
131
132
131
132
133
133
134
133
134
134
135
135
136
138
138
139
139
140
140
140
140
139
137
136
135
133
132
130
129
128
127
126
125
125
125
125
125
125
125
126
127
129
131
134
137
140
142
145
148
149
152
154
157
158
160
162
164
165
166
167
167
167
167
167
167
167
167
167
168
167
168
167
167
167
166
166
166
166
167
167
167
168
168
167
166
166
166
165
165
164
163
163
162
163
162
161
161
161
161
161
162
161
161
162
162
164
164
165
166
167
166
166
167
167
167
167
168
169
169
170
169
168
168
167
166
166
166
166
166
166
165
165
164
164
164
164
162
161
159
158
155
153
149
145
141
136
130
125
119
113
109
103
99
94
89
86
82
80
78
78
77
77
79
81
84
88
92
97
102
108
115
122
129
136
142
150
156
164
170
177
184
190
197
203
208
215
220
224
227
231
233
235
236
236
237
236
235
234
232
230
228
226
223
220
217
214
211
208
203
200
197
195
192
189
187
184
181
179
177
175
174
172
171
170
170
168
167
167
167
166
167
166
166
166
165
165
165
164
164
164
162
162
161
161
160
159
158
157
156
154
153
153
152
152
151
150
149
148
148
147
147
147
148
148
150
151
151
152
150
150
149
148
148
148
148
147
147
147
147
146
145
144
143
142
141
141
141
141
141
141
142
143
143
144
144
144
143
143
142
142
142
141
141
140
139
139
138
137
136
136
136
136
137
138
138
139
139
140
140
141
142
143
144
145
145
146
146
146
146
146
145
144
144
143
143
142
142
141
141
141
141
140
140
140
140
141
140
140
140
140
140
140
141
141
142
142
144
144
144
144
145
145
146
146
145
146
147
146
146
145
144
142
141
141
140
139
138
137
136
135
133
132
131
129
128
126
124
123
122
121
119
118
118
117
116
117
117
117
117
117
117
117
116
115
114
114
113
111
110
109
108
107
105
104
101
99
97
95
93
92
90
90
88
88
88
89
88
88
89
90
91
92
92
93
94
94
95
97
98
100
100
101
101
101
102
103
104
105
106
106
106
107
107
106
106
105
105
104
104
104
103
102
102
101
100
101
100
101
101
101
102
103
103
103
105
106
107
108
109
111
113
114
116
117
118
119
121
123
124
126
128
129
130
132
134
136
137
137
139
141
141
143
145
146
148
150
151
152
154
154
155
156
157
158
158
158
160
161
161
162
164
164
165
165
165
165
165
166
166
167
167
167
167
166
166
166
166
165
165
166
165
164
164
163
162
162
160
160
160
159
159
158
158
158
158
157
156
156
155
154
153
152
152
151
152
151
151
150
151
151
151
150
150
151
151
152
152
152
152
153
153
153
151
151
151
151
151
151
150
148
147
146
145
145
144
144
143
143
143
143
143
144
144
144
144
144
144
145
145
145
146
146
147
148
148
148
147
147
147
147
147
148
148
149
150
150
150
150
151
151
151
150
151
150
150
149
149
147
147
145
144
142
140
139
137
135
135
133
131
129
127
125
124
122
122
121
120
119
119
118
117
116
116
116
116
116
116
117
117
117
117
118
118
118
119
120
120
121
121
121
122
122
123
124
125
125
127
127
128
129
130
130
131
133
134
135
135
134
135
134
133
133
133
132
132
131
131
129
128
126
125
124
124
122
122
121
121
120
119
118
118
119
118
118
117
117
118
117
118
118
118
119
119
120
121
122
123
124
125
126
128
129
131
133
135
136
137
137
138
140
141
141
142
143
143
143
143
143
144
143
143
143
143
143
143
143
142
142
143
142
143
143
144
144
145
146
147
148
147
148
149
150
150
150
151
151
151
151
151
151
150
150
150
149
148
147
147
146
146
145
145
146
146
146
148
149
151
152
154
155
157
158
159
160
161
162
163
162
162
162
162
161
159
158
157
154
152
150
148
145
143
139
136
132
129
125
121
117
113
108
104
98
92
86
80
74
68
63
58
53
49
45
41
37
35
33
33
33
35
37
40
44
47
51
55
60
64
70
75
81
87
93
98
103
110
114
119
124
130
136
141
146
150
154
158
160
164
166
168
170
172
172
171
171
169
166
163
159
156
151
147
142
136
131
126
122
117
113
108
105
101
98
94
92
89
88
87
86
85
84
84
83
82
81
80
80
80
80
81
81
81
81
80
80
79
78
79
78
78
78
78
77
77
76
76
76
75
75
75
75
75
74
74
74
73
72
71
71
70
71
71
70
70
69
68
66
65
65
64
64
64
65
65
65
65
65
65
65
67
67
67
69
69
70
70
71
72
72
73
73
72
72
72
72
72
72
72
72
73
73
72
72
71
70
70
70
71
71
72
73
73
74
73
74
74
74
74
73
73
73
73
74
74
74
73
72
71
70
69
69
69
68
67
67
66
65
64
63
61
60
59
58
58
57
56
55
54
54
53
52
51
49
48
47
46
45
45
44
44
44
44
43
43
43
43
43
43
43
43
43
43
44
43
43
43
41
41
40
40
38
38
37
35
34
32
31
29
28
27
25
24
23
22
21
20
19
20
19
18
18
17
18
17
18
18
18
20
20
20
20
21
22
22
22
22
21
21
21
21
22
21
21
21
20
20
19
19
18
18
18
18
18
18
18
19
19
20
21
22
23
25
26
28
29
30
31
32
33
34
36
36
37
38
39
39
40
40
41
40
40
40
40
39
39
39
39
38
39
38
38
38
39
39
40
40
41
42
42
44
45
47
49
50
52
53
54
57
58
60
61
63
65
66
67
68
68
68
69
69
70
70
70
70
71
71
71
71
71
71
70
70
70
70
70
70
69
69
69
69
69
68
69
68
68
68
68
67
67
67
67
68
70
71
71
72
72
72
72
73
75
75
76
77
77
75
75
75
75
75
74
73
72
71
72
71
70
70
70
69
68
69
68
67
67
66
66
66
66
66
66
66
65
65
64
64
65
65
65
65
65
65
64
64
64
65
66
66
66
66
67
67
68
68
69
69
69
70
70
70
69
69
69
68
69
70
70
71
71
72
72
71
71
70
70
69
70
70
70
71
72
73
74
74
75
76
76
76
77
77
79
80
82
83
84
85
87
87
88
89
90
92
94
95
96
96
97
97
96
95
94
94
93
93
92
91
90
89
88
87
86
85
84
82
80
79
77
77
76
75
73
72
70
68
67
65
64
62
62
61
61
59
58
57
57
56
56
57
57
57
57
57
58
58
59
60
59
59
60
60
61
62
63
63
63
64
63
63
62
62
61
61
62
61
61
62
60
60
59
57
56
55
55
53
53
53
51
52
52
52
53
52
52
52
52
52
52
52
52
52
53
53
54
55
55
54
54
55
54
55
56
57
57
57
58
58
60
60
60
61
61
62
62
63
63
63
62
61
59
56
54
50
45
41
36
31
25
18
11
3
-2
-9
-16
-22
-28
-33
-38
-43
-45
-47
-48
-48
-48
-47
-46
-43
-39
-33
-28
-21
-15
-8
-1
6
14
22
31
38
48
56
64
73
80
87
94
99
105
109
113
116
119
121
123
123
122
121
119
116
114
110
108
104
100
96
92
88
85
80
77
74
71
69
67
65
64
63
62
61
61
61
61
60
60
60
59
60
60
60
59
59
60
60
60
61
61
60
59
57
56
54
52
52
51
50
49
48
47
46
45
44
42
41
41
41
41
41
41
41
40
39
39
39
38
38
37
36
37
36
36
35
35
35
34
35
36
36
37
38
39
40
40
39
39
39
39
40
39
40
41
40
41
40
40
40
38
37
35
34
34
32
32
32
32
32
32
32
32
31
31
31
31
31
31
31
32
32
32
31
32
31
31
30
30
28
28
28
28
28
28
29
28
28
28
28
28
28
28
27
27
27
26
26
26
27
27
27
26
26
25
24
23
23
22
21
21
21
20
21
20
21
22
23
24
25
25
26
25
25
24
24
24
24
23
22
21
19
18
16
15
14
12
11
9
8
7
5
4
3
3
3
3
3
3
3
2
2
2
2
2
2
2
1
1
1
1
2
2
2
2
3
3
3
3
4
4
5
6
6
7
8
8
8
9
9
9
8
7
5
4
3
3
2
1
0
-1
-3
-4
-5
-4
-6
-6
-6
-6
-6
-6
-6
-5
-5
-6
-6
-6
-5
-4
-4
-4
-4
-4
-5
-5
-4
-4
-3
-3
-2
-2
-2
-2
-1
-1
0
1
2
2
2
2
3
3
4
4
5
5
6
6
7
7
8
8
9
10
11
13
15
17
18
20
21
22
24
25
27
27
28
30
31
32
33
35
35
36
36
37
37
38
38
38
38
38
39
39
38
38
38
39
39
39
40
40
41
41
41
42
42
42
42
42
41
41
41
41
41
40
40
39
38
38
37
36
36
36
34
34
33
33
32
32
31
31
30
30
30
29
29
29
30
30
30
30
30
31
32
34
35
36
37
37
37
38
38
39
40
40
40
39
38
38
37
37
36
35
33
32
31
30
29
28
27
26
26
25
25
26
26
27
27
27
27
25
25
25
25
25
25
25
25
24
24
24
24
24
23
23
22
22
22
21
22
21
21
21
21
21
21
21
22
22
22
22
22
21
22
21
20
19
20
19
18
16
15
14
13
12
11
10
9
9
7
6
5
5
4
4
4
4
4
5
6
6
6
7
7
7
8
9
9
11
12
13
14
15
16
17
18
18
19
20
20
20
20
20
21
20
21
20
19
19
18
17
16
15
14
13
12
10
8
8
6
5
5
4
4
4
3
2
1
0
-1
-2
-3
-3
-4
-4
-4
-4
-4
-5
-5
-6
-5
-5
-5
-5
-4
-5
-5
-5
-5
-5
-4
-3
-2
-1
-1
-1
0
-1
-2
-1
-2
-2
-2
-4
-4
-5
-5
-6
-7
-8
-10
-11
-11
-12
-14
-14
-15
-16
-17
-17
-16
-17
-17
-17
-16
-16
-15
-15
-14
-13
-12
-12
-10
-9
-9
-7
-6
-5
-4
-3
-2
-2
-1
0
0
1
2
2
3
3
3
3
4
4
5
5
5
7
7
7
8
8
9
10
11
12
12
13
14
14
14
15
16
16
17
19
20
21
22
23
24
24
24
23
22
22
21
20
19
18
17
16
16
15
14
12
11
10
9
8
6
6
4
4
5
5
6
6
8
8
10
11
13
15
16
17
18
19
20
21
20
21
22
23
24
25
25
25
24
24
24
23
23
23
23
24
25
25
25
26
26
27
28
28
31
31
31
30
28
25
23
19
14
9
3
-2
-8
-15
-22
-29
-37
-44
-50
-55
-61
-67
-71
-75
-78
-80
-81
-82
-83
-82
-79
-77
-72
-69
-64
-59
-54
-49
-43
-37
-31
-24
-18
-11
-5
1
7
14
20
27
33
38
44
49
55
59
62
67
70
72
74
76
76
75
75
73
72
70
69
66
63
60
57
53
50
46
42
38
34
30
26
22
19
15
12
9
7
5
2
0
-2
-4
-6
-8
-10
-11
-12
-13
-13
-13
-14
-14
-14
-13
-13
-13
-13
-13
-13
-12
-10
-10
-9
-9
-9
-9
-9
-9
-9
-9
-8
-8
-9
-9
-9
-10
-11
-12
-13
-14
-14
-14
-14
-15
-15
-16
-17
-19
-20
-21
-22
-22
-22
-22
-24
-24
-26
-28
-28
-30
-30
-31
-31
-32
-32
-33
-33
-34
-34
-34
-34
-34
-33
-33
-32
-31
-31
-31
-31
-30
-30
-30
-30
-28
-27
-26
-25
-24
-23
-23
-21
-20
-19
-18
-18
-17
-16
-15
-14
-14
-12
-13
-13
-12
-13
-14
-14
-15
-16
-17
-19
-21
-23
-24
-26
-26
-28
-28
-29
-30
-31
-32
-33
-34
-35
-36
-36
-36
-36
-36
-37
-38
-39
-40
-41
-42
-44
-45
-46
-46
-48
-48
-50
-51
-52
-53
-53
-54
-55
-57
-57
-57
-57
-57
-58
-58
-58
-58
-58
-59
-59
-59
-59
-59
-59
-61
-61
-61
-61
-61
-61
-61
-62
-63
-63
-64
-65
-65
-65
-66
-67
-69
-70
-71
-71
-72
-74
-75
-75
-76
-77
-78
-80
-81
-82
-83
-83
-83
-84
-85
-85
-86
-86
-87
-87
-88
-88
-89
-88
-88
-88
-88
-88
-87
-87
-88
-87
-86
-86
-85
-84
-84
-82
-81
-80
-79
-78
-75
-74
-72
-70
-68
-67
-66
-64
-63
-62
-62
-61
-61
-61
-60
-60
-59
-59
-59
-58
-58
-57
-58
-58
-57
-56
-56
-56
-56
-55
-54
-54
-53
-52
-51
-49
-47
-45
-44
-42
-40
-38
-37
-36
-35
-34
-32
-31
-29
-28
-26
-25
-24
-24
-23
-22
-22
-21
-20
-20
-20
-19
-18
-18
-17
-17
-18
-18
-18
-19
-19
-19
-19
-19
-18
-19
-19
-19
-19
-19
-19
-19
-19
-19
-20
-19
-19
-18
-17
-17
-16
-17
-16
-17
-17
-18
-18
-18
-17
-17
-16
-16
-15
-15
-15
-14
-14
-14
-13
-11
-10
-11
-10
-9
-8
-7
-6
-6
-5
-4
-4
-4
-4
-5
-5
-6
-6
-6
-4
-4
-4
-5
-5
-6
-6
-6
-6
-6
-5
-5
-5
-6
-7
-6
-7
-7
-9
-11
-11
-12
-13
-13
-14
-15
-17
-18
-20
-21
-22
-23
-23
-23
-23
-23
-23
-23
-22
-21
-19
-19
-18
-17
-16
-15
-15
-15
-15
-15
-14
-13
-13
-13
-12
-12
-12
-13
-14
-14
-15
-16
-15
-15
-16
-17
-17
-17
-17
-18
-18
-17
-17
-18
-18
-19
-19
-20
-21
-22
-22
-23
-25
-26
-27
-28
-30
-31
-32
-32
-33
-33
-33
-34
-35
-36
-37
-37
-38
-39
-40
-40
-40
-41
-41
-40
-40
-39
-38
-38
-38
-38
-37
-37
-37
-37
-36
-35
-34
-33
-33
-33
-33
-34
-35
-35
-36
-36
-38
-39
-40
-42
-43
-45
-44
-45
-45
-45
-45
-43
-43
-41
-39
-38
-36
-35
-34
-34
-33
-31
-30
-29
-29
-29
-29
-30
-30
-30
-30
-31
-31
-31
-30
-30
-30
-31
-30
-29
-28
-25
-23
-21
-18
-16
-15
-13
-13
-12
-12
-12
-12
-12
-13
-14
-15
-16
-17
-19
-21
-23
-25
-27
-28
-29
-30
-30
-30
-31
-31
-31
-31
-31
-30
-28
-26
-25
-23
-22
-20
-19
-17
-15
-14
-12
-11
-11
-10
-10
-9
-8
-8
-7
-7
-6
-6
-6
-6
-7
-7
-8
-8
-8
-10
-10
-11
-12
-13
-13
-14
-14
-13
-11
-10
-8
-8
-8
-7
-8
-8
-8
-9
-8
-7
-7
-7
-8
-10
-12
-15
-19
-23
-27
-32
-36
-42
-49
-56
-63
-70
-77
-81
-87
-92
-96
-102
-106
-109
-111
-113
-115
-114
-113
-111
-109
-106
-102
-97
-92
-86
-81
-75
-69
-63
-57
-50
-44
-38
-34
-28
-24
-19
-14
-10
-5
-1
2
5
9
11
14
16
19
21
22
24
23
24
23
22
21
19
16
14
11
9
6
3
-1
-5
-9
-13
-16
-21
-25
-28
-31
-34
-36
-39
-42
-44
-46
-48
-50
-51
-52
-52
-53
-54
-54
-55
-55
-56
-56
-56
-57
-56
-55
-55
-55
-55
-54
-54
-55
-54
-55
-55
-55
-56
-57
-58
-57
-57
-57
-56
-56
-56
-57
-57
-58
-59
-59
-60
-60
-61
-61
-62
-62
-63
-63
-64
-65
-65
-66
-66
-65
-66
-67
-66
-67
-67
-66
-66
-66
-67
-66
-66
-66
-66
-65
-65
-65
-65
-65
-64
-64
-63
-62
-61
-61
-60
-60
-60
-60
-59
-59
-59
-59
-59
-60
-59
-60
-61
-61
-61
-61
-62
-62
-63
-64
-64
-65
-66
-67
-68
-69
-70
-70
-71
-70
-70
-70
-71
-71
-71
-71
-71
-71
-70
-69
-68
-67
-66
-63
-62
-62
-60
-60
-59
-58
-59
-58
-58
-60
-61
-62
-63
-65
-66
-68
-70
-72
-74
-75
-76
-77
-79
-80
-81
-82
-83
-84
-86
-86
-87
-88
-89
-90
-90
-91
-92
-92
-93
-94
-95
-96
-97
-98
-99
-98
-99
-99
-99
-99
-99
-99
-99
-99
-99
-99
-100
-100
-100
-100
-101
-102
-102
-102
-103
-104
-105
-106
-108
-108
-107
-107
-107
-107
-107
-106
-106
-106
-105
-106
-106
-106
-106
-106
-107
-108
-110
-113
-114
-116
-117
-118
-120
-121
-122
-124
-125
-125
-125
-125
-125
-123
-121
-119
-118
-116
-114
-112
-110
-107
-104
-102
-100
-98
-96
-96
-94
-93
-91
-90
-89
-89
-88
-87
-87
-86
-86
-84
-83
-82
-81
-80
-78
-77
-75
-73
-72
-70
-69
-66
-64
-63
-61
-59
-58
-56
-55
-53
-53
-51
-51
-51
-49
-49
-48
-48
-47
-46
-46
-46
-45
-45
-45
-45
-44
-45
-44
-44
-43
-42
-42
-42
-42
-42
-42
-42
-43
-43
-44
-44
-43
-43
-43
-43
-43
-43
-44
-45
-45
-45
-44
-44
-43
-43
-42
-41
-39
-39
-38
-37
-36
-36
-35
-34
-35
-34
-33
-32
-32
-31
-31
-30
-30
-31
-31
-31
-31
-31
-31
-30
-30
-29
-29
-29
-28
-28
-28
-28
-27
-27
-27
-27
-29
-29
-29
-30
-31
-30
-31
-32
-32
-33
-34
-36
-37
-38
-39
-40
-40
-39
-39
-39
-39
-39
-39
-39
-38
-37
-37
-36
-35
-35
-34
-34
-35
-35
-34
-34
-33
-33
-32
-32
-31
-32
-31
-31
-31
-32
-32
-32
-33
-33
-33
-34
-33
-33
-33
-32
-33
-33
-34
-34
-35
-36
-37
-37
-39
-40
-40
-42
-43
-44
-46
-47
-48
-49
-49
-50
-51
-52
-53
-53
-53
-52
-52
-52
-51
-50
-49
-49
-47
-46
-45
-44
-43
-42
-41
-40
-40
-39
-39
-39
-38
-39
-39
-39
-39
-40
-40
-40
-41
-41
-42
-43
-44
-44
-45
-47
-48
-48
-50
-50
-51
-51
-51
-50
-51
-51
-50
-51
-51
-51
-51
-51
-50
-50
-50
-49
-49
-49
-50
-50
-51
-51
-52
-53
-54
-55
-55
-56
-57
-58
-58
-60
-60
-61
-62
-63
-63
-64
-64
-66
-66
-67
-67
-68
-67
-67
-67
-67
-67
-67
-68
-68
-69
-69
-69
-69
-68
-68
-67
-66
-66
-65
-64
-64
-63
-61
-60
-59
-58
-58
-57
-55
-54
-53
-51
-50
-49
-47
-47
-47
-46
-46
-45
-44
-43
-42
-41
-39
-38
-37
-36
-34
-32
-31
-30
-29
-27
-26
-26
-26
-25
-25
-25
-25
-25
-26
-25
-25
-27
-27
-28
-29
-30
-30
-31
-31
-31
-32
-32
-32
-32
-31
-31
-30
-29
-29
-28
-27
-27
-27
-27
-27
-27
-26
-26
-26
-25
-26
-26
-26
-26
-26
-26
-26
-27
-27
-28
-29
-31
-33
-34
-36
-37
-38
-39
-39
-39
-38
-39
-39
-39
-39
-40
-40
-40
-39
-39
-37
-36
-35
-33
-32
-31
-29
-28
-27
-27
-27
-28
-30
-31
-33
-36
-39
-42
-46
-51
-55
-61
-65
-70
-74
-79
-83
-88
-91
-93
-95
-96
-96
-96
-96
-95
-92
-90
-88
-83
-79
-75
-68
-63
-57
-51
-45
-39
-34
-28
-21
-16
-10
-5
1
7
13
19
25
31
36
41
46
50
54
57
59
61
63
63
64
62
62
60
58
56
52
49
45
41
36
31
26
21
16
11
6
2
-3
-7
-11
-14
-18
-20
-22
-25
-26
-27
-29
-30
-31
-32
-31
-31
-31
-30
-30
-29
-29
-28
-27
-26
-25
-23
-22
-22
-21
-21
-20
-19
-18
-17
-17
-16
-16
-15
-15
-15
-15
-15
-15
-15
-15
-15
-15
-15
-14
-14
-14
-13
-13
-12
-12
-13
-14
-14
-14
-14
-14
-14
-14
-15
-16
-16
-17
-19
-21
-22
-24
-26
-26
-27
-28
-29
-29
-29
-30
-29
-29
-28
-28
-27
-27
-27
-26
-26
-25
-24
-23
-23
-23
-23
-23
-24
-24
-25
-25
-26
-26
-25
-25
-25
-26
-26
-26
-27
-26
-25
-25
-23
-23
-23
-22
-22
-21
-21
-21
-20
-20
-19
-19
-19
-18
-17
-17
-17
-17
-17
-17
-18
-19
-20
-21
-21
-22
-23
-23
-24
-25
-27
-28
-29
-30
-31
-32
-32
-33
-34
-34
-34
-34
-35
-35
-36
-37
-36
-37
-37
-37
-36
-36
-37
-37
-37
-38
-38
-39
-38
-38
-38
-38
-39
-38
-39
-39
-40
-40
-41
-41
-41
-43
-44
-46
-47
-49
-50
-51
-52
-54
-55
-56
-57
-57
-59
-60
-61
-62
-63
-64
-65
-65
-66
-66
-67
-67
-68
-69
-70
-72
-75
-77
-79
-80
-82
-82
-82
-83
-83
-84
-84
-84
-84
-85
-85
-84
-83
-82
-79
-77
-75
-73
-71
-71
-71
-70
-71
-70
-69
-67
-66
-66
-65
-65
-64
-64
-63
-63
-63
-63
-62
-61
-60
-59
-56
-56
-53
-50
-49
-46
-44
-43
-40
-38
-36
-34
-32
-31
-30
-28
-28
-26
-25
-24
-23
-22
-21
-21
-21
-20
-20
-21
-21
-21
-22
-22
-21
-21
-20
-19
-18
-17
-16
-15
-14
-14
-13
-13
-11
-11
-10
-9
-8
-6
-5
-4
-4
-3
-4
-4
-4
-5
-5
-5
-5
-5
-5
-5
-5
-6
-6
-6
-7
-7
-8
-9
-10
-10
-11
-12
-14
-15
-17
-17
-18
-18
-18
-20
-22
-23
-25
-26
-26
-26
-26
-25
-25
-23
-22
-20
-18
-17
-16
-16
-16
-14
-13
-13
-11
-10
-9
-7
-7
-7
-7
-7
-7
-8
-8
-9
-9
-10
-10
-11
-11
-11
-11
-11
-11
-11
-11
-11
-10
-10
-10
-10
-9
-9
-9
-9
-9
-9
-9
-9
-10
-10
-11
-10
-12
-12
-13
-13
-14
-15
-16
-16
-17
-18
-19
-21
-21
-22
-22
-23
-23
-24
-24
-26
-26
-27
-28
-29
-30
-31
-31
-32
-32
-34
-34
-35
-35
-36
-37
-39
-40
-42
-42
-44
-45
-46
-48
-49
-50
-53
-54
-57
-60
-62
-63
-65
-65
-66
-67
-67
-67
-67
-66
-65
-64
-63
-62
-60
-59
-56
-54
-51
-48
-46
-44
-41
-40
-38
-36
-35
-35
-33
-33
-34
-33
-34
-33
-33
-33
-34
-34
-35
-36
-37
-38
-38
-39
-39
-39
-41
-42
-44
-44
-45
-46
-47
-47
-48
-50
-50
-52
-52
-53
-54
-54
-54
-54
-54
-55
-54
-55
-54
-53
-52
-52
-51
-49
-48
-45
-44
-42
-41
-39
-38
-37
-35
-33
-31
-29
-27
-26
-24
-23
-21
-20
-20
-19
-17
-17
-15
-14
-14
-13
-13
-13
-12
-12
-13
-13
-13
-13
-13
-14
-13
-12
-12
-12
-12
-11
-11
-11
-11
-10
-10
-10
-9
-9
-8
-8
-9
-8
-10
-10
-12
-12
-14
-14
-14
-15
-16
-17
-17
-19
-19
-20
-20
-20
-20
-20
-19
-19
-18
-17
-16
-15
-13
-12
-12
-11
-9
-8
-7
-6
-4
-3
-3
-2
-2
-1
0
1
1
2
4
6
6
6
6
5
4
2
0
-1
-4
-7
-10
-13
-18
-24
-30
-36
-42
-49
-54
-59
-63
-67
-71
-75
-78
-81
-83
-85
-85
-85
-83
-81
-78
-75
-71
-67
-62
-58
-53
-48
-42
-36
-31
-25
-20
-15
-9
-4
2
8
14
20
26
32
38
44
48
52
57
60
63
65
66
67
67
67
66
65
64
61
58
55
50
46
42
36
32
28
23
19
15
11
7
3
1
-1
-5
-6
-7
-8
-9
-9
-10
-9
-9
-10
-10
-10
-10
-10
-9
-10
-10
-11
-11
-11
-10
-11
-12
-13
-14
-16
-17
-18
-19
-19
-20
-20
-20
-21
-21
-21
-20
-21
-20
-20
-20
-19
-19
-19
-18
-17
-16
-15
-14
-14
-14
-14
-14
-13
-14
-14
-13
-13
-14
-15
-15
-16
-16
-17
-17
-18
-19
-20
-21
-22
-22
-23
-23
-23
-24
-24
-25
-25
-25
-25
-24
-24
-23
-22
-21
-20
-20
-19
-19
-19
-19
-19
-20
-19
-19
-19
-19
-19
-18
-19
-20
-21
-22
-23
-24
-25
-26
-26
-27
-27
-27
-27
-27
-27
-27
-27
-27
-27
-27
-27
-26
-26
-25
-24
-23
-23
-22
-22
-22
-22
-21
-21
-21
-22
-23
-23
-25
-26
-26
-27
-28
-29
-30
-31
-33
-35
-38
-39
-42
-44
-45
-47
-48
-49
-51
-51
-52
-52
-53
-53
-53
-52
-52
-51
-52
-51
-51
-51
-51
-50
-50
-50
-50
-50
-50
-51
-52
-52
-52
-53
-53
-54
-54
-53
-54
-53
-53
-53
-53
-53
-53
-53
-53
-54
-54
-55
-56
-56
-57
-58
-59
-59
-60
-61
-62
-62
-63
-63
-62
-62
-61
-61
-61
-60
-60
-59
-58
-57
-56
-56
-55
-54
-54
-53
-53
-53
-55
-55
-55
-55
-55
-55
-54
-54
-54
-53
-54
-53
-52
-51
-50
-49
-48
-46
-45
-44
-43
-41
-40
-39
-37
-36
-34
-34
-33
-32
-31
-29
-28
-26
-25
-24
-24
-23
-21
-21
-20
-20
-19
-19
-18
-17
-16
-17
-18
-17
-18
-18
-17
-16
-16
-15
-15
-15
-15
-14
-14
-12
-12
-11
-10
-8
-8
-6
-5
-6
-5
-5
-4
-4
-4
-3
-3
-3
-3
-4
-4
-4
-5
-5
-5
-6
-5
-6
-6
-6
-6
-6
-6
-6
-4
-4
-3
-2
-1
0
0
0
0
0
-1
0
0
1
1
1
1
-1
-1
-3
-5
-6
-8
-8
-10
-11
-12
-13
-14
-15
-16
-16
-17
-17
-16
-16
-15
-14
-13
-12
-11
-9
-8
-6
-5
-3
-2
-1
-1
0
1
2
3
4
4
4
4
4
4
5
5
5
6
7
7
7
8
8
8
8
8
8
9
9
10
10
9
9
9
8
9
8
9
8
9
9
10
9
9
9
8
8
8
7
7
7
7
6
5
5
4
3
3
2
2
0
0
0
-2
-2
-2
-3
-3
-3
-4
-5
-5
-5
-6
-6
-6
-7
-8
-8
-9
-10
-9
-10
-9
-10
-10
-11
-11
-12
-11
-11
-10
-10
-9
-9
-9
-10
-11
-10
-11
-11
-11
-12
-12
-13
-13
-15
-16
-17
-18
-19
-20
-21
-22
-22
-22
-23
-23
-24
-24
-25
-24
-25
-26
-26
-26
-26
-25
-25
-25
-26
-26
-28
-29
-30
-31
-31
-32
-31
-32
-31
-31
-31
-32
-33
-33
-33
-33
-32
-33
-32
-31
-30
-30
-29
-29
-28
-27
-27
-26
-25
-24
-24
-23
-23
-21
-20
-19
-19
-17
-16
-15
-15
-14
-13
-13
-12
-11
-11
-11
-9
-9
-7
-6
-4
-3
-2
-1
0
0
1
1
2
3
4
6
7
7
8
8
9
9
9
9
9
10
10
11
12
12
12
13
14
15
15
17
18
19
19
20
20
21
21
22
22
21
21
21
20
20
20
19
19
18
19
18
18
17
16
16
16
16
15
15
16
16
16
15
15
15
14
13
12
12
11
12
12
11
11
10
9
8
7
7
6
6
6
6
7
7
7
8
7
8
8
8
7
7
7
6
6
6
6
5
4
3
0
-3
-7
-11
-16
-20
-25
-30
-34
-38
-43
-48
-53
-58
-61
-65
-69
-72
-75
-77
-78
-79
-79
-78
-77
-74
-72
-67
-63
-58
-53
-48
-42
-37
-30
-23
-16
-8
-1
8
15
23
31
38
45
51
58
64
70
75
80
83
86
89
91
92
93
93
93
91
89
88
84
82
78
75
72
69
65
61
57
53
50
47
44
42
40
36
33
30
28
26
23
22
21
19
18
17
16
16
14
13
12
12
12
11
11
10
10
8
7
7
6
7
7
7
7
7
6
6
6
6
6
5
5
5
5
5
6
6
6
6
6
6
6
6
7
7
7
7
7
7
7
6
6
7
7
8
9
9
10
11
11
11
11
11
11
12
12
12
11
11
11
10
9
9
7
6
5
3
2
0
-1
-3
-3
-4
-5
-5
-5
-5
-4
-5
-4
-4
-3
-3
-3
-2
-2
-1
0
1
2
2
3
4
4
3
2
2
1
0
0
-1
-2
-3
-5
-6
-8
-8
-10
-12
-12
-14
-15
-17
-18
-18
-19
-20
-20
-20
-20
-21
-20
-20
-20
-20
-21
-20
-19
-20
-20
-21
-20
-20
-20
-20
-19
-20
-20
-20
-21
-21
-22
-22
-20
-20
-19
-20
-19
-20
-20
-20
-20
-21
-21
-22
-22
-22
-22
-23
-23
-23
-24
-23
-24
-25
-26
-27
-28
-29
-30
-30
-31
-32
-32
-32
-33
-33
-35
-35
-35
-35
-35
-36
-35
-36
-36
-36
-36
-36
-36
-37
-38
-38
-39
-39
-39
-40
-40
-41
-42
-43
-44
-45
-46
-46
-47
-49
-49
-51
-51
-51
-51
-52
-52
-53
-52
-52
-52
-51
-51
-50
-49
-47
-47
-47
-45
-44
-42
-40
-38
-37
-36
-34
-34
-32
-31
-29
-28
-26
-26
-25
-23
-23
-22
-21
-20
-19
-18
-18
-17
-16
-15
-15
-14
-13
-12
-11
-10
-10
-9
-9
-9
-8
-9
-9
-8
-9
-8
-8
-7
-7
-7
-7
-7
-5
-5
-3
-1
0
2
3
5
5
7
8
8
9
9
10
10
11
11
10
10
9
7
6
4
4
4
3
3
3
4
4
4
5
5
6
6
7
8
9
9
10
11
12
11
12
12
13
13
13
12
12
12
11
11
11
12
11
11
11
12
12
13
14
14
15
15
16
16
16
17
18
18
19
20
20
20
21
21
20
20
21
20
20
20
21
20
20
19
19
19
18
18
17
17
17
16
16
16
16
16
17
17
17
18
18
18
18
18
18
17
17
17
16
15
14
12
11
10
8
7
5
4
3
2
1
-1
-1
-1
-2
-2
-3
-2
-2
-1
0
2
2
4
5
5
6
7
6
7
6
6
5
5
4
2
0
-2
-3
-5
-7
-9
-10
-12
-13
-15
-16
-17
-18
-18
-18
-18
-19
-19
-19
-18
-18
-17
-16
-15
-15
-14
-13
-12
-12
-12
-11
-10
-9
-8
-8
-8
-7
-8
-7
-8
-8
-8
-9
-10
-11
-11
-12
-14
-15
-16
-17
-18
-18
-19
-20
-20
-21
-21
-21
-21
-21
-21
-20
-18
-18
-16
-16
-17
-16
-17
-16
-15
-15
-15
-15
-15
-15
-15
-15
-16
-16
-16
-16
-16
-16
-17
-16
-16
-15
-15
-14
-13
-12
-11
-10
-9
-8
-6
-6
-4
-2
0
2
4
6
7
8
10
12
12
14
15
16
17
16
16
16
16
15
14
13
12
11
10
9
7
6
5
4
4
3
5
5
5
6
7
8
10
11
13
14
16
17
19
21
21
22
22
23
23
22
22
23
22
22
22
20
20
20
18
18
18
18
18
18
19
19
19
20
21
22
22
23
24
24
25
26
26
26
25
24
24
23
22
22
21
21
20
20
18
18
16
15
15
15
15
13
14
13
12
11
10
8
6
3
0
-4
-8
-13
-17
-22
-27
-32
-36
-42
-45
-49
-53
-58
-60
-62
-65
-66
-65
-65
-63
-61
-58
-55
-52
-47
-41
-36
-30
-24
-18
-11
-5
1
7
14
21
27
34
41
47
53
59
65
70
75
80
84
87
89
92
94
95
95
94
94
92
90
88
84
81
77
73
69
64
60
55
52
47
42
37
34
30
25
23
19
17
14
13
11
10
9
8
8
8
8
9
9
9
10
10
10
11
12
11
12
11
11
10
10
8
7
6
5
4
4
3
2
2
2
1
0
0
0
1
0
-1
-1
-1
-2
-3
-2
-3
-3
-3
-3
-3
-4
-4
-4
-5
-5
-6
-7
-7
-6
-6
-6
-5
-4
-4
-3
-3
-3
-3
-2
-3
-3
-4
-4
-5
-6
-6
-7
-8
-9
-10
-11
-12
-13
-15
-16
-17
-17
-18
-17
-16
-15
-15
-13
-12
-11
-10
-8
-8
-6
-5
-3
-1
0
0
1
1
0
0
0
-1
-1
-2
-4
-5
-6
-7
-8
-9
-9
-10
-11
-12
-11
-12
-11
-11
-11
-11
-10
-9
-9
-9
-8
-7
-7
-7
-7
-7
-8
-9
-10
-10
-10
-9
-10
-9
-10
-10
-11
-11
-13
-14
-14
-16
-16
-18
-18
-19
-21
-22
-23
-25
-26
-28
-30
-31
-33
-34
-35
-36
-37
-38
-39
-39
-40
-40
-42
-42
-42
-42
-43
-43
-44
-44
-45
-46
-46
-47
-47
-48
-49
-49
-50
-50
-50
-51
-51
-51
-51
-51
-52
-52
-52
-52
-51
-51
-51
-50
-50
-51
-51
-51
-51
-52
-52
-52
-52
-53
-53
-53
-53
-54
-54
-53
-53
-53
-53
-53
-52
-53
-52
-51
-51
-51
-51
-50
-50
-50
-50
-50
-50
-51
-50
-50
-49
-48
-48
-46
-46
-45
-45
-44
-43
-41
-40
-38
-35
-34
-32
-30
-28
-25
-24
-21
-20
-19
-18
-15
-14
-13
-11
-10
-8
-6
-5
-5
-4
-4
-4
-4
-4
-3
-3
-3
-4
-5
-5
-5
-5
-5
-6
-7
-6
-7
-7
-8
-7
-7
-7
-7
-7
-7
-8
-7
-8
-8
-8
-7
-7
-7
-6
-6
-5
-5
-3
-2
-2
-2
-1
0
0
1
3
5
6
7
7
8
8
7
8
7
8
7
7
7
7
7
6
5
5
5
5
5
4
4
3
3
3
3
3
3
2
2
2
1
1
1
1
2
2
2
1
1
0
-1
-1
-1
-1
-1
0
0
2
2
2
2
3
3
4
4
4
5
5
5
6
6
6
7
7
6
6
6
6
6
5
5
5
4
4
4
4
4
4
4
3
2
2
1
2
1
1
1
1
1
0
1
0
0
-2
-2
-4
-4
-5
-5
-6
-7
-8
-9
-10
-11
-11
-13
-14
-15
-16
-18
-18
-19
-19
-20
-20
-21
-22
-23
-23
-24
-25
-26
-25
-26
-26
-26
-27
-27
-27
-28
-29
-29
-29
-29
-29
-28
-28
-29
-29
-30
-30
-31
-30
-30
-30
-32
-32
-33
-34
-34
-34
-36
-37
-37
-38
-39
-40
-39
-39
-40
-40
-40
-40
-40
-39
-39
-38
-38
-38
-36
-35
-36
-35
-33
-33
-33
-32
-33
-33
-33
-33
-34
-34
-34
-35
-35
-36
-35
-36
-36
-35
-35
-35
-35
-34
-34
-34
-33
-32
-31
-30
-29
-27
-26
-25
-25
-25
-25
-23
-23
-23
-23
-22
-22
-22
-21
-20
-19
-19
-19
-19
-19
-17
-16
-14
-14
-12
-10
-9
-7
-6
-5
-4
-4
-4
-3
-2
-1
0
-1
-1
0
0
-2
-2
-3
-4
-5
-5
-6
-7
-8
-8
-9
-9
-10
-10
-11
-11
-12
-12
-13
-13
-12
-11
-11
-10
-9
-7
-6
-6
-5
-4
-3
-2
0
0
1
2
3
4
3
3
3
2
1
0
0
0
-1
0
-1
0
0
-1
-1
-1
1
2
3
4
6
7
9
10
11
12
12
13
13
12
12
10
9
7
3
1
-3
-6
-11
-15
-20
-26
-32
-38
-44
-50
-55
-60
-63
-68
-71
-75
-77
-80
-83
-83
-85
-85
-85
-84
-82
-79
-76
-71
-67
-62
-58
-52
-47
-41
-35
-30
-25
-19
-12
-5
1
8
15
21
27
33
38
43
47
52
54
57
59
61
62
63
63
62
62
60
58
56
53
50
46
42
38
34
30
27
23
20
16
13
11
8
5
3
1
-1
-3
-4
-7
-9
-10
-11
-11
-12
-13
-12
-13
-14
-13
-14
-14
-14
-14
-15
-16
-16
-17
-17
-18
-18
-19
-20
-21
-22
-22
-23
-23
-23
-24
-24
-25
-26
-25
-25
-26
-25
-25
-25
-25
-25
-25
-24
-23
-23
-23
-22
-22
-22
-21
-20
-21
-20
-19
-19
-18
-18
-17
-17
-16
-16
-15
-15
-14
-13
-13
-12
-11
-10
-11
-11
-12
-13
-12
-14
-14
-14
-14
-15
-16
-16
-17
-18
-18
-19
-20
-21
-22
-23
-23
-24
-25
-25
-25
-25
-25
-25
-26
-27
-27
-27
-27
-27
-27
-27
-27
-28
-28
-28
-27
-27
-26
-26
-26
-25
-25
-23
-23
-22
-22
-22
-22
-22
-22
-22
-23
-23
-24
-24
-25
-24
-25
-26
-26
-28
-30
-32
-33
-36
-37
-38
-40
-42
-42
-44
-46
-49
-51
-53
-54
-56
-57
-58
-58
-59
-60
-60
-61
-61
-61
-61
-61
-60
-61
-60
-60
-60
-60
-59
-59
-58
-58
-57
-58
-58
-58
-58
-58
-58
-59
-59
-59
-59
-60
-61
-61
-63
-63
-63
-64
-65
-66
-66
-67
-67
-67
-68
-68
-69
-68
-68
-66
-66
-64
-63
-63
-62
-62
-61
-61
-60
-59
-58
-57
-56
-55
-55
-55
-55
-55
-55
-55
-56
-55
-55
-54
-54
-54
-53
-53
-52
-52
-52
-52
-50
-49
-48
-46
-46
-44
-43
-43
-41
-39
-38
-36
-35
-33
-32
-30
-29
-28
-28
-27
-27
-26
-25
-24
-23
-23
-22
-22
-22
-22
-22
-22
-22
-22
-21
-22
-21
-21
-20
-19
-20
-20
-19
-18
-18
-18
-18
-17
-17
-17
-17
-16
-16
-16
-17
-16
-16
-15
-15
-14
-13
-11
-10
-10
-9
-8
-7
-7
-6
-5
-4
-3
-3
-2
-1
-1
0
0
-1
-1
-1
-1
-1
-1
-1
-2
-3
-4
-4
-4
-5
-5
-6
-7
-7
-7
-7
-7
-8
-8
-9
-9
-10
-11
-12
-12
-12
-13
-13
-12
-12
-12
-12
-11
-11
-10
-9
-9
-8
-7
-6
-6
-4
-3
-3
-2
-1
0
0
1
3
4
5
5
6
6
6
7
7
7
7
7
7
6
6
5
5
4
3
3
2
1
0
-1
0
-1
-1
-2
-2
-2
-1
0
0
1
1
2
2
3
3
4
4
4
3
3
2
1
1
-1
-2
-4
-4
-6
-8
-9
-10
-12
-14
-15
-17
-18
-20
-20
-21
-21
-22
-21
-21
-22
-22
-22
-23
-24
-26
-26
-27
-27
-27
-26
-27
-26
-27
-27
-28
-29
-30
-30
-31
-31
-32
-32
-31
-31
-30
-30
-30
-31
-31
-31
-32
-32
-33
-33
-33
-33
-34
-33
-33
-34
-35
-35
-36
-36
-36
-36
-36
-37
-36
-36
-36
-35
-35
-34
-34
-34
-34
-34
-34
-33
-34
-33
-33
-32
-33
-33
-33
-34
-34
-34
-34
-35
-35
-35
-35
-35
-34
-33
-32
-31
-31
-30
-30
-30
-29
-28
-28
-26
-25
-24
-22
-21
-20
-20
-19
-20
-19
-18
-17
-16
-14
-13
-12
-11
-10
-9
-8
-6
-5
-4
-1
0
0
1
2
3
4
4
4
4
4
5
6
8
9
10
11
11
10
11
11
11
12
12
12
11
11
10
10
9
9
9
8
8
6
6
5
5
4
5
5
4
4
5
5
4
6
7
7
9
11
12
12
13
14
14
14
14
14
14
15
15
15
15
15
16
16
15
15
15
15
15
14
14
13
12
11
9
6
3
1
-2
-6
-10
-15
-21
-27
-33
-38
-45
-50
-55
-60
-65
-70
-73
-76
-79
-82
-83
-84
-84
-84
-81
-77
-74
-69
-64
-58
-52
-47
-40
-34
-27
-21
-13
-7
0
6
12
18
25
31
37
42
47
52
57
61
65
68
71
74
76
77
78
78
77
76
75
74
71
69
67
63
60
56
53
48
44
40
35
32
27
23
20
16
13
11
8
6
4
2
0
-1
-2
-2
-2
-2
-2
-2
-1
-1
0
1
2
3
4
5
5
6
6
6
5
5
5
4
3
2
2
1
-1
-1
-2
-3
-4
-6
-8
-10
-12
-14
-15
-16
-18
-19
-20
-22
-22
-23
-24
-24
-24
-25
-24
-23
-24
-23
-23
-23
-22
-21
-20
-19
-18
-16
-15
-14
-13
-12
-12
-12
-12
-11
-12
-12
-12
-12
-13
-13
-12
-13
-13
-13
-13
-13
-13
-13
-13
-14
-13
-13
-13
-13
-13
-13
-12
-12
-11
-12
-12
-12
-13
-13
-13
-12
-12
-13
-13
-12
-12
-13
-12
-12
-12
-10
-10
-10
-10
-10
-9
-9
-9
-9
-10
-10
-11
-11
-11
-10
-10
-10
-10
-11
-11
-11
-11
-12
-11
-11
-11
-12
-12
-12
-12
-13
-14
-15
-16
-16
-17
-18
-20
-21
-21
-22
-24
-26
-27
-29
-31
-32
-32
-34
-35
-36
-37
-38
-40
-41
-42
-42
-44
-44
-45
-45
-46
-46
-46
-46
-46
-46
-46
-46
-46
-47
-47
-48
-49
-50
-51
-50
-51
-52
-54
-54
-56
-58
-59
-59
-59
-60
-59
-60
-61
-62
-63
-64
-64
-65
-65
-65
-64
-63
-63
-63
-63
-62
-61
-60
-60
-60
-59
-59
-58
-56
-56
-56
-54
-54
-52
-51
-49
-49
-48
-47
-46
-45
-45
-43
-43
-42
-41
-40
-40
-39
-38
-36
-35
-33
-31
-29
-27
-26
-24
-23
-23
-21
-20
-18
-17
-16
-15
-15
-14
-13
-12
-10
-10
-10
-10
-10
-10
-11
-11
-11
-11
-11
-10
-11
-10
-10
-10
-10
-9
-8
-8
-7
-6
-5
-4
-4
-3
-2
-2
-2
-1
0
0
-1
0
0
0
-1
-2
-2
-3
-4
-4
-6
-6
-7
-8
-8
-8
-8
-8
-8
-9
-9
-8
-7
-6
-5
-5
-4
-2
-1
0
1
1
2
2
3
2
2
1
1
0
0
-1
0
-1
-1
-1
-1
-1
-1
0
0
-1
-2
-2
-1
-1
-1
-1
-1
-1
-2
-2
-2
-4
-4
-5
-7
-8
-8
-8
-8
-9
-8
-8
-8
-8
-7
-7
-7
-6
-5
-4
-3
-2
-1
-1
-1
-1
-1
-2
-2
-3
-2
-3
-4
-4
-5
-6
-7
-8
-9
-10
-11
-12
-12
-13
-13
-13
-13
-15
-15
-14
-14
-15
-15
-15
-14
-14
-13
-13
-12
-11
-10
-9
-8
-8
-6
-6
-5
-4
-4
-4
-4
-5
-6
-6
-6
-7
-8
-8
-10
-11
-13
-14
-16
-17
-18
-20
-21
-23
-23
-24
-25
-26
-28
-28
-29
-29
-30
-31
-33
-34
-34
-34
-35
-35
-36
-36
-36
-37
-38
-39
-39
-40
-39
-38
-36
-35
-34
-33
-33
-32
-33
-33
-33
-34
-33
-34
-34
-34
-33
-33
-33
-34
-35
-36
-38
-39
-41
-42
-43
-42
-43
-43
-42
-42
-42
-42
-42
-42
-41
-41
-40
-39
-38
-37
-37
-35
-34
-33
-33
-32
-32
-32
-31
-31
-30
-29
-27
-27
-25
-25
-24
-24
-24
-24
-23
-22
-21
-21
-19
-18
-17
-17
-16
-16
-15
-14
-13
-13
-11
-10
-10
-9
-8
-7
-5
-5
-3
-2
0
1
2
3
5
6
7
9
11
11
11
12
13
14
15
15
15
15
15
16
16
15
15
14
13
12
11
11
10
9
8
7
6
5
5
5
4
4
4
4
5
6
7
9
10
10
12
11
12
12
12
12
13
13
14
13
12
13
12
11
11
10
10
9
9
9
9
10
10
10
10
10
10
10
9
8
8
6
4
1
-2
-6
-11
-16
-22
-28
-33
-38
-44
-49
-54
-59
-63
-67
-72
-75
-78
-79
-80
-80
-79
-78
-77
-75
-71
-68
-64
-60
-55
-50
-45
-39
-33
-27
-21
-15
-9
-2
5
11
19
25
31
37
44
50
56
61
66
69
73
76
77
78
78
77
76
74
72
69
66
63
59
55
51
47
43
37
33
30
26
23
20
18
15
14
12
11
9
9
8
7
7
6
5
5
4
4
4
4
4
5
5
6
6
5
6
6
7
7
9
9
10
11
13
14
14
15
16
17
18
18
19
20
20
22
22
22
22
22
21
20
20
19
17
16
15
13
12
11
8
7
6
5
3
3
2
1
1
0
-2
-2
-2
-2
-1
-2
-2
-2
-2
-1
-1
-1
0
1
2
3
3
4
4
4
4
5
5
5
5
5
6
6
6
6
6
4
4
3
4
3
3
3
3
2
3
3
3
3
3
3
3
2
3
3
3
4
4
4
3
2
2
1
1
0
-2
-2
-3
-4
-5
-6
-6
-6
-7
-8
-8
-9
-10
-10
-10
-11
-12
-12
-11
-11
-10
-9
-9
-8
-9
-9
-9
-10
-10
-9
-10
-10
-10
-12
-13
-14
-16
-17
-19
-21
-23
-25
-26
-28
-30
-31
-31
-32
-34
-34
-33
-34
-34
-33
-33
-32
-31
-31
-30
-30
-29
-29
-29
-28
-27
-27
-27
-27
-27
-28
-29
-29
-31
-32
-32
-33
-33
-34
-34
-35
-36
-36
-35
-36
-36
-36
-36
-35
-34
-34
-32
-32
-31
-31
-30
-29
-28
-26
-24
-23
-22
-21
-21
-19
-19
-18
-18
-17
-17
-18
-18
-19
-20
-21
-21
-22
-23
-23
-25
-26
-27
-28
-28
-28
-29
-29
-29
-28
-27
-26
-26
-24
-24
-22
-21
-19
-18
-16
-15
-13
-11
-10
-8
-6
-5
-4
-3
-2
-1
0
0
1
2
2
3
3
4
4
5
5
6
6
6
7
7
8
9
10
11
12
12
13
14
15
15
16
17
16
16
17
17
17
18
20
20
21
21
20
20
20
21
20
20
22
22
21
21
21
20
20
21
20
21
20
20
19
19
19
18
18
18
17
18
17
17
17
17
16
16
17
17
17
17
17
18
18
19
20
19
21
21
22
23
24
25
26
27
27
26
27
27
28
28
28
28
28
27
27
27
26
26
25
24
24
24
23
24
23
23
23
24
25
25
26
27
27
28
28
29
31
30
31
32
32
32
33
33
33
31
30
30
30
29
28
28
27
26
24
24
23
23
21
20
18
17
17
17
15
15
14
13
14
13
12
11
11
10
11
11
12
11
11
10
9
9
9
9
9
9
9
9
8
8
8
7
6
5
5
6
6
6
5
5
5
5
5
5
5
4
4
3
4
3
3
3
2
1
0
0
-1
-2
-1
-1
-1
0
0
0
0
-1
-2
-1
-1
-2
-2
-3
-3
-4
-4
-5
-5
-4
-5
-5
-5
-5
-6
-6
-8
-8
-9
-8
-8
-7
-6
-5
-5
-4
-3
-3
-2
-2
-2
-2
-2
-2
-2
-2
-2
-3
-3
-3
-3
-2
-1
-1
0
0
1
2
3
3
5
7
9
11
13
14
15
17
19
20
23
24
26
29
30
32
33
33
33
34
34
35
36
37
38
37
38
38
37
37
37
37
37
36
35
35
35
35
33
33
32
31
30
30
29
29
28
28
26
26
26
25
26
25
26
26
27
28
28
29
30
31
31
32
33
34
35
36
36
36
37
37
37
37
37
37
37
38
38
37
36
35
35
34
33
34
35
35
36
36
37
37
38
37
37
38
38
38
37
36
34
32
29
25
21
16
11
5
-1
-6
-12
-18
-23
-28
-32
-36
-39
-41
-42
-43
-42
-42
-40
-38
-36
-33
-30
-25
-21
-15
-11
-6
0
5
9
14
19
23
27
31
35
40
45
50
55
60
65
69
75
79
83
87
90
93
96
98
100
101
101
100
99
97
96
94
92
89
87
83
80
76
72
68
65
61
57
53
51
49
46
45
42
40
39
37
36
35
34
33
32
32
30
30
30
29
29
29
28
28
29
29
29
29
28
28
28
28
29
30
31
31
32
33
32
32
32
31
30
30
29
28
27
26
26
25
25
25
23
22
22
21
21
19
19
19
19
19
19
20
21
22
24
24
25
26
26
25
25
25
24
25
25
25
25
24
25
23
22
22
21
20
19
19
19
19
19
19
19
19
19
20
20
21
22
22
24
24
25
25
25
26
26
26
27
26
26
26
26
25
26
25
24
23
22
22
23
23
22
21
21
20
18
18
17
16
16
15
14
14
14
14
15
14
14
15
14
14
14
15
15
15
16
16
16
16
16
16
15
14
13
12
11
11
10
10
8
7
7
6
5
5
3
2
1
-1
-2
-4
-4
-6
-6
-7
-8
-11
-12
-13
-15
-15
-16
-18
-18
-18
-19
-19
-20
-20
-20
-20
-19
-18
-18
-17
-16
-16
-16
-16
-15
-15
-14
-14
-13
-13
-12
-13
-13
-13
-13
-13
-14
-14
-14
-15
-15
-15
-15
-16
-17
-17
-17
-17
-17
-16
-16
-16
-16
-15
-15
-15
-14
-13
-12
-11
-11
-10
-8
-7
-7
-6
-6
-5
-5
-5
-4
-4
-2
-2
-1
-1
0
-1
0
1
1
2
3
5
5
7
6
7
8
9
10
10
11
12
13
14
16
16
17
18
18
19
20
20
21
21
21
22
23
24
26
27
27
28
28
28
27
27
28
28
29
30
31
31
32
33
33
34
34
34
33
34
34
34
34
34
33
33
32
32
32
32
31
32
31
30
30
29
30
30
29
29
30
30
32
34
35
36
38
39
40
41
42
43
44
44
45
45
46
47
47
47
48
48
48
47
47
48
48
48
47
47
46
46
46
45
46
46
46
47
46
46
46
46
45
45
45
45
45
45
44
44
44
43
43
42
41
41
40
40
39
39
38
38
38
38
37
38
37
36
36
36
36
37
36
36
37
37
37
38
38
38
38
37
37
37
38
38
37
37
37
37
37
37
37
37
37
37
38
38
37
37
36
35
35
35
34
34
33
32
31
29
29
28
27
25
24
22
21
20
19
19
18
17
17
16
16
15
14
14
14
14
13
13
13
13
13
12
12
12
13
12
12
13
13
13
12
12
11
11
11
11
12
12
13
13
13
13
13
13
13
13
13
13
13
13
13
13
12
11
10
9
8
8
7
6
6
5
4
4
3
3
4
4
4
4
5
5
6
6
7
8
8
9
10
10
11
11
11
11
11
12
11
12
12
13
13
14
15
16
18
19
20
22
24
26
28
30
32
34
36
38
40
42
43
45
47
48
49
51
51
52
53
53
53
54
54
55
55
54
54
53
53
52
51
49
49
47
45
43
42
42
41
41
42
42
42
42
43
43
43
43
43
42
42
43
44
45
46
48
49
49
49
49
49
49
48
49
49
50
50
49
49
49
49
48
48
48
49
48
48
47
47
45
45
45
45
45
45
45
45
46
46
46
47
48
49
49
49
50
50
50
50
48
47
45
43
41
38
36
34
29
24
18
12
5
-1
-7
-13
-18
-22
-27
-31
-35
-40
-42
-45
-46
-46
-46
-45
-42
-40
-37
-32
-28
-24
-18
-13
-6
-1
6
13
19
25
31
38
45
51
57
63
69
75
81
87
92
97
102
107
111
114
117
118
120
120
120
121
120
118
116
114
111
107
104
100
96
93
88
84
81
76
73
69
65
62
60
57
56
54
53
52
49
48
47
47
46
46
45
45
44
43
44
43
42
41
41
40
40
40
40
40
40
40
40
40
40
40
39
39
39
39
40
40
40
39
39
38
37
36
36
35
34
33
33
33
33
33
32
32
31
31
31
31
30
31
31
30
30
30
29
28
28
27
26
26
25
24
23
22
21
20
19
18
18
18
17
17
16
15
14
13
13
13
12
12
12
11
12
11
10
10
10
9
10
10
11
11
13
14
14
13
15
14
15
15
17
18
19
21
22
23
24
25
25
25
25
25
26
26
26
27
27
27
28
28
28
28
27
26
25
25
24
22
21
20
18
17
16
15
13
12
10
10
9
9
9
8
8
8
7
8
9
10
10
11
11
12
12
11
11
10
9
8
7
5
4
2
0
-2
-3
-6
-6
-8
-8
-9
-10
-11
-11
-12
-12
-12
-11
-10
-10
-9
-9
-8
-7
-8
-7
-8
-8
-9
-10
-11
-11
-12
-12
-12
-13
-13
-14
-14
-15
-15
-16
-17
-17
-18
-18
-18
-19
-19
-20
-21
-22
-23
-23
-24
-25
-25
-26
-27
-27
-28
-28
-27
-27
-26
-27
-26
-24
-24
-24
-23
-22
-21
-20
-18
-17
-14
-13
-12
-9
-8
-6
-4
-2
-1
1
3
5
6
6
7
8
9
10
11
11
12
12
12
12
12
12
13
13
13
14
15
15
16
16
16
17
18
19
19
20
21
22
23
24
25
26
26
28
28
28
29
29
30
31
31
30
30
30
29
30
30
30
30
30
30
30
31
31
31
31
31
31
31
31
31
30
30
29
29
29
28
28
28
29
29
29
29
30
30
32
33
35
36
38
40
42
43
44
46
47
49
50
51
53
54
54
54
55
54
55
54
54
53
53
52
51
50
49
48
47
46
45
45
43
42
42
42
41
40
39
39
38
38
38
38
38
38
38
38
38
38
38
38
38
38
38
39
39
40
41
42
43
44
44
44
44
44
45
44
44
43
42
41
41
39
38
36
34
33
31
29
28
26
25
24
23
22
22
21
20
20
20
19
19
19
19
18
18
17
17
16
15
15
14
13
12
12
10
10
9
9
8
8
7
6
6
5
5
4
4
4
4
4
4
4
4
3
4
3
4
4
4
5
5
4
4
3
3
3
3
3
2
2
1
0
-1
-2
-2
-4
-5
-6
-7
-7
-8
-8
-9
-9
-9
-10
-9
-10
-8
-8
-8
-6
-6
-5
-3
-1
0
1
3
4
6
8
8
9
11
12
13
13
14
16
16
17
17
17
18
18
19
19
20
21
22
23
23
25
25
26
27
29
30
30
31
32
32
33
35
35
37
38
39
40
40
41
42
43
43
44
44
44
44
44
43
44
44
44
44
44
44
44
43
43
43
44
44
44
44
44
45
45
45
45
46
46
45
44
45
44
44
42
42
41
40
41
40
39
38
37
36
35
34
34
34
33
34
33
33
32
31
31
30
30
30
30
31
31
31
31
31
32
32
33
34
35
36
36
37
38
39
39
40
40
40
39
37
36
33
30
26
22
17
11
6
0
-4
-9
-15
-21
-26
-31
-35
-40
-43
-46
-48
-48
-49
-48
-47
-46
-43
-40
-36
-31
-26
-20
-14
-7
-1
6
13
20
27
34
42
49
56
62
69
75
81
88
93
98
103
106
109
112
114
115
116
116
116
114
112
109
106
102
98
94
88
82
76
70
65
59
54
49
45
41
37
33
31
29
28
26
25
25
25
26
25
27
28
29
30
31
31
33
33
33
34
34
34
34
33
32
32
30
29
29
28
28
27
28
27
26
26
25
23
23
21
20
21
20
20
19
19
18
17
17
17
17
18
18
18
18
17
17
17
15
15
15
14
14
14
14
14
12
11
11
11
11
11
12
12
12
13
13
15
15
15
16
17
18
20
22
23
24
25
25
25
25
24
24
23
23
22
21
21
21
20
19
18
16
15
14
13
11
11
10
9
9
8
9
8
8
7
7
7
7
7
7
7
8
8
8
8
8
9
10
10
10
10
10
10
9
9
9
8
8
8
8
7
7
6
6
5
4
4
3
3
3
3
3
2
1
0
-1
-2
-3
-4
-4
-5
-6
-7
-8
-9
-11
-12
-14
-14
-15
-16
-17
-19
-20
-21
-21
-21
-22
-22
-23
-24
-24
-24
-24
-25
-26
-26
-25
-26
-25
-26
-26
-26
-26
-26
-27
-26
-26
-26
-27
-28
-28
-29
-29
-30
-31
-32
-32
-33
-33
-32
-33
-33
-33
-33
-33
-32
-31
-31
-31
-30
-30
-29
-29
-29
-28
-27
-26
-25
-25
-23
-23
-22
-23
-23
-23
-23
-23
-24
-23
-23
-22
-21
-22
-22
-22
-21
-21
-21
-21
-20
-20
-19
-18
-18
-16
-16
-14
-13
-12
-11
-9
-7
-5
-4
-3
-1
0
3
4
6
7
9
10
11
13
14
16
17
17
19
18
19
18
18
17
17
17
18
18
17
18
17
17
17
16
17
17
17
18
18
19
20
20
21
23
23
24
25
25
26
26
27
26
26
26
26
26
26
25
25
25
25
25
25
24
24
24
24
24
25
26
26
27
27
28
28
28
29
29
30
31
31
32
32
32
32
32
33
33
33
33
34
33
32
32
31
30
30
29
28
27
26
24
23
22
21
21
21
21
21
21
21
21
21
21
21
22
23
23
24
25
26
26
27
27
27
27
26
27
27
28
28
28
28
28
27
27
27
27
26
26
26
25
24
24
23
22
21
20
19
20
19
17
17
16
16
15
14
14
13
13
12
12
12
12
11
11
11
10
10
9
8
9
8
7
8
8
7
7
7
7
7
6
6
6
6
6
5
5
4
5
5
4
5
4
4
3
2
2
2
1
2
1
1
0
1
1
2
2
2
2
2
2
3
3
3
3
3
2
2
3
3
2
1
0
0
-2
-3
-4
-5
-5
-5
-5
-5
-5
-6
-6
-7
-8
-9
-9
-9
-9
-9
-9
-10
-9
-9
-9
-9
-9
-8
-9
-9
-8
-9
-9
-8
-8
-8
-7
-7
-7
-5
-5
-5
-6
-5
-5
-6
-6
-6
-5
-5
-4
-3
-2
-2
-1
0
1
2
2
2
3
4
4
5
7
7
8
9
9
10
10
10
11
12
13
15
16
17
18
19
19
20
