# Simple Text Format
# Sampling Rate (Hz):= 1200.00
# Resolution:= 12
# Labels:= ECG	 V3
# Age:=	67
# Gender:=	Feminino
23
24
24
24
24
25
25
24
24
24
24
24
23
23
22
23
22
23
22
22
23
23
24
26
27
29
33
37
41
48
54
62
71
80
90
103
115
128
141
155
169
182
194
205
214
222
228
232
235
235
232
228
221
211
199
183
166
147
125
103
79
54
31
6
-18
-41
-63
-85
-105
-125
-142
-158
-172
-184
-195
-203
-212
-216
-219
-221
-219
-218
-214
-209
-203
-196
-187
-178
-168
-159
-148
-137
-127
-115
-104
-93
-82
-72
-62
-52
-43
-34
-27
-19
-13
-6
0
5
9
14
18
21
25
28
30
32
35
37
37
39
41
42
44
45
46
47
48
49
50
51
52
53
53
54
55
55
55
55
55
55
56
56
57
56
57
57
57
57
56
57
56
57
57
57
57
56
57
57
58
57
58
58
58
59
59
59
60
60
61
61
62
62
61
62
63
62
62
63
62
62
62
62
61
61
60
60
61
60
60
60
60
60
60
60
60
62
62
62
63
63
64
64
64
65
66
66
67
68
68
69
70
71
71
72
72
73
74
75
76
77
78
79
79
80
80
80
81
81
82
83
83
83
83
83
82
83
83
84
83
84
84
84
84
84
84
85
85
87
87
87
88
89
90
90
91
92
92
93
94
94
96
96
97
98
99
100
100
101
101
102
103
104
104
104
105
106
106
107
108
109
109
111
112
112
113
115
116
117
119
119
121
122
123
123
124
125
127
127
128
129
130
130
131
132
132
133
134
135
136
137
138
138
139
139
139
139
140
140
140
140
141
140
140
139
139
139
138
139
137
138
137
138
137
136
137
137
136
135
136
135
135
134
133
133
132
131
130
129
129
128
127
126
125
124
123
122
121
120
119
116
115
114
113
112
109
108
106
105
104
102
101
99
99
97
96
95
93
92
91
91
89
89
88
87
87
86
85
85
84
83
82
82
81
80
79
78
77
76
76
75
75
73
73
73
72
71
71
71
70
70
69
69
68
67
66
66
65
64
63
62
61
60
59
58
56
55
53
51
50
48
47
45
45
43
42
42
40
39
38
37
37
35
35
34
34
33
33
32
31
31
30
30
30
29
30
30
29
29
28
27
28
27
27
26
26
25
24
24
23
23
22
21
20
20
19
18
17
16
15
14
14
13
12
11
11
9
8
8
8
8
9
8
9
10
10
10
11
12
14
14
15
17
19
19
21
22
23
24
25
26
27
27
29
29
30
30
31
31
31
32
33
33
34
34
35
36
37
37
38
39
40
40
41
42
43
44
45
46
46
47
47
48
49
50
50
51
52
53
54
54
54
55
55
56
57
57
58
58
59
59
59
60
60
60
60
60
61
61
62
62
63
62
62
62
62
62
62
62
62
62
62
61
62
61
61
60
60
60
60
60
59
60
60
59
60
60
61
62
62
61
62
62
62
62
62
62
62
62
62
61
62
62
60
60
59
58
58
57
57
56
56
55
54
53
53
52
52
52
52
52
52
52
51
51
52
51
50
50
50
50
50
49
48
47
47
46
45
45
44
43
42
42
42
42
42
42
41
42
41
41
42
41
41
41
41
41
41
41
41
41
41
41
41
41
41
41
41
40
41
41
41
40
41
41
41
40
41
40
40
41
40
39
39
39
38
38
38
38
38
38
38
39
39
40
40
40
41
41
42
43
42
43
43
44
44
45
44
44
44
44
43
42
41
40
39
39
38
38
39
38
39
40
41
44
47
50
55
61
67
75
85
95
107
119
132
146
161
176
191
205
218
231
242
253
260
266
270
273
273
271
266
258
248
235
220
201
181
160
137
113
88
63
39
16
-8
-31
-53
-74
-93
-111
-128
-142
-155
-166
-175
-182
-187
-189
-190
-190
-188
-184
-179
-172
-165
-157
-148
-138
-128
-117
-107
-95
-83
-72
-61
-50
-39
-29
-18
-9
0
9
16
23
30
36
41
46
50
54
56
59
61
64
65
66
68
68
69
70
70
70
71
71
71
71
73
73
73
74
75
75
75
76
76
77
77
78
79
80
80
81
81
83
83
83
83
84
85
84
85
85
85
85
84
84
84
83
84
84
83
84
84
84
84
84
85
85
86
87
87
88
89
89
90
91
92
93
94
94
95
96
97
98
99
100
100
102
103
103
104
105
105
106
106
107
107
107
108
108
109
109
110
110
109
109
110
110
110
110
110
111
111
112
112
112
113
113
114
114
114
114
114
114
114
114
115
115
115
116
117
117
118
118
119
120
120
121
123
124
125
126
127
129
130
131
132
133
134
135
136
137
137
139
140
140
141
142
142
144
144
144
145
145
146
147
148
148
148
149
149
150
151
151
152
154
155
156
157
158
158
160
161
162
162
163
163
163
162
163
163
163
164
163
164
164
164
163
163
163
163
163
163
164
165
166
168
169
170
171
172
174
175
176
177
178
179
179
181
181
182
183
182
184
184
183
183
182
182
182
181
181
180
179
178
177
177
176
175
174
173
172
171
170
169
168
167
166
165
164
163
162
161
160
159
158
156
155
154
152
151
150
148
147
145
143
141
139
138
136
134
133
131
129
128
126
124
122
121
119
119
117
116
114
113
112
111
110
109
108
107
106
105
104
103
102
101
100
98
97
96
95
95
94
94
94
93
93
93
92
91
91
91
90
90
91
91
91
91
91
90
90
90
90
90
89
88
88
87
87
86
85
85
84
84
83
82
83
82
81
81
80
79
78
78
78
79
78
78
78
78
77
78
78
77
77
77
78
77
78
78
78
78
78
78
78
77
77
77
76
76
75
74
74
73
73
73
73
72
72
72
72
72
73
73
74
74
75
75
76
77
77
78
79
79
79
79
81
80
81
81
82
82
81
81
82
81
81
82
82
83
83
85
85
86
86
88
88
89
91
91
93
95
95
96
97
98
99
100
101
101
103
103
104
105
106
106
107
108
108
109
110
110
111
112
113
113
114
114
115
116
117
117
118
118
118
119
119
120
120
120
120
120
121
121
121
121
121
121
121
120
121
121
120
120
120
118
118
117
117
117
116
116
114
114
112
111
111
110
109
108
107
106
104
103
102
102
101
101
101
101
101
101
100
101
101
101
102
102
103
103
105
105
105
106
106
106
106
106
106
106
105
105
104
104
104
103
102
101
101
99
98
98
97
97
96
96
94
94
93
92
92
91
89
89
88
88
87
87
87
87
87
87
86
87
87
87
88
88
89
89
90
90
91
91
91
92
92
92
93
93
92
93
92
93
92
92
93
92
93
92
92
92
92
92
92
92
92
93
93
92
93
93
93
92
92
91
91
91
91
90
89
88
87
87
87
86
86
86
86
86
86
87
88
90
92
96
100
106
110
118
126
136
146
157
169
183
198
212
226
241
255
267
278
287
295
302
306
309
309
307
302
294
284
270
254
235
215
192
169
144
119
93
68
44
20
-2
-23
-43
-63
-80
-96
-111
-122
-132
-140
-146
-150
-153
-153
-152
-148
-143
-137
-130
-121
-112
-102
-92
-83
-72
-60
-49
-38
-26
-14
-3
7
17
25
34
42
50
57
64
70
75
80
84
88
92
95
96
99
101
103
105
106
108
109
110
111
112
113
114
115
116
115
116
116
118
119
119
120
121
122
123
124
125
126
127
128
129
130
130
130
130
130
130
130
130
131
130
130
130
130
129
130
130
130
129
130
130
131
131
131
132
132
133
133
134
135
136
136
136
136
136
137
138
138
138
138
139
139
140
140
140
141
141
140
141
141
142
142
142
143
143
143
143
144
144
145
145
146
146
147
147
148
149
150
151
152
153
154
155
155
156
157
156
157
158
157
158
158
159
159
159
158
159
158
159
159
159
159
160
160
160
162
162
163
163
165
166
166
167
167
169
169
170
171
172
172
173
174
174
176
176
176
177
177
178
180
180
181
182
182
184
184
185
186
186
187
188
189
189
191
192
191
193
193
194
194
195
196
197
197
197
198
199
199
200
200
201
202
203
204
204
205
206
205
206
207
206
207
208
209
210
210
210
211
210
211
211
210
211
211
211
211
212
211
212
212
212
211
212
211
212
211
211
211
210
210
210
209
209
208
208
207
206
206
205
203
203
202
200
198
198
196
195
193
191
190
188
187
185
184
182
181
180
178
177
175
174
173
171
170
169
168
166
165
164
163
162
161
160
159
158
156
156
154
153
153
152
151
150
149
149
148
147
146
146
145
145
145
144
143
143
142
141
140
140
139
138
138
138
136
136
135
135
135
133
133
133
133
132
132
131
131
131
131
130
129
129
128
126
126
126
125
125
124
123
123
122
121
121
120
120
120
120
119
118
119
119
119
119
119
119
120
119
119
119
119
119
119
119
119
120
119
119
118
118
117
118
118
117
117
118
117
117
117
117
116
116
116
115
115
115
115
114
115
115
115
115
114
115
115
115
115
115
115
115
115
115
115
115
115
115
115
115
115
114
115
115
115
116
116
117
117
117
118
117
118
118
118
120
120
121
121
122
123
124
124
125
125
127
126
127
128
129
129
130
131
132
133
133
134
135
135
136
136
137
137
138
138
139
140
140
141
142
142
143
144
145
146
148
148
149
150
152
152
152
154
154
155
156
157
158
158
159
159
160
160
159
160
160
160
160
159
159
159
159
158
157
157
157
156
155
154
153
152
151
149
148
146
145
144
142
141
140
139
138
137
135
134
133
132
132
131
131
132
131
132
132
133
132
134
134
134
136
137
137
137
138
138
137
137
138
137
138
137
137
137
136
136
136
136
135
136
135
135
135
134
135
135
134
133
133
132
133
132
131
130
130
130
129
129
128
126
126
125
125
125
124
124
123
123
123
122
122
123
123
122
123
123
123
123
123
123
123
122
122
122
123
123
123
123
123
123
123
123
124
123
124
124
124
124
124
124
123
123
124
123
123
123
122
122
123
122
121
121
121
121
121
120
119
119
119
119
118
118
119
119
119
119
120
121
123
126
130
135
140
146
153
160
169
179
190
202
215
227
242
256
270
283
296
306
316
323
330
333
335
334
333
327
320
309
296
282
264
243
222
198
174
150
124
100
75
51
29
7
-14
-33
-50
-66
-81
-93
-104
-113
-120
-124
-128
-129
-129
-127
-123
-118
-112
-105
-96
-88
-78
-68
-57
-45
-34
-23
-12
-1
10
21
33
42
51
60
69
78
86
93
99
105
110
115
119
123
126
129
132
133
135
137
138
139
140
141
142
143
143
144
143
144
144
144
145
145
146
146
147
147
147
149
149
149
149
150
150
149
150
150
151
151
151
151
152
151
151
152
151
151
151
151
151
151
152
152
153
153
154
154
153
153
154
153
152
154
153
153
153
154
154
154
154
154
155
155
155
155
155
156
156
157
157
157
157
157
157
157
157
158
157
157
158
158
158
159
160
160
160
160
160
161
161
161
162
163
164
165
165
166
167
168
168
169
169
170
171
170
171
171
172
172
172
173
174
175
175
176
177
178
179
179
180
181
182
183
183
184
185
186
186
187
187
188
190
189
190
191
192
192
193
192
193
194
193
194
195
195
196
196
198
198
199
200
201
201
201
202
204
204
205
206
206
208
208
209
210
211
211
212
213
214
214
216
216
216
216
217
217
218
218
219
219
219
219
220
220
220
220
220
220
220
220
221
221
221
221
221
221
221
221
221
222
222
222
222
222
222
222
222
222
221
221
221
220
219
218
217
217
216
215
215
215
213
213
212
210
210
209
209
208
207
207
206
205
205
204
203
203
203
202
201
201
200
200
199
198
198
196
196
195
194
192
191
190
189
187
186
185
183
182
180
179
177
174
173
171
170
168
166
165
164
162
161
160
159
159
158
156
155
154
153
151
151
150
150
149
148
148
147
146
146
145
144
143
143
143
142
142
142
142
141
142
142
142
142
142
143
142
142
142
142
141
141
142
141
141
141
141
141
141
140
140
139
139
138
139
138
138
137
138
138
137
137
136
136
136
135
136
135
135
135
134
133
133
133
133
132
132
132
132
132
131
131
130
130
130
129
129
129
129
129
128
128
128
129
128
128
128
127
127
127
126
126
127
127
127
126
126
127
127
127
128
128
129
130
130
130
131
131
132
132
133
133
134
134
134
135
134
134
134
134
135
135
136
137
137
138
138
138
140
140
142
143
144
145
146
147
148
149
150
150
152
153
154
155
156
156
158
159
160
161
161
162
163
164
165
167
167
168
169
170
171
171
173
173
174
175
175
176
176
176
176
176
176
176
176
177
176
176
176
176
175
175
174
173
173
172
172
171
171
170
170
168
168
168
167
167
165
165
164
163
163
161
161
160
160
158
158
157
157
155
154
153
152
151
151
150
149
149
147
147
146
145
144
144
144
144
144
143
143
142
142
142
142
143
143
143
143
142
143
143
144
143
144
143
143
143
143
143
143
141
141
141
140
140
139
140
140
138
138
138
138
137
137
137
137
135
135
135
134
133
133
132
133
132
132
131
131
131
131
131
131
131
131
131
131
131
132
132
133
134
135
135
135
136
136
137
137
137
138
138
138
139
139
139
139
139
139
139
139
138
137
137
136
134
133
132
131
131
129
128
128
127
127
126
126
126
126
127
127
129
130
133
136
139
144
149
155
162
170
178
188
199
211
223
237
251
264
278
292
303
314
324
332
339
343
345
347
345
341
333
324
312
297
279
259
238
216
192
167
142
117
93
69
45
24
3
-17
-35
-51
-65
-78
-88
-98
-104
-111
-113
-115
-114
-113
-110
-105
-100
-92
-85
-77
-68
-58
-48
-38
-27
-16
-5
6
17
28
38
49
59
68
77
86
93
100
107
113
118
123
128
132
136
139
142
144
147
149
150
151
153
153
154
154
155
155
156
156
157
157
157
156
156
157
157
158
158
159
159
160
160
160
161
162
163
163
163
163
165
165
166
166
167
167
168
168
167
168
168
168
167
166
166
167
167
167
167
168
168
168
168
168
169
169
170
171
172
173
174
175
176
177
177
177
177
178
178
179
178
178
177
177
177
176
176
177
176
176
177
176
177
177
177
177
177
178
178
178
179
180
180
180
180
181
182
181
182
182
182
182
182
182
182
183
183
184
185
184
185
186
186
186
187
188
189
189
190
191
192
193
193
194
195
195
196
197
198
199
199
200
201
202
203
203
204
205
206
207
208
208
210
210
211
211
212
213
213
214
214
215
215
216
217
217
218
218
219
219
220
221
222
223
223
225
225
227
227
228
229
231
231
232
233
234
234
235
235
237
237
238
238
240
240
241
241
242
243
243
243
245
245
246
246
246
247
247
247
246
246
246
247
246
246
245
244
244
243
243
243
243
241
241
239
239
238
237
237
236
235
235
233
233
231
229
228
227
226
225
224
224
223
222
221
220
219
218
217
215
214
212
211
210
208
207
205
204
203
201
199
196
195
194
192
191
189
188
188
187
186
185
184
183
182
182
182
181
181
182
181
181
180
179
179
178
178
177
176
176
175
174
174
173
172
171
170
169
168
168
167
165
164
164
163
163
162
161
159
159
158
158
157
156
155
155
155
155
155
154
153
153
152
153
152
152
152
152
152
151
151
151
151
151
150
150
151
151
152
152
152
150
151
151
150
150
150
150
150
149
150
150
150
150
149
149
149
149
149
148
148
148
148
148
148
148
148
148
148
148
149
149
149
148
149
149
149
149
149
149
149
149
149
149
149
149
149
149
148
149
148
148
148
146
146
145
145
145
144
144
144
144
144
144
144
144
144
145
145
145
145
146
147
147
148
148
148
149
150
150
150
151
152
153
153
154
155
156
157
158
159
161
163
164
165
167
168
170
171
172
174
175
176
177
178
178
179
179
180
180
181
180
181
181
182
183
182
182
182
184
183
184
184
183
183
184
183
184
184
183
184
183
182
182
182
181
180
180
180
178
178
177
177
176
175
175
174
174
173
172
171
171
170
169
168
168
167
166
166
165
165
164
164
164
164
163
163
164
163
163
164
164
164
165
164
164
164
164
164
165
164
164
165
164
164
163
163
161
161
160
159
159
159
158
157
156
155
155
153
153
153
153
152
151
150
150
150
150
149
149
149
148
147
148
148
147
147
147
146
146
146
146
145
145
145
144
144
144
144
144
144
145
145
145
145
145
145
145
144
145
144
145
144
145
145
145
145
145
146
145
144
145
144
144
143
143
142
142
140
139
139
138
137
136
135
134
132
132
131
131
130
129
129
130
131
133
136
140
144
150
156
162
171
181
191
203
216
229
242
256
269
282
293
305
313
321
328
333
335
335
333
329
322
311
299
282
265
244
223
200
175
151
126
101
76
52
28
6
-15
-34
-52
-68
-81
-94
-105
-115
-123
-129
-132
-134
-134
-133
-129
-125
-119
-112
-105
-96
-86
-77
-67
-56
-46
-34
-22
-12
-1
10
21
30
41
50
59
67
74
81
87
93
98
102
105
109
111
113
116
117
119
120
121
121
121
121
121
122
123
122
122
122
122
122
122
122
121
122
122
122
122
122
122
122
122
122
122
123
123
122
122
122
122
122
121
122
121
121
121
121
120
121
120
121
120
121
121
121
122
123
123
123
123
123
124
125
126
126
126
127
129
129
130
130
131
131
132
132
132
132
133
133
133
134
135
135
135
136
136
136
136
137
137
137
137
137
138
138
138
138
139
139
139
139
139
139
139
140
140
141
141
141
141
140
141
140
140
141
140
141
141
141
141
140
140
140
140
141
141
141
141
142
142
143
143
145
145
146
147
147
148
150
150
151
151
153
153
154
155
155
156
157
158
158
159
160
161
162
163
164
165
165
167
168
170
171
172
173
175
176
177
179
180
181
183
184
186
188
189
190
191
192
192
194
195
196
196
197
198
198
198
199
199
200
200
200
201
201
201
201
202
202
202
202
202
202
202
202
203
202
203
203
203
203
204
204
204
203
203
203
203
203
202
201
201
200
199
198
197
196
195
194
192
191
190
188
187
186
185
184
182
180
179
178
176
176
174
172
171
170
167
166
165
164
162
161
159
158
156
154
153
152
150
148
147
146
145
143
142
141
140
139
137
136
135
135
134
133
132
131
129
128
127
125
125
123
123
122
121
119
118
117
117
116
115
114
113
112
112
111
111
110
109
108
108
107
107
106
105
104
104
104
103
103
103
102
102
101
102
101
100
99
99
99
99
99
98
98
98
97
96
97
96
96
96
96
96
96
96
96
96
96
95
96
96
96
96
97
96
96
96
96
95
95
95
95
95
95
94
94
94
93
93
93
93
91
91
91
90
90
90
90
90
90
88
88
88
88
87
86
86
85
85
84
83
83
82
81
81
81
80
79
79
78
77
77
77
77
77
77
76
76
77
77
77
77
78
79
79
80
81
81
81
83
83
85
85
86
87
88
88
89
90
90
91
92
92
91
92
92
92
92
92
92
92
91
92
92
93
93
93
94
94
95
95
96
96
97
97
97
99
100
100
101
102
102
102
103
103
103
103
103
103
104
104
104
104
105
105
104
105
105
105
105
105
104
105
105
104
104
103
103
101
101
101
100
100
99
99
98
97
97
97
96
95
95
95
94
95
95
95
95
95
95
95
95
94
94
94
93
93
92
92
92
91
91
90
90
89
88
88
87
87
87
87
86
86
86
86
85
85
85
84
84
84
83
83
82
81
81
80
80
79
78
78
77
77
76
76
77
77
79
80
83
86
89
94
100
106
114
122
131
140
150
160
169
178
187
195
201
207
210
212
212
211
207
200
192
181
169
153
136
117
96
74
51
28
5
-19
-42
-63
-83
-102
-120
-136
-151
-163
-175
-184
-192
-197
-201
-202
-201
-199
-196
-190
-183
-174
-166
-156
-145
-134
-122
-110
-98
-85
-73
-60
-48
-36
-25
-14
-4
6
15
24
32
39
45
51
57
61
66
70
73
76
78
79
81
82
84
85
85
87
88
88
88
88
89
89
89
90
91
91
91
92
92
92
93
93
93
93
94
94
94
95
95
94
95
95
96
95
96
96
96
97
97
97
98
98
98
99
99
100
101
102
102
102
103
103
105
105
105
106
105
106
106
107
107
107
108
108
108
108
108
108
108
109
108
109
108
108
109
109
109
109
109
109
109
109
110
110
111
111
112
112
113
114
114
115
116
117
117
118
119
120
121
121
121
122
122
122
121
122
121
121
122
121
120
121
120
121
121
121
121
122
123
124
124
125
125
127
127
129
130
131
132
134
135
136
138
139
140
141
142
143
143
144
146
146
147
148
148
149
150
151
151
153
154
155
156
156
158
159
159
161
162
162
164
165
167
168
168
169
170
170
171
171
172
173
173
174
174
174
175
175
175
176
176
176
177
177
177
177
177
177
177
178
178
178
178
178
178
178
178
178
178
177
177
176
177
177
177
177
176
176
177
176
177
176
175
175
174
174
174
174
173
172
171
170
169
167
166
164
163
162
161
160
158
157
155
154
153
151
150
149
148
146
144
144
142
140
139
138
137
135
134
133
130
128
126
124
122
121
119
116
115
113
112
110
109
107
107
106
104
104
103
102
102
102
102
103
103
103
103
104
103
103
103
103
103
103
102
102
102
101
101
100
100
99
98
98
97
96
96
96
95
95
94
93
93
93
92
92
91
89
89
88
88
88
87
87
86
85
85
85
85
86
86
85
86
85
85
85
85
86
86
87
86
87
87
86
85
85
85
85
85
85
85
84
83
84
83
83
82
82
82
80
80
79
78
78
78
77
76
76
76
76
76
76
76
75
75
76
76
76
76
77
77
78
79
79
79
79
80
80
81
80
80
79
79
79
79
79
78
78
77
76
76
76
75
75
75
75
74
74
74
74
73
73
74
74
74
74
75
75
75
75
75
75
76
76
77
77
77
79
79
79
80
80
81
82
82
83
84
84
84
85
85
85
84
85
86
85
86
85
85
85
85
84
84
84
84
84
84
84
83
83
84
84
84
84
85
85
86
86
87
88
88
89
90
92
93
93
95
95
95
97
97
98
98
100
99
100
100
101
101
101
100
101
100
100
100
101
100
101
102
102
102
103
103
103
105
106
108
108
110
111
112
113
114
115
116
115
116
116
117
117
118
117
117
118
117
117
117
116
116
116
115
114
114
114
114
114
113
113
113
112
112
111
111
110
110
109
108
107
107
106
105
105
103
102
101
101
100
99
98
98
97
96
95
95
94
94
93
93
92
92
92
91
90
91
91
90
90
89
89
89
89
89
89
89
89
90
90
90
89
89
89
89
88
88
88
88
88
87
87
87
85
85
84
84
83
82
81
81
81
81
80
80
79
79
78
78
78
76
76
75
76
75
75
75
75
74
74
73
74
73
73
73
73
73
73
73
73
74
73
74
73
74
73
74
75
76
76
76
76
76
75
76
77
77
77
78
77
78
77
78
78
77
77
77
76
75
76
75
76
77
77
77
78
78
79
81
83
85
89
91
96
99
105
111
120
129
139
150
162
176
190
205
220
236
252
266
279
291
303
312
320
324
328
329
327
322
315
304
291
275
257
235
213
188
163
137
110
82
56
30
5
-19
-41
-62
-81
-99
-115
-129
-141
-151
-159
-165
-169
-172
-172
-170
-168
-163
-157
-150
-143
-133
-124
-113
-104
-93
-82
-71
-60
-49
-37
-26
-15
-5
5
14
23
32
39
46
53
59
65
70
74
78
81
84
87
90
91
93
94
95
97
98
98
99
100
100
100
100
100
100
101
101
101
101
101
101
101
102
101
101
102
101
102
101
102
101
101
101
101
102
103
103
103
104
103
103
104
104
105
105
105
106
106
106
107
106
107
107
107
107
107
107
108
108
108
109
110
111
111
111
112
112
114
114
115
116
118
118
119
120
121
121
122
122
122
122
123
123
123
124
124
124
124
125
125
124
124
124
125
126
126
125
125
125
125
125
125
125
126
126
126
127
127
128
129
129
129
130
131
132
132
133
134
134
135
135
136
136
137
138
139
139
140
140
140
140
140
141
141
142
142
143
143
143
143
144
144
144
145
145
146
146
147
148
149
149
150
150
151
151
152
151
152
152
153
154
155
156
156
157
158
159
159
160
161
161
162
163
164
164
166
166
167
167
168
169
170
170
170
170
171
171
172
173
173
175
175
175
176
176
177
177
176
176
176
176
176
176
176
175
174
174
172
171
171
170
169
169
168
168
169
169
169
169
169
171
171
171
171
172
173
172
173
174
174
174
174
174
173
172
172
170
168
167
165
165
163
162
160
158
157
156
155
155
153
152
152
151
150
149
148
148
148
148
146
146
144
144
143
142
140
139
138
137
136
134
133
131
130
129
127
126
125
124
123
122
122
120
120
119
118
117
116
115
115
114
113
112
111
110
110
110
109
109
108
108
108
107
106
106
106
105
105
105
104
103
102
102
101
101
100
100
99
99
97
98
97
97
97
96
95
95
94
94
94
94
93
93
93
93
93
92
92
91
90
90
90
89
89
90
89
89
89
87
87
87
87
88
88
89
89
89
89
89
89
90
90
90
91
91
91
90
91
90
91
90
90
89
89
87
87
87
87
86
85
85
85
85
84
85
84
84
84
84
84
85
85
85
86
86
86
87
87
87
87
87
88
87
88
88
88
90
90
90
91
92
91
92
92
94
94
95
96
96
97
97
99
99
100
101
101
102
103
103
104
105
105
107
108
108
109
111
111
112
113
113
115
115
116
117
117
118
120
120
121
122
122
122
123
123
122
123
124
124
124
124
123
124
124
124
122
122
122
121
120
119
119
119
118
117
116
115
114
113
112
111
111
111
110
110
110
110
110
109
109
109
108
108
107
107
107
106
106
106
104
104
104
104
103
103
103
104
103
104
105
105
105
105
105
105
105
106
106
106
106
106
105
106
104
104
103
102
101
100
98
97
96
94
93
93
92
91
91
90
91
90
89
89
88
88
88
88
88
87
87
87
86
86
86
87
87
87
87
87
86
85
86
85
86
86
86
86
86
85
85
85
85
86
85
86
85
86
85
85
85
84
85
84
84
85
85
85
85
86
87
87
88
88
87
87
87
86
86
86
85
85
85
84
84
85
84
84
84
85
85
87
90
95
100
106
113
121
131
142
154
167
181
194
210
225
240
255
267
279
289
297
304
309
311
311
309
304
296
285
271
256
237
216
193
170
146
120
94
69
43
20
-3
-26
-46
-64
-82
-97
-110
-122
-130
-138
-145
-149
-151
-152
-150
-147
-143
-137
-131
-123
-115
-105
-96
-86
-75
-65
-53
-43
-32
-21
-10
0
10
21
30
39
48
56
63
70
76
81
87
91
95
98
102
104
107
109
110
112
112
113
114
114
115
116
116
117
116
117
117
117
117
117
118
118
118
119
119
120
120
120
120
121
121
121
121
122
122
122
122
123
122
123
123
123
123
124
125
125
124
125
125
126
127
126
127
127
128
128
128
127
127
127
127
127
127
128
129
128
129
129
129
129
129
130
130
131
132
131
132
132
133
133
134
134
135
135
135
135
135
136
136
137
137
137
138
138
139
139
139
139
140
139
139
138
139
139
138
139
139
139
138
139
139
139
139
140
140
141
142
143
144
145
145
146
147
147
148
149
150
151
151
153
154
155
156
157
156
157
158
158
159
160
161
162
162
163
164
163
164
165
165
166
167
167
168
168
170
171
172
174
175
176
177
178
179
181
182
184
185
186
188
189
190
191
193
194
195
195
196
197
198
199
199
200
201
202
201
203
204
204
204
204
205
206
206
206
205
206
206
206
205
205
205
204
202
202
201
199
198
197
196
194
193
191
190
189
188
186
185
185
184
183
183
183
182
182
183
183
183
184
184
184
185
185
185
185
185
185
185
183
182
182
180
179
177
176
174
173
171
169
167
165
162
160
158
156
154
152
151
150
148
147
146
145
144
142
143
142
141
141
140
139
138
137
136
135
134
133
132
132
130
129
130
129
128
127
126
126
125
124
124
123
123
123
122
122
121
120
120
120
118
118
117
116
116
115
113
113
113
112
111
110
108
107
105
105
105
104
103
103
103
103
103
102
103
102
102
103
103
102
103
104
103
104
103
104
103
103
104
104
103
103
102
101
101
100
100
100
100
100
100
100
100
100
100
100
100
100
101
102
102
102
104
104
105
104
105
104
104
105
105
106
106
107
106
106
106
106
105
105
104
104
104
103
102
102
102
102
101
101
101
101
101
100
100
100
100
100
99
100
100
100
100
100
100
100
99
99
98
99
99
98
98
99
98
98
98
98
97
96
96
94
94
94
93
92
91
90
90
89
89
89
88
88
89
88
88
88
89
91
92
93
95
97
99
101
103
105
107
109
111
114
116
117
120
122
123
124
126
127
128
129
129
131
131
131
131
132
132
132
132
132
132
132
132
132
132
131
131
131
132
131
132
132
132
132
133
133
133
134
133
133
133
134
134
134
134
135
135
136
136
135
136
136
136
135
136
136
136
136
135
135
134
134
133
133
132
131
130
130
128
127
126
125
124
123
122
121
119
119
119
118
118
118
117
117
117
116
117
116
116
117
116
117
117
118
118
118
118
118
118
118
118
118
118
117
117
117
115
115
114
114
113
112
112
110
109
107
105
104
103
102
101
100
99
99
98
98
96
96
96
95
96
95
95
96
95
95
95
96
95
95
95
95
95
96
97
96
96
96
96
95
95
95
95
94
94
94
94
95
95
95
95
95
95
96
96
97
97
97
98
99
99
100
100
101
100
99
99
98
97
97
95
94
93
91
89
88
86
84
83
81
80
79
78
78
79
81
82
85
88
93
99
105
113
121
131
142
154
169
184
200
217
234
251
269
286
301
316
329
340
351
359
364
367
368
365
361
353
342
328
312
292
271
248
223
197
171
143
115
89
61
36
12
-11
-34
-55
-74
-91
-106
-120
-130
-139
-145
-150
-152
-151
-150
-147
-142
-135
-128
-119
-110
-100
-90
-78
-66
-55
-42
-31
-18
-7
4
14
25
35
43
52
60
66
73
78
83
88
92
96
99
103
105
107
109
111
112
112
114
114
114
115
115
116
116
117
116
116
116
116
117
118
117
118
118
118
119
119
120
120
120
120
120
121
121
121
122
122
123
124
124
124
124
124
124
124
125
124
124
124
124
124
124
124
125
125
124
125
125
124
125
125
125
125
125
126
125
126
127
127
128
128
129
129
128
128
129
128
129
129
129
129
130
130
129
130
131
131
131
132
132
132
132
134
134
134
135
135
135
135
136
136
136
136
137
137
139
139
139
140
140
140
141
141
140
140
140
140
141
141
142
143
143
144
144
144
144
144
144
143
143
143
144
144
145
145
146
147
147
147
148
149
149
150
151
152
154
154
156
157
158
159
160
161
162
163
164
165
166
168
169
170
171
172
173
173
173
174
175
176
176
178
178
179
180
180
181
182
183
184
185
186
188
189
190
192
192
193
194
195
195
197
197
198
199
199
199
199
199
199
198
197
198
197
196
195
195
194
193
191
191
190
189
188
189
188
187
186
185
185
184
183
183
183
183
183
183
184
183
182
182
180
179
179
177
176
175
174
172
171
169
167
165
164
162
161
158
157
156
155
154
152
151
150
150
149
149
148
147
147
146
145
145
144
143
142
140
140
139
138
136
135
133
132
131
130
128
127
125
123
122
121
120
119
117
116
115
114
113
111
111
111
109
109
108
106
105
104
104
104
103
103
103
102
100
100
99
99
98
97
96
95
94
93
93
91
90
89
88
88
87
86
84
84
82
81
80
79
78
77
76
76
76
75
75
74
74
73
73
73
73
72
73
72
71
71
72
71
71
72
71
71
70
71
70
69
70
69
69
69
68
68
69
68
68
67
68
67
67
66
66
66
65
65
64
64
63
63
62
62
61
61
60
59
58
57
57
56
56
56
55
54
54
54
53
53
53
52
53
53
53
52
52
53
54
53
54
54
54
54
55
55
56
57
58
57
58
59
59
60
60
60
61
61
62
62
63
63
64
64
65
65
65
66
67
66
67
67
67
67
67
67
67
67
67
67
67
66
67
67
67
68
68
69
70
71
71
72
73
74
75
76
78
78
78
80
80
80
81
82
82
83
83
82
82
82
80
80
80
79
79
78
77
77
76
76
75
75
74
74
73
72
72
70
70
70
70
69
70
70
69
68
68
68
67
67
66
67
66
66
66
65
65
65
65
65
65
65
65
64
64
64
63
62
62
61
61
60
59
58
59
58
57
56
55
54
54
52
51
52
51
50
50
49
49
49
49
49
48
47
47
47
47
46
45
45
45
44
44
44
44
44
44
43
42
42
42
42
42
41
42
41
41
41
40
40
40
39
39
39
39
38
38
38
37
37
36
36
35
35
35
34
35
35
34
35
35
35
34
33
33
32
33
33
33
33
33
33
32
32
32
31
33
33
35
38
41
44
48
54
61
67
76
86
97
110
123
138
153
169
184
200
214
226
238
248
257
263
268
271
271
268
263
255
243
228
212
193
172
149
126
100
75
49
22
-3
-28
-52
-74
-95
-114
-132
-148
-162
-175
-186
-195
-202
-207
-210
-211
-211
-208
-204
-199
-192
-185
-176
-167
-156
-146
-135
-124
-113
-101
-90
-79
-68
-58
-48
-38
-30
-22
-14
-7
0
6
12
16
19
23
26
29
31
34
35
38
39
39
40
41
41
42
42
42
42
43
42
42
43
43
43
43
43
43
43
43
44
43
44
43
44
44
43
42
43
43
43
42
43
43
43
44
43
43
44
45
44
44
45
45
46
47
48
48
49
49
50
50
50
51
51
51
51
51
52
52
52
53
53
53
54
54
55
54
54
55
55
56
56
56
56
56
56
55
56
56
55
55
55
56
56
56
56
56
56
56
56
56
56
57
57
57
58
58
59
59
59
60
60
60
61
61
61
61
61
61
61
62
63
63
63
64
63
63
64
64
64
65
66
67
67
68
68
68
68
69
69
70
71
71
72
72
74
74
74
75
76
77
78
78
80
81
81
82
83
85
86
86
88
89
90
90
91
92
93
94
95
96
97
98
98
99
101
101
101
101
103
103
103
104
104
104
105
105
105
106
105
106
107
107
107
107
107
107
108
109
109
110
111
111
112
113
113
114
114
115
115
115
115
115
116
115
115
115
115
115
114
113
113
111
112
110
109
109
107
106
105
104
104
103
102
101
100
100
99
98
96
95
95
93
93
91
90
89
87
86
85
83
81
80
78
76
75
73
71
69
68
65
64
63
60
59
58
57
55
54
53
51
50
48
46
46
44
43
42
40
38
38
37
35
34
33
33
32
31
30
28
28
28
27
27
25
25
26
25
24
24
24
24
24
23
23
23
22
22
21
20
20
20
19
19
18
18
17
17
17
17
17
17
16
15
15
14
14
14
13
13
12
11
11
11
10
11
11
9
10
10
9
9
9
9
9
9
9
8
7
6
7
5
5
5
5
5
5
5
4
4
3
4
3
4
4
5
5
6
6
7
7
7
7
7
6
6
6
5
5
6
5
5
5
4
3
3
3
3
2
2
1
1
1
1
0
0
1
1
0
0
1
1
1
1
2
2
3
3
4
4
4
5
4
5
5
5
6
7
6
6
6
6
6
6
7
7
7
7
7
7
7
7
7
7
7
7
8
8
7
9
9
10
10
11
12
12
13
13
14
15
16
17
18
18
20
21
21
22
22
23
23
24
25
25
26
26
27
27
27
27
27
29
29
29
29
29
30
31
31
31
33
33
33
34
35
35
36
36
36
36
38
38
38
39
39
39
38
37
37
37
35
35
34
33
32
31
30
29
28
27
25
25
24
23
22
22
22
21
21
20
19
19
18
18
17
16
16
15
14
13
13
12
12
12
12
11
11
10
11
10
11
11
11
10
10
10
10
11
12
12
11
11
12
11
11
10
10
10
9
9
9
8
8
7
7
7
6
6
5
5
4
3
3
3
2
2
2
1
1
0
0
0
-1
-1
-2
-3
-3
-4
-4
-3
-3
-3
-4
-3
-3
-3
-4
-4
-4
-4
-4
-3
-2
-2
-1
-2
-1
-1
-2
-1
-1
0
0
0
0
0
0
0
0
0
0
0
0
0
0
-1
-1
-2
-2
-3
-3
-5
-6
-6
-7
-7
-7
-8
-8
-8
-7
-6
-6
-5
-4
-2
-1
2
6
11
17
25
32
42
52
62
75
88
103
118
134
149
166
180
194
206
217
226
234
240
243
243
241
235
227
215
201
184
164
142
119
94
67
41
14
-12
-39
-65
-89
-112
-132
-152
-171
-186
-202
-215
-224
-234
-241
-245
-249
-249
-249
-247
-243
-238
-231
-223
-215
-205
-196
-186
-176
-164
-153
-141
-130
-120
-108
-98
-87
-77
-67
-57
-49
-42
-34
-28
-22
-18
-14
-10
-7
-4
-1
1
3
3
5
6
7
8
9
9
10
11
11
12
13
14
14
14
15
14
15
15
15
15
15
15
15
14
14
14
13
13
13
13
11
11
12
12
12
13
13
15
15
16
16
17
18
19
21
22
23
23
24
24
24
25
25
25
25
25
24
23
24
24
24
24
24
24
25
25
25
25
25
27
27
28
30
31
31
32
33
33
34
35
36
36
36
36
36
36
36
35
35
34
34
34
34
34
33
34
33
34
34
34
35
35
35
36
37
37
38
38
40
41
41
42
43
44
44
45
45
45
46
46
46
47
47
47
47
47
47
47
47
47
46
46
46
46
47
47
47
48
48
49
50
51
52
52
54
55
57
58
59
61
62
63
65
66
68
70
72
72
73
75
76
77
78
79
79
80
81
82
83
84
85
86
86
87
87
87
88
89
90
89
90
91
91
91
91
92
93
93
93
94
95
95
96
95
96
96
98
98
98
99
99
100
100
101
101
102
101
101
102
101
101
101
100
100
99
99
99
98
98
97
97
97
95
95
95
93
93
92
91
90
89
87
87
86
85
84
83
81
80
78
77
76
74
72
71
69
68
67
66
64
63
61
60
59
58
57
55
55
54
52
51
50
49
47
45
44
43
41
40
39
37
36
34
33
32
30
29
27
27
25
24
23
22
21
20
20
19
18
17
17
16
15
15
15
14
14
14
14
14
14
14
14
15
14
15
15
15
15
14
14
15
15
15
15
15
15
14
14
14
14
14
12
12
12
12
11
10
9
9
9
8
7
7
7
7
6
6
6
6
6
6
6
5
6
6
6
6
6
6
6
6
6
6
6
5
5
5
5
5
5
6
6
6
6
6
5
5
5
6
6
6
6
6
6
7
7
6
6
5
5
5
4
4
3
2
2
2
3
3
3
3
2
2
1
0
1
0
1
0
1
0
-1
0
-1
0
0
0
-1
0
0
0
1
2
2
3
3
5
4
5
5
6
6
7
7
8
8
9
9
10
11
11
12
12
13
13
14
14
15
15
16
17
18
18
19
19
20
21
21
22
23
23
24
25
26
27
27
28
29
30
30
30
31
32
33
34
34
35
35
35
35
35
36
36
36
34
34
35
34
34
33
34
34
33
33
33
32
32
31
31
30
30
29
29
28
28
28
27
27
26
25
25
25
23
23
21
21
20
20
19
19
17
17
16
15
14
15
14
13
13
14
14
14
14
14
13
13
13
12
12
13
12
13
12
12
11
10
10
9
9
9
8
7
7
6
5
5
4
3
3
3
3
2
2
2
1
1
2
1
1
1
2
1
1
1
1
1
1
1
2
2
0
0
0
0
0
0
0
1
1
1
1
1
0
0
0
0
0
-1
-1
-1
-1
0
0
0
0
0
0
-1
-1
-1
-1
-1
0
-1
-1
-1
0
-1
-2
-2
-3
-3
-3
-3
-4
-4
-4
-5
-6
-6
-6
-5
-5
-5
-4
-3
-2
0
3
6
11
16
21
29
36
44
54
65
78
92
105
121
135
150
164
178
189
199
208
215
220
223
224
222
217
210
200
188
172
154
134
112
89
65
39
14
-12
-36
-60
-83
-105
-126
-143
-162
-178
-192
-205
-215
-225
-233
-238
-241
-242
-242
-241
-237
-233
-227
-220
-212
-204
-196
-186
-176
-166
-155
-145
-133
-123
-112
-102
-91
-81
-71
-63
-54
-45
-38
-31
-24
-18
-14
-9
-4
-1
2
5
7
10
11
12
13
14
15
17
18
18
20
19
20
20
20
21
21
23
23
24
24
24
24
26
25
25
26
26
26
26
25
25
25
25
25
25
25
26
26
26
27
28
27
27
28
28
29
29
29
29
30
30
30
30
30
30
29
30
30
29
29
28
28
28
28
28
28
28
28
28
28
28
27
28
29
28
29
29
29
30
31
30
31
31
31
32
33
34
35
36
37
38
39
39
40
41
43
44
45
46
46
48
48
48
49
49
49
50
50
51
50
51
50
51
50
50
51
51
51
52
53
53
54
54
55
56
57
57
57
58
58
59
59
59
59
59
60
59
60
59
59
59
60
59
60
60
61
62
62
64
65
66
67
68
69
71
72
74
75
77
79
81
82
85
86
87
88
89
90
91
92
93
95
95
96
96
96
98
98
97
97
98
98
98
99
99
99
99
100
100
100
101
101
100
101
101
101
103
103
102
103
103
103
103
103
103
102
102
102
102
101
101
100
100
100
99
99
99
97
97
97
97
96
96
95
94
93
93
93
91
91
90
89
87
86
85
84
83
81
80
79
78
76
74
73
72
70
68
67
65
63
60
59
57
56
54
52
51
50
48
47
47
46
45
44
43
43
43
43
43
43
45
45
45
45
44
44
43
42
42
43
42
42
41
41
39
38
37
35
33
32
31
30
29
29
28
27
26
26
25
24
23
23
23
21
22
21
21
20
21
20
20
20
20
20
20
19
19
19
19
20
19
19
18
18
17
18
16
15
15
14
14
14
14
13
13
12
12
12
11
11
11
11
12
12
13
13
13
13
14
14
13
13
13
14
14
14
14
14
14
14
14
13
14
13
13
13
12
12
12
12
12
12
12
11
11
11
11
11
10
9
9
9
9
9
9
8
8
8
8
8
8
8
7
7
7
8
7
7
7
7
7
7
7
7
7
8
8
9
8
9
9
9
9
9
10
11
12
12
13
14
14
14
15
15
16
16
17
18
18
19
20
20
21
22
23
23
24
25
25
26
27
28
29
31
32
34
34
36
37
39
41
43
45
46
47
48
49
50
50
51
52
52
52
53
53
53
54
54
54
54
53
53
52
51
51
50
49
49
47
48
47
48
48
47
47
47
47
47
47
47
46
48
48
48
48
49
49
49
49
48
48
47
47
47
46
44
44
43
42
41
41
39
39
38
37
37
35
36
35
34
34
34
33
33
33
32
32
31
32
32
32
32
32
32
33
33
33
33
33
33
32
32
32
31
30
30
29
28
27
27
26
25
23
22
22
21
19
19
17
17
16
16
16
15
15
15
15
16
16
16
16
16
16
16
16
17
16
16
16
15
15
16
15
16
15
15
14
15
14
15
16
16
17
18
19
19
20
20
21
23
24
24
25
25
25
23
24
23
21
21
20
20
19
19
18
17
16
15
13
13
13
13
13
14
14
15
16
17
18
19
21
24
26
30
34
40
47
54
62
72
82
95
108
123
137
152
168
184
200
215
229
241
251
261
268
273
276
276
274
269
261
250
236
219
200
180
156
133
107
81
54
28
1
-23
-47
-71
-93
-114
-132
-150
-166
-180
-193
-202
-211
-217
-221
-223
-223
-222
-219
-215
-208
-201
-193
-184
-175
-164
-153
-142
-130
-118
-106
-95
-83
-71
-61
-50
-40
-32
-24
-16
-9
-3
4
9
14
19
22
26
28
30
32
33
35
36
38
38
40
40
41
41
42
42
43
43
43
44
44
44
45
45
46
46
47
47
47
48
47
48
48
48
49
48
49
48
49
48
48
49
48
48
48
48
47
46
47
46
47
47
46
46
47
47
47
47
48
48
48
49
49
50
51
50
51
53
53
54
54
55
56
55
56
57
57
58
58
59
59
60
59
60
61
61
62
63
63
64
64
64
65
66
66
66
68
68
69
69
69
69
69
70
70
71
70
71
71
72
72
72
72
73
73
74
74
73
74
74
74
75
75
75
75
76
75
75
76
76
76
77
77
78
79
79
80
80
81
81
82
83
85
86
87
87
89
90
92
94
94
95
97
98
99
101
102
103
104
105
107
108
109
110
111
112
113
114
116
116
118
119
120
121
121
123
123
123
124
125
125
125
126
126
126
127
127
127
127
127
127
127
128
128
128
128
128
128
128
128
129
129
129
129
129
129
130
130
130
130
131
131
131
130
130
130
130
130
128
129
128
128
128
127
127
126
126
124
124
123
122
122
121
121
120
120
118
117
116
115
115
114
114
113
112
111
110
109
108
106
105
104
103
101
100
98
97
95
93
92
90
89
86
85
84
82
79
78
76
75
73
72
71
69
69
67
67
65
64
64
64
63
62
62
61
60
59
58
58
57
57
56
55
54
54
53
52
51
50
49
48
47
47
45
45
43
43
41
41
39
39
38
38
37
36
36
36
35
35
34
34
34
33
33
33
33
33
33
33
33
34
34
34
34
34
34
35
35
35
35
35
35
34
35
35
34
34
34
34
33
34
33
32
32
31
30
29
29
29
28
28
27
27
27
26
25
24
24
24
24
24
23
24
24
24
24
24
23
23
23
23
23
23
22
22
21
21
21
21
21
20
20
19
18
19
18
18
19
20
20
20
21
21
21
22
23
23
24
25
26
27
28
28
29
29
31
31
32
33
33
34
35
35
36
37
37
38
39
40
40
41
41
42
43
43
45
45
46
46
48
48
49
50
50
51
52
53
53
55
56
57
57
58
59
60
61
62
63
63
65
65
65
66
66
66
66
66
66
66
65
66
65
65
65
64
64
63
63
62
61
61
60
60
60
59
58
58
58
57
55
55
54
53
53
53
52
52
51
50
50
49
48
47
47
47
46
46
46
46
45
45
45
45
45
44
45
45
45
45
45
44
45
45
43
43
42
41
40
40
38
37
36
35
34
32
31
30
29
28
28
27
26
25
26
25
25
25
25
25
26
26
26
26
26
26
27
27
26
26
26
27
27
27
26
26
26
24
24
24
24
24
24
24
23
23
24
24
23
23
23
23
24
24
24
24
25
25
25
25
26
26
26
26
27
27
28
28
28
28
27
27
27
26
25
24
24
22
20
19
18
17
17
17
16
15
16
17
17
19
21
23
26
31
37
42
50
59
70
81
94
108
122
138
154
170
185
200
215
228
239
249
256
262
266
267
265
262
254
244
231
214
196
175
153
128
103
76
49
24
-3
-28
-53
-77
-99
-119
-138
-156
-172
-185
-197
-206
-214
-219
-222
-225
-225
-223
-220
-214
-209
-202
-193
-185
-175
-165
-154
-144
-133
-121
-109
-98
-86
-76
-65
-55
-46
-37
-28
-21
-14
-8
-1
4
9
13
17
20
22
25
26
28
29
30
31
32
32
32
33
33
33
33
33
32
33
33
33
33
33
34
34
35
35
35
36
36
37
37
37
37
37
38
38
39
38
39
39
39
40
39
40
40
40
39
39
40
40
40
41
41
41
41
41
41
42
41
41
42
42
42
43
43
43
43
43
44
44
45
45
46
46
46
47
48
48
48
49
49
49
49
50
50
51
51
52
52
53
54
54
54
54
54
54
55
55
56
55
56
56
56
56
56
56
57
57
56
56
57
57
56
56
56
56
56
56
56
56
56
56
56
56
56
56
56
57
57
57
56
57
57
57
59
60
60
60
62
62
63
64
64
65
67
67
68
70
71
71
73
73
75
76
77
78
78
80
81
83
83
84
86
86
88
88
90
91
91
93
94
95
96
96
97
98
99
98
100
100
101
101
101
102
102
103
103
103
105
105
106
106
106
107
108
109
109
109
110
111
111
111
112
112
112
112
112
112
111
112
111
111
111
110
109
109
108
107
107
106
105
104
103
102
102
100
99
98
99
97
96
95
93
92
91
90
89
87
87
86
85
84
83
82
80
78
77
75
74
72
72
70
70
68
67
65
63
62
60
59
58
57
56
54
53
52
51
50
49
48
47
46
45
44
44
42
42
42
40
39
38
36
35
34
33
33
31
31
29
28
27
26
24
23
21
21
20
19
19
18
17
17
16
16
15
15
14
15
14
14
14
15
14
14
13
13
12
11
12
11
11
10
8
8
6
6
5
5
4
4
3
2
2
1
2
1
1
0
-1
0
-1
-1
-1
-1
-1
0
0
0
0
1
1
0
1
0
0
0
0
0
0
0
1
1
0
-1
-1
-2
-3
-2
-3
-3
-3
-3
-4
-4
-4
-4
-5
-5
-5
-5
-5
-5
-4
-4
-4
-4
-4
-5
-4
-4
-5
-6
-7
-6
-7
-7
-7
-7
-7
-8
-7
-8
-8
-8
-7
-8
-7
-7
-7
-6
-6
-6
-5
-4
-3
-3
-2
-1
-1
0
1
2
2
3
5
6
6
7
8
9
9
10
12
12
14
14
16
16
17
17
17
17
18
18
19
19
20
20
21
21
22
22
22
23
23
24
25
25
26
27
28
28
29
30
30
31
32
32
33
32
33
33
33
33
34
34
33
33
32
32
32
31
31
32
32
31
31
30
29
28
28
27
27
27
26
27
26
26
25
24
23
23
22
21
21
20
19
18
17
16
16
15
13
13
12
11
10
10
10
9
9
9
8
9
9
9
10
11
11
12
12
12
12
12
13
13
12
12
12
12
11
10
9
8
7
5
5
3
1
0
-2
-3
-5
-5
-6
-6
-7
-6
-6
-7
-7
-7
-7
-6
-5
-5
-4
-4
-4
-4
-3
-2
-3
-2
-2
-1
-1
-2
-2
-2
-3
-2
-2
-3
-3
-3
-4
-4
-5
-4
-6
-5
-5
-6
-6
-6
-7
-6
-7
-7
-8
-8
-8
-8
-9
-8
-8
-8
-7
-7
-7
-7
-7
-8
-8
-8
-8
-9
-9
-10
-10
-10
-10
-10
-9
-9
-8
-7
-6
-4
0
4
8
13
20
28
36
47
57
69
84
98
113
127
142
158
173
185
198
208
217
224
230
233
233
231
226
219
208
195
179
160
140
117
94
69
42
16
-10
-36
-61
-85
-109
-130
-150
-169
-187
-202
-216
-227
-237
-245
-251
-255
-257
-258
-256
-254
-249
-244
-237
-230
-221
-213
-204
-193
-183
-172
-162
-151
-140
-129
-118
-107
-97
-88
-79
-70
-62
-55
-46
-40
-34
-28
-24
-19
-15
-12
-8
-6
-4
-2
-1
1
2
3
4
4
4
4
5
6
6
7
6
6
7
7
7
7
8
8
8
7
8
8
8
8
9
8
9
9
9
9
9
9
10
10
11
11
12
12
12
13
13
14
14
16
16
16
16
17
17
17
18
18
18
18
18
20
20
20
20
19
19
19
20
19
19
20
20
21
21
21
22
22
22
22
23
24
24
25
26
26
27
27
28
29
29
29
30
30
31
31
31
32
32
32
32
31
32
32
32
32
32
31
31
30
30
30
30
30
31
31
31
31
32
32
32
33
34
34
35
35
36
37
37
39
39
39
40
40
40
41
41
42
42
43
43
44
44
44
44
44
45
45
45
46
46
47
47
48
49
50
50
52
52
53
54
56
56
57
59
59
61
62
63
64
65
66
67
67
68
70
71
71
73
74
74
75
75
77
78
78
79
79
79
80
81
81
82
81
82
83
82
82
82
82
82
82
82
81
81
82
81
81
81
80
81
81
82
81
82
81
82
82
80
80
80
79
79
79
78
78
77
78
77
75
75
74
73
72
71
71
70
69
69
67
67
65
65
64
62
62
62
60
59
58
57
55
54
53
51
49
48
47
46
44
42
40
39
37
36
35
33
31
29
28
26
26
25
23
22
21
20
19
18
17
16
15
14
13
13
12
11
10
10
9
8
8
7
6
5
5
4
4
3
3
3
2
2
1
1
0
0
0
-1
-2
-2
-2
-2
-3
-3
-3
-4
-3
-4
-5
-5
-6
-6
-7
-7
-8
-9
-9
-9
-10
-10
-10
-11
-11
-11
-12
-12
-11
-12
-12
-11
-12
-12
-12
-12
-12
-12
-12
-13
-13
-13
-13
-14
-14
-15
-15
-15
-15
-15
-15
-16
-16
-15
-16
-16
-15
-15
-14
-14
-14
-14
-14
-14
-14
-14
-13
-13
-14
-13
-13
-14
-14
-14
-13
-14
-14
-14
-14
-13
-13
-14
-15
-14
-14
-14
-15
-14
-13
-14
-13
-13
-14
-14
-13
-13
-13
-13
-11
-11
-10
-10
-10
-9
-8
-8
-8
-7
-7
-7
-6
-5
-5
-4
-4
-3
-2
-2
-1
0
1
1
3
3
4
5
7
8
9
10
12
13
14
15
15
16
17
18
20
20
21
22
23
24
23
24
25
25
25
24
25
26
25
25
25
25
25
25
24
24
24
24
23
23
22
22
20
20
20
20
20
19
20
19
19
19
20
19
19
18
18
19
18
18
17
18
17
16
16
15
15
13
12
11
11
9
8
7
6
5
4
4
3
3
1
1
1
1
0
1
0
1
0
1
1
1
1
1
1
2
2
1
2
1
1
1
1
1
1
0
0
-1
-1
-2
-3
-3
-4
-5
-5
-5
-7
-8
-9
-10
-10
-11
-11
-11
-11
-11
-11
-11
-12
-12
-11
-12
-11
-11
-11
-10
-10
-10
-9
-10
-10
-10
-11
-10
-11
-11
-11
-12
-12
-12
-12
-12
-12
-12
-11
-12
-12
-11
-12
-11
-12
-12
-12
-12
-12
-12
-12
-12
-12
-12
-14
-14
-14
-15
-16
-17
-18
-18
-19
-20
-21
-22
-24
-25
-25
-26
-26
-26
-24
-23
-22
-19
-16
-11
-6
-2
5
13
22
32
43
55
69
83
99
114
128
143
158
171
182
192
199
206
211
214
214
210
205
196
185
171
154
136
115
93
69
44
19
-7
-32
-58
-81
-104
-127
-146
-165
-183
-198
-212
-224
-235
-244
-251
-255
-259
-261
-261
-259
-255
-251
-245
-239
-232
-224
-215
-206
-197
-187
-177
-167
-155
-145
-134
-124
-114
-104
-94
-86
-77
-69
-61
-54
-46
-41
-35
-29
-25
-21
-17
-14
-10
-8
-6
-4
-3
-2
-1
-1
0
0
0
1
0
0
0
0
0
1
1
1
1
0
0
0
1
1
1
0
0
1
1
2
2
3
3
3
4
4
3
4
4
5
5
5
5
6
7
7
8
8
8
8
8
7
7
8
8
8
9
9
9
9
9
9
10
10
10
10
10
10
10
10
11
10
10
11
10
9
10
10
9
10
9
9
9
8
9
9
9
9
9
9
10
10
11
11
12
13
13
13
14
15
15
16
17
18
19
19
19
20
20
21
21
21
21
21
22
22
22
22
23
23
23
22
23
23
23
23
23
24
24
24
25
25
25
26
27
28
28
28
29
31
32
32
33
34
35
37
37
38
39
40
41
41
43
44
45
45
46
47
48
49
50
50
51
52
53
54
55
55
57
58
58
60
61
62
63
64
66
66
67
69
70
70
71
72
72
73
73
74
74
74
74
74
74
73
74
73
73
73
73
73
73
73
73
73
73
72
72
72
71
71
70
70
69
68
68
68
68
68
67
67
67
66
66
66
64
64
64
63
62
62
61
60
59
58
56
55
54
52
51
50
48
47
45
44
41
40
38
37
35
35
33
31
29
29
27
26
25
23
23
22
21
20
18
17
17
16
16
15
14
13
13
12
11
10
9
9
8
7
6
5
4
5
4
3
1
0
-1
-3
-3
-4
-6
-6
-7
-8
-9
-10
-10
-10
-11
-11
-11
-11
-10
-9
-10
-9
-9
-9
-9
-10
-9
-10
-10
-11
-10
-10
-11
-11
-11
-12
-12
-13
-14
-14
-14
-14
-15
-14
-14
-15
-14
-14
-13
-14
-14
-14
-14
-14
-14
-15
-14
-14
-14
-14
-15
-15
-15
-14
-15
-16
-15
-16
-16
-16
-17
-17
-17
-17
-17
-18
-17
-18
-17
-18
-18
-19
-19
-19
-19
-19
-19
-19
-20
-19
-19
-20
-20
-19
-20
-20
-20
-20
-20
-21
-20
-21
-21
-21
-21
-22
-22
-22
-23
-23
-24
-25
-24
-25
-25
-25
-26
-26
-26
-25
-25
-25
-25
-24
-24
-23
-22
-21
-21
-20
-19
-18
-17
-16
-16
-15
-14
-13
-11
-10
-9
-7
-7
-5
-4
-3
-2
0
2
2
3
4
5
6
6
8
7
7
8
7
8
8
8
8
8
9
9
9
8
8
9
9
10
9
10
11
12
12
12
14
15
15
16
16
16
17
17
18
18
18
19
19
19
18
18
17
17
17
16
16
15
14
13
13
12
10
10
9
9
8
8
8
7
7
7
6
6
6
6
5
5
5
4
5
4
3
4
3
2
1
0
0
0
0
0
0
-1
0
0
0
1
1
0
0
1
1
1
1
2
1
0
1
0
-1
-1
-2
-3
-4
-4
-5
-7
-8
-9
-10
-11
-11
-13
-13
-15
-15
-16
-16
-17
-18
-18
-18
-17
-18
-17
-16
-16
-16
-16
-16
-16
-15
-15
-15
-15
-14
-14
-14
-14
-14
-14
-14
-14
-14
-14
-14
-15
-14
-15
-14
-14
-13
-13
-13
-13
-14
-13
-13
-13
-13
-12
-12
-12
-12
-12
-12
-12
-12
-13
-13
-13
-14
-15
-16
-16
-17
-18
-18
-20
-20
-21
-22
-22
-22
-22
-23
-22
-22
-20
-17
-14
-9
-3
3
11
19
28
40
52
65
80
96
112
128
144
160
175
189
202
213
222
229
234
237
237
235
229
221
210
196
180
161
141
118
93
68
43
17
-10
-35
-60
-85
-108
-130
-150
-169
-186
-201
-216
-228
-238
-246
-252
-256
-258
-258
-256
-252
-247
-241
-233
-225
-215
-206
-196
-184
-174
-162
-150
-138
-127
-115
-105
-95
-86
-76
-68
-60
-52
-45
-39
-34
-29
-25
-21
-18
-15
-12
-10
-7
-5
-3
-1
1
2
3
5
5
7
7
9
9
11
11
12
12
13
13
13
14
14
14
14
15
15
15
15
15
15
16
15
15
15
17
17
17
17
18
18
18
18
19
18
18
18
18
18
18
18
18
18
18
19
18
18
19
19
19
19
19
20
21
22
23
23
24
25
26
26
27
28
28
29
30
30
31
32
32
32
33
33
33
33
33
32
32
31
31
30
30
28
28
28
27
27
26
26
26
26
27
27
26
27
27
28
29
31
31
33
34
35
37
38
39
40
41
43
44
46
46
48
49
49
49
50
50
50
52
52
53
53
53
54
55
55
55
55
56
57
58
59
60
61
62
63
64
64
65
66
66
67
69
69
70
71
72
72
74
74
74
75
76
76
77
78
79
80
80
82
83
84
85
85
87
88
89
89
91
92
92
93
93
94
96
96
97
98
98
98
99
99
100
100
100
101
101
101
101
101
101
101
100
101
101
100
101
100
101
101
101
101
101
100
100
100
100
100
100
100
100
99
99
98
97
96
96
95
94
94
93
92
90
90
88
88
87
87
85
84
82
81
80
79
78
78
76
74
73
73
72
70
69
67
67
65
64
62
61
59
58
56
55
54
53
52
50
48
46
45
43
41
41
40
38
37
35
35
33
31
30
29
29
27
27
27
26
25
24
24
23
23
23
22
22
21
22
21
21
20
19
19
18
18
18
18
16
16
15
14
14
13
13
12
11
9
8
7
6
5
4
4
3
3
2
2
2
0
0
1
1
1
1
2
3
3
4
5
5
6
6
6
7
6
7
7
8
8
7
8
7
7
7
6
7
7
7
7
7
7
7
7
6
6
6
5
6
6
6
6
6
6
5
5
5
4
4
4
5
4
4
3
2
3
2
2
1
1
1
1
1
0
0
1
1
0
1
1
0
0
1
2
3
3
3
4
5
5
6
6
7
8
9
10
11
11
12
13
12
14
14
15
16
17
18
19
19
19
21
22
22
23
25
26
27
28
30
31
32
34
35
35
36
38
38
39
39
40
41
40
41
41
41
41
41
41
41
40
40
40
39
39
38
38
37
37
36
36
35
35
34
33
34
33
33
33
33
32
32
32
31
30
30
29
29
29
28
28
27
27
26
25
25
24
23
23
23
22
21
22
22
22
21
21
21
22
21
21
21
22
22
22
22
23
23
24
25
24
25
25
25
26
26
26
26
26
26
26
25
24
24
23
22
22
21
20
18
16
16
15
13
13
12
11
10
8
7
6
4
4
3
3
2
2
1
1
1
1
1
1
1
1
1
2
1
2
2
3
3
3
2
2
2
2
2
2
2
2
1
0
0
0
1
0
0
1
1
1
1
1
2
3
4
4
5
6
6
7
7
7
7
6
6
5
5
4
4
3
1
0
0
-1
-2
-3
-2
-2
-1
0
3
6
9
14
20
27
36
47
58
70
85
98
113
129
145
160
176
190
203
214
225
233
239
243
245
244
241
234
224
212
197
179
159
137
114
89
63
37
10
-16
-43
-67
-92
-114
-137
-155
-173
-190
-205
-219
-229
-238
-244
-249
-251
-252
-250
-247
-242
-235
-228
-220
-210
-201
-190
-179
-168
-156
-145
-133
-123
-111
-101
-91
-81
-73
-65
-57
-50
-43
-37
-32
-28
-23
-19
-15
-11
-8
-5
-2
1
3
4
7
9
11
12
14
15
16
17
17
18
19
18
19
19
18
19
18
18
18
17
18
19
18
19
19
20
19
20
20
20
21
21
21
21
22
22
22
22
23
22
22
22
22
22
22
21
21
21
21
21
21
22
22
22
23
23
23
24
25
25
26
26
27
28
28
28
29
29
29
29
29
29
30
29
29
29
30
29
29
29
29
29
28
28
28
28
29
28
29
29
29
29
29
30
30
30
31
32
33
33
33
34
35
35
35
36
37
37
38
38
39
39
39
39
40
41
41
41
41
40
40
40
40
40
39
39
39
39
40
39
39
39
39
39
39
39
40
40
41
42
42
43
44
45
46
47
49
50
52
53
55
56
59
59
62
63
64
66
66
68
69
70
71
73
73
75
75
77
77
78
78
80
80
80
81
81
81
82
82
82
83
83
84
84
85
85
86
86
86
87
87
87
88
88
88
88
88
88
89
89
89
89
90
90
90
89
89
89
89
88
88
87
86
86
85
83
83
82
81
80
78
78
76
75
73
72
71
70
69
69
67
67
66
65
64
64
63
62
61
60
59
58
58
57
56
55
54
52
52
50
48
46
45
43
41
39
37
35
32
30
28
26
24
22
20
19
17
16
15
14
13
12
11
10
10
10
10
10
10
10
10
10
11
10
10
9
9
9
8
8
7
5
5
4
3
3
1
0
-1
-2
-2
-4
-5
-6
-7
-7
-8
-9
-9
-9
-10
-10
-10
-11
-11
-12
-12
-13
-13
-13
-13
-13
-13
-13
-13
-14
-14
-14
-14
-13
-14
-14
-13
-13
-13
-14
-14
-13
-13
-13
-13
-13
-13
-13
-13
-13
-13
-13
-13
-13
-13
-12
-12
-12
-12
-12
-12
-12
-13
-13
-12
-13
-12
-11
-12
-11
-12
-13
-13
-13
-14
-15
-15
-16
-16
-17
-18
-19
-19
-19
-19
-20
-21
-21
-22
-22
-22
-22
-23
-22
-22
-22
-22
-21
-22
-21
-21
-21
-20
-20
-20
-19
-19
-19
-19
-18
-18
-18
-18
-17
-17
-18
-17
-16
-17
-16
-16
-15
-14
-14
-13
-13
-12
-12
-11
-11
-11
-10
-9
-9
-8
-7
-6
-6
-5
-5
-4
-4
-3
-3
-2
-1
0
1
1
3
3
4
5
5
7
7
8
9
9
10
11
10
11
12
11
12
12
13
13
12
13
13
13
12
12
12
12
11
11
12
12
11
11
11
10
10
10
9
9
9
9
8
8
7
6
6
5
5
4
4
3
2
2
0
-1
-2
-4
-4
-4
-6
-7
-7
-7
-8
-8
-8
-9
-10
-10
-9
-9
-9
-8
-8
-7
-6
-7
-6
-5
-4
-3
-3
-4
-3
-3
-4
-4
-4
-5
-5
-5
-6
-7
-8
-9
-10
-11
-13
-14
-15
-15
-16
-17
-18
-19
-19
-21
-20
-21
-22
-22
-22
-22
