# Simple Text Format
# Sampling Rate (Hz):= 1200.00
# Resolution:= 12
# Labels:= ECG	III
# Age:=	67
# Gender:=	Feminino
394
395
395
395
394
394
394
395
396
398
400
402
404
406
408
411
413
416
418
421
424
427
430
434
437
440
444
447
449
452
454
455
456
456
455
454
452
449
446
442
436
428
419
408
395
381
366
350
333
316
298
280
262
243
225
206
189
172
155
141
128
117
109
104
100
99
100
103
107
112
119
127
137
147
158
169
179
190
201
212
222
231
239
247
255
262
269
276
282
287
293
298
303
308
313
318
323
329
335
341
347
354
359
365
370
375
379
383
387
391
394
395
397
398
398
399
400
400
400
399
398
397
396
394
393
391
389
388
387
387
386
385
384
384
384
384
384
385
385
386
387
387
388
389
389
389
389
389
389
390
390
391
391
391
391
390
390
390
389
388
387
387
386
386
387
387
388
388
389
390
390
391
391
392
393
393
394
395
396
397
398
398
398
398
398
398
399
400
400
400
400
400
400
400
400
400
401
401
402
403
404
405
405
405
405
405
405
405
405
405
405
406
406
405
405
404
403
402
401
400
399
398
397
397
396
396
395
394
393
392
391
390
389
389
388
387
387
387
387
386
386
386
386
386
386
387
387
389
390
391
392
393
395
396
397
398
399
401
402
403
404
406
407
408
409
409
410
411
412
414
415
416
417
417
418
419
420
422
423
425
426
428
429
429
430
430
429
429
429
429
429
429
430
430
431
431
431
430
430
429
429
428
427
427
426
425
424
423
422
420
418
416
413
411
408
406
404
401
399
398
396
394
392
390
389
388
387
387
386
386
386
387
387
387
388
388
389
389
390
391
391
392
393
395
396
397
398
399
399
400
400
400
401
401
401
401
401
401
401
401
401
401
401
401
401
401
402
402
402
403
403
403
404
404
404
405
405
405
405
405
404
403
403
402
402
401
399
398
397
396
395
394
393
392
391
390
389
387
387
386
385
385
384
384
384
383
383
382
382
382
382
382
382
383
383
384
386
387
388
388
389
390
392
395
397
400
402
405
408
411
414
417
420
423
425
429
432
435
439
441
444
446
449
451
453
455
457
458
460
462
464
465
466
467
468
469
470
471
471
472
473
474
475
475
476
476
476
477
477
478
479
481
483
485
487
490
492
494
496
498
501
503
505
508
510
511
513
514
515
515
516
515
515
513
512
510
509
507
505
503
500
498
496
494
492
490
488
486
485
484
484
483
483
482
482
482
482
483
483
484
485
485
486
487
488
489
491
492
493
494
495
497
498
499
500
502
503
505
506
506
506
507
507
507
507
506
506
506
505
505
505
505
505
504
504
503
503
503
502
503
503
504
506
507
508
509
510
511
512
513
513
514
515
516
517
519
520
521
522
522
522
521
521
521
521
520
520
519
518
517
516
515
514
514
513
512
511
510
508
507
506
505
504
503
503
502
501
501
501
500
500
499
498
498
497
496
496
495
495
494
493
492
491
490
489
488
488
488
487
487
486
485
484
483
483
482
482
482
483
483
483
484
484
484
484
484
484
484
483
483
483
483
483
483
483
483
482
482
481
480
480
480
480
480
481
481
480
480
480
481
481
482
482
483
483
484
484
484
485
485
486
486
487
488
490
490
491
491
491
492
492
492
493
494
494
495
496
496
496
496
495
494
494
493
492
492
491
489
488
486
484
483
481
480
478
478
477
477
477
477
478
479
480
482
485
487
490
493
497
500
504
508
511
515
518
521
524
526
527
528
528
527
526
524
522
519
515
510
505
498
490
480
469
456
442
427
412
397
381
364
347
330
313
296
279
263
249
236
225
217
210
205
202
201
201
203
207
212
219
227
236
245
255
265
276
285
294
303
312
319
326
333
339
345
350
355
360
365
370
375
379
384
389
393
398
402
407
412
417
422
426
431
435
439
443
447
450
453
456
459
461
463
465
467
469
471
472
473
475
476
477
477
478
479
479
479
479
480
480
481
481
481
481
481
482
482
482
482
483
483
484
484
484
485
485
485
485
485
486
486
487
487
488
489
490
491
491
491
491
491
491
492
492
492
492
491
491
490
490
489
488
486
484
482
479
477
474
472
471
470
469
468
467
466
466
465
465
465
466
466
467
469
470
472
474
476
477
478
479
480
481
481
482
483
483
483
483
483
482
482
481
481
480
480
479
479
478
478
477
477
477
477
477
477
477
477
477
478
478
478
478
478
477
477
477
477
476
476
476
475
475
475
475
474
473
472
472
471
471
470
470
470
470
471
471
471
471
471
471
472
472
472
472
473
473
473
473
473
473
473
473
473
473
473
473
473
472
471
471
470
470
470
470
471
472
474
476
479
482
484
487
490
492
494
496
497
499
499
500
501
501
501
500
498
496
493
489
484
479
475
470
467
463
460
457
454
452
451
450
450
450
450
450
451
451
453
454
455
456
457
458
459
459
459
459
459
458
457
456
455
453
452
451
451
451
451
451
451
451
451
451
452
452
452
453
453
454
455
455
455
455
455
454
454
453
453
452
451
450
449
448
448
447
446
445
444
444
443
442
442
441
441
440
440
439
439
439
439
439
439
439
439
439
439
439
439
439
440
440
441
441
441
441
440
439
438
437
436
435
434
433
432
432
431
430
429
428
427
426
425
424
424
424
424
424
424
424
423
423
423
423
422
422
421
421
420
419
418
417
416
416
415
414
413
413
412
412
411
411
411
410
410
411
411
412
412
413
414
415
415
416
416
417
417
417
418
418
419
420
421
422
423
423
423
423
423
423
423
423
423
422
422
422
421
419
418
416
414
412
410
409
407
405
404
402
400
399
398
396
396
395
395
395
395
395
396
396
397
398
400
401
402
404
405
406
407
408
409
411
412
412
413
414
414
415
416
417
418
419
420
420
420
420
419
418
417
416
415
415
415
414
413
412
411
411
410
410
410
410
410
410
410
410
410
410
411
412
413
414
415
416
417
417
418
418
417
417
417
416
416
416
417
418
418
418
417
416
414
413
413
412
412
412
411
410
409
409
408
407
406
404
403
401
399
397
395
394
393
392
391
390
389
388
387
386
385
385
384
384
383
383
383
383
383
383
384
384
385
385
385
386
387
388
388
389
390
391
391
391
391
391
391
390
390
390
389
389
388
387
386
386
385
384
383
382
381
381
381
380
380
380
380
381
382
382
382
382
382
381
381
381
380
380
380
379
378
378
377
376
375
374
373
373
372
371
370
369
368
368
367
366
366
365
364
363
363
362
361
360
360
359
359
359
359
359
360
360
361
362
363
364
366
368
370
373
377
380
384
387
391
394
397
401
404
408
411
414
417
420
421
423
424
424
423
422
420
417
414
409
403
396
388
377
366
352
338
323
307
290
273
255
237
219
201
183
166
150
135
122
110
101
93
88
85
84
85
88
93
99
107
117
127
138
149
160
172
183
195
206
217
228
238
248
256
264
270
276
280
284
287
291
294
297
300
304
308
312
316
321
325
330
333
337
340
344
348
352
356
360
363
366
369
371
373
374
375
375
375
375
374
372
371
370
369
368
368
368
367
367
367
368
368
368
369
370
370
370
370
370
370
370
370
371
371
372
372
371
371
370
370
370
370
369
369
369
369
369
370
370
370
370
371
371
371
370
370
369
368
367
366
366
365
365
364
364
363
362
361
360
359
357
355
354
353
352
351
350
350
350
350
350
350
350
350
351
351
351
352
352
353
354
355
357
358
359
360
361
362
362
363
363
364
364
364
363
363
362
362
361
360
359
358
358
357
357
357
356
355
355
354
354
353
353
353
353
354
354
355
355
356
356
357
357
357
357
357
357
357
357
358
358
358
359
359
359
359
359
359
358
358
357
357
357
357
357
358
358
358
358
358
358
358
359
360
360
361
362
363
364
364
364
364
364
365
366
366
367
366
366
364
363
361
359
357
356
354
352
350
348
346
343
341
339
337
335
333
331
329
328
327
326
326
326
326
326
327
327
328
329
330
331
332
333
333
334
334
335
335
335
335
335
335
334
333
332
331
330
328
327
325
323
321
320
319
318
317
316
316
315
314
314
313
313
312
311
311
311
311
311
312
312
312
312
312
312
312
312
312
312
313
313
313
313
314
314
315
315
316
316
316
316
317
317
318
318
318
318
318
318
318
319
319
319
319
318
318
317
316
315
314
313
312
312
311
311
310
309
308
308
307
306
306
306
305
304
304
304
304
304
303
303
303
302
301
300
300
300
299
299
299
298
298
297
296
295
295
294
294
293
293
292
292
292
292
292
292
292
292
292
292
292
292
293
293
293
294
294
294
294
294
294
295
296
297
298
298
298
297
297
297
297
297
297
297
297
297
297
297
296
295
293
292
291
290
289
288
287
285
284
283
282
281
280
279
279
279
279
279
279
279
279
279
279
279
279
280
281
282
283
284
285
285
285
285
284
284
284
284
285
286
287
288
289
289
289
288
288
289
289
290
291
291
292
292
292
292
292
291
291
291
290
290
289
289
289
289
288
289
289
289
290
291
291
291
292
292
292
292
293
293
293
294
294
294
293
292
291
290
289
288
287
287
286
286
285
285
285
284
283
283
283
283
283
283
284
284
285
286
288
290
292
294
296
297
298
299
301
302
303
303
304
304
305
304
303
302
299
296
292
288
284
280
276
272
267
263
259
255
252
249
247
244
242
240
238
237
236
236
237
237
238
239
240
240
241
242
243
244
245
245
246
246
247
247
247
247
246
245
244
243
241
241
240
240
240
239
238
237
236
236
235
235
235
235
235
234
234
234
234
234
234
235
235
236
236
235
235
235
235
234
234
234
234
234
234
233
233
232
232
232
232
231
231
231
230
230
229
228
228
228
228
228
228
229
229
230
231
232
232
233
233
235
236
238
240
243
246
249
252
256
259
262
265
268
272
275
279
283
287
291
294
296
298
299
299
299
298
296
294
290
286
281
276
269
260
249
237
223
208
191
174
156
138
120
101
82
64
46
28
11
-4
-18
-30
-39
-47
-52
-55
-56
-55
-53
-49
-43
-35
-26
-16
-5
5
16
27
37
47
56
65
73
80
87
93
99
104
108
112
115
119
122
126
130
134
137
140
143
147
151
156
160
165
169
172
176
179
182
185
188
191
194
197
199
202
204
206
208
209
210
211
212
213
213
214
214
214
214
213
213
212
211
210
209
209
208
207
206
205
204
203
202
202
202
202
202
201
201
201
201
201
201
202
202
203
203
203
203
203
203
203
203
203
203
203
203
203
203
203
202
201
201
200
199
198
198
197
197
196
195
195
194
194
193
193
193
193
193
193
193
193
193
194
194
195
197
198
199
200
201
201
202
202
202
202
202
202
202
202
202
202
202
201
201
200
199
198
197
196
195
194
193
193
192
192
191
191
190
190
190
189
189
189
189
189
189
189
189
188
188
188
188
188
188
188
188
188
188
188
188
188
187
187
186
186
185
185
184
184
183
182
182
181
180
179
178
177
176
175
175
175
174
174
174
175
175
175
175
175
175
175
176
176
176
176
176
177
178
178
179
179
178
178
178
178
177
178
178
178
178
178
179
179
179
178
178
178
178
178
178
178
178
178
178
178
177
177
177
176
175
174
173
172
171
170
169
169
168
167
166
165
163
162
160
159
158
157
157
156
156
155
155
155
154
154
153
153
152
152
151
151
151
152
152
153
154
154
154
154
154
154
154
155
155
155
156
156
156
156
157
157
156
156
156
156
156
156
156
155
154
154
153
153
152
152
152
152
152
153
154
154
154
154
154
154
155
157
159
161
162
163
164
165
165
165
166
166
166
166
166
165
164
162
161
159
156
154
152
149
147
145
144
142
141
140
139
138
137
137
137
137
137
137
138
139
140
142
144
145
146
147
148
149
150
151
152
154
154
154
153
152
151
150
149
148
147
145
144
142
141
139
137
136
134
133
133
132
132
132
132
132
132
133
134
136
137
138
139
139
140
140
140
140
140
140
140
139
139
139
139
140
140
140
140
139
139
139
139
139
140
140
141
141
142
141
141
141
140
141
141
140
140
139
139
138
137
136
135
135
134
134
134
135
135
136
136
136
136
136
137
138
139
140
141
142
143
143
143
144
144
144
145
145
145
145
144
144
144
144
144
144
143
143
142
141
140
140
140
140
140
141
141
141
141
141
141
141
142
142
142
142
142
143
144
144
145
146
147
148
148
148
147
147
147
146
146
146
146
146
145
145
144
143
143
142
141
140
139
138
137
136
135
134
134
133
132
131
130
129
128
127
126
126
125
124
123
123
122
122
122
122
123
125
127
129
131
133
135
137
138
139
141
142
144
146
147
148
148
148
147
146
144
142
140
138
135
133
130
127
125
122
120
117
115
114
113
111
111
110
109
109
108
108
107
107
107
107
108
109
110
110
110
110
109
109
109
109
109
109
109
110
110
111
111
111
110
109
109
109
109
110
111
112
112
113
113
113
113
113
114
114
115
116
117
118
118
118
118
118
117
117
117
116
117
117
118
119
120
122
123
125
126
128
130
132
135
138
142
146
151
155
159
163
167
170
172
174
175
176
176
176
175
173
170
166
160
154
145
135
124
110
96
80
63
46
28
10
-8
-27
-46
-64
-82
-100
-116
-131
-145
-156
-164
-170
-174
-176
-177
-175
-172
-166
-160
-151
-142
-132
-121
-110
-98
-87
-76
-65
-55
-45
-36
-27
-19
-11
-5
0
6
11
16
20
24
28
32
36
40
44
48
53
56
60
63
67
71
74
78
81
84
87
89
91
93
95
97
99
101
103
104
104
105
105
106
107
108
108
108
108
109
109
110
110
111
112
113
114
115
116
116
116
116
116
116
117
117
117
117
117
117
117
117
116
116
115
114
113
112
111
110
109
107
106
105
105
104
104
104
104
104
103
103
103
103
103
103
103
103
103
103
103
102
102
101
101
100
100
101
102
103
104
105
106
107
108
110
111
113
115
117
118
120
122
123
125
125
125
125
125
125
125
125
124
123
122
121
119
119
118
117
116
115
115
114
114
113
113
112
111
110
109
108
107
107
107
106
105
105
104
104
104
103
103
103
102
102
102
103
103
103
103
104
104
104
104
105
105
106
106
105
105
104
103
102
102
102
103
103
104
105
105
105
105
105
105
105
105
106
107
108
109
109
109
109
109
109
109
109
109
109
110
110
111
111
111
111
111
111
111
111
112
112
112
112
113
113
113
112
112
111
111
110
110
109
108
107
106
105
104
104
104
103
102
102
102
102
102
101
101
101
101
101
101
101
102
102
102
102
102
102
103
103
104
104
104
104
104
104
104
104
104
104
104
104
104
105
105
106
106
107
108
109
110
110
111
111
112
113
113
114
114
114
114
113
112
111
109
108
106
105
103
101
99
96
94
92
89
87
85
83
82
80
79
79
78
77
77
77
77
77
78
78
79
80
80
81
82
83
84
85
85
86
86
85
85
84
84
84
84
84
83
83
83
83
83
83
82
82
81
81
81
81
81
81
82
81
81
81
81
80
80
79
78
78
78
79
79
78
78
78
77
77
77
77
77
77
77
77
77
78
78
78
77
77
77
76
75
75
74
74
74
75
75
75
75
74
74
73
73
72
72
72
73
73
73
73
73
73
74
74
74
75
75
75
75
75
76
76
77
77
77
77
77
77
77
77
77
76
76
76
76
75
75
75
75
75
76
76
77
78
78
79
79
80
80
81
81
82
83
84
86
88
89
90
91
92
93
93
94
95
95
96
97
97
97
98
99
99
99
100
100
100
100
100
100
99
99
98
98
98
97
97
97
96
96
95
94
92
91
89
88
87
86
84
83
82
81
81
80
80
79
78
77
76
76
76
76
76
76
77
77
77
77
78
78
79
80
80
80
80
79
78
77
77
77
77
77
76
75
74
73
72
71
70
69
68
68
67
66
65
64
64
63
63
63
63
63
63
63
63
63
63
63
63
62
62
62
63
63
64
64
65
65
65
66
67
67
67
68
68
68
67
67
66
65
65
65
65
65
64
64
63
63
62
61
60
59
58
57
57
56
56
56
55
55
55
55
54
53
53
52
52
52
52
53
53
54
54
55
55
55
56
56
56
56
56
56
56
55
55
54
54
54
54
54
54
54
54
55
57
59
62
65
68
72
76
80
85
90
96
101
107
113
118
123
128
133
137
141
144
147
149
150
151
151
150
149
147
144
140
135
127
119
108
97
85
72
58
43
28
13
-2
-18
-34
-50
-65
-79
-92
-103
-112
-119
-124
-127
-128
-127
-124
-120
-115
-108
-99
-90
-80
-70
-59
-49
-39
-29
-19
-10
-2
5
12
19
25
31
36
41
45
49
52
56
61
65
71
75
80
85
89
93
98
104
110
116
121
126
130
134
137
140
143
147
150
153
155
157
159
160
161
161
161
161
161
161
162
162
162
162
162
162
163
163
164
164
165
167
168
169
171
172
173
174
175
176
178
179
180
181
183
184
186
188
189
191
191
192
192
193
194
194
195
195
195
195
195
195
195
195
194
193
192
191
190
189
188
186
185
184
183
182
181
181
180
179
178
178
176
175
173
172
172
171
171
170
170
170
169
168
168
167
166
166
166
166
167
168
169
170
171
172
173
174
176
177
178
179
179
180
180
181
181
181
181
181
181
182
182
182
181
180
179
179
178
178
177
177
177
177
178
178
178
179
179
179
178
178
178
179
179
180
180
181
181
181
181
180
180
180
180
180
180
180
180
180
180
179
179
178
177
176
176
175
175
174
174
173
172
172
171
170
169
168
167
167
166
165
165
164
164
164
164
165
166
166
166
167
167
168
169
170
171
171
172
172
173
173
174
175
175
174
174
173
172
171
170
170
169
169
169
169
168
168
168
167
167
166
166
166
166
166
167
167
168
168
169
169
170
170
170
170
170
170
169
169
169
170
170
170
170
170
169
169
169
169
169
169
168
168
167
167
167
167
167
168
168
168
168
168
167
166
165
164
164
163
162
161
160
159
157
156
155
153
152
151
150
149
148
148
147
146
146
145
145
144
144
144
144
144
144
144
144
143
143
142
142
141
141
141
140
140
140
139
139
139
139
139
139
140
141
141
142
142
142
142
143
143
143
144
144
144
144
144
143
143
143
142
141
141
140
140
139
139
138
138
138
138
137
137
137
138
139
140
140
141
141
141
142
142
142
142
143
143
144
144
145
145
145
145
144
143
143
142
142
142
142
142
142
141
141
141
141
140
140
140
141
142
143
144
144
144
143
143
144
144
146
147
148
148
149
148
148
147
147
147
146
146
145
144
143
141
139
137
135
133
131
129
127
125
123
122
120
119
117
116
115
115
114
114
114
114
115
116
116
116
116
115
115
115
116
116
116
116
116
115
114
113
112
111
111
110
110
109
109
109
109
109
109
110
110
110
111
111
112
113
114
115
116
116
117
118
119
120
121
122
123
124
125
126
127
128
129
129
130
130
130
130
131
131
130
130
130
129
129
129
128
127
127
126
126
125
124
123
122
121
120
119
119
118
117
117
116
115
115
114
112
111
110
110
109
108
108
107
107
107
106
106
105
105
105
105
105
105
105
105
105
105
105
105
106
106
106
107
108
109
110
112
114
117
119
122
125
128
131
133
136
139
142
144
146
148
150
151
152
152
151
150
148
145
142
139
135
130
125
118
109
100
89
77
65
53
40
26
11
-3
-19
-35
-51
-67
-82
-97
-111
-122
-132
-140
-147
-152
-156
-159
-160
-159
-157
-153
-148
-141
-134
-126
-117
-109
-100
-91
-83
-74
-66
-58
-50
-43
-36
-29
-23
-16
-10
-4
0
6
11
16
20
25
29
33
36
40
43
46
49
51
53
55
57
59
60
62
63
65
66
68
69
71
72
73
75
76
76
77
77
78
78
79
80
81
81
81
80
80
79
79
79
79
79
79
79
79
79
79
79
79
79
80
81
82
83
83
84
84
85
86
86
87
88
88
89
90
90
91
91
92
93
93
94
94
94
94
94
95
95
95
95
95
95
94
94
93
92
92
91
90
89
88
88
87
86
85
84
84
83
83
83
83
83
83
83
84
84
85
85
85
85
85
85
86
86
87
87
88
88
89
90
92
93
94
95
96
96
97
98
98
99
100
101
101
102
102
101
101
100
99
98
97
96
95
94
93
92
90
88
86
85
84
83
82
82
81
80
79
79
79
79
79
79
79
80
80
81
81
82
82
82
82
82
83
83
83
83
83
83
83
82
81
80
78
77
76
75
74
73
72
71
70
70
69
69
68
68
68
68
68
67
67
67
66
66
66
67
67
68
69
69
69
69
69
68
68
67
67
67
67
67
68
68
68
68
68
67
67
67
68
68
68
68
69
69
69
69
70
69
69
68
68
67
66
65
64
64
63
62
61
61
60
59
58
57
56
55
55
55
55
56
57
58
60
61
63
65
66
68
70
72
74
77
79
82
84
86
87
88
88
88
87
86
85
84
83
81
79
77
74
72
70
68
66
64
62
60
58
56
55
54
54
53
53
53
54
54
54
55
55
55
55
55
55
55
55
56
56
56
57
57
56
56
55
55
55
55
55
55
55
54
53
53
52
51
51
51
50
50
49
48
46
45
44
43
43
43
42
41
40
39
38
37
36
36
36
36
37
38
38
39
39
40
40
40
40
40
41
41
42
42
43
43
43
43
43
42
42
42
42
41
40
39
39
39
39
39
39
39
38
38
38
38
38
37
36
36
35
34
34
34
34
34
34
34
33
33
32
31
31
31
30
31
31
31
31
30
30
30
30
30
31
31
31
32
32
32
32
32
32
33
33
34
35
36
36
37
37
38
38
39
39
40
40
40
41
41
41
41
40
40
40
41
42
42
43
43
43
43
43
43
44
45
47
48
50
51
52
52
53
54
54
55
56
56
57
56
56
55
54
54
53
53
52
51
50
48
47
46
45
44
43
43
42
42
41
41
40
40
40
40
39
39
40
40
41
42
43
43
44
44
44
44
45
46
47
47
47
47
47
47
46
46
45
44
43
42
41
40
39
38
36
35
34
33
33
33
33
33
32
32
33
34
34
35
36
37
39
40
41
41
41
42
42
42
42
41
40
40
39
37
36
35
33
31
28
26
23
21
19
18
16
15
13
11
9
7
5
4
4
3
3
3
3
2
2
2
2
2
2
3
4
5
5
6
6
6
6
7
7
8
9
9
10
10
10
10
10
10
10
10
10
11
11
11
11
11
10
10
10
10
10
10
10
10
10
10
10
10
10
10
10
11
12
12
13
13
13
13
12
12
11
11
10
10
10
10
10
9
8
8
7
6
5
4
3
2
1
1
0
0
0
0
0
0
-1
-2
-2
-2
-2
-2
-1
0
0
0
2
4
7
10
13
16
20
24
28
33
38
43
48
52
57
62
66
70
74
76
77
78
78
78
77
75
72
68
62
54
44
33
21
7
-7
-24
-42
-60
-79
-98
-118
-139
-160
-180
-200
-219
-236
-253
-268
-280
-291
-298
-304
-307
-308
-308
-305
-301
-295
-287
-278
-268
-257
-245
-233
-221
-210
-199
-188
-177
-167
-158
-149
-141
-134
-128
-121
-115
-110
-105
-100
-95
-90
-85
-81
-76
-72
-68
-64
-60
-56
-51
-47
-44
-40
-37
-34
-31
-28
-26
-24
-22
-20
-18
-16
-15
-13
-13
-12
-12
-12
-11
-10
-9
-9
-8
-8
-8
-7
-7
-7
-6
-6
-6
-5
-3
-2
-1
0
1
2
3
4
5
6
8
10
11
12
12
13
13
13
13
13
14
15
15
15
14
14
14
14
14
14
14
14
14
14
13
12
11
9
8
7
6
4
2
1
0
-2
-4
-6
-8
-10
-12
-14
-15
-16
-17
-17
-18
-19
-20
-21
-21
-22
-22
-21
-21
-20
-20
-19
-18
-18
-17
-15
-14
-13
-12
-11
-10
-9
-8
-8
-7
-7
-6
-5
-5
-4
-4
-4
-4
-4
-4
-4
-5
-5
-6
-7
-8
-9
-9
-8
-8
-8
-8
-8
-8
-8
-8
-7
-6
-5
-5
-4
-3
-2
-1
0
0
1
2
4
5
6
6
7
7
7
8
8
8
7
7
7
6
6
5
4
3
3
2
1
1
0
0
-1
-1
-2
-2
-2
-2
-2
-2
-2
-2
-2
-2
-2
-2
-2
-1
0
0
1
1
1
2
2
3
3
4
4
4
4
4
4
4
4
4
4
4
5
6
7
8
9
10
11
12
13
14
14
15
15
15
16
16
15
15
14
13
12
11
9
8
6
4
2
1
0
-2
-4
-5
-7
-8
-10
-11
-13
-14
-16
-17
-18
-18
-19
-19
-19
-18
-17
-15
-14
-13
-12
-12
-11
-9
-8
-7
-6
-5
-5
-4
-4
-4
-4
-4
-5
-5
-6
-6
-7
-7
-7
-7
-7
-7
-7
-7
-6
-6
-5
-4
-2
-2
-1
-1
-2
-3
-3
-4
-4
-5
-5
-6
-6
-7
-8
-8
-9
-11
-12
-13
-14
-15
-15
-16
-16
-16
-16
-16
-16
-17
-17
-17
-18
-18
-19
-19
-19
-19
-19
-18
-17
-17
-17
-18
-18
-18
-18
-18
-18
-18
-18
-19
-19
-19
-19
-20
-20
-21
-21
-22
-22
-22
-22
-22
-23
-23
-23
-23
-23
-23
-23
-23
-23
-23
-23
-22
-21
-21
-21
-20
-20
-20
-19
-19
-19
-18
-17
-16
-15
-15
-14
-13
-12
-11
-10
-10
-9
-8
-8
-7
-6
-6
-6
-6
-6
-6
-6
-7
-7
-7
-7
-7
-7
-6
-6
-6
-7
-8
-8
-9
-9
-9
-9
-9
-9
-8
-7
-7
-7
-7
-7
-7
-7
-7
-7
-6
-6
-6
-5
-5
-5
-5
-5
-5
-5
-6
-6
-6
-6
-6
-7
-7
-7
-7
-7
-7
-7
-7
-8
-8
-8
-8
-8
-9
-8
-8
-8
-7
-7
-7
-7
-7
-7
-6
-6
-5
-4
-3
-3
-2
-2
-1
-1
0
0
0
0
0
0
0
0
0
0
-1
-1
-1
-1
-2
-3
-4
-4
-5
-5
-5
-6
-6
-7
-8
-9
-10
-11
-13
-15
-16
-18
-19
-20
-21
-23
-24
-25
-26
-27
-28
-28
-28
-29
-29
-29
-29
-29
-29
-28
-28
-28
-28
-28
-28
-27
-26
-26
-26
-26
-26
-26
-25
-24
-24
-24
-24
-24
-25
-25
-25
-24
-24
-24
-24
-24
-24
-24
-24
-24
-24
-24
-24
-24
-24
-24
-24
-24
-24
-24
-24
-24
-24
-24
-24
-24
-25
-25
-25
-25
-25
-25
-25
-25
-24
-24
-23
-23
-23
-23
-24
-25
-25
-26
-27
-28
-28
-29
-31
-32
-34
-36
-38
-40
-41
-42
-43
-43
-43
-43
-41
-40
-38
-35
-33
-30
-27
-23
-18
-13
-9
-4
0
3
7
11
15
19
23
26
29
30
31
31
30
29
28
26
23
19
14
8
1
-7
-18
-30
-43
-58
-74
-90
-107
-125
-144
-163
-182
-200
-218
-236
-252
-267
-280
-291
-300
-307
-311
-314
-314
-313
-310
-305
-298
-289
-280
-269
-259
-248
-237
-226
-216
-206
-196
-188
-180
-172
-165
-159
-153
-147
-142
-137
-133
-129
-125
-121
-118
-113
-109
-105
-100
-96
-92
-88
-84
-80
-75
-72
-68
-65
-62
-58
-55
-53
-50
-47
-45
-42
-40
-38
-36
-34
-33
-32
-31
-30
-29
-28
-27
-26
-26
-25
-24
-24
-24
-24
-24
-24
-24
-23
-23
-22
-21
-20
-20
-20
-19
-19
-18
-17
-17
-16
-16
-15
-15
-14
-14
-15
-15
-15
-15
-16
-16
-17
-17
-17
-18
-19
-20
-20
-21
-22
-24
-25
-26
-26
-26
-27
-27
-28
-29
-30
-31
-32
-32
-32
-32
-32
-33
-33
-34
-34
-34
-34
-34
-33
-33
-32
-32
-31
-31
-30
-30
-30
-30
-29
-29
-28
-28
-27
-27
-27
-26
-26
-26
-26
-26
-26
-26
-26
-26
-26
-27
-28
-29
-29
-29
-29
-28
-28
-28
-28
-28
-28
-28
-28
-28
-28
-27
-27
-26
-25
-25
-24
-23
-22
-21
-19
-18
-18
-17
-16
-16
-15
-15
-14
-14
-14
-14
-13
-13
-13
-13
-13
-13
-13
-13
-14
-14
-14
-14
-14
-14
-14
-15
-15
-15
-15
-14
-14
-14
-14
-14
-14
-13
-13
-13
-12
-12
-12
-13
-13
-13
-12
-12
-12
-13
-13
-13
-14
-14
-14
-14
-14
-14
-15
-15
-16
-16
-17
-17
-17
-17
-17
-16
-16
-16
-15
-14
-12
-10
-9
-7
-5
-3
-1
0
3
5
7
8
9
10
11
11
11
11
10
8
5
2
0
-3
-7
-10
-14
-17
-20
-23
-25
-28
-30
-32
-33
-34
-34
-34
-34
-35
-35
-35
-35
-35
-35
-34
-34
-33
-32
-32
-33
-34
-35
-36
-37
-38
-40
-41
-42
-43
-43
-44
-45
-45
-46
-47
-48
-49
-50
-51
-53
-54
-55
-56
-56
-56
-55
-54
-54
-54
-53
-53
-53
-52
-51
-50
-49
-48
-48
-47
-47
-46
-45
-43
-42
-41
-41
-41
-42
-42
-43
-43
-42
-42
-42
-42
-42
-42
-42
-41
-41
-41
-41
-42
-42
-43
-43
-44
-44
-45
-45
-45
-45
-45
-46
-46
-46
-47
-48
-48
-49
-49
-49
-50
-50
-50
-50
-51
-52
-53
-54
-55
-56
-58
-59
-60
-61
-62
-63
-63
-64
-65
-66
-66
-66
-66
-66
-65
-64
-64
-63
-62
-61
-60
-59
-58
-57
-56
-56
-55
-55
-55
-55
-55
-55
-55
-55
-55
-55
-55
-54
-54
-53
-53
-54
-54
-54
-54
-53
-52
-51
-51
-49
-48
-47
-46
-46
-46
-46
-46
-46
-46
-46
-46
-45
-44
-44
-43
-43
-42
-42
-42
-41
-40
-38
-35
-32
-30
-27
-24
-20
-17
-14
-11
-8
-6
-4
-2
0
0
0
0
0
0
-2
-4
-6
-9
-12
-16
-19
-23
-26
-29
-33
-35
-38
-41
-43
-45
-47
-48
-49
-50
-50
-51
-51
-50
-50
-49
-48
-46
-45
-44
-43
-41
-39
-38
-36
-35
-34
-33
-31
-30
-28
-27
-26
-26
-25
-25
-25
-25
-25
-26
-26
-27
-27
-27
-27
-27
-28
-29
-30
-30
-30
-30
-30
-31
-31
-32
-32
-32
-32
-32
-31
-30
-30
-30
-30
-31
-31
-32
-33
-33
-33
-33
-33
-33
-34
-34
-34
-35
-36
-37
-38
-39
-39
-38
-38
-38
-39
-39
-40
-40
-41
-41
-41
-41
-41
-41
-41
-42
-42
-42
-42
-42
-42
-42
-42
-43
-44
-44
-45
-46
-46
-47
-48
-48
-49
-49
-49
-50
-50
-51
-51
-52
-53
-53
-53
-53
-53
-53
-53
-53
-53
-53
-52
-52
-51
-50
-50
-49
-49
-49
-49
-49
-49
-49
-49
-49
-49
-50
-50
-50
-50
-51
-51
-52
-52
-53
-54
-55
-56
-56
-57
-57
-56
-56
-55
-54
-54
-53
-52
-52
-51
-51
-50
-49
-48
-47
-45
-42
-38
-35
-31
-29
-26
-24
-22
-19
-17
-13
-9
-5
-1
2
6
10
13
16
19
21
23
24
25
26
27
27
27
27
26
25
25
23
21
17
13
9
3
-2
-10
-19
-30
-41
-55
-69
-84
-100
-116
-134
-152
-171
-190
-209
-227
-243
-259
-274
-287
-299
-308
-315
-321
-324
-325
-324
-321
-316
-310
-303
-295
-287
-278
-269
-261
-251
-242
-233
-225
-216
-208
-201
-193
-186
-179
-173
-167
-161
-155
-149
-144
-138
-133
-127
-121
-115
-109
-103
-97
-91
-85
-80
-75
-71
-68
-65
-61
-58
-55
-52
-49
-46
-43
-41
-40
-38
-37
-37
-36
-36
-36
-35
-35
-35
-35
-35
-35
-36
-36
-36
-36
-36
-35
-35
-35
-34
-34
-34
-34
-33
-33
-32
-31
-31
-30
-30
-30
-30
-30
-29
-29
-29
-29
-29
-29
-29
-29
-29
-29
-29
-29
-29
-29
-30
-30
-29
-29
-28
-27
-27
-26
-26
-25
-25
-25
-25
-24
-24
-24
-23
-23
-22
-22
-23
-23
-24
-24
-25
-25
-25
-25
-26
-27
-27
-28
-29
-29
-29
-29
-29
-29
-29
-29
-28
-28
-28
-28
-28
-27
-27
-27
-26
-25
-23
-22
-20
-19
-18
-17
-17
-16
-16
-16
-15
-15
-14
-13
-12
-12
-12
-12
-12
-12
-12
-12
-12
-12
-12
-13
-13
-13
-13
-13
-14
-14
-13
-13
-13
-12
-12
-12
-13
-13
-14
-13
-13
-12
-11
-10
-9
-9
-8
-8
-8
-7
-7
-6
-4
-3
-3
-2
-2
-2
-3
-3
-4
-5
-6
-7
-8
-10
-11
-12
-13
-14
-15
-16
-16
-17
-18
-19
-20
-20
-20
-20
-19
-19
-19
-18
-18
-18
-17
-17
-17
-17
-17
-17
-16
-16
-15
-14
-13
-12
-9
-7
-5
-2
0
2
4
7
10
13
16
18
21
23
25
27
28
30
31
31
30
29
27
24
21
18
16
14
13
12
12
11
11
10
10
10
9
9
9
9
9
10
10
10
9
9
8
7
5
4
1
0
-3
-6
-9
-11
-14
-16
-19
-21
-23
-25
-27
-28
-29
-30
-30
-30
-31
-31
-31
-31
-31
-31
-31
-31
-32
-32
-32
-32
-32
-31
-31
-30
-29
-29
-29
-29
-29
-29
-30
-30
-30
-29
-29
-29
-29
-29
-29
-28
-28
-28
-28
-29
-29
-28
-28
-28
-29
-29
-28
-28
-27
-27
-26
-26
-26
-26
-26
-25
-24
-22
-20
-18
-15
-13
-10
-8
-6
-4
-2
-1
0
0
2
3
4
5
5
4
4
3
2
1
1
0
0
-1
-3
-4
-5
-5
-6
-6
-5
-4
-3
-2
-2
-2
-1
-1
-1
0
0
0
0
0
0
0
0
0
0
0
0
0
0
-1
-1
-1
-1
-1
-1
-1
-1
-1
0
0
0
1
2
3
4
5
6
7
8
9
10
11
13
14
16
16
17
18
19
20
21
22
23
24
25
26
27
28
28
29
29
30
31
32
33
34
35
36
36
36
37
37
37
38
39
39
40
41
43
45
47
50
52
55
57
58
59
60
62
63
65
66
67
67
67
66
65
63
62
59
57
55
52
48
45
41
38
35
33
32
30
29
28
26
25
24
23
23
22
22
22
22
22
22
21
21
20
19
18
18
17
16
15
14
13
12
11
10
9
7
6
5
5
5
5
5
5
6
6
7
8
9
10
12
14
15
17
18
19
20
21
22
23
24
25
25
25
25
25
24
24
23
23
22
22
22
21
21
20
19
18
18
17
17
17
16
16
16
15
15
14
14
14
13
13
14
14
15
15
16
16
17
17
17
17
17
17
17
18
18
19
20
21
22
23
24
25
26
26
26
27
28
30
31
32
33
34
34
34
34
34
33
32
31
29
27
26
24
23
22
22
22
23
23
24
24
25
27
29
33
36
40
45
49
53
58
62
65
69
72
75
77
79
80
81
81
79
76
72
67
61
54
44
33
21
8
-6
-22
-38
-56
-74
-93
-113
-132
-152
-171
-189
-207
-223
-237
-249
-259
-267
-272
-276
-277
-276
-273
-269
-262
-255
-246
-236
-226
-215
-204
-193
-182
-172
-162
-152
-143
-135
-128
-121
-114
-108
-103
-98
-93
-88
-83
-79
-74
-69
-65
-60
-55
-50
-45
-39
-34
-28
-23
-18
-13
-9
-4
0
3
8
12
15
19
22
24
26
28
29
31
32
33
34
34
35
35
36
35
35
35
35
35
36
36
36
36
36
36
36
36
37
38
39
39
40
40
41
40
40
39
39
39
39
39
39
39
39
38
37
37
36
36
35
35
34
34
33
33
32
32
31
31
31
31
31
31
31
30
30
29
29
29
29
29
28
28
27
27
27
27
26
26
26
26
26
26
26
26
26
26
26
26
26
26
25
26
26
26
27
27
28
28
28
29
29
29
29
29
29
30
31
32
33
33
33
33
33
33
33
34
34
35
35
34
34
34
34
34
34
35
35
35
36
36
36
37
37
38
39
39
40
41
41
41
41
41
41
41
41
42
41
41
40
39
39
38
37
36
35
34
33
33
32
32
32
32
31
31
31
31
31
32
32
33
33
34
34
35
35
35
34
33
32
31
30
30
29
28
28
27
25
23
21
20
18
17
16
15
15
15
15
15
15
16
16
17
17
18
18
19
20
21
22
22
23
24
25
25
26
26
26
27
26
26
26
26
26
26
25
25
25
25
25
25
24
24
24
24
23
23
22
22
21
21
21
21
21
21
20
20
20
21
21
21
22
22
23
23
23
24
24
24
24
25
25
25
26
26
26
25
24
23
23
22
22
21
19
18
17
16
16
16
16
16
17
16
16
16
17
18
18
19
19
20
21
22
24
25
27
27
28
27
27
26
25
24
24
23
23
22
20
19
18
17
16
15
14
13
12
12
11
11
12
12
13
13
14
14
14
15
16
18
19
20
20
20
21
21
22
23
24
25
27
29
31
34
36
38
40
41
42
42
43
44
45
45
45
44
43
41
39
37
34
32
29
26
24
22
20
18
16
15
13
12
12
12
12
13
13
14
15
15
15
15
15
15
14
14
14
14
14
14
13
13
13
12
12
12
12
12
12
13
14
15
16
17
18
19
20
20
21
22
23
25
26
27
28
28
28
27
27
27
27
27
27
27
26
25
25
24
23
23
22
21
20
20
19
19
19
19
19
19
20
21
21
22
23
23
24
25
26
27
28
29
30
31
32
33
34
35
36
36
37
37
37
38
38
38
38
38
38
38
38
37
37
37
37
37
37
37
37
37
38
38
39
39
39
39
40
40
40
41
41
41
41
41
40
39
38
37
35
32
30
29
27
26
25
24
23
22
22
21
21
22
23
24
25
27
28
30
31
33
35
37
38
38
38
38
38
37
37
35
34
32
30
27
25
22
20
17
15
13
11
9
8
6
5
4
3
2
2
2
2
2
2
2
2
3
3
4
4
4
4
4
4
4
5
6
6
7
7
7
7
7
7
8
8
8
8
8
8
7
6
6
6
5
5
5
5
5
4
4
3
3
2
2
2
2
2
2
3
4
5
6
6
7
7
8
8
9
9
10
10
10
10
10
10
10
9
9
8
7
7
6
5
5
4
4
4
4
6
7
9
10
13
15
19
23
28
33
38
44
50
57
64
72
79
85
91
96
101
105
108
110
112
112
111
109
105
99
91
80
68
54
39
22
4
-13
-33
-54
-74
-95
-115
-135
-154
-173
-191
-208
-223
-236
-247
-255
-261
-265
-267
-267
-266
-263
-259
-253
-246
-238
-229
-220
-210
-200
-191
-181
-172
-162
-154
-146
-139
-131
-125
-118
-111
-105
-100
-94
-90
-85
-81
-76
-71
-66
-61
-56
-51
-46
-41
-36
-31
-27
-22
-18
-14
-10
-5
-1
2
6
9
12
15
17
20
22
24
26
28
30
32
33
34
35
36
36
37
37
37
36
35
33
32
31
30
29
27
26
24
23
21
21
20
20
19
19
19
19
19
20
21
22
23
24
25
26
27
28
29
29
29
29
29
28
27
27
26
25
24
24
23
22
22
22
22
22
23
23
24
24
24
25
25
26
26
27
28
29
29
30
30
31
31
31
31
31
30
29
28
27
27
26
25
25
25
24
23
23
22
21
21
20
20
20
21
21
22
23
23
23
24
24
25
26
27
27
28
29
30
31
32
32
33
34
35
36
37
37
38
38
39
41
42
43
43
44
44
44
45
45
46
46
46
46
45
45
45
44
43
42
41
40
38
37
35
33
31
30
28
28
27
26
24
23
22
22
21
21
21
20
20
20
21
22
23
23
24
24
24
24
24
24
25
25
27
28
29
30
30
30
30
29
29
30
31
32
33
34
35
35
36
36
36
37
37
37
37
37
37
38
38
39
39
38
38
38
37
37
36
36
35
34
33
33
32
32
31
30
29
28
28
28
28
28
29
29
30
30
29
29
29
29
28
28
28
28
28
27
26
25
24
23
22
20
19
18
17
17
16
15
14
14
14
14
14
14
15
15
16
17
19
20
22
24
25
26
28
29
30
32
33
34
35
36
36
36
37
36
36
35
35
34
33
32
31
30
29
29
28
27
26
25
24
23
22
22
21
20
20
19
18
17
16
16
15
14
13
13
12
11
11
11
11
11
11
11
11
11
11
11
10
9
9
9
10
10
10
10
10
10
10
11
11
12
12
13
13
14
14
15
16
17
18
19
20
21
21
22
22
23
24
24
25
25
26
26
26
26
26
25
25
25
26
26
26
26
26
26
26
26
25
24
24
23
23
23
23
23
23
23
23
24
24
24
24
24
24
23
23
24
24
24
24
24
24
24
24
24
24
25
25
25
25
25
25
26
26
26
26
26
27
27
27
27
27
28
28
29
29
30
30
32
33
35
36
38
40
42
43
45
47
49
51
53
56
58
61
63
64
65
66
66
66
66
65
64
63
62
61
60
58
56
54
52
50
48
46
43
41
38
36
34
32
30
29
27
26
25
24
24
24
23
23
22
22
21
21
21
21
21
22
22
23
23
23
23
23
22
22
22
22
22
21
20
20
19
18
17
17
17
16
16
16
16
15
15
15
15
15
16
16
17
17
17
18
18
18
18
18
18
18
18
18
18
18
18
17
16
15
15
14
14
14
15
15
14
14
13
13
12
12
12
11
11
11
10
9
8
7
6
6
5
4
3
3
3
3
3
3
4
4
5
6
7
7
8
9
10
11
12
13
15
16
16
17
17
16
16
15
15
14
13
12
12
11
10
10
9
9
9
9
8
8
8
9
9
10
11
12
13
14
16
17
19
21
23
25
27
29
31
34
37
40
43
47
50
54
57
60
63
67
71
74
78
81
84
86
88
89
89
88
87
85
83
79
75
69
62
52
42
29
16
1
-14
-31
-49
-68
-87
-107
-128
-148
-167
-187
-205
-223
-239
-253
-266
-276
-283
-288
-291
-291
-290
-287
-282
-275
-266
-255
-243
-230
-217
-205
-193
-181
-169
-157
-146
-136
-127
-118
-111
-104
-98
-93
-89
-85
-82
-79
-76
-73
-69
-66
-62
-59
-55
-51
-47
-43
-38
-33
-29
-24
-20
-15
-11
-8
-4
-2
0
2
4
6
9
11
13
15
17
18
20
21
22
22
22
22
23
24
25
26
27
28
28
28
27
27
27
27
27
27
26
26
26
26
26
25
25
25
26
26
26
27
28
29
29
30
30
30
30
30
30
30
30
30
30
30
30
31
31
32
32
31
31
30
30
30
30
31
31
32
33
34
35
36
36
37
38
38
39
39
39
39
40
40
40
40
40
40
39
39
38
37
35
34
32
30
29
28
27
27
25
24
23
22
21
20
20
19
19
19
19
20
20
20
20
20
20
20
21
22
24
25
27
28
29
30
30
31
31
31
30
30
29
29
28
27
26
25
24
22
21
19
17
16
16
15
15
15
15
15
16
17
18
20
21
22
23
25
26
27
29
30
31
32
33
34
34
35
35
34
34
34
34
34
34
33
32
31
31
32
32
31
31
31
32
32
32
32
32
32
33
33
34
35
36
36
37
37
37
38
38
37
37
37
36
36
36
36
36
36
35
35
34
34
33
33
32
32
31
31
30
30
29
28
28
27
26
25
24
24
23
23
23
23
23
23
24
25
26
27
28
30
31
33
35
36
38
39
40
41
42
43
43
43
43
43
43
42
41
40
38
37
36
35
34
33
31
29
28
26
25
24
23
23
22
21
19
18
16
15
13
13
12
12
12
12
11
11
11
11
11
11
11
12
12
13
13
14
14
14
14
15
15
14
14
13
12
11
10
8
7
6
5
4
3
2
2
1
0
0
0
0
0
0
0
0
0
1
2
2
3
4
5
6
7
7
8
9
10
10
11
11
11
11
11
11
11
11
11
11
10
10
10
9
9
9
9
9
9
9
10
10
10
10
10
10
11
12
13
13
13
13
13
14
14
14
14
15
15
15
15
15
15
15
15
15
15
15
14
14
13
13
13
12
12
11
11
11
11
11
11
12
12
12
12
12
12
13
13
14
15
16
17
18
19
19
20
21
22
23
24
25
26
26
26
26
26
27
27
28
29
30
31
32
33
34
35
36
37
38
38
38
38
38
38
38
38
38
37
37
35
34
32
31
29
28
26
25
24
23
23
22
22
22
22
22
23
23
23
24
25
26
27
28
28
29
29
28
27
25
24
22
22
21
22
22
23
23
23
23
23
23
22
22
23
23
24
26
27
29
30
30
30
31
31
31
32
32
31
31
30
29
28
27
26
24
23
22
21
20
19
18
16
15
14
14
13
12
11
11
10
10
10
11
11
12
12
13
13
14
14
15
15
16
16
16
16
15
15
15
14
14
13
12
12
11
10
10
9
8
8
7
7
6
6
6
5
5
4
4
3
3
3
3
2
2
1
1
1
2
3
4
5
6
7
8
8
9
9
9
10
10
10
10
9
8
6
5
3
2
1
0
-1
-3
-4
-6
-7
-7
-8
-7
-7
-7
-6
-6
-5
-5
-4
-3
-3
-1
0
1
3
5
8
10
12
15
18
21
25
29
32
36
40
44
48
51
55
57
60
62
63
64
64
64
63
61
58
54
49
43
35
25
14
1
-11
-26
-41
-58
-75
-93
-112
-131
-150
-170
-189
-207
-224
-239
-252
-263
-272
-279
-284
-287
-288
-287
-283
-278
-272
-264
-254
-244
-234
-223
-211
-200
-188
-177
-166
-155
-146
-137
-130
-123
-116
-110
-104
-98
-93
-88
-83
-79
-74
-69
-65
-61
-56
-52
-48
-44
-40
-36
-33
-29
-26
-22
-18
-15
-12
-9
-7
-5
-3
-1
0
1
2
3
4
4
5
6
6
7
8
8
8
8
8
9
9
10
10
11
11
12
13
13
14
15
16
17
18
19
19
20
21
21
22
22
21
21
20
20
20
20
19
18
18
17
17
17
17
17
17
16
15
15
14
14
14
15
15
15
15
14
14
13
13
13
13
13
12
12
11
11
11
11
12
11
11
10
10
9
8
8
9
9
10
10
10
11
10
10
10
10
10
10
10
10
10
10
11
11
12
13
14
14
14
15
15
15
15
15
14
14
14
15
15
16
17
18
18
18
18
17
17
16
16
16
17
18
19
20
21
22
22
23
24
24
25
25
26
27
27
28
29
29
30
30
31
31
31
31
32
31
31
31
31
31
31
31
31
31
30
30
30
30
29
28
28
27
26
26
25
24
24
24
24
24
23
23
23
23
23
24
25
26
27
27
28
29
30
32
33
34
35
36
37
38
38
38
38
37
36
35
34
33
32
32
31
30
28
27
25
25
25
25
26
27
28
28
29
30
31
32
33
33
34
35
36
37
37
38
37
36
34
33
31
30
29
27
26
25
24
23
21
20
18
17
16
15
14
13
12
11
10
9
8
7
7
6
7
7
7
7
7
7
7
7
8
9
9
10
11
12
13
14
16
17
19
20
22
22
23
23
23
23
23
23
24
24
24
23
22
21
20
19
18
17
16
16
15
15
14
14
13
13
12
12
13
13
13
13
13
14
14
14
15
15
15
15
15
14
14
13
13
12
12
11
11
10
9
9
8
8
8
7
7
6
6
5
5
5
5
5
5
5
5
6
6
7
7
7
6
6
6
7
8
9
9
10
10
10
10
11
11
11
11
12
12
12
13
13
13
13
14
14
14
15
15
15
15
16
17
19
20
21
22
22
23
23
23
24
24
24
25
25
25
25
25
25
24
24
24
23
23
23
23
23
23
23
23
23
23
24
25
27
27
28
28
28
29
30
31
32
34
35
36
37
38
39
39
39
40
40
41
41
42
42
42
41
40
39
38
37
36
35
35
34
34
34
33
33
32
32
32
32
33
34
35
36
36
37
37
37
38
38
38
39
39
40
41
41
42
42
42
41
41
41
41
41
40
40
39
39
38
37
36
35
34
33
31
30
28
26
25
23
22
21
20
19
19
18
17
17
16
16
16
16
16
17
17
17
17
17
16
16
16
15
15
15
15
15
16
17
17
18
19
20
22
24
25
27
28
29
31
32
34
35
36
36
36
35
34
33
31
30
28
25
23
21
18
16
13
11
8
6
5
3
2
1
0
0
0
1
2
4
5
6
7
8
9
11
13
15
17
19
21
23
24
25
25
25
25
23
22
20
17
15
14
11
9
6
4
1
0
-1
-3
-4
-5
-5
-5
-4
-2
0
3
8
13
17
23
28
33
39
45
51
57
62
68
73
77
80
83
86
88
89
89
88
87
84
80
76
71
65
57
48
37
25
12
-1
-16
-32
-48
-65
-83
-100
-119
-137
-154
-172
-188
-203
-216
-228
-238
-245
-251
-255
-257
-258
-257
-254
-249
-243
-235
-227
-218
-208
-198
-188
-179
-169
-160
-152
-144
-136
-129
-122
-115
-109
-103
-99
-94
-90
-86
-82
-78
-73
-68
-63
-57
-52
-47
-42
-37
-33
-28
-23
-18
-13
-8
-4
0
5
8
12
14
16
18
20
22
24
25
27
27
28
29
29
30
30
30
30
30
31
31
31
31
31
31
31
31
31
31
30
29
29
28
28
27
27
26
26
26
26
26
26
26
26
26
26
26
27
28
29
31
32
34
36
38
39
41
42
43
44
44
45
45
45
45
45
45
46
45
45
44
43
41
39
37
36
35
34
34
34
34
34
34
33
33
33
33
33
33
33
33
33
34
34
34
35
35
35
35
34
34
33
32
32
31
31
31
32
32
31
31
30
30
29
29
29
29
30
30
30
30
30
30
30
30
30
31
31
31
31
31
31
31
31
31
31
31
30
30
30
30
30
30
29
29
30
30
30
31
31
31
32
32
33
33
33
34
34
34
35
36
36
37
37
38
38
38
38
38
38
38
38
38
38
37
37
36
36
35
36
36
36
36
35
35
34
34
34
34
34
34
35
35
36
36
37
37
38
38
39
39
40
40
41
42
42
43
43
43
43
44
43
43
43
42
42
42
41
41
41
41
40
39
39
39
39
39
40
40
41
42
43
44
45
46
46
47
47
46
46
45
44
42
41
39
38
37
35
33
32
30
28
27
26
24
24
24
24
25
27
28
30
31
32
33
33
33
34
35
36
37
37
37
36
36
35
34
34
33
32
32
31
31
31
31
31
30
30
29
28
27
26
26
25
25
24
24
23
23
22
22
21
21
21
21
21
21
22
23
23
24
25
26
27
27
28
28
28
28
29
29
29
29
29
28
28
27
27
27
26
26
26
26
27
27
28
28
28
28
28
28
29
29
30
31
31
32
32
32
32
32
32
31
31
31
32
32
32
33
33
33
33
33
32
31
30
30
29
29
30
30
31
31
32
32
31
31
30
30
31
31
32
32
33
33
34
35
36
37
38
39
39
39
40
40
40
40
41
41
42
42
42
43
43
43
44
44
44
44
44
43
43
44
44
45
45
45
45
45
45
45
45
45
45
45
45
45
46
47
48
48
49
49
50
50
51
51
52
52
53
54
54
54
54
54
54
54
54
54
54
53
53
52
52
52
51
51
50
50
50
50
50
51
51
52
52
53
53
53
54
54
55
56
57
57
57
57
57
57
57
56
56
56
55
54
54
53
52
51
49
47
46
45
45
45
44
44
43
43
42
42
43
44
44
45
46
46
47
47
47
47
47
47
47
46
46
46
45
45
44
43
41
39
36
35
34
33
33
33
32
31
30
29
29
28
28
28
29
30
32
33
35
36
37
37
38
39
40
41
42
43
44
44
43
43
42
41
40
39
38
37
36
34
32
31
30
28
27
25
24
23
21
21
20
20
21
21
21
21
21
22
22
22
22
22
22
23
23
24
24
24
23
23
22
22
22
22
22
23
23
23
23
23
23
24
24
25
26
27
28
29
30
30
31
32
34
35
37
40
42
45
48
50
54
57
61
65
69
74
78
82
87
91
95
98
101
103
104
105
105
104
103
100
97
93
87
81
72
62
50
37
22
7
-7
-23
-41
-59
-78
-97
-116
-135
-152
-169
-185
-200
-213
-225
-235
-242
-247
-251
-252
-251
-248
-244
-239
-231
-223
-213
-203
-192
-181
-170
-160
-150
-140
-130
-120
-112
-103
-96
-88
-81
-74
-68
-62
-56
-50
-44
-38
-32
-27
-21
-17
-13
-9
-5
-1
2
5
8
11
13
15
16
17
18
18
18
18
19
20
21
22
23
23
24
24
24
24
24
25
26
27
28
29
29
30
30
31
31
32
33
33
33
34
34
34
35
37
38
40
41
42
43
43
44
44
44
45
45
45
45
45
45
45
45
45
45
45
44
43
43
42
42
41
41
40
40
40
40
39
39
39
38
38
37
37
36
36
36
37
37
37
38
38
39
39
40
40
41
41
42
42
43
43
43
44
44
44
44
44
43
43
43
44
44
44
44
44
43
43
42
42
42
42
42
42
41
41
41
41
42
42
42
41
41
40
40
40
41
41
42
42
42
42
43
43
44
44
44
45
45
45
46
46
47
47
47
48
49
50
51
51
52
52
52
53
53
53
54
55
56
58
58
59
59
59
60
61
62
62
63
63
63
63
63
64
64
63
63
62
61
59
58
56
54
52
50
49
47
46
45
43
42
40
38
37
36
36
35
35
34
33
33
32
31
31
31
31
31
31
31
32
32
32
32
32
32
33
33
35
36
38
39
40
41
41
42
42
42
43
43
43
44
45
46
46
46
46
46
46
46
46
47
48
49
49
50
50
50
50
51
51
52
53
53
53
53
53
52
51
50
49
49
49
48
48
48
47
47
46
45
44
44
43
43
43
43
42
42
42
42
42
42
42
41
41
41
41
41
41
41
41
40
39
39
38
38
38
38
37
37
37
36
35
35
34
33
33
32
32
31
31
32
32
32
32
31
30
30
30
29
29
30
30
30
30
30
30
31
32
33
34
35
36
38
39
40
41
42
43
43
44
45
45
46
46
45
45
45
44
43
42
41
41
41
40
40
39
38
37
35
34
33
32
32
32
32
31
31
30
30
30
30
29
29
29
28
28
28
28
28
29
31
32
33
34
35
35
35
35
35
34
34
35
35
35
35
35
34
33
33
32
31
31
30
29
28
27
27
27
28
28
29
30
30
30
31
31
31
32
32
33
33
34
35
36
37
38
38
39
40
40
41
41
41
41
42
42
44
45
47
48
49
50
51
52
54
55
56
56
57
57
58
58
59
59
59
59
58
58
57
57
56
55
54
53
52
51
50
49
48
47
47
46
45
45
44
44
44
43
42
42
41
41
40
40
40
39
39
40
40
40
41
41
41
41
41
41
41
42
42
43
44
44
44
44
43
42
41
40
39
38
37
36
35
34
33
32
32
31
30
30
30
31
32
33
34
35
35
36
36
37
38
38
39
39
39
39
38
37
37
37
36
36
35
33
31
30
29
27
26
25
23
22
20
18
16
15
13
12
11
9
8
6
6
5
5
5
5
5
6
7
8
9
11
13
14
16
17
18
19
20
21
22
22
22
22
22
21
21
20
19
18
17
16
15
14
14
13
13
12
12
12
12
12
12
12
13
13
13
13
13
12
12
12
13
14
16
18
20
21
23
24
26
29
32
37
41
46
51
56
61
66
71
75
79
83
86
89
91
93
94
94
93
92
89
84
78
70
60
48
34
20
5
-10
-27
-45
-64
-83
-103
-123
-142
-161
-179
-197
-212
-226
-237
-246
-253
-258
-260
-259
-257
-254
-248
-241
-233
-223
-213
-202
-190
-179
-168
-157
-147
-137
-128
-119
-111
-104
-97
-92
-87
-82
-78
-75
-71
-68
-64
-60
-56
-52
-48
-44
-40
-35
-30
-25
-21
-16
-12
-7
-3
0
3
7
10
13
16
18
20
22
23
24
24
25
25
24
24
23
23
22
21
21
20
19
18
18
18
18
18
17
17
17
17
17
17
17
17
17
18
18
19
20
21
21
22
22
22
23
23
24
25
26
26
27
27
28
28
28
27
27
27
26
26
27
27
27
27
26
25
23
22
22
23
23
24
25
26
27
28
28
29
30
30
31
32
33
34
35
36
37
37
37
37
36
36
35
34
33
33
32
31
30
29
27
25
23
22
21
20
20
19
19
18
18
17
18
18
18
18
19
19
20
20
20
20
21
21
21
22
22
23
24
24
24
24
25
25
26
26
27
28
28
29
29
30
30
31
32
32
33
33
33
33
33
33
33
33
33
33
32
32
31
31
31
32
33
34
35
37
38
39
40
41
42
43
45
46
48
49
50
51
51
52
52
51
51
50
49
48
47
45
43
41
40
38
37
35
34
32
31
29
28
27
26
25
24
23
22
21
21
20
20
20
19
19
18
17
17
17
17
17
17
17
18
18
18
18
18
19
19
19
19
19
19
19
19
19
19
19
20
20
20
20
20
20
20
19
19
19
20
20
20
20
20
19
19
18
17
17
16
16
15
14
13
12
12
12
12
13
13
13
13
13
14
15
16
18
19
19
20
20
20
20
21
22
24
25
26
27
27
28
29
30
31
31
32
33
33
33
33
32
32
32
32
32
32
32
31
30
28
26
24
22
21
20
19
19
18
16
15
14
12
11
10
9
9
8
7
7
6
5
4
4
4
4
4
4
4
4
4
4
4
4
4
3
3
2
2
2
2
3
3
3
2
2
2
2
2
2
3
4
4
5
6
7
7
8
9
10
11
12
12
13
13
14
14
14
15
14
14
14
14
14
15
15
15
15
15
15
15
15
15
15
15
16
16
16
17
17
17
18
19
19
20
21
21
22
22
22
22
21
21
21
22
23
23
23
23
23
23
22
22
23
23
23
24
24
24
25
25
25
25
26
26
26
27
27
27
27
28
28
29
29
28
28
29
30
31
32
34
34
35
35
36
37
37
37
37
37
37
37
37
36
36
35
35
34
34
33
33
33
33
32
32
32
32
32
32
32
33
33
33
33
32
32
31
29
28
27
26
26
25
24
23
22
21
20
19
18
17
16
16
16
16
16
17
17
17
17
18
18
18
18
18
18
18
17
17
16
15
14
13
11
10
9
8
7
7
6
5
4
3
2
2
2
3
3
4
5
5
6
7
8
8
8
8
8
8
8
8
8
7
7
6
5
5
4
3
3
2
1
0
0
0
-1
-1
-2
-2
-3
-3
-2
-2
-2
-1
-1
-2
-2
-2
-2
-2
-2
-1
-1
-1
-1
-1
-1
-1
-1
-1
0
0
0
0
0
0
0
-1
-1
-1
-1
-1
-1
-2
-2
-3
-3
-3
-4
-4
-5
-5
-6
-6
-6
-7
-7
-7
-6
-5
-4
-2
0
2
4
7
10
14
18
22
27
31
36
42
47
52
58
62
66
70
72
74
76
76
76
75
73
70
67
62
57
51
43
34
24
12
0
-15
-31
-47
-63
-80
-97
-115
-133
-151
-169
-186
-203
-219
-234
-247
-259
-268
-275
-280
-283
-284
-283
-281
-277
-271
-264
-255
-245
-235
-225
-215
-204
-194
-185
-175
-166
-156
-148
-140
-133
-126
-121
-116
-111
-106
-102
-97
-93
-88
-84
-79
-74
-70
-65
-61
-56
-51
-46
-42
-37
-33
-29
-25
-22
-18
-15
-12
-9
-6
-3
0
1
3
5
6
7
8
9
10
11
11
12
12
13
13
13
13
13
13
13
13
13
13
12
12
12
12
11
11
11
11
11
11
11
11
11
11
11
11
11
11
11
11
10
10
10
10
9
9
9
9
9
9
9
8
8
7
7
7
7
7
8
8
8
8
8
9
9
10
11
12
12
13
13
14
14
14
15
15
15
15
15
16
17
19
20
22
24
26
27
29
30
31
32
32
33
33
34
34
35
35
36
35
33
31
29
27
25
23
21
18
16
14
12
10
8
7
6
5
4
4
3
3
3
2
2
2
2
3
3
4
5
5
6
7
7
7
7
6
5
4
3
2
0
0
-1
-2
-3
-5
-6
-7
-7
-7
-8
-8
-8
-7
-6
-4
-2
0
2
4
6
7
8
9
9
10
12
13
15
15
16
16
16
16
16
16
16
17
17
18
19
20
21
23
24
25
26
27
28
28
28
28
29
29
28
28
27
26
25
24
24
24
23
23
22
21
21
20
20
20
19
19
19
19
19
19
18
18
18
17
16
15
14
14
14
14
13
13
12
11
10
10
10
10
11
11
11
12
13
13
14
14
14
14
14
15
15
16
16
16
15
15
14
14
13
12
11
10
9
8
7
6
5
4
2
1
0
-1
-2
-3
-3
-4
-4
-5
-5
-6
-7
-7
-7
-6
-6
-5
-4
-4
-3
-3
-3
-2
-2
-1
0
0
0
1
1
1
2
2
2
2
2
1
1
0
0
0
0
0
0
-1
-1
-1
-1
0
0
0
0
0
0
0
0
0
0
0
0
0
0
0
-1
-2
-2
-3
-3
-4
-6
-8
-10
-12
-14
-15
-15
-15
-16
-16
-17
-18
-19
-20
-21
-22
-23
-23
-23
-23
-24
-24
-24
-24
-25
-25
-26
-26
-26
-25
-25
-25
-24
-23
-22
-21
-20
-19
-19
-19
-19
-18
-18
-18
-17
-17
-16
-16
-16
-16
-16
-16
-16
-15
-14
-13
-12
-10
-9
-8
-7
-7
-7
-6
-4
-2
-1
0
0
1
1
1
1
1
1
1
1
1
0
0
-1
-2
-2
-3
-2
-2
-1
-1
0
0
0
0
2
3
4
6
7
9
10
12
13
14
15
16
17
17
17
17
16
16
16
15
14
13
12
11
10
9
8
7
6
5
5
4
4
4
4
4
5
5
6
7
8
8
9
10
10
11
12
13
14
14
15
16
17
18
18
18
18
18
18
17
16
15
14
13
11
10
9
7
4
2
0
-2
-5
-8
-11
-13
-16
-19
-21
-23
-25
-27
-28
-29
-30
-31
-32
-32
-32
-32
-32
-32
-32
-31
-31
-30
-30
-29
-28
-28
-28
-27
-27
-27
-26
-26
-26
-26
-27
-28
-28
-29
-29
-28
-28
-28
-28
-29
-29
-29
-28
-28
-27
-27
-28
-27
-27
-26
-26
-25
-24
-24
-24
-24
-25
-25
-25
-25
-24
-24
-23
-24
-24
-25
-25
-25
-25
-26
-25
-25
-25
-24
-23
-22
-22
-21
-21
-21
-22
-22
-22
-22
-22
-21
-21
-20
-19
-19
-19
-20
-20
-20
-20
-19
-18
-17
-15
-13
-11
-8
-6
-2
0
4
7
11
14
17
21
24
28
31
34
36
38
39
39
38
37
36
33
30
26
20
13
4
-5
-17
-30
-44
-59
-75
-91
-108
-126
-144
-162
-181
-199
-217
-234
-251
-265
-278
-288
-296
-302
-306
-308
-309
-308
-305
-301
-295
-287
-278
-269
-259
-249
-239
-229
-219
-210
-201
-193
-185
-177
-170
-163
-157
-150
-144
-139
-134
-129
-124
-119
-112
-105
-98
-90
-83
-76
-70
-64
-58
-51
-46
-40
-36
-32
-29
-26
-24
-22
-20
-19
-19
-20
-21
-23
-25
-28
-31
-33
-35
-37
-39
-40
-41
-42
-42
-43
-44
-44
-45
-46
-46
-45
-45
-44
-43
-42
-41
-40
-39
-38
-38
-37
-37
-36
-35
-34
-34
-33
-33
-32
-32
-32
-32
-32
-33
-33
-34
-35
-35
-35
-35
-35
-35
-35
-36
-36
-36
-37
-37
-36
-36
-35
-35
-34
-33
-33
-33
-32
-31
-31
-30
-29
-28
-27
-27
-27
-26
-26
-26
-25
-25
-24
-24
-24
-24
-25
-25
-26
-27
-28
-29
-29
-30
-30
-31
-31
-32
-33
-34
-34
-35
-35
-35
-34
-34
-34
-34
-34
-33
-33
-33
-32
-32
-32
-32
-31
-30
-30
-29
-29
-28
-28
-28
-27
-27
-27
-26
-26
-25
-24
-24
-23
-23
-22
-22
-22
-22
-22
-22
-23
-23
-22
-22
-21
-20
-20
-20
-20
-21
-21
-22
-23
-23
-22
-22
-22
-21
-21
-22
-22
-22
-22
-22
-22
-22
-21
-21
-21
-21
-21
-20
-20
-19
-19
-19
-19
-19
-20
-20
-21
-21
-21
-22
-22
-23
-24
-25
-26
-28
-29
-30
-31
-32
-32
-33
-33
-33
-34
-34
-34
-35
-35
-35
-34
-34
-34
-34
-33
-33
-33
-32
-33
-33
-33
-33
-33
-33
-33
-33
-33
-34
-34
-34
-34
-35
-35
-36
-37
-38
-39
-40
-40
-41
-41
-41
-42
-42
-42
-43
-43
-44
-44
-44
-43
-43
-42
-42
-41
-40
-39
-38
-38
-37
-36
-35
-35
-34
-34
-34
-34
-34
-34
-35
-35
-36
-37
-38
-39
-40
-41
-41
-42
-42
-42
-42
-42
-42
-41
-40
-39
-38
-37
-36
-34
-32
-31
-29
-28
-27
-27
-27
-27
-28
-28
-28
-28
-28
-29
-30
-31
-32
-34
-35
-37
-38
-39
-40
-40
-40
-39
-39
-39
-39
-38
-37
-37
-36
-36
-36
-36
-37
-37
-38
-38
-38
-38
-38
-38
-39
-40
-40
-40
-40
-41
-41
-41
-41
-41
-41
-41
-41
-41
-41
-41
-41
-41
-41
-42
-42
-43
-44
-46
-47
-48
-48
-49
-50
-50
-51
-51
-52
-52
-52
-52
-52
-51
-50
-48
-47
-46
-45
-45
-44
-44
-43
-43
-43
-43
-42
-42
-42
-42
-42
-42
-43
-44
-45
-46
-47
-48
-48
-49
-49
-50
-50
-51
-53
-54
-54
-55
-54
-54
-54
-54
-53
-53
-52
-52
-51
-50
-50
-49
-48
-47
-45
-44
-43
-42
-41
-41
-39
-38
-37
-36
-35
-34
-34
-33
-32
-32
-31
-31
-32
-32
-33
-33
-33
-33
-32
-32
-32
-32
-32
-33
-33
-34
-34
-34
-33
-33
-32
-31
-31
-31
-31
-30
-30
-29
-28
-27
-27
-27
-28
-28
-28
-29
-29
-30
-30
-30
-31
-31
-30
-31
-31
-31
-32
-32
-32
-32
-32
-32
-32
-31
-31
-31
-30
-30
-30
-29
-28
-27
-27
-27
-27
-27
-28
-28
-28
-28
-28
-28
-28
-28
-28
-28
-29
-30
-31
-31
-33
-34
-35
-37
-38
-39
-39
-40
-41
-43
-44
-45
-47
-49
-50
-51
-51
-52
-52
-52
-53
-53
-54
-54
-55
-55
-55
-55
-55
-55
-54
-54
-53
-52
-52
-52
-51
-51
-51
-50
-50
-50
-50
-50
-50
-50
-50
-51
-51
-52
-53
-53
-54
-54
