# Simple Text Format
# Sampling Rate (Hz):= 1200.00
# Resolution:= 12
# Labels:= ECG	 V4
# Age:=	67
# Gender:=	Feminino
18
19
19
19
20
20
20
20
20
20
19
19
18
18
16
16
14
14
12
12
11
10
10
11
10
11
13
15
19
24
30
37
46
55
66
79
93
108
124
141
158
175
191
205
218
230
241
248
255
260
261
259
256
248
238
224
209
191
170
149
126
101
78
54
29
5
-16
-37
-58
-77
-95
-111
-125
-137
-148
-157
-166
-171
-175
-178
-178
-178
-177
-173
-169
-164
-158
-151
-143
-136
-127
-119
-110
-101
-92
-83
-74
-66
-58
-50
-42
-35
-29
-23
-18
-12
-7
-3
1
5
9
11
14
17
19
21
24
26
27
29
31
32
34
36
37
37
39
40
41
42
43
44
44
45
45
45
46
46
45
46
46
46
46
46
47
47
46
46
46
46
46
46
46
46
47
46
46
47
48
47
48
49
48
49
50
50
50
51
52
52
53
53
53
54
54
54
54
54
54
54
54
54
54
53
53
52
53
53
53
53
53
53
53
54
54
55
56
56
57
57
58
58
59
59
60
61
62
63
63
64
65
66
66
67
68
69
70
71
72
73
74
75
75
76
76
76
77
77
78
79
79
79
79
79
79
79
80
80
80
81
81
81
81
81
82
82
83
84
84
85
86
87
88
88
88
89
90
91
92
92
94
95
95
96
97
98
99
100
100
102
102
103
104
105
106
106
107
108
109
111
112
113
115
115
117
119
120
122
123
125
126
128
129
130
131
132
134
135
136
138
139
139
140
142
142
143
144
146
147
147
148
148
149
148
149
149
150
150
151
151
152
152
151
151
151
151
149
150
149
149
149
149
148
148
148
148
147
146
146
145
145
144
143
142
141
140
139
139
138
137
136
134
134
132
131
129
128
127
125
123
121
120
118
117
114
112
111
109
107
105
103
101
100
99
97
95
93
92
90
89
87
87
86
84
84
82
81
81
79
78
77
76
75
74
73
72
71
70
69
68
68
66
66
65
65
64
63
63
62
61
60
60
59
58
56
56
55
53
52
51
50
49
47
46
44
42
40
38
37
35
33
31
30
29
27
27
26
24
23
22
21
20
19
18
18
17
16
16
15
14
14
13
13
12
12
12
11
11
10
9
10
9
9
8
8
7
6
6
5
5
4
3
2
3
1
1
0
-1
-2
-3
-3
-4
-4
-6
-6
-7
-8
-8
-8
-8
-7
-7
-6
-6
-5
-5
-4
-2
-1
0
1
3
5
6
7
9
10
11
12
13
14
15
16
16
17
18
19
19
19
20
22
22
23
23
24
25
26
26
27
28
29
30
31
31
32
33
34
35
35
36
36
37
37
38
39
40
40
41
42
42
43
43
43
44
45
44
45
45
46
47
47
47
47
48
47
47
49
49
50
49
50
50
50
50
50
51
51
51
51
52
52
52
53
53
53
53
53
53
54
54
54
55
55
55
56
56
57
58
58
58
58
58
59
58
59
59
59
59
59
59
59
59
58
57
57
55
55
55
55
53
53
52
52
51
50
50
50
50
50
50
50
49
49
49
49
49
48
48
47
47
47
45
45
43
43
42
40
40
39
37
37
36
36
36
35
35
34
35
34
34
35
34
35
35
35
35
35
35
35
35
35
36
36
35
35
35
35
34
35
34
34
34
34
34
34
33
33
33
32
33
32
31
31
31
30
30
31
31
30
31
31
32
32
32
32
33
34
34
34
35
35
36
36
37
37
38
37
37
37
36
35
33
31
29
27
25
23
22
20
18
17
16
16
16
18
19
22
27
32
40
49
59
72
85
101
118
136
156
176
196
214
232
249
266
279
291
301
310
316
320
320
316
311
300
288
272
255
235
213
190
165
141
115
91
66
43
20
-2
-23
-42
-60
-76
-91
-104
-115
-124
-132
-137
-141
-144
-144
-144
-142
-137
-133
-128
-122
-115
-108
-99
-91
-82
-72
-63
-54
-45
-36
-28
-18
-11
-4
4
10
16
22
27
32
36
39
42
44
47
48
51
52
53
54
54
55
56
56
56
57
57
58
58
59
59
60
61
62
62
62
63
64
64
64
65
66
67
68
68
69
70
70
70
70
71
71
71
72
71
71
71
70
71
70
70
71
70
70
70
71
71
71
71
71
72
73
73
74
74
76
76
77
78
79
80
81
82
83
84
85
86
87
88
88
89
90
91
91
93
93
95
95
96
96
96
96
97
97
97
98
98
98
98
99
99
99
100
99
100
100
101
100
101
102
102
102
103
102
103
103
103
103
103
104
104
105
106
107
108
108
109
110
111
112
113
116
117
118
119
120
122
123
124
125
126
127
128
130
130
131
133
134
134
135
136
137
138
139
139
140
141
141
142
144
144
145
146
147
148
149
150
151
153
154
155
156
158
159
161
162
163
164
165
165
165
165
166
166
167
167
167
168
168
168
167
168
167
168
168
169
170
170
172
174
175
177
178
179
181
182
184
185
186
187
187
189
190
191
192
191
193
193
193
193
192
192
192
191
191
190
189
188
187
187
186
185
184
183
181
180
178
177
176
175
174
173
172
170
169
168
166
165
164
162
160
159
157
156
154
152
151
148
147
145
142
141
139
136
135
133
130
129
127
125
123
122
120
119
117
115
113
112
111
109
108
107
106
105
104
103
102
100
99
98
96
95
94
92
91
91
90
90
89
88
88
88
87
86
86
86
84
84
85
84
84
84
84
83
83
82
82
82
81
80
79
78
78
77
76
76
76
76
75
74
74
74
73
73
72
71
70
70
70
70
70
70
70
69
69
69
69
68
68
68
69
68
69
69
68
69
69
68
69
68
67
68
67
66
66
65
65
64
64
64
64
63
63
63
63
63
64
64
64
65
66
66
67
68
68
68
70
70
70
71
72
72
73
73
74
74
73
74
75
74
74
75
76
77
77
79
79
80
80
82
82
83
85
85
87
88
89
90
91
92
92
93
94
95
96
97
97
98
99
100
101
102
102
103
104
104
105
107
107
108
109
109
109
110
111
112
113
113
113
114
114
115
114
115
115
115
117
117
117
117
117
118
118
118
119
119
119
119
119
118
118
117
118
118
118
118
117
117
116
115
115
115
114
113
112
112
110
110
109
109
109
109
108
108
109
108
108
109
108
109
109
110
110
110
112
112
112
113
113
113
113
113
112
112
111
111
109
109
108
108
106
105
104
103
101
101
100
99
98
98
97
96
95
94
94
93
91
91
90
90
90
90
89
89
89
89
89
90
90
90
91
91
92
92
93
93
94
94
94
94
95
95
95
95
95
95
94
95
95
94
95
94
95
94
95
94
94
94
95
95
95
96
95
95
95
96
95
95
95
94
94
93
93
92
91
90
88
87
86
85
84
83
82
80
79
79
78
78
79
81
84
88
92
100
107
116
127
140
154
168
185
202
221
239
257
274
290
303
315
327
336
343
348
350
349
344
337
326
313
296
277
256
234
210
186
160
135
110
87
64
42
21
1
-16
-32
-47
-60
-71
-80
-87
-93
-98
-100
-101
-100
-97
-94
-89
-83
-76
-69
-61
-54
-46
-37
-27
-18
-8
1
11
19
27
33
41
47
55
61
66
72
76
81
84
88
90
93
94
97
99
101
102
103
104
106
107
108
109
109
110
112
112
112
113
113
115
116
116
117
118
119
120
121
123
124
125
125
127
127
128
128
129
128
129
129
129
129
128
128
129
128
127
128
128
128
128
128
128
129
129
129
130
130
131
131
132
133
133
134
134
134
134
135
135
136
136
136
137
137
138
138
139
139
139
139
140
140
140
141
141
142
142
142
143
143
143
144
145
146
146
147
147
148
149
150
151
152
153
154
155
156
156
157
156
157
158
157
158
158
158
159
158
158
159
158
158
159
159
159
159
160
160
162
162
163
164
165
166
167
167
168
170
171
171
173
174
174
175
176
177
178
179
180
180
181
182
184
185
186
187
188
189
190
191
192
192
193
195
196
197
198
199
199
201
201
202
203
204
205
206
207
207
208
210
210
211
212
213
215
216
217
217
218
219
219
220
221
221
222
223
224
225
226
226
227
226
227
227
227
227
228
227
228
228
228
228
229
228
228
228
228
228
228
228
228
227
227
226
226
226
225
225
224
223
222
221
220
219
218
216
214
213
211
210
208
206
205
202
201
199
197
195
194
192
190
188
187
185
184
182
181
179
178
176
175
173
172
171
169
168
167
165
163
162
160
159
158
157
156
154
153
152
152
150
149
148
147
147
146
146
144
144
143
142
140
140
138
138
138
137
136
135
134
133
133
132
131
131
131
129
129
129
128
128
127
127
126
125
124
123
122
122
121
121
119
118
118
117
116
116
115
115
115
114
114
113
113
113
113
113
113
113
114
114
113
113
113
114
113
114
114
114
113
113
113
113
112
113
113
113
113
113
112
112
112
112
112
112
112
111
111
112
112
111
112
112
113
112
112
113
113
113
113
113
113
114
114
114
115
115
115
115
115
115
116
116
116
117
117
118
119
119
119
120
120
120
121
121
121
123
123
124
124
124
125
126
126
127
128
129
128
130
130
131
131
133
134
134
135
136
136
138
138
139
139
140
140
141
141
143
143
144
144
145
146
146
148
148
149
151
152
152
153
155
155
156
157
157
158
159
161
162
161
162
163
163
164
163
164
164
164
164
163
163
164
164
163
163
162
163
162
161
161
160
159
158
157
155
154
153
152
151
151
150
149
148
148
146
145
145
144
144
144
144
144
144
145
145
146
145
147
147
147
148
149
150
149
150
150
149
149
149
149
149
148
148
148
147
147
147
146
145
146
145
145
144
143
144
143
143
142
141
140
140
139
138
138
137
137
136
136
135
134
134
133
132
132
132
131
131
130
130
130
130
130
130
130
131
131
131
131
131
131
131
130
130
130
131
131
131
131
131
131
131
131
131
131
131
132
131
132
131
132
131
131
131
131
131
131
131
131
131
130
130
130
130
130
130
129
128
127
127
126
125
125
124
123
123
122
122
122
123
124
127
130
134
138
145
151
160
170
182
194
208
223
239
256
274
290
306
320
334
344
354
362
367
370
372
369
365
357
346
333
317
298
277
255
231
208
183
159
135
111
89
67
47
28
12
-4
-19
-31
-42
-51
-57
-63
-67
-70
-71
-71
-69
-66
-62
-57
-51
-45
-37
-29
-21
-12
-3
5
15
24
34
43
53
61
68
76
84
91
98
104
110
115
119
124
127
131
133
136
139
140
142
144
145
146
147
147
149
150
150
151
151
151
152
152
153
153
154
155
155
156
156
158
158
158
158
159
159
159
159
159
160
160
160
160
160
160
160
160
160
159
160
160
160
160
161
161
161
161
162
162
161
161
162
161
160
161
161
161
161
162
162
163
163
163
163
163
163
164
164
164
165
165
166
166
166
166
166
166
167
167
167
167
168
168
168
169
170
170
171
170
171
171
171
172
173
173
174
176
176
177
177
179
179
180
180
181
182
182
182
183
184
183
184
185
186
186
187
188
188
190
190
191
192
192
193
194
195
196
196
198
198
199
200
200
202
203
204
205
205
206
207
207
208
208
208
209
211
211
212
213
214
215
216
217
218
218
219
220
222
223
224
225
226
227
228
229
231
231
232
233
235
236
237
238
239
239
240
241
242
242
243
244
244
244
245
246
246
246
246
246
246
246
246
247
247
247
247
247
247
247
247
247
248
248
248
248
248
248
248
248
248
247
247
247
246
245
244
243
243
242
241
241
240
239
238
237
236
235
234
233
232
231
230
229
229
228
227
226
225
224
223
222
222
221
220
218
217
217
215
214
213
212
210
208
207
205
203
202
200
198
197
194
193
190
188
186
184
182
180
178
177
175
173
172
171
170
169
168
165
164
163
162
160
160
159
158
157
155
155
155
153
153
152
151
150
149
149
148
148
147
147
146
147
147
147
147
146
147
146
146
146
145
145
144
145
144
143
144
144
143
143
142
141
140
140
139
140
139
139
138
139
138
137
137
137
136
136
136
136
136
135
135
135
134
133
134
133
132
132
132
132
131
131
131
130
130
130
129
129
128
129
128
128
128
128
129
128
128
128
128
128
127
127
127
127
127
128
128
128
129
129
129
130
130
131
132
132
133
133
133
134
135
135
136
136
137
137
137
137
136
137
136
137
137
138
139
139
140
140
140
141
142
143
144
145
146
147
148
149
150
151
152
153
154
156
156
157
158
159
161
162
163
163
164
165
166
167
169
169
170
171
172
173
173
175
175
176
176
177
178
178
178
177
177
177
177
177
178
178
177
177
177
177
176
176
176
175
175
175
175
175
175
175
174
174
174
173
173
172
172
172
171
171
170
171
169
169
168
169
167
167
166
164
164
163
162
162
161
160
159
158
157
156
155
154
154
154
154
154
153
153
153
152
152
153
153
153
153
153
152
153
153
153
153
153
153
152
152
152
151
151
150
149
149
148
148
147
147
147
145
145
145
145
144
144
144
143
142
142
141
141
140
140
139
140
139
139
138
138
138
138
138
138
138
138
137
138
137
137
138
139
140
140
140
140
141
141
142
142
142
143
143
143
144
144
143
144
144
144
144
144
143
142
142
141
139
138
137
136
135
134
132
131
130
129
128
126
125
124
124
123
123
123
125
126
128
130
134
139
146
152
160
170
182
195
208
224
240
256
273
291
306
321
335
347
358
365
372
378
379
379
375
368
358
345
329
311
291
270
246
222
197
173
148
124
101
79
58
39
21
5
-9
-23
-33
-43
-51
-58
-62
-65
-66
-67
-65
-63
-59
-53
-48
-41
-35
-27
-19
-11
-2
7
15
25
34
43
52
60
69
77
84
92
98
104
109
115
119
123
127
131
134
136
139
141
143
145
146
147
148
148
149
149
150
150
151
151
152
152
152
152
152
152
153
154
154
155
155
157
157
157
158
159
160
160
160
161
162
162
163
163
164
164
165
164
164
164
164
163
162
162
162
161
161
161
162
162
162
162
162
162
162
162
164
165
165
167
168
169
170
171
171
172
172
172
173
174
173
174
173
173
173
172
172
172
172
172
173
171
172
172
173
173
173
173
173
174
174
175
176
175
175
176
176
176
176
176
177
176
176
176
177
177
178
178
179
179
179
180
180
181
182
183
184
184
186
187
188
189
189
190
191
192
192
193
194
195
196
197
197
198
199
200
201
202
202
204
205
206
207
208
209
210
211
212
212
213
214
215
216
216
218
218
219
220
221
221
222
224
225
226
227
228
229
231
232
233
234
236
237
238
239
240
241
242
243
245
245
247
247
249
249
251
251
252
253
254
254
255
255
257
257
257
258
258
258
258
258
258
258
257
257
256
255
255
254
254
254
253
252
251
249
248
248
247
246
245
244
243
241
241
239
237
236
235
233
232
231
231
229
228
226
224
224
222
221
218
217
215
214
212
210
208
207
205
203
201
199
196
195
193
191
190
188
186
185
184
183
181
181
179
178
178
177
176
176
176
174
174
173
172
171
169
169
168
167
166
165
164
163
162
161
159
158
157
156
156
155
153
153
152
151
151
149
149
147
146
146
145
144
143
142
142
142
141
141
139
139
138
137
137
137
136
136
135
135
135
134
134
134
133
133
133
134
134
134
134
134
133
133
133
133
132
133
132
132
132
132
132
132
132
131
131
131
131
131
130
130
130
130
130
130
130
129
130
130
130
130
130
130
130
130
130
131
130
130
131
131
131
132
131
131
132
132
132
131
132
132
131
131
130
130
129
129
129
128
128
128
129
129
129
129
129
129
129
130
130
131
131
132
133
133
133
134
135
135
136
135
137
137
138
137
138
139
140
142
142
143
145
146
148
148
150
151
153
155
156
157
158
160
160
161
162
162
163
164
164
165
164
165
166
166
167
167
167
167
168
168
169
169
169
168
169
169
170
170
170
170
170
169
169
169
169
169
169
169
168
167
167
167
166
166
166
166
166
165
165
164
164
164
163
162
162
161
161
160
160
159
158
158
158
158
157
157
157
156
157
157
156
157
157
157
157
157
157
157
157
157
157
158
157
157
156
156
154
154
153
152
152
151
150
150
148
147
146
144
145
144
143
142
142
141
140
140
139
139
138
138
137
136
136
136
135
135
135
134
134
134
134
133
133
133
132
132
132
131
132
132
132
133
133
133
132
133
132
132
132
132
132
132
133
132
133
133
133
133
133
132
133
132
132
132
132
130
130
128
127
127
125
124
122
120
118
116
114
112
110
108
105
103
102
101
102
102
105
108
112
118
124
133
143
154
168
182
198
215
234
252
270
286
303
317
331
344
354
362
368
370
372
368
362
352
339
324
306
286
265
241
217
192
167
141
117
92
69
47
27
8
-10
-25
-40
-53
-65
-74
-82
-87
-92
-95
-96
-96
-95
-91
-87
-82
-77
-69
-62
-55
-47
-38
-29
-19
-11
-2
7
17
24
34
41
49
56
63
69
74
79
83
87
90
93
96
97
99
101
102
103
104
104
104
104
104
104
105
105
105
105
105
104
105
105
104
105
104
105
105
104
105
105
105
105
105
106
106
105
105
105
105
105
104
105
104
104
104
104
104
104
104
104
104
104
104
104
105
106
106
106
107
107
108
108
109
109
110
110
112
112
113
113
114
114
115
115
115
116
117
117
117
118
119
119
120
120
120
120
121
121
121
121
121
121
122
122
122
122
123
123
123
123
123
123
124
125
124
126
126
126
126
126
127
126
126
127
127
128
128
128
128
128
128
128
128
129
129
129
129
130
130
131
131
132
133
134
134
135
136
138
138
139
140
141
142
143
144
145
146
147
147
148
149
150
151
152
154
155
156
157
159
160
162
164
166
167
169
170
172
174
176
177
179
181
183
185
187
188
189
190
191
193
194
196
196
196
198
198
198
199
200
201
201
202
202
203
203
203
205
205
206
205
206
206
207
206
207
207
208
208
209
209
209
210
210
210
210
209
209
209
208
208
207
206
206
205
204
202
201
200
198
197
196
194
192
191
190
189
188
185
184
183
181
180
179
176
175
173
171
169
168
166
164
162
160
159
156
154
152
151
148
146
145
142
141
139
137
136
135
133
131
130
129
128
127
125
124
123
121
120
118
117
116
114
114
113
112
110
108
107
106
105
104
102
101
100
100
99
98
97
95
95
94
93
93
92
91
90
89
89
89
88
88
87
86
86
86
85
84
83
83
83
82
82
81
81
81
80
79
79
78
78
78
78
78
78
78
78
78
78
78
79
79
79
79
80
79
79
79
79
78
78
78
78
78
77
77
76
76
75
75
75
74
73
73
72
72
72
72
72
72
71
70
70
70
70
69
68
68
68
67
67
66
66
65
64
64
64
64
63
62
62
61
61
61
61
61
61
60
60
61
60
60
60
61
62
62
62
63
63
63
65
65
66
67
68
68
70
70
70
71
72
72
73
73
73
73
73
73
73
73
73
74
73
73
74
74
75
75
75
76
76
77
77
77
79
79
79
80
82
82
83
84
84
84
85
85
86
87
86
87
88
89
90
90
91
92
92
92
93
93
94
94
94
95
95
95
94
94
94
93
93
93
92
92
91
91
90
90
90
90
89
88
89
89
89
89
90
90
90
90
91
90
90
90
90
90
89
89
89
88
88
88
87
87
86
85
85
84
84
84
83
83
83
83
83
83
82
82
82
82
81
81
80
79
79
77
76
74
73
71
69
68
66
64
61
59
59
58
57
57
58
59
61
65
71
77
86
96
107
119
133
147
162
178
193
208
221
234
245
254
262
269
272
272
271
266
259
248
235
219
201
181
159
135
112
87
63
40
17
-4
-24
-43
-60
-76
-90
-102
-113
-121
-128
-133
-136
-138
-138
-136
-132
-127
-122
-115
-108
-100
-91
-82
-72
-63
-53
-42
-33
-23
-14
-4
5
13
21
28
36
41
46
51
56
60
65
68
71
73
75
76
78
79
80
82
82
83
84
84
85
85
86
86
86
86
87
87
87
88
88
88
89
90
90
90
91
91
91
92
92
91
92
92
93
93
94
94
94
95
95
96
97
97
97
98
98
100
100
101
101
102
103
103
104
104
105
105
105
105
106
106
106
107
107
107
107
107
107
107
107
108
107
108
107
107
108
108
108
108
108
108
108
109
109
109
110
110
111
111
113
113
114
114
115
116
116
117
117
119
119
119
120
120
120
120
119
120
119
119
119
119
118
119
118
119
119
119
120
121
122
123
123
124
124
126
127
129
130
131
132
134
135
136
138
139
141
142
142
144
144
146
147
147
148
150
151
152
152
154
155
157
158
159
160
161
162
164
165
166
167
168
170
172
173
174
175
176
176
177
179
179
180
180
181
182
182
182
183
183
184
184
184
185
186
186
186
186
187
187
186
187
187
188
188
188
189
188
189
188
189
188
188
188
189
189
189
189
189
188
189
189
190
189
189
189
188
188
187
188
187
186
185
184
183
181
181
179
177
176
175
175
173
172
170
168
167
165
164
163
162
159
158
157
156
154
153
152
150
148
147
145
142
140
138
135
132
131
129
126
125
122
120
119
117
115
114
112
111
110
109
108
107
107
107
107
107
108
107
107
107
107
106
106
106
106
105
105
104
104
103
103
102
102
101
100
100
99
98
98
98
97
96
95
95
95
94
93
93
91
90
89
89
88
87
87
87
85
85
85
85
85
85
85
85
84
84
84
85
85
86
86
86
86
86
85
85
85
85
86
85
86
85
85
84
85
84
84
83
83
83
81
81
80
79
79
78
78
77
77
77
77
77
77
77
76
76
77
77
77
77
78
78
79
80
80
80
81
81
82
82
81
81
81
81
81
81
80
80
80
79
78
78
78
77
78
77
77
77
76
76
76
76
76
77
77
77
77
78
78
78
78
78
79
79
79
81
81
81
83
83
83
84
84
86
86
86
87
88
88
88
89
89
89
89
90
90
90
90
90
89
90
90
89
89
89
88
89
89
89
88
88
89
89
89
89
90
90
91
91
93
93
93
95
95
97
98
98
100
100
101
102
102
103
103
105
104
105
105
106
106
106
105
106
105
104
105
105
105
106
106
106
106
107
107
107
108
110
111
112
113
114
115
116
117
117
118
118
118
118
119
119
120
119
119
120
119
119
119
118
118
118
117
117
116
117
116
117
116
116
117
116
116
115
115
115
115
114
114
113
113
113
113
112
111
111
110
110
109
109
108
108
107
107
106
106
106
106
105
104
104
103
104
103
102
103
103
102
102
101
101
101
101
101
101
101
100
101
101
101
100
100
100
99
99
99
99
98
98
97
97
96
95
95
94
93
93
91
91
90
90
90
90
90
89
89
88
87
87
86
86
85
86
85
85
85
85
84
83
83
83
83
82
82
82
81
81
82
81
82
82
82
81
82
82
83
83
84
84
85
85
84
84
85
86
86
86
87
87
87
87
87
88
87
87
87
86
85
85
85
86
86
86
85
85
84
84
86
86
87
90
91
94
96
101
106
114
122
132
143
155
170
184
201
217
235
254
272
287
303
318
329
341
349
355
359
361
358
354
345
333
319
302
281
260
237
212
188
162
135
110
84
61
37
16
-4
-22
-39
-54
-67
-79
-88
-96
-102
-107
-111
-111
-111
-110
-107
-104
-99
-94
-88
-81
-73
-66
-58
-49
-40
-31
-22
-13
-4
5
13
22
30
37
45
51
57
63
68
73
78
81
85
88
91
94
96
97
99
100
101
102
103
103
104
105
105
105
105
105
105
106
106
106
106
106
106
106
107
107
106
107
107
107
107
107
106
106
106
106
107
108
108
108
109
109
108
109
109
110
110
110
110
110
110
111
111
111
111
110
110
110
111
111
112
112
113
114
115
115
115
117
117
119
120
121
123
124
125
126
127
128
128
130
130
131
130
131
132
131
132
132
133
133
133
133
133
133
133
134
134
134
133
133
133
133
133
133
133
134
134
134
136
136
136
137
137
137
138
140
140
140
141
142
143
143
144
145
145
145
147
147
147
148
148
148
149
149
150
150
151
151
152
153
152
153
154
154
155
156
156
157
158
159
159
161
161
162
163
164
164
165
165
166
167
168
169
171
172
172
173
174
175
176
177
178
179
180
181
182
183
185
186
186
187
187
189
190
190
191
192
193
193
194
195
196
197
198
198
200
200
201
201
201
200
200
201
200
200
200
199
199
199
197
196
196
195
194
194
193
193
194
194
194
195
195
196
196
196
196
196
197
197
197
198
198
198
198
198
196
195
194
192
190
188
186
185
183
182
179
177
176
174
173
172
171
169
169
167
166
165
164
164
163
163
161
161
159
158
157
155
154
152
151
150
148
146
145
142
141
140
137
136
134
133
132
131
130
129
127
127
125
124
123
121
121
120
118
118
116
115
115
115
113
113
112
112
112
110
110
109
109
108
108
107
106
105
104
103
103
102
101
101
100
100
98
98
97
97
96
94
94
93
93
92
92
92
91
91
91
90
90
89
89
88
87
87
87
86
86
86
86
86
86
85
84
84
84
86
86
86
86
86
86
86
86
87
87
87
88
87
87
87
87
87
87
86
86
85
84
83
83
82
82
81
80
81
80
80
80
80
79
80
80
80
80
81
81
82
82
82
83
84
84
84
84
84
85
84
85
86
86
87
88
88
89
90
90
90
91
93
93
94
96
96
97
98
99
100
101
102
103
103
104
104
105
106
106
108
108
109
109
111
112
112
113
113
115
115
116
117
118
118
120
120
121
122
123
123
124
124
123
124
124
125
125
125
125
125
125
125
124
124
124
124
123
123
123
123
123
122
122
121
121
121
120
120
120
120
120
119
119
120
120
119
119
120
119
118
118
118
117
117
117
116
115
115
115
115
114
115
114
115
115
116
117
117
117
117
117
117
117
118
118
117
117
116
115
116
114
113
112
110
109
107
105
104
102
100
99
98
97
96
96
95
95
94
93
93
93
93
92
92
92
91
91
90
90
90
90
90
90
90
90
90
89
88
88
88
88
88
89
88
89
88
88
88
89
89
89
89
89
89
89
88
89
88
89
88
88
89
89
89
89
90
91
91
92
92
91
92
91
91
90
89
89
87
86
85
83
83
81
79
78
77
76
76
78
81
85
89
96
103
113
123
136
150
165
181
199
217
236
254
271
287
301
313
325
334
341
345
347
345
340
332
321
308
291
272
251
228
205
180
154
129
104
80
57
34
14
-5
-23
-39
-52
-64
-75
-84
-91
-97
-100
-102
-102
-101
-98
-95
-91
-85
-80
-73
-66
-58
-49
-41
-31
-23
-14
-5
4
13
21
30
38
45
53
60
66
72
77
82
86
90
93
96
100
102
105
107
108
110
110
111
112
112
113
114
114
115
115
116
116
116
116
116
117
117
118
118
118
119
119
120
119
120
120
120
119
120
121
121
120
121
121
121
121
121
121
121
122
122
121
121
122
122
123
123
123
124
125
124
125
125
124
125
125
126
126
127
128
128
129
129
130
130
131
131
132
132
133
132
133
132
133
133
133
133
134
134
134
134
134
134
134
134
134
134
135
135
136
136
136
136
137
137
136
136
137
137
137
137
137
138
137
138
138
139
139
140
140
141
143
144
145
146
147
148
149
149
150
151
152
153
154
155
156
157
158
159
159
160
161
160
161
162
163
164
164
165
166
166
167
167
167
169
169
170
171
171
173
174
175
178
179
181
182
184
185
188
189
192
193
195
197
199
200
201
203
205
206
207
208
209
211
212
213
214
215
216
216
218
219
219
220
220
221
222
222
223
222
223
223
223
223
223
223
222
221
220
219
218
217
216
215
213
212
210
210
209
207
206
205
204
203
201
202
201
201
201
201
200
201
201
202
201
202
202
202
202
202
202
201
200
199
198
196
196
194
191
190
188
186
183
181
179
176
173
171
168
166
163
161
159
157
155
154
152
151
148
148
146
145
145
143
142
141
139
138
136
135
134
132
132
130
129
129
128
127
126
125
124
123
122
122
120
120
119
119
118
118
117
117
116
115
114
113
112
111
111
109
108
108
107
105
104
103
101
99
99
98
98
97
97
96
96
96
95
95
94
94
94
94
93
94
94
94
94
94
94
93
94
94
94
93
93
92
91
91
90
90
90
90
90
89
90
89
90
89
90
89
90
90
91
91
92
93
93
94
94
94
94
94
94
95
96
96
97
97
96
96
96
96
95
95
94
94
93
93
92
92
91
91
91
91
91
90
90
90
89
90
90
89
90
89
90
90
90
90
90
90
90
90
91
91
91
91
92
91
91
92
91
91
90
90
89
89
89
88
87
86
86
85
85
85
84
84
83
84
84
84
84
85
86
87
89
91
93
94
96
98
100
102
105
107
110
112
113
115
118
119
120
122
122
123
124
125
126
126
126
127
127
127
127
127
127
127
127
127
126
126
125
125
126
126
126
127
127
127
128
128
128
129
129
129
129
130
130
131
131
131
132
133
134
134
134
135
135
135
135
136
136
136
136
136
136
135
135
135
134
134
133
132
132
131
130
129
128
126
126
125
125
123
123
123
123
123
124
123
123
123
123
123
123
123
124
123
124
125
126
126
126
126
126
126
126
126
126
126
125
124
124
123
122
121
120
119
118
117
115
114
112
110
108
108
106
105
104
103
102
102
101
100
99
99
98
99
99
98
99
98
99
98
99
99
99
99
99
99
100
100
100
100
100
100
99
100
99
100
99
99
100
99
100
101
101
101
101
101
102
102
103
103
102
103
103
103
104
105
104
103
103
102
101
100
99
97
96
94
92
90
88
85
82
80
77
74
72
70
68
67
67
66
67
68
71
74
79
86
93
102
113
126
141
158
176
196
217
240
263
285
307
327
347
364
381
396
408
417
424
428
428
425
418
408
394
378
359
337
313
288
262
234
206
178
150
123
98
73
49
26
5
-14
-31
-47
-61
-73
-81
-89
-95
-97
-99
-99
-97
-93
-89
-83
-77
-70
-61
-53
-44
-35
-25
-16
-5
4
13
22
30
39
46
53
60
66
71
76
80
85
88
92
95
98
100
102
104
105
107
107
109
109
109
109
110
110
111
111
111
111
111
111
112
112
112
112
112
113
113
113
114
114
114
114
114
115
115
115
115
116
117
117
117
117
117
117
117
117
118
117
117
117
117
117
117
117
118
117
117
118
118
117
118
118
119
118
119
120
119
120
121
121
122
122
123
123
122
122
122
122
122
122
122
122
123
123
122
123
123
124
124
125
125
125
126
127
128
128
129
129
130
130
131
131
132
132
133
133
135
135
135
136
136
137
137
137
137
136
136
136
136
137
138
138
139
139
139
139
139
139
139
139
139
139
139
139
140
141
142
143
143
143
144
145
145
147
147
149
150
151
153
154
155
157
158
159
161
162
164
165
166
169
170
172
173
174
176
176
177
178
179
181
182
183
184
185
187
187
188
190
191
192
194
195
197
198
200
201
202
204
204
206
206
208
208
210
210
211
212
212
212
213
212
211
212
211
210
210
210
209
208
207
206
206
205
205
205
204
203
202
202
201
200
200
200
200
199
199
199
200
199
198
198
196
195
194
192
191
189
188
186
185
183
180
178
177
175
173
171
170
168
167
165
163
163
161
160
159
158
157
156
155
154
152
152
151
149
147
146
145
143
142
140
139
136
135
133
132
130
128
126
124
122
122
120
118
117
115
114
112
111
109
108
108
106
106
104
103
102
100
100
100
99
99
98
97
95
94
93
93
92
91
90
89
88
86
86
84
83
81
80
80
78
77
75
75
73
72
71
70
68
67
66
67
67
65
65
65
64
63
63
63
63
62
62
62
61
61
61
61
61
62
61
61
60
61
60
59
60
59
59
59
58
58
58
58
57
57
57
57
56
56
55
55
54
54
54
53
52
52
51
51
51
50
50
48
48
47
47
46
47
46
45
44
45
45
44
45
45
44
45
45
46
45
45
46
47
47
47
48
48
48
49
49
50
51
52
52
53
53
53
54
54
55
56
56
57
58
59
59
60
60
61
61
61
62
63
63
63
64
64
64
65
64
64
64
64
64
64
64
65
64
65
66
66
67
68
69
70
71
72
73
74
76
77
78
79
80
81
82
83
84
83
85
85
85
85
85
84
84
84
84
83
83
82
83
81
82
81
82
82
81
81
80
80
79
79
79
80
79
80
80
79
79
78
79
78
78
77
78
77
77
77
76
76
76
76
75
76
75
74
74
73
73
72
71
70
69
68
67
66
65
65
64
62
61
60
59
58
57
56
55
54
53
53
52
52
52
52
52
51
51
51
50
50
50
48
49
49
48
48
48
47
48
48
47
46
46
46
46
46
45
46
45
45
45
45
44
44
44
43
43
43
43
42
42
41
41
41
40
40
40
40
39
40
40
39
40
40
40
40
39
39
38
39
39
39
38
37
37
36
35
34
32
33
32
33
34
36
38
41
46
51
57
66
75
86
100
114
131
148
166
185
204
222
238
253
267
280
289
298
304
307
308
306
300
290
278
263
245
225
204
181
156
132
106
80
55
30
7
-15
-35
-54
-72
-88
-101
-113
-124
-134
-141
-147
-151
-154
-155
-154
-152
-149
-144
-139
-133
-126
-118
-110
-101
-93
-84
-75
-66
-57
-48
-40
-31
-24
-17
-9
-2
4
10
14
19
23
26
29
32
35
36
38
39
42
43
43
44
45
45
46
46
46
46
47
46
46
47
47
47
47
47
48
47
47
48
48
48
48
48
48
48
47
48
48
48
48
48
49
49
49
49
49
50
51
51
51
52
52
53
54
55
54
55
56
57
56
57
57
57
57
57
57
58
59
59
59
60
60
60
60
61
61
61
62
62
62
62
63
63
63
63
62
63
63
62
63
63
63
63
63
64
64
64
64
64
64
64
66
66
66
67
67
68
68
68
69
69
70
71
71
71
71
71
72
72
72
74
74
75
75
74
75
76
75
76
77
78
79
79
80
81
81
81
82
82
83
84
85
86
86
88
88
89
90
91
93
94
94
96
97
98
99
100
102
103
104
106
107
109
109
111
112
114
114
116
117
118
120
121
122
124
124
125
126
127
128
129
130
131
131
132
133
133
134
134
135
136
137
137
138
138
139
140
141
141
143
144
145
145
147
147
148
148
149
149
150
150
150
151
150
150
149
150
149
148
148
147
145
145
144
143
142
140
139
137
136
135
134
133
132
131
129
128
127
125
124
123
121
120
118
116
115
113
112
110
108
105
104
102
100
98
96
94
91
89
86
85
83
81
79
77
76
74
72
71
68
67
65
63
62
60
58
57
55
53
52
51
49
48
46
45
44
43
42
40
40
39
38
37
36
36
36
35
34
34
34
33
32
31
31
31
29
29
29
27
27
27
26
26
25
25
23
23
23
23
23
23
22
22
21
21
20
20
19
19
18
17
17
17
16
17
17
15
16
15
14
14
14
13
15
14
14
13
12
11
11
10
10
10
9
9
9
9
7
7
7
7
6
7
7
8
8
8
9
10
9
9
9
9
9
9
9
8
8
9
8
8
8
6
6
6
6
6
5
5
4
4
4
4
3
4
4
4
3
3
4
5
5
5
6
5
6
6
7
8
8
9
9
9
9
10
11
12
12
12
12
12
12
13
14
13
13
13
14
14
14
14
14
15
14
15
15
16
15
16
17
17
17
18
19
19
20
21
22
22
24
24
25
26
27
28
28
29
30
31
31
31
33
33
33
33
35
35
35
35
35
36
36
37
37
37
38
39
39
40
41
41
42
42
43
43
45
45
45
45
47
47
47
48
48
48
47
47
47
47
46
45
45
44
43
42
42
41
41
40
38
38
38
37
36
37
36
35
35
35
34
34
33
33
33
32
33
32
31
30
30
29
30
29
29
28
28
28
28
28
29
29
30
29
29
30
30
30
31
31
30
30
30
30
30
29
28
28
27
27
26
26
25
24
24
24
23
23
22
22
21
20
20
19
19
19
18
18
17
17
16
16
15
15
14
14
14
13
13
13
14
14
13
13
14
14
12
13
13
13
14
14
15
15
16
16
16
16
16
16
16
17
17
17
17
17
17
17
17
17
16
16
16
16
16
15
15
14
13
12
12
11
9
9
8
8
7
6
7
6
6
6
6
6
6
7
7
8
11
15
20
26
33
42
52
63
76
90
106
122
141
159
178
196
212
228
242
254
265
274
280
283
283
280
274
264
251
235
217
196
174
149
124
99
72
47
21
-4
-27
-49
-69
-88
-105
-118
-133
-144
-154
-162
-169
-174
-178
-180
-180
-180
-178
-175
-171
-165
-159
-152
-145
-138
-130
-121
-112
-103
-94
-86
-76
-68
-59
-51
-43
-35
-27
-21
-14
-9
-4
0
4
8
10
13
16
17
19
19
21
22
23
24
24
24
25
25
26
27
28
29
29
30
31
31
31
32
32
32
32
32
32
32
31
31
30
30
30
30
29
29
29
29
29
30
31
32
32
33
33
34
35
35
37
38
39
40
40
39
40
40
40
40
40
40
39
38
38
38
38
38
38
38
39
39
39
39
39
41
41
42
44
45
45
46
47
47
48
48
50
50
50
50
50
50
50
49
50
49
49
49
48
49
48
49
48
49
49
49
50
50
50
51
52
52
53
54
55
56
56
57
58
59
60
61
60
61
61
62
62
62
63
63
63
63
63
63
63
63
63
63
62
63
64
64
65
65
66
67
68
69
71
71
73
75
77
78
79
82
83
84
86
88
90
92
94
95
96
98
99
101
102
103
104
105
106
107
109
110
112
112
113
115
115
116
117
118
119
119
120
121
122
122
123
124
125
125
126
127
128
128
129
129
130
131
132
132
133
133
134
135
135
135
135
137
136
136
137
136
136
136
135
135
134
134
133
133
132
132
131
131
129
129
128
127
126
125
124
123
122
120
119
118
117
115
114
112
110
107
106
105
103
101
99
97
95
94
92
90
88
86
85
83
82
80
79
78
77
74
73
71
70
68
66
64
63
61
60
58
56
55
53
51
50
48
46
44
43
41
40
39
37
37
35
35
34
33
32
31
30
29
28
28
27
27
27
27
26
26
26
26
26
25
26
26
25
25
24
24
25
25
24
25
24
24
23
23
23
23
22
21
21
20
20
18
18
17
17
16
15
14
13
14
13
13
12
12
12
12
12
11
11
12
12
12
11
11
12
11
11
12
11
11
10
10
10
10
10
10
10
10
10
10
10
9
9
9
10
10
10
10
10
10
11
11
10
10
10
10
10
9
9
9
8
8
8
9
9
9
9
8
8
7
6
7
7
7
7
8
8
7
8
7
8
8
8
8
9
9
9
10
10
11
12
12
14
13
13
13
14
14
15
16
16
17
18
18
19
20
20
21
21
23
23
24
24
26
26
27
28
29
29
29
30
30
31
31
32
33
33
34
34
36
36
36
36
37
39
39
40
41
42
43
44
44
45
45
45
46
46
47
46
46
45
45
46
45
46
45
46
46
45
45
45
44
44
44
44
44
44
44
43
43
43
43
42
43
42
42
42
41
40
40
39
38
38
37
37
37
35
35
34
33
32
32
31
31
30
31
31
30
30
30
29
29
30
29
29
29
29
29
28
28
27
26
25
24
24
24
23
22
22
21
20
19
18
18
17
17
16
16
16
16
15
15
15
14
14
14
15
15
14
14
14
14
14
14
15
15
14
14
13
13
13
13
13
14
14
13
13
14
13
13
13
14
14
13
13
14
14
15
15
15
15
16
16
15
14
14
14
14
14
14
13
13
13
12
11
11
10
9
9
9
8
7
8
7
5
5
4
3
3
2
2
1
1
2
3
6
9
12
17
24
30
39
48
60
74
89
105
123
141
159
176
194
209
223
235
246
254
262
266
267
265
260
252
242
228
211
191
171
148
125
100
75
49
25
1
-22
-43
-64
-82
-100
-116
-129
-142
-152
-162
-170
-176
-180
-183
-184
-184
-183
-180
-176
-171
-166
-160
-155
-147
-140
-131
-123
-115
-105
-97
-89
-80
-71
-63
-54
-47
-40
-33
-27
-21
-15
-9
-5
-1
3
6
9
12
13
16
17
18
19
20
21
23
24
25
26
25
26
26
27
28
28
29
29
31
31
31
31
32
32
32
33
32
32
31
31
31
31
30
30
30
30
31
31
31
32
33
32
32
33
33
34
34
34
35
35
35
35
35
36
36
35
35
35
34
35
34
34
34
34
34
34
34
34
34
34
34
33
34
34
34
35
35
35
36
37
36
37
37
38
39
40
41
42
43
44
45
47
47
48
50
52
53
54
55
55
57
57
57
57
58
58
58
58
59
58
59
59
59
59
58
59
59
60
60
61
61
62
63
63
65
66
66
66
67
67
68
68
68
69
69
70
69
70
70
70
71
71
71
72
72
73
75
75
77
78
80
81
82
84
86
87
89
91
93
95
97
99
102
103
105
106
108
110
111
112
114
115
116
117
118
119
120
121
120
121
122
121
122
123
123
124
124
125
125
126
126
126
126
128
128
128
129
130
129
130
131
131
131
131
131
130
130
130
130
130
129
128
128
128
127
127
127
125
125
124
124
123
122
121
121
119
119
119
117
116
115
113
112
110
109
108
107
104
103
101
100
98
96
95
93
90
88
86
84
82
79
77
75
73
70
68
67
65
63
62
61
60
60
58
57
57
56
56
56
56
57
57
56
56
55
54
52
51
51
51
50
49
48
47
45
43
41
40
38
36
35
33
32
31
30
30
29
27
26
25
24
24
23
22
22
22
21
21
21
21
20
21
20
20
20
20
20
20
20
20
20
20
18
18
17
18
16
15
15
14
13
13
12
11
11
10
10
9
9
8
8
8
9
8
8
8
9
9
9
9
8
8
8
9
9
9
9
9
9
9
9
9
9
8
9
8
8
8
8
8
8
8
8
8
8
7
7
7
7
6
6
6
6
6
6
5
5
5
5
5
5
6
5
5
5
6
6
6
6
6
6
6
6
6
6
7
7
7
7
8
8
9
9
8
9
10
11
11
12
13
13
13
15
15
16
16
17
18
18
19
20
20
21
22
23
23
24
25
25
26
27
28
29
31
32
33
34
35
36
38
40
41
43
44
46
46
48
49
49
50
50
51
51
52
52
52
54
54
54
54
53
53
53
52
52
52
50
50
49
50
49
50
49
49
49
49
49
49
49
50
49
51
52
52
52
54
55
55
55
55
55
55
55
56
55
54
53
53
52
51
51
50
50
48
47
47
45
45
45
44
43
43
42
41
42
41
40
40
40
41
41
41
41
41
42
42
41
41
41
41
41
40
40
40
38
38
37
36
35
35
34
32
31
30
30
28
27
26
25
24
23
23
23
22
22
22
22
22
22
22
22
22
22
22
21
21
20
20
20
19
19
20
19
19
19
19
19
20
19
19
20
21
22
23
24
25
26
27
28
30
31
32
33
33
33
32
32
31
30
30
29
28
27
27
26
25
24
22
20
19
18
17
17
16
15
15
14
13
14
13
14
15
15
17
20
23
28
35
41
51
62
75
89
105
122
140
159
180
201
221
240
257
273
287
300
311
319
326
329
328
324
318
307
293
277
259
238
216
192
166
140
114
87
62
38
14
-10
-30
-51
-70
-87
-103
-116
-128
-139
-148
-154
-159
-162
-164
-164
-163
-160
-155
-151
-144
-138
-130
-122
-114
-105
-95
-86
-76
-66
-56
-47
-38
-31
-24
-16
-9
-3
3
9
14
18
23
26
29
31
33
35
36
37
39
40
40
41
42
43
42
43
43
44
44
44
44
45
44
45
45
46
46
47
46
47
47
47
47
48
48
48
48
49
48
49
49
49
49
48
49
49
48
48
47
47
47
48
48
47
47
48
48
48
48
49
49
49
50
50
51
51
51
52
54
54
55
55
56
57
57
57
58
58
59
59
60
60
61
61
61
62
63
63
64
64
65
66
66
67
68
68
69
70
71
71
72
72
72
72
73
73
74
74
75
75
75
75
76
76
76
77
77
78
77
78
78
78
79
79
79
80
80
80
80
80
81
81
82
82
83
84
84
85
85
86
86
87
89
90
91
93
93
95
96
98
100
100
102
103
105
107
109
110
111
112
114
116
118
119
121
122
123
125
126
128
129
131
133
134
135
136
138
138
140
141
142
143
143
144
145
145
147
147
148
147
148
148
149
150
150
151
150
151
151
152
152
153
153
153
153
154
154
155
155
156
156
157
156
156
156
156
156
156
156
154
155
155
154
154
153
153
151
151
149
149
148
146
146
145
144
144
143
141
140
138
137
136
136
135
134
132
131
129
128
126
125
123
122
120
119
117
115
113
111
108
107
105
104
101
99
98
96
93
91
89
87
85
84
82
80
80
78
77
76
74
73
73
72
70
69
68
67
66
65
64
63
62
61
60
60
59
57
56
56
54
53
52
51
50
48
48
46
46
44
44
42
41
41
40
39
38
37
38
37
36
35
35
34
34
33
33
33
33
32
32
33
33
33
33
32
32
32
32
32
32
32
32
32
31
32
31
31
30
30
30
30
30
29
28
28
27
26
25
25
24
24
24
23
23
22
22
20
20
20
20
20
20
19
19
19
19
19
19
19
19
18
19
18
18
17
18
17
17
17
17
17
16
16
15
15
15
15
15
16
17
18
18
18
19
19
20
21
21
22
24
25
26
26
27
28
28
29
29
30
32
31
32
33
33
34
34
35
35
37
37
38
39
39
40
41
42
43
44
45
46
47
47
49
49
49
51
52
53
54
55
56
57
58
59
60
61
62
63
64
64
66
66
66
68
68
67
67
67
68
67
67
68
67
68
67
66
66
66
66
65
65
64
64
64
65
65
64
64
65
64
63
63
63
62
62
63
63
62
62
61
62
61
60
60
60
59
59
59
59
59
58
58
58
58
58
57
57
57
57
57
57
56
55
55
54
53
52
51
50
48
47
45
44
42
41
39
38
37
36
35
34
33
32
32
32
31
31
32
31
32
32
32
33
32
33
33
33
34
33
33
33
33
33
33
33
33
32
31
31
31
30
30
31
30
30
30
30
30
30
30
30
30
30
31
31
31
32
32
32
32
32
33
33
32
34
34
34
34
34
34
33
33
33
31
30
30
29
27
24
23
21
19
18
16
14
14
12
11
10
10
10
11
13
16
20
26
33
42
52
63
78
94
110
129
149
169
189
209
229
247
263
279
292
303
312
319
322
323
319
312
302
288
272
253
232
208
184
158
131
105
77
52
26
2
-22
-43
-63
-82
-99
-113
-126
-138
-147
-154
-160
-164
-167
-168
-167
-165
-162
-157
-151
-146
-139
-132
-123
-115
-107
-98
-87
-79
-69
-61
-52
-43
-36
-29
-21
-14
-8
-2
3
8
12
16
19
22
24
26
27
29
31
32
33
33
33
33
34
34
34
34
35
34
34
35
35
34
35
35
36
36
37
37
38
38
38
39
39
39
40
40
40
41
41
41
41
42
42
42
43
42
43
42
42
42
42
42
43
44
44
44
44
44
45
45
45
46
45
46
47
46
47
47
47
48
48
49
49
50
50
50
51
52
52
52
52
53
53
53
53
54
55
55
56
56
57
58
58
58
58
58
59
59
60
60
60
60
61
61
60
61
61
62
62
62
62
62
63
62
62
62
63
63
63
63
63
63
64
64
64
64
64
64
65
65
65
64
64
64
65
66
67
67
68
70
69
70
71
72
73
75
75
76
78
79
80
82
83
85
86
87
89
90
91
93
95
96
97
99
100
102
103
105
106
107
109
110
112
113
114
115
116
117
117
119
119
120
121
121
122
123
123
124
125
126
127
128
129
129
130
131
132
133
133
134
136
136
136
137
137
138
138
139
138
138
139
139
138
138
137
137
137
135
135
135
133
133
131
131
130
129
127
126
125
125
123
122
120
119
117
116
115
114
112
111
110
109
108
106
105
103
101
99
98
96
95
94
92
91
90
88
86
83
82
80
77
76
74
73
71
70
68
66
65
64
62
61
59
58
57
56
54
53
53
51
50
49
47
45
44
43
42
40
40
38
37
35
34
32
31
29
28
27
25
25
24
22
22
21
20
19
20
19
19
18
17
17
17
16
16
16
16
15
14
15
14
13
13
11
11
9
9
8
7
6
6
5
4
4
3
4
3
2
1
1
1
0
0
1
1
0
1
1
2
2
2
2
1
2
2
2
2
2
2
2
2
3
3
2
2
1
1
0
0
0
-1
0
-1
-1
-1
-1
-1
-1
-2
-2
-2
-2
-1
-1
0
0
0
0
0
0
0
0
-1
-2
-1
-1
-2
-1
-1
-1
-1
-1
-2
-1
-1
0
0
0
0
1
1
2
2
3
4
5
6
7
8
8
9
10
11
11
12
14
15
15
16
17
18
19
19
21
21
23
23
25
25
26
26
27
27
28
28
29
29
29
29
30
30
31
31
31
31
32
32
33
33
34
35
36
36
36
37
37
38
38
38
39
39
40
41
41
41
41
41
40
40
39
39
40
39
39
39
40
39
39
38
37
37
37
36
36
36
36
37
37
36
36
36
35
36
35
35
35
34
34
33
33
32
32
31
30
30
29
28
27
28
27
27
26
26
25
26
26
26
26
27
27
27
27
27
27
27
27
27
27
26
27
26
24
24
24
23
21
20
19
17
15
14
12
11
9
9
8
7
7
7
7
7
7
6
7
7
8
9
9
9
8
9
9
10
10
11
11
11
11
11
11
11
10
11
11
10
10
10
9
9
9
9
8
9
9
9
8
8
8
8
8
7
6
6
6
6
5
6
6
6
7
6
7
7
7
6
6
6
5
4
4
3
2
1
0
0
-1
-2
-2
-2
-2
-1
1
3
7
10
16
23
31
41
52
64
79
95
112
129
147
166
184
201
217
231
244
255
264
271
274
276
274
269
261
250
235
218
200
178
156
132
106
80
55
30
4
-19
-42
-63
-83
-101
-117
-132
-146
-157
-167
-176
-182
-187
-191
-193
-193
-193
-190
-187
-183
-177
-171
-165
-158
-150
-143
-134
-127
-118
-109
-99
-91
-81
-73
-65
-57
-50
-43
-37
-30
-24
-19
-14
-9
-5
-2
1
4
6
7
9
10
12
12
14
14
14
14
15
16
16
16
17
17
17
18
18
18
18
18
18
18
17
18
18
18
18
19
19
20
19
19
20
20
20
20
21
22
22
22
23
23
24
24
25
26
27
27
27
27
29
29
29
29
30
30
30
30
31
31
31
32
31
31
32
32
31
31
32
32
33
34
34
34
35
35
35
36
37
38
38
39
40
40
41
42
42
43
43
44
44
45
45
45
46
46
46
46
46
46
46
46
46
46
46
46
45
45
45
46
46
46
46
47
47
47
48
48
49
50
50
51
51
51
53
53
55
55
55
57
57
57
58
58
60
60
60
61
62
62
63
63
63
65
65
66
66
67
68
69
70
71
72
73
74
75
76
78
80
80
82
84
85
87
88
90
91
92
93
94
95
96
98
99
100
102
103
104
105
106
108
109
110
111
111
112
113
114
114
115
115
115
117
116
117
117
117
117
117
117
117
116
117
117
117
117
116
116
116
117
117
118
117
118
117
116
116
116
115
115
114
114
113
113
113
112
110
109
109
108
106
105
104
104
102
101
100
99
98
97
95
94
93
93
91
90
88
87
85
84
82
80
77
76
74
73
71
69
67
65
63
61
60
58
55
54
52
50
49
48
45
44
43
41
39
38
37
35
34
32
31
31
29
29
27
27
25
25
24
23
22
21
20
19
19
18
18
17
16
16
14
14
13
13
12
12
11
10
10
10
9
8
7
7
8
8
7
6
5
6
5
4
3
2
2
2
1
1
1
1
0
0
0
-1
0
0
0
0
0
0
0
0
0
0
0
-1
-1
-1
-2
-2
-3
-3
-4
-4
-4
-4
-4
-5
-5
-5
-6
-5
-5
-4
-4
-4
-4
-3
-4
-4
-4
-3
-3
-3
-3
-3
-3
-3
-3
-3
-3
-3
-3
-3
-3
-2
-2
-3
-4
-3
-3
-3
-3
-2
-2
-2
-2
-2
-2
-2
-1
-1
0
0
1
2
3
3
4
5
6
5
6
7
6
7
8
9
9
10
10
11
12
12
12
13
14
14
16
16
17
18
19
21
21
23
24
24
25
26
26
27
28
29
30
31
32
33
34
34
34
34
35
35
35
35
35
36
35
35
35
35
35
35
34
34
34
34
34
34
33
32
31
31
31
31
31
30
31
32
32
32
32
32
32
32
32
33
33
33
32
33
32
32
32
32
31
29
29
28
27
26
25
24
23
22
21
21
19
19
18
18
17
18
17
18
17
18
18
19
19
19
19
19
19
19
20
19
19
19
18
18
18
17
17
16
16
15
15
13
13
12
11
10
10
9
7
7
5
4
4
3
3
3
3
3
3
3
2
2
2
2
2
2
3
3
3
4
4
3
4
4
3
4
3
3
3
3
3
3
3
3
2
3
3
3
3
3
3
3
2
3
3
3
3
3
3
3
2
2
1
1
0
-1
-2
-3
-3
-3
-3
-4
-5
-7
-9
-11
-12
-14
-14
-15
-15
-15
-15
-13
-12
-9
-6
-2
4
11
19
28
40
52
67
83
100
117
135
153
171
188
203
216
227
238
246
253
256
257
254
248
239
227
212
195
175
153
131
107
82
57
31
6
-17
-40
-62
-81
-100
-118
-131
-144
-156
-167
-176
-183
-189
-193
-196
-197
-197
-195
-193
-190
-186
-181
-175
-168
-162
-155
-147
-140
-132
-123
-115
-106
-97
-89
-81
-73
-66
-58
-51
-44
-38
-31
-26
-21
-16
-12
-9
-7
-3
-1
1
3
5
6
8
8
9
9
9
10
10
9
9
10
10
11
12
12
12
12
12
12
12
12
13
13
12
12
13
13
14
14
15
15
15
16
15
15
16
16
16
17
17
17
17
18
18
19
19
19
19
19
18
18
20
19
19
20
20
20
20
20
21
22
22
21
22
21
22
22
22
22
22
22
22
21
21
21
21
20
20
20
20
21
20
20
20
20
20
21
21
22
23
23
24
24
25
25
26
27
27
27
28
29
30
31
31
31
33
33
34
34
34
35
35
36
36
36
37
38
37
38
38
38
38
38
39
39
40
40
40
42
42
42
42
44
44
45
45
46
48
49
50
51
52
53
54
55
56
57
58
59
60
62
63
65
65
67
68
69
70
71
72
73
74
75
76
77
79
81
82
83
84
86
88
89
91
92
93
95
97
98
99
100
101
102
102
103
104
104
105
105
105
105
105
105
105
105
105
105
105
105
105
105
105
105
104
104
104
104
104
103
103
102
102
101
101
101
101
100
100
100
99
99
99
97
97
96
96
94
93
92
91
90
88
86
85
84
81
80
78
76
74
72
70
67
65
63
61
59
58
56
53
51
50
48
47
45
43
43
41
39
38
36
34
34
32
32
31
29
28
27
26
25
23
22
22
20
19
18
17
15
15
13
12
10
9
8
6
6
6
4
3
2
2
0
-1
-1
-1
-2
-2
-2
-2
-1
-1
-1
-1
-1
-1
-2
-3
-3
-4
-4
-5
-5
-5
-6
-6
-7
-8
-9
-10
-11
-11
-12
-12
-13
-13
-13
-14
-13
-13
-13
-13
-13
-14
-14
-14
-14
-15
-13
-13
-13
-13
-14
-14
-14
-13
-13
-14
-13
-13
-13
-13
-14
-14
-14
-14
-14
-15
-14
-15
-14
-15
-15
-16
-16
-15
-16
-16
-16
-16
-17
-16
-16
-16
-17
-16
-16
-16
-16
-16
-16
-16
-16
-16
-17
-16
-17
-17
-17
-17
-18
-18
-19
-19
-19
-19
-19
-19
-20
-20
-20
-19
-19
-19
-18
-18
-17
-16
-15
-14
-13
-13
-12
-10
-10
-9
-9
-8
-7
-6
-4
-3
-3
-1
-1
1
1
3
4
5
6
7
7
8
9
10
10
12
12
11
12
12
13
13
13
13
13
14
14
14
13
14
14
14
15
14
15
16
17
17
17
19
20
20
20
21
21
21
22
22
23
22
23
24
23
23
23
23
23
23
23
23
22
22
22
21
21
20
20
19
20
20
19
20
20
19
19
19
18
18
18
19
19
19
18
19
18
18
19
18
18
17
16
16
17
17
16
16
16
17
16
17
17
17
16
16
16
16
16
16
17
16
15
15
14
12
12
11
10
8
8
7
5
4
2
2
1
0
-1
-2
-3
-4
-4
-5
-6
-6
-7
-7
-6
-6
-5
-5
-5
-6
-5
-5
-5
-4
-4
-4
-4
-4
-3
-3
-3
-3
-3
-3
-3
-3
-3
-2
-3
-2
-2
-2
-2
-1
-1
-1
-1
-2
-2
-1
-2
-1
-1
-1
-1
-1
-2
-2
-2
-2
-2
-3
-3
-5
-6
-7
-8
-9
-11
-11
-13
-15
-16
-18
-20
-21
-23
-24
-25
-26
-26
-25
-24
-20
-16
-11
-4
3
14
24
37
51
68
86
105
125
145
166
186
205
223
239
253
266
277
285
290
293
292
288
280
270
256
240
222
202
178
155
130
104
78
52
26
2
-22
-44
-66
-86
-104
-121
-135
-149
-162
-172
-180
-187
-191
-194
-195
-194
-192
-188
-184
-178
-172
-165
-157
-148
-140
-131
-121
-112
-103
-94
-85
-77
-70
-62
-55
-49
-43
-37
-32
-27
-23
-19
-16
-13
-11
-8
-5
-3
-1
1
3
4
5
6
8
8
9
10
11
12
13
14
14
14
15
15
16
16
17
17
17
18
18
19
19
19
19
20
19
19
19
20
20
20
20
21
21
21
21
22
21
21
21
21
21
21
21
21
22
22
23
23
23
23
24
24
24
25
26
26
28
28
29
30
31
32
32
33
33
34
34
36
36
37
38
38
38
40
39
39
39
39
39
38
38
37
37
37
36
36
35
35
34
34
34
34
34
35
35
34
35
36
36
38
39
40
42
42
44
46
47
48
49
50
52
53
54
55
56
57
57
57
58
58
58
60
60
60
61
61
62
62
63
63
64
64
65
66
68
69
70
72
73
75
75
76
78
78
79
81
82
83
85
86
86
88
89
90
91
93
93
94
95
97
98
99
101
102
103
105
106
108
109
110
111
113
114
115
116
117
117
119
120
121
121
123
122
124
124
125
125
125
126
127
127
128
127
128
128
128
129
129
129
130
130
131
131
132
132
132
132
132
132
132
132
132
132
131
130
129
129
127
126
125
124
122
121
120
119
117
116
114
113
112
111
109
107
105
104
103
102
100
100
98
96
95
94
93
91
89
87
86
84
83
81
79
77
76
74
72
71
69
68
66
64
61
60
57
55
54
52
50
49
46
45
43
41
40
39
37
36
36
35
34
33
33
32
31
31
31
30
29
29
29
28
28
27
26
25
24
24
23
23
21
20
19
18
17
16
15
14
12
10
9
8
6
5
4
3
2
2
1
1
0
-1
-1
-1
-1
-1
-1
1
1
1
2
3
3
4
4
4
4
4
5
5
5
5
5
5
4
4
4
3
4
4
4
3
3
4
3
3
3
2
2
2
3
2
3
2
3
3
2
2
1
1
1
1
2
2
1
0
0
0
-1
-1
-2
-2
-2
-2
-2
-2
-2
-2
-1
-2
-1
-1
-1
-1
0
1
2
2
3
4
5
5
6
6
7
7
9
9
11
11
12
12
12
13
13
15
15
17
18
18
19
19
20
22
22
23
24
26
27
28
30
31
32
33
35
35
36
38
38
39
40
40
41
41
42
41
42
42
42
41
42
41
41
41
40
39
39
38
37
37
37
37
36
36
35
34
35
34
35
35
35
35
35
35
35
35
35
35
35
36
35
36
35
35
35
34
35
34
34
34
34
33
32
33
34
33
33
33
33
33
33
33
33
33
34
34
34
35
35
36
36
36
36
36
36
36
36
36
36
36
35
35
34
32
31
31
30
29
28
26
24
23
22
21
19
19
18
17
15
14
13
12
10
10
9
8
7
7
6
6
6
6
5
6
5
5
6
6
6
6
7
8
8
8
7
7
7
7
7
7
7
7
7
6
6
7
7
6
6
7
7
7
7
8
9
9
11
11
12
13
13
14
14
14
13
12
12
11
10
9
7
5
3
1
-1
-3
-5
-8
-8
-10
-10
-11
-10
-9
-7
-4
1
7
15
26
37
51
67
83
102
122
142
162
183
203
222
239
255
270
282
292
300
304
306
303
298
288
276
261
243
223
201
176
151
124
97
70
42
17
-9
-33
-56
-77
-96
-115
-131
-146
-158
-169
-178
-185
-189
-193
-194
-193
-192
-188
-183
-178
-171
-164
-156
-148
-140
-130
-121
-112
-104
-94
-85
-77
-69
-62
-55
-49
-43
-38
-33
-29
-24
-20
-17
-13
-9
-6
-3
0
2
5
6
8
10
12
13
15
17
18
18
19
19
20
20
20
21
20
20
20
20
20
19
20
21
20
21
21
22
22
22
23
23
23
24
24
24
25
25
25
25
26
25
26
26
25
25
26
26
26
26
26
26
26
26
26
27
28
28
28
29
30
30
30
30
32
32
32
32
33
33
34
34
34
34
34
33
34
34
34
33
33
33
33
34
33
33
33
32
34
33
33
34
34
34
34
34
35
35
36
37
38
38
39
39
40
41
41
41
43
43
44
44
45
45
45
46
46
47
47
48
48
48
47
47
47
47
47
46
47
46
47
47
47
47
47
47
47
47
49
49
50
51
52
53
54
55
56
58
59
60
63
64
66
68
71
72
75
77
78
80
81
83
85
87
88
90
91
93
94
95
96
97
98
100
100
101
102
102
103
104
105
105
106
106
107
107
108
108
109
109
110
111
112
112
112
113
113
113
114
114
115
115
115
115
116
116
116
116
115
115
115
114
114
113
112
112
111
109
108
108
106
105
103
103
101
99
97
96
95
94
93
92
90
89
89
87
87
86
85
84
82
81
80
78
78
76
75
73
72
70
69
67
64
62
60
57
55
53
51
48
45
42
39
37
35
32
30
29
27
25
24
22
21
20
19
18
18
17
17
17
17
17
16
17
17
16
15
15
14
14
13
12
11
9
9
7
6
5
3
2
1
0
-1
-2
-3
-5
-6
-7
-8
-9
-9
-10
-11
-11
-11
-12
-12
-13
-13
-14
-14
-15
-15
-15
-15
-15
-15
-16
-16
-16
-16
-15
-16
-16
-15
-15
-15
-16
-15
-15
-15
-15
-14
-14
-15
-15
-14
-15
-14
-15
-14
-14
-14
-14
-14
-14
-14
-14
-13
-14
-14
-15
-14
-15
-14
-13
-14
-14
-14
-15
-15
-15
-16
-17
-17
-18
-18
-19
-20
-21
-21
-21
-21
-22
-23
-23
-23
-23
-23
-23
-23
-23
-22
-22
-21
-21
-21
-20
-20
-20
-19
-18
-18
-17
-17
-17
-17
-16
-16
-16
-15
-15
-14
-15
-14
-14
-14
-13
-13
-12
-11
-11
-10
-9
-8
-8
-7
-7
-7
-6
-5
-5
-4
-3
-3
-2
-2
-1
-1
0
0
1
1
2
3
3
4
5
6
7
7
8
9
10
10
11
11
13
13
13
14
14
14
14
15
16
16
16
16
16
16
16
16
16
16
15
16
17
16
16
16
16
16
16
16
15
16
16
16
16
16
15
15
15
15
15
14
14
14
13
13
12
11
11
10
10
9
8
8
8
7
6
6
6
5
5
4
5
5
6
6
6
7
7
7
7
7
8
9
9
8
8
8
7
7
7
5
6
5
4
3
2
1
0
-1
-3
-4
-5
-6
-7
-7
-8
-10
-10
-11
-11
-12
-13
-12
-13
-13
