# Simple Text Format
# Sampling Rate (Hz):= 1200.00
# Resolution:= 12
# Labels:= ECG	 V2
# Age:=	41
# Gender:=	Feminino
-65
-66
-65
-65
-65
-64
-63
-63
-62
-62
-62
-62
-61
-61
-61
-61
-60
-61
-60
-60
-60
-60
-60
-60
-59
-59
-59
-58
-58
-58
-59
-59
-59
-59
-58
-58
-58
-59
-59
-59
-59
-59
-59
-59
-59
-59
-60
-60
-60
-60
-61
-61
-61
-61
-61
-61
-61
-61
-60
-60
-60
-59
-59
-58
-57
-56
-55
-54
-54
-53
-52
-52
-51
-51
-49
-50
-49
-49
-49
-47
-47
-47
-47
-46
-46
-46
-47
-46
-46
-46
-46
-46
-46
-46
-46
-45
-45
-45
-45
-45
-44
-43
-43
-42
-42
-41
-40
-40
-39
-38
-37
-37
-36
-36
-35
-34
-35
-34
-33
-33
-32
-33
-32
-31
-30
-30
-30
-29
-29
-30
-28
-29
-28
-27
-27
-27
-26
-25
-26
-25
-25
-24
-24
-24
-23
-23
-23
-22
-23
-23
-23
-23
-23
-23
-23
-23
-23
-23
-23
-23
-23
-23
-23
-23
-23
-23
-23
-23
-23
-23
-24
-23
-24
-24
-24
-24
-25
-25
-24
-25
-25
-26
-26
-26
-26
-27
-27
-27
-27
-27
-27
-27
-28
-28
-28
-28
-29
-30
-30
-30
-31
-31
-31
-33
-33
-33
-35
-35
-35
-36
-36
-37
-38
-37
-38
-39
-40
-40
-41
-41
-41
-42
-42
-44
-43
-44
-45
-46
-46
-47
-48
-50
-50
-51
-52
-53
-54
-55
-56
-56
-57
-57
-58
-58
-59
-59
-59
-60
-60
-61
-61
-62
-62
-63
-64
-64
-64
-66
-66
-67
-68
-68
-69
-70
-70
-71
-72
-72
-73
-74
-74
-74
-75
-75
-76
-76
-76
-76
-77
-77
-77
-77
-77
-78
-77
-78
-79
-78
-79
-79
-79
-79
-79
-79
-80
-80
-80
-81
-81
-80
-80
-81
-81
-80
-80
-80
-79
-80
-81
-80
-80
-80
-80
-81
-81
-80
-80
-80
-81
-81
-80
-80
-80
-80
-80
-80
-80
-79
-79
-80
-80
-80
-80
-81
-81
-82
-81
-82
-81
-81
-82
-82
-82
-82
-82
-82
-83
-82
-82
-82
-82
-81
-81
-81
-81
-80
-80
-79
-79
-78
-78
-77
-77
-76
-76
-75
-76
-75
-75
-75
-75
-75
-75
-76
-76
-77
-77
-78
-78
-78
-79
-79
-80
-80
-80
-81
-80
-80
-80
-80
-80
-79
-80
-80
-79
-80
-79
-79
-79
-78
-78
-77
-77
-76
-76
-76
-75
-75
-75
-75
-76
-76
-76
-76
-77
-76
-77
-77
-78
-78
-79
-79
-79
-80
-80
-80
-81
-81
-81
-81
-80
-80
-79
-79
-79
-79
-78
-78
-78
-78
-78
-78
-78
-78
-77
-77
-78
-77
-77
-78
-78
-78
-78
-78
-79
-79
-79
-79
-80
-79
-80
-80
-79
-80
-80
-79
-80
-80
-81
-81
-81
-81
-81
-82
-82
-83
-83
-83
-83
-83
-83
-83
-83
-84
-84
-83
-84
-84
-84
-85
-85
-86
-85
-86
-86
-86
-86
-86
-86
-86
-85
-86
-86
-85
-85
-85
-84
-84
-83
-83
-83
-82
-82
-81
-81
-81
-81
-81
-80
-80
-81
-81
-80
-81
-82
-81
-81
-82
-83
-83
-83
-84
-84
-86
-86
-86
-87
-87
-88
-88
-88
-88
-88
-88
-88
-88
-88
-87
-87
-86
-87
-86
-86
-85
-85
-84
-84
-84
-84
-84
-84
-84
-83
-83
-84
-83
-84
-83
-84
-84
-84
-85
-85
-84
-85
-85
-85
-86
-86
-86
-86
-86
-86
-87
-87
-87
-87
-87
-88
-88
-88
-88
-88
-88
-88
-87
-88
-87
-87
-87
-86
-86
-86
-85
-85
-86
-85
-84
-84
-83
-83
-82
-82
-81
-81
-81
-80
-80
-80
-79
-79
-78
-78
-77
-76
-76
-74
-74
-73
-72
-72
-71
-71
-71
-71
-70
-69
-70
-70
-70
-70
-69
-70
-70
-71
-71
-71
-72
-73
-72
-73
-74
-75
-75
-76
-77
-78
-78
-79
-79
-81
-81
-82
-82
-82
-84
-84
-85
-86
-86
-87
-89
-89
-90
-90
-91
-92
-92
-92
-92
-93
-93
-93
-93
-93
-93
-93
-93
-93
-92
-92
-93
-93
-92
-92
-92
-92
-92
-91
-91
-90
-91
-90
-90
-89
-89
-88
-88
-89
-88
-89
-89
-90
-89
-89
-90
-90
-91
-90
-91
-91
-91
-91
-91
-92
-92
-92
-91
-91
-91
-90
-90
-90
-90
-90
-89
-89
-89
-89
-88
-88
-88
-89
-89
-90
-90
-89
-90
-90
-90
-91
-91
-91
-92
-93
-93
-93
-93
-92
-91
-90
-89
-88
-86
-84
-82
-80
-77
-74
-71
-68
-64
-61
-58
-53
-48
-44
-40
-36
-31
-27
-22
-17
-13
-9
-5
-2
0
0
2
1
-1
-3
-6
-9
-12
-17
-22
-29
-36
-43
-50
-59
-67
-77
-86
-95
-105
-115
-125
-134
-144
-154
-163
-172
-181
-189
-198
-205
-213
-220
-226
-232
-236
-241
-244
-246
-248
-249
-248
-247
-245
-243
-238
-233
-229
-222
-215
-209
-201
-193
-185
-178
-170
-161
-154
-147
-139
-133
-126
-120
-115
-110
-105
-102
-99
-95
-93
-90
-89
-87
-86
-85
-83
-83
-82
-81
-81
-81
-80
-80
-80
-79
-79
-79
-78
-78
-77
-76
-76
-77
-77
-75
-75
-76
-76
-76
-76
-76
-77
-77
-76
-77
-77
-76
-76
-76
-76
-76
-75
-75
-75
-75
-74
-74
-74
-73
-72
-72
-71
-71
-71
-71
-70
-71
-71
-71
-70
-70
-70
-71
-70
-70
-69
-69
-69
-69
-70
-70
-70
-71
-71
-71
-71
-71
-71
-72
-72
-73
-73
-73
-73
-74
-74
-75
-75
-75
-75
-75
-76
-75
-75
-75
-74
-73
-73
-73
-73
-72
-72
-71
-71
-70
-69
-68
-69
-68
-67
-68
-68
-67
-68
-68
-68
-68
-68
-68
-69
-69
-68
-69
-69
-69
-69
-69
-68
-69
-69
-68
-68
-68
-68
-67
-68
-68
-68
-68
-67
-67
-66
-67
-67
-67
-66
-66
-66
-65
-64
-64
-64
-63
-63
-62
-62
-62
-61
-61
-61
-59
-59
-59
-58
-58
-56
-56
-55
-55
-54
-54
-53
-52
-52
-52
-52
-51
-50
-50
-50
-49
-50
-49
-50
-50
-50
-50
-51
-50
-50
-50
-50
-51
-51
-51
-51
-51
-51
-51
-50
-50
-49
-49
-48
-48
-47
-47
-45
-45
-44
-44
-43
-43
-42
-42
-41
-41
-41
-40
-40
-40
-39
-39
-40
-40
-40
-40
-41
-41
-42
-42
-43
-43
-44
-44
-45
-45
-46
-46
-46
-47
-47
-48
-48
-49
-48
-48
-49
-49
-48
-48
-49
-48
-49
-48
-49
-49
-49
-49
-50
-50
-51
-51
-51
-51
-52
-52
-53
-54
-54
-55
-55
-55
-56
-56
-56
-56
-57
-57
-57
-57
-58
-57
-58
-58
-59
-59
-59
-60
-60
-61
-60
-61
-62
-63
-64
-66
-66
-68
-68
-70
-70
-71
-72
-72
-73
-73
-75
-75
-75
-76
-76
-76
-76
-77
-77
-77
-77
-77
-79
-79
-79
-79
-79
-80
-80
-79
-80
-80
-81
-81
-81
-82
-82
-83
-82
-83
-84
-84
-84
-84
-84
-83
-84
-84
-84
-85
-85
-85
-85
-86
-86
-86
-87
-87
-87
-88
-88
-89
-89
-88
-89
-88
-89
-88
-88
-88
-88
-88
-87
-88
-88
-88
-88
-89
-89
-89
-90
-90
-91
-91
-91
-91
-92
-92
-91
-91
-92
-92
-91
-91
-90
-89
-88
-88
-87
-86
-85
-84
-82
-81
-81
-80
-80
-79
-79
-78
-79
-79
-78
-79
-79
-81
-81
-81
-83
-83
-84
-85
-86
-86
-87
-87
-87
-87
-87
-87
-88
-87
-86
-87
-86
-85
-85
-84
-83
-84
-83
-82
-82
-82
-82
-82
-82
-82
-81
-82
-82
-83
-82
-83
-84
-84
-84
-86
-85
-85
-86
-87
-86
-87
-87
-87
-87
-87
-87
-86
-86
-86
-85
-85
-85
-85
-85
-86
-85
-85
-86
-86
-85
-85
-86
-85
-85
-85
-85
-84
-85
-84
-84
-83
-83
-83
-83
-83
-83
-81
-81
-82
-81
-81
-80
-81
-81
-81
-81
-81
-82
-82
-82
-82
-83
-83
-83
-84
-85
-85
-85
-86
-86
-87
-87
-87
-87
-88
-88
-88
-89
-89
-89
-89
-90
-89
-89
-90
-90
-90
-90
-90
-91
-91
-91
-91
-91
-91
-91
-90
-90
-90
-90
-89
-89
-88
-88
-88
-86
-87
-86
-85
-85
-84
-83
-82
-82
-82
-82
-82
-82
-82
-82
-83
-84
-84
-85
-85
-86
-87
-88
-90
-90
-90
-92
-92
-92
-92
-92
-92
-92
-92
-92
-91
-91
-90
-91
-90
-89
-89
-89
-88
-87
-87
-87
-87
-87
-87
-88
-88
-88
-89
-89
-89
-89
-91
-91
-92
-92
-92
-94
-94
-94
-95
-95
-95
-94
-94
-94
-93
-93
-92
-92
-91
-91
-90
-91
-90
-90
-89
-89
-90
-90
-90
-90
-90
-90
-90
-91
-90
-91
-91
-91
-93
-93
-93
-94
-94
-94
-95
-95
-95
-96
-96
-96
-96
-97
-97
-97
-97
-97
-98
-97
-97
-97
-97
-96
-96
-96
-96
-95
-95
-93
-93
-92
-91
-90
-89
-87
-87
-85
-85
-84
-83
-82
-82
-81
-80
-80
-79
-79
-78
-79
-78
-78
-78
-78
-78
-78
-78
-78
-78
-78
-78
-78
-79
-80
-79
-80
-81
-81
-82
-83
-84
-85
-86
-86
-87
-88
-89
-89
-90
-90
-90
-92
-92
-93
-94
-94
-95
-95
-95
-96
-96
-96
-96
-97
-97
-98
-98
-99
-99
-99
-99
-99
-99
-99
-98
-99
-99
-99
-99
-99
-99
-99
-99
-99
-99
-99
-98
-98
-97
-97
-98
-98
-97
-97
-97
-97
-97
-96
-96
-96
-96
-96
-97
-96
-96
-96
-97
-98
-98
-98
-99
-100
-101
-101
-103
-103
-105
-105
-106
-106
-106
-107
-107
-107
-107
-107
-106
-105
-104
-104
-104
-102
-102
-101
-101
-99
-99
-98
-98
-97
-96
-96
-96
-95
-95
-93
-93
-91
-90
-89
-87
-85
-83
-81
-79
-76
-73
-70
-67
-63
-59
-55
-51
-46
-42
-37
-33
-28
-24
-21
-18
-16
-14
-13
-12
-13
-14
-16
-18
-21
-25
-29
-34
-39
-46
-52
-60
-67
-76
-85
-93
-102
-112
-121
-131
-140
-150
-159
-169
-178
-187
-196
-205
-213
-220
-227
-234
-239
-244
-249
-252
-254
-256
-257
-256
-255
-252
-250
-246
-241
-236
-229
-222
-215
-208
-200
-193
-185
-178
-170
-163
-156
-149
-142
-137
-131
-124
-120
-115
-111
-107
-104
-100
-98
-95
-93
-91
-89
-88
-87
-86
-86
-85
-85
-86
-85
-86
-86
-87
-87
-89
-89
-90
-91
-91
-92
-91
-92
-92
-93
-93
-92
-93
-93
-93
-93
-91
-91
-91
-91
-90
-89
-88
-88
-88
-86
-86
-86
-85
-84
-83
-84
-83
-83
-82
-82
-82
-82
-81
-81
-81
-81
-81
-80
-81
-80
-80
-80
-80
-81
-81
-81
-82
-82
-83
-83
-84
-85
-85
-85
-86
-87
-86
-87
-87
-86
-86
-86
-87
-87
-86
-86
-85
-85
-84
-83
-82
-82
-81
-80
-79
-80
-79
-78
-77
-77
-77
-76
-77
-76
-77
-77
-77
-78
-77
-78
-79
-79
-78
-79
-79
-79
-79
-78
-78
-78
-78
-77
-77
-77
-76
-77
-76
-76
-75
-75
-75
-75
-75
-74
-74
-73
-73
-73
-73
-72
-72
-72
-72
-71
-70
-71
-70
-69
-70
-70
-69
-70
-70
-70
-70
-70
-71
-70
-70
-70
-69
-69
-68
-68
-67
-67
-67
-67
-65
-66
-65
-64
-64
-63
-63
-63
-62
-63
-63
-62
-62
-62
-63
-63
-63
-64
-64
-64
-64
-64
-64
-64
-64
-64
-63
-63
-62
-62
-61
-61
-59
-59
-58
-57
-56
-56
-55
-54
-54
-53
-53
-52
-51
-51
-51
-51
-51
-51
-52
-51
-51
-51
-52
-52
-52
-52
-52
-52
-53
-53
-54
-54
-55
-55
-55
-55
-56
-56
-56
-56
-55
-56
-56
-56
-56
-56
-56
-57
-56
-56
-56
-55
-55
-55
-56
-56
-56
-56
-57
-56
-57
-57
-57
-58
-58
-59
-60
-61
-61
-62
-63
-64
-65
-65
-66
-67
-67
-68
-68
-69
-69
-69
-69
-69
-70
-71
-71
-71
-72
-73
-72
-73
-73
-73
-74
-74
-74
-75
-76
-76
-77
-78
-78
-78
-80
-80
-82
-82
-83
-84
-85
-86
-88
-88
-90
-91
-92
-93
-93
-94
-96
-96
-97
-97
-98
-98
-99
-99
-99
-100
-100
-100
-100
-100
-100
-101
-100
-100
-100
-100
-100
-100
-100
-100
-101
-101
-101
-101
-102
-102
-102
-103
-103
-103
-103
-103
-103
-103
-103
-103
-103
-103
-102
-102
-102
-102
-101
-101
-101
-102
-101
-101
-101
-101
-101
-101
-101
-101
-101
-101
-101
-101
-102
-101
-101
-101
-100
-100
-100
-100
-100
-101
-101
-101
-101
-101
-101
-101
-101
-101
-101
-101
-101
-101
-101
-102
-102
-101
-102
-102
-102
-102
-102
-103
-103
-103
-104
-103
-103
-105
-104
-104
-105
-105
-105
-104
-105
-104
-105
-105
-104
-103
-104
-104
-103
-102
-103
-102
-102
-101
-102
-101
-101
-102
-102
-103
-103
-103
-104
-104
-104
-105
-105
-105
-106
-106
-106
-107
-106
-106
-107
-106
-106
-105
-105
-104
-104
-103
-103
-102
-102
-101
-101
-100
-100
-101
-100
-99
-100
-100
-99
-100
-100
-101
-101
-101
-102
-102
-102
-103
-103
-103
-105
-105
-104
-104
-105
-104
-104
-104
-104
-103
-104
-103
-103
-103
-103
-104
-104
-104
-104
-104
-105
-105
-105
-105
-105
-105
-105
-105
-104
-104
-104
-104
-104
-104
-104
-104
-103
-104
-104
-104
-105
-104
-105
-105
-105
-106
-107
-107
-107
-108
-109
-110
-110
-110
-110
-110
-110
-110
-110
-109
-109
-109
-109
-109
-109
-108
-107
-108
-107
-107
-106
-106
-106
-105
-106
-106
-106
-106
-106
-107
-107
-107
-108
-108
-108
-108
-108
-108
-109
-109
-109
-109
-110
-109
-110
-109
-110
-110
-110
-110
-110
-110
-110
-110
-109
-109
-109
-109
-109
-109
-109
-109
-109
-109
-109
-108
-109
-109
-108
-109
-109
-110
-110
-110
-110
-110
-111
-111
-111
-112
-112
-112
-112
-112
-112
-113
-113
-113
-113
-113
-113
-113
-113
-112
-112
-112
-111
-111
-111
-111
-111
-111
-111
-111
-112
-112
-111
-113
-112
-113
-114
-114
-115
-115
-116
-116
-115
-116
-117
-117
-117
-116
-117
-117
-116
-116
-116
-116
-116
-116
-114
-114
-113
-113
-112
-112
-110
-110
-108
-107
-107
-105
-105
-104
-104
-103
-102
-102
-101
-100
-100
-100
-99
-98
-98
-98
-99
-99
-99
-99
-100
-100
-101
-101
-102
-102
-103
-104
-106
-106
-107
-109
-110
-111
-112
-112
-113
-113
-113
-114
-114
-114
-115
-115
-116
-115
-116
-117
-118
-117
-118
-119
-119
-120
-120
-120
-121
-122
-122
-123
-124
-124
-124
-124
-124
-124
-125
-125
-124
-123
-123
-123
-122
-121
-121
-120
-119
-119
-118
-118
-117
-117
-117
-116
-117
-117
-117
-118
-118
-118
-118
-119
-119
-120
-120
-120
-121
-121
-121
-122
-122
-123
-123
-123
-123
-124
-124
-124
-124
-125
-125
-126
-126
-126
-127
-126
-126
-126
-127
-126
-126
-126
-126
-126
-125
-126
-125
-125
-125
-125
-125
-124
-123
-123
-123
-123
-122
-120
-119
-119
-116
-115
-113
-110
-108
-106
-103
-100
-96
-91
-87
-83
-78
-73
-68
-64
-59
-53
-48
-45
-40
-36
-33
-31
-29
-27
-28
-29
-30
-32
-36
-40
-45
-50
-56
-63
-70
-78
-87
-95
-105
-114
-124
-135
-145
-156
-166
-176
-187
-197
-207
-217
-226
-235
-244
-252
-259
-266
-273
-278
-283
-287
-291
-293
-295
-295
-294
-292
-290
-287
-283
-278
-272
-265
-258
-251
-242
-234
-225
-218
-210
-202
-193
-186
-179
-171
-165
-158
-153
-148
-142
-138
-134
-130
-127
-125
-123
-121
-121
-119
-118
-117
-117
-117
-116
-116
-117
-116
-117
-117
-117
-118
-117
-116
-116
-116
-117
-117
-117
-117
-116
-116
-117
-116
-116
-116
-117
-117
-117
-117
-117
-117
-118
-118
-118
-119
-118
-119
-118
-118
-119
-118
-118
-118
-118
-118
-118
-117
-117
-117
-117
-117
-117
-116
-116
-116
-116
-115
-115
-115
-115
-115
-114
-114
-114
-115
-115
-116
-115
-116
-116
-116
-115
-115
-116
-116
-115
-115
-115
-114
-114
-113
-113
-113
-112
-112
-111
-111
-112
-111
-111
-111
-110
-110
-109
-109
-109
-109
-109
-109
-109
-109
-109
-109
-109
-109
-110
-109
-109
-109
-109
-109
-110
-109
-109
-109
-109
-108
-108
-108
-108
-108
-108
-108
-108
-108
-107
-107
-107
-107
-106
-106
-106
-105
-104
-104
-104
-103
-102
-102
-101
-101
-100
-100
-99
-99
-98
-98
-99
-98
-98
-97
-97
-97
-97
-97
-97
-97
-98
-97
-97
-96
-96
-96
-96
-96
-96
-96
-95
-94
-95
-94
-94
-94
-93
-92
-92
-91
-91
-90
-89
-89
-87
-87
-87
-86
-85
-85
-84
-84
-84
-83
-83
-83
-83
-83
-83
-82
-82
-83
-82
-83
-83
-82
-82
-83
-83
-83
-83
-83
-83
-83
-82
-82
-82
-81
-81
-81
-81
-81
-81
-81
-81
-80
-80
-80
-81
-81
-81
-81
-82
-82
-82
-82
-83
-83
-83
-83
-84
-84
-84
-85
-85
-86
-86
-87
-87
-88
-88
-89
-89
-90
-91
-92
-92
-93
-94
-95
-95
-96
-97
-97
-97
-98
-99
-99
-100
-101
-101
-101
-103
-103
-103
-103
-104
-104
-105
-105
-105
-106
-107
-108
-109
-110
-110
-111
-112
-114
-115
-116
-118
-119
-120
-120
-122
-123
-125
-125
-126
-126
-128
-128
-128
-128
-129
-129
-128
-129
-129
-129
-130
-130
-130
-130
-131
-131
-131
-131
-131
-131
-132
-132
-133
-133
-134
-134
-135
-136
-137
-137
-139
-139
-140
-140
-141
-141
-142
-144
-144
-144
-145
-146
-146
-147
-148
-149
-149
-149
-149
-149
-149
-149
-149
-149
-148
-148
-148
-148
-147
-147
-147
-147
-146
-147
-147
-147
-148
-148
-148
-148
-149
-150
-150
-151
-151
-151
-152
-152
-152
-153
-153
-153
-154
-154
-154
-154
-154
-155
-155
-155
-156
-156
-156
-156
-156
-156
-156
-156
-156
-156
-156
-156
-156
-156
-156
-156
-156
-155
-155
-155
-155
-155
-155
-154
-154
-154
-154
-154
-154
-154
-155
-154
-155
-155
-155
-155
-156
-155
-155
-156
-156
-155
-156
-156
-156
-157
-157
-157
-157
-156
-156
-156
-157
-157
-157
-157
-157
-157
-157
-157
-157
-156
-156
-156
-156
-155
-155
-155
-155
-154
-154
-154
-154
-153
-153
-153
-153
-153
-154
-154
-154
-154
-155
-155
-155
-155
-155
-155
-156
-156
-157
-157
-157
-158
-159
-159
-160
-160
-160
-161
-161
-161
-160
-160
-160
-159
-159
-158
-158
-158
-158
-158
-158
-158
-158
-157
-157
-157
-157
-156
-156
-157
-157
-156
-157
-157
-156
-156
-156
-156
-156
-156
-157
-157
-157
-157
-157
-157
-158
-158
-158
-158
-158
-159
-159
-159
-159
-159
-159
-159
-159
-159
-160
-160
-160
-160
-160
-160
-160
-160
-160
-160
-161
-160
-160
-160
-159
-160
-160
-160
-159
-160
-161
-161
-162
-162
-163
-163
-164
-164
-165
-164
-165
-165
-166
-166
-166
-166
-167
-166
-166
-167
-166
-165
-166
-165
-165
-165
-165
-166
-165
-165
-165
-166
-166
-165
-166
-165
-165
-166
-165
-165
-165
-166
-166
-167
-166
-167
-167
-168
-168
-168
-168
-168
-168
-169
-168
-169
-169
-169
-170
-170
-171
-171
-171
-171
-171
-172
-172
-171
-171
-171
-171
-171
-171
-171
-171
-171
-171
-171
-170
-170
-171
-171
-170
-170
-171
-171
-170
-170
-169
-169
-169
-169
-169
-169
-168
-168
-168
-167
-167
-166
-167
-167
-167
-167
-168
-168
-168
-170
-170
-170
-170
-172
-172
-173
-173
-174
-174
-174
-175
-174
-175
-175
-175
-175
-174
-175
-175
-174
-174
-174
-173
-173
-173
-172
-173
-172
-172
-172
-171
-171
-171
-170
-170
-170
-169
-169
-169
-168
-168
-167
-167
-166
-166
-165
-165
-164
-163
-162
-161
-160
-159
-159
-159
-158
-157
-157
-157
-157
-157
-156
-155
-155
-155
-155
-155
-155
-155
-156
-156
-157
-156
-157
-157
-157
-158
-158
-158
-158
-158
-160
-160
-160
-160
-161
-162
-162
-162
-163
-164
-164
-166
-166
-167
-167
-169
-168
-169
-169
-170
-170
-171
-170
-171
-171
-171
-171
-171
-172
-172
-172
-173
-173
-174
-174
-175
-175
-176
-177
-178
-177
-178
-179
-180
-180
-180
-180
-180
-180
-180
-180
-179
-179
-179
-178
-178
-178
-177
-177
-176
-175
-175
-174
-173
-173
-172
-171
-170
-170
-169
-169
-169
-169
-169
-169
-169
-170
-170
-171
-171
-172
-171
-172
-173
-173
-173
-174
-174
-174
-175
-175
-175
-175
-175
-175
-174
-174
-174
-174
-174
-174
-173
-174
-173
-173
-173
-173
-172
-172
-172
-172
-172
-171
-170
-169
-168
-167
-164
-163
-160
-157
-153
-150
-147
-142
-138
-133
-127
-122
-117
-111
-106
-101
-97
-93
-89
-86
-84
-83
-82
-84
-85
-89
-92
-96
-101
-107
-114
-121
-129
-138
-146
-156
-167
-177
-188
-199
-209
-219
-230
-240
-251
-260
-271
-281
-289
-298
-307
-315
-322
-330
-335
-341
-346
-350
-353
-355
-356
-355
-354
-351
-348
-344
-339
-333
-326
-318
-311
-302
-294
-285
-277
-268
-259
-251
-243
-235
-228
-221
-215
-209
-204
-199
-195
-190
-187
-184
-181
-179
-177
-175
-174
-173
-172
-172
-171
-170
-170
-169
-170
-169
-170
-169
-169
-168
-168
-168
-167
-166
-167
-166
-165
-165
-165
-165
-164
-164
-164
-163
-164
-163
-164
-164
-164
-163
-164
-164
-163
-164
-164
-164
-164
-164
-164
-165
-166
-165
-165
-166
-165
-166
-166
-166
-165
-165
-165
-164
-163
-163
-163
-162
-162
-162
-162
-161
-161
-161
-161
-160
-160
-160
-159
-159
-159
-159
-159
-159
-159
-158
-158
-159
-159
-159
-158
-158
-159
-159
-158
-158
-159
-159
-160
-159
-158
-159
-158
-158
-158
-158
-157
-157
-157
-157
-156
-156
-156
-155
-155
-154
-155
-154
-154
-154
-154
-155
-154
-155
-155
-154
-155
-155
-156
-156
-156
-157
-158
-158
-159
-159
-160
-160
-160
-160
-159
-159
-159
-158
-158
-158
-157
-156
-156
-156
-154
-154
-154
-153
-153
-152
-152
-151
-151
-151
-150
-150
-150
-149
-148
-148
-148
-148
-147
-147
-146
-146
-146
-146
-146
-145
-145
-144
-144
-144
-143
-143
-143
-142
-142
-142
-141
-140
-140
-140
-140
-139
-139
-138
-138
-137
-137
-136
-135
-135
-135
-135
-134
-133
-132
-132
-132
-131
-130
-130
-131
-131
-131
-131
-131
-132
-131
-132
-132
-132
-132
-132
-132
-132
-132
-131
-131
-131
-131
-131
-131
-132
-132
-133
-132
-133
-134
-134
-135
-135
-135
-136
-136
-137
-138
-138
-139
-140
-140
-141
-141
-143
-142
-143
-143
-144
-144
-144
-145
-145
-145
-145
-145
-144
-145
-145
-144
-145
-144
-145
-145
-144
-145
-145
-146
-146
-146
-146
-147
-148
-148
-149
-150
-150
-151
-152
-154
-154
-156
-156
-158
-159
-159
-161
-162
-163
-164
-165
-167
-167
-167
-169
-169
-170
-170
-170
-171
-171
-172
-172
-173
-174
-174
-175
-176
-177
-177
-177
-178
-179
-179
-180
-180
-180
-181
-181
-182
-182
-182
-183
-184
-185
-184
-184
-185
-184
-184
-184
-183
-183
-184
-183
-184
-183
-183
-183
-183
-183
-184
-184
-186
-186
-187
-188
-189
-190
-191
-192
-193
-194
-194
-196
-197
-197
-198
-199
-199
-200
-201
-201
-201
-201
-202
-202
-203
-203
-203
-203
-204
-203
-203
-203
-202
-202
-202
-202
-201
-201
-200
-200
-199
-199
-199
-198
-198
-198
-197
-197
-197
-197
-197
-196
-196
-196
-195
-195
-195
-195
-195
-195
-196
-196
-195
-195
-196
-195
-195
-195
-196
-196
-196
-196
-196
-196
-197
-197
-197
-196
-197
-197
-197
-197
-196
-196
-196
-196
-196
-196
-195
-195
-195
-194
-194
-193
-194
-193
-192
-193
-192
-192
-191
-190
-190
-189
-189
-188
-188
-187
-187
-186
-186
-186
-185
-185
-186
-186
-187
-186
-187
-188
-189
-190
-192
-192
-194
-194
-194
-195
-195
-197
-197
-197
-197
-197
-196
-196
-196
-195
-195
-194
-193
-192
-192
-192
-191
-191
-190
-190
-189
-190
-189
-189
-189
-189
-189
-189
-190
-189
-189
-190
-190
-190
-190
-190
-191
-191
-192
-192
-192
-192
-193
-193
-193
-193
-195
-194
-195
-194
-195
-195
-195
-195
-194
-195
-195
-194
-194
-193
-193
-193
-192
-191
-190
-190
-190
-189
-189
-190
-190
-191
-191
-192
-192
-193
-193
-194
-194
-195
-196
-197
-198
-198
-198
-199
-199
-199
-200
-199
-200
-200
-199
-199
-199
-199
-199
-198
-198
-198
-198
-197
-197
-196
-195
-195
-194
-194
-193
-194
-193
-194
-193
-194
-195
-194
-195
-196
-196
-197
-197
-197
-198
-198
-198
-199
-199
-200
-200
-200
-200
-201
-201
-200
-200
-200
-200
-200
-200
-200
-200
-200
-199
-200
-199
-199
-199
-199
-199
-199
-199
-200
-200
-200
-201
-200
-201
-201
-202
-202
-202
-203
-201
-201
-201
-201
-200
-200
-200
-200
-199
-200
-199
-199
-199
-199
-199
-198
-198
-199
-199
-199
-199
-199
-199
-199
-199
-199
-200
-200
-200
-200
-200
-201
-201
-201
-200
-201
-201
-200
-201
-202
-201
-201
-201
-201
-201
-201
-201
-201
-201
-201
-201
-201
-201
-200
-201
-200
-200
-201
-200
-200
-200
-199
-199
-199
-199
-198
-198
-198
-198
-197
-197
-197
-196
-196
-196
-196
-196
-195
-196
-195
-195
-195
-196
-195
-195
-196
-195
-196
-196
-196
-196
-197
-196
-196
-197
-197
-196
-196
-196
-197
-196
-196
-196
-195
-195
-194
-194
-194
-194
-193
-192
-192
-191
-191
-190
-189
-189
-188
-188
-186
-185
-185
-183
-183
-181
-180
-180
-179
-179
-178
-178
-178
-177
-177
-178
-178
-177
-177
-177
-178
-179
-179
-179
-180
-181
-182
-182
-183
-184
-185
-185
-186
-188
-188
-189
-191
-191
-192
-193
-195
-195
-196
-197
-197
-199
-199
-200
-200
-200
-200
-200
-199
-201
-200
-200
-200
-200
-199
-199
-198
-198
-197
-196
-195
-195
-195
-194
-193
-193
-193
-193
-192
-192
-193
-192
-192
-193
-192
-193
-193
-194
-193
-194
-194
-194
-194
-194
-195
-195
-196
-196
-196
-197
-198
-198
-199
-199
-200
-200
-200
-200
-200
-201
-201
-202
-202
-202
-202
-202
-202
-202
-202
-202
-201
-201
-201
-201
-199
-199
-199
-198
-198
-197
-196
-196
-195
-195
-195
-194
-193
-192
-192
-192
-191
-191
-189
-188
-187
-185
-183
-180
-178
-175
-172
-170
-167
-162
-159
-155
-151
-147
-143
-139
-134
-130
-126
-123
-120
-118
-115
-114
-114
-114
-115
-116
-119
-122
-125
-129
-134
-140
-147
-153
-160
-169
-177
-186
-195
-204
-214
-224
-233
-243
-253
-263
-272
-281
-291
-299
-308
-315
-322
-330
-336
-341
-346
-351
-353
-356
-357
-358
-357
-355
-353
-350
-347
-343
-337
-331
-325
-318
-311
-304
-297
-289
-283
-275
-267
-260
-254
-247
-241
-235
-229
-223
-219
-213
-210
-205
-203
-200
-197
-196
-195
-194
-193
-192
-192
-192
-192
-192
-192
-193
-193
-193
-193
-193
-193
-193
-193
-193
-193
-193
-193
-192
-192
-191
-190
-190
-189
-189
-189
-188
-188
-188
-188
-188
-188
-187
-188
-188
-188
-188
-188
-188
-188
-187
-187
-188
-188
-187
-187
-188
-187
-187
-186
-186
-185
-186
-186
-185
-185
-185
-186
-186
-186
-187
-187
-187
-187
-188
-188
-188
-188
-189
-189
-188
-188
-188
-188
-189
-189
-189
-189
-189
-189
-189
-189
-189
-188
-188
-188
-187
-187
-187
-187
-186
-186
-185
-184
-183
-183
-183
-182
-182
-182
-182
-182
-181
-181
-180
-179
-180
-179
-179
-180
-179
-179
-179
-179
-179
-179
-179
-179
-178
-178
-178
-178
-177
-177
-177
-177
-177
-177
-176
-177
-177
-176
-176
-175
-175
-175
-176
-175
-176
-176
-175
-175
-175
-174
-174
-173
-173
-172
-171
-171
-170
-169
-169
-169
-168
-167
-166
-167
-166
-166
-166
-166
-167
-166
-167
-167
-168
-167
-168
-169
-169
-169
-170
-170
-170
-170
-170
-170
-170
-170
-170
-170
-169
-169
-168
-168
-167
-167
-166
-166
-165
-165
-164
-164
-163
-163
-162
-162
-162
-161
-161
-160
-160
-159
-158
-158
-157
-157
-157
-156
-157
-156
-156
-156
-157
-157
-157
-158
-158
-158
-160
-161
-161
-162
-162
-163
-163
-164
-164
-165
-166
-166
-165
-165
-165
-165
-165
-164
-164
-163
-163
-162
-163
-162
-162
-162
-161
-161
-161
-161
-161
-161
-161
-160
-161
-161
-161
-162
-162
-163
-164
-164
-164
-165
-165
-165
-166
-166
-167
-167
-168
-168
-169
-169
-169
-170
-171
-172
-173
-173
-174
-175
-176
-176
-177
-177
-177
-178
-179
-180
-180
-180
-182
-182
-183
-183
-185
-185
-186
-187
-188
-189
-190
-191
-192
-192
-193
-193
-194
-195
-195
-196
-197
-197
-198
-199
-199
-200
-200
-201
-202
-202
-203
-204
-203
-204
-205
-204
-206
-206
-206
-206
-206
-206
-206
-205
-206
-205
-206
-205
-204
-203
-204
-204
-203
-203
-203
-203
-203
-203
-203
-202
-203
-203
-203
-204
-206
-206
-207
-207
-206
-207
-207
-208
-207
-207
-207
-208
-207
-207
-208
-208
-208
-208
-208
-208
-208
-209
-209
-209
-210
-210
-210
-211
-211
-211
-211
-211
-211
-212
-212
-212
-211
-211
-212
-211
-211
-211
-211
-211
-211
-210
-210
-210
-210
-210
-211
-211
-211
-210
-211
-210
-211
-211
-210
-211
-212
-212
-212
-212
-212
-212
-212
-212
-212
-212
-212
-212
-212
-212
-212
-213
-213
-213
-214
-214
-214
-214
-215
-214
-215
-214
-215
-215
-214
-215
-215
-214
-214
-213
-213
-213
-213
-213
-213
-212
-212
-213
-212
-213
-212
-213
-213
-213
-213
-213
-213
-213
-213
-214
-214
-214
-214
-214
-214
-215
-214
-215
-215
-215
-215
-215
-214
-215
-215
-215
-215
-215
-215
-215
-215
-215
-215
-215
-214
-215
-214
-215
-214
-214
-214
-214
-213
-213
-214
-214
-213
-213
-213
-213
-213
-214
-214
-214
-214
-215
-215
-216
-216
-217
-217
-217
-218
-218
-219
-219
-219
-220
-220
-220
-220
-221
-221
-221
-222
-221
-222
-223
-223
-223
-224
-224
-224
-224
-224
-225
-225
-225
-225
-226
-226
-227
-227
-226
-226
-226
-226
-226
-226
-226
-225
-225
-225
-225
-225
-224
-224
-223
-223
-223
-223
-222
-222
-223
-222
-223
-223
-224
-223
-224
-225
-225
-225
-226
-226
-226
-227
-226
-227
-227
-227
-228
-228
-227
-227
-227
-227
-226
-226
-225
-225
-225
-224
-224
-223
-222
-221
-222
-222
-222
-222
-221
-222
-223
-223
-223
-224
-225
-225
-226
-226
-226
-227
-228
-229
-229
-229
-229
-230
-230
-230
-230
-230
-231
-229
-230
-230
-229
-230
-230
-229
-229
-228
-228
-228
-227
-227
-226
-226
-226
-225
-225
-225
-225
-225
-225
-225
-225
-225
-225
-225
-225
-225
-225
-226
-226
-226
-227
-227
-226
-226
-226
-226
-226
-226
-226
-226
-226
-226
-227
-226
-226
-226
-226
-225
-225
-225
-224
-224
-224
-224
-224
-225
-225
-224
-225
-225
-226
-227
-227
-228
-228
-229
-230
-231
-232
-232
-233
-235
-235
-236
-237
-238
-239
-239
-241
-242
-243
-244
-244
-245
-246
-246
-247
-247
-247
-248
-248
-249
-248
-249
-249
-250
-249
-250
-251
-250
-251
-251
-251
-251
-251
-252
-252
-252
-253
-252
-253
-253
-254
-253
-253
-253
-254
-254
-253
-254
-253
-254
-254
-254
-253
-254
-254
-254
-254
-255
-254
-254
-254
-253
-253
-253
-252
-252
-252
-252
-252
-251
-251
-250
-250
-250
-250
-250
-250
-249
-249
-249
-249
-249
-249
-249
-250
-250
-250
-251
-251
-251
-252
-252
-251
-251
-251
-252
-252
-252
-253
-252
-252
-252
-251
-251
-250
-249
-247
-246
-244
-242
-240
-238
-234
-231
-228
-225
-220
-216
-212
-207
-202
-197
-192
-187
-182
-178
-173
-169
-166
-164
-163
-161
-161
-163
-164
-166
-170
-173
-178
-184
-189
-197
-205
-213
-222
-231
-241
-251
-261
-272
-282
-292
-303
-312
-323
-332
-341
-350
-359
-367
-376
-383
-390
-396
-401
-407
-411
-414
-417
-419
-419
-419
-418
-416
-413
-410
-405
-401
-395
-389
-382
-375
-367
-359
-351
-344
-336
-328
-320
-314
-307
-300
-294
-286
-282
-276
-271
-267
-264
-260
-257
-255
-254
-252
-251
-250
-250
-250
-250
-250
-250
-250
-250
-250
-250
-250
-250
-250
-251
-251
-250
-250
-250
-251
-251
-250
-250
-250
-250
-250
-250
-250
-250
-250
-250
-249
-249
-249
-248
-248
-248
-248
-248
-248
-248
-248
-247
-247
-247
-247
-247
-247
-247
-247
-247
-247
-246
-247
-246
-246
-246
-246
-246
-246
-246
-246
-246
-246
-246
-247
-247
-248
-248
-248
-248
-249
-249
-249
-248
-248
-248
-248
-248
-248
-248
-248
-247
-247
-247
-247
-247
-246
-245
-245
-245
-245
-244
-244
-243
-243
-243
-243
-242
-242
-242
-241
-241
-241
-241
-241
-241
-241
-240
-241
-241
-241
-241
-241
-240
-240
-240
-240
-240
-240
-240
-240
-240
-241
-241
-242
-242
-243
-243
-244
-244
-244
-244
-245
-246
-247
-246
-246
-246
-246
-245
-245
-245
-245
-245
-245
-245
-244
-244
-244
-243
-243
-242
-242
-242
-242
-241
-241
-242
-241
-241
-241
-241
-240
-240
-240
-241
-240
-239
-239
-238
-238
-237
-238
-237
-236
-235
-235
-235
-234
-234
-234
-233
-233
-232
-232
-231
-230
-229
-230
-228
-228
-228
-227
-226
-226
-226
-225
-225
-224
-224
-224
-224
-224
-224
-225
-225
-225
-226
-226
-227
-227
-227
-227
-227
-227
-227
-227
-227
-228
-228
-228
-227
-227
-227
-226
-225
-225
-224
-224
-223
-223
-222
-222
-222
-221
-222
-222
-222
-222
-222
-222
-223
-223
-224
-224
-224
-226
-225
-227
-227
-226
-228
-228
-228
-228
-229
-228
-228
-228
-228
-228
-228
-228
-227
-227
-227
-228
-229
-229
-230
-230
-231
-231
-232
-233
-234
-235
-236
-237
-238
-240
-241
-243
-243
-244
-245
-247
-247
-248
-249
-249
-250
-250
-251
-252
-252
-252
-253
-254
-255
-255
-257
-258
-260
-260
-261
-262
-263
-264
-265
-266
-267
-267
-268
-268
-268
-269
-269
-269
-269
-270
-270
-269
-270
-270
-270
-271
-270
-271
-271
-272
-272
-273
-273
-273
-274
-274
-275
-275
-275
-275
-276
-276
-276
-276
-276
-276
-276
-275
-275
-276
-275
-274
-274
-273
-272
-273
-272
-272
-271
-271
-272
-272
-273
-273
-273
-273
-274
-274
-274
-275
-276
-276
-277
-277
-278
-278
-278
-279
-279
-279
-279
-279
-280
-280
-280
-279
-280
-280
-279
-279
-279
-278
-279
-279
-279
-278
-278
-278
-277
-277
-277
-277
-277
-277
-277
-277
-277
-277
-277
-276
-276
-276
-275
-276
-275
-275
-274
-274
-273
-274
-273
-273
-273
-273
-273
-272
-272
-272
-272
-272
-271
-272
-271
-271
-271
-271
-272
-272
-273
-273
-274
-274
-275
-275
-276
-276
-276
-276
-276
-276
-276
-276
-275
-275
-275
-274
-273
-274
-273
-273
-273
-273
-272
-272
-272
-272
-271
-272
-272
-272
-272
-272
-272
-272
-273
-273
-273
-273
-274
-274
-274
-274
-275
-275
-275
-276
-276
-277
-277
-277
-278
-278
-279
-280
-280
-280
-280
-281
-281
-281
-282
-281
-282
-282
-282
-281
-281
-281
-280
-280
-281
-280
-279
-279
-279
-278
-278
-277
-277
-277
-277
-278
-277
-278
-278
-277
-277
-277
-277
-277
-277
-277
-277
-277
-277
-277
-277
-277
-277
-277
-277
-277
-278
-279
-279
-280
-281
-281
-282
-282
-283
-283
-283
-284
-284
-285
-284
-285
-285
-285
-285
-286
-285
-286
-286
-285
-286
-286
-285
-285
-285
-286
-285
-285
-285
-286
-285
-285
-285
-285
-284
-284
-284
-284
-284
-283
-283
-283
-283
-283
-283
-283
-283
-282
-282
-282
-282
-282
-282
-282
-283
-282
-282
-282
-282
-284
-283
-283
-284
-284
-284
-285
-284
-285
-285
-285
-286
-286
-286
-286
-287
-287
-287
-287
-287
-287
-287
-288
-288
-288
-288
-287
-286
-286
-285
-285
-285
-283
-283
-283
-283
-282
-282
-282
-282
-282
-281
-281
-281
-282
-282
-281
-281
-282
-282
-283
-283
-283
-284
-283
-283
-282
-282
-282
-282
-282
-281
-281
-281
-280
-280
-279
-278
-277
-276
-276
-275
-275
-274
-274
-274
-273
-273
-273
-272
-272
-270
-270
-270
-270
-269
-269
-269
-268
-269
-269
-269
-268
-268
-269
-268
-268
-269
-269
-269
-270
-270
-271
-270
-271
-271
-272
-272
-273
-273
-274
-274
-275
-276
-277
-278
-279
-280
-281
-281
-282
-283
-284
-285
-285
-286
-286
-286
-286
-287
-287
-286
-286
-286
-286
-286
-286
-286
-287
-287
-287
-287
-288
-287
-288
-288
-288
-287
-288
-288
-288
-289
-289
-288
-289
-288
-289
-289
-288
-289
-288
-288
-288
-287
-288
-287
-287
-287
-287
-287
-287
-288
-287
-288
-287
-288
-288
-288
-288
-288
-288
-288
-288
-288
-288
-288
-288
-287
-288
-287
-286
-287
-286
-286
-286
-286
-286
-285
-286
-286
-285
-286
-286
-285
-285
-285
-284
-285
-284
-284
-283
-283
-281
-280
-279
-278
-276
-274
-272
-269
-266
-263
-259
-255
-252
-247
-243
-238
-233
-228
-222
-217
-212
-208
-204
-201
-198
-197
-196
-195
-196
-198
-201
-204
-208
-212
-218
-225
-232
-240
-249
-259
-269
-279
-288
-299
-309
-320
-330
-342
-352
-362
-372
-383
-393
-402
-410
-418
-425
-433
-439
-445
-449
-454
-457
-459
-459
-460
-458
-457
-454
-449
-445
-439
-433
-427
-419
-410
-402
-394
-384
-376
-367
-360
-351
-344
-337
-330
-323
-317
-311
-306
-301
-296
-293
-289
-286
-284
-281
-279
-278
-278
-277
-276
-276
-276
-276
-276
-276
-276
-276
-277
-277
-277
-277
-277
-277
-277
-276
-276
-276
-276
-276
-276
-276
-275
-275
-275
-274
-273
-273
-272
-271
-271
-270
-270
-269
-268
-268
-267
-266
-266
-265
-265
-265
-264
-265
-265
-266
-266
-266
-266
-266
-267
-267
-267
-268
-267
-267
-267
-267
-267
-267
-267
-267
-267
-266
-265
-264
-265
-264
-264
-263
-263
-262
-262
-261
-262
-261
-260
-260
-260
-260
-259
-259
-259
-259
-259
-258
-258
-258
-257
-257
-257
-256
-256
-255
-255
-254
-254
-254
-254
-253
-253
-253
-253
-253
-252
-251
-251
-251
-250
-250
-250
-249
-248
-247
-247
-246
-246
-245
-245
-243
-242
-242
-240
-240
-239
-239
-238
-237
-237
-236
-236
-235
-235
-234
-234
-234
-234
-233
-233
-233
-233
-233
-234
-234
-234
-233
-233
-234
-233
-233
-233
-233
-233
-233
-232
-232
-231
-231
-231
-230
-230
-229
-229
-229
-229
-229
-229
-229
-229
-228
-228
-227
-227
-227
-226
-226
-225
-225
-223
-223
-223
-222
-221
-220
-220
-219
-218
-216
-216
-216
-215
-215
-214
-214
-214
-214
-214
-214
-214
-214
-215
-215
-215
-216
-216
-215
-216
-216
-216
-216
-216
-216
-215
-215
-215
-214
-213
-213
-213
-212
-211
-211
-211
-211
-211
-211
-211
-211
-212
-212
-212
-213
-212
-213
-214
-214
-215
-215
-215
-216
-216
-217
-217
-218
-219
-219
-219
-220
-220
-220
-220
-220
-221
-221
-221
-221
-221
-221
-221
-221
-222
-223
-224
-224
-225
-226
-226
-227
-228
-229
-231
-232
-232
-234
-235
-237
-238
-239
-240
-241
-242
-244
-245
-245
-246
-247
-247
-248
-248
-248
-249
-249
-250
-251
-251
-252
-252
-253
-254
-254
-254
-255
-256
-257
-258
-259
-260
-261
-262
-263
-264
-265
-266
-265
-266
-267
-267
-269
-269
-269
-270
-271
-271
-271
-272
-273
-273
-274
-274
-273
-274
-275
-274
-275
-274
-274
-275
-276
-276
-275
-276
-276
-276
-277
-277
-278
-278
-279
-279
-279
-280
-280
-280
-281
-281
-280
-281
-281
-281
-282
-282
-282
-282
-283
-283
-283
-283
-282
-283
-283
-283
-283
-284
-284
-284
-284
-284
-284
-284
-284
-285
-285
-285
-285
-286
-286
-287
-286
-286
-286
-286
-286
-286
-286
-286
-285
-285
-285
-284
-284
-284
-283
-283
-283
-283
-283
-283
-283
-283
-283
-283
-283
-283
-284
-284
-283
-284
-284
-283
-283
-283
-283
-283
-282
-282
-281
-281
-281
-280
-280
-280
-279
-278
-277
-277
-277
-277
-276
-276
-276
-276
-276
-276
-276
-277
-277
-277
-277
-278
-278
-278
-278
-278
-277
-277
-277
-277
-276
-276
-276
-276
-275
-276
-276
-276
-275
-275
-275
-274
-274
-274
-274
-274
-274
-274
-275
-275
-275
-276
-276
-275
-276
-277
-277
-278
-278
-279
-280
-280
-281
-281
-282
-282
-281
-282
-282
-282
-282
-283
-283
-283
-283
-282
-282
-282
-283
-283
-282
-282
-281
-281
-280
-280
-280
-279
-278
-278
-277
-277
-278
-278
-277
-277
-277
-277
-277
-278
-279
-278
-278
-279
-279
-280
-280
-280
-279
-280
-280
-280
-280
-280
-280
-279
-280
-280
-280
-279
-279
-279
-279
-279
-279
-279
-280
-280
-281
-282
-282
-283
-284
-284
-285
-286
-287
-288
-289
-289
-290
-291
-290
-291
-291
-290
-291
-290
-290
-290
-290
-289
-289
-289
-287
-287
-287
-286
-287
-286
-286
-286
-286
-285
-286
-286
-287
-286
-286
-287
-287
-288
-288
-289
-289
-290
-290
-290
-291
-290
-291
-291
-291
-291
-291
-291
-291
-291
-290
-290
-290
-289
-288
-289
-289
-289
-289
-289
-290
-290
-290
-290
-291
-291
-291
-291
-292
-292
-292
-292
-292
-292
-291
-291
-292
-291
-292
-292
-291
-292
-291
-291
-291
-291
-291
-291
-291
-290
-290
-290
-291
-291
-291
-289
-289
-289
-288
-288
-287
-287
-287
-285
-285
-285
-283
-282
-282
-281
-280
-279
-278
-278
-278
-279
-278
-278
-278
-279
-278
-279
-278
-278
-279
-280
-280
-280
-280
-281
-280
-280
-280
-280
-280
-281
-280
-281
-281
-281
-282
-282
-282
-282
-282
-282
-283
-284
-284
-286
-286
-287
-288
-288
-290
-290
-292
-293
-295
-296
-297
-297
-299
-300
-300
-301
-302
-302
-303
-303
-303
-303
-304
-303
-304
-303
-303
-303
-303
-304
-304
-303
-303
-303
-303
-303
-303
-303
-303
-303
-303
-303
-302
-302
-302
-302
-302
-303
-302
-303
-303
-302
-303
-302
-302
-302
-302
-302
-302
-301
-301
-301
-301
-301
-301
-301
-301
-301
-301
-301
-300
-300
-301
-301
-300
-300
-301
-300
-301
-301
-301
-301
-301
-302
-302
-302
-302
-303
-303
-303
-304
-305
-305
-305
-305
-306
-306
-305
-305
-303
-303
-301
-300
-298
-296
-294
-291
-288
-285
-281
-277
-274
-269
-264
-260
-255
-250
-245
-240
-235
-230
-226
-222
-219
-216
-213
-212
-211
-211
-212
-215
-218
-221
-227
-231
-237
-244
-252
-260
-269
-278
-288
-298
-309
-320
-330
-341
-351
-362
-372
-382
-393
-403
-412
-421
-430
-437
-445
-452
-458
-464
-468
-472
-474
-475
-477
-477
-476
-474
-472
-468
-464
-459
-453
-447
-440
-433
-424
-416
-409
-400
-392
-385
-377
-369
-362
-355
-348
-342
-336
-331
-326
-321
-316
-312
-309
-306
-304
-300
-298
-297
-295
-294
-293
-292
-291
-291
-291
-290
-290
-289
-290
-289
-290
-289
-288
-289
-288
-288
-288
-287
-288
-288
-287
-287
-287
-288
-288
-288
-288
-289
-289
-289
-290
-290
-290
-290
-290
-290
-290
-290
-290
-290
-290
-291
-290
-291
-291
-291
-292
-292
-291
-292
-291
-291
-292
-291
-290
-290
-290
-290
-290
-290
-289
-289
-289
-289
-289
-287
-287
-287
-287
-287
-287
-287
-287
-287
-287
-286
-287
-287
-287
-286
-286
-286
-285
-285
-285
-285
-284
-284
-284
-282
-282
-282
-281
-282
-282
-282
-282
-282
-282
-281
-280
-281
-281
-280
-280
-281
-281
-280
-281
-281
-281
-280
-280
-279
-279
-279
-278
-278
-278
-277
-277
-276
-276
-276
-275
-275
-274
-274
-274
-274
-273
-273
-273
-272
-271
-271
-271
-270
-270
-269
-270
-270
-269
-269
-270
-270
-270
-269
-270
-269
-270
-269
-270
-269
-270
-270
-269
-270
-269
-268
-269
-268
-269
-268
-268
-268
-268
-268
-267
-267
-267
-267
-267
-266
-266
-266
-264
-264
-264
-262
-261
-261
-260
-259
-258
-257
-256
-256
-255
-253
-253
-253
-252
-251
-251
-251
-251
-251
-251
-251
-250
-251
-252
-252
-252
-253
-252
-253
-253
-254
-254
-254
-254
-254
-254
-254
-253
-253
-253
-253
-252
-252
-252
-252
-252
-252
-251
-252
-252
-252
-252
-251
-252
-251
-251
-251
-251
-250
-251
-251
-251
-251
-251
-252
-251
-251
-252
-253
-253
-254
-254
-255
-255
-256
-256
-256
-257
-257
-258
-259
-259
-259
-261
-261
-262
-262
-263
-264
-265
-266
-266
-267
-267
-268
-269
-269
-271
-271
-272
-272
-273
-275
-275
-276
-277
-278
-279
-280
-281
-281
-282
-283
-283
-284
-284
-285
-285
-286
-287
-287
-287
-288
-288
-289
-290
-291
-291
-292
-292
-293
-294
-294
-295
-296
-296
-297
-297
-299
-299
-299
-300
-301
-301
-301
-302
-303
-302
-303
-303
-303
-303
-303
-303
-303
-303
-303
-304
-303
-304
-304
-304
-305
-304
-304
-303
-304
-304
-304
-304
-304
-304
-304
-305
-305
-305
-306
-305
-305
-306
-306
-306
-306
-306
-307
-306
-307
-307
-307
-307
-307
-307
-307
-307
-307
-307
-308
-308
-307
-307
-307
-306
-307
-306
-307
-306
-307
-307
-307
-307
-306
-306
-306
-306
-306
-305
-305
-305
-305
-304
-305
-304
-304
-304
-304
-304
-305
-305
-304
-305
-305
-305
-305
-305
-305
-305
-305
-306
-306
-305
-306
-305
-304
-305
-305
-304
-304
-303
-303
-303
-303
-303
-302
-302
-301
-301
-301
-300
-300
-300
-300
-299
-300
-300
-299
-299
-299
-300
-300
-299
-300
-300
-300
-300
-300
-300
-300
-300
-299
-299
-298
-299
-299
-299
-298
-298
-298
-298
-298
-298
-298
-298
-297
-297
-297
-298
-298
-297
-297
-298
-298
-298
-298
-297
-298
-298
-298
-298
-298
-298
-298
-298
-297
-298
-297
-297
-296
-297
-297
-296
-296
-295
-295
-295
-295
-295
-295
-296
-296
-296
-296
-297
-297
-298
-299
-299
-299
-300
-300
-301
-301
-302
-302
-303
-303
-304
-304
-303
-304
-303
-303
-304
-303
-303
-303
-302
-301
-302
-301
-300
-301
-300
-300
-300
-300
-299
-299
-299
-299
-299
-299
-299
-298
-299
-299
-299
-299
-298
-298
-299
-298
-299
-299
-300
-300
-299
-299
-299
-300
-300
-299
-299
-300
-299
-299
-299
-299
-299
-299
-299
-298
-298
-298
-298
-298
-298
-299
-300
-301
-301
-301
-301
-302
-302
-303
-303
-303
-303
-303
-304
-304
-304
-304
-304
-304
-304
-303
-303
-303
-302
-301
-301
-300
-300
-299
-299
-298
-297
-298
-297
-296
-297
-296
-297
-296
-297
-297
-297
-297
-299
-299
-299
-300
-300
-300
-301
-301
-301
-302
-301
-302
-302
-302
-302
-301
-301
-301
-301
-301
-300
-300
-301
-301
-300
-300
-299
-299
-299
-299
-298
-298
-297
-298
-298
-297
-298
-298
-298
-299
-299
-299
-299
-299
-299
-299
-299
-298
-298
-298
-298
-298
-298
-298
-299
-299
-299
-298
-299
-298
-298
-297
-298
-297
-297
-296
-296
-295
-295
-293
-292
-292
-291
-289
-288
-288
-286
-285
-284
-284
-282
-282
-282
-281
-281
-280
-279
-279
-279
-279
-278
-279
-279
-279
-280
-281
-280
-281
-282
-283
-283
-284
-284
-285
-286
-286
-287
-288
-288
-290
-290
-291
-292
-293
-294
-295
-295
-296
-298
-298
-299
-300
-301
-301
-302
-303
-303
-304
-304
-303
-303
-302
-302
-302
-302
-301
-301
-300
-300
-300
-300
-300
-300
-299
-299
-299
-298
-299
-299
-299
-299
-300
-301
-300
-301
-302
-301
-302
-302
-302
-302
-302
-301
-301
-301
-301
-301
-301
-300
-300
-300
-299
-299
-299
-299
-299
-299
-300
-300
-300
-301
-301
-301
-302
-302
-301
-302
-302
-302
-302
-303
-303
-303
-303
-304
-304
-304
-305
-304
-304
-304
-304
-304
-304
-304
-303
-303
-302
-302
-300
-300
-298
-297
-296
-294
-292
-290
-287
-285
-282
-279
-278
-275
-271
-267
-263
-260
-256
-251
-247
-243
-238
-234
-229
-225
-222
-219
-216
-214
-213
-213
-213
-214
-215
-218
-221
-225
-229
-234
-240
-247
-254
-263
-271
-279
-289
-298
-308
-318
-328
-338
-348
-358
-368
-376
-386
-395
-403
-411
-418
-426
-433
-438
-444
-449
-452
-456
-458
-459
-460
-460
-458
-457
-454
-450
-445
-440
-435
-429
-422
-415
-408
-400
-393
-385
-377
-370
-363
-356
-349
-342
-336
-330
-325
-320
-315
-311
-307
-303
-300
-297
-295
-293
-292
-291
-290
-289
-289
-289
-289
-289
-289
-289
-288
-288
-288
-288
-288
-288
-289
-288
-288
-289
-288
-288
-288
-288
-288
-288
-287
-287
-287
-286
-285
-285
-285
-284
-284
-284
-283
-283
-282
-282
-281
-281
-281
-281
-282
-282
-282
-282
-282
-282
-282
-283
-283
-284
-283
-284
-284
-284
-284
-284
-285
-285
-285
-285
-285
-285
-285
-285
-285
-284
-284
-284
-284
-283
-283
-284
-283
-283
-283
-283
-282
-282
-282
-282
-281
-282
-281
-281
-281
-281
-280
-280
-280
-279
-280
-279
-279
-279
-279
-280
-280
-279
-279
-279
-278
-278
-278
-278
-277
-276
-276
-275
-274
-274
-273
-272
-271
-270
-270
-269
-268
-268
-267
-267
-267
-266
-266
-266
-266
-266
-267
-267
-268
-267
-267
-268
-269
-269
-268
-269
-269
-269
-269
-269
-269
-270
-269
-269
-268
-268
-268
-268
-268
-267
-267
-266
-266
-266
-265
-264
-264
-264
-263
-263
-263
-263
-263
-263
-263
-263
-263
-263
-263
-263
-263
-263
-263
-262
-263
-262
-261
-261
-260
-260
-259
-259
-259
-258
-258
-257
-257
-257
-256
-256
-255
-254
-254
-254
-254
-254
-254
-254
-254
-254
-254
-255
-255
-256
-256
-256
-256
-255
-255
-255
-255
-255
-255
-254
-254
-254
-253
-253
-252
-251
-252
-250
-250
-250
-250
-249
-249
-249
-248
-248
-248
-247
-247
-247
-247
-247
-247
-248
-247
-248
-249
-249
-250
-251
-251
-251
-252
-252
-252
-252
-253
-253
-253
-253
-254
-253
-253
-254
-254
-254
-254
-255
-255
-255
-256
-255
-255
-256
-256
-256
-256
-256
-257
-257
-257
-258
-257
-258
-258
-259
-259
-260
-260
-261
-261
-262
-262
-264
-264
-264
-266
-266
-266
-268
-269
-269
-270
-271
-271
-272
-274
-274
-274
-276
-276
-277
-277
-277
-278
-279
-279
-279
-280
-280
-280
-280
-280
-281
-281
-281
-282
-282
-281
-282
-282
-281
-282
-282
-281
-282
-281
-282
-282
-282
-282
-282
-281
-281
-281
-281
-282
-282
-283
-283
-283
-283
-284
-284
-284
-285
-285
-285
-285
-287
-287
-288
-288
-289
-289
-289
-290
-289
-290
-290
-289
-290
-290
-290
-290
-288
-288
-288
-287
-287
-286
-285
-285
-284
-284
-283
-283
-283
-283
-283
-283
-284
-284
-283
-283
-284
-284
-285
-285
-285
-286
-286
-287
-288
-288
-288
-288
-289
-288
-288
-288
-288
-288
-287
-287
-287
-286
-286
-285
-284
-284
-284
-284
-283
-283
-283
-283
-284
-285
-285
-285
-286
-286
-286
-287
-287
-287
-287
-288
-287
-287
-288
-288
-287
-288
-287
-286
-286
-287
-286
-285
-285
-285
-284
-284
-284
-284
-283
-283
-283
-281
-281
-281
-281
-281
-281
-281
-281
-281
-281
-281
-281
-281
-281
-281
-281
-282
-282
-282
-282
-282
-282
-283
-283
-284
-284
-284
-285
-285
-286
-286
-287
-287
-286
-287
-287
-287
-286
-286
-286
-286
-286
-287
-286
-286
-285
-284
-285
-284
-283
-284
-283
-283
-283
-283
-282
-283
-283
-283
-283
-283
-283
-284
-285
-285
-286
-287
-287
-288
-288
-289
-290
-290
-291
-291
-291
-291
-292
-292
-292
-292
-292
-292
-292
-292
-291
-291
-291
-291
-290
-290
-289
-289
-289
-289
-289
-288
-288
-288
-287
-287
-287
-287
-287
-287
-288
-287
-288
-288
-288
-288
-289
-289
-290
-290
-290
-290
-290
-291
-290
-291
-291
-291
-292
-292
-293
-293
-293
-293
-293
-293
-294
-294
-294
-294
-294
-293
-294
-294
-293
-293
-293
-293
-294
-293
-294
-294
-293
-293
-293
-293
-293
-292
-292
-293
-292
-292
-293
-292
-293
-293
-293
-292
-292
-293
-293
-293
-293
-294
-293
-293
-294
-293
-293
-293
-292
-292
-292
-290
-290
-290
-289
-289
-289
-289
-289
-289
-289
-289
-289
-289
-290
-290
-289
-289
-289
-289
-289
-289
-288
-288
-287
-287
-286
-285
-285
-284
-284
-283
-282
-282
-281
-280
-279
-279
-279
-278
-278
-279
-279
-278
-278
-279
-279
-280
-281
-281
-282
-283
-283
-284
-283
-284
-285
-285
-286
-286
-286
-287
-288
-288
-288
-288
-289
-290
-290
-290
-291
-291
-292
-292
-293
-294
-294
-295
-295
-296
-297
-297
-297
-297
-297
-298
-298
-298
-299
-299
-299
-300
-300
-299
-300
-300
-300
-299
-299
-298
-297
-297
-297
-297
-296
-296
-295
-295
-294
-294
-294
-294
-293
-293
-292
-293
-292
-292
-292
-292
-292
-292
-291
-291
-291
-291
-292
-291
-292
-292
-293
-293
-293
-294
-295
-295
-295
-295
-295
-295
-295
-295
-295
-296
-295
-294
-295
-295
-294
-294
-294
-294
-295
-295
-295
-295
-295
-294
-294
-294
-294
-294
-294
-294
-293
-294
-293
-293
-292
-291
-289
-288
-286
-284
-281
-278
-275
-272
-269
-266
-261
-258
-253
-249
-244
-239
-234
-229
-225
-220
-217
-212
-210
-208
-205
-204
-204
-205
-206
-208
-210
-214
-218
-224
-228
-234
-242
-249
-257
-266
-274
-284
-293
-302
-311
-321
-331
-341
-351
-360
-369
-378
-387
-396
-404
-412
-418
-426
-432
-436
-441
-445
-448
-450
-451
-451
-450
-448
-445
-441
-438
-432
-426
-421
-414
-408
-400
-393
-386
-378
-371
-364
-357
-351
-344
-339
-332
-327
-321
-316
-312
-307
-304
-301
-298
-295
-293
-291
-289
-287
-286
-286
-284
-284
-284
-283
-283
-283
-283
-282
-283
-282
-282
-282
-282
-283
-282
-282
-283
-282
-283
-283
-283
-282
-282
-282
-282
-281
-281
-281
-281
-279
-279
-278
-278
-278
-278
-277
-276
-276
-276
-276
-276
-275
-276
-276
-276
-276
-276
-276
-276
-275
-276
-276
-275
-276
-276
-276
-276
-275
-276
-276
-276
-275
-275
-275
-274
-274
-273
-273
-272
-272
-272
-271
-271
-271
-270
-270
-270
-270
-269
-269
-270
-270
-269
-269
-269
-270
-269
-269
-270
-270
-270
-271
-271
-270
-270
-270
-269
-269
-269
-269
-268
-268
-268
-268
-267
-267
-266
-267
-265
-266
-264
-265
-264
-264
-264
-264
-264
-263
-264
-264
-263
-263
-264
-263
-263
-263
-263
-262
-262
-262
-261
-261
-260
-260
-260
-260
-260
-259
-259
-259
-258
-258
-259
-257
-257
-257
-258
-258
-257
-257
-258
-257
-257
-257
-256
-256
-256
-256
-256
-256
-256
-255
-255
-254
-253
-253
-253
-251
-252
-250
-250
-249
-248
-248
-247
-247
-247
-246
-246
-246
-246
-246
-245
-245
-244
-244
-244
-244
-243
-242
-241
-241
-240
-240
-239
-239
-239
-237
-237
-237
-236
-236
-235
-236
-235
-235
-234
-235
-234
-234
-234
-235
-235
-235
-236
-236
-236
-236
-236
-236
-237
-237
-237
-237
-237
-238
-238
-238
-238
-237
-238
-238
-238
-237
-237
-238
-237
-238
-237
-238
-238
-238
-238
-238
-238
-238
-237
-236
-236
-236
-235
-236
-236
-236
-237
-237
-238
-238
-239
-239
-240
-240
-240
-241
-241
-242
-243
-243
-244
-244
-245
-244
-244
-245
-245
-245
-245
-245
-246
-246
-246
-247
-248
-248
-250
-251
-251
-253
-254
-255
-256
-257
-258
-260
-261
-263
-264
-264
-266
-266
-267
-267
-268
-268
-268
-269
-268
-268
-268
-268
-268
-268
-269
-269
-270
-270
-270
-271
-272
-273
-273
-274
-274
-275
-276
-276
-278
-278
-279
-279
-281
-281
-282
-282
-283
-283
-283
-284
-284
-285
-285
-285
-285
-285
-285
-285
-285
-285
-285
-285
-284
-284
-284
-283
-283
-283
-283
-282
-282
-282
-281
-281
-280
-280
-280
-280
-280
-280
-279
-279
-279
-279
-280
-280
-280
-280
-281
-281
-282
-282
-283
-283
-284
-284
-284
-284
-284
-284
-285
-283
-284
-284
-284
-284
-283
-283
-281
-281
-280
-280
-280
-280
-280
-279
-279
-278
-278
-278
-278
-277
-277
-277
-277
-277
-277
-278
-277
-278
-278
-278
-278
-279
-279
-279
-279
-279
-279
-279
-279
-279
-279
-279
-279
-279
-279
-278
-278
-278
-277
-277
-276
-275
-275
-274
-273
-272
-272
-271
-271
-270
-269
-270
-269
-269
-269
-268
-269
-269
-269
-270
-271
-272
-273
-273
-275
-276
-277
-277
-278
-279
-280
-281
-281
-281
-281
-282
-282
-282
-283
-282
-282
-281
-282
-281
-281
-280
-280
-279
-279
-278
-278
-277
-277
-277
-276
-276
-276
-276
-276
-275
-275
-275
-275
-274
-274
-274
-275
-274
-274
-274
-274
-274
-274
-274
-274
-274
-273
-274
-274
-275
-274
-275
-275
-275
-275
-276
-276
-277
-277
-277
-277
-278
-278
-278
-280
-280
-280
-281
-281
-282
-282
-282
-283
-282
-283
-283
-282
-282
-282
-282
-282
-282
-281
-281
-280
-280
-279
-279
-278
-278
-278
-277
-277
-277
-277
-276
-277
-277
-277
-277
-277
-278
-277
-278
-278
-278
-278
-279
-279
-279
-280
-280
-280
-280
-280
-280
-280
-281
-280
-280
-280
-281
-281
-281
-281
-281
-282
-282
-282
-283
-283
-283
-284
-283
-283
-283
-284
-284
-284
-284
-283
-284
-284
-283
-283
-284
-284
-284
-284
-284
-283
-284
-283
-283
-283
-282
-283
-283
-282
-282
-282
-281
-281
-280
-280
-281
-280
-280
-280
-280
-281
-281
-281
-281
-282
-282
-281
-282
-282
-281
-282
-282
-282
-282
-282
-283
-283
-283
-283
-282
-282
-282
-282
-281
-281
-280
-279
-279
-278
-278
-277
-275
-275
-275
-273
-273
-272
-272
-270
-269
-269
-268
-268
-267
-268
-267
-268
-267
-267
-267
-268
-267
-268
-268
-269
-269
-270
-270
-271
-272
-272
-274
-274
-275
-276
-275
-276
-277
-277
-278
-277
-278
-279
-279
-280
-279
-280
-281
-282
-282
-283
-283
-284
-285
-285
-285
-286
-286
-287
-288
-288
-288
-289
-290
-290
-291
-291
-291
-291
-291
-291
-291
-291
-291
-291
-291
-291
-290
-290
-289
-289
-289
-288
-288
-287
-287
-287
-287
-287
-287
-287
-287
-287
-287
-287
-288
-288
-289
-288
-289
-290
-290
-290
-291
-291
-290
-291
-291
-292
-292
-292
-291
-292
-292
-292
-291
-291
-291
-291
-292
-291
-291
-291
-291
-291
-291
-290
-290
-290
-289
-288
-288
-287
-286
-286
-285
-284
-283
-282
-282
-281
-280
-281
-280
-279
-278
-277
-276
-275
-274
-272
-269
-267
-265
-262
-260
-256
-252
-248
-243
-239
-234
-229
-223
-219
-214
-209
-205
-201
-199
-197
-197
-197
-198
-199
-202
-205
-209
-213
-220
-226
-234
-242
-250
-260
-270
-280
-290
-301
-311
-322
-332
-343
-352
-363
-373
-383
-392
-402
-411
-419
-426
-433
-439
-446
-450
-454
-457
-459
-460
-460
-458
-456
-453
-449
-443
-438
-431
-424
-416
-407
-399
-391
-381
-372
-364
-356
-347
-340
-331
-324
-318
-312
-306
-300
-296
-292
-289
-285
-282
-281
-279
-278
-276
-276
-275
-275
-274
-274
-274
-274
-274
-274
-274
-274
-273
-273
-273
-272
-272
-272
-271
-270
-271
-270
-270
-270
-270
-269
-269
-269
-269
-269
-269
-270
-270
-270
-270
-270
-270
-270
-270
-270
-270
-271
-270
-270
-270
-270
-270
-268
-268
-268
-267
-267
-267
-266
-265
-264
-263
-263
-262
-260
-260
-260
-259
-258
-258
-258
-258
-258
-258
-258
-259
-259
-259
-259
-259
-260
-260
-261
-261
-262
-261
-261
-262
-262
-263
-262
-262
-262
-262
-262
-262
-261
-262
-261
-262
-261
-260
-261
-261
-260
-260
-260
-260
-260
-259
-259
-259
-258
-259
-258
-257
-257
-256
-256
-255
-254
-254
-254
-253
-252
-252
-251
-251
-251
-251
-251
-251
-251
-251
-251
-251
-251
-251
-252
-252
-252
-251
-251
-252
-251
-251
-251
-250
-250
-250
-249
-249
-249
-249
-249
-248
-248
-247
-247
-247
-247
-247
-247
-246
-246
-246
-247
-246
-245
-245
-246
-246
-245
-246
-244
-244
-244
-243
-242
-241
-241
-240
-239
-239
-238
-238
-237
-238
-237
-236
-236
-236
-235
-235
-235
-234
-234
-234
-234
-233
-232
-232
-232
-231
-231
-230
-229
-230
-229
-229
-228
-228
-228
-228
-227
-227
-226
-227
-227
-227
-226
-226
-226
-226
-226
-226
-226
-225
-224
-224
-225
-224
-224
-224
-223
-224
-223
-223
-223
-222
-222
-223
-222
-223
-222
-223
-223
-224
-224
-224
-225
-226
-226
-227
-227
-228
-228
-229
-230
-230
-230
-231
-231
-232
-232
-233
-234
-234
-235
-235
-236
-236
-237
-238
-239
-239
-240
-240
-241
-241
-241
-241
-242
-242
-243
-243
-242
-243
-243
-243
-244
-245
-245
-245
-246
-247
-247
-248
-249
-249
-251
-252
-253
-254
-256
-257
-258
-260
-260
-261
-263
-264
-264
-265
-266
-267
-267
-268
-268
-269
-270
-270
-270
-270
-270
-269
-270
-271
-271
-271
-272
-272
-272
-273
-273
-274
-274
-275
-275
-275
-275
-275
-276
-277
-277
-277
-278
-278
-277
-278
-278
-279
-279
-279
-279
-279
-280
-280
-280
-280
-281
-280
-281
-281
-282
-281
-282
-282
-283
-283
-283
-284
-284
-283
-283
-283
-283
-283
-283
-282
-282
-282
-282
-281
-281
-281
-281
-280
-281
-280
-280
-280
-279
-280
-279
-280
-280
-280
-280
-280
-281
-281
-281
-281
-281
-282
-282
-282
-282
-283
-283
-283
-283
-283
-282
-282
-283
-283
-283
-283
-283
-282
-282
-282
-282
-281
-282
-282
-282
-282
-282
-282
-283
-282
-283
-282
-283
-282
-283
-283
-283
-283
-283
-283
-282
-282
-282
-282
-282
-281
-281
-281
-281
-281
-281
-281
-280
-280
-280
-280
-280
-280
-281
-280
-280
-280
-280
-281
-281
-282
-282
-282
-284
-283
-284
-284
-284
-285
-284
-285
-285
-285
-285
-285
-285
-285
-284
-284
-284
-283
-284
-283
-283
-283
-282
-282
-282
-281
-281
-281
-281
-280
-279
-280
-279
-279
-279
-279
-279
-279
-280
-280
-280
-280
-280
-280
-281
-281
-281
-281
-282
-282
-282
-282
-283
-281
-281
-282
-282
-281
-282
-282
-281
-280
-280
-280
-279
-279
-279
-278
-278
-277
-277
-277
-277
-277
-277
-277
-278
-278
-278
-278
-280
-280
-280
-281
-281
-282
-282
-282
-282
-282
-283
-283
-283
-284
-284
-284
-283
-283
-283
-283
-283
-283
-282
-282
-281
-281
-281
-281
-280
-280
-280
-279
-279
-279
-279
-279
-279
-279
-279
-280
-280
-281
-280
-281
-281
-282
-282
-282
-282
-283
-283
-283
-283
-283
-284
-284
-284
-283
-283
-283
-283
-283
-283
-283
-282
-283
-282
-282
-282
-281
-281
-281
-281
-281
-281
-281
-281
-281
-281
-281
-281
-282
-282
-283
-283
-282
-282
-282
-282
-282
-282
-282
-281
-281
-281
-281
-281
-281
-282
-281
-281
-282
-282
-282
-283
-283
-283
-283
-284
-284
-285
-285
-285
-285
-285
-286
-286
-285
-285
-285
-284
-284
-283
-284
-284
-283
-283
-283
-282
-282
-282
-282
-282
-281
-282
-282
-282
-283
-282
-283
-284
-284
-284
-284
-284
-284
-284
-283
-283
-282
-282
-281
-281
-281
-280
-280
-278
-277
-277
-275
-275
-274
-273
-273
-272
-271
-271
-269
-269
-268
-267
-267
-266
-266
-265
-265
-264
-264
-264
-264
-264
-263
-263
-263
-263
-264
-263
-264
-263
-264
-264
-264
-263
-263
-264
-265
-265
-266
-266
-267
-267
-268
-269
-270
-271
-271
-272
-273
-275
-275
-275
-277
-277
-278
-279
-280
-281
-282
-283
-284
-284
-284
-285
-285
-286
-285
-286
-286
-287
-286
-287
-288
-288
-288
-288
-289
-288
-288
-289
-288
-289
-289
-288
-289
-289
-289
-288
-288
-289
-288
-288
-288
-287
-287
-286
-286
-285
-285
-284
-284
-283
-283
-282
-282
-281
-281
-280
-280
-280
-280
-280
-279
-279
-280
-280
-280
-281
-282
-282
-283
-283
-284
-285
-285
-285
-286
-286
-287
-287
-287
-287
-287
-287
-287
-287
-287
-287
-286
-287
-286
-286
-286
-286
-286
-286
-284
-284
-284
-283
-282
-281
-280
-279
-278
-277
-275
-273
-271
-268
-266
-263
-260
-256
-253
-248
-244
-240
-235
-230
-226
-221
-216
-211
-206
-202
-200
-197
-194
-193
-193
-193
-195
-197
-201
-203
-208
-213
-219
-226
-234
-241
-251
-260
-270
-280
-290
-301
-311
-323
-333
-344
-354
-365
-375
-385
-394
-403
-411
-419
-426
-433
-440
-444
-449
-453
-456
-458
-458
-459
-457
-456
-453
-449
-444
-438
-432
-425
-418
-410
-402
-392
-384
-375
-367
-359
-350
-343
-335
-327
-321
-314
-307
-302
-297
-293
-289
-285
-283
-279
-278
-275
-274
-273
-272
-271
-270
-270
-269
-269
-269
-268
-268
-268
-268
-267
-267
-267
-266
-267
-267
-265
-266
-266
-265
-266
-265
-265
-265
-263
-263
-263
-263
-263
-263
-262
-262
-262
-261
-261
-261
-261
-260
-260
-259
-260
-259
-259
-259
-259
-259
-258
-258
-258
-258
-259
-258
-258
-258
-258
-258
-257
-258
-258
-258
-257
-258
-258
-258
-258
-259
-259
-259
-259
-259
-259
-259
-258
-258
-258
-259
-258
-258
-258
-257
-258
-258
-257
-258
-257
-257
-256
-256
-256
-256
-255
-254
-255
-254
-253
-253
-252
-253
-253
-253
-252
-252
-253
-253
-254
-254
-255
-255
-255
-255
-255
-256
-256
-255
-255
-255
-255
-254
-254
-254
-252
-252
-251
-251
-251
-250
-249
-249
-249
-249
-248
-248
-247
-247
-246
-246
-245
-245
-245
-244
-243
-243
-243
-243
-243
-242
-241
-241
-240
-240
-239
-239
-239
-239
-238
-238
-237
-238
-237
-236
-237
-236
-236
-236
-236
-235
-235
-234
-233
-233
-233
-232
-232
-231
-231
-230
-229
-229
-228
-227
-227
-227
-227
-227
-227
-227
-227
-226
-226
-226
-226
-226
-226
-225
-225
-225
-224
-224
-223
-223
-222
-222
-221
-220
-220
-220
-219
-219
-218
-218
-218
-218
-218
-217
-218
-218
-218
-218
-218
-219
-219
-220
-220
-221
-221
-222
-222
-223
-222
-223
-222
-222
-223
-222
-223
-222
-222
-222
-221
-221
-222
-222
-221
-221
-221
-221
-220
-220
-221
-220
-220
-219
-220
-219
-219
-219
-220
-220
-220
-220
-220
-220
-221
-221
-222
-222
-223
-224
-225
-225
-226
-227
-227
-228
-229
-230
-230
-231
-232
-232
-233
-234
-235
-236
-237
-238
-237
-238
-238
-239
-239
-239
-238
-239
-238
-239
-239
-239
-239
-240
-240
-241
-241
-242
-243
-243
-244
-245
-246
-247
-248
-249
-251
-251
-252
-253
-254
-255
-255
-256
-256
-256
-256
-256
-256
-257
-257
-257
-257
-257
-257
-256
-256
-256
-256
-255
-256
-256
-257
-257
-258
-258
-258
-258
-259
-259
-260
-260
-260
-261
-261
-261
-262
-261
-262
-262
-262
-261
-261
-261
-261
-261
-260
-260
-260
-259
-259
-259
-258
-258
-257
-256
-256
-255
-255
-255
-255
-254
-254
-254
-254
-255
-255
-256
-256
-256
-256
-257
-256
-257
-257
-257
-258
-258
-258
-257
-258
-258
-258
-258
-258
-258
-258
-258
-258
-259
-258
-258
-258
-257
-257
-257
-256
-256
-255
-255
-254
-253
-252
-252
-251
-251
-252
-251
-251
-251
-251
-252
-252
-252
-253
-253
-254
-254
-255
-255
-255
-256
-257
-257
-257
-257
-257
-257
-257
-257
-257
-257
-258
-256
-256
-256
-256
-256
-255
-255
-255
-255
-254
-254
-253
-253
-253
-252
-252
-252
-250
-250
-250
-248
-248
-248
-248
-247
-246
-246
-245
-245
-244
-244
-244
-243
-244
-243
-243
-244
-243
-244
-244
-244
-245
-245
-245
-246
-246
-247
-246
-247
-248
-248
-248
-249
-250
-251
-251
-251
-252
-252
-252
-252
-252
-253
-253
-253
-253
-253
-252
-252
-252
-251
-251
-250
-250
-249
-249
-249
-249
-249
-248
-249
-249
-248
-248
-249
-249
-249
-250
-250
-251
-251
-252
-252
-253
-253
-254
-254
-255
-256
-256
-257
-257
-257
-258
-258
-257
-256
-257
-256
-257
-257
-256
-256
-257
-256
-256
-256
-256
-256
-256
-256
-256
-255
-256
-256
-256
-256
-255
-255
-255
-255
-255
-256
-256
-256
-255
-256
-256
-255
-256
-257
-256
-257
-256
-257
-256
-257
-257
-256
-257
-257
-257
-256
-257
-256
-256
-256
-256
-256
-256
-255
-255
-254
-254
-254
-254
-254
-254
-254
-254
-254
-254
-254
-255
-255
-255
-257
-257
-257
-257
-258
-258
-258
-258
-258
-258
-258
-258
-257
-257
-258
-258
-257
-257
-257
-257
-256
-257
-256
-256
-256
-255
-255
-256
-256
-256
-255
-256
-256
-256
-256
-256
-256
-256
-257
-257
-257
-256
-256
-256
-257
-256
-255
-255
-254
-254
-253
-253
-251
-251
-250
-249
-249
-249
-248
-248
-249
-249
-248
-249
-249
-249
-250
-250
-251
-252
-252
-253
-253
-253
-254
-254
-255
-255
-256
-256
-255
-256
-256
-255
-255
-254
-253
-253
-252
-251
-250
-250
-249
-248
-246
-246
-244
-243
-242
-241
-240
-238
-237
-237
-236
-236
-235
-234
-233
-234
-233
-232
-232
-232
-232
-233
-233
-233
-234
-234
-235
-234
-236
-235
-236
-236
-237
-238
-238
-238
-239
-239
-240
-241
-242
-243
-243
-245
-245
-246
-247
-248
-249
-249
-250
-251
-251
-252
-252
-253
-252
-252
-252
-252
-252
-252
-252
-251
-252
-252
-252
-252
-252
-252
-252
-252
-252
-252
-252
-253
-253
-254
-254
-255
-256
-256
-256
-257
-257
-256
-256
-256
-256
-255
-255
-256
-255
-255
-255
-254
-254
-253
-253
-252
-252
-252
-252
-251
-251
-251
-252
-251
-252
-252
-252
-252
-252
-252
-252
-252
-252
-253
-253
-254
-254
-253
-254
-254
-255
-256
-256
-256
-256
-256
-256
-257
-257
-257
-256
-255
-255
-255
-254
-253
-252
-252
-251
-250
-248
-247
-246
-244
-243
-241
-238
-237
-233
-231
-229
-225
-223
-220
-216
-213
-210
-205
-202
-199
-195
-191
-188
-185
-181
-179
-176
-174
-172
-172
-172
-173
-175
-177
-179
-183
-187
-191
-196
-202
-208
-216
-223
-231
-240
-248
-256
-266
-274
-284
-294
-303
-312
-321
-329
-339
-347
-355
-363
-372
-378
-384
-391
-396
-400
-404
-407
-408
-409
-409
-409
-407
-404
-400
-396
-391
-385
-379
-372
-365
-358
-351
-342
-335
-328
-321
-313
-307
-301
-295
-289
-284
-278
-273
-269
-266
-261
-259
-256
-253
-252
-250
-249
-248
-246
-246
-246
-246
-246
-246
-245
-245
-246
-245
-245
-246
-246
-246
-246
-247
-248
-248
-248
-249
-248
-248
-247
-248
-247
-247
-247
-247
-247
-247
-246
-245
-245
-244
-244
-244
-243
-242
-242
-242
-242
-241
-242
-242
-242
-243
-242
-242
-243
-243
-242
-242
-242
-242
-242
-242
-242
-242
-242
-242
-241
-241
-241
-240
-239
-238
-237
-237
-236
-236
-236
-235
-235
-235
-235
-236
-236
-237
-236
-237
-236
-237
-237
-237
-237
-236
-236
-235
-235
-235
-234
-234
-234
-234
-233
-234
-233
-233
-234
-233
-233
-234
-233
-233
-234
-234
-235
-235
-234
-234
-233
-233
-234
-233
-233
-232
-232
-232
-231
-230
-230
-230
-229
-229
-228
-228
-228
-228
-226
-227
-227
-226
-225
-226
-226
-225
-225
-226
-226
-225
-225
-225
-225
-225
-224
-224
-224
-225
-223
-224
-223
-223
-222
-222
-221
-221
-221
-221
-221
-220
-220
-219
-218
-218
-217
-216
-216
-216
-216
-216
-216
-215
-215
-215
-215
-216
-216
-216
-216
-216
-216
-216
-216
-216
-216
-215
-215
-214
-213
-213
-211
-210
-210
-208
-208
-208
-207
-207
-207
-206
-206
-206
-205
-204
-205
-204
-204
-205
-205
-206
-206
-206
-207
-207
-206
-206
-206
-206
-207
-207
-207
-207
-207
-207
-206
-206
-206
-206
-205
-205
-205
-205
-204
-205
-205
-204
-205
-205
-205
-205
-205
-205
-206
-207
-206
-207
-207
-207
-208
-209
-209
-210
-210
-210
-211
-211
-212
-212
-213
-213
-213
-214
-214
-214
-214
-215
-215
-215
-215
-215
-215
-216
-215
-216
-216
-216
-216
-216
-216
-216
-217
-217
-217
-216
-216
-216
-217
-216
-217
-217
-217
-217
-218
-219
-219
-220
-221
-222
-223
-224
-224
-225
-226
-225
-226
-226
-227
-228
-228
-228
-229
-229
-229
-230
-230
-231
-231
-231
-232
-233
-233
-233
-234
-235
-236
-236
-237
-237
-237
-238
-238
-238
-238
-238
-239
-238
-238
-238
-237
-237
-238
-237
-237
-236
-236
-235
-235
-234
-234
-234
-233
-233
-233
-233
-233
-233
-234
-234
-235
-235
-235
-236
-236
-237
-237
-238
-239
-239
-240
-241
-242
-243
-243
-244
-244
-246
-246
-246
-247
-247
-247
-248
-248
-248
-248
-248
-247
-247
-246
-246
-245
-245
-244
-244
-244
-244
-244
-244
-244
-243
-244
-245
-245
-245
-245
-245
-245
-245
-245
-245
-245
-246
-245
-246
-245
-245
-245
-245
-244
-245
-244
-243
-244
-243
-242
-242
-242
-243
-242
-242
-243
-242
-242
-242
-243
-242
-242
-243
-243
-243
-243
-243
-242
-242
-242
-242
-242
-241
-241
-241
-240
-240
-240
-241
-241
-240
-241
-241
-241
-242
-242
-242
-242
-242
-243
-243
-243
-244
-245
-245
-244
-245
-245
-245
-245
-245
-245
-245
-245
-245
-245
-245
-245
-245
-245
-246
-246
-246
-246
-246
-246
-246
-246
-246
-246
-247
-247
-248
-248
-248
-249
-248
-249
-248
-249
-249
-250
-250
-250
-250
-250
-250
-250
-250
-250
-249
-249
-249
-248
-249
-249
-249
-249
-250
-250
-250
-250
-250
-251
-251
-251
-252
-252
-253
-254
-254
-255
-256
-257
-257
-258
-258
-259
-259
-259
-259
-260
-259
-260
-260
-260
-260
-260
-260
-259
-260
-259
-259
-258
-258
-258
-257
-257
-257
-257
-257
-257
-257
-256
-257
-256
-257
-258
-257
-257
-258
-258
-259
-260
-260
-260
-260
-261
-261
-261
-262
-262
-262
-262
-262
-261
-261
-261
-261
-261
-261
-261
-261
-261
-260
-261
-261
-261
-261
-261
-261
-261
-260
-260
-260
-260
-261
-260
-260
-260
-260
-260
-260
-260
-260
-260
-260
-260
-260
-260
-260
-261
-261
-261
-261
-261
-261
-262
-261
-261
-262
-261
-262
-261
-262
-261
-261
-262
-261
-262
-261
-262
-262
-261
-262
-262
-263
-263
-264
-264
-265
-266
-266
-266
-267
-268
-268
-269
-269
-269
-270
-270
-270
-270
-270
-270
-269
-269
-269
-268
-267
-267
-266
-266
-265
-264
-263
-262
-261
-261
-259
-258
-258
-256
-256
-255
-254
-253
-252
-251
-251
-250
-250
-250
-250
-249
-249
-249
-249
-249
-249
-249
-249
-250
-250
-250
-250
-251
-251
-252
-252
-252
-254
-254
-255
-256
-257
-258
-257
-259
-259
-260
-261
-261
-262
-262
-263
-264
-266
-266
-267
-267
-268
-269
-269
-269
-269
-270
-270
-270
-270
-270
-270
-271
-270
-269
-269
-269
-269
-269
-268
-268
-267
-267
-267
-267
-267
-266
-266
-265
-265
-265
-265
-264
-264
-263
-263
-262
-263
-262
-263
-262
-263
-263
-262
-263
-263
-264
-264
-264
-264
-264
-264
-264
-265
-265
-265
-265
-266
-265
-265
-266
-265
-266
-265
-266
-266
-265
-266
-265
-264
-264
-264
-264
-264
-264
-263
-263
-263
-263
-263
-263
-263
-262
-262
-262
-262
-262
-262
-261
-260
-259
-258
-256
-254
-253
-250
-247
-244
-241
-238
-235
-231
-227
-223
-218
-214
-211
-206
-201
-198
-193
-189
-185
-182
-179
-177
-176
-175
-176
-176
-179
-181
-184
-188
-192
-197
-203
-209
-216
-223
-231
-239
-248
-257
-266
-276
-285
-295
-305
-314
-324
-333
-343
-353
-361
-370
-378
-387
-394
-402
-408
-414
-419
-422
-425
-427
-428
-429
-428
-426
-422
-419
-414
-409
-402
-395
-387
-379
-371
-362
-354
-346
-338
-329
-321
-313
-305
-298
-291
-286
-280
-275
-271
-266
-263
-260
-258
-256
-254
-252
-250
-250
-248
-248
-247
-248
-247
-248
-248
-247
-247
-248
-248
-248
-248
-248
-249
-249
-249
-249
-249
-249
-249
-249
-249
-249
-249
-249
-249
-249
-249
-249
-249
-250
-250
-249
-250
-250
-250
-250
-249
-250
-250
-249
-250
-249
-249
-250
-249
-249
-249
-249
-249
-248
-247
-247
-247
-247
-247
-246
-245
-245
-244
-244
-243
-242
-242
-241
-240
-240
-239
-240
-239
-239
-239
-239
-238
-238
-237
-238
-237
-237
-237
-238
-237
-237
-238
-237
-237
-236
-237
-236
-236
-235
-235
-235
-235
-235
-233
-232
-232
-231
-231
-229
-229
-227
-227
-227
-226
-225
-224
-224
-223
-223
-224
-223
-223
-223
-223
-223
-222
-222
-222
-222
-222
-221
-222
-221
-222
-221
-222
-222
-222
-223
-222
-222
-222
-222
-222
-221
-221
-221
-220
-220
-220
-219
-218
-217
-218
-216
-216
-216
-215
-215
-216
-216
-216
-215
-215
-214
-215
-215
-214
-213
-214
-213
-213
-212
-212
-211
-211
-209
-209
-209
-209
-207
-207
-206
-205
-204
-204
-203
-203
-203
-202
-202
-202
-201
-200
-201
-200
-200
-200
-200
-199
-199
-199
-198
-197
-196
-196
-196
-195
-194
-194
-194
-194
-193
-193
-193
-193
-192
-193
-192
-193
-192
-193
-193
-193
-194
-193
-193
-194
-194
-194
-194
-194
-194
-194
-195
-195
-194
-194
-194
-195
-194
-194
-194
-193
-193
-193
-192
-192
-192
-192
-191
-191
-191
-191
-190
-191
-191
-192
-192
-193
-193
-194
-195
-195
-197
-197
-197
-198
-199
-199
-201
-201
-202
-202
-202
-204
-205
-204
-205
-206
-207
-207
-208
-208
-208
-209
-209
-210
-210
-211
-212
-212
-212
-213
-213
-213
-214
-215
-216
-217
-216
-217
-219
-219
-220
-220
-221
-222
-222
-224
-224
-225
-226
-227
-228
-229
-230
-229
-231
-232
-232
-233
-234
-234
-235
-235
-236
-236
-235
-236
-236
-236
-237
-237
-237
-238
-238
-238
-238
-237
-239
-239
-239
-239
-238
-239
-239
-239
-239
-239
-239
-240
-240
-240
-240
-240
-240
-240
-240
-240
-241
-241
-241
-240
-240
-240
-240
-240
-241
-240
-240
-240
-240
-241
-240
-241
-242
-242
-242
-243
-244
-244
-245
-245
-244
-245
-245
-245
-245
-244
-244
-244
-244
-243
-244
-243
-243
-243
-242
-241
-241
-241
-241
-240
-240
-239
-240
-239
-239
-239
-240
-239
-240
-240
-240
-240
-240
-241
-240
-240
-241
-241
-241
