# Simple Text Format
# Sampling Rate (Hz):= 1200.00
# Resolution:= 12
# Labels:= ECG	 V1
# Age:=	41
# Gender:=	Feminino
-623
-624
-623
-624
-623
-623
-622
-623
-622
-622
-622
-623
-622
-622
-623
-623
-623
-623
-624
-624
-624
-624
-625
-624
-624
-624
-624
-623
-624
-624
-625
-625
-625
-625
-624
-624
-624
-625
-625
-624
-624
-624
-624
-624
-624
-625
-625
-626
-626
-626
-627
-627
-628
-627
-628
-628
-628
-628
-627
-626
-627
-626
-625
-624
-623
-622
-621
-620
-620
-619
-618
-618
-617
-617
-616
-617
-616
-616
-617
-616
-616
-617
-617
-616
-616
-617
-618
-618
-618
-618
-619
-619
-620
-620
-621
-620
-620
-620
-620
-620
-619
-619
-619
-618
-618
-618
-618
-618
-617
-617
-616
-617
-616
-617
-617
-617
-617
-617
-617
-617
-617
-618
-618
-617
-617
-617
-617
-617
-617
-618
-617
-618
-617
-618
-618
-618
-618
-618
-619
-619
-620
-620
-621
-622
-623
-623
-624
-624
-626
-627
-628
-629
-629
-630
-630
-631
-631
-631
-632
-632
-633
-633
-633
-632
-632
-633
-633
-634
-633
-634
-635
-635
-636
-636
-636
-636
-637
-637
-637
-638
-638
-638
-638
-638
-638
-638
-638
-638
-638
-639
-638
-638
-638
-638
-638
-638
-638
-639
-639
-638
-638
-638
-638
-639
-639
-638
-639
-637
-637
-637
-637
-636
-636
-635
-635
-635
-635
-634
-633
-633
-632
-631
-631
-631
-630
-630
-630
-630
-629
-630
-630
-631
-630
-630
-631
-631
-631
-631
-631
-630
-630
-629
-629
-628
-628
-627
-627
-626
-626
-625
-624
-625
-623
-624
-624
-623
-622
-622
-621
-621
-621
-620
-620
-620
-620
-619
-619
-618
-619
-618
-617
-617
-617
-616
-617
-616
-616
-616
-616
-615
-615
-615
-615
-616
-615
-615
-616
-615
-616
-616
-616
-616
-616
-616
-617
-617
-617
-617
-618
-617
-617
-617
-617
-616
-616
-616
-615
-615
-616
-616
-616
-615
-615
-616
-616
-616
-616
-616
-616
-616
-616
-616
-616
-616
-616
-616
-616
-616
-616
-617
-617
-618
-618
-619
-620
-621
-620
-622
-622
-622
-623
-623
-623
-623
-622
-622
-622
-622
-621
-621
-620
-618
-618
-617
-616
-614
-613
-611
-611
-609
-608
-607
-606
-606
-605
-604
-605
-605
-605
-605
-606
-607
-608
-609
-610
-611
-612
-613
-614
-614
-615
-616
-616
-616
-617
-617
-616
-616
-616
-615
-615
-614
-614
-614
-612
-612
-611
-610
-610
-609
-608
-607
-607
-606
-605
-605
-605
-605
-605
-605
-606
-606
-606
-607
-608
-607
-608
-609
-610
-610
-611
-612
-612
-613
-614
-614
-615
-615
-615
-615
-615
-615
-615
-615
-615
-614
-614
-614
-614
-613
-613
-612
-612
-612
-610
-610
-610
-609
-610
-610
-610
-610
-610
-611
-611
-611
-612
-611
-613
-612
-613
-613
-613
-613
-613
-613
-614
-614
-615
-615
-615
-615
-615
-615
-615
-616
-616
-616
-616
-615
-615
-615
-615
-615
-615
-614
-615
-614
-615
-615
-615
-616
-615
-615
-616
-616
-616
-616
-616
-616
-616
-616
-616
-616
-616
-616
-616
-616
-616
-616
-616
-616
-616
-616
-616
-616
-616
-616
-615
-616
-616
-616
-616
-617
-617
-616
-616
-617
-617
-617
-617
-618
-618
-620
-620
-620
-620
-620
-621
-621
-621
-621
-621
-621
-621
-620
-620
-619
-619
-618
-618
-618
-617
-617
-616
-615
-615
-615
-615
-614
-614
-614
-613
-613
-613
-613
-613
-613
-613
-614
-614
-615
-615
-615
-616
-616
-617
-617
-618
-618
-619
-619
-619
-620
-620
-621
-621
-621
-623
-623
-624
-624
-623
-624
-624
-623
-623
-622
-622
-622
-620
-620
-619
-618
-617
-618
-617
-616
-615
-615
-614
-614
-614
-614
-614
-614
-614
-614
-614
-614
-614
-613
-613
-613
-612
-612
-611
-611
-611
-611
-610
-609
-610
-610
-610
-610
-609
-610
-610
-610
-611
-610
-611
-612
-613
-614
-614
-615
-616
-616
-617
-618
-620
-620
-621
-622
-623
-623
-623
-624
-625
-625
-625
-625
-625
-625
-625
-626
-626
-626
-627
-628
-628
-629
-629
-629
-629
-629
-629
-629
-629
-629
-629
-629
-628
-628
-628
-627
-628
-626
-626
-626
-626
-625
-625
-625
-624
-624
-623
-623
-622
-622
-621
-621
-620
-619
-619
-618
-619
-619
-619
-619
-619
-619
-619
-619
-619
-619
-619
-619
-619
-619
-618
-618
-619
-619
-618
-618
-618
-617
-616
-616
-616
-616
-616
-615
-615
-615
-615
-615
-615
-615
-615
-615
-616
-617
-617
-618
-618
-618
-619
-620
-620
-620
-622
-622
-622
-623
-622
-621
-621
-620
-619
-618
-616
-614
-612
-610
-607
-605
-603
-599
-597
-595
-591
-588
-586
-584
-582
-580
-579
-578
-577
-578
-579
-580
-583
-586
-592
-596
-604
-611
-620
-629
-638
-647
-657
-667
-678
-688
-698
-707
-717
-725
-734
-740
-747
-752
-757
-760
-762
-764
-764
-764
-762
-760
-757
-754
-750
-746
-742
-737
-733
-727
-723
-718
-714
-709
-706
-701
-697
-694
-691
-687
-684
-681
-677
-674
-671
-666
-663
-659
-656
-652
-648
-645
-642
-638
-635
-631
-628
-626
-624
-621
-620
-618
-616
-615
-613
-613
-611
-611
-611
-610
-610
-610
-609
-610
-609
-609
-610
-610
-610
-610
-610
-609
-610
-609
-608
-609
-609
-609
-608
-607
-608
-608
-607
-607
-607
-607
-607
-607
-607
-607
-607
-606
-606
-606
-606
-606
-606
-606
-607
-607
-606
-607
-607
-606
-607
-606
-607
-606
-607
-607
-608
-608
-608
-608
-607
-607
-607
-607
-606
-605
-604
-604
-603
-604
-603
-603
-604
-603
-604
-604
-604
-604
-605
-605
-606
-606
-607
-607
-609
-609
-609
-610
-610
-611
-611
-612
-611
-611
-611
-611
-610
-610
-610
-609
-609
-609
-608
-607
-607
-606
-606
-607
-606
-606
-607
-607
-607
-608
-608
-609
-608
-609
-609
-610
-609
-609
-610
-610
-610
-609
-609
-609
-609
-609
-608
-607
-608
-608
-608
-608
-608
-609
-609
-608
-609
-608
-609
-609
-610
-610
-610
-610
-609
-609
-609
-610
-609
-609
-610
-610
-610
-610
-610
-611
-610
-610
-610
-610
-610
-609
-609
-609
-609
-610
-610
-610
-610
-610
-611
-611
-611
-611
-611
-611
-611
-612
-613
-614
-614
-615
-615
-616
-616
-617
-617
-618
-618
-619
-620
-620
-621
-621
-622
-621
-622
-622
-622
-621
-621
-621
-621
-620
-620
-620
-620
-621
-621
-620
-621
-621
-622
-622
-622
-622
-623
-623
-624
-624
-625
-625
-626
-627
-627
-628
-629
-630
-630
-631
-632
-633
-633
-634
-634
-635
-635
-636
-636
-637
-638
-637
-637
-638
-638
-637
-638
-638
-638
-638
-638
-639
-639
-638
-638
-638
-638
-638
-638
-638
-637
-637
-636
-637
-637
-636
-636
-636
-635
-635
-635
-634
-634
-633
-633
-632
-631
-631
-630
-629
-629
-628
-627
-627
-626
-625
-625
-624
-624
-623
-623
-623
-624
-623
-624
-623
-623
-622
-623
-623
-622
-622
-621
-621
-621
-620
-620
-618
-618
-617
-618
-617
-617
-616
-615
-616
-616
-615
-615
-615
-615
-615
-614
-614
-615
-615
-616
-615
-616
-617
-617
-617
-618
-618
-619
-619
-618
-618
-618
-619
-619
-618
-619
-619
-619
-618
-619
-619
-619
-619
-620
-620
-620
-621
-621
-621
-620
-621
-621
-622
-621
-621
-622
-621
-622
-622
-623
-623
-623
-623
-624
-625
-625
-625
-625
-626
-626
-625
-625
-625
-624
-623
-622
-622
-621
-620
-619
-617
-616
-615
-614
-613
-612
-611
-610
-608
-607
-607
-606
-607
-606
-605
-605
-606
-606
-606
-607
-608
-609
-610
-611
-613
-613
-615
-616
-617
-618
-619
-619
-620
-620
-620
-620
-621
-620
-620
-620
-619
-619
-618
-618
-617
-617
-617
-616
-615
-615
-616
-615
-615
-615
-615
-616
-616
-617
-617
-618
-619
-620
-620
-622
-622
-623
-623
-624
-624
-625
-625
-626
-625
-625
-625
-623
-624
-622
-621
-621
-620
-620
-619
-619
-618
-617
-618
-617
-617
-616
-617
-616
-615
-616
-616
-615
-615
-615
-615
-615
-615
-615
-615
-615
-616
-615
-615
-615
-615
-615
-614
-614
-615
-615
-615
-614
-615
-615
-615
-615
-616
-616
-616
-618
-618
-618
-619
-619
-619
-620
-620
-621
-621
-622
-623
-623
-624
-624
-625
-624
-625
-625
-625
-627
-627
-627
-627
-628
-629
-629
-629
-629
-628
-628
-629
-627
-628
-627
-627
-626
-626
-625
-625
-625
-623
-623
-622
-621
-621
-620
-619
-619
-619
-618
-618
-618
-618
-619
-619
-620
-620
-620
-621
-622
-623
-623
-625
-626
-626
-626
-627
-627
-627
-627
-626
-626
-626
-626
-625
-624
-624
-624
-624
-623
-622
-623
-623
-622
-622
-622
-623
-623
-623
-623
-624
-624
-624
-625
-625
-625
-625
-626
-626
-627
-627
-627
-628
-628
-628
-628
-628
-628
-626
-626
-625
-625
-625
-624
-624
-624
-624
-623
-624
-623
-624
-624
-624
-626
-626
-626
-627
-628
-628
-628
-629
-629
-629
-630
-630
-631
-631
-631
-631
-631
-631
-631
-631
-630
-630
-630
-629
-629
-629
-629
-629
-629
-629
-629
-629
-630
-630
-630
-630
-630
-630
-631
-631
-631
-630
-631
-630
-630
-629
-628
-627
-627
-625
-625
-624
-623
-623
-622
-621
-621
-621
-620
-620
-620
-620
-620
-620
-620
-620
-621
-621
-621
-622
-623
-623
-623
-624
-625
-626
-626
-628
-628
-629
-631
-631
-632
-633
-634
-634
-634
-635
-636
-636
-636
-636
-636
-638
-638
-639
-639
-640
-641
-641
-641
-642
-643
-642
-642
-643
-643
-643
-644
-644
-644
-643
-643
-643
-641
-641
-640
-639
-639
-638
-637
-637
-637
-636
-635
-635
-634
-634
-633
-632
-632
-632
-632
-633
-632
-632
-633
-633
-633
-632
-633
-633
-632
-633
-634
-633
-633
-633
-634
-635
-634
-635
-636
-636
-637
-637
-639
-639
-640
-640
-641
-641
-641
-642
-642
-642
-641
-641
-641
-639
-639
-638
-638
-637
-637
-636
-636
-634
-634
-634
-633
-632
-632
-632
-631
-631
-631
-629
-629
-627
-626
-625
-623
-622
-620
-619
-617
-615
-614
-611
-610
-607
-606
-604
-603
-601
-600
-599
-600
-600
-601
-603
-606
-610
-614
-619
-624
-631
-637
-645
-652
-660
-668
-677
-685
-694
-702
-710
-719
-726
-733
-740
-745
-751
-756
-759
-763
-764
-766
-766
-766
-765
-764
-763
-761
-758
-755
-752
-749
-745
-742
-739
-735
-732
-729
-726
-722
-719
-716
-713
-710
-707
-704
-700
-697
-693
-690
-686
-684
-679
-676
-672
-669
-665
-662
-658
-656
-653
-648
-646
-643
-641
-638
-636
-632
-631
-629
-627
-625
-624
-622
-622
-621
-621
-620
-620
-621
-620
-621
-622
-622
-623
-625
-625
-626
-627
-628
-629
-629
-630
-631
-632
-632
-633
-634
-634
-635
-635
-634
-634
-634
-634
-633
-633
-632
-632
-631
-630
-630
-630
-628
-628
-627
-627
-626
-626
-625
-625
-625
-625
-624
-624
-625
-625
-625
-624
-625
-625
-625
-625
-625
-626
-626
-626
-627
-628
-629
-629
-631
-632
-632
-633
-634
-635
-635
-636
-637
-636
-637
-637
-638
-638
-638
-638
-638
-638
-638
-637
-636
-635
-635
-634
-633
-633
-632
-631
-630
-630
-629
-628
-629
-628
-629
-629
-629
-630
-630
-632
-633
-633
-633
-634
-635
-635
-636
-636
-636
-637
-638
-637
-637
-638
-637
-638
-637
-637
-637
-637
-636
-637
-637
-636
-636
-635
-635
-635
-635
-634
-635
-635
-635
-634
-634
-635
-634
-634
-634
-635
-635
-635
-636
-636
-636
-637
-637
-636
-637
-637
-637
-636
-636
-637
-636
-636
-637
-637
-636
-637
-637
-637
-637
-636
-636
-637
-637
-637
-638
-637
-638
-639
-639
-639
-640
-642
-642
-643
-644
-645
-646
-647
-648
-649
-650
-650
-651
-651
-652
-652
-652
-652
-652
-652
-652
-652
-651
-651
-652
-651
-651
-650
-650
-650
-650
-649
-649
-649
-650
-650
-650
-651
-652
-653
-654
-655
-655
-656
-658
-659
-660
-662
-663
-663
-664
-665
-666
-666
-666
-666
-665
-665
-664
-664
-664
-664
-663
-663
-663
-663
-662
-661
-660
-660
-661
-661
-660
-660
-660
-660
-660
-660
-660
-660
-660
-661
-661
-661
-661
-662
-662
-662
-662
-662
-662
-661
-661
-661
-660
-660
-659
-658
-657
-656
-657
-656
-656
-656
-655
-655
-654
-654
-653
-653
-653
-651
-651
-651
-651
-651
-651
-650
-650
-650
-650
-650
-651
-651
-652
-652
-652
-653
-654
-654
-655
-656
-656
-656
-657
-657
-658
-657
-658
-657
-658
-657
-658
-657
-657
-657
-657
-656
-655
-655
-655
-655
-654
-653
-653
-652
-652
-651
-651
-651
-651
-651
-651
-651
-651
-651
-650
-651
-651
-651
-651
-650
-650
-650
-649
-649
-649
-649
-648
-648
-648
-648
-648
-648
-648
-649
-648
-648
-649
-649
-649
-649
-649
-649
-649
-649
-649
-649
-649
-649
-649
-648
-648
-648
-648
-648
-648
-649
-649
-649
-649
-649
-650
-649
-649
-650
-650
-650
-650
-651
-651
-651
-652
-652
-653
-653
-653
-654
-654
-655
-655
-655
-656
-655
-655
-657
-656
-656
-657
-657
-656
-656
-657
-656
-657
-656
-656
-655
-656
-656
-655
-655
-655
-654
-655
-654
-654
-654
-654
-655
-655
-656
-656
-656
-656
-657
-657
-657
-658
-657
-657
-658
-658
-658
-656
-656
-656
-656
-656
-654
-654
-653
-653
-652
-652
-651
-651
-651
-651
-650
-650
-651
-650
-650
-650
-651
-650
-651
-652
-653
-653
-653
-654
-655
-655
-656
-656
-657
-658
-659
-658
-658
-658
-658
-658
-657
-657
-656
-656
-656
-656
-656
-655
-656
-656
-656
-657
-656
-657
-658
-657
-657
-658
-658
-658
-658
-658
-658
-658
-659
-658
-659
-659
-659
-659
-660
-660
-660
-660
-660
-660
-660
-660
-660
-661
-661
-661
-662
-663
-663
-663
-663
-663
-663
-663
-663
-663
-663
-663
-663
-663
-663
-662
-662
-661
-661
-661
-660
-660
-659
-659
-658
-659
-659
-658
-659
-658
-659
-659
-659
-660
-660
-660
-660
-660
-660
-661
-661
-661
-662
-662
-662
-663
-663
-663
-663
-664
-664
-664
-664
-664
-664
-663
-663
-663
-663
-663
-663
-663
-663
-662
-663
-662
-662
-663
-663
-663
-663
-663
-664
-664
-664
-664
-664
-664
-664
-664
-664
-664
-664
-664
-664
-664
-664
-664
-664
-664
-664
-664
-664
-664
-663
-663
-663
-663
-663
-663
-663
-664
-664
-664
-664
-666
-666
-666
-667
-668
-669
-669
-669
-670
-670
-671
-671
-671
-672
-672
-672
-672
-672
-672
-672
-671
-671
-671
-671
-671
-670
-669
-669
-668
-668
-667
-666
-665
-664
-663
-662
-662
-660
-660
-660
-660
-659
-658
-659
-658
-657
-657
-657
-657
-656
-656
-656
-657
-658
-658
-659
-660
-660
-662
-662
-664
-665
-666
-667
-669
-670
-672
-674
-674
-676
-677
-677
-678
-678
-678
-678
-678
-678
-678
-678
-678
-678
-678
-678
-678
-677
-677
-677
-677
-677
-677
-677
-676
-677
-677
-677
-678
-678
-678
-678
-677
-677
-678
-678
-678
-677
-677
-677
-677
-676
-676
-676
-675
-675
-674
-675
-674
-675
-674
-674
-675
-674
-674
-675
-675
-675
-675
-675
-675
-675
-675
-673
-674
-673
-673
-673
-673
-673
-674
-673
-673
-674
-674
-675
-675
-677
-677
-678
-678
-679
-680
-680
-680
-679
-680
-680
-680
-680
-680
-680
-678
-679
-678
-678
-677
-677
-676
-675
-675
-674
-674
-673
-672
-670
-670
-669
-667
-665
-664
-661
-660
-658
-656
-653
-651
-647
-645
-642
-639
-636
-633
-632
-630
-628
-627
-628
-628
-628
-631
-634
-637
-642
-648
-654
-661
-669
-678
-687
-697
-707
-717
-728
-739
-749
-759
-769
-779
-787
-796
-804
-811
-818
-823
-828
-831
-834
-835
-836
-835
-834
-833
-830
-827
-824
-819
-815
-810
-806
-801
-796
-791
-785
-780
-775
-770
-766
-760
-756
-750
-746
-741
-736
-730
-725
-720
-717
-712
-708
-703
-699
-696
-691
-688
-685
-682
-680
-677
-675
-673
-671
-669
-668
-667
-666
-666
-665
-664
-664
-664
-664
-663
-663
-664
-663
-664
-664
-664
-664
-663
-662
-662
-662
-663
-662
-662
-662
-661
-661
-662
-661
-661
-661
-663
-663
-663
-663
-664
-664
-665
-665
-665
-666
-666
-666
-666
-666
-666
-666
-666
-666
-666
-665
-665
-665
-665
-665
-665
-665
-664
-663
-664
-664
-664
-662
-663
-663
-663
-663
-663
-663
-664
-665
-665
-666
-666
-667
-667
-668
-667
-667
-668
-668
-668
-668
-668
-668
-668
-666
-666
-666
-666
-666
-666
-665
-666
-665
-665
-665
-664
-664
-664
-663
-663
-664
-664
-664
-663
-664
-665
-665
-665
-666
-666
-666
-666
-666
-667
-667
-668
-667
-667
-668
-668
-668
-668
-668
-669
-669
-669
-670
-671
-671
-670
-670
-670
-670
-670
-670
-670
-669
-668
-669
-668
-668
-667
-666
-666
-666
-665
-665
-665
-665
-664
-664
-665
-665
-665
-665
-665
-665
-665
-666
-666
-666
-667
-667
-667
-667
-668
-668
-669
-670
-670
-671
-671
-671
-672
-672
-672
-672
-672
-672
-672
-671
-672
-672
-672
-672
-671
-671
-671
-671
-671
-671
-671
-672
-672
-672
-672
-672
-673
-673
-673
-673
-674
-674
-674
-675
-675
-675
-676
-676
-677
-677
-678
-678
-679
-679
-679
-679
-679
-680
-680
-681
-681
-682
-683
-683
-684
-684
-685
-685
-686
-687
-688
-688
-689
-689
-690
-690
-691
-690
-690
-690
-691
-690
-690
-691
-691
-691
-692
-692
-692
-693
-693
-693
-694
-694
-695
-695
-696
-696
-697
-697
-697
-697
-697
-697
-697
-697
-698
-697
-697
-698
-697
-697
-697
-696
-696
-695
-695
-694
-694
-693
-692
-692
-691
-692
-691
-691
-691
-691
-691
-691
-690
-690
-691
-691
-691
-691
-691
-691
-691
-691
-690
-690
-690
-689
-688
-688
-687
-687
-685
-685
-684
-684
-683
-683
-682
-681
-681
-680
-679
-678
-678
-678
-677
-677
-677
-677
-677
-677
-677
-678
-678
-678
-679
-679
-680
-679
-680
-680
-681
-682
-682
-682
-683
-684
-683
-684
-685
-686
-686
-686
-686
-686
-686
-686
-685
-685
-685
-685
-684
-684
-684
-684
-684
-683
-683
-684
-684
-684
-685
-685
-685
-685
-686
-686
-686
-687
-686
-686
-687
-686
-686
-686
-686
-686
-686
-686
-686
-686
-686
-687
-687
-687
-687
-688
-688
-688
-688
-688
-688
-688
-688
-688
-688
-688
-689
-689
-689
-689
-689
-688
-688
-688
-688
-688
-688
-687
-687
-686
-687
-686
-687
-686
-687
-686
-686
-687
-687
-686
-687
-686
-686
-686
-686
-685
-686
-685
-685
-686
-685
-685
-685
-684
-684
-684
-684
-684
-683
-684
-684
-684
-684
-684
-684
-683
-683
-683
-683
-682
-682
-682
-682
-682
-682
-682
-682
-682
-682
-683
-682
-683
-683
-684
-684
-684
-685
-685
-685
-685
-685
-685
-686
-686
-686
-686
-686
-687
-687
-687
-689
-689
-689
-689
-689
-689
-689
-689
-689
-688
-688
-687
-687
-687
-687
-688
-688
-688
-688
-688
-688
-688
-688
-688
-688
-689
-689
-688
-689
-689
-689
-689
-689
-690
-690
-690
-692
-691
-692
-692
-692
-693
-693
-693
-694
-694
-694
-694
-694
-695
-694
-694
-694
-694
-693
-693
-693
-693
-692
-692
-692
-692
-692
-691
-691
-690
-691
-690
-690
-690
-689
-689
-689
-689
-688
-689
-689
-689
-690
-690
-691
-692
-692
-693
-693
-693
-694
-694
-695
-695
-695
-695
-696
-695
-696
-696
-695
-695
-695
-695
-695
-695
-695
-696
-695
-695
-695
-695
-695
-695
-695
-694
-694
-694
-693
-694
-694
-694
-695
-696
-696
-696
-697
-697
-698
-698
-698
-698
-698
-699
-698
-699
-699
-699
-700
-700
-699
-699
-699
-699
-699
-699
-698
-698
-697
-697
-697
-697
-696
-696
-696
-696
-696
-696
-695
-695
-696
-696
-696
-696
-696
-697
-696
-695
-696
-696
-695
-695
-695
-695
-695
-695
-694
-694
-694
-693
-695
-695
-695
-696
-696
-697
-697
-699
-699
-700
-700
-701
-701
-702
-702
-702
-702
-702
-702
-702
-703
-703
-703
-703
-702
-702
-702
-701
-701
-701
-700
-700
-700
-700
-700
-700
-699
-699
-699
-698
-698
-698
-697
-697
-697
-697
-696
-696
-696
-695
-695
-694
-695
-694
-694
-693
-693
-692
-692
-691
-691
-691
-691
-691
-691
-691
-691
-691
-691
-690
-690
-690
-690
-691
-690
-691
-691
-692
-692
-692
-692
-694
-694
-694
-695
-695
-696
-696
-697
-698
-699
-700
-700
-701
-703
-703
-704
-704
-705
-706
-707
-708
-708
-708
-710
-710
-710
-710
-711
-710
-711
-710
-710
-710
-710
-710
-709
-710
-710
-710
-710
-710
-711
-711
-712
-712
-712
-713
-714
-713
-714
-714
-715
-714
-714
-714
-713
-712
-713
-712
-711
-710
-710
-709
-709
-708
-708
-707
-706
-706
-705
-705
-704
-703
-703
-702
-701
-701
-700
-700
-700
-700
-699
-699
-699
-699
-699
-699
-699
-700
-699
-700
-700
-699
-700
-700
-700
-700
-701
-701
-701
-701
-702
-702
-701
-702
-702
-702
-702
-703
-702
-703
-703
-703
-704
-704
-703
-703
-704
-704
-704
-704
-703
-703
-701
-701
-699
-698
-695
-693
-690
-687
-685
-682
-679
-675
-671
-668
-666
-664
-662
-661
-661
-661
-663
-665
-668
-673
-677
-684
-691
-700
-708
-718
-728
-738
-749
-760
-771
-783
-793
-804
-815
-824
-834
-842
-849
-854
-860
-864
-867
-869
-870
-870
-869
-867
-866
-862
-859
-856
-851
-847
-842
-837
-832
-827
-822
-816
-811
-806
-800
-795
-789
-784
-779
-773
-768
-763
-758
-753
-749
-745
-740
-736
-732
-728
-725
-722
-719
-716
-714
-711
-710
-707
-705
-704
-703
-701
-700
-699
-699
-698
-697
-698
-696
-696
-696
-695
-696
-695
-696
-695
-695
-693
-694
-694
-693
-692
-693
-693
-692
-692
-692
-692
-691
-692
-691
-691
-692
-691
-693
-693
-692
-692
-693
-693
-692
-693
-693
-694
-694
-694
-694
-695
-696
-696
-696
-697
-696
-697
-698
-698
-697
-697
-697
-696
-695
-695
-695
-694
-694
-694
-694
-693
-693
-692
-692
-691
-691
-691
-689
-689
-689
-689
-689
-689
-689
-688
-688
-690
-690
-690
-690
-690
-691
-692
-692
-692
-693
-693
-694
-694
-694
-695
-694
-695
-695
-695
-695
-695
-695
-695
-695
-695
-695
-695
-695
-694
-695
-694
-694
-694
-694
-695
-695
-696
-695
-695
-696
-696
-697
-697
-698
-699
-699
-700
-701
-701
-701
-701
-701
-701
-701
-701
-701
-700
-700
-700
-699
-699
-699
-699
-698
-699
-699
-699
-699
-699
-699
-699
-699
-699
-699
-699
-699
-698
-697
-697
-697
-697
-695
-695
-695
-695
-695
-695
-695
-694
-695
-694
-695
-695
-695
-695
-696
-696
-697
-697
-697
-698
-698
-699
-700
-700
-701
-701
-702
-701
-702
-702
-702
-703
-703
-704
-704
-704
-703
-704
-704
-705
-704
-705
-706
-707
-708
-708
-709
-710
-710
-711
-711
-712
-712
-713
-713
-713
-714
-713
-713
-714
-714
-714
-715
-715
-715
-716
-716
-717
-718
-718
-719
-719
-719
-720
-720
-721
-722
-722
-723
-724
-724
-725
-725
-727
-727
-728
-727
-728
-728
-728
-729
-729
-729
-728
-728
-727
-727
-726
-725
-725
-724
-724
-724
-723
-723
-722
-722
-722
-720
-720
-720
-720
-719
-719
-719
-718
-719
-718
-719
-718
-719
-718
-719
-719
-719
-720
-720
-720
-721
-721
-721
-721
-720
-721
-720
-720
-720
-719
-719
-719
-718
-718
-718
-718
-717
-717
-716
-716
-716
-714
-714
-714
-713
-713
-712
-711
-711
-710
-710
-709
-709
-708
-709
-709
-708
-708
-708
-706
-706
-706
-705
-704
-704
-703
-704
-703
-702
-702
-702
-702
-703
-703
-704
-704
-705
-706
-706
-708
-708
-710
-710
-711
-711
-712
-713
-713
-714
-715
-715
-717
-717
-718
-718
-719
-720
-720
-720
-721
-721
-721
-722
-721
-721
-721
-720
-720
-719
-719
-718
-718
-717
-717
-716
-716
-715
-714
-715
-714
-713
-713
-712
-712
-712
-711
-712
-711
-710
-710
-709
-709
-709
-709
-710
-709
-709
-709
-709
-709
-709
-709
-710
-710
-710
-710
-710
-710
-711
-711
-711
-711
-712
-712
-712
-713
-712
-712
-712
-713
-713
-713
-712
-713
-713
-712
-712
-711
-711
-710
-710
-710
-709
-708
-708
-706
-706
-705
-705
-703
-703
-702
-701
-701
-700
-701
-700
-700
-701
-702
-703
-703
-704
-705
-707
-708
-710
-711
-713
-714
-714
-715
-716
-717
-718
-718
-718
-718
-717
-716
-716
-715
-714
-714
-713
-712
-712
-711
-711
-710
-710
-710
-709
-709
-709
-708
-709
-708
-708
-708
-709
-709
-709
-709
-709
-710
-709
-710
-710
-710
-711
-711
-712
-712
-713
-713
-713
-712
-714
-713
-714
-713
-713
-714
-714
-714
-714
-714
-714
-714
-714
-712
-713
-712
-712
-711
-710
-710
-710
-710
-709
-710
-710
-711
-711
-712
-712
-713
-713
-714
-713
-714
-715
-716
-717
-716
-717
-717
-717
-718
-718
-718
-718
-719
-718
-719
-719
-719
-719
-719
-719
-719
-719
-718
-718
-717
-716
-715
-715
-714
-714
-714
-713
-714
-713
-714
-714
-714
-715
-715
-715
-715
-715
-715
-715
-715
-716
-716
-716
-717
-716
-717
-717
-718
-717
-717
-717
-717
-717
-717
-717
-718
-718
-717
-717
-718
-717
-717
-717
-718
-718
-718
-718
-719
-719
-719
-720
-720
-720
-721
-721
-722
-723
-723
-722
-722
-722
-722
-721
-721
-721
-721
-721
-721
-721
-721
-721
-721
-721
-720
-720
-720
-720
-720
-720
-720
-720
-719
-719
-719
-719
-720
-720
-719
-719
-720
-719
-719
-719
-719
-718
-718
-719
-719
-719
-718
-719
-719
-719
-719
-718
-719
-718
-719
-719
-719
-720
-719
-720
-720
-720
-721
-720
-720
-721
-720
-720
-720
-721
-720
-720
-721
-721
-720
-721
-721
-720
-721
-721
-721
-721
-720
-721
-720
-720
-720
-721
-720
-720
-720
-720
-720
-720
-720
-720
-721
-721
-721
-722
-722
-721
-722
-722
-722
-721
-721
-721
-721
-721
-721
-721
-721
-721
-720
-720
-720
-720
-720
-719
-719
-719
-718
-718
-717
-717
-716
-715
-715
-713
-713
-713
-713
-713
-712
-713
-714
-714
-715
-715
-716
-716
-717
-718
-719
-721
-721
-722
-723
-724
-725
-725
-727
-727
-728
-728
-728
-730
-730
-730
-731
-731
-731
-731
-732
-732
-733
-733
-732
-734
-734
-734
-734
-734
-734
-734
-733
-734
-733
-733
-733
-733
-733
-732
-732
-731
-731
-730
-729
-729
-729
-728
-728
-727
-728
-727
-727
-727
-728
-728
-727
-728
-728
-729
-729
-729
-729
-729
-730
-729
-730
-729
-730
-730
-731
-731
-731
-731
-732
-732
-732
-732
-732
-733
-732
-732
-732
-732
-732
-733
-733
-733
-732
-732
-732
-732
-732
-732
-731
-730
-730
-730
-729
-729
-729
-728
-728
-727
-726
-726
-726
-726
-726
-725
-726
-725
-725
-725
-725
-724
-724
-723
-722
-721
-719
-716
-714
-712
-710
-708
-706
-703
-701
-700
-698
-696
-695
-695
-694
-694
-694
-696
-698
-701
-704
-708
-714
-720
-727
-733
-742
-750
-758
-766
-776
-785
-795
-804
-812
-821
-829
-838
-845
-850
-856
-861
-864
-867
-869
-870
-869
-869
-868
-866
-864
-860
-857
-854
-850
-845
-841
-837
-832
-829
-824
-821
-817
-812
-809
-805
-802
-799
-796
-792
-789
-785
-782
-778
-775
-771
-769
-765
-760
-757
-754
-751
-747
-744
-740
-736
-734
-731
-729
-727
-725
-724
-723
-722
-722
-722
-722
-722
-722
-722
-722
-722
-722
-723
-722
-722
-722
-722
-722
-722
-721
-721
-720
-719
-719
-718
-718
-716
-715
-715
-714
-714
-714
-713
-713
-713
-714
-714
-714
-714
-715
-715
-716
-716
-717
-717
-717
-718
-718
-719
-719
-719
-718
-719
-718
-718
-717
-717
-716
-717
-717
-716
-716
-716
-718
-718
-718
-719
-720
-720
-720
-721
-721
-722
-722
-724
-724
-724
-725
-725
-725
-726
-727
-727
-727
-728
-728
-728
-728
-727
-727
-727
-726
-726
-725
-725
-725
-724
-724
-724
-722
-722
-721
-721
-721
-721
-721
-721
-721
-720
-720
-720
-720
-720
-720
-720
-721
-721
-721
-721
-721
-721
-722
-722
-722
-722
-722
-722
-722
-722
-722
-722
-722
-722
-722
-722
-723
-722
-722
-722
-722
-722
-722
-722
-722
-723
-723
-723
-723
-724
-723
-723
-723
-722
-722
-722
-722
-721
-721
-721
-722
-721
-721
-721
-722
-722
-722
-723
-723
-724
-724
-724
-725
-726
-726
-727
-728
-728
-729
-730
-731
-731
-732
-733
-732
-733
-734
-735
-735
-734
-735
-735
-735
-734
-735
-734
-735
-735
-735
-735
-736
-735
-735
-735
-735
-735
-735
-735
-735
-735
-735
-734
-734
-734
-735
-734
-735
-736
-736
-736
-736
-738
-738
-739
-740
-741
-742
-745
-746
-747
-748
-749
-751
-752
-754
-755
-756
-758
-758
-759
-760
-760
-761
-761
-760
-761
-760
-760
-760
-760
-758
-758
-757
-756
-755
-754
-752
-751
-750
-749
-748
-747
-746
-746
-746
-745
-745
-745
-745
-744
-744
-743
-743
-743
-743
-743
-743
-744
-743
-743
-743
-743
-743
-743
-743
-744
-744
-744
-744
-744
-744
-744
-743
-743
-742
-743
-743
-742
-742
-743
-742
-742
-742
-743
-742
-742
-743
-742
-742
-743
-742
-743
-742
-742
-741
-741
-740
-740
-740
-740
-739
-739
-740
-739
-740
-739
-740
-741
-740
-741
-742
-741
-742
-742
-742
-743
-744
-744
-744
-744
-744
-744
-743
-743
-742
-742
-740
-739
-738
-738
-738
-736
-736
-735
-734
-734
-734
-733
-733
-733
-733
-733
-734
-735
-735
-736
-736
-736
-737
-736
-737
-736
-736
-736
-736
-736
-735
-736
-736
-735
-735
-735
-735
-735
-735
-736
-736
-736
-736
-736
-736
-736
-736
-736
-736
-736
-736
-736
-736
-735
-735
-736
-735
-735
-735
-735
-735
-735
-735
-735
-735
-735
-735
-736
-736
-735
-735
-736
-735
-736
-736
-736
-737
-738
-738
-738
-739
-739
-740
-740
-740
-740
-740
-741
-741
-742
-742
-742
-742
-743
-744
-744
-745
-745
-744
-745
-745
-746
-745
-745
-745
-744
-744
-744
-743
-743
-742
-741
-741
-740
-740
-740
-739
-738
-739
-738
-739
-738
-739
-739
-739
-739
-740
-739
-740
-740
-741
-741
-741
-741
-742
-742
-743
-743
-743
-743
-743
-744
-744
-743
-743
-743
-743
-743
-743
-742
-743
-743
-742
-743
-743
-742
-743
-742
-743
-742
-743
-742
-743
-743
-743
-743
-744
-744
-744
-744
-744
-744
-745
-745
-746
-746
-747
-747
-748
-748
-749
-749
-749
-750
-749
-750
-750
-750
-751
-751
-751
-751
-752
-752
-752
-753
-752
-753
-754
-754
-754
-754
-755
-755
-755
-755
-755
-755
-755
-755
-755
-755
-756
-755
-755
-755
-755
-754
-754
-754
-754
-753
-753
-753
-753
-753
-752
-753
-752
-752
-752
-753
-752
-752
-754
-753
-754
-754
-755
-755
-756
-757
-757
-757
-758
-758
-758
-758
-758
-759
-758
-759
-759
-758
-758
-758
-758
-757
-756
-756
-756
-756
-755
-755
-754
-753
-752
-751
-751
-752
-751
-751
-751
-752
-752
-752
-753
-753
-755
-755
-755
-756
-757
-757
-759
-759
-760
-760
-761
-761
-762
-762
-762
-762
-763
-762
-762
-762
-762
-762
-763
-762
-762
-761
-761
-760
-760
-759
-759
-758
-758
-757
-757
-757
-757
-756
-757
-757
-757
-757
-757
-756
-757
-757
-757
-757
-757
-757
-758
-758
-757
-757
-757
-757
-758
-757
-757
-756
-756
-756
-756
-755
-755
-755
-754
-753
-753
-753
-751
-751
-752
-752
-752
-753
-754
-754
-755
-756
-757
-758
-760
-761
-761
-762
-763
-765
-766
-766
-767
-768
-768
-768
-769
-769
-769
-769
-770
-770
-770
-770
-770
-770
-770
-770
-769
-769
-769
-769
-768
-768
-768
-768
-768
-768
-768
-768
-769
-768
-768
-768
-767
-767
-767
-767
-767
-767
-768
-767
-767
-767
-767
-766
-767
-766
-767
-767
-766
-767
-766
-767
-767
-766
-766
-767
-767
-766
-767
-767
-766
-767
-766
-765
-765
-765
-764
-764
-764
-764
-764
-763
-763
-762
-762
-762
-762
-762
-762
-762
-762
-762
-762
-763
-763
-764
-764
-765
-765
-766
-766
-767
-767
-768
-767
-767
-767
-768
-768
-767
-767
-767
-766
-766
-765
-765
-763
-762
-760
-759
-758
-755
-754
-752
-749
-747
-745
-743
-740
-737
-734
-732
-730
-728
-727
-726
-726
-726
-727
-728
-731
-734
-738
-743
-748
-755
-762
-770
-778
-787
-795
-805
-814
-825
-835
-845
-855
-864
-873
-881
-888
-895
-900
-905
-909
-911
-913
-914
-913
-912
-911
-908
-906
-903
-899
-895
-891
-887
-882
-878
-873
-870
-865
-861
-857
-853
-849
-845
-841
-838
-834
-831
-828
-824
-819
-815
-811
-807
-804
-799
-795
-792
-788
-785
-781
-776
-773
-770
-766
-763
-761
-758
-756
-755
-754
-752
-752
-751
-751
-751
-752
-752
-752
-753
-753
-754
-754
-754
-754
-755
-756
-756
-755
-756
-756
-757
-757
-758
-758
-758
-758
-759
-758
-758
-758
-758
-758
-758
-757
-757
-757
-756
-756
-756
-756
-756
-756
-756
-755
-755
-756
-755
-755
-756
-755
-755
-756
-756
-755
-756
-755
-755
-755
-755
-756
-756
-757
-757
-758
-758
-759
-759
-760
-761
-762
-762
-763
-763
-763
-763
-763
-763
-763
-763
-763
-763
-763
-763
-762
-762
-762
-762
-762
-760
-760
-759
-759
-759
-758
-758
-757
-757
-757
-756
-756
-756
-756
-755
-756
-756
-756
-757
-757
-757
-756
-757
-757
-757
-757
-757
-757
-757
-757
-757
-757
-757
-757
-757
-758
-758
-759
-760
-760
-761
-761
-763
-763
-763
-763
-764
-765
-766
-766
-765
-765
-766
-766
-766
-766
-766
-766
-766
-766
-765
-766
-766
-765
-765
-764
-764
-764
-764
-763
-764
-764
-763
-764
-764
-764
-764
-764
-765
-765
-765
-765
-766
-765
-765
-765
-766
-765
-765
-765
-765
-765
-765
-765
-766
-766
-766
-766
-766
-766
-766
-765
-767
-766
-766
-767
-767
-766
-767
-768
-767
-768
-767
-768
-768
-769
-769
-770
-771
-772
-773
-774
-774
-775
-776
-776
-776
-777
-777
-778
-778
-778
-779
-780
-780
-780
-780
-781
-780
-780
-781
-780
-781
-780
-780
-780
-780
-780
-780
-781
-781
-781
-782
-782
-783
-783
-784
-785
-785
-785
-786
-786
-787
-787
-786
-787
-787
-787
-787
-787
-785
-785
-784
-784
-783
-783
-783
-782
-781
-781
-780
-781
-781
-781
-780
-781
-780
-780
-780
-780
-780
-780
-781
-781
-782
-782
-783
-782
-783
-783
-783
-783
-783
-783
-783
-783
-781
-782
-781
-781
-780
-780
-780
-780
-780
-780
-780
-781
-780
-780
-779
-780
-779
-780
-779
-779
-777
-777
-776
-775
-775
-774
-774
-773
-773
-773
-772
-772
-772
-771
-771
-771
-771
-771
-771
-772
-772
-772
-773
-773
-773
-774
-774
-774
-774
-775
-775
-775
-774
-775
-775
-775
-774
-774
-774
-774
-773
-772
-771
-771
-771
-771
-771
-770
-770
-770
-771
-772
-772
-772
-772
-773
-773
-774
-774
-776
-776
-777
-777
-778
-778
-779
-780
-780
-780
-781
-781
-782
-782
-782
-781
-782
-782
-781
-781
-780
-779
-780
-779
-779
-778
-777
-776
-776
-775
-775
-775
-775
-774
-774
-774
-773
-774
-774
-773
-773
-773
-773
-773
-773
-773
-772
-773
-773
-773
-773
-772
-773
-773
-773
-773
-772
-772
-773
-772
-772
-772
-771
-771
-771
-771
-772
-772
-773
-773
-774
-774
-775
-775
-776
-776
-776
-776
-776
-776
-776
-777
-776
-775
-775
-774
-773
-774
-773
-773
-773
-773
-772
-772
-772
-772
-772
-772
-773
-773
-773
-773
-773
-773
-774
-774
-775
-775
-776
-776
-777
-776
-777
-777
-777
-778
-777
-778
-778
-778
-778
-778
-779
-779
-780
-780
-780
-780
-780
-781
-781
-781
-781
-781
-781
-781
-780
-780
-779
-779
-780
-779
-778
-777
-777
-776
-776
-775
-775
-775
-775
-775
-775
-775
-775
-775
-774
-774
-774
-774
-774
-774
-774
-774
-775
-775
-775
-775
-776
-776
-776
-777
-778
-779
-779
-780
-781
-782
-783
-783
-784
-784
-784
-785
-784
-785
-785
-786
-786
-786
-786
-787
-787
-788
-787
-787
-788
-788
-787
-787
-786
-787
-786
-786
-786
-786
-786
-785
-785
-785
-783
-783
-782
-782
-782
-781
-781
-781
-781
-780
-780
-780
-780
-779
-779
-780
-779
-779
-780
-780
-781
-780
-781
-782
-782
-783
-783
-783
-784
-784
-784
-785
-785
-785
-785
-785
-786
-786
-786
-786
-787
-787
-786
-786
-786
-787
-787
-787
-787
-787
-786
-785
-785
-784
-783
-782
-783
-781
-781
-781
-780
-780
-780
-779
-780
-780
-779
-779
-779
-780
-780
-779
-779
-780
-780
-781
-781
-782
-782
-782
-782
-782
-782
-781
-782
-783
-782
-782
-782
-783
-783
-782
-781
-781
-781
-781
-781
-781
-781
-781
-781
-781
-782
-782
-781
-781
-780
-780
-780
-780
-779
-778
-779
-777
-778
-778
-778
-777
-777
-778
-777
-778
-779
-779
-779
-780
-781
-782
-782
-782
-783
-784
-785
-786
-786
-787
-787
-788
-789
-790
-790
-791
-791
-792
-792
-792
-792
-793
-792
-792
-792
-791
-791
-790
-790
-789
-789
-788
-788
-787
-787
-787
-787
-788
-787
-788
-787
-788
-787
-787
-788
-788
-787
-787
-788
-788
-788
-788
-787
-788
-787
-788
-788
-787
-787
-787
-786
-786
-785
-786
-785
-784
-784
-784
-784
-784
-784
-784
-784
-784
-785
-784
-785
-785
-786
-786
-787
-787
-787
-787
-788
-787
-787
-788
-787
-787
-787
-786
-787
-786
-787
-786
-786
-786
-785
-785
-785
-785
-784
-784
-784
-782
-783
-781
-781
-780
-780
-779
-778
-777
-777
-775
-773
-772
-770
-768
-765
-763
-760
-758
-755
-753
-750
-748
-746
-744
-743
-742
-743
-744
-746
-748
-753
-757
-763
-769
-777
-785
-793
-802
-811
-821
-832
-841
-852
-863
-873
-883
-892
-900
-908
-915
-922
-927
-932
-935
-937
-938
-940
-940
-938
-936
-934
-931
-928
-925
-921
-916
-912
-908
-902
-897
-893
-887
-883
-878
-872
-868
-863
-858
-854
-849
-844
-839
-834
-829
-824
-820
-816
-811
-808
-805
-801
-798
-794
-791
-788
-785
-783
-781
-778
-777
-775
-774
-772
-772
-771
-771
-770
-770
-770
-770
-770
-771
-771
-771
-771
-771
-772
-772
-772
-771
-771
-771
-770
-770
-770
-770
-770
-770
-768
-768
-768
-767
-766
-766
-765
-764
-764
-763
-763
-762
-762
-762
-761
-760
-760
-760
-760
-760
-760
-761
-762
-763
-764
-764
-765
-766
-766
-767
-768
-769
-769
-769
-770
-770
-771
-771
-771
-772
-772
-771
-770
-770
-770
-770
-770
-769
-769
-768
-768
-767
-767
-767
-766
-766
-765
-765
-764
-764
-765
-764
-764
-764
-765
-764
-764
-764
-764
-764
-764
-764
-764
-764
-764
-765
-765
-765
-765
-765
-766
-766
-766
-766
-766
-767
-767
-767
-767
-767
-767
-767
-768
-767
-767
-767
-768
-767
-767
-767
-766
-766
-766
-766
-766
-766
-766
-765
-765
-764
-764
-763
-763
-763
-763
-763
-763
-763
-763
-763
-764
-764
-764
-764
-764
-765
-765
-765
-765
-766
-766
-766
-766
-766
-766
-766
-767
-767
-767
-768
-768
-769
-770
-770
-771
-771
-772
-772
-772
-773
-773
-773
-773
-773
-773
-773
-772
-772
-772
-771
-771
-771
-770
-770
-769
-768
-769
-769
-768
-769
-768
-768
-769
-769
-770
-771
-771
-772
-773
-775
-775
-776
-777
-777
-778
-779
-780
-781
-781
-782
-782
-783
-783
-783
-783
-783
-783
-783
-783
-783
-784
-784
-784
-784
-784
-784
-784
-785
-785
-785
-784
-784
-785
-785
-785
-785
-785
-786
-786
-787
-787
-788
-789
-789
-790
-790
-791
-791
-791
-792
-792
-792
-792
-792
-792
-792
-791
-792
-792
-792
-792
-792
-792
-792
-792
-792
-792
-792
-793
-792
-792
-793
-793
-793
-793
-793
-794
-793
-793
-794
-794
-793
-793
-793
-793
-792
-792
-790
-790
-789
-789
-789
-788
-787
-786
-786
-785
-785
-783
-783
-783
-783
-783
-783
-783
-783
-783
-783
-783
-783
-783
-782
-782
-782
-782
-783
-782
-782
-782
-783
-783
-783
-784
-784
-783
-784
-784
-783
-784
-784
-783
-783
-783
-782
-783
-783
-783
-782
-782
-783
-783
-783
-784
-784
-784
-784
-785
-785
-785
-786
-786
-786
-787
-786
-787
-787
-788
-788
-788
-788
-788
-789
-789
-789
-788
-788
-789
-788
-789
-788
-788
-788
-788
-788
-788
-787
-788
-787
-788
-788
-789
-789
-790
-790
-791
-791
-790
-791
-790
-791
-790
-790
-791
-790
-789
-789
-787
-787
-787
-785
-785
-785
-784
-784
-783
-782
-782
-781
-781
-781
-781
-781
-781
-781
-781
-781
-781
-781
-781
-781
-782
-781
-781
-781
-782
-782
-782
-781
-782
-781
-782
-781
-781
-781
-781
-781
-781
-781
-782
-782
-782
-783
-783
-784
-784
-784
-785
-785
-785
-785
-785
-784
-784
-784
-785
-784
-784
-783
-783
-783
-784
-784
-784
-784
-783
-783
-783
-783
-783
-783
-783
-783
-783
-784
-785
-785
-785
-785
-785
-786
-786
-787
-788
-788
-789
-789
-790
-790
-790
-791
-790
-790
-790
-790
-790
-790
-790
-790
-790
-790
-789
-789
-789
-789
-789
-788
-788
-787
-787
-786
-786
-786
-786
-785
-785
-784
-784
-784
-784
-783
-783
-783
-783
-783
-784
-784
-784
-784
-784
-785
-785
-785
-784
-784
-785
-784
-784
-784
-784
-783
-783
-784
-784
-783
-783
-783
-783
-782
-783
-783
-783
-784
-784
-785
-786
-786
-787
-788
-788
-789
-790
-791
-792
-793
-793
-794
-795
-794
-795
-795
-794
-794
-793
-793
-792
-792
-791
-791
-791
-790
-790
-789
-789
-790
-789
-790
-789
-789
-789
-789
-790
-791
-790
-791
-792
-792
-793
-794
-795
-795
-796
-796
-796
-798
-797
-798
-798
-798
-797
-798
-797
-796
-796
-794
-793
-792
-792
-790
-790
-790
-789
-788
-788
-788
-788
-788
-788
-789
-788
-789
-788
-789
-789
-789
-789
-789
-790
-789
-789
-790
-789
-790
-790
-790
-790
-790
-790
-789
-790
-790
-790
-790
-789
-789
-789
-790
-790
-790
-789
-789
-789
-789
-789
-789
-789
-789
-788
-788
-787
-786
-786
-785
-785
-783
-783
-782
-782
-782
-783
-782
-782
-783
-783
-782
-784
-783
-783
-785
-785
-786
-786
-787
-788
-788
-789
-789
-790
-791
-792
-792
-794
-795
-796
-797
-798
-798
-799
-798
-799
-799
-800
-800
-800
-800
-800
-801
-800
-801
-800
-801
-801
-802
-802
-802
-802
-803
-803
-803
-803
-803
-803
-803
-803
-802
-802
-803
-802
-802
-801
-801
-802
-802
-802
-802
-802
-801
-801
-801
-801
-801
-800
-801
-801
-800
-800
-799
-799
-799
-799
-799
-799
-799
-799
-798
-798
-798
-797
-796
-795
-796
-795
-795
-793
-792
-792
-791
-791
-791
-790
-790
-790
-790
-790
-790
-790
-790
-791
-790
-790
-791
-791
-792
-793
-792
-793
-793
-795
-795
-795
-795
-796
-796
-797
-797
-798
-798
-798
-799
-800
-799
-799
-798
-796
-796
-794
-792
-790
-788
-786
-783
-781
-778
-775
-772
-769
-765
-762
-759
-756
-753
-751
-748
-746
-746
-746
-746
-748
-750
-753
-757
-762
-768
-775
-783
-792
-801
-811
-820
-831
-841
-853
-864
-875
-885
-895
-905
-915
-923
-930
-937
-943
-948
-951
-953
-955
-955
-955
-953
-951
-948
-946
-942
-937
-933
-927
-922
-916
-910
-905
-899
-895
-889
-885
-879
-875
-870
-866
-862
-857
-853
-848
-844
-840
-835
-832
-829
-824
-821
-817
-814
-811
-808
-805
-802
-799
-797
-794
-792
-790
-788
-786
-784
-782
-781
-779
-778
-778
-776
-776
-776
-775
-774
-774
-773
-774
-773
-773
-773
-772
-772
-772
-771
-772
-771
-772
-772
-772
-772
-772
-773
-773
-774
-774
-775
-776
-777
-777
-778
-778
-778
-779
-779
-780
-780
-780
-780
-780
-781
-781
-781
-781
-781
-782
-782
-781
-782
-781
-781
-781
-781
-779
-779
-779
-779
-778
-778
-777
-776
-776
-776
-776
-775
-775
-775
-775
-775
-776
-776
-776
-776
-776
-776
-777
-777
-777
-776
-776
-776
-776
-776
-776
-777
-776
-777
-777
-776
-776
-776
-776
-776
-776
-777
-776
-777
-776
-776
-775
-776
-775
-775
-775
-776
-776
-775
-776
-775
-775
-775
-775
-774
-774
-774
-773
-773
-773
-773
-773
-773
-772
-773
-773
-772
-772
-772
-773
-772
-772
-771
-772
-771
-770
-770
-770
-769
-769
-769
-769
-769
-769
-769
-770
-771
-771
-771
-772
-772
-773
-773
-774
-774
-775
-776
-776
-777
-777
-777
-778
-778
-779
-780
-780
-781
-781
-782
-782
-782
-783
-783
-783
-783
-783
-783
-782
-782
-782
-781
-781
-781
-780
-780
-779
-778
-778
-778
-777
-776
-776
-776
-776
-775
-775
-775
-775
-775
-775
-776
-776
-777
-778
-779
-779
-781
-781
-782
-783
-784
-785
-785
-786
-787
-788
-788
-789
-789
-790
-791
-790
-791
-792
-791
-792
-792
-792
-793
-793
-793
-793
-793
-793
-792
-791
-791
-791
-790
-791
-790
-791
-790
-790
-791
-790
-790
-791
-791
-792
-792
-792
-792
-792
-793
-793
-793
-794
-794
-793
-794
-794
-794
-794
-794
-794
-795
-795
-794
-795
-795
-794
-794
-794
-794
-793
-793
-793
-792
-792
-791
-791
-791
-791
-791
-791
-791
-790
-791
-791
-790
-790
-790
-789
-790
-789
-789
-788
-789
-788
-788
-787
-787
-787
-787
-787
-787
-786
-787
-786
-786
-786
-785
-785
-785
-784
-784
-783
-783
-783
-782
-782
-782
-781
-781
-781
-781
-781
-781
-780
-780
-780
-780
-780
-780
-780
-780
-781
-780
-780
-780
-780
-781
-781
-780
-779
-780
-779
-780
-779
-779
-779
-779
-779
-779
-779
-780
-779
-779
-779
-779
-778
-779
-779
-779
-779
-779
-779
-779
-780
-780
-779
-779
-779
-779
-779
-780
-780
-780
-779
-779
-778
-779
-778
-779
-778
-779
-779
-779
-779
-778
-778
-778
-778
-778
-777
-776
-776
-776
-776
-777
-776
-776
-776
-776
-776
-778
-778
-778
-779
-779
-779
-779
-779
-779
-779
-779
-779
-780
-779
-779
-778
-778
-778
-778
-778
-777
-776
-776
-776
-776
-776
-775
-775
-774
-774
-774
-773
-773
-772
-773
-772
-772
-773
-772
-773
-773
-773
-774
-774
-775
-775
-775
-775
-776
-776
-775
-776
-775
-775
-775
-776
-776
-776
-776
-776
-776
-776
-777
-777
-777
-777
-777
-777
-777
-778
-779
-779
-779
-779
-779
-779
-780
-779
-779
-779
-779
-778
-778
-778
-778
-777
-776
-776
-775
-775
-774
-774
-774
-773
-773
-772
-772
-771
-772
-772
-772
-773
-773
-774
-774
-775
-775
-776
-776
-777
-777
-777
-777
-778
-779
-779
-780
-780
-781
-781
-782
-781
-782
-781
-782
-782
-782
-782
-782
-781
-781
-782
-781
-781
-782
-781
-781
-781
-782
-782
-782
-782
-782
-782
-781
-781
-781
-781
-781
-781
-780
-780
-780
-779
-779
-780
-780
-780
-780
-779
-779
-779
-780
-780
-779
-779
-780
-779
-779
-779
-779
-780
-780
-779
-779
-779
-779
-780
-779
-780
-781
-782
-783
-783
-784
-784
-785
-785
-786
-786
-786
-787
-787
-787
-788
-788
-789
-788
-789
-788
-788
-788
-787
-787
-786
-785
-784
-784
-783
-782
-781
-781
-781
-780
-779
-779
-779
-779
-779
-779
-780
-780
-780
-781
-782
-782
-783
-783
-783
-784
-784
-785
-785
-785
-786
-786
-785
-785
-785
-784
-784
-784
-784
-784
-784
-784
-784
-784
-784
-783
-784
-784
-784
-783
-783
-783
-783
-783
-783
-784
-784
-785
-785
-785
-785
-785
-785
-785
-785
-785
-784
-784
-784
-784
-785
-785
-785
-785
-786
-786
-786
-786
-786
-786
-785
-786
-785
-785
-784
-784
-784
-783
-782
-781
-780
-780
-778
-778
-778
-776
-775
-775
-774
-773
-773
-773
-773
-772
-772
-771
-772
-773
-773
-773
-774
-775
-776
-777
-779
-780
-781
-783
-784
-785
-786
-788
-789
-790
-791
-791
-793
-793
-794
-794
-795
-796
-796
-797
-797
-797
-797
-798
-798
-797
-798
-798
-798
-798
-799
-798
-798
-797
-796
-795
-795
-794
-794
-793
-793
-792
-791
-790
-790
-790
-790
-789
-789
-788
-788
-788
-788
-788
-788
-788
-789
-790
-789
-790
-791
-791
-792
-792
-792
-792
-792
-791
-791
-790
-790
-790
-789
-788
-788
-788
-786
-786
-786
-786
-785
-785
-786
-786
-786
-786
-786
-787
-787
-787
-786
-787
-787
-786
-786
-787
-787
-787
-787
-788
-788
-788
-789
-789
-789
-789
-790
-790
-790
-790
-790
-790
-790
-789
-787
-787
-786
-785
-784
-782
-781
-779
-777
-775
-772
-770
-769
-767
-764
-761
-759
-757
-755
-752
-751
-749
-748
-747
-746
-747
-748
-751
-753
-757
-761
-767
-773
-779
-787
-795
-804
-813
-821
-831
-840
-850
-860
-870
-879
-887
-895
-902
-908
-914
-919
-922
-924
-926
-927
-926
-925
-924
-921
-917
-914
-911
-907
-902
-898
-894
-889
-885
-881
-877
-873
-870
-865
-863
-859
-856
-852
-849
-846
-843
-840
-837
-833
-829
-826
-823
-819
-816
-812
-809
-806
-802
-799
-795
-793
-791
-788
-786
-784
-781
-779
-778
-777
-776
-775
-774
-775
-774
-773
-773
-774
-773
-773
-773
-773
-773
-772
-772
-772
-771
-771
-771
-771
-771
-771
-770
-770
-770
-770
-771
-770
-770
-771
-770
-770
-770
-770
-770
-770
-770
-769
-769
-769
-769
-769
-770
-770
-770
-771
-772
-772
-772
-773
-773
-773
-774
-774
-774
-774
-775
-774
-775
-775
-775
-776
-776
-776
-776
-777
-777
-778
-777
-777
-778
-778
-778
-778
-778
-778
-778
-778
-778
-778
-778
-778
-778
-778
-778
-778
-778
-778
-778
-778
-779
-778
-779
-779
-778
-779
-779
-779
-779
-779
-780
-780
-780
-779
-779
-779
-779
-779
-778
-778
-776
-776
-775
-774
-773
-772
-771
-770
-768
-768
-767
-766
-765
-764
-764
-765
-764
-764
-764
-765
-765
-766
-766
-767
-767
-767
-769
-770
-770
-770
-772
-772
-773
-773
-774
-775
-776
-776
-777
-776
-777
-778
-778
-778
-778
-778
-778
-778
-778
-778
-778
-777
-777
-777
-778
-778
-778
-778
-779
-779
-779
-780
-780
-780
-780
-781
-781
-782
-782
-783
-782
-782
-782
-783
-783
-783
-783
-784
-784
-784
-783
-784
-784
-783
-784
-784
-784
-784
-784
-785
-785
-786
-786
-786
-787
-787
-788
-789
-789
-790
-790
-791
-790
-791
-790
-791
-791
-791
-791
-791
-792
-791
-791
-791
-791
-792
-791
-792
-792
-793
-793
-793
-794
-794
-794
-795
-794
-795
-795
-796
-795
-796
-797
-796
-797
-797
-798
-799
-798
-798
-798
-799
-798
-797
-797
-797
-796
-796
-796
-796
-795
-795
-795
-794
-794
-794
-794
-794
-794
-795
-794
-794
-794
-794
-794
-794
-794
-795
-795
-794
-795
-794
-794
-793
-794
-793
-793
-793
-793
-792
-792
-791
-791
-790
-789
-789
-788
-787
-787
-786
-785
-785
-785
-784
-784
-784
-784
-784
-784
-784
-784
-783
-784
-784
-784
-784
-784
-784
-784
-784
-784
-784
-785
-784
-784
-785
-784
-784
-784
-783
-783
-783
-782
-781
-781
-781
-781
-780
-779
-779
-778
-777
-777
-777
-776
-776
-776
-777
-777
-776
-776
-777
-777
-777
-777
-777
-777
-777
-778
-778
-779
-779
-780
-780
-780
-781
-781
-782
-782
-782
-783
-782
-782
-782
-781
-780
-780
-779
-779
-778
-777
-777
-776
-775
-775
-774
-774
-774
-773
-773
-774
-774
-774
-773
-774
-774
-775
-776
-776
-777
-777
-778
-779
-779
-779
-780
-781
-780
-780
-781
-780
-781
-780
-780
-780
-779
-778
-778
-777
-776
-777
-776
-776
-776
-776
-776
-777
-778
-778
-778
-779
-779
-779
-780
-780
-780
-780
-781
-780
-780
-780
-780
-779
-779
-778
-778
-777
-778
-777
-776
-777
-777
-776
-776
-777
-777
-776
-775
-776
-775
-775
-775
-775
-776
-776
-776
-776
-776
-776
-776
-775
-776
-776
-776
-776
-776
-776
-776
-776
-776
-776
-777
-777
-778
-778
-778
-779
-779
-781
-781
-782
-781
-781
-782
-781
-781
-781
-781
-781
-781
-780
-781
-781
-781
-780
-779
-780
-780
-779
-780
-779
-779
-779
-780
-779
-779
-779
-779
-780
-779
-779
-781
-781
-782
-782
-782
-783
-783
-784
-785
-785
-785
-786
-786
-786
-786
-787
-787
-787
-788
-787
-787
-787
-788
-787
-787
-787
-787
-786
-786
-785
-786
-785
-785
-785
-785
-784
-784
-784
-784
-783
-784
-784
-784
-784
-784
-784
-785
-785
-785
-785
-785
-786
-785
-785
-785
-785
-785
-784
-784
-784
-784
-784
-784
-784
-785
-784
-784
-784
-784
-784
-785
-785
-785
-785
-784
-785
-785
-784
-784
-784
-785
-785
-784
-786
-786
-785
-786
-786
-786
-786
-787
-786
-787
-787
-787
-788
-787
-788
-789
-788
-788
-788
-788
-789
-789
-789
-789
-789
-789
-789
-788
-788
-787
-786
-786
-785
-784
-784
-784
-782
-782
-782
-782
-782
-782
-782
-783
-783
-783
-784
-784
-783
-783
-784
-784
-785
-785
-785
-785
-784
-785
-784
-783
-783
-782
-783
-782
-781
-781
-780
-778
-778
-777
-776
-776
-775
-775
-774
-774
-774
-775
-775
-775
-777
-778
-779
-780
-781
-782
-783
-784
-785
-787
-788
-789
-790
-791
-793
-794
-794
-795
-795
-797
-797
-797
-798
-798
-799
-799
-800
-800
-800
-800
-801
-801
-801
-801
-800
-800
-800
-801
-800
-800
-799
-799
-799
-799
-799
-798
-798
-797
-797
-796
-795
-794
-793
-792
-793
-792
-791
-790
-790
-789
-789
-788
-788
-788
-787
-787
-787
-788
-787
-786
-787
-787
-787
-787
-787
-787
-787
-787
-788
-788
-788
-789
-790
-790
-790
-791
-791
-791
-791
-791
-791
-790
-790
-789
-789
-789
-788
-787
-787
-787
-786
-786
-786
-785
-786
-786
-786
-787
-787
-787
-787
-787
-787
-788
-788
-788
-787
-788
-787
-788
-787
-785
-784
-782
-781
-779
-777
-775
-772
-769
-767
-765
-761
-759
-756
-754
-752
-750
-748
-748
-748
-748
-749
-750
-753
-757
-760
-765
-770
-777
-784
-791
-799
-808
-817
-826
-835
-844
-855
-864
-873
-882
-889
-897
-904
-910
-915
-919
-923
-925
-927
-928
-927
-926
-925
-924
-921
-918
-914
-911
-907
-902
-899
-894
-890
-886
-881
-876
-872
-867
-863
-859
-855
-851
-847
-843
-840
-836
-832
-829
-825
-822
-819
-815
-813
-810
-807
-805
-802
-799
-797
-794
-791
-789
-787
-786
-784
-783
-781
-780
-779
-778
-778
-778
-777
-777
-778
-777
-777
-777
-778
-777
-778
-777
-778
-777
-778
-779
-779
-779
-780
-780
-780
-781
-781
-780
-780
-780
-780
-778
-778
-778
-778
-776
-776
-775
-774
-774
-774
-773
-772
-772
-772
-772
-772
-772
-773
-772
-773
-773
-774
-774
-775
-775
-776
-776
-776
-777
-778
-779
-779
-779
-780
-781
-781
-780
-781
-781
-780
-779
-778
-778
-777
-777
-776
-775
-774
-774
-773
-773
-772
-772
-772
-772
-772
-772
-772
-772
-773
-774
-774
-775
-776
-776
-777
-779
-779
-779
-779
-780
-779
-780
-780
-780
-779
-779
-780
-780
-778
-778
-777
-777
-775
-776
-774
-774
-774
-773
-773
-773
-773
-773
-774
-774
-774
-773
-775
-775
-775
-775
-775
-775
-776
-776
-776
-776
-776
-776
-776
-777
-777
-777
-777
-778
-778
-778
-779
-778
-778
-778
-779
-779
-779
-779
-780
-780
-779
-779
-779
-779
-779
-779
-780
-780
-780
-779
-779
-778
-778
-777
-777
-776
-777
-776
-776
-776
-775
-775
-775
-776
-776
-777
-777
-778
-779
-779
-780
-780
-780
-781
-781
-782
-782
-781
-782
-782
-782
-782
-782
-782
-782
-782
-782
-782
-781
-782
-782
-782
-782
-782
-782
-783
-783
-783
-783
-785
-785
-785
-786
-787
-788
-789
-788
-789
-791
-791
-792
-792
-793
-794
-794
-794
-795
-795
-796
-796
-796
-796
-796
-797
-796
-797
-797
-797
-798
-798
-797
-797
-797
-796
-795
-795
-794
-794
-793
-792
-793
-793
-793
-793
-793
-793
-794
-794
-794
-794
-795
-795
-795
-795
-796
-796
-796
-796
-796
-794
-794
-793
-793
-792
-792
-790
-790
-790
-788
-788
-787
-786
-786
-785
-784
-784
-784
-783
-783
-782
-782
-782
-782
-783
-783
-782
-783
-783
-783
-783
-782
-782
-782
-781
-780
-780
-779
-779
-778
-778
-778
-778
-778
-778
-778
-778
-778
-779
-779
-779
-779
-779
-779
-779
-780
-780
-780
-780
-780
-780
-780
-780
-781
-781
-780
-781
-781
-781
-781
-781
-781
-781
-781
-780
-780
-780
-780
-780
-780
-780
-780
-780
-780
-780
-780
-780
-780
-780
-779
-778
-778
-778
-778
-778
-778
-777
-777
-776
-776
-776
-776
-776
-776
-776
-776
-777
-777
-777
-777
-778
-778
-778
-778
-778
-777
-777
-777
-776
-777
-776
-776
-776
-775
-776
-775
-775
-774
-775
-775
-775
-775
-775
-776
-776
-776
-776
-776
-776
-776
-776
-776
-776
-776
-777
-776
-777
-777
-777
-777
-778
-778
-778
-777
-777
-776
-776
-776
-776
-776
-776
-776
-776
-776
-776
-776
-776
-775
-775
-775
-775
-774
-774
-774
-773
-773
-773
-773
-772
-772
-774
-773
-773
-773
-773
-774
-775
-775
-776
-777
-778
-779
-779
-780
-781
-782
-781
-782
-782
-782
-783
-782
-782
-781
-782
-782
-782
-782
-781
-780
-780
-780
-779
-779
-778
-778
-777
-777
-776
-776
-775
-775
-775
-774
-775
-775
-775
-775
-774
-774
-774
-774
-774
-774
-774
-774
-773
-773
-774
-774
-774
-774
-774
-774
-774
-775
-776
-776
-777
-777
-778
-778
-778
-779
-780
-779
-780
-780
-781
-781
-782
-781
-781
-783
-783
-783
-783
-784
-784
-783
-784
-784
-783
-783
-783
-782
-782
-782
-781
-781
-780
-779
-780
-779
-778
-777
-778
-777
-776
-776
-776
-776
-776
-775
-775
-776
-776
-775
-776
-775
-776
-775
-775
-775
-776
-775
-776
-775
-775
-776
-776
-776
-776
-775
-776
-776
-776
-776
-776
-776
-776
-776
-776
-777
-777
-778
-778
-779
-779
-780
-780
-781
-780
-780
-780
-782
-781
-781
-781
-780
-781
-781
-780
-780
-780
-780
-780
-780
-781
-780
-780
-779
-779
-779
-778
-778
-778
-777
-777
-777
-776
-776
-775
-776
-776
-776
-776
-776
-776
-778
-778
-778
-778
-779
-779
-779
-779
-780
-779
-780
-780
-780
-780
-780
-781
-781
-781
-781
-780
-780
-780
-779
-779
-778
-777
-776
-775
-774
-774
-773
-771
-771
-771
-770
-769
-769
-768
-767
-767
-766
-766
-767
-766
-767
-767
-768
-768
-768
-769
-770
-770
-771
-771
-772
-773
-775
-775
-776
-777
-778
-779
-780
-781
-781
-781
-781
-782
-782
-783
-782
-782
-782
-783
-783
-782
-782
-783
-783
-782
-783
-783
-783
-783
-783
-782
-782
-782
-782
-782
-781
-782
-782
-782
-782
-783
-783
-782
-782
-782
-782
-782
-782
-782
-782
-781
-781
-780
-780
-779
-779
-778
-777
-777
-776
-776
-777
-777
-777
-777
-777
-776
-776
-777
-776
-777
-777
-778
-777
-778
-778
-778
-778
-779
-778
-778
-779
-778
-779
-779
-779
-779
-780
-780
-779
-779
-779
-779
-779
-780
-779
-778
-778
-778
-778
-779
-778
-778
-778
-777
-777
-777
-776
-776
-776
-774
-774
-773
-773
-772
-772
-771
-772
-771
-770
-770
-769
-767
-766
-765
-764
-761
-759
-758
-755
-754
-752
-749
-747
-744
-742
-740
-738
-737
-737
-737
-737
-739
-740
-744
-748
-754
-759
-766
-773
-781
-790
-798
-807
-818
-827
-839
-849
-858
-868
-878
-887
-894
-902
-909
-914
-918
-922
-924
-926
-927
-927
-926
-925
-923
-921
-917
-913
-909
-906
-902
-898
-894
-889
-885
-880
-876
-871
-867
-862
-858
-854
-849
-845
-841
-835
-831
-827
-822
-817
-812
-808
-803
-800
-795
-791
-788
-784
-779
-776
-773
-771
-768
-765
-763
-762
-760
-759
-758
-758
-757
-757
-756
-756
-757
-757
-757
-757
-758
-758
-758
-758
-758
-757
-757
-758
-758
-757
-758
-758
-758
-758
-758
-758
-758
-758
-758
-759
-759
-760
-760
-760
-760
-760
-760
-760
-761
-761
-761
-762
-761
-762
-762
-762
-762
-762
-762
-762
-762
-762
-761
-761
-759
-759
-758
-758
-756
-754
-754
-754
-752
-751
-751
-751
-751
-750
-750
-750
-750
-750
-750
-751
-751
-752
-752
-753
-753
-754
-754
-755
-756
-757
-758
-757
-759
-759
-760
-760
-760
-760
-761
-760
-761
-761
-760
-761
-760
-760
-759
-759
-759
-759
-759
-758
-758
-757
-758
-757
-756
-756
-756
-755
-754
-754
-753
-754
-753
-753
-753
-752
-753
-753
-753
-754
-754
-755
-755
-755
-756
-756
-756
-757
-758
-758
-757
-757
-758
-758
-758
-758
-758
-758
-758
-758
-758
-758
-758
-759
-758
-758
-758
-759
-759
-759
-760
-760
-760
-760
-761
-762
-761
-761
-762
-762
-763
-762
-763
-762
-762
-762
-761
-761
-760
-760
-759
-758
-759
-758
-758
-758
-759
-759
-759
-759
-759
-760
-760
-761
-760
-761
-761
-762
-762
-762
-762
-763
-763
-763
-763
-763
-764
-764
-765
-765
-766
-766
-767
-767
-767
-768
-769
-769
-769
-769
-769
-769
-771
-770
-771
-771
-770
-770
-771
-771
-771
-771
-771
-771
-772
-771
-772
-771
-771
-771
-772
-772
-773
-772
-773
-774
-775
-775
-776
-777
-778
-779
-780
-780
-781
-781
-782
-782
-782
-782
-783
-782
-783
-782
-783
-782
-782
-783
-782
-782
-781
-782
-781
-782
-781
-782
-781
-781
-780
-779
-779
-778
-777
-777
-777
-775
-775
-774
-773
-773
-773
-772
-772
-772
-771
-770
-770
-769
-769
-769
-769
-768
-768
-769
-769
-769
-769
-769
-768
-769
-769
-769
-769
-769
-769
-768
-768
-768
-767
-768
-767
-766
-766
-766
-764
-765
-765
-765
-765
-765
-765
-765
-766
-766
-766
-767
-767
-768
-767
-767
-767
-767
-769
-768
-768
-769
-769
-768
-768
-768
-769
-768
-768
-768
-767
-767
-767
-767
-767
-767
-766
-767
-766
-767
-767
-768
-767
-768
-769
-769
-770
-770
-770
-770
-770
-770
-770
-770
-769
-769
-768
-768
-767
-768
-767
-767
-766
-766
-766
-765
-765
-765
-765
-764
-764
-764
-764
-764
-764
-765
-764
-765
-764
-764
-765
-764
-765
-765
-766
-766
-766
-765
-765
-765
-765
-766
-766
-766
-766
-765
-765
-765
-765
-765
-764
-765
-765
-765
-765
-765
-765
-766
-765
-766
-765
-766
-765
-765
-765
-765
-764
-764
-764
-764
-763
-763
-764
-764
-763
-763
-763
-763
-763
-763
-763
-763
-763
-763
-763
-763
-763
-764
-764
-764
-765
-765
-766
-766
-767
-767
-768
-769
-769
-769
-770
-769
-770
-769
-769
-769
-768
-768
-768
-767
-768
-767
-766
-766
-765
-766
-765
-765
-765
-764
-764
-764
-764
-763
-764
-763
-763
-762
-762
-761
-762
-761
-761
-762
-762
-763
-763
-763
-763
-763
-763
-764
-765
-765
-765
-766
-766
-766
-766
-767
-766
-766
-767
-767
-767
-767
-767
-767
-766
-766
-766
-765
-765
-765
-764
-764
-764
-764
-764
-764
-764
-764
-764
-766
-766
-767
-767
-769
-769
-770
-771
-771
-772
-772
-772
-773
-773
-774
-774
-774
-775
-774
-774
-774
-773
-773
-773
-772
-772
-771
-770
-770
-769
-769
-768
-767
-767
-766
-766
-766
-766
-765
-765
-766
-766
-766
-767
-768
-768
-768
-769
-769
-770
-771
-770
-771
-771
-772
-772
-772
-772
-772
-772
-772
-772
-772
-772
-771
-771
-771
-771
-771
-771
-770
-771
-770
-770
-769
-770
-770
-770
-770
-771
-771
-771
-772
-772
-772
-774
-774
-774
-774
-774
-773
-773
-772
-772
-771
-771
-770
-769
-769
-769
-768
-768
-768
-767
-767
-767
-768
-767
-768
-768
-768
-768
-770
-770
-771
-771
-771
-772
-772
-774
-774
-774
-774
-774
-774
-774
-774
-775
-775
-775
-774
-774
-773
-773
-772
-772
-772
-771
-771
-771
-770
-771
-770
-771
-771
-770
-771
-770
-770
-770
-769
-769
-769
-768
-768
-768
-768
-768
-768
-768
-767
-767
-767
-766
-766
-766
-765
-765
-765
-764
-763
-762
-762
-761
-760
-760
-760
-759
-758
-758
-758
-758
-758
-758
-757
-757
-757
-757
-758
-758
-758
-759
-759
-760
-761
-761
-761
-762
-763
-764
-765
-766
-767
-768
-769
-770
-771
-772
-773
-773
-774
-775
-776
-776
-776
-776
-776
-777
-777
-778
-778
-779
-779
-779
-779
-779
-779
-778
-779
-778
-778
-778
-778
-777
-778
-777
-777
-777
-777
-777
-777
-777
-777
-777
-777
-777
-777
-777
-777
-778
-777
-777
-778
-777
-777
-777
-776
-776
-775
-775
-774
-774
-773
-773
-772
-771
-771
-770
-769
-769
-768
-768
-767
-767
-766
-766
-765
-766
-766
-766
-767
-767
-768
-769
-769
-770
-771
-772
-772
-773
-773
-774
-774
-775
-775
-775
-775
-775
-776
-775
-776
-775
-775
-775
-775
-774
-775
-775
-774
-773
-772
-772
-771
-769
-769
-767
-767
-765
-764
-763
-761
-759
-757
-755
-752
-750
-747
-745
-741
-739
-736
-733
-731
-730
-729
-728
-727
-727
-729
-731
-734
-738
-743
-749
-755
-763
-771
-780
-788
-799
-808
-818
-828
-839
-849
-860
-869
-878
-887
-894
-901
-907
-913
-917
-921
-923
-925
-925
-924
-923
-921
-918
-915
-911
-909
-905
-900
-896
-891
-886
-882
-877
-873
-868
-864
-859
-855
-850
-846
-842
-838
-834
-829
-825
-820
-816
-812
-808
-804
-800
-796
-792
-789
-785
-782
-778
-775
-773
-771
-768
-766
-765
-762
-761
-760
-759
-758
-757
-757
-756
-756
-756
-756
-756
-755
-755
-755
-755
-755
-754
-754
-754
-755
-754
-753
-754
-754
-754
-754
-753
-753
-753
-752
-752
-752
-752
-752
-752
-751
-751
-751
-751
-750
-751
-750
-749
-749
-749
-749
-749
-749
-749
-749
-749
-749
-749
-750
-750
-750
-750
-750
-750
-750
-750
-750
-750
-751
-751
-750
-751
-751
-752
-752
-753
-753
-752
-753
-753
-753
-752
-752
-752
-752
-752
-751
-752
-752
-751
-752
-752
-752
-753
-752
-752
-752
-752
-753
-753
-753
-752
-753
-752
-752
-752
-751
-752
-752
-752
-752
-752
-752
-753
-754
-754
-755
-755
-756
-756
-756
-756
-756
-756
-756
-756
-755
-755
-755
-755
-754
-754
-753
-753
-754
-753
-752
-752
-751
-751
-750
-750
-749
-749
-749
-748
-748
-748
-748
-748
-747
-747
-747
-748
-748
-748
-748
-748
-748
-748
-748
-748
-749
-749
-750
-750
-750
-751
-751
-751
-752
-751
-752
-753
-753
-753
-754
-754
-753
-753
-754
-754
-754
-754
-754
-754
-754
-755
-755
-755
-755
-756
-757
-757
-758
-759
-760
-760
-761
-761
-762
-762
-763
-762
-763
-763
-762
-763
-762
-762
-762
-762
-761
-762
-762
-762
-761
-762
-761
-762
-762
-762
-762
-762
-763
-763
-764
-764
-765
-765
-766
-767
-767
-768
-769
-770
-771
-772
-772
-773
-773
-773
-775
-775
-776
-776
-776
-777
-777
-777
-777
-778
-777
-777
-777
-777
-776
-776
-776
-776
-775
-774
-774
-773
-772
-772
-773
-772
-772
-772
-772
-772
-772
-773
-773
-773
-774
-774
-775
-775
-776
-776
-776
-776
-776
-776
-776
-776
-776
-776
-776
-776
-776
-775
-775
-775
-773
-772
-772
-771
-770
-769
-768
-767
-765
-765
-764
-763
-762
-763
-762
-762
-762
-763
-763
-762
-762
-763
-763
-763
-763
-764
-764
-764
-764
-764
-765
-764
-764
-764
-763
-763
-762
-761
-761
-761
-760
-760
-760
-760
-759
-759
-758
-758
-758
-758
-758
-758
-759
-760
-760
-761
-761
-761
-762
-763
-763
-763
-764
-764
-765
-765
-766
-764
-765
-765
-765
-764
-764
-764
-764
-764
-763
-763
-763
-763
-763
-763
-762
-762
-762
-761
-761
-760
-760
-759
-759
-759
-758
-758
-758
-758
-757
-758
-758
-758
-757
-758
-757
-758
-757
-757
-758
-757
-758
-757
-758
-758
-758
-758
-759
-759
-759
-759
-760
-760
-760
-760
-761
-760
-760
-760
-758
-758
-757
-757
-756
-755
-754
-753
-753
-753
-754
-753
-754
-753
-753
-755
-755
-755
-756
-756
-758
-758
-759
-759
-759
-760
-761
-761
-761
-761
-762
-762
-762
-763
-763
-763
-764
-763
-763
-763
-763
-763
-763
-763
-763
-763
-763
-763
-762
-762
-762
-760
-760
-760
-758
-758
-757
-755
-755
-754
-754
-753
-752
-752
-750
-750
-749
-749
-750
-749
-750
-750
-751
-752
-751
-752
-753
-753
-754
-754
-755
-756
-756
-756
-756
-756
-757
-757
-757
-758
-757
-758
-758
-758
-758
-758
-758
-758
-758
-757
-758
-758
-758
-758
-757
-757
-756
-756
-756
-755
-756
-755
-755
-756
-756
-756
-755
-755
-755
-755
-755
-755
-756
-755
-756
-756
-757
-757
-758
-758
-759
-760
-760
-761
-762
-763
-763
-764
-764
-764
-765
-765
-764
-764
-764
-763
-763
-764
-763
-763
-763
-762
-762
-762
-762
-762
-761
-761
-761
-760
-760
-760
-760
-760
-759
-760
-759
-760
-760
-760
-760
-761
-760
-761
-761
-760
-761
-762
-761
-762
-761
-762
-762
-762
-762
-762
-762
-762
-762
-761
-762
-761
-761
-761
-761
-760
-760
-760
-759
-759
-758
-758
-758
-758
-758
-758
-757
-758
-758
-758
-759
-759
-759
-760
-761
-761
-761
-762
-762
-762
-762
-762
-763
-763
-763
-763
-762
-763
-763
-762
-763
-763
-763
-762
-763
-762
-762
-762
-761
-762
-762
-762
-762
-762
-762
-762
-762
-763
-763
-763
-763
-764
-764
-765
-765
-764
-764
-765
-765
-763
-763
-763
-762
-762
-761
-760
-759
-759
-758
-758
-758
-757
-757
-757
-757
-756
-757
-757
-758
-758
-758
-759
-760
-760
-761
-761
-761
-762
-762
-764
-764
-764
-764
-764
-765
-765
-765
-764
-764
-763
-763
-762
-761
-760
-760
-759
-758
-757
-756
-755
-754
-753
-752
-752
-751
-750
-750
-749
-749
-749
-748
-748
-748
-748
-748
-748
-748
-749
-750
-751
-752
-752
-753
-754
-754
-756
-756
-757
-757
-758
-759
-759
-759
-760
-760
-761
-761
-763
-763
-764
-765
-765
-766
-766
-767
-768
-768
-768
-769
-768
-769
-769
-769
-769
-768
-768
-767
-767
-767
-767
-766
-765
-766
-766
-766
-765
-766
-766
-766
-766
-766
-766
-767
-766
-767
-768
-769
-769
-770
-770
-771
-771
-770
-770
-770
-769
-769
-768
-768
-767
-766
-766
-765
-764
-763
-762
-761
-761
-760
-759
-758
-758
-758
-758
-757
-757
-757
-757
-756
-756
-756
-756
-755
-755
-756
-756
-756
-756
-756
-757
-757
-758
-759
-759
-759
-760
-759
-759
-760
-760
-760
-759
-759
-759
-758
-758
-757
-756
-756
-756
-755
-754
-753
-752
-750
-750
-748
-746
-745
-742
-741
-739
-736
-735
-733
-731
-729
-728
-726
-726
-725
-725
-726
-726
-728
-730
-733
-735
-740
-744
-750
-756
-762
-770
-778
-785
-794
-803
-812
-820
-829
-837
-846
-853
-860
-868
-873
-878
-883
-886
-888
-891
-891
-891
-890
-888
-887
-884
-882
-879
-876
-872
-868
-864
-861
-856
-852
-847
-843
-839
-835
-832
-828
-823
-819
-816
-812
-808
-806
-802
-798
-795
-792
-788
-785
-783
-779
-776
-774
-771
-769
-767
-765
-762
-760
-758
-757
-754
-754
-752
-751
-751
-749
-749
-748
-747
-747
-747
-747
-747
-747
-746
-746
-746
-746
-746
-747
-747
-748
-748
-749
-750
-751
-751
-753
-753
-753
-752
-753
-752
-753
-752
-752
-752
-752
-751
-750
-749
-749
-748
-747
-747
-746
-745
-745
-746
-745
-746
-746
-747
-747
-747
-747
-748
-748
-748
-748
-748
-749
-749
-749
-749
-749
-749
-749
-748
-748
-748
-747
-746
-746
-745
-745
-744
-744
-744
-744
-744
-745
-745
-746
-746
-747
-747
-748
-748
-748
-749
-749
-749
-749
-749
-748
-747
-747
-747
-747
-747
-747
-747
-748
-747
-747
-748
-748
-748
-749
-749
-749
-750
-750
-751
-751
-751
-751
-750
-750
-750
-750
-750
-749
-749
-749
-748
-748
-748
-748
-747
-747
-747
-746
-746
-747
-746
-747
-747
-747
-747
-748
-749
-749
-749
-751
-751
-752
-752
-752
-753
-753
-753
-753
-753
-754
-753
-754
-753
-753
-753
-753
-753
-753
-753
-753
-754
-753
-753
-753
-753
-753
-752
-752
-753
-753
-753
-754
-754
-755
-755
-755
-755
-757
-757
-758
-758
-759
-759
-760
-760
-760
-760
-759
-760
-760
-759
-759
-758
-758
-758
-757
-758
-759
-758
-759
-760
-760
-761
-762
-762
-762
-764
-763
-764
-766
-766
-766
-767
-767
-768
-769
-769
-769
-770
-770
-771
-771
-771
-771
-772
-772
-772
-772
-772
-772
-771
-771
-771
-772
-771
-772
-772
-771
-772
-772
-772
-772
-773
-773
-774
-774
-774
-774
-774
-775
-775
-776
-776
-777
-776
-777
-778
-778
-778
-778
-780
-780
-780
-780
-780
-780
-780
-780
-780
-780
-778
-778
-778
-778
-776
-776
-776
-775
-774
-773
-772
-772
-771
-770
-769
-767
-766
-764
-764
-762
-761
-761
-760
-759
-759
-759
-758
-758
-759
-759
-759
-759
-759
-758
-759
-758
-758
-758
-758
-759
-759
-758
-758
-757
-757
-757
-757
-757
-757
-756
-757
-757
-757
-756
-756
-757
-757
-756
-756
-756
-755
-755
-755
-755
-754
-754
-755
-754
-754
-754
-753
-753
-754
-753
-753
-753
-753
-752
-752
-751
-751
-751
-750
-750
-750
-749
-749
-749
-749
-749
-750
-750
-750
-750
-751
-751
-752
-752
-754
-754
-755
-755
-757
-758
-758
-759
-760
-761
-762
-762
-763
-763
-763
-763
-763
-763
-763
-762
-761
-760
-760
-759
-758
-757
-756
-756
-755
-755
-755
-754
-755
-754
-755
-755
-755
-755
-755
-755
-755
-755
-755
-754
-754
-755
-754
-755
-754
-754
-754
-755
-754
-754
-753
-753
-754
-753
-753
-752
-753
-753
-753
-753
-754
-753
-753
-753
-754
-753
-754
-754
-755
-754
-754
-755
-754
-754
-754
-754
-754
-753
-753
-753
-752
-753
-753
-753
-754
-753
-754
-754
-755
-755
-756
-756
-757
-757
-758
-758
-758
-759
-760
-760
-760
-761
-760
-761
-761
-761
-762
-762
-763
-763
-763
-764
-764
-764
-764
-765
-765
-765
-765
-765
-764
-764
-765
-765
-764
-765
-765
-765
-764
-765
-765
-764
-764
-763
-762
-762
-762
-761
-760
-760
-760
-759
-759
-758
-758
-756
-756
-756
-755
-756
-756
-756
-756
-756
-757
-757
-757
-757
-758
-759
-759
-761
-761
-763
-763
-764
-766
-767
-768
-769
-770
-771
-771
-772
-772
-772
-773
-772
-772
-772
-771
-771
-770
-770
-769
-769
-768
-767
-766
-766
-765
-764
-764
-764
-763
-763
-763
-763
-762
-763
-763
-763
-764
-764
-764
-765
-765
-766
-767
-767
-768
-768
-768
-769
-769
-769
-769
-769
-769
-769
-768
-768
-768
-769
-768
-769
-768
-769
-769
-768
-769
-769
-768
-768
-768
-768
-768
-767
-766
-766
-766
-766
-765
-765
-764
-765
-764
-764
-764
-764
-764
-764
-764
-764
-765
-765
-766
-766
-766
-766
-766
-767
-767
-766
-767
-767
-767
-767
-767
-767
-766
-766
-766
-765
-766
-765
-766
-765
-765
-766
-766
-766
-766
-767
-767
-768
-769
-769
-769
-770
-771
-771
-772
-772
-772
-773
-773
-772
-772
-772
-772
-771
-771
-771
-770
-769
-769
-768
-768
-767
-766
-765
-764
-764
-764
-762
-762
-762
-760
-760
-759
-759
-759
-758
-758
-758
-758
-758
-759
-759
-759
-759
-761
-761
-761
-762
-762
-763
-764
-765
-766
-766
-766
-767
-768
-768
-769
-770
-770
-771
-772
-772
-773
-772
-774
-774
-774
-774
-774
-774
-774
-775
-776
-777
-777
-778
-778
-779
-779
-779
-779
-779
-779
-779
-779
-779
-778
-778
-778
-777
-777
-776
-776
-775
-775
-775
-774
-774
-773
-773
-773
-773
-772
-772
-771
-771
-771
-771
-770
-770
-769
-770
-769
-770
-770
-770
-770
-771
-771
-771
-772
-772
-772
-772
-772
-772
-772
-771
-771
-770
-770
-770
-770
-769
-768
-768
-768
-767
-767
-766
-766
-766
-765
-766
-765
-764
-764
-764
-764
-764
-764
-764
-763
-764
-764
-765
-765
-765
-765
-765
-765
-765
-766
-765
-765
-764
-764
-763
-761
-760
-759
-756
-754
-752
-750
-747
-745
-743
-740
-738
-736
-734
-733
-731
-730
-730
-729
-730
-731
-732
-735
-739
-743
-747
-754
-760
-768
-776
-784
-793
-801
-810
-820
-828
-838
-847
-855
-863
-871
-878
-884
-890
-895
-899
-902
-904
-906
-906
-906
-906
-905
-903
-901
-899
-896
-894
-890
-887
-883
-879
-875
-871
-867
-864
-859
-856
-851
-848
-843
-840
-835
-830
-825
-820
-817
-811
-806
-802
-797
-792
-787
-784
-779
-775
-771
-768
-765
-762
-760
-757
-755
-753
-752
-751
-750
-749
-748
-748
-747
-747
-747
-747
-747
-748
-748
-748
-749
-750
-750
-750
-751
-751
-751
-752
-752
-752
-752
-752
-753
-753
-753
-753
-753
-753
-753
-753
-753
-753
-754
-754
-755
-754
-755
-755
-755
-755
-755
-756
-756
-756
-756
-756
-756
-757
-756
-757
-757
-756
-757
-756
-756
-755
-755
-755
-755
-754
-753
-753
-753
-752
-751
-751
-750
-750
-749
-749
-748
-749
-748
-747
-747
-748
-747
-747
-746
-747
-746
-747
-746
-747
-747
-747
-748
-747
-748
-747
-748
-748
-748
-748
-748
-748
-749
-749
-747
-747
-747
-747
-747
-746
-746
-745
-745
-745
-745
-744
-744
-744
-744
-744
-746
-746
-746
-747
-748
-748
-747
-748
-749
-748
-749
-749
-750
-749
-750
-750
-751
-751
-751
-752
-752
-752
-752
-752
-751
-751
-751
-751
-751
-751
-751
-751
-751
-751
-752
-751
-752
-752
-752
-752
-753
-754
-754
-753
-754
-754
-755
-754
-754
-754
-755
-755
-754
-754
-754
-754
-754
-753
-753
-754
-754
-753
-753
-753
-752
-752
-752
-751
-752
-751
-751
-751
-751
-751
-750
-750
-750
-751
-751
-750
-750
-751
-751
-751
-751
-751
-751
-752
-751
-751
-752
-752
-753
-753
-754
-755
-756
-756
-757
-757
-759
-759
-760
-760
-761
-762
-762
-763
-764
-764
-764
-765
-766
-766
-766
-767
-767
-767
-767
-767
-767
-767
-767
-766
-766
-766
-765
-765
-764
-764
-764
-763
-763
-763
-763
-763
-763
-764
-764
-765
-765
-766
-766
-768
-768
-769
-769
-769
-769
-769
-769
-770
-769
-769
-769
-768
-769
-769
-768
-768
-767
-767
-767
-766
-765
-765
-764
-763
-764
-763
-763
-763
-762
-762
-761
-761
-760
-760
-760
-760
-760
-759
-759
-760
-759
-759
-758
-759
-758
-758
-759
-758
-758
-758
-759
-759
-758
-758
-757
-758
-758
-758
-757
-757
-757
-757
-757
-756
-756
-755
-755
-754
-754
-754
-754
-754
-754
-753
-754
-753
-752
-753
-753
-753
-752
-752
-753
-752
-752
-752
-752
-752
-752
-752
-752
-752
-752
-752
-752
-752
-751
-752
-752
-751
-751
-751
-750
-751
-751
-751
-751
-751
-750
-751
-751
-751
-752
-752
-753
-753
-755
-755
-755
-756
-756
-755
-756
-756
-756
-756
-755
-755
-755
-755
-754
-754
-753
-753
-753
-752
-752
-752
-752
-752
-751
-751
-751
-751
-751
-751
-751
-752
-751
-752
-752
-752
-753
-753
-753
-753
-753
-753
-753
-753
