# Simple Text Format
# Sampling Rate (Hz):= 1200.00
# Resolution:= 12
# Labels:= ECG	 V3
# Age:=	41
# Gender:=	Feminino
58
57
58
58
58
59
60
60
61
61
62
61
62
62
62
62
63
63
63
63
64
64
64
64
65
65
66
66
66
67
66
66
66
66
67
67
67
66
67
67
67
67
67
67
67
67
67
66
67
66
66
66
66
66
66
66
66
66
68
68
68
69
70
71
71
72
73
74
74
74
75
76
76
76
78
77
78
78
78
79
80
80
80
81
81
82
81
81
82
82
81
81
81
81
81
82
82
82
83
83
84
85
85
86
87
88
88
89
90
91
92
92
93
93
94
95
95
95
96
96
97
97
98
98
99
99
99
100
100
99
101
100
102
102
102
102
103
104
105
106
106
107
108
108
109
110
111
112
113
113
114
114
115
115
116
117
118
118
119
120
119
120
121
122
123
123
123
123
124
124
124
124
124
124
124
125
124
125
126
125
125
125
125
126
126
126
126
127
127
127
128
128
128
128
128
128
128
127
127
128
128
128
127
126
126
126
125
126
125
125
124
124
123
123
122
122
120
120
119
119
119
118
117
116
116
115
114
113
112
111
110
108
108
106
105
104
103
102
101
101
100
100
99
99
98
98
97
97
96
96
95
93
94
92
91
90
90
88
88
86
85
85
83
82
81
81
79
79
77
77
76
76
75
75
73
73
73
73
73
73
73
73
73
72
73
73
72
73
72
72
72
72
72
72
71
71
71
71
70
71
71
70
70
71
70
70
70
70
69
69
69
69
69
68
68
68
68
67
67
67
68
68
68
68
67
68
68
68
68
68
67
67
67
66
66
65
66
65
66
66
65
65
64
65
65
65
64
64
64
63
63
64
64
63
63
64
64
64
64
65
65
65
65
66
66
67
66
67
67
67
67
67
67
66
66
66
66
66
66
66
66
65
65
65
65
65
66
66
66
65
65
66
65
65
65
65
66
65
65
66
66
66
67
67
68
68
68
68
68
68
67
67
67
67
66
67
66
66
66
65
65
65
66
65
65
65
65
66
66
66
67
68
68
68
69
69
69
69
70
70
70
70
70
70
71
70
70
71
70
70
70
69
70
69
69
69
68
69
68
69
69
69
69
69
69
69
69
69
68
68
68
68
68
67
67
66
66
66
66
66
66
66
67
66
66
67
66
66
65
65
65
64
65
64
64
64
64
63
64
64
64
64
64
65
66
66
66
66
67
67
67
68
68
69
69
69
69
69
70
69
69
69
70
69
68
69
69
67
67
67
66
66
65
64
63
63
63
63
62
62
62
61
62
62
61
62
61
62
62
63
62
62
62
63
63
63
63
63
63
63
63
63
64
64
63
64
63
64
64
63
63
63
63
63
63
63
63
62
62
62
62
62
62
62
62
62
62
62
61
61
60
60
61
61
61
62
62
62
62
63
64
64
64
65
65
64
65
65
66
66
66
67
67
67
67
67
67
67
67
68
68
69
69
70
71
71
72
73
73
73
74
75
74
74
74
74
75
75
75
75
75
76
76
76
76
76
77
76
76
77
77
77
77
77
77
77
76
77
77
77
76
76
75
76
76
74
75
74
73
72
71
70
70
68
68
67
66
66
66
66
65
65
64
64
64
64
64
64
62
63
63
62
62
62
62
62
62
62
62
62
63
63
64
63
64
65
65
65
65
65
64
64
63
63
63
62
62
61
61
60
60
59
59
59
58
58
58
58
58
58
59
59
59
60
59
60
60
61
61
61
62
62
61
61
60
60
61
60
60
60
59
59
58
58
57
57
57
57
58
58
59
60
61
62
63
65
67
68
70
72
74
77
79
81
85
89
92
95
98
103
109
115
121
128
135
143
150
159
166
175
182
191
199
207
215
223
230
236
242
246
251
255
257
259
258
257
254
250
244
237
228
218
206
194
181
167
153
138
123
108
92
78
62
48
34
21
9
-2
-12
-21
-28
-34
-39
-42
-44
-46
-45
-44
-42
-38
-35
-30
-26
-21
-15
-10
-4
2
7
12
17
21
25
29
32
35
38
40
43
44
46
47
47
49
49
50
51
51
52
52
52
53
53
54
54
54
54
55
56
56
56
55
56
56
55
55
56
55
55
54
54
54
54
54
54
54
54
55
55
55
55
56
55
56
57
57
58
59
59
60
60
60
60
60
60
60
60
61
61
61
61
61
62
62
62
62
62
61
61
61
61
61
60
60
60
60
59
59
59
59
58
58
57
58
58
57
58
58
58
58
58
58
58
59
60
60
60
61
62
62
63
63
64
65
66
65
66
66
65
66
66
65
65
65
65
65
65
64
64
65
64
64
64
64
64
64
64
64
65
65
65
65
65
65
65
65
65
66
66
67
67
67
67
67
68
68
68
69
70
69
69
70
70
70
71
71
71
71
72
73
73
74
74
76
76
77
77
77
77
78
79
79
79
79
80
81
81
82
82
82
82
82
83
82
83
82
83
83
83
83
83
83
83
84
84
84
84
86
86
87
87
89
90
90
91
93
93
94
95
96
96
98
98
99
100
100
101
102
102
103
104
104
104
105
105
104
106
105
105
104
104
104
104
103
103
103
103
103
103
103
102
102
102
103
103
103
103
105
104
104
105
105
105
105
104
105
105
104
104
104
104
103
103
102
102
101
100
100
99
98
98
97
97
96
96
96
95
95
95
94
94
94
93
93
92
91
91
90
90
90
89
87
86
85
83
82
81
81
79
78
77
75
75
74
73
71
70
69
68
68
67
66
64
64
63
63
62
60
60
59
59
58
58
57
57
57
56
55
55
55
54
54
53
54
52
52
52
52
52
52
52
51
52
52
51
51
51
51
49
49
48
48
47
47
46
46
45
44
45
44
45
44
44
44
44
44
44
45
44
44
44
44
42
42
41
41
40
40
39
39
39
38
38
38
38
37
37
37
37
38
39
39
39
39
40
41
41
43
43
43
44
44
45
45
45
44
45
45
44
44
42
42
42
40
40
39
38
38
38
37
38
37
38
38
39
38
39
40
40
41
41
42
42
43
43
43
44
44
44
44
44
44
44
45
44
44
44
44
43
42
43
43
42
42
42
42
42
42
42
42
42
43
43
43
44
43
44
45
44
45
44
44
43
43
43
42
42
42
42
41
42
42
42
42
43
42
43
43
44
44
44
45
45
46
47
47
47
48
48
50
50
50
50
50
50
50
50
49
49
49
49
48
47
46
46
46
45
45
44
44
43
43
42
42
42
41
41
41
41
40
41
41
40
39
39
39
39
38
38
39
39
39
40
39
40
40
41
41
42
42
43
44
43
45
45
46
47
47
48
49
50
50
50
50
51
51
50
50
49
48
48
47
46
45
44
43
41
41
41
39
39
39
39
39
39
39
39
40
41
40
41
41
42
43
43
44
45
46
46
46
46
46
47
46
46
46
45
45
44
44
43
43
41
41
41
39
39
38
38
37
37
38
38
39
39
39
40
41
41
41
42
42
43
43
43
44
43
43
43
44
43
43
44
43
44
44
43
43
42
41
41
40
40
40
40
39
39
38
38
38
38
37
37
37
37
37
36
37
36
37
37
37
37
38
38
39
39
40
41
43
43
45
46
48
48
51
51
52
53
54
55
56
56
56
57
57
58
57
58
58
59
59
59
59
59
59
59
59
60
60
59
59
60
59
59
59
58
58
57
57
56
56
55
55
54
54
53
53
53
52
51
51
50
49
48
49
49
48
47
48
48
47
47
46
46
45
45
45
45
44
44
43
44
43
43
42
41
41
40
40
39
39
39
38
39
39
39
39
38
38
38
39
38
38
39
39
39
40
40
40
39
40
40
40
40
38
39
38
37
36
35
35
33
33
31
31
30
29
29
29
29
29
29
30
30
32
32
33
33
34
35
36
36
37
38
38
39
40
40
41
41
41
41
42
42
43
44
44
45
46
47
48
49
52
53
56
58
62
64
68
71
77
82
88
94
102
109
117
125
133
142
151
161
170
180
189
199
207
216
224
231
238
243
248
251
253
254
252
251
247
241
234
225
215
203
190
176
162
146
130
114
97
81
65
48
33
17
2
-11
-23
-35
-45
-54
-61
-66
-71
-74
-76
-76
-75
-74
-71
-68
-64
-60
-55
-50
-44
-38
-33
-27
-21
-17
-12
-6
-2
2
6
10
13
18
19
22
24
26
28
30
30
31
31
32
32
32
33
32
31
31
31
30
30
29
28
27
27
27
27
26
26
26
26
25
26
26
26
27
27
27
27
28
28
30
30
30
32
32
32
33
33
34
34
35
35
35
35
35
35
36
36
36
36
35
36
35
36
36
36
36
35
35
35
34
34
33
33
32
31
31
31
30
29
30
29
29
29
29
29
29
29
29
29
30
30
30
31
32
33
34
34
35
35
36
37
37
37
37
38
37
37
37
37
36
35
36
35
34
34
34
34
34
34
34
34
35
34
34
35
36
36
36
36
37
37
38
38
38
38
38
39
39
40
41
40
41
42
42
42
42
44
44
44
44
45
45
44
45
44
44
44
44
44
44
45
45
45
46
46
47
47
48
48
49
49
51
50
51
52
53
54
55
55
56
56
56
57
57
57
57
57
57
56
56
56
56
56
56
57
57
58
58
59
59
60
61
62
64
65
67
68
69
70
72
72
73
74
75
75
76
76
77
77
78
78
77
78
78
79
78
78
79
79
79
79
79
79
79
79
79
80
80
80
80
80
80
80
82
82
82
82
82
82
82
81
81
81
81
82
82
82
81
81
82
82
81
81
80
80
79
79
78
77
76
75
73
72
71
70
69
68
67
67
66
65
65
64
64
64
64
64
62
62
61
60
60
59
59
57
57
56
55
56
55
54
52
52
51
50
49
49
47
46
45
44
42
42
40
39
37
37
35
34
33
32
31
31
29
29
27
28
27
26
25
25
25
24
24
23
24
23
23
22
23
23
22
23
22
22
22
21
21
20
19
20
19
18
18
17
17
17
17
17
17
17
17
17
17
17
18
18
18
17
18
18
18
17
18
18
17
17
17
17
17
17
17
17
17
16
15
16
16
16
16
16
15
15
15
14
14
15
14
14
14
14
15
14
15
14
15
14
14
14
14
14
14
13
14
13
13
13
13
12
12
13
12
11
12
12
11
11
11
11
10
11
10
10
11
11
11
10
11
12
12
12
12
13
13
13
14
13
13
12
12
13
12
11
12
12
11
12
11
11
11
11
12
12
11
12
12
13
13
15
15
16
16
17
17
18
18
19
19
19
20
20
20
20
21
21
20
20
20
20
19
19
19
19
19
19
18
17
18
18
18
19
19
20
19
20
20
20
20
20
19
18
18
18
18
18
16
16
16
17
16
17
16
17
17
18
18
17
18
18
18
19
19
18
18
18
18
18
18
18
17
17
16
16
16
15
14
13
13
13
14
14
14
14
14
14
14
14
14
15
15
16
16
16
17
17
18
18
18
18
17
18
18
17
17
16
16
16
15
15
15
15
15
15
15
15
16
15
15
16
15
16
16
16
16
16
16
17
17
17
18
18
18
19
18
19
19
18
19
18
19
19
18
18
18
18
17
16
16
16
17
16
16
16
15
15
15
14
14
15
14
14
14
14
13
14
13
14
13
14
15
15
15
15
16
16
15
16
16
16
15
15
15
14
15
14
14
14
13
13
12
13
13
13
12
12
12
13
12
12
13
13
13
12
13
13
14
14
15
15
16
17
18
19
20
21
22
23
24
25
25
26
27
26
28
29
29
29
29
30
31
31
30
30
30
30
29
30
29
29
28
28
28
27
26
26
26
24
25
24
24
24
24
24
24
24
24
24
24
24
24
24
23
23
22
22
21
21
20
19
18
18
17
16
15
14
13
12
12
11
11
11
10
10
10
10
11
10
11
12
11
12
14
14
15
15
15
15
15
15
15
15
15
13
13
13
12
11
10
10
9
9
8
7
7
6
6
4
4
4
3
3
3
2
2
2
2
1
1
2
1
2
3
3
2
3
3
3
3
3
4
3
4
4
4
4
4
5
5
5
5
6
6
8
8
9
11
12
13
15
16
17
19
22
24
28
31
34
39
43
47
50
56
62
68
73
80
88
95
102
110
118
125
134
143
151
159
167
175
183
190
196
202
208
212
216
217
218
218
216
213
207
201
193
183
172
159
146
132
117
101
85
69
52
36
21
5
-11
-25
-39
-52
-63
-73
-81
-89
-95
-99
-103
-103
-104
-103
-101
-97
-93
-88
-84
-79
-73
-67
-61
-55
-48
-43
-37
-32
-27
-22
-18
-14
-10
-7
-4
-2
1
1
3
5
5
5
6
7
7
7
7
7
6
6
6
7
7
7
6
5
6
6
6
6
7
6
6
7
7
6
6
6
6
6
6
5
5
6
5
6
5
6
6
6
6
6
6
6
7
7
6
7
7
7
7
7
8
7
7
8
9
9
9
9
9
10
10
10
9
9
8
9
9
8
8
9
9
9
9
9
10
10
10
10
11
11
12
12
12
12
12
12
12
12
13
13
13
14
14
14
14
14
14
14
14
13
13
13
13
13
14
14
14
14
13
13
14
14
14
14
14
14
14
14
14
14
14
13
13
14
14
14
14
15
15
15
16
17
16
17
18
19
19
20
20
21
22
22
22
23
23
23
23
24
24
24
24
24
23
23
24
23
24
24
25
25
25
25
25
26
25
26
27
27
27
28
29
29
31
31
33
33
34
35
36
38
39
39
40
42
42
43
44
44
46
46
47
47
48
48
49
50
50
50
51
51
52
52
52
52
53
53
53
54
54
55
56
57
57
58
59
60
60
60
61
62
63
63
64
64
64
65
65
65
65
65
66
65
66
66
67
66
66
66
65
65
65
65
64
64
63
63
63
62
62
61
61
60
60
59
59
58
58
58
58
57
56
56
56
55
54
54
54
52
52
52
51
51
50
50
49
49
48
47
46
45
44
43
42
41
39
38
37
34
33
32
31
29
28
27
27
26
25
24
23
23
22
22
21
22
21
21
21
20
20
19
19
19
18
18
18
18
17
17
16
15
15
14
13
12
11
10
10
8
8
7
7
6
6
5
3
3
3
2
1
1
0
0
-1
-1
-1
-1
-1
-1
-1
-1
-1
-1
0
0
0
0
1
0
1
1
1
1
1
0
0
0
0
-2
-2
-2
-3
-3
-3
-3
-3
-3
-4
-4
-4
-4
-5
-5
-4
-5
-5
-6
-6
-6
-6
-6
-6
-5
-6
-5
-6
-5
-5
-5
-5
-5
-5
-5
-5
-5
-4
-4
-4
-4
-3
-3
-2
-2
-2
-2
-1
-2
-1
-1
-1
-1
-1
-1
-1
-2
-1
-1
-1
-1
-1
-2
-1
-2
-2
-3
-3
-3
-2
-2
-2
-3
-3
-3
-4
-4
-4
-4
-4
-4
-4
-3
-3
-3
-2
-2
-2
-1
0
0
0
0
1
1
1
2
1
1
1
1
1
0
0
0
0
0
0
-1
-1
-2
-2
-2
-3
-3
-3
-5
-5
-5
-6
-5
-5
-5
-5
-4
-4
-3
-2
-2
-2
-2
-2
-2
-2
-1
-1
-1
-1
-1
-1
-1
-1
-1
-1
-2
-1
-1
-1
-1
-1
-1
-1
-2
-1
-1
-2
-1
-2
-2
-2
-3
-2
-3
-3
-3
-4
-4
-3
-4
-4
-4
-4
-4
-4
-4
-4
-4
-4
-4
-4
-4
-4
-4
-4
-4
-3
-3
-3
-3
-3
-2
-3
-4
-4
-4
-5
-5
-6
-6
-7
-7
-6
-7
-7
-8
-8
-8
-7
-8
-7
-7
-7
-7
-6
-6
-6
-6
-6
-5
-6
-5
-5
-6
-6
-6
-5
-5
-5
-5
-5
-4
-4
-4
-4
-4
-5
-4
-4
-5
-5
-4
-4
-4
-4
-4
-4
-4
-5
-5
-5
-6
-6
-6
-7
-7
-7
-8
-8
-8
-8
-9
-9
-9
-9
-9
-9
-9
-9
-9
-9
-8
-8
-9
-9
-8
-8
-9
-9
-8
-8
-8
-8
-7
-7
-7
-7
-6
-6
-5
-4
-5
-4
-4
-4
-4
-5
-5
-6
-6
-7
-7
-8
-8
-9
-9
-10
-11
-12
-12
-12
-13
-13
-14
-14
-15
-15
-14
-14
-15
-14
-14
-14
-13
-12
-12
-12
-12
-12
-11
-11
-11
-10
-10
-9
-9
-9
-9
-9
-8
-8
-8
-7
-7
-6
-6
-5
-5
-4
-3
-2
-1
0
1
1
2
3
4
5
5
5
5
6
6
6
6
5
5
5
5
4
4
3
4
3
3
3
3
3
3
3
3
3
3
3
3
4
3
3
3
3
2
3
2
1
1
1
0
0
0
-1
-1
-1
-1
-1
-1
-1
-1
-1
-1
-2
-2
-2
-3
-3
-4
-4
-5
-6
-7
-8
-9
-9
-11
-12
-13
-13
-14
-14
-14
-14
-15
-15
-14
-14
-14
-14
-14
-14
-14
-14
-12
-12
-12
-12
-12
-11
-10
-10
-9
-9
-8
-8
-8
-9
-8
-9
-9
-10
-10
-11
-11
-12
-13
-14
-15
-14
-15
-16
-16
-16
-17
-18
-18
-17
-18
-18
-17
-17
-17
-17
-16
-16
-15
-16
-15
-15
-15
-14
-13
-13
-13
-12
-12
-12
-11
-11
-10
-10
-8
-7
-5
-3
0
2
5
8
12
16
21
26
31
37
42
49
55
62
70
77
84
92
101
108
116
123
132
139
146
153
160
166
171
175
179
182
182
183
182
180
177
173
167
159
149
139
127
114
101
87
71
56
40
24
9
-7
-23
-37
-51
-64
-76
-86
-95
-103
-109
-113
-117
-119
-119
-118
-117
-114
-111
-106
-102
-97
-91
-86
-80
-74
-69
-63
-58
-53
-49
-44
-41
-37
-34
-31
-29
-27
-25
-24
-23
-22
-21
-22
-20
-20
-20
-20
-21
-20
-21
-21
-21
-19
-20
-20
-19
-18
-19
-19
-18
-18
-18
-18
-17
-17
-17
-17
-18
-17
-18
-18
-17
-17
-18
-18
-17
-18
-17
-18
-18
-18
-18
-19
-20
-19
-19
-20
-19
-19
-19
-19
-18
-18
-18
-18
-16
-16
-16
-16
-16
-16
-16
-16
-16
-15
-15
-15
-15
-15
-14
-14
-14
-14
-14
-14
-14
-13
-13
-13
-13
-13
-13
-12
-13
-13
-13
-12
-13
-13
-14
-13
-12
-13
-12
-12
-11
-11
-11
-11
-11
-11
-10
-10
-10
-9
-9
-8
-9
-8
-8
-8
-8
-8
-8
-8
-8
-8
-9
-8
-9
-9
-10
-11
-11
-11
-13
-13
-13
-13
-13
-13
-12
-12
-12
-11
-11
-11
-9
-9
-8
-8
-7
-6
-6
-5
-5
-4
-4
-3
-3
-2
-2
-2
-1
-1
0
0
0
0
2
2
2
2
1
2
2
2
2
3
3
3
4
4
4
5
5
5
6
6
7
7
7
8
8
9
9
11
11
12
13
13
14
14
16
16
18
18
19
20
21
21
22
22
22
23
23
23
25
25
26
27
27
28
29
30
30
32
32
33
33
35
35
35
36
35
36
36
36
36
36
36
36
36
36
35
35
35
35
35
34
34
34
33
33
32
33
32
32
32
31
31
31
32
32
33
33
33
34
34
34
33
34
34
34
34
33
33
34
33
32
32
31
30
29
29
27
27
25
24
23
22
20
19
18
16
15
15
13
12
11
10
10
9
9
8
8
7
6
6
5
4
4
3
2
1
0
-1
-2
-2
-4
-5
-6
-6
-7
-8
-8
-9
-10
-10
-11
-12
-13
-14
-13
-14
-14
-13
-14
-14
-13
-13
-14
-13
-14
-13
-14
-14
-14
-14
-16
-16
-17
-18
-20
-21
-22
-23
-24
-26
-26
-28
-28
-29
-31
-31
-32
-32
-32
-34
-34
-35
-35
-35
-36
-36
-36
-37
-37
-37
-37
-37
-37
-37
-36
-36
-36
-36
-35
-35
-34
-34
-33
-34
-33
-33
-33
-32
-32
-32
-32
-32
-32
-31
-32
-31
-31
-31
-31
-31
-31
-31
-32
-32
-32
-32
-33
-33
-33
-33
-34
-34
-36
-36
-35
-36
-37
-37
-37
-37
-38
-38
-38
-38
-37
-37
-37
-37
-37
-37
-36
-36
-37
-36
-36
-35
-35
-34
-34
-34
-34
-33
-33
-32
-33
-32
-32
-31
-31
-30
-30
-29
-29
-29
-29
-29
-29
-30
-30
-30
-31
-32
-33
-34
-36
-36
-38
-38
-39
-39
-40
-41
-41
-41
-41
-41
-40
-40
-40
-39
-39
-38
-38
-37
-37
-37
-37
-36
-36
-36
-35
-36
-35
-35
-36
-35
-35
-35
-36
-36
-36
-36
-37
-37
-37
-37
-38
-39
-39
-40
-40
-40
-41
-42
-42
-42
-43
-43
-44
-43
-43
-44
-44
-44
-43
-43
-43
-43
-43
-41
-42
-41
-40
-39
-38
-38
-37
-37
-36
-37
-37
-38
-38
-39
-39
-40
-40
-41
-41
-42
-43
-44
-45
-45
-45
-46
-45
-46
-46
-46
-46
-47
-46
-46
-46
-46
-46
-45
-45
-45
-45
-44
-44
-43
-43
-42
-42
-42
-41
-42
-41
-42
-42
-43
-43
-43
-44
-44
-45
-45
-46
-46
-46
-46
-46
-47
-47
-47
-47
-47
-47
-48
-47
-47
-47
-47
-47
-47
-47
-47
-47
-46
-46
-47
-46
-46
-45
-47
-46
-46
-46
-48
-48
-48
-49
-49
-49
-50
-50
-51
-51
-51
-50
-50
-49
-49
-48
-48
-48
-48
-47
-47
-47
-47
-46
-46
-46
-45
-45
-45
-45
-45
-45
-45
-45
-45
-46
-46
-46
-47
-47
-47
-47
-48
-49
-49
-48
-49
-49
-49
-50
-51
-51
-51
-51
-51
-52
-52
-52
-52
-52
-53
-53
-53
-53
-53
-54
-53
-53
-53
-52
-52
-52
-51
-51
-51
-51
-50
-50
-50
-50
-50
-50
-50
-50
-50
-50
-50
-50
-49
-50
-49
-50
-50
-51
-51
-50
-51
-51
-52
-52
-53
-53
-54
-54
-55
-55
-55
-54
-55
-55
-55
-54
-54
-54
-53
-53
-52
-52
-52
-51
-50
-50
-50
-49
-49
-48
-48
-48
-47
-47
-45
-45
-45
-43
-43
-42
-41
-41
-40
-40
-39
-39
-39
-38
-38
-38
-38
-37
-37
-37
-37
-37
-37
-37
-37
-37
-38
-37
-38
-38
-39
-40
-40
-41
-42
-42
-44
-45
-45
-46
-48
-48
-49
-50
-51
-52
-53
-54
-54
-55
-55
-56
-55
-57
-56
-57
-57
-57
-57
-57
-56
-56
-56
-55
-55
-55
-55
-55
-55
-55
-56
-56
-56
-56
-57
-57
-56
-57
-58
-59
-59
-60
-59
-60
-61
-61
-62
-62
-62
-63
-64
-64
-65
-65
-66
-67
-67
-67
-67
-68
-67
-68
-68
-68
-68
-70
-70
-70
-70
-71
-70
-70
-70
-70
-70
-70
-69
-69
-68
-68
-68
-67
-66
-65
-64
-64
-63
-62
-62
-61
-61
-59
-59
-59
-59
-59
-59
-59
-58
-58
-57
-54
-53
-52
-50
-48
-46
-43
-40
-37
-33
-29
-25
-20
-14
-8
-1
6
13
21
29
38
46
55
64
73
81
90
98
106
113
119
125
130
134
137
138
137
137
135
130
125
117
109
98
87
75
61
46
31
16
2
-14
-31
-46
-60
-75
-89
-102
-114
-125
-136
-144
-151
-157
-162
-166
-168
-170
-169
-169
-167
-165
-162
-159
-155
-151
-146
-140
-135
-130
-125
-120
-115
-109
-104
-100
-96
-92
-88
-85
-83
-80
-78
-78
-77
-76
-76
-75
-75
-75
-75
-75
-76
-76
-76
-76
-76
-77
-77
-77
-77
-78
-77
-77
-76
-76
-75
-74
-74
-73
-73
-73
-73
-73
-73
-72
-72
-72
-71
-71
-71
-71
-71
-71
-71
-71
-70
-70
-71
-70
-70
-69
-70
-69
-68
-68
-67
-67
-68
-67
-67
-67
-67
-68
-68
-68
-70
-70
-70
-70
-71
-71
-71
-71
-72
-72
-72
-72
-72
-72
-73
-73
-74
-74
-74
-74
-74
-75
-75
-75
-74
-74
-74
-74
-74
-74
-73
-73
-73
-71
-71
-70
-70
-70
-70
-70
-70
-70
-68
-68
-68
-67
-67
-67
-66
-67
-67
-67
-67
-67
-67
-68
-67
-67
-66
-66
-66
-66
-65
-65
-65
-64
-65
-64
-64
-64
-64
-64
-64
-63
-64
-63
-64
-64
-65
-64
-64
-64
-64
-63
-63
-62
-62
-61
-60
-59
-58
-57
-57
-57
-56
-55
-54
-55
-54
-54
-54
-54
-54
-53
-54
-54
-55
-54
-55
-55
-55
-55
-55
-55
-55
-55
-55
-54
-54
-54
-54
-53
-52
-51
-50
-50
-48
-48
-46
-46
-45
-44
-44
-43
-42
-42
-40
-40
-39
-38
-38
-37
-36
-35
-33
-32
-31
-31
-30
-29
-29
-28
-27
-27
-27
-27
-27
-27
-27
-27
-28
-29
-29
-29
-29
-30
-30
-30
-30
-30
-31
-31
-30
-30
-30
-30
-29
-28
-28
-27
-27
-25
-25
-24
-24
-24
-23
-23
-23
-22
-22
-23
-23
-22
-23
-23
-24
-25
-25
-26
-27
-27
-27
-28
-28
-28
-30
-30
-30
-31
-32
-32
-32
-33
-33
-34
-35
-36
-37
-38
-39
-40
-41
-42
-43
-43
-44
-44
-46
-47
-48
-49
-50
-51
-52
-53
-55
-55
-56
-58
-59
-60
-61
-62
-64
-64
-65
-65
-67
-67
-68
-69
-70
-70
-72
-73
-73
-75
-75
-76
-78
-78
-80
-81
-81
-82
-82
-82
-84
-84
-84
-84
-85
-85
-85
-84
-84
-84
-84
-84
-83
-82
-82
-83
-82
-82
-82
-82
-82
-82
-83
-83
-84
-84
-85
-86
-87
-88
-89
-89
-89
-90
-90
-90
-90
-89
-90
-90
-89
-89
-90
-90
-89
-89
-89
-89
-90
-90
-90
-90
-91
-91
-91
-91
-91
-92
-92
-91
-91
-91
-91
-91
-90
-91
-91
-90
-90
-90
-89
-89
-88
-88
-88
-88
-87
-87
-88
-88
-87
-87
-87
-87
-87
-87
-87
-88
-88
-88
-88
-88
-88
-89
-89
-88
-88
-88
-88
-88
-88
-88
-88
-88
-89
-89
-89
-90
-89
-89
-90
-90
-90
-90
-90
-90
-89
-89
-89
-88
-89
-88
-88
-88
-88
-87
-87
-87
-87
-87
-87
-88
-87
-88
-88
-88
-88
-89
-88
-89
-88
-89
-89
-89
-89
-89
-89
-90
-89
-90
-89
-89
-89
-89
-88
-88
-89
-89
-89
-89
-88
-89
-89
-89
-89
-89
-88
-88
-88
-88
-87
-87
-86
-87
-86
-85
-85
-85
-85
-84
-84
-83
-83
-84
-83
-84
-84
-85
-85
-86
-86
-87
-87
-87
-88
-88
-89
-89
-90
-91
-91
-91
-92
-93
-92
-93
-93
-93
-93
-94
-94
-94
-94
-95
-95
-95
-95
-95
-95
-95
-95
-95
-95
-96
-96
-96
-96
-96
-96
-96
-96
-96
-95
-95
-95
-95
-95
-94
-94
-93
-93
-92
-92
-92
-91
-92
-91
-91
-92
-92
-92
-92
-93
-93
-93
-94
-93
-93
-94
-94
-94
-94
-94
-95
-95
-95
-94
-94
-94
-93
-93
-93
-92
-92
-92
-91
-90
-89
-89
-89
-89
-89
-89
-89
-90
-90
-91
-91
-92
-93
-93
-94
-94
-95
-95
-96
-97
-97
-97
-97
-97
-98
-97
-97
-97
-98
-97
-97
-97
-97
-97
-97
-96
-96
-96
-95
-95
-95
-94
-94
-93
-93
-93
-92
-93
-93
-92
-92
-93
-93
-93
-93
-92
-92
-93
-93
-93
-93
-93
-93
-93
-93
-93
-92
-92
-93
-91
-91
-91
-91
-91
-91
-89
-89
-89
-89
-87
-87
-86
-85
-84
-84
-84
-83
-83
-83
-81
-81
-81
-81
-81
-81
-81
-80
-80
-80
-80
-80
-80
-80
-81
-81
-81
-82
-82
-82
-83
-84
-85
-86
-87
-87
-88
-89
-89
-90
-90
-91
-91
-91
-91
-91
-91
-91
-92
-91
-91
-93
-92
-92
-92
-92
-92
-93
-94
-94
-95
-95
-95
-96
-96
-97
-97
-98
-98
-99
-100
-100
-101
-100
-102
-102
-102
-102
-103
-103
-102
-103
-104
-103
-104
-104
-103
-104
-103
-103
-103
-104
-104
-104
-104
-104
-103
-103
-103
-103
-103
-103
-103
-103
-103
-103
-103
-103
-103
-104
-104
-104
-104
-105
-105
-105
-105
-104
-104
-104
-105
-105
-104
-105
-105
-104
-104
-104
-104
-103
-103
-102
-101
-101
-100
-99
-97
-95
-93
-90
-88
-84
-80
-76
-71
-66
-61
-55
-47
-41
-34
-26
-17
-9
0
8
17
27
35
45
53
62
70
78
85
92
97
101
105
108
108
108
107
105
100
95
88
80
70
59
47
33
19
4
-11
-27
-43
-59
-75
-90
-106
-120
-134
-147
-160
-170
-180
-189
-196
-201
-206
-209
-211
-211
-211
-209
-206
-202
-198
-194
-189
-184
-178
-172
-166
-160
-155
-149
-142
-138
-133
-128
-125
-122
-118
-115
-113
-112
-110
-109
-108
-108
-108
-108
-108
-108
-108
-108
-108
-108
-108
-108
-108
-109
-109
-108
-107
-107
-108
-108
-108
-108
-107
-107
-108
-107
-107
-107
-107
-107
-106
-106
-106
-105
-105
-105
-105
-105
-105
-105
-105
-104
-105
-105
-104
-105
-105
-104
-105
-105
-104
-103
-104
-103
-103
-103
-102
-103
-103
-102
-102
-102
-102
-102
-102
-103
-103
-103
-104
-104
-104
-104
-104
-103
-103
-103
-103
-103
-103
-103
-103
-102
-103
-103
-103
-103
-102
-101
-101
-101
-101
-100
-100
-100
-99
-99
-99
-99
-99
-99
-98
-98
-98
-98
-98
-98
-98
-97
-97
-97
-97
-97
-97
-97
-97
-96
-96
-96
-96
-96
-96
-97
-97
-98
-99
-99
-100
-100
-101
-101
-101
-101
-101
-102
-102
-102
-101
-100
-101
-100
-100
-99
-99
-99
-99
-98
-97
-97
-96
-95
-95
-94
-94
-94
-94
-93
-93
-93
-92
-92
-92
-92
-91
-90
-91
-91
-90
-89
-89
-87
-87
-86
-86
-85
-84
-83
-82
-82
-81
-81
-81
-80
-79
-79
-78
-77
-76
-75
-75
-74
-73
-73
-72
-70
-70
-69
-68
-67
-66
-66
-65
-65
-64
-64
-64
-64
-64
-64
-64
-65
-64
-64
-63
-64
-63
-63
-63
-62
-63
-63
-62
-61
-61
-61
-60
-58
-58
-57
-56
-55
-55
-53
-53
-52
-51
-51
-51
-51
-51
-51
-51
-51
-52
-52
-52
-52
-54
-53
-54
-55
-54
-56
-56
-56
-56
-57
-56
-56
-56
-56
-56
-56
-57
-56
-56
-57
-57
-59
-59
-60
-60
-62
-62
-62
-64
-65
-66
-67
-68
-69
-71
-72
-74
-75
-76
-77
-79
-79
-80
-81
-82
-83
-83
-84
-85
-85
-86
-86
-88
-89
-90
-92
-93
-95
-96
-97
-98
-100
-100
-102
-103
-104
-104
-105
-106
-106
-108
-108
-109
-110
-110
-111
-110
-111
-111
-112
-112
-112
-112
-113
-113
-114
-114
-114
-115
-115
-116
-117
-117
-117
-117
-118
-118
-118
-118
-119
-120
-120
-120
-120
-120
-120
-120
-119
-119
-118
-119
-119
-118
-118
-118
-118
-119
-119
-120
-120
-120
-120
-120
-120
-121
-122
-122
-123
-123
-124
-123
-123
-124
-124
-124
-125
-125
-125
-125
-125
-124
-125
-125
-124
-124
-124
-124
-125
-125
-125
-125
-125
-124
-124
-124
-125
-125
-125
-125
-125
-125
-125
-125
-125
-124
-124
-124
-123
-123
-122
-122
-121
-121
-120
-120
-120
-119
-119
-119
-119
-118
-117
-117
-118
-117
-117
-117
-117
-118
-117
-118
-118
-119
-119
-120
-121
-121
-122
-122
-123
-123
-123
-123
-123
-123
-123
-123
-122
-121
-121
-120
-120
-120
-119
-118
-118
-118
-117
-117
-116
-115
-115
-115
-115
-115
-115
-114
-114
-114
-115
-115
-116
-115
-116
-116
-117
-116
-117
-117
-117
-118
-118
-119
-119
-119
-119
-120
-121
-121
-121
-121
-122
-122
-122
-123
-123
-122
-122
-122
-122
-122
-122
-122
-122
-122
-122
-122
-121
-121
-121
-120
-120
-119
-119
-119
-119
-120
-119
-119
-120
-119
-118
-119
-119
-118
-118
-118
-118
-118
-118
-118
-118
-118
-118
-118
-118
-118
-119
-119
-120
-120
-121
-121
-121
-121
-121
-121
-121
-122
-121
-122
-122
-123
-122
-122
-122
-122
-122
-123
-122
-122
-123
-122
-122
-122
-121
-122
-122
-122
-122
-123
-123
-123
-123
-123
-122
-123
-122
-123
-123
-122
-123
-123
-123
-122
-122
-122
-122
-121
-121
-121
-120
-120
-121
-121
-121
-120
-121
-121
-121
-122
-121
-121
-121
-121
-121
-121
-121
-121
-121
-121
-121
-121
-121
-121
-122
-122
-121
-122
-122
-122
-122
-123
-123
-123
-123
-122
-122
-121
-121
-120
-121
-119
-119
-119
-119
-119
-118
-118
-119
-118
-118
-118
-118
-119
-118
-118
-118
-119
-119
-120
-120
-120
-120
-120
-120
-119
-119
-118
-119
-119
-118
-117
-117
-117
-117
-115
-114
-114
-113
-112
-112
-111
-111
-111
-111
-110
-110
-110
-109
-109
-108
-107
-107
-107
-106
-106
-106
-105
-106
-105
-105
-104
-105
-105
-104
-104
-105
-104
-104
-104
-104
-104
-103
-103
-103
-102
-102
-102
-102
-102
-102
-103
-103
-104
-105
-105
-106
-107
-108
-108
-109
-111
-112
-112
-113
-113
-114
-113
-114
-114
-114
-114
-114
-114
-114
-114
-115
-116
-115
-116
-116
-117
-116
-117
-117
-118
-117
-118
-118
-119
-119
-120
-119
-120
-120
-121
-121
-120
-121
-121
-121
-121
-121
-121
-121
-120
-120
-121
-121
-122
-122
-122
-123
-122
-123
-123
-123
-123
-123
-123
-124
-123
-123
-123
-123
-122
-122
-122
-121
-120
-121
-120
-120
-120
-120
-120
-120
-120
-120
-119
-120
-120
-120
-120
-120
-119
-119
-118
-118
-117
-117
-117
-116
-115
-115
-113
-112
-111
-109
-107
-105
-102
-99
-96
-92
-89
-84
-79
-74
-67
-61
-54
-47
-39
-31
-22
-15
-6
3
12
21
30
39
48
56
64
70
77
82
85
88
89
90
90
88
85
79
73
64
54
43
30
15
1
-14
-29
-46
-61
-79
-95
-111
-127
-142
-156
-169
-181
-192
-201
-210
-216
-221
-225
-227
-228
-228
-227
-224
-220
-217
-212
-207
-201
-197
-190
-185
-179
-174
-168
-163
-158
-153
-149
-145
-142
-138
-136
-133
-131
-128
-127
-126
-125
-125
-124
-124
-124
-124
-124
-124
-124
-125
-125
-125
-125
-125
-125
-125
-125
-125
-125
-125
-125
-126
-126
-125
-125
-125
-125
-125
-124
-124
-123
-123
-122
-122
-122
-121
-121
-119
-119
-118
-118
-117
-117
-117
-117
-118
-118
-118
-118
-118
-118
-118
-118
-118
-119
-119
-118
-118
-118
-118
-118
-118
-117
-117
-117
-115
-115
-115
-115
-114
-114
-114
-114
-114
-113
-114
-113
-113
-113
-113
-114
-113
-113
-114
-114
-114
-114
-115
-115
-115
-114
-114
-114
-114
-114
-114
-113
-113
-114
-114
-114
-114
-114
-114
-114
-114
-114
-114
-114
-113
-113
-113
-113
-113
-112
-112
-111
-111
-110
-111
-109
-109
-108
-107
-107
-106
-106
-106
-105
-105
-104
-103
-103
-103
-102
-102
-102
-102
-102
-102
-102
-102
-103
-103
-103
-103
-103
-103
-104
-104
-104
-103
-104
-103
-103
-103
-102
-101
-101
-101
-100
-99
-99
-98
-98
-98
-98
-98
-97
-97
-97
-96
-96
-95
-94
-94
-93
-93
-92
-90
-90
-89
-88
-87
-86
-86
-84
-83
-82
-81
-81
-79
-79
-77
-77
-77
-76
-76
-76
-75
-75
-76
-76
-75
-75
-75
-74
-74
-74
-73
-73
-72
-72
-71
-70
-69
-68
-67
-65
-65
-64
-63
-62
-62
-61
-60
-61
-60
-60
-60
-60
-60
-60
-59
-59
-60
-60
-60
-60
-59
-60
-60
-60
-60
-61
-61
-61
-61
-61
-60
-60
-60
-59
-59
-59
-58
-58
-58
-58
-57
-57
-58
-59
-59
-59
-60
-61
-62
-63
-64
-64
-66
-67
-68
-69
-71
-72
-73
-74
-76
-77
-78
-80
-81
-82
-83
-84
-85
-85
-86
-86
-87
-88
-89
-90
-91
-91
-91
-93
-94
-94
-94
-95
-96
-97
-99
-100
-101
-102
-103
-104
-105
-106
-107
-107
-108
-108
-109
-111
-111
-111
-112
-113
-114
-114
-116
-116
-116
-117
-117
-117
-118
-118
-118
-118
-118
-118
-119
-119
-119
-118
-119
-119
-119
-120
-120
-120
-120
-121
-121
-121
-122
-122
-122
-122
-123
-122
-123
-123
-123
-123
-123
-124
-124
-124
-124
-125
-124
-124
-125
-125
-125
-125
-126
-126
-126
-126
-126
-126
-126
-126
-127
-127
-127
-128
-128
-129
-129
-128
-128
-128
-127
-127
-127
-127
-126
-126
-125
-125
-124
-124
-124
-123
-123
-123
-123
-123
-122
-122
-123
-123
-123
-123
-123
-124
-124
-124
-125
-125
-125
-125
-125
-125
-125
-124
-123
-123
-123
-123
-122
-121
-121
-120
-120
-119
-118
-118
-118
-117
-117
-117
-117
-117
-117
-117
-118
-118
-118
-118
-119
-119
-119
-119
-119
-118
-118
-118
-118
-117
-117
-117
-117
-116
-117
-116
-116
-116
-116
-115
-115
-114
-114
-114
-114
-114
-114
-115
-115
-115
-115
-115
-115
-115
-116
-117
-118
-117
-119
-119
-119
-120
-120
-121
-121
-120
-121
-120
-121
-121
-122
-122
-122
-122
-121
-121
-122
-122
-122
-121
-121
-121
-121
-119
-119
-119
-119
-118
-118
-117
-117
-117
-117
-116
-116
-116
-116
-116
-117
-118
-117
-118
-118
-118
-119
-119
-118
-118
-119
-118
-118
-118
-118
-117
-116
-117
-117
-116
-116
-115
-115
-115
-115
-115
-115
-116
-115
-117
-117
-117
-118
-119
-119
-120
-121
-122
-123
-124
-125
-125
-126
-125
-126
-126
-125
-125
-125
-125
-124
-124
-123
-123
-123
-122
-121
-121
-121
-121
-120
-121
-121
-120
-120
-120
-121
-121
-120
-121
-121
-121
-122
-122
-123
-123
-124
-123
-123
-124
-124
-124
-124
-124
-123
-124
-123
-123
-123
-122
-121
-121
-121
-120
-121
-121
-121
-121
-121
-122
-122
-123
-123
-123
-123
-124
-124
-124
-124
-124
-124
-124
-124
-123
-123
-124
-123
-124
-124
-124
-124
-123
-124
-123
-123
-123
-123
-123
-123
-123
-123
-124
-124
-123
-122
-122
-122
-122
-122
-120
-120
-120
-119
-118
-117
-116
-115
-114
-114
-112
-112
-111
-111
-111
-111
-111
-111
-111
-112
-111
-112
-112
-112
-113
-113
-114
-114
-114
-114
-114
-113
-113
-113
-112
-113
-111
-111
-111
-111
-111
-110
-109
-109
-108
-108
-108
-108
-108
-109
-109
-109
-110
-111
-112
-113
-114
-115
-117
-118
-119
-120
-122
-123
-124
-125
-125
-126
-127
-127
-127
-127
-128
-127
-127
-127
-127
-127
-128
-128
-128
-128
-128
-128
-128
-128
-128
-128
-129
-129
-128
-129
-129
-129
-129
-130
-129
-130
-130
-131
-131
-131
-131
-131
-131
-131
-132
-131
-132
-131
-131
-131
-131
-132
-132
-132
-133
-133
-133
-133
-133
-133
-133
-134
-133
-132
-133
-133
-133
-133
-132
-133
-133
-133
-133
-133
-133
-133
-133
-134
-134
-134
-134
-134
-135
-136
-136
-135
-135
-133
-133
-132
-130
-129
-128
-126
-124
-123
-120
-118
-114
-112
-108
-104
-100
-96
-92
-87
-81
-75
-69
-64
-57
-51
-44
-36
-30
-22
-14
-7
0
8
16
22
30
36
42
47
52
55
59
60
61
60
58
56
52
46
39
31
21
9
-3
-17
-30
-45
-59
-75
-89
-104
-119
-133
-148
-159
-172
-184
-194
-203
-211
-218
-223
-227
-230
-232
-232
-232
-230
-226
-223
-220
-215
-211
-206
-201
-195
-190
-186
-180
-175
-171
-166
-162
-158
-155
-152
-149
-146
-144
-141
-139
-138
-136
-135
-135
-134
-134
-134
-134
-133
-133
-133
-133
-133
-133
-133
-132
-133
-133
-132
-133
-132
-133
-133
-133
-132
-133
-133
-133
-134
-133
-134
-134
-134
-134
-134
-134
-134
-134
-133
-134
-133
-133
-133
-132
-133
-132
-133
-132
-132
-133
-133
-132
-133
-132
-132
-133
-132
-131
-131
-131
-131
-130
-130
-129
-129
-130
-130
-130
-129
-129
-129
-129
-129
-130
-130
-130
-130
-130
-129
-130
-130
-129
-129
-129
-128
-128
-128
-127
-127
-126
-126
-125
-124
-124
-123
-123
-123
-123
-124
-123
-123
-123
-123
-122
-123
-123
-123
-123
-124
-124
-124
-125
-125
-125
-125
-125
-125
-124
-124
-124
-123
-124
-123
-123
-122
-122
-122
-121
-121
-121
-120
-120
-120
-119
-118
-118
-118
-117
-116
-116
-115
-114
-114
-115
-114
-114
-114
-115
-115
-114
-114
-115
-114
-115
-114
-115
-114
-114
-115
-114
-114
-113
-112
-113
-112
-113
-112
-112
-112
-111
-111
-111
-110
-110
-110
-109
-108
-108
-107
-106
-105
-105
-103
-102
-101
-100
-100
-98
-97
-96
-96
-95
-93
-93
-93
-92
-91
-91
-90
-90
-90
-90
-89
-89
-89
-90
-90
-89
-90
-90
-90
-90
-90
-90
-89
-88
-88
-87
-87
-86
-85
-85
-84
-83
-82
-82
-81
-81
-81
-79
-79
-79
-79
-78
-77
-77
-76
-75
-75
-75
-74
-75
-74
-74
-73
-73
-74
-73
-73
-74
-74
-74
-75
-75
-76
-76
-77
-77
-77
-77
-77
-78
-79
-79
-79
-80
-81
-81
-82
-83
-83
-84
-85
-85
-86
-87
-88
-88
-89
-91
-91
-92
-93
-94
-96
-96
-98
-99
-101
-101
-102
-104
-104
-105
-106
-106
-107
-108
-109
-109
-110
-111
-112
-111
-112
-113
-115
-115
-116
-117
-118
-119
-120
-121
-122
-123
-124
-125
-126
-126
-128
-129
-129
-131
-131
-132
-132
-134
-134
-134
-135
-135
-136
-136
-136
-136
-137
-137
-137
-138
-137
-137
-138
-137
-138
-138
-138
-137
-139
-138
-139
-139
-139
-139
-139
-140
-140
-140
-141
-141
-141
-142
-142
-142
-142
-142
-143
-143
-144
-144
-144
-145
-145
-145
-145
-145
-145
-145
-146
-146
-145
-145
-145
-144
-144
-144
-144
-144
-144
-144
-145
-144
-144
-143
-144
-144
-143
-142
-142
-143
-142
-142
-143
-143
-143
-143
-143
-143
-144
-144
-144
-145
-146
-145
-146
-145
-146
-145
-146
-146
-147
-146
-146
-146
-145
-146
-146
-146
-146
-145
-146
-146
-146
-146
-145
-145
-145
-144
-145
-144
-145
-144
-145
-144
-145
-145
-145
-145
-145
-145
-146
-145
-146
-146
-146
-146
-147
-146
-146
-146
-145
-145
-144
-145
-145
-145
-144
-144
-144
-144
-144
-144
-144
-144
-143
-143
-143
-144
-144
-143
-143
-144
-144
-144
-144
-143
-144
-144
-144
-143
-144
-144
-144
-144
-143
-143
-143
-143
-142
-142
-142
-142
-141
-141
-141
-141
-141
-142
-141
-142
-142
-143
-143
-145
-145
-146
-146
-146
-146
-147
-147
-148
-148
-149
-149
-150
-150
-150
-150
-150
-150
-149
-149
-149
-148
-148
-148
-147
-147
-148
-147
-147
-147
-147
-146
-146
-146
-147
-147
-147
-147
-147
-147
-147
-147
-148
-147
-148
-148
-148
-148
-148
-148
-149
-150
-150
-150
-150
-150
-150
-150
-150
-149
-150
-150
-149
-149
-149
-149
-149
-149
-149
-148
-148
-148
-148
-147
-148
-148
-149
-150
-150
-150
-150
-151
-151
-152
-151
-151
-152
-152
-152
-152
-153
-153
-153
-154
-154
-153
-153
-153
-153
-151
-151
-150
-150
-149
-150
-149
-149
-149
-149
-148
-148
-147
-148
-147
-148
-149
-148
-149
-150
-150
-150
-151
-151
-151
-152
-152
-153
-153
-153
-154
-154
-153
-154
-154
-153
-153
-154
-154
-154
-154
-155
-155
-154
-155
-154
-154
-154
-154
-153
-153
-152
-152
-152
-152
-153
-153
-153
-153
-153
-153
-153
-153
-153
-153
-153
-153
-153
-153
-153
-153
-153
-153
-153
-154
-154
-153
-154
-153
-153
-153
-153
-152
-152
-151
-151
-151
-150
-149
-148
-148
-147
-146
-146
-145
-144
-143
-143
-143
-141
-141
-141
-141
-141
-140
-139
-139
-139
-139
-138
-138
-138
-138
-138
-138
-138
-138
-138
-138
-138
-138
-138
-138
-137
-137
-137
-138
-138
-139
-139
-140
-141
-141
-142
-142
-142
-143
-144
-145
-145
-147
-148
-149
-149
-151
-151
-151
-152
-151
-151
-152
-152
-152
-152
-152
-152
-152
-152
-152
-153
-153
-153
-153
-152
-153
-152
-153
-154
-153
-154
-155
-156
-156
-157
-158
-158
-159
-159
-159
-159
-160
-159
-159
-159
-159
-159
-159
-159
-159
-160
-159
-159
-160
-161
-160
-161
-161
-162
-163
-163
-163
-164
-164
-164
-164
-165
-165
-165
-165
-166
-166
-165
-165
-166
-166
-166
-167
-167
-166
-166
-166
-166
-165
-165
-164
-164
-163
-163
-161
-161
-159
-159
-157
-156
-155
-153
-151
-150
-148
-146
-145
-143
-141
-139
-136
-133
-130
-125
-122
-116
-111
-105
-99
-92
-85
-78
-70
-63
-54
-46
-37
-29
-20
-12
-4
4
12
19
25
29
33
36
37
39
38
36
33
27
21
14
5
-6
-17
-29
-43
-57
-71
-85
-100
-116
-131
-145
-160
-174
-187
-200
-213
-223
-233
-242
-248
-255
-260
-264
-265
-267
-267
-266
-265
-263
-259
-255
-251
-247
-241
-236
-231
-226
-221
-215
-209
-204
-200
-195
-191
-187
-184
-179
-176
-174
-172
-170
-168
-167
-167
-166
-165
-165
-165
-165
-165
-165
-165
-165
-165
-165
-166
-165
-166
-166
-166
-167
-167
-167
-167
-167
-167
-167
-166
-166
-167
-166
-165
-165
-165
-165
-165
-164
-163
-163
-163
-162
-162
-162
-162
-162
-163
-163
-163
-163
-164
-164
-164
-165
-165
-165
-165
-165
-165
-166
-165
-165
-166
-166
-166
-166
-166
-167
-167
-166
-166
-166
-166
-166
-166
-166
-166
-166
-166
-166
-166
-166
-166
-166
-166
-166
-165
-165
-165
-165
-165
-165
-164
-164
-164
-163
-163
-163
-163
-163
-163
-163
-163
-163
-163
-162
-162
-162
-162
-162
-162
-160
-160
-160
-159
-158
-158
-157
-157
-156
-155
-155
-154
-154
-153
-154
-154
-153
-154
-154
-154
-154
-155
-155
-156
-155
-155
-156
-157
-156
-156
-157
-157
-157
-157
-157
-157
-158
-157
-157
-156
-156
-155
-155
-155
-153
-153
-153
-152
-152
-151
-150
-150
-150
-150
-150
-150
-150
-149
-150
-150
-150
-150
-149
-149
-149
-149
-149
-149
-148
-148
-147
-146
-146
-146
-145
-145
-144
-144
-143
-143
-141
-141
-141
-139
-139
-138
-137
-136
-135
-135
-134
-134
-134
-133
-133
-132
-132
-132
-132
-132
-131
-131
-130
-130
-129
-129
-129
-128
-127
-127
-127
-126
-125
-124
-123
-123
-122
-121
-121
-121
-120
-119
-118
-117
-116
-116
-115
-115
-114
-114
-113
-113
-114
-113
-114
-114
-114
-116
-116
-116
-117
-118
-118
-118
-118
-119
-119
-120
-120
-121
-121
-121
-122
-122
-123
-123
-124
-124
-124
-125
-124
-125
-125
-126
-126
-126
-126
-128
-128
-128
-129
-129
-130
-130
-131
-131
-133
-133
-135
-135
-137
-137
-139
-140
-140
-142
-143
-144
-146
-147
-148
-149
-151
-151
-152
-153
-154
-155
-156
-156
-158
-158
-158
-159
-160
-161
-161
-161
-162
-162
-162
-162
-163
-163
-163
-164
-164
-164
-165
-165
-164
-165
-165
-165
-166
-166
-167
-167
-167
-167
-168
-167
-167
-168
-168
-169
-169
-171
-172
-171
-172
-173
-173
-174
-174
-175
-175
-175
-176
-177
-178
-178
-180
-180
-180
-181
-181
-182
-182
-182
-183
-183
-183
-183
-182
-182
-181
-181
-181
-180
-180
-179
-178
-178
-178
-178
-178
-178
-177
-177
-178
-178
-178
-177
-178
-178
-179
-179
-179
-180
-180
-181
-182
-182
-182
-182
-183
-183
-182
-183
-183
-183
-182
-182
-182
-181
-180
-180
-179
-178
-179
-178
-178
-178
-178
-178
-178
-179
-179
-179
-180
-180
-179
-180
-180
-180
-180
-181
-180
-180
-181
-180
-179
-180
-179
-179
-179
-179
-179
-178
-178
-178
-177
-177
-177
-177
-176
-176
-175
-174
-174
-174
-174
-173
-173
-173
-172
-172
-172
-172
-172
-172
-172
-172
-172
-172
-172
-173
-173
-173
-172
-173
-173
-174
-174
-174
-175
-175
-176
-176
-177
-177
-176
-177
-177
-176
-176
-176
-176
-176
-176
-177
-176
-176
-175
-175
-175
-175
-174
-175
-174
-174
-174
-175
-174
-174
-174
-174
-175
-174
-174
-176
-176
-177
-178
-178
-179
-179
-180
-181
-181
-181
-182
-182
-182
-182
-183
-182
-182
-183
-182
-182
-182
-182
-182
-182
-182
-182
-181
-181
-180
-180
-180
-179
-179
-179
-178
-178
-178
-177
-177
-177
-177
-176
-177
-177
-177
-178
-178
-178
-178
-178
-179
-178
-179
-179
-179
-179
-179
-179
-180
-180
-180
-181
-181
-182
-181
-181
-182
-182
-182
-182
-182
-182
-183
-182
-182
-182
-181
-181
-181
-181
-182
-181
-182
-182
-181
-181
-181
-181
-181
-181
-180
-181
-181
-180
-181
-180
-181
-181
-180
-180
-180
-180
-180
-181
-181
-181
-180
-181
-181
-180
-180
-180
-179
-178
-178
-177
-177
-177
-176
-176
-176
-176
-176
-176
-177
-177
-177
-177
-177
-177
-176
-176
-176
-176
-176
-176
-175
-174
-173
-173
-171
-170
-170
-169
-169
-168
-167
-167
-166
-165
-164
-164
-164
-163
-163
-164
-164
-164
-164
-165
-165
-165
-167
-167
-168
-168
-168
-169
-168
-168
-168
-169
-169
-168
-168
-168
-168
-168
-167
-167
-167
-168
-168
-168
-168
-168
-168
-168
-169
-170
-170
-170
-171
-172
-172
-172
-172
-172
-173
-174
-174
-174
-175
-175
-176
-176
-177
-176
-177
-178
-178
-178
-178
-178
-178
-177
-178
-178
-178
-178
-178
-178
-178
-178
-178
-178
-178
-178
-178
-178
-178
-177
-177
-177
-178
-177
-177
-177
-177
-177
-178
-178
-178
-179
-181
-181
-181
-183
-183
-184
-184
-184
-185
-185
-185
-185
-185
-186
-186
-185
-186
-186
-186
-185
-186
-186
-186
-186
-186
-186
-185
-185
-185
-184
-184
-183
-183
-183
-182
-182
-181
-182
-181
-180
-179
-177
-177
-175
-174
-172
-170
-167
-166
-162
-159
-156
-152
-148
-143
-138
-133
-127
-122
-116
-109
-101
-93
-86
-77
-68
-59
-51
-42
-33
-24
-16
-8
-1
6
13
17
22
25
27
28
27
25
22
18
12
5
-5
-16
-27
-40
-54
-69
-84
-100
-116
-131
-147
-163
-177
-192
-207
-220
-232
-243
-253
-261
-268
-273
-278
-281
-283
-283
-283
-283
-281
-278
-275
-271
-266
-262
-257
-253
-247
-243
-238
-232
-228
-223
-218
-214
-210
-206
-203
-200
-197
-195
-192
-190
-189
-187
-187
-186
-185
-185
-184
-184
-184
-184
-184
-184
-183
-183
-183
-183
-184
-183
-183
-184
-183
-184
-184
-184
-183
-183
-183
-183
-182
-182
-182
-182
-181
-181
-180
-180
-180
-180
-181
-180
-180
-180
-180
-180
-180
-181
-181
-181
-180
-181
-180
-181
-180
-181
-180
-179
-180
-180
-180
-179
-179
-179
-179
-179
-178
-179
-179
-178
-177
-177
-177
-176
-176
-176
-176
-176
-176
-176
-176
-176
-176
-176
-176
-177
-177
-177
-177
-177
-177
-177
-177
-178
-178
-178
-179
-178
-177
-177
-178
-177
-177
-176
-176
-175
-175
-175
-175
-174
-174
-173
-173
-172
-172
-171
-171
-171
-170
-171
-171
-171
-170
-171
-171
-170
-170
-171
-170
-170
-170
-169
-169
-168
-168
-168
-167
-166
-166
-166
-166
-166
-165
-165
-165
-164
-164
-164
-163
-163
-163
-164
-163
-163
-163
-163
-163
-163
-163
-163
-163
-162
-162
-162
-163
-163
-162
-162
-160
-160
-159
-159
-157
-158
-156
-156
-155
-154
-153
-152
-152
-151
-151
-150
-150
-149
-149
-148
-147
-146
-146
-145
-145
-144
-142
-142
-141
-141
-140
-140
-139
-138
-137
-137
-136
-135
-135
-134
-134
-132
-132
-131
-131
-130
-130
-129
-129
-129
-128
-128
-128
-128
-128
-126
-126
-127
-126
-126
-125
-126
-126
-125
-125
-125
-124
-124
-124
-123
-123
-122
-123
-122
-122
-121
-122
-122
-121
-120
-120
-120
-119
-118
-118
-117
-117
-116
-117
-117
-117
-118
-118
-119
-120
-121
-121
-122
-122
-123
-124
-124
-125
-125
-126
-127
-127
-127
-127
-127
-127
-128
-127
-128
-128
-129
-130
-129
-129
-131
-131
-133
-134
-134
-136
-137
-139
-140
-141
-143
-144
-146
-148
-149
-150
-152
-152
-154
-154
-155
-155
-156
-156
-156
-156
-156
-157
-157
-157
-158
-159
-159
-159
-160
-161
-162
-163
-164
-165
-165
-166
-167
-167
-169
-169
-170
-171
-172
-172
-173
-173
-175
-175
-175
-176
-177
-177
-178
-178
-178
-178
-178
-178
-178
-178
-178
-178
-178
-177
-177
-177
-176
-176
-176
-175
-175
-175
-174
-173
-173
-173
-172
-173
-173
-172
-172
-172
-172
-172
-173
-173
-173
-174
-174
-174
-175
-175
-176
-176
-177
-177
-177
-177
-177
-176
-177
-176
-177
-176
-176
-176
-175
-175
-174
-174
-173
-174
-173
-173
-173
-173
-173
-172
-172
-172
-171
-171
-171
-171
-171
-171
-171
-172
-171
-172
-172
-173
-173
-174
-174
-174
-174
-174
-174
-174
-174
-174
-174
-174
-173
-174
-173
-173
-173
-172
-171
-171
-170
-169
-169
-168
-167
-165
-165
-165
-164
-162
-162
-163
-162
-161
-161
-161
-161
-162
-162
-163
-164
-164
-165
-165
-166
-168
-169
-169
-170
-171
-171
-173
-173
-173
-173
-173
-174
-174
-175
-174
-174
-173
-173
-172
-172
-171
-171
-170
-170
-169
-169
-168
-167
-167
-166
-166
-166
-166
-166
-165
-165
-165
-165
-164
-165
-165
-165
-164
-164
-164
-164
-164
-163
-163
-163
-163
-163
-164
-164
-164
-163
-164
-164
-163
-163
-164
-164
-164
-164
-164
-164
-165
-165
-165
-166
-167
-167
-167
-168
-168
-168
-169
-169
-169
-169
-169
-169
-169
-168
-168
-168
-167
-166
-166
-166
-165
-164
-164
-163
-162
-162
-161
-161
-160
-160
-159
-160
-160
-159
-159
-159
-159
-159
-159
-159
-160
-159
-160
-160
-160
-161
-161
-161
-161
-161
-162
-162
-163
-163
-163
-163
-163
-163
-163
-164
-164
-164
-165
-165
-165
-166
-166
-166
-165
-165
-165
-166
-166
-166
-165
-165
-166
-165
-165
-165
-165
-165
-165
-166
-166
-165
-165
-164
-164
-164
-163
-164
-164
-162
-162
-162
-161
-161
-160
-160
-161
-160
-160
-160
-160
-161
-160
-160
-160
-160
-161
-160
-160
-160
-160
-160
-160
-160
-160
-160
-161
-161
-161
-161
-160
-160
-159
-159
-158
-158
-157
-156
-155
-154
-154
-152
-151
-150
-150
-148
-148
-147
-146
-145
-144
-143
-142
-143
-142
-142
-141
-142
-141
-141
-141
-141
-141
-142
-142
-142
-142
-143
-142
-143
-143
-143
-145
-145
-145
-145
-144
-144
-144
-144
-144
-143
-143
-143
-144
-144
-143
-143
-144
-144
-144
-145
-145
-146
-146
-147
-147
-148
-148
-149
-150
-150
-151
-152
-153
-153
-154
-156
-156
-156
-157
-157
-157
-157
-158
-158
-158
-158
-157
-157
-156
-156
-155
-155
-155
-154
-154
-154
-154
-155
-155
-155
-154
-154
-155
-155
-155
-156
-157
-157
-157
-158
-159
-159
-160
-160
-160
-161
-160
-162
-162
-162
-162
-162
-162
-162
-161
-161
-161
-161
-161
-160
-160
-159
-159
-159
-159
-158
-158
-158
-157
-156
-156
-155
-154
-153
-152
-151
-150
-149
-149
-148
-147
-148
-147
-147
-147
-146
-146
-145
-145
-145
-143
-141
-141
-139
-138
-135
-132
-129
-125
-120
-115
-109
-102
-96
-89
-80
-72
-63
-55
-46
-38
-28
-19
-9
0
9
18
26
33
40
44
49
53
55
56
56
55
51
47
41
35
25
15
3
-10
-24
-39
-55
-71
-87
-103
-120
-136
-152
-167
-183
-197
-210
-222
-232
-241
-249
-254
-259
-262
-263
-264
-263
-261
-257
-253
-249
-243
-237
-232
-226
-219
-214
-207
-201
-196
-191
-185
-180
-177
-173
-170
-167
-164
-163
-161
-160
-158
-159
-158
-158
-157
-157
-157
-157
-157
-157
-157
-157
-157
-156
-156
-155
-155
-155
-154
-153
-154
-153
-153
-153
-153
-153
-153
-153
-153
-153
-153
-154
-154
-154
-154
-154
-154
-154
-154
-154
-154
-154
-154
-154
-153
-153
-153
-152
-152
-152
-151
-151
-150
-149
-148
-147
-146
-146
-144
-143
-143
-143
-142
-141
-141
-142
-142
-141
-142
-143
-143
-143
-143
-144
-144
-145
-145
-146
-146
-147
-146
-146
-147
-147
-148
-147
-148
-148
-147
-147
-147
-146
-146
-146
-146
-146
-145
-146
-145
-145
-144
-144
-145
-144
-144
-144
-144
-143
-144
-143
-142
-142
-142
-142
-140
-140
-140
-140
-139
-139
-139
-138
-138
-138
-138
-138
-138
-138
-138
-138
-138
-138
-137
-138
-138
-138
-137
-137
-138
-137
-137
-136
-136
-135
-135
-135
-134
-134
-134
-134
-133
-132
-132
-132
-131
-131
-131
-131
-130
-130
-130
-130
-129
-128
-129
-129
-129
-128
-129
-128
-127
-126
-125
-125
-124
-123
-121
-121
-121
-119
-119
-119
-119
-118
-117
-117
-116
-116
-116
-115
-114
-114
-113
-113
-111
-111
-110
-109
-108
-108
-106
-105
-105
-104
-103
-102
-102
-101
-101
-99
-99
-98
-98
-98
-97
-96
-95
-95
-95
-94
-94
-93
-92
-91
-91
-91
-90
-90
-89
-88
-88
-87
-86
-85
-84
-84
-83
-83
-83
-81
-81
-82
-82
-81
-81
-82
-82
-82
-82
-82
-82
-82
-83
-83
-83
-83
-84
-84
-85
-84
-85
-86
-86
-87
-87
-88
-89
-90
-91
-92
-92
-94
-94
-95
-95
-95
-95
-95
-95
-97
-97
-96
-97
-97
-97
-98
-99
-99
-100
-101
-102
-103
-103
-104
-105
-107
-108
-109
-111
-113
-114
-116
-117
-118
-119
-121
-123
-124
-125
-126
-127
-128
-128
-129
-129
-131
-131
-131
-131
-132
-132
-133
-134
-134
-134
-135
-135
-136
-136
-137
-137
-138
-138
-139
-138
-138
-138
-138
-139
-139
-139
-139
-140
-139
-139
-140
-141
-141
-141
-141
-141
-142
-143
-142
-143
-144
-143
-144
-144
-145
-145
-146
-146
-147
-147
-147
-148
-148
-148
-148
-148
-148
-148
-148
-147
-147
-147
-147
-146
-147
-146
-146
-146
-146
-146
-145
-146
-145
-145
-145
-145
-145
-145
-145
-145
-146
-146
-146
-146
-146
-147
-146
-147
-147
-148
-148
-148
-147
-147
-147
-147
-147
-147
-147
-147
-146
-146
-145
-145
-145
-144
-144
-145
-144
-145
-144
-145
-145
-145
-145
-145
-145
-145
-145
-146
-145
-145
-145
-145
-144
-144
-144
-144
-144
-143
-143
-143
-143
-142
-143
-142
-142
-142
-141
-141
-141
-141
-141
-141
-140
-141
-140
-141
-141
-141
-141
-141
-142
-142
-142
-143
-142
-142
-142
-142
-142
-142
-142
-142
-141
-142
-141
-140
-141
-140
-140
-140
-140
-140
-139
-139
-139
-139
-138
-139
-138
-138
-137
-137
-137
-137
-137
-137
-137
-137
-138
-138
-138
-138
-138
-139
-140
-140
-140
-141
-142
-142
-142
-142
-143
-142
-142
-142
-143
-142
-142
-142
-142
-141
-141
-141
-140
-140
-140
-139
-139
-138
-138
-138
-138
-138
-138
-138
-139
-139
-139
-140
-141
-141
-141
-142
-142
-143
-143
-143
-143
-143
-144
-144
-144
-145
-145
-145
-144
-144
-144
-144
-144
-144
-143
-143
-142
-142
-142
-141
-141
-141
-140
-140
-140
-140
-139
-139
-139
-140
-139
-140
-140
-140
-140
-140
-141
-141
-141
-141
-141
-141
-142
-142
-142
-142
-142
-142
-142
-142
-142
-142
-142
-142
-143
-143
-142
-143
-142
-142
-142
-141
-141
-141
-141
-140
-140
-140
-140
-140
-140
-140
-140
-141
-141
-141
-141
-141
-140
-140
-140
-140
-140
-140
-139
-139
-139
-140
-140
-140
-141
-140
-141
-141
-142
-141
-142
-142
-142
-143
-144
-144
-144
-144
-144
-144
-144
-145
-145
-144
-144
-143
-143
-142
-142
-142
-142
-141
-141
-141
-139
-139
-139
-140
-140
-139
-140
-141
-140
-141
-141
-142
-143
-143
-143
-143
-143
-143
-143
-142
-142
-141
-140
-140
-139
-139
-138
-138
-136
-136
-135
-134
-133
-133
-132
-131
-131
-130
-130
-129
-128
-127
-127
-126
-126
-126
-125
-125
-125
-125
-125
-125
-125
-125
-125
-124
-125
-125
-124
-125
-124
-124
-124
-123
-123
-123
-123
-124
-123
-123
-123
-124
-123
-124
-124
-124
-125
-124
-125
-125
-126
-126
-126
-127
-127
-128
-128
-129
-130
-130
-131
-132
-132
-132
-133
-133
-134
-133
-134
-134
-135
-134
-135
-136
-136
-136
-136
-137
-137
-137
-138
-138
-138
-139
-139
-139
-140
-140
-139
-140
-140
-140
-140
-140
-140
-140
-139
-140
-139
-138
-138
-138
-137
-137
-137
-136
-135
-135
-135
-135
-135
-134
-134
-134
-134
-135
-135
-136
-137
-138
-139
-139
-140
-141
-142
-143
-143
-143
-143
-144
-144
-145
-145
-144
-144
-144
-145
-144
-144
-144
-144
-144
-144
-143
-143
-143
-143
-141
-141
-141
-141
-139
-139
-138
-138
-136
-136
-135
-134
-133
-131
-130
-128
-126
-123
-120
-116
-113
-110
-105
-100
-95
-90
-84
-77
-70
-63
-57
-49
-41
-33
-25
-16
-8
0
8
17
24
32
39
45
50
55
57
59
61
60
59
56
53
46
39
30
21
8
-4
-17
-31
-46
-60
-76
-91
-107
-123
-137
-152
-165
-178
-191
-202
-212
-220
-228
-234
-238
-241
-243
-243
-243
-241
-239
-235
-231
-227
-221
-216
-211
-205
-200
-194
-188
-183
-178
-172
-168
-164
-161
-158
-154
-152
-149
-147
-145
-144
-143
-142
-141
-141
-141
-140
-140
-141
-140
-140
-140
-140
-140
-140
-139
-139
-140
-140
-138
-139
-139
-139
-139
-138
-138
-138
-137
-137
-137
-137
-136
-136
-136
-136
-136
-135
-135
-135
-134
-133
-134
-133
-133
-133
-133
-133
-133
-133
-132
-132
-132
-132
-132
-131
-132
-131
-131
-131
-131
-131
-131
-131
-131
-132
-131
-132
-132
-132
-133
-132
-133
-133
-133
-133
-132
-132
-132
-133
-132
-133
-133
-132
-133
-133
-133
-133
-133
-133
-132
-132
-133
-132
-132
-130
-131
-130
-129
-129
-128
-128
-128
-128
-128
-128
-128
-128
-130
-129
-131
-131
-131
-131
-131
-132
-132
-132
-131
-131
-131
-131
-130
-130
-129
-129
-128
-128
-128
-127
-126
-126
-126
-126
-125
-125
-124
-124
-124
-124
-124
-123
-123
-123
-122
-123
-123
-122
-122
-122
-122
-121
-120
-120
-120
-119
-119
-119
-118
-118
-118
-118
-118
-117
-118
-117
-117
-117
-117
-117
-116
-116
-115
-115
-114
-114
-113
-113
-112
-111
-111
-110
-110
-108
-108
-108
-107
-107
-107
-106
-106
-106
-105
-105
-104
-104
-104
-102
-102
-101
-100
-99
-99
-98
-97
-96
-95
-94
-94
-93
-92
-91
-90
-90
-90
-89
-89
-89
-89
-88
-89
-89
-89
-89
-89
-90
-90
-90
-91
-91
-92
-92
-91
-92
-91
-90
-91
-90
-90
-89
-89
-89
-87
-87
-87
-87
-85
-85
-85
-85
-84
-84
-84
-84
-83
-83
-83
-83
-82
-83
-84
-84
-84
-84
-85
-85
-86
-87
-88
-88
-89
-90
-91
-92
-92
-93
-94
-95
-96
-96
-97
-98
-99
-100
-101
-102
-103
-104
-105
-106
-106
-107
-108
-109
-109
-110
-109
-110
-110
-111
-111
-111
-112
-113
-114
-114
-115
-117
-117
-118
-119
-120
-121
-123
-124
-125
-127
-128
-129
-131
-132
-133
-134
-136
-136
-137
-137
-137
-138
-138
-139
-140
-140
-140
-140
-140
-140
-141
-140
-140
-141
-141
-142
-143
-144
-144
-145
-145
-147
-147
-148
-149
-149
-150
-150
-151
-152
-151
-152
-152
-153
-152
-152
-152
-152
-152
-151
-151
-151
-150
-150
-150
-149
-149
-148
-147
-147
-146
-146
-145
-145
-145
-145
-145
-145
-145
-146
-147
-147
-147
-147
-148
-148
-149
-149
-150
-151
-151
-151
-151
-151
-151
-152
-152
-152
-152
-153
-153
-153
-154
-153
-153
-154
-153
-153
-153
-152
-151
-151
-151
-150
-149
-148
-148
-148
-147
-148
-148
-148
-147
-147
-148
-148
-148
-149
-149
-150
-150
-151
-151
-150
-151
-152
-152
-152
-152
-153
-154
-154
-154
-154
-154
-155
-154
-154
-153
-153
-153
-153
-152
-152
-152
-151
-151
-150
-150
-150
-149
-149
-149
-147
-147
-147
-146
-146
-146
-146
-145
-145
-144
-143
-143
-142
-142
-142
-142
-142
-141
-142
-142
-141
-141
-141
-141
-142
-142
-142
-143
-142
-143
-142
-143
-144
-144
-144
-146
-146
-147
-148
-148
-148
-149
-149
-150
-150
-150
-150
-151
-151
-151
-150
-150
-149
-148
-148
-147
-147
-146
-146
-146
-145
-145
-144
-145
-144
-144
-143
-144
-144
-144
-144
-145
-146
-146
-147
-147
-148
-148
-149
-149
-150
-150
-151
-151
-151
-151
-151
-151
-150
-149
-149
-148
-148
-148
-147
-148
-148
-146
-146
-146
-147
-147
-146
-147
-147
-146
-147
-147
-147
-147
-147
-147
-147
-148
-148
-148
-149
-149
-148
-149
-149
-149
-150
-150
-150
-150
-150
-151
-150
-150
-151
-150
-150
-150
-150
-150
-151
-150
-150
-150
-150
-149
-149
-149
-148
-147
-147
-146
-147
-147
-146
-146
-146
-147
-147
-147
-148
-148
-148
-149
-149
-149
-150
-151
-151
-151
-151
-151
-152
-151
-151
-151
-150
-151
-151
-151
-151
-151
-151
-151
-151
-151
-151
-151
-151
-151
-151
-151
-151
-151
-151
-151
-152
-152
-152
-152
-152
-153
-153
-153
-153
-153
-153
-154
-153
-152
-152
-151
-151
-150
-150
-149
-148
-148
-147
-147
-147
-146
-146
-147
-147
-146
-147
-148
-148
-148
-149
-150
-151
-151
-152
-152
-152
-154
-154
-156
-156
-157
-156
-156
-157
-157
-157
-156
-156
-155
-155
-154
-153
-153
-152
-151
-151
-149
-149
-148
-147
-146
-145
-144
-143
-142
-142
-141
-141
-140
-139
-139
-139
-138
-138
-137
-137
-137
-137
-138
-138
-138
-138
-138
-138
-139
-138
-138
-138
-138
-138
-137
-137
-137
-137
-137
-137
-139
-139
-139
-140
-140
-141
-141
-142
-142
-142
-142
-143
-143
-144
-144
-145
-145
-145
-145
-145
-145
-146
-146
-146
-146
-146
-147
-147
-147
-148
-148
-148
-148
-149
-149
-150
-149
-150
-151
-152
-153
-153
-153
-154
-154
-154
-154
-155
-155
-155
-155
-155
-155
-155
-156
-155
-156
-155
-155
-154
-155
-155
-156
-156
-156
-156
-157
-157
-157
-157
-158
-158
-158
-158
-158
-158
-158
-159
-158
-159
-159
-159
-159
-159
-160
-160
-160
-160
-161
-161
-160
-161
-161
-161
-160
-159
-159
-158
-158
-157
-155
-155
-154
-153
-152
-151
-150
-149
-148
-147
-145
-144
-142
-141
-139
-136
-135
-132
-129
-126
-123
-119
-116
-112
-107
-102
-96
-90
-83
-76
-68
-60
-51
-43
-34
-24
-16
-7
2
10
18
25
32
37
42
45
48
49
49
48
45
40
36
28
19
9
-2
-15
-27
-42
-56
-71
-87
-103
-118
-133
-148
-162
-176
-189
-201
-211
-221
-230
-238
-243
-247
-251
-253
-254
-254
-254
-252
-249
-246
-243
-238
-234
-229
-224
-218
-214
-209
-203
-199
-194
-189
-185
-181
-177
-173
-171
-168
-166
-165
-162
-162
-160
-159
-159
-158
-158
-158
-158
-157
-157
-157
-157
-157
-157
-157
-157
-158
-158
-159
-159
-159
-160
-159
-159
-159
-159
-159
-159
-159
-159
-159
-160
-159
-158
-159
-158
-158
-158
-158
-158
-157
-157
-157
-157
-157
-157
-157
-158
-157
-157
-157
-157
-156
-156
-156
-156
-156
-156
-155
-155
-155
-155
-155
-155
-155
-154
-154
-153
-152
-152
-151
-151
-151
-151
-151
-151
-151
-152
-152
-152
-152
-152
-152
-152
-153
-152
-152
-151
-151
-150
-150
-149
-149
-149
-149
-149
-148
-149
-149
-148
-149
-149
-149
-150
-150
-149
-150
-150
-151
-151
-151
-151
-151
-151
-151
-150
-151
-150
-150
-150
-150
-149
-150
-150
-149
-149
-148
-148
-148
-148
-147
-148
-147
-147
-146
-147
-146
-146
-145
-146
-146
-146
-145
-145
-145
-145
-144
-144
-144
-144
-143
-144
-143
-143
-143
-143
-142
-142
-142
-141
-141
-140
-140
-139
-138
-138
-136
-135
-134
-134
-133
-132
-132
-131
-131
-130
-130
-130
-130
-130
-130
-130
-130
-130
-130
-130
-129
-128
-129
-128
-127
-126
-124
-124
-123
-122
-121
-121
-120
-119
-119
-118
-117
-117
-117
-115
-115
-114
-114
-114
-114
-113
-113
-112
-113
-113
-111
-111
-111
-111
-110
-110
-109
-109
-109
-108
-108
-107
-107
-106
-105
-105
-105
-105
-104
-104
-103
-103
-104
-103
-103
-103
-103
-103
-103
-104
-103
-103
-103
-103
-102
-103
-103
-104
-103
-104
-104
-104
-105
-104
-105
-106
-106
-106
-106
-107
-107
-107
-108
-108
-108
-109
-109
-110
-110
-110
-111
-111
-112
-113
-114
-115
-115
-116
-117
-117
-117
-118
-119
-119
-120
-122
-122
-123
-124
-125
-126
-127
-129
-130
-131
-132
-133
-133
-135
-135
-135
-136
-137
-138
-138
-138
-139
-139
-139
-140
-141
-142
-143
-143
-144
-145
-146
-146
-146
-147
-148
-149
-149
-150
-150
-151
-152
-153
-153
-153
-154
-154
-154
-154
-154
-154
-155
-155
-155
-154
-155
-153
-153
-153
-153
-153
-152
-152
-152
-152
-153
-153
-153
-154
-154
-155
-155
-156
-156
-157
-157
-158
-159
-159
-160
-160
-161
-161
-162
-162
-162
-163
-164
-164
-164
-165
-165
-165
-166
-166
-166
-166
-165
-165
-165
-165
-164
-164
-164
-164
-164
-164
-164
-164
-164
-164
-165
-165
-165
-165
-164
-165
-164
-165
-165
-164
-164
-165
-164
-165
-165
-165
-164
-165
-164
-164
-163
-162
-163
-162
-161
-161
-161
-161
-160
-160
-160
-160
-159
-160
-160
-159
-159
-160
-160
-159
-160
-160
-159
-159
-159
-159
-158
-158
-158
-158
-157
-157
-157
-157
-157
-156
-156
-157
-157
-157
-157
-157
-157
-157
-158
-157
-157
-158
-158
-158
-158
-158
-158
-159
-159
-158
-158
-159
-159
-159
-159
-159
-159
-159
-159
-159
-159
-159
-159
-159
-158
-158
-158
-158
-157
-158
-158
-158
-158
-158
-159
-158
-159
-158
-159
-159
-160
-160
-160
-160
-160
-160
-160
-160
-160
-159
-159
-159
-159
-160
-159
-160
-160
-160
-160
-160
-160
-159
-160
-160
-159
-160
-160
-161
-161
-161
-162
-162
-162
-162
-162
-162
-162
-162
-161
-161
-161
-161
-161
-161
-160
-161
-160
-161
-160
-161
-160
-160
-160
-160
-160
-160
-160
-160
-160
-160
-160
-160
-160
-160
-160
-160
-161
-161
-161
-161
-161
-163
-163
-163
-163
-164
-164
-164
-164
-165
-165
-165
-165
-165
-164
-164
-164
-164
-163
-164
-163
-164
-163
-163
-163
-163
-162
-162
-162
-162
-162
-161
-161
-161
-160
-161
-161
-160
-160
-161
-161
-160
-160
-160
-160
-160
-160
-160
-160
-160
-160
-160
-160
-159
-160
-160
-160
-159
-159
-159
-159
-159
-159
-159
-158
-159
-159
-158
-159
-158
-159
-159
-158
-159
-159
-159
-159
-160
-160
-161
-161
-162
-162
-163
-163
-163
-164
-165
-165
-165
-165
-165
-165
-165
-165
-164
-164
-165
-164
-164
-163
-163
-162
-161
-160
-159
-158
-157
-157
-154
-154
-153
-152
-151
-150
-149
-148
-147
-146
-146
-145
-145
-145
-145
-144
-143
-144
-143
-143
-143
-143
-143
-143
-143
-143
-143
-143
-143
-143
-142
-142
-143
-143
-143
-143
-144
-144
-143
-145
-145
-145
-145
-145
-146
-146
-147
-148
-150
-150
-151
-151
-153
-153
-154
-154
-155
-156
-156
-156
-157
-157
-157
-158
-157
-157
-158
-158
-158
-158
-159
-159
-159
-159
-160
-159
-160
-160
-160
-160
-160
-160
-161
-160
-161
-160
-161
-160
-160
-160
-161
-160
-161
-161
-161
-162
-162
-162
-162
-162
-162
-162
-163
-163
-163
-164
-164
-164
-165
-164
-165
-165
-165
-166
-165
-166
-166
-165
-166
-165
-164
-164
-164
-164
-164
-163
-163
-162
-163
-162
-162
-162
-162
-161
-161
-161
-161
-161
-161
-160
-159
-158
-158
-156
-155
-154
-152
-150
-148
-146
-144
-141
-138
-135
-131
-128
-124
-121
-116
-110
-105
-98
-92
-84
-77
-69
-62
-53
-44
-36
-27
-18
-10
-1
7
16
23
29
36
41
45
48
51
51
51
49
45
40
34
26
16
4
-8
-22
-37
-52
-67
-84
-100
-116
-134
-149
-165
-180
-194
-208
-219
-231
-241
-249
-256
-260
-265
-267
-268
-267
-266
-263
-260
-256
-251
-246
-240
-235
-228
-222
-216
-210
-204
-198
-194
-189
-184
-181
-176
-174
-170
-168
-166
-164
-163
-161
-160
-159
-159
-158
-158
-157
-158
-158
-157
-157
-158
-158
-158
-158
-158
-158
-158
-158
-158
-158
-157
-158
-158
-158
-158
-157
-158
-157
-157
-157
-157
-157
-158
-158
-157
-158
-158
-158
-157
-157
-158
-158
-157
-158
-157
-157
-158
-157
-157
-158
-158
-158
-158
-157
-157
-157
-157
-157
-156
-155
-155
-154
-154
-153
-152
-152
-151
-150
-149
-148
-149
-148
-147
-148
-148
-147
-147
-146
-147
-147
-147
-147
-148
-148
-149
-149
-148
-149
-149
-149
-149
-149
-149
-149
-149
-150
-149
-148
-148
-147
-147
-146
-145
-145
-144
-144
-144
-143
-142
-142
-142
-142
-142
-143
-143
-143
-142
-143
-143
-142
-142
-142
-142
-142
-142
-143
-142
-143
-143
-144
-144
-144
-145
-145
-145
-145
-145
-145
-145
-144
-144
-143
-143
-143
-142
-141
-140
-140
-139
-139
-139
-138
-137
-137
-137
-137
-136
-136
-136
-136
-136
-135
-135
-135
-134
-134
-133
-133
-132
-132
-130
-129
-130
-129
-127
-126
-126
-125
-124
-123
-122
-122
-121
-120
-120
-119
-118
-117
-117
-116
-117
-116
-115
-114
-114
-113
-112
-111
-109
-108
-108
-106
-105
-104
-103
-103
-102
-101
-101
-101
-100
-100
-98
-99
-98
-97
-97
-96
-97
-96
-95
-96
-95
-95
-94
-95
-94
-93
-94
-93
-92
-92
-92
-92
-92
-91
-91
-90
-89
-89
-88
-88
-87
-87
-86
-86
-86
-86
-86
-86
-86
-87
-87
-88
-88
-89
-90
-90
-91
-91
-91
-93
-93
-94
-95
-95
-96
-97
-97
-99
-99
-99
-100
-101
-102
-103
-103
-104
-104
-105
-105
-106
-107
-108
-109
-109
-110
-110
-111
-112
-113
-114
-115
-116
-116
-117
-119
-120
-120
-121
-123
-123
-124
-126
-126
-127
-128
-130
-131
-132
-133
-133
-134
-135
-136
-137
-138
-138
-139
-140
-140
-141
-140
-141
-142
-142
-143
-143
-144
-144
-145
-146
-146
-145
-147
-147
-148
-148
-148
-149
-149
-149
-150
-150
-150
-151
-151
-151
-151
-151
-151
-152
-151
-151
-152
-152
-152
-151
-152
-151
-151
-152
-152
-152
-152
-152
-152
-153
-153
-153
-154
-155
-155
-156
-157
-157
-157
-158
-157
-157
-158
-158
-158
-157
-157
-157
-157
-156
-157
-156
-156
-156
-155
-155
-155
-154
-154
-153
-153
-152
-153
-152
-152
-152
-152
-151
-152
-152
-152
-152
-153
-153
-152
-152
-153
-153
-153
