# Simple Text Format
# Sampling Rate (Hz):= 1200.00
# Resolution:= 12
# Labels:= ECG	 II
# Age:=	41
# Gender:=	Feminino
121
122
123
124
125
127
128
129
130
131
132
133
134
135
136
136
137
137
137
136
136
136
135
134
134
133
132
132
132
132
131
131
131
131
131
131
131
131
131
132
132
132
133
133
133
134
134
134
135
135
136
136
137
138
138
138
138
138
138
138
138
138
138
138
138
137
137
137
136
136
136
136
137
137
138
138
139
139
140
141
142
143
143
144
145
145
145
145
146
146
146
146
147
148
148
149
150
150
151
151
151
151
151
151
152
153
153
154
155
156
157
157
158
159
160
161
162
163
163
163
163
163
163
163
163
163
164
164
164
164
165
165
166
167
168
168
170
171
172
173
174
175
176
176
177
178
179
180
180
181
182
182
183
183
183
183
184
184
185
185
186
186
187
188
189
190
192
193
195
196
198
199
201
202
203
204
205
207
208
209
209
209
209
209
208
208
207
207
207
207
208
208
209
209
209
209
209
209
209
209
209
209
209
208
208
208
207
207
206
205
205
204
204
204
203
203
203
202
202
202
202
201
200
199
199
198
197
195
194
193
192
190
189
188
186
185
184
183
182
181
180
180
179
179
179
179
179
179
179
179
179
178
179
179
179
179
179
179
178
177
176
175
174
173
172
171
170
169
167
165
164
163
162
161
159
158
157
156
155
154
153
152
151
150
150
150
149
150
150
151
151
152
153
154
155
156
158
159
160
161
162
162
162
162
162
162
162
161
161
161
162
162
162
162
162
162
162
162
162
162
163
163
163
164
164
165
165
166
166
166
165
165
164
163
163
161
161
160
159
158
156
155
154
153
152
151
150
149
149
149
149
150
151
152
152
153
154
155
156
157
157
157
158
157
157
156
155
154
153
153
152
152
151
151
150
149
148
148
147
146
146
146
146
146
147
147
148
149
149
150
151
152
153
154
155
156
157
158
158
159
159
159
159
159
159
159
159
159
159
158
157
157
156
156
156
156
156
156
156
156
155
154
154
153
153
153
153
153
153
153
154
154
154
154
154
154
154
154
154
155
155
155
155
155
155
156
156
156
156
156
156
156
156
156
156
156
155
155
154
154
153
153
152
151
150
150
149
149
148
148
148
148
148
148
148
148
148
148
148
148
148
147
147
146
146
146
145
144
144
144
144
144
144
145
145
145
146
147
149
150
151
152
153
154
155
156
157
157
158
158
159
159
160
160
160
160
160
160
160
159
159
158
157
156
156
156
156
156
156
156
156
157
157
157
157
157
157
157
157
157
157
156
156
154
153
152
151
150
149
149
148
148
148
147
147
146
146
145
145
145
145
146
146
147
147
148
148
148
149
149
150
150
151
152
152
152
152
151
151
150
149
149
148
147
146
146
145
145
145
145
144
144
145
146
147
148
149
151
152
153
154
155
155
155
155
155
154
154
154
154
153
153
152
152
152
151
151
151
152
152
152
153
154
154
156
157
159
160
162
164
167
169
171
173
174
175
176
177
177
177
177
177
177
177
176
176
176
175
174
174
173
173
173
173
173
173
174
175
175
175
175
175
174
174
173
173
172
171
170
170
169
168
167
166
165
164
164
164
163
163
162
162
161
161
161
161
160
160
159
159
159
159
159
159
159
158
158
158
157
156
156
155
155
154
154
154
153
153
152
152
151
150
150
149
149
148
147
146
145
144
143
142
141
140
139
139
138
138
138
138
138
138
139
139
140
140
141
142
143
143
143
144
144
144
144
144
143
143
142
142
141
140
140
140
139
138
138
138
138
137
137
137
136
136
136
137
137
138
139
141
143
145
147
149
151
153
155
157
159
162
165
168
172
175
180
185
191
197
203
211
218
227
235
244
254
263
271
280
288
295
302
308
313
318
321
323
323
323
320
317
313
308
301
295
287
279
270
261
252
243
233
224
215
206
197
189
180
171
163
156
149
142
136
131
126
121
117
113
109
106
102
100
97
96
95
94
94
94
94
95
96
97
98
100
102
103
105
106
108
109
111
112
113
114
116
117
118
119
120
122
123
124
126
127
128
129
130
132
133
134
135
135
136
136
136
135
134
133
132
131
130
130
129
128
127
126
125
124
123
122
121
120
119
119
119
119
119
120
121
122
123
124
125
127
129
130
131
133
134
135
135
136
136
136
136
136
136
135
135
134
133
132
131
130
129
128
127
126
126
125
124
124
123
123
123
123
123
124
124
125
126
127
128
129
130
130
131
132
132
133
133
133
133
132
132
132
132
132
131
131
130
129
129
128
128
127
126
125
124
124
123
122
122
121
121
122
122
122
123
124
125
126
128
129
131
132
134
135
137
138
139
140
140
141
141
141
141
141
141
141
140
140
140
140
140
140
140
140
140
141
141
141
141
142
142
143
143
144
144
145
146
147
148
148
149
149
149
150
150
149
149
149
148
148
147
147
147
147
146
146
146
146
147
148
148
149
149
150
150
151
152
153
153
154
155
157
158
158
159
160
161
163
164
166
168
169
171
173
175
176
177
177
178
178
178
178
179
179
179
179
179
179
179
178
177
176
176
175
175
175
175
175
175
176
176
177
178
179
179
180
181
182
184
185
185
186
186
186
186
186
185
184
182
181
180
178
177
175
174
173
172
171
170
170
169
168
168
169
169
169
170
170
169
169
169
168
168
168
168
168
168
168
168
167
166
165
163
162
160
159
157
156
154
152
151
149
147
145
143
141
139
137
136
134
133
132
131
130
129
128
127
127
127
127
127
127
127
127
128
128
128
129
129
130
130
130
130
130
130
130
130
130
130
130
129
129
128
128
127
127
127
126
126
127
126
126
126
126
126
125
125
124
124
123
122
121
120
118
118
117
116
116
116
116
115
115
115
115
115
115
115
114
114
114
114
114
114
114
114
115
115
116
116
117
117
118
118
119
120
120
120
119
119
119
119
118
118
117
115
114
113
111
110
109
107
106
105
104
103
103
103
103
103
103
104
105
106
107
108
110
111
113
115
117
118
118
119
119
119
118
117
117
116
115
114
114
113
112
111
110
109
109
108
109
109
109
110
111
112
113
113
114
114
115
116
117
118
119
120
121
121
122
122
123
123
123
123
124
123
123
123
123
122
121
120
120
120
119
119
119
119
119
119
119
120
120
121
122
122
123
123
123
123
122
122
122
122
122
121
121
120
120
119
119
119
118
117
117
116
115
114
113
112
111
110
110
110
109
109
109
108
108
108
107
107
107
107
107
107
107
107
108
107
107
108
109
110
110
112
113
114
115
116
118
119
120
121
122
123
124
124
124
124
123
122
121
120
119
118
117
117
116
115
114
113
112
111
111
110
110
110
110
111
111
112
113
113
113
114
115
116
117
118
120
120
121
121
122
122
121
121
121
121
121
120
120
119
118
118
117
116
116
115
115
115
115
115
115
116
116
116
117
117
117
117
118
118
118
118
119
119
118
118
118
118
117
116
116
115
114
112
112
111
110
109
108
108
107
106
106
106
106
107
108
109
110
111
112
113
113
113
114
114
114
114
114
114
114
113
113
113
113
113
113
113
112
112
112
112
113
113
114
115
116
117
119
120
122
123
125
127
129
130
132
133
134
135
137
139
140
141
142
143
143
143
143
143
143
143
143
143
143
144
144
144
144
143
143
142
141
140
139
138
137
136
136
135
134
134
133
133
132
132
133
133
134
135
136
136
137
138
138
138
137
137
137
136
136
135
133
132
130
129
127
125
123
121
119
117
115
113
111
109
107
106
106
106
106
106
107
108
109
111
113
114
116
118
119
121
121
122
123
123
123
124
124
123
122
122
121
120
119
118
117
116
115
114
113
113
112
112
111
111
111
110
111
111
111
111
112
112
113
113
114
114
114
114
114
114
114
114
114
114
115
115
116
116
116
117
117
117
117
117
118
119
119
120
121
122
123
124
126
128
130
133
136
141
146
151
158
166
175
185
195
206
217
229
240
251
262
272
281
289
296
302
307
311
312
313
312
310
306
301
295
288
280
271
261
251
241
231
221
211
200
190
181
171
162
153
145
137
129
122
115
109
102
97
92
87
83
80
77
74
72
70
69
69
69
70
71
73
75
77
79
82
84
86
88
90
92
94
95
97
98
99
101
102
103
104
105
106
107
107
108
108
108
109
109
109
109
109
108
107
106
105
104
103
101
100
99
98
97
97
96
96
96
95
95
95
95
95
95
95
95
96
96
97
98
99
100
102
103
104
105
106
107
109
110
111
112
114
115
115
116
116
116
116
116
115
114
113
112
110
109
107
105
104
102
101
99
97
96
94
93
92
92
91
91
92
93
94
95
97
99
101
103
106
108
110
111
113
114
115
114
114
114
113
113
112
112
111
111
110
110
109
108
107
107
106
105
105
105
104
104
104
105
105
106
106
107
108
109
110
111
112
113
114
115
116
117
118
119
120
121
121
122
122
123
123
123
123
123
122
122
121
120
119
119
118
117
117
117
117
117
117
118
118
118
119
120
121
121
123
124
125
126
127
128
129
129
129
129
129
129
129
128
128
127
127
126
126
126
127
128
129
130
131
132
134
135
136
138
139
141
143
145
147
149
151
153
155
156
157
158
159
160
161
161
162
162
162
162
161
161
160
160
159
159
159
159
159
159
160
161
161
162
162
163
164
164
165
165
165
164
165
165
166
166
167
167
167
167
167
167
167
168
168
168
168
168
168
168
167
167
167
166
166
166
166
166
165
165
165
165
164
163
162
161
161
160
160
159
158
156
155
154
153
152
151
150
149
148
147
147
147
146
147
147
147
147
147
146
145
144
144
144
143
142
141
140
138
137
135
133
131
129
127
125
123
121
120
119
118
118
117
117
116
116
116
117
117
119
120
121
123
123
124
124
124
124
123
123
122
121
120
120
118
117
116
114
113
112
112
111
111
110
110
111
111
111
111
112
112
112
113
113
113
113
114
114
114
114
114
114
114
114
114
114
113
113
112
111
111
110
110
110
109
109
108
108
108
108
107
107
107
107
106
106
105
105
104
104
103
102
102
101
101
100
100
100
100
100
100
100
100
100
101
102
103
103
103
103
103
102
103
103
103
103
103
103
103
104
104
104
104
104
104
103
103
103
102
101
100
99
98
97
96
95
94
94
93
93
93
93
93
92
93
93
93
93
94
94
95
96
97
98
99
100
102
103
104
105
107
108
109
110
110
111
111
110
110
109
107
106
105
103
102
100
99
98
97
96
96
95
94
94
93
93
93
94
94
95
97
98
99
100
101
101
102
102
102
102
102
102
101
101
100
100
99
99
98
97
96
95
95
94
94
94
94
94
95
96
97
98
99
99
100
101
101
101
102
102
102
102
102
102
101
101
101
101
101
101
102
102
103
103
103
103
103
103
103
103
102
101
100
99
98
97
96
95
93
92
91
89
88
87
86
85
85
84
84
83
84
84
85
87
88
89
91
92
92
93
94
96
97
98
99
101
101
102
102
101
101
100
99
99
98
97
96
95
94
93
93
92
91
90
89
88
87
87
86
86
85
85
85
86
86
86
86
87
88
89
90
92
94
95
97
99
100
101
102
103
104
105
105
106
106
107
107
107
106
106
105
104
103
101
100
99
97
95
93
91
89
86
84
82
81
79
79
78
78
78
78
78
78
78
79
80
81
83
85
87
89
91
94
96
98
100
102
104
106
108
110
112
113
115
116
117
117
118
118
118
117
116
116
115
114
113
112
111
110
109
108
108
107
106
106
105
104
103
103
103
103
103
102
102
102
101
101
101
101
101
102
103
103
104
105
106
106
107
107
107
107
107
107
107
107
107
107
107
107
107
106
106
106
105
104
103
102
101
100
99
98
97
96
96
95
94
93
92
91
91
90
89
89
88
88
88
88
87
87
87
86
85
85
84
83
82
82
82
81
81
81
80
79
78
77
76
76
75
74
74
74
73
73
73
73
73
73
74
75
75
76
77
78
78
79
80
81
81
82
82
82
82
82
82
82
81
81
80
79
79
79
80
80
81
83
84
86
88
91
93
96
99
102
106
111
117
123
130
138
146
155
165
174
184
193
203
213
222
231
239
247
254
260
265
268
271
273
273
273
271
268
264
259
252
244
236
227
217
206
196
185
175
165
154
144
134
124
115
106
98
91
85
79
73
68
63
59
55
52
49
47
45
44
43
43
44
45
46
47
48
49
51
52
53
54
56
57
59
60
61
62
63
63
63
64
64
64
65
65
65
66
66
66
67
67
67
68
68
68
68
68
68
68
68
68
68
67
67
66
66
65
65
64
63
63
63
62
62
61
60
59
58
58
57
57
57
57
57
57
57
57
57
57
58
58
59
59
60
60
60
60
61
62
63
63
64
65
65
66
66
67
68
69
70
71
72
73
73
73
73
73
73
73
74
74
74
74
74
74
74
73
73
72
71
70
70
69
69
68
68
68
67
67
66
66
65
65
65
65
65
65
65
65
65
65
66
66
67
67
67
66
66
65
65
65
65
65
66
66
67
68
69
70
70
71
72
72
73
73
73
73
73
73
73
73
73
73
73
74
74
74
73
73
73
73
73
73
73
73
73
73
72
72
72
72
72
72
73
73
74
75
76
77
78
79
81
82
83
84
85
86
87
88
89
90
91
92
92
93
94
95
96
97
97
98
99
100
100
101
102
103
103
104
105
106
106
107
108
109
110
111
112
113
113
113
113
113
113
113
113
113
113
113
113
112
112
111
110
110
110
110
110
110
110
110
111
111
111
111
111
111
112
112
113
113
113
114
115
115
116
116
117
117
117
117
117
117
117
116
116
115
115
114
114
113
112
112
112
112
112
112
111
111
111
110
110
109
109
108
108
107
106
105
105
104
102
101
101
100
99
99
98
98
98
97
97
96
95
94
93
92
91
91
91
90
90
89
88
87
86
86
85
84
83
83
83
82
81
81
80
79
78
77
77
77
76
77
77
77
77
77
77
77
77
76
76
75
74
73
73
72
70
70
69
68
66
65
64
63
61
61
60
59
59
58
58
58
58
58
58
58
57
57
57
56
55
55
54
54
54
54
54
54
54
54
53
53
53
53
52
52
52
52
52
51
51
51
52
52
52
52
51
51
50
50
49
48
48
47
46
45
44
44
43
42
41
41
41
41
42
42
43
43
43
44
45
45
46
46
47
47
48
48
48
48
48
48
48
47
47
46
46
46
45
45
45
44
44
43
42
41
40
39
39
38
37
37
37
37
37
38
38
38
38
38
38
38
38
38
38
37
37
36
36
35
35
34
34
33
33
33
33
33
33
33
34
34
35
36
37
37
38
38
39
39
40
41
41
42
42
42
43
43
43
43
43
43
42
42
41
40
39
38
37
36
35
34
33
32
30
29
28
27
27
26
25
24
24
23
23
23
23
23
24
24
25
25
26
27
28
29
30
30
31
31
32
32
32
32
32
32
32
32
31
31
31
31
31
31
31
31
32
32
32
33
33
33
34
34
34
34
34
34
34
34
33
32
32
31
30
30
30
29
29
28
28
26
25
24
23
21
20
19
18
17
16
16
15
15
15
14
15
15
15
16
16
17
18
19
21
22
23
24
25
26
26
26
27
28
28
29
29
29
29
28
28
26
25
24
22
20
19
17
16
15
14
13
12
12
11
11
10
10
9
9
9
9
9
10
10
11
11
12
12
12
13
13
14
15
16
18
19
20
21
22
22
22
23
23
22
22
22
21
21
20
20
19
18
18
17
17
16
16
15
15
14
14
13
13
13
12
12
12
12
12
12
12
12
12
12
13
13
13
14
14
14
14
14
13
13
12
11
11
10
10
9
8
8
8
7
7
8
8
8
9
10
11
12
13
15
16
18
21
23
26
28
31
33
36
38
40
42
43
44
44
45
45
45
44
44
43
42
41
39
38
36
35
33
32
31
31
30
30
30
29
29
28
28
28
28
27
27
27
27
27
26
26
26
26
26
26
27
28
28
29
31
32
33
34
34
35
35
35
34
34
33
32
31
30
29
28
26
24
22
20
18
16
14
12
10
9
7
6
6
5
4
4
3
3
4
4
4
4
4
5
5
6
6
6
7
7
7
7
7
7
8
8
9
10
10
11
11
11
10
10
9
8
7
6
5
4
2
1
0
-1
-2
-3
-4
-5
-6
-6
-7
-7
-7
-7
-7
-6
-6
-5
-5
-5
-5
-5
-5
-5
-6
-6
-6
-6
-6
-5
-4
-4
-3
-3
-2
-1
0
0
1
3
4
7
9
12
16
20
24
29
34
39
45
52
59
67
75
83
91
100
108
117
126
134
143
151
158
165
171
176
179
182
184
185
184
182
179
175
170
164
156
148
139
129
119
109
98
88
77
67
56
46
36
27
18
9
1
-6
-12
-18
-23
-28
-32
-35
-37
-39
-41
-42
-42
-42
-42
-40
-38
-36
-34
-32
-30
-29
-28
-27
-26
-25
-25
-25
-24
-24
-24
-24
-24
-24
-25
-25
-25
-26
-26
-27
-27
-28
-28
-28
-28
-29
-29
-29
-28
-28
-28
-27
-27
-26
-25
-24
-24
-23
-23
-23
-22
-22
-22
-22
-22
-23
-24
-24
-25
-26
-27
-27
-28
-28
-29
-29
-28
-28
-28
-28
-28
-28
-28
-27
-27
-28
-28
-28
-28
-29
-29
-29
-28
-28
-28
-28
-27
-27
-27
-26
-25
-23
-22
-21
-20
-18
-17
-16
-14
-13
-13
-12
-11
-11
-11
-11
-10
-11
-11
-12
-12
-14
-15
-16
-17
-19
-20
-21
-22
-23
-24
-25
-26
-26
-27
-27
-27
-28
-28
-27
-27
-27
-27
-27
-27
-27
-27
-27
-26
-26
-26
-26
-25
-25
-24
-24
-23
-23
-22
-22
-21
-21
-20
-20
-20
-20
-21
-21
-21
-21
-21
-22
-21
-21
-21
-21
-20
-19
-19
-18
-17
-16
-16
-15
-15
-14
-14
-13
-12
-11
-10
-9
-9
-8
-8
-8
-8
-9
-9
-10
-10
-11
-12
-13
-14
-14
-15
-15
-15
-15
-15
-14
-14
-13
-12
-11
-9
-8
-7
-6
-4
-2
-1
0
1
2
3
4
5
5
6
7
7
7
8
8
9
10
10
11
12
13
14
15
16
17
18
19
21
22
24
25
26
27
28
30
31
32
33
33
33
33
32
31
30
28
25
23
22
20
18
16
15
14
12
11
11
10
10
10
10
10
11
12
14
15
17
19
21
23
24
26
27
29
30
32
33
34
34
34
34
33
32
30
29
27
26
24
22
20
18
16
14
12
10
9
7
6
4
3
2
0
0
-1
-3
-4
-5
-6
-7
-8
-9
-9
-10
-10
-10
-10
-10
-10
-11
-11
-11
-11
-12
-12
-12
-13
-13
-13
-13
-13
-13
-13
-13
-13
-13
-12
-12
-12
-11
-11
-10
-10
-10
-10
-10
-11
-11
-12
-12
-13
-14
-16
-17
-18
-20
-22
-23
-24
-25
-27
-28
-29
-30
-31
-32
-33
-34
-35
-36
-37
-39
-40
-41
-42
-43
-44
-44
-45
-46
-47
-48
-49
-49
-50
-50
-51
-51
-51
-51
-50
-50
-49
-48
-47
-47
-46
-45
-44
-43
-42
-41
-40
-39
-38
-37
-37
-37
-37
-37
-36
-36
-36
-36
-36
-36
-36
-36
-37
-38
-38
-38
-39
-40
-41
-42
-43
-45
-46
-47
-49
-50
-51
-52
-53
-53
-53
-53
-54
-54
-54
-54
-53
-53
-53
-52
-52
-51
-51
-50
-48
-47
-45
-44
-43
-41
-40
-39
-38
-37
-36
-34
-33
-32
-32
-32
-32
-33
-34
-35
-36
-37
-39
-40
-42
-43
-45
-46
-47
-48
-49
-50
-51
-52
-53
-53
-54
-55
-55
-55
-55
-56
-56
-55
-55
-55
-55
-55
-55
-55
-55
-55
-55
-56
-56
-56
-56
-56
-56
-56
-57
-57
-57
-57
-57
-57
-56
-55
-55
-54
-53
-53
-52
-52
-53
-53
-53
-53
-53
-52
-52
-51
-51
-50
-50
-50
-49
-49
-49
-49
-49
-49
-50
-51
-51
-52
-53
-54
-55
-55
-56
-57
-57
-58
-58
-59
-59
-59
-59
-59
-58
-58
-57
-57
-56
-56
-55
-55
-54
-54
-53
-53
-52
-52
-52
-51
-51
-51
-51
-51
-51
-51
-51
-51
-50
-50
-50
-50
-49
-48
-47
-47
-46
-46
-45
-45
-45
-44
-44
-45
-45
-45
-45
-45
-46
-48
-50
-52
-54
-55
-57
-59
-61
-62
-64
-65
-66
-67
-67
-67
-67
-66
-66
-66
-66
-66
-66
-66
-65
-65
-64
-64
-64
-64
-64
-64
-65
-65
-65
-65
-66
-66
-66
-67
-67
-68
-68
-68
-68
-68
-68
-68
-67
-67
-66
-65
-64
-63
-62
-61
-60
-59
-58
-57
-57
-56
-55
-55
-54
-53
-53
-53
-53
-52
-53
-53
-53
-53
-54
-55
-56
-56
-58
-59
-60
-61
-63
-65
-66
-68
-69
-71
-72
-73
-74
-74
-74
-73
-73
-72
-71
-70
-68
-67
-66
-65
-65
-65
-64
-63
-63
-63
-62
-62
-62
-62
-62
-62
-63
-64
-65
-67
-68
-70
-71
-72
-74
-74
-75
-76
-76
-77
-77
-77
-77
-78
-77
-77
-76
-75
-74
-73
-72
-72
-71
-70
-70
-69
-68
-67
-66
-65
-64
-63
-62
-60
-59
-57
-56
-56
-55
-54
-53
-52
-51
-51
-50
-50
-49
-49
-49
-49
-49
-49
-49
-49
-49
-49
-49
-49
-49
-49
-49
-50
-50
-51
-51
-52
-52
-53
-53
-54
-54
-54
-54
-54
-54
-54
-53
-53
-53
-53
-53
-54
-54
-54
-54
-54
-55
-55
-55
-55
-56
-56
-56
-56
-57
-57
-57
-57
-57
-58
-58
-58
-59
-59
-59
-60
-60
-60
-60
-61
-62
-63
-64
-65
-66
-68
-69
-71
-72
-73
-75
-77
-79
-80
-82
-84
-86
-87
-88
-88
-89
-89
-89
-89
-89
-88
-87
-87
-85
-84
-83
-82
-81
-80
-80
-80
-80
-80
-80
-80
-80
-80
-79
-79
-79
-78
-78
-78
-78
-77
-76
-76
-75
-74
-74
-74
-73
-72
-72
-71
-71
-71
-70
-70
-70
-71
-72
-73
-74
-75
-76
-77
-78
-79
-80
-80
-81
-81
-81
-81
-80
-78
-76
-73
-69
-64
-60
-55
-49
-43
-36
-28
-19
-10
0
8
19
29
39
49
59
68
76
84
91
98
103
107
109
111
111
110
107
103
98
92
85
77
68
59
50
40
31
21
11
1
-8
-18
-28
-37
-46
-55
-63
-71
-78
-86
-92
-99
-104
-110
-114
-118
-121
-123
-124
-125
-126
-126
-125
-124
-123
-122
-121
-119
-118
-116
-114
-112
-111
-109
-108
-107
-106
-105
-105
-105
-105
-105
-104
-104
-104
-104
-105
-105
-106
-107
-108
-108
-108
-109
-109
-108
-108
-108
-107
-106
-105
-105
-104
-102
-101
-100
-100
-99
-99
-98
-98
-98
-98
-97
-97
-97
-97
-97
-96
-96
-96
-96
-96
-97
-97
-98
-98
-98
-99
-99
-99
-99
-99
-99
-99
-99
-99
-99
-99
-99
-100
-100
-100
-101
-101
-101
-102
-103
-104
-105
-106
-107
-108
-109
-110
-111
-112
-113
-114
-114
-115
-115
-115
-115
-116
-116
-115
-115
-114
-114
-113
-112
-111
-110
-109
-107
-107
-106
-105
-105
-104
-104
-103
-103
-102
-102
-103
-103
-104
-105
-105
-106
-106
-107
-108
-108
-108
-109
-109
-110
-110
-111
-111
-111
-111
-111
-111
-111
-111
-112
-111
-111
-110
-110
-109
-108
-107
-106
-105
-104
-104
-103
-102
-101
-100
-100
-100
-100
-100
-100
-100
-100
-100
-101
-101
-101
-101
-101
-101
-101
-101
-101
-101
-101
-102
-102
-103
-103
-104
-104
-105
-106
-106
-107
-107
-107
-107
-107
-107
-106
-106
-105
-105
-103
-102
-101
-101
-100
-99
-98
-97
-95
-94
-94
-93
-92
-91
-90
-88
-87
-86
-86
-85
-84
-83
-82
-82
-81
-80
-80
-80
-79
-79
-79
-79
-79
-79
-79
-79
-79
-80
-80
-80
-80
-81
-81
-82
-83
-83
-84
-84
-85
-85
-85
-84
-84
-83
-83
-82
-81
-80
-79
-78
-77
-76
-75
-74
-74
-73
-73
-72
-72
-71
-71
-71
-71
-71
-71
-71
-71
-71
-71
-71
-72
-72
-73
-73
-74
-74
-75
-75
-75
-76
-77
-77
-77
-78
-78
-78
-79
-79
-79
-80
-80
-80
-81
-82
-83
-85
-86
-88
-90
-92
-94
-96
-97
-99
-101
-103
-104
-106
-108
-109
-111
-112
-114
-115
-116
-118
-119
-120
-121
-122
-124
-125
-126
-127
-129
-130
-131
-132
-134
-135
-136
-137
-139
-140
-141
-142
-143
-143
-143
-143
-143
-143
-142
-142
-141
-140
-139
-138
-137
-136
-134
-133
-133
-132
-132
-133
-133
-134
-134
-135
-135
-136
-137
-138
-140
-141
-142
-143
-144
-144
-145
-146
-147
-148
-148
-149
-150
-151
-151
-151
-152
-152
-152
-152
-152
-152
-152
-152
-152
-152
-151
-151
-150
-150
-149
-148
-148
-147
-146
-146
-145
-144
-143
-142
-142
-141
-141
-142
-142
-143
-143
-144
-145
-146
-147
-149
-150
-151
-153
-154
-156
-157
-158
-159
-160
-161
-161
-161
-161
-161
-160
-160
-160
-160
-160
-161
-161
-162
-162
-163
-163
-162
-162
-162
-162
-161
-160
-160
-159
-159
-158
-157
-156
-155
-155
-154
-153
-152
-151
-150
-149
-149
-149
-149
-149
-150
-150
-151
-151
-152
-153
-153
-154
-155
-156
-157
-158
-159
-160
-160
-161
-161
-161
-161
-160
-160
-159
-158
-158
-158
-158
-157
-157
-157
-156
-156
-155
-154
-154
-153
-153
-152
-152
-151
-150
-149
-148
-147
-146
-146
-145
-144
-144
-144
-144
-143
-144
-144
-144
-144
-145
-146
-147
-148
-149
-150
-151
-152
-152
-153
-153
-154
-155
-156
-156
-157
-158
-159
-159
-159
-160
-160
-160
-159
-159
-158
-158
-158
-158
-158
-158
-158
-159
-159
-159
-159
-159
-158
-158
-158
-158
-158
-157
-157
-157
-157
-156
-156
-157
-157
-156
-156
-157
-157
-157
-158
-159
-160
-161
-162
-163
-163
-164
-164
-163
-163
-163
-163
-163
-162
-161
-161
-160
-159
-159
-158
-158
-157
-156
-156
-156
-156
-156
-156
-156
-156
-156
-156
-156
-156
-155
-155
-155
-155
-156
-156
-157
-158
-158
-159
-159
-159
-159
-159
-160
-160
-160
-160
-160
-160
-160
-160
-160
-160
-160
-160
-160
-160
-160
-160
-160
-160
-160
-159
-159
-158
-158
-157
-157
-157
-157
-157
-158
-158
-158
-158
-159
-159
-159
-160
-160
-159
-159
-158
-157
-157
-156
-155
-154
-153
-152
-151
-150
-150
-149
-149
-149
-149
-148
-148
-148
-147
-147
-147
-147
-146
-146
-146
-146
-145
-145
-144
-144
-143
-142
-142
-141
-140
-139
-138
-137
-137
-136
-135
-135
-134
-133
-133
-133
-133
-132
-132
-132
-133
-133
-134
-134
-135
-135
-136
-137
-137
-138
-139
-140
-140
-140
-140
-141
-141
-141
-142
-143
-144
-144
-145
-145
-145
-145
-144
-144
-144
-143
-143
-143
-142
-141
-141
-140
-139
-138
-138
-138
-137
-138
-138
-139
-140
-141
-142
-143
-145
-146
-147
-149
-151
-152
-154
-156
-158
-159
-161
-163
-164
-166
-168
-170
-171
-172
-173
-173
-173
-173
-172
-172
-171
-170
-169
-168
-167
-166
-165
-164
-164
-163
-163
-162
-162
-162
-161
-161
-162
-162
-163
-164
-165
-165
-166
-167
-168
-168
-169
-169
-170
-171
-171
-172
-173
-173
-173
-172
-172
-171
-170
-169
-168
-167
-167
-166
-165
-163
-162
-160
-158
-156
-154
-153
-151
-149
-147
-144
-141
-137
-133
-128
-122
-116
-109
-102
-94
-85
-77
-68
-59
-49
-40
-30
-21
-12
-4
2
8
13
17
20
22
23
22
20
17
12
7
0
-7
-15
-24
-34
-44
-54
-65
-77
-88
-98
-108
-118
-127
-135
-143
-151
-159
-166
-172
-178
-184
-188
-192
-195
-198
-200
-201
-202
-202
-201
-200
-199
-197
-194
-192
-190
-188
-186
-184
-183
-182
-181
-181
-180
-180
-180
-180
-181
-182
-182
-183
-184
-184
-184
-184
-185
-185
-185
-185
-184
-184
-184
-183
-183
-182
-180
-179
-178
-178
-178
-178
-178
-178
-178
-179
-179
-180
-180
-181
-181
-182
-183
-183
-184
-184
-184
-185
-185
-184
-184
-184
-183
-183
-182
-181
-180
-179
-178
-177
-177
-177
-176
-177
-177
-177
-177
-178
-179
-179
-180
-180
-180
-180
-180
-180
-180
-180
-179
-179
-179
-179
-179
-180
-180
-180
-180
-180
-180
-180
-179
-179
-179
-179
-179
-178
-178
-178
-178
-178
-179
-179
-179
-179
-179
-179
-178
-178
-177
-177
-177
-176
-176
-176
-175
-175
-174
-174
-173
-173
-173
-173
-174
-174
-174
-174
-174
-174
-175
-175
-176
-176
-176
-176
-177
-177
-177
-178
-178
-178
-177
-177
-176
-176
-176
-176
-175
-175
-174
-173
-172
-171
-170
-169
-168
-168
-168
-168
-168
-168
-168
-168
-168
-169
-169
-169
-170
-170
-171
-171
-172
-172
-172
-171
-170
-170
-169
-167
-166
-165
-164
-163
-162
-162
-161
-161
-160
-159
-159
-158
-158
-158
-157
-156
-156
-155
-154
-153
-152
-152
-151
-151
-150
-150
-149
-149
-148
-147
-146
-145
-144
-143
-142
-141
-140
-140
-140
-139
-139
-139
-139
-139
-139
-140
-140
-141
-141
-141
-141
-142
-142
-142
-141
-141
-141
-140
-139
-138
-137
-137
-135
-134
-133
-132
-131
-129
-128
-127
-127
-126
-125
-125
-124
-124
-123
-123
-123
-123
-122
-122
-122
-121
-121
-121
-120
-120
-120
-119
-119
-119
-119
-118
-118
-118
-118
-118
-118
-119
-120
-121
-123
-124
-126
-127
-129
-131
-132
-134
-135
-136
-137
-138
-138
-138
-138
-138
-138
-138
-138
-138
-138
-138
-139
-139
-140
-140
-141
-141
-142
-143
-144
-145
-147
-148
-149
-151
-152
-153
-155
-156
-158
-160
-162
-164
-166
-167
-168
-169
-170
-171
-172
-172
-173
-173
-173
-173
-173
-173
-173
-172
-172
-172
-171
-171
-171
-171
-171
-171
-171
-171
-171
-171
-171
-171
-171
-171
-172
-172
-172
-172
-172
-172
-172
-172
-172
-172
-172
-173
-173
-173
-173
-173
-174
-174
-175
-175
-176
-177
-177
-178
-180
-181
-183
-184
-186
-187
-188
-189
-190
-191
-191
-191
-190
-190
-189
-189
-189
-188
-188
-187
-187
-187
-186
-186
-186
-186
-185
-185
-185
-185
-185
-184
-184
-183
-183
-183
-183
-183
-183
-183
-183
-183
-183
-183
-183
-183
-183
-183
-183
-183
-183
-183
-183
-182
-181
-181
-180
-179
-178
-178
-178
-178
-178
-179
-179
-179
-179
-180
-180
-181
-181
-182
-184
-185
-186
-187
-189
-190
-190
-191
-191
-192
-192
-192
-192
-191
-191
-191
-191
-191
-190
-189
-187
-186
-184
-182
-181
-180
-178
-177
-177
-176
-176
-175
-175
-174
-174
-173
-173
-173
-174
-174
-174
-175
-175
-176
-177
-179
-180
-181
-181
-182
-183
-184
-185
-186
-187
-188
-189
-190
-190
-191
-191
-191
-191
-191
-192
-192
-192
-192
-192
-192
-192
-192
-192
-191
-191
-191
-190
-189
-188
-186
-185
-184
-182
-180
-179
-177
-176
-175
-175
-174
-174
-174
-174
-175
-175
-176
-177
-178
-179
-180
-181
-182
-182
-183
-184
-184
-185
-185
-186
-186
-187
-188
-188
-189
-189
-190
-190
-191
-191
-192
-192
-192
-192
-193
-193
-194
-194
-194
-194
-193
-193
-193
-192
-192
-192
-192
-192
-191
-191
-190
-189
-188
-187
-187
-186
-185
-185
-184
-184
-184
-184
-184
-184
-184
-183
-184
-184
-184
-185
-185
-186
-186
-186
-187
-187
-188
-188
-188
-189
-189
-190
-190
-191
-191
-190
-190
-190
-190
-190
-189
-189
-189
-188
-188
-188
-188
-188
-189
-189
-189
-190
-190
-191
-191
-192
-193
-194
-194
-195
-195
-195
-195
-195
-195
-196
-196
-196
-196
-196
-196
-195
-195
-195
-195
-195
-195
-195
-194
-193
-191
-190
-189
-188
-187
-186
-185
-184
-183
-182
-182
-182
-182
-182
-182
-182
-182
-183
-183
-183
-183
-183
-183
-183
-183
-184
-183
-183
-183
-182
-182
-181
-181
-181
-180
-180
-180
-179
-178
-177
-176
-175
-174
-173
-173
-172
-172
-171
-171
-170
-169
-169
-169
-169
-169
-169
-169
-169
-169
-169
-169
-170
-170
-170
-171
-172
-172
-173
-174
-174
-175
-176
-177
-178
-180
-181
-182
-183
-184
-184
-184
-185
-185
-185
-186
-186
-187
-187
-188
-189
-190
-191
-192
-192
-193
-193
-194
-195
-197
-198
-198
-199
-200
-200
-201
-202
-203
-203
-204
-204
-205
-205
-205
-206
-206
-206
-207
-207
-207
-207
-207
-207
-206
-205
-204
-204
-203
-202
-202
-201
-201
-201
-201
-201
-201
-201
-201
-201
-201
-202
-202
-202
-203
-203
-204
-205
-206
-207
-207
-208
-208
-209
-209
-210
-211
-211
-211
-211
-211
-211
-210
-210
-209
-208
-207
-207
-206
-205
-204
-203
-202
-201
-200
-199
-197
-194
-191
-188
-184
-180
-175
-169
-161
-153
-144
-135
-124
-114
-103
-92
-81
-70
-60
-51
-43
-35
-28
-22
-17
-13
-11
-10
-10
-12
-16
-21
-27
-34
-42
-51
-61
-71
-81
-92
-103
-113
-124
-134
-144
-154
-164
-173
-182
-190
-198
-206
-213
-220
-226
-231
-236
-241
-245
-248
-251
-253
-255
-256
-257
-257
-256
-255
-254
-252
-250
-248
-246
-244
-242
-241
-240
-239
-239
-238
-237
-236
-236
-235
-235
-234
-235
-235
-235
-235
-235
-235
-234
-234
-233
-233
-233
-232
-232
-232
-232
-232
-231
-231
-231
-231
-231
-231
-231
-230
-231
-231
-231
-231
-232
-232
-232
-232
-232
-233
-233
-233
-233
-234
-234
-234
-234
-234
-234
-234
-233
-233
-232
-232
-231
-231
-231
-231
-231
-231
-231
-231
-231
-231
-230
-230
-230
-230
-230
-230
-230
-231
-231
-231
-231
-231
-231
-231
-232
-232
-232
-232
-232
-232
-233
-233
-233
-233
-233
-233
-233
-233
-233
-233
-233
-233
-233
-233
-233
-233
-233
-233
-234
-234
-234
-234
-234
-234
-234
-234
-234
-234
-234
-234
-234
-235
-236
-237
-238
-239
-240
-240
-240
-241
-240
-240
-239
-238
-237
-236
-236
-235
-234
-233
-232
-230
-229
-228
-227
-226
-226
-225
-225
-226
-226
-226
-226
-226
-226
-226
-226
-226
-226
-226
-227
-227
-227
-228
-228
-228
-228
-228
-228
-228
-228
-227
-227
-227
-227
-226
-226
-225
-225
-225
-225
-225
-224
-224
-224
-224
-224
-223
-223
-222
-221
-219
-217
-216
-214
-212
-210
-208
-207
-206
-205
-203
-202
-201
-200
-200
-200
-200
-200
-200
-201
-201
-202
-202
-202
-202
-202
-203
-203
-203
-202
-202
-201
-200
-199
-198
-196
-195
-193
-192
-190
-189
-187
-186
-184
-182
-181
-180
-179
-178
-177
-176
-176
-175
-175
-175
-175
-175
-176
-176
-177
-178
-178
-178
-178
-178
-178
-179
-179
-179
-180
-180
-180
-179
-179
-179
-178
-178
-177
-177
-177
-177
-177
-177
-177
-177
-177
-177
-178
-179
-180
-181
-182
-184
-186
-188
-190
-192
-193
-195
-197
-198
-199
-200
-201
-201
-202
-203
-203
-204
-204
-204
-205
-205
-205
-206
-206
-206
-207
-207
-207
-207
-207
-208
-208
-208
-208
-209
-209
-209
-209
-210
-210
-210
-210
-210
-211
-211
-212
-212
-213
-214
-215
-215
-216
-216
-216
-217
-218
-219
-220
-221
-223
-224
-226
-227
-229
-230
-231
-232
-233
-234
-235
-236
-237
-238
-238
-239
-239
-239
-239
-239
-239
-239
-238
-238
-236
-235
-234
-233
-233
-232
-231
-230
-229
-229
-228
-228
-228
-228
-229
-229
-230
-231
-232
-234
-235
-236
-238
-239
-240
-241
-242
-243
-243
-244
-244
-244
-243
-243
-242
-242
-241
-241
-241
-241
-240
-239
-239
-238
-237
-237
-236
-236
-235
-235
-235
-235
-235
-235
-235
-236
-236
-237
-237
-238
-239
-239
-240
-241
-241
-241
-241
-241
-240
-239
-238
-238
-237
-236
-235
-234
-233
-233
-232
-232
-231
-231
-231
-231
-231
-231
-231
-231
-231
-230
-230
-230
-230
-231
-231
-232
-232
-233
-233
-234
-234
-234
-234
-235
-236
-236
-237
-238
-239
-239
-239
-239
-240
-240
-240
-241
-240
-240
-240
-239
-239
-238
-238
-238
-237
-236
-235
-235
-234
-233
-232
-232
-232
-232
-232
-232
-232
-232
-233
-233
-234
-234
-235
-235
-236
-236
-236
-235
-235
-235
-235
-235
-235
-234
-234
-233
-233
-233
-233
-233
-233
-232
-232
-232
-231
-231
-230
-230
-229
-228
-227
-227
-227
-226
-226
-225
-225
-225
-225
-226
-226
-227
-227
-228
-229
-230
-230
-231
-232
-232
-233
-233
-234
-234
-235
-235
-235
-235
-236
-236
-236
-235
-235
-234
-234
-233
-232
-232
-231
-231
-230
-230
-229
-229
-228
-228
-228
-228
-228
-229
-229
-229
-230
-230
-231
-231
-231
-232
-232
-233
-234
-235
-236
-236
-237
-237
-238
-239
-239
-240
-241
-241
-241
-241
-241
-241
-240
-239
-237
-235
-234
-232
-231
-230
-229
-228
-227
-226
-224
-224
-223
-222
-221
-221
-221
-222
-222
-223
-224
-225
-226
-228
-229
-231
-232
-233
-235
-236
-237
-238
-239
-240
-240
-241
-241
-241
-242
-241
-241
-240
-239
-238
-237
-236
-235
-235
-234
-234
-234
-234
-234
-234
-234
-234
-233
-232
-231
-231
-230
-229
-228
-227
-226
-225
-224
-223
-222
-221
-220
-220
-219
-218
-218
-217
-217
-217
-216
-216
-216
-216
-215
-216
-215
-215
-215
-215
-215
-215
-214
-214
-214
-213
-213
-212
-212
-211
-210
-210
-209
-208
-208
-208
-208
-207
-207
-207
-207
-208
-208
-209
-210
-210
-212
-213
-214
-215
-216
-216
-217
-217
-217
-218
-218
-218
-218
-218
-218
-218
-217
-217
-217
-217
-216
-216
-215
-215
-215
-215
-216
-216
-216
-217
-218
-219
-220
-221
-223
-224
-226
-228
-229
-231
-232
-233
-234
-236
-237
-238
-239
-239
-240
-240
-240
-240
-240
-240
-241
-241
-241
-241
-241
-242
-242
-242
-243
-242
-242
-241
-241
-240
-240
-240
-240
-240
-239
-238
-238
-237
-237
-236
-236
-236
-236
-237
-237
-238
-238
-239
-239
-239
-239
-240
-241
-241
-242
-243
-243
-243
-243
-243
-243
-242
-241
-240
-239
-237
-235
-233
-231
-228
-226
-224
-222
-219
-217
-215
-213
-211
-209
-207
-204
-202
-199
-196
-193
-188
-182
-176
-169
-161
-153
-144
-136
-127
-118
-109
-100
-92
-84
-77
-70
-64
-59
-56
-53
-52
-52
-53
-57
-61
-67
-74
-81
-89
-98
-107
-117
-127
-137
-147
-157
-166
-176
-185
-194
-202
-210
-218
-225
-232
-238
-244
-249
-253
-258
-262
-266
-269
-272
-275
-277
-279
-280
-281
-281
-281
-280
-279
-277
-275
-273
-270
-268
-265
-263
-260
-258
-255
-253
-251
-248
-246
-245
-244
-243
-242
-242
-241
-241
-240
-240
-241
-241
-242
-242
-243
-243
-244
-244
-245
-246
-247
-248
-249
-249
-249
-249
-249
-249
-249
-249
-249
-250
-250
-251
-251
-252
-252
-253
-254
-254
-255
-255
-256
-257
-257
-258
-258
-258
-258
-258
-257
-257
-256
-256
-256
-256
-255
-255
-255
-254
-253
-252
-252
-252
-251
-251
-251
-251
-251
-251
-251
-251
-250
-250
-250
-250
-250
-250
-250
-250
-249
-249
-248
-248
-248
-248
-248
-247
-246
-245
-245
-244
-244
-244
-244
-245
-245
-246
-247
-248
-249
-250
-250
-251
-252
-252
-252
-253
-253
-253
-254
-254
-254
-253
-253
-252
-252
-251
-251
-250
-249
-247
-246
-245
-243
-241
-239
-238
-236
-234
-233
-232
-230
-229
-229
-228
-228
-227
-228
-228
-228
-229
-230
-231
-231
-231
-232
-232
-233
-233
-234
-235
-236
-237
-238
-238
-239
-240
-240
-241
-242
-242
-243
-243
-244
-244
-244
-244
-244
-244
-243
-242
-241
-240
-239
-237
-236
-234
-233
-231
-229
-228
-226
-225
-223
-221
-220
-218
-217
-216
-216
-215
-215
-214
-214
-213
-213
-214
-214
-215
-215
-216
-216
-216
-216
-216
-215
-215
-214
-214
-213
-212
-211
-210
-209
-208
-208
-207
-206
-205
-204
-203
-202
-201
-200
-198
-197
-196
-194
-193
-192
-191
-189
-187
-186
-185
-183
-183
-182
-181
-180
-179
-179
-178
-178
-178
-178
-178
-178
-179
-179
-180
-180
-181
-181
-182
-183
-184
-185
-185
-186
-187
-188
-188
-189
-190
-190
-190
-190
-189
-189
-189
-189
-189
-189
-189
-190
-191
-192
-193
-193
-194
-196
-197
-198
-200
-201
-203
-204
-206
-208
-210
-211
-213
-215
-217
-218
-220
-221
-223
-224
-225
-225
-226
-226
-227
-227
-227
-227
-227
-227
-228
-228
-229
-229
-230
-231
-232
-233
-234
-234
-235
-236
-236
-237
-237
-238
-238
-238
-238
-238
-238
-238
-238
-238
-238
-238
-238
-239
-238
-238
-238
-238
-238
-238
-238
-237
-237
-236
-236
-235
-235
-235
-235
-235
-235
-236
-236
-237
-237
-238
-239
-240
-242
-243
-244
-246
-247
-248
-250
-251
-252
-253
-254
-254
-255
-255
-256
-256
-256
-255
-254
-253
-252
-251
-250
-249
-248
-247
-246
-245
-244
-243
-243
-243
-243
-243
-243
-244
-245
-245
-245
-245
-245
-245
-245
-245
-245
-245
-245
-246
-247
-247
-248
-248
-249
-249
-250
-252
-253
-255
-256
-257
-258
-259
-260
-260
-261
-261
-262
-262
-262
-261
-260
-260
-259
-258
-257
-256
-255
-254
-253
-252
-251
-250
-249
-248
-247
-246
-246
-245
-245
-245
-245
-244
-245
-245
-245
-246
-247
-247
-247
-248
-248
-248
-249
-249
-250
-250
-250
-250
-251
-251
-251
-252
-252
-253
-253
-254
-254
-254
-254
-254
-254
-253
-253
-252
-251
-249
-248
-247
-246
-244
-243
-242
-241
-240
-239
-239
-239
-239
-239
-240
-241
-242
-243
-244
-245
-247
-248
-250
-251
-252
-253
-254
-254
-254
-255
-255
-255
-255
-255
-255
-254
-254
-254
-253
-253
-252
-251
-251
-250
-250
-249
-249
-248
-248
-248
-249
-249
-249
-250
-250
-249
-249
-248
-248
-247
-246
-246
-246
-245
-245
-245
-245
-245
-245
-245
-245
-246
-246
-246
-247
-247
-247
-247
-247
-247
-247
-247
-247
-247
-247
-247
-246
-246
-246
-245
-245
-245
-244
-243
-243
-242
-242
-241
-241
-242
-242
-242
-243
-244
-245
-246
-248
-249
-251
-253
-255
-257
-258
-260
-262
-264
-265
-265
-265
-265
-264
-263
-262
-260
-258
-257
-255
-253
-252
-250
-249
-247
-246
-244
-243
-241
-240
-239
-238
-238
-238
-238
-239
-240
-241
-242
-243
-244
-245
-247
-248
-249
-250
-251
-253
-254
-255
-256
-257
-257
-257
-257
-257
-257
-257
-257
-257
-256
-256
-256
-256
-257
-256
-256
-256
-256
-256
-256
-257
-257
-257
-257
-257
-256
-256
-255
-255
-255
-254
-253
-252
-251
-250
-249
-248
-247
-246
-244
-243
-241
-240
-238
-237
-236
-235
-234
-233
-232
-232
-232
-232
-232
-232
-233
-233
-233
-233
-233
-233
-232
-232
-232
-231
-231
-231
-230
-230
-230
-229
-229
-229
-229
-228
-228
-228
-228
-227
-227
-226
-226
-225
-225
-225
-225
-225
-225
-225
-226
-226
-226
-227
-228
-228
-229
-230
-230
-230
-230
-230
-230
-231
-232
-232
-233
-233
-234
-234
-235
-236
-236
-237
-237
-238
-238
-239
-239
-240
-241
-242
-242
-242
-243
-244
-244
-245
-245
-246
-247
-247
-248
-248
-248
-248
-248
-249
-249
-249
-250
-250
-250
-250
-249
-248
-248
-247
-246
-246
-246
-247
-247
-247
-247
-248
-248
-249
-250
-250
-250
-251
-251
-251
-252
-252
-252
-253
-253
-253
-253
-254
-254
-255
-255
-256
-256
-257
-257
-258
-258
-258
-259
-259
-259
-259
-259
-259
-259
-259
-259
-259
-259
-259
-258
-257
-256
-256
-255
-254
-253
-252
-251
-250
-250
-249
-249
-248
-247
-246
-246
-245
-244
-243
-241
-239
-236
-233
-229
-225
-219
-213
-206
-199
-190
-182
-172
-162
-152
-142
-132
-122
-113
-105
-97
-90
-84
-79
-75
-72
-69
-68
-69
-70
-72
-76
-81
-86
-93
-100
-107
-115
-124
-133
-142
-152
-161
-170
-180
-188
-197
-205
-213
-221
-229
-237
-244
-251
-257
-264
-269
-275
-280
-284
-288
-291
-293
-295
-297
-297
-297
-297
-296
-295
-294
-292
-290
-288
-286
-284
-282
-280
-278
-276
-274
-272
-270
-269
-267
-265
-264
-263
-261
-260
-259
-259
-258
-257
-257
-256
-256
-256
-256
-256
-257
-257
-257
-258
-258
-259
-259
-259
-259
-259
-259
-259
-259
-259
-258
-258
-258
-257
-257
-257
-257
-257
-257
-257
-257
-257
-257
-257
-258
-258
-258
-259
-260
-260
-260
-261
-261
-262
-262
-263
-264
-264
-264
-265
-265
-265
-265
-265
-265
-265
-265
-265
-265
-264
-264
-263
-263
-262
-262
-263
-263
-263
-262
-262
-262
-261
-260
-260
-260
-260
-259
-260
-260
-260
-260
-260
-260
-260
-260
-261
-261
-262
-262
-263
-263
-264
-264
-263
-263
-262
-261
-261
-260
-259
-259
-258
-258
-257
-257
-256
-256
-255
-254
-253
-253
-252
-251
-251
-250
-249
-248
-248
-248
-247
-247
-248
-248
-248
-249
-249
-250
-250
-250
-251
-251
-251
-252
-252
-252
-252
-251
-251
-251
-251
-251
-252
-252
-252
-252
-252
-252
-252
-252
-252
-252
-251
-251
-250
-249
-248
-247
-247
-246
-246
-245
-244
-244
-243
-243
-243
-243
-244
-244
-244
-245
-245
-245
-245
-245
-245
-244
-244
-243
-242
-241
-240
-239
-238
-236
-234
-232
-230
-229
-228
-226
-225
-224
-223
-222
-221
-221
-221
-220
-220
-220
-221
-222
-222
-223
-225
-226
-226
-227
-227
-227
-227
-227
-226
-226
-225
-224
-224
-223
-222
-221
-219
-218
-217
-216
-214
-213
-212
-211
-210
-210
-209
-208
-208
-207
-207
-207
-207
-207
-207
-207
-208
-208
-208
-209
-210
-210
-210
-211
-211
-211
-211
-211
-210
-210
-210
-210
-210
-210
-209
-209
-210
-210
-210
-210
-211
-212
-212
-213
-214
-215
-215
-216
-217
-217
-218
-218
-220
-221
-222
-224
-225
-227
-228
-229
-231
-232
-234
-235
-237
-238
-240
-240
-241
-242
-242
-242
-242
-242
-242
-242
-243
-243
-243
-243
-244
-244
-245
-245
-246
-247
-248
-248
-249
-250
-250
-251
-252
-252
-253
-254
-254
-255
-256
-257
-258
-258
-259
-259
-259
-259
-259
-258
-258
-258
-257
-256
-256
-255
-255
-254
-254
-253
-253
-252
-252
-252
-253
-253
-253
-254
-254
-254
-254
-255
-255
-256
-257
-258
-259
-259
-259
-260
-260
-260
-260
-260
-260
-259
-259
-260
-260
-260
-261
-261
-261
-261
-262
-262
-263
-263
-264
-264
-265
-266
-267
-268
-268
-269
-269
-270
-270
-270
-270
-270
-270
-269
-268
-267
-266
-266
-265
-265
-265
-264
-264
-264
-263
-263
-264
-264
-264
-264
-264
-264
-264
-265
-266
-266
-267
-268
-269
-269
-270
-270
-271
-271
-271
-271
-272
-272
-271
-271
-269
-268
-266
-264
-263
-261
-260
-259
-258
-257
-255
-255
-254
-253
-252
-251
-251
-250
-250
-250
-250
-250
-250
-250
-250
-250
-250
-250
-250
-251
-251
-252
-252
-253
-253
-253
-254
-255
-256
-256
-257
-257
-258
-258
-259
-259
-260
-260
-261
-261
-261
-261
-261
-261
-261
-260
-260
-260
-259
-258
-256
-255
-253
-252
-251
-250
-249
-248
-247
-247
-246
-245
-245
-245
-245
-245
-246
-247
-248
-249
-250
-250
-251
-252
-252
-253
-254
-255
-256
-257
-257
-258
-259
-260
-260
-260
-261
-260
-260
-259
-258
-257
-256
-255
-254
-254
-252
-252
-251
-250
-250
-249
-249
-249
-249
-249
-249
-249
-249
-250
-250
-250
-250
-250
-250
-250
-251
-251
-252
-252
-252
-252
-252
-252
-251
-251
-251
-251
-251
-251
-251
-251
-251
-251
-251
-251
-250
-250
-250
-250
-250
-250
-250
-250
-250
-250
-249
-249
-249
-248
-249
-249
-248
-248
-248
-248
-248
-248
-248
-249
-249
-250
-251
-251
-252
-253
-253
-254
-254
-254
-253
-253
-252
-251
-250
-250
-249
-249
-248
-248
-247
-247
-246
-246
-245
-245
-244
-244
-244
-244
-244
-244
-244
-244
-244
-244
-244
-244
-244
-244
-244
-244
-244
-243
-243
-242
-241
-240
-239
-237
-236
-234
-233
-231
-230
-228
-226
-224
-223
-221
-220
-220
-219
-219
-219
-218
-218
-219
-219
-219
-220
-221
-221
-222
-222
-223
-223
-224
-224
-224
-225
-225
-225
-226
-226
-226
-226
-226
-226
-227
-227
-227
-227
-226
-226
-225
-224
-224
-224
-223
-223
-223
-223
-223
-222
-222
-222
-222
-222
-222
-221
-221
-221
-221
-221
-221
-221
-220
-221
-221
-221
-222
-223
-223
-224
-224
-225
-225
-226
-226
-226
-226
-226
-226
-226
-226
-227
-228
-229
-230
-231
-232
-233
-233
-234
-235
-236
-236
-237
-237
-237
-237
-238
-238
-239
-240
-240
-241
-241
-241
-241
-241
-241
-241
-242
-242
-243
-244
-245
-245
-246
-246
-246
-246
-247
-247
-246
-246
-246
-246
-245
-245
-244
-244
-244
-243
-242
-242
-241
-240
-239
-238
-237
-236
-236
-235
-235
-234
-234
-233
-233
-232
-232
-231
-230
-229
-227
-225
-222
-219
-215
-210
-205
-199
-193
-186
-178
-169
-160
-151
-141
-131
-121
-111
-102
-93
-84
-77
-70
-63
-57
-53
-49
-47
-47
-48
-50
-54
-60
-66
-73
-81
-89
-98
-107
-117
-126
-136
-146
-155
-164
-173
-182
-190
-197
-205
-212
-219
-225
-231
-237
-242
-247
-252
-256
-260
-264
-268
-270
-273
-275
-276
-277
-278
-278
-278
-278
-277
-275
-274
-273
-271
-269
-267
-265
-263
-261
-260
-258
-256
-255
-253
-252
-251
-250
-249
-249
-248
-249
-249
-250
-251
-251
-252
-253
-253
-254
-255
-255
-255
-255
-254
-254
-253
-253
-252
-252
-251
-251
-250
-249
-249
-249
-248
-248
-247
-247
-247
-247
-247
-246
-246
-246
-246
-247
-247
-248
-249
-250
-251
-252
-252
-253
-254
-255
-256
-256
-257
-257
-258
-258
-258
-258
-258
-257
-256
-255
-254
-253
-251
-250
-249
-249
-248
-247
-247
-246
-246
-246
-246
-246
-247
-247
-247
-248
-249
-250
-251
-252
-254
-255
-256
-257
-258
-258
-259
-259
-258
-258
-257
-256
-255
-253
-252
-251
-250
-249
-248
-247
-246
-244
-244
-243
-243
-242
-242
-242
-243
-243
-243
-244
-245
-245
-246
-247
-247
-248
-248
-249
-249
-250
-250
-251
-252
-252
-252
-252
-251
-250
-249
-249
-248
-247
-246
-245
-244
-243
-242
-241
-241
-241
-240
-240
-240
-240
-240
-239
-239
-239
-239
-238
-238
-237
-237
-236
-235
-234
-233
-232
-231
-229
-228
-228
-227
-226
-225
-225
-225
-224
-224
-224
-223
-223
-223
-223
-222
-222
-222
-222
-222
-222
-222
-221
-221
-221
-220
-220
-220
-219
-218
-218
-217
-215
-214
-212
-211
-209
-208
-206
-205
-204
-202
-201
-200
-198
-197
-196
-195
-194
-193
-193
-193
-192
-192
-192
-192
-193
-193
-194
-195
-195
-196
-197
-197
-198
-198
-198
-198
-198
-198
-197
-197
-196
-195
-195
-194
-194
-193
-193
-193
-192
-192
-193
-193
-193
-193
-194
-194
-194
-194
-194
-194
-194
-194
-195
-195
-195
-196
-196
-196
-196
-196
-196
-196
-196
-196
-196
-196
-196
-195
-195
-196
-196
-196
-196
-196
-196
-196
-197
-198
-199
-200
-202
-204
-206
-208
-210
-212
-214
-215
-216
-218
-219
-220
-221
-222
-222
-223
-223
-223
-223
-223
-223
-224
-225
-226
-226
-226
-226
-226
-226
-226
-227
-228
-229
-230
-231
-232
-234
-235
-237
-238
-239
-240
-241
-242
-243
-244
-245
-246
-246
-247
-247
-247
-246
-246
-245
-244
-244
-244
-244
-243
-243
-243
-243
-242
-242
-242
-241
-241
-241
-241
-241
-241
-241
-241
-241
-242
-242
-243
-243
-244
-245
-246
-247
-247
-249
-249
-250
-251
-251
-251
-251
-251
-251
-250
-250
-250
-250
-250
-250
-250
-250
-249
-249
-249
-249
-249
-248
-248
-247
-247
-246
-246
-246
-246
-247
-247
-248
-248
-249
-249
-249
-250
-250
-250
-251
-252
-253
-254
-254
-255
-255
-255
-255
-255
-254
-254
-254
-254
-254
-254
-254
-253
-253
-252
-252
-251
-250
-249
-248
-247
-246
-245
-244
-242
-241
-240
-240
-239
-239
-239
-239
-239
-239
-239
-239
-239
-239
-239
-240
-241
-242
-243
-244
-245
-245
-246
-247
-248
-249
-250
-251
-252
-252
-253
-253
-253
-253
-253
-253
-253
-253
-252
-251
-250
-249
-249
-248
-247
-247
-246
-246
-245
-245
-244
-244
-243
-242
-242
-241
-241
-241
-240
-240
-240
-239
-238
-237
-237
-236
-235
-235
-235
-235
-235
-236
-236
-236
-236
-236
-236
-236
-237
-237
-238
-239
-239
-241
-242
-243
-243
-244
-245
-246
-246
-247
-247
-247
-248
-248
-248
-248
-248
-247
-247
-246
-245
-244
-244
-243
-243
-242
-242
-241
-240
-239
-238
-237
-235
-234
-233
-231
-230
-229
-228
-228
-228
-228
-229
-230
-231
-232
-233
-234
-235
-236
-238
-239
-240
-241
-242
-243
-244
-244
-245
-244
-244
-244
-244
-244
-243
-243
-243
-243
-242
-242
-242
-242
-241
-241
-241
-241
-241
-242
-242
-242
-242
-243
-243
-244
-244
-245
-245
-246
-246
-247
-247
-247
-246
-246
-245
-245
-245
-244
-244
-243
-243
-242
-242
-242
-241
-241
-241
-241
-240
-240
-239
-239
-238
-237
-237
-237
-237
-237
-238
-238
-239
-240
-241
-241
-242
-243
-244
-245
-245
-247
-247
-248
-249
-249
-250
-250
-250
-249
-248
-246
-245
-243
-242
-240
-239
-237
-236
-235
-233
-232
-231
-229
-228
-227
-226
-225
-224
-224
-224
-224
-224
-225
-225
-226
-226
-227
-228
-229
-230
-231
-232
-232
-232
-232
-231
-231
-231
-231
-231
-231
-231
-231
-230
-229
-228
-228
-227
-226
-226
-226
-226
-225
-225
-224
-224
-224
-223
-224
-224
-224
-225
-226
-227
-228
-229
-230
-232
-233
-234
-235
-236
-237
-238
-239
-239
-240
-240
-240
-240
-240
-240
-240
-240
-240
-240
-240
-240
-239
-239
-239
-239
-239
-239
-239
-239
-239
-239
-240
-240
-240
-240
-241
-242
-243
-244
-245
-246
-248
-249
-250
-251
-251
-252
-253
-254
-255
-255
-256
-257
-258
-258
-259
-260
-260
-260
-260
-261
-261
-261
-261
-261
-260
-260
-258
-257
-256
-254
-252
-251
-249
-247
-246
-245
-244
-243
-243
-243
-243
-243
-244
-245
-245
-246
-247
-249
-250
-251
-253
-254
-254
-255
-255
-255
-254
-253
-252
-251
-249
-246
-243
-239
-235
-230
-224
-218
-211
-203
-195
-186
-176
-166
-156
-145
-135
-124
-114
-105
-95
-87
-79
-72
-66
-61
-57
-54
-53
-53
-54
-57
-62
-67
-75
-83
-92
-101
-112
-123
-134
-145
-157
-168
-179
-189
-199
-208
-217
-226
-235
-243
-251
-258
-265
-270
-275
-280
-283
-287
-289
-292
-294
-295
-295
-295
-295
-293
-292
-289
-287
-285
-283
-280
-278
-276
-274
-272
-270
-269
-267
-266
-265
-264
-263
-262
-261
-261
-261
-261
-261
-262
-262
-262
-262
-262
-262
-262
-263
-264
-265
-266
-267
-268
-268
-269
-270
-270
-270
-271
-271
-272
-272
-272
-273
-273
-273
-273
-273
-273
-273
-273
-272
-272
-271
-270
-270
-269
-268
-268
-267
-266
-265
-264
-264
-263
-262
-262
-261
-261
-260
-259
-258
-258
-258
-257
-257
-257
-257
-257
-256
-256
-256
-256
-256
-257
-257
-258
-258
-259
-259
-259
-259
-259
-259
-259
-259
-259
-258
-258
-258
-258
-258
-258
-259
-260
-261
-262
-263
-264
-265
-266
-266
-267
-267
-268
-268
-268
-268
-268
-267
-267
-266
-264
-264
-263
-262
-261
-261
-260
-260
-259
-259
-258
-258
-258
-258
-258
-258
-258
-258
-258
-258
-258
-258
-258
-259
-259
-259
-259
-259
-260
-260
-260
-260
-260
-260
-260
-259
-259
-258
-257
-257
-256
-256
-256
-255
-255
-254
-254
-253
-252
-252
-251
-250
-248
-247
-246
-245
-245
-244
-244
-243
-242
-242
-242
-242
-242
-242
-242
-242
-243
-243
-244
-244
-245
-245
-245
-245
-245
-245
-244
-243
-242
-242
-241
-240
-239
-239
-238
-237
-236
-235
-234
-232
-231
-229
-228
-227
-226
-225
-224
-223
-222
-221
-221
-220
-220
-219
-219
-218
-218
-217
-217
-216
-215
-215
-214
-213
-212
-211
-210
-209
-208
-207
-207
-206
-205
-204
-204
-203
-203
-202
-202
-201
-200
-199
-199
-199
-198
-198
-198
-198
-198
-198
-198
-198
-199
-199
-200
-200
-201
-202
-203
-203
-204
-205
-206
-206
-207
-208
-209
-210
-211
-213
-214
-215
-216
-216
-217
-217
-218
-219
-219
-219
-220
-220
-219
-219
-219
-218
-218
-218
-219
-219
-220
-220
-221
-222
-222
-223
-225
-226
-227
-228
-229
-230
-231
-233
-233
-234
-235
-236
-237
-238
-239
-240
-241
-242
-243
-244
-245
-246
-246
-247
-248
-248
-249
-249
-250
-250
-251
-251
-251
-251
-251
-251
-251
-251
-251
-251
-252
-252
-252
-252
-252
-252
-252
-252
-252
-252
-252
-252
-253
-254
-255
-256
-257
-258
-259
-260
-261
-262
-263
-264
-265
-266
-267
-268
-269
-269
-269
-269
-269
-269
-269
-269
-268
-268
-267
-266
-265
-264
-263
-261
-260
-258
-257
-255
-254
-253
-252
-251
-250
-250
-250
-250
-250
-251
-251
-252
-253
-255
-256
-257
-259
-260
-261
-262
-263
-264
-265
-266
-267
-269
-270
-270
-271
-271
-271
-271
-272
-272
-271
-271
-270
-270
-269
-268
-268
-267
-266
-265
-264
-263
-262
-261
-260
-259
-259
-259
-258
-258
-258
-258
-258
-258
-257
-257
-257
-257
-257
-257
-258
-259
-260
-261
-262
-263
-264
-266
-267
-268
-269
-270
-271
-271
-272
-273
-273
-274
-274
-274
-273
-273
-272
-271
-270
-270
-269
-268
-267
-266
-265
-263
-261
-260
-258
-257
-255
-253
-252
-251
-250
-249
-249
-248
-248
-248
-247
-247
-247
-248
-248
-249
-249
-250
-251
-253
-254
-255
-256
-257
-258
-259
-260
-261
-263
-264
-266
-267
-268
-269
-269
-269
-269
-268
-267
-266
-266
-265
-264
-263
-261
-260
-259
-257
-256
-255
-254
-254
-253
-253
-253
-253
-253
-254
-254
-255
-256
-257
-258
-259
-260
-261
-263
-264
-265
-266
-267
-268
-269
-269
-270
-270
-270
-271
-271
-271
-271
-270
-270
-270
-270
-270
-270
-270
-270
-271
-271
-271
-271
-270
-270
-269
-268
-267
-267
-266
-265
-265
-264
-263
-263
-262
-262
-262
-261
-261
-261
-261
-262
-262
-263
-263
-264
-265
-265
-266
-266
-267
-267
-268
-268
-269
-270
-270
-271
-271
-272
-272
-272
-272
-272
-271
-270
-270
-269
-268
-268
-267
-267
-266
-265
-265
-264
-264
-264
-264
-264
-264
-264
-265
-265
-266
-266
-267
-267
-268
-268
-269
-269
-270
-270
-271
-272
-273
-274
-275
-276
-277
-278
-279
-280
-281
-281
-281
-281
-281
-281
-281
-280
-280
-280
-280
-279
-279
-279
-278
-278
-277
-277
-276
-275
-275
-274
-274
-274
-273
-273
-273
-272
-272
-272
-271
-271
-271
-272
-272
-272
-272
-272
-272
-272
-271
-270
-269
-267
-266
-264
-263
-262
-261
-259
-258
-256
-255
-253
-252
-251
-250
-250
-250
-249
-249
-249
-249
-249
-249
-249
-250
-250
-250
-251
-252
-253
-254
-255
-256
-257
-257
-258
-258
-257
-257
-257
-257
-257
-257
-256
-256
-255
-254
-253
-252
-251
-251
-251
-251
-251
-251
-252
-252
-253
-253
-252
-252
-252
-252
-252
-252
-253
-254
-254
-255
-255
-256
-256
-256
-256
-257
-258
-259
-259
-260
-262
-263
-264
-265
-266
-267
-268
-269
-270
-271
-272
-272
-273
-274
-275
-275
-275
-274
-273
-272
-271
-269
-268
-266
-265
-264
-263
-261
-260
-259
-258
-257
-257
-258
-259
-260
-261
-262
-263
-265
-267
-269
-271
-273
-275
-277
-279
-281
-283
-284
-285
-286
-287
-288
-288
-288
-288
-288
-288
-287
-286
-285
-284
-283
-282
-281
-280
-280
-280
-280
-280
-280
-280
-280
-280
-280
-280
-280
-280
-279
-279
-278
-278
-277
-275
-274
-273
-271
-269
-267
-265
-263
-261
-258
-256
-253
-249
-245
-241
-236
-231
-225
-218
-211
-203
-194
-185
-175
-165
-154
-144
-134
-124
-115
-107
-99
-93
-87
-82
-79
-77
-76
-76
-77
-80
-84
-89
-96
-103
-111
-120
-129
-138
-149
-159
-170
-180
-190
-200
-209
-218
-227
-236
-245
-253
-260
-268
-274
-280
-286
-290
-295
-298
-302
-305
-307
-308
-310
-310
-310
-309
-308
-306
-304
-301
-299
-296
-294
-292
-290
-288
-287
-286
-285
-284
-283
-282
-281
-281
-281
-280
-281
-281
-281
-281
-281
-281
-281
-281
-281
-282
-283
-283
-284
-284
-284
-285
-285
-285
-285
-284
-283
-283
-282
-282
-281
-281
-281
-280
-280
-280
-280
-280
-279
-280
-280
-280
-281
-282
-282
-282
-282
-282
-283
-283
-283
-283
-284
-284
-284
-283
-283
-282
-282
-282
-281
-280
-280
-279
-278
-277
-277
-276
-275
-274
-274
-273
-272
-272
-272
-272
-273
-273
-274
-275
-276
-276
-277
-277
-278
-278
-278
-278
-277
-277
-277
-276
-276
-275
-274
-273
-273
-272
-271
-271
-270
-270
-269
-269
-269
-269
-269
-270
-271
-271
-272
-273
-273
-274
-274
-275
-276
-276
-277
-277
-277
-277
-277
-277
-276
-275
-274
-273
-272
-270
-269
-268
-267
-265
-264
-263
-261
-260
-259
-258
-258
-257
-257
-256
-256
-256
-256
-256
-256
-255
-255
-255
-255
-255
-256
-256
-257
-257
-258
-258
-258
-259
-259
-259
-259
-258
-258
-257
-257
-256
-255
-254
-253
-252
-251
-250
-249
-248
-247
-247
-247
-246
-246
-245
-245
-244
-244
-244
-243
-243
-243
-244
-243
-243
-243
-243
-243
-242
-241
-240
-239
-238
-236
-236
-235
-234
-233
-231
-230
-228
-227
-225
-224
-223
-222
-222
-222
-222
-223
-224
-225
-226
-227
-227
-228
-228
-228
-229
-229
-229
-228
-228
-227
-226
-225
-223
-222
-220
-218
-217
-216
-215
-213
-212
-211
-211
-210
-209
-209
-209
-209
-210
-210
-210
-211
-211
-212
-212
-213
-214
-215
-215
-215
-215
-215
-214
-214
-213
-212
-212
-211
-211
-211
-211
-211
-212
-212
-212
-213
-213
-214
-215
-215
-216
-217
-217
-218
-218
-219
-220
-220
-221
-222
-222
-223
-223
-223
-224
-224
-225
-226
-227
-228
-230
-230
-231
-232
-234
-235
-236
-238
-240
-241
-243
-245
-247
-249
-251
-253
-255
-257
-258
-260
-261
-261
-262
-262
-263
-263
-262
-262
-262
-262
-261
-261
-261
-261
-261
-261
-261
-262
-262
-263
-264
-264
-264
-265
-265
-266
-266
-267
-267
-268
-268
-269
-269
-270
-270
-271
-271
-271
-271
-271
-270
-270
-270
-270
-270
-269
-269
-269
-268
-267
-267
-266
-265
-264
-263
-263
-263
-262
-262
-262
-261
-261
-261
-261
-261
-261
-261
-261
-262
-262
-262
-263
-264
-265
-266
-267
-268
-269
-270
-271
-271
-272
-272
-273
-273
-273
-273
-272
-272
-271
-271
-270
-269
-268
-267
-266
-266
-265
-264
-264
-264
-264
-265
-266
-266
-267
-267
-268
-270
-271
-273
-275
-277
-279
-281
-283
-285
-286
-288
-289
-290
-290
-290
-290
-290
-289
-288
-287
-286
-285
-283
-282
-281
-280
-279
-278
-278
-277
-277
-277
-277
-277
-277
-277
-277
-277
-277
-277
-277
-277
-277
-277
-278
-278
-278
-278
-278
-277
-277
-276
-276
-275
-274
-273
-272
-271
-270
-269
-268
-268
-267
-267
-267
-267
-267
-267
-268
-268
-269
-270
-271
-271
-272
-273
-274
-274
-274
-275
-275
-275
-275
-275
-275
-275
-274
-274
-273
-272
-271
-269
-268
-266
-265
-263
-262
-261
-261
-260
-260
-260
-261
-262
-263
-264
-265
-267
-269
-271
-273
-275
-276
-278
-279
-280
-282
-282
-283
-283
-283
-282
-281
-279
-278
-276
-274
-272
-271
-270
-269
-268
-267
-266
-265
-265
-264
-264
-264
-265
-266
-266
-268
-269
-270
-272
-273
-275
-276
-277
-278
-279
-280
-280
-280
-280
-280
-280
-279
-278
-278
-277
-276
-275
-274
-273
-272
-271
-271
-270
-269
-269
-268
-267
-266
-266
-265
-265
-264
-263
-263
-263
-263
-263
-264
-264
-264
-265
-265
-265
-266
-266
-267
-268
-268
-269
-270
-271
-272
-273
-273
-274
-275
-275
-276
-276
-277
-278
-279
-279
-280
-280
-281
-281
-281
-280
-280
-279
-278
-278
-277
-277
-276
-275
-275
-275
-274
-275
-275
-275
-276
-276
-276
-275
-275
-275
-276
-276
-276
-276
-276
-276
-276
-276
-275
-275
-274
-274
-273
-273
-272
-272
-271
-270
-270
-269
-269
-268
-268
-268
-268
-267
-267
-268
-268
-268
-269
-269
-270
-270
-271
-271
-272
-273
-273
-274
-275
-275
-275
-275
-276
-276
-276
-276
-276
-276
-275
-275
-275
-274
-273
-272
-271
-270
-268
-266
-264
-262
-260
-259
-258
-256
-255
-254
-254
-253
-253
-253
-254
-254
-254
-254
-254
-253
-253
-253
-253
-252
-252
-251
-251
-250
-249
-248
-247
-247
-246
-246
-246
-246
-246
-246
-247
-247
-248
-249
-250
-250
-251
-252
-252
-253
-253
-254
-255
-256
-257
-258
-259
-259
-259
-260
-260
-260
-260
-260
-260
-260
-260
-260
-261
-261
-261
-261
-261
-261
-262
-262
-263
-264
-264
-265
-266
-266
-266
-267
-267
-268
-268
-269
-270
-271
-271
-272
-273
-274
-276
-277
-279
-280
-281
-281
-282
-282
-282
-282
-283
-282
-282
-282
-281
-280
-280
-279
-279
-278
-278
-279
-279
-280
-280
-281
-282
-284
-285
-286
-287
-288
-289
-289
-290
-290
-290
-290
-290
-289
-287
-286
-285
-284
-283
-281
-279
-278
-276
-274
-272
-270
-268
-267
-267
-266
-266
-266
-266
-266
-266
-266
-266
-267
-267
-267
-267
-266
-265
-264
-262
-260
-257
-253
-248
-243
-236
-229
-221
-212
-202
-192
-182
-171
-160
-150
-140
-130
-121
-112
-105
-99
-94
-90
-88
-86
-86
-88
-90
-94
-99
-105
-112
-120
-128
-137
-147
-156
-165
-175
-184
-192
-200
-209
-217
-225
-232
-240
-248
-256
-263
-269
-276
-281
-286
-291
-294
-297
-300
-302
-304
-305
-306
-307
-308
-308
-307
-307
-306
-306
-305
-304
-303
-302
-301
-300
-299
-298
-297
-295
-294
-292
-291
-290
-289
-288
-287
-287
-287
-286
-286
-286
-286
-286
-286
-286
-286
-286
-287
-287
-288
-288
-288
-289
-289
-289
-289
-289
-290
-290
-290
-291
-291
-292
-292
-292
-292
-292
-292
-291
-290
-289
-287
-286
-285
-284
-283
-283
-282
-282
-281
-281
-280
-280
-279
-279
-279
-279
-279
-280
-280
-281
-281
-281
-282
-282
-282
-282
-283
-283
-283
-284
-284
-284
-283
-284
-284
-284
-284
-283
-283
-282
-282
-281
-280
-279
-279
-278
-277
-277
-276
-275
-275
-275
-275
-276
-277
-277
-278
-278
-279
-279
-280
-280
-281
-282
-282
-282
-283
-283
-283
-282
-282
-281
-280
-279
-278
-277
-275
-274
-272
-271
-270
-269
-268
-268
-268
-268
-268
-268
-268
-269
-269
-270
-271
-272
-272
-273
-273
-274
-274
-274
-274
-273
-273
-273
-273
-273
-272
-272
-271
-271
-270
-270
-269
-268
-268
-267
-266
-265
-264
-263
-262
-261
-260
-259
-258
-258
-257
-257
-256
-256
-256
-255
-255
-255
-255
-255
-255
-256
-256
-256
-256
-256
-255
-255
-255
-254
-254
-253
-253
-252
-252
-251
-250
-249
-248
-246
-245
-243
-242
-240
-239
-237
-237
-236
-235
-234
-234
-233
-233
-233
-233
-234
-234
-234
-235
-235
-235
-235
-235
-234
-234
-233
-233
-233
-232
-232
-231
-231
-230
-230
-229
-228
-227
-227
-226
-225
-223
-222
-221
-220
-218
-217
-217
-216
-216
-215
-215
-215
-215
-216
-216
-217
-218
-219
-219
-220
-221
-222
-223
-224
-224
-224
-225
-224
-224
-224
-224
-224
-224
-224
-223
-223
-223
-222
-222
-222
-221
-220
-220
-219
-219
-219
-219
-219
-219
-219
-220
-221
-222
-223
-225
-227
-228
-230
-232
-234
-236
-237
-239
-240
-242
-244
-245
-247
-249
-250
-251
-252
-252
-253
-253
-252
-252
-252
-252
-252
-252
-251
-251
-250
-250
-249
-249
-248
-248
-247
-247
-247
-248
-248
-249
-250
-251
-252
-252
-253
-253
-254
-254
-255
-255
-256
-257
-257
-258
-259
-260
-260
-261
-261
-261
-261
-261
-261
-261
-261
-262
-262
-262
-262
-262
-262
-262
-262
-262
-262
-262
-262
-263
-263
-264
-264
-265
-265
-266
-266
-266
-267
-267
-267
-267
-267
-267
-267
-267
-267
-267
-266
-266
-265
-265
-264
-262
-261
-260
-259
-258
-257
-257
-256
-256
-255
-256
-256
-256
-257
-257
-258
-259
-260
-262
-263
-265
-266
-267
-268
-268
-268
-268
-267
-266
-266
-264
-263
-262
-260
-259
-258
-257
-257
-256
-255
-254
-253
-252
-252
-252
-252
-252
-252
-252
-252
-252
-251
-251
-251
-252
-252
-252
-252
-252
-252
-251
-251
-251
-250
-249
-248
-248
-247
-246
-246
-245
-244
-244
-244
-244
-244
-244
-245
-246
-247
-248
-249
-250
-251
-252
-253
-253
-254
-255
-256
-257
-257
-258
-258
-258
-258
-258
-257
-257
-257
-256
-255
-254
-253
-252
-251
-250
-249
-247
-246
-245
-244
-243
-241
-240
-239
-238
-238
-238
-238
-237
-237
-236
-236
-235
-234
-234
-234
-233
-234
-234
-234
-235
-235
-236
-236
-237
-238
-239
-239
-240
-241
-242
-244
-244
-245
-246
-246
-247
-247
-247
-248
-247
-247
-247
-247
-246
-245
-245
-244
-243
-243
-242
-241
-240
-239
-238
-237
-236
-235
-235
-234
-234
-234
-234
-234
-234
-235
-235
-236
-237
-237
-238
-238
-239
-239
-239
-239
-239
-240
-240
-240
-240
-240
-240
-240
-240
-240
-240
-241
-241
-241
-241
-241
-240
-240
-239
-239
-238
-237
-236
-236
-235
-235
-234
-234
-234
-233
-233
-232
-231
-231
-231
-230
-230
-230
-230
-229
-229
-230
-230
-230
-231
-231
-232
-233
-233
-234
-235
-236
-236
-237
-238
-238
-239
-239
-239
-238
-238
-237
-236
-235
-235
-234
-234
-233
-233
-233
-233
-233
-233
-233
-234
-234
-234
-235
-235
-235
-235
-236
-237
-237
-238
-239
-239
-239
-239
-239
-239
-238
-238
-237
-237
-236
-235
-234
-233
-231
-230
-229
-227
-226
-224
-223
-222
-220
-219
-219
-218
-218
-217
-217
-217
-216
-215
-215
-214
-213
-212
-212
-212
-212
-213
-213
-212
-212
-211
-211
-211
-211
-210
-210
-210
-210
-210
-210
-209
-209
-208
-208
-208
-208
-208
-208
-209
-210
-211
-213
-214
-216
-217
-219
-221
-223
-224
-226
-227
-228
-229
-230
-231
-231
-232
-232
-232
-232
-232
-232
-233
-232
-232
-231
-231
-230
-229
-229
-229
-229
-229
-229
-229
-230
-230
-231
-232
-233
-235
-236
-237
-238
-239
-241
-242
-243
-244
-246
-247
-248
-248
-249
-250
-250
-251
-251
-251
-252
-252
-253
-253
-253
-253
-253
-253
-253
-252
-252
-251
-251
-250
-249
-248
-247
-246
-246
-245
-245
-244
-244
-244
-243
-243
-243
-243
-243
-243
-243
-243
-243
-243
-243
-244
-244
-244
-244
-244
-244
-244
-244
-244
-243
-243
-242
-242
-241
-241
-240
-239
-237
-236
-235
-234
-233
-232
-230
-228
-225
-222
-219
-215
-209
-203
-197
-189
-181
-173
-164
-155
-145
-134
-124
-114
-104
-95
-87
-80
-73
-68
-64
-62
-60
-60
-62
-65
-69
-75
-82
-89
-97
-106
-115
-125
-135
-145
-155
-166
-176
-186
-196
-206
-215
-223
-231
-239
-246
-252
-257
-263
-267
-271
-275
-277
-280
-281
-282
-283
-283
-283
-282
-281
-279
-277
-276
-274
-271
-269
-267
-266
-264
-262
-261
-260
-259
-258
-258
-258
-258
-259
-260
-261
-262
-263
-264
-265
-266
-267
-267
-268
-269
-269
-269
-270
-270
-270
-270
-271
-272
-273
-273
-274
-274
-274
-275
-275
-275
-274
-274
-274
-273
-273
-273
-273
-272
-272
-272
-273
-273
-273
-274
-275
-276
-277
-278
-279
-280
-280
-281
-282
-282
-282
-282
-282
-281
-280
-279
-278
-276
-274
-273
-271
-269
-267
-265
-263
-261
-259
-257
-255
-253
-252
-251
-250
-250
-249
-249
-249
-250
-250
-251
-252
-253
-254
-255
-257
-258
-259
-260
-261
-262
-262
-263
-263
-263
-264
-264
-264
-263
-263
-262
-262
-261
-260
-259
-258
-257
-255
-254
-253
-253
-253
-253
-253
-254
-254
-255
-256
-257
-258
-259
-261
-262
-264
-265
-267
-269
-270
-271
-272
-273
-273
-273
-273
-273
-273
-272
-272
-271
-271
-270
-270
-269
-268
-267
-266
-264
-263
-262
-261
-260
-259
-258
-257
-257
-256
-255
-255
-254
-254
-254
-254
-254
-254
-254
-253
-253
-252
-252
-252
-251
-251
-251
-251
-250
-250
-250
-249
-249
-249
-249
-249
-249
-250
-250
-250
-250
-249
-248
-247
-246
-244
-243
-241
-240
-238
-236
-234
-232
-230
-229
-227
-225
-223
-222
-221
-219
-218
-217
-216
-214
-213
-212
-212
-211
-211
-211
-211
-212
-212
-213
-214
-214
-214
-215
-215
-216
-216
-217
-217
-218
-217
-217
-217
-217
-217
-216
-216
-215
-215
-214
-214
-214
-213
-212
-212
-211
-211
-210
-210
-210
-210
-210
-210
-210
-210
-210
-210
-211
-211
-212
-213
-214
-214
-215
-215
-216
-216
-216
-217
-217
-217
-218
-218
-218
-219
-220
-221
-221
-222
-223
-224
-225
-225
-225
-226
-227
-227
-228
-229
-229
-229
-230
-230
-230
-230
-231
-231
-232
-233
-234
-235
-236
-238
-239
-240
-242
-243
-244
-245
-246
-247
-249
-250
-251
-253
-254
-255
-256
-257
-258
-259
-259
-259
-260
-260
-260
-260
-260
-260
-260
-259
-259
-258
-258
-258
-258
-258
-258
-258
-258
-259
-259
-259
-259
-260
-260
-261
-261
-261
-262
-262
-262
-262
-263
-263
-264
-265
-266
-267
-269
-270
-271
-272
-273
-273
-274
-275
-275
-276
-277
-278
-278
-278
-278
-278
-277
-277
-276
-276
-275
-275
-274
-273
-273
-272
-272
-271
-271
-270
-270
-270
-270
-270
-270
-270
-270
-270
-271
-272
-273
-274
-274
-275
-276
-276
-277
-277
-277
-277
-277
-277
-276
-276
-276
-275
-275
