# Simple Text Format
# Sampling Rate (Hz):= 1200.00
# Resolution:= 12
# Labels:= ECG	 V4
# Age:=	33
# Gender:=	Masculino
186
188
188
189
189
191
192
193
193
193
194
194
195
196
198
198
198
198
198
199
199
200
200
200
201
201
202
203
204
204
205
205
206
207
207
208
209
209
209
210
211
212
212
211
211
212
212
212
213
213
212
212
212
213
213
213
212
211
212
212
213
213
213
212
211
212
212
213
213
211
211
211
210
211
211
211
209
209
208
209
209
208
207
206
205
205
205
206
205
204
204
202
203
203
203
201
200
199
200
199
200
198
197
196
195
195
196
195
194
193
192
191
191
191
190
189
188
186
187
186
187
185
185
183
182
183
183
183
183
182
181
180
180
181
181
180
179
179
178
178
179
178
178
178
177
177
177
177
177
176
175
176
176
176
175
175
175
173
174
174
173
173
173
172
171
171
171
171
171
171
168
169
169
169
168
167
167
166
165
165
165
165
165
164
163
163
163
163
163
162
161
160
160
161
161
161
160
159
159
160
160
159
159
159
158
159
160
160
160
159
158
159
159
161
160
160
159
159
159
159
160
159
159
158
158
158
159
159
159
159
158
157
158
159
158
158
158
157
157
158
158
158
158
157
157
158
159
159
159
158
157
157
157
157
157
157
156
155
155
155
156
156
156
154
154
155
154
156
156
155
155
154
155
155
155
155
155
155
155
156
156
157
157
156
156
156
157
158
158
157
157
156
157
157
157
156
156
155
155
156
156
156
156
155
155
156
156
157
157
157
156
156
156
157
157
157
155
155
155
156
156
155
155
154
153
154
155
155
154
153
153
152
152
152
153
152
151
150
150
150
151
151
151
150
150
150
151
151
151
151
150
150
150
151
152
151
150
150
149
150
151
150
151
150
149
149
150
150
150
149
149
148
148
149
148
148
148
146
146
147
147
147
147
146
146
146
147
147
147
146
146
146
146
148
147
147
146
146
146
146
147
147
147
146
145
146
146
147
147
146
145
145
145
146
146
146
145
145
145
146
146
146
145
145
144
144
145
145
145
145
144
144
144
145
144
144
144
144
144
143
144
144
143
143
143
143
144
144
144
143
143
143
144
144
145
144
143
143
143
143
144
144
143
142
142
143
143
144
143
143
142
142
142
143
144
143
142
142
142
143
144
144
143
143
142
143
143
144
143
142
141
141
142
142
142
141
141
141
141
141
141
140
140
140
140
141
141
143
142
142
142
142
142
143
143
143
142
142
142
143
143
143
143
142
142
142
143
143
143
142
141
141
141
141
142
141
140
140
140
141
141
141
141
140
140
141
142
142
142
141
140
141
141
142
142
142
141
141
140
140
141
140
140
139
139
139
140
140
140
138
138
137
139
140
139
139
138
138
138
138
139
139
138
138
138
138
139
140
140
140
139
139
140
141
141
141
140
140
140
140
141
141
140
141
140
140
141
141
141
140
140
139
140
139
140
139
138
138
138
138
139
139
138
137
137
137
138
138
138
137
137
137
138
138
139
138
137
137
137
138
138
138
138
137
137
137
138
139
139
138
137
137
138
139
138
137
137
137
137
138
138
138
138
137
137
137
138
138
138
137
137
136
137
137
138
137
137
136
136
136
136
136
136
135
135
135
136
136
136
135
135
135
134
135
135
135
135
135
135
135
136
136
135
135
135
136
137
137
137
136
136
136
137
138
138
138
137
137
138
138
139
139
138
137
137
137
137
137
137
136
135
135
135
135
135
134
134
134
134
134
135
134
134
133
134
134
135
135
136
136
136
136
136
138
138
137
137
137
137
138
138
138
138
138
137
137
139
139
138
138
137
137
137
137
136
135
135
135
134
134
134
134
134
134
133
134
134
134
134
134
133
135
135
136
137
136
136
137
137
138
139
140
140
139
140
141
142
143
143
143
142
143
144
144
145
145
144
144
144
146
146
146
146
146
145
147
148
149
149
149
149
149
151
152
152
153
153
153
154
155
155
155
155
154
154
154
155
155
154
153
152
151
151
151
150
149
148
147
146
145
145
144
143
140
140
139
139
138
137
136
134
134
133
133
133
132
131
130
129
130
130
130
130
129
128
128
129
129
129
128
127
127
127
128
128
128
126
126
127
127
128
128
127
126
126
127
128
128
127
127
126
126
127
127
127
126
126
126
125
127
126
127
125
126
126
126
126
127
126
125
126
126
126
126
127
126
127
125
125
127
127
127
127
126
126
127
128
128
129
128
128
128
128
129
130
129
129
129
130
129
130
130
130
129
129
130
130
131
131
130
130
131
132
134
136
136
138
139
142
146
150
154
157
161
167
175
182
191
200
211
222
234
247
263
278
293
310
326
343
362
379
395
411
424
436
447
456
462
466
466
463
457
448
437
420
401
379
355
328
302
273
244
214
182
152
124
95
68
44
18
-4
-24
-41
-57
-69
-80
-89
-95
-99
-101
-100
-100
-98
-96
-91
-86
-78
-70
-62
-54
-46
-37
-27
-18
-9
0
9
18
26
36
44
51
58
64
71
77
84
89
94
98
102
105
109
112
114
115
117
118
120
121
123
123
124
124
125
126
127
127
127
127
127
127
128
129
129
130
129
129
129
130
131
131
132
131
132
133
134
134
134
134
135
134
135
136
136
136
136
135
136
136
137
137
137
136
136
137
137
138
138
137
137
137
137
137
137
137
137
136
136
137
138
137
137
136
137
138
139
139
140
140
139
139
140
141
142
142
141
142
141
142
143
143
144
142
143
144
144
145
145
145
144
145
145
146
147
147
146
147
146
147
148
148
147
147
147
148
149
149
149
148
148
148
148
149
149
149
149
149
149
150
151
150
151
150
150
152
152
153
153
152
152
152
153
154
154
154
154
154
155
155
156
156
156
156
156
156
157
158
159
158
158
159
159
160
161
160
160
160
161
161
162
163
162
162
162
164
164
165
165
163
163
164
165
165
165
165
164
165
165
166
167
167
167
167
168
170
171
171
173
172
172
173
174
176
176
177
177
177
177
178
180
181
181
181
181
182
184
184
184
184
183
185
186
187
187
188
187
188
189
190
192
192
192
192
193
194
196
196
197
198
197
198
200
200
201
200
201
200
201
201
202
202
201
201
201
202
203
203
203
203
202
202
203
204
203
203
203
202
202
203
204
203
203
202
201
201
202
202
201
200
198
198
198
198
198
197
195
195
194
194
194
192
192
191
190
190
190
189
189
187
186
185
185
185
184
183
182
180
180
180
180
179
177
176
176
175
175
176
174
174
173
172
172
172
171
170
169
168
168
168
168
168
166
165
165
165
165
164
164
163
162
162
161
161
161
160
159
158
157
158
158
157
156
156
154
155
155
155
154
153
152
152
152
152
152
152
151
151
150
150
151
149
148
148
147
148
147
147
147
145
144
144
144
144
143
142
141
140
141
140
141
140
139
139
139
139
139
139
139
139
138
138
139
139
139
139
138
138
139
139
139
139
139
138
139
139
140
140
140
139
139
139
140
140
140
139
139
139
138
139
139
139
139
139
138
138
139
139
139
138
138
137
138
138
138
137
137
137
138
137
138
138
138
137
137
138
138
138
139
138
138
138
139
139
139
138
138
138
139
138
139
138
138
137
137
138
138
139
138
136
136
136
137
138
138
137
137
136
137
137
137
138
136
137
137
138
138
138
138
137
137
137
138
139
138
137
137
137
137
138
138
138
137
137
137
137
138
138
138
137
137
137
137
138
138
138
137
137
138
138
139
139
138
137
138
139
140
139
139
139
139
138
138
139
138
137
136
136
136
135
135
134
134
133
132
133
133
133
133
132
132
132
133
133
133
133
132
133
133
134
134
134
135
134
134
134
135
135
136
135
134
134
135
135
136
134
134
134
134
134
135
134
133
133
132
132
133
133
132
132
131
130
131
131
131
131
130
129
130
131
131
130
130
130
130
131
131
131
131
130
130
130
131
132
132
131
130
131
131
131
132
130
130
130
130
129
130
130
129
129
128
128
128
129
128
128
127
127
127
127
128
128
127
126
126
127
127
128
128
127
128
128
129
129
129
128
128
127
128
128
128
128
127
127
127
127
127
127
127
126
125
125
125
126
127
125
126
126
125
126
127
128
127
127
127
127
128
129
128
129
127
128
128
129
129
127
127
127
127
127
127
127
126
126
126
127
128
128
127
128
127
128
128
129
129
128
128
128
129
128
129
128
127
127
127
128
128
129
129
128
128
127
128
128
128
128
127
128
128
128
129
128
129
128
128
129
129
129
129
128
128
128
128
129
128
127
127
127
127
127
127
127
126
127
127
127
127
129
129
129
128
129
130
131
132
132
132
132
133
133
133
134
133
132
132
132
133
132
131
131
130
129
129
129
128
128
127
126
126
126
126
126
125
124
124
124
126
126
126
125
124
125
126
126
126
125
124
125
125
125
125
124
125
124
125
125
126
126
126
125
125
125
125
126
126
126
125
125
126
126
127
126
126
125
126
126
127
128
127
126
126
126
126
127
127
126
125
125
125
125
125
126
125
125
125
125
126
126
126
125
124
125
125
125
126
126
125
125
126
126
126
127
126
126
126
126
127
127
127
126
126
126
127
127
127
127
126
127
126
127
128
127
127
127
127
128
129
130
129
129
129
130
132
132
133
133
133
134
134
136
136
136
136
136
137
138
138
138
137
137
136
136
136
136
136
136
135
135
135
136
136
136
137
136
137
138
139
140
141
141
141
142
144
144
145
145
145
145
145
146
146
145
144
143
143
142
142
142
141
140
138
138
138
138
136
135
134
133
133
133
132
131
130
130
129
129
129
128
128
126
126
125
124
124
125
123
122
122
121
122
121
120
120
119
119
119
120
120
119
118
118
118
119
119
120
119
119
119
119
119
120
120
120
120
120
121
121
122
122
121
121
121
121
122
121
121
121
120
121
122
122
121
120
120
120
120
121
122
121
120
120
121
122
122
121
121
121
121
122
122
123
123
122
122
122
124
124
125
124
124
124
124
125
126
125
125
125
124
124
125
125
125
124
126
126
128
129
131
133
136
138
142
146
151
157
163
170
178
188
199
211
224
237
252
268
285
303
322
340
358
376
395
413
428
444
456
466
475
480
483
484
479
471
460
445
428
407
382
355
326
295
263
232
199
167
133
101
70
41
14
-12
-34
-56
-74
-89
-101
-111
-118
-124
-126
-127
-127
-125
-120
-115
-110
-104
-97
-88
-77
-67
-58
-49
-38
-28
-18
-8
2
11
20
29
38
46
55
61
68
73
79
84
89
95
98
100
103
105
109
111
112
113
114
115
116
117
117
118
118
119
119
119
120
121
121
122
121
122
123
125
126
125
126
126
127
129
129
129
129
129
129
129
130
131
130
129
129
130
129
130
131
130
129
128
129
130
130
130
130
130
131
131
132
133
133
132
133
134
134
136
135
136
135
135
135
136
135
135
135
134
134
135
135
136
135
135
134
135
135
136
136
136
135
135
136
137
137
137
136
137
136
137
139
140
139
139
139
139
140
142
142
141
142
141
142
143
144
144
143
143
143
144
144
144
144
142
142
143
143
144
143
144
142
143
143
143
145
144
144
143
144
146
147
148
148
147
148
149
149
151
152
152
151
152
153
154
154
155
155
155
155
156
157
157
157
157
156
157
157
158
159
158
158
157
157
158
159
159
158
158
158
158
159
159
160
160
159
160
161
162
162
162
161
162
162
163
165
165
165
165
166
167
168
169
170
169
170
171
172
174
175
176
176
177
177
179
179
179
179
180
180
182
183
183
183
182
183
183
184
185
185
186
185
185
186
187
188
188
188
189
189
190
191
192
192
192
192
193
194
196
196
196
195
196
197
197
197
197
197
196
197
197
197
198
196
196
195
196
196
197
197
196
195
195
195
196
195
195
195
194
193
194
194
194
194
193
192
192
192
192
192
191
191
189
190
191
190
189
188
187
187
187
187
186
185
184
183
183
183
183
182
181
179
179
178
178
177
176
174
173
172
170
170
169
168
166
165
164
165
164
163
162
161
160
160
160
161
160
159
158
158
158
158
158
158
157
157
157
157
157
157
157
156
155
155
155
155
154
154
153
152
152
152
151
151
149
148
148
148
148
147
146
144
143
144
144
144
143
143
141
142
142
142
141
141
140
140
139
140
140
140
139
138
138
138
139
138
137
137
137
136
136
137
136
136
135
134
135
134
135
135
134
135
134
135
135
135
134
135
135
134
134
135
135
134
133
133
134
134
134
134
133
132
131
132
132
133
132
132
131
131
132
133
133
132
132
133
132
133
134
135
134
133
133
134
135
134
134
134
132
132
132
132
133
131
130
131
130
130
131
130
130
130
129
130
130
131
131
130
130
130
131
132
132
132
132
131
132
133
133
133
133
132
133
133
133
133
133
133
132
132
132
133
133
133
131
131
132
132
133
133
131
132
131
131
132
132
132
131
131
131
132
132
132
132
131
130
131
132
133
132
132
131
131
131
132
132
131
131
130
130
131
132
131
132
131
131
131
132
133
133
132
131
131
131
132
132
131
130
129
129
129
129
129
128
128
127
127
128
128
128
128
127
126
128
128
129
129
129
128
129
129
129
130
129
128
128
127
128
128
128
128
127
126
126
126
126
125
124
124
123
123
124
124
124
124
123
124
125
125
125
125
124
124
124
125
124
125
124
124
124
124
125
125
124
123
122
123
124
124
124
124
123
123
123
123
124
123
123
122
122
122
122
123
121
121
121
120
121
121
121
121
119
119
120
120
120
120
119
119
119
119
121
121
121
120
121
121
121
122
122
121
121
120
120
121
121
121
120
120
120
120
121
120
121
120
120
121
121
122
122
121
121
122
122
123
123
122
122
121
121
122
123
122
121
121
120
121
122
122
122
120
121
120
120
121
121
121
120
119
119
119
120
120
120
119
118
119
120
120
120
120
119
120
120
121
121
121
121
121
121
121
122
122
122
121
121
121
122
121
121
120
119
118
119
119
119
118
117
116
116
116
117
117
115
115
115
115
116
116
116
116
117
116
118
118
119
119
119
119
119
120
121
121
120
120
120
120
121
122
122
121
120
119
120
121
120
120
119
119
119
119
119
119
119
118
119
118
119
119
120
119
119
119
120
121
121
120
120
120
120
120
121
121
120
120
119
121
120
121
121
121
120
120
120
120
121
120
119
119
119
119
121
120
121
120
120
120
121
121
121
121
120
120
121
121
121
121
121
119
119
120
121
121
119
120
119
119
120
121
121
120
121
120
120
122
122
122
121
121
121
121
122
122
121
121
120
120
121
121
120
120
119
119
120
120
120
120
121
120
120
122
122
123
122
122
122
122
123
124
124
124
124
123
124
124
125
125
124
124
124
124
126
126
126
125
125
126
127
129
129
129
128
129
130
130
131
131
131
131
132
133
133
135
134
134
135
136
136
138
138
138
138
139
140
141
141
141
141
140
140
140
140
141
140
138
138
138
137
137
137
135
134
134
134
132
132
131
130
129
128
128
128
127
126
125
124
123
124
124
122
122
120
120
120
120
119
118
118
116
116
117
116
116
115
114
114
114
114
115
114
113
112
113
113
113
113
113
112
112
112
112
113
113
112
113
112
113
113
114
114
113
114
113
114
114
114
114
113
113
113
113
114
114
113
113
112
113
114
114
114
112
111
111
112
112
112
111
110
110
111
111
112
112
112
111
111
111
112
112
112
113
112
112
112
114
114
114
113
112
112
113
114
114
114
114
114
114
115
117
117
118
120
122
125
128
132
135
139
144
151
159
167
177
186
198
211
225
240
256
273
289
307
324
344
362
380
395
410
423
435
445
452
457
458
454
448
440
428
412
394
372
347
320
292
263
232
200
169
137
105
76
49
21
-6
-30
-52
-70
-87
-100
-111
-122
-128
-132
-134
-136
-134
-132
-128
-124
-117
-110
-100
-91
-82
-72
-62
-51
-41
-31
-22
-12
-3
6
15
24
33
40
47
52
58
64
70
74
78
81
84
87
90
92
94
96
96
97
99
101
102
102
101
102
102
104
104
105
104
104
104
104
105
106
106
106
105
106
106
107
107
108
107
108
108
109
110
110
110
110
110
110
111
112
112
113
112
113
114
115
114
115
115
114
114
115
115
116
115
116
115
116
116
117
117
116
116
116
116
117
117
117
117
117
117
118
117
119
117
117
117
118
119
119
119
118
118
117
119
120
119
120
120
119
119
121
122
122
122
122
123
123
124
126
126
126
127
127
128
129
128
129
128
127
128
128
128
129
127
127
127
127
127
127
127
126
125
126
126
126
126
126
125
125
125
126
127
127
127
127
127
128
129
129
130
130
130
130
132
132
132
133
133
133
133
134
135
136
136
135
136
137
137
139
139
139
139
139
140
142
142
142
141
142
142
143
144
144
144
145
145
145
146
147
147
147
147
148
149
150
150
150
150
151
152
153
154
155
155
156
156
157
158
159
160
160
160
161
161
162
163
164
163
164
164
165
166
167
166
166
166
168
169
170
170
171
171
171
172
173
174
173
173
173
173
174
175
175
175
175
175
175
175
176
175
175
175
175
176
176
177
176
177
176
176
178
178
179
178
178
178
179
180
180
180
180
179
180
180
180
180
180
179
178
178
178
178
178
177
176
176
176
175
176
175
174
173
173
173
172
172
171
170
170
169
169
169
169
167
166
166
166
166
166
166
165
164
163
163
163
162
162
161
160
160
159
159
158
157
157
156
156
155
154
154
152
151
151
151
151
151
150
150
148
148
148
148
148
147
146
145
145
146
145
145
143
141
141
141
140
140
139
137
137
135
136
136
134
134
133
133
133
133
133
133
133
132
133
132
133
133
133
132
133
133
134
134
134
134
133
133
133
133
133
132
132
131
130
130
130
130
129
128
126
127
127
127
126
125
125
124
126
126
126
127
127
127
127
128
128
128
128
128
128
128
129
130
130
129
129
128
128
129
129
128
128
127
127
127
127
127
127
125
125
125
125
125
125
125
124
124
124
125
125
126
124
124
124
124
125
125
125
123
123
124
125
126
125
126
125
126
126
127
127
127
127
126
126
126
127
127
126
126
124
125
124
125
124
124
123
123
123
123
123
124
123
122
122
123
124
123
123
123
122
123
123
123
123
124
123
123
123
124
124
124
123
122
123
123
124
124
124
123
123
123
124
125
125
124
123
123
123
124
124
124
123
123
123
124
125
124
124
123
123
123
124
123
123
123
122
122
122
122
122
121
121
121
120
120
121
121
120
119
119
119
119
120
120
119
119
119
119
120
120
120
120
119
119
120
120
120
120
119
119
120
119
121
120
120
118
119
118
119
119
119
118
118
118
118
119
119
118
118
117
117
118
118
118
117
117
117
117
119
118
119
118
118
118
119
119
120
120
119
119
119
120
120
120
119
118
118
118
119
118
117
117
115
115
115
115
115
114
112
112
112
112
112
112
111
110
110
111
112
113
112
112
111
111
112
112
114
114
113
113
114
114
115
115
115
114
114
115
115
116
116
114
114
113
114
114
115
114
114
113
113
114
114
114
113
113
113
114
114
115
114
114
113
113
114
114
114
114
113
113
113
114
115
114
114
113
114
114
114
115
115
114
115
115
116
116
116
115
115
115
115
116
116
116
116
116
116
116
117
118
118
117
116
116
116
116
117
117
116
115
115
115
115
115
114
113
113
113
113
114
114
113
112
112
112
113
112
112
111
112
112
113
113
113
112
112
113
113
114
114
115
113
113
113
114
114
115
113
113
113
112
113
113
113
112
112
112
112
112
112
112
111
111
111
111
112
112
111
110
110
111
111
112
111
112
111
111
112
112
113
114
113
113
113
113
114
114
114
113
113
114
115
115
115
114
114
114
114
115
115
114
114
113
113
114
115
115
114
114
113
113
114
114
114
114
113
113
113
114
114
114
113
112
112
113
113
114
113
112
112
112
113
113
113
113
112
112
113
113
113
114
113
113
113
113
114
114
113
113
112
113
113
114
114
113
113
113
113
114
114
114
113
113
113
114
115
114
114
113
113
113
114
114
114
113
113
113
113
114
113
113
112
113
113
113
113
113
113
111
111
111
111
112
111
109
108
107
107
106
105
104
102
100
98
98
97
95
93
91
90
88
87
87
86
84
83
83
83
83
83
82
81
81
80
80
81
81
80
79
80
80
80
81
81
81
81
81
83
84
85
86
85
85
86
87
87
87
87
87
87
87
87
87
86
85
84
83
83
82
81
80
78
76
75
75
74
72
71
69
68
67
66
66
66
64
63
63
62
63
62
61
60
59
58
58
58
57
57
55
55
54
54
54
55
53
52
52
53
54
53
54
53
52
53
53
54
55
55
55
54
55
55
56
55
55
54
54
55
56
55
55
54
53
53
54
54
53
52
52
52
52
52
53
53
52
52
53
53
54
55
54
53
53
53
54
56
56
55
55
55
54
55
57
57
55
55
55
56
57
57
57
57
56
57
57
58
58
58
58
57
57
58
59
59
59
60
61
63
65
67
68
69
72
76
80
85
90
96
102
111
120
131
143
155
168
181
197
214
232
249
266
284
300
318
334
348
361
372
380
386
389
390
388
382
372
358
342
324
303
279
252
223
194
164
135
104
74
44
15
-13
-39
-63
-85
-105
-123
-139
-152
-161
-169
-174
-178
-181
-181
-180
-177
-172
-167
-161
-154
-146
-137
-127
-117
-107
-97
-88
-78
-68
-57
-48
-39
-32
-24
-17
-9
-2
5
10
15
20
25
29
33
36
39
40
42
45
48
48
49
51
51
52
53
55
55
56
57
56
57
57
59
59
58
58
59
60
60
61
60
60
59
59
60
60
60
59
58
58
58
59
59
58
58
58
58
58
59
60
60
60
60
60
61
62
62
62
62
62
63
64
64
64
65
64
64
65
66
67
67
66
66
66
67
68
67
66
66
66
66
67
68
68
67
67
68
67
68
69
70
69
69
70
71
71
72
72
71
72
73
73
74
74
74
74
74
74
75
76
76
75
74
75
76
75
75
75
75
74
75
75
76
75
75
75
75
76
76
77
77
77
77
78
79
79
79
80
80
79
80
81
82
82
82
81
81
82
83
83
82
82
82
82
82
83
83
83
83
82
83
84
84
85
85
85
86
87
88
89
89
89
89
89
90
92
92
92
92
92
93
94
94
94
93
93
94
95
96
96
96
95
95
96
97
98
98
98
98
98
99
101
101
101
101
101
101
102
103
104
104
104
104
104
105
107
107
108
108
107
109
110
111
112
112
112
113
115
116
117
118
118
118
118
120
120
121
121
121
121
121
122
124
124
123
123
124
125
125
126
127
126
126
126
127
127
128
127
127
127
128
128
127
127
126
125
125
125
125
125
124
123
122
122
123
122
122
120
119
119
119
119
119
119
118
118
118
118
118
118
117
117
116
116
116
117
116
115
114
113
113
114
113
112
111
110
109
109
109
109
107
105
104
104
104
104
103
102
100
100
99
99
99
98
97
96
96
95
96
96
95
94
94
93
93
93
93
92
92
91
91
92
91
91
90
89
89
89
90
89
89
88
87
87
87
87
87
85
84
84
83
84
83
82
82
81
81
81
81
80
79
78
78
78
77
77
77
77
76
76
76
77
77
77
76
75
76
77
77
78
78
78
77
77
78
79
79
78
78
77
78
78
78
77
77
76
76
76
76
76
76
74
74
74
74
74
74
73
73
72
73
74
74
74
73
73
73
75
75
76
75
75
75
76
76
77
76
76
76
75
76
76
76
75
74
74
74
75
75
74
73
73
71
72
72
72
72
71
70
70
70
71
71
71
70
70
70
71
72
72
72
71
71
71
73
73
74
74
73
73
74
74
75
74
73
73
74
74
75
76
75
74
74
74
73
73
73
71
71
71
70
71
71
71
69
69
69
70
70
71
71
70
70
71
72
73
74
73
74
73
74
75
75
74
74
73
73
74
73
73
73
71
70
69
70
69
69
67
67
67
67
67
67
67
66
66
66
68
68
69
68
68
67
68
69
70
69
68
68
67
68
68
69
68
68
67
68
68
68
68
67
66
66
66
67
67
67
66
66
66
66
66
66
66
64
64
64
65
65
65
64
63
63
63
63
64
64
63
63
63
63
63
64
64
63
62
63
64
64
64
64
63
63
64
64
64
63
63
62
62
63
63
63
62
61
61
61
62
62
63
62
61
60
61
62
62
62
61
61
61
61
62
62
61
60
60
61
62
62
62
62
61
61
62
62
63
63
63
61
61
62
62
62
62
60
60
60
61
61
61
60
59
58
58
59
59
57
57
57
56
57
57
58
58
57
57
58
58
59
59
59
58
58
58
60
60
59
59
58
58
59
59
60
60
58
58
58
59
60
60
60
59
58
59
60
60
60
59
58
58
59
59
59
59
57
57
57
57
58
58
57
56
56
56
57
56
56
55
55
55
56
57
57
57
56
56
56
57
57
58
58
58
58
58
60
60
59
59
59
59
60
60
60
60
60
59
60
60
60
61
60
60
59
59
60
61
61
60
59
59
60
61
61
61
60
60
60
61
61
61
61
60
60
59
60
59
58
58
57
57
57
57
57
57
56
55
55
56
57
57
57
56
56
57
58
58
57
57
57
57
58
59
58
58
57
58
57
58
59
59
59
57
57
57
58
58
57
58
56
56
57
58
58
58
57
57
57
58
58
59
58
59
58
59
60
60
60
60
60
59
61
61
61
61
60
59
60
61
61
61
60
60
60
60
60
60
59
59
58
58
58
59
59
59
58
59
58
59
59
59
59
58
59
60
60
60
60
60
60
60
60
61
61
60
61
60
60
62
63
63
64
64
64
65
65
66
67
66
67
67
68
69
69
70
70
70
70
72
73
73
73
74
74
74
75
77
77
77
78
78
79
79
81
80
80
79
80
81
80
81
80
79
78
77
78
77
75
74
73
72
72
72
70
69
67
66
65
65
65
64
62
61
60
60
60
60
59
58
56
56
56
56
56
55
54
54
54
54
54
55
53
52
52
52
52
53
52
51
51
50
50
51
51
50
49
48
49
50
50
50
50
48
49
49
49
50
49
50
49
49
49
50
50
50
50
50
50
51
52
53
52
52
52
52
53
54
55
54
54
55
55
56
56
56
55
56
55
56
57
57
56
56
55
56
56
56
55
55
53
53
53
54
55
53
53
52
53
54
54
54
53
53
54
55
56
57
59
60
62
65
68
72
77
80
84
91
97
105
115
125
135
145
158
172
186
202
217
233
250
267
284
301
317
331
345
356
366
375
381
383
382
379
371
362
350
334
315
291
267
241
213
185
155
125
94
65
37
9
-18
-43
-68
-90
-109
-126
-139
-152
-161
-169
-174
-177
-178
-178
-176
-173
-170
-165
-159
-151
-143
-135
-126
-117
-108
-98
-89
-79
-70
-62
-53
-45
-36
-28
-21
-14
-8
-2
4
10
16
21
24
28
31
34
38
40
43
43
44
46
48
49
51
51
50
51
52
53
54
54
54
54
55
55
56
56
57
57
57
57
57
58
59
58
58
57
58
59
60
60
60
59
59
60
60
60
60
60
59
59
60
61
60
59
59
58
59
60
60
60
59
58
58
58
59
59
58
58
58
58
58
59
59
59
58
59
59
60
61
60
61
60
60
61
62
62
62
61
61
61
62
63
63
63
62
62
63
64
65
65
65
65
65
66
67
68
67
67
67
67
67
68
69
67
67
67
67
67
68
68
68
67
67
67
68
68
68
68
67
67
69
69
69
69
69
68
69
70
70
70
70
70
69
70
71
71
71
71
70
71
72
73
73
73
73
72
74
74
75
76
76
76
77
77
78
79
79
79
79
79
80
81
81
81
80
81
81
82
83
83
83
82
83
83
84
85
85
85
86
86
87
88
89
89
89
90
90
91
93
94
93
93
94
94
96
97
97
97
97
97
99
99
100
100
100
101
102
104
104
105
105
105
105
106
107
108
108
108
108
109
109
110
111
111
111
111
112
113
114
115
115
114
115
116
117
118
118
118
119
119
120
120
121
120
121
120
120
121
121
121
120
119
118
119
119
119
119
118
117
116
116
117
117
116
115
114
114
114
114
115
114
113
112
113
112
112
111
110
109
108
109
108
107
107
105
105
105
106
105
105
104
104
102
103
103
103
102
102
101
100
100
100
99
98
97
96
95
94
94
93
91
89
88
87
86
85
84
82
81
80
80
80
79
78
76
76
77
77
77
76
76
75
74
75
75
75
75
74
73
73
73
73
73
72
71
71
71
72
72
72
70
70
69
70
70
69
69
67
67
66
66
66
66
65
64
64
63
63
63
62
62
61
60
60
61
61
60
59
58
58
58
59
59
58
58
57
58
59
59
59
58
57
57
58
57
58
58
57
56
56
56
57
57
56
56
55
56
57
58
58
57
56
56
57
58
58
57
57
57
56
57
56
56
56
55
54
54
54
54
54
53
53
52
52
53
52
52
51
51
51
52
52
52
52
52
52
53
53
54
54
53
52
53
53
54
53
54
53
52
52
52
53
53
52
52
51
51
52
52
51
50
49
50
51
51
52
51
50
50
50
50
51
51
50
50
49
50
51
51
51
50
51
50
50
51
51
51
51
50
50
51
51
51
51
50
50
51
50
51
50
50
49
49
49
50
49
48
49
47
48
49
49
49
50
49
49
49
50
51
50
50
50
49
49
50
50
50
49
48
48
48
48
48
47
46
47
47
47
47
47
46
46
45
45
46
46
46
45
45
45
46
47
47
46
46
45
46
47
47
47
46
45
45
45
45
45
44
43
43
43
43
43
43
42
41
40
40
41
41
41
41
40
39
40
40
40
40
39
39
39
39
40
40
39
40
39
40
41
41
41
41
41
41
42
42
43
42
41
41
41
41
41
41
41
40
39
39
40
40
39
39
38
37
37
38
37
36
36
35
35
35
36
36
35
36
35
35
36
37
37
36
36
35
37
37
38
36
36
36
36
36
36
37
37
36
35
36
37
37
37
36
37
36
37
37
37
36
36
35
35
36
36
36
35
34
34
34
34
34
34
33
33
33
33
33
34
34
33
32
33
33
34
34
34
33
32
33
34
34
34
33
32
32
33
33
33
33
32
32
32
33
32
32
33
32
31
33
33
33
33
32
33
32
33
33
33
32
33
32
32
32
32
32
32
31
31
31
31
32
32
31
30
30
30
31
31
31
30
29
29
30
30
30
29
28
29
29
30
30
29
29
28
29
28
29
29
30
28
28
28
29
29
29
29
28
28
28
29
29
30
29
28
28
29
29
29
29
28
28
28
30
30
30
29
29
29
29
29
30
30
29
28
28
29
29
29
29
29
27
27
28
28
28
28
27
27
27
27
27
27
27
26
26
25
26
26
26
25
25
25
26
26
26
25
24
24
25
25
26
25
25
24
24
25
26
26
26
25
25
25
25
27
27
26
26
26
27
28
28
29
28
28
28
30
30
30
30
30
30
30
31
31
32
31
31
30
31
32
31
30
30
29
29
29
30
29
28
27
26
27
26
26
26
26
25
24
25
25
25
25
24
23
23
23
23
24
22
21
20
19
19
18
17
16
15
14
13
13
12
11
10
10
9
8
7
6
5
4
2
2
2
2
0
-1
-2
-3
-4
-4
-4
-5
-7
-8
-8
-8
-8
-8
-10
-11
-11
-11
-11
-11
-12
-13
-13
-13
-13
-13
-12
-12
-13
-13
-13
-12
-12
-12
-12
-13
-12
-12
-11
-11
-11
-11
-12
-12
-11
-10
-10
-10
-10
-10
-10
-10
-8
-8
-8
-9
-9
-9
-9
-8
-9
-9
-10
-11
-10
-10
-10
-11
-12
-13
-13
-13
-12
-13
-13
-15
-15
-15
-14
-13
-13
-14
-13
-14
-13
-13
-12
-12
-12
-13
-12
-11
-10
-11
-10
-10
-10
-9
-8
-6
-5
-4
-3
-1
2
6
10
14
18
23
29
37
47
56
66
77
89
103
117
134
150
166
183
201
219
238
255
271
286
300
311
322
329
335
336
334
330
323
312
298
280
259
234
208
180
151
121
90
57
25
-7
-38
-67
-95
-123
-148
-171
-191
-208
-223
-235
-245
-253
-258
-261
-262
-261
-259
-255
-251
-246
-238
-231
-222
-213
-205
-195
-185
-174
-164
-154
-144
-134
-125
-115
-106
-97
-89
-82
-75
-68
-61
-55
-50
-45
-41
-37
-33
-29
-27
-24
-23
-22
-20
-18
-17
-15
-15
-15
-15
-14
-13
-13
-13
-12
-14
-13
-14
-13
-12
-12
-13
-13
-13
-12
-13
-12
-13
-13
-13
-13
-12
-12
-11
-11
-12
-12
-12
-11
-11
-11
-12
-12
-12
-11
-11
-11
-11
-12
-13
-12
-12
-11
-11
-12
-13
-13
-13
-13
-12
-12
-13
-14
-13
-13
-12
-12
-12
-13
-14
-14
-13
-12
-12
-13
-13
-13
-13
-12
-12
-12
-13
-13
-14
-13
-12
-11
-12
-12
-13
-14
-14
-13
-13
-14
-15
-16
-15
-15
-14
-15
-15
-16
-16
-16
-15
-14
-14
-15
-15
-14
-14
-13
-13
-13
-13
-13
-13
-12
-12
-12
-12
-14
-13
-13
-12
-12
-11
-11
-12
-12
-11
-10
-11
-11
-11
-11
-11
-11
-10
-10
-10
-10
-10
-9
-8
-7
-7
-7
-7
-7
-6
-5
-4
-4
-4
-5
-4
-3
-3
-3
-2
-2
-3
-3
-2
-2
-2
-2
-3
-2
-2
-2
-1
-1
-2
-2
-1
0
1
2
2
2
2
3
4
5
6
6
6
6
8
9
9
10
9
10
10
12
12
13
13
13
14
15
16
16
16
17
17
18
18
19
20
20
20
21
21
22
23
24
24
24
24
25
26
28
28
28
27
28
29
30
31
30
31
30
31
31
32
32
32
32
32
33
34
35
35
35
35
36
36
37
37
38
37
37
38
38
38
38
37
37
37
37
37
37
36
35
33
33
33
33
32
32
29
29
28
28
28
27
26
26
25
26
26
25
25
23
22
22
22
22
22
21
20
19
19
19
19
19
17
16
15
15
15
14
13
12
11
10
10
9
9
7
7
6
5
4
4
3
2
1
1
0
1
1
0
-1
-2
-2
-2
-2
-2
-3
-4
-5
-5
-5
-5
-6
-7
-8
-9
-9
-8
-9
-9
-10
-11
-12
-12
-12
-13
-13
-15
-15
-16
-16
-15
-16
-17
-18
-18
-17
-17
-17
-18
-19
-18
-18
-18
-18
-18
-19
-19
-20
-20
-20
-20
-20
-20
-21
-21
-21
-20
-19
-20
-21
-22
-22
-22
-20
-21
-22
-23
-23
-22
-22
-22
-22
-23
-24
-25
-24
-24
-24
-24
-25
-25
-25
-24
-24
-24
-25
-26
-26
-26
-27
-26
-27
-28
-28
-29
-29
-29
-29
-30
-30
-32
-32
-32
-31
-31
-32
-32
-32
-31
-31
-30
-30
-29
-30
-30
-28
-28
-27
-27
-28
-28
-28
-28
-27
-27
-27
-28
-28
-29
-28
-28
-29
-30
-30
-30
-29
-30
-30
-30
-30
-30
-30
-29
-28
-28
-28
-29
-29
-28
-27
-26
-26
-26
-26
-26
-25
-24
-25
-24
-26
-25
-26
-26
-25
-25
-26
-27
-27
-27
-26
-26
-27
-27
-28
-28
-26
-26
-25
-26
-26
-26
-26
-26
-26
-26
-26
-26
-27
-27
-27
-27
-26
-28
-28
-28
-28
-27
-27
-28
-29
-29
-29
-28
-29
-29
-30
-30
-30
-31
-30
-29
-30
-31
-30
-31
-30
-30
-29
-29
-29
-30
-30
-29
-28
-28
-29
-29
-29
-29
-28
-28
-28
-28
-29
-29
-29
-28
-28
-28
-29
-30
-29
-29
-29
-29
-29
-30
-31
-30
-31
-30
-31
-32
-32
-32
-32
-32
-32
-33
-33
-34
-33
-34
-34
-34
-34
-34
-35
-35
-34
-34
-34
-34
-34
-34
-33
-33
-33
-33
-34
-35
-34
-34
-32
-33
-34
-35
-34
-35
-34
-34
-35
-34
-35
-35
-34
-34
-34
-35
-35
-36
-35
-36
-35
-35
-36
-37
-37
-37
-36
-36
-36
-36
-37
-36
-36
-35
-36
-35
-35
-36
-35
-35
-35
-35
-35
-36
-36
-36
-35
-35
-36
-37
-37
-38
-38
-37
-37
-38
-39
-38
-39
-38
-38
-38
-38
-38
-39
-38
-37
-36
-36
-36
-36
-36
-35
-34
-34
-33
-34
-34
-34
-32
-32
-32
-32
-32
-33
-33
-33
-33
-33
-34
-34
-35
-35
-34
-34
-35
-36
-36
-37
-36
-36
-36
-36
-36
-37
-37
-36
-36
-36
-37
-37
-37
-36
-37
-37
-37
-38
-38
-39
-38
-39
-39
-39
-40
-40
-40
-39
-39
-38
-39
-39
-38
-38
-36
-36
-36
-36
-36
-35
-34
-34
-34
-34
-34
-34
-34
-34
-33
-33
-34
-34
-34
-33
-32
-33
-33
-34
-35
-34
-34
-33
-34
-35
-35
-35
-35
-35
-34
-34
-35
-35
-35
-35
-34
-34
-34
-35
-35
-35
-33
-34
-34
-34
-34
-35
-34
-33
-33
-33
-33
-33
-33
-33
-32
-32
-32
-33
-33
-33
-32
-32
-32
-32
-33
-33
-34
-33
-33
-33
-33
-34
-34
-33
-32
-32
-33
-34
-34
-33
-32
-32
-32
-32
-33
-33
-32
-33
-32
-33
-33
-33
-34
-34
-33
-33
-34
-35
-36
-36
-35
-35
-35
-35
-36
-36
-35
-35
-35
-35
-34
-35
-34
-33
-32
-32
-32
-32
-32
-32
-30
-30
-30
-30
-30
-30
-30
-28
-28
-29
-29
-28
-27
-26
-25
-24
-24
-24
-24
-23
-22
-21
-21
-21
-22
-21
-20
-19
-19
-19
-19
-18
-18
-17
-16
-16
-16
-16
-16
-15
-14
-13
-13
-12
-11
-11
-10
-9
-9
-8
-8
-9
-9
-8
-8
-8
-9
-10
-11
-12
-12
-12
-14
-16
-17
-19
-19
-19
-20
-22
-23
-24
-25
-25
-25
-26
-27
-28
-29
-30
-30
-30
-30
-32
-33
-34
-34
-35
-35
-36
-36
-37
-37
-37
-36
-37
-37
-38
-39
-38
-38
-37
-37
-38
-39
-38
-38
-37
-37
-37
-37
-38
-38
-37
-37
-37
-37
-38
-38
-38
-38
-37
-38
-38
-38
-38
-38
-37
-37
-37
-37
-37
-37
-36
-37
-36
-37
-36
-37
-37
-36
-36
-36
-36
-36
-37
-37
-35
-35
-35
-36
-35
-35
-34
-34
-33
-33
-34
-34
-33
-32
-31
-31
-31
-31
-31
-30
-29
-29
-29
-30
-30
-29
-29
-28
-28
-28
-27
-27
-25
-24
-21
-20
-18
-15
-12
-7
-2
4
10
17
25
35
46
58
71
85
99
115
132
150
169
186
204
221
238
254
269
282
292
300
306
309
309
306
299
289
275
259
239
217
193
165
136
106
75
45
15
-17
-48
-78
-107
-133
-158
-179
-199
-218
-234
-246
-257
-265
-269
-273
-276
-276
-274
-270
-265
-260
-253
-245
-237
-227
-217
-205
-194
-185
-174
-163
-152
-142
-132
-123
-113
-105
-98
-90
-83
-76
-71
-65
-61
-56
-52
-48
-45
-43
-41
-39
-37
-36
-34
-34
-33
-32
-31
-31
-29
-29
-29
-29
-29
-28
-27
-26
-25
-26
-25
-26
-25
-23
-24
-24
-24
-23
-23
-22
-21
-21
-21
-21
-21
-20
-20
-19
-18
-19
-19
-19
-19
-18
-17
-17
-18
-18
-18
-17
-16
-17
-17
-17
-17
-17
-16
-16
-15
-15
-16
-15
-15
-14
-13
-14
-14
-14
-14
-13
-13
-13
-13
-13
-12
-13
-12
-11
-10
-10
-10
-11
-10
-9
-9
-9
-9
-9
-9
-8
-7
-6
-6
-6
-6
-6
-5
-5
-4
-4
-5
-4
-4
-3
-2
-2
-3
-4
-3
-2
-2
-2
-1
-2
-3
-2
-2
-1
-1
-1
-1
-2
-2
-1
-1
0
0
-1
-1
0
1
1
0
1
1
1
3
3
4
4
4
4
4
5
5
6
6
6
6
7
7
8
7
7
7
8
9
10
9
10
9
9
11
12
12
12
12
12
12
14
15
16
16
16
17
17
18
18
19
19
19
18
19
20
20
20
20
20
20
20
21
22
21
21
22
22
23
23
23
23
24
25
25
27
27
28
28
29
30
32
33
34
34
34
35
36
37
39
40
40
39
39
40
41
42
42
42
42
42
43
44
45
44
44
45
45
46
46
47
47
46
47
47
48
49
48
48
48
48
49
50
49
49
49
49
49
50
50
51
49
50
49
50
51
51
51
50
49
50
50
50
50
49
48
48
47
48
48
48
47
47
46
46
46
46
45
44
43
43
43
44
44
43
42
40
40
40
40
39
38
37
36
35
35
34
33
32
31
30
30
30
29
28
27
26
27
27
27
26
26
25
24
24
24
24
23
22
21
21
20
19
19
18
17
16
15
14
14
13
12
12
11
11
11
10
9
9
8
8
8
8
8
8
7
7
7
8
8
8
8
7
6
6
6
7
6
5
5
4
4
5
5
4
4
3
3
3
3
3
3
2
1
1
2
1
1
1
0
0
0
0
0
-1
-1
-2
-2
-2
-1
-1
-2
-3
-2
-2
-2
-2
-2
-4
-4
-4
-4
-3
-3
-3
-5
-5
-5
-4
-4
-4
-4
-5
-6
-5
-5
-4
-5
-5
-5
-6
-5
-5
-5
-5
-6
-6
-6
-6
-5
-5
-6
-6
-6
-6
-5
-6
-6
-6
-7
-8
-7
-6
-6
-7
-8
-8
-9
-9
-9
-10
-10
-12
-13
-13
-13
-15
-15
-17
-19
-20
-21
-21
-23
-24
-26
-26
-28
-28
-29
-30
-31
-33
-35
-34
-35
-36
-38
-38
-39
-40
-40
-40
-41
-41
-43
-43
-43
-43
-43
-43
-44
-45
-46
-46
-46
-46
-47
-47
-49
-50
-50
-50
-50
-52
-53
-54
-55
-54
-55
-56
-57
-58
-59
-58
-59
-60
-61
-61
-62
-62
-62
-61
-62
-63
-63
-64
-63
-63
-63
-63
-63
-63
-63
-63
-62
-62
-63
-63
-64
-64
-64
-64
-64
-64
-65
-65
-66
-65
-65
-66
-66
-67
-68
-68
-68
-69
-69
-69
-71
-71
-71
-70
-70
-72
-72
-72
-72
-72
-71
-71
-72
-72
-72
-71
-71
-70
-72
-71
-72
-72
-71
-71
-71
-72
-73
-73
-73
-73
-73
-73
-74
-75
-75
-76
-76
-76
-77
-78
-79
-79
-78
-78
-78
-78
-79
-79
-79
-77
-77
-77
-77
-78
-79
-79
-78
-78
-79
-79
-80
-80
-80
-79
-80
-80
-81
-82
-82
-81
-81
-81
-82
-83
-83
-83
-82
-82
-83
-83
-84
-83
-83
-82
-82
-82
-82
-82
-82
-81
-81
-80
-82
-82
-82
-81
-80
-81
-81
-81
-82
-82
-81
-81
-81
-81
-82
-82
-82
-82
-80
-80
-82
-82
-81
-81
-80
-80
-80
-81
-81
-81
-80
-80
-79
-79
-80
-80
-79
-79
-77
-77
-78
-79
-79
-78
-78
-78
-79
-80
-80
-81
-81
-81
-82
-82
-83
-84
-84
-84
-84
-84
-86
-87
-87
-87
-86
-87
-87
-87
-87
-87
-87
-86
-85
-86
-86
-86
-85
-85
-84
-83
-84
-84
-83
-83
-82
-82
-81
-82
-82
-82
-81
-80
-80
-80
-81
-81
-80
-81
-79
-81
-81
-82
-82
-82
-81
-81
-82
-83
-84
-84
-84
-83
-84
-84
-85
-85
-85
-84
-84
-84
-84
-85
-85
-85
-84
-83
-84
-85
-85
-84
-83
-83
-82
-83
-82
-83
-82
-81
-81
-80
-81
-81
-81
-81
-81
-80
-81
-82
-83
-83
-82
-81
-81
-82
-82
-83
-82
-81
-81
-81
-82
-82
-83
-81
-81
-80
-81
-82
-82
-82
-81
-81
-80
-81
-81
-82
-82
-81
-80
-80
-81
-81
-80
-80
-80
-80
-79
-80
-80
-80
-79
-78
-78
-79
-79
-79
-78
-78
-77
-77
-77
-77
-77
-76
-75
-74
-75
-75
-76
-76
-74
-73
-73
-73
-73
-73
-72
-71
-71
-71
-71
-72
-71
-71
-69
-69
-69
-69
-69
-69
-67
-66
-65
-65
-65
-64
-63
-61
-60
-60
-60
-59
-58
-56
-55
-56
-56
-56
-56
-56
-56
-55
-56
-57
-59
-60
-60
-61
-61
-62
-63
-65
-66
-66
-67
-68
-69
-71
-73
-73
-73
-73
-75
-76
-77
-78
-79
-78
-78
-79
-80
-81
-82
-81
-81
-81
-82
-83
-84
-84
-84
-84
-84
-85
-86
-86
-86
-86
-85
-85
-86
-87
-87
-86
-85
-85
-85
-85
-85
-85
-85
-84
-84
-84
-85
-84
-84
-83
-83
-83
-83
-84
-84
-82
-83
-82
-83
-84
-84
-83
-83
-83
-82
-83
-84
-84
-83
-82
-82
-83
-83
-84
-84
-82
-82
-82
-82
-83
-83
-81
-81
-80
-80
-80
-80
-81
-80
-80
-79
-79
-79
-80
-80
-80
-79
-80
-80
-81
-81
-82
-82
-81
-82
-82
-82
-82
-80
-79
-77
-76
-74
-72
-69
-66
-61
-56
-52
-46
-39
-31
-21
-11
1
12
24
37
52
69
85
101
118
135
152
169
185
199
212
223
231
239
243
245
244
238
230
218
205
187
168
145
120
93
65
37
7
-23
-54
-84
-113
-142
-167
-191
-214
-236
-255
-271
-284
-295
-303
-310
-315
-317
-319
-318
-314
-310
-306
-300
-293
-285
-276
-266
-257
-247
-238
-228
-217
-207
-197
-187
-179
-170
-161
-153
-144
-136
-130
-125
-119
-113
-108
-103
-99
-96
-94
-91
-88
-84
-83
-81
-81
-81
-79
-78
-77
-77
-78
-78
-78
-79
-78
-78
-78
-79
-80
-80
-79
-78
-78
-78
-78
-77
-77
-76
-75
-75
-74
-74
-74
-74
-72
-70
-70
-70
-69
-69
-68
-66
-66
-66
-67
-67
-67
-66
-65
-65
-65
-65
-66
-66
-66
-65
-64
-65
-65
-65
-65
-64
-62
-62
-63
-63
-63
-61
-60
-60
-60
-60
-60
-59
-59
-58
-58
-58
-59
-59
-59
-58
-58
-57
-59
-58
-58
-58
-57
-57
-58
-57
-58
-58
-57
-57
-57
-57
-56
-56
-56
-55
-55
-54
-55
-55
-55
-54
-53
-52
-53
-53
-53
-52
-52
-51
-50
-51
-51
-51
-49
-49
-48
-48
-49
-49
-49
-48
-47
-47
-47
-47
-48
-48
-47
-46
-46
-46
-47
-47
-47
-45
-45
-45
-45
-46
-46
-45
-44
-43
-43
-43
-44
-42
-42
-41
-40
-41
-41
-41
-39
-38
-37
-37
-37
-37
-37
-35
-34
-34
-35
-35
-34
-34
-33
-32
-32
-32
-32
-32
-32
-31
-30
-29
-30
-30
-30
-29
-28
-27
-26
-26
-26
-25
-23
-21
-21
-20
-20
-19
-18
-17
-15
-15
-14
-14
-13
-13
-11
-10
-10
-10
-10
-9
-8
-7
-6
-6
-7
-6
-5
-5
-3
-3
-3
-2
-1
0
0
1
0
0
1
1
2
3
3
3
3
3
4
4
4
4
4
3
3
4
4
5
5
5
4
4
5
5
6
6
5
6
7
7
8
8
8
7
8
8
9
9
8
8
8
8
9
9
8
7
7
6
6
6
6
5
4
3
2
2
2
2
1
0
-1
-2
-2
-1
-2
-4
-5
-6
-6
-6
-6
-7
-8
-9
-9
-9
-10
-11
-12
-13
-14
-14
-14
-14
-14
-15
-18
-18
-18
-17
-18
-19
-21
-22
-23
-22
-23
-24
-25
-26
-27
-28
-27
-27
-28
-29
-31
-31
-30
-30
-30
-31
-32
-33
-33
-33
-33
-33
-33
-34
-35
-36
-36
-36
-37
-38
-39
-41
-40
-40
-40
-41
-41
-43
-43
-42
-43
-43
-44
-44
-44
-44
-44
-43
-44
-44
-45
-45
-44
-44
-44
-45
-46
-47
-46
-46
-45
-46
-46
-47
-47
-47
-47
-47
-46
-47
-48
-48
-47
-46
-46
-46
-46
-47
-47
-47
-46
-47
-47
-48
-48
-47
-47
-46
-46
-47
-47
-47
-47
-46
-46
-46
-47
-47
-46
-45
-45
-44
-46
-45
-46
-45
-44
-44
-45
-46
-47
-47
-46
-46
-46
-46
-47
-49
-49
-50
-49
-49
-50
-52
-52
-51
-51
-51
-51
-51
-52
-52
-52
-51
-51
-51
-50
-52
-52
-50
-49
-49
-50
-49
-50
-50
-49
-49
-48
-49
-49
-48
-48
-47
-47
-47
-48
-48
-48
-47
-47
-48
-48
-49
-49
-50
-50
-49
-50
-51
-52
-53
-51
-52
-51
-52
-53
-52
-52
-52
-50
-50
-50
-51
-51
-50
-49
-48
-47
-47
-48
-47
-46
-46
-45
-45
-46
-46
-46
-46
-46
-46
-47
-48
-47
-48
-48
-47
-48
-49
-49
-49
-49
-48
-47
-48
-49
-50
-49
-49
-48
-49
-49
-49
-50
-50
-49
-49
-50
-50
-51
-51
-51
-51
-51
-51
-53
-54
-54
-53
-53
-53
-55
-55
-56
-56
-56
-55
-55
-56
-57
-57
-56
-55
-55
-56
-56
-57
-57
-56
-56
-56
-56
-56
-57
-56
-56
-55
-55
-56
-57
-57
-56
-55
-56
-56
-57
-57
-57
-56
-56
-56
-56
-58
-58
-58
-57
-57
-57
-58
-59
-59
-59
-58
-58
-58
-59
-60
-60
-59
-59
-59
-60
-60
-61
-60
-60
-60
-60
-60
-61
-60
-60
-59
-59
-59
-60
-60
-59
-59
-58
-58
-58
-59
-60
-59
-58
-58
-57
-58
-58
-58
-58
-57
-56
-56
-58
-59
-58
-58
-57
-58
-58
-59
-58
-59
-58
-58
-58
-59
-60
-60
-59
-58
-57
-58
-59
-59
-60
-58
-57
-57
-59
-59
-59
-59
-58
-58
-58
-59
-59
-59
-59
-58
-58
-58
-58
-59
-59
-58
-57
-57
-57
-58
-59
-58
-58
-57
-58
-57
-59
-58
-58
-58
-58
-57
-59
-59
-59
-59
-58
-58
-60
-60
-61
-60
-60
-60
-60
-61
-61
-61
-60
-60
-59
-59
-59
-59
-59
-58
-57
-57
-57
-57
-57
-57
-56
-56
-55
-56
-57
-57
-56
-57
-56
-57
-58
-58
-59
-58
-58
-58
-59
-60
-60
-59
-59
-59
-59
-60
-60
-60
-60
-59
-58
-58
-59
-60
-60
-59
-59
-58
-59
-59
-60
-59
-59
-57
-58
-58
-58
-58
-58
-56
-56
-56
-56
-56
-56
-55
-54
-54
-55
-55
-56
-55
-55
-54
-55
-55
-55
-55
-56
-55
-55
-54
-55
-56
-55
-54
-54
-53
-54
-54
-55
-54
-53
-52
-51
-51
-52
-51
-50
-49
-49
-48
-49
-49
-49
-48
-48
-47
-47
-48
-48
-46
-46
-45
-44
-44
-44
-43
-41
-40
-38
-38
-37
-36
-35
-33
-32
-32
-31
-31
-31
-31
-30
-31
-31
-31
-33
-34
-34
-34
-35
-36
-38
-40
-42
-42
-43
-44
-46
-47
-49
-50
-50
-51
-51
-53
-54
-55
-55
-55
-55
-56
-57
-58
-59
-58
-58
-59
-60
-61
-62
-62
-62
-62
-61
-63
-63
-63
-63
-63
-62
-62
-63
-63
-62
-62
-61
-61
-60
-60
-61
-60
-59
-58
-58
-59
-59
-59
-59
-58
-58
-57
-58
-59
-59
-59
-59
-59
-60
-61
-61
-61
-60
-60
-61
-61
-62
-62
-61
-60
-61
-60
-61
-61
-62
-60
-60
-60
-60
-61
-60
-61
-60
-59
-59
-60
-60
-60
-59
-58
-58
-58
-59
-59
-58
-58
-56
-56
-57
-57
-57
-56
-55
-55
-55
-55
-54
-53
-52
-50
-48
-47
-45
-43
-41
-37
-33
-29
-26
-21
-15
-7
1
10
20
29
42
54
69
84
100
117
134
152
170
188
205
223
237
250
263
273
282
288
290
289
284
277
266
253
236
215
190
164
136
107
78
46
14
-18
-50
-80
-111
-139
-165
-191
-213
-234
-250
-266
-278
-288
-297
-303
-306
-307
-306
-305
-303
-298
-294
-287
-279
-271
-262
-254
-244
-234
-223
-213
-202
-192
-184
-174
-164
-155
-145
-137
-130
-123
-117
-109
-103
-98
-93
-88
-84
-81
-77
-73
-70
-67
-66
-64
-63
-61
-59
-58
-57
-57
-56
-55
-54
-53
-54
-53
-54
-53
-53
-52
-52
-51
-51
-51
-51
-50
-49
-49
-49
-50
-49
-49
-48
-48
-47
-47
-47
-48
-47
-46
-45
-45
-46
-46
-45
-44
-43
-42
-43
-43
-42
-42
-41
-40
-40
-41
-41
-40
-39
-39
-39
-39
-40
-39
-39
-38
-38
-38
-39
-39
-39
-39
-38
-37
-38
-38
-38
-38
-37
-36
-36
-36
-36
-37
-36
-36
-35
-35
-36
-37
-36
-36
-36
-36
-36
-37
-37
-36
-37
-36
-35
-36
-36
-36
-36
-35
-34
-34
-34
-34
-33
-32
-31
-30
-29
-30
-30
-29
-28
-27
-26
-27
-27
-27
-26
-25
-25
-25
-25
-25
-25
-24
-23
-23
-22
-22
-23
-23
-22
-21
-20
-20
-20
-20
-20
-18
-18
-18
-18
-19
-18
-18
-17
-17
-16
-17
-16
-16
-14
-13
-13
-13
-13
-12
-12
-11
-9
-9
-9
-9
-8
-7
-7
-5
-6
-6
-5
-5
-4
-3
-2
-3
-3
-3
-2
-1
0
0
0
-1
0
1
2
3
3
3
3
4
5
6
7
8
7
8
9
10
11
11
12
12
12
12
15
15
14
15
15
16
17
18
19
20
20
20
21
22
24
24
24
26
26
28
28
30
31
31
31
32
35
35
36
37
37
37
37
38
38
39
39
38
38
38
38
39
39
38
38
37
39
39
40
39
39
39
39
40
40
40
40
39
40
40
41
40
40
39
39
39
38
38
38
37
37
35
35
35
35
34
33
32
32
31
31
31
29
28
27
26
26
26
26
24
22
22
21
21
20
20
19
18
17
17
17
16
15
14
13
13
12
12
11
10
9
8
7
7
7
6
5
3
2
2
2
2
0
-1
-1
-1
-1
-1
-2
-2
-3
-5
-4
-4
-4
-4
-5
-7
-7
-8
-6
-7
-8
-9
-9
-10
-9
-9
-9
-10
-10
-11
-10
-11
-10
-12
-12
-13
-13
-13
-13
-12
-13
-14
-15
-15
-14
-14
-14
-15
-16
-17
-17
-17
-16
-17
-18
-18
-19
-18
-18
-18
-18
-19
-20
-19
-19
-18
-19
-19
-20
-20
-20
-19
-18
-19
-19
-19
-19
-19
-19
-18
-19
-18
-19
-18
-17
-17
-16
-17
-18
-17
-17
-17
-16
-17
-17
-18
-19
-18
-17
-18
-18
-19
-20
-20
-20
-20
-21
-22
-23
-24
-23
-22
-23
-23
-24
-24
-25
-24
-23
-22
-23
-23
-23
-22
-21
-21
-21
-21
-20
-21
-19
-18
-18
-18
-19
-19
-19
-17
-18
-17
-18
-18
-18
-18
-18
-16
-17
-17
-18
-18
-18
-18
-17
-18
-18
-19
-19
-18
-18
-18
-18
-19
-19
-19
-18
-18
-17
-17
-18
-19
-19
-18
-18
-18
-19
-20
-20
-19
-19
-18
-18
-19
-20
-19
-18
-18
-18
-18
-19
-19
-19
-18
-18
-19
-20
-20
-20
-20
-19
-19
-19
-20
-20
-20
-19
-19
-18
-19
-19
-19
-18
-16
-17
-16
-17
-16
-16
-16
-15
-15
-16
-16
-16
-16
-16
-15
-16
-17
-18
-19
-19
-18
-19
-19
-21
-22
-23
-23
-23
-22
-24
-24
-25
-25
-24
-24
-24
-25
-25
-25
-25
-24
-23
-24
-25
-25
-24
-24
-23
-23
-24
-25
-25
-26
-25
-26
-26
-26
-28
-28
-28
-28
-29
-28
-30
-30
-30
-30
-30
-30
-30
-31
-31
-31
-30
-30
-29
-30
-30
-30
-30
-29
-28
-29
-29
-30
-30
-29
-28
-28
-29
-30
-29
-29
-28
-28
-28
-28
-29
-29
-28
-29
-28
-29
-29
-29
-29
-28
-28
-27
-28
-28
-28
-28
-27
-26
-26
-26
-27
-27
-26
-25
-25
-26
-26
-28
-28
-26
-27
-26
-27
-28
-28
-28
-27
-27
-27
-28
-28
-29
-28
-29
-28
-29
-29
-30
-30
-30
-30
-29
-31
-32
-31
-32
-31
-31
-31
-32
-32
-32
-31
-31
-30
-30
-31
-31
-31
-29
-29
-28
-29
-28
-29
-28
-27
-27
-26
-28
-27
-28
-28
-27
-28
-28
-29
-29
-29
-29
-29
-29
-29
-29
-30
-29
-29
-29
-28
-29
-29
-29
-29
-28
-27
-28
-29
-28
-28
-28
-27
-27
-27
-28
-29
-28
-27
-27
-27
-27
-27
-27
-27
-26
-26
-26
-26
-26
-25
-25
-25
-25
-25
-27
-27
-27
-26
-26
-27
-27
-28
-29
-29
-29
-29
-30
-30
-31
-31
-31
-30
-30
-30
-32
-31
-30
-29
-29
-28
-28
-28
-28
-28
-27
-26
-26
-26
-26
-26
-26
-25
-25
-25
-25
-25
-25
-24
-23
-23
-23
-24
-23
-22
-21
-20
-21
-20
-20
-20
-19
-18
-18
-18
-18
-19
-18
-17
-17
-16
-17
-16
-17
-16
-15
-14
-14
-15
-14
-14
-12
-11
-11
-11
-11
-10
-10
-7
-6
-6
-5
-5
-5
-4
-4
-3
-3
-4
-4
-4
-3
-3
-4
-4
-5
-6
-6
-6
-6
-7
-8
-9
-11
-11
-12
-13
-15
-16
-17
-18
-19
-19
-20
-21
-23
-23
-24
-23
-24
-25
-26
-27
-27
-27
-27
-27
-28
-29
-30
-30
-30
-30
-31
-31
-32
-33
-33
-33
-33
-33
-33
-34
-35
-34
-34
-34
-34
-35
-35
-35
-34
-33
-33
-33
-33
-33
-32
-32
-30
-30
-31
-31
-31
-30
-29
-30
-29
-31
-31
-31
-30
-30
-30
-31
-32
-31
-31
-31
-31
-31
-31
-32
-32
-32
-31
-31
-31
-32
-32
-32
-31
-31
-30
-31
-31
-31
-31
-30
-28
-28
-28
-29
-28
-28
-27
-26
-27
-27
-27
-26
-26
-25
-24
-24
-24
-22
-21
-18
-16
-14
-11
-8
-4
0
6
12
18
26
34
44
55
69
82
96
110
126
143
161
179
197
215
232
249
265
280
292
303
310
315
318
318
315
307
296
282
264
245
222
197
170
140
109
79
48
16
-15
-47
-77
-105
-133
-158
-180
-200
-219
-234
-247
-256
-264
-270
-273
-276
-276
-275
-271
-267
-260
-254
-247
-238
-229
-218
-207
-197
-187
-176
-165
-155
-144
-134
-124
-114
-107
-99
-90
-82
-75
-70
-64
-60
-56
-51
-47
-43
-40
-39
-37
-35
-33
-31
-31
-30
-31
-29
-29
-28
-27
-27
-26
-27
-27
-26
-25
-25
-25
-25
-24
-24
-23
-21
-21
-21
-21
-20
-19
-18
-17
-16
-17
-17
-16
-16
-15
-15
-15
-15
-16
-15
-15
-15
-15
-16
-16
-16
-17
-16
-16
-15
-17
-16
-16
-16
-15
-15
-15
-15
-14
-14
-13
-11
-11
-11
-11
-11
-9
-9
-9
-8
-9
-9
-8
-8
-7
-7
-8
-8
-8
-7
-7
-6
-6
-7
-7
-7
-6
-5
-6
-5
-6
-7
-6
-5
-4
-5
-4
-5
-5
-4
-4
-2
-2
-3
-3
-3
-2
-1
-1
-1
-1
-1
-1
0
1
1
0
0
1
1
2
2
2
2
2
2
3
4
5
4
4
4
5
5
6
6
6
6
7
7
8
8
8
8
7
8
9
10
10
10
10
10
10
11
13
13
14
13
13
14
14
15
16
16
16
16
16
16
17
17
16
16
16
17
17
18
18
17
17
17
19
20
20
20
20
20
22
23
25
24
25
25
26
28
29
30
30
31
32
32
35
35
37
37
36
38
39
40
41
41
41
41
42
44
44
45
44
44
45
46
47
48
47
47
47
47
48
49
49
49
49
49
49
49
51
51
51
51
52
52
54
55
55
55
55
56
57
58
59
59
59
60
60
61
61
62
61
61
60
60
61
60
60
59
58
57
57
58
57
56
55
54
54
54
54
53
52
51
51
51
51
51
50
50
48
48
48
47
47
47
45
44
44
44
44
42
41
41
40
40
40
39
38
37
37
36
36
36
36
35
34
33
32
32
32
31
30
28
28
28
27
27
26
25
23
24
23
23
22
22
21
20
20
20
19
19
18
18
18
18
18
18
18
17
16
16
16
16
17
16
15
14
14
14
14
14
14
14
13
13
13
13
12
11
10
10
10
11
10
10
8
8
7
7
7
6
5
4
3
3
3
3
3
3
2
1
2
2
3
2
1
1
2
2
3
2
2
1
2
2
3
4
3
3
2
2
3
3
3
2
2
1
1
1
2
2
0
0
0
0
0
1
0
0
-1
-1
0
0
0
-1
0
0
0
0
-1
-1
-1
-1
-1
-1
0
0
-1
-1
-3
-3
-2
-2
-1
-2
-3
-3
-2
-2
-2
-2
-2
-3
-2
-2
-1
-1
0
-1
-1
-1
-1
0
1
0
0
0
0
1
1
2
1
2
2
2
3
4
4
2
2
2
2
2
2
1
0
0
-1
-1
-1
-1
-2
-4
-3
-3
-4
-3
-3
-3
-4
-4
-4
-3
-3
-2
-3
-4
-2
-2
-1
-1
-2
-2
-2
-2
-2
-1
-1
-2
-2
-2
-3
-2
-2
-3
-3
-3
-3
-3
-2
-2
-2
-3
-3
-2
-2
-2
-1
-2
-3
-2
-2
-1
-1
-1
-2
-2
-3
-1
-1
-1
-2
-2
-3
-2
-2
-2
-2
-3
-3
-3
-4
-3
-3
-4
-4
-5
-5
-4
-5
-5
-5
-6
-6
-5
-5
-4
-5
-5
-6
-5
-5
-5
-4
-5
-5
-5
-5
-5
-4
-4
-4
-5
-4
-4
-4
-4
-4
-5
-6
-6
-6
-5
-6
-7
-8
-8
-9
-9
-10
-10
-11
-12
-12
-12
-11
-11
-12
-12
-13
-13
-12
-12
-13
-12
-13
-13
-13
-12
-11
-11
-12
-12
-11
-11
-11
-10
-10
-11
-10
-10
-10
-10
-9
-10
-11
-11
-12
-12
-11
-11
-12
-13
-13
-14
-13
-13
-14
-14
-15
-15
-15
-14
-14
-15
-15
-15
-15
-16
-14
-14
-15
-15
-15
-15
-14
-13
-13
-13
-14
-13
-12
-11
-11
-11
-11
-11
-11
-10
-10
-10
-11
-11
-11
-12
-11
-11
-11
-12
-12
-13
-13
-12
-13
-14
-15
-15
-16
-16
-15
-16
-16
-17
-17
-16
-15
-15
-16
-15
-16
-16
-15
-15
-15
-14
-15
-16
-16
-14
-15
-14
-16
-16
-16
-16
-16
-16
-16
-17
-17
-17
-17
-16
-17
-17
-17
-18
-18
-17
-17
-17
-18
-19
-19
-18
-18
-17
-18
-18
-19
-19
-18
-17
-17
-18
-18
-19
-18
-17
-16
-16
-16
-16
-16
-15
-14
-13
-13
-13
-14
-13
-12
-13
-13
-13
-13
-14
-15
-14
-14
-14
-16
-16
-17
-17
-17
-17
-18
-18
-19
-19
-18
-18
-18
-19
-19
-19
-19
-18
-18
-17
-18
-18
-19
-17
-17
-17
-16
-17
-17
-16
-16
-15
-15
-14
-14
-14
-14
-14
-13
-13
-14
-14
-14
-13
-13
-13
-13
-14
-15
-16
-15
-16
-16
-16
-18
-18
-18
-18
-18
-18
-18
-19
-18
-17
-16
-16
-15
-15
-14
-14
-13
-11
-10
-10
-10
-10
-8
-7
-6
-6
-6
-6
-6
-6
-5
-4
-5
-4
-5
-5
-3
-3
-2
-2
-3
-2
-1
-1
0
2
2
2
3
4
6
6
6
6
6
7
8
7
8
7
6
5
5
5
5
3
2
1
0
-1
-2
-2
-4
-5
-7
-8
-8
-9
-11
-12
-13
-14
-14
-15
-16
-17
-19
-20
-21
-21
-21
-21
-22
-22
-23
-23
-24
-23
-23
-23
-24
-24
-24
-24
-23
-23
-23
-24
-25
-24
-23
-23
-24
-24
-25
-26
-25
-24
-25
-26
-27
-28
-28
-28
-27
-28
-29
-30
-30
-29
-28
-28
-29
-29
-29
-29
-28
-27
-27
-27
-28
-28
-26
-26
-25
-25
-25
-25
-25
-24
-23
-23
-22
-23
-23
-23
-22
-22
-21
-22
-23
-23
-23
-22
-22
-22
-23
-23
-23
-23
-23
-23
-23
-23
-23
-24
-23
-22
-23
-23
-23
-23
-23
-22
-22
-21
-21
-20
-19
-17
-14
-12
-9
-6
-4
2
6
12
19
26
34
43
53
65
79
92
106
121
137
154
172
190
208
224
239
255
269
281
291
299
303
306
305
302
296
286
272
255
235
213
189
163
134
105
74
44
13
-17
-46
-76
-104
-130
-154
-176
-195
-212
-227
-240
-250
-257
-261
-263
-265
-265
-264
-260
-254
-247
-239
-232
-224
-215
-204
-193
-182
-172
-162
-153
-142
-132
-123
-113
-104
-97
-90
-82
-76
-69
-63
-59
-55
-51
-47
-43
-39
-38
-36
-35
-32
-30
-28
-27
-25
-25
-25
-24
-23
-22
-21
-22
-22
-21
-21
-20
-19
-18
-19
-19
-18
-18
-17
-16
-16
-17
-17
-16
-14
-14
-13
-13
-13
-14
-13
-13
-12
-12
-12
-13
-13
-12
-12
-12
-12
-13
-13
-13
-12
-12
-12
-13
-14
-15
-14
-14
-13
-14
-14
-15
-15
-13
-12
-12
-11
-12
-13
-13
-11
-9
-9
-9
-8
-8
-6
-5
-4
-3
-3
-3
-2
-2
-1
0
0
0
0
0
0
0
1
0
0
0
0
-1
0
0
-1
-1
-2
-2
-1
-1
-2
-3
-3
-3
-3
-1
-1
-2
-3
-4
-3
-2
-1
-1
-2
-2
-2
-1
0
0
1
0
1
2
2
4
4
4
4
5
5
6
7
8
8
7
8
9
10
10
10
10
9
9
9
10
10
9
8
9
8
10
11
11
10
9
9
11
12
12
13
12
12
13
14
15
17
17
17
17
18
18
20
20
20
20
20
21
22
23
24
23
23
23
24
25
26
26
26
25
26
27
28
29
29
29
29
31
32
32
33
33
32
32
34
35
36
36
35
36
37
38
39
40
39
39
40
41
42
43
44
44
43
44
46
47
48
47
47
48
49
50
51
51
51
52
52
53
54
54
54
54
54
55
56
57
57
57
56
57
57
58
58
58
57
56
56
57
57
58
57
56
56
56
56
56
56
55
54
54
54
54
54
54
53
53
52
52
52
52
51
51
50
50
50
50
50
48
47
46
46
45
44
43
42
41
40
40
39
38
37
35
34
33
33
33
33
32
31
29
29
29
29
29
28
27
27
26
27
26
26
25
24
24
23
23
23
22
21
21
20
20
20
20
19
18
18
18
19
18
18
17
17
17
17
17
17
16
15
15
14
15
15
14
13
12
12
12
13
12
11
11
10
9
10
10
10
9
8
8
7
8
8
8
6
5
5
5
7
6
6
4
3
3
4
5
4
3
2
1
2
2
4
3
1
1
1
1
2
3
2
2
2
1
3
3
2
2
1
1
1
2
2
2
2
0
0
2
2
3
2
1
1
1
2
3
3
2
2
2
2
3
3
3
2
1
1
1
2
2
2
1
1
0
0
1
0
0
-1
-2
-1
0
0
-1
-1
-1
-1
-1
0
0
0
-1
-1
0
0
1
1
1
0
0
0
1
2
1
1
1
1
1
2
3
3
2
2
2
4
4
5
4
3
4
3
4
5
4
2
2
2
3
3
3
2
1
-1
-1
-1
0
-1
-1
-3
-4
-3
-2
-2
-2
-3
-3
-3
-2
-1
-1
-1
-1
-1
-1
-1
1
1
0
-1
0
0
0
1
0
0
0
0
1
0
1
1
1
0
0
2
1
1
1
1
0
1
0
0
0
-1
-1
-2
-1
-1
-1
-2
-3
-3
-3
-2
-2
-3
-3
-3
-3
-3
-3
-3
-3
-3
-3
-3
-3
-3
-3
-3
-3
-3
-3
-2
-3
-2
-2
-2
-2
-2
-2
-2
-2
-3
-2
-2
-2
-2
-2
-1
-2
-2
-3
-2
0
-1
-2
-1
-2
-2
-1
0
-1
-2
-2
-2
-2
-2
-1
-2
-3
-2
-3
-3
-3
-4
-5
-5
-5
-6
-6
-6
-6
-7
-6
-6
-8
-7
-6
-7
-8
-8
-7
-8
-7
-7
-7
-8
-7
-8
-7
-7
-7
-8
-8
-7
-7
-6
-6
-6
-7
-7
-6
-6
-6
-6
-6
-6
-6
-5
-5
-5
-5
-5
-6
-6
-5
-5
-5
-5
-6
-6
-6
-5
-5
-5
-6
-7
-6
-6
-6
-5
-5
-6
-6
-6
-5
-5
-5
-5
-5
-5
-5
-4
-4
-4
-5
-6
-5
-6
-5
-5
-5
-5
-5
-5
-6
-5
-5
-5
-5
-6
-5
-4
-5
-5
-4
-5
-5
-5
-4
-5
-5
-5
-6
-5
-5
-5
-6
-6
-6
-6
-5
-6
-5
-6
-6
-6
-6
-5
-7
-6
-6
-6
-6
-6
-5
-5
-5
-5
-5
-5
-4
-5
-5
-5
-5
-5
-6
-5
-5
-6
-6
-5
-7
-6
-6
-6
-7
-6
-6
-7
-7
-6
-7
-8
-7
-8
-9
-8
-7
-8
-8
-9
-9
-9
-8
-8
-8
-8
-8
-9
-9
-7
-7
-7
-7
-7
-7
-6
-6
-5
-6
-6
-5
-6
-4
-4
-5
-4
-4
-4
-4
-4
-4
-4
-4
-3
-3
-3
-3
-2
-3
-3
-3
-3
-2
-2
-2
-2
-2
-2
-2
-2
-2
-4
-3
-4
-4
-5
-4
-5
-5
-6
-7
