# Simple Text Format
# Sampling Rate (Hz):= 1200.00
# Resolution:= 12
# Labels:= ECG	 V2
# Age:=	33
# Gender:=	Masculino
-32
-30
-30
-29
-29
-27
-26
-25
-25
-24
-24
-24
-23
-22
-21
-21
-21
-21
-21
-21
-21
-20
-21
-21
-20
-20
-18
-18
-17
-17
-16
-16
-15
-14
-14
-13
-13
-13
-13
-11
-11
-10
-10
-11
-11
-10
-11
-10
-10
-10
-11
-11
-11
-10
-11
-11
-12
-13
-12
-13
-13
-12
-13
-14
-15
-14
-15
-14
-15
-16
-17
-18
-19
-19
-20
-20
-21
-22
-23
-23
-24
-25
-26
-28
-30
-30
-31
-31
-32
-34
-35
-37
-37
-38
-39
-41
-43
-45
-45
-46
-47
-49
-51
-53
-55
-55
-56
-57
-59
-60
-62
-63
-64
-65
-66
-66
-68
-70
-70
-70
-71
-72
-73
-74
-75
-75
-75
-75
-76
-76
-78
-79
-79
-78
-78
-79
-80
-81
-81
-82
-81
-81
-82
-82
-83
-83
-83
-83
-83
-83
-84
-84
-84
-83
-84
-84
-84
-85
-84
-84
-84
-84
-84
-85
-86
-86
-85
-84
-84
-85
-86
-86
-86
-85
-86
-86
-86
-87
-88
-87
-87
-87
-87
-88
-89
-89
-88
-88
-88
-89
-90
-91
-90
-90
-90
-90
-90
-91
-91
-90
-89
-90
-90
-90
-90
-89
-88
-88
-88
-88
-89
-88
-88
-87
-87
-87
-88
-88
-89
-89
-88
-89
-90
-91
-91
-92
-91
-91
-91
-92
-93
-93
-93
-93
-93
-93
-94
-94
-94
-94
-93
-93
-93
-94
-93
-92
-91
-91
-91
-91
-92
-92
-92
-92
-92
-92
-92
-94
-94
-94
-93
-93
-93
-95
-95
-94
-95
-93
-93
-95
-94
-95
-95
-94
-94
-94
-95
-94
-94
-93
-93
-92
-92
-93
-92
-92
-91
-90
-89
-90
-90
-90
-89
-89
-88
-89
-89
-89
-89
-88
-87
-87
-87
-88
-88
-87
-87
-85
-85
-86
-86
-86
-86
-85
-85
-85
-86
-86
-86
-85
-85
-85
-85
-86
-86
-85
-84
-84
-84
-85
-85
-85
-85
-84
-84
-85
-85
-86
-86
-86
-85
-85
-85
-87
-86
-86
-86
-85
-85
-86
-87
-87
-87
-86
-86
-87
-87
-87
-88
-87
-86
-87
-86
-87
-87
-87
-86
-86
-86
-87
-87
-88
-87
-87
-87
-87
-88
-89
-89
-88
-88
-88
-89
-89
-89
-89
-88
-88
-88
-89
-89
-89
-89
-87
-88
-88
-89
-89
-89
-89
-88
-88
-89
-90
-90
-89
-90
-89
-89
-90
-90
-91
-91
-91
-90
-91
-92
-92
-93
-92
-91
-91
-93
-93
-94
-94
-93
-93
-93
-94
-94
-95
-95
-94
-95
-94
-95
-95
-95
-96
-95
-95
-95
-95
-95
-95
-94
-94
-94
-94
-95
-94
-94
-93
-93
-94
-94
-94
-94
-94
-94
-93
-94
-95
-95
-94
-94
-93
-94
-95
-95
-96
-95
-95
-94
-95
-96
-96
-96
-96
-95
-95
-95
-96
-97
-96
-96
-95
-95
-97
-97
-97
-96
-96
-96
-96
-97
-97
-97
-96
-96
-97
-97
-97
-97
-96
-96
-95
-95
-96
-95
-96
-95
-95
-94
-94
-95
-95
-95
-94
-94
-93
-94
-94
-94
-94
-93
-92
-92
-92
-94
-93
-93
-92
-91
-92
-92
-92
-92
-91
-90
-90
-90
-90
-91
-89
-88
-88
-88
-89
-89
-88
-89
-87
-88
-88
-89
-90
-90
-90
-89
-90
-91
-91
-92
-91
-91
-90
-90
-92
-92
-92
-91
-90
-91
-91
-91
-92
-92
-91
-91
-91
-92
-91
-92
-92
-91
-90
-91
-91
-92
-93
-91
-91
-92
-92
-92
-92
-92
-92
-91
-91
-91
-90
-91
-90
-89
-89
-89
-89
-90
-90
-89
-89
-89
-90
-90
-90
-90
-89
-89
-89
-89
-90
-90
-90
-89
-89
-89
-90
-91
-90
-89
-89
-89
-90
-90
-91
-91
-90
-90
-90
-91
-92
-92
-92
-92
-91
-91
-91
-92
-92
-92
-91
-91
-92
-92
-92
-92
-91
-91
-90
-91
-91
-91
-91
-90
-90
-90
-90
-91
-91
-91
-90
-90
-90
-91
-92
-92
-92
-91
-91
-92
-92
-93
-93
-92
-92
-92
-93
-94
-94
-95
-95
-94
-95
-96
-96
-96
-96
-96
-96
-97
-98
-97
-97
-97
-97
-97
-98
-99
-99
-99
-98
-99
-99
-100
-100
-100
-99
-99
-99
-99
-100
-100
-100
-99
-99
-99
-99
-100
-100
-100
-99
-98
-99
-100
-100
-100
-99
-99
-100
-100
-101
-100
-100
-99
-99
-98
-99
-100
-100
-99
-98
-97
-98
-98
-98
-97
-97
-96
-96
-95
-96
-96
-96
-94
-94
-94
-94
-95
-95
-94
-94
-95
-96
-96
-96
-97
-96
-96
-96
-96
-97
-97
-97
-97
-96
-97
-97
-97
-96
-95
-94
-93
-94
-93
-93
-92
-91
-90
-89
-89
-90
-89
-88
-87
-86
-86
-87
-87
-87
-86
-86
-86
-87
-88
-89
-89
-88
-88
-89
-89
-90
-91
-91
-91
-90
-91
-92
-93
-93
-92
-91
-92
-92
-92
-92
-91
-90
-90
-90
-89
-89
-89
-88
-87
-87
-87
-87
-88
-88
-88
-88
-89
-89
-90
-91
-91
-92
-92
-93
-93
-95
-96
-95
-95
-95
-95
-95
-96
-95
-95
-93
-93
-92
-93
-92
-92
-91
-90
-90
-89
-89
-89
-89
-88
-87
-87
-88
-89
-89
-89
-88
-88
-88
-90
-90
-90
-89
-89
-89
-90
-90
-91
-91
-90
-90
-91
-91
-92
-92
-92
-92
-92
-93
-93
-93
-94
-93
-93
-93
-94
-94
-94
-93
-93
-93
-93
-94
-94
-94
-93
-93
-93
-93
-92
-93
-93
-92
-92
-92
-92
-92
-93
-91
-91
-91
-90
-91
-91
-91
-91
-90
-90
-91
-91
-91
-91
-91
-90
-90
-90
-91
-91
-90
-89
-88
-87
-88
-87
-85
-83
-81
-78
-77
-75
-73
-70
-66
-63
-60
-57
-55
-52
-47
-44
-39
-36
-34
-31
-28
-25
-21
-19
-17
-15
-14
-13
-11
-11
-12
-13
-17
-20
-22
-26
-32
-39
-48
-58
-69
-82
-94
-109
-125
-142
-158
-175
-190
-206
-221
-237
-253
-266
-277
-288
-297
-304
-310
-315
-317
-316
-314
-310
-305
-298
-290
-281
-271
-259
-248
-237
-226
-214
-202
-190
-178
-167
-156
-147
-138
-130
-121
-114
-107
-102
-96
-92
-87
-82
-80
-78
-76
-74
-72
-69
-68
-67
-67
-67
-68
-67
-66
-67
-68
-69
-70
-70
-71
-70
-72
-72
-73
-73
-74
-73
-74
-74
-75
-75
-75
-75
-74
-73
-73
-73
-74
-73
-72
-71
-71
-70
-71
-70
-70
-69
-69
-69
-69
-69
-70
-69
-69
-69
-70
-70
-71
-71
-71
-70
-70
-71
-71
-71
-71
-71
-69
-69
-70
-70
-70
-70
-69
-68
-68
-68
-69
-68
-67
-67
-67
-67
-68
-67
-67
-66
-66
-65
-66
-66
-66
-66
-65
-65
-65
-65
-65
-66
-65
-64
-65
-64
-65
-64
-64
-64
-63
-63
-63
-64
-64
-63
-62
-62
-62
-62
-62
-62
-61
-60
-60
-61
-61
-61
-60
-59
-59
-59
-60
-60
-60
-60
-60
-59
-59
-60
-59
-59
-58
-58
-58
-57
-58
-58
-56
-56
-55
-55
-55
-55
-55
-54
-53
-54
-54
-54
-55
-54
-54
-53
-53
-53
-53
-53
-53
-52
-52
-51
-51
-51
-50
-49
-49
-47
-48
-48
-48
-47
-46
-45
-44
-44
-45
-44
-43
-43
-42
-42
-43
-44
-43
-42
-42
-42
-42
-43
-42
-42
-41
-41
-40
-40
-40
-40
-38
-37
-37
-36
-36
-35
-35
-34
-33
-32
-32
-32
-31
-32
-31
-29
-29
-29
-29
-28
-28
-26
-26
-26
-26
-27
-26
-25
-24
-24
-23
-24
-23
-23
-22
-20
-20
-20
-20
-19
-19
-17
-18
-17
-17
-17
-17
-16
-15
-15
-16
-16
-17
-17
-16
-16
-16
-17
-18
-18
-18
-18
-18
-18
-19
-20
-20
-20
-20
-21
-21
-21
-23
-23
-22
-22
-23
-24
-25
-25
-26
-26
-26
-28
-29
-30
-31
-32
-33
-34
-36
-38
-39
-40
-41
-42
-44
-45
-47
-48
-48
-49
-50
-51
-52
-54
-55
-55
-56
-57
-58
-59
-61
-62
-62
-63
-64
-66
-67
-68
-69
-69
-69
-70
-70
-72
-72
-72
-72
-73
-73
-74
-75
-75
-75
-74
-74
-75
-76
-76
-76
-75
-75
-75
-76
-76
-76
-77
-76
-76
-77
-77
-78
-78
-77
-77
-77
-78
-78
-79
-78
-77
-77
-78
-78
-79
-79
-78
-78
-78
-78
-78
-78
-79
-78
-77
-79
-79
-79
-79
-79
-79
-78
-79
-80
-80
-80
-80
-80
-80
-81
-81
-82
-82
-82
-81
-82
-82
-83
-83
-83
-82
-83
-82
-83
-84
-84
-84
-83
-83
-83
-84
-84
-84
-84
-84
-84
-84
-85
-84
-84
-82
-83
-82
-83
-82
-82
-82
-81
-81
-81
-82
-81
-82
-81
-81
-81
-80
-81
-81
-81
-80
-80
-80
-81
-81
-82
-81
-81
-81
-82
-82
-82
-82
-82
-82
-81
-82
-82
-82
-82
-81
-81
-80
-81
-81
-81
-80
-80
-80
-81
-81
-81
-80
-81
-81
-81
-82
-82
-82
-81
-82
-80
-81
-82
-83
-83
-82
-82
-82
-82
-82
-83
-83
-82
-82
-81
-83
-82
-82
-82
-81
-81
-82
-83
-82
-83
-81
-81
-82
-82
-83
-83
-82
-82
-82
-81
-82
-82
-82
-82
-81
-80
-81
-82
-82
-82
-82
-81
-81
-81
-82
-83
-82
-82
-81
-82
-82
-82
-81
-81
-80
-80
-81
-80
-80
-81
-80
-80
-80
-81
-81
-81
-82
-82
-82
-82
-83
-83
-84
-84
-83
-83
-83
-84
-85
-84
-84
-83
-83
-84
-84
-84
-84
-84
-83
-83
-83
-83
-83
-83
-83
-82
-82
-83
-83
-83
-82
-82
-81
-82
-83
-82
-82
-81
-81
-81
-82
-82
-83
-82
-81
-81
-82
-82
-83
-84
-83
-83
-83
-83
-84
-85
-84
-83
-83
-83
-83
-83
-83
-82
-81
-81
-81
-81
-81
-81
-80
-79
-79
-80
-80
-79
-80
-79
-79
-80
-80
-81
-80
-81
-80
-80
-81
-82
-82
-83
-82
-82
-82
-83
-83
-83
-84
-84
-83
-83
-84
-84
-84
-84
-83
-83
-83
-84
-83
-83
-82
-81
-81
-82
-82
-83
-82
-82
-81
-82
-82
-82
-82
-82
-82
-81
-82
-83
-84
-85
-84
-84
-83
-85
-85
-85
-85
-85
-84
-84
-85
-85
-85
-85
-84
-83
-84
-83
-85
-84
-83
-83
-83
-84
-84
-84
-84
-84
-83
-84
-85
-85
-85
-84
-83
-83
-84
-84
-85
-84
-84
-84
-84
-84
-85
-85
-84
-85
-84
-85
-85
-86
-86
-85
-85
-84
-85
-86
-86
-87
-86
-86
-86
-87
-87
-87
-87
-87
-86
-87
-86
-88
-87
-87
-86
-86
-86
-87
-87
-87
-86
-86
-86
-87
-87
-87
-87
-86
-86
-85
-86
-85
-85
-85
-84
-83
-83
-82
-83
-83
-81
-80
-80
-80
-80
-80
-80
-80
-80
-80
-81
-82
-82
-83
-82
-83
-85
-85
-87
-87
-88
-88
-90
-90
-92
-92
-93
-93
-93
-92
-93
-94
-94
-93
-91
-91
-91
-91
-91
-90
-88
-88
-88
-87
-88
-87
-86
-85
-85
-85
-85
-85
-85
-84
-84
-84
-84
-85
-85
-86
-85
-85
-85
-85
-86
-87
-86
-85
-85
-86
-86
-86
-86
-85
-84
-84
-84
-85
-85
-85
-84
-84
-83
-85
-86
-85
-86
-86
-86
-86
-87
-87
-87
-87
-87
-87
-87
-88
-89
-89
-88
-88
-87
-88
-88
-89
-88
-87
-87
-86
-87
-87
-87
-86
-85
-84
-85
-86
-86
-85
-85
-85
-85
-85
-86
-86
-86
-85
-84
-85
-85
-85
-85
-85
-84
-83
-84
-84
-84
-84
-82
-82
-81
-82
-82
-82
-82
-81
-81
-82
-83
-83
-84
-83
-83
-84
-85
-86
-87
-88
-89
-89
-90
-91
-93
-93
-94
-93
-93
-93
-93
-95
-94
-94
-93
-93
-92
-93
-93
-92
-91
-90
-90
-90
-90
-90
-89
-88
-88
-88
-89
-90
-89
-90
-89
-90
-90
-91
-92
-92
-92
-92
-94
-95
-95
-96
-95
-95
-95
-96
-96
-96
-96
-95
-93
-93
-92
-93
-92
-91
-91
-90
-89
-89
-89
-89
-89
-88
-88
-88
-88
-89
-89
-88
-88
-88
-89
-90
-90
-90
-90
-90
-89
-90
-90
-90
-91
-90
-89
-89
-90
-91
-90
-90
-89
-89
-89
-89
-89
-89
-89
-88
-89
-89
-89
-90
-89
-88
-88
-89
-90
-90
-91
-90
-90
-90
-91
-91
-92
-91
-91
-91
-91
-92
-91
-92
-91
-91
-90
-90
-90
-90
-90
-88
-88
-87
-88
-87
-88
-88
-87
-86
-87
-87
-87
-86
-86
-85
-83
-83
-83
-82
-80
-79
-77
-75
-73
-71
-69
-66
-64
-61
-58
-56
-53
-51
-48
-45
-42
-40
-38
-35
-33
-32
-30
-28
-28
-27
-27
-28
-28
-31
-33
-37
-42
-47
-54
-61
-68
-79
-90
-102
-115
-128
-141
-157
-171
-187
-202
-217
-230
-242
-254
-267
-277
-287
-294
-299
-303
-305
-306
-305
-302
-297
-291
-283
-275
-266
-256
-246
-235
-223
-211
-201
-191
-180
-169
-158
-148
-139
-131
-122
-115
-108
-101
-96
-91
-87
-83
-80
-76
-73
-72
-70
-70
-69
-68
-68
-66
-67
-68
-69
-70
-69
-70
-71
-72
-73
-75
-75
-75
-76
-77
-78
-77
-78
-78
-78
-77
-77
-77
-78
-77
-77
-75
-74
-75
-75
-75
-75
-73
-73
-73
-73
-73
-73
-73
-73
-72
-72
-74
-73
-73
-73
-72
-72
-72
-73
-74
-73
-72
-72
-72
-72
-73
-72
-72
-72
-71
-71
-72
-72
-71
-72
-70
-71
-71
-71
-72
-72
-72
-73
-73
-73
-74
-74
-73
-74
-73
-73
-73
-74
-73
-72
-71
-70
-70
-71
-70
-69
-69
-68
-68
-68
-68
-68
-67
-66
-65
-66
-65
-65
-66
-65
-64
-63
-64
-64
-65
-64
-63
-63
-64
-64
-64
-64
-64
-64
-64
-65
-66
-67
-66
-66
-65
-66
-66
-67
-67
-67
-67
-66
-66
-67
-68
-67
-66
-65
-65
-65
-65
-65
-64
-64
-62
-62
-62
-62
-62
-61
-59
-59
-59
-59
-59
-59
-58
-57
-58
-57
-58
-59
-58
-58
-57
-56
-57
-58
-58
-58
-57
-56
-57
-57
-57
-57
-57
-56
-55
-55
-55
-55
-55
-54
-53
-52
-53
-53
-52
-52
-51
-49
-49
-49
-49
-48
-47
-46
-45
-45
-46
-46
-45
-44
-43
-42
-42
-43
-42
-42
-41
-41
-41
-42
-41
-41
-40
-39
-39
-38
-40
-39
-39
-38
-37
-36
-36
-36
-36
-35
-34
-34
-34
-34
-34
-34
-33
-32
-31
-31
-32
-31
-30
-30
-28
-28
-28
-29
-29
-28
-27
-28
-28
-28
-29
-29
-29
-29
-29
-30
-31
-32
-32
-32
-33
-33
-34
-35
-37
-37
-37
-38
-38
-40
-41
-42
-42
-42
-43
-44
-46
-46
-47
-47
-48
-49
-50
-51
-52
-52
-52
-53
-54
-56
-57
-57
-58
-59
-59
-60
-62
-63
-63
-63
-64
-65
-66
-68
-69
-69
-69
-70
-71
-73
-74
-75
-76
-76
-77
-79
-80
-81
-82
-81
-81
-82
-83
-84
-85
-86
-86
-85
-86
-87
-88
-87
-87
-87
-87
-87
-88
-88
-87
-87
-86
-86
-86
-86
-86
-86
-86
-85
-85
-86
-86
-86
-86
-86
-86
-87
-88
-89
-88
-88
-88
-89
-89
-91
-92
-91
-91
-90
-91
-92
-93
-92
-92
-92
-92
-93
-93
-93
-93
-93
-92
-92
-92
-93
-93
-92
-91
-91
-92
-92
-92
-92
-92
-91
-92
-92
-93
-93
-92
-93
-92
-92
-92
-92
-93
-92
-92
-92
-92
-92
-93
-93
-93
-92
-92
-93
-94
-93
-92
-93
-92
-92
-93
-93
-94
-92
-93
-92
-92
-92
-92
-92
-91
-91
-90
-91
-91
-91
-91
-90
-89
-89
-89
-90
-91
-90
-89
-89
-89
-89
-91
-91
-90
-89
-89
-90
-90
-90
-90
-90
-88
-89
-89
-89
-90
-90
-89
-88
-89
-89
-89
-90
-89
-89
-88
-89
-90
-90
-90
-89
-89
-89
-90
-90
-90
-90
-90
-90
-90
-90
-90
-90
-90
-89
-88
-89
-90
-89
-88
-88
-87
-87
-88
-87
-88
-87
-87
-86
-86
-87
-87
-87
-86
-86
-85
-86
-86
-87
-86
-86
-85
-86
-87
-88
-88
-88
-88
-88
-89
-89
-90
-90
-89
-89
-90
-89
-90
-90
-90
-89
-88
-88
-88
-89
-90
-89
-88
-88
-89
-89
-89
-89
-89
-89
-88
-88
-89
-89
-89
-88
-88
-87
-88
-88
-89
-88
-87
-86
-87
-87
-88
-87
-87
-87
-87
-87
-88
-89
-89
-89
-88
-88
-89
-90
-91
-91
-90
-91
-91
-92
-92
-93
-93
-92
-92
-92
-92
-93
-92
-91
-91
-91
-91
-92
-92
-91
-91
-91
-91
-91
-92
-92
-92
-91
-91
-92
-93
-94
-93
-92
-92
-92
-92
-93
-94
-94
-93
-93
-93
-94
-94
-94
-94
-93
-93
-94
-94
-94
-94
-94
-93
-93
-93
-95
-95
-95
-94
-94
-94
-95
-95
-95
-95
-94
-94
-94
-95
-95
-95
-94
-94
-94
-94
-95
-95
-95
-95
-95
-95
-95
-96
-96
-96
-95
-96
-95
-96
-96
-95
-95
-94
-94
-95
-94
-94
-94
-93
-92
-93
-93
-93
-93
-92
-91
-91
-91
-92
-92
-91
-91
-90
-90
-91
-91
-92
-92
-91
-92
-91
-92
-93
-94
-93
-93
-93
-93
-94
-94
-93
-92
-92
-92
-93
-93
-93
-93
-92
-91
-91
-92
-92
-92
-92
-92
-91
-92
-93
-93
-93
-93
-93
-93
-94
-95
-95
-95
-95
-95
-96
-96
-97
-97
-97
-96
-96
-97
-98
-97
-97
-96
-96
-96
-96
-96
-97
-95
-96
-95
-95
-95
-96
-95
-94
-93
-93
-93
-93
-93
-93
-92
-91
-90
-91
-91
-91
-90
-89
-90
-89
-90
-90
-90
-90
-90
-89
-90
-91
-90
-90
-90
-89
-90
-90
-91
-90
-90
-89
-90
-90
-91
-91
-91
-90
-90
-90
-91
-91
-92
-91
-91
-90
-90
-91
-91
-91
-91
-90
-90
-90
-91
-91
-91
-91
-89
-90
-89
-90
-89
-89
-89
-88
-88
-89
-90
-89
-89
-88
-89
-89
-89
-91
-91
-91
-90
-90
-91
-91
-92
-92
-91
-91
-91
-91
-91
-91
-91
-89
-90
-89
-90
-90
-90
-90
-89
-89
-89
-89
-90
-90
-89
-88
-89
-89
-90
-91
-90
-91
-90
-91
-91
-92
-92
-91
-91
-91
-91
-92
-91
-91
-91
-89
-89
-90
-89
-89
-89
-88
-87
-86
-87
-86
-86
-86
-84
-84
-84
-85
-85
-84
-84
-83
-83
-84
-85
-85
-85
-85
-86
-86
-87
-88
-88
-88
-88
-88
-89
-90
-90
-89
-90
-89
-89
-90
-91
-91
-90
-90
-90
-91
-91
-92
-92
-92
-92
-91
-92
-93
-94
-93
-93
-93
-93
-94
-95
-94
-94
-95
-95
-95
-96
-97
-97
-96
-96
-96
-96
-97
-98
-97
-96
-96
-96
-96
-97
-96
-95
-95
-94
-94
-94
-95
-94
-93
-93
-92
-92
-92
-92
-92
-91
-90
-90
-91
-92
-91
-91
-90
-90
-90
-91
-91
-91
-91
-90
-90
-90
-90
-91
-90
-90
-90
-90
-90
-90
-90
-90
-90
-90
-90
-91
-91
-91
-91
-91
-91
-91
-92
-93
-92
-91
-90
-90
-92
-92
-92
-92
-91
-91
-92
-92
-92
-92
-91
-91
-90
-91
-91
-91
-91
-90
-90
-90
-90
-91
-91
-91
-89
-90
-89
-90
-91
-90
-89
-87
-86
-85
-84
-83
-82
-80
-77
-76
-74
-72
-70
-66
-64
-60
-58
-55
-53
-49
-46
-42
-39
-37
-34
-31
-28
-26
-23
-21
-19
-18
-18
-16
-16
-16
-18
-19
-22
-26
-30
-35
-42
-50
-62
-73
-85
-98
-112
-127
-143
-160
-177
-192
-207
-223
-239
-253
-267
-279
-289
-297
-305
-311
-315
-318
-316
-314
-310
-304
-299
-291
-281
-271
-261
-250
-239
-228
-218
-206
-195
-182
-171
-161
-152
-143
-134
-126
-119
-112
-107
-102
-97
-92
-88
-84
-81
-79
-78
-77
-74
-73
-73
-72
-72
-72
-72
-72
-71
-71
-72
-74
-74
-73
-73
-73
-74
-75
-76
-76
-75
-75
-75
-75
-76
-76
-76
-75
-75
-75
-75
-76
-76
-75
-74
-74
-74
-74
-74
-74
-73
-72
-72
-72
-72
-72
-72
-71
-71
-70
-70
-71
-70
-70
-69
-69
-69
-70
-70
-70
-69
-69
-68
-69
-68
-68
-68
-68
-66
-66
-67
-67
-67
-67
-66
-65
-65
-65
-65
-65
-64
-64
-63
-64
-64
-63
-63
-62
-61
-61
-63
-62
-63
-61
-61
-61
-61
-61
-62
-62
-60
-60
-59
-60
-60
-60
-59
-59
-57
-57
-57
-57
-56
-56
-55
-55
-55
-55
-55
-55
-55
-54
-54
-55
-55
-55
-55
-55
-55
-55
-56
-57
-57
-56
-56
-55
-56
-56
-56
-56
-55
-55
-54
-54
-54
-54
-53
-52
-52
-51
-51
-52
-52
-50
-50
-49
-49
-49
-49
-49
-49
-48
-47
-47
-47
-47
-46
-45
-44
-44
-44
-44
-44
-43
-41
-40
-41
-41
-41
-40
-39
-38
-38
-38
-37
-37
-36
-35
-34
-34
-34
-34
-34
-33
-31
-31
-31
-31
-30
-29
-29
-28
-28
-28
-27
-26
-26
-24
-24
-22
-22
-22
-22
-20
-19
-18
-18
-18
-17
-16
-15
-14
-13
-13
-13
-13
-11
-9
-9
-8
-7
-7
-7
-6
-5
-4
-5
-5
-5
-6
-5
-4
-4
-5
-5
-6
-6
-6
-5
-7
-7
-8
-8
-8
-8
-7
-8
-8
-9
-9
-8
-7
-8
-8
-9
-9
-9
-8
-9
-9
-10
-11
-11
-11
-11
-12
-13
-14
-15
-16
-15
-16
-17
-18
-19
-20
-21
-21
-21
-23
-22
-24
-25
-25
-26
-27
-28
-30
-32
-33
-34
-35
-36
-38
-40
-42
-42
-43
-44
-45
-47
-49
-50
-51
-51
-53
-54
-56
-57
-57
-59
-59
-60
-61
-61
-62
-62
-62
-63
-63
-64
-65
-65
-65
-65
-65
-67
-67
-68
-68
-68
-68
-68
-69
-70
-70
-71
-70
-70
-71
-73
-74
-74
-74
-74
-74
-75
-77
-77
-78
-77
-77
-78
-79
-79
-80
-79
-79
-79
-79
-80
-81
-80
-80
-80
-79
-80
-80
-79
-79
-78
-78
-78
-78
-78
-78
-78
-77
-77
-77
-78
-78
-78
-79
-78
-78
-79
-80
-81
-81
-81
-80
-81
-82
-83
-83
-82
-81
-81
-80
-81
-81
-81
-80
-80
-80
-80
-81
-81
-80
-80
-78
-78
-79
-79
-79
-79
-78
-78
-78
-79
-79
-79
-78
-78
-78
-77
-79
-78
-78
-78
-77
-77
-78
-78
-78
-78
-77
-77
-76
-77
-78
-78
-77
-76
-76
-76
-78
-78
-78
-76
-76
-76
-76
-76
-76
-75
-75
-75
-74
-75
-75
-76
-75
-75
-74
-75
-75
-76
-76
-76
-75
-75
-76
-76
-76
-76
-76
-76
-75
-75
-77
-77
-76
-76
-76
-76
-76
-77
-77
-77
-76
-76
-76
-77
-77
-76
-75
-75
-76
-76
-77
-76
-75
-75
-75
-74
-75
-75
-74
-74
-72
-73
-73
-74
-74
-74
-73
-73
-74
-74
-75
-75
-75
-74
-75
-75
-76
-77
-76
-76
-77
-77
-77
-78
-78
-77
-77
-77
-77
-77
-77
-77
-76
-76
-75
-75
-75
-75
-75
-74
-74
-73
-73
-74
-73
-73
-72
-72
-72
-72
-73
-73
-73
-72
-72
-73
-73
-73
-73
-73
-72
-72
-73
-75
-74
-74
-74
-74
-74
-75
-75
-75
-75
-75
-74
-75
-76
-77
-76
-75
-75
-74
-76
-75
-75
-75
-73
-73
-72
-73
-72
-73
-71
-71
-70
-70
-71
-71
-71
-70
-70
-71
-72
-72
-73
-73
-72
-73
-74
-75
-76
-76
-77
-76
-77
-78
-80
-79
-80
-79
-80
-80
-80
-80
-80
-80
-79
-78
-78
-78
-79
-79
-78
-78
-76
-77
-77
-77
-77
-76
-76
-75
-76
-77
-77
-76
-76
-75
-76
-77
-77
-78
-77
-77
-76
-77
-77
-78
-78
-78
-77
-78
-79
-79
-80
-78
-79
-78
-78
-79
-79
-79
-79
-78
-78
-78
-79
-78
-79
-77
-77
-77
-77
-78
-77
-76
-76
-75
-75
-76
-75
-75
-74
-74
-73
-74
-75
-75
-74
-74
-73
-73
-73
-73
-74
-73
-73
-72
-72
-73
-73
-73
-74
-73
-73
-73
-74
-75
-74
-75
-75
-75
-76
-76
-76
-77
-77
-76
-76
-77
-78
-78
-79
-77
-78
-78
-78
-78
-78
-77
-77
-77
-77
-78
-77
-76
-75
-75
-74
-76
-76
-76
-75
-75
-74
-76
-76
-76
-77
-76
-76
-76
-77
-77
-77
-77
-77
-76
-76
-76
-77
-77
-76
-75
-75
-76
-77
-77
-76
-76
-75
-76
-75
-76
-76
-75
-75
-74
-73
-74
-75
-75
-74
-74
-74
-74
-74
-75
-74
-73
-73
-73
-74
-74
-74
-74
-73
-73
-73
-74
-75
-74
-74
-73
-73
-73
-73
-74
-73
-73
-72
-72
-73
-73
-73
-73
-72
-72
-72
-73
-73
-73
-73
-73
-73
-73
-75
-75
-75
-74
-74
-75
-75
-76
-76
-76
-75
-75
-75
-76
-76
-76
-76
-75
-75
-77
-76
-77
-77
-76
-76
-76
-77
-78
-78
-77
-77
-77
-77
-78
-78
-78
-77
-77
-78
-78
-78
-78
-78
-76
-75
-75
-76
-76
-76
-75
-74
-74
-74
-75
-75
-74
-74
-74
-74
-74
-76
-76
-75
-75
-74
-75
-75
-75
-75
-75
-74
-74
-73
-74
-74
-74
-73
-73
-72
-73
-73
-73
-73
-72
-72
-71
-72
-73
-72
-72
-72
-72
-72
-73
-73
-74
-74
-74
-74
-75
-77
-76
-77
-77
-76
-77
-77
-78
-79
-77
-77
-77
-76
-76
-77
-76
-75
-75
-75
-74
-75
-74
-74
-73
-73
-73
-74
-74
-74
-74
-74
-74
-75
-77
-78
-78
-78
-78
-80
-80
-81
-83
-82
-83
-82
-81
-82
-82
-82
-81
-80
-80
-79
-80
-79
-79
-78
-77
-77
-77
-77
-78
-78
-77
-76
-76
-77
-78
-78
-77
-76
-76
-76
-77
-78
-78
-78
-77
-76
-77
-77
-78
-78
-77
-77
-77
-78
-78
-78
-78
-77
-77
-78
-79
-79
-79
-78
-78
-79
-79
-80
-80
-80
-79
-78
-78
-79
-80
-79
-78
-78
-77
-78
-78
-79
-79
-78
-77
-76
-78
-77
-78
-78
-77
-76
-76
-78
-78
-78
-78
-77
-77
-78
-79
-79
-79
-79
-79
-78
-78
-78
-78
-77
-76
-74
-73
-72
-70
-68
-65
-61
-58
-56
-54
-50
-46
-43
-39
-36
-33
-30
-26
-22
-18
-14
-11
-8
-6
-3
0
3
5
6
7
6
7
6
4
2
-2
-8
-15
-21
-29
-39
-51
-64
-80
-96
-111
-127
-143
-161
-179
-197
-213
-228
-243
-257
-270
-281
-291
-298
-304
-307
-309
-308
-307
-303
-296
-288
-280
-271
-261
-250
-239
-227
-215
-203
-191
-180
-168
-158
-147
-137
-127
-119
-111
-104
-96
-89
-83
-78
-74
-71
-67
-64
-61
-58
-57
-56
-55
-54
-53
-52
-52
-52
-53
-54
-54
-53
-54
-54
-55
-56
-57
-57
-56
-56
-57
-57
-57
-57
-57
-56
-56
-57
-57
-57
-56
-56
-55
-55
-55
-56
-55
-54
-54
-53
-54
-54
-53
-53
-52
-52
-52
-52
-52
-51
-51
-50
-49
-49
-48
-49
-49
-48
-48
-48
-48
-48
-49
-48
-47
-47
-47
-47
-48
-48
-47
-46
-45
-46
-46
-46
-46
-45
-44
-45
-45
-45
-45
-45
-45
-43
-44
-45
-45
-44
-44
-44
-43
-42
-43
-43
-43
-42
-42
-42
-42
-42
-42
-41
-41
-40
-40
-40
-40
-40
-40
-39
-38
-39
-39
-40
-39
-38
-39
-38
-38
-38
-38
-37
-38
-37
-37
-37
-36
-36
-36
-35
-34
-34
-33
-33
-33
-32
-31
-31
-31
-32
-32
-31
-32
-30
-31
-31
-32
-32
-32
-31
-31
-31
-31
-31
-32
-31
-30
-30
-30
-30
-30
-29
-28
-28
-27
-27
-27
-26
-25
-24
-23
-22
-23
-22
-22
-21
-20
-19
-19
-19
-19
-18
-17
-16
-16
-17
-17
-16
-15
-14
-14
-13
-15
-14
-14
-13
-12
-11
-11
-11
-11
-10
-9
-8
-8
-8
-8
-8
-7
-5
-4
-4
-4
-3
-3
-2
0
1
1
1
1
2
3
4
5
5
5
5
7
8
9
10
9
9
9
10
11
11
11
11
11
11
11
13
12
12
12
12
13
13
14
15
14
14
14
15
15
15
15
14
14
15
15
14
14
13
12
12
11
11
11
10
8
7
7
6
6
5
2
1
0
-1
-1
-3
-4
-6
-7
-8
-9
-10
-11
-13
-14
-16
-17
-18
-18
-19
-21
-22
-24
-24
-24
-25
-26
-27
-28
-29
-30
-30
-31
-33
-34
-36
-36
-37
-38
-39
-40
-43
-43
-44
-45
-46
-47
-49
-50
-51
-52
-52
-52
-54
-55
-56
-57
-57
-57
-57
-58
-59
-60
-59
-59
-59
-59
-60
-60
-60
-59
-59
-59
-59
-60
-60
-60
-60
-59
-60
-61
-62
-62
-63
-62
-63
-63
-64
-64
-65
-65
-66
-66
-67
-68
-68
-68
-69
-69
-69
-69
-70
-70
-69
-69
-69
-69
-70
-70
-69
-68
-67
-67
-67
-67
-67
-67
-67
-66
-65
-66
-66
-67
-66
-65
-65
-66
-65
-66
-66
-66
-66
-66
-66
-67
-67
-67
-67
-66
-66
-68
-68
-68
-67
-67
-67
-67
-67
-67
-68
-67
-66
-65
-66
-67
-67
-66
-66
-66
-66
-66
-66
-67
-66
-65
-65
-66
-67
-67
-66
-66
-65
-65
-66
-66
-67
-66
-66
-65
-65
-66
-67
-66
-66
-65
-64
-65
-66
-66
-65
-64
-64
-63
-63
-64
-64
-65
-63
-63
-62
-63
-63
-64
-63
-63
-62
-63
-64
-64
-64
-63
-63
-62
-63
-64
-64
-64
-65
-64
-65
-66
-66
-66
-66
-66
-66
-65
-67
-67
-66
-66
-65
-64
-64
-65
-65
-64
-62
-61
-61
-61
-61
-61
-60
-59
-59
-59
-60
-60
-61
-59
-60
-60
-60
-62
-62
-63
-62
-63
-63
-64
-65
-65
-65
-65
-65
-66
-67
-67
-68
-67
-66
-66
-67
-67
-68
-67
-66
-65
-65
-66
-66
-66
-65
-64
-63
-64
-63
-63
-63
-62
-61
-61
-61
-62
-62
-62
-61
-61
-61
-61
-62
-62
-62
-61
-62
-62
-63
-63
-64
-63
-63
-63
-64
-65
-65
-66
-65
-64
-65
-66
-66
-66
-66
-66
-65
-66
-67
-67
-67
-65
-65
-65
-65
-66
-66
-65
-65
-65
-65
-65
-66
-66
-65
-65
-65
-66
-67
-66
-67
-66
-66
-65
-66
-67
-68
-67
-67
-67
-67
-68
-68
-68
-67
-67
-66
-67
-68
-68
-67
-66
-65
-65
-65
-66
-65
-65
-64
-63
-62
-63
-64
-65
-64
-63
-64
-64
-65
-65
-66
-65
-65
-65
-66
-67
-68
-68
-67
-68
-69
-70
-70
-71
-70
-70
-70
-70
-70
-70
-69
-69
-68
-68
-67
-68
-68
-67
-66
-65
-65
-65
-66
-66
-64
-64
-63
-63
-64
-64
-63
-63
-62
-62
-62
-63
-64
-63
-63
-62
-62
-63
-64
-64
-63
-62
-62
-62
-64
-64
-64
-63
-63
-62
-63
-64
-65
-64
-63
-63
-63
-64
-64
-64
-63
-62
-62
-62
-63
-63
-62
-61
-61
-61
-60
-61
-61
-61
-59
-60
-60
-61
-61
-60
-61
-60
-61
-61
-61
-62
-61
-61
-61
-60
-61
-61
-62
-62
-61
-60
-61
-62
-62
-63
-62
-61
-61
-61
-62
-62
-62
-61
-61
-61
-61
-62
-62
-62
-61
-61
-62
-62
-62
-63
-63
-62
-62
-62
-63
-64
-64
-63
-63
-63
-63
-64
-64
-64
-63
-63
-64
-64
-65
-65
-64
-64
-64
-65
-65
-65
-66
-65
-65
-65
-65
-66
-66
-67
-65
-65
-66
-66
-67
-68
-67
-65
-66
-66
-67
-67
-67
-66
-66
-65
-66
-65
-66
-65
-65
-65
-64
-65
-65
-66
-65
-64
-65
-65
-66
-67
-66
-65
-65
-65
-66
-65
-66
-66
-65
-65
-65
-66
-66
-66
-66
-66
-65
-65
-66
-66
-66
-66
-66
-66
-66
-67
-67
-66
-66
-66
-67
-67
-67
-67
-67
-66
-66
-67
-66
-67
-67
-66
-64
-65
-63
-64
-64
-64
-63
-63
-63
-63
-63
-64
-63
-63
-63
-63
-63
-64
-64
-64
-63
-64
-64
-65
-65
-65
-65
-65
-65
-66
-65
-65
-65
-65
-64
-65
-65
-65
-65
-64
-63
-63
-63
-64
-64
-64
-63
-63
-64
-65
-65
-66
-65
-65
-66
-67
-68
-68
-69
-69
-69
-69
-70
-70
-71
-70
-69
-69
-69
-69
-70
-69
-68
-67
-66
-66
-66
-66
-66
-64
-64
-63
-64
-65
-64
-64
-64
-63
-64
-65
-65
-66
-66
-65
-65
-66
-67
-68
-68
-67
-67
-67
-67
-69
-69
-69
-69
-68
-69
-68
-68
-68
-68
-68
-67
-67
-67
-68
-67
-66
-64
-64
-64
-65
-64
-64
-63
-63
-62
-63
-63
-63
-63
-62
-62
-62
-63
-63
-64
-63
-62
-63
-64
-65
-66
-65
-65
-65
-66
-67
-68
-68
-68
-67
-67
-68
-68
-68
-67
-65
-64
-63
-63
-62
-60
-58
-55
-54
-51
-49
-46
-43
-40
-36
-33
-30
-28
-24
-21
-17
-12
-8
-5
-3
1
4
8
11
13
14
16
17
18
19
18
16
14
11
7
2
-4
-10
-19
-30
-43
-55
-68
-84
-100
-117
-134
-151
-168
-185
-201
-217
-233
-246
-258
-269
-278
-286
-292
-297
-299
-298
-295
-291
-285
-279
-271
-261
-250
-239
-227
-216
-204
-192
-180
-167
-156
-145
-134
-124
-116
-106
-98
-90
-83
-78
-72
-68
-63
-58
-54
-52
-49
-48
-46
-44
-41
-41
-41
-41
-41
-41
-40
-40
-40
-42
-43
-44
-44
-44
-44
-45
-47
-47
-47
-46
-46
-47
-47
-48
-48
-47
-47
-47
-46
-47
-47
-47
-46
-45
-45
-45
-45
-45
-44
-43
-42
-42
-42
-42
-43
-42
-42
-42
-42
-42
-43
-43
-43
-43
-43
-45
-45
-46
-46
-45
-44
-45
-46
-46
-46
-46
-45
-45
-45
-45
-45
-45
-45
-44
-43
-43
-44
-44
-44
-43
-42
-43
-42
-43
-44
-43
-42
-43
-43
-43
-43
-43
-43
-43
-42
-43
-43
-44
-43
-42
-41
-41
-41
-42
-41
-40
-39
-38
-39
-39
-39
-39
-38
-37
-36
-37
-38
-37
-36
-36
-36
-35
-35
-36
-36
-36
-35
-35
-34
-35
-36
-35
-34
-34
-33
-33
-34
-34
-33
-32
-33
-32
-32
-33
-33
-33
-32
-32
-32
-32
-33
-32
-31
-31
-31
-30
-30
-30
-29
-29
-29
-27
-27
-28
-27
-26
-25
-24
-24
-24
-24
-23
-23
-22
-21
-21
-22
-21
-21
-20
-19
-18
-18
-20
-19
-18
-18
-17
-16
-16
-16
-16
-15
-14
-13
-13
-13
-12
-12
-11
-9
-8
-9
-10
-9
-8
-7
-6
-6
-6
-6
-7
-5
-5
-4
-4
-5
-4
-2
-1
0
0
0
0
0
1
2
3
3
3
3
3
4
5
5
5
4
5
5
6
7
8
7
7
7
8
8
9
9
9
9
9
9
10
10
10
10
9
9
9
9
9
7
6
5
5
5
4
3
2
0
-1
-1
-2
-2
-3
-5
-6
-6
-6
-7
-7
-9
-10
-11
-11
-12
-13
-14
-16
-16
-17
-17
-18
-20
-19
-22
-23
-23
-23
-24
-25
-27
-28
-30
-30
-31
-31
-33
-33
-35
-36
-37
-38
-39
-40
-42
-43
-44
-45
-46
-47
-49
-51
-52
-52
-53
-54
-56
-58
-58
-60
-60
-60
-60
-62
-63
-63
-62
-62
-62
-62
-63
-64
-64
-63
-63
-63
-63
-63
-64
-64
-64
-63
-63
-63
-64
-65
-64
-63
-63
-63
-64
-64
-64
-64
-64
-64
-64
-66
-66
-67
-67
-66
-66
-67
-68
-68
-68
-69
-69
-69
-70
-71
-71
-71
-71
-70
-71
-72
-72
-72
-72
-72
-71
-72
-72
-73
-72
-71
-71
-71
-71
-72
-72
-71
-71
-70
-70
-71
-71
-71
-71
-71
-71
-71
-71
-72
-71
-70
-69
-69
-69
-70
-71
-69
-69
-68
-69
-69
-69
-70
-69
-69
-69
-69
-70
-70
-70
-69
-69
-69
-70
-70
-71
-71
-70
-71
-71
-72
-72
-72
-72
-71
-71
-72
-72
-72
-71
-71
-70
-70
-71
-71
-71
-70
-69
-70
-69
-70
-70
-70
-70
-69
-68
-69
-69
-69
-69
-68
-68
-69
-70
-70
-70
-69
-69
-68
-69
-70
-70
-70
-70
-70
-69
-70
-70
-71
-70
-69
-69
-69
-70
-70
-70
-70
-69
-69
-69
-70
-70
-70
-70
-70
-69
-70
-70
-71
-70
-70
-69
-69
-69
-70
-70
-69
-68
-68
-69
-69
-70
-68
-68
-68
-68
-67
-68
-68
-68
-68
-67
-68
-69
-69
-69
-69
-69
-69
-69
-69
-71
-71
-70
-70
-69
-70
-70
-70
-69
-69
-68
-68
-68
-69
-69
-69
-68
-67
-67
-68
-68
-68
-67
-66
-66
-67
-67
-68
-66
-66
-66
-66
-66
-67
-67
-67
-67
-67
-68
-68
-68
-68
-68
-68
-67
-68
-69
-69
-69
-68
-68
-67
-68
-68
-69
-68
-68
-68
-68
-69
-69
-69
-69
-68
-69
-69
-69
-70
-69
-68
-69
-69
-69
-70
-69
-69
-69
-68
-70
-70
-71
-71
-70
-70
-70
-70
-71
-71
-71
-70
-70
-70
-70
-70
-70
-70
-69
-69
-69
-70
-70
-70
-69
-69
-69
-70
-69
-70
-70
-69
-68
-69
-69
-70
-71
-70
-69
-69
-70
-70
-71
-71
-70
-70
-68
-69
-70
-70
-69
-68
-68
-68
-69
-69
-69
-69
-68
-68
-69
-69
-69
-69
-69
-68
-68
-69
-70
-69
-69
-69
-69
-70
-70
-71
-70
-71
-70
-70
-70
-71
-72
-71
-72
-70
-70
-71
-72
-72
-71
-71
-71
-71
-72
-72
-73
-72
-72
-73
-73
-73
-73
-73
-72
-72
-72
-72
-73
-73
-72
-71
-71
-71
-71
-71
-71
-70
-70
-69
-70
-70
-71
-71
-71
-70
-70
-70
-71
-71
-71
-71
-70
-70
-71
-71
-72
-72
-72
-71
-72
-73
-73
-73
-73
-73
-73
-73
-74
-74
-74
-73
-73
-73
-74
-75
-74
-74
-74
-73
-73
-74
-74
-74
-74
-73
-73
-74
-74
-75
-74
-74
-73
-73
-73
-74
-74
-74
-74
-73
-73
-74
-74
-74
-73
-73
-73
-73
-73
-73
-73
-73
-72
-72
-73
-74
-74
-72
-73
-73
-73
-73
-74
-74
-74
-73
-73
-74
-75
-75
-75
-74
-73
-73
-74
-74
-74
-75
-74
-74
-74
-75
-75
-75
-74
-74
-74
-75
-76
-77
-76
-76
-75
-75
-76
-77
-76
-76
-75
-74
-75
-76
-76
-76
-76
-74
-74
-75
-75
-75
-74
-73
-73
-72
-73
-73
-73
-72
-72
-72
-72
-73
-73
-73
-73
-73
-72
-73
-74
-75
-74
-74
-75
-76
-76
-77
-77
-78
-77
-78
-79
-81
-81
-81
-81
-81
-82
-82
-83
-83
-82
-81
-81
-81
-81
-82
-81
-81
-79
-79
-79
-79
-80
-80
-79
-80
-80
-80
-80
-81
-81
-81
-81
-82
-82
-83
-84
-84
-85
-85
-85
-86
-86
-86
-85
-84
-85
-84
-84
-85
-83
-83
-82
-81
-82
-82
-82
-81
-81
-80
-81
-82
-82
-82
-82
-82
-82
-83
-83
-84
-84
-84
-83
-84
-85
-85
-85
-85
-84
-85
-85
-86
-86
-85
-85
-84
-84
-85
-85
-85
-84
-83
-83
-82
-83
-82
-82
-82
-80
-80
-80
-81
-81
-81
-80
-80
-80
-80
-82
-82
-81
-82
-82
-82
-84
-85
-85
-85
-85
-86
-86
-88
-88
-88
-87
-87
-87
-88
-88
-88
-88
-87
-87
-86
-87
-87
-87
-86
-84
-84
-83
-83
-81
-80
-78
-76
-74
-72
-71
-68
-65
-61
-57
-54
-51
-49
-45
-42
-37
-34
-31
-28
-26
-23
-21
-17
-16
-15
-14
-13
-14
-13
-14
-16
-19
-22
-27
-31
-37
-44
-53
-62
-73
-84
-95
-109
-123
-138
-154
-170
-185
-200
-214
-229
-244
-257
-269
-279
-287
-295
-302
-307
-309
-310
-308
-305
-300
-294
-288
-279
-270
-259
-248
-237
-225
-214
-203
-190
-179
-168
-158
-149
-139
-130
-122
-113
-106
-100
-94
-89
-84
-80
-76
-72
-71
-69
-67
-65
-64
-63
-64
-64
-63
-64
-64
-65
-65
-66
-69
-69
-70
-70
-71
-72
-74
-76
-76
-76
-77
-77
-77
-79
-79
-79
-78
-77
-77
-77
-77
-77
-76
-75
-74
-74
-74
-74
-74
-73
-72
-72
-72
-72
-72
-72
-71
-71
-71
-72
-71
-72
-71
-71
-70
-70
-71
-72
-71
-70
-69
-68
-68
-69
-69
-68
-68
-67
-67
-67
-68
-67
-67
-66
-65
-66
-66
-67
-67
-66
-65
-65
-65
-65
-66
-65
-65
-64
-64
-65
-65
-65
-65
-64
-63
-63
-63
-64
-65
-64
-64
-63
-64
-65
-66
-65
-65
-64
-64
-65
-65
-65
-65
-64
-63
-63
-64
-65
-64
-63
-62
-62
-62
-63
-63
-62
-62
-61
-61
-62
-63
-62
-62
-61
-61
-61
-61
-62
-62
-61
-60
-61
-61
-61
-61
-61
-60
-60
-60
-60
-59
-59
-59
-58
-57
-57
-57
-57
-57
-56
-55
-54
-54
-54
-55
-54
-53
-53
-52
-52
-52
-52
-52
-50
-50
-50
-50
-50
-50
-50
-50
-49
-49
-50
-50
-49
-48
-47
-46
-46
-46
-45
-45
-43
-43
-42
-42
-42
-42
-40
-40
-39
-39
-39
-38
-38
-36
-36
-35
-35
-35
-34
-34
-32
-32
-32
-32
-32
-31
-30
-30
-29
-29
-30
-29
-29
-28
-28
-27
-27
-28
-28
-27
-26
-25
-25
-26
-26
-26
-25
-25
-24
-26
-25
-26
-25
-25
-24
-25
-25
-25
-25
-25
-24
-24
-23
-24
-24
-24
-24
-23
-23
-23
-24
-24
-24
-23
-23
-24
-25
-25
-25
-26
-25
-26
-27
-29
-30
-31
-31
-32
-32
-34
-37
-38
-39
-39
-40
-42
-43
-45
-46
-46
-46
-48
-48
-50
-52
-52
-53
-53
-53
-55
-57
-58
-59
-59
-60
-61
-62
-64
-65
-66
-66
-67
-68
-70
-71
-72
-72
-74
-74
-76
-76
-78
-78
-79
-79
-80
-81
-82
-82
-82
-82
-81
-82
-83
-84
-84
-84
-84
-84
-85
-86
-87
-86
-86
-86
-86
-87
-87
-87
-87
-86
-86
-86
-87
-88
-88
-88
-87
-88
-88
-90
-90
-91
-90
-90
-90
-91
-91
-91
-90
-89
-89
-90
-91
-90
-90
-90
-89
-89
-90
-90
-91
-90
-90
-90
-90
-90
-91
-91
-90
-90
-89
-89
-90
-91
-91
-90
-89
-89
-90
-90
-90
-89
-89
-88
-89
-89
-90
-90
-90
-89
-89
-90
-90
-91
-91
-90
-90
-89
-91
-91
-92
-92
-92
-92
-92
-92
-92
-93
-93
-92
-92
-92
-92
-94
-93
-92
-92
-91
-91
-92
-92
-91
-91
-91
-90
-90
-91
-91
-90
-89
-88
-89
-89
-90
-90
-89
-89
-89
-89
-89
-90
-90
-89
-89
-90
-91
-91
-91
-90
-90
-90
-91
-91
-91
-91
-90
-90
-90
-90
-91
-90
-90
-89
-88
-88
-88
-89
-89
-87
-86
-86
-86
-87
-87
-88
-87
-86
-86
-87
-87
-88
-88
-87
-87
-87
-88
-89
-89
-88
-88
-87
-88
-88
-88
-88
-89
-88
-88
-88
-89
-90
-90
-90
-90
-89
-91
-91
-91
-90
-89
-89
-89
-90
-90
-90
-89
-89
-89
-89
-90
-90
-90
-90
-89
-89
-90
-90
-90
-90
-89
-89
-89
-90
-91
-91
-90
-89
-89
-91
-90
-91
-90
-90
-90
-89
-90
-90
-90
-89
-88
-88
-88
-88
-88
-88
-87
-87
-87
-87
-88
-88
-88
-88
-87
-89
-90
-90
-90
-90
-90
-91
-91
-92
-93
-93
-93
-93
-93
-93
-94
-95
-94
-94
-93
-94
-93
-94
-94
-92
-92
-91
-92
-92
-92
-92
-91
-90
-89
-91
-91
-91
-91
-91
-91
-91
-91
-91
-91
-91
-91
-91
-92
-92
-93
-93
-93
-93
-93
-93
-94
-95
-95
-93
-93
-94
-94
-95
-94
-94
-93
-94
-93
-93
-94
-93
-93
-92
-92
-93
-93
-93
-93
-92
-92
-92
-93
-93
-94
-93
-92
-92
-93
-94
-93
-94
-93
-93
-93
-94
-94
-94
-94
-93
-93
-92
-92
-92
-92
-92
-90
-90
-90
-91
-91
-91
-89
-89
-89
-89
-89
-90
-90
-90
-90
-90
-91
-91
-92
-92
-91
-91
-92
-93
-93
-93
-93
-92
-92
-93
-93
-94
-93
-92
-92
-92
-93
-93
-92
-92
-92
-92
-93
-93
-93
-94
-93
-94
-94
-94
-94
-95
-94
-94
-94
-94
-94
-95
-94
-94
-92
-93
-92
-92
-93
-92
-91
-91
-91
-91
-92
-91
-92
-91
-90
-91
-91
-92
-92
-91
-90
-91
-91
-92
-92
-92
-92
-91
-92
-92
-92
-92
-92
-92
-91
-91
-92
-92
-92
-92
-91
-91
-91
-92
-92
-92
-91
-91
-91
-92
-92
-93
-92
-91
-91
-91
-91
-91
-91
-90
-90
-90
-90
-90
-90
-90
-89
-89
-88
-88
-89
-89
-90
-89
-89
-90
-90
-91
-91
-91
-90
-91
-92
-93
-93
-93
-92
-92
-92
-93
-93
-94
-94
-94
-93
-93
-94
-94
-95
-94
-93
-94
-94
-95
-96
-96
-95
-95
-95
-95
-96
-95
-95
-94
-95
-95
-94
-95
-95
-94
-93
-92
-92
-93
-93
-93
-91
-90
-90
-91
-91
-91
-91
-89
-89
-90
-90
-89
-89
-89
-88
-88
-88
-89
-89
-89
-89
-89
-90
-91
-92
-92
-92
-92
-93
-94
-94
-95
-96
-96
-96
-96
-97
-98
-98
-98
-97
-97
-98
-98
-97
-98
-97
-96
-96
-95
-95
-96
-95
-93
-94
-93
-94
-94
-95
-95
-95
-94
-95
-97
-97
-98
-98
-98
-99
-100
-101
-101
-102
-101
-101
-101
-101
-102
-102
-102
-102
-101
-100
-101
-101
-101
-101
-101
-100
-100
-100
-101
-100
-100
-99
-100
-99
-100
-101
-100
-100
-99
-99
-100
-101
-100
-100
-99
-99
-100
-99
-100
-100
-99
-98
-99
-98
-99
-99
-99
-99
-98
-99
-99
-99
-99
-99
-98
-98
-98
-98
-98
-97
-97
-97
-96
-97
-97
-98
-97
-96
-96
-96
-96
-97
-97
-97
-96
-96
-96
-96
-96
-96
-96
-95
-95
-95
-96
-96
-96
-96
-95
-95
-96
-96
-96
-95
-94
-94
-94
-94
-94
-93
-92
-89
-88
-87
-86
-84
-82
-79
-76
-74
-72
-69
-65
-62
-57
-54
-50
-47
-44
-40
-37
-32
-29
-26
-24
-21
-18
-15
-13
-12
-11
-12
-12
-13
-15
-18
-23
-29
-35
-42
-51
-61
-73
-86
-101
-116
-132
-148
-164
-182
-199
-216
-233
-248
-261
-275
-288
-299
-309
-315
-320
-322
-323
-324
-322
-317
-312
-304
-295
-286
-276
-266
-254
-241
-229
-218
-206
-195
-184
-173
-162
-151
-141
-133
-126
-118
-110
-104
-98
-94
-89
-86
-83
-80
-77
-75
-74
-73
-72
-72
-71
-70
-70
-71
-72
-72
-73
-73
-73
-74
-74
-75
-75
-76
-75
-75
-75
-76
-76
-75
-74
-73
-73
-73
-73
-73
-73
-71
-72
-72
-72
-72
-72
-71
-70
-70
-71
-71
-71
-70
-70
-69
-68
-69
-68
-69
-68
-67
-66
-66
-66
-66
-66
-65
-64
-65
-64
-65
-65
-65
-65
-64
-64
-64
-65
-65
-65
-65
-64
-65
-65
-66
-66
-65
-65
-65
-65
-65
-64
-65
-64
-63
-62
-62
-62
-63
-62
-61
-60
-60
-60
-60
-60
-59
-58
-57
-57
-57
-57
-57
-56
-56
-55
-55
-56
-56
-56
-55
-54
-55
-55
-57
-56
-56
-55
-56
-56
-56
-57
-57
-57
-56
-56
-56
-56
-57
-57
-56
-55
-55
-55
-55
-55
-53
-52
-51
-52
-51
-51
-51
-49
-48
-47
-47
-47
-47
-47
-46
-45
-44
-44
-44
-44
-44
-44
-43
-44
-44
-44
-44
-42
-42
-42
-42
-42
-42
-41
-40
-40
-40
-40
-40
-39
-38
-37
-35
-35
-35
-34
-34
-33
-32
-31
-30
-30
-30
-30
-28
-28
-28
-28
-28
-28
-27
-26
-26
-26
-26
-25
-25
-24
-23
-23
-23
-23
-22
-22
-19
-19
-18
-18
-17
-16
-14
-13
-12
-11
-11
-10
-9
-8
-6
-5
-4
-5
-4
-4
-3
-2
-2
-2
-2
-2
-2
-1
-1
-2
-2
-2
-2
-2
-1
-1
-1
-1
-1
-1
0
1
0
0
1
0
1
2
1
1
1
0
1
1
1
1
0
0
-2
-1
-1
-1
-2
-3
-4
-4
-5
-5
-6
-7
-8
-9
-10
-10
-11
-11
-13
-14
-15
-16
-17
-17
-19
-21
-23
-23
-25
-24
-25
-27
-29
-31
-32
-33
-34
-36
-37
-39
-42
-43
-44
-45
-47
-49
-50
-51
-52
-53
-54
-56
-57
-58
-58
-58
-58
-59
-60
-61
-61
-62
-62
-61
-63
-63
-64
-65
-65
-66
-66
-67
-68
-69
-70
-71
-71
-72
-74
-74
-75
-75
-75
-75
-76
-77
-78
-78
-78
-78
-78
-78
-79
-79
-78
-77
-77
-77
-77
-78
-78
-78
-78
-77
-77
-78
-78
-79
-78
-78
-77
-79
-78
-79
-79
-79
-78
-78
-78
-79
-79
-79
-78
-79
-78
-79
-79
-79
-79
-78
-78
-79
-79
-79
-80
-79
-79
-78
-79
-80
-79
-79
-79
-79
-79
-80
-80
-81
-80
-80
-79
-79
-81
-80
-80
-79
-79
-80
-80
-81
-81
-81
-80
-80
-80
-81
-81
-81
-81
-81
-80
-81
-81
-81
-82
-81
-81
-81
-81
-81
-80
-80
-80
-80
-79
-80
-80
-80
-79
-78
-78
-78
-78
-78
-78
-77
-77
-77
-77
-78
-78
-78
-77
-77
-77
-77
-79
-79
-78
-78
-78
-78
-79
-78
-78
-77
-76
-76
-76
-76
-76
-75
-74
-74
-74
-74
-74
-74
-74
-73
-73
-73
-74
-74
-73
-73
-72
-72
-73
-73
-74
-74
-73
-73
-74
-73
-75
-75
-75
-74
-74
-75
-75
-76
-76
-75
-75
-75
-76
-77
-77
-75
-76
-76
-76
-76
-77
-77
-76
-75
-76
-76
-75
-76
-75
-75
-74
-74
-74
-74
-74
-73
-73
-72
-73
-73
-73
-73
-73
-72
-72
-72
-73
-72
-72
-71
-71
-71
-71
-71
-72
-72
-71
-71
-71
-72
-73
-73
-73
-72
-72
-73
-74
-73
-73
-73
-72
-72
-73
-72
-73
-71
-71
-70
-71
-70
-71
-71
-70
-69
-69
-69
-70
-71
-70
-70
-70
-70
-70
-71
-72
-73
-72
-72
-73
-74
-75
-75
-74
-74
-74
-74
-75
-75
-75
-73
-73
-72
-73
-74
-74
-74
-73
-72
-73
-74
-74
-74
-74
-74
-74
-75
-75
-76
-76
-75
-75
-74
-75
-75
-76
-75
-75
-74
-75
-74
-75
-74
-74
-74
-73
-73
-73
-73
-73
-73
-72
-71
-73
-72
-73
-72
-71
-71
-71
-72
-72
-72
-72
-71
-71
-71
-72
-72
-72
-72
-70
-70
-71
-72
-72
-71
-71
-70
-71
-71
-72
-72
-71
-71
-71
-71
-72
-72
-71
-71
-69
-69
-70
-71
-71
-70
-70
-70
-71
-71
-71
-72
-72
-71
-72
-72
-72
-73
-73
-73
-73
-73
-74
-75
-75
-75
-74
-75
-74
-75
-75
-75
-75
-75
-73
-75
-74
-75
-74
-73
-73
-72
-73
-74
-73
-73
-73
-72
-72
-73
-73
-74
-73
-72
-72
-72
-73
-73
-72
-72
-71
-72
-72
-73
-73
-73
-72
-71
-72
-72
-73
-73
-73
-72
-72
-73
-73
-74
-74
-73
-73
-72
-73
-73
-74
-73
-73
-72
-73
-74
-74
-73
-72
-72
-72
-72
-72
-73
-72
-72
-71
-71
-72
-72
-73
-72
-72
-71
-72
-73
-74
-74
-73
-73
-72
-73
-73
-74
-73
-72
-72
-72
-72
-73
-73
-72
-71
-71
-72
-73
-73
-73
-73
-73
-72
-73
-74
-74
-75
-74
-74
-74
-74
-75
-75
-75
-75
-75
-74
-75
-75
-75
-75
-74
-73
-75
-74
-75
-74
-74
-73
-72
-73
-73
-72
-72
-71
-70
-70
-70
-71
-71
-70
-69
-69
-69
-70
-70
-70
-69
-69
-70
-71
-72
-72
-72
-72
-72
-74
-74
-75
-76
-75
-76
-75
-76
-78
-77
-78
-76
-76
-76
-77
-77
-77
-75
-74
-74
-75
-75
-74
-74
-73
-71
-71
-72
-73
-73
-72
-72
-72
-72
-73
-74
-75
-75
-76
-76
-77
-78
-80
-81
-81
-80
-81
-83
-83
-83
-83
-82
-81
-81
-81
-82
-81
-80
-79
-78
-78
-78
-79
-78
-77
-76
-76
-76
-77
-76
-76
-76
-75
-75
-76
-77
-78
-76
-76
-76
-76
-77
-77
-77
-77
-76
-76
-77
-78
-77
-77
-76
-76
-77
-77
-78
-78
-77
-77
-77
-78
-78
-78
-78
-78
-78
-77
-78
-79
-79
-78
-78
-77
-78
-78
-79
-79
-78
-77
-77
-77
-78
-78
-77
-76
-76
-76
-75
-76
-76
-75
-75
-74
-74
-75
-76
-76
-76
-75
-76
-75
-77
-76
-76
-76
-74
-74
-74
-73
-72
-70
-68
-66
-64
-62
-60
-57
-54
-51
-47
-44
-41
-38
-34
-29
-26
-22
-18
-16
-13
-9
-5
-3
0
2
3
3
4
4
2
0
-4
-9
-13
-20
-27
-37
-48
-61
-75
-89
-105
-120
-138
-155
-173
-191
-206
-223
-239
-254
-268
-281
-293
-301
-308
-313
-317
-319
-318
-315
-310
-303
-296
-288
-278
-268
-257
-244
-231
-220
-208
-196
-185
-173
-161
-151
-141
-132
-124
-115
-108
-101
-95
-91
-87
-82
-78
-74
-71
-70
-68
-67
-66
-65
-63
-63
-63
-64
-63
-63
-62
-62
-62
-64
-65
-65
-65
-65
-66
-67
-68
-68
-69
-69
-69
-69
-71
-71
-71
-71
-70
-70
-70
-70
-70
-69
-69
-68
-67
-67
-68
-68
-67
-66
-64
-64
-64
-63
-64
-62
-61
-61
-61
-62
-62
-62
-61
-60
-61
-61
-61
-62
-63
-62
-61
-61
-62
-62
-63
-63
-62
-61
-61
-62
-63
-63
-61
-61
-60
-60
-61
-61
-60
-60
-59
-59
-59
-59
-59
-59
-58
-57
-56
-58
-57
-57
-56
-55
-55
-56
-55
-56
-56
-55
-54
-54
-55
-54
-54
-54
-53
-53
-53
-53
-54
-54
-53
-52
-52
-52
-53
-53
-52
-51
-51
-51
-51
-51
-52
-50
-50
-49
-49
-50
-50
-50
-49
-49
-49
-49
-50
-50
-50
-49
-48
-48
-48
-50
-50
-49
-48
-47
-47
-47
-49
-48
-47
-46
-46
-45
-46
-46
-45
-44
-43
-43
-43
-43
-43
-41
-40
-39
-38
-39
-39
-39
-37
-36
-35
-36
-36
-35
-35
-34
-33
-32
-32
-32
-32
-32
-31
-30
-29
-30
-30
-29
-28
-27
-26
-26
-26
-25
-24
-23
-22
-21
-20
-20
-19
-18
-16
-15
-14
-14
-14
-13
-12
-11
-10
-9
-9
-9
-8
-7
-5
-5
-4
-5
-4
-3
-2
-1
0
0
0
1
2
2
3
2
2
2
2
3
3
3
3
2
2
2
2
2
2
1
0
-1
0
-1
0
-1
-1
-2
-2
-2
-2
-2
-3
-4
-4
-3
-3
-2
-2
-3
-4
-4
-5
-4
-5
-6
-7
-8
-9
-8
-9
-11
-12
-13
-15
-16
-16
-17
-19
-21
-23
-24
-25
-25
-26
-28
-30
-31
-33
-34
-34
-35
-37
-39
-40
-41
-41
-42
-43
-45
-46
-47
-47
-47
-49
-50
-51
-52
-53
-53
-53
-53
-54
-57
-57
-57
-56
-57
-58
-60
-61
-61
-61
-62
-62
-63
-64
-65
-65
-65
-64
-65
-65
-67
-67
-66
-65
-65
-65
-66
-67
-67
-67
-66
-66
-66
-67
-68
-69
-68
-68
-69
-69
-70
-71
-71
-70
-70
-70
-70
-71
-71
-70
-70
-70
-71
-71
-71
-71
-70
-69
-69
-70
-70
-70
-68
-68
-67
-68
-68
-69
-68
-67
-67
-66
-66
-67
-67
-66
-66
-65
-64
-65
-65
-65
-64
-63
-63
-62
-63
-63
-63
-63
-62
-63
-63
-64
-64
-64
-64
-63
-64
-64
-65
-65
-65
-64
-64
-64
-65
-65
-64
-63
-62
-62
-62
-62
-62
-61
-60
-60
-60
-60
-61
-60
-60
-59
-59
-59
-60
-61
-61
-62
-61
-61
-61
-63
-63
-63
-63
-62
-63
-64
-64
-64
-64
-63
-64
-64
-64
-65
-65
-63
-63
-63
-64
-63
-64
-63
-63
-62
-61
-62
-62
-61
-61
-60
-60
-60
-61
-61
-61
-60
-60
-60
-60
-62
-61
-62
-61
-61
-61
-61
-63
-63
-62
-62
-61
-61
-62
-62
-62
-61
-60
-60
-60
-61
-61
-61
-60
-59
-59
-59
-60
-60
-58
-59
-58
-58
-60
-59
-60
-59
-60
-60
-61
-62
-62
-62
-62
-61
-62
-63
-63
-63
-63
-62
-61
-62
-63
-64
-63
-62
-62
-62
-62
-62
-63
-63
-63
-62
-63
-64
-64
-65
-64
-64
-64
-65
-66
-67
-67
-67
-66
-66
-67
-68
-68
-68
-68
-66
-67
-67
-68
-68
-66
-66
-66
-66
-66
-67
-67
-66
-66
-65
-65
-66
-67
-66
-66
-65
-66
-66
-67
-67
-67
-66
-66
-67
-68
-68
-68
-68
-68
-68
-68
-70
-70
-70
-69
-69
-69
-70
-70
-70
-70
-69
-68
-68
-69
-69
-69
-68
-68
-67
-67
-68
-68
-67
-67
-66
-66
-66
-68
-67
-66
-65
-65
-65
-67
-66
-66
-65
-65
-65
-65
-65
-66
-66
-65
-65
-64
-64
-65
-65
-64
-63
-62
-63
-64
-65
-65
-64
-63
-64
-64
-65
-64
-65
-64
-64
-64
-65
-65
-66
-65
-64
-63
-64
-65
-65
-66
-64
-64
-64
-65
-65
-65
-65
-64
-64
-64
-64
-64
-64
-64
-63
-62
-62
-62
-63
-62
-62
-61
-61
-61
-62
-63
-62
-62
-62
-62
-62
-63
-62
-63
-62
-63
-62
-64
-64
-64
-63
-63
-63
-64
-65
-66
-66
-65
-65
-65
-66
-67
-67
-66
-66
-65
-65
-65
-66
-66
-65
-64
-64
-64
-64
-64
-65
-63
-63
-63
-64
-65
-65
-65
-65
-65
-66
-67
-67
-68
-68
-67
-69
-69
-71
-71
-70
-71
-71
-70
-72
-72
-72
-72
-71
-70
-71
-72
-73
-73
-72
-72
-72
-72
-72
-73
-72
-72
-71
-71
-71
-71
-71
-70
-68
-69
-68
-68
-69
-68
-68
-67
-67
-67
-68
-69
-69
-68
-68
-69
-70
-70
-70
-71
-70
-70
-70
-70
-71
-71
-70
-69
-68
-69
-69
-69
-68
-67
-66
-65
-65
-66
-65
-65
-64
-64
-63
-64
-65
-65
-65
-65
-65
-66
-67
-68
-67
-68
-67
-67
-68
-69
-68
-67
-67
-66
-66
-66
-66
-66
-65
-65
-64
-64
-65
-65
-65
-64
-65
-65
-65
-67
-67
-68
-67
-68
-69
-71
-72
-73
-72
-73
-73
-75
-76
-77
-77
-77
-77
-76
-78
-78
-77
-77
-75
-75
-75
-75
-74
-74
-72
-71
-70
-71
-71
-71
-69
-68
-68
-67
-67
-67
-67
-67
-66
-65
-65
-66
-66
-66
-65
-65
-65
-65
-66
-66
-66
-66
-64
-65
-66
-66
-67
-67
-66
-66
-66
-67
-68
-68
-69
-68
-68
-70
-70
-71
-71
-70
-70
-70
-71
-71
-71
-70
-69
-70
-69
-69
-70
-70
-68
-68
-68
-68
-68
-68
-68
-68
-67
-67
-68
-68
-68
-68
-67
-68
-68
-69
-70
-70
-70
-69
-69
-70
-70
-71
-69
-68
-67
-66
-66
-65
-63
-61
-59
-56
-55
-53
-50
-48
-44
-41
-38
-36
-33
-31
-27
-23
-20
-17
-15
-12
-10
-6
-4
-2
0
1
2
3
4
2
2
-1
-5
-8
-13
-17
-24
-32
-41
-52
-62
-75
-88
-102
-117
-133
-148
-164
-179
-193
-208
-222
-235
-246
-256
-266
-273
-278
-283
-285
-287
-284
-281
-277
-270
-264
-257
-248
-238
-227
-217
-206
-195
-185
-173
-162
-151
-142
-133
-123
-115
-107
-99
-91
-85
-81
-76
-71
-66
-62
-59
-57
-56
-54
-51
-50
-49
-49
-49
-49
-50
-49
-49
-49
-49
-50
-51
-52
-52
-52
-52
-53
-54
-55
-55
-55
-54
-55
-55
-56
-55
-55
-54
-54
-53
-54
-54
-54
-53
-53
-53
-53
-54
-53
-54
-53
-53
-52
-53
-53
-54
-53
-53
-52
-53
-54
-54
-53
-53
-53
-52
-52
-53
-52
-52
-51
-50
-51
-51
-51
-51
-50
-50
-49
-50
-50
-50
-50
-49
-49
-49
-50
-50
-49
-49
-49
-48
-49
-49
-49
-49
-48
-48
-48
-47
-48
-49
-48
-47
-47
-47
-47
-49
-48
-48
-47
-47
-48
-48
-48
-48
-48
-47
-47
-47
-48
-48
-48
-48
-46
-47
-47
-47
-47
-46
-45
-44
-44
-45
-45
-45
-45
-44
-44
-45
-45
-45
-45
-44
-44
-44
-44
-44
-45
-44
-43
-43
-42
-43
-43
-43
-42
-41
-40
-39
-40
-40
-40
-38
-37
-38
-38
-39
-38
-38
-37
-37
-36
-37
-36
-37
-35
-34
-34
-33
-34
-33
-33
-32
-30
-30
-30
-30
-30
-29
-29
-27
-28
-28
-27
-27
-26
-25
-25
-25
-25
-26
-25
-24
-24
-23
-23
-24
-23
-23
-22
-20
-21
-21
-20
-19
-18
-17
-16
-16
-16
-16
-14
-13
-13
-13
-11
-11
-11
-11
-9
-9
-9
-9
-9
-8
-7
-6
-5
-5
-5
-5
-5
-4
-3
-3
-3
-2
-2
-1
0
2
3
2
3
3
5
6
6
7
7
6
7
7
7
8
7
6
5
5
5
5
4
3
3
2
3
3
2
2
0
0
0
0
-1
-1
-3
-4
-4
-5
-4
-5
-6
-8
-9
-10
-10
-11
-12
-14
-15
-17
-18
-18
-19
-20
-22
-24
-24
-26
-26
-27
-29
-30
-32
-33
-33
-34
-35
-37
-38
-39
-40
-41
-41
-42
-43
-44
-45
-46
-46
-47
-47
-49
-50
-50
-51
-51
-52
-52
-53
-54
-55
-54
-55
-55
-56
-57
-58
-58
-57
-57
-58
-58
-58
-58
-57
-57
-57
-57
-58
-58
-58
-57
-57
-57
-57
-59
-59
-59
-58
-58
-59
-60
-60
-60
-59
-59
-58
-59
-60
-61
-60
-60
-59
-60
-61
-61
-61
-62
-61
-60
-61
-61
-62
-62
-62
-61
-61
-62
-63
-64
-63
-63
-62
-63
-64
-65
-65
-64
-64
-64
-64
-65
-66
-65
-65
-64
-64
-64
-65
-65
-65
-64
-63
-63
-63
-63
-63
-63
-62
-61
-62
-61
-62
-61
-61
-60
-60
-61
-61
-61
-61
-61
-60
-60
-60
-62
-62
-60
-60
-60
-60
-60
-60
-60
-59
-58
-59
-58
-59
-59
-58
-57
-57
-57
-58
-58
-58
-57
-56
-56
-57
-56
-57
-57
-56
-55
-56
-56
-56
-57
-56
-55
-55
-55
-56
-57
-57
-56
-56
-55
-56
-57
-56
-56
-56
-54
-54
-54
-55
-54
-54
-53
-52
-52
-52
-52
-53
-51
-51
-50
-50
-51
-51
-51
-50
-50
-49
-50
-50
-51
-51
-50
-51
-51
-52
-53
-53
-52
-53
-52
-52
-53
-54
-53
-52
-52
-53
-53
-53
-54
-54
-53
-53
-54
-55
-55
-56
-55
-54
-54
-54
-55
-55
-54
-54
-53
-53
-54
-54
-54
-53
-52
-52
-52
-52
-52
-52
-52
-51
-50
-51
-51
-51
-51
-50
-50
-51
-51
-52
-53
-53
-52
-52
-53
-54
-56
-56
-56
-56
-55
-57
-57
-58
-58
-58
-57
-57
-58
-59
-58
-58
-58
-57
-58
-58
-58
-57
-57
-56
-56
-57
-57
-57
-57
-56
-56
-56
-56
-57
-57
-56
-57
-57
-56
-58
-58
-58
-58
-58
-58
-58
-59
-60
-59
-58
-58
-58
-59
-59
-59
-59
-59
-58
-59
-60
-60
-61
-60
-59
-59
-60
-61
-61
-60
-59
-59
-59
-59
-59
-60
-59
-59
-58
-58
-58
-58
-58
-56
-56
-55
-55
-55
-55
-54
-54
-52
-52
-53
-54
-55
-54
-53
-54
-55
-55
-57
-57
-56
-57
-56
-58
-59
-59
-59
-59
-58
-59
-59
-59
-60
-58
-58
-57
-58
-58
-58
-58
-58
-57
-56
-57
-58
-57
-57
-57
-56
-56
-57
-58
-58
-58
-57
-57
-57
-58
-58
-59
-57
-57
-56
-57
-57
-57
-57
-56
-56
-55
-57
-56
-57
-57
-56
-56
-57
-57
-57
-58
-57
-58
-57
-57
-58
-59
-58
-58
-58
-58
-58
-59
-58
-58
-57
-57
-58
-58
-58
-58
-58
-58
-57
-58
-58
-59
-59
-58
-58
-58
-58
-58
-59
-59
-57
-58
-57
-58
-58
-57
-57
-56
-56
-56
-57
-57
-57
-56
-56
-56
-56
-57
-58
-58
-58
-58
-59
-59
-60
-60
-60
-59
-59
-59
-60
-60
-59
-58
-57
-56
-56
-57
-57
-57
-56
-55
-55
-55
-55
-56
-56
-55
-55
-55
-56
-56
-56
-55
-55
-55
-55
-56
-55
-55
-54
-53
-54
-53
-53
-53
-53
-52
-52
-52
-53
-54
-53
-53
-53
-54
-55
-55
-56
-56
-56
-56
-57
-58
-58
-59
-59
-58
-58
-59
-60
-60
-60
-58
-58
-57
-58
-58
-58
-57
-57
-57
-56
-58
-57
-57
-57
-56
-56
-57
-58
-59
-58
-58
-58
-58
-58
-60
-61
-61
-61
-61
-63
-63
-64
-64
-65
-64
-64
-64
-65
-65
-64
-62
-62
-62
-61
-61
-60
-59
-57
-57
-57
-57
-57
-57
-56
-55
-56
-56
-57
-58
-58
-57
-57
-58
-58
-59
-60
-60
-60
-60
-60
-60
-61
-61
-60
-59
-58
-59
-58
-59
-58
-57
-55
-55
-55
-56
-55
-55
-54
-55
-55
-56
-56
-57
-55
-56
-55
-57
-57
-57
-57
-58
-57
-57
-57
-58
-58
-58
-57
-58
-58
-58
-58
-58
-58
-57
-57
-57
-58
-58
-58
-57
-56
-56
-57
-58
-57
-57
-56
-55
-56
-55
-55
-54
-52
-51
-49
-49
-48
-45
-44
-41
-38
-36
-33
-30
-27
-25
-21
-18
-14
-12
-9
-6
-3
2
4
7
9
11
14
17
18
19
21
20
19
19
17
14
11
5
-2
-9
-17
-26
-38
-51
-64
-79
-93
-109
-125
-141
-158
-175
-191
-205
-219
-232
-244
-255
-264
-271
-276
-279
-280
-280
-278
-274
-268
-260
-253
-243
-233
-223
-213
-201
-189
-177
-166
-156
-144
-134
-123
-113
-104
-96
-88
-81
-75
-68
-62
-57
-53
-50
-47
-44
-41
-38
-38
-37
-36
-36
-35
-35
-35
-35
-37
-37
-37
-38
-38
-39
-40
-42
-42
-42
-42
-42
-43
-43
-44
-44
-44
-43
-43
-43
-43
-42
-42
-41
-39
-39
-39
-39
-38
-36
-35
-34
-34
-34
-33
-33
-32
-31
-31
-31
-31
-32
-31
-31
-31
-31
-32
-33
-33
-33
-33
-33
-33
-34
-35
-34
-35
-34
-34
-34
-35
-34
-34
-33
-31
-31
-31
-30
-31
-29
-29
-29
-28
-29
-29
-28
-28
-27
-27
-28
-29
-28
-28
-28
-27
-27
-28
-27
-28
-27
-27
-27
-27
-27
-28
-28
-26
-25
-26
-25
-26
-26
-25
-25
-23
-23
-24
-24
-24
-24
-23
-23
-23
-23
-23
-23
-22
-21
-21
-22
-22
-22
-21
-20
-20
-20
-20
-21
-21
-20
-19
-18
-19
-19
-19
-19
-18
-17
-17
-17
-17
-16
-16
-14
-14
-13
-13
-13
-12
-11
-10
-10
-10
-10
-10
-10
-9
-7
-7
-6
-7
-7
-7
-6
-5
-5
-5
-5
-5
-5
-5
-4
-4
-5
-5
-5
-4
-4
-3
-3
-4
-4
-4
-2
-1
-1
-2
-2
-1
1
2
3
3
3
4
5
7
8
9
9
10
11
12
13
14
15
15
15
16
17
18
19
19
19
19
20
22
22
23
23
23
24
24
25
26
25
25
25
25
26
27
27
27
26
26
26
25
26
26
26
25
25
25
25
27
26
26
25
26
27
28
28
28
28
29
28
29
30
31
30
30
29
30
30
29
29
28
26
25
24
24
22
22
20
19
18
17
16
15
14
12
11
10
10
8
7
6
3
3
2
0
0
-1
-4
-6
-7
-8
-9
-11
-13
-14
-15
-16
-17
-18
-19
-21
-22
-23
-24
-24
-24
-25
-27
-28
-28
-28
-28
-28
-30
-31
-31
-31
-32
-31
-32
-32
-34
-34
-35
-35
-35
-36
-36
-38
-38
-38
-37
-37
-39
-40
-39
-39
-39
-38
-39
-39
-40
-40
-40
-39
-39
-40
-40
-41
-41
-41
-40
-40
-41
-40
-41
-41
-41
-41
-42
-43
-44
-45
-44
-44
-45
-45
-47
-47
-48
-48
-48
-49
-49
-50
-51
-50
-50
-50
-49
-49
-50
-50
-49
-48
-48
-47
-48
-48
-46
-46
-45
-45
-45
-46
-45
-45
-44
-43
-43
-44
-44
-45
-45
-44
-45
-45
-46
-48
-48
-47
-47
-47
-49
-50
-50
-50
-50
-50
-50
-50
-51
-51
-51
-50
-50
-51
-50
-51
-50
-50
-50
-50
-51
-50
-51
-50
-50
-49
-50
-50
-52
-52
-51
-51
-50
-51
-52
-52
-52
-52
-51
-51
-52
-53
-52
-52
-51
-51
-51
-51
-52
-53
-52
-52
-52
-53
-53
-53
-53
-53
-52
-52
-53
-52
-53
-53
-52
-51
-51
-52
-53
-53
-52
-52
-52
-53
-53
-53
-54
-53
-54
-53
-54
-55
-54
-54
-54
-53
-53
-54
-54
-55
-54
-53
-53
-52
-53
-54
-53
-52
-52
-52
-52
-53
-53
-53
-53
-51
-51
-51
-52
-52
-52
-51
-51
-52
-52
-52
-52
-51
-50
-50
-50
-50
-50
-49
-48
-48
-47
-47
-48
-47
-46
-46
-45
-45
-46
-46
-47
-45
-45
-45
-45
-46
-46
-46
-45
-45
-45
-46
-47
-47
-48
-47
-47
-48
-49
-50
-50
-50
-50
-50
-51
-51
-52
-51
-51
-50
-50
-50
-51
-50
-50
-49
-48
-48
-49
-48
-48
-48
-47
-46
-47
-48
-47
-47
-47
-47
-47
-48
-49
-49
-49
-48
-49
-49
-51
-51
-52
-52
-52
-52
-53
-54
-54
-54
-53
-53
-53
-54
-54
-54
-54
-53
-54
-53
-54
-54
-53
-53
-51
-51
-52
-52
-51
-51
-50
-49
-50
-50
-50
-50
-50
-49
-49
-50
-51
-51
-52
-52
-51
-51
-52
-53
-53
-54
-54
-54
-55
-56
-57
-57
-57
-57
-56
-57
-58
-58
-58
-58
-56
-56
-57
-57
-56
-56
-55
-54
-53
-53
-54
-53
-52
-51
-51
-51
-51
-52
-52
-51
-51
-51
-52
-53
-52
-53
-53
-53
-53
-54
-54
-55
-55
-54
-55
-56
-57
-57
-58
-58
-57
-57
-58
-58
-58
-57
-56
-56
-57
-56
-57
-57
-55
-56
-56
-55
-55
-56
-56
-55
-55
-55
-56
-57
-56
-56
-56
-56
-57
-57
-58
-58
-58
-58
-58
-58
-59
-60
-60
-59
-58
-58
-60
-60
-60
-60
-59
-59
-59
-60
-60
-60
-60
-59
-59
-60
-60
-61
-61
-59
-59
-59
-59
-59
-60
-59
-58
-57
-57
-57
-58
-57
-57
-57
-57
-57
-58
-59
-60
-60
-59
-60
-61
-62
-62
-63
-62
-62
-63
-64
-65
-65
-64
-64
-63
-64
-65
-64
-64
-63
-63
-62
-62
-63
-63
-62
-61
-60
-60
-60
-61
-60
-59
-59
-59
-58
-58
-59
-58
-58
-58
-58
-59
-59
-59
-59
-58
-58
-59
-61
-61
-63
-62
-63
-64
-64
-65
-65
-66
-66
-66
-66
-67
-67
-66
-66
-65
-65
-64
-64
-64
-64
-63
-61
-61
-61
-62
-62
-61
-60
-59
-60
-61
-61
-62
-62
-62
-62
-63
-63
-65
-66
-65
-65
-66
-67
-68
-68
-69
-68
-68
-68
-68
-69
-68
-67
-66
-66
-66
-66
-66
-66
-65
-65
-64
-65
-65
-66
-66
-65
-65
-66
-67
-68
-69
-69
-70
-70
-71
-73
-74
-74
-74
-75
-76
-76
-77
-77
-77
-76
-76
-76
-76
-76
-76
-75
-73
-72
-71
-71
-71
-70
-70
-68
-68
-68
-68
-68
-68
-68
-67
-68
-68
-69
-70
-69
-69
-69
-70
-71
-72
-73
-73
-73
-74
-75
-76
-77
-77
-77
-76
-77
-78
-78
-78
-78
-77
-77
-78
-78
-78
-78
-78
-76
-76
-76
-76
-76
-75
-75
-73
-74
-74
-74
-74
-73
-72
-72
-71
-72
-73
-73
-72
-72
-72
-73
-73
-73
-74
-74
-73
-73
-75
-76
-76
-76
-76
-76
-76
-77
-77
-78
-78
-77
-77
-77
-76
-76
-75
-73
-72
-71
-70
-69
-67
-64
-61
-58
-55
-52
-50
-46
-41
-37
-34
-30
-27
-24
-20
-16
-11
-8
-5
-2
1
4
6
9
10
10
11
10
9
7
3
-2
-9
-16
-25
-35
-47
-60
-75
-91
-108
-125
-141
-159
-178
-196
-214
-231
-247
-261
-274
-286
-297
-305
-311
-315
-317
-316
-315
-311
-305
-298
-288
-278
-268
-257
-246
-233
-220
-207
-194
-183
-173
-162
-151
-140
-130
-122
-114
-108
-101
-95
-89
-83
-78
-76
-73
-70
-68
-65
-63
-63
-62
-62
-61
-61
-60
-60
-61
-62
-62
-62
-62
-62
-62
-63
-65
-64
-64
-64
-64
-65
-65
-65
-64
-64
-63
-63
-63
-63
-63
-62
-61
-60
-60
-60
-61
-60
-58
-58
-57
-57
-58
-59
-58
-57
-57
-57
-57
-58
-57
-57
-57
-57
-57
-58
-58
-58
-57
-58
-58
-59
-60
-61
-60
-60
-59
-60
-61
-61
-61
-60
-59
-59
-59
-59
-61
-60
-59
-57
-57
-57
-57
-56
-55
-53
-52
-51
-51
-51
-50
-50
-49
-47
-47
-48
-48
-48
-48
-48
-47
-48
-49
-48
-49
-49
-49
-49
-50
-51
-52
-51
-50
-50
-51
-52
-52
-52
-52
-51
-50
-51
-53
-53
-52
-50
-49
-49
-50
-50
-50
-49
-47
-47
-46
-48
-47
-46
-46
-44
-43
-43
-44
-43
-43
-42
-41
-40
-41
-41
-41
-40
-39
-39
-39
-39
-40
-39
-39
-38
-38
-39
-40
-39
-39
-37
-36
-36
-36
-37
-37
-35
-34
-34
-33
-33
-33
-32
-31
-30
-28
-28
-28
-28
-27
-27
-25
-24
-25
-24
-25
-24
-23
-22
-21
-22
-22
-22
-21
-20
-19
-19
-19
-20
-19
-17
-17
-16
-16
-16
-16
-14
-13
-12
-11
-11
-11
-11
-9
-8
-7
-7
-8
-7
-6
-5
-4
-3
-4
-4
-3
-2
-1
-1
0
0
0
0
1
2
3
2
2
2
3
3
5
4
4
4
4
5
6
6
6
5
5
6
6
6
6
6
5
5
5
5
5
4
4
3
2
2
2
2
1
0
-1
-2
-2
-3
-3
-5
-6
-7
-8
-8
-9
-11
-13
-14
-15
-16
-16
-17
-19
-20
-21
-21
-22
-23
-24
-26
-28
-29
-30
-31
-32
-33
-35
-36
-37
-38
-39
-41
-42
-44
-46
-48
-48
-49
-50
-51
-53
-55
-55
-56
-56
-56
-58
-60
-59
-61
-60
-61
-61
-62
-63
-63
-63
-63
-63
-65
-65
-65
-66
-66
-65
-65
-66
-66
-66
-66
-65
-66
-65
-66
-67
-67
-66
-66
-66
-67
-68
-68
-69
-68
-68
-68
-69
-70
-70
-69
-69
-69
-70
-70
-71
-72
-72
-71
-71
-71
-73
-73
-73
-72
-71
-71
-72
-73
-72
-72
-70
-70
-70
-71
-72
-71
-71
-69
-70
-71
-71
-72
-72
-71
-70
-71
-72
-73
-73
-72
-71
-70
-71
-71
-72
-73
-71
-70
-71
-71
-71
-72
-71
-70
-70
-69
-69
-71
-70
-69
-68
-67
-67
-68
-68
-67
-67
-65
-65
-66
-65
-66
-65
-64
-64
-64
-65
-66
-66
-65
-65
-65
-65
-66
-66
-67
-66
-66
-67
-67
-67
-68
-68
-67
-67
-67
-68
-68
-68
-67
-66
-66
-67
-67
-68
-67
-66
-66
-66
-66
-66
-67
-66
-65
-64
-64
-65
-64
-64
-63
-63
-62
-61
-62
-62
-62
-60
-60
-59
-60
-61
-61
-61
-61
-60
-60
-62
-62
-62
-62
-61
-61
-62
-64
-65
-66
-65
-65
-66
-66
-68
-69
-68
-68
-68
-68
-69
-69
-69
-68
-67
-66
-67
-66
-67
-67
-66
-64
-64
-64
-65
-64
-64
-63
-62
-62
-62
-62
-62
-61
-61
-60
-60
-61
-62
-62
-60
-61
-61
-61
-61
-62
-61
-61
-61
-62
-62
-62
-63
-62
-62
-62
-62
-63
-63
-63
-63
-62
-62
-63
-63
-63
-64
-62
-62
-62
-63
-63
-63
-63
-62
-62
-62
-63
-63
-63
-63
-62
-62
-62
-63
-63
-63
-62
-62
-62
-63
-63
-63
-62
-62
-63
-62
-63
-63
-64
-63
-62
-62
-63
-63
-63
-63
-62
-61
-62
-62
-62
-62
-61
-60
-59
-60
-60
-61
-61
-60
-60
-61
-62
-62
-63
-63
-62
-62
-63
-63
-64
-63
-64
-63
-62
-63
-63
-63
-63
-62
-61
-61
-61
-61
-61
-61
-59
-59
-59
-59
-60
-59
-58
-58
-57
-57
-58
-58
-58
-58
-58
-58
-58
-59
-59
-58
-58
-58
-58
-58
-59
-59
-58
-58
-58
-58
-59
-59
-59
-58
-58
-58
-59
-59
-58
-59
-58
-58
-57
-58
-58
-58
-57
-57
-57
-56
-57
-57
-57
-56
-56
-56
-57
-58
-58
-58
-57
-57
-57
-57
-57
-57
-57
-56
-55
-56
-56
-57
-56
-55
-55
-54
-54
-55
-55
-54
-54
-54
-54
-55
-55
-55
-55
-54
-55
-56
-56
-57
-57
-57
-56
-57
-58
-58
-59
-58
-59
-58
-58
-59
-59
-59
-57
-57
-57
-57
-57
-57
-57
-56
-56
-56
-56
-57
-57
-57
-56
-56
-56
-56
-57
-57
-56
-55
-56
-55
-56
-57
-56
-55
-55
-56
-55
-57
-57
-56
-56
-56
-56
-57
-57
-57
-57
-56
-56
-57
-56
-58
-57
-56
-56
-56
-57
-56
-57
-56
-56
-55
-55
-56
-55
-56
-54
-53
-54
-53
-54
-54
-55
-54
-54
-54
-54
-54
-54
-54
-53
-52
-53
-53
-53
-53
-51
-51
-51
-51
-52
-53
-52
-52
-52
-53
-54
-54
-55
-55
-55
-55
-56
-56
-58
