# Simple Text Format
# Sampling Rate (Hz):= 1200.00
# Resolution:= 12
# Labels:= ECG	aVR
# Age:=	33
# Gender:=	Masculino
-78
-77
-78
-79
-79
-79
-77
-77
-78
-79
-80
-81
-81
-81
-82
-83
-85
-86
-86
-86
-85
-86
-87
-88
-88
-89
-89
-88
-88
-90
-91
-91
-91
-91
-90
-91
-92
-93
-93
-94
-94
-94
-95
-96
-97
-97
-96
-96
-96
-98
-99
-99
-99
-100
-100
-101
-101
-102
-103
-102
-102
-102
-103
-104
-105
-104
-103
-103
-103
-103
-104
-104
-103
-103
-103
-104
-105
-105
-106
-106
-106
-106
-108
-109
-111
-111
-111
-112
-113
-114
-116
-117
-117
-117
-118
-118
-120
-120
-121
-119
-119
-118
-119
-120
-120
-119
-118
-116
-115
-116
-116
-115
-114
-113
-111
-110
-110
-111
-110
-109
-107
-106
-107
-107
-106
-105
-104
-104
-103
-104
-104
-105
-105
-103
-103
-103
-105
-105
-105
-103
-102
-102
-102
-103
-102
-100
-99
-97
-96
-96
-96
-95
-93
-92
-90
-90
-89
-90
-89
-88
-87
-86
-86
-86
-86
-85
-84
-83
-83
-83
-84
-83
-83
-82
-81
-82
-83
-84
-84
-84
-83
-83
-85
-85
-86
-85
-85
-84
-85
-85
-87
-87
-87
-86
-85
-85
-85
-85
-85
-85
-83
-82
-82
-83
-84
-83
-81
-81
-81
-81
-82
-83
-82
-82
-81
-82
-83
-83
-83
-83
-82
-81
-82
-82
-81
-80
-79
-78
-78
-79
-79
-78
-78
-77
-76
-77
-78
-79
-78
-78
-78
-78
-79
-81
-81
-82
-82
-80
-81
-82
-83
-83
-82
-81
-81
-81
-82
-82
-82
-81
-81
-80
-82
-82
-82
-82
-81
-80
-80
-81
-82
-82
-81
-80
-79
-80
-81
-82
-81
-80
-79
-79
-79
-79
-79
-78
-78
-77
-77
-77
-78
-79
-79
-78
-77
-78
-79
-80
-80
-79
-79
-78
-80
-81
-81
-80
-79
-79
-79
-79
-79
-80
-78
-77
-77
-77
-78
-78
-78
-77
-76
-76
-77
-78
-78
-77
-77
-77
-77
-78
-79
-79
-78
-78
-77
-78
-79
-80
-79
-79
-78
-78
-79
-79
-80
-79
-78
-78
-78
-78
-78
-78
-78
-77
-77
-77
-78
-79
-78
-77
-77
-76
-77
-79
-78
-78
-77
-77
-77
-77
-79
-79
-78
-77
-78
-79
-79
-79
-79
-79
-78
-78
-79
-79
-80
-78
-77
-77
-76
-78
-79
-78
-78
-77
-77
-77
-78
-79
-78
-77
-77
-77
-77
-79
-79
-79
-78
-77
-78
-79
-80
-80
-79
-78
-78
-78
-79
-80
-79
-79
-77
-77
-78
-79
-78
-78
-77
-76
-76
-78
-78
-78
-78
-77
-76
-77
-78
-79
-79
-78
-78
-78
-78
-79
-79
-78
-78
-77
-77
-78
-78
-79
-78
-77
-77
-78
-79
-79
-80
-78
-78
-78
-78
-80
-79
-79
-78
-77
-78
-78
-79
-79
-78
-77
-76
-76
-78
-78
-78
-78
-77
-77
-78
-79
-79
-79
-78
-77
-77
-78
-79
-79
-79
-78
-78
-79
-79
-80
-79
-79
-77
-76
-78
-79
-78
-78
-77
-77
-77
-78
-79
-78
-78
-76
-77
-77
-78
-78
-78
-76
-76
-75
-76
-77
-77
-76
-75
-74
-74
-74
-75
-76
-75
-74
-74
-75
-76
-77
-77
-77
-76
-77
-78
-79
-79
-80
-78
-78
-79
-79
-81
-80
-79
-79
-78
-79
-79
-79
-78
-77
-76
-76
-77
-77
-77
-75
-74
-74
-73
-73
-73
-73
-73
-71
-71
-71
-71
-71
-71
-70
-69
-69
-69
-70
-69
-69
-69
-68
-68
-68
-69
-69
-68
-68
-67
-68
-69
-69
-69
-69
-68
-68
-69
-70
-70
-69
-68
-68
-66
-67
-68
-67
-67
-66
-65
-66
-67
-67
-67
-67
-67
-67
-68
-70
-71
-71
-70
-70
-71
-72
-73
-73
-73
-72
-73
-73
-75
-75
-75
-74
-72
-72
-72
-73
-73
-72
-70
-70
-70
-71
-72
-72
-71
-70
-69
-70
-70
-72
-72
-71
-71
-71
-71
-72
-72
-71
-70
-69
-69
-70
-71
-71
-70
-69
-68
-68
-69
-69
-69
-67
-67
-66
-68
-68
-68
-67
-66
-66
-66
-67
-68
-68
-67
-66
-66
-67
-67
-67
-67
-65
-65
-65
-65
-65
-65
-64
-63
-63
-63
-63
-63
-63
-61
-61
-60
-61
-62
-62
-62
-62
-62
-62
-64
-65
-65
-64
-63
-63
-63
-64
-64
-64
-63
-62
-62
-61
-63
-62
-62
-61
-61
-60
-61
-61
-62
-61
-60
-60
-61
-61
-62
-62
-61
-61
-61
-61
-62
-63
-63
-62
-61
-61
-62
-63
-63
-61
-61
-59
-60
-60
-62
-62
-62
-62
-61
-63
-64
-65
-65
-65
-64
-65
-66
-68
-68
-68
-67
-67
-67
-68
-69
-68
-68
-67
-67
-67
-68
-68
-68
-68
-67
-67
-68
-69
-69
-69
-69
-68
-68
-69
-70
-71
-71
-70
-70
-71
-72
-73
-73
-74
-74
-75
-76
-77
-78
-78
-78
-79
-80
-81
-82
-84
-83
-83
-84
-85
-85
-87
-86
-86
-85
-85
-87
-87
-87
-87
-86
-85
-85
-86
-86
-86
-84
-83
-82
-83
-83
-83
-82
-81
-79
-78
-79
-79
-78
-77
-75
-74
-73
-74
-73
-72
-70
-68
-67
-67
-66
-65
-64
-63
-61
-61
-61
-61
-60
-58
-57
-55
-55
-56
-56
-55
-54
-53
-53
-53
-54
-55
-55
-55
-55
-55
-56
-56
-57
-57
-56
-56
-57
-59
-60
-60
-60
-59
-60
-61
-63
-63
-63
-62
-61
-62
-63
-64
-64
-63
-62
-61
-61
-61
-62
-62
-60
-58
-58
-59
-59
-60
-58
-58
-57
-57
-58
-58
-58
-57
-57
-57
-57
-59
-59
-59
-59
-58
-58
-59
-60
-60
-61
-60
-58
-59
-59
-60
-59
-58
-56
-54
-53
-54
-54
-54
-51
-51
-50
-51
-50
-51
-50
-50
-50
-50
-52
-52
-54
-55
-55
-58
-61
-65
-70
-74
-78
-82
-87
-93
-101
-108
-115
-122
-130
-138
-147
-156
-165
-172
-180
-187
-195
-204
-210
-217
-222
-225
-230
-234
-237
-240
-241
-240
-238
-237
-235
-233
-229
-223
-218
-212
-205
-199
-193
-185
-178
-169
-162
-154
-147
-140
-132
-123
-115
-108
-102
-96
-90
-83
-77
-70
-66
-62
-59
-56
-52
-48
-45
-45
-45
-43
-42
-41
-41
-40
-42
-43
-45
-45
-46
-46
-48
-50
-52
-52
-53
-53
-54
-54
-56
-57
-56
-57
-56
-57
-57
-57
-58
-56
-55
-54
-54
-55
-55
-55
-54
-53
-53
-53
-53
-54
-54
-52
-52
-52
-53
-54
-54
-54
-53
-54
-54
-55
-56
-56
-56
-56
-55
-57
-57
-58
-59
-59
-59
-59
-61
-61
-61
-61
-60
-59
-59
-59
-60
-59
-58
-57
-57
-58
-58
-58
-57
-56
-56
-55
-55
-57
-56
-56
-55
-54
-55
-56
-56
-56
-55
-54
-54
-56
-56
-58
-57
-57
-57
-57
-58
-58
-59
-59
-58
-59
-59
-60
-62
-62
-62
-62
-62
-62
-63
-64
-64
-63
-63
-63
-63
-63
-63
-62
-61
-60
-60
-60
-61
-61
-60
-58
-58
-59
-59
-59
-59
-59
-59
-58
-59
-61
-61
-61
-60
-59
-60
-61
-62
-62
-61
-61
-60
-61
-62
-63
-62
-61
-61
-62
-62
-64
-64
-63
-63
-63
-63
-65
-66
-66
-66
-64
-65
-66
-67
-68
-68
-67
-67
-67
-68
-69
-69
-68
-67
-67
-67
-67
-68
-68
-67
-66
-65
-65
-66
-66
-66
-66
-65
-65
-66
-67
-67
-67
-67
-67
-68
-69
-71
-71
-71
-71
-71
-73
-74
-74
-75
-73
-73
-73
-73
-74
-74
-74
-73
-73
-73
-74
-75
-76
-74
-74
-74
-76
-77
-78
-78
-78
-79
-79
-80
-82
-82
-82
-82
-81
-81
-83
-84
-84
-83
-83
-83
-84
-85
-86
-86
-86
-86
-86
-87
-88
-88
-87
-87
-87
-88
-90
-91
-92
-91
-91
-91
-93
-94
-94
-96
-96
-95
-96
-98
-99
-99
-99
-99
-100
-100
-101
-102
-102
-102
-102
-102
-102
-103
-105
-104
-104
-102
-103
-104
-104
-105
-104
-103
-103
-103
-104
-105
-105
-104
-104
-104
-104
-106
-106
-106
-105
-105
-105
-107
-107
-108
-106
-106
-105
-105
-106
-106
-106
-104
-103
-102
-102
-102
-102
-101
-99
-97
-96
-96
-96
-94
-93
-92
-90
-90
-89
-89
-89
-87
-86
-85
-86
-86
-86
-85
-84
-83
-83
-83
-83
-82
-82
-81
-80
-79
-81
-81
-79
-78
-76
-76
-76
-76
-76
-75
-74
-73
-72
-72
-72
-72
-71
-71
-70
-70
-70
-71
-70
-69
-68
-67
-68
-70
-69
-70
-69
-68
-68
-68
-70
-69
-68
-67
-66
-67
-68
-68
-68
-67
-66
-65
-66
-66
-67
-65
-64
-63
-63
-63
-63
-63
-63
-62
-61
-62
-63
-64
-64
-63
-63
-63
-65
-66
-67
-67
-67
-66
-67
-68
-70
-70
-70
-69
-69
-71
-71
-73
-73
-72
-72
-73
-73
-73
-74
-74
-73
-73
-73
-74
-74
-74
-72
-71
-70
-70
-69
-70
-69
-68
-67
-67
-67
-67
-67
-67
-66
-65
-65
-66
-66
-66
-65
-64
-64
-64
-64
-66
-65
-63
-62
-62
-62
-63
-63
-63
-62
-61
-62
-63
-64
-64
-63
-62
-62
-63
-64
-65
-66
-65
-65
-66
-67
-67
-68
-68
-68
-67
-68
-69
-69
-69
-67
-66
-65
-66
-66
-66
-66
-65
-63
-63
-64
-64
-65
-64
-62
-62
-62
-63
-63
-62
-62
-62
-61
-61
-62
-64
-64
-63
-62
-62
-63
-63
-64
-63
-62
-62
-62
-62
-64
-64
-63
-62
-62
-63
-63
-65
-65
-64
-64
-65
-66
-68
-69
-69
-69
-69
-69
-71
-73
-72
-72
-72
-71
-71
-72
-72
-72
-70
-69
-68
-68
-69
-68
-67
-65
-64
-64
-65
-65
-65
-64
-63
-63
-63
-64
-65
-65
-65
-63
-64
-65
-65
-66
-66
-65
-65
-64
-65
-66
-66
-64
-63
-63
-63
-63
-64
-64
-63
-62
-62
-63
-64
-64
-63
-63
-62
-63
-64
-65
-64
-63
-62
-62
-62
-63
-63
-63
-61
-61
-60
-60
-62
-62
-61
-61
-61
-62
-63
-63
-63
-63
-63
-62
-62
-63
-64
-62
-62
-61
-61
-61
-61
-61
-60
-59
-59
-58
-59
-59
-59
-58
-57
-56
-57
-57
-59
-58
-58
-58
-59
-60
-61
-62
-62
-61
-62
-62
-63
-65
-64
-64
-63
-63
-64
-65
-66
-66
-65
-65
-64
-64
-65
-65
-65
-64
-63
-63
-64
-64
-64
-63
-62
-62
-61
-62
-62
-62
-61
-60
-60
-60
-60
-61
-61
-60
-59
-60
-60
-61
-61
-60
-59
-59
-59
-61
-61
-61
-61
-60
-60
-61
-62
-62
-62
-62
-60
-61
-62
-63
-63
-62
-61
-62
-62
-63
-64
-64
-63
-63
-64
-64
-64
-65
-64
-63
-63
-63
-64
-65
-65
-64
-63
-62
-62
-62
-62
-61
-60
-59
-59
-60
-61
-61
-59
-59
-58
-59
-59
-60
-60
-60
-60
-61
-61
-63
-65
-65
-65
-64
-66
-67
-69
-69
-69
-69
-69
-70
-70
-70
-70
-69
-68
-67
-67
-67
-67
-67
-65
-65
-64
-65
-64
-64
-64
-62
-62
-61
-62
-62
-62
-62
-61
-60
-61
-61
-61
-61
-60
-58
-58
-59
-59
-60
-60
-59
-60
-60
-61
-63
-63
-63
-62
-62
-63
-64
-66
-66
-65
-64
-65
-66
-66
-66
-66
-64
-63
-63
-63
-63
-63
-63
-62
-62
-62
-62
-63
-63
-62
-61
-62
-64
-64
-65
-65
-65
-64
-65
-65
-66
-65
-64
-63
-62
-63
-63
-63
-63
-62
-62
-62
-63
-64
-65
-64
-64
-65
-66
-67
-68
-68
-69
-68
-68
-69
-69
-70
-70
-70
-69
-68
-69
-69
-70
-69
-68
-68
-68
-69
-69
-69
-69
-68
-69
-69
-70
-71
-72
-71
-71
-72
-74
-74
-76
-76
-76
-76
-77
-79
-79
-80
-80
-80
-80
-82
-84
-86
-86
-86
-86
-87
-87
-89
-89
-88
-87
-86
-86
-86
-87
-85
-84
-83
-82
-82
-82
-82
-81
-80
-79
-79
-80
-80
-81
-80
-80
-80
-81
-81
-81
-81
-80
-78
-78
-77
-78
-77
-75
-73
-72
-71
-71
-71
-70
-68
-66
-65
-64
-65
-65
-63
-62
-61
-61
-60
-61
-61
-60
-59
-58
-59
-59
-59
-59
-58
-57
-57
-57
-57
-58
-57
-57
-57
-57
-57
-58
-59
-58
-58
-58
-58
-60
-60
-61
-61
-61
-61
-62
-62
-64
-63
-63
-63
-63
-63
-64
-65
-65
-64
-63
-63
-64
-65
-65
-65
-64
-63
-64
-64
-64
-64
-64
-62
-62
-63
-64
-64
-63
-62
-62
-61
-62
-62
-62
-61
-60
-59
-59
-60
-59
-58
-57
-55
-55
-55
-56
-56
-56
-55
-55
-56
-57
-58
-60
-62
-64
-66
-70
-76
-81
-86
-92
-97
-104
-111
-120
-128
-135
-143
-151
-160
-169
-178
-186
-194
-200
-207
-213
-220
-224
-229
-232
-234
-236
-237
-238
-237
-236
-232
-229
-225
-221
-218
-211
-205
-197
-190
-183
-176
-169
-160
-152
-143
-136
-128
-122
-116
-108
-102
-94
-88
-84
-80
-75
-71
-66
-62
-60
-58
-56
-54
-52
-50
-48
-48
-48
-49
-48
-48
-47
-48
-49
-51
-52
-52
-52
-53
-55
-55
-56
-57
-58
-57
-58
-58
-60
-60
-61
-60
-60
-60
-61
-62
-62
-61
-60
-60
-60
-61
-61
-60
-60
-59
-59
-60
-61
-62
-61
-61
-61
-61
-63
-64
-64
-64
-64
-64
-65
-66
-66
-67
-66
-65
-65
-66
-66
-67
-67
-65
-65
-65
-66
-66
-67
-66
-64
-65
-65
-65
-65
-65
-64
-64
-63
-64
-64
-65
-64
-64
-63
-63
-64
-64
-64
-64
-63
-62
-63
-64
-64
-64
-63
-63
-62
-64
-63
-64
-64
-62
-62
-62
-63
-64
-63
-63
-62
-62
-63
-64
-64
-64
-63
-62
-62
-63
-64
-64
-64
-64
-63
-64
-65
-66
-66
-65
-66
-65
-65
-66
-67
-67
-66
-65
-66
-67
-67
-68
-68
-67
-67
-67
-68
-69
-69
-68
-68
-67
-68
-69
-69
-69
-67
-67
-66
-66
-66
-66
-66
-65
-64
-65
-66
-67
-68
-67
-67
-66
-67
-68
-69
-70
-69
-69
-70
-71
-71
-72
-72
-71
-71
-71
-72
-72
-72
-72
-71
-70
-70
-71
-71
-70
-71
-69
-70
-70
-70
-71
-70
-69
-69
-69
-70
-71
-71
-71
-71
-71
-71
-72
-73
-72
-72
-71
-71
-73
-74
-76
-75
-75
-75
-75
-76
-78
-78
-77
-77
-77
-79
-79
-80
-79
-79
-78
-78
-79
-80
-80
-80
-79
-79
-80
-81
-82
-82
-82
-82
-83
-84
-85
-87
-87
-87
-86
-87
-88
-90
-90
-91
-91
-91
-92
-92
-93
-94
-93
-92
-92
-93
-94
-95
-94
-94
-93
-94
-95
-95
-96
-97
-95
-96
-97
-98
-98
-99
-100
-99
-101
-102
-103
-105
-105
-104
-105
-105
-106
-107
-108
-108
-107
-107
-107
-108
-108
-109
-108
-108
-107
-107
-108
-108
-107
-106
-104
-104
-104
-105
-105
-104
-104
-103
-104
-105
-104
-104
-103
-102
-102
-102
-102
-102
-102
-101
-100
-99
-98
-98
-98
-97
-95
-94
-93
-94
-94
-94
-92
-92
-91
-91
-90
-90
-89
-87
-87
-85
-86
-86
-86
-85
-84
-83
-84
-84
-85
-85
-83
-83
-83
-83
-84
-84
-83
-83
-82
-82
-82
-82
-82
-82
-81
-80
-80
-80
-81
-80
-79
-77
-77
-77
-78
-77
-76
-75
-73
-73
-73
-74
-73
-73
-71
-71
-71
-71
-71
-71
-71
-70
-69
-71
-71
-72
-71
-70
-70
-70
-72
-73
-73
-73
-72
-72
-72
-73
-73
-73
-71
-71
-70
-70
-70
-71
-70
-69
-67
-67
-67
-67
-67
-67
-66
-65
-66
-66
-68
-67
-67
-67
-67
-67
-68
-70
-69
-69
-68
-68
-70
-71
-72
-71
-71
-70
-71
-71
-72
-72
-72
-72
-71
-72
-73
-73
-73
-72
-71
-71
-71
-73
-72
-72
-72
-71
-71
-71
-71
-71
-70
-69
-68
-70
-70
-70
-69
-68
-68
-68
-68
-69
-70
-69
-68
-69
-69
-71
-71
-72
-72
-71
-71
-71
-72
-72
-71
-71
-70
-70
-70
-71
-71
-70
-69
-69
-69
-70
-70
-70
-70
-69
-69
-69
-71
-70
-71
-70
-68
-69
-69
-69
-69
-69
-68
-68
-67
-68
-69
-69
-67
-67
-66
-67
-68
-68
-68
-67
-67
-67
-68
-69
-69
-69
-68
-68
-69
-70
-71
-71
-71
-70
-71
-71
-73
-72
-72
-71
-69
-69
-69
-69
-69
-68
-67
-67
-66
-67
-66
-65
-64
-62
-62
-62
-62
-62
-62
-60
-60
-60
-61
-62
-63
-63
-64
-63
-64
-66
-68
-68
-69
-69
-69
-70
-71
-72
-72
-72
-72
-72
-72
-73
-73
-72
-71
-70
-71
-71
-71
-71
-71
-69
-70
-69
-70
-70
-69
-68
-67
-67
-67
-67
-67
-66
-65
-65
-65
-66
-67
-67
-66
-65
-65
-66
-67
-67
-67
-67
-67
-67
-68
-69
-70
-69
-68
-69
-69
-70
-71
-71
-70
-70
-70
-70
-71
-70
-70
-69
-67
-66
-65
-65
-65
-63
-61
-60
-60
-60
-60
-59
-59
-58
-57
-58
-59
-60
-60
-60
-60
-61
-63
-65
-67
-67
-68
-68
-69
-70
-72
-72
-71
-71
-70
-72
-72
-72
-71
-70
-68
-68
-69
-70
-69
-69
-68
-67
-68
-68
-69
-69
-67
-67
-66
-67
-68
-67
-66
-65
-64
-63
-63
-63
-63
-61
-60
-59
-59
-59
-59
-59
-58
-57
-57
-59
-60
-61
-61
-61
-61
-62
-64
-66
-66
-68
-67
-68
-69
-71
-72
-72
-71
-71
-71
-72
-73
-73
-72
-71
-70
-70
-70
-71
-71
-70
-69
-69
-68
-69
-69
-69
-68
-68
-67
-68
-69
-69
-69
-67
-67
-67
-68
-68
-69
-67
-67
-66
-66
-68
-68
-68
-67
-66
-66
-66
-67
-67
-66
-65
-64
-64
-64
-66
-65
-65
-64
-63
-64
-64
-65
-65
-65
-64
-64
-65
-65
-66
-65
-64
-63
-63
-64
-65
-65
-64
-63
-62
-63
-63
-64
-64
-63
-62
-61
-62
-63
-64
-63
-63
-63
-63
-64
-66
-65
-65
-65
-66
-67
-68
-69
-69
-69
-68
-68
-69
-70
-70
-69
-68
-68
-68
-68
-68
-69
-67
-67
-66
-67
-68
-68
-68
-68
-68
-67
-68
-68
-69
-69
-68
-67
-67
-68
-68
-68
-67
-66
-65
-66
-67
-67
-67
-67
-65
-65
-67
-69
-69
-69
-69
-69
-70
-70
-73
-72
-72
-72
-72
-73
-74
-74
-74
-73
-73
-73
-73
-74
-73
-73
-72
-71
-71
-72
-73
-74
-74
-73
-73
-74
-75
-76
-76
-75
-75
-76
-77
-78
-79
-79
-78
-78
-78
-80
-82
-83
-83
-83
-84
-85
-86
-87
-88
-89
-90
-91
-92
-93
-93
-94
-93
-92
-92
-93
-94
-94
-92
-91
-90
-90
-91
-91
-90
-89
-87
-86
-86
-87
-87
-85
-84
-83
-82
-83
-82
-81
-79
-77
-75
-74
-73
-72
-71
-70
-67
-66
-65
-65
-63
-61
-60
-58
-57
-57
-57
-57
-56
-55
-55
-56
-56
-57
-57
-57
-57
-57
-58
-59
-60
-60
-60
-60
-60
-61
-62
-62
-62
-62
-61
-62
-63
-63
-63
-63
-62
-62
-63
-64
-64
-64
-62
-62
-62
-63
-63
-63
-63
-62
-61
-61
-61
-62
-62
-60
-60
-59
-59
-59
-59
-58
-57
-56
-55
-56
-57
-57
-55
-55
-54
-55
-56
-57
-57
-57
-56
-56
-57
-58
-59
-58
-57
-56
-57
-57
-59
-59
-58
-57
-57
-58
-59
-60
-61
-61
-62
-65
-68
-71
-76
-79
-84
-88
-95
-101
-110
-117
-124
-132
-140
-149
-158
-168
-177
-185
-192
-200
-208
-215
-221
-226
-230
-233
-235
-239
-241
-242
-241
-239
-237
-234
-232
-228
-222
-217
-209
-203
-197
-192
-185
-177
-169
-161
-153
-146
-140
-132
-124
-116
-109
-103
-97
-92
-86
-81
-75
-71
-68
-66
-64
-61
-58
-55
-54
-54
-53
-53
-52
-52
-52
-53
-54
-54
-55
-55
-55
-55
-56
-58
-58
-57
-57
-55
-56
-56
-57
-57
-56
-55
-54
-54
-55
-55
-55
-55
-53
-53
-55
-55
-56
-55
-54
-54
-55
-55
-57
-57
-56
-56
-56
-57
-59
-59
-59
-59
-59
-59
-61
-62
-63
-63
-62
-61
-61
-62
-63
-64
-62
-62
-61
-62
-62
-63
-63
-61
-60
-60
-60
-61
-61
-59
-58
-58
-58
-58
-59
-59
-57
-57
-57
-57
-57
-58
-58
-58
-57
-58
-58
-60
-61
-61
-61
-61
-61
-61
-62
-63
-62
-62
-62
-63
-64
-64
-64
-64
-62
-62
-62
-63
-62
-60
-59
-58
-58
-58
-59
-59
-58
-58
-57
-58
-59
-60
-61
-60
-60
-61
-61
-63
-63
-64
-63
-63
-64
-65
-66
-67
-67
-66
-65
-66
-67
-68
-68
-68
-66
-67
-68
-69
-69
-68
-68
-67
-67
-68
-69
-69
-68
-67
-67
-67
-68
-68
-67
-66
-65
-65
-65
-65
-66
-65
-64
-64
-64
-65
-65
-66
-64
-64
-64
-64
-66
-66
-66
-66
-66
-66
-67
-68
-68
-68
-67
-66
-66
-68
-68
-68
-68
-67
-67
-68
-68
-70
-70
-68
-68
-68
-69
-70
-69
-69
-68
-67
-68
-70
-71
-71
-70
-69
-70
-71
-71
-73
-73
-72
-71
-72
-72
-73
-73
-73
-72
-72
-72
-73
-74
-74
-74
-74
-74
-75
-77
-77
-78
-78
-78
-79
-81
-83
-84
-85
-84
-85
-85
-87
-88
-88
-88
-88
-87
-88
-89
-90
-90
-89
-88
-89
-90
-90
-91
-90
-90
-90
-91
-92
-94
-95
-95
-95
-95
-97
-98
-99
-99
-100
-99
-100
-101
-102
-103
-102
-101
-101
-101
-101
-102
-103
-102
-101
-101
-101
-102
-102
-102
-101
-100
-100
-100
-102
-102
-101
-100
-100
-100
-101
-101
-102
-101
-101
-100
-101
-101
-101
-101
-100
-100
-100
-100
-101
-101
-100
-99
-97
-97
-98
-98
-96
-95
-93
-92
-93
-92
-92
-90
-89
-87
-86
-86
-86
-86
-85
-83
-83
-82
-82
-82
-82
-80
-79
-79
-80
-79
-80
-78
-77
-76
-76
-76
-75
-75
-74
-73
-71
-71
-72
-72
-71
-70
-69
-69
-69
-70
-71
-71
-71
-69
-70
-71
-72
-72
-72
-71
-69
-69
-69
-70
-70
-69
-69
-68
-68
-68
-69
-68
-67
-67
-66
-67
-69
-69
-68
-68
-67
-68
-69
-70
-70
-69
-69
-69
-69
-70
-71
-71
-70
-70
-69
-70
-71
-70
-70
-69
-69
-69
-69
-69
-69
-68
-67
-68
-68
-69
-68
-68
-67
-66
-66
-66
-66
-66
-66
-65
-64
-65
-66
-66
-66
-66
-65
-65
-65
-66
-66
-66
-65
-64
-63
-64
-64
-64
-62
-61
-60
-59
-59
-59
-59
-59
-57
-57
-58
-59
-60
-59
-60
-60
-60
-62
-64
-64
-64
-64
-64
-65
-67
-67
-67
-67
-66
-66
-66
-67
-66
-67
-66
-64
-64
-65
-65
-65
-63
-62
-61
-61
-61
-61
-62
-60
-60
-60
-61
-62
-62
-62
-61
-61
-61
-62
-62
-63
-62
-62
-62
-62
-63
-63
-63
-62
-62
-61
-62
-62
-63
-62
-61
-60
-60
-60
-62
-62
-61
-60
-60
-60
-61
-62
-63
-62
-61
-62
-62
-63
-64
-64
-63
-63
-64
-65
-65
-65
-64
-63
-63
-62
-62
-63
-63
-61
-61
-60
-60
-61
-62
-61
-60
-59
-59
-59
-60
-59
-58
-57
-57
-57
-57
-57
-58
-57
-56
-56
-57
-57
-58
-59
-58
-57
-58
-58
-59
-59
-58
-58
-57
-57
-57
-57
-57
-55
-54
-53
-53
-54
-54
-53
-52
-51
-51
-52
-53
-54
-53
-53
-54
-55
-57
-58
-59
-60
-59
-60
-62
-63
-64
-63
-64
-63
-63
-63
-64
-63
-63
-62
-61
-61
-61
-60
-60
-60
-58
-58
-58
-59
-59
-59
-57
-57
-56
-57
-58
-58
-58
-57
-56
-56
-57
-58
-57
-57
-55
-56
-56
-56
-57
-57
-56
-55
-56
-56
-57
-57
-56
-55
-55
-54
-56
-56
-56
-54
-54
-53
-54
-55
-55
-55
-55
-54
-54
-55
-56
-56
-55
-54
-54
-54
-55
-56
-56
-55
-55
-55
-55
-55
-56
-56
-54
-54
-54
-55
-55
-55
-54
-53
-53
-53
-54
-55
-55
-54
-54
-53
-53
-55
-54
-55
-54
-54
-54
-56
-56
-58
-57
-57
-56
-56
-58
-59
-59
-58
-58
-58
-59
-60
-60
-59
-58
-57
-57
-57
-58
-58
-57
-56
-54
-55
-55
-55
-54
-53
-53
-52
-52
-54
-54
-54
-54
-53
-53
-54
-55
-55
-54
-54
-53
-54
-55
-56
-56
-56
-55
-55
-55
-55
-55
-55
-54
-52
-52
-52
-53
-53
-52
-51
-51
-50
-51
-51
-52
-51
-51
-51
-53
-54
-55
-56
-56
-56
-57
-59
-60
-60
-60
-59
-59
-60
-60
-61
-61
-60
-58
-58
-57
-58
-58
-57
-56
-54
-54
-54
-54
-54
-52
-51
-51
-51
-51
-51
-51
-50
-51
-51
-52
-52
-54
-54
-54
-54
-55
-56
-58
-58
-57
-57
-57
-58
-59
-59
-59
-59
-58
-58
-57
-58
-58
-57
-56
-55
-55
-56
-56
-55
-54
-53
-53
-53
-54
-54
-54
-53
-52
-52
-53
-54
-54
-54
-53
-53
-53
-55
-55
-55
-55
-55
-54
-55
-55
-56
-56
-55
-54
-54
-55
-55
-55
-56
-55
-55
-55
-55
-56
-56
-56
-55
-54
-55
-56
-58
-58
-58
-57
-58
-58
-60
-59
-60
-58
-58
-59
-60
-61
-62
-62
-61
-61
-62
-63
-64
-65
-64
-64
-65
-66
-67
-68
-69
-69
-70
-70
-71
-73
-73
-73
-73
-72
-73
-74
-76
-76
-76
-75
-75
-76
-78
-79
-78
-78
-77
-78
-79
-80
-80
-80
-79
-78
-78
-79
-80
-80
-79
-77
-77
-77
-77
-76
-75
-73
-72
-71
-72
-71
-70
-69
-67
-66
-65
-64
-64
-62
-60
-59
-57
-58
-57
-57
-55
-54
-54
-53
-52
-52
-52
-52
-50
-50
-50
-51
-50
-50
-51
-49
-50
-50
-50
-51
-51
-50
-51
-51
-50
-50
-50
-50
-50
-49
-49
-50
-50
-50
-49
-47
-48
-48
-49
-50
-50
-49
-49
-50
-49
-51
-50
-50
-50
-50
-50
-51
-52
-52
-51
-50
-50
-51
-52
-51
-51
-49
-49
-49
-48
-48
-48
-48
-47
-47
-47
-48
-48
-47
-46
-46
-46
-47
-49
-50
-49
-48
-48
-48
-49
-50
-50
-48
-47
-47
-47
-48
-47
-47
-45
-45
-46
-46
-48
-50
-51
-54
-56
-58
-63
-69
-74
-78
-83
-90
-97
-106
-115
-123
-130
-139
-148
-158
-167
-177
-185
-192
-199
-206
-214
-221
-225
-228
-231
-232
-234
-236
-236
-233
-231
-227
-222
-218
-212
-206
-198
-190
-181
-173
-164
-157
-148
-138
-129
-120
-113
-106
-99
-92
-84
-77
-71
-67
-63
-59
-56
-52
-48
-46
-44
-43
-42
-39
-37
-35
-35
-35
-35
-35
-34
-34
-35
-35
-36
-36
-36
-36
-36
-37
-38
-39
-40
-40
-40
-39
-39
-40
-41
-40
-40
-41
-41
-42
-43
-43
-43
-42
-41
-42
-43
-44
-44
-44
-43
-44
-44
-46
-48
-47
-47
-46
-46
-46
-47
-47
-47
-45
-45
-45
-45
-45
-45
-43
-42
-41
-42
-43
-43
-43
-42
-42
-42
-42
-42
-43
-44
-43
-44
-44
-46
-46
-46
-46
-46
-46
-47
-48
-48
-48
-47
-47
-46
-48
-48
-49
-48
-48
-47
-48
-48
-49
-49
-48
-46
-47
-47
-48
-49
-49
-48
-48
-48
-48
-49
-50
-50
-49
-49
-50
-50
-50
-50
-49
-48
-49
-49
-49
-50
-50
-49
-48
-47
-47
-47
-48
-47
-46
-46
-46
-47
-47
-47
-46
-45
-44
-45
-45
-45
-45
-44
-44
-44
-46
-47
-47
-47
-46
-46
-47
-49
-50
-49
-50
-49
-50
-51
-52
-53
-54
-53
-53
-53
-55
-55
-55
-55
-54
-54
-54
-55
-56
-56
-54
-54
-53
-53
-54
-55
-54
-52
-52
-52
-52
-53
-52
-52
-51
-50
-51
-52
-53
-53
-53
-52
-53
-53
-54
-55
-55
-56
-55
-56
-57
-58
-59
-59
-59
-59
-60
-60
-61
-61
-60
-60
-59
-60
-59
-61
-60
-60
-59
-59
-59
-59
-60
-59
-58
-59
-59
-60
-61
-61
-61
-61
-61
-62
-64
-65
-66
-66
-66
-66
-68
-69
-70
-70
-70
-71
-71
-72
-74
-74
-73
-72
-72
-71
-72
-72
-72
-72
-72
-71
-73
-74
-74
-74
-73
-73
-74
-76
-78
-78
-78
-79
-80
-81
-84
-85
-86
-86
-86
-87
-88
-90
-90
-91
-90
-90
-90
-91
-92
-91
-90
-89
-89
-90
-91
-92
-90
-90
-89
-89
-90
-89
-90
-90
-89
-89
-89
-90
-92
-91
-90
-89
-89
-89
-90
-90
-90
-89
-89
-89
-89
-89
-89
-88
-86
-86
-86
-86
-86
-85
-84
-82
-82
-81
-81
-82
-81
-80
-78
-77
-77
-78
-78
-77
-75
-75
-74
-74
-74
-73
-71
-70
-69
-68
-68
-68
-68
-66
-65
-65
-65
-65
-65
-64
-63
-63
-63
-64
-64
-64
-64
-63
-63
-63
-63
-64
-64
-63
-63
-63
-63
-64
-63
-62
-61
-60
-60
-60
-61
-60
-59
-58
-57
-57
-57
-57
-57
-55
-54
-55
-55
-56
-57
-56
-56
-55
-55
-56
-57
-56
-57
-56
-55
-56
-57
-57
-57
-56
-56
-56
-57
-57
-57
-57
-56
-56
-56
-57
-58
-57
-56
-55
-55
-55
-55
-56
-55
-55
-53
-53
-54
-54
-54
-53
-52
-51
-52
-52
-53
-53
-52
-52
-51
-52
-52
-52
-53
-53
-53
-54
-53
-54
-55
-54
-54
-54
-54
-54
-55
-54
-54
-54
-54
-53
-53
-53
-52
-52
-51
-50
-50
-50
-51
-50
-49
-49
-49
-48
-48
-47
-48
-46
-46
-46
-47
-47
-47
-45
-45
-45
-46
-47
-48
-48
-48
-48
-49
-50
-51
-52
-50
-50
-51
-52
-53
-53
-52
-51
-51
-51
-51
-52
-52
-52
-52
-51
-51
-52
-53
-52
-52
-51
-51
-52
-53
-54
-54
-53
-54
-53
-54
-54
-54
-53
-53
-53
-54
-54
-53
-54
-53
-53
-52
-52
-53
-53
-53
-53
-52
-53
-53
-53
-54
-53
-53
-53
-52
-53
-54
-53
-53
-51
-51
-51
-52
-51
-51
-50
-50
-50
-50
-50
-50
-50
-49
-48
-49
-49
-49
-48
-48
-47
-47
-48
-49
-50
-49
-48
-49
-49
-50
-51
-52
-51
-51
-51
-51
-51
-52
-51
-50
-51
-51
-50
-51
-50
-50
-49
-48
-48
-48
-47
-47
-47
-46
-45
-45
-46
-47
-46
-46
-45
-46
-47
-48
-48
-48
-47
-47
-48
-48
-49
-49
-50
-49
-49
-49
-49
-49
-49
-48
-48
-46
-46
-46
-46
-45
-45
-44
-44
-44
-44
-43
-44
-44
-43
-44
-45
-44
-45
-45
-44
-45
-45
-47
-48
-48
-47
-47
-48
-49
-50
-51
-50
-49
-49
-50
-51
-50
-50
-50
-50
-50
-50
-50
-50
-49
-50
-50
-49
-50
-50
-49
-49
-48
-48
-49
-48
-48
-48
-48
-48
-47
-47
-47
-48
-47
-48
-47
-48
-48
-49
-49
-49
-49
-48
-49
-49
-50
-50
-50
-50
-50
-50
-50
-49
-50
-48
-47
-46
-46
-46
-47
-46
-44
-44
-44
-45
-45
-44
-43
-42
-42
-43
-44
-44
-44
-44
-44
-45
-45
-46
-47
-47
-47
-46
-47
-48
-49
-49
-48
-48
-47
-48
-49
-49
-48
-48
-47
-47
-48
-47
-48
-47
-46
-45
-45
-45
-46
-45
-45
-45
-45
-45
-45
-46
-45
-45
-46
-46
-48
-49
-50
-50
-50
-50
-50
-52
-52
-52
-51
-51
-50
-51
-52
-52
-52
-51
-51
-51
-51
-52
-52
-52
-50
-51
-51
-51
-52
-51
-50
-49
-48
-49
-48
-48
-48
-47
-47
-46
-47
-46
-46
-46
-46
-46
-46
-46
-47
-47
-47
-46
-46
-48
-49
-49
-49
-49
-48
-49
-50
-50
-50
-49
-49
-48
-48
-49
-49
-49
-48
-47
-47
-48
-49
-50
-48
-48
-47
-48
-48
-48
-48
-48
-46
-45
-47
-48
-48
-48
-48
-46
-47
-48
-49
-50
-50
-50
-50
-51
-53
-54
-55
-56
-55
-56
-57
-58
-58
-58
-57
-56
-57
-58
-59
-59
-59
-58
-57
-58
-58
-58
-58
-58
-57
-57
-57
-59
-60
-60
-59
-59
-60
-61
-62
-64
-63
-64
-65
-66
-67
-70
-71
-71
-72
-72
-75
-75
-77
-78
-77
-78
-77
-78
-80
-81
-79
-78
-78
-78
-78
-78
-78
-77
-75
-73
-74
-73
-73
-72
-69
-68
-67
-67
-66
-66
-64
-62
-61
-61
-60
-60
-59
-58
-57
-55
-54
-55
-54
-52
-51
-50
-49
-49
-49
-49
-48
-47
-46
-46
-46
-47
-47
-46
-45
-46
-47
-48
-48
-48
-47
-47
-47
-47
-48
-48
-48
-46
-47
-46
-47
-47
-47
-46
-46
-45
-46
-47
-48
-47
-45
-44
-44
-46
-47
-47
-46
-46
-46
-46
-47
-47
-47
-47
-45
-44
-45
-45
-45
-45
-43
-43
-42
-43
-44
-45
-44
-44
-43
-45
-46
-48
-48
-48
-48
-47
-49
-50
-51
-50
-50
-49
-49
-49
-51
-50
-48
-47
-46
-46
-46
-46
-46
-45
-44
-44
-45
-46
-47
-48
-49
-50
-53
-56
-61
-65
-70
-74
-79
-85
-92
-99
-106
-113
-121
-128
-137
-146
-156
-164
-171
-179
-188
-195
-203
-210
-215
-220
-224
-228
-232
-235
-235
-235
-233
-230
-228
-225
-222
-216
-209
-202
-196
-190
-184
-176
-168
-159
-151
-143
-136
-129
-121
-114
-106
-99
-93
-87
-81
-75
-70
-64
-59
-56
-53
-50
-46
-42
-39
-37
-37
-36
-36
-35
-34
-34
-35
-35
-35
-36
-36
-35
-36
-37
-39
-40
-41
-41
-41
-43
-43
-43
-44
-44
-43
-44
-45
-46
-47
-47
-46
-45
-46
-47
-49
-50
-50
-50
-49
-51
-53
-53
-54
-54
-54
-55
-56
-57
-58
-58
-57
-56
-56
-58
-59
-58
-58
-57
-57
-56
-58
-58
-57
-57
-56
-56
-57
-58
-58
-58
-59
-58
-59
-60
-61
-63
-63
-62
-63
-64
-65
-66
-66
-66
-66
-66
-67
-68
-68
-69
-67
-67
-66
-67
-67
-67
-67
-65
-65
-65
-65
-65
-65
-65
-65
-64
-65
-66
-66
-65
-64
-64
-64
-65
-65
-65
-64
-63
-63
-64
-65
-65
-65
-65
-65
-65
-66
-67
-68
-68
-67
-67
-68
-68
-70
-71
-69
-69
-69
-70
-70
-70
-70
-70
-69
-68
-68
-69
-69
-68
-67
-66
-66
-66
-66
-67
-66
-66
-66
-66
-68
-69
-70
-70
-70
-71
-73
-74
-75
-75
-75
-75
-76
-77
-79
-80
-80
-79
-79
-79
-80
-80
-80
-79
-78
-77
-77
-78
-77
-77
-75
-74
-74
-76
-76
-77
-76
-75
-75
-76
-76
-77
-77
-77
-76
-77
-77
-78
-78
-78
-78
-77
-77
-78
-79
-80
-80
-80
-80
-81
-82
-83
-84
-83
-84
-84
-85
-87
-87
-88
-88
-88
-88
-89
-91
-92
-91
-91
-91
-92
-93
-94
-94
-93
-93
-93
-95
-96
-97
-97
-97
-97
-97
-98
-99
-100
-99
-97
-97
-98
-99
-100
-99
-99
-99
-99
-99
-100
-100
-99
-99
-99
-98
-100
-102
-102
-102
-102
-103
-104
-106
-107
-108
-108
-108
-109
-112
-113
-114
-115
-115
-114
-115
-116
-118
-118
-117
-117
-117
-117
-118
-119
-119
-118
-117
-117
-116
-117
-117
-116
-115
-114
-113
-113
-113
-114
-113
-111
-111
-111
-112
-112
-113
-111
-111
-111
-111
-112
-113
-113
-112
-111
-112
-112
-114
-114
-113
-113
-113
-114
-114
-114
-114
-113
-112
-112
-112
-112
-113
-112
-110
-109
-109
-109
-108
-108
-107
-105
-104
-104
-104
-104
-103
-101
-100
-98
-98
-99
-99
-97
-95
-94
-92
-93
-92
-92
-91
-89
-89
-89
-90
-89
-90
-88
-88
-88
-88
-89
-89
-88
-87
-87
-87
-87
-87
-88
-87
-87
-86
-85
-85
-86
-85
-84
-82
-83
-83
-84
-84
-83
-82
-80
-80
-82
-82
-82
-82
-81
-81
-82
-82
-83
-83
-83
-83
-83
-84
-86
-85
-86
-84
-85
-85
-86
-87
-87
-86
-85
-85
-85
-86
-86
-85
-85
-84
-83
-83
-84
-84
-84
-83
-81
-81
-82
-82
-83
-82
-82
-81
-83
-83
-85
-85
-84
-83
-84
-85
-86
-87
-86
-85
-84
-85
-86
-87
-87
-87
-86
-85
-86
-87
-88
-88
-87
-86
-86
-86
-88
-88
-87
-86
-86
-85
-87
-87
-88
-86
-85
-85
-84
-86
-85
-85
-84
-83
-83
-83
-84
-84
-83
-82
-81
-81
-81
-82
-81
-81
-81
-81
-82
-82
-83
-83
-83
-81
-81
-83
-84
-84
-85
-84
-84
-84
-84
-86
-86
-86
-85
-84
-85
-86
-87
-88
-87
-86
-85
-86
-87
-88
-87
-87
-86
-86
-87
-88
-87
-87
-85
-85
-85
-85
-85
-85
-84
-84
-83
-84
-84
-85
-84
-83
-82
-82
-83
-83
-84
-84
-82
-82
-84
-84
-85
-85
-85
-83
-83
-84
-85
-85
-85
-83
-83
-83
-83
-83
-83
-83
-82
-81
-82
-84
-84
-84
-84
-83
-83
-85
-86
-87
-87
-87
-87
-88
-89
-90
-91
-91
-90
-90
-90
-91
-92
-92
-90
-90
-89
-90
-89
-89
-88
-86
-85
-85
-85
-86
-86
-85
-85
-85
-85
-86
-87
-87
-87
-85
-86
-87
-88
-88
-88
-87
-87
-87
-88
-88
-88
-86
-85
-85
-85
-86
-86
-86
-86
-84
-84
-85
-86
-86
-85
-85
-85
-86
-87
-88
-88
-88
-87
-88
-88
-88
-89
-88
-88
-87
-86
-88
-87
-87
-86
-85
-84
-84
-85
-86
-86
-85
-84
-85
-85
-86
-86
-86
-86
-86
-86
-88
-88
-89
-89
-88
-88
-88
-90
-90
-91
-90
-88
-89
-89
-89
-90
-89
-88
-88
-88
-88
-89
-88
-88
-86
-86
-86
-87
-88
-89
-88
-86
-87
-87
-88
-90
-90
-89
-88
-88
-89
-90
-90
-89
-88
-87
-88
-88
-89
-89
-87
-86
-86
-87
-88
-88
-88
-87
-87
-87
-88
-89
-89
-88
-88
-88
-88
-89
-90
-91
-90
-90
-90
-90
-92
-92
-92
-91
-90
-90
-91
-91
-92
-90
-89
-89
-88
-90
-90
-89
-88
-87
-87
-88
-88
-89
-89
-87
-87
-86
-88
-88
-88
-87
-87
-85
-86
-88
-88
-89
-88
-87
-87
-89
-90
-90
-90
-91
-90
-90
-91
-92
-93
-93
-91
-91
-90
-92
-93
-93
-92
-91
-91
-92
-92
-93
-93
-91
-91
-90
-92
-93
-93
-93
-92
-92
-92
-92
-94
-94
-93
-91
-92
-92
-93
-93
-93
-93
-93
-93
-94
-95
-94
-94
-93
-92
-93
-93
-94
-95
-94
-92
-92
-92
-93
-93
-92
-92
-91
-91
-90
-91
-91
-91
-91
-90
-91
-93
-95
-95
-96
-96
-97
-99
-100
-102
-102
-102
-102
-103
-105
-106
-107
-106
-105
-105
-105
-106
-107
-108
-107
-106
-106
-108
-109
-110
-111
-110
-110
-111
-113
-115
-116
-116
-116
-116
-117
-119
-120
-120
-119
-118
-118
-119
-119
-119
-118
-117
-116
-116
-116
-117
-117
-115
-114
-113
-113
-114
-114
-114
-112
-111
-111
-112
-112
-113
-113
-112
-111
-111
-110
-111
-111
-109
-107
-106
-105
-105
-104
-104
-102
-101
-100
-99
-99
-98
-97
-96
-94
-94
-94
-94
-94
-93
-92
-91
-92
-92
-93
-93
-93
-91
-92
-92
-93
-94
-94
-94
-93
-93
-94
-95
-95
-94
-93
-92
-92
-93
-94
-94
-92
-91
-91
-91
-92
-93
-92
-91
-90
-90
-91
-92
-92
-91
-91
-91
-91
-92
-93
-94
-94
-94
-94
-94
-96
-98
-98
-98
-97
-98
-99
-100
-100
-100
-98
-98
-99
-99
-99
-99
-97
-96
-95
-95
-96
-96
-95
-93
-92
-91
-91
-92
-92
-91
-91
-91
-91
-92
-94
-95
-95
-96
-97
-101
-105
-109
-112
-116
-120
-126
-133
-139
-147
-153
-160
-167
-176
-185
-195
-203
-211
-219
-228
-236
-245
-251
-257
-262
-266
-270
-273
-276
-278
-276
-275
-272
-271
-269
-265
-260
-254
-247
-241
-235
-228
-222
-214
-206
-197
-189
-183
-177
-170
-161
-154
-148
-142
-137
-132
-127
-122
-116
-112
-108
-106
-102
-98
-95
-92
-89
-88
-87
-85
-84
-82
-80
-79
-79
-79
-79
-79
-79
-79
-80
-82
-84
-85
-85
-86
-88
-90
-92
-94
-94
-95
-96
-97
-99
-101
-102
-102
-101
-101
-102
-102
-103
-102
-102
-101
-100
-100
-100
-100
-100
-99
-98
-98
-99
-99
-101
-99
-99
-99
-100
-101
-103
-103
-103
-103
-103
-104
-105
-106
-105
-104
-103
-103
-104
-104
-104
-103
-102
-102
-102
-102
-102
-100
-100
-98
-97
-98
-99
-99
-97
-97
-97
-96
-97
-98
-98
-98
-98
-98
-99
-100
-101
-102
-102
-101
-102
-103
-104
-105
-105
-104
-105
-105
-106
-106
-107
-106
-105
-105
-105
-105
-105
-104
-103
-103
-102
-103
-103
-104
-102
-102
-102
-103
-103
-104
-105
-105
-104
-105
-106
-107
-109
-109
-109
-109
-111
-112
-113
-113
-113
-112
-112
-112
-113
-114
-114
-112
-112
-111
-112
-112
-112
-111
-110
-108
-108
-108
-109
-109
-108
-107
-106
-106
-107
-107
-107
-106
-106
-106
-106
-108
-108
-108
-108
-108
-108
-109
-111
-111
-111
-110
-110
-111
-112
-114
-114
-113
-113
-113
-114
-114
-116
-116
-115
-115
-115
-117
-117
-116
-116
-115
-114
-115
-115
-117
-116
-115
-114
-114
-114
-115
-115
-114
-114
-113
-112
-113
-115
-115
-115
-115
-115
-116
-117
-118
-119
-119
-119
-119
-121
-122
-124
-124
-124
-123
-124
-125
-126
-126
-126
-125
-124
-125
-125
-127
-127
-125
-125
-125
-126
-127
-128
-128
-128
-128
-129
-131
-132
-133
-132
-132
-133
-134
-136
-138
-138
-137
-138
-138
-139
-140
-141
-141
-140
-140
-140
-141
-142
-142
-142
-142
-142
-142
-143
-144
-144
-143
-143
-143
-145
-146
-146
-146
-145
-145
-146
-147
-147
-147
-147
-145
-145
-145
-146
-147
-147
-146
-146
-145
-145
-146
-146
-146
-146
-146
-145
-147
-148
-148
-147
-146
-146
-146
-147
-148
-148
-147
-146
-146
-146
-147
-146
-145
-144
-143
-143
-143
-143
-142
-140
-139
-138
-137
-137
-137
-136
-134
-133
-133
-133
-133
-134
-133
-133
-131
-131
-131
-132
-131
-131
-130
-128
-128
-129
-129
-128
-126
-124
-123
-123
-123
-123
-122
-120
-119
-119
-119
-119
-117
-117
-115
-115
-114
-116
-117
-117
-115
-115
-114
-114
-115
-115
-115
-114
-113
-113
-114
-114
-113
-113
-111
-111
-110
-111
-111
-111
-110
-109
-110
-110
-110
-110
-111
-110
-109
-109
-110
-111
-111
-110
-109
-108
-108
-110
-110
-110
-109
-108
-108
-108
-109
-109
-109
-108
-107
-107
-109
-109
-110
-109
-109
-109
-109
-110
-111
-111
-110
-109
-109
-111
-111
-112
-112
-112
-111
-112
-112
-113
-113
-112
-110
-111
-110
-111
-111
-111
-111
-110
-110
-110
-111
-111
-111
-110
-109
-110
-110
-111
-111
-109
-107
-107
-107
-108
-108
-108
-108
-106
-106
-106
-107
-107
-107
-107
-106
-106
-107
-108
-108
-108
-108
-107
-108
-108
-109
-110
-109
-108
-109
-110
-110
-111
-111
-110
-110
-110
-111
-111
-111
-111
-110
-109
-110
-111
-111
-111
-110
-108
-107
-108
-108
-108
-108
-107
-105
-106
-107
-107
-107
-106
-106
-106
-106
-107
-108
-108
-108
-107
-107
-108
-109
-109
-108
-108
-108
-108
-108
-109
-109
-107
-107
-106
-106
-107
-107
-107
-107
-106
-106
-107
-108
-107
-107
-106
-106
-106
-107
-107
-107
-106
-104
-104
-103
-104
-105
-104
-103
-103
-103
-103
-103
-104
-104
-104
-103
-104
-105
-106
-106
-106
-106
-107
-107
-108
-109
-109
-108
-108
-109
-109
-111
-110
-110
-109
-108
-108
-109
-109
-109
-108
-107
-106
-105
-105
-105
-105
-104
-103
-103
-104
-104
-104
-104
-103
-102
-102
-103
-105
-105
-105
-105
-104
-105
-107
-109
-109
-108
-108
-109
-110
-112
-111
-111
-111
-109
-110
-111
-111
-111
-109
-108
-107
-107
-106
-106
-106
-104
-102
-102
-102
-102
-102
-101
-100
-100
-100
-101
-102
-102
-101
-100
-100
-101
-102
-103
-104
-104
-104
-104
-105
-106
-107
-107
-106
-105
-106
-106
-107
-107
-105
-105
-104
-103
-104
-104
-102
-102
-100
-100
-100
-101
-101
-101
-99
-99
-99
-101
-101
-101
-101
-100
-100
-101
-102
-103
-104
-103
-102
-103
-103
-105
-105
-105
-105
-104
-104
-106
-106
-106
-105
-104
-104
-104
-106
-106
-106
-106
-105
-106
-107
-108
-108
-108
-106
-107
-106
-107
-108
-108
-107
-106
-105
-105
-106
-107
-106
-105
-104
-104
-105
-105
-105
-105
-104
-104
-104
-106
-107
-107
-106
-106
-106
-105
-107
-107
-106
-105
-105
-104
-105
-105
-105
-104
-102
-102
-101
-102
-102
-101
-100
-100
-99
-100
-100
-101
-101
-100
-99
-99
-101
-101
-102
-102
-101
-101
-102
-103
-103
-103
-103
-102
-102
-103
-104
-104
-104
-104
-102
-103
-103
-105
-105
-105
-104
-104
-104
-105
-105
-106
-106
-105
-104
-104
-105
-106
-106
-105
-104
-104
-105
-105
-106
-105
-104
-103
-104
-104
-105
-105
-104
-103
-103
-103
-104
-105
-104
-104
-103
-104
-105
-106
-106
-106
-106
-105
-107
-107
-108
-108
-109
-108
-108
-109
-110
-110
-110
-109
-109
-109
-109
-111
-110
-110
-109
-108
-108
-108
-109
-109
-108
-107
-107
-108
-109
-110
-110
-110
-109
-110
-111
-113
-113
-113
-113
-113
-114
-115
-117
-117
-117
-117
-117
-119
-120
-122
-122
-122
-123
-123
-125
-127
-128
-128
-128
-128
-129
-130
-131
-131
-130
-129
-129
-129
-129
-130
-129
-127
-125
-125
-125
-125
-123
-123
-121
-121
-120
-120
-121
-119
-118
-117
-116
-116
-117
-116
-116
-114
-113
-114
-114
-114
-113
-113
-111
-110
-110
-110
-110
-109
-107
-106
-105
-104
-104
-104
-103
-101
-100
-100
-101
-101
-101
-100
-99
-99
-99
-100
-101
-100
-100
-99
-98
-98
-100
-100
-99
-99
-98
-98
-99
-99
-100
-99
-98
-98
-98
-100
-100
-100
-100
-99
-99
-99
-100
-101
-100
-100
-99
-99
-100
-100
-100
-99
-99
-98
-97
-98
-98
-97
-95
-95
-94
-95
-96
-96
-96
-96
-96
-96
-97
-98
-98
-99
-99
-98
-99
-100
-101
-100
-99
-99
-98
-98
-99
-98
-97
-95
-93
-92
-92
-92
-92
-92
-91
-92
-93
-94
-97
-99
-101
-103
-107
-113
-119
-126
-132
-138
-145
-154
-163
-173
-182
-191
-199
-208
-217
-227
-235
-243
-250
-256
-262
-268
-273
-277
-280
-281
-282
-282
-283
-282
-281
-277
-273
-268
-263
-258
-253
-246
-238
-230
-222
-216
-208
-201
-192
-184
-176
-168
-162
-155
-148
-141
-134
-127
-122
-118
-113
-109
-104
-99
-96
-94
-91
-90
-87
-85
-83
-83
-84
-84
-84
-84
-83
-84
-85
-87
-88
-89
-89
-90
-91
-92
-94
-97
-97
-97
-97
-98
-99
-101
-101
-101
-100
-99
-101
-101
-101
-100
-100
-98
-97
-98
-99
-98
-98
-97
-96
-96
-98
-98
-98
-97
-97
-97
-98
-98
-98
-99
-98
-96
-96
-96
-97
-97
-96
-95
-94
-94
-95
-96
-95
-94
-94
-94
-94
-96
-97
-97
-97
-97
-98
-99
-100
-102
-101
-101
-102
-102
-104
-104
-105
-105
-104
-104
-104
-105
-105
-104
-103
-101
-101
-102
-102
-102
-101
-100
-100
-99
-99
-99
-99
-98
-98
-97
-97
-98
-99
-98
-98
-96
-97
-97
-98
-99
-99
-98
-97
-98
-100
-101
-102
-101
-101
-102
-103
-104
-105
-105
-104
-104
-103
-104
-105
-105
-105
-104
-104
-103
-105
-105
-105
-105
-103
-103
-104
-104
-105
-104
-103
-103
-102
-102
-103
-103
-103
-101
-101
-100
-102
-102
-102
-102
-101
-101
-102
-103
-103
-103
-103
-103
-104
-104
-106
-107
-107
-106
-106
-107
-107
-108
-108
-108
-107
-106
-108
-108
-108
-107
-106
-105
-105
-106
-106
-107
-107
-106
-105
-106
-107
-108
-109
-109
-109
-109
-111
-113
-114
-113
-113
-112
-113
-115
-116
-116
-116
-115
-114
-115
-116
-116
-116
-115
-114
-113
-113
-114
-114
-114
-113
-112
-112
-112
-113
-113
-113
-113
-114
-115
-116
-117
-118
-117
-117
-117
-119
-120
-121
-122
-122
-122
-123
-124
-125
-125
-125
-125
-125
-125
-126
-127
-128
-127
-127
-126
-128
-129
-129
-129
-128
-128
-129
-129
-131
-132
-131
-131
-132
-133
-134
-135
-135
-134
-134
-134
-135
-136
-136
-137
-136
-136
-137
-137
-138
-139
-139
-139
-139
-140
-141
-141
-142
-141
-142
-142
-144
-145
-146
-146
-145
-145
-144
-145
-146
-146
-146
-145
-145
-146
-146
-147
-147
-145
-144
-143
-143
-143
-142
-141
-138
-136
-136
-134
-134
-133
-132
-129
-129
-128
-128
-129
-129
-127
-126
-127
-128
-129
-130
-130
-129
-129
-128
-129
-130
-130
-130
-129
-128
-128
-128
-127
-127
-125
-123
-122
-121
-120
-120
-118
-117
-115
-115
-114
-115
-114
-113
-111
-111
-110
-110
-111
-110
-110
-109
-108
-108
-109
-109
-108
-107
-107
-106
-107
-107
-108
-107
-106
-105
-106
-106
-107
-107
-106
-106
-105
-105
-106
-106
-105
-104
-104
-104
-104
-105
-105
-104
-103
-103
-103
-104
-104
-104
-104
-102
-103
-103
-104
-105
-104
-103
-103
-104
-104
-106
-105
-105
-104
-105
-105
-106
-106
-107
-106
-106
-106
-106
-107
-108
-107
-106
-105
-105
-107
-107
-108
-107
-106
-105
-106
-107
-107
-107
-106
-106
-106
-106
-107
-107
-107
-105
-104
-104
-103
-104
-104
-102
-101
-99
-100
-100
-101
-100
-99
-98
-98
-98
-99
-100
-99
-98
-97
-97
-98
-100
-101
-100
-100
-100
-101
-102
-103
-103
-103
-101
-101
-103
-104
-104
-103
-103
-101
-101
-102
-103
-103
-102
-101
-101
-101
-102
-102
-102
-102
-102
-102
-102
-104
-104
-104
-103
-102
-103
-104
-105
-105
-105
-104
-104
-104
-105
-105
-105
-103
-103
-102
-102
-103
-102
-101
-100
-99
-99
-99
-100
-100
-100
-98
-97
-98
-98
-98
-98
-98
-96
-96
-97
-98
-97
-98
-96
-95
-95
-95
-96
-96
-95
-95
-95
-94
-96
-96
-96
-96
-95
-96
-96
-98
-99
-98
-98
-98
-98
-99
-100
-101
-100
-100
-99
-99
-100
-101
-101
-100
-100
-100
-100
-101
-101
-100
-99
-98
-98
-99
-100
-100
-99
-99
-98
-98
-99
-99
-99
-99
-98
-98
-98
-98
-97
-96
-96
-94
-94
-95
-95
-96
-95
-93
-94
-94
-95
-95
-97
-96
-95
-95
-95
-96
-95
-95
-94
-93
-93
-93
-94
-94
-93
-92
-91
-92
-93
-93
-93
-92
-92
-92
-93
-95
-96
-95
-95
-95
-96
-96
-97
-98
-97
-96
-96
-96
-97
-97
-97
-95
-94
-94
-94
-95
-94
-94
-92
-90
-90
-91
-92
-93
-91
-91
-90
-91
-92
-93
-93
-93
-92
-92
-94
-96
-97
-96
-95
-94
-94
-96
-97
-98
-96
-94
-95
-95
-97
-97
-98
-97
-96
-96
-97
-97
-97
-97
-96
-96
-96
-96
-98
-98
-98
-97
-96
-97
-97
-98
-98
-97
-96
-96
-96
-97
-98
-97
-95
-95
-94
-95
-95
-96
-94
-93
-92
-92
-93
-94
-94
-93
-92
-92
-93
-94
-94
-93
-92
-90
-90
-91
-93
-93
-92
-90
-90
-91
-91
-92
-91
-89
-88
-89
-88
-89
-89
-88
-87
-86
-86
-87
-88
-89
-88
-88
-87
-87
-89
-89
-90
-89
-88
-89
-90
-91
-92
-92
-91
-91
-91
-92
-93
-94
-92
-91
-91
-91
-92
-92
-92
-91
-89
-89
-91
-92
-92
-92
-90
-89
-89
-91
-93
-94
-93
-92
-93
-93
-95
-96
-97
-96
-95
-96
-97
-98
-98
-98
-96
-96
-96
-96
-97
-97
-96
-95
-95
-94
-95
-96
-97
-95
-94
-94
-95
-96
-97
-96
-95
-94
-95
-96
-97
-98
-98
-96
-96
-96
-98
-98
-98
-98
-97
-97
-99
-100
-100
-101
-99
-98
-99
-101
-103
-103
-103
-102
-102
-104
-106
-108
-108
-108
-108
-108
-110
-111
-111
-112
-111
-111
-112
-113
-115
-116
-116
-116
-115
-116
-118
-118
-118
-118
-117
-117
-118
-119
-119
-118
-116
-116
-115
-115
-115
-115
-114
-111
-111
-110
-111
-110
-110
-109
-108
-107
-107
-107
-106
-105
-104
-103
-102
-103
-102
-102
-100
-99
-97
-97
-97
-96
-95
-92
-91
-90
-89
-89
-88
-86
-85
-84
-83
-84
-84
-85
-84
-84
-84
-84
-85
-87
-87
-87
-86
-87
-88
-89
-89
-89
-88
-88
-88
-88
-88
-88
-87
-86
-85
-85
-86
-85
-85
-84
-83
-82
-83
-84
-83
-83
-83
-81
-82
-82
-83
-83
-83
-83
-82
-83
-83
-85
-84
-84
-83
-83
-84
-84
-85
-84
-83
-83
-84
-84
-85
-85
-85
-84
-85
-86
-86
-87
-87
-86
-86
-85
-86
-87
-87
-85
-85
-84
-84
-84
-85
-85
-84
-83
-84
-84
-85
-87
-88
-88
-89
-91
-96
-99
-104
-108
-112
-117
-123
-131
-139
-147
-154
-162
-170
-180
-190
-199
-208
-215
-223
-231
-239
-247
-253
-258
-261
-264
-267
-270
-271
-271
-270
-268
-264
-262
-258
-254
-248
-240
-233
-225
-218
-210
-202
-193
-184
-174
-167
-160
-153
-145
-137
-129
-123
-118
-112
-107
-102
-97
-91
-88
-86
-84
-82
-80
-77
-76
-75
-74
-74
-74
-73
-72
-71
-72
-73
-74
-75
-74
-73
-74
-75
-76
-76
-76
-75
-75
-75
-76
-77
-78
-78
-78
-78
-79
-80
-81
-81
-81
-80
-81
-82
-84
-84
-83
-83
-83
-83
-84
-85
-85
-85
-83
-83
-84
-85
-85
-85
-84
-83
-82
-82
-83
-82
-81
-80
-78
-78
-77
-79
-78
-76
-75
-76
-75
-77
-77
-77
-76
-75
-75
-77
-78
-79
-79
-79
-78
-79
-81
-82
-82
-81
-81
-82
-83
-84
-86
-86
-86
-84
-85
-86
-87
-87
-85
-84
-83
-84
-85
-86
-87
-85
-85
-84
-85
-86
-86
-86
-85
-85
-85
-85
-86
-87
-86
-85
-85
-85
-85
-86
-86
-85
-84
-84
-85
-86
-87
-87
-86
-86
-86
-87
-88
-88
-87
-86
-86
-87
-87
-88
-88
-87
-87
-86
-87
-87
-88
-88
-88
-86
-87
-88
-89
-89
-89
-88
-88
-88
-90
-90
-90
-90
-89
-89
-90
-90
-90
-90
-90
-88
-88
-89
-89
-89
-88
-87
-87
-86
-88
-89
-89
-88
-88
-88
-89
-90
-91
-91
-91
-90
-90
-91
-91
-91
-90
-89
-89
-90
-90
-92
-92
-90
-90
-89
-91
-91
-92
-92
-93
-92
-93
-94
-96
-96
-96
-95
-95
-95
-97
-98
-99
-98
-98
-97
-99
-99
-99
-100
-99
-99
-99
-100
-101
-102
-102
-101
-100
-101
-102
-103
-103
-103
-103
-103
-104
-105
-107
-107
-107
-107
-108
-110
-110
-112
-112
-112
-112
-114
-115
-116
-118
-117
-117
-118
-118
-120
-120
-121
-119
-119
-120
-121
-122
-122
-121
-120
-120
-121
-121
-122
-122
-122
-121
-122
-122
-124
-124
-125
-124
-124
-123
-125
-126
-127
-125
-125
-125
-126
-128
-128
-129
-128
-128
-129
-130
-130
-132
-132
-131
-130
-130
-130
-131
-131
-131
-129
-128
-128
-129
-129
-129
-127
-126
-125
-125
-125
-125
-124
-123
-122
-121
-121
-122
-122
-121
-120
-118
-118
-119
-119
-119
-117
-116
-115
-115
-115
-115
-114
-112
-111
-109
-109
-110
-109
-107
-105
-103
-103
-103
-103
-101
-100
-98
-97
-98
-98
-99
-98
-98
-98
-97
-99
-99
-98
-98
-97
-97
-97
-99
-99
-99
-99
-98
-97
-98
-98
-98
-98
-97
-96
-95
-97
-97
-96
-96
-94
-93
-92
-93
-93
-93
-91
-91
-91
-91
-92
-93
-92
-91
-91
-90
-91
-91
-91
-90
-89
-89
-89
-90
-90
-90
-89
-87
-88
-88
-88
-89
-89
-87
-87
-87
-87
-89
-89
-88
-87
-87
-88
-88
-89
-89
-89
-87
-87
-88
-89
-89
-88
-87
-86
-86
-86
-88
-87
-87
-86
-86
-86
-87
-88
-88
-88
-86
-86
-88
-89
-91
-90
-90
-90
-90
-90
-91
-91
-89
-88
-87
-87
-88
-89
-89
-87
-86
-85
-86
-87
-87
-87
-85
-85
-84
-85
-86
-86
-85
-84
-84
-85
-85
-86
-87
-86
-84
-84
-84
-85
-86
-85
-84
-82
-82
-84
-85
-85
-84
-83
-83
-83
-84
-87
-87
-86
-85
-86
-87
-89
-89
-89
-89
-88
-89
-89
-89
-89
-89
-88
-87
-87
-88
-89
-88
-87
-86
-85
-86
-87
-87
-87
-86
-85
-85
-87
-87
-87
-86
-84
-84
-84
-85
-86
-87
-87
-86
-86
-86
-87
-88
-88
-88
-88
-89
-89
-91
-91
-91
-90
-90
-90
-91
-92
-91
-91
-89
-88
-89
-90
-90
-89
-88
-87
-87
-88
-88
-88
-87
-86
-85
-85
-85
-86
-85
-84
-83
-83
-84
-85
-85
-85
-84
-84
-84
-85
-85
-86
-85
-85
-85
-86
-87
-88
-88
-88
-86
-86
-87
-89
-90
-89
-88
-87
-87
-88
-89
-89
-88
-86
-85
-85
-87
-87
-87
-85
-84
-84
-84
-85
-85
-84
-84
-82
-82
-83
-83
-83
-83
-82
-82
-83
-83
-84
-84
-84
-83
-83
-84
-85
-85
-85
-84
-83
-83
-83
-83
-82
-82
-81
-80
-80
-80
-80
-81
-80
-78
-79
-80
-82
-83
-83
-84
-84
-85
-86
-87
-87
-87
-87
-87
-88
-90
-90
-91
-90
-88
-88
-89
-90
-90
-90
-88
-86
-86
-88
-88
-88
-86
-85
-83
-84
-84
-84
-83
-81
-81
-81
-81
-81
-82
-82
-80
-80
-80
-81
-82
-83
-82
-82
-82
-83
-83
-85
-85
-84
-83
-84
-85
-85
-86
-86
-85
-84
-84
-86
-86
-86
-84
-83
-82
-81
-83
-83
-82
-80
-79
-79
-79
-80
-80
-79
-78
-78
-78
-78
-80
-80
-80
-79
-79
-80
-82
-84
-85
-84
-84
-85
-86
-86
-87
-87
-86
-84
-85
-86
-87
-87
-85
-83
-82
-83
-84
-85
-85
-83
-81
-80
-81
-83
-82
-82
-82
-81
-82
-83
-83
-83
-82
-81
-80
-81
-81
-81
-82
-80
-80
-81
-81
-83
-83
-84
-83
-82
-83
-84
-85
-86
-85
-85
-85
-86
-87
-88
-89
-89
-87
-87
-89
-90
-91
-91
-89
-89
-90
-91
-92
-93
-91
-91
-92
-91
-93
-94
-94
-92
-92
-91
-93
-94
-94
-93
-92
-91
-91
-92
-92
-91
-91
-91
-90
-91
-92
-93
-93
-94
-94
-95
-97
-99
-101
-102
-102
-103
-104
-105
-108
-108
-107
-106
-107
-106
-107
-108
-108
-106
-106
-105
-106
-105
-104
-104
-102
-101
-100
-99
-99
-98
-97
-94
-94
-93
-92
-93
-91
-89
-88
-86
-86
-85
-84
-83
-81
-80
-79
-79
-81
-79
-79
-77
-76
-76
-77
-77
-77
-75
-74
-74
-75
-75
-76
-75
-74
-74
-74
-75
-75
-76
-74
-73
-73
-74
-75
-76
-77
-76
-76
-77
-77
-78
-79
-80
-78
-77
-78
-79
-81
-81
-79
-79
-79
-79
-79
-81
-80
-79
-79
-78
-79
-80
-80
-79
-79
-78
-78
-79
-79
-78
-78
-77
-76
-76
-77
-78
-78
-77
-76
-76
-77
-78
-79
-78
-76
-74
-74
-76
-76
-75
-74
-73
-72
-72
-72
-72
-71
-70
-69
-69
-70
-72
-73
-73
-73
-75
-78
-81
-85
-89
-93
-97
-101
-108
-115
-122
-130
-136
-144
-153
-162
-171
-180
-188
-195
-202
-211
-219
-225
-231
-236
-239
-242
-245
-249
-251
-250
-249
-246
-244
-241
-238
-234
-228
-221
-215
-209
-203
-197
-190
-182
-173
-166
-159
-153
-146
-139
-132
-125
-119
-115
-110
-104
-99
-94
-88
-85
-82
-80
-76
-73
-68
-66
-64
-64
-63
-61
-59
-58
-58
-58
-59
-59
-58
-58
-59
-59
-60
-61
-62
-62
-62
-62
-64
-66
-68
-69
-69
-69
-70
-71
-72
-73
-73
-73
-72
-73
-74
-74
-74
-74
-73
-73
-73
-75
-75
-76
-75
-74
-74
-75
-76
-77
-76
-75
-76
-77
-77
-78
-78
-77
-76
-77
-76
-77
-78
-78
-76
-76
-75
-76
-76
-77
-76
-75
-74
-74
-74
-75
-74
-74
-73
-72
-72
-73
-74
-73
-72
-72
-72
-73
-74
-75
-75
-74
-74
-74
-76
-76
-76
-75
-75
-74
-75
-76
-77
-78
-76
-75
-76
-76
-77
-78
-77
-76
-76
-77
-78
-79
-79
-78
-77
-78
-79
-79
-79
-80
-78
-79
-78
-80
-80
-80
-79
-79
-78
-79
-79
-81
-80
-79
-77
-77
-77
-79
-79
-79
-78
-77
-77
-78
-79
-80
-80
-78
-78
-78
-80
-80
-80
-80
-78
-78
-79
-82
-83
-82
-81
-81
-81
-82
-83
-84
-83
-82
-81
-82
-83
-84
-83
-82
-81
-80
-80
-82
-83
-82
-80
-79
-79
-81
-81
-81
-81
-80
-80
-81
-83
-84
-85
-84
-84
-84
-85
-86
-87
-87
-88
-88
-88
-90
-90
-91
-91
-90
-90
-91
-91
-92
-91
-91
-90
-89
-90
-91
-92
-91
-90
-89
-90
-91
-91
-92
-92
-91
-91
-92
-93
-95
-95
-95
-95
-95
-96
-98
-99
-100
-100
-100
-101
-104
-105
-107
-107
-107
-108
-108
-110
-111
-111
-112
-111
-112
-113
-115
-116
-116
-116
-116
-117
-118
-120
-121
-120
-120
-121
-123
-124
-126
-126
-126
-126
-126
-127
-128
-130
-130
-130
-129
-130
-131
-132
-133
-132
-132
-131
-133
-133
-134
-134
-133
-133
-133
-134
-135
-135
-134
-134
-133
-134
-136
-137
-138
-138
-138
-138
-138
-139
-140
-140
-139
-139
-138
-138
-138
-139
-138
-137
-135
-135
-135
-135
-133
-132
-130
-128
-128
-129
-128
-127
-126
-124
-123
-124
-124
-124
-123
-122
-122
-122
-123
-123
-123
-122
-120
-120
-120
-120
-120
-119
-118
-116
-115
-115
-115
-114
-113
-111
-110
-109
-109
-110
-109
-107
-105
-104
-104
-104
-104
-103
-101
-100
-99
-99
-99
-98
-98
-97
-96
-95
-96
-96
-96
-97
-95
-95
-96
-98
-98
-98
-97
-96
-97
-97
-99
-101
-100
-99
-99
-99
-100
-102
-101
-101
-99
-98
-99
-101
-101
-100
-99
-97
-96
-97
-98
-98
-97
-95
-94
-95
-96
-96
-97
-96
-94
-94
-94
-95
-95
-94
-93
-92
-92
-92
-93
-93
-93
-92
-91
-92
-93
-94
-95
-94
-93
-94
-94
-96
-97
-96
-95
-94
-95
-95
-95
-96
-96
-95
-95
-95
-95
-95
-95
-94
-93
-93
-93
-94
-94
-94
-93
-91
-92
-92
-93
-93
-93
-93
-92
-93
-93
-95
-95
-94
-93
-93
-93
-93
-94
-93
-92
-91
-90
-91
-92
-91
-90
-89
-88
-87
-89
-90
-89
-89
-88
-88
-89
-90
-91
-91
-91
-90
-91
-91
-93
-94
-94
-94
-94
-94
-95
-96
-96
-96
-95
-95
-96
-96
-96
-95
-94
-93
-92
-93
-93
-94
-92
-91
-91
-91
-92
-92
-92
-92
-91
-91
-91
-92
-92
-91
-91
-90
-90
-91
-92
-92
-91
-90
-89
-89
-89
-90
-90
-89
-88
-87
-88
-88
-89
-88
-87
-86
-86
-87
-87
-88
-87
-85
-85
-85
-86
-87
-88
-88
-87
-87
-87
-88
-88
-87
-86
-85
-85
-86
-86
-85
-84
-83
-82
-81
-81
-81
-81
-80
-78
-78
-77
-77
-78
-76
-75
-74
-73
-73
-74
-73
-72
-71
-71
-70
-71
-72
-72
-72
-71
-71
-72
-73
-74
-74
-73
-74
-74
-76
-77
-78
-78
-78
-78
-80
-80
-81
-81
-81
-80
-79
-80
-80
-80
-79
-78
-76
-76
-76
-76
-77
-75
-74
-73
-72
-72
-73
-72
-71
-70
-69
-70
-71
-71
-70
-70
-69
-69
-69
-70
-71
-71
-71
-71
-72
-74
-74
-76
-75
-74
-75
-76
-77
-77
-77
-77
-76
-77
-77
-79
-78
-78
-77
-76
-75
-77
-77
-76
-75
-74
-73
-74
-74
-75
-73
-72
-71
-70
-71
-71
-72
-71
-70
-70
-71
-71
-72
-72
-72
-71
-71
-73
-75
-75
-75
-74
-74
-74
-75
-76
-76
-76
-75
-76
-75
-76
-77
-76
-76
-75
-76
-76
-76
-77
-76
-75
-74
-74
-75
-75
-76
-75
-74
-73
-74
-74
-75
-75
-74
-73
-73
-73
-74
-74
-73
-71
-71
-71
-71
-72
-71
-71
-70
-69
-69
-70
-71
-71
-70
-69
-68
-69
-70
-71
-70
-70
-69
-69
-70
-72
-73
-72
-73
-73
-74
-75
-75
-75
-75
-74
-75
-75
-75
-75
-75
-73
-72
-72
-72
-73
-73
-72
-71
-70
-70
-72
-72
-72
-71
-70
-70
-72
-73
-73
-73
-73
-72
-72
-73
-74
-74
-74
-74
-73
-74
-75
-76
-77
-77
-77
-77
-79
-80
-81
-82
-82
-81
-81
-83
-84
-85
-85
-85
-85
-86
-87
-88
-89
-89
-89
-89
-91
-92
-94
-93
-93
-93
-94
-96
-97
-97
-97
-97
-96
-97
-98
-99
-99
-99
-97
-96
-97
-97
-96
-96
-94
-93
-93
-93
-92
-92
-90
-89
-89
-89
-89
-90
-90
-89
-88
-87
-88
-87
-87
-86
-85
-83
-83
-83
-82
-82
-80
-78
-76
-76
-76
-75
-74
-73
-71
-69
-70
-70
-69
-69
-68
-68
-68
-69
-69
-70
-69
-68
-68
-68
-69
-70
-69
-69
-68
-67
-68
-69
-68
-67
-65
-64
-64
-64
-65
-64
-64
-63
-62
-63
-63
-65
-65
-64
-64
-64
-65
-66
-67
-67
-66
-66
-67
-67
-69
-69
-69
-67
-67
-67
-69
-69
-69
-67
-65
-65
-65
-65
-66
-65
-63
-63
-62
-63
-64
-64
-64
-63
-63
-64
-65
-66
-66
-66
-65
-64
-65
-66
-66
-65
-64
-63
-63
-64
-64
-64
-63
-64
-63
-64
-67
-69
-71
-72
-75
-78
-82
-89
-93
-99
-104
-110
-117
-126
-135
-143
-151
-159
-167
-177
-186
-195
-204
-210
-217
-223
-230
-236
-240
-243
-245
-246
-247
-247
-248
-247
-243
-239
-234
-229
-225
-219
-212
-205
-196
-188
-181
-174
-166
-158
-149
-140
-132
-126
-120
-112
-105
-98
-92
-87
-83
-78
-74
-69
-66
-62
-61
-58
-56
-54
-53
-51
-51
-52
-53
-53
-53
-53
-54
-56
-58
-59
-60
-61
-60
-61
-63
-64
-65
-64
-63
-63
-63
-64
-65
-65
-64
-63
-63
-63
-64
-65
-65
-63
-62
-62
-62
-63
-63
-62
-62
-61
-61
-61
-62
-62
-61
-61
-60
-60
-61
-61
-61
-60
-59
-59
-60
-61
-61
-61
-60
-60
-60
-62
-62
-63
-62
-61
-62
-63
-64
-64
-64
-63
-63
-62
-64
-65
-64
-63
-62
-61
-61
-62
-63
-62
-61
-60
-60
-61
-61
-63
-63
-61
-61
-61
-62
-63
-64
-64
-63
-63
-64
-65
-66
-67
-66
-66
-66
-67
-67
-68
-68
-67
-66
-66
-67
-68
-68
-69
-68
-67
-67
-68
-69
-69
-68
-67
-66
-67
-67
-67
-67
-67
-66
-66
-66
-68
-67
-67
-66
-65
-65
-66
-67
-68
-66
-66
-66
-67
-68
-68
-68
-68
-68
-68
-68
-69
-69
-68
-67
-66
-66
-67
-68
-67
-67
-67
-66
-67
-68
-68
-68
-68
-67
-68
-69
-70
-70
-71
-69
-70
-70
-70
-72
-72
-72
-71
-70
-71
-72
-73
-73
-72
-71
-71
-72
-72
-72
-72
-71
-70
-70
-71
-72
-72
-72
-72
-72
-73
-74
-74
-75
-75
-75
-75
-76
-77
-78
-77
-78
-77
-78
-79
-80
-80
-80
-80
-80
-80
-81
-83
-83
-82
-81
-81
-83
-84
-85
-85
-84
-84
-84
-86
-86
-86
-86
-85
-85
-86
-86
-87
-87
-86
-85
-85
-85
-87
-88
-87
-86
-87
-87
-89
-90
-91
-91
-91
-92
-93
-95
-97
-98
-99
-99
-100
-101
-103
-104
-104
-103
-104
-104
-105
-107
-107
-106
-105
-105
-106
-106
-107
-107
-107
-107
-107
-108
-110
-109
-109
-108
-107
-108
-109
-110
-110
-109
-108
-108
-109
-110
-110
-109
-109
-108
-107
-107
-108
-107
-106
-104
-104
-104
-104
-105
-104
-104
-103
-103
-103
-104
-105
-105
-104
-104
-104
-104
-105
-105
-104
-102
-102
-102
-102
-102
-102
-100
-99
-98
-97
-97
-98
-97
-95
-94
-93
-93
-93
-93
-92
-90
-89
-89
-89
-89
-88
-87
-85
-84
-83
-83
-83
-82
-80
-78
-78
-78
-78
-76
-75
-72
-71
-70
-69
-69
-68
-67
-66
-65
-66
-67
-67
-68
-67
-67
-68
-68
-70
-71
-71
-71
-72
-73
-75
-76
-77
-78
-77
-77
-78
-78
-80
-79
-78
-77
-77
-77
-77
-77
-75
-74
-73
-73
-73
-74
-74
-73
-72
-72
-72
-73
-72
-72
-71
-70
-70
-71
-71
-71
-71
-69
-68
-68
-68
-69
-68
-67
-65
-65
-65
-65
-66
-66
-64
-63
-63
-65
-66
-67
-67
-66
-66
-67
-69
-69
-71
-70
-70
-70
-71
-73
-73
-73
-72
-72
-72
-72
-73
-72
-71
-70
-69
-69
-70
-71
-71
-69
-68
-67
-68
-68
-68
-68
-66
-65
-65
-65
-66
-65
-63
-62
-61
-61
-62
-62
-62
-62
-62
-62
-63
-65
-66
-67
-66
-66
-67
-68
-69
-70
-70
-70
-70
-70
-72
-73
-73
-72
-72
-71
-72
-72
-72
-72
-71
-70
-70
-70
-70
-70
-68
-66
-66
-65
-66
-66
-66
-65
-63
-63
-63
-63
-64
-64
-63
-62
-63
-64
-65
-65
-65
-64
-65
-64
-65
-66
-67
-67
-65
-66
-66
-67
-67
-66
-66
-65
-65
-65
-66
-66
-65
-64
-64
-64
-64
-66
-66
-65
-64
-64
-65
-66
-66
-67
-66
-65
-65
-66
-66
-66
-66
-65
-64
-64
-64
-65
-64
-63
-62
-61
-61
-62
-63
-62
-62
-60
-61
-61
-62
-63
-62
-62
-62
-62
-63
-65
-65
-65
-65
-66
-67
-68
-69
-69
-68
-68
-68
-69
-69
-69
-68
-67
-65
-65
-65
-66
-65
-64
-63
-62
-62
-62
-61
-61
-59
-58
-58
-59
-59
-60
-59
-58
-58
-59
-59
-61
-61
-61
-59
-60
-60
-62
-61
-62
-60
-59
-59
-60
-60
-60
-59
-58
-58
-57
-58
-58
-58
-57
-56
-55
-56
-56
-57
-57
-56
-55
-55
-56
-57
-57
-56
-56
-55
-55
-56
-57
-58
-57
-56
-56
-57
-58
-58
-58
-58
-58
-57
-57
-59
-58
-57
-56
-56
-56
-56
-57
-57
-56
-55
-55
-55
-57
-57
-57
-56
-56
-56
-57
-58
-57
-57
-55
-56
-56
-57
-57
-57
-57
-56
-56
-57
-57
-57
-57
-57
-56
-57
-57
-59
-60
-60
-59
-59
-59
-60
-62
-62
-61
-61
-60
-61
-63
-63
-64
-63
-63
-63
-63
-64
-64
-63
-62
-61
-61
-61
-61
-61
-60
-58
-58
-59
-58
-59
-57
-56
-54
-54
-54
-55
-54
-53
-53
-52
-51
-52
-53
-52
-51
-50
-50
-51
-51
-52
-51
-50
-50
-51
-53
-53
-54
-54
-54
-54
-54
-56
-58
-59
-59
-59
-60
-62
-63
-64
-64
-63
-63
-63
-64
-65
-65
-64
-63
-62
-61
-61
-62
-60
-59
-57
-56
-55
-55
-55
-54
-53
-52
-52
-53
-53
-54
-52
-52
-52
-52
-53
-55
-56
-55
-56
-56
-57
-59
-60
-61
-60
-59
-59
-60
-62
-61
-61
-60
-60
-61
-62
-63
-64
-63
-63
-63
-64
-65
-66
-66
-66
-66
-67
-68
-69
-69
-68
-68
-67
-68
-69
-69
-69
-69
-68
-68
-68
-70
-71
-71
-71
-71
-72
-73
-74
-75
-75
-75
-75
-76
-77
-79
-79
-79
-78
-78
-79
-80
-80
-80
-79
-78
-77
-78
-79
-78
-78
-77
-75
-75
-77
-77
-77
-76
-76
-75
-76
-76
-77
-76
-75
-74
-73
-74
-73
-72
-71
-69
-67
-65
-64
-63
-61
-59
-57
-55
-54
-53
-52
-50
-49
-48
-46
-46
-46
-45
-43
-42
-41
-41
-43
-45
-45
-45
-45
-45
-47
-48
-49
-50
-49
-49
-50
-51
-52
-52
-52
-52
-52
-52
-53
-54
-54
-53
-52
-52
-52
-53
-53
-52
-52
-51
-50
-51
-52
-52
-51
-51
-50
-49
-50
-50
-50
-50
-49
-49
-50
-50
-51
-50
-50
-49
-49
-50
-51
-50
-49
-49
-48
-49
-49
-49
-50
-49
-48
-47
-48
-48
-47
-48
-46
-45
-45
-45
-46
-46
-45
-44
-44
-44
-45
-45
-46
-46
-46
-48
-49
-52
-55
-58
-60
-63
-68
-73
-79
-85
-91
-96
-103
-111
-120
-129
-138
-145
-154
-163
-172
-182
-190
-197
-204
-209
-216
-222
-227
-231
-233
-233
-233
-232
-232
-230
-227
-222
-216
-211
-207
-202
-195
-188
-178
-170
-162
-154
-148
-139
-131
-123
-114
-107
-101
-97
-91
-84
-78
-72
-68
-64
-61
-57
-53
-48
-46
-45
-44
-43
-41
-41
-40
-40
-41
-42
-43
-42
-42
-43
-45
-46
-47
-47
-48
-47
-48
-49
-50
-50
-49
-49
-49
-48
-49
-50
-49
-48
-46
-46
-47
-47
-47
-46
-46
-45
-45
-46
-46
-46
-46
-45
-44
-44
-45
-45
-45
-45
-43
-43
-45
-45
-45
-45
-45
-44
-44
-46
-47
-47
-47
-47
-47
-47
-48
-50
-50
-49
-48
-49
-49
-50
-50
-49
-48
-47
-46
-47
-47
-46
-46
-44
-45
-44
-45
-45
-45
-45
-44
-45
-46
-46
-47
-48
-48
-47
-48
-49
-50
-49
-48
-47
-46
-46
-46
-46
-46
-45
-44
-43
-44
-44
-45
-44
-44
-44
-45
-47
-48
-48
-49
-49
-49
-50
-51
-53
-54
-53
-53
-53
-53
-54
-54
-53
-53
-52
-51
-51
-52
-52
-50
-49
-48
-48
-48
-49
-49
-47
-46
-46
-48
-49
-49
-49
-48
-47
-47
-48
-50
-50
-50
-49
-49
-50
-51
-53
-53
-53
-52
-53
-54
-56
-55
-56
-56
-55
-55
-56
-56
-56
-54
-53
-52
-52
-52
-51
-51
-50
-48
-48
-48
-49
-49
-49
-48
-48
-48
-49
-51
-51
-51
-52
-53
-54
-56
-57
-57
-58
-58
-59
-60
-60
-61
-61
-60
-60
-60
-61
-61
-62
-61
-60
-60
-59
-59
-60
-59
-58
-57
-57
-57
-57
-58
-57
-55
-55
-55
-56
-56
-56
-56
-55
-55
-56
-57
-59
-59
-59
-60
-61
-63
-65
-67
-67
-68
-68
-70
-71
-73
-73
-74
-74
-74
-76
-77
-78
-79
-78
-78
-79
-79
-80
-81
-81
-81
-81
-81
-82
-83
-83
-83
-81
-82
-83
-83
-84
-84
-84
-83
-83
-85
-85
-85
-85
-85
-85
-84
-86
-87
-87
-86
-85
-85
-84
-85
-86
-85
-84
-83
-84
-84
-86
-86
-87
-86
-86
-86
-87
-88
-88
-87
-86
-86
-87
-88
-89
-89
-88
-87
-86
-87
-87
-86
-85
-83
-83
-82
-82
-83
-82
-81
-80
-78
-78
-79
-79
-78
-76
-74
-74
-74
-74
-73
-72
-71
-69
-69
-68
-68
-68
-66
-64
-63
-63
-63
-63
-61
-61
-60
-60
-59
-60
-60
-59
-58
-56
-56
-57
-57
-56
-55
-54
-53
-53
-53
-54
-53
-52
-51
-51
-51
-52
-52
-51
-50
-50
-50
-51
-52
-52
-50
-50
-50
-50
-50
-52
-51
-50
-49
-49
-50
-51
-51
-51
-49
-49
-49
-50
-50
-50
-49
-48
-47
-48
-48
-49
-50
-48
-47
-48
-49
-49
-50
-49
-49
-48
-49
-50
-50
-50
-49
-48
-48
-48
-48
-48
-47
-46
-45
-45
-45
-46
-46
-46
-45
-45
-44
-45
-45
-46
-45
-45
-45
-45
-47
-47
-48
-47
-47
-47
-48
-49
-48
-49
-47
-47
-47
-47
-48
-47
-47
-46
-45
-45
-46
-46
-46
-45
-45
-45
-45
-46
-46
-46
-46
-46
-45
-46
-47
-47
-45
-45
-44
-44
-45
-46
-45
-43
-42
-41
-41
-41
-42
-41
-39
-39
-39
-39
-40
-40
-39
-38
-38
-40
-41
-42
-42
-41
-41
-42
-43
-44
-45
-45
-44
-44
-45
-45
-47
-47
-45
-45
-44
-45
-46
-46
-45
-45
-44
-45
-45
-46
-47
-47
-45
-45
-45
-46
-47
-46
-46
-45
-45
-44
-45
-46
-46
-44
-43
-42
-43
-43
-44
-43
-42
-41
-42
-42
-43
-42
-41
-40
-39
-40
-40
-42
-41
-41
-41
-41
-41
-42
-43
-42
-41
-39
-40
-41
-41
-42
-41
-41
-40
-41
-42
-42
-42
-41
-41
-41
-41
-43
-43
-43
-42
-42
-42
-43
-44
-44
-43
-42
-40
-40
-41
-41
-42
-40
-40
-40
-40
-41
-40
-40
-39
-38
-39
-39
-40
-40
-39
-39
-38
-39
-40
-41
-40
-40
-40
-39
-40
-41
-41
-42
-41
-41
-41
-41
-41
-41
-40
-40
-40
-40
-41
-42
-41
-40
-40
-40
-41
-41
-41
-40
-40
-39
-39
-40
-40
-41
-39
-39
-38
-38
-38
-38
-38
-38
-37
-37
-38
-39
-39
-38
-38
-37
-37
-38
-39
-38
-37
-36
-36
-36
-37
-38
-37
-37
-35
-35
-36
-37
-38
-37
-37
-37
-38
-39
-40
-40
-39
-39
-39
-39
-41
-42
-41
-40
-40
-40
-40
-42
-41
-40
-39
-39
-38
-39
-40
-40
-39
-38
-37
-38
-39
-39
-38
-37
-36
-36
-37
-38
-39
-38
-38
-37
-37
-39
-39
-39
-39
-38
-38
-39
-40
-41
-40
-40
-40
-40
-41
-42
-42
-41
-40
-40
-40
-40
-40
-40
-40
-38
-37
-38
-38
-38
-38
-37
-35
-36
-37
-37
-37
-37
-36
-36
-36
-37
-37
-38
-37
-36
-36
-37
-38
-39
-38
-38
-37
-37
-38
-39
-39
-39
-38
-38
-39
-39
-40
-40
-39
-38
-38
-39
-40
-40
-40
-40
-39
-39
-40
-41
-42
-41
-41
-40
-40
-40
-41
-40
-40
-38
-38
-38
-39
-39
-39
-37
-36
-36
-36
-36
-37
-36
-34
-34
-33
-34
-34
-33
-32
-31
-30
-30
-31
-31
-32
-31
-31
-31
-33
-34
-35
-36
-35
-36
-38
-40
-41
