# Simple Text Format
# Sampling Rate (Hz):= 1200.00
# Resolution:= 12
# Labels:= ECG	 V2
# Age:=	80
# Gender:=	Feminino
445
446
446
446
446
446
446
445
446
445
446
446
446
445
446
446
446
447
447
447
447
447
448
448
449
449
448
447
447
447
447
447
448
447
447
447
448
448
449
448
448
448
448
449
449
449
449
449
450
450
450
450
450
450
449
450
449
450
449
448
447
447
447
446
446
446
445
444
444
444
444
444
443
443
443
442
444
444
444
444
444
444
444
445
446
447
447
447
447
448
449
450
451
451
451
451
452
452
453
452
452
453
453
452
453
453
452
453
453
452
453
454
453
453
453
454
455
455
457
457
458
458
460
462
462
464
465
467
467
469
471
472
473
473
474
474
475
476
477
477
478
478
479
480
480
480
480
480
480
481
482
482
482
482
482
483
483
483
483
483
483
484
484
484
484
483
483
483
483
483
484
484
484
485
484
484
484
484
485
484
484
484
483
483
482
481
481
480
479
478
477
476
475
474
473
473
472
472
472
472
472
471
472
473
473
473
473
473
474
474
475
476
475
475
474
473
473
473
472
472
471
470
469
468
467
466
465
463
462
461
460
459
458
457
456
454
454
453
451
451
449
448
447
447
446
445
444
443
442
442
442
441
440
440
440
439
439
439
438
438
438
437
437
437
437
436
436
436
434
435
435
434
433
433
432
431
431
430
429
429
428
427
427
426
425
424
423
421
420
418
418
416
415
412
411
410
409
408
407
406
404
403
403
403
403
402
402
401
401
402
402
401
402
403
403
404
405
405
406
406
406
406
406
406
406
406
406
405
405
405
405
405
403
403
403
402
401
401
401
401
401
401
401
401
402
402
403
402
403
403
404
404
404
404
404
404
405
405
405
404
404
404
403
403
404
403
402
402
401
401
401
400
400
399
399
398
397
398
398
398
398
398
397
398
398
398
399
399
399
399
400
399
398
398
398
398
397
398
399
399
398
399
398
399
399
399
399
399
400
401
401
403
403
403
404
404
406
406
407
408
407
408
408
408
409
408
408
407
407
407
406
406
405
404
403
402
402
402
401
401
400
400
400
399
399
398
396
396
396
396
396
396
396
395
395
395
395
395
394
394
394
393
393
393
393
391
390
389
387
387
386
385
384
383
382
380
380
379
378
377
376
375
374
374
375
374
375
376
377
379
381
384
386
388
391
392
396
398
402
405
409
413
417
422
428
432
438
444
449
454
460
464
468
473
476
479
481
482
482
480
477
472
465
457
448
438
426
413
398
385
369
354
338
323
307
293
280
268
257
247
238
231
226
223
220
219
219
219
221
225
227
232
236
241
246
251
257
263
269
274
279
285
290
295
300
304
308
312
315
320
324
328
331
334
337
339
342
345
347
348
350
352
354
355
357
359
360
361
362
362
363
363
363
362
363
362
362
361
361
360
360
359
358
357
357
355
354
354
353
352
352
351
351
349
348
347
347
348
348
347
347
347
346
347
346
347
346
346
345
346
346
345
345
345
345
345
345
346
347
348
348
347
348
349
350
350
350
350
350
351
350
351
352
351
351
350
351
350
351
349
349
348
349
349
349
350
350
350
350
351
351
352
352
352
353
354
355
355
356
356
356
356
356
357
358
358
357
358
357
358
358
358
357
358
357
357
357
357
357
358
358
358
358
359
360
360
360
360
361
363
363
364
364
365
366
366
367
367
368
368
369
369
369
370
371
373
373
373
374
376
376
377
379
380
380
381
383
384
385
386
386
388
388
390
392
391
392
393
392
393
395
395
396
395
396
396
397
398
399
399
399
400
400
401
402
402
402
401
402
402
401
401
400
399
399
398
397
396
396
394
392
391
390
389
387
387
385
384
381
381
379
379
377
375
374
373
371
370
369
368
366
364
363
362
360
360
358
357
355
354
353
352
350
349
348
347
346
347
346
346
345
345
345
345
344
344
344
343
344
343
342
342
342
340
340
340
338
339
337
337
336
335
335
334
333
333
333
331
332
331
331
330
330
329
329
328
328
327
327
327
326
325
325
325
325
324
324
323
322
322
322
322
322
321
320
320
319
320
320
319
318
318
317
317
318
318
317
316
316
316
316
315
315
314
313
313
314
315
315
314
314
315
315
316
317
318
317
318
319
320
321
322
323
324
324
325
325
325
326
326
326
327
327
327
327
326
326
326
325
325
325
325
325
324
325
325
325
324
324
325
324
323
323
324
324
324
323
323
322
321
321
321
320
319
319
318
318
318
318
317
317
316
317
317
317
317
318
318
318
319
320
321
321
321
321
322
323
323
323
324
324
324
324
324
325
324
323
323
322
323
321
321
320
320
319
319
318
319
319
318
317
317
317
317
317
317
317
317
318
318
318
319
319
319
319
319
320
320
320
320
321
322
322
323
323
323
324
324
324
325
325
325
325
324
324
324
323
323
323
322
321
321
321
320
320
319
319
318
317
316
316
316
315
314
315
314
314
314
314
313
313
312
312
312
312
313
312
312
312
311
311
311
311
311
309
308
308
307
306
305
304
304
304
303
304
305
305
306
308
310
313
315
319
322
325
330
334
340
345
351
356
362
369
376
383
389
394
400
405
410
415
418
421
423
424
423
422
418
413
406
397
387
377
365
352
338
322
307
291
274
259
244
229
214
202
189
180
171
164
158
154
150
149
149
150
151
155
158
162
167
173
179
184
190
196
202
209
215
222
228
234
240
246
251
257
261
265
269
274
278
281
284
287
289
290
292
293
296
297
297
297
299
299
299
300
300
301
301
301
301
302
302
302
302
302
304
304
305
306
306
306
307
308
308
309
309
308
308
308
309
309
308
309
308
307
306
305
305
305
303
304
302
303
303
303
303
302
302
302
302
302
302
302
303
303
302
303
303
303
303
302
302
302
302
301
301
301
301
300
300
300
300
299
299
298
299
299
299
299
299
299
299
299
300
300
301
301
300
301
301
301
301
301
302
302
302
303
303
304
304
304
305
306
306
307
308
309
309
310
311
312
313
313
313
314
314
314
316
316
316
316
317
317
318
318
318
319
319
320
320
321
323
324
324
325
325
327
328
329
329
330
331
332
333
334
335
335
335
336
337
338
338
339
340
341
341
342
343
345
345
345
346
347
348
349
350
350
351
352
353
353
354
354
354
354
354
355
355
356
356
356
356
356
356
357
356
356
355
355
355
354
354
353
352
351
351
350
349
349
347
347
346
346
346
346
346
345
345
344
344
344
344
345
343
344
343
343
342
342
342
340
340
339
338
338
336
335
333
331
329
327
326
324
322
320
318
318
316
315
313
312
309
308
307
306
306
305
304
304
304
304
304
304
304
303
303
302
302
302
301
300
299
299
299
297
297
295
294
292
292
290
289
286
285
283
282
280
280
278
276
275
274
273
273
272
272
272
271
271
271
271
271
272
271
271
270
270
270
270
270
269
268
267
267
266
265
264
262
262
261
260
261
259
260
258
258
258
258
258
259
259
259
261
262
262
263
263
264
264
265
265
266
266
266
266
266
266
265
266
265
264
264
264
264
263
262
261
260
259
258
258
258
256
256
255
254
253
253
253
252
251
250
250
251
251
250
249
249
248
248
249
248
249
248
248
248
248
248
247
247
247
247
247
248
248
249
248
248
247
247
248
247
248
247
247
247
247
247
247
247
246
246
246
246
245
245
244
244
244
243
243
242
241
240
239
239
238
237
236
235
233
232
231
231
230
230
229
227
226
225
224
223
223
221
221
221
220
220
220
219
218
218
217
216
216
216
214
213
212
211
210
210
209
208
207
206
205
205
204
203
202
201
200
200
200
199
198
197
197
197
197
197
196
195
195
195
195
194
194
195
194
194
194
194
195
195
193
193
193
192
192
191
190
188
187
184
183
180
178
176
175
173
171
171
170
169
169
169
169
172
174
175
178
180
183
187
190
195
200
205
209
215
221
227
233
239
244
249
255
260
264
268
271
273
272
272
270
266
262
255
247
237
227
215
202
188
172
156
139
123
107
92
76
62
48
36
26
19
12
6
0
-2
-5
-5
-4
-2
1
4
7
12
18
23
29
34
40
47
52
58
64
68
73
78
83
88
93
97
100
103
106
108
111
112
114
115
116
116
117
117
117
117
116
115
114
114
113
112
111
109
107
106
106
105
104
104
103
102
101
101
100
99
98
97
97
97
96
96
96
95
95
94
94
94
92
92
90
89
89
89
88
88
88
86
86
86
86
86
85
84
83
83
84
83
83
82
81
81
80
80
80
78
78
78
77
77
77
76
75
75
73
73
73
73
72
72
72
71
71
71
70
70
69
69
68
68
68
67
66
65
64
64
63
62
62
61
60
59
59
59
57
57
57
56
56
56
57
57
57
56
56
57
58
58
59
59
59
60
61
61
61
62
61
62
61
62
62
62
62
62
62
63
63
64
64
64
64
64
65
65
66
66
67
67
67
68
69
69
69
69
69
70
70
70
70
70
70
70
70
71
71
70
71
70
69
70
70
69
68
67
66
65
65
65
62
62
60
59
58
56
55
54
51
50
49
48
47
46
44
43
43
41
41
40
39
38
36
35
35
35
34
34
33
33
32
32
31
31
30
29
28
28
27
27
26
24
24
23
21
20
19
18
16
14
13
12
10
9
7
6
4
2
0
-1
-3
-5
-7
-8
-10
-11
-12
-14
-15
-16
-16
-17
-18
-19
-20
-22
-23
-24
-25
-26
-28
-29
-30
-31
-32
-34
-35
-38
-39
-40
-42
-43
-45
-47
-49
-52
-53
-55
-56
-58
-59
-61
-62
-64
-64
-64
-65
-66
-67
-68
-68
-68
-68
-68
-69
-69
-69
-69
-69
-70
-70
-72
-72
-73
-73
-75
-76
-77
-79
-80
-81
-80
-81
-81
-83
-84
-84
-85
-85
-85
-86
-87
-87
-87
-88
-87
-87
-88
-88
-88
-88
-87
-88
-88
-89
-90
-90
-91
-92
-92
-93
-95
-95
-96
-97
-97
-98
-99
-100
-102
-102
-104
-104
-105
-107
-108
-108
-109
-109
-109
-110
-111
-112
-112
-112
-113
-113
-115
-115
-116
-116
-117
-116
-117
-118
-118
-119
-119
-119
-119
-120
-122
-123
-124
-124
-125
-125
-125
-126
-128
-128
-128
-128
-129
-129
-131
-131
-132
-133
-133
-133
-135
-136
-136
-137
-137
-138
-138
-139
-140
-141
-141
-142
-143
-144
-145
-147
-148
-148
-149
-151
-152
-154
-154
-155
-157
-158
-160
-161
-163
-165
-166
-167
-168
-170
-172
-173
-175
-176
-176
-178
-180
-182
-182
-184
-185
-186
-187
-189
-189
-191
-192
-192
-193
-194
-195
-197
-197
-197
-198
-198
-199
-199
-200
-200
-200
-200
-199
-200
-201
-201
-201
-200
-200
-200
-202
-202
-202
-203
-204
-206
-207
-209
-210
-211
-212
-213
-215
-216
-218
-219
-220
-220
-221
-223
-225
-225
-226
-227
-227
-229
-230
-231
-233
-234
-235
-236
-237
-238
-240
-242
-242
-243
-245
-246
-249
-249
-251
-251
-253
-254
-254
-254
-255
-256
-255
-256
-256
-257
-257
-257
-257
-257
-257
-257
-258
-258
-259
-258
-259
-260
-262
-263
-264
-266
-266
-268
-269
-270
-271
-273
-273
-274
-275
-276
-278
-278
-280
-280
-280
-280
-281
-282
-282
-283
-283
-283
-284
-284
-285
-284
-284
-285
-286
-286
-288
-289
-290
-291
-292
-294
-296
-298
-300
-301
-304
-304
-306
-308
-309
-309
-308
-308
-307
-305
-304
-301
-299
-296
-293
-289
-285
-281
-277
-272
-267
-261
-255
-249
-243
-238
-231
-227
-222
-218
-214
-210
-208
-205
-203
-203
-205
-208
-213
-219
-226
-235
-245
-256
-269
-282
-296
-311
-326
-343
-359
-376
-391
-405
-419
-432
-443
-454
-463
-471
-476
-481
-485
-487
-488
-487
-486
-484
-481
-478
-475
-470
-466
-460
-455
-450
-445
-439
-435
-429
-424
-419
-414
-410
-406
-402
-398
-394
-390
-387
-384
-383
-379
-378
-375
-374
-372
-371
-370
-369
-368
-367
-367
-367
-367
-367
-366
-366
-366
-366
-366
-367
-367
-367
-368
-369
-370
-370
-371
-372
-372
-373
-374
-374
-375
-376
-377
-378
-379
-379
-381
-381
-381
-381
-381
-381
-381
-382
-383
-382
-382
-383
-383
-383
-383
-384
-384
-383
-383
-384
-385
-385
-386
-386
-386
-388
-389
-390
-390
-390
-390
-391
-391
-392
-392
-393
-393
-392
-393
-393
-393
-394
-394
-394
-395
-395
-396
-397
-397
-398
-398
-398
-399
-400
-401
-402
-402
-403
-404
-405
-406
-407
-408
-408
-408
-408
-409
-410
-410
-411
-411
-410
-411
-411
-412
-411
-410
-410
-410
-410
-410
-410
-410
-411
-410
-411
-410
-411
-412
-412
-411
-412
-412
-414
-414
-415
-416
-415
-416
-417
-417
-418
-418
-419
-418
-419
-419
-420
-419
-420
-420
-419
-420
-420
-420
-419
-419
-418
-419
-419
-419
-419
-419
-419
-420
-420
-421
-422
-422
-422
-422
-422
-423
-423
-424
-424
-424
-424
-424
-424
-425
-425
-425
-425
-425
-425
-425
-426
-426
-426
-426
-426
-427
-428
-428
-429
-429
-430
-430
-430
-431
-432
-432
-433
-434
-436
-438
-439
-440
-442
-443
-444
-445
-447
-449
-451
-451
-453
-456
-458
-460
-462
-463
-464
-466
-467
-468
-470
-471
-472
-473
-474
-475
-477
-478
-478
-479
-480
-481
-482
-484
-485
-486
-487
-488
-489
-492
-494
-496
-498
-500
-502
-504
-506
-508
-509
-511
-513
-514
-516
-519
-520
-521
-523
-524
-524
-526
-527
-528
-529
-530
-530
-531
-532
-533
-534
-534
-534
-535
-536
-538
-539
-539
-541
-541
-543
-544
-545
-547
-547
-549
-550
-552
-553
-554
-556
-557
-558
-560
-561
-562
-564
-565
-566
-567
-568
-569
-571
-572
-573
-574
-574
-576
-576
-577
-578
-579
-579
-580
-581
-582
-584
-584
-584
-585
-585
-586
-587
-588
-588
-589
-589
-590
-592
-593
-593
-594
-595
-597
-598
-600
-601
-603
-604
-605
-607
-609
-609
-611
-612
-613
-614
-614
-615
-617
-618
-617
-617
-617
-617
-618
-618
-618
-617
-617
-618
-618
-618
-618
-618
-618
-618
-619
-620
-620
-620
-621
-621
-621
-622
-623
-623
-624
-624
-624
-625
-625
-625
-626
-625
-625
-625
-626
-626
-627
-627
-627
-626
-627
-626
-627
-627
-628
-628
-629
-630
-631
-632
-634
-635
-636
-638
-639
-640
-642
-642
-642
-642
-642
-643
-642
-641
-639
-637
-635
-633
-631
-627
-623
-619
-614
-609
-604
-599
-593
-587
-580
-574
-569
-564
-560
-556
-552
-549
-549
-548
-550
-554
-557
-564
-572
-581
-593
-605
-620
-635
-651
-668
-686
-705
-724
-743
-760
-778
-794
-809
-823
-836
-846
-854
-862
-868
-871
-874
-874
-873
-870
-866
-861
-856
-850
-844
-836
-829
-821
-814
-807
-799
-792
-785
-779
-773
-766
-762
-757
-753
-749
-745
-741
-739
-737
-734
-733
-731
-731
-730
-729
-729
-729
-729
-729
-728
-728
-729
-729
-728
-728
-729
-729
-730
-731
-732
-733
-733
-732
-733
-734
-735
-735
-735
-734
-735
-735
-735
-736
-735
-735
-735
-734
-733
-733
-734
-733
-734
-733
-733
-734
-735
-736
-735
-736
-737
-739
-740
-741
-741
-743
-744
-745
-747
-748
-749
-750
-751
-753
-754
-755
-756
-757
-757
-758
-759
-759
-760
-761
-761
-760
-761
-760
-761
-761
-761
-761
-760
-759
-760
-759
-759
-759
-758
-758
-758
-757
-758
-757
-756
-756
-756
-756
-757
-756
-757
-757
-757
-756
-756
-756
-757
-757
-756
-756
-755
-754
-754
-753
-752
-751
-750
-749
-749
-748
-746
-745
-744
-743
-742
-742
-741
-741
-740
-739
-739
-737
-737
-736
-735
-734
-734
-733
-731
-731
-730
-730
-728
-727
-725
-723
-722
-720
-718
-716
-714
-712
-711
-709
-707
-705
-704
-702
-701
-700
-699
-697
-697
-696
-696
-695
-696
-696
-696
-696
-696
-697
-697
-698
-698
-698
-699
-699
-700
-701
-702
-702
-703
-702
-703
-704
-704
-705
-705
-705
-706
-707
-708
-708
-709
-709
-710
-710
-712
-713
-713
-714
-715
-715
-717
-719
-719
-720
-721
-722
-722
-724
-725
-726
-727
-727
-728
-728
-730
-731
-731
-731
-731
-732
-733
-734
-735
-736
-737
-738
-739
-740
-742
-744
-744
-745
-747
-749
-750
-752
-755
-756
-758
-760
-761
-763
-764
-765
-767
-768
-769
-770
-771
-773
-773
-774
-774
-775
-777
-777
-779
-779
-779
-779
-780
-781
-782
-784
-785
-785
-786
-786
-788
-788
-789
-790
-791
-792
-794
-795
-797
-798
-799
-799
-800
-801
-802
-803
-804
-805
-805
-806
-807
-807
-808
-808
-807
-807
-808
-809
-809
-810
-810
-811
-811
-811
-812
-811
-810
-811
-810
-810
-811
-811
-812
-811
-812
-812
-813
-813
-814
-815
-815
-815
-817
-817
-818
-820
-820
-821
-823
-823
-825
-825
-826
-826
-827
-826
-827
-827
-827
-827
-827
-827
-826
-828
-828
-828
-828
-829
-830
-830
-830
-831
-831
-832
-832
-833
-833
-834
-834
-835
-836
-836
-836
-837
-837
-838
-838
-839
-840
-841
-841
-842
-843
-844
-844
-844
-845
-847
-847
-848
-849
-849
-850
-851
-852
-854
-854
-854
-856
-857
-857
-858
-859
-859
-860
-861
-862
-863
-864
-864
-864
-865
-866
-867
-868
-869
-870
-871
-872
-871
-872
-873
-873
-874
-875
-875
-876
-876
-878
-878
-879
-879
-879
-880
-881
-882
-883
-884
-884
-885
-886
-887
-887
-888
-890
-890
-892
-893
-894
-894
-895
-895
-896
-897
-899
-900
-900
-902
-903
-904
-907
-908
-910
-912
-914
-916
-919
-921
-924
-926
-929
-932
-935
-938
-940
-943
-946
-947
-950
-952
-954
-956
-957
-958
-959
-960
-962
-964
-965
-966
-967
-968
-969
-971
-971
-972
-974
-974
-976
-977
-978
-980
-981
-981
-981
-983
-985
-985
-986
-987
-986
-988
-987
-989
-989
-989
-989
-990
-990
-990
-991
-991
-992
-992
-992
-994
-993
-995
-996
-997
-997
-998
-998
-1000
-1000
-1001
-1003
-1003
-1004
-1006
-1006
-1007
-1008
-1008
-1008
-1008
-1009
-1010
-1010
-1010
-1010
-1010
-1010
-1012
-1012
-1013
-1013
-1013
-1012
-1012
-1013
-1013
-1013
-1013
-1011
-1010
-1009
-1008
-1006
-1004
-1000
-997
-994
-989
-985
-982
-977
-972
-966
-961
-956
-950
-944
-937
-931
-926
-921
-918
-914
-910
-907
-904
-902
-902
-902
-903
-905
-909
-914
-920
-928
-939
-950
-962
-974
-988
-1002
-1017
-1033
-1049
-1064
-1080
-1096
-1111
-1125
-1138
-1149
-1159
-1166
-1174
-1179
-1183
-1185
-1185
-1184
-1182
-1179
-1175
-1171
-1164
-1158
-1151
-1144
-1137
-1130
-1122
-1115
-1107
-1100
-1092
-1086
-1080
-1072
-1066
-1061
-1055
-1050
-1045
-1041
-1036
-1032
-1028
-1025
-1022
-1019
-1017
-1014
-1013
-1011
-1009
-1007
-1007
-1006
-1004
-1004
-1003
-1002
-1002
-1002
-1002
-1002
-1001
-1000
-1001
-1000
-1001
-1001
-1000
-1000
-1000
-1000
-1000
-999
-998
-998
-998
-998
-998
-998
-997
-997
-996
-996
-995
-995
-995
-994
-993
-993
-992
-992
-992
-991
-990
-990
-989
-989
-990
-990
-989
-989
-989
-989
-989
-990
-989
-989
-989
-989
-989
-989
-989
-988
-987
-986
-986
-985
-985
-984
-983
-983
-981
-980
-979
-979
-978
-977
-975
-974
-974
-973
-973
-972
-971
-970
-970
-970
-970
-970
-970
-969
-970
-969
-970
-970
-971
-971
-971
-971
-971
-970
-970
-969
-969
-968
-968
-967
-967
-966
-965
-963
-962
-960
-960
-958
-957
-956
-954
-953
-951
-951
-949
-948
-946
-945
-944
-943
-943
-942
-941
-940
-939
-939
-938
-938
-937
-937
-936
-936
-935
-935
-934
-932
-932
-929
-928
-927
-926
-925
-924
-923
-921
-920
-918
-916
-915
-913
-911
-910
-909
-907
-906
-906
-904
-903
-902
-901
-901
-900
-898
-898
-896
-896
-897
-896
-895
-895
-895
-894
-894
-894
-894
-894
-894
-894
-894
-895
-895
-896
-896
-896
-896
-896
-896
-897
-897
-897
-898
-897
-898
-897
-898
-898
-897
-896
-896
-896
-896
-896
-895
-894
-895
-895
-894
-894
-894
-893
-892
-892
-892
-892
-892
-892
-892
-892
-893
-894
-895
-895
-895
-896
-896
-897
-899
-899
-900
-900
-901
-902
-901
-903
-904
-904
-903
-903
-903
-904
-903
-904
-904
-904
-903
-904
-905
-906
-906
-907
-906
-907
-907
-908
-909
-910
-910
-910
-912
-912
-913
-915
-915
-916
-916
-916
-917
-918
-919
-919
-918
-919
-918
-919
-919
-919
-918
-918
-918
-917
-918
-917
-917
-916
-917
-917
-916
-917
-917
-916
-915
-916
-916
-916
-916
-916
-915
-915
-915
-915
-915
-915
-915
-915
-915
-916
-917
-918
-919
-919
-918
-919
-920
-921
-921
-921
-921
-921
-921
-921
-921
-921
-920
-919
-918
-918
-917
-916
-915
-914
-913
-913
-912
-911
-911
-910
-909
-908
-908
-908
-907
-907
-907
-906
-905
-904
-903
-902
-902
-900
-900
-899
-899
-899
-898
-897
-896
-895
-893
-894
-893
-892
-891
-891
-890
-889
-889
-889
-888
-888
-888
-887
-887
-887
-886
-886
-886
-885
-885
-885
-885
-885
-885
-884
-884
-883
-883
-883
-883
-882
-881
-881
-880
-879
-880
-878
-877
-877
-875
-875
-875
-873
-873
-872
-872
-871
-872
-871
-871
-870
-870
-870
-869
-869
-870
-870
-870
-869
-869
-869
-870
-870
-870
-870
-870
-871
-870
-871
-871
-872
-871
-871
-871
-872
-872
-872
-872
-871
-872
-871
-872
-873
-872
-873
-872
-872
-872
-872
-872
-872
-872
-872
-872
-872
-873
-872
-872
-872
-873
-874
-874
-875
-875
-876
-876
-876
-877
-879
-879
-879
-880
-880
-880
-881
-882
-882
-882
-882
-883
-882
-883
-882
-881
-881
-880
-880
-880
-879
-879
-879
-879
-877
-877
-877
-877
-876
-875
-875
-875
-875
-875
-876
-875
-874
-875
-874
-873
-874
-873
-872
-872
-872
-871
-871
-870
-870
-868
-867
-866
-866
-865
-866
-866
-865
-865
-865
-865
-866
-866
-867
-866
-866
-866
-867
-867
-867
-867
-867
-866
-866
-866
-865
-865
-865
-863
-863
-863
-863
-862
-862
-860
-860
-859
-859
-859
-858
-858
-858
-857
-857
-856
-856
-856
-855
-855
-855
-854
-854
-854
-853
-853
-853
-852
-851
-851
-851
-850
-850
-848
-849
-848
-848
-847
-847
-845
-844
-844
-843
-844
-843
-842
-842
-841
-842
-841
-841
-841
-839
-839
-838
-838
-838
-838
-837
-837
-837
-837
-837
-836
-836
-835
-835
-834
-834
-833
-832
-830
-829
-828
-827
-827
-827
-825
-824
-823
-822
-822
-821
-821
-819
-818
-818
-817
-818
-817
-817
-817
-817
-817
-817
-818
-817
-817
-817
-818
-817
-817
-817
-817
-817
-815
-815
-815
-815
-814
-814
-812
-812
-811
-811
-810
-809
-809
-808
-806
-805
-805
-804
-803
-803
-801
-801
-801
-800
-801
-799
-798
-798
-798
-797
-797
-797
-797
-796
-795
-795
-795
-795
-795
-795
-795
-795
-795
-795
-795
-795
-795
-793
-793
-792
-792
-792
-791
-791
-790
-789
-790
-789
-788
-786
-786
-784
-784
-784
-783
-782
-781
-780
-779
-778
-777
-777
-777
-777
-775
-776
-775
-776
-775
-775
-774
-775
-774
-776
-776
-776
-776
-775
-775
-775
-774
-773
-771
-768
-765
-762
-759
-755
-751
-747
-741
-736
-730
-725
-718
-712
-704
-698
-690
-684
-678
-672
-666
-660
-655
-651
-647
-644
-642
-640
-640
-640
-643
-647
-653
-659
-668
-678
-688
-701
-714
-728
-743
-757
-772
-788
-802
-817
-832
-845
-856
-867
-876
-886
-893
-897
-901
-904
-904
-905
-903
-901
-897
-893
-888
-883
-878
-873
-867
-860
-854
-847
-841
-836
-829
-823
-817
-811
-805
-800
-795
-791
-786
-781
-778
-775
-771
-768
-765
-763
-759
-757
-755
-755
-753
-751
-750
-748
-748
-747
-746
-746
-746
-745
-745
-745
-745
-745
-745
-745
-744
-744
-744
-744
-744
-744
-744
-743
-743
-743
-743
-744
-743
-742
-741
-741
-741
-741
-740
-740
-739
-740
-739
-740
-740
-739
-739
-738
-737
-737
-738
-737
-737
-737
-736
-736
-736
-735
-735
-733
-733
-732
-731
-731
-730
-729
-727
-726
-726
-726
-724
-725
-723
-723
-723
-722
-721
-721
-720
-720
-719
-718
-718
-718
-717
-716
-715
-714
-712
-711
-711
-709
-708
-707
-704
-704
-703
-701
-700
-699
-697
-696
-696
-695
-694
-694
-693
-692
-691
-692
-691
-691
-691
-690
-690
-689
-689
-689
-688
-688
-686
-686
-685
-685
-683
-682
-680
-679
-676
-675
-674
-672
-670
-668
-666
-665
-663
-662
-661
-659
-656
-655
-654
-652
-651
-649
-648
-646
-645
-643
-642
-640
-639
-637
-635
-633
-632
-630
-628
-627
-625
-622
-621
-619
-617
-615
-612
-610
-609
-606
-605
-604
-601
-599
-598
-595
-594
-593
-590
-588
-587
-585
-584
-583
-581
-581
-579
-578
-576
-577
-576
-575
-575
-573
-572
-572
-572
-572
-572
-572
-572
-573
-572
-573
-574
-573
-573
-573
-574
-575
-575
-576
-577
-575
-576
-575
-576
-576
-575
-575
-574
-573
-573
-573
-573
-572
-571
-570
-569
-568
-569
-568
-567
-567
-566
-566
-566
-566
-566
-566
-566
-567
-567
-568
-567
-568
-567
-567
-568
-569
-569
-569
-569
-569
-568
-569
-569
-569
-569
-569
-568
-568
-568
-568
-568
-567
-567
-567
-566
-567
-568
-568
-568
-568
-569
-568
-569
-569
-570
-569
-569
-569
-570
-569
-570
-569
-568
-568
-567
-567
-567
-566
-566
-564
-564
-563
-563
-563
-562
-561
-560
-559
-558
-558
-558
-557
-557
-555
-555
-555
-554
-553
-552
-551
-550
-550
-549
-549
-548
-547
-547
-546
-546
-545
-545
-544
-543
-542
-542
-541
-540
-540
-539
-539
-537
-537
-536
-536
-536
-535
-534
-533
-533
-533
-532
-531
-529
-528
-527
-527
-527
-526
-526
-525
-524
-524
-523
-522
-521
-520
-520
-519
-518
-518
-519
-518
-517
-516
-515
-514
-514
-512
-511
-510
-510
-508
-508
-508
-506
-505
-505
-503
-502
-502
-500
-500
-498
-497
-496
-494
-494
-494
-492
-491
-490
-489
-489
-487
-486
-484
-483
-481
-480
-480
-479
-478
-477
-477
-477
-477
-476
-476
-476
-476
-475
-476
-475
-476
-476
-475
-475
-474
-474
-473
-473
-473
-472
-471
-470
-470
-469
-469
-468
-467
-467
-467
-466
-466
-466
-464
-464
-463
-463
-462
-461
-461
-461
-460
-459
-459
-458
-458
-459
-457
-458
-458
-459
-459
-459
-459
-458
-458
-457
-457
-455
-453
-452
-449
-446
-443
-440
-436
-432
-427
-423
-418
-414
-410
-405
-399
-393
-388
-382
-378
-372
-368
-364
-359
-356
-353
-352
-351
-351
-350
-352
-356
-360
-366
-373
-381
-390
-402
-414
-427
-440
-455
-468
-483
-497
-511
-525
-538
-550
-560
-568
-576
-582
-587
-589
-591
-590
-589
-586
-583
-578
-572
-565
-556
-549
-541
-533
-525
-516
-508
-499
-492
-484
-477
-469
-462
-456
-449
-444
-439
-434
-429
-424
-420
-416
-412
-410
-408
-405
-403
-400
-399
-398
-396
-395
-394
-391
-391
-390
-389
-387
-386
-386
-384
-383
-382
-383
-382
-381
-379
-378
-378
-378
-376
-375
-375
-374
-373
-372
-371
-371
-370
-369
-367
-366
-366
-365
-365
-364
-363
-362
-362
-363
-362
-362
-361
-360
-359
-359
-359
-358
-357
-357
-356
-355
-354
-354
-353
-352
-350
-349
-348
-348
-347
-346
-345
-344
-343
-342
-342
-342
-342
-340
-339
-339
-338
-338
-338
-338
-337
-336
-337
-337
-336
-336
-336
-336
-334
-334
-334
-333
-332
-331
-331
-329
-329
-328
-327
-326
-324
-324
-322
-321
-319
-319
-317
-315
-314
-313
-311
-310
-308
-306
-304
-303
-301
-299
-298
-296
-294
-292
-290
-287
-287
-285
-282
-280
-278
-277
-275
-273
-270
-269
-266
-263
-261
-259
-257
-255
-254
-251
-250
-248
-246
-245
-242
-240
-238
-235
-234
-232
-231
-228
-227
-224
-223
-221
-218
-216
-215
-212
-211
-208
-208
-206
-205
-203
-200
-200
-199
-198
-197
-197
-195
-196
-196
-196
-196
-197
-196
-196
-196
-196
-196
-196
-196
-195
-195
-195
-194
-194
-193
-191
-191
-190
-188
-188
-188
-187
-185
-184
-184
-184
-184
-183
-183
-183
-183
-184
-185
-185
-185
-185
-186
-186
-187
-188
-189
-189
-190
-190
-191
-192
-192
-192
-193
-193
-193
-193
-193
-194
-195
-194
-195
-194
-195
-195
-196
-197
-197
-197
-198
-199
-199
-200
-200
-201
-201
-202
-203
-204
-204
-204
-205
-206
-206
-207
-207
-207
-208
-208
-208
-209
-210
-211
-211
-211
-211
-211
-211
-212
-211
-211
-210
-209
-209
-209
-209
-208
-207
-206
-204
-203
-203
-201
-201
-199
-198
-197
-197
-196
-194
-193
-192
-191
-190
-190
-189
-188
-187
-186
-185
-184
-184
-183
-183
-182
-180
-179
-180
-179
-178
-177
-176
-174
-175
-174
-173
-172
-172
-172
-171
-171
-171
-171
-170
-170
-170
-169
-169
-169
-168
-168
-168
-167
-167
-167
-167
-167
-166
-164
-164
-162
-161
-160
-159
-157
-156
-154
-153
-151
-150
-148
-146
-144
-142
-141
-140
-138
-136
-136
-135
-134
-133
-132
-132
-131
-130
-129
-129
-129
-128
-127
-126
-126
-125
-125
-125
-123
-123
-122
-122
-122
-122
-122
-121
-121
-120
-120
-121
-121
-121
-120
-120
-120
-120
-120
-119
-119
-119
-118
-117
-116
-116
-115
-115
-114
-113
-112
-111
-112
-110
-109
-107
-107
-107
-106
-106
-106
-105
-104
-103
-104
-104
-103
-103
-103
-101
-101
-101
-100
-100
-99
-98
-97
-96
-96
-95
-95
-95
-94
-93
-93
-93
-93
-93
-91
-91
-91
-91
-91
-92
-91
-91
-91
-90
-89
-89
-89
-88
-88
-87
-87
-87
-87
-87
-85
-85
-85
-85
-85
-86
-85
-85
-85
-85
-84
-84
-83
-81
-80
-78
-75
-73
-69
-65
-60
-55
-50
-45
-41
-35
-29
-22
-16
-10
-4
3
10
16
22
26
30
34
37
39
41
43
42
40
37
32
26
20
12
1
-11
-24
-36
-50
-65
-81
-96
-112
-128
-143
-158
-171
-183
-194
-204
-212
-218
-223
-226
-227
-228
-227
-225
-221
-217
-211
-204
-197
-189
-181
-172
-164
-156
-147
-139
-131
-122
-114
-107
-101
-95
-89
-82
-76
-72
-67
-63
-59
-56
-52
-49
-45
-43
-42
-39
-38
-35
-33
-31
-29
-28
-27
-25
-23
-21
-19
-18
-16
-15
-13
-11
-10
-9
-8
-6
-6
-4
-3
-2
0
0
0
2
3
4
5
6
7
7
8
8
9
10
10
11
12
13
14
15
16
16
16
17
17
18
19
19
19
19
20
20
21
21
22
22
23
24
24
24
25
25
25
26
27
28
29
29
30
30
31
31
33
33
34
34
35
36
37
37
38
39
39
39
40
42
42
43
44
45
46
48
49
51
52
53
55
57
59
61
63
65
66
68
69
71
73
73
74
76
77
77
79
81
82
82
84
86
87
89
90
91
92
93
96
97
99
100
102
104
105
107
110
111
113
115
116
118
119
121
123
124
125
127
129
130
132
134
135
136
138
139
140
141
142
143
145
145
146
147
148
148
149
149
150
151
152
151
152
152
153
154
155
156
156
157
158
159
159
161
161
162
162
163
164
165
165
166
166
166
165
167
166
166
166
165
164
164
164
164
164
163
163
163
163
163
163
163
162
163
162
163
164
164
165
165
165
166
167
167
167
167
167
168
167
168
167
167
167
167
166
166
166
166
165
165
165
166
166
165
166
165
165
165
165
165
165
165
165
164
164
165
165
164
163
162
162
162
160
160
159
158
158
157
158
157
158
157
157
158
158
159
159
159
160
160
161
162
164
165
166
166
167
168
168
169
169
170
170
170
170
170
170
170
171
170
171
171
172
172
172
172
172
172
173
173
173
174
173
174
173
174
174
174
174
176
176
176
178
179
179
180
180
181
183
183
185
187
187
188
190
192
193
194
195
196
197
198
200
201
202
202
202
202
203
203
204
205
205
205
206
206
207
208
208
208
209
210
212
213
214
215
216
217
219
220
220
221
221
222
224
225
225
226
227
226
227
228
228
228
228
229
229
229
229
229
229
229
228
229
228
228
229
229
228
228
229
229
229
230
231
230
230
232
232
234
234
235
235
236
238
239
240
240
242
242
242
243
244
245
245
243
243
243
242
243
242
241
240
240
240
240
240
240
239
239
240
241
242
243
243
244
246
247
249
249
251
252
253
254
255
257
257
257
258
258
259
260
260
261
260
261
261
262
262
262
263
263
262
263
263
263
263
263
263
263
264
264
265
265
265
264
264
264
266
266
266
266
267
267
267
268
269
268
269
269
270
270
270
271
271
271
270
271
271
273
273
273
273
273
274
275
276
276
276
277
278
279
280
281
281
282
281
282
284
285
285
285
287
288
291
294
296
299
302
305
309
314
319
324
329
335
340
346
352
359
366
372
379
386
392
399
406
411
416
420
425
429
431
434
434
433
430
427
421
415
406
396
386
374
361
348
332
318
302
286
271
256
243
229
217
206
195
187
181
176
173
170
170
170
171
175
179
183
188
193
200
206
214
221
229
235
243
251
258
266
273
280
286
294
301
307
313
320
325
330
335
339
344
349
352
355
358
361
363
365
367
369
370
371
373
374
376
376
377
378
380
381
383
383
385
385
386
387
388
388
389
389
389
390
391
391
391
391
392
391
391
391
392
392
392
392
392
392
393
393
394
394
394
394
394
395
395
396
398
398
398
399
400
400
401
402
402
403
405
407
408
408
409
410
411
412
414
414
415
415
416
416
418
418
418
418
419
419
418
419
419
418
417
418
418
418
419
419
419
420
420
421
422
423
423
424
424
426
426
427
428
428
429
429
430
430
432
432
433
433
434
437
437
438
440
441
442
443
443
445
446
447
448
449
450
452
453
454
456
456
457
459
461
462
463
464
465
466
468
469
470
471
472
473
473
475
476
476
477
478
479
480
482
483
485
485
486
487
490
490
492
493
493
495
496
498
499
500
500
501
502
503
504
505
505
504
505
505
505
505
505
506
505
506
506
507
507
507
507
506
506
506
507
507
507
506
506
505
505
505
504
504
504
503
503
502
502
501
501
500
500
499
499
499
499
498
498
498
498
499
499
498
498
498
499
500
500
500
500
500
500
501
501
501
501
500
500
500
498
497
497
496
494
493
493
492
492
490
489
488
487
487
485
485
484
485
484
484
484
485
485
484
484
484
485
485
486
486
486
486
486
486
486
486
486
485
485
484
483
483
482
482
481
481
480
480
479
479
478
478
477
477
477
477
477
477
477
477
477
477
477
477
476
476
476
477
476
476
476
475
475
476
476
476
475
475
475
474
474
475
474
474
475
475
475
475
476
477
477
478
478
479
480
481
481
482
482
483
484
485
485
486
486
486
487
488
488
488
489
489
489
491
491
491
491
492
491
492
493
493
494
495
495
495
496
497
498
498
498
498
498
498
499
500
499
500
500
500
501
501
502
501
502
501
502
501
501
503
502
502
502
502
503
503
504
503
502
502
503
503
503
503
502
502
502
503
502
502
502
502
502
502
503
503
503
502
502
502
501
501
501
500
499
500
500
499
499
499
498
497
497
497
497
497
497
497
497
497
497
497
498
498
498
497
499
499
499
500
500
500
500
500
501
501
500
501
501
501
501
502
501
501
501
501
501
500
501
501
500
498
498
498
497
496
496
494
493
492
491
490
490
488
487
486
486
486
486
487
487
488
490
493
495
498
501
505
508
513
517
522
526
533
538
544
551
557
563
570
575
579
585
590
594
597
601
602
603
602
600
597
593
585
577
568
557
545
533
519
504
489
473
458
443
428
413
399
386
374
364
355
348
341
337
334
331
331
332
334
336
339
344
349
354
360
366
371
378
384
390
396
402
408
413
419
425
430
434
440
443
447
452
457
461
464
468
471
473
475
478
480
481
483
484
485
485
486
487
487
486
486
485
486
485
486
484
483
483
482
482
482
481
481
481
482
482
483
482
483
483
483
483
484
485
486
486
486
487
487
488
488
488
489
488
488
488
489
488
489
490
489
489
490
491
491
492
492
492
493
493
495
494
495
495
496
497
497
497
498
498
498
499
499
499
500
499
499
499
499
499
500
499
499
498
498
498
497
497
498
497
498
497
498
499
499
500
500
501
502
503
504
505
506
508
509
510
511
512
513
514
513
514
514
515
515
516
515
515
515
516
516
517
517
516
517
519
519
520
521
521
522
523
525
526
528
529
529
529
530
531
533
534
534
534
534
534
534
534
534
533
533
533
533
533
533
533
533
533
533
533
534
535
534
534
535
536
536
537
537
537
538
538
539
539
540
540
540
541
541
541
541
541
541
539
539
539
538
538
538
536
535
535
534
534
532
531
530
529
527
526
526
524
523
522
521
520
520
519
520
519
518
518
518
518
517
517
517
517
517
516
517
517
516
515
514
514
514
513
513
511
511
510
509
508
508
507
505
504
503
502
502
501
500
498
498
496
495
495
493
493
491
490
490
490
489
488
486
486
485
484
484
482
481
480
479
478
477
477
476
475
474
474
474
473
472
472
471
470
470
469
469
468
467
467
466
466
466
466
465
465
464
463
463
462
462
461
461
461
461
461
461
461
460
460
461
461
461
461
460
460
459
458
459
459
459
459
458
457
457
458
457
456
456
455
455
455
456
455
456
457
456
457
457
458
459
460
459
459
459
460
461
460
461
460
460
459
458
458
457
455
454
454
454
453
452
452
451
451
450
450
449
450
449
449
449
449
449
450
450
449
449
450
449
450
450
449
449
448
448
448
448
447
447
446
445
445
445
445
445
445
445
445
445
446
446
446
446
446
447
447
448
448
447
448
447
448
448
449
448
447
446
446
445
445
445
444
443
443
443
442
442
442
442
441
441
441
441
441
441
441
441
441
441
442
441
441
440
440
439
439
439
438
438
436
436
435
434
433
432
430
430
428
428
428
428
429
429
430
432
434
436
439
442
444
448
451
455
460
464
468
473
478
484
490
495
499
504
508
511
515
517
519
520
520
519
516
514
509
502
495
485
474
463
450
436
420
404
388
371
355
340
324
309
296
283
272
262
253
247
241
237
234
233
234
237
239
242
247
252
259
265
271
278
284
290
297
304
310
317
322
327
334
340
345
350
355
359
361
365
368
371
373
375
376
378
379
379
381
381
380
380
380
380
380
380
379
379
379
378
378
378
378
377
377
377
377
377
377
378
378
378
377
378
378
378
378
378
377
377
377
376
376
376
375
375
375
375
374
374
374
374
374
374
374
374
375
374
374
374
374
375
375
375
375
375
375
375
375
375
374
374
374
374
374
375
374
374
374
374
375
374
374
374
374
374
374
375
376
375
375
376
376
376
377
376
376
376
375
375
376
376
376
376
377
376
376
376
377
377
377
377
377
377
378
378
378
379
379
380
380
381
380
381
380
380
381
380
380
380
380
381
381
382
382
383
383
383
384
385
386
387
388
390
390
393
394
396
398
400
400
401
403
403
404
405
404
405
404
404
404
404
404
404
403
402
402
401
401
400
400
400
400
400
400
400
401
400
400
400
401
400
400
400
400
399
398
398
398
397
396
395
394
394
393
392
391
390
388
388
387
386
384
383
381
381
380
379
379
378
377
376
375
375
374
374
373
372
371
370
370
370
370
369
368
367
367
367
366
365
364
363
362
361
360
359
359
357
356
355
354
353
351
350
348
347
345
344
342
341
340
338
337
335
334
334
333
331
329
328
327
327
326
326
325
325
324
323
323
322
322
321
321
320
320
319
317
316
315
314
313
312
311
310
308
307
306
306
305
304
302
301
301
301
301
301
300
299
299
299
298
298
298
298
298
297
296
297
296
294
293
292
292
292
292
291
291
290
290
290
289
289
289
289
289
288
289
289
289
289
289
289
288
287
287
287
286
286
285
284
284
284
283
282
281
281
279
279
279
278
278
277
277
276
277
278
277
276
276
276
277
278
277
278
278
278
278
278
278
279
278
278
278
278
278
278
277
277
276
276
275
275
274
273
273
271
271
271
271
270
268
268
268
267
268
268
267
267
266
266
266
266
266
266
266
266
265
265
265
264
263
263
262
263
262
262
261
260
259
259
258
257
256
255
254
254
253
252
253
251
251
250
249
248
248
247
247
246
245
244
243
243
242
241
239
238
237
236
236
234
234
232
231
231
231
230
230
230
230
231
234
235
237
240
242
244
247
250
254
257
260
263
268
272
277
281
285
288
292
296
298
301
302
304
304
304
302
300
297
291
285
276
267
257
246
233
219
203
187
171
155
137
120
104
89
74
61
48
38
29
21
14
10
7
6
6
7
10
13
18
23
29
36
42
48
55
62
69
76
82
88
94
101
107
113
118
123
129
133
137
141
145
148
152
154
156
158
160
162
163
165
164
166
166
166
167
167
167
167
166
167
166
166
166
165
165
165
165
165
164
164
163
163
163
163
163
162
161
160
160
160
160
159
159
158
157
157
157
158
157
156
156
156
156
156
155
155
155
154
155
154
154
154
153
153
152
153
152
153
153
154
153
153
154
154
155
155
156
157
157
158
159
160
160
159
160
160
161
160
161
160
160
159
160
159
159
158
157
157
156
156
156
156
155
155
154
154
155
155
154
153
153
153
153
154
154
154
154
155
155
156
156
156
157
157
158
158
159
160
162
162
162
164
165
166
167
168
168
169
170
171
172
173
173
174
174
175
176
177
178
178
178
178
179
180
180
181
181
181
180
181
182
183
183
182
182
182
183
183
183
183
184
185
185
185
185
185
185
185
185
184
185
185
184
184
183
182
181
181
180
180
178
178
177
177
176
175
174
173
173
172
171
170
169
167
166
165
164
163
163
161
160
159
158
157
156
156
154
153
151
150
149
147
146
144
143
142
141
140
140
138
137
136
135
134
134
132
132
130
129
129
128
129
127
127
125
124
124
123
123
122
120
120
119
118
117
115
114
112
111
110
110
109
107
105
104
103
102
100
98
96
95
94
93
92
90
90
88
88
87
85
86
85
85
84
83
83
82
82
81
81
81
80
81
81
80
80
80
79
78
79
78
78
77
76
75
75
76
75
75
74
73
73
71
72
71
70
70
69
68
68
69
68
68
67
67
67
67
68
68
68
69
69
69
69
70
70
69
70
69
70
71
71
71
71
71
71
71
72
73
72
72
72
73
74
74
75
75
75
75
76
77
76
77
76
76
76
76
77
77
76
76
77
77
77
77
77
76
76
77
76
77
77
76
75
74
74
74
73
73
72
71
71
70
69
69
68
66
66
65
65
64
63
63
62
62
62
62
63
62
62
62
62
62
63
63
62
62
62
61
62
62
61
61
60
59
58
58
57
56
55
54
53
53
52
52
51
50
50
49
49
48
48
46
46
44
43
43
42
41
40
39
38
38
38
37
36
35
33
33
32
32
31
31
30
30
30
30
30
31
30
30
31
31
32
32
32
32
32
31
32
31
30
30
29
29
29
28
28
27
26
26
25
25
25
24
24
23
24
23
23
24
24
24
23
23
24
24
25
24
25
25
25
25
24
25
24
23
23
22
23
23
23
21
21
21
20
20
20
20
19
19
19
19
20
20
21
20
20
21
21
21
22
21
21
21
20
20
21
20
19
19
19
20
20
20
20
20
19
19
19
19
19
19
19
19
20
20
21
21
21
21
21
22
22
22
22
23
22
23
23
23
23
23
23
23
23
23
24
23
23
22
22
22
22
22
21
21
20
20
19
19
18
17
17
16
15
15
15
15
14
13
13
13
13
13
13
13
12
11
12
13
12
12
12
12
11
11
11
11
10
10
9
10
9
9
8
7
7
6
7
6
7
5
5
4
4
4
4
3
2
0
0
-1
0
-1
-2
-2
-2
-1
0
1
3
5
8
12
15
20
24
28
34
39
44
51
57
64
70
75
81
86
92
97
100
103
105
106
108
109
109
106
103
98
92
84
75
64
52
39
24
9
-5
-22
-38
-55
-72
-88
-103
-118
-131
-144
-155
-165
-174
-180
-184
-188
-190
-190
-189
-186
-182
-177
-172
-167
-161
-155
-147
-140
-132
-126
-118
-110
-103
-97
-89
-83
-76
-71
-66
-60
-54
-49
-44
-40
-37
-33
-29
-25
-23
-20
-18
-16
-14
-12
-9
-8
-7
-6
-6
-5
-4
-4
-4
-3
-3
-3
-2
-1
-2
-1
-1
0
0
1
1
2
3
3
4
4
5
5
7
7
7
7
7
7
7
6
7
6
5
5
4
4
3
3
1
1
1
1
1
0
0
0
1
2
2
3
3
3
3
5
5
5
6
6
6
7
8
8
8
7
7
7
7
6
6
6
6
5
5
4
4
4
4
3
2
2
3
4
4
3
2
2
2
2
2
3
2
2
2
2
2
3
3
2
3
4
4
4
4
5
5
5
6
6
7
8
8
9
10
11
13
14
14
15
16
16
17
18
19
19
20
20
21
22
23
24
24
25
26
28
29
29
30
32
32
34
35
36
37
38
39
40
42
43
44
45
45
46
47
48
49
50
51
51
52
54
54
56
56
56
56
57
57
58
58
58
58
58
58
59
61
60
60
61
60
61
62
62
62
61
61
62
62
61
62
62
61
60
60
61
61
61
60
60
59
59
58
58
58
58
57
57
57
57
57
56
56
55
54
54
54
54
53
52
51
50
50
49
48
47
46
45
45
44
44
43
43
42
42
42
43
43
42
41
41
40
40
39
39
38
37
37
36
35
34
32
31
30
29
28
27
25
24
23
21
20
19
17
16
15
13
12
11
10
10
9
8
7
7
6
6
6
6
4
4
4
5
4
4
5
5
4
4
5
5
5
5
4
4
5
5
5
5
5
5
5
5
6
6
7
6
7
7
7
8
8
8
7
7
7
8
7
8
7
7
7
7
8
7
7
7
7
7
8
8
8
8
8
9
9
10
10
10
10
11
11
12
12
13
13
13
13
12
13
14
14
15
16
17
17
18
18
19
20
19
21
22
23
24
25
25
25
26
27
28
28
27
28
28
29
30
31
31
31
31
31
32
32
33
33
33
33
33
33
34
33
32
32
31
32
31
31
31
31
30
29
30
30
30
29
29
29
29
30
31
31
31
31
31
32
33
35
35
35
35
35
34
34
34
34
32
32
32
31
31
31
30
28
27
26
25
25
24
24
22
21
21
20
19
18
17
16
14
13
11
11
10
9
8
9
9
10
11
12
13
15
18
20
24
27
30
34
38
43
49
53
59
64
70
76
82
86
92
96
99
103
106
108
110
110
109
107
103
99
92
84
75
64
52
40
26
12
-2
-19
-34
-49
-64
-79
-92
-106
-118
-129
-137
-145
-150
-155
-159
-160
-161
-159
-156
-153
-148
-143
-138
-132
-125
-117
-110
-102
-95
-88
-81
-73
-66
-59
-52
-46
-40
-34
-28
-24
-19
-15
-12
-8
-5
-1
1
4
5
7
9
10
11
12
12
14
14
14
15
16
16
16
16
16
16
15
14
14
14
14
13
13
13
13
13
13
14
15
15
16
16
16
18
18
20
22
23
24
25
26
28
29
30
30
31
31
31
32
33
32
32
32
32
31
31
31
31
31
30
30
29
30
30
29
29
30
29
30
30
30
30
30
30
31
32
33
33
33
33
34
35
35
36
37
37
37
39
40
41
41
42
41
41
42
42
43
44
44
44
45
44
46
46
47
47
48
49
51
52
53
53
55
55
57
59
60
61
62
64
64
66
66
69
70
71
72
73
73
74
75
76
77
78
79
79
81
82
82
82
83
84
85
86
87
89
89
91
92
94
95
96
97
98
101
102
104
104
106
107
108
109
111
112
113
114
115
117
118
120
121
122
123
124
125
125
126
127
128
128
128
129
130
131
131
132
131
131
132
132
132
132
131
131
131
132
132
132
131
131
131
131
131
131
131
129
129
129
128
128
128
127
126
125
125
124
123
122
121
121
119
118
118
118
116
115
114
113
113
112
111
110
110
109
109
108
109
108
107
108
108
107
107
107
108
107
107
107
108
109
109
109
108
108
108
109
108
107
107
106
105
104
104
104
103
102
102
101
100
100
99
98
98
98
97
99
99
100
100
100
101
101
102
103
104
105
106
106
107
109
109
110
111
111
111
112
112
112
113
113
113
114
114
114
114
113
114
113
114
114
115
114
114
114
115
116
116
116
115
115
115
115
115
115
116
116
116
117
118
119
120
120
120
120
121
122
123
123
124
125
125
126
126
127
127
128
126
127
127
128
128
128
129
129
130
131
131
132
132
133
134
134
136
137
139
139
141
143
144
145
146
147
148
148
148
149
150
151
150
151
151
150
151
151
151
152
151
151
151
152
152
152
151
151
151
151
151
152
152
150
150
151
151
151
151
150
151
151
151
151
151
152
152
151
151
151
152
152
152
152
152
152
153
153
155
155
155
156
157
158
159
160
161
161
162
162
162
163
164
163
163
163
164
163
162
162
161
160
159
158
158
157
157
156
156
156
156
157
158
159
161
163
166
170
173
177
181
185
191
195
200
205
211
217
224
231
237
244
250
255
259
264
268
272
275
277
278
277
276
273
269
262
255
245
235
224
211
197
182
167
151
136
120
105
91
77
64
53
43
34
29
24
19
16
16
16
18
21
24
28
33
39
46
53
60
67
74
81
88
96
103
110
116
121
126
133
138
143
148
152
156
160
163
167
170
172
174
177
178
181
182
184
184
185
186
188
189
190
190
191
192
193
193
193
194
195
194
195
195
196
196
196
196
196
195
197
197
196
197
197
197
197
197
198
199
199
199
201
202
203
204
205
205
206
207
208
209
209
210
210
211
212
212
213
214
214
214
213
215
215
215
215
215
215
216
217
218
219
219
220
220
220
222
223
223
224
225
225
227
228
228
229
230
230
230
231
232
233
233
233
233
233
234
234
235
235
236
236
236
237
238
239
239
239
240
241
242
242
243
243
244
245
246
247
247
248
249
250
250
251
252
253
254
255
256
258
259
260
262
262
264
265
267
269
270
271
273
275
276
277
279
280
282
282
283
284
285
287
287
288
288
289
290
291
292
292
293
294
294
295
294
295
294
294
295
295
295
296
296
296
296
297
297
296
296
297
297
297
299
300
301
301
302
302
303
303
304
305
305
305
306
306
306
307
307
306
305
305
305
305
304
304
303
302
301
300
300
299
298
296
295
294
294
293
293
292
292
291
291
290
290
289
289
288
288
288
287
287
287
286
286
285
285
284
284
283
282
281
281
281
280
279
279
278
277
276
276
276
275
274
273
273
272
272
272
271
270
269
269
268
267
267
266
265
265
264
264
263
262
261
261
261
261
261
261
261
261
261
261
262
262
263
263
263
262
262
263
263
262
263
262
262
263
263
263
264
264
263
263
263
263
263
263
263
262
263
264
263
264
264
263
264
264
264
264
264
264
264
265
265
265
266
265
266
266
266
266
266
266
266
266
266
268
268
268
269
269
269
271
272
273
273
273
274
274
276
277
277
278
277
278
279
278
278
278
277
278
278
277
277
278
277
276
275
275
275
275
274
275
274
274
274
275
275
275
276
276
277
277
279
279
280
281
281
281
282
282
283
282
283
283
283
283
284
283
283
281
281
280
280
280
280
280
280
279
279
280
280
279
280
281
281
282
283
284
284
284
284
284
284
284
284
284
283
283
284
284
284
283
283
282
281
282
282
282
281
282
282
282
283
284
284
284
284
284
284
284
283
283
282
282
281
281
280
279
278
278
277
277
277
276
275
275
274
274
275
275
274
275
275
276
277
278
279
280
281
282
282
283
284
285
286
285
285
286
286
286
285
285
283
283
283
282
281
280
279
278
276
277
277
276
276
276
275
276
276
277
276
276
276
275
276
276
276
276
275
274
273
274
274
275
274
275
276
278
280
283
285
288
291
294
299
303
307
312
316
321
327
332
338
342
348
352
356
359
362
365
366
367
366
365
363
359
354
349
341
332
322
310
298
285
270
254
239
223
208
192
177
162
149
136
125
115
107
100
95
91
88
87
88
90
93
96
100
106
112
119
126
133
141
148
155
163
170
177
184
191
197
204
209
215
220
226
229
234
238
242
245
248
251
253
256
258
260
262
263
264
265
266
266
267
267
266
267
266
266
267
267
267
266
266
267
266
266
266
267
267
267
268
269
270
270
270
272
273
274
275
277
278
280
279
281
282
283
283
284
284
285
286
286
287
287
286
286
286
286
286
285
285
284
284
284
283
283
283
283
282
282
282
282
282
282
281
281
281
281
281
282
281
281
281
281
282
283
283
283
283
284
284
286
287
287
288
289
290
292
292
293
293
293
293
294
294
295
294
294
294
295
294
294
294
294
294
295
295
296
297
298
298
298
299
300
302
302
303
304
304
305
306
307
308
307
308
308
307
309
309
310
310
310
310
310
311
313
313
314
314
316
317
319
320
322
322
323
324
326
328
329
329
329
330
330
331
331
331
331
331
331
331
333
333
332
332
332
332
332
332
333
332
332
332
333
333
333
333
333
333
332
333
332
332
331
330
330
329
329
328
327
326
325
325
324
324
324
323
323
322
323
322
323
323
323
323
323
323
323
324
324
324
324
324
325
324
326
325
324
325
325
325
325
325
324
324
323
322
322
322
322
321
320
320
318
318
318
317
317
315
315
315
315
314
314
313
311
311
311
311
310
309
308
308
307
306
306
306
304
304
303
302
303
302
301
301
299
299
298
298
297
297
297
296
296
295
294
294
293
292
292
291
292
290
291
289
289
287
287
286
286
286
285
285
285
286
285
285
285
286
286
287
287
288
288
288
289
289
289
290
290
290
289
289
289
289
289
288
288
287
287
287
288
288
288
288
288
288
289
289
289
290
290
291
292
293
294
294
295
295
297
297
298
299
300
299
300
300
301
302
301
302
301
301
302
302
303
303
304
303
304
304
304
304
304
304
305
304
305
305
305
305
305
305
306
306
307
307
308
308
309
310
311
312
312
313
314
315
316
317
318
318
317
317
317
318
318
318
318
317
316
316
315
315
315
314
313
312
311
312
311
310
310
309
308
309
309
309
308
308
309
308
309
308
309
308
308
308
308
309
308
308
308
308
308
309
308
308
309
309
309
310
310
309
309
309
309
308
309
309
308
308
308
308
307
307
307
306
305
304
304
303
304
303
303
302
302
302
301
302
301
302
301
300
300
301
301
301
301
301
302
302
302
302
302
302
302
302
302
301
301
301
299
299
299
299
299
298
297
296
296
295
295
295
294
293
293
292
293
293
293
293
292
292
292
293
293
293
293
293
294
294
294
295
295
295
294
294
295
295
296
296
297
298
300
302
305
307
309
313
316
320
324
328
333
337
341
346
352
357
363
367
372
375
380
383
385
387
387
388
387
385
384
378
372
364
354
344
332
319
305
289
273
256
240
224
207
192
177
162
149
137
127
118
110
105
100
98
99
99
101
104
107
113
119
126
133
141
148
156
164
172
180
187
195
203
209
217
224
232
237
244
249
254
259
264
269
273
276
279
283
285
289
291
293
295
296
297
298
299
301
300
301
302
302
302
303
302
302
303
303
304
305
305
305
305
305
304
305
305
305
304
304
304
304
304
303
303
303
302
303
303
303
304
303
303
303
303
304
305
305
306
306
307
308
309
309
309
309
310
310
311
312
312
313
313
313
314
314
315
316
317
316
317
318
319
320
320
321
321
321
322
323
323
324
323
323
323
323
324
324
323
323
323
323
324
324
324
324
325
326
326
328
328
329
329
330
331
332
333
334
335
336
337
338
340
341
343
343
344
345
346
347
348
348
350
350
350
352
351
352
352
352
351
353
353
354
354
354
354
355
355
356
358
358
359
359
360
361
361
362
363
363
363
364
365
365
366
366
367
368
369
370
371
372
373
374
375
376
378
379
380
381
382
384
385
386
387
388
387
389
389
390
389
389
389
388
388
388
388
388
387
387
385
385
385
385
384
384
383
384
384
384
383
383
382
382
382
382
382
382
381
380
379
378
378
377
376
376
375
374
374
374
373
372
372
371
370
370
370
370
370
369
370
369
369
368
368
368
367
367
366
366
365
364
363
361
361
360
361
360
359
358
357
356
356
356
355
354
355
355
355
355
355
355
354
353
352
352
351
351
350
349
349
347
347
347
347
345
345
344
344
345
345
345
344
343
343
342
342
342
341
341
341
340
340
340
339
338
338
337
338
337
337
337
337
336
336
336
336
336
336
335
336
336
337
337
337
337
336
336
337
337
336
336
336
335
336
336
337
336
336
335
335
335
335
336
336
336
337
337
338
339
339
339
340
340
340
340
342
342
341
341
341
341
341
342
342
341
341
341
341
341
341
341
341
340
341
341
342
342
343
343
343
344
345
347
348
348
349
349
350
351
352
352
353
353
354
355
355
356
355
356
356
356
357
358
358
357
357
358
358
359
358
359
358
358
357
357
357
356
356
355
354
354
354
355
354
354
353
354
354
354
355
355
355
355
356
356
357
357
357
357
358
358
358
358
359
358
358
357
358
358
358
358
358
358
358
358
358
358
358
358
357
357
358
358
358
358
358
358
359
358
359
358
359
359
359
360
359
359
359
359
358
358
359
358
359
357
357
357
357
357
357
355
354
354
353
353
352
351
350
349
348
348
347
347
346
347
347
349
350
352
355
357
360
363
367
371
375
380
384
389
394
400
406
412
418
422
427
432
436
440
443
445
447
447
446
444
441
436
429
420
410
400
387
375
361
346
331
316
301
285
270
255
240
228
217
206
198
191
184
180
177
176
176
177
179
182
185
189
195
201
207
213
220
225
232
239
244
250
256
261
266
272
278
282
287
292
297
301
305
310
313
317
319
322
324
328
330
332
333
335
336
337
339
340
341
341
342
342
342
343
343
343
343
342
342
342
342
343
343
343
343
344
344
344
345
345
345
346
348
349
351
351
351
352
352
353
355
355
356
357
357
358
358
359
359
359
360
360
360
360
361
361
361
360
360
361
360
360
360
359
358
357
357
358
356
357
356
355
356
356
357
356
356
355
356
356
356
357
356
356
357
357
358
359
359
360
360
360
361
362
363
362
363
363
365
366
367
368
369
369
369
371
372
372
372
373
373
374
374
375
374
375
374
374
373
374
374
374
374
374
374
374
375
376
376
377
377
379
379
380
381
382
383
383
385
387
387
388
390
391
391
392
394
395
396
396
397
398
399
399
400
400
400
400
400
402
402
403
403
402
403
403
403
404
404
404
404
405
406
406
407
407
408
407
408
409
409
409
408
408
408
408
408
408
408
408
407
407
407
407
408
407
407
406
407
407
407
407
407
407
407
407
408
408
408
409
408
408
409
410
409
409
409
407
407
407
406
406
404
404
403
403
402
401
401
400
399
399
399
398
397
396
396
396
395
395
395
394
394
393
392
390
391
389
388
387
386
384
383
382
381
379
378
377
375
374
374
372
371
370
369
368
369
368
368
367
367
368
368
369
369
369
368
368
369
369
369
369
370
369
369
370
369
369
369
369
367
368
368
367
367
366
365
364
364
363
363
362
361
360
359
359
359
358
357
356
356
355
356
356
355
355
354
354
354
354
355
355
354
354
353
353
354
354
354
355
355
355
357
357
358
358
359
359
360
361
362
363
363
364
364
365
366
366
368
368
369
369
370
370
370
370
370
370
371
371
373
372
373
373
372
373
374
374
374
373
373
374
374
374
375
375
375
374
374
375
374
374
373
373
372
372
373
373
372
372
372
371
372
372
372
371
372
371
371
371
372
372
372
372
371
372
373
373
373
372
372
371
372
371
371
371
370
369
369
370
370
370
369
368
368
368
367
368
368
367
366
366
366
367
366
365
365
364
364
364
364
363
363
362
362
362
362
362
362
361
360
360
360
361
360
359
359
359
359
358
359
359
358
357
356
356
357
356
357
355
356
356
355
356
356
356
355
354
355
355
355
355
355
354
355
354
355
355
355
354
355
355
355
355
355
355
354
354
353
353
352
352
351
351
351
350
351
351
351
350
351
351
351
352
353
353
353
354
355
356
357
357
357
357
357
357
357
357
357
356
356
355
354
353
353
351
350
349
348
347
347
345
345
343
343
343
344
346
347
348
352
354
358
362
367
370
375
379
385
390
397
404
411
417
424
431
438
444
449
454
459
463
467
470
472
471
470
467
463
456
449
440
429
416
403
388
373
357
340
323
306
290
274
260
245
233
221
210
201
193
188
184
182
181
180
181
184
188
191
195
201
206
212
218
225
230
237
242
248
255
260
266
271
276
281
286
291
296
300
304
307
311
314
318
320
322
325
327
328
330
331
333
334
335
335
336
336
337
337
338
338
338
339
339
339
339
338
339
338
338
339
340
338
337
337
338
338
337
337
338
338
338
339
339
340
340
340
340
339
341
341
342
342
342
342
343
343
344
344
344
344
344
345
345
346
346
347
347
348
349
349
349
349
350
350
351
351
351
351
351
351
351
352
352
353
353
352
352
353
353
353
353
353
354
354
355
355
356
356
357
358
358
359
360
360
361
361
361
361
362
362
362
362
362
363
363
363
363
362
362
361
361
361
362
362
362
363
363
363
363
364
365
365
365
366
368
369
370
370
372
373
374
376
376
377
378
379
379
380
381
382
383
383
383
383
384
384
386
386
386
386
386
388
388
389
391
390
391
392
393
394
393
394
394
394
395
395
395
395
396
395
396
396
396
395
395
395
394
394
394
394
393
393
393
392
392
392
392
392
391
390
389
390
390
389
389
388
388
388
387
387
387
386
385
385
383
382
383
381
380
379
377
378
378
377
376
375
374
374
373
373
373
372
373
372
373
374
374
374
374
374
374
375
375
376
375
374
374
374
374
374
373
372
370
369
368
367
366
365
364
363
361
361
360
359
357
357
357
355
355
355
354
353
352
351
350
350
350
349
348
347
346
346
346
345
345
343
343
341
340
340
339
338
337
336
335
335
335
334
334
333
333
332
332
332
330
330
329
329
328
329
328
327
327
326
325
324
324
323
322
321
320
320
320
319
320
319
318
318
318
318
318
318
317
318
318
318
318
319
318
318
318
319
319
319
319
319
318
318
319
319
318
318
317
318
318
317
317
317
317
316
316
317
317
318
317
317
316
316
316
317
317
316
316
316
317
317
318
319
318
319
318
319
319
320
319
319
318
319
320
320
320
320
320
321
322
322
322
323
322
323
323
325
326
326
326
327
327
327
327
327
326
326
325
325
326
325
326
325
325
324
324
324
324
324
324
324
324
324
324
324
325
324
324
323
322
323
322
321
320
318
318
317
318
317
317
316
316
315
315
315
315
314
313
313
313
314
314
314
314
314
313
314
314
313
313
312
311
310
310
310
310
310
308
308
308
308
308
308
307
307
306
307
307
306
306
306
306
306
306
307
306
307
306
305
306
305
306
306
306
305
305
306
305
305
305
304
303
304
303
303
302
301
301
300
299
299
299
298
297
297
297
297
296
297
296
296
296
295
296
296
295
295
294
294
295
294
294
293
293
292
291
292
291
291
290
290
289
288
288
288
287
287
286
286
286
286
286
286
285
284
284
284
285
284
283
282
282
281
280
280
279
278
276
275
274
272
272
270
270
269
269
270
271
271
273
274
277
279
283
287
291
294
299
303
308
313
318
323
328
334
340
345
351
355
358
362
365
368
370
372
372
372
370
367
363
359
352
344
334
324
312
300
286
272
256
241
225
209
194
180
164
151
137
126
116
108
102
97
93
92
92
93
95
97
101
106
111
117
123
130
136
143
151
158
165
172
179
185
190
196
201
206
211
216
221
224
228
232
236
238
241
243
246
247
248
250
250
251
252
252
253
254
255
255
255
254
253
253
252
252
252
251
250
249
249
248
247
247
245
245
245
245
245
245
245
245
245
246
247
247
248
248
248
250
250
252
252
254
254
255
256
256
258
258
258
258
258
258
259
258
258
258
258
257
257
257
257
256
256
255
256
255
255
256
255
255
254
255
254
255
255
255
255
255
255
255
254
255
254
254
254
255
255
256
256
256
256
256
257
257
257
258
258
258
260
260
261
262
261
262
262
263
263
264
263
263
262
263
263
264
264
265
265
265
265
266
268
269
269
270
271
273
274
275
276
277
278
280
280
282
284
284
285
286
287
288
288
289
289
290
291
292
293
294
295
295
295
296
297
298
298
298
299
298
299
300
301
300
301
300
300
300
301
301
300
300
300
300
300
301
300
300
300
301
301
301
301
301
300
300
301
300
301
300
299
299
298
297
296
296
294
293
291
288
287
286
285
283
281
279
278
276
275
274
273
273
272
272
271
272
271
270
270
269
270
271
271
271
270
270
269
270
270
268
268
267
265
264
263
262
261
260
258
257
255
255
255
253
253
252
251
251
251
251
251
250
250
249
249
249
248
247
247
246
245
245
245
244
244
243
242
242
242
242
240
240
240
239
238
238
237
236
235
234
233
232
232
231
230
229
228
228
228
227
226
226
225
225
226
225
225
225
225
224
224
225
225
224
224
224
225
225
225
224
223
223
222
222
221
221
220
220
219
219
219
219
219
218
218
217
218
219
219
220
220
219
220
221
221
222
222
223
222
222
223
223
223
223
223
222
222
222
222
222
221
221
220
221
220
221
220
221
221
221
222
223
223
224
223
224
224
225
226
226
226
226
226
226
226
226
226
226
225
225
225
224
224
223
222
223
223
222
222
222
221
220
219
219
219
219
218
218
217
217
217
218
218
217
217
216
216
216
216
217
217
217
218
217
218
219
218
218
217
217
217
217
217
216
215
215
214
214
213
213
212
211
211
210
209
210
209
208
209
208
208
208
208
208
207
208
207
207
207
208
208
208
208
208
209
209
209
209
209
210
210
210
211
212
212
212
213
214
215
215
215
215
215
215
215
215
215
214
214
214
214
214
213
213
212
212
212
211
211
212
210
210
210
209
209
210
208
209
208
207
207
207
206
205
204
204
204
204
203
203
203
201
201
201
200
200
200
199
199
199
199
198
199
199
199
198
198
198
198
198
198
198
198
199
198
199
199
198
198
198
198
198
198
198
197
197
198
197
197
197
197
197
196
196
196
195
195
195
194
193
193
192
192
191
190
189
188
187
187
185
184
182
181
181
180
179
178
179
179
180
181
183
186
188
191
194
199
204
209
214
219
223
229
235
241
246
252
258
262
267
272
276
278
280
