# Simple Text Format
# Sampling Rate (Hz):= 1200.00
# Resolution:= 12
# Labels:= ECG	 V4
# Age:=	80
# Gender:=	Feminino
179
180
180
181
182
182
182
182
183
183
184
185
185
185
186
186
187
188
188
188
188
189
190
190
191
191
190
190
189
189
190
190
190
189
190
190
191
191
192
192
192
191
192
193
194
194
194
194
195
196
196
196
197
197
196
197
197
198
197
197
196
196
196
196
195
195
195
194
194
193
193
194
193
193
193
193
194
194
194
195
195
195
195
196
197
198
198
198
198
200
200
201
202
202
202
201
202
202
203
202
202
202
201
201
201
201
199
200
198
198
198
198
197
196
197
198
198
198
199
199
200
200
202
203
204
205
207
208
208
210
212
213
213
214
214
215
215
216
216
216
217
216
217
217
216
216
216
215
214
214
215
214
214
213
213
213
212
212
211
211
211
211
211
211
210
209
209
209
209
209
210
210
210
210
210
210
210
211
211
211
211
211
211
211
211
211
211
211
211
210
210
209
209
209
208
209
209
209
210
210
211
212
213
216
217
219
219
221
224
225
227
229
229
230
231
231
232
233
233
234
233
233
233
233
233
233
232
231
231
230
230
230
230
229
229
228
228
228
227
228
227
226
226
227
226
226
226
226
225
226
226
227
226
226
226
226
226
227
226
226
226
226
226
226
226
226
226
226
225
225
225
224
224
224
223
223
223
222
221
221
220
219
219
218
218
218
216
215
215
213
213
212
211
209
208
207
207
206
206
205
204
204
204
204
205
204
204
204
205
206
207
207
208
209
210
211
212
213
214
215
214
215
215
216
216
216
216
216
216
216
217
217
216
216
216
215
215
215
216
216
217
217
217
218
219
219
220
220
221
222
223
224
224
224
225
225
227
227
227
227
227
226
226
226
227
226
226
225
224
224
224
224
224
223
223
222
222
223
222
223
223
223
223
224
224
224
225
226
226
226
227
227
227
227
227
227
227
228
228
229
228
229
228
229
230
230
230
231
232
233
233
235
235
236
237
238
240
240
242
242
242
243
244
244
245
244
243
243
243
243
241
241
239
239
237
236
236
235
235
235
234
234
233
233
233
232
231
231
230
231
232
232
232
232
232
232
233
233
233
233
232
232
231
232
232
231
230
229
228
227
227
226
225
225
225
225
226
227
227
229
231
233
236
241
246
251
257
264
272
280
289
299
309
320
331
342
355
367
380
394
407
419
432
444
457
467
478
488
495
502
509
512
514
515
513
508
502
495
485
473
459
443
424
404
384
362
339
315
291
268
243
220
198
176
155
136
119
105
90
78
67
58
51
47
43
42
42
42
44
49
52
57
62
68
74
80
87
94
100
107
112
119
124
130
135
140
145
149
153
158
163
167
171
174
177
180
183
186
189
191
193
196
198
200
202
204
205
206
207
208
209
208
209
208
208
208
207
206
206
205
205
204
203
203
202
201
200
200
199
198
198
198
197
196
195
195
195
195
195
195
195
195
195
196
195
196
196
196
195
196
196
196
196
195
195
195
196
197
198
199
199
198
200
201
201
201
201
202
202
203
203
204
204
204
204
204
204
204
204
203
202
202
202
202
202
203
203
203
203
204
205
205
205
206
206
208
208
209
209
210
210
210
210
211
212
212
211
211
211
211
211
210
210
210
209
208
209
208
207
208
207
207
206
206
207
207
206
206
206
207
207
207
206
206
206
206
206
205
206
204
205
204
203
203
203
204
203
203
202
203
202
202
203
203
203
203
203
204
204
204
204
204
204
205
206
205
204
205
203
204
205
204
204
203
204
203
204
204
204
204
204
205
204
205
205
206
205
205
205
206
205
205
204
204
204
203
203
203
203
202
201
200
200
200
199
199
198
197
196
197
196
196
195
195
195
195
194
194
195
194
193
193
193
193
193
194
193
193
192
192
193
192
192
191
192
192
191
193
193
194
194
194
195
196
196
196
197
196
197
197
197
197
197
196
197
196
196
196
195
195
194
193
193
192
192
191
191
190
190
190
189
188
188
187
188
186
187
186
186
185
185
184
183
184
184
183
183
182
181
181
181
181
180
180
179
179
178
179
179
178
177
177
176
176
177
177
176
175
175
175
175
175
174
174
173
173
174
175
175
175
175
176
176
177
178
179
179
179
181
182
183
184
186
186
186
187
188
188
189
189
189
190
190
190
190
189
188
188
187
187
187
186
186
185
186
185
186
186
186
186
185
185
185
186
186
186
185
185
185
185
184
185
184
183
183
183
182
182
183
182
182
181
182
182
182
182
183
182
183
184
185
186
186
187
186
187
188
188
188
189
189
189
190
189
190
189
188
188
188
188
186
187
186
185
185
185
184
185
185
184
184
184
184
184
184
184
183
184
185
185
185
186
186
186
186
186
186
186
186
187
187
187
188
188
189
188
189
189
189
189
189
190
189
189
188
188
187
187
187
186
185
185
185
184
184
183
183
182
181
181
181
180
180
179
179
179
179
180
180
179
179
178
178
179
179
179
179
179
180
180
181
182
183
184
185
186
188
191
193
196
199
203
207
212
218
225
231
239
248
257
268
278
291
303
315
329
342
357
370
383
396
408
420
431
442
450
457
463
467
469
470
468
464
457
449
439
427
412
395
377
357
335
313
290
267
243
218
194
170
146
125
104
84
66
50
35
23
12
3
-5
-10
-15
-17
-17
-16
-15
-11
-7
-2
4
11
18
24
31
38
45
53
61
68
75
82
88
95
100
106
111
116
120
124
128
131
135
137
139
141
142
144
146
147
147
147
149
149
149
150
150
151
151
152
152
152
153
154
154
154
156
156
157
158
159
159
160
161
162
163
163
162
162
162
163
163
162
162
161
160
159
159
158
158
156
156
155
156
155
155
154
154
153
153
153
153
153
153
154
153
153
153
153
153
153
152
151
152
151
151
150
150
150
149
149
149
149
148
148
147
147
146
147
146
146
145
145
144
145
144
144
144
142
142
143
142
141
141
141
140
140
142
142
142
142
142
142
143
143
144
146
146
146
148
148
150
150
150
150
151
150
150
151
151
151
151
151
150
150
150
149
149
149
149
148
148
149
149
149
148
147
148
148
149
147
148
147
148
147
147
147
146
145
145
145
145
144
144
145
144
144
144
144
145
144
144
144
144
145
144
145
144
144
144
145
144
145
144
143
143
143
143
143
143
144
143
143
143
142
143
142
143
142
142
142
142
141
141
140
139
139
139
138
139
138
138
138
138
139
139
139
139
140
140
142
142
143
144
144
145
146
147
147
148
149
148
149
149
150
150
149
149
148
147
147
146
145
144
143
143
141
142
141
141
140
139
138
137
137
137
136
137
136
137
137
138
138
138
138
137
138
137
137
137
137
137
135
136
136
135
135
133
132
132
131
131
130
128
127
126
125
125
125
124
123
122
122
121
121
121
121
122
122
121
122
122
122
123
122
123
122
123
122
123
122
121
120
119
119
118
116
116
114
114
113
112
113
112
112
111
111
111
112
113
113
114
115
117
118
119
120
121
122
123
123
124
126
126
126
126
127
127
127
127
127
126
126
126
126
126
125
125
124
123
123
123
124
122
123
122
122
121
121
121
120
120
120
120
121
121
121
120
120
120
120
121
121
122
122
122
122
123
123
123
123
123
123
124
125
125
126
126
126
126
126
127
127
128
127
128
128
128
129
129
129
129
129
129
129
129
129
129
129
129
128
128
127
127
126
125
125
125
124
123
123
121
121
121
121
120
121
121
120
120
120
120
120
120
120
121
121
121
122
123
123
123
124
124
124
124
124
124
123
122
122
122
122
122
121
121
121
120
119
120
119
118
118
117
117
118
117
116
116
116
117
117
117
117
116
116
116
116
116
116
117
117
117
118
118
119
119
119
119
119
120
121
121
122
121
123
123
124
125
126
128
132
135
138
144
149
154
161
167
175
185
195
205
218
230
242
256
270
284
298
312
324
337
349
361
372
381
388
394
399
402
403
402
398
392
383
373
361
346
330
311
291
269
247
225
200
176
151
126
102
79
56
36
16
-1
-18
-32
-44
-54
-62
-69
-75
-78
-80
-79
-78
-74
-71
-66
-61
-55
-47
-41
-34
-27
-20
-12
-6
2
9
15
21
26
32
38
44
48
52
56
59
62
65
67
70
71
73
74
75
76
77
77
78
77
78
78
78
78
78
77
76
76
77
78
77
78
78
78
78
79
79
79
79
79
79
80
80
81
82
82
82
82
83
83
82
83
82
82
82
82
82
83
83
82
82
82
83
84
84
84
84
84
85
85
86
85
86
86
86
86
87
86
86
86
86
87
87
87
87
86
86
86
86
87
86
86
87
87
87
87
87
87
86
87
87
87
88
87
87
86
86
86
85
85
85
85
84
83
84
84
83
83
83
83
83
83
84
85
85
84
84
85
87
87
88
88
88
89
90
90
91
91
91
92
91
91
91
92
91
92
91
92
92
92
92
92
91
91
92
91
92
92
92
91
92
92
93
92
92
92
92
92
92
92
92
92
92
92
92
93
93
93
93
93
92
93
93
92
92
91
90
90
90
90
89
88
87
87
86
85
85
84
82
82
82
81
81
81
80
79
80
80
80
80
80
80
79
80
80
81
82
83
83
84
85
86
86
87
88
88
88
89
90
92
92
93
94
95
95
96
97
97
97
97
98
99
99
100
100
100
100
100
100
99
99
99
98
98
98
98
99
98
98
98
99
100
101
101
101
101
101
102
102
102
102
102
102
102
102
102
101
100
100
100
98
99
98
96
95
94
93
91
92
90
90
89
89
88
89
89
90
89
89
89
89
90
91
91
92
92
93
93
94
95
94
94
94
93
94
93
93
93
91
90
90
90
90
90
89
89
88
88
88
89
88
88
88
89
89
90
91
91
91
91
92
94
94
95
95
94
95
96
96
96
97
96
97
96
97
97
98
98
98
97
97
97
98
98
97
97
98
98
99
100
99
100
99
100
101
101
102
101
103
102
103
103
104
105
105
106
106
107
108
109
109
109
109
109
110
111
112
113
113
113
114
115
116
117
118
117
118
118
119
119
120
119
120
120
120
121
121
122
123
123
123
123
123
123
124
123
123
123
124
124
123
124
123
123
123
123
123
123
122
122
121
121
122
122
121
120
120
119
120
120
120
119
119
120
119
119
119
119
118
119
119
119
120
121
120
121
120
121
122
122
123
123
124
124
125
126
127
128
129
129
129
130
131
131
132
132
131
132
132
131
130
130
129
128
128
128
127
126
125
124
124
123
124
124
123
122
123
122
123
123
123
123
122
122
122
122
122
122
122
122
121
122
121
120
120
119
120
119
120
119
119
120
121
121
121
123
123
124
124
125
125
126
127
129
129
130
131
131
131
131
131
131
131
130
129
130
129
128
128
128
127
128
127
127
126
125
126
125
126
126
127
127
127
128
128
129
129
130
130
131
132
133
134
134
135
135
135
137
137
139
140
141
143
145
148
150
155
158
162
167
174
182
189
197
207
217
228
239
253
265
279
293
307
321
335
349
363
375
387
397
407
416
422
427
431
432
432
429
426
419
410
399
385
369
353
334
314
292
270
247
224
199
176
152
129
106
83
64
45
28
12
-1
-13
-24
-33
-39
-44
-47
-49
-49
-48
-45
-41
-37
-31
-26
-19
-13
-6
1
8
15
22
28
36
43
49
55
60
65
71
76
80
85
89
92
95
99
102
105
107
110
111
113
116
117
119
120
120
122
123
125
125
126
127
127
128
129
129
129
129
129
130
130
130
130
130
130
131
131
130
130
130
130
131
131
131
132
133
134
134
135
135
135
136
137
137
137
138
139
139
140
141
141
141
141
141
142
141
142
141
140
140
140
141
140
139
140
140
141
140
141
141
141
143
143
144
145
145
145
146
146
146
147
147
147
148
148
148
147
148
148
148
147
147
147
146
146
146
146
146
146
146
146
146
147
148
148
148
148
150
151
152
152
152
153
153
154
153
155
154
155
155
155
155
156
155
156
155
155
154
154
154
154
153
153
152
152
152
153
152
152
151
152
151
152
152
152
152
152
152
152
153
152
152
152
152
152
151
151
150
150
149
149
149
149
149
148
149
148
148
149
150
150
151
151
151
152
153
153
154
155
155
156
156
157
157
157
158
159
158
159
159
160
161
160
161
161
161
161
161
160
159
160
159
159
159
159
158
158
157
158
157
156
155
155
154
154
155
155
155
155
155
156
156
157
157
157
157
158
159
160
161
161
161
161
162
163
163
163
164
162
162
162
161
161
160
160
159
158
159
159
158
158
157
156
157
157
157
157
158
158
158
157
158
158
158
159
159
159
159
160
160
160
160
159
160
160
159
159
159
159
158
158
158
157
157
156
156
156
155
155
154
153
152
152
152
151
151
150
149
148
148
147
146
146
146
145
145
145
145
144
145
144
143
143
142
142
143
143
144
143
143
143
143
144
144
143
143
142
143
143
143
142
141
141
140
140
140
139
139
138
138
138
138
137
137
138
137
137
137
138
139
139
140
140
141
141
142
143
143
143
144
144
145
146
147
147
146
146
147
147
148
149
148
148
149
149
150
151
151
151
152
152
153
154
155
155
155
155
156
156
158
158
159
158
159
159
160
161
160
161
161
161
162
163
165
167
169
172
176
181
186
192
197
204
212
221
231
242
252
263
276
290
302
317
331
345
357
370
382
394
404
412
419
424
427
428
428
424
418
410
398
386
371
352
333
312
290
265
241
217
191
166
140
116
93
72
51
32
16
1
-13
-24
-32
-39
-45
-48
-51
-50
-49
-46
-41
-36
-30
-25
-18
-11
-3
5
13
20
27
35
42
48
55
61
66
71
75
80
85
89
92
94
97
100
102
103
105
106
107
108
108
109
110
111
111
111
113
114
113
114
113
112
113
112
113
114
113
114
113
114
114
115
115
115
115
115
116
116
117
119
120
120
120
121
121
122
122
122
122
121
122
121
121
120
119
118
118
117
116
115
114
112
112
111
110
109
108
107
106
106
106
104
104
104
104
103
103
104
103
104
104
104
103
104
105
105
105
105
106
106
106
106
107
107
106
107
107
107
107
106
106
106
105
105
104
105
104
103
103
102
102
102
102
102
102
103
103
104
104
105
104
105
105
106
106
107
106
106
106
105
105
105
104
104
103
103
103
102
102
101
102
100
101
100
100
100
101
101
102
102
103
104
104
106
106
107
107
109
109
110
110
110
111
112
111
112
111
112
111
111
110
110
110
109
109
108
107
107
106
105
104
103
102
102
101
102
101
101
100
99
100
100
99
98
98
98
98
99
98
99
98
98
98
98
98
99
98
98
98
98
99
100
100
100
100
100
101
102
102
103
103
103
104
106
107
108
108
108
109
109
109
109
110
110
109
109
109
109
109
108
107
107
105
104
103
103
102
101
100
100
99
99
98
99
98
97
97
97
97
97
96
96
96
96
97
97
97
97
96
95
94
95
95
95
94
94
93
93
92
91
90
90
88
87
87
88
86
86
86
85
84
84
84
84
83
83
82
82
83
83
82
81
81
80
80
79
78
78
77
78
78
77
77
78
76
76
75
76
75
75
74
74
75
74
74
75
74
74
74
74
74
75
74
75
75
75
75
76
77
78
79
79
80
81
82
83
84
84
84
85
85
85
85
86
86
86
86
86
87
87
87
87
87
87
86
87
87
86
86
86
87
86
86
86
86
85
85
85
85
86
85
84
85
84
84
85
84
84
84
83
83
84
83
83
83
83
83
82
82
82
81
81
80
80
81
81
80
79
78
78
77
77
77
77
77
76
77
77
76
76
76
76
75
75
75
75
76
76
75
74
74
74
74
74
74
73
73
73
71
72
70
69
69
69
68
69
69
68
68
67
68
67
68
67
66
66
66
66
65
65
64
64
63
63
62
61
61
59
59
59
58
58
57
57
57
56
56
56
57
57
56
56
56
56
56
56
56
55
55
55
54
55
54
53
53
52
52
53
53
52
51
51
51
51
52
52
53
52
53
53
53
53
54
54
54
54
53
54
54
53
53
52
51
51
51
51
50
49
49
48
47
46
46
44
44
43
42
42
42
42
42
41
41
42
42
43
44
44
45
46
48
51
54
58
61
65
70
75
82
88
95
103
111
120
130
139
150
162
173
185
197
210
222
234
245
256
265
274
282
287
291
293
294
294
291
287
280
271
260
248
234
218
201
182
163
140
119
97
75
53
31
10
-11
-32
-50
-67
-84
-99
-114
-127
-137
-145
-151
-158
-161
-164
-164
-163
-161
-158
-154
-149
-143
-136
-130
-122
-115
-107
-101
-92
-85
-78
-71
-63
-58
-52
-45
-40
-34
-29
-25
-21
-17
-13
-9
-6
-3
-1
2
4
6
7
9
10
11
12
13
14
14
14
15
15
15
15
15
16
16
15
16
14
15
15
15
14
15
14
15
15
15
15
14
14
13
14
13
14
14
15
14
14
14
15
14
15
14
14
15
15
14
15
14
13
12
13
13
12
12
11
10
10
10
10
9
8
8
8
9
9
10
10
11
11
11
12
13
14
14
16
16
16
18
19
19
20
20
20
21
22
22
21
21
21
20
19
20
18
18
17
16
15
14
14
13
13
13
12
12
12
12
11
12
11
11
12
13
13
15
14
15
15
16
18
18
19
18
19
19
20
20
20
20
19
20
19
19
20
18
18
17
16
15
15
14
13
12
11
11
10
11
11
11
11
10
10
10
10
10
11
11
11
12
13
13
14
15
15
15
16
16
17
17
16
17
18
17
18
18
17
17
17
16
16
16
15
15
13
12
12
12
11
10
9
8
7
7
7
7
6
5
5
5
5
5
5
5
5
5
7
8
7
7
8
8
9
11
11
11
12
12
13
14
15
15
16
16
16
16
17
17
17
16
16
16
16
16
16
15
14
14
14
14
14
13
14
13
12
12
13
13
14
13
14
14
14
14
15
14
14
14
14
14
15
14
14
13
12
12
11
12
11
10
9
7
7
7
7
6
5
4
4
4
4
3
4
3
2
2
3
2
2
2
1
1
0
1
0
-1
-1
-2
-2
-2
-2
-3
-3
-3
-4
-4
-3
-4
-4
-4
-4
-5
-5
-5
-5
-6
-7
-8
-10
-10
-9
-10
-11
-12
-13
-12
-13
-13
-13
-13
-13
-13
-13
-12
-11
-11
-10
-9
-9
-8
-7
-7
-7
-6
-6
-5
-5
-4
-4
-4
-4
-4
-5
-3
-3
-2
-2
-1
-1
0
0
1
0
1
1
2
2
3
4
3
3
4
4
4
5
5
5
5
5
4
4
5
4
3
3
4
3
4
3
4
3
3
3
3
4
4
4
4
4
4
5
6
7
7
6
8
8
9
10
11
11
12
12
12
12
13
12
13
12
13
13
12
13
12
11
11
10
11
11
10
10
9
9
9
9
8
8
8
7
6
7
6
7
6
5
6
5
6
5
5
4
3
3
3
3
2
2
2
1
1
1
0
1
0
-1
-1
-1
-2
-3
-3
-4
-5
-6
-6
-6
-6
-7
-8
-8
-8
-9
-9
-9
-9
-10
-10
-9
-10
-10
-9
-9
-9
-8
-7
-7
-7
-7
-6
-6
-6
-6
-5
-5
-5
-5
-5
-4
-5
-5
-6
-6
-6
-6
-6
-6
-5
-5
-6
-5
-5
-6
-5
-4
-5
-5
-4
-3
-2
-1
-1
-1
-1
-2
-1
-1
-1
-2
-2
-3
-3
-3
-4
-3
-4
-5
-5
-5
-5
-5
-6
-6
-6
-7
-7
-6
-7
-7
-7
-7
-7
-6
-7
-7
-7
-8
-8
-8
-8
-8
-8
-8
-9
-9
-9
-10
-10
-10
-11
-11
-11
-11
-12
-12
-11
-12
-13
-13
-13
-12
-13
-13
-13
-14
-14
-13
-13
-14
-13
-14
-14
-14
-14
-14
-15
-16
-16
-16
-15
-15
-16
-16
-17
-17
-17
-17
-18
-19
-19
-19
-20
-19
-19
-20
-19
-19
-19
-18
-17
-17
-16
-16
-17
-16
-15
-14
-14
-14
-13
-13
-12
-12
-12
-12
-13
-13
-13
-14
-13
-14
-14
-15
-15
-16
-16
-17
-16
-17
-18
-18
-17
-17
-17
-17
-18
-17
-17
-16
-15
-15
-15
-14
-14
-14
-14
-12
-12
-12
-12
-12
-12
-11
-11
-12
-12
-12
-12
-11
-12
-12
-12
-12
-13
-13
-13
-12
-13
-14
-14
-14
-14
-15
-16
-16
-17
-17
-17
-18
-17
-17
-16
-17
-18
-17
-18
-17
-17
-18
-17
-17
-16
-16
-15
-15
-15
-15
-14
-14
-14
-13
-12
-12
-12
-12
-11
-10
-10
-9
-8
-7
-5
-2
0
3
5
8
12
17
22
27
33
39
46
54
63
73
82
91
102
114
125
139
150
163
175
187
198
209
219
228
236
242
247
251
253
254
252
248
242
235
226
215
203
187
172
153
135
114
94
73
51
28
6
-15
-36
-56
-77
-94
-111
-128
-142
-155
-166
-176
-185
-192
-197
-200
-202
-203
-202
-200
-198
-192
-188
-182
-175
-169
-163
-156
-148
-141
-132
-126
-119
-112
-105
-98
-92
-85
-79
-74
-69
-64
-59
-55
-52
-49
-45
-43
-40
-37
-35
-33
-33
-31
-29
-28
-27
-26
-26
-25
-25
-25
-24
-24
-24
-24
-25
-25
-25
-24
-24
-25
-25
-25
-24
-25
-24
-24
-25
-25
-26
-26
-25
-24
-24
-25
-25
-25
-24
-25
-25
-25
-26
-26
-26
-26
-26
-26
-26
-27
-27
-28
-28
-28
-28
-29
-29
-29
-28
-28
-28
-28
-28
-28
-28
-27
-26
-26
-27
-26
-27
-26
-26
-26
-26
-25
-26
-26
-27
-26
-26
-26
-27
-27
-27
-26
-26
-25
-24
-25
-24
-24
-23
-22
-22
-21
-21
-20
-20
-19
-18
-19
-19
-19
-19
-20
-20
-19
-21
-21
-22
-22
-23
-23
-23
-24
-25
-25
-26
-25
-25
-25
-26
-25
-25
-25
-24
-23
-23
-22
-22
-21
-21
-20
-20
-20
-20
-20
-20
-19
-19
-20
-20
-20
-20
-21
-21
-21
-22
-23
-23
-23
-23
-23
-23
-24
-23
-24
-24
-24
-23
-24
-23
-23
-23
-22
-21
-21
-21
-20
-21
-20
-19
-19
-18
-18
-17
-16
-15
-15
-15
-14
-15
-15
-16
-16
-16
-16
-17
-18
-18
-19
-19
-19
-20
-22
-22
-24
-24
-25
-27
-27
-28
-29
-29
-30
-30
-31
-32
-33
-34
-34
-33
-33
-33
-34
-34
-33
-32
-32
-31
-30
-31
-30
-30
-28
-27
-26
-25
-25
-24
-22
-22
-21
-20
-20
-19
-19
-18
-18
-18
-17
-17
-16
-17
-15
-15
-15
-15
-15
-15
-15
-14
-14
-14
-14
-14
-13
-14
-12
-12
-12
-12
-12
-12
-11
-11
-11
-11
-12
-13
-13
-14
-14
-14
-15
-16
-16
-16
-16
-17
-18
-18
-19
-19
-18
-19
-18
-19
-19
-18
-19
-18
-18
-18
-18
-18
-19
-17
-17
-17
-16
-17
-18
-17
-17
-16
-17
-17
-16
-17
-16
-16
-15
-15
-15
-16
-15
-15
-16
-16
-16
-16
-17
-17
-17
-17
-17
-17
-17
-18
-17
-18
-17
-17
-17
-18
-19
-17
-18
-17
-18
-18
-17
-17
-16
-15
-15
-15
-15
-15
-15
-14
-13
-14
-13
-12
-13
-12
-12
-12
-12
-12
-14
-14
-14
-14
-13
-13
-14
-13
-14
-13
-14
-14
-14
-15
-14
-14
-14
-13
-13
-13
-12
-12
-11
-10
-9
-8
-8
-8
-7
-7
-6
-5
-5
-4
-4
-3
-2
-1
0
-1
-1
0
-1
-1
-1
-2
-2
-3
-3
-3
-3
-4
-4
-5
-5
-5
-5
-4
-5
-5
-5
-5
-5
-4
-4
-4
-3
-4
-3
-3
-3
-3
-3
-4
-4
-3
-3
-3
-4
-4
-4
-4
-5
-4
-3
-4
-3
-3
-3
-2
-1
0
0
2
5
7
11
15
19
24
30
37
44
53
62
71
80
91
103
115
127
140
152
163
175
187
197
206
215
221
228
232
235
237
237
234
229
222
213
205
192
178
163
144
126
106
86
63
41
19
-3
-26
-46
-67
-86
-104
-122
-137
-152
-164
-173
-182
-189
-195
-198
-200
-200
-199
-196
-192
-188
-182
-176
-168
-162
-155
-147
-140
-132
-125
-117
-111
-104
-97
-91
-85
-79
-73
-69
-65
-60
-56
-52
-48
-45
-42
-40
-38
-36
-34
-32
-31
-31
-30
-30
-29
-28
-28
-28
-27
-27
-26
-27
-26
-26
-25
-26
-26
-26
-24
-23
-23
-23
-22
-21
-21
-20
-19
-18
-18
-17
-17
-16
-14
-14
-14
-14
-14
-14
-13
-13
-14
-15
-14
-15
-14
-15
-14
-15
-15
-15
-15
-16
-15
-15
-14
-14
-14
-14
-13
-12
-12
-12
-12
-11
-11
-11
-11
-11
-11
-12
-13
-12
-12
-13
-13
-14
-14
-15
-14
-15
-16
-17
-18
-18
-19
-20
-19
-19
-20
-21
-21
-21
-22
-21
-21
-21
-22
-21
-21
-21
-20
-20
-20
-20
-20
-19
-18
-18
-18
-18
-17
-16
-16
-16
-15
-15
-14
-14
-14
-13
-12
-11
-12
-11
-10
-9
-9
-9
-9
-8
-7
-7
-6
-4
-4
-3
-3
-3
-3
-3
-3
-3
-3
-3
-3
-2
-2
-1
-2
-1
-2
-1
-1
-1
-1
0
1
1
1
2
2
3
2
3
3
3
5
4
4
4
3
3
3
2
1
-1
-2
-3
-3
-4
-4
-5
-6
-7
-7
-6
-7
-7
-8
-7
-7
-6
-6
-5
-4
-4
-4
-3
-1
-1
0
0
0
0
1
1
2
1
1
1
1
2
2
2
2
1
2
2
1
2
2
2
3
3
3
4
4
4
5
4
4
5
5
5
5
5
4
4
4
4
3
3
3
2
2
1
1
0
-1
-2
-2
-2
-3
-4
-4
-5
-6
-6
-7
-8
-8
-10
-11
-13
-13
-14
-14
-15
-16
-17
-17
-17
-17
-17
-18
-18
-18
-18
-17
-17
-16
-15
-15
-14
-14
-12
-12
-12
-11
-11
-10
-9
-8
-8
-8
-8
-8
-8
-7
-6
-6
-6
-7
-6
-6
-6
-5
-5
-6
-6
-6
-5
-5
-4
-5
-5
-5
-4
-4
-5
-5
-6
-7
-7
-7
-7
-8
-7
-9
-9
-9
-10
-10
-11
-12
-12
-13
-14
-14
-13
-13
-12
-12
-11
-11
-10
-9
-8
-8
-6
-5
-3
-2
0
1
2
3
4
6
6
7
8
8
8
8
9
9
9
9
8
8
8
9
8
8
7
6
7
7
7
7
6
6
6
6
5
6
6
5
4
4
4
4
4
5
4
4
4
4
5
5
6
5
6
6
7
7
8
8
7
8
9
10
10
10
10
9
9
10
10
10
10
9
9
8
8
9
9
8
9
8
9
9
10
9
9
9
8
8
9
9
9
8
7
8
8
7
7
6
5
5
4
4
4
3
4
3
2
3
3
3
3
2
3
3
5
6
7
8
10
11
14
17
21
25
29
34
40
46
53
61
69
77
88
98
110
122
134
145
157
170
183
195
206
217
227
236
244
251
256
258
259
258
255
250
244
235
224
212
197
181
163
145
125
103
81
58
36
14
-8
-29
-49
-69
-88
-105
-121
-134
-147
-158
-167
-175
-180
-184
-187
-188
-188
-186
-184
-180
-176
-170
-163
-157
-150
-143
-135
-127
-120
-113
-106
-99
-91
-85
-79
-73
-69
-64
-58
-53
-50
-46
-43
-40
-37
-34
-31
-29
-27
-26
-24
-24
-22
-20
-18
-17
-17
-16
-15
-14
-12
-11
-11
-9
-9
-8
-7
-6
-6
-6
-4
-4
-3
-2
-2
-1
0
-1
1
1
2
3
3
4
3
5
4
5
5
5
5
6
6
7
7
7
7
6
6
5
6
6
5
4
4
4
4
3
3
3
2
2
2
2
2
1
1
1
1
1
1
1
0
1
0
0
0
1
0
0
-1
-1
0
0
-1
-1
-1
-2
-3
-3
-2
-3
-3
-3
-3
-2
-2
-1
-1
-1
0
1
2
3
5
5
6
7
8
8
9
10
9
10
10
10
10
10
11
11
10
10
11
11
12
11
11
11
11
12
13
13
13
14
14
15
15
16
16
17
18
17
18
18
19
20
19
19
19
19
19
19
20
19
18
18
18
17
17
16
15
15
14
14
13
13
12
11
11
11
11
11
9
9
9
9
9
10
10
9
9
9
9
9
10
9
9
9
9
9
9
8
9
8
8
7
8
7
7
6
6
5
5
5
5
5
5
5
5
6
6
7
7
7
8
8
9
11
12
12
13
13
15
16
17
18
18
17
19
19
19
19
19
19
19
18
18
18
19
18
18
19
19
19
19
20
19
20
20
20
21
21
22
22
21
22
22
22
21
21
20
20
19
18
17
16
15
14
13
13
12
13
12
11
12
11
11
11
11
11
11
12
12
14
14
14
14
15
15
14
15
14
15
14
14
13
13
12
12
12
11
11
11
11
11
10
10
9
9
9
8
8
8
8
7
6
6
6
6
5
6
5
5
6
6
6
6
6
6
7
7
9
10
9
10
12
13
14
14
15
15
16
17
18
18
18
18
18
17
17
17
17
17
16
16
16
16
16
16
16
15
16
16
17
18
19
20
20
22
23
24
24
25
25
26
27
28
29
30
30
29
30
31
31
31
31
31
31
31
30
30
30
29
28
28
27
27
28
26
26
25
25
25
25
25
26
25
25
26
26
27
28
28
28
29
30
31
32
32
33
32
33
34
33
34
34
32
31
30
29
29
28
26
25
24
24
23
23
22
21
20
21
22
22
23
23
24
25
25
27
27
29
29
30
31
31
32
33
32
32
32
32
33
32
32
31
31
30
31
31
30
30
30
29
29
28
27
27
27
26
25
25
25
25
24
24
23
22
22
22
22
22
22
22
22
22
22
22
22
22
22
22
22
22
22
22
22
21
21
21
22
21
21
20
20
21
20
21
21
20
21
21
22
23
25
26
27
28
31
35
39
43
47
53
58
66
74
82
91
100
110
121
133
146
158
170
184
197
210
223
237
249
260
269
278
285
292
296
299
299
298
296
291
283
275
263
249
233
217
199
179
158
135
113
90
68
45
22
1
-20
-41
-60
-78
-93
-108
-121
-133
-144
-152
-158
-163
-165
-167
-168
-167
-165
-161
-157
-152
-147
-142
-136
-129
-122
-115
-108
-102
-95
-88
-81
-73
-68
-61
-56
-49
-43
-38
-32
-27
-22
-19
-14
-10
-7
-3
0
2
5
6
8
10
11
12
12
13
14
15
16
16
17
17
18
19
20
20
21
21
22
22
23
23
24
23
23
23
23
23
23
22
22
21
20
19
19
19
18
18
17
16
16
16
16
15
15
15
14
15
15
15
16
16
16
16
17
17
17
17
17
18
19
20
21
21
21
21
22
22
23
23
23
23
23
23
24
24
24
24
24
23
23
23
23
22
21
22
22
22
23
23
23
23
23
24
24
25
25
25
25
26
26
27
27
27
27
27
27
27
28
28
28
28
28
30
29
29
30
30
30
30
30
31
31
30
31
30
30
31
32
31
32
31
31
32
32
33
32
32
32
32
32
32
32
31
32
31
30
31
31
30
29
29
28
28
29
29
29
28
28
28
29
29
29
29
28
29
29
30
29
30
29
29
29
29
29
29
29
28
28
28
28
28
28
28
27
28
28
28
28
28
28
28
27
27
28
27
27
26
26
25
25
25
24
24
23
23
23
22
22
22
22
22
22
22
23
23
24
24
25
26
27
28
29
29
30
30
32
34
35
35
36
36
37
38
38
39
39
39
39
39
38
38
38
38
37
37
37
37
38
37
37
36
36
36
36
36
36
37
37
38
38
39
39
39
39
39
40
41
41
42
42
42
42
42
41
42
41
40
40
39
38
38
37
36
36
35
34
34
34
33
32
32
31
31
31
30
30
30
29
29
29
29
29
29
28
28
28
28
27
27
27
26
25
26
26
26
25
25
24
24
24
25
24
23
24
24
25
25
26
27
27
28
28
29
30
31
32
32
32
33
34
35
35
35
36
35
36
36
36
36
37
36
37
38
38
37
37
37
37
37
38
39
40
40
41
40
42
42
43
43
43
43
43
43
44
45
44
44
44
44
45
45
45
45
46
45
46
46
46
47
47
46
47
47
48
48
48
48
47
47
48
48
48
47
47
47
46
47
47
47
46
47
47
47
48
49
48
48
48
48
48
48
48
48
47
47
48
47
47
47
46
45
45
45
45
45
45
45
44
45
45
45
45
46
45
45
46
46
47
48
48
48
48
47
48
49
48
48
48
48
49
49
49
50
50
49
49
49
50
49
48
48
47
48
47
48
48
48
48
50
51
52
55
57
60
63
68
73
79
86
92
100
108
119
129
140
151
162
175
188
202
215
228
242
255
267
278
288
297
306
311
315
319
321
320
317
312
304
296
283
271
256
239
220
200
179
157
135
113
90
67
44
22
1
-17
-36
-54
-70
-85
-98
-109
-118
-126
-132
-137
-139
-141
-141
-139
-136
-133
-129
-124
-118
-112
-105
-98
-92
-85
-78
-71
-64
-58
-51
-46
-39
-34
-28
-23
-17
-14
-10
-5
0
3
7
10
13
15
17
20
22
23
25
26
27
27
28
28
28
27
28
27
27
27
28
27
26
26
25
25
26
25
25
26
27
27
28
28
29
29
30
30
31
33
34
33
34
34
34
35
36
36
37
36
36
36
36
36
37
37
36
37
37
38
38
38
39
38
39
39
40
40
41
40
41
42
42
42
42
43
42
43
43
43
43
43
42
42
42
42
43
41
42
40
40
40
39
39
40
40
40
39
40
41
41
41
41
42
43
44
44
46
46
48
49
50
51
52
52
52
52
52
52
52
52
52
51
51
50
50
50
50
50
49
49
49
49
50
49
49
49
50
50
51
52
52
52
51
51
52
53
53
53
52
52
51
51
51
50
49
49
48
48
48
47
47
46
46
45
45
45
45
45
44
44
45
44
45
45
45
45
46
47
47
48
48
49
49
50
50
51
51
51
50
51
51
51
51
51
50
50
50
49
49
48
48
47
46
45
45
45
44
44
44
44
43
44
44
46
46
47
48
48
50
50
51
52
53
54
55
57
58
59
59
59
60
62
62
63
62
63
63
63
63
64
64
63
62
63
63
63
63
62
62
62
61
61
62
61
61
60
60
60
61
61
61
60
60
59
60
60
59
58
58
57
57
56
56
56
55
55
54
54
53
53
53
52
52
52
51
51
51
50
50
49
50
50
50
50
50
49
49
48
48
48
47
47
48
48
47
48
48
47
47
48
48
49
48
48
48
47
47
48
48
49
48
48
47
47
48
48
48
48
47
47
47
48
49
50
50
50
51
52
54
55
56
55
56
57
58
60
60
61
61
62
62
62
63
63
62
62
62
63
63
63
63
63
64
64
64
65
66
66
66
66
67
68
69
70
69
70
71
71
71
72
72
72
71
72
72
72
72
72
71
71
72
72
73
73
73
74
74
75
76
76
77
77
78
79
79
81
82
81
82
82
83
84
84
84
83
82
82
82
82
83
82
81
81
81
81
81
81
82
81
81
81
82
82
82
83
83
83
84
84
85
84
84
84
84
85
85
85
86
86
87
88
89
91
93
95
98
101
106
111
116
122
128
136
145
154
163
174
185
195
207
219
232
245
257
269
282
293
304
314
322
329
334
338
340
341
339
336
330
322
313
300
287
271
254
235
214
192
171
148
125
101
78
55
33
13
-5
-24
-41
-55
-68
-80
-89
-98
-103
-108
-111
-113
-112
-110
-106
-103
-98
-92
-86
-78
-71
-63
-55
-49
-42
-34
-26
-18
-12
-6
1
7
14
20
26
31
35
38
43
46
49
52
54
56
58
60
61
62
63
63
63
63
64
65
65
65
65
66
66
66
66
68
67
67
68
69
70
71
72
73
73
73
74
75
76
76
76
76
76
77
77
77
77
77
77
78
78
78
78
79
80
80
80
81
82
83
83
83
84
85
85
87
87
87
88
89
88
89
90
89
90
90
90
90
91
91
91
91
91
92
92
92
92
92
92
93
93
94
94
94
94
95
95
96
96
96
96
96
96
96
97
97
98
98
97
97
98
98
99
98
98
98
98
99
99
99
99
100
100
100
101
100
100
100
99
100
99
99
98
98
99
99
100
99
100
100
100
100
100
101
102
102
103
103
105
105
106
107
109
108
109
110
110
111
111
110
111
110
109
110
109
109
109
108
108
108
107
107
106
106
106
106
106
106
107
108
107
107
107
108
108
108
108
108
108
107
107
108
107
107
105
105
106
105
105
105
104
103
103
103
103
102
103
102
102
102
103
104
104
104
104
105
106
106
107
107
108
108
109
110
112
113
113
114
114
115
117
117
118
119
119
119
120
120
121
122
122
122
123
124
123
123
123
123
123
122
123
122
122
122
121
121
121
121
121
121
120
120
120
120
120
120
121
121
122
122
122
123
123
124
124
125
125
126
126
125
125
125
124
123
124
123
122
121
121
120
120
120
120
119
118
118
118
118
119
119
119
119
120
119
120
120
121
121
121
121
122
121
120
120
120
119
120
120
120
120
119
120
120
120
120
120
120
121
121
122
123
123
124
125
125
125
125
126
126
127
127
127
127
128
129
129
128
128
128
127
128
128
128
129
129
129
129
131
132
132
132
133
133
135
136
136
137
138
139
140
141
142
143
143
143
144
144
145
146
145
145
146
146
146
146
146
146
146
145
145
146
147
146
145
146
146
146
148
148
148
148
149
149
150
151
151
152
152
153
153
154
155
155
155
155
156
156
157
157
157
157
157
158
157
157
157
157
156
157
157
157
158
157
157
157
157
157
157
157
157
157
157
156
156
157
157
157
157
157
158
159
162
163
165
167
169
173
178
182
187
192
198
205
214
222
231
241
250
260
271
282
294
306
318
330
342
352
363
372
380
386
391
396
398
399
398
395
391
383
374
363
350
335
319
300
281
261
240
218
196
172
150
128
107
86
67
49
32
17
3
-9
-18
-26
-32
-37
-40
-42
-41
-39
-37
-32
-27
-22
-15
-9
-1
6
13
21
28
35
43
50
56
62
69
75
82
87
92
98
102
107
111
116
119
123
125
128
131
133
136
137
139
140
142
142
143
144
145
146
146
146
147
147
148
148
148
149
149
149
150
150
150
150
150
151
151
152
152
151
151
151
151
152
151
151
151
151
152
152
153
153
153
153
153
154
154
154
154
154
154
155
155
155
155
155
154
154
155
154
155
156
156
156
156
157
158
159
159
160
161
161
163
164
165
166
165
166
166
167
167
168
167
167
167
167
167
167
166
165
165
165
164
164
164
163
163
162
163
163
164
163
163
163
163
163
164
164
164
164
164
165
165
165
166
166
166
166
166
167
168
169
169
169
170
171
172
172
173
173
173
174
175
176
176
176
177
177
178
178
180
180
180
180
180
181
181
181
182
181
181
180
181
182
182
182
181
181
181
181
181
181
181
182
182
182
182
182
182
182
182
182
182
182
182
182
182
181
181
180
180
180
180
179
179
179
180
179
179
179
179
179
179
179
179
179
178
178
178
178
178
179
179
178
178
179
179
179
180
180
179
179
179
180
179
179
178
178
179
179
179
180
179
180
180
180
180
180
180
181
180
180
181
181
183
182
183
183
183
183
184
185
185
184
185
186
185
185
185
184
184
184
184
184
184
183
182
181
181
181
180
179
177
176
176
175
175
174
174
173
173
173
172
173
173
173
173
172
173
172
173
173
173
173
173
174
174
174
173
174
173
173
174
173
174
173
172
172
172
173
173
173
172
172
172
171
172
172
171
172
172
171
171
173
172
173
172
172
173
173
174
174
175
176
176
176
177
178
178
177
178
178
179
180
180
180
181
181
181
182
183
184
183
184
185
185
187
187
189
189
189
190
191
192
192
193
192
193
193
193
194
195
194
194
195
195
196
196
196
195
196
197
197
198
198
197
197
196
197
197
197
196
196
195
195
195
195
195
194
193
193
193
193
192
192
193
193
193
193
193
195
194
196
196
196
197
198
198
198
198
199
199
200
200
200
201
200
200
200
200
200
200
199
198
198
198
198
198
197
197
196
196
196
195
195
194
193
192
191
191
190
189
189
188
188
188
188
187
187
186
185
185
185
185
185
185
184
184
185
186
186
187
187
187
187
188
188
189
188
188
189
188
189
189
188
187
187
187
188
188
187
188
187
187
187
187
187
186
187
187
187
187
187
188
188
189
188
188
189
190
190
190
190
190
190
190
190
190
189
189
188
187
188
188
188
187
186
186
186
186
186
186
185
186
186
187
187
188
188
188
188
189
189
190
190
190
190
190
190
189
190
189
189
189
189
190
190
191
192
192
191
191
192
192
193
193
193
194
195
195
196
196
196
196
196
197
197
197
197
198
197
198
198
197
198
197
197
197
197
197
198
197
197
196
196
197
196
196
196
196
195
195
194
195
194
194
193
193
192
192
192
192
191
191
191
191
191
192
191
191
191
191
191
192
192
192
192
193
193
193
193
194
194
194
194
195
194
195
195
194
195
194
195
195
196
196
196
197
198
199
201
202
204
205
208
211
215
220
223
229
234
241
248
255
264
273
284
294
306
318
330
343
356
368
381
393
405
416
425
433
440
445
449
452
452
450
446
440
432
424
413
399
384
368
350
330
311
289
267
246
224
201
181
160
140
121
102
85
71
57
45
35
25
17
10
6
4
2
2
4
6
11
15
21
27
33
40
46
54
61
69
76
84
91
98
104
111
117
123
128
133
138
143
148
151
155
158
161
165
167
169
172
173
175
176
178
180
181
181
182
182
183
184
184
184
185
185
185
186
187
187
188
188
189
189
191
191
192
193
194
194
195
196
196
198
198
198
198
197
197
198
197
197
196
196
195
194
194
193
192
191
191
191
190
191
190
190
191
191
192
193
194
194
194
195
196
196
196
197
197
197
197
198
198
198
198
198
197
197
196
197
196
196
195
195
194
194
195
194
194
193
193
194
194
194
194
193
193
193
193
193
194
193
193
193
193
192
193
193
192
193
193
193
192
192
193
192
192
193
193
193
194
193
194
194
195
196
197
196
196
197
197
196
197
197
196
197
196
197
196
197
197
197
196
196
197
197
197
197
198
197
198
198
198
199
198
199
198
200
200
200
200
199
199
199
199
199
200
199
200
200
200
200
201
201
200
199
199
198
199
198
198
198
197
197
197
198
197
197
197
196
196
197
197
198
197
197
198
198
198
199
199
198
198
198
199
199
199
199
199
199
199
198
199
199
199
199
200
200
201
202
202
202
202
202
203
204
205
205
205
205
205
206
205
206
205
204
205
205
205
206
206
207
207
207
208
209
210
210
211
211
211
212
213
213
214
214
214
214
215
214
214
214
213
212
212
211
211
210
209
208
207
207
205
204
203
201
200
199
198
198
197
196
195
195
194
194
194
193
192
192
192
192
192
192
192
192
192
192
192
192
192
192
191
191
191
191
191
191
191
190
190
190
191
191
191
190
190
190
190
190
190
190
189
188
188
188
187
187
187
187
186
186
186
186
185
186
185
186
186
187
187
187
187
188
188
189
189
189
189
190
190
190
191
191
191
191
190
190
190
190
190
191
192
192
192
194
193
194
195
194
196
197
198
199
200
199
200
200
201
202
202
201
202
202
202
203
204
204
203
204
203
204
204
204
204
204
203
204
203
204
203
202
203
202
202
201
202
202
201
200
200
201
201
201
201
200
201
201
202
203
203
203
203
204
204
205
207
207
207
207
207
207
207
207
207
206
206
206
206
206
206
205
203
204
202
202
203
201
201
201
200
201
201
201
201
201
202
202
204
206
208
211
214
217
223
229
235
242
249
257
266
277
286
298
309
322
334
347
361
375
387
399
410
421
431
439
446
452
456
457
457
457
452
447
438
428
416
401
386
368
348
327
304
282
259
235
212
190
166
143
123
103
84
69
53
38
26
16
7
1
-4
-8
-10
-10
-8
-5
-1
4
10
15
21
29
37
44
52
60
67
74
82
90
96
103
109
114
120
126
130
135
139
143
147
149
153
155
158
159
161
163
164
165
166
166
167
167
167
168
169
168
168
167
167
167
165
165
164
163
163
162
161
162
162
161
161
162
162
162
164
164
164
165
165
167
168
169
170
171
171
173
173
174
174
174
174
174
175
175
174
174
174
173
172
172
172
172
171
171
170
170
170
170
169
168
169
168
168
168
168
168
167
166
167
168
168
168
168
167
168
168
168
168
169
168
168
169
169
170
170
170
168
168
168
167
168
168
167
167
167
166
167
167
167
166
166
166
167
168
168
168
169
169
170
171
172
172
172
173
172
173
173
174
175
175
174
174
173
173
173
173
172
172
171
171
171
171
170
169
168
167
168
167
167
167
167
167
167
168
167
167
168
167
168
168
169
169
169
169
169
169
169
169
169
169
169
169
169
170
170
169
170
169
169
168
168
167
168
167
167
167
168
168
168
168
167
168
168
168
168
168
168
167
167
168
168
168
167
168
167
167
167
167
167
166
166
165
165
165
165
165
164
164
165
164
164
164
164
164
164
164
165
165
165
164
165
164
165
165
165
165
165
164
165
164
165
164
164
165
165
164
164
164
164
163
163
163
163
164
164
164
163
163
162
163
162
161
160
159
159
158
157
157
155
154
153
152
150
150
149
147
147
147
146
147
146
147
146
145
146
146
147
147
148
148
148
148
149
150
151
151
151
151
151
152
152
151
151
151
151
151
152
151
151
150
150
149
148
148
149
148
147
147
147
147
147
146
145
144
143
142
142
141
141
140
140
140
140
141
141
141
141
140
141
141
141
142
142
143
143
143
143
143
143
143
141
141
141
141
141
140
140
140
140
141
141
142
141
141
142
142
144
144
145
146
147
149
150
151
152
152
152
152
153
153
154
154
153
153
153
152
153
152
152
152
151
150
150
151
150
150
149
149
149
148
148
148
148
147
147
147
147
147
147
146
147
146
146
146
146
146
146
144
145
145
145
145
144
144
144
144
144
144
144
144
144
144
145
145
145
146
146
146
146
146
146
146
146
145
145
145
145
145
145
145
145
146
147
148
150
152
154
157
161
164
170
175
182
188
196
204
215
225
236
247
259
271
284
297
310
322
334
345
356
366
375
383
389
393
395
396
395
393
388
380
371
360
347
332
316
297
278
257
235
213
191
168
145
123
101
80
60
42
25
10
-4
-16
-26
-35
-41
-46
-50
-52
-52
-51
-49
-45
-42
-37
-32
-25
-19
-12
-4
2
10
16
23
30
36
43
49
55
59
66
71
75
79
84
87
90
93
97
100
101
103
105
106
108
110
111
111
112
113
114
115
115
115
116
117
117
117
117
117
118
116
117
117
117
116
116
116
115
114
115
115
115
115
114
114
115
115
115
116
116
115
117
118
119
120
120
120
120
121
122
122
122
122
122
122
123
122
123
123
122
121
120
121
121
120
120
119
119
119
119
119
120
119
119
119
119
120
120
120
120
120
120
121
122
121
121
121
121
121
120
121
121
121
120
120
119
119
119
119
118
118
117
117
117
118
117
117
116
116
116
117
115
116
115
115
115
116
115
115
114
114
114
113
113
113
112
112
112
112
112
112
112
112
112
112
112
113
114
113
114
114
114
115
115
115
115
116
115
115
115
115
116
115
115
114
114
114
114
114
113
114
114
113
113
112
112
111
110
110
110
109
109
109
109
108
108
107
106
106
106
105
106
106
107
108
108
109
108
110
110
111
111
112
112
113
113
113
114
115
114
114
114
114
114
114
114
114
113
113
113
113
112
112
111
111
110
110
110
111
110
111
110
111
111
111
111
112
112
112
113
112
113
113
113
113
112
113
113
113
113
112
112
111
112
112
112
112
111
111
111
111
110
111
111
110
110
110
110
110
110
109
108
108
107
106
106
106
105
105
104
103
102
102
101
102
101
101
101
101
100
100
100
101
101
101
102
101
101
101
100
101
100
100
100
99
99
99
98
98
98
98
96
96
95
94
94
93
93
92
92
92
91
91
90
89
90
89
89
89
89
88
88
88
88
88
89
88
88
88
89
89
88
89
89
88
89
90
90
90
90
90
90
91
91
92
92
92
93
93
94
95
95
96
96
96
97
97
97
97
96
96
96
96
96
97
96
95
95
95
95
95
94
95
94
94
93
94
95
95
96
96
97
97
97
98
99
99
100
100
101
101
102
102
102
102
103
102
103
103
102
100
100
99
99
99
99
99
99
98
98
99
98
98
99
99
100
100
101
102
102
102
102
102
102
102
102
101
101
101
101
101
101
101
101
100
99
99
100
99
98
99
99
99
100
100
100
100
99
100
100
99
99
98
97
96
96
95
95
94
93
92
91
91
90
89
88
87
86
86
86
85
84
85
84
85
85
86
87
87
88
88
88
89
89
90
91
90
90
90
91
90
89
90
88
87
87
87
86
85
84
83
82
83
83
82
83
83
82
83
84
86
85
87
88
89
92
94
96
99
101
104
107
111
117
122
128
134
141
149
158
168
177
189
199
211
223
235
248
260
271
282
292
302
310
316
322
326
329
329
328
325
319
311
301
290
277
261
245
228
208
187
166
144
122
100
78
55
34
13
-6
-24
-41
-56
-69
-82
-93
-102
-109
-114
-119
-121
-123
-123
-121
-117
-114
-110
-105
-99
-92
-85
-77
-70
-62
-56
-49
-41
-33
-26
-20
-14
-8
-1
4
10
15
20
23
27
31
35
38
40
43
45
48
50
51
53
54
55
56
57
57
57
57
56
57
56
55
56
56
55
54
53
53
53
52
52
52
52
52
52
53
54
54
54
55
56
57
58
59
60
62
62
63
64
65
65
66
66
67
67
68
68
68
68
67
68
67
67
66
66
64
64
63
62
63
62
61
60
60
59
59
59
58
57
56
56
56
56
56
55
55
54
54
55
56
56
55
55
55
55
57
57
57
58
59
59
60
60
60
59
59
58
58
58
58
57
57
56
56
56
55
55
54
54
55
55
55
56
57
57
57
57
58
60
60
61
61
61
61
61
62
62
60
60
59
58
59
58
58
57
57
55
55
54
55
54
54
54
55
55
56
56
57
56
56
56
57
58
58
57
57
56
55
56
54
54
53
52
52
51
52
51
50
49
49
48
47
47
48
47
46
46
47
47
46
47
47
46
45
46
45
45
44
43
42
41
41
41
39
39
38
38
37
37
37
36
36
35
36
36
36
37
37
37
38
37
38
39
39
40
41
42
43
44
46
46
46
47
48
50
50
51
52
52
52
52
52
53
54
54
54
53
53
52
53
53
53
52
52
52
53
52
52
51
51
51
52
51
51
51
50
51
51
50
50
50
49
49
48
48
48
47
47
46
45
45
44
43
43
43
42
42
41
41
40
40
39
38
38
38
38
37
38
37
37
35
35
35
35
34
34
34
33
34
34
34
34
34
34
35
35
36
36
36
36
36
36
37
37
37
36
35
35
35
35
34
34
33
32
33
33
33
33
33
33
33
34
33
34
34
35
35
36
37
38
38
39
39
40
40
41
42
42
42
42
42
42
43
42
43
42
42
43
43
43
43
43
43
43
43
43
42
42
42
42
42
42
42
42
42
41
41
42
41
42
42
43
42
43
44
45
45
46
46
47
48
49
49
50
51
50
50
50
51
51
51
51
50
50
49
48
48
48
47
46
45
44
45
44
43
42
42
41
42
42
42
41
42
42
42
43
42
43
42
42
42
43
44
43
43
43
43
43
43
43
43
43
43
42
43
43
42
41
42
41
40
41
41
40
40
39
40
39
39
39
39
38
37
37
36
37
35
36
34
34
34
33
34
33
33
32
32
32
32
32
32
32
31
32
32
31
32
31
32
32
32
31
30
30
30
29
28
28
28
27
27
26
25
25
23
23
22
22
21
20
19
20
20
20
20
19
19
19
20
21
21
22
23
25
27
29
32
34
37
40
43
48
53
58
63
69
76
83
90
99
108
117
127
137
149
160
171
182
193
203
212
222
230
237
242
246
248
250
249
246
241
234
226
215
204
191
175
158
140
119
99
78
57
34
12
-9
-31
-51
-70
-87
-103
-119
-134
-146
-157
-165
-173
-179
-183
-186
-187
-186
-185
-182
-179
-175
-168
-163
-155
-148
-141
-134
-127
-119
-112
-104
-97
-90
-83
-78
-70
-64
-57
-51
-46
-41
-37
-33
-28
-24
-20
-18
-15
-12
-10
-7
-5
-3
-2
-1
0
1
1
3
3
3
4
4
5
5
5
5
5
5
6
7
7
7
7
7
6
6
6
7
6
5
5
5
5
4
4
3
3
3
3
3
4
2
2
2
2
3
3
3
4
4
4
5
5
5
5
5
5
5
6
6
6
7
7
6
6
6
7
7
7
7
7
7
8
8
8
8
8
8
8
9
9
9
8
7
8
7
8
7
6
6
5
5
6
6
5
5
5
6
5
6
6
7
6
6
7
8
8
8
9
9
10
9
12
12
13
13
13
14
13
14
14
14
14
14
13
14
12
12
11
11
9
9
9
8
7
6
5
5
3
3
3
2
2
2
1
1
0
0
-1
-1
-2
-2
-2
-2
-2
-3
-3
-3
-2
-2
-2
-1
-1
-1
-1
0
1
1
2
2
2
3
3
5
5
5
4
5
5
6
5
5
5
4
4
5
4
4
4
4
3
3
3
4
3
3
3
3
3
4
4
4
4
4
5
5
5
6
5
5
5
5
5
5
5
6
6
6
6
7
7
7
8
7
7
9
9
9
10
10
11
11
11
12
12
12
12
12
11
12
11
11
10
9
9
9
10
10
9
8
8
8
7
8
8
8
9
9
10
10
10
10
10
9
9
9
8
9
7
7
7
6
6
5
6
4
4
3
3
4
4
3
2
1
1
0
0
-1
-2
-1
-2
-3
-3
-3
-4
-5
-5
-6
-6
-6
-6
-6
-7
-8
-8
-7
-8
-7
-7
-8
-8
-8
-7
-7
-7
-8
-8
-8
-8
-8
-8
-9
-9
-9
-9
-9
-8
-8
-8
-8
-8
-9
-8
-7
-7
-7
-7
-6
-6
-5
-5
-5
-5
-5
-5
-5
-4
-3
-5
-5
-5
-4
-4
-3
-3
-3
-4
-4
-4
-4
-3
-3
-3
-3
-2
-2
-2
-1
0
0
1
2
2
4
5
6
6
7
8
9
10
10
10
11
11
12
12
13
13
13
13
13
14
14
15
14
14
14
15
15
15
15
14
14
13
13
13
12
12
11
10
11
10
11
9
10
9
10
10
10
11
11
11
11
12
12
13
12
13
13
14
14
14
15
15
14
14
13
14
14
14
14
13
13
13
13
12
12
11
11
10
10
10
10
9
9
9
9
9
8
9
8
8
8
8
9
8
8
9
8
8
8
8
8
9
8
8
8
8
8
9
8
8
9
9
11
12
13
15
18
21
25
28
33
38
45
50
58
67
76
86
95
106
118
130
143
156
169
181
194
205
216
226
235
243
248
252
255
256
256
253
248
241
231
220
207
191
174
156
135
113
92
69
46
24
0
-22
-42
-63
-83
-101
-117
-133
-146
-157
-168
-176
-182
-188
-191
-194
-193
-192
-190
-187
-183
-179
-174
-168
-161
-155
-148
-141
-135
-128
-122
-116
-110
-104
-99
-94
-88
-83
-78
-73
-68
-64
-60
-56
-51
-48
-43
-42
-39
-36
-33
-30
-28
-26
-25
-23
-22
-21
-19
-19
-19
-18
-18
-18
-18
-17
-17
-18
-19
-19
-19
-19
-18
-19
-19
-19
-18
-18
-18
-17
-17
-17
-16
-15
-14
-13
-13
-13
-12
-12
-11
-10
-10
-9
-9
-9
-8
-8
-7
-7
-8
-7
-7
-7
-6
-6
-6
-6
-7
-8
-7
-7
-7
-8
-9
-10
-11
-12
-12
-13
-13
-14
-15
-15
-15
-15
-16
-17
-18
-18
-18
-18
-18
-18
-19
-19
-18
-18
-17
-17
-16
-16
-16
-15
-15
-14
-15
-14
-14
-13
-12
-11
-11
-10
-11
-11
-10
-9
-10
-10
-10
-10
-10
-10
-10
-11
-11
-12
-13
-14
-13
-14
-15
-15
-16
-16
-16
-16
-15
-15
-16
-16
-15
-16
-15
-15
-15
-15
-16
-15
-14
-14
-14
-13
-13
-14
-14
-13
-13
-13
-14
-14
-14
-15
-15
-15
-17
-17
-18
-19
-18
-19
-19
-20
-21
-22
-22
-22
-23
-23
-23
-24
-23
-23
-23
-23
-23
-23
-23
-23
-22
-23
-23
-24
-24
-25
-25
-25
-25
-25
-25
-26
-27
-27
-26
-26
-26
-26
-27
-26
-26
-25
-24
-24
-24
-24
-23
-21
-21
-20
-19
-19
-19
-17
-16
-16
-15
-15
-15
-15
-14
-14
-13
-14
-13
-13
-12
-12
-12
-12
-12
-12
-11
-11
-10
-11
-10
-10
-9
-10
-9
-9
-9
-9
-9
-10
-10
-10
-11
-12
-13
-13
-15
-15
-16
-17
-18
-19
-20
-21
-22
-21
-23
-24
-24
-25
-25
-24
-25
-25
-25
-25
-24
-24
-23
-23
-23
-24
-23
-23
-23
-22
-22
-21
-22
-22
-21
-21
-21
-21
-21
-22
-21
-21
-21
-21
-21
-22
-22
-23
-23
-23
-23
-24
-25
-26
-26
-26
-26
-27
-28
-29
-29
-29
-29
-29
-29
-30
-30
-30
-30
-30
-30
-30
-30
-31
-31
-30
-30
-30
-29
-29
-29
-27
-27
-26
-26
-25
-25
-24
-24
-22
-22
-22
-21
-21
-20
-20
-19
-18
-17
-17
-16
-15
-15
-15
-15
-15
-14
-13
-12
-11
-11
-10
-9
-10
-8
-7
-7
-7
-7
-7
-6
-6
-5
-5
-4
-4
-5
-5
-4
-5
-5
-6
-5
-6
-6
-5
-5
-6
-6
-5
-6
-5
-5
-5
-5
-4
-5
-4
-4
-3
-3
-3
-2
-3
-3
-2
-1
-2
-2
-3
-4
-3
-4
-4
-4
-5
-6
-6
-6
-5
-5
-6
-7
-7
-7
-7
-6
-6
-7
-7
-7
-7
-6
-7
-7
-7
-8
-8
-9
-8
-9
-10
-10
-11
-11
-11
-11
-12
-13
-14
-14
-14
-14
-15
-15
-16
-17
-17
-17
-16
-16
-17
-17
-18
-18
-17
-17
-16
-17
-17
-17
-16
-16
-16
-16
-16
-17
-16
-16
-15
-16
-15
-16
-16
-17
-16
-15
-16
-16
-16
-16
-16
-16
-16
-16
-17
-17
-18
-18
-19
-19
-20
-20
-20
-21
-20
-20
-20
-21
-20
-20
-20
-20
-18
-18
-18
-17
-17
-16
-15
-15
-14
-14
-14
-14
-14
-13
-13
-14
-14
-14
-13
-13
-12
-11
-10
-9
-6
-4
0
2
7
10
16
21
28
36
44
53
63
72
84
96
109
120
134
146
160
173
186
199
210
221
230
239
246
253
256
258
259
257
253
248
240
229
217
202
187
169
149
129
107
83
60
37
13
-11
-34
-57
-79
-98
-116
-133
-149
-162
-175
-186
-195
-203
-207
-211
-212
-212
-211
-209
-205
-200
-195
-190
-183
-177
-170
-163
-156
-149
-142
-136
-129
-122
-117
-111
-105
-99
-94
-90
-85
-79
-76
-72
-69
-65
-62
-59
-56
-54
-51
-49
-48
-46
-44
-42
-41
-41
-40
-39
-39
-38
-38
-37
-36
-37
-35
-35
-35
-35
-36
-35
-36
-36
-35
-34
-36
-36
-36
-36
-36
-36
-35
-35
-35
-34
-34
-33
-33
-32
-32
-32
-33
-31
-31
-30
-30
-30
-29
-28
-28
-28
-27
-27
-27
-27
-26
-26
-25
-25
-25
-25
-24
-23
-23
-23
-23
-22
-22
-22
-22
-22
-22
-22
-23
-23
-22
-23
-22
-22
-23
-24
-23
-24
-24
-24
-24
-24
-24
-24
-24
-23
-23
-23
-22
-22
-21
-20
-20
-20
-20
-20
-20
-19
-19
-19
-19
-20
-19
-19
-19
-19
-20
-21
-22
-23
-23
-22
-23
-23
-23
-24
-24
-25
-24
-25
-24
-26
-25
-24
-24
-23
-23
-22
-22
-21
-20
-20
-20
-19
-18
-19
-18
-18
-18
-18
-18
-19
-19
-19
-19
-18
-19
-19
-20
-20
-20
-20
-19
-18
-19
-18
-18
-18
-17
-18
-17
-18
-18
-17
-17
-17
-17
-17
-17
-17
-17
-17
-17
-18
-18
-19
-19
-19
-19
-20
-20
-20
-21
-21
-21
-21
-21
-22
-22
-23
-22
-22
-22
-22
-22
-22
-22
-22
-22
-21
-21
-21
-21
-22
-22
-21
-22
-22
-23
-23
-22
-21
-21
-21
-21
-21
-20
-20
-20
-18
-18
-17
-16
-14
-13
-12
-11
-10
-9
-9
-7
-6
-4
-4
-4
-4
-3
-2
-2
-2
-2
-3
-3
-4
-4
-5
-5
-6
-6
-7
-7
-7
-8
-9
-9
-9
-10
-9
-9
-9
-9
-11
-10
-10
-10
-10
-10
-11
-11
-11
-11
-10
-11
-11
-12
-12
-13
-14
-14
-15
-16
-18
-19
-19
-19
-20
-21
-21
-22
-22
-23
-23
-23
-25
-25
-26
-26
-26
-26
-26
-26
-26
-27
-27
-28
-28
-29
-28
-29
-30
-30
-29
-30
-29
-30
-30
-30
-30
-30
-30
-30
-30
-30
-30
-29
-29
-28
-29
-28
-28
-26
-26
-26
-25
-25
-24
-24
-23
-22
-22
-21
-22
-21
-20
-20
-20
-20
-20
-20
-20
-19
-18
-18
-19
-18
-19
-19
-19
-18
-19
-19
-19
-19
-18
-18
-18
-17
-17
-17
-17
-17
-16
-15
-15
-16
-16
-16
-14
-14
-14
-14
-13
-12
-11
-11
-11
-10
-10
-9
-9
-7
-6
-6
-5
-5
-4
-4
-4
-4
-5
-5
-5
-5
-4
-5
-4
-5
-5
-6
-6
-5
-5
-5
-4
-4
-4
-4
-4
-4
-3
-3
-3
-3
-4
-3
-3
-4
-5
-6
-6
-6
-5
-6
-5
-6
-6
-6
-6
-5
-6
-6
-7
-7
-7
-6
-5
-6
-6
-6
-7
-6
-7
-8
-8
-9
-10
-11
-12
-12
-12
-13
-14
-14
-14
-14
-14
-13
-14
-14
-14
-13
-12
-13
-12
-12
-12
-11
-10
-10
-10
-9
-10
-10
-9
-10
-9
-9
-9
-10
-10
-9
-9
-9
-10
-10
-11
-11
-11
-11
-12
-13
-13
-13
-14
-13
-14
-14
-14
-14
-14
-14
-14
-13
-14
-13
-14
-14
-13
-13
-13
-13
-14
-14
-13
-13
-13
-14
-14
-14
-16
-15
-15
-15
-16
-16
-17
-17
-18
-17
-18
-18
-19
-19
-19
-19
-18
-18
-19
-19
-19
-19
-18
-19
-19
-19
-20
-20
-19
-19
-18
-18
-18
-16
-15
-14
-11
-8
-5
0
4
10
16
23
30
38
48
56
68
79
91
102
115
128
141
155
168
180
191
202
212
220
228
233
237
238
239
238
235
230
222
212
200
186
172
156
138
118
97
76
54
32
10
-13
-35
-56
-77
-97
-114
-130
-147
-161
-175
-186
-195
-202
-208
-211
-214
-214
-214
-212
-209
-205
-200
-195
-189
-183
-176
-168
-162
-154
-146
-139
-132
-125
-117
-112
-106
-100
-95
-89
-84
-79
-75
-71
-67
-63
-59
-56
-53
-51
-48
-47
-45
-43
-42
-41
-40
-40
-39
-37
-37
-36
-36
-37
-37
-37
-37
-37
-37
-37
-38
-38
-38
-39
-38
-38
-39
-39
-39
-38
-38
-37
-37
-37
-36
-35
-34
-33
-32
-31
-30
-28
-28
-26
-25
-23
-23
-22
-21
-20
-18
-18
-17
-17
-18
-17
-17
-17
-17
-18
-17
-18
-19
-18
-18
-19
-19
-20
-19
-20
-20
-19
-20
-20
-21
-20
-20
-20
-20
-20
-20
-20
-20
-21
-21
-21
-22
-22
-22
-21
-21
-21
-20
-21
-21
-21
-21
-21
-21
-20
-20
-20
-19
-19
-18
-18
-19
-18
-19
-18
-18
-18
-18
-20
-21
-20
-21
-20
-20
-20
-21
-21
-21
-21
-20
-19
-20
-19
-18
-18
-17
-17
-16
-16
-16
-15
-15
-14
-13
-13
-13
-13
-12
-12
-12
-11
-12
-12
-11
-12
-11
-11
-10
-10
-11
-11
-11
-11
-12
-12
-12
-13
-14
-14
-14
-15
-15
-16
-17
-17
-17
-18
-18
-19
-19
-19
-20
-20
-20
-20
-21
-20
-20
-20
-20
-20
-21
-21
-21
-22
-21
-21
-22
-22
-22
-23
-23
-23
-25
-25
-26
-27
-27
-28
-29
-29
-30
-31
-31
-32
-32
-32
-32
-31
-31
-30
-30
-28
-28
-27
-26
-26
-24
-22
-21
-19
-19
-18
-17
-16
-14
-14
-13
-14
-14
-14
-14
-14
-14
-14
-14
-14
-15
-14
-13
-14
-13
-13
-13
-12
-11
-10
-10
-9
-9
-8
-7
-7
-7
-7
-7
-7
-7
-6
-6
-6
-6
-7
-7
-7
-6
-7
-7
-8
-8
-8
-9
-8
-9
-10
-10
-12
-12
-12
-13
-13
-13
-14
-15
-15
-15
-15
-16
-16
-17
-16
-16
-16
-16
-16
-16
-17
-17
-15
-15
-16
-16
-16
-15
-15
-14
-14
-15
-15
-16
-16
-17
-17
-17
-17
-18
-18
-18
-18
-18
-18
-19
-19
-18
-17
-17
-16
-16
-16
-15
-14
-14
-13
-12
-11
-12
-10
-10
-9
-9
-8
-7
-7
-7
-6
-5
-5
-5
-5
-5
-5
-4
-4
-4
-3
-3
-3
-2
-1
0
1
1
1
2
3
4
4
5
6
6
7
7
7
7
8
8
8
9
8
9
9
8
9
9
10
10
10
9
9
8
8
9
9
8
8
8
8
9
9
10
9
9
9
9
9
10
10
11
12
13
12
13
14
14
14
13
13
13
13
14
12
12
11
11
11
10
10
8
8
7
6
5
6
5
4
5
4
5
4
5
5
4
4
5
4
5
6
6
6
6
8
8
9
9
9
10
10
10
11
12
13
13
13
14
15
16
16
15
16
15
16
15
15
15
14
15
15
14
14
14
14
13
14
13
13
13
14
13
13
13
12
12
13
12
12
11
11
11
11
11
10
9
9
9
9
9
8
9
7
8
8
7
8
7
7
7
7
7
7
8
9
8
8
7
7
7
7
7
7
7
7
7
8
8
7
8
8
8
9
9
9
8
9
10
10
11
12
12
13
12
13
14
13
13
13
13
13
13
14
14
15
15
15
16
17
19
19
21
23
26
29
33
37
42
48
54
60
68
75
84
93
104
114
127
139
151
164
176
187
198
209
219
227
235
241
245
248
250
250
246
242
