# Simple Text Format
# Sampling Rate (Hz):= 1200.00
# Resolution:= 12
# Labels:= ECG	aVR
# Age:=	80
# Gender:=	Feminino
-64
-65
-66
-66
-66
-67
-68
-67
-68
-67
-66
-66
-66
-67
-67
-67
-67
-65
-64
-64
-64
-65
-63
-63
-63
-63
-64
-64
-65
-67
-67
-68
-69
-70
-70
-71
-72
-73
-75
-76
-77
-77
-78
-78
-78
-78
-78
-79
-78
-78
-78
-76
-76
-77
-77
-77
-76
-75
-75
-74
-74
-73
-73
-73
-71
-72
-70
-71
-70
-70
-70
-69
-68
-69
-70
-70
-71
-71
-72
-72
-74
-75
-76
-76
-76
-78
-81
-83
-85
-85
-87
-88
-89
-89
-90
-89
-90
-89
-89
-90
-89
-89
-87
-86
-86
-86
-86
-87
-87
-86
-86
-86
-86
-86
-86
-87
-87
-87
-86
-87
-87
-88
-89
-89
-88
-88
-88
-87
-86
-85
-84
-84
-84
-84
-84
-85
-85
-85
-85
-86
-87
-87
-87
-87
-87
-87
-87
-88
-89
-89
-89
-89
-90
-90
-90
-90
-90
-90
-89
-90
-90
-90
-91
-90
-90
-89
-89
-90
-91
-91
-92
-92
-92
-95
-96
-96
-97
-97
-97
-98
-98
-99
-98
-97
-96
-95
-95
-97
-97
-97
-97
-97
-97
-99
-100
-101
-102
-103
-105
-106
-108
-110
-112
-113
-115
-117
-118
-119
-120
-120
-120
-119
-118
-116
-115
-113
-110
-109
-106
-105
-104
-102
-100
-99
-97
-96
-95
-94
-93
-92
-90
-90
-90
-92
-92
-92
-93
-93
-92
-93
-94
-95
-95
-96
-96
-97
-98
-99
-101
-102
-103
-105
-106
-107
-108
-109
-109
-110
-110
-111
-111
-112
-111
-110
-109
-109
-108
-108
-107
-106
-105
-104
-103
-102
-101
-100
-99
-98
-97
-96
-96
-96
-95
-94
-95
-95
-96
-97
-98
-98
-97
-97
-98
-98
-100
-100
-100
-100
-99
-99
-99
-99
-98
-96
-95
-93
-93
-92
-91
-90
-89
-88
-88
-88
-88
-88
-87
-88
-88
-89
-89
-89
-89
-88
-87
-87
-87
-86
-86
-85
-84
-83
-83
-82
-83
-83
-83
-82
-82
-83
-84
-86
-88
-89
-91
-93
-96
-100
-102
-104
-105
-107
-109
-112
-113
-115
-116
-116
-117
-116
-117
-115
-115
-113
-111
-109
-108
-107
-106
-104
-102
-100
-99
-97
-96
-95
-94
-93
-92
-92
-92
-92
-91
-90
-89
-89
-91
-92
-92
-92
-92
-91
-91
-92
-92
-93
-95
-97
-100
-101
-103
-105
-107
-108
-111
-112
-115
-117
-120
-121
-122
-124
-126
-127
-128
-128
-128
-127
-126
-126
-125
-125
-123
-121
-120
-119
-118
-118
-117
-115
-113
-112
-112
-111
-111
-110
-109
-109
-107
-107
-106
-105
-104
-102
-101
-101
-100
-100
-99
-99
-98
-96
-97
-97
-98
-99
-99
-99
-100
-100
-101
-100
-100
-99
-98
-97
-95
-93
-91
-88
-86
-85
-84
-84
-84
-83
-84
-84
-84
-86
-87
-90
-92
-96
-100
-104
-109
-115
-120
-124
-129
-134
-138
-142
-147
-151
-154
-158
-162
-167
-171
-174
-178
-181
-183
-187
-190
-194
-197
-200
-203
-205
-208
-210
-212
-213
-213
-212
-211
-210
-209
-206
-202
-197
-192
-186
-180
-174
-167
-159
-151
-142
-133
-125
-116
-108
-99
-90
-82
-75
-67
-61
-54
-48
-43
-38
-35
-32
-28
-26
-23
-21
-20
-20
-21
-21
-21
-22
-21
-22
-23
-24
-24
-25
-25
-25
-27
-27
-29
-30
-33
-35
-39
-42
-45
-47
-49
-51
-54
-56
-60
-63
-66
-68
-71
-74
-76
-80
-81
-83
-83
-83
-84
-85
-86
-86
-85
-85
-84
-85
-84
-84
-83
-81
-80
-79
-80
-80
-80
-79
-78
-77
-77
-76
-76
-74
-73
-72
-71
-70
-69
-69
-68
-67
-65
-65
-63
-63
-61
-60
-58
-58
-57
-57
-56
-56
-56
-56
-57
-59
-60
-61
-62
-62
-63
-64
-65
-65
-66
-66
-67
-67
-68
-68
-69
-70
-70
-70
-69
-68
-68
-68
-68
-67
-67
-67
-68
-69
-70
-70
-69
-69
-71
-72
-73
-74
-74
-74
-73
-73
-74
-74
-74
-75
-74
-75
-74
-75
-76
-75
-75
-74
-74
-75
-75
-76
-75
-75
-74
-75
-75
-75
-74
-73
-72
-72
-72
-71
-71
-71
-69
-68
-67
-65
-64
-62
-60
-58
-56
-55
-54
-54
-53
-53
-53
-54
-54
-55
-56
-57
-58
-59
-61
-65
-67
-70
-72
-75
-78
-80
-83
-85
-86
-87
-87
-88
-88
-89
-88
-87
-86
-85
-84
-83
-82
-82
-81
-80
-78
-77
-76
-75
-74
-73
-72
-71
-71
-71
-71
-71
-70
-70
-70
-70
-69
-70
-70
-70
-69
-70
-70
-70
-69
-68
-67
-66
-66
-66
-67
-66
-65
-65
-64
-64
-64
-63
-63
-61
-60
-60
-60
-60
-58
-57
-56
-56
-55
-56
-56
-56
-56
-55
-55
-55
-56
-56
-56
-57
-58
-60
-62
-62
-63
-63
-64
-64
-65
-65
-66
-67
-67
-66
-66
-65
-66
-66
-65
-66
-65
-66
-66
-67
-66
-66
-65
-65
-66
-66
-66
-66
-66
-65
-65
-65
-65
-65
-66
-65
-64
-64
-64
-64
-64
-63
-63
-63
-65
-66
-67
-67
-67
-66
-65
-65
-64
-63
-62
-60
-59
-57
-56
-54
-52
-50
-48
-47
-46
-44
-43
-42
-41
-39
-37
-37
-37
-37
-38
-39
-39
-41
-43
-45
-47
-48
-50
-53
-55
-58
-61
-62
-64
-65
-68
-69
-71
-72
-74
-73
-73
-73
-73
-72
-71
-69
-69
-67
-66
-64
-62
-61
-58
-57
-55
-55
-54
-54
-54
-53
-52
-53
-52
-51
-50
-49
-48
-48
-47
-48
-47
-46
-46
-45
-45
-46
-45
-45
-45
-44
-44
-43
-42
-42
-41
-41
-40
-40
-41
-42
-41
-42
-41
-41
-41
-41
-40
-41
-41
-41
-41
-43
-44
-45
-46
-46
-46
-47
-49
-49
-51
-50
-49
-48
-47
-46
-46
-47
-46
-46
-45
-45
-44
-42
-40
-37
-35
-34
-34
-34
-33
-33
-33
-33
-33
-34
-36
-36
-36
-35
-35
-36
-37
-38
-39
-39
-40
-40
-41
-42
-42
-42
-41
-40
-40
-40
-40
-40
-40
-40
-39
-40
-40
-41
-41
-40
-40
-40
-40
-40
-40
-38
-37
-35
-34
-34
-34
-34
-35
-35
-35
-35
-36
-35
-35
-35
-35
-36
-37
-39
-40
-41
-43
-43
-46
-47
-48
-49
-49
-50
-51
-51
-52
-54
-54
-55
-57
-59
-61
-63
-66
-67
-69
-71
-75
-79
-83
-87
-92
-96
-100
-105
-109
-113
-118
-121
-125
-128
-132
-136
-139
-142
-144
-145
-146
-146
-145
-144
-143
-140
-137
-134
-131
-126
-120
-114
-107
-101
-93
-86
-78
-70
-61
-52
-45
-37
-30
-22
-15
-7
0
6
12
17
23
27
32
35
37
39
40
42
43
43
44
43
42
40
38
37
34
32
28
25
24
22
21
19
17
15
13
12
10
9
7
7
6
6
5
5
4
3
2
1
0
1
0
-1
-3
-4
-6
-7
-7
-8
-10
-11
-13
-14
-16
-17
-19
-21
-22
-24
-25
-25
-26
-26
-26
-28
-28
-28
-28
-28
-27
-28
-27
-26
-25
-22
-21
-19
-18
-17
-15
-14
-12
-10
-8
-8
-7
-6
-6
-5
-5
-6
-6
-7
-7
-7
-7
-9
-10
-11
-12
-12
-11
-11
-12
-12
-12
-11
-10
-10
-10
-10
-10
-9
-8
-6
-5
-5
-6
-6
-5
-5
-6
-6
-8
-8
-9
-9
-10
-10
-11
-12
-14
-14
-15
-15
-15
-16
-16
-16
-15
-14
-14
-15
-15
-16
-16
-16
-15
-13
-13
-13
-14
-13
-13
-12
-12
-11
-12
-11
-10
-9
-8
-7
-7
-7
-8
-7
-7
-8
-9
-9
-11
-11
-11
-10
-11
-11
-12
-12
-12
-12
-12
-12
-12
-11
-11
-9
-8
-7
-7
-8
-9
-9
-10
-9
-9
-10
-11
-11
-11
-11
-11
-12
-13
-15
-16
-17
-17
-18
-18
-18
-19
-19
-20
-19
-19
-21
-22
-24
-24
-25
-24
-25
-26
-27
-27
-27
-27
-26
-26
-26
-26
-26
-26
-25
-24
-25
-25
-24
-23
-23
-22
-22
-23
-24
-24
-24
-24
-23
-24
-25
-25
-25
-24
-25
-24
-24
-24
-24
-24
-22
-21
-19
-18
-17
-16
-15
-13
-10
-10
-9
-7
-7
-6
-5
-4
-4
-5
-4
-3
-2
-2
-2
-4
-5
-6
-7
-7
-8
-9
-11
-12
-12
-13
-13
-13
-15
-15
-16
-17
-17
-17
-18
-19
-18
-18
-17
-15
-14
-13
-11
-10
-9
-7
-6
-5
-5
-5
-3
-2
-1
1
1
2
1
1
-1
-1
-2
-3
-5
-6
-7
-6
-5
-5
-5
-5
-5
-5
-5
-4
-2
-1
-1
1
3
4
4
5
6
7
8
9
10
9
9
8
8
9
9
9
9
8
8
7
7
7
6
5
4
4
3
3
4
5
5
5
5
4
6
6
6
6
6
7
8
8
9
8
7
6
6
5
4
4
2
2
1
-1
0
0
0
-1
-2
-2
-3
-2
-2
-2
-3
-3
-3
-2
-1
0
0
0
1
1
1
2
3
2
2
3
4
4
5
4
4
4
4
4
5
5
3
3
2
2
2
2
2
1
0
-2
-3
-3
-4
-5
-5
-6
-6
-4
-3
-1
-1
0
1
1
1
1
1
0
0
0
0
1
2
2
1
0
-2
-2
-4
-5
-6
-7
-8
-6
-5
-5
-3
-3
-1
0
1
2
3
4
4
5
5
5
7
7
7
8
8
8
9
9
8
7
5
3
3
3
1
1
1
-1
-1
-2
-2
-2
-3
-4
-5
-6
-7
-7
-7
-8
-9
-9
-10
-10
-10
-11
-11
-12
-12
-12
-11
-11
-11
-14
-15
-16
-17
-19
-20
-22
-25
-28
-30
-33
-37
-41
-45
-49
-54
-58
-62
-67
-71
-76
-80
-85
-88
-91
-94
-98
-101
-104
-105
-107
-108
-110
-111
-112
-111
-110
-107
-105
-103
-99
-96
-89
-84
-77
-70
-61
-54
-46
-37
-27
-18
-10
-2
7
14
23
30
37
44
49
54
59
62
66
69
70
70
71
71
70
70
67
65
62
60
58
55
52
50
46
43
40
38
36
33
31
30
27
27
27
26
25
25
25
24
25
25
26
26
27
26
28
29
30
31
32
32
32
33
33
34
33
32
31
31
30
29
28
27
25
23
21
21
19
16
13
11
8
6
5
3
2
1
-1
-1
-1
-1
-1
-2
-2
-1
0
2
4
6
8
10
13
15
18
20
21
23
24
25
28
30
31
32
33
33
32
32
32
31
30
29
28
26
27
27
26
25
24
23
22
22
22
21
20
19
19
19
19
19
19
18
17
16
16
15
14
13
12
11
11
12
11
11
11
11
11
13
14
15
15
16
16
16
16
16
16
15
14
14
13
14
13
12
11
10
10
11
11
12
11
10
9
9
10
10
10
10
11
11
10
10
9
8
7
5
5
5
5
4
2
2
0
1
1
2
2
1
1
2
2
3
4
5
4
4
4
4
5
4
4
3
1
1
0
0
-1
-1
-2
-1
-1
1
1
3
4
5
7
9
10
11
11
11
12
12
13
13
12
12
11
10
8
7
5
3
0
-2
-3
-5
-5
-5
-6
-6
-7
-6
-7
-6
-6
-7
-8
-8
-7
-5
-5
-4
-4
-4
-4
-3
-2
-2
-2
-2
-2
-1
-1
1
2
2
2
3
5
6
7
7
7
7
7
8
8
9
9
8
8
8
8
8
7
5
4
3
3
2
2
2
2
1
2
3
4
6
7
9
10
11
12
13
13
13
13
14
14
15
15
14
13
11
10
9
7
5
3
0
-1
-3
-3
-5
-6
-7
-9
-10
-9
-8
-7
-6
-5
-4
-2
-2
0
0
-1
-1
-3
-2
-1
0
0
0
1
0
-1
0
0
-1
-1
-1
1
2
3
6
7
9
10
12
14
16
18
19
21
22
23
24
25
25
24
25
25
25
24
24
23
23
21
21
21
21
20
19
19
18
18
18
18
17
16
17
18
18
19
19
18
18
17
16
15
15
15
14
14
13
12
11
11
9
7
7
5
5
5
4
3
2
1
0
1
1
0
-1
-1
-3
-3
-4
-5
-6
-8
-8
-7
-7
-7
-7
-8
-9
-9
-8
-7
-7
-7
-6
-5
-5
-3
-2
-1
0
1
1
2
2
3
3
2
2
0
1
0
0
-1
-2
-2
-3
-3
-2
-3
-2
-2
-2
-1
1
1
3
3
4
5
5
6
7
8
8
8
8
8
8
8
7
6
5
4
4
2
2
1
1
1
1
3
4
4
4
3
4
4
4
5
5
5
5
5
7
7
7
7
7
6
5
6
6
5
5
5
5
5
6
7
7
7
9
10
12
13
14
15
16
16
17
19
20
20
20
19
19
19
19
19
18
17
17
16
15
14
14
12
11
10
10
9
10
10
10
10
10
11
12
13
13
12
12
11
10
9
9
8
7
6
5
5
5
3
1
-1
-2
-3
-3
-3
-3
-4
-4
-3
-2
-1
-1
-1
-1
-1
0
1
1
1
0
-1
-1
-3
-4
-5
-8
-10
-13
-16
-18
-21
-24
-27
-31
-35
-38
-42
-47
-53
-59
-65
-69
-73
-77
-81
-86
-91
-96
-101
-105
-108
-112
-115
-118
-120
-121
-122
-120
-120
-119
-117
-113
-109
-104
-98
-92
-87
-81
-75
-66
-59
-51
-42
-34
-25
-16
-9
0
6
12
18
22
28
33
39
43
46
49
52
55
58
60
61
61
61
62
62
62
61
59
58
58
57
56
53
51
49
46
44
42
41
39
36
34
32
30
29
27
26
24
23
22
21
21
21
20
20
20
20
20
20
20
20
21
20
21
21
22
22
22
22
22
22
23
23
23
24
24
25
26
28
28
27
26
25
24
23
22
21
19
18
17
15
14
11
10
7
5
4
4
4
4
4
4
5
6
8
9
11
13
14
15
16
18
19
18
17
18
17
17
17
16
13
12
10
8
6
5
3
1
-1
-1
-1
-2
-2
-3
-5
-5
-5
-4
-3
-2
-2
-2
-1
-1
0
1
2
2
2
2
2
4
4
4
4
4
3
3
1
0
-1
-3
-5
-6
-7
-8
-10
-12
-13
-14
-15
-15
-15
-15
-15
-15
-15
-13
-12
-11
-10
-9
-8
-6
-4
-2
0
0
2
3
4
5
5
5
5
5
5
5
6
7
7
6
7
7
9
9
9
9
10
9
9
10
10
9
9
8
7
6
6
6
4
2
0
-1
-2
-4
-5
-6
-9
-11
-12
-12
-13
-13
-13
-14
-13
-13
-11
-11
-11
-11
-11
-9
-9
-8
-8
-8
-9
-9
-9
-8
-8
-9
-9
-9
-10
-9
-9
-10
-10
-10
-10
-10
-8
-7
-6
-6
-5
-5
-3
-3
-2
-1
-2
-1
0
0
1
1
1
1
1
1
1
2
1
2
2
3
4
6
8
8
8
8
8
8
8
9
9
10
9
10
11
10
9
7
6
5
4
2
1
-1
-4
-6
-7
-9
-9
-10
-12
-14
-16
-17
-17
-19
-20
-22
-23
-23
-24
-23
-22
-22
-23
-21
-21
-18
-15
-13
-11
-11
-9
-7
-6
-4
-2
-1
-1
1
2
2
3
4
4
3
4
4
4
4
5
4
4
5
5
7
7
8
7
8
8
9
10
11
12
13
15
16
18
20
21
21
22
24
27
27
29
29
30
31
31
32
32
32
31
31
31
30
30
29
27
25
24
21
21
20
18
17
15
14
13
13
13
12
11
11
12
13
13
13
13
12
12
11
12
12
11
11
10
8
7
7
7
7
6
7
7
8
7
7
6
4
3
2
3
3
2
1
0
-1
-3
-4
-6
-9
-11
-14
-17
-21
-23
-26
-29
-33
-36
-39
-41
-44
-48
-52
-56
-60
-64
-68
-72
-76
-80
-85
-89
-93
-98
-102
-106
-110
-113
-117
-119
-121
-123
-123
-125
-125
-123
-121
-117
-113
-110
-105
-97
-89
-81
-73
-65
-58
-50
-40
-32
-24
-17
-8
-1
7
13
21
28
33
37
41
45
49
53
55
57
59
60
61
63
63
64
63
63
63
61
61
61
58
57
56
53
52
50
48
44
41
39
37
36
34
32
30
28
26
25
23
21
20
19
17
17
16
17
18
18
18
18
17
17
16
15
15
14
15
15
16
16
16
15
15
15
16
16
15
15
15
14
15
16
16
16
17
17
17
18
19
20
20
21
22
22
23
24
25
25
25
25
27
27
28
29
28
28
27
27
28
28
27
27
26
26
25
26
25
24
24
23
23
23
22
22
20
18
18
18
17
17
16
14
13
13
13
13
13
13
12
11
10
11
10
10
9
10
10
11
11
11
11
11
10
10
10
10
11
11
11
10
10
11
12
12
11
10
10
9
9
10
9
9
8
7
7
8
8
7
7
7
8
8
10
9
9
9
10
11
13
14
15
15
15
15
16
16
16
16
14
13
13
13
11
11
10
8
8
7
6
6
5
3
3
3
3
2
2
2
1
1
0
1
1
1
0
0
-1
-1
0
0
-1
-1
-1
-1
0
1
1
2
1
0
1
2
3
3
2
2
1
0
1
1
2
1
1
1
1
1
0
-1
-2
-4
-5
-6
-6
-7
-9
-9
-10
-11
-10
-11
-12
-13
-13
-12
-12
-12
-11
-10
-9
-7
-4
-1
2
3
4
5
6
8
9
11
12
12
12
12
11
10
10
9
7
6
5
5
3
2
0
-1
-2
-2
-3
-3
-5
-6
-6
-6
-5
-3
-3
-2
-2
-1
1
2
4
5
6
6
6
7
8
8
8
8
9
10
10
10
10
10
10
11
12
14
16
17
18
17
18
18
19
20
21
20
21
21
21
21
20
19
18
16
16
15
15
14
12
10
9
8
7
7
6
5
4
5
4
3
3
3
2
1
2
2
1
1
1
1
1
1
2
2
3
3
2
3
4
5
4
3
2
2
1
2
3
3
2
1
1
1
2
2
2
3
3
3
4
4
4
5
5
4
5
5
4
3
2
0
-1
-2
-2
-2
-2
-3
-5
-6
-6
-7
-7
-7
-8
-9
-8
-6
-6
-5
-4
-4
-3
-2
-1
-1
-2
-2
-3
-3
-1
-1
1
0
0
-1
-1
-1
-2
-3
-3
-3
-4
-4
-4
-4
-4
-5
-4
-5
-3
-2
-2
-1
-1
-1
0
1
1
1
1
1
1
1
1
2
2
2
2
1
2
2
1
1
0
-1
0
1
2
2
4
3
3
4
4
5
5
5
5
7
8
8
9
8
8
7
7
8
9
9
8
9
9
10
10
11
10
9
8
8
8
7
7
7
6
5
5
4
4
3
1
0
-1
-2
-2
-3
-4
-5
-5
-5
-5
-3
-4
-3
-3
-3
-2
-2
0
0
1
1
3
4
5
7
8
9
10
11
13
15
16
16
16
15
14
13
12
12
10
9
7
5
2
0
-3
-7
-10
-13
-16
-19
-22
-25
-29
-32
-35
-38
-41
-45
-50
-54
-58
-63
-67
-72
-77
-82
-87
-93
-98
-102
-106
-109
-113
-116
-119
-121
-122
-123
-123
-125
-123
-121
-119
-117
-113
-109
-103
-97
-90
-84
-78
-73
-67
-61
-54
-46
-38
-30
-22
-15
-7
0
6
13
18
23
27
31
34
38
41
44
46
49
50
52
54
54
52
52
51
50
50
50
48
47
46
45
44
43
42
41
39
38
36
35
34
32
29
27
26
24
23
22
21
19
18
18
18
17
17
17
16
16
17
17
17
18
18
19
20
22
22
23
23
22
21
21
21
21
21
21
20
19
18
17
17
15
15
14
13
13
12
13
12
12
11
12
12
12
13
13
13
13
13
14
15
15
15
14
14
15
16
17
17
18
17
18
18
18
16
15
14
12
11
10
9
8
7
5
4
2
1
0
0
-2
-2
-3
-2
-1
-1
0
2
2
4
6
8
10
12
13
15
17
17
19
19
18
18
18
18
18
17
16
15
15
13
12
11
9
7
5
4
3
3
2
2
1
0
0
0
1
2
2
2
3
3
5
6
5
6
5
4
4
4
4
3
2
1
0
-1
-2
-2
-4
-5
-6
-8
-8
-9
-10
-10
-12
-11
-12
-10
-10
-8
-8
-8
-7
-6
-5
-5
-5
-4
-4
-3
-2
-2
-1
-1
0
0
1
1
1
2
1
2
2
3
4
6
5
6
6
6
6
6
6
4
4
2
2
1
0
0
-2
-3
-4
-5
-6
-7
-8
-10
-11
-12
-12
-13
-13
-13
-14
-14
-14
-14
-13
-12
-12
-12
-11
-9
-8
-6
-5
-4
-4
-3
-1
0
0
1
0
1
1
2
2
1
0
-1
-2
-3
-4
-6
-7
-9
-11
-13
-14
-15
-17
-19
-20
-22
-22
-23
-22
-23
-24
-25
-24
-23
-23
-21
-20
-20
-19
-18
-16
-15
-14
-12
-12
-11
-10
-8
-8
-8
-8
-8
-8
-8
-8
-8
-9
-10
-11
-11
-11
-11
-11
-12
-13
-13
-13
-12
-12
-11
-12
-11
-10
-9
-7
-6
-5
-4
-4
-1
1
3
6
8
10
11
12
13
15
15
15
15
16
16
17
17
16
14
12
11
11
11
10
8
8
7
6
6
7
7
7
8
9
10
12
13
13
13
14
14
14
14
13
12
10
10
9
8
8
8
7
6
4
4
2
1
0
-1
-2
-3
-3
-3
-3
-5
-6
-6
-7
-8
-9
-10
-11
-12
-13
-13
-12
-11
-11
-10
-10
-9
-7
-6
-5
-3
-3
-2
-1
1
3
4
4
5
6
6
7
6
6
5
4
4
4
4
3
2
2
1
2
2
2
1
1
0
1
1
0
0
0
-1
-2
-2
-3
-3
-4
-5
-6
-8
-8
-9
-10
-11
-12
-13
-13
-13
-12
-11
-12
-12
-11
-10
-10
-9
-8
-9
-9
-9
-8
-6
-5
-5
-4
-4
-3
-2
-1
-1
-1
-1
-1
-1
1
1
2
2
2
3
3
4
4
4
3
4
4
4
5
5
5
5
5
4
4
3
2
1
0
-1
-1
-1
-1
-2
-3
-4
-4
-3
-2
-1
0
0
0
0
0
-1
-1
-2
-2
-3
-3
-4
-5
-6
-7
-9
-10
-11
-12
-12
-13
-15
-15
-14
-13
-12
-11
-9
-9
-8
-7
-6
-5
-5
-4
-4
-3
-3
-3
-3
-4
-4
-5
-4
-4
-3
-2
-4
-4
-4
-4
-3
-3
-1
-1
-1
0
2
2
2
2
1
-1
-1
0
-1
-1
-2
-3
-3
-5
-6
-7
-7
-9
-11
-11
-11
-11
-11
-11
-12
-12
-11
-11
-10
-9
-9
-9
-8
-7
-5
-3
-2
0
0
2
4
4
5
5
5
5
5
7
8
8
8
8
9
10
10
11
10
8
8
7
5
5
5
4
3
2
1
1
0
-1
-3
-4
-5
-6
-6
-5
-6
-5
-6
-5
-4
-2
-1
0
1
1
3
3
5
6
6
7
7
7
7
8
8
8
7
8
9
11
11
11
10
10
11
11
12
12
12
12
11
11
10
10
8
8
7
6
6
5
5
4
3
1
0
0
0
0
-1
-2
-2
-2
-1
-1
0
2
2
3
4
5
5
4
4
4
4
5
6
6
5
5
4
3
2
2
1
0
0
-2
-1
-2
-4
-5
-6
-8
-8
-8
-8
-8
-9
-11
-12
-13
-14
-15
-17
-19
-20
-23
-24
-24
-26
-28
-31
-33
-35
-38
-40
-43
-47
-50
-54
-58
-62
-65
-69
-73
-78
-82
-86
-89
-94
-98
-103
-107
-110
-113
-114
-117
-120
-123
-125
-126
-127
-127
-126
-125
-123
-119
-115
-111
-105
-100
-94
-87
-79
-71
-62
-54
-45
-37
-27
-18
-10
-1
7
14
21
26
32
38
41
45
47
50
52
54
55
57
56
55
54
53
53
52
50
49
47
45
45
43
41
39
38
35
33
31
29
28
25
24
21
20
18
17
16
14
12
12
12
12
12
11
10
10
11
11
13
13
15
14
14
14
13
12
11
11
9
9
8
8
7
7
6
5
5
4
4
3
2
2
3
4
5
7
8
9
9
10
11
11
12
11
10
9
8
7
6
5
2
0
-1
-2
-3
-4
-6
-8
-10
-11
-12
-12
-10
-10
-9
-8
-6
-4
-2
-1
0
1
1
2
3
4
5
5
5
5
4
4
3
1
-1
-3
-5
-7
-8
-10
-11
-12
-13
-14
-14
-15
-16
-16
-16
-16
-14
-12
-11
-10
-9
-8
-7
-6
-4
-2
-1
-1
0
1
1
2
2
1
0
-1
-1
-2
-3
-4
-6
-6
-8
-8
-9
-10
-11
-13
-14
-14
-15
-14
-15
-15
-15
-15
-14
-14
-13
-12
-13
-12
-12
-13
-13
-14
-14
-15
-17
-17
-18
-18
-20
-22
-24
-25
-27
-27
-28
-29
-30
-31
-30
-30
-30
-30
-31
-30
-29
-29
-28
-26
-26
-25
-24
-23
-22
-20
-20
-19
-19
-19
-19
-18
-17
-17
-16
-17
-16
-16
-15
-14
-13
-13
-13
-12
-11
-10
-9
-7
-6
-7
-5
-5
-4
-5
-4
-5
-6
-6
-6
-6
-6
-7
-8
-8
-10
-10
-12
-14
-16
-19
-20
-21
-22
-23
-25
-27
-29
-30
-32
-32
-33
-35
-36
-37
-36
-36
-35
-35
-36
-35
-34
-32
-31
-28
-26
-25
-23
-22
-20
-19
-18
-16
-16
-14
-13
-11
-11
-12
-13
-14
-15
-15
-16
-16
-16
-17
-18
-18
-18
-18
-19
-20
-19
-19
-18
-17
-16
-14
-13
-12
-10
-8
-5
-3
-1
-1
-1
0
-1
0
0
0
-1
-1
-2
-3
-4
-8
-10
-13
-15
-17
-18
-20
-22
-24
-26
-26
-26
-26
-26
-27
-26
-25
-24
-22
-20
-19
-19
-19
-18
-16
-15
-13
-14
-13
-13
-12
-12
-12
-11
-12
-12
-12
-12
-12
-12
-13
-13
-14
-13
-13
-12
-13
-14
-15
-16
-16
-17
-18
-18
-20
-20
-22
-22
-23
-25
-27
-29
-30
-32
-32
-32
-33
-32
-32
-32
-30
-29
-29
-29
-29
-30
-29
-28
-26
-24
-23
-23
-22
-21
-20
-20
-20
-20
-21
-22
-22
-23
-24
-24
-25
-26
-26
-25
-25
-25
-25
-25
-25
-25
-25
-24
-25
-25
-25
-25
-24
-24
-24
-24
-24
-25
-24
-25
-25
-26
-28
-28
-29
-29
-28
-29
-29
-30
-31
-32
-33
-34
-34
-34
-36
-36
-36
-37
-37
-36
-37
-38
-39
-38
-38
-37
-39
-38
-40
-41
-41
-42
-42
-45
-47
-50
-52
-55
-57
-60
-62
-67
-70
-75
-79
-82
-87
-92
-97
-102
-107
-111
-116
-120
-125
-129
-133
-136
-137
-139
-141
-142
-143
-144
-145
-144
-144
-143
-141
-138
-134
-128
-121
-116
-110
-104
-97
-91
-84
-76
-68
-62
-54
-46
-40
-34
-28
-23
-18
-13
-9
-5
0
3
6
9
12
14
16
16
17
18
18
19
20
21
20
19
17
15
14
12
10
8
5
3
-1
-2
-5
-8
-11
-13
-16
-18
-20
-21
-22
-23
-25
-26
-26
-26
-26
-26
-27
-27
-27
-26
-27
-27
-26
-26
-26
-25
-24
-24
-23
-23
-24
-24
-25
-25
-25
-25
-26
-28
-28
-28
-29
-30
-31
-33
-33
-34
-35
-36
-36
-37
-38
-38
-38
-37
-38
-39
-39
-41
-40
-40
-40
-40
-40
-41
-42
-42
-43
-43
-44
-46
-46
-47
-47
-47
-46
-47
-47
-47
-47
-47
-47
-46
-45
-45
-45
-44
-44
-42
-41
-41
-41
-41
-40
-40
-39
-40
-40
-41
-40
-40
-40
-39
-39
-39
-39
-39
-38
-37
-36
-35
-35
-33
-33
-30
-29
-28
-27
-27
-25
-24
-23
-22
-21
-21
-21
-22
-22
-22
-23
-24
-25
-26
-27
-27
-29
-29
-30
-31
-33
-34
-35
-37
-38
-39
-41
-41
-41
-43
-44
-46
-48
-50
-52
-52
-53
-54
-55
-57
-58
-58
-59
-60
-61
-63
-63
-65
-64
-64
-64
-65
-64
-64
-64
-64
-63
-63
-64
-63
-63
-62
-62
-61
-61
-61
-61
-61
-60
-60
-60
-61
-61
-63
-63
-65
-65
-67
-68
-70
-70
-69
-70
-70
-71
-72
-73
-73
-72
-71
-70
-70
-70
-68
-67
-66
-64
-64
-64
-64
-63
-63
-62
-62
-62
-62
-63
-63
-64
-64
-65
-67
-68
-69
-70
-72
-73
-73
-75
-76
-76
-76
-76
-76
-76
-77
-76
-76
-75
-75
-74
-74
-74
-73
-72
-71
-69
-68
-68
-67
-66
-65
-63
-62
-62
-62
-62
-62
-61
-59
-59
-59
-60
-59
-60
-59
-59
-59
-60
-61
-60
-60
-60
-60
-61
-62
-63
-64
-64
-64
-63
-63
-64
-64
-64
-63
-63
-63
-64
-65
-66
-66
-65
-64
-64
-63
-62
-61
-62
-62
-62
-63
-64
-64
-65
-65
-67
-67
-68
-69
-70
-70
-70
-71
-71
-72
-72
-72
-72
-70
-70
-69
-68
-67
-65
-63
-61
-60
-59
-59
-57
-56
-55
-54
-54
-53
-52
-52
-50
-51
-50
-51
-52
-53
-54
-54
-53
-54
-55
-55
-56
-57
-57
-58
-60
-62
-63
-65
-66
-67
-70
-72
-75
-77
-79
-80
-81
-82
-83
-84
-84
-85
-84
-84
-84
-85
-85
-84
-83
-81
-79
-79
-77
-76
-75
-73
-72
-71
-70
-69
-68
-66
-65
-65
-65
-66
-66
-66
-65
-65
-65
-66
-67
-68
-68
-70
-70
-71
-72
-73
-75
-75
-75
-77
-78
-78
-80
-81
-82
-83
-84
-85
-87
-87
-88
-88
-88
-89
-89
-90
-90
-90
-89
-89
-88
-88
-87
-86
-85
-83
-81
-80
-79
-77
-76
-75
-75
-75
-75
-75
-74
-73
-73
-73
-74
-75
-75
-76
-75
-76
-77
-78
-79
-81
-82
-81
-82
-82
-83
-84
-85
-85
-86
-87
-89
-90
-93
-95
-96
-97
-100
-102
-107
-112
-116
-121
-126
-131
-136
-142
-146
-151
-156
-160
-166
-172
-178
-184
-189
-194
-197
-200
-203
-206
-208
-207
-208
-209
-210
-210
-209
-206
-203
-199
-194
-189
-184
-178
-170
-163
-155
-147
-139
-131
-122
-113
-104
-95
-86
-78
-70
-62
-55
-48
-41
-36
-32
-27
-24
-20
-17
-17
-16
-15
-16
-17
-17
-19
-22
-25
-28
-30
-33
-37
-40
-44
-47
-51
-53
-55
-58
-59
-61
-63
-63
-63
-62
-61
-61
-60
-59
-59
-58
-57
-57
-56
-56
-56
-56
-56
-57
-58
-60
-62
-63
-64
-65
-67
-68
-71
-72
-72
-73
-73
-74
-75
-76
-77
-77
-77
-79
-80
-81
-82
-83
-83
-83
-85
-86
-88
-89
-90
-90
-91
-90
-92
-92
-91
-91
-90
-90
-90
-89
-89
-90
-88
-88
-87
-86
-86
-84
-84
-83
-82
-82
-83
-83
-83
-82
-83
-83
-82
-83
-83
-83
-82
-81
-82
-83
-83
-82
-81
-80
-79
-79
-78
-78
-79
-77
-77
-77
-77
-78
-78
-79
-79
-79
-81
-82
-84
-84
-85
-86
-87
-88
-90
-91
-93
-93
-94
-93
-94
-94
-95
-94
-94
-94
-93
-93
-94
-93
-93
-92
-92
-92
-92
-93
-91
-90
-90
-90
-90
-91
-93
-92
-92
-92
-92
-93
-93
-94
-93
-94
-95
-96
-98
-99
-101
-102
-102
-103
-104
-105
-105
-105
-106
-106
-106
-106
-106
-105
-104
-103
-103
-102
-102
-102
-102
-100
-99
-98
-97
-97
-97
-96
-97
-96
-96
-97
-97
-98
-99
-98
-99
-100
-101
-102
-103
-103
-104
-104
-105
-107
-108
-109
-108
-109
-110
-111
-112
-112
-112
-112
-113
-113
-114
-115
-114
-114
-115
-115
-114
-115
-114
-113
-113
-112
-111
-111
-111
-112
-111
-110
-109
-108
-108
-109
-108
-107
-107
-106
-106
-107
-107
-107
-106
-106
-105
-106
-106
-107
-107
-107
-107
-108
-109
-110
-111
-112
-112
-112
-114
-114
-114
-115
-114
-114
-114
-114
-114
-112
-110
-107
-104
-102
-99
-98
-96
-95
-94
-95
-95
-95
-96
-96
-96
-97
-99
-101
-104
-106
-109
-111
-113
-116
-118
-120
-120
-121
-120
-119
-119
-119
-117
-117
-115
-113
-112
-111
-110
-109
-109
-107
-106
-106
-105
-105
-105
-103
-103
-103
-104
-104
-105
-106
-106
-106
-105
-106
-107
-107
-107
-107
-107
-108
-109
-110
-109
-110
-109
-108
-108
-109
-109
-108
-108
-108
-107
-107
-107
-107
-106
-105
-105
-104
-104
-105
-104
-103
-103
-104
-105
-105
-105
-105
-104
-103
-103
-103
-103
-103
-103
-103
-103
-103
-104
-104
-105
-104
-104
-105
-105
-106
-107
-108
-109
-110
-111
-113
-115
-116
-116
-116
-117
-118
-118
-119
-119
-118
-118
-118
-118
-118
-117
-116
-115
-114
-112
-112
-110
-110
-109
-109
-109
-110
-112
-113
-114
-116
-116
-118
-119
-121
-124
-125
-127
-129
-131
-134
-136
-137
-138
-137
-138
-138
-139
-138
-137
-135
-132
-131
-130
-130
-130
-129
-127
-126
-125
-123
-122
-122
-120
-120
-120
-119
-121
-121
-121
-121
-121
-122
-122
-123
-123
-124
-123
-123
-122
-124
-124
-124
-125
-124
-123
-124
-124
-124
-125
-124
-123
-123
-123
-122
-122
-121
-119
-118
-117
-116
-115
-116
-114
-113
-112
-111
-112
-112
-111
-110
-110
-110
-111
-111
-112
-114
-114
-114
-116
-118
-119
-120
-121
-121
-121
-123
-124
-125
-127
-127
-128
-129
-130
-130
-130
-130
-129
-128
-128
-128
-128
-128
-127
-127
-128
-128
-129
-130
-131
-132
-132
-134
-137
-141
-143
-146
-149
-151
-154
-158
-161
-164
-168
-171
-175
-179
-184
-189
-193
-197
-201
-206
-212
-217
-222
-227
-232
-237
-240
-245
-250
-253
-255
-257
-257
-257
-257
-257
-256
-252
-249
-245
-240
-235
-231
-224
-217
-210
-202
-194
-185
-177
-168
-158
-150
-141
-134
-126
-118
-109
-102
-94
-87
-82
-76
-70
-64
-60
-56
-54
-52
-50
-49
-48
-47
-48
-50
-52
-54
-56
-59
-62
-67
-71
-76
-81
-85
-89
-93
-97
-101
-103
-106
-109
-111
-113
-115
-117
-118
-118
-119
-120
-120
-122
-122
-123
-122
-122
-121
-122
-122
-122
-121
-120
-119
-119
-118
-117
-117
-116
-115
-114
-114
-112
-112
-111
-109
-109
-109
-108
-108
-109
-109
-109
-109
-108
-108
-110
-109
-109
-109
-110
-111
-111
-111
-111
-110
-110
-111
-111
-111
-112
-110
-110
-109
-109
-110
-112
-112
-114
-114
-116
-118
-119
-120
-121
-122
-123
-124
-124
-126
-126
-127
-127
-127
-127
-127
-128
-126
-124
-123
-122
-121
-121
-121
-121
-121
-121
-121
-121
-121
-121
-121
-121
-121
-121
-121
-121
-122
-121
-121
-121
-122
-123
-123
-123
-122
-122
-123
-123
-124
-124
-125
-125
-125
-126
-127
-128
-127
-127
-126
-126
-126
-126
-127
-127
-127
-126
-125
-126
-125
-125
-126
-126
-126
-127
-128
-129
-130
-129
-128
-128
-128
-128
-127
-127
-125
-123
-122
-121
-121
-121
-119
-119
-117
-117
-117
-118
-117
-117
-118
-118
-120
-121
-123
-123
-125
-125
-126
-128
-129
-130
-129
-130
-129
-129
-130
-130
-129
-129
-128
-128
-129
-130
-130
-130
-130
-129
-130
-131
-131
-132
-131
-132
-132
-132
-133
-133
-133
-133
-133
-133
-133
-135
-135
-135
-134
-133
-133
-132
-131
-129
-128
-126
-125
-125
-124
-124
-123
-121
-120
-119
-119
-119
-119
-119
-119
-119
-119
-121
-121
-122
-122
-123
-123
-123
-124
-124
-123
-122
-121
-120
-120
-119
-119
-119
-118
-117
-116
-116
-117
-117
-117
-118
-119
-121
-124
-127
-130
-133
-135
-137
-140
-143
-146
-148
-150
-151
-153
-154
-155
-156
-155
-154
-153
-151
-150
-149
-146
-143
-140
-137
-135
-134
-132
-130
-128
-127
-124
-124
-123
-121
-120
-118
-118
-118
-119
-120
-122
-121
-122
-122
-123
-124
-126
-127
-128
-128
-130
-131
-132
-133
-133
-133
-134
-134
-135
-135
-134
-133
-132
-131
-130
-128
-127
-125
-124
-121
-120
-120
-119
-118
-117
-115
-114
-112
-112
-112
-111
-111
-111
-110
-112
-112
-112
-112
-111
-112
-112
-112
-113
-114
-114
-114
-113
-112
-113
-112
-113
-112
-112
-112
-113
-114
-115
-115
-116
-116
-117
-118
-119
-120
-119
-120
-120
-121
-123
-124
-125
-126
-127
-129
-130
-131
-131
-131
-132
-131
-132
-133
-133
-135
-134
-134
-134
-135
-136
-136
-136
-135
-135
-135
-136
-136
-136
-136
-135
-135
-134
-134
-135
-135
-134
-135
-134
-134
-135
-134
-133
-133
-132
-132
-132
-131
-132
-132
-133
-132
-132
-133
-133
-132
-132
-131
-131
-132
-133
-134
-134
-134
-133
-133
-132
-132
-131
-131
-130
-130
-129
-131
-131
-131
-130
-129
-129
-128
-129
-129
-129
-129
-130
-130
-132
-134
-135
-135
-134
-134
-134
-134
-134
-134
-134
-134
-133
-134
-133
-133
-134
-133
-134
-135
-137
-138
-140
-142
-144
-145
-147
-151
-155
-159
-162
-166
-172
-176
-182
-188
-193
-198
-203
-208
-213
-219
-224
-228
-233
-238
-242
-246
-248
-251
-253
-253
-254
-254
-252
-252
-249
-247
-245
-241
-238
-233
-228
-223
-217
-210
-204
-197
-191
-184
-177
-169
-162
-154
-148
-141
-133
-127
-118
-112
-105
-100
-94
-91
-86
-82
-78
-76
-74
-72
-69
-67
-66
-66
-67
-68
-68
-69
-70
-71
-74
-76
-78
-80
-82
-83
-86
-88
-91
-94
-96
-100
-103
-106
-109
-111
-113
-115
-117
-119
-122
-124
-126
-127
-129
-129
-130
-131
-132
-133
-133
-133
-134
-133
-133
-134
-133
-134
-134
-134
-135
-136
-137
-136
-137
-136
-135
-136
-136
-136
-136
-135
-133
-133
-133
-133
-133
-133
-133
-133
-134
-134
-135
-136
-137
-137
-138
-140
-140
-140
-141
-141
-142
-141
-141
-142
-141
-139
-137
-136
-135
-136
-135
-135
-134
-133
-133
-132
-132
-132
-132
-131
-131
-132
-133
-134
-134
-135
-134
-134
-135
-135
-135
-135
-135
-135
-135
-136
-137
-137
-137
-137
-137
-137
-139
-140
-141
-141
-142
-142
-143
-144
-144
-145
-144
-144
-144
-143
-142
-141
-141
-139
-139
-138
-139
-138
-137
-136
-135
-134
-134
-134
-135
-135
-136
-137
-138
-139
-141
-142
-143
-144
-146
-147
-149
-151
-152
-152
-153
-153
-153
-154
-155
-154
-154
-153
-152
-152
-151
-151
-149
-147
-146
-144
-144
-143
-142
-142
-140
-140
-139
-139
-138
-138
-138
-137
-137
-136
-137
-138
-138
-139
-140
-142
-143
-144
-146
-147
-148
-150
-152
-154
-156
-157
-158
-160
-161
-162
-163
-164
-164
-164
-163
-165
-165
-166
-164
-163
-162
-162
-162
-162
-162
-163
-162
-161
-161
-160
-160
-160
-158
-158
-157
-155
-154
-155
-153
-152
-152
-150
-150
-149
-149
-149
-149
-148
-149
-150
-152
-153
-154
-154
-155
-156
-157
-158
-160
-160
-161
-162
-163
-163
-162
-161
-160
-159
-159
-158
-157
-157
-155
-153
-152
-150
-149
-148
-146
-144
-143
-141
-140
-139
-139
-138
-137
-135
-135
-136
-136
-136
-137
-136
-136
-137
-137
-138
-139
-139
-140
-140
-140
-141
-142
-143
-143
-143
-143
-144
-145
-144
-143
-142
-141
-140
-141
-141
-141
-141
-141
-141
-140
-141
-141
-142
-141
-140
-140
-141
-140
-140
-141
-141
-141
-141
-143
-143
-143
-143
-142
-143
-144
-144
-145
-144
-144
-145
-144
-146
-146
-146
-146
-147
-147
-147
-148
-148
-148
-148
-149
-148
-149
-149
-149
-149
-148
-147
-148
-149
-149
-151
-150
-150
-149
-150
-151
-151
-152
-151
-152
-153
-154
-156
-157
-159
-159
-159
-161
-161
-163
-162
-163
-163
-162
-163
-163
-163
-162
-161
-160
-160
-159
-159
-159
-159
-157
-158
-157
-159
-161
-162
-162
-162
-163
-163
-165
-166
-166
-167
-167
-168
-169
-171
-172
-173
-174
-174
-174
-175
-175
-175
-175
-175
-174
-174
-174
-173
-172
-172
-170
-170
-171
-172
-172
-172
-170
-169
-169
-169
-168
-169
-169
-169
-169
-169
-169
-169
-169
-168
-168
-169
-170
-172
-173
-174
-174
-174
-174
-175
-177
-179
-180
-182
-184
-186
-190
-193
-197
-199
-203
-207
-212
-217
-222
-226
-230
-234
-240
-245
-250
-256
-259
-263
-267
-270
-275
-278
-280
-282
-283
-284
-284
-284
-284
-281
-279
-277
-275
-272
-269
-264
-259
-253
-247
-242
-236
-230
-224
-217
-208
-201
-194
-187
-180
-173
-166
-159
-153
-147
-141
-136
-130
-125
-120
-118
-115
-113
-112
-110
-109
-108
-110
-111
-112
-113
-114
-116
-119
-122
-125
-127
-129
-132
-134
-137
-140
-142
-144
-146
-148
-150
-152
-154
-156
-158
-159
-159
-161
-160
-161
-161
-160
-160
-160
-160
-160
-159
-159
-157
-156
-155
-154
-154
-153
-153
-151
-151
-151
-152
-152
-152
-153
-153
-154
-155
-156
-157
-158
-159
-160
-160
-162
-163
-165
-165
-166
-166
-166
-167
-168
-168
-169
-169
-170
-170
-171
-171
-170
-170
-170
-171
-171
-172
-172
-173
-172
-172
-171
-171
-171
-171
-170
-171
-171
-172
-172
-173
-172
-173
-172
-172
-171
-172
-172
-172
-171
-171
-170
-171
-171
-170
-169
-168
-167
-168
-167
-167
-167
-167
-167
-167
-168
-168
-169
-170
-170
-171
-171
-172
-171
-171
-172
-171
-171
-170
-171
-171
-171
-169
-168
-167
-165
-165
-162
-161
-158
-157
-156
-156
-156
-157
-158
-157
-157
-157
-157
-159
-159
-161
-162
-164
-167
-169
-171
-174
-175
-176
-177
-179
-181
-182
-181
-181
-180
-179
-179
-179
-178
-176
-175
-175
-176
-176
-176
-177
-175
-175
-174
-174
-174
-175
-176
-176
-178
-179
-181
-183
-184
-185
-185
-187
-188
-189
-189
-190
-191
-191
-191
-193
-193
-194
-194
-193
-193
-192
-192
-191
-190
-189
-186
-184
-183
-182
-182
-180
-180
-179
-180
-179
-179
-179
-179
-178
-178
-178
-179
-180
-181
-181
-182
-183
-184
-185
-186
-187
-186
-187
-187
-188
-188
-188
-189
-188
-188
-188
-188
-189
-189
-189
-188
-188
-189
-190
-189
-188
-188
-186
-185
-185
-183
-182
-181
-180
-179
-179
-178
-178
-177
-176
-175
-175
-175
-175
-176
-175
-176
-176
-178
-179
-180
-182
-182
-183
-183
-184
-184
-185
-185
-184
-185
-185
-185
-185
-185
-185
-185
-184
-184
-184
-184
-182
-182
-181
-180
-181
-181
-181
-182
-181
-181
-181
-181
-182
-182
-182
-182
-181
-181
-181
-181
-182
-182
-183
-184
-184
-184
-185
-184
-183
-182
-183
-183
-183
-184
-185
-184
-184
-183
-183
-183
-183
-181
-181
-179
-179
-179
-180
-179
-179
-178
-178
-178
-178
-177
-178
-177
-177
-178
-179
-180
-180
-181
-181
-182
-182
-184
-184
-186
-187
-188
-190
-191
-192
-194
-195
-195
-195
-195
-197
-197
-198
-198
-198
-198
-199
-199
-200
-200
-200
-200
-199
-200
-200
-200
-200
-200
-200
-200
-200
-201
-201
-200
-200
-200
-199
-201
-201
-201
-201
-201
-202
-202
-202
-203
-203
-203
-203
-202
-202
-203
-202
-201
-201
-199
-199
-198
-198
-197
-195
-193
-191
-190
-190
-189
-189
-188
-186
-185
-186
-186
-186
-185
-185
-185
-186
-186
-186
-185
-186
-185
-185
-186
-187
-190
-191
-193
-195
-197
-200
-202
-205
-207
-210
-213
-218
-222
-226
-230
-234
-238
-243
-247
-252
-256
-260
-263
-268
-271
-276
-280
-285
-289
-292
-295
-300
-304
-308
-312
-314
-317
-320
-323
-325
-327
-328
-328
-328
-326
-324
-322
-318
-314
-307
-301
-295
-288
-281
-272
-263
-254
-245
-236
-229
-220
-213
-205
-197
-190
-184
-178
-173
-167
-163
-159
-155
-153
-152
-150
-148
-146
-146
-145
-145
-144
-144
-144
-145
-147
-148
-149
-150
-151
-151
-152
-154
-156
-159
-161
-162
-165
-167
-170
-172
-175
-177
-178
-180
-181
-183
-185
-186
-187
-188
-188
-189
-191
-192
-192
-192
-191
-192
-192
-192
-192
-192
-192
-190
-190
-189
-190
-190
-188
-187
-186
-185
-186
-185
-186
-185
-184
-184
-183
-183
-182
-182
-181
-180
-180
-180
-180
-180
-178
-177
-176
-175
-175
-173
-173
-171
-170
-168
-168
-168
-169
-170
-170
-170
-171
-173
-173
-175
-175
-176
-177
-178
-180
-182
-184
-185
-186
-187
-188
-188
-189
-189
-188
-187
-186
-186
-186
-186
-185
-184
-182
-181
-181
-180
-179
-178
-177
-176
-176
-177
-176
-177
-177
-177
-177
-178
-178
-179
-179
-179
-180
-179
-181
-182
-182
-181
-181
-181
-180
-181
-181
-182
-182
-182
-183
-183
-184
-184
-184
-185
-186
-187
-189
-192
-193
-195
-196
-197
-199
-200
-201
-201
-202
-203
-203
-203
-203
-202
-201
-200
-198
-197
-195
-194
-192
-190
-189
-188
-186
-185
-185
-185
-185
-185
-185
-186
-188
-188
-189
-189
-190
-191
-193
-195
-196
-197
-197
-198
-198
-198
-198
-198
-198
-198
-198
-198
-198
-197
-196
-195
-194
-194
-193
-194
-194
-193
-193
-192
-192
-192
-191
-190
-190
-190
-189
-189
-189
-190
-189
-189
-188
-188
-189
-189
-190
-189
-189
-190
-190
-191
-192
-192
-193
-193
-194
-195
-195
-195
-195
-193
-192
-192
-191
-190
-189
-188
-187
-186
-186
-185
-183
-181
-180
-179
-179
-179
-179
-180
-179
-178
-177
-176
-176
-177
-176
-176
-176
-177
-177
-177
-177
-176
-174
-173
-173
-173
-173
-173
-172
-172
-172
-173
-174
-174
-174
-175
-176
-177
-177
-179
-179
-180
-179
-180
-179
-181
-181
-181
-182
-181
-181
-181
-180
-180
-179
-179
-178
-177
-177
-178
-178
-176
-176
-175
-174
-174
-173
-173
-172
-171
-171
-170
-171
-171
-170
-169
-168
-167
-168
-169
-169
-170
-169
-169
-169
-169
-168
-168
-167
-166
-165
-165
-164
-165
-164
-165
-164
-164
-164
-165
-166
-167
-167
-169
-170
-170
-172
-174
-175
-176
-178
-179
-181
-182
-183
-183
-183
-183
-183
-183
-183
-183
-182
-182
-182
-182
-183
-182
-182
-182
-181
-182
-182
-183
-184
-184
-184
-185
-186
-186
-187
-187
-186
-186
-185
-185
-184
-183
-182
-179
-177
-176
-175
-174
-174
-173
-172
-170
-169
-169
-168
-167
-167
-167
-167
-168
-170
-169
-170
-170
-170
-170
-170
-171
-172
-172
-172
-172
-173
-172
-173
-172
-173
-172
-174
-174
-175
-175
-174
-173
-172
-173
-174
-175
-175
-174
-174
-173
-172
-171
-169
-169
-168
-166
-165
-165
-164
-163
-163
-162
-162
-162
-162
-162
-162
-161
-162
-161
-163
-164
-166
-168
-169
-169
-170
-171
-172
-174
-174
-176
-176
-176
-178
-179
-178
-177
-177
-178
-178
-178
-178
-177
-178
-178
-178
-178
-178
-177
-175
-174
-173
-173
-172
-172
-172
-170
-169
-168
-167
-166
-166
-167
-166
-165
-166
-165
-165
-165
-164
-164
-164
-163
-165
-165
-166
-166
-166
-167
-167
-168
-168
-169
-169
-168
-169
-170
-171
-171
-171
-170
-170
-171
-171
-172
-171
-171
-170
-170
-170
-170
-170
-169
-167
-165
-163
-162
-162
-161
-161
-160
-160
-159
-159
-159
-158
-157
-157
-157
-159
-160
-161
-162
-163
-164
-164
-165
-166
-166
-167
-166
-166
-166
-167
-167
-167
-167
-166
-165
-165
-165
-164
-164
-163
-162
-162
-162
-163
-162
-162
-162
-162
-162
-162
-163
-162
-161
-160
-159
-158
-157
-156
-155
-153
-151
-152
-151
-151
-150
-150
-151
-150
-151
-153
-154
-155
-157
-157
-160
-162
-164
-166
-168
-169
-170
-171
-172
-172
-172
-172
-171
-170
-169
-167
-167
-164
-162
-161
-159
-159
-158
-158
-158
-158
-157
-157
-159
-160
-162
-163
-165
-166
-169
-171
-175
-179
-181
-185
-190
-194
-199
-204
-209
-213
-217
-223
-228
-234
-239
-245
-249
-254
-259
-264
-268
-273
-276
-279
-282
-285
-288
-290
-292
-293
-293
-292
-292
-291
-288
-285
-281
-277
-272
-267
-260
-254
-246
-237
-228
-220
-212
-204
-194
-184
-175
-165
-157
-147
-139
-130
-122
-115
-109
-103
-98
-95
-91
-87
-85
-84
-84
-83
-84
-85
-86
-88
-90
-93
-96
-98
-101
-103
-107
-110
-112
-115
-117
-119
-121
-123
-125
-127
-129
-130
-131
-132
-134
-135
-136
-137
-137
-137
-137
-138
-137
-137
-135
-134
-134
-134
-134
-134
-134
-134
-133
-133
-133
-134
-135
-135
-134
-136
-137
-139
-141
-143
-144
-145
-146
-147
-148
-150
-149
-149
-149
-148
-149
-149
-149
-148
-148
-147
-146
-146
-147
-146
-146
-145
-144
-145
-145
-146
-147
-147
-146
-146
-146
-145
-144
-143
-141
-139
-138
-137
-136
-136
-135
-135
-133
-134
-134
-133
-132
-133
-132
-133
-134
-135
-135
-136
-136
-136
-137
-137
-137
-139
-138
-138
-138
-138
-138
-138
-138
-138
-137
-138
-139
-139
-139
-139
-139
-139
-139
-140
-141
-141
-141
-140
-140
-140
-141
-141
-140
-139
-137
-137
-136
-136
-136
-136
-135
-135
-134
-134
-134
-133
-133
-133
-133
-134
-135
-136
-137
-137
-138
-138
-139
-140
-140
-140
-139
-139
-139
-139
-139
-138
-137
-135
-135
-134
-135
-134
-134
-133
-132
-131
-130
-130
-130
-129
-128
-128
-128
-130
-131
-132
-133
-132
-132
-133
-133
-132
-131
-131
-130
-130
-130
-131
-131
-132
-131
-131
-131
-132
-133
-133
-134
-133
-135
-135
-136
-137
-137
-138
-138
-138
-139
-140
-142
-141
-142
-141
-142
-143
-143
-143
-143
-143
-144
-144
-145
-146
-147
-147
-147
-147
-149
-149
-149
-150
-149
-148
-148
-147
-147
-146
-144
-143
-143
-142
-142
-141
-140
-139
-139
-139
-138
-139
-139
-139
-138
-138
-138
-138
-140
-140
-141
-140
-141
-142
-142
-143
-143
-143
-142
-143
-143
-143
-143
-141
-141
-140
-139
-139
-140
-139
-138
-136
-134
-133
-132
-130
-128
-127
-126
-126
-126
-125
-125
-124
-124
-123
-123
-124
-125
-126
-126
-127
-128
-130
-131
-132
-132
-132
-132
-132
-132
-133
-133
-132
-131
-131
-130
-131
-130
-130
-130
-129
-129
-129
-130
-130
-132
-131
-132
-132
-132
-132
-132
-132
-131
-130
-129
-128
-126
-125
-123
-122
-120
-119
-117
-117
-115
-114
-113
-112
-112
-112
-111
-111
-111
-112
-112
-112
-114
-113
-113
-114
-114
-115
-116
-117
-116
-117
-116
-116
-117
-117
-117
-118
-117
-116
-117
-117
-118
-119
-120
-121
-122
-123
-124
-124
-124
-124
-123
-123
-123
-123
-125
-125
-126
-126
-126
-127
-128
-128
-128
-127
-128
-128
-129
-129
-131
-130
-131
-131
-131
-132
-131
-131
-130
-129
-128
-126
-126
-125
-125
-123
-122
-121
-121
-121
-120
-119
-117
-117
-117
-117
-117
-118
-118
-119
-120
-120
-120
-120
-121
-121
-121
-123
-124
-125
-126
-124
-124
-123
-123
-124
-123
-121
-119
-119
-118
-117
-117
-116
-116
-114
-114
-113
-114
-114
-115
-114
-115
-117
-118
-121
-124
-127
-128
-131
-133
-136
-141
-143
-147
-151
-156
-161
-168
-174
-179
-185
-191
-196
-203
-208
-213
-217
-222
-226
-230
-234
-237
-239
-240
-241
-241
-241
-239
-238
-235
-231
-227
-222
-216
-211
-204
-196
-188
-181
-174
-166
-158
-150
-141
-132
-123
-115
-108
-100
-93
-85
-78
-72
-68
-63
-59
-55
-51
-47
-45
-44
-43
-42
-42
-42
-43
-45
-46
-48
-50
-52
-54
-56
-60
-63
-65
-69
-71
-74
-77
-81
-83
-86
-86
-87
-88
-89
-89
-90
-90
-90
-89
-88
-88
-87
-85
-83
-82
-80
-78
-77
-77
-75
-74
-73
-73
-72
-72
-72
-73
-73
-75
-77
-79
-81
-83
-84
-86
-87
-89
-91
-93
-95
-96
-97
-99
-100
-102
-102
-102
-102
-101
-99
-98
-97
-95
-93
-90
-89
-87
-85
-84
-82
-79
-77
-76
-75
-75
-75
-74
-74
-73
-73
-73
-74
-75
-75
-75
-75
-76
-77
-77
-78
-78
-78
-78
-79
-80
-81
-81
-81
-80
-80
-80
-82
-81
-81
-81
-81
-81
-82
-82
-84
-83
-83
-83
-83
-84
-84
-83
-83
-83
-83
-82
-83
-82
-81
-80
-79
-77
-77
-76
-75
-75
-74
-74
-74
-74
-73
-74
-73
-73
-74
-74
-75
-75
-74
-74
-74
-75
-76
-77
-75
-74
-73
-72
-71
-70
-70
-68
-68
-67
-67
-67
-67
-68
-67
-66
-66
-67
-68
-70
-71
-72
-72
-73
-75
-76
-76
-77
-77
-76
-76
-76
-76
-78
-77
-78
-79
-79
-78
-78
-78
-77
-77
-77
-78
-79
-82
-82
-84
-84
-85
-87
-89
-90
-90
-89
-89
-89
-90
-90
-89
-89
-87
-87
-86
-85
-85
-83
-82
-80
-78
-77
-77
-75
-74
-73
-72
-73
-73
-73
-72
-71
-71
-70
-71
-71
-72
-72
-72
-71
-71
-71
-71
-70
-68
-66
-65
-64
-63
-62
-61
-61
-60
-60
-59
-60
-60
-60
-59
-60
-60
-61
-62
-64
-64
-65
-65
-66
-67
-68
-68
-68
-67
-67
-67
-67
-66
-66
-64
-63
-62
-62
-61
-59
-56
-54
-52
-52
-52
-54
-55
-55
-55
-54
-54
-55
-54
-55
-55
-55
-57
-59
-60
-61
-61
-62
-62
-63
-63
-63
-62
-61
-60
-58
-58
-58
-59
-59
-59
-58
-57
-56
-56
-55
-55
-53
-53
-52
-52
-52
-52
-51
-50
-50
-49
-48
-47
-46
-45
-43
-42
-42
-43
-42
-41
-41
-40
-39
-38
-38
-37
-36
-35
-35
-35
-36
-34
-34
-32
-31
-29
-29
-28
-27
-26
-25
-25
-25
-25
-27
-27
-27
-28
-29
-31
-32
-34
-37
-39
-41
-43
-46
-48
-50
-51
-53
-54
-55
-56
-57
-57
-56
-57
-56
-55
-54
-54
-53
-52
-52
-50
-50
-49
-47
-46
-44
-42
-41
-40
-39
-38
-36
-35
-34
-33
-32
-32
-30
-30
-29
-29
-29
-30
-30
-30
-30
-30
-30
-32
-32
-33
-33
-34
-36
-37
-39
-40
-42
-42
-43
-44
-45
-46
-47
-48
-47
-47
-48
-48
-48
-48
-48
-47
-47
-48
-47
-47
-46
-45
-43
-43
-42
-42
-42
-40
-40
-39
-39
-39
-40
-41
-42
-43
-45
-47
-50
-53
-56
-60
-64
-69
-75
-81
-86
-92
-97
-103
-108
-115
-121
-126
-130
-136
-140
-144
-147
-151
-152
-153
-153
-155
-155
-155
-153
-151
-147
-143
-139
-134
-129
-124
-117
-111
-103
-97
-90
-83
-74
-66
-57
-50
-43
-36
-28
-21
-14
-7
-2
3
8
12
18
23
27
30
33
35
36
37
38
38
38
37
37
37
35
35
33
31
28
26
24
22
20
18
15
12
10
8
8
6
5
2
1
1
-1
-1
-2
-2
-3
-3
-3
-3
-3
-4
-4
-5
-5
-4
-4
-4
-3
-2
-2
-1
0
0
0
0
-1
-2
-2
-2
-2
-3
-4
-4
-5
-5
-6
-6
-6
-7
-6
-6
-6
-6
-7
-7
-7
-8
-7
-7
-6
-6
-5
-6
-6
-7
-6
-6
-7
-7
-7
-6
-6
-6
-4
-4
-4
-3
-1
1
2
2
3
2
2
3
3
3
3
1
2
1
1
1
0
0
-1
-1
-1
0
1
1
2
3
4
5
7
8
8
7
8
8
8
9
8
8
7
7
7
7
8
8
7
6
6
7
8
10
11
12
13
14
16
17
17
17
17
17
18
17
17
16
15
15
13
12
10
9
7
5
3
3
2
2
3
3
3
3
4
4
4
4
3
3
3
5
6
7
7
7
7
9
9
11
12
12
12
13
13
14
14
14
13
14
15
15
17
17
16
14
13
12
11
9
8
6
4
3
2
2
0
-2
-4
-5
-6
-7
-8
-8
-9
-9
-9
-9
-8
-7
-7
-6
-6
-4
-3
-2
0
1
2
3
4
4
5
6
6
6
5
5
5
5
4
3
2
0
-1
-2
-3
-5
-6
-8
-8
-9
-10
-10
-11
-12
-12
-11
-10
-10
-9
-9
-9
-7
-5
-4
-2
-1
0
0
2
4
5
7
7
9
10
12
13
14
15
15
16
17
18
20
21
22
22
21
21
21
20
20
19
18
17
17
17
15
14
12
10
9
8
8
8
8
7
8
7
8
8
8
9
9
10
12
14
16
17
18
19
21
23
25
26
27
28
29
30
32
32
34
34
35
35
36
36
36
36
35
33
33
33
33
32
32
30
28
28
27
27
26
25
25
24
24
24
24
24
23
22
22
21
22
21
21
20
19
19
20
20
20
20
20
21
21
23
24
24
24
23
24
24
24
25
24
24
22
22
21
21
19
18
16
14
14
13
12
10
9
7
7
7
7
7
7
7
7
8
10
12
13
15
16
18
20
21
23
23
24
24
26
26
28
29
29
29
28
26
26
25
24
22
21
21
21
22
22
21
19
18
17
16
15
14
14
14
14
14
14
15
14
13
12
12
11
12
12
11
11
11
11
12
14
14
14
14
14
15
15
16
17
17
17
18
18
20
21
22
23
23
25
27
28
29
30
29
29
29
29
28
27
27
25
25
24
23
22
19
17
15
14
13
12
11
10
10
10
10
12
13
14
15
16
17
19
21
22
22
22
23
24
26
27
28
27
27
26
25
25
25
24
23
21
20
18
16
15
13
8
5
2
-1
-5
-8
-13
-19
-25
-30
-36
-41
-47
-53
-59
-64
-69
-74
-79
-84
-89
-93
-97
-99
-101
-103
-104
-104
-103
-100
-97
-95
-92
-88
-84
-78
-72
-65
-59
-52
-44
-37
-28
-20
-12
-3
5
12
20
27
35
42
49
55
60
67
72
76
80
82
85
86
88
89
91
91
91
90
89
88
86
84
84
80
77
74
71
68
65
62
60
58
56
54
53
51
49
46
44
41
39
38
36
35
34
33
33
33
33
33
34
33
33
34
34
34
34
35
35
36
36
38
40
39
40
41
42
43
43
44
44
44
44
46
47
48
48
48
49
49
51
51
52
52
52
52
53
53
53
51
50
50
50
50
50
50
49
49
48
47
46
45
44
43
41
41
41
41
40
40
39
38
39
39
41
42
42
42
41
41
41
42
42
42
43
44
46
46
46
47
45
45
44
43
43
42
42
42
41
41
42
42
41
40
39
39
41
41
43
43
42
42
41
41
41
41
41
41
41
41
42
42
42
41
40
38
38
38
37
37
36
36
37
37
38
39
39
39
40
41
43
45
46
46
46
46
47
48
47
48
47
47
46
45
45
45
44
43
42
43
43
44
44
43
41
41
41
42
43
44
44
44
44
44
44
43
41
40
38
36
34
34
33
31
30
29
30
30
31
32
32
33
33
35
36
38
39
41
42
42
44
45
46
47
47
47
47
47
47
45
44
43
42
41
40
38
36
35
34
33
32
31
31
31
30
32
33
34
34
36
36
36
36
38
39
41
42
43
45
46
47
48
47
46
45
45
44
45
45
45
44
44
44
43
42
42
41
40
39
39
39
40
40
39
39
39
40
40
41
41
42
42
42
44
44
44
44
43
42
42
43
43
44
44
44
43
43
43
43
43
42
42
43
43
44
45
46
48
48
48
48
49
49
49
48
48
48
48
48
48
47
46
45
44
44
43
42
41
40
39
38
39
38
39
38
38
38
39
39
38
38
39
39
40
41
43
44
44
44
44
46
47
48
49
51
52
54
54
54
54
52
51
50
50
49
49
48
47
46
45
46
45
45
45
45
46
47
48
49
50
50
51
52
53
55
54
55
54
54
54
54
52
51
49
47
45
45
43
42
40
38
36
34
33
32
31
30
29
28
28
28
28
27
27
27
28
29
29
30
30
30
30
31
31
31
32
32
32
32
32
33
33
33
34
33
34
35
36
37
37
38
38
39
40
42
42
42
42
42
42
42
43
41
40
39
38
37
37
37
35
34
33
32
31
31
29
29
28
27
27
27
29
30
30
31
32
33
34
35
36
35
36
37
40
42
43
43
43
44
44
44
45
45
45
45
45
45
46
46
46
45
45
45
45
46
44
44
43
43
42
42
42
42
41
41
42
43
43
44
45
45
46
47
48
49
49
49
49
48
48
48
48
47
46
46
43
43
41
39
36
34
31
28
26
24
22
19
16
14
11
9
7
5
1
-3
-7
-12
-16
-20
-26
-30
-36
-41
-46
-50
-55
-61
-65
-70
-74
-77
-79
-83
-85
-87
-87
-88
-86
-84
-82
-79
-75
-71
-66
-59
-52
-45
-38
-30
-22
-13
-3
5
13
21
31
40
49
58
66
72
78
84
90
95
99
103
106
108
111
112
112
112
112
111
110
110
108
106
103
99
97
93
90
87
83
80
76
74
71
68
66
64
62
59
57
56
56
54
53
52
51
51
50
50
49
49
47
46
46
45
45
45
44
44
44
45
45
46
47
46
47
47
49
50
52
53
54
55
57
58
59
60
60
60
60
59
59
58
58
57
56
55
54
54
53
52
50
50
50
51
52
53
53
54
54
54
54
55
54
54
55
54
55
54
53
52
50
48
47
45
45
43
42
41
41
41
40
41
40
40
41
42
43
45
46
47
47
47
49
50
50
50
50
50
49
50
51
51
51
50
50
51
51
51
52
52
52
52
53
54
55
56
56
56
55
56
56
57
57
57
57
58
58
59
60
60
60
59
60
60
61
61
61
61
61
62
62
63
62
61
61
61
62
62
62
62
61
61
61
61
61
62
62
62
63
64
65
65
65
65
64
64
64
64
65
65
63
62
60
59
57
55
54
52
51
50
49
48
47
46
44
43
42
41
41
39
39
38
38
38
39
39
38
38
38
39
39
40
40
40
40
41
42
44
45
45
45
46
47
47
49
50
51
50
50
50
50
50
50
49
49
49
49
49
47
45
44
42
41
40
40
39
38
37
37
38
39
40
42
42
42
43
44
44
45
45
46
46
47
49
50
50
50
49
49
49
50
50
49
48
48
48
49
50
51
50
51
51
52
53
53
54
53
53
53
54
54
55
55
54
55
56
56
58
59
59
58
58
59
61
61
62
62
63
63
63
63
61
60
59
58
57
57
56
55
54
53
51
51
51
51
50
50
50
51
53
55
58
59
60
60
60
61
61
62
62
62
61
61
61
60
60
58
57
56
55
55
55
55
54
54
54
56
57
58
59
61
62
62
64
65
66
66
66
66
66
67
66
67
66
65
64
64
64
62
61
59
57
56
53
52
51
48
47
46
44
44
43
42
41
39
39
39
40
40
40
39
39
40
40
42
42
42
42
42
43
43
44
44
44
44
44
44
45
46
45
45
45
45
46
46
47
47
47
48
49
50
51
51
51
51
52
52
54
55
54
54
54
54
53
53
52
51
51
50
50
50
50
50
49
48
46
46
47
46
45
45
45
45
45
46
46
46
45
45
46
47
47
47
47
47
46
46
47
47
46
47
46
46
46
47
48
47
48
48
50
51
51
51
51
51
51
51
50
50
49
47
45
43
41
39
37
33
29
24
21
17
13
8
4
-1
-6
-11
-14
-20
-24
-29
-33
-37
-40
-44
-47
-50
-53
-56
-58
-59
-60
-59
-60
-59
-59
-56
-53
-52
-49
-45
-42
-37
-31
-25
-19
-13
-7
-1
5
12
20
27
33
39
46
54
60
67
72
77
83
87
92
96
101
104
106
109
113
115
117
118
117
118
118
118
117
117
115
113
112
109
107
104
101
99
96
94
92
90
88
85
83
81
80
79
78
77
77
76
75
74
75
75
76
76
76
77
78
79
80
81
81
80
81
82
82
81
80
78
77
76
76
76
74
72
71
69
67
66
64
64
62
61
61
61
62
62
62
63
63
64
65
67
69
70
70
70
71
73
73
73
73
73
73
73
74
72
72
71
71
71
71
72
71
72
72
71
72
72
72
72
73
73
74
74
75
75
74
74
74
74
73
73
73
70
69
68
68
69
69
68
68
68
69
69
69
69
69
70
70
70
70
71
71
71
71
70
72
72
73
74
74
74
76
76
78
79
78
78
77
77
78
78
78
78
77
76
76
76
76
75
75
73
72
70
70
68
68
67
66
65
66
66
66
65
65
66
66
68
67
68
69
69
68
69
69
69
69
68
68
68
70
70
69
68
67
65
65
64
63
61
60
59
57
57
56
56
55
54
53
53
53
53
53
54
54
56
56
57
57
57
57
57
57
59
59
60
60
61
61
62
61
62
62
60
59
59
60
60
61
60
60
59
59
60
61
61
61
60
60
60
60
61
61
61
61
62
62
63
64
64
63
63
64
64
65
65
64
65
65
65
66
67
67
66
66
67
67
67
67
66
66
66
65
65
66
66
65
64
63
62
61
61
60
59
59
57
57
57
57
57
56
56
56
56
56
57
57
57
57
58
58
59
59
59
58
58
58
59
59
60
59
59
60
60
60
61
60
61
61
61
63
64
65
65
66
67
67
69
69
69
69
68
69
70
71
72
71
72
72
73
73
75
75
75
74
74
75
74
74
73
72
71
71
71
70
69
68
67
66
66
66
65
64
63
61
60
60
60
60
61
60
59
59
58
57
56
55
54
53
52
52
52
52
50
50
49
50
50
50
51
51
51
53
54
55
56
58
59
59
60
61
63
64
64
64
65
66
67
67
67
66
65
65
65
65
64
63
61
59
58
56
54
52
52
51
50
49
48
47
46
45
44
44
44
45
45
45
46
47
48
50
52
54
54
56
56
58
58
59
59
60
59
60
60
60
60
59
58
56
56
55
55
54
53
52
51
52
52
53
53
52
52
53
53
54
55
56
57
58
59
61
61
61
61
60
60
60
61
61
61
60
59
58
58
57
56
54
53
52
52
51
51
51
50
51
51
51
52
54
55
56
57
59
61
63
64
65
66
66
65
66
65
65
64
63
61
61
59
58
56
55
52
51
50
48
47
46
45
45
44
44
44
44
44
45
45
47
48
48
48
48
47
47
47
46
46
45
44
43
41
40
37
33
29
25
22
17
13
9
4
-2
-8
-14
-20
-25
-32
-38
-45
-50
-56
-61
-66
-70
-73
-77
-79
-79
-79
-80
-79
-78
-77
-74
-70
-66
-61
-55
-48
-41
-32
-23
-12
-3
8
18
26
36
45
53
61
68
76
83
90
97
101
104
107
110
111
113
115
114
114
114
114
116
116
116
115
113
111
109
108
107
104
103
100
97
95
92
88
85
82
78
75
73
70
68
65
63
60
59
58
58
57
57
57
56
55
56
57
58
57
58
59
61
63
64
65
65
66
65
67
67
67
68
68
68
69
69
69
68
67
65
64
64
63
62
62
60
60
59
58
57
56
54
53
52
51
51
50
51
50
49
48
49
49
48
49
48
47
49
49
50
50
50
49
50
49
50
50
52
52
52
53
53
53
53
53
53
53
54
55
56
57
57
57
57
56
56
56
56
54
54
53
52
52
51
51
49
47
46
46
46
46
45
44
44
45
44
46
47
49
50
52
53
54
55
55
54
54
54
55
55
55
54
53
52
51
50
48
46
44
42
40
40
40
40
39
39
38
39
40
42
43
44
44
45
47
47
48
49
49
51
50
51
50
50
49
47
46
46
45
45
44
43
42
42
42
42
41
40
39
38
38
38
39
40
40
40
40
40
41
40
40
39
39
39
38
38
39
39
39
38
38
39
39
40
40
41
41
40
41
41
41
40
40
40
41
41
42
42
42
42
43
43
43
44
43
43
43
43
43
43
42
40
39
38
37
36
35
34
31
30
28
28
28
27
26
24
24
23
22
22
22
22
24
24
24
26
27
28
29
30
32
33
34
37
38
39
40
41
42
44
45
45
46
47
48
48
49
48
48
47
46
45
45
44
43
43
42
43
43
44
43
44
44
44
44
45
44
44
45
45
45
45
46
46
47
47
47
46
46
45
45
44
45
45
45
46
47
47
47
48
49
50
51
52
51
50
50
50
50
50
49
48
47
45
44
44
43
42
41
41
40
40
41
41
41
40
40
41
42
43
44
43
44
45
45
45
46
46
45
44
44
43
43
42
41
40
40
39
40
40
40
40
40
40
41
41
42
42
42
42
43
44
46
48
48
49
50
50
51
50
50
49
47
46
45
45
44
43
41
40
38
37
36
35
33
32
30
30
31
31
32
32
32
32
33
33
33
35
35
35
37
38
38
38
38
38
37
37
38
38
37
37
36
36
37
37
39
39
39
38
38
38
39
38
39
38
37
37
38
39
39
39
39
40
40
39
39
38
38
37
37
38
39
40
39
39
39
39
40
39
39
37
38
36
36
35
34
33
31
30
29
28
27
26
25
24
23
23
23
22
23
22
22
23
23
25
26
26
27
27
27
28
30
31
32
32
32
33
35
36
38
38
37
37
38
39
38
38
38
37
38
38
38
38
38
37
37
37
36
36
37
37
37
38
37
38
38
38
39
39
40
40
41
42
42
42
41
41
41
41
41
40
39
38
38
38
39
39
39
38
39
39
39
39
38
38
37
37
38
38
38
38
38
37
37
37
35
32
29
27
26
24
21
18
15
11
6
2
-3
-7
-12
-17
-24
-28
-34
-39
-44
-48
-54
-60
-65
-69
-74
-78
-82
-86
-88
-91
-92
-93
-93
-93
-93
-91
-90
-88
-84
-80
-75
-70
-63
-56
-49
-41
-34
-26
-18
-9
0
10
18
26
34
41
48
54
60
65
69
73
77
81
84
87
88
89
90
91
91
90
90
88
86
85
83
81
79
77
74
72
70
68
67
64
62
59
56
53
52
50
48
46
45
43
43
43
43
43
42
41
40
40
40
40
40
39
38
38
38
38
36
35
34
33
33
32
32
30
29
29
29
28
29
29
29
29
30
30
31
32
32
32
32
31
32
33
34
33
32
31
30
30
30
30
29
28
28
28
27
28
28
28
27
27
28
29
29
31
30
31
31
32
34
34
34
34
34
34
35
35
35
35
34
35
36
37
38
39
39
40
40
40
41
41
40
40
39
40
39
40
40
39
37
35
34
33
32
30
28
25
25
24
24
24
24
24
23
24
25
25
24
25
25
27
27
29
30
30
30
30
30
30
30
31
29
28
27
26
26
26
25
23
23
23
22
23
23
24
24
24
25
26
28
29
30
31
32
32
33
33
33
32
31
30
30
30
28
27
25
23
22
22
21
20
20
19
20
19
20
21
20
20
20
20
19
21
21
21
21
21
21
22
22
21
21
19
19
19
19
19
19
19
19
19
19
20
20
21
21
20
22
23
25
26
25
24
23
22
22
21
21
19
17
16
15
13
11
9
7
4
2
1
0
-1
-2
-3
-3
-2
-2
-1
-1
-1
-1
0
1
2
3
3
4
5
7
8
9
11
12
12
12
13
15
16
17
17
18
19
19
19
19
18
17
16
15
16
15
15
13
11
10
10
10
10
10
11
11
12
14
15
17
18
18
19
20
22
23
25
26
27
26
27
27
26
27
25
24
23
23
24
24
23
22
21
21
21
21
21
21
21
21
22
23
24
23
22
21
20
19
19
19
18
17
16
15
15
14
13
12
11
10
9
10
10
9
9
8
9
9
10
11
12
12
12
14
14
15
15
16
16
17
17
18
19
20
19
19
17
17
17
17
16
16
15
14
14
13
12
10
9
8
7
7
7
7
6
4
3
3
3
3
3
2
3
3
4
5
6
6
6
7
8
9
10
11
11
11
11
11
10
10
9
7
6
6
5
5
4
2
0
-2
-2
-3
-4
-5
-5
-5
-5
-4
-3
-2
-1
1
3
5
7
10
12
13
13
14
15
17
18
19
19
18
18
18
17
17
16
15
15
15
16
17
16
16
14
13
13
14
14
14
14
14
13
14
14
14
12
11
10
7
6
4
3
1
-1
-3
-3
-3
-4
-5
-5
-6
-8
-7
-7
-7
-6
-6
-5
-3
-2
-1
1
2
3
5
6
8
10
11
12
12
13
13
14
15
15
14
14
14
13
14
14
13
13
11
10
10
10
9
8
8
8
7
7
6
6
6
6
5
7
7
7
7
6
6
6
6
6
6
5
5
5
5
5
6
6
5
5
6
7
6
7
6
6
6
6
7
8
8
9
10
10
10
11
11
10
10
10
10
10
10
10
8
6
5
3
2
-1
-2
-5
-7
-10
-13
-16
-19
-23
-28
-34
-39
-44
-49
-55
-61
-67
-73
-78
-82
-88
-93
-99
-104
-109
-114
-117
-119
-122
