# Simple Text Format
# Sampling Rate (Hz):= 1200.00
# Resolution:= 12
# Labels:= ECG	 V3
# Age:=	80
# Gender:=	Feminino
109
110
110
111
112
112
112
112
113
113
114
115
115
115
116
116
117
118
118
118
119
119
120
121
122
121
120
120
120
120
121
121
121
120
121
121
122
122
122
122
122
122
122
123
124
124
125
125
126
126
127
127
127
127
127
128
127
128
128
127
127
127
126
127
126
126
126
125
125
125
125
126
125
126
125
125
126
127
127
127
128
128
128
130
130
131
132
131
132
134
134
135
136
136
136
136
137
137
138
138
137
138
138
138
138
138
137
138
137
137
138
138
138
138
138
140
140
141
142
143
144
144
147
149
150
152
154
155
156
158
160
162
163
163
164
165
166
167
168
168
169
169
170
170
170
170
170
169
169
169
170
169
169
169
168
168
168
168
167
167
167
167
167
167
166
165
165
165
165
165
166
165
165
165
165
165
164
165
165
165
165
165
164
164
164
163
162
161
161
160
159
158
158
157
155
156
155
156
156
155
156
156
157
159
159
160
160
161
163
163
165
167
166
166
167
167
167
167
167
167
166
166
165
165
164
163
162
160
160
160
159
158
157
156
155
154
154
154
152
152
151
150
149
150
149
148
147
147
146
146
146
146
145
145
145
145
145
145
144
144
144
144
144
144
144
143
143
143
141
142
142
141
140
140
139
139
139
138
137
137
136
135
135
134
134
134
132
131
131
129
129
128
127
125
124
124
123
122
122
121
120
120
120
120
121
120
120
120
120
121
122
121
122
123
124
125
127
127
128
129
128
129
129
130
130
130
130
130
130
130
131
131
130
130
130
129
129
129
130
131
131
131
132
132
134
134
135
135
136
137
138
138
139
139
139
140
142
142
142
141
142
141
141
141
142
141
141
140
140
140
140
139
139
139
138
137
137
138
138
138
138
138
138
139
139
139
140
141
141
141
142
142
141
142
142
142
142
143
143
144
143
144
144
144
145
145
145
146
147
148
149
150
151
151
152
153
154
155
156
157
156
157
158
158
159
158
158
157
157
157
156
156
154
154
153
152
152
151
151
151
150
150
150
150
149
149
147
147
147
148
148
148
148
148
148
149
149
149
149
149
149
149
148
149
149
148
147
146
144
144
144
143
142
142
142
141
142
143
142
144
144
145
147
150
154
157
161
166
171
177
184
191
198
205
212
218
226
232
239
245
250
255
259
263
266
265
266
265
263
260
256
249
241
233
223
211
198
185
170
156
139
121
102
84
65
46
26
7
-11
-28
-45
-61
-75
-88
-100
-110
-117
-123
-127
-130
-132
-131
-128
-124
-118
-112
-104
-97
-88
-77
-68
-57
-48
-38
-28
-19
-9
0
9
18
25
33
40
47
53
59
64
69
74
79
84
89
93
96
100
103
106
109
111
113
115
118
120
122
124
126
126
128
129
129
131
130
131
130
130
130
129
129
129
128
128
127
126
126
126
125
124
124
123
123
122
122
122
121
120
120
120
121
121
120
121
121
120
121
121
122
121
122
121
122
122
122
122
122
122
122
123
124
125
125
126
125
127
128
129
129
129
129
130
130
130
132
132
132
132
132
132
132
133
131
131
131
132
131
132
132
133
133
133
134
135
136
136
137
137
139
140
141
141
142
142
143
143
145
145
146
145
146
146
147
147
146
146
147
147
146
147
147
147
147
147
147
148
148
150
150
150
150
150
152
153
153
153
154
154
154
156
155
156
155
156
156
156
157
158
158
158
158
159
160
160
160
161
162
162
162
163
164
164
165
165
166
165
167
168
167
167
167
166
166
167
166
167
166
166
166
166
167
167
166
166
167
166
167
167
167
166
165
165
165
164
164
163
162
161
160
160
159
158
157
155
154
154
153
152
152
150
149
148
148
146
147
145
144
143
142
141
141
140
139
138
137
136
135
134
134
133
132
130
130
129
128
127
126
125
125
124
125
125
124
124
123
124
124
124
124
124
123
123
123
122
123
122
121
121
120
119
119
118
118
116
115
115
115
114
113
113
112
112
111
111
110
109
109
109
107
108
107
107
106
105
105
104
104
104
103
103
102
101
101
100
100
100
99
98
98
97
98
97
96
95
95
94
95
96
96
95
94
93
94
93
93
92
92
91
92
92
93
93
93
93
94
94
95
96
97
96
97
98
99
100
101
102
103
103
104
105
105
105
105
105
106
106
106
106
105
105
104
103
103
104
104
103
103
103
103
104
103
104
104
103
103
103
104
104
104
104
104
103
103
103
103
102
101
101
101
101
101
101
100
101
100
100
101
101
101
102
101
101
103
104
105
105
105
105
106
107
107
107
107
107
108
108
108
108
108
107
106
106
106
104
104
103
102
102
101
101
101
101
100
100
100
100
100
100
100
99
99
100
101
101
101
102
101
101
101
102
101
102
102
102
103
103
104
104
104
104
104
104
105
105
105
105
104
104
103
103
102
102
101
100
100
100
99
99
98
97
96
95
95
95
94
93
92
92
92
92
92
92
91
91
90
90
91
91
91
91
91
91
92
92
93
93
94
94
95
96
98
99
100
102
104
108
111
116
120
125
130
136
143
151
157
165
172
180
188
195
202
207
212
216
220
221
223
223
221
218
213
208
200
192
181
170
157
143
128
112
96
78
59
40
20
1
-18
-37
-56
-74
-92
-108
-123
-137
-148
-159
-168
-175
-181
-184
-185
-185
-183
-180
-176
-170
-162
-154
-146
-136
-126
-116
-105
-94
-83
-73
-63
-54
-44
-35
-25
-17
-8
0
7
14
21
27
32
37
42
47
51
55
59
62
64
66
68
69
72
73
74
74
75
76
76
77
78
78
78
79
79
80
81
81
81
81
83
83
85
86
87
87
88
88
90
90
90
89
90
89
90
90
89
90
89
88
86
86
86
85
84
84
83
83
83
83
82
82
81
81
81
81
81
81
82
82
81
81
81
82
81
80
79
80
79
78
78
78
77
76
76
76
76
75
75
74
75
74
74
73
74
73
73
73
74
74
74
74
73
73
73
73
73
73
73
73
73
75
75
75
75
75
76
77
78
79
81
82
82
84
85
87
87
88
88
89
89
89
91
91
91
91
92
92
92
93
93
93
93
93
93
94
95
96
96
96
96
97
98
99
98
99
99
100
100
101
101
101
100
101
101
102
101
101
102
102
102
102
103
103
103
103
103
104
104
104
104
104
104
104
104
104
104
104
103
102
102
102
102
102
102
101
101
101
100
100
99
99
98
97
97
96
95
94
93
91
91
90
89
89
87
86
86
85
86
85
85
84
84
84
85
84
85
85
84
85
85
85
85
85
85
84
84
84
84
84
83
82
81
79
78
77
76
74
73
72
70
70
69
68
67
66
64
63
62
62
61
61
60
61
61
61
61
61
60
60
60
60
60
59
59
58
57
58
58
56
56
54
53
52
52
51
50
48
47
46
45
44
44
43
42
41
41
40
40
40
40
40
40
39
40
40
41
41
40
40
40
40
40
40
40
39
38
37
37
36
35
34
32
32
32
31
31
30
31
29
29
30
30
31
31
32
33
35
36
37
38
39
40
41
42
43
45
45
45
45
46
46
46
47
46
46
46
46
47
47
46
45
45
44
44
44
44
43
43
43
42
42
42
42
41
41
41
41
42
42
42
41
41
41
42
43
42
43
43
43
44
44
44
44
45
45
45
45
47
47
48
48
47
48
47
49
48
49
49
49
49
49
50
50
50
50
50
50
50
50
50
49
49
49
49
48
48
47
46
45
45
45
44
43
42
41
40
40
41
40
40
40
39
39
39
39
39
39
39
40
40
40
41
42
42
42
42
43
42
43
43
42
41
41
40
40
41
40
40
39
39
38
38
38
37
36
36
35
36
36
36
35
35
35
36
36
37
36
35
36
35
36
36
36
37
37
37
38
38
39
39
39
39
40
40
41
41
41
40
41
41
41
41
42
42
44
46
48
52
56
60
64
69
74
81
89
95
103
110
117
125
131
138
144
149
152
155
158
159
160
158
155
150
145
137
129
119
108
95
80
65
49
31
14
-6
-25
-45
-64
-83
-103
-122
-141
-159
-177
-192
-206
-217
-228
-237
-245
-249
-252
-253
-251
-249
-246
-240
-234
-226
-217
-207
-197
-187
-177
-165
-153
-143
-133
-123
-113
-103
-94
-84
-75
-69
-61
-55
-47
-41
-33
-28
-23
-19
-16
-11
-8
-5
-2
0
2
3
5
7
7
8
9
9
9
9
10
11
10
9
8
9
10
10
10
10
11
11
11
12
12
12
12
12
12
13
13
14
15
15
15
15
16
16
15
15
15
15
15
15
16
16
16
15
16
16
17
18
17
18
18
18
19
19
20
19
20
21
20
21
21
21
21
21
21
22
23
23
23
22
22
22
23
24
23
24
24
24
25
26
25
26
26
27
27
27
28
28
27
27
27
27
27
27
27
28
27
27
27
28
27
28
28
28
29
30
31
32
32
32
33
34
36
36
38
39
39
40
42
43
44
45
45
46
46
47
48
49
49
49
50
51
51
52
53
53
53
53
54
54
55
56
57
57
57
58
59
59
60
60
60
61
61
61
62
62
62
62
63
63
64
63
63
63
62
63
63
62
61
60
60
59
59
59
57
57
55
55
54
53
52
51
49
48
48
47
46
46
45
43
44
43
43
43
41
41
40
40
40
40
40
40
40
41
41
41
41
41
41
41
40
41
42
42
42
42
42
42
42
42
42
41
40
40
40
40
40
40
39
38
38
37
37
36
35
34
33
33
32
32
32
31
31
31
32
32
32
33
32
31
31
31
31
31
30
30
30
29
29
28
28
26
26
25
24
24
23
21
20
18
17
16
16
14
14
13
13
12
12
13
13
12
12
12
12
13
14
14
15
15
15
16
17
17
17
16
17
16
17
16
16
15
14
14
13
14
14
14
13
13
13
13
13
14
14
14
14
15
15
16
17
17
18
18
20
21
22
22
23
22
23
24
24
25
26
25
26
26
26
27
27
27
27
27
27
27
28
28
27
27
28
29
30
30
30
30
30
31
32
33
33
32
34
34
34
35
36
37
36
37
37
38
39
40
40
40
40
40
41
42
43
43
44
43
44
45
46
47
47
47
48
48
49
49
50
49
50
50
51
51
51
52
53
53
53
53
53
54
54
53
53
53
53
54
53
53
52
53
53
52
52
52
51
50
50
49
50
50
49
48
47
47
47
47
47
46
45
46
45
45
45
44
43
44
44
44
44
45
44
44
43
44
45
45
46
46
46
46
48
49
49
51
51
51
52
53
54
54
55
54
54
54
54
54
52
52
51
50
50
50
49
48
47
47
46
46
47
47
46
45
46
45
46
46
46
46
45
45
45
46
45
45
45
44
44
45
44
43
44
42
43
42
43
43
43
43
44
45
45
47
47
48
48
49
50
51
52
53
54
54
55
55
56
57
56
55
55
54
53
54
53
52
52
52
51
52
52
52
51
50
50
50
51
51
52
52
51
52
53
53
54
54
54
55
56
57
58
58
59
59
59
60
61
62
62
63
63
65
66
68
71
74
76
80
85
91
96
103
110
116
125
132
141
148
156
164
171
177
183
188
193
194
196
197
196
194
190
184
177
169
160
148
137
123
109
93
75
58
40
21
2
-17
-37
-56
-74
-93
-110
-127
-143
-157
-171
-182
-191
-199
-205
-209
-212
-213
-213
-210
-206
-201
-194
-186
-178
-168
-158
-149
-138
-128
-117
-107
-96
-87
-76
-68
-58
-50
-41
-33
-25
-18
-12
-6
1
6
12
17
22
25
28
33
36
40
43
46
48
50
53
55
57
57
58
60
61
63
64
65
65
66
66
67
68
68
68
67
68
68
68
68
68
68
69
68
68
68
68
68
69
68
69
70
71
71
72
72
73
72
74
75
75
75
76
77
77
78
80
80
80
80
80
81
81
82
81
81
80
81
81
82
82
82
82
83
82
83
84
84
86
85
86
87
87
87
88
88
88
89
89
90
90
91
90
90
91
91
91
91
91
91
90
91
92
92
93
93
93
93
93
94
95
96
96
96
98
100
101
101
102
102
103
104
104
105
105
107
107
107
108
109
109
110
109
110
110
110
111
111
111
111
111
112
112
113
114
114
114
115
115
116
117
117
118
118
119
120
121
121
121
122
122
122
122
122
122
122
121
121
122
122
122
122
122
121
122
123
124
124
124
124
125
125
126
127
127
128
128
129
129
130
130
130
130
131
131
131
131
131
132
132
132
131
131
131
130
129
128
127
127
126
125
125
123
123
121
121
120
118
117
116
115
114
114
114
113
113
112
112
112
112
112
111
111
111
112
112
112
112
112
111
111
111
111
111
110
108
107
107
106
105
104
103
101
100
100
100
99
99
97
96
96
96
95
95
95
95
95
94
94
95
95
95
94
95
95
95
95
95
95
94
94
94
93
93
92
92
91
91
91
90
89
88
88
87
86
86
86
84
83
83
82
82
81
81
80
79
78
78
77
77
77
76
76
76
76
76
76
76
75
75
74
74
75
75
76
75
75
75
75
76
76
76
75
75
75
76
76
75
74
74
73
73
73
73
72
71
72
71
72
71
72
72
72
71
71
73
74
74
75
76
77
78
79
80
80
80
81
82
83
83
84
85
85
85
86
86
87
88
87
88
88
89
90
90
90
91
91
91
93
94
95
95
95
95
96
97
98
98
99
99
100
100
101
102
101
101
101
101
102
103
104
105
106
108
111
115
119
124
128
133
139
146
153
161
167
174
182
190
197
205
212
217
221
225
227
229
229
227
222
217
210
201
190
177
163
146
128
110
89
67
47
24
1
-22
-45
-67
-88
-109
-129
-146
-163
-176
-188
-198
-206
-212
-216
-218
-217
-215
-211
-205
-199
-190
-180
-169
-157
-145
-134
-122
-110
-98
-86
-74
-63
-53
-43
-32
-23
-15
-6
2
8
14
20
25
31
36
39
43
46
49
52
54
55
57
58
59
60
61
62
63
63
63
65
66
65
66
65
64
65
64
64
65
65
65
64
65
66
66
66
67
67
67
68
68
69
71
72
72
72
73
74
74
75
74
74
74
75
74
74
73
72
71
71
70
69
68
67
66
65
64
63
62
61
61
60
60
60
59
59
59
58
58
58
59
59
60
60
60
59
60
61
62
62
63
63
64
65
65
66
67
66
67
68
68
69
68
68
68
68
68
68
69
69
69
69
69
69
69
70
71
72
73
73
75
76
77
77
78
79
80
81
82
83
83
84
83
84
85
85
86
86
86
87
87
88
88
89
89
90
90
91
92
93
94
95
96
97
99
100
102
103
104
105
107
107
109
109
110
111
111
111
112
112
112
111
111
110
111
111
110
109
108
108
107
106
106
104
104
102
102
101
101
100
99
98
97
97
97
96
94
93
93
92
93
92
92
90
89
89
88
88
88
86
85
85
84
84
84
84
83
82
81
81
81
80
81
80
79
79
80
80
80
79
79
78
77
77
76
76
75
73
72
72
71
70
68
67
65
63
62
60
59
57
55
54
53
52
51
50
50
48
47
47
46
46
46
44
44
43
43
43
43
42
42
40
40
38
38
38
38
36
37
35
35
35
33
32
32
30
29
29
30
28
28
28
27
27
27
26
26
26
26
25
26
27
27
26
25
25
25
24
24
24
24
23
24
24
24
24
24
23
23
23
24
23
23
23
23
23
23
24
24
24
24
25
24
25
26
25
26
26
27
27
28
29
31
31
32
33
34
35
37
38
37
38
39
39
39
39
40
40
40
40
40
41
41
41
41
41
41
41
41
41
41
41
41
41
41
40
40
40
40
39
39
40
40
39
38
38
38
37
38
37
37
37
36
36
36
36
35
35
35
35
34
34
34
33
32
32
32
33
32
31
30
30
29
29
28
28
28
27
27
27
27
26
26
26
26
24
24
24
24
25
24
23
23
23
22
22
22
22
21
21
20
19
19
18
17
16
17
16
16
16
16
15
15
15
15
16
15
14
14
14
14
13
13
12
12
11
11
11
10
9
8
8
7
6
6
6
5
5
4
4
5
5
5
4
4
4
4
4
4
4
3
3
3
2
2
2
1
0
0
-1
0
0
-1
-2
-2
-2
-2
-1
-1
-1
-1
-1
-1
0
0
1
1
1
1
0
1
1
0
1
0
-1
-2
-1
-1
-2
-3
-3
-4
-5
-5
-5
-7
-7
-8
-9
-8
-9
-8
-9
-9
-9
-9
-8
-7
-7
-7
-6
-6
-4
-2
0
3
5
8
11
14
19
24
29
35
40
47
54
62
69
77
84
90
98
105
111
117
121
125
127
129
129
126
122
116
110
102
92
82
70
56
40
25
7
-11
-29
-48
-68
-89
-109
-128
-147
-166
-183
-200
-216
-231
-243
-255
-266
-274
-282
-288
-291
-292
-291
-291
-287
-283
-277
-269
-261
-252
-242
-232
-221
-210
-199
-187
-177
-166
-157
-146
-137
-127
-118
-109
-102
-95
-87
-81
-75
-69
-65
-60
-55
-51
-47
-43
-40
-37
-34
-32
-30
-29
-27
-25
-24
-24
-22
-21
-21
-20
-20
-19
-20
-19
-19
-19
-18
-19
-18
-20
-19
-19
-19
-20
-19
-19
-19
-19
-19
-19
-19
-20
-21
-20
-20
-19
-20
-19
-20
-20
-20
-19
-20
-19
-20
-20
-19
-19
-20
-20
-20
-21
-22
-21
-21
-22
-22
-23
-24
-24
-23
-24
-24
-25
-25
-26
-24
-24
-23
-23
-22
-22
-22
-21
-21
-20
-19
-18
-18
-17
-16
-14
-14
-13
-13
-13
-13
-11
-11
-12
-12
-12
-13
-13
-12
-13
-13
-15
-15
-16
-17
-17
-17
-18
-17
-18
-17
-17
-17
-17
-17
-17
-17
-16
-15
-14
-12
-12
-11
-11
-10
-8
-8
-6
-7
-6
-5
-4
-3
-3
-3
-3
-2
-2
-2
-1
-2
-2
-2
-2
-3
-3
-4
-4
-4
-4
-4
-4
-2
-2
-2
-2
-2
-1
-1
0
0
1
2
2
4
5
6
6
7
8
8
9
9
10
11
10
10
11
11
12
11
10
10
10
9
9
9
8
8
6
5
5
5
4
2
1
0
-1
-1
-2
-2
-3
-5
-5
-6
-7
-7
-7
-8
-9
-9
-8
-8
-9
-9
-9
-9
-9
-8
-9
-9
-9
-9
-9
-9
-7
-8
-8
-9
-9
-9
-9
-9
-10
-12
-12
-13
-13
-14
-15
-16
-17
-17
-18
-18
-19
-20
-20
-21
-22
-22
-22
-22
-22
-22
-22
-22
-23
-23
-22
-23
-24
-25
-25
-26
-25
-26
-27
-28
-30
-30
-31
-31
-32
-33
-35
-37
-37
-38
-38
-39
-40
-41
-42
-42
-41
-42
-42
-43
-44
-44
-43
-44
-44
-44
-45
-45
-46
-46
-46
-47
-47
-48
-49
-49
-48
-49
-50
-50
-50
-50
-50
-50
-50
-50
-50
-51
-51
-51
-51
-52
-53
-54
-55
-55
-54
-55
-56
-57
-57
-57
-57
-57
-57
-57
-57
-57
-56
-55
-54
-54
-53
-52
-52
-51
-50
-50
-49
-49
-48
-47
-47
-46
-46
-46
-46
-46
-46
-45
-44
-44
-43
-42
-42
-41
-41
-40
-40
-40
-39
-39
-38
-37
-36
-37
-36
-36
-35
-35
-34
-34
-34
-34
-34
-35
-35
-34
-35
-35
-35
-35
-35
-35
-36
-35
-37
-37
-37
-36
-36
-36
-36
-37
-37
-37
-36
-35
-35
-35
-35
-34
-33
-33
-32
-32
-32
-31
-31
-31
-30
-30
-31
-31
-31
-31
-31
-31
-31
-32
-33
-33
-34
-33
-34
-34
-35
-36
-37
-37
-37
-38
-38
-39
-39
-40
-40
-41
-40
-42
-43
-43
-43
-43
-44
-44
-45
-46
-46
-47
-47
-47
-47
-48
-49
-48
-49
-49
-49
-50
-51
-51
-51
-51
-52
-52
-53
-54
-54
-54
-55
-55
-56
-57
-57
-57
-58
-58
-58
-58
-59
-59
-59
-59
-59
-59
-59
-59
-58
-57
-57
-57
-57
-57
-57
-57
-57
-56
-57
-56
-57
-57
-56
-56
-57
-57
-58
-58
-58
-58
-58
-58
-58
-58
-58
-58
-58
-57
-57
-58
-57
-57
-55
-54
-54
-54
-53
-54
-54
-53
-54
-54
-55
-55
-56
-56
-56
-57
-57
-58
-59
-58
-58
-59
-58
-59
-59
-59
-59
-59
-58
-59
-59
-59
-59
-59
-58
-58
-58
-59
-59
-59
-59
-59
-59
-60
-59
-60
-60
-60
-61
-62
-62
-62
-63
-63
-63
-63
-64
-63
-64
-65
-65
-65
-64
-65
-65
-66
-66
-66
-65
-65
-66
-66
-67
-67
-67
-67
-68
-68
-69
-69
-69
-68
-69
-69
-70
-70
-71
-71
-71
-72
-72
-73
-73
-74
-73
-73
-73
-73
-73
-72
-72
-71
-71
-70
-70
-71
-69
-69
-68
-68
-68
-67
-68
-67
-66
-67
-66
-67
-67
-67
-68
-67
-69
-69
-70
-70
-70
-70
-71
-71
-72
-72
-73
-72
-72
-72
-73
-73
-72
-72
-72
-72
-72
-72
-71
-71
-71
-71
-70
-69
-70
-69
-69
-69
-68
-69
-69
-69
-70
-69
-68
-69
-69
-69
-69
-70
-70
-70
-69
-70
-71
-71
-71
-71
-72
-73
-73
-74
-75
-75
-75
-74
-74
-74
-74
-75
-75
-75
-74
-75
-75
-75
-74
-73
-73
-72
-73
-73
-72
-72
-71
-71
-70
-69
-69
-70
-69
-69
-68
-68
-67
-67
-65
-64
-62
-61
-59
-58
-56
-54
-51
-48
-45
-41
-37
-32
-27
-21
-14
-8
-1
5
13
19
27
33
40
45
50
54
59
60
62
61
59
56
51
45
38
29
18
7
-5
-19
-34
-48
-66
-82
-100
-118
-137
-154
-172
-190
-208
-225
-240
-254
-268
-281
-293
-302
-311
-318
-322
-326
-328
-330
-329
-326
-323
-318
-312
-305
-297
-289
-279
-270
-259
-250
-240
-231
-221
-211
-201
-191
-184
-175
-167
-159
-151
-144
-137
-131
-125
-120
-115
-109
-105
-102
-98
-94
-91
-89
-85
-83
-80
-80
-78
-76
-75
-73
-72
-72
-70
-70
-70
-70
-70
-69
-70
-70
-70
-70
-69
-69
-70
-70
-70
-70
-70
-69
-69
-70
-70
-71
-71
-70
-70
-70
-70
-70
-70
-70
-70
-70
-70
-71
-71
-71
-71
-70
-70
-71
-72
-71
-72
-72
-72
-72
-73
-73
-73
-72
-71
-71
-71
-71
-72
-71
-70
-69
-69
-70
-69
-70
-69
-69
-69
-68
-68
-69
-68
-69
-68
-68
-69
-69
-69
-68
-68
-68
-66
-66
-67
-65
-65
-64
-62
-62
-62
-61
-61
-60
-59
-58
-59
-58
-59
-58
-58
-58
-58
-59
-59
-59
-60
-59
-60
-60
-60
-61
-61
-61
-60
-60
-60
-60
-60
-59
-58
-57
-56
-56
-55
-54
-53
-53
-52
-51
-51
-50
-50
-49
-48
-48
-48
-47
-47
-47
-47
-46
-46
-46
-46
-45
-45
-45
-43
-43
-43
-42
-42
-42
-41
-40
-39
-39
-38
-37
-35
-34
-34
-33
-33
-33
-32
-31
-30
-29
-29
-28
-27
-27
-27
-26
-26
-27
-26
-27
-27
-27
-27
-28
-29
-30
-31
-31
-31
-32
-34
-34
-36
-37
-38
-39
-40
-41
-43
-43
-44
-45
-46
-48
-49
-51
-52
-51
-52
-52
-53
-54
-54
-53
-54
-53
-53
-54
-55
-54
-54
-53
-53
-52
-53
-53
-52
-52
-52
-52
-52
-52
-52
-52
-52
-53
-53
-54
-54
-54
-54
-54
-55
-55
-56
-56
-56
-56
-56
-57
-57
-58
-58
-59
-58
-58
-59
-60
-60
-60
-60
-60
-60
-61
-62
-63
-63
-64
-65
-65
-66
-67
-68
-68
-67
-68
-69
-70
-70
-70
-70
-70
-70
-71
-70
-70
-71
-70
-71
-70
-71
-71
-71
-70
-70
-70
-69
-70
-71
-70
-70
-69
-70
-70
-69
-70
-69
-69
-68
-68
-68
-68
-68
-68
-68
-68
-68
-68
-69
-68
-68
-68
-69
-69
-69
-69
-69
-69
-68
-68
-68
-69
-69
-68
-68
-68
-68
-68
-67
-67
-66
-65
-65
-65
-65
-64
-65
-64
-63
-64
-63
-62
-62
-62
-62
-61
-61
-62
-63
-63
-63
-62
-62
-62
-62
-61
-61
-61
-61
-61
-61
-62
-61
-61
-61
-60
-60
-61
-60
-59
-59
-58
-57
-57
-57
-57
-56
-56
-55
-55
-55
-54
-54
-53
-52
-51
-50
-51
-51
-51
-51
-51
-52
-52
-53
-54
-54
-54
-54
-56
-56
-57
-57
-57
-57
-57
-58
-58
-58
-58
-58
-58
-57
-57
-57
-57
-57
-57
-57
-57
-57
-58
-58
-57
-58
-57
-58
-58
-58
-59
-59
-59
-58
-59
-58
-58
-58
-57
-57
-56
-56
-55
-54
-52
-50
-47
-44
-41
-36
-31
-26
-20
-13
-7
-1
7
14
21
28
34
39
43
48
51
53
53
53
50
47
41
35
28
19
8
-6
-20
-36
-50
-67
-85
-103
-123
-142
-162
-180
-201
-219
-238
-255
-272
-287
-300
-313
-324
-333
-341
-347
-349
-350
-350
-348
-346
-340
-334
-325
-317
-307
-297
-285
-274
-262
-249
-238
-226
-216
-205
-194
-184
-174
-165
-157
-149
-140
-133
-126
-120
-114
-110
-104
-99
-95
-90
-87
-83
-81
-79
-77
-74
-72
-71
-71
-70
-69
-68
-67
-67
-67
-66
-66
-65
-66
-65
-65
-64
-65
-65
-65
-63
-62
-62
-62
-60
-60
-59
-59
-58
-57
-57
-56
-56
-54
-53
-53
-53
-53
-52
-52
-52
-52
-52
-53
-53
-53
-53
-53
-53
-53
-53
-53
-53
-54
-53
-53
-53
-53
-52
-52
-51
-50
-51
-50
-50
-50
-49
-49
-49
-49
-49
-50
-50
-50
-49
-50
-50
-50
-51
-52
-51
-51
-52
-53
-54
-54
-55
-55
-54
-54
-55
-56
-55
-55
-55
-55
-55
-54
-55
-54
-53
-53
-52
-52
-52
-51
-51
-50
-49
-49
-48
-47
-47
-45
-45
-44
-43
-42
-42
-41
-40
-39
-38
-36
-36
-35
-33
-32
-31
-30
-29
-28
-26
-25
-24
-22
-20
-19
-18
-18
-17
-16
-16
-15
-14
-14
-13
-11
-11
-10
-10
-9
-10
-8
-8
-7
-7
-6
-5
-4
-4
-3
-3
-2
-2
-2
-2
-1
0
0
-1
-1
-1
-2
-2
-3
-5
-6
-8
-9
-9
-10
-11
-12
-13
-14
-14
-14
-15
-16
-17
-17
-17
-16
-16
-16
-16
-16
-16
-16
-15
-15
-15
-15
-16
-16
-16
-16
-17
-18
-19
-19
-19
-20
-20
-21
-22
-23
-24
-25
-26
-26
-27
-27
-28
-28
-29
-29
-29
-29
-30
-31
-32
-32
-32
-33
-34
-34
-36
-37
-37
-38
-39
-40
-41
-43
-43
-44
-45
-47
-48
-49
-50
-50
-52
-53
-54
-55
-56
-56
-58
-59
-59
-61
-63
-65
-65
-66
-66
-67
-69
-70
-70
-70
-70
-70
-71
-72
-72
-72
-71
-71
-70
-70
-69
-69
-68
-67
-67
-67
-66
-66
-65
-64
-63
-63
-63
-63
-63
-63
-62
-61
-61
-61
-62
-61
-61
-61
-60
-59
-60
-60
-60
-60
-59
-58
-59
-59
-59
-59
-59
-59
-59
-60
-61
-61
-61
-60
-61
-61
-62
-62
-62
-63
-63
-63
-64
-64
-65
-65
-65
-64
-64
-63
-63
-62
-62
-61
-60
-59
-59
-57
-56
-54
-53
-52
-50
-49
-48
-47
-46
-46
-45
-44
-44
-44
-44
-43
-42
-43
-43
-43
-43
-43
-42
-42
-43
-43
-44
-43
-42
-42
-43
-43
-44
-44
-44
-44
-44
-44
-45
-46
-46
-46
-46
-46
-46
-47
-47
-47
-47
-46
-46
-46
-47
-46
-46
-45
-45
-44
-44
-45
-44
-43
-42
-42
-43
-43
-43
-43
-43
-42
-42
-43
-44
-44
-44
-44
-44
-44
-45
-44
-45
-44
-44
-44
-44
-45
-45
-45
-46
-45
-45
-46
-46
-47
-47
-46
-47
-47
-48
-49
-49
-49
-49
-50
-50
-50
-50
-51
-50
-51
-51
-51
-51
-51
-51
-49
-49
-48
-48
-47
-46
-44
-42
-40
-38
-35
-32
-28
-23
-19
-13
-7
-2
5
13
21
29
37
44
50
57
64
70
74
77
79
80
81
79
76
70
63
54
45
33
21
7
-9
-26
-44
-62
-82
-100
-120
-141
-161
-182
-200
-219
-236
-253
-269
-283
-296
-306
-315
-322
-327
-331
-333
-333
-331
-328
-323
-317
-310
-302
-293
-283
-273
-262
-251
-240
-228
-217
-206
-196
-186
-176
-167
-158
-149
-141
-134
-128
-122
-117
-110
-105
-101
-96
-93
-90
-86
-83
-80
-77
-75
-74
-72
-71
-69
-67
-66
-64
-64
-63
-62
-61
-59
-58
-57
-56
-55
-54
-53
-53
-52
-52
-50
-50
-49
-48
-47
-46
-46
-47
-45
-45
-44
-43
-43
-43
-43
-42
-42
-42
-42
-42
-42
-41
-40
-40
-40
-39
-39
-40
-40
-40
-40
-40
-40
-41
-41
-41
-41
-41
-41
-42
-43
-42
-42
-42
-43
-43
-43
-44
-44
-44
-43
-43
-44
-44
-44
-44
-44
-44
-44
-44
-45
-44
-43
-44
-44
-44
-44
-45
-45
-45
-45
-45
-45
-45
-44
-44
-43
-42
-42
-41
-41
-39
-38
-37
-35
-34
-33
-33
-31
-30
-29
-28
-28
-28
-27
-27
-27
-26
-25
-25
-26
-24
-23
-23
-22
-22
-21
-21
-20
-19
-18
-17
-17
-16
-15
-14
-13
-11
-11
-10
-9
-9
-7
-7
-6
-5
-6
-5
-5
-4
-4
-4
-3
-3
-4
-3
-4
-4
-4
-4
-5
-5
-6
-6
-6
-7
-8
-8
-9
-9
-9
-10
-11
-12
-12
-12
-12
-12
-12
-13
-14
-14
-14
-14
-14
-15
-15
-16
-16
-16
-16
-17
-17
-18
-19
-20
-20
-20
-21
-23
-24
-25
-26
-26
-26
-27
-28
-29
-29
-29
-30
-30
-30
-31
-30
-31
-30
-30
-29
-30
-30
-30
-28
-28
-28
-28
-28
-29
-28
-29
-28
-30
-30
-30
-30
-31
-32
-32
-32
-33
-33
-33
-33
-33
-33
-33
-34
-34
-34
-34
-34
-34
-34
-34
-35
-35
-35
-35
-36
-37
-38
-39
-39
-41
-42
-43
-44
-45
-46
-46
-47
-47
-48
-48
-48
-48
-48
-49
-49
-49
-49
-48
-48
-46
-47
-46
-47
-46
-46
-46
-46
-47
-46
-47
-47
-48
-49
-49
-49
-49
-50
-50
-51
-50
-51
-51
-52
-52
-52
-53
-53
-53
-53
-54
-54
-55
-55
-55
-56
-56
-56
-56
-56
-55
-55
-55
-55
-55
-55
-54
-54
-52
-52
-52
-51
-49
-48
-47
-47
-46
-45
-44
-44
-42
-42
-42
-42
-43
-43
-43
-43
-42
-43
-43
-44
-43
-43
-43
-43
-43
-44
-43
-43
-41
-41
-40
-39
-39
-37
-36
-35
-35
-34
-35
-34
-32
-31
-31
-30
-30
-31
-30
-29
-29
-29
-30
-30
-30
-30
-31
-31
-32
-33
-34
-33
-34
-35
-34
-35
-36
-37
-37
-37
-37
-37
-37
-38
-37
-36
-36
-35
-35
-35
-35
-35
-34
-33
-32
-32
-31
-32
-32
-31
-31
-31
-31
-33
-34
-34
-35
-36
-37
-39
-40
-41
-41
-41
-42
-43
-44
-45
-44
-43
-43
-43
-43
-42
-41
-41
-39
-39
-37
-37
-36
-36
-36
-34
-34
-34
-35
-34
-34
-34
-34
-34
-35
-35
-36
-36
-36
-36
-36
-37
-38
-38
-39
-40
-40
-40
-41
-42
-42
-42
-42
-43
-43
-44
-45
-45
-45
-45
-46
-45
-45
-46
-46
-46
-45
-46
-46
-46
-46
-46
-46
-46
-47
-47
-48
-48
-48
-47
-48
-49
-49
-50
-49
-49
-49
-49
-50
-49
-49
-48
-47
-46
-46
-45
-45
-43
-40
-37
-35
-33
-29
-25
-19
-13
-8
-1
5
12
19
28
36
44
51
60
67
73
80
86
90
93
94
95
93
91
87
81
73
64
54
42
28
14
-2
-20
-39
-57
-77
-97
-118
-138
-158
-178
-197
-216
-234
-250
-265
-280
-292
-302
-311
-318
-323
-327
-329
-329
-327
-324
-319
-314
-307
-299
-290
-280
-270
-260
-250
-240
-229
-219
-208
-198
-188
-180
-171
-162
-153
-144
-138
-130
-124
-116
-109
-103
-97
-91
-86
-82
-77
-73
-69
-65
-62
-60
-57
-55
-53
-51
-50
-49
-49
-48
-47
-46
-45
-45
-44
-44
-42
-42
-40
-40
-39
-39
-38
-38
-37
-37
-36
-36
-36
-36
-36
-36
-36
-37
-37
-38
-39
-39
-39
-40
-40
-41
-41
-42
-42
-43
-42
-43
-43
-44
-44
-44
-44
-43
-42
-42
-43
-42
-41
-42
-42
-42
-42
-41
-40
-38
-38
-38
-37
-37
-37
-36
-35
-36
-35
-35
-35
-35
-34
-34
-34
-34
-34
-34
-35
-34
-35
-36
-36
-36
-36
-35
-35
-35
-35
-35
-35
-34
-33
-33
-33
-32
-32
-31
-31
-30
-30
-30
-29
-29
-29
-29
-28
-27
-27
-27
-26
-24
-24
-24
-23
-23
-22
-22
-21
-20
-20
-20
-19
-19
-19
-18
-17
-17
-16
-16
-16
-14
-13
-13
-13
-13
-13
-12
-11
-11
-10
-10
-10
-10
-10
-9
-9
-10
-10
-10
-10
-9
-9
-8
-8
-8
-9
-8
-7
-7
-7
-6
-7
-6
-6
-5
-6
-5
-6
-6
-6
-5
-6
-5
-6
-7
-7
-7
-8
-8
-9
-9
-10
-10
-10
-10
-10
-11
-11
-12
-13
-13
-13
-14
-15
-16
-17
-18
-18
-19
-20
-21
-22
-23
-24
-25
-25
-26
-27
-28
-29
-29
-29
-29
-29
-30
-30
-30
-30
-29
-29
-30
-29
-30
-28
-28
-27
-27
-27
-27
-27
-27
-27
-26
-27
-28
-28
-28
-30
-30
-31
-32
-33
-33
-33
-34
-33
-35
-35
-37
-37
-37
-38
-38
-39
-38
-39
-38
-38
-37
-37
-38
-38
-38
-37
-37
-36
-36
-36
-36
-37
-37
-37
-37
-38
-39
-39
-40
-41
-42
-43
-44
-44
-45
-46
-47
-47
-48
-49
-49
-50
-51
-51
-51
-52
-52
-52
-52
-52
-53
-53
-52
-53
-54
-54
-53
-54
-54
-54
-55
-56
-55
-55
-55
-56
-56
-56
-57
-57
-56
-57
-57
-56
-56
-56
-55
-54
-53
-53
-53
-53
-51
-50
-49
-48
-48
-48
-46
-45
-45
-44
-44
-44
-44
-43
-42
-42
-42
-42
-42
-41
-40
-40
-40
-40
-40
-40
-40
-39
-38
-37
-37
-37
-37
-36
-35
-34
-35
-35
-35
-34
-35
-34
-33
-34
-34
-35
-34
-33
-33
-33
-34
-34
-34
-34
-34
-34
-33
-33
-34
-34
-34
-33
-33
-32
-33
-34
-34
-33
-33
-33
-34
-34
-35
-35
-34
-35
-35
-36
-35
-35
-35
-34
-34
-34
-35
-35
-35
-36
-35
-35
-36
-37
-37
-36
-37
-37
-37
-39
-40
-40
-40
-40
-39
-40
-40
-41
-40
-40
-40
-40
-40
-40
-41
-39
-39
-39
-38
-38
-38
-38
-38
-37
-37
-37
-37
-37
-37
-36
-36
-36
-36
-36
-36
-36
-36
-36
-36
-37
-38
-38
-38
-38
-38
-38
-39
-39
-38
-37
-37
-35
-34
-33
-31
-28
-24
-20
-15
-11
-6
0
8
15
22
29
37
44
51
59
65
71
77
81
84
86
87
87
85
82
76
71
63
54
43
31
17
3
-14
-30
-47
-65
-84
-104
-123
-143
-161
-179
-197
-214
-231
-246
-260
-272
-282
-292
-299
-305
-309
-312
-312
-311
-310
-306
-300
-295
-287
-279
-269
-260
-251
-240
-229
-219
-209
-199
-190
-180
-171
-162
-153
-146
-138
-131
-124
-117
-111
-106
-99
-95
-91
-85
-80
-76
-72
-69
-66
-63
-61
-58
-55
-54
-52
-51
-50
-49
-48
-47
-47
-48
-47
-48
-47
-47
-47
-48
-49
-48
-49
-49
-49
-49
-49
-48
-47
-47
-45
-45
-44
-45
-44
-43
-42
-41
-40
-40
-40
-39
-39
-38
-37
-37
-37
-37
-37
-37
-37
-37
-36
-36
-36
-36
-35
-34
-34
-33
-33
-33
-33
-32
-30
-31
-30
-30
-29
-28
-28
-28
-27
-27
-27
-26
-26
-25
-25
-25
-26
-25
-25
-25
-24
-25
-25
-26
-26
-26
-26
-26
-26
-26
-25
-25
-24
-24
-23
-22
-22
-21
-20
-19
-18
-16
-15
-13
-12
-11
-9
-8
-8
-7
-7
-6
-6
-5
-5
-5
-5
-5
-5
-5
-4
-4
-4
-5
-4
-3
-3
-1
-1
-1
0
1
2
3
5
5
6
6
6
7
8
9
9
9
9
8
9
9
8
7
7
6
6
6
6
6
5
5
4
4
5
5
4
3
4
4
4
4
4
4
4
4
5
5
6
6
6
7
7
7
8
7
7
6
6
6
6
6
6
4
3
3
2
2
1
0
-2
-3
-4
-5
-5
-7
-8
-8
-9
-10
-10
-10
-9
-10
-10
-9
-9
-8
-9
-9
-9
-8
-7
-7
-6
-5
-6
-6
-6
-6
-5
-5
-5
-6
-6
-6
-7
-7
-7
-8
-9
-10
-10
-10
-10
-10
-11
-13
-12
-14
-14
-14
-14
-15
-16
-16
-16
-15
-15
-16
-18
-18
-18
-18
-18
-19
-21
-21
-22
-22
-23
-23
-23
-25
-25
-26
-25
-26
-26
-26
-28
-28
-28
-29
-28
-29
-29
-29
-30
-29
-29
-29
-30
-30
-30
-30
-31
-31
-31
-31
-31
-31
-31
-31
-30
-30
-31
-31
-31
-31
-30
-30
-31
-31
-32
-32
-31
-30
-30
-30
-30
-31
-31
-30
-30
-30
-30
-30
-30
-30
-29
-29
-27
-27
-27
-26
-25
-23
-22
-21
-22
-21
-20
-19
-18
-18
-17
-17
-16
-16
-16
-15
-15
-16
-17
-16
-15
-14
-15
-14
-15
-14
-13
-13
-13
-12
-12
-11
-11
-10
-9
-8
-7
-8
-7
-6
-6
-5
-5
-5
-5
-6
-5
-6
-5
-6
-5
-6
-6
-6
-6
-5
-5
-5
-4
-4
-4
-3
-2
-1
-1
-1
0
1
3
3
3
4
4
5
6
6
6
5
5
5
5
5
5
5
4
4
4
4
4
4
4
4
4
4
5
5
5
5
5
5
6
7
7
7
7
7
7
7
8
8
8
8
9
10
11
12
13
14
16
17
21
25
29
33
37
43
49
56
63
70
78
84
92
98
105
112
118
122
127
130
132
133
132
130
126
120
113
105
95
83
70
55
40
22
5
-14
-33
-54
-74
-95
-115
-135
-155
-175
-194
-211
-227
-241
-253
-264
-273
-279
-285
-288
-288
-288
-286
-282
-277
-271
-262
-253
-242
-232
-221
-209
-197
-184
-172
-160
-149
-139
-129
-118
-109
-99
-91
-83
-76
-68
-60
-53
-47
-41
-36
-33
-27
-24
-20
-17
-15
-13
-10
-9
-7
-6
-5
-5
-5
-4
-3
-3
-2
-3
-2
-2
-2
-2
-1
0
0
0
0
2
2
3
4
5
5
5
7
8
9
9
9
9
9
10
10
10
10
10
11
11
11
12
12
12
13
14
14
15
16
16
17
17
17
19
20
21
21
22
22
23
23
24
25
24
25
25
25
27
27
27
27
28
28
29
29
30
30
30
31
31
32
33
33
34
35
35
36
37
37
38
38
37
38
39
40
40
41
41
41
41
42
43
44
43
44
44
44
46
47
47
47
48
49
49
50
50
51
51
51
51
51
51
51
51
52
53
54
55
55
56
56
57
58
59
60
61
63
63
65
67
68
70
72
72
73
75
75
76
77
76
76
76
75
76
76
76
76
75
74
74
74
73
73
72
72
72
73
72
73
73
72
72
72
73
72
72
72
71
71
70
70
70
69
68
67
66
66
65
64
64
63
61
61
61
60
58
58
57
57
56
56
56
56
56
55
55
56
56
56
55
55
55
55
56
57
57
56
57
57
57
58
58
58
58
58
58
58
58
58
59
58
58
58
58
58
57
57
56
56
55
55
54
54
53
52
52
51
51
51
51
50
49
49
49
49
49
49
49
49
49
49
49
50
50
50
50
51
51
51
50
49
49
49
48
48
48
46
45
45
44
44
43
43
42
41
41
42
41
42
42
41
41
42
42
43
43
43
44
44
44
45
44
43
43
43
43
43
44
44
43
43
44
43
44
44
44
44
45
45
46
47
48
49
49
50
50
51
51
52
52
52
53
53
54
55
55
55
54
55
54
55
55
56
56
56
57
57
58
59
60
59
60
61
62
63
64
64
65
66
66
67
68
69
69
70
70
71
72
72
72
72
72
72
72
73
73
72
72
72
72
73
73
73
72
73
73
73
74
75
75
75
75
75
76
77
78
78
79
80
80
81
81
81
81
82
82
83
83
83
83
83
83
84
83
83
83
83
82
83
83
83
83
83
83
83
83
82
83
83
83
83
83
82
83
83
83
83
83
83
83
85
87
87
88
89
91
93
97
100
103
107
111
116
123
129
136
142
149
155
163
170
177
183
189
194
199
203
206
207
207
204
201
197
191
184
175
164
152
138
123
107
90
71
52
32
12
-8
-28
-48
-68
-88
-107
-124
-140
-156
-170
-181
-191
-200
-206
-211
-212
-212
-211
-208
-203
-197
-189
-180
-172
-160
-149
-138
-126
-115
-102
-92
-81
-69
-60
-49
-39
-30
-22
-14
-6
1
9
15
21
27
32
37
42
47
51
55
57
60
63
66
69
70
72
73
75
75
77
77
78
79
79
80
80
80
81
81
81
82
82
83
84
84
84
84
84
85
86
86
86
86
85
86
86
87
87
87
87
87
87
88
89
89
89
89
89
90
91
91
91
91
91
93
93
93
93
93
93
93
94
94
95
96
97
97
97
99
99
100
101
102
103
104
105
107
108
109
108
109
110
111
111
112
111
111
111
112
112
112
112
110
110
110
110
110
110
110
110
110
111
111
112
112
111
112
112
113
114
115
115
115
116
117
118
118
119
120
119
120
121
122
124
125
126
126
127
128
130
131
132
133
133
134
136
137
138
139
140
141
142
143
144
145
146
146
146
148
149
149
150
150
150
149
150
151
151
151
151
150
150
151
150
150
151
151
151
152
151
151
151
150
150
150
149
150
150
149
148
147
147
146
146
145
144
143
143
142
142
141
141
140
139
139
138
138
137
136
136
135
134
134
133
133
132
132
131
131
131
130
130
129
128
127
127
126
125
124
123
122
122
122
121
122
121
121
120
120
120
120
119
119
118
118
119
119
120
119
119
118
118
118
118
118
118
117
117
118
117
116
115
114
113
113
112
112
111
110
109
108
107
106
105
103
102
101
100
99
99
98
98
96
96
95
94
96
95
95
95
94
94
94
95
94
94
95
95
96
96
95
95
96
95
95
96
96
96
96
95
95
95
96
96
96
96
95
96
95
96
96
95
96
96
96
96
98
97
98
98
98
99
99
101
101
102
103
104
104
105
106
106
106
107
106
108
109
109
109
110
110
110
111
112
113
112
113
114
115
116
116
118
118
118
120
121
122
122
123
122
123
124
124
125
125
125
125
126
126
127
127
127
126
127
128
128
129
129
128
128
127
127
128
127
127
127
126
126
125
125
125
124
123
123
122
122
122
121
121
121
122
121
122
123
123
123
124
124
124
125
126
125
126
126
126
126
127
127
127
126
126
126
126
126
125
125
124
123
123
123
123
122
121
121
121
120
120
120
118
118
116
116
115
115
114
113
112
112
112
112
111
111
110
109
109
108
109
108
108
108
108
109
109
110
110
110
110
111
112
112
113
112
113
113
112
113
113
112
112
112
112
112
112
112
112
111
111
111
111
111
111
111
111
111
111
111
112
112
112
111
112
113
113
114
114
114
114
114
114
114
115
114
113
113
112
113
113
113
112
111
111
110
110
111
111
110
110
110
111
112
112
113
112
112
113
113
114
115
115
114
115
114
114
115
114
114
114
114
115
116
116
117
117
117
117
117
117
118
118
118
119
120
120
122
121
121
122
122
123
123
123
123
123
123
124
124
124
124
124
124
124
124
124
125
125
124
123
124
124
124
124
123
123
122
122
122
122
122
121
120
120
119
119
119
119
118
117
118
117
117
118
117
117
116
116
117
117
117
117
117
117
117
117
117
118
117
117
117
117
117
117
117
116
117
116
117
116
117
117
117
117
119
119
121
121
122
122
124
126
129
132
134
138
141
146
151
157
163
169
177
185
192
201
209
216
224
231
237
244
249
253
255
256
255
252
249
245
238
229
218
206
193
181
166
148
130
112
93
73
54
33
13
-6
-26
-45
-61
-78
-93
-107
-121
-131
-141
-148
-154
-158
-161
-162
-162
-159
-154
-150
-143
-136
-127
-116
-107
-95
-85
-74
-64
-54
-42
-32
-21
-12
-2
7
16
24
32
39
46
52
57
63
69
74
79
83
86
89
94
97
99
102
104
106
107
109
112
113
114
115
115
116
117
118
118
119
119
119
121
122
122
123
123
124
125
126
126
127
128
129
129
130
131
131
133
133
133
133
133
133
133
132
132
131
131
130
130
129
128
128
127
127
127
126
127
126
126
127
128
128
129
130
130
130
131
132
133
133
134
134
134
135
136
135
136
135
135
135
135
134
134
134
134
133
133
132
132
133
133
132
131
131
132
133
133
133
132
132
132
132
132
133
132
133
133
132
133
133
133
133
133
134
134
134
134
135
134
135
135
136
136
138
137
138
139
140
142
143
143
143
144
145
145
146
147
146
147
147
148
148
150
150
150
150
151
152
153
153
153
154
154
155
156
157
157
157
158
158
160
160
161
162
161
161
162
162
163
163
163
163
164
165
165
165
165
165
164
164
163
164
163
163
163
162
162
162
163
162
161
161
160
160
161
161
161
160
159
160
160
159
160
159
158
157
157
158
157
157
157
156
155
155
155
155
154
154
153
154
154
154
154
154
154
153
152
153
153
153
153
152
151
151
151
150
150
148
148
147
148
147
147
147
148
147
147
148
149
149
149
149
148
148
148
149
149
149
149
149
148
148
147
146
146
144
143
143
142
141
140
138
137
136
135
133
132
130
128
126
125
125
124
123
122
121
120
120
119
119
118
117
116
116
117
116
116
116
116
115
115
116
115
115
115
114
114
114
114
114
114
114
113
113
113
114
114
114
113
113
113
113
114
114
113
113
112
112
113
112
112
112
111
111
111
112
111
111
111
111
111
112
113
113
113
113
114
115
116
116
117
117
117
118
119
120
121
120
121
121
120
122
122
122
123
124
125
125
127
127
128
128
128
129
130
131
133
133
133
133
134
135
135
135
135
135
136
136
137
137
137
137
137
136
138
138
138
138
137
137
138
137
138
137
136
137
136
137
135
136
136
135
134
133
134
134
134
133
133
133
134
134
135
135
135
135
136
136
137
139
139
139
139
139
138
139
138
138
138
137
137
137
137
137
136
135
135
133
133
133
132
132
131
130
130
130
130
129
129
129
129
130
130
132
133
135
138
142
146
150
155
160
166
172
180
186
193
200
207
214
220
227
233
237
241
243
244
244
243
240
236
230
222
213
204
191
178
164
148
131
113
95
74
54
33
12
-8
-28
-48
-67
-84
-101
-117
-131
-142
-153
-161
-169
-174
-178
-178
-178
-175
-172
-167
-160
-153
-143
-133
-122
-111
-100
-89
-78
-65
-53
-43
-32
-22
-12
-3
7
16
25
33
40
46
53
60
64
69
74
78
82
85
89
92
94
95
98
99
101
102
103
103
104
104
105
105
106
106
105
105
105
105
104
103
102
102
101
101
100
101
101
100
101
101
102
102
103
103
103
104
104
106
107
108
108
110
110
111
112
113
112
113
112
112
113
113
113
113
112
111
111
111
110
110
110
109
109
108
109
108
107
107
108
107
107
108
107
107
106
106
106
108
108
108
108
107
108
109
108
108
109
108
109
109
110
110
110
111
109
109
109
109
110
110
109
110
109
109
110
110
110
110
110
111
113
113
114
114
115
115
117
118
120
120
121
122
122
123
123
125
126
127
127
128
127
128
128
129
129
129
129
130
131
131
130
130
130
130
131
131
131
132
132
133
133
134
134
135
136
135
137
138
139
138
139
139
139
140
140
140
140
140
140
141
141
142
141
141
141
140
139
139
138
138
138
137
136
136
136
136
136
135
134
134
134
133
133
132
131
131
130
131
130
130
128
128
127
126
126
126
125
123
122
122
121
121
120
119
118
117
117
116
115
115
113
113
112
112
111
111
110
109
109
107
108
107
106
105
105
104
103
103
103
102
101
101
100
99
98
99
98
97
96
96
96
96
96
95
94
93
93
93
92
90
89
88
87
86
85
84
83
82
81
79
78
77
76
74
74
74
72
73
73
73
72
72
72
72
73
73
74
74
74
74
74
76
76
77
76
77
76
77
77
77
77
76
77
77
77
77
76
75
76
75
75
75
75
74
74
73
74
74
74
73
72
71
70
69
69
69
69
68
68
68
69
70
70
70
70
69
70
71
71
71
72
72
72
73
73
73
73
73
72
72
72
72
72
71
71
72
72
72
72
73
72
73
73
73
75
76
77
77
78
80
81
82
83
83
83
83
83
83
84
85
83
84
83
83
83
83
82
82
81
80
80
81
81
80
79
79
79
78
78
78
78
76
76
77
76
76
76
75
75
75
75
75
74
74
74
72
73
73
73
73
72
72
71
71
72
71
72
72
71
72
73
73
73
74
74
74
74
74
74
74
74
73
73
73
74
73
73
73
73
72
73
73
74
75
76
77
80
83
86
90
94
99
105
110
118
125
132
139
146
154
162
168
174
180
184
188
190
191
191
190
187
182
175
168
159
148
136
122
107
91
75
58
40
20
1
-20
-39
-59
-78
-96
-115
-132
-148
-163
-176
-187
-196
-204
-210
-214
-216
-217
-215
-212
-208
-203
-196
-187
-178
-168
-159
-148
-137
-126
-115
-104
-93
-83
-73
-64
-55
-46
-37
-29
-23
-15
-9
-2
4
9
14
18
22
26
30
34
37
39
41
43
44
47
48
50
50
51
52
53
54
54
54
55
56
56
56
56
56
57
56
56
57
57
57
57
56
56
55
56
57
56
56
56
56
56
56
57
58
58
58
59
60
62
62
62
63
63
64
65
65
65
65
65
66
66
66
67
67
66
65
65
66
66
65
65
64
64
64
64
65
65
65
65
65
65
66
66
66
66
67
67
68
69
68
69
69
68
69
69
70
70
70
69
69
69
69
69
69
69
69
68
69
69
70
70
70
69
70
70
71
70
71
71
71
72
73
73
73
72
73
73
73
74
74
74
75
74
75
76
77
77
78
78
79
80
81
82
82
83
84
85
86
86
87
88
88
88
88
89
89
90
89
89
89
89
89
90
89
89
89
89
89
88
87
87
86
85
85
84
84
83
82
82
81
81
80
79
78
78
77
77
78
78
79
78
79
78
79
79
80
80
80
79
80
80
80
81
81
80
79
79
79
78
77
77
76
75
74
74
73
72
71
69
69
67
67
67
66
66
65
64
64
64
63
63
63
62
62
62
62
62
61
61
60
60
60
59
59
58
57
57
56
56
56
56
55
54
54
53
53
52
52
51
50
50
49
49
49
48
47
46
46
45
44
44
43
42
41
41
41
39
38
37
37
37
37
37
36
35
35
35
36
36
36
36
36
36
35
35
35
35
34
34
33
33
34
34
34
34
33
32
32
31
31
31
30
29
29
29
29
28
28
28
27
27
27
27
27
27
26
26
27
27
27
28
27
27
28
29
28
28
28
29
28
29
30
30
31
31
31
32
33
34
35
35
35
35
36
37
38
39
39
39
40
40
40
40
40
39
40
40
40
40
40
40
39
38
39
39
39
38
38
38
38
37
38
39
40
40
41
41
42
43
44
45
45
46
46
47
47
48
47
47
48
48
48
48
48
47
45
45
44
44
44
43
43
43
42
42
43
42
41
41
42
42
43
44
44
45
45
45
45
44
44
44
44
44
43
44
44
44
43
43
42
41
41
41
41
40
41
41
41
41
42
41
41
41
41
41
41
40
39
38
37
37
36
35
35
33
32
32
31
31
30
28
27
27
27
26
26
25
25
25
26
26
27
28
28
28
29
29
30
31
31
32
31
31
31
32
32
31
31
29
28
28
28
27
26
24
23
22
23
23
22
22
22
21
22
23
24
24
25
26
26
28
30
31
33
34
36
38
42
45
49
53
57
62
68
74
81
87
94
101
108
115
121
127
133
137
140
142
144
144
142
139
135
129
121
113
102
90
76
60
44
28
10
-8
-27
-47
-67
-87
-107
-126
-145
-163
-181
-197
-213
-225
-237
-248
-257
-263
-269
-272
-273
-273
-271
-268
-263
-258
-251
-242
-232
-222
-213
-203
-192
-180
-169
-158
-148
-137
-127
-118
-108
-99
-90
-83
-75
-68
-60
-54
-47
-42
-36
-32
-27
-22
-18
-15
-12
-8
-6
-3
0
2
4
5
6
7
9
9
10
10
9
9
9
9
9
9
9
8
8
8
8
8
7
8
8
8
8
9
11
10
10
12
12
14
15
17
17
19
19
20
22
22
22
23
23
24
24
25
25
25
25
24
24
24
24
22
23
21
21
20
20
20
19
19
18
18
17
17
18
17
16
15
16
15
15
16
15
15
14
15
15
16
16
16
16
16
17
18
19
19
19
20
21
22
22
22
22
22
21
21
22
22
21
21
20
21
20
20
20
19
20
20
20
21
22
23
23
23
24
25
27
27
28
28
28
29
29
30
31
29
29
29
28
29
29
29
28
28
27
27
27
28
27
28
27
29
29
30
30
31
31
31
31
32
33
33
33
32
32
31
32
30
30
29
28
28
27
27
27
25
25
24
23
23
22
23
21
21
21
21
21
21
21
21
20
19
19
19
18
17
16
15
14
13
13
11
10
9
8
7
7
7
5
5
4
4
4
4
4
4
3
3
3
3
3
4
4
4
4
5
5
7
7
6
7
7
8
8
9
9
9
8
8
7
8
8
8
7
6
5
5
5
4
4
3
2
2
2
2
1
0
-1
-1
-1
-1
-2
-3
-4
-4
-4
-5
-4
-5
-6
-6
-8
-8
-8
-9
-10
-10
-11
-12
-12
-13
-14
-14
-15
-16
-16
-16
-17
-17
-19
-19
-20
-20
-20
-21
-21
-22
-22
-23
-24
-24
-24
-25
-25
-25
-26
-25
-25
-25
-25
-25
-25
-24
-23
-23
-23
-23
-22
-22
-22
-21
-21
-21
-22
-22
-22
-23
-22
-23
-23
-24
-25
-24
-24
-23
-24
-24
-23
-23
-22
-22
-22
-21
-20
-19
-19
-18
-16
-16
-15
-15
-13
-13
-12
-11
-10
-11
-10
-10
-10
-9
-9
-9
-9
-10
-8
-8
-7
-8
-7
-8
-7
-7
-7
-7
-7
-7
-6
-7
-6
-6
-6
-6
-6
-6
-6
-5
-4
-4
-4
-4
-3
-2
-2
-1
-1
0
1
2
3
3
4
4
3
3
3
4
4
4
4
3
2
2
1
1
0
-1
-2
-3
-3
-3
-4
-5
-6
-7
-7
-7
-7
-8
-8
-8
-8
-8
-7
-8
-8
-9
-9
-9
-8
-8
-8
-8
-9
-9
-9
-9
-9
-9
-9
-9
-10
-9
-9
-10
-11
-11
-11
-12
-11
-12
-13
-13
-14
-13
-14
-14
-15
-15
-17
-17
-18
-18
-18
-19
-19
-20
-20
-20
-21
-20
-21
-21
-22
-23
-23
-23
-22
-23
-23
-24
-23
-23
-23
-23
-24
-24
-24
-24
-24
-25
-26
-26
-28
-29
-29
-29
-29
-30
-31
-32
-32
-34
-34
-35
-35
-37
-37
-38
-37
-38
-37
-38
-38
-39
-38
-37
-36
-36
-35
-35
-33
-32
-30
-27
-25
-23
-22
-19
-16
-12
-9
-5
0
4
9
15
22
28
33
40
46
53
59
65
71
75
79
82
84
85
84
82
78
72
67
59
49
40
26
13
-2
-18
-33
-53
-71
-91
-111
-131
-151
-170
-190
-210
-228
-245
-260
-275
-288
-299
-309
-317
-322
-327
-328
-329
-329
-326
-322
-316
-308
-301
-292
-282
-273
-261
-250
-238
-227
-215
-206
-195
-184
-174
-165
-156
-147
-139
-131
-123
-116
-108
-102
-96
-91
-85
-81
-76
-71
-68
-65
-62
-58
-56
-53
-50
-49
-47
-46
-45
-44
-43
-41
-41
-41
-40
-39
-39
-38
-38
-38
-38
-37
-36
-35
-35
-35
-35
-35
-36
-36
-36
-35
-37
-37
-37
-37
-37
-38
-38
-39
-39
-39
-39
-39
-38
-39
-39
-40
-40
-39
-38
-38
-38
-38
-37
-37
-36
-36
-36
-36
-36
-36
-35
-34
-34
-34
-33
-34
-33
-33
-32
-32
-32
-32
-32
-31
-31
-30
-30
-30
-30
-30
-30
-29
-29
-29
-30
-30
-30
-30
-30
-31
-32
-32
-32
-32
-32
-32
-32
-32
-32
-31
-31
-30
-30
-29
-30
-30
-28
-27
-27
-26
-26
-25
-24
-24
-22
-21
-20
-20
-19
-18
-18
-17
-17
-16
-16
-16
-16
-15
-16
-16
-16
-17
-18
-18
-18
-18
-18
-19
-20
-19
-20
-20
-19
-20
-20
-20
-20
-20
-20
-20
-20
-20
-21
-20
-20
-20
-20
-20
-20
-20
-19
-19
-19
-18
-18
-17
-17
-16
-15
-15
-15
-15
-14
-13
-13
-12
-11
-11
-12
-11
-12
-11
-12
-12
-12
-13
-14
-13
-14
-14
-15
-15
-17
-17
-18
-17
-18
-19
-19
-19
-19
-19
-20
-20
-21
-22
-21
-22
-22
-22
-23
-24
-25
-25
-26
-26
-27
-27
-28
-28
-29
-28
-29
-30
-30
-31
-31
-30
-31
-31
-30
-31
-30
-31
-31
-31
-31
-32
-32
-33
-33
-33
-34
-35
-36
-37
-38
-38
-38
-39
-40
-41
-42
-42
-42
-42
-43
-43
-42
-42
-41
-41
-42
-42
-43
-43
-44
-43
-45
-44
-46
-46
-47
-48
-48
-49
-49
-51
-51
-52
-52
-52
-52
-52
-54
-55
-55
-55
-56
-56
-57
-57
-57
-58
-59
-58
-60
-61
-61
-62
-61
-62
-62
-62
-63
-64
-64
-64
-64
-64
-64
-65
-65
-65
-64
-64
-64
-65
-65
-65
-65
-65
-65
-66
-66
-67
-66
-66
-65
-66
-66
-66
-66
-66
-66
-65
-65
-65
-64
-64
-64
-62
-62
-62
-62
-62
-61
-61
-60
-60
-61
-61
-61
-60
-60
-59
-59
-59
-59
-59
-59
-59
-58
-58
-58
-58
-57
-57
-56
-55
-55
-54
-54
-52
-52
-50
-49
-49
-48
-48
-47
-46
-44
-44
-44
-43
-43
-42
-42
-41
-42
-41
-41
-41
-40
-40
-40
-40
-40
-40
-40
-39
-40
-40
-40
-41
-41
-41
-42
-42
-43
-44
-44
-44
-44
-44
-45
-45
-46
-45
-45
-45
-44
-45
-45
-45
-44
-43
-43
-43
-43
-43
-42
-42
-42
-42
-41
-42
-42
-43
-43
-43
-43
-43
-44
-43
-43
-43
-44
-44
-45
-45
-45
-45
-45
-45
-46
-46
-45
-46
-45
-46
-46
-46
-46
-46
-46
-45
-46
-46
-46
-47
-47
-47
-46
-47
-47
-48
-48
-48
-48
-48
-48
-48
-49
-48
-48
-47
-47
-47
-46
-44
-43
-40
-38
-35
-32
-27
-24
-18
-12
-5
2
8
14
22
29
37
43
50
55
60
64
66
68
69
68
64
60
54
47
39
28
16
2
-13
-29
-47
-65
-85
-105
-126
-147
-167
-189
-208
-227
-247
-264
-280
-294
-308
-320
-330
-338
-344
-347
-350
-350
-348
-346
-341
-336
-328
-319
-311
-301
-290
-281
-270
-258
-247
-237
-226
-216
-207
-197
-188
-181
-173
-165
-159
-153
-146
-139
-134
-129
-123
-118
-114
-110
-104
-101
-96
-94
-91
-88
-85
-82
-80
-78
-76
-75
-73
-72
-70
-70
-70
-69
-69
-68
-68
-67
-67
-68
-69
-69
-69
-68
-68
-68
-68
-68
-67
-67
-67
-66
-66
-66
-65
-63
-62
-61
-61
-61
-60
-60
-58
-57
-57
-56
-55
-55
-55
-54
-53
-53
-54
-53
-53
-53
-53
-52
-52
-53
-53
-54
-53
-54
-54
-55
-56
-57
-58
-58
-58
-60
-60
-61
-62
-61
-62
-62
-62
-64
-64
-64
-65
-64
-64
-65
-65
-65
-64
-64
-63
-63
-62
-61
-61
-60
-60
-59
-59
-59
-59
-57
-56
-55
-55
-54
-54
-54
-53
-52
-52
-52
-51
-51
-51
-50
-50
-50
-50
-51
-51
-52
-51
-51
-52
-51
-52
-52
-51
-50
-50
-49
-49
-50
-48
-48
-47
-46
-46
-46
-46
-44
-43
-43
-42
-42
-41
-41
-41
-40
-39
-39
-39
-39
-39
-39
-39
-39
-40
-40
-41
-42
-41
-42
-42
-43
-44
-44
-45
-45
-45
-45
-46
-47
-46
-46
-46
-46
-46
-46
-47
-47
-46
-47
-48
-49
-49
-50
-50
-51
-51
-52
-52
-54
-54
-55
-54
-54
-55
-56
-56
-56
-56
-56
-56
-57
-57
-57
-57
-56
-56
-56
-55
-56
-56
-55
-54
-55
-55
-55
-56
-56
-55
-56
-56
-57
-57
-57
-57
-58
-58
-59
-59
-60
-59
-59
-60
-60
-61
-61
-61
-62
-61
-62
-62
-62
-64
-64
-66
-65
-67
-68
-69
-71
-72
-73
-74
-76
-77
-78
-79
-81
-82
-82
-83
-85
-85
-86
-87
-86
-87
-87
-87
-87
-87
-86
-86
-85
-86
-86
-86
-86
-86
-85
-85
-85
-85
-85
-85
-85
-85
-85
-85
-87
-86
-86
-87
-87
-87
-88
-89
-89
-90
-90
-90
-91
-92
-93
-93
-93
-93
-94
-95
-95
-96
-95
-95
-95
-95
-96
-96
-95
-95
-94
-94
-95
-95
-95
-95
-94
-94
-94
-93
-93
-93
-91
-91
-90
-90
-89
-89
-88
-87
-86
-85
-85
-84
-84
-83
-82
-81
-80
-80
-79
-78
-77
-77
-76
-77
-76
-76
-75
-74
-72
-72
-71
-71
-71
-69
-69
-68
-68
-68
-68
-67
-67
-66
-66
-65
-65
-66
-65
-65
-65
-65
-66
-66
-66
-66
-66
-65
-66
-66
-66
-67
-66
-66
-66
-66
-66
-66
-66
-66
-65
-65
-65
-64
-65
-65
-64
-63
-64
-65
-65
-66
-66
-66
-67
-66
-67
-68
-68
-68
-67
-68
-69
-70
-70
-69
-70
-69
-69
-70
-70
-70
-70
-70
-70
-71
-71
-72
-72
-72
-72
-73
-73
-74
-75
-75
-75
-75
-76
-77
-78
-78
-78
-78
-79
-80
-80
-81
-81
-81
-80
-80
-81
-82
-82
-82
-82
-82
-81
-82
-82
-82
-82
-82
-81
-81
-82
-82
-81
-82
-81
-81
-81
-82
-81
-82
-81
-81
-81
-82
-81
-81
-81
-81
-81
-81
-82
-82
-83
-83
-84
-83
-85
-85
-85
-85
-85
-85
-85
-86
-85
-85
-85
-84
-82
-83
-82
-81
-80
-79
-79
-78
-78
-78
-78
-78
-77
-77
-77
-77
-77
-78
-77
-77
-76
-76
-76
-76
-74
-73
-70
-69
-67
-65
-61
-57
-52
-46
-40
-35
-27
-20
-12
-4
4
11
19
25
33
39
44
50
53
55
55
56
54
51
45
38
31
22
11
-1
-14
-30
-46
-64
-81
-101
-120
-139
-160
-182
-201
-221
-240
-258
-276
-293
-307
-320
-331
-340
-348
-353
-358
-361
-362
-361
-358
-353
-347
-340
-333
-323
-313
-302
-293
-282
-271
-261
-250
-240
-230
-221
-212
-204
-196
-187
-180
-173
-167
-160
-154
-149
-143
-137
-134
-129
-125
-122
-118
-114
-112
-109
-106
-104
-102
-100
-98
-97
-95
-95
-94
-92
-92
-91
-91
-91
-90
-90
-89
-89
-89
-89
-89
-89
-89
-89
-88
-88
-89
-90
-90
-89
-89
-89
-89
-89
-88
-88
-87
-86
-86
-85
-85
-85
-85
-84
-83
-82
-82
-82
-82
-80
-80
-79
-79
-79
-78
-78
-77
-77
-76
-76
-75
-75
-74
-72
-72
-72
-72
-71
-71
-70
-70
-70
-70
-69
-70
-70
-69
-69
-69
-69
-69
-70
-69
-69
-69
-69
-70
-69
-69
-68
-68
-67
-67
-67
-66
-66
-64
-63
-63
-63
-63
-63
-62
-61
-61
-61
-60
-61
-60
-59
-60
-59
-60
-61
-62
-62
-62
-61
-61
-62
-61
-62
-61
-61
-61
-61
-60
-61
-60
-58
-58
-56
-56
-54
-54
-52
-51
-51
-50
-49
-48
-48
-48
-47
-46
-46
-46
-46
-46
-46
-46
-45
-45
-45
-45
-46
-44
-44
-44
-42
-43
-42
-41
-41
-40
-41
-41
-41
-41
-40
-40
-41
-41
-40
-41
-41
-41
-41
-42
-42
-43
-44
-44
-45
-44
-46
-46
-47
-47
-48
-48
-48
-49
-50
-50
-51
-50
-51
-51
-51
-52
-53
-52
-53
-53
-53
-54
-55
-55
-57
-57
-56
-58
-59
-60
-61
-60
-60
-61
-61
-62
-63
-63
-63
-63
-62
-63
-62
-62
-60
-59
-59
-58
-58
-57
-57
-56
-55
-54
-54
-54
-54
-54
-54
-53
-54
-55
-56
-56
-57
-58
-59
-59
-61
-61
-62
-62
-63
-64
-65
-65
-65
-66
-65
-65
-65
-65
-67
-67
-67
-67
-67
-67
-68
-68
-68
-68
-68
-69
-69
-70
-71
-72
-73
-73
-74
-76
-77
-78
-79
-79
-80
-81
-81
-82
-83
-83
-84
-85
-87
-87
-88
-88
-88
-88
-88
-89
-89
-90
-91
-91
-92
-92
-92
-93
-94
-93
-93
-94
-93
-94
-94
-94
-94
-94
-94
-94
-94
-94
-93
-93
-92
-91
-92
-91
-91
-89
-89
-89
-88
-88
-88
-87
-86
-86
-86
-85
-86
-85
-84
-84
-84
-84
-83
-84
-83
-82
-82
-81
-82
-81
-83
-82
-82
-81
-82
-82
-82
-81
-81
-80
-79
-79
-79
-78
-79
-78
-78
-77
-77
-78
-78
-78
-76
-76
-76
-76
-75
-74
-74
-73
-73
-72
-73
-72
-72
-70
-68
-69
-68
-68
-67
-67
-66
-67
-67
-67
-68
-67
-67
-67
-67
-67
-67
-68
-68
-68
-68
-67
-67
-67
-67
-66
-67
-66
-65
-66
-66
-66
-67
-66
-67
-68
-69
-70
-70
-70
-70
-70
-70
-71
-71
-71
-71
-70
-71
-71
-72
-72
-72
-71
-71
-71
-71
-71
-72
-71
-71
-72
-73
-74
-75
-76
-76
-76
-76
-77
-78
-77
-77
-78
-77
-77
-78
-78
-78
-77
-76
-77
-76
-76
-76
-75
-74
-74
-74
-73
-74
-74
-74
-74
-73
-74
-74
-74
-74
-73
-74
-74
-74
-75
-75
-75
-75
-75
-76
-77
-77
-77
-78
-77
-77
-78
-78
-78
-78
-78
-78
-77
-78
-77
-78
-78
-77
-77
-77
-77
-78
-78
-77
-77
-77
-78
-78
-79
-80
-79
-79
-79
-80
-80
-81
-81
-82
-82
-82
-82
-83
-83
-83
-83
-83
-83
-84
-84
-84
-84
-83
-84
-84
-84
-84
-84
-84
-84
-83
-84
-84
-83
-82
-82
-80
-78
-76
-73
-70
-66
-61
-57
-51
-46
-39
-32
-24
-16
-8
-1
7
14
21
28
34
39
42
44
46
46
45
42
36
29
22
12
2
-11
-24
-40
-57
-74
-91
-109
-128
-147
-167
-186
-206
-224
-243
-260
-277
-292
-307
-320
-330
-340
-349
-355
-361
-364
-366
-365
-362
-359
-354
-347
-339
-331
-321
-311
-301
-291
-281
-269
-259
-247
-238
-228
-217
-208
-199
-190
-181
-175
-168
-161
-155
-149
-143
-137
-133
-129
-124
-120
-116
-113
-109
-107
-104
-103
-101
-99
-98
-97
-96
-96
-94
-93
-92
-92
-92
-92
-93
-92
-92
-92
-92
-92
-93
-93
-93
-93
-93
-92
-94
-93
-93
-92
-92
-91
-91
-91
-90
-89
-87
-87
-86
-85
-84
-82
-81
-79
-79
-77
-77
-75
-74
-73
-72
-71
-71
-71
-71
-71
-70
-70
-70
-71
-70
-71
-71
-71
-71
-71
-71
-72
-71
-71
-71
-71
-71
-72
-72
-71
-71
-70
-70
-71
-70
-71
-70
-70
-71
-70
-71
-71
-71
-70
-70
-69
-69
-69
-69
-69
-68
-68
-68
-67
-67
-67
-65
-65
-65
-64
-65
-64
-64
-63
-63
-62
-63
-64
-65
-63
-64
-63
-62
-62
-62
-62
-61
-61
-59
-58
-58
-57
-55
-54
-53
-52
-51
-51
-50
-49
-48
-47
-45
-45
-44
-44
-43
-42
-42
-41
-42
-41
-40
-40
-39
-39
-38
-38
-39
-39
-38
-38
-38
-38
-39
-39
-39
-39
-39
-39
-40
-41
-41
-42
-41
-42
-43
-43
-44
-44
-45
-44
-45
-45
-46
-46
-45
-46
-46
-47
-48
-48
-48
-49
-48
-49
-50
-51
-52
-53
-54
-54
-56
-56
-58
-60
-60
-61
-62
-63
-65
-67
-67
-68
-69
-69
-70
-70
-70
-70
-70
-69
-69
-70
-69
-69
-68
-67
-66
-65
-66
-66
-65
-65
-64
-65
-64
-65
-66
-67
-67
-67
-68
-69
-70
-70
-71
-71
-71
-71
-71
-72
-72
-71
-70
-70
-70
-70
-70
-69
-69
-68
-69
-70
-70
-70
-70
-70
-70
-70
-71
-71
-71
-72
-71
-72
-73
-73
-73
-73
-74
-74
-75
-75
-76
-78
-78
-79
-79
-79
-80
-81
-82
-82
-82
-83
-83
-83
-84
-84
-83
-84
-83
-83
-83
-84
-84
-82
-82
-82
-83
-82
-81
-81
-80
-80
-81
-81
-82
-82
-82
-82
-82
-82
-82
-83
-82
-82
-82
-82
-83
-83
-82
-81
-81
-79
-79
-80
-79
-78
-78
-77
-76
-75
-76
-75
-74
-73
-73
-72
-72
-72
-71
-71
-70
-70
-70
-70
-70
-69
-69
-68
-68
-68
-67
-67
-66
-64
-64
-63
-63
-62
-62
-60
-59
-59
-58
-57
-57
-56
-56
-56
-56
-55
-56
-55
-55
-55
-54
-55
-56
-55
-54
-54
-54
-54
-55
-55
-56
-56
-55
-55
-57
-57
-57
-57
-57
-56
-56
-57
-57
-57
-57
-57
-57
-57
-56
-56
-55
-55
-54
-54
-54
-55
-55
-55
-55
-55
-55
-56
-57
-57
-57
-57
-58
-58
-59
-60
-61
-61
-62
-61
-62
-63
-63
-63
-63
-63
-63
-63
-64
-63
-63
-63
-63
-62
-62
-62
-62
-60
-60
-60
-59
-59
-59
-58
-58
-57
-56
-56
-56
-55
-54
-53
-53
-52
-53
-53
-53
-53
-52
-53
-53
-54
-53
-53
-54
-53
-54
-54
-55
-55
-55
-55
-55
-55
-56
-56
-56
-56
-56
-56
-57
-57
-58
-58
-58
-58
-58
-59
-61
-61
-61
-60
-61
-61
-61
-62
-62
-62
-63
-62
-63
-64
-63
-63
-63
-63
-63
-62
-63
-63
-63
-63
-63
-63
-63
-63
-63
-62
-62
-61
-61
-62
-61
-61
-61
-60
-60
-60
-61
-60
-59
-59
-58
-58
-58
-57
-58
-58
-57
-58
-58
-58
-58
-59
-58
-58
-58
-57
-57
-57
-57
-56
-55
-55
-54
-53
-52
-50
-48
-45
-42
-38
-34
-30
-24
-18
-12
-6
1
7
15
23
30
37
44
49
53
57
60
61
61
60
56
52
47
40
30
19
