# Simple Text Format
# Sampling Rate (Hz):= 1200.00
# Resolution:= 12
# Labels:= ECG	 V6
# Age:=	80
# Gender:=	Feminino
-96
-95
-95
-94
-93
-93
-92
-93
-92
-92
-90
-89
-89
-89
-88
-88
-87
-86
-86
-85
-85
-84
-84
-83
-83
-84
-85
-85
-86
-86
-86
-86
-86
-87
-87
-88
-86
-87
-86
-87
-87
-87
-87
-86
-85
-85
-85
-84
-84
-83
-82
-82
-81
-81
-82
-80
-81
-80
-80
-81
-81
-81
-82
-82
-82
-82
-83
-84
-85
-85
-85
-85
-86
-86
-87
-87
-86
-86
-86
-86
-86
-86
-86
-85
-84
-84
-84
-84
-84
-83
-82
-82
-81
-81
-82
-82
-82
-82
-82
-82
-83
-83
-84
-85
-85
-85
-87
-87
-88
-89
-89
-89
-90
-91
-90
-90
-89
-89
-88
-88
-87
-86
-84
-82
-81
-80
-78
-76
-76
-74
-72
-71
-70
-70
-69
-69
-68
-67
-67
-67
-67
-67
-66
-66
-67
-67
-68
-69
-69
-69
-69
-69
-70
-70
-71
-71
-71
-71
-72
-72
-72
-72
-72
-72
-72
-73
-73
-73
-73
-73
-71
-71
-71
-70
-70
-70
-70
-69
-69
-69
-69
-69
-69
-69
-69
-70
-70
-71
-72
-73
-73
-75
-75
-76
-77
-77
-77
-77
-77
-77
-77
-76
-75
-73
-72
-71
-70
-68
-66
-65
-62
-60
-60
-59
-58
-58
-57
-56
-55
-55
-56
-56
-56
-56
-56
-57
-57
-59
-59
-60
-60
-61
-61
-62
-62
-63
-63
-63
-64
-63
-64
-64
-64
-63
-64
-64
-64
-64
-64
-63
-62
-62
-62
-62
-62
-62
-61
-61
-61
-60
-60
-60
-60
-59
-59
-59
-59
-58
-60
-59
-58
-59
-60
-60
-60
-61
-60
-61
-62
-62
-63
-64
-63
-64
-64
-65
-66
-67
-67
-69
-69
-70
-71
-73
-74
-74
-74
-74
-74
-75
-76
-76
-75
-75
-75
-75
-75
-75
-74
-73
-72
-72
-71
-70
-69
-68
-67
-66
-66
-65
-66
-65
-65
-65
-65
-65
-65
-66
-66
-66
-66
-67
-68
-68
-68
-69
-69
-69
-69
-68
-68
-68
-68
-67
-66
-66
-65
-65
-64
-63
-62
-62
-61
-61
-61
-60
-59
-59
-59
-60
-59
-60
-60
-60
-60
-61
-61
-62
-63
-64
-64
-65
-66
-67
-68
-70
-70
-70
-72
-72
-73
-74
-75
-75
-76
-76
-76
-76
-77
-77
-77
-78
-78
-78
-79
-79
-80
-79
-79
-79
-80
-79
-80
-79
-79
-79
-79
-79
-78
-77
-76
-74
-73
-73
-72
-71
-69
-69
-67
-67
-67
-66
-65
-65
-64
-65
-65
-66
-66
-66
-68
-69
-70
-71
-73
-74
-74
-76
-76
-77
-78
-78
-79
-79
-80
-80
-82
-82
-83
-82
-82
-82
-82
-82
-82
-82
-81
-81
-81
-81
-81
-82
-82
-81
-82
-83
-84
-85
-86
-86
-86
-87
-88
-88
-88
-88
-87
-86
-85
-83
-82
-80
-77
-74
-70
-66
-61
-56
-51
-45
-38
-32
-25
-19
-12
-6
1
8
15
22
28
35
40
46
52
55
59
62
64
66
68
67
65
64
60
56
51
45
39
32
23
14
4
-6
-16
-27
-39
-50
-62
-72
-84
-95
-105
-115
-125
-134
-141
-148
-156
-162
-168
-173
-177
-179
-182
-183
-184
-185
-185
-184
-183
-181
-180
-178
-175
-173
-169
-166
-163
-160
-158
-154
-151
-148
-145
-143
-140
-137
-135
-131
-128
-125
-122
-119
-116
-114
-111
-108
-106
-104
-102
-99
-96
-94
-91
-89
-88
-86
-85
-83
-82
-82
-81
-81
-81
-80
-81
-81
-80
-81
-81
-81
-81
-81
-82
-83
-83
-83
-83
-84
-84
-83
-84
-84
-85
-85
-85
-84
-83
-84
-83
-83
-84
-82
-83
-82
-83
-82
-83
-82
-82
-83
-83
-83
-83
-83
-82
-82
-81
-80
-80
-80
-79
-78
-77
-77
-77
-77
-76
-75
-75
-74
-73
-74
-74
-74
-73
-74
-73
-75
-75
-75
-74
-75
-74
-74
-73
-73
-73
-73
-72
-71
-72
-71
-70
-69
-68
-68
-67
-67
-67
-67
-66
-65
-65
-65
-65
-65
-66
-65
-65
-66
-66
-66
-67
-68
-67
-67
-68
-68
-68
-68
-69
-68
-67
-68
-68
-69
-68
-67
-67
-67
-68
-67
-67
-68
-67
-68
-67
-68
-68
-69
-69
-69
-68
-68
-68
-69
-69
-68
-69
-68
-68
-67
-67
-67
-67
-66
-66
-65
-66
-65
-65
-64
-63
-64
-64
-64
-65
-64
-63
-63
-63
-63
-62
-62
-61
-60
-60
-60
-60
-59
-59
-58
-57
-56
-57
-56
-55
-55
-55
-54
-55
-55
-54
-55
-54
-55
-54
-55
-56
-56
-57
-56
-57
-57
-58
-59
-60
-59
-61
-60
-61
-62
-63
-63
-63
-63
-63
-64
-65
-65
-65
-65
-66
-65
-66
-66
-67
-67
-66
-67
-67
-67
-67
-66
-67
-65
-64
-64
-63
-63
-62
-61
-61
-60
-60
-60
-59
-59
-59
-58
-58
-59
-59
-59
-60
-59
-60
-60
-61
-61
-61
-61
-62
-62
-62
-63
-63
-63
-63
-64
-64
-64
-64
-65
-64
-65
-65
-65
-66
-66
-67
-66
-67
-67
-67
-68
-69
-69
-69
-69
-69
-70
-70
-70
-71
-70
-70
-71
-71
-71
-72
-71
-70
-69
-70
-71
-71
-70
-70
-71
-71
-72
-72
-72
-71
-70
-70
-71
-71
-70
-70
-69
-68
-67
-68
-67
-66
-65
-63
-62
-61
-60
-61
-59
-58
-58
-57
-57
-58
-56
-56
-56
-56
-56
-57
-58
-59
-59
-59
-59
-59
-60
-60
-60
-60
-60
-60
-60
-61
-61
-61
-60
-60
-60
-61
-61
-61
-62
-62
-62
-62
-63
-63
-63
-64
-64
-63
-65
-64
-66
-65
-65
-65
-65
-65
-65
-65
-64
-63
-63
-63
-62
-63
-62
-61
-61
-61
-61
-61
-61
-60
-61
-61
-61
-62
-62
-63
-63
-64
-64
-65
-66
-66
-66
-66
-66
-65
-66
-66
-65
-65
-65
-64
-64
-64
-64
-63
-62
-61
-61
-60
-61
-60
-60
-60
-60
-59
-59
-59
-58
-58
-57
-57
-57
-57
-57
-57
-57
-57
-57
-57
-58
-59
-59
-60
-60
-60
-62
-62
-62
-63
-63
-64
-65
-65
-66
-67
-67
-67
-68
-68
-69
-69
-69
-69
-69
-69
-70
-70
-70
-70
-70
-70
-69
-69
-69
-69
-68
-67
-66
-65
-64
-63
-62
-60
-58
-56
-53
-51
-48
-44
-40
-36
-31
-27
-22
-17
-11
-4
2
10
16
23
31
39
47
53
60
66
71
77
82
86
89
90
91
92
91
90
86
82
76
70
63
55
46
37
26
15
4
-7
-18
-30
-42
-54
-66
-77
-88
-98
-108
-117
-126
-134
-142
-147
-153
-158
-162
-166
-169
-171
-171
-172
-172
-170
-170
-168
-164
-162
-158
-155
-152
-149
-145
-141
-136
-132
-128
-124
-120
-116
-113
-109
-107
-104
-102
-99
-96
-94
-92
-91
-89
-89
-88
-87
-86
-85
-85
-86
-85
-85
-84
-84
-84
-83
-83
-82
-83
-82
-81
-80
-80
-80
-78
-78
-77
-75
-75
-74
-74
-73
-72
-71
-71
-72
-72
-72
-72
-72
-72
-72
-73
-74
-75
-76
-76
-77
-78
-78
-79
-79
-79
-79
-80
-80
-81
-81
-81
-80
-80
-80
-79
-80
-80
-79
-79
-79
-79
-80
-81
-80
-80
-81
-81
-81
-81
-81
-81
-81
-81
-82
-82
-82
-82
-82
-81
-82
-82
-83
-83
-83
-82
-82
-82
-83
-84
-84
-84
-85
-86
-86
-86
-87
-88
-86
-87
-86
-87
-87
-86
-85
-84
-83
-82
-80
-80
-78
-78
-76
-75
-75
-75
-74
-74
-74
-72
-72
-73
-73
-73
-73
-73
-73
-74
-75
-75
-75
-75
-75
-75
-75
-75
-76
-76
-75
-75
-75
-76
-76
-76
-75
-75
-76
-76
-76
-77
-77
-76
-77
-77
-77
-77
-77
-77
-77
-76
-76
-76
-77
-77
-76
-75
-75
-75
-75
-75
-75
-74
-74
-73
-73
-74
-74
-74
-73
-73
-72
-72
-72
-72
-71
-71
-70
-71
-70
-71
-71
-71
-70
-71
-71
-71
-73
-72
-72
-73
-73
-74
-75
-74
-75
-73
-73
-73
-74
-73
-73
-72
-72
-71
-70
-70
-69
-69
-68
-68
-67
-66
-67
-67
-66
-66
-66
-66
-67
-68
-69
-69
-71
-71
-72
-73
-74
-75
-75
-75
-76
-76
-77
-78
-78
-78
-78
-78
-77
-77
-76
-76
-75
-74
-74
-74
-74
-73
-73
-72
-72
-72
-72
-72
-71
-71
-72
-72
-73
-73
-74
-74
-74
-75
-76
-76
-77
-77
-78
-77
-78
-79
-78
-78
-78
-78
-78
-77
-77
-76
-76
-76
-75
-74
-73
-74
-73
-74
-73
-73
-73
-73
-74
-75
-76
-76
-78
-79
-80
-82
-82
-83
-84
-83
-84
-84
-85
-85
-84
-83
-83
-82
-81
-80
-78
-77
-76
-74
-73
-72
-71
-71
-70
-68
-68
-68
-69
-68
-68
-68
-68
-68
-69
-69
-69
-69
-69
-70
-70
-71
-73
-73
-73
-73
-74
-74
-74
-75
-75
-75
-75
-76
-76
-77
-76
-76
-75
-75
-76
-76
-77
-76
-76
-76
-76
-76
-77
-76
-76
-76
-77
-77
-77
-77
-77
-76
-76
-75
-76
-76
-76
-77
-75
-76
-75
-75
-75
-75
-75
-74
-74
-74
-74
-74
-74
-74
-74
-74
-75
-75
-76
-76
-76
-77
-78
-79
-80
-80
-81
-81
-82
-83
-84
-85
-85
-84
-85
-85
-85
-86
-86
-86
-86
-86
-85
-85
-84
-84
-84
-83
-82
-82
-82
-81
-81
-81
-81
-81
-81
-82
-83
-83
-83
-83
-83
-84
-85
-85
-86
-86
-86
-87
-88
-89
-89
-89
-89
-89
-90
-91
-90
-90
-90
-90
-90
-92
-91
-92
-92
-92
-92
-91
-92
-92
-92
-92
-91
-91
-91
-91
-91
-90
-89
-89
-88
-89
-88
-88
-86
-86
-85
-83
-81
-79
-76
-72
-69
-65
-61
-57
-52
-46
-39
-34
-26
-20
-12
-4
3
11
18
25
31
37
43
48
52
55
57
58
59
58
56
53
48
42
35
27
19
10
0
-11
-22
-34
-45
-57
-69
-81
-93
-106
-118
-128
-139
-148
-158
-166
-174
-181
-186
-191
-194
-198
-202
-203
-205
-205
-205
-204
-203
-202
-201
-198
-195
-192
-189
-187
-184
-180
-178
-174
-170
-168
-165
-163
-160
-157
-153
-151
-149
-147
-146
-144
-142
-141
-140
-140
-138
-138
-137
-136
-136
-136
-137
-137
-137
-137
-137
-137
-138
-139
-139
-139
-139
-138
-139
-139
-138
-139
-138
-138
-138
-138
-138
-139
-138
-137
-138
-137
-136
-137
-136
-136
-136
-136
-137
-137
-138
-138
-138
-138
-138
-138
-138
-139
-138
-139
-138
-138
-138
-138
-139
-138
-137
-138
-137
-138
-138
-137
-138
-138
-138
-138
-138
-138
-138
-138
-137
-138
-138
-138
-139
-139
-138
-137
-138
-137
-137
-137
-137
-136
-137
-136
-137
-136
-136
-136
-135
-136
-137
-137
-138
-138
-139
-139
-139
-139
-140
-141
-141
-141
-142
-142
-142
-143
-143
-143
-142
-142
-142
-143
-143
-143
-142
-142
-141
-142
-142
-142
-141
-141
-141
-141
-142
-142
-143
-143
-144
-144
-145
-145
-146
-146
-146
-146
-147
-147
-148
-149
-148
-149
-149
-149
-149
-150
-150
-149
-149
-149
-149
-149
-149
-148
-149
-149
-148
-148
-148
-148
-147
-146
-146
-146
-146
-146
-146
-145
-145
-145
-146
-147
-147
-148
-147
-147
-149
-149
-150
-150
-151
-152
-152
-153
-155
-156
-155
-156
-156
-156
-156
-157
-156
-157
-156
-156
-156
-156
-156
-156
-155
-154
-154
-153
-153
-152
-152
-151
-151
-151
-150
-151
-150
-149
-149
-148
-147
-148
-147
-147
-147
-147
-146
-146
-147
-147
-147
-146
-147
-147
-148
-148
-149
-150
-150
-151
-152
-153
-154
-154
-155
-156
-155
-157
-157
-157
-156
-156
-156
-155
-155
-156
-156
-156
-156
-155
-156
-155
-155
-155
-155
-156
-156
-157
-157
-157
-159
-159
-160
-161
-162
-164
-164
-166
-165
-167
-167
-168
-168
-169
-169
-168
-168
-169
-169
-169
-169
-168
-167
-167
-167
-167
-166
-166
-165
-165
-165
-166
-165
-167
-166
-167
-168
-168
-170
-171
-172
-171
-172
-172
-174
-175
-175
-176
-176
-175
-177
-177
-178
-177
-178
-177
-176
-177
-176
-176
-175
-174
-173
-173
-173
-174
-173
-172
-172
-172
-171
-172
-172
-172
-171
-171
-171
-171
-171
-172
-172
-172
-172
-172
-173
-174
-173
-173
-172
-172
-173
-173
-174
-173
-173
-172
-172
-173
-172
-172
-172
-172
-171
-171
-171
-170
-170
-170
-168
-168
-168
-168
-168
-168
-167
-166
-166
-165
-165
-165
-164
-163
-162
-162
-161
-162
-162
-161
-161
-161
-160
-161
-161
-161
-161
-161
-161
-161
-161
-161
-161
-161
-161
-162
-161
-163
-163
-163
-163
-163
-164
-164
-165
-165
-165
-166
-166
-166
-167
-167
-168
-168
-167
-167
-168
-169
-169
-170
-169
-169
-170
-170
-171
-170
-170
-171
-170
-171
-171
-170
-171
-170
-169
-169
-169
-169
-169
-168
-168
-167
-166
-166
-166
-166
-164
-164
-163
-162
-162
-162
-162
-161
-160
-160
-160
-160
-161
-160
-160
-161
-162
-163
-164
-165
-165
-165
-166
-167
-168
-168
-169
-169
-169
-169
-170
-171
-171
-171
-171
-171
-171
-171
-172
-173
-173
-172
-173
-173
-173
-174
-174
-174
-174
-175
-175
-176
-176
-177
-176
-177
-177
-176
-176
-176
-176
-175
-175
-174
-175
-174
-174
-173
-172
-171
-171
-171
-170
-170
-169
-168
-169
-170
-170
-170
-171
-171
-171
-172
-172
-173
-174
-173
-174
-174
-175
-177
-176
-177
-177
-177
-177
-177
-178
-178
-177
-177
-177
-177
-177
-176
-175
-174
-173
-173
-172
-172
-171
-170
-169
-168
-167
-165
-164
-162
-160
-158
-154
-151
-148
-144
-139
-133
-128
-122
-116
-110
-103
-96
-87
-80
-71
-62
-54
-47
-39
-32
-25
-19
-14
-10
-7
-3
-2
-2
-3
-5
-8
-12
-17
-23
-31
-39
-49
-60
-70
-82
-94
-105
-117
-130
-141
-154
-165
-177
-189
-200
-211
-220
-228
-237
-244
-251
-257
-262
-267
-270
-272
-275
-276
-277
-277
-276
-274
-273
-271
-269
-266
-263
-260
-257
-253
-250
-246
-243
-239
-235
-232
-229
-226
-224
-220
-218
-215
-212
-210
-208
-207
-204
-202
-200
-199
-197
-196
-195
-193
-192
-190
-190
-190
-189
-188
-186
-186
-185
-185
-184
-184
-184
-183
-184
-183
-184
-183
-183
-183
-183
-183
-183
-182
-183
-183
-183
-183
-183
-182
-183
-182
-181
-180
-180
-179
-179
-178
-178
-177
-176
-176
-176
-175
-174
-174
-173
-172
-172
-172
-172
-173
-172
-172
-172
-173
-174
-174
-174
-173
-173
-174
-173
-173
-173
-173
-172
-171
-171
-170
-170
-169
-168
-167
-167
-167
-166
-166
-165
-165
-165
-164
-164
-164
-164
-164
-164
-164
-165
-165
-165
-166
-166
-165
-165
-165
-165
-165
-165
-165
-164
-163
-163
-163
-163
-161
-160
-160
-160
-159
-159
-159
-159
-159
-158
-159
-158
-159
-159
-159
-158
-159
-159
-160
-160
-161
-162
-161
-161
-162
-162
-163
-162
-162
-162
-162
-162
-162
-161
-162
-161
-160
-161
-160
-160
-160
-160
-159
-160
-160
-160
-160
-160
-160
-161
-162
-163
-163
-164
-163
-164
-164
-164
-164
-165
-164
-164
-163
-163
-162
-162
-162
-161
-160
-159
-159
-158
-158
-157
-156
-156
-155
-155
-155
-154
-154
-153
-153
-152
-151
-151
-151
-150
-150
-150
-150
-151
-152
-152
-152
-152
-152
-152
-153
-153
-154
-153
-154
-156
-156
-157
-158
-158
-158
-158
-158
-159
-159
-158
-158
-158
-158
-158
-158
-158
-157
-156
-155
-155
-155
-156
-155
-154
-154
-154
-154
-155
-156
-156
-156
-157
-157
-158
-159
-159
-158
-158
-158
-158
-159
-160
-159
-159
-159
-159
-158
-158
-157
-158
-157
-156
-156
-156
-155
-155
-155
-154
-153
-153
-153
-154
-154
-153
-153
-153
-153
-153
-154
-154
-154
-154
-154
-155
-155
-155
-156
-156
-156
-157
-158
-158
-158
-159
-159
-159
-160
-161
-162
-162
-162
-163
-162
-163
-163
-163
-163
-163
-163
-163
-164
-164
-164
-164
-163
-163
-162
-163
-162
-162
-162
-161
-161
-162
-162
-163
-162
-162
-162
-163
-164
-165
-165
-166
-166
-167
-167
-168
-168
-169
-169
-169
-169
-169
-170
-171
-171
-170
-169
-168
-168
-168
-167
-167
-166
-165
-165
-166
-165
-165
-164
-164
-163
-163
-164
-164
-163
-163
-162
-162
-163
-162
-162
-162
-161
-161
-161
-160
-160
-160
-158
-157
-156
-157
-156
-157
-156
-155
-154
-154
-153
-154
-153
-153
-153
-152
-153
-152
-152
-152
-151
-150
-149
-147
-146
-144
-141
-138
-134
-130
-127
-123
-118
-112
-106
-100
-95
-89
-81
-73
-67
-58
-51
-44
-38
-31
-26
-20
-15
-12
-9
-8
-7
-7
-8
-12
-16
-21
-28
-35
-44
-54
-64
-75
-86
-99
-110
-123
-135
-147
-160
-171
-183
-192
-202
-210
-218
-226
-233
-239
-242
-246
-250
-252
-254
-255
-255
-254
-253
-251
-249
-248
-245
-242
-239
-236
-233
-230
-227
-223
-219
-217
-213
-210
-208
-205
-203
-200
-198
-195
-194
-192
-190
-189
-188
-187
-186
-185
-185
-184
-184
-183
-182
-181
-181
-181
-179
-178
-179
-178
-179
-180
-179
-180
-179
-178
-179
-178
-179
-178
-178
-177
-177
-176
-176
-176
-175
-175
-174
-172
-171
-171
-170
-169
-169
-168
-168
-168
-168
-168
-167
-168
-168
-169
-170
-171
-170
-172
-172
-173
-174
-176
-176
-177
-178
-179
-180
-180
-182
-182
-182
-183
-183
-183
-183
-184
-184
-183
-184
-183
-183
-183
-183
-183
-182
-181
-181
-181
-181
-181
-180
-180
-180
-179
-180
-179
-179
-179
-179
-180
-180
-181
-182
-182
-182
-182
-182
-183
-184
-185
-184
-185
-185
-185
-185
-184
-184
-183
-182
-182
-183
-182
-182
-181
-181
-180
-181
-181
-181
-183
-182
-183
-183
-183
-184
-185
-185
-185
-186
-186
-186
-187
-187
-188
-188
-187
-187
-186
-185
-185
-184
-183
-183
-181
-181
-180
-180
-178
-178
-177
-177
-176
-176
-175
-175
-175
-175
-175
-175
-176
-176
-176
-176
-176
-177
-177
-177
-178
-178
-179
-180
-180
-182
-182
-182
-182
-183
-183
-183
-184
-184
-184
-184
-185
-186
-186
-185
-185
-185
-184
-185
-186
-186
-186
-185
-184
-185
-186
-185
-185
-185
-184
-184
-184
-184
-184
-184
-182
-183
-181
-182
-181
-181
-179
-178
-177
-177
-177
-176
-176
-176
-176
-176
-176
-177
-177
-176
-176
-176
-177
-177
-178
-180
-180
-181
-181
-182
-183
-183
-183
-184
-184
-184
-184
-185
-185
-184
-184
-184
-184
-184
-184
-184
-184
-183
-182
-183
-182
-183
-183
-184
-183
-183
-183
-184
-183
-184
-184
-184
-185
-187
-187
-188
-189
-189
-189
-190
-190
-191
-192
-192
-192
-192
-192
-193
-193
-193
-193
-193
-192
-193
-194
-194
-195
-195
-195
-196
-196
-197
-196
-196
-197
-197
-196
-198
-198
-199
-198
-199
-199
-200
-200
-200
-201
-200
-200
-200
-200
-200
-200
-200
-200
-200
-200
-200
-199
-199
-198
-197
-196
-195
-195
-194
-193
-192
-191
-190
-191
-190
-190
-189
-190
-189
-189
-189
-189
-189
-189
-188
-188
-188
-189
-188
-188
-189
-188
-188
-189
-188
-189
-188
-188
-189
-189
-189
-189
-190
-190
-189
-188
-189
-190
-189
-189
-189
-189
-189
-189
-189
-189
-189
-189
-189
-189
-189
-189
-189
-189
-190
-190
-190
-191
-191
-191
-190
-190
-191
-192
-192
-192
-193
-193
-193
-192
-193
-193
-193
-193
-193
-193
-192
-192
-193
-193
-192
-192
-192
-191
-192
-192
-192
-192
-192
-192
-192
-193
-192
-192
-193
-193
-194
-195
-195
-195
-196
-195
-195
-195
-196
-196
-195
-196
-195
-195
-196
-196
-196
-196
-196
-196
-197
-197
-198
-198
-198
-199
-199
-200
-200
-201
-202
-201
-202
-203
-202
-203
-203
-202
-202
-202
-202
-202
-202
-202
-202
-201
-201
-202
-202
-202
-202
-201
-202
-203
-203
-203
-203
-202
-202
-203
-203
-203
-203
-202
-202
-202
-201
-202
-201
-201
-200
-200
-199
-199
-198
-198
-199
-198
-198
-199
-198
-199
-200
-201
-200
-201
-202
-203
-203
-204
-205
-206
-206
-208
-209
-210
-211
-210
-211
-211
-211
-212
-211
-211
-210
-209
-209
-209
-208
-207
-204
-202
-199
-195
-193
-190
-186
-182
-177
-172
-168
-162
-157
-151
-144
-137
-131
-123
-117
-110
-102
-95
-88
-81
-76
-70
-66
-62
-59
-57
-56
-58
-59
-61
-65
-69
-75
-83
-91
-100
-110
-120
-131
-143
-155
-168
-181
-193
-205
-217
-228
-240
-251
-261
-269
-278
-286
-294
-300
-307
-311
-314
-317
-320
-321
-323
-323
-322
-321
-320
-317
-315
-312
-309
-306
-302
-298
-294
-291
-287
-283
-279
-275
-271
-268
-265
-261
-258
-255
-251
-250
-247
-245
-242
-240
-238
-236
-235
-233
-232
-231
-230
-229
-228
-227
-227
-226
-225
-225
-225
-224
-224
-224
-224
-224
-223
-222
-223
-222
-223
-223
-222
-223
-223
-222
-222
-222
-222
-222
-222
-222
-223
-223
-223
-223
-223
-223
-222
-223
-223
-223
-222
-223
-222
-223
-223
-222
-222
-222
-222
-222
-223
-224
-223
-224
-224
-224
-225
-225
-225
-225
-225
-226
-226
-226
-227
-226
-225
-225
-225
-223
-224
-223
-222
-222
-221
-220
-219
-218
-218
-216
-214
-214
-213
-212
-212
-212
-210
-210
-210
-210
-211
-212
-212
-212
-213
-213
-214
-215
-216
-217
-218
-218
-219
-219
-220
-220
-220
-220
-221
-220
-221
-221
-220
-219
-218
-217
-218
-217
-217
-216
-214
-214
-213
-214
-213
-212
-211
-212
-211
-212
-213
-212
-213
-213
-213
-214
-214
-215
-216
-217
-218
-219
-220
-221
-222
-222
-223
-222
-222
-222
-222
-223
-222
-222
-222
-222
-221
-220
-220
-218
-217
-217
-216
-215
-214
-214
-212
-212
-210
-210
-210
-210
-208
-208
-207
-207
-208
-207
-207
-208
-208
-207
-209
-208
-210
-210
-210
-210
-211
-212
-213
-214
-214
-214
-214
-214
-215
-216
-216
-216
-216
-215
-216
-215
-216
-215
-214
-213
-214
-214
-213
-213
-212
-211
-211
-211
-210
-210
-210
-209
-207
-207
-207
-207
-207
-207
-207
-206
-207
-208
-208
-209
-208
-209
-209
-210
-211
-211
-211
-211
-211
-212
-212
-213
-213
-213
-212
-211
-211
-211
-211
-211
-211
-211
-210
-210
-210
-210
-210
-210
-209
-209
-209
-210
-211
-210
-211
-210
-211
-211
-211
-213
-212
-212
-212
-212
-213
-213
-214
-213
-212
-213
-212
-213
-214
-214
-213
-213
-213
-213
-214
-214
-215
-215
-215
-216
-216
-216
-216
-216
-215
-216
-216
-216
-216
-215
-214
-214
-214
-214
-214
-214
-213
-213
-214
-215
-215
-216
-217
-217
-217
-218
-218
-220
-220
-220
-220
-221
-221
-221
-221
-221
-221
-220
-219
-219
-219
-218
-218
-217
-216
-216
-216
-216
-216
-215
-214
-214
-214
-214
-214
-214
-214
-213
-212
-211
-211
-210
-210
-208
-208
-208
-208
-208
-207
-207
-206
-205
-204
-205
-205
-205
-204
-204
-204
-204
-204
-205
-205
-205
-205
-205
-206
-207
-206
-206
-207
-206
-207
-207
-208
-208
-208
-208
-208
-208
-208
-208
-209
-208
-207
-207
-206
-206
-206
-205
-204
-203
-202
-201
-201
-200
-200
-199
-199
-198
-198
-198
-198
-197
-197
-197
-197
-198
-198
-199
-199
-198
-199
-200
-201
-202
-202
-203
-203
-204
-205
-206
-206
-208
-207
-208
-208
-210
-211
-211
-212
-212
-213
-213
-215
-216
-216
-217
-217
-218
-218
-219
-219
-219
-220
-220
-220
-221
-222
-222
-222
-222
-223
-224
-224
-225
-226
-226
-226
-226
-227
-228
-227
-227
-228
-228
-227
-227
-228
-227
-226
-227
-227
-226
-226
-225
-224
-223
-222
-222
-222
-221
-221
-221
-221
-220
-220
-219
-220
-219
-219
-219
-219
-220
-220
-220
-220
-219
-220
-219
-219
-219
-218
-218
-218
-218
-217
-218
-217
-216
-215
-213
-213
-212
-212
-212
-212
-211
-211
-211
-211
-212
-212
-212
-212
-212
-212
-213
-213
-213
-213
-213
-213
-213
-213
-213
-213
-213
-212
-212
-212
-212
-212
-212
-211
-211
-210
-211
-211
-211
-211
-211
-210
-211
-210
-211
-211
-210
-211
-212
-211
-212
-213
-212
-213
-213
-213
-213
-214
-214
-214
-214
-214
-215
-215
-215
-216
-216
-215
-215
-215
-215
-216
-216
-215
-215
-215
-216
-216
-216
-216
-215
-215
-215
-216
-216
-216
-216
-216
-217
-217
-218
-218
-218
-217
-217
-217
-217
-216
-216
-215
-214
-214
-213
-213
-213
-211
-210
-210
-209
-209
-208
-208
-207
-206
-206
-206
-207
-206
-206
-206
-205
-206
-206
-207
-207
-206
-207
-207
-206
-207
-207
-207
-207
-206
-206
-206
-206
-205
-205
-204
-204
-204
-204
-203
-203
-203
-202
-201
-200
-200
-200
-200
-199
-199
-199
-199
-199
-200
-199
-198
-199
-199
-199
-199
-200
-200
-199
-198
-199
-200
-200
-200
-200
-200
-201
-201
-202
-203
-203
-203
-202
-202
-201
-202
-203
-202
-202
-202
-202
-202
-202
-201
-200
-200
-199
-199
-199
-198
-198
-197
-197
-196
-195
-194
-194
-194
-193
-192
-192
-190
-190
-188
-186
-183
-182
-179
-177
-175
-171
-167
-163
-159
-155
-150
-145
-140
-133
-127
-121
-114
-108
-100
-94
-85
-78
-71
-65
-58
-53
-46
-42
-38
-35
-33
-32
-32
-32
-33
-37
-41
-47
-53
-60
-68
-76
-87
-97
-108
-118
-130
-141
-153
-165
-177
-189
-199
-209
-220
-230
-239
-246
-255
-262
-267
-273
-277
-283
-287
-289
-292
-294
-295
-296
-295
-295
-293
-291
-289
-286
-284
-281
-277
-273
-269
-264
-261
-257
-253
-248
-243
-239
-235
-231
-227
-224
-220
-217
-214
-212
-209
-207
-205
-204
-201
-200
-198
-198
-197
-195
-195
-193
-193
-193
-192
-192
-192
-192
-192
-191
-192
-192
-192
-192
-191
-191
-192
-192
-191
-191
-191
-191
-191
-191
-191
-192
-192
-191
-190
-190
-190
-190
-190
-189
-189
-189
-189
-190
-190
-189
-189
-188
-187
-188
-188
-188
-189
-189
-188
-188
-189
-188
-189
-187
-187
-187
-186
-186
-186
-186
-184
-183
-183
-183
-182
-183
-182
-182
-181
-181
-180
-181
-180
-181
-180
-180
-180
-181
-180
-180
-179
-179
-178
-177
-178
-177
-177
-176
-174
-174
-174
-174
-173
-173
-172
-171
-172
-172
-172
-172
-172
-172
-172
-173
-173
-174
-175
-175
-176
-176
-177
-178
-178
-178
-177
-178
-178
-179
-178
-178
-177
-177
-176
-176
-176
-175
-174
-174
-174
-174
-173
-173
-173
-173
-172
-172
-173
-172
-173
-172
-173
-172
-173
-173
-174
-174
-173
-174
-173
-173
-173
-173
-173
-174
-173
-172
-173
-172
-171
-171
-170
-168
-169
-168
-167
-167
-166
-165
-164
-163
-162
-161
-160
-158
-158
-157
-156
-156
-156
-156
-155
-155
-154
-156
-156
-157
-157
-157
-157
-157
-159
-159
-160
-161
-161
-163
-163
-163
-165
-164
-165
-165
-165
-167
-167
-168
-169
-167
-167
-167
-168
-168
-167
-166
-166
-165
-164
-165
-165
-164
-162
-161
-160
-159
-160
-159
-157
-157
-156
-156
-155
-155
-155
-155
-154
-155
-154
-155
-154
-154
-153
-153
-154
-154
-154
-155
-154
-154
-153
-154
-154
-154
-153
-154
-152
-152
-152
-152
-152
-152
-151
-151
-151
-152
-153
-154
-154
-154
-155
-156
-157
-158
-158
-159
-159
-160
-161
-161
-162
-162
-161
-162
-161
-162
-161
-161
-161
-160
-161
-160
-160
-160
-160
-158
-158
-158
-157
-157
-158
-157
-157
-156
-156
-156
-156
-156
-155
-155
-154
-154
-154
-154
-154
-154
-154
-154
-154
-154
-155
-155
-155
-155
-156
-156
-156
-157
-157
-157
-157
-157
-157
-158
-159
-158
-158
-158
-159
-159
-158
-158
-157
-156
-156
-157
-157
-156
-157
-156
-155
-156
-155
-154
-154
-154
-154
-154
-154
-154
-156
-156
-156
-156
-156
-156
-157
-156
-156
-156
-156
-157
-157
-158
-157
-157
-157
-156
-156
-156
-155
-155
-154
-152
-152
-151
-150
-151
-149
-149
-148
-147
-147
-146
-146
-145
-144
-142
-142
-142
-142
-142
-142
-142
-143
-143
-143
-143
-143
-144
-143
-144
-144
-144
-145
-144
-144
-144
-144
-144
-144
-143
-143
-143
-142
-142
-142
-142
-142
-141
-142
-142
-142
-142
-143
-142
-142
-142
-142
-142
-142
-143
-143
-142
-141
-142
-141
-141
-140
-139
-138
-137
-136
-135
-132
-130
-127
-124
-121
-118
-113
-109
-104
-98
-92
-87
-80
-73
-66
-59
-51
-44
-37
-31
-24
-18
-13
-9
-4
-2
0
1
2
2
0
-3
-8
-13
-19
-24
-32
-41
-49
-60
-70
-80
-90
-101
-112
-123
-133
-144
-153
-163
-172
-180
-188
-195
-202
-207
-211
-215
-218
-222
-223
-225
-224
-224
-224
-223
-221
-219
-217
-213
-211
-208
-206
-203
-199
-196
-193
-190
-187
-184
-181
-178
-175
-172
-170
-168
-165
-163
-160
-158
-156
-154
-153
-152
-151
-149
-148
-148
-148
-147
-147
-146
-145
-145
-145
-145
-145
-145
-145
-144
-144
-144
-145
-145
-144
-143
-142
-142
-142
-140
-139
-139
-138
-137
-136
-136
-135
-135
-134
-133
-132
-132
-132
-132
-132
-132
-132
-132
-133
-133
-133
-133
-133
-133
-133
-133
-133
-133
-134
-133
-133
-133
-132
-132
-132
-131
-130
-130
-130
-130
-130
-129
-129
-130
-129
-129
-130
-131
-130
-130
-131
-131
-132
-133
-134
-133
-133
-134
-135
-136
-137
-137
-138
-137
-138
-139
-139
-139
-139
-139
-139
-139
-139
-139
-139
-138
-138
-137
-138
-137
-137
-137
-136
-135
-135
-135
-134
-134
-133
-133
-132
-132
-131
-131
-131
-130
-130
-129
-127
-128
-127
-126
-125
-125
-125
-125
-124
-123
-123
-122
-120
-120
-120
-119
-119
-120
-119
-120
-120
-120
-120
-120
-119
-120
-119
-120
-119
-120
-119
-119
-119
-119
-118
-117
-117
-117
-115
-115
-114
-114
-114
-113
-112
-111
-111
-111
-111
-111
-111
-110
-111
-112
-113
-114
-115
-115
-115
-116
-117
-117
-118
-118
-117
-118
-118
-118
-118
-117
-116
-115
-115
-114
-113
-113
-112
-110
-110
-109
-108
-108
-108
-108
-107
-107
-107
-107
-107
-107
-106
-106
-106
-106
-107
-107
-107
-107
-106
-106
-106
-106
-105
-105
-104
-103
-103
-102
-103
-102
-101
-101
-101
-101
-100
-101
-101
-100
-100
-101
-102
-101
-102
-102
-102
-102
-103
-104
-104
-104
-104
-105
-105
-106
-107
-107
-107
-108
-109
-109
-111
-112
-113
-113
-114
-114
-114
-115
-116
-115
-115
-116
-115
-116
-116
-115
-115
-114
-113
-112
-111
-111
-110
-109
-108
-107
-107
-107
-107
-106
-105
-104
-104
-104
-104
-104
-104
-103
-102
-103
-102
-103
-103
-103
-102
-102
-101
-102
-102
-102
-101
-101
-100
-100
-100
-100
-99
-99
-100
-100
-101
-101
-102
-101
-101
-102
-102
-103
-104
-104
-105
-105
-106
-107
-108
-110
-110
-110
-109
-109
-109
-109
-108
-108
-107
-107
-105
-105
-103
-102
-100
-99
-97
-96
-95
-94
-93
-91
-91
-90
-89
-89
-89
-89
-88
-88
-88
-88
-89
-89
-90
-89
-90
-90
-91
-92
-91
-91
-91
-91
-91
-92
-92
-91
-91
-91
-91
-92
-92
-91
-91
-91
-91
-90
-90
-90
-90
-90
-89
-89
-88
-89
-88
-88
-87
-87
-86
-86
-87
-85
-84
-83
-83
-83
-83
-83
-83
-82
-82
-82
-82
-83
-83
-83
-83
-82
-82
-83
-82
-82
-82
-82
-81
-81
-82
-81
-82
-82
-81
-81
-82
-83
-83
-83
-82
-83
-83
-84
-84
-85
-85
-85
-86
-86
-86
-86
-87
-86
-86
-86
-86
-86
-85
-85
-83
-82
-81
-80
-79
-77
-74
-71
-68
-65
-62
-58
-53
-48
-44
-38
-33
-27
-20
-13
-5
2
10
17
24
32
40
47
53
59
64
68
72
75
77
76
75
72
69
64
59
52
44
35
26
15
4
-6
-18
-31
-43
-56
-67
-79
-90
-101
-112
-121
-131
-138
-146
-152
-157
-162
-166
-170
-172
-173
-175
-175
-176
-175
-175
-173
-172
-169
-166
-164
-160
-157
-153
-150
-146
-143
-139
-136
-131
-128
-125
-122
-120
-118
-115
-112
-110
-108
-106
-105
-103
-101
-99
-97
-96
-96
-95
-94
-92
-91
-90
-88
-88
-87
-86
-85
-83
-82
-82
-80
-79
-78
-77
-77
-76
-76
-74
-74
-72
-71
-70
-69
-69
-69
-68
-67
-66
-65
-64
-64
-64
-63
-63
-63
-62
-62
-62
-61
-61
-60
-60
-60
-60
-61
-61
-62
-61
-61
-62
-63
-63
-63
-63
-64
-64
-65
-65
-65
-65
-65
-65
-65
-65
-66
-66
-66
-65
-65
-65
-65
-65
-64
-64
-64
-64
-64
-64
-64
-63
-63
-64
-64
-64
-65
-66
-66
-66
-66
-66
-66
-66
-66
-65
-64
-64
-64
-63
-62
-61
-60
-58
-57
-56
-55
-54
-53
-52
-51
-52
-51
-51
-51
-51
-50
-50
-49
-50
-49
-48
-49
-47
-48
-48
-48
-47
-46
-45
-45
-45
-44
-43
-43
-42
-41
-41
-40
-40
-40
-39
-39
-38
-37
-38
-38
-37
-37
-37
-37
-36
-37
-37
-37
-37
-37
-37
-38
-38
-37
-38
-38
-39
-39
-39
-40
-40
-39
-39
-39
-40
-40
-40
-40
-40
-39
-38
-38
-38
-38
-37
-37
-36
-36
-36
-36
-36
-36
-35
-36
-35
-36
-36
-37
-36
-36
-37
-37
-38
-39
-39
-39
-38
-38
-39
-39
-38
-38
-38
-37
-36
-36
-35
-35
-34
-33
-31
-31
-30
-30
-28
-27
-26
-25
-25
-26
-24
-24
-24
-25
-24
-24
-25
-25
-25
-25
-25
-25
-25
-25
-25
-24
-25
-24
-24
-24
-24
-23
-23
-23
-22
-22
-22
-22
-21
-21
-21
-22
-23
-23
-23
-24
-25
-25
-26
-27
-28
-28
-28
-27
-28
-28
-28
-28
-28
-28
-28
-28
-28
-27
-26
-25
-24
-24
-24
-23
-23
-23
-22
-23
-22
-23
-23
-24
-24
-24
-24
-24
-25
-24
-25
-24
-25
-25
-25
-26
-26
-26
-26
-27
-26
-27
-28
-28
-29
-29
-29
-30
-29
-30
-30
-29
-29
-29
-30
-29
-29
-28
-28
-27
-26
-27
-26
-24
-23
-22
-21
-21
-20
-19
-19
-17
-17
-17
-18
-18
-19
-18
-19
-19
-19
-20
-21
-21
-21
-21
-21
-22
-22
-22
-22
-21
-20
-19
-19
-19
-17
-16
-15
-15
-14
-14
-13
-11
-10
-10
-9
-8
-9
-8
-7
-7
-7
-7
-7
-7
-7
-8
-8
-8
-10
-11
-10
-11
-12
-11
-13
-14
-14
-14
-14
-14
-14
-14
-15
-14
-13
-13
-11
-11
-10
-10
-9
-8
-7
-5
-5
-3
-4
-3
-2
-2
-1
-1
-3
-3
-4
-5
-5
-6
-8
-9
-10
-10
-10
-11
-11
-12
-13
-12
-11
-10
-10
-9
-8
-7
-6
-4
-3
-1
-1
0
1
1
3
4
3
3
4
4
5
4
5
3
4
3
3
3
3
3
3
1
2
1
0
0
0
-1
-2
-2
-2
-2
-3
-3
-4
-5
-5
-4
-5
-5
-5
-5
-5
-5
-4
-4
-4
-4
-4
-4
-4
-4
-3
-4
-4
-4
-4
-4
-3
-4
-4
-4
-4
-4
-4
-3
-3
-3
-3
-2
-1
0
2
3
5
6
8
12
15
18
21
26
30
36
42
47
54
60
66
73
81
89
97
104
113
121
128
135
143
149
154
159
161
163
166
167
167
164
162
158
154
148
141
133
123
112
102
91
79
67
54
42
30
19
7
-5
-14
-24
-34
-43
-51
-58
-65
-70
-76
-81
-85
-87
-90
-91
-93
-94
-94
-94
-92
-91
-89
-88
-87
-84
-81
-78
-75
-72
-70
-66
-62
-59
-54
-52
-48
-45
-40
-36
-33
-29
-25
-22
-19
-16
-13
-10
-6
-5
-3
-1
0
2
3
4
5
5
6
6
7
8
9
9
10
11
12
14
14
15
15
16
17
18
18
19
19
19
19
20
20
19
19
19
18
16
16
16
15
15
14
13
13
12
12
12
12
12
12
11
11
12
12
13
13
13
13
15
14
14
15
14
15
16
18
18
18
19
18
19
19
20
19
19
19
20
19
20
20
20
20
20
20
19
20
19
19
18
19
19
20
20
21
21
21
22
23
23
24
24
25
24
26
26
27
27
27
27
27
27
27
27
27
28
27
27
29
28
28
29
29
29
29
29
29
29
29
29
28
29
29
30
30
30
30
30
31
31
32
31
31
31
31
32
32
32
31
32
31
30
31
31
29
29
29
28
29
29
30
30
29
28
29
30
30
30
30
29
30
30
31
31
32
31
31
31
31
31
32
31
30
31
31
31
31
31
31
31
32
32
33
33
33
33
33
33
33
34
33
33
32
31
31
30
30
29
28
27
27
26
25
25
25
24
24
24
24
25
24
25
24
25
26
26
28
28
28
29
29
30
31
32
32
32
32
32
33
33
34
34
33
33
33
32
32
32
32
31
31
31
31
32
31
31
31
31
31
31
31
31
32
32
33
33
35
35
35
35
35
36
37
37
38
38
38
38
38
38
39
38
37
38
37
36
35
34
34
33
33
32
31
31
31
30
29
28
28
28
27
27
27
26
26
26
26
26
26
25
24
24
25
24
23
23
23
22
22
22
22
21
21
20
19
19
20
19
19
19
19
20
20
21
22
22
22
22
23
24
25
26
26
26
27
28
29
28
29
29
28
28
29
29
28
28
28
28
29
28
28
27
27
26
26
27
27
28
28
28
27
28
29
29
29
28
29
29
28
29
30
29
29
28
29
30
30
30
30
30
30
30
30
30
31
30
30
30
30
31
30
31
30
29
29
30
30
30
29
28
28
28
29
28
28
28
28
28
28
30
30
30
30
30
30
29
30
29
29
28
29
29
28
28
28
27
26
26
26
26
26
26
26
25
26
26
26
26
27
26
26
28
28
28
29
29
29
29
29
30
30
30
30
30
30
30
31
30
30
30
30
30
29
30
30
29
28
27
28
28
28
28
28
28
30
31
32
34
36
38
41
44
48
52
57
61
66
72
79
86
92
100
107
115
122
131
138
145
153
159
164
169
174
178
181
182
182
182
181
178
174
169
162
155
146
137
127
118
106
94
82
70
59
48
36
25
14
4
-5
-13
-22
-30
-37
-44
-49
-55
-59
-63
-67
-70
-71
-74
-74
-75
-74
-74
-73
-71
-69
-67
-64
-62
-60
-57
-54
-51
-48
-45
-41
-39
-36
-32
-30
-27
-23
-22
-19
-16
-13
-10
-8
-6
-4
-2
-1
1
3
3
5
5
6
6
6
7
6
5
5
4
4
4
4
3
2
2
1
0
1
0
0
1
2
2
3
3
5
4
5
5
7
8
9
9
9
10
10
11
12
12
12
11
11
11
12
11
12
12
11
11
12
12
12
12
12
11
12
12
13
13
13
13
13
14
14
14
14
14
14
14
14
14
14
14
13
13
13
13
13
12
12
11
11
10
9
10
10
10
9
9
10
10
10
11
11
12
12
13
14
15
15
17
18
19
20
21
21
21
20
20
20
20
20
20
19
18
18
17
17
17
16
15
15
16
15
16
16
15
15
16
17
17
18
19
18
18
18
19
19
19
19
18
18
18
17
17
16
15
14
13
13
13
12
12
11
11
10
10
11
10
10
9
9
10
10
11
11
10
11
12
13
13
14
14
15
16
16
16
17
17
17
16
17
17
17
17
17
16
15
15
15
14
13
13
11
10
9
9
9
8
7
7
6
6
7
7
8
8
8
9
9
11
11
11
12
13
14
15
16
17
17
17
17
17
18
18
18
17
17
16
16
15
15
14
13
12
11
10
10
10
9
7
7
6
6
6
5
5
3
3
4
4
4
4
3
3
3
3
3
2
1
1
1
1
0
0
0
-1
-1
-2
-1
-2
-2
-2
-4
-4
-4
-5
-5
-5
-6
-6
-7
-7
-6
-7
-7
-8
-9
-9
-9
-10
-10
-11
-11
-11
-11
-11
-10
-11
-12
-12
-11
-11
-11
-11
-12
-12
-13
-13
-13
-12
-12
-12
-12
-13
-13
-12
-13
-13
-13
-14
-15
-15
-14
-14
-13
-13
-14
-13
-12
-11
-11
-10
-11
-10
-10
-9
-8
-8
-7
-8
-7
-7
-8
-7
-7
-8
-9
-9
-8
-8
-8
-8
-9
-9
-8
-8
-8
-7
-8
-7
-8
-7
-7
-6
-5
-6
-6
-5
-5
-5
-4
-5
-5
-6
-6
-6
-5
-6
-6
-7
-7
-7
-7
-6
-7
-6
-6
-6
-6
-5
-4
-4
-4
-4
-3
-2
-1
0
-1
0
-1
0
1
1
0
-1
-2
-2
-3
-3
-3
-4
-5
-6
-6
-6
-6
-6
-6
-7
-7
-7
-6
-7
-7
-7
-6
-6
-6
-5
-5
-6
-6
-6
-6
-5
-4
-5
-4
-4
-3
-2
0
1
3
4
7
9
13
17
21
25
29
34
40
46
53
59
66
72
80
87
95
103
109
116
122
128
134
138
141
143
145
145
144
143
139
134
129
122
115
106
97
87
76
64
52
40
29
17
4
-8
-20
-32
-43
-52
-61
-70
-78
-84
-90
-95
-99
-103
-106
-109
-110
-112
-112
-111
-109
-108
-107
-105
-102
-98
-96
-92
-89
-87
-84
-80
-77
-73
-70
-67
-64
-60
-57
-54
-50
-47
-45
-44
-41
-39
-37
-36
-34
-33
-32
-31
-31
-30
-29
-30
-30
-30
-29
-29
-29
-29
-29
-29
-29
-29
-28
-28
-28
-28
-28
-26
-26
-25
-24
-23
-23
-24
-22
-22
-21
-22
-21
-22
-22
-21
-22
-22
-22
-23
-23
-23
-23
-23
-23
-23
-22
-22
-23
-22
-21
-21
-21
-21
-21
-20
-19
-18
-18
-18
-18
-17
-17
-17
-16
-17
-17
-17
-17
-16
-16
-16
-17
-17
-17
-16
-17
-17
-17
-18
-17
-17
-17
-16
-16
-16
-16
-16
-15
-15
-15
-15
-15
-16
-15
-15
-14
-14
-14
-14
-14
-14
-14
-14
-13
-14
-14
-14
-14
-13
-13
-14
-14
-14
-13
-14
-13
-14
-14
-14
-15
-15
-15
-16
-17
-17
-17
-17
-17
-17
-17
-18
-18
-18
-18
-18
-17
-18
-17
-17
-15
-15
-14
-13
-12
-13
-12
-11
-11
-11
-10
-11
-11
-11
-12
-11
-12
-12
-12
-13
-14
-13
-14
-14
-14
-14
-14
-14
-13
-13
-13
-12
-12
-12
-11
-10
-11
-11
-10
-10
-10
-11
-11
-10
-11
-11
-12
-13
-12
-12
-13
-13
-14
-15
-15
-15
-16
-17
-16
-17
-17
-17
-17
-16
-16
-16
-16
-16
-15
-15
-15
-15
-15
-15
-14
-13
-13
-12
-13
-12
-12
-12
-11
-11
-10
-10
-11
-11
-10
-10
-10
-9
-10
-10
-10
-9
-10
-10
-11
-12
-12
-13
-12
-13
-14
-14
-15
-15
-16
-16
-16
-17
-18
-18
-18
-19
-18
-18
-18
-18
-17
-17
-17
-16
-15
-14
-14
-14
-13
-12
-12
-13
-13
-13
-14
-14
-14
-15
-16
-17
-17
-19
-18
-19
-19
-21
-22
-22
-21
-21
-20
-21
-21
-21
-20
-20
-20
-19
-19
-18
-19
-18
-18
-18
-19
-20
-20
-21
-21
-21
-21
-22
-22
-22
-23
-23
-23
-23
-24
-23
-24
-23
-22
-22
-21
-21
-20
-21
-20
-20
-20
-19
-20
-20
-20
-20
-19
-19
-20
-21
-21
-22
-22
-22
-22
-22
-23
-23
-23
-22
-21
-21
-22
-21
-21
-20
-19
-19
-18
-18
-17
-17
-16
-15
-14
-14
-14
-14
-14
-13
-13
-14
-14
-14
-14
-15
-14
-15
-16
-16
-16
-16
-16
-16
-16
-17
-17
-17
-17
-16
-16
-16
-16
-16
-16
-15
-14
-14
-13
-13
-12
-12
-11
-11
-11
-11
-10
-10
-9
-9
-8
-8
-8
-8
-7
-7
-7
-7
-8
-8
-8
-7
-7
-6
-7
-7
-7
-7
-8
-7
-7
-7
-7
-7
-9
-8
-7
-8
-8
-8
-7
-7
-5
-3
-2
0
1
4
7
11
14
18
21
25
30
36
41
47
53
59
65
72
79
86
93
100
106
113
118
124
128
132
134
136
137
137
136
134
131
127
121
114
106
98
88
78
66
55
43
32
19
8
-5
-18
-29
-39
-50
-60
-69
-76
-84
-90
-96
-99
-102
-105
-107
-108
-109
-109
-108
-107
-105
-103
-101
-98
-95
-92
-89
-87
-83
-80
-77
-73
-70
-68
-65
-61
-58
-54
-52
-49
-46
-44
-41
-38
-35
-33
-31
-30
-28
-26
-25
-23
-22
-20
-21
-19
-19
-18
-17
-17
-16
-16
-16
-15
-16
-15
-14
-14
-14
-14
-13
-13
-13
-13
-13
-13
-12
-12
-12
-12
-13
-14
-14
-14
-14
-15
-15
-15
-15
-15
-15
-14
-15
-15
-14
-14
-14
-14
-14
-13
-14
-14
-13
-13
-13
-13
-13
-13
-14
-13
-13
-13
-12
-12
-12
-12
-11
-10
-9
-9
-8
-7
-7
-5
-4
-3
-2
-3
-2
-2
-1
-1
-1
-2
-2
-2
-2
-2
-2
-3
-4
-5
-5
-6
-5
-6
-7
-7
-7
-6
-6
-6
-6
-7
-6
-6
-6
-5
-5
-5
-5
-5
-4
-4
-4
-4
-4
-4
-4
-4
-3
-3
-2
-2
-3
-2
-1
0
0
1
1
1
1
2
3
4
4
5
5
5
6
7
8
8
8
8
9
9
9
10
9
9
9
9
10
11
11
10
10
10
11
10
10
11
12
12
13
13
13
13
13
13
13
13
14
14
13
14
13
13
13
13
13
13
13
13
13
14
14
14
14
14
14
14
14
15
14
14
14
14
14
14
14
14
14
13
13
14
14
14
13
13
12
12
12
11
10
9
9
9
9
8
9
8
8
8
8
7
8
8
8
7
7
9
9
10
10
10
10
10
11
11
12
13
12
13
14
14
14
14
14
14
13
14
14
14
14
13
13
13
12
12
10
9
9
8
8
8
7
7
6
6
6
6
7
7
7
7
6
7
7
7
7
7
8
8
9
9
9
9
9
8
8
9
8
8
8
7
7
7
8
7
7
6
6
6
5
6
6
5
5
5
5
5
6
5
6
5
5
6
6
7
7
7
8
8
8
8
9
9
8
8
8
9
10
9
9
9
9
9
9
10
11
10
10
11
11
13
13
14
14
14
15
16
17
17
17
17
17
17
17
18
18
17
17
17
17
17
16
16
15
16
16
16
16
16
16
15
14
14
15
14
14
14
13
13
12
12
12
12
10
10
10
10
10
10
10
10
10
10
10
12
11
12
13
13
14
14
15
15
15
15
15
16
17
17
17
17
16
17
17
17
16
16
15
15
16
15
15
15
14
14
14
14
13
13
12
11
10
9
9
9
8
7
7
6
6
6
5
5
4
3
3
2
3
2
2
2
2
3
3
4
4
4
4
5
5
6
6
6
6
6
5
6
6
5
4
4
4
4
4
4
4
3
3
3
3
3
2
3
3
3
3
3
4
4
5
4
4
5
6
6
6
5
5
5
4
4
4
2
1
0
-1
-1
-2
-3
-5
-6
-7
-8
-9
-9
-10
-11
-11
-12
-11
-11
-11
-11
-12
-12
-11
-12
-11
-11
-11
-12
-11
-12
-12
-11
-12
-13
-13
-13
-12
-12
-11
-10
-10
-11
-11
-11
-10
-10
-9
-9
-9
-8
-7
-6
-6
-6
-6
-6
-5
-4
-5
-5
-4
-4
-4
-4
-4
-4
-5
-5
-5
-5
-5
-5
-5
-6
-7
-7
-7
-7
-7
-8
-8
-9
-9
-10
-10
-10
-11
-11
-11
-12
-12
-12
-12
-12
-12
-12
-12
-12
-11
-11
-11
-11
-11
-10
-9
-9
-9
-9
-8
-8
-7
-7
-6
-6
-6
-5
-4
-4
-4
-4
-4
-4
-4
-3
-3
-2
-2
-2
-1
0
1
3
4
5
6
9
11
15
18
21
25
29
34
39
44
50
56
63
70
77
85
93
100
108
116
123
131
137
143
148
151
154
155
156
157
155
152
148
142
136
129
121
111
100
89
78
65
54
40
28
16
3
-9
-19
-30
-40
-49
-59
-66
-73
-79
-84
-88
-93
-95
-98
-99
-99
-100
-99
-98
-97
-94
-92
-88
-85
-83
-80
-77
-72
-69
-64
-61
-57
-53
-49
-46
-41
-38
-34
-31
-29
-26
-22
-19
-17
-15
-13
-12
-9
-7
-5
-4
-3
-2
-1
1
2
3
4
4
4
5
6
6
7
7
8
8
9
10
10
11
12
13
13
14
15
16
17
18
19
19
21
21
23
23
23
24
24
24
25
24
24
24
24
24
23
23
23
23
22
22
23
22
23
23
23
24
25
26
27
28
29
29
29
31
32
32
33
33
33
34
35
35
35
35
35
35
35
34
35
34
34
33
33
33
33
33
33
32
31
32
32
33
33
33
32
32
32
32
32
33
32
33
33
33
33
33
33
33
33
34
34
33
34
34
34
34
34
35
35
36
36
36
37
38
39
39
39
39
40
40
39
40
40
40
40
40
40
39
40
40
39
39
39
40
40
40
40
40
40
40
41
41
41
41
41
41
42
42
43
43
42
41
42
42
42
42
42
42
42
43
43
44
44
43
43
43
42
43
43
42
43
42
42
43
44
43
43
43
43
43
44
44
44
44
44
44
45
45
45
45
45
44
44
45
45
46
45
46
45
45
45
45
45
46
45
46
47
47
48
48
49
48
49
50
50
51
51
51
51
50
51
50
50
49
49
49
49
49
49
50
50
50
50
51
53
53
53
54
54
54
55
56
57
57
57
58
58
58
58
57
57
56
56
56
55
55
54
54
53
52
52
51
50
49
48
46
46
45
45
45
44
44
44
44
43
44
43
42
42
42
43
43
43
43
43
43
43
44
44
43
43
43
43
43
43
44
43
44
43
43
43
44
44
44
43
44
44
43
44
44
43
43
42
42
42
40
40
40
39
38
38
38
38
37
37
37
37
38
39
38
38
38
39
40
40
40
41
41
41
41
42
43
43
43
43
42
41
42
42
42
43
43
44
44
45
44
45
45
44
46
47
48
49
49
48
49
49
50
50
50
50
50
51
51
52
52
52
51
52
51
52
52
52
52
51
51
52
51
52
51
51
51
50
51
50
51
51
50
49
49
50
50
50
50
50
50
51
52
53
53
53
54
54
55
56
58
58
58
58
58
58
58
58
58
58
57
58
58
58
58
57
56
56
55
55
55
54
54
54
53
54
54
55
55
55
56
56
58
59
62
63
66
69
73
77
81
86
90
95
101
108
114
121
127
135
143
150
159
167
173
180
185
190
195
200
202
204
205
204
203
201
196
192
185
179
171
162
153
142
131
119
107
95
84
72
60
50
38
26
17
8
-2
-9
-18
-25
-31
-36
-41
-44
-47
-50
-52
-53
-52
-51
-50
-48
-47
-45
-43
-39
-35
-33
-29
-26
-22
-19
-14
-10
-6
-2
1
4
7
11
13
16
19
21
24
26
29
30
32
32
34
35
36
37
37
37
38
38
39
39
40
39
39
38
38
38
37
36
35
35
34
33
33
33
33
32
33
33
34
34
35
35
35
36
37
39
40
41
41
43
43
44
45
46
46
46
46
46
47
47
46
46
45
44
43
43
42
42
42
41
40
39
39
39
38
37
38
37
37
37
37
36
36
35
36
37
38
38
38
37
38
39
39
39
40
39
40
41
41
42
42
42
41
41
41
40
41
41
40
40
40
39
40
40
40
39
39
40
41
41
42
42
43
43
44
45
46
47
47
48
47
49
48
50
51
50
50
50
49
49
49
49
48
48
47
47
47
47
46
45
44
44
44
43
43
44
43
44
44
44
44
44
45
44
46
46
47
46
47
47
47
47
48
48
48
47
48
49
49
50
50
50
50
49
50
49
49
49
50
50
50
50
51
52
52
52
52
53
53
53
53
54
53
53
53
54
54
54
53
53
52
52
52
52
52
50
50
49
48
49
48
47
47
47
47
46
46
46
45
46
45
46
46
47
47
46
47
46
47
47
47
47
47
47
47
47
48
47
47
48
48
47
47
48
48
47
47
47
48
49
49
48
47
48
48
48
48
47
46
45
44
43
43
43
41
40
40
38
37
36
35
34
33
33
32
33
33
33
33
32
33
33
34
34
35
35
36
36
37
39
39
40
40
41
41
42
42
42
42
42
42
42
43
43
42
42
42
41
41
41
42
40
40
39
40
39
39
38
37
36
35
34
34
33
33
32
32
32
32
33
33
33
32
32
32
33
33
33
34
34
34
35
34
34
34
34
33
33
33
32
33
32
32
32
32
33
33
34
34
34
35
35
37
38
39
40
41
43
44
45
46
46
47
47
47
47
48
48
47
47
47
46
46
46
46
45
45
44
44
44
44
43
42
42
42
42
42
42
42
41
41
42
42
42
42
41
42
42
42
42
42
42
42
41
41
42
42
42
41
41
40
40
41
41
41
41
41
42
42
42
43
44
44
44
44
44
44
44
45
44
44
44
45
45
45
46
46
47
48
49
51
52
54
56
59
63
67
71
75
80
85
91
98
104
111
117
125
132
141
148
155
161
167
173
178
182
185
188
190
189
188
187
184
180
175
168
161
152
143
134
125
113
102
90
79
67
56
44
33
22
12
3
-6
-14
-20
-28
-34
-38
-42
-46
-48
-51
-53
-54
-54
-54
-53
-51
-51
-49
-47
-44
-41
-38
-35
-33
-29
-27
-23
-20
-17
-13
-11
-7
-5
-1
2
4
7
9
11
13
15
18
20
20
22
23
24
25
26
28
27
28
28
29
30
30
30
31
31
32
32
32
32
33
32
32
32
32
32
32
31
31
30
31
31
31
31
30
30
30
30
31
31
32
31
33
34
35
36
36
37
37
37
39
39
39
39
38
39
39
39
40
40
39
38
37
38
38
37
36
36
35
35
35
35
36
35
35
35
35
35
36
36
36
36
36
36
37
36
37
36
36
36
35
36
36
35
35
34
34
34
34
34
33
33
32
33
33
33
33
33
32
33
33
33
33
33
32
33
33
33
33
33
32
32
32
31
31
31
31
31
30
30
31
30
30
31
30
31
31
32
33
33
33
33
34
35
35
35
36
36
35
36
37
36
37
37
37
36
37
37
37
37
37
37
37
37
37
36
36
35
34
34
34
34
34
33
33
32
33
32
31
31
32
31
32
33
34
35
35
36
36
38
38
39
39
40
40
41
42
42
43
44
43
43
43
43
43
42
42
41
41
40
40
40
39
38
37
36
35
35
35
35
35
35
34
35
35
35
35
35
35
35
35
35
36
36
35
35
35
36
35
35
35
34
34
33
34
34
33
33
33
33
32
33
32
32
32
31
31
31
31
31
31
31
30
30
30
30
29
29
28
28
28
28
27
27
26
27
26
27
27
27
27
27
27
28
29
29
29
29
29
29
29
29
29
28
28
28
27
28
27
27
27
26
25
25
24
23
23
22
21
21
21
21
20
20
19
18
19
19
18
18
19
18
18
19
18
18
19
18
18
18
19
18
18
17
17
17
17
18
17
17
17
17
17
18
18
19
19
18
19
19
20
21
21
22
21
22
22
22
22
22
21
22
22
21
21
22
21
20
19
19
19
19
18
18
17
17
16
17
18
18
18
18
18
19
20
21
22
22
23
23
24
24
25
24
25
25
25
25
26
26
25
24
24
23
23
22
22
23
22
22
22
23
22
22
22
23
24
25
25
26
27
27
27
27
27
27
27
26
26
26
26
27
26
26
26
25
24
24
25
25
24
25
25
25
26
26
26
26
26
26
26
26
25
25
24
23
23
22
22
21
20
19
18
18
17
16
15
14
13
13
13
13
12
12
11
12
12
13
14
14
15
15
16
17
17
17
18
17
17
17
18
18
17
17
16
15
15
15
15
14
13
12
11
12
12
12
12
13
12
13
14
16
16
18
19
20
22
25
27
29
31
33
37
41
45
49
53
57
62
67
73
80
85
92
98
105
112
119
126
132
137
143
147
152
155
157
160
160
160
158
156
152
147
140
132
124
115
105
95
84
72
61
49
37
25
14
2
-10
-20
-31
-40
-48
-55
-63
-69
-75
-79
-83
-86
-88
-91
-93
-94
-95
-93
-92
-91
-90
-88
-86
-83
-79
-76
-73
-69
-66
-63
-59
-55
-52
-49
-45
-42
-38
-35
-32
-29
-26
-24
-22
-19
-17
-15
-14
-11
-10
-8
-7
-6
-4
-4
-3
-3
-2
-2
-1
-2
-3
-3
-4
-4
-3
-4
-4
-5
-6
-6
-6
-7
-7
-7
-7
-8
-7
-6
-5
-5
-5
-4
-4
-2
-1
0
1
2
2
3
4
4
4
5
4
5
5
4
5
4
3
2
2
1
0
-1
-2
-3
-4
-5
-6
-6
-7
-8
-9
-9
-10
-10
-10
-10
-11
-12
-12
-12
-12
-12
-13
-13
-13
-13
-12
-11
-11
-12
-12
-11
-11
-10
-9
-9
-8
-7
-7
-6
-6
-6
-6
-7
-8
-8
-8
-8
-9
-10
-11
-11
-11
-12
-13
-13
-13
-13
-13
-12
-11
-11
-10
-10
-10
-9
-7
-6
-6
-6
-6
-5
-5
-4
-4
-6
-6
-7
-8
-7
-8
-8
-9
-9
-11
-11
-11
-11
-12
-11
-12
-10
-10
-9
-9
-8
-8
-8
-7
-6
-5
-5
-5
-5
-5
-6
-5
-6
-7
-7
-8
-8
-8
-7
-8
-9
-9
-10
-10
-10
-11
-10
-11
-11
-11
-10
-10
-10
-9
-9
-10
-10
-9
-10
-9
-10
-11
-11
-11
-11
-11
-12
-12
-13
-13
-14
-14
-13
-14
-15
-15
-15
-15
-15
-14
-15
-15
-15
-15
-16
-15
-15
-14
-14
-14
-12
-12
-11
-10
-11
-10
-9
-8
-7
-6
-6
-6
-6
-6
-6
-5
-4
-4
-5
-5
-6
-6
-6
-6
-6
-7
-7
-7
-6
-6
-6
-7
-8
-7
-7
-7
-7
-7
-8
-7
-7
-8
-7
-7
-8
-8
-9
-9
-9
-10
-10
-10
-11
-12
-12
-13
-13
-13
-13
-14
-14
-14
-15
-15
-16
-16
-16
-16
-16
-16
-16
-17
-17
-17
-18
-18
-17
-17
-18
-17
-18
-17
-17
-17
-17
-16
-16
-15
-15
-14
-14
-14
-14
-14
-14
-13
-13
-14
-15
-15
-15
-16
-16
-17
-17
-18
-19
-19
-18
-19
-19
-19
-19
-19
-18
-19
-18
-18
-18
-17
-17
-16
-15
-14
-14
-13
-12
-12
-11
-11
-11
-11
-11
-11
-11
-10
-11
-11
-11
-12
-11
-11
-11
-11
-11
-11
-11
-11
-11
-12
-12
-12
-12
-13
-12
-12
-12
-13
-13
-14
-13
-13
-13
-13
-12
-13
-12
-11
-11
-10
-10
-9
-8
-7
-6
-5
-4
-4
-5
-4
-4
-3
-3
-2
-2
-3
-3
-4
-4
-4
-5
-5
-6
-7
-7
-7
-8
-8
-9
-9
-10
-9
-9
-8
-9
-8
-7
-7
-6
-6
-6
-6
-6
-5
-4
-3
-3
-3
-3
-3
-3
-3
-3
-3
-2
-3
-4
-3
-3
-4
-4
-4
-5
-6
-5
-5
-6
-7
-8
-7
-8
-8
-9
-9
-10
-11
-11
-11
-11
-12
-12
-13
-13
-13
-14
-13
-14
-13
-14
-15
-15
-14
-14
-14
-14
-15
-14
-14
-15
-14
-15
-15
-14
-14
-15
-16
-16
-16
-17
-18
-18
-18
-19
-19
-20
-21
-21
-23
-23
-24
-24
-25
-26
-26
-26
-26
-26
-26
-26
-27
-26
-25
-24
-24
-23
-22
-20
-18
-16
-13
-11
-9
-7
-4
0
4
7
11
15
20
24
30
36
41
46
53
59
66
72
79
85
91
96
100
105
109
112
114
115
116
116
114
111
107
101
96
88
80
73
62
52
40
28
17
4
-7
-20
-33
-44
-56
-66
-75
-83
-92
-99
-107
-112
-117
-121
-124
-127
-130
-131
-132
-131
-131
-129
-128
-127
-124
-122
-118
-115
-111
-109
-105
-101
-98
-94
-90
-86
-83
-80
-75
-71
-67
-64
-60
-57
-54
-52
-48
-45
-43
-41
-39
-37
-35
-33
-31
-30
-28
-28
-26
-26
-25
-24
-24
-23
-22
-22
-21
-21
-21
-21
-20
-20
-19
-18
-18
-18
-17
-18
-19
-18
-18
-18
-19
-20
-20
-20
-20
-21
-21
-22
-22
-22
-22
-22
-21
-23
-22
-23
-23
-22
-21
-21
-21
-20
-19
-19
-18
-18
-18
-17
-17
-17
-16
-15
-15
-14
-14
-14
-14
-14
-13
-13
-12
-13
-12
-12
-11
-11
-11
-10
-11
-10
-10
-9
-10
-9
-10
-11
-10
-10
-10
-11
-11
-11
-12
-12
-11
-11
-11
-11
-11
-10
-10
-9
-9
-8
-9
-9
-8
-7
-6
-7
-6
-6
-5
-5
-3
-3
-2
-1
-1
0
-1
0
1
1
1
1
1
2
1
1
0
0
-2
-1
-1
-2
-2
-3
-4
-4
-5
-5
-5
-6
-6
-6
-7
-7
-7
-7
-8
-9
-9
-9
-9
-9
-9
-10
-9
-9
-8
-8
-7
-7
-6
-6
-5
-4
-2
-2
-2
-1
0
1
2
3
4
4
4
5
5
6
6
6
6
5
5
6
6
6
6
6
5
5
5
6
6
5
5
6
6
7
6
7
6
6
7
8
8
8
8
8
7
8
8
8
8
8
8
8
8
9
8
8
8
8
7
8
8
8
9
8
9
8
8
8
8
8
7
7
6
6
6
4
4
3
3
2
3
3
2
1
1
1
1
2
2
2
4
5
5
6
6
7
6
7
6
7
6
7
6
6
7
6
6
6
6
5
5
5
5
6
6
6
5
4
4
4
3
3
2
3
2
2
1
2
1
0
0
-1
0
0
0
0
0
-1
-1
-1
-1
0
0
-1
-1
-1
0
0
0
0
-1
0
0
0
0
-1
0
-1
0
0
1
0
0
0
0
-1
-1
0
0
0
0
0
0
1
1
1
1
0
1
0
1
1
0
0
0
0
0
1
1
0
0
0
0
0
0
0
1
0
1
1
1
2
3
3
4
5
5
7
8
8
9
9
10
11
12
12
12
12
12
13
13
13
13
13
13
13
14
14
14
13
13
13
14
14
14
14
13
13
12
13
13
12
11
11
10
11
10
11
10
10
9
11
10
10
12
11
11
12
13
13
14
14
14
14
15
15
15
16
17
16
16
15
15
15
15
15
14
15
15
15
14
14
13
13
12
12
12
12
11
11
12
12
12
12
12
11
11
11
12
12
12
12
12
12
12
12
13
13
13
12
13
13
14
15
15
15
15
17
17
19
20
21
23
25
28
31
34
38
41
46
49
55
60
66
73
78
85
91
98
106
113
121
128
135
140
145
150
155
158
159
161
160
159
158
155
150
144
137
129
120
110
99
88
75
63
51
39
27
16
3
-8
-17
-27
-36
-44
-52
-59
-65
-69
-74
-77
-78
-81
-82
-84
-83
-83
-83
-82
-80
-80
-78
-75
-73
-70
-68
-65
-63
-60
-58
-56
-54
-51
-49
-46
-44
-40
-38
-35
-32
-30
-27
-24
-21
-18
-15
-14
-11
-9
-6
-4
-2
-1
1
2
3
5
6
6
6
7
6
7
7
7
7
6
5
5
5
5
6
5
6
5
6
6
7
7
7
8
9
10
11
12
12
12
12
13
14
15
15
15
16
16
16
16
17
17
17
17
18
18
18
19
19
18
18
17
18
17
17
16
15
14
13
13
13
11
11
11
9
10
10
10
9
8
8
8
8
8
8
8
7
8
8
9
10
10
12
12
12
13
14
14
14
14
15
16
17
18
18
19
18
18
19
20
20
19
19
19
19
19
19
18
18
17
16
15
16
15
14
14
13
12
13
13
14
14
14
13
14
14
15
15
15
15
15
16
17
17
18
18
19
18
19
19
20
20
19
19
19
18
18
18
16
16
15
14
15
14
14
13
12
12
12
12
12
12
12
12
12
13
13
14
14
14
14
15
16
16
16
15
15
14
14
14
15
14
14
13
13
13
13
14
14
13
12
13
13
14
14
14
14
14
15
16
16
17
17
17
18
19
20
19
20
20
19
19
20
20
20
19
19
19
19
19
19
19
19
19
20
20
20
20
20
20
21
20
21
21
21
21
21
21
20
21
19
19
18
17
16
16
15
14
14
13
12
11
10
11
9
8
8
7
7
8
8
8
8
8
9
9
10
10
10
9
10
10
10
11
11
12
12
12
12
12
12
12
12
12
12
13
13
13
13
12
12
12
11
11
11
10
9
9
9
9
9
8
7
6
5
6
6
6
5
5
4
4
4
4
4
3
3
3
3
4
4
4
4
4
4
5
5
6
6
7
7
7
8
9
9
9
9
9
10
10
11
11
11
12
12
13
13
13
12
12
12
13
14
16
15
16
16
16
17
18
19
18
18
19
20
20
21
21
22
22
22
22
23
22
22
21
21
21
21
22
22
21
21
22
21
22
22
22
22
23
22
23
23
24
24
24
25
23
24
25
25
25
24
23
22
22
22
21
21
20
19
19
20
20
20
19
19
19
20
20
21
21
20
20
21
21
22
22
22
22
21
21
21
22
21
20
20
19
19
19
19
19
17
16
16
16
16
15
15
15
14
14
14
15
15
14
14
14
14
15
15
16
15
16
16
16
16
17
17
17
17
18
18
18
18
18
18
18
18
19
19
19
18
19
20
20
20
20
20
19
19
18
18
17
18
17
16
16
16
17
16
16
15
16
16
16
17
18
18
18
19
19
20
21
21
21
21
22
22
22
22
23
23
23
23
24
24
26
26
27
29
31
33
37
38
42
44
48
51
56
62
67
72
78
84
92
99
107
113
121
128
136
142
149
156
162
167
171
175
178
180
180
179
178
175
171
166
160
152
143
133
124
112
101
90
77
63
51
38
26
14
1
-10
-21
-29
-39
-46
-53
-59
-65
-70
-74
-78
-79
-80
-81
-81
-81
-80
-77
-75
-74
-71
-68
-65
-63
-59
-56
-54
-51
-48
-45
-41
-39
-36
-33
-30
-27
-25
-22
-18
-16
-14
-12
-10
-8
-5
-3
-2
0
2
3
5
6
7
8
9
9
10
10
11
11
12
12
12
13
14
13
13
13
13
13
13
14
14
13
12
13
13
13
13
13
14
14
15
15
16
16
17
17
17
17
18
19
20
20
20
20
21
22
22
22
22
22
22
23
23
24
24
25
24
25
26
26
26
26
27
27
27
28
27
27
27
26
26
27
26
27
26
26
25
25
25
24
24
24
24
24
24
24
25
24
25
25
25
26
27
27
27
27
27
27
28
28
28
28
27
28
28
28
28
27
26
25
24
24
25
24
24
24
23
23
23
23
23
23
22
22
23
24
25
25
26
26
27
28
28
28
29
29
29
29
30
30
30
30
29
29
29
29
30
30
29
29
28
29
29
29
30
30
31
31
31
32
31
31
31
31
32
32
32
32
32
32
32
32
32
32
31
31
30
30
30
31
29
30
29
29
28
28
29
29
28
27
27
28
28
28
28
27
27
28
28
28
28
27
27
27
26
26
26
25
24
24
23
24
23
22
22
22
22
22
21
21
22
22
23
23
24
25
26
27
28
28
28
29
31
32
32
32
32
32
33
33
33
32
31
31
30
30
29
28
27
28
27
27
26
25
25
26
26
25
26
26
26
26
25
25
25
26
26
25
25
25
25
26
26
26
26
25
25
24
24
24
23
22
21
20
20
20
20
19
19
18
18
17
17
17
15
15
14
14
14
15
14
14
14
14
13
13
12
12
12
12
11
11
11
11
11
10
10
10
10
9
9
9
9
9
9
10
10
10
10
10
11
12
12
12
13
13
14
14
15
16
16
16
16
17
17
17
16
16
17
16
16
17
16
17
15
16
14
14
14
14
13
12
12
11
12
11
12
12
11
12
11
11
11
11
11
10
9
10
11
11
11
11
11
12
13
13
13
14
13
14
14
16
18
17
18
18
18
18
19
18
17
17
16
17
17
16
17
16
16
14
14
15
14
15
15
15
16
16
16
16
17
16
16
16
15
16
16
15
14
13
13
13
14
13
13
13
13
13
12
13
13
12
11
11
11
12
12
12
12
12
11
11
11
10
9
8
7
6
5
5
5
4
3
3
3
3
3
3
2
2
2
3
4
3
3
4
4
4
5
6
5
6
5
5
5
5
6
5
6
5
5
5
5
5
5
4
3
4
3
3
2
2
2
1
0
1
1
1
0
1
0
0
0
1
1
1
1
1
2
2
1
1
1
1
1
1
1
1
1
0
-1
-1
-1
-1
-2
-2
-3
-3
-4
-3
-4
-4
-5
-5
-5
-5
-4
-5
-5
-6
-6
-6
-5
-6
-6
-7
-7
-7
-6
-6
-6
-5
-5
-4
-3
-2
0
2
5
8
12
16
21
25
30
35
41
47
55
61
68
75
83
90
98
106
113
119
125
130
134
138
141
143
142
141
140
137
133
128
122
114
105
95
86
76
65
53
41
29
17
6
-6
-18
-29
-39
-50
-59
-67
-75
-83
-89
-96
-100
-105
-108
-111
-113
-115
-115
-115
-115
-114
-113
-111
-109
-108
-105
-102
-99
-96
-93
-89
-86
-82
-79
-74
-72
-70
-66
-63
-60
-58
-54
-52
-50
-47
-45
-42
-40
-39
-37
-35
-35
-34
-33
-33
-32
-32
-32
-31
-30
-30
-29
-30
-31
-31
-31
-32
-31
-32
-32
-33
-34
-34
-34
-34
-34
-35
-35
-35
-34
-34
-34
-34
-33
-32
-31
-30
-29
-29
-28
-28
-26
-25
-23
-22
-21
-21
-20
-19
-18
-17
-17
-16
-16
-17
-17
-16
-17
-17
-18
-18
-19
-19
-19
-19
-20
-21
-21
-21
-22
-22
-21
-22
-23
-24
-23
-24
-23
-23
-24
-24
-25
-25
-25
-26
-26
-27
-28
-28
-27
-28
-28
-27
-28
-28
-29
-28
-29
-29
-28
-29
-29
-28
-28
-28
-28
-29
-29
-30
-29
-30
-30
-31
-33
-34
-33
-34
-34
-34
-35
-35
-35
-36
-36
-35
-35
-35
-35
-34
-33
-33
-33
-32
-32
-32
-31
-31
-30
-29
-29
-29
-29
-28
-28
-28
-28
-28
-28
-27
-27
-26
-26
-26
-26
-26
-26
-26
-26
-26
-27
-27
-28
-28
-28
-28
-29
-29
-30
-30
-31
-30
-31
-32
-32
-33
-32
-33
-32
-33
-33
-33
-32
-32
-31
-32
-32
-32
-32
-32
-32
-31
-32
-32
-32
-33
-34
-34
-34
-35
-35
-36
-38
-38
-39
-39
-40
-41
-43
-42
-44
-44
-44
-44
-44
-44
-43
-43
-42
-42
-42
-41
-41
-39
-38
-37
-36
-36
-35
-35
-34
-33
-34
-33
-34
-34
-35
-35
-36
-36
-37
-38
-38
-39
-39
-38
-39
-39
-39
-39
-38
-37
-37
-36
-36
-35
-35
-34
-33
-34
-34
-34
-34
-34
-33
-33
-33
-33
-34
-34
-35
-34
-34
-35
-35
-36
-36
-36
-36
-37
-38
-39
-40
-40
-40
-41
-41
-41
-42
-43
-43
-43
-44
-44
-44
-45
-45
-44
-45
-44
-44
-44
-45
-45
-44
-44
-44
-45
-44
-44
-43
-43
-43
-44
-44
-45
-46
-46
-46
-47
-47
-48
-49
-49
-49
-49
-50
-51
-51
-51
-50
-50
-49
-50
-50
-50
-49
-49
-48
-48
-47
-48
-47
-47
-46
-46
-45
-45
-46
-45
-45
-45
-45
-45
-45
-46
-46
-46
-45
-46
-46
-46
-46
-45
-45
-44
-44
-45
-44
-44
-43
-43
-43
-42
-42
-42
-42
-42
-42
-42
-42
-42
-42
-42
-42
-42
-43
-44
-43
-43
-43
-43
-43
-44
-44
-45
-45
-44
-44
-46
-46
-46
-46
-46
-45
-45
-45
-45
-46
-46
-46
-45
-44
-44
-43
-43
-43
-42
-42
-42
-42
-43
-43
-43
-43
-43
-44
-45
-45
-46
-46
-47
-47
-48
-49
-50
-50
-51
-51
-52
-52
-52
-52
-52
-53
-52
-52
-53
-53
-52
-53
-52
-51
-51
-51
-51
-50
-49
-49
-48
-48
-48
-47
-47
-47
-45
-45
-45
-45
-43
-43
-42
-42
-42
-42
-43
-43
-43
-43
-43
-45
-44
-44
-44
-44
-45
-44
-46
-45
-45
-46
-45
-45
-46
-46
-46
-46
-46
-45
-46
-46
-47
-47
-47
-47
-47
-48
-49
-49
-49
-48
-49
-49
-49
-50
-50
-49
-50
-50
-50
-51
-50
-51
-50
-51
-50
-50
-51
-51
-52
-52
-52
-52
-52
-52
-53
-52
-52
-51
-51
-52
-52
-52
-51
-51
-50
-50
-51
-50
-49
-49
-48
-48
-47
-47
-47
-47
-46
-47
-47
-46
-47
-47
-47
-46
-46
-46
-46
-45
-45
-44
-42
-42
-41
-39
-37
-34
-32
-29
-26
-22
-17
-13
-8
-2
3
9
15
22
29
37
45
52
59
66
71
77
82
85
89
91
92
92
92
90
87
82
