# Simple Text Format
# Sampling Rate (Hz):= 1200.00
# Resolution:= 12
# Labels:= ECG	 I 
# Age:=	33
# Gender:=	Masculino
-155
-155
-155
-155
-155
-155
-155
-155
-155
-155
-155
-155
-155
-155
-155
-155
-155
-155
-155
-155
-154
-154
-154
-154
-154
-153
-153
-153
-154
-154
-154
-154
-154
-154
-155
-155
-155
-155
-155
-155
-155
-156
-156
-156
-156
-156
-155
-155
-155
-155
-156
-156
-156
-156
-156
-156
-156
-156
-155
-155
-155
-155
-155
-155
-155
-154
-154
-154
-154
-154
-154
-154
-154
-154
-154
-153
-153
-153
-153
-153
-153
-153
-153
-154
-154
-154
-154
-153
-153
-153
-153
-153
-153
-153
-153
-153
-153
-153
-153
-153
-153
-153
-153
-153
-153
-153
-153
-153
-153
-153
-153
-153
-153
-153
-152
-152
-153
-153
-153
-153
-153
-153
-153
-152
-152
-152
-152
-152
-152
-152
-152
-152
-152
-152
-152
-152
-151
-151
-151
-151
-152
-152
-152
-152
-152
-152
-152
-152
-152
-152
-152
-152
-152
-152
-152
-152
-152
-152
-152
-152
-152
-152
-152
-152
-152
-152
-152
-152
-152
-152
-152
-152
-152
-152
-152
-152
-152
-152
-152
-152
-152
-152
-152
-152
-152
-151
-151
-151
-151
-151
-151
-151
-151
-151
-151
-151
-151
-151
-151
-151
-151
-151
-151
-152
-152
-152
-152
-152
-152
-152
-152
-152
-152
-152
-152
-152
-151
-151
-151
-151
-151
-151
-151
-151
-152
-151
-151
-151
-151
-151
-151
-150
-150
-150
-150
-150
-151
-150
-150
-150
-149
-149
-148
-148
-148
-148
-148
-147
-146
-146
-145
-145
-144
-143
-143
-143
-142
-142
-141
-141
-141
-140
-140
-140
-139
-140
-139
-138
-138
-137
-137
-137
-136
-136
-135
-134
-133
-133
-132
-131
-131
-129
-129
-129
-128
-128
-127
-127
-127
-126
-126
-125
-126
-126
-126
-126
-127
-127
-128
-128
-128
-128
-128
-128
-128
-129
-129
-128
-128
-128
-128
-128
-127
-128
-127
-127
-127
-127
-126
-127
-126
-127
-127
-127
-128
-128
-128
-129
-130
-131
-131
-133
-134
-134
-136
-137
-138
-139
-141
-141
-143
-144
-145
-146
-147
-147
-148
-149
-150
-150
-151
-151
-152
-152
-151
-152
-152
-152
-152
-152
-152
-152
-153
-153
-152
-152
-152
-152
-152
-152
-152
-152
-152
-152
-152
-152
-152
-152
-152
-152
-152
-152
-153
-152
-153
-153
-154
-155
-156
-157
-158
-159
-160
-162
-163
-165
-166
-168
-169
-170
-172
-172
-173
-174
-174
-173
-173
-171
-171
-168
-166
-162
-158
-153
-148
-142
-135
-128
-119
-111
-102
-93
-83
-71
-60
-48
-36
-23
-11
1
15
27
39
51
63
74
86
96
105
114
121
128
132
136
139
140
139
137
134
129
123
115
107
97
86
74
62
48
34
20
6
-8
-22
-35
-48
-60
-71
-81
-91
-100
-108
-114
-121
-126
-130
-134
-136
-139
-140
-141
-141
-142
-141
-141
-141
-140
-139
-138
-137
-137
-136
-135
-135
-135
-134
-134
-134
-133
-134
-134
-135
-135
-136
-136
-136
-136
-137
-138
-138
-138
-139
-140
-140
-141
-141
-142
-143
-143
-143
-143
-143
-143
-143
-144
-144
-145
-145
-145
-144
-143
-143
-143
-143
-143
-143
-143
-143
-142
-141
-141
-141
-141
-141
-141
-140
-140
-140
-140
-140
-140
-140
-140
-141
-140
-140
-140
-141
-141
-141
-141
-142
-142
-142
-141
-141
-141
-141
-141
-141
-141
-141
-141
-140
-139
-139
-139
-139
-138
-138
-138
-138
-138
-137
-137
-136
-136
-136
-136
-136
-136
-136
-136
-136
-135
-134
-134
-134
-134
-134
-134
-133
-133
-133
-133
-133
-133
-133
-132
-132
-132
-132
-132
-132
-131
-131
-131
-131
-131
-131
-130
-130
-130
-130
-130
-130
-129
-129
-129
-129
-129
-128
-128
-128
-127
-127
-127
-126
-126
-126
-125
-125
-125
-125
-123
-123
-123
-123
-123
-122
-122
-122
-122
-120
-120
-120
-120
-120
-120
-120
-120
-119
-119
-119
-119
-118
-118
-118
-118
-118
-117
-117
-117
-116
-116
-116
-114
-114
-114
-114
-113
-113
-112
-112
-111
-111
-110
-110
-109
-109
-109
-107
-107
-107
-107
-106
-105
-105
-105
-103
-103
-103
-103
-102
-101
-101
-100
-99
-99
-98
-98
-97
-96
-96
-95
-94
-93
-92
-92
-91
-90
-90
-88
-88
-88
-86
-86
-85
-84
-84
-83
-82
-81
-80
-79
-79
-77
-77
-76
-75
-74
-73
-72
-71
-71
-70
-68
-68
-66
-66
-64
-64
-63
-62
-62
-60
-60
-59
-58
-58
-57
-57
-56
-55
-54
-52
-52
-51
-50
-49
-48
-47
-46
-45
-45
-43
-43
-41
-41
-39
-38
-37
-36
-35
-35
-33
-33
-32
-31
-31
-29
-29
-29
-27
-27
-27
-26
-26
-26
-26
-26
-26
-26
-26
-26
-26
-26
-27
-27
-28
-29
-29
-31
-31
-32
-32
-34
-34
-36
-37
-38
-39
-41
-42
-44
-46
-46
-48
-50
-52
-53
-55
-57
-59
-61
-63
-65
-67
-69
-71
-73
-75
-78
-80
-83
-85
-87
-89
-91
-92
-94
-96
-98
-99
-102
-103
-105
-106
-108
-110
-111
-113
-114
-116
-117
-118
-119
-121
-122
-123
-125
-126
-127
-128
-129
-130
-130
-132
-132
-133
-133
-135
-135
-136
-136
-137
-138
-139
-139
-139
-140
-140
-140
-140
-141
-141
-142
-142
-142
-143
-143
-143
-143
-144
-144
-144
-144
-144
-145
-145
-145
-145
-145
-146
-146
-146
-146
-146
-147
-147
-147
-147
-147
-147
-147
-147
-147
-146
-146
-146
-146
-146
-146
-146
-146
-146
-146
-146
-146
-145
-145
-145
-145
-145
-145
-145
-145
-145
-145
-145
-145
-146
-146
-146
-146
-146
-146
-146
-146
-146
-146
-146
-146
-146
-146
-146
-146
-146
-146
-147
-147
-147
-147
-147
-147
-147
-147
-147
-147
-147
-147
-146
-146
-146
-146
-146
-146
-146
-146
-146
-146
-146
-146
-146
-146
-146
-146
-146
-146
-146
-146
-146
-146
-146
-146
-146
-146
-146
-146
-146
-146
-146
-146
-147
-147
-147
-147
-146
-146
-146
-146
-146
-146
-147
-147
-147
-147
-147
-147
-147
-147
-148
-148
-148
-148
-148
-148
-148
-147
-147
-147
-147
-147
-147
-147
-147
-147
-147
-147
-147
-147
-148
-148
-148
-148
-148
-148
-148
-148
-148
-148
-148
-148
-148
-148
-148
-148
-148
-148
-148
-148
-148
-148
-148
-148
-148
-149
-149
-149
-149
-148
-148
-148
-148
-148
-148
-147
-147
-148
-148
-148
-148
-148
-148
-148
-149
-149
-149
-149
-149
-149
-149
-149
-149
-149
-150
-150
-150
-150
-150
-150
-150
-149
-149
-150
-150
-150
-150
-150
-150
-150
-150
-150
-149
-149
-148
-149
-149
-149
-149
-149
-149
-149
-149
-149
-149
-149
-149
-149
-149
-149
-149
-150
-149
-149
-149
-149
-150
-150
-150
-150
-150
-150
-151
-151
-151
-151
-151
-151
-152
-152
-152
-152
-152
-152
-152
-152
-152
-152
-152
-152
-152
-152
-152
-152
-152
-152
-152
-152
-152
-153
-153
-153
-153
-153
-153
-153
-153
-154
-153
-153
-153
-153
-153
-152
-152
-152
-152
-152
-153
-153
-152
-152
-152
-152
-152
-152
-152
-152
-152
-152
-152
-153
-153
-153
-153
-153
-152
-153
-153
-153
-153
-153
-153
-153
-153
-154
-154
-154
-154
-154
-154
-154
-154
-154
-154
-154
-153
-153
-153
-153
-153
-153
-154
-154
-153
-153
-153
-153
-153
-153
-153
-153
-153
-153
-153
-153
-153
-153
-153
-153
-153
-153
-153
-153
-153
-154
-154
-154
-154
-154
-154
-154
-154
-154
-154
-153
-153
-153
-153
-153
-153
-153
-153
-152
-152
-152
-153
-153
-153
-153
-153
-152
-152
-152
-152
-152
-152
-152
-152
-152
-152
-152
-152
-152
-152
-152
-152
-152
-152
-152
-152
-152
-152
-151
-151
-151
-151
-151
-152
-152
-152
-152
-152
-152
-152
-152
-152
-152
-152
-152
-152
-152
-152
-152
-152
-152
-152
-152
-152
-152
-152
-152
-153
-153
-153
-153
-153
-153
-153
-153
-153
-153
-153
-153
-152
-152
-152
-153
-153
-153
-153
-153
-153
-153
-153
-153
-153
-153
-153
-153
-153
-153
-153
-152
-152
-152
-151
-151
-151
-151
-151
-151
-151
-151
-151
-151
-150
-150
-150
-150
-150
-150
-150
-151
-151
-151
-150
-151
-151
-151
-151
-151
-151
-151
-151
-151
-151
-151
-151
-151
-151
-151
-151
-151
-151
-151
-151
-151
-151
-151
-151
-151
-151
-151
-151
-151
-151
-151
-151
-151
-151
-151
-151
-151
-151
-151
-151
-151
-151
-151
-151
-151
-151
-151
-151
-151
-151
-151
-151
-151
-151
-151
-151
-151
-151
-151
-151
-151
-151
-151
-151
-151
-151
-151
-150
-150
-150
-151
-151
-151
-151
-151
-151
-150
-150
-150
-150
-150
-149
-150
-150
-149
-149
-149
-149
-149
-148
-148
-147
-147
-147
-146
-146
-146
-145
-145
-145
-145
-144
-144
-143
-143
-143
-143
-143
-142
-142
-142
-141
-141
-141
-140
-140
-139
-139
-138
-137
-137
-136
-137
-135
-134
-133
-133
-132
-131
-130
-130
-128
-128
-127
-126
-125
-125
-125
-124
-123
-123
-122
-122
-122
-122
-123
-124
-124
-124
-124
-125
-125
-125
-125
-125
-127
-127
-126
-126
-127
-127
-126
-127
-127
-126
-127
-126
-127
-126
-127
-126
-127
-127
-127
-127
-128
-128
-128
-129
-130
-130
-130
-132
-132
-133
-135
-135
-136
-137
-138
-139
-140
-141
-142
-143
-144
-145
-146
-147
-148
-149
-149
-150
-151
-151
-151
-152
-152
-152
-152
-152
-152
-152
-152
-152
-152
-152
-152
-152
-152
-152
-152
-152
-152
-152
-152
-152
-153
-153
-153
-153
-153
-153
-153
-153
-154
-154
-155
-156
-157
-158
-159
-161
-162
-162
-163
-165
-166
-168
-169
-171
-171
-172
-172
-173
-173
-173
-172
-172
-170
-168
-166
-163
-159
-155
-150
-144
-137
-131
-123
-115
-106
-97
-87
-77
-66
-55
-43
-30
-18
-5
7
20
34
44
57
69
81
92
101
110
119
127
133
137
141
143
143
142
139
135
129
123
114
105
94
82
70
57
43
29
14
0
-14
-28
-42
-54
-66
-77
-87
-97
-105
-112
-118
-123
-128
-132
-135
-137
-139
-140
-140
-142
-141
-140
-140
-140
-139
-138
-137
-137
-136
-135
-135
-134
-134
-134
-133
-134
-134
-134
-134
-135
-135
-136
-136
-136
-137
-137
-138
-138
-138
-139
-139
-140
-140
-140
-140
-141
-141
-141
-141
-142
-142
-142
-142
-142
-142
-142
-142
-142
-142
-142
-142
-141
-141
-141
-142
-142
-142
-142
-141
-141
-141
-141
-142
-142
-142
-142
-142
-142
-142
-142
-141
-141
-141
-141
-141
-141
-140
-140
-140
-140
-139
-139
-139
-139
-139
-138
-138
-138
-138
-138
-138
-137
-137
-137
-137
-137
-137
-137
-137
-136
-136
-136
-135
-136
-136
-136
-135
-135
-135
-135
-135
-134
-133
-133
-133
-133
-133
-133
-132
-132
-132
-132
-132
-131
-131
-131
-131
-130
-130
-130
-130
-130
-129
-129
-129
-129
-128
-128
-128
-128
-127
-128
-128
-128
-127
-127
-127
-127
-127
-126
-125
-125
-125
-125
-124
-124
-124
-124
-123
-123
-123
-122
-122
-122
-122
-122
-121
-121
-120
-120
-120
-120
-119
-119
-119
-119
-118
-118
-118
-117
-117
-117
-116
-115
-115
-115
-115
-115
-114
-114
-113
-113
-112
-112
-112
-112
-111
-111
-111
-111
-109
-109
-109
-109
-108
-107
-107
-107
-106
-105
-105
-105
-103
-103
-103
-103
-101
-101
-101
-99
-99
-98
-97
-97
-96
-96
-95
-94
-94
-92
-92
-92
-90
-90
-89
-89
-87
-87
-86
-86
-85
-84
-83
-82
-82
-82
-80
-80
-79
-79
-77
-77
-75
-75
-74
-74
-73
-72
-71
-70
-69
-69
-67
-67
-65
-65
-63
-63
-61
-61
-59
-58
-58
-56
-56
-54
-54
-52
-52
-50
-50
-49
-49
-47
-47
-46
-45
-44
-43
-42
-41
-41
-39
-39
-38
-37
-36
-35
-34
-33
-33
-32
-31
-31
-30
-30
-29
-28
-28
-28
-26
-26
-26
-25
-25
-25
-24
-24
-24
-24
-24
-24
-24
-24
-23
-24
-24
-24
-25
-25
-26
-27
-27
-29
-30
-30
-32
-33
-34
-36
-37
-39
-40
-42
-44
-45
-47
-49
-51
-53
-55
-58
-60
-62
-64
-66
-69
-71
-73
-75
-77
-79
-82
-83
-85
-87
-90
-92
-94
-96
-97
-99
-101
-103
-104
-106
-108
-109
-111
-112
-114
-116
-116
-118
-119
-120
-121
-122
-124
-124
-126
-126
-127
-129
-129
-129
-130
-131
-132
-132
-134
-134
-134
-135
-135
-135
-137
-137
-137
-138
-138
-139
-139
-139
-140
-140
-141
-141
-142
-142
-142
-142
-142
-142
-143
-143
-143
-143
-143
-143
-143
-143
-142
-142
-142
-143
-143
-142
-142
-142
-142
-142
-142
-142
-142
-143
-143
-143
-143
-143
-143
-143
-143
-143
-143
-143
-143
-143
-143
-143
-143
-143
-144
-144
-144
-143
-143
-143
-143
-143
-143
-143
-143
-143
-142
-142
-142
-142
-142
-142
-142
-142
-142
-142
-142
-142
-142
-142
-143
-143
-143
-143
-143
-144
-145
-145
-145
-145
-144
-144
-144
-144
-144
-144
-143
-143
-143
-143
-143
-144
-143
-143
-143
-143
-143
-143
-143
-143
-142
-142
-142
-142
-142
-143
-143
-143
-143
-143
-143
-143
-143
-143
-143
-143
-143
-143
-143
-143
-143
-143
-143
-144
-144
-145
-145
-145
-145
-145
-145
-145
-145
-145
-146
-146
-146
-146
-146
-145
-145
-145
-145
-145
-144
-144
-144
-143
-143
-143
-143
-143
-143
-143
-143
-144
-144
-144
-144
-144
-144
-144
-144
-144
-144
-144
-144
-145
-145
-145
-145
-145
-145
-145
-145
-145
-145
-145
-145
-145
-146
-146
-146
-146
-146
-146
-146
-146
-146
-146
-147
-147
-147
-147
-147
-147
-147
-147
-147
-147
-147
-147
-147
-147
-147
-147
-147
-147
-147
-147
-147
-148
-148
-148
-148
-148
-148
-148
-149
-149
-149
-149
-149
-149
-149
-149
-149
-149
-149
-148
-148
-148
-148
-148
-149
-149
-149
-149
-149
-149
-149
-149
-149
-149
-149
-149
-149
-149
-150
-150
-150
-150
-150
-150
-150
-150
-150
-150
-150
-150
-149
-149
-149
-149
-149
-149
-149
-149
-150
-150
-150
-150
-149
-149
-149
-149
-149
-149
-149
-149
-149
-149
-149
-149
-149
-149
-149
-149
-149
-149
-149
-149
-150
-150
-150
-150
-150
-150
-150
-150
-150
-150
-150
-150
-150
-150
-149
-149
-149
-149
-149
-149
-149
-149
-149
-149
-149
-149
-149
-149
-149
-149
-149
-149
-150
-150
-150
-150
-150
-151
-150
-150
-150
-151
-151
-151
-151
-151
-151
-151
-151
-151
-151
-151
-151
-151
-151
-151
-150
-150
-150
-150
-151
-151
-151
-151
-151
-151
-151
-150
-150
-150
-150
-150
-150
-150
-150
-150
-150
-149
-149
-149
-149
-149
-149
-150
-150
-150
-150
-150
-150
-150
-150
-150
-150
-150
-150
-150
-151
-151
-150
-150
-150
-150
-150
-150
-150
-150
-150
-150
-150
-149
-149
-149
-150
-150
-150
-150
-150
-150
-150
-150
-150
-150
-150
-150
-150
-150
-150
-150
-150
-150
-150
-150
-150
-150
-150
-150
-150
-149
-149
-149
-149
-149
-149
-149
-149
-149
-149
-149
-149
-149
-149
-149
-149
-149
-149
-149
-149
-149
-149
-149
-149
-149
-149
-149
-149
-149
-149
-149
-149
-149
-149
-149
-149
-149
-150
-150
-150
-150
-150
-150
-149
-149
-149
-149
-149
-149
-149
-149
-149
-149
-149
-149
-149
-149
-148
-148
-148
-148
-148
-149
-149
-149
-149
-149
-149
-149
-149
-148
-148
-148
-148
-148
-148
-148
-148
-148
-148
-148
-148
-148
-148
-148
-148
-148
-148
-149
-148
-148
-148
-148
-148
-148
-148
-148
-148
-148
-148
-148
-148
-148
-147
-148
-148
-148
-147
-147
-148
-147
-147
-147
-146
-146
-146
-145
-145
-145
-145
-145
-144
-144
-144
-144
-143
-143
-143
-143
-142
-141
-141
-141
-142
-141
-141
-140
-140
-139
-139
-138
-139
-137
-136
-136
-135
-135
-134
-133
-132
-131
-130
-129
-129
-128
-128
-126
-126
-125
-125
-125
-124
-124
-124
-124
-125
-125
-125
-125
-125
-126
-126
-127
-127
-128
-128
-128
-128
-128
-127
-128
-128
-128
-127
-128
-128
-127
-127
-128
-128
-128
-128
-128
-128
-128
-129
-129
-129
-130
-130
-130
-131
-132
-132
-134
-134
-135
-136
-137
-137
-139
-140
-141
-142
-143
-144
-145
-146
-147
-147
-149
-149
-150
-150
-151
-151
-151
-153
-153
-153
-154
-153
-153
-153
-154
-154
-153
-153
-153
-153
-153
-153
-154
-153
-153
-153
-153
-153
-153
-153
-153
-154
-154
-154
-155
-155
-156
-155
-156
-157
-158
-159
-160
-162
-162
-163
-165
-166
-168
-168
-170
-171
-172
-173
-173
-174
-174
-173
-173
-171
-170
-169
-165
-163
-159
-154
-149
-143
-137
-130
-122
-114
-105
-96
-86
-75
-65
-54
-42
-31
-19
-7
6
18
29
40
51
62
73
82
90
99
106
112
117
120
122
124
123
121
117
113
107
99
91
81
70
60
47
35
22
9
-5
-18
-31
-44
-57
-68
-78
-88
-97
-105
-113
-119
-125
-130
-134
-137
-140
-142
-143
-144
-145
-145
-145
-145
-144
-143
-142
-142
-141
-141
-139
-139
-138
-138
-138
-138
-137
-137
-137
-137
-136
-137
-137
-138
-138
-138
-138
-139
-139
-140
-140
-141
-141
-142
-142
-143
-143
-143
-144
-144
-144
-144
-144
-144
-144
-145
-145
-145
-145
-145
-145
-145
-145
-145
-145
-144
-144
-144
-144
-144
-144
-144
-145
-145
-144
-144
-144
-144
-144
-143
-143
-143
-143
-143
-143
-142
-142
-141
-141
-141
-141
-141
-141
-141
-141
-141
-140
-140
-140
-140
-140
-140
-141
-140
-140
-140
-140
-140
-139
-139
-139
-139
-139
-138
-138
-138
-138
-138
-137
-137
-136
-136
-136
-136
-136
-135
-135
-135
-135
-135
-134
-134
-133
-133
-133
-133
-133
-133
-132
-131
-131
-131
-131
-130
-130
-130
-130
-130
-129
-129
-129
-129
-128
-128
-128
-128
-127
-127
-127
-127
-127
-127
-126
-126
-126
-126
-125
-125
-125
-125
-125
-125
-125
-124
-123
-123
-123
-122
-122
-122
-122
-122
-121
-121
-121
-121
-121
-121
-120
-119
-119
-119
-119
-119
-119
-119
-118
-117
-117
-117
-117
-117
-117
-116
-116
-116
-116
-114
-114
-114
-114
-113
-112
-112
-112
-111
-111
-111
-110
-109
-109
-108
-107
-107
-107
-106
-105
-104
-104
-103
-103
-102
-101
-101
-101
-100
-99
-99
-98
-97
-97
-96
-95
-95
-95
-94
-93
-93
-91
-91
-91
-89
-89
-88
-87
-86
-86
-84
-84
-83
-82
-81
-80
-79
-78
-77
-76
-75
-75
-73
-73
-72
-71
-71
-69
-69
-67
-67
-66
-65
-64
-63
-62
-61
-61
-59
-58
-58
-56
-55
-54
-53
-53
-51
-50
-50
-48
-48
-46
-45
-45
-43
-43
-41
-41
-39
-39
-37
-37
-36
-36
-35
-35
-33
-33
-31
-31
-30
-29
-29
-27
-27
-27
-26
-26
-26
-26
-25
-25
-25
-25
-25
-25
-25
-26
-26
-26
-27
-27
-28
-29
-29
-30
-30
-31
-32
-33
-34
-36
-37
-38
-39
-41
-43
-46
-47
-49
-51
-53
-54
-56
-59
-61
-63
-65
-67
-69
-71
-73
-76
-78
-80
-82
-84
-86
-88
-90
-92
-94
-96
-98
-100
-102
-104
-106
-108
-110
-111
-113
-114
-116
-118
-119
-120
-121
-123
-124
-126
-127
-127
-128
-130
-130
-131
-132
-133
-134
-134
-135
-135
-137
-137
-138
-138
-139
-139
-140
-140
-141
-141
-142
-142
-142
-143
-143
-144
-144
-144
-144
-145
-145
-145
-145
-145
-146
-146
-146
-146
-147
-147
-147
-147
-147
-147
-146
-146
-146
-146
-146
-146
-146
-146
-146
-146
-146
-146
-146
-146
-147
-147
-147
-147
-147
-147
-147
-147
-147
-147
-147
-147
-146
-146
-146
-146
-146
-146
-146
-146
-146
-147
-146
-146
-146
-146
-146
-147
-147
-146
-146
-146
-147
-147
-147
-147
-147
-147
-147
-147
-147
-147
-147
-147
-146
-146
-146
-146
-146
-146
-146
-146
-146
-146
-146
-146
-146
-146
-146
-146
-145
-145
-145
-145
-146
-146
-146
-146
-146
-146
-145
-145
-145
-145
-146
-146
-146
-146
-146
-145
-145
-145
-145
-145
-145
-145
-145
-145
-145
-144
-144
-144
-144
-144
-144
-144
-144
-144
-144
-144
-143
-144
-144
-144
-144
-144
-144
-144
-144
-144
-144
-144
-144
-144
-144
-145
-145
-145
-145
-145
-145
-145
-145
-145
-146
-146
-146
-146
-146
-146
-146
-146
-146
-146
-146
-146
-146
-146
-146
-146
-147
-147
-147
-147
-147
-147
-147
-147
-147
-146
-146
-146
-146
-147
-147
-147
-147
-146
-146
-146
-146
-146
-146
-146
-146
-146
-146
-146
-146
-146
-146
-147
-147
-147
-147
-147
-147
-147
-147
-147
-147
-147
-147
-147
-147
-147
-148
-148
-148
-148
-148
-148
-148
-147
-148
-148
-148
-148
-148
-148
-148
-148
-148
-148
-149
-149
-149
-149
-149
-149
-150
-150
-150
-150
-150
-149
-149
-149
-149
-148
-148
-148
-148
-147
-147
-147
-147
-147
-146
-146
-146
-146
-145
-145
-145
-145
-145
-145
-146
-146
-147
-147
-147
-147
-147
-147
-147
-148
-148
-148
-148
-148
-148
-147
-147
-147
-147
-147
-147
-147
-147
-147
-147
-147
-147
-147
-147
-147
-146
-146
-146
-147
-147
-147
-146
-146
-146
-146
-146
-147
-147
-147
-147
-147
-147
-147
-147
-147
-147
-147
-147
-148
-148
-148
-148
-147
-147
-147
-147
-147
-147
-148
-148
-148
-148
-148
-148
-148
-148
-148
-148
-148
-148
-147
-147
-147
-147
-147
-147
-147
-147
-147
-148
-148
-148
-148
-148
-148
-148
-148
-148
-148
-148
-148
-148
-147
-147
-147
-147
-148
-148
-148
-148
-148
-148
-148
-148
-148
-148
-148
-147
-147
-147
-147
-147
-147
-146
-146
-146
-146
-146
-146
-145
-145
-145
-145
-145
-145
-145
-145
-145
-146
-146
-146
-146
-146
-146
-146
-146
-147
-147
-147
-147
-147
-147
-147
-147
-146
-146
-146
-146
-146
-146
-146
-146
-146
-146
-144
-144
-144
-144
-144
-144
-144
-144
-144
-144
-144
-144
-144
-144
-144
-144
-144
-144
-144
-144
-144
-145
-145
-145
-145
-145
-145
-145
-145
-144
-144
-144
-144
-144
-144
-144
-144
-144
-144
-144
-144
-144
-144
-144
-144
-144
-144
-144
-144
-144
-144
-144
-144
-144
-144
-144
-144
-144
-144
-144
-144
-144
-144
-144
-144
-144
-144
-144
-144
-144
-145
-145
-145
-145
-145
-145
-145
-145
-145
-145
-145
-145
-145
-145
-145
-145
-144
-144
-144
-144
-144
-145
-145
-145
-145
-145
-145
-145
-145
-145
-145
-145
-145
-145
-145
-145
-145
-145
-145
-145
-145
-145
-145
-144
-144
-144
-144
-144
-144
-144
-144
-144
-144
-144
-144
-144
-144
-144
-144
-144
-144
-144
-144
-144
-143
-143
-143
-143
-144
-144
-144
-144
-144
-144
-144
-144
-144
-144
-144
-145
-145
-145
-145
-144
-144
-144
-144
-144
-144
-144
-144
-144
-144
-144
-143
-143
-143
-143
-142
-142
-142
-142
-141
-141
-141
-141
-140
-140
-140
-139
-139
-138
-138
-138
-137
-137
-137
-137
-136
-136
-135
-135
-134
-134
-133
-134
-133
-132
-132
-131
-132
-131
-130
-130
-130
-130
-128
-128
-127
-127
-126
-125
-125
-124
-124
-122
-122
-121
-121
-120
-120
-119
-119
-119
-119
-119
-118
-119
-119
-119
-119
-119
-119
-119
-120
-120
-120
-120
-121
-121
-121
-122
-122
-121
-122
-122
-122
-123
-122
-123
-122
-123
-123
-123
-123
-124
-124
-124
-125
-125
-125
-125
-126
-127
-127
-128
-129
-129
-131
-131
-132
-133
-134
-136
-136
-138
-138
-139
-140
-141
-142
-143
-144
-144
-145
-145
-146
-146
-146
-147
-147
-147
-147
-148
-148
-148
-148
-148
-148
-148
-147
-148
-149
-148
-148
-148
-148
-148
-148
-148
-148
-148
-148
-148
-148
-148
-149
-149
-150
-151
-152
-153
-154
-154
-155
-157
-158
-159
-161
-163
-164
-166
-167
-168
-169
-169
-170
-170
-170
-170
-169
-167
-165
-163
-159
-155
-150
-145
-139
-132
-124
-117
-108
-98
-89
-78
-68
-57
-45
-33
-21
-9
4
17
28
41
53
66
78
89
99
109
118
125
133
139
143
146
148
147
147
143
138
133
126
117
108
96
85
72
59
46
31
16
2
-12
-26
-39
-51
-63
-74
-84
-93
-100
-107
-113
-118
-122
-126
-129
-131
-133
-133
-134
-134
-134
-134
-133
-133
-133
-131
-131
-131
-131
-130
-130
-130
-130
-129
-129
-130
-130
-131
-131
-131
-132
-132
-132
-133
-133
-134
-135
-136
-136
-137
-137
-138
-138
-138
-139
-140
-140
-140
-140
-140
-140
-140
-141
-141
-141
-141
-141
-141
-141
-139
-139
-139
-139
-139
-139
-139
-139
-139
-139
-138
-138
-137
-138
-138
-138
-138
-139
-139
-139
-139
-139
-139
-140
-140
-139
-139
-139
-139
-140
-140
-140
-140
-140
-139
-138
-138
-138
-138
-138
-137
-136
-136
-136
-136
-136
-134
-134
-134
-134
-134
-134
-133
-133
-133
-133
-132
-132
-132
-132
-133
-133
-132
-132
-132
-132
-132
-132
-132
-132
-132
-132
-132
-132
-132
-131
-130
-130
-130
-130
-130
-130
-129
-129
-129
-129
-128
-128
-128
-128
-128
-127
-127
-127
-126
-126
-125
-125
-125
-125
-125
-125
-124
-124
-124
-122
-122
-122
-121
-121
-121
-121
-121
-120
-120
-120
-119
-119
-119
-119
-118
-118
-118
-118
-119
-118
-118
-118
-117
-117
-116
-116
-116
-114
-114
-113
-113
-112
-111
-111
-111
-110
-110
-108
-108
-108
-107
-107
-106
-106
-106
-105
-105
-105
-104
-104
-104
-104
-103
-102
-101
-101
-101
-100
-100
-100
-99
-98
-97
-97
-96
-96
-94
-94
-94
-93
-92
-92
-92
-91
-90
-89
-89
-88
-88
-87
-86
-86
-84
-84
-83
-83
-82
-82
-82
-81
-81
-80
-80
-79
-79
-77
-76
-76
-74
-74
-73
-71
-71
-70
-68
-67
-65
-64
-62
-61
-59
-58
-57
-55
-54
-53
-51
-50
-49
-48
-46
-46
-44
-44
-43
-43
-41
-41
-40
-39
-38
-37
-36
-35
-34
-34
-34
-32
-31
-31
-30
-29
-28
-27
-27
-25
-25
-23
-23
-22
-20
-20
-19
-19
-18
-18
-18
-17
-16
-16
-16
-16
-16
-15
-15
-16
-16
-17
-17
-17
-18
-18
-19
-20
-20
-22
-22
-23
-23
-24
-25
-25
-25
-27
-28
-29
-30
-31
-33
-34
-36
-37
-38
-40
-42
-44
-46
-48
-51
-53
-55
-57
-60
-62
-64
-66
-68
-71
-73
-75
-77
-79
-81
-83
-84
-86
-88
-88
-90
-91
-92
-93
-94
-95
-96
-97
-97
-98
-99
-100
-100
-101
-101
-102
-103
-103
-104
-104
-105
-106
-106
-107
-108
-109
-110
-110
-110
-111
-111
-111
-113
-113
-113
-113
-114
-115
-115
-115
-114
-114
-113
-113
-112
-111
-111
-110
-110
-109
-109
-109
-109
-108
-107
-107
-106
-106
-106
-105
-105
-105
-105
-104
-104
-104
-104
-104
-103
-103
-103
-102
-102
-102
-101
-101
-101
-101
-101
-101
-101
-100
-101
-100
-100
-100
-100
-101
-100
-100
-100
-100
-100
-100
-100
-99
-99
-100
-100
-100
-100
-100
-100
-100
-100
-100
-100
-100
-100
-100
-100
-100
-100
-100
-100
-100
-100
-100
-100
-100
-100
-100
-99
-100
-99
-99
-99
-99
-99
-99
-100
-100
-100
-100
-100
-99
-99
-99
-99
-99
-99
-99
-99
-99
-98
-98
-98
-98
-98
-96
-96
-96
-96
-96
-96
-97
-97
-97
-97
-97
-97
-97
-98
-98
-98
-98
-98
-98
-98
-98
-98
-98
-98
-99
-98
-98
-97
-97
-96
-97
-97
-97
-98
-98
-98
-98
-99
-99
-99
-99
-99
-99
-99
-99
-99
-98
-98
-98
-98
-98
-98
-97
-97
-97
-97
-96
-96
-96
-97
-96
-96
-96
-96
-97
-97
-97
-96
-97
-97
-97
-97
-97
-97
-96
-96
-96
-96
-95
-95
-96
-95
-95
-95
-95
-94
-94
-94
-94
-95
-95
-95
-95
-94
-94
-95
-95
-95
-94
-94
-94
-94
-94
-94
-94
-94
-94
-94
-92
-92
-92
-92
-93
-93
-92
-92
-92
-92
-92
-92
-92
-91
-91
-92
-92
-91
-91
-91
-91
-89
-89
-89
-89
-89
-90
-90
-89
-89
-89
-89
-89
-89
-88
-88
-89
-88
-87
-87
-87
-87
-87
-87
-86
-86
-86
-86
-84
-84
-84
-83
-82
-82
-82
-81
-81
-81
-81
-81
-80
-80
-80
-80
-80
-79
-79
-79
-79
-79
-80
-80
-80
-80
-81
-81
-81
-82
-81
-81
-82
-82
-83
-83
-83
-82
-82
-82
-82
-82
-82
-82
-82
-82
-82
-82
-81
-81
-81
-80
-80
-79
-79
-79
-79
-78
-78
-78
-77
-77
-76
-76
-76
-75
-74
-74
-74
-73
-73
-72
-72
-72
-71
-71
-71
-71
-72
-72
-72
-72
-72
-72
-72
-72
-72
-73
-72
-72
-72
-72
-72
-72
-72
-73
-73
-71
-71
-71
-71
-70
-70
-70
-69
-69
-69
-69
-69
-69
-69
-68
-68
-68
-68
-68
-67
-67
-67
-68
-68
-68
-68
-68
-66
-66
-66
-66
-66
-66
-65
-65
-65
-65
-65
-65
-65
-64
-63
-63
-63
-63
-62
-61
-60
-60
-59
-58
-58
-58
-58
-58
-58
-57
-57
-57
-57
-57
-57
-57
-57
-57
-58
-58
-58
-58
-58
-58
-58
-58
-59
-58
-58
-59
-59
-58
-58
-57
-57
-57
-56
-56
-56
-55
-55
-55
-54
-54
-54
-54
-53
-52
-52
-52
-52
-52
-52
-52
-52
-52
-52
-53
-53
-53
-52
-53
-54
-54
-54
-54
-54
-54
-54
-54
-54
-54
-53
-53
-53
-53
-52
-51
-51
-50
-49
-49
-49
-48
-48
-48
-47
-46
-46
-46
-46
-46
-46
-46
-46
-45
-45
-45
-45
-45
-44
-44
-44
-44
-44
-44
-44
-43
-43
-43
-43
-43
-42
-41
-41
-40
-40
-40
-39
-39
-39
-39
-39
-40
-40
-40
-40
-40
-40
-40
-41
-42
-43
-43
-44
-44
-45
-45
-45
-46
-46
-46
-46
-46
-46
-46
-46
-46
-46
-47
-46
-46
-46
-45
-45
-44
-44
-44
-44
-44
-43
-44
-44
-44
-44
-44
-43
-43
-43
-43
-43
-43
-43
-43
-43
-43
-43
-43
-43
-43
-42
-42
-42
-41
-41
-41
-41
-41
-41
-40
-39
-39
-38
-38
-38
-37
-36
-37
-37
-37
-36
-36
-35
-35
-34
-34
-33
-33
-33
-32
-33
-32
-32
-30
-30
-29
-28
-29
-28
-27
-26
-26
-25
-25
-24
-23
-23
-23
-22
-22
-22
-21
-22
-22
-22
-21
-21
-22
-22
-22
-23
-23
-23
-24
-23
-23
-24
-24
-24
-24
-25
-26
-26
-26
-26
-26
-27
-26
-27
-27
-27
-28
-28
-29
-30
-30
-31
-32
-33
-34
-35
-36
-37
-39
-41
-42
-43
-44
-46
-46
-48
-49
-50
-51
-51
-52
-52
-53
-53
-54
-54
-54
-54
-55
-55
-55
-56
-57
-57
-57
-58
-59
-59
-59
-59
-60
-60
-60
-60
-61
-61
-61
-60
-61
-61
-61
-60
-61
-60
-61
-60
-61
-60
-61
-61
-61
-62
-62
-64
-64
-65
-67
-68
-69
-70
-71
-74
-75
-77
-79
-81
-83
-85
-86
-87
-89
-90
-90
-91
-91
-90
-89
-87
-85
-82
-78
-74
-68
-63
-56
-48
-41
-33
-23
-13
-3
8
20
31
43
55
68
80
93
105
117
128
139
149
159
168
177
183
189
194
198
200
201
200
198
194
189
182
174
165
154
142
130
117
104
90
76
61
47
32
20
6
-5
-16
-26
-36
-44
-52
-58
-64
-69
-74
-77
-79
-81
-83
-84
-84
-84
-84
-84
-83
-83
-83
-81
-81
-81
-81
-81
-81
-81
-82
-82
-82
-83
-84
-85
-86
-86
-87
-88
-90
-90
-91
-91
-92
-93
-94
-95
-95
-96
-96
-97
-98
-97
-98
-99
-99
-100
-100
-101
-101
-102
-102
-103
-103
-104
-104
-104
-105
-105
-105
-104
-104
-104
-105
-104
-104
-104
-103
-103
-104
-103
-103
-103
-103
-103
-103
-103
-103
-103
-102
-103
-103
-102
-102
-102
-102
-102
-102
-101
-101
-101
-101
-101
-101
-100
-100
-100
-101
-101
-101
-100
-100
-100
-100
-101
-100
-100
-100
-100
-100
-99
-100
-100
-99
-99
-99
-99
-98
-98
-98
-98
-97
-97
-97
-97
-97
-96
-96
-96
-96
-97
-96
-96
-96
-97
-97
-97
-97
-97
-98
-98
-97
-97
-98
-98
-98
-98
-98
-98
-98
-98
-98
-98
-98
-97
-97
-97
-95
-95
-95
-95
-95
-95
-93
-93
-93
-93
-93
-93
-93
-93
-93
-92
-92
-92
-91
-91
-91
-91
-91
-92
-92
-91
-91
-91
-91
-91
-91
-91
-91
-90
-90
-90
-90
-90
-89
-89
-89
-89
-90
-90
-90
-90
-90
-90
-90
-90
-90
-90
-90
-90
-90
-90
-90
-91
-91
-91
-91
-91
-91
-91
-91
-90
-90
-90
-90
-90
-90
-90
-90
-90
-89
-89
-89
-89
-88
-88
-88
-86
-86
-86
-86
-85
-85
-84
-84
-83
-83
-82
-82
-82
-82
-81
-81
-80
-80
-79
-79
-79
-78
-78
-77
-77
-75
-75
-75
-74
-74
-73
-73
-73
-72
-71
-70
-70
-69
-69
-68
-68
-67
-66
-66
-66
-65
-65
-64
-63
-62
-61
-60
-60
-58
-58
-57
-56
-55
-55
-53
-53
-52
-51
-51
-50
-48
-48
-47
-47
-46
-46
-45
-44
-43
-43
-42
-42
-42
-40
-40
-40
-39
-38
-38
-38
-38
-38
-37
-38
-38
-38
-38
-39
-39
-39
-40
-40
-42
-43
-43
-45
-46
-48
-49
-50
-51
-53
-55
-57
-58
-60
-62
-64
-65
-67
-69
-71
-74
-76
-77
-80
-82
-84
-86
-90
-91
-93
-95
-98
-100
-103
-105
-107
-109
-111
-114
-116
-118
-120
-122
-124
-126
-128
-130
-132
-134
-136
-137
-139
-141
-143
-144
-145
-148
-149
-151
-151
-153
-154
-155
-155
-157
-158
-159
-159
-161
-162
-162
-163
-163
-164
-165
-166
-167
-167
-168
-168
-168
-168
-169
-169
-170
-170
-171
-171
-172
-173
-173
-174
-175
-175
-174
-174
-175
-175
-175
-175
-175
-175
-174
-174
-174
-174
-173
-173
-173
-172
-172
-171
-171
-172
-172
-172
-171
-171
-172
-172
-172
-173
-173
-173
-172
-172
-172
-172
-171
-170
-169
-168
-167
-167
-167
-166
-165
-165
-164
-164
-164
-163
-163
-163
-162
-162
-163
-163
-164
-164
-165
-166
-166
-166
-166
-166
-166
-166
-165
-165
-164
-164
-163
-164
-163
-163
-163
-162
-162
-161
-161
-160
-161
-161
-161
-160
-160
-160
-160
-161
-161
-161
-161
-161
-161
-161
-162
-162
-162
-162
-161
-161
-160
-160
-160
-159
-159
-158
-156
-156
-155
-153
-152
-151
-151
-151
-150
-150
-150
-151
-152
-152
-152
-153
-153
-154
-154
-156
-157
-158
-159
-160
-161
-162
-163
-163
-163
-163
-163
-163
-163
-163
-163
-163
-163
-162
-162
-162
-162
-161
-161
-160
-160
-160
-159
-159
-160
-160
-159
-159
-159
-159
-159
-159
-159
-158
-158
-158
-158
-159
-159
-160
-160
-160
-160
-161
-161
-161
-162
-162
-163
-163
-164
-164
-164
-164
-165
-165
-165
-166
-166
-167
-168
-168
-169
-169
-170
-170
-171
-172
-173
-174
-176
-177
-178
-178
-178
-179
-180
-181
-182
-183
-183
-184
-185
-185
-186
-185
-185
-185
-185
-186
-186
-186
-186
-187
-187
-188
-188
-188
-189
-189
-190
-190
-190
-191
-191
-192
-193
-194
-194
-195
-195
-196
-196
-197
-197
-198
-198
-199
-199
-200
-201
-201
-201
-202
-201
-201
-201
-201
-202
-202
-202
-202
-202
-202
-202
-202
-202
-202
-202
-202
-202
-202
-202
-203
-203
-203
-203
-203
-203
-203
-203
-204
-205
-205
-206
-206
-207
-207
-206
-206
-207
-207
-208
-208
-208
-209
-209
-210
-210
-210
-211
-211
-211
-211
-211
-211
-212
-212
-213
-213
-213
-213
-213
-213
-214
-214
-214
-214
-214
-215
-215
-215
-215
-215
-215
-215
-214
-214
-214
-214
-214
-214
-214
-213
-214
-214
-214
-214
-214
-215
-215
-215
-216
-216
-216
-216
-217
-217
-218
-218
-218
-218
-218
-219
-219
-218
-218
-218
-218
-217
-217
-218
-218
-218
-218
-218
-219
-219
-219
-218
-218
-218
-218
-219
-218
-218
-218
-219
-219
-218
-218
-218
-218
-217
-217
-218
-219
-219
-220
-220
-220
-220
-220
-220
-220
-219
-219
-220
-220
-220
-220
-220
-220
-219
-220
-220
-220
-220
-220
-220
-220
-221
-221
-221
-221
-222
-222
-222
-222
-222
-223
-223
-223
-222
-222
-222
-223
-223
-223
-224
-224
-224
-224
-225
-225
-224
-225
-225
-227
-227
-227
-228
-228
-228
-228
-229
-229
-229
-230
-230
-231
-231
-232
-232
-232
-232
-232
-232
-232
-232
-232
-232
-232
-232
-232
-232
-232
-232
-232
-232
-232
-231
-231
-231
-230
-230
-230
-230
-230
-230
-230
-230
-229
-229
-229
-229
-229
-230
-230
-230
-230
-230
-229
-229
-229
-229
-230
-231
-231
-231
-231
-231
-230
-230
-230
-230
-230
-230
-230
-230
-230
-230
-230
-230
-230
-230
-231
-231
-231
-231
-231
-231
-231
-230
-230
-229
-229
-229
-230
-230
-229
-229
-229
-229
-229
-228
-228
-228
-227
-227
-227
-226
-225
-225
-225
-225
-225
-225
-225
-225
-223
-223
-223
-223
-223
-223
-223
-223
-223
-223
-222
-222
-222
-221
-221
-220
-220
-220
-219
-219
-218
-218
-217
-217
-216
-216
-214
-214
-213
-213
-213
-212
-211
-210
-210
-210
-208
-208
-207
-207
-206
-206
-205
-205
-204
-204
-204
-203
-202
-202
-202
-201
-200
-200
-200
-199
-198
-197
-197
-196
-195
-195
-193
-193
-191
-191
-189
-189
-187
-186
-186
-185
-184
-184
-183
-182
-182
-182
-182
-182
-183
-183
-183
-184
-184
-186
-186
-186
-186
-187
-188
-188
-188
-189
-188
-188
-189
-189
-190
-189
-189
-189
-189
-190
-189
-190
-190
-189
-190
-190
-191
-191
-191
-191
-191
-192
-193
-194
-194
-195
-196
-197
-198
-199
-200
-201
-203
-203
-205
-206
-207
-208
-209
-210
-211
-212
-213
-213
-214
-215
-215
-216
-216
-216
-217
-217
-217
-217
-218
-218
-218
-217
-217
-217
-217
-217
-217
-217
-217
-217
-217
-216
-216
-216
-216
-216
-216
-216
-217
-217
-218
-219
-219
-220
-222
-223
-224
-225
-226
-227
-228
-229
-231
-232
-234
-234
-235
-236
-236
-236
-235
-235
-234
-233
-231
-228
-225
-221
-217
-211
-206
-199
-192
-183
-175
-165
-156
-145
-135
-123
-111
-99
-87
-75
-62
-48
-36
-23
-12
1
13
24
35
45
53
61
68
74
79
82
84
84
82
80
76
70
63
55
46
35
23
11
-1
-15
-29
-44
-58
-73
-86
-100
-112
-124
-135
-145
-155
-162
-170
-176
-181
-186
-190
-192
-195
-196
-197
-198
-198
-198
-197
-196
-196
-195
-194
-194
-193
-193
-192
-192
-191
-191
-191
-191
-191
-191
-190
-190
-190
-190
-190
-190
-190
-190
-190
-190
-191
-190
-191
-191
-190
-191
-191
-191
-190
-191
-191
-192
-191
-191
-191
-192
-192
-192
-192
-192
-192
-192
-192
-191
-191
-191
-192
-191
-191
-191
-189
-189
-188
-188
-188
-187
-187
-186
-186
-185
-185
-184
-184
-183
-183
-183
-182
-183
-183
-182
-182
-181
-181
-181
-180
-180
-180
-179
-179
-178
-177
-177
-177
-176
-176
-175
-175
-174
-174
-173
-173
-173
-172
-172
-171
-170
-170
-170
-169
-169
-169
-169
-168
-168
-168
-168
-167
-167
-167
-167
-166
-166
-166
-166
-165
-165
-165
-164
-164
-164
-163
-163
-162
-162
-162
-161
-161
-160
-160
-160
-158
-158
-158
-158
-157
-157
-157
-156
-156
-156
-156
-155
-155
-154
-153
-153
-152
-152
-152
-151
-151
-150
-150
-148
-148
-147
-147
-146
-146
-145
-145
-144
-144
-144
-143
-143
-143
-143
-142
-142
-142
-140
-140
-139
-139
-139
-137
-137
-136
-136
-136
-134
-134
-133
-133
-133
-132
-131
-130
-130
-129
-128
-128
-127
-127
-126
-126
-125
-124
-123
-123
-122
-122
-120
-120
-119
-119
-118
-117
-116
-116
-115
-114
-113
-113
-111
-111
-110
-109
-108
-108
-106
-106
-105
-105
-103
-103
-101
-101
-100
-99
-98
-97
-97
-96
-95
-95
-94
-93
-92
-92
-90
-90
-88
-88
-86
-86
-84
-84
-83
-82
-81
-80
-79
-77
-77
-75
-75
-73
-71
-71
-69
-68
-66
-66
-64
-63
-61
-60
-60
-58
-57
-56
-54
-53
-52
-51
-50
-49
-48
-47
-46
-44
-44
-43
-41
-40
-39
-38
-38
-36
-35
-34
-33
-33
-31
-31
-30
-29
-28
-28
-26
-26
-26
-25
-24
-24
-23
-23
-23
-22
-22
-22
-21
-21
-21
-21
-21
-22
-22
-22
-23
-23
-24
-24
-26
-27
-27
-29
-30
-31
-33
-34
-36
-37
-39
-40
-42
-44
-45
-47
-49
-50
-53
-55
-56
-58
-60
-62
-65
-67
-69
-71
-73
-75
-77
-78
-80
-82
-84
-86
-88
-90
-92
-94
-96
-98
-100
-101
-103
-104
-105
-107
-109
-109
-111
-112
-112
-114
-114
-116
-116
-117
-118
-119
-119
-121
-121
-122
-123
-123
-125
-125
-125
-125
-125
-126
-127
-127
-127
-127
-128
-128
-128
-128
-129
-129
-129
-129
-129
-130
-130
-130
-131
-131
-131
-132
-132
-132
-131
-131
-131
-131
-131
-131
-132
-132
-132
-132
-132
-132
-132
-132
-132
-131
-131
-131
-131
-131
-131
-131
-131
-131
-132
-132
-132
-132
-132
-132
-132
-132
-132
-133
-133
-133
-133
-133
-133
-133
-134
-134
-134
-134
-133
-133
-133
-133
-133
-133
-133
-133
-133
-133
-133
-133
-133
-133
-133
-133
-133
-133
-133
-133
-133
-133
-133
-133
-133
-133
-133
-133
-133
-132
-132
-132
-132
-132
-132
-132
-132
-132
-131
-131
-131
-131
-131
-131
-130
-130
-130
-131
-131
-131
-130
-130
-130
-130
-130
-130
-131
-131
-131
-131
-130
-130
-130
-130
-130
-130
-130
-130
-130
-129
-129
-129
-129
-129
-129
-129
-128
-128
-128
-128
-128
-128
-128
-128
-127
-127
-127
-127
-127
-127
-128
-128
-128
-128
-128
-128
-128
-128
-128
-128
-128
-128
-127
-127
-127
-128
-128
-128
-127
-127
-127
-127
-127
-127
-127
-127
-127
-127
-127
-128
-128
-128
-128
-129
-129
-128
-128
-128
-129
-129
-129
-129
-129
-129
-129
-129
-129
-129
-129
-129
-129
-129
-128
-127
-127
-127
-127
-128
-129
-129
-128
-128
-128
-128
-128
-129
-129
-129
-130
-130
-130
-131
-131
-131
-131
-131
-131
-131
-131
-130
-131
-131
-131
-131
-131
-131
-130
-129
-129
-129
-129
-129
-129
-128
-128
-128
-128
-128
-128
-128
-127
-127
-127
-127
-127
-127
-125
-125
-125
-125
-125
-124
-125
-125
-125
-125
-125
-124
-124
-124
-124
-124
-124
-124
-124
-124
-124
-124
-124
-124
-124
-124
-123
-123
-122
-122
-122
-121
-121
-121
-121
-120
-120
-120
-120
-119
-119
-119
-119
-118
-118
-118
-118
-117
-116
-116
-117
-117
-116
-116
-116
-116
-116
-115
-115
-115
-115
-115
-115
-114
-113
-113
-113
-113
-113
-113
-113
-113
-112
-111
-111
-111
-111
-111
-111
-109
-109
-109
-109
-109
-109
-109
-109
-109
-108
-108
-108
-108
-108
-108
-107
-107
-107
-107
-107
-106
-106
-106
-106
-106
-105
-105
-104
-104
-104
-104
-104
-104
-104
-104
-104
-103
-103
-103
-103
-103
-103
-103
-103
-102
-102
-102
-102
-102
-102
-101
-101
-101
-101
-101
-101
-100
-100
-100
-100
-100
-100
-100
-100
-99
-98
-98
-98
-98
-98
-98
-98
-97
-97
-97
-98
-98
-97
-97
-97
-97
-97
-97
-96
-96
-96
-96
-95
-95
-95
-95
-95
-95
-94
-94
-94
-93
-93
-93
-93
-92
-92
-91
-91
-91
-91
-91
-91
-91
-90
-90
-90
-90
-90
-90
-90
-89
-89
-88
-88
-88
-88
-88
-87
-87
-87
-87
-86
-86
-86
-86
-86
-85
-85
-85
-86
-85
-85
-85
-85
-85
-85
-85
-85
-85
-85
-86
-86
-86
-85
-85
-85
-85
-85
-85
-85
-85
-84
-84
-83
-83
-82
-82
-82
-81
-81
-81
-80
-80
-79
-79
-78
-78
-77
-77
-77
-76
-76
-77
-77
-76
-76
-76
-76
-76
-76
-76
-75
-75
-75
-75
-75
-75
-75
-75
-75
-75
-75
-74
-74
-73
-73
-73
-73
-73
-72
-72
-72
-71
-71
-71
-71
-70
-70
-69
-68
-68
-68
-67
-67
-67
-67
-67
-67
-67
-66
-66
-65
-65
-65
-65
-66
-66
-64
-64
-64
-64
-64
-64
-64
-64
-63
-63
-63
-63
-64
-63
-63
-63
-62
-62
-62
-61
-62
-62
-61
-61
-60
-60
-59
-59
-58
-58
-57
-57
-57
-56
-56
-55
-55
-54
-54
-53
-52
-52
-51
-51
-50
-50
-50
-49
-48
-47
-46
-46
-46
-45
-44
-43
-42
-41
-41
-39
-38
-37
-37
-35
-34
-33
-32
-31
-30
-28
-27
-27
-25
-25
-24
-23
-23
-22
-22
-22
-21
-21
-21
-21
-22
-22
-22
-22
-23
-23
-23
-23
-23
-23
-24
-24
-23
-24
-24
-23
-23
-23
-23
-23
-23
-22
-23
-22
-22
-23
-23
-22
-22
-23
-24
-24
-25
-25
-26
-26
-28
-28
-29
-29
-31
-32
-32
-34
-34
-36
-37
-38
-39
-39
-40
-40
-41
-42
-42
-42
-42
-43
-43
-43
-43
-42
-42
-42
-41
-41
-41
-40
-40
-39
-39
-39
-38
-38
-38
-37
-38
-38
-37
-37
-37
-36
-36
-37
-36
-36
-37
-38
-37
-38
-39
-40
-40
-41
-42
-43
-44
-46
-47
-48
-49
-50
-52
-52
-53
-54
-55
-55
-54
-54
-53
-51
-49
-47
-43
-39
-35
-30
-24
-18
-10
-3
6
16
25
35
47
58
70
82
94
107
120
132
145
158
170
182
193
205
215
225
234
242
248
255
258
260
261
262
260
257
254
247
242
233
224
213
202
190
176
163
149
135
122
108
95
81
70
58
47
38
29
21
14
8
3
-2
-4
-8
-9
-11
-12
-12
-12
-12
-11
-11
-11
-10
-9
-7
-7
-6
-5
-4
-4
-3
-3
-2
-2
-2
-2
-2
-2
-2
-2
-3
-3
-4
-4
-4
-4
-5
-5
-5
-6
-6
-6
-6
-6
-6
-6
-6
-6
-6
-6
-6
-6
-6
-6
-6
-6
-6
-6
-6
-5
-5
-5
-5
-5
-5
-4
-4
-4
-3
-3
-3
-3
-2
-2
-2
-1
0
0
0
0
0
0
0
0
1
1
1
1
1
1
2
2
2
2
2
3
3
3
3
3
3
4
4
4
4
4
5
6
6
6
7
7
7
7
8
8
9
10
10
10
11
11
11
13
13
13
13
14
14
14
14
15
15
15
15
15
16
16
16
16
16
17
18
18
18
18
19
19
19
19
20
21
21
22
22
22
23
23
24
25
25
26
26
26
26
27
27
27
27
28
28
28
29
29
29
29
30
30
31
31
31
31
31
31
32
32
32
33
34
34
34
34
35
36
36
36
37
37
37
38
38
39
40
40
41
41
41
42
43
43
44
44
45
45
46
46
46
48
48
49
49
49
51
51
51
52
53
54
54
54
56
56
56
58
58
59
60
60
62
62
63
64
64
66
66
67
68
69
69
70
71
72
73
74
75
76
77
78
79
79
80
81
81
83
83
84
85
86
87
87
89
90
90
92
93
94
95
95
97
97
99
100
101
102
103
104
105
106
107
108
109
110
111
113
113
115
115
116
117
118
120
120
121
122
123
124
124
126
126
127
128
128
129
129
130
131
131
131
131
133
133
133
133
133
134
135
134
134
134
134
134
134
134
134
133
132
131
131
130
130
129
127
126
126
124
123
122
120
119
117
115
114
112
110
108
106
104
102
100
98
96
94
92
89
87
85
83
81
79
77
75
73
71
68
66
64
62
61
59
58
56
55
53
51
50
48
46
45
44
43
41
40
38
38
37
35
34
33
32
31
29
29
28
26
26
25
24
23
23
22
22
20
20
20
19
19
19
19
18
18
18
19
18
18
18
18
17
18
18
18
17
17
17
17
17
17
16
16
16
16
15
15
15
15
14
14
14
13
13
13
13
13
13
13
13
13
13
13
13
13
13
13
13
13
13
14
14
14
13
14
14
14
14
15
15
15
15
16
16
16
16
16
16
16
16
16
16
16
16
16
16
16
16
16
15
15
15
15
15
15
14
14
14
14
14
15
15
15
15
15
15
15
15
15
15
15
15
15
15
16
16
16
16
16
16
15
15
15
15
15
15
15
15
15
15
15
15
15
15
16
16
16
16
16
16
16
16
16
15
15
15
15
15
15
15
15
15
15
14
14
14
14
14
14
14
14
14
14
14
14
14
14
14
14
14
14
14
14
14
14
14
15
15
15
15
15
15
15
15
15
16
16
16
16
16
16
16
16
16
16
16
17
17
17
17
17
17
17
17
16
16
16
15
15
15
15
15
15
15
15
15
15
15
14
14
14
15
15
15
15
15
15
15
15
15
15
15
15
15
15
16
16
16
16
15
15
15
15
15
16
16
16
16
16
16
16
16
16
16
16
16
16
16
16
16
17
17
17
17
17
17
17
17
17
17
16
16
16
16
16
16
16
16
16
16
16
16
15
15
15
15
15
15
15
15
15
15
15
15
15
15
15
15
15
15
15
15
15
15
15
15
15
15
15
15
15
14
15
15
15
15
15
15
15
16
16
16
16
16
17
17
17
16
16
16
16
16
17
17
17
17
17
17
17
17
17
17
17
17
17
17
17
17
17
18
18
18
18
18
17
17
17
18
18
18
19
19
19
19
19
19
19
19
19
19
19
19
18
18
18
19
19
19
19
19
19
18
18
18
19
19
19
19
19
19
19
19
19
19
19
19
19
19
19
19
19
19
19
19
19
19
19
20
20
20
20
19
19
19
19
19
19
19
19
19
19
19
19
19
19
19
19
19
19
18
18
19
19
19
19
19
19
19
20
21
21
21
21
22
22
22
22
22
22
22
22
23
23
23
23
23
23
23
23
23
23
23
23
23
23
22
22
22
22
22
22
22
22
22
22
22
22
22
21
21
21
21
21
21
22
22
22
22
22
22
22
22
22
22
22
22
22
22
22
22
22
22
24
24
23
23
22
22
22
22
22
23
23
23
23
23
23
23
23
23
23
23
23
23
23
24
24
24
24
24
24
24
24
24
24
24
24
24
24
24
23
23
23
23
23
23
23
23
23
23
23
23
23
23
23
23
24
24
24
24
24
24
24
24
24
25
25
25
25
25
26
26
26
26
26
27
28
28
28
28
28
29
30
30
31
31
31
31
32
32
32
33
33
34
34
35
35
36
36
37
37
38
39
40
41
41
43
43
44
44
46
46
46
48
48
49
49
49
49
49
50
51
51
51
50
50
50
50
50
50
49
49
49
49
49
49
48
49
49
49
48
49
49
48
49
48
49
48
49
49
48
48
48
48
47
47
46
46
45
45
44
43
43
41
41
40
39
38
37
36
35
33
33
31
31
29
29
28
27
26
26
25
24
24
23
23
22
22
22
21
21
21
21
21
21
20
20
21
21
21
21
21
21
21
21
21
21
21
21
21
21
20
21
20
20
19
19
18
17
16
15
13
12
12
10
9
7
6
5
3
3
2
2
1
2
2
2
4
6
8
11
14
18
23
29
34
41
49
57
65
75
84
94
105
116
127
140
151
163
175
186
199
212
223
234
245
255
265
273
280
286
292
297
301
302
303
302
301
298
293
287
279
271
261
250
240
228
215
202
189
175
162
149
137
124
113
103
93
84
76
69
62
57
53
49
46
43
42
41
40
40
40
41
42
42
43
43
44
44
45
46
47
47
47
48
48
48
48
48
47
47
47
46
46
46
46
46
45
45
45
44
44
44
45
43
43
43
43
44
44
44
44
44
44
44
44
43
43
43
43
43
43
43
43
43
43
43
43
43
44
44
45
45
45
45
45
45
45
45
45
45
45
45
45
46
46
46
46
46
46
46
46
47
46
46
46
46
46
46
46
47
47
48
48
48
48
48
48
48
48
49
50
50
50
50
50
50
50
50
50
51
51
51
51
51
51
51
52
51
51
52
52
53
53
53
53
53
53
55
55
55
55
55
56
57
57
57
57
58
58
58
58
58
59
59
59
59
59
59
59
59
59
60
61
61
60
60
60
61
61
61
61
61
61
61
61
62
62
63
63
63
63
64
65
65
66
66
66
66
67
68
68
69
69
69
70
70
70
70
71
72
72
72
73
73
73
74
74
74
75
75
75
76
76
76
77
78
78
79
79
80
80
82
82
83
83
85
85
85
87
87
87
87
89
89
89
90
91
91
91
91
93
93
93
94
94
95
96
96
98
98
99
100
100
102
102
104
104
106
106
108
108
110
110
112
113
114
114
116
116
118
118
120
120
122
122
123
123
125
125
126
127
128
128
130
131
132
133
134
135
137
138
139
140
142
142
144
145
146
147
149
150
151
152
153
154
155
155
157
157
158
159
159
161
161
161
163
163
163
165
165
165
166
167
167
167
168
169
169
169
169
169
169
169
168
168
168
167
166
166
165
165
163
162
162
160
159
157
156
155
154
152
150
149
148
146
144
141
140
138
136
134
132
130
128
125
123
121
119
116
114
112
110
108
105
102
100
98
96
95
92
90
88
86
85
83
81
80
78
76
75
73
72
71
70
69
67
67
66
64
64
63
61
61
60
60
58
58
57
57
56
56
55
53
53
52
52
52
51
50
50
49
49
49
48
48
48
48
48
47
47
47
47
47
47
46
46
46
46
46
46
46
46
46
46
45
46
46
46
46
46
46
46
46
46
46
46
46
45
45
45
45
45
45
45
45
45
44
44
44
44
43
43
42
43
43
43
43
42
42
42
42
42
42
42
42
42
42
42
42
42
43
43
43
43
43
43
44
44
44
44
44
44
45
45
45
45
45
45
44
44
44
44
43
43
43
43
43
43
43
43
43
42
42
42
42
42
42
42
42
42
42
43
43
43
43
43
43
42
43
43
43
43
43
43
43
43
43
43
43
43
43
43
43
43
43
42
42
42
42
42
42
42
42
42
42
42
41
41
41
41
41
41
41
41
41
41
41
41
41
41
41
41
40
40
40
40
40
40
41
41
40
40
40
40
41
41
41
41
41
41
41
41
41
41
40
40
40
41
41
41
40
40
39
39
39
39
39
39
39
39
39
39
39
39
38
38
38
38
38
38
37
37
38
38
38
38
38
38
38
38
38
38
37
37
37
37
36
36
36
36
36
36
36
36
36
36
36
36
36
36
36
36
36
36
36
36
36
36
36
36
36
36
35
35
35
34
34
34
34
35
34
34
34
33
33
32
32
32
32
32
32
32
32
32
31
31
31
31
31
31
31
31
31
30
30
30
30
30
31
31
31
31
30
30
30
30
30
30
30
30
31
31
31
29
29
30
30
30
30
29
30
29
29
29
29
29
29
29
29
29
29
29
30
30
30
30
30
30
30
30
30
30
30
30
30
30
30
30
30
30
30
30
30
30
30
30
30
30
30
30
30
30
30
30
30
29
29
29
29
29
29
29
29
29
29
29
29
29
29
29
29
30
30
30
30
30
30
30
30
30
30
30
30
30
30
30
30
30
30
30
30
29
29
29
29
29
29
29
29
29
29
29
29
28
28
28
28
28
28
28
28
28
28
28
28
28
28
28
28
28
28
28
28
28
27
27
28
28
28
28
28
28
28
28
28
28
28
29
29
29
28
28
28
28
28
28
27
27
27
27
27
27
27
27
27
27
26
26
26
26
26
26
26
26
26
26
26
26
26
26
26
27
27
27
27
27
27
27
27
27
27
27
27
27
27
27
27
27
27
27
27
27
27
27
27
27
27
27
27
27
27
27
27
27
27
27
27
27
27
27
27
27
27
27
27
27
27
27
28
28
28
28
27
27
26
26
26
26
26
26
26
26
26
26
26
25
25
24
24
24
25
24
24
23
23
23
23
23
24
24
24
24
24
24
25
25
25
25
25
25
25
25
25
25
25
25
25
25
25
25
25
25
25
24
24
24
24
24
24
25
25
24
24
25
25
25
25
25
25
26
26
26
26
26
27
27
27
27
27
28
28
28
28
28
29
29
29
30
30
31
31
31
31
33
33
33
34
34
34
34
34
35
36
36
37
37
38
39
39
40
40
41
41
42
43
43
45
45
46
47
49
50
50
51
51
53
53
53
54
54
54
54
54
53
53
52
52
51
51
51
50
50
50
50
50
49
49
49
49
49
48
48
48
48
49
48
49
48
48
48
47
47
46
46
45
45
44
44
43
42
41
41
39
39
38
36
36
34
33
33
31
30
29
28
27
26
25
24
23
23
22
22
21
21
20
20
20
19
19
19
19
19
19
18
18
18
18
19
19
19
19
19
19
19
19
19
18
18
18
18
18
18
17
16
17
16
15
14
13
11
10
9
7
6
5
4
3
1
-1
-1
-2
-3
-3
-3
-2
-2
0
1
3
6
10
14
19
24
32
38
46
55
63
73
82
93
104
116
127
141
152
165
179
191
204
216
228
240
251
263
274
283
292
299
306
312
316
319
320
320
318
315
310
304
296
287
277
266
254
240
227
213
197
183
170
155
141
129
116
104
93
83
74
67
59
54
48
44
40
37
35
33
33
32
32
32
31
32
32
32
33
34
34
34
34
34
35
35
35
35
34
35
34
34
34
34
33
33
32
32
32
31
31
31
30
30
30
30
28
28
28
28
28
28
28
28
28
27
27
27
27
27
27
27
26
26
26
26
26
26
26
26
26
26
26
26
26
26
26
26
26
26
26
26
27
27
28
28
28
28
28
28
28
28
30
30
30
30
30
31
31
31
31
32
31
31
32
32
32
33
33
33
33
33
33
33
34
34
34
34
34
35
35
35
35
35
35
35
35
35
35
35
35
35
36
36
36
36
36
36
36
36
36
37
37
37
37
37
37
38
39
39
39
39
39
40
40
41
41
41
42
42
42
43
43
44
44
44
45
45
45
45
46
46
46
47
47
47
47
47
47
47
47
48
48
48
49
49
49
49
49
50
50
50
51
51
51
51
52
53
53
53
53
54
55
55
55
55
55
55
57
57
57
57
58
58
59
60
60
60
62
62
62
63
63
64
65
65
66
67
67
68
68
69
70
70
70
70
71
71
72
72
73
73
73
74
74
75
75
76
76
77
78
78
79
80
80
81
82
82
84
84
85
87
87
89
89
90
91
92
93
94
96
96
97
98
99
100
101
103
103
105
105
107
107
109
109
110
111
112
113
114
115
116
117
118
118
120
120
120
122
122
124
124
125
125
127
127
128
128
129
130
131
131
132
133
134
135
135
136
137
137
139
139
140
140
142
142
142
142
142
142
143
143
143
143
143
142
141
141
140
140
139
139
137
137
136
136
134
133
131
130
129
128
126
124
122
121
119
117
115
112
110
108
106
104
102
100
97
94
92
90
88
85
83
81
79
77
75
73
70
68
66
64
62
60
58
56
54
52
50
48
47
45
43
42
40
39
37
37
35
34
32
31
31
29
28
28
27
27
26
25
24
23
23
22
22
20
20
20
18
18
17
17
16
16
15
15
14
14
14
13
13
12
12
12
12
11
11
11
10
10
10
10
10
10
10
10
10
10
10
10
9
10
10
10
10
10
10
10
10
10
10
10
10
10
10
10
10
10
9
9
9
9
9
9
9
9
9
9
9
9
8
8
8
8
8
9
9
9
8
8
8
8
8
7
7
7
7
8
8
8
8
7
7
8
8
8
8
8
8
8
8
8
8
8
8
8
9
9
9
9
9
8
8
8
8
9
9
9
8
8
8
8
8
8
8
8
8
8
8
8
8
8
8
8
8
8
8
8
8
8
8
8
8
8
8
8
8
8
8
8
7
7
7
7
7
7
7
7
5
5
5
5
5
5
5
5
5
5
5
5
5
5
5
5
5
5
5
6
6
6
6
6
6
6
6
6
6
6
6
6
6
6
6
6
6
6
6
6
6
5
5
6
5
5
5
5
5
4
4
5
5
5
5
5
5
5
5
6
6
5
4
4
4
4
4
4
4
4
4
4
4
4
4
4
4
4
4
4
4
4
4
4
4
4
4
4
4
4
4
4
4
4
4
4
4
4
4
4
4
4
4
4
4
4
4
3
3
3
3
3
3
4
4
3
3
3
3
4
4
4
4
4
4
4
4
4
4
4
4
4
3
3
3
3
3
3
3
2
2
2
2
2
2
2
3
3
3
2
2
3
3
3
3
3
3
3
2
3
3
3
3
3
3
3
3
2
2
2
2
2
2
2
2
2
2
2
2
2
2
3
3
3
3
3
3
3
3
3
3
3
3
3
3
2
2
2
2
2
2
2
2
2
1
1
1
1
1
1
0
-1
0
0
0
0
0
0
0
1
1
1
1
1
1
1
1
1
1
2
2
2
2
1
1
1
1
1
1
1
1
1
1
1
1
1
1
1
1
1
1
1
1
0
0
0
0
0
0
0
0
0
0
0
0
0
0
0
0
0
1
1
1
1
1
2
2
2
2
2
2
2
2
2
2
2
2
2
2
2
2
2
2
2
2
2
2
3
3
3
3
3
3
3
3
3
3
3
2
2
2
2
1
2
2
2
2
1
0
0
0
0
0
0
0
0
0
0
0
0
0
0
0
0
0
0
0
0
0
0
0
0
0
0
0
0
0
0
0
0
0
0
0
0
0
0
0
0
0
1
1
1
1
1
1
1
1
1
1
1
1
1
1
1
1
1
1
0
0
0
0
0
0
0
0
0
0
0
1
1
1
1
1
2
2
2
2
2
2
2
2
2
2
2
2
2
2
2
2
3
3
3
2
2
2
2
2
2
3
3
3
3
3
3
3
3
2
2
3
3
3
3
4
4
4
5
5
5
6
6
7
7
7
7
8
9
9
9
10
10
10
11
11
11
10
11
11
12
12
12
13
12
13
13
13
14
15
15
15
15
16
17
18
19
19
20
21
22
22
23
23
24
24
25
25
25
26
26
26
26
26
25
25
25
25
25
25
25
24
24
24
24
24
24
24
24
25
25
25
26
25
26
26
27
26
27
27
27
27
27
27
26
26
25
25
24
23
22
22
20
20
19
18
17
16
14
14
12
11
11
9
8
7
7
7
5
5
4
4
3
3
2
2
2
2
1
1
1
0
0
0
1
1
1
1
0
0
0
0
0
0
0
0
0
0
0
0
0
0
0
0
0
0
-1
-1
-1
-2
-3
-4
-5
-6
-7
-8
-10
-11
-12
-13
-15
-16
-17
-18
-18
-18
-18
-18
-17
-15
-14
-11
-8
-4
0
5
10
17
23
31
40
49
58
68
78
89
101
112
124
136
148
161
173
185
197
208
219
230
240
249
257
264
272
277
281
283
284
283
282
279
274
269
261
253
243
233
221
209
195
182
170
156
141
128
116
103
91
80
70
59
52
44
37
32
27
23
19
17
14
13
12
12
12
12
12
13
14
14
15
16
16
17
17
18
18
19
19
19
19
19
18
18
17
17
16
16
16
16
15
15
14
14
13
13
12
11
11
11
11
10
10
10
10
10
10
10
9
9
9
9
9
9
9
9
9
10
10
10
10
10
10
11
11
11
11
11
11
11
12
12
12
12
12
12
12
12
12
12
12
12
12
12
12
12
12
12
12
12
12
12
13
13
13
14
14
14
15
15
15
16
16
16
16
17
17
17
17
17
17
17
17
17
17
17
17
17
17
16
16
17
17
17
18
19
19
19
19
19
19
20
20
20
20
21
22
22
22
22
23
23
23
23
24
24
24
24
24
24
24
24
24
25
25
25
25
25
26
26
27
27
27
27
27
27
28
29
29
29
29
29
31
31
31
31
31
31
31
32
32
32
32
32
33
33
33
33
34
34
34
34
34
34
35
36
36
36
36
36
36
37
38
38
38
38
39
39
39
39
40
40
40
41
41
41
43
43
43
43
45
45
45
46
46
47
47
49
49
50
50
51
52
52
53
54
55
55
55
57
57
57
58
58
59
59
60
61
61
61
61
63
63
64
64
66
66
67
67
69
69
70
72
72
73
74
75
76
77
78
79
80
80
82
82
84
84
86
86
88
88
90
90
92
92
94
95
95
97
98
100
100
101
103
103
104
105
106
107
108
108
109
110
111
112
112
113
113
114
115
115
116
116
117
118
118
118
120
120
120
120
121
122
122
122
122
122
122
122
122
121
121
120
120
118
118
117
115
114
113
112
110
109
107
105
103
101
99
97
96
93
91
89
87
84
82
80
78
76
74
71
69
67
64
62
60
58
56
54
51
49
46
44
43
41
39
37
36
33
31
30
28
27
25
24
22
21
19
19
17
16
15
14
13
12
11
10
9
8
7
6
5
5
4
4
3
3
1
1
0
0
-1
-1
-2
-2
-2
-3
-3
-3
-4
-4
-5
-6
-6
-6
-6
-6
-6
-6
-6
-6
-6
-6
-7
-7
-7
-7
-7
-7
-7
-6
-6
-6
-6
-6
-7
-7
-7
-7
-7
-7
-7
-7
-7
-7
-8
-8
-8
-8
-8
-8
-8
-8
-8
-8
-9
-9
-9
-9
-8
-8
-8
-8
-8
-8
-8
-8
-8
-8
-9
-10
-9
-9
-9
-9
-9
-9
-9
-9
-9
-10
-10
-10
-10
-10
-10
-10
-10
-10
-10
-10
-10
-10
-10
-10
-10
-10
-9
-9
-9
-9
-9
-9
-9
-9
-9
-9
-9
-9
-9
-9
-9
-8
-8
-8
-8
-8
-8
-8
-8
-8
-8
-8
-8
-8
-8
-8
-8
-8
-9
-9
-9
-9
-10
-10
-10
-10
-10
-10
-10
-11
-11
-11
-11
-11
-11
-11
-11
-11
-11
-11
-11
-11
-11
-11
-11
-10
-10
-10
-10
-10
-10
-10
-10
-10
-10
-10
-11
-11
-11
-11
-10
-10
-10
-10
-10
-11
-11
-11
-11
-11
-11
-11
-11
-11
-11
-11
-11
-11
-11
-11
-11
-12
-12
-12
-12
-12
-12
-12
-12
-11
-12
-12
-12
-12
-12
-12
-12
-12
-12
-12
-12
-12
-12
-12
-12
-12
-12
-13
-13
-13
-13
-13
-13
-13
-13
-13
-13
-13
-13
-14
-14
-14
-14
-13
-13
-13
-13
-13
-13
-14
-14
-14
-14
-14
-14
-14
-14
-14
-14
-14
-14
-14
-14
-14
-15
-15
-15
-15
-15
-14
-14
-14
-14
-14
-14
-13
-13
-13
-13
-13
-13
-13
-12
-12
-13
-13
-13
-13
-12
-12
-12
-12
-13
-13
-13
-12
-13
-13
-14
-14
-14
-14
-14
-14
-14
-13
-13
-13
-14
-14
-14
-14
-14
-14
-14
-13
-12
-12
-12
-12
-12
-12
-12
-13
-13
-13
-13
-13
-13
-13
-14
-14
-14
-14
-14
-14
-14
-14
-14
-14
-14
-14
-13
-14
-14
-14
-14
-14
-14
-14
-13
-13
-12
-12
-12
-12
-12
-12
-12
-12
-12
-12
-12
-12
-12
-12
-12
-12
-13
-13
-13
-13
-13
-13
-13
-14
-14
-14
-14
-14
-14
-14
-14
-13
-13
-13
-14
-14
-14
-14
-14
-14
-14
-14
-14
-14
-14
-14
-15
-15
-15
-14
-14
-14
-14
-15
-15
-15
-15
-15
-15
-15
-15
-15
-15
-15
-15
-15
-15
-15
-15
-15
-15
-15
-15
-15
-15
-15
-15
-14
-14
-14
-14
-14
-14
-14
-14
-14
-14
-15
-15
-15
-15
-15
-15
-15
-16
-16
-16
-16
-16
-16
-17
-17
-16
-16
-16
-16
-16
-16
-16
-16
-16
-16
-16
-16
-16
-16
-16
-16
-16
-16
-16
-16
-16
-16
-16
-16
-16
-16
-16
-16
-16
-16
-16
-16
-16
-16
-16
-16
-16
-16
-16
-16
-17
-17
-17
-17
-17
-17
-17
-17
-17
-17
-17
-17
-17
-17
-17
-17
-17
-17
-17
-18
-18
-17
-17
-16
-16
-16
-16
-16
-16
-16
-16
-16
-16
-16
-16
-16
-16
-16
-16
-16
-17
-17
-17
-17
-17
-17
-16
-16
-16
-17
-17
-17
-17
-17
-17
-17
-17
-17
-17
-17
-17
-18
-18
-18
-18
-18
-18
-18
-17
-17
-18
-18
-18
-18
-18
-18
-18
-18
-18
-18
-18
-18
-18
-18
-18
-18
-18
-18
-17
-17
-17
-17
-17
-17
-18
-18
-18
-18
-18
-17
-17
-17
-17
-18
-18
-17
-17
-17
-17
-17
-17
-17
-17
-17
-17
-17
-17
-18
-18
-18
-17
-17
-17
-17
-17
-17
-17
-16
-15
-15
-15
-14
-14
-14
-13
-13
-13
-12
-11
-11
-11
-11
-11
-9
-9
-9
-9
-9
-8
-9
-9
-8
-8
-7
-7
-7
-7
-6
-6
-6
-6
-5
-4
-4
-3
-3
-2
-2
-1
-1
1
1
2
2
4
4
4
5
5
6
6
6
7
7
7
7
7
7
7
7
7
7
7
7
6
6
6
6
5
5
5
5
5
5
5
5
4
5
4
5
4
4
4
3
4
4
3
2
1
1
0
-1
-1
-2
-3
-4
-5
-5
-7
-8
-9
-10
-12
-12
-14
-14
-16
-16
-18
-18
-19
-19
-21
-21
-22
-22
-22
-23
-23
-23
-23
-23
-23
-23
-24
-24
-24
-23
-23
-23
-23
-24
-24
-24
-24
-24
-24
-24
-25
-25
-25
-25
-25
-25
-25
-26
-26
-26
-27
-28
-29
-29
-30
-31
-33
-34
-35
-36
-38
-39
-41
-43
-43
-45
-46
-48
-48
-49
-48
-48
-48
-47
-45
-43
-40
-36
-33
-28
-22
-16
-10
-2
6
15
24
34
45
55
66
79
91
102
115
127
139
152
165
177
189
201
213
223
234
242
250
257
263
267
270
272
271
270
267
263
257
250
241
231
220
209
195
182
168
154
140
126
112
98
85
73
62
51
41
32
24
17
11
6
1
-2
-4
-7
-8
-9
-10
-10
-10
-10
-9
-8
-8
-8
-7
-7
-6
-6
-6
-6
-6
-6
-6
-6
-7
-7
-7
-8
-8
-8
-9
-9
-10
-11
-11
-11
-12
-12
-12
-12
-13
-13
-14
-14
-14
-14
-14
-14
-14
-15
-15
-15
-15
-15
-15
-14
-15
-15
-15
-15
-15
-15
-14
-14
-14
-14
-14
-13
-13
-13
-13
-13
-13
-13
-13
-13
-13
-13
-13
-12
-12
-12
-12
-12
-13
-13
-13
-13
-12
-12
-12
-12
-12
-12
-12
-12
-11
-11
-11
-11
-11
-10
-10
-10
-10
-10
-10
-10
-10
-10
-10
-9
-9
-8
-8
-8
-8
-7
-7
-7
-7
-7
-7
-6
-6
-6
-6
-6
-6
-5
-5
-5
-5
-5
-5
-5
-4
-4
-3
-3
-3
-3
-2
-2
-2
-2
-2
-1
-1
0
0
0
0
1
1
1
1
1
1
1
2
3
3
3
3
3
3
4
4
4
5
5
6
6
6
6
6
7
7
8
8
8
9
9
9
9
10
10
10
11
11
11
11
13
13
13
13
13
14
15
15
15
16
16
16
17
17
17
17
17
18
18
18
19
19
20
20
20
21
21
22
23
23
24
25
26
26
27
28
28
29
30
30
31
32
32
33
34
35
35
36
37
37
38
38
39
40
40
40
41
42
42
43
43
45
45
46
47
48
48
50
50
52
52
53
54
56
56
58
58
59
60
61
63
63
65
65
67
67
69
69
71
71
72
73
74
75
76
76
78
79
79
81
81
83
84
84
86
87
87
89
90
90
92
93
94
95
96
97
97
98
99
100
100
102
102
102
103
103
104
104
105
105
105
105
105
105
105
105
104
104
104
104
104
103
102
102
101
101
99
99
98
97
96
94
93
91
90
88
87
85
84
82
79
78
76
74
71
69
67
65
63
61
59
57
54
52
49
47
45
43
41
38
37
35
33
30
28
27
25
23
22
20
18
17
15
13
12
10
9
7
7
5
4
3
2
0
0
-2
-2
-3
-5
-5
-6
-7
-8
-8
-9
-9
-10
-11
-11
-11
-12
-12
-13
-13
-14
-14
-15
-15
-16
-16
-16
-17
-17
-17
-17
-18
-18
-18
-18
-18
-18
-18
-19
-19
-19
-19
-19
-19
-19
-20
-20
-20
-21
-21
-21
-21
-21
-21
-21
-21
-21
-21
-22
-22
-22
-22
-21
-21
-21
-21
-21
-21
-21
-21
-21
-21
-21
-21
-21
-21
-22
-22
-22
-22
-22
-22
-22
-22
-22
-22
-22
-22
-22
-23
-23
-23
-23
-23
-23
-23
-23
-23
-23
-23
-23
-23
-23
-23
-23
-23
-23
-23
-23
-23
-23
-23
-23
-23
-23
-23
-23
-23
-23
-23
-23
-23
-23
-23
-23
-23
-23
-23
-23
-23
-23
-23
-23
-23
-23
-23
-23
-23
-23
-23
-23
-23
-23
-23
-23
-23
-23
-23
-24
-24
-24
-24
-24
-24
-24
-24
-24
-24
-24
-24
-23
-23
-23
-24
-24
-24
-24
-24
-24
-24
-24
-25
