# Simple Text Format
# Sampling Rate (Hz):= 1200.00
# Resolution:= 12
# Labels:= ECG	aVR
# Age:=	33
# Gender:=	Masculino
138
138
138
138
138
138
138
138
138
138
138
138
138
138
138
138
138
138
138
138
137
137
137
137
137
136
136
136
137
137
137
137
137
137
138
138
138
138
138
138
138
139
139
139
139
139
138
138
138
138
139
139
139
139
139
139
139
139
138
138
138
138
138
138
138
137
137
137
137
137
137
137
137
137
137
137
137
137
137
137
137
137
137
137
137
137
137
136
136
136
136
136
136
136
136
136
136
136
136
136
136
136
136
136
136
136
136
136
136
136
136
136
136
136
136
136
137
137
137
137
137
137
137
136
136
136
136
136
136
136
136
136
136
136
136
136
135
135
135
135
135
135
135
135
135
135
135
135
135
135
135
135
135
135
135
135
135
135
135
135
135
135
135
135
135
135
135
135
135
135
135
135
135
135
135
135
135
135
135
135
135
135
135
135
135
134
134
134
134
134
134
134
134
134
134
134
134
134
134
134
134
134
134
135
135
135
135
135
135
135
135
135
135
135
135
135
135
135
135
135
135
135
135
135
135
134
134
134
134
134
134
133
133
133
133
133
134
133
133
133
132
132
131
131
131
131
131
130
130
130
129
129
128
127
127
127
126
126
125
125
125
124
124
124
123
123
122
121
121
120
120
119
118
118
117
117
116
116
115
114
114
113
113
113
112
112
112
112
112
111
111
111
112
112
112
112
112
112
113
113
113
113
113
113
113
114
114
114
114
114
114
114
114
115
114
114
115
115
114
115
115
116
116
116
117
117
117
117
118
119
119
120
121
121
122
123
124
124
126
126
127
128
129
129
130
130
131
132
133
133
134
134
135
135
134
135
135
135
135
135
135
135
136
136
135
135
135
135
135
135
135
135
135
135
135
135
135
135
135
135
135
135
136
135
135
135
136
136
137
137
138
138
139
140
141
142
143
144
145
146
147
147
148
149
150
149
150
149
149
148
147
144
142
139
135
131
126
121
115
109
102
95
87
78
69
59
49
38
27
17
5
-6
-16
-26
-36
-46
-56
-64
-72
-79
-85
-90
-93
-96
-98
-98
-96
-94
-90
-85
-80
-73
-65
-57
-47
-37
-27
-16
-4
7
19
30
42
53
63
73
83
91
100
107
114
120
126
130
134
138
140
142
143
144
144
144
143
143
142
141
139
137
135
134
133
131
130
129
127
126
125
124
124
123
123
122
122
122
121
121
121
122
121
121
122
122
122
123
123
124
124
124
124
124
124
124
124
125
125
126
126
126
125
124
124
124
124
124
124
124
124
124
123
123
123
123
123
123
122
122
122
122
122
122
122
122
122
121
121
121
122
122
122
122
122
122
122
121
121
121
121
121
121
121
121
121
121
120
120
120
120
119
119
119
119
119
119
119
118
118
118
118
118
118
118
118
118
117
116
116
116
116
116
116
115
115
115
115
115
115
115
114
114
114
114
114
114
113
113
113
113
113
113
112
112
112
112
112
112
111
111
111
111
111
110
110
110
110
110
110
109
109
109
108
108
108
108
107
107
107
107
107
106
106
106
106
105
105
105
105
105
105
105
105
104
104
104
104
103
103
103
103
103
102
102
102
101
101
101
100
100
100
100
99
99
98
98
97
97
97
97
96
96
96
94
94
94
94
93
93
93
93
91
91
91
91
90
90
90
89
88
88
87
87
87
86
86
85
84
84
83
83
82
81
81
80
80
80
78
78
78
77
77
76
75
75
74
73
73
72
72
71
70
70
69
68
67
67
67
65
65
64
64
62
62
61
61
61
59
59
58
58
58
57
57
57
56
55
54
54
53
52
52
51
50
49
49
49
47
47
46
46
44
44
43
42
41
41
40
40
39
38
38
37
37
37
35
35
35
34
34
34
34
34
34
34
34
34
34
34
35
35
36
36
36
38
38
38
38
40
40
41
42
43
43
45
45
47
48
48
50
51
53
53
54
56
57
59
60
62
63
64
66
67
69
71
72
75
76
78
79
81
82
83
85
86
87
90
91
92
93
95
96
97
99
100
101
102
103
104
105
106
107
108
109
110
111
111
112
112
114
114
115
115
116
116
117
117
118
119
120
120
120
121
121
121
121
122
122
123
123
123
124
124
124
124
125
125
125
125
125
126
126
126
126
126
127
127
127
127
127
128
128
128
128
128
128
128
128
128
127
127
127
127
127
127
127
127
127
127
127
127
126
126
126
126
126
126
126
126
126
126
126
126
127
127
127
127
127
127
127
127
127
127
127
127
127
127
127
127
127
127
127
127
127
127
127
127
127
127
127
127
127
127
127
127
127
127
127
127
127
127
127
127
127
127
127
127
127
127
127
127
127
127
127
127
127
127
127
127
127
127
127
127
127
127
127
127
127
127
126
126
126
126
126
126
127
127
127
127
127
127
127
127
127
127
127
127
127
127
127
127
127
127
127
127
127
127
127
127
127
127
127
127
128
128
128
128
128
128
128
128
128
128
128
128
128
128
128
128
128
128
128
128
128
128
128
128
128
129
129
129
129
128
128
128
128
128
128
127
127
128
128
128
128
128
128
128
128
128
128
128
128
128
128
128
128
128
129
129
129
129
129
129
129
129
129
130
130
130
130
130
130
130
130
130
129
129
128
129
129
129
129
129
129
129
129
129
129
129
129
129
129
129
129
130
129
129
129
129
130
130
130
130
130
130
131
131
131
131
131
131
132
132
132
132
132
132
132
132
132
132
132
132
132
132
132
132
132
132
132
132
132
133
133
133
133
133
133
133
133
134
133
133
133
133
133
132
132
132
132
132
133
133
132
132
132
132
132
132
132
132
132
132
132
132
132
132
132
132
132
133
133
133
133
133
133
133
133
134
134
134
134
134
134
134
134
134
134
134
133
133
133
133
133
133
133
133
132
132
132
132
132
132
132
132
132
132
132
132
132
132
132
132
132
132
132
132
132
133
133
133
133
133
133
133
133
133
133
133
133
133
133
133
133
133
133
132
132
132
132
132
132
132
132
131
131
131
131
131
131
131
131
131
131
131
131
131
131
131
131
131
131
131
131
131
131
131
131
131
131
131
131
131
131
131
131
131
131
131
131
131
131
131
131
131
131
131
131
131
131
131
131
131
131
131
132
132
132
132
132
132
132
132
132
132
132
132
131
131
131
132
132
132
132
132
132
132
132
132
132
132
132
132
132
132
132
131
131
131
130
130
130
130
130
130
130
130
130
130
129
129
129
129
129
129
129
130
130
130
129
130
130
130
130
130
130
130
130
130
130
130
130
130
130
130
130
130
130
130
130
130
130
130
130
130
130
130
130
130
130
130
130
130
130
130
130
130
130
130
130
130
130
130
130
130
130
130
130
130
130
130
130
130
130
130
130
130
130
130
130
130
130
130
130
130
130
130
130
130
130
131
131
131
131
131
131
130
130
130
130
130
129
129
129
128
128
128
128
128
127
127
126
126
126
125
125
125
124
124
124
124
123
123
122
122
122
122
122
121
121
121
120
120
120
119
119
118
118
117
116
116
115
116
114
113
112
112
111
111
110
110
108
108
108
107
106
106
106
105
105
105
104
104
104
104
105
106
106
106
106
106
106
106
106
106
108
108
107
107
108
108
108
109
109
108
109
109
110
109
110
110
111
111
111
111
112
112
112
113
114
114
114
115
115
116
117
117
118
119
119
120
121
121
122
123
124
124
125
126
127
128
128
129
130
130
130
131
131
131
131
131
131
131
131
131
131
131
131
131
131
131
131
131
131
131
131
131
132
132
132
132
132
132
132
132
133
133
133
134
134
135
135
137
137
137
138
139
140
141
142
143
143
144
144
145
146
146
146
146
145
144
143
142
139
137
133
129
124
120
114
108
101
94
86
79
70
61
51
40
29
18
8
-3
-15
-24
-35
-45
-55
-64
-71
-79
-86
-92
-97
-100
-102
-103
-103
-101
-98
-94
-89
-83
-76
-68
-59
-49
-39
-28
-17
-6
6
18
29
41
52
62
72
82
90
99
106
112
117
122
127
131
134
136
138
139
139
140
139
138
138
137
136
134
133
132
130
128
127
125
124
123
122
122
121
120
119
119
119
119
118
118
118
118
118
118
118
118
118
119
119
119
119
119
119
119
119
120
120
120
120
120
120
120
120
120
120
120
120
119
119
119
120
120
120
120
119
119
119
119
119
119
119
119
119
119
119
119
119
119
119
119
119
119
118
118
118
118
118
118
118
118
118
117
117
117
117
117
117
116
116
116
116
116
116
116
116
115
115
115
114
114
114
114
113
113
113
113
113
112
112
112
112
112
112
112
111
111
111
111
111
111
111
111
111
110
110
110
110
110
109
109
109
109
108
108
108
108
107
108
108
108
107
107
107
107
107
106
105
105
105
105
105
105
105
105
104
104
104
104
104
104
104
104
103
103
102
102
102
102
101
101
101
101
100
100
100
99
99
99
99
98
98
98
98
98
97
97
96
96
96
96
96
96
95
95
95
95
93
93
93
93
93
92
92
92
91
90
90
90
89
89
89
89
87
87
87
86
86
85
84
84
83
83
83
82
82
80
80
80
79
79
78
78
77
77
76
76
76
75
74
74
74
74
72
72
72
72
70
70
69
69
68
68
67
67
66
65
64
64
63
63
61
61
60
60
58
58
57
56
56
54
54
53
53
51
51
50
50
49
49
48
48
47
46
46
45
44
44
44
42
42
42
41
40
39
39
38
38
37
36
36
36
36
35
34
34
34
33
33
33
32
32
32
31
31
31
31
31
31
31
31
30
31
31
31
31
31
32
32
32
34
34
34
36
36
37
38
39
41
41
43
44
45
46
48
49
51
52
54
56
57
59
60
62
64
65
67
68
70
72
73
74
76
78
80
81
83
84
85
87
88
89
91
92
93
95
96
97
99
99
100
101
102
103
104
105
105
107
107
108
109
109
109
110
111
112
112
113
113
113
114
114
114
116
116
116
117
117
118
118
118
119
119
120
120
121
121
121
121
121
121
122
122
122
122
122
122
122
122
122
122
122
122
122
121
121
121
121
121
121
121
121
122
122
122
122
122
122
122
122
122
122
122
122
122
122
122
122
122
123
123
123
122
122
122
122
122
122
122
122
122
122
121
121
121
121
121
121
121
121
121
121
121
121
121
122
122
122
122
122
123
123
123
123
123
123
123
123
123
123
123
122
122
122
122
122
122
121
121
121
121
121
121
121
121
120
120
120
120
120
121
121
121
121
121
121
121
121
121
121
121
121
121
121
121
121
121
121
122
122
123
123
123
123
123
123
123
123
123
123
123
123
123
123
122
122
122
122
122
122
122
122
121
121
121
121
121
121
121
121
122
122
122
122
122
122
122
122
122
122
122
122
123
123
123
123
123
123
123
123
123
123
123
123
123
124
124
124
124
124
124
124
124
124
124
125
125
125
125
125
125
125
125
125
125
125
125
125
125
125
125
125
125
125
125
125
125
125
125
125
125
125
125
126
126
126
126
126
126
126
126
126
126
126
126
126
126
126
126
127
127
127
127
127
127
127
127
127
127
127
127
127
127
128
128
128
128
128
128
128
128
128
128
128
128
127
127
127
127
127
127
127
127
128
128
128
128
127
127
127
127
127
127
127
127
127
127
127
127
127
127
127
127
127
127
127
127
127
127
127
127
127
127
127
127
127
127
127
127
127
127
127
127
127
127
127
127
127
127
127
127
127
127
127
127
127
127
127
127
128
128
128
128
128
128
127
127
127
128
128
128
128
128
128
128
128
128
128
128
128
128
128
128
127
127
127
127
128
128
128
128
128
128
128
127
127
127
127
127
127
127
127
127
127
126
126
126
126
126
126
127
127
127
127
127
127
127
127
127
127
127
127
127
128
128
127
127
127
127
127
127
127
127
127
127
127
126
126
126
127
127
127
127
127
127
127
127
127
127
127
127
127
127
127
127
127
127
127
127
127
127
127
127
127
126
126
126
126
126
126
126
126
126
126
126
126
126
126
126
126
126
126
126
126
126
126
126
126
126
126
126
126
126
126
126
126
126
126
126
126
126
127
127
127
127
127
127
126
126
126
126
126
126
126
126
126
126
126
126
126
126
125
125
125
125
125
125
125
125
125
125
125
125
125
124
124
124
124
124
124
124
124
124
124
124
124
124
124
124
124
124
124
125
125
125
125
125
125
125
125
125
125
125
125
125
125
125
124
124
124
124
123
123
124
123
123
123
122
122
122
121
121
121
121
121
120
120
120
120
119
119
119
119
118
117
117
117
118
117
117
116
116
115
115
114
114
113
112
112
111
111
110
109
108
107
107
106
106
105
105
104
104
103
103
103
103
103
103
103
104
104
104
104
104
104
104
105
105
106
106
106
106
106
105
106
106
106
106
107
107
106
106
107
107
108
108
108
108
108
109
109
109
110
110
110
111
112
112
113
113
114
115
115
115
117
117
118
119
120
120
121
122
123
123
124
124
125
125
126
126
126
128
128
128
129
128
128
128
129
129
129
129
129
129
129
129
130
129
129
129
129
129
129
129
129
130
130
130
130
130
131
130
130
131
131
132
132
134
134
134
136
136
138
138
139
140
141
142
142
143
144
143
144
143
142
142
140
139
136
133
129
125
121
116
110
104
97
90
82
73
65
56
46
36
26
15
4
-7
-16
-26
-35
-45
-54
-62
-69
-77
-83
-88
-92
-94
-95
-96
-95
-93
-89
-85
-79
-72
-65
-57
-47
-39
-28
-18
-7
4
15
26
37
48
59
69
77
86
94
101
109
114
120
125
129
132
135
137
138
139
140
140
140
140
139
137
136
135
133
132
130
129
127
126
125
124
122
121
120
119
118
118
117
117
117
116
116
116
116
116
116
117
117
117
117
118
118
118
118
118
118
118
118
118
118
119
119
119
119
119
119
119
119
119
119
118
118
118
118
118
118
118
119
119
118
118
118
118
118
117
117
117
117
117
117
116
116
115
115
115
115
115
115
115
115
115
114
114
114
114
114
114
115
114
114
114
114
114
113
113
113
113
113
112
112
112
112
112
111
111
110
110
110
110
110
109
109
109
109
109
109
109
108
108
108
108
108
108
107
106
106
106
106
105
105
105
105
105
105
105
105
105
104
104
104
104
103
103
103
103
103
103
103
103
103
103
102
102
102
102
102
102
102
101
100
100
100
99
99
99
99
99
98
98
98
98
98
98
97
97
97
97
97
97
97
97
96
95
95
95
95
95
95
94
94
94
94
93
93
93
93
92
91
91
91
90
90
90
90
89
89
88
87
87
87
87
86
85
85
84
84
84
83
83
83
82
81
81
81
80
80
79
78
78
78
77
77
77
75
75
75
74
74
73
72
72
72
70
70
70
69
68
67
67
66
65
64
64
64
62
62
61
61
61
59
59
58
58
57
56
56
55
54
54
54
52
52
52
50
50
49
48
48
47
46
46
45
45
43
43
43
41
41
40
40
38
38
37
37
36
36
35
35
34
34
32
32
31
31
31
29
29
29
28
28
28
28
27
27
27
27
27
27
27
28
28
28
28
28
29
30
30
30
30
31
31
32
33
34
35
36
36
38
39
41
42
43
45
46
47
48
50
52
53
55
56
57
59
60
62
64
65
67
68
70
71
73
74
76
77
79
80
82
83
85
86
88
89
90
91
93
94
95
96
97
98
99
101
102
102
103
104
104
105
106
107
108
108
109
109
110
110
111
111
112
112
113
113
114
114
115
115
115
116
116
117
117
117
117
118
118
118
118
118
119
119
119
119
120
120
120
120
120
120
119
119
119
119
119
119
119
119
119
119
119
119
119
119
120
120
120
120
120
120
120
120
120
120
120
120
120
120
120
120
120
120
120
120
120
120
119
119
119
119
119
120
120
119
119
119
119
119
119
119
119
119
119
119
119
119
119
119
119
119
119
119
119
119
119
119
119
119
119
119
119
119
119
119
118
118
118
118
118
118
118
118
118
118
117
117
117
117
118
118
118
118
118
117
117
117
117
117
117
117
117
117
117
116
116
116
116
116
117
117
117
117
117
117
116
117
117
117
117
117
117
117
117
117
117
117
117
117
117
118
118
118
118
118
118
118
118
118
118
118
118
118
118
118
118
118
118
118
118
118
118
118
118
119
119
119
119
119
119
119
119
119
119
119
119
119
119
120
120
120
120
119
119
119
119
119
119
119
119
119
119
119
119
119
119
120
120
120
120
120
120
120
120
120
120
120
120
120
120
120
121
121
121
121
121
121
121
120
121
121
121
121
121
121
121
121
121
121
121
121
121
121
121
121
122
122
122
122
122
121
121
121
121
120
120
120
120
120
120
120
120
120
119
119
119
119
119
119
119
119
119
119
120
120
120
120
120
120
120
120
120
121
121
121
121
121
121
120
120
120
120
120
120
120
120
120
120
120
120
120
120
120
119
119
119
120
120
120
120
120
120
120
120
121
121
121
121
121
121
121
121
121
121
121
121
121
121
121
121
120
120
120
120
120
120
121
121
121
121
121
121
121
121
121
121
121
121
120
120
120
120
120
120
120
120
120
121
121
121
121
121
121
121
121
121
121
121
121
121
120
120
120
120
121
121
121
121
121
121
121
121
121
121
121
120
120
120
120
120
120
120
120
120
120
120
120
119
119
119
119
119
119
119
119
119
120
120
120
120
120
120
120
120
120
120
120
120
120
120
120
120
119
119
119
119
119
119
119
119
119
119
118
118
118
118
118
118
118
118
118
118
118
118
118
118
118
118
118
118
118
118
118
119
119
119
119
119
119
119
119
118
118
118
118
118
118
118
118
118
118
118
118
118
118
118
118
118
118
118
118
118
118
118
118
118
118
118
118
118
118
118
118
118
118
118
118
118
118
118
118
118
119
119
119
119
119
119
119
119
119
119
119
119
119
119
119
119
118
118
118
118
118
119
119
119
119
119
119
119
119
119
119
119
119
119
119
119
119
119
119
119
119
119
119
118
118
118
118
118
118
118
118
118
118
118
118
118
118
118
118
118
118
118
118
118
117
117
117
117
118
118
118
118
118
118
118
118
118
118
118
119
119
119
119
118
118
118
118
118
118
118
118
118
118
118
117
117
117
117
116
116
116
116
115
115
115
115
114
114
114
114
114
113
113
113
112
112
112
112
111
111
110
110
109
109
108
108
107
106
106
105
106
105
104
104
103
103
102
102
101
101
100
99
99
99
99
97
97
97
97
96
96
96
96
96
96
96
95
96
96
96
96
96
96
96
97
97
97
97
98
98
98
99
99
98
99
99
100
101
100
101
101
102
102
102
102
103
103
103
104
104
104
104
105
106
106
107
107
107
109
109
109
110
111
112
112
114
114
115
115
116
117
118
119
119
120
120
121
121
121
122
122
122
122
123
123
123
123
123
123
123
122
123
124
123
123
123
123
123
123
123
123
123
123
122
122
122
123
123
123
124
124
125
125
125
126
127
128
128
130
131
132
133
134
135
136
136
137
138
138
139
138
137
136
135
133
130
127
124
120
115
109
104
97
89
82
74
66
57
47
37
27
17
5
-6
-15
-26
-36
-47
-57
-66
-75
-83
-90
-96
-102
-106
-109
-111
-111
-110
-109
-105
-100
-95
-88
-80
-72
-62
-53
-42
-31
-21
-8
4
15
27
38
49
59
69
78
86
94
100
106
111
116
119
123
125
127
129
129
129
129
129
128
127
126
125
123
122
121
120
118
117
116
115
113
112
112
111
111
111
110
110
110
109
110
109
110
110
111
111
111
111
112
112
112
113
113
113
113
113
113
113
113
114
114
114
114
114
114
114
113
113
113
113
113
113
113
113
113
113
112
112
111
112
112
112
112
112
112
112
112
112
112
113
113
112
112
112
112
112
112
112
112
112
111
111
111
111
111
111
110
109
109
109
109
109
108
108
108
108
108
108
107
107
107
107
106
106
106
106
107
107
106
106
106
106
106
106
106
106
106
106
106
106
106
106
105
105
105
105
105
105
104
104
104
104
103
103
103
103
103
102
102
102
101
101
100
100
100
100
100
100
100
100
100
98
98
98
98
98
98
98
98
97
97
97
96
96
96
96
95
95
95
95
96
95
95
95
94
94
93
93
93
91
91
90
90
89
89
89
89
88
88
87
87
87
86
86
86
86
86
85
85
85
85
85
85
85
84
83
82
82
82
81
81
81
80
80
79
79
78
78
76
76
76
75
75
75
75
74
73
73
73
72
72
71
71
71
69
69
68
68
67
67
67
66
66
65
65
64
64
63
62
62
60
60
60
58
58
58
56
56
54
54
52
52
50
50
49
48
47
47
45
45
44
43
42
42
40
40
40
40
38
38
38
37
36
35
35
34
33
33
33
32
31
31
30
30
29
28
28
27
27
25
25
24
23
23
22
22
21
21
21
21
20
20
20
20
20
19
19
19
19
20
20
20
20
20
21
22
22
23
23
24
24
24
25
25
25
26
27
28
28
29
31
31
33
33
34
36
37
39
40
42
44
46
47
49
51
53
54
56
57
60
61
63
64
66
67
69
69
71
72
72
74
74
75
76
77
77
78
79
79
80
80
81
81
82
82
83
84
84
85
85
86
87
87
88
89
90
91
91
91
92
92
92
94
94
94
94
95
95
95
95
94
94
94
94
93
92
92
92
92
91
91
91
91
90
89
89
89
89
89
88
88
88
88
87
87
87
87
87
86
86
86
85
85
85
84
84
84
84
84
84
84
83
84
84
84
84
84
85
84
84
85
85
85
85
85
85
85
86
86
86
86
86
86
86
86
86
86
86
86
86
86
86
86
86
86
86
86
86
86
86
86
86
85
86
86
86
86
86
86
86
87
87
87
87
87
86
86
86
86
86
86
86
86
86
86
86
86
86
86
84
84
84
84
84
84
85
85
85
85
85
85
85
86
86
86
86
86
86
86
87
87
87
87
88
87
87
87
87
86
87
87
87
88
88
88
88
89
89
89
89
89
89
89
89
89
88
88
88
88
88
88
87
87
87
87
87
87
87
88
87
87
87
87
88
88
88
88
89
89
89
89
89
89
89
89
89
89
88
88
89
89
89
89
89
88
88
88
88
89
89
89
89
89
89
90
90
90
89
89
89
89
89
89
89
89
89
89
87
87
87
87
88
88
87
87
87
87
87
87
87
86
86
87
87
87
87
87
87
85
85
85
85
85
86
86
86
86
86
86
86
86
85
85
86
85
85
85
85
85
85
85
84
84
84
84
83
83
83
82
81
81
81
80
80
80
80
80
79
79
79
79
79
79
79
79
79
79
80
80
80
80
81
81
81
82
82
82
83
83
84
84
84
83
83
83
83
83
83
83
83
83
83
83
82
82
82
81
81
80
80
80
80
79
79
79
78
78
78
78
78
77
76
76
76
76
76
75
75
75
75
75
75
75
76
76
76
76
76
76
76
76
76
76
75
75
75
75
75
75
75
76
76
74
74
74
74
74
74
74
73
73
73
73
73
73
73
73
73
73
73
73
72
72
72
73
73
73
73
73
71
71
71
71
71
71
71
71
71
71
71
71
71
70
69
69
69
69
69
68
67
67
67
66
66
66
66
66
66
65
65
65
65
65
65
65
65
65
65
65
65
65
65
65
65
65
66
66
66
67
67
66
66
66
66
66
65
65
65
65
65
65
64
64
64
64
64
63
63
63
63
63
63
63
63
63
63
63
63
63
62
63
64
64
64
64
64
64
64
64
63
63
63
63
63
63
62
61
61
61
60
60
60
59
59
59
58
57
57
57
57
57
57
57
57
56
56
56
56
56
55
55
55
55
55
55
55
54
54
54
54
54
53
53
53
52
52
52
51
51
51
51
51
52
52
52
52
52
52
52
53
53
54
54
55
55
56
56
56
57
57
57
57
57
57
57
57
57
57
58
57
57
57
56
56
55
55
55
55
55
54
54
54
54
54
54
53
53
53
53
53
53
53
53
53
53
53
52
52
52
51
51
51
50
50
50
50
50
50
49
48
48
47
47
47
46
46
47
47
47
46
46
45
45
44
43
42
42
42
41
41
40
40
38
37
36
35
36
35
34
33
33
32
32
31
30
30
30
30
30
30
29
30
30
30
29
29
30
30
30
30
30
30
31
30
30
30
30
30
30
31
32
32
32
32
32
33
33
34
34
34
35
35
36
37
37
38
38
39
40
40
41
42
43
45
45
46
46
48
48
49
50
50
51
51
51
51
52
52
52
52
52
52
53
53
53
54
54
54
54
55
56
56
56
56
57
57
57
57
57
57
57
56
57
57
57
56
56
55
56
55
55
54
55
54
54
55
54
55
55
55
56
57
57
58
58
60
61
62
64
65
67
68
69
70
72
73
74
75
75
75
75
74
73
71
68
66
61
58
52
46
41
35
27
19
10
1
-9
-18
-29
-39
-51
-61
-73
-83
-94
-103
-113
-122
-130
-138
-146
-151
-156
-160
-163
-164
-165
-163
-161
-158
-153
-147
-140
-133
-124
-114
-104
-93
-83
-72
-60
-48
-37
-25
-15
-3
6
15
23
32
39
46
51
57
61
66
69
71
73
75
76
76
76
75
75
74
73
72
70
69
68
67
66
65
64
63
62
61
61
61
61
61
60
60
60
61
60
60
60
60
60
61
61
61
61
61
62
62
61
62
62
62
63
63
63
63
64
64
64
64
65
65
65
65
65
65
64
64
64
65
64
64
64
63
63
63
62
62
62
62
62
62
61
61
61
60
61
61
60
60
60
59
59
59
58
58
58
58
58
58
57
57
57
58
58
58
57
57
57
57
57
56
56
56
56
56
55
56
56
55
55
55
55
54
54
54
54
53
53
53
53
53
52
52
52
52
52
51
51
51
52
52
52
52
52
52
52
51
51
52
52
52
52
52
52
52
52
52
52
52
51
51
51
49
49
49
49
49
49
48
48
48
48
48
48
48
48
48
47
47
47
46
46
46
46
46
47
47
46
46
46
46
46
46
46
46
46
46
46
46
46
45
45
45
45
46
46
46
46
46
46
46
46
46
46
46
46
46
46
46
47
47
47
47
47
47
47
47
47
47
47
47
47
47
47
47
47
46
46
46
46
46
46
46
44
44
44
44
44
44
43
43
43
43
42
42
42
42
42
42
41
41
41
41
41
40
40
40
40
38
38
38
38
38
37
37
37
37
36
35
35
35
35
34
34
33
33
33
33
32
32
32
31
30
29
29
29
27
27
27
26
25
25
24
24
23
23
23
22
21
21
20
20
20
20
19
18
18
18
17
17
17
16
16
16
15
14
14
14
14
14
14
14
14
14
14
15
15
15
15
15
17
17
17
19
19
21
21
22
23
24
25
27
27
29
30
32
32
34
35
37
39
40
41
43
44
46
47
50
51
52
54
56
57
59
61
62
64
65
67
69
70
72
73
75
77
78
80
82
83
85
86
87
89
91
92
93
95
96
98
98
99
100
101
101
103
104
105
105
106
107
107
108
108
109
110
111
112
112
113
113
113
113
114
114
115
115
116
116
117
118
118
118
119
119
118
118
119
119
119
119
119
119
118
118
118
118
117
117
117
116
116
115
115
116
116
116
116
116
117
117
117
117
117
117
116
116
116
116
115
114
113
112
111
110
110
109
108
108
107
107
107
106
106
106
106
106
107
107
108
108
109
110
110
110
110
110
110
110
109
109
108
108
107
107
106
106
106
105
105
104
104
103
104
104
104
103
103
103
103
103
103
103
103
103
103
103
104
104
104
104
104
104
103
103
103
102
102
101
99
99
98
97
96
95
95
95
94
94
94
94
95
95
95
96
96
97
97
99
100
101
102
103
104
105
106
106
106
106
106
106
106
106
106
106
106
105
105
105
105
104
104
104
104
104
103
103
104
104
104
104
104
104
104
104
104
103
103
103
103
104
104
105
105
105
105
106
106
106
107
107
108
108
109
109
109
109
110
110
110
111
111
112
113
113
114
114
115
115
116
117
118
119
121
122
123
123
123
124
125
126
127
128
129
130
131
131
132
131
131
131
131
132
132
132
132
133
133
134
134
134
135
135
136
136
136
137
137
138
139
140
140
141
141
142
142
143
143
144
144
145
145
146
147
147
147
148
147
147
147
147
148
148
148
148
148
148
148
148
148
148
148
148
148
148
148
149
149
149
149
149
149
149
149
150
151
151
152
152
153
153
153
153
154
154
155
155
155
156
156
157
157
157
158
158
158
158
158
158
159
159
160
160
160
160
160
160
160
160
160
160
160
161
161
161
161
161
161
161
160
160
160
160
160
160
160
160
161
161
161
161
161
162
162
163
164
164
164
164
165
165
166
166
166
166
166
167
167
166
166
166
166
165
165
165
165
165
165
165
166
166
166
165
165
165
165
166
166
166
166
167
167
166
166
166
166
165
165
166
167
167
168
168
168
168
168
168
168
167
167
168
168
168
168
168
168
168
169
169
169
169
169
169
169
170
170
170
170
171
171
171
171
171
172
172
172
171
171
171
172
172
172
173
173
173
173
174
174
173
174
174
176
176
176
177
177
177
177
178
178
178
179
179
179
179
180
180
180
180
180
180
180
180
180
180
180
180
180
180
180
180
180
180
180
180
180
180
179
179
179
179
179
179
179
179
178
178
178
178
178
179
179
179
179
179
178
178
178
178
179
180
180
180
180
180
179
179
179
179
179
179
179
179
179
179
179
179
179
179
180
180
180
180
180
180
180
180
180
179
179
179
179
179
178
178
178
178
178
177
177
177
176
176
176
176
175
175
175
175
175
175
175
175
173
173
173
173
173
173
173
173
173
173
172
172
172
171
171
170
170
170
169
169
168
168
167
167
166
166
165
165
164
164
164
163
162
161
161
161
160
160
159
159
158
158
157
157
156
155
155
154
153
153
153
152
151
150
150
149
148
147
147
146
145
145
144
144
142
142
141
141
139
139
139
138
137
137
137
136
136
136
136
136
136
136
136
137
137
138
138
138
138
139
140
140
140
141
140
140
141
141
142
142
142
142
142
143
143
144
144
143
144
144
145
145
145
145
145
146
147
147
147
148
149
149
150
150
151
152
153
153
155
155
156
157
158
159
159
160
161
161
162
163
163
164
164
164
165
165
165
165
166
166
166
165
165
165
165
165
165
165
165
165
165
164
164
164
164
164
164
164
165
165
165
166
166
166
168
168
169
169
170
170
171
172
173
174
175
175
176
177
177
178
177
178
177
177
176
174
172
170
167
163
160
155
150
143
137
130
123
114
106
97
87
77
67
56
45
33
23
12
2
-9
-19
-28
-37
-46
-52
-59
-64
-69
-72
-74
-75
-74
-72
-69
-65
-60
-53
-46
-38
-29
-19
-9
1
12
24
36
47
59
70
81
91
101
110
118
127
133
140
145
149
154
157
159
162
163
163
164
164
163
162
161
160
158
157
156
154
153
151
150
148
147
146
145
144
143
141
140
140
139
138
138
137
137
136
136
136
135
136
136
135
135
135
135
134
135
135
135
134
134
134
135
135
135
134
134
134
134
134
133
133
133
134
133
133
133
131
131
130
130
130
129
129
128
128
127
127
126
126
125
125
125
124
125
125
124
124
123
123
123
122
122
122
121
121
120
119
119
119
118
118
117
117
116
116
115
115
115
114
114
114
113
113
113
112
112
112
112
111
111
111
111
110
110
110
110
109
109
109
109
108
108
108
107
107
107
106
106
105
105
105
104
104
103
103
103
101
101
101
101
100
100
100
99
99
99
99
98
98
98
97
97
96
96
96
95
95
94
94
92
92
91
91
90
90
89
89
88
88
88
87
87
87
87
86
86
86
84
84
83
83
83
82
82
81
81
81
79
79
78
78
78
77
77
76
76
75
74
74
73
73
72
72
71
71
70
70
69
69
67
67
66
66
65
65
64
64
63
62
61
61
60
60
59
58
57
57
56
56
55
55
53
53
52
52
51
50
49
49
49
48
47
47
47
46
45
45
44
44
42
42
41
41
39
39
39
38
37
36
36
34
34
33
33
31
30
30
28
28
26
26
25
24
23
22
22
21
20
19
18
17
16
16
15
14
13
13
12
10
10
9
8
7
6
5
5
4
3
2
1
1
0
0
-1
-2
-3
-3
-4
-4
-4
-5
-6
-6
-7
-7
-7
-8
-8
-8
-9
-9
-9
-9
-9
-8
-8
-8
-8
-8
-7
-7
-6
-5
-5
-4
-3
-3
-1
-1
1
1
3
3
5
6
7
8
10
10
12
14
14
16
17
19
21
22
24
25
27
28
30
30
32
33
35
36
38
39
41
42
44
45
47
48
49
50
51
52
54
54
55
56
56
57
57
59
59
60
60
61
61
63
63
64
64
64
66
66
66
66
66
67
67
67
67
67
68
68
68
68
69
69
69
69
69
70
70
70
70
70
70
71
71
71
71
71
71
71
71
71
72
72
72
72
72
72
72
72
72
71
71
71
71
71
71
71
71
71
72
72
72
72
72
72
72
72
72
73
73
73
73
73
73
73
74
74
74
74
73
73
73
73
73
73
73
73
73
73
73
73
73
73
73
73
73
73
73
73
73
73
73
73
73
73
73
73
73
72
72
72
72
72
72
72
72
72
72
72
72
72
72
72
71
71
71
71
71
71
70
70
70
70
70
70
71
71
71
71
70
70
70
70
70
70
70
70
70
69
69
69
69
69
69
69
69
69
69
69
69
69
69
69
68
68
68
68
68
68
69
69
69
69
69
69
68
68
68
68
68
68
67
67
67
68
68
68
67
67
67
67
67
67
67
68
68
68
68
69
69
69
69
70
70
69
69
69
70
70
70
70
70
70
70
70
70
70
70
70
70
70
70
69
69
69
69
69
70
70
70
70
70
70
70
71
71
71
71
71
71
72
72
72
72
72
72
72
72
72
73
73
73
73
73
73
72
71
71
71
71
71
71
71
71
71
71
71
71
71
70
70
70
70
70
70
68
68
68
68
68
67
68
68
68
68
68
67
67
67
67
67
67
67
67
67
66
66
66
66
66
66
65
65
65
65
65
64
64
64
64
63
63
63
63
62
62
62
62
61
61
61
61
60
59
59
60
60
59
59
59
59
59
58
58
58
58
58
58
57
56
56
56
56
56
56
56
56
56
55
55
55
55
55
55
53
53
53
53
53
53
53
53
53
52
52
52
52
52
52
51
51
51
51
51
50
50
50
50
50
50
50
49
49
49
49
49
49
49
49
49
48
48
48
48
48
48
48
48
47
47
47
47
47
47
46
46
46
46
46
46
45
45
45
45
45
45
45
45
44
43
43
43
43
43
43
43
42
42
42
43
43
42
42
42
42
42
42
41
41
41
41
40
40
40
40
40
40
39
39
39
38
38
38
38
37
37
37
37
37
37
37
37
37
36
36
36
36
36
36
36
35
35
34
34
34
34
34
33
33
33
33
32
32
32
32
32
31
31
31
32
31
31
31
31
31
30
30
30
30
30
31
31
31
30
30
30
30
30
30
30
30
29
29
28
28
27
27
27
26
26
26
25
25
24
24
23
23
22
22
22
21
21
22
22
21
21
21
21
21
21
21
20
20
20
20
20
20
20
20
20
20
20
19
19
18
18
18
18
18
17
17
17
16
16
16
16
15
15
15
14
14
14
13
13
13
13
12
12
12
12
12
11
11
11
11
11
11
10
10
10
10
10
10
10
10
9
9
9
9
9
8
8
8
7
7
7
6
7
7
6
6
5
5
4
4
3
3
2
2
2
1
1
0
0
-1
-1
-2
-3
-3
-4
-4
-5
-6
-6
-7
-8
-9
-10
-10
-10
-11
-12
-13
-14
-15
-15
-17
-18
-19
-19
-20
-21
-22
-23
-23
-24
-26
-26
-26
-28
-28
-28
-29
-29
-30
-30
-30
-31
-31
-31
-31
-30
-30
-30
-30
-29
-29
-29
-29
-29
-29
-28
-28
-29
-28
-28
-28
-28
-28
-28
-27
-27
-28
-27
-27
-27
-26
-26
-27
-27
-26
-25
-25
-25
-25
-24
-24
-23
-23
-22
-22
-21
-20
-20
-19
-19
-17
-17
-16
-15
-15
-14
-14
-14
-13
-13
-13
-13
-12
-12
-12
-12
-12
-12
-12
-13
-13
-13
-14
-14
-15
-15
-15
-16
-16
-16
-17
-16
-16
-17
-17
-17
-18
-18
-18
-19
-19
-18
-18
-19
-18
-18
-17
-17
-17
-16
-16
-15
-14
-13
-12
-12
-11
-9
-9
-8
-7
-6
-6
-6
-6
-6
-7
-8
-9
-11
-14
-16
-19
-24
-28
-34
-39
-46
-53
-60
-68
-78
-87
-97
-107
-117
-128
-140
-150
-162
-173
-184
-194
-204
-214
-223
-231
-239
-246
-251
-256
-259
-260
-260
-261
-259
-256
-253
-247
-242
-235
-227
-218
-209
-199
-187
-177
-165
-154
-143
-132
-121
-109
-100
-90
-80
-72
-64
-57
-50
-45
-40
-35
-32
-28
-27
-25
-24
-23
-23
-23
-24
-25
-25
-27
-28
-31
-32
-34
-35
-37
-38
-40
-41
-43
-44
-45
-46
-47
-48
-49
-49
-49
-50
-49
-50
-50
-50
-50
-50
-50
-49
-49
-49
-49
-49
-49
-49
-49
-49
-49
-49
-49
-49
-49
-49
-49
-50
-50
-50
-50
-51
-51
-51
-51
-51
-51
-52
-52
-52
-53
-53
-53
-53
-54
-54
-54
-55
-56
-56
-56
-56
-56
-56
-56
-56
-57
-57
-57
-57
-57
-57
-58
-58
-58
-58
-58
-59
-59
-59
-59
-59
-59
-60
-60
-60
-60
-60
-61
-61
-61
-61
-62
-62
-62
-62
-63
-63
-64
-65
-65
-65
-66
-66
-66
-67
-67
-67
-67
-68
-68
-68
-68
-69
-69
-69
-69
-69
-70
-70
-70
-70
-70
-71
-72
-72
-72
-72
-73
-73
-73
-73
-74
-74
-74
-75
-75
-75
-76
-76
-77
-78
-78
-79
-79
-79
-79
-80
-80
-80
-80
-81
-81
-81
-81
-81
-81
-81
-82
-82
-83
-83
-83
-83
-83
-83
-83
-83
-83
-84
-85
-85
-85
-85
-86
-86
-86
-86
-87
-87
-87
-88
-88
-89
-90
-90
-91
-91
-91
-92
-92
-92
-93
-93
-94
-94
-95
-95
-95
-96
-96
-97
-97
-97
-98
-98
-98
-99
-100
-100
-100
-100
-102
-102
-102
-103
-103
-104
-105
-105
-106
-106
-107
-108
-108
-109
-109
-110
-111
-112
-112
-113
-113
-114
-115
-116
-116
-117
-118
-119
-119
-119
-120
-121
-121
-122
-122
-123
-123
-124
-125
-125
-126
-127
-127
-128
-129
-130
-130
-130
-132
-132
-133
-134
-135
-135
-136
-137
-138
-138
-139
-140
-140
-141
-142
-143
-143
-145
-145
-145
-146
-147
-148
-148
-149
-150
-150
-151
-151
-152
-152
-153
-154
-154
-154
-154
-155
-156
-156
-156
-156
-157
-157
-157
-157
-157
-158
-159
-158
-158
-158
-158
-158
-158
-158
-158
-158
-157
-156
-156
-156
-156
-155
-154
-153
-153
-152
-151
-151
-149
-149
-147
-146
-145
-144
-142
-141
-140
-138
-137
-135
-134
-132
-131
-129
-127
-126
-124
-123
-121
-120
-118
-117
-115
-114
-112
-110
-109
-107
-106
-105
-104
-103
-102
-100
-99
-98
-96
-95
-94
-93
-92
-91
-90
-88
-88
-87
-86
-85
-84
-83
-82
-81
-81
-80
-78
-78
-77
-77
-76
-76
-75
-75
-73
-73
-73
-72
-72
-72
-72
-71
-71
-71
-72
-71
-71
-71
-71
-70
-70
-70
-70
-69
-69
-69
-69
-69
-69
-68
-68
-68
-68
-68
-68
-68
-68
-67
-67
-67
-66
-66
-66
-66
-66
-66
-66
-66
-66
-66
-66
-66
-66
-66
-66
-66
-66
-66
-66
-66
-66
-66
-67
-67
-67
-67
-68
-68
-68
-68
-69
-69
-69
-69
-69
-69
-69
-69
-69
-69
-69
-69
-69
-69
-69
-69
-69
-68
-68
-68
-68
-68
-68
-67
-67
-67
-67
-67
-67
-67
-67
-67
-67
-67
-67
-67
-67
-67
-67
-67
-67
-67
-68
-68
-68
-68
-68
-68
-68
-68
-68
-68
-68
-68
-68
-68
-68
-68
-68
-68
-68
-68
-68
-68
-68
-68
-68
-68
-68
-68
-68
-67
-67
-67
-67
-67
-67
-67
-67
-67
-67
-66
-66
-66
-66
-66
-66
-66
-66
-66
-66
-66
-66
-66
-66
-66
-66
-66
-66
-66
-66
-66
-66
-66
-67
-67
-67
-67
-67
-67
-67
-67
-67
-67
-67
-67
-67
-67
-67
-67
-67
-67
-67
-67
-68
-68
-68
-68
-68
-68
-68
-68
-68
-68
-68
-67
-67
-67
-67
-67
-67
-67
-67
-67
-67
-67
-66
-66
-66
-66
-66
-66
-66
-66
-66
-66
-66
-66
-66
-66
-66
-66
-66
-67
-67
-67
-67
-66
-66
-66
-66
-66
-66
-66
-66
-66
-66
-66
-66
-66
-66
-66
-66
-66
-66
-66
-66
-66
-67
-67
-67
-67
-67
-67
-67
-67
-67
-67
-66
-66
-66
-66
-66
-66
-66
-66
-66
-66
-66
-66
-65
-65
-65
-65
-65
-65
-65
-65
-65
-65
-65
-65
-65
-65
-65
-65
-65
-65
-65
-65
-65
-65
-65
-65
-65
-65
-65
-65
-65
-64
-64
-64
-64
-64
-64
-64
-64
-65
-65
-65
-65
-65
-66
-66
-66
-65
-65
-65
-65
-65
-66
-66
-66
-66
-66
-66
-66
-66
-66
-66
-66
-66
-66
-66
-66
-66
-66
-67
-67
-67
-67
-67
-66
-66
-66
-66
-66
-66
-67
-67
-67
-67
-67
-67
-67
-67
-67
-67
-67
-67
-67
-67
-67
-68
-68
-68
-68
-68
-68
-67
-67
-67
-68
-68
-68
-68
-68
-68
-68
-68
-68
-68
-68
-68
-68
-68
-68
-68
-68
-68
-68
-68
-68
-68
-68
-69
-69
-69
-69
-68
-68
-68
-68
-68
-68
-68
-68
-68
-68
-68
-68
-68
-68
-68
-68
-68
-68
-67
-67
-68
-68
-68
-68
-68
-68
-68
-68
-69
-69
-69
-69
-70
-70
-70
-70
-70
-70
-70
-70
-71
-71
-71
-71
-71
-71
-71
-71
-71
-71
-71
-71
-71
-71
-70
-70
-70
-70
-70
-70
-70
-70
-70
-70
-70
-70
-70
-69
-69
-69
-69
-69
-69
-70
-70
-70
-70
-70
-70
-70
-70
-70
-70
-70
-70
-70
-70
-70
-70
-70
-70
-71
-71
-70
-70
-70
-70
-70
-70
-70
-70
-70
-70
-70
-70
-70
-70
-70
-70
-70
-70
-70
-70
-70
-71
-71
-71
-71
-71
-71
-71
-71
-71
-71
-71
-71
-71
-71
-71
-71
-71
-71
-71
-71
-71
-71
-71
-71
-71
-71
-71
-71
-71
-71
-71
-72
-72
-72
-72
-72
-72
-72
-72
-72
-73
-73
-73
-73
-73
-74
-74
-74
-74
-74
-74
-75
-75
-75
-75
-75
-76
-77
-77
-78
-78
-78
-78
-79
-79
-79
-80
-80
-81
-81
-82
-82
-83
-83
-84
-84
-85
-85
-86
-87
-87
-89
-89
-90
-90
-91
-91
-91
-93
-93
-94
-94
-94
-94
-94
-94
-95
-95
-95
-95
-95
-95
-95
-95
-95
-94
-94
-94
-94
-94
-94
-93
-93
-93
-93
-92
-93
-93
-92
-92
-91
-92
-91
-91
-91
-90
-90
-90
-90
-89
-89
-88
-88
-87
-87
-86
-86
-86
-84
-84
-84
-83
-82
-82
-81
-80
-79
-79
-77
-77
-76
-76
-75
-74
-73
-73
-73
-72
-72
-71
-71
-70
-70
-70
-69
-69
-69
-69
-69
-69
-68
-68
-68
-68
-68
-68
-68
-68
-68
-68
-68
-68
-68
-68
-68
-68
-68
-69
-68
-68
-68
-68
-67
-67
-66
-66
-64
-64
-64
-62
-62
-60
-60
-59
-57
-57
-56
-56
-55
-55
-55
-54
-55
-56
-57
-59
-61
-63
-67
-71
-74
-79
-85
-91
-97
-105
-112
-120
-129
-138
-147
-158
-167
-178
-188
-198
-210
-221
-230
-240
-249
-258
-267
-274
-280
-285
-290
-294
-297
-297
-298
-296
-295
-292
-287
-282
-275
-268
-259
-250
-241
-231
-221
-210
-199
-187
-176
-165
-155
-144
-135
-126
-117
-109
-102
-96
-89
-84
-80
-76
-73
-70
-69
-68
-67
-67
-67
-68
-69
-69
-71
-72
-73
-74
-76
-78
-80
-81
-82
-84
-85
-86
-87
-88
-88
-89
-89
-89
-90
-90
-91
-91
-91
-91
-91
-91
-91
-91
-92
-90
-90
-90
-90
-91
-91
-91
-91
-91
-91
-91
-91
-91
-91
-91
-91
-91
-91
-91
-91
-91
-91
-91
-91
-91
-92
-92
-92
-92
-92
-92
-92
-92
-92
-92
-92
-92
-92
-92
-92
-93
-93
-93
-93
-93
-93
-93
-93
-94
-94
-94
-94
-94
-94
-94
-94
-94
-94
-95
-95
-95
-95
-95
-95
-95
-95
-96
-97
-97
-97
-97
-97
-97
-97
-97
-97
-98
-98
-98
-98
-98
-98
-98
-99
-98
-98
-99
-99
-100
-100
-100
-100
-100
-100
-101
-101
-101
-101
-101
-102
-103
-103
-103
-103
-103
-103
-103
-103
-103
-104
-104
-104
-104
-104
-104
-104
-104
-104
-105
-105
-105
-105
-105
-105
-105
-105
-105
-105
-105
-105
-105
-105
-106
-106
-107
-107
-107
-107
-108
-108
-108
-109
-109
-109
-109
-110
-111
-111
-112
-112
-112
-113
-113
-113
-113
-114
-114
-114
-114
-115
-115
-115
-116
-116
-116
-117
-117
-117
-118
-118
-118
-118
-119
-119
-120
-120
-120
-120
-122
-122
-122
-122
-124
-124
-124
-125
-125
-125
-125
-127
-127
-127
-127
-128
-128
-128
-128
-130
-130
-130
-131
-131
-131
-132
-132
-134
-134
-135
-135
-135
-137
-137
-138
-138
-140
-140
-141
-141
-143
-143
-144
-145
-146
-146
-147
-147
-149
-149
-150
-150
-152
-152
-152
-152
-154
-154
-154
-155
-156
-156
-157
-158
-159
-159
-160
-161
-162
-163
-164
-164
-166
-166
-167
-168
-169
-170
-171
-172
-173
-173
-174
-175
-176
-176
-177
-177
-178
-179
-179
-180
-180
-180
-182
-182
-182
-183
-183
-183
-184
-185
-185
-185
-185
-186
-186
-186
-186
-186
-186
-186
-186
-186
-186
-185
-184
-184
-184
-184
-182
-182
-182
-180
-180
-178
-178
-177
-176
-175
-173
-173
-172
-170
-169
-167
-166
-165
-163
-162
-160
-159
-157
-155
-154
-152
-151
-149
-147
-146
-144
-143
-140
-138
-137
-135
-134
-133
-130
-129
-127
-126
-125
-123
-122
-121
-119
-118
-117
-115
-114
-113
-113
-112
-110
-110
-109
-108
-108
-107
-105
-105
-104
-104
-103
-103
-102
-102
-101
-101
-100
-98
-98
-97
-97
-97
-96
-96
-96
-95
-95
-95
-94
-94
-94
-94
-94
-93
-93
-93
-93
-93
-93
-92
-92
-92
-92
-91
-91
-91
-91
-91
-91
-90
-91
-91
-91
-91
-91
-91
-91
-91
-91
-91
-91
-91
-90
-90
-90
-90
-90
-90
-90
-90
-90
-90
-90
-90
-90
-89
-89
-88
-89
-89
-89
-89
-88
-88
-88
-88
-88
-88
-88
-88
-88
-88
-88
-88
-88
-89
-89
-89
-89
-89
-89
-90
-90
-90
-90
-90
-90
-91
-91
-91
-91
-91
-91
-90
-90
-90
-90
-89
-89
-89
-89
-89
-89
-89
-89
-89
-89
-89
-89
-89
-89
-89
-89
-89
-89
-89
-89
-89
-89
-89
-89
-89
-89
-89
-89
-89
-89
-89
-89
-89
-89
-89
-89
-89
-89
-89
-89
-89
-89
-89
-89
-89
-89
-89
-89
-89
-89
-89
-89
-89
-89
-88
-88
-88
-88
-88
-88
-88
-88
-88
-88
-88
-88
-88
-88
-88
-88
-87
-87
-87
-87
-87
-87
-88
-88
-87
-87
-87
-87
-87
-87
-87
-87
-87
-87
-87
-87
-87
-87
-86
-86
-86
-87
-87
-87
-87
-87
-86
-86
-86
-86
-86
-86
-86
-86
-86
-86
-86
-86
-85
-85
-85
-85
-85
-85
-84
-84
-84
-84
-84
-84
-84
-84
-84
-84
-84
-84
-83
-83
-83
-83
-83
-83
-83
-83
-83
-83
-83
-83
-83
-83
-83
-83
-83
-83
-83
-83
-83
-83
-83
-83
-83
-83
-83
-82
-82
-82
-82
-82
-82
-81
-81
-81
-81
-81
-80
-80
-80
-80
-80
-79
-79
-79
-79
-79
-79
-79
-79
-79
-78
-78
-78
-78
-78
-78
-78
-78
-78
-77
-77
-77
-77
-77
-78
-78
-78
-78
-77
-77
-77
-77
-77
-77
-77
-77
-78
-78
-78
-76
-76
-77
-77
-77
-77
-76
-77
-76
-76
-76
-76
-76
-76
-76
-76
-76
-76
-76
-76
-76
-76
-76
-76
-76
-76
-76
-76
-76
-76
-76
-76
-76
-76
-76
-76
-76
-76
-76
-76
-76
-76
-76
-76
-76
-76
-76
-76
-76
-76
-76
-76
-76
-76
-76
-76
-76
-76
-76
-76
-76
-76
-76
-76
-76
-76
-76
-76
-76
-76
-76
-76
-76
-76
-76
-76
-76
-76
-76
-76
-76
-76
-76
-76
-76
-76
-76
-76
-76
-76
-76
-76
-76
-76
-76
-76
-76
-76
-76
-76
-75
-75
-75
-75
-75
-75
-75
-75
-75
-75
-75
-75
-75
-75
-75
-75
-75
-75
-75
-75
-75
-74
-74
-74
-74
-74
-74
-74
-74
-74
-74
-74
-74
-74
-75
-75
-75
-74
-74
-74
-74
-74
-74
-73
-73
-73
-73
-73
-73
-73
-73
-73
-73
-72
-72
-72
-72
-72
-72
-72
-72
-72
-72
-72
-72
-72
-72
-72
-73
-73
-73
-73
-73
-73
-73
-73
-73
-73
-73
-73
-73
-73
-73
-73
-73
-73
-73
-73
-73
-73
-73
-73
-73
-73
-73
-73
-73
-73
-73
-73
-73
-73
-73
-73
-73
-73
-73
-73
-73
-73
-73
-73
-73
-73
-73
-73
-73
-73
-73
-72
-72
-72
-72
-72
-72
-72
-72
-72
-72
-72
-72
-72
-71
-71
-70
-70
-70
-71
-71
-71
-70
-70
-70
-70
-70
-70
-70
-70
-70
-70
-70
-71
-71
-71
-71
-70
-70
-70
-70
-70
-70
-70
-70
-70
-70
-70
-70
-70
-70
-70
-70
-70
-70
-70
-70
-70
-70
-70
-70
-70
-71
-71
-71
-71
-71
-71
-72
-72
-72
-72
-72
-73
-73
-73
-73
-73
-74
-74
-74
-74
-74
-75
-75
-75
-75
-75
-76
-76
-76
-76
-78
-78
-78
-79
-79
-79
-79
-79
-80
-81
-81
-82
-82
-83
-84
-84
-85
-85
-86
-86
-87
-88
-88
-89
-89
-90
-90
-92
-92
-92
-93
-93
-94
-94
-94
-95
-95
-95
-95
-95
-94
-94
-94
-94
-93
-93
-93
-93
-93
-93
-93
-93
-92
-92
-92
-91
-91
-90
-90
-90
-89
-90
-89
-89
-88
-88
-88
-87
-87
-86
-86
-85
-85
-84
-84
-83
-83
-82
-82
-81
-81
-80
-79
-79
-77
-77
-77
-75
-74
-74
-73
-72
-71
-70
-70
-69
-69
-68
-68
-67
-67
-66
-66
-66
-65
-65
-65
-65
-65
-65
-64
-64
-64
-64
-65
-65
-65
-65
-65
-65
-65
-65
-65
-64
-64
-64
-64
-64
-64
-63
-63
-64
-63
-63
-62
-62
-61
-60
-60
-58
-58
-57
-56
-56
-54
-53
-53
-52
-51
-50
-50
-50
-50
-51
-51
-52
-53
-56
-58
-61
-65
-70
-74
-80
-87
-93
-100
-107
-116
-125
-134
-143
-155
-164
-175
-187
-198
-209
-219
-229
-239
-248
-258
-267
-275
-282
-287
-292
-297
-299
-301
-301
-300
-297
-294
-289
-283
-276
-268
-259
-249
-239
-228
-217
-205
-192
-181
-170
-158
-147
-137
-126
-116
-107
-99
-91
-85
-79
-74
-69
-66
-62
-60
-58
-57
-57
-56
-57
-57
-57
-59
-60
-61
-62
-64
-65
-66
-67
-68
-70
-71
-72
-73
-73
-74
-74
-75
-75
-76
-75
-76
-75
-76
-76
-75
-75
-75
-75
-75
-75
-75
-73
-73
-73
-73
-73
-73
-73
-73
-73
-73
-73
-73
-73
-73
-73
-73
-72
-72
-72
-72
-72
-72
-72
-72
-72
-72
-72
-72
-72
-72
-72
-72
-72
-72
-72
-72
-73
-73
-74
-74
-74
-74
-74
-74
-74
-74
-75
-75
-75
-75
-75
-76
-76
-76
-76
-77
-77
-77
-77
-77
-77
-78
-78
-78
-78
-78
-78
-78
-79
-79
-79
-79
-79
-80
-80
-80
-80
-80
-80
-80
-80
-80
-80
-80
-80
-80
-81
-81
-81
-81
-81
-81
-81
-81
-81
-82
-82
-82
-82
-82
-82
-82
-83
-83
-83
-83
-83
-84
-84
-85
-85
-85
-86
-86
-86
-86
-86
-87
-87
-87
-88
-88
-88
-88
-89
-89
-89
-89
-89
-89
-89
-89
-89
-89
-89
-90
-90
-90
-91
-91
-91
-91
-91
-91
-91
-91
-92
-92
-92
-92
-93
-94
-94
-94
-94
-94
-95
-95
-95
-95
-95
-95
-97
-97
-97
-97
-97
-97
-98
-99
-99
-99
-100
-100
-100
-101
-101
-102
-102
-102
-103
-104
-104
-104
-104
-105
-106
-106
-106
-106
-107
-107
-107
-107
-108
-108
-108
-109
-109
-110
-110
-110
-110
-111
-112
-112
-113
-113
-113
-114
-115
-115
-116
-116
-117
-118
-118
-120
-120
-120
-121
-122
-123
-123
-125
-125
-125
-126
-127
-128
-128
-130
-130
-131
-131
-133
-133
-134
-134
-135
-136
-136
-137
-138
-139
-139
-140
-141
-141
-142
-142
-142
-144
-144
-145
-145
-146
-146
-147
-147
-148
-148
-148
-149
-150
-150
-150
-151
-152
-152
-152
-153
-153
-153
-155
-155
-155
-155
-157
-157
-157
-157
-157
-157
-158
-158
-158
-158
-158
-157
-156
-156
-156
-156
-155
-155
-154
-154
-153
-153
-152
-151
-150
-149
-148
-148
-146
-145
-143
-143
-141
-140
-138
-136
-135
-133
-132
-130
-129
-127
-125
-123
-121
-120
-118
-116
-114
-113
-111
-110
-108
-107
-104
-103
-101
-100
-98
-97
-95
-94
-92
-91
-89
-88
-87
-85
-84
-83
-81
-80
-79
-79
-77
-76
-75
-74
-74
-72
-71
-71
-70
-70
-69
-69
-68
-67
-67
-66
-66
-64
-64
-64
-63
-63
-62
-62
-61
-61
-60
-60
-59
-59
-59
-58
-58
-57
-57
-57
-57
-56
-56
-56
-55
-55
-55
-55
-55
-55
-55
-55
-55
-55
-55
-55
-54
-54
-54
-54
-54
-54
-54
-54
-54
-54
-54
-54
-54
-54
-54
-54
-54
-54
-53
-53
-53
-53
-53
-53
-53
-53
-53
-53
-53
-53
-53
-53
-53
-53
-53
-53
-53
-53
-53
-53
-53
-53
-53
-52
-52
-52
-52
-53
-53
-53
-53
-53
-53
-54
-54
-54
-54
-54
-54
-54
-54
-54
-54
-54
-54
-54
-55
-55
-55
-55
-55
-54
-54
-54
-54
-54
-54
-54
-53
-53
-53
-53
-53
-53
-53
-53
-53
-53
-53
-53
-53
-53
-53
-53
-53
-53
-53
-53
-53
-53
-53
-53
-53
-53
-53
-53
-53
-53
-53
-53
-52
-52
-52
-52
-52
-52
-52
-52
-51
-51
-51
-51
-51
-51
-51
-51
-51
-51
-51
-51
-51
-51
-51
-51
-51
-51
-51
-52
-52
-52
-52
-52
-52
-52
-52
-52
-52
-52
-52
-52
-52
-52
-52
-52
-51
-51
-51
-51
-51
-50
-50
-51
-50
-50
-50
-50
-50
-49
-49
-49
-49
-49
-49
-49
-49
-49
-49
-50
-50
-49
-48
-48
-48
-48
-48
-48
-48
-48
-48
-48
-48
-48
-48
-48
-48
-48
-48
-48
-48
-48
-48
-48
-48
-48
-48
-48
-48
-48
-48
-48
-48
-48
-48
-48
-48
-48
-48
-48
-48
-48
-48
-48
-48
-48
-48
-47
-47
-47
-47
-47
-47
-48
-48
-47
-47
-47
-47
-47
-47
-47
-47
-47
-47
-47
-47
-47
-47
-47
-47
-47
-47
-47
-47
-47
-47
-47
-47
-46
-46
-46
-46
-46
-46
-46
-47
-47
-47
-46
-46
-46
-46
-46
-46
-46
-46
-46
-45
-46
-46
-46
-46
-46
-46
-46
-46
-45
-45
-45
-45
-45
-45
-45
-45
-45
-45
-45
-45
-45
-45
-46
-46
-46
-46
-46
-46
-46
-46
-46
-46
-46
-46
-46
-46
-46
-46
-46
-46
-46
-46
-46
-46
-46
-45
-45
-45
-45
-45
-45
-44
-43
-44
-44
-44
-44
-44
-44
-44
-44
-44
-44
-44
-44
-44
-44
-44
-44
-44
-45
-45
-45
-45
-44
-44
-44
-44
-44
-44
-44
-44
-44
-44
-44
-44
-44
-44
-44
-44
-44
-44
-44
-44
-43
-43
-43
-43
-43
-43
-43
-43
-43
-43
-43
-43
-43
-43
-43
-43
-43
-44
-44
-44
-44
-44
-44
-44
-44
-44
-44
-44
-44
-44
-44
-44
-44
-44
-44
-44
-44
-44
-45
-45
-45
-45
-45
-45
-46
-46
-46
-46
-46
-46
-46
-46
-46
-46
-46
-45
-45
-45
-45
-44
-44
-44
-44
-44
-44
-43
-43
-43
-43
-43
-43
-43
-43
-43
-43
-43
-43
-43
-43
-43
-43
-43
-43
-43
-43
-43
-43
-43
-43
-43
-43
-43
-43
-43
-43
-43
-43
-43
-43
-43
-43
-43
-43
-43
-43
-43
-43
-43
-43
-43
-43
-43
-43
-43
-43
-43
-43
-43
-43
-43
-43
-43
-43
-43
-42
-42
-42
-42
-42
-42
-42
-42
-42
-42
-42
-43
-43
-43
-43
-43
-44
-44
-44
-44
-44
-44
-44
-44
-44
-44
-44
-44
-44
-44
-44
-44
-44
-44
-44
-43
-43
-43
-43
-43
-43
-44
-44
-44
-44
-44
-44
-44
-44
-43
-43
-44
-44
-44
-44
-45
-45
-45
-46
-46
-46
-47
-47
-48
-48
-48
-48
-48
-49
-49
-49
-50
-50
-50
-51
-51
-51
-50
-51
-51
-52
-52
-52
-53
-53
-54
-54
-54
-55
-56
-56
-57
-57
-58
-59
-59
-60
-60
-61
-62
-62
-62
-63
-63
-63
-63
-64
-64
-64
-64
-64
-64
-64
-64
-63
-63
-63
-63
-63
-63
-63
-63
-63
-63
-63
-63
-63
-63
-63
-63
-63
-63
-64
-63
-63
-63
-64
-63
-63
-63
-63
-63
-62
-62
-61
-61
-60
-60
-59
-59
-58
-58
-56
-56
-56
-55
-54
-54
-52
-52
-51
-50
-50
-49
-48
-47
-47
-47
-46
-46
-45
-45
-44
-44
-43
-43
-43
-43
-42
-42
-42
-41
-41
-41
-41
-41
-41
-41
-40
-40
-40
-40
-40
-40
-40
-40
-40
-40
-40
-40
-40
-40
-40
-40
-40
-40
-40
-40
-40
-39
-39
-38
-38
-37
-36
-36
-34
-33
-33
-32
-30
-29
-28
-27
-27
-27
-26
-26
-26
-27
-27
-29
-31
-33
-36
-39
-43
-48
-52
-58
-65
-72
-79
-87
-95
-104
-114
-123
-133
-144
-154
-166
-176
-187
-197
-207
-216
-226
-234
-242
-249
-255
-261
-265
-268
-270
-270
-269
-267
-264
-260
-255
-248
-241
-233
-224
-214
-204
-193
-182
-172
-161
-148
-137
-127
-116
-106
-97
-88
-78
-72
-64
-58
-53
-48
-44
-40
-37
-34
-33
-32
-31
-31
-31
-31
-32
-34
-34
-36
-37
-38
-40
-41
-43
-44
-45
-46
-47
-48
-49
-49
-50
-50
-51
-51
-51
-52
-52
-52
-52
-52
-52
-52
-52
-51
-51
-51
-51
-51
-50
-50
-50
-50
-50
-50
-50
-49
-49
-49
-49
-49
-49
-49
-49
-49
-50
-50
-50
-50
-50
-50
-51
-51
-51
-51
-51
-51
-51
-52
-52
-52
-52
-52
-52
-52
-52
-52
-52
-52
-52
-52
-52
-52
-52
-52
-52
-52
-52
-52
-52
-53
-53
-53
-54
-54
-54
-55
-55
-55
-55
-55
-55
-55
-56
-56
-56
-56
-56
-56
-56
-56
-56
-56
-56
-56
-56
-56
-55
-55
-56
-56
-56
-57
-57
-57
-57
-57
-57
-57
-58
-58
-58
-58
-59
-60
-60
-60
-60
-61
-61
-61
-61
-62
-62
-62
-62
-62
-62
-62
-62
-62
-62
-62
-62
-62
-62
-63
-63
-64
-64
-64
-64
-64
-64
-65
-65
-65
-65
-65
-65
-67
-67
-67
-67
-67
-67
-67
-68
-68
-68
-68
-68
-69
-69
-69
-69
-69
-70
-70
-70
-70
-70
-71
-71
-71
-71
-71
-71
-71
-72
-73
-73
-73
-73
-73
-73
-73
-73
-74
-74
-74
-74
-74
-74
-76
-76
-75
-75
-77
-77
-77
-77
-77
-78
-78
-79
-79
-80
-80
-81
-81
-81
-82
-83
-84
-84
-84
-85
-85
-85
-86
-86
-87
-87
-88
-88
-88
-88
-88
-90
-90
-90
-90
-92
-92
-92
-92
-94
-94
-94
-96
-96
-96
-97
-98
-98
-99
-100
-101
-101
-101
-103
-103
-104
-104
-106
-106
-107
-107
-109
-109
-110
-110
-112
-112
-112
-114
-114
-116
-116
-116
-118
-118
-118
-119
-120
-120
-121
-121
-121
-122
-123
-123
-123
-124
-124
-124
-125
-125
-126
-126
-127
-127
-127
-127
-129
-129
-129
-129
-130
-130
-130
-130
-130
-130
-130
-130
-130
-130
-130
-129
-129
-128
-128
-127
-126
-125
-124
-124
-122
-122
-120
-119
-118
-116
-115
-113
-113
-111
-109
-108
-106
-104
-103
-101
-100
-99
-97
-95
-94
-92
-90
-89
-87
-86
-84
-83
-81
-79
-77
-75
-74
-73
-71
-70
-69
-66
-65
-64
-62
-61
-60
-59
-57
-56
-55
-55
-53
-52
-51
-51
-50
-49
-48
-47
-46
-45
-45
-44
-43
-43
-42
-42
-41
-41
-39
-39
-38
-38
-37
-37
-36
-36
-36
-35
-35
-35
-34
-34
-34
-33
-33
-33
-33
-32
-32
-32
-32
-32
-32
-32
-31
-31
-31
-31
-31
-31
-31
-32
-32
-32
-32
-32
-31
-31
-31
-31
-31
-31
-31
-31
-31
-31
-30
-30
-30
-30
-30
-30
-30
-30
-30
-30
-29
-29
-29
-29
-30
-30
-30
-30
-30
-30
-30
-30
-30
-30
-30
-29
-29
-29
-29
-29
-29
-29
-29
-29
-29
-28
-28
-28
-28
-28
-28
-28
-28
-28
-28
-28
-28
-28
-28
-28
-28
-28
-29
-29
-29
-29
-29
-29
-29
-29
-29
-29
-29
-29
-29
-29
-29
-30
-30
-30
-30
-30
-30
-30
-30
-30
-30
-30
-30
-30
-30
-30
-30
-30
-29
-29
-29
-29
-28
-28
-28
-28
-28
-28
-28
-27
-27
-27
-27
-27
-27
-27
-27
-27
-27
-27
-27
-27
-27
-27
-27
-28
-28
-28
-28
-28
-28
-28
-28
-28
-28
-28
-27
-27
-27
-27
-28
-28
-28
-28
-28
-27
-27
-27
-27
-27
-27
-27
-27
-27
-27
-27
-27
-27
-27
-27
-27
-26
-26
-26
-26
-26
-26
-26
-26
-26
-25
-25
-25
-25
-25
-25
-25
-25
-25
-25
-25
-25
-25
-25
-25
-25
-25
-24
-24
-24
-24
-24
-24
-24
-24
-24
-24
-24
-24
-23
-23
-23
-23
-24
-24
-24
-24
-24
-24
-23
-23
-23
-23
-23
-23
-23
-23
-23
-23
-23
-23
-23
-23
-23
-22
-22
-22
-22
-22
-23
-23
-23
-23
-23
-23
-24
-24
-24
-24
-24
-24
-24
-24
-24
-24
-24
-24
-24
-24
-24
-24
-24
-24
-24
-24
-24
-23
-23
-23
-23
-23
-23
-23
-23
-23
-23
-23
-23
-23
-23
-23
-23
-23
-23
-23
-24
-24
-24
-24
-24
-24
-24
-24
-23
-23
-23
-23
-23
-23
-23
-23
-23
-23
-23
-23
-23
-23
-23
-23
-23
-23
-23
-23
-22
-22
-22
-22
-22
-22
-22
-23
-23
-24
-24
-24
-24
-24
-24
-24
-24
-24
-24
-24
-24
-24
-24
-24
-24
-23
-23
-23
-23
-23
-23
-23
-22
-22
-22
-22
-22
-22
-22
-22
-23
-23
-23
-23
-23
-23
-23
-23
-23
-23
-23
-23
-23
-23
-23
-22
-22
-22
-22
-22
-22
-22
-21
-21
-21
-21
-21
-21
-21
-21
-21
-21
-21
-21
-21
-21
-21
-21
-21
-21
-21
-21
-21
-21
-21
-21
-22
-22
-22
-22
-22
-22
-22
-22
-22
-22
-21
-21
-21
-21
-21
-21
-21
-20
-20
-20
-20
-20
-20
-19
-19
-20
-20
-20
-20
-20
-20
-20
-20
-20
-20
-20
-20
-20
-20
-19
-19
-19
-19
-19
-19
-19
-19
-19
-19
-19
-19
-19
-19
-19
-19
-19
-19
-19
-19
-19
-19
-19
-19
-19
-19
-18
-18
-18
-18
-18
-18
-18
-18
-18
-18
-18
-18
-18
-18
-18
-18
-18
-18
-18
-17
-17
-18
-18
-19
-19
-19
-19
-19
-19
-19
-19
-19
-19
-19
-19
-19
-19
-19
-19
-19
-18
-18
-18
-18
-18
-18
-19
-19
-19
-18
-18
-18
-18
-18
-18
-18
-18
-18
-18
-18
-18
-17
-17
-17
-17
-17
-17
-17
-18
-18
-18
-18
-18
-18
-18
-18
-18
-18
-18
-18
-18
-18
-18
-18
-18
-18
-18
-18
-18
-18
-18
-18
-18
-18
-17
-17
-17
-17
-17
-18
-18
-18
-18
-17
-17
-17
-17
-17
-17
-17
-17
-17
-17
-17
-17
-17
-17
-17
-17
-17
-18
-18
-18
-18
-18
-18
-18
-19
-20
-20
-20
-21
-21
-21
-21
-21
-21
-22
-23
-23
-23
-23
-23
-24
-24
-24
-24
-24
-25
-25
-25
-26
-26
-27
-27
-27
-27
-28
-28
-29
-29
-30
-31
-31
-32
-32
-33
-33
-34
-34
-35
-35
-36
-36
-37
-37
-37
-38
-38
-38
-38
-38
-39
-39
-39
-39
-39
-39
-39
-39
-39
-39
-39
-39
-38
-38
-38
-38
-37
-37
-37
-36
-36
-36
-36
-36
-35
-35
-34
-35
-34
-33
-33
-32
-33
-33
-32
-31
-30
-30
-29
-29
-29
-28
-27
-26
-26
-26
-24
-24
-23
-22
-21
-21
-19
-19
-18
-18
-16
-16
-15
-15
-14
-14
-13
-13
-13
-12
-12
-12
-11
-11
-11
-11
-10
-10
-10
-11
-11
-11
-11
-10
-10
-10
-10
-10
-10
-10
-9
-9
-9
-9
-9
-9
-9
-8
-8
-8
-8
-7
-7
-7
-7
-6
-5
-4
-4
-3
-2
-1
0
2
2
3
4
6
6
7
7
7
8
7
6
5
4
1
0
-4
-8
-12
-16
-22
-28
-35
-41
-49
-58
-66
-75
-85
-95
-105
-116
-126
-137
-148
-159
-169
-179
-189
-199
-208
-217
-223
-230
-235
-240
-243
-244
-245
-244
-242
-239
-235
-229
-223
-215
-206
-197
-187
-176
-165
-153
-142
-130
-119
-107
-96
-85
-75
-66
-57
-48
-41
-34
-28
-22
-18
-13
-10
-8
-6
-5
-4
-3
-3
-4
-4
-6
-7
-8
-9
-11
-12
-14
-15
-16
-17
-18
-19
-20
-21
-21
-22
-23
-23
-23
-24
-23
-24
-23
-23
-23
-23
-22
-22
-22
-22
-22
-22
-21
-21
-21
-21
-21
-21
-21
-20
-20
-20
-20
-20
-20
-21
-20
-20
-20
-20
-20
-20
-21
-21
-21
-21
-21
-22
-22
-22
-22
-22
-22
-22
-22
-22
-22
-22
-22
-23
-23
-23
-23
-23
-22
-22
-22
-22
-23
-23
-23
-23
-23
-23
-23
-23
-24
-24
-24
-24
-24
-25
-25
-25
-25
-25
-25
-25
-25
-25
-25
-26
-26
-26
-26
-26
-26
-27
-27
-27
-27
-27
-27
-28
-28
-28
-28
-28
-28
-29
-29
-29
-29
-29
-29
-29
-30
-30
-31
-31
-31
-31
-32
-32
-32
-32
-32
-33
-33
-33
-33
-33
-33
-34
-34
-34
-34
-34
-34
-34
-35
-36
-36
-36
-36
-36
-36
-36
-36
-36
-37
-37
-38
-38
-38
-38
-38
-39
-39
-39
-39
-39
-40
-40
-40
-40
-41
-41
-41
-42
-42
-42
-42
-43
-43
-43
-43
-43
-44
-45
-45
-45
-46
-46
-46
-47
-47
-47
-47
-47
-48
-48
-48
-48
-48
-49
-49
-49
-50
-50
-51
-51
-51
-52
-53
-53
-53
-54
-55
-55
-56
-56
-56
-57
-58
-58
-59
-59
-60
-60
-61
-62
-62
-62
-62
-63
-64
-64
-64
-64
-65
-65
-66
-66
-67
-67
-68
-69
-69
-69
-71
-71
-72
-72
-73
-74
-75
-75
-77
-77
-78
-78
-79
-81
-81
-82
-82
-84
-84
-85
-85
-87
-87
-87
-88
-89
-90
-90
-90
-92
-92
-92
-94
-94
-95
-96
-96
-97
-98
-98
-99
-100
-100
-101
-102
-103
-103
-104
-105
-105
-105
-106
-107
-107
-108
-108
-108
-109
-109
-110
-110
-111
-111
-111
-111
-111
-111
-111
-111
-110
-110
-110
-110
-110
-110
-109
-109
-108
-108
-107
-107
-106
-105
-105
-103
-103
-101
-101
-99
-99
-97
-97
-95
-93
-93
-91
-90
-88
-86
-85
-83
-82
-80
-79
-77
-75
-74
-71
-70
-68
-67
-65
-63
-62
-60
-59
-56
-55
-54
-52
-51
-50
-48
-47
-46
-44
-43
-42
-40
-39
-38
-38
-36
-35
-35
-34
-32
-32
-31
-31
-30
-28
-28
-27
-27
-26
-26
-25
-25
-24
-23
-23
-23
-22
-22
-21
-21
-20
-20
-19
-19
-18
-18
-18
-17
-17
-17
-17
-16
-16
-16
-16
-16
-16
-16
-15
-15
-15
-15
-15
-15
-15
-14
-14
-14
-13
-13
-13
-13
-13
-13
-13
-13
-13
-13
-12
-12
-12
-12
-13
-13
-13
-13
-13
-13
-13
-13
-13
-13
-13
-13
-13
-13
-12
-12
-12
-12
-12
-12
-12
-12
-12
-12
-12
-12
-12
-11
-11
-11
-11
-11
-11
-11
-11
-11
-11
-11
-11
-11
-11
-11
-11
-11
-12
-12
-12
-12
-12
-12
-12
-12
-12
-12
-12
-12
-12
-12
-12
-12
-12
-12
-12
-12
-12
-12
-12
-12
-12
-12
-12
-12
-12
-12
-12
-12
-12
-12
-12
-12
-12
-12
-12
-12
-12
-12
-11
-11
-11
-11
-11
-11
-11
-11
-11
-11
-11
-11
-11
-11
-11
-11
-11
-11
-11
-11
-11
-11
-11
-10
