# Simple Text Format
# Sampling Rate (Hz):= 1200.00
# Resolution:= 12
# Labels:= ECG	 V1
# Age:=	52
# Gender:=	Feminino
-125
-125
-125
-125
-125
-125
-125
-125
-125
-125
-125
-125
-125
-125
-125
-125
-125
-125
-125
-125
-125
-125
-125
-125
-125
-125
-125
-125
-125
-125
-125
-125
-125
-125
-125
-125
-124
-125
-125
-125
-125
-124
-125
-125
-125
-124
-125
-125
-125
-125
-125
-126
-126
-126
-126
-127
-128
-128
-128
-129
-130
-130
-131
-132
-133
-133
-134
-135
-135
-136
-137
-138
-139
-140
-141
-143
-143
-144
-145
-146
-146
-148
-149
-149
-150
-150
-151
-152
-152
-153
-153
-154
-154
-154
-156
-156
-156
-156
-157
-158
-159
-159
-159
-160
-160
-161
-160
-161
-161
-162
-163
-162
-163
-163
-163
-164
-163
-164
-163
-164
-164
-165
-165
-165
-165
-165
-165
-165
-166
-166
-165
-166
-166
-167
-167
-167
-167
-167
-168
-168
-168
-167
-168
-168
-168
-168
-169
-168
-168
-168
-168
-169
-168
-168
-168
-168
-168
-168
-168
-168
-168
-167
-168
-168
-168
-168
-169
-169
-169
-170
-170
-170
-170
-170
-170
-170
-171
-171
-171
-171
-171
-171
-171
-171
-172
-172
-172
-172
-172
-172
-172
-172
-171
-171
-171
-171
-171
-172
-172
-172
-172
-172
-172
-172
-172
-172
-172
-173
-173
-173
-173
-172
-172
-172
-172
-172
-172
-172
-172
-172
-172
-172
-172
-172
-172
-172
-172
-173
-173
-173
-173
-173
-173
-173
-172
-172
-172
-173
-172
-172
-172
-171
-172
-171
-171
-171
-170
-170
-169
-170
-170
-169
-169
-168
-168
-167
-167
-168
-167
-167
-166
-166
-166
-165
-166
-165
-165
-165
-165
-165
-165
-165
-165
-165
-165
-165
-165
-165
-165
-165
-166
-166
-166
-167
-168
-168
-168
-169
-170
-170
-170
-171
-172
-173
-174
-175
-176
-176
-177
-178
-179
-179
-180
-180
-181
-182
-182
-183
-183
-184
-184
-184
-185
-185
-185
-186
-186
-186
-186
-186
-186
-187
-186
-187
-186
-187
-187
-187
-187
-187
-187
-187
-188
-187
-187
-187
-187
-187
-187
-186
-186
-186
-185
-185
-184
-184
-184
-183
-183
-182
-182
-181
-181
-181
-180
-180
-180
-179
-179
-179
-179
-178
-178
-177
-178
-178
-177
-177
-177
-177
-177
-177
-177
-177
-177
-177
-177
-176
-176
-177
-176
-176
-176
-176
-176
-176
-176
-175
-175
-175
-175
-176
-175
-175
-175
-175
-175
-175
-174
-174
-174
-174
-174
-174
-174
-174
-174
-174
-173
-173
-173
-173
-173
-173
-172
-172
-172
-172
-172
-172
-172
-172
-172
-172
-173
-173
-173
-173
-173
-173
-173
-173
-173
-173
-172
-172
-173
-173
-172
-172
-171
-170
-170
-168
-167
-165
-163
-161
-160
-158
-156
-155
-152
-150
-147
-145
-143
-141
-139
-138
-136
-135
-134
-134
-134
-134
-135
-136
-138
-140
-143
-147
-151
-156
-162
-168
-175
-183
-190
-199
-208
-217
-226
-235
-245
-255
-263
-272
-281
-289
-297
-304
-311
-317
-322
-326
-330
-332
-335
-336
-337
-337
-337
-336
-334
-331
-329
-326
-322
-317
-313
-308
-303
-298
-292
-287
-281
-275
-269
-263
-257
-251
-245
-239
-233
-227
-222
-216
-212
-207
-203
-199
-195
-191
-188
-185
-182
-179
-177
-175
-174
-172
-170
-169
-168
-167
-166
-165
-164
-164
-163
-163
-162
-162
-162
-161
-161
-161
-160
-160
-160
-159
-159
-159
-158
-158
-158
-158
-158
-157
-157
-158
-158
-158
-158
-158
-158
-158
-158
-158
-156
-156
-156
-156
-156
-156
-156
-156
-156
-156
-156
-156
-156
-156
-155
-155
-155
-155
-155
-155
-156
-156
-155
-155
-156
-156
-156
-156
-156
-156
-156
-156
-156
-156
-157
-157
-157
-157
-156
-156
-156
-156
-157
-157
-157
-157
-157
-156
-156
-156
-156
-156
-156
-156
-156
-156
-155
-155
-155
-155
-155
-155
-155
-155
-155
-156
-156
-156
-156
-156
-155
-155
-155
-155
-156
-156
-156
-156
-156
-156
-155
-155
-155
-155
-155
-155
-155
-155
-155
-155
-155
-155
-155
-156
-156
-156
-156
-156
-155
-155
-155
-156
-156
-156
-156
-156
-156
-156
-156
-157
-157
-156
-156
-156
-156
-156
-156
-156
-156
-156
-156
-156
-156
-156
-156
-156
-156
-156
-156
-156
-156
-156
-156
-156
-156
-156
-156
-156
-156
-156
-156
-157
-157
-157
-157
-158
-157
-157
-157
-158
-158
-157
-157
-157
-158
-158
-158
-158
-157
-158
-158
-158
-158
-158
-158
-159
-159
-159
-159
-159
-159
-159
-159
-159
-159
-159
-159
-159
-159
-159
-159
-159
-159
-159
-159
-159
-160
-160
-160
-159
-159
-159
-159
-159
-160
-160
-159
-159
-159
-159
-159
-159
-159
-159
-159
-159
-159
-159
-159
-160
-159
-159
-159
-160
-160
-160
-161
-161
-160
-162
-161
-161
-162
-162
-163
-162
-162
-163
-162
-162
-163
-163
-163
-163
-163
-164
-163
-164
-164
-163
-164
-164
-164
-164
-164
-164
-164
-165
-164
-165
-164
-165
-165
-165
-165
-165
-166
-165
-166
-166
-166
-166
-167
-167
-167
-167
-167
-167
-168
-168
-168
-168
-168
-169
-169
-169
-169
-169
-169
-169
-169
-169
-169
-170
-170
-170
-170
-170
-170
-171
-171
-171
-171
-172
-172
-171
-171
-172
-172
-172
-172
-173
-173
-173
-174
-174
-174
-174
-175
-176
-176
-176
-176
-176
-177
-177
-177
-178
-178
-178
-178
-178
-178
-178
-178
-179
-178
-178
-178
-178
-178
-177
-177
-178
-177
-177
-176
-177
-176
-176
-176
-176
-175
-176
-175
-174
-175
-174
-175
-174
-174
-174
-174
-174
-173
-174
-173
-174
-174
-173
-173
-173
-173
-173
-173
-173
-172
-172
-172
-171
-172
-171
-171
-171
-170
-171
-171
-170
-170
-170
-170
-169
-169
-170
-169
-169
-169
-169
-169
-169
-169
-169
-169
-168
-168
-168
-168
-168
-167
-167
-166
-166
-165
-165
-165
-164
-165
-164
-164
-164
-163
-163
-163
-162
-163
-163
-163
-163
-162
-163
-163
-163
-163
-163
-163
-163
-163
-163
-163
-164
-163
-163
-163
-163
-163
-163
-163
-163
-163
-163
-163
-162
-162
-163
-163
-163
-163
-163
-163
-163
-163
-163
-163
-163
-162
-162
-162
-162
-162
-162
-162
-162
-162
-162
-162
-162
-162
-162
-162
-162
-162
-162
-161
-161
-161
-161
-162
-162
-162
-162
-162
-162
-162
-162
-162
-161
-161
-161
-161
-162
-162
-161
-161
-161
-161
-162
-162
-162
-162
-162
-162
-162
-162
-162
-162
-161
-161
-162
-162
-162
-162
-162
-162
-162
-162
-162
-162
-162
-162
-162
-163
-163
-162
-162
-163
-163
-163
-163
-163
-163
-163
-163
-163
-163
-164
-164
-164
-164
-164
-164
-163
-163
-163
-163
-163
-163
-163
-163
-163
-163
-163
-164
-163
-163
-163
-163
-163
-163
-163
-162
-162
-162
-162
-162
-162
-162
-162
-162
-163
-163
-163
-163
-163
-164
-165
-165
-165
-165
-165
-165
-166
-166
-165
-165
-165
-166
-166
-166
-166
-166
-166
-166
-165
-165
-165
-165
-166
-166
-166
-166
-165
-165
-165
-165
-165
-165
-165
-165
-166
-166
-165
-165
-165
-165
-165
-165
-165
-165
-165
-165
-165
-165
-165
-165
-165
-164
-164
-164
-164
-164
-164
-164
-164
-165
-164
-164
-164
-164
-164
-164
-164
-164
-165
-165
-165
-165
-165
-165
-165
-165
-165
-165
-165
-165
-165
-165
-165
-165
-164
-164
-164
-164
-164
-164
-164
-164
-164
-164
-163
-163
-163
-164
-163
-163
-162
-162
-162
-161
-161
-162
-161
-160
-160
-160
-159
-158
-158
-159
-158
-158
-158
-157
-157
-157
-156
-156
-156
-156
-156
-156
-156
-157
-157
-157
-157
-158
-157
-158
-158
-159
-159
-159
-160
-161
-161
-161
-162
-162
-163
-164
-165
-165
-165
-166
-167
-167
-168
-169
-170
-170
-170
-171
-172
-172
-173
-174
-175
-175
-176
-176
-177
-178
-178
-179
-179
-179
-180
-180
-180
-180
-180
-181
-180
-181
-180
-180
-180
-181
-180
-180
-181
-180
-180
-179
-179
-179
-179
-178
-178
-178
-177
-177
-177
-176
-176
-175
-175
-175
-175
-174
-174
-173
-173
-172
-171
-172
-171
-171
-170
-170
-170
-169
-169
-169
-168
-169
-168
-168
-168
-168
-167
-168
-168
-167
-167
-167
-167
-167
-167
-167
-167
-168
-167
-167
-167
-168
-167
-167
-167
-168
-167
-167
-167
-167
-167
-167
-167
-167
-167
-167
-167
-166
-166
-166
-166
-166
-165
-165
-165
-165
-166
-165
-165
-165
-165
-165
-165
-165
-165
-164
-164
-164
-164
-164
-164
-164
-164
-164
-164
-164
-164
-164
-164
-164
-163
-164
-164
-164
-164
-163
-163
-162
-161
-160
-158
-158
-156
-154
-152
-150
-148
-146
-144
-142
-139
-137
-134
-132
-131
-130
-128
-126
-125
-125
-125
-124
-126
-127
-128
-131
-132
-136
-140
-144
-149
-155
-162
-169
-177
-185
-193
-202
-211
-221
-230
-239
-249
-257
-266
-274
-283
-290
-297
-303
-309
-313
-316
-319
-322
-323
-324
-325
-324
-323
-322
-320
-317
-315
-311
-307
-303
-298
-293
-288
-283
-277
-271
-265
-259
-253
-247
-241
-234
-228
-222
-217
-212
-207
-201
-196
-191
-188
-184
-181
-177
-175
-172
-169
-168
-166
-164
-162
-161
-160
-159
-158
-157
-156
-156
-155
-155
-153
-153
-153
-153
-152
-152
-152
-151
-151
-151
-151
-150
-150
-150
-150
-150
-150
-150
-150
-150
-150
-150
-150
-150
-150
-150
-150
-151
-151
-151
-151
-151
-151
-151
-151
-150
-150
-150
-150
-150
-150
-150
-150
-150
-150
-150
-150
-150
-150
-150
-150
-149
-149
-150
-150
-150
-150
-150
-149
-149
-149
-149
-150
-150
-150
-150
-150
-150
-150
-150
-150
-150
-150
-150
-150
-150
-150
-150
-150
-150
-150
-150
-149
-149
-149
-149
-149
-149
-149
-149
-149
-149
-149
-149
-149
-149
-149
-148
-148
-149
-149
-149
-149
-149
-148
-148
-148
-148
-148
-148
-148
-148
-148
-148
-148
-148
-148
-149
-149
-149
-149
-149
-149
-149
-149
-149
-149
-149
-149
-149
-150
-150
-150
-150
-150
-150
-150
-150
-150
-151
-151
-150
-150
-150
-150
-150
-150
-151
-151
-151
-150
-150
-150
-150
-150
-150
-150
-150
-150
-150
-150
-150
-150
-150
-151
-150
-151
-151
-151
-151
-151
-151
-152
-152
-152
-152
-152
-152
-152
-152
-153
-154
-153
-153
-153
-153
-153
-154
-154
-154
-154
-154
-153
-154
-154
-154
-154
-154
-153
-153
-154
-154
-154
-154
-153
-153
-153
-153
-154
-154
-154
-154
-154
-154
-153
-153
-154
-154
-154
-154
-154
-153
-153
-154
-154
-154
-154
-154
-154
-153
-154
-154
-154
-154
-154
-154
-155
-155
-155
-155
-155
-156
-156
-156
-156
-155
-157
-157
-156
-157
-157
-157
-158
-158
-157
-158
-158
-159
-158
-158
-159
-158
-159
-159
-158
-159
-159
-160
-159
-159
-160
-160
-160
-160
-160
-160
-161
-161
-161
-162
-162
-161
-162
-162
-163
-163
-163
-163
-163
-164
-164
-164
-165
-164
-165
-165
-165
-166
-166
-166
-166
-166
-166
-167
-167
-167
-167
-167
-167
-167
-167
-168
-167
-167
-167
-168
-168
-167
-168
-168
-168
-169
-169
-168
-169
-169
-169
-169
-169
-169
-170
-170
-170
-171
-171
-171
-171
-171
-172
-172
-172
-172
-172
-172
-173
-173
-173
-172
-173
-173
-173
-173
-172
-173
-173
-173
-172
-172
-173
-172
-172
-172
-172
-172
-172
-171
-172
-171
-172
-171
-171
-170
-171
-170
-171
-170
-171
-170
-171
-170
-171
-170
-170
-170
-170
-170
-170
-170
-169
-170
-169
-169
-169
-169
-168
-168
-168
-167
-168
-167
-167
-167
-167
-167
-167
-166
-166
-165
-166
-165
-165
-165
-165
-164
-164
-165
-164
-164
-164
-164
-164
-165
-165
-164
-164
-164
-165
-164
-164
-164
-165
-165
-164
-164
-164
-164
-164
-164
-164
-165
-164
-164
-164
-164
-164
-164
-164
-165
-165
-165
-165
-165
-165
-164
-164
-164
-165
-165
-165
-165
-164
-164
-164
-164
-164
-164
-164
-163
-163
-163
-163
-163
-163
-163
-163
-163
-163
-163
-163
-163
-163
-162
-162
-162
-162
-162
-162
-162
-162
-162
-162
-162
-162
-161
-161
-161
-161
-160
-160
-160
-160
-160
-160
-160
-159
-159
-159
-159
-159
-159
-159
-159
-159
-159
-159
-159
-159
-159
-160
-160
-160
-160
-160
-161
-161
-161
-162
-161
-161
-162
-162
-162
-162
-162
-162
-162
-162
-162
-162
-162
-162
-161
-161
-161
-161
-161
-161
-160
-160
-160
-160
-160
-159
-159
-159
-159
-159
-159
-159
-159
-159
-159
-159
-160
-160
-160
-160
-160
-160
-160
-160
-162
-162
-162
-162
-162
-162
-162
-161
-161
-162
-162
-162
-162
-162
-162
-163
-163
-163
-163
-163
-163
-163
-164
-165
-165
-165
-165
-165
-165
-166
-166
-166
-166
-165
-165
-165
-165
-166
-166
-166
-166
-166
-166
-166
-166
-166
-167
-167
-167
-167
-167
-167
-167
-167
-167
-166
-166
-166
-166
-166
-166
-166
-166
-166
-166
-166
-166
-166
-166
-166
-166
-166
-166
-166
-166
-166
-166
-165
-166
-166
-166
-166
-166
-166
-166
-166
-166
-167
-167
-167
-167
-167
-167
-167
-167
-167
-167
-167
-167
-167
-167
-166
-166
-166
-166
-166
-166
-166
-166
-166
-166
-166
-166
-166
-166
-166
-167
-167
-167
-167
-167
-167
-167
-167
-167
-167
-167
-167
-167
-167
-167
-167
-167
-167
-167
-166
-166
-166
-166
-165
-165
-164
-163
-162
-162
-161
-161
-160
-160
-159
-159
-159
-158
-158
-158
-157
-156
-156
-157
-156
-156
-156
-156
-156
-156
-156
-156
-157
-157
-157
-157
-157
-158
-158
-159
-159
-159
-160
-161
-161
-162
-162
-163
-163
-163
-164
-165
-165
-166
-167
-167
-167
-168
-169
-169
-170
-171
-171
-172
-172
-172
-172
-173
-174
-174
-175
-174
-175
-175
-176
-176
-176
-177
-177
-178
-178
-178
-178
-179
-178
-179
-179
-179
-179
-180
-180
-180
-180
-181
-180
-180
-180
-180
-179
-179
-179
-179
-179
-178
-177
-177
-176
-176
-175
-175
-175
-174
-174
-173
-172
-172
-171
-172
-171
-170
-170
-169
-170
-169
-168
-169
-168
-168
-168
-167
-166
-167
-166
-166
-166
-166
-166
-166
-166
-166
-165
-165
-166
-166
-165
-165
-166
-166
-166
-165
-165
-165
-165
-165
-164
-164
-164
-164
-164
-164
-164
-163
-163
-163
-163
-163
-164
-164
-164
-164
-164
-164
-164
-164
-164
-164
-164
-164
-164
-163
-164
-164
-164
-164
-164
-164
-164
-164
-164
-164
-164
-164
-163
-163
-163
-163
-163
-163
-162
-162
-162
-161
-160
-160
-159
-157
-157
-155
-153
-152
-151
-149
-147
-144
-144
-142
-139
-137
-135
-133
-131
-130
-129
-128
-127
-127
-127
-128
-129
-130
-132
-135
-137
-141
-145
-151
-157
-164
-171
-179
-187
-195
-204
-213
-222
-232
-241
-251
-259
-268
-276
-284
-291
-298
-303
-309
-313
-316
-319
-321
-323
-324
-324
-324
-322
-321
-318
-317
-313
-309
-306
-301
-297
-292
-287
-282
-275
-270
-264
-259
-252
-247
-240
-235
-229
-223
-218
-212
-207
-203
-198
-193
-190
-185
-181
-179
-176
-173
-170
-169
-167
-165
-163
-161
-160
-159
-157
-156
-156
-154
-154
-153
-152
-152
-152
-152
-151
-150
-150
-150
-150
-150
-150
-150
-150
-149
-150
-150
-150
-150
-150
-150
-149
-149
-150
-150
-150
-150
-150
-150
-150
-149
-149
-149
-149
-150
-150
-150
-150
-150
-150
-150
-149
-149
-149
-149
-149
-149
-149
-149
-149
-148
-148
-148
-148
-148
-148
-147
-147
-148
-148
-148
-148
-148
-148
-148
-148
-148
-148
-148
-148
-148
-148
-148
-147
-147
-147
-147
-147
-147
-147
-148
-148
-148
-148
-148
-148
-148
-148
-148
-148
-148
-148
-148
-148
-148
-148
-148
-148
-148
-148
-148
-148
-148
-148
-148
-148
-148
-148
-148
-148
-148
-148
-148
-148
-148
-148
-148
-148
-148
-149
-149
-149
-148
-148
-148
-148
-148
-148
-148
-148
-149
-148
-148
-148
-148
-148
-148
-148
-148
-147
-147
-147
-147
-147
-147
-147
-147
-147
-147
-148
-148
-148
-148
-148
-148
-149
-149
-149
-149
-149
-149
-150
-150
-150
-150
-151
-151
-151
-151
-151
-151
-151
-151
-151
-152
-152
-152
-152
-152
-152
-151
-151
-151
-152
-152
-152
-151
-151
-151
-151
-152
-151
-151
-151
-152
-152
-151
-151
-151
-152
-152
-151
-151
-152
-152
-152
-151
-152
-152
-152
-152
-153
-153
-153
-153
-153
-154
-154
-154
-154
-154
-155
-155
-155
-155
-155
-155
-156
-156
-156
-156
-156
-156
-157
-157
-157
-157
-157
-158
-158
-158
-158
-158
-159
-159
-159
-159
-160
-160
-159
-160
-160
-160
-160
-160
-160
-160
-160
-160
-161
-160
-160
-161
-160
-160
-161
-161
-161
-161
-161
-162
-161
-162
-162
-162
-163
-163
-163
-163
-164
-164
-163
-164
-164
-165
-164
-165
-165
-165
-165
-166
-166
-167
-166
-167
-166
-167
-167
-167
-168
-168
-167
-168
-168
-168
-169
-169
-169
-169
-169
-169
-169
-171
-170
-170
-170
-172
-172
-171
-171
-172
-172
-172
-172
-172
-173
-173
-173
-173
-173
-174
-173
-173
-173
-174
-174
-174
-174
-174
-174
-175
-175
-175
-175
-175
-176
-176
-176
-176
-177
-177
-177
-176
-176
-177
-177
-177
-176
-177
-177
-177
-176
-177
-176
-177
-177
-176
-176
-176
-176
-176
-176
-175
-175
-175
-175
-174
-175
-174
-174
-173
-173
-173
-173
-172
-172
-171
-171
-170
-171
-170
-169
-170
-169
-170
-169
-169
-169
-169
-169
-168
-168
-168
-168
-167
-168
-167
-167
-167
-167
-166
-166
-166
-165
-165
-164
-165
-164
-164
-163
-164
-162
-162
-163
-161
-162
-162
-161
-161
-161
-161
-160
-160
-160
-159
-160
-160
-160
-159
-159
-160
-160
-159
-159
-159
-158
-159
-159
-159
-159
-158
-159
-159
-159
-159
-160
-159
-159
-159
-160
-160
-160
-160
-160
-160
-160
-160
-160
-160
-160
-160
-159
-159
-159
-159
-159
-159
-159
-159
-159
-159
-159
-159
-159
-159
-159
-159
-158
-158
-158
-158
-158
-158
-157
-157
-158
-158
-158
-158
-158
-158
-158
-158
-156
-156
-156
-156
-156
-156
-156
-156
-156
-156
-156
-156
-157
-156
-156
-156
-156
-155
-155
-155
-155
-155
-155
-155
-155
-155
-155
-155
-155
-155
-155
-156
-156
-156
-155
-155
-156
-156
-156
-156
-156
-157
-157
-157
-157
-157
-157
-157
-156
-156
-156
-157
-157
-157
-157
-157
-157
-156
-156
-157
-157
-156
-156
-156
-156
-156
-155
-155
-156
-156
-156
-156
-156
-156
-156
-156
-156
-156
-156
-156
-157
-157
-157
-157
-157
-157
-158
-158
-158
-158
-159
-159
-159
-159
-159
-159
-159
-160
-160
-160
-160
-160
-160
-160
-161
-161
-160
-160
-160
-160
-160
-160
-161
-161
-161
-161
-161
-161
-161
-161
-160
-160
-160
-160
-160
-160
-160
-160
-160
-160
-161
-161
-161
-161
-161
-161
-161
-161
-161
-161
-161
-161
-161
-162
-162
-162
-161
-161
-162
-162
-162
-162
-162
-161
-161
-162
-162
-162
-162
-162
-162
-161
-160
-160
-160
-160
-160
-160
-160
-160
-160
-160
-160
-160
-160
-160
-160
-159
-159
-159
-159
-159
-159
-159
-159
-160
-160
-160
-160
-160
-160
-160
-160
-160
-161
-161
-160
-160
-160
-160
-160
-160
-160
-160
-160
-160
-159
-159
-159
-159
-160
-159
-159
-159
-158
-158
-158
-157
-157
-156
-157
-157
-156
-156
-156
-155
-155
-155
-154
-154
-154
-154
-154
-155
-155
-154
-154
-154
-154
-154
-154
-154
-155
-155
-155
-156
-156
-157
-157
-157
-158
-159
-158
-159
-160
-160
-160
-161
-161
-161
-162
-162
-163
-163
-163
-164
-165
-165
-165
-166
-166
-167
-167
-168
-168
-169
-170
-171
-171
-172
-172
-172
-173
-174
-174
-175
-175
-175
-176
-176
-177
-177
-177
-177
-178
-178
-178
-179
-178
-179
-180
-179
-180
-179
-179
-180
-179
-179
-179
-178
-178
-178
-177
-177
-176
-175
-175
-174
-173
-173
-172
-171
-170
-169
-169
-169
-168
-167
-166
-166
-166
-165
-164
-164
-163
-163
-163
-163
-163
-163
-163
-163
-163
-163
-163
-163
-163
-163
-163
-163
-164
-163
-164
-164
-164
-164
-164
-164
-165
-165
-164
-164
-164
-164
-164
-164
-164
-164
-164
-163
-163
-163
-163
-163
-163
-163
-163
-162
-162
-162
-162
-162
-162
-162
-161
-161
-161
-161
-161
-161
-161
-161
-161
-162
-162
-161
-161
-161
-161
-161
-161
-161
-161
-161
-161
-161
-161
-161
-161
-161
-161
-161
-161
-161
-162
-161
-161
-160
-159
-158
-158
-157
-156
-155
-153
-151
-150
-148
-146
-144
-142
-140
-138
-135
-133
-131
-129
-128
-125
-125
-124
-124
-124
-125
-126
-127
-129
-132
-135
-140
-144
-148
-155
-161
-168
-176
-184
-193
-202
-211
-221
-231
-239
-248
-258
-267
-274
-283
-289
-296
-302
-308
-312
-316
-317
-319
-320
-322
-321
-321
-319
-318
-315
-313
-309
-306
-302
-297
-293
-287
-282
-277
-272
-267
-261
-255
-249
-244
-237
-231
-225
-221
-214
-209
-204
-199
-195
-191
-186
-182
-179
-175
-173
-170
-167
-164
-163
-161
-160
-158
-157
-156
-154
-154
-154
-153
-153
-152
-151
-151
-151
-151
-150
-150
-150
-150
-149
-149
-149
-149
-149
-149
-149
-149
-149
-148
-148
-148
-148
-148
-148
-148
-148
-147
-147
-147
-147
-147
-147
-147
-147
-146
-146
-146
-146
-146
-146
-146
-146
-146
-146
-146
-146
-146
-146
-146
-147
-147
-147
-147
-147
-147
-147
-148
-148
-148
-148
-147
-147
-147
-147
-147
-147
-147
-147
-147
-146
-146
-146
-146
-146
-146
-146
-146
-146
-146
-146
-146
-146
-145
-145
-145
-145
-145
-145
-145
-145
-145
-145
-145
-145
-145
-145
-146
-146
-146
-146
-147
-147
-147
-147
-147
-147
-147
-147
-147
-147
-147
-147
-147
-146
-146
-146
-146
-147
-147
-147
-146
-146
-146
-146
-146
-146
-146
-147
-147
-147
-146
-146
-146
-146
-146
-146
-146
-147
-147
-147
-147
-147
-147
-146
-146
-146
-147
-147
-147
-148
-147
-147
-147
-147
-147
-147
-148
-148
-148
-148
-148
-148
-148
-148
-148
-148
-148
-148
-147
-147
-147
-148
-148
-148
-148
-148
-148
-148
-148
-148
-147
-147
-147
-148
-148
-148
-148
-148
-149
-148
-148
-148
-149
-149
-149
-149
-148
-149
-149
-149
-149
-148
-148
-149
-149
-149
-148
-148
-148
-148
-148
-149
-149
-149
-149
-148
-148
-148
-149
-149
-149
-149
-150
-150
-150
-151
-151
-150
-151
-151
-152
-151
-151
-152
-152
-152
-153
-153
-152
-154
-153
-154
-154
-154
-154
-154
-155
-154
-155
-156
-155
-155
-156
-156
-156
-156
-156
-157
-157
-158
-157
-158
-158
-158
-158
-159
-158
-159
-159
-159
-159
-159
-160
-159
-160
-160
-160
-161
-160
-160
-161
-161
-161
-161
-161
-161
-162
-162
-162
-163
-163
-163
-163
-164
-164
-164
-164
-165
-165
-165
-166
-166
-166
-167
-166
-167
-167
-168
-167
-167
-168
-167
-168
-168
-168
-168
-169
-169
-169
-169
-170
-170
-170
-170
-170
-170
-171
-171
-171
-171
-171
-172
-172
-172
-172
-172
-172
-172
-172
-172
-172
-173
-173
-173
-173
-173
-173
-174
-174
-174
-174
-174
-175
-174
-174
-174
-174
-174
-174
-174
-173
-173
-172
-173
-172
-172
-172
-172
-171
-172
-171
-171
-171
-171
-171
-171
-171
-171
-171
-171
-170
-171
-171
-170
-170
-171
-170
-171
-170
-170
-170
-170
-169
-169
-169
-168
-168
-168
-167
-167
-166
-166
-165
-165
-164
-164
-164
-163
-163
-163
-162
-162
-162
-162
-161
-162
-162
-161
-161
-161
-161
-161
-161
-162
-161
-161
-161
-161
-161
-161
-161
-161
-161
-160
-160
-161
-161
-160
-160
-160
-161
-160
-160
-160
-160
-159
-159
-159
-159
-158
-158
-159
-158
-158
-158
-158
-157
-157
-157
-157
-157
-157
-157
-156
-156
-156
-156
-156
-156
-156
-156
-156
-156
-156
-156
-156
-157
-157
-157
-157
-156
-157
-157
-157
-157
-158
-157
-157
-157
-157
-157
-157
-157
-157
-157
-157
-157
-157
-157
-156
-156
-156
-156
-157
-157
-157
-156
-155
-155
-155
-155
-155
-155
-155
-155
-154
-154
-154
-154
-154
-154
-153
-153
-153
-153
-154
-154
-155
-155
-155
-155
-155
-155
-155
-155
-155
-156
-156
-156
-156
-156
-157
-157
-156
-157
-157
-157
-157
-157
-157
-157
-157
-158
-158
-158
-158
-158
-158
-158
-157
-157
-157
-157
-157
-157
-157
-157
-157
-157
-156
-156
-156
-156
-156
-156
-156
-156
-156
-156
-156
-156
-156
-156
-156
-156
-156
-156
-156
-156
-157
-158
-158
-158
-158
-158
-158
-158
-157
-157
-157
-158
-158
-158
-158
-158
-159
-158
-158
-158
-158
-158
-158
-158
-159
-159
-159
-159
-159
-159
-159
-159
-159
-158
-159
-159
-159
-159
-159
-159
-159
-160
-159
-159
-159
-159
-159
-159
-160
-160
-160
-160
-160
-160
-160
-160
-161
-160
-160
-160
-160
-160
-160
-160
-159
-160
-160
-160
-160
-160
-160
-159
-159
-160
-160
-160
-160
-159
-159
-159
-159
-160
-159
-159
-159
-159
-159
-158
-159
-159
-159
-159
-159
-160
-159
-160
-159
-159
-159
-159
-159
-160
-160
-160
-160
-160
-160
-160
-160
-161
-161
-161
-161
-160
-160
-160
-161
-161
-161
-160
-160
-160
-160
-159
-159
-159
-159
-159
-159
-159
-159
-159
-159
-159
-159
-159
-159
-159
-160
-159
-159
-159
-159
-159
-160
-161
-161
-160
-160
-160
-160
-160
-160
-160
-160
-160
-160
-160
-160
-160
-160
-160
-160
-160
-160
-160
-160
-161
-160
-160
-160
-160
-160
-160
-161
-161
-161
-161
-161
-161
-160
-160
-160
-159
-159
-159
-159
-158
-158
-158
-157
-157
-156
-156
-155
-155
-154
-153
-153
-152
-152
-151
-151
-150
-150
-150
-150
-149
-149
-149
-149
-150
-150
-150
-151
-152
-153
-153
-154
-155
-156
-157
-158
-158
-159
-160
-161
-162
-163
-163
-164
-164
-165
-165
-166
-166
-167
-168
-167
-168
-169
-169
-170
-169
-170
-171
-171
-172
-172
-173
-173
-173
-174
-174
-174
-175
-175
-176
-176
-176
-176
-177
-177
-177
-178
-177
-178
-177
-178
-178
-177
-178
-178
-178
-178
-177
-177
-177
-176
-175
-174
-174
-173
-173
-172
-172
-171
-170
-169
-169
-168
-167
-167
-166
-165
-165
-164
-164
-163
-163
-163
-162
-162
-162
-162
-162
-162
-162
-161
-162
-162
-161
-161
-162
-162
-162
-162
-162
-163
-163
-163
-161
-161
-161
-162
-162
-162
-162
-162
-161
-161
-162
-162
-162
-162
-162
-162
-161
-162
-162
-162
-162
-161
-161
-161
-161
-161
-161
-161
-161
-160
-160
-160
-161
-161
-161
-161
-161
-160
-160
-160
-160
-160
-160
-160
-160
-161
-161
-160
-160
-161
-161
-161
-161
-161
-161
-161
-161
-161
-161
-160
-160
-159
-160
-159
-157
-156
-155
-153
-151
-149
-148
-145
-143
-141
-138
-135
-134
-131
-128
-126
-124
-122
-121
-119
-119
-118
-118
-119
-120
-122
-124
-127
-131
-134
-139
-145
-150
-157
-163
-171
-179
-187
-196
-205
-214
-222
-231
-239
-246
-254
-261
-268
-274
-278
-283
-287
-290
-293
-294
-296
-296
-297
-295
-294
-293
-291
-289
-286
-283
-280
-276
-272
-268
-263
-259
-255
-250
-244
-239
-235
-229
-224
-219
-214
-209
-205
-200
-196
-192
-188
-185
-181
-178
-175
-172
-170
-167
-167
-165
-164
-162
-160
-160
-159
-157
-157
-155
-155
-155
-154
-154
-154
-153
-153
-152
-152
-152
-152
-152
-152
-152
-152
-152
-151
-151
-152
-152
-151
-151
-151
-150
-151
-151
-150
-150
-150
-149
-149
-149
-149
-148
-149
-149
-149
-149
-148
-148
-148
-148
-149
-149
-149
-149
-149
-149
-149
-149
-150
-150
-150
-150
-150
-149
-150
-150
-150
-149
-149
-149
-149
-150
-149
-149
-149
-149
-148
-148
-148
-148
-147
-147
-147
-147
-147
-147
-147
-146
-146
-146
-147
-147
-147
-146
-146
-147
-147
-147
-147
-147
-148
-147
-147
-147
-147
-147
-147
-147
-147
-147
-147
-147
-148
-148
-148
-148
-148
-148
-148
-148
-148
-148
-148
-148
-149
-149
-150
-150
-150
-150
-150
-150
-150
-149
-149
-150
-150
-150
-150
-150
-150
-150
-150
-150
-150
-150
-150
-151
-151
-151
-151
-150
-150
-150
-150
-150
-150
-151
-151
-151
-151
-151
-151
-151
-151
-151
-151
-151
-151
-151
-152
-152
-152
-152
-152
-152
-151
-151
-151
-151
-151
-151
-151
-151
-151
-150
-151
-151
-151
-151
-151
-151
-151
-150
-151
-151
-151
-151
-151
-152
-152
-152
-152
-152
-153
-153
-153
-153
-153
-154
-153
-153
-153
-153
-153
-154
-154
-154
-153
-153
-154
-154
-154
-153
-153
-154
-154
-154
-154
-153
-154
-154
-154
-154
-154
-155
-155
-155
-155
-156
-156
-156
-156
-157
-157
-157
-157
-157
-157
-157
-157
-157
-157
-157
-157
-157
-157
-157
-156
-156
-156
-156
-157
-157
-157
-157
-156
-156
-157
-157
-158
-157
-157
-158
-158
-158
-158
-159
-158
-159
-159
-160
-160
-160
-161
-161
-162
-161
-161
-162
-162
-163
-163
-164
-164
-164
-164
-164
-164
-164
-165
-165
-165
-166
-166
-166
-167
-167
-166
-167
-167
-167
-168
-168
-169
-169
-170
-169
-169
-170
-171
-171
-171
-171
-172
-172
-172
-172
-172
-173
-173
-173
-173
-173
-174
-174
-174
-174
-173
-173
-173
-173
-173
-174
-174
-173
-173
-173
-174
-174
-174
-174
-174
-174
-175
-175
-175
-176
-176
-176
-176
-176
-176
-177
-177
-177
-177
-177
-177
-177
-178
-178
-177
-177
-177
-176
-176
-175
-175
-176
-174
-175
-174
-174
-173
-173
-172
-172
-171
-171
-171
-171
-170
-170
-170
-170
-170
-169
-170
-169
-169
-168
-169
-169
-169
-169
-168
-169
-168
-168
-168
-168
-168
-168
-168
-167
-168
-168
-167
-167
-167
-167
-166
-167
-166
-166
-166
-166
-165
-165
-165
-165
-165
-165
-165
-165
-166
-166
-165
-166
-166
-166
-165
-165
-165
-165
-165
-165
-165
-165
-165
-165
-165
-163
-163
-163
-163
-163
-163
-164
-164
-163
-163
-163
-163
-163
-162
-162
-162
-162
-163
-162
-162
-161
-162
-162
-162
-162
-162
-161
-161
-161
-161
-161
-161
-161
-161
-162
-162
-162
-162
-162
-162
-163
-163
-163
-163
-163
-163
-163
-163
-163
-163
-163
-163
-163
-163
-163
-164
-164
-164
-164
-163
-163
-163
-163
-163
-163
-164
-163
-163
-163
-163
-164
-164
-163
-163
-163
-164
-164
-164
-164
-164
-164
-164
-164
-164
-164
-164
-164
-164
-164
-164
-164
-164
-164
-164
-164
-164
-164
-164
-164
-164
-164
-164
-163
-163
-163
-163
-163
-163
-163
-163
-163
-163
-162
-162
-162
-162
-162
-162
-162
-162
-162
-162
-162
-162
-162
-162
-162
-162
-162
-162
-162
-162
-162
-162
-162
-162
-162
-162
-162
-162
-162
-163
-163
-163
-163
-163
-163
-163
-163
-163
-163
-163
-163
-163
-163
-163
-163
-163
-162
-162
-163
-163
-163
-163
-163
-163
-164
-164
-164
-165
-165
-165
-164
-164
-164
-164
-164
-164
-164
-164
-163
-163
-163
-163
-163
-163
-163
-163
-163
-163
-163
-163
-163
-163
-163
-163
-163
-164
-164
-164
-164
-164
-164
-164
-164
-165
-165
-165
-165
-165
-165
-165
-165
-165
-166
-166
-166
-166
-165
-165
-165
-165
-165
-163
-164
-163
-163
-163
-162
-162
-162
-162
-162
-163
-162
-162
-162
-162
-162
-162
-163
-162
-162
-162
-162
-162
-162
-162
-163
-163
-163
-163
-163
-163
-163
-163
-163
-163
-163
-163
-163
-163
-163
-163
-163
-163
-163
-163
-163
-163
-163
-163
-163
-164
-164
-164
-164
-163
-163
-164
-164
-164
-164
-164
-164
-164
-163
-163
-164
-164
-163
-163
-163
-162
-162
-162
-161
-161
-160
-160
-159
-159
-158
-158
-157
-157
-156
-156
-156
-155
-155
-154
-154
-154
-154
-153
-153
-153
-153
-154
-153
-154
-154
-154
-155
-155
-155
-156
-156
-157
-157
-157
-158
-159
-160
-159
-160
-161
-161
-162
-163
-163
-164
-164
-165
-166
-167
-167
-168
-169
-170
-170
-171
-171
-172
-173
-173
-174
-175
-175
-176
-176
-177
-177
-177
-178
-178
-179
-179
-179
-180
-179
-179
-180
-179
-180
-179
-180
-179
-179
-179
-179
-178
-178
-177
-177
-176
-176
-175
-174
-174
-173
-172
-172
-171
-171
-170
-169
-168
-167
-167
-166
-166
-165
-165
-165
-164
-164
-163
-163
-163
-164
-163
-163
-164
-163
-163
-164
-163
-164
-163
-164
-164
-164
-164
-164
-165
-165
-165
-165
-165
-165
-165
-165
-165
-165
-165
-165
-165
-165
-165
-164
-164
-164
-164
-165
-164
-164
-164
-164
-164
-164
-164
-164
-164
-164
-163
-163
-163
-163
-163
-164
-164
-164
-163
-163
-163
-162
-162
-162
-162
-161
-162
-162
-161
-161
-161
-160
-160
-160
-160
-159
-159
-159
-159
-159
-158
-158
-159
-158
-157
-156
-155
-155
-153
-151
-150
-149
-147
-145
-144
-141
-139
-136
-135
-133
-131
-129
-127
-126
-124
-123
-123
-123
-124
-124
-126
-127
-130
-133
-136
-139
-144
-150
-155
-161
-168
-176
-184
-193
-201
-210
-218
-228
-236
-244
-253
-261
-268
-276
-283
-289
-294
-298
-302
-306
-308
-310
-311
-311
-311
-311
-311
-308
-306
-304
-301
-299
-294
-290
-286
-281
-276
-271
-265
-260
-255
-249
-243
-238
-232
-226
-220
-215
-210
-205
-199
-195
-190
-185
-181
-178
-175
-172
-170
-168
-166
-163
-161
-160
-158
-157
-156
-155
-154
-154
-153
-152
-152
-152
-152
-152
-151
-151
-150
-151
-151
-151
-151
-151
-150
-150
-150
-150
-150
-149
-149
-149
-149
-149
-149
-148
-148
-148
-147
-147
-147
-147
-147
-147
-147
-147
-146
-146
-147
-147
-147
-147
-147
-147
-147
-147
-147
-147
-147
-147
-147
-147
-148
-148
-148
-148
-148
-148
-148
-147
-147
-147
-147
-147
-147
-147
-147
-147
-145
-145
-145
-145
-145
-145
-145
-145
-145
-145
-145
-145
-145
-145
-145
-145
-145
-146
-146
-146
-146
-145
-145
-145
-145
-145
-145
-145
-145
-145
-145
-145
-145
-145
-145
-145
-145
-145
-145
-145
-146
-146
-146
-146
-146
-146
-146
-146
-146
-146
-146
-146
-146
-146
-146
-146
-146
-146
-146
-147
-147
-146
-146
-146
-146
-146
-146
-147
-147
-147
-146
-147
-147
-146
-147
-147
-147
-147
-147
-147
-146
-147
-147
-147
-147
-147
-147
-147
-147
-147
-147
-147
-147
-148
-149
-149
-149
-148
-149
-149
-149
-149
-149
-150
-150
-150
-150
-150
-150
-150
-151
-151
-151
-151
-151
-151
-151
-151
-151
-151
-151
-151
-151
-151
-151
-151
-150
-151
-151
-151
-151
-150
-150
-150
-149
-150
-150
-150
-150
-150
-149
-149
-149
-149
-150
-150
-150
-150
-151
-151
-151
-151
-152
-152
-152
-153
-153
-154
-154
-154
-155
-155
-155
-155
-155
-155
-156
-156
-156
-156
-156
-156
-155
-155
-155
-156
-156
-156
-156
-156
-157
-157
-157
-157
-157
-157
-158
-157
-158
-157
-158
-158
-157
-157
-157
-156
-156
-156
-156
-156
-156
-156
-156
-156
-156
-157
-156
-156
-156
-157
-157
-158
-157
-158
-159
-159
-160
-160
-161
-161
-162
-162
-163
-163
-163
-164
-164
-164
-164
-164
-164
-164
-164
-165
-165
-165
-165
-165
-165
-165
-165
-166
-166
-166
-166
-166
-166
-166
-166
-166
-167
-166
-166
-166
-167
-167
-167
-166
-167
-167
-167
-168
-167
-167
-167
-168
-167
-167
-167
-168
-168
-168
-169
-169
-169
-169
-169
-170
-170
-171
-171
-171
-171
-172
-172
-171
-172
-172
-172
-172
-172
-173
-172
-173
-173
-172
-172
-172
-172
-171
-172
-171
-170
-171
-170
-170
-169
-169
-169
-168
-168
-168
-167
-167
-166
-166
-166
-165
-166
-165
-165
-165
-164
-165
-164
-164
-164
-163
-164
-164
-164
-164
-164
-164
-164
-164
-163
-164
-164
-164
-163
-164
-164
-164
-165
-165
-165
-165
-165
-165
-165
-165
-165
-164
-164
-164
-164
-164
-163
-164
-163
-162
-163
-162
-162
-162
-162
-161
-162
-162
-161
-161
-161
-161
-161
-161
-161
-161
-161
-161
-161
-161
-161
-161
-161
-161
-162
-162
-162
-162
-163
-163
-163
-163
-163
-163
-164
-164
-164
-164
-164
-164
-164
-164
-163
-163
-163
-163
-163
-162
-162
-162
-162
-161
-161
-161
-160
-160
-160
-160
-160
-160
-160
-160
-159
-159
-159
-159
-159
-159
-160
-160
-160
-160
-160
-160
-161
-161
-161
-161
-161
-161
-161
-161
-161
-161
-161
-161
-161
-161
-161
-161
-161
-161
-161
-160
-160
-160
-160
-161
-161
-161
-161
-161
-161
-161
-161
-161
-160
-161
-161
-161
-161
-161
-161
-161
-162
-162
-162
-162
-162
-163
-163
-163
-163
-163
-163
-163
-163
-162
-163
-163
-163
-163
-163
-163
-163
-163
-163
-163
-163
-163
-162
-162
-163
-163
-163
-163
-163
-164
-164
-164
-164
-164
-164
-164
-164
-164
-164
-164
-164
-164
-164
-165
-165
-164
-164
-164
-164
-163
-164
-164
-164
-164
-164
-163
-163
-163
-163
-163
-163
-163
-163
-163
-163
-163
-163
-163
-163
-163
-163
-163
-163
-163
-163
-163
-163
-164
-164
-164
-164
-164
-164
-164
-164
-165
-165
-165
-165
-165
-165
-165
-165
-165
-166
-166
-166
-166
-166
-165
-165
-165
-165
-164
-164
-165
-164
-164
-164
-163
-163
-163
-163
-163
-163
-163
-163
-163
-164
-163
-163
-163
-163
-163
-163
-164
-164
-164
-164
-164
-164
-164
-165
-165
-164
-165
-165
-166
-165
-166
-166
-166
-166
-166
-167
-167
-167
-167
-167
-167
-166
-166
-167
-166
-166
-166
-166
-166
-165
-165
-164
-164
-165
-164
-164
-164
-164
-163
-164
-164
-164
-164
-164
-164
-164
-164
-164
-164
-164
-165
-165
-164
-164
-164
-164
-164
-164
-163
-164
-164
-163
-163
-163
-163
-162
-163
-162
-162
-161
-161
-161
-161
-160
-160
-159
-159
-159
-159
-158
-159
-158
-158
-157
-158
-158
-157
-158
-159
-158
-159
-159
-159
-160
-160
-161
-160
-161
-161
-161
-162
-162
-162
-162
-163
-163
-164
-164
-165
-165
-165
-166
-167
-167
-167
-167
-168
-168
-169
-170
-171
-171
-172
-173
-173
-175
-175
-176
-175
-176
-177
-178
-177
-178
-178
-178
-179
-179
-179
-179
-180
-179
-179
-180
-179
-180
-180
-179
-180
-179
-179
-179
-179
-179
-179
-179
-179
-178
-177
-177
-176
-176
-176
-175
-174
-173
-173
-172
-172
-172
-170
-171
-171
-170
-170
-169
-169
-169
-168
-168
-168
-167
-167
-167
-167
-167
-167
-167
-167
-167
-166
-167
-167
-167
-167
-167
-167
-167
-167
-167
-167
-167
-167
-167
-167
-167
-166
-166
-166
-166
-166
-166
-166
-165
-165
-165
-165
-165
-164
-164
-165
-165
-165
-165
-165
-165
-166
-166
-165
-165
-165
-165
-165
-165
-166
-166
-166
-166
-166
-166
-166
-166
-166
-166
-166
-166
-165
-165
-165
-165
-165
-165
-165
-164
-164
-163
-163
-162
-163
-162
-160
-160
-159
-157
-156
-154
-152
-150
-148
-145
-144
-141
-140
-137
-136
-133
-131
-130
-127
-126
-125
-125
-125
-125
-126
-126
-128
-130
-133
-136
-139
-144
-148
-154
-160
-167
-174
-181
-190
-198
-207
-216
-225
-234
-243
-251
-260
-268
-275
-282
-289
-295
-301
-304
-309
-311
-313
-314
-315
-315
-315
-315
-313
-311
-309
-305
-301
-297
-293
-288
-283
-278
-273
-267
-261
-255
-249
-243
-237
-232
-226
-220
-215
-210
-204
-200
-196
-191
-188
-185
-182
-178
-176
-173
-171
-169
-168
-165
-164
-162
-162
-160
-159
-159
-157
-157
-156
-156
-156
-155
-155
-154
-154
-154
-153
-153
-153
-152
-152
-152
-151
-151
-151
-151
-151
-151
-151
-151
-151
-151
-150
-150
-151
-151
-151
-151
-150
-150
-150
-150
-150
-150
-151
-151
-151
-150
-150
-150
-150
-150
-150
-149
-149
-149
-149
-149
-149
-149
-149
-149
-149
-149
-148
-148
-149
-149
-149
-149
-149
-149
-149
-150
-150
-150
-150
-150
-150
-150
-150
-150
-150
-150
-150
-150
-150
-150
-150
-149
-149
-149
-149
-149
-150
-149
-148
-148
-148
-149
-148
-147
-147
-147
-147
-147
-147
-147
-148
-148
-147
-147
-147
-147
-146
-146
-147
-147
-147
-147
-147
-147
-147
-148
-148
-148
-148
-148
-149
-148
-148
-148
-149
-149
-149
-149
-149
-149
-150
-150
-149
-149
-150
-150
-150
-150
-150
-150
-151
-151
-151
-151
-151
-151
-151
-151
-151
-151
-151
-151
-150
-150
-150
-150
-150
-150
-150
-150
-150
-150
-149
-149
-149
-150
-150
-150
-149
-149
-149
-149
-150
-150
-150
-150
-150
-150
-150
-150
-150
-150
-150
-151
-151
-151
-151
-150
-150
-151
-151
-151
-151
-152
-151
-151
-151
-151
-151
-151
-152
-152
-152
-152
-152
-152
-152
-153
-153
-153
-153
-152
-152
-153
-153
-152
-153
-153
-152
-153
-153
-152
-152
-153
-153
-153
-153
-152
-153
-153
-153
-153
-154
-153
-154
-154
-154
-155
-155
-155
-155
-155
-156
-156
-156
-156
-157
-156
-157
-157
-157
-157
-157
-157
-157
-158
-157
-158
-157
-158
-158
-158
-158
-158
-158
-158
-158
-159
-158
-158
-159
-158
-158
-159
-159
-159
-159
-159
-160
-160
-161
-160
-160
-160
-160
-160
-160
-161
-161
-160
-161
-161
-162
-161
-161
-162
-162
-162
-162
-162
-162
-162
-162
-162
-163
-163
-163
-163
-164
-164
-165
-164
-165
-165
-166
-166
-167
-167
-168
-168
-168
-169
-169
-170
-171
-171
-171
-172
-172
-172
-172
-172
-173
-172
-172
-172
-172
-172
-172
-172
-172
-172
-173
-173
-173
-173
-173
-173
-173
-173
-173
-173
-173
-173
-173
-172
-172
-172
-172
-172
-171
-171
-171
-171
-171
-170
-170
-170
-169
-169
-170
-169
-169
-169
-169
-169
-169
-169
-168
-169
-169
-169
-169
-169
-169
-170
-169
-169
-169
-169
-169
-169
-169
-169
-169
-168
-169
-169
-169
-168
-168
-168
-168
-167
-167
-167
-167
-166
-166
-165
-166
-165
-165
-164
-165
-165
-164
-164
-164
-164
-163
-164
-163
-163
-163
-163
-163
-163
-163
-163
-163
-163
-163
-162
-162
-162
-161
-162
-162
-161
-161
-161
-161
-161
-160
-160
-160
-160
-159
-159
-160
-160
-160
-160
-160
-160
-160
-160
-160
-161
-161
-161
-161
-161
-161
-161
-162
-161
-161
-161
-161
-161
-161
-160
-160
-160
-160
-160
-159
-159
-159
-159
-159
-160
-160
-160
-160
-160
-160
-159
-159
-159
-159
-159
-159
-159
-159
-159
-159
-159
-158
-159
-159
-159
-158
-158
-158
-158
-158
-158
-157
-158
-158
-158
-158
-158
-158
-158
-157
-157
-157
-158
-158
-159
-159
-159
-159
-158
-158
-159
-159
-159
-159
-159
-159
-160
-160
-160
-160
-160
-160
-160
-160
-161
-161
-160
-160
-160
-160
-160
-160
-161
-161
-160
-160
-160
-160
-160
-160
-161
-161
-161
-161
-161
-160
-160
-160
-160
-160
-160
-160
-160
-160
-161
-161
-161
-161
-160
-160
-160
-160
-160
-160
-160
-161
-160
-160
-160
-160
-160
-160
-160
-159
-159
-159
-159
-159
-159
-159
-159
-159
-159
-160
-160
-160
-160
-159
-159
-159
-159
-159
-159
-160
-160
-160
-160
-160
-160
-160
-160
-160
-160
-160
-160
-160
-160
-160
-159
-159
-159
-159
-160
-160
-160
-160
-160
-160
-160
-160
-160
-160
-160
-161
-161
-161
-161
-161
-161
-162
-162
-161
-161
-162
-162
-162
-161
-161
-161
-161
-161
-161
-161
-162
-162
-162
-162
-162
-162
-162
-162
-162
-162
-161
-162
-162
-162
-161
-162
-162
-162
-162
-162
-161
-161
-161
-161
-161
-161
-162
-162
-162
-162
-162
-162
-162
-162
-162
-162
-162
-162
-162
-162
-162
-162
-162
-162
-162
-162
-162
-162
-160
-160
-160
-160
-160
-159
-159
-159
-159
-158
-158
-157
-158
-157
-157
-156
-156
-155
-155
-154
-154
-153
-153
-152
-153
-152
-152
-152
-152
-152
-152
-152
-152
-153
-153
-153
-154
-154
-155
-155
-156
-156
-157
-158
-158
-158
-157
-158
-159
-160
-160
-160
-161
-162
-161
-162
-163
-162
-163
-163
-164
-165
-164
-165
-165
-166
-166
-167
-167
-168
-168
-168
-169
-170
-170
-171
-171
-172
-172
-172
-173
-173
-174
-174
-175
-174
-175
-175
-175
-175
-175
-175
-175
-175
-175
-174
-174
-174
-174
-173
-173
-173
-172
-171
-171
-171
-170
-170
-169
-168
-168
-167
-167
-167
-167
-166
-166
-166
-165
-166
-165
-165
-164
-164
-164
-164
-164
-164
-164
-163
-164
-164
-164
-163
-164
-164
-164
-164
-164
-163
-164
-164
-163
-163
-163
-163
-163
-163
-163
-163
-163
-163
-163
-163
-163
-163
-163
-162
-162
-162
-162
-162
-162
-161
-161
-162
-162
-162
-162
-162
-162
-161
-161
-161
-161
-161
-161
-161
-161
-161
-161
-161
-161
-161
-161
-160
-160
-160
-160
-160
-160
-160
-160
-160
-160
-160
-160
-159
-158
-158
-157
-157
-157
-156
-155
-155
-153
-151
-150
-149
-147
-145
-143
-141
-140
-137
-135
-133
-131
-129
-127
-126
-124
-123
-122
-122
-121
-122
-122
-124
-124
-127
-129
-132
-136
-140
-146
-152
-158
-164
-171
-179
-188
-197
-206
-215
-224
-233
-242
-252
-260
-269
-277
-285
-292
-299
-304
-309
-313
-316
-318
-320
-322
-323
-322
-321
-320
-318
-316
-313
-309
-305
-301
-296
-291
-286
-280
-274
-269
-262
-257
-251
-245
-238
-232
-226
-221
-215
-210
-204
-200
-195
-191
-187
-184
-180
-177
-174
-172
-169
-167
-166
-163
-161
-160
-158
-158
-156
-155
-154
-154
-153
-151
-151
-151
-150
-150
-150
-150
-150
-149
-148
-148
-149
-149
-149
-148
-148
-149
-148
-148
-148
-148
-148
-148
-147
-147
-147
-146
-146
-146
-145
-145
-145
-145
-145
-145
-145
-145
-144
-144
-144
-144
-144
-144
-144
-144
-144
-143
-144
-144
-144
-144
-144
-145
-145
-145
-144
-145
-145
-145
-145
-145
-145
-145
-145
-145
-145
-145
-145
-145
-145
-145
-145
-144
-144
-144
-144
-145
-145
-145
-145
-145
-145
-145
-145
-144
-144
-144
-145
-145
-145
-146
-145
-145
-145
-145
-145
-145
-145
-146
-146
-145
-145
-145
-146
-146
-145
-145
-145
-145
-145
-145
-145
-145
-145
-145
-145
-145
-145
-145
-145
-145
-145
-145
-145
-145
-145
-145
-145
-145
-145
-144
-144
-144
-144
-144
-144
-144
-145
-145
-144
-144
-144
-145
-145
-145
-144
-144
-144
-145
-145
-145
-145
-145
-145
-144
-144
-144
-145
-145
-145
-145
-145
-145
-145
-145
-145
-145
-145
-146
-146
-146
-146
-146
-146
-146
-146
-146
-146
-147
-146
-146
-146
-146
-147
-147
-147
-147
-147
-148
-147
-147
-147
-148
-148
-148
-148
-149
-148
-148
-148
-148
-149
-148
-148
-148
-149
-149
-148
-148
-149
-149
-149
-149
-150
-150
-149
-150
-150
-150
-151
-151
-151
-151
-152
-151
-151
-152
-152
-152
-152
-153
-153
-152
-152
-152
-152
-152
-153
-153
-153
-153
-153
-152
-152
-152
-153
-153
-153
-152
-153
-153
-153
-154
-153
-153
-154
-154
-154
-154
-154
-154
-155
-154
-155
-155
-155
-156
-155
-156
-155
-155
-155
-156
-155
-155
-155
-155
-156
-156
-156
-156
-156
-157
-157
-158
-157
-157
-158
-158
-158
-158
-158
-159
-159
-158
-159
-159
-159
-159
-160
-160
-159
-159
-160
-160
-160
-161
-161
-161
-161
-162
-161
-161
-163
-162
-162
-163
-164
-164
-165
-165
-166
-166
-167
-167
-168
-168
-168
-169
-169
-170
-170
-170
-171
-171
-171
-170
-170
-171
-171
-171
-171
-171
-171
-171
-171
-172
-171
-170
-171
-171
-171
-170
-171
-170
-170
-170
-169
-170
-169
-169
-169
-168
-168
-168
-168
-167
-167
-167
-166
-166
-166
-165
-166
-166
-165
-165
-165
-164
-164
-165
-164
-164
-163
-164
-163
-164
-163
-162
-163
-163
-164
-164
-163
-163
-164
-163
-163
-164
-164
-164
-163
-163
-163
-164
-163
-163
-163
-163
-164
-163
-163
-163
-162
-163
-163
-162
-162
-162
-161
-162
-161
-161
-161
-160
-160
-160
-159
-159
-159
-159
-159
-158
-158
-157
-158
-157
-157
-157
-157
-157
-157
-156
-157
-157
-157
-157
-157
-158
-158
-157
-157
-157
-158
-158
-158
-158
-158
-158
-157
-157
-158
-158
-158
-158
-158
-158
-157
-157
-157
-157
-157
-157
-157
-157
-156
-156
-156
-156
-156
-156
-156
-156
-156
-156
-155
-155
-155
-155
-155
-155
-155
-156
-156
-156
-156
-156
-156
-156
-156
-156
-156
-156
-156
-156
-156
-155
-155
-155
-155
-155
-155
-155
-155
-155
-155
-155
-155
-155
-155
-155
-154
-154
-154
-155
-155
-155
-154
-154
-155
-155
-154
-154
-155
-155
-154
-154
-154
-155
-154
-154
-154
-154
-154
-154
-153
-153
-153
-153
-153
-153
-154
-154
-153
-153
-153
-153
-153
-153
-154
-154
-154
-154
-154
-154
-155
-155
-155
-155
-155
-155
-155
-155
-156
-156
-156
-156
-156
-156
-156
-157
-157
-157
-157
-157
-157
-157
-157
-157
-157
-157
-157
-157
-157
-157
-157
-157
-157
-157
-157
-157
-157
-157
-157
-157
-157
-157
-157
-157
-157
-157
-157
-157
-157
-157
-157
-157
-157
-157
-156
-156
-156
-156
-156
-156
-156
-156
-156
-156
-156
-156
-156
-156
-155
-156
-156
-156
-156
-156
-156
-156
-156
-156
-156
-155
-155
-155
-156
-156
-155
-155
-155
-155
-156
-156
-156
-156
-156
-156
-156
-156
-156
-156
-157
-157
-157
-156
-156
-157
-157
-157
-157
-157
-157
-158
-158
-158
-158
-158
-159
-159
-158
-158
-158
-158
-158
-158
-157
-157
-157
-157
-157
-157
-156
-156
-156
-156
-156
-155
-155
-155
-155
-155
-155
-155
-154
-154
-154
-154
-153
-153
-153
-152
-152
-152
-151
-151
-151
-151
-151
-150
-150
-149
-150
-150
-149
-149
-149
-149
-148
-149
-149
-149
-149
-150
-149
-150
-151
-151
-151
-152
-151
-152
-152
-153
-153
-153
-153
-153
-153
-153
-154
-153
-154
-155
-155
-155
-156
-156
-157
-157
-157
-157
-158
-159
-159
-160
-160
-161
-161
-162
-163
-164
-164
-165
-165
-166
-167
-167
-167
-168
-168
-169
-169
-169
-169
-169
-169
-169
-170
-169
-170
-169
-170
-170
-170
-170
-170
-170
-169
-169
-170
-169
-169
-168
-168
-167
-166
-166
-165
-165
-164
-164
-164
-164
-163
-162
-162
-162
-162
-161
-162
-161
-161
-161
-161
-161
-161
-160
-161
-160
-160
-161
-160
-160
-160
-161
-160
-160
-159
-160
-160
-159
-159
-158
-159
-159
-159
-158
-158
-158
-158
-158
-157
-157
-157
-157
-157
-157
-157
-156
-156
-156
-156
-156
-155
-155
-155
-155
-155
-155
-155
-155
-155
-155
-155
-155
-155
-154
-154
-154
-154
-154
-154
-154
-154
-154
-154
-155
-155
-155
-155
-155
-154
-154
-154
-154
-153
-153
-153
-153
-153
-153
-152
-152
-151
-150
-150
-148
-147
-145
-143
-141
-140
-138
-136
-134
-133
-130
-128
-126
-124
-122
-120
-118
-117
-115
-115
-115
-115
-115
-115
-117
-119
-121
-124
-129
-133
-137
-143
-150
-156
-163
-171
-180
-189
-198
-207
-216
-226
-235
-244
-253
-262
-270
-278
-285
-292
-298
-302
-306
-310
-313
-314
-315
-316
-316
-315
-313
-312
-309
-306
-302
-298
-294
-288
-284
-278
-272
-266
-261
-255
-249
-243
-236
-230
-223
-218
-212
-206
-201
-196
-190
-185
-180
-177
-173
-170
-166
-163
-161
-159
-157
-154
-152
-151
-150
-149
-147
-146
-146
-144
-144
-143
-143
-143
-141
-141
-141
-141
-141
-141
-140
-140
-140
-140
-139
-139
-139
-139
-139
-139
-138
-138
-138
-138
-138
-138
-138
-138
-138
-138
-138
-139
-139
-138
-138
-138
-138
-138
-138
-138
-137
-137
-137
-137
-137
-137
-137
-137
-136
-136
-136
-136
-136
-136
-136
-136
-136
-135
-135
-135
-135
-135
-136
-136
-136
-136
-136
-136
-136
-136
-136
-136
-136
-135
-135
-135
-135
-135
-135
-136
-135
-135
-135
-135
-135
-135
-135
-135
-135
-134
-133
-133
-133
-133
-133
-133
-133
-133
-134
-134
-134
-134
-134
-134
-134
-134
-134
-133
-134
-134
-134
-134
-134
-134
-135
-135
-135
-135
-135
-135
-135
-135
-135
-135
-135
-135
-135
-136
-135
-135
-135
-135
-135
-135
-135
-135
-135
-135
-135
-135
-135
-135
-135
-135
-135
-135
-135
-135
-135
-135
-135
-135
-136
-136
-135
-135
-135
-135
-135
-135
-136
-135
-135
-135
-134
-134
-135
-135
-135
-135
-134
-134
-135
-135
-135
-135
-135
-135
-135
-136
-136
-136
-136
-136
-136
-137
-137
-137
-137
-136
-137
-137
-137
-137
-137
-138
-138
-138
-137
-137
-137
-138
-138
-137
-137
-137
-137
-138
-137
-137
-137
-137
-136
-137
-137
-137
-137
-137
-138
-138
-138
-138
-138
-138
-138
-139
-139
-138
-139
-139
-140
-140
-140
-140
-141
-140
-140
-141
-141
-141
-140
-141
-141
-141
-141
-141
-141
-141
-141
-141
-142
-141
-141
-141
-142
-142
-141
-141
-142
-142
-143
-142
-143
-143
-142
-143
-143
-143
-143
-143
-144
-143
-143
-142
-143
-142
-143
-143
-142
-143
-142
-143
-142
-143
-142
-143
-143
-143
-143
-143
-143
-143
-143
-143
-144
-143
-144
-143
-144
-144
-144
-144
-145
-144
-145
-144
-145
-145
-144
-145
-145
-145
-145
-144
-145
-144
-144
-145
-144
-144
-144
-145
-144
-144
-144
-144
-144
-144
-144
-145
-145
-145
-145
-145
-146
-146
-146
-146
-146
-147
-147
-147
-147
-147
-147
-147
-147
-147
-147
-147
-147
-147
-147
-147
-148
-148
-148
-147
-147
-146
-146
-146
-145
-146
-145
-145
-144
-143
-144
-143
-143
-142
-142
-142
-141
-140
-141
-140
-139
-140
-139
-139
-139
-139
-139
-138
-138
-139
-138
-138
-137
-137
-137
-137
-137
-136
-137
-136
-136
-135
-136
-135
-135
-134
-134
-134
-134
-134
-134
-134
-133
-133
-133
-133
-133
-132
-132
-132
-131
-131
-131
-132
-131
-131
-131
-131
-131
-130
-131
-131
-131
-130
-131
-131
-131
-130
-130
-130
-130
-130
-130
-130
-129
-129
-129
-129
-128
-128
-128
-128
-128
-128
-128
-128
-128
-128
-128
-128
-128
-126
-126
-126
-126
-126
-126
-126
-126
-126
-125
-125
-125
-126
-126
-125
-125
-125
-125
-125
-125
-125
-125
-125
-125
-125
-125
-124
-124
-124
-124
-124
-124
-124
-124
-124
-124
-124
-124
-124
-124
-125
-124
-124
-124
-124
-124
-124
-124
-124
-124
-124
-124
-124
-124
-124
-124
-124
-123
-123
-124
-124
-124
-124
-124
-123
-123
-124
-124
-124
-124
-123
-123
-124
-124
-124
-123
-123
-123
-123
-123
-123
-123
-123
-123
-123
-123
-123
-123
-123
-124
-124
-124
-124
-124
-124
-124
-124
-124
-124
-124
-124
-124
-124
-124
-124
-124
-124
-125
-124
-124
-124
-124
-124
-124
-124
-124
-124
-124
-124
-124
-124
-125
-125
-125
-125
-125
-125
-125
-125
-125
-125
-125
-125
-125
-125
-126
-126
-126
-126
-126
-126
-126
-126
-126
-126
-126
-126
-126
-126
-126
-126
-126
-126
-126
-125
-125
-125
-126
-126
-126
-126
-126
-126
-126
-126
-126
-128
-127
-127
-127
-127
-127
-127
-127
-128
-128
-128
-128
-128
-128
-128
-128
-128
-128
-128
-129
-129
-128
-128
-128
-128
-128
-128
-128
-129
-129
-129
-129
-129
-129
-129
-129
-129
-128
-128
-128
-128
-128
-129
-129
-129
-129
-129
-129
-129
-129
-129
-128
-128
-128
-129
-129
-129
-129
-129
-129
-129
-129
-129
-128
-128
-128
-128
-128
-128
-128
-128
-127
-127
-127
-128
-128
-128
-128
-128
-127
-127
-127
-127
-127
-127
-128
-128
-127
-127
-127
-126
-126
-126
-126
-125
-125
-124
-124
-123
-123
-123
-123
-122
-122
-122
-121
-121
-120
-121
-121
-120
-119
-120
-120
-119
-119
-119
-119
-119
-120
-120
-120
-121
-121
-122
-123
-123
-124
-124
-125
-125
-125
-126
-127
-128
-128
-128
-129
-130
-130
-130
-131
-132
-132
-132
-133
-134
-135
-135
-136
-136
-137
-138
-138
-139
-139
-140
-141
-142
-142
-143
-143
-143
-143
-144
-144
-144
-144
-145
-145
-145
-145
-145
-145
-144
-145
-144
-144
-143
-143
-143
-143
-142
-142
-141
-141
-140
-140
-139
-138
-138
-137
-137
-136
-136
-136
-135
-134
-134
-133
-133
-132
-132
-132
-132
-132
-132
-131
-132
-132
-132
-133
-133
-132
-133
-132
-133
-132
-132
-133
-132
-132
-132
-133
-132
-131
-132
-132
-132
-131
-131
-131
-131
-131
-131
-131
-131
-131
-132
-131
-131
-131
-131
-131
-131
-131
-131
-131
-131
-130
-130
-130
-130
-130
-130
-131
-131
-131
-131
-130
-130
-130
-130
-130
-130
-130
-130
-130
-130
-130
-130
-130
-130
-130
-130
-130
-130
-130
-130
-130
-130
-130
-130
-130
-130
-129
-129
-129
-128
-128
-127
-126
-124
-123
-121
-120
-119
-117
-115
-113
-110
-109
-107
-105
-102
-100
-99
-97
-96
-94
-94
-93
-94
-94
-95
-97
-99
-101
-104
-108
-113
-118
-124
-130
-136
-144
-152
-161
-170
-179
-189
-198
-207
-217
-225
-235
-243
-251
-259
-266
-272
-278
-282
-286
-290
-292
-293
-294
-294
-294
-294
-292
-290
-287
-284
-280
-276
-272
-266
-261
-256
-250
-245
-239
-232
-227
-220
-214
-208
-202
-196
-190
-184
-179
-174
-168
-164
-159
-155
-152
-148
-145
-142
-139
-137
-135
-133
-132
-130
-129
-128
-126
-125
-124
-123
-123
-122
-122
-122
-120
-120
-120
-120
-120
-119
-120
-120
-120
-120
-120
-120
-120
-120
-120
-120
-120
-120
-120
-120
-120
-119
-119
-119
-119
-118
-118
-118
-118
-118
-118
-118
-117
-117
-117
-117
-117
-117
-116
-116
-117
-117
-117
-117
-117
-117
-117
-117
-117
-117
-117
-118
-118
-118
-118
-118
-118
-117
-117
-117
-117
-117
-117
-117
-117
-116
-116
-116
-116
-115
-115
-115
-116
-115
-115
-115
-115
-115
-115
-115
-115
-115
-116
-116
-116
-116
-116
-116
-116
-116
-116
-116
-116
-116
-116
-117
-117
-117
-117
-117
-117
-116
-116
-116
-116
-116
-116
-116
-116
-116
-117
-117
-117
-116
-116
-116
-116
-116
-116
-116
-116
-116
-115
-115
-115
-116
-116
-116
-116
-116
-116
-116
-116
-117
-116
-116
-116
-116
-116
-117
-117
-117
-117
-117
-118
-118
-118
-118
-118
-118
-119
-119
-119
-119
-119
-118
-118
-118
-118
-118
-118
-118
-117
-117
-117
-118
-118
-118
-118
-118
-118
-118
-118
-118
-118
-118
-119
-119
-119
-119
-118
-118
-119
-119
-119
-119
-119
-119
-119
-119
-120
-120
-120
-120
-121
-121
-120
-120
-120
-121
-121
-121
-120
-121
-121
-121
-121
-122
-121
-121
-121
-121
-121
-121
-121
-121
-121
-121
-122
-121
-121
-121
-122
-122
-121
-121
-121
-122
-122
-122
-122
-123
-122
-122
-122
-123
-123
-123
-122
-122
-122
-122
-122
-122
-122
-121
-122
-122
-122
-123
-122
-122
-123
-122
-123
-123
-124
-123
-124
-124
-123
-124
-124
-124
-124
-125
-125
-126
-125
-127
-126
-127
-127
-128
-129
-129
-130
-130
-131
-131
-132
-132
-133
-132
-132
-133
-133
-134
-134
-135
-134
-135
-135
-136
-135
-135
-136
-135
-135
-135
-135
-136
-136
-136
-136
-136
-136
-137
-137
-138
-138
-138
-138
-138
-138
-139
-139
-139
-140
-140
-140
-140
-141
-141
-141
-142
-142
-142
-142
-143
-142
-142
-142
-144
-144
-144
-144
-144
-144
-144
-144
-144
-144
-144
-145
-145
-145
-144
-145
-145
-145
-144
-145
-145
-144
-144
-144
-144
-144
-143
-144
-143
-143
-142
-142
-142
-142
-141
-141
-141
-141
-140
-139
-140
-139
-139
-138
-139
-138
-139
-138
-137
-138
-137
-137
-137
-137
-137
-137
-136
-137
-137
-137
-137
-136
-137
-136
-136
-136
-136
-136
-136
-136
-136
-136
-135
-136
-135
-135
-135
-135
-135
-134
-134
-134
-133
-134
-134
-133
-133
-133
-132
-132
-132
-131
-131
-132
-131
-131
-131
-131
-131
-131
-131
-131
-131
-131
-132
-132
-132
-132
-133
-132
-132
-132
-133
-133
-133
-133
-133
-133
-133
-133
-133
-132
-133
-133
-133
-133
-133
-133
-133
-132
-132
-132
-131
-131
-131
-131
-130
-130
-129
-129
-129
-128
-128
-128
-128
-128
-128
-128
-128
-127
-127
-127
-128
-128
-128
-128
-128
-128
-129
-129
-129
-129
-129
-129
-130
-130
-130
-130
-130
-130
-130
-130
-129
-129
-129
-129
-129
-129
-129
-128
-128
-128
-128
-128
-128
-128
-128
-128
-128
-127
-127
-127
-128
-128
-128
-128
-127
-127
-127
-127
-126
-126
-126
-126
-126
-126
-126
-126
-126
-126
-125
-126
-126
-126
-126
-126
-127
-127
-127
-127
-126
-126
-128
-128
-128
-127
-127
-128
-129
-129
-128
-128
-128
-128
-128
-128
-128
-128
-128
-128
-128
-128
-128
-128
-127
-127
-127
-127
-127
-127
-127
-127
-127
-127
-127
-127
-127
-127
-127
-128
-128
-128
-128
-128
-127
-127
-127
-127
-127
-128
-128
-129
-129
-129
-129
-129
-129
-129
-129
-129
-129
-129
-128
-129
-129
-129
-129
-129
-129
-129
-129
-128
-128
-128
-128
-128
-128
-128
-128
-128
-129
-129
-129
-129
-129
-129
-130
-130
-130
-130
-130
-131
-131
-131
-131
-132
-132
-132
-132
-132
-132
-132
-132
-132
-132
-132
-132
-132
-131
-131
-131
-131
-131
-131
-130
-130
-130
-130
-130
-130
-130
-130
-130
-130
-130
-130
-130
-130
-130
-130
-131
-131
-131
-131
-131
-132
-132
-132
-132
-132
-132
-133
-133
-133
-133
-133
-133
-133
-133
-133
-133
-132
-132
-132
-133
-133
-133
-132
-132
-131
-131
-131
-131
-131
-130
-130
-129
-129
-128
-129
-128
-128
-127
-127
-126
-126
-125
-125
-125
-125
-124
-124
-125
-125
-125
-124
-124
-124
-124
-124
-124
-124
-124
-124
-124
-125
-125
-125
-126
-126
-126
-127
-127
-127
-128
-129
-129
-129
-130
-131
-130
-131
-132
-132
-132
-132
-133
-134
-135
-135
-136
-136
-137
-137
-138
-139
-140
-141
-142
-143
-144
-146
-146
-147
-148
-148
-149
-150
-150
-151
-151
-152
-152
-152
-152
-151
-151
-150
-151
-150
-150
-149
-149
-149
-148
-147
-147
-146
-146
-145
-145
-144
-145
-145
-144
-144
-144
-143
-143
-143
-142
-143
-143
-142
-142
-141
-142
-141
-141
-141
-141
-140
-140
-140
-139
-139
-139
-138
-138
-138
-138
-138
-138
-137
-137
-137
-137
-138
-137
-137
-138
-137
-137
-137
-137
-138
-138
-138
-138
-137
-137
-137
-137
-137
-137
-137
-137
-137
-137
-137
-137
-137
-137
-136
-136
-136
-136
-136
-136
-136
-135
-135
-135
-135
-135
-134
-134
-134
-134
-134
-133
-133
-133
-133
-133
-133
-133
-133
-133
-133
-133
-133
-133
-133
-134
-134
-134
-134
-134
-134
-134
-134
-134
-134
-133
-132
-132
-131
-130
-130
-128
-127
-125
-123
-122
-120
-117
-115
-113
-111
-109
-107
-105
-103
-101
-100
-98
-98
-98
-97
-98
-99
-100
-102
-105
-108
-112
-116
-122
-128
-133
-140
-148
-156
-165
-173
-184
-193
-202
-212
-221
-231
-240
-249
-257
-264
-271
-278
-283
-288
-291
-294
-297
-298
-299
-299
-298
-298
-295
-293
-290
-287
-283
-279
-275
-269
-264
-258
-253
-248
-241
-236
-229
-224
-218
-211
-205
-199
-194
-188
-183
-179
-173
-169
-164
-160
-157
-153
-150
-147
-144
-142
-140
-139
-137
-136
-135
-133
-132
-131
-129
-129
-128
-128
-126
-126
-126
-125
-124
-124
-124
-123
-122
-122
-122
-121
-122
-122
-122
-120
-120
-121
-121
-120
-120
-120
-120
-120
-121
-120
-120
-120
-120
-120
-120
-120
-120
-120
-121
-121
-121
-121
-121
-120
-121
-121
-121
-122
-122
-122
-122
-122
-122
-122
-122
-122
-122
-123
-123
-123
-123
-123
-123
-123
-123
-122
-123
-123
-123
-123
-122
-122
-122
-122
-122
-121
-121
-121
-121
-121
-121
-121
-121
-121
-121
-121
-121
-120
-120
-120
-120
-120
-121
-120
-120
-120
-120
-120
-119
-119
-120
-120
-120
-120
-120
-120
-120
-120
-120
-120
-120
-120
-120
-120
-120
-121
-121
-120
-120
-120
-120
-120
-120
-120
-120
-120
-120
-120
-120
-120
-120
-120
-120
-120
-120
-120
-120
-120
-120
-120
-120
-121
-121
-121
-121
-121
-121
-121
-121
-122
-123
-123
-123
-123
-123
-123
-123
-123
-123
-124
-124
-124
-124
-123
-123
-123
-124
-124
-124
-124
-123
-124
-124
-124
-123
-124
-124
-124
-124
-124
-124
-124
-124
-124
-124
-123
-124
-124
-125
-125
-125
-125
-125
-125
-125
-125
-125
-125
-125
-125
-125
-124
-124
-124
-124
-124
-124
-125
-125
-124
-124
-125
-125
-125
-125
-125
-125
-125
-125
-126
-126
-126
-125
-126
-126
-126
-126
-126
-127
-127
-126
-126
-126
-127
-127
-126
-126
-127
-126
-126
-126
-126
-125
-125
-125
-125
-125
-125
-126
-125
-125
-126
-126
-127
-127
-127
-127
-127
-128
-128
-129
-129
-130
-130
-130
-130
-130
-131
-131
-131
-131
-131
-132
-131
-131
-132
-132
-133
-132
-132
-133
-133
-133
-133
-134
-134
-135
-135
-136
-135
-136
-136
-137
-137
-138
-139
-138
-140
-139
-140
-140
-141
-141
-142
-142
-143
-143
-142
-143
-143
-143
-144
-144
-144
-144
-145
-144
-144
-145
-145
-145
-144
-145
-145
-145
-146
-145
-145
-146
-146
-145
-146
-146
-147
-147
-146
-147
-147
-147
-148
-148
-148
-149
-149
-149
-149
-149
-149
-149
-149
-149
-149
-149
-149
-150
-149
-149
-148
-149
-148
-148
-148
-148
-147
-147
-147
-147
-146
-147
-146
-146
-146
-146
-145
-146
-145
-145
-145
-144
-144
-144
-144
-143
-143
-143
-143
-142
-142
-142
-141
-141
-141
-140
-140
-140
-139
-139
-139
-139
-139
-139
-138
-139
-138
-138
-139
-138
-138
-137
-138
-138
-137
-138
-137
-138
-137
-137
-137
-137
-136
-136
-136
-136
-136
-136
-136
-136
-136
-136
-136
-136
-136
-136
-136
-136
-136
-136
-136
-135
-136
-136
-135
-136
-136
-135
-136
-136
-135
-135
-135
-135
-135
-135
-135
-136
-135
-135
-135
-135
-135
-134
-135
-135
-135
-135
-135
-134
-134
-134
-133
-133
-133
-133
-133
-132
-132
-132
-132
-132
-132
-132
-132
-132
-132
-132
-132
-132
-132
-131
-131
-131
-131
-131
-131
-130
-131
-131
-131
-131
-131
-131
-131
-131
-131
-131
-131
-131
-129
-129
-129
-130
-129
-129
-129
-129
-128
-128
-128
-128
-128
-128
-128
-128
-128
-128
-128
-128
-128
-128
-128
-128
-128
-129
-129
-129
-129
-129
-129
-130
-130
-130
-131
-131
-131
-131
-131
-131
-131
-131
-131
-131
-131
-131
-131
-130
-131
-131
-131
-131
-130
-130
-130
-130
-130
-130
-129
-129
-129
-130
-130
-130
-130
-131
-131
-131
-131
-132
-132
-132
-132
-132
-132
-132
-133
-133
-133
-134
-134
-134
-134
-134
-134
-134
-134
-134
-134
-134
-134
-135
-134
-134
-134
-135
-134
-134
-134
-134
-134
-134
-134
-135
-134
-134
-134
-134
-135
-134
-134
-134
-134
-135
-135
-135
-134
-135
-135
-135
-135
-135
-135
-135
-135
-135
-135
-135
-134
-134
-134
-135
-135
-135
-136
-136
-135
-135
-135
-135
-136
-136
-136
-137
-137
-137
-137
-137
-137
-137
-138
-138
-139
-139
-139
-139
-139
-139
-139
-140
-140
-140
-140
-140
-139
-139
-139
-139
-139
-139
-139
-139
-139
-139
-139
-139
-139
-138
-138
-138
-138
-138
-139
-138
-138
-138
-138
-138
-138
-138
-138
-138
-139
-139
-139
-139
-140
-140
-139
-139
-140
-140
-140
-139
-140
-141
-141
-141
-141
-141
-141
-141
-141
-141
-142
-142
-142
-142
-141
-142
-142
-142
-142
-142
-141
-141
-141
-141
-141
-141
-141
-141
-141
-140
-140
-140
-140
-140
-140
-140
-139
-139
-139
-139
-139
-139
-139
-139
-139
-139
-139
-138
-138
-138
-138
-137
-137
-137
-136
-136
-135
-134
-134
-134
-134
-133
-133
-132
-132
-131
-131
-131
-131
-130
-130
-130
-130
-130
-130
-129
-130
-130
-130
-129
-130
-130
-131
-132
-132
-132
-133
-134
-135
-134
-135
-136
-136
-137
-138
-138
-139
-139
-139
-140
-141
-141
-141
-142
-142
-143
-143
-144
-145
-145
-146
-146
-147
-148
-148
-147
-148
-149
-149
-150
-150
-151
-151
-151
-151
-152
-152
-152
-152
-153
-152
-153
-153
-153
-154
-154
-154
-154
-155
-155
-155
-154
-154
-154
-154
-153
-153
-153
-152
-153
-152
-151
-151
-150
-150
-149
-148
-148
-147
-146
-146
-145
-146
-145
-145
-144
-145
-144
-145
-145
-145
-144
-145
-144
-145
-144
-144
-144
-144
-144
-144
-144
-144
-144
-144
-144
-144
-144
-144
-144
-144
-144
-144
-144
-144
-144
-144
-144
-144
-144
-144
-143
-143
-144
-143
-143
-143
-142
-142
-142
-142
-142
-142
-142
-142
-142
-141
-141
-141
-141
-141
-141
-140
-140
-140
-141
-141
-141
-142
-142
-141
-141
-141
-141
-141
-141
-141
-141
-141
-141
-141
-141
-141
-141
-141
-140
-139
-138
-138
-136
-134
-133
-131
-130
-128
-126
-124
-122
-120
-117
-116
-113
-112
-109
-107
-106
-103
-102
-102
-101
-101
-101
-102
-103
-104
-106
-109
-112
-116
-120
-125
-131
-136
-143
-150
-158
-167
-175
-184
-193
-201
-210
-219
-228
-236
-243
-250
-258
-263
-270
-274
-279
-282
-283
-286
-287
-288
-287
-287
-285
-284
-281
-278
-275
-272
-268
-264
-259
-254
-249
-245
-239
-233
-228
-222
-217
-212
-206
-201
-195
-190
-185
-180
-176
-172
-167
-164
-160
-157
-156
-152
-150
-148
-147
-144
-143
-142
-141
-139
-139
-138
-138
-136
-137
-135
-135
-135
-134
-134
-134
-134
-133
-133
-133
-133
-133
-132
-132
-132
-132
-131
-131
-131
-131
-130
-131
-131
-131
-130
-130
-130
-129
-129
-129
-128
-128
-129
-128
-128
-128
-128
-127
-127
-127
-127
-127
-127
-127
-127
-127
-127
-127
-127
-129
-129
-128
-128
-129
-129
-130
-130
-130
-130
-130
-130
-130
-131
-130
-130
-130
-130
-130
-130
-130
-130
-129
-129
-129
-129
-128
-128
-128
-128
-128
-127
-127
-127
-127
-127
-126
-126
-126
-126
-126
-126
-125
-125
-125
-126
-126
-127
-127
-127
-127
-127
-128
-127
-127
-127
-128
-128
-128
-128
-129
-129
-129
-129
-129
-129
-129
-129
-129
-129
-130
-130
-130
-130
-130
-129
-129
-129
-129
-129
-128
-128
-128
-128
-128
-128
-128
-128
-128
-128
-128
-128
-128
-128
-128
-129
-129
-129
-128
-129
-129
-129
-130
-130
-130
-130
-130
-131
-131
-131
-131
-131
-131
-131
-131
-131
-131
-131
-131
-131
-130
-130
-130
-130
-130
-130
-130
-130
-130
-130
-130
-130
-130
-131
-131
-131
-131
-131
-131
-132
-132
-132
-132
-133
-132
-132
-132
-132
-133
-133
-133
-133
-133
-133
-133
-133
-133
-132
-132
-132
-132
-132
-132
-132
-132
-132
-132
-132
-132
-132
-132
-132
-132
-133
-133
-133
-134
-133
-134
-134
-134
-135
-135
-135
-136
-136
-136
-136
-136
-137
-137
-136
-136
-137
-137
-137
-136
-137
-137
-137
-136
-137
-137
-137
-136
-137
-137
-137
-137
-137
-137
-137
-137
-138
-138
-138
-138
-139
-139
-138
-139
-139
-139
-139
-139
-139
-139
-139
-139
-139
-139
-140
-139
-140
-141
-141
-141
-141
-141
-142
-142
-142
-143
-143
-144
-143
-144
-144
-144
-145
-144
-145
-145
-146
-145
-145
-146
-146
-146
-146
-146
-146
-146
-147
-147
-147
-147
-147
-148
-148
-148
-148
-148
-148
-149
-149
-149
-149
-149
-149
-150
-150
-150
-150
-150
-150
-150
-150
-150
-151
-151
-151
-151
-151
-151
-151
-151
-151
-151
-151
-152
-152
-152
-153
-153
-153
-153
-153
-153
-154
-154
-154
-154
-154
-154
-154
-154
-153
-154
-154
-153
-153
-153
-152
-152
-153
-152
-152
-151
-152
-151
-151
-151
-151
-151
-150
-151
-150
-150
-149
-150
-149
-149
-148
-148
-148
-148
-148
-147
-148
-147
-147
-146
-146
-146
-146
-146
-147
-146
-146
-145
-145
-145
-145
-144
-144
-144
-144
-143
-144
-143
-143
-142
-143
-142
-142
-142
-142
-142
-141
-141
-142
-142
-141
-141
-142
-142
-142
-141
-141
-141
-142
-142
-142
-141
-141
-141
-142
-142
-142
-141
-141
-141
-141
-141
-141
-140
-140
-141
-141
-140
-140
-140
-140
-140
-140
-140
-140
-139
-140
-140
-140
-139
-139
-139
-139
-139
-139
-139
-139
-139
-138
-139
-139
-139
-138
-138
-139
-138
-138
-138
-138
-138
-138
-138
-137
-138
-138
-138
-138
-138
-138
-139
-138
-138
-138
-139
-138
-138
-139
-139
-139
-139
-140
-140
-140
-140
-140
-140
-140
-140
-140
-140
-140
-140
-140
-140
-140
-140
-140
-139
-139
-139
-140
-140
-140
-139
-139
-139
-140
-140
-140
-140
-140
-140
-140
-140
-140
-140
-140
-141
-141
-141
-141
-140
-140
-141
-141
-141
-141
-142
-142
-141
-141
-141
-141
-142
-142
-142
-143
-143
-143
-143
-142
-142
-142
-143
-143
-142
-142
-142
-141
-142
-142
-142
-142
-142
-141
-141
-141
-141
-141
-141
-141
-141
-141
-141
-143
-142
-142
-142
-142
-142
-142
-142
-142
-142
-142
-142
-142
-142
-142
-143
-143
-143
-143
-144
-144
-144
-144
-144
-144
-145
-145
-145
-145
-145
-145
-145
-145
-146
-146
-146
-146
-146
-146
-146
-145
-145
-145
-145
-145
-145
-145
-145
-145
-145
-145
-145
-145
-145
-144
-144
-144
-145
-145
-145
-145
-145
-145
-145
-145
-145
-145
-145
-145
-145
-145
-145
-145
-145
-145
-145
-145
-145
-145
-145
-145
-145
-145
-145
-145
-145
-145
-144
-144
-144
-144
-145
-144
-144
-144
-144
-144
-144
-144
-144
-144
-144
-144
-144
-144
-145
-145
-145
-145
-146
-146
-146
-146
-147
-147
-147
-147
-147
-147
-147
-147
-147
-147
-147
-146
-146
-146
-147
-147
-147
-147
-147
-147
-146
-146
-146
-146
-146
-146
-146
-146
-146
-146
-145
-145
-145
-145
-145
-145
-145
-145
-144
-144
-144
-144
-144
-143
-143
-143
-143
-143
-142
-142
-141
-141
-140
-140
-140
-140
-139
-139
-139
-139
-138
-138
-138
-137
-137
-138
-137
-138
-138
-138
-138
-139
-139
-139
-139
-139
-139
-140
-141
-141
-142
-142
-143
-143
-144
-144
-144
-145
-146
-146
-146
-147
-147
-148
-149
-148
-149
-150
-150
-151
-152
-151
-152
-152
-153
-154
-154
-155
-155
-156
-157
-157
-157
-158
-159
-159
-159
-160
-160
-160
-161
-161
-162
-162
-162
-162
-162
-162
-162
-162
-162
-161
-161
-161
-161
-159
-159
-159
-158
-158
-157
-156
-155
-155
-154
-154
-153
-153
-152
-152
-151
-151
-151
-150
-150
-149
-150
-150
-149
-150
-149
-149
-149
-149
-149
-149
-149
-149
-148
-149
-148
-149
-148
-148
-148
-147
-148
-148
-148
-148
-148
-148
-148
-147
-147
-147
-147
-147
-147
-147
-147
-147
-147
-148
-147
-147
-147
-147
-147
-147
-147
-147
-147
-146
-146
-146
-147
-146
-146
-146
-146
-146
-146
-146
-146
-145
-145
-145
-145
-145
-145
-145
-145
-146
-146
-146
-146
-146
-145
-145
-145
-146
-146
-146
-145
-145
-145
-144
-143
-143
-141
-140
-138
-136
-135
-133
-131
-129
-126
-125
-122
-120
-117
-116
-114
-112
-109
-108
-107
-105
-104
-105
-105
-106
-107
-109
-111
-113
-117
-120
-125
-130
-137
-142
-149
-156
-164
-173
-182
-191
-200
-209
-218
-228
-236
-245
-253
-261
-268
-276
-282
-288
-292
-296
-298
-301
-303
-304
-304
-304
-303
-302
-300
-298
-294
-291
-287
-282
-278
-273
-267
-262
-256
-251
-245
-239
-232
-226
-220
-215
-208
-202
-197
-192
-186
-181
-177
-172
-168
-164
-161
-158
-155
-152
-150
-148
-146
-144
-143
-141
-140
-139
-138
-137
-137
-137
-137
-135
-135
-135
-135
-135
-135
-134
-134
-134
-134
-135
-134
-134
-134
-134
-133
-133
-133
-133
-132
-132
-132
-132
-132
-132
-132
-132
-132
-132
-132
-132
-131
-131
-131
-131
-131
-131
-131
-131
-131
-131
-131
-131
-131
-130
-130
-130
-130
-130
-130
-130
-130
-130
-130
-130
-130
-130
-130
-129
-130
-130
-130
-130
-130
-130
-130
-129
-129
-129
-129
-129
-129
-129
-129
-129
-129
-129
-129
-130
-129
-129
-128
-129
-129
-129
-129
-129
-129
-129
-129
-129
-129
-129
-129
-129
-129
-129
-129
-129
-129
-130
-130
-130
-130
-130
-130
-130
-131
-131
-131
-131
-131
-131
-131
-131
-131
-131
-131
-130
-130
-130
-130
-130
-130
-130
-131
-131
-131
-130
-130
-130
-130
-130
-130
-130
-130
-130
-130
-130
-130
-130
-130
-130
-130
-130
-130
-130
-130
-131
-131
-131
-131
-131
-131
-132
-132
-131
-131
-132
-132
-132
-132
-133
-132
-132
-132
-132
-132
-132
-133
-133
-132
-132
-132
-132
-132
-132
-132
-132
-132
-132
-132
-132
-132
-132
-132
-132
-132
-133
-133
-132
-132
-132
-132
-133
-133
-133
-133
-133
-133
-133
-133
-133
-133
-133
-133
-134
-133
-133
-133
-133
-133
-133
-133
-133
-133
-133
-134
-133
-133
-133
-134
-134
-133
-133
-134
-134
-134
-134
-135
-135
-135
-135
-136
-135
-136
-137
-136
-136
-137
-137
-137
-138
-138
-138
-138
-138
-139
-138
-139
-139
-139
-139
-139
-139
-138
-138
-139
-138
-138
-139
-138
-139
-139
-140
-139
-140
-139
-140
-140
-141
-140
-141
-141
-142
-142
-141
-142
-142
-142
-142
-143
-143
-143
-144
-143
-144
-144
-144
-145
-144
-145
-145
-145
-145
-145
-145
-146
-146
-147
-147
-147
-147
-149
-148
-149
-149
-149
-150
-150
-151
-151
-152
-152
-153
-153
-154
-154
-154
-155
-155
-155
-155
-155
-155
-155
-155
-156
-156
-156
-156
-156
-156
-156
-156
-156
-156
-156
-156
-157
-156
-156
-156
-156
-156
-157
-156
-156
-156
-156
-157
-156
-156
-156
-156
-155
-156
-156
-155
-155
-155
-155
-154
-155
-155
-154
-154
-153
-153
-153
-153
-153
-152
-152
-152
-152
-152
-152
-151
-151
-151
-151
-150
-150
-151
-150
-149
-149
-149
-149
-148
-149
-148
-147
-148
-147
-147
-146
-147
-147
-146
-146
-145
-146
-146
-145
-145
-145
-146
-146
-146
-146
-147
-146
-146
-146
-147
-146
-146
-147
-147
-146
-146
-147
-146
-146
-147
-146
-146
-147
-146
-146
-146
-146
-146
-145
-145
-146
-145
-145
-145
-144
-144
-143
-143
-143
-143
-143
-143
-143
-143
-143
-142
-142
-142
-142
-142
-142
-142
-142
-142
-142
-142
-142
-142
-142
-142
-142
-142
