# Simple Text Format
# Sampling Rate (Hz):= 1200.00
# Resolution:= 12
# Labels:= ECG	aVF
# Age:=	52
# Gender:=	Feminino
-244
-244
-244
-244
-244
-243
-243
-243
-243
-243
-243
-243
-243
-243
-243
-243
-243
-243
-243
-243
-243
-243
-243
-243
-243
-243
-243
-244
-244
-244
-244
-243
-243
-243
-243
-243
-242
-242
-242
-242
-242
-241
-241
-240
-240
-239
-239
-239
-239
-238
-237
-237
-236
-235
-233
-232
-231
-229
-227
-225
-223
-221
-218
-216
-213
-210
-207
-204
-201
-198
-195
-192
-190
-187
-184
-181
-178
-176
-173
-171
-169
-167
-165
-163
-161
-159
-158
-156
-155
-153
-152
-151
-149
-148
-147
-146
-144
-143
-142
-141
-141
-140
-139
-138
-137
-136
-136
-135
-134
-134
-133
-132
-132
-131
-130
-130
-129
-129
-128
-128
-128
-127
-127
-126
-126
-126
-125
-125
-124
-124
-124
-124
-123
-123
-123
-123
-122
-122
-122
-121
-121
-121
-120
-120
-120
-120
-120
-119
-119
-118
-118
-118
-118
-118
-117
-117
-117
-116
-116
-115
-115
-115
-115
-115
-115
-114
-114
-114
-114
-114
-114
-114
-114
-114
-114
-114
-114
-115
-114
-114
-115
-115
-115
-115
-115
-115
-115
-115
-115
-115
-115
-115
-115
-114
-114
-114
-114
-114
-114
-114
-114
-114
-113
-113
-113
-113
-113
-113
-112
-112
-112
-112
-112
-112
-112
-112
-112
-112
-112
-112
-112
-112
-112
-112
-112
-112
-112
-112
-112
-112
-112
-111
-111
-111
-110
-110
-110
-109
-109
-108
-108
-107
-107
-106
-106
-105
-104
-104
-103
-102
-102
-101
-100
-100
-99
-98
-97
-97
-96
-96
-95
-95
-94
-94
-93
-92
-92
-91
-91
-90
-90
-89
-88
-87
-87
-86
-86
-85
-84
-83
-83
-82
-82
-81
-81
-81
-80
-80
-79
-79
-79
-79
-78
-79
-78
-78
-78
-77
-77
-76
-76
-76
-75
-74
-74
-74
-73
-73
-72
-72
-71
-71
-71
-71
-71
-70
-70
-70
-71
-71
-71
-72
-73
-74
-74
-75
-76
-77
-78
-79
-80
-81
-82
-83
-84
-85
-86
-87
-88
-89
-90
-91
-91
-92
-92
-93
-94
-94
-95
-95
-96
-97
-98
-99
-99
-100
-101
-101
-103
-104
-105
-105
-106
-107
-108
-109
-110
-111
-112
-113
-113
-114
-115
-115
-116
-117
-117
-117
-118
-118
-118
-119
-119
-119
-120
-120
-120
-121
-121
-121
-121
-122
-122
-122
-122
-122
-122
-122
-122
-122
-122
-122
-122
-122
-122
-122
-121
-121
-121
-121
-120
-120
-120
-120
-119
-119
-119
-119
-119
-119
-119
-119
-119
-119
-120
-120
-120
-120
-120
-121
-121
-121
-121
-121
-121
-121
-121
-121
-122
-122
-122
-122
-123
-123
-123
-124
-124
-124
-125
-125
-125
-126
-126
-127
-127
-127
-128
-128
-128
-127
-127
-126
-125
-125
-123
-122
-121
-119
-117
-115
-112
-110
-107
-104
-100
-97
-93
-90
-86
-83
-79
-76
-73
-71
-69
-67
-65
-62
-60
-58
-55
-53
-52
-51
-50
-50
-50
-50
-51
-51
-52
-53
-54
-55
-57
-59
-61
-64
-67
-71
-74
-78
-82
-85
-89
-93
-96
-99
-103
-105
-108
-110
-112
-114
-116
-117
-119
-119
-120
-121
-121
-121
-121
-122
-122
-122
-122
-121
-121
-120
-120
-120
-119
-119
-119
-118
-118
-118
-117
-118
-117
-117
-117
-117
-117
-117
-117
-117
-117
-117
-117
-117
-117
-117
-117
-118
-118
-118
-118
-118
-118
-118
-118
-118
-118
-118
-118
-118
-118
-118
-118
-118
-118
-117
-117
-117
-117
-117
-117
-117
-117
-117
-117
-117
-117
-117
-117
-118
-118
-118
-118
-118
-119
-119
-120
-120
-120
-121
-121
-121
-121
-122
-122
-122
-123
-123
-123
-123
-123
-123
-123
-124
-124
-124
-124
-124
-124
-124
-124
-124
-124
-124
-124
-124
-125
-125
-125
-125
-125
-125
-125
-125
-125
-125
-125
-126
-126
-126
-126
-126
-127
-127
-127
-127
-127
-127
-127
-127
-128
-128
-128
-128
-128
-128
-128
-128
-128
-128
-128
-128
-128
-128
-127
-127
-127
-127
-127
-127
-127
-127
-127
-127
-127
-126
-126
-126
-126
-126
-126
-126
-126
-125
-125
-125
-125
-125
-125
-125
-125
-125
-125
-125
-125
-125
-125
-125
-125
-125
-125
-125
-125
-125
-125
-125
-125
-125
-125
-125
-125
-125
-125
-126
-126
-126
-126
-126
-125
-125
-125
-125
-124
-124
-124
-123
-123
-123
-123
-123
-122
-122
-122
-122
-122
-122
-122
-123
-123
-123
-123
-123
-123
-123
-123
-123
-123
-123
-123
-123
-123
-123
-123
-123
-123
-123
-123
-123
-123
-123
-123
-122
-122
-122
-122
-122
-121
-121
-121
-120
-120
-120
-120
-120
-120
-119
-119
-119
-119
-118
-118
-118
-118
-118
-118
-117
-117
-117
-117
-117
-116
-117
-116
-116
-116
-116
-115
-115
-114
-114
-113
-113
-113
-112
-112
-112
-111
-111
-110
-110
-109
-109
-108
-108
-107
-107
-106
-106
-105
-105
-104
-104
-103
-103
-102
-102
-101
-100
-100
-99
-99
-99
-98
-98
-98
-98
-98
-97
-97
-97
-97
-97
-96
-96
-96
-96
-96
-96
-96
-95
-95
-95
-95
-95
-95
-95
-94
-94
-94
-94
-95
-95
-94
-94
-94
-94
-94
-94
-94
-94
-94
-94
-94
-93
-93
-94
-94
-94
-94
-94
-94
-94
-94
-94
-95
-95
-95
-95
-95
-96
-96
-97
-97
-97
-98
-98
-98
-99
-99
-100
-100
-101
-101
-101
-101
-102
-102
-103
-103
-104
-104
-104
-105
-105
-106
-106
-107
-107
-108
-108
-109
-110
-110
-111
-112
-113
-113
-114
-115
-116
-117
-117
-118
-119
-120
-121
-122
-123
-123
-124
-125
-125
-126
-127
-127
-128
-128
-129
-129
-130
-130
-130
-131
-131
-131
-132
-132
-133
-133
-134
-134
-134
-135
-135
-135
-135
-135
-136
-136
-136
-137
-137
-137
-137
-137
-137
-137
-137
-138
-138
-138
-138
-138
-138
-138
-138
-139
-139
-139
-140
-140
-141
-141
-141
-142
-142
-142
-142
-143
-143
-143
-144
-144
-144
-144
-144
-144
-144
-144
-144
-144
-144
-144
-144
-144
-144
-144
-144
-144
-144
-144
-144
-144
-144
-144
-144
-143
-143
-143
-143
-143
-143
-143
-143
-143
-143
-143
-143
-143
-143
-143
-143
-143
-143
-143
-143
-143
-143
-144
-144
-144
-144
-144
-144
-144
-145
-145
-145
-145
-145
-145
-145
-145
-145
-145
-145
-145
-145
-145
-145
-144
-144
-144
-144
-144
-144
-144
-143
-143
-143
-143
-143
-143
-143
-142
-142
-142
-142
-142
-142
-142
-142
-142
-142
-142
-142
-142
-142
-142
-142
-142
-142
-142
-142
-141
-141
-141
-141
-141
-141
-141
-141
-140
-140
-140
-140
-140
-140
-140
-140
-140
-140
-140
-141
-141
-141
-141
-141
-141
-141
-141
-141
-141
-141
-141
-141
-141
-142
-142
-142
-142
-143
-143
-143
-143
-143
-144
-144
-144
-144
-145
-145
-145
-146
-146
-146
-146
-147
-147
-147
-147
-147
-148
-148
-148
-148
-148
-148
-148
-149
-149
-149
-149
-149
-149
-149
-149
-149
-149
-149
-150
-150
-150
-150
-150
-150
-150
-150
-150
-150
-150
-150
-150
-150
-150
-150
-150
-150
-150
-151
-151
-151
-151
-151
-151
-151
-151
-151
-151
-152
-152
-152
-152
-152
-153
-153
-153
-153
-153
-153
-153
-153
-153
-153
-153
-154
-154
-154
-154
-154
-153
-153
-153
-153
-153
-153
-153
-153
-153
-153
-152
-152
-151
-151
-150
-150
-149
-149
-148
-148
-147
-147
-146
-145
-144
-144
-143
-142
-141
-141
-140
-140
-139
-138
-138
-138
-137
-137
-137
-136
-136
-136
-135
-135
-135
-134
-134
-134
-133
-133
-132
-132
-131
-131
-131
-131
-131
-130
-130
-129
-129
-129
-129
-129
-128
-128
-128
-128
-128
-127
-127
-127
-126
-126
-126
-125
-125
-124
-124
-124
-124
-124
-123
-123
-123
-123
-123
-123
-123
-123
-124
-124
-124
-125
-125
-126
-126
-127
-128
-129
-130
-131
-132
-133
-133
-134
-135
-136
-138
-139
-140
-141
-142
-143
-144
-144
-145
-146
-147
-148
-148
-149
-150
-150
-151
-152
-152
-153
-154
-154
-155
-155
-156
-156
-157
-157
-158
-159
-159
-159
-160
-160
-161
-162
-162
-162
-163
-163
-164
-164
-165
-165
-165
-166
-167
-167
-167
-168
-168
-169
-169
-169
-170
-170
-170
-171
-171
-171
-171
-172
-172
-172
-172
-172
-172
-173
-173
-173
-173
-173
-173
-173
-174
-174
-174
-174
-174
-174
-174
-174
-174
-174
-174
-174
-174
-174
-175
-175
-175
-175
-175
-175
-175
-175
-175
-175
-175
-176
-175
-175
-175
-176
-176
-176
-176
-176
-176
-177
-177
-177
-177
-177
-177
-178
-177
-178
-177
-178
-178
-178
-178
-178
-178
-178
-177
-177
-176
-175
-174
-172
-171
-169
-167
-165
-162
-160
-157
-154
-151
-147
-144
-141
-137
-134
-131
-129
-127
-125
-123
-121
-119
-116
-114
-113
-111
-109
-109
-109
-109
-109
-109
-109
-110
-111
-112
-113
-114
-116
-118
-120
-122
-125
-127
-130
-133
-137
-139
-142
-145
-148
-150
-152
-154
-156
-158
-159
-161
-162
-163
-165
-166
-166
-167
-168
-169
-169
-170
-171
-171
-172
-172
-173
-173
-173
-173
-173
-173
-173
-173
-173
-173
-172
-172
-172
-172
-172
-171
-171
-171
-171
-170
-170
-170
-170
-170
-170
-170
-170
-170
-170
-170
-170
-170
-170
-170
-170
-170
-170
-170
-170
-171
-171
-171
-171
-171
-171
-172
-172
-172
-172
-172
-172
-172
-172
-172
-172
-172
-172
-172
-172
-172
-172
-172
-173
-173
-173
-174
-174
-174
-174
-174
-175
-175
-175
-175
-175
-175
-175
-176
-176
-176
-176
-176
-176
-176
-176
-176
-175
-175
-175
-175
-175
-175
-175
-175
-175
-175
-175
-175
-175
-175
-175
-175
-175
-175
-175
-174
-174
-174
-174
-174
-175
-175
-175
-175
-175
-175
-175
-176
-176
-176
-176
-176
-176
-176
-176
-176
-176
-176
-176
-177
-177
-177
-177
-177
-177
-177
-177
-177
-177
-178
-178
-178
-178
-178
-178
-177
-177
-177
-177
-177
-177
-177
-177
-176
-176
-176
-176
-176
-176
-176
-175
-175
-174
-174
-174
-174
-174
-174
-173
-173
-173
-173
-173
-173
-173
-173
-174
-173
-174
-174
-174
-174
-175
-175
-175
-176
-175
-176
-176
-176
-176
-176
-177
-177
-176
-176
-176
-176
-176
-176
-175
-175
-175
-175
-175
-175
-175
-174
-174
-174
-173
-173
-173
-173
-172
-172
-172
-172
-172
-172
-172
-171
-171
-171
-171
-171
-170
-170
-170
-170
-170
-170
-170
-169
-169
-169
-169
-168
-168
-168
-168
-167
-167
-167
-167
-167
-166
-166
-166
-167
-166
-166
-166
-166
-166
-166
-166
-166
-166
-166
-166
-166
-166
-165
-165
-165
-164
-164
-163
-163
-163
-162
-162
-161
-160
-160
-159
-159
-159
-159
-158
-158
-158
-157
-157
-157
-157
-156
-156
-156
-156
-156
-156
-155
-155
-155
-155
-154
-154
-154
-153
-153
-153
-153
-153
-152
-152
-152
-152
-152
-152
-151
-151
-151
-150
-150
-150
-150
-150
-149
-149
-149
-149
-149
-148
-148
-148
-147
-147
-146
-146
-146
-145
-145
-145
-144
-144
-144
-144
-143
-143
-143
-143
-143
-143
-143
-143
-143
-143
-143
-144
-144
-144
-144
-145
-145
-145
-146
-146
-146
-147
-147
-147
-148
-148
-148
-149
-149
-149
-149
-150
-150
-151
-151
-151
-152
-152
-152
-153
-153
-154
-154
-155
-155
-156
-157
-157
-158
-159
-159
-160
-161
-162
-162
-163
-164
-164
-165
-166
-166
-167
-168
-168
-169
-169
-170
-170
-171
-172
-172
-173
-173
-173
-174
-175
-175
-175
-176
-176
-176
-177
-177
-177
-178
-178
-179
-179
-180
-180
-181
-181
-182
-182
-183
-183
-183
-184
-184
-184
-185
-185
-185
-186
-186
-186
-186
-187
-187
-187
-187
-187
-187
-187
-188
-188
-188
-188
-188
-188
-189
-189
-189
-189
-190
-190
-190
-190
-190
-190
-191
-191
-191
-191
-191
-191
-191
-191
-191
-191
-191
-191
-191
-190
-190
-190
-190
-190
-190
-190
-190
-190
-190
-190
-190
-190
-190
-190
-190
-190
-190
-190
-190
-189
-189
-189
-189
-189
-189
-189
-188
-188
-188
-188
-187
-187
-187
-187
-187
-187
-187
-187
-187
-186
-186
-186
-186
-186
-186
-186
-186
-186
-187
-187
-186
-186
-187
-187
-187
-187
-187
-187
-187
-187
-187
-187
-187
-186
-186
-186
-186
-186
-186
-186
-185
-185
-185
-185
-184
-184
-184
-184
-183
-183
-183
-182
-182
-182
-182
-182
-182
-182
-182
-182
-182
-182
-182
-182
-182
-182
-182
-182
-182
-182
-183
-183
-183
-183
-183
-183
-183
-182
-182
-182
-182
-182
-182
-182
-182
-183
-183
-183
-183
-183
-183
-183
-184
-184
-184
-185
-185
-185
-185
-186
-186
-186
-187
-187
-187
-187
-187
-187
-187
-188
-188
-188
-188
-188
-188
-188
-189
-189
-189
-189
-189
-189
-189
-189
-189
-189
-189
-189
-189
-189
-189
-189
-189
-189
-189
-189
-189
-189
-189
-189
-189
-189
-189
-189
-189
-190
-190
-190
-190
-190
-190
-191
-191
-191
-191
-191
-191
-192
-192
-192
-192
-192
-192
-193
-193
-193
-193
-193
-193
-193
-193
-193
-193
-193
-192
-192
-192
-192
-192
-192
-192
-192
-192
-192
-192
-192
-192
-192
-192
-192
-192
-192
-192
-192
-192
-193
-193
-192
-193
-193
-193
-192
-192
-192
-192
-191
-191
-190
-190
-189
-189
-188
-188
-187
-186
-185
-184
-184
-183
-182
-182
-181
-181
-180
-180
-179
-179
-178
-178
-178
-178
-177
-177
-177
-176
-176
-176
-175
-175
-174
-174
-173
-173
-173
-172
-172
-172
-172
-171
-171
-171
-171
-171
-170
-170
-170
-170
-170
-170
-169
-169
-168
-168
-168
-167
-167
-166
-165
-165
-164
-164
-163
-163
-162
-161
-160
-160
-160
-160
-159
-159
-160
-160
-160
-160
-161
-162
-163
-163
-164
-165
-167
-167
-169
-170
-171
-173
-174
-175
-176
-178
-179
-180
-181
-182
-182
-183
-184
-185
-185
-186
-187
-187
-188
-188
-189
-190
-190
-191
-191
-192
-192
-193
-194
-194
-195
-195
-196
-197
-197
-198
-198
-199
-199
-200
-200
-201
-202
-202
-202
-203
-203
-204
-204
-205
-205
-205
-206
-206
-206
-206
-207
-207
-207
-207
-207
-207
-207
-207
-207
-207
-207
-207
-207
-207
-207
-207
-207
-207
-207
-207
-208
-208
-208
-208
-209
-208
-208
-209
-209
-209
-209
-209
-209
-209
-210
-210
-210
-210
-210
-210
-210
-210
-210
-210
-210
-210
-210
-210
-210
-210
-210
-210
-210
-210
-211
-211
-211
-212
-212
-212
-213
-213
-213
-214
-214
-214
-215
-215
-216
-216
-217
-217
-217
-217
-217
-217
-216
-216
-215
-214
-214
-213
-212
-210
-209
-207
-205
-203
-200
-198
-195
-192
-189
-186
-183
-180
-177
-174
-172
-170
-168
-166
-164
-162
-159
-157
-155
-153
-152
-151
-151
-151
-151
-151
-151
-151
-152
-153
-153
-154
-155
-157
-159
-161
-163
-166
-168
-171
-174
-177
-179
-182
-185
-187
-190
-192
-194
-197
-198
-200
-202
-203
-204
-206
-207
-208
-208
-209
-209
-210
-211
-211
-211
-211
-211
-211
-211
-211
-210
-210
-209
-209
-209
-208
-207
-207
-206
-206
-206
-206
-205
-205
-205
-205
-205
-205
-205
-205
-205
-205
-205
-205
-205
-206
-206
-206
-206
-206
-207
-207
-207
-207
-207
-207
-207
-208
-208
-208
-208
-209
-209
-209
-209
-209
-209
-209
-209
-209
-209
-209
-209
-209
-209
-209
-209
-209
-208
-208
-208
-208
-208
-208
-208
-208
-208
-208
-208
-208
-208
-208
-208
-208
-209
-209
-209
-209
-209
-209
-209
-209
-209
-209
-209
-209
-209
-210
-210
-210
-210
-210
-210
-210
-210
-210
-210
-210
-210
-210
-210
-210
-210
-210
-210
-210
-210
-210
-210
-210
-210
-210
-211
-211
-211
-211
-211
-211
-211
-211
-211
-211
-211
-211
-211
-211
-210
-210
-210
-209
-209
-209
-209
-209
-209
-208
-208
-208
-208
-208
-208
-207
-207
-207
-207
-207
-206
-206
-206
-206
-206
-206
-206
-206
-206
-206
-207
-207
-207
-207
-207
-208
-208
-208
-209
-209
-209
-209
-210
-210
-210
-211
-211
-211
-211
-211
-211
-211
-211
-211
-211
-211
-210
-210
-210
-210
-210
-209
-209
-208
-208
-208
-208
-208
-208
-207
-207
-207
-206
-206
-206
-205
-205
-205
-205
-204
-204
-204
-203
-203
-203
-203
-202
-202
-202
-202
-202
-202
-202
-202
-201
-202
-202
-202
-201
-202
-202
-202
-201
-201
-201
-202
-201
-201
-201
-201
-201
-201
-201
-201
-201
-201
-201
-201
-201
-201
-201
-201
-201
-201
-201
-201
-201
-201
-201
-201
-200
-200
-199
-199
-199
-198
-198
-197
-197
-196
-196
-196
-195
-195
-194
-194
-194
-193
-193
-193
-192
-192
-191
-191
-191
-191
-191
-190
-190
-189
-189
-189
-188
-188
-188
-187
-187
-186
-186
-185
-185
-185
-184
-184
-183
-183
-182
-182
-182
-181
-181
-181
-180
-180
-180
-180
-180
-180
-180
-179
-179
-179
-179
-180
-179
-179
-179
-180
-180
-179
-179
-179
-179
-179
-179
-179
-179
-179
-179
-178
-178
-178
-178
-178
-178
-177
-177
-177
-177
-177
-177
-177
-177
-178
-178
-178
-178
-178
-179
-179
-180
-180
-180
-180
-181
-181
-181
-182
-182
-183
-183
-184
-184
-184
-185
-186
-186
-187
-187
-188
-188
-189
-189
-189
-190
-190
-191
-191
-192
-192
-192
-192
-193
-193
-193
-194
-194
-194
-194
-194
-195
-195
-196
-196
-197
-198
-198
-199
-199
-200
-201
-201
-202
-202
-203
-203
-204
-205
-205
-205
-205
-206
-206
-206
-206
-206
-206
-207
-206
-207
-206
-207
-206
-206
-207
-206
-207
-207
-207
-207
-207
-207
-207
-207
-207
-208
-208
-209
-209
-209
-209
-210
-210
-210
-211
-211
-211
-211
-212
-212
-212
-212
-213
-213
-214
-214
-214
-214
-215
-215
-216
-216
-216
-216
-216
-216
-217
-217
-217
-217
-217
-217
-217
-217
-217
-217
-217
-217
-216
-216
-216
-216
-216
-216
-216
-216
-216
-216
-215
-215
-215
-215
-215
-215
-215
-215
-216
-216
-216
-216
-216
-216
-216
-216
-215
-215
-215
-215
-215
-215
-215
-215
-215
-215
-214
-214
-214
-214
-213
-213
-213
-212
-212
-212
-211
-211
-211
-211
-211
-210
-210
-210
-210
-210
-210
-210
-210
-210
-210
-210
-210
-210
-210
-211
-211
-211
-211
-211
-211
-212
-212
-212
-211
-211
-211
-211
-210
-210
-210
-210
-210
-209
-209
-208
-208
-208
-207
-207
-207
-207
-206
-206
-206
-206
-206
-206
-206
-206
-206
-206
-206
-206
-206
-206
-207
-207
-207
-208
-208
-208
-208
-208
-209
-209
-210
-210
-210
-210
-210
-211
-211
-211
-211
-212
-212
-212
-212
-212
-213
-213
-213
-213
-213
-213
-213
-213
-213
-213
-213
-213
-213
-213
-213
-213
-212
-212
-212
-212
-212
-212
-212
-212
-212
-212
-213
-213
-213
-213
-213
-214
-214
-214
-214
-214
-215
-215
-215
-216
-216
-216
-216
-216
-217
-217
-217
-218
-218
-218
-218
-219
-219
-219
-219
-219
-219
-218
-218
-218
-218
-218
-218
-218
-217
-217
-217
-217
-217
-217
-217
-218
-218
-218
-218
-218
-218
-218
-218
-218
-218
-219
-219
-219
-219
-219
-219
-219
-219
-219
-219
-219
-218
-218
-218
-218
-218
-218
-218
-217
-217
-217
-217
-216
-216
-216
-216
-215
-215
-214
-214
-214
-213
-212
-212
-211
-211
-210
-209
-209
-208
-208
-208
-207
-206
-206
-206
-205
-205
-205
-205
-205
-205
-205
-205
-205
-205
-205
-205
-204
-205
-204
-204
-205
-204
-204
-204
-204
-203
-203
-203
-202
-202
-201
-201
-200
-200
-199
-199
-199
-198
-198
-198
-197
-197
-196
-196
-196
-195
-195
-194
-194
-193
-193
-193
-192
-192
-191
-191
-191
-190
-190
-190
-189
-189
-189
-189
-190
-190
-190
-190
-191
-191
-192
-193
-193
-195
-195
-196
-197
-198
-199
-200
-201
-202
-203
-204
-205
-206
-207
-207
-208
-208
-209
-209
-210
-210
-210
-210
-211
-211
-211
-211
-212
-212
-212
-213
-213
-213
-214
-214
-215
-215
-216
-217
-218
-219
-219
-220
-221
-222
-223
-224
-224
-225
-226
-227
-227
-228
-229
-229
-230
-230
-230
-231
-231
-231
-231
-231
-232
-232
-232
-232
-232
-232
-232
-231
-232
-232
-232
-231
-231
-231
-231
-231
-231
-231
-231
-231
-231
-231
-231
-231
-231
-232
-232
-232
-232
-232
-232
-232
-232
-233
-233
-233
-233
-233
-233
-233
-233
-233
-233
-233
-233
-233
-233
-233
-233
-233
-233
-234
-234
-234
-234
-235
-235
-235
-236
-236
-236
-236
-236
-237
-237
-238
-238
-238
-238
-239
-239
-238
-238
-238
-238
-237
-237
-236
-236
-235
-234
-233
-232
-230
-229
-226
-225
-222
-220
-217
-214
-212
-209
-206
-203
-201
-198
-196
-195
-193
-191
-189
-188
-185
-183
-181
-179
-178
-177
-177
-177
-176
-176
-176
-177
-176
-177
-177
-178
-179
-181
-182
-184
-186
-188
-191
-193
-196
-198
-201
-204
-206
-208
-210
-213
-215
-217
-218
-220
-221
-223
-224
-225
-226
-228
-228
-229
-230
-230
-231
-232
-232
-232
-233
-233
-232
-232
-232
-232
-232
-232
-232
-231
-231
-231
-230
-230
-230
-230
-230
-229
-229
-229
-229
-229
-229
-229
-229
-229
-228
-228
-228
-228
-228
-228
-228
-228
-228
-228
-228
-227
-227
-227
-227
-227
-227
-226
-226
-226
-226
-225
-225
-225
-225
-225
-225
-225
-225
-225
-225
-225
-226
-226
-226
-226
-227
-227
-227
-227
-227
-228
-228
-228
-228
-228
-228
-229
-229
-229
-229
-229
-229
-228
-228
-228
-228
-228
-228
-228
-228
-228
-228
-228
-228
-228
-228
-227
-227
-227
-227
-227
-227
-227
-227
-227
-227
-227
-227
-227
-227
-228
-228
-229
-229
-229
-229
-230
-230
-230
-230
-230
-230
-230
-229
-229
-229
-229
-229
-229
-229
-228
-228
-228
-228
-227
-227
-227
-227
-227
-227
-227
-226
-226
-226
-226
-226
-226
-226
-226
-226
-225
-225
-225
-225
-225
-225
-225
-224
-224
-224
-224
-224
-224
-225
-224
-224
-224
-224
-224
-224
-224
-224
-224
-224
-224
-224
-224
-224
-224
-223
-223
-223
-223
-223
-222
-222
-222
-222
-222
-222
-222
-222
-222
-222
-221
-221
-221
-221
-221
-221
-221
-221
-221
-220
-220
-220
-220
-219
-219
-219
-218
-218
-218
-217
-217
-217
-217
-216
-216
-216
-215
-215
-215
-215
-214
-214
-214
-214
-214
-214
-214
-214
-214
-214
-213
-213
-213
-213
-213
-213
-213
-212
-212
-211
-211
-211
-211
-210
-210
-210
-210
-210
-209
-210
-209
-210
-210
-209
-209
-209
-210
-209
-209
-210
-209
-209
-209
-209
-208
-208
-208
-207
-207
-207
-206
-206
-205
-205
-204
-204
-203
-203
-203
-202
-202
-201
-201
-200
-200
-200
-199
-199
-198
-198
-198
-198
-198
-197
-197
-197
-197
-197
-197
-196
-196
-196
-196
-196
-196
-196
-196
-196
-196
-196
-196
-195
-195
-195
-194
-194
-193
-193
-193
-192
-192
-191
-191
-191
-190
-190
-189
-189
-188
-188
-188
-187
-187
-187
-186
-186
-187
-187
-186
-186
-186
-186
-186
-186
-186
-187
-187
-187
-187
-187
-187
-187
-188
-188
-188
-188
-188
-189
-189
-189
-189
-190
-190
-190
-191
-191
-191
-192
-192
-192
-192
-193
-193
-194
-194
-194
-195
-196
-196
-196
-197
-197
-198
-199
-200
-200
-201
-201
-202
-203
-203
-204
-204
-205
-205
-206
-206
-207
-207
-208
-208
-208
-209
-209
-210
-210
-211
-211
-212
-212
-212
-213
-213
-213
-214
-215
-215
-215
-216
-216
-217
-217
-218
-218
-218
-219
-219
-220
-220
-220
-221
-221
-221
-222
-222
-222
-222
-223
-223
-223
-223
-224
-224
-224
-224
-225
-225
-225
-226
-226
-226
-226
-227
-227
-227
-227
-227
-227
-227
-227
-227
-228
-228
-228
-228
-229
-229
-229
-229
-229
-229
-229
-229
-229
-229
-230
-230
-230
-230
-230
-230
-230
-230
-230
-230
-230
-230
-230
-229
-229
-229
-229
-229
-228
-228
-228
-227
-227
-227
-227
-226
-226
-226
-226
-226
-225
-225
-225
-225
-226
-226
-226
-226
-226
-226
-226
-226
-226
-226
-226
-226
-225
-226
-226
-225
-225
-225
-225
-225
-225
-225
-224
-224
-224
-224
-225
-225
-225
-225
-225
-225
-225
-225
-225
-225
-225
-225
-225
-225
-225
-225
-225
-225
-224
-224
-224
-224
-223
-223
-223
-223
-223
-222
-222
-222
-222
-222
-222
-222
-221
-221
-221
-221
-221
-222
-222
-222
-222
-222
-222
-222
-222
-223
-223
-223
-223
-223
-223
-223
-223
-224
-224
-224
-224
-224
-224
-224
-224
-224
-225
-225
-225
-225
-225
-225
-226
-226
-226
-226
-226
-226
-226
-227
-227
-227
-228
-228
-228
-228
-229
-229
-229
-229
-229
-229
-229
-229
-229
-229
-229
-229
-229
-229
-229
-229
-229
-229
-228
-228
-228
-228
-227
-227
-227
-227
-227
-227
-227
-227
-227
-227
-227
-227
-227
-227
-228
-228
-228
-228
-229
-229
-230
-230
-230
-231
-231
-232
-232
-233
-233
-233
-233
-234
-234
-234
-234
-234
-234
-234
-234
-234
-233
-233
-232
-232
-232
-232
-232
-232
-231
-231
-231
-231
-230
-231
-230
-230
-230
-230
-230
-231
-231
-231
-231
-231
-231
-232
-232
-232
-232
-233
-233
-233
-233
-233
-234
-234
-234
-234
-234
-234
-234
-234
-235
-235
-235
-235
-235
-235
-235
-235
-235
-235
-236
-236
-236
-236
-237
-236
-236
-236
-236
-236
-237
-237
-237
-236
-236
-236
-236
-236
-236
-236
-236
-236
-236
-236
-235
-235
-235
-235
-234
-234
-234
-234
-234
-234
-233
-233
-233
-233
-233
-233
-233
-232
-232
-232
-232
-232
-232
-232
-232
-231
-231
-231
-231
-230
-230
-229
-229
-228
-227
-227
-226
-225
-225
-224
-223
-222
-222
-221
-220
-219
-219
-218
-218
-217
-216
-215
-215
-214
-214
-214
-214
-213
-214
-213
-213
-213
-213
-213
-213
-213
-214
-214
-214
-214
-214
-215
-215
-215
-215
-215
-215
-215
-214
-214
-213
-213
-213
-212
-211
-211
-210
-210
-209
-208
-208
-207
-206
-206
-205
-205
-205
-205
-204
-204
-204
-204
-204
-205
-206
-206
-207
-208
-209
-209
-210
-211
-212
-214
-215
-216
-217
-218
-219
-220
-221
-222
-223
-223
-224
-225
-226
-226
-227
-227
-227
-228
-228
-229
-229
-229
-230
-231
-231
-232
-232
-233
-234
-235
-236
-237
-238
-238
-239
-240
-241
-241
-242
-242
-242
-243
-243
-244
-244
-244
-244
-244
-244
-244
-244
-244
-244
-244
-244
-244
-244
-245
-245
-246
-246
-247
-247
-247
-248
-248
-249
-249
-250
-250
-250
-250
-250
-250
-249
-249
-249
-249
-248
-248
-248
-247
-247
-247
-247
-247
-247
-248
-248
-248
-248
-249
-249
-249
-250
-251
-251
-251
-252
-252
-252
-253
-253
-253
-253
-253
-253
-253
-253
-253
-253
-253
-253
-253
-254
-253
-254
-254
-254
-255
-256
-256
-256
-257
-257
-258
-258
-259
-259
-258
-258
-258
-257
-256
-255
-254
-253
-251
-249
-247
-244
-241
-238
-235
-231
-227
-224
-219
-215
-212
-208
-204
-201
-198
-194
-191
-187
-183
-180
-176
-173
-169
-167
-165
-164
-163
-162
-161
-161
-161
-162
-163
-164
-166
-169
-171
-175
-179
-183
-187
-192
-197
-202
-207
-211
-216
-220
-224
-228
-231
-235
-238
-240
-242
-244
-246
-248
-249
-249
-250
-251
-251
-251
-251
-251
-251
-251
-251
-250
-250
-249
-249
-249
-248
-248
-247
-246
-246
-245
-245
-244
-244
-244
-243
-243
-243
-243
-243
-243
-243
-243
-243
-243
-244
-244
-244
-244
-245
-245
-245
-246
-246
-246
-246
-246
-246
-246
-246
-246
-247
-247
-247
-247
-248
-248
-248
-248
-248
-249
-249
-249
-249
-249
-249
-249
-249
-249
-249
-249
-249
-249
-248
-248
-248
-248
-247
-247
-246
-246
-246
-245
-245
-244
-244
-244
-244
-243
-243
-243
-243
-243
-243
-243
-243
-243
-243
-244
-244
-244
-245
-245
-245
-245
-246
-246
-246
-247
-247
-247
-247
-247
-248
-248
-248
-248
-248
-248
-248
-248
-248
-248
-248
-248
-248
-248
-248
-248
-248
-248
-248
-248
-248
-249
-249
-249
-249
-249
-249
-249
-249
-249
-248
-248
-248
-247
-247
-247
-246
-246
-246
-246
-245
-245
-245
-244
-244
-244
-244
-244
-244
-244
-244
-244
-244
-244
-244
-244
-244
-245
-245
-245
-245
-245
-245
-245
-245
-245
-245
-246
-246
-246
-246
-246
-246
-245
-245
-245
-245
-245
-245
-245
-244
-244
-244
-244
-244
-243
-243
-243
-243
-243
-242
-242
-242
-242
-242
-242
-242
-242
-241
-241
-241
-241
-241
-241
-241
-241
-241
-241
-241
-240
-240
-240
-240
-240
-240
-239
-239
-239
-238
-238
-238
-237
-237
-237
-237
-237
-236
-236
-236
-236
-236
-236
-236
-236
-236
-236
-236
-236
-236
-236
-236
-236
-236
-236
-236
-236
-236
-236
-235
-235
-235
-235
-235
-235
-235
-235
-235
-235
-235
-235
-234
-234
-234
-233
-233
-233
-232
-232
-232
-231
-231
-231
-230
-230
-230
-229
-228
-228
-228
-227
-227
-227
-226
-226
-226
-226
-226
-225
-225
-225
-225
-225
-225
-224
-224
-224
-224
-224
-224
-224
-224
-223
-223
-223
-223
-223
-223
-223
-223
-222
-222
-222
-222
-222
-221
-221
-221
-221
-221
-220
-220
-219
-219
-219
-218
-218
-218
-218
-218
-217
-217
-217
-217
-217
-218
-218
-218
-218
-218
-218
-219
-219
-219
-219
-220
-220
-220
-221
-221
-221
-221
-222
-222
-222
-222
-222
-223
-223
-223
-223
-223
-223
-223
-224
-224
-224
-224
-225
-225
-225
-225
-225
-226
-226
-226
-226
-226
-226
-226
-226
-226
-226
-227
-227
-227
-227
-227
-228
-228
-228
-228
-229
-229
-230
-230
-231
-231
-232
-232
-233
-233
-234
-234
-235
-235
-236
-236
-237
-237
-238
-238
-238
-239
-240
-240
-241
-241
-242
-242
-242
-243
-243
-244
-244
-244
-245
-245
-246
-246
-247
-247
-248
-248
-249
-249
-250
-250
-250
-251
-251
-251
-251
-251
-251
-251
-251
-251
-251
-250
-250
-250
-250
-250
-250
-250
-250
-250
-250
-250
-250
-250
-250
-250
-250
-251
-251
-251
-252
-252
-252
-251
-252
-252
-252
-252
-252
-251
-251
-251
-251
-251
-251
-251
-251
-251
-251
-251
-251
-251
-251
-251
-251
-251
-251
-251
-251
-251
-251
-251
-251
-251
-251
-251
-251
-251
-251
-251
-250
-250
-250
-250
-250
-250
-249
-249
-249
-248
-248
-248
-247
-247
-247
-247
-246
-246
-246
-246
-246
-246
-246
-246
-246
-246
-246
-246
-246
-246
-246
-246
-246
-246
-246
-246
-246
-246
-246
-246
-246
-246
-246
-246
-246
-245
-245
-245
-245
-245
-244
-244
-244
-244
-244
-244
-244
-244
-244
-244
-243
-243
-243
-243
-243
-243
-243
-243
-243
-243
-243
-243
-243
-243
-243
-243
-243
-243
-243
-243
-244
-244
-244
-243
-243
-243
-243
-243
-243
-243
-243
-243
-243
-243
-243
-243
-243
-243
-243
-243
-243
-243
-243
-244
-244
-244
-245
-245
-245
-246
-246
-247
-247
-247
-248
-248
-248
-248
-248
-248
-248
-248
-248
-248
-248
-248
-248
-248
-248
-248
-248
-248
-248
-248
-248
-248
-248
-248
-248
-248
-249
-249
-249
-249
-249
-249
-249
-249
-250
-250
-249
-249
-249
-249
-249
-249
-249
-249
-249
-249
-249
-248
-248
-247
-247
-247
-247
-247
-247
-247
-247
-247
-246
-246
-247
-247
-247
-247
-247
-248
-248
-248
-248
-249
-249
-249
-249
-249
-250
-250
-250
-250
-250
-250
-251
-251
-251
-251
-251
-250
-250
-250
-250
-250
-250
-250
-250
-249
-249
-249
-249
-249
-249
-249
-249
-249
-249
-249
-249
-249
-248
-248
-248
-248
-248
-248
-248
-247
-247
-247
-247
-246
-246
-245
-245
-244
-244
-243
-243
-242
-241
-240
-240
-239
-238
-237
-237
-236
-235
-235
-234
-234
-233
-232
-231
-231
-230
-230
-229
-228
-227
-227
-226
-226
-225
-225
-224
-224
-223
-223
-222
-222
-222
-221
-221
-220
-220
-220
-220
-220
-219
-219
-219
-219
-218
-218
-218
-217
-218
-217
-217
-216
-216
-216
-215
-215
-215
-215
-214
-214
-214
-213
-213
-213
-213
-213
-213
-213
-213
-213
-214
-214
-215
-216
-216
-217
-217
-218
-219
-220
-220
-221
-222
-222
-223
-224
-225
-226
-227
-227
-228
-228
-229
-229
-230
-230
-231
-232
-232
-233
-233
-234
-235
-235
-236
-237
-238
-239
-240
-241
-242
-242
-244
-245
-246
-247
-248
-249
-250
-251
-252
-253
-254
-254
-255
-255
-256
-257
-257
-258
-258
-258
-258
-258
-258
-258
-258
-258
-258
-258
-258
-258
-258
-258
-257
-257
-257
-256
-256
-256
-256
-256
-256
-256
-256
-256
-256
-255
-256
-256
-256
-256
-256
-256
-256
-256
-256
-257
-257
-257
-257
-257
-257
-257
-257
-258
-258
-258
-258
-258
-258
-258
-258
-259
-259
-259
-259
-259
-259
-259
-259
-259
-259
-259
-260
-260
-261
-261
-261
-262
-262
-263
-263
-264
-264
-265
-265
-265
-266
-266
-266
-266
-265
-264
-263
-262
-261
-260
-258
-256
-254
-252
-249
-246
-242
-239
-235
-231
-227
-223
-219
-215
-211
-208
-204
-202
-199
-196
-193
-190
-187
-184
-181
-178
-177
-175
-175
-174
-174
-174
-175
-175
-176
-178
-179
-181
-183
-187
-190
-193
-198
-201
-206
-210
-215
-219
-223
-227
-232
-235
-239
-242
-245
-247
-250
-251
-253
-255
-256
-257
-258
-258
-259
-259
-259
-259
-259
-258
-258
-258
-257
-257
-256
-256
-255
-255
-254
-254
-253
-253
-253
-252
-252
-252
-252
-251
-251
-251
-252
-252
-252
-252
-252
-252
-252
-252
-252
-252
-253
-253
-253
-253
-253
-253
-253
-254
-254
-254
-254
-254
-254
-255
-255
-255
-255
-256
-256
-256
-256
-256
-257
-257
-257
-257
-257
-257
-257
-257
-257
-257
-257
-257
-257
-257
-257
-257
-257
-256
-256
-256
-256
-255
-255
-255
-255
-255
-255
-254
-254
-254
-254
-254
-254
-254
-254
-254
-254
-254
-254
-254
-254
-254
-254
-254
-255
-255
-255
-255
-255
-255
-255
-255
-255
-256
-256
-256
-256
-256
-256
-256
-256
-256
-256
-256
-256
-255
-255
-255
-255
-255
-255
-255
-255
-255
-255
-255
-255
-255
-255
-255
-255
-256
-256
-257
-257
-257
-258
-258
-258
-258
-258
-258
-258
-258
-258
-258
-258
-257
-257
-256
-256
-255
-255
-254
-253
-252
-252
-251
-250
-250
-249
-249
-249
-248
-248
-248
-248
-248
-248
-248
-249
-249
-249
-250
-250
-250
-250
-251
-251
-251
-252
-252
-252
-252
-253
-253
-253
-253
-253
-253
-253
-254
-254
-253
-253
-253
-253
-253
-253
-253
-253
-252
-252
-251
-251
-251
-250
-250
-250
-249
-249
-248
-248
-248
-247
-247
-247
-246
-246
-246
-246
-246
-246
-246
-246
-246
-246
-246
-246
-247
-246
-247
-247
-246
-247
-247
-246
-247
-247
-246
-246
-246
-246
-246
-246
-246
-246
-246
-246
-245
-245
-245
-245
-244
-244
-243
-243
-243
-243
-242
-242
-241
-241
-240
-239
-239
-238
-237
-237
-236
-236
-235
-235
-234
-234
-234
-233
-233
-233
-233
-232
-232
-232
-232
-232
-232
-231
-231
-231
-230
-230
-230
-229
-229
-229
-228
-228
-228
-227
-226
-226
-225
-225
-225
-224
-224
-224
-223
-223
-223
-223
-222
-222
-222
-222
-222
-222
-222
-222
-222
-222
-222
-222
-222
-222
-222
-222
-222
-221
-221
-221
-221
-221
-220
-220
-220
-220
-219
-219
-218
-218
-218
-217
-217
-217
-217
-216
-216
-216
-216
-216
-216
-216
-216
-216
-216
-217
-218
-218
-218
-219
-219
-220
-220
-221
-221
-222
-222
-223
-224
-225
-225
-225
-226
-226
-227
-227
-228
-228
-229
-229
-229
-230
-230
-231
-231
-231
-232
-232
-233
-233
-233
-234
-234
-235
-235
-236
-237
-237
-237
-238
-238
-239
-239
-239
-240
-240
-241
-242
-242
-243
-243
-243
-244
-244
-245
-245
-245
-246
-246
-247
-247
-247
-248
-248
-249
-249
-250
-250
-251
-251
-252
-253
-253
-254
-254
-255
-255
-256
-256
-257
-257
-258
-258
-259
-259
-260
-260
-260
-261
-261
-261
-262
-262
-262
-262
-262
-262
-262
-262
-262
-262
-261
-261
-261
-260
-260
-260
-259
-259
-259
-259
-258
-258
-258
-258
-258
-258
-258
-258
-258
-259
-259
-259
-260
-260
-260
-260
-261
-261
-261
-261
-261
-261
-261
-261
-261
-261
-261
-261
-261
-260
-260
-260
-260
-260
-260
-260
-260
-260
-260
-260
-260
-261
-261
-261
-261
-261
-261
-261
-261
-261
-261
-261
-261
-261
-261
-261
-260
-260
-260
-260
-259
-259
-259
-259
-259
-258
-258
-258
-258
-258
-258
-258
-258
-257
-257
-257
-257
-257
-257
-257
-257
-257
-257
-257
-257
-257
-258
-258
-258
-258
-258
-258
-258
-258
-259
-259
-259
-259
-259
-259
-259
-259
-259
-259
-259
-259
-259
-259
-259
-259
-258
-258
-258
-258
-258
-258
-258
-258
-258
-258
-258
-258
-258
-258
-258
-259
-259
-259
-259
-259
-260
-260
-260
-260
-260
-261
-261
-261
-261
-261
-261
-261
-261
-261
-262
-262
-262
-262
-262
-262
-262
-262
-262
-262
-261
-261
-261
-261
-261
-261
-261
-261
-261
-261
-261
-261
-261
-261
-261
-261
-261
-261
-261
-262
-262
-261
-261
-261
-261
-262
-262
-262
-262
-262
-262
-262
-263
-263
-263
-263
-264
-264
-264
-264
-265
-265
-265
-265
-265
-266
-266
-266
-266
-267
-267
-267
-267
-267
-267
-267
-267
-267
-267
-267
-267
-266
-266
-265
-265
-265
-264
-264
-264
-263
-263
-263
-262
-262
-262
-261
-261
-261
-261
-261
-261
-261
-262
-262
-262
-263
-263
-264
-264
-264
-265
-265
-265
-266
-266
-266
-266
-266
-266
-267
-267
-267
-267
-268
-268
-268
-268
-268
-268
-268
-268
-268
-268
-268
-267
-267
-267
-267
-266
-266
-265
-264
-264
-263
-262
-262
-261
-260
-259
-258
-258
-257
-256
-256
-255
-254
-253
-252
-252
-251
-250
-250
-249
-248
-248
-247
-247
-246
-246
-245
-245
-245
-244
-244
-243
-243
-242
-242
-242
-241
-241
-241
-241
-241
-240
-240
-240
-240
-240
-239
-239
-238
-238
-237
-237
-236
-235
-235
-234
-233
-233
-232
-231
-231
-230
-229
-228
-228
-227
-227
-227
-226
-226
-226
-226
-226
-226
-226
-227
-227
-228
-228
-228
-229
-230
-231
-232
-233
-234
-235
-236
-237
-238
-239
-240
-241
-243
-244
-245
-246
-247
-248
-249
-250
-251
-251
-252
-253
-254
-255
-256
-256
-258
-258
-259
-260
-261
-262
-263
-264
-265
-266
-267
-269
-270
-271
-271
-272
-273
-273
-274
-274
-275
-275
-275
-275
-275
-275
-275
-275
-275
-275
-275
-275
-275
-275
-275
-275
-275
-275
-276
-276
-276
-277
-277
-277
-278
-278
-278
-278
-279
-279
-279
-280
-280
-280
-280
-280
-280
-280
-280
-280
-280
-280
-280
-279
-279
-279
-279
-279
-279
-279
-279
-279
-279
-279
-278
-278
-278
-277
-277
-277
-277
-277
-277
-277
-277
-277
-278
-278
-278
-279
-279
-279
-280
-280
-281
-282
-283
-283
-284
-284
-285
-286
-286
-286
-286
-286
-286
-285
-284
-283
-282
-281
-279
-276
-274
-271
-269
-265
-262
-258
-253
-250
-245
-241
-237
-233
-229
-225
-222
-219
-216
-213
-210
-207
-204
-201
-199
-196
-195
-194
-193
-193
-193
-194
-194
-195
-197
-199
-201
-204
-207
-210
-214
-218
-223
-227
-233
-238
-242
-247
-252
-256
-260
-264
-268
-271
-274
-276
-278
-280
-281
-282
-283
-283
-283
-283
-283
-282
-282
-281
-280
-280
-279
-278
-277
-276
-276
-275
-274
-274
-273
-273
-272
-272
-271
-271
-271
-271
-271
-271
-271
-271
-271
-271
-271
-271
-272
-272
-272
-272
-272
-272
-273
-273
-273
-273
-273
-274
-274
-274
-274
-274
-274
-274
-274
-274
-274
-274
-274
-274
-273
-273
-273
-272
-272
-272
-272
-271
-271
-271
-271
-270
-270
-270
-270
-270
-270
-270
-271
-271
-271
-271
-271
-271
-272
-272
-272
-272
-272
-273
-273
-273
-273
-273
-273
-273
-273
-273
-273
-273
-273
-273
-273
-273
-273
-274
-274
-274
-274
-274
-274
-274
-274
-274
-274
-274
-274
-274
-274
-274
-274
-274
-274
-274
-274
-274
-274
-274
-274
-274
-274
-274
-274
-274
-274
-274
-275
-275
-275
-275
-275
-275
-274
-274
-274
-274
-274
-274
-273
-273
-273
-272
-272
-272
-272
-272
-271
-271
-271
-271
-270
-270
-270
-270
-270
-270
-270
-270
-270
-270
-270
-270
-270
-270
-270
-270
-269
-269
-269
-269
-269
-268
-268
-268
-268
-268
-267
-267
-267
-267
-267
-267
-266
-266
-266
-266
-266
-266
-266
-266
-266
-266
-266
-266
-265
-265
-265
-265
-265
-265
-265
-265
-264
-264
-264
-264
-264
-264
-263
-263
-263
-263
-263
-263
-263
-263
-263
-263
-263
-263
-263
-263
-263
-263
-262
-262
-262
-261
-261
-260
-260
-259
-259
-258
-258
-257
-257
-256
-256
-256
-256
-256
-256
-256
-256
-256
-256
-256
-256
-256
-257
-257
-257
-257
-257
-257
-257
-257
-257
-257
-256
-256
-255
-255
-254
-254
-253
-253
-252
-252
-251
-250
-250
-249
-249
-248
-248
-247
-247
-247
-246
-246
-245
-245
-245
-244
-244
-244
-243
-243
-242
-242
-242
-241
-241
-240
-240
-240
-240
-239
-239
-238
-238
-237
-237
-237
-237
-236
-236
-236
-235
-235
-234
-234
-233
-233
-232
-232
-231
-231
-230
-230
-230
-229
-229
-229
-229
-228
-228
-229
-228
-229
-228
-229
-229
-229
-229
-229
-229
-229
-229
-229
-229
-230
-230
-230
-229
-229
-229
-229
-229
-229
-229
-229
-229
-229
-229
-229
-229
-230
-230
-230
-230
-230
-230
-230
-231
-231
-231
-231
-232
-232
-232
-233
-233
-233
-233
-234
-234
-234
-234
-234
-234
-235
-236
-236
-236
-237
-237
-237
-238
-239
-239
-240
-241
-242
-243
-244
-245
-246
-246
-247
-248
-249
-250
-250
-251
-252
-252
-253
-253
-253
-254
-254
-254
-255
-255
-255
-256
-256
-256
-257
-257
-257
-258
-258
-258
-258
-259
-259
-260
-260
-261
-261
-262
-262
-262
-263
-263
-264
-264
-265
-265
-266
-266
-267
-267
-267
-267
-268
-268
-268
-268
-268
-269
-269
-269
-269
-269
-268
-268
-268
-268
-268
-268
-268
-268
-268
-268
-268
-268
-268
-268
-268
-268
-268
-268
-268
-268
-268
-268
-268
-269
-269
-269
-269
-269
-269
-269
-269
-269
-269
-269
-269
-269
-269
-269
-270
-270
-270
-270
-270
-270
-269
-269
-269
-269
-269
-269
-268
-268
-267
-267
-267
-266
-266
-265
-265
-265
-264
-263
-263
-263
-262
-262
-261
-261
-261
-261
-261
-261
-261
-260
-260
-260
-260
-260
-261
-261
-261
-261
-262
-262
-262
-262
-263
-263
-263
-263
-264
-264
-264
-264
-264
-264
-264
-264
-264
-264
-263
-263
-263
-263
-262
-262
-262
-262
-262
-262
-261
-261
-261
-261
-261
-261
-261
-261
-261
-260
-260
-260
-260
-260
-260
-260
-260
-260
-260
-260
-260
-260
-260
-260
-260
-260
-260
-260
-260
-261
-261
-261
-261
-261
-261
-262
-262
-262
-262
-262
-261
-261
-261
-261
-261
-261
-261
-261
-261
-261
-261
-260
-260
-260
-260
-260
-260
-260
-260
-260
-260
-260
-260
-260
-260
-260
-260
-260
-260
-260
-260
-260
-260
-260
-260
-260
-261
-261
-261
-261
-261
-261
-261
-261
-261
-261
-261
-261
-261
-261
-261
-261
-261
-261
-261
-260
-260
-260
-260
-260
-259
-259
-259
-259
-259
-259
-259
-259
-259
-260
-260
-260
-260
-261
-261
-262
-262
-262
-262
-263
-263
-263
-264
-264
-264
-264
-264
-264
-265
-265
-265
-265
-265
-265
-264
-264
-264
-264
-264
-264
-264
-264
-264
-264
-264
-264
-264
-264
-264
-264
-264
-264
-264
-264
-264
-263
-263
-263
-263
-262
-262
-262
-261
-261
-260
-259
-258
-258
-257
-256
-256
-255
-254
-253
-253
-252
-251
-251
-250
-249
-248
-248
-247
-246
-246
-245
-245
-244
-244
-243
-242
-242
-241
-241
-240
-240
-239
-238
-238
-237
-237
-236
-236
-236
-236
-235
-235
-234
-234
-233
-233
-232
-232
-231
-230
-230
-229
-229
-228
-227
-227
-226
-226
-225
-225
-224
-224
-224
-223
-223
-224
-224
-224
-224
-224
-225
-225
-226
-227
-228
-228
-229
-230
-231
-232
-233
-234
-234
-235
-237
-238
-239
-240
-241
-242
-243
-244
-245
-245
-246
-246
-247
-247
-248
-248
-249
-249
-250
-250
-251
-251
-251
-252
-252
-253
-254
-255
-256
-256
-257
-259
-260
-261
-262
-263
-265
-266
-267
-268
-269
-270
-270
-271
-272
-272
-273
-273
-273
-274
-274
-274
-274
-274
-274
-274
-273
-273
-273
-273
-273
-273
-273
-272
-272
-272
-272
-272
-272
-272
-272
-273
-273
-273
-273
-273
-273
-273
-273
-274
-274
-274
-274
-275
-275
-275
-275
-275
-275
-275
-275
-275
-275
-275
-275
-275
-275
-275
-274
-274
-274
-274
-274
-274
-274
-274
-274
-274
-275
-275
-275
-276
-276
-276
-276
-277
-277
-278
-278
-278
-279
-279
-280
-280
-280
-280
-280
-279
-279
-278
-277
-276
-274
-273
-271
-270
-268
-266
-263
-260
-257
-254
-251
-247
-243
-240
-236
-232
-229
-225
-222
-219
-216
-214
-211
-208
-205
-202
-200
-197
-195
-195
-194
-193
-194
-194
-194
-195
-196
-198
-199
-201
-204
-206
-210
-213
-217
-221
-225
-229
-233
-237
-241
-245
-249
-253
-256
-259
-262
-265
-267
-269
-271
-273
-274
-275
-276
-277
-278
-278
-278
-278
-278
-278
-278
-278
-277
-277
-277
-275
-275
-274
-273
-272
-272
-271
-270
-269
-268
-268
-267
-266
-266
-265
-265
-265
-265
-265
-265
-265
-266
-266
-266
-266
-267
-267
-267
-267
-268
-268
-268
-268
-269
-269
-269
-269
-269
-269
-269
-269
-269
-269
-269
-268
-268
-268
-268
-267
-267
-267
-267
-267
-267
-267
-266
-266
-266
-266
-266
-266
-267
-267
-267
-266
-267
-267
-267
-267
-267
-267
-267
-267
-268
-268
-268
-268
-268
-268
-268
-268
-268
-268
-268
-268
-269
-269
-269
-269
-269
-269
-269
-269
-269
-269
-269
-270
-270
-270
-270
-269
-269
-269
-269
-269
-269
-269
-268
-268
-268
-267
-267
-267
-267
-266
-266
-266
-266
-266
-266
-266
-266
-266
-266
-266
-266
-266
-266
-267
-267
-267
-267
-267
-267
-267
-267
-267
-267
-267
-266
-266
-266
-266
-266
-266
-265
-265
-265
-264
-264
-264
-264
-264
-264
-263
-263
-263
-263
-262
-262
-262
-262
-262
-262
-262
-262
-262
-262
-262
-261
-261
-262
-262
-262
-262
-262
-262
-262
-261
-261
-261
-261
-261
-261
-261
-261
-261
-261
-260
-260
-260
-260
-260
-260
-260
-260
-260
-259
-259
-259
-259
-258
-258
-258
-258
-258
-257
-257
-256
-256
-256
-256
-255
-255
-255
-255
-254
-254
-254
-254
-254
-253
-253
-253
-253
-253
-253
-252
-252
-252
-252
-252
-252
-251
-251
-251
-251
-251
-251
-251
-250
-250
-250
-249
-249
-249
-249
-249
-249
-249
-249
-248
-248
-248
-248
-248
-247
-247
-247
-246
-246
-246
-245
-245
-244
-244
-243
-243
-242
-241
-241
-240
-240
-239
-238
-238
-237
-237
-236
-235
-235
-234
-233
-232
-232
-231
-231
-230
-229
-229
-228
-228
-228
-228
-227
-227
-226
-226
-226
-225
-225
-225
-225
-224
-224
-224
-224
-224
-224
-223
-223
-223
-223
-222
-222
-222
-222
-222
-222
-222
-221
-221
-222
-221
-221
-221
-222
-221
-222
-222
-222
-222
-222
-222
-222
-222
-222
-222
-222
-222
-222
-222
-222
-222
-222
-221
-221
-221
-221
-221
-221
-221
-221
-221
-221
-222
-221
-221
-222
-222
-223
-223
-223
-223
-224
-224
-224
-225
-225
-226
-226
-227
-227
-228
-228
-229
-229
-230
-230
-231
-232
-232
-233
-234
-234
-235
-236
-236
-237
-238
-239
-240
-241
-241
-242
-243
-244
-244
-245
-245
-246
-246
-247
-247
-248
-248
-248
-249
-249
-249
-249
-249
-250
-250
-251
-251
-251
-251
-252
-252
-252
-252
-252
-253
-254
-254
-254
-254
-254
-255
-255
-255
-255
-256
-256
-256
-256
-256
-256
-256
-257
-257
-257
-257
-258
-258
-258
-258
-259
-259
-260
-260
-261
-262
-262
-262
-263
-264
-264
-264
-264
-265
-265
-265
-266
-266
-266
-265
-265
-265
-265
-265
-264
-264
-264
-264
-263
-263
-263
-263
-263
-262
-262
-262
-262
-262
-262
-261
-261
-261
-261
-261
-261
-261
-260
-260
-260
-260
-260
-260
-260
-260
-260
-260
-260
-260
-259
-259
-259
-259
-259
-259
-260
-260
-260
-260
-260
-260
-260
-260
-261
-261
-261
-261
-261
-261
-261
-261
-261
-261
-260
-260
-260
-260
-260
-259
-259
-259
-258
-258
-257
-257
-257
-257
-256
-256
-255
-255
-254
-254
-254
-254
-253
-253
-253
-253
-253
-252
-252
-252
-252
-252
-251
-251
-251
-251
-251
-251
-251
-251
-251
-251
-251
-251
-251
-251
-251
-251
-251
-251
-251
-251
-252
-252
-252
-252
-252
-253
-253
-253
-253
-253
-253
-253
-253
-253
-253
-254
-254
-254
-254
-254
-253
-253
-253
-254
-254
-253
-253
-253
-253
-253
-253
-253
-253
-253
-253
-253
-253
-253
-253
-253
-254
-254
-253
-253
-254
-254
-254
-254
-254
-254
-253
-253
-253
-253
-253
-253
-254
-253
-253
-253
-253
-253
-252
-252
-252
-252
-252
-252
-252
-252
-252
-251
-251
-251
-251
-251
-251
-251
-251
-251
-252
-252
-252
-252
-252
-253
-253
-254
-254
-254
-255
-255
-255
-256
-256
-256
-257
-257
-257
-257
-257
-258
-258
-258
-258
-258
-258
-258
-257
-257
-257
-257
-257
-257
-256
-256
-255
-255
-255
-255
-254
-254
-254
-254
-254
-253
-253
-253
-252
-252
-252
-252
-251
-251
-250
-250
-250
-250
-249
-248
-248
-247
-247
-246
-246
-245
-244
-244
-243
-242
-242
-241
-240
-240
-239
-239
-238
-237
-237
-236
-236
-236
-235
-235
-234
-234
-233
-233
-232
-232
-231
-231
-230
-230
-229
-229
-229
-229
-228
-227
-227
-226
-226
-225
-225
-224
-223
-223
-222
-221
-221
-220
-219
-219
-218
-218
-217
-216
-216
-216
-215
-215
-215
-215
-215
-215
-215
-215
-215
-216
-216
-216
-217
-218
-218
-219
-220
-221
-222
-223
-224
-225
-226
-227
-228
-229
-230
-231
-232
-233
-234
-235
-235
-236
-236
-237
-238
-239
-239
-240
-240
-241
-242
-242
-243
-244
-244
-245
-246
-247
-248
-249
-250
-251
-252
-253
-254
-254
-255
-256
-257
-257
-258
-259
-259
-260
-260
-261
-261
-262
-262
-262
-262
-262
-262
-262
-263
-263
-263
-263
-262
-262
-262
-262
-262
-262
-262
-262
-262
-262
-262
-262
-262
-262
-262
-261
-261
-261
-261
-261
-261
-261
-261
-261
-261
-260
-260
-260
-260
-260
-260
-260
-260
-260
-260
-261
-261
-261
-261
-261
-261
-261
-261
-261
-260
-260
-260
-260
-260
-260
-260
-260
-260
-260
-261
-261
-261
-262
-262
-262
-263
-263
-263
-263
-264
-264
-264
-264
-264
-264
-264
-263
-262
-262
-261
-259
-258
-256
-254
-252
-251
-248
-245
-243
-240
-236
-233
-230
-226
-222
-219
-216
-213
-210
-208
-206
-204
-202
-199
-197
-195
-192
-190
-189
-188
-187
-187
-187
-187
-187
-188
-188
-189
-190
-192
-193
-195
-197
-199
-202
-205
-208
-212
-216
-219
-223
-226
-229
-232
-235
-239
-241
-243
-245
-247
-249
-251
-252
-253
-254
-254
-254
-255
-255
-255
-254
-254
-254
-254
-254
-253
-253
-252
-252
-252
-251
-251
-250
-250
-249
-249
-249
-249
-248
-248
-248
-248
-248
-248
-248
-248
-248
-247
-247
-247
-247
-247
-247
-246
-246
-246
-247
-247
-247
-247
-247
-247
-247
-247
-247
-247
-247
-247
-247
-247
-247
-247
-247
-247
-247
-248
-248
-248
-248
-248
-248
-247
-247
-247
-247
-248
-248
-248
-248
-248
-248
-248
-248
-248
-248
-248
-248
-248
-248
-248
-248
-248
-248
-247
-247
-247
-247
-247
-247
-246
-246
-246
-246
-246
-245
-245
-245
-245
-245
-244
-244
-244
-244
-244
-244
-244
-244
-244
-244
-244
-244
-244
-244
-244
-244
-245
-245
-245
-245
-245
-245
-245
-246
-246
-246
-246
-246
-246
-247
-247
-247
-247
-247
-247
-247
-247
-247
-246
-246
-246
-246
-246
-245
-245
-245
-245
-245
-245
-245
-245
-245
-245
-245
-245
-245
-245
-245
-245
-245
-245
-245
-245
-245
-245
-245
-244
-244
-244
-244
-244
-243
-243
-243
-243
-243
-242
-241
-241
-241
-241
-241
-240
-240
-240
-239
-239
-239
-239
-239
-239
-239
-239
-239
-238
-239
-239
-239
-238
-238
-238
-238
-238
-238
-238
-238
-238
-238
-238
-237
-237
-237
-237
-236
-236
-236
-235
-235
-235
-235
-234
-234
-234
-233
-233
-233
-232
-232
-232
-231
-231
-231
-231
-231
-231
-231
-230
-230
-230
-230
-230
-229
-229
-229
-228
-228
-228
-228
-228
-228
-227
-227
-226
-226
-226
-226
-225
-225
-225
-225
-224
-224
-224
-223
-223
-223
-223
-223
-223
-222
-222
-221
-221
-221
-220
-220
-219
-219
-219
-218
-218
-218
-217
-216
-216
-216
-215
-214
-214
-213
-212
-212
-211
-210
-210
-209
-208
-207
-207
-206
-205
-204
-204
-203
-202
-201
-201
-200
-200
-199
-198
-198
-197
-197
-196
-196
-195
-195
-194
-194
-193
-193
-192
-191
-191
-190
-190
-189
-188
-188
-187
-186
-186
-185
-185
-184
-184
-184
-183
-183
-182
-182
-182
-182
-182
-182
-182
-182
-182
-182
-182
-182
-182
-182
-181
-181
-182
-182
-182
-182
-182
-182
-182
-182
-182
-182
-182
-182
-182
-183
-183
-183
-183
-183
-183
-184
-183
-184
-184
-184
-185
-185
-185
-186
-186
-186
-186
-187
-188
-188
-188
-189
-190
-190
-190
-191
-191
-192
-193
-193
-193
-194
-195
-195
-195
-196
-196
-196
-197
-197
-197
-198
-198
-198
-199
-199
-199
-200
-200
-200
-200
-201
-201
-201
-202
-202
-202
-202
-202
-203
-202
-203
-203
-203
-203
-203
-204
-204
-204
-204
-205
-205
-205
-205
-206
-206
-206
-207
-207
-207
-207
-207
-208
-208
-208
-208
-209
-209
-209
-209
-209
-209
-209
-209
-209
-209
-209
-209
-209
-209
-208
-208
-208
-208
-208
-208
-208
-207
-207
-207
-208
-208
-208
-208
-208
-208
-208
-208
-208
-208
-208
-208
-208
-208
-208
-209
-209
-209
-209
-208
-208
-208
-208
-208
-208
-208
-208
-207
-207
-207
-207
-207
-207
-207
-207
-206
-206
-206
-206
-206
-206
-206
-206
-206
-206
-206
-206
-206
-206
-206
-206
-205
-205
-205
-205
-204
-204
-204
-203
-203
-203
-202
-202
-202
-202
-201
-201
-201
-201
-200
-200
-200
-199
-199
-199
-199
-198
-198
-198
-198
-198
-198
-198
-198
-199
-199
-199
-199
-199
-199
-198
-198
-198
-198
-198
-198
-198
-198
-198
-198
-198
-198
-197
-197
-197
-197
-197
-197
-197
-197
-197
-197
-197
-197
-197
-196
-196
-196
-196
-197
-197
-197
-197
-197
-197
-197
-197
-197
-197
-197
-197
-197
-197
-197
-197
-197
-197
-197
-197
-197
-197
-197
-197
-196
-196
-196
-196
-196
-196
-196
-196
-196
-196
-196
-196
-196
-196
-196
-196
-196
-196
-196
-196
-196
-196
-196
-196
-196
-196
-196
-196
-196
-197
-197
-197
-197
-197
-197
-197
-198
-198
-198
-198
-198
-198
-199
-199
-199
-199
-199
-199
-199
-200
-200
-200
-200
-200
-200
-200
-200
-200
-200
-201
-201
-201
-201
-201
-201
-201
-201
-201
-201
-201
-201
-202
-202
-202
-202
-202
-202
-202
-202
-202
-202
-202
-202
-202
-201
-201
-201
-201
-200
-200
-200
-200
-200
-200
-200
-199
-199
-199
-199
-198
-198
-198
-198
-198
-197
-197
-197
-196
-196
-195
-195
-194
-193
-193
-192
-191
-190
-189
-189
-188
-187
-186
-185
-184
-184
-183
-183
-182
-181
-180
-180
-179
-179
-178
-178
-178
-177
-177
-176
-176
-176
-175
-175
-175
-175
-174
-174
-173
-173
-173
-173
-173
-172
-172
-171
-171
-171
-170
-170
-169
-169
-168
-168
-168
-168
-167
-166
-166
-166
-166
-166
-166
-166
-166
-166
-166
-166
-166
-166
-167
-167
-168
-168
-169
-169
-170
-170
-171
-171
-172
-173
-173
-174
-175
-175
-176
-177
-178
-179
-179
-180
-181
-182
-182
-183
-184
-184
-184
-185
-186
-186
-187
-187
-188
-188
-189
-190
-190
-191
-192
-193
-194
-195
-196
-197
-198
-199
-200
-201
-202
-203
-204
-204
-205
-206
-206
-207
-207
-208
-208
-208
-208
-208
-208
-208
-208
-208
-208
-208
-208
-208
-208
-208
-208
-208
-208
-208
-208
-209
-209
-209
-209
-209
-209
-209
-209
-209
-209
-209
-209
-209
-209
-210
-210
-210
-210
-210
-210
-210
-210
-211
-211
-211
-211
-211
-211
-211
-211
-211
-211
-211
-211
-211
-211
-211
-211
-211
-211
-210
-210
-210
-210
-210
-210
-210
-210
-211
-211
-211
-212
-212
-212
-212
-213
-213
-213
-214
-214
-215
-215
-215
-215
-215
-215
-215
-214
-214
-213
-212
-211
-210
-209
-207
-206
-204
-202
-199
-196
-194
-190
-187
-184
-181
-177
-174
-171
-168
-166
-164
-162
-160
-158
-156
-154
-152
-150
-149
-148
-147
-147
-147
-148
-149
-149
-150
-151
-152
-153
-154
-156
-158
-160
-162
-165
-168
-170
-173
-176
-179
-181
-184
-187
-189
-191
-193
-196
-197
-199
-200
-202
-203
-204
-205
-205
-206
-206
-207
-207
-208
-208
-208
-208
-207
-207
-207
-206
-206
-205
-204
-204
-203
-203
-202
-202
-201
-201
-200
-200
-199
-199
-199
-199
-199
-199
-199
-200
-200
-200
-200
-201
-201
-201
-201
-202
-202
-203
-203
-203
-203
-203
-203
-203
-203
-203
-203
-203
-203
-203
-203
-203
-203
-202
-202
-202
-202
-202
-202
-202
-202
-202
-202
-202
-201
-201
-202
-202
-202
-202
-202
-203
-203
-202
-202
-202
-202
-202
-202
-202
-202
-202
-202
-203
-202
-202
-202
-202
-202
-202
-202
-202
-202
-202
-202
-202
-202
-202
-202
-202
-202
-202
-202
-202
-203
-203
-203
-203
-203
-203
-203
-203
-203
-204
-204
-204
-204
-204
-204
-203
-203
-203
-203
-203
-203
-203
-203
-203
-202
-202
-202
-202
-202
-202
-201
-201
-201
-201
-201
-201
-200
-200
-200
-200
-200
-199
-199
-199
-199
-199
-199
-199
-199
-199
-199
-199
-199
-199
-199
-199
-199
-199
-199
-198
-198
-198
-198
-198
-198
-198
-198
-198
-198
-197
-197
-197
-197
-197
-197
-197
-197
-197
-197
-198
-198
-198
-198
-198
-198
-198
-198
-198
-198
-198
-198
-198
-198
-198
-197
-197
-197
-197
-197
-197
-197
-196
-196
-196
-195
-195
-195
-195
-195
-195
-194
-194
-194
-194
-194
-194
-193
-193
-193
-192
-192
-192
-191
-191
-191
-190
-190
-190
-190
-189
-189
-189
-189
-188
-188
-188
-188
-187
-187
-187
-187
-187
-187
-186
-186
-186
-185
-185
-185
-184
-184
-184
-183
-183
-183
-183
-183
-182
-182
-181
-181
-181
-180
-180
-179
-179
-179
-178
-178
-177
-177
-176
-176
-175
-175
-174
-174
-173
-173
-173
-172
-172
-172
-172
-172
-172
-171
-171
-171
-171
-171
-171
-171
-171
-171
-171
-171
-170
-170
-170
-170
-169
-169
-169
-169
-169
-168
-168
-167
-167
-166
-166
-165
-164
-164
-164
-163
-163
-163
-162
-162
-162
-162
-162
-162
-162
-161
-161
-161
-161
-161
-161
-161
-161
-161
-161
-161
-161
-161
-161
-161
-161
-160
-160
-160
-160
-160
-160
-160
-160
-160
-160
-160
-160
-161
-161
-161
-161
-162
-162
-162
-163
-163
-163
-164
-164
-165
-165
-166
-166
-166
-167
-167
-167
-168
-168
-168
-168
-169
-169
-170
-170
-170
-171
-171
-171
-172
-172
-173
-173
-173
-174
-175
-175
-175
-176
-177
-177
-178
-178
-179
-180
-180
-181
-182
-182
-183
-183
-184
-184
-185
-185
-186
-187
-187
-188
-188
-189
-189
-190
-190
-190
-191
-191
-192
-192
-192
-192
-193
-193
-193
-193
-194
-194
-194
-194
-194
-194
-194
-194
-195
-195
-195
-195
-196
-196
-196
-196
-196
-197
-197
-198
-198
-199
-199
-199
-199
-200
-200
-201
-201
-202
-202
-202
-202
-203
-203
-203
-203
-204
-204
-204
-204
-204
-204
-204
-204
-204
-204
-203
-203
-203
-202
-202
-202
-201
-201
-201
-200
-200
-200
-199
-199
-199
-199
-199
-199
-200
-200
-201
-201
-201
-201
-201
-202
-202
-202
-203
-203
-203
-203
-204
-204
-204
-204
-204
-204
-204
-204
-203
-203
-203
-203
-203
-202
-202
-202
-202
-202
-202
-202
-201
-201
-201
-201
-201
-200
-200
-200
-200
-200
-199
-199
-199
-198
-198
-198
-197
-197
-197
-196
-196
-196
-196
-195
-195
-195
-194
-194
-194
-194
-194
-194
-193
-193
-193
-193
-193
-193
-193
-193
-193
-193
-193
-193
-193
-193
-193
-193
-193
-193
-193
-193
-193
-193
-192
-192
-192
-192
-192
-192
-191
-191
-191
-191
-191
-191
-191
-191
-191
-191
-191
-191
-191
-191
-190
-190
-190
-190
-190
-190
-190
-190
-190
-190
-190
-190
-190
-190
-190
-190
-190
-191
-191
-191
-191
-191
-191
-191
-191
-192
-192
-192
-192
-192
-192
-192
-192
-192
-192
-192
-192
-192
-192
-192
-192
-193
-193
-193
-194
-194
-194
-194
-195
-195
-195
-196
-196
-196
-196
-197
-197
-198
-198
-198
-198
-198
-198
-198
-198
-198
-198
-198
-198
-198
-197
-197
-197
-197
-197
-196
-196
-196
-196
-195
-195
-195
-195
-195
-195
-195
-195
-195
-195
-195
-196
-196
-196
-196
-197
-197
-197
-198
-198
-198
-199
-199
-199
-199
-199
-199
-200
-200
-200
-200
-200
-200
-199
-199
-199
-199
-198
-198
-198
-197
-197
-196
-196
-195
-194
-193
-192
-192
-191
-190
-190
-189
-188
-187
-186
-186
-185
-185
-184
-184
-183
-183
-182
-182
-182
-181
-181
-180
-180
-180
-180
-180
-179
-179
-179
-178
-178
-177
-177
-176
-176
-175
-175
-174
-174
-173
-173
-172
-172
-172
-171
-171
-170
-169
-169
-168
-168
-167
-167
-167
-166
-166
-165
-165
-165
-164
-164
-164
-164
-164
-164
-164
-164
-165
-165
-165
-166
-166
-166
-166
-167
-167
-167
-168
-168
-168
-168
-168
-169
-169
-169
-170
-169
-170
-170
-171
-171
-172
-173
-173
-174
-175
-175
-176
-177
-178
-179
-180
-181
-182
-183
-184
-185
-186
-187
-188
-189
-189
-190
-191
-192
-193
-193
-194
-195
-195
-196
-197
-197
-197
-198
-199
-200
-200
-201
-201
-202
-203
-203
-204
-204
-204
-205
-205
-206
-206
-206
-207
-207
-207
-207
-207
-208
-208
-208
-208
-208
-208
-208
-208
-208
-208
-208
-209
-209
-209
-209
-209
-209
-209
-209
-209
-209
-209
-209
-208
-208
-208
-208
-208
-208
-208
-208
-208
-207
-207
-207
-207
-207
-207
-207
-208
-208
-208
-208
-208
-208
-208
-208
-208
-208
-209
-209
-209
-209
-209
-209
-209
-210
-210
-210
-211
-211
-211
-212
-212
-213
-213
-213
-214
-214
-214
-215
-215
-215
-215
-215
-214
-214
-213
-213
-212
-211
-210
-209
-208
-206
-204
-202
-200
-198
-195
-192
-190
-186
-184
-181
-178
-175
-174
-172
-170
-168
-167
-165
-163
-161
-159
-158
-157
-157
-156
-156
-157
-157
-158
-158
-159
-160
-161
-161
-162
-164
-166
-167
-170
-172
-174
-177
-179
-182
-184
-187
-189
-191
-193
-195
-197
-199
-200
-202
-203
-204
-205
-206
-207
-207
-208
-208
-208
-208
-208
-209
-209
-209
-209
-209
-208
-208
-208
-207
-207
-206
-206
-205
-205
-205
-204
-204
-204
-203
-203
-203
-203
-202
-202
-202
-202
-202
-202
-202
-202
-202
-202
-202
-203
-203
-203
-203
-203
-204
-204
-204
-204
-204
-204
-204
-204
-204
-204
-204
-204
-204
-204
-204
-203
-204
-204
-204
-204
-204
-204
-204
-204
-204
-204
-204
-205
-205
-205
-205
-205
-206
-206
-206
-206
-206
-206
-207
-207
-207
-207
-207
-207
-207
-208
-208
-208
-208
-208
-208
-208
-208
-208
-208
-208
-207
-207
-207
-206
-206
-206
-206
-205
-205
-205
-204
-204
-204
-204
-203
-203
-203
-203
-203
-203
-203
-203
-203
-203
-203
-203
-203
-203
-203
-203
-203
-204
-204
-203
-203
-203
-203
-203
-203
-203
-203
-203
-203
-203
-203
-202
-202
-202
-202
-202
-202
-203
-203
-203
-203
-203
-203
-204
-204
-204
-204
-204
-205
-204
-205
-205
-205
-205
-206
-206
-206
-206
-206
-206
-206
-205
-205
-205
-205
-205
-205
-205
-204
-204
-204
-204
-203
-203
-203
-202
-202
-202
-202
-201
-201
-201
-200
-200
-200
-200
-199
-199
-199
-199
-199
-199
-199
-199
-200
-200
-200
-200
-199
-199
-199
-199
-199
-199
-199
-199
-199
-199
-198
-198
-198
-197
-197
-197
-197
-196
-196
-196
-196
-195
-195
-195
-195
-195
-194
-194
-194
-194
-194
-193
-193
-193
-193
-192
-192
-192
-192
-191
-191
-191
-190
-190
-189
-189
-188
-188
-187
-187
-187
-186
-186
-185
-185
-185
-185
-184
-184
-184
-184
-184
-183
-183
-183
-183
-183
-183
-182
-182
-182
-182
-181
-181
-181
-180
-180
-179
-179
-179
-179
-179
-178
-178
-177
-177
-176
-176
-176
-176
-176
-175
-175
-175
-175
-174
-174
-174
-174
-174
-173
-174
-173
-173
-173
-173
-173
-173
-172
-172
-172
-172
-172
-172
-171
-171
-171
-171
-171
-171
-170
-170
-170
-170
-169
-169
-169
-169
-168
-168
-167
-167
-166
-166
-166
-166
-165
-165
-165
-164
-164
-164
-163
-163
-163
-163
-163
-163
-163
-163
-164
-164
-164
-164
-164
-165
-165
-165
-166
-166
-167
-167
-168
-168
-169
-169
-169
-170
-170
-171
-171
-171
-172
-172
-173
-174
-174
-174
-175
-175
-176
-177
-177
-178
-178
-179
-179
-180
-181
-181
-182
-182
-183
-184
-184
-185
-185
-186
-187
-187
-188
-188
-189
-190
-191
-191
-192
-193
-194
-195
-196
-196
-197
-198
-199
-200
-201
-201
-202
-203
-203
-204
-204
-204
-204
-205
-205
-205
-205
-205
-205
-204
-204
-204
-204
-204
-204
-204
-204
-204
-205
-205
-205
-206
-206
-206
-207
-207
-207
-208
-208
-209
-209
-209
-210
-210
-210
-211
-211
-211
-211
-212
-212
-212
-212
-213
-213
-213
-213
-213
-213
-213
-213
-212
-212
-212
-212
-212
-212
-212
-212
-212
-212
-212
-211
-211
-211
-211
-211
-211
-211
-211
-211
-211
-211
-211
-211
-211
-211
-211
-211
-211
-211
-210
-210
-210
-210
-210
-210
-210
-210
-209
-209
-209
-210
-210
-210
-210
-211
-211
-211
-211
-211
-211
-211
-211
-211
-211
-211
-211
-210
-210
-210
-209
-209
-209
-208
-208
-208
-207
-207
-207
-207
-207
-207
-207
-207
-207
-207
-207
-207
-207
-207
-207
-207
-207
-208
-208
-208
-208
-208
-208
-208
-208
-208
-208
-209
-209
-208
-208
-208
-208
-208
-208
-207
-207
-207
-207
-206
-206
-206
-206
-205
-205
-205
-205
-204
-204
-204
-204
-204
-204
-204
-204
-204
-204
-204
-204
-204
-204
-205
-205
-205
-206
-206
-206
-207
-207
-208
-208
-208
-209
-209
-209
-210
-210
-210
-210
-210
-210
-209
-209
-209
-208
-208
-208
-208
-208
-208
-207
-207
-207
-207
-207
-207
-207
-207
-207
-207
-208
-208
-208
-208
-208
-209
-210
-210
-210
-210
-211
-211
-211
-212
-212
-212
-212
-212
-212
-212
-212
-212
-213
-213
-213
-213
-213
-213
-213
-213
-214
-214
-214
-214
-215
-215
-215
-215
-215
-215
-215
-215
-215
-215
-215
-215
-214
-214
-214
-214
-214
-213
-213
-213
-213
-212
-212
-212
-212
-212
-212
-212
-212
-212
-213
-213
-213
-213
-214
-215
-215
-215
-216
-216
-217
-217
-217
-217
-217
-218
-218
-218
-218
-218
-218
-218
-217
-217
-217
-217
-216
-216
-216
-216
-216
-216
-215
-215
-215
-215
-215
-215
-214
-214
-214
-213
-213
-213
-213
-213
-213
-213
-212
-212
-212
-212
-212
-211
-211
-211
-212
-212
-211
-212
-212
-211
-211
-212
-212
-211
-211
-211
-211
-211
-211
-210
-210
-209
-208
-208
-207
-206
-205
-204
-204
-203
-202
-201
-200
-199
-198
-197
-197
-196
-195
-194
-194
-193
-193
-192
-192
-191
-191
-191
-190
-190
-190
-189
-190
-189
-189
-189
-189
-188
-188
-187
-187
-187
-186
-186
-185
-185
-184
-183
-183
-182
-181
-181
-180
-180
-179
-178
-178
-177
-177
-177
-177
-177
-177
-177
-177
-178
-179
-180
-181
-182
-182
-183
-185
-186
-188
-189
-190
-192
-193
-195
-196
-197
-199
-200
-201
-202
-203
-204
-204
-205
-206
-206
-207
-207
-208
-209
-209
-210
-210
-211
-212
-212
-213
-213
-214
-215
-216
-216
-217
-218
-219
-220
-220
-221
-222
-222
-222
-223
-224
-224
-225
-225
-225
-225
-225
-225
-226
-226
-226
-226
-226
-226
-227
-227
-227
-227
-227
-228
-228
-228
-229
-229
-229
-230
-230
-230
-230
-230
-230
-230
-230
-230
-230
-230
-230
-229
-229
-229
-229
-230
-229
-229
-229
-229
-229
-229
-229
-229
-229
-229
-229
-229
-230
-230
-230
-230
-230
-230
-230
-230
-230
-230
-230
-231
-231
-231
-231
-232
-232
-233
-233
-234
-234
-235
-236
-236
-237
-238
-239
-239
-240
-241
-241
-241
-242
-242
-241
-240
-240
-238
-237
-236
-234
-232
-230
-228
-225
-222
-219
-215
-211
-207
-203
-199
-195
-191
-187
-184
-181
-177
-174
-172
-168
-165
-162
-158
-155
-153
-151
-150
-149
-148
-148
-148
-148
-149
-150
-151
-153
-155
-158
-160
-164
-168
-172
-177
-182
-187
-191
-196
-201
-205
-209
-213
-217
-220
-223
-226
-228
-230
-231
-233
-233
-234
-234
-234
-234
-234
-234
-234
-233
-233
-233
-232
-232
-232
-231
-231
-230
-230
-230
-229
-229
-229
-229
-229
-228
-229
-229
-228
-228
-228
-228
-228
-228
-229
-229
-229
-229
-228
-229
-229
-229
-229
-229
-229
-229
-229
-229
-230
-230
-230
-230
-230
-230
-230
-231
-231
-231
-231
-231
-231
-231
-231
-231
-231
-231
-230
-230
-230
-230
-230
-230
-231
-231
-230
-230
-231
-231
-231
-231
-231
-232
-232
-232
-232
-232
-232
-232
-232
-232
-232
-232
-232
-232
-231
-231
-231
-231
-232
-231
-231
-231
-231
-231
-231
-231
-231
-231
-231
-231
-231
-232
-232
-232
-232
-232
-232
-232
-232
-232
-232
-232
-232
-232
-232
-232
-232
-232
-232
-232
-232
-232
-232
-231
-231
-231
-231
-231
-232
-232
-232
-232
-232
-232
-232
-232
-232
-233
-233
-233
-233
-233
-233
-233
-233
-233
-233
-233
-233
-232
-232
-232
-232
-232
-231
-231
-231
-231
-231
-231
-230
-230
-230
-230
-230
-230
-230
-230
-230
-230
-230
-230
-230
-229
-229
-229
-229
-229
-229
-229
-229
-229
-229
-229
-229
-228
-228
-228
-228
-228
-228
-228
-228
-228
-228
-228
-228
-228
-228
-228
-228
-228
-228
-228
-228
-228
-227
-227
-227
-227
-227
-227
-227
-227
-227
-227
-226
-226
-226
-226
-226
-225
-225
-225
-224
-224
-224
-223
-223
-223
-223
-222
-222
-222
-222
-222
-222
-222
-222
-221
-222
-221
-221
-221
-221
-221
-220
-220
-220
-220
-219
-219
-219
-218
-218
-218
-217
-217
-217
-216
-216
-216
-215
-215
-215
-214
-214
-213
-213
-213
-213
-213
-212
-212
-212
-212
-212
-211
-211
-211
-211
-211
-211
-211
-210
-210
-209
-209
-209
-209
-208
-208
-207
-207
-206
-206
-205
-205
-204
-204
-203
-202
-202
-201
-201
-200
-199
-199
-198
-198
-197
-197
-196
-196
-195
-195
-194
-194
-193
-193
-193
-193
-193
-193
-192
-192
-192
-192
-192
-192
-192
-192
-192
-192
-192
-192
-192
-192
-192
-192
-192
-192
-192
-192
-192
-192
-192
-192
-192
-192
-192
-192
-192
-192
-192
-192
-192
-193
-193
-193
-193
-193
-193
-193
-193
-193
-193
-193
-194
-194
-194
-195
-195
-196
-196
-196
-197
-198
-198
-199
-200
-201
-201
-202
-203
-203
-204
-205
-206
-207
-208
-208
-209
-210
-210
-211
-212
-212
-213
-213
-214
-214
-214
-215
-215
-215
-215
-216
-216
-217
-217
-217
-217
-218
-218
-218
-219
-219
-220
-220
-220
-221
-221
-221
-222
-222
-223
-223
-223
-224
-224
-225
-225
-226
-226
-226
-227
-227
-228
-228
-228
-229
-229
-229
-230
-230
-230
-231
-231
-231
-232
-232
-232
-232
-232
-233
-233
-233
-233
-234
-234
-234
-234
-234
-234
-234
-234
-234
-234
-234
-234
-234
-233
-233
-232
-232
-232
-231
-231
-231
-230
-230
-229
-229
-229
-229
-229
-228
-228
-228
-228
-228
-229
-229
-229
-229
-229
-230
-230
-231
-231
-231
-231
-232
-232
-232
-232
-232
-232
-232
-232
-231
-231
-231
-231
-230
-230
-230
-230
-229
-229
-229
-228
-228
-228
-228
-228
-228
-228
-228
-228
-228
-228
-228
-227
-227
-227
-227
-227
-226
-226
-226
-226
-226
-225
-225
-225
-225
-224
-224
-224
-224
-224
-224
-223
-223
-223
-223
-223
-224
-224
-224
-224
-224
-224
-223
-223
-223
-223
-223
-222
-222
-222
-222
-221
-221
-221
-221
-221
-221
-221
-222
-222
-222
-222
-222
-222
-222
-223
-223
-224
-224
-224
-224
-225
-225
-225
-225
-225
-225
-225
-225
-225
-225
-226
-226
-226
-226
-226
-226
-226
-226
-226
-226
-226
-226
-226
-226
-226
-226
-226
-226
-226
-226
-226
-227
-227
-227
-227
-227
-227
-227
-227
-227
-228
-228
-228
-228
-228
-229
-229
-229
-229
-229
-230
-230
-230
-230
-230
-230
-230
-230
-230
-230
-230
-230
-230
-230
-229
-229
-229
-229
-229
-229
-229
-229
-229
-229
-229
-229
-229
-229
-229
-230
-230
-230
-230
-230
-230
-230
-230
-229
-229
-230
-230
-229
-229
-229
-229
-229
-229
-229
-230
-230
-230
-230
-230
-230
-230
-230
-231
-231
-231
-231
-231
-231
-231
-231
-231
-231
-231
-231
-232
-231
-231
-231
-231
-231
-231
-231
-231
-231
-231
-231
-231
-231
-231
-231
-231
-231
-232
-232
-232
-232
-232
-232
-232
-232
-232
-232
-232
-232
-232
-232
-232
-232
-232
-231
-231
-231
-231
-231
-230
-230
-230
-229
-229
-229
-228
-228
-227
-226
-226
-225
-225
-224
-224
-223
-222
-222
-221
-220
-220
-219
-218
-218
-217
-217
-217
-216
-216
-216
-215
-215
-215
-214
-213
-213
-212
-212
-211
-211
-210
-210
-209
-208
-208
-207
-206
-206
-205
-204
-204
-203
-203
-203
-202
-202
-202
-201
-201
-201
-200
-200
-200
-200
-199
-198
-198
-198
-197
-196
-196
-196
-195
-194
-194
-193
-193
-192
-192
-192
-192
-191
-191
-191
-191
-191
-191
-192
-192
-192
-193
-194
-195
-196
-197
-198
-199
-200
-201
-202
-204
-205
-206
-207
-208
-209
-211
-211
-212
-213
-214
-215
-215
-216
-217
-217
-218
-219
-219
-220
-221
-221
-222
-223
-223
-224
-225
-225
-226
-227
-227
-228
-229
-230
-231
-231
-232
-232
-233
-234
-234
-235
-235
-236
-236
-236
-237
-237
-237
-237
-237
-237
-237
-237
-237
-237
-237
-238
-238
-238
-238
-238
-238
-239
-239
-239
-239
-239
-240
-240
-240
-240
-241
-241
-241
-241
-241
-241
-241
-241
-240
-240
-240
-240
-240
-239
-239
-239
-239
-239
-239
-239
-239
-239
-238
-238
-239
-239
-239
-239
-239
-240
-240
-240
-241
-241
-241
-242
-242
-243
-243
-243
-243
-244
-244
-244
-245
-245
-245
-246
-246
-246
-247
-247
-247
-247
-247
-246
-246
-245
-244
-243
-242
-240
-239
-237
-235
-232
-229
-226
-222
-218
-214
-210
-206
-202
-197
-193
-189
-186
-182
-179
-176
-172
-169
-165
-162
-159
-157
-154
-153
-153
-152
-152
-152
-153
-154
-155
-157
-159
-161
-164
-167
-171
-175
-179
-184
-188
-193
-199
-203
-208
-212
-216
-220
-224
-227
-230
-233
-235
-237
-239
-240
-241
-242
-242
-243
-243
-243
-242
-242
-241
-241
-240
-240
-239
-238
-237
-237
-236
-236
-235
-235
-234
-234
-234
-234
-233
-233
-233
-233
-233
-233
-233
-233
-233
-233
-234
-234
-234
-234
-234
-235
-235
-235
-235
-235
-235
-234
-234
-234
-234
-234
-234
-234
-234
-234
-234
-233
-233
-233
-233
-233
-232
-232
-232
-232
-232
-232
-232
-232
-232
-232
-232
-232
-232
-232
-232
-232
-232
-232
-232
-232
-232
-232
-232
-232
-232
-232
-232
-232
-233
-233
-233
-233
-233
-233
-233
-233
-233
-233
-233
-233
-233
-233
-233
-232
-232
-232
-232
-232
-231
-231
-231
-231
-231
-231
-231
-231
-231
-231
-231
-231
-231
-231
-232
-232
-232
-232
-233
-233
-233
-233
-233
-234
-234
-234
-235
-235
-235
-235
-234
-234
-234
-234
-233
-233
-233
-233
-233
-233
-232
-232
-232
-232
-232
-231
-231
-231
-231
-231
-231
-231
-231
-231
-231
-231
-231
-231
-231
-231
-231
-231
-231
-231
-231
-231
-231
-231
-231
-231
-231
-231
-230
-230
-230
-230
-229
-229
-229
-229
-229
-228
-228
-228
-228
-228
-228
-227
-227
-227
-227
-226
-226
-226
-226
-225
-225
-225
-225
-225
-224
-224
-224
-224
-223
-223
-223
-223
-223
-223
-223
-223
-223
-223
-222
-222
-222
-222
-222
-222
-222
-222
-222
-221
-221
-221
-220
-220
-219
-219
-218
-218
-218
-217
-217
-217
-216
-216
-216
-215
-215
-215
-215
-214
-215
-215
-215
-214
-214
-214
-214
-214
-214
-214
-214
-214
-213
-213
-213
-213
-212
-212
-211
-211
-211
-211
-210
-210
-209
-209
-208
-208
-207
-207
-206
-206
-205
-205
-205
-204
-204
-203
-203
-202
-202
-201
-201
-200
-200
-200
-199
-199
-198
-198
-198
-197
-197
-197
-197
-196
-196
-196
-195
-195
-195
-195
-194
-194
-193
-193
-193
-193
-193
-192
-192
-192
-192
-191
-191
-192
-191
-191
-191
-191
-191
-191
-191
-191
-191
-191
-191
-191
-191
-190
-190
-190
-190
-190
-190
-190
-190
-189
-189
-189
-189
-189
-189
-189
-189
-189
-189
-189
-190
-190
-190
-190
-190
-191
-191
-191
-191
-192
-192
-192
-193
-193
-194
-194
-194
-194
-194
-194
-195
-195
-195
-195
-195
-196
-196
-196
-196
-196
-196
-197
-197
-197
-198
-199
-199
-199
-200
-201
-202
-202
-203
-204
-205
-205
-206
-207
-208
-209
-209
-210
-211
-212
-212
-213
-213
-214
-214
-215
-215
-215
-216
-216
-216
-217
-217
-217
-218
-218
-218
-218
-219
-219
-220
-220
-220
-220
-221
-221
-222
-222
-223
-223
-223
-224
-224
-225
-225
-226
-226
-227
-227
-228
-228
-229
-229
-229
-230
-230
-230
-231
-231
-231
-231
-231
-232
-232
-232
-232
-232
-232
-232
-232
-232
-232
-232
-232
-232
-233
-233
-233
-233
-233
-233
-233
-233
-233
-233
-233
-233
-233
-233
