# Simple Text Format
# Sampling Rate (Hz):= 1200.00
# Resolution:= 12
# Labels:= ECG	 V5
# Age:=	52
# Gender:=	Feminino
-96
-95
-95
-95
-95
-95
-95
-95
-95
-95
-95
-95
-95
-95
-95
-95
-95
-95
-94
-94
-94
-94
-94
-94
-94
-93
-93
-93
-93
-93
-93
-93
-93
-93
-92
-92
-91
-91
-91
-91
-91
-90
-90
-90
-90
-89
-89
-89
-89
-88
-89
-89
-89
-88
-88
-88
-89
-88
-89
-89
-90
-90
-90
-92
-92
-93
-93
-94
-95
-96
-97
-98
-99
-100
-101
-102
-103
-104
-104
-105
-106
-107
-108
-108
-107
-108
-109
-109
-110
-110
-111
-111
-111
-111
-112
-113
-113
-113
-114
-114
-115
-115
-115
-116
-116
-117
-116
-117
-117
-118
-119
-118
-119
-119
-119
-120
-119
-120
-119
-120
-120
-121
-121
-121
-121
-121
-121
-121
-122
-122
-121
-122
-122
-122
-123
-123
-123
-123
-123
-124
-124
-123
-124
-124
-124
-125
-125
-124
-124
-125
-125
-125
-124
-125
-125
-125
-125
-125
-125
-125
-126
-125
-125
-125
-126
-126
-126
-126
-127
-127
-127
-128
-128
-128
-128
-129
-129
-129
-129
-129
-129
-129
-130
-130
-131
-131
-131
-131
-131
-131
-132
-132
-131
-131
-131
-131
-131
-132
-132
-132
-132
-132
-132
-132
-132
-132
-132
-132
-133
-133
-133
-132
-132
-132
-132
-132
-132
-132
-132
-132
-132
-132
-133
-133
-133
-133
-133
-133
-133
-133
-134
-134
-134
-134
-133
-134
-134
-134
-133
-133
-134
-133
-133
-132
-132
-132
-131
-131
-130
-130
-130
-129
-129
-128
-128
-127
-127
-127
-126
-126
-125
-125
-125
-124
-124
-123
-123
-124
-123
-123
-123
-122
-122
-121
-122
-121
-121
-120
-120
-119
-119
-120
-119
-119
-119
-119
-118
-118
-118
-118
-117
-118
-118
-118
-118
-118
-118
-118
-118
-118
-118
-117
-117
-117
-117
-117
-116
-116
-116
-116
-115
-115
-115
-115
-115
-115
-115
-115
-114
-114
-114
-115
-115
-115
-115
-116
-117
-116
-117
-117
-118
-119
-120
-119
-120
-121
-121
-122
-123
-122
-123
-123
-123
-124
-124
-125
-125
-125
-126
-126
-126
-126
-127
-128
-128
-129
-129
-129
-130
-130
-131
-131
-132
-132
-133
-134
-134
-135
-134
-135
-135
-136
-136
-137
-137
-138
-138
-138
-138
-139
-139
-139
-139
-139
-140
-140
-139
-139
-139
-139
-139
-140
-140
-140
-140
-140
-140
-140
-140
-140
-140
-140
-140
-140
-140
-140
-140
-140
-138
-138
-138
-138
-138
-138
-137
-137
-137
-137
-136
-136
-136
-136
-136
-136
-137
-136
-136
-136
-136
-136
-135
-135
-135
-135
-134
-134
-135
-135
-134
-134
-133
-133
-134
-133
-133
-132
-132
-131
-131
-131
-130
-130
-129
-127
-126
-124
-123
-120
-118
-115
-110
-106
-101
-96
-90
-83
-76
-68
-59
-49
-39
-28
-16
-4
8
21
33
44
55
64
73
80
85
88
87
84
80
73
63
51
38
21
3
-18
-38
-61
-85
-109
-134
-158
-181
-203
-224
-244
-262
-277
-292
-304
-314
-322
-328
-333
-335
-336
-335
-333
-330
-326
-320
-314
-308
-300
-293
-285
-276
-268
-259
-250
-242
-233
-226
-217
-209
-202
-195
-188
-182
-175
-170
-165
-161
-157
-152
-149
-146
-144
-141
-138
-137
-135
-134
-133
-132
-132
-131
-130
-130
-130
-129
-129
-129
-129
-128
-128
-128
-128
-127
-127
-127
-127
-127
-127
-127
-127
-127
-126
-126
-126
-126
-125
-124
-124
-123
-123
-123
-123
-123
-122
-122
-122
-122
-121
-121
-121
-121
-120
-120
-120
-120
-120
-120
-120
-120
-120
-120
-120
-120
-120
-120
-119
-120
-120
-120
-120
-120
-120
-120
-120
-120
-120
-119
-119
-120
-120
-120
-120
-119
-119
-119
-119
-119
-119
-119
-119
-119
-119
-119
-119
-119
-119
-119
-119
-119
-119
-119
-120
-120
-120
-119
-119
-119
-119
-119
-119
-120
-120
-120
-120
-120
-120
-119
-119
-119
-119
-119
-119
-119
-119
-119
-118
-118
-118
-118
-118
-118
-118
-118
-117
-116
-116
-116
-116
-116
-116
-116
-116
-116
-116
-116
-116
-116
-115
-115
-114
-114
-114
-114
-114
-114
-114
-114
-114
-114
-114
-114
-114
-114
-114
-114
-114
-113
-113
-113
-113
-113
-113
-113
-113
-113
-112
-112
-113
-113
-113
-113
-113
-112
-112
-112
-111
-111
-110
-110
-110
-110
-110
-110
-110
-108
-108
-108
-108
-108
-108
-108
-108
-108
-108
-108
-107
-107
-107
-107
-106
-106
-106
-106
-106
-105
-105
-105
-105
-105
-104
-104
-104
-104
-103
-103
-102
-102
-102
-101
-101
-101
-101
-100
-99
-99
-99
-99
-98
-98
-97
-97
-97
-96
-96
-96
-96
-95
-94
-94
-94
-94
-94
-94
-94
-92
-93
-92
-92
-92
-92
-92
-90
-90
-90
-89
-89
-89
-89
-88
-88
-87
-87
-86
-86
-86
-85
-85
-85
-84
-84
-84
-83
-83
-82
-81
-81
-80
-81
-81
-81
-80
-80
-80
-79
-79
-79
-78
-78
-78
-78
-78
-77
-78
-78
-78
-78
-78
-78
-78
-78
-78
-78
-78
-77
-77
-77
-77
-77
-77
-77
-77
-78
-78
-78
-78
-78
-78
-79
-79
-79
-79
-79
-79
-79
-80
-80
-80
-81
-81
-81
-81
-82
-82
-82
-82
-84
-84
-84
-84
-84
-85
-85
-85
-86
-86
-86
-86
-87
-87
-87
-87
-88
-88
-88
-88
-89
-88
-88
-88
-89
-88
-88
-88
-88
-88
-88
-88
-88
-88
-88
-88
-88
-89
-88
-89
-89
-89
-90
-89
-90
-90
-91
-91
-92
-93
-92
-92
-93
-94
-94
-95
-96
-96
-96
-97
-97
-98
-98
-98
-99
-99
-100
-100
-100
-100
-101
-101
-101
-101
-103
-103
-103
-103
-104
-104
-104
-106
-106
-106
-106
-106
-107
-107
-107
-107
-107
-107
-107
-108
-108
-108
-108
-109
-109
-109
-109
-110
-110
-110
-110
-111
-111
-112
-112
-112
-113
-113
-113
-113
-114
-114
-114
-114
-114
-114
-115
-116
-116
-116
-116
-116
-116
-116
-116
-116
-116
-116
-116
-116
-116
-116
-116
-116
-116
-116
-116
-116
-117
-117
-117
-116
-116
-116
-116
-116
-116
-116
-116
-116
-116
-116
-116
-116
-116
-116
-116
-116
-115
-115
-115
-115
-115
-116
-115
-115
-115
-115
-115
-114
-114
-114
-114
-114
-114
-114
-115
-115
-113
-113
-113
-113
-113
-113
-113
-113
-113
-113
-113
-113
-113
-113
-112
-112
-112
-112
-112
-112
-112
-112
-112
-112
-112
-111
-111
-111
-111
-111
-111
-109
-109
-110
-110
-110
-110
-109
-109
-109
-109
-109
-109
-109
-109
-109
-109
-109
-109
-108
-108
-108
-108
-108
-108
-108
-107
-107
-107
-107
-107
-107
-107
-107
-106
-106
-106
-106
-106
-105
-105
-105
-105
-105
-105
-105
-105
-106
-106
-106
-106
-106
-106
-107
-107
-107
-107
-107
-107
-108
-108
-108
-108
-108
-109
-109
-109
-109
-109
-109
-109
-109
-109
-109
-109
-110
-110
-110
-110
-110
-110
-110
-110
-110
-110
-110
-110
-111
-111
-111
-111
-111
-111
-111
-111
-111
-111
-111
-110
-110
-110
-110
-110
-110
-110
-110
-110
-110
-110
-110
-110
-110
-111
-111
-111
-111
-111
-111
-111
-111
-111
-112
-112
-112
-112
-112
-112
-112
-112
-112
-112
-112
-112
-112
-112
-112
-111
-111
-111
-111
-111
-111
-111
-111
-111
-111
-111
-110
-110
-110
-110
-109
-109
-108
-108
-108
-107
-107
-107
-106
-105
-105
-105
-104
-103
-103
-103
-102
-102
-102
-101
-101
-101
-100
-100
-100
-99
-98
-98
-98
-98
-98
-97
-97
-97
-97
-97
-97
-97
-96
-96
-96
-96
-96
-95
-95
-95
-95
-95
-95
-95
-94
-94
-94
-94
-95
-95
-95
-94
-94
-94
-95
-94
-94
-94
-94
-93
-93
-94
-94
-94
-94
-94
-94
-94
-94
-94
-94
-94
-94
-94
-94
-95
-95
-95
-96
-97
-96
-97
-98
-98
-99
-99
-99
-100
-101
-101
-102
-103
-102
-103
-104
-104
-104
-104
-105
-105
-106
-106
-107
-106
-107
-107
-107
-108
-108
-109
-109
-109
-110
-110
-110
-111
-111
-112
-112
-112
-113
-113
-113
-114
-114
-114
-114
-115
-115
-115
-116
-116
-116
-117
-117
-116
-116
-117
-117
-117
-117
-118
-118
-118
-117
-118
-118
-118
-118
-118
-119
-119
-119
-119
-119
-119
-119
-119
-119
-119
-119
-119
-119
-119
-119
-119
-119
-119
-119
-119
-119
-119
-119
-118
-118
-118
-118
-118
-118
-117
-117
-117
-117
-117
-116
-116
-116
-117
-117
-117
-117
-117
-117
-116
-116
-116
-115
-116
-115
-115
-114
-114
-113
-112
-111
-110
-109
-107
-105
-103
-102
-99
-96
-91
-87
-83
-77
-71
-65
-57
-49
-40
-30
-20
-9
2
14
25
37
47
57
67
76
83
89
92
94
92
88
82
73
63
50
35
18
0
-21
-42
-65
-87
-111
-135
-157
-180
-200
-220
-239
-255
-269
-283
-293
-302
-309
-314
-317
-319
-319
-317
-314
-310
-306
-300
-294
-287
-279
-271
-263
-255
-246
-238
-229
-221
-213
-205
-197
-191
-183
-177
-171
-165
-160
-155
-150
-146
-142
-138
-135
-132
-130
-128
-126
-124
-123
-120
-119
-119
-118
-117
-117
-116
-115
-115
-114
-114
-114
-114
-114
-113
-113
-113
-113
-113
-113
-113
-113
-113
-113
-113
-113
-113
-114
-114
-114
-114
-113
-113
-113
-113
-113
-113
-113
-112
-112
-112
-112
-112
-112
-112
-111
-112
-112
-112
-112
-112
-111
-111
-112
-112
-112
-112
-112
-111
-111
-111
-111
-112
-112
-112
-112
-112
-112
-112
-112
-112
-112
-111
-111
-111
-111
-111
-111
-111
-111
-111
-111
-110
-110
-110
-110
-110
-110
-110
-109
-109
-109
-109
-109
-109
-108
-108
-108
-108
-109
-108
-108
-108
-108
-108
-108
-108
-107
-107
-107
-107
-107
-107
-107
-107
-107
-106
-107
-107
-107
-107
-107
-107
-107
-107
-107
-107
-107
-107
-106
-106
-106
-106
-106
-106
-106
-106
-106
-106
-106
-105
-104
-104
-104
-104
-104
-104
-104
-104
-104
-103
-103
-103
-103
-103
-103
-102
-102
-102
-102
-102
-102
-102
-102
-103
-102
-103
-103
-103
-103
-103
-103
-103
-103
-103
-103
-104
-104
-104
-104
-105
-105
-104
-104
-104
-104
-104
-104
-104
-103
-103
-103
-102
-102
-102
-102
-101
-101
-100
-99
-99
-99
-98
-98
-97
-96
-96
-96
-95
-95
-95
-94
-94
-94
-92
-92
-92
-91
-91
-91
-90
-89
-89
-89
-88
-88
-88
-88
-88
-86
-86
-86
-86
-86
-85
-85
-85
-85
-85
-84
-84
-84
-84
-84
-83
-82
-83
-83
-82
-82
-81
-81
-81
-81
-80
-80
-80
-80
-79
-78
-78
-77
-77
-77
-76
-76
-76
-76
-75
-75
-75
-75
-75
-73
-73
-73
-73
-73
-73
-73
-73
-72
-72
-72
-72
-72
-72
-71
-71
-71
-71
-71
-71
-70
-70
-71
-71
-71
-71
-71
-70
-70
-70
-70
-70
-70
-70
-69
-69
-69
-69
-70
-69
-69
-69
-70
-70
-69
-69
-70
-70
-70
-71
-70
-71
-71
-71
-71
-71
-71
-72
-72
-72
-72
-73
-73
-73
-73
-74
-74
-74
-74
-75
-75
-76
-76
-75
-75
-76
-76
-76
-76
-76
-77
-77
-76
-76
-76
-77
-77
-76
-76
-77
-77
-76
-76
-77
-77
-78
-77
-77
-77
-78
-78
-79
-78
-79
-79
-80
-80
-81
-81
-81
-82
-82
-83
-83
-84
-84
-85
-85
-85
-86
-86
-86
-87
-87
-87
-88
-88
-88
-89
-89
-90
-90
-90
-90
-91
-92
-92
-92
-93
-94
-94
-94
-95
-95
-96
-96
-97
-97
-98
-98
-99
-99
-99
-100
-100
-100
-101
-102
-102
-102
-102
-102
-103
-103
-103
-103
-104
-105
-105
-105
-105
-105
-105
-106
-107
-107
-107
-107
-107
-107
-107
-108
-108
-109
-109
-109
-109
-109
-109
-109
-109
-109
-109
-109
-109
-110
-110
-110
-110
-110
-110
-110
-110
-110
-110
-110
-110
-110
-109
-109
-109
-109
-109
-109
-109
-109
-109
-109
-109
-109
-109
-109
-110
-110
-109
-109
-109
-109
-109
-109
-109
-108
-108
-108
-108
-108
-108
-108
-108
-108
-108
-108
-108
-108
-108
-108
-108
-108
-108
-108
-108
-108
-108
-109
-108
-108
-108
-108
-108
-108
-108
-107
-107
-107
-107
-107
-107
-107
-106
-105
-105
-105
-105
-105
-104
-104
-104
-104
-104
-102
-102
-102
-102
-102
-102
-102
-102
-102
-102
-102
-102
-102
-102
-102
-102
-102
-102
-102
-103
-103
-103
-103
-103
-103
-103
-102
-102
-102
-102
-102
-102
-102
-102
-103
-103
-103
-103
-103
-103
-103
-103
-104
-104
-104
-104
-104
-104
-105
-105
-105
-104
-104
-104
-104
-104
-105
-105
-105
-105
-105
-104
-104
-104
-104
-105
-105
-105
-105
-105
-105
-105
-105
-105
-105
-105
-105
-105
-105
-105
-105
-105
-106
-106
-106
-106
-106
-106
-106
-106
-106
-106
-106
-106
-106
-106
-106
-107
-107
-107
-107
-107
-107
-107
-107
-107
-108
-108
-108
-108
-108
-108
-109
-109
-109
-109
-109
-109
-109
-109
-109
-109
-109
-110
-110
-110
-110
-110
-110
-110
-110
-110
-110
-110
-110
-110
-110
-110
-110
-110
-110
-110
-110
-111
-111
-111
-111
-111
-111
-111
-111
-111
-111
-111
-110
-109
-109
-109
-108
-108
-107
-107
-106
-106
-105
-105
-104
-104
-103
-103
-103
-102
-101
-101
-100
-100
-100
-100
-99
-99
-99
-99
-99
-98
-99
-99
-99
-99
-98
-98
-97
-97
-97
-97
-96
-96
-96
-96
-97
-97
-97
-96
-95
-96
-96
-96
-96
-96
-96
-96
-95
-95
-95
-94
-94
-94
-94
-94
-93
-93
-92
-92
-93
-92
-92
-91
-91
-91
-91
-91
-91
-91
-91
-92
-92
-93
-93
-94
-94
-95
-96
-96
-96
-97
-98
-99
-100
-101
-100
-101
-102
-103
-103
-104
-103
-104
-105
-105
-105
-106
-106
-107
-106
-106
-107
-107
-108
-108
-108
-109
-109
-110
-110
-110
-111
-111
-112
-112
-112
-113
-113
-114
-114
-114
-114
-115
-115
-115
-116
-116
-116
-117
-117
-117
-117
-117
-118
-118
-118
-118
-119
-119
-119
-119
-119
-119
-118
-118
-118
-118
-118
-118
-118
-118
-118
-118
-118
-118
-118
-118
-119
-119
-119
-119
-119
-119
-119
-119
-118
-118
-118
-118
-118
-118
-119
-119
-119
-119
-118
-118
-118
-118
-118
-118
-118
-118
-118
-118
-118
-117
-117
-117
-117
-117
-117
-116
-116
-117
-116
-116
-117
-116
-116
-115
-115
-115
-114
-113
-112
-111
-109
-108
-106
-103
-100
-97
-94
-90
-85
-80
-73
-68
-60
-52
-44
-34
-24
-14
-2
8
19
30
40
50
59
67
74
79
82
83
81
76
70
60
50
36
22
5
-13
-34
-55
-78
-100
-123
-147
-169
-190
-211
-229
-247
-262
-277
-288
-298
-306
-312
-316
-319
-320
-320
-317
-314
-310
-306
-299
-293
-286
-279
-271
-263
-254
-246
-238
-230
-222
-213
-205
-197
-189
-183
-176
-170
-164
-159
-154
-149
-145
-140
-137
-134
-131
-128
-126
-124
-122
-121
-119
-118
-118
-117
-116
-116
-115
-115
-115
-115
-115
-115
-115
-114
-115
-115
-115
-115
-115
-114
-114
-114
-115
-115
-114
-114
-114
-114
-114
-113
-113
-113
-113
-114
-114
-113
-113
-113
-113
-113
-113
-113
-113
-112
-112
-112
-112
-112
-112
-112
-112
-112
-111
-111
-111
-110
-110
-111
-111
-111
-111
-111
-110
-110
-110
-110
-110
-110
-110
-110
-110
-110
-110
-110
-110
-110
-110
-110
-110
-111
-111
-111
-111
-111
-111
-111
-111
-111
-111
-111
-111
-111
-111
-111
-111
-111
-111
-111
-110
-110
-110
-110
-110
-110
-110
-110
-110
-110
-109
-109
-109
-109
-109
-109
-109
-109
-109
-109
-109
-109
-109
-108
-108
-108
-108
-108
-108
-108
-108
-108
-107
-108
-108
-108
-108
-108
-108
-108
-107
-107
-107
-107
-106
-106
-106
-106
-106
-106
-107
-107
-107
-107
-107
-106
-107
-107
-107
-107
-107
-107
-107
-107
-107
-107
-107
-107
-107
-107
-106
-106
-106
-106
-106
-106
-106
-106
-106
-106
-106
-104
-104
-104
-104
-104
-104
-103
-103
-103
-103
-103
-101
-101
-101
-101
-101
-100
-100
-100
-100
-100
-99
-99
-99
-99
-99
-98
-98
-98
-98
-98
-98
-98
-98
-98
-98
-98
-98
-98
-98
-98
-97
-97
-97
-97
-97
-97
-97
-96
-96
-96
-96
-96
-95
-95
-95
-95
-95
-95
-94
-94
-94
-94
-94
-94
-94
-94
-93
-93
-92
-92
-92
-92
-91
-91
-90
-89
-89
-89
-89
-88
-88
-88
-86
-86
-86
-86
-85
-85
-85
-85
-83
-83
-83
-83
-83
-83
-82
-82
-82
-82
-81
-81
-81
-81
-80
-80
-80
-79
-79
-80
-80
-80
-79
-79
-78
-79
-79
-79
-79
-79
-78
-78
-79
-79
-79
-79
-79
-78
-79
-79
-79
-80
-79
-80
-80
-81
-81
-81
-81
-81
-81
-82
-82
-82
-82
-83
-83
-83
-83
-84
-83
-83
-84
-84
-84
-84
-84
-84
-84
-84
-85
-85
-85
-85
-85
-85
-85
-85
-86
-86
-86
-86
-86
-87
-87
-86
-86
-87
-87
-87
-87
-88
-88
-88
-88
-88
-88
-89
-88
-89
-89
-89
-89
-89
-89
-89
-90
-90
-90
-90
-89
-90
-90
-90
-90
-90
-90
-90
-91
-91
-90
-91
-91
-92
-92
-92
-93
-93
-95
-95
-95
-96
-96
-96
-97
-97
-97
-98
-98
-98
-99
-99
-99
-99
-99
-100
-99
-100
-99
-100
-100
-100
-101
-100
-101
-101
-101
-101
-101
-101
-101
-101
-101
-101
-102
-102
-102
-102
-102
-103
-103
-104
-104
-104
-104
-105
-105
-105
-105
-105
-106
-107
-107
-107
-108
-108
-108
-109
-110
-110
-110
-110
-111
-111
-111
-111
-111
-111
-111
-111
-111
-112
-112
-112
-112
-112
-112
-112
-112
-112
-112
-112
-112
-112
-112
-112
-111
-111
-111
-111
-111
-111
-111
-111
-112
-112
-112
-112
-111
-111
-111
-111
-110
-110
-110
-110
-110
-110
-110
-110
-110
-110
-110
-110
-110
-109
-109
-109
-109
-109
-109
-109
-109
-108
-108
-108
-108
-108
-108
-108
-108
-108
-108
-108
-108
-108
-108
-108
-108
-107
-107
-107
-107
-108
-108
-108
-108
-108
-108
-107
-106
-106
-106
-106
-106
-106
-106
-106
-106
-105
-105
-105
-105
-104
-104
-104
-104
-104
-103
-103
-103
-103
-103
-103
-103
-103
-103
-102
-102
-102
-102
-102
-103
-103
-103
-103
-103
-103
-104
-104
-104
-104
-105
-105
-105
-105
-105
-105
-105
-106
-106
-106
-106
-106
-106
-106
-107
-107
-107
-107
-107
-107
-107
-107
-107
-107
-107
-107
-107
-107
-107
-107
-106
-106
-106
-106
-106
-106
-106
-106
-106
-106
-107
-107
-107
-107
-107
-107
-107
-107
-108
-108
-108
-108
-108
-109
-110
-110
-110
-110
-111
-111
-111
-111
-111
-111
-111
-112
-112
-112
-112
-112
-112
-111
-111
-111
-111
-111
-111
-111
-111
-111
-111
-111
-111
-111
-111
-111
-111
-111
-111
-111
-111
-112
-112
-112
-112
-113
-112
-112
-112
-112
-112
-113
-113
-113
-113
-113
-112
-112
-112
-112
-112
-112
-112
-112
-112
-112
-111
-111
-111
-111
-111
-110
-110
-110
-109
-109
-109
-108
-108
-107
-107
-107
-106
-106
-106
-105
-105
-105
-104
-104
-104
-104
-104
-104
-104
-103
-103
-103
-103
-103
-103
-103
-103
-103
-103
-103
-103
-103
-103
-103
-103
-103
-102
-102
-102
-102
-101
-101
-101
-100
-100
-100
-100
-99
-99
-100
-100
-99
-99
-99
-98
-99
-99
-99
-98
-98
-98
-98
-98
-98
-98
-97
-97
-97
-97
-97
-96
-96
-96
-96
-96
-96
-96
-97
-98
-98
-98
-99
-99
-100
-100
-100
-101
-101
-102
-103
-103
-104
-105
-104
-105
-106
-106
-107
-106
-106
-107
-107
-107
-108
-107
-107
-107
-107
-107
-108
-108
-108
-108
-108
-109
-109
-109
-109
-109
-110
-110
-111
-112
-112
-113
-113
-114
-114
-115
-115
-116
-116
-117
-117
-118
-118
-119
-119
-119
-120
-120
-120
-121
-121
-121
-121
-121
-121
-121
-121
-121
-121
-121
-121
-121
-121
-121
-121
-121
-121
-121
-121
-121
-121
-120
-120
-120
-120
-120
-120
-120
-120
-120
-120
-120
-120
-120
-121
-121
-120
-120
-120
-120
-120
-120
-120
-120
-120
-120
-120
-120
-120
-120
-120
-120
-120
-120
-119
-120
-120
-120
-119
-119
-119
-119
-119
-119
-118
-118
-117
-117
-117
-116
-115
-114
-113
-111
-109
-107
-105
-102
-99
-94
-90
-85
-80
-73
-67
-60
-52
-43
-34
-25
-15
-4
7
17
28
37
47
55
63
68
73
75
75
73
68
60
50
39
26
11
-6
-24
-45
-67
-89
-111
-132
-155
-178
-197
-218
-236
-253
-267
-280
-291
-301
-308
-313
-318
-319
-320
-319
-317
-314
-310
-305
-298
-293
-285
-277
-269
-262
-253
-245
-237
-229
-221
-213
-205
-197
-190
-183
-177
-170
-164
-159
-155
-151
-146
-143
-139
-136
-132
-130
-128
-126
-124
-123
-121
-120
-120
-119
-118
-118
-118
-118
-117
-117
-117
-116
-116
-117
-117
-117
-117
-117
-117
-117
-117
-117
-117
-117
-117
-116
-116
-115
-115
-115
-115
-115
-115
-114
-114
-114
-114
-114
-114
-114
-114
-114
-114
-114
-114
-114
-114
-114
-115
-115
-115
-115
-115
-115
-115
-116
-116
-116
-116
-116
-116
-116
-116
-116
-116
-116
-116
-116
-116
-116
-116
-116
-116
-116
-115
-115
-115
-115
-115
-115
-115
-114
-114
-114
-114
-114
-114
-113
-113
-113
-113
-113
-113
-113
-113
-114
-114
-114
-114
-115
-115
-116
-116
-116
-116
-116
-116
-116
-117
-117
-117
-117
-116
-116
-117
-117
-117
-117
-117
-117
-117
-117
-117
-117
-117
-117
-118
-118
-118
-117
-117
-117
-117
-117
-117
-117
-117
-117
-117
-117
-117
-117
-116
-116
-116
-116
-116
-116
-117
-116
-116
-116
-115
-115
-115
-115
-115
-114
-114
-114
-114
-114
-113
-113
-113
-113
-113
-112
-112
-112
-112
-112
-112
-112
-112
-112
-112
-113
-113
-112
-112
-112
-112
-113
-113
-113
-113
-113
-112
-113
-113
-113
-113
-113
-113
-112
-112
-112
-112
-113
-112
-112
-112
-111
-111
-110
-110
-110
-110
-109
-109
-109
-109
-108
-107
-107
-107
-106
-106
-106
-106
-106
-106
-105
-105
-105
-104
-104
-104
-104
-103
-103
-103
-103
-103
-103
-102
-101
-102
-101
-102
-102
-101
-101
-100
-101
-100
-100
-101
-100
-100
-100
-100
-100
-99
-99
-99
-99
-99
-98
-98
-98
-98
-98
-98
-97
-97
-97
-96
-96
-96
-96
-95
-95
-95
-95
-95
-94
-94
-93
-93
-93
-92
-92
-92
-92
-92
-92
-92
-92
-92
-91
-92
-93
-92
-92
-93
-92
-92
-92
-92
-93
-93
-92
-92
-92
-93
-92
-92
-92
-92
-92
-92
-92
-92
-93
-93
-92
-93
-93
-93
-94
-93
-93
-94
-94
-94
-95
-95
-95
-95
-96
-96
-96
-96
-96
-96
-96
-96
-96
-97
-97
-97
-97
-97
-97
-98
-98
-98
-98
-98
-99
-99
-99
-99
-99
-100
-99
-99
-99
-99
-99
-100
-99
-99
-100
-100
-100
-100
-100
-100
-101
-102
-101
-101
-102
-102
-103
-103
-103
-104
-103
-103
-103
-104
-104
-105
-105
-105
-106
-106
-106
-106
-107
-107
-107
-108
-108
-108
-108
-109
-109
-109
-109
-110
-110
-110
-111
-111
-111
-111
-112
-113
-113
-114
-114
-115
-115
-115
-116
-117
-117
-118
-119
-119
-119
-119
-120
-121
-121
-122
-122
-122
-123
-124
-124
-125
-125
-125
-127
-127
-127
-127
-128
-128
-128
-128
-128
-128
-128
-129
-129
-129
-129
-129
-129
-129
-129
-130
-130
-130
-130
-130
-130
-130
-130
-130
-130
-130
-130
-130
-130
-131
-131
-131
-131
-132
-132
-132
-132
-132
-132
-133
-133
-133
-133
-133
-133
-134
-133
-133
-133
-134
-134
-134
-134
-134
-134
-134
-134
-134
-134
-135
-135
-135
-135
-134
-133
-133
-133
-133
-133
-133
-132
-132
-132
-132
-132
-132
-132
-131
-131
-130
-130
-131
-131
-131
-131
-131
-131
-131
-131
-131
-131
-131
-131
-131
-131
-131
-131
-131
-131
-130
-130
-130
-131
-131
-130
-130
-130
-130
-130
-131
-131
-131
-131
-131
-131
-130
-130
-130
-130
-130
-131
-131
-131
-131
-131
-131
-131
-131
-130
-130
-130
-131
-131
-131
-131
-131
-131
-131
-131
-131
-131
-131
-131
-130
-130
-131
-131
-131
-131
-131
-131
-131
-131
-131
-131
-131
-132
-132
-132
-132
-132
-133
-133
-133
-133
-133
-133
-133
-133
-134
-134
-134
-134
-135
-135
-135
-135
-135
-134
-135
-135
-135
-135
-135
-135
-136
-136
-135
-135
-136
-136
-136
-136
-137
-137
-137
-137
-138
-138
-138
-138
-139
-139
-139
-139
-139
-140
-140
-140
-140
-141
-141
-141
-141
-141
-141
-141
-140
-141
-141
-141
-141
-141
-141
-141
-142
-142
-141
-141
-141
-141
-142
-141
-141
-141
-141
-142
-142
-142
-141
-143
-142
-142
-143
-143
-143
-144
-145
-145
-145
-145
-145
-145
-146
-147
-147
-147
-147
-147
-147
-147
-148
-147
-147
-147
-147
-147
-146
-146
-146
-146
-146
-146
-147
-147
-147
-147
-147
-147
-148
-148
-148
-148
-150
-149
-149
-149
-149
-150
-151
-151
-151
-150
-150
-151
-151
-151
-151
-151
-151
-151
-151
-151
-151
-151
-151
-150
-150
-150
-150
-150
-150
-151
-150
-150
-150
-150
-150
-150
-150
-150
-150
-149
-149
-149
-148
-148
-148
-148
-148
-148
-148
-147
-147
-147
-146
-146
-145
-146
-145
-145
-145
-144
-144
-143
-144
-143
-143
-142
-142
-141
-141
-140
-140
-140
-140
-140
-140
-139
-139
-139
-139
-139
-140
-140
-140
-140
-139
-139
-139
-139
-139
-140
-139
-139
-139
-139
-138
-138
-138
-138
-138
-138
-137
-137
-138
-137
-137
-136
-137
-137
-136
-137
-136
-136
-135
-136
-136
-135
-135
-136
-136
-136
-136
-136
-136
-137
-137
-137
-138
-138
-139
-139
-140
-141
-140
-141
-142
-143
-144
-144
-145
-146
-146
-146
-146
-147
-147
-148
-147
-148
-148
-148
-147
-148
-148
-147
-148
-148
-148
-148
-148
-149
-148
-148
-149
-149
-150
-150
-150
-151
-151
-152
-152
-154
-154
-154
-154
-155
-156
-156
-156
-157
-158
-158
-159
-158
-158
-159
-160
-160
-160
-160
-160
-160
-160
-161
-161
-161
-162
-162
-162
-161
-162
-162
-162
-162
-162
-161
-161
-161
-161
-161
-161
-161
-160
-160
-160
-160
-161
-161
-161
-160
-160
-160
-160
-160
-160
-161
-160
-160
-161
-161
-161
-160
-161
-161
-161
-161
-161
-161
-161
-161
-161
-161
-161
-161
-161
-162
-161
-161
-161
-161
-161
-160
-160
-160
-159
-158
-158
-157
-155
-154
-152
-149
-146
-143
-139
-135
-129
-124
-117
-109
-101
-92
-83
-72
-61
-49
-36
-25
-13
-1
10
21
31
39
47
51
54
54
52
48
40
32
20
7
-9
-27
-46
-67
-90
-112
-137
-160
-184
-207
-230
-251
-271
-288
-305
-320
-332
-343
-352
-359
-364
-367
-368
-369
-367
-365
-360
-356
-351
-344
-337
-329
-322
-313
-306
-297
-289
-280
-271
-264
-255
-247
-239
-232
-225
-219
-213
-207
-202
-196
-192
-188
-184
-180
-178
-174
-172
-171
-168
-167
-166
-164
-163
-163
-162
-162
-162
-162
-162
-162
-162
-162
-162
-162
-163
-163
-162
-162
-162
-161
-162
-162
-162
-161
-161
-161
-160
-160
-160
-160
-160
-160
-160
-160
-160
-159
-159
-159
-160
-160
-160
-160
-160
-160
-160
-160
-160
-160
-160
-160
-160
-159
-159
-159
-159
-159
-159
-159
-159
-159
-158
-158
-158
-158
-158
-158
-157
-157
-157
-157
-157
-157
-157
-157
-157
-156
-156
-156
-157
-157
-157
-157
-156
-157
-157
-157
-157
-157
-158
-158
-158
-158
-158
-158
-158
-158
-158
-158
-158
-158
-158
-158
-158
-158
-158
-158
-158
-158
-158
-158
-158
-158
-159
-159
-159
-159
-159
-159
-159
-159
-160
-159
-159
-159
-159
-159
-159
-158
-158
-158
-158
-157
-157
-157
-157
-158
-157
-157
-157
-156
-156
-156
-156
-156
-156
-157
-157
-157
-156
-156
-156
-156
-156
-156
-156
-156
-156
-156
-157
-156
-156
-156
-156
-156
-155
-155
-155
-155
-155
-155
-155
-155
-155
-154
-154
-154
-154
-154
-154
-154
-154
-153
-153
-153
-153
-153
-153
-153
-153
-153
-153
-152
-152
-152
-152
-152
-152
-152
-151
-151
-150
-150
-150
-150
-150
-149
-148
-148
-148
-148
-148
-147
-146
-146
-146
-146
-146
-145
-144
-144
-144
-144
-144
-144
-143
-143
-143
-143
-143
-143
-143
-143
-143
-143
-142
-142
-142
-142
-142
-142
-142
-142
-142
-142
-141
-141
-140
-140
-140
-140
-139
-139
-139
-139
-138
-138
-138
-138
-138
-137
-137
-137
-137
-136
-136
-136
-135
-135
-135
-135
-135
-135
-135
-135
-135
-134
-134
-134
-134
-135
-135
-135
-135
-135
-134
-134
-134
-134
-134
-134
-134
-133
-133
-133
-133
-133
-132
-132
-133
-133
-133
-133
-133
-134
-134
-133
-134
-134
-135
-135
-135
-135
-136
-137
-137
-137
-137
-138
-138
-139
-139
-140
-140
-140
-140
-141
-141
-141
-142
-142
-142
-143
-144
-144
-144
-144
-146
-146
-146
-146
-147
-147
-148
-148
-148
-148
-148
-148
-148
-148
-148
-149
-149
-149
-149
-149
-149
-148
-149
-149
-148
-148
-148
-147
-147
-146
-146
-147
-145
-146
-145
-145
-145
-145
-144
-144
-144
-144
-144
-144
-144
-144
-145
-145
-145
-145
-146
-145
-145
-145
-146
-146
-147
-147
-147
-148
-148
-148
-149
-149
-149
-150
-150
-150
-151
-151
-151
-151
-153
-153
-153
-154
-154
-154
-155
-155
-155
-155
-157
-157
-158
-158
-158
-158
-159
-159
-159
-160
-160
-160
-160
-160
-160
-160
-160
-161
-161
-161
-161
-161
-161
-161
-161
-161
-161
-161
-161
-162
-163
-163
-163
-163
-163
-163
-163
-163
-163
-163
-164
-164
-164
-163
-164
-164
-164
-164
-164
-163
-163
-163
-163
-163
-163
-163
-163
-163
-163
-163
-163
-163
-163
-163
-163
-163
-162
-162
-162
-162
-162
-162
-162
-161
-161
-161
-161
-161
-160
-160
-160
-160
-159
-159
-159
-159
-159
-159
-159
-157
-157
-157
-157
-157
-157
-156
-156
-156
-156
-155
-155
-155
-155
-155
-154
-154
-154
-153
-153
-153
-153
-152
-152
-152
-152
-152
-152
-152
-152
-152
-152
-152
-152
-152
-152
-151
-151
-151
-151
-151
-151
-151
-152
-152
-151
-150
-150
-150
-150
-150
-150
-150
-150
-150
-150
-149
-149
-149
-149
-149
-149
-148
-148
-148
-148
-148
-148
-148
-148
-148
-148
-148
-148
-148
-148
-149
-149
-149
-149
-149
-150
-150
-150
-150
-151
-151
-151
-151
-151
-151
-151
-151
-151
-152
-152
-152
-152
-152
-151
-152
-152
-152
-152
-152
-152
-152
-152
-152
-152
-152
-152
-152
-152
-152
-152
-152
-152
-153
-153
-153
-153
-153
-154
-154
-154
-154
-154
-154
-155
-155
-156
-156
-156
-156
-156
-156
-157
-157
-157
-157
-157
-157
-157
-157
-158
-158
-158
-158
-158
-158
-158
-157
-157
-158
-158
-158
-157
-158
-157
-157
-156
-156
-156
-156
-156
-156
-157
-157
-157
-157
-157
-157
-157
-158
-158
-158
-158
-158
-158
-158
-158
-160
-160
-160
-160
-160
-160
-160
-160
-160
-160
-160
-160
-160
-159
-159
-159
-159
-159
-159
-159
-159
-159
-159
-160
-160
-160
-160
-160
-160
-159
-160
-160
-160
-160
-160
-160
-160
-160
-159
-159
-160
-160
-159
-158
-158
-157
-157
-157
-156
-156
-155
-155
-154
-154
-153
-153
-152
-152
-151
-151
-151
-150
-150
-149
-149
-148
-148
-147
-147
-146
-146
-147
-146
-146
-146
-145
-145
-145
-144
-144
-144
-145
-144
-144
-144
-144
-144
-143
-143
-143
-143
-143
-143
-143
-143
-143
-143
-143
-143
-142
-143
-143
-143
-142
-142
-143
-143
-143
-142
-142
-142
-142
-142
-142
-142
-142
-142
-142
-142
-143
-143
-143
-144
-144
-144
-145
-144
-145
-145
-146
-146
-147
-147
-148
-147
-148
-148
-149
-149
-150
-150
-149
-150
-150
-150
-151
-150
-151
-151
-151
-152
-151
-152
-152
-153
-153
-154
-154
-154
-155
-155
-156
-157
-158
-158
-159
-160
-160
-161
-162
-162
-163
-163
-164
-164
-165
-165
-165
-167
-167
-167
-167
-167
-167
-167
-167
-167
-168
-168
-168
-168
-168
-168
-167
-167
-167
-167
-167
-166
-166
-165
-165
-165
-165
-165
-165
-165
-165
-165
-165
-165
-165
-165
-166
-166
-166
-166
-166
-166
-165
-165
-165
-165
-165
-165
-165
-165
-165
-164
-164
-164
-164
-164
-164
-163
-163
-163
-163
-163
-163
-164
-164
-164
-164
-163
-164
-164
-164
-164
-164
-163
-163
-163
-162
-160
-159
-158
-156
-154
-151
-148
-144
-139
-133
-128
-121
-113
-105
-96
-86
-76
-64
-52
-39
-27
-14
-1
11
23
34
44
52
59
64
66
64
62
56
48
38
25
10
-7
-27
-48
-70
-94
-117
-142
-166
-191
-214
-237
-258
-279
-296
-313
-327
-340
-350
-358
-364
-368
-371
-372
-372
-369
-366
-362
-357
-350
-343
-336
-328
-319
-311
-302
-294
-284
-276
-267
-258
-249
-241
-234
-227
-220
-214
-208
-202
-197
-192
-187
-184
-181
-177
-175
-173
-170
-169
-168
-168
-167
-166
-165
-164
-164
-165
-164
-164
-164
-164
-164
-164
-163
-163
-163
-163
-162
-162
-163
-162
-162
-162
-161
-161
-161
-160
-160
-160
-160
-160
-160
-160
-160
-159
-160
-160
-160
-160
-160
-161
-161
-161
-161
-161
-161
-161
-161
-161
-161
-161
-161
-161
-161
-161
-161
-160
-160
-159
-159
-159
-159
-159
-159
-158
-157
-157
-157
-157
-157
-157
-157
-157
-157
-157
-157
-157
-157
-157
-158
-158
-158
-159
-159
-158
-158
-158
-158
-158
-158
-158
-158
-158
-158
-158
-158
-158
-158
-158
-158
-158
-158
-159
-159
-159
-159
-159
-159
-159
-159
-159
-159
-159
-159
-159
-158
-158
-158
-157
-157
-158
-158
-157
-157
-157
-157
-157
-157
-157
-156
-156
-157
-157
-157
-157
-156
-157
-157
-156
-156
-157
-156
-157
-156
-157
-156
-156
-156
-156
-156
-156
-155
-155
-155
-155
-155
-155
-155
-156
-156
-156
-156
-156
-157
-157
-157
-157
-157
-157
-157
-157
-157
-157
-157
-157
-157
-157
-157
-157
-156
-156
-156
-156
-156
-155
-154
-154
-154
-154
-154
-154
-153
-153
-153
-153
-153
-152
-152
-152
-151
-151
-151
-151
-151
-150
-149
-149
-149
-149
-149
-149
-149
-149
-149
-148
-148
-148
-148
-148
-148
-148
-149
-149
-149
-149
-149
-149
-149
-149
-149
-149
-148
-148
-148
-148
-148
-148
-146
-146
-146
-146
-146
-146
-144
-144
-144
-144
-143
-143
-142
-142
-142
-141
-142
-141
-141
-141
-140
-140
-139
-138
-138
-138
-138
-136
-136
-136
-136
-135
-135
-135
-134
-133
-133
-133
-133
-133
-132
-132
-132
-133
-133
-132
-133
-133
-134
-133
-133
-134
-133
-133
-134
-133
-133
-133
-133
-133
-133
-133
-133
-133
-133
-133
-133
-133
-133
-133
-133
-133
-133
-133
-133
-133
-133
-133
-133
-132
-133
-133
-133
-133
-134
-133
-133
-133
-134
-134
-133
-134
-134
-135
-134
-134
-134
-135
-135
-135
-136
-136
-136
-136
-136
-137
-137
-138
-138
-138
-138
-139
-139
-139
-140
-140
-139
-140
-140
-141
-141
-142
-141
-141
-141
-142
-141
-141
-142
-142
-142
-142
-142
-142
-142
-142
-142
-142
-141
-142
-142
-142
-141
-142
-142
-142
-143
-142
-143
-143
-143
-144
-144
-144
-144
-144
-145
-146
-147
-147
-147
-148
-148
-148
-148
-149
-149
-149
-149
-150
-151
-151
-152
-152
-152
-152
-153
-153
-155
-155
-155
-156
-157
-157
-158
-159
-159
-160
-161
-161
-162
-163
-163
-164
-164
-164
-165
-166
-166
-166
-167
-167
-167
-167
-167
-167
-168
-168
-169
-169
-168
-168
-168
-169
-169
-169
-168
-169
-169
-169
-170
-169
-169
-170
-170
-170
-170
-170
-170
-170
-171
-171
-171
-171
-170
-171
-171
-171
-171
-172
-172
-172
-171
-171
-171
-171
-171
-171
-171
-171
-171
-171
-170
-170
-170
-170
-170
-170
-170
-170
-170
-170
-170
-170
-171
-171
-170
-170
-170
-170
-170
-170
-170
-169
-169
-169
-169
-169
-169
-168
-168
-169
-169
-168
-168
-168
-168
-168
-168
-168
-168
-168
-168
-168
-168
-168
-167
-167
-167
-167
-167
-167
-167
-167
-167
-166
-166
-166
-166
-166
-166
-166
-166
-165
-165
-165
-164
-164
-165
-165
-164
-164
-164
-164
-164
-164
-164
-164
-164
-164
-163
-163
-163
-164
-164
-164
-164
-164
-164
-165
-165
-165
-165
-165
-165
-165
-165
-165
-165
-165
-165
-166
-166
-166
-166
-166
-166
-166
-167
-167
-167
-166
-166
-166
-166
-166
-166
-166
-165
-165
-165
-165
-165
-165
-165
-165
-165
-165
-165
-165
-165
-165
-165
-165
-165
-166
-166
-166
-166
-166
-167
-167
-167
-167
-167
-168
-168
-168
-168
-168
-168
-168
-169
-169
-169
-169
-169
-169
-169
-169
-169
-170
-170
-171
-171
-171
-171
-171
-171
-170
-170
-171
-171
-171
-171
-171
-171
-171
-171
-171
-170
-170
-170
-170
-170
-169
-169
-170
-169
-169
-169
-169
-169
-169
-169
-170
-169
-170
-170
-170
-170
-170
-171
-171
-171
-171
-171
-171
-171
-171
-172
-172
-172
-172
-173
-172
-172
-172
-172
-172
-172
-172
-172
-172
-172
-172
-173
-173
-173
-173
-173
-173
-173
-173
-173
-173
-173
-174
-174
-173
-173
-173
-173
-173
-173
-172
-172
-172
-172
-172
-171
-171
-170
-170
-169
-169
-168
-168
-167
-167
-166
-167
-166
-165
-165
-166
-165
-165
-164
-164
-164
-164
-164
-163
-163
-164
-163
-163
-163
-162
-162
-162
-162
-161
-161
-161
-161
-161
-161
-160
-160
-160
-160
-160
-160
-160
-159
-159
-159
-159
-159
-159
-158
-158
-157
-157
-157
-157
-156
-156
-156
-156
-156
-155
-155
-154
-154
-155
-155
-154
-154
-154
-154
-155
-155
-155
-155
-156
-156
-156
-157
-157
-157
-158
-158
-159
-159
-160
-161
-161
-162
-162
-163
-164
-165
-165
-166
-165
-166
-167
-167
-168
-168
-168
-168
-169
-170
-170
-171
-172
-172
-173
-172
-173
-174
-173
-174
-174
-174
-175
-175
-176
-176
-177
-176
-177
-177
-177
-178
-178
-178
-178
-178
-178
-179
-179
-179
-179
-180
-180
-180
-180
-180
-180
-180
-181
-181
-182
-182
-182
-182
-182
-183
-183
-183
-183
-183
-184
-184
-184
-184
-184
-184
-185
-185
-184
-184
-183
-183
-183
-183
-182
-182
-182
-182
-181
-181
-181
-181
-181
-180
-180
-180
-179
-179
-179
-179
-179
-179
-179
-178
-178
-178
-178
-177
-178
-178
-178
-178
-178
-178
-179
-178
-178
-178
-177
-177
-177
-175
-175
-173
-172
-170
-167
-164
-160
-156
-151
-146
-139
-132
-124
-114
-104
-93
-81
-69
-55
-42
-28
-15
-1
11
24
35
45
53
59
63
64
62
58
50
41
29
15
-2
-22
-43
-67
-91
-117
-142
-167
-193
-219
-243
-267
-289
-309
-326
-343
-356
-367
-376
-384
-389
-392
-395
-394
-393
-389
-385
-379
-373
-366
-359
-350
-342
-333
-324
-314
-306
-297
-287
-278
-270
-262
-253
-246
-239
-232
-225
-220
-214
-210
-205
-201
-197
-194
-191
-188
-186
-184
-183
-181
-181
-180
-180
-179
-178
-178
-178
-177
-177
-177
-176
-176
-176
-176
-175
-176
-176
-176
-175
-175
-175
-175
-174
-175
-175
-175
-175
-173
-173
-173
-173
-173
-173
-173
-173
-173
-172
-172
-172
-172
-172
-172
-171
-171
-171
-171
-171
-171
-171
-171
-171
-170
-170
-170
-170
-171
-170
-170
-170
-170
-170
-170
-171
-171
-171
-171
-171
-171
-171
-171
-171
-170
-170
-170
-170
-170
-170
-170
-169
-169
-169
-169
-169
-169
-169
-168
-168
-167
-168
-168
-167
-166
-166
-166
-166
-166
-166
-167
-167
-166
-165
-165
-165
-165
-165
-166
-166
-166
-166
-166
-166
-166
-166
-166
-166
-166
-166
-167
-166
-166
-166
-166
-166
-166
-166
-166
-166
-166
-166
-165
-165
-165
-165
-165
-165
-165
-165
-165
-165
-165
-165
-164
-164
-164
-164
-164
-164
-164
-163
-162
-162
-162
-162
-161
-161
-161
-161
-161
-161
-159
-159
-159
-159
-159
-159
-158
-158
-158
-158
-158
-158
-158
-158
-158
-158
-157
-157
-157
-157
-157
-158
-158
-158
-158
-157
-157
-157
-157
-157
-157
-157
-156
-156
-156
-156
-156
-156
-156
-155
-155
-155
-155
-154
-154
-154
-154
-154
-153
-152
-152
-152
-152
-150
-150
-150
-149
-149
-149
-148
-148
-148
-148
-148
-148
-147
-147
-147
-146
-146
-147
-146
-147
-147
-146
-146
-146
-146
-146
-146
-145
-145
-145
-145
-145
-144
-144
-144
-143
-143
-143
-142
-142
-142
-141
-141
-140
-140
-140
-139
-138
-138
-137
-137
-137
-136
-135
-135
-135
-134
-134
-133
-133
-133
-132
-132
-132
-132
-132
-131
-131
-131
-131
-130
-130
-130
-130
-129
-129
-129
-129
-128
-129
-129
-129
-128
-128
-128
-127
-127
-126
-126
-127
-127
-126
-126
-126
-126
-127
-126
-126
-126
-127
-127
-127
-128
-128
-129
-129
-129
-130
-131
-132
-132
-132
-133
-133
-134
-134
-134
-134
-134
-134
-134
-134
-134
-134
-134
-134
-134
-134
-133
-134
-134
-134
-134
-133
-133
-133
-133
-134
-133
-133
-133
-133
-133
-133
-133
-133
-133
-132
-133
-133
-133
-133
-132
-132
-132
-133
-133
-132
-133
-133
-133
-134
-134
-133
-134
-135
-135
-136
-135
-136
-137
-137
-138
-138
-139
-139
-140
-140
-141
-141
-141
-142
-142
-142
-142
-142
-144
-144
-144
-144
-145
-145
-145
-145
-145
-146
-146
-146
-146
-148
-148
-148
-148
-149
-149
-149
-150
-150
-150
-150
-151
-151
-151
-152
-152
-152
-153
-153
-153
-153
-154
-154
-155
-155
-155
-156
-156
-156
-156
-157
-157
-157
-158
-157
-157
-158
-158
-158
-158
-159
-159
-159
-159
-159
-159
-159
-159
-159
-159
-159
-159
-160
-160
-160
-160
-160
-160
-160
-160
-160
-159
-159
-159
-159
-159
-159
-159
-159
-160
-160
-160
-160
-160
-160
-159
-159
-159
-159
-159
-159
-158
-158
-158
-158
-158
-157
-157
-157
-157
-156
-156
-155
-155
-155
-155
-154
-154
-154
-154
-154
-154
-153
-153
-152
-152
-152
-152
-152
-153
-153
-153
-153
-153
-153
-154
-153
-153
-153
-153
-153
-154
-154
-154
-154
-153
-153
-153
-153
-153
-153
-151
-151
-151
-151
-151
-151
-151
-151
-149
-149
-149
-149
-149
-149
-149
-149
-149
-149
-149
-148
-148
-148
-148
-148
-148
-148
-148
-148
-148
-148
-148
-148
-148
-147
-147
-147
-147
-147
-147
-147
-147
-147
-147
-147
-147
-146
-146
-146
-146
-146
-146
-146
-146
-146
-146
-147
-147
-147
-147
-147
-147
-146
-146
-146
-146
-146
-146
-146
-146
-147
-147
-147
-147
-147
-147
-147
-147
-147
-147
-147
-147
-147
-147
-147
-147
-147
-148
-149
-149
-149
-149
-149
-149
-149
-150
-150
-150
-150
-150
-150
-150
-150
-151
-151
-151
-150
-150
-150
-150
-151
-150
-150
-150
-150
-150
-150
-150
-151
-151
-152
-152
-152
-152
-153
-153
-153
-153
-153
-154
-154
-153
-153
-154
-154
-154
-154
-154
-154
-154
-153
-153
-153
-153
-153
-153
-153
-153
-153
-153
-153
-153
-153
-153
-153
-153
-153
-153
-153
-153
-153
-153
-153
-153
-153
-153
-152
-152
-151
-151
-151
-150
-150
-150
-149
-148
-148
-147
-147
-146
-146
-145
-145
-144
-144
-143
-143
-142
-142
-141
-141
-141
-141
-141
-140
-140
-140
-140
-139
-139
-139
-138
-139
-138
-138
-138
-138
-137
-138
-138
-137
-137
-136
-136
-137
-137
-137
-136
-136
-136
-135
-136
-136
-135
-135
-134
-134
-135
-134
-134
-133
-133
-132
-132
-132
-132
-131
-131
-131
-131
-131
-131
-131
-131
-131
-131
-132
-132
-133
-133
-134
-134
-135
-135
-135
-135
-136
-137
-137
-138
-139
-139
-139
-140
-141
-141
-141
-142
-142
-142
-142
-142
-142
-143
-142
-142
-143
-143
-143
-144
-144
-144
-144
-145
-145
-146
-146
-147
-147
-148
-148
-149
-150
-151
-152
-152
-153
-154
-155
-155
-156
-156
-156
-157
-157
-157
-158
-158
-158
-158
-158
-158
-158
-158
-158
-158
-158
-158
-159
-159
-159
-159
-159
-158
-157
-157
-157
-157
-157
-157
-157
-158
-158
-158
-158
-158
-157
-157
-157
-157
-157
-157
-158
-157
-157
-157
-157
-157
-157
-157
-157
-157
-156
-156
-156
-156
-156
-156
-156
-155
-155
-155
-154
-154
-153
-152
-152
-152
-152
-152
-151
-152
-152
-151
-151
-152
-151
-151
-150
-149
-150
-149
-148
-146
-145
-143
-141
-138
-135
-131
-126
-121
-115
-108
-100
-92
-82
-72
-60
-48
-36
-23
-10
3
16
28
41
53
63
71
78
82
84
84
80
73
66
54
41
26
8
-13
-34
-58
-82
-107
-131
-157
-182
-206
-229
-250
-271
-288
-305
-319
-330
-340
-348
-353
-357
-359
-360
-358
-355
-351
-347
-341
-334
-326
-319
-311
-303
-294
-286
-276
-267
-258
-250
-242
-234
-226
-219
-212
-205
-200
-194
-189
-184
-180
-176
-172
-169
-166
-163
-161
-159
-157
-155
-154
-153
-151
-151
-150
-150
-150
-148
-148
-148
-148
-148
-148
-147
-147
-148
-147
-147
-147
-147
-147
-146
-146
-146
-146
-145
-145
-145
-144
-144
-144
-144
-144
-144
-144
-144
-143
-142
-142
-142
-142
-142
-142
-142
-142
-141
-141
-140
-140
-140
-140
-141
-141
-140
-139
-140
-140
-140
-140
-139
-139
-139
-139
-139
-139
-139
-139
-138
-138
-138
-138
-138
-138
-138
-138
-139
-139
-139
-140
-140
-140
-140
-140
-140
-140
-140
-141
-141
-141
-141
-141
-141
-141
-141
-141
-141
-141
-141
-141
-140
-140
-140
-140
-141
-140
-140
-140
-140
-140
-140
-140
-140
-140
-140
-139
-139
-139
-139
-140
-139
-139
-139
-139
-139
-138
-138
-138
-138
-138
-137
-136
-136
-136
-136
-136
-136
-136
-136
-135
-135
-135
-135
-135
-136
-135
-135
-135
-135
-135
-135
-135
-135
-135
-134
-134
-134
-134
-134
-134
-134
-134
-133
-133
-133
-133
-133
-133
-133
-133
-133
-133
-132
-132
-132
-132
-132
-132
-132
-131
-131
-131
-131
-130
-130
-130
-130
-130
-130
-129
-129
-129
-129
-128
-128
-128
-128
-127
-127
-127
-127
-126
-125
-125
-125
-125
-125
-124
-123
-123
-123
-123
-123
-123
-123
-122
-122
-122
-122
-122
-122
-122
-121
-121
-120
-120
-120
-120
-120
-120
-120
-120
-119
-118
-118
-118
-118
-118
-117
-117
-117
-116
-115
-115
-115
-114
-114
-114
-113
-112
-112
-112
-112
-111
-111
-110
-110
-109
-109
-108
-108
-108
-107
-107
-106
-106
-106
-105
-105
-104
-103
-103
-104
-103
-103
-102
-102
-102
-101
-101
-100
-100
-100
-100
-101
-100
-99
-99
-99
-98
-98
-98
-98
-98
-96
-96
-96
-96
-96
-96
-96
-95
-94
-94
-94
-95
-95
-95
-95
-95
-95
-95
-95
-96
-96
-96
-97
-98
-97
-99
-99
-100
-100
-101
-101
-101
-102
-102
-103
-103
-103
-103
-104
-104
-104
-104
-103
-103
-103
-103
-103
-103
-103
-103
-103
-103
-103
-102
-102
-103
-103
-103
-103
-103
-103
-103
-103
-102
-103
-103
-103
-104
-104
-103
-104
-104
-104
-105
-105
-104
-105
-105
-105
-106
-107
-107
-108
-108
-107
-108
-109
-109
-110
-110
-111
-110
-111
-111
-111
-112
-112
-113
-113
-113
-113
-114
-114
-114
-115
-115
-115
-116
-116
-116
-117
-117
-118
-118
-118
-119
-119
-120
-120
-120
-121
-121
-121
-121
-121
-121
-122
-123
-123
-123
-123
-123
-123
-123
-123
-124
-125
-125
-125
-125
-125
-126
-126
-127
-127
-128
-128
-128
-128
-129
-130
-131
-131
-131
-132
-133
-133
-133
-133
-134
-135
-135
-135
-135
-135
-135
-135
-135
-135
-135
-135
-136
-136
-135
-135
-135
-135
-135
-136
-136
-136
-135
-135
-135
-135
-135
-135
-135
-135
-135
-136
-135
-135
-135
-135
-135
-135
-135
-135
-135
-135
-135
-135
-136
-136
-136
-135
-135
-135
-135
-135
-135
-135
-134
-134
-134
-134
-135
-135
-135
-134
-134
-134
-134
-134
-134
-134
-133
-133
-134
-134
-134
-134
-133
-133
-133
-134
-133
-133
-133
-133
-132
-132
-132
-132
-131
-131
-131
-131
-131
-131
-130
-130
-130
-130
-129
-129
-129
-129
-128
-128
-128
-127
-127
-127
-127
-127
-127
-127
-127
-127
-127
-127
-127
-127
-127
-127
-127
-127
-128
-128
-128
-128
-128
-127
-127
-128
-128
-128
-128
-128
-128
-128
-128
-127
-127
-127
-127
-127
-127
-127
-127
-127
-126
-126
-126
-127
-127
-126
-126
-126
-126
-126
-126
-126
-127
-127
-127
-127
-127
-127
-127
-127
-127
-127
-127
-127
-127
-127
-126
-127
-126
-126
-126
-126
-126
-126
-126
-126
-125
-125
-125
-125
-126
-126
-126
-126
-126
-126
-126
-125
-125
-125
-125
-125
-125
-125
-125
-125
-126
-126
-126
-126
-126
-126
-126
-127
-126
-126
-127
-127
-127
-127
-127
-128
-128
-128
-128
-128
-129
-130
-130
-130
-130
-130
-130
-130
-130
-130
-130
-130
-130
-130
-129
-129
-129
-129
-129
-129
-128
-128
-128
-128
-128
-127
-127
-126
-126
-126
-126
-126
-125
-125
-125
-125
-124
-125
-125
-124
-124
-124
-123
-123
-123
-123
-123
-122
-122
-121
-121
-121
-120
-120
-120
-120
-119
-119
-119
-118
-118
-118
-117
-117
-117
-117
-116
-116
-115
-115
-115
-115
-114
-114
-114
-114
-113
-113
-113
-112
-112
-112
-112
-111
-111
-111
-111
-110
-110
-110
-110
-110
-109
-110
-109
-109
-109
-109
-109
-109
-108
-108
-109
-109
-109
-109
-109
-109
-109
-110
-110
-110
-111
-111
-111
-112
-112
-112
-113
-113
-113
-114
-115
-115
-115
-116
-116
-117
-117
-117
-118
-117
-118
-118
-118
-118
-118
-119
-119
-120
-119
-120
-120
-120
-121
-121
-122
-122
-123
-123
-124
-125
-125
-126
-128
-128
-128
-128
-129
-130
-130
-130
-131
-132
-132
-132
-132
-132
-132
-132
-132
-132
-133
-133
-133
-133
-133
-133
-133
-133
-132
-132
-132
-132
-132
-132
-132
-132
-132
-132
-132
-132
-131
-131
-131
-131
-131
-131
-131
-131
-131
-131
-131
-131
-131
-129
-129
-129
-129
-129
-129
-129
-129
-129
-129
-129
-129
-129
-129
-129
-129
-129
-129
-129
-128
-127
-127
-127
-127
-127
-127
-126
-126
-126
-127
-127
-126
-126
-126
-125
-126
-125
-125
-124
-124
-123
-121
-120
-118
-116
-113
-109
-106
-101
-96
-90
-84
-77
-68
-59
-50
-39
-28
-17
-5
8
20
32
44
56
66
76
84
91
96
97
96
94
88
80
69
57
42
25
6
-15
-36
-60
-85
-109
-132
-156
-180
-202
-223
-242
-260
-276
-290
-302
-311
-319
-324
-328
-330
-330
-329
-327
-323
-319
-313
-306
-299
-291
-284
-276
-267
-259
-250
-241
-232
-223
-216
-208
-200
-192
-185
-179
-173
-169
-163
-158
-154
-150
-147
-143
-140
-138
-135
-133
-132
-131
-130
-128
-127
-127
-126
-126
-126
-126
-125
-125
-125
-124
-124
-124
-124
-124
-124
-124
-124
-124
-124
-124
-124
-124
-124
-124
-123
-123
-124
-124
-124
-123
-123
-123
-123
-122
-122
-122
-121
-121
-121
-121
-120
-120
-120
-120
-120
-119
-119
-119
-119
-119
-119
-119
-119
-119
-119
-118
-118
-118
-118
-118
-118
-118
-118
-118
-118
-118
-118
-118
-117
-117
-117
-117
-117
-117
-117
-116
-117
-117
-117
-117
-117
-117
-117
-117
-117
-116
-116
-116
-116
-116
-116
-115
-115
-116
-116
-116
-116
-116
-116
-116
-115
-115
-115
-116
-116
-116
-116
-116
-116
-116
-116
-116
-116
-116
-116
-116
-116
-116
-116
-116
-116
-116
-116
-115
-115
-115
-115
-115
-115
-115
-114
-114
-114
-114
-114
-114
-114
-113
-113
-113
-113
-113
-113
-113
-113
-113
-112
-112
-112
-111
-111
-111
-111
-111
-111
-111
-110
-110
-110
-109
-109
-109
-109
-109
-109
-108
-108
-108
-108
-108
-108
-108
-108
-108
-108
-108
-108
-108
-108
-108
-108
-108
-108
-108
-106
-106
-106
-106
-106
-106
-106
-105
-105
-104
-104
-104
-104
-104
-103
-102
-102
-102
-102
-101
-101
-101
-100
-99
-99
-99
-99
-99
-98
-98
-98
-98
-96
-96
-96
-96
-95
-95
-94
-94
-94
-94
-93
-93
-93
-93
-92
-92
-92
-92
-92
-90
-90
-90
-90
-90
-89
-89
-89
-89
-89
-89
-88
-88
-88
-88
-88
-86
-86
-86
-86
-86
-85
-85
-85
-83
-83
-83
-82
-82
-81
-81
-80
-80
-78
-78
-77
-77
-77
-76
-76
-75
-75
-74
-74
-73
-73
-72
-73
-72
-72
-71
-71
-70
-70
-71
-70
-70
-69
-69
-69
-68
-68
-68
-67
-67
-66
-67
-67
-66
-66
-66
-65
-65
-65
-65
-64
-64
-65
-64
-64
-64
-64
-64
-64
-64
-63
-63
-64
-64
-64
-64
-64
-64
-65
-65
-65
-65
-65
-65
-65
-65
-65
-65
-65
-65
-65
-65
-65
-65
-65
-65
-65
-64
-64
-65
-65
-65
-65
-65
-65
-64
-64
-64
-65
-65
-65
-64
-64
-65
-65
-65
-64
-65
-65
-65
-64
-65
-65
-65
-66
-66
-66
-67
-67
-67
-67
-67
-68
-68
-68
-68
-69
-70
-70
-70
-70
-71
-71
-71
-71
-73
-73
-73
-73
-73
-73
-75
-75
-75
-75
-75
-76
-77
-77
-78
-78
-78
-78
-79
-79
-79
-81
-81
-81
-81
-81
-82
-82
-83
-83
-83
-84
-85
-85
-85
-85
-85
-85
-86
-86
-86
-86
-86
-86
-86
-86
-86
-86
-86
-87
-87
-87
-87
-87
-87
-87
-87
-87
-87
-87
-87
-87
-87
-87
-87
-87
-87
-87
-87
-87
-87
-88
-88
-88
-89
-89
-89
-89
-89
-89
-89
-89
-89
-90
-90
-89
-89
-89
-90
-90
-90
-90
-90
-90
-90
-90
-91
-91
-91
-91
-90
-90
-90
-90
-90
-90
-90
-90
-90
-90
-90
-90
-90
-90
-90
-90
-89
-90
-90
-90
-90
-90
-90
-89
-89
-89
-89
-89
-90
-89
-89
-89
-89
-89
-88
-88
-88
-88
-88
-88
-87
-87
-87
-87
-87
-87
-87
-87
-87
-86
-86
-86
-86
-86
-86
-85
-85
-85
-85
-85
-84
-84
-84
-84
-84
-84
-84
-83
-82
-82
-82
-82
-82
-82
-82
-82
-82
-82
-82
-82
-82
-82
-82
-82
-82
-82
-82
-82
-82
-82
-82
-82
-82
-82
-82
-82
-82
-82
-82
-82
-82
-82
-82
-82
-82
-82
-82
-82
-82
-81
-81
-81
-81
-80
-80
-80
-80
-81
-81
-81
-81
-81
-81
-81
-81
-82
-81
-81
-81
-81
-81
-82
-82
-83
-83
-83
-83
-83
-83
-83
-83
-83
-82
-82
-83
-83
-83
-83
-83
-83
-83
-83
-83
-84
-84
-84
-84
-84
-84
-84
-84
-84
-84
-84
-84
-84
-84
-85
-85
-84
-84
-84
-84
-84
-84
-84
-84
-84
-84
-85
-85
-85
-85
-85
-85
-85
-85
-85
-84
-84
-84
-84
-84
-84
-84
-85
-84
-84
-84
-84
-84
-84
-84
-84
-83
-84
-84
-84
-84
-84
-84
-84
-83
-83
-83
-82
-82
-82
-82
-81
-81
-80
-80
-79
-78
-78
-78
-78
-77
-77
-76
-76
-75
-75
-75
-74
-74
-74
-74
-73
-73
-73
-72
-72
-72
-72
-72
-72
-72
-72
-72
-71
-71
-71
-71
-70
-70
-70
-71
-71
-71
-70
-70
-70
-70
-69
-69
-69
-69
-68
-68
-68
-68
-68
-68
-68
-68
-68
-67
-68
-68
-68
-69
-69
-69
-69
-69
-69
-69
-70
-70
-70
-70
-71
-71
-72
-71
-72
-72
-72
-73
-73
-73
-73
-74
-74
-75
-75
-75
-75
-76
-76
-77
-76
-76
-77
-77
-78
-78
-77
-78
-78
-78
-79
-79
-79
-79
-80
-81
-81
-82
-83
-83
-84
-84
-85
-86
-87
-87
-88
-88
-89
-89
-89
-90
-90
-90
-90
-91
-91
-90
-91
-91
-91
-90
-90
-90
-90
-90
-90
-90
-90
-90
-91
-91
-91
-91
-91
-92
-92
-92
-92
-92
-91
-91
-91
-91
-91
-91
-91
-92
-92
-92
-92
-92
-92
-92
-92
-91
-91
-91
-91
-91
-91
-91
-91
-91
-90
-90
-90
-90
-90
-90
-90
-90
-90
-90
-90
-89
-89
-89
-89
-89
-89
-90
-90
-89
-89
-89
-89
-88
-89
-88
-87
-86
-85
-85
-84
-82
-80
-77
-75
-71
-68
-63
-59
-53
-47
-40
-33
-24
-15
-6
5
15
27
38
50
61
73
84
93
102
110
116
120
122
121
117
112
103
94
81
66
50
32
11
-11
-33
-58
-81
-103
-127
-149
-171
-192
-211
-228
-243
-256
-267
-276
-284
-288
-292
-293
-294
-293
-290
-285
-281
-275
-269
-262
-254
-246
-238
-229
-221
-213
-203
-195
-187
-178
-171
-164
-156
-149
-143
-138
-132
-127
-122
-117
-113
-110
-106
-103
-100
-97
-96
-93
-92
-91
-89
-89
-88
-88
-88
-86
-87
-87
-87
-87
-87
-87
-87
-88
-88
-88
-88
-88
-88
-88
-88
-88
-88
-87
-87
-87
-87
-86
-86
-86
-86
-86
-85
-85
-85
-85
-85
-84
-83
-83
-83
-83
-83
-83
-82
-82
-82
-82
-82
-82
-82
-83
-83
-83
-83
-83
-83
-83
-83
-83
-83
-83
-83
-83
-83
-83
-83
-83
-83
-82
-82
-82
-83
-82
-82
-82
-82
-82
-82
-82
-82
-82
-83
-83
-83
-83
-82
-82
-82
-82
-82
-82
-82
-82
-82
-83
-83
-83
-83
-83
-82
-81
-81
-81
-81
-81
-81
-81
-81
-81
-81
-81
-80
-79
-79
-79
-79
-79
-79
-79
-79
-79
-78
-78
-78
-78
-78
-78
-78
-78
-78
-78
-79
-79
-78
-78
-78
-78
-78
-78
-78
-78
-78
-78
-78
-78
-78
-78
-77
-77
-77
-77
-77
-77
-77
-76
-76
-75
-75
-75
-75
-75
-74
-74
-74
-75
-75
-75
-74
-74
-74
-74
-74
-74
-74
-73
-73
-73
-73
-73
-72
-72
-72
-72
-72
-72
-72
-71
-71
-71
-71
-71
-71
-71
-70
-70
-69
-69
-69
-69
-69
-69
-68
-68
-68
-67
-67
-67
-66
-66
-66
-65
-64
-64
-64
-64
-63
-63
-63
-62
-61
-61
-61
-61
-60
-60
-59
-59
-59
-59
-59
-59
-58
-58
-58
-58
-57
-57
-56
-56
-56
-56
-56
-55
-55
-54
-53
-53
-53
-53
-52
-52
-52
-51
-50
-50
-50
-49
-49
-49
-48
-48
-48
-47
-47
-47
-47
-47
-46
-47
-46
-46
-46
-46
-46
-46
-46
-46
-46
-46
-46
-46
-46
-46
-46
-46
-46
-46
-46
-46
-45
-45
-45
-45
-44
-45
-45
-44
-44
-43
-43
-43
-43
-43
-43
-43
-43
-43
-43
-43
-44
-44
-43
-43
-43
-43
-44
-44
-44
-44
-44
-44
-45
-45
-45
-45
-45
-46
-46
-46
-45
-45
-45
-47
-47
-47
-47
-47
-48
-48
-48
-48
-48
-48
-49
-49
-49
-49
-50
-50
-50
-50
-51
-50
-50
-50
-51
-50
-50
-50
-51
-50
-50
-50
-49
-50
-50
-50
-50
-50
-50
-50
-50
-51
-51
-51
-51
-52
-52
-53
-53
-54
-55
-55
-55
-56
-56
-58
-58
-58
-59
-59
-61
-61
-61
-62
-62
-63
-64
-64
-65
-65
-65
-66
-67
-67
-68
-68
-68
-68
-70
-70
-70
-70
-70
-70
-72
-72
-72
-72
-72
-73
-73
-73
-73
-73
-74
-75
-75
-75
-75
-75
-76
-77
-77
-77
-77
-78
-78
-78
-78
-79
-80
-80
-80
-81
-81
-81
-82
-82
-82
-82
-83
-83
-83
-84
-84
-84
-84
-84
-84
-85
-85
-85
-85
-84
-84
-84
-84
-83
-83
-83
-83
-84
-83
-83
-83
-83
-83
-83
-83
-83
-83
-83
-83
-84
-84
-84
-84
-84
-84
-85
-85
-85
-85
-85
-85
-86
-86
-86
-86
-86
-86
-87
-87
-86
-86
-86
-86
-86
-86
-86
-85
-85
-85
-85
-85
-85
-85
-85
-85
-86
-85
-85
-85
-85
-85
-85
-85
-84
-84
-84
-84
-83
-83
-83
-83
-82
-82
-82
-82
-82
-82
-81
-81
-81
-81
-81
-81
-81
-81
-81
-81
-80
-80
-81
-81
-81
-80
-80
-80
-81
-81
-80
-80
-80
-80
-80
-80
-80
-80
-80
-80
-80
-80
-80
-80
-79
-78
-78
-78
-78
-78
-78
-78
-78
-78
-78
-78
-78
-78
-78
-78
-78
-78
-77
-77
-76
-76
-76
-76
-76
-77
-77
-77
-77
-77
-77
-77
-76
-76
-76
-76
-76
-76
-76
-77
-77
-77
-77
-77
-77
-77
-77
-77
-77
-77
-77
-77
-77
-77
-77
-77
-78
-78
-78
-78
-78
-78
-79
-79
-79
-79
-79
-80
-80
-80
-80
-81
-81
-81
-81
-82
-82
-82
-82
-82
-82
-82
-82
-82
-81
-81
-81
-81
-80
-80
-79
-79
-79
-79
-79
-79
-79
-79
-79
-80
-80
-80
-80
-80
-80
-80
-81
-81
-82
-82
-82
-83
-83
-83
-83
-83
-83
-84
-85
-85
-85
-85
-85
-85
-85
-85
-85
-84
-84
-84
-84
-84
-84
-84
-84
-83
-83
-83
-82
-82
-81
-82
-81
-81
-80
-80
-79
-79
-78
-78
-77
-77
-76
-76
-76
-76
-75
-75
-75
-75
-75
-74
-74
-73
-73
-73
-72
-72
-72
-71
-71
-71
-71
-70
-70
-70
-69
-69
-69
-68
-68
-69
-69
-68
-68
-68
-67
-67
-67
-67
-67
-66
-66
-67
-67
-66
-66
-67
-67
-66
-67
-67
-67
-68
-68
-68
-69
-70
-70
-70
-70
-70
-70
-71
-71
-71
-71
-72
-72
-72
-72
-72
-72
-72
-72
-72
-72
-72
-72
-73
-73
-72
-73
-73
-74
-73
-74
-74
-75
-76
-75
-76
-77
-77
-78
-79
-79
-79
-80
-80
-81
-81
-82
-82
-83
-83
-84
-84
-85
-85
-85
-86
-86
-86
-87
-87
-88
-88
-89
-89
-89
-90
-90
-91
-91
-91
-92
-92
-92
-92
-92
-93
-93
-93
-93
-93
-93
-94
-94
-94
-94
-94
-95
-95
-95
-95
-95
-95
-95
-95
-95
-95
-95
-95
-95
-95
-95
-95
-95
-96
-96
-95
-95
-95
-95
-95
-95
-95
-95
-95
-95
-95
-95
-95
-95
-95
-95
-95
-95
-95
-96
-96
-95
-95
-95
-95
-95
-95
-94
-94
-94
-94
-94
-94
-94
-94
-94
-93
-93
-92
-93
-92
-91
-90
-89
-87
-86
-84
-82
-79
-76
-72
-68
-63
-58
-52
-45
-38
-30
-21
-12
-3
7
19
29
40
51
62
72
81
89
96
101
104
106
105
100
94
85
74
62
48
31
12
-7
-28
-51
-73
-97
-119
-141
-164
-184
-204
-221
-237
-251
-264
-274
-283
-290
-294
-297
-298
-298
-297
-293
-290
-285
-280
-273
-266
-259
-251
-243
-235
-227
-219
-210
-203
-194
-186
-179
-172
-165
-158
-152
-146
-140
-136
-131
-127
-124
-119
-116
-114
-110
-109
-107
-105
-103
-102
-101
-101
-99
-99
-98
-98
-97
-97
-96
-96
-97
-97
-96
-95
-95
-96
-95
-95
-95
-95
-95
-94
-95
-95
-95
-95
-95
-95
-95
-95
-95
-96
-96
-96
-96
-96
-96
-95
-96
-96
-96
-96
-96
-96
-96
-96
-96
-96
-96
-96
-96
-97
-97
-97
-97
-96
-96
-96
-96
-96
-97
-97
-97
-97
-97
-97
-97
-96
-96
-96
-96
-96
-96
-96
-96
-96
-96
-96
-96
-96
-97
-96
-96
-96
-96
-96
-96
-95
-95
-95
-95
-95
-94
-95
-95
-95
-95
-95
-95
-95
-95
-95
-96
-96
-96
-96
-96
-96
-97
-98
-98
-97
-97
-98
-98
-98
-98
-98
-98
-98
-98
-98
-98
-98
-98
-98
-98
-98
-98
-97
-97
-97
-97
-97
-97
-98
-98
-98
-98
-97
-97
-97
-97
-97
-98
-98
-98
-98
-98
-98
-98
-98
-98
-98
-98
-98
-98
-97
-97
-97
-97
-98
-98
-98
-97
-97
-97
-97
-96
-96
-96
-97
-97
-97
-96
-96
-96
-96
-96
-95
-96
-95
-95
-95
-95
-95
-95
-95
-94
-94
-94
-94
-94
-94
-93
-92
-92
-92
-92
-93
-93
-93
-93
-92
-92
-92
-93
-93
-93
-92
-92
-92
-92
-92
-92
-92
-91
-90
-90
-90
-90
-90
-89
-89
-88
-88
-87
-87
-87
-86
-85
-85
-84
-84
-84
-84
-83
-83
-83
-82
-82
-82
-82
-81
-81
-81
-81
-81
-81
-80
-80
-80
-79
-79
-79
-79
-79
-79
-78
-77
-77
-77
-77
-76
-75
-75
-75
-74
-74
-74
-74
-74
-73
-73
-73
-73
-72
-72
-72
-72
-72
-73
-73
-72
-72
-72
-72
-72
-73
-73
-72
-73
-72
-72
-73
-73
-73
-73
-74
-74
-74
-73
-73
-74
-74
-74
-74
-74
-75
-75
-74
-74
-74
-75
-75
-74
-74
-74
-74
-74
-74
-74
-74
-74
-73
-74
-74
-74
-74
-73
-73
-74
-74
-74
-74
-74
-75
-75
-75
-75
-75
-75
-75
-75
-74
-75
-75
-75
-76
-76
-75
-75
-76
-75
-75
-76
-75
-75
-75
-76
-76
-76
-76
-76
-76
-77
-77
-77
-78
-78
-78
-79
-79
-79
-80
-80
-80
-81
-81
-81
-81
-81
-82
-82
-83
-83
-83
-84
-84
-84
-85
-85
-86
-87
-88
-88
-89
-89
-90
-91
-91
-92
-92
-93
-94
-95
-96
-96
-97
-98
-98
-99
-99
-100
-100
-101
-101
-101
-102
-102
-103
-103
-104
-104
-104
-105
-105
-105
-106
-106
-106
-106
-106
-107
-107
-107
-108
-108
-108
-109
-109
-109
-109
-109
-110
-111
-111
-111
-112
-112
-112
-112
-112
-113
-113
-114
-114
-114
-115
-115
-115
-115
-116
-115
-115
-115
-116
-116
-116
-116
-116
-117
-117
-117
-117
-117
-117
-117
-117
-117
-117
-117
-117
-117
-117
-117
-117
-117
-117
-117
-117
-117
-117
-117
-118
-118
-118
-118
-118
-119
-119
-118
-118
-118
-119
-119
-119
-119
-119
-119
-119
-119
-119
-119
-119
-119
-119
-119
-119
-119
-120
-120
-120
-119
-119
-120
-120
-120
-121
-120
-120
-120
-120
-121
-121
-121
-121
-121
-121
-121
-121
-121
-120
-120
-120
-120
-120
-120
-120
-120
-120
-120
-120
-120
-120
-120
-120
-120
-120
-119
-119
-119
-119
-119
-119
-120
-120
-120
-119
-119
-120
-120
-120
-119
-119
-120
-120
-120
-120
-120
-121
-121
-121
-121
-121
-121
-121
-121
-120
-120
-120
-120
-120
-120
-120
-119
-120
-120
-119
-119
-119
-120
-119
-119
-120
-120
-120
-120
-121
-121
-120
-120
-121
-121
-121
-122
-122
-121
-121
-122
-122
-122
-122
-122
-122
-122
-122
-122
-121
-121
-121
-121
-122
-122
-122
-123
-123
-123
-123
-123
-124
-125
-125
-125
-125
-125
-125
-126
-126
-126
-126
-127
-127
-127
-127
-127
-127
-127
-127
-127
-128
-128
-128
-128
-128
-128
-128
-128
-128
-128
-128
-128
-128
-128
-129
-129
-129
-129
-128
-128
-129
-129
-129
-129
-128
-128
-128
-129
-129
-129
-129
-129
-129
-130
-130
-129
-129
-130
-130
-130
-130
-130
-130
-130
-130
-131
-131
-131
-131
-132
-132
-132
-132
-132
-132
-133
-133
-133
-133
-133
-133
-133
-133
-133
-133
-133
-133
-133
-133
-133
-132
-133
-133
-133
-132
-132
-132
-132
-132
-132
-132
-131
-131
-131
-130
-130
-130
-130
-130
-130
-129
-129
-129
-129
-129
-128
-128
-128
-128
-128
-127
-126
-126
-126
-127
-127
-126
-126
-126
-126
-125
-126
-125
-126
-125
-125
-125
-124
-125
-124
-123
-123
-123
-123
-122
-122
-121
-121
-121
-121
-120
-120
-120
-120
-119
-119
-119
-119
-119
-119
-119
-119
-118
-118
-118
-118
-117
-117
-117
-116
-116
-115
-116
-116
-116
-116
-115
-116
-116
-115
-115
-115
-115
-116
-116
-116
-117
-117
-117
-117
-118
-118
-119
-118
-119
-119
-120
-120
-121
-122
-123
-123
-124
-125
-126
-126
-126
-127
-128
-128
-128
-129
-130
-130
-131
-130
-130
-131
-131
-132
-132
-132
-133
-133
-133
-134
-134
-135
-135
-136
-136
-137
-137
-138
-138
-139
-139
-140
-140
-141
-141
-141
-142
-142
-143
-144
-144
-144
-144
-144
-144
-144
-145
-145
-145
-145
-145
-145
-145
-145
-145
-145
-146
-146
-146
-146
-145
-145
-146
-146
-146
-146
-146
-146
-146
-146
-146
-146
-146
-146
-146
-146
-146
-147
-147
-147
-147
-146
-146
-146
-147
-146
-146
-146
-146
-146
-146
-146
-145
-145
-145
-145
-144
-144
-144
-144
-144
-144
-144
-144
-144
-143
-143
-144
-144
-143
-144
-144
-144
-144
-143
-143
-142
-142
-141
-141
-139
-138
-135
-133
-130
-125
-121
-116
-110
-103
-96
-88
-79
-68
-58
-46
-34
-22
-9
4
17
29
40
52
62
70
78
82
84
84
80
75
66
55
44
28
10
-9
-31
-54
-79
-103
-127
-153
-177
-202
-224
-247
-267
-286
-302
-316
-329
-339
-348
-354
-358
-360
-361
-361
-358
-354
-350
-344
-338
-331
-323
-315
-306
-298
-289
-279
-271
-261
-252
-244
-236
-228
-220
-212
-206
-200
-194
-187
-182
-178
-174
-169
-166
-163
-161
-158
-157
-154
-153
-152
-152
-151
-151
-150
-150
-149
-149
-149
-149
-149
-149
-148
-148
-148
-148
-147
-147
-147
-148
-147
-147
-147
-146
-146
-145
-145
-145
-144
-144
-145
-144
-144
-144
-144
-144
-144
-144
-144
-144
-144
-143
-143
-143
-144
-144
-144
-145
-145
-144
-144
-145
-146
-146
-146
-145
-145
-145
-145
-145
-146
-146
-146
-146
-146
-146
-146
-146
-146
-144
-144
-144
-144
-144
-144
-144
-144
-143
-143
-143
-143
-143
-142
-142
-142
-142
-142
-142
-141
-141
-141
-142
-143
-143
-143
-143
-143
-143
-144
-144
-143
-144
-144
-144
-144
-145
-145
-145
-145
-145
-145
-145
-145
-144
-144
-144
-144
-144
-144
-144
-143
-143
-143
-142
-142
-142
-142
-141
-141
-141
-141
-141
-141
-141
-141
-141
-141
-141
-141
-141
-141
-141
-141
-141
-141
-141
-141
-141
-141
-141
-141
-141
-141
-142
-142
-142
-142
-142
-142
-142
-142
-142
-141
-141
-141
-141
-141
-140
-139
-139
-139
-139
-138
-138
-138
-138
-137
-137
-137
-137
-137
-137
-137
-136
-136
-136
-136
-136
-136
-136
-136
-135
-135
-135
-135
-135
-135
-135
-135
-135
-134
-134
-134
-134
-133
-133
-133
-132
-132
-131
-131
-131
-131
-131
-131
-131
-129
-129
-129
-129
-129
-128
-128
-128
-127
-128
-127
-126
-126
-126
-126
-126
-126
-125
-125
-124
-124
-124
-123
-123
-123
-123
-123
-122
-122
-122
-122
-121
-121
-121
-121
-120
-120
-120
-120
-119
-119
-118
-118
-118
-118
-118
-118
-117
-117
-117
-116
-116
-115
-115
-115
-114
-114
-114
-114
-114
-113
-113
-113
-112
-112
-112
-112
-111
-112
-111
-111
-110
-111
-111
-110
-111
-110
-110
-110
-110
-110
-109
-110
-110
-110
-109
-109
-110
-110
-110
-109
-109
-110
-110
-110
-110
-110
-110
-111
-111
-111
-111
-111
-112
-112
-112
-112
-113
-113
-113
-113
-114
-114
-114
-114
-114
-114
-114
-114
-114
-114
-114
-113
-113
-113
-113
-113
-113
-112
-112
-112
-112
-112
-112
-113
-113
-113
-113
-113
-113
-114
-114
-114
-114
-115
-115
-116
-116
-116
-116
-117
-117
-116
-117
-117
-117
-118
-117
-118
-118
-118
-118
-119
-119
-120
-119
-119
-120
-120
-120
-120
-121
-121
-121
-121
-121
-123
-123
-123
-123
-124
-124
-124
-124
-125
-126
-126
-126
-128
-128
-128
-128
-129
-130
-130
-131
-131
-133
-133
-133
-134
-135
-135
-135
-136
-136
-136
-137
-137
-137
-138
-138
-139
-139
-139
-139
-140
-140
-140
-140
-140
-140
-141
-142
-142
-142
-142
-142
-143
-143
-143
-143
-143
-144
-144
-144
-144
-144
-144
-145
-145
-144
-145
-145
-145
-145
-145
-145
-146
-145
-146
-146
-146
-145
-146
-146
-146
-146
-147
-147
-147
-147
-147
-147
-147
-147
-147
-147
-147
-147
-147
-146
-146
-147
-147
-147
-145
-145
-145
-145
-145
-145
-145
-145
-144
-144
-144
-144
-143
-144
-144
-144
-144
-144
-144
-144
-143
-143
-143
-143
-143
-143
-142
-141
-141
-141
-141
-140
-140
-140
-140
-139
-139
-139
-139
-139
-140
-139
-139
-139
-139
-139
-139
-139
-139
-139
-139
-139
-139
-139
-139
-139
-139
-139
-138
-137
-137
-137
-137
-137
-137
-137
-137
-136
-136
-135
-135
-135
-135
-135
-136
-136
-135
-135
-135
-135
-135
-136
-135
-135
-135
-135
-135
-136
-135
-135
-135
-135
-135
-135
-135
-135
-136
-136
-136
-136
-136
-136
-137
-136
-136
-136
-136
-136
-136
-137
-137
-137
-137
-137
-137
-137
-137
-138
-139
-139
-139
-139
-139
-139
-139
-139
-140
-141
-141
-141
-141
-141
-141
-141
-141
-142
-142
-142
-142
-142
-142
-142
-142
-142
-142
-142
-142
-142
-142
-142
-142
-142
-142
-142
-142
-142
-141
-141
-141
-142
-142
-142
-142
-142
-142
-142
-143
-143
-143
-143
-143
-143
-144
-144
-144
-144
-144
-144
-145
-145
-145
-145
-145
-145
-146
-146
-146
-146
-146
-146
-146
-146
-145
-146
-146
-146
-146
-146
-146
-146
-145
-145
-145
-145
-145
-145
-145
-145
-145
-145
-145
-145
-145
-145
-145
-145
-145
-145
-146
-146
-146
-146
-146
-146
-145
-145
-145
-145
-145
-146
-146
-146
-146
-146
-146
-145
-145
-145
-145
-145
-145
-145
-145
-145
-145
-144
-144
-144
-143
-143
-143
-143
-143
-142
-142
-141
-142
-142
-141
-141
-140
-140
-140
-139
-139
-138
-138
-137
-137
-137
-137
-136
-136
-136
-136
-135
-135
-135
-133
-133
-133
-132
-132
-132
-131
-132
-132
-131
-131
-130
-130
-129
-129
-130
-129
-129
-128
-128
-128
-128
-127
-128
-128
-128
-128
-127
-127
-127
-127
-127
-126
-127
-127
-126
-126
-126
-125
-126
-125
-125
-125
-124
-124
-124
-124
-124
-123
-123
-123
-123
-123
-123
-124
-124
-124
-125
-125
-125
-126
-126
-126
-127
-127
-127
-128
-129
-128
-129
-130
-131
-130
-131
-132
-131
-132
-132
-133
-132
-133
-133
-134
-134
-135
-135
-135
-135
-135
-136
-136
-137
-137
-138
-138
-138
-139
-138
-139
-139
-140
-141
-141
-142
-142
-142
-143
-143
-144
-144
-144
-144
-144
-145
-145
-145
-146
-146
-146
-146
-146
-146
-146
-146
-146
-146
-146
-146
-145
-145
-146
-146
-146
-146
-146
-146
-146
-146
-146
-146
-146
-145
-145
-146
-145
-145
-145
-145
-145
-145
-145
-144
-143
-143
-143
-143
-143
-142
-142
-142
-142
-142
-142
-142
-142
-141
-141
-141
-142
-142
-142
-142
-141
-142
-142
-141
-142
-142
-142
-141
-141
-142
-141
-141
-140
-139
-139
-138
-137
-135
-134
-132
-130
-126
-122
-118
-113
-107
-101
-93
-85
-76
-67
-56
-44
-33
-19
-6
8
21
34
47
60
71
80
89
95
100
101
99
95
89
80
68
54
38
19
-2
-25
-48
-73
-98
-124
-150
-174
-198
-222
-243
-263
-281
-298
-311
-323
-332
-340
-346
-349
-351
-351
-349
-347
-343
-337
-331
-324
-317
-310
-301
-292
-283
-275
-265
-256
-247
-239
-230
-221
-213
-206
-198
-192
-186
-179
-174
-169
-164
-160
-157
-155
-151
-149
-147
-146
-144
-142
-141
-140
-140
-139
-139
-139
-138
-138
-138
-138
-138
-138
-138
-137
-137
-136
-136
-136
-135
-135
-134
-134
-134
-133
-133
-132
-132
-132
-132
-131
-130
-130
-130
-130
-130
-130
-130
-130
-130
-130
-130
-130
-130
-129
-129
-129
-129
-129
-129
-129
-129
-129
-129
-129
-129
-129
-129
-129
-129
-129
-129
-129
-129
-129
-129
-129
-129
-129
-128
-128
-128
-128
-128
-128
-128
-128
-128
-128
-127
-127
-126
-126
-126
-126
-126
-126
-126
-126
-126
-126
-126
-126
-126
-126
-125
-125
-125
-125
-125
-126
-126
-126
-126
-126
-126
-125
-126
-126
-126
-126
-126
-126
-126
-126
-126
-125
-125
-124
-124
-124
-124
-124
-124
-124
-124
-124
-124
-123
-123
-123
-123
-123
-123
-123
-123
-123
-123
-123
-123
-123
-123
-123
-123
-123
-123
-123
-123
-123
-123
-123
-123
-123
-123
-123
-123
-122
-122
-122
-121
-121
-121
-121
-120
-120
-120
-120
-119
-119
-119
-119
-118
-118
-117
-117
-117
-117
-117
-116
-116
-116
-115
-115
-115
-114
-115
-114
-114
-114
-114
-113
-113
-113
-113
-113
-113
-113
-113
-113
-113
-113
-113
-113
-113
-112
-112
-112
-111
-111
-111
-111
-110
-110
-110
-109
-109
-109
-108
-107
-107
-107
-107
-107
-106
-105
-105
-105
-105
-105
-104
-104
-104
-104
-104
-102
-103
-103
-102
-102
-101
-101
-101
-101
-101
-100
-100
-100
-99
-98
-98
-98
-98
-97
-97
-97
-96
-96
-96
-95
-95
-95
-94
-94
-94
-94
-93
-93
-92
-92
-92
-92
-91
-91
-91
-91
-91
-90
-90
-90
-89
-89
-89
-88
-88
-88
-87
-87
-87
-87
-87
-86
-86
-86
-86
-85
-85
-85
-86
-86
-86
-86
-86
-86
-87
-86
-87
-87
-87
-88
-88
-88
-89
-89
-89
-89
-89
-90
-90
-90
-90
-90
-90
-89
-89
-89
-89
-89
-89
-89
-89
-89
-89
-89
-89
-89
-89
-89
-89
-89
-90
-89
-89
-89
-89
-89
-90
-90
-90
-89
-89
-90
-90
-90
-90
-89
-89
-90
-90
-90
-90
-89
-89
-89
-90
-90
-90
-90
-90
-89
-89
-90
-90
-90
-91
-91
-92
-91
-92
-92
-93
-93
-93
-93
-94
-95
-94
-94
-95
-95
-95
-95
-96
-96
-96
-97
-97
-97
-97
-98
-98
-98
-98
-99
-100
-100
-100
-100
-101
-102
-102
-102
-103
-104
-104
-104
-105
-106
-106
-106
-107
-108
-108
-108
-109
-109
-109
-111
-111
-111
-112
-112
-112
-113
-114
-114
-114
-114
-115
-115
-115
-115
-115
-115
-115
-115
-116
-116
-117
-117
-117
-117
-117
-117
-117
-117
-117
-117
-118
-118
-118
-118
-118
-118
-118
-118
-118
-119
-119
-119
