# Simple Text Format
# Sampling Rate (Hz):= 1200.00
# Resolution:= 12
# Labels:= ECG	 V4
# Age:=	52
# Gender:=	Feminino
-145
-144
-144
-144
-144
-144
-144
-144
-144
-144
-144
-144
-144
-144
-144
-144
-144
-144
-144
-143
-143
-143
-143
-143
-143
-143
-143
-142
-142
-142
-142
-142
-142
-142
-141
-141
-140
-140
-140
-140
-140
-139
-139
-139
-139
-138
-138
-138
-138
-137
-137
-138
-138
-137
-137
-138
-139
-138
-139
-140
-141
-141
-141
-142
-142
-143
-144
-145
-146
-147
-148
-149
-150
-151
-152
-154
-154
-155
-156
-157
-157
-159
-160
-160
-161
-162
-162
-163
-164
-164
-165
-165
-165
-165
-167
-167
-167
-167
-168
-168
-169
-169
-169
-170
-170
-171
-170
-171
-171
-172
-172
-172
-173
-172
-173
-173
-173
-173
-173
-173
-174
-174
-175
-174
-175
-175
-174
-175
-175
-176
-175
-176
-176
-176
-177
-177
-177
-177
-177
-178
-178
-177
-178
-178
-178
-179
-179
-178
-178
-179
-179
-179
-178
-179
-179
-179
-179
-179
-179
-179
-180
-179
-179
-180
-180
-180
-181
-181
-181
-182
-182
-182
-182
-183
-183
-183
-183
-183
-184
-184
-184
-184
-184
-184
-185
-185
-185
-186
-186
-186
-186
-186
-185
-185
-185
-186
-186
-186
-186
-186
-187
-187
-186
-186
-186
-186
-187
-187
-187
-187
-187
-186
-186
-187
-187
-187
-187
-187
-187
-187
-187
-187
-187
-187
-187
-187
-187
-187
-187
-187
-187
-187
-188
-188
-187
-187
-187
-187
-186
-186
-186
-185
-185
-184
-184
-184
-184
-184
-183
-183
-183
-181
-181
-180
-180
-179
-179
-179
-178
-178
-177
-177
-177
-176
-176
-175
-176
-176
-175
-175
-175
-174
-174
-173
-173
-172
-172
-171
-172
-171
-171
-171
-170
-170
-170
-170
-169
-170
-170
-170
-169
-169
-170
-170
-170
-171
-171
-170
-171
-171
-171
-171
-171
-171
-171
-171
-171
-171
-171
-171
-171
-171
-171
-172
-172
-172
-172
-172
-172
-173
-173
-174
-174
-175
-175
-176
-177
-177
-178
-178
-179
-179
-180
-180
-181
-182
-182
-183
-183
-183
-184
-184
-183
-184
-184
-185
-184
-184
-185
-184
-185
-185
-186
-186
-186
-187
-187
-186
-187
-188
-189
-189
-189
-189
-190
-191
-191
-191
-191
-192
-192
-193
-193
-194
-194
-195
-194
-194
-194
-195
-195
-195
-195
-195
-196
-196
-196
-195
-195
-195
-195
-196
-196
-196
-196
-196
-196
-195
-195
-195
-195
-195
-195
-195
-195
-195
-195
-195
-194
-194
-194
-194
-193
-193
-192
-192
-192
-192
-192
-192
-192
-191
-191
-191
-192
-192
-192
-191
-191
-191
-191
-191
-191
-190
-190
-190
-191
-190
-190
-189
-188
-187
-187
-186
-184
-183
-181
-179
-178
-176
-173
-171
-168
-165
-162
-159
-156
-152
-148
-144
-139
-135
-130
-126
-121
-116
-111
-106
-102
-97
-93
-88
-85
-81
-79
-77
-76
-76
-77
-79
-83
-87
-93
-101
-111
-123
-136
-150
-166
-183
-201
-220
-240
-261
-282
-303
-324
-344
-365
-383
-401
-417
-432
-446
-457
-467
-475
-481
-485
-487
-487
-486
-482
-478
-471
-465
-456
-447
-437
-426
-415
-403
-391
-379
-367
-355
-343
-330
-319
-307
-297
-287
-276
-267
-258
-250
-242
-234
-227
-221
-216
-211
-205
-202
-198
-195
-192
-189
-187
-185
-183
-182
-181
-180
-179
-178
-178
-177
-177
-176
-176
-176
-175
-175
-175
-174
-174
-174
-173
-173
-173
-173
-173
-173
-172
-172
-172
-172
-171
-171
-170
-169
-169
-169
-169
-169
-168
-168
-168
-168
-168
-167
-167
-167
-167
-167
-166
-166
-166
-166
-167
-167
-167
-167
-167
-167
-167
-167
-167
-167
-168
-168
-167
-167
-168
-168
-168
-168
-168
-167
-167
-167
-168
-168
-168
-168
-167
-167
-167
-167
-167
-167
-167
-166
-166
-166
-166
-166
-166
-166
-166
-166
-165
-165
-165
-166
-166
-166
-166
-166
-165
-165
-165
-165
-166
-166
-166
-166
-166
-165
-165
-165
-165
-165
-165
-165
-165
-164
-164
-164
-164
-164
-164
-164
-163
-163
-163
-163
-162
-162
-162
-162
-161
-161
-161
-161
-161
-161
-161
-161
-160
-159
-159
-159
-159
-159
-159
-159
-158
-158
-158
-158
-158
-158
-158
-157
-157
-157
-157
-157
-157
-156
-156
-156
-156
-156
-156
-155
-155
-155
-155
-156
-156
-155
-155
-155
-154
-154
-154
-154
-154
-153
-153
-153
-153
-152
-152
-152
-151
-151
-151
-151
-151
-151
-150
-151
-151
-151
-151
-150
-150
-150
-150
-150
-149
-149
-149
-149
-148
-148
-148
-148
-148
-147
-147
-147
-147
-146
-146
-145
-145
-144
-144
-144
-143
-143
-142
-141
-141
-141
-140
-140
-140
-138
-138
-138
-137
-137
-137
-136
-135
-135
-135
-134
-134
-134
-134
-134
-132
-133
-132
-132
-132
-132
-131
-130
-130
-130
-129
-129
-129
-129
-127
-127
-127
-127
-126
-126
-126
-124
-124
-124
-123
-123
-123
-122
-122
-122
-120
-120
-119
-119
-119
-119
-118
-118
-118
-117
-117
-118
-117
-117
-117
-117
-117
-116
-116
-116
-116
-116
-116
-116
-117
-117
-117
-117
-117
-116
-116
-116
-116
-116
-116
-116
-116
-116
-117
-117
-117
-117
-117
-118
-118
-118
-119
-118
-118
-119
-119
-119
-120
-120
-120
-121
-121
-121
-122
-122
-122
-124
-124
-124
-124
-125
-125
-125
-125
-126
-127
-127
-127
-128
-128
-128
-128
-129
-129
-129
-129
-130
-130
-130
-130
-131
-131
-131
-131
-132
-132
-133
-134
-134
-134
-135
-135
-135
-136
-136
-138
-138
-138
-139
-139
-140
-141
-142
-142
-143
-144
-144
-145
-146
-147
-147
-148
-149
-149
-149
-151
-151
-152
-152
-152
-153
-153
-154
-155
-155
-155
-156
-156
-156
-156
-158
-158
-158
-158
-159
-160
-160
-161
-161
-161
-161
-161
-162
-162
-162
-162
-163
-163
-163
-163
-163
-163
-163
-164
-164
-164
-164
-164
-164
-164
-164
-165
-165
-165
-165
-165
-166
-166
-166
-166
-167
-167
-167
-167
-167
-167
-168
-168
-168
-168
-168
-168
-168
-168
-168
-168
-168
-168
-168
-168
-168
-168
-168
-168
-168
-168
-168
-168
-168
-168
-168
-167
-167
-167
-167
-167
-167
-167
-167
-167
-167
-167
-167
-167
-167
-167
-167
-166
-166
-166
-166
-166
-166
-166
-166
-166
-166
-166
-165
-165
-165
-165
-165
-164
-164
-164
-165
-165
-164
-164
-164
-164
-163
-163
-163
-164
-164
-164
-164
-164
-164
-164
-163
-163
-163
-163
-163
-163
-163
-163
-162
-162
-162
-162
-162
-162
-162
-162
-162
-161
-161
-162
-162
-161
-161
-160
-160
-160
-160
-160
-160
-161
-161
-161
-161
-161
-161
-160
-160
-160
-160
-160
-160
-160
-160
-160
-160
-160
-161
-161
-161
-160
-160
-160
-160
-160
-160
-160
-160
-160
-160
-160
-160
-160
-160
-161
-161
-161
-161
-161
-161
-162
-162
-162
-162
-162
-162
-163
-163
-163
-163
-163
-164
-164
-164
-164
-164
-164
-164
-164
-164
-164
-164
-166
-166
-166
-166
-166
-166
-166
-166
-166
-166
-166
-166
-167
-167
-167
-167
-167
-167
-167
-167
-167
-167
-167
-167
-167
-168
-168
-168
-168
-168
-168
-167
-167
-167
-167
-167
-167
-169
-169
-169
-169
-169
-169
-169
-169
-169
-170
-170
-170
-170
-170
-170
-170
-170
-170
-170
-170
-170
-170
-169
-169
-169
-169
-169
-169
-169
-169
-169
-168
-168
-168
-168
-167
-167
-167
-167
-166
-166
-165
-165
-165
-164
-164
-164
-163
-162
-162
-162
-161
-160
-160
-160
-158
-158
-158
-157
-157
-157
-156
-156
-155
-155
-154
-154
-154
-154
-154
-153
-153
-153
-152
-152
-152
-152
-151
-151
-151
-151
-151
-151
-151
-151
-151
-151
-151
-151
-151
-151
-151
-152
-152
-152
-152
-152
-152
-153
-153
-152
-153
-153
-153
-153
-153
-153
-154
-154
-154
-154
-154
-154
-154
-155
-155
-155
-155
-156
-156
-157
-157
-157
-158
-159
-159
-159
-160
-160
-161
-161
-162
-163
-164
-164
-165
-166
-165
-166
-167
-167
-168
-168
-168
-168
-169
-169
-170
-170
-170
-170
-170
-171
-171
-171
-171
-171
-172
-172
-172
-173
-172
-173
-173
-173
-174
-174
-174
-175
-175
-175
-175
-175
-175
-175
-176
-176
-176
-177
-177
-177
-177
-178
-178
-178
-178
-178
-178
-178
-178
-179
-179
-179
-179
-179
-180
-179
-179
-179
-179
-179
-179
-179
-179
-179
-179
-178
-179
-179
-179
-179
-179
-179
-179
-179
-178
-178
-178
-178
-178
-178
-177
-177
-177
-177
-177
-177
-176
-176
-176
-176
-176
-176
-176
-176
-176
-175
-174
-174
-173
-171
-170
-170
-168
-166
-164
-162
-159
-157
-154
-151
-148
-144
-140
-137
-134
-130
-126
-121
-118
-114
-109
-104
-100
-96
-91
-87
-82
-79
-75
-71
-69
-67
-66
-66
-67
-69
-71
-75
-80
-87
-95
-106
-118
-131
-147
-162
-180
-198
-217
-237
-257
-277
-297
-317
-338
-356
-373
-391
-405
-419
-432
-442
-450
-458
-462
-465
-466
-465
-463
-459
-454
-447
-439
-430
-421
-410
-400
-388
-377
-365
-353
-341
-329
-318
-305
-295
-283
-274
-263
-255
-245
-238
-230
-222
-216
-210
-204
-199
-194
-190
-186
-183
-180
-178
-175
-173
-172
-169
-168
-167
-167
-166
-165
-165
-164
-163
-163
-163
-162
-162
-162
-162
-162
-161
-161
-161
-161
-160
-160
-160
-160
-160
-159
-159
-160
-160
-160
-159
-159
-159
-159
-159
-158
-158
-158
-158
-158
-158
-157
-157
-157
-157
-157
-158
-157
-157
-157
-157
-157
-157
-157
-157
-157
-157
-157
-156
-156
-156
-156
-157
-157
-157
-157
-156
-156
-156
-156
-156
-156
-156
-156
-156
-156
-156
-156
-156
-156
-156
-156
-154
-154
-154
-154
-154
-154
-154
-154
-154
-153
-153
-153
-153
-153
-153
-152
-152
-153
-153
-153
-152
-152
-152
-152
-152
-152
-151
-151
-151
-151
-151
-151
-151
-150
-150
-151
-151
-151
-151
-151
-151
-151
-151
-150
-150
-150
-150
-150
-150
-150
-150
-150
-149
-149
-149
-149
-149
-149
-149
-148
-148
-148
-148
-148
-148
-147
-147
-147
-146
-146
-146
-146
-146
-146
-145
-144
-144
-144
-144
-144
-144
-144
-144
-143
-144
-144
-144
-144
-144
-144
-145
-145
-144
-144
-144
-144
-144
-144
-145
-145
-144
-144
-144
-144
-144
-144
-144
-144
-143
-143
-142
-142
-142
-142
-141
-141
-140
-140
-140
-139
-139
-139
-138
-137
-137
-137
-137
-137
-136
-136
-136
-135
-134
-134
-134
-133
-133
-133
-133
-131
-131
-131
-131
-130
-130
-130
-130
-128
-128
-128
-128
-127
-127
-127
-127
-126
-126
-126
-126
-126
-125
-125
-125
-124
-124
-124
-123
-123
-123
-123
-122
-122
-121
-121
-121
-121
-120
-120
-119
-118
-118
-118
-117
-117
-117
-117
-115
-115
-115
-115
-115
-113
-113
-113
-113
-113
-113
-113
-112
-111
-111
-111
-111
-111
-111
-110
-110
-110
-110
-110
-110
-109
-110
-110
-110
-110
-110
-110
-109
-109
-110
-110
-110
-110
-110
-109
-109
-109
-110
-110
-109
-109
-109
-110
-110
-109
-109
-110
-110
-110
-111
-110
-111
-111
-111
-111
-111
-112
-112
-112
-113
-113
-113
-114
-114
-114
-115
-116
-116
-116
-116
-116
-117
-118
-118
-118
-119
-119
-119
-119
-119
-120
-120
-120
-120
-120
-121
-121
-121
-121
-122
-122
-122
-122
-123
-123
-124
-124
-125
-125
-126
-126
-127
-127
-128
-129
-130
-130
-131
-131
-131
-133
-133
-134
-134
-135
-136
-137
-137
-137
-139
-139
-139
-140
-140
-141
-142
-142
-142
-143
-144
-145
-145
-145
-146
-146
-147
-147
-148
-149
-149
-149
-149
-151
-151
-151
-151
-152
-153
-154
-154
-154
-154
-154
-155
-156
-156
-156
-157
-157
-157
-157
-157
-157
-157
-158
-158
-159
-159
-159
-159
-159
-159
-159
-159
-160
-160
-160
-161
-161
-161
-161
-161
-161
-162
-162
-162
-162
-162
-162
-162
-162
-162
-162
-162
-162
-162
-162
-162
-162
-162
-162
-162
-162
-162
-162
-162
-162
-162
-161
-161
-161
-161
-161
-161
-161
-161
-161
-161
-161
-161
-161
-161
-161
-161
-160
-160
-160
-160
-160
-160
-160
-159
-159
-159
-159
-159
-159
-159
-159
-159
-159
-159
-159
-159
-159
-159
-159
-159
-159
-159
-159
-159
-158
-159
-158
-158
-158
-158
-158
-158
-158
-158
-158
-158
-158
-157
-157
-157
-156
-156
-156
-156
-156
-156
-155
-155
-155
-155
-155
-154
-153
-153
-153
-153
-153
-154
-154
-154
-154
-154
-154
-154
-154
-154
-154
-154
-154
-154
-155
-155
-156
-156
-156
-156
-156
-155
-155
-155
-155
-155
-156
-156
-156
-157
-157
-157
-157
-157
-157
-157
-157
-158
-158
-158
-158
-158
-158
-159
-159
-159
-159
-159
-159
-159
-159
-160
-160
-160
-160
-160
-160
-160
-160
-160
-161
-161
-161
-161
-161
-161
-161
-161
-161
-161
-161
-161
-161
-161
-161
-161
-161
-161
-161
-161
-161
-161
-161
-161
-161
-161
-162
-162
-162
-162
-162
-162
-163
-163
-163
-163
-163
-163
-163
-163
-163
-164
-164
-165
-165
-165
-165
-165
-165
-165
-165
-165
-165
-165
-165
-165
-165
-165
-165
-165
-165
-165
-165
-166
-166
-166
-166
-166
-166
-166
-166
-166
-166
-166
-166
-166
-166
-166
-166
-166
-166
-166
-166
-166
-166
-166
-166
-166
-166
-165
-165
-164
-164
-163
-163
-162
-162
-161
-160
-159
-159
-158
-158
-157
-157
-157
-155
-155
-155
-154
-154
-154
-154
-153
-153
-153
-153
-153
-152
-152
-151
-151
-151
-150
-150
-149
-149
-149
-149
-148
-148
-148
-148
-148
-148
-148
-148
-148
-148
-148
-148
-148
-148
-149
-149
-148
-149
-149
-148
-149
-149
-149
-149
-149
-149
-149
-149
-150
-149
-149
-149
-149
-149
-149
-150
-150
-150
-150
-152
-152
-153
-153
-154
-154
-155
-156
-156
-157
-158
-159
-160
-161
-161
-161
-162
-163
-164
-163
-164
-164
-164
-165
-165
-165
-165
-165
-166
-165
-165
-166
-166
-167
-166
-166
-167
-167
-168
-168
-167
-168
-168
-169
-169
-169
-170
-169
-170
-170
-170
-170
-171
-171
-170
-171
-171
-171
-172
-172
-172
-172
-172
-173
-173
-173
-173
-174
-174
-174
-173
-173
-173
-173
-173
-173
-173
-173
-173
-173
-173
-173
-173
-172
-172
-172
-172
-173
-173
-173
-173
-173
-173
-173
-173
-173
-173
-173
-173
-173
-172
-173
-173
-173
-173
-173
-173
-173
-173
-173
-173
-173
-173
-172
-172
-172
-172
-172
-172
-171
-171
-170
-170
-169
-169
-168
-166
-166
-164
-162
-160
-159
-156
-154
-151
-149
-146
-144
-140
-136
-133
-129
-125
-121
-116
-111
-108
-103
-99
-94
-90
-86
-82
-77
-74
-71
-69
-67
-67
-67
-67
-69
-72
-77
-82
-89
-98
-109
-121
-134
-150
-165
-183
-201
-220
-239
-260
-279
-300
-320
-339
-358
-375
-391
-407
-420
-432
-441
-450
-456
-460
-463
-463
-462
-459
-455
-450
-442
-435
-426
-417
-406
-396
-384
-373
-361
-349
-338
-326
-314
-303
-293
-281
-272
-261
-252
-243
-235
-227
-219
-214
-207
-202
-197
-191
-187
-183
-179
-176
-174
-170
-169
-167
-165
-164
-163
-162
-161
-160
-160
-160
-159
-159
-159
-159
-159
-158
-159
-159
-159
-158
-158
-158
-158
-157
-158
-158
-157
-157
-157
-157
-156
-156
-156
-156
-155
-156
-156
-156
-155
-155
-155
-155
-155
-155
-154
-154
-154
-154
-154
-154
-153
-153
-153
-153
-153
-153
-152
-151
-151
-152
-152
-152
-152
-152
-151
-151
-151
-151
-151
-151
-151
-151
-151
-151
-151
-151
-150
-150
-150
-150
-150
-151
-151
-151
-151
-151
-151
-151
-151
-151
-151
-151
-151
-151
-151
-151
-151
-151
-150
-150
-150
-150
-150
-150
-150
-150
-150
-149
-149
-149
-149
-149
-149
-149
-148
-148
-148
-148
-148
-148
-148
-148
-148
-147
-147
-147
-147
-147
-147
-147
-147
-147
-146
-146
-146
-145
-145
-145
-145
-145
-144
-144
-144
-144
-144
-144
-144
-144
-144
-144
-144
-144
-144
-144
-144
-144
-145
-145
-145
-144
-144
-144
-145
-145
-145
-145
-145
-144
-144
-144
-144
-144
-144
-144
-144
-144
-143
-143
-143
-143
-143
-142
-142
-142
-142
-141
-141
-140
-140
-140
-140
-140
-139
-139
-139
-139
-139
-138
-137
-137
-137
-137
-136
-136
-136
-136
-136
-135
-135
-135
-135
-134
-134
-134
-134
-134
-134
-134
-134
-134
-134
-134
-134
-134
-134
-134
-133
-133
-133
-133
-133
-132
-132
-132
-132
-132
-131
-131
-131
-131
-131
-130
-130
-130
-130
-130
-129
-129
-129
-129
-128
-127
-127
-127
-126
-126
-126
-124
-124
-124
-124
-123
-123
-122
-121
-121
-121
-121
-120
-120
-119
-119
-118
-118
-118
-118
-118
-118
-117
-117
-117
-117
-116
-116
-116
-116
-115
-115
-115
-114
-114
-114
-114
-114
-114
-114
-113
-113
-113
-113
-113
-113
-112
-112
-112
-113
-113
-113
-113
-112
-112
-112
-113
-114
-113
-113
-113
-115
-115
-114
-114
-115
-115
-115
-115
-116
-116
-116
-117
-117
-117
-117
-117
-117
-117
-117
-118
-118
-118
-118
-118
-118
-118
-118
-118
-118
-119
-120
-120
-120
-121
-121
-121
-121
-122
-123
-123
-123
-123
-124
-124
-124
-124
-125
-125
-126
-126
-126
-126
-128
-128
-129
-129
-129
-129
-130
-130
-130
-132
-132
-132
-132
-132
-133
-134
-134
-134
-134
-134
-134
-136
-136
-136
-137
-137
-138
-138
-139
-140
-140
-141
-141
-141
-143
-143
-143
-144
-144
-145
-146
-146
-146
-146
-146
-147
-147
-147
-148
-147
-148
-148
-149
-148
-148
-149
-148
-149
-149
-149
-150
-150
-150
-150
-150
-150
-150
-151
-151
-151
-151
-151
-152
-152
-152
-152
-152
-152
-153
-153
-153
-153
-154
-155
-155
-155
-155
-156
-156
-156
-156
-157
-157
-157
-157
-157
-157
-157
-157
-157
-157
-157
-157
-157
-157
-157
-157
-158
-158
-158
-158
-158
-158
-158
-158
-158
-158
-158
-157
-156
-156
-156
-156
-156
-156
-156
-156
-157
-157
-156
-156
-156
-156
-156
-156
-155
-155
-155
-155
-155
-155
-155
-155
-155
-155
-155
-155
-155
-154
-154
-154
-154
-153
-153
-153
-153
-152
-152
-152
-152
-152
-152
-152
-152
-152
-152
-152
-152
-152
-151
-151
-151
-151
-151
-151
-151
-152
-152
-152
-152
-152
-152
-152
-151
-151
-151
-151
-151
-150
-150
-150
-150
-149
-149
-149
-150
-149
-149
-149
-149
-149
-148
-148
-148
-148
-148
-148
-148
-148
-148
-148
-148
-148
-148
-148
-149
-149
-149
-149
-149
-149
-150
-150
-150
-150
-151
-151
-151
-151
-151
-151
-151
-153
-153
-153
-153
-153
-153
-153
-154
-154
-154
-154
-154
-154
-155
-155
-155
-155
-155
-155
-155
-155
-155
-155
-154
-154
-154
-154
-154
-154
-155
-155
-155
-155
-156
-156
-156
-156
-156
-156
-156
-156
-157
-157
-157
-157
-158
-159
-159
-159
-159
-158
-159
-159
-159
-159
-159
-160
-160
-161
-161
-161
-161
-161
-161
-160
-160
-160
-160
-160
-160
-160
-160
-160
-160
-160
-160
-160
-161
-161
-161
-161
-161
-161
-161
-161
-161
-161
-161
-162
-162
-162
-162
-162
-162
-162
-162
-162
-162
-162
-161
-161
-162
-162
-162
-162
-162
-162
-162
-162
-161
-161
-161
-161
-161
-160
-160
-160
-159
-159
-159
-158
-157
-156
-156
-156
-155
-155
-155
-154
-154
-154
-153
-153
-153
-153
-152
-152
-152
-151
-151
-151
-151
-151
-151
-151
-151
-151
-151
-151
-151
-151
-151
-151
-151
-151
-150
-150
-150
-150
-149
-149
-149
-148
-148
-148
-148
-147
-147
-147
-148
-147
-147
-147
-147
-147
-147
-148
-147
-148
-148
-149
-148
-148
-149
-148
-149
-149
-149
-150
-149
-149
-150
-150
-150
-151
-151
-151
-152
-153
-153
-154
-154
-155
-156
-156
-158
-158
-159
-160
-159
-160
-161
-161
-162
-163
-162
-163
-163
-163
-163
-163
-163
-163
-163
-163
-162
-162
-162
-163
-162
-162
-162
-162
-162
-162
-162
-162
-162
-163
-163
-164
-164
-164
-165
-165
-166
-166
-167
-167
-168
-168
-169
-169
-170
-170
-171
-170
-170
-171
-172
-172
-173
-173
-173
-173
-173
-173
-173
-172
-172
-172
-172
-172
-172
-172
-172
-172
-172
-172
-171
-171
-171
-171
-171
-171
-171
-171
-171
-171
-170
-170
-170
-170
-170
-170
-170
-171
-171
-171
-171
-171
-171
-171
-171
-170
-170
-170
-170
-170
-170
-170
-170
-170
-170
-170
-170
-169
-170
-170
-169
-169
-168
-167
-167
-165
-164
-162
-160
-158
-158
-156
-154
-151
-149
-146
-143
-139
-135
-132
-128
-124
-119
-115
-110
-106
-101
-97
-92
-88
-84
-80
-76
-73
-70
-67
-67
-66
-66
-67
-69
-72
-77
-83
-91
-100
-110
-123
-136
-152
-168
-186
-203
-222
-241
-262
-282
-302
-321
-340
-358
-376
-390
-405
-418
-429
-438
-445
-451
-455
-457
-457
-455
-452
-448
-442
-435
-428
-418
-409
-398
-388
-377
-365
-354
-343
-330
-319
-308
-297
-286
-276
-265
-255
-246
-237
-230
-222
-215
-208
-203
-197
-192
-187
-183
-179
-175
-172
-170
-168
-166
-164
-162
-161
-160
-159
-159
-158
-158
-158
-157
-156
-156
-156
-156
-156
-156
-156
-156
-155
-155
-155
-155
-155
-155
-155
-155
-154
-153
-153
-153
-153
-153
-153
-153
-152
-151
-151
-151
-151
-151
-151
-150
-150
-150
-150
-150
-150
-150
-150
-151
-151
-151
-151
-151
-151
-151
-152
-152
-152
-152
-152
-152
-152
-152
-152
-152
-152
-152
-152
-152
-152
-152
-151
-151
-151
-151
-151
-151
-151
-151
-151
-151
-149
-149
-149
-149
-149
-149
-149
-149
-149
-148
-148
-148
-148
-148
-149
-149
-149
-149
-150
-150
-150
-150
-150
-150
-150
-150
-150
-150
-150
-150
-150
-149
-149
-150
-150
-150
-150
-150
-149
-149
-149
-149
-149
-149
-148
-148
-148
-148
-147
-147
-147
-147
-147
-147
-147
-147
-147
-147
-147
-147
-147
-146
-146
-145
-145
-145
-145
-146
-145
-145
-145
-145
-144
-144
-144
-144
-144
-144
-144
-144
-144
-143
-143
-143
-143
-143
-142
-142
-142
-142
-142
-142
-142
-142
-142
-142
-142
-142
-141
-142
-142
-142
-142
-142
-142
-142
-142
-141
-141
-141
-142
-142
-142
-142
-141
-141
-141
-141
-141
-140
-140
-140
-140
-139
-138
-138
-138
-138
-138
-138
-137
-137
-137
-136
-136
-136
-136
-135
-135
-135
-135
-135
-135
-135
-135
-134
-134
-133
-133
-132
-132
-132
-132
-132
-132
-132
-131
-131
-130
-131
-131
-130
-129
-129
-130
-129
-129
-130
-128
-128
-128
-128
-128
-127
-127
-126
-126
-126
-125
-125
-125
-124
-124
-124
-123
-123
-123
-122
-122
-122
-122
-121
-121
-121
-121
-121
-120
-120
-119
-119
-119
-118
-118
-118
-118
-118
-118
-118
-118
-118
-117
-118
-118
-117
-117
-118
-117
-117
-117
-117
-117
-118
-117
-117
-117
-117
-117
-117
-117
-117
-117
-117
-117
-117
-117
-118
-117
-117
-118
-118
-119
-118
-118
-119
-119
-119
-120
-120
-120
-120
-121
-121
-121
-121
-121
-122
-122
-122
-122
-123
-123
-123
-123
-124
-124
-125
-125
-125
-125
-125
-126
-126
-126
-127
-127
-128
-128
-128
-128
-128
-128
-129
-129
-129
-130
-130
-130
-131
-131
-131
-132
-133
-133
-133
-134
-134
-135
-135
-135
-136
-136
-136
-137
-138
-138
-139
-139
-140
-141
-141
-141
-141
-142
-142
-143
-144
-144
-144
-144
-145
-145
-145
-146
-147
-147
-147
-148
-148
-149
-149
-150
-150
-151
-152
-152
-152
-153
-153
-154
-154
-155
-156
-156
-156
-157
-157
-157
-158
-159
-159
-159
-159
-159
-161
-161
-161
-161
-161
-163
-163
-163
-163
-163
-163
-163
-163
-164
-164
-164
-165
-165
-165
-165
-165
-164
-164
-164
-165
-165
-165
-165
-165
-165
-165
-165
-165
-165
-165
-165
-165
-165
-166
-166
-166
-166
-166
-166
-166
-165
-166
-166
-166
-166
-166
-166
-166
-166
-166
-165
-166
-166
-166
-166
-166
-166
-166
-166
-166
-166
-166
-166
-167
-167
-166
-166
-165
-165
-165
-165
-164
-164
-164
-164
-164
-164
-164
-163
-163
-163
-162
-162
-162
-162
-163
-163
-163
-163
-163
-163
-163
-163
-163
-163
-163
-163
-163
-163
-163
-163
-163
-163
-163
-163
-163
-163
-163
-163
-163
-163
-163
-163
-163
-163
-163
-163
-163
-163
-162
-162
-162
-162
-162
-163
-163
-163
-163
-163
-163
-163
-163
-163
-163
-163
-164
-164
-164
-164
-164
-164
-164
-164
-164
-164
-164
-164
-164
-164
-165
-165
-165
-165
-165
-165
-166
-166
-166
-166
-166
-167
-167
-167
-167
-167
-168
-168
-168
-168
-168
-168
-168
-168
-169
-169
-170
-170
-170
-170
-170
-170
-170
-170
-170
-170
-170
-170
-170
-171
-171
-171
-170
-170
-171
-171
-171
-171
-172
-172
-172
-172
-173
-173
-173
-173
-174
-174
-174
-174
-174
-175
-175
-175
-175
-176
-175
-176
-176
-176
-176
-176
-175
-176
-176
-176
-176
-176
-176
-176
-176
-176
-175
-176
-176
-176
-176
-175
-176
-176
-176
-176
-176
-177
-176
-177
-176
-177
-177
-177
-177
-179
-179
-179
-179
-179
-179
-179
-179
-180
-180
-180
-180
-180
-180
-180
-181
-181
-181
-181
-180
-180
-180
-180
-180
-180
-180
-179
-180
-180
-180
-180
-180
-181
-181
-181
-181
-181
-182
-181
-182
-182
-182
-182
-184
-184
-184
-183
-183
-183
-183
-183
-183
-184
-184
-184
-184
-184
-184
-184
-184
-183
-183
-183
-183
-183
-183
-183
-182
-182
-182
-182
-182
-182
-182
-182
-182
-182
-182
-182
-181
-181
-181
-180
-180
-180
-180
-179
-179
-179
-178
-178
-177
-177
-176
-176
-176
-175
-175
-174
-174
-173
-173
-172
-172
-171
-171
-171
-171
-170
-170
-170
-170
-169
-169
-169
-169
-169
-169
-169
-169
-170
-169
-169
-169
-169
-169
-170
-170
-170
-170
-170
-170
-170
-170
-170
-170
-170
-169
-170
-170
-169
-169
-169
-169
-170
-169
-170
-169
-170
-169
-170
-170
-170
-170
-171
-171
-172
-172
-172
-173
-174
-174
-174
-175
-176
-177
-177
-178
-179
-179
-180
-181
-182
-183
-183
-184
-184
-184
-185
-185
-186
-185
-186
-186
-186
-186
-186
-185
-186
-186
-185
-186
-185
-185
-186
-185
-186
-186
-186
-186
-186
-187
-188
-188
-188
-188
-189
-189
-190
-190
-190
-190
-191
-192
-192
-192
-192
-193
-193
-194
-193
-193
-193
-194
-194
-194
-194
-194
-194
-194
-195
-195
-195
-196
-196
-196
-195
-196
-196
-196
-196
-196
-195
-195
-195
-195
-195
-195
-196
-195
-195
-195
-195
-195
-195
-195
-195
-195
-194
-194
-194
-194
-195
-195
-194
-195
-195
-195
-195
-196
-196
-195
-195
-195
-195
-195
-195
-195
-194
-194
-194
-193
-193
-192
-191
-189
-188
-186
-184
-182
-181
-178
-176
-174
-171
-168
-165
-161
-157
-153
-149
-144
-140
-134
-129
-124
-118
-113
-108
-103
-97
-92
-87
-82
-78
-76
-73
-72
-71
-72
-74
-77
-83
-90
-99
-108
-120
-133
-146
-163
-179
-197
-216
-236
-256
-277
-297
-318
-338
-357
-375
-393
-408
-422
-434
-446
-455
-463
-469
-473
-475
-475
-474
-471
-467
-462
-455
-446
-438
-429
-419
-408
-398
-387
-375
-364
-353
-342
-331
-320
-310
-299
-289
-280
-271
-263
-255
-248
-241
-235
-229
-224
-219
-215
-211
-207
-204
-201
-199
-197
-195
-194
-192
-191
-190
-190
-189
-189
-188
-188
-188
-188
-187
-187
-187
-187
-187
-187
-186
-186
-185
-186
-185
-185
-185
-184
-184
-183
-183
-183
-182
-183
-183
-183
-182
-182
-182
-182
-182
-182
-182
-182
-182
-182
-182
-182
-182
-182
-182
-182
-182
-182
-182
-182
-182
-182
-181
-181
-181
-181
-181
-180
-180
-180
-180
-179
-179
-179
-179
-179
-179
-179
-178
-178
-178
-178
-178
-178
-177
-178
-178
-178
-178
-178
-178
-178
-178
-178
-178
-179
-179
-179
-179
-179
-179
-179
-179
-179
-179
-179
-179
-179
-179
-179
-179
-179
-179
-179
-179
-179
-178
-178
-178
-179
-179
-179
-179
-179
-179
-179
-179
-179
-178
-178
-178
-178
-178
-178
-177
-177
-177
-177
-176
-176
-176
-176
-176
-176
-176
-176
-175
-175
-175
-175
-175
-175
-176
-176
-175
-175
-175
-175
-175
-175
-175
-175
-175
-175
-175
-176
-176
-176
-176
-176
-176
-174
-174
-174
-174
-174
-174
-174
-174
-174
-173
-173
-173
-173
-173
-173
-173
-173
-172
-172
-172
-172
-172
-172
-171
-171
-171
-171
-171
-171
-171
-170
-170
-170
-170
-169
-169
-169
-169
-168
-168
-168
-168
-167
-167
-167
-167
-167
-166
-165
-165
-165
-165
-165
-163
-163
-163
-163
-163
-163
-162
-162
-162
-162
-162
-162
-162
-161
-161
-161
-161
-161
-161
-161
-161
-161
-160
-160
-160
-160
-160
-159
-159
-158
-158
-158
-157
-157
-157
-157
-156
-155
-155
-155
-155
-155
-154
-154
-154
-154
-153
-153
-153
-152
-152
-152
-152
-151
-151
-151
-151
-152
-151
-151
-151
-151
-151
-151
-151
-151
-151
-150
-150
-150
-150
-150
-150
-150
-150
-150
-150
-150
-150
-149
-150
-150
-150
-150
-150
-150
-151
-151
-150
-151
-151
-152
-152
-152
-152
-153
-153
-154
-153
-154
-154
-155
-155
-156
-156
-157
-157
-157
-158
-158
-158
-159
-159
-159
-160
-161
-161
-161
-161
-163
-163
-163
-164
-164
-164
-165
-166
-166
-166
-166
-166
-167
-167
-167
-168
-168
-168
-168
-168
-168
-168
-169
-169
-169
-169
-168
-168
-168
-168
-168
-169
-168
-169
-169
-168
-168
-168
-168
-168
-168
-168
-169
-169
-170
-170
-171
-171
-171
-171
-172
-172
-172
-172
-173
-173
-174
-174
-174
-176
-176
-176
-177
-177
-177
-178
-178
-178
-179
-180
-180
-180
-181
-181
-182
-183
-183
-183
-184
-184
-185
-185
-186
-186
-187
-187
-187
-187
-188
-188
-188
-189
-189
-189
-190
-190
-190
-190
-190
-190
-190
-190
-190
-191
-191
-190
-190
-190
-190
-190
-190
-191
-191
-191
-191
-191
-191
-191
-191
-191
-191
-191
-192
-192
-192
-191
-192
-192
-192
-192
-192
-191
-191
-191
-191
-191
-191
-191
-191
-191
-191
-191
-191
-191
-191
-191
-191
-191
-191
-191
-191
-191
-191
-190
-190
-190
-190
-190
-190
-190
-189
-189
-189
-189
-188
-188
-188
-188
-188
-188
-188
-187
-187
-187
-187
-187
-187
-186
-186
-186
-185
-185
-185
-185
-185
-185
-185
-184
-184
-184
-184
-184
-184
-184
-183
-183
-183
-183
-183
-183
-183
-183
-183
-183
-183
-183
-184
-183
-183
-183
-183
-183
-183
-183
-184
-184
-184
-183
-183
-183
-183
-183
-183
-183
-183
-182
-182
-182
-182
-182
-182
-182
-182
-182
-182
-182
-182
-182
-182
-182
-182
-182
-182
-182
-182
-182
-182
-182
-182
-182
-183
-183
-183
-183
-183
-184
-184
-184
-184
-184
-184
-184
-184
-184
-184
-185
-185
-185
-185
-185
-185
-186
-185
-185
-186
-186
-186
-186
-186
-186
-186
-186
-186
-186
-186
-186
-186
-186
-187
-187
-187
-187
-187
-187
-187
-187
-187
-188
-188
-188
-188
-188
-189
-189
-189
-189
-189
-189
-189
-190
-190
-190
-190
-190
-190
-190
-191
-191
-191
-191
-191
-191
-192
-191
-191
-191
-191
-191
-190
-191
-190
-190
-190
-190
-190
-190
-190
-190
-191
-191
-191
-191
-191
-191
-191
-192
-192
-192
-192
-192
-192
-192
-192
-193
-193
-193
-193
-193
-193
-193
-193
-193
-193
-193
-193
-193
-192
-193
-193
-193
-193
-193
-193
-193
-193
-193
-193
-193
-193
-194
-194
-194
-193
-193
-193
-193
-193
-193
-193
-193
-193
-192
-192
-192
-192
-191
-191
-191
-190
-190
-190
-188
-188
-187
-187
-186
-186
-185
-185
-183
-183
-182
-182
-182
-181
-181
-180
-180
-179
-179
-178
-178
-177
-177
-177
-177
-177
-177
-176
-176
-176
-175
-175
-175
-175
-175
-175
-175
-175
-175
-174
-174
-175
-175
-175
-175
-175
-175
-175
-175
-176
-176
-175
-176
-176
-177
-176
-176
-177
-177
-178
-177
-177
-178
-178
-178
-179
-179
-179
-179
-179
-180
-181
-181
-181
-182
-182
-182
-183
-183
-184
-184
-185
-185
-186
-186
-187
-187
-188
-188
-189
-189
-189
-189
-189
-190
-189
-189
-190
-189
-190
-190
-189
-190
-190
-190
-190
-190
-190
-191
-191
-191
-192
-192
-192
-193
-194
-194
-195
-195
-195
-196
-197
-197
-198
-198
-199
-199
-200
-200
-200
-201
-201
-201
-201
-201
-201
-201
-201
-201
-201
-201
-201
-201
-201
-201
-200
-200
-200
-200
-200
-199
-199
-199
-199
-199
-199
-199
-199
-199
-199
-199
-199
-199
-199
-199
-200
-199
-199
-199
-199
-199
-199
-199
-198
-198
-198
-199
-198
-198
-198
-197
-197
-197
-196
-196
-196
-196
-196
-196
-196
-195
-195
-196
-195
-194
-193
-192
-192
-190
-188
-187
-186
-183
-181
-179
-176
-174
-170
-168
-164
-160
-156
-152
-147
-142
-137
-132
-127
-122
-117
-112
-106
-101
-96
-91
-86
-83
-80
-78
-76
-75
-77
-78
-82
-86
-92
-100
-111
-121
-134
-148
-164
-181
-199
-219
-239
-260
-281
-302
-324
-344
-364
-383
-401
-418
-433
-447
-458
-469
-477
-483
-488
-490
-491
-489
-487
-482
-477
-469
-462
-453
-443
-432
-421
-410
-397
-385
-374
-361
-350
-337
-326
-314
-303
-292
-282
-273
-264
-256
-248
-241
-234
-228
-223
-217
-213
-209
-205
-202
-200
-197
-195
-193
-192
-191
-190
-188
-188
-187
-188
-188
-187
-187
-187
-187
-186
-186
-186
-185
-185
-185
-184
-185
-184
-184
-184
-183
-183
-182
-182
-182
-181
-182
-181
-181
-181
-181
-181
-181
-181
-181
-181
-181
-181
-181
-181
-181
-181
-181
-181
-181
-181
-181
-181
-181
-181
-181
-181
-181
-180
-180
-179
-179
-179
-179
-179
-179
-179
-178
-178
-178
-178
-178
-178
-178
-178
-178
-178
-178
-178
-178
-177
-177
-177
-177
-178
-178
-178
-178
-178
-178
-177
-177
-177
-177
-177
-177
-177
-177
-177
-177
-177
-177
-177
-177
-177
-177
-177
-177
-177
-177
-177
-177
-177
-177
-177
-176
-176
-176
-176
-175
-175
-175
-176
-175
-175
-175
-176
-175
-175
-175
-175
-175
-175
-175
-175
-175
-176
-175
-175
-175
-175
-175
-175
-174
-175
-174
-174
-174
-174
-174
-173
-173
-173
-172
-172
-173
-173
-172
-172
-172
-173
-173
-173
-173
-173
-174
-174
-173
-173
-173
-174
-174
-174
-174
-173
-173
-173
-174
-174
-174
-173
-173
-173
-173
-173
-173
-173
-172
-171
-171
-171
-171
-171
-170
-170
-170
-170
-170
-169
-169
-169
-168
-168
-168
-168
-168
-168
-166
-166
-166
-166
-166
-166
-165
-165
-165
-165
-165
-165
-165
-165
-165
-165
-165
-165
-165
-165
-165
-165
-165
-164
-164
-164
-164
-164
-164
-164
-164
-164
-163
-163
-163
-163
-162
-162
-161
-161
-161
-161
-160
-159
-158
-158
-158
-157
-157
-156
-156
-156
-155
-155
-155
-153
-153
-153
-153
-151
-151
-151
-151
-150
-150
-150
-149
-149
-148
-148
-148
-148
-147
-148
-148
-148
-148
-147
-148
-148
-148
-148
-148
-148
-148
-148
-148
-148
-148
-148
-147
-147
-147
-147
-147
-147
-147
-147
-147
-147
-147
-147
-147
-147
-148
-148
-148
-148
-148
-148
-148
-147
-147
-147
-147
-147
-148
-147
-147
-148
-148
-149
-148
-148
-149
-149
-149
-149
-150
-150
-151
-151
-151
-152
-152
-153
-153
-153
-154
-155
-155
-155
-156
-157
-157
-157
-158
-158
-158
-159
-159
-160
-160
-161
-161
-161
-161
-162
-162
-162
-163
-163
-163
-164
-164
-164
-164
-165
-165
-165
-165
-166
-166
-166
-166
-168
-168
-168
-169
-169
-170
-170
-170
-171
-172
-172
-172
-172
-173
-174
-175
-175
-175
-177
-177
-177
-177
-179
-179
-179
-179
-181
-181
-181
-182
-182
-183
-183
-184
-184
-186
-186
-186
-186
-187
-188
-189
-189
-189
-190
-190
-191
-192
-192
-192
-193
-193
-193
-194
-194
-194
-195
-196
-196
-196
-196
-196
-196
-197
-197
-197
-198
-197
-197
-197
-197
-198
-198
-197
-198
-198
-198
-198
-198
-198
-198
-198
-199
-199
-199
-199
-199
-199
-199
-199
-199
-198
-199
-199
-199
-198
-199
-199
-199
-199
-198
-198
-198
-198
-198
-198
-198
-198
-198
-197
-197
-197
-197
-197
-197
-197
-197
-196
-196
-196
-196
-197
-197
-197
-196
-196
-196
-196
-196
-196
-196
-196
-196
-196
-196
-196
-195
-195
-195
-195
-194
-194
-194
-194
-194
-194
-194
-194
-194
-194
-194
-194
-194
-193
-193
-194
-194
-194
-193
-193
-193
-193
-193
-193
-193
-193
-194
-193
-193
-193
-193
-193
-192
-192
-192
-193
-193
-193
-193
-193
-193
-192
-192
-192
-192
-193
-193
-192
-192
-192
-192
-192
-193
-193
-193
-193
-193
-194
-194
-194
-194
-194
-194
-194
-195
-195
-195
-195
-196
-196
-196
-196
-196
-196
-195
-196
-196
-196
-196
-196
-196
-196
-196
-196
-195
-195
-195
-195
-195
-195
-195
-195
-196
-196
-196
-196
-196
-197
-197
-197
-197
-198
-198
-198
-198
-198
-199
-199
-199
-199
-199
-200
-200
-200
-200
-200
-200
-200
-200
-201
-201
-201
-201
-201
-201
-201
-201
-201
-201
-201
-202
-202
-202
-202
-202
-202
-202
-202
-202
-202
-202
-202
-202
-203
-203
-203
-203
-203
-202
-202
-202
-203
-203
-203
-203
-202
-203
-203
-203
-203
-203
-203
-204
-203
-204
-204
-204
-204
-204
-205
-205
-205
-205
-205
-205
-205
-205
-206
-205
-205
-205
-206
-206
-205
-205
-205
-205
-206
-206
-206
-206
-206
-206
-207
-207
-207
-207
-207
-207
-207
-207
-207
-207
-207
-208
-208
-207
-207
-207
-207
-207
-207
-206
-206
-206
-205
-205
-204
-204
-203
-203
-202
-202
-201
-201
-200
-200
-199
-199
-198
-197
-197
-197
-196
-196
-195
-195
-194
-194
-195
-194
-194
-194
-193
-193
-194
-193
-193
-193
-193
-193
-193
-193
-193
-193
-193
-192
-192
-193
-193
-193
-193
-193
-192
-192
-193
-193
-192
-192
-192
-192
-191
-192
-191
-192
-191
-191
-192
-191
-192
-191
-191
-191
-191
-191
-192
-191
-192
-192
-192
-193
-193
-194
-194
-195
-195
-195
-196
-197
-198
-199
-199
-200
-200
-201
-202
-202
-203
-204
-204
-205
-206
-206
-207
-206
-207
-208
-207
-208
-208
-208
-208
-209
-209
-209
-209
-210
-209
-210
-210
-210
-211
-210
-211
-211
-211
-212
-212
-213
-213
-213
-213
-214
-214
-214
-215
-215
-215
-215
-215
-215
-215
-216
-216
-216
-216
-216
-216
-216
-216
-216
-216
-216
-216
-217
-217
-217
-217
-217
-218
-218
-218
-218
-218
-219
-219
-219
-219
-219
-219
-220
-220
-219
-219
-219
-218
-218
-218
-218
-218
-218
-218
-218
-218
-218
-217
-217
-217
-217
-217
-216
-216
-216
-216
-216
-215
-215
-214
-214
-214
-214
-213
-213
-212
-211
-211
-209
-208
-207
-205
-203
-202
-199
-196
-194
-191
-190
-186
-183
-179
-175
-171
-165
-161
-156
-151
-146
-141
-136
-130
-125
-119
-114
-109
-103
-100
-96
-93
-91
-90
-90
-91
-94
-98
-103
-111
-120
-131
-143
-158
-173
-190
-209
-228
-250
-272
-294
-316
-339
-361
-381
-402
-422
-439
-457
-472
-485
-496
-506
-512
-517
-520
-522
-521
-518
-515
-509
-502
-493
-484
-473
-462
-451
-440
-427
-414
-402
-390
-377
-365
-353
-340
-329
-319
-309
-298
-290
-280
-273
-265
-258
-251
-246
-240
-236
-231
-227
-224
-221
-218
-216
-214
-213
-211
-210
-209
-208
-208
-207
-206
-206
-205
-205
-205
-204
-204
-204
-204
-204
-204
-204
-203
-203
-203
-203
-202
-203
-203
-202
-202
-201
-201
-201
-201
-200
-200
-200
-200
-200
-199
-199
-199
-199
-199
-199
-197
-197
-197
-197
-197
-197
-197
-197
-197
-197
-196
-196
-196
-197
-197
-197
-197
-196
-196
-196
-197
-197
-197
-197
-197
-197
-197
-197
-197
-197
-197
-197
-196
-196
-196
-196
-196
-196
-195
-195
-195
-196
-195
-194
-194
-194
-194
-194
-193
-193
-193
-193
-192
-192
-192
-193
-193
-192
-192
-191
-191
-191
-191
-192
-192
-192
-192
-191
-191
-191
-191
-191
-191
-191
-191
-191
-190
-190
-190
-190
-191
-191
-190
-190
-190
-190
-190
-189
-189
-190
-190
-190
-190
-190
-190
-189
-189
-189
-189
-189
-189
-189
-189
-188
-188
-188
-188
-187
-187
-186
-186
-186
-186
-186
-185
-185
-185
-184
-184
-184
-184
-184
-184
-183
-183
-182
-182
-182
-182
-182
-182
-182
-182
-182
-182
-182
-182
-182
-181
-181
-181
-181
-180
-180
-180
-180
-180
-180
-180
-179
-179
-179
-179
-179
-179
-179
-178
-178
-178
-178
-178
-178
-177
-177
-177
-177
-176
-175
-175
-175
-174
-174
-174
-173
-173
-173
-172
-171
-171
-171
-171
-171
-170
-170
-170
-170
-170
-170
-169
-170
-169
-169
-169
-169
-168
-168
-168
-168
-168
-167
-167
-167
-166
-166
-166
-164
-164
-164
-163
-163
-163
-162
-162
-161
-161
-161
-160
-160
-159
-158
-158
-158
-158
-157
-157
-157
-155
-155
-155
-155
-155
-154
-154
-154
-154
-154
-153
-153
-153
-153
-152
-152
-152
-152
-151
-151
-151
-151
-150
-150
-151
-151
-150
-150
-150
-149
-149
-148
-149
-149
-149
-148
-149
-149
-149
-150
-149
-150
-150
-150
-151
-151
-152
-152
-152
-152
-153
-153
-154
-155
-155
-156
-156
-157
-157
-158
-158
-158
-158
-158
-158
-158
-159
-159
-159
-159
-160
-160
-160
-161
-161
-161
-161
-162
-162
-162
-162
-163
-163
-163
-163
-163
-163
-164
-164
-164
-164
-164
-165
-165
-165
-165
-165
-166
-166
-167
-167
-167
-168
-168
-169
-170
-170
-170
-171
-172
-172
-173
-173
-175
-176
-176
-177
-177
-178
-178
-179
-180
-181
-181
-181
-183
-183
-183
-183
-184
-185
-185
-185
-186
-187
-187
-187
-188
-188
-189
-189
-189
-189
-191
-191
-191
-191
-192
-192
-192
-193
-193
-193
-194
-195
-195
-195
-196
-196
-196
-197
-197
-197
-197
-197
-197
-198
-198
-198
-198
-198
-198
-199
-199
-199
-199
-200
-199
-199
-199
-200
-200
-200
-200
-201
-201
-201
-201
-201
-201
-201
-201
-201
-201
-201
-202
-202
-202
-202
-202
-201
-201
-201
-201
-201
-201
-200
-200
-200
-200
-200
-200
-201
-201
-201
-201
-200
-200
-199
-199
-199
-199
-199
-199
-198
-198
-198
-198
-198
-197
-198
-198
-198
-197
-197
-195
-195
-195
-195
-194
-194
-194
-194
-194
-194
-194
-194
-193
-192
-192
-192
-192
-193
-193
-193
-193
-193
-193
-193
-193
-193
-193
-193
-193
-194
-194
-194
-194
-194
-194
-194
-194
-194
-193
-192
-192
-192
-192
-192
-192
-192
-192
-191
-191
-191
-191
-191
-191
-191
-191
-191
-191
-191
-190
-190
-191
-191
-191
-191
-191
-191
-191
-191
-191
-191
-191
-191
-190
-190
-190
-190
-190
-190
-191
-191
-191
-191
-191
-190
-190
-190
-190
-190
-190
-190
-190
-190
-191
-191
-191
-191
-191
-191
-191
-191
-190
-190
-190
-191
-191
-191
-191
-191
-191
-191
-191
-191
-191
-191
-191
-191
-191
-192
-192
-192
-192
-192
-192
-192
-192
-193
-194
-194
-194
-194
-194
-194
-194
-194
-195
-195
-195
-195
-195
-195
-195
-196
-196
-196
-195
-195
-195
-196
-196
-195
-195
-195
-195
-195
-195
-196
-197
-197
-197
-197
-197
-197
-198
-198
-198
-198
-198
-199
-199
-199
-198
-199
-199
-199
-199
-199
-199
-199
-199
-199
-199
-199
-199
-199
-199
-199
-199
-199
-199
-199
-199
-199
-199
-199
-199
-199
-199
-199
-199
-199
-199
-199
-199
-199
-198
-198
-197
-197
-197
-196
-196
-196
-195
-194
-194
-193
-193
-192
-191
-190
-190
-189
-189
-188
-188
-187
-187
-186
-186
-185
-185
-185
-185
-185
-184
-184
-183
-183
-183
-182
-183
-182
-182
-182
-182
-182
-182
-182
-181
-182
-181
-181
-181
-182
-182
-181
-182
-182
-181
-181
-182
-181
-181
-181
-181
-181
-181
-181
-180
-181
-180
-180
-181
-181
-180
-180
-181
-181
-181
-181
-181
-182
-182
-182
-183
-183
-184
-184
-185
-186
-187
-187
-188
-188
-189
-190
-190
-191
-192
-192
-193
-194
-194
-194
-195
-196
-195
-195
-196
-195
-195
-196
-195
-195
-196
-195
-195
-196
-196
-195
-195
-196
-196
-197
-197
-198
-198
-199
-199
-200
-200
-201
-202
-202
-203
-204
-205
-205
-206
-206
-206
-207
-207
-207
-208
-208
-208
-207
-207
-207
-207
-207
-207
-207
-207
-207
-207
-207
-207
-207
-207
-206
-206
-206
-206
-205
-205
-205
-205
-206
-206
-206
-206
-206
-206
-206
-206
-205
-205
-205
-206
-206
-206
-206
-205
-205
-205
-205
-205
-205
-205
-205
-204
-204
-204
-204
-204
-204
-203
-203
-203
-203
-202
-201
-201
-200
-200
-199
-198
-198
-196
-195
-193
-192
-190
-188
-185
-184
-182
-179
-176
-173
-169
-166
-162
-158
-154
-149
-144
-140
-135
-130
-125
-121
-115
-111
-105
-100
-96
-92
-89
-87
-85
-85
-85
-85
-88
-92
-97
-104
-113
-123
-135
-149
-163
-181
-199
-217
-238
-259
-281
-302
-324
-345
-366
-387
-406
-424
-441
-455
-469
-479
-490
-497
-502
-505
-507
-506
-503
-500
-494
-487
-479
-469
-460
-449
-438
-425
-413
-401
-389
-376
-364
-351
-339
-327
-317
-306
-295
-285
-276
-268
-260
-252
-246
-239
-233
-227
-223
-218
-214
-210
-207
-204
-202
-199
-197
-196
-195
-193
-192
-192
-191
-191
-189
-189
-188
-189
-189
-188
-188
-187
-188
-188
-187
-187
-187
-187
-187
-186
-186
-186
-185
-185
-185
-184
-184
-184
-184
-184
-183
-183
-183
-182
-182
-182
-182
-181
-181
-181
-181
-181
-180
-180
-180
-180
-180
-180
-180
-180
-180
-179
-180
-180
-180
-180
-179
-179
-179
-179
-179
-179
-179
-179
-179
-178
-178
-178
-178
-178
-178
-178
-179
-179
-179
-179
-179
-179
-179
-179
-179
-179
-179
-180
-180
-180
-180
-179
-179
-179
-179
-179
-179
-179
-179
-179
-178
-178
-178
-178
-178
-177
-177
-177
-177
-177
-177
-177
-177
-177
-177
-177
-177
-177
-177
-177
-177
-177
-177
-176
-176
-176
-176
-176
-176
-175
-174
-174
-174
-174
-174
-174
-174
-174
-174
-173
-173
-173
-173
-173
-173
-172
-172
-172
-172
-172
-172
-172
-172
-172
-171
-171
-171
-171
-171
-171
-171
-171
-171
-171
-171
-171
-171
-170
-170
-170
-170
-170
-170
-170
-170
-169
-169
-169
-169
-168
-168
-168
-168
-168
-167
-167
-167
-167
-167
-166
-166
-166
-166
-166
-166
-165
-165
-164
-164
-164
-164
-163
-162
-162
-162
-162
-162
-160
-160
-160
-160
-160
-160
-160
-160
-158
-158
-158
-158
-158
-158
-158
-157
-157
-156
-156
-156
-156
-156
-156
-155
-155
-154
-154
-153
-153
-153
-153
-152
-152
-152
-151
-150
-150
-149
-149
-149
-149
-147
-147
-147
-147
-146
-145
-145
-145
-145
-144
-144
-143
-143
-143
-142
-141
-141
-141
-141
-140
-140
-139
-138
-138
-138
-137
-137
-136
-136
-136
-136
-136
-135
-135
-135
-135
-135
-134
-134
-134
-134
-133
-133
-132
-132
-132
-131
-131
-131
-131
-131
-131
-131
-130
-130
-130
-130
-130
-130
-130
-130
-131
-131
-130
-130
-132
-131
-131
-132
-133
-133
-134
-135
-135
-135
-136
-136
-137
-137
-138
-138
-139
-139
-140
-140
-140
-141
-141
-140
-140
-141
-141
-141
-141
-141
-141
-141
-141
-142
-141
-141
-142
-142
-142
-142
-143
-143
-143
-143
-143
-144
-145
-145
-146
-146
-146
-147
-147
-147
-149
-149
-149
-150
-150
-151
-152
-153
-153
-154
-154
-154
-155
-157
-157
-158
-158
-159
-159
-160
-160
-161
-162
-162
-163
-163
-164
-164
-165
-165
-165
-166
-166
-167
-167
-167
-168
-169
-169
-170
-170
-170
-171
-172
-172
-172
-172
-173
-174
-174
-174
-174
-174
-176
-176
-176
-176
-176
-176
-176
-176
-176
-177
-177
-177
-178
-178
-178
-179
-179
-179
-179
-180
-180
-180
-180
-181
-181
-182
-182
-182
-183
-183
-183
-183
-183
-184
-185
-185
-185
-185
-185
-184
-184
-185
-185
-185
-185
-185
-185
-184
-184
-184
-184
-184
-184
-184
-184
-183
-183
-183
-183
-183
-183
-183
-183
-183
-183
-182
-182
-182
-182
-182
-182
-182
-182
-182
-182
-182
-182
-182
-182
-182
-182
-182
-182
-181
-181
-181
-181
-181
-180
-180
-180
-181
-181
-180
-180
-180
-180
-180
-180
-180
-179
-178
-178
-178
-179
-179
-179
-178
-178
-178
-178
-177
-177
-178
-178
-177
-177
-177
-177
-176
-176
-176
-176
-176
-176
-175
-175
-175
-175
-175
-175
-175
-175
-173
-173
-173
-173
-173
-173
-173
-173
-173
-173
-173
-173
-173
-173
-173
-173
-174
-174
-174
-174
-175
-175
-175
-175
-175
-175
-175
-176
-176
-176
-176
-176
-176
-176
-176
-176
-176
-175
-176
-176
-175
-175
-175
-175
-175
-175
-175
-175
-176
-176
-176
-176
-176
-176
-176
-176
-176
-176
-176
-176
-176
-176
-176
-176
-176
-176
-176
-176
-176
-176
-176
-176
-176
-176
-176
-176
-176
-176
-176
-176
-175
-175
-176
-176
-176
-176
-176
-176
-176
-176
-176
-176
-176
-176
-176
-176
-176
-176
-176
-176
-177
-177
-177
-177
-177
-177
-177
-178
-178
-178
-179
-179
-178
-178
-178
-179
-179
-179
-179
-179
-179
-180
-181
-181
-181
-181
-181
-181
-180
-180
-180
-180
-180
-180
-179
-180
-180
-180
-180
-180
-179
-179
-179
-178
-178
-177
-177
-177
-177
-177
-177
-177
-176
-176
-176
-176
-174
-174
-174
-173
-173
-173
-172
-172
-172
-171
-171
-170
-171
-170
-170
-170
-169
-169
-168
-168
-167
-167
-167
-166
-166
-166
-165
-165
-165
-165
-164
-164
-163
-163
-163
-164
-163
-163
-163
-163
-162
-162
-162
-161
-161
-161
-162
-161
-161
-160
-161
-160
-161
-160
-160
-161
-160
-161
-160
-161
-160
-161
-161
-162
-161
-162
-162
-162
-163
-163
-163
-163
-164
-165
-165
-165
-166
-166
-166
-167
-168
-168
-169
-169
-170
-171
-172
-172
-172
-173
-173
-174
-175
-174
-175
-175
-175
-175
-175
-175
-175
-176
-175
-176
-176
-176
-176
-176
-177
-177
-177
-177
-178
-178
-179
-180
-180
-181
-182
-181
-182
-182
-183
-184
-184
-184
-185
-186
-186
-186
-186
-186
-186
-186
-186
-186
-187
-187
-187
-187
-186
-186
-186
-186
-186
-186
-186
-186
-186
-186
-186
-186
-186
-186
-186
-186
-185
-185
-185
-185
-185
-185
-185
-185
-185
-185
-184
-184
-184
-183
-183
-183
-183
-183
-183
-182
-182
-182
-182
-183
-183
-183
-183
-182
-182
-182
-182
-182
-181
-181
-181
-181
-180
-180
-179
-179
-178
-177
-177
-176
-174
-174
-172
-170
-169
-167
-164
-162
-160
-157
-153
-150
-146
-143
-139
-134
-130
-125
-121
-116
-112
-107
-101
-97
-93
-88
-83
-80
-76
-72
-70
-69
-68
-68
-70
-72
-76
-81
-87
-96
-107
-118
-132
-146
-162
-179
-198
-217
-237
-258
-279
-300
-322
-342
-361
-379
-397
-413
-428
-440
-452
-461
-468
-474
-477
-478
-477
-476
-472
-466
-459
-452
-443
-433
-423
-411
-399
-387
-376
-363
-351
-339
-327
-315
-303
-291
-281
-271
-261
-251
-242
-234
-227
-220
-213
-207
-202
-197
-193
-189
-185
-183
-179
-177
-175
-174
-172
-170
-169
-168
-168
-167
-166
-166
-166
-165
-165
-164
-164
-164
-164
-164
-164
-164
-164
-164
-164
-163
-163
-163
-163
-162
-162
-162
-162
-162
-162
-162
-161
-161
-161
-160
-160
-160
-160
-159
-159
-159
-159
-159
-158
-158
-158
-158
-158
-158
-158
-158
-157
-157
-157
-157
-157
-157
-157
-157
-157
-156
-156
-156
-156
-156
-156
-156
-156
-156
-155
-155
-155
-155
-155
-156
-156
-155
-155
-155
-155
-155
-155
-155
-155
-155
-155
-154
-154
-153
-153
-153
-153
-153
-153
-154
-154
-154
-153
-153
-153
-153
-153
-153
-152
-153
-153
-153
-153
-153
-153
-153
-153
-153
-153
-153
-153
-152
-152
-152
-152
-152
-152
-152
-152
-151
-151
-151
-151
-150
-150
-150
-150
-150
-150
-149
-149
-149
-149
-149
-149
-149
-148
-148
-148
-148
-148
-148
-148
-148
-148
-147
-147
-147
-147
-147
-147
-146
-145
-145
-145
-144
-144
-144
-144
-144
-144
-143
-143
-143
-143
-143
-143
-143
-143
-143
-143
-143
-143
-143
-143
-143
-142
-142
-142
-142
-141
-141
-141
-141
-141
-141
-141
-141
-141
-140
-140
-140
-140
-140
-139
-139
-139
-139
-139
-138
-137
-137
-137
-136
-136
-135
-135
-135
-135
-135
-134
-134
-133
-133
-132
-132
-132
-132
-131
-130
-130
-130
-130
-130
-129
-129
-128
-128
-128
-128
-127
-126
-126
-126
-126
-126
-124
-124
-124
-124
-124
-124
-123
-122
-122
-122
-122
-121
-121
-120
-120
-120
-119
-119
-119
-117
-117
-117
-116
-116
-115
-115
-114
-114
-113
-113
-112
-111
-111
-110
-110
-109
-109
-108
-108
-107
-108
-107
-107
-106
-106
-105
-105
-105
-105
-105
-104
-104
-103
-103
-104
-103
-103
-103
-102
-102
-101
-102
-102
-101
-101
-101
-101
-101
-100
-100
-99
-100
-100
-99
-100
-100
-100
-99
-100
-100
-99
-100
-100
-100
-100
-100
-101
-101
-101
-101
-102
-102
-102
-102
-103
-103
-103
-103
-103
-103
-103
-104
-104
-104
-104
-104
-104
-104
-104
-106
-106
-106
-106
-106
-106
-106
-106
-106
-107
-107
-107
-107
-107
-108
-108
-109
-109
-110
-110
-110
-110
-111
-111
-111
-113
-113
-113
-114
-114
-116
-116
-116
-117
-118
-118
-118
-118
-120
-120
-120
-120
-121
-122
-122
-122
-123
-124
-124
-124
-124
-124
-126
-126
-126
-127
-127
-127
-129
-129
-129
-130
-130
-130
-130
-131
-131
-132
-133
-133
-133
-133
-133
-134
-135
-135
-135
-135
-136
-136
-136
-136
-136
-136
-137
-137
-137
-137
-137
-137
-137
-137
-137
-137
-137
-137
-137
-137
-137
-138
-138
-138
-138
-138
-138
-137
-137
-137
-137
-137
-137
-137
-137
-137
-137
-137
-137
-138
-138
-138
-138
-138
-138
-138
-138
-138
-138
-138
-139
-139
-139
-138
-138
-138
-138
-138
-138
-138
-138
-138
-138
-138
-138
-138
-138
-138
-137
-137
-137
-137
-137
-137
-137
-137
-137
-137
-137
-137
-137
-137
-137
-137
-136
-136
-136
-136
-136
-136
-136
-135
-135
-135
-135
-135
-135
-134
-134
-134
-134
-134
-133
-133
-133
-133
-133
-133
-132
-132
-132
-132
-132
-132
-132
-132
-132
-132
-132
-132
-132
-132
-132
-131
-131
-131
-131
-131
-131
-131
-131
-131
-131
-131
-131
-130
-130
-130
-130
-130
-130
-130
-130
-130
-130
-130
-131
-131
-131
-131
-131
-131
-131
-131
-131
-131
-131
-131
-131
-131
-131
-131
-131
-131
-131
-131
-131
-131
-131
-131
-131
-131
-131
-131
-131
-131
-131
-131
-131
-131
-131
-130
-130
-130
-130
-130
-130
-130
-130
-130
-130
-130
-130
-131
-131
-131
-131
-131
-131
-131
-131
-133
-133
-133
-133
-133
-133
-133
-133
-133
-133
-133
-134
-134
-134
-134
-134
-134
-134
-134
-134
-135
-135
-135
-135
-135
-135
-135
-135
-135
-135
-135
-135
-135
-135
-137
-137
-137
-137
-137
-137
-137
-137
-136
-136
-136
-136
-137
-137
-137
-137
-137
-137
-137
-137
-137
-136
-136
-136
-137
-137
-137
-137
-137
-136
-136
-136
-137
-137
-137
-137
-137
-136
-136
-136
-136
-136
-136
-136
-136
-135
-135
-135
-134
-134
-133
-133
-132
-132
-131
-131
-130
-129
-129
-129
-128
-127
-127
-126
-126
-125
-125
-125
-124
-123
-124
-124
-123
-123
-123
-122
-122
-122
-122
-121
-121
-121
-121
-121
-120
-120
-120
-120
-119
-119
-119
-120
-120
-120
-119
-119
-119
-119
-119
-119
-119
-119
-119
-119
-120
-120
-120
-120
-120
-121
-121
-121
-122
-121
-122
-123
-123
-124
-124
-124
-124
-125
-126
-126
-126
-126
-127
-127
-128
-128
-130
-130
-130
-131
-130
-131
-131
-132
-132
-133
-133
-134
-133
-134
-134
-134
-134
-134
-135
-134
-135
-134
-134
-135
-134
-134
-135
-134
-135
-135
-136
-136
-136
-137
-138
-138
-138
-138
-139
-140
-141
-141
-142
-142
-143
-143
-143
-144
-144
-144
-144
-145
-145
-144
-145
-145
-145
-144
-144
-144
-144
-144
-144
-144
-144
-144
-145
-145
-145
-145
-145
-145
-145
-145
-145
-145
-145
-145
-145
-145
-144
-144
-144
-145
-145
-145
-145
-145
-145
-145
-145
-144
-144
-144
-144
-144
-144
-144
-144
-144
-144
-144
-144
-144
-144
-144
-144
-144
-144
-144
-144
-144
-143
-143
-143
-142
-142
-142
-141
-140
-139
-138
-136
-134
-133
-131
-128
-125
-122
-120
-117
-114
-110
-106
-102
-98
-94
-89
-85
-80
-76
-72
-67
-63
-58
-55
-50
-47
-44
-41
-40
-39
-38
-38
-40
-43
-47
-53
-60
-68
-79
-91
-104
-118
-133
-151
-169
-188
-208
-228
-249
-269
-290
-310
-328
-347
-363
-379
-394
-406
-417
-426
-433
-437
-441
-442
-440
-438
-434
-429
-422
-414
-405
-395
-384
-374
-362
-350
-338
-326
-314
-302
-290
-278
-267
-256
-245
-235
-226
-216
-208
-200
-192
-186
-179
-174
-168
-163
-159
-154
-151
-147
-145
-143
-140
-139
-137
-135
-134
-134
-133
-133
-132
-133
-133
-133
-133
-132
-132
-132
-133
-133
-132
-132
-133
-133
-132
-132
-132
-132
-131
-131
-131
-130
-130
-130
-130
-129
-129
-129
-129
-128
-128
-128
-128
-127
-126
-126
-126
-126
-126
-126
-126
-126
-126
-126
-126
-126
-127
-127
-126
-126
-126
-126
-126
-126
-126
-126
-126
-126
-126
-126
-126
-126
-126
-126
-125
-125
-125
-125
-124
-124
-124
-124
-124
-124
-124
-124
-124
-125
-125
-125
-125
-125
-125
-124
-124
-124
-124
-124
-124
-124
-125
-125
-125
-125
-124
-124
-123
-123
-123
-123
-123
-123
-122
-122
-122
-122
-122
-122
-121
-121
-121
-121
-121
-121
-121
-121
-121
-119
-119
-119
-119
-119
-119
-119
-119
-119
-119
-119
-119
-118
-118
-118
-118
-118
-118
-118
-118
-118
-118
-118
-118
-118
-118
-118
-118
-118
-118
-118
-118
-117
-116
-116
-116
-116
-116
-116
-116
-115
-115
-115
-116
-116
-116
-115
-115
-115
-115
-115
-115
-115
-115
-115
-114
-114
-114
-113
-113
-113
-113
-113
-113
-113
-112
-112
-112
-112
-112
-112
-112
-112
-112
-111
-111
-111
-111
-111
-111
-110
-110
-110
-109
-109
-109
-108
-108
-108
-107
-106
-106
-106
-106
-106
-105
-105
-104
-104
-104
-103
-103
-102
-102
-101
-101
-101
-101
-101
-101
-99
-99
-99
-99
-98
-98
-97
-97
-97
-96
-96
-95
-95
-94
-93
-93
-93
-93
-92
-92
-92
-90
-90
-90
-90
-89
-89
-89
-88
-88
-87
-86
-86
-86
-86
-86
-85
-86
-85
-85
-85
-85
-85
-85
-85
-85
-85
-84
-84
-85
-85
-84
-84
-84
-84
-84
-84
-84
-83
-83
-83
-83
-82
-83
-83
-82
-82
-81
-81
-81
-81
-82
-81
-81
-81
-81
-82
-82
-82
-82
-81
-82
-82
-82
-82
-83
-83
-83
-83
-84
-84
-84
-85
-85
-85
-85
-86
-86
-85
-86
-86
-87
-87
-88
-88
-88
-88
-89
-89
-89
-89
-89
-90
-90
-90
-91
-92
-92
-92
-92
-93
-93
-93
-93
-94
-94
-94
-94
-95
-95
-95
-95
-95
-96
-96
-96
-97
-98
-98
-98
-98
-99
-99
-100
-100
-101
-101
-102
-103
-103
-104
-105
-105
-106
-106
-108
-108
-109
-110
-110
-112
-112
-112
-114
-114
-114
-115
-116
-117
-117
-117
-119
-119
-119
-120
-121
-121
-121
-122
-122
-122
-122
-123
-123
-124
-124
-124
-124
-124
-125
-125
-125
-125
-125
-126
-126
-126
-127
-127
-127
-128
-128
-128
-128
-128
-129
-129
-129
-129
-130
-130
-131
-131
-132
-132
-132
-133
-133
-133
-133
-133
-133
-133
-134
-134
-134
-134
-134
-134
-134
-134
-134
-134
-133
-133
-133
-133
-132
-132
-132
-132
-132
-131
-131
-131
-131
-131
-131
-131
-131
-131
-131
-131
-132
-132
-132
-132
-132
-132
-133
-133
-133
-133
-133
-133
-134
-134
-134
-134
-134
-134
-134
-134
-133
-133
-133
-133
-133
-133
-133
-132
-132
-132
-132
-132
-132
-132
-132
-132
-132
-131
-131
-131
-131
-131
-131
-131
-130
-130
-130
-130
-129
-129
-129
-129
-128
-128
-128
-128
-128
-128
-127
-127
-127
-127
-128
-128
-128
-128
-128
-128
-127
-127
-128
-128
-128
-127
-127
-128
-129
-129
-128
-128
-128
-128
-128
-128
-128
-128
-128
-128
-128
-128
-128
-128
-127
-127
-127
-127
-127
-127
-127
-127
-127
-127
-127
-127
-127
-127
-127
-127
-127
-127
-127
-127
-126
-126
-126
-126
-126
-127
-127
-127
-127
-127
-127
-127
-127
-127
-127
-127
-127
-127
-127
-128
-128
-128
-128
-128
-128
-128
-128
-128
-128
-128
-128
-128
-128
-129
-129
-129
-130
-130
-130
-130
-130
-130
-131
-131
-131
-131
-132
-133
-133
-133
-133
-134
-134
-134
-134
-134
-134
-134
-134
-134
-134
-134
-134
-134
-133
-133
-133
-133
-133
-133
-132
-132
-132
-132
-132
-133
-133
-133
-133
-133
-133
-133
-133
-133
-133
-134
-135
-135
-135
-135
-135
-136
-137
-137
-137
-137
-137
-138
-138
-138
-138
-138
-138
-138
-138
-139
-139
-138
-138
-138
-138
-138
-138
-137
-137
-136
-136
-136
-135
-135
-134
-134
-133
-133
-132
-132
-131
-131
-130
-130
-129
-129
-128
-128
-128
-127
-126
-126
-126
-126
-126
-125
-125
-124
-124
-124
-123
-123
-123
-122
-122
-122
-122
-121
-121
-121
-120
-120
-120
-119
-119
-119
-119
-119
-119
-119
-118
-118
-119
-118
-118
-118
-118
-118
-119
-118
-119
-119
-120
-120
-120
-121
-121
-122
-122
-123
-123
-125
-125
-125
-126
-126
-126
-128
-128
-128
-128
-130
-130
-130
-130
-130
-130
-130
-131
-131
-132
-132
-132
-133
-133
-132
-133
-133
-134
-134
-135
-134
-135
-136
-136
-136
-137
-137
-137
-138
-138
-139
-139
-139
-140
-140
-141
-141
-141
-141
-142
-142
-143
-143
-142
-143
-143
-143
-144
-144
-145
-145
-145
-145
-145
-146
-146
-147
-147
-147
-148
-148
-148
-148
-148
-149
-149
-149
-149
-149
-149
-149
-149
-149
-149
-149
-150
-150
-150
-150
-150
-150
-150
-150
-150
-150
-150
-150
-150
-150
-150
-150
-150
-150
-150
-149
-149
-149
-149
-149
-149
-149
-149
-149
-149
-149
-149
-149
-149
-149
-149
-149
-149
-149
-150
-150
-150
-150
-149
-149
-149
-149
-148
-148
-147
-147
-147
-146
-144
-144
-142
-141
-140
-137
-136
-134
-131
-128
-125
-122
-119
-115
-112
-108
-104
-100
-95
-91
-87
-82
-77
-74
-69
-65
-61
-57
-54
-51
-49
-47
-47
-46
-47
-49
-52
-56
-63
-70
-78
-89
-101
-114
-129
-146
-162
-180
-199
-219
-239
-259
-279
-299
-319
-337
-354
-371
-386
-400
-411
-421
-429
-436
-440
-443
-444
-442
-440
-435
-430
-423
-415
-407
-397
-387
-376
-364
-353
-341
-329
-317
-306
-295
-283
-272
-261
-251
-242
-232
-223
-215
-207
-200
-193
-187
-181
-176
-172
-167
-163
-160
-157
-154
-152
-150
-148
-147
-146
-145
-143
-142
-142
-141
-140
-140
-139
-139
-140
-139
-139
-138
-137
-138
-138
-138
-137
-137
-137
-137
-137
-137
-137
-137
-137
-137
-136
-136
-136
-136
-136
-136
-136
-136
-136
-135
-136
-136
-136
-136
-136
-136
-136
-136
-136
-136
-136
-136
-136
-137
-137
-137
-137
-137
-137
-137
-137
-137
-138
-138
-138
-138
-138
-137
-137
-137
-137
-137
-137
-137
-137
-136
-136
-136
-136
-136
-136
-136
-136
-135
-135
-135
-135
-135
-135
-134
-134
-134
-134
-134
-133
-133
-133
-133
-133
-133
-133
-133
-133
-133
-133
-133
-133
-133
-133
-133
-133
-134
-134
-133
-133
-133
-133
-133
-133
-133
-133
-133
-133
-133
-133
-133
-133
-133
-132
-132
-132
-132
-132
-132
-132
-131
-131
-132
-132
-132
-132
-132
-132
-132
-132
-132
-133
-133
-133
-133
-133
-133
-133
-133
-133
-133
-133
-132
-132
-131
-131
-131
-131
-131
-131
-132
-131
-131
-131
-131
-130
-130
-130
-130
-130
-130
-129
-129
-129
-129
-129
-128
-129
-129
-129
-129
-129
-129
-128
-128
-128
-128
-128
-128
-127
-127
-127
-126
-126
-126
-126
-126
-126
-126
-126
-125
-125
-125
-125
-125
-125
-124
-124
-124
-124
-124
-124
-123
-122
-122
-122
-122
-121
-121
-121
-120
-119
-119
-118
-118
-118
-117
-116
-116
-115
-115
-115
-115
-113
-113
-113
-112
-112
-112
-112
-111
-111
-111
-111
-111
-111
-110
-110
-110
-109
-109
-109
-109
-109
-109
-108
-107
-107
-107
-107
-106
-105
-105
-105
-104
-104
-104
-104
-104
-103
-103
-103
-103
-102
-102
-102
-102
-103
-103
-103
-102
-102
-102
-102
-102
-102
-102
-101
-102
-101
-101
-102
-102
-102
-102
-102
-102
-102
-102
-102
-102
-102
-103
-103
-103
-103
-104
-103
-103
-103
-104
-104
-103
-103
-103
-104
-104
-103
-104
-104
-104
-104
-104
-104
-104
-105
-104
-104
-105
-105
-105
-106
-106
-106
-106
-106
-107
-107
-107
-107
-107
-107
-108
-108
-108
-109
-109
-109
-109
-109
-109
-109
-110
-110
-110
-110
-111
-111
-111
-112
-113
-113
-114
-114
-114
-115
-116
-116
-117
-117
-118
-119
-119
-119
-120
-120
-121
-121
-121
-122
-122
-123
-123
-123
-125
-125
-125
-126
-127
-128
-128
-129
-130
-131
-131
-133
-134
-134
-135
-135
-136
-138
-138
-139
-139
-141
-141
-141
-142
-143
-143
-143
-144
-144
-145
-145
-145
-146
-146
-147
-147
-147
-148
-148
-148
-149
-149
-149
-149
-149
-150
-150
-150
-151
-151
-151
-152
-152
-152
-152
-152
-153
-153
-153
-153
-154
-153
-153
-153
-154
-154
-154
-155
-155
-155
-155
-155
-155
-155
-155
-154
-154
-154
-154
-155
-155
-155
-155
-155
-155
-155
-155
-155
-155
-155
-155
-155
-155
-155
-155
-154
-154
-154
-154
-154
-153
-153
-153
-153
-154
-154
-154
-154
-154
-154
-154
-154
-154
-153
-153
-153
-154
-154
-154
-154
-154
-154
-154
-154
-153
-153
-153
-153
-154
-154
-154
-154
-154
-154
-155
-154
-154
-154
-154
-154
-155
-154
-154
-154
-154
-154
-154
-154
-154
-154
-154
-154
-154
-154
-154
-154
-154
-153
-153
-153
-153
-154
-154
-154
-154
-154
-154
-154
-154
-154
-154
-153
-153
-153
-153
-153
-153
-153
-154
-154
-153
-153
-154
-154
-154
-153
-154
-154
-154
-154
-155
-155
-155
-155
-156
-156
-156
-156
-156
-156
-156
-156
-156
-155
-156
-156
-156
-156
-156
-156
-156
-156
-155
-156
-156
-156
-157
-157
-157
-157
-157
-157
-157
-157
-157
-157
-158
-158
-158
-158
-158
-158
-158
-158
-158
-159
-159
-159
-159
-159
-159
-159
-159
-159
-160
-160
-160
-161
-161
-161
-161
-161
-161
-162
-162
-162
-163
-163
-163
-163
-163
-163
-163
-165
-165
-165
-165
-165
-165
-165
-165
-165
-166
-166
-166
-166
-166
-166
-166
-166
-166
-167
-167
-167
-167
-167
-167
-167
-167
-167
-166
-167
-167
-167
-167
-167
-166
-166
-167
-167
-167
-167
-167
-167
-167
-168
-168
-168
-168
-169
-169
-169
-168
-169
-169
-169
-170
-171
-171
-171
-171
-171
-171
-171
-172
-172
-172
-172
-173
-173
-173
-172
-173
-173
-173
-173
-173
-172
-172
-172
-172
-172
-172
-172
-172
-172
-172
-172
-172
-171
-171
-171
-171
-170
-170
-170
-170
-170
-170
-170
-170
-169
-169
-169
-169
-168
-168
-168
-168
-167
-167
-167
-167
-166
-166
-165
-165
-166
-165
-165
-164
-164
-163
-164
-163
-163
-162
-162
-162
-161
-161
-161
-160
-160
-159
-159
-159
-159
-158
-158
-158
-158
-157
-157
-157
-157
-156
-156
-156
-156
-156
-157
-157
-157
-156
-156
-156
-156
-155
-156
-156
-155
-155
-155
-155
-156
-155
-156
-155
-156
-156
-156
-155
-156
-156
-157
-157
-157
-158
-158
-158
-159
-160
-160
-161
-161
-162
-162
-163
-164
-165
-166
-167
-168
-169
-170
-171
-172
-171
-172
-173
-174
-173
-174
-175
-175
-175
-175
-175
-175
-175
-176
-175
-175
-176
-175
-175
-176
-176
-177
-176
-177
-177
-178
-178
-179
-178
-179
-179
-180
-180
-181
-181
-181
-182
-182
-182
-183
-183
-183
-183
-183
-183
-183
-184
-185
-185
-185
-185
-185
-185
-185
-185
-185
-186
-185
-185
-185
-185
-185
-186
-186
-185
-185
-185
-185
-185
-185
-185
-185
-185
-185
-185
-184
-184
-184
-184
-184
-184
-183
-183
-183
-184
-184
-184
-184
-184
-184
-184
-184
-183
-183
-183
-183
-183
-183
-183
-182
-182
-182
-183
-182
-182
-181
-180
-180
-179
-177
-176
-175
-174
-171
-169
-167
-165
-162
-159
-158
-154
-151
-147
-143
-138
-133
-128
-124
-118
-113
-107
-102
-97
-91
-86
-81
-76
-72
-67
-64
-61
-60
-60
-60
-61
-65
-69
-75
-83
-93
-104
-117
-131
-147
-164
-182
-203
-223
-245
-266
-289
-311
-331
-352
-371
-390
-407
-423
-437
-449
-460
-468
-475
-480
-482
-483
-482
-479
-474
-470
-463
-454
-445
-434
-425
-413
-401
-390
-377
-365
-353
-340
-329
-317
-306
-295
-284
-275
-265
-256
-248
-240
-233
-226
-220
-214
-210
-204
-201
-197
-194
-191
-189
-186
-185
-183
-182
-181
-180
-180
-179
-179
-178
-178
-177
-177
-177
-176
-176
-176
-175
-175
-175
-174
-175
-175
-174
-174
-173
-173
-173
-172
-172
-172
-171
-172
-171
-171
-171
-171
-170
-170
-170
-170
-170
-170
-169
-169
-169
-169
-169
-169
-170
-170
-169
-169
-171
-171
-171
-171
-171
-171
-171
-171
-171
-172
-171
-171
-171
-171
-171
-171
-171
-171
-170
-170
-170
-170
-170
-169
-169
-169
-169
-169
-168
-168
-168
-168
-168
-167
-167
-167
-167
-167
-167
-167
-167
-168
-168
-168
-168
-168
-168
-168
-168
-167
-167
-167
-167
-168
-168
-168
-168
-168
-168
-168
-168
-168
-167
-167
-167
-167
-168
-167
-167
-167
-166
-166
-166
-166
-166
-165
-165
-165
-165
-165
-165
-165
-165
-165
-165
-165
-165
-165
-165
-165
-165
-165
-165
-165
-164
-164
-165
-165
-165
-165
-165
-165
-165
-164
-164
-164
-164
-164
-164
-164
-164
-164
-164
-164
-164
-164
-162
-162
-162
-162
-162
-161
-161
-161
-161
-160
-160
-160
-160
-160
-160
-160
-160
-160
-160
-160
-160
-160
-160
-160
-159
-159
-159
-159
-159
-159
-158
-158
-158
-158
-158
-158
-158
-157
-156
-156
-156
-156
-155
-155
-155
-155
-155
-154
-154
-153
-153
-153
-153
-153
-152
-152
-152
-151
-152
-150
-150
-150
-150
-150
-149
-149
-148
-148
-148
-148
-147
-146
-146
-146
-146
-146
-145
-145
-145
-145
-144
-144
-143
-143
-142
-142
-142
-142
-142
-142
-141
-141
-141
-141
-141
-141
-141
-141
-140
-139
-139
-139
-138
-138
-137
-137
-137
-137
-137
-136
-136
-136
-135
-135
-135
-135
-134
-135
-134
-134
-133
-134
-134
-133
-133
-132
-132
-133
-132
-132
-132
-132
-133
-133
-132
-133
-133
-133
-134
-133
-133
-133
-134
-134
-134
-134
-135
-135
-135
-136
-136
-136
-136
-137
-137
-137
-137
-138
-138
-138
-139
-139
-139
-139
-139
-140
-140
-140
-140
-140
-140
-140
-140
-140
-140
-140
-140
-141
-141
-141
-142
-142
-142
-143
-144
-144
-144
-145
-145
-146
-147
-147
-147
-148
-148
-149
-149
-150
-150
-151
-151
-151
-152
-152
-153
-154
-153
-154
-154
-155
-155
-156
-156
-157
-157
-157
-159
-159
-159
-159
-161
-161
-161
-161
-161
-163
-163
-163
-163
-165
-165
-165
-165
-165
-167
-167
-167
-168
-169
-169
-169
-169
-171
-171
-172
-172
-173
-174
-174
-175
-175
-176
-176
-177
-177
-177
-178
-178
-179
-179
-179
-180
-180
-180
-180
-181
-182
-182
-182
-182
-182
-183
-183
-183
-183
-183
-183
-184
-184
-184
-184
-184
-184
-185
-185
-185
-185
-185
-185
-185
-184
-184
-185
-185
-184
-184
-185
-185
-184
-184
-184
-185
-184
-184
-184
-184
-184
-184
-184
-184
-184
-184
-185
-185
-184
-184
-184
-184
-184
-184
-184
-183
-184
-184
-184
-182
-182
-182
-182
-182
-182
-182
-182
-181
-181
-181
-181
-181
-181
-181
-181
-181
-181
-181
-181
-181
-181
-181
-181
-181
-181
-181
-180
-180
-180
-180
-180
-180
-180
-180
-179
-179
-179
-179
-179
-179
-179
-179
-179
-179
-179
-179
-179
-179
-179
-179
-179
-179
-179
-179
-179
-179
-179
-178
-177
-177
-177
-177
-177
-177
-177
-177
-176
-176
-176
-176
-176
-176
-176
-177
-177
-177
-177
-177
-176
-176
-177
-177
-177
-176
-176
-176
-177
-177
-177
-177
-177
-177
-177
-177
-177
-177
-178
-178
-178
-178
-178
-180
-179
-179
-179
-179
-180
-180
-180
-180
-180
-180
-181
-181
-181
-181
-182
-182
-182
-182
-182
-183
-183
-183
-183
-183
-184
-184
-184
-184
-184
-184
-184
-184
-185
-185
-185
-185
-185
-185
-185
-186
-186
-186
-186
-186
-186
-186
-186
-186
-186
-186
-186
-186
-186
-185
-185
-185
-186
-186
-186
-187
-187
-187
-187
-187
-187
-187
-187
-187
-187
-188
-188
-188
-188
-188
-189
-189
-189
-189
-189
-189
-189
-190
-190
-190
-190
-190
-190
-190
-190
-190
-190
-190
-190
-190
-190
-190
-190
-190
-190
-190
-190
-190
-190
-190
-190
-190
-190
-190
-190
-190
-190
-190
-190
-190
-190
-190
-190
-190
-190
-190
-190
-190
-190
-190
-190
-190
-191
-191
-191
-191
-191
-191
-190
-190
-190
-190
-190
-190
-190
-190
-190
-190
-189
-189
-189
-188
-188
-188
-188
-188
-187
-188
-187
-187
-187
-186
-186
-185
-185
-185
-184
-184
-183
-183
-182
-182
-181
-181
-180
-180
-180
-180
-179
-179
-178
-177
-177
-177
-176
-176
-176
-175
-175
-176
-175
-175
-174
-174
-173
-174
-174
-173
-173
-172
-173
-173
-173
-172
-172
-173
-173
-173
-172
-173
-173
-173
-173
-173
-173
-173
-173
-173
-173
-173
-173
-172
-173
-173
-172
-173
-173
-173
-174
-173
-173
-174
-174
-174
-174
-175
-176
-176
-177
-177
-178
-179
-179
-180
-181
-181
-181
-182
-183
-183
-183
-184
-185
-185
-185
-186
-186
-186
-186
-187
-186
-187
-187
-187
-187
-188
-187
-188
-188
-188
-188
-188
-189
-189
-189
-189
-189
-190
-190
-191
-191
-192
-192
-192
-193
-193
-193
-194
-194
-195
-195
-195
-195
-195
-196
-196
-196
-196
-196
-196
-196
-196
-196
-196
-196
-196
-196
-196
-196
-196
-195
-196
-196
-196
-196
-196
-197
-197
-196
-196
-196
-196
-196
-196
-197
-196
-195
-195
-195
-195
-195
-195
-195
-194
-194
-194
-194
-194
-194
-193
-193
-193
-193
-193
-193
-193
-193
-193
-192
-193
-193
-193
-193
-192
-192
-192
-191
-190
-189
-188
-186
-184
-183
-181
-178
-176
-173
-171
-168
-165
-162
-159
-155
-151
-146
-142
-138
-132
-127
-123
-117
-112
-107
-102
-97
-91
-87
-82
-79
-75
-73
-71
-70
-70
-72
-75
-79
-85
-92
-101
-112
-124
-138
-154
-171
-190
-209
-230
-252
-274
-296
-318
-340
-361
-382
-400
-418
-435
-450
-463
-474
-484
-490
-495
-498
-499
-499
-496
-491
-485
-478
-470
-461
-450
-439
-427
-415
-403
-390
-377
-365
-352
-339
-327
-316
-304
-294
-282
-273
-263
-254
-246
-239
-231
-225
-218
-214
-208
-204
-201
-197
-194
-192
-190
-188
-186
-185
-184
-183
-182
-181
-181
-180
-180
-180
-180
-180
-179
-179
-178
-178
-177
-177
-176
-176
-176
-175
-175
-174
-174
-174
-173
-173
-173
-172
-172
-171
-171
-171
-170
-170
-170
-170
-170
-170
-170
-170
-170
-170
-169
-169
-169
-169
-169
-169
-169
-169
-169
-169
-169
-169
-169
-169
-169
-170
-170
-169
-169
-169
-169
-169
-169
-169
-169
-168
-168
-168
-168
-168
-168
-168
-168
-167
-167
-167
-167
-166
-166
-166
-166
-166
-166
-165
-165
-165
-165
-165
-165
-165
-165
-165
-165
-165
-165
-165
-165
-165
-165
-165
-165
-165
-165
-165
-165
-165
-165
-165
-164
-164
-164
-164
-164
-164
-163
-163
-163
-163
-163
-163
-163
-163
-163
-163
-162
-162
-162
-162
-161
-161
-161
-161
-161
-161
-161
-161
-161
-161
-160
-160
-160
-160
-160
-160
-160
-160
-160
-160
-160
-160
-160
-160
-159
-159
-159
-159
-159
-159
-159
-158
-158
-158
-158
-157
-157
-157
-157
-156
-156
-156
-156
-156
-155
-155
-154
-154
-154
-154
-154
-154
-153
-153
-153
-152
-152
-152
-151
-151
-151
-151
-151
-151
-150
-150
-150
-150
-150
-149
-149
-149
-149
-149
-149
-148
-147
-147
-147
-146
-146
-146
-145
-145
-145
-145
-144
-144
-144
-144
-144
-143
-143
-143
-142
-142
-142
-142
-141
-141
-141
-141
-140
-140
-140
-139
-139
-139
-138
-138
-138
-138
-137
-136
-136
-136
-135
-135
-135
-134
-133
-133
-133
-132
-131
-131
-130
-130
-130
-129
-129
-129
-129
-128
-128
-127
-127
-127
-127
-126
-126
-126
-126
-126
-125
-125
-125
-124
-124
-124
-123
-123
-123
-122
-122
-122
-122
-122
-121
-122
-122
-122
-121
-121
-121
-121
-122
-122
-122
-122
-122
-123
-123
-123
-123
-124
-124
-124
-125
-125
-125
-125
-125
-126
-126
-126
-126
-126
-127
-127
-126
-126
-126
-126
-126
-126
-126
-126
-126
-126
-127
-127
-127
-127
-127
-128
-128
-129
-129
-129
-130
-130
-130
-131
-131
-131
-131
-132
-133
-133
-133
-133
-133
-133
-134
-134
-134
-134
-134
-134
-134
-135
-135
-136
-136
-136
-136
-136
-137
-137
-137
-139
-139
-140
-140
-141
-141
-142
-142
-144
-144
-145
-146
-146
-146
-147
-147
-148
-148
-149
-149
-150
-151
-151
-151
-151
-153
-153
-153
-153
-154
-155
-155
-156
-156
-156
-157
-158
-158
-158
-159
-160
-160
-160
-161
-161
-162
-163
-163
-163
-163
-164
-165
-165
-166
-166
-166
-167
-167
-167
-168
-168
-168
-168
-168
-169
-169
-169
-169
-169
-169
-169
-169
-169
-169
-170
-170
-170
-170
-171
-171
-171
-171
-171
-171
-171
-171
-171
-171
-172
-172
-172
-172
-172
-172
-172
-172
