# Simple Text Format
# Sampling Rate (Hz):= 1200.00
# Resolution:= 12
# Labels:= ECG	 V6
# Age:=	52
# Gender:=	Feminino
-198
-198
-198
-198
-198
-198
-198
-198
-198
-198
-198
-198
-198
-198
-198
-198
-198
-198
-198
-198
-197
-197
-197
-197
-197
-197
-196
-196
-196
-196
-196
-196
-195
-195
-195
-195
-194
-194
-194
-194
-194
-192
-192
-192
-192
-191
-191
-191
-191
-191
-191
-191
-191
-191
-190
-191
-192
-191
-192
-192
-193
-193
-193
-195
-195
-196
-197
-198
-199
-200
-201
-202
-203
-204
-204
-206
-207
-207
-207
-209
-209
-210
-211
-211
-211
-212
-212
-213
-213
-213
-214
-214
-214
-214
-215
-215
-215
-215
-216
-216
-217
-217
-217
-218
-218
-219
-219
-220
-220
-220
-221
-221
-221
-221
-222
-222
-222
-222
-221
-222
-222
-222
-223
-222
-222
-222
-222
-222
-222
-222
-222
-222
-222
-222
-223
-223
-222
-223
-223
-223
-224
-223
-223
-224
-224
-224
-225
-224
-224
-224
-225
-225
-224
-224
-225
-225
-225
-224
-225
-225
-225
-224
-225
-225
-225
-225
-225
-226
-226
-226
-226
-226
-227
-227
-227
-227
-227
-227
-227
-227
-227
-227
-227
-227
-228
-228
-228
-228
-228
-228
-228
-228
-227
-227
-227
-227
-227
-227
-227
-227
-227
-228
-227
-227
-227
-227
-227
-228
-228
-228
-228
-227
-227
-227
-227
-227
-226
-226
-226
-226
-226
-226
-226
-226
-226
-226
-226
-226
-226
-226
-226
-226
-226
-226
-225
-225
-226
-226
-225
-225
-226
-225
-225
-224
-225
-225
-224
-224
-223
-223
-224
-223
-223
-222
-222
-221
-221
-221
-221
-221
-220
-220
-220
-219
-219
-218
-219
-219
-218
-218
-218
-217
-217
-217
-217
-216
-216
-215
-215
-214
-214
-214
-213
-214
-214
-214
-213
-213
-213
-213
-212
-212
-212
-212
-212
-212
-212
-211
-211
-211
-211
-210
-211
-210
-210
-210
-208
-208
-208
-208
-207
-207
-207
-207
-206
-206
-206
-205
-205
-205
-204
-205
-205
-205
-205
-206
-206
-206
-206
-206
-207
-208
-208
-208
-209
-210
-210
-210
-211
-211
-212
-212
-212
-213
-213
-214
-215
-215
-216
-216
-217
-217
-218
-219
-219
-221
-221
-221
-222
-223
-224
-224
-225
-225
-225
-226
-226
-227
-227
-228
-228
-229
-229
-230
-230
-231
-230
-230
-230
-231
-231
-231
-231
-231
-232
-231
-231
-231
-231
-231
-231
-232
-232
-232
-232
-232
-232
-232
-232
-232
-232
-232
-232
-232
-232
-233
-233
-233
-232
-232
-232
-232
-232
-232
-231
-231
-231
-231
-231
-231
-231
-230
-230
-230
-231
-231
-231
-230
-230
-230
-230
-230
-230
-230
-229
-229
-230
-230
-230
-230
-231
-231
-232
-232
-233
-233
-234
-235
-237
-237
-238
-240
-241
-241
-242
-242
-243
-243
-243
-243
-241
-239
-236
-234
-229
-224
-219
-212
-205
-196
-187
-177
-165
-153
-140
-126
-113
-100
-85
-72
-59
-48
-36
-26
-18
-12
-6
-2
0
1
0
-3
-8
-16
-24
-33
-45
-57
-71
-85
-100
-113
-128
-142
-156
-169
-183
-195
-207
-217
-227
-237
-245
-253
-259
-265
-270
-274
-277
-280
-283
-283
-285
-285
-285
-284
-283
-281
-280
-277
-276
-273
-270
-267
-265
-262
-259
-256
-253
-251
-249
-246
-244
-242
-240
-239
-237
-235
-234
-233
-233
-232
-231
-231
-230
-230
-230
-229
-229
-229
-229
-229
-229
-228
-228
-228
-228
-228
-228
-228
-228
-229
-229
-229
-229
-228
-228
-228
-228
-228
-227
-227
-227
-227
-226
-226
-226
-226
-226
-226
-226
-226
-226
-226
-226
-226
-226
-225
-225
-225
-226
-226
-226
-226
-227
-227
-226
-226
-226
-226
-227
-227
-227
-227
-227
-227
-227
-227
-227
-227
-227
-226
-227
-227
-227
-227
-227
-227
-227
-226
-226
-226
-226
-226
-226
-226
-226
-226
-226
-226
-226
-226
-226
-226
-226
-227
-227
-227
-227
-227
-227
-227
-227
-227
-228
-228
-228
-228
-228
-228
-228
-228
-228
-228
-228
-228
-228
-228
-228
-228
-228
-228
-228
-228
-228
-228
-228
-228
-227
-226
-226
-226
-226
-226
-226
-226
-226
-226
-226
-226
-226
-225
-224
-224
-224
-224
-224
-224
-224
-223
-223
-223
-223
-223
-223
-223
-223
-222
-222
-222
-222
-222
-222
-222
-222
-221
-221
-221
-221
-221
-221
-222
-222
-221
-221
-221
-220
-220
-220
-220
-221
-220
-220
-220
-220
-220
-220
-220
-219
-219
-218
-218
-218
-218
-218
-219
-219
-218
-218
-218
-218
-217
-217
-217
-216
-216
-216
-216
-215
-215
-215
-215
-214
-214
-214
-214
-213
-213
-213
-212
-212
-211
-211
-211
-211
-210
-209
-209
-209
-209
-208
-208
-208
-207
-207
-207
-206
-206
-206
-206
-205
-205
-205
-205
-205
-205
-205
-205
-204
-205
-204
-204
-204
-204
-204
-203
-203
-203
-202
-202
-202
-202
-201
-200
-200
-200
-199
-199
-199
-198
-197
-197
-196
-196
-196
-195
-195
-195
-194
-194
-193
-193
-193
-193
-192
-192
-192
-191
-191
-191
-190
-190
-190
-190
-190
-189
-189
-189
-189
-188
-188
-188
-188
-188
-187
-187
-187
-186
-185
-185
-185
-185
-184
-184
-184
-184
-184
-183
-183
-183
-183
-183
-183
-183
-183
-182
-182
-182
-182
-182
-182
-182
-182
-182
-182
-183
-183
-183
-183
-184
-184
-184
-184
-184
-184
-184
-184
-185
-185
-185
-185
-186
-186
-186
-186
-186
-186
-186
-186
-186
-186
-186
-186
-186
-186
-186
-186
-186
-186
-186
-187
-186
-186
-187
-187
-186
-187
-187
-188
-187
-187
-188
-188
-189
-189
-189
-189
-190
-191
-191
-190
-191
-192
-192
-193
-194
-194
-193
-194
-194
-195
-195
-195
-197
-197
-198
-198
-198
-198
-199
-199
-200
-200
-201
-201
-201
-202
-203
-203
-203
-204
-204
-204
-204
-204
-206
-206
-206
-206
-206
-206
-206
-206
-206
-206
-206
-207
-207
-208
-208
-208
-208
-208
-208
-209
-210
-210
-210
-210
-211
-211
-211
-212
-213
-213
-213
-213
-213
-213
-214
-214
-214
-214
-214
-214
-214
-214
-214
-214
-214
-214
-214
-214
-214
-214
-214
-215
-215
-215
-215
-215
-215
-215
-215
-215
-215
-215
-215
-215
-215
-215
-216
-216
-216
-216
-216
-215
-215
-215
-215
-215
-215
-215
-214
-214
-214
-214
-214
-214
-214
-213
-213
-213
-212
-212
-212
-212
-212
-211
-212
-212
-211
-211
-211
-211
-211
-211
-211
-211
-212
-212
-212
-212
-212
-212
-211
-211
-211
-211
-211
-211
-211
-211
-211
-211
-210
-210
-210
-210
-210
-210
-210
-209
-209
-210
-210
-210
-210
-209
-209
-209
-209
-209
-209
-209
-210
-210
-210
-210
-210
-209
-209
-209
-208
-208
-208
-208
-207
-207
-207
-207
-207
-207
-207
-206
-206
-206
-206
-205
-205
-205
-205
-204
-204
-204
-204
-204
-204
-205
-205
-205
-205
-205
-205
-206
-206
-206
-206
-206
-206
-207
-207
-207
-207
-207
-208
-208
-208
-208
-208
-208
-208
-208
-208
-208
-208
-209
-209
-209
-209
-209
-209
-209
-209
-209
-209
-209
-209
-210
-209
-209
-209
-209
-209
-209
-209
-209
-209
-209
-209
-208
-208
-208
-208
-208
-208
-208
-208
-208
-208
-208
-208
-208
-209
-209
-209
-209
-209
-209
-209
-209
-209
-210
-210
-210
-210
-210
-210
-210
-210
-210
-210
-210
-210
-210
-210
-210
-210
-210
-210
-210
-210
-210
-210
-210
-210
-210
-210
-209
-209
-209
-209
-208
-208
-207
-207
-208
-207
-207
-207
-206
-205
-206
-206
-205
-204
-204
-204
-203
-203
-203
-202
-202
-202
-201
-201
-201
-201
-200
-200
-199
-199
-199
-198
-198
-198
-197
-198
-198
-198
-197
-197
-197
-197
-197
-196
-196
-196
-196
-196
-196
-196
-195
-195
-195
-195
-195
-195
-195
-194
-194
-194
-194
-193
-193
-193
-193
-192
-192
-192
-192
-192
-192
-192
-192
-191
-191
-191
-191
-191
-190
-191
-191
-192
-191
-191
-192
-192
-192
-192
-193
-193
-194
-193
-194
-195
-196
-195
-196
-197
-197
-198
-199
-199
-200
-200
-201
-201
-202
-202
-203
-203
-204
-204
-204
-205
-205
-206
-206
-206
-208
-208
-208
-209
-209
-211
-211
-211
-212
-212
-212
-214
-214
-214
-214
-215
-215
-215
-216
-216
-216
-217
-217
-217
-217
-218
-217
-217
-217
-218
-218
-218
-218
-219
-219
-219
-219
-219
-219
-219
-219
-219
-219
-219
-219
-219
-219
-219
-219
-219
-220
-220
-219
-219
-219
-219
-219
-219
-219
-219
-219
-218
-218
-218
-218
-218
-218
-217
-217
-217
-217
-217
-217
-217
-217
-218
-218
-218
-218
-218
-218
-218
-219
-219
-219
-221
-222
-223
-224
-225
-225
-226
-227
-228
-228
-229
-229
-229
-230
-230
-229
-227
-225
-223
-219
-215
-210
-204
-198
-190
-181
-172
-161
-150
-137
-125
-112
-99
-87
-74
-60
-48
-36
-26
-16
-9
-4
1
3
4
3
1
-3
-9
-17
-26
-37
-49
-62
-74
-88
-102
-116
-130
-144
-157
-170
-183
-194
-205
-215
-224
-232
-240
-247
-253
-257
-261
-265
-268
-270
-271
-272
-272
-272
-272
-271
-270
-268
-266
-264
-262
-259
-257
-254
-252
-249
-246
-244
-241
-239
-236
-234
-232
-230
-228
-227
-226
-224
-223
-223
-221
-220
-220
-219
-219
-219
-219
-218
-218
-218
-218
-218
-218
-218
-218
-218
-219
-219
-219
-219
-219
-220
-220
-220
-220
-220
-220
-221
-221
-221
-221
-221
-221
-221
-221
-221
-221
-221
-221
-221
-221
-221
-221
-220
-220
-220
-221
-221
-221
-221
-220
-220
-220
-221
-221
-221
-221
-221
-221
-220
-220
-220
-221
-221
-221
-221
-221
-221
-221
-221
-221
-221
-221
-221
-221
-221
-221
-221
-221
-221
-221
-222
-221
-221
-221
-221
-221
-221
-221
-221
-221
-221
-221
-221
-221
-221
-221
-221
-221
-221
-221
-221
-221
-221
-221
-221
-221
-221
-221
-221
-221
-221
-221
-221
-221
-221
-221
-222
-222
-222
-222
-222
-222
-222
-222
-222
-222
-222
-222
-222
-222
-222
-221
-221
-221
-221
-221
-221
-221
-221
-221
-220
-220
-220
-220
-220
-220
-220
-220
-220
-219
-219
-219
-219
-219
-219
-218
-218
-218
-218
-218
-218
-218
-217
-218
-217
-218
-218
-218
-218
-218
-218
-219
-219
-219
-219
-220
-220
-220
-220
-221
-221
-220
-220
-220
-220
-220
-220
-220
-220
-220
-220
-219
-219
-219
-219
-219
-219
-217
-217
-217
-217
-217
-216
-215
-215
-215
-214
-214
-214
-214
-213
-213
-213
-212
-212
-212
-211
-211
-211
-211
-210
-210
-210
-209
-209
-209
-209
-209
-208
-208
-208
-208
-207
-207
-207
-207
-207
-207
-207
-207
-207
-207
-206
-206
-205
-206
-206
-205
-205
-205
-205
-205
-205
-204
-204
-203
-203
-202
-202
-202
-201
-201
-201
-200
-200
-200
-200
-199
-198
-198
-198
-198
-197
-197
-197
-197
-197
-197
-197
-197
-195
-195
-195
-195
-195
-195
-194
-194
-194
-194
-194
-194
-193
-193
-193
-193
-193
-193
-193
-192
-192
-192
-191
-191
-191
-191
-190
-190
-190
-190
-190
-189
-189
-189
-189
-189
-188
-188
-188
-188
-188
-188
-188
-188
-188
-188
-187
-187
-188
-188
-188
-188
-188
-188
-188
-188
-188
-189
-189
-188
-188
-188
-188
-188
-188
-188
-187
-188
-188
-188
-188
-187
-188
-188
-188
-187
-187
-188
-188
-187
-187
-188
-188
-188
-187
-188
-188
-189
-189
-189
-189
-190
-189
-190
-190
-191
-191
-192
-192
-193
-193
-193
-194
-194
-195
-195
-196
-196
-197
-197
-197
-198
-198
-198
-199
-199
-199
-200
-200
-200
-201
-201
-202
-202
-202
-202
-202
-204
-204
-204
-205
-205
-205
-206
-207
-207
-207
-207
-208
-208
-210
-210
-210
-210
-210
-211
-211
-212
-212
-213
-213
-213
-213
-214
-214
-214
-214
-215
-216
-216
-216
-217
-217
-217
-217
-218
-219
-219
-219
-219
-220
-220
-220
-220
-220
-221
-221
-221
-221
-222
-222
-222
-222
-222
-222
-222
-222
-222
-222
-222
-222
-222
-222
-222
-223
-223
-223
-223
-223
-223
-222
-222
-222
-222
-222
-222
-222
-222
-222
-222
-222
-222
-223
-223
-223
-223
-222
-222
-222
-223
-223
-223
-223
-222
-222
-222
-222
-222
-222
-222
-222
-222
-222
-222
-222
-222
-222
-223
-223
-223
-223
-223
-223
-223
-223
-223
-222
-222
-222
-222
-222
-222
-222
-222
-222
-221
-221
-221
-221
-221
-219
-219
-219
-219
-219
-219
-218
-218
-217
-217
-217
-216
-216
-216
-216
-216
-216
-216
-216
-216
-216
-216
-217
-217
-217
-217
-217
-217
-217
-217
-218
-218
-218
-218
-218
-218
-218
-217
-217
-217
-217
-217
-217
-217
-217
-218
-218
-218
-218
-218
-217
-217
-217
-218
-218
-218
-218
-217
-217
-218
-218
-218
-218
-217
-217
-217
-217
-218
-218
-218
-218
-218
-218
-218
-218
-217
-218
-218
-218
-218
-218
-218
-218
-218
-218
-218
-218
-218
-218
-218
-218
-218
-218
-218
-218
-218
-218
-218
-218
-218
-218
-218
-218
-218
-218
-218
-218
-218
-219
-219
-219
-219
-219
-219
-219
-219
-220
-221
-221
-221
-221
-221
-221
-221
-221
-221
-221
-221
-221
-221
-221
-221
-221
-221
-221
-221
-221
-221
-221
-221
-221
-221
-221
-221
-221
-222
-222
-222
-222
-222
-222
-223
-223
-223
-223
-223
-223
-223
-223
-223
-223
-224
-224
-224
-223
-222
-222
-222
-222
-221
-221
-220
-220
-218
-218
-217
-217
-216
-216
-215
-215
-215
-214
-214
-214
-213
-213
-213
-213
-212
-212
-212
-212
-212
-211
-211
-211
-211
-211
-210
-210
-209
-209
-209
-209
-208
-208
-208
-207
-207
-207
-207
-207
-206
-206
-206
-205
-205
-205
-205
-205
-204
-203
-203
-202
-202
-202
-201
-201
-200
-200
-199
-199
-199
-198
-198
-197
-196
-196
-196
-196
-196
-196
-196
-196
-196
-197
-197
-197
-197
-198
-198
-198
-199
-199
-200
-201
-201
-202
-202
-203
-203
-204
-204
-205
-205
-206
-206
-206
-206
-207
-207
-208
-208
-209
-210
-210
-211
-211
-211
-212
-212
-213
-213
-213
-215
-215
-216
-216
-216
-217
-217
-218
-218
-218
-218
-219
-219
-219
-220
-220
-220
-221
-221
-221
-221
-221
-222
-222
-222
-222
-223
-223
-223
-223
-223
-223
-223
-223
-223
-223
-223
-223
-223
-223
-223
-223
-223
-223
-223
-223
-224
-224
-224
-224
-224
-224
-224
-224
-224
-224
-223
-223
-223
-223
-224
-224
-224
-224
-224
-224
-224
-223
-223
-223
-223
-223
-223
-223
-223
-223
-223
-223
-223
-223
-223
-223
-223
-224
-224
-225
-226
-227
-227
-228
-230
-230
-231
-232
-233
-234
-235
-235
-235
-235
-234
-234
-232
-231
-228
-225
-220
-216
-210
-204
-196
-188
-178
-169
-157
-146
-134
-123
-110
-97
-84
-72
-60
-48
-38
-30
-23
-18
-14
-12
-11
-12
-14
-19
-25
-33
-42
-53
-65
-77
-91
-104
-118
-132
-145
-159
-171
-184
-196
-206
-217
-226
-234
-242
-250
-256
-261
-265
-270
-273
-275
-278
-279
-280
-280
-280
-279
-278
-277
-276
-274
-271
-269
-266
-263
-261
-258
-255
-252
-251
-248
-245
-243
-240
-238
-237
-234
-233
-232
-230
-229
-228
-227
-226
-226
-226
-225
-225
-224
-224
-224
-224
-224
-225
-225
-225
-226
-226
-226
-226
-226
-226
-226
-226
-226
-226
-226
-226
-226
-226
-226
-226
-225
-225
-225
-226
-226
-226
-226
-226
-225
-225
-225
-225
-225
-225
-225
-225
-225
-225
-225
-225
-225
-224
-224
-224
-224
-223
-223
-224
-224
-224
-224
-224
-224
-224
-224
-224
-224
-224
-224
-224
-223
-223
-223
-223
-223
-223
-223
-223
-223
-224
-224
-224
-224
-224
-224
-224
-224
-224
-224
-224
-224
-224
-224
-224
-224
-224
-224
-224
-224
-224
-224
-224
-224
-224
-224
-224
-224
-224
-224
-224
-224
-224
-224
-224
-224
-224
-224
-224
-224
-224
-224
-223
-223
-223
-223
-223
-223
-223
-223
-223
-222
-223
-223
-223
-223
-223
-223
-223
-222
-222
-222
-222
-222
-222
-222
-222
-222
-222
-223
-223
-223
-223
-223
-223
-224
-224
-223
-223
-223
-223
-224
-224
-224
-224
-224
-223
-223
-223
-223
-223
-223
-223
-223
-223
-223
-223
-223
-223
-223
-222
-222
-222
-222
-221
-221
-220
-220
-220
-220
-220
-219
-219
-219
-219
-219
-218
-218
-218
-218
-218
-217
-217
-217
-217
-217
-216
-216
-216
-216
-216
-216
-216
-216
-216
-216
-216
-216
-216
-216
-216
-216
-215
-215
-215
-215
-215
-215
-214
-214
-214
-214
-213
-213
-213
-213
-212
-212
-212
-212
-212
-211
-211
-211
-211
-211
-211
-211
-211
-210
-210
-210
-210
-208
-208
-208
-207
-207
-207
-207
-206
-206
-205
-204
-204
-204
-204
-203
-202
-202
-202
-201
-201
-201
-201
-201
-201
-199
-199
-199
-199
-198
-198
-198
-198
-197
-197
-197
-196
-196
-196
-196
-196
-195
-195
-194
-194
-194
-194
-194
-194
-193
-192
-192
-192
-192
-192
-192
-191
-191
-191
-191
-192
-191
-190
-190
-191
-191
-190
-190
-190
-190
-190
-190
-190
-190
-190
-190
-190
-190
-190
-189
-189
-189
-189
-189
-189
-189
-189
-189
-189
-189
-189
-189
-189
-190
-190
-190
-190
-191
-191
-191
-191
-191
-192
-192
-192
-191
-192
-192
-192
-192
-193
-192
-193
-193
-193
-192
-193
-193
-194
-194
-194
-193
-194
-194
-194
-195
-195
-195
-194
-194
-195
-195
-195
-195
-195
-195
-194
-195
-195
-195
-196
-196
-197
-197
-197
-197
-197
-198
-198
-198
-199
-199
-199
-200
-200
-200
-201
-201
-201
-201
-201
-202
-202
-202
-203
-202
-203
-202
-203
-202
-202
-204
-203
-204
-204
-204
-204
-204
-204
-204
-204
-204
-204
-205
-205
-205
-205
-205
-206
-206
-206
-206
-207
-207
-208
-208
-208
-208
-208
-209
-210
-210
-210
-211
-211
-211
-212
-213
-213
-213
-213
-213
-213
-214
-214
-214
-214
-214
-214
-214
-214
-214
-214
-214
-214
-214
-214
-214
-214
-214
-214
-214
-214
-214
-214
-213
-213
-213
-213
-213
-213
-213
-213
-214
-214
-214
-214
-214
-214
-214
-214
-213
-213
-213
-213
-213
-213
-213
-213
-213
-213
-213
-213
-213
-212
-212
-212
-212
-211
-211
-211
-211
-210
-210
-210
-210
-210
-210
-210
-210
-210
-210
-210
-210
-210
-210
-210
-210
-210
-210
-209
-209
-210
-210
-210
-210
-210
-210
-209
-208
-208
-208
-208
-208
-208
-207
-207
-207
-206
-206
-206
-206
-205
-205
-205
-205
-205
-204
-203
-203
-203
-203
-203
-203
-203
-203
-203
-203
-203
-203
-202
-203
-203
-203
-203
-203
-203
-203
-203
-203
-203
-204
-204
-204
-204
-204
-204
-204
-205
-205
-205
-205
-205
-205
-205
-206
-206
-206
-206
-206
-206
-206
-206
-206
-206
-206
-205
-205
-205
-205
-205
-204
-204
-204
-204
-204
-204
-204
-204
-204
-204
-205
-205
-205
-205
-205
-205
-205
-205
-206
-206
-206
-206
-206
-207
-207
-207
-207
-207
-208
-208
-208
-208
-208
-207
-207
-208
-208
-208
-208
-208
-208
-207
-207
-207
-207
-207
-207
-207
-207
-207
-207
-207
-207
-207
-207
-207
-207
-207
-207
-207
-207
-207
-207
-207
-207
-208
-209
-209
-209
-209
-209
-209
-209
-209
-209
-209
-208
-208
-208
-208
-208
-208
-208
-208
-208
-208
-207
-207
-207
-207
-207
-206
-206
-206
-205
-205
-205
-204
-204
-203
-204
-204
-203
-203
-203
-202
-202
-202
-201
-202
-202
-202
-202
-202
-202
-201
-201
-202
-202
-202
-202
-202
-202
-202
-202
-202
-202
-202
-202
-202
-202
-202
-201
-201
-201
-201
-200
-200
-200
-199
-199
-199
-199
-198
-198
-198
-198
-197
-197
-197
-196
-196
-196
-195
-194
-194
-194
-194
-193
-193
-193
-192
-192
-191
-191
-191
-190
-190
-190
-190
-190
-189
-189
-189
-190
-190
-190
-191
-191
-191
-192
-192
-193
-193
-193
-194
-194
-195
-196
-195
-196
-197
-197
-198
-198
-198
-199
-199
-199
-200
-200
-200
-200
-200
-200
-201
-201
-202
-202
-202
-203
-203
-204
-204
-204
-205
-205
-206
-207
-207
-208
-208
-209
-209
-210
-210
-211
-211
-212
-212
-213
-213
-214
-214
-214
-215
-215
-215
-217
-217
-217
-217
-217
-217
-217
-217
-217
-217
-217
-217
-217
-217
-217
-217
-217
-217
-217
-217
-217
-216
-216
-216
-216
-216
-216
-216
-215
-215
-215
-215
-215
-215
-215
-216
-216
-216
-216
-216
-216
-216
-216
-216
-216
-216
-216
-216
-216
-216
-216
-216
-215
-215
-215
-215
-216
-216
-216
-216
-216
-216
-217
-217
-217
-218
-218
-219
-220
-221
-222
-222
-224
-224
-224
-224
-224
-224
-224
-223
-220
-219
-215
-212
-208
-204
-198
-191
-184
-176
-167
-158
-147
-136
-124
-112
-100
-87
-74
-62
-52
-41
-32
-24
-17
-12
-9
-8
-7
-9
-11
-16
-22
-30
-40
-51
-62
-75
-88
-102
-115
-128
-141
-154
-166
-178
-189
-200
-210
-218
-227
-234
-241
-247
-252
-257
-260
-263
-265
-268
-269
-269
-269
-270
-268
-267
-266
-264
-262
-260
-258
-254
-252
-249
-247
-244
-241
-238
-237
-234
-232
-230
-228
-226
-223
-222
-221
-219
-219
-218
-216
-216
-215
-215
-215
-215
-214
-214
-213
-213
-213
-214
-214
-214
-214
-214
-214
-214
-214
-214
-214
-214
-215
-215
-215
-214
-214
-214
-214
-214
-214
-214
-214
-213
-213
-213
-213
-213
-213
-213
-213
-213
-213
-213
-213
-213
-213
-213
-214
-214
-214
-214
-214
-214
-214
-215
-215
-215
-215
-215
-215
-215
-215
-215
-215
-215
-215
-215
-215
-214
-214
-214
-214
-214
-214
-214
-214
-214
-213
-213
-213
-212
-212
-212
-212
-212
-212
-212
-212
-212
-212
-212
-212
-212
-212
-213
-213
-213
-213
-214
-215
-215
-215
-215
-215
-215
-215
-215
-216
-216
-216
-216
-215
-216
-216
-216
-216
-216
-217
-216
-216
-216
-216
-216
-216
-216
-216
-216
-216
-215
-215
-215
-215
-215
-215
-215
-215
-215
-215
-215
-215
-215
-214
-214
-214
-213
-213
-213
-214
-213
-213
-213
-213
-212
-212
-212
-212
-212
-212
-211
-211
-211
-211
-211
-211
-211
-211
-210
-210
-210
-211
-211
-211
-211
-211
-211
-212
-212
-212
-211
-211
-212
-212
-212
-213
-213
-213
-213
-213
-213
-213
-213
-214
-214
-214
-213
-213
-213
-213
-213
-212
-212
-212
-212
-212
-211
-211
-210
-210
-210
-209
-209
-209
-209
-207
-207
-207
-207
-207
-206
-206
-206
-206
-206
-206
-206
-205
-205
-205
-205
-204
-204
-204
-204
-204
-204
-204
-203
-204
-203
-204
-204
-203
-203
-203
-204
-203
-203
-204
-203
-203
-202
-202
-202
-201
-201
-201
-201
-201
-200
-200
-200
-199
-199
-199
-198
-198
-198
-197
-197
-197
-197
-195
-195
-195
-195
-195
-194
-194
-193
-193
-193
-192
-192
-192
-192
-191
-191
-191
-191
-191
-190
-191
-191
-190
-190
-191
-190
-190
-190
-190
-190
-191
-190
-190
-190
-190
-189
-189
-189
-188
-188
-188
-187
-188
-188
-188
-187
-188
-188
-188
-188
-187
-187
-188
-188
-188
-188
-188
-188
-187
-187
-187
-187
-187
-186
-186
-186
-185
-185
-186
-186
-185
-185
-185
-185
-186
-186
-185
-185
-185
-186
-186
-186
-186
-186
-187
-187
-186
-186
-186
-186
-187
-187
-187
-187
-187
-187
-188
-188
-188
-189
-190
-190
-190
-191
-191
-192
-192
-192
-193
-193
-193
-193
-194
-194
-195
-195
-195
-196
-196
-196
-196
-197
-197
-197
-197
-197
-197
-197
-198
-198
-198
-197
-198
-198
-198
-199
-199
-199
-199
-200
-200
-200
-201
-201
-201
-201
-201
-202
-202
-202
-204
-204
-204
-204
-204
-205
-206
-206
-206
-207
-207
-207
-208
-209
-209
-209
-210
-211
-211
-212
-212
-212
-212
-212
-213
-213
-213
-213
-214
-214
-214
-214
-214
-214
-213
-213
-214
-214
-214
-214
-214
-214
-214
-214
-214
-214
-214
-214
-215
-215
-215
-216
-216
-216
-217
-217
-217
-217
-217
-218
-218
-218
-219
-218
-218
-219
-219
-218
-218
-218
-219
-219
-219
-219
-219
-219
-219
-219
-219
-219
-219
-219
-219
-219
-218
-218
-218
-218
-217
-217
-217
-217
-217
-217
-216
-216
-216
-216
-215
-214
-214
-214
-215
-214
-214
-214
-214
-214
-213
-213
-213
-213
-213
-213
-213
-213
-213
-213
-213
-213
-212
-212
-212
-212
-213
-212
-212
-212
-212
-212
-212
-212
-212
-212
-212
-212
-211
-211
-211
-211
-211
-211
-211
-211
-211
-211
-211
-211
-210
-210
-210
-210
-211
-210
-210
-210
-210
-209
-209
-209
-209
-208
-208
-208
-208
-207
-208
-208
-208
-208
-207
-207
-207
-207
-207
-206
-206
-207
-207
-207
-207
-207
-207
-207
-207
-207
-207
-207
-207
-207
-208
-208
-208
-208
-208
-209
-209
-209
-209
-208
-208
-208
-208
-209
-209
-209
-210
-210
-209
-210
-210
-210
-211
-211
-211
-212
-212
-213
-213
-213
-213
-213
-214
-214
-214
-214
-214
-215
-215
-214
-214
-215
-214
-215
-214
-214
-214
-213
-213
-214
-213
-213
-213
-213
-213
-213
-213
-213
-212
-212
-212
-212
-213
-212
-212
-212
-213
-213
-213
-214
-213
-214
-213
-214
-214
-214
-215
-216
-216
-216
-216
-217
-217
-217
-217
-218
-218
-218
-218
-218
-218
-218
-218
-218
-218
-218
-217
-217
-217
-216
-216
-216
-216
-215
-216
-216
-216
-216
-216
-216
-216
-216
-216
-216
-217
-216
-216
-216
-216
-216
-217
-217
-217
-216
-216
-216
-216
-216
-216
-216
-216
-216
-216
-216
-216
-216
-216
-215
-215
-216
-216
-216
-216
-216
-216
-216
-216
-216
-216
-216
-216
-216
-216
-216
-215
-215
-214
-214
-214
-214
-214
-214
-214
-213
-213
-213
-212
-212
-211
-211
-210
-210
-211
-210
-210
-209
-210
-209
-209
-208
-209
-208
-208
-207
-208
-207
-207
-208
-208
-207
-208
-208
-208
-208
-208
-208
-208
-208
-208
-208
-208
-208
-207
-208
-208
-207
-207
-207
-206
-206
-206
-206
-205
-205
-204
-204
-204
-203
-203
-202
-202
-203
-202
-202
-201
-201
-201
-201
-201
-200
-200
-200
-200
-200
-200
-200
-200
-201
-201
-200
-201
-201
-202
-201
-202
-203
-203
-203
-204
-205
-206
-206
-207
-208
-207
-208
-208
-209
-210
-211
-211
-212
-212
-212
-212
-213
-213
-213
-213
-213
-213
-214
-214
-215
-215
-214
-215
-215
-216
-217
-217
-218
-218
-219
-219
-220
-220
-221
-221
-222
-222
-223
-223
-223
-225
-225
-226
-225
-225
-225
-227
-227
-227
-227
-227
-227
-227
-228
-228
-228
-229
-229
-229
-229
-230
-230
-230
-230
-231
-231
-231
-231
-231
-231
-231
-232
-231
-231
-231
-231
-231
-231
-231
-231
-231
-230
-230
-230
-229
-230
-230
-229
-230
-230
-230
-229
-230
-230
-230
-230
-230
-230
-230
-230
-230
-230
-231
-231
-231
-233
-233
-234
-235
-236
-237
-238
-239
-241
-242
-243
-245
-245
-246
-247
-247
-247
-246
-245
-244
-242
-239
-236
-231
-225
-219
-212
-204
-194
-184
-173
-160
-149
-136
-122
-109
-95
-81
-68
-55
-44
-34
-26
-18
-14
-10
-8
-8
-9
-13
-19
-25
-35
-45
-57
-71
-84
-99
-113
-128
-143
-158
-172
-186
-200
-212
-224
-235
-245
-255
-263
-270
-277
-283
-287
-290
-294
-297
-298
-299
-299
-299
-298
-298
-296
-294
-292
-289
-287
-283
-280
-276
-273
-270
-266
-263
-260
-257
-254
-251
-249
-247
-244
-242
-240
-239
-238
-236
-235
-235
-234
-233
-233
-233
-233
-233
-233
-233
-233
-233
-233
-233
-234
-235
-235
-235
-234
-234
-234
-235
-235
-235
-235
-235
-235
-235
-235
-234
-234
-235
-235
-235
-235
-235
-235
-234
-234
-235
-235
-235
-235
-235
-235
-235
-235
-235
-235
-235
-236
-236
-235
-235
-235
-235
-235
-235
-235
-235
-236
-235
-235
-235
-235
-235
-235
-235
-235
-235
-235
-235
-234
-234
-234
-234
-233
-233
-233
-233
-233
-233
-233
-232
-233
-233
-233
-232
-232
-233
-233
-233
-233
-233
-233
-233
-233
-233
-234
-234
-234
-234
-234
-234
-234
-234
-234
-234
-234
-235
-235
-235
-235
-236
-236
-236
-236
-236
-236
-237
-237
-237
-236
-236
-237
-237
-237
-237
-236
-236
-236
-237
-236
-236
-236
-236
-236
-236
-236
-235
-234
-234
-234
-234
-234
-234
-235
-234
-234
-234
-234
-234
-233
-233
-233
-233
-233
-233
-233
-233
-233
-233
-233
-233
-233
-232
-232
-232
-232
-232
-231
-231
-231
-231
-230
-230
-230
-230
-230
-230
-230
-230
-229
-229
-229
-229
-229
-229
-229
-229
-229
-228
-228
-228
-228
-228
-227
-227
-227
-226
-226
-225
-225
-225
-225
-225
-224
-223
-223
-223
-223
-223
-222
-221
-221
-221
-221
-221
-220
-220
-220
-220
-220
-220
-220
-220
-220
-220
-220
-220
-220
-220
-220
-220
-220
-220
-220
-220
-220
-220
-220
-220
-220
-220
-220
-219
-219
-218
-218
-218
-218
-218
-218
-218
-218
-217
-217
-217
-217
-217
-216
-216
-216
-216
-215
-215
-215
-214
-215
-215
-215
-214
-214
-214
-214
-214
-213
-213
-213
-213
-214
-214
-214
-214
-214
-213
-213
-213
-212
-212
-212
-212
-212
-212
-212
-212
-212
-211
-211
-211
-211
-211
-211
-211
-211
-212
-211
-211
-211
-212
-212
-211
-212
-212
-212
-213
-212
-212
-212
-213
-213
-213
-213
-213
-213
-213
-213
-213
-213
-213
-213
-213
-213
-213
-213
-213
-213
-214
-214
-214
-214
-214
-214
-215
-215
-215
-214
-214
-214
-214
-214
-214
-215
-215
-214
-214
-214
-214
-214
-214
-214
-214
-214
-213
-213
-213
-213
-212
-213
-212
-213
-212
-212
-212
-212
-212
-212
-211
-211
-212
-212
-212
-212
-213
-213
-213
-213
-214
-214
-214
-214
-215
-215
-216
-216
-216
-218
-218
-218
-219
-219
-219
-220
-221
-221
-222
-222
-223
-223
-224
-224
-225
-226
-226
-226
-227
-227
-228
-228
-229
-229
-230
-230
-230
-230
-231
-232
-232
-233
-233
-233
-233
-234
-234
-234
-234
-234
-234
-234
-234
-234
-234
-234
-234
-234
-234
-234
-234
-235
-235
-235
-235
-235
-235
-235
-235
-236
-236
-236
-237
-237
-237
-236
-237
-237
-237
-237
-237
-236
-236
-236
-236
-236
-236
-236
-236
-236
-236
-236
-236
-236
-236
-236
-236
-235
-235
-235
-235
-235
-235
-235
-235
-235
-234
-234
-234
-234
-234
-234
-234
-234
-233
-233
-233
-233
-233
-233
-233
-232
-232
-232
-232
-232
-233
-232
-232
-232
-232
-232
-232
-232
-232
-232
-232
-231
-231
-231
-231
-231
-230
-230
-230
-230
-230
-229
-229
-229
-229
-229
-229
-229
-229
-229
-229
-228
-228
-228
-228
-229
-229
-229
-229
-228
-228
-227
-227
-227
-227
-227
-226
-226
-226
-226
-226
-226
-226
-225
-225
-225
-225
-225
-225
-224
-224
-224
-224
-224
-224
-224
-225
-225
-225
-225
-226
-226
-226
-226
-227
-227
-228
-228
-228
-229
-229
-229
-230
-230
-230
-230
-230
-230
-230
-231
-231
-230
-230
-230
-230
-230
-230
-230
-230
-230
-230
-230
-230
-229
-229
-229
-229
-229
-229
-229
-229
-229
-229
-230
-230
-230
-230
-230
-230
-230
-230
-231
-231
-231
-231
-231
-232
-232
-232
-233
-233
-233
-233
-233
-234
-234
-234
-234
-234
-235
-235
-235
-235
-235
-235
-235
-236
-235
-235
-235
-235
-235
-234
-234
-233
-233
-233
-233
-233
-233
-233
-233
-234
-234
-234
-234
-234
-234
-234
-235
-236
-236
-236
-236
-236
-236
-236
-237
-237
-237
-237
-237
-237
-237
-237
-237
-237
-237
-237
-237
-236
-236
-236
-236
-236
-236
-236
-236
-236
-236
-236
-236
-237
-237
-237
-237
-236
-237
-237
-237
-237
-237
-238
-238
-238
-237
-237
-238
-238
-237
-237
-237
-236
-236
-236
-235
-235
-234
-234
-233
-233
-232
-233
-232
-232
-231
-231
-231
-230
-230
-229
-229
-229
-229
-228
-228
-227
-227
-228
-227
-227
-227
-226
-226
-226
-225
-225
-225
-225
-224
-224
-224
-224
-224
-223
-223
-223
-223
-223
-223
-222
-222
-221
-221
-221
-221
-220
-220
-220
-220
-219
-219
-219
-219
-219
-218
-218
-218
-218
-218
-218
-218
-217
-217
-217
-217
-218
-218
-218
-219
-218
-218
-219
-219
-220
-219
-220
-220
-221
-220
-221
-221
-222
-222
-223
-222
-223
-223
-223
-224
-223
-223
-224
-224
-225
-225
-225
-226
-226
-227
-226
-227
-227
-228
-229
-229
-230
-230
-231
-232
-233
-233
-234
-235
-235
-236
-238
-238
-239
-239
-240
-240
-241
-241
-241
-242
-242
-243
-243
-243
-243
-243
-243
-243
-243
-243
-243
-243
-243
-243
-242
-242
-242
-242
-242
-241
-241
-241
-241
-241
-241
-241
-241
-241
-242
-242
-242
-242
-242
-242
-243
-243
-243
-243
-243
-243
-243
-243
-243
-243
-243
-243
-243
-243
-243
-242
-242
-242
-242
-242
-242
-242
-242
-242
-242
-242
-242
-243
-244
-244
-244
-245
-247
-248
-248
-249
-251
-252
-253
-254
-255
-255
-256
-257
-257
-257
-256
-255
-254
-251
-247
-244
-240
-234
-228
-221
-212
-204
-193
-182
-169
-158
-145
-131
-116
-101
-88
-73
-60
-47
-36
-26
-19
-11
-7
-3
-2
-2
-4
-9
-16
-24
-33
-45
-58
-71
-85
-101
-116
-130
-146
-161
-176
-190
-203
-217
-229
-239
-250
-259
-268
-275
-282
-287
-292
-296
-299
-301
-303
-304
-304
-304
-304
-302
-301
-298
-296
-293
-290
-287
-284
-281
-277
-274
-271
-269
-265
-262
-260
-257
-255
-253
-251
-249
-248
-246
-246
-245
-245
-245
-244
-243
-243
-243
-244
-244
-244
-244
-244
-244
-244
-244
-244
-244
-244
-243
-243
-244
-244
-243
-243
-243
-242
-242
-242
-242
-241
-242
-242
-242
-242
-242
-242
-243
-243
-243
-243
-243
-243
-243
-244
-244
-244
-244
-244
-245
-245
-245
-245
-246
-246
-246
-246
-246
-245
-245
-245
-246
-246
-246
-246
-246
-246
-244
-244
-244
-244
-244
-244
-244
-244
-244
-244
-244
-244
-244
-244
-243
-243
-243
-244
-244
-244
-243
-243
-243
-243
-243
-243
-243
-243
-243
-243
-243
-243
-244
-244
-244
-244
-245
-245
-245
-246
-246
-246
-246
-246
-247
-247
-247
-246
-246
-246
-246
-246
-246
-245
-245
-246
-245
-245
-245
-245
-245
-245
-245
-245
-245
-245
-245
-245
-246
-246
-245
-246
-246
-245
-246
-246
-246
-246
-246
-246
-245
-245
-246
-245
-245
-245
-244
-244
-244
-244
-244
-244
-244
-245
-245
-245
-245
-245
-246
-246
-246
-246
-246
-247
-247
-247
-247
-247
-247
-247
-248
-248
-248
-248
-248
-248
-248
-247
-247
-247
-246
-246
-246
-246
-246
-246
-245
-244
-244
-244
-244
-243
-243
-243
-242
-242
-242
-242
-242
-242
-241
-241
-241
-241
-241
-241
-241
-241
-241
-241
-241
-241
-241
-241
-241
-241
-241
-241
-241
-241
-241
-241
-241
-241
-241
-241
-240
-240
-240
-240
-240
-239
-238
-238
-238
-238
-238
-238
-236
-236
-236
-236
-235
-236
-235
-235
-235
-234
-234
-233
-233
-233
-232
-232
-232
-231
-231
-231
-231
-229
-229
-229
-229
-229
-229
-228
-227
-227
-227
-227
-227
-227
-226
-226
-226
-227
-227
-226
-226
-226
-227
-226
-226
-226
-225
-226
-226
-225
-225
-225
-224
-223
-223
-223
-223
-222
-222
-222
-222
-221
-221
-220
-220
-220
-219
-219
-219
-219
-219
-219
-219
-218
-218
-218
-219
-219
-219
-218
-219
-219
-219
-220
-219
-220
-220
-220
-219
-219
-219
-219
-219
-219
-219
-219
-219
-219
-219
-219
-219
-220
-219
-219
-219
-220
-219
-219
-220
-219
-219
-220
-220
-220
-220
-221
-221
-221
-220
-221
-221
-221
-222
-222
-221
-222
-222
-222
-222
-223
-222
-222
-222
-223
-223
-223
-222
-223
-223
-223
-224
-224
-225
-225
-225
-227
-227
-227
-227
-227
-228
-228
-230
-230
-230
-231
-231
-231
-231
-232
-231
-231
-231
-232
-232
-232
-233
-233
-233
-233
-234
-234
-235
-235
-235
-236
-237
-237
-239
-239
-239
-240
-241
-241
-242
-242
-242
-244
-244
-244
-245
-245
-245
-245
-246
-247
-247
-247
-247
-247
-248
-248
-249
-249
-248
-249
-249
-250
-250
-251
-250
-250
-251
-251
-252
-251
-252
-252
-252
-252
-252
-253
-253
-253
-253
-253
-252
-252
-252
-253
-253
-253
-253
-253
-253
-253
-253
-253
-253
-253
-253
-254
-254
-254
-254
-254
-253
-253
-253
-253
-253
-253
-253
-254
-254
-254
-253
-253
-254
-254
-254
-254
-254
-254
-254
-254
-254
-254
-254
-254
-254
-254
-254
-253
-253
-253
-253
-252
-252
-252
-252
-252
-252
-252
-252
-252
-252
-252
-252
-252
-251
-251
-251
-251
-251
-251
-251
-250
-250
-250
-250
-249
-249
-250
-249
-249
-249
-249
-248
-248
-248
-248
-249
-249
-248
-248
-248
-248
-248
-248
-248
-248
-248
-248
-247
-247
-247
-247
-247
-248
-248
-248
-248
-248
-248
-248
-249
-249
-249
-249
-249
-249
-249
-249
-249
-250
-249
-249
-249
-249
-249
-249
-250
-249
-249
-249
-249
-249
-249
-248
-248
-248
-248
-248
-248
-248
-248
-247
-247
-247
-247
-247
-247
-247
-247
-247
-247
-247
-248
-248
-248
-248
-248
-248
-249
-249
-249
-249
-250
-250
-250
-251
-251
-251
-251
-251
-252
-253
-253
-253
-252
-252
-252
-252
-252
-252
-252
-253
-253
-253
-252
-252
-252
-252
-252
-253
-252
-252
-252
-252
-253
-252
-252
-252
-251
-251
-251
-251
-251
-251
-251
-251
-250
-250
-251
-251
-250
-250
-251
-251
-251
-252
-252
-252
-252
-253
-253
-254
-254
-254
-254
-254
-254
-254
-255
-255
-255
-254
-255
-255
-255
-254
-254
-254
-254
-254
-254
-253
-253
-253
-254
-253
-253
-253
-253
-253
-253
-253
-253
-253
-253
-254
-254
-253
-253
-253
-253
-253
-253
-253
-253
-253
-252
-253
-252
-252
-251
-251
-251
-251
-250
-250
-249
-250
-249
-249
-249
-248
-248
-249
-248
-248
-247
-248
-247
-247
-247
-246
-246
-246
-245
-245
-245
-244
-244
-244
-244
-242
-242
-242
-241
-241
-241
-240
-239
-239
-239
-239
-239
-238
-237
-237
-237
-237
-237
-237
-236
-236
-235
-236
-235
-235
-234
-235
-235
-234
-234
-234
-234
-233
-233
-233
-233
-232
-232
-232
-231
-232
-232
-232
-231
-232
-232
-232
-232
-232
-233
-233
-233
-234
-233
-234
-235
-235
-236
-236
-237
-238
-239
-239
-240
-240
-240
-241
-241
-242
-242
-243
-243
-244
-245
-245
-246
-247
-247
-248
-248
-248
-249
-249
-250
-251
-251
-251
-252
-253
-253
-254
-254
-254
-254
-255
-256
-256
-256
-256
-256
-256
-256
-257
-257
-257
-257
-257
-257
-257
-257
-257
-257
-257
-257
-258
-258
-258
-258
-258
-259
-259
-259
-259
-259
-260
-260
-260
-260
-260
-261
-262
-261
-260
-260
-260
-260
-260
-259
-259
-259
-259
-258
-258
-258
-258
-258
-257
-257
-257
-257
-256
-256
-256
-256
-257
-257
-257
-256
-257
-257
-257
-257
-258
-259
-259
-261
-261
-262
-263
-264
-265
-266
-267
-268
-269
-270
-271
-271
-272
-272
-272
-271
-269
-268
-265
-262
-258
-253
-247
-239
-232
-223
-213
-202
-189
-177
-164
-149
-134
-120
-105
-90
-76
-62
-50
-39
-30
-22
-17
-12
-10
-10
-11
-14
-21
-28
-38
-49
-62
-75
-90
-105
-121
-136
-152
-169
-184
-199
-214
-226
-239
-251
-263
-272
-281
-290
-297
-303
-308
-313
-316
-319
-321
-322
-323
-323
-322
-321
-319
-318
-315
-312
-309
-306
-303
-299
-295
-291
-288
-284
-282
-278
-275
-272
-270
-267
-265
-264
-262
-261
-260
-259
-258
-257
-257
-257
-257
-256
-256
-256
-256
-256
-256
-256
-257
-257
-257
-257
-258
-257
-257
-257
-257
-257
-257
-257
-257
-257
-257
-257
-257
-257
-257
-257
-257
-257
-257
-258
-258
-257
-258
-258
-258
-258
-258
-257
-257
-257
-257
-257
-257
-257
-257
-257
-257
-257
-257
-257
-257
-257
-257
-257
-257
-257
-257
-258
-258
-258
-258
-259
-259
-259
-259
-259
-259
-259
-259
-259
-259
-259
-259
-258
-258
-258
-258
-257
-258
-258
-256
-256
-256
-256
-256
-255
-254
-254
-254
-254
-253
-253
-254
-254
-253
-253
-253
-253
-253
-254
-255
-255
-255
-255
-255
-255
-255
-255
-256
-256
-256
-256
-257
-256
-256
-257
-257
-257
-258
-257
-257
-257
-258
-258
-257
-257
-257
-257
-257
-257
-257
-257
-257
-256
-256
-256
-256
-255
-255
-255
-255
-254
-254
-254
-253
-253
-252
-252
-252
-252
-252
-252
-252
-252
-251
-251
-251
-251
-251
-251
-250
-250
-250
-250
-250
-250
-250
-250
-250
-250
-250
-250
-250
-250
-250
-250
-250
-250
-250
-249
-249
-250
-250
-250
-250
-250
-249
-249
-249
-249
-249
-249
-249
-249
-249
-249
-249
-249
-248
-248
-248
-248
-248
-246
-246
-246
-246
-245
-245
-245
-244
-244
-244
-243
-242
-242
-242
-242
-242
-241
-240
-240
-240
-240
-241
-239
-240
-240
-240
-239
-239
-239
-239
-239
-239
-239
-239
-239
-239
-238
-238
-239
-238
-238
-238
-237
-238
-238
-237
-237
-236
-236
-236
-235
-234
-234
-233
-233
-233
-233
-231
-231
-231
-230
-229
-229
-229
-229
-227
-227
-227
-227
-227
-225
-225
-225
-225
-224
-224
-223
-223
-222
-222
-222
-221
-220
-220
-220
-220
-219
-219
-219
-218
-218
-217
-217
-217
-217
-216
-216
-217
-217
-217
-216
-216
-217
-217
-217
-217
-217
-217
-218
-218
-218
-218
-219
-219
-220
-220
-220
-220
-220
-220
-220
-220
-219
-219
-219
-219
-219
-219
-219
-219
-218
-218
-218
-218
-218
-218
-217
-217
-217
-216
-216
-217
-216
-216
-216
-215
-215
-216
-216
-216
-215
-215
-216
-216
-216
-216
-216
-216
-216
-217
-217
-216
-217
-217
-217
-218
-218
-217
-218
-219
-219
-220
-220
-220
-221
-221
-222
-222
-223
-223
-224
-224
-225
-225
-226
-227
-227
-228
-228
-228
-230
-230
-230
-231
-232
-232
-232
-233
-233
-234
-234
-235
-235
-236
-236
-236
-236
-237
-237
-237
-238
-238
-238
-238
-239
-239
-239
-240
-240
-240
-241
-241
-241
-241
-241
-241
-242
-242
-242
-242
-243
-243
-243
-244
-244
-244
-245
-244
-245
-245
-245
-246
-246
-246
-247
-247
-247
-247
-247
-248
-248
-248
-248
-248
-248
-249
-249
-249
-249
-248
-248
-248
-248
-248
-248
-248
-248
-247
-247
-247
-247
-247
-248
-248
-248
-248
-248
-248
-248
-248
-248
-248
-248
-248
-248
-248
-248
-248
-248
-247
-247
-248
-248
-247
-247
-246
-246
-246
-246
-245
-245
-245
-245
-245
-245
-245
-245
-244
-244
-244
-243
-243
-244
-244
-244
-244
-244
-244
-245
-245
-245
-245
-245
-245
-246
-246
-246
-246
-246
-246
-245
-245
-245
-245
-244
-244
-243
-243
-243
-243
-243
-243
-241
-241
-241
-241
-241
-241
-241
-241
-241
-241
-241
-240
-240
-240
-240
-240
-240
-240
-241
-241
-240
-240
-240
-240
-240
-240
-240
-240
-239
-239
-239
-240
-239
-239
-239
-238
-238
-238
-238
-237
-237
-237
-237
-237
-236
-236
-236
-236
-236
-236
-237
-237
-237
-236
-236
-236
-236
-236
-237
-237
-237
-237
-237
-237
-238
-238
-238
-238
-238
-238
-238
-238
-239
-239
-239
-239
-239
-239
-240
-240
-241
-241
-241
-241
-241
-241
-241
-241
-241
-242
-242
-242
-242
-242
-242
-243
-243
-242
-242
-242
-242
-243
-242
-242
-242
-242
-242
-242
-242
-243
-243
-243
-243
-243
-243
-244
-244
-244
-244
-244
-245
-245
-245
-244
-245
-245
-245
-245
-244
-244
-244
-244
-243
-243
-243
-243
-243
-242
-242
-242
-242
-242
-242
-242
-241
-241
-241
-241
-241
-241
-241
-241
-241
-241
-241
-241
-241
-240
-240
-240
-240
-240
-239
-239
-239
-239
-238
-238
-237
-237
-236
-236
-235
-235
-234
-234
-234
-234
-233
-233
-232
-232
-231
-231
-232
-231
-231
-230
-230
-230
-230
-230
-229
-229
-229
-229
-229
-229
-229
-229
-229
-228
-229
-228
-228
-228
-228
-228
-227
-228
-228
-227
-227
-227
-226
-226
-225
-225
-225
-223
-223
-222
-222
-221
-221
-220
-220
-219
-219
-218
-218
-218
-218
-217
-217
-217
-217
-217
-217
-218
-218
-218
-218
-219
-219
-219
-219
-220
-220
-220
-221
-222
-221
-222
-223
-224
-223
-224
-225
-225
-225
-226
-226
-226
-227
-227
-227
-228
-228
-228
-229
-229
-230
-230
-231
-231
-232
-233
-234
-234
-235
-235
-236
-237
-238
-239
-239
-240
-241
-242
-242
-243
-244
-244
-245
-245
-245
-246
-246
-246
-246
-246
-246
-246
-247
-247
-247
-247
-247
-248
-248
-248
-248
-248
-247
-248
-248
-248
-248
-248
-248
-248
-248
-248
-248
-248
-248
-248
-247
-247
-247
-247
-246
-247
-247
-247
-247
-247
-247
-247
-247
-246
-246
-246
-246
-246
-246
-246
-246
-246
-246
-246
-246
-245
-245
-244
-244
-244
-243
-244
-244
-245
-246
-246
-247
-247
-249
-250
-251
-252
-253
-254
-255
-256
-257
-258
-258
-259
-258
-258
-256
-253
-251
-247
-243
-237
-231
-223
-215
-205
-194
-183
-171
-159
-145
-130
-117
-102
-87
-73
-60
-47
-36
-26
-18
-11
-7
-3
-3
-3
-5
-10
-18
-26
-36
-47
-60
-73
-88
-103
-119
-133
-148
-163
-177
-192
-205
-217
-229
-240
-249
-258
-267
-274
-280
-286
-290
-294
-297
-300
-301
-302
-302
-303
-302
-301
-299
-298
-295
-294
-291
-288
-285
-282
-279
-276
-274
-271
-269
-266
-263
-261
-258
-257
-254
-253
-251
-251
-249
-247
-247
-247
-245
-245
-245
-244
-244
-243
-243
-243
-243
-243
-243
-243
-243
-243
-243
-243
-243
-244
-244
-244
-243
-243
-243
-243
-243
-243
-243
-243
-243
-243
-243
-244
-244
-244
-243
-243
-243
-243
-243
-243
-243
-243
-243
-242
-242
-242
-242
-241
-241
-242
-242
-242
-240
-241
-241
-241
-241
-240
-240
-240
-240
-240
-240
-239
-239
-239
-239
-239
-239
-239
-239
-239
-239
-240
-240
-240
-241
-241
-241
-241
-241
-241
-241
-241
-242
-242
-242
-242
-241
-242
-242
-242
-242
-242
-242
-242
-242
-241
-242
-242
-242
-242
-241
-241
-241
-241
-241
-241
-241
-241
-241
-241
-240
-240
-240
-240
-240
-240
-240
-240
-239
-239
-239
-239
-239
-239
-238
-237
-237
-237
-237
-237
-237
-238
-238
-238
-237
-237
-237
-237
-238
-238
-237
-237
-237
-238
-238
-238
-238
-238
-238
-238
-238
-238
-238
-238
-238
-238
-238
-238
-239
-239
-239
-239
-239
-239
-239
-239
-239
-239
-238
-238
-238
-238
-238
-238
-237
-237
-237
-237
-237
-237
-237
-236
-236
-236
-235
-235
-235
-235
-235
-234
-234
-234
-233
-233
-233
-232
-232
-231
-231
-231
-230
-230
-229
-229
-229
-229
-229
-229
-229
-229
-228
-228
-228
-228
-228
-228
-228
-228
-228
-227
-227
-228
-228
-228
-228
-228
-228
-227
-226
-226
-226
-226
-226
-226
-226
-225
-225
-224
-224
-223
-223
-223
-223
-221
-221
-221
-221
-221
-220
-220
-220
-219
-218
-218
-217
-217
-217
-216
-216
-215
-215
-215
-214
-214
-213
-212
-212
-212
-211
-211
-210
-210
-210
-209
-209
-208
-208
-208
-207
-207
-206
-206
-206
-205
-204
-204
-203
-203
-203
-201
-201
-200
-200
-200
-199
-199
-198
-197
-197
-197
-197
-197
-197
-196
-196
-196
-195
-195
-196
-196
-196
-196
-197
-196
-197
-197
-198
-198
-198
-198
-198
-199
-199
-199
-199
-199
-199
-199
-199
-199
-199
-198
-198
-198
-198
-197
-197
-197
-197
-196
-196
-197
-196
-195
-196
-196
-196
-195
-196
-196
-196
-195
-195
-196
-196
-195
-196
-196
-196
-197
-196
-196
-197
-197
-197
-198
-198
-197
-198
-199
-199
-200
-200
-200
-201
-202
-202
-203
-202
-203
-203
-204
-204
-204
-205
-205
-206
-206
-207
-207
-208
-208
-208
-210
-210
-210
-210
-211
-211
-212
-212
-212
-213
-213
-214
-214
-214
-214
-214
-215
-215
-214
-214
-214
-214
-215
-215
-215
-215
-215
-215
-215
-215
-215
-216
-216
-216
-216
-216
-216
-217
-217
-217
-217
-218
-218
-218
-218
-219
-219
-220
-220
-220
-221
-221
-221
-221
-221
-222
-222
-222
-222
-223
-223
-222
-222
-222
-223
-223
-223
-224
-224
-223
-223
-224
-224
-224
-224
-224
-225
-224
-224
-224
-224
-224
-225
-225
-225
-225
-225
-224
-224
-224
-224
-225
-225
-225
-225
-225
-225
-225
-224
-224
-224
-224
-224
-224
-224
-223
-223
-223
-223
-223
-222
-222
-222
-223
-223
-223
-223
-222
-222
-222
-223
-223
-223
-222
-222
-222
-223
-223
-223
-222
-223
-223
-223
-222
-223
-223
-223
-222
-222
-222
-222
-221
-221
-221
-220
-220
-220
-219
-219
-219
-218
-218
-218
-218
-218
-216
-216
-216
-216
-216
-216
-216
-216
-216
-216
-216
-216
-216
-216
-216
-216
-216
-216
-216
-216
-217
-217
-217
-217
-217
-216
-216
-217
-217
-217
-217
-217
-216
-216
-216
-216
-216
-216
-215
-215
-215
-215
-215
-215
-215
-215
-214
-214
-214
-214
-214
-214
-214
-214
-214
-214
-214
-214
-214
-214
-214
-214
-214
-214
-214
-214
-214
-214
-214
-214
-214
-214
-214
-214
-214
-214
-214
-213
-213
-213
-212
-212
-212
-212
-212
-212
-212
-212
-213
-213
-213
-212
-212
-212
-211
-211
-211
-211
-211
-211
-212
-212
-212
-211
-211
-211
-211
-212
-212
-211
-212
-212
-212
-212
-212
-213
-213
-213
-213
-213
-213
-214
-215
-215
-215
-215
-215
-215
-214
-214
-214
-214
-214
-214
-213
-213
-213
-213
-213
-213
-212
-212
-212
-211
-211
-210
-210
-210
-210
-210
-210
-210
-209
-209
-209
-209
-208
-208
-208
-208
-208
-208
-207
-207
-207
-207
-207
-206
-206
-205
-205
-205
-205
-205
-204
-204
-203
-203
-204
-203
-203
-203
-202
-202
-202
-202
-202
-202
-201
-201
-201
-201
-200
-200
-200
-200
-198
-198
-198
-197
-197
-197
-197
-196
-196
-195
-195
-194
-194
-193
-193
-193
-192
-192
-191
-191
-191
-191
-191
-191
-190
-190
-190
-190
-190
-191
-191
-191
-191
-191
-191
-191
-192
-192
-192
-193
-193
-193
-194
-193
-194
-195
-196
-195
-196
-197
-196
-197
-198
-197
-198
-198
-199
-199
-198
-199
-199
-200
-200
-201
-201
-202
-202
-202
-203
-204
-205
-205
-206
-206
-207
-209
-209
-210
-211
-211
-212
-213
-214
-215
-215
-215
-215
-216
-216
-216
-216
-217
-216
-216
-216
-216
-217
-217
-217
-217
-217
-216
-216
-216
-216
-216
-217
-217
-217
-217
-217
-217
-217
-217
-217
-217
-216
-217
-217
-217
-217
-217
-217
-217
-217
-217
-217
-217
-217
-216
-216
-216
-216
-216
-216
-216
-216
-216
-216
-217
-217
-217
-217
-217
-217
-217
-217
-217
-216
-216
-216
-216
-216
-216
-216
-216
-217
-217
-218
-219
-219
-220
-221
-222
-223
-224
-225
-226
-228
-229
-229
-230
-230
-230
-230
-228
-228
-225
-223
-219
-215
-210
-203
-197
-189
-180
-170
-161
-149
-136
-123
-110
-96
-82
-68
-55
-42
-29
-18
-8
-1
7
11
15
16
17
15
11
5
-3
-11
-22
-35
-47
-61
-75
-89
-104
-119
-132
-146
-160
-173
-185
-196
-207
-217
-226
-234
-241
-247
-253
-258
-262
-265
-266
-269
-269
-271
-271
-270
-269
-268
-266
-264
-261
-259
-257
-254
-250
-247
-245
-242
-240
-236
-234
-232
-230
-229
-226
-225
-223
-221
-220
-220
-219
-219
-217
-217
-217
-216
-216
-216
-216
-216
-216
-216
-215
-215
-215
-215
-215
-215
-216
-216
-216
-216
-216
-215
-215
-215
-215
-215
-215
-216
-216
-215
-215
-215
-215
-215
-214
-214
-214
-214
-213
-213
-213
-213
-213
-213
-213
-212
-212
-212
-212
-212
-212
-212
-212
-212
-212
-212
-212
-212
-212
-212
-212
-212
-212
-212
-212
-212
-212
-213
-213
-212
-212
-212
-212
-212
-212
-212
-212
-212
-212
-212
-212
-212
-212
-212
-212
-212
-210
-210
-210
-210
-210
-210
-210
-210
-211
-211
-211
-211
-211
-211
-211
-211
-211
-211
-212
-212
-211
-212
-212
-212
-212
-212
-212
-212
-212
-212
-212
-212
-212
-212
-213
-213
-213
-213
-212
-212
-212
-212
-212
-212
-212
-212
-212
-212
-212
-212
-212
-212
-212
-212
-212
-212
-212
-212
-212
-212
-212
-212
-212
-212
-211
-211
-211
-211
-211
-211
-211
-210
-210
-210
-209
-209
-209
-209
-209
-209
-208
-208
-209
-209
-209
-209
-209
-209
-209
-209
-209
-209
-209
-209
-209
-209
-209
-209
-209
-208
-208
-208
-208
-208
-207
-207
-207
-207
-206
-207
-207
-207
-207
-206
-206
-206
-206
-206
-205
-205
-205
-205
-204
-204
-204
-204
-204
-204
-204
-204
-204
-202
-202
-202
-202
-202
-202
-201
-201
-201
-201
-201
-201
-201
-201
-200
-199
-199
-199
-199
-198
-198
-198
-198
-198
-197
-197
-197
-196
-196
-196
-195
-195
-195
-195
-195
-194
-194
-194
-194
-194
-193
-193
-192
-191
-191
-191
-190
-190
-189
-189
-188
-188
-186
-186
-185
-185
-185
-184
-183
-182
-182
-181
-181
-180
-180
-179
-179
-178
-178
-177
-177
-176
-176
-176
-175
-175
-173
-173
-173
-172
-172
-172
-171
-171
-170
-170
-170
-169
-169
-169
-168
-168
-167
-167
-166
-166
-166
-164
-164
-164
-164
-163
-163
-163
-162
-162
-162
-162
-162
-162
-162
-162
-162
-162
-162
-162
-162
-162
-162
-162
-162
-162
-162
-162
-162
-162
-161
-161
-161
-161
-161
-160
-160
-161
-160
-160
-160
-160
-159
-159
-159
-159
-159
-159
-159
-159
-158
-159
-159
-159
-159
-159
-159
-159
-159
-160
-160
-159
-160
-160
-160
-161
-161
-162
-162
-162
-163
-163
-163
-163
-163
-164
-164
-164
-164
-165
-166
-166
-166
-167
-167
-167
-167
-168
-168
-169
-169
-169
-169
-170
-170
-171
-171
-172
-172
-172
-172
-173
-173
-173
-174
-175
-175
-175
-175
-175
-176
-177
-177
-177
-177
-178
-178
-178
-178
-178
-178
-179
-179
-179
-179
-179
-179
-179
-179
-179
-179
-179
-179
-179
-179
-179
-179
-179
-180
-180
-180
-180
-179
-179
-179
-179
-179
-179
-179
-179
-179
-179
-179
-179
-180
-180
-180
-180
-180
-181
-181
-181
-181
-181
-181
-181
-182
-182
-181
-181
-181
-182
-182
-182
-182
-182
-182
-182
-182
-182
-182
-182
-182
-181
-181
-181
-181
-180
-180
-180
-180
-180
-180
-180
-180
-180
-180
-180
-180
-179
-179
-179
-179
-180
-180
-180
-179
-179
-180
-180
-180
-180
-179
-179
-180
-180
-180
-179
-179
-179
-179
-179
-179
-178
-178
-178
-178
-178
-178
-178
-178
-178
-177
-177
-177
-177
-177
-177
-176
-176
-176
-176
-175
-175
-175
-175
-174
-174
-174
-174
-173
-173
-172
-172
-172
-172
-172
-172
-172
-172
-172
-172
-172
-172
-172
-173
-173
-173
-173
-173
-173
-173
-173
-173
-173
-173
-173
-173
-173
-173
-173
-173
-173
-173
-173
-172
-172
-172
-172
-172
-172
-172
-171
-171
-171
-171
-170
-170
-171
-171
-171
-171
-171
-171
-171
-172
-172
-172
-173
-173
-173
-173
-173
-173
-173
-174
-175
-175
-175
-175
-175
-175
-175
-175
-175
-175
-175
-176
-176
-176
-176
-176
-175
-175
-175
-175
-176
-176
-176
-176
-176
-175
-175
-175
-175
-175
-175
-175
-174
-174
-175
-175
-175
-175
-175
-175
-175
-175
-175
-174
-174
-174
-175
-175
-175
-175
-175
-175
-176
-176
-176
-175
-175
-175
-175
-175
-175
-176
-176
-175
-175
-175
-175
-176
-176
-176
-176
-175
-175
-175
-175
-175
-176
-176
-176
-175
-175
-175
-174
-174
-174
-174
-173
-173
-172
-172
-172
-171
-171
-171
-170
-169
-169
-168
-169
-168
-168
-168
-167
-166
-167
-167
-166
-166
-166
-165
-166
-166
-166
-165
-165
-166
-166
-166
-165
-165
-166
-166
-165
-165
-165
-165
-165
-165
-164
-164
-164
-163
-162
-162
-162
-162
-161
-161
-160
-160
-159
-159
-159
-159
-159
-157
-158
-157
-157
-158
-158
-158
-158
-158
-157
-157
-158
-158
-158
-157
-158
-158
-158
-158
-159
-158
-158
-159
-158
-159
-159
-159
-159
-160
-160
-160
-160
-161
-161
-162
-161
-161
-162
-162
-163
-163
-163
-164
-164
-164
-165
-165
-166
-166
-167
-168
-168
-169
-170
-170
-171
-171
-172
-173
-174
-175
-176
-176
-177
-177
-177
-179
-179
-179
-179
-180
-180
-179
-181
-181
-181
-180
-180
-180
-180
-180
-180
-180
-180
-181
-182
-181
-181
-181
-181
-181
-181
-181
-181
-181
-181
-181
-181
-181
-181
-181
-181
-182
-182
-181
-181
-181
-181
-181
-182
-182
-182
-182
-182
-182
-182
-182
-182
-182
-182
-182
-182
-182
-183
-183
-183
-183
-183
-183
-183
-183
-183
-183
-183
-183
-183
-184
-184
-185
-185
-186
-187
-188
-189
-190
-191
-192
-192
-194
-195
-195
-195
-195
-195
-194
-193
-190
-188
-185
-181
-176
-170
-163
-156
-148
-138
-129
-118
-106
-93
-80
-66
-53
-40
-27
-14
-2
8
18
26
32
37
40
42
42
40
36
31
23
14
3
-9
-22
-35
-49
-63
-77
-92
-105
-119
-131
-145
-156
-167
-178
-187
-195
-203
-211
-217
-222
-226
-231
-233
-236
-238
-239
-239
-239
-239
-239
-238
-236
-234
-232
-229
-227
-225
-222
-219
-216
-213
-211
-208
-206
-203
-201
-199
-197
-195
-193
-192
-191
-190
-189
-189
-187
-187
-186
-186
-186
-185
-186
-186
-186
-186
-186
-185
-185
-186
-186
-186
-186
-187
-187
-187
-187
-186
-186
-186
-186
-186
-186
-186
-186
-186
-185
-185
-185
-185
-185
-185
-185
-185
-184
-184
-184
-184
-184
-184
-183
-183
-183
-183
-183
-183
-183
-185
-185
-185
-185
-185
-185
-185
-185
-185
-185
-185
-185
-185
-185
-185
-185
-185
-185
-184
-184
-184
-185
-184
-184
-184
-184
-184
-184
-184
-184
-184
-185
-185
-185
-185
-185
-185
-185
-185
-185
-185
-185
-185
-185
-186
-186
-186
-186
-186
-186
-185
-185
-185
-185
-185
-185
-185
-185
-185
-185
-185
-185
-184
-184
-184
-184
-184
-184
-184
-184
-184
-183
-183
-183
-183
-183
-183
-183
-183
-183
-183
-183
-183
-182
-183
-183
-183
-183
-183
-183
-183
-183
-183
-184
-184
-184
-184
-184
-184
-184
-184
-184
-184
-184
-183
-183
-183
-183
-183
-183
-182
-182
-182
-182
-183
-182
-182
-182
-182
-182
-181
-181
-181
-181
-181
-181
-181
-181
-181
-180
-180
-180
-180
-180
-180
-181
-180
-180
-180
-180
-181
-181
-181
-181
-181
-181
-181
-181
-181
-181
-181
-180
-180
-180
-180
-180
-180
-179
-179
-179
-179
-178
-178
-178
-178
-178
-178
-178
-176
-176
-176
-176
-176
-175
-175
-174
-174
-174
-174
-174
-174
-173
-172
-172
-172
-172
-172
-171
-171
-171
-171
-170
-169
-169
-168
-168
-168
-168
-168
-167
-166
-166
-165
-165
-165
-165
-164
-164
-163
-162
-162
-162
-161
-161
-161
-161
-161
-160
-161
-160
-160
-160
-160
-160
-160
-160
-160
-160
-160
-160
-160
-160
-159
-158
-158
-158
-158
-158
-158
-157
-157
-157
-157
-156
-156
-156
-155
-155
-154
-154
-154
-154
-154
-153
-153
-153
-153
-153
-153
-153
-153
-151
-151
-151
-151
-151
-151
-151
-151
-151
-151
-151
-151
-151
-150
-150
-150
-150
-150
-149
-149
-149
-150
-150
-150
-150
-150
-150
-150
-150
-150
-150
-150
-151
-151
-151
-150
-151
-151
-151
-151
-152
-151
-151
-151
-152
-152
-151
-151
-152
-152
-151
-151
-151
-152
-151
-151
-151
-152
-152
-151
-151
-152
-152
-152
-152
-153
-153
-154
-154
-154
-155
-155
-155
-156
-156
-157
-157
-158
-159
-159
-160
-160
-160
-162
-162
-162
-163
-163
-164
-164
-164
-165
-165
-166
-167
-167
-167
-167
-168
-168
-168
-168
-168
-168
-169
-169
-169
-169
-170
-170
-170
-170
-170
-170
-171
-171
-172
-172
-172
-172
-173
-173
-173
-173
-173
-175
-175
-175
-175
-176
-176
-176
-176
-178
-178
-178
-179
-179
-179
-179
-180
-180
-180
-181
-181
-181
-181
-181
-182
-182
-182
-182
-182
-181
-181
-181
-181
-180
-180
-181
-181
-181
-180
-180
-180
-180
-180
-180
-180
-180
-180
-180
-180
-181
-181
-181
-181
-181
-181
-182
-182
-182
-182
-182
-182
-183
-183
-183
-183
-183
-183
-183
-183
-182
-182
-183
-183
-183
-183
-183
-182
-182
-182
-182
-182
-182
-182
-182
-182
-182
-181
-181
-181
-181
-181
-181
-181
-180
-180
-180
-180
-179
-179
-179
-179
-178
-179
-179
-179
-179
-179
-178
-178
-178
-178
-178
-178
-178
-178
-178
-178
-177
-177
-178
-178
-178
-177
-177
-177
-177
-177
-176
-176
-176
-175
-175
-175
-175
-175
-174
-174
-174
-174
-173
-173
-172
-172
-171
-171
-171
-171
-170
-170
-170
-170
-170
-169
-169
-169
-169
-169
-169
-169
-169
-169
-168
-168
-168
-167
-167
-168
-168
-168
-168
-168
-168
-168
-167
-167
-167
-167
-167
-167
-167
-167
-167
-167
-167
-167
-167
-167
-167
-167
-166
-166
-166
-166
-166
-166
-166
-166
-167
-167
-167
-167
-167
-167
-168
-168
-168
-168
-169
-170
-170
-170
-170
-171
-171
-171
-171
-171
-171
-171
-172
-172
-172
-172
-172
-172
-171
-171
-171
-171
-171
-171
-170
-170
-170
-170
-170
-171
-171
-171
-171
-171
-171
-171
-172
-172
-172
-172
-173
-174
-174
-174
-174
-175
-176
-176
-176
-176
-176
-177
-177
-177
-177
-177
-178
-178
-178
-178
-178
-177
-177
-177
-177
-178
-178
-177
-177
-176
-176
-177
-176
-176
-175
-175
-175
-175
-174
-174
-173
-173
-173
-173
-172
-172
-171
-171
-171
-171
-170
-170
-170
-170
-170
-169
-169
-169
-169
-169
-168
-168
-168
-167
-167
-167
-167
-166
-167
-167
-166
-166
-166
-165
-165
-165
-165
-164
-164
-164
-163
-164
-164
-163
-163
-162
-162
-162
-163
-162
-162
-162
-162
-161
-162
-162
-162
-162
-162
-162
-162
-163
-163
-163
-163
-162
-162
-163
-163
-163
-162
-163
-163
-163
-162
-162
-162
-161
-162
-162
-161
-161
-161
-162
-161
-161
-162
-162
-162
-162
-163
-163
-164
-164
-164
-165
-166
-166
-168
-169
-169
-170
-171
-171
-172
-173
-174
-174
-175
-176
-177
-177
-178
-178
-178
-179
-179
-179
-180
-180
-181
-181
-182
-182
-182
-183
-183
-184
-184
-184
-185
-185
-185
-185
-185
-186
-186
-186
-186
-186
-187
-187
-187
-187
-187
-187
-188
-188
-188
-188
-188
-188
-188
-188
-188
-188
-188
-188
-188
-188
-188
-188
-188
-188
-188
-188
-188
-188
-188
-188
-188
-188
-188
-189
-189
-189
-189
-189
-189
-189
-189
-189
-189
-188
-189
-189
-189
-189
-189
-189
-188
-188
-188
-188
-188
-188
-189
-189
-190
-191
-192
-193
-193
-194
-196
-196
-197
-198
-198
-199
-200
-200
-200
-200
-199
-198
-195
-193
-190
-186
-181
-176
-169
-162
-154
-145
-136
-126
-115
-103
-90
-77
-64
-52
-39
-27
-16
-6
3
11
16
20
22
23
24
21
17
11
4
-5
-15
-26
-40
-52
-65
-80
-93
-107
-119
-132
-144
-156
-167
-178
-188
-197
-205
-212
-219
-226
-230
-235
-238
-242
-244
-246
-247
-247
-248
-248
-247
-246
-244
-243
-241
-238
-236
-233
-231
-228
-225
-222
-219
-216
-214
-212
-210
-207
-205
-203
-201
-200
-199
-198
-196
-195
-195
-194
-193
-193
-192
-192
-191
-191
-191
-190
-191
-191
-191
-190
-190
-191
-190
-190
-190
-190
-191
-191
-192
-192
-192
-192
-193
-193
-193
-193
-194
-194
-194
-195
-195
-195
-195
-195
-196
-196
-196
-196
-196
-196
-196
-196
-196
-196
-196
-195
-195
-196
-196
-195
-195
-195
-195
-194
-194
-194
-194
-194
-194
-194
-193
-193
-193
-193
-192
-192
-192
-192
-192
-192
-192
-192
-192
-192
-192
-192
-192
-191
-192
-192
-192
-192
-192
-192
-192
-192
-192
-193
-192
-192
-192
-193
-193
-193
-193
-193
-194
-194
-194
-194
-194
-194
-195
-195
-195
-196
-196
-195
-195
-196
-196
-196
-195
-195
-195
-195
-195
-195
-195
-195
-194
-194
-194
-194
-194
-193
-193
-193
-193
-193
-193
-194
-194
-194
-195
-195
-195
-195
-195
-195
-197
-197
-197
-197
-197
-197
-197
-197
-197
-197
-197
-198
-198
-197
-197
-197
-197
-197
-197
-197
-196
-197
-197
-197
-196
-196
-197
-197
-197
-197
-196
-196
-196
-196
-196
-195
-195
-195
-195
-195
-195
-194
-194
-194
-194
-193
-193
-193
-193
-193
-193
-192
-191
-192
-192
-192
-192
-192
-193
-192
-192
-192
-193
-193
-193
-192
-192
-193
-193
-193
-193
-193
-191
-191
-191
-191
-191
-191
-191
-190
-189
-189
-189
-188
-188
-187
-186
-186
-185
-185
-185
-185
-184
-184
-184
-183
-183
-183
-183
-182
-182
-183
-183
-183
-183
-182
-182
-182
-182
-182
-182
-181
-181
-181
-180
-180
-179
-179
-179
-178
-177
-177
-177
-176
-175
-175
-175
-175
-174
-174
-173
-173
-172
-172
-172
-172
-172
-172
-172
-171
-171
-171
-171
-171
-171
-171
-170
-171
-170
-170
-171
-171
-171
-171
-171
-171
-171
-170
-170
-170
-170
-170
-170
-170
-170
-170
-169
-169
-169
-169
-168
-167
-167
-167
-167
-166
-165
-165
-165
-165
-164
-164
-164
-164
-164
-163
-163
-163
-163
-163
-163
-163
-163
-163
-163
-163
-163
-163
-162
-162
-162
-163
-162
-162
-163
-162
-162
-162
-162
-162
-162
-162
-162
-162
-162
-162
-162
-162
-163
-163
-162
-163
-163
-163
-164
-164
-164
-165
-165
-165
-166
-166
-165
-166
-166
-167
-167
-167
-168
-168
-169
-170
-170
-171
-171
-171
-172
-172
-173
-173
-174
-174
-175
-175
-176
-177
-177
-178
-178
-179
-180
-180
-181
-181
-183
-183
-183
-184
-185
-185
-185
-186
-186
-187
-187
-188
-188
-189
-189
-189
-190
-190
-190
-190
-190
-190
-191
-191
-191
-192
-192
-191
-192
-192
-192
-193
-194
-194
-194
-194
-195
-195
-195
-196
-197
-197
-197
-197
-198
-198
-198
-199
-199
-199
-200
-200
-200
-200
-200
-199
-200
-200
-200
-200
-200
-200
-200
-200
-200
-200
-200
-200
-200
-200
-200
-200
-200
-200
-200
-199
-199
-199
-199
-200
-199
-199
-199
-200
-200
-200
-201
-201
-202
-202
-202
-203
-203
-202
-202
-202
-204
-204
-204
-204
-203
-203
-203
-203
-203
-203
-203
-203
-203
-203
-203
-203
-203
-203
-204
-203
-203
-203
-203
-204
-204
-203
-203
-203
-204
-204
-204
-204
-204
-204
-204
-204
-204
-204
-204
-204
-203
-203
-203
-203
-203
-204
-203
-203
-203
-203
-203
-203
-203
-203
-203
-202
-202
-202
-202
-202
-203
-203
-203
-203
-202
-202
-202
-202
-202
-201
-202
-202
-202
-202
-202
-202
-202
-202
-202
-202
-202
-202
-202
-202
-202
-202
-201
-201
-202
-202
-201
-201
-201
-201
-201
-200
-200
-201
-201
-200
-201
-201
-202
-202
-202
-202
-202
-202
-202
-203
-203
-203
-204
-203
-203
-203
-204
-204
-204
-204
-204
-204
-204
-203
-203
-203
-203
-203
-204
-204
-204
-205
-205
-205
-205
-205
-205
-206
-207
-207
-207
-207
-207
-207
-207
-207
-207
-208
-207
-207
-207
-207
-207
-207
-207
-207
-207
-207
-207
-207
-207
-207
-207
-207
-207
-208
-208
-208
-208
-208
-208
-209
-209
-209
-208
-209
-209
-209
-210
-210
-209
-209
-210
-210
-210
-210
-210
-210
-210
-210
-210
-210
-210
-210
-210
-210
-210
-210
-210
-210
-209
-210
-210
-210
-210
-210
-210
-210
-210
-210
-211
-211
-211
-211
-212
-211
-211
-212
-212
-212
-213
-212
-212
-212
-212
-212
-213
-213
-213
-213
-212
-212
-212
-213
-213
-213
-213
-212
-212
-212
-212
-212
-212
-212
-212
-212
-211
-211
-211
-211
-210
-210
-210
-210
-209
-209
-209
-208
-207
-207
-207
-207
-206
-207
-206
-206
-206
-206
-205
-206
-205
-205
-205
-205
-205
-205
-204
-205
-204
-204
-203
-204
-203
-203
-203
-203
-202
-202
-202
-202
-201
-200
-200
-200
-200
-200
-200
-200
-198
-198
-198
-198
-197
-197
-197
-196
-196
-195
-195
-195
-195
-195
-194
-194
-194
-193
-193
-193
-193
-193
-193
-193
-193
-192
-192
-192
-192
-192
-193
-192
-193
-192
-193
-193
-194
-194
-195
-195
-196
-196
-197
-198
-198
-199
-200
-201
-201
-202
-203
-203
-204
-204
-204
-205
-206
-207
-207
-207
-208
-208
-208
-209
-209
-210
-210
-211
-212
-213
-213
-214
-214
-215
-215
-215
-215
-216
-216
-216
-217
-217
-218
-219
-219
-219
-219
-218
-218
-218
-219
-219
-219
-219
-220
-220
-220
-220
-220
-220
-221
-221
-221
-220
-220
-220
-222
-222
-222
-222
-222
-222
-222
-222
-223
-223
-223
-223
-223
-224
-224
-224
-224
-224
-224
-223
-223
-222
-223
-223
-223
-223
-223
-222
-222
-222
-222
-221
-221
-221
-221
-220
-220
-220
-220
-220
-220
-220
-220
-220
-221
-222
-222
-223
-225
-225
-227
-228
-229
-231
-232
-234
-234
-236
-237
-238
-238
-238
-237
-235
-234
-232
-228
-224
-219
-213
-206
-197
-189
-179
-168
-156
-143
-131
-116
-102
-88
-74
-59
-46
-33
-22
-12
-4
2
7
10
11
12
9
4
-1
-11
-20
-32
-45
-58
-73
-88
-103
-118
-134
-149
-164
-178
-191
-204
-217
-228
-238
-247
-255
-262
-269
-275
-279
-283
-285
-288
-290
-290
-291
-290
-290
-288
-286
-284
-282
-279
-276
-273
-269
-266
-262
-259
-256
-253
-249
-246
-244
-241
-238
-236
-234
-233
-230
-230
-228
-227
-226
-226
-225
-225
-225
-225
-225
-225
-225
-225
-225
-225
-225
-225
-225
-225
-225
-225
-225
-226
-226
-226
-226
-225
-225
-225
-224
-224
-224
-223
-224
-224
-223
-223
-223
-223
-223
-223
-223
-223
-223
-222
-223
-223
-223
-223
-223
-224
-225
-224
-224
-225
-225
-225
-225
-225
-225
-225
-225
-225
-226
-225
-225
-225
-225
-225
-225
-225
-225
-224
-224
-224
-224
-224
-224
-224
-224
-224
-224
-224
-224
-224
-224
-223
-223
-223
-223
-223
-223
-222
-222
-222
-223
-223
-223
-223
-223
-224
-224
-224
-223
-224
-224
-224
-225
-225
-225
-225
-225
-225
-225
-225
-225
-225
-225
-225
-224
-225
-225
-224
-224
-224
-223
-223
-223
-223
-222
-222
-222
-222
-222
-222
-222
-222
-222
-223
-223
-222
-222
-222
-223
-223
-223
-223
-223
-223
-223
-223
-223
-223
-224
-224
-224
-224
-224
-224
-224
-224
-225
-225
-225
-225
-224
-224
-224
-224
-224
-223
-223
-223
-223
-222
-222
-222
-222
-222
-222
-221
-221
-221
-221
-221
-221
-221
-221
-221
-221
-221
-221
-221
-221
-220
-220
-220
-220
-220
-220
-220
-220
-220
-220
-220
-220
-220
-219
-219
-219
-219
-219
-218
-218
-218
-218
-218
-218
-218
-217
-216
-216
-216
-216
-216
-216
-216
-215
-216
-215
-215
-215
-215
-215
-215
-215
-214
-214
-213
-213
-213
-212
-212
-212
-212
-212
-211
-211
-211
-211
-210
-210
-210
-210
-209
-209
-209
-208
-208
-208
-206
-206
-206
-206
-205
-205
-205
-204
-204
-203
-203
-202
-202
-202
-201
-201
-201
-200
-200
-199
-199
-200
-199
-199
-199
-199
-198
-198
-197
-198
-197
-197
-197
-196
-197
-196
-196
-196
-195
-195
-195
-195
-195
-195
-194
-194
-194
-194
-194
-194
-194
-194
-194
-194
-194
-194
-194
-194
-194
-194
-194
-194
-194
-194
-194
-193
-193
-193
-193
-193
-193
-193
-193
-193
-193
-192
-192
-192
-192
-191
-191
-191
-191
-190
-190
-190
-190
-190
-190
-190
-190
-190
-190
-191
-191
-191
-191
-191
-191
-192
-192
-192
-192
-193
-193
-193
-193
-193
-194
-194
-194
-194
-194
-194
-195
-195
-195
-196
-195
-196
-196
-197
-197
-198
-198
-198
-200
-200
-200
-200
-201
-201
-202
-202
-202
-203
-203
-204
-204
-205
-205
-205
-206
-206
-207
-207
-208
-209
-209
-210
-210
-210
-212
-212
-212
-213
-214
-214
-214
-216
-216
-216
-216
-217
-217
-217
-218
-218
-218
-218
-218
-219
-219
-220
-220
-221
-221
-221
-221
-221
-222
-223
-223
-223
-223
-223
-223
-225
-225
-225
-225
-225
-225
-225
-225
-225
-225
-225
-225
-226
-225
-225
-226
-226
-225
-226
-226
-227
-226
-227
-227
-228
-227
-227
-228
-228
-229
-229
-229
-229
-229
-230
-231
-231
-231
-230
-230
-231
-231
-231
-230
-230
-231
-230
-230
-229
-229
-229
-229
-229
-229
-228
-228
-227
-227
-227
-227
-226
-226
-226
-226
-226
-226
-226
-226
-226
-225
-225
-225
-225
-225
-225
-224
-224
-224
-223
-223
-223
-223
-223
-222
-222
-222
-222
-222
-222
-221
-221
-221
-221
-221
-221
-221
-221
-221
-221
-221
-221
-221
-221
-221
-221
-221
-221
-220
-220
-220
-220
-219
-219
-219
-219
-218
-218
-218
-218
-217
-217
-217
-217
-217
-217
-216
-216
-215
-215
-216
-215
-215
-214
-214
-213
-214
-214
-214
-214
-214
-214
-214
-214
-214
-214
-214
-214
-214
-214
-215
-216
-215
-215
-215
-215
-215
-215
-215
-216
-216
-216
-216
-216
-216
-216
-217
-217
-217
-218
-218
-218
-218
-218
-218
-218
-219
-220
-220
-220
-220
-220
-220
-220
-221
-221
-221
-221
-221
-221
-221
-221
-221
-221
-221
-221
-221
-221
-221
-221
-221
-221
-221
-221
-221
-219
-220
-220
-221
-221
-221
-221
-221
-221
-221
-221
-221
-221
-221
-221
-221
-221
-221
-221
-222
-222
-222
-222
-222
-222
-222
-222
-222
-222
-222
-222
-222
-222
-222
-222
-222
-222
-223
-223
-223
-223
-223
-223
-223
-223
-223
-223
-223
-224
-224
-224
-224
-225
-225
-225
-225
-226
-226
-226
-226
-226
-226
-226
-226
-227
-227
-227
-226
-226
-226
-226
-226
-226
-227
-227
-226
-226
-226
-226
-225
-225
-225
-225
-225
-225
-225
-225
-225
-225
-224
-224
-224
-224
-224
-224
-224
-224
-223
-223
-222
-223
-223
-222
-222
-221
-221
-221
-220
-220
-219
-219
-218
-218
-218
-218
-217
-217
-217
-217
-216
-216
-216
-215
-215
-216
-215
-215
-215
-215
-215
-215
-214
-215
-214
-214
-213
-213
-214
-213
-213
-212
-212
-212
-212
-211
-211
-211
-211
-211
-210
-210
-210
-210
-210
-209
-208
-208
-207
-207
-207
-206
-206
-205
-205
-205
-204
-204
-203
-203
-203
-202
-202
-202
-202
-201
-201
-202
-201
-201
-202
-201
-202
-202
-202
-202
-203
-202
-202
-203
-203
-203
-203
-204
-205
-204
-205
-206
-206
-206
-206
-207
-207
-209
-209
-210
-210
-211
-211
-213
-213
-213
-215
-215
-216
-216
-218
-218
-218
-219
-219
-220
-220
-221
-222
-222
-223
-223
-223
-224
-225
-226
-226
-226
-226
-226
-227
-227
-227
-228
-228
-228
-228
-228
-228
-228
-228
-228
-228
-228
-228
-228
-228
-229
-228
-228
-228
-228
-229
-229
-228
-228
-228
-228
-228
-228
-229
-228
-228
-228
-228
-228
-228
-228
-228
-227
-227
-227
-227
-227
-227
-227
-227
-227
-227
-227
-227
-227
-227
-227
-227
-228
-228
-228
-228
-228
-229
-229
-229
-230
-231
-231
-232
-233
-235
-236
-236
-237
-238
-240
-241
-241
-242
-243
-243
-243
-242
-241
-239
-236
-232
-229
-224
-218
-211
-203
-194
-184
-174
-161
-149
-136
-123
-109
-94
-79
-64
-51
-37
-26
-14
-5
3
9
14
17
18
17
14
9
2
-8
-17
-29
-42
-57
-72
-86
-101
-117
-131
-147
-161
-176
-189
-202
-214
-225
-235
-244
-252
-260
-266
-272
-276
-280
-282
-285
-286
-288
-287
-287
-286
-285
-283
-280
-278
-275
-273
-269
-266
-263
-259
-256
-253
-249
-247
-243
-241
-238
-237
-235
-233
-232
-231
-230
-229
-228
-227
-227
-227
-227
-226
-226
-226
-226
-226
-226
-226
-226
-226
-225
-225
-225
-224
-224
-223
-223
-223
-222
-222
-222
-222
-221
-221
-221
-221
-221
-220
-220
-220
-220
-220
-220
-220
-220
-220
-220
-220
-220
-220
-219
-219
-219
-219
-219
-219
-219
-220
-220
-220
-220
-220
-220
-220
-220
-221
-221
-220
-220
-220
-220
-220
-220
-220
-220
-219
-219
-219
-219
-219
-218
-218
-218
-218
-218
-218
-218
-217
-217
-217
-217
-217
-217
-217
-217
-217
-217
-217
-217
-217
-217
-217
-217
-217
-217
-216
-217
-217
-217
-217
-217
-217
-217
-218
-218
-218
-217
-217
-217
-217
-217
-217
-217
-217
-216
-216
-216
-216
-216
-216
-216
-216
-216
-216
-215
-215
-215
-215
-215
-215
-215
-215
-215
-215
-215
-215
-215
-215
-215
-215
-215
-215
-215
-215
-215
-215
-215
-215
-215
-215
-215
-215
-214
-214
-214
-214
-214
-214
-214
-213
-213
-213
-213
-213
-213
-213
-213
-212
-212
-211
-211
-211
-212
-212
-211
-211
-211
-211
-211
-211
-210
-210
-210
-210
-210
-210
-209
-209
-209
-209
-209
-209
-209
-209
-209
-209
-209
-209
-209
-209
-209
-209
-209
-208
-208
-208
-208
-207
-207
-207
-205
-205
-205
-205
-204
-204
-204
-203
-203
-202
-202
-202
-202
-201
-201
-201
-201
-201
-201
-201
-200
-201
-201
-200
-200
-200
-200
-200
-200
-200
-199
-199
-199
-199
-198
-198
-198
-197
-196
-196
-196
-195
-195
-195
-194
-194
-194
-193
-193
-194
-194
-193
-193
-192
-192
-192
-192
-191
-191
-191
-191
-191
-189
-189
-189
-188
-187
-187
-187
-187
-186
-185
-185
-184
-184
-184
-183
-182
-182
-182
-181
-181
-181
-181
-181
-181
-181
-180
-180
-181
-180
-180
-180
-180
-180
-180
-180
-180
-180
-180
-180
-181
-181
-181
-181
-181
-181
-181
-180
-180
-180
-180
-180
-180
-180
-179
-179
-179
-179
-179
-178
-178
-178
-177
-177
-178
-178
-177
-177
-177
-176
-177
-177
-177
-176
-176
-177
-177
-177
-176
-176
-176
-177
-177
-177
-177
-177
-177
-177
-178
-177
-177
-177
-177
-177
-177
-178
-178
-178
-179
-179
-179
-179
-180
-180
-181
-180
-181
-181
-182
-183
-183
-183
-184
-183
-184
-184
-185
-185
-185
-187
-187
-187
-187
-188
-188
-189
-189
-189
-190
-191
-191
-191
-191
-192
-193
-193
-193
-194
-194
-194
-194
-195
-195
-195
-196
-196
-196
-196
-197
-197
-197
-198
-198
-198
-199
-199
-199
-200
-200
-201
-201
-201
-202
-202
-202
-202
-202
-202
-202
-202
-202
-202
-204
-204
-204
-204
-204
-204
-204
-204
-205
-205
-205
-205
-205
-205
-206
-206
-206
-206
-206
-207
-207
-207
