# Simple Text Format
# Sampling Rate (Hz):= 1200.00
# Resolution:= 12
# Labels:= ECG	V2
# Age:=	63
# Gender:=	Masculino
-105
-104
-105
-105
-105
-105
-106
-105
-105
-105
-104
-104
-104
-104
-103
-103
-104
-102
-103
-102
-102
-102
-101
-101
-102
-101
-101
-101
-101
-101
-102
-102
-102
-102
-103
-103
-102
-102
-102
-103
-103
-103
-104
-104
-104
-104
-103
-104
-104
-104
-104
-104
-104
-104
-105
-105
-105
-104
-104
-105
-105
-105
-104
-104
-104
-103
-104
-104
-104
-104
-104
-104
-104
-104
-105
-105
-105
-105
-105
-105
-105
-105
-106
-106
-106
-106
-106
-106
-106
-106
-106
-106
-106
-106
-107
-107
-107
-107
-107
-107
-107
-106
-107
-107
-106
-106
-107
-107
-107
-106
-106
-105
-105
-105
-104
-104
-104
-104
-103
-103
-103
-104
-104
-103
-103
-103
-103
-103
-104
-104
-104
-104
-104
-104
-104
-104
-104
-104
-105
-105
-105
-105
-106
-106
-105
-105
-105
-106
-106
-106
-106
-106
-106
-106
-107
-107
-106
-106
-107
-106
-106
-106
-105
-105
-106
-106
-106
-105
-106
-105
-105
-105
-104
-104
-105
-105
-105
-105
-104
-104
-104
-105
-104
-104
-104
-104
-105
-105
-105
-105
-106
-106
-106
-106
-106
-106
-107
-107
-106
-106
-107
-107
-108
-107
-107
-107
-107
-107
-107
-108
-108
-107
-108
-107
-107
-107
-107
-107
-107
-107
-107
-107
-106
-107
-106
-106
-107
-107
-107
-106
-106
-107
-107
-107
-107
-106
-107
-107
-107
-107
-107
-107
-107
-107
-106
-106
-106
-106
-107
-107
-106
-106
-106
-106
-106
-106
-106
-105
-105
-104
-103
-103
-103
-103
-102
-102
-101
-101
-101
-101
-100
-99
-98
-99
-99
-98
-98
-98
-98
-98
-97
-98
-98
-98
-98
-97
-98
-97
-97
-98
-98
-97
-96
-96
-96
-96
-96
-95
-95
-95
-94
-94
-94
-94
-93
-93
-94
-94
-94
-94
-95
-95
-96
-96
-98
-98
-99
-101
-101
-102
-103
-104
-105
-106
-105
-106
-107
-107
-107
-107
-107
-107
-107
-107
-106
-107
-107
-107
-108
-107
-107
-108
-108
-107
-108
-108
-108
-108
-108
-108
-108
-109
-109
-109
-109
-109
-109
-108
-108
-109
-109
-109
-109
-109
-109
-109
-109
-109
-109
-108
-108
-109
-109
-109
-109
-109
-108
-108
-108
-108
-109
-109
-108
-108
-108
-108
-108
-108
-108
-108
-109
-108
-108
-108
-108
-108
-108
-108
-108
-108
-108
-107
-107
-107
-107
-107
-106
-106
-105
-106
-105
-105
-105
-104
-105
-105
-105
-105
-105
-104
-104
-105
-105
-105
-105
-105
-106
-105
-105
-106
-106
-106
-105
-105
-106
-106
-105
-105
-105
-104
-104
-103
-103
-103
-103
-102
-102
-103
-103
-103
-103
-102
-103
-102
-102
-102
-101
-101
-100
-99
-98
-96
-95
-92
-89
-85
-81
-78
-72
-66
-60
-53
-45
-37
-29
-21
-12
-3
5
14
22
29
36
42
47
50
52
53
51
48
45
38
30
21
10
-2
-14
-29
-43
-60
-78
-96
-112
-130
-148
-165
-180
-195
-210
-223
-236
-247
-257
-266
-273
-280
-284
-287
-288
-288
-288
-285
-282
-278
-273
-268
-262
-254
-247
-240
-233
-224
-217
-209
-201
-193
-185
-178
-170
-163
-156
-151
-144
-139
-134
-128
-124
-120
-116
-112
-109
-106
-103
-100
-98
-97
-95
-93
-92
-90
-89
-88
-88
-87
-86
-86
-85
-85
-85
-84
-84
-83
-83
-83
-83
-81
-81
-80
-81
-80
-80
-80
-80
-79
-79
-79
-78
-78
-78
-78
-78
-78
-78
-78
-78
-77
-77
-77
-77
-77
-77
-77
-77
-77
-76
-76
-76
-76
-75
-75
-75
-74
-74
-74
-74
-74
-74
-73
-73
-73
-73
-73
-72
-72
-73
-72
-72
-72
-72
-72
-72
-72
-72
-72
-72
-72
-72
-72
-72
-72
-71
-71
-71
-70
-70
-70
-70
-70
-70
-70
-69
-69
-69
-68
-68
-67
-67
-68
-67
-67
-67
-67
-65
-66
-66
-65
-65
-65
-65
-64
-64
-63
-63
-63
-64
-64
-64
-63
-63
-63
-62
-62
-62
-62
-62
-61
-60
-60
-60
-60
-60
-59
-59
-58
-57
-57
-57
-56
-56
-55
-54
-54
-54
-54
-53
-52
-52
-52
-52
-50
-50
-50
-48
-48
-47
-47
-47
-46
-45
-45
-44
-44
-43
-42
-42
-42
-42
-40
-40
-40
-39
-38
-38
-37
-37
-36
-36
-36
-35
-35
-34
-34
-33
-33
-32
-31
-30
-30
-28
-28
-27
-26
-26
-24
-24
-23
-23
-22
-21
-20
-19
-18
-17
-16
-15
-15
-14
-13
-13
-12
-12
-11
-10
-9
-9
-8
-8
-8
-6
-6
-6
-5
-5
-5
-4
-3
-3
-2
-2
-2
-1
-1
-1
0
-1
0
0
1
1
1
1
1
1
1
1
1
1
1
2
2
2
2
2
2
2
1
1
1
1
0
-1
0
-1
-2
-2
-3
-4
-5
-5
-6
-7
-8
-9
-10
-12
-13
-14
-16
-17
-18
-19
-21
-22
-23
-24
-26
-27
-28
-29
-31
-32
-33
-33
-34
-36
-37
-38
-40
-41
-42
-43
-44
-46
-47
-48
-49
-50
-52
-53
-54
-55
-56
-58
-59
-60
-61
-63
-64
-65
-66
-67
-68
-69
-70
-71
-72
-73
-73
-75
-75
-75
-76
-76
-78
-78
-78
-79
-79
-79
-81
-81
-81
-82
-82
-83
-83
-83
-83
-84
-84
-84
-85
-85
-85
-85
-85
-85
-85
-86
-86
-86
-87
-87
-87
-87
-88
-89
-89
-89
-90
-90
-90
-90
-91
-91
-91
-92
-92
-92
-92
-92
-92
-92
-92
-91
-91
-91
-91
-91
-91
-90
-90
-90
-90
-90
-90
-89
-89
-89
-89
-89
-89
-89
-89
-89
-89
-89
-89
-89
-89
-89
-88
-89
-89
-89
-89
-89
-89
-88
-88
-88
-88
-88
-88
-88
-87
-87
-87
-88
-88
-87
-87
-87
-87
-86
-86
-86
-86
-86
-86
-86
-86
-86
-86
-86
-86
-86
-86
-86
-86
-86
-86
-87
-86
-86
-86
-86
-86
-86
-86
-86
-86
-85
-85
-85
-85
-85
-85
-85
-84
-84
-84
-84
-84
-84
-84
-84
-84
-84
-83
-83
-84
-84
-84
-83
-83
-83
-83
-83
-83
-83
-84
-84
-84
-83
-83
-83
-83
-83
-84
-84
-83
-83
-83
-83
-83
-83
-82
-83
-83
-83
-82
-82
-82
-82
-82
-82
-82
-82
-82
-82
-82
-82
-81
-81
-81
-81
-81
-81
-81
-81
-81
-81
-81
-81
-81
-81
-82
-82
-81
-83
-82
-83
-83
-83
-83
-83
-84
-84
-85
-84
-84
-84
-84
-84
-84
-83
-84
-83
-83
-84
-84
-83
-83
-83
-83
-82
-83
-83
-83
-83
-83
-83
-83
-82
-82
-83
-83
-82
-82
-83
-83
-83
-83
-83
-83
-83
-84
-84
-84
-84
-83
-84
-84
-84
-85
-85
-85
-85
-85
-85
-86
-86
-86
-86
-86
-87
-87
-86
-87
-87
-87
-87
-88
-87
-87
-87
-87
-87
-88
-88
-88
-87
-87
-88
-88
-88
-88
-88
-88
-88
-89
-89
-89
-89
-89
-89
-89
-89
-89
-89
-89
-89
-89
-89
-89
-89
-90
-90
-90
-90
-90
-90
-90
-89
-89
-89
-89
-89
-90
-89
-90
-90
-89
-89
-89
-89
-89
-89
-90
-90
-90
-89
-89
-89
-89
-89
-90
-90
-90
-91
-91
-91
-91
-90
-90
-91
-91
-91
-91
-91
-91
-91
-91
-91
-91
-91
-91
-91
-91
-91
-91
-91
-90
-90
-91
-91
-91
-90
-90
-90
-90
-90
-90
-90
-91
-91
-92
-92
-92
-92
-93
-93
-94
-94
-95
-96
-96
-97
-98
-98
-98
-99
-99
-100
-100
-101
-101
-101
-102
-102
-103
-103
-104
-104
-104
-105
-105
-105
-104
-105
-105
-105
-105
-106
-106
-106
-106
-106
-106
-106
-106
-106
-107
-107
-107
-107
-106
-107
-107
-107
-107
-107
-108
-108
-108
-108
-108
-108
-108
-107
-108
-108
-108
-108
-108
-108
-109
-109
-109
-109
-109
-109
-109
-110
-110
-110
-110
-110
-109
-109
-110
-110
-110
-110
-109
-109
-110
-110
-110
-110
-110
-110
-109
-110
-110
-110
-110
-110
-110
-110
-110
-110
-110
-110
-111
-110
-110
-110
-110
-110
-110
-110
-110
-109
-108
-109
-108
-108
-108
-107
-107
-106
-106
-106
-105
-105
-105
-104
-104
-103
-103
-103
-103
-102
-103
-103
-103
-103
-102
-102
-102
-102
-102
-102
-101
-101
-101
-101
-101
-100
-100
-99
-99
-99
-99
-98
-98
-98
-98
-99
-99
-99
-99
-100
-101
-102
-102
-104
-105
-106
-107
-108
-109
-110
-112
-112
-114
-114
-115
-115
-115
-116
-116
-116
-116
-116
-116
-116
-116
-117
-116
-116
-116
-116
-116
-116
-116
-116
-116
-116
-116
-117
-117
-117
-117
-117
-118
-118
-118
-117
-118
-118
-117
-117
-117
-117
-118
-117
-117
-117
-117
-117
-117
-116
-117
-116
-116
-116
-116
-116
-117
-117
-117
-117
-117
-117
-117
-118
-118
-118
-118
-118
-118
-119
-118
-118
-118
-118
-118
-118
-118
-118
-118
-118
-118
-118
-118
-117
-116
-116
-116
-116
-116
-116
-116
-116
-116
-116
-115
-115
-115
-115
-115
-115
-115
-115
-115
-115
-115
-115
-115
-115
-116
-116
-115
-115
-115
-114
-114
-114
-114
-114
-114
-114
-114
-114
-113
-112
-112
-113
-112
-113
-113
-113
-112
-112
-112
-112
-112
-110
-109
-109
-108
-107
-105
-103
-101
-98
-94
-89
-84
-80
-74
-67
-59
-52
-44
-36
-27
-19
-9
-1
8
16
22
28
33
37
39
41
40
37
32
26
19
10
-1
-13
-26
-40
-56
-73
-90
-108
-126
-144
-163
-181
-197
-213
-228
-242
-256
-268
-278
-288
-295
-302
-307
-310
-312
-312
-312
-310
-307
-303
-298
-292
-285
-278
-271
-263
-256
-248
-239
-230
-222
-213
-205
-197
-189
-182
-175
-168
-161
-155
-150
-144
-139
-134
-130
-125
-122
-119
-115
-113
-110
-109
-107
-105
-104
-102
-101
-100
-99
-98
-97
-97
-96
-95
-95
-94
-93
-93
-92
-92
-91
-91
-90
-89
-88
-87
-87
-86
-86
-85
-84
-84
-83
-82
-82
-81
-82
-81
-80
-80
-80
-80
-80
-79
-79
-78
-78
-78
-78
-78
-78
-77
-77
-77
-77
-76
-76
-76
-75
-75
-75
-75
-74
-74
-73
-73
-73
-72
-72
-72
-72
-71
-71
-71
-70
-70
-70
-70
-70
-70
-70
-69
-69
-69
-70
-69
-69
-69
-69
-69
-69
-68
-69
-69
-69
-69
-69
-69
-68
-68
-68
-67
-67
-67
-66
-66
-65
-65
-65
-65
-65
-64
-64
-64
-64
-64
-64
-63
-63
-62
-62
-62
-62
-61
-61
-60
-60
-60
-59
-59
-59
-59
-59
-58
-57
-57
-57
-57
-56
-56
-56
-55
-55
-54
-53
-53
-53
-53
-52
-52
-52
-52
-51
-51
-50
-50
-50
-49
-49
-48
-48
-48
-47
-47
-46
-46
-45
-45
-44
-43
-43
-42
-41
-41
-40
-40
-40
-39
-37
-37
-36
-36
-35
-35
-33
-33
-33
-32
-31
-31
-31
-29
-29
-29
-28
-28
-28
-26
-26
-26
-24
-24
-24
-22
-22
-22
-21
-20
-19
-19
-17
-17
-16
-15
-15
-14
-13
-13
-13
-11
-11
-10
-10
-9
-9
-8
-8
-7
-6
-6
-5
-5
-5
-4
-4
-3
-3
-3
-2
-1
-1
0
0
0
0
0
1
1
1
1
2
2
2
2
2
3
2
2
2
2
2
2
2
2
2
1
1
0
-1
0
-1
-2
-2
-4
-3
-4
-5
-7
-7
-8
-9
-10
-12
-13
-14
-15
-16
-18
-19
-21
-22
-24
-25
-26
-27
-28
-29
-31
-32
-33
-35
-35
-36
-38
-39
-40
-42
-42
-44
-45
-46
-48
-49
-49
-51
-53
-53
-55
-57
-58
-59
-60
-62
-64
-65
-66
-68
-69
-69
-71
-72
-73
-74
-75
-76
-77
-77
-79
-79
-80
-80
-81
-82
-82
-83
-84
-85
-85
-86
-87
-87
-88
-89
-89
-89
-90
-91
-91
-92
-92
-93
-93
-94
-94
-94
-95
-95
-96
-95
-96
-96
-96
-96
-96
-96
-97
-97
-97
-96
-97
-97
-97
-97
-98
-97
-97
-98
-97
-97
-97
-98
-98
-98
-98
-98
-98
-98
-98
-98
-98
-98
-98
-97
-97
-97
-97
-96
-96
-96
-96
-96
-96
-96
-96
-96
-96
-96
-96
-96
-96
-96
-96
-96
-96
-95
-96
-96
-96
-96
-96
-96
-96
-96
-97
-97
-96
-97
-96
-96
-96
-96
-96
-96
-96
-96
-95
-95
-95
-95
-95
-94
-95
-94
-94
-94
-94
-94
-93
-94
-94
-94
-93
-93
-93
-93
-93
-93
-93
-94
-93
-93
-94
-94
-94
-94
-94
-94
-94
-94
-94
-94
-94
-93
-93
-94
-93
-93
-93
-93
-93
-92
-93
-93
-93
-93
-93
-93
-93
-92
-92
-92
-92
-92
-93
-92
-92
-92
-92
-93
-93
-92
-92
-93
-93
-93
-93
-93
-93
-93
-93
-93
-93
-93
-93
-92
-93
-93
-93
-93
-92
-92
-93
-92
-92
-92
-92
-92
-92
-93
-92
-92
-93
-93
-92
-92
-93
-93
-93
-93
-94
-94
-94
-94
-94
-94
-94
-94
-94
-94
-94
-94
-94
-94
-94
-94
-94
-95
-95
-94
-94
-94
-94
-94
-94
-94
-94
-95
-94
-94
-94
-94
-94
-94
-94
-94
-94
-94
-94
-94
-94
-94
-94
-95
-94
-94
-94
-94
-95
-94
-94
-94
-95
-95
-95
-95
-94
-95
-95
-95
-95
-95
-95
-95
-95
-96
-96
-96
-96
-96
-96
-96
-96
-96
-96
-96
-96
-96
-96
-96
-96
-96
-96
-95
-95
-95
-96
-96
-95
-95
-95
-95
-95
-95
-96
-95
-95
-95
-96
-96
-96
-97
-97
-96
-97
-97
-97
-97
-96
-96
-97
-96
-96
-96
-96
-96
-96
-96
-96
-96
-96
-96
-96
-96
-96
-96
-96
-96
-96
-96
-96
-97
-96
-96
-96
-97
-96
-96
-96
-96
-96
-96
-96
-96
-95
-95
-95
-95
-95
-95
-94
-94
-94
-94
-94
-94
-93
-93
-93
-94
-94
-94
-94
-94
-95
-95
-94
-95
-95
-95
-96
-96
-95
-95
-95
-95
-96
-95
-95
-95
-95
-95
-95
-95
-95
-95
-95
-95
-95
-94
-94
-94
-94
-94
-95
-95
-95
-95
-95
-95
-94
-94
-94
-94
-94
-94
-94
-94
-94
-94
-94
-94
-94
-94
-93
-94
-94
-93
-93
-93
-94
-94
-93
-93
-93
-93
-93
-93
-93
-93
-93
-93
-93
-94
-93
-93
-93
-94
-94
-94
-93
-94
-94
-94
-94
-94
-95
-95
-95
-95
-94
-94
-94
-94
-94
-94
-94
-93
-93
-93
-93
-93
-93
-93
-94
-94
-94
-94
-94
-93
-93
-93
-93
-93
-93
-94
-94
-93
-94
-94
-93
-93
-93
-93
-93
-93
-93
-92
-93
-93
-93
-93
-93
-93
-93
-93
-93
-92
-92
-92
-93
-92
-91
-91
-92
-92
-91
-91
-91
-91
-91
-91
-90
-90
-91
-90
-90
-91
-91
-90
-90
-91
-91
-91
-90
-90
-90
-90
-90
-90
-89
-89
-90
-89
-89
-88
-87
-87
-87
-86
-85
-85
-85
-84
-84
-83
-83
-82
-82
-82
-81
-80
-80
-81
-80
-80
-80
-80
-79
-79
-79
-80
-79
-79
-79
-78
-78
-78
-78
-77
-77
-76
-76
-75
-75
-73
-74
-73
-73
-73
-73
-72
-72
-72
-71
-72
-73
-73
-73
-74
-75
-75
-77
-78
-79
-80
-81
-83
-83
-85
-85
-87
-87
-88
-89
-89
-90
-91
-91
-92
-92
-92
-92
-92
-92
-92
-92
-92
-92
-92
-91
-91
-91
-91
-91
-92
-91
-91
-91
-91
-92
-91
-91
-91
-91
-91
-91
-91
-90
-90
-90
-90
-90
-89
-90
-90
-90
-89
-89
-90
-89
-89
-89
-89
-89
-90
-90
-90
-90
-90
-90
-90
-90
-89
-89
-89
-90
-90
-90
-90
-89
-89
-89
-89
-89
-89
-89
-89
-89
-89
-88
-88
-88
-89
-89
-88
-88
-88
-88
-88
-88
-87
-86
-86
-86
-86
-86
-86
-86
-86
-86
-86
-87
-87
-86
-86
-87
-88
-88
-87
-87
-87
-87
-87
-87
-87
-88
-87
-87
-87
-87
-86
-86
-86
-86
-86
-85
-85
-85
-84
-84
-82
-82
-81
-80
-79
-78
-76
-73
-71
-68
-63
-59
-53
-48
-40
-34
-26
-18
-9
0
9
19
27
37
45
54
62
68
74
78
81
83
82
80
76
69
62
53
42
29
16
0
-17
-33
-52
-71
-91
-110
-129
-149
-166
-184
-200
-215
-230
-243
-255
-265
-273
-281
-286
-290
-292
-294
-292
-291
-288
-283
-278
-270
-263
-256
-248
-240
-230
-222
-213
-204
-195
-185
-177
-168
-160
-152
-144
-138
-130
-125
-119
-113
-109
-104
-100
-96
-92
-89
-86
-83
-80
-79
-77
-75
-75
-73
-72
-71
-70
-69
-69
-68
-69
-68
-68
-67
-67
-67
-67
-68
-68
-67
-67
-67
-67
-67
-67
-66
-66
-66
-66
-66
-66
-66
-66
-65
-65
-64
-65
-64
-64
-63
-63
-63
-63
-63
-63
-63
-62
-62
-62
-61
-61
-60
-60
-60
-60
-59
-59
-59
-59
-59
-59
-59
-59
-58
-58
-59
-59
-58
-58
-58
-58
-58
-58
-57
-57
-57
-57
-56
-56
-55
-55
-54
-54
-54
-54
-53
-53
-52
-52
-52
-52
-52
-51
-51
-51
-51
-51
-51
-50
-50
-50
-49
-49
-49
-49
-48
-47
-47
-47
-46
-46
-45
-45
-44
-44
-44
-43
-43
-43
-42
-42
-41
-41
-42
-41
-41
-41
-40
-40
-40
-40
-39
-40
-39
-39
-39
-39
-38
-38
-38
-37
-37
-37
-36
-35
-35
-34
-34
-34
-33
-32
-32
-30
-30
-30
-29
-29
-29
-27
-27
-27
-26
-26
-25
-25
-24
-24
-23
-22
-22
-22
-21
-21
-20
-20
-19
-18
-18
-16
-16
-15
-15
-14
-13
-13
-12
-11
-10
-10
-9
-9
-8
-7
-6
-6
-5
-4
-3
-3
-2
-1
0
0
1
2
3
4
4
5
5
6
7
8
8
9
10
10
10
11
11
12
13
13
14
14
15
15
16
17
17
18
18
18
20
20
20
20
20
21
21
21
22
22
23
23
23
23
24
23
23
23
23
23
23
23
23
23
23
23
22
22
21
21
20
20
20
19
19
18
18
18
17
15
15
14
14
13
12
11
10
9
8
7
6
5
4
3
2
1
-1
-3
-4
-5
-6
-7
-9
-11
-11
-13
-15
-16
-18
-20
-21
-23
-24
-26
-28
-29
-30
-33
-34
-34
-36
-37
-38
-39
-41
-42
-44
-44
-46
-48
-49
-50
-51
-52
-54
-55
-57
-58
-60
-60
-62
-64
-65
-67
-68
-69
-69
-70
-72
-72
-73
-75
-75
-76
-76
-76
-78
-78
-78
-79
-79
-79
-79
-80
-81
-81
-81
-82
-82
-82
-82
-83
-83
-83
-83
-83
-84
-84
-84
-84
-84
-85
-84
-84
-84
-84
-84
-84
-84
-84
-85
-85
-85
-85
-85
-85
-85
-85
-86
-86
-85
-85
-86
-86
-87
-86
-86
-86
-87
-87
-87
-87
-88
-88
-88
-88
-88
-88
-89
-88
-88
-88
-88
-88
-88
-89
-88
-88
-89
-89
-89
-89
-89
-88
-88
-89
-88
-88
-88
-88
-87
-87
-87
-86
-86
-86
-87
-87
-87
-87
-87
-87
-87
-87
-86
-86
-86
-86
-86
-85
-85
-84
-84
-84
-84
-84
-84
-84
-84
-84
-84
-84
-83
-84
-84
-84
-84
-85
-85
-85
-85
-85
-86
-86
-86
-87
-87
-87
-88
-87
-88
-88
-89
-89
-89
-89
-88
-88
-89
-89
-88
-88
-88
-88
-87
-86
-86
-86
-86
-86
-85
-85
-85
-85
-85
-85
-85
-85
-86
-85
-85
-85
-86
-86
-86
-87
-87
-86
-87
-88
-88
-88
-88
-88
-89
-89
-88
-89
-89
-89
-89
-89
-89
-89
-89
-89
-89
-90
-90
-90
-90
-90
-89
-89
-90
-90
-90
-90
-90
-91
-90
-90
-90
-91
-92
-92
-92
-92
-91
-91
-91
-91
-91
-91
-92
-92
-91
-92
-92
-92
-92
-92
-92
-92
-92
-92
-92
-93
-93
-93
-93
-93
-93
-94
-94
-94
-94
-94
-95
-94
-94
-94
-95
-94
-94
-95
-95
-95
-95
-95
-95
-95
-96
-96
-96
-96
-96
-97
-98
-98
-97
-97
-98
-98
-98
-98
-98
-98
-98
-98
-98
-98
-98
-97
-97
-97
-97
-97
-97
-97
-96
-96
-96
-96
-96
-96
-96
-95
-95
-95
-96
-96
-96
-96
-95
-95
-96
-96
-96
-96
-96
-97
-97
-98
-98
-98
-98
-99
-99
-99
-99
-99
-100
-101
-101
-101
-101
-101
-101
-101
-101
-101
-101
-101
-101
-101
-102
-101
-101
-101
-100
-100
-101
-101
-101
-101
-100
-100
-100
-100
-100
-100
-100
-100
-100
-100
-100
-100
-100
-100
-100
-100
-100
-100
-100
-100
-100
-100
-100
-100
-100
-100
-100
-100
-100
-100
-101
-100
-100
-100
-100
-100
-100
-100
-100
-100
-100
-100
-99
-99
-99
-99
-99
-99
-99
-99
-99
-99
-99
-99
-99
-99
-99
-99
-99
-99
-99
-99
-99
-99
-99
-99
-99
-100
-100
-100
-100
-100
-100
-101
-101
-101
-101
-101
-101
-101
-101
-101
-101
-101
-101
-101
-101
-101
-101
-100
-101
-101
-100
-100
-100
-100
-100
-100
-100
-100
-100
-100
-100
-100
-100
-100
-100
-100
-99
-100
-100
-100
-100
-100
-100
-100
-100
-100
-100
-100
-100
-100
-100
-100
-100
-100
-100
-101
-101
-101
-100
-100
-100
-100
-100
-100
-100
-100
-100
-101
-101
-101
-100
-101
-101
-101
-101
-101
-102
-102
-101
-101
-101
-102
-102
-102
-101
-101
-102
-102
-102
-102
-103
-103
-103
-103
-103
-103
-103
-103
-103
-103
-103
-104
-104
-104
-104
-103
-103
-103
-103
-103
-103
-103
-103
-103
-102
-102
-102
-102
-102
-102
-102
-102
-102
-102
-102
-103
-102
-102
-103
-103
-103
-103
-103
-104
-103
-103
-103
-103
-103
-102
-102
-103
-102
-101
-101
-100
-101
-100
-99
-100
-99
-98
-98
-97
-97
-96
-96
-96
-94
-94
-93
-93
-93
-92
-92
-92
-92
-92
-91
-91
-90
-90
-89
-89
-89
-88
-88
-88
-87
-88
-87
-87
-87
-87
-87
-88
-88
-89
-90
-91
-92
-93
-93
-95
-96
-97
-98
-99
-100
-102
-102
-104
-105
-106
-106
-107
-108
-108
-109
-109
-109
-110
-109
-110
-110
-110
-110
-110
-111
-111
-111
-110
-110
-111
-111
-110
-110
-110
-111
-111
-111
-111
-111
-111
-111
-111
-111
-111
-111
-111
-112
-111
-112
-111
-112
-112
-112
-112
-113
-113
-113
-113
-112
-112
-113
-113
-113
-113
-113
-113
-113
-113
-113
-113
-113
-113
-113
-113
-112
-112
-112
-113
-112
-112
-112
-112
-112
-112
-112
-112
-112
-113
-113
-113
-113
-113
-113
-113
-113
-114
-114
-114
-114
-114
-114
-114
-114
-114
-113
-113
-113
-113
-113
-113
-113
-112
-112
-112
-113
-113
-113
-113
-113
-113
-112
-112
-112
-112
-112
-112
-112
-112
-112
-113
-112
-112
-112
-112
-112
-112
-113
-112
-111
-111
-111
-110
-110
-109
-108
-106
-104
-102
-101
-98
-94
-90
-86
-80
-75
-68
-60
-53
-44
-37
-28
-19
-10
0
9
17
25
31
38
43
47
49
49
48
45
41
34
26
17
6
-6
-20
-35
-51
-68
-86
-105
-123
-142
-160
-178
-194
-211
-226
-241
-255
-267
-278
-287
-296
-303
-308
-312
-314
-314
-314
-312
-310
-306
-301
-295
-288
-282
-274
-266
-258
-250
-242
-233
-225
-216
-208
-199
-191
-184
-177
-169
-163
-156
-150
-145
-139
-135
-130
-126
-122
-118
-116
-112
-110
-108
-106
-103
-102
-100
-99
-98
-97
-96
-96
-95
-95
-95
-95
-94
-94
-94
-94
-94
-93
-93
-94
-94
-94
-94
-93
-95
-95
-94
-94
-94
-94
-94
-94
-94
-94
-94
-94
-94
-94
-94
-93
-93
-93
-93
-93
-93
-93
-93
-93
-92
-92
-92
-91
-91
-91
-91
-91
-91
-90
-90
-90
-90
-88
-89
-88
-88
-87
-87
-87
-86
-87
-86
-86
-86
-86
-85
-85
-85
-85
-85
-86
-85
-85
-85
-85
-85
-85
-84
-85
-85
-83
-83
-83
-83
-82
-82
-82
-82
-82
-82
-82
-82
-81
-81
-81
-81
-81
-80
-80
-80
-80
-79
-79
-79
-79
-79
-79
-79
-79
-79
-79
-79
-79
-79
-79
-79
-78
-78
-78
-78
-78
-77
-77
-77
-77
-77
-76
-76
-75
-75
-75
-74
-74
-72
-72
-71
-71
-71
-71
-71
-70
-70
-68
-68
-68
-68
-67
-66
-66
-66
-65
-65
-65
-64
-64
-64
-63
-63
-63
-62
-62
-61
-61
-60
-60
-59
-59
-58
-57
-57
-56
-56
-55
-54
-53
-52
-52
-51
-50
-50
-48
-48
-47
-46
-45
-45
-43
-43
-42
-42
-40
-40
-40
-40
-38
-38
-38
-37
-37
-37
-36
-35
-35
-35
-34
-33
-33
-32
-32
-31
-31
-30
-30
-29
-29
-28
-28
-27
-27
-26
-26
-25
-24
-24
-23
-23
-22
-22
-21
-21
-21
-21
-20
-19
-19
-19
-19
-19
-19
-19
-18
-18
-19
-19
-19
-19
-20
-19
-19
-19
-20
-20
-20
-21
-21
-22
-21
-22
-23
-23
-24
-25
-25
-26
-26
-27
-29
-29
-30
-31
-33
-34
-35
-36
-39
-39
-40
-42
-44
-45
-47
-48
-49
-50
-52
-53
-54
-56
-56
-57
-59
-60
-62
-63
-65
-66
-67
-70
-71
-72
-74
-75
-77
-78
-80
-81
-83
-85
-85
-87
-89
-90
-91
-93
-93
-95
-96
-97
-98
-99
-101
-101
-102
-103
-105
-106
-107
-108
-109
-109
-111
-112
-113
-113
-114
-115
-116
-116
-118
-118
-118
-119
-119
-120
-120
-120
-121
-122
-122
-123
-123
-122
-123
-123
-123
-123
-124
-124
-125
-125
-125
-125
-125
-125
-125
-125
-125
-125
-126
-126
-126
-126
-126
-126
-126
-127
-127
-127
-127
-127
-127
-127
-127
-127
-127
-127
-128
-128
-128
-128
-128
-127
-127
-127
-128
-128
-128
-128
-128
-128
-128
-127
-128
-128
-128
-128
-128
-127
-127
-127
-127
-127
-127
-127
-128
-128
-128
-129
-128
-129
-129
-130
-129
-130
-131
-131
-131
-131
-131
-132
-131
-132
-132
-132
-132
-131
-131
-131
-131
-131
-130
-131
-130
-130
-130
-130
-129
-130
-130
-129
-129
-129
-129
-129
-130
-129
-129
-129
-129
-129
-129
-129
-129
-128
-128
-128
-128
-127
-128
-127
-127
-127
-127
-127
-127
-126
-126
-127
-127
-127
-127
-127
-127
-126
-127
-127
-127
-127
-127
-127
-127
-127
-127
-127
-127
-127
-127
-127
-127
-128
-128
-127
-127
-127
-127
-127
-127
-127
-127
-127
-127
-127
-127
-128
-128
-128
-128
-128
-127
-128
-127
-128
-128
-128
-128
-127
-127
-127
-127
-127
-127
-127
-127
-127
-128
-128
-128
-128
-128
-128
-128
-129
-129
-129
-129
-130
-130
-129
-130
-130
-130
-130
-130
-130
-130
-130
-130
-130
-130
-130
-130
-130
-130
-130
-130
-130
-130
-130
-130
-130
-130
-131
-131
-131
-130
-130
-131
-130
-130
-131
-131
-131
-131
-131
-131
-131
-131
-132
-132
-132
-132
-132
-132
-133
-133
-133
-133
-133
-133
-134
-134
-133
-134
-134
-133
-133
-133
-133
-133
-134
-134
-134
-134
-134
-134
-134
-134
-134
-134
-134
-134
-135
-135
-135
-135
-135
-135
-136
-136
-137
-137
-137
-137
-137
-137
-138
-138
-138
-138
-138
-138
-138
-138
-138
-138
-138
-138
-138
-138
-138
-137
-137
-137
-137
-136
-136
-136
-136
-137
-137
-136
-136
-135
-135
-136
-136
-136
-136
-136
-136
-136
-137
-137
-137
-137
-137
-137
-137
-137
-138
-137
-137
-137
-137
-138
-138
-138
-138
-139
-139
-139
-139
-139
-139
-139
-139
-139
-139
-139
-139
-139
-139
-140
-139
-139
-139
-139
-140
-140
-140
-140
-140
-140
-140
-139
-140
-140
-140
-139
-139
-140
-140
-139
-140
-140
-140
-140
-140
-140
-140
-141
-140
-141
-141
-141
-141
-141
-141
-141
-141
-141
-141
-142
-142
-142
-142
-142
-142
-142
-142
-142
-143
-143
-143
-143
-143
-143
-143
-144
-143
-143
-143
-144
-144
-144
-144
-144
-144
-145
-145
-145
-145
-145
-145
-146
-145
-145
-145
-145
-145
-145
-144
-145
-145
-145
-145
-145
-144
-144
-144
-145
-145
-144
-145
-145
-145
-144
-144
-145
-145
-145
-144
-145
-145
-145
-146
-145
-145
-145
-145
-146
-146
-146
-147
-147
-147
-147
-147
-148
-148
-148
-148
-148
-148
-148
-148
-148
-148
-148
-147
-148
-148
-148
-148
-148
-148
-148
-148
-148
-149
-149
-149
-149
-149
-148
-148
-149
-149
-148
-148
-147
-148
-148
-146
-146
-146
-145
-145
-145
-144
-144
-144
-142
-143
-143
-142
-142
-141
-141
-142
-141
-141
-141
-141
-140
-140
-140
-140
-139
-139
-139
-139
-137
-137
-137
-136
-135
-135
-134
-134
-133
-133
-133
-132
-132
-132
-132
-132
-132
-132
-133
-133
-134
-135
-136
-136
-138
-139
-140
-141
-142
-144
-144
-145
-146
-147
-147
-148
-148
-149
-149
-149
-150
-150
-150
-149
-149
-149
-149
-148
-148
-149
-148
-148
-147
-147
-147
-147
-147
-147
-146
-146
-147
-146
-146
-146
-146
-146
-147
-146
-146
-147
-147
-147
-147
-147
-148
-148
-148
-148
-148
-147
-147
-148
-148
-148
-148
-147
-148
-148
-148
-148
-147
-147
-147
-148
-148
-148
-148
-148
-148
-148
-148
-148
-148
-148
-148
-148
-148
-148
-148
-149
-149
-148
-149
-148
-148
-148
-148
-149
-149
-148
-148
-149
-149
-149
-149
-149
-149
-149
-149
-150
-150
-150
-149
-150
-150
-149
-150
-150
-149
-150
-150
-150
-150
-149
-149
-148
-149
-148
-148
-148
-148
-147
-147
-147
-147
-147
-147
-148
-147
-147
-147
-147
-146
-146
-146
-146
-145
-145
-144
-143
-141
-139
-136
-134
-131
-128
-124
-120
-114
-107
-101
-95
-88
-80
-73
-65
-56
-48
-40
-31
-23
-17
-10
-5
-1
2
4
4
3
0
-4
-10
-17
-26
-36
-47
-60
-74
-88
-103
-121
-136
-154
-171
-187
-203
-220
-235
-249
-262
-275
-286
-297
-306
-314
-320
-325
-329
-331
-332
-332
-330
-328
-324
-320
-316
-310
-304
-297
-291
-283
-275
-268
-261
-253
-245
-237
-231
-223
-216
-210
-204
-197
-191
-186
-181
-175
-172
-167
-163
-159
-156
-152
-150
-147
-145
-142
-141
-140
-138
-137
-136
-135
-134
-133
-133
-132
-132
-132
-131
-132
-131
-131
-131
-131
-131
-131
-131
-131
-131
-131
-130
-130
-129
-129
-128
-128
-129
-128
-128
-127
-127
-127
-126
-126
-125
-125
-124
-124
-124
-124
-124
-123
-123
-122
-122
-122
-122
-122
-122
-122
-122
-122
-122
-123
-122
-122
-122
-122
-122
-122
-122
-123
-122
-122
-122
-122
-122
-121
-121
-121
-121
-121
-121
-121
-120
-120
-120
-120
-120
-119
-119
-118
-118
-118
-117
-117
-116
-116
-115
-115
-115
-115
-115
-114
-114
-114
-114
-114
-114
-114
-113
-113
-113
-113
-112
-112
-112
-112
-112
-111
-111
-111
-110
-110
-110
-110
-108
-108
-108
-108
-107
-107
-106
-105
-105
-105
-105
-104
-104
-103
-103
-103
-103
-102
-102
-102
-101
-101
-101
-100
-100
-99
-99
-98
-98
-98
-98
-97
-96
-96
-95
-95
-95
-95
-94
-93
-93
-93
-91
-91
-91
-90
-90
-90
-89
-89
-88
-87
-87
-86
-85
-85
-84
-84
-83
-83
-81
-81
-81
-81
-80
-79
-78
-78
-77
-76
-75
-74
-74
-73
-73
-71
-71
-70
-70
-69
-69
-68
-68
-67
-67
-65
-65
-64
-64
-64
-64
-62
-62
-61
-61
-60
-60
-60
-58
-58
-57
-56
-56
-55
-54
-54
-53
-53
-52
-52
-51
-50
-50
-49
-49
-48
-48
-47
-46
-46
-45
-46
-45
-45
-46
-45
-45
-45
-44
-45
-44
-44
-45
-45
-45
-45
-45
-45
-46
-46
-46
-47
-48
-48
-49
-49
-50
-50
-50
-51
-52
-53
-53
-53
-54
-56
-57
-57
-58
-59
-60
-60
-61
-62
-63
-65
-66
-67
-68
-69
-70
-72
-73
-74
-75
-77
-78
-80
-81
-81
-83
-84
-86
-86
-88
-90
-90
-92
-94
-96
-97
-98
-100
-101
-102
-104
-105
-106
-109
-110
-111
-113
-114
-115
-117
-117
-119
-119
-121
-122
-124
-124
-125
-125
-127
-127
-129
-129
-130
-131
-132
-132
-132
-133
-134
-135
-135
-135
-137
-137
-137
-138
-138
-139
-139
-139
-139
-139
-140
-140
-140
-141
-141
-141
-141
-142
-142
-142
-142
-142
-143
-143
-143
-143
-144
-143
-143
-144
-144
-145
-145
-145
-145
-145
-145
-145
-146
-146
-145
-146
-146
-146
-146
-146
-146
-146
-146
-146
-146
-145
-145
-145
-145
-145
-145
-145
-145
-145
-145
-145
-145
-145
-145
-145
-146
-146
-146
-145
-146
-146
-146
-147
-146
-146
-146
-146
-146
-146
-147
-147
-146
-146
-146
-146
-146
-147
-147
-147
-147
-147
-147
-147
-147
-147
-147
-146
-146
-146
-147
-147
-147
-146
-146
-146
-146
-146
-146
-146
-145
-145
-145
-145
-145
-145
-144
-144
-144
-143
-143
-143
-143
-143
-142
-142
-142
-142
-142
-142
-142
-143
-143
-143
-142
-142
-142
-142
-143
-142
-142
-142
-142
-142
-142
-142
-142
-141
-141
-141
-141
-140
-140
-140
-139
-140
-140
-140
-140
-140
-140
-140
-140
-140
-140
-140
-141
-141
-142
-142
-142
-142
-142
-142
-142
-142
-142
-142
-142
-142
-142
-142
-142
-142
-143
-142
-142
-142
-142
-143
-142
-142
-142
-142
-142
-142
-142
-142
-142
-142
-142
-142
-141
-142
-142
-142
-142
-142
-142
-142
-142
-142
-142
-142
-142
-143
-143
-143
-143
-143
-143
-143
-143
-143
-143
-143
-143
-144
-144
-144
-144
-144
-144
-144
-143
-143
-143
-143
-143
-143
-143
-143
-143
-143
-143
-143
-143
-143
-143
-143
-142
-143
-143
-143
-143
-144
-144
-143
-143
-143
-143
-143
-143
-143
-144
-144
-144
-144
-145
-145
-145
-145
-145
-145
-145
-145
-146
-146
-146
-146
-146
-146
-146
-146
-146
-146
-146
-146
-147
-147
-147
-147
-147
-147
-146
-146
-146
-146
-147
-146
-146
-146
-146
-146
-146
-146
-146
-146
-146
-146
-146
-146
-147
-147
-146
-146
-147
-146
-146
-146
-147
-147
-147
-147
-147
-147
-147
-147
-147
-147
-147
-147
-147
-147
-147
-147
-146
-146
-146
-147
-147
-147
-148
-148
-148
-148
-148
-148
-148
-149
-149
-150
-150
-150
-150
-150
-150
-150
-149
-149
-149
-149
-149
-148
-148
-148
-148
-148
-148
-148
-148
-148
-148
-148
-147
-148
-148
-148
-148
-148
-147
-147
-148
-148
-148
-147
-148
-148
-148
-148
-148
-148
-149
-149
-149
-149
-149
-150
-150
-150
-151
-151
-151
-151
-151
-151
-151
-151
-151
-151
-151
-151
-151
-151
-151
-151
-151
-151
-150
-150
-150
-150
-150
-150
-150
-149
-150
-150
-150
-150
-150
-150
-150
-150
-150
-149
-149
-149
-150
-150
-150
-150
-150
-150
-150
-149
-150
-150
-150
-150
-150
-150
-150
-150
-151
-151
-151
-151
-150
-150
-150
-150
-150
-150
-150
-150
-150
-150
-150
-150
-150
-150
-149
-149
-148
-149
-149
-149
-148
-148
-148
-148
-149
-149
-148
-148
-147
-147
-148
-148
-148
-148
-148
-148
-148
-148
-147
-147
-147
-147
-147
-147
-147
-147
-147
-147
-147
-147
-148
-148
-148
-148
-148
-148
-149
-148
-148
-148
-148
-147
-148
-147
-147
-147
-147
-145
-144
-144
-144
-143
-143
-141
-141
-140
-141
-140
-140
-139
-138
-138
-138
-137
-137
-137
-136
-136
-136
-135
-135
-135
-135
-134
-134
-133
-133
-132
-132
-131
-132
-131
-131
-132
-132
-133
-132
-133
-133
-134
-134
-135
-136
-136
-137
-139
-139
-141
-141
-142
-143
-144
-144
-145
-145
-146
-146
-147
-147
-147
-147
-148
-148
-149
-149
-149
-149
-149
-150
-150
-149
-149
-149
-149
-149
-149
-149
-148
-148
-148
-148
-147
-148
-148
-147
-147
-147
-147
-147
-147
-146
-147
-147
-147
-147
-147
-147
-148
-147
-147
-147
-148
-148
-148
-148
-149
-149
-149
-149
-149
-149
-148
-149
-149
-148
-148
-148
-148
-148
-148
-148
-147
-147
-147
-147
-146
-146
-147
-147
-146
-146
-146
-146
-146
-146
-146
-146
-145
-146
-146
-146
-146
-146
-146
-146
-146
-146
-146
-146
-145
-146
-146
-146
-147
-147
-147
-146
-146
-146
-146
-146
-145
-145
-145
-145
-145
-145
-145
-144
-144
-143
-143
-143
-143
-142
-142
-143
-142
-143
-142
-142
-142
-141
-141
-139
-138
-138
-137
-135
-133
-130
-128
-123
-119
-114
-108
-102
-96
-89
-80
-72
-63
-55
-46
-36
-27
-18
-11
-3
3
10
14
17
18
19
17
13
8
0
-8
-18
-30
-42
-57
-73
-88
-106
-124
-143
-162
-180
-198
-216
-232
-249
-264
-277
-290
-301
-311
-321
-328
-334
-338
-341
-342
-342
-341
-339
-335
-330
-324
-318
-311
-303
-296
-288
-279
-270
-261
-254
-244
-235
-227
-219
-211
-204
-197
-190
-183
-178
-172
-168
-163
-159
-154
-151
-147
-144
-142
-140
-137
-135
-133
-132
-130
-129
-128
-127
-126
-125
-125
-125
-124
-124
-124
-123
-123
-123
-123
-123
-123
-123
-123
-123
-123
-123
-123
-123
-122
-122
-122
-122
-122
-122
-121
-122
-122
-121
-121
-121
-121
-121
-120
-120
-120
-120
-119
-119
-119
-118
-118
-116
-116
-116
-116
-115
-115
-115
-115
-115
-114
-114
-114
-114
-114
-114
-114
-114
-114
-114
-114
-114
-114
-114
-114
-113
-113
-113
-113
-113
-113
-113
-112
-112
-112
-112
-112
-112
-111
-111
-111
-110
-110
-110
-110
-110
-109
-108
-109
-109
-108
-108
-108
-107
-107
-106
-106
-106
-105
-105
-105
-104
-104
-104
-104
-103
-103
-102
-102
-102
-101
-101
-100
-100
-99
-99
-99
-98
-97
-97
-97
-97
-97
-96
-96
-96
-95
-95
-95
-95
-94
-94
-94
-94
-94
-94
-94
-93
-93
-92
-92
-91
-91
-90
-90
-90
-89
-89
-88
-88
-88
-86
-86
-85
-85
-85
-84
-84
-83
-82
-82
-81
-80
-80
-79
-79
-79
-78
-78
-77
-77
-76
-75
-75
-74
-74
-72
-72
-71
-71
-70
-70
-69
-69
-68
-67
-67
-66
-65
-65
-64
-63
-62
-61
-60
-60
-59
-58
-58
-56
-56
-55
-55
-53
-53
-52
-52
-51
-50
-50
-50
-49
-48
-48
-47
-47
-46
-46
-46
-45
-44
-44
-43
-43
-43
-41
-41
-41
-40
-40
-38
-38
-38
-37
-37
-37
-36
-36
-36
-35
-35
-35
-35
-35
-36
-36
-36
-36
-36
-37
-36
-37
-37
-38
-38
-39
-39
-40
-41
-42
-42
-42
-43
-44
-45
-46
-47
-48
-49
-50
-51
-52
-52
-54
-55
-55
-56
-57
-57
-59
-60
-62
-63
-64
-65
-66
-68
-68
-71
-72
-73
-74
-75
-77
-78
-79
-80
-81
-83
-84
-86
-87
-89
-90
-92
-93
-95
-96
-98
-99
-100
-101
-103
-105
-105
-107
-108
-110
-111
-113
-113
-115
-115
-117
-117
-119
-119
-121
-121
-122
-122
-124
-124
-125
-125
-125
-126
-126
-127
-127
-127
-129
-129
-129
-129
-130
-130
-131
-131
-131
-133
-133
-133
-133
-133
-135
-134
-135
-135
-136
-135
-136
-135
-136
-135
-135
-135
-135
-135
-135
-135
-136
-136
-135
-135
-135
-135
-135
-135
-135
-135
-135
-135
-135
-136
-136
-135
-136
-136
-136
-137
-137
-136
-136
-136
-136
-136
-136
-135
-135
-136
-135
-134
-134
-134
-134
-134
-134
-133
-133
-134
-134
-134
-133
-133
-134
-134
-133
-134
-133
-133
-132
-132
-132
-132
-132
-132
-132
-132
-132
-132
-130
-131
-131
-131
-130
-129
-129
-130
-130
-129
-129
-129
-129
-129
-129
-129
-129
-129
-129
-129
-129
-128
-128
-128
-129
-128
-128
-128
-128
-128
-128
-128
-129
-129
-129
-129
-129
-129
-129
-128
-129
-129
-129
-129
-128
-128
-128
-129
-128
-128
-128
-127
-128
-128
-128
-127
-128
-128
-127
-127
-127
-128
-128
-127
-128
-128
-128
-127
-128
-128
-127
-127
-128
-128
-127
-127
-128
-128
-127
-128
-128
-128
-129
-128
-128
-128
-128
-128
-128
-128
-128
-127
-128
-128
-128
-127
-127
-127
-127
-127
-127
-127
-127
-128
-127
-128
-128
-128
-129
-128
-128
-128
-129
-129
-129
-128
-128
-128
-128
-129
-129
-129
-128
-128
-128
-129
-129
-129
-129
-129
-129
-129
-130
-130
-129
-129
-129
-129
-129
-129
-130
-129
-130
-130
-130
-130
-130
-130
-130
-130
-130
-130
-130
-130
-130
-131
-131
-130
-131
-131
-131
-132
-131
-131
-131
-132
-132
-132
-131
-131
-131
-131
-131
-131
-131
-130
-131
-130
-130
-130
-130
-130
-130
-130
-130
-131
-130
-130
-129
-130
-130
-130
-130
-129
-130
-130
-130
-130
-130
-130
-130
-130
-130
-130
-130
-129
-130
-130
-130
-130
-130
-129
-130
-130
-130
-129
-129
-129
-129
-130
-130
-130
-129
-129
-129
-130
-130
-130
-130
-130
-130
-130
-130
-131
-131
-131
-131
-131
-131
-130
-130
-130
-130
-130
-130
-130
-131
-130
-130
-130
-130
-130
-130
-130
-130
-130
-130
-131
-131
-131
-132
-132
-131
-131
-132
-132
-132
-133
-132
-132
-132
-132
-131
-131
-131
-131
-131
-130
-130
-130
-130
-129
-129
-130
-130
-130
-130
-130
-130
-130
-130
-129
-130
-130
-130
-130
-130
-131
-130
-130
-131
-131
-130
-130
-130
-131
-131
-130
-130
-130
-130
-130
-130
-130
-130
-130
-129
-129
-130
-130
-130
-130
-130
-130
-131
-130
-130
-130
-130
-130
-130
-130
-130
-130
-130
-130
-130
-130
-129
-130
-130
-130
-130
-129
-130
-130
-129
-130
-130
-130
-130
-130
-129
-129
-130
-130
-129
-130
-130
-129
-130
-130
-129
-129
-129
-129
-129
-129
-130
-130
-130
-130
-130
-130
-130
-130
-130
-130
-130
-130
-130
-130
-130
-130
-130
-130
-130
-130
-130
-129
-129
-129
-130
-130
-130
-129
-130
-130
-129
-130
-130
-130
-130
-130
-130
-130
-130
-131
-130
-130
-130
-131
-131
-130
-130
-130
-130
-130
-130
-130
-130
-130
-130
-129
-129
-129
-129
-129
-129
-129
-130
-129
-129
-129
-129
-129
-129
-130
-129
-130
-130
-130
-130
-130
-130
-130
-130
-130
-129
-129
-128
-128
-127
-128
-127
-126
-126
-125
-125
-125
-124
-124
-124
-122
-122
-122
-122
-121
-121
-120
-120
-120
-120
-119
-119
-118
-118
-117
-117
-117
-116
-116
-115
-115
-115
-115
-115
-115
-115
-115
-116
-116
-117
-117
-118
-119
-120
-121
-122
-123
-124
-124
-125
-127
-128
-129
-130
-130
-131
-132
-132
-133
-134
-134
-135
-134
-135
-136
-136
-137
-137
-137
-137
-137
-137
-137
-138
-137
-138
-137
-137
-137
-138
-138
-138
-137
-137
-137
-137
-138
-138
-138
-138
-139
-138
-138
-138
-139
-138
-138
-139
-139
-139
-139
-139
-138
-138
-138
-139
-139
-139
-139
-139
-139
-139
-139
-139
-139
-139
-139
-139
-140
-139
-140
-140
-139
-139
-139
-139
-139
-139
-140
-139
-139
-139
-139
-139
-139
-138
-139
-139
-139
-139
-139
-138
-139
-138
-138
-138
-139
-139
-139
-139
-138
-139
-139
-138
-139
-139
-139
-139
-139
-139
-139
-140
-140
-140
-139
-139
-140
-139
-139
-138
-139
-138
-137
-137
-138
-137
-136
-136
-136
-136
-134
-134
-133
-133
-131
-130
-129
-128
-126
-124
-122
-119
-117
-114
-109
-105
-100
-93
-87
-81
-74
-66
-58
-49
-40
-31
-22
-13
-5
4
11
17
23
28
31
33
33
32
28
23
16
8
-2
-13
-26
-39
-54
-70
-87
-104
-122
-140
-158
-176
-193
-210
-224
-239
-253
-266
-277
-287
-296
-304
-310
-314
-317
-319
-318
-317
-315
-312
-308
-303
-297
-290
-284
-276
-268
-261
-252
-245
-236
-228
-220
-212
-204
-197
-190
-182
-176
-170
-164
-158
-154
-148
-144
-140
-135
-132
-129
-126
-124
-121
-119
-117
-116
-115
-113
-113
-111
-111
-110
-110
-109
-110
-109
-109
-109
-109
-109
-109
-108
-108
-108
-108
-107
-107
-107
-108
-107
-107
-106
-106
-106
-106
-105
-105
-105
-105
-104
-104
-105
-104
-104
-104
-104
-104
-103
-103
-102
-103
-103
-102
-102
-101
-102
-101
-101
-101
-100
-100
-100
-100
-100
-99
-99
-99
-99
-98
-98
-98
-99
-98
-98
-98
-99
-99
-99
-98
-98
-98
-98
-97
-97
-98
-98
-98
-98
-97
-97
-96
-97
-97
-95
-95
-95
-95
-95
-95
-95
-95
-94
-94
-94
-93
-93
-93
-93
-93
-92
-91
-91
-91
-90
-90
-90
-89
-89
-89
-88
-88
-88
-88
-88
-87
-87
-86
-86
-86
-86
-85
-85
-85
-85
-84
-83
-84
-84
-83
-83
-83
-83
-82
-82
-82
-82
-81
-81
-80
-79
-79
-78
-79
-78
-77
-77
-76
-76
-75
-75
-74
-73
-73
-72
-72
-71
-71
-70
-69
-70
-69
-69
-67
-67
-66
-67
-67
-67
-66
-65
-64
-65
-63
-63
-63
-61
-61
-61
-59
-59
-59
-58
-58
-57
-55
-55
-54
-54
-53
-53
-52
-51
-50
-50
-50
-49
-48
-48
-47
-46
-45
-45
-45
-43
-43
-42
-41
-41
-41
-40
-40
-39
-38
-37
-37
-36
-36
-36
-35
-34
-34
-34
-34
-32
-32
-32
-32
-31
-31
-31
-31
-30
-29
-29
-30
-29
-28
-29
-28
-27
-27
-27
-27
-27
-27
-27
-27
-27
-27
-27
-27
-28
-28
-28
-28
-29
-30
-30
-30
-30
-32
-32
-33
-33
-34
-35
-35
-36
-37
-38
-39
-39
-41
-41
-42
-43
-44
-45
-46
-46
-48
-49
-51
-53
-54
-55
-57
-58
-59
-62
-63
-65
-66
-68
-69
-71
-73
-73
-75
-77
-78
-79
-81
-83
-83
-85
-87
-88
-89
-91
-91
-93
-94
-95
-96
-98
-99
-99
-101
-102
-103
-105
-106
-107
-108
-109
-110
-112
-112
-114
-115
-116
-118
-118
-119
-121
-121
-122
-123
-124
-124
-125
-126
-127
-128
-128
-128
-128
-129
-129
-129
-129
-130
-130
-129
-131
-131
-130
-130
-131
-130
-130
-131
-131
-130
-131
-131
-131
-131
-131
-131
-131
-132
-132
-131
-132
-132
-133
-133
-133
-133
-133
-134
-134
-134
-135
-135
-135
-136
-136
-136
-136
-136
-136
-137
-137
-137
-137
-137
-138
-138
-138
-138
-138
-138
-138
-138
-139
-139
-139
-140
-139
-139
-139
-140
-140
-139
-139
-139
-140
-140
-140
-140
-140
-140
-140
-140
-141
-140
-140
-141
-140
-140
-140
-141
-141
-141
-141
-141
-141
-142
-141
-142
-142
-143
-143
-143
-143
-143
-144
-144
-144
-144
-144
-144
-145
-145
-145
-145
-145
-145
-145
-145
-146
-145
-146
-146
-146
-147
-146
-146
-146
-146
-146
-147
-147
-147
-147
-147
-148
-148
-147
-147
-147
-147
-147
-147
-147
-147
-147
-146
-147
-147
-147
-147
-148
-148
-148
-148
-148
-148
-149
-150
-149
-150
-151
-151
-151
-151
-152
-152
-152
-152
-152
-152
-153
-153
-153
-153
-152
-153
-153
-153
-154
-153
-153
-153
-153
-154
-154
-154
-154
-155
-155
-155
-156
-156
-156
-156
-156
-156
-156
-156
-156
-156
-156
-156
-157
-157
-156
-156
-157
-157
-156
-156
-156
-156
-156
-156
-157
-157
-157
-157
-157
-157
-157
-157
-158
-158
-158
-158
-159
-159
-160
-160
-160
-161
-161
-161
-162
-162
-162
-162
-162
-163
-163
-163
-163
-164
-164
-164
-164
-164
-164
-165
-165
-166
-166
-166
-166
-167
-166
-167
-167
-167
-167
-167
-168
-168
-169
-169
-169
-169
-170
-170
-170
-170
-170
-170
-171
-170
-171
-171
-170
-170
-170
-171
-171
-171
-170
-171
-171
-171
-171
-171
-171
-171
-172
-172
-171
-172
-172
-172
-173
-173
-172
-173
-173
-174
-173
-174
-174
-174
-173
-174
-174
-174
-174
-174
-174
-175
-174
-174
-174
-174
-174
-175
-175
-176
-176
-175
-175
-175
-176
-176
-176
-177
-177
-177
-177
-177
-177
-178
-178
-178
-178
-177
-177
-178
-178
-178
-178
-178
-178
-178
-179
-179
-179
-179
-179
-179
-179
-179
-179
-179
-179
-179
-180
-180
-180
-179
-179
-179
-179
-179
-180
-180
-180
-180
-180
-178
-179
-179
-179
-179
-179
-179
-179
-179
-179
-179
-179
-180
-180
-180
-181
-181
-181
-181
-182
-182
-182
-182
-182
-183
-183
-184
-184
-184
-184
-184
-184
-184
-185
-185
-185
-185
-185
-185
-184
-185
-185
-185
-185
-185
-184
-184
-184
-184
-184
-183
-184
-184
-185
-184
-184
-185
-185
-185
-185
-185
-185
-186
-186
-187
-187
-187
-187
-188
-188
-188
-189
-189
-189
-189
-189
-190
-190
-189
-190
-190
-190
-190
-190
-190
-190
-190
-190
-191
-191
-192
-192
-192
-192
-192
-191
-191
-191
-191
-191
-190
-191
-190
-190
-190
-189
-190
-190
-189
-188
-189
-189
-188
-188
-188
-188
-188
-188
-188
-188
-188
-188
-187
-188
-188
-187
-187
-187
-187
-187
-187
-187
-187
-186
-186
-186
-186
-185
-185
-186
-185
-185
-186
-186
-186
-187
-187
-188
-188
-189
-189
-190
-191
-192
-193
-195
-195
-196
-197
-198
-198
-199
-201
-201
-201
-202
-203
-203
-204
-204
-204
-205
-205
-205
-206
-207
-206
-206
-207
-207
-207
-207
-207
-207
-207
-208
-207
-207
-207
-207
-207
-207
-207
-208
-207
-207
-208
-208
-208
-208
-208
-208
-208
-209
-209
-208
-208
-208
-209
-209
-209
-209
-208
-208
-208
-209
-209
-208
-208
-209
-209
-209
-208
-208
-209
-209
-208
-208
-208
-210
-210
-210
-210
-209
-209
-210
-210
-210
-210
-210
-210
-210
-210
-210
-210
-210
-210
-210
-210
-209
-209
-209
-208
-208
-208
-208
-209
-209
-208
-208
-208
-208
-209
-209
-209
-208
-208
-208
-208
-209
-209
-209
-209
-209
-209
-209
-209
-209
-208
-208
-208
-207
-208
-207
-207
-207
-206
-206
-206
-206
-205
-205
-204
-203
-203
-202
-200
-200
-197
-195
-193
-189
-185
-180
-176
-169
-163
-156
-149
-142
-134
-126
-119
-110
-102
-93
-86
-79
-73
-68
-64
-60
-60
-60
-61
-64
-69
-76
-83
-92
-103
-115
-127
-140
-156
-173
-189
-207
-224
-242
-258
-275
-290
-305
-319
-332
-344
-355
-365
-374
-382
-387
-392
-394
-396
-396
-396
-393
-390
-386
-382
-376
-370
-363
-356
-349
-341
-333
-326
-317
-309
-302
-294
-286
-279
-273
-266
-259
-254
-248
-243
-238
-234
-229
-226
-222
-219
-215
-213
-211
-208
-206
-204
-202
-201
-200
-199
-198
-197
-197
-196
-195
-195
-196
-195
-194
-195
-194
-194
-194
-194
-194
-194
-194
-194
-194
-194
-194
-194
-194
-193
-193
-194
-194
-193
-193
-193
-193
-193
-193
-193
-193
-193
-193
-193
-193
-193
-193
-193
-193
-193
-192
-192
-192
-192
-191
-191
-191
-191
-191
-190
-189
-189
-190
-190
-189
-189
-189
-189
-189
-188
-188
-188
-188
-188
-188
-188
-188
-188
-188
-188
-188
-187
-188
-187
-187
-187
-187
-186
-186
-186
-186
-185
-185
-184
-184
-183
-183
-183
-183
-183
-182
-182
-182
-182
-182
-182
-181
-181
-181
-181
-182
-181
-181
-181
-180
-180
-180
-180
-180
-180
-179
-178
-178
-178
-177
-177
-177
-176
-176
-175
-175
-175
-174
-174
-173
-174
-173
-173
-172
-172
-172
-171
-171
-171
-170
-170
-170
-169
-169
-169
-167
-168
-167
-167
-167
-166
-165
-165
-165
-164
-164
-163
-163
-163
-163
-162
-162
-162
-161
-161
-161
-161
-161
-160
-160
-159
-159
-158
-158
-158
-157
-156
-155
-155
-155
-154
-154
-152
-152
-151
-150
-149
-149
-148
-147
-146
-146
-146
-145
-143
-143
-142
-142
-140
-140
-139
-139
-139
-137
-137
-136
-136
-135
-134
-134
-133
-133
-132
-132
-132
-131
-130
-130
-129
-130
-130
-129
-128
-128
-127
-128
-127
-127
-126
-126
-125
-125
-125
-125
-125
-125
-125
-124
-124
-124
-124
-124
-123
-124
-124
-123
-123
-124
-124
-124
-124
-125
-125
-125
-126
-126
-126
-126
-126
-127
-127
-128
-128
-128
-129
-129
-130
-131
-132
-133
-133
-134
-134
-136
-137
-138
-139
-140
-142
-142
-143
-145
-146
-148
-149
-150
-151
-153
-154
-155
-156
-158
-159
-160
-162
-164
-164
-166
-168
-168
-170
-172
-172
-174
-175
-177
-178
-180
-180
-182
-184
-185
-186
-188
-189
-190
-191
-192
-193
-194
-196
-196
-197
-198
-199
-200
-201
-202
-202
-204
-204
-205
-206
-206
-207
-207
-209
-209
-209
-210
-211
-212
-212
-212
-212
-214
-214
-215
-215
-215
-215
-215
-216
-216
-216
-217
-218
-218
-218
-219
-219
-219
-218
-218
-218
-219
-219
-218
-219
-218
-218
-218
-218
-218
-218
-218
-218
-218
-218
-218
-219
-219
-218
-219
-219
-219
-220
-220
-220
-220
-220
-220
-220
-221
-221
-221
-220
-220
-220
-220
-220
-220
-219
-219
-219
-218
-218
-218
-218
-218
-218
-218
-218
-218
-218
-218
-218
-218
-218
-219
-219
-219
-219
-219
-219
-219
-220
-220
-220
-219
-220
-220
-220
-219
-219
-219
-219
-218
-218
-218
-218
-218
-218
-218
-216
-217
-216
-216
-216
-215
-215
-215
-215
-215
-215
-215
-215
-214
-214
-214
-214
-214
-214
-214
-214
-213
-213
-214
-214
-214
-214
-214
-214
-214
-214
-214
-214
-213
-213
-214
-214
-214
-214
-214
-214
-214
-214
-214
-213
-214
-213
-213
-213
-214
-214
-214
-213
-213
-213
-213
-213
-214
-214
-214
-214
-214
-214
-214
-214
-214
-214
-213
-213
-214
-213
-213
-213
-213
-213
-213
-213
-212
-212
-212
-213
-213
-212
-212
-212
-212
-212
-212
-212
-212
-212
-213
-212
-212
-212
-212
-212
-212
-213
-213
-212
-212
-212
-213
-213
-213
-213
-213
-213
-214
-214
-213
-213
-213
-214
-214
-214
-214
-214
-215
-215
-215
-215
-215
-215
-215
-215
-215
-215
-215
-215
-215
-215
-214
-214
-214
-214
-214
-214
-214
-214
-214
-214
-214
-214
-214
-214
-213
-213
-213
-213
-213
-214
-214
-214
-213
-213
-213
-213
-214
-214
-214
-214
-214
-214
-215
-215
-214
-214
-215
-215
-215
-214
-214
-215
-215
-215
-215
-215
-215
-215
-215
-215
-215
-215
-214
-214
-213
-213
-214
-214
-213
-213
-214
-213
-214
-214
-214
-213
-213
-213
-214
-214
-214
-214
-214
-215
-215
-215
-215
-216
-216
-216
-216
-216
-216
-216
-217
-217
-217
-217
-216
-216
-216
-216
-216
-216
-215
-215
-215
-215
-214
-214
-214
-214
-214
-213
-213
-212
-212
-213
-213
-213
-212
-212
-212
-212
-212
-213
-214
-214
-214
-214
-213
-213
-214
-215
-215
-214
-214
-214
-214
-214
-215
-215
-215
-214
-214
-214
-215
-215
-215
-214
-214
-213
-214
-214
-214
-214
-214
-214
-214
-214
-214
-213
-213
-214
-213
-213
-212
-212
-213
-212
-212
-212
-213
-213
-212
-212
-212
-211
-211
-211
-212
-212
-212
-212
-212
-212
-212
-212
-212
-212
-211
-212
-212
-212
-213
-213
-212
-212
-212
-212
-212
-212
-212
-212
-213
-212
-212
-212
-212
-212
-212
-212
-212
-213
-213
-212
-212
-212
-212
-212
-212
-212
-212
-212
-212
-212
-212
-212
-212
-211
-211
-211
-211
-212
-212
-211
-211
-211
-210
-210
-210
-210
-210
-209
-209
-209
-209
-209
-209
-208
-208
-208
-208
-208
-208
-208
-207
-207
-208
-208
-207
-207
-207
-207
-207
-207
-206
-206
-206
-205
-205
-204
-205
-204
-204
-203
-203
-202
-202
-202
-201
-201
-201
-201
-201
-201
-200
-200
-200
-199
-199
-199
-199
-198
-197
-197
-197
-195
-195
-195
-194
-193
-193
-193
-193
-193
-193
-194
-194
-194
-195
-195
-196
-197
-198
-199
-200
-201
-202
-203
-204
-205
-205
-206
-206
-207
-208
-209
-209
-208
-209
-208
-208
-208
-209
-208
-208
-208
-207
-208
-207
-207
-207
-207
-207
-207
-207
-207
-207
-207
-207
-206
-206
-207
-207
-207
-207
-207
-207
-207
-207
-207
-206
-207
-206
-206
-207
-207
-206
-206
-206
-206
-206
-206
-206
-206
-207
-206
-206
-206
-206
-206
-206
-206
-206
-205
-205
-205
-205
-205
-204
-205
-204
-204
-204
-204
-204
-203
-204
-203
-204
-203
-204
-204
-204
-203
-203
-204
-204
-203
-203
-202
-202
-202
-203
-202
-202
-202
-202
-202
-202
-202
-202
-202
-202
-202
-202
-202
-202
-202
-202
-202
-202
-202
-202
-202
-202
-201
-201
-200
-200
-201
-200
-199
-199
-199
-198
-199
-199
-199
-199
-199
-198
-198
-198
-198
-197
-197
-196
-195
-194
-192
-190
-188
-185
-181
-177
-173
-167
-161
-154
-147
-139
-132
-124
-117
-108
-99
-91
-83
-75
-68
-62
-56
-51
-49
-47
-48
-50
-54
-58
-65
-73
-83
-94
-105
-120
-133
-148
-165
-183
-201
-219
-236
-253
-270
-286
-301
-315
-329
-341
-351
-361
-370
-376
-381
-386
-388
-388
-388
-387
-384
-380
-374
-369
-363
-356
-349
-341
-333
-325
-317
-308
-300
-292
-283
-276
-268
-261
-253
-247
-241
-235
-229
-223
-219
-214
-211
-206
-203
-200
-197
-195
-192
-191
-189
-187
-186
-184
-183
-183
-182
-182
-181
-181
-180
-180
-180
-179
-179
-179
-179
-179
-179
-179
-179
-178
-178
-177
-177
-177
-177
-176
-176
-176
-176
-176
-176
-176
-175
-175
-175
-175
-175
-175
-174
-175
-174
-174
-174
-174
-174
-174
-173
-173
-173
-173
-173
-172
-173
-172
-172
-172
-172
-172
-172
-171
-171
-171
-170
-170
-170
-169
-169
-168
-168
-168
-167
-167
-167
-167
-166
-166
-166
-166
-166
-166
-165
-164
-164
-164
-164
-164
-163
-163
-162
-162
-162
-162
-161
-161
-161
-160
-160
-160
-160
-160
-159
-159
-158
-158
-158
-158
-158
-157
-157
-157
-157
-157
-156
-156
-155
-155
-155
-155
-154
-154
-154
-154
-154
-153
-153
-152
-152
-151
-151
-150
-151
-151
-150
-149
-149
-149
-148
-148
-147
-147
-147
-146
-146
-145
-145
-144
-144
-143
-143
-143
-142
-142
-141
-140
-140
-139
-139
-139
-138
-137
-137
-136
-136
-136
-136
-135
-135
-134
-134
-134
-134
-132
-132
-131
-131
-130
-129
-129
-129
-127
-127
-126
-125
-125
-124
-124
-123
-122
-121
-121
-121
-120
-120
-119
-118
-118
-116
-116
-116
-116
-114
-114
-113
-113
-112
-112
-111
-110
-109
-109
-107
-107
-107
-106
-105
-105
-104
-104
-102
-102
-102
-100
-100
-99
-99
-99
-99
-98
-97
-97
-97
-96
-97
-95
-95
-95
-95
-94
-95
-94
-94
-94
-93
-93
-93
-93
-93
-92
-91
-92
-92
-92
-91
-92
-92
-93
-92
-93
-93
-93
-94
-94
-95
-95
-96
-96
-97
-98
-98
-98
-99
-100
-101
-102
-103
-103
-104
-106
-107
-108
-108
-109
-110
-112
-113
-114
-115
-117
-117
-118
-119
-121
-121
-123
-125
-126
-127
-129
-129
-131
-132
-134
-136
-137
-138
-139
-141
-143
-144
-146
-147
-148
-149
-151
-152
-154
-155
-156
-157
-158
-159
-161
-161
-162
-164
-165
-165
-167
-167
-169
-169
-170
-171
-171
-173
-173
-173
-174
-175
-175
-175
-175
-176
-177
-177
-177
-177
-177
-177
-178
-178
-179
-179
-180
-180
-180
-180
-181
-181
-181
-181
-181
-181
-183
-183
-183
-183
-183
-183
-184
-184
-184
-184
-184
-184
-184
-184
-184
-184
-184
-184
-184
-184
-184
-183
-183
-184
-184
-183
-183
-183
-183
-183
-183
-183
-183
-184
-184
-184
-183
-183
-183
-183
-184
-183
-184
-184
-184
-184
-184
-184
-184
-184
-184
-184
-184
-184
-185
-185
-184
-184
-184
-184
-184
-184
-184
-185
-185
-185
-185
-185
-185
-184
-184
-185
-185
-185
-185
-184
-184
-185
-185
-185
-185
-185
-185
-185
-185
-184
-185
-185
-185
-185
-185
-185
-184
-185
-185
-185
-184
-183
-183
-184
-184
-184
-184
-183
-182
-183
-182
-182
-182
-182
-181
-181
-181
-181
-181
-181
-181
-181
-182
-182
-181
-181
-182
-182
-182
-182
-182
-181
-182
-181
-182
-182
-182
-181
-181
-181
-181
-181
-181
-181
-181
-181
-181
-181
-180
-180
-181
-181
-181
-182
-181
-181
-182
-182
-182
-182
-182
-181
-181
-182
-182
-182
-182
-181
-181
-181
-181
-182
-182
-182
-182
-182
-182
-182
-181
-181
-181
-182
-182
-183
-183
-183
-183
-183
-183
-183
-184
-184
-184
-184
-182
-183
-182
-183
-183
-183
-183
-183
-182
-183
-182
-182
-182
-182
-183
-183
-183
-183
-183
-183
-184
-184
-184
-184
-184
-184
-184
-185
-184
-184
-184
-184
-184
-183
-183
-182
-182
-182
-181
-181
-180
-180
-180
-179
-179
-178
-178
-178
-178
-177
-177
-177
-177
-176
-176
-176
-175
-176
-176
-176
-176
-176
-176
-175
-175
-176
-175
-175
-175
-175
-175
-175
-175
-175
-175
-175
-175
-175
-174
-174
-174
-174
-175
-174
-174
-174
-174
-174
-174
-174
-174
-173
-173
-172
-173
-173
-173
-172
-172
-172
-172
-172
-171
-171
-171
-171
-171
-171
-170
-170
-170
-171
-170
-170
-170
-170
-170
-170
-170
-170
-171
-171
-171
-171
-171
-171
-171
-171
-171
-171
-171
-172
-171
-171
-171
-172
-172
-172
-171
-171
-171
-171
-171
-172
-172
-171
-172
-172
-172
-172
-171
-172
-172
-171
-172
-172
-172
-171
-171
-172
-171
-171
-171
-171
-171
-171
-170
-171
-171
-171
-171
-171
-171
-171
-170
-170
-170
-171
-171
-171
-171
-171
-171
-171
-172
-171
-171
-171
-171
-171
-171
-171
-171
-170
-170
-170
-170
-170
-170
-170
-170
-170
-170
-170
-170
-170
-170
-170
-170
-170
-171
-171
-171
-171
-170
-171
-171
-170
-171
-170
-170
-171
-171
-171
-171
-171
-170
-170
-170
-170
-170
-170
-170
-170
-171
-171
-171
-171
-170
-171
-170
-170
-170
-170
-170
-170
-170
-170
-170
-170
-170
-170
-169
-169
-169
-169
-169
-169
-169
-169
-169
-169
-169
-169
-168
-168
-168
-169
-169
-169
-169
-169
-169
-169
-170
-170
-170
-170
-170
-170
-170
-170
-170
-170
-170
-170
-169
-169
-169
-168
-168
-168
-167
-166
-166
-165
-165
-164
-164
-164
-162
-162
-162
-161
-161
-160
-160
-160
-159
-159
-160
-159
-159
-158
-159
-158
-158
-158
-157
-157
-156
-156
-155
-155
-154
-154
-153
-153
-153
-153
-153
-153
-153
-153
-153
-153
-154
-155
-155
-157
-158
-159
-160
-161
-162
-163
-164
-165
-166
-167
-167
-169
-169
-170
-169
-170
-170
-170
-170
-170
-170
-169
-169
-170
-169
-169
-169
-168
-169
-168
-168
-168
-168
-168
-168
-169
-169
-169
-169
-169
-169
-169
-169
-169
-169
-169
-169
-169
-169
-169
-169
-169
-169
-169
-169
-169
-169
-169
-169
-169
-168
-169
-169
-169
-169
-169
-169
-169
-169
-169
-168
-168
-168
-168
-168
-168
-168
-168
-169
-168
-168
-168
-168
-168
-168
-168
-168
-168
-168
-168
-168
-168
-168
-167
-166
-166
-166
-167
-167
-167
-166
-166
-165
-165
-165
-165
-164
-164
-164
-164
-164
-164
-164
-164
-164
-164
-164
-164
-164
-164
-164
-164
-164
-164
-164
-163
-163
-162
-163
-163
-163
-162
-162
-161
-161
-161
-162
-161
-161
-160
-160
-160
-159
-158
-158
-157
-156
-154
-152
-150
-147
-145
-140
-137
-132
-126
-120
-113
-106
-99
-91
-83
-75
-67
-58
-49
-42
-33
-27
-21
-16
-13
-10
-8
-9
-12
-15
-21
-28
-36
-46
-58
-71
-85
-99
-116
-132
-150
-168
-186
-203
-221
-237
-253
-268
-282
-295
-307
-318
-327
-336
-342
-347
-350
-353
-354
-352
-350
-347
-343
-338
-333
-327
-319
-313
-305
-297
-289
-281
-272
-264
-255
-247
-240
-233
-225
-218
-212
-205
-200
-194
-189
-184
-180
-176
-172
-168
-165
-163
-160
-158
-156
-154
-152
-150
-149
-148
-147
-146
-146
-145
-145
-145
-145
-144
-144
-144
-143
-143
-143
-144
-144
-143
-143
-143
-143
-143
-143
-143
-142
-142
-142
-142
-142
-142
-142
-142
-142
-142
-142
-141
-140
-140
-140
-139
-139
-138
-139
-138
-137
-138
-138
-137
-137
-136
-136
-136
-136
-136
-137
-136
-136
-136
-136
-136
-136
-136
-136
-136
-136
-136
-136
-136
-136
-134
-135
-135
-134
-134
-134
-133
-133
-133
-132
-132
-131
-131
-132
-131
-131
-131
-130
-130
-130
-129
-129
-129
-128
-127
-127
-127
-126
-126
-126
-126
-126
-126
-125
-125
-124
-124
-124
-124
-124
-123
-123
-122
-122
-122
-122
-121
-121
-121
-121
-120
-120
-120
-120
-119
-119
-118
-118
-118
-118
-118
-117
-117
-117
-116
-116
-116
-115
-115
-115
-115
-115
-115
-114
-115
-113
-113
-113
-113
-113
-112
-112
-112
-111
-111
-111
-110
-109
-109
-109
-108
-108
-107
-107
-106
-106
-105
-104
-104
-103
-102
-102
-101
-101
-100
-99
-98
-98
-97
-97
-96
-95
-94
-95
-94
-93
-92
-92
-92
-91
-90
-89
-89
-89
-88
-88
-88
-87
-86
-86
-86
-85
-85
-84
-83
-84
-83
-83
-82
-82
-81
-81
-80
-79
-79
-78
-78
-77
-77
-77
-76
-75
-74
-74
-73
-73
-72
-72
-72
-71
-71
-70
-70
-70
-69
-69
-69
-68
-68
-68
-68
-68
-68
-68
-68
-67
-67
-67
-67
-67
-67
-67
-67
-66
-67
-67
-67
-67
-67
-68
-68
-68
-68
-69
-69
-69
-70
-71
-71
-72
-72
-72
-73
-74
-75
-76
-78
-79
-80
-81
-82
-83
-84
-85
-86
-88
-89
-91
-92
-93
-94
-95
-96
-97
-99
-99
-101
-103
-104
-105
-107
-107
-109
-110
-111
-113
-115
-115
-117
-118
-120
-121
-122
-124
-126
-126
-128
-128
-130
-132
-133
-133
-135
-136
-137
-138
-140
-141
-141
-142
-144
-144
-145
-145
-147
-147
-148
-148
-150
-150
-151
-152
-152
-153
-153
-153
-153
-154
-154
-154
-154
-154
-155
-155
-155
-155
-155
-155
-156
-156
-157
-157
-157
-157
-157
-158
-158
-159
-159
-159
-159
-160
-160
-160
-161
-161
-160
-161
-162
-161
-161
-161
-161
-161
-162
-161
-161
-162
-162
-162
-162
-162
-163
-162
-163
-162
-162
-162
-162
-162
-161
-162
-162
-161
-161
-161
-161
-161
-160
-161
-161
-160
-160
-160
-160
-160
-160
-160
-160
-160
-160
-160
-160
-160
-160
-160
-161
-161
-161
-161
-161
-161
-161
-161
-161
-162
-162
-162
-162
-162
-162
-162
-162
-161
-162
-161
-161
-161
-161
-161
-160
-160
-160
-159
-159
-158
-158
-158
-158
-158
-158
-158
-158
-158
-157
-158
-158
-158
-158
-158
-158
-159
-159
-160
-159
-160
-160
-160
-160
-159
-160
-160
-160
-160
-160
-160
-159
-159
-160
-159
-159
-159
-159
-159
-159
-159
-159
-159
-159
-159
-158
-158
-158
-159
-159
-159
-159
-158
-159
-159
-159
-159
-159
-159
-159
-158
-158
-158
-158
-158
-158
-158
-158
-158
-158
-157
-157
-157
-157
-158
-158
-158
-158
-159
-159
-159
-158
-159
-159
-159
-159
-160
-160
-160
-160
-161
-161
-160
-160
-160
-161
-161
-161
-160
-161
-161
-161
-160
-160
-160
-161
-161
-161
-161
-160
-160
-160
-161
-161
-160
-160
-161
-161
-161
-161
-161
-161
-161
-161
-160
-160
-161
-161
-161
-161
-161
-161
-161
-161
-161
-161
-161
-162
-162
-162
-162
-162
-162
-162
-162
-162
-162
-162
-162
-162
-163
-162
-162
-163
-163
-163
-163
-163
-164
-163
-163
-163
-163
-163
-164
-164
-163
-163
-163
-163
-163
-163
-163
-164
-162
-162
-163
-163
-163
-163
-163
-163
-163
-164
-164
-163
-164
-165
-165
-165
-165
-165
-165
-165
-165
-165
-165
-165
-165
-166
-166
-165
-165
-165
-165
-165
-165
-165
-165
-165
-165
-166
-165
-165
-165
-165
-165
-165
-166
-166
-166
-166
-166
-166
-166
-167
-167
-167
-167
-167
-167
-167
-167
-167
-167
-167
-166
-166
-166
-165
-165
-166
-165
-165
-165
-165
-165
-165
-165
-165
-165
-165
-165
-165
-165
-165
-165
-165
-164
-165
-165
-166
-165
-165
-165
-165
-164
-164
-165
-165
-165
-165
-165
-165
-165
-165
-165
-165
-165
-166
-166
-165
-165
-165
-165
-166
-165
-165
-165
-166
-166
-166
-166
-165
-165
-166
-166
-166
-166
-165
-166
-166
-165
-165
-165
-166
-166
-166
-165
-165
-165
-165
-165
-165
-164
-165
-165
-165
-164
-165
-165
-164
-165
-165
-165
-165
-165
-165
-165
-165
-165
-165
-165
-164
-164
-164
-164
-163
-163
-163
-163
-162
-162
-162
-162
-163
-162
-162
-162
-163
-163
-162
-162
-163
-163
-163
-163
-163
-163
-163
-163
-163
-163
-163
-163
-164
-164
-164
-163
-163
-163
-163
-163
-163
-163
-163
-163
-164
-164
-164
-164
-164
-164
-164
-164
-164
-164
-164
-164
-164
-164
-164
-164
-164
-164
-164
-163
-163
-163
-164
-164
-162
-162
-162
-162
-162
-162
-162
-161
-162
-162
-161
-162
-161
-161
-161
-161
-160
-160
-159
-160
-159
-158
-158
-158
-157
-157
-157
-156
-155
-155
-155
-154
-154
-154
-154
-153
-152
-152
-151
-150
-150
-149
-148
-148
-147
-147
-146
-146
-145
-145
-145
-145
-145
-144
-144
-145
-145
-145
-147
-147
-149
-149
-150
-151
-153
-154
-155
-156
-158
-158
-159
-160
-161
-162
-163
-162
-163
-163
-163
-163
-164
-164
-164
-164
-164
-164
-164
-163
-163
-162
-162
-163
-163
-163
-162
-162
-162
-162
-161
-162
-162
-162
-162
-163
-162
-162
-162
-163
-163
-162
-163
-163
-163
-163
-163
-164
-163
-163
-164
-164
-163
-163
-164
-164
-164
-163
-163
-163
-163
-163
-163
-164
-164
-163
-163
-163
-163
-163
-162
-163
-163
-163
-163
-163
-162
-162
-162
-162
-162
-162
-162
-162
-162
-162
-161
-162
-161
-161
-161
-162
-162
-161
-162
-162
-162
-162
-162
-161
-161
-161
-161
-161
-161
-161
-160
-161
-161
-159
-159
-159
-159
-158
-159
-158
-157
-157
-156
-157
-156
-155
-155
-155
-155
-155
-154
-154
-154
-153
-154
-154
-153
-154
-153
-154
-153
-153
-153
-153
-152
-151
-150
-148
-146
-143
-140
-136
-132
-127
-121
-115
-108
-101
-93
-85
-77
-68
-58
-49
-41
-33
-24
-18
-11
-6
-2
0
1
0
-2
-7
-14
-20
-30
-40
-53
-66
-80
-96
-112
-130
-148
-166
-184
-203
-220
-237
-252
-267
-282
-294
-306
-316
-325
-332
-338
-344
-346
-349
-348
-348
-345
-342
-338
-333
-327
-321
-314
-307
-300
-292
-284
-276
-267
-259
-251
-243
-235
-228
-220
-213
-206
-200
-195
-189
-184
-179
-174
-171
-166
-163
-159
-157
-154
-152
-150
-149
-146
-146
-145
-144
-143
-143
-142
-142
-141
-140
-141
-141
-141
-141
-141
-140
-140
-140
-140
-140
-140
-140
-140
-140
-140
-140
-139
-139
-139
-139
-139
-139
-139
-140
-139
-139
-139
-138
-138
-138
-138
-138
-137
-137
-137
-138
-138
-137
-137
-137
-137
-136
-136
-136
-136
-136
-135
-135
-135
-135
-135
-134
-134
-133
-133
-133
-133
-133
-133
-133
-133
-133
-132
-131
-131
-132
-132
-131
-131
-131
-131
-131
-131
-130
-130
-130
-129
-129
-129
-129
-129
-129
-129
-129
-128
-128
-128
-128
-127
-127
-127
-127
-127
-127
-126
-127
-127
-126
-126
-126
-126
-126
-127
-126
-126
-126
-125
-125
-126
-125
-125
-126
-126
-125
-124
-125
-125
-124
-124
-124
-123
-124
-123
-123
-122
-122
-122
-121
-121
-120
-119
-119
-118
-118
-118
-118
-116
-116
-116
-115
-115
-115
-114
-114
-112
-112
-112
-111
-111
-111
-111
-110
-110
-110
-110
-109
-109
-109
-109
-109
-109
-108
-108
-108
-107
-106
-106
-106
-105
-106
-105
-104
-104
-103
-103
-103
-102
-102
-101
-100
-100
-99
-99
-99
-98
-97
-97
-96
-95
-94
-94
-94
-93
-93
-92
-91
-90
-90
-89
-88
-88
-87
-86
-86
-85
-85
-84
-84
-83
-83
-82
-82
-82
-82
-82
-81
-81
-81
-81
-80
-81
-81
-80
-80
-80
-80
-80
-80
-80
-79
-80
-80
-79
-79
-79
-78
-79
-78
-79
-78
-78
-78
-79
-79
-79
-80
-79
-80
-81
-81
-81
-82
-83
-83
-84
-85
-86
-87
-88
-89
-90
-91
-92
-92
-93
-95
-96
-97
-98
-100
-101
-102
-103
-104
-106
-107
-109
-110
-112
-113
-114
-115
-118
-119
-120
-122
-123
-126
-127
-129
-130
-131
-133
-135
-137
-139
-140
-141
-143
-145
-146
-148
-150
-151
-153
-153
-155
-157
-158
-159
-161
-162
-164
-165
-167
-168
-170
-170
-172
-173
-174
-175
-176
-178
-179
-179
-181
-182
-183
-184
-185
-185
-186
-186
-188
-188
-190
-190
-191
-191
-191
-193
-194
-194
-195
-195
-196
-196
-196
-197
-198
-199
-199
-199
-200
-201
-201
-201
-201
-202
-203
-203
-203
-204
-205
-205
-205
-206
-207
-207
-208
-208
-208
-208
-208
-209
-209
-209
-210
-210
-210
-210
-210
-210
-210
-211
-210
-210
-210
-210
-210
-210
-210
-211
-211
-211
-212
-212
-212
-212
-212
-212
-213
-213
-214
-214
-215
-215
-215
-215
-216
-216
-216
-217
-217
-217
-218
-218
-219
-219
-219
-219
-219
-219
-219
-219
-220
-220
-221
-220
-220
-220
-220
-220
-221
-221
-221
-222
-222
-222
-223
-222
-223
-223
-223
-224
-224
-224
-224
-224
-225
-225
-226
-226
-226
-226
-226
-226
-226
-227
-227
-227
-227
-228
-228
-228
-228
-229
-228
-229
-229
-229
-229
-229
-229
-230
-230
-230
-231
-231
-231
-231
-232
-232
-232
-232
-232
-233
-233
-233
-234
-234
-234
-234
-234
-235
-235
-235
-235
-236
-236
-236
-237
-237
-238
-238
-238
-238
-239
-239
-240
-240
-240
-240
-240
-240
-241
-241
-241
-241
-242
-242
-243
-244
-244
-244
-244
-244
-244
-244
-245
-245
-246
-246
-246
-246
-246
-246
-246
-246
-246
-246
-247
-247
-247
-247
-247
-248
-248
-249
-249
-250
-250
-250
-250
-250
-251
-251
-252
-253
-253
-253
-253
-253
-253
-253
-254
-254
-254
-254
-254
-254
-255
-255
-255
-255
-256
-256
-256
-256
-256
-257
-257
-257
-258
-257
-258
-259
-259
-259
-259
-259
-259
-259
-259
-260
-260
-260
-261
-261
-261
-261
-261
-261
-262
-262
-262
-262
-263
-263
-263
-263
-265
-265
-265
-266
-265
-265
-265
-265
-265
-266
-266
-266
-267
-267
-267
-267
-267
-267
-267
-267
-268
-268
-268
-269
-269
-269
-269
-270
-270
-270
-271
-271
-271
-270
-271
-271
-271
-271
-272
-272
-272
-272
-273
-272
-272
-274
-273
-273
-273
-273
-274
-274
-274
-274
-274
-275
-274
-275
-275
-274
-275
-275
-275
-275
-275
-275
-275
-275
-275
-275
-275
-275
-275
-276
-276
-276
-277
-276
-276
-277
-277
-278
-277
-278
-278
-278
-278
-280
-279
-279
-280
-280
-280
-280
-281
-281
-281
-281
-281
-281
-282
-281
-282
-282
-283
-283
-283
-283
-283
-283
-284
-284
-284
-284
-285
-285
-286
-285
-286
-286
-286
-287
-287
-286
-287
-287
-286
-287
-287
-287
-287
-288
-287
-287
-287
-288
-287
-287
-288
-288
-287
-287
-287
-287
-288
-289
-288
-288
-288
-289
-289
-289
-289
-289
-289
-289
-289
-290
-290
-290
-289
-290
-290
-291
-291
-291
-291
-291
-290
-292
-292
-292
-292
-291
-291
-291
-291
-291
-291
-291
-292
-291
-291
-291
-291
-290
-290
-290
-290
-289
-288
-288
-287
-287
-286
-287
-286
-285
-285
-285
-284
-285
-284
-284
-284
-283
-283
-283
-283
-282
-283
-282
-282
-282
-282
-281
-281
-281
-280
-281
-280
-280
-280
-280
-279
-279
-278
-279
-278
-278
-279
-279
-279
-280
-279
-280
-281
-282
-282
-283
-284
-284
-286
-286
-288
-288
-290
-291
-291
-291
-292
-293
-293
-294
-293
-294
-294
-294
-295
-295
-294
-294
-294
-294
-294
-295
-294
-294
-294
-294
-294
-295
-295
-295
-295
-295
-295
-296
-296
-296
-296
-296
-296
-296
-296
-296
-296
-296
-295
-295
-295
-295
-295
-294
-294
-295
-294
-294
-294
-294
-294
-294
-294
-294
-294
-294
-293
-294
-293
-293
-293
-293
-293
-293
-294
-294
-294
-294
-294
-293
-293
-293
-293
-294
-293
-292
-292
-293
-293
-293
-293
-294
-294
-294
-293
-293
-294
-294
-294
-294
-294
-294
-295
-295
-295
-295
-295
-294
-294
-294
-294
-294
-295
-294
-294
-294
-294
-294
-294
-294
-293
-293
-293
-293
-293
-292
-292
-291
-291
-290
-290
-290
-289
-289
-288
-288
-288
-287
-287
-287
-286
-287
-286
-286
-285
-284
-284
-282
-281
-280
-277
-275
-272
-268
-264
-259
-253
-248
-241
-234
-227
-219
-211
-203
-195
-186
-178
-170
-162
-155
-151
-146
-143
-143
-142
-143
-145
-149
-155
-162
-170
-180
-191
-204
-217
-232
-249
-265
-282
-299
-316
-333
-349
-365
-379
-393
-406
-418
-429
-439
-447
-454
-461
-465
-468
-470
-471
-469
-468
-465
-462
-457
-452
-445
-439
-433
-426
-419
-412
-403
-395
-388
-380
-373
-366
-358
-351
-345
-338
-333
-327
-321
-317
-311
-307
-304
-299
-296
-293
-291
-288
-285
-283
-281
-280
-278
-276
-275
-275
-274
-273
-272
-272
-271
-270
-271
-270
-270
-269
-270
-270
-269
-269
-270
-270
-270
-270
-269
-270
-270
-269
-269
-270
-270
-269
-269
-269
-269
-269
-269
-268
-268
-268
-268
-267
-267
-267
-266
-266
-265
-265
-265
-265
-264
-264
-264
-263
-263
-263
-263
-263
-262
-262
-262
-262
-262
-261
-262
-261
-261
-261
-261
-261
-260
-261
-260
-260
-260
-260
-260
-260
-259
-259
-259
-259
-259
-258
-258
-258
-257
-256
-257
-256
-256
-256
-255
-254
-254
-254
-254
-254
-253
-253
-254
-254
-253
-253
-253
-253
-253
-252
-253
-252
-252
-252
-251
-251
-250
-250
-250
-249
-249
-248
-248
-248
-248
-247
-247
-247
-246
-246
-246
-245
-245
-244
-244
-244
-244
-244
-243
-242
-242
-242
-242
-242
-240
-240
-240
-239
-239
-239
-238
-237
-237
-237
-236
-236
-235
-235
-235
-235
-235
-234
-234
-234
-234
-233
-233
-232
-232
-232
-232
-232
-231
-230
-229
-229
-229
-229
-227
-227
-226
-226
-225
-224
-224
-223
-222
-222
-221
-221
-220
-219
-219
-217
-217
-216
-216
-215
-214
-214
-213
-213
-213
-212
-211
-211
-210
-210
-209
-209
-208
-207
-208
-207
-205
-205
-205
-205
-204
-203
-203
-202
-202
-201
-201
-201
-200
-199
-198
-199
-198
-198
-197
-196
