# Simple Text Format
# Sampling Rate (Hz):= 1200.00
# Resolution:= 12
# Labels:= ECG	III
# Age:=	63
# Gender:=	Masculino
-127
-126
-126
-126
-126
-126
-126
-125
-125
-124
-124
-124
-123
-123
-122
-122
-122
-121
-122
-122
-121
-121
-122
-122
-123
-123
-124
-124
-124
-124
-125
-125
-125
-125
-125
-125
-124
-124
-124
-124
-123
-122
-122
-121
-121
-121
-120
-119
-119
-119
-119
-119
-119
-119
-119
-119
-120
-120
-121
-121
-121
-121
-121
-121
-122
-122
-123
-123
-123
-123
-123
-123
-123
-123
-123
-123
-123
-123
-123
-123
-123
-123
-123
-123
-124
-124
-124
-124
-124
-124
-124
-124
-124
-124
-123
-123
-123
-123
-123
-122
-122
-121
-121
-121
-120
-120
-120
-119
-119
-119
-119
-119
-119
-118
-117
-117
-117
-116
-116
-116
-116
-115
-115
-115
-115
-115
-115
-115
-115
-115
-115
-115
-115
-115
-116
-116
-116
-117
-118
-118
-119
-119
-119
-119
-120
-120
-120
-120
-120
-120
-120
-120
-120
-119
-119
-119
-118
-118
-118
-118
-117
-117
-117
-117
-117
-117
-117
-116
-116
-116
-116
-117
-117
-116
-116
-116
-115
-115
-114
-114
-113
-113
-112
-112
-112
-111
-111
-111
-111
-111
-111
-112
-112
-112
-112
-113
-114
-114
-115
-116
-117
-118
-119
-120
-121
-122
-122
-122
-122
-122
-122
-122
-122
-122
-122
-121
-121
-121
-120
-120
-119
-118
-117
-117
-116
-116
-116
-115
-115
-114
-114
-114
-114
-114
-114
-113
-113
-112
-112
-112
-112
-112
-112
-112
-113
-113
-113
-112
-112
-112
-112
-113
-114
-114
-115
-115
-115
-116
-116
-116
-116
-115
-115
-115
-114
-114
-113
-113
-112
-111
-110
-108
-107
-106
-104
-103
-102
-101
-100
-99
-98
-97
-96
-96
-96
-95
-95
-95
-95
-96
-96
-96
-96
-96
-97
-97
-97
-98
-99
-100
-100
-100
-100
-101
-101
-101
-102
-102
-102
-103
-103
-104
-105
-106
-107
-107
-108
-108
-109
-109
-110
-110
-111
-111
-112
-113
-113
-113
-113
-113
-113
-113
-113
-112
-111
-111
-110
-110
-111
-110
-110
-110
-109
-108
-108
-108
-108
-108
-108
-108
-108
-108
-108
-108
-108
-108
-108
-108
-108
-109
-109
-109
-109
-109
-109
-109
-109
-109
-108
-108
-108
-108
-108
-108
-108
-109
-109
-109
-109
-109
-110
-110
-110
-110
-111
-112
-112
-112
-112
-112
-113
-113
-113
-113
-113
-113
-113
-112
-112
-112
-111
-110
-109
-109
-108
-108
-107
-106
-105
-104
-104
-103
-103
-102
-102
-101
-101
-101
-101
-102
-102
-103
-103
-104
-104
-105
-106
-106
-106
-107
-108
-108
-108
-109
-108
-108
-108
-108
-108
-107
-107
-106
-106
-106
-106
-105
-105
-105
-104
-103
-103
-102
-102
-101
-100
-100
-99
-99
-99
-99
-98
-98
-98
-98
-98
-99
-101
-103
-105
-108
-112
-117
-121
-126
-132
-138
-145
-152
-160
-167
-175
-183
-190
-198
-205
-211
-216
-221
-225
-227
-229
-230
-230
-229
-226
-222
-217
-212
-205
-198
-189
-180
-171
-161
-151
-142
-132
-123
-114
-105
-97
-90
-84
-79
-74
-70
-66
-64
-63
-62
-62
-62
-63
-64
-66
-68
-70
-71
-73
-75
-77
-79
-81
-82
-83
-84
-85
-86
-86
-87
-87
-87
-87
-87
-88
-88
-89
-89
-90
-90
-91
-91
-92
-92
-93
-93
-93
-93
-94
-94
-94
-94
-94
-94
-94
-94
-93
-93
-92
-92
-92
-92
-91
-91
-91
-90
-90
-90
-91
-91
-91
-91
-91
-91
-91
-92
-92
-92
-92
-92
-92
-92
-92
-92
-92
-92
-92
-93
-93
-93
-93
-93
-93
-93
-93
-93
-93
-93
-92
-92
-92
-92
-92
-92
-92
-91
-91
-91
-91
-91
-91
-91
-92
-92
-93
-93
-94
-94
-94
-95
-95
-95
-95
-95
-95
-95
-95
-96
-96
-96
-95
-95
-94
-94
-94
-93
-93
-93
-93
-93
-93
-93
-92
-92
-92
-91
-91
-91
-91
-92
-91
-91
-91
-91
-91
-91
-91
-91
-91
-91
-91
-91
-91
-91
-91
-91
-91
-91
-91
-91
-91
-91
-90
-90
-90
-90
-90
-90
-90
-90
-90
-90
-89
-89
-89
-88
-88
-88
-88
-88
-87
-87
-86
-86
-86
-85
-85
-84
-84
-83
-82
-82
-81
-81
-80
-79
-79
-79
-78
-78
-78
-77
-77
-77
-77
-77
-76
-76
-75
-75
-76
-76
-76
-76
-76
-75
-75
-75
-75
-75
-75
-75
-75
-75
-76
-76
-75
-75
-74
-74
-74
-74
-73
-73
-72
-71
-70
-70
-69
-69
-68
-67
-66
-65
-65
-64
-63
-62
-61
-61
-60
-60
-60
-60
-59
-59
-59
-58
-58
-58
-57
-57
-56
-56
-55
-55
-55
-54
-54
-53
-53
-52
-52
-51
-51
-50
-50
-49
-49
-49
-48
-47
-47
-46
-46
-46
-46
-46
-45
-45
-45
-45
-45
-45
-45
-44
-44
-44
-44
-45
-45
-44
-44
-44
-44
-44
-44
-44
-44
-44
-44
-44
-44
-44
-44
-44
-44
-44
-43
-43
-43
-43
-43
-44
-44
-45
-45
-45
-45
-45
-45
-46
-46
-47
-47
-48
-48
-49
-49
-50
-51
-51
-52
-53
-54
-54
-55
-56
-56
-57
-58
-59
-60
-60
-61
-61
-62
-63
-63
-64
-64
-65
-65
-65
-66
-67
-67
-67
-67
-67
-67
-67
-68
-68
-68
-68
-68
-68
-68
-68
-68
-67
-67
-67
-67
-67
-67
-67
-66
-66
-66
-66
-66
-65
-65
-65
-64
-64
-64
-64
-64
-64
-64
-64
-64
-64
-64
-64
-64
-63
-63
-64
-64
-64
-64
-64
-64
-64
-64
-64
-64
-64
-63
-63
-63
-63
-63
-63
-62
-62
-62
-61
-61
-61
-60
-60
-59
-59
-58
-58
-58
-57
-57
-56
-56
-56
-56
-55
-55
-55
-55
-55
-55
-55
-55
-55
-55
-56
-56
-56
-56
-56
-56
-56
-56
-56
-56
-56
-55
-55
-54
-54
-54
-54
-53
-53
-53
-53
-53
-53
-53
-52
-52
-52
-52
-52
-52
-52
-51
-51
-51
-52
-52
-51
-51
-51
-51
-50
-50
-50
-50
-50
-49
-49
-49
-49
-49
-49
-49
-48
-48
-49
-49
-48
-48
-48
-48
-48
-48
-49
-49
-49
-48
-49
-49
-49
-49
-49
-49
-49
-49
-50
-50
-50
-49
-49
-49
-49
-49
-49
-49
-49
-49
-48
-48
-48
-48
-48
-48
-48
-48
-48
-48
-48
-48
-48
-48
-48
-49
-49
-49
-49
-49
-49
-50
-50
-51
-51
-51
-52
-52
-53
-53
-53
-53
-53
-53
-54
-54
-54
-55
-55
-55
-55
-55
-55
-55
-55
-55
-55
-55
-55
-56
-56
-56
-56
-56
-57
-57
-57
-58
-58
-58
-58
-58
-59
-59
-59
-58
-58
-58
-58
-58
-58
-57
-57
-57
-56
-56
-56
-57
-56
-56
-57
-57
-57
-57
-58
-58
-58
-59
-59
-60
-60
-60
-61
-61
-61
-61
-62
-62
-61
-61
-61
-61
-61
-61
-61
-60
-60
-60
-61
-61
-61
-60
-60
-60
-60
-61
-61
-61
-61
-61
-61
-62
-62
-62
-62
-62
-62
-62
-63
-63
-63
-63
-63
-63
-63
-64
-64
-64
-64
-64
-64
-64
-64
-64
-64
-64
-64
-64
-64
-64
-64
-63
-63
-63
-63
-63
-63
-63
-63
-63
-63
-63
-64
-64
-64
-64
-63
-64
-64
-64
-65
-65
-65
-65
-66
-66
-66
-66
-66
-67
-67
-67
-68
-69
-69
-69
-70
-70
-71
-71
-71
-72
-72
-72
-72
-73
-73
-73
-73
-73
-72
-72
-73
-73
-73
-72
-72
-72
-72
-72
-72
-72
-72
-71
-71
-71
-71
-71
-71
-71
-71
-71
-71
-71
-71
-71
-71
-71
-71
-71
-71
-71
-71
-71
-71
-71
-71
-71
-71
-70
-70
-70
-71
-71
-71
-71
-70
-70
-70
-70
-70
-70
-70
-70
-70
-71
-71
-71
-71
-71
-71
-71
-71
-71
-72
-72
-72
-72
-72
-73
-73
-73
-73
-73
-73
-74
-74
-74
-74
-74
-74
-74
-74
-74
-74
-74
-74
-74
-74
-74
-74
-74
-74
-74
-74
-74
-75
-75
-75
-75
-75
-75
-75
-75
-76
-76
-76
-76
-76
-76
-76
-76
-76
-76
-76
-76
-76
-76
-76
-76
-76
-76
-76
-76
-76
-75
-75
-75
-75
-75
-75
-74
-74
-73
-72
-72
-72
-71
-71
-70
-70
-70
-70
-69
-69
-68
-68
-68
-68
-68
-68
-68
-68
-68
-68
-68
-68
-68
-68
-68
-68
-69
-69
-69
-69
-69
-69
-70
-70
-71
-71
-71
-72
-72
-72
-73
-73
-74
-74
-75
-75
-76
-77
-77
-78
-79
-79
-80
-80
-81
-82
-82
-83
-83
-83
-84
-84
-84
-84
-85
-85
-85
-85
-85
-85
-85
-85
-85
-85
-85
-85
-85
-85
-84
-84
-84
-84
-84
-84
-84
-84
-84
-84
-84
-84
-84
-84
-84
-85
-85
-85
-85
-85
-85
-86
-86
-86
-87
-87
-87
-87
-87
-88
-88
-89
-89
-89
-89
-89
-90
-90
-90
-90
-91
-91
-92
-92
-93
-93
-93
-93
-94
-94
-95
-95
-95
-95
-95
-96
-96
-96
-96
-96
-96
-96
-96
-95
-95
-95
-94
-94
-94
-94
-94
-94
-94
-93
-93
-93
-93
-93
-93
-93
-93
-93
-93
-94
-94
-94
-94
-95
-95
-95
-95
-95
-95
-95
-95
-95
-95
-95
-95
-95
-95
-94
-94
-94
-94
-93
-93
-92
-92
-91
-91
-91
-90
-90
-89
-89
-90
-90
-90
-91
-92
-93
-95
-97
-100
-103
-107
-111
-116
-121
-127
-133
-139
-145
-153
-160
-169
-176
-184
-192
-199
-206
-213
-219
-224
-228
-231
-233
-234
-234
-233
-230
-226
-222
-216
-209
-202
-193
-184
-173
-163
-153
-143
-133
-124
-115
-106
-98
-91
-84
-79
-74
-70
-67
-65
-63
-63
-63
-64
-65
-66
-67
-69
-71
-73
-75
-76
-78
-80
-81
-83
-84
-85
-86
-87
-87
-88
-88
-88
-88
-87
-88
-88
-88
-88
-88
-88
-88
-89
-89
-89
-90
-90
-90
-90
-90
-90
-91
-91
-91
-91
-91
-92
-92
-92
-92
-92
-93
-93
-93
-94
-94
-94
-95
-95
-95
-95
-95
-95
-95
-95
-96
-96
-96
-97
-97
-97
-98
-98
-99
-99
-100
-100
-100
-101
-101
-102
-102
-102
-102
-102
-102
-102
-102
-102
-102
-101
-101
-101
-101
-100
-100
-100
-99
-99
-99
-98
-98
-98
-98
-98
-98
-97
-98
-98
-97
-97
-97
-97
-98
-98
-98
-98
-98
-98
-99
-99
-100
-100
-100
-100
-100
-100
-101
-101
-101
-101
-101
-101
-101
-101
-101
-101
-100
-100
-99
-99
-99
-99
-99
-99
-99
-99
-99
-99
-99
-99
-99
-99
-99
-99
-99
-99
-98
-98
-98
-98
-98
-98
-97
-97
-97
-98
-98
-98
-98
-98
-98
-97
-97
-97
-97
-97
-97
-97
-97
-97
-97
-96
-96
-96
-95
-95
-95
-95
-95
-95
-94
-95
-95
-95
-95
-95
-95
-96
-96
-97
-97
-97
-96
-96
-96
-97
-97
-97
-97
-97
-97
-96
-96
-96
-96
-96
-95
-95
-95
-95
-94
-94
-93
-93
-93
-92
-92
-92
-91
-91
-91
-90
-90
-90
-90
-90
-89
-89
-89
-90
-90
-89
-89
-89
-88
-88
-88
-88
-88
-87
-87
-87
-86
-86
-85
-84
-83
-83
-82
-82
-81
-80
-79
-79
-78
-77
-77
-76
-76
-75
-75
-75
-75
-75
-74
-74
-74
-74
-74
-74
-74
-75
-75
-75
-75
-75
-75
-75
-75
-74
-74
-74
-74
-74
-75
-75
-75
-75
-75
-75
-75
-75
-75
-75
-75
-75
-75
-76
-76
-76
-76
-77
-77
-78
-78
-78
-78
-78
-78
-78
-78
-78
-78
-78
-78
-79
-79
-79
-79
-79
-80
-80
-80
-81
-81
-82
-82
-83
-83
-84
-85
-86
-87
-87
-88
-89
-90
-91
-92
-93
-94
-95
-96
-97
-98
-98
-99
-100
-100
-101
-102
-102
-102
-102
-103
-103
-103
-104
-104
-104
-103
-104
-104
-103
-103
-103
-102
-102
-103
-103
-103
-103
-103
-104
-104
-104
-105
-105
-105
-105
-105
-105
-106
-106
-107
-107
-107
-107
-107
-107
-107
-107
-106
-106
-105
-105
-105
-105
-105
-105
-106
-106
-106
-107
-107
-107
-107
-108
-108
-109
-109
-110
-110
-110
-111
-111
-111
-111
-111
-111
-110
-110
-110
-110
-110
-109
-109
-108
-108
-108
-108
-108
-108
-108
-108
-109
-109
-110
-110
-110
-110
-110
-111
-111
-112
-112
-112
-112
-112
-113
-113
-113
-113
-112
-112
-112
-112
-112
-112
-111
-111
-111
-111
-111
-111
-111
-111
-111
-111
-111
-111
-111
-110
-110
-110
-111
-111
-111
-111
-111
-111
-111
-111
-111
-111
-110
-110
-110
-110
-111
-111
-111
-110
-110
-110
-110
-110
-110
-110
-109
-109
-109
-109
-109
-109
-108
-108
-108
-108
-108
-108
-108
-107
-107
-107
-108
-108
-108
-108
-108
-108
-109
-109
-109
-109
-109
-110
-110
-110
-110
-110
-110
-109
-109
-108
-108
-108
-108
-108
-107
-107
-107
-107
-107
-107
-107
-107
-107
-107
-108
-108
-108
-109
-109
-109
-110
-110
-111
-111
-111
-111
-111
-112
-112
-112
-112
-112
-111
-111
-111
-111
-111
-111
-111
-111
-111
-111
-111
-110
-110
-110
-110
-110
-110
-110
-110
-110
-110
-110
-111
-111
-111
-111
-111
-111
-111
-112
-112
-111
-111
-111
-111
-111
-111
-112
-111
-111
-111
-110
-110
-110
-110
-110
-110
-110
-110
-111
-112
-112
-112
-112
-113
-113
-114
-114
-115
-115
-115
-116
-116
-117
-117
-117
-117
-117
-117
-117
-117
-117
-117
-117
-117
-117
-118
-118
-118
-118
-118
-118
-118
-119
-118
-118
-118
-117
-117
-117
-117
-116
-116
-116
-115
-115
-115
-115
-114
-114
-114
-114
-115
-115
-115
-115
-115
-116
-116
-117
-118
-118
-118
-119
-119
-119
-120
-120
-120
-120
-120
-120
-120
-120
-120
-119
-119
-119
-119
-118
-118
-118
-117
-117
-117
-117
-117
-117
-116
-116
-116
-117
-117
-117
-117
-117
-117
-117
-118
-118
-119
-119
-119
-119
-119
-120
-120
-120
-121
-121
-121
-121
-121
-121
-121
-121
-120
-120
-120
-120
-120
-120
-119
-119
-119
-119
-120
-120
-119
-119
-119
-119
-119
-119
-119
-119
-119
-120
-120
-120
-120
-120
-120
-120
-120
-121
-121
-121
-121
-121
-121
-121
-121
-121
-121
-121
-121
-121
-121
-121
-121
-121
-121
-121
-120
-120
-120
-120
-120
-120
-120
-120
-120
-120
-120
-120
-120
-120
-120
-120
-120
-120
-119
-119
-119
-120
-120
-120
-120
-120
-119
-119
-119
-120
-120
-120
-120
-120
-121
-121
-121
-121
-121
-121
-121
-121
-121
-121
-121
-121
-121
-121
-121
-121
-121
-121
-121
-121
-121
-121
-122
-122
-122
-122
-122
-123
-123
-124
-124
-124
-124
-125
-125
-125
-125
-125
-124
-124
-124
-124
-124
-124
-123
-123
-122
-122
-122
-122
-121
-121
-121
-121
-121
-121
-121
-120
-120
-119
-119
-119
-119
-119
-119
-118
-118
-119
-119
-119
-118
-118
-118
-118
-118
-119
-119
-119
-119
-120
-120
-120
-121
-121
-122
-122
-122
-123
-123
-123
-124
-123
-123
-123
-123
-123
-123
-122
-121
-121
-120
-119
-119
-118
-117
-116
-115
-115
-114
-113
-113
-112
-112
-112
-112
-112
-112
-112
-112
-112
-113
-113
-114
-114
-114
-114
-115
-115
-116
-116
-116
-117
-117
-117
-118
-118
-118
-118
-118
-118
-119
-119
-119
-119
-118
-118
-118
-119
-119
-119
-119
-119
-119
-120
-120
-121
-121
-122
-122
-122
-123
-124
-125
-126
-127
-128
-129
-130
-131
-131
-131
-132
-132
-132
-132
-132
-132
-132
-131
-131
-130
-130
-130
-130
-129
-129
-128
-128
-128
-128
-127
-127
-127
-127
-127
-127
-127
-126
-126
-126
-126
-126
-127
-127
-127
-127
-127
-127
-128
-128
-128
-128
-128
-129
-129
-129
-130
-130
-130
-130
-130
-130
-130
-130
-130
-130
-130
-130
-130
-130
-131
-130
-130
-131
-131
-131
-131
-130
-130
-130
-130
-130
-130
-129
-129
-128
-127
-127
-127
-127
-126
-126
-126
-125
-125
-125
-125
-125
-125
-125
-126
-126
-127
-127
-127
-128
-128
-129
-129
-130
-131
-131
-131
-132
-133
-133
-134
-134
-134
-133
-133
-133
-133
-133
-132
-131
-130
-129
-128
-127
-125
-124
-123
-123
-122
-122
-123
-123
-124
-125
-127
-130
-134
-138
-143
-148
-154
-161
-168
-176
-184
-192
-200
-209
-218
-226
-235
-242
-249
-256
-261
-266
-270
-272
-273
-272
-271
-268
-265
-260
-254
-247
-238
-229
-220
-210
-199
-188
-178
-168
-158
-149
-140
-132
-125
-118
-112
-108
-104
-101
-99
-97
-96
-96
-97
-98
-99
-100
-101
-102
-104
-105
-107
-108
-109
-110
-111
-112
-113
-114
-115
-115
-116
-116
-116
-117
-117
-117
-117
-117
-118
-118
-119
-119
-119
-120
-120
-120
-121
-121
-121
-122
-122
-122
-122
-123
-123
-123
-124
-124
-124
-125
-125
-125
-125
-125
-126
-126
-126
-126
-127
-127
-127
-127
-128
-128
-128
-128
-127
-127
-127
-127
-127
-127
-126
-126
-126
-126
-126
-126
-126
-125
-125
-124
-124
-124
-124
-124
-123
-123
-123
-123
-123
-124
-124
-124
-124
-124
-125
-125
-125
-125
-125
-125
-126
-126
-127
-127
-127
-127
-127
-128
-128
-128
-128
-128
-128
-128
-128
-128
-128
-128
-128
-128
-128
-128
-128
-127
-127
-127
-127
-127
-127
-127
-127
-127
-127
-127
-127
-127
-127
-127
-126
-126
-126
-126
-126
-125
-124
-124
-123
-123
-123
-122
-122
-122
-122
-122
-122
-122
-121
-121
-121
-121
-121
-122
-122
-122
-123
-123
-123
-124
-125
-125
-125
-125
-125
-125
-125
-125
-125
-125
-125
-124
-124
-124
-124
-123
-122
-122
-122
-121
-121
-121
-120
-120
-120
-119
-120
-120
-120
-120
-120
-120
-120
-120
-120
-120
-120
-120
-120
-119
-119
-119
-119
-118
-118
-118
-118
-118
-117
-117
-116
-116
-116
-116
-115
-115
-114
-114
-113
-113
-113
-113
-112
-112
-111
-111
-111
-110
-110
-109
-109
-109
-109
-108
-108
-108
-108
-107
-107
-107
-108
-107
-107
-107
-107
-107
-107
-107
-107
-107
-106
-106
-106
-106
-106
-106
-105
-105
-105
-105
-104
-104
-103
-103
-102
-101
-101
-100
-99
-99
-98
-98
-98
-98
-97
-97
-97
-96
-96
-96
-95
-95
-95
-95
-95
-95
-96
-96
-96
-96
-96
-96
-96
-97
-97
-97
-96
-96
-96
-97
-97
-97
-97
-96
-96
-96
-96
-97
-96
-96
-96
-96
-96
-96
-97
-97
-97
-97
-97
-98
-99
-100
-100
-101
-101
-102
-103
-104
-105
-106
-107
-107
-108
-109
-110
-110
-111
-111
-112
-112
-112
-113
-112
-112
-113
-113
-113
-114
-114
-114
-113
-113
-114
-114
-115
-115
-116
-116
-116
-117
-118
-119
-119
-120
-120
-121
-122
-123
-124
-124
-124
-125
-126
-126
-127
-127
-127
-128
-128
-128
-128
-128
-128
-128
-128
-128
-129
-129
-129
-128
-128
-128
-128
-127
-127
-126
-126
-125
-125
-125
-124
-124
-123
-123
-122
-122
-122
-122
-122
-121
-121
-121
-121
-121
-121
-121
-121
-122
-122
-122
-123
-123
-124
-124
-124
-124
-125
-125
-125
-125
-125
-125
-126
-126
-126
-126
-126
-126
-126
-125
-125
-125
-125
-125
-124
-124
-124
-124
-124
-124
-123
-123
-123
-123
-122
-122
-121
-120
-120
-120
-120
-119
-119
-118
-118
-118
-118
-118
-118
-118
-118
-118
-118
-118
-118
-118
-117
-117
-117
-117
-117
-116
-116
-116
-116
-116
-116
-116
-116
-115
-115
-115
-115
-116
-116
-116
-117
-117
-117
-117
-118
-119
-119
-119
-119
-120
-120
-120
-119
-119
-119
-119
-119
-119
-119
-118
-118
-117
-117
-117
-116
-116
-115
-115
-114
-114
-114
-113
-113
-113
-112
-112
-112
-112
-112
-112
-112
-112
-113
-113
-114
-114
-114
-115
-115
-116
-116
-117
-118
-118
-118
-118
-118
-118
-118
-118
-117
-116
-116
-115
-115
-115
-114
-114
-113
-113
-113
-113
-112
-112
-112
-113
-113
-113
-114
-114
-114
-115
-115
-116
-116
-116
-117
-117
-117
-117
-117
-117
-116
-116
-116
-116
-116
-116
-115
-115
-114
-114
-114
-114
-114
-114
-114
-114
-114
-114
-114
-114
-115
-115
-115
-115
-115
-116
-116
-116
-116
-116
-116
-116
-116
-116
-116
-116
-116
-117
-117
-118
-118
-118
-118
-118
-119
-119
-119
-120
-120
-120
-120
-120
-121
-120
-120
-120
-119
-119
-119
-119
-119
-119
-119
-118
-118
-118
-118
-118
-118
-118
-118
-118
-118
-118
-118
-118
-118
-118
-118
-118
-118
-118
-117
-117
-118
-118
-117
-117
-117
-117
-116
-117
-117
-117
-117
-117
-117
-118
-118
-119
-119
-119
-119
-119
-119
-120
-120
-120
-120
-120
-120
-121
-121
-121
-121
-121
-121
-121
-121
-121
-121
-121
-120
-120
-121
-121
-121
-121
-121
-121
-121
-121
-121
-121
-121
-121
-121
-121
-122
-122
-122
-121
-121
-121
-121
-121
-121
-121
-121
-120
-120
-120
-120
-120
-120
-119
-119
-119
-120
-120
-120
-120
-120
-120
-120
-120
-120
-120
-120
-120
-120
-120
-120
-120
-120
-120
-120
-120
-120
-119
-119
-119
-119
-119
-119
-119
-119
-119
-119
-119
-119
-120
-120
-120
-120
-120
-120
-121
-121
-121
-121
-121
-121
-121
-121
-121
-121
-121
-121
-120
-120
-120
-121
-121
-121
-121
-121
-121
-121
-122
-122
-122
-122
-123
-123
-124
-124
-124
-124
-124
-124
-124
-124
-124
-124
-124
-123
-123
-123
-123
-122
-122
-121
-121
-121
-121
-120
-120
-120
-119
-119
-119
-119
-119
-118
-118
-118
-118
-118
-119
-119
-119
-119
-119
-120
-120
-120
-120
-121
-121
-122
-123
-123
-124
-124
-124
-123
-123
-124
-124
-124
-123
-123
-123
-122
-122
-122
-121
-121
-120
-120
-120
-119
-119
-119
-119
-119
-119
-119
-120
-120
-120
-120
-120
-120
-120
-120
-120
-120
-120
-120
-120
-120
-120
-119
-119
-119
-118
-119
-119
-119
-119
-119
-119
-119
-120
-120
-121
-121
-121
-122
-123
-123
-124
-124
-124
-124
-124
-124
-124
-124
-123
-123
-122
-121
-121
-120
-119
-118
-117
-116
-115
-115
-114
-113
-112
-111
-110
-109
-109
-108
-108
-108
-107
-107
-107
-107
-107
-107
-107
-107
-108
-109
-109
-110
-110
-111
-112
-113
-114
-115
-115
-115
-116
-116
-117
-118
-118
-119
-119
-120
-120
-121
-121
-121
-122
-122
-123
-124
-125
-125
-126
-126
-126
-127
-128
-128
-129
-129
-130
-130
-130
-130
-131
-130
-130
-130
-130
-130
-130
-129
-128
-128
-127
-126
-126
-125
-124
-123
-123
-122
-122
-121
-121
-121
-120
-120
-120
-120
-120
-121
-121
-121
-121
-122
-123
-123
-124
-125
-125
-126
-126
-126
-126
-126
-126
-126
-126
-126
-127
-127
-126
-126
-126
-126
-126
-126
-126
-125
-125
-125
-126
-126
-126
-126
-125
-125
-126
-126
-126
-126
-126
-126
-126
-126
-127
-127
-127
-127
-127
-127
-127
-128
-128
-128
-128
-128
-128
-128
-128
-128
-128
-128
-127
-127
-127
-127
-127
-127
-126
-126
-126
-126
-126
-125
-125
-125
-125
-125
-125
-125
-125
-125
-125
-125
-124
-124
-124
-124
-123
-123
-122
-122
-121
-121
-120
-119
-119
-119
-119
-120
-120
-121
-123
-124
-127
-130
-133
-137
-142
-147
-153
-159
-166
-173
-180
-188
-196
-205
-214
-223
-231
-239
-246
-252
-259
-264
-268
-271
-273
-273
-273
-271
-268
-264
-258
-251
-244
-235
-226
-216
-205
-194
-183
-172
-161
-151
-140
-131
-122
-113
-106
-100
-95
-90
-87
-84
-83
-82
-82
-83
-84
-85
-86
-89
-91
-94
-96
-98
-100
-103
-105
-107
-109
-110
-112
-113
-114
-114
-115
-116
-116
-116
-116
-116
-117
-117
-117
-116
-116
-116
-117
-117
-117
-117
-117
-117
-118
-118
-118
-118
-118
-118
-118
-118
-119
-119
-119
-119
-119
-119
-120
-120
-120
-120
-120
-120
-121
-121
-121
-122
-122
-122
-122
-122
-123
-124
-124
-125
-125
-125
-126
-127
-127
-128
-128
-128
-128
-129
-129
-129
-129
-129
-129
-129
-129
-129
-128
-127
-126
-126
-125
-125
-125
-125
-125
-125
-124
-125
-125
-125
-125
-125
-125
-125
-125
-126
-126
-126
-126
-126
-126
-126
-126
-125
-125
-124
-124
-124
-124
-124
-124
-123
-123
-123
-123
-123
-123
-122
-122
-122
-122
-122
-122
-122
-122
-122
-122
-122
-122
-122
-122
-122
-122
-122
-122
-123
-123
-123
-123
-123
-124
-124
-124
-124
-124
-124
-124
-124
-124
-124
-124
-124
-124
-124
-124
-124
-124
-124
-124
-124
-124
-124
-124
-124
-124
-124
-124
-123
-123
-123
-123
-123
-122
-122
-122
-122
-122
-121
-121
-121
-120
-120
-120
-119
-119
-118
-118
-118
-118
-118
-117
-117
-117
-117
-117
-117
-117
-117
-117
-116
-117
-117
-117
-117
-116
-116
-116
-116
-117
-117
-116
-116
-116
-115
-115
-115
-114
-114
-113
-113
-112
-112
-112
-112
-111
-110
-110
-110
-110
-109
-109
-108
-108
-108
-108
-109
-109
-109
-109
-109
-109
-109
-109
-109
-109
-108
-108
-108
-108
-108
-107
-107
-106
-105
-105
-105
-104
-104
-103
-103
-102
-102
-102
-101
-101
-100
-100
-100
-100
-100
-100
-100
-100
-100
-100
-101
-101
-101
-100
-100
-101
-101
-101
-100
-100
-100
-99
-99
-99
-99
-98
-98
-97
-97
-97
-97
-96
-96
-95
-95
-95
-95
-95
-95
-95
-95
-96
-96
-97
-97
-97
-98
-98
-99
-100
-100
-101
-101
-102
-102
-102
-103
-104
-104
-104
-105
-105
-106
-106
-107
-107
-107
-107
-108
-108
-109
-110
-110
-111
-111
-112
-113
-114
-114
-115
-115
-116
-117
-117
-118
-118
-118
-118
-119
-119
-119
-120
-120
-120
-120
-121
-121
-121
-121
-121
-121
-122
-122
-123
-124
-124
-124
-124
-125
-125
-125
-125
-125
-125
-125
-125
-125
-125
-125
-125
-124
-124
-124
-124
-123
-123
-123
-122
-122
-122
-122
-122
-122
-122
-121
-121
-121
-122
-122
-121
-121
-121
-121
-121
-122
-122
-122
-122
-122
-122
-122
-122
-122
-122
-122
-122
-122
-123
-123
-123
-123
-123
-123
-124
-124
-124
-124
-124
-124
-124
-124
-125
-125
-125
-125
-125
-125
-126
-126
-125
-125
-125
-125
-125
-125
-125
-124
-123
-123
-123
-123
-122
-122
-121
-121
-120
-120
-119
-119
-118
-118
-117
-117
-117
-117
-117
-117
-117
-117
-117
-118
-118
-118
-118
-119
-119
-120
-120
-121
-121
-122
-122
-123
-123
-124
-124
-124
-124
-124
-124
-124
-124
-124
-124
-124
-124
-124
-124
-123
-123
-123
-122
-122
-122
-122
-122
-122
-122
-121
-121
-121
-121
-120
-120
-119
-119
-119
-119
-119
-119
-118
-118
-118
-118
-118
-118
-118
-118
-118
-118
-118
-118
-118
-118
-118
-119
-119
-119
-119
-119
-119
-119
-119
-119
-119
-119
-119
-118
-118
-118
-119
-119
-119
-119
-118
-118
-119
-119
-119
-119
-119
-119
-119
-120
-120
-120
-120
-120
-121
-121
-122
-122
-122
-122
-122
-123
-123
-124
-124
-124
-125
-125
-125
-125
-125
-124
-124
-123
-123
-123
-123
-123
-123
-122
-122
-121
-121
-121
-121
-121
-121
-121
-121
-121
-121
-122
-122
-122
-122
-122
-123
-123
-123
-123
-124
-124
-124
-125
-125
-125
-125
-124
-124
-124
-124
-124
-124
-124
-124
-124
-124
-124
-124
-123
-123
-123
-123
-123
-123
-123
-123
-123
-123
-123
-123
-123
-123
-122
-123
-123
-123
-124
-124
-124
-124
-125
-125
-125
-126
-126
-126
-126
-126
-127
-127
-128
-128
-128
-128
-128
-129
-129
-128
-128
-128
-128
-128
-128
-128
-127
-127
-126
-126
-125
-125
-125
-124
-123
-123
-123
-123
-122
-122
-122
-121
-121
-122
-122
-122
-122
-122
-122
-122
-122
-122
-122
-122
-122
-122
-123
-123
-124
-124
-124
-124
-124
-124
-125
-125
-125
-125
-125
-126
-126
-126
-126
-126
-126
-126
-126
-126
-126
-125
-125
-125
-125
-125
-125
-126
-126
-126
-126
-126
-126
-127
-127
-127
-127
-127
-128
-128
-128
-129
-129
-128
-129
-129
-129
-129
-129
-128
-129
-129
-129
-129
-129
-128
-128
-128
-128
-128
-127
-127
-126
-126
-125
-125
-125
-125
-125
-124
-124
-124
-124
-124
-124
-124
-124
-124
-124
-124
-125
-125
-124
-125
-125
-125
-126
-126
-127
-127
-127
-127
-128
-128
-128
-128
-128
-128
-129
-129
-129
-129
-129
-129
-129
-129
-129
-129
-129
-128
-128
-128
-128
-128
-127
-127
-126
-126
-126
-125
-125
-125
-124
-124
-124
-124
-124
-124
-124
-124
-124
-124
-124
-124
-125
-125
-125
-125
-126
-126
-127
-127
-127
-127
-127
-128
-128
-128
-129
-129
-129
-130
-130
-131
-131
-131
-131
-132
-132
-133
-133
-133
-133
-133
-133
-133
-132
-132
-131
-131
-130
-130
-129
-129
-128
-127
-126
-125
-125
-124
-123
-123
-122
-122
-121
-120
-120
-120
-119
-119
-119
-119
-119
-119
-119
-119
-119
-119
-119
-119
-119
-119
-119
-119
-119
-120
-120
-121
-121
-121
-121
-122
-122
-123
-123
-123
-124
-124
-124
-125
-125
-126
-126
-126
-127
-127
-128
-129
-129
-129
-130
-130
-130
-131
-131
-131
-131
-131
-131
-131
-131
-131
-131
-130
-130
-130
-130
-130
-130
-130
-129
-129
-129
-129
-129
-129
-129
-130
-130
-131
-132
-133
-133
-133
-134
-135
-136
-136
-137
-138
-138
-139
-140
-141
-141
-141
-141
-142
-142
-142
-141
-141
-141
-140
-140
-139
-139
-139
-139
-139
-138
-138
-138
-138
-139
-139
-139
-139
-139
-139
-140
-140
-139
-139
-140
-140
-140
-140
-139
-139
-138
-138
-138
-137
-137
-137
-136
-136
-135
-135
-135
-135
-136
-136
-136
-136
-137
-137
-137
-137
-137
-137
-138
-139
-139
-140
-140
-140
-140
-141
-141
-141
-141
-140
-140
-140
-141
-141
-141
-141
-141
-141
-141
-141
-140
-140
-140
-139
-139
-139
-138
-138
-137
-136
-136
-135
-135
-135
-135
-135
-135
-136
-136
-138
-139
-141
-143
-146
-149
-153
-158
-163
-168
-174
-180
-187
-194
-201
-209
-216
-224
-232
-240
-247
-253
-259
-264
-269
-272
-275
-276
-276
-275
-273
-270
-266
-261
-255
-248
-239
-231
-221
-211
-201
-191
-180
-170
-161
-152
-143
-135
-128
-121
-115
-110
-106
-102
-100
-98
-97
-97
-97
-98
-99
-100
-102
-104
-106
-109
-111
-113
-115
-117
-119
-120
-122
-123
-125
-126
-127
-128
-129
-130
-130
-131
-131
-131
-132
-132
-133
-133
-134
-134
-135
-135
-136
-136
-137
-137
-137
-137
-138
-138
-138
-138
-138
-138
-138
-138
-139
-139
-139
-139
-139
-139
-139
-139
-140
-140
-140
-140
-140
-140
-140
-140
-140
-140
-140
-140
-140
-140
-140
-139
-139
-139
-139
-139
-138
-138
-138
-138
-138
-138
-138
-138
-138
-138
-138
-139
-140
-141
-142
-142
-143
-144
-145
-146
-147
-147
-148
-149
-149
-150
-151
-151
-151
-151
-151
-151
-151
-151
-150
-150
-149
-149
-148
-148
-148
-147
-147
-146
-146
-145
-145
-145
-144
-144
-144
-144
-144
-144
-144
-144
-143
-143
-143
-144
-144
-144
-144
-144
-144
-144
-144
-144
-143
-143
-143
-143
-143
-143
-143
-143
-142
-142
-141
-141
-140
-140
-140
-140
-140
-140
-140
-139
-139
-139
-139
-139
-139
-139
-139
-139
-139
-139
-140
-141
-141
-141
-141
-141
-142
-142
-142
-142
-142
-142
-142
-142
-142
-143
-143
-142
-142
-142
-141
-141
-141
-141
-140
-140
-139
-139
-139
-139
-138
-138
-137
-137
-136
-136
-136
-135
-134
-134
-134
-134
-134
-133
-133
-133
-133
-133
-133
-133
-134
-134
-134
-134
-135
-135
-135
-135
-135
-135
-135
-135
-135
-135
-135
-134
-134
-134
-133
-133
-132
-131
-131
-131
-131
-130
-130
-129
-129
-128
-128
-127
-127
-126
-126
-125
-125
-125
-125
-125
-124
-124
-123
-123
-123
-122
-122
-121
-121
-120
-120
-120
-119
-119
-118
-117
-117
-117
-117
-116
-116
-116
-115
-115
-115
-115
-115
-115
-115
-116
-116
-116
-117
-117
-117
-117
-117
-117
-117
-117
-117
-116
-116
-116
-116
-116
-116
-115
-115
-114
-114
-114
-115
-114
-114
-114
-114
-115
-115
-116
-116
-116
-117
-118
-118
-119
-120
-120
-121
-122
-123
-124
-125
-125
-126
-126
-127
-128
-128
-129
-129
-130
-130
-131
-131
-132
-132
-132
-133
-133
-133
-133
-134
-134
-134
-135
-135
-136
-137
-137
-137
-138
-138
-138
-139
-139
-140
-140
-140
-140
-140
-141
-141
-141
-141
-142
-142
-142
-142
-142
-142
-142
-142
-142
-142
-142
-142
-142
-142
-142
-143
-143
-143
-143
-142
-142
-142
-142
-142
-142
-142
-141
-141
-141
-141
-141
-141
-140
-140
-139
-139
-140
-140
-140
-140
-140
-140
-141
-141
-142
-142
-143
-143
-144
-144
-144
-144
-144
-144
-144
-144
-145
-145
-144
-144
-144
-144
-143
-143
-143
-142
-142
-142
-141
-141
-141
-141
-141
-141
-140
-140
-141
-141
-141
-140
-140
-140
-141
-141
-140
-140
-140
-139
-139
-140
-140
-140
-140
-140
-139
-139
-140
-140
-140
-140
-139
-140
-140
-140
-140
-141
-141
-141
-141
-141
-141
-141
-141
-141
-141
-141
-141
-141
-141
-141
-141
-141
-141
-141
-140
-140
-140
-140
-140
-140
-140
-140
-140
-140
-140
-140
-140
-140
-140
-140
-140
-140
-140
-140
-140
-139
-139
-139
-138
-138
-138
-138
-137
-137
-136
-136
-136
-136
-136
-135
-135
-135
-135
-135
-135
-135
-135
-135
-136
-136
-136
-137
-137
-137
-137
-137
-138
-138
-139
-139
-139
-139
-140
-140
-141
-141
-141
-141
-141
-141
-141
-141
-141
-141
-141
-141
-141
-141
-141
-141
-141
-141
-141
-141
-141
-141
-141
-140
-141
-141
-141
-141
-141
-141
-141
-142
-142
-142
-142
-142
-142
-142
-142
-142
-142
-142
-142
-142
-142
-142
-141
-141
-141
-140
-140
-140
-140
-140
-140
-139
-139
-138
-138
-138
-138
-138
-138
-138
-138
-138
-138
-138
-138
-138
-138
-138
-139
-140
-140
-140
-141
-141
-141
-142
-142
-142
-142
-142
-143
-143
-144
-144
-144
-144
-144
-144
-144
-144
-144
-144
-144
-144
-144
-145
-145
-145
-144
-144
-144
-144
-144
-143
-143
-143
-142
-142
-142
-142
-142
-142
-141
-141
-142
-142
-142
-142
-142
-142
-142
-143
-143
-143
-143
-144
-144
-145
-145
-146
-146
-146
-146
-146
-146
-146
-146
-146
-145
-145
-145
-145
-145
-145
-144
-144
-144
-143
-143
-143
-143
-143
-143
-142
-142
-142
-142
-142
-142
-143
-143
-144
-144
-144
-144
-144
-144
-144
-145
-145
-145
-145
-145
-145
-145
-145
-145
-145
-144
-144
-143
-143
-143
-142
-142
-141
-141
-141
-140
-140
-140
-139
-139
-138
-138
-138
-138
-137
-137
-137
-137
-137
-137
-137
-137
-137
-137
-138
-138
-139
-140
-140
-140
-141
-142
-142
-143
-144
-144
-144
-145
-145
-146
-146
-146
-146
-146
-146
-146
-146
-146
-145
-145
-145
-145
-144
-144
-144
-144
-143
-143
-143
-142
-142
-142
-141
-141
-141
-141
-141
-141
-140
-140
-140
-140
-140
-140
-140
-140
-140
-141
-141
-142
-142
-142
-143
-143
-143
-144
-144
-144
-144
-144
-144
-144
-145
-145
-145
-144
-144
-144
-144
-144
-144
-144
-144
-144
-144
-144
-144
-144
-143
-143
-143
-143
-143
-143
-143
-142
-142
-142
-142
-142
-141
-141
-140
-140
-139
-139
-139
-138
-138
-138
-138
-139
-139
-139
-139
-138
-138
-138
-139
-139
-140
-141
-141
-142
-142
-143
-144
-144
-144
-144
-144
-144
-144
-144
-144
-143
-142
-142
-141
-140
-139
-138
-137
-136
-135
-134
-133
-132
-131
-130
-130
-130
-129
-129
-129
-129
-129
-129
-129
-130
-130
-130
-130
-130
-131
-132
-133
-133
-134
-134
-135
-136
-137
-138
-139
-140
-140
-141
-142
-143
-144
-144
-145
-146
-146
-147
-148
-148
-148
-148
-149
-149
-149
-149
-149
-149
-149
-149
-149
-150
-150
-149
-149
-149
-149
-149
-149
-149
-149
-148
-147
-147
-146
-146
-145
-145
-144
-144
-144
-143
-143
-142
-142
-141
-141
-141
-141
-141
-141
-141
-142
-142
-143
-144
-144
-145
-145
-146
-147
-147
-148
-148
-148
-149
-149
-150
-150
-150
-151
-151
-151
-151
-151
-151
-150
-150
-149
-148
-148
-148
-147
-147
-147
-146
-146
-145
-145
-144
-144
-143
-143
-143
-143
-143
-143
-143
-143
-143
-143
-143
-144
-144
-144
-145
-145
-146
-146
-147
-147
-147
-148
-148
-149
-149
-149
-149
-149
-149
-150
-151
-151
-151
-151
-150
-150
-150
-150
-150
-149
-149
-149
-150
-150
-150
-150
-149
-148
-148
-148
-147
-147
-146
-145
-145
-144
-144
-143
-143
-143
-143
-143
-143
-144
-145
-147
-149
-152
-155
-159
-164
-169
-174
-179
-185
-192
-199
-207
-215
-223
-231
-239
-248
-255
-263
-269
-275
-280
-283
-286
-288
-289
-288
-285
-282
-278
-273
-267
-259
-251
-242
-232
-222
-211
-200
-190
-179
-169
-160
-151
-143
-136
-129
-124
-119
-115
-113
-111
-110
-109
-109
-109
-110
-112
-113
-115
-117
-118
-120
-122
-124
-125
-126
-128
-128
-129
-130
-131
-131
-131
-131
-131
-131
-132
-132
-132
-131
-131
-131
-132
-132
-133
-134
-134
-134
-135
-136
-136
-137
-137
-138
-138
-139
-139
-140
-140
-140
-140
-140
-141
-141
-141
-142
-141
-141
-141
-142
-142
-142
-141
-141
-141
-142
-142
-142
-142
-142
-142
-143
-143
-144
-144
-144
-144
-144
-144
-144
-144
-144
-144
-144
-144
-144
-144
-144
-143
-143
-143
-143
-143
-143
-142
-142
-142
-141
-141
-141
-142
-141
-141
-141
-141
-142
-142
-142
-142
-142
-142
-143
-143
-144
-144
-144
-143
-143
-143
-143
-143
-143
-143
-143
-143
-143
-143
-143
-142
-141
-141
-141
-141
-141
-141
-140
-140
-139
-139
-139
-138
-138
-138
-138
-138
-138
-138
-138
-138
-138
-137
-137
-138
-138
-138
-138
-138
-138
-138
-138
-138
-138
-138
-138
-138
-138
-138
-139
-139
-139
-139
-139
-139
-140
-140
-139
-139
-139
-139
-139
-140
-140
-139
-139
-139
-138
-138
-138
-137
-137
-136
-136
-136
-135
-135
-134
-134
-133
-133
-133
-133
-133
-132
-132
-132
-132
-132
-132
-132
-132
-132
-132
-132
-132
-132
-132
-132
-132
-132
-132
-133
-133
-133
-132
-132
-132
-132
-132
-132
-131
-131
-130
-130
-129
-129
-128
-128
-127
-127
-126
-126
-125
-124
-123
-123
-122
-122
-122
-122
-122
-121
-121
-121
-122
-122
-122
-122
-122
-122
-122
-122
-122
-122
-121
-121
-121
-121
-120
-120
-119
-119
-118
-117
-117
-116
-115
-115
-114
-113
-113
-113
-112
-112
-111
-111
-111
-111
-111
-111
-110
-110
-110
-110
-110
-110
-110
-109
-109
-109
-109
-109
-109
-109
-109
-108
-108
-108
-108
-108
-108
-108
-108
-108
-109
-109
-109
-109
-109
-110
-110
-111
-111
-111
-112
-112
-112
-113
-114
-114
-114
-114
-115
-115
-116
-116
-117
-117
-117
-117
-117
-118
-118
-118
-118
-118
-119
-119
-120
-120
-121
-121
-122
-122
-123
-124
-124
-125
-125
-126
-127
-128
-129
-130
-130
-131
-132
-133
-134
-135
-135
-136
-136
-137
-137
-138
-137
-137
-137
-137
-137
-138
-138
-137
-137
-137
-137
-137
-137
-137
-137
-137
-137
-138
-138
-139
-139
-139
-140
-140
-140
-140
-140
-140
-139
-139
-139
-139
-138
-138
-137
-136
-135
-135
-134
-133
-132
-132
-131
-132
-132
-132
-132
-132
-132
-132
-133
-133
-134
-135
-135
-136
-137
-138
-138
-139
-140
-140
-141
-141
-141
-142
-142
-142
-142
-142
-142
-142
-142
-142
-141
-141
-140
-140
-139
-139
-138
-138
-137
-137
-137
-137
-136
-136
-136
-135
-136
-136
-136
-136
-136
-135
-135
-135
-135
-135
-135
-135
-135
-134
-134
-134
-134
-134
-134
-134
-134
-134
-135
-135
-134
-134
-134
-134
-135
-135
-135
-135
-135
-135
-135
-135
-135
-135
-134
-134
-134
-134
-134
-134
-133
-133
-133
-133
-133
-132
-132
-132
-131
-131
-131
-131
-131
-130
-130
-129
-129
-129
-129
-129
-129
-129
-129
-129
-129
-130
-130
-130
-130
-130
-131
-131
-132
-133
-133
-134
-134
-135
-135
-135
-136
-136
-136
-136
-136
-136
-136
-136
-135
-135
-135
-134
-134
-133
-132
-132
-132
-131
-131
-131
-130
-130
-130
-130
-130
-130
-130
-130
-130
-130
-130
-130
-131
-130
-130
-130
-130
-130
-130
-131
-130
-130
-130
-130
-130
-130
-130
-130
-130
-130
-130
-131
-131
-131
-131
-131
-131
-131
-132
-132
-132
-132
-132
-132
-133
-133
-133
-133
-133
-133
-133
-133
-134
-134
-134
-134
-135
-136
-136
-137
-137
-137
-137
-137
-138
-138
-137
-137
-137
-136
-136
-136
-137
-136
-136
-136
-136
-135
-135
-135
-135
-134
-134
-134
-135
-135
-134
-134
-134
-134
-134
-134
-134
-134
-134
-133
-133
-133
-134
-134
-134
-134
-134
-135
-135
-135
-135
-135
-135
-136
-136
-137
-137
-137
-136
-136
-136
-136
-136
-136
-135
-135
-134
-134
-134
-134
-134
-134
-133
-133
-133
-133
-134
-133
-133
-133
-133
-134
-134
-135
-135
-135
-134
-134
-134
-134
-134
-134
-133
-133
-133
-133
-133
-133
-133
-133
-133
-133
-133
-133
-133
-133
-133
-133
-134
-134
-134
-133
-133
-133
-134
-134
-134
-134
-133
-133
-133
-133
-133
-133
-133
-133
-132
-133
-133
-133
-134
-134
-134
-134
-134
-134
-134
-134
-134
-134
-134
-134
-134
-134
-134
-133
-133
-133
-133
-133
-133
-132
-132
-132
-132
-132
-133
-133
-132
-132
-133
-133
-134
-134
-134
-134
-134
-134
-134
-134
-134
-134
-134
-134
-134
-135
-135
-135
-135
-134
-134
-135
-135
-135
-135
-135
-135
-135
-135
-135
-135
-134
-134
-134
-134
-134
-134
-133
-133
-132
-132
-132
-132
-132
-132
-131
-131
-131
-131
-131
-131
-130
-130
-129
-129
-129
-129
-129
-129
-129
-129
-129
-129
-129
-129
-129
-129
-129
-129
-129
-130
-130
-130
-130
-130
-131
-131
-131
-130
-130
-130
-130
-131
-131
-130
-130
-130
-130
-130
-131
-131
-131
-130
-130
-131
-131
-131
-131
-132
-132
-132
-132
-133
-133
-133
-133
-132
-133
-133
-133
-133
-133
-133
-133
-133
-133
-132
-132
-132
-131
-131
-132
-132
-133
-133
-132
-132
-132
-133
-133
-134
-134
-134
-134
-134
-134
-134
-134
-133
-133
-132
-132
-131
-130
-129
-127
-126
-125
-124
-124
-123
-121
-120
-119
-119
-119
-119
-118
-118
-117
-117
-118
-118
-118
-119
-119
-119
-119
-120
-120
-121
-121
-121
-121
-122
-122
-122
-122
-122
-123
-123
-124
-124
-125
-125
-125
-126
-126
-127
-128
-128
-129
-129
-129
-130
-131
-132
-132
-132
-133
-134
-135
-135
-136
-136
-137
-137
-138
-138
-139
-139
-138
-138
-137
-137
-137
-137
-136
-135
-134
-133
-133
-132
-131
-130
-129
-129
-129
-129
-129
-129
-129
-130
-130
-131
-132
-133
-133
-134
-134
-135
-136
-137
-138
-138
-138
-138
-138
-139
-139
-139
-138
-137
-137
-136
-136
-135
-135
-134
-133
-133
-133
-132
-132
-132
-131
-131
-131
-131
-131
-131
-130
-130
-130
-131
-131
-132
-132
-132
-132
-132
-132
-133
-133
-133
-133
-134
-134
-135
-135
-135
-135
-135
-135
-135
-136
-136
-136
-136
-135
-135
-135
-135
-135
-135
-134
-134
-133
-133
-133
-132
-132
-131
-130
-130
-130
-131
-131
-130
-130
-130
-130
-130
-130
-130
-129
-129
-128
-128
-128
-127
-127
-126
-126
-126
-126
-126
-127
-127
-128
-129
-132
-134
-138
-142
-146
-150
-156
-162
-169
-175
-183
-190
-198
-207
-216
-225
-233
-240
-247
-254
-260
-265
-269
-273
-274
-275
-274
-272
-270
-266
-261
-254
-247
-239
-230
-221
-210
-199
-188
-178
-168
-158
-149
-140
-132
-124
-117
-112
-107
-103
-99
-97
-95
-94
-94
-95
-95
-96
-97
-99
-101
-103
-105
-106
-108
-109
-110
-111
-112
-113
-114
-114
-115
-115
-115
-115
-115
-115
-115
-115
-115
-116
-116
-116
-117
-117
-117
-118
-119
-119
-119
-120
-120
-121
-122
-122
-123
-123
-123
-124
-125
-126
-126
-127
-127
-127
-127
-128
-128
-129
-128
-128
-128
-128
-128
-128
-128
-127
-127
-126
-126
-126
-126
-126
-125
-125
-125
-126
-126
-127
-127
-126
-127
-127
-128
-128
-129
-129
-129
-129
-129
-130
-130
-130
-130
-129
-129
-130
-130
-130
-129
-129
-129
-128
-128
-128
-128
-128
-127
-127
-127
-128
-128
-127
-127
-126
-126
-126
-126
-126
-126
-126
-126
-126
-126
-126
-126
-126
-126
-126
-126
-126
-127
-127
-127
-127
-127
-127
-127
-127
-127
-126
-126
-126
-126
-126
-125
-125
-124
-123
-123
-123
-122
-122
-122
-121
-121
-121
-121
-121
-121
-121
-121
-121
-122
-122
-123
-123
-123
-123
-124
-124
-125
-125
-125
-125
-125
-126
-126
-126
-125
-125
-124
-124
-124
-123
-122
-121
-120
-120
-119
-119
-119
-118
-117
-116
-115
-115
-115
-114
-114
-113
-113
-113
-113
-114
-114
-114
-114
-114
-114
-115
-115
-115
-115
-115
-115
-116
-116
-116
-116
-115
-115
-115
-114
-114
-114
-113
-112
-111
-110
-110
-110
-109
-109
-108
-108
-108
-108
-108
-108
-107
-107
-108
-108
-109
-109
-109
-109
-109
-109
-109
-110
-110
-109
-109
-109
-109
-109
-108
-108
-107
-107
-106
-106
-106
-105
-104
-104
-103
-103
-103
-103
-102
-101
-100
-100
-100
-100
-99
-99
-98
-97
-96
-96
-95
-95
-94
-93
-93
-93
-93
-93
-92
-91
-90
-90
-90
-90
-90
-89
-89
-89
-89
-89
-89
-90
-89
-89
-90
-90
-91
-91
-91
-91
-91
-91
-91
-92
-92
-92
-92
-92
-92
-93
-93
-93
-93
-93
-94
-94
-94
-95
-95
-95
-96
-96
-97
-98
-99
-100
-100
-101
-102
-103
-104
-104
-105
-105
-106
-106
-107
-108
-108
-108
-109
-109
-110
-111
-111
-111
-111
-111
-111
-112
-112
-113
-113
-113
-113
-114
-114
-115
-116
-117
-117
-118
-119
-119
-120
-120
-121
-121
-122
-122
-123
-123
-123
-122
-122
-122
-122
-122
-122
-121
-121
-120
-120
-120
-120
-119
-119
-119
-119
-119
-119
-120
-120
-120
-120
-121
-121
-121
-122
-121
-121
-121
-121
-122
-122
-121
-121
-120
-120
-120
-120
-120
-120
-120
-120
-121
-121
-121
-121
-121
-121
-121
-122
-122
-122
-123
-123
-123
-123
-124
-124
-124
-124
-123
-123
-123
-123
-123
-123
-123
-123
-123
-123
-123
-123
-123
-123
-122
-122
-122
-122
-122
-122
-122
-122
-122
-122
-122
-122
-121
-121
-121
-121
-121
-121
-120
-120
-120
-119
-120
-120
-119
-119
-118
-118
-118
-118
-118
-118
-118
-118
-118
-118
-118
-118
-118
-118
-118
-118
-118
-119
-119
-119
-119
-119
-119
-120
-120
-120
-120
-120
-120
-120
-120
-120
-120
-120
-120
-120
-120
-121
-121
-120
-120
-120
-120
-121
-121
-121
-121
-121
-120
-120
-120
-120
-120
-120
-120
-120
-120
-120
-120
-119
-119
-119
-118
-119
-119
-119
-119
-119
-119
-119
-120
-120
-120
-119
-119
-119
-120
-120
-121
-121
-121
-121
-122
-122
-123
-123
-123
-123
-123
-123
-123
-123
-123
-123
-122
-122
-122
-122
-122
-121
-121
-121
-120
-120
-120
-119
-119
-118
-118
-118
-118
-117
-117
-117
-116
-116
-116
-117
-117
-117
-117
-118
-119
-119
-120
-120
-121
-121
-122
-123
-124
-125
-126
-126
-127
-127
-128
-129
-129
-130
-130
-130
-130
-131
-131
-131
-130
-130
-130
-130
-130
-130
-130
-130
-129
-129
-129
-129
-129
-129
-128
-128
-129
-129
-129
-129
-129
-129
-129
-129
-129
-130
-130
-130
-130
-130
-130
-131
-130
-130
-130
-129
-129
-129
-129
-129
-129
-128
-128
-127
-127
-127
-126
-126
-126
-126
-126
-127
-127
-127
-127
-127
-127
-128
-129
-129
-129
-129
-130
-130
-131
-131
-131
-132
-132
-132
-132
-132
-133
-132
-132
-132
-132
-132
-133
-133
-133
-133
-132
-132
-132
-132
-132
-131
-131
-131
-131
-131
-131
-131
-131
-130
-130
-130
-130
-130
-130
-130
-130
-131
-131
-131
-131
-131
-131
-131
-131
-131
-131
-131
-131
-131
-131
-131
-131
-130
-130
-130
-129
-129
-129
-129
-128
-128
-127
-127
-127
-127
-126
-126
-126
-125
-126
-126
-126
-126
-126
-126
-127
-127
-128
-129
-129
-130
-131
-132
-132
-133
-134
-135
-135
-135
-136
-136
-136
-136
-136
-136
-136
-136
-135
-135
-135
-134
-133
-133
-133
-133
-133
-132
-132
-131
-131
-131
-131
-131
-131
-131
-131
-132
-132
-132
-132
-132
-131
-132
-132
-132
-132
-132
-133
-133
-133
-134
-134
-134
-135
-135
-135
-136
-136
-137
-137
-137
-137
-138
-138
-139
-139
-139
-139
-139
-139
-139
-139
-139
-139
-139
-138
-138
-138
-138
-137
-136
-136
-135
-135
-134
-133
-132
-131
-130
-129
-128
-128
-127
-126
-125
-124
-124
-123
-122
-121
-120
-120
-120
-119
-120
-120
-120
-120
-120
-120
-120
-121
-121
-121
-122
-122
-122
-123
-123
-123
-123
-123
-123
-124
-125
-125
-125
-125
-125
-125
-126
-126
-126
-126
-127
-127
-128
-129
-129
-129
-130
-130
-131
-131
-132
-133
-133
-134
-134
-134
-135
-136
-136
-137
-137
-138
-138
-139
-139
-139
-139
-138
-138
-138
-138
-139
-138
-138
-138
-138
-138
-138
-138
-138
-137
-137
-138
-138
-139
-139
-139
-140
-140
-141
-141
-142
-142
-142
-142
-142
-142
-142
-142
-142
-141
-141
-141
-141
-141
-141
-140
-140
-139
-139
-139
-139
-139
-139
-140
-140
-141
-141
-141
-141
-142
-142
-142
-143
-143
-143
-143
-143
-143
-143
-143
-143
-143
-142
-142
-142
-142
-142
-141
-141
-140
-140
-139
-139
-139
-139
-139
-138
-138
-138
-138
-139
-138
-138
-139
-139
-139
-139
-139
-139
-139
-139
-140
-140
-140
-140
-140
-140
-140
-140
-140
-140
-139
-139
-138
-137
-137
-136
-135
-134
-133
-133
-132
-132
-132
-132
-132
-132
-133
-134
-135
-137
-139
-142
-145
-149
-153
-158
-164
-169
-175
-181
-188
-195
-202
-209
-216
-224
-231
-238
-245
-251
-256
-261
-265
-268
-270
-272
-272
-270
-268
-265
-261
-256
-250
-243
-235
-226
-217
-208
-199
-189
-179
-170
-161
-153
-145
-138
-131
-125
-119
-115
-112
-109
-107
-105
-104
-104
-104
-105
-106
-108
-110
-111
-113
-115
-117
-119
-121
-122
-124
-125
-127
-128
-129
-130
-131
-131
-131
-131
-131
-131
-131
-131
-130
-130
-129
-129
-129
-128
-128
-127
-127
-127
-127
-127
-127
-127
-127
-128
-129
-129
-129
-130
-130
-131
-131
-132
-133
-133
-134
-134
-135
-136
-136
-137
-137
-137
-137
-137
-137
-137
-138
-138
-138
-138
-138
-138
-138
-138
-138
-138
-138
-139
-139
-139
-139
-139
-140
-140
-140
-140
-140
-140
-140
-140
-140
-141
-140
-140
-140
-139
-139
-139
-139
-139
-138
-138
-137
-137
-138
-138
-137
-137
-137
-137
-137
-137
-138
-138
-138
-138
-138
-139
-139
-139
-139
-139
-139
-139
-139
-139
-139
-138
-138
-138
-138
-138
-138
-138
-138
-138
-138
-138
-139
-139
-139
-138
-138
-138
-138
-138
-137
-137
-137
-137
-137
-137
-137
-136
-135
-135
-134
-134
-134
-133
-133
-133
-133
-133
-133
-132
-132
-132
-132
-132
-132
-133
-133
-133
-133
-133
-134
-134
-134
-135
-135
-134
-134
-134
-134
-134
-133
-133
-132
-132
-132
-132
-131
-131
-130
-130
-130
-130
-130
-130
-129
-129
-129
-129
-130
-130
-130
-130
-130
-130
-130
-131
-131
-131
-131
-131
-131
-131
-131
-131
-131
-131
-131
-130
-130
-130
-130
-129
-129
-128
-128
-127
-126
-126
-125
-124
-124
-124
-123
-122
-121
-121
-120
-120
-120
-119
-119
-119
-119
-119
-119
-119
-119
-119
-118
-118
-118
-118
-118
-117
-117
-116
-115
-114
-113
-113
-112
-111
-110
-109
-109
-108
-108
-107
-107
-106
-106
-106
-106
-106
-106
-106
-106
-106
-107
-107
-107
-107
-107
-108
-108
-108
-108
-109
-108
-108
-108
-108
-108
-108
-107
-107
-107
-106
-106
-106
-106
-105
-105
-105
-105
-105
-105
-105
-104
-104
-104
-104
-104
-104
-104
-104
-104
-104
-105
-105
-105
-105
-106
-106
-107
-108
-108
-109
-109
-110
-111
-112
-113
-113
-114
-115
-116
-117
-118
-119
-120
-121
-122
-122
-123
-124
-125
-126
-126
-127
-127
-128
-128
-129
-129
-129
-129
-129
-130
-130
-130
-130
-130
-130
-130
-130
-130
-130
-130
-129
-129
-129
-129
-129
-129
-129
-130
-130
-130
-130
-130
-130
-130
-130
-130
-131
-131
-131
-131
-131
-132
-132
-132
-132
-133
-133
-133
-133
-133
-133
-133
-133
-132
-132
-132
-132
-133
-133
-133
-133
-133
-133
-133
-133
-133
-133
-133
-133
-134
-134
-135
-135
-135
-136
-136
-136
-136
-136
-136
-136
-135
-135
-135
-135
-135
-135
-135
-134
-134
-134
-134
-134
-134
-134
-134
-134
-135
-135
-135
-135
-135
-135
-136
-136
-137
-137
-137
-137
-138
-138
-138
-138
-138
-138
-138
-139
-139
-139
-138
-138
-138
-137
-137
-137
-136
-135
-135
-134
-134
-133
-132
-131
-130
-130
-129
-129
-129
-129
-128
-128
-128
-128
-128
-128
-129
-129
-129
-129
-130
-131
-131
-131
-131
-131
-131
-130
-130
-130
-130
-130
-131
-131
-131
-131
-131
-131
-130
-130
-131
-131
-131
-131
-131
-132
-133
-133
-134
-134
-135
-135
-135
-135
-136
-136
-136
-136
-136
-136
-136
-136
-136
-136
-135
-135
-135
-135
-134
-134
-133
-132
-132
-132
-132
-131
-131
-131
-130
-130
-130
-129
-129
-129
-128
-128
-129
-129
-129
-129
-129
-129
-129
-129
-130
-130
-130
-130
-130
-131
-131
-132
-132
-132
-133
-133
-134
-134
-134
-134
-135
-135
-135
-135
-135
-135
-135
-135
-135
-135
-136
-136
-136
-136
-136
-136
-136
-136
-136
-136
-136
-135
-135
-135
-135
-135
-135
-135
-134
-134
-134
-134
-134
-134
-134
-134
-134
-134
-134
-134
-134
-134
-134
-135
-135
-135
-134
-134
-134
-134
-134
-135
-135
-134
-134
-134
-135
-135
-135
-136
-136
-136
-136
-137
-137
-137
-137
-137
-137
-137
-137
-137
-137
-137
-137
-137
-136
-136
-136
-136
-135
-135
-135
-135
-136
-136
-136
-136
-136
-136
-136
-137
-137
-137
-138
-138
-139
-140
-140
-141
-141
-141
-141
-142
-142
-143
-143
-143
-143
-143
-143
-142
-142
-142
-141
-141
-141
-141
-140
-140
-139
-139
-138
-138
-138
-137
-137
-136
-136
-136
-136
-136
-136
-136
-135
-135
-135
-135
-135
-136
-136
-136
-136
-137
-138
-138
-139
-139
-139
-140
-140
-141
-141
-141
-142
-142
-142
-143
-143
-143
-142
-142
-142
-142
-142
-141
-140
-140
-139
-139
-139
-139
-139
-139
-139
-139
-139
-139
-139
-139
-139
-139
-139
-139
-139
-139
-139
-139
-138
-138
-139
-139
-139
-138
-138
-137
-137
-137
-137
-137
-137
-137
-137
-138
-138
-138
-139
-139
-139
-139
-139
-139
-139
-139
-139
-140
-140
-140
-141
-140
-140
-140
-140
-140
-140
-140
-140
-140
-140
-140
-140
-141
-141
-140
-140
-140
-140
-140
-140
-140
-140
-140
-140
-140
-141
-141
-140
-140
-140
-140
-140
-141
-140
-140
-140
-139
-139
-139
-140
-140
-139
-139
-139
-140
-140
-140
-140
-140
-140
-139
-139
-139
-139
-139
-139
-139
-139
-139
-138
-138
-137
-136
-136
-135
-135
-135
-134
-133
-133
-132
-132
-132
-132
-132
-132
-132
-132
-132
-132
-132
-132
-132
-132
-133
-133
-133
-133
-133
-133
-134
-134
-134
-134
-134
-134
-134
-134
-134
-134
-134
-134
-135
-135
-136
-136
-137
-137
-138
-138
-139
-140
-141
-141
-142
-142
-143
-143
-144
-144
-145
-145
-145
-145
-145
-145
-145
-145
-145
-145
-145
-145
-145
-145
-145
-144
-144
-144
-144
-144
-144
-144
-144
-144
-144
-144
-143
-143
-143
-143
-143
-144
-144
-144
-144
-145
-145
-146
-146
-147
-147
-148
-148
-148
-149
-150
-150
-151
-151
-151
-151
-151
-151
-151
-151
-151
-150
-150
-150
-149
-149
-148
-148
-147
-147
-147
-147
-146
-146
-146
-146
-146
-146
-146
-146
-146
-146
-147
-147
-148
-148
-148
-149
-149
-149
-150
-150
-150
-150
-150
-150
-151
-151
-151
-151
-150
-150
-150
-150
-151
-150
-150
-150
-149
-149
-149
-149
-149
-148
-148
-148
-148
-148
-148
-147
-147
-147
-147
-147
-148
-148
-148
-147
-147
-147
-146
-146
-145
-145
-144
-144
-143
-143
-143
-143
-143
-143
-144
-145
-146
-148
-150
-153
-156
-161
-165
-170
-175
-181
-187
-193
-200
-208
-216
-223
-231
-238
-245
-252
-258
-264
-269
-273
-276
-279
-280
-280
-279
-276
-273
-269
-264
-258
-251
-243
-234
-225
-215
-206
-196
-186
-177
-168
-159
-152
-145
-139
-133
-129
-125
-122
-120
-119
-118
-118
-118
-119
-121
-122
-124
-126
-128
-129
-131
-132
-133
-135
-135
-136
-136
-136
-136
-136
-136
-135
-135
-134
-134
-133
-133
-133
-133
-133
-133
-133
-134
-134
-135
-135
-136
-136
-137
-138
-138
-139
-139
-139
-139
-140
-140
-140
-140
-140
-140
-140
-141
-141
-141
-141
-141
-141
-141
-142
-142
-142
-142
-142
-143
-143
-143
-143
-143
-143
-143
-143
-143
-143
-143
-143
-143
-143
-143
-143
-144
-144
-144
-144
-144
-145
-145
-145
-145
-145
-145
-146
-146
-147
-147
-146
-146
-146
-146
-147
-147
-146
-146
-146
-146
-146
-145
-145
-145
-144
-144
-144
-144
-143
-143
-142
-142
-142
-142
-142
-141
-141
-141
-141
-141
-141
-142
-142
-141
-141
-141
-142
-142
-142
-142
-142
-142
-142
-142
-142
-142
-142
-142
-142
-143
-143
-143
-144
-144
-144
-144
-144
-145
-145
-145
-145
-145
-146
-146
-147
-147
-147
-147
-147
-146
-146
-146
-146
-145
-145
-144
-143
-143
-143
-142
-142
-142
-141
-141
-141
-140
-140
-139
-139
-139
-138
-138
-138
-138
-138
-138
-138
-138
-138
-138
-138
-138
-139
-139
-140
-140
-141
-141
-141
-141
-142
-142
-143
-143
-143
-143
-143
-143
-143
-143
-142
-142
-141
-141
-140
-140
-139
-138
-137
-137
-136
-135
-135
-134
-134
-133
-133
-133
-132
-132
-131
-131
-130
-130
-130
-130
-130
-130
-130
-130
-130
-130
-129
-129
-128
-128
-127
-127
-126
-126
-125
-124
-123
-123
-123
-122
-122
-121
-121
-121
-121
-121
-121
-121
-120
-120
-121
-121
-121
-121
-121
-120
-120
-120
-120
-119
-118
-118
-117
-116
-116
-115
-114
-114
-113
-112
-112
-112
-112
-111
-111
-110
-110
-109
-109
-109
-109
-108
-108
-108
-108
-108
-108
-107
-107
-107
-107
-107
-107
-107
-107
-108
-108
-108
-109
-109
-110
-110
-110
-111
-111
-112
-112
-113
-113
-114
-114
-115
-116
-117
-117
-118
-119
-119
-120
-121
-122
-122
-123
-124
-126
-127
-127
-128
-129
-129
-130
-131
-132
-133
-133
-134
-134
-135
-136
-137
-137
-137
-138
-139
-139
-140
-140
-141
-141
-141
-142
-142
-142
-142
-142
-142
-142
-142
-142
-141
-141
-140
-140
-140
-139
-139
-139
-138
-138
-137
-137
-138
-138
-138
-138
-138
-139
-139
-140
-140
-140
-141
-141
-141
-142
-143
-143
-144
-144
-144
-144
-144
-145
-145
-145
-145
-145
-145
-145
-145
-145
-145
-144
-144
-145
-145
-145
-144
-144
-144
-144
-144
-144
-144
-144
-143
-143
-143
-143
-143
-143
-143
-142
-143
-143
-143
-143
-143
-143
-142
-142
-142
-142
-142
-142
-142
-142
-141
-141
-141
-141
-141
-141
-141
-141
-141
-141
-141
-141
-141
-141
-141
-142
-142
-142
-143
-143
-143
-144
-144
-145
-145
-145
-146
-147
-147
-147
-147
-147
-147
-147
-147
-147
-146
-146
-145
-145
-145
-144
-144
-143
-143
-142
-142
-142
-141
-141
-140
-140
-140
-139
-139
-140
-139
-139
-139
-139
-140
-140
-140
-140
-140
-140
-140
-140
-140
-140
-140
-140
-140
-140
-140
-140
-140
-140
-140
-139
-139
-139
-139
-139
-139
-139
-139
-140
-140
-140
-141
-141
-141
-142
-142
-143
-143
-143
-143
-143
-143
-143
-143
-143
-143
-142
-142
-142
-142
-141
-141
-140
-140
-140
-140
-140
-140
-140
-140
-140
-140
-141
-141
-141
-141
-141
-142
-142
-142
-142
-142
-142
-142
-142
-141
-141
-140
-140
-139
-139
-139
-139
-138
-138
-137
-137
-137
-137
-137
-137
-137
-137
-138
-139
-140
-140
-141
-141
-141
-142
-142
-143
-143
-143
-143
-144
-144
-144
-144
-144
-144
-144
-144
-144
-144
-144
-144
-143
-143
-143
-143
-143
-144
-143
-143
-143
-143
-143
-143
-143
-143
-143
-143
-143
-143
-143
-143
-142
-142
-142
-141
-141
-141
-141
-141
-141
-141
-141
-142
-142
-142
-142
-143
-143
-144
-145
-146
-146
-147
-147
-147
-148
-148
-148
-148
-148
-148
-148
-148
-148
-148
-147
-146
-146
-145
-145
-144
-144
-143
-143
-143
-143
-142
-142
-142
-141
-142
-142
-142
-142
-142
-142
-142
-142
-143
-143
-143
-143
-144
-144
-144
-145
-145
-145
-145
-145
-145
-145
-145
-146
-146
-146
-145
-145
-145
-145
-145
-145
-144
-144
-144
-144
-144
-144
-143
-143
-143
-143
-144
-144
-144
-143
-143
-144
-144
-144
-144
-144
-144
-145
-145
-145
-145
-146
-146
-146
-146
-146
-146
-146
-146
-146
-145
-145
-146
-146
-146
-145
-145
-145
-145
-145
-145
-145
-145
-144
-144
-144
-144
-144
-144
-144
-143
-143
-143
-143
-143
-142
-142
-142
-142
-142
-142
-141
-141
-141
-141
-142
-142
-143
-143
-143
-143
-143
-143
-144
-144
-144
-144
-145
-145
-145
-145
-145
-145
-145
-145
-145
-146
-146
-146
-146
-145
-146
-146
-146
-146
-146
-146
-145
-145
-145
-145
-145
-145
-145
-145
-145
-145
-145
-144
-144
-144
-144
-144
-144
-144
-144
-143
-143
-143
-144
-144
-144
-144
-144
-144
-144
-145
-145
-145
-145
-145
-145
-146
-146
-146
-147
-147
-147
-147
-148
-148
-147
-146
-146
-145
-145
-144
-144
-143
-142
-141
-140
-140
-139
-138
-136
-135
-135
-134
-134
-134
-134
-133
-133
-134
-134
-135
-135
-135
-135
-136
-136
-137
-138
-138
-139
-139
-140
-140
-141
-142
-142
-142
-142
-143
-143
-144
-144
-145
-145
-145
-146
-147
-147
-148
-148
-148
-148
-149
-149
-150
-150
-150
-150
-150
-151
-152
-152
-152
-152
-152
-152
-152
-152
-152
-152
-152
-151
-151
-151
-151
-151
-151
-150
-150
-149
-149
-149
-149
-149
-148
-148
-149
-149
-149
-149
-149
-149
-150
-150
-151
-152
-153
-153
-154
-154
-155
-156
-156
-156
-156
-157
-157
-157
-157
-157
-157
-157
-157
-157
-157
-157
-156
-156
-156
-156
-156
-156
-155
-155
-155
-155
-155
-155
-155
-155
-154
-154
-154
-154
-154
-154
-154
-154
-153
-153
-153
-153
-152
-152
-152
-152
-152
-152
-152
-152
-152
-152
-152
-152
-153
-153
-152
-153
-153
-154
-154
-155
-155
-155
-156
-156
-156
-156
-157
-157
-157
-157
-157
-157
-157
-157
-157
-156
-156
-156
-156
-155
-154
-153
-152
-151
-151
-150
-149
-149
-148
-148
-148
-148
-148
-149
-149
-151
-152
-155
-158
-162
-166
-170
-175
-181
-187
-193
-199
-206
-214
-221
-229
-238
-246
-253
-260
-266
-271
-276
-281
-284
-286
-287
-287
-285
-283
-280
-275
-270
-263
-255
-247
-237
-228
-218
-207
-197
-187
-177
-169
-160
-152
-145
-138
-132
-128
-124
-121
-118
-117
-116
-116
-116
-117
-118
-119
-120
-122
-124
-126
-128
-129
-131
-132
-133
-135
-136
-137
-138
-139
-139
-140
-141
-141
-142
-142
-143
-144
-145
-146
-147
-147
-148
-148
-149
-150
-150
-151
-151
-151
-151
-151
-151
-151
-151
-151
-150
-150
-150
-150
-149
-149
-148
-148
-147
-148
-148
-148
-148
-147
-147
-148
-148
-148
-149
-149
-149
-150
-150
-151
-151
-151
-151
-151
-151
-151
-150
-150
-150
-150
-149
-149
-150
-149
-149
-148
-148
-147
-147
-147
-147
-147
-147
-147
-148
-148
-148
-149
-149
-148
-149
-149
-149
-150
-150
-150
-150
-150
-150
-150
-151
-151
-150
-150
-150
-150
-151
-150
-150
-150
-149
-149
-149
-149
-149
-149
-149
-149
-149
-149
-149
-149
-149
-148
-148
-148
-148
-148
-148
-148
-147
-147
-147
-148
-148
-148
-147
-147
-147
-147
-147
-147
-147
-147
-147
-147
-147
-148
-148
-147
-147
-147
-147
-148
-147
-147
-147
-146
-146
-146
-146
-145
-145
-144
-144
-144
-144
-144
-144
-144
-144
-144
-144
-145
-145
-145
-145
-146
-146
-146
-146
-146
-145
-145
-145
-145
-145
-145
-144
-143
-142
-141
-141
-141
-140
-139
-138
-138
-137
-137
-136
-136
-136
-136
-136
-136
-136
-135
-135
-135
-135
-135
-136
-136
-136
-136
-135
-135
-135
-135
-135
-135
-135
-134
-134
-133
-133
-133
-132
-131
-130
-130
-129
-129
-129
-128
-127
-127
-127
-127
-127
-127
-127
-127
-127
-127
-127
-127
-127
-126
-126
-126
-126
-126
-125
-124
-123
-122
-122
-121
-120
-120
-119
-118
-117
-117
-117
-117
-116
-116
-116
-116
-116
-116
-116
-116
-116
-116
-116
-116
-116
-116
-116
-116
-116
-115
-115
-115
-114
-114
-113
-113
-113
-113
-112
-112
-111
-111
-111
-111
-111
-111
-111
-111
-111
-112
-112
-112
-112
-112
-112
-113
-113
-113
-114
-114
-114
-114
-114
-115
-116
-116
-116
-117
-117
-118
-119
-119
-120
-121
-121
-122
-123
-124
-125
-126
-127
-128
-129
-130
-131
-131
-132
-132
-133
-133
-134
-135
-135
-136
-136
-136
-137
-137
-137
-138
-138
-138
-139
-140
-140
-141
-141
-142
-142
-143
-143
-143
-143
-143
-143
-143
-143
-143
-142
-142
-141
-141
-140
-140
-139
-139
-138
-137
-137
-136
-136
-136
-135
-135
-135
-136
-136
-137
-138
-138
-139
-139
-140
-140
-141
-142
-142
-143
-144
-144
-145
-146
-146
-147
-147
-147
-147
-148
-147
-147
-147
-147
-147
-146
-146
-146
-145
-144
-144
-144
-144
-144
-144
-143
-143
-143
-143
-143
-142
-142
-142
-142
-143
-143
-143
-143
-143
-143
-142
-142
-143
-143
-142
-142
-142
-142
-142
-142
-142
-142
-142
-142
-142
-143
-143
-143
-143
-143
-143
-143
-143
-143
-142
-142
-142
-142
-142
-142
-142
-142
-141
-141
-141
-141
-141
-140
-140
-140
-141
-141
-142
-142
-142
-142
-142
-142
-142
-142
-143
-143
-143
-143
-143
-143
-143
-142
-142
-141
-141
-140
-140
-140
-139
-138
-138
-138
-138
-137
-137
-136
-136
-135
-135
-135
-135
-134
-134
-134
-134
-134
-134
-135
-135
-134
-134
-134
-134
-135
-135
-134
-134
-134
-135
-135
-135
-135
-135
-135
-134
-134
-134
-134
-134
-134
-134
-134
-134
-134
-133
-133
-133
-133
-134
-134
-135
-136
-136
-136
-137
-137
-138
-139
-139
-139
-140
-140
-141
-142
-142
-142
-142
-142
-142
-143
-143
-142
-142
-142
-141
-141
-141
-141
-141
-141
-141
-141
-141
-141
-141
-141
-141
-141
-141
-141
-142
-142
-142
-142
-142
-142
-142
-142
-141
-141
-141
-140
-140
-140
-140
-139
-139
-138
-138
-138
-138
-138
-138
-138
-138
-138
-138
-139
-139
-139
-139
-140
-140
-141
-142
-142
-142
-142
-142
-143
-143
-143
-143
-142
-142
-142
-142
-142
-141
-141
-140
-139
-139
-139
-138
-138
-137
-137
-136
-136
-136
-136
-136
-136
-136
-137
-137
-138
-138
-138
-138
-139
-139
-140
-141
-141
-141
-141
-142
-142
-142
-143
-143
-142
-142
-143
-143
-143
-143
-143
-143
-143
-143
-143
-143
-143
-142
-142
-142
-142
-142
-142
-142
-142
-142
-142
-142
-142
-142
-141
-141
-141
-141
-141
-141
-141
-141
-141
-141
-142
-142
-142
-142
-142
-142
-143
-143
-143
-143
-143
-143
-143
-144
-143
-143
-143
-142
-142
-142
-142
-141
-141
-140
-140
-139
-139
-138
-138
-138
-138
-137
-137
-138
-138
-138
-138
-138
-139
-139
-140
-140
-140
-140
-140
-140
-140
-140
-140
-140
-139
-139
-139
-139
-139
-139
-139
-139
-138
-138
-139
-139
-139
-139
-138
-139
-139
-139
-139
-139
-139
-139
-139
-139
-140
-140
-139
-139
-139
-139
-138
-138
-138
-137
-137
-137
-137
-138
-138
-138
-138
-138
-138
-138
-138
-138
-138
-138
-138
-138
-139
-139
-140
-140
-139
-139
-139
-139
-139
-139
-138
-138
-137
-137
-138
-138
-137
-137
-137
-137
-137
-137
-137
-137
-137
-137
-137
-138
-138
-138
-138
-139
-139
-139
-140
-140
-140
-140
-140
-140
-141
-141
-141
-141
-140
-140
-140
-140
-140
-140
-140
-139
-139
-139
-139
-139
-139
-139
-139
-139
-139
-139
-139
-139
-139
-139
-139
-139
-139
-139
-138
-138
-138
-137
-137
-137
-136
-135
-135
-135
-135
-135
-135
-134
-134
-133
-133
-133
-133
-132
-132
-132
-131
-131
-131
-131
-131
-131
-131
-131
-131
-131
-131
-131
-130
-130
-130
-130
-130
-131
-131
-131
-131
-132
-133
-133
-133
-134
-134
-135
-136
-137
-138
-138
-138
-139
-140
-140
-141
-141
-141
-142
-142
-142
-143
-143
-143
-142
-142
-142
-143
-143
-143
-143
-143
-143
-144
-144
-144
-144
-143
-143
-142
-142
-142
-141
-140
-140
-139
-138
-138
-138
-137
-137
-136
-136
-136
-137
-137
-138
-138
-139
-140
-141
-143
-144
-145
-146
-148
-149
-150
-151
-152
-152
-153
-153
-154
-154
-154
-154
-154
-153
-153
-153
-152
-152
-151
-150
-150
-149
-149
-148
-148
-147
-146
-146
-146
-145
-145
-145
-144
-144
-143
-143
-143
-144
-144
-144
-144
-144
-145
-146
-147
-147
-147
-148
-148
-149
-150
-150
-151
-151
-151
-152
-152
-152
-152
-152
-152
-152
-152
-152
-152
-151
-151
-151
-151
-151
-151
-151
-150
-150
-150
-151
-151
-151
-151
-151
-151
-150
-150
-150
-150
-149
-148
-147
-146
-145
-144
-143
-142
-141
-140
-140
-140
-140
-140
-140
-141
-142
-143
-146
-148
-152
-155
-160
-166
-172
-178
-185
-192
-199
-207
-215
-224
-233
-241
-250
-258
-265
-273
-279
-285
-289
-292
-294
-296
-295
-294
-291
-287
-282
-276
-269
-261
-252
-242
-231
-220
-209
-199
-188
-178
-169
-160
-152
-144
-138
-132
-127
-123
-120
-117
-116
-115
-115
-115
-116
-117
-118
-120
-121
-123
-125
-126
-127
-129
-130
-131
-132
-133
-133
-134
-135
-135
-136
-136
-136
-136
-136
-137
-137
-137
-137
-137
-137
-137
-138
-138
-138
-138
-138
-138
-139
-139
-139
-139
-139
-140
-140
-140
-141
-141
-141
-141
-141
-141
-141
-142
-142
-142
-142
-142
-142
-142
-142
-142
-142
-142
-143
-143
-144
-145
-145
-145
-146
-146
-147
-147
-147
-147
-147
-147
-147
-147
-147
-147
-146
-146
-145
-145
-145
-144
-144
-143
-142
-142
-142
-141
-141
-140
-140
-140
-140
-140
-140
-140
-140
-140
-140
-141
-141
-141
-141
-140
-140
-140
-141
-141
-140
-140
-140
-140
-140
-140
-140
-140
-140
-139
-139
-139
-139
-139
-139
-138
-138
-138
-138
-138
-138
-138
-138
-137
-137
-137
-137
-136
-136
-136
-135
-135
-135
-135
-134
-134
-133
-133
-133
-132
-132
-132
-131
-131
-132
-132
-132
-132
-133
-133
-133
-134
-135
-135
-136
-136
-137
-138
-138
-138
-138
-138
-138
-138
-138
-138
-137
-137
-136
-135
-134
-134
-133
-132
-132
-131
-130
-130
-130
-130
-129
-129
-129
-129
-129
-129
-129
-129
-128
-128
-128
-128
-128
-128
-128
-127
-127
-127
-127
-127
-127
-126
-126
-125
-125
-125
-125
-125
-124
-124
-124
-123
-123
-122
-121
-120
-120
-119
-119
-118
-118
-117
-116
-116
-115
-115
-116
-116
-115
-115
-115
-115
-116
-116
-116
-116
-116
-116
-116
-116
-116
-116
-115
-115
-115
-115
-114
-114
-113
-112
-112
-112
-111
-111
-111
-110
-110
-110
-110
-110
-109
-109
-108
-107
-107
-106
-106
-105
-104
-103
-103
-102
-101
-101
-100
-99
-99
-98
-98
-97
-97
-97
-97
-97
-97
-97
-98
-98
-98
-98
-98
-98
-99
-99
-99
-98
-98
-98
-99
-99
-99
-99
-99
-99
-100
-100
-100
-101
-101
-101
-102
-103
-103
-104
-104
-105
-105
-106
-107
-108
-109
-109
-110
-110
-111
-112
-113
-113
-114
-114
-115
-115
-116
-116
-117
-117
-117
-118
-118
-119
-119
-119
-119
-119
-119
-120
-120
-120
-120
-121
-121
-122
-122
-123
-123
-123
-123
-123
-123
-123
-123
-122
-122
-122
-122
-122
-122
-122
-121
-121
-121
-121
-121
-121
-121
-121
-121
-121
-121
-122
-122
-122
-122
-122
-123
-123
-124
-124
-124
-124
-124
-125
-125
-125
-125
-125
-125
-125
-125
-125
-125
-125
-124
-124
-124
-124
-124
-124
-124
-124
-124
-124
-124
-124
-124
-124
-124
-124
-125
-125
-125
-125
-125
-126
-126
-126
-126
-126
-126
-125
-125
-125
-125
-125
-125
-125
-125
-124
-124
-124
-124
-124
-123
-123
-123
-123
-123
-124
-124
-124
-124
-125
-125
-126
-126
-126
-126
-126
-126
-126
-126
-126
-126
-126
-125
-125
-125
-125
-125
-124
-124
-124
-124
-123
-123
-123
-123
-123
-123
-123
-123
-122
-122
-122
-122
-123
-123
-123
-123
-123
-123
-123
-123
-123
-123
-122
-122
-122
-122
-122
-122
-121
-121
-121
-121
-121
-121
-120
-120
-120
-120
-120
-120
-121
-121
-121
-120
-121
-121
-121
-121
-121
-121
-121
-121
-121
-121
-121
-121
-121
-121
-121
-122
-122
-122
-122
-122
-123
-123
-123
-124
-124
-124
-124
-124
-125
-125
-125
-125
-125
-125
-125
-125
-125
-125
-124
-124
-124
-124
-125
-125
-125
-125
-125
-125
-125
-125
-125
-125
-125
-125
-125
-125
-125
-125
-125
-125
-125
-125
-125
-125
-124
-124
-124
-124
-124
-124
-123
-123
-123
-123
-124
-124
-124
-124
-124
-124
-125
-125
-126
-126
-127
-127
-127
-127
-128
-128
-128
-128
-129
-129
-129
-130
-130
-130
-130
-130
-130
-130
-131
-131
-131
-131
-131
-131
-131
-132
-132
-132
-132
-132
-133
-133
-134
-134
-134
-134
-134
-135
-135
-136
-136
-136
-136
-136
-137
-136
-136
-136
-135
-135
-135
-135
-135
-135
-135
-134
-134
-134
-134
-134
-133
-133
-133
-133
-133
-133
-133
-134
-134
-134
-134
-135
-135
-135
-135
-135
-135
-136
-137
-137
-137
-137
-138
-138
-138
-139
-139
-139
-139
-139
-139
-140
-140
-140
-140
-140
-139
-139
-139
-139
-138
-138
-138
-137
-137
-137
-137
-137
-136
-136
-136
-136
-136
-136
-136
-136
-137
-137
-137
-137
-137
-136
-136
-136
-136
-136
-136
-136
-136
-136
-136
-136
-135
-135
-135
-135
-135
-135
-136
-136
-136
-137
-137
-138
-139
-139
-140
-140
-141
-141
-142
-143
-143
-144
-144
-145
-145
-145
-146
-146
-146
-145
-145
-145
-145
-144
-144
-143
-142
-142
-141
-141
-141
-140
-139
-139
-138
-138
-138
-138
-137
-137
-137
-137
-137
-137
-137
-137
-137
-138
-138
-139
-139
-140
-140
-140
-141
-142
-143
-143
-144
-144
-144
-145
-145
-146
-146
-146
-146
-146
-146
-147
-147
-147
-147
-147
-147
-147
-148
-148
-148
-148
-148
-148
-148
-149
-149
-149
-149
-149
-148
-148
-148
-147
-146
-146
-145
-144
-144
-143
-142
-140
-139
-138
-137
-137
-136
-134
-134
-133
-133
-133
-133
-132
-132
-131
-131
-131
-131
-131
-131
-131
-131
-132
-132
-133
-134
-134
-134
-135
-135
-136
-137
-137
-138
-139
-139
-140
-141
-142
-143
-143
-144
-145
-145
-146
-147
-147
-147
-148
-148
-149
-149
-149
-149
-149
-149
-150
-150
-151
-151
-151
-151
-151
-151
-151
-151
-151
-151
-151
-152
-152
-152
-153
-153
-153
-153
-154
-154
-155
-155
-155
-155
-155
-156
-156
-156
-156
-156
-156
-156
-156
-156
-156
-155
-155
-155
-155
-155
-156
-156
-156
-156
-156
-156
-157
-157
-157
-157
-158
-158
-159
-159
-160
-160
-160
-160
-160
-161
-161
-161
-161
-161
-161
-161
-161
-161
-161
-161
-160
-160
-160
-160
-159
-159
-158
-158
-158
-158
-158
-158
-158
-158
-158
-158
-158
-158
-158
-158
-158
-158
-159
-159
-159
-159
-159
-160
-160
-160
-160
-160
-160
-160
-160
-159
-159
-159
-159
-159
-159
-159
-159
-159
-158
-158
-157
-157
-157
-157
-157
-156
-155
-155
-154
-154
-154
-154
-154
-154
-154
-155
-155
-156
-158
-159
-161
-164
-167
-170
-175
-179
-184
-189
-194
-200
-206
-212
-219
-225
-232
-239
-246
-253
-259
-265
-270
-275
-280
-284
-286
-288
-288
-288
-287
-285
-282
-278
-273
-267
-260
-253
-245
-236
-227
-217
-208
-198
-189
-180
-172
-164
-156
-149
-143
-138
-133
-130
-127
-125
-124
-123
-123
-124
-124
-125
-127
-129
-131
-133
-136
-138
-140
-142
-143
-145
-147
-148
-149
-150
-150
-151
-152
-152
-152
-152
-152
-152
-152
-153
-153
-153
-153
-154
-154
-154
-155
-155
-156
-156
-156
-157
-157
-158
-158
-158
-158
-158
-159
-159
-159
-159
-159
-158
-158
-159
-159
-159
-159
-159
-159
-160
-160
-161
-161
-161
-161
-162
-162
-163
-164
-164
-164
-164
-164
-165
-165
-165
-164
-164
-164
-164
-164
-164
-163
-163
-162
-162
-162
-162
-162
-162
-161
-161
-161
-161
-161
-162
-162
-162
-162
-162
-163
-163
-164
-164
-164
-165
-165
-166
-166
-166
-166
-166
-166
-166
-166
-167
-166
-166
-166
-166
-166
-166
-166
-165
-164
-164
-164
-164
-164
-163
-163
-163
-163
-163
-163
-163
-162
-162
-161
-161
-161
-161
-161
-161
-160
-160
-160
-161
-161
-161
-160
-160
-160
-160
-161
-161
-161
-161
-161
-162
-163
-163
-163
-164
-164
-164
-164
-164
-164
-164
-164
-163
-163
-163
-163
-163
-162
-162
-161
-161
-161
-161
-160
-160
-159
-159
-159
-159
-159
-159
-158
-158
-158
-158
-159
-159
-159
-159
-159
-159
-160
-160
-160
-160
-160
-160
-160
-160
-160
-159
-159
-159
-158
-158
-158
-157
-156
-156
-155
-154
-154
-153
-153
-152
-151
-150
-150
-150
-150
-150
-149
-149
-149
-149
-150
-149
-149
-149
-149
-149
-150
-150
-150
-150
-150
-150
-151
-151
-151
-151
-151
-151
-150
-150
-150
-150
-150
-149
-149
-149
-148
-148
-147
-147
-146
-145
-145
-145
