# Simple Text Format
# Sampling Rate (Hz):= 1200.00
# Resolution:= 12
# Labels:= ECG	aVR
# Age:=	60
# Gender:=	Masculino
-115
-114
-113
-112
-111
-110
-110
-109
-108
-108
-107
-106
-105
-105
-104
-103
-103
-102
-102
-101
-101
-100
-100
-99
-99
-98
-98
-97
-97
-96
-96
-96
-95
-95
-94
-94
-94
-93
-93
-92
-92
-92
-92
-91
-91
-91
-91
-91
-90
-90
-90
-90
-90
-90
-90
-90
-90
-91
-91
-91
-91
-91
-91
-91
-91
-91
-91
-92
-91
-91
-91
-91
-91
-91
-90
-90
-90
-90
-89
-89
-89
-89
-89
-88
-88
-88
-89
-89
-88
-88
-88
-88
-88
-88
-88
-88
-88
-88
-86
-86
-86
-86
-86
-87
-87
-87
-87
-86
-86
-86
-86
-86
-86
-87
-87
-87
-87
-87
-87
-87
-87
-87
-87
-87
-87
-87
-87
-87
-87
-87
-87
-87
-88
-87
-87
-87
-87
-87
-87
-87
-87
-87
-87
-87
-87
-87
-87
-87
-87
-87
-87
-87
-87
-87
-87
-88
-88
-88
-87
-87
-87
-87
-87
-87
-87
-86
-86
-86
-86
-86
-86
-86
-86
-85
-85
-85
-85
-85
-85
-86
-86
-86
-86
-86
-86
-86
-87
-87
-87
-87
-87
-88
-88
-88
-88
-88
-88
-88
-88
-88
-88
-88
-88
-88
-88
-87
-87
-87
-87
-87
-87
-87
-87
-87
-87
-87
-87
-87
-86
-86
-86
-86
-86
-86
-86
-86
-86
-87
-87
-87
-87
-86
-86
-86
-86
-87
-87
-86
-86
-86
-86
-86
-86
-86
-87
-87
-86
-86
-86
-86
-86
-86
-86
-86
-86
-86
-86
-86
-86
-86
-86
-86
-86
-85
-85
-85
-85
-85
-85
-85
-84
-84
-84
-84
-83
-83
-83
-83
-83
-82
-82
-82
-82
-82
-82
-82
-82
-82
-82
-82
-82
-82
-82
-82
-82
-82
-82
-82
-82
-82
-82
-82
-82
-82
-81
-81
-81
-81
-81
-81
-80
-80
-80
-80
-80
-80
-80
-80
-80
-80
-80
-80
-80
-80
-80
-80
-80
-80
-80
-80
-80
-80
-80
-79
-79
-79
-79
-79
-79
-79
-79
-79
-79
-79
-79
-78
-78
-78
-79
-79
-79
-79
-79
-79
-79
-79
-79
-79
-79
-79
-79
-79
-79
-79
-79
-78
-78
-78
-78
-78
-77
-77
-77
-77
-76
-76
-76
-76
-75
-75
-75
-74
-74
-74
-74
-74
-74
-73
-73
-73
-73
-73
-73
-74
-74
-74
-74
-74
-74
-74
-74
-75
-75
-75
-75
-75
-75
-75
-75
-75
-75
-75
-75
-75
-75
-75
-75
-75
-74
-74
-74
-74
-74
-73
-73
-73
-73
-72
-72
-72
-72
-71
-71
-71
-72
-71
-71
-71
-71
-71
-71
-71
-71
-71
-71
-71
-71
-70
-71
-71
-71
-71
-71
-72
-72
-72
-72
-72
-73
-73
-73
-73
-73
-73
-72
-72
-72
-72
-72
-72
-72
-72
-72
-72
-71
-71
-71
-71
-71
-71
-71
-71
-71
-71
-71
-71
-71
-70
-70
-70
-70
-70
-69
-69
-68
-68
-68
-68
-68
-68
-68
-68
-68
-68
-68
-68
-68
-68
-68
-68
-68
-68
-68
-68
-68
-68
-67
-67
-67
-67
-67
-67
-66
-66
-66
-66
-66
-66
-66
-65
-65
-65
-65
-65
-65
-65
-65
-65
-65
-65
-65
-65
-66
-66
-66
-66
-66
-66
-66
-66
-66
-66
-66
-67
-67
-67
-68
-67
-67
-68
-68
-69
-69
-70
-70
-71
-70
-71
-71
-71
-72
-72
-73
-73
-73
-74
-73
-73
-74
-74
-74
-74
-75
-75
-76
-75
-75
-76
-76
-76
-77
-77
-77
-78
-78
-78
-79
-79
-79
-79
-80
-80
-80
-80
-80
-81
-81
-81
-81
-82
-82
-82
-82
-82
-82
-82
-83
-82
-82
-82
-81
-81
-80
-80
-80
-79
-79
-79
-79
-78
-78
-78
-78
-76
-76
-76
-76
-76
-75
-74
-74
-74
-73
-73
-73
-72
-72
-72
-71
-71
-71
-70
-69
-69
-69
-69
-68
-68
-67
-67
-66
-66
-65
-65
-64
-63
-63
-62
-62
-62
-61
-61
-60
-60
-60
-60
-59
-59
-59
-58
-58
-58
-58
-57
-57
-57
-57
-57
-56
-56
-56
-56
-57
-56
-56
-56
-56
-56
-56
-56
-56
-56
-56
-55
-55
-55
-56
-56
-55
-56
-55
-55
-55
-55
-56
-55
-56
-56
-56
-56
-57
-58
-59
-59
-60
-62
-65
-67
-69
-73
-77
-81
-86
-91
-97
-103
-110
-117
-125
-134
-143
-153
-162
-172
-182
-191
-201
-210
-218
-225
-232
-239
-243
-247
-249
-251
-251
-249
-247
-244
-240
-235
-228
-222
-215
-207
-198
-190
-181
-172
-164
-156
-149
-142
-135
-129
-123
-117
-112
-108
-104
-100
-97
-93
-90
-88
-86
-83
-82
-80
-78
-77
-76
-75
-73
-72
-71
-70
-69
-68
-67
-66
-66
-65
-64
-64
-63
-62
-62
-61
-61
-60
-59
-59
-59
-58
-58
-57
-57
-57
-56
-56
-56
-57
-56
-56
-56
-56
-56
-56
-55
-55
-55
-55
-54
-54
-55
-55
-55
-55
-55
-55
-55
-55
-55
-55
-55
-55
-56
-56
-56
-56
-56
-56
-57
-57
-57
-57
-57
-57
-57
-57
-58
-58
-58
-58
-58
-58
-58
-58
-58
-58
-58
-58
-59
-58
-58
-58
-58
-58
-58
-58
-59
-59
-59
-59
-58
-58
-59
-59
-59
-59
-59
-59
-59
-59
-60
-60
-60
-60
-60
-60
-60
-60
-60
-60
-60
-61
-61
-61
-61
-61
-61
-61
-61
-62
-62
-62
-62
-62
-62
-63
-63
-63
-63
-63
-63
-63
-63
-63
-63
-63
-63
-64
-64
-64
-64
-64
-64
-64
-65
-65
-65
-65
-65
-64
-64
-65
-65
-65
-65
-65
-66
-66
-66
-66
-67
-67
-67
-68
-68
-68
-68
-69
-69
-69
-70
-70
-70
-70
-71
-71
-71
-71
-71
-72
-72
-72
-72
-72
-73
-73
-74
-74
-75
-75
-75
-76
-76
-76
-77
-77
-78
-77
-78
-78
-79
-79
-79
-80
-80
-81
-81
-82
-82
-82
-83
-83
-84
-84
-85
-85
-86
-86
-86
-87
-87
-88
-88
-89
-89
-90
-90
-91
-92
-92
-93
-93
-94
-94
-95
-97
-97
-98
-99
-99
-100
-101
-102
-102
-103
-104
-105
-106
-106
-107
-108
-108
-109
-110
-111
-111
-112
-112
-113
-113
-114
-114
-114
-115
-115
-115
-115
-116
-116
-116
-116
-116
-116
-116
-116
-116
-116
-117
-117
-117
-117
-117
-117
-117
-117
-116
-116
-116
-116
-116
-115
-114
-114
-114
-113
-113
-113
-111
-111
-111
-110
-109
-108
-107
-107
-107
-106
-106
-105
-105
-103
-103
-102
-102
-101
-101
-101
-100
-100
-99
-98
-98
-97
-97
-96
-96
-96
-95
-95
-94
-94
-93
-93
-93
-92
-92
-91
-91
-90
-90
-90
-89
-89
-89
-89
-88
-88
-88
-88
-87
-87
-87
-87
-87
-87
-87
-87
-87
-87
-87
-87
-87
-86
-86
-86
-86
-86
-86
-86
-85
-85
-85
-85
-86
-85
-85
-85
-85
-85
-85
-84
-84
-84
-84
-84
-84
-85
-85
-85
-85
-84
-84
-84
-84
-84
-84
-84
-85
-85
-85
-85
-85
-86
-86
-86
-87
-87
-86
-86
-87
-87
-87
-87
-88
-88
-88
-88
-88
-88
-88
-88
-88
-88
-88
-88
-88
-88
-88
-88
-88
-88
-88
-88
-89
-89
-89
-89
-89
-88
-88
-88
-88
-88
-88
-88
-88
-88
-88
-88
-89
-89
-89
-89
-89
-89
-89
-89
-89
-90
-90
-90
-91
-91
-91
-91
-92
-92
-92
-92
-91
-91
-91
-91
-92
-92
-92
-92
-92
-92
-92
-91
-91
-91
-91
-91
-92
-92
-92
-92
-92
-92
-92
-92
-92
-92
-92
-93
-93
-93
-93
-93
-93
-93
-93
-93
-93
-94
-94
-94
-94
-94
-94
-94
-94
-94
-94
-94
-94
-94
-94
-94
-94
-94
-94
-94
-94
-94
-94
-94
-94
-93
-93
-93
-94
-95
-95
-95
-94
-94
-94
-95
-95
-95
-95
-95
-95
-95
-95
-95
-95
-95
-95
-95
-94
-94
-94
-94
-94
-94
-93
-93
-93
-93
-93
-93
-93
-94
-94
-93
-93
-93
-93
-93
-93
-93
-92
-92
-92
-93
-93
-92
-92
-92
-92
-92
-91
-91
-91
-91
-91
-90
-90
-90
-90
-90
-88
-88
-88
-88
-88
-87
-87
-87
-87
-87
-87
-86
-87
-87
-87
-87
-87
-86
-86
-86
-86
-86
-86
-86
-86
-85
-85
-85
-85
-84
-84
-84
-84
-84
-84
-84
-84
-84
-84
-84
-84
-84
-84
-84
-84
-84
-84
-84
-84
-84
-84
-84
-84
-84
-83
-83
-83
-83
-83
-83
-83
-82
-82
-82
-83
-83
-83
-83
-83
-83
-83
-83
-83
-83
-82
-83
-83
-83
-83
-83
-83
-83
-83
-83
-83
-83
-82
-82
-82
-82
-82
-82
-82
-82
-82
-82
-82
-81
-81
-81
-81
-81
-81
-81
-80
-80
-80
-80
-80
-80
-80
-80
-80
-80
-80
-80
-80
-80
-80
-80
-80
-80
-80
-80
-80
-80
-80
-81
-82
-82
-82
-82
-82
-82
-82
-81
-81
-81
-81
-81
-81
-80
-80
-80
-80
-80
-79
-79
-79
-79
-78
-78
-78
-78
-78
-78
-78
-78
-78
-78
-79
-79
-79
-79
-79
-79
-79
-79
-80
-80
-80
-80
-80
-80
-80
-80
-80
-80
-80
-80
-80
-80
-80
-80
-81
-81
-81
-81
-81
-80
-80
-80
-80
-80
-80
-80
-80
-80
-79
-79
-79
-79
-79
-79
-79
-78
-78
-78
-78
-78
-78
-78
-78
-78
-78
-78
-78
-78
-78
-78
-78
-79
-79
-79
-79
-79
-79
-79
-79
-79
-79
-79
-79
-79
-80
-80
-80
-80
-80
-80
-80
-80
-80
-80
-80
-80
-80
-80
-80
-79
-79
-80
-80
-80
-80
-80
-80
-81
-81
-80
-81
-81
-81
-82
-82
-83
-82
-83
-83
-84
-84
-85
-85
-85
-85
-86
-87
-87
-88
-89
-88
-89
-89
-90
-91
-90
-91
-91
-92
-92
-92
-93
-93
-93
-94
-94
-94
-94
-95
-95
-96
-96
-96
-96
-97
-97
-97
-98
-97
-97
-97
-98
-98
-98
-98
-97
-98
-98
-98
-97
-97
-97
-97
-97
-95
-95
-95
-95
-95
-94
-94
-93
-93
-93
-93
-92
-91
-91
-91
-91
-90
-90
-90
-90
-89
-89
-88
-88
-87
-87
-86
-87
-86
-86
-85
-85
-84
-83
-84
-83
-82
-82
-81
-81
-80
-80
-79
-79
-79
-79
-79
-78
-78
-77
-77
-77
-77
-76
-76
-76
-76
-77
-77
-76
-76
-76
-76
-76
-76
-76
-76
-76
-76
-76
-76
-76
-76
-76
-76
-76
-75
-75
-75
-76
-75
-75
-76
-75
-75
-75
-75
-75
-75
-75
-75
-75
-75
-76
-77
-77
-78
-80
-81
-83
-85
-89
-92
-96
-100
-105
-110
-117
-123
-130
-138
-145
-154
-163
-173
-182
-192
-202
-212
-221
-229
-238
-245
-252
-258
-263
-267
-269
-270
-271
-270
-268
-266
-261
-257
-251
-244
-237
-229
-221
-213
-205
-196
-188
-180
-172
-165
-159
-152
-146
-141
-136
-132
-127
-123
-120
-117
-114
-112
-109
-107
-105
-103
-101
-99
-98
-97
-96
-94
-93
-92
-90
-90
-89
-88
-87
-87
-86
-85
-85
-84
-84
-83
-83
-82
-81
-81
-80
-80
-80
-80
-79
-79
-79
-79
-79
-79
-79
-78
-78
-78
-78
-78
-78
-79
-79
-79
-79
-79
-79
-79
-79
-79
-79
-79
-79
-79
-79
-79
-79
-80
-80
-80
-80
-80
-79
-79
-79
-79
-79
-79
-80
-79
-79
-79
-79
-79
-78
-78
-78
-78
-78
-78
-78
-78
-78
-78
-78
-79
-79
-79
-79
-79
-80
-80
-80
-80
-81
-81
-81
-80
-81
-81
-81
-81
-81
-81
-81
-82
-82
-82
-82
-82
-83
-83
-83
-83
-83
-83
-83
-83
-84
-84
-83
-83
-83
-83
-84
-84
-84
-84
-84
-84
-84
-85
-85
-85
-85
-85
-85
-86
-86
-86
-86
-86
-87
-87
-87
-88
-87
-87
-87
-88
-88
-88
-88
-89
-89
-89
-89
-90
-90
-90
-89
-89
-89
-90
-90
-90
-90
-90
-90
-91
-91
-91
-91
-92
-92
-92
-92
-93
-93
-93
-93
-93
-94
-94
-94
-95
-95
-95
-96
-96
-97
-97
-98
-98
-99
-99
-100
-100
-100
-101
-101
-101
-101
-102
-102
-103
-103
-103
-104
-104
-105
-105
-106
-106
-106
-107
-107
-108
-108
-109
-109
-110
-110
-111
-111
-112
-112
-112
-113
-113
-114
-114
-114
-115
-115
-115
-116
-116
-116
-117
-117
-117
-117
-118
-118
-118
-119
-119
-119
-119
-120
-120
-120
-120
-121
-121
-121
-122
-122
-122
-122
-122
-122
-122
-122
-122
-123
-123
-123
-123
-123
-123
-122
-122
-122
-122
-122
-122
-122
-122
-122
-122
-122
-121
-121
-121
-121
-121
-121
-120
-120
-120
-119
-119
-118
-118
-117
-115
-115
-114
-113
-113
-112
-111
-110
-109
-109
-108
-107
-105
-104
-103
-103
-102
-101
-100
-99
-99
-98
-97
-96
-96
-95
-94
-93
-93
-92
-91
-91
-90
-89
-89
-88
-87
-87
-86
-85
-85
-84
-83
-84
-83
-83
-82
-82
-81
-80
-80
-79
-79
-78
-78
-77
-77
-76
-76
-75
-75
-75
-74
-74
-74
-73
-73
-74
-74
-73
-73
-73
-73
-73
-73
-73
-73
-73
-73
-73
-73
-73
-73
-73
-73
-73
-73
-73
-73
-73
-73
-73
-73
-72
-72
-72
-73
-73
-73
-73
-73
-73
-72
-72
-72
-72
-72
-72
-72
-71
-71
-71
-71
-71
-71
-70
-70
-70
-70
-70
-70
-70
-70
-70
-70
-70
-70
-70
-70
-70
-70
-70
-70
-70
-70
-70
-70
-71
-71
-71
-71
-71
-71
-71
-71
-71
-71
-71
-70
-70
-70
-70
-70
-70
-70
-70
-69
-69
-69
-69
-69
-69
-69
-69
-69
-69
-69
-69
-69
-69
-69
-69
-69
-70
-70
-70
-70
-70
-69
-69
-69
-69
-69
-69
-69
-68
-68
-68
-68
-68
-68
-68
-68
-68
-69
-69
-69
-69
-69
-69
-69
-70
-70
-70
-70
-70
-70
-70
-70
-71
-71
-72
-72
-72
-72
-72
-72
-72
-72
-71
-71
-71
-71
-71
-71
-71
-71
-71
-71
-71
-71
-71
-71
-71
-71
-71
-71
-71
-71
-70
-70
-70
-70
-70
-70
-70
-70
-70
-71
-71
-71
-71
-71
-71
-71
-71
-70
-70
-70
-70
-70
-70
-70
-70
-70
-70
-70
-69
-69
-69
-69
-69
-69
-69
-69
-68
-68
-68
-68
-68
-68
-68
-68
-68
-67
-67
-67
-67
-67
-67
-67
-67
-67
-67
-66
-66
-66
-66
-66
-66
-66
-66
-66
-65
-65
-65
-65
-65
-65
-65
-65
-65
-65
-65
-65
-65
-64
-64
-64
-64
-63
-63
-63
-63
-63
-63
-62
-62
-62
-62
-62
-62
-62
-61
-61
-61
-61
-61
-61
-61
-61
-61
-60
-60
-60
-61
-61
-61
-61
-61
-61
-61
-61
-61
-60
-60
-60
-60
-60
-60
-60
-60
-60
-60
-60
-60
-60
-60
-60
-60
-60
-60
-60
-60
-60
-60
-60
-60
-60
-60
-60
-60
-59
-59
-59
-59
-59
-59
-59
-59
-59
-59
-59
-59
-59
-59
-59
-59
-59
-59
-59
-59
-59
-59
-59
-59
-59
-59
-59
-58
-58
-58
-58
-58
-58
-58
-58
-57
-57
-57
-57
-57
-57
-58
-57
-57
-57
-57
-57
-57
-58
-58
-58
-58
-57
-57
-57
-57
-57
-58
-58
-58
-58
-58
-58
-58
-58
-58
-58
-58
-58
-58
-58
-58
-58
-58
-58
-58
-58
-58
-58
-58
-58
-58
-58
-58
-58
-58
-58
-57
-57
-57
-57
-57
-57
-57
-57
-57
-56
-56
-56
-56
-56
-56
-56
-56
-56
-56
-56
-56
-56
-56
-56
-56
-56
-56
-56
-56
-56
-56
-56
-56
-56
-56
-56
-56
-56
-56
-56
-56
-56
-56
-56
-56
-56
-56
-56
-56
-56
-56
-57
-57
-57
-57
-57
-57
-57
-57
-56
-56
-56
-56
-56
-56
-55
-55
-55
-55
-55
-54
-54
-54
-54
-54
-54
-54
-54
-54
-54
-54
-54
-54
-54
-55
-55
-55
-55
-55
-55
-55
-55
-55
-55
-55
-55
-55
-55
-55
-55
-55
-55
-55
-56
-56
-55
-55
-55
-55
-55
-55
-55
-55
-55
-55
-55
-54
-54
-54
-55
-55
-55
-56
-56
-56
-56
-57
-57
-58
-57
-58
-58
-59
-59
-60
-60
-60
-60
-60
-60
-61
-61
-61
-61
-62
-62
-62
-63
-62
-62
-63
-63
-63
-63
-64
-63
-63
-64
-64
-65
-65
-65
-66
-66
-66
-67
-68
-68
-68
-68
-69
-69
-69
-70
-70
-70
-70
-71
-71
-70
-70
-71
-70
-70
-70
-69
-69
-69
-68
-68
-68
-67
-67
-66
-66
-66
-65
-65
-65
-64
-64
-64
-63
-63
-63
-62
-62
-62
-62
-62
-62
-62
-61
-61
-61
-61
-60
-60
-59
-59
-58
-58
-57
-57
-56
-57
-56
-56
-55
-54
-54
-53
-53
-52
-52
-52
-52
-51
-50
-50
-50
-49
-49
-49
-48
-48
-48
-47
-47
-47
-47
-47
-47
-47
-47
-47
-47
-47
-47
-47
-47
-48
-48
-48
-48
-48
-48
-48
-48
-48
-47
-47
-47
-46
-47
-46
-46
-45
-45
-45
-45
-44
-44
-44
-45
-45
-45
-46
-47
-48
-50
-52
-55
-58
-62
-66
-70
-75
-81
-88
-94
-101
-108
-117
-125
-135
-145
-154
-164
-173
-183
-193
-201
-209
-217
-223
-229
-235
-238
-241
-242
-242
-241
-240
-237
-232
-228
-222
-215
-208
-200
-192
-183
-175
-167
-158
-151
-143
-137
-129
-123
-117
-112
-107
-103
-98
-94
-91
-87
-84
-81
-79
-77
-75
-72
-70
-69
-67
-65
-64
-62
-60
-60
-59
-58
-56
-56
-55
-54
-53
-52
-51
-51
-50
-50
-50
-49
-49
-49
-48
-48
-48
-48
-48
-47
-47
-47
-47
-47
-46
-46
-46
-46
-46
-46
-46
-46
-46
-46
-46
-46
-46
-46
-46
-46
-46
-46
-46
-45
-45
-45
-46
-46
-46
-46
-46
-46
-46
-46
-46
-46
-46
-46
-46
-46
-46
-46
-46
-46
-47
-47
-47
-47
-47
-47
-47
-47
-47
-47
-47
-47
-47
-47
-48
-48
-48
-48
-48
-48
-48
-49
-49
-49
-49
-49
-49
-49
-49
-49
-50
-50
-50
-50
-50
-50
-50
-50
-50
-50
-50
-49
-49
-49
-49
-49
-49
-49
-49
-49
-49
-50
-50
-50
-50
-50
-51
-51
-51
-52
-52
-52
-53
-53
-52
-52
-53
-53
-53
-54
-54
-54
-55
-55
-55
-55
-55
-56
-56
-56
-56
-57
-57
-57
-57
-58
-58
-57
-58
-58
-59
-59
-59
-60
-60
-60
-61
-61
-61
-62
-62
-62
-62
-63
-62
-62
-62
-62
-63
-63
-63
-63
-64
-64
-65
-65
-65
-65
-66
-66
-66
-67
-67
-67
-68
-68
-68
-69
-68
-69
-69
-70
-70
-71
-71
-71
-72
-72
-73
-73
-73
-74
-74
-74
-75
-75
-76
-76
-76
-77
-77
-78
-78
-78
-79
-79
-80
-79
-79
-80
-80
-80
-81
-81
-81
-82
-82
-82
-83
-83
-83
-83
-85
-85
-85
-85
-86
-86
-86
-86
-86
-87
-87
-87
-87
-87
-87
-88
-88
-88
-88
-88
-88
-88
-88
-88
-88
-89
-90
-90
-90
-90
-90
-90
-90
-90
-89
-89
-89
-89
-89
-88
-88
-87
-87
-87
-86
-86
-85
-85
-84
-83
-83
-82
-81
-81
-80
-79
-78
-77
-76
-76
-75
-73
-72
-71
-70
-69
-68
-67
-66
-65
-64
-63
-62
-61
-60
-59
-58
-57
-56
-56
-55
-54
-53
-52
-51
-50
-50
-49
-48
-47
-47
-46
-45
-44
-44
-43
-42
-42
-41
-40
-40
-39
-40
-39
-39
-38
-38
-37
-37
-36
-36
-35
-35
-35
-35
-35
-35
-34
-34
-34
-34
-33
-33
-33
-32
-32
-32
-32
-31
-31
-31
-31
-30
-30
-30
-30
-30
-30
-30
-30
-30
-30
-30
-30
-30
-30
-30
-30
-30
-31
-31
-31
-31
-31
-31
-31
-31
-30
-30
-30
-30
-30
-30
-30
-30
-29
-29
-29
-29
-29
-29
-29
-29
-29
-29
-29
-28
-28
-28
-28
-28
-28
-28
-28
-27
-27
-27
-27
-27
-27
-27
-27
-27
-27
-27
-27
-27
-27
-27
-27
-27
-27
-27
-27
-27
-27
-27
-27
-27
-27
-27
-27
-27
-27
-27
-27
-27
-26
-26
-26
-26
-26
-26
-26
-26
-26
-26
-26
-26
-26
-26
-26
-26
-26
-26
-26
-26
-26
-26
-26
-26
-26
-26
-26
-26
-26
-26
-27
-27
-27
-27
-27
-27
-26
-26
-27
-27
-27
-27
-27
-27
-27
-28
-28
-28
-28
-28
-28
-28
-28
-28
-28
-28
-28
-28
-28
-28
-28
-28
-28
-28
-28
-28
-28
-28
-28
-28
-28
-29
-28
-28
-28
-28
-28
-28
-28
-28
-27
-27
-27
-27
-27
-27
-27
-27
-26
-26
-26
-26
-26
-26
-26
-26
-26
-26
-27
-27
-27
-27
-27
-26
-26
-26
-27
-27
-27
-27
-27
-27
-27
-27
-27
-27
-27
-27
-27
-27
-27
-27
-27
-27
-26
-26
-26
-26
-26
-26
-26
-26
-25
-25
-25
-25
-25
-25
-25
-25
-25
-25
-25
-25
-25
-25
-25
-25
-25
-25
-25
-25
-25
-25
-25
-25
-25
-25
-25
-25
-25
-25
-25
-25
-24
-24
-24
-25
-25
-25
-25
-24
-24
-24
-24
-24
-24
-24
-24
-24
-24
-24
-24
-24
-24
-24
-24
-23
-23
-23
-23
-23
-23
-23
-23
-23
-23
-23
-23
-23
-23
-24
-24
-24
-24
-24
-24
-24
-24
-24
-24
-25
-25
-25
-25
-25
-25
-25
-25
-25
-25
-25
-25
-25
-25
-25
-25
-25
-25
-25
-25
-25
-25
-25
-25
-25
-25
-25
-25
-25
-25
-25
-25
-25
-25
-25
-25
-25
-25
-25
-25
-25
-25
-25
-25
-25
-25
-25
-25
-26
-26
-26
-26
-26
-26
-26
-26
-26
-26
-26
-26
-26
-26
-26
-26
-26
-26
-26
-26
-26
-26
-26
-26
-26
-26
-26
-26
-26
-27
-27
-27
-27
-27
-27
-27
-27
-27
-27
-27
-26
-26
-26
-26
-26
-26
-26
-26
-26
-26
-26
-26
-26
-26
-26
-26
-26
-26
-26
-26
-26
-26
-26
-27
-27
-27
-27
-27
-27
-27
-27
-27
-27
-27
-28
-28
-28
-28
-28
-28
-28
-28
-28
-28
-27
-27
-27
-27
-27
-27
-27
-27
-27
-27
-27
-27
-27
-27
-27
-27
-26
-26
-27
-27
-27
-27
-27
-27
-27
-27
-27
-27
-26
-26
-26
-26
-26
-26
-26
-26
-26
-26
-26
-26
-26
-26
-26
-26
-26
-26
-26
-26
-26
-27
-27
-27
-27
-27
-27
-27
-27
-27
-28
-28
-28
-28
-28
-28
-28
-28
-28
-27
-27
-27
-27
-27
-27
-27
-27
-27
-27
-28
-28
-27
-27
-28
-28
-28
-29
-30
-30
-30
-30
-31
-32
-32
-33
-34
-34
-34
-34
-35
-36
-36
-36
-37
-37
-37
-38
-38
-38
-38
-39
-39
-39
-40
-40
-40
-40
-41
-41
-41
-42
-42
-42
-43
-43
-43
-44
-44
-44
-45
-45
-45
-45
-46
-46
-46
-46
-47
-47
-47
-48
-48
-48
-48
-49
-49
-48
-48
-48
-48
-48
-48
-48
-48
-47
-47
-47
-47
-47
-47
-45
-45
-45
-45
-45
-44
-44
-43
-43
-42
-42
-42
-41
-41
-41
-41
-40
-40
-39
-39
-39
-38
-38
-37
-37
-36
-36
-36
-35
-35
-34
-35
-34
-34
-33
-33
-33
-32
-32
-31
-31
-30
-30
-30
-30
-30
-30
-30
-29
-29
-29
-29
-29
-28
-28
-28
-28
-28
-28
-28
-28
-28
-28
-28
-28
-28
-28
-29
-29
-29
-29
-29
-29
-29
-29
-29
-29
-29
-29
-29
-29
-29
-28
-29
-29
-29
-29
-29
-29
-29
-30
-30
-31
-33
-34
-36
-39
-42
-46
-50
-55
-60
-66
-72
-79
-87
-94
-102
-111
-121
-131
-141
-150
-161
-170
-179
-187
-196
-203
-209
-214
-219
-221
-224
-225
-225
-223
-221
-218
-213
-208
-202
-195
-187
-179
-171
-163
-154
-146
-138
-130
-123
-116
-109
-103
-98
-93
-88
-84
-79
-76
-73
-70
-67
-64
-62
-59
-58
-55
-54
-53
-51
-49
-48
-47
-45
-44
-43
-42
-41
-40
-40
-39
-39
-38
-36
-36
-35
-35
-34
-34
-34
-33
-33
-33
-32
-32
-32
-32
-32
-32
-32
-32
-32
-32
-33
-33
-33
-33
-33
-33
-33
-33
-33
-33
-33
-33
-33
-33
-33
-32
-32
-32
-32
-32
-32
-31
-31
-32
-32
-32
-32
-32
-32
-32
-32
-32
-32
-32
-32
-32
-33
-33
-33
-33
-33
-33
-34
-34
-34
-34
-34
-35
-36
-36
-36
-36
-36
-36
-36
-36
-36
-36
-36
-36
-36
-36
-36
-36
-36
-36
-36
-36
-36
-37
-37
-37
-37
-37
-37
-37
-37
-38
-37
-37
-37
-37
-37
-37
-38
-38
-38
-38
-38
-38
-38
-38
-39
-39
-39
-39
-39
-40
-40
-40
-41
-41
-41
-41
-42
-42
-42
-43
-43
-43
-43
-44
-44
-44
-44
-45
-45
-45
-45
-45
-46
-46
-46
-46
-46
-46
-46
-46
-46
-47
-47
-47
-48
-48
-48
-49
-49
-49
-50
-50
-50
-51
-51
-51
-52
-52
-52
-53
-53
-53
-54
-54
-53
-54
-54
-54
-55
-55
-56
-56
-56
-56
-57
-57
-58
-58
-58
-59
-59
-60
-60
-61
-61
-62
-62
-63
-63
-64
-64
-65
-65
-66
-66
-67
-67
-68
-68
-69
-69
-70
-70
-71
-71
-72
-72
-73
-73
-74
-74
-75
-75
-75
-76
-76
-77
-77
-77
-78
-78
-78
-78
-79
-79
-79
-79
-80
-80
-80
-81
-82
-82
-82
-82
-82
-83
-83
-83
-83
-83
-83
-83
-84
-84
-84
-84
-84
-84
-84
-84
-84
-84
-84
-84
-84
-84
-84
-84
-84
-84
-84
-84
-83
-83
-83
-83
-82
-82
-81
-81
-80
-80
-79
-78
-77
-76
-76
-75
-74
-73
-72
-71
-70
-69
-68
-67
-66
-64
-63
-62
-61
-60
-59
-58
-58
-57
-56
-55
-54
-53
-53
-52
-51
-50
-50
-49
-48
-47
-47
-46
-45
-45
-44
-43
-43
-42
-41
-41
-41
-41
-40
-39
-39
-38
-38
-38
-37
-37
-37
-37
-37
-36
-36
-36
-35
-35
-35
-34
-34
-34
-34
-33
-33
-33
-33
-33
-33
-32
-32
-32
-32
-32
-32
-31
-31
-31
-31
-31
-31
-30
-30
-30
-30
-30
-29
-29
-30
-30
-30
-30
-30
-30
-30
-30
-29
-29
-29
-29
-29
-30
-30
-30
-30
-30
-30
-30
-30
-31
-31
-31
-31
-31
-31
-31
-31
-31
-31
-30
-30
-30
-30
-30
-30
-30
-30
-29
-29
-29
-29
-29
-29
-29
-29
-28
-28
-28
-28
-28
-28
-28
-28
-28
-28
-28
-28
-28
-28
-29
-28
-28
-28
-28
-28
-28
-28
-29
-29
-29
-29
-29
-29
-29
-30
-30
-30
-30
-30
-30
-30
-30
-30
-30
-30
-30
-31
-31
-31
-31
-30
-30
-30
-30
-30
-30
-30
-30
-30
-30
-30
-30
-31
-31
-31
-31
-31
-31
-31
-31
-31
-31
-31
-31
-31
-30
-31
-31
-31
-31
-31
-31
-31
-31
-31
-31
-31
-32
-32
-32
-32
-31
-32
-32
-32
-32
-32
-32
-32
-33
-33
-33
-33
-33
-33
-33
-33
-33
-33
-33
-33
-32
-32
-32
-32
-31
-32
-32
-32
-32
-32
-32
-32
-32
-33
-33
-33
-33
-33
-33
-33
-33
-33
-33
-33
-33
-33
-32
-32
-32
-32
-32
-32
-32
-32
-32
-32
-32
-32
-32
-32
-32
-32
-32
-32
-32
-31
-31
-31
-31
-31
-31
-31
-31
-31
-31
-31
-31
-31
-31
-31
-31
-31
-31
-31
-31
-31
-31
-31
-31
-31
-31
-31
-31
-31
-31
-31
-31
-31
-31
-31
-31
-30
-30
-30
-30
-30
-30
-30
-30
-30
-30
-30
-30
-30
-30
-29
-29
-29
-29
-29
-29
-29
-29
-29
-29
-28
-28
-28
-28
-28
-28
-28
-29
-29
-29
-29
-29
-29
-29
-29
-29
-29
-29
-29
-28
-28
-28
-28
-28
-28
-28
-28
-28
-27
-27
-27
-27
-27
-27
-27
-27
-27
-27
-27
-27
-27
-27
-27
-27
-27
-27
-27
-27
-27
-27
-27
-27
-27
-27
-27
-27
-27
-28
-28
-28
-28
-28
-27
-27
-27
-27
-27
-27
-27
-27
-27
-27
-27
-27
-27
-27
-27
-27
-27
-28
-28
-28
-28
-28
-28
-28
-28
-28
-28
-28
-28
-28
-28
-28
-28
-28
-28
-28
-28
-28
-28
-28
-28
-28
-28
-28
-28
-28
-28
-28
-28
-28
-28
-28
-28
-28
-28
-28
-28
-28
-27
-27
-27
-27
-27
-27
-27
-27
-27
-28
-28
-28
-28
-28
-28
-28
-27
-27
-27
-27
-27
-27
-27
-27
-27
-27
-27
-27
-27
-27
-27
-27
-27
-27
-27
-27
-27
-27
-27
-27
-27
-27
-27
-27
-28
-28
-28
-28
-28
-29
-29
-29
-29
-28
-28
-28
-28
-28
-28
-28
-28
-28
-28
-28
-28
-28
-28
-28
-28
-28
-29
-29
-29
-29
-28
-28
-28
-28
-28
-28
-28
-28
-28
-28
-28
-28
-28
-28
-28
-28
-29
-29
-29
-29
-29
-29
-29
-29
-29
-29
-29
-29
-29
-29
-28
-29
-29
-29
-29
-29
-29
-29
-29
-29
-29
-29
-29
-30
-29
-29
-29
-30
-30
-30
-31
-31
-32
-32
-33
-33
-34
-33
-33
-34
-34
-35
-35
-35
-36
-36
-37
-37
-37
-38
-37
-37
-38
-38
-38
-39
-39
-40
-40
-40
-41
-41
-40
-41
-41
-41
-42
-42
-42
-43
-43
-44
-44
-44
-44
-44
-44
-44
-44
-44
-45
-45
-45
-46
-46
-46
-45
-45
-46
-46
-46
-46
-46
-45
-45
-45
-45
-45
-44
-44
-44
-44
-43
-42
-42
-42
-41
-41
-41
-40
-39
-39
-38
-38
-37
-37
-36
-36
-35
-35
-34
-34
-33
-33
-33
-32
-32
-31
-30
-30
-29
-29
-28
-28
-28
-28
-27
-27
-27
-26
-26
-26
-25
-25
-25
-24
-24
-24
-25
-24
-24
-24
-24
-23
-23
-23
-23
-23
-23
-24
-24
-24
-23
-23
-23
-23
-23
-23
-23
-24
-24
-24
-24
-24
-24
-24
-24
-24
-24
-23
-24
-23
-24
-23
-23
-23
-23
-23
-23
-23
-24
-24
-24
-25
-27
-29
-31
-34
-36
-40
-45
-49
-54
-60
-66
-72
-81
-88
-96
-106
-115
-125
-135
-145
-155
-164
-174
-182
-190
-198
-204
-210
-215
-217
-219
-221
-220
-218
-216
-212
-207
-201
-195
-188
-181
-172
-163
-155
-146
-137
-129
-122
-114
-107
-99
-93
-88
-82
-78
-74
-70
-67
-63
-60
-57
-55
-53
-51
-49
-46
-45
-43
-42
-41
-40
-38
-37
-37
-35
-34
-33
-33
-32
-31
-31
-30
-30
-29
-29
-29
-29
-28
-28
-28
-28
-28
-28
-27
-27
-27
-27
-27
-27
-27
-26
-26
-26
-26
-26
-25
-25
-25
-25
-25
-24
-24
-24
-24
-24
-24
-24
-23
-23
-23
-23
-23
-23
-23
-23
-23
-23
-23
-23
-23
-23
-24
-24
-24
-24
-24
-24
-24
-25
-25
-25
-25
-25
-25
-25
-25
-25
-25
-25
-25
-25
-25
-25
-25
-25
-25
-25
-25
-26
-26
-26
-26
-26
-26
-26
-26
-26
-26
-26
-26
-26
-26
-26
-26
-27
-27
-27
-27
-27
-27
-27
-27
-28
-28
-28
-28
-28
-29
-29
-30
-30
-30
-30
-30
-30
-31
-31
-31
-31
-30
-31
-31
-31
-31
-31
-31
-32
-32
-32
-31
-32
-32
-32
-32
-32
-32
-33
-33
-33
-33
-34
-34
-34
-34
-34
-34
-34
-34
-36
-36
-36
-36
-36
-36
-36
-36
-37
-37
-37
-37
-37
-38
-38
-38
-39
-39
-39
-40
-40
-40
-40
-40
-40
-41
-41
-42
-42
-42
-43
-43
-43
-44
-44
-45
-45
-45
-46
-46
-46
-47
-47
-47
-48
-48
-48
-48
-49
-49
-49
-49
-49
-50
-50
-50
-50
-51
-51
-51
-52
-53
-53
-53
-53
-54
-54
-54
-55
-55
-55
-56
-56
-57
-57
-57
-58
-58
-58
-59
-59
-60
-60
-61
-61
-61
-62
-62
-62
-62
-62
-63
-63
-63
-63
-63
-64
-65
-65
-65
-65
-65
-65
-65
-65
-66
-66
-66
-66
-66
-66
-66
-66
-66
-66
-66
-66
-66
-66
-66
-66
-65
-65
-65
-65
-63
-63
-62
-62
-62
-61
-61
-60
-59
-58
-58
-57
-57
-55
-55
-54
-54
-53
-53
-51
-51
-50
-50
-49
-48
-47
-46
-45
-45
-44
-43
-43
-42
-41
-40
-40
-39
-37
-37
-36
-35
-34
-34
-33
-33
-32
-32
-31
-31
-31
-30
-29
-28
-28
-28
-27
-27
-27
-27
-26
-26
-25
-25
-25
-24
-24
-23
-23
-22
-22
-21
-21
-21
-20
-20
-19
-19
-19
-19
-19
-18
-18
-18
-18
-18
-18
-18
-18
-18
-18
-18
-18
-18
-18
-18
-18
-18
-18
-17
-17
-17
-17
-17
-17
-17
-17
-16
-16
-16
-16
-16
-16
-16
-15
-15
-15
-16
-16
-16
-16
-16
-15
-15
-15
-15
-15
-15
-15
-14
-14
-14
-14
-14
-14
-14
-14
-14
-14
-14
-14
-15
-15
-15
-15
-15
-15
-16
-16
-16
-16
-16
-17
-17
-17
-16
-16
-16
-16
-16
-16
-16
-16
-16
-16
-16
-17
-17
-17
-17
-17
-17
-17
-17
-17
-17
-17
-17
-17
-17
-16
-16
-16
-16
-16
-16
-16
-15
-15
-15
-15
-15
-15
-14
-14
-14
-14
-14
-14
-14
-14
-14
-14
-15
-15
-15
-15
-15
-15
-15
-15
-15
-15
-15
-15
-15
-15
-15
-16
-16
-16
-16
-16
-16
-16
-16
-17
-17
-17
-16
-16
-16
-16
-16
-16
-16
-16
-16
-16
-16
-16
-17
-17
-17
-17
-17
-17
-17
-17
-17
-17
-17
-17
-17
-17
-17
-17
-17
-17
-16
-16
-17
-17
-17
-16
-17
-17
-17
-17
-17
-17
-16
-16
-16
-17
-16
-16
-16
-16
-16
-15
-15
-15
-15
-15
-14
-14
-14
-14
-14
-14
-14
-14
-14
-14
-15
-15
-15
-15
-15
-15
-15
-15
-14
-14
-14
-14
-14
-14
-14
-14
-14
-14
-14
-14
-14
-13
-13
-13
-14
-14
-14
-14
-14
-14
-14
-14
-14
-15
-15
-15
-15
-15
-15
-15
-15
-15
-15
-15
-15
-15
-15
-15
-15
-15
-15
-15
-15
-15
-15
-15
-15
-15
-15
-15
-15
-15
-15
-15
-15
-15
-15
-15
-15
-14
-14
-14
-14
-14
-14
-14
-14
-14
-14
-13
-13
-13
-13
-14
-14
-14
-14
-14
-13
-13
-13
-13
-13
-13
-13
-13
-13
-13
-13
-13
-13
-13
-13
-13
-13
-13
-13
-13
-13
-13
-13
-13
-13
-13
-13
-13
-13
-13
-13
-13
-13
-13
-14
-14
-13
-13
-13
-13
-13
-13
-13
-13
-13
-13
-13
-13
-13
-13
-13
-13
-13
-13
-13
-13
-13
-13
-14
-13
-13
-13
-13
-13
-13
-13
-13
-13
-13
-13
-12
-12
-12
-12
-12
-12
-12
-12
-12
-12
-13
-13
-13
-13
-13
-13
-13
-13
-13
-13
-12
-12
-12
-12
-12
-12
-12
-12
-12
-12
-12
-12
-12
-12
-13
-12
-12
-12
-12
-12
-12
-12
-12
-12
-11
-11
-11
-11
-11
-11
-11
-11
-11
-11
-11
-11
-11
-11
-11
-11
-11
-10
-11
-11
-11
-11
-11
-11
-10
-10
-10
-10
-10
-10
-10
-10
-10
-10
-11
-11
-11
-11
-11
-10
-11
-11
-11
-11
-11
-11
-11
-12
-12
-12
-12
-12
-11
-11
-11
-11
-11
-11
-11
-11
-11
-11
-11
-11
-10
-10
-10
-10
-10
-10
-10
-9
-9
-9
-9
-9
-9
-9
-9
-10
-10
-10
-11
-11
-11
-12
-12
-13
-13
-13
-14
-15
-15
-15
-16
-16
-17
-17
-17
-18
-18
-18
-18
-18
-19
-19
-19
-20
-19
-19
-20
-20
-20
-21
-21
-20
-20
-21
-21
-22
-22
-22
-23
-23
-23
-23
-24
-24
-24
-25
-25
-25
-26
-26
-26
-27
-27
-26
-27
-27
-27
-27
-27
-26
-27
-27
-26
-26
-26
-26
-26
-26
-26
-26
-25
-26
-26
-26
-25
-25
-25
-25
-25
-25
-25
-24
-23
-23
-23
-22
-22
-21
-21
-20
-20
-20
-19
-18
-17
-17
-17
-16
-15
-15
-14
-15
-14
-13
-13
-12
-12
-11
-11
-11
-10
-10
-10
-10
-10
-10
-10
-9
-9
-9
-9
-8
-8
-8
-8
-7
-7
-7
-8
-7
-7
-7
-7
-6
-6
-6
-6
-6
-6
-5
-5
-5
-5
-5
-6
-6
-6
-5
-6
-6
-6
-6
-6
-6
-6
-5
-5
-6
-6
-6
-7
-7
-7
-7
-8
-9
-10
-12
-15
-17
-19
-23
-27
-31
-36
-41
-47
-53
-60
-68
-75
-84
-93
-102
-112
-122
-132
-141
-150
-159
-167
-175
-182
-187
-192
-195
-198
-200
-200
-200
-198
-195
-191
-187
-181
-174
-168
-160
-151
-143
-135
-126
-119
-111
-102
-95
-88
-83
-77
-72
-66
-62
-57
-53
-50
-47
-44
-42
-39
-37
-35
-33
-32
-30
-29
-27
-26
-25
-24
-23
-22
-21
-21
-19
-18
-18
-18
-17
-16
-15
-15
-14
-14
-13
-13
-12
-12
-12
-12
-11
-11
-11
-11
-10
-10
-10
-10
-10
-10
-9
-9
-9
-9
-9
-9
-9
-10
-10
-10
-10
-10
-10
-10
-10
-10
-10
-10
-10
-10
-10
-10
-10
-10
-9
-9
-9
-9
-9
-9
-9
-10
-10
-10
-10
-10
-10
-10
-10
-10
-10
-10
-10
-10
-10
-10
-10
-11
-11
-11
-11
-11
-11
-11
-11
-11
-11
-11
-11
-11
-11
-11
-11
-11
-12
-12
-12
-12
-12
-12
-12
-13
-13
-13
-13
-13
-13
-13
-14
-14
-14
-14
-14
-14
-15
-15
-15
-15
-15
-16
-16
-16
-16
-17
-17
-17
-18
-18
-18
-18
-18
-18
-18
-19
-19
-19
-19
-20
-20
-20
-20
-21
-21
-21
-21
-22
-21
-21
-21
-21
-22
-22
-22
-22
-23
-23
-23
-23
-24
-24
-24
-24
-24
-25
-25
-25
-25
-25
-26
-26
-26
-26
-27
-27
-27
-28
-28
-28
-29
-29
-30
-30
-31
-31
-32
-32
-33
-33
-33
-34
-34
-34
-35
-35
-36
-35
-36
-36
-36
-37
-37
-37
-38
-38
-39
-39
-40
-40
-40
-41
-41
-42
-42
-42
-42
-43
-43
-43
-43
-44
-44
-44
-44
-46
-46
-45
-46
-46
-47
-47
-48
-48
-49
-49
-50
-50
-51
-51
-52
-52
-53
-53
-53
-54
-54
-54
-55
-55
-55
-55
-56
-56
-56
-56
-56
-56
-56
-57
-57
-57
-57
-57
-57
-57
-56
-56
-57
-57
-57
-57
-57
-57
-57
-57
-57
-57
-57
-57
-56
-56
-56
-55
-55
-54
-54
-54
-53
-53
-52
-52
-51
-50
-49
-49
-48
-48
-46
-46
-46
-44
-44
-44
-43
-43
-42
-42
-42
-42
-41
-40
-40
-40
-39
-39
-38
-38
-38
-37
-37
-36
-36
-36
-35
-34
-34
-34
-33
-33
-32
-31
-31
-31
-30
-30
-30
-29
-29
-29
-29
-28
-28
-28
-28
-27
-27
-27
-27
-26
-26
-26
-26
-26
-26
-26
-25
-25
-24
-24
-24
-24
-24
-24
-24
-24
-24
-24
-24
-24
-24
-24
-24
-24
-24
-24
-24
-24
-24
-24
-23
-23
-23
-23
-23
-23
-23
-23
-23
-24
-24
-24
-24
-24
-24
-24
-24
-24
-24
-24
-24
-24
-24
-24
-24
-24
-24
-24
-23
-23
-23
-23
-23
-23
-23
-23
-23
-23
-23
-23
-23
-23
-23
-23
-23
-23
-23
-23
-23
-23
-23
-23
-23
-23
-23
-23
-23
-23
-23
-23
-23
-23
-23
-23
-23
-23
-23
-23
-24
-24
-24
-24
-24
-25
-25
-25
-25
-25
-25
-25
-25
-25
-25
-25
-25
-25
-25
-25
-25
-25
-25
-25
-25
-25
-25
-25
-25
-25
-25
-25
-25
-25
-24
-24
-24
-24
-24
-24
-25
-25
-25
-25
-26
-26
-26
-26
-27
-28
-28
-28
-28
-29
-29
-29
-29
-29
-29
-29
-29
-29
-30
-30
-30
-30
-30
-30
-30
-30
-29
-29
-29
-29
-29
-29
-29
-29
-29
-29
-29
-29
-29
-29
-29
-29
-29
-30
-29
-29
-29
-29
-29
-29
-29
-29
-29
-29
-29
-29
-28
-28
-28
-28
-28
-28
-28
-28
-28
-27
-27
-27
-27
-27
-27
-28
-28
-28
-29
-29
-29
-29
-29
-29
-29
-29
-29
-29
-29
-28
-28
-28
-28
-29
-29
-29
-27
-27
-27
-27
-27
-27
-27
-27
-27
-27
-27
-26
-26
-26
-26
-27
-26
-26
-26
-26
-26
-26
-25
-25
-25
-25
-25
-25
-25
-25
-25
-25
-25
-25
-26
-26
-26
-26
-26
-26
-26
-26
-26
-26
-26
-26
-26
-26
-26
-26
-26
-26
-26
-26
-26
-26
-26
-26
-26
-26
-26
-26
-25
-25
-25
-25
-25
-25
-25
-25
-25
-25
-25
-25
-24
-24
-24
-24
-24
-23
-23
-23
-23
-23
-22
-22
-22
-22
-22
-22
-23
-23
-22
-22
-22
-22
-22
-23
-23
-23
-23
-23
-23
-23
-23
-23
-23
-23
-23
-23
-23
-23
-23
-23
-23
-23
-22
-22
-22
-22
-22
-22
-22
-22
-22
-22
-22
-22
-22
-22
-23
-23
-23
-23
-23
-23
-23
-23
-23
-23
-23
-23
-23
-23
-23
-23
-23
-23
-23
-23
-22
-22
-22
-22
-22
-22
-22
-22
-21
-21
-21
-21
-21
-22
-22
-22
-22
-22
-22
-22
-22
-22
-23
-23
-23
-22
-22
-22
-22
-22
-22
-22
-22
-22
-22
-22
-22
-22
-22
-22
-22
-21
-21
-21
-21
-21
-21
-21
-20
-20
-20
-20
-21
-21
-20
-20
-20
-20
-20
-20
-20
-20
-20
-20
-20
-19
-20
-20
-20
-20
-20
-20
-20
-20
-20
-20
-20
-19
-19
-19
-19
-19
-19
-18
-18
-18
-17
-17
-17
-17
-17
-18
-18
-18
-18
-18
-18
-18
-18
-19
-19
-19
-19
-19
-19
-19
-20
-20
-20
-20
-20
-20
-20
-20
-20
-20
-20
-21
-21
-21
-21
-21
-22
-22
-21
-22
-22
-23
-23
-23
-23
-23
-24
-24
-25
-25
-26
-25
-25
-26
-26
-27
-27
-28
-28
-27
-28
-28
-29
-29
-29
-29
-30
-30
-31
-31
-31
-32
-32
-32
-33
-33
-33
-33
-33
-34
-34
-34
-35
-34
-34
-35
-35
-35
-36
-35
-35
-36
-35
-35
-36
-35
-35
-35
-34
-35
-34
-34
-34
-33
-33
-33
-33
-32
-31
-31
-31
-31
-31
-29
-29
-29
-29
-29
-28
-28
-28
-28
-27
-27
-26
-26
-26
-25
-25
-24
-24
-24
-23
-23
-22
-23
-23
-22
-22
-21
-20
-20
-20
-19
-19
-19
-19
-19
-18
-18
-17
-17
-17
-16
-16
-15
-16
-15
-15
-15
-14
-14
-14
-13
-13
-13
-13
-12
-12
-12
-12
-12
-12
-12
-12
-12
-12
-12
-12
-12
-13
-13
-13
-14
-13
-13
-13
-13
-13
-13
-12
-12
-12
-12
-12
-11
-11
-11
-11
-11
-12
-13
-13
-15
-16
-19
-21
-25
-28
-32
-37
-42
-49
-55
-63
-70
-78
-88
-96
-107
-116
-127
-137
-147
-157
-166
-175
-183
-190
-197
-202
-207
-210
-213
-213
-213
-212
-210
-206
-202
-196
-189
-183
-175
-167
-159
-150
-142
-134
-126
-118
-110
-103
-97
-90
-85
-79
-74
-69
-65
-61
-58
-54
-51
-48
-45
-43
-41
-38
-36
-34
-33
-31
-30
-28
-26
-24
-24
-23
-22
-21
-20
-19
-18
-18
-17
-17
-16
-16
-16
-15
-15
-15
-14
-14
-14
-14
-13
-13
-13
-13
-12
-12
-12
-13
-13
-12
-12
-12
-12
-12
-12
-12
-12
-12
-12
-12
-12
-12
-12
-12
-12
-12
-12
-12
-12
-12
-12
-12
-12
-12
-12
-12
-12
-12
-12
-12
-12
-12
-12
-12
-12
-12
-12
-12
-12
-13
-13
-13
-13
-13
-13
-13
-13
-13
-13
-13
-13
-13
-13
-13
-13
-13
-13
-12
-12
-13
-13
-13
-13
-13
-13
-13
-13
-13
-13
-13
-14
-14
-14
-14
-14
-15
-15
-15
-15
-16
-16
-16
-16
-16
-16
-16
-16
-16
-17
-17
-17
-17
-17
-17
-16
-16
-16
-17
-17
-17
-17
-18
-18
-18
-18
-18
-19
-19
-19
-20
-20
-20
-20
-21
-21
-21
-20
-21
-21
-21
-21
-22
-22
-22
-23
-23
-23
-24
-24
-23
-24
-24
-24
-25
-25
-25
-26
-26
-27
-27
-27
-28
-28
-27
-28
-28
-28
-29
-29
-29
-30
-30
-30
-30
-31
-31
-31
-32
-32
-32
-33
-33
-33
-33
-33
-33
-33
-34
-34
-35
-35
-35
-36
-36
-37
-37
-38
-38
-38
-38
-39
-39
-40
-40
-41
-42
-42
-43
-43
-44
-45
-45
-46
-46
-46
-46
-47
-47
-48
-48
-48
-49
-49
-51
-51
-52
-52
-52
-53
-53
-53
-54
-54
-54
-55
-55
-55
-56
-56
-56
-56
-56
-56
-57
-57
-57
-57
-57
-57
-57
-57
-57
-57
-57
-57
-57
-57
-57
-57
-57
-57
-57
-57
-57
-56
-56
-56
-56
-55
-55
-55
-54
-54
-53
-53
-53
-52
-51
-51
-49
-49
-48
-47
-47
-46
-45
-44
-44
-43
-42
-41
-40
-39
-38
-37
-36
-35
-34
-33
-32
-31
-30
-29
-28
-27
-27
-26
-25
-24
-23
-23
-22
-21
-21
-20
-19
-19
-18
-17
-17
-16
-16
-15
-15
-15
-14
-14
-14
-13
-13
-12
-12
-12
-11
-11
-11
-10
-10
-11
-10
-10
-10
-10
-9
-9
-9
-8
-8
-8
-7
-7
-7
-6
-6
-7
-6
-6
-6
-5
-5
-5
-5
-5
-4
-4
-4
-4
-4
-4
-4
-4
-4
-4
-4
-4
-4
-4
-4
-4
-4
-4
-4
-4
-3
-3
-3
-3
-3
-3
-2
-2
-2
-2
-2
-1
-1
-1
-1
-1
-1
-1
-1
-1
-1
-1
-2
-2
-2
-2
-3
-3
-3
-3
-3
-3
-3
-3
-3
-3
-3
-3
-3
-3
-3
-3
-3
-3
-3
-2
-2
-2
-2
-2
-2
-2
-2
-2
-1
-1
-1
-1
-1
-1
-1
-1
-1
-1
-1
-1
-1
-1
-1
-1
-1
-1
-1
-1
-1
-1
-1
-1
-1
-1
-1
-1
-1
-1
-1
-1
-1
-1
-1
-1
-1
-1
-1
-1
-1
-1
-1
-1
-1
-1
-1
-1
-1
-1
-1
-1
-1
-1
-1
-1
-1
-2
-1
-1
-1
-1
-1
-1
-1
-1
-1
-1
-1
-1
-1
-1
-1
-2
-2
-2
-2
-2
-2
-2
-2
-2
-2
-3
-3
-3
-3
-3
-3
-3
-3
-3
-3
-3
-3
-3
-3
-3
-3
-2
-2
-2
-2
-2
-2
-2
-2
-2
-2
-2
-2
-2
-2
-2
-2
-2
-2
-2
-2
-2
-1
-1
-1
-1
-1
-1
-1
-1
-2
-2
-1
-1
-1
-1
-1
-1
-1
-1
-1
-1
-1
-1
-1
-1
-2
-2
-2
-2
-2
-2
-1
-1
-1
-1
-1
-1
-1
-1
-1
-1
0
0
-1
-1
-1
-1
0
0
0
0
0
0
0
0
0
0
0
0
0
0
0
0
0
0
0
0
0
0
-1
-1
-1
0
0
0
0
0
0
0
0
0
0
0
0
0
0
0
0
-1
-1
-1
-1
-1
-1
-1
-1
-1
-1
-1
0
0
0
0
0
0
0
0
0
0
0
1
1
1
1
1
1
0
0
0
0
0
0
0
0
-1
0
0
0
0
0
0
0
0
0
0
0
0
0
0
0
0
0
0
0
-1
-1
-1
-1
-1
-1
-1
-1
0
0
0
0
0
0
0
0
0
0
1
1
2
2
1
1
1
1
1
1
1
1
1
1
1
1
1
1
1
1
1
1
1
1
1
1
1
1
1
1
1
1
1
1
1
1
1
1
1
1
1
1
1
1
1
1
1
1
2
2
2
3
3
3
3
3
4
4
3
3
3
3
3
4
4
3
3
3
3
3
3
3
3
3
3
3
3
3
3
2
2
2
2
2
2
2
2
2
2
2
2
2
2
2
2
2
2
2
2
2
2
2
2
2
2
2
2
2
2
2
2
2
2
2
2
2
2
2
2
2
2
2
2
2
2
3
3
3
3
3
3
3
2
2
2
2
2
2
2
2
2
1
2
2
2
2
1
1
1
1
0
0
-1
0
-1
-1
-2
-2
-3
-2
-3
-3
-4
-5
-5
-6
-5
-5
-6
-6
-7
-7
-7
-8
-7
-7
-8
-8
-8
-9
-9
-9
-9
-9
-9
-10
-10
-10
-10
-11
-11
-11
-12
-12
-12
-13
-14
-14
-14
-15
-15
-15
-16
-16
-16
-15
-16
-16
-16
-16
-16
-16
-16
-15
-16
-16
-16
-16
-15
-15
-15
-14
-14
-14
-14
-14
-14
-14
-13
-13
-13
-13
-13
-13
-13
-12
-12
-12
-11
-11
-11
-10
-10
-10
-9
-9
-8
-8
-7
-7
-7
-6
-7
-6
-6
-5
-5
-4
-4
-4
-3
-3
-3
-2
-2
-1
-1
-1
-1
0
0
0
-1
0
0
0
0
0
0
1
1
1
1
1
1
1
1
1
1
1
2
2
2
2
1
1
1
1
1
2
1
1
2
1
1
2
1
2
2
2
1
1
1
1
0
1
0
-1
-3
-5
-7
-9
-12
-16
-20
-24
-29
-36
-42
-49
-56
-64
-71
-80
-90
-99
-109
-119
-129
-140
-149
-157
-165
-173
-179
-185
-190
-194
-197
-199
-199
-198
-196
-193
-189
-184
-178
-172
-164
-157
-150
-141
-133
-125
-117
-109
-102
-94
-88
-81
-75
-71
-65
-60
-56
-53
-48
-45
-42
-39
-37
-35
-32
-30
-28
-26
-24
-22
-22
-20
-19
-17
-16
-15
-14
-13
-13
-12
-11
-11
-10
-10
-10
-9
-9
-9
-9
-8
-8
-8
-8
-8
-8
-8
-7
-7
-7
-7
-7
-7
-7
-7
-6
-6
-6
-6
-6
-6
-6
-5
-5
-5
-5
-5
-5
-5
-5
-5
-5
-5
-5
-5
-5
-5
-5
-5
-5
-5
-5
-5
-5
-5
-5
-6
-5
-5
-5
-5
-5
-5
-6
-6
-6
-6
-6
-6
-7
-7
-7
-8
-8
-8
-8
-8
-8
-8
-9
-9
-9
-9
-9
-9
-9
-9
-9
-9
-9
-9
-9
-9
-9
-9
-9
-10
-10
-10
-10
-10
-10
-10
-11
-11
-11
-11
-11
-11
-12
-12
-12
-12
-12
-12
-13
-13
-13
-12
-13
-13
-13
-13
-13
-14
-14
-14
-15
-15
-15
-15
-16
-16
-16
-17
-16
-17
-17
-17
-18
-18
-18
-19
-19
-19
-20
-20
-20
-21
-21
-22
-22
-23
-23
-23
-24
-24
-24
-24
-25
-25
-25
-26
-26
-27
-27
-28
-28
-28
-27
-28
-28
-28
-29
-29
-29
-29
-30
-30
-30
-31
-31
-31
-32
-32
-33
-33
-34
-33
-34
-34
-35
-36
-36
-37
-37
-38
-39
-39
-40
-40
-40
-41
-41
-42
-42
-43
-43
-44
-44
-45
-45
-46
-46
-47
-47
-48
-48
-49
-49
-50
-50
-51
-51
-52
-52
-53
-53
-54
-54
-54
-55
-55
-56
-56
-56
-57
-58
-58
-58
-59
-59
-59
-60
-60
-60
-60
-60
-61
-61
-61
-61
-62
-62
-62
-62
-63
-63
-63
-63
-63
-63
-63
-64
-64
-64
-64
-64
-64
-64
-63
-63
-63
-63
-62
-62
-61
-61
-60
-60
-59
-59
-58
-58
-57
-56
-56
-55
-53
-53
-52
-51
-50
-50
-49
-48
-47
-46
-45
-44
-43
-42
-41
-40
-39
-38
-37
-36
-35
-34
-33
-32
-31
-31
-30
-29
-28
-28
-27
-26
-25
-25
-24
-24
-23
-23
-22
-22
-21
-21
-20
-20
-20
-19
-19
-18
-18
-18
-18
-18
-18
-17
-17
-16
-16
-16
-15
-15
-14
-14
-14
-13
-14
-14
-14
-13
-13
-13
-13
-13
-13
-12
-12
-12
-12
-12
-12
-12
-11
-11
-11
-11
-11
-11
-11
-11
-11
-11
-12
-12
-12
-12
-12
-12
-12
-12
-12
-12
-12
-12
-12
-12
-12
-12
-12
-12
-12
-12
-11
-11
-11
-11
-11
-11
-11
-11
-10
-10
-10
-10
-10
-10
-10
-10
-10
-10
-10
-10
-10
-10
-10
-10
-10
-9
-10
-10
-10
-10
-10
-10
-10
-10
-10
-10
-10
-11
-11
-11
-11
-11
-11
-11
-11
-11
-11
-11
-11
-11
-11
-11
-11
-11
-11
-11
-11
-11
-11
-11
-11
-11
-11
-11
-11
-11
-11
-11
-11
-11
-11
-11
-11
-11
-11
-11
-11
-11
-11
-11
-11
-11
-12
-12
-12
-12
-12
-12
-13
-13
-13
-13
-13
-13
-13
-13
-14
-14
-14
-14
-14
-14
-14
-14
-14
-14
-14
-14
-14
-13
-13
-13
-13
-13
-13
-13
-13
-13
-13
-13
-13
-13
-13
-13
-13
-13
-13
-13
-14
-14
-14
-14
-14
-14
-13
-13
-13
-13
-13
-13
-13
-13
-14
-14
-14
-14
-14
-14
-14
-15
-15
-15
-15
-15
-15
-15
-15
-15
-15
-15
-14
-14
-14
-14
-14
-14
-14
-14
-14
-14
-14
-14
-14
-14
-14
-13
-13
-13
-13
-13
-13
-13
-13
-13
-13
-13
-13
-13
-13
-13
-13
-13
-13
-13
-13
-13
-12
-12
-12
-12
-12
-12
-12
-12
-12
-12
-12
-12
-12
-12
-12
-12
-12
-12
-12
-12
-11
-11
-11
-11
-11
-11
-11
-11
-11
-11
-11
-11
-11
-11
-11
-11
-11
-11
-11
-11
-11
-11
-10
-10
-10
-10
-10
-10
-10
-9
-9
-9
-9
-9
-10
-10
-10
-9
-9
-9
-9
-9
-9
-9
-9
-9
-9
-9
-9
-10
-10
-10
-10
-10
-10
-10
-10
-10
-11
-11
-11
-11
-11
-10
-10
-10
-10
-10
-10
-10
-11
-11
-11
-11
-11
-10
-10
-10
-10
-10
-10
-9
-9
-9
-9
-9
-9
-9
-9
-9
-9
-9
-9
-9
-9
-9
-9
-9
-9
-9
-9
-9
-10
-10
-10
-10
-10
-10
-10
-10
-10
-10
-10
-10
-9
-9
-9
-9
-9
-9
-9
-9
-9
-9
-9
-9
-9
-9
-9
-8
-8
-8
-8
-8
-8
-8
-8
-8
-8
-8
-8
-8
-8
-8
-8
-8
-8
-8
-8
-8
-8
-8
-8
-8
-8
-8
-8
-8
-9
-9
-9
-9
-9
-9
-9
-9
-9
-9
-9
-9
-9
-9
-9
-9
-9
-9
-9
-9
-9
-9
-9
-9
-9
-9
-9
-9
-9
-9
-9
-9
-9
-9
-9
-9
-8
-8
-8
-8
-8
-8
-9
-9
-8
-8
-8
-8
-8
-8
-8
-8
-8
-8
-8
-8
-8
-8
-8
-9
-9
-9
-9
-9
-9
-9
-9
-9
-9
-9
-9
-9
-9
-9
-9
-8
-8
-8
-8
-8
-8
-8
-8
-8
-8
-9
-9
-9
-8
-8
-8
-8
-8
-8
-8
-8
-8
-8
-9
-9
-9
-9
-9
-9
-9
-9
-9
-9
-10
-10
-10
-10
-10
-10
-10
-11
-11
-10
-11
-11
-11
-12
-12
-12
-12
-12
-13
-13
-14
-14
-15
-14
-15
-15
-15
-16
-16
-17
-17
-18
-18
-18
-18
-18
-19
-19
-19
-19
-20
-20
-20
-20
-21
-21
-21
-21
-21
-21
-21
-22
-23
-23
-23
-23
-25
-25
-25
-25
-27
-27
-27
-27
-28
-28
-28
-28
-28
-28
-29
-29
-28
-28
-28
-27
-27
-26
-26
-26
-26
-26
-25
-25
-25
-24
-24
-24
-24
-24
-24
-23
-23
-23
-23
-22
-22
-22
-21
-21
-20
-20
-19
-20
-19
-19
-19
-18
-18
-17
-17
-16
-16
-16
-15
-15
-14
-14
-13
-13
-13
-12
-12
-12
-12
-12
-12
-11
-11
-11
-11
-11
-11
-11
-11
-12
-12
-12
-12
-12
-12
-12
-13
-13
-13
-13
-12
-12
-13
-13
-13
-13
-13
-14
-14
-13
-14
-14
-14
-14
-14
-13
-13
-13
-13
-14
-14
-13
-13
-14
-15
-15
-16
-17
-18
-20
-22
-25
-28
-32
-36
-41
-46
-51
-57
-63
-71
-78
-86
-95
-104
-113
-123
-133
-143
-152
-162
-171
-179
-187
-193
-199
-203
-207
-210
-211
-212
-211
-209
-206
-202
-198
-192
-185
-177
-170
-162
-153
-146
-137
-128
-121
-114
-106
-99
-93
-87
-83
-77
-73
-69
-65
-62
-59
-55
-53
-51
-48
-46
-45
-42
-41
-39
-38
-36
-34
-33
-31
-31
-30
-29
-28
-27
-26
-26
-25
-25
-23
-23
-23
-23
-23
-22
-22
-22
-22
-22
-21
-21
-21
-21
-21
-20
-20
-20
-20
-20
-19
-19
-19
-19
-19
-19
-19
-19
-19
-19
-19
-19
-19
-19
-19
-19
-19
-20
-20
-20
-20
-20
-20
-20
-20
-20
-21
-21
-21
-21
-21
-21
-20
-20
-20
-20
-20
-20
-20
-20
-21
-21
-20
-20
-20
-20
-21
-21
-21
-21
-21
-22
-22
-22
-21
-21
-21
-22
-22
-22
-22
-22
-22
-22
-22
-22
-22
-22
-22
-21
-21
-21
-22
-22
-22
-23
-23
-23
-23
-23
-23
-23
-23
-23
-23
-23
-24
-24
-24
-24
-24
-24
-25
-25
-25
-25
-25
-25
-26
-26
-26
-26
-26
-27
-26
-26
-26
-27
-27
-27
-28
-28
-29
-29
-29
-29
-29
-29
-30
-30
-31
-31
-31
-32
-32
-32
-32
-32
-32
-33
-33
-33
-34
-34
-34
-35
-34
-35
-35
-35
-36
-36
-37
-37
-38
-38
-38
-38
-38
-39
-39
-40
-40
-41
-41
-41
-42
-42
-42
-42
-43
-42
-42
-42
-42
-44
-44
-44
-45
-45
-45
-46
-46
-46
-47
-47
-48
-49
-49
-49
-49
-50
-50
-51
-52
-52
-54
-54
-55
-55
-55
-56
-56
-57
-57
-57
-57
-59
-59
-59
-59
-60
-60
-60
-61
-61
-61
-62
-63
-63
-63
-64
-64
-64
-65
-65
-64
-65
-65
-65
-65
-66
-66
-66
-66
-67
-67
-67
-67
-67
-68
-68
-68
-68
-68
-68
-69
-69
-69
-69
-69
-69
-69
-69
-68
-68
-68
-68
-67
-67
-67
-67
-66
-66
-65
-65
-64
-63
-63
-62
-62
-61
-61
-59
-59
-58
-58
-56
-56
-55
-54
-53
-52
-51
-51
-50
-48
-48
-47
-46
-45
-45
-43
-42
-41
-40
-39
-39
-38
-37
-36
-35
-34
-34
-33
-31
-31
-30
-29
-29
-28
-28
-27
-27
-26
-26
-25
-25
-24
-24
-23
-23
-23
-22
-22
-21
-21
-21
-20
-20
-19
-19
-19
-18
-18
-18
-17
-17
-17
-17
-17
-16
-16
-16
-16
-16
-16
-16
-16
-16
-16
-16
-15
-15
-15
-15
-15
-16
-15
-15
-15
-15
-15
-14
-14
-14
-14
-15
-14
-14
-14
-14
-14
-14
-13
-13
-13
-13
-13
-14
-14
-14
-14
-14
-14
-14
-14
-13
-13
-14
-14
-14
-14
-14
-14
-14
-14
-15
-15
-15
-15
-15
-15
-15
-15
-14
-13
-13
-13
-13
-13
-13
-13
-12
-12
-12
-12
-12
-12
-12
-12
-13
-12
-12
-12
-12
-12
-12
-12
-12
-13
-13
-13
-13
-13
-13
-13
-13
-13
-13
-13
-13
-13
-13
-13
-13
-13
-13
-13
-13
-14
-14
-14
-13
-13
-13
-13
-13
-13
-14
-14
-14
-14
-14
-14
-14
-14
-14
-14
-14
-14
-14
-14
-14
-14
-14
-14
-14
-14
-14
-14
-14
-14
-14
-14
-15
-15
-15
-15
-15
-15
-15
-15
-15
-15
-15
-14
-14
-14
-14
-14
-14
-14
-14
-15
-15
-15
-14
-14
-14
-14
-14
-14
-14
-14
-14
-14
-14
-14
-14
-14
-14
-14
-15
-15
-15
-15
-14
-14
-14
-14
-14
-14
-14
-14
-14
-14
-14
-14
-14
-14
-15
-15
-15
-15
-15
-15
-14
-14
-14
-14
-14
-14
-14
-14
-14
-13
-13
-13
-13
-13
-13
-13
-13
-13
-13
-13
-13
-13
-13
-13
-13
-13
-13
-13
-13
-14
-14
-14
-14
-14
-13
-13
-13
-13
-13
-13
-13
-13
-13
-13
-13
-13
-13
-13
-13
-13
-13
-13
-13
-13
-13
-13
-13
-13
-13
-13
-13
-13
-13
-13
-13
-13
-12
-11
-11
-11
-11
-11
-11
-11
-11
-11
-12
-12
-12
-12
-12
-12
-12
-12
-12
-12
-12
-12
-12
-12
-12
-12
-12
-12
-12
-12
-12
-12
-12
-12
-12
-12
-12
-12
-12
-12
-12
-11
-11
-11
-11
-11
-11
-10
-10
-10
-10
-10
-9
-9
-9
-9
-10
-10
-10
-10
-10
-10
-10
-10
-10
-10
-10
-10
-10
-10
-10
-10
-10
-10
-11
-11
-11
-11
-11
-10
-10
-10
-10
-10
-11
-11
-11
-10
-10
-10
-10
-10
-9
-9
-9
-9
-9
-9
-9
-9
-9
-9
-9
-9
-9
-9
-9
-9
-9
-10
-10
-10
-10
-10
-10
-10
-10
-10
-10
-9
-9
-9
-9
-9
-9
-9
-9
-9
-8
-8
-8
-8
-9
-9
-8
-8
-8
-8
-8
-8
-8
-8
-8
-8
-8
-8
-8
-8
-8
-8
-8
-8
-8
-8
-8
-8
-8
-8
-7
-7
-7
-7
-7
-8
-8
-8
-8
-8
-8
-9
-9
-9
-9
-9
-9
-9
-9
-8
-8
-8
-8
-8
-8
-8
-8
-8
-8
-8
-7
-7
-7
-7
-7
-7
-7
-7
-7
-7
-7
-7
-7
-7
-7
-7
-7
-7
-7
-7
-7
-7
-8
-8
-8
-8
-8
-8
-8
-8
-9
-9
-9
-9
-9
-10
-10
-10
-10
-10
-10
-11
-11
-11
-11
-11
-11
-12
-12
-13
-12
-13
-13
-14
-14
-14
-14
-15
-15
-16
-15
-16
-17
-17
-18
-17
-18
-18
-18
-19
-19
-18
-19
-19
-20
-20
-20
-21
-21
-21
-21
-22
-23
-23
-23
-24
-24
-24
-25
-24
-24
-25
-25
-25
-25
-24
-24
-25
-24
-24
-23
-23
-22
-22
-22
-22
-21
-21
-21
-21
-21
-20
-19
-19
-19
-19
-18
-18
-18
-18
-18
-17
-17
-17
-16
-16
-16
-15
-15
-14
-14
-13
-13
-12
-11
-11
-11
-11
-10
-9
-9
-8
-8
-7
-7
-6
-5
-5
-5
-4
-4
-3
-3
-3
-3
-2
-2
-1
-2
-2
-2
-2
-2
-2
-2
-2
-2
-3
-3
-3
-3
-4
-3
-3
-3
-4
-4
-4
-4
-5
-5
-4
-4
-4
-5
-5
-4
-5
-5
-4
-5
-4
-5
-4
-4
-4
-5
-5
-5
-5
-6
-6
-7
-9
-10
-12
-14
-17
-20
-23
-28
-32
-38
-44
-50
-57
-64
-72
-81
-90
-99
-109
-119
-129
-139
-148
-157
-166
-174
-181
-187
-193
-196
-200
-201
-202
-201
-199
-197
-193
-189
-183
-177
-170
-162
-154
-145
-137
-128
-120
-112
-104
-97
-90
-83
-78
-72
-67
-63
-58
-54
-51
-48
-44
-42
-39
-37
-35
-32
-31
-30
-28
-27
-26
-24
-23
-23
-21
-20
-20
-19
-18
-18
-18
-17
-17
-16
-15
-15
-15
-15
-14
-14
-14
-13
-13
-12
-12
-13
-12
-12
-12
-11
-11
-11
-10
-10
-10
-10
-10
-9
-9
-9
-9
-9
-9
-9
-9
-9
-9
-9
-9
-9
-10
-10
-10
-10
-10
-10
-10
-10
-10
-10
-10
-10
-10
-11
-11
-11
-11
-11
-11
-11
-11
-11
-11
-11
-11
-11
-11
-11
-11
-11
-11
-11
-11
-12
-12
-12
-12
-12
-12
-12
-12
-12
-12
-12
-12
-12
-12
-13
-13
-14
-14
-14
-14
-14
-14
-14
-14
-14
-14
-14
-15
-15
-15
-14
-14
-15
-15
-15
-15
-15
-15
-16
-16
-16
-16
-16
-17
-17
-17
-17
-17
-17
-18
-18
-18
-18
-18
-19
-19
-19
-19
-19
-20
-20
-20
-20
-21
-21
-21
-22
-22
-21
-22
-22
-22
-23
-23
-24
-24
-24
-24
-25
-25
-25
-25
-25
-26
-26
-26
-26
-26
-26
-26
-26
-27
-27
-27
-27
-28
-28
-28
-29
-29
-29
-30
-30
-30
-30
-31
-31
-31
-32
-31
-32
-32
-32
-33
-33
-33
-34
-34
-35
-35
-35
-36
-36
-37
-37
-38
-38
-39
-39
-40
-40
-40
-41
-41
-42
-42
-43
-43
-44
-44
-44
-45
-45
-46
-46
-46
-47
-47
-47
-48
-48
-48
-49
-49
-49
-50
-50
-50
-51
-51
-51
-51
-52
-53
-53
-54
-54
-54
-54
-54
-54
-55
-55
-55
-55
-55
-55
-55
-55
-56
-56
-56
-56
-55
-55
-55
-56
-56
-56
-56
-56
-56
-56
-56
-55
-55
-55
-55
-55
-54
-54
-54
-54
-54
-53
-53
-53
-51
-51
-50
-50
-49
-49
-47
-46
-46
-45
-44
-44
-42
-41
-41
-40
-39
-38
-38
-37
-36
-35
-35
-33
-32
-31
-31
-30
-29
-29
-28
-27
-27
-26
-25
-25
-24
-24
-23
-23
-22
-22
-21
-21
-20
-20
-19
-19
-18
-18
-17
-17
-16
-16
-15
-15
-15
-14
-14
-13
-13
-12
-12
-12
-11
-11
-11
-10
-10
-11
-10
-10
-10
-9
-9
-9
-9
-9
-9
-8
-8
-8
-8
-8
-8
-8
-8
-8
-8
-8
-8
-8
-8
-8
-8
-8
-8
-8
-8
-8
-8
-8
-8
-8
-8
-8
-8
-8
-8
-8
-8
-8
-8
-8
-8
-8
-7
-7
-7
-7
-7
-7
-7
-7
-7
-6
-7
-7
-7
-7
-7
-7
-7
-7
-7
-7
-7
-7
-7
-7
-7
-7
-7
-7
-7
-7
-7
-7
-7
-7
-7
-7
-7
-8
-8
-8
-8
-8
-8
-8
-8
-8
-8
-8
-8
-8
-8
-9
-9
-9
-9
-9
-9
-9
-9
-9
-9
-9
-9
-9
-9
-9
-9
-9
-9
-9
-9
-9
-9
-9
-9
-9
-9
-9
-9
-9
-9
-9
-9
-9
-9
-9
-9
-9
-9
-9
-9
-9
-9
-10
-10
-10
-10
-10
-10
-11
-11
-11
-11
-11
-12
-12
-12
-12
-12
-12
-12
-12
-12
-12
-12
-11
-11
-11
-11
-11
-11
-11
-11
-11
-11
-10
-10
-10
-10
-10
-10
-10
-10
-10
-10
-10
-10
-10
-10
-10
-10
-9
-9
-9
-9
-9
-9
-9
-9
-9
-9
-9
-9
-9
-9
-8
-8
-8
-8
-8
-8
-8
-8
-8
-8
-8
-7
-7
-7
-7
-7
-7
-7
-7
-7
-7
-7
-7
-7
-7
-7
-7
-7
-7
-7
-7
-7
-7
-7
-7
-6
-6
-6
-6
-6
-6
-6
-5
-5
-5
-5
-5
-5
-5
-4
-4
-4
-4
-4
-4
-4
-4
-4
-4
-4
-3
-3
-3
-3
-2
-2
-2
-2
-2
-2
-2
-2
-2
-2
-2
-2
-2
-2
-2
-2
-2
-2
-2
-3
-3
-3
-3
-3
-3
-3
-3
-2
-2
-2
-2
-2
-2
-2
-2
-2
-2
-2
-2
-2
-2
-2
-2
-2
-2
-2
-2
-2
-2
-1
-1
-1
-1
-1
-1
-1
-2
-2
-2
-1
-1
0
0
0
0
-1
-1
-1
-1
-1
-1
-1
-1
-1
-1
-1
-1
-1
-1
-1
-1
-1
-1
-1
-2
-2
-1
-1
-1
-1
-1
-1
0
0
0
0
0
0
0
0
0
0
0
1
1
1
1
1
0
0
0
0
0
0
0
0
0
0
0
0
1
0
0
0
-1
-1
-1
0
0
0
0
0
-1
-1
-1
0
0
0
-1
-1
0
0
1
1
1
1
1
1
1
1
1
1
1
1
1
1
2
1
1
1
1
1
1
1
1
1
1
1
1
1
1
2
2
2
2
2
2
2
2
2
2
2
2
2
2
2
2
2
2
2
2
2
2
2
2
2
2
2
2
2
2
2
2
2
3
3
3
3
3
2
2
2
3
3
3
3
3
3
3
3
3
3
3
3
3
3
3
3
3
3
3
3
2
2
3
3
2
2
1
1
1
0
0
0
0
-1
-1
-2
-1
-2
-2
-3
-3
-3
-3
-3
-3
-4
-4
-5
-5
-5
-5
-5
-6
-6
-7
-7
-7
-7
-8
-8
-8
-9
-9
-9
-10
-10
-10
-10
-10
-10
-11
-11
-12
-12
-11
-12
-12
-12
-13
-13
-12
-13
-13
-12
-13
-12
-12
-12
-12
-12
-12
-11
-11
-10
-10
-10
-9
-9
-9
-9
-8
-8
-8
-8
-7
-7
-7
-7
-7
-6
-6
-6
-6
-6
-5
-5
-5
-4
-4
-4
-3
-3
-2
-2
-1
-1
0
0
1
1
2
2
2
3
3
4
4
5
5
6
6
6
7
7
8
7
7
8
8
8
8
9
9
9
9
9
9
9
9
9
9
9
9
9
9
9
9
9
9
9
9
9
9
9
8
9
9
9
10
9
10
11
10
11
11
11
11
11
11
11
10
9
9
7
6
4
1
-1
-5
-8
-12
-17
-24
-29
-36
-43
-51
-59
-67
-76
-86
-96
-106
-116
-126
-135
-145
-153
-161
-168
-174
-180
-184
-187
-188
-189
-189
-187
-185
-181
-177
-172
-165
-158
-151
-143
-136
-127
-119
-111
-102
-95
-88
-81
-74
-68
-63
-58
-53
-48
-45
-41
-37
-34
-31
-28
-25
-23
-20
-18
-16
-15
-12
-11
-10
-8
-6
-5
-4
-2
-1
-1
0
1
1
2
3
3
3
4
4
5
5
5
5
6
6
6
6
7
7
7
7
7
7
7
8
8
8
8
8
8
8
8
8
8
8
8
8
8
8
8
8
8
8
9
9
9
9
9
9
9
9
9
9
9
8
8
8
8
8
8
8
8
8
8
8
8
7
7
7
7
7
7
7
7
7
7
7
7
7
7
7
7
7
7
7
6
6
6
6
6
6
6
6
6
6
6
6
6
6
6
6
6
5
5
5
5
5
5
5
4
4
4
4
4
4
3
3
3
3
3
2
2
2
2
2
1
1
1
0
0
0
0
-1
-1
-1
-1
-2
-2
-2
-2
-3
-3
-3
-3
-4
-4
-4
-4
-4
-4
-5
-4
-4
-4
-5
-5
-5
-6
-6
-6
-6
-7
-7
-6
-7
-7
-7
-7
-8
-8
-8
-9
-9
-9
-10
-10
-10
-10
-11
-10
-10
-11
-11
-12
-12
-12
-13
-13
-14
-14
-15
-15
-16
-16
-17
-17
-18
-18
-19
-20
-20
-21
-21
-22
-23
-23
-24
-24
-25
-24
-25
-25
-26
-26
-27
-27
-28
-28
-29
-29
-30
-30
-30
-31
-31
-31
-32
-32
-32
-32
-33
-33
-33
-34
-34
-34
-34
-35
-35
-35
-36
-36
-36
-37
-37
-37
-37
-38
-38
-38
-38
-38
-39
-39
-39
-39
-39
-39
-39
-39
-39
-39
-39
-39
-39
-39
-39
-39
-39
-39
-39
-38
-38
-38
-37
-37
-36
-36
-35
-34
-34
-33
-32
-32
-31
-30
-29
-29
-28
-27
-26
-25
-24
-24
-23
-22
-21
-20
-19
-18
-18
-17
-16
-15
-14
-13
-13
-12
-11
-10
-10
-9
-8
-7
-7
-6
-5
-5
-5
-4
-3
-3
-2
-1
-1
0
0
1
2
2
3
4
4
5
5
5
6
5
6
6
6
7
7
8
8
8
9
9
9
9
10
10
10
10
11
11
11
10
10
10
11
11
11
11
11
11
11
11
11
11
11
11
11
12
12
12
13
13
13
13
13
13
13
14
13
13
13
13
13
13
14
14
14
14
14
14
14
14
14
14
14
14
14
14
14
14
14
14
14
14
14
14
14
14
14
14
14
14
14
14
14
14
15
15
15
15
15
15
15
15
16
16
16
16
16
16
16
16
16
16
16
16
16
16
16
16
15
15
15
15
15
15
15
14
14
14
14
13
13
13
13
13
12
12
12
12
12
12
12
13
13
13
13
13
13
13
13
13
13
13
13
13
13
13
13
13
13
12
12
12
11
11
11
11
11
11
11
11
11
11
11
11
11
11
11
11
11
12
12
12
12
12
12
12
12
12
12
12
12
12
12
12
12
12
12
12
12
12
12
12
12
12
12
12
12
12
12
12
12
12
12
12
12
12
12
12
11
11
11
11
11
11
12
12
12
12
12
12
12
12
12
12
12
12
12
12
12
12
12
12
12
12
12
13
13
13
13
13
13
13
13
13
13
13
13
13
13
13
13
13
13
13
13
13
13
13
13
13
13
13
13
13
13
13
13
13
13
13
13
13
13
13
13
13
13
13
13
13
13
13
13
13
14
14
14
14
14
14
15
15
15
15
14
14
15
15
15
15
15
15
15
15
15
15
15
15
15
15
15
15
15
15
15
16
16
16
16
16
16
16
16
16
16
16
16
16
16
16
16
16
16
16
16
16
16
16
16
16
16
16
16
16
15
15
15
15
15
15
16
16
16
16
16
16
16
16
17
17
17
17
17
17
17
17
17
18
18
18
18
18
18
18
18
18
17
17
17
17
16
16
16
16
16
16
16
16
16
16
16
16
15
15
15
15
15
14
14
14
14
14
14
14
14
14
14
14
14
14
14
14
14
14
14
14
14
14
14
14
14
14
14
14
14
14
14
14
14
14
14
14
14
14
14
14
14
14
14
13
13
13
13
13
13
13
13
13
13
13
13
13
13
13
13
13
13
13
13
13
13
13
13
13
13
13
13
13
13
13
13
13
13
13
13
13
14
14
14
14
13
13
13
13
13
13
13
13
13
13
13
13
13
13
13
12
12
12
12
12
12
12
12
12
12
12
12
12
12
12
12
12
12
12
12
11
11
11
11
11
10
10
9
9
9
8
8
7
7
6
6
6
6
5
5
5
4
4
4
3
4
4
4
3
3
3
3
2
2
2
2
1
2
2
2
1
1
1
1
1
-1
-1
-1
-1
-1
-2
-2
-2
-2
-3
-3
-2
-3
-3
-4
-4
-4
-3
-4
-4
-4
-4
-3
-3
-3
-2
-2
-2
-2
-1
-1
-1
0
0
0
2
2
2
2
2
3
3
3
3
4
4
5
5
5
6
6
7
7
8
8
8
8
9
9
10
10
11
12
12
13
13
14
14
15
15
16
16
16
17
17
17
17
17
17
17
17
17
17
17
17
17
17
17
17
16
16
16
16
16
16
16
16
16
17
17
18
18
18
18
17
17
17
18
18
18
18
18
19
18
19
19
19
20
20
19
19
19
18
18
17
15
14
11
8
4
1
-3
-8
-13
-19
-25
-32
-40
-48
-57
-65
-74
-84
-94
-105
-114
-124
-132
-140
-149
-156
-162
-167
-172
-174
-177
-178
-177
-176
-174
-170
-166
-160
-154
-148
-141
-132
-125
-117
-109
-101
-93
-85
-78
-72
-65
-59
-54
-48
-43
-40
-36
-31
-28
-25
-22
-19
-17
-15
-12
-9
-8
-6
-4
-3
-1
1
3
3
4
5
6
7
8
9
9
10
10
11
11
12
13
13
13
13
13
13
13
13
13
13
14
14
14
14
14
14
15
15
15
15
15
15
15
15
15
15
16
16
16
16
16
16
16
16
16
16
16
16
16
16
15
15
15
15
15
15
15
15
15
15
15
15
15
15
15
15
15
15
15
15
15
15
15
15
15
15
15
14
14
14
14
14
14
14
14
13
13
13
13
13
13
13
13
13
13
13
12
11
11
11
11
11
11
11
11
11
10
10
10
10
9
9
10
10
9
9
9
8
8
7
7
7
6
6
5
5
4
4
3
3
2
2
1
1
0
0
0
0
-1
-1
-2
-2
-2
-3
-3
-3
-3
-3
-4
-4
-4
-4
-5
-5
-5
-6
-6
-6
-7
-7
-8
-8
-8
-9
-9
-9
-10
-10
-11
-11
-11
-12
-12
-13
-13
-13
-14
-13
-13
-14
-14
-14
-15
-15
-16
-16
-17
-17
-18
-18
-19
-20
-20
-20
-21
-22
-22
-23
-24
-25
-25
-26
-27
-27
-28
-28
-28
-29
-29
-30
-30
-30
-31
-31
-31
-32
-32
-33
-33
-33
-34
-34
-34
-35
-36
-37
-37
-38
-38
-39
-39
-39
-40
-40
-41
-41
-41
-42
-42
-42
-43
-43
-43
-43
-43
-44
-44
-44
-44
-44
-45
-45
-45
-45
-45
-46
-46
-46
-46
-46
-47
-47
-47
-47
-47
-47
-47
-47
-47
-47
-47
-47
-47
-47
-47
-47
-47
-46
-46
-46
-45
-45
-44
-43
-43
-42
-41
-40
-40
-39
-38
-38
-37
-36
-35
-34
-34
-32
-31
-30
-29
-29
-28
-27
-26
-25
-24
-23
-22
-21
-20
-20
-20
-19
-18
-17
-16
-15
-14
-13
-12
-12
-11
-10
-9
-9
-8
-7
-7
-6
-6
-5
-5
-4
-4
-3
-4
-3
-3
-3
-2
-2
-1
-1
-1
0
0
0
1
1
2
2
2
2
3
2
2
2
3
3
3
3
3
3
3
3
4
4
4
4
4
4
4
4
3
3
3
3
4
4
4
4
4
4
4
4
4
4
4
4
4
4
4
4
4
4
4
4
4
4
4
4
4
4
4
4
4
4
4
4
4
4
4
4
4
4
4
4
4
4
4
4
4
4
4
4
4
4
4
4
4
4
4
4
4
4
4
4
4
4
