# Simple Text Format
# Sampling Rate (Hz):= 1200.00
# Resolution:= 12
# Labels:= ECG	 V6
# Age:=	60
# Gender:=	Masculino
-50
-51
-52
-53
-53
-54
-54
-56
-56
-57
-57
-58
-58
-59
-59
-60
-60
-61
-61
-61
-61
-62
-63
-63
-63
-64
-65
-65
-65
-65
-66
-66
-67
-67
-68
-68
-68
-68
-69
-70
-69
-69
-69
-70
-70
-71
-71
-71
-71
-71
-71
-72
-72
-72
-72
-72
-72
-72
-72
-72
-72
-72
-72
-72
-72
-72
-72
-72
-73
-72
-72
-72
-72
-72
-72
-72
-72
-72
-72
-72
-73
-73
-73
-73
-73
-73
-73
-73
-74
-74
-74
-74
-74
-74
-74
-74
-74
-74
-74
-74
-74
-74
-74
-73
-73
-73
-73
-73
-73
-73
-73
-73
-73
-72
-72
-72
-72
-72
-72
-72
-72
-72
-72
-72
-72
-72
-72
-72
-72
-72
-72
-72
-73
-73
-73
-72
-72
-72
-72
-72
-72
-72
-72
-72
-72
-72
-72
-72
-72
-72
-72
-72
-72
-72
-72
-72
-72
-72
-71
-72
-72
-72
-72
-72
-72
-72
-72
-72
-73
-73
-73
-73
-73
-73
-73
-73
-73
-73
-73
-73
-73
-73
-73
-73
-73
-73
-72
-71
-71
-71
-71
-71
-72
-72
-72
-72
-72
-72
-72
-72
-72
-72
-72
-72
-72
-72
-72
-72
-72
-72
-72
-72
-72
-72
-72
-72
-72
-72
-73
-73
-73
-73
-73
-73
-73
-73
-73
-72
-72
-72
-72
-73
-73
-73
-73
-72
-72
-73
-73
-73
-73
-73
-74
-74
-74
-74
-74
-74
-74
-74
-74
-74
-74
-73
-73
-73
-73
-73
-74
-74
-74
-74
-74
-74
-74
-74
-74
-74
-74
-74
-75
-75
-75
-75
-76
-75
-75
-76
-76
-77
-77
-77
-78
-78
-78
-78
-78
-78
-78
-78
-78
-78
-78
-78
-78
-78
-78
-77
-77
-77
-77
-77
-77
-77
-77
-76
-76
-76
-76
-76
-77
-77
-77
-77
-78
-78
-78
-78
-78
-78
-78
-79
-79
-78
-78
-78
-78
-78
-78
-78
-78
-78
-78
-79
-80
-80
-80
-80
-79
-79
-79
-79
-79
-79
-79
-79
-79
-79
-79
-79
-79
-79
-79
-79
-79
-79
-79
-79
-79
-79
-79
-79
-79
-79
-79
-79
-79
-79
-79
-79
-79
-79
-79
-79
-80
-80
-80
-80
-80
-80
-80
-81
-80
-80
-80
-81
-81
-81
-81
-81
-81
-81
-81
-81
-81
-81
-81
-81
-81
-81
-81
-80
-80
-80
-80
-80
-80
-81
-81
-81
-81
-81
-81
-81
-81
-81
-81
-81
-81
-81
-81
-82
-82
-82
-82
-82
-82
-82
-82
-82
-82
-83
-83
-83
-83
-83
-83
-83
-83
-83
-83
-83
-84
-84
-84
-84
-84
-84
-84
-84
-84
-84
-84
-83
-83
-83
-83
-84
-84
-84
-84
-84
-84
-84
-84
-84
-84
-84
-85
-85
-85
-85
-85
-85
-85
-85
-85
-85
-85
-85
-85
-85
-85
-85
-85
-84
-84
-85
-85
-85
-85
-85
-84
-84
-85
-86
-86
-86
-86
-86
-86
-86
-85
-85
-85
-85
-85
-85
-85
-86
-86
-86
-86
-86
-86
-86
-86
-86
-86
-86
-86
-86
-86
-85
-85
-85
-85
-85
-85
-85
-85
-85
-85
-85
-85
-85
-85
-85
-85
-85
-85
-85
-85
-85
-85
-85
-85
-85
-85
-85
-85
-85
-85
-85
-85
-86
-85
-85
-85
-85
-85
-84
-84
-85
-85
-84
-84
-84
-85
-85
-84
-84
-84
-85
-85
-84
-84
-84
-84
-84
-84
-84
-84
-84
-84
-83
-83
-83
-83
-83
-83
-82
-82
-81
-81
-81
-81
-81
-81
-80
-79
-79
-79
-79
-78
-77
-77
-76
-76
-76
-75
-75
-74
-74
-74
-73
-73
-73
-73
-73
-72
-72
-73
-73
-73
-73
-73
-73
-73
-73
-73
-73
-74
-74
-74
-75
-75
-75
-76
-76
-76
-76
-76
-77
-77
-77
-77
-77
-78
-78
-79
-79
-79
-79
-80
-80
-80
-80
-82
-82
-82
-82
-82
-83
-84
-84
-84
-85
-85
-85
-87
-87
-88
-88
-88
-89
-89
-89
-89
-90
-91
-91
-91
-91
-91
-91
-91
-91
-92
-92
-92
-92
-92
-92
-92
-91
-91
-91
-91
-90
-90
-90
-90
-90
-90
-90
-89
-89
-90
-89
-90
-91
-91
-92
-92
-94
-93
-95
-95
-96
-97
-98
-97
-98
-97
-97
-95
-94
-91
-88
-84
-79
-73
-67
-60
-53
-44
-34
-24
-12
-1
12
26
39
53
66
80
93
105
117
126
135
142
148
153
156
158
158
155
152
148
143
136
128
120
110
99
88
77
65
55
44
33
24
14
6
-1
-9
-16
-22
-28
-33
-37
-42
-45
-50
-53
-55
-58
-59
-62
-63
-66
-67
-69
-70
-72
-73
-74
-75
-76
-77
-78
-79
-80
-81
-81
-82
-82
-84
-84
-85
-86
-86
-87
-87
-87
-88
-88
-88
-89
-89
-89
-90
-90
-90
-90
-90
-90
-89
-90
-90
-90
-90
-90
-90
-91
-90
-90
-90
-90
-90
-90
-90
-90
-90
-90
-90
-89
-89
-89
-89
-89
-90
-89
-89
-89
-89
-89
-89
-89
-89
-89
-89
-89
-89
-89
-89
-89
-89
-89
-89
-89
-89
-88
-88
-88
-89
-89
-89
-89
-89
-88
-88
-88
-88
-89
-89
-88
-89
-88
-88
-88
-88
-87
-87
-87
-87
-86
-86
-86
-86
-85
-85
-85
-85
-85
-84
-84
-84
-84
-84
-84
-84
-84
-83
-83
-83
-83
-83
-83
-83
-83
-83
-83
-83
-83
-83
-82
-82
-82
-82
-82
-83
-82
-82
-82
-82
-82
-82
-81
-81
-81
-80
-80
-80
-80
-80
-80
-80
-80
-80
-79
-79
-79
-79
-79
-79
-79
-77
-77
-77
-77
-77
-77
-77
-76
-76
-76
-76
-76
-76
-76
-75
-75
-74
-74
-74
-74
-74
-73
-73
-73
-73
-73
-73
-72
-72
-72
-72
-70
-70
-70
-69
-68
-68
-68
-67
-67
-67
-67
-65
-65
-65
-65
-64
-63
-63
-63
-63
-62
-62
-61
-61
-61
-61
-60
-60
-60
-59
-59
-59
-58
-58
-57
-58
-56
-56
-56
-55
-55
-55
-54
-53
-53
-52
-52
-51
-50
-50
-50
-49
-48
-48
-47
-47
-46
-46
-45
-45
-44
-44
-44
-43
-42
-42
-42
-42
-42
-41
-41
-41
-41
-41
-41
-41
-41
-41
-41
-42
-42
-42
-42
-41
-42
-42
-42
-43
-43
-43
-44
-44
-45
-45
-45
-45
-46
-46
-46
-47
-47
-48
-49
-49
-50
-50
-51
-53
-52
-54
-55
-56
-56
-57
-58
-59
-59
-60
-61
-61
-62
-63
-63
-65
-66
-66
-67
-67
-68
-69
-69
-70
-70
-72
-72
-72
-73
-73
-74
-74
-75
-76
-76
-76
-77
-77
-77
-78
-79
-79
-79
-79
-80
-80
-80
-81
-81
-81
-82
-82
-82
-82
-82
-83
-83
-83
-83
-83
-83
-83
-83
-83
-83
-83
-82
-83
-83
-83
-83
-83
-83
-83
-83
-83
-83
-83
-83
-83
-83
-83
-83
-83
-84
-84
-84
-84
-83
-83
-83
-83
-83
-83
-84
-84
-84
-84
-84
-85
-84
-84
-84
-85
-85
-85
-85
-84
-84
-84
-84
-84
-84
-84
-84
-84
-84
-83
-83
-83
-83
-83
-83
-83
-83
-83
-82
-82
-83
-83
-83
-82
-83
-83
-83
-83
-84
-83
-83
-83
-83
-83
-83
-83
-83
-83
-83
-81
-81
-81
-82
-82
-82
-82
-82
-82
-81
-81
-81
-81
-81
-81
-81
-80
-80
-80
-80
-80
-80
-80
-80
-80
-80
-80
-80
-80
-80
-81
-81
-81
-81
-81
-81
-81
-81
-81
-81
-81
-81
-80
-80
-80
-80
-80
-79
-79
-79
-79
-79
-79
-79
-79
-79
-78
-79
-79
-79
-79
-79
-79
-79
-79
-79
-79
-79
-79
-79
-79
-79
-79
-79
-79
-79
-79
-79
-78
-78
-78
-78
-78
-78
-78
-77
-77
-77
-78
-78
-78
-76
-76
-76
-76
-76
-76
-76
-76
-76
-76
-76
-76
-76
-76
-76
-77
-77
-77
-77
-77
-77
-77
-77
-77
-77
-77
-78
-77
-77
-77
-77
-77
-77
-77
-77
-77
-77
-77
-77
-77
-77
-77
-77
-78
-78
-79
-79
-79
-79
-79
-79
-80
-80
-80
-80
-80
-80
-80
-80
-80
-80
-80
-80
-80
-81
-81
-82
-82
-82
-82
-82
-82
-82
-82
-83
-83
-83
-83
-83
-83
-84
-85
-85
-85
-84
-84
-85
-85
-85
-85
-85
-86
-86
-86
-86
-87
-87
-87
-87
-87
-88
-88
-88
-88
-88
-88
-88
-88
-88
-88
-88
-89
-89
-89
-89
-89
-89
-89
-89
-89
-89
-89
-89
-89
-89
-89
-89
-89
-89
-89
-89
-89
-89
-89
-89
-89
-89
-89
-89
-89
-89
-90
-90
-90
-90
-90
-90
-90
-90
-91
-91
-91
-91
-91
-91
-91
-91
-91
-91
-92
-92
-92
-92
-92
-92
-92
-91
-91
-91
-91
-91
-91
-91
-91
-91
-91
-91
-91
-91
-91
-91
-91
-92
-92
-92
-92
-92
-92
-92
-92
-92
-92
-92
-92
-92
-91
-91
-91
-91
-91
-91
-92
-92
-91
-91
-91
-91
-91
-91
-91
-91
-91
-91
-91
-91
-91
-91
-91
-91
-91
-91
-91
-91
-91
-91
-92
-92
-92
-92
-92
-92
-92
-91
-91
-91
-91
-91
-91
-91
-91
-91
-91
-91
-90
-91
-91
-91
-91
-91
-91
-91
-90
-90
-90
-90
-90
-90
-90
-90
-90
-90
-90
-90
-90
-90
-90
-90
-90
-90
-90
-90
-90
-90
-91
-91
-91
-91
-91
-91
-91
-91
-91
-91
-91
-91
-91
-91
-90
-90
-89
-89
-89
-89
-89
-89
-89
-89
-89
-89
-89
-89
-89
-89
-89
-89
-89
-89
-89
-89
-88
-88
-88
-88
-88
-88
-87
-87
-87
-86
-86
-85
-85
-85
-85
-84
-84
-84
-85
-84
-84
-84
-83
-83
-83
-83
-83
-83
-82
-82
-83
-82
-82
-82
-81
-81
-81
-81
-81
-80
-80
-80
-80
-79
-79
-78
-78
-77
-77
-76
-76
-76
-75
-75
-75
-74
-74
-73
-73
-73
-73
-72
-72
-72
-72
-73
-73
-73
-73
-73
-73
-73
-73
-74
-73
-74
-74
-74
-74
-74
-75
-75
-75
-75
-75
-76
-76
-76
-76
-76
-78
-78
-78
-78
-78
-79
-80
-80
-80
-80
-81
-82
-82
-83
-83
-83
-84
-85
-85
-85
-86
-86
-86
-87
-88
-88
-88
-88
-88
-89
-89
-89
-89
-89
-89
-89
-89
-89
-89
-90
-91
-91
-91
-91
-91
-91
-91
-91
-91
-90
-90
-90
-90
-90
-90
-90
-89
-89
-90
-90
-89
-90
-91
-91
-92
-92
-92
-94
-94
-95
-96
-97
-98
-99
-99
-99
-100
-99
-98
-97
-95
-92
-90
-85
-81
-75
-69
-61
-53
-44
-34
-23
-12
0
14
27
41
55
69
83
96
109
121
132
142
150
156
161
165
168
168
168
166
162
157
150
143
135
125
115
104
93
82
71
60
49
39
29
20
12
4
-3
-10
-16
-21
-26
-31
-35
-39
-43
-46
-49
-52
-54
-56
-59
-61
-62
-64
-66
-68
-68
-70
-72
-73
-73
-75
-76
-77
-78
-78
-79
-79
-80
-81
-81
-81
-83
-83
-83
-84
-84
-84
-84
-85
-85
-85
-85
-85
-85
-85
-85
-85
-85
-86
-86
-86
-86
-86
-86
-86
-86
-86
-86
-86
-86
-85
-85
-85
-85
-84
-84
-84
-84
-84
-85
-84
-84
-84
-84
-84
-84
-85
-85
-85
-85
-85
-85
-85
-85
-84
-84
-84
-84
-84
-84
-84
-84
-84
-84
-84
-84
-83
-82
-82
-82
-82
-82
-82
-81
-81
-80
-80
-80
-80
-79
-79
-79
-79
-79
-79
-79
-78
-78
-78
-78
-78
-78
-78
-78
-78
-78
-78
-78
-78
-78
-78
-77
-77
-77
-77
-77
-76
-76
-76
-76
-76
-76
-76
-76
-75
-75
-75
-75
-75
-75
-75
-75
-75
-74
-74
-74
-74
-74
-74
-73
-72
-72
-72
-72
-72
-72
-72
-72
-71
-71
-70
-70
-70
-69
-69
-69
-69
-69
-69
-69
-68
-67
-67
-67
-67
-67
-67
-66
-66
-66
-66
-66
-66
-65
-65
-64
-64
-63
-63
-62
-61
-61
-61
-61
-60
-60
-59
-58
-58
-58
-56
-56
-56
-56
-55
-55
-55
-54
-54
-54
-54
-54
-52
-52
-52
-52
-52
-52
-51
-50
-50
-50
-50
-50
-49
-48
-48
-48
-47
-47
-47
-47
-46
-45
-45
-44
-44
-44
-44
-43
-43
-43
-42
-41
-41
-41
-40
-40
-40
-40
-40
-40
-39
-39
-38
-38
-38
-38
-37
-37
-37
-37
-37
-36
-36
-36
-36
-36
-36
-37
-37
-37
-36
-36
-36
-37
-37
-37
-37
-36
-37
-37
-37
-38
-38
-38
-38
-39
-39
-39
-40
-41
-41
-42
-42
-43
-44
-45
-46
-46
-47
-48
-49
-50
-51
-51
-52
-54
-54
-55
-56
-56
-58
-59
-59
-60
-61
-62
-62
-63
-64
-65
-66
-66
-67
-68
-68
-69
-69
-71
-71
-71
-73
-73
-74
-74
-76
-76
-76
-77
-78
-78
-79
-79
-79
-80
-80
-81
-81
-82
-82
-83
-83
-83
-83
-83
-84
-84
-84
-85
-85
-85
-85
-86
-86
-86
-86
-86
-87
-87
-87
-87
-87
-87
-87
-88
-88
-88
-88
-88
-88
-88
-88
-88
-88
-88
-88
-87
-87
-88
-88
-88
-88
-88
-88
-88
-88
-88
-88
-88
-88
-88
-88
-89
-89
-89
-89
-89
-89
-89
-89
-89
-89
-89
-89
-89
-89
-89
-89
-89
-88
-88
-88
-88
-88
-88
-88
-88
-88
-88
-88
-87
-87
-87
-88
-88
-88
-88
-88
-88
-88
-88
-89
-88
-88
-88
-88
-88
-88
-88
-88
-88
-88
-88
-88
-88
-88
-88
-88
-88
-88
-88
-88
-88
-87
-87
-87
-88
-88
-88
-88
-88
-88
-88
-88
-87
-87
-87
-87
-87
-87
-87
-87
-87
-87
-87
-87
-86
-85
-85
-85
-85
-85
-85
-85
-85
-85
-85
-85
-85
-85
-85
-85
-85
-85
-85
-85
-85
-85
-85
-85
-85
-85
-85
-85
-85
-85
-85
-85
-85
-85
-85
-85
-85
-85
-85
-85
-85
-85
-85
-85
-85
-85
-85
-85
-85
-85
-85
-85
-85
-85
-84
-84
-84
-84
-84
-84
-84
-84
-84
-85
-85
-85
-85
-85
-85
-85
-85
-85
-85
-85
-85
-85
-85
-85
-85
-85
-85
-85
-86
-85
-85
-85
-85
-85
-85
-85
-85
-86
-86
-85
-85
-85
-85
-85
-85
-85
-85
-85
-85
-85
-85
-85
-85
-85
-85
-85
-86
-86
-86
-86
-86
-86
-86
-85
-85
-85
-85
-86
-86
-87
-87
-87
-87
-86
-86
-86
-86
-86
-86
-86
-86
-86
-86
-87
-87
-87
-88
-88
-87
-87
-87
-87
-87
-87
-87
-87
-87
-88
-89
-89
-89
-89
-89
-89
-89
-89
-89
-89
-89
-89
-89
-89
-89
-89
-89
-89
-89
-89
-89
-89
-89
-89
-89
-89
-89
-89
-89
-89
-89
-89
-89
-89
-89
-89
-89
-89
-89
-89
-89
-89
-89
-89
-89
-89
-89
-89
-89
-89
-89
-89
-89
-89
-89
-89
-89
-89
-89
-89
-89
-89
-89
-89
-90
-90
-90
-90
-90
-90
-90
-90
-90
-90
-90
-90
-90
-90
-91
-91
-91
-91
-91
-91
-91
-91
-91
-91
-91
-90
-90
-90
-90
-90
-90
-90
-90
-90
-91
-91
-91
-91
-91
-91
-91
-91
-91
-91
-91
-91
-91
-91
-91
-91
-91
-91
-91
-91
-91
-91
-91
-91
-91
-91
-91
-91
-90
-90
-90
-90
-90
-90
-90
-90
-90
-91
-91
-91
-91
-91
-91
-90
-90
-90
-90
-90
-90
-90
-90
-90
-90
-90
-90
-90
-90
-90
-90
-90
-90
-90
-90
-90
-90
-90
-90
-90
-90
-90
-91
-91
-91
-91
-91
-91
-91
-91
-91
-91
-91
-91
-91
-91
-91
-91
-91
-91
-91
-91
-91
-92
-92
-92
-92
-92
-91
-91
-91
-91
-91
-91
-90
-90
-90
-90
-90
-90
-90
-90
-90
-90
-90
-90
-90
-90
-90
-90
-90
-90
-90
-90
-90
-90
-90
-90
-90
-90
-91
-91
-91
-92
-92
-92
-92
-92
-92
-92
-92
-92
-92
-92
-91
-91
-92
-92
-92
-92
-91
-91
-91
-91
-90
-90
-90
-89
-89
-89
-89
-88
-88
-88
-88
-87
-88
-88
-88
-88
-88
-88
-87
-87
-87
-87
-87
-87
-86
-86
-86
-86
-86
-85
-85
-85
-85
-85
-84
-84
-83
-83
-83
-83
-82
-82
-82
-82
-81
-81
-80
-81
-80
-80
-79
-79
-78
-79
-78
-78
-79
-78
-78
-78
-78
-77
-78
-78
-78
-78
-78
-78
-79
-79
-79
-79
-79
-79
-80
-80
-80
-80
-81
-81
-81
-81
-81
-81
-82
-82
-82
-82
-82
-82
-82
-82
-82
-83
-83
-83
-83
-83
-85
-85
-85
-85
-86
-86
-86
-87
-87
-87
-87
-88
-89
-89
-89
-89
-89
-90
-90
-90
-89
-89
-89
-90
-90
-90
-90
-90
-90
-90
-90
-90
-90
-90
-90
-90
-90
-89
-89
-89
-89
-89
-89
-89
-90
-90
-90
-91
-90
-91
-90
-91
-92
-92
-94
-94
-95
-96
-97
-98
-98
-98
-99
-100
-100
-99
-98
-97
-95
-92
-88
-84
-80
-74
-67
-60
-52
-43
-33
-22
-11
2
14
27
41
54
68
81
94
106
117
127
137
144
151
156
160
162
162
162
160
156
151
145
138
130
121
111
101
90
79
68
58
47
38
29
20
12
4
-2
-10
-16
-21
-26
-31
-35
-39
-43
-46
-49
-52
-55
-57
-59
-62
-64
-66
-67
-69
-70
-72
-73
-74
-76
-77
-78
-78
-79
-80
-81
-82
-82
-83
-83
-83
-84
-84
-84
-84
-84
-86
-86
-86
-86
-85
-86
-87
-87
-87
-87
-87
-87
-88
-88
-88
-88
-88
-88
-88
-88
-89
-89
-89
-89
-89
-89
-89
-89
-89
-89
-89
-89
-89
-89
-88
-88
-88
-88
-88
-88
-88
-88
-88
-88
-88
-87
-87
-87
-87
-88
-88
-88
-88
-88
-88
-88
-88
-88
-88
-87
-87
-87
-87
-87
-87
-87
-87
-87
-87
-87
-87
-87
-87
-87
-87
-86
-86
-85
-85
-85
-85
-86
-86
-85
-85
-85
-85
-85
-85
-84
-84
-84
-84
-84
-84
-84
-84
-84
-83
-83
-83
-82
-83
-83
-83
-83
-83
-82
-82
-82
-82
-82
-82
-82
-81
-81
-81
-81
-81
-80
-80
-80
-79
-79
-79
-79
-79
-79
-79
-79
-79
-79
-78
-78
-78
-78
-78
-78
-76
-76
-76
-76
-76
-76
-75
-74
-74
-74
-74
-74
-73
-73
-73
-72
-72
-71
-71
-72
-72
-70
-70
-70
-70
-69
-69
-69
-69
-68
-68
-67
-67
-67
-66
-66
-65
-65
-65
-64
-64
-64
-64
-63
-62
-62
-62
-62
-60
-60
-60
-60
-59
-59
-59
-59
-57
-57
-57
-56
-56
-56
-55
-54
-54
-53
-53
-53
-52
-51
-50
-50
-50
-49
-49
-49
-48
-48
-48
-47
-47
-47
-46
-45
-45
-45
-45
-44
-44
-44
-44
-44
-43
-43
-43
-43
-42
-42
-42
-42
-41
-41
-41
-41
-40
-40
-40
-40
-40
-40
-40
-40
-40
-40
-40
-40
-40
-40
-41
-41
-41
-42
-42
-42
-42
-44
-44
-44
-46
-46
-46
-47
-47
-48
-49
-50
-51
-52
-53
-53
-54
-54
-56
-57
-57
-59
-60
-60
-62
-63
-63
-64
-65
-66
-67
-68
-69
-70
-70
-72
-73
-73
-75
-75
-76
-76
-78
-78
-79
-79
-80
-81
-81
-81
-83
-83
-83
-84
-85
-85
-85
-86
-87
-87
-87
-87
-88
-89
-89
-89
-90
-90
-90
-91
-91
-91
-92
-92
-92
-92
-93
-93
-93
-93
-93
-93
-93
-94
-94
-94
-94
-94
-94
-94
-94
-94
-93
-93
-93
-93
-93
-93
-93
-93
-93
-93
-93
-93
-94
-94
-94
-94
-94
-94
-94
-94
-94
-94
-94
-94
-94
-94
-94
-94
-93
-93
-93
-93
-93
-93
-94
-94
-94
-94
-94
-94
-94
-94
-94
-93
-93
-93
-93
-93
-93
-93
-93
-93
-93
-93
-93
-93
-93
-93
-93
-93
-93
-93
-93
-93
-93
-93
-93
-93
-93
-93
-93
-93
-93
-93
-93
-93
-93
-93
-93
-93
-93
-93
-93
-93
-93
-93
-93
-93
-94
-94
-93
-94
-94
-94
-94
-93
-93
-93
-93
-93
-93
-93
-93
-93
-93
-93
-92
-92
-92
-92
-92
-92
-92
-93
-93
-93
-93
-93
-92
-92
-92
-92
-92
-92
-92
-92
-92
-92
-92
-92
-92
-92
-92
-92
-92
-92
-92
-92
-92
-92
-92
-92
-92
-92
-92
-92
-92
-92
-92
-92
-92
-92
-93
-93
-93
-93
-93
-93
-92
-92
-92
-92
-92
-92
-92
-92
-92
-91
-91
-91
-91
-91
-91
-91
-91
-91
-91
-91
-91
-91
-91
-91
-91
-91
-91
-91
-91
-91
-91
-91
-91
-91
-92
-92
-92
-92
-92
-92
-93
-93
-93
-93
-93
-93
-93
-93
-93
-93
-93
-93
-93
-93
-94
-94
-94
-94
-94
-94
-94
-94
-94
-94
-94
-94
-94
-94
-94
-94
-94
-94
-94
-94
-94
-94
-94
-94
-94
-94
-94
-94
-94
-94
-94
-94
-94
-94
-94
-95
-94
-94
-94
-94
-94
-94
-94
-94
-94
-94
-94
-94
-94
-94
-94
-94
-94
-94
-94
-94
-94
-94
-94
-94
-94
-94
-94
-94
-94
-94
-94
-94
-94
-94
-94
-94
-94
-94
-93
-93
-93
-93
-93
-93
-93
-93
-93
-93
-93
-93
-93
-93
-93
-93
-93
-93
-93
-93
-94
-94
-94
-94
-94
-94
-94
-94
-94
-94
-94
-94
-94
-94
-94
-94
-94
-95
-95
-95
-94
-94
-94
-94
-94
-94
-94
-94
-94
-94
-94
-94
-94
-93
-93
-93
-93
-93
-93
-93
-94
-94
-93
-93
-93
-93
-93
-93
-93
-93
-93
-94
-94
-94
-94
-94
-94
-94
-94
-94
-94
-94
-93
-93
-93
-93
-93
-93
-93
-93
-93
-93
-93
-94
-93
-93
-93
-93
-93
-93
-93
-93
-93
-93
-93
-93
-93
-93
-93
-93
-93
-93
-93
-93
-93
-93
-93
-93
-93
-93
-93
-94
-94
-94
-94
-94
-94
-95
-95
-95
-95
-95
-95
-95
-95
-95
-95
-95
-95
-95
-95
-95
-95
-95
-95
-95
-95
-95
-95
-95
-95
-95
-95
-95
-95
-95
-95
-95
-95
-95
-96
-96
-96
-96
-96
-96
-96
-96
-96
-96
-96
-96
-96
-96
-96
-96
-96
-96
-96
-96
-96
-96
-96
-96
-96
-96
-95
-95
-96
-96
-96
-96
-96
-96
-96
-96
-96
-96
-96
-96
-96
-96
-96
-96
-96
-96
-96
-95
-95
-95
-95
-95
-95
-95
-95
-95
-94
-94
-94
-94
-94
-93
-93
-93
-92
-92
-92
-92
-91
-92
-92
-92
-91
-91
-91
-90
-90
-90
-90
-90
-90
-89
-89
-89
-89
-88
-88
-88
-89
-89
-88
-88
-88
-88
-87
-87
-87
-87
-86
-86
-86
-86
-85
-85
-85
-84
-84
-83
-84
-83
-82
-82
-81
-81
-81
-80
-80
-79
-79
-79
-79
-79
-78
-78
-78
-78
-78
-78
-78
-79
-79
-78
-78
-79
-79
-79
-79
-80
-80
-80
-80
-80
-81
-81
-81
-81
-81
-82
-83
-83
-83
-83
-83
-83
-83
-84
-85
-85
-85
-85
-86
-86
-86
-87
-88
-88
-88
-89
-90
-90
-90
-90
-90
-91
-92
-92
-92
-92
-92
-93
-93
-93
-93
-93
-93
-94
-94
-94
-94
-94
-94
-94
-94
-94
-94
-94
-94
-94
-95
-95
-95
-95
-94
-94
-94
-94
-94
-95
-94
-94
-95
-94
-95
-95
-96
-96
-97
-98
-98
-99
-99
-100
-101
-101
-102
-103
-103
-103
-102
-101
-99
-98
-94
-91
-86
-82
-75
-68
-61
-53
-44
-34
-23
-12
0
14
26
40
53
66
79
91
102
114
123
131
138
143
148
151
153
152
150
148
144
138
131
125
116
107
96
85
75
64
54
44
35
25
16
8
0
-7
-14
-20
-26
-31
-36
-40
-44
-47
-51
-55
-57
-59
-62
-64
-66
-68
-70
-71
-73
-75
-76
-77
-79
-80
-82
-83
-83
-84
-84
-85
-86
-87
-87
-88
-88
-88
-88
-88
-90
-90
-90
-90
-91
-91
-91
-91
-91
-92
-91
-91
-91
-91
-91
-91
-92
-92
-92
-92
-92
-92
-92
-92
-92
-93
-93
-93
-93
-93
-93
-93
-93
-93
-93
-93
-93
-93
-93
-93
-93
-92
-93
-93
-93
-93
-92
-92
-92
-91
-91
-91
-91
-91
-91
-91
-91
-90
-90
-90
-90
-90
-90
-90
-90
-90
-90
-90
-90
-90
-89
-89
-89
-89
-89
-89
-89
-89
-89
-89
-89
-89
-88
-88
-88
-88
-88
-87
-87
-86
-86
-86
-86
-86
-86
-86
-85
-85
-85
-85
-85
-85
-84
-84
-84
-84
-83
-83
-83
-83
-82
-82
-82
-82
-82
-81
-81
-81
-81
-81
-80
-79
-79
-79
-79
-78
-78
-78
-78
-78
-77
-77
-77
-77
-77
-76
-76
-76
-76
-76
-76
-76
-75
-75
-75
-75
-75
-74
-73
-73
-73
-73
-73
-73
-72
-72
-72
-71
-71
-70
-70
-70
-70
-68
-68
-68
-68
-67
-67
-67
-67
-66
-65
-65
-65
-64
-64
-64
-63
-62
-62
-62
-62
-60
-60
-60
-60
-59
-59
-58
-58
-57
-57
-57
-57
-55
-55
-55
-54
-54
-54
-53
-52
-52
-52
-51
-51
-50
-49
-49
-49
-48
-48
-47
-46
-46
-46
-45
-45
-45
-44
-44
-44
-44
-43
-43
-43
-43
-43
-42
-42
-42
-42
-42
-42
-41
-41
-41
-41
-41
-40
-39
-39
-39
-39
-38
-38
-38
-38
-38
-38
-37
-37
-37
-37
-37
-37
-37
-37
-38
-38
-38
-38
-39
-39
-40
-40
-41
-41
-42
-42
-44
-44
-45
-46
-47
-47
-48
-49
-50
-50
-52
-52
-53
-55
-55
-56
-56
-58
-59
-59
-61
-62
-62
-63
-63
-65
-66
-66
-67
-68
-69
-70
-70
-72
-72
-73
-73
-75
-75
-75
-76
-77
-78
-78
-79
-80
-80
-80
-81
-82
-82
-83
-83
-84
-84
-84
-85
-86
-86
-86
-86
-86
-86
-86
-87
-88
-88
-88
-88
-88
-88
-88
-88
-88
-88
-89
-89
-89
-89
-89
-89
-89
-89
-89
-89
-89
-89
-89
-89
-89
-89
-89
-91
-91
-91
-91
-91
-91
-91
-91
-90
-90
-91
-91
-91
-91
-91
-90
-90
-90
-90
-90
-90
-90
-90
-90
-90
-90
-90
-90
-90
-90
-90
-90
-90
-90
-90
-90
-90
-90
-90
-90
-90
-91
-91
-91
-91
-91
-91
-91
-90
-90
-90
-90
-90
-90
-90
-90
-90
-90
-90
-90
-90
-90
-91
-90
-90
-90
-90
-90
-90
-90
-90
-90
-90
-90
-90
-90
-90
-90
-89
-89
-89
-89
-89
-89
-89
-89
-88
-88
-88
-88
-88
-88
-88
-88
-87
-87
-87
-87
-87
-87
-87
-87
-87
-87
-87
-87
-88
-88
-88
-88
-88
-88
-88
-88
-88
-88
-88
-88
-88
-88
-88
-88
-88
-88
-87
-87
-87
-87
-87
-87
-87
-87
-87
-87
-87
-87
-87
-87
-87
-87
-87
-87
-87
-86
-86
-86
-86
-87
-87
-87
-87
-87
-87
-87
-87
-87
-87
-87
-87
-87
-87
-87
-87
-87
-87
-87
-87
-87
-87
-87
-87
-87
-87
-87
-87
-87
-87
-87
-87
-87
-87
-87
-87
-87
-87
-87
-87
-87
-87
-87
-87
-87
-87
-87
-87
-87
-87
-87
-87
-87
-88
-88
-88
-88
-89
-89
-89
-89
-89
-89
-89
-89
-90
-90
-90
-90
-90
-90
-90
-90
-90
-90
-90
-90
-90
-90
-90
-90
-90
-90
-90
-90
-90
-90
-90
-90
-90
-90
-90
-90
-90
-90
-90
-90
-90
-90
-90
-90
-90
-90
-91
-91
-91
-91
-91
-90
-90
-90
-90
-90
-90
-90
-90
-90
-90
-90
-90
-90
-90
-90
-89
-89
-89
-89
-89
-89
-89
-89
-89
-90
-90
-90
-90
-90
-90
-90
-90
-90
-90
-90
-90
-90
-90
-90
-90
-90
-90
-90
-90
-90
-91
-91
-90
-90
-90
-90
-90
-90
-90
-90
-90
-90
-90
-91
-91
-91
-91
-92
-92
-91
-91
-91
-91
-91
-91
-91
-91
-91
-91
-91
-91
-91
-91
-91
-91
-91
-91
-91
-91
-91
-91
-91
-91
-91
-91
-91
-91
-91
-90
-90
-90
-90
-90
-90
-90
-90
-90
-90
-90
-90
-90
-90
-90
-90
-90
-90
-90
-90
-90
-90
-90
-90
-90
-90
-90
-90
-90
-90
-90
-90
-89
-89
-89
-89
-89
-89
-89
-89
-89
-90
-90
-90
-90
-90
-90
-90
-90
-90
-90
-90
-90
-90
-90
-90
-90
-91
-91
-91
-91
-91
-91
-91
-91
-91
-91
-91
-91
-91
-91
-91
-91
-90
-90
-90
-90
-90
-90
-90
-90
-90
-90
-90
-90
-90
-90
-90
-90
-90
-91
-91
-91
-91
-91
-91
-91
-91
-91
-91
-91
-91
-90
-90
-90
-90
-91
-91
-91
-91
-91
-90
-90
-90
-90
-90
-90
-89
-89
-89
-89
-89
-89
-89
-89
-89
-89
-89
-89
-89
-89
-89
-89
-89
-89
-89
-89
-89
-89
-89
-89
-90
-90
-89
-89
-89
-89
-89
-89
-89
-89
-89
-89
-87
-87
-87
-87
-87
-86
-86
-86
-86
-86
-85
-85
-85
-85
-85
-85
-84
-84
-84
-84
-84
-84
-83
-83
-83
-83
-84
-84
-83
-83
-83
-83
-83
-82
-82
-81
-81
-81
-81
-80
-79
-79
-80
-79
-78
-77
-77
-77
-76
-76
-76
-75
-75
-74
-74
-73
-74
-73
-73
-73
-72
-73
-73
-73
-73
-73
-73
-73
-73
-74
-74
-74
-74
-74
-75
-76
-75
-75
-76
-76
-76
-76
-78
-77
-77
-78
-78
-79
-79
-79
-79
-80
-80
-80
-80
-81
-82
-82
-82
-82
-83
-83
-83
-84
-84
-85
-85
-86
-86
-86
-86
-86
-86
-86
-86
-87
-87
-87
-87
-87
-87
-88
-88
-88
-88
-88
-89
-89
-88
-88
-88
-88
-88
-88
-88
-88
-88
-88
-88
-89
-89
-89
-88
-88
-88
-88
-87
-88
-88
-89
-88
-89
-89
-89
-90
-90
-90
-92
-92
-93
-94
-94
-94
-95
-96
-95
-95
-94
-94
-92
-90
-87
-84
-80
-75
-69
-63
-55
-47
-39
-30
-19
-8
4
17
29
42
56
68
81
92
104
114
124
132
139
144
148
151
152
151
150
147
142
136
129
120
111
102
92
82
71
60
50
40
30
21
13
5
-4
-10
-16
-22
-27
-33
-36
-41
-44
-47
-51
-53
-56
-59
-61
-63
-64
-66
-68
-70
-71
-73
-74
-76
-77
-78
-79
-81
-81
-82
-83
-83
-84
-84
-85
-86
-87
-87
-87
-88
-88
-88
-88
-89
-89
-89
-89
-89
-89
-89
-90
-90
-90
-91
-91
-91
-91
-91
-91
-91
-91
-91
-91
-92
-92
-92
-92
-92
-92
-92
-92
-92
-92
-92
-92
-92
-91
-91
-91
-91
-91
-91
-91
-91
-90
-90
-90
-90
-90
-90
-90
-90
-90
-90
-90
-90
-90
-90
-90
-90
-90
-90
-90
-90
-90
-90
-90
-90
-90
-89
-89
-89
-89
-89
-89
-88
-88
-88
-88
-88
-88
-88
-87
-87
-87
-87
-87
-87
-87
-86
-86
-86
-86
-86
-86
-86
-86
-85
-85
-85
-85
-85
-85
-84
-84
-84
-84
-83
-83
-83
-83
-82
-82
-82
-81
-81
-81
-81
-81
-81
-81
-80
-80
-80
-80
-80
-80
-80
-80
-80
-80
-80
-80
-79
-79
-79
-79
-78
-78
-78
-78
-77
-77
-76
-76
-76
-76
-75
-75
-74
-73
-73
-73
-73
-73
-72
-72
-72
-71
-71
-71
-71
-71
-70
-70
-70
-70
-70
-70
-69
-69
-69
-69
-69
-69
-69
-68
-67
-67
-67
-66
-66
-66
-65
-65
-65
-64
-64
-64
-63
-63
-63
-62
-61
-60
-60
-60
-59
-58
-58
-57
-57
-57
-56
-56
-55
-55
-55
-55
-53
-53
-53
-53
-53
-53
-53
-53
-51
-51
-51
-51
-51
-51
-51
-50
-50
-50
-49
-48
-48
-48
-47
-48
-47
-46
-46
-47
-46
-46
-46
-46
-45
-45
-45
-45
-45
-45
-45
-45
-45
-45
-45
-45
-45
-45
-45
-45
-45
-45
-45
-45
-45
-46
-47
-47
-47
-48
-48
-49
-49
-50
-50
-51
-51
-52
-53
-53
-54
-55
-56
-56
-57
-58
-59
-61
-61
-62
-63
-64
-64
-66
-67
-68
-68
-69
-71
-72
-72
-73
-74
-75
-76
-77
-77
-78
-78
-79
-80
-81
-82
-82
-83
-83
-84
-84
-84
-85
-85
-85
-85
-86
-86
-87
-87
-87
-88
-88
-88
-88
-89
-90
-90
-90
-90
-90
-90
-92
-92
-92
-92
-92
-93
-93
-93
-93
-93
-93
-94
-94
-94
-94
-94
-95
-95
-95
-95
-95
-95
-95
-96
-96
-96
-96
-96
-96
-96
-96
-97
-97
-97
-97
-97
-97
-97
-97
-97
-97
-98
-98
-98
-97
-97
-97
-97
-97
-97
-97
-98
-98
-98
-98
-98
-98
-98
-98
-98
-99
-99
-99
-99
-99
-99
-99
-99
-99
-99
-99
-98
-98
-98
-98
-98
-97
-97
-97
-97
-97
-97
-97
-98
-98
-98
-98
-98
-98
-98
-98
-99
-99
-99
-99
-98
-98
-98
-98
-98
-98
-98
-98
-98
-99
-99
-99
-99
-99
-99
-99
-99
-99
-99
-99
-99
-99
-99
-99
-99
-99
-99
-99
-99
-99
-98
-98
-98
-98
-98
-98
-97
-97
-97
-97
-97
-97
-96
-96
-96
-96
-96
-96
-96
-96
-96
-96
-95
-95
-95
-94
-94
-94
-94
-94
-94
-94
-94
-94
-94
-94
-94
-94
-94
-94
-94
-94
-94
-94
-95
-95
-95
-95
-95
-96
-96
-96
-96
-97
-97
-97
-97
-97
-98
-98
-98
-98
-98
-97
-97
-97
-97
-96
-96
-97
-96
-96
-96
-95
-96
-96
-96
-96
-96
-95
-95
-95
-96
-96
-97
-97
-97
-97
-98
-98
-98
-98
-98
-99
-98
-98
-98
-98
-99
-99
-99
-99
-100
-100
-100
-100
-100
-100
-100
-100
-100
-100
-100
-100
-100
-100
-100
-100
-100
-100
-100
-100
-100
-100
-100
-100
-100
-99
-99
-99
-99
-99
-99
-99
-99
-99
-99
-99
-99
-99
-99
-99
-99
-99
-99
-99
-99
-99
-99
-99
-99
-99
-99
-100
-100
-100
-100
-100
-100
-100
-100
-100
-100
-100
-101
-101
-101
-101
-101
-101
-101
-101
-101
-101
-101
-101
-101
-101
-101
-101
-101
-101
-101
-101
-101
-101
-101
-101
-101
-102
-102
-101
-101
-101
-101
-101
-101
-101
-101
-101
-100
-100
-100
-100
-100
-100
-101
-101
-101
-101
-101
-101
-102
-102
-102
-102
-101
-101
-102
-102
-102
-102
-102
-102
-102
-102
-102
-102
-103
-103
-103
-103
-103
-103
-102
-102
-102
-102
-102
-102
-102
-103
-103
-103
-102
-102
-102
-102
-102
-102
-102
-102
-102
-102
-102
-102
-102
-102
-102
-102
-102
-102
-102
-102
-102
-102
-102
-102
-102
-102
-102
-102
-102
-102
-102
-102
-102
-102
-102
-102
-102
-102
-102
-102
-102
-102
-103
-103
-103
-103
-103
-104
-104
-104
-104
-104
-105
-105
-105
-105
-105
-105
-105
-105
-105
-105
-105
-104
-104
-104
-104
-104
-104
-104
-103
-103
-103
-103
-103
-103
-104
-103
-103
-103
-103
-103
-103
-103
-103
-103
-103
-103
-103
-103
-103
-103
-103
-103
-104
-104
-104
-105
-105
-104
-104
-104
-104
-104
-106
-106
-106
-106
-106
-106
-106
-106
-105
-105
-105
-105
-105
-105
-105
-105
-104
-104
-104
-104
-104
-104
-104
-104
-104
-104
-104
-104
-104
-104
-104
-104
-103
-104
-104
-104
-103
-103
-102
-103
-103
-102
-102
-102
-101
-102
-102
-101
-101
-101
-100
-100
-100
-100
-100
-99
-99
-99
-99
-98
-98
-98
-98
-98
-98
-97
-97
-97
-97
-97
-97
-97
-96
-96
-95
-94
-94
-95
-94
-94
-93
-92
-93
-92
-91
-92
-91
-90
-90
-90
-90
-91
-90
-90
-90
-91
-91
-91
-90
-90
-90
-91
-91
-91
-91
-91
-92
-92
-93
-92
-93
-93
-93
-93
-94
-94
-94
-94
-94
-94
-94
-95
-94
-94
-95
-95
-96
-96
-96
-97
-97
-97
-98
-99
-99
-100
-100
-101
-101
-102
-103
-103
-103
-103
-104
-104
-105
-106
-106
-106
-106
-106
-106
-106
-106
-107
-107
-107
-107
-107
-107
-108
-108
-108
-107
-107
-107
-107
-107
-107
-107
-107
-107
-107
-107
-107
-106
-107
-107
-107
-107
-107
-107
-108
-108
-109
-110
-111
-112
-112
-113
-114
-115
-116
-117
-117
-117
-117
-117
-115
-115
-112
-110
-108
-103
-99
-93
-87
-80
-72
-63
-53
-42
-31
-18
-6
8
22
36
50
65
78
91
103
115
123
132
140
145
150
152
153
152
150
146
141
134
127
118
109
98
86
75
63
52
40
29
18
8
-1
-10
-18
-25
-32
-38
-44
-49
-54
-58
-62
-65
-69
-71
-73
-75
-77
-80
-81
-83
-85
-86
-87
-89
-89
-91
-92
-93
-94
-95
-95
-97
-97
-98
-99
-100
-100
-101
-101
-102
-102
-103
-104
-104
-104
-105
-105
-105
-105
-105
-105
-105
-106
-106
-106
-106
-106
-106
-106
-107
-107
-107
-107
-107
-107
-107
-107
-106
-106
-106
-106
-106
-106
-106
-106
-105
-105
-105
-105
-105
-104
-104
-104
-105
-105
-104
-104
-104
-104
-104
-104
-104
-104
-104
-104
-104
-104
-104
-104
-104
-104
-104
-104
-104
-104
-103
-103
-103
-103
-103
-103
-103
-103
-103
-102
-102
-101
-101
-101
-100
-100
-100
-100
-100
-99
-99
-99
-99
-99
-99
-99
-99
-98
-98
-98
-98
-97
-97
-97
-97
-97
-97
-97
-97
-97
-96
-96
-96
-96
-96
-96
-96
-95
-95
-95
-95
-95
-95
-95
-94
-94
-94
-94
-94
-94
-94
-94
-94
-93
-93
-93
-93
-93
-93
-93
-93
-92
-92
-92
-92
-91
-91
-91
-90
-90
-90
-90
-90
-89
-89
-89
-89
-88
-88
-87
-87
-86
-86
-86
-86
-86
-86
-85
-85
-84
-84
-84
-84
-83
-83
-83
-83
-83
-83
-82
-82
-81
-81
-80
-80
-80
-80
-80
-79
-78
-78
-78
-77
-77
-77
-76
-75
-75
-74
-74
-73
-73
-72
-72
-71
-71
-70
-70
-69
-69
-69
-68
-67
-67
-66
-66
-66
-65
-64
-64
-64
-64
-64
-62
-62
-62
-62
-62
-61
-61
-60
-60
-60
-59
-59
-59
-59
-59
-59
-58
-58
-58
-58
-57
-57
-57
-57
-57
-57
-57
-57
-57
-57
-56
-56
-56
-56
-56
-56
-56
-56
-56
-57
-57
-57
-57
-57
-58
-58
-58
-59
-59
-59
-60
-60
-62
-62
-63
-63
-64
-65
-65
-66
-67
-68
-69
-70
-72
-72
-73
-75
-75
-77
-77
-79
-80
-81
-83
-84
-84
-86
-87
-88
-89
-91
-92
-92
-93
-94
-95
-96
-97
-98
-99
-99
-100
-100
-101
-101
-102
-102
-103
-104
-103
-104
-104
-105
-106
-106
-106
-107
-107
-107
-108
-108
-108
-109
-109
-109
-109
-110
-111
-111
-110
-110
-111
-111
-111
-111
-111
-111
-111
-111
-111
-111
-111
-111
-112
-112
-112
-112
-112
-112
-112
-112
-112
-112
-112
-112
-112
-112
-112
-112
-113
-112
-112
-112
-112
-112
-112
-112
-112
-111
-111
-111
-111
-111
-111
-112
-112
-112
-112
-112
-113
-113
-113
-113
-113
-113
-113
-113
-112
-112
-112
-112
-112
-112
-112
-112
-112
-112
-111
-111
-111
-111
-111
-111
-111
-111
-111
-112
-112
-112
-112
-112
-112
-112
-112
-112
-112
-112
-112
-112
-111
-111
-111
-111
-111
-111
-111
-111
-111
-111
-111
-111
-111
-110
-110
-110
-110
-111
-111
-111
-111
-111
-111
-111
-111
-111
-111
-111
-111
-111
-111
-111
-111
-111
-110
-110
-110
-110
-110
-110
-110
-110
-109
-109
-109
-109
-109
-109
-109
-109
-109
-109
-109
-108
-108
-108
-108
-107
-107
-107
-107
-107
-107
-107
-107
-107
-107
-107
-106
-106
-106
-106
-106
-106
-106
-107
-107
-106
-106
-106
-106
-106
-106
-106
-106
-106
-106
-106
-106
-106
-106
-106
-106
-106
-106
-105
-105
-105
-105
-105
-106
-106
-106
-106
-106
-106
-106
-106
-105
-105
-105
-105
-105
-105
-105
-106
-106
-106
-105
-105
-105
-105
-105
-105
-105
-105
-105
-105
-105
-105
-105
-105
-105
-106
-106
-106
-106
-106
-106
-106
-107
-107
-107
-107
-107
-107
-107
-108
-108
-108
-108
-108
-108
-108
-108
-108
-108
-107
-108
-108
-108
-108
-108
-108
-108
-108
-108
-108
-108
-108
-108
-108
-108
-108
-108
-108
-108
-108
-108
-108
-108
-108
-108
-108
-109
-109
-109
-108
-108
-108
-108
-108
-108
-108
-108
-108
-108
-108
-109
-110
-110
-110
-110
-110
-110
-110
-110
-110
-110
-110
-110
-110
-110
-110
-110
-110
-110
-110
-110
-110
-110
-110
-110
-110
-110
-109
-109
-109
-110
-110
-110
-110
-110
-109
-109
-109
-109
-109
-109
-109
-109
-109
-109
-109
-110
-110
-110
-110
-110
-110
-110
-110
-110
-110
-111
-111
-111
-111
-111
-111
-111
-111
-111
-111
-111
-111
-111
-111
-110
-110
-110
-110
-110
-110
-110
-110
-109
-109
-110
-110
-110
-110
-110
-110
-110
-110
-110
-109
-109
-109
-109
-109
-109
-109
-109
-109
-109
-109
-109
-110
-110
-110
-111
-111
-111
-111
-111
-111
-110
-110
-110
-110
-110
-110
-110
-110
-110
-110
-110
-110
-110
-110
-110
-111
-111
-110
-110
-110
-110
-110
-110
-110
-110
-110
-111
-111
-111
-110
-110
-110
-110
-110
-110
-111
-110
-110
-110
-110
-110
-110
-110
-110
-110
-109
-109
-109
-109
-109
-109
-109
-109
-109
-109
-110
-110
-110
-110
-110
-110
-110
-110
-110
-111
-111
-111
-111
-111
-110
-110
-110
-110
-110
-110
-110
-110
-110
-110
-110
-110
-110
-110
-110
-109
-109
-109
-109
-109
-109
-108
-108
-108
-108
-108
-106
-106
-106
-106
-106
-106
-106
-105
-105
-105
-104
-104
-104
-104
-104
-103
-103
-103
-104
-103
-103
-103
-103
-102
-103
-103
-103
-103
-102
-102
-102
-101
-101
-101
-101
-100
-101
-100
-100
-100
-99
-99
-99
-99
-98
-98
-98
-97
-97
-96
-96
-95
-96
-95
-94
-94
-94
-94
-93
-93
-93
-92
-93
-92
-92
-93
-92
-92
-92
-93
-93
-93
-93
-93
-93
-93
-94
-94
-94
-94
-95
-95
-95
-96
-96
-95
-95
-97
-97
-97
-97
-97
-97
-97
-97
-97
-98
-98
-99
-99
-99
-100
-100
-100
-100
-101
-102
-102
-102
-103
-103
-104
-104
-104
-105
-105
-106
-106
-106
-106
-107
-107
-107
-107
-107
-108
-108
-107
-107
-107
-107
-108
-108
-108
-108
-108
-108
-108
-108
-108
-108
-108
-108
-108
-108
-109
-109
-109
-109
-109
-109
-109
-109
-109
-109
-109
-110
-110
-111
-111
-112
-113
-114
-114
-116
-117
-118
-119
-119
-119
-119
-119
-118
-117
-116
-113
-110
-106
-102
-96
-90
-83
-75
-66
-56
-46
-35
-23
-10
3
17
31
45
59
72
85
97
108
119
128
136
142
146
149
150
151
149
146
142
138
132
124
114
105
95
84
73
63
52
42
32
22
13
4
-4
-11
-18
-24
-31
-36
-41
-46
-50
-54
-58
-62
-65
-68
-70
-74
-76
-78
-80
-83
-85
-86
-88
-89
-91
-92
-94
-95
-96
-97
-97
-98
-100
-100
-101
-101
-101
-101
-102
-102
-102
-103
-103
-103
-104
-104
-104
-104
-104
-105
-105
-105
-105
-105
-105
-105
-105
-105
-105
-105
-105
-105
-105
-105
-105
-106
-106
-106
-106
-106
-106
-106
-106
-106
-106
-105
-105
-105
-105
-105
-105
-105
-105
-105
-105
-105
-105
-105
-105
-105
-105
-105
-104
-104
-104
-104
-104
-104
-104
-104
-104
-104
-104
-104
-104
-104
-104
-103
-103
-103
-103
-103
-103
-103
-103
-103
-103
-103
-103
-103
-103
-103
-103
-103
-103
-103
-103
-102
-102
-102
-102
-102
-102
-102
-102
-102
-102
-102
-102
-102
-100
-100
-100
-100
-100
-100
-100
-100
-100
-100
-100
-100
-100
-99
-99
-98
-98
-98
-98
-98
-98
-97
-97
-97
-97
-97
-97
-96
-96
-95
-95
-95
-95
-95
-95
-95
-94
-94
-94
-94
-94
-94
-93
-92
-92
-92
-92
-92
-91
-91
-91
-90
-90
-90
-90
-89
-89
-89
-89
-88
-88
-88
-87
-87
-86
-86
-86
-86
-86
-85
-84
-84
-84
-84
-84
-83
-82
-82
-82
-81
-81
-81
-80
-79
-79
-78
-78
-78
-76
-76
-76
-76
-74
-74
-74
-73
-72
-72
-72
-71
-71
-70
-70
-69
-69
-69
-67
-67
-67
-67
-65
-65
-65
-65
-64
-64
-64
-63
-63
-63
-62
-61
-61
-61
-61
-60
-60
-60
-60
-58
-58
-58
-58
-57
-57
-57
-57
-56
-56
-56
-56
-56
-55
-55
-55
-55
-55
-55
-54
-54
-54
-54
-54
-54
-54
-55
-56
-56
-56
-56
-56
-57
-57
-57
-57
-58
-58
-59
-60
-60
-61
-61
-62
-62
-64
-64
-65
-65
-67
-68
-68
-69
-70
-71
-72
-73
-74
-75
-77
-77
-78
-80
-80
-81
-83
-83
-84
-85
-85
-87
-87
-88
-89
-90
-91
-91
-92
-93
-94
-94
-95
-96
-96
-97
-97
-98
-99
-99
-99
-100
-101
-101
-102
-102
-102
-103
-104
-104
-104
-104
-104
-106
-106
-106
-106
-106
-106
-106
-107
-108
-108
-107
-107
-107
-107
-107
-108
-108
-108
-108
-108
-108
-108
-108
-108
-109
-109
-109
-109
-109
-109
-109
-109
-109
-109
-109
-109
-109
-109
-109
-109
-109
-109
-109
-108
-108
-108
-108
-108
-108
-108
-109
-109
-109
-109
-108
-108
-108
-108
-108
-108
-108
-108
-108
-108
-108
-108
-108
-108
-107
-107
-107
-107
-107
-107
-107
-107
-107
-107
-107
-107
-107
-107
-107
-107
-107
-107
-107
-107
-107
-107
-107
-107
-107
-107
-107
-107
-107
-107
-108
-108
-108
-108
-108
-108
-107
-107
-107
-107
-107
-107
-107
-107
-107
-107
-107
-107
-107
-107
-107
-107
-107
-107
-107
-107
-107
-107
-107
-107
-107
-107
-107
-107
-107
-107
-107
-107
-107
-106
-106
-106
-106
-106
-106
-106
-106
-106
-106
-106
-106
-106
-105
-105
-105
-105
-105
-104
-104
-104
-104
-104
-104
-104
-104
-104
-104
-104
-104
-104
-104
-104
-104
-103
-103
-103
-103
-103
-103
-103
-103
-103
-103
-103
-103
-103
-103
-103
-103
-103
-103
-103
-103
-103
-103
-103
-104
-104
-104
-105
-105
-105
-105
-105
-105
-105
-105
-105
-105
-105
-105
-105
-105
-105
-105
-105
-105
-105
-105
-105
-105
-105
-105
-105
-105
-105
-104
-104
-104
-104
-105
-105
-105
-105
-105
-105
-105
-105
-104
-104
-104
-104
-104
-104
-104
-104
-104
-104
-104
-104
-105
-105
-105
-105
-105
-105
-105
-105
-105
-105
-105
-105
-106
-106
-106
-106
-105
-105
-105
-106
-106
-106
-106
-106
-106
-106
-106
-106
-106
-107
-107
-107
-106
-106
-106
-106
-106
-106
-107
-107
-107
-107
-107
-107
-107
-107
-107
-107
-107
-107
-107
-107
-107
-107
-107
-107
-107
-107
-107
-107
-107
-107
-107
-107
-107
-107
-107
-107
-107
-107
-107
-107
-107
-107
-107
-107
-106
-106
-106
-107
-107
-107
-107
-107
-107
-107
-107
-107
-107
-107
-107
-107
-107
-107
-106
-106
-106
-106
-106
-107
-107
-107
-107
-107
-107
-107
-107
-107
-107
-107
-107
-107
-107
-108
-108
-108
-108
-108
-108
-108
-108
-108
-108
-108
-108
-108
-108
-108
-108
-108
-108
-108
-108
-108
-108
-108
-108
-107
-107
-107
-107
-107
-107
-107
-106
-106
-106
-106
-106
-106
-106
-106
-106
-106
-106
-106
-106
-106
-106
-107
-107
-107
-107
-107
-107
-107
-107
-107
-107
-107
-107
-107
-106
-106
-106
-106
-106
-106
-106
-107
-107
-107
-106
-106
-106
-106
-106
-107
-107
-107
-107
-107
-107
-107
-107
-107
-107
-107
-107
-106
-106
-106
-106
-106
-106
-106
-106
-106
-106
-106
-106
-106
-106
-106
-106
-106
-106
-106
-106
-106
-106
-106
-106
-106
-106
-106
-106
-106
-106
-106
-106
-105
-106
-106
-106
-106
-106
-106
-106
-106
-106
-106
-106
-106
-106
-106
-106
-106
-106
-106
-106
-106
-106
-106
-105
-105
-105
-105
-105
-105
-105
-105
-105
-106
-106
-106
-106
-106
-106
-106
-106
-106
-105
-105
-105
-105
-105
-105
-105
-104
-104
-104
-105
-105
-104
-104
-104
-103
-103
-103
-103
-102
-102
-102
-101
-102
-102
-102
-102
-101
-101
-101
-101
-101
-100
-100
-101
-101
-101
-100
-100
-100
-100
-99
-99
-99
-99
-99
-99
-99
-98
-97
-97
-97
-96
-96
-97
-95
-95
-95
-94
-94
-93
-94
-93
-93
-92
-93
-92
-92
-92
-92
-91
-91
-91
-92
-91
-91
-91
-91
-91
-91
-92
-92
-92
-92
-91
-92
-92
-92
-93
-93
-93
-93
-94
-94
-94
-94
-95
-95
-95
-95
-96
-96
-97
-97
-97
-98
-98
-98
-98
-99
-99
-100
-100
-100
-101
-101
-102
-102
-103
-103
-103
-103
-104
-104
-105
-105
-105
-105
-105
-105
-105
-106
-106
-106
-106
-106
-107
-107
-107
-107
-107
-107
-107
-107
-107
-107
-107
-107
-107
-107
-107
-107
-107
-107
-107
-106
-106
-107
-107
-107
-107
-108
-108
-108
-109
-110
-111
-112
-112
-113
-114
-115
-116
-116
-117
-117
-117
-117
-116
-115
-113
-110
-107
-102
-97
-92
-85
-77
-70
-61
-51
-40
-29
-17
-3
9
23
37
50
64
76
89
100
110
119
128
135
139
142
145
146
145
143
139
134
129
122
113
105
95
84
74
64
53
43
32
23
13
6
-3
-10
-17
-24
-30
-35
-40
-45
-49
-53
-57
-60
-63
-66
-69
-71
-73
-76
-78
-79
-81
-83
-85
-86
-88
-89
-89
-90
-92
-93
-94
-94
-95
-95
-96
-96
-97
-97
-97
-98
-98
-98
-98
-98
-100
-100
-100
-100
-100
-101
-101
-101
-101
-101
-101
-101
-101
-102
-102
-102
-102
-102
-102
-102
-102
-102
-102
-102
-102
-102
-102
-102
-102
-102
-102
-102
-102
-102
-102
-102
-102
-102
-102
-102
-102
-102
-102
-102
-102
-102
-101
-101
-101
-101
-101
-101
-102
-102
-102
-102
-102
-102
-102
-102
-102
-102
-102
-102
-101
-101
-101
-101
-101
-101
-101
-101
-101
-101
-101
-100
-100
-100
-100
-100
-100
-100
-99
-99
-99
-99
-98
-98
-98
-98
-97
-97
-97
-97
-97
-97
-97
-97
-96
-96
-96
-95
-95
-95
-95
-95
-95
-95
-95
-94
-94
-94
-94
-94
-94
-94
-94
-93
-93
-93
-92
-92
-91
-91
-91
-91
-91
-91
-91
-91
-90
-89
-89
-89
-89
-88
-88
-88
-88
-88
-87
-87
-87
-87
-87
-87
-86
-86
-86
-86
-86
-86
-85
-85
-85
-84
-84
-84
-84
-84
-82
-82
-82
-82
-82
-81
-80
-80
-80
-80
-80
-78
-78
-78
-78
-77
-77
-76
-76
-75
-75
-75
-74
-73
-73
-73
-73
-71
-71
-71
-71
-70
-69
-69
-69
-69
-68
-67
-67
-66
-66
-66
-66
-64
-64
-64
-63
-63
-63
-62
-61
-61
-61
-60
-60
-60
-60
-59
-59
-58
-58
-58
-58
-57
-56
-56
-56
-55
-55
-55
-55
-54
-54
-54
-54
-54
-54
-53
-53
-52
-52
-52
-51
-51
-51
-51
-52
-52
-52
-51
-51
-51
-51
-51
-51
-52
-52
-52
-53
-53
-53
-54
-54
-56
-55
-57
-57
-58
-58
-59
-60
-61
-62
-62
-63
-65
-64
-66
-67
-67
-69
-69
-70
-72
-72
-73
-74
-75
-75
-77
-78
-79
-80
-80
-81
-82
-83
-84
-84
-86
-86
-87
-88
-88
-89
-89
-90
-91
-92
-92
-92
-93
-93
-94
-95
-95
-95
-96
-96
-96
-97
-98
-98
-99
-99
-100
-101
-101
-102
-102
-103
-104
-105
-105
-105
-106
-106
-107
-108
-109
-109
-109
-110
-110
-111
-111
-111
-112
-112
-112
-113
-114
-114
-114
-115
-115
-115
-115
-115
-116
-116
-116
-116
-116
-116
-116
-116
-116
-117
-117
-117
-117
-117
-117
-117
-117
-117
-117
-118
-118
-118
-118
-118
-118
-118
-118
-119
-119
-119
-119
-119
-119
-119
-119
-120
-120
-120
-120
-120
-120
-120
-120
-120
-120
-121
-121
-120
-120
-120
-120
-120
-121
-121
-121
-121
-121
-121
-121
-121
-121
-121
-122
-122
-122
-122
-122
-122
-122
-122
-122
-122
-122
-121
-121
-121
-121
-121
-121
-121
-121
-121
-121
-121
-121
-121
-121
-121
-121
-121
-120
-120
-120
-120
-120
-120
-120
-120
-120
-120
-120
-120
-120
-120
-120
-120
-120
-120
-120
-120
-120
-120
-120
-120
-120
-120
-120
-120
-120
-120
-120
-120
-120
-120
-120
-120
-120
-120
-120
-120
-120
-120
-120
-120
-120
-120
-120
-120
-120
-120
-120
-120
-120
-120
-120
-120
-120
-120
-120
-120
-120
-120
-120
-120
-120
-120
-120
-120
-120
-120
-120
-120
-120
-120
-120
-120
-120
-120
-119
-119
-119
-119
-119
-119
-119
-119
-119
-119
-119
-119
-119
-119
-120
-120
-120
-120
-120
-120
-120
-120
-120
-120
-120
-120
-120
-120
-120
-121
-121
-121
-121
-121
-121
-121
-121
-121
-121
-122
-122
-122
-122
-122
-122
-122
-122
-122
-122
-122
-122
-122
-122
-122
-121
-121
-121
-121
-121
-121
-121
-122
-122
-122
-122
-122
-122
-122
-122
-122
-122
-122
-122
-122
-122
-122
-122
-122
-122
-122
-121
-121
-121
-121
-121
-121
-121
-121
-121
-121
-121
-121
-122
-122
-122
-122
-122
-122
-122
-122
-122
-122
-121
-121
-122
-122
-122
-122
-122
-122
-122
-122
-122
-122
-122
-122
-122
-122
-122
-122
-122
-122
-122
-122
-122
-123
-123
-123
-122
-122
-122
-122
-122
-122
-122
-122
-122
-122
-122
-122
-122
-122
-122
-122
-122
-123
-123
-123
-123
-123
-123
-123
-123
-123
-123
-123
-123
-123
-123
-123
-123
-123
-123
-123
-123
-123
-123
-123
-123
-123
-123
-123
-124
-124
-124
-124
-124
-124
-123
-123
-123
-124
-124
-124
-124
-124
-123
-123
-123
-123
-123
-123
-123
-123
-123
-123
-123
-123
-123
-123
-123
-123
-123
-123
-123
-123
-123
-123
-123
-123
-123
-123
-123
-123
-123
-123
-123
-123
-123
-123
-123
-123
-123
-124
-124
-124
-124
-124
-123
-123
-123
-123
-123
-123
-123
-123
-124
-124
-124
-124
-124
-124
-124
-124
-124
-124
-124
-124
-124
-124
-124
-124
-124
-124
-124
-124
-124
-124
-124
-124
-124
-123
-123
-123
-124
-124
-124
-124
-124
-124
-123
-123
-123
-123
-123
-123
-123
-123
-123
-123
-123
-123
-123
-123
-123
-123
-123
-123
-123
-123
-123
-123
-123
-123
-123
-123
-123
-123
-123
-123
-123
-123
-123
-123
-124
-124
-124
-124
-124
-123
-123
-123
-123
-123
-123
-123
-123
-123
-123
-123
-124
-124
-124
-124
-124
-124
-123
-123
-123
-123
-123
-123
-123
-123
-123
-123
-123
-123
-123
-123
-123
-123
-123
-122
-122
-123
-123
-123
-122
-122
-122
-121
-121
-121
-121
-122
-121
-121
-121
-121
-120
-120
-120
-120
-120
-119
-119
-118
-118
-118
-117
-117
-117
-117
-117
-117
-116
-116
-115
-115
-115
-115
-115
-114
-114
-114
-113
-113
-112
-112
-113
-112
-112
-111
-111
-110
-110
-109
-109
-108
-109
-109
-108
-108
-108
-108
-107
-107
-108
-108
-108
-107
-108
-109
-109
-108
-108
-108
-109
-109
-109
-109
-109
-110
-110
-110
-110
-110
-110
-110
-110
-111
-111
-111
-111
-111
-112
-112
-112
-112
-113
-113
-114
-114
-114
-114
-115
-116
-116
-116
-117
-117
-117
-119
-119
-119
-120
-120
-120
-120
-121
-121
-121
-122
-123
-123
-123
-123
-123
-124
-124
-123
-123
-123
-124
-124
-124
-124
-124
-124
-125
-125
-124
-124
-124
-124
-124
-125
-125
-124
-124
-125
-124
-125
-125
-125
-125
-126
-127
-127
-128
-128
-129
-130
-131
-131
-131
-131
-132
-132
-132
-130
-130
-127
-125
-121
-118
-113
-108
-102
-94
-87
-78
-69
-60
-49
-37
-25
-12
1
13
27
40
52
64
74
85
94
101
108
112
116
118
118
117
115
111
107
101
93
85
76
65
55
45
34
23
13
3
-6
-15
-25
-32
-39
-47
-53
-59
-64
-69
-73
-77
-81
-84
-87
-90
-92
-94
-97
-99
-101
-103
-105
-106
-108
-109
-110
-111
-113
-114
-115
-116
-117
-118
-119
-119
-120
-121
-121
-122
-122
-123
-123
-124
-124
-124
-124
-124
-124
-125
-125
-125
-125
-124
-125
-125
-125
-125
-125
-125
-125
-125
-125
-125
-125
-125
-125
-125
-125
-125
-125
-124
-124
-124
-124
-124
-124
-124
-124
-124
-124
-124
-124
-123
-123
-123
-124
-124
-124
-124
-124
-124
-124
-124
-124
-124
-124
-124
-124
-125
-124
-124
-124
-124
-124
-124
-124
-124
-123
-123
-123
-123
-123
-123
-122
-122
-122
-122
-122
-122
-122
-122
-122
-121
-121
-121
-121
-121
-121
-121
-120
-120
-120
-120
-120
-120
-120
-120
-120
-120
-119
-119
-119
-119
-119
-119
-119
-119
-119
-119
-119
-119
-118
-118
-118
-118
-118
-118
-119
-119
-119
-118
-118
-118
-118
-118
-117
-117
-117
-117
-116
-116
-115
-115
-115
-115
-115
-114
-114
-114
-114
-114
-114
-113
-113
-113
-113
-113
-113
-112
-112
-113
-113
-113
-112
-112
-112
-112
-112
-112
-112
-112
-112
-111
-111
-111
-111
-110
-110
-110
-110
-109
-109
-109
-109
-107
-107
-107
-107
-106
-106
-106
-106
-106
-105
-105
-105
-105
-104
-104
-103
-103
-103
-102
-102
-102
-102
-100
-100
-100
-99
-99
-99
-99
-98
-97
-97
-96
-96
-95
-95
-94
-94
-94
-93
-93
-92
-92
-92
-91
-91
-91
-90
-90
-90
-89
-89
-89
-87
-87
-87
-87
-86
-86
-86
-85
-85
-85
-85
-85
-85
-85
-85
-85
-85
-85
-85
-85
-85
-85
-84
-84
-84
-84
-84
-84
-84
-84
-83
-83
-83
-83
-84
-84
-84
-85
-85
-85
-86
-86
-86
-87
-88
-89
-89
-91
-91
-92
-93
-94
-94
-95
-96
-97
-98
-98
-99
-100
-101
-101
-102
-102
-104
-105
-105
-106
-107
-107
-109
-110
-110
-111
-111
-113
-114
-114
-116
-116
-117
-117
-118
-118
-120
-120
-120
-121
-121
-121
-123
-123
-124
-124
-124
-125
-126
-126
-127
-127
-127
-127
-128
-128
-129
-129
-130
-130
-130
-130
-131
-131
-132
-132
-132
-133
-133
-133
-133
-133
-133
-133
-133
-133
-134
-134
-134
-134
-134
-134
-133
-133
-133
-134
-134
-134
-134
-134
-134
-134
-134
-134
-134
-134
-133
-133
-133
-133
-133
-133
-134
-134
-134
-134
-134
-133
-133
-133
-134
-134
-134
-134
-134
-134
-134
-135
-135
-135
-135
-135
-135
-135
-136
-135
-135
-135
-135
-135
-135
-135
-135
-135
-135
-135
-135
-135
-135
-135
-135
-135
-135
-135
-135
-135
-135
-135
-135
-135
-135
-135
-135
-135
-135
-135
-135
-134
-134
-134
-134
-134
-134
-134
-134
-134
-134
-134
-134
-134
-134
-134
-134
-134
-134
-134
-134
-134
-133
-133
-133
-133
-133
-132
-132
-132
-132
-132
-132
-132
-132
-132
-132
-132
-131
-131
-131
-132
-132
-132
-132
-132
-132
-132
-132
-132
-132
-132
-132
-132
-132
-132
-131
-130
-130
-130
-130
-130
-130
-130
-130
-130
-130
-130
-131
-131
-131
-131
-131
-131
-131
-131
-130
-130
-130
-130
-130
-130
-130
-130
-131
-131
-131
-131
-131
-131
-131
-131
-131
-132
-132
-131
-131
-131
-131
-132
-132
-132
-132
-132
-132
-132
-132
-132
-132
-132
-132
-132
-132
-133
-133
-133
-133
-133
-133
-133
-133
-133
-134
-134
-134
-134
-134
-134
-134
-133
-133
-133
-133
-133
-133
-133
-133
-133
-132
-132
-132
-132
-132
-132
-132
-132
-131
-131
-131
-131
-131
-131
-131
-132
-132
-132
-132
-132
-132
-132
-132
-133
-133
-133
-133
-133
-133
-133
-133
-133
-133
-133
-133
-133
-133
-133
-133
-133
-133
-133
-134
-134
-134
-134
-134
-133
-134
-134
-134
-134
-134
-134
-134
-134
-134
-134
-134
-134
-134
-133
-133
-133
-133
-133
-133
-133
-133
-133
-133
-133
-133
-133
-133
-133
-133
-134
-134
-134
-134
-134
-134
-134
-134
-134
-134
-134
-134
-133
-133
-133
-133
-133
-134
-134
-134
-134
-134
-134
-133
-133
-133
-134
-134
-134
-134
-134
-134
-134
-134
-134
-135
-135
-134
-134
-134
-134
-134
-134
-134
-134
-134
-134
-134
-134
-134
-134
-134
-134
-134
-134
-134
-134
-134
-134
-134
-134
-134
-134
-134
-134
-134
-134
-134
-134
-134
-134
-134
-134
-134
-135
-135
-135
-135
-135
-135
-135
-135
-135
-135
-136
-136
-136
-136
-136
-135
-135
-136
-136
-136
-136
-136
-136
-136
-137
-137
-137
-137
-137
-137
-136
-136
-136
-136
-136
-136
-136
-136
-136
-135
-135
-135
-135
-135
-135
-135
-135
-135
-135
-136
-136
-136
-136
-136
-137
-137
-137
-137
-137
-137
-137
-137
-137
-137
-137
-137
-137
-137
-136
-136
-136
-136
-135
-135
-135
-135
-136
-136
-135
-135
-135
-135
-135
-135
-135
-135
-135
-136
-136
-136
-136
-136
-136
-136
-136
-136
-136
-136
-136
-136
-136
-136
-136
-136
-136
-136
-135
-135
-135
-135
-135
-135
-135
-135
-135
-135
-135
-135
-135
-134
-134
-134
-134
-134
-134
-133
-133
-132
-132
-132
-132
-131
-132
-132
-131
-131
-131
-130
-131
-131
-131
-130
-130
-130
-130
-130
-129
-129
-129
-129
-129
-129
-129
-129
-129
-128
-128
-128
-128
-128
-127
-126
-126
-126
-125
-125
-124
-124
-124
-124
-123
-123
-123
-123
-122
-122
-122
-122
-122
-121
-121
-122
-121
-121
-122
-122
-122
-122
-122
-122
-122
-123
-123
-123
-123
-124
-124
-124
-125
-125
-124
-125
-125
-125
-125
-125
-126
-126
-127
-127
-127
-127
-127
-127
-127
-128
-128
-128
-129
-129
-129
-129
-130
-130
-130
-131
-131
-132
-132
-132
-133
-133
-133
-134
-134
-134
-134
-135
-135
-136
-136
-135
-135
-135
-135
-135
-135
-135
-135
-136
-136
-136
-136
-136
-136
-137
-136
-136
-136
-137
-137
-137
-137
-136
-137
-137
-137
-137
-138
-137
-138
-138
-138
-139
-139
-140
-140
-142
-142
-143
-144
-145
-146
-146
-147
-148
-148
-147
-147
-145
-143
-140
-138
-134
-129
-124
-117
-110
-101
-93
-83
-72
-61
-49
-36
-23
-9
5
19
33
46
60
71
82
92
101
109
115
118
120
122
121
119
115
111
105
96
88
78
67
56
46
34
22
11
0
-11
-20
-30
-38
-46
-53
-60
-66
-71
-77
-81
-86
-89
-92
-96
-99
-101
-104
-105
-107
-109
-110
-112
-114
-115
-116
-118
-118
-120
-121
-122
-123
-123
-125
-125
-125
-126
-127
-127
-127
-128
-129
-129
-129
-129
-129
-130
-130
-130
-130
-130
-131
-131
-132
-132
-132
-131
-131
-131
-132
-132
-132
-132
-132
-132
-132
-133
-133
-133
-133
-133
-133
-133
-133
-133
-133
-134
-134
-134
-134
-134
-133
-133
-133
-133
-133
-133
-133
-133
-133
-132
-132
-132
-132
-132
-132
-132
-131
-132
-132
-132
-131
-131
-131
-131
-130
-130
-130
-130
-130
-130
-130
-130
-129
-129
-129
-129
-129
-130
-130
-129
-129
-129
-128
-128
-128
-128
-128
-128
-128
-128
-128
-128
-128
-128
-128
-127
-127
-127
-127
-127
-127
-127
-127
-127
-127
-127
-127
-127
-127
-127
-127
-127
-125
-125
-125
-125
-125
-125
-125
-125
-125
-125
-124
-124
-124
-124
-124
-124
-124
-124
-124
-123
-123
-122
-122
-122
-122
-121
-121
-120
-120
-120
-120
-119
-119
-119
-118
-118
-118
-117
-117
-117
-116
-116
-115
-114
-114
-114
-114
-114
-114
-113
-112
-112
-112
-112
-112
-111
-111
-111
-111
-110
-110
-109
-109
-109
-108
-108
-108
-108
-108
-107
-107
-107
-106
-106
-105
-105
-105
-105
-104
-103
-103
-103
-103
-102
-102
-101
-100
-100
-100
-99
-99
-98
-97
-97
-96
-96
-96
-95
-95
-95
-93
-93
-93
-93
-92
-92
-92
-91
-91
-90
-90
-89
-89
-89
-88
-88
-88
-88
-87
-87
-87
-86
-86
-86
-85
-85
-85
-85
-84
-84
-84
-84
-84
-84
-84
-83
-83
-83
-83
-83
-83
-83
-83
-83
-83
-84
-84
-84
-84
-84
-84
-85
-85
-85
-85
-86
-86
-87
-87
-88
-89
-88
-90
-90
-91
-92
-92
-93
-93
-94
-95
-96
-97
-98
-99
-99
-100
-102
-102
-103
-103
-104
-106
-106
-107
-107
-109
-109
-110
-110
-111
-112
-113
-113
-114
-114
-115
-115
-116
-117
-117
-117
-118
-118
-119
-120
-120
-120
-120
-121
-122
-122
-122
-123
-123
-123
-123
-124
-125
-125
-125
-125
-126
-126
-126
-126
-126
-127
-128
-128
-128
-128
-128
-128
-128
-128
-128
-128
-128
-128
-128
-128
-128
-128
-127
-127
-127
-127
-127
-127
-127
-127
-126
-126
-126
-126
-126
-126
-126
-127
-127
-127
-127
-126
-126
-126
-126
-126
-126
-126
-126
-126
-126
-127
-127
-127
-127
-127
-127
-127
-127
-127
-127
-126
-126
-126
-126
-126
-126
-126
-126
-126
-126
-126
-126
-126
-126
-126
-126
-125
-125
-125
-125
-125
-125
-125
-125
-125
-125
-125
-125
-125
-125
-125
-125
-125
-125
-124
-124
-124
-124
-124
-124
-124
-124
-124
-124
-123
-123
-123
-123
-123
-123
-123
-122
-122
-122
-122
-122
-122
-122
-122
-122
-121
-121
-121
-121
-121
-121
-121
-121
-121
-121
-121
-121
-121
-121
-120
-120
-120
-120
-120
-120
-120
-120
-119
-119
-119
-119
-119
-119
-119
-119
-118
-118
-118
-118
-118
-118
-118
-118
-118
-118
-118
-118
-118
-118
-118
-118
-118
-118
-118
-118
-118
-118
-118
-118
-118
-118
-119
-119
-119
-119
-119
-119
-119
-119
-119
-119
-119
-118
-118
-118
-118
-118
-118
-118
-118
-118
-118
-118
-118
-118
-118
-118
-118
-118
-118
-118
-119
-119
-119
-119
-119
-119
-119
-119
-118
-118
-118
-118
-118
-118
-118
-118
-118
-118
-118
-118
-118
-118
-118
-118
-118
-118
-118
-118
-118
-118
-118
-118
-118
-118
-118
-118
-118
-118
-118
-118
-118
-118
-118
-118
-118
-118
-118
-118
-118
-119
-119
-119
-119
-119
-119
-119
-119
-119
-119
-119
-119
-119
-119
-119
-119
-119
-119
-119
-119
-119
-119
-119
-119
-119
-119
-119
-119
-119
-119
-119
-119
-119
-119
-119
-119
-119
-119
-119
-119
-119
-119
-119
-119
-119
-119
-119
-119
-119
-119
-119
-119
-119
-119
-119
-119
-119
-119
-119
-119
-119
-119
-119
-119
-120
-120
-120
-120
-120
-120
-120
-120
-120
-120
-119
-119
-119
-119
-119
-119
-119
-119
-119
-119
-119
-119
-119
-119
-120
-120
-120
-120
-120
-120
-120
-120
-120
-120
-120
-120
-120
-120
-120
-120
-120
-120
-120
-120
-120
-120
-120
-120
-120
-119
-119
-119
-119
-119
-120
-120
-120
-120
-119
-119
-119
-119
-119
-119
-119
-119
-119
-119
-119
-119
-119
-119
-118
-118
-118
-119
-119
-119
-118
-118
-118
-118
-118
-119
-119
-119
-118
-118
-118
-119
-119
-118
-118
-119
-119
-119
-119
-119
-119
-119
-119
-119
-119
-119
-119
-119
-119
-119
-119
-119
-119
-119
-119
-119
-119
-119
-119
-118
-118
-118
-118
-118
-119
-119
-119
-119
-119
-119
-119
-119
-119
-119
-119
-119
-119
-119
-119
-119
-119
-118
-118
-118
-118
-118
-118
-118
-118
-118
-118
-118
-117
-117
-117
-117
-117
-117
-117
-117
-117
-117
-118
-118
-117
-117
-117
-117
-117
-117
-117
-117
-117
-117
-117
-117
-117
-117
-117
-117
-116
-116
-116
-116
-116
-116
-116
-115
-115
-115
-115
-114
-114
-114
-114
-114
-113
-113
-113
-113
-112
-112
-112
-112
-111
-112
-112
-111
-111
-111
-111
-111
-110
-110
-110
-111
-111
-110
-110
-110
-110
-109
-109
-109
-108
-108
-108
-108
-108
-107
-107
-107
-106
-106
-105
-105
-104
-104
-103
-104
-103
-102
-102
-102
-102
-101
-101
-101
-100
-101
-100
-100
-100
-100
-100
-100
-101
-100
-100
-100
-100
-100
-100
-100
-101
-101
-101
-101
-101
-101
-101
-102
-102
-102
-102
-102
-103
-103
-103
-103
-103
-103
-104
-104
-104
-105
-105
-105
-105
-106
-106
-106
-107
-108
-108
-108
-108
-110
-110
-110
-110
-110
-111
-112
-112
-112
-112
-113
-114
-114
-114
-114
-115
-115
-115
-115
-115
-115
-115
-115
-116
-116
-116
-116
-116
-116
-116
-116
-116
-115
-115
-115
-115
-115
-115
-115
-115
-115
-115
-115
-114
-115
-115
-116
-116
-117
-117
-118
-119
-120
-120
-121
-122
-123
-124
-125
-124
-125
-124
-123
-123
-120
-118
-115
-111
-106
-101
-95
-88
-80
-71
-61
-50
-39
-28
-15
-2
11
26
40
53
66
79
90
102
112
120
127
133
136
140
141
140
139
135
132
126
120
111
102
93
82
72
61
50
40
29
19
10
1
-8
-15
-22
-29
-35
-41
-46
-52
-57
-61
-65
-68
-71
-74
-77
-80
-82
-84
-87
-89
-91
-92
-94
-96
-98
-99
-101
-102
-102
-103
-105
-105
-106
-106
-107
-107
-108
-109
-109
-109
-109
-110
-110
-110
-110
-110
-110
-111
-111
-111
-112
-112
-112
-112
-112
-113
-113
-113
-113
-113
-113
-113
-113
-113
-113
-113
-113
-113
-113
-113
-113
-113
-113
-113
-113
-113
-113
-113
-113
-113
-113
-113
-113
-113
-113
-113
-113
-112
-112
-112
-112
-112
-112
-112
-112
-111
-111
-111
-111
-111
-110
-110
-110
-111
-111
-110
-110
-110
-110
-109
-109
-109
-108
-108
-108
-108
-107
-107
-107
-107
-107
-107
-107
-107
-107
-107
-107
-107
-107
-107
-107
-106
-106
-106
-106
-106
-106
-106
-106
-106
-106
-106
-105
-105
-105
-104
-104
-104
-104
-104
-104
-104
-104
-104
-104
-103
-103
-103
-103
-103
-103
-103
-103
-102
-102
-102
-102
-101
-101
-101
-101
-101
-101
-101
-101
-101
-101
-100
-100
-100
-99
-99
-99
-99
-98
-98
-98
-98
-98
-98
-96
-96
-96
-96
-96
-96
-94
-94
-94
-94
-94
-94
-93
-93
-93
-92
-92
-92
-91
-91
-90
-90
-90
-89
-89
-89
-89
-88
-87
-87
-87
-87
-87
-85
-85
-85
-84
-84
-83
-83
-83
-82
-81
-81
-81
-81
-80
-79
-79
-79
-79
-78
-77
-77
-77
-77
-76
-75
-75
-75
-74
-74
-74
-73
-73
-72
-72
-71
-70
-70
-70
-69
-69
-69
-68
-68
-68
-67
-67
-66
-66
-66
-66
-66
-65
-64
-64
-64
-64
-64
-64
-64
-64
-64
-64
-64
-64
-63
-63
-63
-63
-63
-63
-63
-64
-64
-64
-65
-65
-65
-65
-66
-66
-66
-66
-67
-68
-68
-68
-68
-69
-70
-70
-71
-71
-73
-73
-73
-75
-75
-76
-76
-78
-78
-79
-80
-81
-82
-82
-84
-84
-86
-86
-87
-87
-89
-90
-90
-91
-92
-93
-93
-94
-95
-96
-96
-97
-98
-98
-98
-100
-100
-100
-101
-102
-102
-102
-103
-104
-104
-104
-105
-105
-105
-106
-107
-107
-107
-107
-108
-109
-109
-109
-109
-110
-110
-110
-111
-111
-111
-111
-112
-112
-112
-112
-112
-112
-113
-113
-113
-113
-113
-113
-113
-113
-113
-113
-113
-113
-113
-113
-113
-114
-114
-114
-114
-114
-114
-114
-114
-114
-114
-114
-114
-114
-114
-114
-115
-115
-115
-115
-115
-115
-115
-115
-115
-115
-115
-115
-115
-115
-115
-115
-116
-116
-116
-116
-116
-116
-116
-116
-116
-116
-115
-115
-115
-115
-115
-115
-115
-115
-115
-114
-114
-114
-114
-114
-115
-115
-115
-115
-115
-115
-115
-115
-115
-115
-115
-115
-115
-115
-115
-115
-114
-114
-114
-114
-114
-114
-114
-114
-114
-114
-114
-113
-113
-113
-113
-113
-113
-113
-113
-113
-113
-113
-113
-113
-113
-113
-113
-113
-112
-112
-112
-112
-112
-112
-112
-112
-112
-112
-112
-112
-112
-111
-111
-111
-112
-112
-112
-112
-112
-112
-112
-113
-113
-113
-113
-113
-113
-113
-113
-113
-113
-113
-113
-113
-113
-113
-113
-113
-113
-113
-113
-112
-112
-112
-112
-112
-112
-112
-112
-112
-112
-112
-112
-112
-112
-112
-112
-112
-112
-112
-112
-112
-112
-112
-112
-112
-112
-112
-112
-112
-113
-113
-113
-113
-113
-113
-113
-113
-113
-113
-113
-113
-113
-113
-113
-113
-113
-113
-113
-113
-113
-113
-113
-114
-114
-114
-114
-114
-114
-114
-114
-114
-114
-114
-114
-114
-114
-114
-114
-114
-114
-114
-114
-114
-114
-114
-114
-114
-114
-114
-114
-114
-114
-114
-114
-114
-114
-114
-114
-114
-114
-113
-113
-113
-113
-113
-113
-113
-113
-112
-112
-112
-112
-112
-112
-113
-112
-112
-112
-112
-112
-112
-112
-112
-112
-112
-113
-113
-113
-113
-113
-113
-113
-113
-113
-113
-113
-113
-113
-113
-113
-113
-113
-113
-113
-113
-113
-113
-113
-113
-113
-113
-113
-113
-112
-112
-112
-112
-112
-112
-112
-112
-112
-112
-113
-113
-113
-113
-113
-113
-113
-113
-113
-113
-113
-113
-113
-113
-112
-112
-112
-112
-112
-112
-112
-112
-112
-112
-112
-113
-113
-113
-113
-113
-113
-113
-113
-114
-114
-114
-114
-114
-114
-114
-114
-114
-114
-114
-115
-115
-115
-115
-114
-114
-114
-114
-114
-114
-114
-114
-114
-114
-114
-114
-114
-114
-114
-114
-114
-114
-114
-115
-115
-115
-115
-115
-114
-114
-114
-114
-114
-114
-114
-114
-114
-114
-114
-114
-114
-114
-114
-114
-114
-114
-114
-114
-114
-114
-114
-114
-114
-114
-113
-113
-113
-113
-113
-113
-113
-113
-113
-113
-113
-113
-113
-113
-113
-113
-113
-112
-112
-112
-112
-112
-112
-112
-112
-112
-112
-111
-111
-111
-111
-111
-111
-111
-111
-111
-111
-111
-111
-111
-111
-111
-111
-110
-110
-110
-111
-111
-111
-111
-111
-111
-111
-111
-111
-111
-111
-111
-111
-111
-111
-111
-110
-110
-110
-110
-110
-111
-111
-111
-111
-111
-111
-111
-111
-111
-111
-111
-111
-111
-110
-110
-110
-110
-110
-110
-110
-109
-109
-109
-109
-108
-108
-108
-107
-107
-107
-107
-107
-107
-107
-106
-106
-106
-106
-106
-105
-105
-105
-106
-106
-106
-106
-105
-105
-105
-105
-105
-105
-105
-105
-104
-104
-104
-104
-104
-104
-103
-103
-103
-103
-102
-102
-101
-101
-100
-100
-100
-100
-99
-99
-99
-98
-98
-98
-98
-98
-97
-98
-98
-97
-97
-97
-97
-97
-98
-98
-98
-98
-98
-99
-99
-99
-99
-99
-99
-99
-100
-100
-100
-100
-100
-100
-100
-100
-100
-101
-101
-101
-101
-101
-103
-103
-103
-103
-104
-104
-104
-104
-105
-105
-106
-106
-106
-108
-108
-108
-108
-108
-108
-110
-110
-110
-110
-110
-110
-110
-111
-111
-111
-111
-111
-111
-111
-111
-111
-111
-111
-110
-110
-110
-110
-110
-110
-110
-110
-110
-110
-110
-110
-111
-111
-111
-111
-111
-111
-112
-111
-112
-112
-112
-113
-114
-114
-115
-116
-117
-118
-118
-119
-120
-120
-120
-120
-120
-119
-118
-117
-114
-111
-108
-103
-98
-92
-86
-78
-70
-60
-50
-39
-28
-16
-3
10
24
37
50
63
75
87
98
108
117
122
129
133
135
137
137
135
132
128
123
116
109
101
92
81
71
60
50
39
29
20
10
1
-7
-15
-22
-29
-35
-40
-46
-50
-55
-59
-63
-65
-69
-72
-74
-77
-79
-81
-83
-85
-87
-88
-90
-91
-92
-93
-94
-96
-96
-97
-98
-98
-100
-100
-100
-101
-101
-102
-102
-102
-103
-103
-103
-103
-104
-105
-105
-105
-105
-105
-106
-106
-106
-106
-106
-106
-106
-107
-107
-107
-107
-107
-107
-107
-108
-108
-108
-108
-108
-108
-108
-108
-108
-108
-108
-108
-107
-107
-107
-107
-107
-107
-107
-107
-107
-107
-107
-106
-106
-106
-106
-106
-106
-106
-106
-106
-106
-106
-106
-105
-105
-105
-106
-106
-106
-106
-106
-105
-105
-105
-104
-104
-104
-104
-104
-104
-104
-104
-104
-104
-103
-102
-103
-103
-103
-103
-103
-103
-103
-103
-103
-102
-102
-102
-102
-102
-102
-102
-102
-101
-101
-101
-101
-101
-101
-101
-101
-100
-100
-100
-100
-99
-99
-99
-99
-99
-99
-98
-98
-98
-98
-97
-96
-96
-96
-96
-96
-95
-94
-94
-94
-94
-93
-93
-93
-93
-93
-92
-92
-92
-91
-91
-91
-90
-90
-90
-90
-90
-88
-88
-88
-88
-87
-86
-86
-86
-86
-85
-85
-85
-85
-84
-83
-83
-83
-83
-83
-82
-81
-81
-81
-80
-80
-80
-80
-80
-79
-78
-78
-77
-77
-77
-77
-76
-76
-76
-75
-75
-74
-74
-73
-73
-73
-72
-71
-71
-71
-70
-70
-70
-69
-69
-68
-67
-67
-67
-67
-66
-66
-66
-65
-65
-64
-63
-63
-63
-63
-62
-62
-61
-60
-60
-60
-60
-59
-59
-59
-58
-58
-58
-57
-57
-57
-57
-56
-55
-55
-54
-54
-54
-55
-55
-54
-54
-54
-53
-53
-53
-53
-53
-53
-53
-53
-53
-53
-53
-53
-53
-53
-53
-53
-53
-55
-55
-55
-55
-56
-56
-57
-58
-58
-59
-60
-61
-61
-62
-62
-64
-65
-65
-67
-68
-68
-69
-70
-71
-72
-72
-73
-74
-75
-76
-77
-78
-78
-80
-80
-81
-82
-83
-83
-84
-85
-85
-86
-87
-87
-88
-89
-89
-90
-91
-91
-92
-92
-92
-93
-94
-94
-94
-95
-96
-96
-96
-97
-97
-97
-98
-98
-99
-99
-99
-99
-100
-100
-101
-101
-101
-101
-101
-102
-102
-102
-102
-102
-102
-102
-102
-102
-103
-103
-104
-104
-104
-104
-104
-104
-104
-104
-104
-104
-104
-104
-104
-104
-104
-104
-104
-104
-104
-104
-104
-104
-104
-104
-104
-104
-104
-104
-104
-104
-105
-105
-105
-105
-105
-105
-105
-106
-106
-106
-106
-106
-106
-106
-106
-106
-106
-106
-106
-106
-106
-106
-106
-106
-106
-106
-106
-106
-106
-106
-105
-105
-105
-105
-105
-105
-105
-106
-106
-106
-106
-107
-107
-107
