# Simple Text Format
# Sampling Rate (Hz):= 1200.00
# Resolution:= 12
# Labels:= ECG	 V3
# Age:=	60
# Gender:=	Masculino
-186
-187
-188
-190
-191
-192
-193
-194
-195
-196
-197
-198
-199
-200
-200
-202
-203
-203
-204
-204
-205
-206
-207
-207
-208
-209
-210
-210
-210
-211
-211
-212
-213
-214
-214
-214
-215
-215
-215
-217
-216
-217
-217
-218
-218
-219
-219
-219
-219
-220
-220
-220
-220
-220
-220
-221
-221
-221
-221
-221
-221
-221
-221
-221
-221
-221
-221
-221
-222
-222
-222
-221
-221
-221
-221
-221
-221
-221
-221
-221
-221
-221
-221
-221
-221
-221
-221
-220
-221
-221
-221
-221
-221
-221
-221
-221
-221
-221
-221
-221
-221
-221
-221
-220
-220
-220
-220
-220
-220
-220
-221
-221
-221
-220
-220
-220
-220
-220
-220
-220
-220
-220
-220
-220
-219
-219
-219
-219
-219
-219
-219
-218
-219
-219
-219
-219
-219
-218
-218
-218
-218
-218
-218
-218
-218
-217
-217
-217
-217
-217
-217
-217
-217
-217
-217
-217
-217
-217
-216
-216
-216
-216
-216
-216
-216
-217
-217
-217
-217
-217
-217
-217
-217
-217
-217
-217
-217
-217
-217
-217
-217
-217
-217
-217
-217
-217
-216
-216
-216
-216
-216
-216
-216
-216
-216
-216
-216
-216
-216
-216
-216
-216
-216
-216
-216
-216
-216
-216
-216
-216
-216
-216
-216
-216
-216
-216
-216
-216
-217
-217
-217
-217
-217
-217
-217
-217
-217
-216
-216
-216
-215
-216
-216
-216
-216
-215
-215
-216
-216
-216
-216
-216
-216
-216
-216
-216
-216
-216
-217
-217
-217
-217
-217
-217
-217
-217
-217
-217
-218
-218
-218
-219
-219
-219
-219
-219
-219
-219
-219
-219
-219
-219
-219
-219
-220
-220
-220
-220
-220
-221
-221
-221
-221
-221
-221
-221
-221
-221
-221
-220
-220
-220
-220
-220
-220
-220
-220
-220
-220
-220
-220
-220
-220
-220
-220
-220
-220
-220
-220
-220
-221
-221
-221
-221
-221
-221
-221
-221
-221
-221
-221
-221
-221
-220
-220
-220
-221
-221
-221
-221
-221
-221
-221
-222
-222
-222
-221
-221
-221
-221
-221
-221
-221
-221
-221
-221
-221
-221
-221
-220
-220
-220
-220
-220
-220
-220
-220
-220
-220
-220
-220
-220
-220
-220
-220
-220
-220
-220
-220
-220
-220
-220
-219
-219
-220
-220
-220
-220
-220
-220
-220
-221
-221
-220
-220
-220
-220
-220
-220
-220
-220
-220
-220
-220
-220
-220
-220
-220
-220
-220
-220
-219
-219
-219
-219
-219
-219
-219
-219
-219
-218
-218
-218
-218
-218
-218
-218
-217
-217
-217
-217
-218
-218
-218
-217
-217
-217
-217
-217
-217
-217
-218
-217
-217
-217
-217
-217
-217
-217
-217
-217
-217
-217
-217
-217
-217
-217
-217
-217
-217
-217
-217
-217
-216
-216
-216
-216
-216
-216
-216
-216
-216
-216
-216
-216
-215
-215
-215
-215
-215
-215
-215
-215
-215
-215
-215
-215
-215
-214
-214
-214
-214
-214
-214
-214
-214
-214
-215
-214
-214
-214
-214
-213
-213
-214
-214
-214
-214
-214
-214
-214
-214
-213
-213
-213
-213
-213
-213
-213
-213
-213
-213
-212
-212
-212
-212
-213
-213
-212
-212
-212
-212
-212
-212
-212
-211
-211
-211
-211
-211
-211
-211
-210
-210
-210
-210
-210
-210
-210
-210
-210
-210
-210
-210
-210
-210
-209
-209
-209
-209
-209
-209
-209
-209
-209
-209
-208
-207
-207
-207
-207
-206
-206
-206
-206
-205
-205
-205
-204
-204
-203
-203
-203
-203
-203
-202
-202
-201
-201
-201
-201
-200
-200
-200
-200
-199
-198
-198
-198
-198
-198
-197
-197
-197
-197
-197
-197
-197
-197
-197
-196
-196
-197
-197
-197
-196
-196
-196
-196
-197
-196
-196
-196
-196
-196
-196
-196
-197
-196
-196
-196
-196
-197
-197
-198
-198
-198
-198
-199
-199
-200
-200
-201
-201
-202
-202
-203
-203
-203
-204
-204
-204
-204
-204
-204
-204
-204
-203
-204
-204
-203
-203
-203
-202
-203
-203
-202
-202
-203
-202
-202
-202
-202
-202
-203
-203
-203
-203
-203
-203
-204
-204
-204
-204
-204
-204
-205
-205
-205
-206
-206
-206
-206
-205
-205
-205
-205
-205
-206
-206
-205
-205
-205
-205
-205
-204
-204
-204
-204
-204
-203
-203
-203
-203
-203
-202
-201
-200
-200
-198
-196
-195
-192
-188
-184
-181
-176
-172
-165
-159
-152
-144
-135
-126
-115
-104
-92
-81
-68
-55
-41
-28
-14
-2
10
21
31
41
47
53
55
56
55
50
43
33
20
5
-13
-33
-57
-82
-109
-137
-166
-196
-227
-258
-289
-318
-345
-371
-395
-418
-437
-455
-470
-483
-492
-499
-502
-504
-503
-499
-493
-485
-475
-464
-451
-438
-423
-408
-392
-377
-361
-346
-330
-316
-301
-287
-275
-263
-253
-243
-234
-226
-219
-213
-207
-203
-198
-195
-192
-190
-188
-187
-185
-184
-183
-184
-183
-182
-183
-183
-182
-182
-181
-181
-180
-180
-180
-180
-179
-179
-178
-178
-177
-177
-176
-176
-176
-176
-175
-174
-174
-174
-174
-174
-173
-173
-173
-172
-172
-171
-171
-171
-170
-170
-169
-169
-168
-168
-168
-169
-167
-167
-167
-167
-166
-166
-166
-166
-165
-165
-165
-165
-164
-164
-164
-164
-164
-163
-163
-163
-162
-162
-162
-162
-162
-161
-161
-161
-160
-159
-159
-159
-159
-159
-158
-158
-158
-157
-157
-157
-156
-156
-155
-155
-154
-154
-153
-153
-152
-152
-151
-151
-151
-150
-150
-149
-149
-149
-148
-148
-148
-146
-146
-146
-145
-145
-145
-144
-144
-143
-143
-142
-142
-141
-140
-140
-139
-139
-138
-139
-139
-138
-138
-137
-137
-136
-135
-135
-134
-134
-133
-133
-133
-132
-132
-131
-131
-131
-129
-129
-129
-128
-128
-127
-127
-126
-125
-125
-124
-124
-123
-123
-122
-122
-121
-121
-120
-120
-119
-119
-118
-117
-116
-116
-115
-114
-114
-113
-113
-112
-112
-111
-110
-110
-109
-109
-107
-106
-106
-105
-104
-103
-103
-102
-101
-101
-100
-99
-98
-98
-97
-97
-95
-95
-94
-94
-93
-93
-91
-91
-90
-90
-89
-89
-88
-87
-86
-86
-85
-85
-83
-84
-82
-81
-81
-80
-80
-79
-79
-77
-77
-76
-76
-75
-75
-74
-74
-74
-73
-73
-73
-73
-72
-72
-72
-72
-72
-72
-72
-72
-71
-72
-72
-72
-73
-73
-74
-74
-75
-75
-76
-76
-77
-78
-78
-79
-80
-81
-81
-81
-82
-83
-84
-85
-86
-88
-89
-90
-91
-92
-93
-94
-96
-96
-97
-99
-100
-101
-103
-104
-105
-107
-108
-110
-111
-113
-114
-115
-117
-118
-119
-120
-121
-122
-124
-125
-126
-127
-128
-130
-131
-132
-133
-134
-135
-136
-137
-137
-138
-140
-141
-141
-142
-143
-143
-144
-145
-146
-146
-147
-147
-148
-148
-149
-150
-150
-150
-151
-151
-152
-152
-153
-153
-154
-154
-154
-155
-155
-155
-156
-156
-156
-156
-156
-156
-156
-156
-156
-156
-156
-156
-157
-157
-157
-157
-156
-157
-157
-157
-157
-156
-156
-156
-156
-156
-156
-156
-156
-157
-157
-156
-156
-155
-156
-156
-156
-156
-156
-156
-156
-156
-157
-157
-157
-156
-156
-156
-156
-156
-156
-156
-155
-155
-155
-154
-154
-154
-154
-153
-153
-153
-153
-153
-152
-152
-152
-152
-152
-151
-151
-151
-151
-152
-152
-152
-151
-150
-150
-150
-150
-151
-151
-150
-150
-150
-150
-150
-150
-150
-149
-149
-148
-148
-148
-149
-149
-149
-149
-149
-149
-148
-148
-148
-148
-148
-148
-148
-147
-147
-147
-147
-147
-147
-147
-147
-147
-146
-146
-146
-146
-146
-146
-146
-146
-146
-146
-146
-146
-146
-146
-146
-146
-145
-145
-145
-145
-145
-145
-144
-144
-144
-144
-144
-144
-144
-144
-144
-143
-144
-144
-144
-144
-144
-144
-144
-144
-144
-144
-144
-144
-144
-144
-144
-144
-144
-144
-144
-144
-144
-144
-144
-144
-144
-144
-144
-143
-143
-143
-143
-144
-143
-143
-142
-142
-142
-142
-142
-142
-142
-142
-142
-142
-142
-142
-142
-143
-143
-143
-143
-143
-143
-144
-144
-144
-144
-144
-144
-144
-145
-145
-145
-145
-144
-144
-144
-144
-144
-145
-145
-145
-145
-145
-145
-146
-146
-146
-146
-147
-147
-147
-148
-148
-148
-148
-148
-148
-148
-148
-148
-148
-148
-148
-148
-148
-148
-148
-148
-149
-150
-150
-150
-149
-149
-150
-150
-150
-150
-150
-150
-150
-150
-150
-152
-152
-152
-152
-151
-151
-151
-152
-152
-152
-152
-152
-153
-153
-153
-153
-153
-153
-153
-154
-154
-154
-154
-154
-154
-154
-154
-154
-154
-154
-154
-154
-154
-154
-154
-154
-154
-154
-154
-154
-154
-154
-154
-154
-154
-154
-154
-154
-154
-154
-154
-154
-154
-154
-154
-154
-154
-154
-154
-154
-154
-155
-155
-155
-155
-155
-155
-155
-155
-155
-155
-155
-155
-155
-155
-155
-155
-155
-154
-155
-155
-155
-155
-155
-155
-155
-155
-155
-155
-155
-155
-155
-155
-154
-154
-154
-154
-154
-154
-154
-154
-154
-154
-154
-154
-154
-154
-154
-154
-154
-154
-154
-154
-154
-154
-154
-154
-154
-154
-154
-154
-154
-154
-154
-154
-154
-154
-154
-154
-154
-154
-154
-154
-154
-154
-154
-154
-154
-154
-154
-154
-154
-154
-154
-154
-154
-155
-155
-155
-155
-155
-155
-154
-154
-154
-155
-155
-155
-155
-155
-155
-155
-155
-155
-156
-156
-156
-156
-156
-156
-155
-155
-155
-155
-155
-155
-155
-155
-155
-155
-155
-155
-155
-155
-155
-155
-155
-155
-155
-155
-155
-155
-155
-155
-155
-155
-155
-156
-156
-156
-156
-156
-156
-156
-156
-156
-156
-156
-157
-156
-156
-156
-156
-156
-155
-155
-155
-155
-155
-155
-155
-155
-155
-155
-155
-154
-154
-154
-154
-153
-153
-153
-153
-152
-152
-151
-151
-151
-151
-151
-150
-150
-150
-150
-149
-149
-149
-149
-148
-149
-149
-148
-148
-148
-147
-147
-147
-147
-147
-147
-146
-147
-147
-146
-146
-146
-147
-147
-147
-147
-147
-147
-147
-147
-147
-147
-147
-147
-147
-148
-148
-148
-148
-149
-149
-148
-148
-148
-149
-149
-149
-149
-149
-149
-150
-151
-151
-151
-152
-152
-152
-153
-153
-153
-154
-155
-154
-155
-155
-156
-156
-157
-157
-158
-158
-158
-158
-158
-159
-160
-160
-160
-160
-160
-160
-160
-160
-160
-160
-161
-161
-161
-161
-161
-161
-162
-162
-162
-162
-163
-163
-162
-162
-163
-163
-163
-163
-163
-164
-164
-164
-165
-165
-165
-165
-165
-165
-165
-166
-166
-166
-166
-166
-166
-166
-166
-166
-166
-166
-166
-166
-166
-165
-165
-165
-164
-164
-164
-163
-162
-161
-160
-157
-155
-152
-149
-146
-142
-137
-132
-126
-120
-113
-104
-95
-86
-75
-64
-51
-39
-26
-13
1
14
27
39
51
62
71
78
84
87
88
88
84
77
68
57
41
24
3
-19
-44
-71
-99
-129
-160
-190
-221
-252
-281
-310
-337
-363
-386
-407
-426
-441
-455
-465
-473
-477
-479
-478
-476
-469
-462
-453
-440
-428
-414
-399
-383
-367
-351
-336
-319
-304
-288
-274
-260
-247
-236
-224
-215
-206
-197
-190
-184
-179
-173
-170
-167
-163
-161
-159
-158
-157
-156
-155
-155
-154
-154
-155
-153
-153
-154
-154
-154
-154
-154
-154
-153
-153
-153
-153
-152
-152
-152
-151
-151
-150
-150
-151
-150
-150
-149
-149
-148
-148
-148
-147
-147
-146
-146
-146
-145
-145
-145
-144
-143
-143
-143
-143
-143
-143
-143
-143
-143
-142
-142
-143
-143
-142
-142
-142
-142
-141
-141
-141
-141
-140
-140
-140
-140
-139
-139
-139
-139
-138
-138
-138
-137
-137
-136
-136
-136
-136
-136
-136
-134
-134
-134
-134
-134
-134
-133
-133
-133
-133
-132
-132
-132
-132
-131
-131
-131
-131
-130
-130
-130
-130
-129
-129
-129
-128
-127
-127
-127
-126
-126
-126
-125
-125
-125
-125
-124
-124
-124
-123
-122
-122
-122
-122
-121
-121
-121
-121
-119
-119
-119
-119
-119
-118
-118
-117
-117
-117
-116
-116
-116
-116
-115
-115
-115
-114
-113
-113
-113
-112
-112
-112
-111
-111
-111
-109
-109
-109
-108
-108
-108
-107
-106
-106
-105
-105
-105
-104
-104
-103
-102
-101
-101
-101
-99
-99
-98
-98
-97
-97
-96
-95
-94
-94
-93
-92
-92
-91
-91
-90
-90
-89
-88
-88
-87
-87
-87
-86
-85
-85
-85
-85
-84
-83
-83
-82
-82
-82
-81
-81
-80
-79
-79
-79
-78
-78
-78
-77
-76
-76
-76
-76
-75
-75
-75
-75
-75
-75
-74
-74
-74
-74
-74
-74
-74
-75
-75
-75
-75
-75
-75
-76
-76
-76
-77
-77
-78
-78
-79
-79
-80
-81
-81
-82
-84
-84
-85
-86
-87
-88
-89
-90
-91
-92
-92
-94
-95
-96
-97
-99
-100
-101
-102
-104
-105
-106
-109
-110
-112
-113
-115
-116
-119
-120
-121
-123
-124
-126
-128
-129
-130
-132
-134
-135
-137
-138
-139
-141
-142
-144
-145
-147
-148
-149
-150
-152
-153
-154
-155
-156
-157
-158
-159
-160
-162
-162
-163
-165
-165
-166
-167
-169
-169
-170
-170
-172
-173
-173
-174
-174
-176
-176
-177
-177
-178
-179
-179
-179
-180
-180
-180
-182
-182
-182
-182
-183
-183
-183
-184
-184
-185
-185
-185
-185
-186
-186
-186
-187
-187
-187
-187
-188
-188
-188
-188
-188
-188
-188
-189
-189
-189
-189
-188
-188
-188
-188
-188
-188
-188
-188
-188
-188
-188
-188
-189
-189
-189
-189
-190
-190
-190
-190
-190
-190
-190
-190
-190
-190
-190
-190
-190
-190
-190
-190
-190
-190
-190
-190
-190
-190
-190
-190
-190
-190
-190
-190
-189
-189
-189
-189
-189
-189
-189
-189
-189
-189
-189
-190
-190
-190
-190
-190
-189
-189
-189
-189
-189
-189
-189
-189
-189
-189
-189
-188
-188
-188
-188
-188
-188
-188
-188
-187
-188
-188
-188
-188
-188
-188
-188
-188
-188
-187
-187
-187
-187
-187
-187
-187
-187
-187
-188
-188
-188
-187
-187
-187
-187
-187
-187
-187
-188
-188
-188
-188
-188
-188
-188
-188
-188
-188
-188
-188
-188
-188
-188
-188
-188
-188
-188
-188
-188
-188
-188
-188
-188
-188
-188
-188
-188
-188
-188
-189
-189
-189
-189
-189
-189
-189
-189
-189
-189
-190
-190
-190
-190
-190
-190
-190
-190
-190
-190
-190
-190
-190
-190
-192
-192
-192
-192
-192
-192
-192
-192
-192
-192
-192
-192
-192
-192
-193
-193
-193
-193
-193
-194
-193
-194
-194
-194
-194
-194
-195
-195
-196
-196
-196
-197
-197
-197
-197
-197
-197
-197
-198
-198
-198
-198
-198
-198
-198
-198
-198
-199
-199
-199
-199
-199
-199
-200
-199
-199
-199
-199
-199
-199
-200
-200
-201
-201
-200
-200
-200
-200
-200
-200
-200
-200
-201
-201
-201
-201
-201
-202
-202
-202
-202
-202
-202
-202
-202
-202
-202
-202
-203
-204
-204
-204
-204
-204
-204
-204
-204
-204
-204
-204
-204
-204
-204
-204
-204
-204
-204
-204
-204
-204
-204
-204
-204
-204
-204
-204
-204
-204
-204
-204
-205
-205
-205
-205
-205
-205
-205
-205
-205
-205
-205
-205
-205
-205
-205
-205
-205
-205
-205
-205
-205
-206
-206
-206
-206
-206
-206
-206
-206
-206
-206
-206
-206
-207
-207
-207
-207
-207
-207
-207
-207
-207
-207
-207
-207
-207
-207
-208
-208
-209
-209
-209
-209
-209
-209
-209
-209
-209
-209
-209
-209
-209
-209
-209
-209
-209
-209
-209
-210
-210
-210
-210
-210
-210
-210
-210
-210
-210
-210
-210
-210
-210
-211
-211
-211
-211
-211
-211
-211
-211
-211
-211
-211
-211
-211
-211
-211
-211
-211
-211
-211
-211
-211
-211
-212
-212
-212
-212
-212
-212
-212
-212
-212
-212
-212
-212
-212
-212
-212
-212
-212
-212
-212
-212
-212
-212
-212
-212
-212
-212
-212
-212
-212
-212
-212
-213
-213
-213
-213
-213
-213
-213
-213
-213
-213
-213
-213
-214
-214
-214
-214
-214
-214
-214
-214
-214
-214
-214
-215
-215
-215
-215
-215
-214
-214
-214
-214
-214
-214
-214
-214
-214
-214
-214
-214
-214
-214
-214
-214
-214
-214
-214
-214
-214
-215
-215
-215
-215
-215
-215
-215
-215
-215
-215
-215
-215
-215
-215
-216
-216
-216
-216
-216
-216
-216
-216
-216
-216
-216
-215
-215
-215
-215
-215
-215
-214
-214
-214
-214
-213
-213
-213
-212
-212
-212
-212
-211
-211
-211
-211
-210
-210
-210
-210
-210
-210
-210
-209
-209
-208
-208
-208
-208
-207
-207
-207
-207
-208
-207
-207
-207
-207
-207
-207
-207
-206
-206
-207
-208
-207
-207
-208
-208
-208
-208
-208
-210
-210
-210
-209
-209
-209
-210
-210
-210
-212
-212
-212
-212
-212
-212
-213
-214
-214
-214
-215
-215
-215
-216
-216
-216
-217
-217
-218
-218
-218
-219
-219
-219
-219
-220
-220
-220
-220
-220
-220
-220
-220
-220
-220
-220
-220
-221
-221
-221
-221
-221
-221
-221
-221
-221
-222
-222
-222
-223
-223
-222
-222
-223
-223
-223
-223
-223
-223
-224
-224
-224
-224
-224
-225
-226
-226
-226
-226
-226
-226
-226
-226
-226
-226
-226
-226
-226
-226
-225
-225
-225
-225
-225
-225
-225
-225
-225
-224
-224
-223
-222
-220
-218
-217
-213
-211
-207
-203
-199
-194
-188
-180
-173
-164
-155
-146
-134
-123
-110
-97
-84
-70
-56
-43
-30
-18
-7
2
11
17
22
24
25
22
18
10
-1
-13
-30
-49
-70
-95
-121
-148
-177
-207
-239
-269
-301
-332
-362
-391
-418
-442
-465
-485
-503
-518
-529
-538
-544
-546
-546
-543
-538
-528
-518
-506
-492
-478
-461
-445
-428
-411
-393
-376
-360
-344
-330
-315
-303
-290
-280
-270
-261
-253
-247
-241
-235
-231
-227
-224
-221
-219
-218
-216
-215
-214
-214
-213
-214
-214
-214
-214
-214
-214
-214
-214
-213
-213
-213
-214
-213
-213
-213
-211
-212
-212
-211
-211
-210
-210
-209
-209
-209
-208
-208
-208
-207
-207
-207
-207
-206
-206
-206
-206
-205
-205
-205
-205
-204
-204
-204
-203
-203
-203
-202
-202
-202
-202
-201
-201
-201
-200
-200
-200
-198
-198
-198
-197
-198
-198
-197
-197
-197
-197
-196
-196
-196
-196
-194
-194
-194
-194
-193
-193
-193
-193
-192
-192
-192
-192
-192
-191
-191
-191
-189
-189
-189
-188
-188
-187
-188
-188
-187
-187
-186
-186
-186
-185
-185
-184
-184
-184
-183
-183
-183
-182
-182
-182
-181
-181
-180
-180
-180
-179
-179
-179
-178
-178
-178
-177
-177
-177
-177
-176
-175
-175
-175
-174
-174
-174
-173
-172
-172
-171
-171
-171
-170
-170
-170
-169
-169
-168
-167
-167
-167
-166
-166
-165
-164
-164
-164
-163
-163
-162
-161
-161
-160
-160
-160
-159
-159
-158
-157
-156
-156
-155
-156
-155
-154
-154
-153
-153
-152
-152
-152
-151
-151
-151
-149
-149
-149
-148
-148
-146
-146
-145
-145
-145
-144
-144
-142
-142
-141
-141
-140
-139
-138
-138
-138
-137
-137
-136
-136
-135
-134
-134
-134
-133
-133
-132
-131
-131
-130
-130
-130
-130
-128
-128
-128
-127
-127
-127
-126
-126
-126
-126
-125
-125
-125
-125
-124
-124
-124
-125
-125
-125
-125
-125
-125
-125
-126
-126
-126
-126
-127
-127
-127
-127
-128
-128
-128
-129
-129
-130
-130
-131
-132
-132
-133
-134
-134
-135
-136
-137
-138
-140
-141
-142
-143
-144
-146
-147
-149
-150
-152
-154
-155
-157
-158
-159
-161
-163
-164
-166
-168
-169
-171
-172
-173
-175
-177
-178
-180
-181
-182
-185
-186
-187
-188
-190
-191
-192
-194
-195
-196
-197
-199
-200
-201
-203
-204
-205
-206
-208
-209
-209
-210
-212
-213
-213
-214
-215
-216
-216
-218
-218
-219
-219
-220
-221
-221
-222
-222
-223
-223
-224
-224
-225
-226
-226
-226
-226
-227
-228
-228
-228
-228
-229
-229
-229
-229
-229
-229
-229
-230
-230
-231
-231
-231
-231
-231
-231
-231
-231
-231
-231
-231
-231
-231
-230
-230
-230
-230
-230
-230
-231
-232
-232
-232
-232
-232
-232
-232
-232
-232
-232
-232
-231
-231
-232
-232
-232
-232
-231
-231
-231
-231
-232
-232
-232
-232
-232
-232
-232
-232
-232
-232
-232
-232
-232
-232
-232
-232
-232
-232
-232
-232
-232
-232
-232
-232
-232
-232
-232
-232
-232
-232
-232
-232
-232
-231
-231
-231
-231
-231
-231
-231
-230
-230
-230
-230
-230
-230
-230
-230
-230
-230
-230
-230
-230
-230
-231
-231
-230
-230
-230
-230
-230
-230
-230
-230
-230
-230
-230
-230
-230
-230
-230
-229
-228
-228
-228
-228
-228
-228
-228
-228
-228
-228
-229
-229
-228
-228
-228
-228
-228
-228
-228
-228
-228
-228
-228
-229
-229
-229
-229
-229
-229
-229
-229
-229
-229
-229
-229
-229
-229
-229
-229
-229
-229
-229
-229
-229
-229
-229
-230
-230
-230
-230
-230
-230
-230
-230
-230
-230
-230
-230
-230
-230
-230
-230
-230
-230
-230
-230
-230
-230
-231
-231
-231
-231
-231
-231
-231
-231
-231
-232
-232
-232
-232
-232
-232
-233
-233
-233
-233
-233
-233
-234
-234
-234
-234
-234
-234
-234
-234
-234
-235
-235
-235
-235
-235
-235
-235
-235
-236
-236
-236
-236
-236
-236
-236
-236
-236
-236
-236
-236
-236
-237
-237
-237
-237
-237
-237
-237
-237
-237
-237
-238
-238
-238
-238
-238
-238
-238
-238
-238
-238
-238
-238
-239
-239
-239
-239
-239
-239
-239
-239
-239
-239
-239
-239
-239
-239
-239
-239
-239
-239
-239
-239
-240
-240
-240
-240
-240
-240
-240
-240
-240
-240
-240
-240
-240
-240
-240
-240
-240
-240
-240
-240
-240
-240
-240
-241
-241
-241
-241
-241
-241
-241
-241
-241
-241
-241
-241
-241
-241
-241
-241
-241
-241
-241
-241
-241
-241
-241
-241
-241
-241
-241
-241
-241
-241
-241
-241
-241
-241
-241
-241
-241
-241
-241
-241
-241
-241
-241
-241
-241
-241
-241
-241
-241
-240
-240
-240
-240
-240
-240
-240
-240
-240
-240
-240
-240
-240
-240
-240
-240
-240
-239
-240
-240
-240
-240
-240
-240
-240
-240
-240
-240
-240
-239
-239
-239
-239
-239
-239
-239
-239
-239
-239
-238
-239
-239
-239
-239
-239
-239
-239
-239
-239
-239
-239
-238
-238
-238
-238
-238
-238
-238
-238
-239
-239
-239
-239
-239
-239
-239
-239
-239
-239
-239
-239
-239
-239
-239
-240
-240
-240
-240
-240
-240
-240
-240
-240
-240
-240
-240
-240
-240
-240
-240
-240
-240
-240
-240
-240
-240
-240
-240
-240
-240
-240
-240
-240
-240
-240
-240
-240
-240
-241
-241
-241
-241
-241
-241
-241
-241
-241
-241
-241
-241
-241
-241
-241
-241
-241
-241
-241
-241
-241
-241
-242
-242
-242
-241
-241
-241
-241
-241
-241
-241
-241
-241
-241
-242
-242
-242
-242
-242
-242
-242
-242
-242
-242
-242
-242
-242
-242
-242
-242
-242
-242
-242
-242
-241
-240
-240
-240
-240
-239
-239
-239
-238
-238
-238
-238
-237
-236
-236
-236
-235
-235
-235
-234
-233
-233
-233
-233
-233
-232
-232
-231
-231
-230
-230
-230
-230
-230
-229
-229
-229
-229
-228
-228
-228
-228
-228
-228
-228
-228
-228
-228
-228
-228
-228
-228
-229
-229
-229
-229
-229
-230
-230
-230
-230
-229
-229
-230
-230
-230
-230
-230
-231
-231
-231
-231
-232
-233
-233
-233
-233
-234
-234
-235
-235
-236
-236
-236
-237
-237
-237
-237
-238
-238
-238
-239
-239
-239
-239
-239
-238
-238
-238
-238
-239
-239
-239
-239
-238
-238
-238
-239
-239
-239
-239
-240
-240
-240
-239
-239
-239
-239
-240
-240
-240
-240
-240
-241
-241
-241
-241
-241
-241
-242
-242
-242
-242
-242
-242
-242
-243
-243
-243
-243
-243
-243
-242
-242
-242
-242
-241
-241
-241
-241
-241
-241
-240
-239
-239
-238
-237
-235
-233
-231
-228
-225
-221
-217
-212
-207
-201
-194
-187
-179
-170
-160
-149
-138
-125
-113
-99
-86
-72
-59
-46
-33
-23
-14
-5
2
7
10
10
9
4
-3
-13
-27
-43
-62
-83
-106
-132
-160
-189
-219
-250
-281
-312
-344
-375
-403
-429
-455
-477
-497
-515
-529
-542
-551
-556
-559
-558
-555
-549
-541
-531
-519
-505
-489
-474
-457
-440
-423
-406
-390
-374
-357
-343
-330
-316
-304
-293
-284
-275
-267
-261
-254
-250
-246
-241
-238
-236
-234
-233
-231
-230
-229
-228
-228
-229
-228
-228
-228
-228
-227
-227
-227
-228
-228
-227
-227
-227
-227
-226
-226
-225
-225
-224
-223
-223
-222
-222
-222
-221
-221
-221
-220
-220
-220
-219
-219
-219
-220
-219
-219
-219
-218
-218
-218
-217
-217
-217
-216
-216
-216
-215
-215
-215
-214
-215
-214
-214
-214
-213
-212
-212
-212
-211
-211
-210
-210
-210
-209
-209
-208
-208
-208
-207
-207
-207
-206
-206
-205
-205
-205
-204
-204
-204
-203
-203
-203
-203
-202
-202
-202
-201
-201
-201
-201
-200
-200
-200
-199
-199
-198
-197
-197
-197
-196
-196
-196
-195
-195
-195
-194
-194
-194
-194
-193
-192
-192
-192
-191
-191
-191
-190
-190
-189
-189
-188
-188
-188
-187
-187
-186
-186
-186
-185
-184
-183
-183
-183
-182
-182
-181
-181
-181
-180
-180
-179
-179
-178
-177
-177
-176
-176
-176
-176
-175
-174
-174
-174
-173
-173
-173
-172
-171
-171
-171
-171
-170
-170
-170
-169
-168
-167
-167
-167
-166
-166
-164
-164
-164
-163
-163
-162
-162
-161
-161
-160
-159
-159
-158
-158
-157
-157
-156
-155
-155
-154
-153
-153
-152
-152
-151
-151
-150
-149
-149
-148
-148
-147
-146
-146
-145
-145
-144
-144
-143
-142
-142
-141
-141
-141
-139
-139
-139
-138
-138
-138
-138
-136
-136
-136
-136
-136
-136
-136
-135
-135
-135
-135
-135
-135
-135
-136
-136
-136
-136
-136
-136
-136
-137
-137
-137
-137
-138
-138
-137
-138
-138
-138
-139
-139
-140
-140
-141
-142
-142
-143
-144
-144
-145
-146
-147
-148
-149
-150
-151
-152
-153
-154
-156
-157
-158
-160
-161
-162
-164
-166
-167
-169
-170
-171
-173
-175
-176
-177
-180
-181
-182
-184
-185
-186
-188
-190
-191
-192
-194
-195
-196
-197
-198
-200
-201
-202
-203
-204
-205
-206
-207
-208
-209
-210
-210
-212
-213
-213
-214
-215
-216
-216
-218
-218
-219
-219
-221
-221
-222
-223
-223
-224
-224
-225
-226
-226
-226
-227
-227
-227
-227
-228
-228
-229
-229
-229
-230
-230
-230
-230
-230
-231
-231
-232
-232
-232
-232
-233
-233
-233
-233
-233
-234
-234
-234
-234
-234
-234
-234
-234
-235
-235
-235
-235
-235
-235
-235
-235
-235
-235
-235
-235
-235
-235
-235
-234
-234
-234
-233
-233
-233
-233
-233
-233
-233
-233
-233
-232
-232
-232
-232
-232
-232
-232
-232
-232
-232
-232
-232
-232
-232
-233
-233
-233
-233
-233
-233
-232
-232
-232
-232
-232
-232
-232
-232
-232
-232
-231
-231
-231
-231
-231
-232
-231
-230
-230
-230
-230
-230
-230
-230
-230
-230
-230
-230
-230
-230
-230
-229
-228
-228
-228
-228
-228
-228
-228
-228
-228
-228
-228
-228
-228
-228
-228
-228
-228
-227
-227
-227
-227
-227
-227
-227
-227
-227
-227
-228
-228
-228
-228
-228
-228
-228
-228
-228
-228
-228
-228
-228
-228
-228
-228
-228
-228
-228
-228
-228
-228
-228
-228
-228
-228
-228
-228
-228
-228
-228
-228
-229
-229
-229
-229
-229
-228
-228
-228
-228
-228
-229
-229
-229
-229
-229
-229
-229
-230
-230
-230
-230
-230
-230
-230
-230
-230
-230
-230
-230
-230
-231
-231
-231
-231
-231
-231
-231
-231
-231
-232
-232
-232
-232
-232
-232
-232
-233
-233
-233
-233
-233
-233
-233
-233
-233
-234
-234
-234
-234
-234
-234
-234
-235
-235
-235
-235
-235
-236
-236
-236
-236
-236
-236
-236
-236
-236
-236
-236
-236
-236
-237
-237
-237
-237
-237
-237
-237
-237
-237
-237
-237
-237
-238
-238
-238
-238
-238
-238
-238
-238
-239
-239
-239
-239
-239
-239
-239
-239
-239
-239
-239
-239
-240
-240
-240
-240
-240
-240
-240
-240
-240
-240
-240
-240
-240
-240
-240
-240
-240
-240
-240
-240
-240
-240
-240
-240
-240
-240
-240
-240
-240
-241
-241
-241
-241
-241
-241
-242
-242
-242
-242
-242
-242
-242
-242
-242
-242
-242
-242
-242
-242
-242
-242
-242
-241
-241
-241
-241
-241
-241
-241
-241
-241
-241
-241
-241
-241
-241
-241
-242
-242
-242
-242
-242
-242
-242
-242
-242
-242
-242
-242
-242
-242
-242
-242
-242
-242
-242
-242
-242
-242
-242
-242
-242
-242
-242
-242
-242
-242
-242
-242
-242
-242
-241
-241
-241
-241
-241
-241
-241
-241
-241
-241
-241
-242
-242
-242
-242
-242
-242
-242
-242
-242
-242
-242
-242
-242
-242
-242
-242
-242
-242
-241
-241
-241
-241
-241
-241
-241
-240
-240
-241
-241
-241
-241
-240
-240
-240
-240
-240
-240
-240
-240
-240
-240
-240
-240
-240
-240
-240
-240
-241
-241
-241
-241
-241
-241
-241
-241
-241
-241
-241
-241
-240
-240
-240
-240
-240
-240
-240
-240
-240
-240
-240
-240
-240
-240
-240
-240
-240
-240
-240
-240
-240
-240
-240
-240
-240
-240
-240
-240
-241
-240
-240
-240
-240
-241
-241
-241
-241
-241
-241
-241
-241
-241
-241
-241
-241
-241
-241
-241
-241
-241
-241
-241
-241
-241
-241
-241
-241
-241
-241
-241
-241
-241
-241
-241
-241
-241
-241
-241
-241
-241
-240
-240
-240
-240
-240
-239
-239
-239
-239
-239
-237
-237
-237
-237
-236
-235
-235
-235
-234
-234
-233
-233
-232
-232
-232
-232
-231
-231
-230
-230
-230
-230
-229
-229
-229
-229
-229
-229
-227
-227
-227
-227
-227
-226
-226
-226
-226
-226
-226
-225
-225
-225
-226
-226
-225
-225
-226
-226
-226
-226
-227
-226
-226
-226
-226
-226
-227
-227
-226
-226
-226
-228
-228
-228
-228
-228
-228
-229
-229
-229
-230
-230
-231
-231
-232
-233
-233
-233
-234
-234
-234
-235
-236
-235
-235
-236
-236
-236
-236
-236
-235
-236
-236
-236
-236
-235
-236
-236
-235
-235
-236
-236
-235
-236
-236
-236
-236
-237
-237
-237
-237
-237
-237
-237
-237
-238
-238
-238
-238
-238
-238
-239
-239
-239
-239
-239
-240
-240
-239
-239
-239
-239
-238
-238
-238
-237
-237
-237
-236
-236
-236
-236
-234
-234
-234
-234
-232
-232
-232
-231
-230
-229
-228
-226
-224
-221
-218
-215
-211
-207
-202
-196
-189
-182
-174
-164
-155
-144
-133
-121
-109
-96
-83
-69
-56
-43
-30
-18
-8
1
9
15
19
21
21
18
12
4
-8
-21
-39
-58
-79
-103
-129
-157
-186
-216
-246
-277
-307
-336
-365
-392
-418
-441
-463
-482
-498
-511
-522
-530
-535
-537
-536
-533
-528
-520
-510
-500
-486
-472
-458
-442
-426
-409
-393
-377
-361
-347
-332
-318
-305
-293
-282
-272
-264
-256
-249
-242
-237
-232
-229
-225
-222
-220
-219
-217
-216
-215
-214
-213
-213
-212
-213
-213
-213
-212
-212
-212
-212
-211
-211
-211
-210
-210
-210
-209
-209
-208
-208
-207
-208
-208
-207
-207
-206
-206
-205
-205
-205
-204
-204
-203
-203
-202
-202
-202
-201
-201
-200
-200
-200
-199
-199
-198
-198
-197
-197
-196
-196
-195
-195
-195
-194
-194
-193
-193
-193
-192
-192
-192
-191
-191
-191
-191
-190
-190
-190
-190
-189
-189
-189
-188
-188
-188
-188
-187
-187
-186
-186
-186
-185
-185
-185
-184
-184
-183
-183
-183
-182
-181
-181
-180
-180
-180
-179
-179
-178
-178
-177
-177
-176
-176
-176
-175
-175
-174
-174
-173
-173
-172
-172
-172
-171
-171
-170
-169
-169
-169
-168
-168
-168
-167
-166
-166
-166
-165
-165
-165
-163
-163
-162
-162
-162
-161
-161
-160
-160
-159
-159
-158
-158
-157
-156
-156
-155
-155
-154
-153
-153
-152
-152
-151
-150
-150
-149
-149
-147
-147
-146
-145
-145
-144
-144
-143
-143
-142
-141
-141
-140
-140
-138
-138
-138
-137
-137
-136
-135
-135
-134
-134
-133
-132
-132
-131
-130
-129
-128
-128
-127
-126
-125
-125
-124
-123
-122
-122
-121
-120
-119
-119
-117
-116
-115
-116
-114
-113
-113
-112
-111
-111
-110
-109
-109
-108
-108
-107
-106
-106
-105
-105
-105
-104
-104
-104
-103
-102
-102
-102
-102
-101
-101
-101
-101
-101
-100
-99
-99
-99
-99
-100
-99
-99
-99
-99
-99
-100
-100
-100
-100
-100
-100
-101
-101
-101
-102
-102
-103
-103
-104
-105
-105
-106
-107
-108
-109
-110
-111
-112
-113
-114
-116
-117
-119
-120
-121
-122
-124
-125
-126
-128
-129
-130
-132
-133
-134
-136
-137
-139
-140
-141
-143
-145
-146
-148
-149
-150
-151
-153
-154
-155
-156
-157
-159
-159
-160
-161
-162
-162
-164
-165
-166
-166
-167
-168
-169
-171
-171
-172
-173
-174
-175
-175
-176
-177
-177
-178
-179
-179
-180
-181
-181
-182
-182
-182
-182
-183
-184
-184
-184
-184
-184
-184
-184
-186
-186
-186
-186
-186
-186
-186
-186
-186
-186
-186
-186
-186
-186
-186
-186
-186
-186
-186
-186
-186
-186
-186
-186
-186
-186
-186
-186
-186
-185
-185
-186
-186
-186
-186
-186
-185
-185
-185
-185
-185
-185
-185
-185
-185
-184
-184
-184
-184
-184
-184
-184
-184
-183
-183
-183
-183
-183
-183
-183
-183
-183
-183
-182
-182
-182
-182
-182
-182
-182
-182
-181
-181
-181
-181
-181
-180
-180
-179
-179
-179
-179
-179
-179
-179
-179
-179
-179
-179
-179
-178
-178
-178
-178
-178
-177
-177
-177
-177
-176
-176
-176
-176
-176
-177
-176
-176
-176
-176
-176
-175
-175
-175
-175
-175
-175
-175
-175
-175
-175
-175
-175
-175
-174
-174
-174
-174
-174
-174
-174
-174
-173
-173
-173
-173
-173
-173
-173
-173
-173
-173
-173
-173
-173
-173
-173
-173
-173
-173
-173
-172
-172
-172
-172
-172
-172
-172
-172
-172
-171
-171
-171
-171
-171
-171
-171
-171
-170
-170
-170
-170
-170
-170
-170
-170
-171
-171
-171
-171
-171
-171
-172
-172
-172
-172
-172
-172
-172
-172
-172
-172
-172
-172
-172
-173
-173
-172
-172
-172
-173
-172
-172
-172
-172
-172
-172
-172
-172
-172
-173
-173
-173
-173
-173
-173
-173
-173
-173
-174
-173
-173
-173
-173
-173
-174
-174
-174
-174
-174
-174
-175
-175
-175
-175
-175
-175
-175
-175
-175
-175
-175
-175
-175
-175
-175
-175
-175
-175
-175
-176
-176
-176
-175
-175
-175
-175
-175
-175
-175
-175
-175
-175
-175
-175
-175
-175
-175
-175
-175
-175
-175
-175
-175
-175
-175
-175
-175
-175
-175
-175
-176
-176
-176
-176
-176
-176
-176
-176
-176
-176
-177
-177
-177
-177
-177
-177
-177
-177
-177
-176
-176
-176
-176
-176
-176
-176
-176
-177
-177
-177
-177
-176
-176
-176
-177
-177
-177
-177
-177
-177
-176
-176
-176
-176
-176
-176
-176
-176
-176
-176
-176
-177
-177
-177
-177
-177
-177
-177
-177
-177
-178
-177
-177
-177
-177
-177
-178
-178
-178
-178
-178
-178
-178
-178
-178
-178
-178
-178
-178
-178
-177
-177
-177
-177
-176
-176
-177
-176
-176
-176
-176
-175
-175
-175
-175
-175
-175
-175
-175
-175
-175
-175
-175
-175
-175
-175
-175
-176
-176
-176
-176
-175
-175
-175
-175
-175
-175
-175
-175
-174
-174
-174
-174
-174
-173
-173
-173
-173
-173
-173
-173
-173
-173
-173
-173
-173
-173
-174
-174
-174
-174
-174
-174
-174
-174
-175
-175
-175
-175
-175
-175
-175
-174
-174
-174
-174
-174
-174
-174
-174
-174
-173
-173
-173
-173
-174
-174
-174
-174
-174
-174
-174
-174
-174
-174
-173
-173
-173
-173
-172
-172
-172
-172
-173
-173
-173
-173
-173
-172
-172
-172
-171
-171
-172
-172
-172
-172
-173
-173
-173
-173
-173
-173
-173
-173
-173
-173
-173
-172
-172
-172
-172
-172
-171
-171
-171
-171
-170
-170
-170
-170
-169
-169
-169
-169
-168
-168
-168
-168
-167
-167
-166
-166
-166
-165
-165
-165
-164
-165
-165
-164
-164
-164
-163
-162
-162
-162
-162
-161
-161
-161
-161
-160
-160
-160
-160
-160
-160
-159
-159
-159
-159
-159
-159
-159
-160
-160
-159
-159
-159
-160
-160
-160
-160
-160
-160
-160
-160
-160
-160
-159
-159
-160
-159
-160
-160
-159
-159
-160
-160
-161
-160
-160
-161
-161
-162
-162
-162
-163
-163
-164
-164
-164
-165
-165
-165
-165
-166
-166
-166
-165
-165
-165
-165
-165
-165
-164
-165
-164
-165
-164
-164
-165
-164
-164
-165
-165
-165
-166
-166
-166
-166
-168
-168
-168
-168
-169
-169
-169
-170
-170
-171
-171
-171
-171
-171
-171
-171
-172
-172
-172
-172
-172
-171
-172
-172
-172
-171
-171
-170
-170
-170
-169
-169
-170
-169
-169
-169
-168
-167
-167
-167
-167
-165
-165
-163
-162
-160
-159
-156
-153
-150
-145
-141
-136
-130
-124
-117
-108
-99
-89
-79
-67
-56
-42
-30
-17
-3
11
25
37
50
61
71
79
86
90
93
92
89
84
76
65
52
34
14
-9
-32
-60
-88
-117
-148
-179
-210
-242
-272
-302
-331
-357
-382
-403
-423
-440
-455
-467
-475
-482
-485
-486
-484
-480
-473
-464
-454
-442
-429
-414
-399
-384
-367
-350
-335
-318
-302
-287
-272
-258
-244
-233
-222
-211
-202
-194
-186
-180
-174
-168
-164
-161
-158
-156
-154
-152
-151
-150
-149
-149
-149
-148
-148
-148
-148
-147
-147
-148
-148
-147
-147
-147
-146
-146
-145
-145
-144
-144
-143
-143
-142
-142
-141
-141
-141
-140
-140
-140
-139
-139
-138
-138
-138
-137
-137
-137
-136
-136
-136
-136
-135
-135
-135
-134
-134
-133
-133
-133
-133
-133
-132
-132
-131
-131
-131
-130
-130
-130
-129
-129
-129
-128
-128
-128
-128
-127
-127
-127
-127
-127
-127
-126
-126
-126
-126
-126
-125
-125
-125
-125
-124
-123
-123
-123
-122
-122
-122
-122
-121
-121
-121
-121
-120
-120
-120
-120
-120
-119
-119
-119
-118
-117
-117
-116
-116
-116
-115
-115
-115
-115
-113
-113
-113
-113
-112
-112
-112
-111
-110
-110
-110
-110
-110
-109
-108
-108
-107
-107
-107
-107
-106
-106
-106
-104
-104
-104
-103
-103
-103
-102
-102
-102
-101
-101
-100
-99
-99
-98
-98
-97
-97
-97
-96
-96
-95
-95
-94
-94
-93
-92
-91
-91
-90
-90
-89
-89
-89
-87
-87
-86
-86
-85
-85
-83
-83
-82
-82
-82
-81
-80
-79
-79
-78
-77
-76
-76
-75
-75
-74
-73
-72
-72
-71
-71
-70
-70
-68
-67
-67
-66
-66
-65
-64
-64
-63
-63
-62
-62
-61
-61
-60
-60
-59
-59
-58
-58
-58
-57
-56
-56
-56
-56
-56
-55
-54
-54
-54
-54
-54
-54
-53
-53
-53
-54
-54
-54
-54
-54
-55
-55
-55
-56
-56
-56
-56
-57
-57
-58
-59
-59
-60
-61
-61
-61
-62
-63
-64
-65
-66
-67
-68
-69
-70
-71
-72
-74
-75
-76
-78
-79
-81
-82
-84
-85
-87
-89
-91
-93
-94
-96
-98
-99
-101
-103
-105
-107
-109
-111
-113
-115
-117
-118
-120
-122
-124
-125
-127
-130
-131
-132
-134
-136
-137
-139
-141
-142
-143
-145
-146
-148
-149
-150
-152
-153
-154
-155
-156
-157
-158
-158
-159
-160
-162
-162
-162
-163
-164
-165
-166
-166
-167
-167
-168
-168
-169
-169
-169
-170
-170
-170
-171
-172
-172
-172
-172
-172
-173
-173
-173
-173
-174
-174
-174
-175
-175
-175
-175
-176
-176
-176
-176
-177
-177
-177
-177
-177
-178
-178
-178
-178
-178
-178
-178
-178
-177
-178
-178
-178
-178
-178
-178
-178
-177
-177
-177
-177
-177
-178
-178
-178
-178
-178
-178
-179
-179
-179
-179
-179
-179
-179
-179
-179
-179
-179
-179
-179
-179
-179
-179
-179
-179
-178
-178
-178
-178
-178
-178
-178
-178
-178
-178
-178
-178
-178
-178
-178
-178
-178
-178
-178
-178
-178
-178
-177
-177
-177
-177
-177
-177
-177
-177
-177
-177
-177
-177
-177
-177
-177
-177
-177
-177
-177
-177
-178
-178
-178
-178
-178
-178
-178
-178
-178
-178
-178
-178
-178
-178
-177
-177
-177
-177
-177
-177
-177
-177
-177
-177
-177
-177
-177
-177
-177
-177
-177
-177
-177
-176
-176
-176
-176
-176
-176
-176
-176
-176
-176
-176
-176
-176
-176
-176
-176
-176
-176
-176
-176
-176
-176
-177
-177
-177
-177
-178
-178
-178
-178
-178
-178
-178
-178
-178
-178
-178
-178
-178
-178
-178
-179
-179
-179
-179
-179
-179
-180
-180
-180
-180
-180
-180
-180
-180
-180
-180
-180
-180
-180
-180
-181
-182
-182
-182
-181
-181
-181
-181
-182
-182
-182
-182
-182
-182
-182
-183
-183
-183
-183
-183
-184
-184
-184
-184
-184
-185
-185
-185
-185
-185
-185
-186
-186
-187
-187
-187
-187
-187
-187
-187
-187
-187
-187
-187
-188
-188
-188
-188
-188
-188
-188
-188
-188
-188
-188
-188
-188
-188
-188
-188
-188
-188
-188
-188
-188
-188
-189
-189
-189
-189
-189
-189
-189
-188
-189
-189
-189
-189
-189
-189
-189
-189
-189
-189
-191
-191
-191
-191
-191
-191
-191
-191
-191
-191
-191
-191
-191
-192
-192
-191
-191
-192
-192
-192
-192
-192
-192
-191
-191
-191
-191
-191
-191
-191
-192
-192
-192
-192
-192
-191
-191
-191
-191
-191
-191
-191
-191
-191
-191
-192
-192
-192
-192
-192
-192
-192
-192
-192
-192
-192
-192
-192
-193
-193
-193
-193
-193
-193
-193
-193
-193
-193
-193
-193
-193
-193
-193
-193
-193
-193
-193
-193
-193
-193
-195
-195
-195
-195
-195
-195
-195
-195
-195
-195
-196
-196
-196
-196
-196
-196
-196
-196
-196
-196
-196
-197
-197
-197
-198
-198
-198
-198
-198
-198
-197
-197
-197
-197
-197
-197
-197
-197
-197
-198
-198
-198
-198
-198
-198
-198
-198
-198
-198
-198
-198
-198
-198
-198
-198
-198
-199
-199
-199
-199
-199
-199
-198
-198
-198
-199
-199
-199
-199
-199
-199
-199
-199
-199
-199
-199
-199
-199
-200
-200
-200
-200
-200
-200
-200
-201
-201
-201
-201
-201
-201
-201
-201
-202
-202
-202
-202
-202
-202
-201
-201
-201
-201
-201
-201
-201
-201
-201
-201
-201
-201
-201
-201
-201
-201
-201
-201
-201
-201
-201
-201
-201
-201
-201
-201
-200
-200
-200
-200
-200
-200
-200
-199
-199
-199
-198
-198
-198
-198
-198
-197
-197
-197
-197
-196
-196
-196
-196
-195
-195
-195
-195
-195
-194
-194
-194
-193
-193
-193
-193
-193
-193
-193
-193
-193
-192
-193
-193
-193
-193
-193
-193
-193
-193
-193
-193
-193
-194
-194
-194
-194
-195
-195
-194
-195
-195
-195
-196
-196
-196
-197
-197
-197
-197
-198
-198
-198
-198
-199
-199
-199
-200
-200
-200
-201
-201
-202
-202
-202
-203
-202
-202
-204
-204
-204
-204
-204
-204
-204
-204
-204
-205
-204
-204
-204
-204
-205
-205
-204
-204
-204
-205
-205
-205
-206
-206
-206
-206
-206
-207
-207
-207
-207
-207
-207
-208
-208
-209
-209
-209
-210
-210
-210
-210
-210
-210
-212
-212
-212
-212
-212
-212
-212
-212
-212
-212
-212
-212
-212
-212
-212
-212
-212
-211
-211
-211
-211
-210
-209
-209
-207
-206
-204
-202
-199
-196
-193
-189
-184
-180
-174
-168
-161
-153
-143
-133
-122
-110
-98
-86
-72
-58
-44
-31
-18
-5
6
16
25
31
36
39
40
38
33
26
16
2
-14
-33
-54
-78
-104
-131
-160
-190
-221
-253
-284
-315
-345
-374
-402
-427
-450
-470
-488
-504
-515
-525
-532
-535
-535
-532
-527
-520
-510
-499
-485
-471
-455
-438
-421
-405
-387
-370
-353
-337
-322
-307
-295
-282
-271
-260
-252
-243
-236
-229
-224
-219
-214
-211
-207
-206
-203
-202
-201
-199
-199
-198
-197
-198
-198
-197
-197
-197
-197
-196
-196
-196
-197
-196
-196
-196
-195
-195
-194
-194
-195
-194
-194
-194
-193
-193
-192
-192
-192
-191
-191
-191
-190
-190
-190
-190
-189
-189
-189
-189
-188
-188
-188
-188
-187
-187
-187
-187
-187
-187
-186
-186
-186
-186
-186
-185
-185
-185
-184
-184
-184
-184
-183
-183
-183
-182
-182
-182
-182
-181
-181
-181
-180
-180
-179
-179
-179
-178
-178
-178
-177
-177
-176
-176
-176
-175
-175
-175
-174
-174
-174
-173
-173
-173
-172
-172
-172
-172
-170
-170
-170
-170
-169
-169
-169
-169
-168
-168
-168
-167
-167
-166
-165
-165
-165
-164
-164
-164
-164
-163
-163
-163
-162
-162
-161
-161
-160
-160
-160
-159
-159
-158
-157
-157
-156
-156
-156
-155
-155
-155
-153
-153
-153
-152
-152
-152
-152
-150
-150
-150
-149
-149
-149
-147
-147
-147
-146
-146
-145
-144
-143
-143
-143
-142
-142
-141
-140
-139
-139
-138
-138
-137
-137
-135
-135
-134
-134
-133
-133
-132
-131
-131
-130
-130
-129
-129
-128
-127
-126
-125
-125
-124
-124
-123
-122
-122
-121
-121
-120
-119
-118
-118
-117
-116
-116
-115
-115
-113
-113
-113
-112
-112
-111
-110
-110
-110
-110
-108
-108
-108
-108
-107
-106
-106
-106
-106
-106
-106
-105
-105
-105
-104
-104
-104
-104
-104
-104
-104
-104
-104
-103
-103
-103
-104
-104
-104
-104
-104
-104
-105
-105
-105
-106
-106
-107
-107
-108
-109
-109
-110
-111
-112
-112
-113
-114
-115
-116
-118
-120
-121
-122
-123
-125
-126
-127
-129
-130
-131
-133
-135
-137
-138
-140
-141
-143
-145
-147
-148
-150
-152
-153
-155
-156
-159
-160
-161
-163
-165
-166
-168
-170
-171
-173
-174
-175
-177
-179
-180
-181
-182
-184
-185
-186
-187
-189
-190
-190
-191
-193
-194
-194
-196
-197
-197
-198
-198
-200
-201
-201
-202
-202
-204
-204
-204
-205
-205
-207
-207
-208
-208
-208
-209
-210
-210
-211
-211
-211
-211
-212
-213
-213
-213
-213
-213
-214
-214
-214
-215
-215
-215
-215
-215
-215
-215
-215
-215
-217
-217
-217
-217
-217
-217
-217
-217
-217
-217
-217
-217
-217
-218
-218
-218
-218
-218
-218
-217
-217
-217
-217
-217
-217
-217
-218
-218
-218
-218
-217
-217
-217
-217
-217
-217
-217
-217
-217
-217
-217
-217
-217
-217
-216
-216
-216
-216
-216
-216
-216
-216
-216
-216
-216
-215
-215
-215
-215
-215
-215
-215
-215
-215
-214
-214
-214
-214
-214
-214
-214
-214
-214
-214
-215
-214
-214
-214
-214
-214
-214
-214
-214
-214
-214
-214
-214
-214
-214
-213
-213
-213
-214
-214
-214
-214
-214
-214
-214
-214
-214
-214
-214
-214
-214
-214
-214
-215
-215
-215
-215
-215
-215
-215
-215
-215
-215
-215
-215
-215
-215
-215
-215
-215
-215
-215
-215
-215
-215
-215
-215
-214
-214
-215
-215
-215
-215
-215
-215
-215
-215
-215
-215
-215
-215
-215
-215
-214
-215
-215
-215
-215
-215
-215
-215
-215
-215
-215
-215
-215
-215
-216
-216
-216
-216
-216
-216
-216
-216
-216
-216
-216
-217
-218
-218
-218
-218
-218
-218
-218
-218
-218
-218
-218
-218
-219
-219
-219
-219
-219
-219
-219
-219
-219
-220
-220
-220
-220
-220
-220
-220
-220
-220
-220
-221
-221
-221
-221
-221
-221
-221
-221
-221
-221
-221
-221
-221
-221
-221
-222
-222
-222
-222
-222
-223
-223
-223
-224
-224
-224
-224
-224
-225
-225
-225
-225
-225
-226
-226
-226
-225
-225
-226
-226
-226
-226
-227
-227
-227
-227
-227
-227
-227
-227
-227
-227
-227
-227
-227
-227
-227
-227
-228
-228
-228
-228
-228
-228
-228
-228
-228
-228
-228
-228
-228
-228
-228
-228
-228
-228
-228
-228
-228
-228
-228
-228
-228
-228
-228
-228
-228
-228
-228
-228
-228
-228
-228
-228
-228
-228
-228
-228
-228
-229
-229
-229
-229
-229
-229
-229
-229
-229
-229
-229
-229
-229
-229
-229
-228
-229
-229
-229
-229
-229
-229
-229
-229
-229
-229
-229
-229
-229
-230
-230
-230
-230
-230
-231
-231
-231
-231
-231
-231
-231
-231
-231
-231
-231
-231
-231
-231
-231
-231
-231
-231
-231
-231
-231
-231
-231
-231
-231
-231
-231
-231
-231
-231
-231
-231
-231
-232
-232
-232
-232
-232
-232
-232
-232
-232
-232
-232
-232
-232
-233
-233
-232
-232
-232
-232
-232
-232
-232
-232
-232
-232
-232
-231
-231
-231
-231
-231
-231
-231
-232
-232
-232
-231
-231
-231
-231
-231
-232
-232
-232
-232
-232
-232
-232
-232
-232
-232
-232
-232
-232
-232
-232
-232
-232
-233
-233
-233
-233
-233
-233
-233
-233
-233
-233
-233
-233
-234
-234
-234
-234
-234
-234
-234
-234
-234
-234
-234
-234
-234
-234
-234
-234
-234
-234
-234
-234
-234
-234
-235
-235
-235
-235
-235
-235
-235
-234
-234
-234
-234
-234
-234
-234
-234
-234
-234
-234
-234
-234
-234
-234
-234
-234
-234
-235
-235
-235
-235
-235
-235
-235
-235
-235
-234
-234
-234
-235
-235
-235
-235
-234
-234
-234
-234
-234
-233
-233
-233
-232
-232
-232
-232
-231
-231
-231
-230
-230
-230
-229
-229
-228
-228
-228
-228
-228
-227
-226
-226
-226
-226
-225
-225
-225
-225
-224
-224
-224
-225
-225
-225
-225
-224
-224
-224
-224
-224
-224
-225
-224
-224
-225
-225
-225
-225
-226
-226
-226
-226
-227
-227
-227
-228
-228
-228
-228
-228
-229
-229
-229
-229
-230
-230
-230
-231
-231
-232
-232
-231
-232
-232
-233
-233
-233
-234
-234
-234
-234
-234
-235
-234
-234
-234
-234
-235
-235
-235
-234
-234
-235
-235
-234
-234
-234
-234
-235
-234
-234
-234
-234
-235
-235
-235
-235
-235
-235
-236
-236
-237
-237
-237
-237
-237
-237
-237
-238
-238
-239
-239
-239
-239
-239
-239
-238
-238
-238
-238
-238
-238
-238
-238
-238
-238
-238
-238
-237
-237
-237
-237
-236
-235
-235
-235
-234
-233
-232
-231
-229
-227
-224
-222
-218
-214
-209
-204
-198
-192
-185
-176
-167
-157
-146
-134
-122
-109
-95
-82
-68
-55
-43
-30
-19
-10
-1
5
10
12
13
12
6
-2
-11
-25
-41
-60
-81
-106
-132
-160
-189
-218
-250
-281
-313
-343
-374
-403
-429
-455
-477
-497
-515
-528
-540
-549
-555
-556
-556
-552
-546
-538
-527
-514
-500
-485
-469
-452
-435
-417
-400
-383
-367
-352
-337
-323
-311
-298
-289
-279
-270
-263
-256
-249
-245
-241
-236
-233
-231
-228
-226
-225
-224
-223
-223
-222
-222
-222
-221
-221
-221
-221
-221
-221
-221
-221
-220
-220
-221
-221
-220
-220
-220
-219
-219
-218
-218
-217
-217
-217
-216
-216
-216
-215
-215
-215
-214
-214
-214
-213
-213
-213
-212
-212
-212
-212
-211
-211
-211
-210
-210
-210
-209
-209
-209
-208
-208
-208
-208
-208
-207
-207
-207
-207
-206
-205
-205
-205
-205
-204
-204
-204
-204
-204
-203
-203
-202
-202
-202
-201
-201
-201
-200
-200
-200
-199
-199
-199
-198
-198
-198
-197
-197
-196
-196
-196
-195
-195
-195
-194
-194
-194
-194
-193
-192
-192
-192
-191
-191
-191
-190
-190
-190
-190
-189
-189
-189
-188
-188
-187
-187
-186
-186
-186
-185
-185
-185
-184
-183
-183
-183
-183
-182
-182
-182
-180
-180
-180
-179
-179
-178
-177
-177
-177
-176
-176
-175
-175
-173
-173
-172
-172
-172
-170
-170
-169
-169
-169
-167
-167
-167
-166
-166
-166
-164
-164
-164
-163
-163
-162
-161
-161
-160
-160
-159
-159
-158
-158
-156
-156
-155
-155
-154
-154
-153
-152
-152
-151
-151
-149
-149
-148
-148
-146
-146
-146
-145
-144
-144
-143
-143
-141
-141
-141
-140
-139
-139
-138
-138
-136
-136
-136
-135
-135
-134
-133
-133
-132
-132
-131
-131
-130
-129
-129
-129
-128
-128
-127
-127
-126
-126
-126
-126
-126
-126
-126
-125
-124
-125
-125
-125
-124
-124
-124
-124
-125
-125
-125
-125
-125
-126
-126
-126
-126
-127
-127
-127
-127
-127
-128
-128
-128
-129
-130
-131
-132
-132
-133
-134
-134
-135
-136
-137
-138
-138
-139
-141
-142
-143
-145
-146
-148
-148
-150
-152
-153
-154
-156
-158
-159
-161
-162
-163
-166
-166
-169
-170
-171
-173
-175
-176
-178
-180
-181
-183
-184
-185
-187
-188
-190
-191
-192
-194
-194
-196
-197
-198
-199
-200
-201
-203
-203
-204
-205
-205
-207
-208
-208
-209
-209
-210
-211
-212
-213
-213
-213
-214
-214
-215
-216
-216
-217
-217
-217
-218
-219
-219
-219
-219
-220
-221
-221
-221
-221
-221
-221
-222
-223
-223
-223
-223
-223
-223
-223
-223
-223
-223
-224
-224
-225
-224
-224
-225
-225
-225
-225
-225
-225
-225
-225
-225
-225
-225
-225
-225
-225
-225
-225
-226
-226
-226
-226
-226
-226
-226
-226
-226
-226
-226
-226
-226
-226
-226
-226
-227
-226
-226
-226
-226
-226
-226
-226
-226
-226
-225
-225
-225
-225
-225
-225
-225
-225
-225
-225
-224
-224
-224
-224
-224
-224
-224
-224
-224
-224
-224
-223
-223
-223
-223
-223
-223
-223
-223
-223
-223
-223
-223
-223
-223
-223
-223
-223
-222
-222
-222
-222
-222
-222
-222
-222
-222
-222
-222
-222
-222
-221
-221
-221
-221
-221
-221
-221
-221
-221
-221
-221
-221
-221
-221
-221
-221
-221
-221
-221
-221
-221
-221
-221
-221
-221
-221
-221
-221
-221
-221
-221
-221
-221
-221
-221
-221
-221
-221
-221
-221
-221
-221
-221
-221
-221
-221
-221
-221
-222
-222
-222
-222
-222
-222
-222
-222
-222
-222
-222
-222
-222
-222
-222
-222
-223
-223
-223
-223
-223
-223
-223
-223
-223
-224
-224
-224
-224
-224
-224
-224
-223
-223
-224
-224
-224
-224
-224
-224
-224
-225
-225
-225
-225
-225
-225
-226
-226
-226
-226
-226
-226
-226
-226
-226
-226
-226
-226
-227
-227
-228
-228
-228
-228
-228
-228
-228
-228
-228
-228
-228
-228
-229
-229
-229
-229
-229
-229
-229
-229
-229
-229
-229
-229
-229
-229
-229
-229
-229
-230
-230
-230
-231
-231
-231
-231
-231
-231
-231
-231
-231
-231
-231
-231
-231
-231
-231
-231
-231
-231
-231
-230
-230
-230
-230
-230
-230
-231
-231
-231
-231
-231
-231
-232
-232
-232
-232
-232
-232
-232
-232
-232
-232
-232
-233
-234
-234
-234
-234
-234
-234
-234
-234
-234
-234
-234
-234
-234
-234
-234
-234
-234
-234
-234
-234
-234
-234
-234
-234
-233
-233
-233
-233
-233
-233
-233
-233
-233
-233
-232
-232
-232
-232
-232
-232
-232
-233
-233
-233
-233
-233
-233
-233
-233
-233
-233
-233
-233
-233
-233
-233
-233
-233
-233
-233
-233
-233
-233
-233
-233
-233
-233
-233
-233
-233
-233
-233
-233
-233
-233
-233
-233
-233
-233
-233
-233
-233
-233
-233
-233
-233
-233
-233
-233
-233
-233
-233
-233
-233
-233
-233
-233
-233
-233
-233
-233
-233
-233
-233
-233
-233
-233
-233
-233
-233
-233
-233
-234
-234
-234
-234
-234
-234
-234
-234
-234
-234
-235
-235
-234
-234
-234
-234
-234
-234
-234
-234
-234
-234
-234
-234
-234
-234
-234
-234
-234
-234
-234
-234
-234
-234
-234
-234
-234
-234
-234
-233
-233
-233
-233
-233
-233
-233
-233
-233
-234
-234
-234
-234
-234
-234
-234
-234
-234
-234
-234
-234
-234
-234
-234
-234
-234
-234
-234
-234
-234
-234
-234
-234
-234
-234
-234
-234
-234
-234
-234
-234
-234
-234
-234
-234
-234
-234
-234
-234
-235
-235
-235
-235
-235
-235
-235
-235
-235
-235
-235
-235
-235
-235
-235
-235
-235
-235
-235
-235
-235
-235
-234
-234
-234
-234
-234
-234
-234
-234
-234
-234
-234
-234
-234
-234
-234
-234
-234
-233
-233
-233
-233
-233
-232
-232
-232
-230
-230
-230
-230
-230
-229
-229
-229
-229
-228
-228
-228
-228
-227
-226
-226
-226
-226
-226
-225
-225
-225
-225
-225
-225
-224
-223
-223
-223
-223
-223
-223
-223
-223
-223
-223
-223
-223
-223
-224
-224
-224
-224
-224
-224
-224
-224
-224
-224
-225
-225
-226
-226
-226
-226
-226
-226
-228
-228
-228
-228
-228
-229
-230
-229
-229
-230
-230
-230
-231
-231
-231
-232
-232
-232
-232
-232
-232
-232
-232
-233
-233
-233
-232
-232
-233
-233
-233
-233
-233
-233
-233
-233
-233
-233
-233
-233
-233
-233
-233
-233
-233
-234
-234
-234
-235
-235
-235
-235
-235
-235
-236
-237
-237
-237
-237
-237
-238
-238
-238
-237
-237
-237
-237
-237
-238
-238
-238
-238
-238
-238
-237
-237
-237
-237
-237
-237
-237
-236
-236
-236
-235
-235
-234
-233
-231
-230
-227
-224
-222
-217
-213
-209
-204
-198
-191
-183
-175
-166
-156
-145
-134
-121
-108
-95
-82
-68
-56
-43
-30
-20
-10
-3
3
7
10
10
7
2
-6
-16
-30
-46
-65
-87
-110
-137
-164
-192
-223
-253
-283
-314
-344
-374
-401
-427
-450
-472
-491
-507
-522
-533
-541
-545
-548
-548
-544
-538
-530
-520
-508
-494
-481
-465
-449
-432
-416
-399
-383
-368
-352
-337
-325
-312
-300
-289
-279
-271
-263
-257
-250
-245
-241
-237
-234
-232
-229
-227
-226
-226
-225
-224
-223
-223
-223
-223
-223
-222
-222
-222
-222
-222
-222
-222
-221
-221
-221
-220
-220
-219
-219
-220
-219
-219
-218
-218
-217
-217
-216
-216
-216
-215
-215
-214
-214
-214
-213
-213
-212
-212
-211
-211
-211
-210
-210
-210
-209
-209
-208
-208
-207
-207
-207
-207
-207
-206
-206
-206
-205
-205
-205
-204
-204
-204
-204
-204
-204
-202
-202
-202
-202
-202
-202
-202
-201
-200
-200
-200
-199
-199
-199
-198
-198
-198
-197
-197
-196
-196
-196
-195
-195
-195
-194
-194
-193
-193
-193
-192
-192
-192
-191
-191
-191
-190
-190
-190
-190
-188
-188
-188
-188
-187
-187
-187
-186
-186
-186
-185
-185
-184
-183
-183
-183
-182
-182
-182
-182
-181
-180
-180
-179
-179
-179
-178
-177
-177
-177
-177
-177
-175
-175
-175
-175
-174
-173
-173
-173
-173
-172
-172
-171
-170
-170
-170
-170
-169
-168
-167
-167
-167
-166
-165
-165
-164
-164
-163
-162
-162
-161
-161
-160
-159
-159
-158
-157
-157
-156
-155
-155
-154
-154
-153
-151
-151
-150
-149
-148
-148
-147
-147
-146
-145
-145
-144
-144
-142
-142
-141
-141
-140
-139
-138
-138
-138
-136
-136
-135
-135
-135
-134
-134
-133
-132
-131
-131
-131
-130
-130
-129
-129
-128
-128
-127
-127
-126
-126
-125
-125
-125
-124
-124
-123
-123
-122
-122
-121
-120
-120
-120
-120
-120
-119
-118
-118
-118
-118
-118
-118
-119
-119
-119
-119
-119
-119
-120
-120
-120
-120
-121
-121
-121
-122
-122
-123
-123
-124
-124
-125
-126
-128
-129
-130
-131
-132
-133
-134
-135
-136
-137
-139
-141
-141
-144
-145
-147
-148
-150
-151
-152
-154
-155
-156
-158
-159
-160
-162
-163
-164
-165
-167
-168
-169
-171
-172
-173
-175
-176
-177
-177
-178
-180
-181
-182
-184
-185
-185
-186
-187
-188
-189
-190
-191
-191
-192
-192
-194
-194
-195
-195
-196
-196
-198
-198
-199
-199
-199
-199
-200
-200
-201
-202
-202
-202
-202
-203
-203
-203
-204
-204
-205
-205
-205
-205
-205
-205
-205
-206
-206
-206
-206
-206
-206
-206
-206
-206
-206
-205
-205
-206
-206
-206
-206
-206
-206
-206
-206
-206
-206
-206
-206
-206
-206
-205
-205
-205
-206
-206
-206
-206
-206
-205
-205
-205
-205
-205
-205
-205
-205
-205
-205
-205
-205
-205
-205
-205
-205
-204
-204
-203
-203
-203
-203
-203
-203
-203
-202
-202
-202
-202
-202
-201
-201
-201
-201
-201
-201
-200
-200
-200
-200
-200
-199
-200
-200
-200
-200
-199
-199
-199
-199
-199
-199
-199
-198
-198
-198
-198
-198
-198
-198
-198
-198
-198
-198
-198
-197
-197
-197
-197
-197
-197
-196
-196
-196
-196
-196
-196
-196
-196
-196
-196
-196
-196
-195
-195
-195
-195
-194
-194
-193
-194
-194
-194
-194
-194
-193
-193
-193
-193
-193
-193
-192
-192
-192
-192
-192
-191
-191
-191
-192
-192
-192
-192
-192
-192
-192
-192
-193
-193
-193
-193
-193
-193
-193
-193
-193
-193
-193
-192
-192
-192
-192
-192
-193
-193
-193
-193
-193
-193
-193
-193
-193
-193
-193
-192
-192
-192
-192
-193
-193
-193
-193
-193
-193
-193
-193
-193
-193
-193
-193
-193
-194
-194
-194
-194
-194
-194
-194
-194
-195
-195
-195
-195
-195
-195
-195
-195
-195
-195
-195
-195
-195
-195
-195
-195
-195
-194
-194
-194
-194
-194
-194
-194
-194
-194
-194
-194
-194
-194
-194
-194
-194
-195
-195
-195
-195
-195
-195
-195
-195
-195
-195
-194
-194
-194
-194
-194
-194
-194
-194
-195
-195
-195
-195
-195
-195
-195
-195
-195
-195
-196
-196
-196
-196
-195
-196
-196
-196
-196
-196
-196
-196
-196
-196
-196
-196
-195
-195
-195
-195
-195
-195
-195
-195
-195
-195
-195
-195
-195
-195
-195
-195
-195
-195
-195
-196
-196
-196
-196
-195
-195
-195
-195
-195
-195
-195
-195
-195
-195
-195
-194
-195
-195
-195
-195
-194
-194
-194
-194
-194
-195
-195
-195
-195
-195
-195
-195
-195
-195
-195
-195
-194
-194
-194
-194
-194
-194
-194
-194
-194
-194
-194
-194
-194
-194
-194
-194
-194
-194
-194
-193
-194
-194
-194
-194
-194
-193
-193
-193
-193
-193
-193
-193
-193
-192
-192
-192
-192
-192
-192
-192
-192
-192
-192
-193
-193
-193
-193
-193
-193
-193
-193
-193
-192
-192
-192
-192
-192
-192
-192
-192
-192
-193
-193
-192
-192
-192
-192
-191
-191
-191
-191
-191
-191
-191
-191
-191
-191
-190
-190
-190
-190
-190
-190
-190
-190
-190
-191
-191
-191
-191
-191
-191
-191
-191
-191
-191
-191
-191
-191
-191
-191
-191
-191
-190
-190
-190
-190
-189
-189
-189
-189
-188
-188
-189
-189
-188
-188
-188
-188
-188
-188
-188
-188
-188
-188
-188
-188
-188
-188
-188
-188
-188
-188
-188
-188
-188
-188
-188
-188
-188
-188
-188
-188
-187
-187
-187
-187
-186
-186
-186
-186
-186
-185
-185
-185
-185
-185
-184
-184
-184
-184
-184
-182
-182
-182
-182
-182
-182
-181
-181
-180
-179
-179
-179
-178
-178
-178
-178
-177
-177
-177
-176
-176
-175
-175
-175
-175
-174
-174
-174
-174
-174
-173
-173
-173
-173
-173
-173
-172
-173
-173
-173
-173
-173
-173
-174
-173
-173
-173
-173
-173
-173
-173
-173
-173
-173
-172
-172
-173
-173
-172
-173
-173
-173
-173
-174
-174
-174
-175
-175
-175
-176
-176
-177
-177
-178
-178
-178
-178
-178
-178
-178
-178
-178
-178
-179
-179
-179
-179
-178
-178
-178
-179
-178
-178
-179
-179
-178
-178
-179
-179
-178
-179
-179
-180
-179
-179
-180
-180
-180
-180
-180
-180
-180
-180
-180
-181
-181
-181
-181
-180
-180
-181
-181
-181
-181
-181
-181
-181
-181
-182
-182
-182
-181
-181
-181
-181
-181
-181
-181
-180
-180
-180
-180
-179
-179
-178
-177
-176
-174
-173
-170
-168
-164
-161
-157
-152
-147
-142
-135
-128
-121
-112
-103
-92
-81
-69
-57
-44
-31
-18
-3
10
23
36
48
58
67
74
79
82
83
81
76
69
59
46
30
12
-10
-34
-60
-87
-115
-145
-176
-208
-238
-269
-299
-327
-353
-378
-401
-420
-438
-453
-466
-475
-482
-486
-487
-486
-483
-476
-469
-458
-447
-434
-420
-405
-389
-374
-357
-342
-325
-309
-295
-280
-266
-253
-240
-229
-218
-209
-200
-194
-186
-181
-176
-171
-168
-165
-163
-161
-159
-159
-157
-156
-156
-156
-155
-155
-154
-155
-155
-154
-154
-153
-154
-153
-153
-152
-151
-152
-151
-150
-150
-149
-148
-148
-147
-146
-146
-145
-145
-144
-144
-144
-143
-143
-142
-142
-142
-142
-141
-141
-141
-141
-140
-140
-140
-139
-139
-139
-138
-138
-138
-137
-137
-137
-136
-136
-135
-135
-135
-134
-134
-133
-133
-133
-133
-133
-133
-132
-131
-131
-131
-130
-130
-130
-130
-129
-129
-129
-128
-128
-127
-127
-127
-126
-127
-127
-125
-125
-124
-124
-124
-123
-123
-123
-122
-122
-122
-121
-121
-121
-120
-120
-119
-118
-118
-118
-117
-117
-117
-116
-116
-115
-115
-115
-114
-114
-113
-113
-113
-111
-111
-111
-110
-110
-109
-109
-109
-108
-108
-106
-106
-106
-105
-105
-104
-104
-104
-103
-102
-102
-102
-101
-101
-100
-99
-99
-98
-98
-97
-97
-96
-96
-95
-95
-94
-94
-93
-92
-92
-91
-90
-89
-88
-87
-87
-87
-87
-86
-84
-84
-83
-83
-82
-82
-81
-81
-80
-79
-78
-77
-77
-76
-76
-74
-73
-73
-72
-72
-71
-71
-70
-69
-68
-68
-67
-67
-66
-65
-64
-63
-63
-62
-62
-61
-60
-59
-59
-58
-58
-57
-57
-55
-55
-54
-54
-54
-53
-53
-52
-51
-51
-51
-50
-50
-50
-50
-49
-49
-48
-48
-48
-48
-48
-48
-48
-48
-48
-48
-48
-48
-48
-48
-48
-48
-48
-48
-49
-49
-49
-50
-50
-50
-51
-51
-52
-52
-53
-53
-54
-55
-55
-56
-57
-58
-59
-60
-61
-62
-63
-64
-65
-66
-68
-69
-70
-72
-73
-75
-76
-79
-79
-81
-83
-84
-86
-87
-89
-90
-91
-93
-95
-96
-98
-99
-100
-101
-104
-105
-106
-107
-108
-110
-112
-113
-114
-116
-117
-118
-119
-119
-121
-122
-123
-124
-125
-125
-126
-128
-129
-129
-130
-130
-131
-133
-133
-134
-134
-135
-135
-137
-137
-138
-138
-139
-139
-139
-141
-141
-141
-142
-142
-143
-143
-144
-144
-144
-144
-145
-146
-146
-146
-146
-146
-146
-147
-147
-147
-147
-147
-147
-147
-148
-148
-148
-148
-148
-148
-148
-148
-148
-148
-148
-148
-148
-147
-147
-147
-147
-148
-148
-148
-148
-148
-148
-148
-148
-148
-148
-148
-148
-147
-147
-147
-147
-147
-147
-147
-147
-147
-147
-147
-147
-146
-146
-146
-146
-146
-146
-146
-146
-146
-146
-146
-146
-146
-146
-146
-146
-146
-146
-145
-145
-145
-145
-145
-145
-145
-144
-144
-144
-144
-144
-144
-144
-144
-144
-143
-143
-143
-143
-143
-143
-143
-143
-143
-143
-143
-143
-143
-143
-143
-142
-142
-142
-142
-142
-142
-142
-142
-142
-142
-142
-142
-141
-141
-141
-141
-141
-141
-141
-141
-141
-141
-141
-141
-141
-141
-141
-140
-140
-140
-140
-140
-140
-140
-140
-140
-140
-140
-140
-141
-141
-140
-140
-140
-140
-140
-140
-141
-141
-141
-141
-141
-141
-141
-141
-141
-141
-141
-141
-141
-141
-141
-141
-141
-141
-141
-141
-142
-142
-142
-142
-142
-142
-142
-142
-142
-142
-142
-142
-142
-143
-143
-143
-143
-143
-143
-143
-143
-143
-143
-143
-143
-144
-144
-144
-144
-144
-145
-145
-145
-146
-146
-146
-146
-146
-146
-146
-146
-146
-147
-147
-147
-147
-147
-147
-147
-147
-147
-147
-147
-148
-148
-148
-148
-148
-148
-148
-149
-149
-149
-149
-149
-149
-149
-149
-149
-149
-149
-149
-149
-150
-150
-150
-150
-150
-150
-151
-151
-151
-151
-151
-151
-152
-152
-152
-152
-152
-152
-152
-152
-152
-152
-152
-153
-153
-153
-153
-153
-153
-153
-153
-153
-153
-153
-153
-153
-153
-154
-154
-154
-154
-154
-154
-154
-154
-154
-154
-154
-154
-154
-154
-154
-154
-154
-153
-153
-153
-153
-153
-154
-154
-154
-154
-154
-154
-154
-154
-154
-154
-154
-154
-154
-154
-154
-155
-155
-155
-155
-155
-155
-155
-155
-155
-155
-155
-155
-155
-155
-155
-155
-155
-155
-155
-155
-155
-155
-155
-155
-155
-155
-155
-155
-155
-155
-155
-155
-155
-155
-155
-155
-155
-155
-155
-155
-155
-155
-155
-155
-155
-155
-155
-155
-155
-155
-156
-156
-156
-156
-156
-156
-156
-156
-156
-156
-156
-156
-156
-156
-156
-156
-156
-156
-155
-155
-156
-157
-157
-157
-156
-156
-156
-156
-156
-158
-158
-158
-157
-157
-157
-158
-158
-157
-157
-159
-159
-159
-159
-159
-159
-159
-159
-159
-159
-159
-159
-159
-159
-158
-158
-158
-158
-158
-158
-158
-158
-158
-158
-158
-158
-158
-158
-158
-159
-158
-158
-158
-159
-159
-159
-158
-158
-158
-158
-158
-158
-158
-158
-158
-158
-158
-158
-158
-158
-158
-158
-158
-158
-158
-158
-158
-158
-158
-158
-158
-158
-158
-158
-158
-158
-158
-159
-159
-159
-159
-159
-159
-159
-159
-159
-159
-159
-159
-159
-159
-159
-159
-159
-159
-159
-159
-158
-158
-158
-158
-158
-157
-157
-157
-157
-156
-156
-156
-156
-156
-155
-155
-155
-155
-154
-154
-154
-154
-153
-153
-153
-152
-152
-152
-152
-152
-151
-151
-151
-150
-150
-149
-149
-149
-149
-148
-148
-148
-147
-147
-147
-147
-147
-147
-147
-147
-148
-148
-148
-148
-148
-148
-148
-149
-149
-149
-149
-150
-150
-150
-150
-150
-150
-151
-151
-151
-151
-152
-152
-152
-153
-153
-153
-153
-153
-153
-154
-154
-154
-155
-155
-155
-156
-156
-156
-157
-157
-157
-157
-158
-158
-158
-158
-158
-158
-158
-159
-159
-159
-159
-158
-158
-158
-159
-159
-159
-159
-160
-160
-160
-160
-161
-161
-161
-161
-161
-162
-162
-162
-162
-162
-163
-163
-163
-163
-163
-164
-164
-164
-164
-164
-164
-164
-164
-165
-165
-165
-165
-165
-165
-165
-165
-165
-164
-164
-164
-164
-164
-164
-164
-163
-163
-163
-163
-161
-161
-160
-159
-157
-156
-153
-149
-146
-142
-138
-133
-127
-121
-113
-105
-96
-86
-75
-63
-52
-38
-25
-11
2
16
29
42
52
63
72
80
85
88
89
88
84
77
68
56
41
22
1
-22
-47
-74
-103
-134
-164
-196
-226
-258
-289
-318
-345
-371
-394
-415
-434
-450
-462
-473
-480
-484
-485
-483
-479
-472
-463
-452
-439
-424
-409
-393
-376
-359
-342
-326
-309
-293
-278
-263
-249
-236
-225
-215
-206
-197
-190
-184
-178
-172
-168
-165
-163
-160
-158
-156
-155
-154
-154
-153
-152
-152
-152
-151
-152
-152
-152
-151
-151
-151
-151
-151
-150
-150
-150
-149
-149
-148
-149
-149
-148
-148
-148
-147
-147
-147
-146
-146
-145
-145
-145
-145
-144
-144
-144
-143
-143
-143
-142
-142
-142
-142
-141
-141
-141
-141
-140
-140
-140
-140
-140
-139
-139
-139
-139
-139
-138
-138
-138
-138
-137
-137
-137
-136
-136
-136
-135
-135
-135
-135
-134
-135
-135
-134
-134
-134
-134
-133
-133
-133
-131
-131
-131
-130
-130
-130
-129
-129
-129
-128
-128
-128
-127
-127
-127
-126
-126
-126
-126
-125
-125
-125
-124
-124
-124
-124
-123
-123
-123
-122
-121
-121
-120
-120
-120
-119
-119
-119
-118
-118
-118
-117
-117
-116
-115
-115
-115
-114
-114
-114
-113
-112
-112
-111
-111
-111
-110
-110
-110
-109
-109
-108
-108
-108
-107
-106
-106
-105
-105
-105
-104
-104
-103
-102
-102
-102
-101
-101
-100
-99
-99
-98
-98
-98
-96
-96
-96
-95
-95
-94
-94
-93
-93
-92
-91
-91
-90
-90
-88
-88
-87
-87
-86
-86
-85
-84
-83
-83
-82
-82
-81
-80
-80
-79
-78
-77
-77
-77
-76
-75
-75
-74
-74
-74
-73
-72
-72
-72
-72
-70
-70
-70
-69
-69
-69
-68
-67
-67
-67
-67
-66
-66
-66
-65
-65
-64
-64
-64
-64
-63
-63
-63
-63
-63
-63
-62
-62
-63
-63
-63
-63
-63
-62
-63
-63
-63
-64
-64
-64
-65
-65
-66
-66
-67
-68
-68
-69
-70
-70
-71
-72
-73
-75
-76
-77
-78
-79
-80
-81
-83
-84
-85
-86
-87
-90
-91
-92
-93
-95
-97
-98
-99
-101
-103
-104
-106
-108
-109
-111
-112
-114
-115
-117
-119
-120
-121
-123
-125
-126
-128
-129
-130
-131
-133
-134
-135
-136
-138
-139
-140
-141
-143
-144
-144
-146
-147
-148
-148
-150
-151
-152
-152
-154
-155
-155
-156
-157
-158
-158
-159
-159
-160
-161
-162
-162
-162
-163
-163
-164
-165
-165
-166
-166
-166
-167
-168
-168
-169
-169
-169
-169
-170
-170
-170
-170
-171
-172
-172
-172
-172
-172
-172
-172
-173
-173
-173
-173
-173
-173
-173
-173
-173
-173
-173
-173
-173
-173
-173
-173
-173
-173
-173
-173
-173
-173
-174
-174
-174
-174
-174
-174
-174
-174
-174
-174
-174
-174
-174
-174
-174
-174
-174
-174
-174
-174
-175
-175
-175
-175
-175
-175
-174
-174
-174
-174
-174
-174
-174
-174
-173
-173
-173
-173
-173
-173
-173
-173
-173
-173
-173
-173
-173
-173
-173
-173
-173
-173
-173
-173
-173
-173
-172
-172
-172
-172
-172
-172
-172
-172
-172
-172
-172
-171
-171
-171
-171
-172
-172
-172
-172
-172
-172
-172
-172
-172
-172
-172
-172
-172
-172
-172
-172
-172
-172
-172
-172
-172
-172
-172
-172
-172
-172
-171
-171
-171
-172
-172
-172
-172
-172
-172
-172
-173
-173
-173
-173
-173
-173
-173
-173
-173
-173
-173
-173
-173
-173
-173
-173
-173
-173
-173
-173
-173
-173
-173
-173
-173
-173
-174
-174
-174
-174
-174
-174
-174
-174
-174
-174
-174
-174
-174
-174
-174
-174
-174
-174
-174
-174
-174
-175
-175
-176
-176
-176
-176
-176
-176
-177
-177
-177
-177
-177
-178
-178
-178
-178
-179
-179
-179
-179
-179
-180
-180
-180
-180
-180
-180
-180
-181
-181
-181
-181
-181
-181
-181
-181
-182
-182
-182
-182
-182
-182
-182
-183
-183
-183
-183
-183
-183
-184
-184
-184
-184
-184
-184
-184
-184
-184
-184
-184
-184
-185
-185
-185
-185
-185
-185
-185
-185
-185
-185
-185
-185
-185
-185
-185
-186
-186
-186
-186
-186
-186
-186
-186
-186
-186
-186
-188
-188
-188
-188
-188
-188
-188
-188
-188
-189
-189
-189
-189
-189
-189
-189
-189
-189
-190
-190
-190
-190
-190
-190
-190
-190
-190
-190
-190
-190
-190
-190
-190
-189
-189
-189
-189
-189
-190
-190
-190
-190
-190
-190
-190
-190
-190
-190
-190
-190
-190
-190
-190
-190
-190
-190
-190
-190
-190
-190
-190
-190
-190
-190
-190
-191
-191
-191
-191
-191
-191
-191
-191
-191
-191
-191
-191
-191
-191
-191
-191
-191
-192
-192
-192
-192
-191
-191
-192
-192
-192
-192
-192
-191
-191
-191
-191
-191
-191
-191
-191
-191
-191
-191
-191
-191
-191
-191
-191
-191
-191
-191
-191
-191
-191
-191
-191
-191
-191
-191
-191
-191
-191
-191
-191
-191
-191
-191
-191
-191
-191
-191
-191
-191
-191
-191
-191
-191
-191
-191
-191
-191
-191
-192
-192
-192
-192
-192
-192
-192
-192
-192
-192
-192
-192
-192
-192
-192
-192
-192
-192
-192
-192
-192
-192
-192
-192
-192
-192
-192
-192
-192
-192
-192
-192
-192
-192
-192
-192
-192
-192
-192
-193
-192
-192
-192
-192
-192
-192
-192
-192
-193
-193
-193
-193
-193
-193
-193
-192
-192
-192
-192
-192
-193
-193
-193
-193
-193
-193
-193
-193
-193
-193
-193
-193
-193
-192
-192
-192
-192
-192
-192
-192
-191
-191
-191
-191
-190
-190
-190
-189
-188
-188
-187
-187
-187
-187
-186
-186
-186
-185
-185
-184
-184
-184
-184
-183
-183
-183
-182
-182
-182
-182
-182
-182
-182
-182
-181
-181
-181
-181
-181
-181
-181
-181
-181
-181
-181
-182
-182
-182
-182
-181
-182
-182
-182
-182
-183
-183
-183
-184
-184
-184
-184
-185
-185
-185
-185
-185
-186
-186
-187
-187
-188
-188
-188
-188
-189
-189
-189
-190
-190
-190
-190
-191
-191
-191
-191
-191
-191
-191
-191
-192
-192
-191
-191
-191
-192
-192
-192
-191
-192
-192
-192
-192
-192
-192
-192
-192
-192
-193
-193
-194
-194
-194
-194
-195
-195
-195
-195
-195
-195
-195
-196
-196
-196
-197
-197
-196
-196
-196
-196
-196
-196
-196
-196
-196
-196
-195
-195
-195
-195
-195
-195
-195
-195
-194
-194
-194
-194
-194
-194
-193
-192
-191
-190
-188
-187
-185
-181
-178
-175
-171
-166
-161
-154
-148
-140
-131
-121
-111
-100
-88
-76
-63
-49
-36
-21
-9
4
16
27
36
44
51
55
58
57
55
50
42
31
17
0
-19
-41
-65
-92
-120
-150
-180
-211
-243
-274
-305
-336
-364
-391
-415
-437
-457
-473
-487
-498
-506
-511
-512
-512
-508
-501
-492
-481
-467
-453
-438
-422
-405
-388
-371
-354
-337
-322
-306
-291
-278
-266
-254
-244
-235
-227
-219
-213
-208
-202
-199
-195
-192
-189
-187
-186
-185
-183
-182
-182
-182
-182
-180
-181
-181
-181
-180
-180
-180
-180
-180
-179
-179
-180
-179
-179
-179
-178
-178
-177
-177
-176
-176
-176
-175
-175
-174
-174
-174
-173
-173
-173
-173
-172
-172
-172
-171
-171
-171
-171
-171
-170
-170
-170
-170
-169
-169
-169
-169
-168
-168
-168
-168
-167
-167
-167
-166
-166
-166
-165
-165
-165
-164
-164
-164
-163
-163
-163
-162
-162
-163
-162
-162
-162
-161
-161
-161
-160
-159
-158
-158
-159
-158
-158
-157
-157
-156
-156
-156
-154
-155
-154
-154
-154
-153
-153
-152
-152
-152
-151
-150
-150
-150
-150
-149
-149
-149
-148
-147
-147
-147
-147
-147
-146
-146
-145
-144
-144
-144
-142
-142
-142
-142
-141
-141
-140
-139
-139
-139
-137
-137
-137
-136
-136
-136
-135
-134
-134
-133
-133
-132
-132
-132
-131
-131
-130
-130
-130
-128
-128
-127
-127
-126
-126
-126
-125
-123
-123
-122
-122
-122
-120
-120
-119
-119
-118
-118
-117
-117
-116
-115
-115
-114
-114
-114
-112
-112
-112
-111
-110
-110
-109
-109
-109
-107
-107
-107
-105
-105
-105
-104
-103
-103
-102
-101
-101
-100
-100
-98
-98
-97
-97
-96
-95
-95
-94
-94
-93
-93
-92
-91
-91
-90
-90
-90
-89
-89
-89
-88
-88
-87
-87
-87
-87
-86
-86
-86
-85
-85
-85
-85
-85
-85
-85
-84
-84
-84
-84
-84
-84
-84
-84
-84
-83
-84
-84
-84
-84
-85
-86
-86
-86
-87
-86
-86
-87
-88
-88
-89
-89
-90
-91
-92
-92
-93
-94
-95
-96
-97
-98
-100
-101
-102
-103
-104
-105
-107
-108
-110
-111
-113
-114
-116
-117
-119
-121
-122
-123
-126
-127
-128
-130
-131
-133
-134
-135
-137
-139
-140
-141
-143
-144
-145
-147
-148
-149
-151
-152
-153
-154
-155
-156
-158
-159
-159
-160
-162
-162
-163
-165
-165
-166
-166
-167
-169
-169
-170
-170
-171
-172
-173
-173
-174
-174
-175
-176
-177
-177
-177
-178
-178
-179
-180
-180
-180
-180
-181
-181
-182
-182
-182
-182
-183
-183
-183
-183
-183
-183
-183
-184
-184
-184
-184
-184
-184
-184
-184
-183
-183
-183
-183
-183
-183
-183
-183
-183
-183
-183
-183
-183
-183
-183
-183
-183
-183
-183
-183
-183
-183
-183
-183
-183
-183
-183
-183
-183
-184
-184
-184
-184
-184
-184
-184
-184
-184
-184
-184
-184
-184
-184
-184
-184
-184
-184
-184
-184
-184
-183
-183
-182
-182
-182
-182
-182
-182
-182
-183
-183
-183
-183
-183
-183
-182
