# Simple Text Format
# Sampling Rate (Hz):= 1200.00
# Resolution:= 12
# Labels:= ECG	aVL
# Age:=	60
# Gender:=	Masculino
-29
-30
-30
-31
-31
-32
-32
-32
-33
-33
-33
-34
-34
-34
-35
-35
-35
-36
-36
-36
-36
-37
-36
-36
-36
-37
-37
-37
-37
-38
-38
-38
-38
-38
-39
-39
-39
-39
-39
-40
-41
-41
-41
-41
-41
-41
-41
-41
-42
-42
-42
-42
-42
-42
-42
-42
-42
-41
-40
-40
-40
-40
-40
-40
-40
-40
-40
-39
-40
-40
-40
-40
-40
-40
-40
-40
-40
-40
-41
-41
-40
-40
-40
-40
-40
-40
-39
-39
-40
-40
-40
-40
-40
-40
-40
-40
-40
-40
-41
-41
-41
-41
-41
-42
-42
-42
-42
-43
-43
-43
-43
-43
-43
-42
-42
-43
-43
-42
-42
-42
-42
-42
-42
-42
-42
-42
-42
-42
-42
-42
-42
-42
-41
-42
-42
-42
-42
-42
-42
-42
-42
-42
-42
-42
-42
-42
-42
-42
-42
-42
-42
-42
-42
-42
-42
-41
-41
-41
-42
-42
-42
-42
-42
-42
-42
-43
-43
-43
-43
-43
-43
-43
-43
-43
-43
-43
-43
-43
-43
-43
-43
-43
-43
-43
-43
-43
-42
-42
-42
-42
-42
-42
-42
-42
-42
-42
-42
-42
-42
-42
-42
-42
-42
-42
-42
-42
-42
-42
-42
-42
-42
-42
-42
-42
-42
-42
-42
-42
-43
-43
-43
-43
-43
-43
-43
-43
-43
-42
-42
-42
-42
-43
-43
-43
-43
-42
-42
-43
-43
-43
-43
-43
-43
-43
-42
-42
-42
-42
-42
-42
-42
-42
-42
-42
-42
-42
-42
-42
-41
-41
-41
-41
-41
-42
-42
-42
-42
-42
-42
-42
-42
-42
-42
-42
-43
-44
-44
-44
-44
-44
-44
-44
-44
-44
-44
-44
-44
-44
-44
-44
-44
-44
-44
-44
-44
-43
-43
-43
-43
-43
-43
-43
-43
-43
-44
-44
-44
-44
-44
-44
-44
-44
-44
-44
-44
-44
-44
-44
-44
-44
-44
-44
-44
-45
-45
-45
-45
-45
-45
-45
-45
-45
-45
-46
-46
-46
-46
-46
-46
-46
-46
-46
-46
-46
-46
-46
-46
-46
-46
-46
-46
-46
-46
-46
-46
-46
-46
-46
-46
-46
-46
-46
-46
-46
-46
-46
-46
-46
-46
-46
-47
-47
-47
-47
-46
-46
-46
-46
-47
-47
-47
-47
-47
-47
-47
-47
-47
-48
-48
-48
-48
-48
-48
-47
-47
-47
-47
-47
-47
-47
-47
-47
-47
-47
-47
-47
-47
-48
-48
-48
-48
-48
-48
-48
-48
-48
-48
-48
-48
-48
-48
-47
-47
-48
-48
-48
-48
-48
-48
-48
-48
-49
-49
-49
-48
-48
-48
-48
-48
-48
-48
-48
-48
-48
-48
-48
-48
-49
-49
-49
-49
-49
-49
-48
-48
-48
-48
-48
-49
-49
-49
-49
-49
-49
-49
-49
-49
-49
-49
-49
-49
-49
-49
-49
-50
-50
-50
-50
-50
-50
-50
-50
-50
-50
-50
-50
-50
-50
-50
-50
-50
-50
-51
-51
-52
-52
-52
-52
-52
-52
-52
-52
-53
-53
-53
-53
-53
-53
-53
-53
-53
-53
-53
-53
-53
-53
-53
-53
-53
-53
-53
-53
-54
-54
-54
-54
-54
-54
-54
-54
-54
-54
-54
-54
-54
-54
-54
-54
-54
-54
-54
-54
-54
-54
-54
-54
-54
-54
-54
-54
-54
-54
-54
-53
-53
-53
-53
-54
-54
-53
-53
-53
-54
-53
-53
-53
-54
-53
-53
-53
-54
-54
-53
-53
-53
-53
-54
-54
-53
-53
-53
-54
-54
-54
-53
-54
-54
-54
-54
-54
-53
-54
-54
-54
-54
-54
-53
-53
-53
-53
-53
-53
-52
-52
-52
-51
-51
-50
-50
-49
-49
-48
-48
-47
-46
-46
-45
-46
-46
-45
-45
-45
-46
-46
-46
-46
-46
-46
-46
-47
-48
-48
-48
-49
-49
-49
-50
-50
-51
-52
-52
-52
-52
-52
-52
-53
-53
-53
-53
-53
-53
-54
-54
-54
-54
-54
-54
-54
-55
-55
-55
-55
-56
-56
-56
-57
-57
-57
-57
-57
-58
-58
-58
-58
-58
-58
-59
-59
-59
-59
-59
-59
-59
-60
-60
-59
-59
-59
-59
-59
-59
-59
-58
-59
-59
-59
-59
-59
-59
-59
-59
-59
-59
-60
-60
-60
-60
-60
-61
-62
-63
-64
-64
-66
-66
-68
-69
-70
-72
-74
-75
-76
-77
-79
-80
-80
-80
-80
-80
-79
-77
-75
-72
-69
-64
-61
-55
-50
-44
-38
-31
-24
-17
-9
-1
7
15
23
30
36
42
48
51
55
57
58
58
57
55
52
48
44
37
32
25
18
10
2
-6
-13
-21
-28
-34
-40
-45
-49
-53
-56
-58
-60
-61
-61
-61
-62
-62
-61
-59
-59
-58
-57
-57
-56
-55
-54
-54
-54
-53
-53
-54
-53
-54
-54
-54
-54
-55
-55
-55
-56
-56
-56
-56
-57
-56
-56
-56
-57
-57
-57
-57
-57
-58
-58
-58
-57
-57
-57
-57
-57
-57
-57
-57
-57
-57
-57
-57
-57
-56
-56
-56
-56
-56
-56
-56
-56
-56
-56
-56
-56
-56
-56
-56
-56
-56
-55
-54
-54
-54
-54
-54
-54
-54
-54
-54
-54
-54
-54
-54
-54
-54
-55
-55
-55
-55
-55
-54
-55
-55
-55
-55
-55
-55
-55
-56
-56
-56
-56
-56
-56
-56
-55
-55
-55
-55
-55
-55
-55
-54
-54
-54
-54
-54
-54
-54
-54
-53
-53
-53
-52
-52
-53
-53
-53
-53
-53
-53
-53
-53
-53
-53
-53
-53
-52
-52
-52
-52
-52
-52
-52
-53
-53
-53
-53
-53
-52
-52
-52
-52
-52
-52
-52
-51
-51
-51
-51
-51
-52
-52
-52
-52
-52
-52
-52
-51
-51
-52
-52
-52
-52
-52
-51
-51
-51
-51
-51
-51
-51
-50
-50
-50
-50
-49
-49
-49
-49
-49
-48
-48
-48
-48
-48
-48
-48
-47
-47
-46
-46
-46
-46
-46
-46
-45
-45
-45
-46
-45
-45
-45
-45
-45
-44
-44
-44
-44
-44
-44
-44
-44
-44
-43
-43
-43
-43
-42
-42
-42
-42
-42
-41
-41
-41
-41
-40
-40
-40
-39
-38
-38
-38
-37
-37
-37
-35
-35
-35
-34
-34
-34
-33
-33
-33
-32
-31
-30
-30
-30
-29
-29
-29
-28
-28
-27
-27
-28
-28
-27
-27
-26
-26
-26
-25
-25
-25
-25
-25
-25
-25
-25
-25
-25
-25
-25
-25
-25
-24
-24
-24
-24
-24
-25
-25
-25
-26
-26
-26
-26
-27
-28
-29
-29
-29
-30
-30
-30
-32
-32
-32
-33
-34
-35
-35
-35
-35
-37
-37
-37
-37
-39
-39
-39
-39
-41
-41
-41
-41
-41
-42
-43
-43
-43
-43
-44
-44
-44
-44
-44
-45
-45
-45
-45
-45
-46
-46
-46
-46
-47
-47
-47
-47
-47
-47
-47
-48
-48
-48
-48
-48
-48
-48
-49
-49
-49
-49
-49
-49
-49
-49
-49
-49
-50
-50
-50
-50
-50
-50
-50
-49
-49
-49
-49
-48
-49
-49
-49
-48
-48
-48
-48
-48
-48
-48
-48
-48
-47
-47
-47
-47
-48
-48
-48
-48
-48
-48
-48
-49
-49
-49
-49
-49
-48
-48
-48
-48
-48
-49
-49
-48
-48
-48
-48
-48
-48
-48
-48
-48
-48
-48
-48
-48
-48
-48
-48
-48
-48
-48
-48
-48
-47
-47
-47
-47
-47
-47
-47
-47
-47
-47
-47
-47
-47
-47
-47
-47
-47
-47
-47
-47
-47
-47
-46
-46
-46
-46
-46
-46
-45
-45
-46
-46
-46
-46
-46
-45
-45
-45
-45
-46
-46
-46
-46
-46
-46
-46
-46
-46
-46
-46
-46
-46
-46
-46
-46
-46
-46
-46
-46
-46
-46
-46
-46
-46
-46
-46
-45
-45
-45
-45
-45
-45
-45
-45
-45
-45
-44
-44
-44
-44
-44
-44
-44
-44
-44
-44
-44
-44
-44
-44
-44
-44
-43
-43
-43
-43
-43
-43
-43
-43
-44
-44
-44
-43
-42
-42
-42
-43
-43
-43
-42
-42
-42
-42
-42
-42
-42
-42
-42
-42
-42
-42
-42
-43
-43
-43
-43
-43
-43
-44
-44
-44
-44
-44
-44
-44
-43
-43
-43
-43
-43
-42
-42
-42
-42
-43
-43
-43
-42
-42
-42
-42
-42
-42
-42
-43
-43
-43
-43
-43
-43
-43
-43
-43
-43
-45
-45
-45
-45
-45
-45
-45
-45
-45
-45
-45
-46
-45
-45
-45
-45
-45
-45
-45
-45
-45
-45
-45
-45
-45
-46
-46
-46
-46
-47
-47
-47
-47
-47
-47
-47
-48
-48
-48
-48
-48
-48
-48
-48
-48
-48
-48
-48
-48
-48
-48
-48
-48
-48
-48
-48
-48
-48
-48
-48
-48
-49
-49
-49
-49
-49
-49
-49
-49
-49
-49
-49
-49
-49
-49
-48
-48
-48
-48
-48
-48
-48
-48
-48
-48
-48
-49
-49
-49
-49
-49
-49
-49
-49
-49
-48
-48
-48
-48
-48
-48
-48
-48
-48
-49
-49
-49
-49
-49
-49
-49
-49
-49
-49
-49
-49
-49
-49
-49
-49
-49
-49
-49
-49
-49
-49
-49
-48
-47
-47
-47
-47
-47
-47
-47
-48
-48
-48
-48
-48
-48
-48
-48
-48
-48
-48
-48
-48
-48
-48
-48
-48
-48
-48
-48
-48
-48
-48
-48
-48
-48
-48
-48
-48
-48
-48
-48
-48
-47
-47
-47
-47
-47
-47
-47
-47
-47
-48
-48
-48
-48
-48
-48
-48
-48
-48
-48
-48
-48
-47
-47
-47
-47
-47
-47
-47
-47
-47
-48
-48
-48
-48
-48
-48
-48
-48
-48
-48
-48
-48
-48
-48
-48
-48
-48
-48
-48
-48
-48
-48
-48
-48
-48
-48
-48
-49
-49
-49
-49
-49
-49
-49
-49
-49
-48
-48
-48
-48
-48
-48
-48
-48
-48
-48
-48
-48
-48
-48
-48
-49
-49
-49
-49
-49
-50
-50
-50
-49
-49
-50
-50
-50
-50
-50
-50
-50
-51
-50
-50
-51
-51
-50
-50
-51
-51
-50
-50
-51
-50
-50
-51
-50
-51
-51
-50
-51
-51
-51
-51
-51
-51
-51
-51
-51
-50
-50
-50
-49
-49
-49
-48
-48
-47
-47
-46
-45
-45
-44
-44
-43
-43
-42
-42
-41
-41
-42
-41
-41
-41
-41
-41
-41
-41
-41
-43
-43
-43
-43
-44
-44
-44
-45
-45
-46
-46
-47
-48
-48
-48
-48
-48
-48
-48
-49
-49
-49
-49
-49
-50
-50
-50
-49
-50
-50
-50
-49
-50
-50
-49
-50
-50
-50
-50
-50
-50
-50
-51
-51
-50
-50
-50
-51
-51
-50
-50
-50
-50
-51
-51
-51
-51
-50
-50
-50
-50
-50
-50
-50
-50
-50
-50
-50
-50
-50
-50
-50
-50
-50
-50
-50
-51
-51
-51
-52
-53
-53
-53
-54
-55
-56
-57
-58
-60
-61
-63
-64
-66
-67
-68
-69
-70
-71
-72
-72
-72
-71
-70
-69
-67
-64
-61
-57
-53
-49
-43
-39
-33
-28
-21
-15
-9
-1
6
13
18
25
30
36
40
43
47
49
49
50
48
47
45
41
38
34
28
23
17
10
3
-4
-10
-17
-23
-28
-33
-37
-41
-45
-47
-49
-51
-52
-53
-53
-52
-52
-51
-51
-50
-49
-48
-47
-47
-46
-46
-45
-45
-45
-44
-45
-45
-44
-45
-45
-45
-45
-46
-46
-46
-46
-47
-47
-47
-48
-48
-49
-49
-49
-49
-49
-49
-49
-49
-49
-49
-49
-50
-50
-50
-50
-50
-50
-49
-49
-49
-49
-49
-49
-49
-49
-49
-49
-49
-49
-49
-49
-49
-49
-48
-48
-48
-48
-48
-48
-48
-48
-48
-48
-48
-47
-47
-47
-47
-47
-47
-48
-47
-47
-47
-47
-47
-47
-47
-47
-47
-47
-46
-46
-46
-46
-46
-47
-47
-47
-47
-46
-46
-46
-47
-47
-47
-47
-47
-47
-47
-47
-46
-46
-46
-46
-46
-45
-45
-45
-45
-45
-45
-45
-45
-45
-45
-46
-46
-46
-46
-45
-45
-45
-45
-45
-45
-45
-45
-45
-46
-46
-46
-46
-45
-45
-45
-45
-45
-45
-45
-45
-44
-45
-45
-45
-45
-45
-45
-46
-45
-45
-45
-45
-45
-45
-45
-46
-46
-46
-45
-45
-45
-45
-45
-45
-45
-45
-45
-45
-45
-45
-45
-45
-45
-45
-45
-45
-45
-45
-45
-45
-44
-44
-44
-44
-44
-43
-44
-44
-44
-43
-43
-43
-43
-43
-42
-42
-43
-43
-42
-42
-42
-42
-42
-41
-41
-41
-42
-41
-41
-41
-41
-41
-40
-40
-40
-40
-39
-39
-39
-39
-38
-38
-38
-38
-38
-37
-37
-37
-37
-37
-37
-36
-36
-36
-36
-36
-36
-36
-35
-35
-35
-35
-35
-35
-35
-34
-34
-34
-34
-34
-34
-34
-33
-33
-33
-33
-33
-33
-33
-33
-33
-33
-33
-33
-33
-33
-33
-32
-32
-32
-32
-32
-32
-32
-32
-32
-32
-33
-34
-34
-34
-34
-34
-34
-34
-34
-34
-35
-35
-35
-35
-36
-37
-37
-38
-38
-38
-39
-40
-41
-41
-41
-42
-42
-44
-44
-45
-45
-45
-47
-47
-48
-48
-48
-49
-49
-49
-50
-50
-51
-51
-51
-52
-52
-52
-53
-53
-53
-54
-53
-53
-54
-54
-54
-55
-54
-54
-54
-55
-55
-55
-56
-56
-56
-55
-56
-56
-56
-56
-57
-57
-57
-57
-57
-58
-58
-58
-58
-58
-57
-57
-58
-58
-58
-58
-58
-58
-58
-58
-58
-58
-58
-58
-58
-58
-58
-58
-58
-58
-58
-58
-58
-58
-58
-58
-59
-59
-59
-58
-58
-58
-58
-58
-58
-59
-59
-59
-59
-59
-59
-59
-59
-59
-59
-59
-59
-59
-60
-60
-60
-60
-60
-60
-60
-60
-60
-60
-60
-60
-60
-60
-60
-60
-60
-60
-60
-60
-60
-60
-60
-60
-60
-60
-60
-60
-60
-60
-60
-60
-60
-61
-61
-61
-61
-61
-61
-61
-61
-61
-61
-61
-61
-61
-61
-60
-60
-60
-60
-60
-60
-60
-60
-60
-60
-60
-59
-59
-59
-59
-59
-60
-60
-60
-60
-60
-60
-60
-61
-61
-61
-61
-61
-61
-61
-61
-61
-60
-60
-60
-60
-60
-60
-60
-60
-60
-60
-60
-60
-60
-60
-60
-59
-59
-58
-58
-58
-58
-58
-58
-58
-58
-59
-59
-59
-59
-59
-59
-59
-59
-59
-59
-59
-59
-59
-59
-59
-59
-59
-59
-59
-59
-60
-60
-60
-60
-60
-60
-60
-60
-60
-59
-59
-59
-59
-59
-59
-59
-59
-59
-59
-59
-58
-58
-58
-58
-58
-58
-58
-58
-59
-59
-59
-59
-59
-59
-59
-59
-59
-60
-60
-60
-60
-60
-60
-60
-60
-61
-61
-61
-61
-61
-61
-61
-61
-61
-61
-61
-61
-61
-61
-61
-61
-61
-60
-60
-61
-61
-61
-61
-61
-61
-61
-62
-62
-62
-62
-62
-62
-62
-62
-62
-62
-63
-63
-63
-63
-63
-63
-65
-65
-65
-65
-65
-65
-65
-64
-64
-64
-64
-64
-64
-64
-64
-64
-65
-65
-65
-64
-64
-64
-64
-64
-64
-64
-64
-64
-64
-64
-64
-64
-63
-63
-63
-63
-63
-63
-63
-63
-63
-63
-63
-64
-64
-64
-64
-64
-64
-64
-64
-64
-64
-64
-64
-64
-65
-65
-65
-65
-65
-65
-65
-65
-65
-65
-65
-65
-65
-65
-65
-65
-65
-65
-65
-65
-65
-65
-65
-65
-65
-65
-65
-65
-65
-65
-65
-64
-64
-64
-64
-65
-65
-65
-65
-65
-65
-64
-64
-64
-64
-64
-64
-64
-64
-64
-64
-64
-65
-65
-65
-65
-65
-64
-64
-64
-64
-64
-64
-64
-64
-65
-65
-65
-65
-65
-65
-65
-65
-65
-65
-65
-65
-65
-65
-65
-65
-65
-65
-65
-65
-65
-65
-66
-66
-66
-66
-66
-66
-66
-66
-66
-66
-66
-65
-65
-65
-65
-65
-65
-65
-65
-65
-65
-65
-65
-65
-65
-65
-65
-65
-65
-65
-65
-65
-65
-65
-65
-65
-65
-65
-65
-65
-65
-65
-65
-65
-65
-65
-65
-65
-65
-65
-65
-64
-64
-64
-64
-64
-64
-64
-64
-65
-65
-65
-65
-65
-65
-65
-65
-65
-65
-65
-66
-66
-66
-66
-66
-66
-66
-66
-66
-66
-66
-66
-66
-66
-66
-66
-66
-66
-66
-66
-66
-66
-66
-66
-66
-66
-66
-66
-66
-66
-66
-66
-66
-65
-65
-65
-65
-65
-65
-65
-65
-65
-65
-65
-65
-65
-66
-66
-66
-66
-66
-67
-66
-66
-67
-67
-67
-67
-67
-68
-67
-67
-67
-68
-67
-67
-67
-68
-68
-68
-67
-67
-67
-67
-68
-68
-68
-67
-68
-68
-68
-69
-69
-69
-68
-69
-69
-69
-69
-68
-68
-68
-68
-68
-68
-67
-66
-66
-65
-65
-64
-63
-63
-62
-62
-61
-61
-60
-60
-60
-60
-59
-59
-59
-58
-59
-59
-59
-59
-59
-59
-60
-60
-60
-60
-61
-62
-62
-62
-63
-63
-63
-64
-64
-64
-65
-65
-65
-65
-65
-65
-65
-67
-67
-67
-67
-67
-67
-68
-67
-67
-67
-68
-68
-68
-67
-68
-68
-68
-69
-68
-68
-68
-69
-69
-68
-68
-69
-69
-69
-69
-70
-70
-69
-69
-69
-69
-70
-70
-70
-70
-70
-70
-70
-70
-70
-70
-70
-70
-70
-70
-69
-69
-69
-69
-69
-69
-70
-70
-70
-71
-71
-72
-73
-74
-75
-76
-77
-78
-79
-80
-82
-83
-85
-86
-87
-89
-90
-91
-92
-92
-93
-92
-91
-90
-89
-87
-84
-81
-77
-73
-69
-65
-60
-55
-48
-43
-37
-31
-25
-18
-11
-6
0
5
10
14
19
21
23
24
24
23
23
21
18
16
12
7
3
-2
-8
-14
-19
-25
-31
-35
-40
-44
-48
-51
-54
-56
-59
-59
-61
-61
-62
-63
-63
-63
-62
-62
-61
-62
-61
-61
-61
-62
-62
-62
-63
-63
-63
-64
-65
-65
-65
-66
-66
-67
-68
-68
-68
-68
-68
-69
-69
-69
-69
-69
-69
-69
-69
-70
-70
-70
-70
-71
-71
-71
-71
-71
-71
-71
-71
-71
-71
-71
-71
-71
-71
-71
-71
-71
-71
-71
-71
-72
-72
-72
-71
-71
-71
-71
-71
-71
-71
-71
-71
-71
-71
-71
-71
-71
-71
-71
-71
-71
-71
-71
-71
-71
-70
-70
-70
-70
-70
-70
-70
-70
-70
-70
-69
-69
-69
-69
-69
-70
-70
-70
-70
-70
-70
-70
-70
-70
-70
-70
-69
-69
-69
-69
-69
-69
-68
-68
-68
-68
-68
-69
-69
-69
-69
-69
-69
-69
-69
-69
-69
-68
-68
-68
-68
-68
-68
-68
-68
-68
-68
-68
-68
-68
-69
-69
-68
-68
-68
-68
-68
-69
-68
-68
-68
-68
-68
-68
-68
-68
-68
-67
-67
-67
-67
-67
-67
-68
-67
-67
-67
-67
-67
-66
-66
-66
-67
-67
-67
-66
-66
-66
-66
-66
-67
-67
-67
-67
-66
-66
-66
-66
-65
-65
-65
-65
-65
-65
-64
-64
-64
-64
-64
-64
-63
-63
-63
-63
-64
-63
-63
-63
-63
-62
-62
-62
-62
-62
-62
-62
-62
-62
-62
-62
-61
-61
-61
-61
-61
-60
-60
-60
-60
-60
-59
-59
-59
-60
-60
-59
-59
-59
-59
-59
-59
-58
-58
-58
-58
-58
-58
-58
-56
-56
-56
-56
-56
-56
-56
-56
-56
-55
-55
-55
-55
-55
-55
-55
-55
-54
-54
-54
-54
-54
-54
-54
-54
-53
-52
-52
-52
-52
-52
-52
-52
-52
-53
-53
-53
-53
-53
-53
-53
-54
-54
-54
-54
-54
-55
-54
-54
-55
-55
-55
-57
-57
-57
-58
-58
-59
-59
-59
-60
-61
-62
-62
-63
-63
-64
-64
-65
-65
-66
-66
-68
-68
-69
-69
-70
-70
-71
-71
-71
-72
-72
-73
-73
-74
-74
-74
-75
-75
-75
-76
-76
-77
-77
-77
-78
-77
-77
-78
-78
-78
-77
-78
-78
-78
-78
-79
-78
-78
-78
-79
-79
-79
-78
-78
-78
-79
-79
-79
-79
-79
-79
-79
-80
-80
-80
-80
-80
-80
-80
-80
-81
-81
-81
-81
-81
-80
-80
-80
-80
-80
-80
-80
-80
-80
-80
-80
-80
-79
-79
-79
-79
-79
-79
-79
-79
-79
-79
-79
-79
-79
-79
-79
-79
-80
-80
-80
-80
-80
-80
-79
-79
-79
-79
-79
-79
-79
-79
-79
-79
-79
-79
-79
-80
-80
-80
-80
-80
-81
-81
-81
-80
-80
-80
-80
-80
-80
-80
-80
-80
-80
-80
-80
-80
-80
-80
-80
-80
-80
-80
-80
-80
-80
-80
-81
-81
-81
-81
-81
-81
-81
-81
-81
-81
-80
-80
-81
-80
-80
-80
-80
-80
-80
-80
-80
-80
-80
-80
-80
-80
-80
-80
-81
-81
-81
-81
-81
-81
-81
-81
-81
-81
-82
-82
-81
-81
-81
-81
-81
-81
-81
-81
-81
-81
-81
-81
-81
-81
-81
-81
-81
-81
-81
-81
-81
-81
-81
-81
-81
-81
-81
-81
-81
-81
-81
-81
-81
-80
-80
-80
-80
-80
-80
-80
-80
-80
-81
-81
-81
-81
-81
-81
-81
-81
-81
-81
-81
-81
-81
-81
-81
-81
-81
-81
-81
-81
-81
-81
-81
-81
-81
-81
-81
-81
-81
-81
-81
-81
-81
-81
-81
-81
-81
-81
-81
-81
-81
-81
-81
-81
-81
-81
-81
-81
-81
-81
-81
-81
-82
-82
-82
-82
-82
-82
-82
-81
-81
-81
-81
-81
-81
-81
-81
-81
-81
-82
-82
-82
-82
-82
-82
-82
-82
-82
-82
-82
-82
-82
-81
-81
-81
-81
-81
-80
-80
-80
-80
-81
-81
-81
-81
-81
-81
-81
-81
-81
-81
-81
-81
-81
-81
-81
-81
-82
-82
-82
-82
-82
-82
-82
-82
-82
-82
-82
-82
-82
-82
-81
-81
-81
-81
-81
-81
-81
-81
-81
-81
-80
-80
-80
-80
-80
-80
-80
-80
-80
-80
-80
-80
-80
-80
-80
-80
-80
-80
-80
-80
-80
-80
-80
-80
-80
-80
-80
-80
-80
-80
-80
-80
-80
-80
-80
-80
-80
-80
-80
-80
-80
-80
-80
-80
-80
-80
-80
-80
-80
-80
-80
-80
-80
-80
-80
-80
-80
-80
-80
-80
-80
-80
-80
-80
-80
-80
-79
-79
-79
-79
-79
-79
-79
-79
-79
-79
-79
-78
-78
-78
-78
-78
-78
-78
-78
-78
-78
-78
-79
-79
-79
-79
-79
-79
-79
-79
-79
-79
-79
-79
-79
-79
-79
-79
-79
-79
-79
-79
-79
-79
-79
-78
-78
-78
-78
-78
-78
-78
-78
-78
-78
-78
-77
-77
-77
-77
-77
-77
-77
-77
-77
-77
-78
-78
-78
-78
-78
-78
-78
-78
-78
-78
-78
-78
-78
-78
-78
-78
-78
-78
-78
-78
-78
-78
-78
-78
-78
-78
-78
-78
-79
-79
-79
-79
-79
-79
-79
-79
-79
-79
-79
-79
-79
-79
-79
-79
-79
-79
-79
-79
-79
-78
-78
-78
-79
-79
-79
-79
-79
-78
-78
-78
-78
-78
-78
-78
-78
-78
-78
-78
-78
-78
-78
-78
-79
-79
-79
-79
-79
-79
-79
-80
-80
-79
-79
-79
-80
-79
-79
-80
-80
-79
-79
-80
-79
-79
-79
-79
-79
-79
-78
-78
-79
-79
-79
-79
-78
-78
-79
-79
-78
-79
-79
-79
-79
-79
-79
-79
-79
-80
-79
-79
-79
-79
-79
-79
-77
-77
-77
-76
-76
-75
-75
-74
-74
-73
-73
-72
-71
-71
-70
-70
-69
-69
-68
-68
-69
-68
-68
-68
-68
-68
-68
-68
-68
-68
-69
-69
-69
-69
-71
-71
-71
-71
-72
-72
-72
-73
-73
-74
-74
-74
-74
-74
-74
-74
-75
-75
-75
-75
-75
-76
-76
-76
-76
-77
-77
-77
-77
-77
-78
-77
-77
-77
-78
-78
-78
-78
-78
-78
-78
-78
-78
-78
-78
-78
-78
-78
-78
-78
-77
-77
-77
-78
-78
-78
-78
-78
-78
-78
-78
-78
-78
-78
-78
-78
-78
-78
-78
-78
-78
-79
-79
-80
-80
-80
-81
-82
-83
-83
-84
-85
-87
-87
-89
-90
-92
-93
-95
-96
-97
-99
-100
-100
-100
-101
-100
-99
-97
-96
-94
-90
-87
-83
-79
-73
-69
-63
-57
-52
-45
-39
-32
-24
-17
-11
-4
2
7
12
16
20
22
24
25
25
24
23
21
18
14
10
6
0
-6
-12
-17
-24
-29
-35
-40
-45
-50
-54
-57
-59
-62
-64
-66
-67
-67
-68
-68
-68
-69
-68
-68
-68
-69
-68
-68
-68
-69
-69
-69
-69
-70
-70
-71
-71
-72
-71
-72
-72
-72
-74
-74
-74
-74
-75
-75
-75
-75
-75
-75
-76
-76
-76
-76
-76
-76
-76
-76
-76
-76
-75
-75
-75
-75
-75
-75
-75
-75
-75
-75
-75
-75
-75
-75
-75
-76
-76
-76
-76
-76
-76
-76
-76
-75
-75
-75
-75
-75
-75
-75
-75
-75
-74
-74
-74
-74
-74
-74
-74
-74
-74
-74
-73
-73
-73
-73
-73
-72
-72
-72
-72
-72
-72
-72
-72
-72
-72
-72
-72
-72
-72
-72
-72
-72
-72
-72
-72
-72
-72
-71
-71
-71
-71
-71
-71
-71
-71
-71
-72
-72
-72
-72
-72
-72
-71
-71
-71
-71
-71
-71
-71
-71
-72
-72
-72
-72
-72
-71
-71
-71
-71
-71
-71
-71
-70
-70
-70
-70
-70
-70
-70
-69
-69
-69
-69
-69
-69
-69
-69
-69
-68
-68
-68
-68
-68
-69
-69
-69
-69
-68
-68
-68
-68
-68
-69
-68
-68
-68
-68
-68
-68
-67
-67
-67
-67
-67
-67
-66
-66
-66
-66
-66
-67
-66
-66
-66
-66
-66
-65
-65
-65
-65
-65
-65
-64
-64
-64
-64
-64
-63
-63
-64
-64
-63
-63
-63
-63
-62
-62
-62
-62
-61
-61
-61
-61
-60
-60
-60
-60
-59
-59
-59
-59
-58
-58
-58
-58
-57
-57
-57
-57
-57
-56
-56
-56
-56
-56
-55
-55
-55
-54
-54
-54
-54
-54
-53
-53
-53
-52
-52
-52
-52
-52
-52
-50
-50
-50
-50
-50
-50
-50
-50
-50
-50
-50
-50
-50
-50
-50
-50
-50
-50
-50
-50
-50
-50
-50
-50
-50
-50
-50
-51
-51
-51
-51
-52
-52
-52
-52
-53
-53
-53
-54
-54
-55
-55
-55
-56
-56
-57
-57
-58
-58
-59
-59
-60
-61
-62
-62
-63
-63
-64
-65
-65
-66
-66
-67
-67
-68
-68
-68
-69
-69
-69
-70
-70
-71
-71
-71
-72
-72
-72
-72
-72
-72
-73
-73
-72
-72
-73
-73
-73
-73
-73
-73
-73
-73
-73
-73
-73
-73
-73
-73
-74
-74
-74
-74
-74
-74
-74
-75
-75
-75
-75
-75
-74
-74
-74
-74
-74
-74
-74
-75
-75
-75
-75
-75
-75
-75
-75
-75
-75
-75
-76
-76
-75
-75
-75
-75
-75
-75
-75
-75
-74
-74
-74
-74
-74
-74
-74
-74
-74
-74
-74
-74
-74
-73
-73
-74
-74
-74
-74
-74
-74
-74
-74
-75
-75
-75
-75
-75
-75
-74
-74
-74
-74
-74
-74
-74
-74
-74
-74
-75
-75
-75
-75
-75
-75
-75
-75
-75
-75
-75
-75
-75
-74
-74
-75
-75
-75
-75
-75
-75
-75
-74
-74
-74
-74
-74
-74
-74
-75
-75
-75
-75
-75
-75
-75
-75
-75
-75
-75
-75
-74
-74
-74
-74
-74
-74
-74
-74
-74
-74
-74
-74
-74
-74
-74
-74
-73
-73
-73
-73
-73
-73
-73
-73
-73
-72
-72
-72
-72
-72
-72
-72
-72
-72
-72
-72
-72
-72
-72
-72
-72
-71
-71
-71
-71
-72
-71
-71
-71
-71
-71
-71
-71
-71
-71
-71
-72
-72
-72
-72
-72
-72
-72
-72
-72
-73
-73
-73
-73
-73
-72
-72
-72
-72
-72
-72
-72
-72
-72
-72
-72
-72
-72
-72
-72
-72
-72
-72
-72
-72
-72
-72
-72
-72
-72
-72
-72
-72
-72
-72
-72
-72
-72
-72
-72
-72
-72
-72
-72
-72
-73
-73
-73
-73
-73
-73
-73
-73
-73
-73
-73
-73
-73
-73
-72
-72
-72
-72
-72
-72
-72
-72
-72
-72
-72
-72
-72
-72
-72
-72
-72
-72
-72
-72
-72
-72
-72
-72
-73
-73
-73
-73
-73
-73
-73
-73
-73
-73
-73
-73
-73
-73
-73
-73
-73
-73
-73
-73
-73
-73
-73
-73
-73
-73
-73
-73
-73
-72
-72
-72
-72
-72
-72
-72
-72
-72
-72
-72
-72
-73
-73
-72
-72
-72
-72
-72
-72
-72
-72
-72
-72
-72
-72
-72
-72
-72
-73
-73
-73
-73
-73
-73
-74
-74
-74
-74
-74
-74
-74
-74
-74
-74
-74
-74
-74
-74
-74
-73
-73
-73
-73
-73
-73
-73
-73
-73
-73
-73
-73
-73
-73
-73
-73
-73
-73
-73
-73
-73
-73
-73
-73
-73
-73
-73
-73
-73
-73
-73
-73
-73
-73
-73
-73
-73
-73
-73
-72
-72
-72
-72
-72
-72
-72
-72
-72
-72
-72
-72
-72
-72
-73
-73
-73
-73
-73
-73
-73
-73
-73
-73
-74
-74
-74
-74
-74
-74
-74
-74
-74
-73
-73
-73
-73
-73
-73
-72
-72
-72
-72
-72
-72
-72
-72
-72
-72
-72
-72
-72
-72
-72
-72
-72
-72
-72
-72
-72
-72
-72
-72
-72
-72
-72
-72
-72
-72
-72
-72
-72
-72
-71
-71
-71
-71
-72
-72
-72
-72
-72
-72
-72
-72
-72
-72
-72
-72
-73
-73
-73
-73
-73
-72
-72
-72
-72
-73
-73
-73
-73
-73
-73
-73
-73
-72
-72
-72
-72
-72
-72
-72
-72
-71
-71
-71
-71
-71
-71
-71
-71
-71
-71
-71
-71
-71
-71
-72
-71
-71
-71
-71
-71
-71
-72
-72
-72
-72
-72
-72
-72
-73
-73
-73
-72
-72
-72
-72
-73
-72
-72
-72
-72
-71
-72
-72
-72
-72
-71
-71
-72
-72
-72
-71
-71
-71
-71
-72
-72
-71
-71
-71
-71
-72
-71
-71
-71
-71
-71
-72
-71
-71
-71
-71
-71
-71
-70
-70
-69
-69
-68
-68
-68
-68
-67
-67
-67
-66
-66
-65
-64
-64
-63
-63
-63
-62
-62
-62
-62
-61
-62
-62
-62
-62
-62
-63
-63
-63
-63
-64
-65
-65
-65
-66
-66
-66
-67
-68
-68
-68
-68
-69
-69
-69
-69
-70
-70
-70
-70
-71
-70
-70
-71
-71
-71
-71
-71
-71
-71
-72
-72
-71
-71
-72
-72
-72
-72
-72
-72
-73
-72
-72
-72
-72
-72
-71
-72
-72
-72
-72
-71
-71
-71
-71
-71
-71
-70
-70
-70
-71
-71
-71
-71
-71
-71
-71
-71
-72
-72
-72
-72
-72
-72
-73
-74
-75
-76
-76
-77
-78
-80
-80
-82
-83
-85
-86
-89
-90
-91
-93
-94
-95
-95
-96
-95
-95
-94
-91
-89
-86
-82
-78
-74
-67
-62
-56
-49
-42
-35
-27
-19
-11
-2
6
14
21
28
34
39
45
47
50
52
53
52
51
48
45
40
36
31
25
17
11
4
-4
-11
-18
-24
-31
-36
-42
-47
-50
-54
-56
-58
-60
-61
-62
-63
-63
-63
-62
-63
-62
-63
-63
-63
-63
-62
-62
-62
-63
-62
-63
-64
-64
-64
-65
-65
-64
-66
-66
-66
-66
-66
-66
-67
-67
-67
-67
-67
-67
-67
-67
-67
-67
-67
-67
-67
-68
-68
-68
-68
-68
-68
-68
-68
-68
-68
-69
-69
-69
-69
-69
-69
-69
-69
-69
-69
-69
-69
-69
-69
-69
-69
-69
-69
-69
-69
-69
-68
-68
-68
-68
-68
-68
-68
-67
-67
-67
-67
-67
-67
-67
-67
-67
-67
-67
-67
-67
-67
-67
-67
-67
-67
-67
-67
-67
-67
-67
-67
-67
-67
-67
-67
-67
-67
-67
-67
-67
-67
-67
-67
-66
-66
-66
-66
-66
-66
-66
-66
-66
-66
-66
-66
-66
-65
-65
-64
-64
-64
-64
-64
-64
-64
-64
-64
-64
-65
-64
-64
-64
-64
-64
-65
-65
-65
-65
-66
-65
-65
-65
-66
-66
-66
-66
-66
-66
-66
-65
-65
-65
-64
-64
-64
-64
-64
-63
-63
-63
-63
-63
-63
-63
-62
-61
-62
-62
-62
-62
-62
-62
-62
-61
-61
-61
-61
-61
-61
-61
-61
-61
-61
-61
-60
-60
-60
-61
-61
-61
-60
-60
-60
-60
-60
-59
-59
-59
-59
-59
-59
-58
-58
-58
-58
-58
-57
-57
-57
-57
-56
-56
-56
-56
-56
-56
-56
-55
-54
-54
-54
-54
-54
-54
-53
-52
-52
-52
-52
-52
-51
-51
-51
-51
-51
-51
-50
-50
-50
-50
-49
-49
-49
-49
-49
-49
-49
-49
-48
-48
-48
-48
-48
-47
-47
-47
-47
-46
-46
-46
-46
-46
-45
-45
-45
-45
-45
-45
-45
-45
-45
-45
-45
-45
-45
-45
-45
-45
-45
-45
-45
-45
-47
-47
-47
-47
-47
-49
-49
-49
-50
-51
-51
-52
-52
-54
-54
-54
-55
-56
-56
-57
-57
-59
-59
-59
-60
-61
-61
-62
-62
-62
-64
-64
-64
-65
-65
-65
-66
-67
-67
-68
-68
-69
-69
-69
-69
-71
-71
-71
-71
-71
-72
-73
-73
-73
-73
-74
-74
-74
-74
-75
-75
-76
-76
-76
-76
-76
-77
-77
-77
-77
-78
-78
-78
-78
-78
-79
-79
-79
-79
-79
-79
-79
-79
-79
-79
-79
-79
-79
-79
-79
-79
-79
-79
-79
-79
-79
-79
-79
-80
-80
-80
-80
-80
-80
-80
-80
-80
-80
-80
-79
-79
-79
-79
-80
-80
-80
-79
-79
-79
-79
-79
-79
-79
-79
-79
-79
-79
-79
-80
-80
-80
-80
-80
-80
-80
-80
-80
-80
-80
-80
-79
-79
-79
-79
-79
-79
-79
-79
-79
-79
-79
-78
-78
-78
-79
-79
-79
-79
-79
-79
-79
-79
-79
-79
-79
-79
-79
-79
-79
-79
-80
-80
-80
-80
-80
-80
-80
-80
-80
-80
-80
-80
-80
-80
-80
-80
-81
-81
-81
-81
-81
-80
-80
-80
-80
-80
-80
-80
-80
-80
-80
-80
-79
-79
-79
-79
-79
-79
-79
-79
-78
-78
-78
-78
-78
-78
-78
-78
-78
-78
-79
-79
-79
-79
-79
-78
-78
-78
-79
-79
-79
-79
-79
-79
-79
-79
-79
-79
-79
-79
-78
-78
-78
-78
-78
-78
-78
-78
-78
-78
-78
-78
-78
-78
-78
-78
-78
-78
-79
-79
-79
-79
-79
-79
-78
-78
-78
-78
-78
-77
-78
-78
-78
-77
-77
-77
-77
-76
-76
-77
-77
-77
-77
-77
-77
-77
-77
-77
-77
-77
-77
-77
-77
-77
-77
-78
-78
-78
-78
-78
-78
-78
-79
-79
-79
-79
-79
-79
-79
-79
-79
-79
-79
-79
-79
-79
-79
-79
-79
-79
-79
-79
-79
-79
-79
-79
-79
-78
-78
-78
-78
-78
-79
-79
-79
-79
-78
-78
-78
-78
-78
-78
-78
-78
-78
-78
-78
-78
-78
-78
-78
-79
-79
-79
-79
-79
-79
-79
-79
-79
-79
-79
-79
-80
-80
-80
-80
-80
-80
-80
-80
-80
-80
-81
-81
-81
-81
-80
-80
-80
-80
-80
-80
-80
-80
-79
-79
-79
-79
-79
-79
-79
-79
-78
-78
-78
-78
-78
-78
-78
-78
-78
-78
-78
-78
-78
-78
-78
-78
-79
-79
-79
-79
-79
-79
-79
-78
-78
-79
-79
-79
-79
-79
-79
-79
-79
-79
-79
-79
-79
-79
-79
-79
-79
-79
-79
-79
-79
-79
-79
-78
-79
-79
-79
-79
-78
-78
-78
-78
-78
-78
-78
-78
-78
-78
-78
-78
-78
-78
-78
-78
-78
-78
-78
-78
-78
-78
-78
-79
-79
-79
-79
-79
-78
-78
-78
-78
-78
-78
-78
-78
-78
-78
-78
-78
-78
-77
-78
-78
-78
-78
-78
-78
-78
-78
-78
-79
-79
-79
-79
-79
-79
-79
-79
-79
-79
-79
-79
-79
-79
-79
-79
-79
-79
-78
-78
-78
-78
-78
-78
-79
-79
-78
-79
-79
-79
-79
-79
-79
-79
-78
-78
-78
-78
-78
-79
-79
-79
-79
-79
-79
-79
-79
-78
-78
-78
-78
-78
-79
-79
-79
-79
-79
-79
-79
-79
-79
-79
-79
-79
-79
-79
-79
-79
-79
-79
-79
-80
-80
-80
-80
-80
-80
-80
-80
-79
-79
-79
-79
-79
-80
-79
-79
-79
-79
-79
-80
-79
-79
-80
-79
-80
-80
-80
-80
-81
-81
-81
-81
-81
-81
-82
-82
-81
-82
-82
-82
-83
-83
-82
-82
-83
-83
-83
-83
-82
-82
-82
-82
-82
-82
-82
-81
-81
-81
-80
-80
-79
-78
-78
-77
-76
-76
-76
-75
-75
-74
-73
-72
-73
-72
-72
-72
-71
-71
-71
-72
-72
-72
-72
-73
-73
-74
-74
-75
-75
-76
-76
-76
-77
-77
-78
-79
-79
-79
-79
-79
-80
-80
-80
-80
-80
-80
-80
-80
-80
-80
-80
-80
-80
-80
-79
-80
-80
-79
-80
-80
-80
-80
-80
-81
-81
-81
-81
-80
-80
-80
-81
-81
-81
-81
-81
-81
-80
-80
-81
-81
-81
-80
-80
-80
-80
-80
-81
-80
-80
-80
-80
-80
-80
-80
-80
-80
-80
-80
-81
-81
-82
-81
-82
-83
-84
-84
-85
-87
-88
-89
-90
-91
-93
-94
-95
-97
-99
-100
-101
-102
-102
-102
-102
-102
-100
-99
-97
-94
-91
-87
-83
-79
-74
-69
-63
-57
-52
-46
-38
-31
-25
-18
-12
-5
1
6
10
14
16
18
19
19
19
17
15
11
7
2
-3
-9
-16
-22
-29
-36
-44
-50
-57
-63
-68
-73
-77
-80
-82
-85
-86
-87
-88
-88
-87
-86
-85
-84
-83
-82
-81
-80
-79
-77
-77
-76
-76
-75
-74
-74
-74
-73
-73
-74
-73
-73
-74
-73
-74
-74
-74
-74
-75
-75
-75
-75
-75
-75
-76
-76
-76
-76
-76
-77
-77
-77
-76
-76
-77
-77
-77
-77
-77
-77
-77
-76
-76
-76
-76
-76
-76
-76
-76
-76
-76
-76
-76
-76
-76
-76
-76
-76
-75
-75
-75
-75
-75
-75
-75
-74
-74
-74
-74
-74
-74
-74
-73
-73
-73
-73
-73
-73
-73
-73
-73
-73
-73
-73
-73
-73
-73
-73
-73
-73
-73
-73
-73
-73
-73
-73
-73
-73
-72
-72
-72
-72
-72
-72
-72
-72
-72
-72
-72
-72
-72
-72
-71
-71
-71
-71
-71
-71
-71
-71
-71
-71
-71
-70
-70
-71
-71
-71
-71
-71
-70
-70
-70
-70
-71
-71
-71
-70
-70
-70
-70
-71
-71
-71
-71
-70
-70
-70
-70
-70
-71
-71
-71
-71
-70
-70
-70
-70
-70
-70
-70
-70
-69
-69
-69
-69
-69
-69
-69
-69
-69
-69
-68
-68
-68
-68
-68
-68
-68
-67
-67
-67
-67
-67
-66
-66
-66
-66
-65
-65
-65
-66
-66
-65
-65
-65
-65
-65
-64
-65
-65
-65
-65
-64
-64
-65
-65
-65
-64
-64
-64
-64
-64
-63
-63
-63
-63
-63
-63
-62
-61
-61
-61
-61
-61
-61
-61
-59
-59
-60
-60
-60
-59
-59
-59
-59
-58
-58
-58
-58
-57
-57
-57
-57
-56
-56
-56
-56
-56
-56
-55
-55
-55
-55
-55
-55
-55
-55
-55
-55
-56
-55
-55
-55
-55
-55
-55
-55
-56
-56
-56
-56
-56
-56
-56
-56
-56
-56
-57
-57
-57
-57
-57
-57
-57
-58
-58
-59
-59
-60
-60
-60
-61
-61
-61
-62
-63
-63
-64
-64
-66
-66
-67
-68
-68
-69
-70
-71
-72
-73
-74
-75
-77
-78
-79
-79
-81
-82
-83
-84
-84
-85
-86
-87
-87
-88
-89
-90
-90
-91
-91
-91
-92
-93
-93
-93
-93
-93
-93
-94
-95
-95
-95
-95
-95
-95
-95
-96
-96
-96
-96
-96
-96
-96
-96
-96
-96
-96
-97
-97
-98
-98
-98
-98
-98
-98
-98
-98
-98
-99
-99
-99
-99
-99
-99
-99
-99
-99
-99
-99
-99
-99
-100
-100
-100
-100
-100
-100
-100
-100
-100
-100
-100
-100
-100
-100
-100
-100
-100
-101
-101
-101
-101
-101
-101
-101
-101
-101
-101
-101
-101
-101
-101
-101
-101
-101
-101
-101
-101
-101
-101
-101
-101
-101
-101
-101
-101
-101
-102
-102
-102
-102
-102
-102
-102
-102
-103
-103
-103
-103
-103
-103
-103
-103
-103
-103
-103
-103
-103
-103
-102
-102
-103
-103
-103
-103
-103
-103
-103
-103
-103
-103
-103
-102
-102
-102
-102
-102
-103
-103
-103
-103
-103
-103
-103
-103
-103
-103
-103
-103
-103
-103
-103
-103
-104
-104
-104
-104
-104
-104
-103
-103
-103
-103
-103
-103
-103
-103
-102
-101
-101
-101
-101
-101
-101
-101
-101
-101
-101
-101
-101
-101
-100
-100
-100
-100
-100
-100
-100
-100
-101
-101
-101
-101
-101
-100
-100
-100
-100
-100
-100
-100
-100
-100
-100
-100
-100
-99
-99
-99
-99
-99
-99
-99
-99
-99
-99
-99
-99
-99
-100
-100
-100
-99
-99
-99
-99
-99
-99
-99
-99
-99
-99
-99
-99
-98
-98
-98
-98
-98
-98
-98
-98
-98
-98
-98
-98
-98
-98
-99
-99
-99
-99
-98
-98
-98
-99
-99
-99
-99
-99
-99
-99
-99
-99
-99
-99
-100
-100
-100
-100
-99
-99
-99
-99
-99
-99
-99
-100
-100
-99
-99
-99
-99
-99
-99
-99
-99
-99
-99
-98
-98
-98
-98
-98
-98
-98
-98
-98
-98
-98
-98
-98
-98
-98
-98
-98
-99
-99
-99
-99
-99
-99
-99
-99
-99
-99
-99
-100
-100
-100
-100
-100
-100
-100
-100
-100
-100
-100
-100
-99
-99
-99
-99
-99
-100
-100
-100
-100
-100
-100
-100
-100
-100
-100
-100
-99
-99
-100
-100
-100
-100
-100
-99
-99
-99
-99
-99
-99
-99
-99
-99
-99
-99
-99
-99
-99
-99
-99
-99
-99
-99
-100
-100
-100
-100
-100
-100
-100
-100
-100
-100
-100
-100
-100
-100
-99
-99
-99
-99
-99
-99
-99
-99
-99
-99
-99
-99
-98
-98
-98
-98
-98
-98
-98
-98
-99
-99
-99
-99
-99
-99
-99
-99
-99
-99
-99
-99
-99
-98
-98
-98
-98
-98
-98
-98
-98
-98
-98
-98
-98
-99
-99
-99
-99
-99
-99
-99
-100
-100
-100
-100
-100
-100
-100
-100
-100
-100
-100
-100
-100
-99
-99
-99
-100
-100
-100
-100
-99
-99
-99
-99
-99
-98
-98
-98
-98
-98
-98
-98
-98
-99
-98
-98
-98
-98
-98
-98
-98
-98
-98
-98
-98
-98
-98
-98
-98
-98
-98
-99
-99
-99
-100
-100
-100
-100
-100
-99
-99
-99
-99
-99
-99
-99
-99
-99
-99
-99
-99
-99
-99
-99
-98
-98
-98
-98
-98
-98
-98
-98
-98
-98
-98
-98
-98
-98
-99
-99
-98
-98
-99
-99
-99
-99
-99
-99
-100
-100
-99
-100
-100
-100
-99
-100
-100
-100
-101
-100
-100
-100
-100
-101
-100
-100
-101
-101
-101
-101
-101
-102
-101
-101
-101
-101
-101
-101
-100
-100
-100
-100
-100
-99
-99
-99
-98
-97
-97
-96
-96
-95
-94
-95
-94
-93
-93
-92
-91
-92
-91
-91
-91
-90
-91
-91
-91
-91
-91
-91
-91
-92
-93
-93
-93
-94
-94
-95
-95
-95
-96
-96
-97
-97
-97
-97
-97
-97
-98
-98
-98
-98
-98
-99
-98
-98
-98
-98
-99
-98
-98
-98
-98
-98
-98
-98
-98
-99
-99
-98
-98
-98
-99
-99
-99
-98
-98
-99
-99
-99
-98
-99
-99
-99
-99
-99
-98
-99
-99
-99
-99
-99
-99
-99
-99
-99
-99
-99
-99
-99
-99
-99
-99
-99
-99
-100
-100
-99
-100
-101
-102
-103
-103
-104
-105
-107
-108
-109
-111
-112
-113
-115
-116
-118
-120
-121
-121
-122
-123
-122
-122
-121
-120
-118
-115
-113
-109
-105
-100
-96
-91
-85
-80
-74
-68
-62
-56
-49
-42
-36
-30
-24
-19
-15
-12
-8
-6
-4
-4
-4
-5
-6
-8
-11
-15
-20
-24
-29
-35
-40
-46
-52
-57
-63
-68
-73
-77
-80
-84
-86
-88
-90
-92
-92
-93
-93
-93
-93
-93
-93
-92
-92
-92
-92
-92
-91
-91
-91
-92
-92
-93
-93
-93
-94
-94
-94
-94
-95
-96
-96
-96
-97
-97
-97
-97
-97
-97
-98
-98
-98
-97
-97
-97
-97
-97
-98
-98
-98
-97
-97
-97
-97
-97
-97
-97
-97
-97
-97
-97
-97
-97
-97
-97
-97
-97
-97
-97
-97
-97
-97
-97
-97
-96
-96
-96
-96
-96
-96
-96
-96
-96
-96
-96
-96
-96
-96
-96
-96
-96
-96
-96
-97
-97
-97
-97
-97
-97
-97
-97
-96
-96
-96
-96
-96
-96
-96
-96
-96
-96
-96
-96
-96
-96
-96
-96
-96
-96
-96
-96
-96
-96
-95
-95
-95
-95
-95
-95
-95
-96
-96
-95
-95
-95
-95
-95
-95
-95
-95
-95
-95
-95
-95
-95
-95
-95
-96
-96
-96
-95
-95
-95
-95
-95
-95
-95
-95
-96
-95
-95
-95
-95
-95
-95
-95
-94
-94
-94
-95
-95
-95
-95
-95
-94
-95
-95
-95
-95
-95
-94
-94
-95
-95
-95
-95
-94
-94
-94
-95
-95
-94
-94
-94
-94
-94
-95
-94
-94
-94
-94
-94
-94
-93
-93
-93
-93
-93
-94
-94
-93
-93
-93
-93
-93
-93
-93
-93
-93
-93
-93
-93
-92
-92
-93
-93
-93
-92
-92
-92
-92
-92
-92
-92
-92
-91
-91
-92
-91
-91
-91
-91
-90
-90
-90
-89
-89
-90
-90
-89
-89
-89
-89
-89
-88
-88
-87
-87
-86
-86
-86
-86
-86
-86
-85
-85
-85
-85
-85
-85
-84
-84
-84
-84
-84
-84
-84
-84
-84
-83
-83
-83
-83
-83
-83
-83
-83
-83
-83
-83
-83
-83
-83
-83
-83
-83
-83
-83
-83
-83
-83
-84
-84
-84
-84
-85
-86
-86
-86
-86
-87
-87
-88
-88
-89
-89
-89
-90
-90
-91
-91
-91
-92
-92
-93
-93
-94
-94
-95
-95
-96
-96
-97
-97
-98
-98
-100
-100
-100
-101
-101
-102
-102
-102
-103
-103
-103
-104
-104
-104
-104
-104
-104
-105
-105
-105
-105
-105
-105
-105
-105
-106
-106
-106
-105
-105
-106
-106
-106
-106
-106
-105
-106
-106
-106
-106
-106
-106
-106
-106
-106
-106
-106
-106
-106
-107
-107
-106
-106
-106
-106
-107
-107
-107
-107
-107
-107
-107
-107
-107
-107
-107
-107
-107
-107
-107
-107
-107
-107
-107
-107
-107
-106
-106
-106
-106
-107
-107
-107
-107
-107
-107
-107
-107
-107
-107
-107
-108
-108
-108
-108
-108
-108
-108
-108
-108
-108
-108
-107
-107
-107
-107
-106
-106
-106
-106
-106
-106
-106
-106
-106
-106
-106
-106
-106
-106
-106
-106
-106
-106
-106
-107
-107
-107
-107
-107
-107
-107
-107
-107
-107
-107
-107
-107
-107
-107
-107
-107
-107
-107
-107
-107
-107
-107
-107
-107
-107
-107
-107
-107
-107
-107
-107
-107
-107
-107
-107
-107
-107
-107
-107
-107
-107
-107
-107
-107
-107
-107
-107
-107
-107
-107
-107
-107
-107
-107
-107
-107
-107
-107
-107
-107
-107
-107
-107
-107
-107
-107
-108
-108
-108
-108
-108
-108
-108
-109
-109
-109
-109
-109
-109
-109
-109
-108
-108
-108
-108
-108
-108
-108
-108
-108
-108
-108
-108
-108
-108
-108
-108
-108
-108
-108
-108
-108
-108
-108
-108
-108
-108
-107
-107
-107
-107
-107
-107
-107
-107
-107
-107
-107
-107
-107
-107
-107
-107
-107
-107
-107
-107
-107
-108
-108
-108
-108
-108
-108
-108
-108
-107
-107
-107
-107
-107
-107
-107
-106
-106
-106
-106
-106
-106
-106
-106
-106
-105
-105
-105
-105
-105
-105
-106
-106
-106
-106
-106
-106
-106
-106
-106
-106
-106
-106
-106
-106
-106
-106
-107
-107
-107
-107
-107
-107
-107
-107
-107
-107
-107
-107
-107
-107
-107
-107
-107
-107
-107
-107
-107
-107
-106
-106
-106
-106
-106
-106
-106
-106
-106
-106
-106
-106
-106
-106
-106
-106
-106
-106
-106
-106
-106
-106
-106
-106
-106
-106
-106
-106
-106
-106
-106
-106
-106
-106
-106
-106
-106
-106
-105
-105
-105
-106
-106
-106
-106
-106
-106
-105
-105
-105
-105
-105
-105
-105
-105
-104
-105
-105
-105
-105
-105
-105
-105
-105
-105
-105
-105
-105
-105
-105
-105
-105
-105
-105
-105
-104
-104
-104
-104
-104
-104
-104
-104
-105
-105
-105
-105
-105
-105
-105
-105
-105
-105
-105
-105
-106
-106
-105
-105
-105
-105
-105
-105
-105
-105
-105
-105
-105
-105
-105
-105
-105
-105
-105
-105
-105
-105
-105
-105
-105
-105
-104
-104
-104
-104
-104
-104
-104
-104
-104
-104
-104
-104
-104
-105
-105
-105
-105
-105
-105
-105
-106
-106
-106
-107
-107
-107
-107
-107
-107
-107
-106
-106
-106
-106
-106
-107
-107
-106
-106
-106
-106
-106
-106
-105
-105
-105
-105
-105
-105
-105
-105
-105
-105
-105
-105
-105
-105
-105
-105
-105
-106
-106
-106
-106
-106
-106
-106
-106
-106
-106
-106
-106
-106
-106
-106
-106
-106
-106
-106
-106
-106
-106
-106
-106
-106
-106
-106
-106
-106
-106
-106
-106
-106
-106
-106
-106
-106
-105
-105
-105
-105
-105
-105
-105
-104
-104
-104
-104
-104
-104
-104
-104
-104
-104
-105
-105
-105
-105
-104
-104
-105
-105
-105
-105
-104
-105
-105
-105
-105
-105
-105
-106
-105
-105
-106
-105
-105
-105
-106
-106
-105
-105
-106
-106
-106
-105
-106
-106
-106
-106
-107
-106
-106
-106
-107
-107
-107
-106
-107
-107
-107
-107
-107
-107
-105
-105
-105
-104
-104
-104
-103
-102
-102
-101
-100
-100
-99
-99
-98
-97
-97
-97
-97
-96
-96
-96
-95
-95
-95
-95
-96
-96
-96
-97
-97
-97
-97
-98
-98
-98
-99
-99
-99
-99
-100
-100
-100
-100
-100
-100
-101
-101
-101
-101
-101
-101
-101
-101
-101
-101
-102
-102
-102
-102
-101
-102
-102
-102
-102
-103
-103
-103
-103
-103
-103
-104
-104
-104
-103
-103
-103
-104
-104
-104
-103
-103
-103
-103
-103
-103
-103
-104
-104
-104
-104
-104
-104
-104
-104
-104
-104
-104
-105
-105
-105
-105
-104
-104
-105
-105
-105
-106
-106
-107
-108
-107
-108
-109
-110
-112
-112
-114
-114
-116
-117
-119
-120
-122
-123
-124
-124
-125
-125
-125
-125
-124
-122
-120
-118
-114
-110
-106
-101
-97
-92
-86
-81
-75
-69
-62
-56
-48
-42
-36
-30
-25
-20
-16
-12
-9
-6
-5
-4
-5
-6
-7
-9
-13
-16
-20
-25
-30
-34
-40
-46
-51
-57
-61
-66
-71
-74
-78
-81
-83
-86
-87
-89
-89
-90
-90
-90
-90
-91
-90
-90
-90
-91
-91
-91
-91
-91
-92
-91
-92
-93
-93
-94
-94
-94
-95
-95
-95
-96
-96
-97
-97
-97
-97
-97
-98
-98
-98
-98
-98
-98
-98
-98
-98
-98
-98
-98
-98
-98
-98
-99
-99
-99
-99
-99
-99
-99
-99
-99
-99
-99
-99
-99
-99
-99
-99
-99
-99
-99
-99
-99
-99
-99
-99
-99
-99
-99
-99
-99
-99
-99
-99
-100
-100
-100
-100
-100
-100
-99
-99
-99
-99
-99
-99
-99
-99
-99
-98
-98
-98
-98
-98
-98
-98
-97
-97
-97
-96
-96
-96
-96
-96
-96
-96
-96
-96
-96
-96
-97
-97
-97
-97
-97
-97
-97
-97
-97
-97
-96
-96
-96
-96
-96
-96
-96
-96
-96
-96
-96
-96
-95
-95
-95
-96
-96
-96
-96
-96
-96
-95
-95
-96
-96
-96
-96
-96
-95
-95
-95
-95
-96
-95
-95
-95
-95
-95
-95
-94
-94
-94
-94
-94
-95
-94
-94
-94
-94
-93
-93
-93
-93
-93
-93
-93
-93
-93
-93
-92
-93
-93
-93
-92
-92
-92
-93
-93
-93
-93
-92
-92
-92
-92
-92
-92
-92
-91
-92
-92
-92
-92
-91
-91
-91
-92
-91
-91
-91
-90
-90
-90
-90
-90
-90
-90
-89
-90
-90
-89
-89
-89
-89
-88
-89
-89
-89
-88
-88
-88
-88
-87
-87
-87
-87
-86
-86
-86
-86
-85
-85
-85
-85
-84
-84
-84
-84
-84
-82
-82
-82
-82
-82
-81
-80
-80
-80
-80
-80
-80
-78
-78
-78
-78
-78
-78
-78
-78
-78
-77
-77
-77
-77
-77
-77
-77
-77
-77
-77
-77
-76
-76
-76
-76
-76
-76
-76
-76
-76
-76
-76
-77
-76
-76
-76
-77
-77
-77
-78
-79
-79
-79
-80
-80
-80
-82
-82
-82
-83
-83
-84
-85
-85
-86
-86
-87
-87
-88
-88
-89
-89
-90
-90
-91
-90
-91
-91
-92
-92
-93
-92
-93
-93
-94
-94
-94
-94
-94
-94
-95
-95
-95
-95
-96
-96
-96
-96
-97
-97
-97
-97
-97
-98
-98
-98
-97
-97
-97
-98
-98
-98
-98
-97
-98
-98
-98
-98
-98
-99
-98
-98
-98
-98
-98
-98
-98
-98
-98
-99
-99
-99
-99
-99
-99
-99
-98
-98
-98
-98
-98
-98
-98
-98
-98
-98
-97
-97
-97
-97
-97
-97
-97
-97
-97
-97
-97
-97
-97
-97
-97
-97
-97
-97
-97
-97
-98
-98
-98
-98
-98
-97
-97
-97
-97
-97
-97
-97
-97
-97
-97
-97
-97
-98
-98
-98
-98
-98
-98
-98
-98
-99
-99
-99
-99
-99
-99
-99
-99
-99
-99
-99
-99
-98
-98
-98
-98
-98
-98
-98
-98
-98
-98
-98
-98
-98
-98
-98
-98
-98
-98
-98
-98
-98
-98
-98
-98
-98
-98
-98
-98
-98
-98
-98
-98
-98
-98
-98
-98
-98
-98
-98
-98
-98
-98
-98
-98
-98
-97
-97
-97
-97
-96
-96
-96
-96
-96
-96
-96
-96
-96
-96
-95
-95
-95
-95
-95
-95
-95
-95
-95
-95
-95
-95
-95
-96
-96
-96
-96
-96
-96
-96
-96
-96
-96
-96
-96
-96
-96
-96
-96
-96
-96
-96
-95
-95
-95
-95
-95
-95
-96
-96
-96
-96
-96
-96
-96
-96
-95
-95
-95
-95
-96
-96
-96
-96
-96
-96
-96
-96
-96
-96
-96
-96
-96
-96
-97
-97
-97
-97
-97
-97
-97
-97
-96
-96
-96
-96
-96
-96
-96
-97
-97
-97
-97
-97
-97
-97
-97
-97
-97
-97
-97
-97
-97
-97
-97
-97
-97
-97
-97
-97
-97
-97
-97
-96
-96
-96
-96
-96
-96
-96
-96
-96
-96
-96
-96
-96
-96
-96
-96
-96
-97
-97
-97
-97
-97
-97
-97
-97
-97
-97
-98
-98
-98
-98
-98
-98
-98
-98
-98
-98
-98
-98
-98
-98
-98
-97
-97
-97
-97
-98
-98
-98
-98
-98
-97
-97
-97
-97
-97
-97
-97
-97
-97
-97
-97
-97
-97
-97
-97
-97
-97
-97
-97
-97
-97
-97
-97
-97
-96
-96
-96
-96
-96
-97
-97
-97
-97
-97
-97
-97
-96
-96
-96
-96
-96
-97
-97
-97
-97
-97
-97
-97
-97
-97
-97
-97
-97
-96
-96
-96
-96
-96
-96
-96
-96
-96
-96
-96
-96
-96
-96
-96
-95
-95
-95
-95
-95
-95
-95
-95
-95
-95
-95
-95
-96
-96
-96
-96
-96
-96
-96
-96
-96
-96
-96
-96
-96
-96
-96
-97
-97
-97
-97
-97
-97
-97
-97
-97
-97
-97
-97
-97
-97
-97
-97
-97
-97
-97
-97
-97
-97
-97
-97
-97
-97
-97
-97
-97
-96
-96
-96
-96
-96
-96
-96
-96
-96
-96
-96
-96
-96
-97
-97
-97
-97
-97
-97
-97
-97
-97
-97
-97
-97
-97
-97
-97
-97
-97
-97
-96
-96
-96
-96
-96
-97
-97
-97
-97
-97
-97
-96
-96
-96
-96
-96
-96
-96
-96
-96
-96
-96
-96
-96
-96
-96
-96
-96
-96
-96
-96
-96
-96
-96
-96
-96
-96
-96
-96
-96
-96
-96
-96
-96
-96
-95
-95
-95
-95
-95
-95
-95
-95
-95
-94
-94
-94
-95
-95
-95
-95
-95
-95
-95
-95
-95
-95
-95
-96
-96
-96
-96
-95
-95
-95
-95
-95
-94
-94
-94
-95
-95
-95
-95
-95
-95
-96
-95
-95
-96
-96
-96
-96
-96
-96
-96
-97
-96
-96
-96
-97
-96
-96
-96
-96
-96
-96
-96
-96
-96
-96
-96
-96
-96
-96
-97
-97
-96
-96
-96
-96
-96
-96
-96
-96
-96
-95
-95
-94
-93
-93
-92
-92
-91
-91
-90
-90
-88
-88
-87
-87
-86
-86
-85
-85
-85
-85
-84
-84
-85
-85
-85
-86
-86
-86
-86
-87
-87
-87
-88
-88
-88
-89
-90
-90
-90
-90
-90
-90
-90
-90
-90
-91
-91
-91
-90
-90
-91
-91
-91
-90
-91
-91
-91
-91
-91
-92
-92
-92
-92
-92
-93
-93
-93
-92
-94
-94
-94
-94
-94
-94
-93
-93
-93
-94
-94
-94
-94
-94
-94
-94
-94
-93
-94
-94
-94
-94
-94
-94
-94
-94
-94
-94
-95
-95
-94
-94
-94
-94
-94
-95
-95
-96
-96
-96
-97
-98
-99
-100
-102
-103
-104
-105
-107
-109
-111
-112
-114
-116
-117
-118
-120
-120
-121
-120
-120
-119
-117
-114
-112
-109
-105
-101
-96
-91
-85
-79
-73
-67
-60
-52
-44
-38
-30
-22
-15
-8
-3
2
7
10
14
15
16
17
16
14
12
9
6
1
-5
-11
-16
-23
-29
-36
-43
-49
-54
-60
-65
-69
-72
-75
-79
-81
-82
-84
-85
-86
-87
-86
-87
-87
-87
-87
-87
-87
-87
-87
-88
-88
-89
-90
-89
-90
-90
-91
-91
-92
-92
-92
-92
-94
-94
-94
-94
-94
-94
-94
-95
-95
-95
-96
-96
-96
-96
-96
-96
-96
-96
-96
-96
-97
-97
-97
-97
-97
-97
-97
-97
-97
-97
-97
-97
-97
-97
-97
-97
-97
-96
-96
-96
-96
-96
-96
-96
-96
-96
-96
-96
-96
-96
-96
-95
-95
-95
-95
-95
-95
-95
-95
-95
-94
-94
-95
-95
-95
-95
-95
-95
-95
-96
-96
-95
-95
-95
-96
-96
-96
-96
-96
-96
-96
-96
-96
-96
-96
-96
-96
-96
-96
-96
-96
-96
-96
-96
-96
-95
-95
-95
-95
-95
-95
-95
-95
-95
-95
-95
-95
-95
-95
-95
-95
-95
-94
-94
-94
-95
-95
-95
-95
-95
-95
-95
-95
-94
-95
-95
-95
-95
-95
-96
-95
-95
-95
-95
-95
-95
-95
-95
-95
-95
-94
-95
-95
-95
-95
-95
-95
-95
-95
-95
-95
-96
-95
-95
-95
-95
-96
-95
-95
-95
-95
-95
-95
-95
-95
-95
-95
-95
-95
-95
-95
-95
-95
-95
-95
-95
-94
-94
-94
-94
-94
-95
-95
-95
-95
-93
-93
-93
-93
-93
-93
-92
-92
-92
-92
-92
-91
-91
-91
-91
-91
-91
-91
-90
-90
-90
-88
-88
-88
-88
-88
-87
-87
-87
-86
-86
-86
-84
-84
-84
-84
-84
-83
-83
-82
-82
-82
-82
-81
-81
-81
-80
-80
-80
-80
-80
-81
-80
-80
-80
-80
-80
-80
-80
-80
-79
-79
-79
-79
-79
-79
-79
-79
-79
-79
-79
-78
-78
-78
-78
-78
-78
-78
-78
-78
-78
-78
-78
-79
-79
-79
-79
-79
-79
-80
-80
-81
-81
-81
-82
-83
-83
-83
-85
-85
-86
-86
-88
-88
-89
-90
-91
-91
-93
-93
-93
-95
-95
-95
-97
-97
-97
-99
-99
-100
-100
-102
-102
-102
-103
-103
-104
-104
-104
-105
-106
-106
-107
-107
-107
-108
-108
-108
-108
-109
-109
-109
-109
-110
-110
-110
-110
-110
-111
-111
-111
-111
-111
-112
-112
-112
-112
-112
-113
-113
-113
-113
-113
-113
-113
-113
-114
-114
-114
-114
-114
-114
-114
-114
-114
-114
-114
-114
-114
-114
-114
-114
-113
-114
-114
-114
-114
-113
-113
-113
-113
-113
-112
-113
-113
-113
-113
-113
-113
-113
-113
-113
-113
-113
-113
-113
-113
-113
-113
-113
-113
-113
-114
-114
-113
-113
-113
-113
-113
-113
-113
-113
-114
-114
-114
-114
-114
-114
-114
-114
-115
-115
-115
-115
-115
-115
-115
-115
-116
-116
-116
-116
-116
-116
-116
-116
-115
-115
-115
-115
-115
-115
-115
-114
-114
-114
-114
-114
-114
-114
-114
-114
-114
-114
-114
-114
-115
-115
-115
-115
-115
-115
-115
-115
-115
-114
-114
-114
-115
-115
-115
-115
-115
-115
-115
-115
-115
-115
-115
-115
-115
-116
-116
-116
-115
-115
-115
-115
-115
-115
-115
-115
-115
-115
-115
-115
-115
-115
-115
-115
-114
-114
-114
-114
-114
-114
-114
-114
-114
-114
-114
-115
-115
-115
-115
-115
-115
-115
-115
-114
-114
-114
-114
-114
-114
-114
-114
-113
-113
-113
-113
-113
-113
-113
-113
-113
-113
-113
-113
-113
-113
-113
-113
-113
-113
-113
-113
-113
-113
-113
-113
-113
-113
-113
-113
-113
-112
-112
-112
-112
-112
-112
-113
-113
-113
-113
-113
-113
-113
-113
-113
-114
-114
-114
-114
-114
-114
-114
-114
-114
-114
-114
-114
-114
-114
-114
-114
-114
-114
-114
-114
-113
-113
-113
-113
-113
-113
-113
-113
-113
-113
-113
-113
-113
-113
-113
-113
-113
-113
-113
-113
-112
-112
-112
-112
-113
-113
-113
-113
-113
-113
-113
-113
-113
-113
-113
-113
-113
-114
-115
-115
-115
-115
-115
-115
-115
-115
-115
-114
-114
-114
-114
-114
-114
-114
-114
-114
-114
-114
-114
-114
-114
-114
-114
-114
-114
-114
-114
-114
-114
-114
-114
-114
-114
-114
-114
-114
-114
-114
-114
-114
-114
-114
-114
-114
-114
-114
-114
-114
-114
-114
-114
-114
-114
-113
-113
-113
-113
-113
-113
-113
-113
-113
-113
-113
-114
-114
-114
-114
-114
-114
-114
-113
-113
-113
-113
-113
-114
-114
-114
-114
-114
-113
-113
-113
-113
-113
-113
-113
-112
-113
-113
-113
-113
-113
-113
-113
-113
-113
-113
-113
-113
-113
-114
-114
-114
-114
-113
-113
-113
-113
-113
-113
-113
-113
-113
-113
-114
-114
-114
-114
-114
-114
-114
-114
-114
-115
-115
-115
-115
-114
-114
-114
-114
-114
-114
-113
-113
-113
-113
-113
-113
-113
-113
-113
-113
-113
-113
-113
-113
-113
-113
-113
-113
-113
-113
-114
-114
-114
-114
-114
-113
-113
-113
-113
-113
-113
-112
-112
-112
-112
-112
-112
-112
-112
-113
-113
-113
-112
-112
-112
-112
-112
-112
-112
-112
-113
-113
-113
-113
-113
-113
-113
-113
-113
-113
-113
-113
-113
-113
-113
-113
-113
-113
-113
-113
-113
-113
-113
-113
-113
-113
-113
-113
-113
-113
-112
-112
-112
-112
-112
-112
-112
-112
-112
-112
-112
-111
-111
-111
-112
-112
-112
-111
-112
-112
-113
-112
-112
-113
-113
-113
-113
-114
-114
-113
-114
-114
-114
-114
-114
-115
-114
-115
-115
-115
-115
-116
-115
-115
-115
-115
-115
-114
-114
-114
-114
-114
-113
-113
-112
-111
-111
-110
-109
-109
-108
-107
-106
-106
-106
-105
-105
-104
-105
-104
-104
-104
-105
-105
-105
-105
-105
-105
-106
-106
-106
-107
-108
-108
-109
-109
-110
-110
-110
-111
-111
-111
-111
-111
-112
-112
-112
-112
-112
-113
-113
-113
-113
-113
-113
-113
-113
-113
-113
-114
-113
-113
-113
-113
-113
-113
-113
-113
-113
-113
-112
-113
-113
-112
-112
-112
-112
-112
-111
-111
-111
-111
-111
-111
-111
-111
-111
-111
-111
-111
-111
-110
-111
-111
-111
-111
-112
-112
-112
-111
-111
-112
-112
-112
-112
-113
-114
-113
-114
-115
-116
-117
-117
-118
-120
-121
-122
-123
-125
-126
-127
-129
-130
-130
-131
-131
-131
-131
-129
-128
-126
-124
-120
-116
-113
-108
-103
-98
-92
-86
-80
-73
-66
-59
-52
-45
-38
-31
-25
-20
-16
-11
-9
-6
-6
-5
-6
-9
-11
-15
-19
-24
-30
-36
-42
-49
-58
-65
-72
-79
-85
-92
-97
-102
-106
-109
-112
-114
-115
-117
-117
-117
-117
-116
-115
-114
-113
-112
-112
-110
-109
-109
-108
-107
-107
-106
-105
-105
-106
-105
-105
-105
-105
-105
-105
-104
-105
-105
-105
-105
-105
-105
-105
-104
-105
-105
-105
-105
-104
-105
-105
-105
-105
-104
-104
-105
-105
-105
-105
-105
-105
-105
-105
-105
-105
-105
-105
-105
-105
-105
-105
-105
-105
-105
-105
-105
-105
-105
-105
-105
-105
-105
-105
-105
-105
-105
-104
-104
-104
-104
-104
-104
-104
-104
-104
-104
-104
-104
-104
-104
-103
-103
-103
-104
-104
-104
-103
-103
-102
-102
-102
-102
-102
-102
-102
-102
-102
-102
-102
-102
-101
-101
-101
-101
-101
-101
-101
-101
-101
-101
-101
-101
-101
-100
-100
-100
-101
-101
-101
-101
-101
-101
-101
-101
-100
-100
-100
-100
-100
-100
-100
-100
-100
-100
-100
-99
-99
-100
-100
-100
-100
-100
-100
-100
-100
-99
-99
-99
-99
-99
-99
-99
-98
-98
-99
-99
-99
-99
-98
-98
-98
-98
-98
-98
-97
-97
-97
-97
-97
-97
-97
-97
-97
-97
-97
-97
-97
-96
-96
-96
-96
-95
-95
-95
-95
-95
-95
-94
-94
-94
-94
-94
-94
-94
-93
-94
-94
-94
-94
-93
-93
-93
-93
-93
-92
-92
-92
-92
-92
-91
-91
-91
-91
-90
-90
-90
-90
-90
-89
-89
-89
-89
-88
-88
-88
-88
-88
-87
-87
-87
-87
-87
-86
-86
-86
-86
-86
-86
-85
-85
-85
-85
-85
-85
-84
-84
-84
-84
-84
-83
-83
-82
-82
-82
-82
-82
-82
-82
-81
-81
-81
-81
-81
-81
-81
-80
-80
-80
-80
-81
-81
-81
-80
-80
-80
-80
-80
-80
-80
-80
-81
-81
-81
-81
-81
-81
-81
-81
-81
-81
-83
-83
-83
-84
-84
-85
-86
-86
-86
-88
-88
-88
-90
-90
-90
-92
-92
-92
-93
-94
-95
-95
-95
-96
-96
-96
-98
-98
-99
-99
-99
-100
-100
-100
-101
-101
-101
-102
-102
-102
-103
-104
-104
-104
-104
-105
-105
-105
-105
-106
-106
-106
-106
-107
-107
-107
-107
-108
-108
-108
-108
-108
-109
-109
-109
-108
-108
-109
-109
-109
-109
-109
-108
-109
-109
-109
-109
-109
-109
-109
-109
-109
-110
-110
-110
-110
-110
-110
-110
-110
-110
-110
-110
-110
-110
-110
-110
-110
-110
-110
-110
-110
-110
-110
-109
-109
-109
-109
-109
-109
-109
-109
-109
-109
-109
-109
-109
-109
-109
-109
-109
-110
-110
-110
-110
-110
-110
-110
-111
-111
-111
-111
-111
-111
-111
-111
-111
-112
-112
-112
-111
-111
-111
-111
-111
-111
-111
-111
-111
-111
-111
-111
-111
-111
-111
-111
-110
-110
-110
-110
-110
-110
-110
-110
-110
-110
-110
-110
-110
-110
-109
-109
-109
-109
-109
-109
-109
-109
-109
-109
-109
-108
-108
-108
-108
-108
-108
-108
-108
-108
-108
-108
-108
-109
-109
-109
-109
-109
-108
-108
-108
-108
-108
-108
-108
-108
-108
-108
-108
-108
-108
-108
-108
-108
-108
-108
-108
-108
-108
-108
-108
-108
-108
-108
-108
-108
-108
-108
-108
-108
-108
-108
-108
-108
-108
-108
-108
-108
-108
-108
-108
-108
-108
-108
-109
-109
-109
-109
-109
-109
-109
-108
-108
-108
-108
-108
-108
-108
-108
-108
-108
-108
-108
-108
-108
-108
-108
-108
-108
-108
-108
-108
-108
-108
-109
-109
-109
-109
-109
-109
-109
-109
-109
-109
-109
-109
-109
-109
-109
-109
-109
-109
-109
-110
-110
-110
-110
-110
-110
-110
-110
-110
-110
-110
-110
-110
-110
-110
-110
-111
-111
-111
-111
-111
-111
-111
-111
-111
-111
-111
-111
-111
-111
-112
-112
-112
-112
-112
-112
-112
-112
-112
-112
-112
-112
-112
-112
-112
-113
-113
-113
-113
-113
-113
-113
-113
-113
-113
-113
-113
-113
-113
-113
-113
-113
-113
-113
-112
-112
-112
-112
-112
-112
-112
-112
-113
-113
-113
-113
-113
-113
-113
-113
-113
-113
-113
-113
-113
-113
-113
-113
-113
-113
-113
-113
-113
-113
-114
-114
-114
-114
-114
-114
-114
-113
-113
-113
-114
-114
-114
-114
-114
-114
-114
-114
-114
-114
-114
-114
-114
-114
-114
-114
-114
-114
-114
-114
-114
-114
-114
-114
-114
-113
-113
-114
-114
-114
-114
-114
-114
-114
-114
-114
-114
-114
-114
-114
-114
-114
-114
-114
-115
-115
-115
-115
-115
-114
-114
-114
-114
-114
-114
-114
-114
-114
-114
-114
-114
-115
-114
-114
-114
-113
-113
-113
-114
-114
-114
-114
-114
-113
-113
-113
-114
-114
-114
-113
-113
-114
-114
-115
-115
-115
-115
-115
-115
-115
-115
-115
-115
-115
-115
-115
-115
-115
-114
-114
-114
-114
-114
-114
-114
-114
-114
-114
-114
-114
-114
-114
-115
-114
-114
-114
-114
-114
-114
-114
-114
-114
-114
-114
-114
-114
-114
-114
-114
-114
-114
-114
-114
-114
-114
-114
-114
-114
-114
-114
-114
-114
-114
-114
-114
-114
-114
-114
-114
-114
-113
-113
-113
-114
-114
-114
-114
-114
-114
-114
-114
-114
-114
-114
-114
-114
-114
-114
-114
-114
-114
-114
-114
-113
-113
-114
-114
-114
-114
-114
-114
-114
-114
-114
-114
-114
-115
-115
-114
-115
-115
-115
-115
-115
-115
-116
-116
-116
-115
-116
-116
-116
-116
-116
-116
-116
-117
-116
-116
-117
-117
-116
-117
-117
-117
-117
-117
-116
-116
-116
-116
-116
-116
-115
-115
-114
-114
-113
-112
-112
-111
-110
-110
-110
-109
-108
-108
-107
-108
-107
-107
-106
-106
-106
-106
-106
-106
-106
-106
-107
-108
-108
-108
-108
-108
-108
-108
-109
-109
-109
-109
-110
-111
-111
-111
-111
-111
-111
-111
-111
-112
-112
-112
-112
-112
-113
-113
-113
-112
-113
-113
-113
-113
-114
-114
-113
-114
-114
-114
-114
-115
-115
-114
-114
-114
-115
-115
-115
-114
-114
-115
-115
-115
-115
-114
-114
-114
-114
-114
-114
-114
-114
-114
-114
-114
-113
-113
-113
-113
-113
-113
-113
-113
-113
-114
-114
-114
-113
-114
-115
-115
-116
-117
-118
-120
-120
-122
-123
-124
-126
-127
-129
-130
-131
-133
-135
-135
-135
-136
-135
-136
-134
-133
-131
-128
-124
-121
-117
-112
-107
-102
-97
-91
-86
-79
-73
-66
-59
-53
-46
-39
-34
-29
-24
-21
-17
-15
-14
-14
-14
-15
-17
-19
-22
-25
-30
-35
-40
-47
-52
-58
-65
-70
-77
-82
-86
-91
-95
-98
-101
-103
-105
-107
-108
-108
-109
-109
-109
-109
-109
-108
-108
-107
-107
-106
-107
-106
-106
-106
-107
-107
-106
-107
-108
-107
-108
-108
-108
-109
-109
-109
-109
-110
-110
-110
-110
-110
-110
-111
-111
-111
-111
-111
-111
-111
-111
-111
-111
-110
-111
-111
-111
-111
-111
-111
-111
-111
-111
-111
-111
-111
-111
-111
-111
-111
-111
-111
-111
-111
-111
-111
-111
-111
-111
-111
-111
-111
-111
-111
-111
-111
-111
-111
-111
-111
-111
-111
-111
-111
-111
-111
-110
-110
-110
-110
-110
-110
-110
-110
-110
-110
-109
-109
-109
-109
-109
-109
-109
-109
-109
-108
-108
-108
-108
-108
-108
-108
-108
-108
-108
-108
-108
-108
-108
-108
-108
-108
-108
-108
-108
-108
-108
-108
-108
-107
-107
-107
-107
-107
-107
-107
-107
-107
-107
-107
-106
-106
-106
-106
-106
-106
-106
-106
-105
-105
-105
-105
-105
-106
-106
-106
-105
-105
-105
-105
-105
-105
-105
-105
-104
-104
-104
-104
-104
-104
-104
-105
-105
-105
-104
-104
-104
-105
-105
-105
-105
-104
-104
-105
-105
-105
-105
-105
-104
-105
-105
-105
-105
-105
-104
-104
-104
-104
-104
-105
-105
-104
-104
-104
-104
-104
-103
-103
-103
-103
-102
-102
-102
-102
-101
-101
-101
-101
-100
-101
-101
-100
-100
-100
-99
-99
-99
-99
-98
-99
-99
-99
-98
-98
-98
-98
-97
-97
-97
-97
-96
-96
-96
-96
-96
-96
-95
-95
-95
-95
-95
-95
-95
-94
-94
-94
-94
-94
-94
-94
-93
-93
-93
-93
-94
-94
-94
-93
-93
-93
-93
-93
-93
-93
-93
-93
-93
-93
-93
-93
-92
-92
-92
-92
-92
-92
-92
-91
-91
-91
-91
-92
-92
-92
-92
-92
-93
-93
-93
-94
-93
-94
-95
-95
-95
-96
-96
-96
-97
-97
-98
-98
-99
-99
-99
-100
-100
-101
-101
-102
-102
-102
-103
-103
-103
-103
-103
-104
-104
-105
-105
-105
-106
-106
-106
-107
-107
-107
-107
-107
-108
-108
-108
-109
-109
-108
-108
-109
-109
-109
-110
-110
-110
-111
-111
-111
-111
-110
-111
-111
-111
-111
-111
-112
-112
-112
-112
-112
-112
-111
-112
-112
-112
-112
-112
-112
-112
-111
-111
-111
-112
-112
-112
-112
-112
-112
-112
-112
-112
-112
-112
-112
-112
-112
-112
-112
-113
-113
-113
-113
-113
-113
-113
-114
-113
-113
-113
-113
-113
-113
-112
-112
-112
-112
-112
-112
-112
-112
-112
-112
-112
-112
-112
-112
-112
-112
-112
-112
-112
-112
-112
-113
-113
-113
-113
-113
-113
-113
-113
-113
-113
-113
-114
-114
-113
-113
-113
-113
-113
-113
-113
-113
-113
-113
-113
-113
-113
-113
-113
-113
-113
-113
-113
-113
-113
-113
-113
-113
-113
-113
-113
-113
-113
-112
-112
-112
-113
-113
-113
-113
-113
-113
-112
-112
-112
-112
-112
-112
-112
-113
-113
-113
-113
-113
-113
-113
-113
-113
-113
-113
-113
-113
-113
-113
-113
-113
-113
-113
-113
-113
-112
-112
-112
-112
-112
-112
-112
-112
-112
-112
-112
-112
-112
-112
-112
-112
-112
-112
-112
-112
-112
-112
-112
-112
-111
-111
-111
-111
-111
-111
-111
-111
-111
-111
-111
-111
-111
-111
-111
-111
-111
-111
-111
-111
-111
-111
-111
-111
-111
-111
-111
-111
-111
-111
-111
-111
-110
-110
-110
-110
-110
-110
-111
-111
-111
-111
-111
-111
-111
-111
-111
-111
-111
-111
-111
-111
-111
-111
-111
-111
-111
-111
-111
-111
-111
-111
-111
-111
-111
-111
-111
-111
-111
-111
-111
-111
-111
-111
-111
-111
-111
-111
-111
-111
-111
-111
-111
-111
-111
-111
-111
-111
-111
-111
-111
-111
-111
-111
-111
-111
-111
-111
-111
-111
-111
-111
-111
-111
-111
-111
-111
-110
-111
-111
-111
-111
-111
-111
-111
-111
-111
-111
-110
-110
-111
-111
-111
-111
-111
-111
-111
-111
-111
-111
-111
-111
-111
-111
-111
-111
-111
-111
-111
-111
-111
-111
-111
-111
-111
-111
-111
-111
-111
-111
-111
-111
-111
-111
-111
-111
-110
-110
-110
-110
-110
-110
-110
-110
-110
-110
-110
-110
-109
-109
-109
-109
-109
-109
-110
-110
-110
-110
-110
-110
-110
-110
-111
-111
-111
-111
-111
-111
-111
-111
-111
-111
-111
-111
-111
-111
-111
-111
-111
-111
-110
-110
-110
-110
-110
-110
-110
-110
-110
-110
-110
-110
-110
-110
-110
-110
-109
-109
-109
-109
-109
-109
-109
-109
-109
-109
-109
-109
-109
-109
-109
-109
-109
-109
-109
-109
-109
-109
-109
-108
-108
-108
-108
-108
-108
-108
-108
-108
-108
-108
-108
-108
-108
-108
-108
-108
-108
-108
-108
-108
-108
-108
-108
-107
-107
-107
-107
-107
-107
-107
-107
-107
-107
-107
-107
-107
-107
-107
-107
-107
-107
-107
-107
-107
-107
-107
-107
-107
-107
-107
-107
-107
-107
-107
-107
-107
-107
-107
-107
-107
-106
-106
-106
-106
-106
-106
-106
-106
-106
-106
-106
-106
-106
-106
-106
-106
-107
-107
-107
-106
-106
-106
-106
-106
-106
-106
-106
-106
-106
-106
-106
-106
-106
-106
-106
-106
-106
-106
-106
-106
-106
-106
-106
-106
-106
-107
-106
-106
-107
-106
-106
-107
-107
-106
-106
-107
-107
-106
-106
-107
-107
-107
-107
-106
-107
-107
-107
-107
-107
-107
-108
-107
-107
-107
-107
-107
-108
-108
-108
-107
-107
-107
-107
-107
-106
-106
-106
-105
-105
-104
-104
-103
-103
-102
-101
-101
-100
-99
-98
-98
-97
-98
-97
-97
-97
-97
-96
-96
-96
-97
-97
-97
-97
-97
-97
-98
-99
-99
-99
-100
-100
-100
-100
-100
-102
-102
-102
-102
-102
-102
-103
-103
-102
-102
-102
-103
-103
-103
-103
-103
-103
-103
-103
-104
-104
-104
-104
-104
-104
-104
-105
-105
-105
-105
-106
-106
-106
-106
-106
-106
-106
-106
-106
-106
-106
-106
-105
-105
-105
-105
-105
-105
-105
-104
-104
-104
-104
-104
-104
-104
-104
-104
-105
-105
-105
-105
-105
-105
-106
-106
-106
-107
-108
-108
-108
-109
-110
-111
-113
-113
-115
-117
-118
-119
-121
-122
-123
-125
-126
-126
-127
-127
-127
-125
-124
-122
-119
-117
-113
-109
-104
-100
-94
-88
-83
-77
-71
-64
-57
-50
-43
-36
-31
-24
-19
-15
-11
-7
-5
-3
-2
-3
-3
-4
-7
-10
-13
-18
-22
-27
-33
-38
-44
-50
-56
-61
-67
-71
-75
-79
-83
-85
-87
-90
-91
-91
-93
-93
-93
-93
-94
-93
-93
-93
-93
-92
-93
-93
-93
-94
-94
-95
-94
-95
-95
-96
-96
-97
-97
-97
-98
-98
-98
-98
-99
-100
-100
-100
-100
-99
-99
-99
-99
-99
-99
-100
-100
-100
-100
-100
-100
-99
-99
-99
-99
-100
-100
-100
-100
-100
-100
-101
-101
-101
-101
-101
-101
-101
-101
-101
-101
-101
-101
-101
-101
-100
-100
-100
-100
-100
-100
-100
-100
-99
-99
-99
-99
-99
-99
-99
-99
-99
-99
-99
-99
-99
-99
-99
-99
-99
-99
-99
-98
-98
-98
-98
-98
-98
-98
-98
-98
-98
-98
-97
-97
-97
-97
-97
-97
-97
-97
-96
-95
-95
-95
-95
-95
-95
-95
-95
-95
-95
-95
-95
-95
-94
-94
-95
-95
-95
-95
-95
-94
-94
-94
-94
-94
-93
-93
-94
-94
-93
-93
-93
-93
-92
-92
-92
-92
-91
-91
-92
-92
-91
-91
-91
-91
-91
-90
-90
-91
-91
-91
-90
-90
-90
-90
-89
-89
-89
-89
-89
-89
-88
-88
-88
-88
-88
-87
-87
-87
-87
-87
-87
-87
-87
-87
-87
-86
-86
-86
-86
-87
-87
-86
-86
-86
-86
-86
-85
-86
-86
-86
-85
-85
-85
-84
-84
-85
-84
-84
-84
-83
-84
-83
-83
-83
-82
-82
-82
-82
-82
-82
-82
-81
-81
-81
-81
-81
-81
-80
-80
-80
-80
-80
-79
-79
-79
-79
-78
-77
-77
-77
-77
-76
-76
-76
-76
-76
-75
-75
-75
-75
-75
-75
-74
-74
-74
-74
-74
-73
-73
-73
-73
-73
-72
-72
-72
-72
-72
-71
-71
-71
-71
-71
-71
-71
-71
-71
-71
-71
-71
-71
-71
-71
-71
-71
-71
-71
-71
-71
-71
-71
-71
-71
-72
-72
-72
-73
-73
-73
-74
-74
-74
-75
-75
-75
-76
-76
-77
-77
-77
-79
-79
-80
-80
-80
-81
-81
-82
-82
-83
-83
-84
-84
-85
-84
-84
-85
-85
-86
-86
-87
-87
-88
-88
-88
-89
-88
-89
-89
-89
-90
-90
-90
-90
-91
-91
-91
-91
-92
-91
-91
-91
-91
-92
-92
-92
-92
-92
-93
-92
-92
-92
-92
-93
-93
-93
-93
-93
-92
-92
-92
-93
-93
-93
-93
-93
-92
-92
-92
-92
-92
-92
-92
-92
-92
-92
-92
-91
-91
-91
-91
-92
-92
-92
-92
-92
-92
-92
-92
-92
-92
-92
-92
-92
-92
-92
-92
-92
-92
-92
-92
-92
-92
-92
-92
-92
-91
-91
-91
-91
-91
-91
-91
-91
-91
-91
-91
-91
-91
-91
-91
-91
-91
-91
-91
-91
-91
-91
-91
-92
-92
-92
-92
-92
-92
-92
-91
-91
-91
-91
-91
-91
-91
