# Simple Text Format
# Sampling Rate (Hz):= 1200.00
# Resolution:= 12
# Labels:= ECG	 V2
# Age:=	60
# Gender:=	Masculino
-110
-111
-111
-113
-114
-114
-115
-117
-117
-118
-119
-120
-121
-121
-122
-123
-124
-124
-125
-125
-126
-127
-127
-128
-128
-130
-130
-130
-131
-131
-131
-131
-133
-133
-133
-134
-134
-134
-135
-136
-135
-135
-136
-137
-137
-137
-137
-138
-138
-138
-138
-138
-138
-138
-138
-138
-138
-138
-138
-138
-138
-138
-138
-138
-138
-138
-138
-138
-139
-139
-139
-139
-139
-139
-139
-139
-139
-138
-138
-138
-139
-139
-139
-139
-139
-139
-139
-138
-139
-139
-139
-139
-139
-139
-139
-139
-139
-139
-139
-139
-139
-139
-139
-138
-138
-138
-138
-138
-138
-138
-138
-138
-138
-137
-137
-137
-137
-137
-137
-136
-136
-136
-136
-136
-136
-136
-136
-136
-136
-136
-136
-136
-136
-136
-136
-136
-136
-136
-136
-136
-136
-136
-136
-136
-136
-136
-136
-136
-136
-136
-136
-136
-136
-136
-135
-135
-135
-135
-134
-134
-135
-135
-135
-135
-134
-135
-135
-135
-135
-135
-135
-135
-135
-135
-135
-135
-136
-136
-136
-136
-136
-136
-136
-136
-136
-136
-135
-135
-135
-135
-135
-135
-135
-135
-135
-135
-135
-135
-135
-136
-136
-136
-136
-136
-136
-136
-136
-136
-136
-136
-136
-136
-136
-136
-136
-136
-136
-136
-137
-137
-137
-137
-137
-137
-137
-137
-137
-136
-136
-136
-136
-137
-137
-137
-137
-136
-136
-137
-137
-137
-137
-137
-137
-137
-137
-137
-138
-138
-138
-138
-138
-138
-138
-138
-138
-138
-138
-138
-139
-140
-140
-140
-140
-140
-140
-140
-140
-140
-140
-140
-140
-140
-140
-140
-142
-141
-141
-141
-141
-142
-142
-142
-143
-143
-143
-143
-143
-143
-143
-143
-143
-143
-143
-143
-143
-143
-143
-143
-143
-143
-143
-143
-143
-143
-143
-143
-143
-143
-143
-143
-144
-144
-144
-144
-144
-144
-144
-145
-145
-145
-145
-145
-145
-144
-145
-145
-145
-145
-145
-145
-145
-145
-145
-146
-146
-146
-146
-146
-146
-146
-146
-146
-146
-146
-146
-146
-146
-146
-146
-146
-146
-146
-146
-146
-146
-146
-146
-146
-146
-146
-146
-146
-146
-146
-146
-146
-146
-146
-146
-146
-146
-146
-146
-146
-147
-147
-147
-147
-147
-147
-147
-148
-147
-147
-147
-147
-147
-147
-147
-147
-147
-147
-147
-147
-147
-147
-148
-148
-148
-148
-148
-147
-147
-147
-147
-147
-147
-147
-147
-147
-147
-147
-147
-147
-147
-147
-147
-147
-147
-147
-147
-148
-148
-148
-148
-148
-148
-147
-147
-147
-147
-148
-148
-148
-148
-148
-148
-148
-148
-148
-149
-149
-149
-149
-149
-149
-149
-149
-149
-149
-149
-149
-149
-148
-148
-148
-148
-148
-148
-148
-148
-148
-148
-148
-148
-148
-148
-148
-148
-148
-148
-148
-148
-148
-148
-148
-148
-148
-148
-148
-148
-148
-148
-148
-148
-148
-148
-148
-148
-148
-148
-148
-147
-148
-149
-149
-149
-149
-149
-149
-149
-149
-148
-148
-148
-148
-148
-148
-148
-148
-148
-148
-148
-148
-148
-148
-149
-149
-149
-149
-149
-149
-149
-149
-148
-148
-148
-148
-148
-148
-148
-148
-148
-148
-148
-148
-148
-148
-148
-148
-148
-148
-148
-148
-148
-148
-148
-148
-148
-148
-148
-148
-148
-148
-148
-148
-147
-147
-147
-147
-147
-146
-146
-146
-146
-146
-146
-146
-146
-146
-145
-145
-145
-145
-145
-145
-145
-145
-145
-145
-145
-144
-144
-144
-145
-144
-144
-144
-145
-145
-145
-144
-145
-145
-145
-146
-146
-146
-146
-146
-145
-145
-146
-146
-146
-146
-146
-145
-145
-146
-145
-145
-144
-145
-145
-144
-144
-145
-144
-144
-144
-144
-145
-145
-145
-145
-145
-146
-146
-146
-146
-147
-147
-148
-148
-149
-149
-150
-150
-150
-150
-150
-150
-150
-150
-150
-150
-150
-151
-151
-150
-150
-150
-149
-150
-150
-149
-149
-150
-149
-149
-149
-149
-148
-149
-149
-149
-149
-149
-149
-150
-150
-150
-150
-150
-150
-150
-150
-150
-151
-151
-151
-151
-151
-151
-150
-150
-150
-151
-151
-151
-151
-151
-150
-150
-150
-150
-150
-150
-150
-150
-150
-150
-150
-150
-150
-148
-148
-148
-147
-146
-145
-143
-141
-138
-137
-133
-130
-125
-121
-116
-111
-104
-97
-89
-81
-72
-63
-53
-43
-32
-22
-10
0
11
20
29
38
44
50
53
56
56
54
50
44
35
24
10
-6
-25
-45
-67
-91
-115
-141
-167
-193
-220
-246
-271
-294
-316
-337
-355
-372
-385
-398
-406
-413
-416
-418
-417
-414
-409
-401
-392
-382
-370
-358
-345
-331
-317
-302
-288
-275
-261
-248
-235
-223
-212
-202
-193
-184
-177
-170
-165
-160
-155
-151
-148
-145
-143
-141
-140
-139
-137
-137
-136
-136
-136
-136
-136
-136
-135
-135
-135
-135
-134
-134
-134
-134
-134
-133
-133
-132
-132
-131
-131
-131
-131
-130
-130
-129
-129
-128
-129
-129
-128
-128
-127
-127
-127
-127
-126
-126
-126
-125
-124
-124
-124
-124
-124
-124
-123
-123
-123
-123
-122
-122
-122
-122
-122
-121
-121
-121
-121
-121
-121
-120
-120
-120
-120
-120
-119
-119
-119
-119
-119
-119
-119
-119
-118
-117
-117
-117
-118
-117
-116
-117
-117
-116
-116
-115
-115
-115
-114
-114
-114
-113
-113
-113
-112
-112
-112
-112
-111
-111
-111
-111
-110
-110
-110
-110
-110
-109
-108
-108
-108
-108
-108
-107
-107
-107
-107
-106
-106
-106
-105
-105
-104
-104
-104
-105
-104
-104
-104
-103
-103
-103
-102
-101
-101
-101
-100
-100
-100
-100
-99
-99
-99
-99
-97
-97
-97
-97
-97
-96
-96
-95
-94
-94
-94
-94
-93
-93
-93
-93
-92
-92
-92
-91
-91
-91
-90
-89
-88
-88
-87
-87
-87
-86
-85
-85
-85
-84
-84
-83
-83
-82
-81
-80
-80
-80
-78
-78
-77
-77
-77
-76
-76
-75
-74
-74
-74
-73
-72
-71
-71
-71
-70
-70
-69
-68
-68
-68
-67
-67
-67
-66
-65
-65
-65
-64
-63
-63
-62
-62
-61
-61
-60
-60
-60
-58
-58
-58
-58
-56
-56
-56
-56
-56
-55
-55
-55
-55
-54
-54
-54
-54
-54
-54
-54
-55
-54
-54
-55
-55
-55
-56
-56
-57
-58
-58
-59
-60
-60
-61
-62
-63
-64
-65
-66
-66
-67
-68
-69
-71
-72
-73
-74
-76
-77
-78
-80
-80
-83
-83
-84
-86
-87
-89
-90
-92
-93
-94
-96
-98
-98
-101
-102
-103
-104
-105
-107
-108
-109
-110
-111
-112
-113
-114
-115
-117
-118
-119
-119
-120
-121
-122
-123
-123
-124
-126
-126
-127
-127
-128
-128
-129
-130
-131
-131
-131
-132
-132
-132
-134
-134
-135
-135
-135
-136
-136
-136
-137
-137
-137
-138
-138
-138
-138
-139
-139
-139
-139
-139
-139
-140
-140
-140
-140
-140
-140
-139
-140
-140
-140
-140
-140
-140
-140
-140
-140
-140
-140
-140
-139
-139
-139
-139
-139
-140
-140
-140
-140
-139
-139
-139
-139
-139
-139
-139
-139
-140
-140
-140
-140
-139
-139
-139
-139
-139
-139
-139
-138
-138
-138
-138
-138
-138
-138
-138
-138
-138
-138
-137
-137
-137
-137
-137
-137
-137
-137
-137
-137
-138
-138
-138
-136
-136
-136
-136
-136
-137
-137
-137
-137
-137
-137
-137
-137
-137
-137
-137
-136
-136
-136
-136
-136
-136
-136
-136
-136
-135
-135
-136
-136
-136
-136
-136
-135
-135
-135
-135
-135
-135
-135
-135
-135
-135
-135
-135
-134
-134
-134
-134
-134
-134
-134
-134
-134
-134
-135
-135
-135
-135
-135
-135
-135
-135
-135
-134
-134
-134
-134
-134
-134
-134
-134
-134
-134
-135
-135
-135
-135
-135
-135
-135
-135
-135
-135
-135
-135
-135
-135
-135
-135
-135
-135
-135
-135
-135
-135
-135
-135
-135
-135
-135
-135
-135
-135
-135
-136
-136
-135
-134
-134
-134
-134
-134
-134
-134
-135
-135
-135
-135
-135
-135
-135
-135
-135
-135
-135
-135
-135
-135
-135
-135
-135
-135
-135
-136
-136
-136
-136
-136
-136
-136
-136
-136
-137
-137
-137
-137
-137
-137
-137
-137
-138
-138
-139
-139
-139
-139
-139
-139
-139
-140
-140
-140
-140
-140
-140
-140
-140
-140
-140
-140
-140
-140
-140
-141
-141
-141
-141
-141
-141
-141
-141
-141
-141
-142
-142
-142
-142
-143
-143
-143
-143
-142
-142
-143
-143
-143
-143
-143
-143
-144
-144
-144
-144
-144
-144
-144
-144
-145
-145
-145
-145
-145
-145
-145
-145
-145
-145
-145
-145
-145
-145
-145
-146
-146
-146
-146
-146
-146
-146
-146
-146
-146
-146
-146
-146
-146
-146
-146
-146
-146
-146
-146
-146
-146
-146
-146
-146
-146
-147
-147
-147
-147
-147
-147
-147
-147
-147
-147
-147
-147
-147
-147
-147
-147
-147
-147
-148
-148
-148
-148
-148
-148
-148
-148
-148
-148
-148
-148
-148
-148
-148
-148
-148
-148
-148
-148
-148
-148
-148
-148
-148
-148
-148
-148
-148
-148
-148
-148
-148
-148
-148
-148
-148
-148
-148
-148
-148
-148
-149
-149
-149
-149
-149
-148
-148
-148
-148
-148
-148
-148
-148
-148
-148
-149
-149
-149
-149
-149
-149
-149
-149
-150
-150
-150
-150
-150
-150
-150
-150
-149
-150
-150
-150
-150
-150
-150
-150
-150
-150
-150
-150
-151
-151
-151
-151
-151
-151
-151
-151
-151
-151
-151
-151
-151
-151
-151
-151
-151
-151
-151
-151
-151
-151
-151
-151
-151
-151
-151
-151
-152
-152
-152
-152
-152
-152
-152
-152
-152
-152
-152
-152
-152
-152
-152
-152
-152
-151
-151
-151
-151
-151
-151
-151
-151
-152
-152
-152
-152
-152
-152
-152
-152
-152
-152
-152
-152
-151
-151
-151
-151
-151
-151
-150
-150
-150
-150
-150
-149
-149
-149
-149
-148
-148
-148
-149
-148
-148
-148
-147
-148
-148
-147
-148
-148
-147
-148
-148
-148
-148
-149
-148
-149
-149
-149
-150
-150
-150
-150
-151
-151
-151
-151
-151
-151
-151
-150
-151
-151
-150
-150
-150
-150
-149
-149
-148
-149
-149
-148
-148
-148
-147
-148
-148
-148
-149
-149
-149
-149
-150
-150
-149
-151
-151
-150
-151
-151
-152
-152
-152
-153
-153
-153
-153
-153
-153
-153
-154
-154
-154
-154
-153
-153
-154
-154
-153
-153
-154
-153
-153
-154
-153
-153
-154
-154
-154
-153
-154
-154
-154
-154
-155
-154
-154
-154
-154
-155
-155
-155
-155
-155
-155
-155
-155
-154
-154
-155
-156
-156
-156
-156
-156
-156
-156
-156
-156
-156
-156
-156
-156
-156
-156
-156
-155
-155
-155
-155
-154
-153
-153
-151
-150
-148
-145
-144
-141
-138
-134
-130
-126
-121
-114
-108
-101
-93
-85
-76
-67
-57
-47
-36
-26
-16
-6
4
14
21
29
35
39
41
43
41
39
34
27
16
4
-11
-27
-46
-67
-89
-113
-137
-162
-187
-213
-238
-262
-286
-309
-329
-348
-364
-379
-391
-401
-408
-413
-415
-414
-413
-407
-401
-393
-383
-372
-360
-347
-334
-320
-306
-293
-279
-265
-252
-239
-228
-217
-208
-198
-190
-183
-176
-170
-165
-161
-156
-153
-151
-148
-146
-145
-144
-144
-143
-142
-142
-141
-141
-142
-141
-141
-142
-142
-142
-141
-141
-141
-141
-141
-140
-140
-140
-139
-139
-139
-138
-138
-137
-138
-138
-137
-137
-136
-136
-136
-135
-135
-134
-134
-134
-134
-133
-133
-133
-132
-131
-131
-131
-131
-131
-131
-131
-130
-130
-130
-130
-130
-130
-130
-130
-129
-129
-129
-129
-129
-128
-128
-128
-128
-128
-127
-127
-127
-127
-127
-127
-127
-125
-125
-125
-125
-125
-125
-124
-124
-123
-123
-122
-122
-122
-122
-121
-121
-121
-121
-120
-120
-120
-120
-119
-119
-119
-119
-118
-118
-118
-118
-118
-117
-117
-117
-116
-116
-115
-115
-115
-115
-115
-115
-114
-114
-114
-114
-114
-112
-112
-112
-112
-112
-112
-112
-111
-111
-110
-110
-110
-110
-109
-109
-109
-108
-108
-107
-107
-107
-107
-106
-106
-106
-106
-105
-104
-104
-104
-104
-103
-103
-103
-103
-102
-101
-101
-101
-100
-100
-100
-100
-98
-98
-98
-98
-97
-97
-97
-96
-95
-94
-94
-94
-92
-92
-91
-91
-91
-90
-90
-88
-88
-88
-87
-86
-85
-85
-85
-84
-84
-84
-83
-83
-82
-82
-82
-81
-81
-80
-80
-80
-80
-79
-78
-78
-78
-78
-78
-77
-76
-76
-76
-75
-75
-75
-75
-74
-73
-73
-73
-73
-72
-72
-72
-72
-72
-72
-71
-70
-70
-70
-71
-71
-71
-71
-71
-71
-71
-71
-71
-71
-71
-72
-72
-72
-73
-73
-74
-74
-75
-75
-76
-76
-78
-79
-79
-80
-81
-82
-83
-83
-84
-85
-85
-87
-88
-89
-90
-91
-93
-94
-95
-96
-97
-98
-101
-102
-103
-104
-106
-107
-109
-110
-111
-113
-114
-116
-117
-118
-119
-120
-122
-123
-124
-125
-126
-128
-129
-130
-131
-133
-134
-134
-135
-137
-138
-138
-139
-141
-141
-142
-143
-143
-145
-145
-146
-147
-148
-148
-149
-150
-150
-151
-151
-152
-152
-153
-153
-153
-154
-154
-155
-155
-156
-156
-156
-156
-156
-156
-156
-157
-158
-158
-158
-158
-158
-158
-159
-160
-160
-160
-160
-160
-160
-160
-161
-161
-161
-161
-161
-161
-161
-162
-162
-162
-162
-162
-162
-162
-162
-162
-161
-161
-161
-161
-162
-162
-162
-162
-162
-162
-161
-161
-162
-162
-162
-162
-163
-163
-163
-162
-162
-162
-162
-162
-162
-162
-162
-162
-162
-162
-162
-162
-162
-162
-162
-162
-162
-162
-162
-161
-161
-161
-161
-161
-160
-160
-160
-160
-160
-160
-160
-160
-160
-160
-159
-160
-160
-160
-160
-160
-160
-160
-160
-160
-160
-160
-160
-160
-160
-160
-160
-160
-160
-159
-159
-159
-159
-159
-159
-159
-160
-160
-160
-160
-160
-160
-160
-160
-160
-159
-159
-159
-159
-159
-159
-159
-159
-159
-159
-159
-159
-158
-158
-158
-158
-158
-158
-158
-158
-158
-158
-158
-158
-158
-158
-158
-158
-158
-158
-158
-158
-158
-158
-158
-158
-158
-158
-158
-158
-158
-158
-158
-158
-158
-158
-158
-158
-158
-158
-158
-158
-159
-159
-159
-159
-159
-159
-159
-160
-160
-160
-160
-160
-160
-160
-160
-160
-160
-160
-160
-160
-160
-160
-161
-161
-161
-161
-161
-161
-161
-161
-161
-161
-161
-161
-161
-161
-161
-161
-161
-161
-161
-162
-161
-161
-161
-161
-162
-162
-162
-162
-163
-163
-163
-163
-163
-163
-163
-163
-163
-164
-164
-164
-164
-164
-164
-164
-164
-164
-164
-165
-165
-165
-165
-166
-166
-166
-165
-165
-165
-165
-165
-165
-166
-167
-167
-167
-166
-166
-166
-166
-166
-167
-167
-167
-167
-167
-167
-167
-167
-168
-168
-168
-168
-168
-168
-168
-168
-168
-168
-168
-168
-169
-169
-169
-168
-168
-168
-168
-168
-168
-168
-168
-168
-168
-168
-168
-168
-168
-168
-168
-168
-168
-168
-168
-168
-168
-169
-169
-169
-169
-169
-169
-169
-169
-169
-169
-169
-169
-169
-169
-169
-169
-169
-169
-169
-169
-169
-169
-169
-169
-169
-169
-168
-168
-168
-168
-168
-168
-169
-169
-169
-169
-169
-168
-168
-169
-169
-169
-169
-169
-169
-169
-169
-170
-170
-170
-170
-170
-170
-171
-171
-171
-171
-171
-171
-171
-171
-171
-171
-171
-170
-170
-170
-170
-170
-170
-170
-170
-170
-170
-170
-170
-170
-170
-170
-170
-170
-170
-170
-170
-170
-170
-170
-171
-171
-171
-171
-171
-171
-171
-171
-171
-171
-171
-171
-171
-171
-171
-171
-171
-171
-171
-171
-171
-171
-171
-172
-172
-172
-172
-172
-171
-171
-171
-171
-171
-171
-171
-171
-171
-171
-171
-171
-171
-171
-171
-171
-171
-171
-171
-171
-171
-171
-171
-171
-171
-171
-171
-171
-171
-171
-171
-171
-171
-172
-172
-172
-172
-172
-172
-172
-172
-172
-172
-172
-172
-172
-172
-172
-172
-173
-173
-173
-173
-173
-172
-172
-172
-172
-172
-172
-172
-172
-172
-172
-172
-172
-172
-172
-172
-172
-172
-172
-172
-172
-172
-172
-172
-172
-172
-172
-172
-172
-173
-173
-173
-173
-173
-173
-173
-174
-174
-174
-174
-174
-174
-174
-174
-174
-174
-174
-173
-173
-174
-174
-174
-174
-173
-173
-173
-173
-172
-173
-173
-172
-172
-172
-172
-171
-171
-171
-171
-170
-170
-170
-170
-170
-170
-170
-169
-169
-169
-170
-170
-170
-169
-169
-170
-170
-170
-170
-170
-170
-171
-171
-171
-172
-171
-171
-171
-172
-171
-171
-172
-172
-172
-172
-172
-172
-172
-172
-171
-171
-170
-171
-171
-170
-171
-171
-170
-170
-170
-170
-171
-171
-171
-171
-171
-171
-171
-171
-172
-172
-172
-172
-173
-173
-173
-174
-174
-174
-174
-174
-174
-175
-175
-175
-175
-175
-174
-174
-174
-174
-174
-175
-175
-174
-174
-174
-175
-175
-174
-174
-175
-175
-174
-175
-175
-175
-175
-176
-176
-175
-175
-175
-175
-176
-176
-176
-176
-176
-176
-177
-177
-177
-177
-177
-177
-177
-177
-177
-177
-176
-176
-176
-176
-175
-175
-175
-175
-175
-175
-176
-176
-176
-176
-176
-175
-174
-173
-172
-171
-169
-167
-165
-162
-159
-156
-152
-146
-141
-135
-129
-122
-113
-105
-95
-86
-75
-65
-54
-43
-33
-22
-13
-4
4
11
16
20
22
22
20
16
10
2
-10
-24
-39
-58
-79
-101
-124
-148
-174
-200
-227
-254
-279
-304
-328
-349
-370
-387
-403
-417
-427
-435
-441
-444
-444
-442
-437
-429
-421
-410
-399
-387
-372
-359
-345
-330
-315
-301
-287
-274
-262
-250
-239
-229
-221
-212
-205
-199
-193
-189
-184
-180
-177
-175
-172
-170
-169
-168
-167
-166
-166
-165
-166
-166
-165
-165
-165
-165
-165
-165
-164
-164
-164
-165
-164
-164
-164
-162
-163
-162
-162
-162
-162
-161
-161
-161
-160
-160
-160
-160
-159
-159
-159
-159
-159
-159
-158
-158
-158
-158
-157
-157
-157
-157
-156
-156
-156
-155
-155
-155
-155
-154
-154
-154
-154
-154
-153
-153
-152
-152
-151
-151
-152
-152
-152
-151
-151
-151
-151
-151
-150
-150
-149
-149
-149
-148
-148
-148
-148
-148
-147
-147
-147
-147
-147
-146
-146
-146
-145
-144
-144
-144
-143
-143
-144
-143
-143
-142
-142
-142
-141
-141
-141
-140
-140
-140
-139
-139
-139
-139
-138
-138
-138
-138
-137
-137
-136
-136
-136
-136
-135
-135
-135
-135
-135
-134
-134
-133
-133
-133
-133
-132
-132
-132
-132
-131
-131
-131
-130
-130
-130
-130
-130
-129
-129
-128
-128
-128
-128
-127
-127
-126
-126
-126
-125
-125
-125
-124
-123
-123
-123
-122
-122
-122
-121
-121
-119
-119
-119
-118
-119
-118
-117
-117
-116
-116
-116
-115
-115
-115
-114
-114
-113
-113
-113
-112
-112
-111
-111
-110
-110
-110
-109
-109
-108
-107
-107
-107
-106
-105
-105
-104
-104
-104
-103
-103
-103
-102
-101
-101
-101
-100
-100
-100
-99
-99
-98
-98
-98
-98
-97
-96
-96
-96
-96
-96
-95
-95
-95
-95
-95
-95
-95
-95
-94
-94
-94
-94
-94
-94
-94
-95
-95
-95
-95
-95
-96
-96
-96
-96
-97
-97
-97
-97
-98
-98
-99
-99
-100
-100
-101
-102
-103
-103
-104
-105
-106
-107
-108
-110
-111
-112
-113
-114
-115
-116
-118
-119
-120
-122
-124
-125
-126
-127
-128
-130
-131
-132
-134
-135
-137
-138
-138
-140
-141
-142
-144
-145
-146
-148
-149
-150
-150
-152
-153
-154
-155
-156
-157
-158
-159
-160
-161
-162
-163
-164
-164
-166
-166
-167
-168
-169
-169
-170
-170
-172
-172
-172
-174
-174
-174
-174
-176
-176
-176
-176
-176
-177
-177
-177
-177
-179
-179
-179
-179
-179
-179
-180
-181
-181
-181
-181
-181
-181
-181
-181
-181
-181
-182
-182
-182
-182
-182
-182
-182
-182
-182
-182
-182
-182
-182
-181
-181
-181
-181
-181
-181
-181
-181
-182
-182
-182
-182
-182
-182
-181
-181
-181
-181
-181
-181
-181
-181
-181
-181
-181
-181
-181
-181
-181
-181
-182
-182
-181
-181
-181
-181
-181
-181
-181
-181
-181
-181
-181
-181
-181
-181
-181
-181
-181
-181
-181
-181
-181
-181
-180
-180
-180
-180
-180
-180
-180
-180
-180
-180
-179
-179
-179
-179
-179
-179
-179
-179
-178
-178
-178
-178
-178
-178
-178
-178
-178
-178
-178
-178
-179
-179
-178
-179
-179
-179
-179
-179
-179
-179
-179
-179
-179
-179
-179
-179
-179
-179
-178
-178
-178
-178
-178
-178
-178
-178
-179
-179
-179
-179
-178
-178
-178
-178
-178
-178
-178
-179
-179
-179
-179
-179
-179
-179
-179
-179
-179
-179
-179
-179
-179
-179
-179
-179
-179
-179
-179
-179
-179
-179
-179
-179
-179
-179
-180
-180
-180
-180
-180
-180
-180
-180
-180
-180
-180
-180
-180
-180
-180
-180
-180
-180
-180
-180
-180
-180
-180
-180
-180
-180
-180
-181
-181
-181
-181
-181
-181
-181
-181
-181
-182
-182
-182
-182
-182
-182
-183
-183
-183
-183
-183
-183
-184
-184
-184
-184
-184
-184
-184
-184
-184
-184
-184
-184
-185
-185
-185
-185
-185
-185
-185
-185
-185
-185
-185
-185
-185
-185
-185
-185
-185
-185
-185
-186
-186
-186
-186
-186
-186
-186
-186
-186
-186
-186
-186
-186
-186
-186
-186
-187
-187
-187
-187
-187
-187
-187
-187
-187
-187
-187
-187
-187
-187
-187
-187
-187
-187
-187
-188
-188
-188
-188
-188
-188
-188
-188
-188
-188
-188
-188
-188
-188
-187
-187
-187
-187
-187
-187
-187
-187
-187
-187
-187
-187
-187
-188
-188
-188
-188
-188
-188
-188
-188
-188
-188
-188
-188
-188
-188
-188
-188
-188
-188
-188
-188
-188
-188
-188
-188
-188
-188
-188
-188
-188
-188
-188
-188
-188
-188
-188
-188
-188
-188
-188
-188
-188
-188
-188
-188
-188
-188
-187
-187
-187
-188
-187
-187
-188
-188
-188
-188
-188
-187
-188
-188
-188
-188
-188
-188
-189
-189
-188
-188
-188
-188
-188
-188
-188
-188
-188
-187
-187
-187
-187
-187
-187
-187
-187
-187
-187
-187
-188
-188
-188
-188
-188
-187
-187
-187
-187
-187
-187
-187
-187
-187
-187
-188
-188
-188
-188
-188
-188
-188
-188
-188
-188
-188
-188
-188
-188
-188
-188
-188
-188
-188
-189
-189
-189
-189
-189
-189
-189
-189
-189
-189
-189
-189
-189
-189
-189
-189
-189
-189
-189
-189
-189
-189
-189
-189
-189
-189
-189
-189
-189
-189
-189
-189
-189
-189
-189
-189
-189
-189
-189
-189
-189
-189
-189
-189
-189
-189
-189
-189
-189
-189
-189
-189
-189
-189
-189
-189
-189
-189
-189
-188
-188
-188
-189
-189
-189
-189
-189
-189
-189
-189
-189
-189
-189
-189
-190
-190
-190
-190
-189
-189
-189
-189
-189
-189
-189
-189
-189
-189
-189
-188
-188
-188
-188
-188
-187
-187
-187
-186
-186
-186
-186
-185
-186
-186
-186
-185
-185
-185
-184
-184
-184
-184
-184
-184
-183
-183
-183
-183
-182
-182
-182
-182
-183
-182
-182
-182
-183
-182
-182
-182
-182
-183
-183
-183
-183
-184
-184
-184
-184
-184
-184
-185
-185
-184
-184
-184
-185
-184
-184
-184
-184
-183
-184
-184
-183
-183
-183
-183
-183
-183
-183
-183
-184
-185
-184
-184
-184
-185
-185
-185
-186
-186
-186
-187
-187
-187
-187
-187
-187
-187
-188
-188
-188
-188
-188
-188
-188
-187
-187
-188
-187
-187
-187
-187
-186
-186
-187
-187
-187
-186
-187
-187
-187
-187
-186
-186
-186
-187
-187
-186
-186
-186
-187
-187
-187
-187
-187
-186
-187
-187
-187
-187
-187
-187
-187
-187
-187
-188
-188
-188
-188
-188
-188
-188
-188
-187
-187
-187
-187
-187
-187
-186
-186
-186
-185
-185
-183
-183
-181
-179
-177
-174
-171
-168
-164
-160
-155
-150
-144
-137
-130
-122
-113
-104
-94
-83
-73
-62
-51
-40
-29
-20
-11
-2
5
10
14
16
17
15
11
5
-4
-15
-29
-46
-64
-84
-108
-131
-156
-182
-208
-235
-263
-289
-314
-338
-360
-380
-398
-415
-427
-439
-447
-452
-455
-454
-452
-446
-439
-431
-420
-409
-395
-381
-367
-352
-338
-323
-309
-295
-281
-269
-258
-246
-236
-227
-219
-211
-205
-200
-194
-190
-187
-184
-181
-179
-177
-176
-175
-174
-173
-172
-172
-172
-172
-172
-172
-171
-171
-171
-171
-171
-171
-171
-171
-170
-170
-170
-169
-169
-169
-167
-167
-166
-166
-166
-165
-165
-165
-165
-164
-164
-164
-163
-163
-163
-164
-163
-163
-163
-163
-162
-162
-162
-161
-161
-161
-161
-160
-160
-160
-159
-159
-160
-159
-159
-159
-158
-157
-157
-157
-157
-156
-156
-156
-155
-155
-155
-154
-154
-154
-153
-153
-153
-153
-152
-152
-152
-151
-151
-151
-150
-150
-150
-150
-150
-149
-149
-149
-149
-149
-148
-148
-148
-148
-147
-147
-147
-146
-146
-145
-145
-145
-145
-145
-145
-144
-144
-144
-144
-143
-143
-143
-142
-142
-141
-141
-141
-141
-140
-140
-139
-139
-139
-138
-138
-138
-137
-137
-137
-136
-136
-135
-134
-134
-134
-134
-133
-133
-133
-133
-132
-132
-132
-131
-131
-130
-130
-129
-129
-129
-129
-128
-127
-127
-127
-126
-126
-126
-125
-125
-124
-124
-124
-124
-123
-123
-123
-122
-121
-121
-121
-120
-120
-119
-118
-118
-117
-117
-117
-116
-116
-115
-114
-114
-113
-113
-113
-112
-112
-111
-111
-110
-110
-109
-109
-109
-108
-108
-108
-107
-107
-106
-106
-106
-106
-104
-104
-104
-104
-103
-103
-102
-101
-101
-101
-100
-100
-99
-98
-98
-98
-98
-97
-97
-96
-96
-96
-96
-96
-95
-95
-95
-95
-95
-95
-95
-95
-95
-95
-96
-96
-96
-96
-96
-96
-96
-97
-97
-97
-97
-98
-97
-98
-98
-99
-99
-100
-100
-101
-102
-102
-103
-104
-105
-106
-107
-108
-109
-110
-111
-112
-113
-114
-115
-116
-118
-120
-121
-122
-123
-124
-126
-127
-128
-130
-131
-132
-133
-135
-136
-137
-139
-140
-141
-143
-143
-144
-145
-147
-148
-149
-150
-151
-152
-152
-153
-154
-155
-156
-156
-158
-158
-159
-159
-161
-161
-161
-162
-163
-164
-164
-164
-166
-166
-166
-167
-168
-168
-168
-170
-170
-170
-171
-171
-172
-172
-172
-173
-173
-174
-174
-174
-174
-174
-174
-174
-175
-175
-175
-175
-175
-175
-175
-175
-175
-175
-176
-177
-177
-177
-177
-177
-177
-177
-177
-177
-177
-177
-177
-177
-177
-177
-177
-178
-178
-178
-178
-178
-178
-178
-178
-178
-178
-178
-178
-178
-178
-178
-177
-177
-177
-177
-177
-177
-176
-176
-176
-176
-176
-176
-176
-176
-176
-176
-176
-176
-176
-176
-176
-175
-175
-175
-175
-175
-176
-176
-176
-176
-176
-176
-176
-176
-176
-176
-175
-175
-175
-175
-175
-175
-175
-175
-175
-174
-174
-175
-174
-174
-174
-174
-174
-174
-173
-173
-173
-173
-173
-173
-173
-173
-173
-172
-172
-172
-172
-172
-172
-172
-171
-171
-171
-171
-171
-171
-171
-171
-170
-170
-170
-170
-170
-170
-170
-169
-169
-169
-169
-169
-169
-170
-170
-170
-170
-170
-170
-170
-170
-170
-170
-170
-170
-169
-169
-169
-169
-169
-169
-169
-169
-169
-169
-169
-169
-169
-169
-169
-169
-169
-169
-169
-169
-169
-169
-169
-169
-170
-169
-169
-169
-169
-169
-169
-169
-169
-170
-170
-170
-170
-170
-170
-170
-170
-170
-170
-171
-171
-171
-171
-171
-171
-171
-171
-171
-171
-171
-171
-171
-171
-171
-171
-171
-171
-171
-171
-171
-171
-171
-171
-171
-171
-171
-171
-171
-171
-171
-171
-171
-171
-171
-171
-171
-171
-171
-172
-172
-172
-172
-172
-172
-172
-172
-172
-172
-173
-173
-173
-173
-173
-173
-173
-173
-173
-173
-173
-173
-173
-173
-173
-173
-173
-173
-173
-173
-173
-173
-173
-174
-174
-174
-174
-174
-174
-174
-174
-174
-174
-174
-174
-174
-174
-174
-174
-174
-175
-175
-175
-175
-175
-175
-175
-175
-175
-174
-174
-174
-174
-174
-174
-174
-174
-174
-174
-174
-174
-174
-174
-174
-174
-174
-174
-174
-174
-175
-175
-175
-175
-175
-175
-175
-175
-175
-175
-175
-175
-175
-175
-175
-175
-175
-175
-175
-175
-175
-175
-175
-174
-174
-174
-174
-174
-174
-174
-174
-174
-174
-174
-174
-174
-174
-174
-175
-175
-175
-175
-175
-175
-175
-175
-175
-175
-175
-175
-175
-175
-175
-175
-175
-175
-175
-175
-175
-174
-174
-174
-174
-174
-174
-174
-175
-175
-174
-174
-174
-174
-174
-174
-174
-174
-174
-174
-174
-174
-175
-175
-175
-175
-175
-175
-175
-175
-175
-175
-175
-175
-175
-175
-175
-175
-175
-175
-175
-175
-175
-174
-174
-174
-174
-174
-174
-174
-174
-174
-175
-174
-174
-174
-174
-174
-174
-174
-174
-174
-174
-174
-174
-174
-174
-174
-174
-174
-174
-174
-174
-174
-174
-174
-174
-174
-174
-174
-174
-174
-174
-174
-174
-174
-174
-174
-174
-173
-173
-173
-173
-173
-173
-173
-173
-173
-173
-173
-173
-173
-173
-173
-173
-173
-173
-173
-173
-173
-173
-173
-173
-173
-173
-173
-172
-173
-173
-173
-173
-173
-173
-173
-173
-173
-173
-173
-172
-172
-172
-172
-172
-172
-172
-172
-172
-172
-171
-171
-171
-171
-171
-171
-171
-171
-171
-171
-171
-171
-171
-171
-171
-171
-170
-171
-171
-171
-171
-171
-171
-171
-170
-170
-169
-169
-169
-169
-169
-168
-168
-168
-168
-168
-167
-167
-167
-167
-167
-167
-165
-165
-165
-165
-165
-165
-164
-164
-164
-164
-164
-164
-163
-164
-164
-164
-164
-164
-164
-164
-165
-165
-165
-164
-165
-165
-166
-166
-165
-165
-166
-166
-166
-166
-167
-166
-166
-166
-165
-165
-166
-165
-165
-165
-164
-165
-165
-165
-165
-165
-165
-165
-165
-165
-165
-166
-166
-166
-167
-168
-167
-168
-168
-169
-169
-169
-170
-169
-169
-170
-170
-170
-170
-169
-169
-170
-169
-169
-168
-168
-169
-168
-168
-167
-168
-167
-167
-168
-167
-167
-167
-168
-167
-167
-167
-167
-167
-167
-167
-168
-168
-168
-167
-167
-167
-168
-168
-168
-168
-168
-168
-168
-168
-168
-167
-167
-167
-167
-167
-166
-166
-166
-166
-166
-166
-165
-164
-164
-164
-164
-163
-164
-164
-164
-163
-162
-162
-160
-160
-157
-155
-154
-151
-148
-144
-141
-135
-130
-125
-117
-110
-102
-94
-84
-75
-64
-54
-42
-31
-20
-9
2
12
21
28
35
40
43
45
44
41
37
29
19
6
-9
-26
-46
-67
-90
-115
-141
-166
-193
-220
-246
-272
-297
-320
-341
-362
-379
-394
-407
-417
-425
-430
-432
-431
-429
-424
-417
-408
-398
-386
-373
-360
-346
-332
-316
-302
-287
-273
-260
-247
-235
-224
-213
-203
-195
-187
-180
-175
-169
-165
-160
-158
-154
-152
-150
-149
-148
-147
-146
-145
-144
-144
-144
-144
-144
-144
-144
-144
-143
-143
-143
-143
-142
-142
-141
-141
-141
-140
-140
-140
-139
-140
-139
-139
-138
-138
-138
-138
-137
-137
-137
-136
-136
-136
-135
-135
-135
-135
-134
-134
-134
-134
-133
-133
-133
-132
-132
-132
-131
-131
-131
-131
-130
-130
-130
-130
-130
-129
-129
-129
-129
-129
-128
-128
-128
-128
-128
-127
-127
-127
-127
-127
-126
-126
-126
-126
-125
-125
-125
-124
-124
-124
-123
-123
-123
-123
-122
-122
-122
-122
-120
-120
-120
-120
-119
-119
-119
-119
-118
-118
-118
-117
-117
-117
-117
-116
-116
-116
-115
-115
-115
-115
-114
-114
-114
-113
-113
-113
-112
-112
-112
-112
-111
-111
-111
-111
-110
-110
-110
-109
-109
-108
-108
-108
-108
-107
-107
-107
-106
-106
-105
-105
-104
-104
-104
-103
-103
-102
-102
-101
-101
-100
-100
-100
-99
-99
-98
-97
-96
-96
-95
-95
-94
-94
-94
-93
-92
-92
-91
-91
-91
-90
-89
-89
-89
-88
-88
-87
-87
-86
-86
-85
-85
-85
-84
-83
-82
-82
-81
-81
-80
-80
-79
-79
-78
-77
-77
-76
-76
-75
-74
-73
-72
-71
-72
-70
-70
-69
-68
-68
-67
-67
-66
-66
-65
-65
-65
-63
-63
-63
-63
-62
-62
-62
-62
-61
-61
-61
-61
-61
-61
-60
-60
-60
-60
-59
-59
-59
-59
-59
-61
-60
-60
-60
-61
-61
-61
-62
-62
-62
-63
-64
-64
-65
-65
-66
-67
-68
-68
-69
-70
-71
-72
-73
-75
-76
-77
-78
-79
-81
-82
-84
-85
-87
-88
-90
-91
-92
-94
-95
-97
-98
-99
-101
-102
-104
-105
-106
-108
-109
-111
-112
-114
-116
-117
-118
-119
-120
-122
-123
-124
-125
-126
-128
-129
-130
-131
-131
-132
-134
-135
-135
-136
-137
-137
-138
-140
-141
-141
-142
-143
-143
-144
-144
-145
-145
-146
-146
-147
-147
-149
-149
-149
-149
-150
-150
-150
-151
-151
-151
-151
-152
-152
-152
-153
-153
-153
-153
-153
-153
-154
-154
-154
-154
-154
-154
-154
-154
-154
-154
-154
-154
-154
-154
-154
-154
-154
-154
-154
-154
-154
-154
-154
-153
-153
-154
-154
-154
-154
-154
-154
-154
-154
-154
-154
-155
-155
-154
-154
-154
-154
-154
-154
-154
-154
-154
-154
-154
-154
-154
-153
-153
-153
-154
-154
-154
-154
-153
-153
-153
-153
-153
-153
-153
-153
-153
-153
-153
-153
-153
-152
-152
-152
-151
-151
-151
-151
-151
-151
-151
-151
-151
-151
-151
-151
-151
-151
-151
-151
-150
-150
-150
-149
-149
-149
-149
-149
-149
-150
-150
-150
-150
-150
-150
-150
-149
-149
-149
-149
-149
-149
-150
-150
-149
-149
-149
-149
-149
-149
-149
-148
-148
-148
-148
-148
-148
-148
-148
-147
-147
-147
-147
-147
-147
-147
-147
-147
-147
-147
-147
-148
-148
-148
-148
-147
-147
-147
-147
-147
-147
-148
-148
-148
-147
-147
-147
-147
-147
-147
-147
-147
-147
-147
-147
-147
-148
-148
-148
-148
-148
-148
-148
-148
-148
-148
-148
-149
-149
-149
-149
-149
-149
-149
-148
-148
-148
-148
-148
-149
-149
-148
-148
-148
-149
-148
-148
-148
-148
-148
-148
-148
-148
-148
-149
-149
-149
-149
-149
-149
-149
-150
-150
-150
-149
-149
-150
-150
-150
-150
-151
-151
-151
-151
-151
-151
-151
-152
-152
-152
-152
-152
-152
-152
-152
-152
-152
-152
-152
-152
-152
-152
-152
-152
-153
-153
-153
-152
-152
-152
-152
-152
-153
-153
-153
-153
-153
-153
-153
-153
-153
-153
-153
-153
-153
-153
-153
-153
-153
-153
-154
-154
-154
-154
-154
-154
-154
-154
-154
-154
-154
-155
-155
-155
-155
-155
-155
-155
-155
-155
-155
-155
-155
-155
-155
-155
-155
-155
-155
-155
-155
-155
-156
-156
-156
-156
-156
-155
-155
-156
-156
-156
-156
-156
-156
-156
-156
-156
-156
-155
-155
-155
-155
-156
-156
-156
-156
-156
-156
-156
-157
-157
-157
-157
-157
-157
-157
-157
-157
-157
-157
-157
-158
-158
-158
-158
-158
-158
-158
-158
-158
-158
-158
-158
-158
-158
-158
-158
-157
-157
-157
-158
-158
-157
-157
-157
-157
-157
-157
-157
-156
-156
-156
-156
-156
-156
-156
-157
-157
-157
-157
-157
-157
-157
-157
-157
-157
-157
-157
-157
-158
-157
-157
-157
-157
-157
-157
-157
-157
-157
-157
-157
-157
-157
-157
-157
-158
-158
-158
-158
-158
-158
-158
-159
-159
-159
-159
-159
-159
-160
-160
-160
-160
-160
-160
-160
-160
-160
-160
-160
-160
-160
-160
-160
-160
-160
-160
-159
-159
-159
-160
-160
-160
-160
-160
-160
-160
-160
-160
-160
-159
-159
-159
-159
-159
-159
-159
-159
-159
-159
-159
-160
-160
-159
-159
-159
-159
-159
-160
-160
-160
-160
-161
-161
-161
-161
-161
-161
-161
-161
-161
-161
-161
-161
-161
-161
-161
-161
-160
-160
-160
-160
-160
-159
-159
-159
-159
-159
-159
-159
-158
-158
-158
-159
-158
-158
-157
-158
-158
-157
-158
-158
-157
-158
-158
-157
-157
-158
-157
-157
-157
-157
-157
-157
-157
-157
-157
-157
-157
-157
-158
-158
-158
-158
-158
-158
-159
-159
-160
-160
-160
-160
-160
-160
-160
-161
-161
-161
-160
-160
-160
-160
-159
-160
-159
-159
-158
-159
-158
-159
-158
-158
-158
-159
-159
-159
-158
-158
-158
-159
-159
-160
-159
-160
-160
-161
-162
-161
-162
-162
-162
-162
-163
-163
-163
-163
-163
-162
-162
-163
-162
-162
-162
-162
-162
-162
-161
-162
-162
-161
-162
-162
-162
-163
-163
-163
-163
-164
-164
-164
-164
-164
-164
-164
-165
-165
-165
-165
-165
-165
-165
-165
-165
-166
-166
-165
-165
-165
-164
-165
-165
-164
-164
-164
-163
-163
-163
-163
-163
-163
-163
-163
-163
-163
-162
-162
-162
-162
-161
-161
-160
-160
-159
-158
-156
-155
-153
-150
-147
-144
-141
-136
-132
-126
-120
-112
-105
-97
-89
-80
-71
-61
-51
-41
-30
-21
-10
-2
7
15
21
26
29
30
30
28
24
18
10
-2
-16
-33
-50
-70
-91
-113
-137
-161
-186
-211
-236
-260
-285
-307
-328
-347
-365
-380
-394
-405
-413
-419
-423
-424
-423
-421
-415
-408
-400
-390
-379
-367
-354
-341
-328
-313
-300
-286
-273
-261
-248
-236
-225
-216
-207
-198
-192
-185
-179
-174
-169
-165
-162
-160
-157
-156
-154
-152
-152
-151
-151
-151
-151
-150
-150
-150
-150
-149
-149
-150
-150
-150
-149
-149
-149
-148
-148
-148
-147
-147
-146
-146
-146
-145
-145
-144
-145
-145
-144
-144
-144
-144
-143
-143
-143
-143
-142
-142
-142
-142
-141
-141
-141
-141
-140
-140
-139
-139
-139
-138
-139
-139
-138
-138
-138
-137
-137
-136
-136
-136
-136
-135
-135
-135
-135
-134
-134
-134
-134
-134
-133
-133
-133
-133
-133
-133
-133
-133
-132
-132
-132
-132
-132
-131
-131
-130
-130
-130
-130
-130
-130
-129
-129
-129
-129
-129
-129
-128
-128
-128
-128
-128
-127
-126
-126
-126
-126
-125
-125
-125
-125
-125
-124
-123
-123
-123
-123
-123
-123
-121
-121
-121
-121
-121
-121
-121
-119
-119
-119
-119
-118
-118
-118
-118
-118
-116
-116
-116
-116
-115
-115
-115
-115
-115
-114
-114
-114
-113
-112
-112
-112
-112
-111
-111
-111
-110
-110
-109
-109
-109
-108
-107
-106
-106
-106
-105
-105
-104
-104
-103
-102
-102
-102
-101
-101
-100
-100
-99
-99
-99
-98
-97
-97
-97
-96
-95
-95
-94
-94
-94
-94
-92
-92
-92
-91
-91
-90
-90
-88
-88
-88
-87
-87
-86
-85
-85
-84
-84
-84
-83
-83
-82
-82
-82
-81
-81
-80
-80
-80
-79
-79
-79
-79
-79
-79
-78
-78
-78
-78
-78
-78
-78
-77
-77
-77
-78
-78
-78
-78
-79
-79
-79
-79
-80
-80
-80
-80
-81
-82
-82
-83
-84
-85
-85
-86
-86
-87
-88
-89
-90
-91
-92
-93
-94
-95
-96
-97
-98
-99
-100
-102
-103
-104
-106
-107
-108
-109
-112
-113
-114
-116
-117
-119
-120
-122
-124
-125
-127
-128
-130
-131
-133
-135
-136
-137
-138
-140
-141
-143
-145
-146
-147
-148
-150
-151
-152
-154
-155
-156
-157
-158
-159
-160
-161
-162
-163
-164
-165
-166
-166
-167
-168
-168
-169
-170
-170
-171
-171
-173
-173
-173
-174
-174
-174
-175
-175
-176
-176
-176
-177
-177
-177
-178
-179
-179
-178
-179
-179
-179
-180
-180
-180
-181
-181
-181
-181
-182
-182
-182
-182
-183
-183
-183
-183
-183
-184
-184
-184
-184
-184
-184
-184
-184
-184
-185
-185
-184
-184
-184
-184
-185
-185
-185
-185
-184
-184
-184
-184
-184
-185
-185
-185
-185
-185
-185
-186
-186
-186
-186
-186
-186
-186
-186
-186
-186
-186
-186
-186
-186
-186
-186
-186
-186
-185
-185
-185
-185
-185
-185
-185
-186
-186
-186
-186
-186
-186
-186
-186
-186
-187
-187
-187
-187
-187
-187
-186
-186
-186
-186
-186
-186
-186
-186
-186
-186
-186
-186
-186
-186
-185
-185
-186
-186
-186
-186
-186
-186
-186
-186
-186
-186
-186
-186
-186
-186
-186
-186
-186
-186
-185
-185
-185
-185
-185
-185
-185
-185
-185
-185
-185
-185
-185
-185
-185
-185
-185
-185
-185
-184
-184
-184
-184
-184
-184
-185
-185
-185
-185
-185
-185
-185
-185
-185
-185
-185
-185
-185
-185
-185
-185
-186
-186
-186
-186
-186
-186
-186
-186
-186
-186
-186
-186
-186
-186
-186
-186
-186
-186
-186
-186
-186
-186
-186
-186
-186
-187
-187
-187
-187
-187
-187
-187
-187
-187
-187
-187
-187
-187
-187
-187
-188
-188
-188
-187
-188
-188
-188
-188
-188
-188
-188
-188
-188
-188
-188
-188
-189
-189
-189
-189
-189
-189
-189
-189
-189
-190
-190
-190
-190
-190
-190
-190
-191
-191
-191
-191
-191
-191
-191
-191
-191
-191
-191
-191
-191
-191
-191
-191
-191
-191
-191
-191
-191
-191
-191
-191
-191
-191
-191
-191
-191
-191
-191
-192
-192
-192
-192
-192
-192
-192
-192
-192
-191
-192
-192
-192
-192
-192
-192
-192
-192
-192
-192
-193
-193
-193
-194
-194
-194
-194
-194
-194
-194
-194
-194
-194
-194
-195
-195
-194
-195
-195
-195
-195
-195
-195
-195
-195
-195
-195
-195
-195
-195
-195
-195
-195
-195
-195
-194
-194
-194
-195
-195
-195
-195
-195
-195
-195
-195
-195
-195
-195
-195
-195
-195
-195
-196
-196
-196
-196
-196
-196
-196
-196
-196
-196
-196
-196
-196
-196
-196
-196
-196
-196
-196
-196
-196
-196
-196
-196
-196
-196
-196
-197
-197
-197
-197
-197
-197
-197
-197
-197
-197
-197
-196
-196
-196
-196
-196
-196
-196
-196
-196
-196
-197
-197
-198
-198
-198
-198
-198
-198
-198
-197
-197
-197
-197
-197
-197
-197
-197
-197
-197
-198
-198
-198
-198
-198
-198
-198
-197
-197
-197
-197
-197
-197
-197
-197
-197
-198
-198
-198
-198
-198
-198
-197
-197
-197
-198
-198
-198
-198
-198
-198
-198
-198
-198
-198
-198
-198
-198
-198
-198
-198
-198
-198
-198
-198
-199
-199
-199
-199
-199
-199
-199
-199
-199
-199
-200
-200
-200
-200
-199
-199
-199
-199
-199
-200
-200
-200
-200
-200
-200
-200
-200
-200
-200
-200
-200
-200
-200
-200
-199
-199
-199
-199
-199
-199
-198
-198
-198
-198
-198
-199
-199
-198
-198
-198
-197
-197
-198
-198
-198
-197
-197
-198
-198
-197
-197
-197
-197
-196
-197
-197
-197
-197
-196
-197
-197
-196
-196
-197
-197
-197
-197
-197
-198
-198
-198
-198
-198
-199
-199
-199
-199
-200
-200
-200
-200
-200
-200
-200
-200
-200
-200
-200
-199
-200
-199
-199
-200
-199
-199
-199
-199
-199
-199
-199
-199
-199
-199
-199
-199
-200
-200
-200
-200
-200
-201
-201
-201
-201
-202
-201
-201
-202
-202
-202
-202
-202
-202
-201
-201
-201
-202
-202
-201
-201
-201
-201
-201
-201
-201
-201
-201
-201
-201
-202
-202
-201
-201
-201
-202
-202
-202
-201
-201
-201
-202
-202
-202
-201
-201
-202
-202
-202
-201
-201
-201
-202
-202
-202
-202
-202
-202
-202
-202
-202
-202
-202
-202
-202
-202
-202
-202
-202
-202
-202
-202
-202
-201
-201
-201
-200
-200
-199
-198
-196
-194
-193
-190
-187
-185
-181
-177
-172
-166
-159
-152
-145
-136
-127
-118
-107
-97
-86
-76
-65
-55
-45
-36
-27
-20
-15
-11
-8
-7
-9
-12
-17
-25
-35
-48
-64
-81
-101
-122
-145
-169
-193
-220
-246
-272
-297
-322
-346
-368
-388
-406
-423
-437
-448
-457
-464
-468
-468
-466
-463
-457
-449
-440
-429
-417
-404
-390
-376
-362
-348
-333
-319
-306
-293
-281
-271
-260
-251
-242
-235
-228
-222
-217
-212
-208
-204
-202
-199
-197
-195
-194
-193
-192
-191
-190
-190
-191
-190
-190
-190
-190
-189
-189
-189
-189
-190
-189
-189
-189
-188
-188
-187
-187
-187
-187
-187
-186
-186
-185
-185
-184
-184
-183
-183
-183
-182
-182
-182
-181
-181
-181
-181
-180
-180
-180
-180
-179
-179
-179
-179
-178
-178
-178
-178
-178
-178
-177
-177
-177
-177
-177
-176
-176
-176
-176
-176
-175
-175
-175
-175
-175
-175
-174
-174
-174
-174
-173
-173
-173
-173
-172
-172
-172
-171
-171
-171
-171
-170
-170
-170
-169
-169
-169
-169
-168
-168
-168
-168
-167
-167
-167
-166
-166
-165
-165
-165
-165
-165
-165
-164
-164
-164
-164
-164
-162
-162
-162
-162
-161
-161
-161
-161
-160
-160
-160
-160
-159
-158
-158
-158
-157
-157
-157
-157
-156
-155
-155
-155
-154
-154
-154
-154
-154
-153
-152
-152
-152
-152
-151
-151
-150
-150
-150
-149
-149
-149
-148
-147
-147
-147
-147
-146
-145
-145
-144
-144
-144
-143
-143
-142
-141
-141
-141
-140
-140
-140
-138
-138
-138
-137
-137
-137
-137
-135
-135
-135
-134
-134
-134
-133
-132
-132
-131
-131
-131
-131
-130
-129
-129
-129
-128
-128
-127
-127
-126
-126
-125
-125
-124
-124
-123
-123
-122
-122
-122
-121
-120
-120
-120
-120
-119
-118
-118
-118
-117
-117
-117
-117
-116
-116
-116
-116
-116
-116
-115
-115
-115
-115
-116
-116
-116
-116
-116
-115
-115
-115
-116
-116
-116
-116
-116
-117
-117
-117
-118
-118
-119
-119
-120
-120
-121
-122
-122
-123
-124
-125
-126
-127
-128
-129
-131
-132
-133
-134
-136
-137
-138
-139
-140
-141
-143
-144
-146
-147
-148
-150
-151
-152
-154
-155
-156
-158
-160
-161
-162
-163
-165
-166
-167
-169
-170
-171
-173
-173
-174
-176
-177
-177
-179
-180
-180
-181
-182
-183
-184
-184
-185
-186
-187
-187
-187
-189
-189
-190
-191
-191
-192
-192
-192
-194
-194
-194
-194
-195
-196
-196
-196
-197
-197
-198
-198
-198
-198
-198
-198
-200
-200
-200
-200
-200
-200
-200
-201
-201
-200
-200
-200
-200
-200
-200
-201
-201
-201
-201
-201
-201
-201
-201
-201
-202
-202
-202
-202
-202
-202
-202
-202
-202
-202
-202
-202
-202
-202
-202
-202
-202
-202
-201
-201
-201
-201
-201
-201
-201
-201
-201
-201
-201
-201
-201
-201
-201
-201
-201
-200
-200
-200
-200
-200
-200
-200
-200
-200
-200
-200
-200
-200
-199
-199
-199
-199
-199
-199
-199
-199
-199
-199
-199
-198
-198
-198
-198
-198
-198
-198
-198
-198
-198
-198
-198
-197
-197
-197
-198
-198
-198
-198
-198
-198
-198
-198
-198
-198
-198
-198
-198
-198
-198
-198
-198
-197
-197
-197
-197
-197
-197
-197
-197
-197
-197
-197
-197
-197
-197
-197
-197
-197
-197
-197
-197
-197
-197
-197
-197
-197
-197
-197
-197
-197
-197
-197
-197
-197
-197
-197
-197
-197
-197
-197
-197
-196
-196
-196
-196
-196
-196
-196
-196
-196
-196
-197
-197
-197
-197
-197
-197
-196
-196
-196
-196
-196
-196
-196
-196
-196
-196
-196
-196
-197
-197
-197
-197
-197
-197
-197
-197
-197
-197
-197
-197
-197
-197
-198
-198
-198
-198
-198
-198
-198
-198
-198
-198
-198
-198
-198
-198
-198
-198
-198
-198
-198
-198
-198
-198
-198
-198
-198
-198
-198
-198
-198
-198
-198
-199
-199
-199
-199
-199
-199
-199
-199
-199
-199
-199
-199
-199
-199
-199
-199
-199
-200
-200
-200
-201
-201
-201
-201
-201
-201
-201
-201
-201
-201
-201
-201
-202
-202
-202
-202
-201
-201
-201
-201
-201
-201
-201
-201
-201
-201
-201
-201
-201
-201
-201
-201
-201
-201
-201
-201
-201
-201
-202
-202
-202
-202
-202
-202
-202
-202
-202
-202
-202
-202
-202
-202
-202
-202
-202
-202
-202
-202
-202
-202
-202
-202
-202
-202
-202
-202
-202
-202
-202
-202
-202
-202
-202
-202
-202
-202
-202
-201
-201
-202
-202
-202
-202
-202
-202
-202
-202
-202
-202
-202
-202
-202
-202
-202
-201
-201
-201
-201
-201
-201
-202
-202
-202
-202
-202
-202
-202
-202
-202
-202
-202
-202
-202
-203
-204
-204
-204
-204
-204
-204
-204
-204
-204
-204
-204
-204
-204
-204
-204
-203
-203
-203
-203
-203
-203
-203
-203
-203
-203
-203
-203
-203
-203
-203
-203
-203
-203
-203
-203
-203
-203
-203
-203
-203
-203
-203
-203
-203
-203
-204
-204
-204
-204
-204
-204
-204
-204
-204
-204
-204
-204
-204
-203
-203
-203
-203
-203
-203
-203
-204
-204
-204
-203
-203
-203
-203
-203
-204
-203
-203
-203
-203
-203
-203
-203
-203
-203
-203
-203
-203
-203
-203
-203
-203
-203
-203
-203
-203
-203
-203
-203
-203
-203
-203
-203
-203
-203
-203
-203
-203
-203
-203
-203
-203
-203
-203
-203
-203
-203
-203
-203
-203
-203
-203
-203
-203
-203
-203
-203
-203
-203
-203
-203
-203
-203
-203
-203
-202
-202
-202
-202
-202
-202
-202
-202
-202
-202
-202
-202
-202
-202
-202
-202
-203
-203
-203
-203
-203
-203
-203
-203
-203
-202
-202
-202
-202
-202
-202
-203
-202
-202
-202
-202
-202
-201
-201
-201
-200
-201
-201
-201
-200
-200
-200
-199
-199
-199
-199
-199
-198
-198
-198
-198
-198
-197
-198
-198
-198
-198
-197
-197
-198
-198
-197
-197
-198
-198
-198
-199
-199
-198
-198
-198
-198
-199
-199
-200
-199
-199
-200
-200
-199
-199
-200
-200
-199
-199
-200
-199
-199
-200
-200
-200
-199
-199
-200
-200
-200
-200
-200
-200
-201
-201
-201
-201
-202
-201
-201
-202
-202
-202
-203
-203
-203
-203
-203
-203
-203
-203
-203
-203
-203
-204
-204
-203
-203
-203
-204
-203
-203
-203
-202
-202
-203
-202
-202
-202
-202
-202
-202
-202
-202
-202
-202
-202
-201
-202
-202
-202
-202
-202
-202
-202
-203
-202
-202
-202
-202
-202
-202
-202
-202
-202
-202
-201
-201
-201
-201
-201
-201
-201
-201
-201
-201
-201
-201
-201
-200
-200
-200
-200
-200
-199
-198
-198
-196
-195
-193
-192
-189
-186
-183
-180
-175
-171
-166
-160
-153
-146
-138
-129
-120
-110
-99
-89
-78
-67
-56
-46
-35
-27
-19
-11
-6
-2
1
2
0
-4
-10
-18
-29
-44
-60
-78
-99
-121
-144
-169
-195
-221
-248
-274
-300
-325
-349
-371
-391
-409
-425
-437
-448
-456
-461
-463
-463
-460
-455
-448
-439
-428
-416
-403
-390
-375
-361
-346
-332
-318
-304
-291
-279
-267
-257
-247
-239
-231
-224
-218
-212
-207
-203
-200
-196
-193
-192
-190
-188
-187
-187
-186
-185
-185
-184
-184
-184
-183
-183
-183
-182
-182
-182
-182
-181
-181
-181
-181
-180
-180
-180
-179
-179
-178
-178
-177
-177
-176
-176
-176
-175
-175
-175
-174
-174
-174
-173
-173
-173
-173
-172
-172
-172
-172
-172
-171
-171
-171
-171
-170
-170
-170
-170
-170
-169
-169
-169
-169
-169
-168
-168
-168
-167
-167
-166
-166
-166
-166
-165
-165
-165
-165
-165
-164
-164
-164
-164
-163
-163
-163
-163
-162
-162
-162
-162
-161
-161
-161
-160
-160
-160
-160
-159
-159
-159
-158
-158
-158
-158
-157
-157
-157
-156
-155
-155
-155
-155
-155
-154
-154
-154
-154
-154
-154
-153
-153
-153
-152
-152
-152
-152
-151
-151
-151
-151
-150
-150
-149
-149
-149
-149
-149
-148
-147
-147
-147
-147
-146
-145
-145
-145
-144
-144
-144
-144
-144
-142
-142
-142
-142
-142
-140
-140
-140
-140
-140
-139
-138
-138
-138
-138
-138
-136
-136
-136
-136
-136
-135
-134
-134
-134
-133
-133
-133
-132
-132
-131
-130
-130
-129
-129
-129
-128
-127
-127
-127
-126
-125
-125
-125
-125
-123
-123
-123
-122
-121
-121
-121
-120
-119
-119
-119
-118
-117
-117
-116
-116
-115
-114
-114
-114
-114
-113
-112
-112
-112
-111
-111
-111
-110
-110
-110
-109
-109
-109
-108
-108
-108
-108
-108
-107
-107
-107
-107
-107
-106
-107
-107
-107
-106
-106
-106
-106
-106
-106
-106
-107
-107
-107
-107
-107
-108
-108
-108
-109
-108
-109
-109
-110
-110
-111
-111
-113
-114
-114
-115
-116
-117
-117
-118
-119
-120
-121
-122
-124
-125
-126
-128
-129
-131
-131
-133
-134
-135
-137
-138
-140
-141
-142
-143
-144
-146
-147
-149
-150
-151
-153
-154
-155
-156
-157
-158
-160
-161
-161
-163
-164
-165
-166
-166
-168
-168
-170
-170
-171
-172
-173
-173
-175
-175
-175
-176
-176
-178
-178
-178
-179
-179
-179
-180
-181
-181
-181
-182
-182
-182
-182
-183
-184
-184
-184
-184
-185
-185
-185
-185
-185
-186
-186
-186
-186
-186
-186
-186
-187
-187
-187
-187
-187
-187
-187
-187
-187
-187
-187
-187
-187
-188
-188
-188
-188
-188
-188
-188
-188
-188
-188
-188
-188
-188
-188
-188
-188
-188
-188
-188
-187
-187
-187
-187
-187
-187
-187
-187
-187
-187
-187
-187
-187
-187
-187
-187
-187
-187
-187
-187
-187
-187
-187
-187
-187
-187
-187
-187
-187
-187
-187
-187
-187
-187
-187
-187
-186
-186
-186
-185
-185
-185
-185
-185
-185
-185
-185
-185
-185
-185
-185
-185
-185
-184
-184
-184
-184
-184
-184
-184
-184
-184
-184
-184
-184
-184
-184
-184
-184
-184
-184
-184
-184
-184
-184
-184
-184
-184
-184
-184
-183
-183
-183
-183
-183
-183
-183
-183
-183
-183
-183
-183
-183
-183
-183
-183
-182
-182
-182
-182
-182
-182
-182
-182
-182
-182
-182
-182
-182
-182
-182
-182
-182
-182
-182
-182
-182
-182
-182
-182
-181
-181
-181
-181
-181
-181
-181
-181
-181
-181
-181
-181
-181
-181
-181
-181
-181
-181
-181
-181
-181
-181
-182
-182
-182
-182
-182
-182
-182
-182
-182
-182
-182
-183
-183
-183
-183
-182
-182
-182
-182
-183
-183
-183
-183
-183
-183
-183
-183
-184
-184
-184
-184
-184
-184
-184
-184
-184
-184
-184
-184
-184
-184
-184
-184
-184
-185
-185
-185
-185
-185
-185
-185
-185
-185
-185
-186
-186
-186
-186
-186
-186
-186
-186
-186
-186
-186
-186
-186
-186
-186
-186
-186
-186
-186
-186
-186
-186
-187
-187
-187
-187
-187
-187
-187
-187
-187
-187
-187
-187
-187
-187
-187
-187
-187
-187
-187
-186
-186
-186
-186
-186
-186
-186
-186
-186
-186
-186
-186
-187
-187
-187
-187
-187
-187
-187
-187
-187
-187
-187
-187
-188
-188
-188
-188
-188
-188
-188
-188
-188
-188
-188
-188
-188
-188
-188
-188
-188
-188
-188
-188
-188
-188
-188
-188
-187
-187
-187
-187
-187
-187
-188
-188
-188
-188
-188
-188
-188
-188
-188
-188
-188
-189
-189
-189
-189
-189
-188
-188
-188
-188
-188
-189
-189
-189
-189
-189
-188
-188
-188
-188
-188
-188
-188
-188
-188
-188
-188
-188
-189
-189
-189
-188
-188
-188
-188
-188
-188
-188
-188
-188
-188
-188
-188
-188
-188
-188
-188
-188
-188
-188
-188
-188
-188
-188
-188
-188
-188
-188
-188
-188
-188
-188
-188
-188
-188
-188
-189
-189
-189
-189
-189
-189
-189
-189
-189
-189
-189
-189
-189
-189
-189
-189
-188
-188
-187
-187
-187
-187
-187
-187
-187
-187
-187
-187
-187
-187
-187
-187
-187
-187
-187
-187
-187
-187
-187
-187
-187
-187
-188
-188
-188
-188
-187
-187
-187
-187
-187
-187
-187
-187
-188
-188
-188
-188
-188
-188
-188
-187
-187
-187
-187
-187
-187
-187
-187
-187
-187
-187
-187
-187
-187
-187
-187
-187
-187
-187
-187
-187
-187
-187
-187
-187
-187
-187
-187
-187
-187
-187
-187
-186
-187
-187
-187
-187
-187
-187
-187
-187
-187
-187
-187
-187
-187
-187
-187
-187
-187
-187
-187
-187
-187
-187
-185
-185
-185
-185
-185
-185
-185
-185
-185
-185
-185
-185
-185
-185
-185
-185
-185
-184
-184
-185
-185
-185
-184
-184
-184
-183
-184
-184
-184
-184
-183
-183
-183
-183
-182
-182
-182
-182
-182
-181
-181
-181
-181
-181
-180
-180
-180
-180
-181
-181
-180
-180
-180
-181
-181
-181
-181
-181
-181
-181
-181
-181
-182
-181
-182
-182
-182
-182
-182
-182
-181
-181
-181
-181
-181
-181
-181
-181
-181
-181
-180
-180
-181
-181
-181
-181
-181
-182
-182
-182
-182
-182
-182
-183
-183
-183
-184
-184
-184
-184
-184
-184
-184
-184
-184
-185
-184
-184
-184
-183
-184
-184
-183
-183
-183
-183
-183
-182
-182
-182
-181
-182
-182
-182
-182
-181
-181
-182
-182
-182
-182
-182
-182
-182
-182
-182
-182
-183
-183
-183
-184
-184
-184
-184
-184
-183
-183
-183
-183
-183
-183
-184
-184
-184
-184
-184
-183
-183
-183
-183
-183
-183
-183
-182
-182
-182
-181
-182
-182
-180
-179
-179
-177
-175
-173
-170
-167
-164
-161
-157
-151
-145
-140
-133
-125
-116
-108
-98
-88
-77
-67
-55
-45
-33
-22
-13
-3
4
11
16
20
21
21
20
15
9
-1
-13
-27
-45
-64
-86
-108
-131
-157
-183
-209
-237
-263
-289
-314
-337
-358
-378
-395
-410
-424
-434
-441
-446
-448
-448
-445
-439
-432
-424
-413
-401
-389
-375
-361
-346
-332
-317
-303
-290
-276
-263
-252
-241
-231
-222
-214
-206
-200
-195
-189
-185
-182
-178
-175
-173
-171
-170
-168
-168
-167
-166
-166
-166
-165
-165
-165
-165
-165
-164
-164
-164
-164
-164
-163
-163
-163
-162
-162
-161
-161
-162
-161
-161
-160
-160
-160
-159
-159
-159
-158
-158
-158
-157
-157
-157
-156
-156
-155
-155
-155
-154
-154
-154
-154
-153
-153
-153
-152
-152
-152
-151
-151
-152
-151
-151
-151
-150
-150
-150
-150
-149
-149
-149
-149
-149
-149
-147
-147
-147
-147
-147
-147
-147
-147
-146
-146
-145
-145
-145
-145
-144
-144
-144
-144
-143
-143
-143
-142
-142
-141
-141
-141
-140
-140
-140
-139
-139
-139
-138
-138
-138
-138
-137
-137
-137
-137
-135
-135
-135
-135
-135
-135
-134
-134
-134
-134
-134
-133
-132
-132
-132
-131
-131
-131
-131
-131
-130
-129
-129
-129
-129
-129
-127
-127
-127
-127
-127
-127
-125
-125
-125
-125
-125
-123
-123
-123
-123
-123
-122
-121
-121
-121
-120
-120
-120
-119
-118
-118
-118
-117
-116
-116
-116
-115
-114
-114
-114
-113
-113
-112
-112
-112
-111
-110
-110
-109
-109
-109
-108
-108
-107
-106
-105
-105
-104
-104
-103
-103
-102
-102
-101
-101
-100
-100
-98
-98
-97
-97
-97
-95
-95
-95
-94
-93
-93
-92
-92
-92
-91
-91
-90
-89
-89
-88
-88
-88
-87
-87
-86
-86
-86
-85
-85
-84
-84
-84
-83
-83
-83
-83
-82
-82
-82
-82
-81
-81
-81
-81
-81
-81
-81
-80
-80
-80
-80
-81
-81
-81
-82
-82
-83
-83
-84
-84
-85
-85
-86
-87
-87
-88
-89
-89
-90
-91
-92
-93
-93
-94
-96
-97
-98
-100
-101
-102
-103
-104
-106
-107
-108
-111
-111
-114
-115
-117
-118
-120
-121
-123
-124
-126
-127
-129
-130
-131
-133
-134
-135
-137
-139
-140
-141
-142
-143
-144
-146
-147
-148
-149
-149
-151
-152
-153
-154
-155
-156
-157
-157
-158
-160
-160
-161
-161
-162
-162
-164
-164
-165
-165
-166
-166
-167
-168
-168
-168
-169
-169
-169
-170
-171
-171
-171
-172
-172
-172
-173
-173
-174
-174
-175
-175
-175
-175
-175
-175
-176
-176
-176
-176
-176
-176
-176
-176
-176
-176
-176
-176
-176
-177
-177
-177
-177
-176
-176
-177
-177
-177
-177
-177
-177
-177
-177
-177
-177
-177
-178
-178
-178
-178
-178
-177
-177
-177
-177
-177
-177
-177
-177
-177
-177
-177
-177
-177
-177
-177
-177
-177
-177
-176
-176
-176
-176
-176
-176
-176
-176
-176
-176
-176
-176
-176
-176
-176
-176
-176
-176
-176
-176
-176
-176
-175
-175
-176
-176
-176
-176
-176
-175
-175
-175
-175
-175
-175
-175
-175
-175
-174
-174
-174
-174
-174
-174
-174
-174
-174
-174
-174
-174
-174
-174
-174
-173
-173
-173
-173
-173
-173
-173
-173
-173
-173
-173
-173
-173
-173
-173
-173
-172
-172
-172
-173
-173
-173
-173
-173
-173
-173
-172
-172
-172
-172
-172
-172
-172
-172
-172
-171
-171
-171
-171
-171
-171
-172
-172
-172
-172
-172
-173
-173
-173
-173
-173
-173
-173
-173
-173
-173
-173
-173
-173
-173
-173
-173
-174
-174
-174
-174
-174
-174
-174
-174
-174
-174
-174
-173
-173
-173
-173
-174
-174
-174
-174
-174
-174
-174
-174
-174
-174
-174
-174
-174
-174
-174
-174
-174
-174
-175
-175
-175
-175
-175
-175
-175
-175
-175
-175
-175
-175
-175
-175
-175
-175
-175
-175
-175
-175
-175
-175
-175
-175
-175
-175
-175
-175
-175
-175
-175
-175
-175
-175
-175
-175
-176
-176
-176
-176
-176
-176
-176
-176
-176
-176
-176
-176
-176
-176
-177
-177
-177
-177
-177
-177
-177
-177
-177
-177
-177
-177
-177
-177
-178
-178
-178
-178
-177
-178
-178
-178
-178
-178
-178
-178
-178
-177
-177
-177
-177
-177
-177
-177
-177
-177
-177
-177
-177
-177
-177
-177
-177
-177
-177
-178
-178
-178
-178
-178
-178
-178
-178
-179
-178
-178
-178
-178
-178
-178
-178
-178
-178
-178
-178
-178
-178
-178
-178
-178
-178
-177
-177
-177
-178
-178
-178
-178
-178
-178
-178
-178
-179
-179
-179
-178
-178
-178
-178
-178
-178
-179
-179
-179
-179
-179
-179
-179
-179
-179
-179
-179
-179
-178
-178
-179
-179
-179
-179
-179
-178
-178
-178
-178
-178
-178
-178
-178
-178
-178
-178
-178
-178
-178
-178
-178
-178
-178
-178
-179
-179
-179
-179
-179
-179
-179
-179
-178
-179
-179
-179
-179
-179
-179
-179
-179
-180
-180
-179
-179
-179
-179
-179
-179
-179
-179
-179
-179
-179
-179
-179
-179
-179
-178
-178
-178
-178
-178
-178
-178
-179
-179
-179
-179
-179
-179
-179
-180
-180
-180
-180
-180
-180
-180
-180
-181
-181
-180
-180
-180
-180
-180
-180
-180
-180
-180
-180
-180
-181
-181
-181
-181
-181
-180
-180
-180
-180
-180
-180
-180
-180
-180
-180
-180
-180
-180
-180
-180
-180
-180
-180
-180
-180
-180
-180
-180
-180
-180
-178
-178
-178
-178
-178
-178
-178
-178
-178
-178
-178
-178
-178
-178
-178
-178
-178
-178
-178
-177
-177
-177
-177
-177
-177
-176
-176
-177
-176
-176
-176
-175
-176
-176
-176
-175
-175
-175
-174
-174
-174
-174
-174
-174
-174
-174
-174
-175
-175
-175
-175
-176
-176
-176
-177
-176
-177
-177
-177
-177
-177
-177
-178
-178
-178
-177
-178
-177
-177
-177
-176
-177
-176
-176
-175
-176
-175
-175
-176
-176
-175
-175
-175
-176
-176
-176
-177
-177
-177
-178
-178
-179
-179
-180
-179
-179
-180
-180
-180
-180
-180
-180
-181
-181
-180
-180
-180
-179
-179
-180
-180
-179
-180
-180
-179
-179
-180
-179
-179
-180
-179
-180
-180
-179
-180
-180
-180
-180
-180
-180
-179
-180
-180
-180
-180
-180
-180
-180
-179
-179
-179
-180
-180
-180
-180
-180
-180
-180
-180
-181
-180
-180
-180
-180
-180
-180
-180
-179
-179
-179
-179
-179
-179
-178
-178
-178
-176
-176
-174
-172
-170
-168
-165
-162
-159
-155
-151
-146
-141
-135
-128
-120
-113
-104
-95
-85
-75
-66
-55
-45
-34
-24
-14
-5
3
9
15
18
20
20
19
15
9
1
-10
-23
-40
-58
-78
-99
-121
-145
-170
-195
-220
-246
-272
-296
-319
-340
-361
-378
-395
-409
-421
-429
-436
-440
-442
-442
-440
-434
-428
-419
-409
-398
-386
-373
-360
-347
-333
-319
-305
-291
-279
-266
-255
-244
-233
-224
-215
-208
-201
-196
-189
-185
-181
-177
-175
-172
-171
-169
-167
-167
-166
-165
-165
-165
-165
-164
-164
-164
-164
-164
-163
-163
-163
-163
-162
-162
-161
-162
-161
-161
-160
-160
-159
-159
-158
-158
-157
-157
-157
-156
-156
-156
-155
-155
-155
-155
-154
-154
-154
-154
-154
-153
-153
-153
-153
-153
-152
-152
-152
-151
-151
-151
-151
-150
-150
-150
-149
-149
-149
-149
-148
-148
-148
-148
-148
-148
-148
-147
-147
-146
-146
-146
-146
-145
-145
-145
-145
-145
-144
-144
-144
-144
-143
-143
-144
-144
-142
-142
-142
-141
-141
-141
-141
-141
-141
-140
-140
-140
-140
-140
-139
-139
-138
-138
-137
-137
-137
-137
-137
-137
-136
-136
-136
-136
-135
-135
-135
-135
-134
-133
-133
-133
-132
-132
-132
-132
-132
-132
-131
-130
-130
-130
-130
-129
-129
-129
-129
-129
-128
-127
-127
-127
-127
-127
-125
-125
-125
-125
-124
-124
-124
-123
-123
-122
-122
-122
-121
-121
-120
-120
-119
-118
-117
-117
-116
-117
-116
-116
-114
-114
-114
-113
-113
-112
-112
-112
-111
-111
-110
-109
-109
-108
-108
-106
-106
-106
-105
-105
-104
-104
-104
-102
-102
-101
-101
-100
-100
-98
-98
-97
-97
-97
-96
-96
-94
-94
-94
-93
-93
-92
-92
-90
-90
-90
-89
-89
-89
-88
-88
-87
-86
-86
-86
-85
-85
-85
-85
-84
-83
-83
-83
-82
-82
-82
-82
-82
-82
-82
-82
-82
-82
-82
-82
-82
-82
-83
-83
-83
-84
-84
-85
-85
-86
-86
-87
-87
-88
-89
-89
-90
-91
-92
-93
-94
-95
-96
-97
-98
-99
-100
-101
-103
-104
-105
-107
-108
-109
-111
-112
-114
-115
-117
-118
-120
-121
-122
-124
-125
-126
-127
-130
-131
-132
-133
-134
-135
-137
-138
-139
-140
-141
-143
-144
-145
-146
-147
-148
-149
-150
-150
-152
-152
-153
-154
-154
-155
-155
-157
-157
-158
-158
-159
-159
-161
-161
-162
-162
-162
-163
-164
-164
-165
-165
-165
-166
-166
-167
-167
-167
-167
-167
-168
-168
-169
-169
-169
-169
-170
-170
-170
-170
-170
-170
-170
-170
-170
-170
-170
-170
-170
-170
-170
-170
-170
-170
-170
-170
-170
-170
-170
-170
-170
-170
-170
-170
-170
-170
-170
-170
-170
-170
-170
-170
-170
-170
-170
-170
-170
-169
-169
-169
-169
-169
-169
-169
-169
-169
-169
-169
-169
-169
-169
-168
-168
-168
-168
-168
-169
-169
-169
-169
-169
-169
-169
-169
-169
-169
-168
-168
-168
-168
-168
-168
-168
-168
-168
-167
-167
-167
-167
-167
-167
-167
-167
-167
-166
-166
-166
-166
-166
-166
-166
-166
-166
-166
-166
-166
-166
-165
-165
-165
-165
-165
-165
-165
-165
-165
-165
-165
-165
-165
-165
-165
-165
-165
-165
-165
-165
-165
-165
-165
-165
-165
-165
-165
-165
-165
-165
-165
-165
-165
-165
-165
-165
-165
-165
-165
-165
-165
-165
-165
-165
-164
-164
-164
-165
-165
-165
-165
-165
-165
-165
-165
-165
-166
-166
-166
-166
-166
-166
-166
-166
-166
-166
-166
-166
-166
-166
-167
-167
-167
-167
-167
-167
-167
-167
-166
-166
-166
-166
-166
-166
-166
-166
-166
-166
-166
-166
-166
-166
-166
-166
-166
-167
-167
-167
-167
-167
-168
-168
-168
-168
-168
-168
-168
-168
-168
-168
-168
-168
-168
-168
-169
-169
-169
-169
-169
-169
-169
-169
-169
-169
-169
-170
-170
-170
-170
-170
-170
-170
-170
-170
-170
-170
-170
-170
-171
-171
-171
-171
-171
-171
-171
-171
-171
-170
-170
-171
-171
-171
-172
-172
-172
-172
-172
-172
-172
-172
-172
-172
-172
-172
-172
-172
-172
-172
-172
-172
-172
-172
-172
-172
-172
-172
-172
-172
-172
-172
-172
-172
-172
-172
-172
-172
-172
-172
-172
-172
-172
-172
-172
-172
-172
-172
-172
-172
-172
-172
-172
-172
-172
-172
-172
-172
-172
-172
-172
-172
-173
-173
-173
-173
-173
-173
-173
-173
-173
-173
-173
-173
-173
-174
-174
-174
-174
-174
-174
-174
-174
-174
-174
-174
-174
-173
-173
-173
-173
-173
-173
-173
-173
-173
-173
-173
-173
-173
-173
-173
-173
-174
-174
-174
-174
-174
-174
-174
-174
-174
-174
-174
-174
-174
-174
-174
-174
-175
-175
-175
-175
-175
-175
-175
-175
-175
-175
-175
-175
-175
-175
-175
-175
-175
-175
-174
-174
-174
-175
-175
-175
-174
-174
-174
-174
-173
-174
-174
-174
-173
-173
-173
-175
-175
-174
-174
-175
-175
-175
-175
-175
-175
-175
-175
-175
-175
-175
-175
-175
-175
-175
-175
-175
-175
-175
-175
-174
-174
-174
-174
-174
-174
-174
-174
-174
-175
-175
-175
-175
-175
-175
-175
-175
-175
-175
-175
-175
-175
-175
-175
-175
-175
-175
-175
-175
-175
-175
-175
-175
-175
-175
-175
-175
-175
-174
-174
-174
-174
-174
-174
-174
-174
-174
-175
-175
-175
-175
-175
-175
-175
-175
-175
-175
-175
-175
-175
-175
-175
-175
-174
-174
-174
-174
-174
-174
-174
-174
-174
-173
-173
-173
-173
-172
-172
-172
-172
-172
-171
-171
-171
-171
-171
-171
-171
-171
-170
-170
-170
-169
-169
-169
-169
-169
-169
-169
-169
-169
-169
-169
-169
-169
-169
-169
-169
-169
-169
-169
-169
-170
-170
-170
-170
-171
-171
-171
-171
-171
-171
-171
-171
-172
-171
-171
-171
-171
-171
-170
-171
-170
-170
-170
-170
-169
-169
-170
-169
-169
-170
-170
-170
-170
-170
-170
-170
-171
-171
-171
-171
-172
-172
-172
-172
-173
-173
-173
-173
-173
-173
-173
-173
-173
-173
-173
-173
-173
-173
-173
-172
-172
-172
-172
-172
-172
-172
-172
-172
-172
-172
-173
-173
-173
-172
-172
-173
-173
-173
-173
-173
-174
-174
-174
-174
-174
-175
-175
-175
-175
-174
-174
-174
-174
-175
-175
-175
-175
-174
-174
-174
-174
-174
-174
-174
-174
-174
-173
-173
-173
-173
-173
-173
-173
-172
-172
-172
-172
-170
-169
-167
-165
-163
-160
-157
-154
-150
-146
-141
-135
-128
-121
-113
-104
-96
-86
-76
-65
-55
-43
-33
-22
-13
-3
6
14
20
24
27
28
27
24
19
12
2
-12
-27
-44
-63
-85
-108
-132
-157
-184
-209
-236
-263
-288
-312
-335
-356
-374
-392
-406
-418
-428
-434
-438
-440
-438
-435
-430
-422
-413
-402
-389
-376
-363
-349
-334
-319
-306
-292
-278
-265
-253
-241
-231
-221
-213
-205
-198
-192
-187
-182
-177
-174
-171
-169
-167
-165
-163
-162
-161
-161
-160
-160
-159
-159
-158
-159
-159
-159
-159
-158
-158
-158
-158
-157
-157
-157
-156
-156
-156
-156
-156
-155
-155
-155
-154
-154
-154
-153
-153
-152
-152
-152
-151
-151
-151
-151
-150
-150
-150
-149
-149
-149
-149
-148
-148
-148
-148
-148
-148
-147
-147
-147
-147
-147
-147
-146
-146
-146
-146
-146
-145
-145
-145
-145
-144
-144
-144
-144
-143
-143
-143
-142
-143
-143
-143
-142
-142
-142
-141
-141
-141
-140
-139
-139
-139
-138
-138
-138
-138
-137
-137
-137
-137
-136
-136
-136
-136
-135
-135
-135
-134
-134
-134
-134
-133
-133
-133
-133
-132
-132
-132
-131
-130
-130
-130
-129
-129
-129
-129
-129
-128
-128
-128
-128
-126
-126
-126
-126
-126
-126
-125
-125
-124
-124
-124
-123
-123
-123
-123
-122
-122
-122
-122
-121
-121
-121
-120
-119
-119
-119
-118
-118
-118
-116
-116
-116
-116
-115
-115
-114
-113
-113
-113
-112
-112
-111
-111
-110
-110
-110
-109
-109
-109
-108
-107
-107
-106
-106
-106
-104
-104
-103
-103
-103
-102
-102
-101
-100
-100
-100
-100
-99
-98
-98
-98
-96
-96
-96
-95
-95
-94
-94
-93
-93
-93
-92
-91
-91
-91
-91
-90
-89
-89
-89
-89
-89
-87
-87
-87
-87
-87
-86
-86
-86
-86
-86
-84
-84
-84
-84
-84
-84
-84
-84
-84
-84
-83
-83
-83
-83
-83
-83
-84
-83
-83
-84
-84
-84
-85
-85
-86
-86
-87
-87
-88
-89
-89
-90
-91
-92
-92
-93
-94
-96
-97
-98
-99
-100
-101
-102
-103
-104
-106
-107
-108
-110
-111
-112
-113
-114
-116
-117
-118
-119
-121
-122
-123
-125
-126
-127
-128
-130
-131
-132
-134
-135
-136
-137
-139
-139
-141
-142
-143
-143
-145
-146
-146
-147
-149
-149
-150
-151
-152
-153
-153
-154
-155
-155
-156
-157
-157
-158
-158
-159
-160
-160
-160
-161
-162
-162
-162
-162
-163
-164
-164
-164
-165
-165
-165
-166
-166
-166
-167
-167
-167
-167
-168
-168
-169
-169
-169
-169
-169
-169
-169
-169
-170
-170
-171
-171
-171
-171
-171
-171
-171
-171
-171
-171
-171
-171
-171
-171
-171
-171
-171
-171
-171
-171
-171
-171
-171
-171
-171
-171
-171
-171
-172
-171
-171
-171
-171
-171
-171
-171
-171
-171
-171
-171
-171
-171
-171
-171
-171
-171
-171
-171
-171
-171
-171
-171
-171
-171
-171
-170
-170
-170
-170
-170
-170
-170
-170
-170
-169
-169
-169
-169
-170
-170
-169
-169
-169
-169
-169
-169
-169
-169
-169
-169
-169
-169
-169
-168
-167
-167
-167
-168
-168
-168
-168
-168
-168
-168
-168
-167
-167
-167
-167
-167
-167
-167
-167
-167
-167
-167
-167
-167
-167
-167
-167
-167
-167
-167
-167
-167
-166
-166
-166
-166
-166
-166
-166
-166
-166
-165
-165
-165
-167
-167
-167
-167
-167
-167
-167
-167
-167
-167
-167
-167
-167
-167
-167
-167
-167
-167
-167
-167
-167
-167
-167
-167
-167
-167
-167
-167
-167
-167
-167
-167
-167
-167
-167
-167
-167
-167
-167
-167
-167
-167
-167
-167
-167
-167
-167
-167
-167
-167
-167
-167
-167
-167
-167
-167
-168
-168
-168
-168
-168
-168
-168
-168
-168
-168
-169
-169
-169
-169
-169
-169
-169
-169
-169
-169
-169
-169
-169
-169
-169
-169
-169
-169
-169
-169
-169
-169
-169
-170
-170
-170
-170
-170
-170
-170
-170
-170
-170
-170
-170
-170
-170
-170
-170
-171
-171
-171
-171
-171
-171
-171
-171
-171
-171
-171
-171
-171
-171
-171
-171
-171
-171
-171
-171
-171
-171
-170
-170
-170
-170
-171
-171
-171
-171
-171
-171
-171
-170
-170
-171
-171
-172
-172
-172
-172
-172
-172
-172
-172
-172
-172
-173
-173
-173
-173
-173
-173
-173
-173
-173
-173
-173
-173
-173
-173
-173
-173
-173
-173
-173
-173
-173
-172
-172
-172
-172
-172
-172
-172
-173
-173
-173
-173
-173
-173
-173
-173
-173
-173
-173
-173
-173
-173
-173
-173
-173
-173
-173
-173
-173
-173
-173
-173
-173
-173
-173
-173
-173
-173
-173
-173
-173
-173
-173
-173
-173
-173
-173
-173
-173
-173
-173
-173
-174
-174
-174
-174
-173
-173
-173
-173
-173
-173
-173
-173
-173
-173
-173
-173
-173
-173
-173
-173
-173
-173
-172
-172
-172
-172
-172
-172
-172
-172
-172
-172
-172
-172
-172
-172
-172
-172
-172
-171
-171
-171
-172
-172
-171
-171
-172
-172
-172
-172
-172
-172
-172
-172
-172
-172
-172
-172
-172
-172
-172
-173
-173
-173
-173
-173
-173
-173
-173
-173
-173
-173
-173
-173
-173
-173
-173
-173
-173
-173
-173
-173
-173
-173
-173
-173
-173
-173
-173
-173
-172
-172
-172
-172
-172
-172
-172
-172
-172
-171
-172
-172
-172
-172
-172
-172
-172
-172
-172
-172
-172
-172
-172
-172
-172
-172
-171
-171
-171
-171
-172
-172
-172
-172
-172
-172
-172
-172
-172
-172
-172
-172
-172
-172
-172
-172
-172
-172
-172
-172
-172
-171
-171
-171
-171
-171
-171
-171
-170
-170
-170
-169
-169
-169
-169
-168
-168
-168
-167
-167
-166
-166
-166
-166
-166
-166
-166
-165
-165
-166
-166
-166
-166
-167
-167
-166
-167
-167
-168
-168
-168
-169
-169
-169
-169
-169
-170
-170
-170
-170
-169
-170
-170
-170
-169
-170
-170
-170
-170
-170
-170
-169
-170
-170
-170
-170
-169
-169
-169
-171
-171
-171
-171
-171
-171
-171
-171
-172
-172
-172
-172
-172
-172
-173
-173
-173
-173
-172
-172
-172
-173
-173
-173
-172
-172
-173
-173
-172
-172
-173
-172
-172
-172
-172
-172
-172
-172
-172
-173
-173
-173
-173
-173
-172
-173
-173
-173
-173
-173
-173
-173
-174
-174
-174
-174
-173
-173
-173
-173
-173
-173
-173
-172
-172
-172
-172
-172
-172
-172
-172
-171
-171
-171
-171
-171
-171
-171
-171
-171
-172
-172
-170
-170
-170
-168
-168
-167
-164
-162
-160
-157
-153
-150
-145
-141
-135
-128
-121
-114
-105
-96
-87
-77
-66
-55
-44
-33
-22
-12
-2
7
15
22
27
31
32
33
31
26
19
9
-2
-17
-34
-53
-74
-97
-122
-147
-173
-200
-227
-254
-280
-305
-329
-351
-370
-388
-403
-415
-426
-433
-438
-439
-439
-436
-429
-422
-413
-401
-389
-376
-362
-347
-333
-318
-303
-289
-275
-263
-250
-238
-228
-218
-210
-202
-195
-189
-183
-179
-174
-171
-168
-166
-163
-161
-161
-159
-158
-157
-156
-157
-156
-155
-156
-155
-155
-155
-155
-154
-154
-154
-154
-153
-154
-153
-153
-153
-153
-152
-152
-152
-151
-151
-150
-150
-150
-150
-149
-149
-149
-149
-148
-148
-148
-148
-147
-147
-147
-147
-147
-146
-146
-146
-146
-145
-145
-145
-144
-144
-144
-144
-143
-143
-143
-142
-142
-142
-141
-141
-141
-140
-140
-140
-139
-139
-139
-139
-138
-138
-138
-138
-138
-138
-138
-137
-137
-137
-137
-135
-135
-135
-135
-135
-135
-134
-134
-134
-133
-133
-132
-132
-132
-132
-132
-131
-131
-131
-131
-130
-129
-129
-129
-129
-128
-128
-128
-128
-127
-127
-127
-127
-127
-126
-126
-126
-125
-125
-125
-124
-123
-123
-123
-122
-122
-122
-121
-120
-120
-120
-119
-118
-118
-118
-118
-117
-117
-116
-116
-115
-115
-115
-115
-114
-114
-114
-114
-113
-113
-112
-111
-111
-111
-110
-110
-110
-109
-108
-107
-107
-107
-106
-105
-104
-104
-104
-103
-103
-103
-102
-101
-101
-100
-100
-100
-99
-98
-98
-98
-97
-96
-96
-96
-95
-95
-94
-94
-93
-92
-92
-92
-91
-90
-90
-90
-88
-88
-88
-87
-86
-86
-85
-85
-84
-83
-83
-83
-82
-82
-82
-81
-80
-80
-79
-79
-79
-79
-78
-78
-78
-78
-77
-76
-76
-76
-76
-76
-76
-75
-75
-75
-75
-75
-75
-75
-75
-75
-75
-75
-75
-75
-75
-75
-75
-74
-74
-74
-75
-75
-76
-77
-77
-77
-78
-77
-78
-78
-79
-79
-80
-81
-81
-82
-83
-84
-85
-86
-87
-88
-89
-90
-92
-93
-94
-95
-96
-97
-99
-101
-102
-103
-105
-106
-107
-108
-109
-112
-113
-114
-116
-117
-118
-119
-120
-122
-123
-123
-124
-126
-127
-128
-129
-130
-131
-132
-133
-134
-135
-136
-137
-138
-139
-139
-141
-141
-141
-142
-143
-144
-144
-145
-146
-146
-146
-147
-148
-148
-149
-149
-149
-151
-151
-151
-152
-152
-152
-153
-153
-154
-154
-154
-154
-155
-155
-156
-156
-156
-156
-156
-157
-157
-157
-157
-157
-157
-157
-157
-157
-157
-157
-158
-158
-158
-158
-158
-158
-158
-158
-158
-158
-158
-158
-158
-158
-158
-158
-158
-158
-158
-158
-158
-158
-158
-157
-157
-157
-157
-157
-157
-157
-157
-157
-158
-158
-158
-158
-158
-158
-158
-158
-158
-158
-158
-158
-158
-158
-158
-158
-158
-158
-158
-158
-158
-158
-158
-158
-158
-158
-158
-158
-157
-156
-156
-156
-156
-156
-156
-157
-157
-157
-157
-157
-156
-156
