# Simple Text Format
# Sampling Rate (Hz):= 1200.00
# Resolution:= 12
# Labels:= ECG	 V6
# Age:=	18
# Gender:=	Masculino
10
10
10
10
10
10
10
10
10
10
10
10
10
10
11
11
10
10
10
10
10
10
9
10
10
10
10
10
10
10
10
10
10
10
10
10
10
10
10
10
10
10
10
10
11
11
10
10
10
10
10
10
9
9
9
9
9
9
9
9
9
9
9
9
9
9
9
9
9
9
9
9
9
9
10
10
9
9
9
9
10
10
10
10
10
9
9
9
9
10
9
10
10
10
10
10
10
10
10
10
10
9
9
9
9
9
9
9
9
9
9
9
9
9
9
9
9
8
8
8
8
8
8
8
8
8
8
8
8
8
8
8
9
9
9
9
9
9
9
9
9
9
9
9
9
9
9
9
10
10
10
10
10
10
10
10
10
10
10
10
10
10
10
10
10
10
9
9
9
9
9
9
9
9
9
10
10
9
9
9
8
8
9
9
9
9
9
9
9
9
9
9
9
9
9
9
9
9
9
9
9
9
9
9
9
9
9
8
8
8
8
8
9
9
9
9
9
9
9
9
9
9
9
9
8
8
8
8
8
8
7
7
7
7
7
7
7
7
7
6
6
6
6
6
6
6
6
6
6
6
6
7
7
7
7
7
7
7
7
7
7
7
7
7
7
6
6
6
6
6
7
8
8
7
7
7
7
7
7
7
7
7
7
7
7
7
7
7
7
7
7
7
7
7
7
7
7
7
7
8
8
8
8
7
7
7
7
7
7
7
7
7
7
7
7
7
7
7
7
7
7
7
7
7
7
7
7
7
7
7
7
8
7
7
7
7
7
7
7
7
7
7
7
7
7
7
7
7
7
7
7
7
7
6
6
6
6
7
8
8
8
8
8
8
8
8
8
8
8
8
9
9
9
9
9
8
8
8
8
9
9
9
9
9
9
9
9
9
9
9
9
9
9
9
9
8
8
8
8
8
9
9
9
9
9
9
9
9
9
9
9
9
9
8
8
8
8
8
8
8
8
8
8
8
8
8
8
8
8
8
8
8
8
8
8
9
9
8
8
8
8
8
8
8
8
8
8
8
8
8
8
8
8
8
8
8
8
8
8
8
8
8
9
9
10
10
10
10
10
10
11
11
11
11
11
11
10
10
11
11
11
11
10
10
10
10
10
9
9
9
9
9
9
9
8
8
8
8
8
9
9
9
9
9
9
9
9
9
9
9
9
9
9
9
9
9
9
9
9
9
8
8
8
8
8
8
8
8
8
8
8
8
8
8
8
9
9
9
9
10
10
10
10
10
10
11
11
11
11
10
10
10
10
10
10
11
11
11
11
11
11
11
11
11
11
11
11
11
11
11
11
11
11
11
11
11
11
11
11
11
10
10
10
10
10
10
11
11
11
11
11
11
11
11
10
10
10
11
11
11
11
11
11
11
11
11
11
11
11
11
11
11
11
11
11
11
11
11
11
11
12
12
11
11
12
12
12
12
13
13
13
14
14
15
16
16
16
17
17
17
17
18
18
19
19
20
19
19
19
19
20
20
20
20
20
20
19
19
19
19
19
19
20
20
20
20
21
21
21
21
22
23
23
23
23
24
24
24
25
25
26
26
26
26
26
26
26
26
27
27
27
27
26
26
26
26
26
26
27
26
26
26
27
26
26
26
26
26
25
25
25
25
25
24
24
23
23
23
22
21
20
20
20
19
18
17
17
16
15
15
14
14
14
14
13
13
13
13
13
12
12
12
12
12
12
12
12
12
12
12
12
12
12
12
12
12
12
12
12
12
12
10
10
10
10
10
11
11
10
10
10
10
10
10
10
10
10
10
11
11
11
11
11
10
10
11
11
11
11
11
11
11
12
12
12
12
12
12
11
11
11
11
11
11
11
11
11
10
10
11
11
11
11
11
12
12
12
12
12
12
12
12
11
11
11
11
11
11
10
11
10
10
9
9
9
7
7
6
6
5
5
5
5
4
4
4
5
5
7
8
11
13
18
21
27
33
40
47
56
65
75
87
100
113
127
141
155
171
186
201
216
232
246
260
274
286
298
307
316
323
328
332
334
335
332
328
323
315
306
295
282
269
253
237
220
202
184
166
149
132
115
98
82
70
57
45
34
25
18
11
7
3
0
-2
-3
-3
-2
-1
1
3
5
8
10
12
14
16
18
19
21
21
22
23
23
24
24
24
24
23
23
23
23
22
21
21
20
20
20
19
19
19
19
19
19
19
18
18
18
18
18
18
18
18
19
19
19
19
19
19
19
19
19
19
19
20
20
20
20
20
20
21
21
20
20
20
20
20
20
22
22
22
22
22
22
22
22
22
22
22
22
22
22
23
23
23
23
23
23
23
24
24
24
24
24
24
25
25
25
25
25
25
25
25
25
25
25
25
25
26
26
26
26
26
26
26
26
26
26
26
27
27
27
27
28
28
28
28
28
28
28
28
28
28
28
29
29
30
30
30
30
30
30
30
31
31
31
31
32
33
33
33
33
33
33
33
34
34
34
34
34
34
35
35
35
35
35
35
35
35
35
35
35
35
37
37
37
37
37
37
38
38
38
38
38
39
39
39
39
39
39
40
41
41
41
41
41
41
42
42
43
43
44
44
44
44
45
45
46
46
47
47
48
48
48
49
49
50
50
51
51
51
52
52
52
53
53
53
53
55
55
55
56
56
56
57
58
58
58
59
59
61
61
62
62
63
64
65
65
66
67
68
69
69
70
71
72
73
74
76
76
77
79
79
80
81
83
83
84
85
86
87
88
89
89
91
92
93
94
95
96
98
98
100
101
102
104
105
105
107
108
110
111
112
112
114
115
117
117
118
119
120
121
122
123
124
124
126
126
127
128
128
130
130
130
132
132
132
133
133
134
134
134
134
135
135
135
135
135
135
134
134
133
133
132
131
131
130
129
128
126
125
124
123
121
120
117
116
114
113
110
109
106
105
103
100
99
97
94
93
91
89
87
85
83
81
78
77
75
72
71
69
67
66
63
61
59
57
55
54
52
50
48
47
45
43
41
40
39
37
35
35
33
32
31
30
29
28
27
26
25
24
23
23
21
21
20
19
18
18
16
16
15
14
14
13
12
12
11
11
11
11
10
10
10
9
8
8
8
7
7
7
7
7
7
7
7
6
6
6
6
5
6
6
6
6
6
5
5
5
5
5
4
5
5
5
5
5
5
5
5
4
3
3
3
3
3
3
3
3
3
3
3
3
3
3
3
3
3
3
3
3
3
3
3
3
3
3
3
3
3
3
3
4
4
4
4
4
4
4
4
4
3
3
3
3
3
4
4
4
4
4
4
3
3
3
3
3
4
4
4
4
4
4
4
4
4
5
5
5
5
5
5
5
5
5
4
4
4
4
4
4
3
3
3
3
3
3
3
3
3
3
3
3
3
3
4
4
4
4
4
4
4
4
4
4
4
4
4
4
4
4
4
4
4
4
4
4
4
4
4
3
3
3
3
3
3
3
3
2
2
2
2
2
2
2
2
2
2
1
1
1
1
0
0
0
1
1
0
0
0
0
0
0
0
0
0
0
0
0
0
0
0
0
0
1
1
1
1
1
1
1
1
1
1
1
1
0
0
0
0
0
0
0
0
0
-1
-1
-1
-1
-1
-1
0
-1
-1
-1
-1
-1
-1
-1
-2
-2
-2
-2
-1
-1
-1
-1
-1
-1
-2
-2
-2
-2
-2
-2
-2
-2
-2
-1
-1
-1
-1
-1
-2
-1
-1
-1
-1
-1
0
0
0
0
0
0
0
0
0
0
0
0
0
0
-1
-1
-1
-1
-1
-1
-1
-1
-2
-2
-2
-3
-3
-3
-3
-3
-2
-2
-2
-2
-3
-3
-3
-3
-3
-3
-3
-3
-3
-3
-3
-3
-3
-3
-3
-3
-2
-2
-2
-3
-3
-3
-2
-2
-2
-2
-2
-2
-2
-2
-2
-2
-2
-2
-2
-2
-2
-2
-2
-3
-3
-3
-3
-3
-3
-3
-3
-3
-3
-3
-4
-4
-4
-4
-4
-4
-4
-5
-5
-5
-5
-5
-5
-5
-5
-5
-4
-4
-4
-4
-4
-3
-3
-3
-3
-3
-3
-3
-3
-4
-4
-4
-4
-4
-4
-4
-4
-4
-4
-4
-5
-5
-5
-5
-5
-5
-5
-5
-5
-5
-5
-3
-3
-3
-3
-3
-3
-4
-4
-3
-3
-3
-3
-3
-3
-4
-4
-4
-3
-3
-4
-4
-4
-4
-4
-4
-4
-4
-4
-4
-4
-4
-4
-4
-5
-5
-5
-5
-4
-4
-4
-4
-4
-4
-4
-4
-4
-4
-4
-5
-5
-5
-5
-5
-5
-5
-5
-5
-5
-5
-5
-5
-5
-5
-5
-5
-5
-5
-5
-3
-4
-4
-4
-4
-4
-4
-4
-3
-3
-3
-3
-3
-2
-2
-2
-3
-3
-3
-3
-3
-3
-3
-3
-3
-3
-3
-3
-3
-3
-3
-3
-3
-3
-3
-3
-3
-3
-3
-3
-3
-2
-2
-2
-2
-2
-2
-2
-2
-2
-2
-3
-3
-3
-3
-3
-3
-3
-3
-3
-3
-3
-2
-2
-2
-3
-3
-3
-3
-2
-2
-2
-2
-2
-2
-2
-2
-2
-2
-2
-2
-2
-3
-3
-3
-3
-3
-3
-3
-3
-3
-3
-3
-2
-2
-2
-2
-2
-2
-2
-2
-2
-3
-3
-3
-3
-3
-3
-3
-2
-2
-2
-2
-3
-3
-2
-2
-2
-3
-3
-3
-3
-3
-2
-2
-2
-2
-2
-3
-3
-3
-3
-3
-3
-3
-3
-3
-3
-3
-2
-2
-2
-2
-2
-2
-2
-2
-2
-1
-1
-2
-2
-2
-2
-3
-3
-3
-2
-2
-2
-2
-2
-2
-2
-2
-2
-3
-3
-3
-3
-2
-2
-2
-2
-2
-2
-2
-2
-2
-2
-2
-1
-1
-1
-1
-2
-2
-2
-2
-2
-1
-1
-1
-1
0
-1
-1
0
0
0
1
1
1
2
2
2
3
3
3
3
4
4
4
4
4
4
4
5
4
4
4
4
4
4
4
5
5
5
5
5
5
5
5
6
7
7
7
7
8
8
9
9
10
10
10
11
11
11
11
11
11
11
11
11
12
12
12
12
12
12
12
12
11
11
12
11
11
11
11
11
11
11
11
10
10
9
9
10
9
9
8
8
8
6
6
6
5
4
4
3
3
1
2
0
0
-1
-1
-1
-2
-2
-2
-3
-3
-3
-3
-3
-4
-5
-5
-5
-5
-4
-4
-4
-4
-4
-4
-4
-4
-4
-4
-4
-4
-4
-4
-4
-4
-4
-5
-4
-4
-4
-4
-4
-4
-4
-4
-4
-4
-4
-4
-4
-4
-4
-4
-4
-4
-4
-4
-4
-5
-5
-5
-5
-5
-5
-5
-5
-5
-5
-5
-6
-6
-6
-6
-6
-6
-6
-6
-6
-6
-6
-6
-6
-6
-6
-6
-6
-7
-7
-7
-7
-7
-7
-7
-7
-6
-6
-7
-7
-7
-7
-7
-7
-8
-8
-8
-9
-9
-10
-9
-10
-10
-12
-12
-13
-13
-14
-14
-14
-15
-16
-16
-16
-16
-16
-15
-14
-12
-9
-6
-2
3
8
15
22
31
41
50
61
73
86
100
113
128
143
158
173
188
203
217
231
245
257
267
278
286
292
298
301
302
302
300
296
290
283
274
263
249
236
220
204
187
170
153
136
119
101
86
70
55
41
29
18
8
0
-8
-14
-19
-22
-25
-26
-26
-26
-26
-24
-22
-20
-18
-14
-12
-10
-7
-5
-2
0
1
2
2
5
5
6
6
7
7
6
7
7
6
5
5
4
4
3
2
2
2
1
1
1
0
0
0
0
0
0
-1
-1
-1
-1
-1
-1
-1
-1
-1
-1
-1
-1
-1
-1
-1
-1
-1
-1
-1
-1
-1
-1
-1
0
0
0
0
0
0
0
1
1
2
2
2
2
2
2
2
3
3
3
3
3
4
5
4
4
4
4
5
5
5
6
6
6
6
7
7
7
7
8
8
8
8
8
8
8
9
9
9
9
9
9
10
10
10
10
10
10
11
10
10
10
10
10
10
10
10
10
10
11
11
11
11
11
11
11
12
12
12
12
12
12
13
13
13
13
13
13
14
14
14
14
14
14
15
15
15
15
15
15
15
15
15
15
17
17
17
17
17
18
18
19
19
19
19
19
19
20
20
20
20
21
21
22
22
22
23
23
24
24
25
25
26
26
26
26
27
28
28
28
28
28
28
29
30
30
30
30
30
30
30
31
32
32
32
32
32
33
33
33
35
35
35
35
37
37
38
38
38
40
40
40
42
42
43
43
44
44
45
46
46
47
47
49
50
50
51
52
53
53
54
56
56
57
57
59
60
60
61
63
63
64
65
67
67
68
69
71
72
72
73
75
76
77
79
80
80
81
83
84
85
87
88
88
90
91
92
94
95
96
98
99
99
100
102
103
104
106
107
107
109
110
112
112
113
115
115
116
117
117
118
119
120
120
120
121
120
120
121
121
120
121
121
120
121
120
120
119
119
118
117
117
116
115
113
112
111
110
109
107
106
105
104
101
100
99
96
95
92
91
88
87
85
83
81
79
77
75
73
71
69
67
65
63
61
58
56
55
53
50
48
46
44
42
40
39
36
34
32
30
29
27
26
25
23
21
20
18
18
16
15
14
12
11
10
9
8
7
6
5
5
4
3
3
1
1
1
0
-1
-1
-1
-2
-3
-3
-3
-3
-5
-5
-5
-5
-5
-6
-6
-6
-6
-7
-7
-8
-8
-8
-8
-8
-8
-8
-8
-8
-8
-9
-9
-9
-9
-9
-10
-10
-10
-10
-10
-10
-10
-10
-10
-10
-10
-10
-10
-10
-10
-11
-11
-11
-11
-11
-11
-11
-11
-11
-11
-11
-11
-11
-11
-11
-11
-11
-11
-11
-11
-11
-11
-11
-11
-11
-11
-11
-11
-11
-11
-11
-11
-11
-11
-11
-11
-11
-11
-11
-11
-11
-11
-11
-11
-11
-11
-10
-10
-10
-10
-10
-10
-10
-10
-10
-10
-10
-10
-10
-10
-10
-10
-10
-10
-10
-10
-10
-10
-10
-11
-11
-11
-11
-10
-10
-10
-10
-11
-11
-11
-11
-11
-11
-11
-11
-10
-10
-10
-10
-10
-10
-10
-11
-11
-11
-11
-11
-11
-11
-11
-11
-11
-11
-11
-11
-11
-11
-11
-11
-11
-11
-11
-11
-11
-11
-11
-11
-11
-11
-11
-11
-11
-10
-11
-11
-11
-11
-11
-12
-12
-12
-12
-12
-12
-12
-12
-12
-12
-12
-12
-12
-12
-11
-12
-12
-12
-12
-12
-12
-12
-12
-12
-12
-12
-12
-12
-12
-12
-13
-13
-12
-12
-12
-12
-12
-12
-13
-13
-13
-13
-14
-14
-14
-14
-13
-14
-14
-14
-14
-15
-15
-15
-15
-15
-15
-15
-15
-15
-15
-15
-15
-15
-15
-15
-15
-15
-15
-14
-14
-14
-14
-14
-15
-15
-15
-15
-15
-15
-15
-15
-15
-15
-15
-15
-15
-15
-15
-15
-15
-15
-15
-14
-15
-15
-15
-15
-15
-15
-15
-15
-15
-16
-16
-16
-16
-16
-16
-17
-17
-17
-17
-17
-17
-17
-17
-17
-17
-17
-17
-17
-17
-17
-17
-17
-16
-16
-16
-16
-16
-16
-16
-16
-16
-16
-16
-16
-16
-15
-15
-15
-15
-15
-15
-15
-15
-15
-15
-15
-15
-15
-15
-16
-16
-16
-16
-16
-16
-16
-16
-16
-16
-16
-16
-16
-16
-16
-16
-16
-16
-16
-16
-16
-16
-16
-16
-16
-16
-16
-16
-16
-16
-16
-16
-16
-16
-16
-16
-16
-16
-16
-16
-16
-16
-16
-16
-16
-16
-16
-16
-16
-16
-15
-15
-15
-15
-15
-15
-15
-15
-15
-15
-15
-15
-15
-15
-15
-15
-15
-15
-15
-15
-15
-15
-15
-15
-14
-14
-14
-14
-14
-14
-14
-14
-14
-14
-14
-14
-15
-15
-15
-15
-15
-15
-14
-14
-14
-14
-14
-14
-14
-14
-14
-14
-14
-14
-14
-14
-14
-14
-13
-13
-13
-14
-14
-13
-13
-13
-13
-14
-14
-14
-14
-14
-14
-14
-14
-13
-13
-14
-14
-15
-13
-13
-13
-13
-13
-13
-13
-13
-13
-13
-13
-13
-13
-13
-13
-13
-13
-13
-13
-13
-13
-13
-13
-13
-13
-13
-13
-13
-13
-12
-12
-12
-12
-12
-12
-12
-12
-12
-12
-12
-12
-12
-12
-12
-12
-12
-12
-12
-12
-12
-12
-12
-11
-11
-11
-11
-11
-12
-12
-12
-12
-12
-12
-12
-11
-11
-11
-11
-11
-11
-11
-11
-11
-11
-11
-11
-11
-11
-11
-11
-11
-10
-10
-10
-10
-10
-10
-10
-10
-10
-10
-10
-10
-10
-10
-10
-10
-10
-10
-10
-10
-10
-10
-10
-10
-10
-10
-10
-10
-10
-10
-10
-10
-10
-10
-10
-10
-10
-10
-10
-10
-10
-10
-10
-10
-10
-10
-10
-10
-9
-9
-9
-8
-8
-8
-8
-8
-8
-8
-9
-9
-9
-9
-9
-8
-8
-8
-8
-8
-7
-7
-7
-6
-6
-5
-4
-4
-4
-3
-3
-3
-2
-2
-1
-1
-1
0
0
0
0
0
0
0
1
1
1
1
1
1
1
1
1
1
1
2
2
2
2
2
2
2
2
3
3
4
4
5
5
6
6
6
7
7
7
7
7
9
9
9
8
8
8
9
9
9
9
9
9
9
10
9
9
9
9
9
9
9
8
8
9
9
9
9
9
8
8
8
7
7
7
6
6
6
5
5
4
3
3
3
2
2
2
0
0
0
0
-1
-1
-1
-1
-2
-2
-3
-3
-3
-3
-3
-4
-4
-4
-3
-3
-3
-3
-3
-3
-3
-3
-3
-3
-3
-3
-3
-3
-3
-3
-3
-3
-3
-4
-4
-3
-3
-3
-3
-3
-3
-3
-4
-4
-4
-4
-4
-4
-4
-4
-4
-4
-4
-4
-4
-4
-4
-4
-4
-3
-3
-3
-3
-4
-4
-4
-4
-4
-4
-4
-4
-4
-4
-4
-4
-4
-4
-4
-4
-3
-3
-3
-3
-3
-3
-3
-3
-3
-2
-2
-2
-2
-2
-2
-2
-3
-3
-3
-3
-3
-4
-3
-4
-4
-5
-5
-5
-5
-5
-6
-6
-7
-7
-8
-9
-9
-10
-10
-10
-9
-8
-7
-5
-2
0
4
8
14
20
27
36
45
55
66
78
91
104
119
132
147
163
178
193
208
222
237
250
264
275
286
294
302
308
313
316
317
316
313
308
302
294
284
272
259
245
229
213
195
178
161
143
126
109
94
78
63
50
37
26
17
9
2
-4
-8
-12
-14
-15
-15
-15
-14
-12
-10
-8
-6
-3
0
1
3
6
7
9
10
11
12
12
13
13
13
13
13
13
12
13
13
13
12
11
12
11
11
10
10
10
9
9
9
9
9
8
8
8
8
8
8
8
8
8
9
10
9
9
9
10
10
11
11
11
11
12
12
12
12
12
12
12
12
13
13
13
13
13
13
13
13
13
13
13
13
14
14
14
14
14
15
15
15
15
16
16
16
16
16
16
16
17
17
17
17
17
17
17
18
18
18
18
18
18
18
18
18
18
18
18
18
19
20
20
20
20
20
20
20
20
20
21
21
21
21
21
21
22
23
23
23
23
23
23
23
23
23
23
23
23
24
24
24
25
25
25
26
26
26
26
26
27
27
27
27
28
28
28
28
29
30
30
30
30
30
31
31
31
31
32
32
33
33
33
33
34
34
34
34
34
35
35
35
35
35
35
37
37
37
37
38
38
38
38
39
40
39
40
40
41
41
41
41
41
42
43
43
43
44
44
45
45
45
46
46
47
47
48
49
49
50
50
51
51
52
53
53
54
54
55
56
56
57
58
59
59
60
61
61
63
64
64
65
66
66
68
69
69
71
72
72
74
74
75
76
77
77
79
79
81
82
82
83
84
85
86
88
89
90
90
91
92
94
95
96
97
98
100
101
102
103
104
105
107
108
108
110
111
112
113
115
115
116
118
118
119
121
121
122
123
124
125
126
126
128
128
129
130
131
131
132
134
134
134
135
135
136
137
137
137
138
138
137
137
137
138
138
137
137
136
135
135
134
133
132
131
130
128
127
126
124
123
121
120
118
116
114
112
111
108
107
104
103
100
98
97
94
92
90
88
86
83
81
80
77
75
73
71
70
68
66
64
62
61
59
57
55
53
51
50
48
46
44
44
43
41
40
39
38
36
35
34
33
32
30
30
29
28
27
26
25
25
23
23
22
21
21
20
19
19
19
17
17
17
17
17
15
15
15
15
15
15
14
14
14
14
13
13
13
13
12
12
12
12
12
12
11
11
11
12
12
12
12
12
12
12
12
12
12
12
12
12
12
12
12
11
11
11
11
11
10
10
10
10
10
10
10
10
10
10
10
10
10
10
10
10
10
10
10
10
10
9
9
9
9
9
10
10
10
10
10
9
9
9
9
9
9
9
9
10
10
10
10
10
10
11
11
11
11
11
11
11
11
12
12
12
12
12
12
12
12
12
12
12
12
12
11
11
11
11
11
11
11
11
11
11
11
11
11
11
12
12
13
13
12
12
12
12
12
12
12
12
12
12
12
12
12
12
12
12
12
12
12
11
11
11
12
12
12
12
12
12
12
12
12
12
12
12
12
12
12
11
11
11
11
11
11
11
11
11
11
11
11
11
11
11
11
11
10
10
10
10
10
10
10
10
10
10
10
9
9
9
9
9
9
9
9
10
9
9
9
9
9
9
9
9
10
10
10
10
9
9
9
9
9
9
9
9
9
9
9
9
9
9
9
9
9
8
8
8
8
8
8
8
8
8
8
8
8
8
8
8
8
8
9
9
9
9
9
9
9
9
9
9
9
9
9
9
9
9
9
9
9
9
9
9
9
9
9
9
9
9
9
8
8
8
8
8
8
8
8
8
8
8
8
8
8
8
8
8
7
7
7
7
7
7
7
7
7
7
7
7
7
7
8
7
7
7
7
7
7
7
7
7
7
8
8
8
8
8
9
9
9
9
9
8
10
10
10
10
10
10
10
10
10
10
9
9
9
10
10
10
10
10
9
9
9
9
9
9
9
9
8
8
8
8
8
8
8
8
8
8
9
9
9
9
9
9
9
9
9
9
9
9
10
10
10
10
10
10
9
9
9
9
9
10
10
10
10
10
10
10
10
10
10
10
10
10
11
11
11
11
11
11
11
11
11
11
11
11
11
11
10
10
10
11
11
11
11
11
11
11
11
11
11
11
11
11
11
11
11
11
11
10
10
10
10
10
10
10
10
10
10
10
10
9
9
9
9
9
9
9
9
9
9
9
9
9
9
9
9
10
10
10
10
10
10
10
10
10
10
10
10
10
10
10
10
10
10
11
11
11
11
11
11
11
11
11
11
11
11
11
11
11
11
11
11
11
11
11
11
11
11
11
11
11
11
11
11
10
10
10
10
10
10
10
10
10
10
9
9
9
9
9
10
10
10
10
10
9
9
9
10
10
10
10
10
10
10
10
10
10
10
10
10
10
10
10
10
10
10
9
10
10
10
10
10
10
10
10
10
10
10
10
10
10
10
10
10
10
10
10
10
9
9
10
10
10
10
10
10
10
10
10
10
10
10
10
10
9
9
9
9
9
9
9
10
10
10
10
9
9
9
9
9
9
9
9
9
9
9
9
9
9
9
9
9
9
9
10
10
10
10
10
10
9
10
10
10
10
10
10
10
11
11
11
11
11
11
11
11
11
11
11
10
10
10
10
11
11
11
10
10
10
10
10
10
10
8
8
8
8
8
8
8
8
8
8
9
9
8
8
8
8
8
8
8
8
8
8
8
8
8
9
9
9
9
9
9
9
9
9
9
10
10
10
9
9
9
9
9
9
9
9
9
9
9
8
9
10
10
10
10
10
11
11
11
12
12
12
12
14
13
13
14
14
14
15
15
15
16
16
16
16
16
17
17
16
16
17
17
17
17
17
17
17
17
17
17
17
17
17
17
16
17
17
17
17
17
17
17
17
18
19
19
20
20
20
20
21
22
22
22
22
22
22
23
23
23
23
24
23
23
23
23
23
23
23
23
23
23
23
23
23
22
22
22
23
22
22
22
20
20
20
19
19
17
17
17
17
15
15
15
13
13
13
12
11
10
10
10
10
8
8
8
8
8
8
8
6
6
6
6
6
7
7
7
7
7
7
7
7
7
7
7
6
7
7
7
7
7
7
7
7
7
7
7
7
7
7
7
6
6
6
6
6
6
6
6
6
6
6
6
6
6
6
6
6
6
6
6
6
6
6
6
6
6
6
6
6
6
6
6
6
6
7
8
8
8
8
8
8
8
8
8
8
8
8
8
8
8
8
7
7
7
7
7
7
7
6
7
6
6
5
5
5
5
4
3
3
2
2
1
1
0
0
0
-1
0
-1
-1
0
1
2
4
6
9
13
17
23
28
35
42
51
61
70
82
95
107
122
135
149
164
179
194
209
224
238
253
266
277
288
298
307
313
318
321
322
322
320
316
310
302
293
282
269
255
240
224
206
190
172
154
137
120
104
89
74
60
47
37
26
17
10
4
-1
-5
-7
-9
-9
-9
-8
-7
-5
-4
-1
1
3
5
7
9
9
11
12
14
14
15
15
16
17
17
17
16
16
16
15
15
14
15
14
14
14
13
13
13
12
13
13
13
12
12
13
13
13
13
13
12
13
13
13
14
14
14
14
13
13
13
13
13
13
12
12
13
13
13
13
13
13
13
14
14
14
14
14
14
14
15
14
14
14
14
15
15
15
15
15
15
15
16
16
16
16
16
16
17
17
17
17
17
17
18
18
17
18
18
18
18
18
18
18
18
18
18
20
20
20
19
19
20
20
20
20
21
21
21
21
21
21
21
21
21
22
22
22
23
23
23
24
24
24
24
24
24
25
25
25
25
26
27
27
27
27
27
28
28
28
29
29
29
30
30
30
30
30
30
31
31
31
32
32
32
32
32
32
32
32
32
32
32
32
32
33
33
33
34
34
34
34
35
35
35
35
35
36
37
37
37
38
38
38
39
39
39
39
40
40
40
40
41
41
41
41
42
42
42
43
43
44
45
45
45
45
46
46
48
48
48
49
49
49
50
51
51
52
52
53
54
55
55
56
56
57
58
59
59
61
62
62
63
64
65
66
67
67
68
70
70
71
72
73
74
74
75
77
77
78
79
79
80
82
83
83
84
85
86
87
88
90
90
91
93
93
94
94
96
97
98
99
100
101
102
103
104
105
106
107
109
109
110
111
112
113
114
115
116
117
119
119
120
120
122
122
123
124
124
126
126
127
127
128
128
129
129
130
130
130
130
131
131
131
130
130
130
130
130
129
129
128
127
126
126
125
124
123
122
120
119
118
116
115
114
112
110
108
107
105
104
101
99
97
95
93
91
89
87
85
82
80
78
76
74
72
70
67
66
64
62
59
57
56
54
51
50
48
46
45
43
41
40
38
37
36
34
33
32
31
30
28
28
26
25
24
24
22
22
21
20
20
18
18
17
17
15
15
14
14
13
13
13
13
12
12
12
11
10
10
10
10
10
10
10
8
8
8
8
8
8
8
7
7
6
6
6
6
6
5
5
5
5
5
5
5
4
4
4
4
4
4
3
3
4
4
4
4
4
4
4
3
3
3
3
3
3
3
3
3
4
4
4
4
4
4
4
4
4
4
4
4
4
4
4
5
5
4
4
5
5
5
5
5
5
5
5
5
5
5
5
5
5
5
5
5
4
4
4
4
4
5
5
5
5
5
5
4
4
4
4
4
3
3
4
4
4
3
3
3
3
3
3
2
2
2
2
3
3
3
3
3
3
3
3
3
3
3
3
3
2
2
2
2
2
2
3
3
3
3
2
2
2
2
2
2
2
3
3
3
3
3
2
2
2
2
2
2
2
2
2
2
2
1
1
1
1
1
1
1
1
0
0
0
0
0
0
0
0
0
0
0
0
0
0
0
0
0
0
-1
-1
-1
-1
-2
-2
-2
-2
-2
-2
-2
-1
-2
-2
-2
-2
-2
-2
-2
-2
-2
-2
-2
-2
-2
-2
-2
-2
-2
-3
-3
-3
-3
-3
-2
-2
-2
-2
-2
-2
-2
-2
-2
-2
-2
-2
-1
-1
-1
-1
-1
-1
-1
-1
-1
-1
-2
-2
-2
-2
-2
-3
-3
-3
-3
-3
-3
-3
-3
-3
-3
-3
-3
-3
-3
-3
-2
-2
-2
-2
-2
-2
-3
-3
-3
-3
-3
-3
-3
-4
-4
-4
-4
-4
-5
-5
-5
-5
-5
-5
-6
-5
-5
-5
-5
-5
-4
-4
-4
-4
-3
-3
-3
-4
-3
-3
-3
-3
-3
-3
-3
-3
-2
-2
-2
-2
-2
-2
-2
-3
-3
-3
-3
-3
-3
-4
-4
-3
-3
-3
-3
-4
-4
-4
-5
-5
-5
-5
-5
-5
-5
-5
-6
-6
-6
-6
-6
-6
-6
-6
-6
-6
-5
-5
-5
-5
-5
-5
-5
-5
-5
-5
-5
-5
-5
-5
-5
-5
-5
-5
-5
-5
-5
-5
-5
-5
-5
-5
-5
-5
-5
-5
-5
-5
-5
-5
-5
-5
-5
-5
-5
-6
-6
-6
-6
-6
-6
-6
-6
-6
-6
-6
-6
-6
-6
-6
-6
-6
-6
-6
-6
-6
-6
-6
-6
-6
-6
-6
-6
-6
-6
-6
-5
-5
-5
-5
-5
-5
-5
-6
-6
-6
-6
-6
-7
-7
-7
-7
-6
-6
-6
-6
-6
-6
-6
-6
-6
-6
-6
-6
-6
-6
-6
-6
-5
-5
-5
-5
-5
-5
-5
-6
-6
-6
-6
-6
-6
-6
-6
-6
-6
-6
-6
-6
-6
-6
-6
-6
-6
-6
-6
-6
-6
-7
-6
-6
-6
-6
-6
-6
-6
-6
-7
-7
-7
-7
-7
-7
-7
-6
-6
-6
-6
-6
-6
-6
-6
-6
-7
-7
-7
-7
-7
-7
-7
-7
-7
-7
-7
-7
-8
-8
-8
-8
-8
-8
-8
-8
-8
-8
-8
-7
-7
-7
-6
-6
-6
-6
-6
-6
-6
-6
-6
-6
-6
-7
-7
-7
-7
-7
-7
-7
-7
-7
-7
-7
-8
-8
-9
-9
-9
-9
-9
-9
-9
-9
-9
-9
-9
-9
-9
-9
-9
-8
-8
-8
-8
-8
-8
-8
-7
-7
-7
-7
-7
-7
-7
-7
-7
-7
-7
-7
-7
-7
-7
-7
-7
-7
-7
-7
-7
-7
-7
-7
-7
-7
-7
-8
-8
-8
-8
-8
-8
-9
-9
-9
-9
-8
-8
-8
-9
-9
-9
-8
-8
-8
-8
-8
-8
-8
-8
-8
-8
-8
-8
-8
-7
-7
-7
-7
-6
-6
-6
-6
-6
-7
-7
-7
-7
-7
-7
-7
-7
-7
-7
-7
-7
-7
-6
-6
-6
-6
-6
-5
-6
-6
-6
-6
-5
-5
-5
-5
-5
-4
-4
-4
-4
-3
-3
-3
-2
-2
-1
-1
-1
0
0
1
0
0
1
1
1
1
2
2
2
2
2
2
2
2
2
2
2
2
3
3
3
4
4
4
4
4
4
6
6
6
6
6
7
7
7
7
8
8
8
8
9
9
9
9
9
9
9
10
10
10
9
10
10
10
10
10
10
11
10
10
11
10
10
10
10
10
9
9
8
8
8
7
6
6
5
5
4
3
3
2
2
1
0
0
0
-1
-2
-3
-3
-3
-4
-4
-4
-4
-4
-4
-6
-6
-6
-6
-6
-6
-6
-5
-5
-5
-5
-5
-6
-6
-6
-6
-6
-6
-6
-6
-6
-6
-7
-7
-7
-7
-7
-7
-7
-7
-7
-7
-7
-7
-7
-7
-7
-7
-6
-6
-6
-6
-6
-6
-6
-6
-6
-6
-6
-7
-7
-7
-7
-7
-7
-8
-8
-7
-7
-7
-7
-7
-7
-7
-7
-7
-7
-7
-7
-7
-7
-7
-6
-6
-6
-6
-6
-6
-7
-6
-6
-6
-6
-6
-6
-6
-7
-7
-7
-7
-7
-7
-7
-8
-8
-8
-9
-9
-10
-10
-11
-11
-11
-12
-12
-13
-13
-14
-15
-15
-15
-15
-14
-14
-13
-11
-9
-6
-2
3
8
15
22
31
40
50
61
73
86
100
114
129
144
158
173
189
203
218
232
245
257
269
279
287
294
299
302
304
303
301
298
293
285
276
265
252
237
222
206
189
171
154
137
120
102
87
71
57
43
30
19
9
0
-7
-13
-17
-21
-23
-25
-25
-25
-23
-22
-20
-18
-16
-12
-10
-7
-5
-3
-1
1
3
4
5
6
7
8
8
8
9
8
8
8
7
7
7
6
5
5
4
4
4
3
3
3
3
2
2
2
2
2
2
2
2
2
2
2
3
3
3
3
4
4
4
5
5
5
5
5
5
5
5
6
6
6
6
6
6
6
6
6
7
7
7
7
7
8
8
8
8
8
8
8
8
8
10
10
10
9
9
10
10
10
10
10
11
11
11
11
11
11
12
12
12
12
12
12
12
14
14
14
14
14
14
14
14
14
14
14
14
14
15
15
15
15
15
15
15
15
15
15
15
16
16
17
17
17
17
17
17
17
17
18
18
18
18
19
19
19
19
19
19
19
19
19
19
20
20
20
20
20
22
22
22
22
22
22
23
23
23
23
24
24
24
24
25
25
25
25
26
26
26
26
27
28
28
28
28
28
28
29
30
30
30
30
30
31
31
31
32
32
32
33
33
33
33
34
34
34
35
35
36
36
36
36
37
37
37
38
38
38
39
40
41
41
41
42
42
44
44
44
45
45
47
47
48
48
50
50
51
51
52
53
54
54
55
56
57
57
58
59
60
60
61
62
63
63
65
66
66
67
68
69
70
71
72
73
74
75
76
76
77
79
80
80
82
83
85
85
86
88
89
91
91
92
94
95
96
97
98
100
101
102
104
104
105
106
107
109
109
111
112
112
113
114
115
116
116
118
118
119
120
120
121
122
122
123
124
124
125
125
125
126
126
126
126
126
126
126
126
126
126
125
125
124
124
123
122
122
121
120
119
118
117
115
114
112
111
110
107
106
104
101
100
98
96
94
92
90
87
86
83
81
79
77
74
73
71
68
66
64
62
60
58
56
53
51
50
48
46
44
42
41
39
37
35
35
33
32
30
28
28
26
24
24
23
21
20
19
18
17
16
16
14
14
13
12
11
11
11
9
9
9
8
7
7
6
6
6
5
5
4
4
4
4
3
3
2
2
2
2
1
0
0
0
0
0
0
0
-1
-1
-1
-1
-1
-1
-1
-1
-1
-1
-1
-1
-1
-1
-1
-1
-1
-2
-2
-2
-2
-2
-2
-2
-2
-2
-2
-2
-2
-2
-3
-3
-3
-2
-2
-3
-3
-3
-3
-3
-2
-2
-2
-2
-2
-1
-1
-1
-1
-2
-2
-2
-2
-2
-2
-2
-2
-2
-2
-2
-2
-1
-1
-1
-1
-1
-1
-1
-1
-1
-1
-1
-1
-1
-1
-1
-1
0
0
0
0
0
0
0
0
0
0
0
0
0
0
0
0
0
0
0
0
0
0
-1
-1
-1
0
0
-1
-1
-1
-1
-1
-1
-1
-1
-1
-1
-1
-1
-1
-1
-1
-2
-2
-2
-2
-2
-2
-2
-2
-3
-3
-3
-3
-2
-2
-2
-2
-2
-3
-3
-3
-3
-3
-3
-3
-4
-4
-4
-4
-4
-4
-4
-4
-4
-4
-4
-4
-4
-4
-3
-3
-3
-3
-3
-3
-3
-3
-4
-4
-4
-4
-4
-4
-4
-4
-4
-4
-4
-4
-4
-5
-5
-5
-5
-5
-5
-5
-5
-5
-5
-5
-5
-5
-5
-5
-5
-5
-5
-5
-5
-5
-5
-5
-5
-5
-5
-5
-5
-5
-5
-5
-4
-4
-5
-5
-5
-5
-6
-6
-6
-6
-6
-6
-6
-5
-5
-5
-5
-5
-5
-5
-5
-5
-4
-4
-4
-4
-4
-4
-4
-4
-5
-5
-5
-5
-5
-5
-5
-5
-5
-5
-5
-5
-5
-5
-5
-5
-5
-5
-6
-6
-6
-6
-6
-6
-6
-6
-5
-5
-5
-4
-4
-4
-4
-4
-4
-5
-5
-5
-5
-5
-4
-4
-4
-4
-4
-4
-5
-5
-5
-4
-4
-4
-5
-5
-5
-5
-4
-4
-4
-4
-4
-5
-5
-5
-5
-5
-5
-5
-5
-5
-5
-5
-5
-5
-5
-5
-6
-6
-5
-5
-5
-4
-4
-4
-4
-4
-4
-4
-4
-5
-4
-4
-4
-4
-4
-4
-4
-3
-3
-3
-3
-3
-3
-3
-3
-3
-3
-3
-3
-3
-3
-3
-3
-3
-3
-3
-3
-3
-3
-3
-3
-3
-3
-3
-2
-2
-3
-3
-3
-3
-3
-3
-3
-3
-3
-3
-3
-3
-3
-3
-3
-3
-3
-3
-4
-4
-4
-5
-4
-4
-4
-4
-4
-4
-4
-4
-4
-4
-4
-4
-4
-4
-4
-4
-4
-4
-4
-3
-3
-3
-3
-3
-3
-3
-3
-4
-4
-4
-4
-4
-4
-4
-4
-4
-4
-4
-3
-3
-3
-3
-3
-3
-4
-4
-4
-4
-4
-4
-4
-4
-3
-3
-3
-3
-3
-3
-3
-3
-3
-3
-3
-3
-3
-3
-3
-3
-3
-3
-3
-3
-3
-4
-3
-3
-3
-3
-3
-3
-3
-4
-4
-4
-4
-4
-4
-4
-4
-4
-4
-4
-4
-4
-4
-3
-3
-3
-3
-4
-4
-4
-4
-4
-4
-4
-4
-4
-4
-4
-3
-3
-3
-3
-3
-3
-3
-3
-3
-3
-3
-4
-4
-4
-4
-4
-3
-3
-3
-3
-3
-3
-4
-4
-4
-4
-4
-4
-4
-4
-4
-4
-4
-4
-4
-4
-4
-4
-4
-4
-4
-4
-4
-4
-4
-4
-4
-4
-4
-4
-3
-3
-3
-2
-2
-3
-3
-3
-3
-3
-3
-3
-3
-2
-2
-2
-3
-3
-3
-3
-3
-2
-2
-2
-2
-2
-2
-2
-2
-2
-2
-2
-2
-2
-2
-2
-2
-2
-2
-2
-3
-3
-3
-3
-3
-3
-2
-2
-2
-2
-2
-2
-2
-2
-2
-2
-2
-2
-2
-2
-2
-2
-2
-1
-1
-1
-1
-1
-2
-2
-2
-2
-1
-1
-1
-1
-1
-1
-1
-1
-1
-1
-1
-1
-1
-1
-1
-1
-1
-1
-1
-1
-1
-1
-1
-1
-1
-2
-2
-2
-2
-1
-1
-1
-1
-1
-1
-1
-1
0
0
0
1
1
1
1
1
1
3
3
3
3
4
4
4
5
6
6
7
7
7
8
8
8
8
8
8
9
9
8
8
9
9
8
9
9
8
8
8
8
8
8
8
8
8
8
8
8
8
9
9
9
10
10
10
11
11
11
11
12
13
13
14
14
14
14
14
15
15
15
15
15
15
15
15
15
16
16
16
15
15
16
15
15
15
15
14
15
15
15
14
14
14
14
14
13
13
13
12
12
12
12
11
10
9
9
9
8
8
7
7
6
5
5
5
4
4
4
3
3
3
3
2
2
2
2
2
2
1
1
1
1
1
1
1
1
1
1
1
1
1
1
1
1
0
-1
-1
-1
0
0
0
0
0
0
0
0
0
0
0
0
0
-1
-1
1
1
0
0
0
0
0
0
-1
-1
-1
-1
-1
-1
-1
0
0
-1
-1
-1
-1
-1
-1
0
0
0
0
0
0
0
0
0
0
0
0
0
0
1
1
1
1
1
1
1
1
1
1
1
1
1
1
1
1
0
0
0
0
-1
-1
-1
-3
-3
-3
-4
-4
-5
-6
-7
-7
-7
-7
-7
-6
-6
-4
-3
1
4
7
12
17
22
29
37
45
54
65
76
89
102
115
130
144
159
174
189
204
220
234
248
262
274
285
296
304
312
317
321
322
322
321
318
313
306
296
286
272
259
243
227
211
193
176
157
140
122
106
89
75
61
47
35
25
16
8
1
-5
-9
-11
-13
-14
-15
-14
-12
-11
-9
-8
-5
-2
0
2
2
4
7
8
10
11
12
12
13
13
13
13
12
12
12
12
11
10
10
10
9
8
8
7
7
7
7
6
6
6
5
6
6
6
6
6
6
6
6
6
6
6
6
6
6
6
6
6
6
7
7
7
7
7
7
7
7
7
8
8
8
8
9
9
9
8
9
9
9
10
10
11
11
11
11
11
11
11
11
12
12
12
11
11
11
11
11
11
12
12
12
12
12
12
12
12
13
13
13
13
12
12
12
13
13
13
13
13
13
14
14
14
14
15
15
15
15
15
15
16
16
16
16
16
17
17
17
17
18
18
18
18
18
19
20
20
20
20
21
21
21
21
21
21
21
22
22
22
22
22
22
23
23
23
22
22
22
22
22
22
22
22
23
24
24
24
24
24
24
24
25
25
25
25
26
26
26
26
27
27
27
28
28
28
28
29
29
30
30
30
30
30
32
32
32
32
32
33
33
33
34
34
35
35
35
36
36
37
37
38
38
38
38
39
40
40
41
41
41
42
43
43
44
44
45
45
45
47
47
47
48
48
49
49
51
51
52
52
53
54
55
56
56
58
58
60
61
61
62
64
65
65
66
68
69
70
70
72
73
74
74
76
77
78
79
80
81
82
83
84
85
86
87
88
90
90
92
93
94
95
96
97
99
100
101
102
103
105
105
107
108
108
110
111
112
113
113
114
115
116
116
117
118
118
119
120
120
121
121
122
123
124
124
124
124
125
126
126
125
126
126
126
126
126
125
125
124
123
123
122
121
120
119
118
116
115
114
112
111
108
107
105
104
102
101
98
97
95
93
91
90
87
85
84
82
79
78
76
74
72
69
68
66
64
62
59
58
56
54
52
49
48
46
44
42
41
39
38
36
35
34
32
31
29
28
27
25
25
23
22
21
20
18
18
16
16
14
14
13
13
12
11
11
10
10
9
8
8
8
8
7
6
6
6
5
5
5
5
5
4
3
3
3
3
3
2
2
2
2
1
1
1
1
1
1
1
1
1
0
0
0
0
0
0
0
0
0
0
0
-1
-1
-1
-1
-1
-1
-1
-1
-1
-1
-1
-1
-2
-2
-2
-2
-2
-2
-2
-2
-2
-2
-2
-2
-2
-2
-2
-2
-2
-2
-1
-1
-2
-2
-2
-2
-2
-2
-2
-2
-2
-2
-2
-2
-2
-2
-1
-1
-1
-1
-2
-2
-1
-1
-1
-1
-1
-1
-1
-1
0
0
0
0
0
0
0
0
-1
0
0
0
0
0
0
0
0
0
0
1
1
1
1
1
1
1
1
1
1
1
1
1
1
1
1
1
1
1
1
1
1
1
1
1
1
1
0
0
0
0
0
0
0
0
0
0
0
0
-1
-1
-1
-1
-1
-1
-1
-1
-1
-1
-1
-1
-1
-1
-1
-1
-1
-1
-1
-1
-1
-1
-1
-1
-1
-1
-1
-1
-1
-1
-1
-3
-3
-3
-3
-3
-3
-3
-3
-3
-3
-3
-3
-3
-3
-3
-3
-3
-3
-3
-3
-3
-3
-3
-3
-4
-4
-4
-4
-4
-4
-3
-3
-3
-3
-3
-3
-3
-3
-4
-3
-3
-3
-3
-3
-3
-3
-3
-3
-3
-3
-3
-3
-3
-3
-3
-3
-4
-4
-4
-4
-4
-3
-3
-3
-3
-3
-3
-3
-3
-3
-3
-3
-3
-3
-3
-3
-3
-3
-3
-3
-3
-3
-3
-3
-3
-3
-3
-3
-3
-3
-3
-3
-4
-4
-4
-4
-4
-4
-4
-4
-4
-4
-5
-5
-5
-5
-5
-5
-5
-5
-5
-5
-5
-5
-5
-5
-6
-6
-6
-6
-6
-6
-6
-6
-6
-6
-6
-6
-6
-6
-6
-6
-6
-7
-7
-7
-7
-7
-7
-7
-7
-7
-7
-7
-7
-7
-7
-6
-6
-6
-6
-6
-6
-6
-5
-5
-5
-5
-5
-5
-5
-5
-5
-6
-5
-5
-5
-5
-5
-5
-5
-5
-6
-6
-6
-6
-6
-6
-6
-6
-6
-6
-6
-6
-6
-6
-6
-6
-7
-7
-7
-7
-7
-7
-7
-7
-7
-7
-7
-7
-7
-7
-7
-8
-8
-8
-7
-7
-7
-8
-8
-8
-8
-8
-8
-8
-8
-8
-9
-9
-9
-9
-9
-8
-8
-8
-8
-8
-8
-9
-9
-9
-9
-9
-9
-9
-9
-9
-9
-9
-9
-9
-10
-10
-10
-10
-10
-10
-10
-10
-9
-9
-9
-9
-9
-9
-9
-8
-8
-8
-9
-9
-9
-9
-8
-8
-8
-8
-9
-9
-9
-9
-10
-10
-10
-11
-11
-10
-10
-10
-11
-11
-11
-11
-12
-12
-12
-12
-11
-11
-11
-11
-11
-10
-10
-10
-10
-9
-9
-10
-10
-10
-10
-10
-9
-9
-9
-9
-9
-9
-9
-9
-10
-10
-10
-10
-10
-10
-10
-10
-11
-11
-11
-11
-11
-11
-11
-11
-11
-11
-11
-11
-11
-11
-11
-11
-11
-11
-11
-11
-11
-11
-11
-11
-11
-11
-11
-11
-11
-11
-11
-11
-11
-11
-10
-11
-11
-11
-11
-11
-11
-11
-11
-11
-11
-11
-11
-11
-11
-11
-11
-11
-11
-11
-11
-10
-10
-10
-10
-10
-10
-10
-10
-10
-10
-10
-10
-10
-10
-10
-10
-10
-10
-10
-10
-10
-10
-10
-10
-10
-10
-10
-10
-10
-10
-10
-10
-10
-10
-10
-10
-10
-10
-10
-10
-10
-10
-10
-10
-10
-10
-10
-10
-10
-10
-10
-10
-10
-10
-10
-10
-11
-11
-11
-11
-11
-11
-11
-11
-11
-11
-10
-10
-10
-10
-11
-11
-11
-11
-11
-11
-12
-12
-11
-11
-12
-12
-12
-12
-12
-12
-12
-11
-11
-11
-11
-11
-11
-11
-11
-11
-11
-10
-10
-10
-10
-9
-8
-8
-8
-8
-8
-8
-7
-7
-7
-7
-6
-6
-6
-7
-7
-6
-6
-5
-6
-6
-5
-5
-5
-4
-4
-5
-4
-4
-4
-3
-3
-3
-3
-3
-3
-2
-2
-2
-2
-3
-3
-3
-2
-2
-2
-1
-1
-1
-1
0
-1
0
0
0
1
1
2
2
2
3
2
2
3
4
4
4
4
5
5
6
6
6
6
5
6
6
6
6
5
6
6
5
6
6
5
5
6
5
5
5
4
5
4
4
3
3
2
2
1
1
0
-1
-2
-2
-2
-4
-4
-5
-6
-6
-7
-7
-7
-8
-8
-8
-9
-9
-9
-9
-10
-10
-10
-10
-10
-10
-10
-10
-10
-10
-9
-10
-10
-10
-10
-10
-10
-9
-9
-10
-10
-10
-10
-10
-9
-9
-9
-9
-9
-9
-9
-9
-9
-10
-10
-10
-10
-10
-10
-10
-10
-10
-10
-10
-10
-10
-10
-10
-11
-11
-11
-11
-11
-11
-11
-11
-11
-11
-12
-12
-12
-12
-12
-11
-11
-11
-11
-11
-11
-11
-11
-11
-11
-11
-11
-11
-11
-11
-10
-10
-10
-10
-10
-10
-10
-10
-10
-10
-10
-10
-10
-10
-10
-11
-11
-11
-11
-12
-13
-12
-13
-14
-15
-16
-15
-16
-17
-18
-19
-20
-20
-20
-20
-20
-20
-18
-16
-15
-12
-9
-4
1
7
15
22
32
41
52
63
75
89
102
117
131
146
161
175
190
204
218
231
244
255
265
273
280
285
289
290
290
289
285
280
273
263
253
240
227
211
196
179
163
146
129
112
97
80
65
51
38
25
14
5
-4
-11
-16
-21
-24
-27
-28
-28
-28
-28
-26
-25
-23
-20
-18
-15
-13
-10
-9
-6
-4
-3
-1
0
0
1
1
1
3
3
3
3
3
2
3
2
3
2
1
2
2
1
1
0
0
1
1
1
1
0
0
1
1
1
1
1
1
1
1
1
1
0
0
0
0
1
1
1
1
1
1
2
2
2
2
2
2
1
1
1
2
2
2
2
2
2
3
3
3
3
3
3
3
4
4
4
4
4
5
5
5
5
5
6
7
7
7
7
7
7
7
7
7
7
8
8
8
8
8
9
9
9
9
10
10
10
10
10
10
10
10
10
10
10
11
11
11
11
12
11
11
12
12
12
12
13
14
14
14
14
15
15
15
16
16
16
16
17
17
17
17
17
18
18
18
18
18
18
18
19
20
20
20
20
20
20
20
20
21
21
21
21
22
23
23
23
23
24
24
24
24
25
25
26
26
26
26
26
26
27
28
28
28
28
28
29
29
29
30
30
31
31
31
31
32
32
32
32
33
33
33
33
34
34
34
34
34
35
36
36
36
37
38
38
39
39
40
41
41
41
42
42
43
43
44
46
46
47
48
48
49
50
50
51
53
53
54
55
56
57
58
58
60
61
61
62
63
64
65
66
66
68
69
69
71
72
73
74
74
75
77
78
78
80
81
82
83
83
85
86
88
89
89
90
92
93
95
96
97
98
99
100
102
103
104
105
106
108
109
110
111
112
112
114
115
115
117
117
118
119
119
121
121
121
122
123
124
124
125
125
126
126
126
127
126
127
127
127
127
127
126
126
125
124
124
123
122
121
120
119
118
117
116
114
113
112
109
108
107
105
103
101
100
97
96
93
91
90
87
85
84
81
79
76
74
73
71
69
67
64
62
61
58
56
55
53
50
49
47
45
43
41
39
38
36
35
33
33
31
29
28
26
26
24
23
22
22
20
19
18
18
16
16
14
14
13
12
11
11
10
9
9
9
7
7
7
7
6
5
5
5
4
4
4
3
3
3
3
3
3
1
1
1
1
1
1
1
0
0
0
0
0
0
0
0
0
0
0
0
0
0
1
1
1
1
1
1
1
1
0
0
0
1
2
2
2
2
2
2
2
2
2
2
2
2
2
2
1
1
1
1
1
1
1
1
1
1
1
1
1
1
1
1
0
0
0
0
0
0
0
0
0
1
1
1
1
1
1
1
1
1
1
1
1
1
1
1
1
1
1
1
1
1
1
1
1
1
1
1
1
1
1
1
1
1
1
1
1
2
2
2
2
2
2
2
2
2
2
2
2
2
2
2
2
1
1
1
1
1
1
1
1
1
1
1
1
1
1
1
1
1
1
1
1
1
1
1
1
1
1
1
1
1
1
0
0
0
0
-1
-1
-1
-1
-1
-1
-1
-1
-2
-2
-2
-2
-2
-2
-2
-2
-2
-2
-2
-2
-3
-2
-2
-2
-2
-2
-2
-2
-2
-2
-2
-2
-2
-2
-2
-2
-1
-1
-1
-1
-1
-1
-2
-2
-1
-1
-1
-1
-1
-1
-1
-1
-1
-1
-1
-1
-1
0
-1
-1
-1
-1
-1
-1
-1
-1
-1
-1
-2
-2
-2
-2
-2
-2
-2
-2
-2
-2
-2
-2
-2
-2
-2
-2
-1
-1
-1
-1
-1
-1
-1
-1
-1
-1
-1
-1
-1
-1
-1
-2
-2
-2
-2
-2
-2
-2
-2
-2
-2
-2
-2
-2
-2
-3
-3
-2
-3
-3
-3
-3
-2
-2
-2
-3
-3
-3
-2
-2
-2
-2
-2
-2
-2
-2
-2
-2
-2
-2
-2
-2
-2
-2
-2
-2
-2
-2
-2
-2
-2
-2
-2
-2
-2
-2
-2
-2
-2
-3
-3
-3
-3
-3
-3
-3
-3
-3
-3
-3
-3
-3
-3
-3
-3
-3
-3
-3
-3
-3
-3
-3
-3
-3
-3
-3
-3
-3
-3
-3
-3
-3
-3
-3
-3
-3
-3
-4
-4
-4
-4
-4
-4
-4
-4
-4
-3
-3
-3
-3
-3
-3
-3
-3
-3
-3
-3
-3
-3
-3
-3
-3
-3
-4
-4
-4
-4
-3
-3
-3
-3
-3
-3
-3
-3
-3
-3
-3
-3
-3
-3
-3
-4
-4
-3
-3
-3
-3
-4
-4
-4
-4
-4
-4
-4
-4
-4
-4
-4
-4
-3
-3
-3
-4
-4
-4
-4
-4
-4
-4
-4
-3
-3
-3
-3
-3
-3
-3
-3
-3
-3
-3
-3
-3
-3
-3
-2
-2
-2
-2
-2
-2
-3
-3
-3
-3
-3
-2
-2
-2
-2
-2
-2
-3
-3
-3
-4
-4
-4
-4
-4
-5
-5
-5
-5
-5
-5
-4
-4
-4
-4
-4
-4
-4
-4
-4
-4
-4
-4
-3
-3
-3
-3
-2
-2
-2
-2
-2
-2
-2
-2
-2
-2
-2
-2
-2
-2
-2
-2
-2
-2
-2
-2
-2
-2
-2
-2
-3
-3
-3
-3
-2
-2
-2
-2
-2
-3
-3
-3
-3
-3
-3
-3
-3
-3
-3
-4
-4
-4
-4
-4
-4
-4
-4
-3
-3
-3
-3
-3
-3
-3
-3
-3
-3
-3
-3
-3
-3
-3
-3
-3
-3
-3
-3
-3
-4
-4
-4
-4
-4
-4
-4
-4
-4
-4
-3
-3
-3
-3
-3
-3
-3
-3
-2
-2
-3
-3
-2
-2
-2
-2
-2
-2
-2
-2
-2
-2
-2
-2
-2
-2
-2
-2
-2
-2
-2
-2
-2
-2
-2
-2
-2
-1
-2
-2
-2
-2
-2
-2
-2
-2
-2
-2
-3
-3
-3
-3
-3
-3
-3
-3
-2
-2
-2
-2
-2
-2
-2
-2
-2
-2
-1
-1
-1
-1
-1
-1
-1
-1
0
0
0
0
1
1
2
2
3
3
3
4
4
4
4
4
4
5
5
5
5
5
6
6
6
6
6
7
7
7
7
7
7
7
7
7
7
7
7
8
8
7
7
8
7
8
8
9
10
10
10
10
10
11
11
11
12
12
13
13
13
13
13
14
14
14
14
13
14
14
14
14
14
15
14
14
15
15
15
15
15
15
15
15
15
14
15
14
14
13
13
13
13
13
12
11
11
10
9
9
7
7
6
6
5
4
4
3
3
3
3
3
2
1
1
2
2
2
1
1
2
2
1
1
2
2
2
2
2
2
2
2
2
2
2
2
2
2
2
2
2
2
2
2
2
2
2
2
2
2
2
2
2
2
1
1
1
1
1
1
1
1
1
1
1
1
1
2
2
2
2
2
2
2
2
2
1
1
1
1
1
1
1
1
1
1
1
1
1
1
1
1
1
2
2
2
2
2
2
2
2
3
3
3
3
3
2
2
2
2
1
2
1
1
0
-1
-1
0
0
-1
-2
-3
-3
-4
-4
-4
-3
-3
-2
-1
0
2
6
8
12
17
22
29
36
44
54
64
74
87
100
113
127
142
157
172
186
202
217
232
246
260
273
284
296
304
312
318
322
325
325
325
322
317
310
302
292
280
266
252
236
220
202
185
167
149
132
115
99
84
70
55
43
33
23
15
8
2
-2
-6
-9
-10
-9
-9
-8
-7
-5
-4
-1
1
3
5
7
9
11
12
14
14
14
14
15
15
16
16
16
16
16
15
16
15
14
15
15
14
14
13
13
13
13
13
12
12
12
13
13
13
13
13
13
12
13
13
13
13
13
13
13
13
13
13
13
13
13
13
13
13
13
13
13
14
15
15
15
15
15
15
16
16
16
16
16
16
17
17
17
17
17
18
18
18
18
18
18
18
19
19
19
19
19
19
19
19
19
19
20
20
20
20
20
20
20
20
21
21
21
22
22
23
23
23
23
24
24
24
24
25
25
25
25
26
26
26
26
26
26
28
28
28
28
28
28
28
28
28
28
28
28
28
28
28
28
28
28
30
30
30
30
30
30
31
31
31
32
32
32
32
32
33
33
33
33
33
33
33
33
34
34
34
35
35
35
36
36
36
36
36
37
38
38
38
39
39
39
39
40
40
40
40
41
42
42
42
43
43
43
44
44
44
45
45
45
46
46
46
46
47
47
48
48
48
49
50
50
50
51
51
52
52
53
53
55
55
56
56
57
58
58
59
60
61
61
62
63
64
64
64
66
66
67
67
68
69
70
70
72
72
73
74
75
75
76
77
78
79
80
80
81
82
83
84
85
86
87
88
90
90
91
92
94
95
96
97
98
99
101
102
103
105
106
107
109
109
110
111
113
114
115
116
117
118
119
121
122
122
124
124
126
126
127
128
129
129
131
131
133
133
135
135
136
137
137
138
138
139
139
139
140
140
140
140
141
141
140
140
140
140
139
139
138
137
137
135
134
133
132
132
130
129
128
125
124
123
121
120
118
116
114
113
110
109
107
104
102
101
98
96
94
92
90
88
86
84
81
80
78
75
74
72
70
68
65
64
62
60
58
57
55
53
51
49
49
47
45
44
42
41
40
38
38
37
35
34
33
32
31
30
29
29
28
27
26
25
25
23
23
23
21
21
21
20
20
19
19
18
18
18
18
18
18
18
18
18
17
17
17
17
16
16
15
15
15
15
16
15
15
15
14
14
14
15
15
15
15
15
15
15
15
14
13
13
13
13
13
13
13
13
13
13
13
13
13
13
13
13
12
13
14
14
14
13
13
13
12
12
12
12
12
13
13
13
13
13
13
13
13
13
13
13
13
13
13
13
14
14
14
14
14
14
14
14
14
13
13
13
13
13
14
14
14
14
14
14
14
14
14
14
14
14
14
14
14
14
14
14
14
14
14
14
14
14
14
15
15
15
15
15
14
14
14
14
14
14
14
14
14
14
14
14
14
14
14
14
14
14
14
14
14
14
14
14
14
14
14
14
14
14
13
13
13
12
13
13
13
13
13
13
13
13
13
12
12
12
12
12
12
12
12
12
12
12
12
12
12
12
12
12
12
12
12
12
12
11
11
11
11
11
12
12
12
12
11
11
11
11
11
11
11
11
11
11
11
11
11
11
11
11
11
11
11
11
11
11
11
11
11
11
11
11
11
10
10
10
10
10
9
10
10
10
10
10
10
9
9
9
9
9
9
9
9
8
8
8
8
9
9
9
9
9
9
9
9
9
9
9
9
10
11
11
11
11
10
10
10
10
10
10
10
10
10
11
11
11
11
10
9
9
10
10
9
9
9
9
9
9
9
9
9
9
9
9
9
9
8
8
8
8
8
8
8
7
7
7
7
7
8
7
7
7
7
7
7
7
7
7
7
7
7
7
7
8
8
8
8
8
8
8
8
8
8
8
8
8
8
8
8
8
8
8
8
8
8
7
7
7
7
7
7
7
7
7
7
7
6
6
6
6
6
6
6
6
6
6
6
6
7
7
7
6
6
6
6
7
7
7
7
7
7
7
7
7
7
7
6
6
6
6
6
6
6
5
5
4
4
4
4
4
4
4
4
4
5
5
5
5
5
5
5
6
6
7
7
7
7
7
7
7
7
7
7
7
7
7
7
7
7
6
6
6
6
6
6
6
6
6
6
4
4
4
4
5
5
4
4
4
4
4
4
4
4
4
4
5
5
5
5
5
5
5
5
5
6
6
6
6
5
5
5
5
5
5
5
5
5
5
5
5
5
5
5
5
5
5
5
5
4
4
4
4
4
4
4
4
4
4
4
4
4
4
5
5
5
5
4
4
4
4
4
4
3
3
3
3
2
2
2
2
2
1
1
2
2
2
2
2
2
2
2
2
2
2
2
2
2
3
3
3
3
3
3
3
3
3
2
2
2
2
2
2
2
2
2
2
2
2
2
2
2
2
2
2
1
1
1
1
1
1
2
2
2
2
1
1
1
2
2
2
1
1
1
1
1
1
1
1
1
1
1
1
1
1
0
0
0
0
0
0
1
0
0
0
0
0
0
0
1
1
1
1
1
2
2
2
2
2
2
2
2
2
2
2
2
2
2
2
2
2
2
2
2
2
2
2
2
2
2
2
2
2
2
2
2
2
2
2
3
3
3
3
3
3
3
3
2
2
2
2
2
2
2
2
2
3
3
3
2
2
2
2
2
2
2
2
1
1
1
1
1
1
1
1
2
2
2
2
2
2
2
2
2
2
2
2
2
2
2
2
1
1
1
1
1
1
0
0
1
1
0
0
0
0
0
0
0
0
0
0
0
-1
-1
-1
-1
0
0
0
0
0
0
0
0
0
0
0
0
0
0
0
0
0
0
0
0
0
1
1
1
1
1
1
2
2
2
2
2
2
3
3
3
3
4
4
3
4
4
4
5
5
5
5
5
6
6
5
6
6
7
7
7
7
7
7
7
7
7
7
7
8
8
8
7
7
7
7
7
8
8
8
9
9
9
10
10
11
11
11
11
12
12
12
13
13
13
14
14
14
14
14
14
14
15
14
14
14
14
14
14
14
14
13
13
13
12
12
13
12
12
12
12
12
11
11
12
11
11
10
10
10
8
8
8
7
7
6
5
4
4
4
2
3
2
1
1
0
0
0
-1
-1
-1
-1
-1
-1
-2
-2
-3
-3
-4
-3
-3
-3
-3
-3
-4
-4
-4
-4
-4
-4
-4
-4
-4
-4
-4
-3
-3
-3
-3
-3
-2
-2
-3
-3
-3
-3
-3
-3
-3
-3
-3
-3
-3
-3
-3
-3
-4
-4
-4
-4
-4
-4
-4
-5
-5
-5
-5
-5
-5
-5
-6
-6
-6
-6
-6
-6
-7
-7
-7
-7
-7
-7
-8
-8
-8
-7
-7
-6
-6
-6
-6
-5
-5
-6
-6
-6
-5
-5
-5
-5
-5
-5
-5
-5
-6
-6
-7
-7
-7
-8
-8
-9
-9
-10
-11
-12
-12
-12
-13
-14
-15
-15
-16
-16
-17
-17
-16
-15
-15
-13
-9
-7
-4
1
6
13
20
29
37
48
58
70
83
96
111
124
139
154
169
184
200
214
228
241
254
265
275
283
290
295
298
300
300
298
294
288
280
272
260
247
233
218
202
185
168
151
134
116
100
84
68
53
40
26
15
6
-3
-10
-16
-21
-24
-27
-28
-29
-28
-27
-26
-24
-22
-19
-17
-15
-13
-10
-8
-6
-4
-2
0
1
2
2
4
2
3
3
4
4
4
3
3
2
3
2
1
1
1
0
0
0
0
-1
-2
-2
-1
-1
-2
-2
-2
-2
-3
-3
-4
-4
-4
-3
-3
-3
-3
-4
-4
-4
-3
-3
-3
-3
-2
-2
-2
-1
-1
-1
-1
0
0
0
0
0
0
0
1
1
1
1
1
1
1
1
2
1
1
1
1
2
2
2
2
2
2
3
3
3
3
3
3
3
3
3
3
4
4
4
4
4
4
5
5
5
6
6
6
6
6
6
6
6
7
7
7
7
8
8
8
8
8
8
9
9
9
9
9
9
9
9
9
9
9
9
9
9
9
9
9
9
10
10
10
10
10
10
10
11
11
11
12
12
12
12
12
13
13
13
14
14
15
15
16
16
16
16
17
17
17
17
17
18
18
18
18
18
18
18
18
18
18
19
19
20
20
20
20
20
20
20
21
21
21
22
22
22
22
22
23
23
24
24
24
24
25
25
26
26
26
26
26
27
27
28
29
29
29
30
30
32
32
33
33
34
35
36
36
38
38
39
39
40
40
41
42
43
43
44
45
45
46
48
48
49
49
50
52
53
53
54
56
56
57
58
60
60
61
62
63
64
65
65
67
68
69
69
71
72
74
74
75
76
78
79
80
81
82
83
85
86
87
88
90
91
93
94
94
96
97
98
100
101
102
103
104
105
106
107
108
109
110
111
112
112
112
114
114
115
115
116
116
117
117
117
117
118
118
118
117
118
118
117
117
116
116
115
114
113
112
111
110
109
108
107
105
104
103
102
100
98
96
95
92
91
89
87
85
83
81
79
77
75
72
70
68
66
63
61
58
57
54
52
50
48
46
44
42
40
38
36
34
32
31
29
27
26
25
23
21
20
18
17
16
14
13
12
11
9
7
7
6
4
4
2
1
0
-1
-2
-3
-3
-4
-5
-6
-6
-6
-7
-7
-7
-7
-7
-7
-7
-7
-7
-7
-8
-8
-9
-9
-9
-9
-9
-9
-9
-9
-10
-10
-10
-10
-10
-11
-10
-10
-10
-11
-11
-11
-11
-11
-11
-11
-12
-12
-12
-12
-12
-12
-12
-12
-12
-12
-13
-13
-13
-13
-13
-13
-14
-14
-14
-14
-14
-14
-14
-14
-14
-14
-14
-14
-14
-14
-14
-14
-14
-14
-14
-13
-13
-13
-13
-13
-13
-12
-12
-12
-12
-12
-12
-12
-12
-12
-12
-12
-12
-12
-12
-12
-12
-11
-11
-11
-11
-11
-11
-11
-11
-11
-11
-11
-11
-11
-11
-11
-11
-12
-12
-12
-12
-11
-11
-11
-11
-11
-11
-11
-11
-11
-11
-11
-10
-10
-10
-10
-10
-10
-10
-10
-10
-10
-10
-10
-10
-10
-10
-10
-11
-11
-11
-11
-11
-11
-11
-11
-11
-11
-11
-11
-11
-12
-12
-12
-12
-12
-12
-12
-12
-12
-12
-12
-12
-12
-12
-12
-12
-13
-13
-13
-13
-13
-13
-13
-13
-13
-13
-14
-14
-14
-14
-14
-14
-14
-14
-14
-14
-13
-13
-13
-13
-14
-14
-15
-15
-15
-14
-14
-14
-14
-14
-14
-14
-14
-14
-14
-14
-15
-15
-16
-16
-16
-16
-16
-16
-16
-16
-16
-15
-15
-15
-15
-15
-15
-15
-15
-15
-15
-15
-15
-14
-14
-14
-14
-14
-14
-14
-14
-14
-14
-14
-13
-13
-13
-13
-13
-13
-13
-13
-14
-14
-14
-14
-14
-13
-13
-13
-14
-14
-14
-14
-14
-14
-15
-15
-15
-15
-15
-15
-15
-15
-15
-15
-15
-15
-15
-15
-15
-15
-15
-15
-15
-15
-15
-15
-14
-14
-14
-14
-14
-15
-15
-15
-15
-15
-15
-15
-15
-15
-15
-15
-15
-15
-15
-15
-15
-15
-15
-15
-15
-15
-16
-15
-15
-15
-15
-15
-15
-15
-15
-15
-15
-15
-15
-15
-15
-15
-15
-15
-15
-15
-15
-15
-15
-15
-16
-16
-16
-16
-16
-16
-16
-16
-16
-16
-15
-15
-15
-15
-15
-15
-15
-14
-14
-14
-14
-14
-14
-14
-14
-14
-14
-14
-14
-14
-15
-15
-15
-15
-15
-15
-15
-15
-15
-15
-15
-13
-13
-13
-14
-14
-13
-13
-13
-13
-13
-13
-13
-14
-14
-14
-14
-14
-14
-14
-14
-14
-14
-14
-14
-14
-14
-14
-14
-14
-14
-14
-14
-14
-14
-14
-14
-14
-15
-15
-15
-15
-15
-15
-15
-15
-15
-15
-15
-15
-15
-15
-15
-15
-15
-15
-14
-14
-14
-14
-14
-14
-14
-13
-13
-13
-13
-14
-14
-14
-14
-14
-14
-14
-14
-14
-14
-14
-14
-14
-14
-14
-14
-15
-15
-15
-15
-15
-15
-15
-15
-15
-15
-15
-15
-15
-15
-15
-14
-14
-14
-14
-14
-14
-15
-15
-15
-15
-15
-15
-15
-15
-15
-14
-14
-14
-14
-14
-14
-14
-14
-14
-15
-15
-15
-14
-14
-14
-14
-14
-14
-14
-14
-14
-15
-15
-15
-15
-15
-15
-15
-15
-15
-15
-15
-15
-15
-15
-15
-15
-15
-15
-15
-15
-15
-15
-16
-16
-16
-16
-16
-16
-16
-16
-16
-16
-16
-16
-16
-16
-16
-16
-16
-16
-16
-16
-16
-15
-14
-14
-14
-14
-14
-15
-15
-15
-14
-14
-14
-14
-15
-15
-15
-15
-14
-14
-14
-14
-14
-14
-14
-14
-14
-14
-14
-14
-14
-14
-15
-15
-15
-14
-15
-15
-15
-15
-15
-15
-15
-14
-14
-14
-14
-14
-14
-14
-14
-14
-14
-14
-14
-14
-13
-13
-13
-13
-13
-13
-13
-13
-13
-13
-13
-13
-13
-13
-13
-13
-13
-13
-13
-13
-13
-14
-14
-14
-14
-14
-14
-14
-15
-15
-14
-14
-14
-14
-14
-14
-14
-14
-14
-14
-14
-14
-14
-14
-15
-15
-15
-15
-15
-15
-15
-14
-14
-14
-14
-14
-14
-14
-14
-14
-14
-14
-14
-15
-15
-15
-15
-15
-15
-15
-15
-15
-15
-15
-14
-14
-14
-15
-15
-15
-15
-15
-15
-14
-15
-15
-15
-15
-14
-14
-15
-15
-14
-14
-14
-13
-13
-13
-13
-12
-11
-11
-11
-10
-10
-10
-9
-9
-9
-9
-9
-9
-9
-8
-8
-8
-8
-8
-8
-8
-9
-9
-9
-9
-8
-8
-8
-9
-9
-9
-8
-7
-7
-7
-7
-7
-7
-7
-5
-5
-5
-4
-4
-4
-2
-2
-2
-2
-2
-2
-2
-2
-1
-1
-1
-1
-1
-2
-2
-2
-2
-2
-2
-3
-3
-2
-2
-3
-3
-3
-3
-3
-3
-3
-3
-3
-4
-4
-4
-4
-5
-5
-5
-6
-7
-7
-9
-9
-9
-11
-11
-11
-13
-13
-14
-15
-15
-15
-15
-16
-16
-16
-16
-16
-17
-17
-17
-17
-17
-17
-17
-16
-16
-16
-16
-16
-16
-16
-17
-17
-17
-17
-16
-16
-16
-16
-17
-17
-17
-17
-17
-18
-18
-18
-18
-18
-18
-18
-18
-18
-18
-18
-18
-18
-18
-18
-19
-19
-19
-19
-19
-19
-20
-20
-20
-20
-20
-20
-20
-20
-20
-20
-19
-19
-19
-19
-19
-19
-19
-19
-18
-18
-18
-18
-18
-17
-18
-18
-18
-18
-18
-18
-18
-18
-18
-18
-17
-17
-17
-17
-17
-17
-17
-18
-18
-18
-18
-19
-18
-19
-18
-19
-19
-20
-20
-21
-21
-23
-23
-24
-25
-25
-27
-27
-27
-28
-28
-28
-28
-27
-26
-24
-22
-18
-15
-10
-5
1
9
16
24
34
44
57
69
83
96
111
126
141
156
172
