# Simple Text Format
# Sampling Rate (Hz):= 1200.00
# Resolution:= 12
# Labels:= ECG	 V5
# Age:=	18
# Gender:=	Masculino
-128
-128
-128
-128
-128
-128
-128
-128
-128
-128
-128
-128
-128
-128
-128
-128
-129
-129
-128
-128
-128
-128
-129
-129
-129
-129
-129
-129
-129
-129
-129
-129
-129
-129
-129
-129
-129
-129
-129
-130
-130
-130
-130
-130
-129
-129
-130
-130
-130
-130
-130
-131
-131
-131
-131
-131
-131
-131
-131
-131
-130
-130
-130
-130
-130
-130
-130
-130
-130
-130
-130
-130
-130
-130
-129
-129
-130
-130
-130
-130
-130
-129
-129
-129
-129
-130
-130
-130
-130
-130
-130
-130
-130
-130
-130
-130
-130
-130
-130
-131
-131
-131
-131
-131
-132
-132
-132
-132
-132
-132
-132
-132
-132
-132
-132
-132
-132
-133
-133
-133
-133
-133
-133
-133
-133
-133
-133
-133
-133
-133
-133
-132
-132
-132
-132
-132
-132
-132
-132
-132
-132
-132
-132
-132
-132
-132
-132
-132
-131
-131
-131
-131
-131
-131
-131
-131
-131
-131
-132
-132
-132
-132
-132
-132
-132
-131
-132
-132
-132
-132
-132
-132
-132
-132
-131
-131
-131
-131
-131
-131
-132
-132
-131
-131
-131
-131
-132
-132
-132
-132
-132
-132
-131
-131
-131
-131
-131
-131
-131
-131
-131
-131
-131
-131
-131
-131
-131
-131
-131
-131
-131
-131
-131
-131
-131
-131
-131
-131
-131
-131
-131
-131
-131
-131
-131
-131
-132
-132
-132
-132
-132
-132
-132
-132
-132
-132
-133
-133
-133
-133
-133
-133
-133
-133
-133
-133
-133
-133
-133
-133
-133
-133
-133
-133
-133
-133
-133
-133
-133
-133
-134
-134
-134
-134
-134
-134
-134
-134
-134
-134
-134
-133
-133
-133
-133
-133
-133
-133
-133
-133
-133
-133
-133
-133
-133
-133
-132
-132
-132
-132
-132
-132
-132
-132
-132
-132
-132
-132
-132
-132
-132
-132
-132
-133
-133
-133
-133
-133
-133
-133
-133
-133
-133
-133
-133
-133
-133
-133
-133
-133
-133
-133
-133
-133
-132
-132
-132
-132
-132
-132
-132
-132
-133
-133
-133
-133
-133
-133
-133
-133
-133
-133
-133
-133
-133
-133
-133
-133
-133
-133
-133
-133
-133
-133
-133
-133
-133
-133
-132
-132
-132
-132
-132
-132
-132
-132
-132
-132
-132
-132
-132
-132
-132
-132
-132
-132
-132
-132
-132
-132
-132
-132
-132
-132
-132
-131
-131
-131
-131
-131
-131
-131
-131
-131
-130
-131
-131
-131
-131
-131
-130
-130
-130
-130
-130
-130
-130
-130
-130
-130
-130
-131
-131
-131
-131
-131
-131
-131
-132
-132
-131
-131
-131
-131
-131
-131
-131
-131
-131
-131
-131
-131
-131
-131
-131
-131
-130
-131
-131
-131
-131
-131
-131
-131
-131
-131
-131
-131
-131
-131
-131
-131
-131
-131
-131
-131
-131
-131
-131
-131
-131
-131
-130
-130
-130
-130
-130
-130
-130
-130
-130
-130
-130
-130
-130
-130
-131
-131
-129
-129
-129
-130
-130
-130
-130
-130
-130
-130
-130
-130
-131
-131
-131
-131
-131
-131
-131
-131
-131
-130
-130
-130
-130
-130
-130
-130
-130
-129
-129
-129
-129
-129
-129
-130
-130
-130
-130
-130
-130
-130
-130
-130
-130
-130
-131
-131
-131
-131
-131
-131
-131
-131
-131
-131
-130
-130
-130
-130
-130
-129
-129
-129
-129
-129
-128
-128
-128
-128
-128
-129
-128
-128
-128
-128
-128
-127
-127
-127
-127
-127
-127
-127
-127
-127
-127
-127
-127
-127
-127
-127
-127
-128
-128
-128
-128
-128
-128
-128
-128
-128
-128
-128
-129
-129
-129
-129
-128
-128
-128
-128
-128
-128
-128
-128
-129
-129
-129
-129
-129
-129
-129
-129
-129
-129
-128
-128
-128
-128
-128
-128
-128
-128
-128
-128
-128
-128
-128
-128
-128
-128
-127
-127
-127
-127
-126
-126
-126
-126
-125
-125
-125
-124
-124
-123
-122
-122
-122
-121
-121
-120
-121
-120
-120
-119
-119
-118
-118
-118
-118
-119
-118
-118
-117
-117
-117
-117
-118
-118
-118
-118
-118
-118
-118
-118
-118
-118
-117
-117
-117
-117
-117
-115
-115
-115
-115
-114
-114
-114
-113
-113
-113
-112
-112
-112
-112
-112
-112
-112
-111
-111
-111
-111
-112
-112
-112
-112
-111
-111
-111
-112
-112
-111
-111
-112
-111
-111
-112
-111
-112
-112
-113
-112
-112
-113
-113
-114
-114
-114
-116
-116
-117
-118
-118
-119
-120
-121
-121
-121
-123
-123
-124
-124
-124
-125
-125
-125
-126
-126
-126
-127
-127
-127
-127
-127
-127
-127
-127
-127
-127
-127
-127
-127
-127
-127
-127
-127
-127
-127
-128
-128
-128
-129
-129
-129
-129
-129
-128
-128
-128
-128
-128
-128
-128
-128
-128
-128
-128
-128
-127
-127
-127
-127
-127
-128
-128
-128
-128
-128
-128
-128
-128
-128
-127
-127
-127
-128
-128
-128
-128
-128
-128
-128
-128
-128
-128
-128
-128
-128
-128
-127
-127
-127
-127
-127
-127
-127
-126
-126
-126
-126
-126
-126
-127
-127
-127
-128
-127
-128
-128
-128
-129
-130
-130
-130
-131
-132
-133
-134
-135
-136
-136
-137
-137
-138
-137
-138
-137
-136
-135
-132
-129
-126
-121
-116
-109
-101
-92
-84
-72
-60
-47
-33
-17
-1
17
35
52
72
91
110
131
151
170
189
208
225
242
256
269
279
288
295
299
301
301
297
292
283
272
258
242
224
204
182
159
136
112
88
64
40
18
-5
-27
-47
-65
-81
-96
-108
-119
-128
-135
-140
-144
-147
-148
-148
-147
-146
-144
-140
-138
-134
-131
-128
-125
-122
-119
-117
-115
-114
-113
-111
-110
-109
-109
-109
-109
-109
-109
-109
-109
-110
-111
-111
-112
-112
-112
-114
-114
-114
-114
-115
-115
-115
-115
-116
-116
-116
-116
-116
-116
-116
-116
-116
-116
-115
-115
-115
-115
-116
-115
-115
-115
-115
-114
-114
-114
-114
-114
-113
-113
-114
-114
-114
-113
-113
-113
-112
-112
-112
-112
-112
-112
-112
-112
-112
-112
-112
-112
-111
-111
-110
-110
-110
-110
-110
-110
-110
-109
-108
-108
-108
-108
-108
-106
-106
-106
-106
-106
-106
-106
-106
-106
-105
-105
-105
-105
-104
-104
-104
-104
-104
-104
-104
-104
-104
-104
-104
-103
-103
-103
-103
-102
-102
-102
-102
-102
-102
-102
-102
-102
-102
-102
-102
-102
-101
-101
-101
-101
-101
-101
-101
-100
-100
-100
-100
-100
-99
-98
-98
-98
-98
-98
-98
-96
-96
-96
-96
-95
-95
-95
-95
-95
-94
-94
-94
-94
-94
-94
-94
-93
-93
-92
-92
-92
-92
-92
-92
-91
-90
-90
-90
-90
-89
-89
-88
-88
-88
-88
-88
-87
-87
-86
-86
-86
-86
-85
-85
-83
-83
-83
-82
-82
-82
-81
-81
-80
-80
-78
-78
-77
-77
-76
-76
-75
-74
-73
-73
-72
-72
-70
-70
-69
-69
-69
-68
-68
-66
-66
-65
-65
-64
-64
-62
-62
-61
-61
-60
-59
-58
-57
-56
-56
-55
-53
-53
-52
-51
-49
-48
-47
-47
-46
-45
-43
-42
-41
-39
-38
-37
-35
-34
-34
-33
-31
-30
-29
-28
-26
-25
-24
-24
-23
-21
-20
-19
-17
-16
-15
-13
-12
-10
-9
-8
-6
-5
-5
-3
-2
0
1
2
3
5
6
8
9
10
11
13
14
14
16
17
18
20
21
21
23
24
25
26
26
28
28
28
30
30
31
31
31
31
31
31
31
31
31
30
30
29
28
27
26
25
24
23
22
21
18
17
16
14
12
10
8
6
3
1
-1
-3
-6
-8
-11
-13
-15
-18
-21
-23
-26
-28
-31
-33
-35
-38
-41
-43
-46
-49
-51
-53
-56
-58
-60
-63
-66
-68
-71
-72
-74
-77
-79
-80
-83
-85
-87
-89
-90
-92
-94
-95
-97
-99
-100
-102
-102
-103
-105
-106
-108
-109
-110
-111
-112
-113
-114
-116
-116
-117
-118
-119
-120
-121
-121
-123
-123
-123
-125
-125
-125
-125
-126
-126
-126
-128
-128
-128
-128
-129
-129
-129
-129
-129
-129
-129
-129
-130
-130
-131
-131
-131
-130
-130
-131
-131
-131
-131
-131
-131
-131
-132
-132
-131
-131
-131
-131
-131
-131
-131
-131
-131
-132
-132
-132
-132
-132
-132
-132
-132
-132
-131
-131
-131
-131
-131
-132
-132
-132
-132
-132
-132
-132
-132
-132
-132
-132
-132
-132
-132
-132
-132
-132
-132
-132
-132
-132
-132
-132
-132
-132
-132
-133
-134
-134
-134
-134
-133
-133
-133
-133
-134
-134
-134
-134
-134
-134
-134
-133
-134
-134
-134
-134
-134
-134
-134
-134
-133
-133
-133
-133
-133
-133
-133
-133
-133
-134
-134
-134
-134
-134
-134
-134
-134
-134
-134
-134
-134
-134
-134
-135
-135
-135
-135
-135
-135
-135
-135
-135
-135
-135
-135
-135
-135
-135
-135
-135
-135
-135
-135
-135
-136
-136
-136
-136
-136
-136
-136
-136
-136
-136
-137
-137
-137
-137
-137
-137
-137
-137
-137
-137
-137
-137
-137
-137
-137
-137
-137
-137
-138
-138
-138
-139
-139
-139
-139
-139
-139
-140
-140
-140
-140
-140
-140
-140
-140
-140
-140
-140
-140
-140
-140
-140
-140
-140
-139
-139
-139
-139
-139
-139
-139
-139
-139
-138
-138
-138
-139
-139
-139
-139
-139
-139
-139
-139
-139
-140
-140
-140
-140
-141
-141
-140
-141
-141
-141
-141
-141
-141
-141
-141
-141
-142
-142
-141
-141
-141
-141
-142
-142
-143
-143
-143
-143
-143
-143
-143
-143
-143
-143
-143
-143
-143
-143
-144
-143
-143
-143
-143
-143
-142
-142
-142
-142
-141
-141
-141
-141
-141
-141
-141
-141
-141
-142
-142
-142
-142
-142
-142
-142
-142
-142
-143
-143
-143
-143
-144
-144
-144
-144
-143
-143
-143
-144
-144
-144
-144
-144
-144
-144
-144
-144
-144
-143
-143
-143
-143
-143
-142
-142
-142
-142
-141
-142
-142
-142
-142
-142
-141
-141
-141
-141
-141
-142
-142
-142
-142
-142
-142
-142
-142
-142
-143
-143
-143
-143
-143
-143
-143
-143
-143
-143
-144
-144
-144
-144
-144
-144
-144
-144
-144
-145
-145
-145
-145
-145
-145
-145
-145
-145
-145
-145
-145
-145
-145
-144
-144
-144
-144
-144
-144
-144
-144
-145
-145
-145
-145
-145
-145
-145
-145
-145
-145
-145
-145
-145
-145
-145
-145
-145
-146
-146
-146
-146
-145
-144
-145
-145
-145
-145
-145
-146
-146
-145
-145
-145
-145
-145
-145
-146
-146
-146
-145
-145
-145
-145
-145
-145
-145
-145
-145
-144
-144
-144
-144
-144
-143
-143
-144
-144
-144
-144
-144
-144
-143
-143
-143
-144
-144
-144
-144
-144
-144
-144
-144
-144
-144
-144
-144
-145
-145
-145
-145
-145
-145
-145
-145
-145
-145
-145
-145
-145
-145
-144
-145
-145
-145
-145
-145
-145
-145
-145
-145
-145
-145
-145
-144
-144
-144
-144
-144
-144
-144
-144
-144
-144
-145
-145
-145
-145
-145
-145
-145
-145
-145
-145
-145
-145
-145
-145
-145
-145
-145
-145
-145
-145
-145
-145
-146
-146
-146
-146
-146
-146
-146
-146
-146
-146
-146
-146
-146
-146
-146
-146
-146
-145
-145
-145
-146
-146
-146
-146
-145
-145
-145
-145
-145
-145
-145
-145
-145
-145
-145
-145
-145
-146
-146
-146
-146
-146
-146
-146
-146
-146
-146
-146
-145
-145
-145
-145
-145
-145
-145
-145
-145
-146
-146
-146
-146
-146
-145
-145
-145
-145
-145
-145
-146
-146
-145
-145
-145
-146
-146
-145
-145
-145
-145
-145
-145
-145
-145
-145
-145
-145
-145
-145
-145
-145
-144
-144
-144
-144
-144
-144
-144
-144
-144
-144
-144
-144
-144
-143
-143
-143
-143
-143
-143
-144
-144
-144
-144
-144
-144
-143
-143
-143
-143
-143
-143
-144
-144
-144
-143
-143
-143
-143
-143
-143
-143
-143
-143
-143
-143
-143
-142
-142
-142
-142
-142
-142
-142
-142
-142
-141
-141
-141
-141
-140
-140
-140
-139
-139
-139
-138
-138
-138
-137
-137
-137
-136
-136
-136
-136
-135
-135
-135
-135
-135
-135
-135
-134
-135
-135
-135
-135
-135
-135
-135
-135
-135
-135
-135
-135
-135
-135
-135
-135
-134
-133
-133
-133
-132
-132
-132
-132
-130
-130
-130
-129
-129
-129
-129
-129
-129
-129
-129
-129
-129
-129
-128
-128
-128
-128
-129
-128
-129
-129
-129
-129
-129
-129
-129
-129
-129
-129
-130
-130
-130
-131
-131
-131
-132
-132
-133
-133
-133
-135
-135
-135
-136
-137
-138
-138
-139
-140
-140
-141
-142
-143
-143
-143
-144
-144
-144
-145
-146
-146
-146
-146
-146
-147
-147
-147
-147
-147
-147
-147
-147
-147
-147
-147
-147
-147
-147
-148
-148
-148
-148
-148
-148
-148
-148
-148
-148
-148
-148
-148
-148
-148
-148
-148
-148
-148
-148
-148
-148
-148
-148
-148
-147
-147
-147
-148
-149
-149
-149
-149
-148
-149
-149
-149
-149
-149
-149
-149
-149
-149
-149
-149
-149
-149
-149
-149
-149
-149
-149
-149
-149
-149
-150
-150
-150
-150
-150
-150
-150
-150
-150
-150
-150
-150
-150
-150
-150
-151
-151
-151
-152
-152
-152
-153
-153
-154
-154
-156
-156
-157
-158
-160
-160
-162
-162
-164
-165
-166
-166
-166
-165
-165
-164
-161
-158
-155
-150
-145
-139
-131
-123
-113
-102
-90
-78
-64
-49
-32
-15
3
22
41
60
80
99
120
139
158
178
195
211
225
238
249
258
264
268
270
269
266
260
251
240
226
210
191
171
149
126
104
80
56
32
7
-15
-38
-59
-79
-96
-112
-127
-139
-150
-159
-166
-171
-175
-177
-178
-178
-178
-175
-173
-170
-168
-164
-161
-157
-154
-150
-147
-145
-142
-140
-139
-136
-135
-134
-134
-132
-132
-133
-132
-132
-132
-133
-133
-134
-134
-135
-136
-136
-136
-137
-137
-137
-138
-138
-138
-138
-138
-138
-139
-139
-139
-139
-139
-138
-138
-138
-138
-138
-138
-138
-138
-138
-138
-138
-138
-138
-138
-139
-139
-139
-139
-138
-138
-138
-138
-138
-138
-138
-138
-138
-137
-136
-136
-136
-136
-136
-135
-135
-135
-135
-134
-134
-133
-132
-133
-133
-132
-132
-132
-131
-131
-131
-130
-130
-130
-129
-129
-129
-128
-128
-128
-128
-128
-127
-127
-127
-127
-127
-127
-127
-127
-127
-126
-126
-126
-126
-126
-126
-125
-125
-125
-125
-125
-125
-125
-125
-125
-125
-125
-124
-124
-123
-123
-123
-123
-123
-123
-123
-123
-123
-123
-123
-122
-122
-122
-122
-122
-122
-121
-121
-121
-121
-121
-121
-120
-120
-120
-120
-120
-120
-120
-120
-119
-119
-118
-118
-118
-118
-118
-116
-116
-116
-115
-115
-115
-115
-114
-114
-113
-113
-112
-112
-111
-111
-110
-110
-109
-108
-108
-107
-107
-106
-105
-105
-105
-104
-103
-103
-103
-103
-102
-102
-102
-101
-101
-101
-101
-101
-101
-100
-100
-99
-99
-98
-98
-98
-97
-97
-96
-96
-94
-94
-93
-92
-91
-90
-90
-89
-88
-87
-86
-85
-84
-83
-82
-81
-81
-80
-78
-77
-77
-76
-75
-73
-72
-72
-71
-69
-68
-67
-66
-64
-64
-63
-62
-60
-59
-58
-57
-55
-54
-53
-52
-50
-49
-48
-47
-45
-44
-43
-42
-40
-39
-38
-36
-34
-33
-32
-30
-29
-28
-25
-24
-23
-21
-20
-18
-16
-15
-14
-12
-11
-9
-8
-6
-5
-4
-2
-1
0
2
3
5
6
7
8
9
11
11
12
13
13
15
15
15
16
16
16
17
17
16
17
16
16
16
16
15
14
14
13
12
11
10
8
6
5
4
2
1
-2
-4
-6
-7
-10
-12
-14
-17
-19
-22
-24
-27
-29
-31
-35
-37
-40
-42
-45
-48
-50
-53
-56
-58
-61
-64
-67
-70
-72
-74
-77
-80
-82
-85
-87
-90
-92
-94
-97
-99
-101
-103
-105
-106
-108
-111
-113
-114
-116
-117
-119
-120
-122
-124
-125
-127
-128
-130
-132
-132
-134
-135
-135
-137
-137
-139
-140
-140
-141
-142
-142
-143
-144
-144
-145
-145
-145
-147
-147
-147
-148
-148
-148
-148
-149
-149
-150
-150
-151
-151
-151
-151
-151
-152
-152
-152
-152
-152
-152
-152
-152
-153
-153
-154
-154
-154
-154
-154
-154
-154
-154
-154
-154
-154
-154
-154
-154
-154
-154
-154
-155
-155
-155
-155
-155
-155
-155
-155
-155
-155
-155
-155
-155
-155
-156
-156
-156
-156
-156
-156
-156
-156
-156
-156
-156
-156
-156
-156
-156
-156
-156
-156
-156
-156
-156
-156
-156
-156
-156
-156
-156
-156
-156
-156
-156
-155
-155
-155
-155
-155
-155
-155
-155
-155
-155
-155
-155
-155
-155
-155
-155
-155
-156
-156
-156
-156
-156
-156
-156
-157
-157
-156
-156
-156
-156
-156
-157
-157
-157
-157
-157
-157
-157
-157
-157
-157
-157
-158
-158
-158
-159
-159
-159
-159
-159
-159
-159
-159
-159
-159
-159
-159
-159
-159
-159
-159
-159
-159
-159
-159
-158
-158
-158
-158
-158
-158
-158
-158
-158
-158
-158
-159
-159
-159
-159
-159
-159
-159
-159
-159
-159
-159
-159
-159
-159
-159
-159
-159
-159
-159
-158
-159
-159
-159
-159
-159
-159
-159
-159
-159
-159
-159
-159
-159
-159
-159
-160
-160
-159
-159
-159
-159
-160
-160
-160
-160
-160
-161
-161
-161
-161
-161
-160
-161
-161
-161
-161
-162
-162
-162
-162
-162
-162
-161
-161
-161
-161
-161
-161
-161
-161
-161
-161
-161
-161
-160
-160
-160
-160
-161
-161
-161
-161
-161
-161
-161
-161
-161
-161
-161
-161
-161
-161
-161
-161
-161
-161
-161
-161
-160
-160
-160
-160
-160
-161
-161
-161
-161
-161
-161
-161
-161
-161
-161
-161
-161
-161
-161
-161
-161
-161
-161
-161
-161
-161
-161
-161
-161
-161
-160
-160
-160
-160
-160
-160
-160
-160
-160
-160
-160
-160
-159
-159
-159
-159
-158
-158
-158
-158
-158
-159
-159
-159
-159
-158
-159
-159
-159
-159
-159
-160
-160
-160
-160
-160
-160
-160
-160
-160
-160
-161
-161
-161
-161
-161
-161
-160
-160
-160
-160
-160
-160
-160
-160
-160
-160
-160
-160
-160
-159
-159
-159
-159
-159
-159
-159
-159
-159
-159
-159
-159
-159
-159
-159
-159
-159
-159
-159
-160
-159
-159
-159
-159
-159
-159
-158
-158
-158
-158
-158
-158
-157
-157
-157
-157
-157
-157
-157
-157
-157
-157
-157
-157
-156
-156
-156
-156
-156
-156
-157
-157
-157
-157
-157
-158
-158
-158
-158
-158
-158
-158
-157
-157
-158
-158
-158
-158
-158
-158
-158
-157
-157
-157
-157
-157
-157
-157
-157
-157
-157
-158
-157
-156
-156
-156
-156
-157
-157
-157
-157
-157
-157
-157
-157
-156
-156
-156
-156
-157
-156
-156
-156
-156
-156
-155
-155
-155
-155
-155
-155
-155
-155
-154
-154
-154
-154
-154
-154
-154
-154
-154
-153
-153
-153
-153
-153
-153
-153
-152
-152
-152
-152
-152
-152
-152
-152
-152
-152
-152
-152
-152
-152
-152
-152
-152
-152
-152
-152
-152
-152
-152
-152
-152
-152
-152
-152
-152
-152
-152
-152
-152
-152
-152
-152
-152
-152
-152
-152
-152
-152
-152
-152
-152
-152
-152
-152
-152
-152
-152
-152
-151
-151
-151
-151
-151
-150
-150
-150
-150
-150
-150
-150
-150
-150
-150
-150
-149
-149
-149
-149
-149
-149
-149
-149
-148
-148
-148
-148
-148
-148
-148
-148
-148
-148
-149
-149
-149
-149
-149
-149
-149
-149
-149
-149
-148
-148
-148
-148
-147
-147
-147
-147
-147
-146
-146
-146
-146
-146
-146
-146
-146
-146
-146
-145
-145
-146
-146
-146
-145
-145
-145
-144
-145
-144
-143
-143
-143
-142
-142
-142
-141
-141
-140
-140
-140
-139
-139
-139
-139
-139
-138
-138
-137
-137
-137
-137
-137
-136
-136
-136
-136
-137
-136
-135
-135
-135
-135
-135
-134
-134
-134
-134
-133
-132
-132
-132
-131
-130
-130
-130
-129
-129
-129
-128
-128
-127
-127
-127
-128
-128
-127
-127
-127
-127
-127
-126
-126
-126
-126
-127
-127
-126
-126
-126
-127
-127
-127
-127
-127
-127
-127
-127
-126
-127
-127
-127
-128
-128
-128
-129
-129
-129
-130
-130
-131
-131
-131
-132
-133
-133
-133
-135
-135
-135
-135
-136
-136
-137
-137
-138
-138
-138
-138
-138
-138
-138
-139
-139
-139
-139
-139
-139
-139
-139
-139
-139
-139
-139
-139
-139
-139
-139
-139
-139
-139
-139
-139
-139
-139
-139
-138
-138
-138
-138
-138
-138
-138
-138
-138
-138
-138
-138
-138
-138
-138
-138
-138
-138
-138
-138
-138
-138
-138
-138
-138
-138
-138
-138
-139
-139
-139
-139
-139
-138
-138
-138
-138
-138
-138
-138
-138
-138
-138
-138
-137
-137
-137
-137
-137
-137
-137
-137
-137
-136
-136
-136
-136
-136
-136
-136
-137
-137
-136
-136
-137
-137
-137
-138
-138
-139
-140
-140
-141
-142
-143
-143
-144
-145
-146
-148
-148
-148
-149
-148
-148
-146
-144
-142
-138
-134
-129
-123
-115
-107
-98
-88
-76
-64
-49
-35
-19
-2
16
34
52
72
91
110
131
150
170
188
207
224
239
252
264
274
282
288
291
291
289
284
278
269
256
241
224
205
184
162
139
117
93
69
45
22
-1
-23
-43
-62
-79
-95
-108
-119
-129
-138
-144
-148
-152
-153
-154
-154
-152
-150
-148
-144
-142
-138
-135
-132
-129
-126
-124
-121
-119
-117
-116
-115
-114
-113
-113
-112
-112
-113
-113
-112
-113
-113
-113
-114
-114
-115
-115
-116
-116
-116
-117
-118
-118
-118
-118
-119
-119
-119
-119
-119
-119
-119
-119
-119
-118
-118
-118
-118
-118
-117
-117
-117
-116
-116
-116
-115
-115
-115
-115
-115
-114
-114
-114
-114
-114
-113
-113
-113
-113
-113
-113
-112
-112
-112
-112
-112
-112
-111
-111
-111
-110
-110
-109
-109
-109
-109
-109
-108
-108
-108
-108
-107
-107
-107
-107
-106
-106
-106
-106
-106
-106
-105
-105
-105
-105
-105
-105
-105
-104
-104
-104
-104
-103
-103
-102
-102
-102
-102
-102
-102
-102
-101
-101
-101
-101
-100
-100
-99
-99
-99
-99
-99
-98
-98
-98
-98
-98
-98
-97
-97
-97
-97
-97
-95
-95
-95
-95
-95
-95
-94
-94
-94
-94
-93
-93
-93
-93
-92
-92
-91
-91
-91
-90
-90
-90
-89
-89
-89
-89
-88
-87
-87
-87
-86
-86
-86
-86
-85
-85
-85
-85
-85
-84
-84
-84
-84
-83
-83
-82
-82
-82
-82
-82
-82
-81
-80
-81
-80
-79
-79
-79
-78
-78
-77
-77
-75
-75
-75
-74
-73
-73
-72
-72
-71
-70
-70
-69
-68
-67
-66
-66
-65
-64
-64
-63
-62
-61
-61
-60
-59
-58
-58
-57
-55
-54
-54
-53
-52
-51
-49
-48
-48
-47
-46
-45
-43
-42
-41
-39
-38
-37
-36
-35
-34
-32
-31
-31
-29
-28
-26
-25
-24
-23
-21
-20
-19
-17
-16
-15
-14
-13
-12
-10
-9
-7
-6
-5
-3
-2
-1
0
2
3
5
6
7
10
11
12
14
16
17
18
20
20
21
23
24
24
26
27
29
29
30
32
32
33
35
35
36
37
38
39
39
40
40
40
41
41
41
42
41
41
40
40
40
40
39
38
37
36
36
34
33
32
31
30
28
26
25
22
20
18
16
13
12
9
6
4
1
0
-3
-5
-8
-11
-13
-16
-19
-21
-24
-27
-30
-33
-34
-37
-40
-43
-45
-47
-49
-52
-54
-56
-58
-60
-62
-64
-66
-68
-70
-72
-74
-76
-77
-78
-80
-82
-83
-84
-86
-87
-89
-90
-92
-94
-95
-95
-97
-98
-100
-100
-101
-103
-103
-105
-105
-106
-108
-108
-108
-109
-110
-111
-111
-111
-111
-113
-113
-113
-113
-113
-113
-115
-115
-115
-115
-115
-115
-115
-116
-116
-117
-117
-117
-117
-117
-118
-118
-118
-118
-118
-118
-118
-118
-118
-118
-118
-118
-118
-118
-118
-118
-118
-118
-118
-119
-119
-119
-119
-119
-119
-119
-119
-119
-119
-119
-119
-119
-119
-119
-119
-119
-119
-119
-119
-119
-119
-119
-119
-119
-119
-119
-119
-119
-120
-120
-119
-119
-119
-119
-119
-120
-120
-120
-119
-119
-119
-119
-119
-119
-119
-119
-119
-119
-119
-118
-118
-118
-119
-119
-119
-119
-119
-118
-118
-118
-118
-118
-118
-118
-119
-119
-119
-119
-119
-119
-119
-119
-119
-119
-119
-119
-120
-120
-120
-120
-120
-120
-120
-120
-120
-120
-119
-119
-120
-120
-120
-120
-120
-120
-120
-120
-120
-120
-120
-120
-120
-120
-120
-120
-121
-121
-121
-121
-121
-121
-120
-120
-120
-120
-120
-120
-120
-120
-120
-120
-120
-120
-120
-120
-120
-121
-121
-121
-121
-122
-122
-122
-122
-122
-122
-122
-122
-121
-121
-121
-121
-121
-122
-122
-122
-122
-122
-122
-122
-122
-122
-122
-122
-122
-122
-122
-122
-122
-122
-123
-123
-122
-122
-122
-122
-122
-123
-123
-123
-123
-123
-123
-123
-123
-123
-123
-123
-123
-123
-123
-123
-123
-123
-123
-123
-123
-123
-123
-123
-123
-123
-123
-123
-123
-123
-123
-123
-123
-123
-123
-123
-123
-123
-123
-123
-123
-123
-123
-123
-123
-123
-123
-123
-123
-123
-123
-123
-123
-123
-123
-123
-123
-123
-123
-123
-123
-123
-123
-123
-123
-123
-123
-123
-123
-123
-123
-123
-123
-123
-123
-124
-124
-123
-123
-123
-123
-123
-123
-123
-123
-123
-123
-123
-123
-124
-124
-125
-125
-125
-125
-125
-125
-125
-125
-125
-125
-125
-125
-124
-124
-124
-124
-125
-125
-125
-125
-125
-124
-124
-124
-124
-124
-124
-123
-123
-123
-123
-123
-123
-124
-123
-123
-123
-123
-123
-123
-123
-123
-123
-123
-123
-123
-124
-123
-123
-123
-123
-123
-123
-123
-123
-124
-124
-124
-124
-124
-124
-124
-124
-124
-124
-124
-124
-124
-124
-124
-123
-123
-123
-123
-123
-123
-123
-123
-123
-123
-123
-123
-123
-123
-123
-123
-123
-123
-124
-124
-124
-124
-124
-124
-124
-124
-124
-124
-124
-124
-124
-124
-123
-123
-123
-123
-123
-123
-123
-123
-122
-122
-122
-122
-122
-122
-122
-122
-122
-122
-123
-123
-123
-122
-122
-122
-122
-122
-122
-122
-122
-122
-122
-122
-122
-122
-123
-123
-123
-123
-123
-123
-123
-123
-123
-123
-123
-123
-123
-124
-124
-124
-124
-125
-125
-125
-125
-125
-125
-125
-125
-125
-125
-125
-125
-125
-125
-125
-125
-124
-124
-124
-124
-125
-125
-125
-125
-125
-125
-125
-125
-125
-125
-125
-125
-125
-125
-124
-124
-124
-124
-124
-123
-123
-123
-123
-124
-124
-124
-124
-124
-124
-124
-124
-124
-124
-124
-124
-124
-124
-124
-124
-124
-124
-124
-124
-124
-124
-124
-124
-124
-125
-125
-125
-125
-125
-125
-125
-125
-125
-125
-125
-124
-124
-124
-124
-124
-124
-125
-125
-124
-124
-124
-124
-124
-124
-124
-124
-124
-124
-124
-123
-123
-123
-123
-124
-123
-123
-123
-124
-123
-123
-123
-123
-123
-123
-123
-123
-123
-123
-123
-123
-123
-123
-123
-123
-123
-124
-124
-124
-124
-124
-124
-124
-124
-124
-124
-124
-124
-124
-124
-124
-124
-124
-125
-125
-125
-125
-125
-125
-125
-125
-125
-125
-125
-125
-125
-125
-125
-125
-125
-125
-125
-125
-125
-125
-125
-125
-125
-125
-125
-125
-124
-124
-124
-124
-124
-124
-124
-124
-123
-123
-123
-124
-124
-124
-123
-123
-123
-123
-123
-123
-123
-122
-122
-122
-122
-122
-122
-122
-122
-122
-122
-122
-122
-123
-122
-122
-122
-122
-122
-122
-122
-122
-122
-122
-123
-123
-123
-123
-123
-123
-123
-123
-123
-123
-123
-122
-123
-123
-123
-123
-123
-123
-123
-123
-123
-123
-123
-123
-123
-123
-123
-123
-123
-123
-123
-123
-123
-123
-123
-122
-122
-122
-122
-122
-122
-122
-122
-122
-122
-122
-122
-122
-122
-123
-122
-121
-121
-121
-121
-121
-121
-120
-120
-119
-119
-119
-119
-118
-118
-118
-117
-116
-116
-115
-115
-115
-114
-115
-114
-114
-114
-113
-113
-113
-113
-112
-112
-112
-112
-112
-112
-112
-112
-112
-112
-113
-113
-113
-113
-114
-113
-113
-113
-113
-113
-113
-113
-113
-112
-112
-112
-111
-110
-110
-110
-110
-109
-108
-108
-108
-108
-107
-107
-107
-107
-106
-106
-107
-107
-107
-106
-106
-107
-107
-106
-106
-107
-107
-107
-106
-107
-107
-107
-107
-108
-108
-108
-109
-109
-109
-110
-110
-112
-112
-112
-112
-114
-114
-115
-116
-116
-117
-117
-119
-119
-119
-120
-120
-122
-122
-122
-122
-123
-123
-123
-124
-124
-124
-124
-124
-124
-124
-124
-124
-124
-124
-123
-123
-123
-123
-123
-124
-124
-124
-124
-124
-124
-124
-124
-124
-124
-124
-123
-123
-123
-124
-124
-124
-124
-124
-124
-124
-124
-124
-124
-124
-124
-124
-124
-124
-124
-124
-124
-124
-124
-124
-124
-125
-125
-125
-125
-125
-125
-125
-125
-125
-124
-124
-124
-124
-124
-123
-123
-123
-123
-123
-123
-122
-122
-122
-122
-122
-122
-122
-122
-122
-122
-122
-122
-122
-123
-123
-123
-123
-123
-124
-123
-124
-125
-126
-126
-126
-126
-128
-128
-129
-130
-131
-132
-132
-133
-134
-134
-135
-135
-135
-135
-135
-134
-132
-129
-126
-122
-118
-112
-105
-97
-89
-80
-69
-56
-44
-29
-13
2
20
38
55
74
94
114
133
153
172
192
210
227
242
257
269
280
288
294
298
299
298
295
288
280
269
255
238
219
199
178
155
132
109
85
62
38
15
-7
-27
-47
-65
-80
-95
-107
-117
-126
-133
-138
-142
-144
-145
-145
-144
-143
-141
-138
-135
-132
-129
-126
-124
-121
-118
-116
-114
-112
-112
-110
-109
-109
-107
-107
-107
-107
-107
-108
-108
-108
-109
-109
-110
-110
-110
-111
-111
-111
-112
-112
-112
-112
-113
-113
-112
-112
-112
-112
-112
-113
-113
-113
-113
-112
-112
-112
-112
-112
-112
-112
-113
-113
-113
-113
-113
-112
-112
-112
-112
-112
-112
-112
-112
-112
-111
-111
-111
-111
-111
-110
-111
-111
-111
-110
-110
-110
-110
-110
-110
-110
-109
-108
-108
-108
-108
-108
-109
-108
-108
-108
-108
-108
-108
-107
-107
-107
-106
-105
-105
-105
-105
-105
-105
-105
-105
-104
-103
-103
-103
-104
-103
-102
-102
-102
-102
-101
-101
-101
-101
-101
-100
-100
-100
-100
-100
-100
-99
-98
-98
-98
-98
-98
-98
-98
-98
-97
-97
-97
-97
-97
-97
-95
-95
-95
-95
-94
-94
-94
-94
-92
-92
-92
-91
-91
-91
-90
-90
-90
-89
-88
-88
-88
-88
-88
-88
-88
-87
-87
-87
-87
-87
-87
-87
-87
-86
-86
-85
-85
-85
-84
-84
-84
-83
-83
-83
-82
-82
-81
-80
-80
-79
-79
-79
-78
-78
-78
-77
-77
-77
-76
-76
-76
-75
-75
-75
-74
-74
-74
-73
-73
-71
-71
-71
-70
-70
-69
-69
-67
-67
-66
-66
-65
-65
-64
-63
-62
-62
-61
-60
-59
-58
-57
-57
-56
-55
-53
-53
-52
-50
-49
-48
-47
-45
-45
-43
-42
-41
-40
-38
-37
-36
-36
-34
-33
-32
-31
-29
-28
-27
-26
-25
-24
-22
-21
-20
-19
-18
-16
-15
-14
-12
-11
-11
-9
-8
-7
-6
-4
-3
-1
0
1
3
4
5
6
7
9
10
12
13
14
16
17
18
20
21
23
24
25
26
26
27
29
30
30
32
33
34
35
36
36
38
38
38
38
40
40
40
40
40
40
40
40
39
38
39
38
37
37
36
34
33
32
32
31
29
28
26
24
23
20
18
17
14
12
10
8
5
3
0
-3
-6
-8
-10
-13
-16
-19
-22
-25
-27
-30
-33
-35
-38
-41
-44
-46
-48
-51
-54
-57
-58
-61
-63
-65
-67
-70
-71
-73
-76
-77
-79
-81
-82
-84
-85
-86
-88
-89
-91
-92
-94
-96
-97
-98
-100
-100
-101
-103
-103
-105
-105
-107
-107
-109
-109
-110
-110
-112
-112
-112
-112
-113
-114
-114
-114
-115
-115
-115
-116
-116
-116
-116
-117
-118
-118
-118
-118
-118
-118
-119
-119
-120
-120
-120
-120
-120
-121
-121
-121
-122
-122
-122
-122
-122
-123
-123
-123
-123
-124
-124
-124
-123
-123
-124
-124
-124
-124
-124
-125
-125
-125
-125
-125
-125
-125
-125
-125
-125
-125
-125
-124
-124
-124
-124
-124
-124
-124
-124
-124
-124
-124
-124
-124
-124
-124
-124
-124
-124
-123
-123
-123
-123
-123
-123
-123
-123
-124
-124
-124
-124
-124
-124
-124
-125
-125
-125
-125
-125
-124
-124
-124
-124
-124
-124
-124
-124
-124
-125
-125
-125
-125
-125
-125
-125
-125
-125
-126
-126
-126
-126
-126
-126
-126
-126
-126
-126
-126
-126
-126
-126
-126
-126
-126
-126
-126
-126
-126
-127
-127
-127
-127
-127
-128
-127
-127
-127
-127
-128
-128
-128
-129
-129
-129
-129
-128
-128
-128
-128
-128
-129
-129
-129
-129
-129
-129
-129
-129
-129
-130
-130
-130
-130
-130
-130
-130
-130
-130
-131
-131
-131
-131
-131
-131
-131
-131
-131
-131
-131
-131
-131
-132
-132
-132
-132
-132
-132
-133
-133
-133
-134
-134
-134
-134
-134
-134
-134
-134
-133
-134
-134
-134
-134
-134
-134
-134
-134
-134
-134
-134
-134
-134
-134
-134
-134
-133
-134
-134
-134
-134
-134
-134
-134
-134
-134
-134
-134
-134
-134
-134
-134
-134
-134
-134
-134
-134
-134
-133
-133
-133
-133
-133
-133
-134
-134
-134
-134
-134
-134
-134
-135
-135
-135
-135
-135
-135
-135
-135
-135
-135
-135
-135
-135
-134
-134
-135
-135
-135
-135
-135
-135
-135
-135
-135
-135
-135
-136
-136
-136
-136
-136
-136
-136
-136
-136
-136
-136
-137
-137
-137
-137
-136
-136
-136
-136
-136
-135
-135
-135
-134
-135
-135
-135
-135
-134
-134
-134
-134
-134
-133
-133
-133
-133
-133
-133
-133
-133
-133
-133
-134
-134
-134
-134
-134
-133
-134
-134
-134
-135
-135
-136
-136
-136
-136
-136
-136
-136
-136
-136
-136
-136
-136
-136
-136
-136
-136
-136
-136
-136
-136
-136
-136
-136
-136
-136
-136
-136
-136
-136
-136
-136
-136
-136
-136
-136
-136
-137
-137
-137
-137
-137
-137
-137
-137
-138
-138
-138
-138
-137
-137
-137
-137
-137
-137
-137
-137
-137
-137
-137
-138
-138
-138
-138
-138
-138
-138
-138
-138
-138
-138
-138
-138
-138
-138
-138
-138
-137
-137
-137
-137
-137
-137
-137
-137
-137
-137
-137
-137
-137
-137
-137
-137
-137
-137
-137
-137
-138
-138
-138
-138
-138
-138
-138
-138
-138
-138
-138
-138
-138
-138
-138
-138
-138
-138
-138
-138
-138
-138
-137
-137
-138
-137
-137
-137
-137
-137
-137
-137
-137
-138
-138
-138
-138
-138
-138
-138
-138
-138
-138
-138
-138
-138
-138
-138
-138
-138
-138
-138
-138
-138
-138
-137
-137
-137
-137
-137
-137
-137
-137
-137
-137
-137
-137
-138
-137
-137
-137
-137
-137
-137
-137
-137
-137
-137
-137
-138
-138
-138
-138
-138
-138
-138
-138
-138
-138
-139
-139
-139
-139
-139
-139
-140
-140
-140
-140
-140
-140
-140
-139
-139
-139
-139
-139
-139
-139
-139
-139
-139
-139
-139
-139
-139
-139
-139
-139
-139
-139
-139
-139
-139
-139
-139
-139
-139
-139
-140
-141
-141
-141
-141
-141
-141
-141
-141
-141
-141
-141
-141
-141
-141
-141
-140
-140
-140
-140
-140
-140
-140
-139
-139
-139
-139
-139
-139
-139
-139
-139
-139
-139
-139
-139
-139
-139
-139
-139
-139
-139
-139
-139
-139
-139
-140
-140
-140
-140
-140
-140
-140
-140
-140
-141
-141
-141
-141
-141
-141
-141
-141
-141
-141
-141
-141
-141
-140
-140
-140
-140
-140
-140
-140
-140
-140
-140
-139
-139
-138
-138
-138
-139
-139
-139
-139
-139
-139
-139
-139
-139
-139
-139
-139
-139
-139
-139
-139
-139
-138
-138
-138
-138
-138
-137
-137
-137
-137
-137
-136
-136
-136
-135
-135
-134
-134
-134
-134
-133
-133
-133
-132
-132
-131
-131
-131
-130
-131
-130
-130
-130
-129
-129
-129
-129
-128
-128
-128
-128
-129
-129
-129
-129
-129
-128
-128
-128
-127
-127
-127
-127
-127
-126
-126
-126
-126
-125
-125
-125
-125
-125
-123
-123
-123
-123
-122
-122
-122
-122
-122
-121
-121
-121
-121
-121
-120
-120
-120
-120
-120
-120
-120
-119
-120
-119
-119
-119
-120
-119
-119
-120
-119
-119
-120
-120
-120
-120
-121
-121
-121
-123
-123
-123
-124
-125
-125
-126
-127
-127
-128
-129
-130
-130
-131
-131
-133
-133
-134
-134
-134
-134
-135
-135
-135
-135
-136
-136
-136
-137
-137
-136
-136
-136
-136
-136
-136
-136
-137
-137
-137
-137
-137
-137
-137
-137
-138
-137
-138
-138
-138
-138
-138
-138
-138
-138
-138
-138
-138
-138
-138
-137
-137
-137
-137
-137
-137
-137
-137
-137
-137
-137
-137
-137
-137
-137
-137
-137
-137
-137
-137
-138
-138
-138
-137
-137
-137
-137
-137
-137
-137
-137
-137
-137
-137
-137
-137
-137
-136
-136
-136
-136
-136
-136
-136
-135
-135
-135
-135
-135
-135
-135
-136
-136
-136
-136
-137
-136
-137
-137
-138
-138
-139
-139
-140
-140
-142
-142
-143
-144
-145
-147
-147
-148
-149
-150
-150
-149
-149
-148
-146
-143
-140
-135
-131
-124
-117
-108
-99
-88
-77
-64
-50
-35
-18
-1
17
36
54
74
93
114
133
153
173
191
209
226
241
253
264
272
279
283
284
283
280
275
267
255
242
225
206
186
164
142
119
95
71
47
23
0
-22
-42
-62
-80
-96
-110
-123
-133
-142
-148
-153
-156
-159
-160
-160
-159
-157
-154
-152
-149
-145
-142
-139
-135
-133
-129
-127
-124
-122
-120
-118
-117
-115
-114
-114
-113
-113
-113
-114
-114
-115
-115
-116
-117
-117
-118
-118
-118
-119
-119
-119
-119
-120
-120
-120
-120
-120
-120
-120
-120
-120
-120
-120
-120
-119
-119
-119
-118
-118
-118
-118
-118
-117
-117
-117
-117
-117
-117
-117
-117
-117
-116
-116
-116
-116
-116
-116
-116
-115
-115
-115
-115
-115
-114
-114
-114
-114
-114
-114
-114
-113
-112
-112
-112
-113
-113
-111
-111
-111
-111
-111
-111
-110
-110
-110
-109
-109
-109
-109
-109
-108
-108
-108
-108
-106
-106
-106
-106
-106
-106
-105
-105
-105
-105
-105
-105
-105
-104
-104
-103
-103
-103
-103
-103
-103
-103
-103
-103
-103
-103
-102
-101
-101
-101
-101
-101
-101
-101
-101
-101
-100
-100
-99
-99
-99
-99
-99
-99
-99
-98
-98
-98
-98
-98
-98
-97
-97
-96
-96
-95
-95
-95
-94
-94
-94
-94
-93
-92
-92
-92
-91
-91
-91
-91
-90
-89
-89
-89
-89
-87
-87
-87
-87
-86
-86
-86
-85
-85
-84
-84
-84
-84
-84
-84
-83
-82
-82
-82
-82
-81
-81
-81
-80
-80
-80
-78
-78
-78
-77
-77
-76
-76
-75
-75
-74
-74
-73
-73
-71
-70
-70
-69
-69
-68
-66
-66
-65
-64
-64
-62
-61
-61
-60
-58
-58
-57
-56
-55
-54
-53
-52
-51
-49
-49
-48
-47
-46
-44
-44
-42
-42
-41
-40
-38
-37
-36
-35
-34
-33
-32
-31
-30
-28
-27
-26
-25
-24
-23
-21
-20
-19
-17
-16
-14
-13
-12
-10
-9
-7
-5
-4
-2
-1
0
2
3
5
6
8
10
11
12
13
14
16
17
19
20
21
21
23
23
24
25
27
27
28
30
30
31
32
33
34
34
34
35
36
36
37
36
36
37
36
36
35
36
35
34
34
33
32
31
30
30
29
28
27
25
23
22
20
18
16
14
12
9
7
5
2
0
-3
-5
-8
-10
-13
-16
-18
-22
-25
-27
-30
-33
-35
-37
-40
-43
-46
-47
-50
-53
-55
-58
-60
-62
-64
-66
-68
-71
-72
-74
-76
-79
-80
-82
-83
-85
-87
-88
-90
-92
-93
-94
-96
-97
-98
-100
-101
-102
-103
-105
-105
-107
-107
-108
-109
-109
-111
-111
-112
-113
-113
-114
-115
-115
-116
-116
-116
-118
-118
-118
-118
-119
-119
-120
-120
-121
-121
-121
-122
-122
-122
-123
-123
-123
-123
-123
-123
-123
-123
-123
-123
-123
-123
-123
-123
-123
-124
-124
-124
-124
-124
-124
-124
-125
-125
-125
-125
-125
-125
-125
-125
-125
-125
-125
-125
-126
-126
-126
-126
-126
-126
-126
-126
-126
-126
-126
-126
-126
-126
-126
-125
-125
-125
-125
-125
-125
-125
-126
-126
-126
-126
-126
-126
-126
-126
-126
-125
-125
-125
-125
-125
-125
-125
-125
-125
-125
-125
-125
-125
-125
-125
-125
-125
-125
-125
-125
-125
-125
-125
-125
-125
-125
-125
-125
-125
-125
-125
-125
-125
-125
-125
-125
-125
-125
-126
-126
-126
-126
-126
-126
-127
-127
-127
-127
-127
-127
-128
-128
-128
-128
-128
-128
-128
-128
-128
-128
-128
-128
-128
-128
-129
-129
-129
-129
-129
-129
-128
-128
-128
-128
-128
-128
-129
-129
-129
-129
-129
-129
-130
-130
-130
-130
-131
-131
-131
-131
-131
-131
-131
-131
-131
-131
-131
-131
-130
-130
-130
-130
-130
-130
-131
-131
-131
-131
-131
-131
-131
-131
-131
-131
-132
-132
-132
-132
-132
-132
-132
-132
-132
-132
-132
-132
-132
-132
-132
-132
-132
-132
-132
-132
-132
-132
-132
-132
-132
-132
-132
-133
-133
-133
-133
-133
-133
-133
-132
-132
-132
-132
-132
-132
-133
-133
-133
-133
-133
-133
-133
-133
-133
-133
-133
-133
-133
-133
-133
-133
-133
-133
-132
-132
-132
-132
-133
-132
-133
-133
-133
-133
-133
-133
-133
-133
-133
-133
-133
-133
-133
-133
-133
-133
-133
-133
-133
-133
-133
-133
-133
-133
-133
-133
-132
-132
-132
-132
-132
-132
-132
-131
-131
-132
-132
-132
-132
-132
-132
-132
-132
-132
-132
-132
-132
-132
-132
-132
-132
-131
-132
-132
-132
-133
-132
-132
-132
-132
-132
-133
-133
-133
-133
-133
-133
-133
-133
-133
-133
-133
-133
-134
-134
-134
-134
-134
-134
-134
-134
-132
-132
-132
-132
-132
-132
-132
-132
-133
-133
-133
-132
-132
-132
-132
-132
-132
-132
-132
-132
-132
-132
-132
-132
-132
-132
-132
-132
-132
-132
-132
-132
-132
-132
-132
-132
-132
-132
-132
-132
-133
-133
-133
-132
-132
-132
-132
-132
-132
-132
-133
-133
-133
-133
-133
-133
-134
-134
-134
-134
-134
-134
-134
-134
-134
-134
-135
-134
-134
-134
-134
-134
-134
-133
-133
-133
-133
-133
-133
-133
-133
-133
-133
-133
-133
-133
-133
-133
-133
-133
-133
-133
-133
-133
-134
-134
-134
-133
-133
-133
-133
-133
-133
-133
-133
-133
-133
-133
-133
-133
-133
-133
-133
-133
-133
-133
-133
-133
-133
-132
-132
-132
-132
-132
-132
-132
-132
-132
-132
-132
-132
-132
-132
-132
-132
-132
-132
-132
-132
-131
-132
-132
-132
-132
-132
-132
-132
-132
-132
-132
-132
-132
-132
-132
-132
-132
-132
-132
-132
-132
-132
-132
-132
-132
-132
-132
-132
-132
-132
-132
-132
-132
-132
-132
-132
-132
-132
-131
-131
-131
-131
-131
-131
-132
-132
-132
-132
-132
-132
-132
-132
-132
-132
-132
-131
-131
-131
-131
-131
-132
-132
-132
-132
-132
-132
-132
-132
-132
-132
-132
-132
-132
-132
-132
-133
-132
-132
-132
-132
-132
-132
-132
-132
-132
-132
-132
-132
-131
-131
-131
-131
-130
-131
-131
-131
-131
-131
-131
-130
-130
-130
-130
-130
-130
-130
-130
-130
-130
-130
-130
-130
-129
-129
-129
-129
-129
-129
-129
-129
-129
-129
-129
-129
-130
-130
-130
-130
-130
-130
-130
-131
-131
-131
-130
-130
-130
-130
-130
-130
-130
-130
-130
-130
-130
-130
-130
-130
-130
-129
-129
-129
-129
-129
-129
-129
-130
-130
-129
-129
-129
-129
-129
-129
-129
-129
-129
-129
-130
-129
-129
-129
-129
-129
-129
-129
-129
-129
-129
-129
-129
-129
-129
-129
-129
-129
-129
-130
-130
-129
-129
-129
-129
-129
-129
-129
-129
-127
-127
-127
-127
-127
-127
-127
-126
-126
-125
-125
-125
-125
-124
-123
-123
-122
-122
-122
-121
-121
-121
-120
-120
-120
-119
-119
-119
-118
-118
-118
-119
-118
-118
-118
-117
-117
-118
-118
-118
-118
-118
-118
-118
-118
-118
-118
-118
-118
-118
-117
-117
-116
-116
-116
-116
-116
-115
-115
-115
-114
-113
-113
-113
-112
-112
-112
-112
-111
-111
-111
-111
-111
-111
-111
-111
-110
-110
-110
-110
-111
-110
-110
-111
-111
-111
-110
-111
-111
-111
-111
-111
-111
-111
-112
-112
-113
-113
-113
-114
-114
-114
-114
-115
-115
-117
-117
-117
-118
-119
-119
-119
-121
-121
-121
-122
-122
-123
-123
-123
-124
-124
-124
-124
-125
-125
-125
-125
-125
-126
-126
-126
-126
-126
-126
-126
-126
-127
-127
-127
-127
-127
-127
-127
-127
-128
-128
-128
-128
-128
-128
-128
-128
-128
-128
-128
-128
-128
-128
-128
-128
-128
-128
-128
-127
-127
-128
-128
-128
-128
-128
-128
-128
-128
-127
-127
-127
-127
-127
-126
-126
-127
-127
-127
-127
-127
-127
-127
-127
-127
-127
-127
-127
-127
-127
-127
-127
-127
-127
-127
-127
-127
-126
-126
-126
-126
-126
-126
-126
-126
-126
-126
-126
-126
-126
-126
-126
-127
-127
-128
-128
-128
-128
-129
-130
-131
-132
-132
-133
-134
-136
-136
-136
-137
-137
-137
-137
-136
-134
-132
-128
-125
-120
-115
-108
-101
-93
-83
-73
-61
-48
-34
-19
-3
14
32
50
69
88
108
127
147
167
186
205
222
238
253
266
277
286
293
297
299
300
297
291
284
273
260
243
226
206
184
162
139
116
92
68
44
21
-2
-23
-42
-60
-77
-92
-105
-116
-125
-133
-139
-142
-145
-147
-147
-146
-145
-143
-140
-138
-135
-131
-128
-125
-123
-121
-117
-115
-113
-112
-110
-109
-109
-108
-108
-108
-108
-109
-108
-109
-110
-111
-111
-111
-112
-113
-113
-114
-114
-115
-115
-116
-116
-115
-116
-116
-116
-116
-116
-116
-116
-116
-116
-115
-115
-115
-115
-115
-115
-115
-115
-115
-115
-114
-114
-114
-114
-114
-114
-114
-114
-114
-113
-113
-113
-112
-112
-112
-112
-112
-112
-112
-112
-110
-110
-110
-110
-110
-110
-110
-109
-109
-109
-108
-108
-108
-108
-108
-108
-108
-108
-108
-107
-107
-107
-107
-107
-107
-106
-106
-106
-106
-106
-106
-105
-105
-105
-104
-104
-105
-105
-105
-105
-104
-103
-103
-103
-103
-103
-103
-103
-103
-103
-102
-102
-102
-102
-102
-101
-101
-101
-101
-100
-100
-100
-100
-100
-98
-98
-98
-98
-98
-97
-97
-97
-97
-97
-97
-97
-96
-96
-96
-96
-96
-96
-95
-95
-95
-95
-95
-95
-95
-95
-94
-94
-94
-94
-93
-93
-93
-93
-93
-93
-92
-92
-92
-92
-92
-91
-91
-91
-91
-90
-90
-90
-89
-89
-89
-89
-87
-87
-87
-87
-86
-86
-86
-85
-84
-84
-84
-84
-83
-82
-82
-82
-81
-80
-80
-79
-79
-79
-77
-77
-76
-76
-75
-75
-74
-73
-72
-71
-71
-70
-70
-68
-68
-67
-67
-66
-65
-65
-63
-63
-62
-61
-61
-60
-60
-58
-57
-56
-56
-55
-53
-52
-51
-50
-49
-48
-46
-45
-44
-43
-41
-40
-39
-38
-36
-35
-34
-33
-31
-30
-29
-28
-26
-25
-25
-23
-22
-21
-20
-18
-17
-16
-14
-13
-12
-10
-9
-7
-6
-5
-3
-2
-1
1
2
4
6
7
9
10
12
13
13
15
16
18
19
20
21
21
23
23
24
25
26
27
28
29
29
30
31
31
33
33
33
33
34
34
34
34
35
34
34
34
33
33
32
31
30
29
29
28
26
25
24
21
20
18
16
14
11
10
7
6
3
1
-2
-3
-6
-9
-11
-13
-16
-19
-20
-23
-26
-28
-30
-33
-36
-39
-40
-43
-46
-49
-51
-53
-56
-58
-61
-63
-65
-67
-70
-72
-74
-76
-77
-80
-81
-83
-85
-86
-88
-90
-91
-93
-94
-96
-98
-98
-100
-102
-103
-105
-106
-107
-108
-109
-109
-111
-112
-112
-114
-114
-114
-116
-116
-117
-117
-118
-119
-119
-119
-120
-120
-121
-121
-121
-121
-123
-123
-123
-123
-124
-124
-124
-124
-125
-125
-125
-125
-125
-125
-125
-125
-125
-125
-126
-126
-126
-126
-126
-126
-126
-126
-126
-126
-126
-127
-127
-127
-127
-128
-128
-128
-128
-128
-128
-128
-128
-128
-128
-128
-128
-128
-128
-128
-128
-128
-128
-128
-128
-128
-128
-128
-129
-129
-129
-128
-128
-128
-128
-128
-129
-129
-129
-129
-129
-129
-129
-129
-129
-129
-129
-128
-128
-128
-128
-129
-128
-128
-128
-128
-128
-128
-128
-128
-128
-128
-128
-128
-128
-128
-128
-128
-128
-128
-127
-127
-127
-127
-127
-127
-127
-127
-127
-127
-127
-127
-127
-127
-127
-127
-127
-127
-127
-127
-127
-127
-127
-127
-127
-127
-127
-127
-127
-127
-127
-127
-128
-128
-128
-128
-128
-129
-129
-129
-129
-129
-129
-129
-129
-129
-129
-129
-129
-130
-130
-130
-130
-130
-130
-130
-130
-130
-130
-130
-130
-130
-130
-130
-130
-129
-129
-129
-129
-129
-129
-129
-129
-129
-129
-129
-129
-129
-129
-130
-131
-131
-131
-131
-131
-131
-131
-131
-131
-132
-132
-132
-132
-132
-132
-132
-132
-132
-132
-132
-132
-132
-132
-132
-133
-133
-133
-133
-133
-134
-133
-133
-133
-133
-133
-133
-134
-134
-134
-133
-133
-133
-133
-133
-134
-134
-134
-134
-134
-134
-134
-134
-134
-134
-134
-134
-135
-135
-135
-135
-135
-135
-135
-134
-134
-134
-134
-134
-134
-134
-134
-134
-134
-134
-134
-134
-134
-134
-134
-135
-135
-135
-135
-135
-135
-135
-135
-135
-135
-135
-135
-135
-136
-136
-136
-136
-136
-136
-136
-136
-136
-136
-137
-137
-137
-136
-136
-136
-136
-136
-136
-136
-136
-136
-136
-136
-136
-136
-136
-136
-136
-136
-136
-136
-136
-136
-136
-136
-136
-136
-136
-136
-136
-136
-136
-136
-136
-136
-136
-137
-137
-137
-137
-137
-137
-137
-137
-137
-137
-137
-137
-137
-136
-136
-136
-136
-136
-136
-136
-136
-136
-136
-136
-137
-137
-137
-137
-137
-137
-137
-137
-138
-138
-138
-138
-138
-138
-138
-138
-138
-138
-138
-138
-138
-138
-138
-138
-139
-139
-139
-139
-139
-139
-139
-139
-139
-140
-140
-139
-139
-139
-140
-140
-140
-140
-141
-140
-140
-140
-141
-141
-141
-141
-140
-140
-140
-140
-140
-141
-141
-141
-141
-140
-140
-140
-140
-140
-140
-140
-141
-141
-141
-141
-141
-141
-141
-141
-141
-141
-141
-141
-141
-142
-142
-142
-142
-142
-142
-142
-142
-141
-141
-141
-141
-141
-141
-140
-140
-140
-141
-141
-141
-141
-141
-140
-140
-140
-140
-141
-141
-141
-141
-142
-142
-142
-143
-143
-142
-142
-142
-142
-143
-143
-143
-144
-144
-144
-143
-143
-143
-143
-143
-143
-142
-142
-142
-142
-142
-142
-143
-143
-142
-142
-142
-141
-142
-142
-142
-142
-142
-142
-142
-142
-142
-143
-143
-143
-143
-143
-143
-143
-143
-143
-143
-143
-143
-143
-142
-142
-142
-142
-142
-142
-142
-142
-142
-142
-142
-142
-142
-142
-142
-142
-142
-142
-142
-142
-142
-142
-142
-142
-143
-143
-143
-142
-142
-142
-142
-142
-142
-142
-142
-142
-142
-142
-142
-142
-142
-141
-141
-141
-141
-141
-141
-141
-141
-141
-141
-141
-141
-141
-141
-141
-141
-141
-141
-141
-141
-141
-141
-141
-141
-141
-142
-142
-142
-142
-142
-142
-142
-142
-142
-142
-142
-142
-142
-142
-142
-142
-142
-142
-142
-142
-142
-142
-142
-142
-142
-142
-142
-142
-143
-143
-143
-142
-142
-142
-142
-142
-142
-142
-143
-143
-143
-143
-143
-143
-143
-143
-143
-143
-143
-143
-143
-143
-143
-143
-143
-143
-143
-143
-143
-144
-143
-143
-143
-143
-144
-144
-144
-144
-144
-143
-143
-143
-143
-143
-143
-143
-143
-143
-143
-143
-143
-143
-143
-142
-141
-141
-141
-141
-141
-141
-141
-141
-141
-141
-140
-139
-139
-139
-139
-139
-139
-138
-138
-138
-137
-137
-137
-136
-136
-136
-135
-135
-135
-134
-134
-134
-134
-134
-134
-134
-134
-134
-134
-135
-135
-135
-134
-134
-134
-134
-134
-134
-134
-133
-133
-133
-133
-133
-132
-132
-131
-131
-130
-129
-129
-129
-128
-128
-128
-128
-128
-127
-126
-126
-126
-126
-126
-126
-126
-126
-126
-125
-126
-126
-126
-126
-126
-126
-126
-126
-126
-127
-126
-126
-127
-126
-127
-127
-128
-128
-129
-129
-130
-130
-131
-131
-132
-132
-133
-134
-135
-135
-136
-137
-137
-138
-138
-138
-139
-139
-140
-140
-141
-141
-141
-141
-142
-142
-142
-142
-142
-142
-142
-142
-142
-143
-143
-143
-143
-142
-142
-142
-142
-143
-142
-142
-142
-142
-142
-142
-142
-142
-142
-142
-142
-142
-142
-142
-142
-142
-142
-142
-142
-142
-142
-142
-142
-142
-142
-142
-142
-143
-143
-143
-143
-143
-143
-143
-143
-143
-143
-143
-143
-143
-144
-144
-144
-143
-143
-143
-143
-143
-143
-143
-143
-143
-143
-143
-143
-143
-144
-144
-143
-143
-143
-143
-143
-143
-143
-143
-143
-143
-143
-143
-143
-143
-143
-144
-144
-145
-145
-146
-147
-147
-148
-150
-150
-152
-152
-154
-155
-157
-158
-159
-159
-160
-159
-159
-158
-156
-153
-150
-146
-141
-135
-128
-121
-111
-101
-89
-76
-63
-49
-33
-15
2
20
39
57
77
96
116
135
155
173
192
207
222
236
246
255
262
266
268
269
266
261
252
241
228
212
194
173
152
130
108
85
61
37
14
-9
-31
-51
-70
-89
-104
-118
-131
-141
-149
-156
-161
-165
-167
-168
-168
-168
-166
-165
-162
-158
-156
-152
-149
-146
-143
-140
-137
-135
-133
-131
-130
-128
-127
-126
-124
-124
-124
-124
-124
-124
-123
-124
-123
-124
-125
-125
-124
-125
-125
-126
-126
-126
-126
-126
-126
-127
-127
-127
-127
-126
-126
-126
-126
-126
-126
-126
-126
-127
-127
-127
-127
-126
-126
-125
-125
-125
-125
-125
-125
-125
-125
-125
-125
-126
-126
-126
-124
-124
-124
-124
-124
-124
-124
-123
-123
-123
-123
-123
-123
-122
-122
-122
-121
-121
-121
-120
-120
-120
-120
-120
-118
-118
-118
-118
-118
-118
-117
-117
-117
-117
-116
-116
-116
-116
-116
-115
-115
-115
-115
-114
-113
-113
-113
-113
-113
-113
-113
-113
-113
-112
-112
-112
-112
-111
-110
-111
-111
-110
-110
-110
-110
-109
-108
-108
-107
-107
-107
-107
-106
-106
-106
-105
-105
-105
-104
-104
-104
-104
-104
-103
-103
-103
-103
-103
-102
-102
-101
-101
-101
-101
-101
-101
-100
-100
-99
-99
-99
-99
-99
-98
-97
-97
-97
-96
-96
-95
-95
-95
-95
-94
-93
-93
-93
-93
-93
-91
-91
-91
-91
-90
-90
-90
-89
-89
-88
-87
-87
-87
-86
-86
-86
-85
-85
-85
-84
-84
-84
-83
-83
-82
-82
-81
-81
-80
-79
-79
-78
-78
-76
-76
-75
-75
-73
-73
-72
-71
-71
-70
-69
-69
-68
-66
-65
-64
-64
-63
-62
-61
-60
-59
-57
-56
-55
-55
-53
-52
-51
-50
-48
-47
-46
-45
-45
-43
-42
-41
-40
-38
-37
-36
-34
-33
-32
-31
-30
-29
-27
-26
-25
-22
-21
-20
-19
-18
-16
-15
-13
-11
-10
-9
-7
-6
-4
-3
-1
1
2
3
5
6
7
9
10
12
13
14
16
17
18
20
21
21
23
23
24
25
26
27
28
28
29
30
31
31
32
32
33
33
33
34
33
34
33
33
33
33
32
32
32
31
30
28
27
26
24
23
22
20
19
16
14
12
10
8
6
3
1
-2
-4
-7
-9
-11
-14
-16
-19
-22
-24
-27
-30
-32
-35
-37
-39
-42
-44
-47
-50
-52
-54
-57
-59
-61
-64
-66
-68
-71
-72
-75
-77
-78
-81
-82
-84
-85
-88
-90
-91
-93
-94
-96
-98
-99
-99
-101
-102
-104
-104
-106
-107
-108
-109
-111
-111
-113
-113
-114
-115
-116
-116
-117
-118
-118
-118
-120
-120
-120
-120
-121
-121
-122
-122
-122
-122
-122
-122
-123
-124
-124
-124
-124
-125
-125
-125
-125
-125
-125
-125
-125
-125
-125
-125
-125
-125
-125
-125
-125
-125
-125
-125
-124
-124
-124
-124
-124
-124
-125
-125
-125
-125
-124
-124
-124
-124
-124
-124
-124
-124
-124
-124
-124
-124
-124
-123
-124
-124
-124
-124
-124
-125
-125
-125
-125
-125
-125
-124
-124
-124
-124
-124
-124
-125
-125
-125
-125
-125
-125
-125
-125
-124
-124
-124
-124
-124
-124
-124
-124
-124
-124
-124
-124
-124
-124
-124
-124
-124
-124
-124
-124
-124
-124
-123
-123
-123
-123
-123
-123
-123
-123
-123
-123
-123
-123
-123
-124
-123
-123
-123
-123
-123
-123
-123
-123
-123
-123
-123
-123
-123
-123
-123
-123
-124
-124
-124
-124
-124
-125
-125
-125
-125
-125
-125
-125
-125
-125
-125
-125
-125
-125
-124
-124
-124
-124
-124
-125
-125
-125
-125
-125
-125
-125
-126
-126
-126
-126
-126
-126
-126
-126
-126
-126
-126
-126
-126
-126
-126
-126
-126
-126
-126
-126
-127
-127
-127
-127
-127
-127
-127
-127
-127
-127
-127
-127
-127
-127
-127
-127
-127
-127
-127
-127
-127
-127
-127
-127
-127
-127
-127
-127
-126
-126
-126
-126
-126
-126
-126
-126
-126
-127
-127
-127
-127
-126
-127
-127
-127
-127
-127
-127
-127
-127
-127
-127
-126
-126
-126
-126
-126
-126
-126
-126
-126
-126
-126
-126
-126
-126
-126
-126
-126
-126
-126
-126
-126
-126
-126
-126
-126
-126
-126
-126
-126
-126
-126
-126
-126
-127
-127
-127
-126
-126
-126
-126
-126
-126
-126
-126
-126
-127
-127
-126
-127
-127
-126
-126
-125
-125
-126
-127
-127
-127
-126
-126
-126
-126
-126
-126
-126
-126
-126
-126
-126
-126
-126
-126
-126
-126
-126
-126
-126
-126
-126
-126
-126
-126
-126
-126
-126
-126
-126
-126
-126
-126
-126
-126
-126
-126
-126
-126
-126
-126
-126
-126
-126
-126
-126
-126
-126
-126
-126
-126
-126
-126
-126
-126
-126
-126
-126
-126
-126
-126
-126
-126
-126
-126
-126
-127
-127
-127
-127
-127
-127
-127
-127
-127
-127
-127
-127
-127
-126
-126
-126
-126
-126
-126
-126
-126
-126
-126
-126
-125
-125
-126
-126
-126
-126
-127
-127
-127
-127
-126
-126
-126
-126
-126
-126
-126
-126
-126
-127
-127
-127
-127
-127
-127
-128
-128
-127
-127
-127
-127
-127
-127
-127
-127
-127
-127
-128
-128
-128
-128
-128
-128
-127
-127
-127
-127
-127
-126
-126
-126
-126
-126
-126
-126
-126
-126
-126
-126
-126
-126
-126
-125
-125
-125
-125
-125
-125
-125
-125
-125
-125
-125
-124
-124
-125
-125
-125
-125
-126
-125
-125
-125
-125
-125
-125
-125
-126
-126
-127
-127
-127
-127
-127
-127
-127
-127
-127
-127
-127
-127
-127
-127
-127
-127
-127
-127
-127
-127
-127
-127
-127
-125
-125
-125
-125
-125
-125
-125
-125
-125
-125
-125
-125
-125
-125
-125
-125
-125
-124
-124
-124
-124
-124
-124
-124
-124
-124
-124
-125
-125
-125
-125
-125
-124
-124
-124
-124
-125
-125
-125
-125
-125
-125
-125
-125
-125
-125
-125
-125
-125
-125
-125
-125
-125
-125
-125
-125
-125
-125
-125
-125
-125
-125
-125
-125
-125
-125
-125
-125
-125
-125
-125
-125
-125
-125
-125
-125
-125
-125
-125
-125
-125
-125
-125
-125
-125
-126
-125
-125
-125
-125
-125
-125
-125
-125
-124
-124
-125
-126
-125
-125
-125
-125
-125
-125
-125
-125
-125
-125
-125
-126
-126
-126
-126
-126
-126
-126
-126
-126
-126
-125
-125
-125
-125
-125
-125
-125
-125
-125
-125
-124
-124
-124
-124
-124
-125
-125
-125
-125
-125
-125
-125
-125
-124
-124
-124
-124
-124
-124
-124
-124
-124
-124
-124
-124
-124
-124
-124
-124
-124
-124
-123
-123
-123
-123
-122
-122
-121
-121
-120
-120
-120
-119
-119
-119
-119
-119
-119
-118
-118
-117
-117
-117
-116
-116
-116
-116
-116
-115
-115
-115
-115
-115
-115
-115
-115
-115
-115
-115
-115
-115
-115
-116
-116
-115
-116
-115
-115
-114
-114
-113
-113
-113
-113
-112
-112
-112
-111
-111
-111
-110
-110
-110
-110
-109
-109
-109
-109
-110
-110
-109
-109
-109
-109
-109
-110
-109
-109
-109
-109
-109
-109
-109
-109
-109
-109
-110
-110
-110
-110
-111
-111
-111
-111
-111
-112
-112
-112
-113
-114
-114
-115
-116
-116
-117
-117
-119
-119
-119
-120
-120
-120
-121
-121
-122
-122
-122
-122
-122
-123
-123
-123
-123
-124
-123
-123
-123
-123
-123
-123
-123
-123
-123
-123
-123
-123
-123
-123
-123
-123
-123
-124
-124
-124
-124
-124
-124
-124
-124
-124
-124
-124
-124
-124
-124
-124
-124
-124
-124
-124
-124
-124
-124
-124
-124
-124
-124
-124
-123
-123
-123
-123
-123
-123
-123
-123
-123
-123
-123
-123
-123
-123
-123
-123
-123
-123
-123
-123
-123
-123
-122
-122
-122
-122
-122
-122
-121
-121
-121
-121
-121
-121
-120
-120
-120
-120
-120
-120
-121
-121
-121
-121
-121
-122
-122
-124
-124
-124
-125
-126
-127
-128
-129
-130
-131
-131
-132
-131
-131
-130
-129
-127
-124
-120
-116
-110
-104
-97
-88
-79
-70
-57
-44
-31
-15
1
18
35
53
71
90
110
130
149
170
188
208
225
242
258
271
283
292
299
304
307
308
306
301
294
284
272
257
239
220
199
177
154
132
107
83
60
37
13
-8
-28
-47
-64
-79
-93
-104
-114
-122
-128
-133
-137
-138
-138
-138
-137
-135
-133
-131
-127
-125
-121
-118
-115
-113
-110
-108
-106
-105
-104
-103
-102
-101
-101
-100
-99
-100
-100
-100
-100
-101
-102
-102
-102
-103
-103
-104
-104
-104
-104
-104
-106
-106
-106
-106
-106
-105
-105
-105
-105
-106
-106
-106
-106
-106
-105
-105
-106
-106
-106
-106
-106
-106
-105
-105
-105
-105
-105
-104
-104
-104
-103
-103
-103
-103
-102
-102
-102
-102
-102
-102
-101
-101
-101
-101
-101
-100
-100
-100
-100
-100
-99
-99
-99
-99
-99
-98
-98
-98
-98
-98
-97
-97
-97
-97
-97
-96
-96
-96
-96
-96
-95
-95
-95
-95
-95
-93
-93
-93
-92
-92
-92
-91
-91
-91
-91
-90
-90
-90
-90
-89
-89
-89
-89
-89
-88
-87
-87
-87
-87
-87
-87
-87
-87
-87
-87
-87
-87
-86
-86
-86
-86
-86
-86
-85
-84
-84
-84
-84
-84
-84
-84
-84
-83
-83
-83
-82
-82
-82
-82
-82
-82
-82
-82
-82
-82
-81
-81
-81
-80
-80
-80
-80
-80
-79
-79
-79
-78
-78
-78
-77
-76
-76
-76
-76
-76
-75
-75
-75
-74
-73
-73
-73
-72
-72
-71
-71
-70
-70
-69
-69
-68
-68
-67
-67
-66
-66
-65
-64
-64
-64
-62
-62
-61
-61
-60
-60
-59
-58
-58
-57
-55
-55
-54
-53
-53
-52
-51
-51
-49
-48
-48
-47
-45
-44
-44
-43
-41
-40
-40
-39
-38
-36
-35
-35
-33
-32
-31
-29
-28
-27
-27
-26
-24
-23
-22
-21
-20
-19
-17
-16
-15
-13
-12
-11
-9
-8
-7
-6
-4
-3
-2
0
2
3
5
6
7
9
10
12
14
15
16
17
19
20
22
23
25
26
26
28
29
30
31
32
34
35
36
37
38
39
41
41
43
43
45
45
46
47
48
48
49
50
50
50
51
51
51
51
52
51
50
51
50
50
49
48
47
46
45
43
42
41
40
38
36
35
34
31
30
28
25
23
21
19
16
14
11
9
6
3
0
-2
-4
-7
-10
-13
-15
-17
-20
-23
-26
-28
-30
-33
-35
-37
-40
-43
-45
-47
-49
-52
-54
-56
-58
-60
-62
-64
-65
-67
-69
-71
-73
-74
-76
-78
-79
-80
-82
-83
-84
-86
-87
-88
-89
-90
-92
-92
-94
-95
-95
-97
-98
-98
-100
-100
-100
-101
-102
-102
-102
-103
-104
-104
-104
-104
-104
-104
-104
-104
-105
-105
-105
-105
-106
-106
-107
-107
-107
-107
-107
-107
-107
-107
-108
-109
-109
-109
-109
-109
-109
-109
-109
-109
-109
-110
-110
-110
-110
-110
-110
-110
-110
-110
-110
-110
-110
-110
-110
-110
-110
-110
-110
-110
-109
-109
-110
-110
-110
-110
-111
-111
-111
-111
-111
-110
-110
-110
-111
-111
-111
-111
-111
-111
-112
-111
-111
-111
-111
-111
-110
-110
-110
-110
-110
-110
-110
-110
-110
-111
-111
-111
-111
-111
-110
-110
-110
-110
-110
-111
-111
-111
-111
-111
-111
-111
-111
-111
-111
-111
-111
-111
-111
-111
-111
-111
-111
-111
-111
-111
-111
-111
-111
-111
-112
-111
-111
-111
-111
-111
-111
-111
-110
-110
-110
-110
-110
-110
-110
-110
-110
-110
-110
-110
-110
-110
-110
-111
-111
-111
-111
-111
-111
-111
-111
-111
-111
-112
-112
-112
-112
-112
-112
-112
-112
-112
-112
-112
-112
-112
-112
-112
-113
-113
-113
-113
-113
-113
-113
-113
-114
-114
-114
-114
-114
-114
-114
-114
-114
-114
-114
-114
-114
-114
-114
-113
-113
-113
-114
-114
-114
-114
-114
-114
-113
-113
-114
-114
-114
-114
-114
-114
-114
-114
-114
-114
-114
-114
-114
-114
-114
-114
-114
-114
-114
-114
-114
-115
-115
-115
-115
-115
-116
-116
-116
-115
-115
-115
-115
-116
-116
-116
-116
-116
-116
-116
-116
-117
-117
-117
-117
-116
-116
-116
-116
-116
-116
-116
-116
-116
-115
-115
-115
-114
-114
-114
-114
-114
-114
-114
-114
-114
-114
-114
-114
-114
-114
-114
-114
-114
-114
-114
-115
-115
-115
-114
-115
-115
-115
-115
-115
-115
-115
-115
-115
-115
-115
-115
-115
-116
-116
-116
-116
-116
-116
-117
-117
-117
-117
-117
-117
-117
-116
-117
-117
-117
-117
-117
-117
-117
-117
-117
-117
-117
-117
-117
-117
-117
-116
-116
-116
-116
-116
-116
-116
-116
-116
-116
-116
-116
-116
-116
-116
-116
-116
-117
-117
-117
-117
-117
-117
-118
-118
-118
-118
-119
-119
-119
-119
-119
-119
-119
-119
-119
-119
-119
-119
-119
-120
-120
-120
-120
-119
-119
-119
-119
-119
-119
-120
-119
-119
-119
-119
-119
-119
-119
-119
-119
-119
-119
-120
-120
-120
-120
-120
-120
-120
-121
-121
-121
-121
-121
-121
-121
-120
-120
-120
-120
-120
-120
-120
-120
-120
-120
-120
-119
-119
-119
-119
-119
-119
-119
-119
-119
-119
-119
-119
-119
-119
-119
-119
-119
-119
-120
-120
-120
-120
-120
-120
-120
-120
-120
-120
-122
-122
-122
-122
-121
-121
-122
-122
-122
-122
-122
-122
-122
-122
-122
-122
-121
-121
-121
-121
-121
-121
-121
-121
-121
-121
-121
-121
-122
-122
-122
-122
-122
-122
-122
-122
-122
-122
-122
-122
-122
-122
-122
-122
-123
-123
-123
-123
-123
-124
-123
-123
-123
-123
-123
-123
-123
-123
-123
-123
-122
-122
-122
-122
-122
-122
-122
-122
-122
-122
-122
-122
-122
-123
-123
-123
-124
-124
-124
-124
-125
-125
-125
-125
-124
-125
-125
-125
-125
-125
-125
-125
-125
-125
-125
-125
-125
-125
-125
-125
-124
-124
-124
-124
-124
-124
-124
-125
-125
-125
-125
-125
-125
-125
-125
-125
-125
-124
-124
-124
-124
-124
-124
-124
-124
-125
-126
-126
-126
-126
-126
-125
-125
-126
-126
-126
-126
-126
-126
-126
-126
-126
-126
-127
-127
-126
-126
-126
-126
-126
-127
-127
-127
-127
-127
-127
-127
-127
-127
-127
-126
-126
-127
-127
-127
-127
-127
-127
-127
-127
-127
-126
-126
-126
-126
-126
-126
-126
-126
-126
-126
-126
-126
-126
-126
-126
-125
-125
-125
-125
-125
-125
-125
-125
-125
-125
-125
-125
-125
-125
-125
-125
-125
-125
-125
-125
-125
-125
-125
-125
-125
-125
-125
-125
-125
-125
-125
-125
-125
-125
-125
-125
-125
-125
-126
-126
-125
-125
-125
-126
-126
-126
-126
-126
-126
-126
-126
-126
-126
-126
-126
-126
-126
-126
-126
-126
-125
-125
-125
-125
-125
-125
-125
-125
-125
-125
-125
-125
-125
-126
-126
-126
-126
-126
-126
-127
-127
-127
-127
-126
-126
-127
-127
-127
-127
-127
-127
-127
-127
-127
-127
-127
-127
-127
-127
-127
-127
-127
-127
-127
-127
-127
-127
-127
-127
-127
-127
-127
-127
-127
-127
-127
-127
-127
-127
-127
-127
-126
-126
-126
-126
-126
-126
-125
-126
-126
-126
-126
-126
-125
-125
-125
-125
-125
-125
-125
-124
-124
-124
-123
-123
-122
-123
-123
-122
-122
-122
-121
-121
-120
-120
-120
-120
-120
-120
-120
-120
-120
-120
-120
-119
-119
-119
-120
-120
-120
-120
-120
-120
-119
-119
-118
-118
-118
-118
-118
-117
-117
-116
-116
-115
-115
-115
-114
-114
-114
-112
-112
-112
-112
-112
-112
-112
-111
-112
-112
-112
-112
-112
-112
-112
-112
-113
-112
-112
-113
-113
-113
-114
-114
-114
-115
-115
-116
-116
-115
-116
-117
-118
-118
-118
-119
-120
-120
-121
-122
-122
-124
-124
-124
-125
-126
-125
-127
-127
-128
-128
-128
-129
-129
-129
-129
-130
-130
-130
-131
-131
-131
-131
-132
-132
-132
-132
-132
-132
-133
-133
-133
-133
-133
-133
-133
-133
-133
-133
-133
-133
-133
-133
-133
-133
-132
-132
-132
-132
-132
-133
-133
-133
-133
-133
-133
-133
-133
-133
-133
-133
-134
-134
-134
-133
-133
-133
-133
-134
-134
-134
-134
-134
-135
-135
-135
-135
-135
-135
-135
-135
-135
-135
-136
-136
-136
-136
-136
-136
-136
-136
-136
-135
-135
-134
-134
-134
-134
-134
-134
-134
-134
-134
-134
-134
-133
-133
-133
-134
-134
-134
-135
-136
-136
-137
-137
-138
-139
-141
-141
-143
-144
-145
-147
-148
-150
-150
-151
-152
-153
-152
-152
-150
-149
-147
-142
-138
-133
-127
-120
-111
-102
-91
-80
-66
-53
-38
-22
-5
13
31
50
69
89
109
129
149
168
187
205
221
236
248
259
268
275
279
281
280
277
271
263
252
238
222
203
183
161
138
116
92
68
43
20
-3
-25
-46
-66
-84
-100
-115
-127
-138
-147
-155
-159
-163
-165
-167
-167
-166
-165
-163
-160
-157
-154
-150
-148
-144
-141
-138
-135
-133
-131
-129
-127
-126
-124
-124
-123
-122
-121
-121
-121
-121
-121
-122
-121
-122
-123
-123
-123
-124
-124
-124
-124
-126
-126
-126
-126
-126
-126
-127
-127
-127
-128
-128
-128
-129
-129
-128
-128
-128
-128
-129
-129
-128
-128
-128
-128
-127
-127
-127
-127
-126
-126
-126
-125
-125
-125
-125
-125
-124
-124
-124
-124
-124
-124
-124
-124
-124
-124
-124
-123
-123
-123
-123
-123
-122
-122
-122
-122
-122
-122
-121
-121
-121
-121
-121
-121
-121
-121
-121
-121
-120
-120
-120
-120
-120
-120
-119
-119
-118
-118
-118
-118
-118
-117
-117
-117
-117
-117
-117
-117
-117
-115
-115
-115
-115
-115
-115
-114
-114
-114
-114
-114
-114
-114
-114
-113
-113
-113
-113
-113
-113
-113
-113
-113
-113
-112
-112
-111
-111
-111
-111
-110
-109
-109
-109
-109
-108
-108
-108
-108
-107
-107
-107
-107
-106
-105
-105
-104
-104
-104
-104
-104
-103
-103
-103
-103
-102
-102
-102
-101
-101
-101
-101
-101
-101
-101
-101
-101
-99
-99
-99
-99
-99
-99
-99
-97
-97
-97
-97
-97
-96
-96
-96
-95
-94
-94
-94
-93
-93
-91
-91
-91
-90
-90
-90
-89
-89
-88
-87
-86
-86
-85
-84
-84
-82
-82
-81
-80
-80
-78
-77
-77
-75
-74
-74
-73
-72
-71
-70
-69
-68
-67
-66
-65
-64
-63
-62
-61
-60
-59
-58
-56
-55
-54
-53
-51
-50
-49
-48
-46
-45
-44
-43
-41
-40
-39
-38
-35
-34
-33
-32
-30
-29
-27
-25
-24
-23
-21
-20
-19
-17
-15
-14
-12
-11
-9
-8
-6
-5
-2
-1
0
2
3
5
7
8
9
11
12
13
15
15
17
18
20
20
22
22
23
24
25
26
26
27
27
28
28
28
28
29
29
29
28
29
28
28
27
26
25
24
23
21
20
19
17
16
14
12
11
9
7
5
3
1
-1
-3
-6
-8
-11
-14
-16
-19
-21
-24
-26
-30
-33
-36
-38
-41
-44
-47
-50
-52
-55
-58
-61
-63
-66
-69
-71
-74
-76
-78
-81
-83
-85
-87
-90
-92
-93
-96
-98
-99
-102
-104
-105
-107
-109
-110
-112
-114
-116
-116
-117
-119
-120
-122
-123
-124
-125
-126
-127
-128
-129
-130
-131
-131
-132
-133
-134
-134
-134
-135
-135
-136
-136
-136
-137
-137
-137
-139
-139
-139
-139
-140
-140
-140
-140
-141
-141
-141
-141
-141
-142
-142
-142
-142
-143
-143
-143
-143
-142
-142
-142
-143
-143
-143
-143
-143
-143
-144
-144
-144
-144
-144
-144
-144
-144
-144
-145
-145
-145
-145
-145
-145
-145
-145
-145
-145
-145
-146
-146
-146
-146
-146
-146
-146
-145
-145
-145
-145
-145
-145
-145
-144
-143
-143
-143
-143
-143
-143
-143
-143
-143
-143
-143
-143
-143
-143
-143
-143
-143
-143
-143
-143
-143
-143
-143
-143
-143
-143
-143
-144
-144
-143
-144
-144
-144
-144
-144
-144
-143
-143
-143
-143
-143
-143
-143
-144
-144
-144
-144
-143
-143
-143
-143
-143
-143
-143
-143
-143
-142
-143
-143
-143
-143
-143
-143
-144
-144
-144
-144
-144
-144
-144
-144
-144
-144
-144
-144
-145
-145
-145
-145
-145
-145
-145
-145
-145
-146
-146
-146
-145
-145
-145
-145
-145
-146
-146
-146
-146
-146
-146
-146
-146
-146
-146
-147
-147
-147
-147
-147
-147
-147
-147
-147
-147
-146
-146
-146
-146
-147
-147
-147
-147
-148
-147
-147
-147
-147
-147
-148
-148
-148
-148
-148
-148
-148
-148
-149
-149
-149
-149
-149
-149
-149
-149
-149
-149
-149
-149
-148
-148
-148
-148
-148
-148
-148
-148
-148
-148
-148
-147
-147
-147
-147
-147
-147
-147
-147
-147
-147
-147
-147
-147
-147
-147
-147
-147
-148
-148
-148
-148
-148
-147
-147
-147
-147
-147
-147
-147
-147
-147
-147
-148
-148
-148
-148
-148
-148
-148
-148
-148
-148
-148
-147
-147
-147
-147
-147
-147
-147
-147
-147
-147
-147
-147
-147
-147
-146
-147
-147
-147
-148
-148
-148
-147
-147
-147
-147
-147
-148
-148
-148
-148
-148
-148
-148
-148
-148
-148
-148
-147
-147
-147
-147
-147
-147
-147
-147
-147
-147
-147
-147
-147
-147
-147
-147
-148
-147
-147
-147
-147
-147
-147
-148
-148
-148
-148
-148
-148
-148
-148
-148
-148
-147
-147
-147
-146
-146
-146
-146
-145
-145
-145
-145
-145
-145
-145
-145
-145
-145
-145
-145
-145
-146
-146
-146
-146
-146
-146
-146
-146
-146
-146
-146
-145
-145
-145
-146
-146
-145
-145
-145
-145
-145
-145
-145
-145
-145
-145
-145
-145
-145
-145
-145
-145
-145
-145
-145
-145
-145
-145
-145
-145
-145
-145
-145
-145
-145
-145
-145
-145
-145
-145
-145
-145
-145
-145
-145
-145
-145
-145
-145
-145
-144
-144
-144
-144
-144
-144
-144
-144
-143
-143
-143
-143
-143
-142
-142
-142
-141
-142
-142
-142
-142
-143
-143
-143
-143
-143
-143
-143
-143
-143
-143
-143
-143
-143
-143
-143
-143
-143
-143
-143
-143
-143
-143
-143
-143
-143
-143
-143
-142
-142
-142
-142
-142
-142
-143
-143
-142
-142
-142
-142
-142
-142
-142
-141
-141
-141
-141
-141
-141
-141
-141
-141
-142
-142
-142
-141
-141
-141
-141
-141
-141
-141
-141
-141
-141
-141
-141
-141
-141
-141
-140
-140
-140
-140
-140
-140
-140
-140
-140
-140
-140
-140
-140
-140
-140
-140
-140
-140
-140
-140
-140
-140
-140
-140
-140
-141
-141
-141
-141
-141
-141
-141
-140
-140
-140
-140
-140
-139
-139
-139
-139
-139
-139
-139
-139
-139
-139
-139
-139
-139
-139
-139
-139
-138
-138
-138
-138
-138
-138
-138
-139
-139
-139
-139
-139
-139
-139
-139
-140
-140
-140
-139
-140
-140
-140
-140
-140
-140
-140
-140
-140
-140
-140
-140
-140
-140
-140
-140
-140
-140
-140
-140
-139
-139
-139
-139
-138
-138
-138
-138
-138
-138
-138
-138
-138
-139
-139
-139
-139
-139
-139
-139
-139
-139
-139
-139
-140
-140
-140
-140
-140
-141
-140
-140
-140
-140
-140
-140
-140
-141
-141
-141
-141
-141
-141
-141
-142
-142
-142
-142
-142
-142
-142
-141
-141
-141
-141
-141
-141
-141
-141
-141
-141
-141
-141
-141
-141
-141
-141
-141
-141
-140
-140
-140
-140
-140
-139
-139
-139
-140
-140
-140
-140
-140
-140
-139
-139
-139
-139
-139
-138
-138
-138
-138
-137
-137
-137
-136
-136
-136
-136
-136
-135
-135
-135
-134
-134
-134
-132
-132
-132
-132
-132
-132
-133
-132
-132
-132
-132
-132
-132
-132
-132
-132
-132
-132
-131
-131
-131
-132
-132
-131
-131
-130
-130
-130
-130
-129
-129
-129
-128
-128
-128
-127
-127
-127
-125
-125
-125
-125
-125
-125
-125
-125
-124
-124
-124
-124
-124
-124
-124
-124
-125
-125
-124
-125
-125
-125
-124
-125
-125
-125
-125
-125
-125
-125
-125
-125
-126
-126
-126
-126
-127
-127
-127
-128
-129
-129
-131
-131
-132
-133
-133
-134
-135
-136
-137
-138
-138
-138
-139
-139
-139
-140
-140
-140
-141
-141
-141
-141
-141
-141
-142
-141
-141
-141
-141
-141
-141
-141
-141
-141
-141
-141
-141
-141
-141
-141
-142
-141
-141
-141
-141
-142
-142
-142
-142
-142
-142
-142
-142
-142
-142
-142
-142
-142
-142
-142
-142
-142
-142
-142
-142
-143
-143
-143
-143
-143
-143
-143
-143
-143
-143
-143
-142
-142
-142
-142
-142
-142
-142
-142
-141
-142
-142
-142
-142
-141
-141
-141
-141
-141
-141
-141
-141
-141
-142
-142
-141
-141
-141
-141
-141
-141
-141
-142
-142
-142
-142
-143
-142
-143
-143
-144
-144
-145
-145
-146
-147
-148
-149
-150
-151
-152
-154
-154
-154
-155
-155
-155
-155
-153
-152
-149
-146
-141
-137
-131
-124
-117
-107
-97
-86
-74
-60
-45
-30
-12
5
23
42
62
80
100
