# Simple Text Format
# Sampling Rate (Hz):= 1200.00
# Resolution:= 12
# Labels:= ECG	III
# Age:=	18
# Gender:=	Masculino
18
18
18
18
18
18
18
18
18
18
18
18
18
18
18
17
17
17
17
16
16
16
15
15
15
15
14
14
14
14
14
14
14
15
15
15
15
15
15
15
15
15
15
15
16
16
16
16
16
16
16
16
16
16
16
16
17
17
17
17
17
17
17
17
17
17
17
16
16
16
16
16
15
15
15
15
14
14
14
14
14
13
13
13
13
13
13
13
13
13
13
14
14
14
14
15
15
15
15
16
16
16
16
16
16
16
16
16
16
16
16
16
16
15
15
15
15
14
14
14
14
14
13
13
13
13
13
13
13
13
13
13
13
13
12
12
13
13
13
13
13
13
13
14
14
14
14
14
15
15
15
15
15
15
15
15
15
15
16
16
16
16
16
15
15
15
14
14
14
14
14
13
13
13
13
13
13
13
13
13
13
13
13
13
14
14
14
14
14
14
14
14
15
15
15
15
15
15
15
15
15
16
16
16
16
16
16
16
16
16
16
16
16
16
16
16
17
17
17
17
17
17
17
17
17
17
17
17
17
17
17
17
17
17
17
17
17
17
17
16
16
16
16
16
16
15
15
15
15
15
15
15
15
15
16
16
16
16
16
16
17
17
17
17
17
17
17
17
17
17
17
17
17
17
17
17
17
17
17
17
17
17
17
17
17
17
17
18
18
18
18
18
18
18
17
17
17
17
17
17
17
17
17
16
16
16
16
16
16
16
16
16
16
16
17
17
17
17
17
17
18
18
18
18
18
18
17
17
17
17
17
17
16
16
16
16
15
15
15
15
15
14
14
14
14
14
14
14
14
14
14
15
15
15
15
15
15
15
16
16
16
16
16
16
16
16
16
16
16
16
16
16
16
16
16
16
16
16
16
16
16
16
16
16
16
16
16
16
15
15
15
15
15
15
15
14
14
14
14
14
15
15
15
15
15
15
15
16
16
16
16
16
17
17
17
17
17
17
17
17
17
17
17
17
17
17
17
17
17
17
17
17
17
17
17
17
17
16
16
16
16
16
16
16
15
15
15
15
15
15
15
15
15
15
16
16
16
16
16
16
16
16
17
17
17
17
17
17
17
17
17
17
17
17
17
17
16
16
17
17
17
17
17
17
17
17
17
17
18
18
18
18
18
18
18
18
18
18
18
18
18
18
18
18
18
18
18
18
18
18
18
18
18
18
18
18
19
19
19
19
19
19
19
19
20
20
20
20
20
20
20
20
20
20
20
20
19
19
19
20
20
20
20
20
20
20
20
20
20
19
19
19
19
19
19
20
20
20
20
20
20
20
20
20
20
20
20
20
20
20
20
20
20
20
20
20
20
20
20
20
20
20
20
20
20
21
21
21
21
21
21
21
21
21
20
20
20
20
20
20
19
19
19
19
19
19
19
19
19
19
19
19
19
19
19
19
19
19
19
19
19
19
19
20
20
20
20
20
21
21
21
22
22
23
24
24
25
26
26
27
28
29
29
30
31
32
32
33
33
33
34
34
34
34
34
34
33
33
33
32
32
31
31
31
31
31
31
31
30
30
30
30
30
30
30
30
30
30
30
30
31
31
31
31
31
30
30
30
30
30
29
29
29
29
29
29
29
28
28
28
27
27
27
26
26
26
25
25
24
24
23
23
23
22
22
21
21
21
20
20
20
20
20
20
20
20
20
20
20
20
20
20
20
21
21
21
21
21
21
21
21
20
20
20
20
20
20
20
20
19
19
19
19
19
19
19
19
19
19
19
19
19
19
19
19
19
20
20
20
21
21
21
21
22
22
22
22
22
23
23
23
23
23
22
22
22
22
22
22
22
22
22
23
23
23
23
23
23
23
23
23
23
23
24
24
24
24
24
24
25
25
25
25
25
25
25
25
25
25
25
24
24
24
24
24
24
25
25
26
27
28
30
31
33
35
36
38
40
42
44
46
47
48
49
49
48
47
46
44
42
40
38
36
34
32
30
29
29
30
31
33
37
41
46
51
58
64
71
79
87
96
105
115
126
136
146
157
166
176
185
194
202
210
217
224
230
236
242
247
251
255
258
259
260
259
257
255
251
247
242
237
230
223
216
208
201
192
184
176
168
160
153
145
138
131
125
119
113
107
102
97
93
88
84
80
77
73
70
67
63
60
57
54
51
49
47
45
43
41
40
38
37
36
35
34
34
33
33
33
33
33
33
33
33
33
33
33
33
33
34
34
34
34
33
33
33
33
32
32
32
31
31
31
31
31
31
30
30
30
30
30
29
29
29
29
29
29
29
29
29
29
29
29
29
29
29
29
29
29
29
29
29
29
30
30
30
30
30
31
31
31
32
32
32
32
32
32
32
32
32
32
32
33
33
32
32
32
33
33
33
33
33
33
33
34
34
34
34
35
35
35
35
36
36
36
36
36
36
36
36
36
36
36
36
36
37
37
37
37
37
37
37
38
38
38
38
38
39
39
39
39
39
39
39
39
39
39
39
39
39
39
39
39
39
39
39
39
39
39
39
39
39
39
39
39
40
40
40
40
41
41
41
41
41
41
42
42
42
43
43
43
43
43
43
43
43
43
43
43
43
43
43
43
43
42
42
42
42
43
43
43
43
43
43
43
43
44
44
44
44
44
44
44
44
44
44
44
44
44
44
44
44
44
44
44
44
44
43
43
43
43
43
43
43
43
43
43
43
43
43
43
43
43
43
43
43
44
44
44
44
45
45
45
45
45
45
45
45
45
45
45
45
45
45
45
45
45
45
45
45
45
46
46
46
46
46
46
46
47
47
47
47
47
47
47
48
48
48
48
48
49
49
49
50
50
50
50
50
51
51
52
52
53
53
54
54
55
55
56
56
57
57
58
59
59
60
60
61
61
62
62
63
63
63
64
64
65
65
65
65
66
66
66
66
66
66
66
66
66
66
66
66
66
66
66
66
65
65
65
65
65
65
64
64
64
64
64
64
64
63
63
63
62
61
61
60
60
59
58
58
57
57
56
55
54
54
53
53
52
52
52
52
51
51
51
51
50
50
50
50
50
50
50
49
49
48
48
48
47
47
46
46
45
45
45
44
44
44
44
43
43
43
42
42
42
41
41
41
41
41
41
41
41
41
41
41
41
41
41
41
42
42
42
42
43
43
43
44
44
44
44
45
45
45
45
45
45
45
45
45
44
44
44
44
43
43
42
42
42
42
42
42
42
42
42
42
42
42
42
43
43
43
43
43
43
43
44
44
44
44
44
44
44
44
44
44
44
44
44
44
44
44
44
44
44
45
45
45
45
45
45
46
46
46
46
46
47
47
47
47
47
47
47
47
48
48
48
48
48
48
48
48
48
48
47
47
47
47
47
47
47
47
47
47
47
47
47
47
47
47
47
47
47
47
47
47
47
47
47
47
47
47
47
47
47
47
47
47
47
47
47
47
47
47
47
47
47
47
47
47
47
47
46
46
46
46
46
46
46
46
46
46
46
46
46
46
46
46
45
45
45
45
45
45
45
45
44
44
44
44
44
44
44
44
44
44
44
44
44
44
44
44
45
45
45
45
46
46
46
46
46
47
47
47
47
47
47
47
47
47
47
47
47
47
46
46
46
46
46
46
46
45
45
45
45
45
44
44
44
45
45
45
45
45
45
45
45
45
45
45
45
45
45
45
45
45
45
45
45
45
45
45
44
44
44
44
44
44
45
45
45
45
46
46
46
46
46
46
46
46
46
46
46
46
46
46
46
46
46
46
45
45
45
45
45
45
45
45
46
46
46
46
46
46
46
46
47
47
47
47
47
47
47
46
46
46
46
46
46
46
45
45
45
45
45
45
44
44
44
45
45
45
45
45
45
45
45
45
45
45
45
45
45
45
45
45
45
45
45
45
45
45
45
45
45
45
45
45
45
44
44
44
44
44
44
44
44
44
44
44
44
43
43
44
44
44
44
44
44
44
44
44
43
43
44
44
44
44
44
44
44
44
44
44
44
44
44
43
43
43
43
43
43
44
44
44
44
44
44
43
43
44
44
44
44
44
44
44
44
44
45
45
45
45
45
45
45
45
45
45
45
45
45
44
44
44
44
44
44
44
44
43
43
43
43
43
43
43
43
43
43
43
43
43
43
44
44
44
44
44
44
44
44
44
44
44
44
44
44
44
44
45
45
45
45
45
45
45
45
45
45
45
45
45
45
45
45
45
45
45
45
45
45
45
45
45
45
45
45
45
45
45
45
46
46
46
46
46
46
46
46
46
46
46
46
46
46
46
46
46
46
46
46
46
46
46
46
46
46
46
46
46
46
46
46
46
46
46
46
46
47
47
47
47
47
47
47
48
48
48
48
48
48
47
47
47
47
47
47
47
47
47
47
47
47
47
47
47
47
47
47
47
47
46
46
46
46
46
46
46
46
46
45
45
45
45
44
44
44
43
43
43
43
43
43
42
42
42
42
42
42
41
41
41
41
41
41
41
41
41
41
41
42
42
42
42
42
42
42
42
42
42
42
42
42
41
41
41
41
41
41
40
40
40
40
40
40
39
39
39
39
39
39
39
39
38
38
38
38
38
39
39
39
39
39
39
39
39
39
39
39
39
39
39
40
40
40
40
41
41
42
42
42
43
43
43
44
44
45
45
45
46
46
46
46
46
46
46
47
46
46
46
46
46
46
45
45
45
45
45
45
45
45
45
45
45
45
45
45
45
45
45
45
45
46
46
46
46
46
47
47
46
46
46
46
46
46
46
45
45
45
44
44
43
43
42
42
41
40
40
39
39
38
37
36
36
35
35
34
34
33
33
33
33
33
33
33
33
33
33
33
33
33
34
34
34
34
34
35
35
35
35
35
34
34
34
34
34
33
33
33
33
33
33
33
33
33
33
32
32
32
32
33
33
33
33
32
33
33
33
33
33
33
33
33
33
33
33
33
33
33
33
33
34
34
34
34
34
34
34
34
33
33
33
33
33
33
33
33
33
33
33
33
33
33
33
33
32
32
32
32
32
32
32
32
32
32
32
32
32
32
32
32
32
32
32
32
32
33
33
33
33
33
33
33
34
34
35
36
37
38
39
41
42
43
44
45
46
47
48
49
49
49
49
48
46
44
42
40
37
35
32
30
27
26
25
25
25
26
28
31
35
40
45
51
58
64
71
79
87
96
105
115
125
135
145
155
164
172
180
188
195
203
209
216
222
228
234
239
244
248
250
252
253
253
252
250
247
244
240
235
230
224
218
211
204
197
189
182
174
167
159
152
145
139
132
126
120
114
109
104
99
95
91
87
83
79
76
73
69
66
63
61
58
56
54
51
50
48
46
45
43
42
41
40
39
39
38
38
37
37
36
36
35
35
35
35
34
34
34
34
33
33
33
32
32
32
32
31
31
31
31
31
31
31
31
31
31
32
32
32
32
32
32
33
33
33
33
33
33
33
34
34
34
34
34
34
34
34
34
34
34
34
33
33
33
33
33
32
32
32
32
32
31
31
31
31
31
31
31
31
31
31
31
31
31
31
31
32
32
32
33
33
33
33
33
34
34
34
34
34
34
34
34
34
34
34
34
34
34
34
33
33
33
33
33
33
33
33
33
33
33
33
33
33
33
33
34
34
34
34
34
35
35
35
35
35
35
36
36
36
36
36
37
37
37
37
37
38
38
38
38
38
38
38
38
38
38
37
37
37
37
37
37
37
36
36
36
36
36
36
36
35
35
35
35
35
35
35
35
35
35
35
35
35
35
35
35
35
35
35
35
35
35
34
34
34
34
34
35
35
35
35
35
35
35
35
35
35
35
36
36
36
36
36
37
37
37
37
37
37
37
37
37
37
37
37
37
37
37
37
37
37
37
37
37
37
37
37
37
37
37
37
37
37
37
37
37
37
37
37
37
37
37
37
37
37
37
37
37
37
38
38
38
38
38
38
38
38
38
38
38
38
38
38
38
39
39
39
39
40
40
40
41
41
42
42
43
43
44
44
45
46
46
47
48
48
49
49
50
51
51
52
53
53
53
54
54
54
54
54
55
55
55
56
56
56
56
56
57
57
57
57
58
58
58
59
59
59
59
60
60
60
60
60
60
60
60
60
60
59
59
59
58
58
57
57
56
55
55
54
53
53
52
52
51
50
50
49
48
47
47
46
45
44
44
43
43
42
42
41
41
40
39
39
38
38
38
37
37
37
36
36
36
36
36
36
35
35
35
35
34
34
34
34
34
34
34
34
34
33
33
33
33
33
33
33
33
33
33
33
33
33
33
33
33
33
33
33
33
33
32
32
32
32
32
32
32
32
32
32
32
32
31
31
31
31
31
31
31
31
30
30
30
30
30
30
30
30
30
30
30
30
30
31
31
31
31
31
30
30
31
31
31
31
31
31
31
31
31
31
31
31
31
31
31
31
31
31
31
31
31
31
31
31
31
31
31
31
31
30
30
30
30
29
29
30
30
30
30
30
30
30
30
30
30
30
30
30
31
31
31
31
31
31
31
31
31
31
31
31
31
31
30
30
30
30
30
29
29
29
29
29
29
29
29
29
29
29
29
29
29
29
29
29
30
30
30
30
30
30
30
30
30
30
30
30
30
30
30
30
30
30
30
29
29
29
29
29
29
29
29
29
29
29
29
29
29
30
30
30
30
30
30
29
29
29
29
29
29
29
29
29
29
28
28
29
29
29
29
29
29
30
30
30
30
30
30
30
30
31
31
31
31
31
30
30
30
30
29
29
29
30
30
30
30
30
30
30
30
30
30
30
31
31
31
31
31
31
32
32
32
32
32
32
32
32
32
32
32
32
32
32
32
32
32
32
32
32
32
32
32
32
32
32
32
32
32
32
33
33
33
33
33
33
33
33
33
33
33
33
33
33
33
33
33
33
33
33
33
33
33
33
33
33
33
33
33
34
34
34
34
34
35
35
35
35
36
36
36
36
36
37
37
37
37
37
37
37
37
37
37
37
37
37
37
37
37
37
37
36
36
36
36
36
36
36
36
36
36
36
36
36
36
36
36
36
36
36
36
36
36
36
36
36
36
36
36
36
36
36
36
36
36
36
36
36
37
37
37
37
37
37
37
37
37
38
38
38
38
38
38
38
38
38
38
38
38
38
38
38
39
39
39
39
39
39
39
39
39
40
40
40
40
40
41
41
41
41
41
41
41
41
42
42
42
42
42
42
42
42
42
41
41
41
41
41
41
40
40
40
40
40
40
40
40
39
39
39
40
40
40
40
40
40
40
40
41
41
41
41
41
41
42
42
42
42
42
42
42
42
42
42
42
42
42
42
42
42
42
42
42
43
43
43
43
43
43
43
43
43
43
43
43
43
43
43
43
43
43
43
43
44
44
44
44
44
44
44
45
45
45
45
46
46
46
46
46
47
47
47
47
47
47
47
47
47
47
47
47
47
47
47
47
47
47
47
47
47
47
47
47
47
47
47
47
47
47
47
47
47
47
47
47
47
47
47
47
47
47
47
47
47
47
47
47
47
47
47
47
47
47
47
47
48
48
48
48
48
48
48
48
48
48
48
48
49
49
49
49
49
49
49
49
49
49
49
49
49
49
49
50
50
50
50
50
51
51
51
52
52
53
54
54
55
55
56
56
57
57
58
59
59
60
60
60
60
61
61
61
61
61
61
61
61
61
61
61
61
60
60
60
60
60
60
60
60
60
60
60
60
60
60
60
60
61
61
61
60
60
60
60
60
60
60
60
59
59
59
58
58
58
58
58
58
58
58
57
57
57
57
57
56
56
56
56
56
56
55
55
55
55
55
54
54
54
53
53
53
53
53
52
52
52
52
52
52
52
52
52
52
52
52
51
51
51
51
51
51
51
51
51
51
51
50
50
50
50
50
49
49
49
49
49
49
49
49
49
49
49
49
49
49
49
49
49
49
49
50
50
50
50
50
50
50
49
49
49
49
49
49
49
49
49
49
49
49
49
49
49
49
49
49
49
49
49
48
48
48
48
48
48
48
48
48
48
48
49
49
49
49
49
50
50
50
50
50
50
51
51
51
51
51
51
51
51
51
51
50
50
51
51
51
52
53
54
55
57
58
60
61
63
65
67
68
70
71
72
73
73
72
72
70
69
67
65
63
60
58
56
54
53
52
52
53
55
58
61
66
71
77
83
90
97
105
113
122
131
141
151
162
172
182
191
200
209
217
225
232
239
245
251
257
263
268
272
276
278
279
280
279
277
275
271
267
262
257
250
244
237
229
222
214
206
198
190
182
175
167
160
153
146
140
134
128
123
118
113
109
104
100
97
93
90
87
84
81
78
75
73
71
69
67
65
63
62
60
59
57
56
55
54
53
53
52
52
51
51
50
50
50
49
49
49
49
49
49
49
49
49
50
50
49
49
49
49
49
49
49
49
49
49
49
50
50
50
50
50
49
49
49
49
49
48
48
48
48
48
48
48
48
48
48
48
48
48
48
48
48
48
48
48
48
48
48
48
48
48
48
48
48
48
48
47
47
47
47
47
47
47
47
47
46
46
46
46
46
46
47
47
47
47
47
47
47
47
47
47
47
47
47
47
47
47
47
47
47
47
47
47
47
47
47
47
47
47
47
47
47
47
47
47
47
47
46
46
46
47
47
47
47
47
47
47
47
47
47
48
48
48
48
48
48
48
48
48
48
48
48
48
48
48
48
48
48
48
48
48
48
48
48
48
48
48
48
48
48
48
48
48
48
48
47
47
47
47
47
47
47
47
47
47
47
46
46
46
46
46
46
46
46
46
46
46
46
46
46
46
46
46
46
46
46
46
45
45
45
45
45
45
45
45
45
45
45
45
45
44
44
44
44
44
44
45
45
45
45
45
45
45
45
46
46
46
46
46
46
46
46
46
46
46
46
46
46
46
46
46
46
45
45
45
45
45
45
45
45
45
45
46
46
46
46
46
46
47
47
47
47
47
48
48
48
48
48
49
49
49
50
50
50
51
51
52
52
52
53
54
54
55
56
57
57
58
59
59
60
60
61
62
62
63
63
63
64
64
64
65
65
65
65
65
66
66
66
66
66
66
66
66
66
66
66
65
65
65
65
65
65
65
65
65
64
64
64
64
63
63
62
62
62
61
61
60
60
59
59
58
57
57
56
55
55
54
53
52
51
51
50
49
49
48
48
47
47
46
46
45
45
44
44
44
44
43
43
43
42
42
42
41
41
41
41
40
40
40
40
39
39
39
39
38
38
38
38
38
38
38
37
37
37
37
36
36
36
35
35
35
35
35
34
34
34
33
33
33
33
33
33
33
33
33
33
33
33
33
33
33
33
33
33
33
33
33
33
33
33
33
33
33
33
33
33
33
33
33
33
33
33
33
33
33
33
33
33
33
33
33
33
33
33
33
33
33
33
33
33
32
32
32
32
32
32
32
32
32
32
32
32
32
32
33
33
33
33
33
34
34
34
35
35
35
35
35
35
35
35
35
35
35
35
35
35
35
35
35
35
35
35
35
35
35
35
35
35
35
35
35
36
36
36
36
35
35
35
35
35
35
35
34
34
34
34
34
34
34
34
34
35
35
35
35
36
36
36
36
36
37
37
37
37
37
37
37
37
37
37
37
37
37
37
37
37
37
37
37
37
37
37
36
36
36
35
35
35
35
35
35
35
35
34
34
34
34
34
35
35
35
35
35
35
35
36
36
36
36
36
36
36
36
36
36
36
36
36
36
35
35
35
35
35
35
35
35
35
35
35
35
35
35
35
35
35
35
35
35
35
35
35
35
35
35
35
35
35
35
35
34
34
34
34
35
35
35
35
35
35
35
35
35
35
35
35
35
35
35
35
35
35
35
35
35
35
35
35
35
35
35
35
34
34
34
34
34
34
34
34
33
33
33
33
33
33
33
33
33
32
32
32
32
32
32
32
32
32
32
32
32
32
32
33
33
33
33
33
33
34
34
34
34
34
34
34
34
33
33
33
33
33
33
33
32
32
32
32
32
33
33
33
33
33
34
34
34
34
35
35
35
35
35
35
35
35
35
35
35
35
35
35
35
35
35
35
35
35
35
35
35
36
36
36
36
36
37
37
37
36
36
36
36
36
36
36
36
36
36
35
35
35
35
35
35
35
35
35
35
35
35
35
35
35
35
35
35
35
35
35
35
35
35
35
35
35
35
35
35
35
35
34
34
34
35
35
35
35
35
35
35
35
35
35
35
35
35
35
35
35
35
34
34
34
35
35
35
35
35
35
35
35
35
35
34
34
34
34
34
34
34
34
34
34
34
34
34
34
34
34
34
34
34
34
34
34
34
34
34
34
34
34
34
34
34
34
34
34
35
35
35
35
35
35
35
35
35
34
34
34
35
35
35
35
35
35
35
35
35
35
35
35
35
35
35
35
35
35
35
35
35
35
35
35
35
34
34
34
34
34
34
34
34
34
35
35
35
35
35
35
35
36
36
36
36
36
36
36
37
37
37
37
36
36
36
36
35
35
35
35
34
34
34
34
33
33
33
33
33
33
32
32
32
32
32
32
33
33
33
33
33
33
33
33
34
34
34
34
34
34
34
34
34
34
34
34
34
34
34
34
34
34
34
34
34
35
35
35
34
34
34
34
34
34
34
34
34
34
34
34
34
33
33
33
33
33
33
34
34
34
34
34
34
34
34
34
34
34
33
33
33
33
33
33
33
33
32
32
32
32
32
32
32
32
32
32
33
33
33
33
33
33
33
33
33
33
33
32
32
32
32
32
32
31
31
31
31
31
31
30
30
30
30
30
30
30
30
30
30
30
30
30
30
30
30
30
30
30
30
30
30
30
31
31
31
31
31
31
31
32
32
32
32
32
32
32
31
31
31
31
31
31
31
31
31
31
31
31
31
31
32
32
33
33
34
34
34
35
35
36
36
37
37
38
38
39
39
39
39
39
40
40
40
39
39
39
39
39
39
39
39
39
38
38
38
38
38
38
38
38
38
38
39
39
39
39
39
39
39
39
39
39
39
38
38
38
38
38
37
37
37
37
36
36
36
35
35
35
35
34
34
34
33
33
33
32
32
32
31
31
30
30
30
29
29
28
28
28
28
28
28
28
28
28
28
28
28
28
28
28
28
28
28
28
28
28
28
28
28
28
28
28
27
27
27
27
27
27
27
27
27
27
27
27
27
27
27
27
27
27
27
27
27
27
27
27
27
27
27
27
27
27
27
27
26
26
26
26
26
26
26
26
26
26
26
26
26
26
26
26
26
27
27
27
27
27
28
28
28
28
28
28
28
28
29
29
29
29
29
29
28
28
28
28
28
28
27
27
27
27
27
27
26
26
26
26
26
26
26
27
27
28
29
31
32
34
35
37
39
41
43
45
47
49
50
52
52
53
53
52
51
49
48
46
43
41
38
35
33
31
30
29
29
30
32
35
39
43
48
54
59
66
72
80
87
96
105
115
125
135
145
154
163
172
181
189
196
204
211
217
224
230
236
242
246
250
252
254
254
253
252
249
246
242
237
232
226
220
213
205
198
190
182
174
166
159
151
144
137
130
123
117
111
105
100
95
90
86
81
77
73
70
66
63
60
57
55
52
50
48
46
44
43
41
40
39
38
38
37
36
36
35
35
34
34
33
33
32
32
32
31
31
30
30
30
29
29
29
29
29
29
29
29
29
29
29
29
30
30
30
30
31
31
31
31
31
31
31
31
31
30
30
30
30
30
30
29
29
29
29
29
29
28
28
28
28
28
28
29
29
29
29
29
30
30
30
30
30
30
31
31
31
32
32
32
32
32
33
33
33
33
33
33
33
33
32
32
33
33
32
32
32
32
32
32
32
32
32
32
32
32
32
32
33
33
32
32
32
32
32
32
32
32
33
33
33
33
33
33
33
33
33
33
33
34
34
34
34
34
34
34
35
35
35
35
35
35
35
35
35
35
35
35
35
35
35
35
35
35
35
35
35
35
35
35
35
35
34
34
34
34
34
34
34
34
34
34
34
34
34
34
34
34
34
34
34
34
34
34
33
33
33
33
33
33
33
33
33
33
33
33
33
33
33
33
33
33
33
33
33
33
33
33
33
33
33
33
33
33
33
33
33
33
34
34
34
34
34
35
35
35
35
35
35
35
35
35
35
35
35
35
35
35
35
35
35
34
34
34
34
33
33
33
33
34
34
34
34
34
34
34
34
34
35
35
35
35
36
36
36
36
37
37
37
38
38
38
38
38
38
38
39
39
39
40
40
40
40
40
41
41
41
42
42
43
43
43
44
44
45
45
45
46
46
47
47
48
48
49
49
50
50
51
51
52
52
53
53
54
55
55
56
57
57
58
58
59
59
59
59
59
60
59
59
59
59
58
58
57
56
56
55
54
53
52
52
51
50
49
49
48
48
47
47
46
46
45
45
45
45
44
44
43
43
43
42
42
41
41
40
40
39
39
39
38
38
38
37
37
36
36
36
36
35
35
34
34
33
33
33
32
32
31
30
30
29
29
29
29
28
28
28
28
27
27
27
27
27
27
27
27
27
27
26
26
26
26
25
25
25
25
25
24
24
24
24
24
23
23
23
23
24
24
24
24
24
24
24
24
25
25
25
25
25
25
25
25
25
25
25
25
25
25
25
25
25
25
25
24
24
24
24
24
24
24
24
24
24
24
24
24
24
24
24
24
24
24
24
24
24
24
24
24
24
24
23
23
23
23
23
22
22
22
22
22
22
23
23
23
23
23
23
23
23
23
24
24
24
24
25
25
25
25
25
25
25
25
25
25
26
26
26
26
26
26
25
25
25
25
25
25
25
25
25
25
24
24
24
24
24
24
24
24
24
24
24
24
24
24
24
24
24
25
25
25
25
25
25
25
25
25
25
25
25
25
25
25
25
25
25
25
25
25
25
25
25
24
24
24
24
24
24
24
23
23
23
23
23
23
23
23
23
23
23
22
22
22
23
23
23
23
23
23
23
23
24
24
24
24
24
24
24
24
24
24
24
24
24
25
25
25
25
25
24
24
24
24
24
24
24
24
24
24
23
23
23
23
23
23
23
22
22
22
22
22
22
22
22
22
22
22
22
22
22
22
22
22
22
22
22
22
22
22
22
22
22
22
22
22
22
23
23
23
23
23
23
23
23
23
24
24
24
24
24
24
24
24
24
24
24
24
24
24
24
23
23
23
23
23
23
23
23
23
23
23
23
23
22
22
22
22
22
22
22
22
22
23
23
23
23
23
23
23
23
23
23
24
24
24
24
24
25
25
25
25
24
24
24
24
24
24
24
24
24
24
24
24
24
24
24
24
24
24
24
24
24
24
24
24
24
24
24
24
24
24
24
24
24
25
25
25
25
25
25
25
25
25
25
25
25
25
25
25
25
25
25
26
26
26
26
25
25
25
25
25
25
25
25
25
25
25
25
25
25
25
25
25
25
25
25
25
25
25
25
25
26
26
26
26
26
26
26
26
26
26
26
26
25
25
25
25
25
25
24
24
24
24
24
24
24
24
24
23
23
23
23
23
23
24
24
24
24
24
23
23
23
23
23
24
24
24
24
24
25
25
25
25
25
25
25
25
25
25
25
25
25
25
25
25
25
25
25
25
25
25
25
25
25
26
26
26
26
26
27
27
27
27
27
27
27
27
27
27
27
27
26
26
26
26
26
26
26
25
25
25
25
24
24
24
24
24
24
24
24
24
24
24
24
24
24
24
24
24
24
24
25
25
25
25
25
25
25
25
25
25
25
25
25
25
25
25
25
25
25
25
25
24
24
24
24
24
24
23
23
23
23
23
23
23
23
23
23
23
23
23
23
23
23
23
23
23
24
24
24
24
24
24
24
24
24
24
24
24
24
23
23
23
24
24
24
24
24
24
23
23
23
23
23
23
24
24
24
23
23
23
23
23
22
22
22
22
22
22
22
22
22
21
21
21
21
21
21
20
21
21
21
21
21
21
21
22
22
22
22
22
22
22
22
22
22
22
22
22
22
22
22
23
23
23
23
23
23
24
24
24
25
25
26
26
26
27
27
28
28
28
28
29
29
29
29
29
30
30
30
31
31
32
32
33
33
34
35
35
36
37
37
38
38
39
39
40
40
40
40
40
40
40
40
40
40
40
40
40
39
39
39
39
39
39
39
39
39
39
39
39
39
39
39
39
39
39
39
39
39
39
39
39
39
39
38
38
38
38
38
38
38
37
37
37
37
36
36
36
35
35
34
34
34
33
33
32
32
32
31
31
31
30
30
30
30
30
30
30
30
30
30
30
30
30
30
30
30
30
30
30
30
30
30
30
30
29
29
29
29
29
29
29
29
29
29
28
28
28
28
28
27
27
27
27
27
26
26
26
26
25
25
25
25
25
25
25
25
25
25
25
25
25
25
25
25
26
26
26
26
26
26
26
26
27
26
26
26
26
25
25
24
24
24
24
24
24
24
23
23
23
23
24
24
24
24
25
25
25
26
26
26
26
27
27
27
27
27
27
27
26
26
26
26
26
26
27
28
28
29
30
31
32
33
35
36
38
39
40
41
42
42
42
41
41
39
38
36
33
31
28
25
23
21
20
19
18
19
20
22
25
29
34
40
46
53
60
67
75
84
93
103
113
124
134
145
155
164
173
181
189
197
204
210
217
223
229
234
239
243
246
248
249
249
248
247
244
241
237
232
227
222
215
209
202
195
187
180
172
165
158
151
144
137
130
124
118
112
106
100
95
90
86
81
77
73
70
66
63
60
57
54
51
48
46
44
42
40
38
37
35
34
33
32
31
30
30
29
29
28
28
28
27
27
27
27
27
27
27
27
27
27
27
27
27
27
27
27
27
27
27
27
27
27
27
27
27
27
27
27
27
27
27
27
27
27
27
27
26
26
26
27
27
27
27
27
27
26
26
26
26
27
27
27
26
26
26
26
26
26
26
26
26
26
26
26
26
26
26
26
26
26
26
26
26
26
27
27
27
27
27
27
27
27
27
27
27
28
28
28
28
28
28
28
28
28
28
28
28
28
28
28
28
28
28
28
27
27
27
27
28
28
28
28
28
28
28
28
28
28
28
28
28
28
28
28
28
28
28
28
28
28
28
28
28
28
28
29
29
29
29
29
29
29
29
30
30
30
30
31
31
31
31
31
32
32
32
32
32
32
32
32
32
32
32
32
32
32
33
33
33
32
32
32
32
32
32
32
32
32
32
32
32
32
32
32
32
32
32
32
32
32
32
32
32
32
32
32
32
33
33
33
33
33
33
33
33
33
33
33
33
33
33
33
33
33
33
33
32
32
32
32
32
32
32
32
32
31
31
31
31
31
31
31
31
31
30
30
31
31
31
31
32
32
32
32
32
33
33
33
34
34
34
34
35
35
35
35
35
35
35
35
35
35
35
35
36
36
36
36
36
36
36
36
37
37
37
37
38
38
39
39
40
40
41
41
42
42
43
44
44
45
46
47
47
48
48
49
49
50
50
51
51
52
52
52
53
53
53
53
53
53
53
53
53
53
53
53
53
53
53
53
53
53
53
53
53
53
53
53
52
52
52
52
51
51
50
50
49
49
48
47
46
46
45
44
44
43
43
42
41
41
40
40
39
39
38
38
38
37
37
37
36
36
35
35
34
33
33
33
32
32
31
31
30
30
30
29
29
29
29
28
28
28
28
28
28
28
27
27
27
27
27
26
26
26
26
26
25
25
25
25
25
25
25
25
25
25
25
25
25
25
25
25
25
25
25
25
25
25
25
25
24
24
24
24
24
24
23
23
23
23
23
23
23
22
22
22
22
22
22
22
22
22
22
22
22
22
22
22
23
23
23
23
24
24
24
24
24
24
24
25
25
25
25
25
26
26
26
26
26
26
26
26
26
26
26
26
26
26
26
26
26
26
25
25
25
25
25
25
25
24
24
24
24
24
24
24
24
24
25
25
24
24
24
24
24
24
24
24
24
24
24
24
24
24
24
24
24
24
24
24
24
24
24
24
24
24
24
24
24
24
24
24
24
24
24
24
24
24
24
24
24
24
24
24
24
24
24
24
24
24
24
24
24
24
24
24
24
24
24
24
24
24
24
24
24
24
24
24
24
24
24
24
24
23
23
23
23
23
23
23
23
23
23
23
24
24
24
24
23
23
23
24
24
24
24
24
24
24
24
24
24
24
25
25
25
25
25
25
25
25
25
25
26
26
26
26
26
26
25
25
25
25
25
25
25
24
24
24
24
24
24
24
24
24
23
23
23
23
23
23
23
23
23
23
23
22
22
22
22
22
22
22
22
22
22
22
22
22
22
22
22
23
23
23
23
23
23
23
24
24
24
24
24
24
24
24
24
24
23
23
23
23
23
23
23
23
23
23
23
23
23
23
23
23
23
23
23
23
23
23
23
23
23
22
22
22
22
22
22
22
22
22
22
22
22
22
22
22
22
22
22
22
22
23
23
23
23
23
23
23
23
23
23
23
23
23
23
23
23
23
23
23
23
23
22
22
22
22
22
22
22
22
22
22
22
22
22
22
22
22
22
22
23
23
23
23
24
24
24
25
25
25
25
25
25
25
25
25
25
25
25
25
25
25
25
25
25
25
25
24
24
24
24
24
24
24
24
24
24
24
24
24
24
24
24
24
24
24
24
24
24
24
24
24
24
24
24
24
24
23
23
23
23
23
23
23
23
23
23
23
23
23
23
23
23
23
24
24
24
24
24
24
25
25
25
25
26
26
26
26
26
26
26
26
25
25
25
25
25
25
25
25
25
24
24
24
24
24
24
24
24
24
24
24
24
24
24
24
24
24
24
24
23
23
23
23
23
23
23
23
23
23
23
23
23
22
23
23
23
23
23
23
23
23
23
23
23
23
23
24
24
24
24
24
23
23
23
23
23
23
22
22
22
22
22
22
22
22
22
22
22
22
22
22
22
22
22
22
23
23
23
23
23
24
24
24
24
24
24
24
25
25
25
25
25
24
24
24
24
24
24
23
23
23
23
23
22
22
22
22
22
22
21
21
21
21
21
21
21
21
21
21
20
20
20
20
20
20
20
21
21
21
21
21
21
21
22
22
22
22
22
22
22
22
23
23
23
23
23
23
23
23
22
22
22
22
22
22
21
21
21
21
21
21
21
21
21
21
20
20
20
20
20
20
20
20
20
20
20
20
20
20
20
20
20
20
20
20
20
20
20
21
21
21
21
21
21
21
21
21
21
21
21
21
21
21
21
21
21
21
22
22
22
22
23
23
23
23
24
24
24
25
25
25
26
26
27
27
27
28
28
29
29
29
30
30
30
30
30
30
30
30
30
31
31
31
31
31
31
31
31
31
31
30
30
30
30
30
30
30
30
30
30
30
30
30
29
29
29
28
28
27
27
27
27
26
26
26
26
25
25
25
24
24
23
23
23
23
22
22
22
21
21
20
20
20
19
19
19
19
19
19
18
18
18
18
18
17
17
18
18
18
18
18
18
19
19
19
19
20
20
20
21
21
21
21
21
21
21
21
21
21
21
21
21
21
21
21
20
20
20
20
20
20
20
20
20
20
20
20
20
19
19
19
19
19
19
19
19
19
19
19
19
20
20
20
20
20
20
20
20
20
20
20
20
20
20
20
21
21
20
20
20
20
20
20
20
20
19
19
19
19
19
19
19
18
18
18
18
18
18
19
19
19
19
19
19
19
19
20
20
20
20
20
21
21
22
23
24
26
27
29
31
32
34
36
38
39
41
42
44
45
45
45
45
44
43
42
40
38
36
33
31
29
27
26
26
26
27
29
32
36
41
46
52
58
65
72
79
88
97
106
116
126
136
146
156
165
175
183
191
199
207
214
221
227
233
239
244
248
251
253
254
254
254
252
249
245
240
235
229
223
216
209
201
193
185
177
169
161
154
146
139
132
125
118
112
106
101
95
90
86
81
77
73
69
66
62
59
56
53
50
48
46
43
41
40
38
37
36
34
33
33
32
31
30
29
28
28
27
27
27
26
26
25
25
25
24
24
24
24
23
23
24
24
24
24
24
24
24
24
24
24
25
25
25
25
24
24
24
24
23
23
23
23
23
22
22
22
21
21
21
21
21
21
21
21
21
21
21
21
21
21
22
22
22
22
22
22
22
22
22
22
23
23
23
23
23
23
23
23
24
24
24
24
24
24
25
25
26
26
26
26
27
27
27
27
27
27
27
27
27
27
27
27
27
27
27
27
27
26
26
26
26
26
26
26
26
26
26
26
27
27
27
27
27
27
27
27
28
28
28
28
28
28
29
29
29
29
29
29
29
29
29
29
29
29
29
29
29
29
29
29
29
29
29
28
28
28
28
28
28
27
27
27
27
27
27
27
27
27
27
27
28
28
28
28
29
29
29
29
29
30
30
30
30
31
31
31
31
31
31
31
31
31
31
31
31
31
31
31
31
31
31
31
31
31
31
31
30
30
30
30
30
30
30
30
31
31
31
31
31
31
31
31
31
31
31
31
32
32
32
32
32
32
32
32
32
32
31
32
32
32
32
32
32
32
32
32
32
32
32
32
32
32
33
33
33
33
33
34
34
34
34
34
34
34
34
35
35
35
35
36
36
36
37
37
38
38
39
39
39
40
40
40
41
41
41
42
42
43
43
43
44
44
45
45
46
46
47
47
48
48
49
50
50
51
52
52
53
53
54
54
55
55
56
56
56
56
56
56
56
56
56
56
56
56
56
56
56
56
55
55
55
55
55
54
54
54
53
53
53
52
52
51
51
50
50
49
49
48
48
47
47
46
46
45
45
44
44
43
43
42
42
41
41
40
39
39
38
37
37
36
36
35
35
34
33
33
33
32
32
32
32
31
31
31
31
30
30
30
29
29
29
29
28
28
28
27
27
27
27
27
27
26
26
26
26
26
26
26
27
27
27
27
27
27
27
27
27
27
27
26
26
26
26
26
26
25
25
25
25
25
24
24
24
24
24
23
23
23
23
23
23
23
23
23
23
23
23
23
23
23
23
23
23
24
24
24
24
24
24
24
25
25
25
25
25
25
26
26
26
26
26
26
26
26
26
26
27
27
27
27
26
26
26
26
26
26
26
26
26
26
26
26
25
25
25
25
25
25
25
26
26
26
26
26
26
26
26
26
26
26
26
26
26
26
26
26
26
26
26
26
25
25
25
25
25
25
25
25
25
25
25
25
25
25
25
25
25
25
25
25
25
25
24
24
24
24
24
24
23
23
23
23
23
22
22
22
22
22
22
22
22
22
22
22
23
23
23
23
23
23
23
23
23
23
23
23
23
23
23
22
22
22
22
22
22
22
22
22
22
22
22
22
22
22
21
21
21
21
21
21
21
21
21
21
21
21
21
21
21
22
22
22
22
22
22
23
23
24
24
24
24
25
25
25
25
24
24
24
24
24
24
24
24
24
24
24
23
23
23
23
23
23
22
22
22
22
22
22
22
22
22
22
22
22
22
22
22
22
22
22
22
22
22
22
23
23
23
23
23
23
23
22
22
22
22
22
22
22
22
22
22
21
21
21
21
20
20
20
20
20
20
20
20
20
20
19
19
19
19
19
19
19
20
20
20
20
20
20
20
20
20
20
20
21
21
21
21
21
21
21
21
21
21
20
20
20
20
20
20
20
20
20
20
20
20
20
20
20
20
20
20
20
19
19
19
19
19
19
19
18
18
18
18
18
18
18
18
18
18
18
18
18
18
18
18
18
19
19
19
19
19
19
19
19
19
19
19
19
19
19
20
20
20
20
20
21
21
21
20
20
20
20
21
21
21
21
21
21
20
20
20
20
20
20
20
20
20
20
20
20
20
20
20
20
20
20
20
20
20
20
20
20
20
20
20
20
20
20
20
20
20
20
20
20
20
20
20
20
20
20
21
21
21
21
21
21
21
21
21
21
21
22
22
22
22
22
23
23
23
23
23
23
23
22
22
22
22
22
22
22
22
22
22
22
22
22
22
21
21
21
21
21
21
22
22
22
22
22
22
22
22
22
22
23
23
23
23
23
23
23
22
22
22
22
23
22
22
22
22
22
22
22
22
22
22
21
21
21
20
20
20
20
20
20
20
21
21
21
21
21
21
22
22
23
23
23
23
24
24
24
24
25
25
25
25
25
25
25
25
24
24
24
24
24
24
24
23
23
23
23
23
24
24
24
24
24
24
24
24
24
24
24
24
24
24
24
24
24
24
24
24
23
23
23
23
23
23
23
23
23
23
23
23
23
23
23
23
23
23
24
24
24
24
25
25
25
25
25
25
25
24
24
24
24
24
24
24
24
24
23
23
23
23
24
24
24
24
23
23
23
23
24
24
24
24
25
25
25
25
25
25
26
26
26
26
27
27
27
28
28
28
28
28
28
28
28
28
28
28
28
28
28
28
28
28
28
28
28
28
28
28
29
29
29
30
30
31
31
31
32
32
32
33
33
33
34
34
34
34
34
34
34
34
34
34
34
34
34
34
34
34
34
34
34
34
35
35
35
35
35
35
36
36
36
36
37
37
37
38
38
38
38
38
38
38
38
38
38
38
37
37
37
37
37
36
36
36
35
35
35
34
34
33
33
32
32
31
31
30
30
29
28
28
27
27
26
26
25
25
25
25
24
24
24
24
24
24
24
25
25
25
25
25
26
26
27
27
27
27
27
27
27
27
27
27
27
27
26
26
26
26
26
25
25
25
24
24
24
24
24
24
24
25
25
25
25
25
25
25
25
25
25
25
25
25
25
25
24
24
24
24
24
24
24
24
24
24
24
24
24
25
25
25
25
25
25
25
25
25
26
26
26
26
26
26
26
26
26
26
26
26
26
26
26
27
27
27
27
27
27
27
27
27
27
27
27
27
28
28
28
29
29
30
31
32
33
34
35
36
37
38
38
39
39
39
38
38
37
36
34
32
29
27
24
22
19
17
15
14
14
14
16
18
21
25
30
36
42
48
55
62
70
79
88
98
108
119
130
140
150
160
169
178
186
194
201
208
214
221
227
233
238
242
246
248
250
250
250
249
247
245
241
237
233
228
223
217
210
203
196
189
182
175
168
160
153
146
139
133
126
120
114
109
104
99
94
90
85
81
77
73
70
67
64
61
58
56
54
51
50
48
46
45
44
43
42
41
40
39
39
38
38
37
37
37
36
36
36
35
35
35
35
34
34
34
34
34
34
34
34
33
33
33
33
33
33
33
33
33
33
33
33
33
33
33
33
32
32
32
32
32
32
32
32
31
31
31
31
31
31
31
31
31
31
31
31
32
31
31
32
32
32
32
32
32
32
32
32
32
33
33
33
33
33
33
33
33
33
33
33
33
33
33
33
33
33
32
32
32
32
32
32
32
32
32
32
33
33
32
32
32
32
32
32
32
33
33
33
33
33
33
33
32
32
32
32
32
32
31
31
32
32
32
32
32
31
31
31
31
32
32
32
32
32
33
33
33
33
34
34
34
34
35
35
35
36
36
36
36
36
36
36
37
37
37
37
37
37
37
37
37
37
37
37
37
37
37
37
37
37
37
36
36
36
36
36
36
36
36
36
36
36
36
36
36
36
36
36
36
36
36
36
36
36
37
37
37
37
37
36
36
36
36
36
36
36
36
36
36
36
36
35
35
35
35
35
35
35
35
35
35
35
35
35
34
34
34
34
34
34
34
34
34
34
34
34
33
33
33
33
34
34
34
34
33
33
33
34
34
34
34
34
34
34
34
35
35
35
35
35
36
36
36
36
36
36
37
37
37
37
37
37
38
38
38
38
38
39
39
39
40
40
41
42
42
43
44
44
45
46
47
47
48
49
50
50
51
52
52
53
53
54
54
55
55
56
56
56
57
57
57
58
58
58
59
59
59
60
60
60
60
60
61
61
60
60
60
60
60
60
60
59
59
58
58
58
57
57
56
56
56
55
55
55
55
54
54
54
53
53
53
52
52
52
52
51
51
50
50
50
49
49
48
48
47
47
46
46
45
45
44
44
44
43
43
43
42
42
41
41
41
41
40
40
40
40
40
39
39
39
39
39
39
39
39
39
39
38
38
38
38
38
38
38
38
38
38
38
38
38
38
38
38
37
37
37
37
37
37
37
37
37
37
37
37
37
37
37
36
36
36
36
37
37
37
37
37
36
36
36
36
36
36
36
36
36
36
36
35
35
35
35
35
35
35
35
35
35
35
35
35
35
35
35
35
35
35
35
35
35
35
35
35
35
35
35
35
35
35
35
35
35
35
35
35
35
34
34
34
34
35
35
35
35
35
35
35
35
35
35
35
35
35
36
36
36
36
37
37
37
37
37
37
37
37
37
37
37
37
37
37
37
37
36
36
36
36
36
36
36
36
35
35
35
35
35
35
35
35
35
35
35
35
35
35
35
35
35
35
35
35
35
35
35
35
35
35
35
35
35
34
34
34
34
34
34
34
34
34
34
34
34
34
34
34
34
34
34
34
34
34
34
34
34
34
34
34
34
33
33
33
33
33
33
33
33
33
33
34
34
34
35
35
36
36
36
36
37
37
37
37
37
37
37
38
37
37
37
37
37
37
37
36
36
36
36
36
36
36
36
36
36
36
36
36
36
36
36
36
36
36
36
36
36
36
36
36
36
36
36
36
36
36
36
36
36
36
36
36
36
36
36
36
36
36
36
36
36
36
36
36
36
36
35
35
35
35
36
36
36
35
35
35
35
35
35
35
35
35
35
35
35
35
35
35
35
35
35
35
35
35
36
36
36
36
36
36
36
36
36
36
36
36
36
37
37
37
37
36
36
36
36
36
36
36
36
36
36
36
36
36
36
36
36
36
36
36
36
36
36
36
36
36
36
36
36
36
36
36
37
37
37
37
37
37
37
37
37
37
37
37
38
38
38
38
37
37
37
37
37
37
37
37
37
37
37
37
37
37
37
37
37
38
38
38
38
37
37
37
37
37
37
37
37
37
37
37
36
36
36
36
36
36
37
37
37
37
37
37
38
38
38
38
38
38
39
39
39
39
39
39
39
39
39
39
39
39
39
39
39
39
39
38
38
38
38
38
38
38
38
38
38
38
38
38
38
38
38
38
38
38
38
38
38
38
39
39
39
39
39
39
39
39
39
39
39
39
39
39
39
39
39
39
38
38
38
38
38
38
38
38
38
38
38
38
38
38
38
39
39
39
39
39
39
39
39
39
39
39
39
39
38
38
38
38
38
38
38
38
38
38
39
39
39
39
39
39
40
40
40
40
40
40
40
40
40
40
40
40
40
40
40
40
40
40
40
40
40
40
40
41
41
41
41
41
41
41
41
41
41
41
41
41
41
41
40
40
40
40
40
40
40
40
40
40
40
40
40
40
40
40
41
41
41
41
41
41
42
42
42
42
42
43
43
43
43
43
43
43
43
43
43
43
43
43
43
43
43
43
43
43
43
42
42
42
42
42
43
43
42
42
42
42
42
42
42
42
42
42
42
42
42
42
42
42
42
42
42
42
42
42
42
42
42
42
43
43
43
43
43
43
43
43
43
44
44
44
44
45
45
46
46
47
47
47
48
48
48
49
49
49
50
50
51
51
52
52
53
53
53
53
54
54
54
54
54
54
54
54
54
53
53
53
53
53
52
52
52
51
51
51
51
51
51
51
51
51
51
51
52
52
52
52
52
52
52
52
53
53
53
53
52
52
52
52
52
52
51
51
51
51
50
50
50
49
49
49
48
48
48
47
46
46
45
45
45
44
44
44
44
44
43
43
43
43
43
44
44
44
44
44
44
45
45
45
45
45
45
44
44
44
44
43
43
42
42
42
42
42
42
41
41
41
41
41
41
41
41
41
41
42
42
42
42
42
42
42
42
42
42
42
42
42
42
42
42
42
42
42
42
42
42
43
43
43
43
43
43
43
43
43
44
44
44
44
44
44
44
44
44
44
44
45
45
45
45
45
45
45
45
45
45
45
45
45
45
44
44
44
44
44
44
44
44
43
43
43
43
43
43
43
44
44
45
46
48
49
51
52
54
56
58
60
62
63
65
66
67
68
68
68
67
66
64
62
60
58
56
54
52
50
49
48
48
49
51
54
57
62
67
72
79
85
92
100
108
117
126
136
146
157
167
177
186
195
204
212
220
228
235
242
248
254
260
265
270
273
275
277
277
276
274
272
268
264
259
253
247
240
233
225
218
209
201
193
185
177
169
162
155
148
141
135
129
123
118
113
108
103
99
95
91
88
84
81
78
75
72
70
67
65
63
62
60
59
57
56
55
54
53
53
52
52
51
51
51
51
50
50
50
50
49
49
49
48
48
48
47
47
47
46
46
46
46
45
45
45
45
44
44
44
44
44
44
44
44
44
44
45
45
45
44
44
44
44
44
44
44
44
44
44
44
44
44
44
44
44
43
43
43
43
43
43
43
43
43
42
42
42
42
42
42
42
42
42
42
42
42
42
42
42
42
42
43
43
43
43
44
44
44
44
44
44
44
44
44
44
44
44
44
44
44
44
44
44
44
44
44
44
44
44
44
44
44
44
44
44
44
44
44
44
45
45
45
45
45
45
45
45
45
45
45
45
45
45
45
44
44
44
44
44
44
44
44
44
44
44
44
44
45
45
45
45
45
46
46
46
46
47
47
47
47
47
47
47
47
47
47
47
47
47
47
47
47
46
46
46
46
45
45
45
45
45
45
45
45
44
44
44
44
44
44
44
44
44
43
43
43
43
43
43
43
42
42
42
42
42
42
42
42
43
43
43
43
43
43
43
43
43
44
44
44
44
44
45
45
45
45
44
45
45
45
45
45
45
44
44
44
44
44
44
44
44
44
44
44
44
44
44
44
44
44
44
44
44
45
45
45
45
45
45
45
45
45
45
45
45
45
45
45
45
45
46
46
46
46
46
47
47
47
48
48
49
49
50
50
51
51
51
52
52
53
54
54
55
55
56
56
57
57
57
58
58
58
59
59
59
59
60
60
60
60
60
61
61
61
61
61
62
62
62
62
62
62
62
63
63
63
63
63
62
62
62
61
61
60
60
59
59
59
58
58
57
57
56
56
55
55
54
54
53
53
52
52
51
51
50
49
49
48
47
47
46
45
45
44
44
43
43
42
42
41
41
40
40
39
39
38
38
38
37
37
37
36
36
36
35
35
35
35
34
34
34
34
34
34
34
34
34
34
34
34
34
34
34
33
33
33
33
33
33
33
33
33
32
32
32
32
31
31
31
31
31
31
31
30
30
30
30
30
30
30
30
30
29
29
29
29
30
30
30
30
30
30
31
31
31
31
31
31
31
31
31
31
31
32
32
31
31
31
31
31
31
31
31
31
31
31
31
31
31
31
31
31
31
31
31
31
31
30
30
30
30
30
31
31
31
31
31
31
31
31
31
31
31
31
31
31
31
31
31
31
31
31
31
31
31
31
31
31
31
31
31
31
31
31
31
31
31
30
30
30
30
30
30
30
30
30
30
30
30
30
30
30
30
30
30
30
30
30
30
30
30
30
30
30
30
29
29
29
29
29
29
28
28
28
28
29
29
28
28
28
28
28
28
28
28
28
29
29
29
29
29
29
29
29
29
29
29
29
29
29
28
28
28
28
28
28
28
27
27
27
27
27
27
27
26
26
26
26
26
27
27
27
27
27
27
27
26
26
26
26
26
26
26
26
26
26
25
25
24
24
24
24
24
24
23
23
23
22
22
22
22
22
21
21
21
21
21
21
21
22
22
22
22
22
23
23
23
24
24
24
24
25
25
25
25
25
24
24
24
24
24
24
24
23
23
22
22
22
22
22
21
21
21
21
21
21
21
21
21
21
21
21
21
21
21
21
21
21
21
21
21
21
21
21
21
21
21
21
21
21
22
22
22
22
22
22
22
22
23
23
23
23
23
23
23
23
23
23
23
23
23
23
23
23
23
23
23
23
23
23
23
23
23
24
24
24
24
24
24
24
24
24
24
24
24
24
24
23
23
23
23
23
23
23
24
24
24
24
24
24
25
25
25
26
26
27
27
27
27
27
27
27
27
27
27
27
27
27
26
26
26
25
25
25
24
24
24
24
24
24
24
24
24
24
24
24
24
24
25
25
25
25
25
25
25
25
25
25
25
25
25
25
25
25
25
25
25
25
25
25
25
25
25
25
25
25
25
25
25
25
25
24
24
24
24
25
25
24
24
24
24
24
24
24
24
24
24
25
25
25
25
25
25
25
25
26
26
26
26
26
26
26
26
26
26
26
26
26
26
26
26
26
26
26
26
26
26
25
25
25
25
25
25
25
25
25
25
25
25
24
24
24
24
24
24
24
24
24
23
23
23
23
23
23
23
23
23
23
24
24
24
24
24
24
24
25
25
25
25
25
25
25
25
25
25
25
25
25
25
25
25
25
25
25
25
25
25
25
24
24
24
24
24
24
24
23
23
23
23
23
23
23
23
23
23
23
22
22
22
22
22
22
23
23
23
24
24
24
24
25
25
25
25
26
26
26
27
27
27
27
27
27
27
27
27
27
26
26
26
26
26
26
26
25
25
25
25
25
25
25
25
25
25
25
25
25
25
25
25
25
25
25
25
25
25
25
25
25
25
25
25
25
25
26
26
26
26
26
26
26
26
26
26
26
26
25
25
25
25
25
25
25
25
25
25
25
25
25
25
25
25
25
25
25
25
25
25
26
26
26
25
25
25
25
25
24
24
24
24
24
24
24
24
23
23
23
23
23
23
23
23
23
23
23
23
23
23
23
23
23
23
23
23
23
23
24
24
24
24
24
24
24
24
24
24
24
24
24
24
24
24
24
24
24
25
25
25
25
25
25
25
25
25
25
25
25
25
25
25
25
25
25
25
25
25
25
25
25
26
26
26
26
27
27
27
27
27
27
27
27
28
28
28
28
29
29
29
29
30
30
30
31
31
32
32
33
33
33
34
34
35
35
36
36
36
36
36
36
36
36
36
36
36
36
35
35
35
35
35
35
34
34
34
34
34
34
34
34
34
34
34
35
35
35
36
36
36
37
37
37
37
37
37
37
38
38
38
38
38
37
37
37
37
36
36
36
35
35
34
34
33
33
32
32
31
31
30
30
29
29
29
28
28
28
28
27
27
27
27
27
27
27
27
28
28
28
28
28
28
29
29
29
29
29
29
29
28
28
28
28
27
27
27
27
27
27
26
26
26
26
26
26
26
26
27
27
27
28
28
28
29
29
30
30
30
30
31
31
31
31
31
30
30
30
30
30
29
29
28
28
28
27
27
27
27
26
26
26
26
26
26
26
26
26
27
27
27
27
27
27
28
28
28
28
28
29
29
29
29
29
29
29
29
29
29
29
28
28
28
28
28
28
28
28
28
28
28
28
29
29
30
31
32
33
34
35
37
38
40
41
42
43
44
44
45
45
44
43
41
40
37
35
33
30
28
25
24
23
22
23
24
26
29
32
37
43
49
55
62
69
76
84
93
103
113
123
133
143
153
162
171
179
186
193
200
207
213
219
225
231
236
241
245
247
249
250
250
249
247
244
241
237
233
228
222
216
209
202
195
188
181
173
166
159
152
145
138
132
126
120
114
109
104
99
94
90
86
82
79
75
72
69
65
62
60
57
54
52
50
48
46
45
43
42
41
40
39
39
38
38
37
37
37
36
36
36
37
37
37
37
37
37
36
36
36
36
36
36
36
36
36
35
35
35
35
35
35
34
34
34
34
34
34
34
34
33
33
33
33
33
33
33
33
33
33
33
33
33
33
33
33
33
33
34
34
34
34
35
35
35
35
35
35
35
35
35
35
35
35
35
35
35
35
35
35
35
35
35
36
36
36
35
35
35
36
36
36
36
36
36
36
36
36
36
36
36
36
36
36
36
36
35
35
35
35
35
35
35
35
35
35
35
35
35
35
35
35
35
35
35
35
36
36
36
36
36
36
36
36
36
36
36
36
36
36
36
37
37
37
37
37
37
37
37
37
37
37
37
37
37
37
37
37
37
37
37
37
37
37
37
37
37
37
38
38
38
38
38
38
38
39
39
39
39
39
39
39
39
39
39
40
40
40
40
40
40
39
39
39
39
39
39
39
39
39
39
39
39
39
39
39
40
40
40
40
40
39
39
39
39
39
39
39
39
38
38
38
38
38
38
38
37
38
38
38
37
37
37
37
37
38
38
38
38
38
38
38
38
38
38
38
38
38
38
39
39
39
39
39
39
39
39
39
39
39
39
39
39
39
40
40
40
40
40
41
41
41
41
41
41
42
42
43
43
44
44
44
45
45
45
46
46
47
47
47
48
48
48
48
49
49
50
50
51
51
52
52
52
53
53
54
54
55
55
56
56
57
57
58
59
59
60
60
61
61
62
62
62
63
63
63
64
64
64
64
64
64
63
63
63
63
62
62
61
60
60
59
59
58
58
57
56
56
55
55
54
54
53
53
53
52
51
51
51
50
50
49
49
48
48
47
46
46
45
44
43
43
42
41
41
40
40
39
39
38
38
38
37
37
37
37
37
37
37
37
37
37
37
38
38
38
38
38
38
38
37
37
37
37
37
37
36
36
36
36
36
35
35
35
34
34
34
33
33
33
33
33
32
32
32
32
32
32
32
32
32
32
32
32
32
32
32
32
32
32
32
32
32
32
32
31
31
31
31
31
31
31
31
31
31
31
31
31
31
31
31
31
31
32
32
32
32
32
32
32
32
32
32
32
32
32
32
32
32
32
32
32
32
32
32
32
32
32
32
32
32
32
32
32
32
32
32
32
32
33
33
33
33
33
33
33
34
34
34
34
35
35
35
35
35
36
36
36
36
36
36
36
36
36
36
36
35
35
35
35
35
34
34
34
34
34
34
34
33
33
33
33
33
33
33
33
33
33
33
33
33
33
33
33
33
33
33
33
32
32
32
32
32
32
32
32
32
32
32
32
32
32
32
32
32
32
32
32
32
32
32
32
32
32
32
32
32
32
32
32
32
32
32
32
32
32
32
32
32
32
32
32
32
32
32
32
32
32
32
32
32
32
32
32
32
32
32
31
31
31
31
31
31
31
31
31
31
31
31
31
31
31
31
31
31
31
31
31
31
31
31
31
32
32
32
32
32
32
32
32
33
33
33
33
33
33
33
33
33
33
33
33
33
33
33
33
33
33
33
33
33
33
33
32
32
32
32
32
31
31
31
31
31
31
31
31
31
30
30
30
30
30
31
31
31
31
31
31
31
31
32
32
32
32
32
32
32
32
32
33
33
33
33
33
32
32
32
32
32
32
32
32
32
31
31
31
31
31
31
31
31
31
31
32
32
32
32
33
33
33
33
33
34
34
34
34
34
34
34
34
34
34
34
34
34
34
34
34
34
34
34
34
34
34
34
34
34
33
33
33
33
33
33
33
33
33
33
33
33
33
33
33
33
33
34
34
34
34
34
34
34
34
34
34
34
34
34
34
34
34
34
34
34
34
34
34
34
34
34
34
34
34
34
34
34
34
34
34
34
34
34
34
34
34
34
34
35
35
35
35
35
35
35
35
35
35
35
35
35
35
35
35
35
35
35
35
35
35
35
35
35
35
35
35
35
35
34
34
34
34
34
35
35
35
35
35
35
35
35
35
35
35
35
35
35
35
36
36
36
36
36
36
36
36
36
35
35
35
36
36
36
36
36
36
36
36
36
36
36
36
36
36
36
36
36
36
36
36
36
36
36
36
36
36
36
36
36
36
36
36
35
35
35
35
35
35
35
34
34
34
34
34
34
35
35
35
35
35
35
35
36
36
37
37
37
37
37
37
37
37
38
38
38
38
38
38
38
38
38
38
38
38
38
39
39
39
39
39
38
38
38
37
37
37
37
36
36
36
36
35
35
35
34
34
34
34
34
34
35
35
35
35
35
36
36
36
37
37
37
37
37
37
37
37
37
38
38
38
38
38
38
38
38
38
38
38
38
38
38
38
38
38
38
38
38
38
38
38
38
38
38
38
38
38
38
38
38
38
38
37
37
37
37
37
37
37
38
38
38
38
38
38
38
38
38
38
38
38
39
39
39
39
39
39
39
38
38
38
38
39
39
39
39
40
40
40
40
40
40
40
40
41
41
41
41
42
42
42
42
43
43
43
43
43
43
43
44
44
45
45
45
46
46
46
46
46
47
47
48
48
48
49
49
49
49
49
49
49
49
50
50
50
49
49
49
49
49
49
49
49
49
49
49
50
50
50
50
50
51
51
51
51
51
51
51
51
51
50
50
50
49
49
48
48
48
47
46
46
45
45
44
44
43
43
43
42
42
42
42
42
41
41
41
41
41
41
41
41
41
41
40
40
40
40
40
40
40
40
39
39
39
39
40
40
40
40
40
41
41
41
41
41
42
42
42
42
43
43
43
43
42
42
42
42
42
41
41
41
40
40
40
39
39
38
38
38
38
38
37
37
37
37
37
37
38
38
38
38
38
38
39
39
39
39
39
39
39
39
39
39
39
39
39
39
39
39
39
40
40
40
40
40
41
41
41
42
42
43
43
43
44
44
44
45
45
45
45
44
44
44
44
44
44
44
44
44
44
44
43
43
43
43
44
45
45
47
48
49
50
52
54
56
58
59
61
63
65
66
68
68
69
69
68
67
66
64
62
60
58
56
54
52
50
50
49
50
52
54
58
62
68
73
79
86
93
100
109
