# Simple Text Format
# Sampling Rate (Hz):= 1200.00
# Resolution:= 12
# Labels:= ECG	 V2
# Age:=	18
# Gender:=	Masculino
-3
-3
-3
-4
-4
-4
-4
-4
-5
-5
-5
-5
-5
-5
-5
-5
-7
-7
-7
-7
-7
-7
-8
-8
-8
-9
-9
-9
-9
-9
-9
-9
-9
-10
-10
-10
-10
-11
-11
-11
-11
-11
-12
-12
-11
-11
-13
-13
-13
-13
-14
-14
-14
-14
-15
-15
-15
-15
-15
-15
-16
-16
-16
-16
-16
-16
-16
-16
-16
-16
-16
-16
-16
-16
-16
-16
-17
-17
-17
-18
-18
-18
-18
-18
-18
-19
-19
-19
-19
-19
-20
-19
-19
-19
-19
-19
-19
-20
-20
-20
-20
-20
-20
-20
-21
-21
-21
-21
-21
-21
-21
-21
-21
-21
-21
-21
-21
-22
-22
-22
-22
-23
-23
-23
-23
-23
-23
-23
-23
-23
-23
-24
-24
-24
-24
-24
-24
-24
-24
-24
-24
-24
-24
-25
-25
-25
-25
-25
-24
-24
-24
-24
-24
-24
-24
-24
-24
-24
-24
-24
-24
-24
-24
-24
-24
-24
-25
-25
-25
-25
-25
-25
-25
-25
-25
-25
-25
-25
-25
-25
-26
-26
-25
-25
-25
-25
-25
-25
-25
-25
-25
-25
-24
-24
-24
-24
-24
-24
-24
-24
-24
-24
-24
-24
-24
-24
-24
-24
-24
-24
-24
-24
-24
-24
-24
-24
-24
-24
-24
-24
-25
-25
-25
-25
-25
-25
-25
-25
-26
-26
-26
-26
-26
-26
-26
-26
-26
-26
-26
-27
-27
-27
-27
-27
-27
-27
-27
-27
-27
-27
-26
-26
-26
-26
-26
-26
-26
-26
-26
-26
-27
-27
-27
-27
-27
-27
-27
-28
-28
-28
-28
-27
-27
-27
-27
-27
-28
-28
-28
-28
-28
-28
-28
-28
-28
-28
-28
-28
-28
-28
-28
-28
-28
-28
-28
-28
-28
-28
-28
-28
-28
-28
-28
-29
-29
-29
-29
-30
-30
-30
-30
-30
-30
-30
-30
-30
-30
-30
-30
-30
-30
-30
-30
-29
-29
-29
-29
-29
-29
-29
-29
-28
-29
-29
-29
-29
-29
-29
-29
-29
-29
-29
-29
-29
-29
-29
-29
-29
-29
-29
-29
-29
-29
-29
-29
-29
-29
-29
-28
-28
-28
-28
-28
-27
-27
-27
-27
-27
-27
-27
-27
-27
-27
-27
-27
-27
-27
-27
-27
-27
-27
-28
-28
-28
-28
-28
-28
-28
-28
-28
-28
-28
-28
-28
-28
-29
-29
-28
-28
-28
-27
-27
-27
-27
-27
-27
-27
-27
-27
-27
-27
-28
-28
-28
-28
-28
-28
-28
-28
-28
-28
-28
-28
-28
-28
-28
-28
-28
-28
-28
-28
-28
-28
-28
-28
-28
-28
-29
-29
-29
-29
-29
-29
-29
-29
-29
-29
-29
-28
-28
-28
-28
-28
-28
-28
-28
-28
-28
-28
-28
-28
-28
-27
-27
-27
-27
-27
-27
-27
-27
-27
-27
-27
-27
-27
-27
-28
-28
-27
-27
-27
-27
-27
-27
-27
-27
-27
-27
-27
-27
-27
-27
-27
-27
-27
-27
-27
-27
-27
-26
-26
-26
-26
-26
-26
-26
-26
-26
-26
-26
-26
-26
-26
-26
-26
-27
-27
-27
-27
-27
-27
-27
-27
-27
-27
-27
-27
-27
-27
-27
-27
-27
-27
-27
-27
-27
-27
-27
-27
-26
-26
-26
-26
-26
-26
-26
-26
-26
-26
-27
-26
-26
-26
-26
-26
-25
-25
-25
-25
-25
-25
-24
-24
-24
-24
-24
-24
-24
-24
-25
-25
-25
-25
-25
-25
-25
-25
-25
-25
-25
-26
-26
-26
-26
-26
-26
-25
-25
-25
-25
-25
-25
-25
-25
-26
-26
-26
-26
-26
-25
-25
-25
-25
-25
-24
-24
-24
-24
-24
-24
-23
-23
-23
-23
-23
-22
-22
-22
-22
-22
-21
-21
-21
-21
-20
-20
-20
-20
-19
-19
-19
-18
-18
-17
-16
-16
-16
-15
-15
-14
-14
-13
-13
-12
-12
-11
-11
-11
-11
-11
-10
-10
-10
-10
-10
-10
-11
-11
-11
-11
-11
-11
-11
-11
-11
-11
-11
-11
-11
-11
-11
-10
-10
-10
-10
-10
-10
-10
-9
-9
-9
-9
-9
-9
-9
-9
-9
-9
-9
-9
-9
-9
-10
-10
-10
-10
-10
-10
-10
-11
-11
-11
-11
-12
-12
-11
-12
-12
-13
-13
-13
-13
-13
-14
-14
-15
-15
-15
-16
-16
-17
-17
-17
-18
-19
-19
-19
-19
-21
-21
-21
-21
-21
-21
-21
-21
-21
-21
-21
-22
-22
-22
-22
-22
-23
-23
-23
-23
-23
-23
-23
-23
-23
-23
-23
-23
-23
-23
-23
-23
-23
-24
-24
-24
-24
-24
-23
-23
-23
-23
-23
-23
-23
-23
-22
-22
-22
-22
-21
-22
-22
-22
-21
-22
-22
-22
-22
-22
-22
-22
-22
-22
-21
-21
-21
-21
-21
-21
-21
-21
-21
-21
-21
-21
-21
-21
-21
-21
-21
-20
-20
-20
-20
-20
-20
-20
-20
-20
-19
-19
-19
-19
-19
-19
-19
-19
-18
-18
-18
-17
-17
-16
-14
-13
-12
-11
-8
-5
-1
3
9
16
23
31
42
52
64
76
90
104
119
135
151
166
180
195
207
217
227
234
239
242
244
243
240
235
226
218
206
192
176
159
139
118
96
73
49
24
-1
-27
-53
-79
-104
-129
-154
-179
-202
-226
-248
-269
-288
-305
-321
-335
-346
-355
-362
-366
-368
-367
-364
-360
-354
-346
-336
-324
-312
-297
-283
-267
-251
-234
-218
-201
-185
-169
-152
-136
-121
-106
-92
-79
-66
-54
-42
-32
-22
-14
-6
1
6
12
18
23
27
30
33
36
38
40
41
42
43
44
44
44
45
44
45
45
45
46
46
46
46
46
46
47
47
47
48
48
48
49
49
50
51
51
52
51
52
52
53
53
54
55
55
56
56
57
57
56
57
57
58
58
58
60
60
60
61
61
61
61
62
62
62
63
63
63
64
65
65
65
66
66
66
66
68
68
68
68
69
69
70
70
71
71
71
71
72
72
72
72
73
73
73
75
75
75
76
76
76
76
77
77
77
78
79
79
79
80
81
81
82
82
83
83
83
84
84
85
85
85
86
87
88
88
88
89
89
90
91
91
92
92
92
94
94
94
95
95
96
96
97
98
98
99
100
100
101
101
102
102
103
104
104
105
105
106
106
107
109
109
110
110
111
111
112
113
113
114
114
116
116
117
117
118
118
119
120
121
121
122
123
123
124
125
126
127
128
129
129
130
131
132
132
133
135
136
136
137
138
138
139
141
142
142
143
144
145
146
146
147
148
148
149
150
151
152
152
153
153
155
156
156
157
158
158
160
161
161
162
163
164
165
166
166
168
168
169
170
170
171
172
173
173
175
175
175
177
177
177
178
179
179
179
180
181
181
181
181
181
182
182
182
182
182
182
183
182
183
182
182
182
182
181
182
181
182
181
180
179
180
179
179
178
177
176
176
175
174
174
173
172
171
170
169
168
167
166
165
163
163
161
160
159
157
157
155
153
151
150
148
146
145
143
141
139
137
135
133
131
129
127
125
123
121
118
116
115
113
110
108
105
103
101
99
96
95
92
91
88
85
84
82
79
78
75
74
72
69
68
66
63
62
60
58
56
54
52
51
49
47
45
43
41
40
38
37
35
34
32
31
29
27
27
25
24
23
21
21
20
19
18
18
16
16
14
14
14
13
12
11
11
10
9
9
8
8
7
7
6
5
5
5
4
4
4
4
3
3
3
2
2
2
2
1
1
2
2
2
2
2
2
1
1
1
1
1
2
1
1
1
1
1
1
1
0
0
0
1
1
1
1
1
1
1
1
1
0
0
0
0
0
0
1
1
1
1
1
1
1
1
1
0
0
0
0
0
0
0
0
0
0
0
1
1
0
0
0
0
0
0
0
0
0
-1
-1
-1
-2
-2
-2
-3
-3
-2
-2
-3
-3
-3
-3
-4
-4
-4
-4
-5
-4
-4
-4
-4
-4
-4
-5
-5
-5
-4
-4
-5
-5
-5
-5
-5
-6
-6
-7
-7
-7
-8
-8
-8
-8
-8
-9
-9
-9
-9
-9
-9
-9
-10
-10
-10
-10
-10
-10
-10
-10
-10
-10
-10
-10
-10
-10
-10
-11
-11
-11
-11
-11
-12
-12
-12
-12
-12
-13
-13
-13
-13
-13
-14
-15
-15
-15
-15
-15
-15
-16
-16
-16
-16
-16
-16
-16
-16
-16
-17
-17
-18
-18
-18
-18
-18
-18
-18
-18
-19
-20
-20
-20
-20
-20
-20
-20
-20
-21
-21
-21
-21
-21
-21
-21
-21
-21
-20
-20
-20
-21
-21
-21
-21
-21
-21
-21
-21
-21
-21
-21
-21
-22
-22
-22
-22
-22
-22
-23
-24
-24
-24
-24
-24
-23
-24
-25
-25
-25
-25
-25
-25
-25
-25
-25
-25
-24
-25
-25
-25
-25
-25
-26
-26
-26
-26
-26
-26
-26
-26
-26
-26
-26
-26
-26
-26
-27
-27
-27
-27
-27
-26
-25
-25
-25
-25
-25
-25
-25
-25
-26
-26
-26
-26
-26
-26
-26
-26
-26
-26
-26
-26
-26
-26
-27
-27
-27
-27
-28
-28
-28
-28
-27
-27
-27
-27
-27
-28
-28
-28
-28
-28
-28
-28
-28
-28
-28
-28
-28
-28
-28
-28
-28
-28
-28
-29
-28
-28
-28
-28
-28
-28
-28
-28
-28
-28
-28
-28
-28
-28
-28
-28
-28
-28
-28
-28
-28
-29
-29
-29
-29
-29
-29
-29
-29
-29
-29
-29
-29
-29
-29
-29
-29
-30
-30
-30
-30
-30
-30
-30
-30
-30
-30
-30
-30
-30
-30
-29
-29
-29
-29
-29
-29
-29
-29
-30
-30
-30
-30
-30
-30
-30
-30
-30
-30
-30
-30
-30
-30
-30
-30
-30
-30
-30
-30
-30
-30
-29
-29
-29
-29
-29
-30
-31
-31
-30
-30
-30
-30
-30
-30
-31
-31
-31
-30
-30
-30
-30
-30
-30
-30
-30
-30
-30
-30
-30
-30
-30
-30
-30
-30
-30
-30
-30
-30
-30
-30
-30
-30
-30
-30
-30
-30
-30
-30
-30
-30
-30
-30
-30
-30
-30
-30
-31
-31
-31
-31
-31
-31
-31
-31
-31
-31
-31
-31
-30
-31
-31
-30
-30
-30
-30
-30
-30
-30
-30
-30
-30
-29
-29
-29
-29
-29
-29
-29
-29
-29
-29
-29
-29
-29
-29
-29
-29
-29
-29
-29
-29
-29
-29
-29
-29
-29
-29
-29
-29
-29
-29
-29
-30
-30
-30
-30
-30
-30
-30
-30
-30
-30
-31
-31
-31
-31
-31
-31
-31
-31
-30
-30
-30
-30
-30
-30
-30
-29
-29
-29
-29
-29
-29
-29
-29
-29
-29
-29
-29
-29
-30
-30
-30
-30
-30
-30
-30
-30
-30
-30
-30
-29
-29
-29
-29
-29
-29
-29
-29
-29
-30
-30
-30
-29
-29
-29
-29
-29
-29
-29
-29
-30
-29
-29
-29
-29
-30
-30
-30
-30
-30
-30
-30
-30
-30
-29
-30
-30
-30
-30
-30
-30
-30
-30
-30
-30
-30
-30
-30
-30
-30
-30
-30
-30
-30
-30
-29
-29
-29
-28
-28
-28
-29
-29
-29
-29
-29
-29
-29
-29
-29
-29
-29
-28
-29
-29
-29
-29
-29
-29
-29
-29
-28
-28
-29
-28
-28
-28
-28
-27
-27
-27
-27
-27
-27
-27
-27
-27
-26
-26
-26
-26
-25
-24
-24
-23
-23
-23
-22
-21
-21
-20
-19
-19
-18
-17
-17
-17
-15
-15
-15
-15
-14
-14
-14
-13
-14
-14
-14
-14
-14
-14
-14
-14
-14
-14
-15
-15
-15
-16
-16
-16
-16
-16
-16
-16
-16
-16
-16
-16
-15
-15
-15
-14
-14
-14
-14
-14
-14
-14
-14
-14
-14
-14
-13
-13
-13
-13
-14
-14
-15
-14
-14
-15
-15
-15
-15
-15
-16
-15
-16
-17
-16
-17
-17
-17
-18
-18
-19
-19
-19
-20
-20
-20
-20
-22
-22
-22
-23
-24
-23
-25
-25
-26
-26
-27
-27
-27
-27
-28
-28
-29
-29
-29
-29
-30
-30
-30
-30
-30
-30
-30
-30
-30
-30
-30
-30
-30
-30
-30
-30
-30
-31
-31
-31
-31
-31
-31
-31
-31
-31
-31
-31
-31
-31
-31
-31
-31
-30
-30
-30
-30
-30
-30
-29
-29
-29
-29
-30
-30
-30
-30
-30
-30
-30
-30
-30
-30
-30
-30
-30
-30
-30
-30
-30
-29
-29
-29
-29
-29
-29
-29
-29
-29
-29
-29
-28
-28
-28
-28
-28
-28
-28
-28
-27
-27
-27
-26
-26
-26
-26
-25
-25
-25
-23
-23
-22
-21
-20
-19
-17
-17
-14
-12
-8
-4
2
8
15
23
32
43
55
66
80
95
111
128
144
160
176
191
206
218
230
239
246
251
254
255
254
250
245
238
228
216
202
186
168
148
127
104
80
56
31
4
-21
-47
-73
-99
-124
-149
-175
-199
-222
-245
-267
-286
-305
-321
-335
-346
-355
-362
-367
-370
-370
-369
-365
-360
-352
-342
-331
-320
-307
-293
-278
-263
-248
-232
-215
-200
-184
-168
-153
-138
-124
-110
-97
-84
-72
-61
-51
-41
-32
-24
-18
-10
-4
1
5
10
14
16
20
22
24
26
27
28
29
30
30
31
31
31
32
32
32
32
32
33
33
33
33
33
33
34
34
35
35
35
36
36
37
37
38
38
38
39
39
39
40
40
40
41
41
42
42
43
43
43
43
44
44
44
45
46
46
46
47
47
47
47
48
48
49
49
50
51
50
51
51
51
52
52
53
53
53
54
54
55
55
56
56
57
57
57
58
58
59
59
59
60
60
60
61
61
62
62
63
63
63
63
65
65
65
65
65
66
66
66
66
67
67
68
68
69
69
69
70
70
70
71
71
71
72
72
73
74
74
74
75
75
76
76
77
77
77
78
79
79
79
80
80
81
81
81
82
82
83
84
84
84
85
86
87
87
88
88
89
89
90
90
91
91
92
93
93
94
95
95
96
97
98
98
99
99
101
101
101
102
103
104
104
105
105
106
106
108
108
109
109
110
110
111
112
113
114
114
115
116
116
117
118
118
120
121
121
122
124
124
125
126
127
128
129
130
131
132
133
134
134
135
137
137
138
139
139
141
142
142
143
145
145
146
146
148
148
149
149
151
151
151
152
153
153
154
154
155
155
155
156
157
157
157
157
158
158
158
159
158
158
158
159
159
158
159
158
158
159
158
157
158
157
156
157
156
155
154
155
154
153
153
152
151
151
150
149
148
147
147
145
145
143
142
141
140
139
137
135
135
133
131
130
128
126
125
123
121
120
118
117
115
113
111
109
107
105
103
101
99
97
95
93
90
89
87
85
82
81
79
76
75
72
70
68
66
65
62
61
58
57
55
52
51
49
47
46
44
41
39
37
36
34
32
31
29
27
25
23
22
21
19
17
16
15
13
13
11
9
8
7
6
5
3
3
1
0
-1
-2
-3
-4
-5
-6
-7
-7
-8
-9
-9
-10
-10
-11
-11
-12
-12
-12
-13
-13
-13
-14
-14
-15
-15
-15
-15
-15
-15
-15
-15
-15
-17
-17
-17
-17
-17
-17
-17
-17
-17
-17
-17
-17
-17
-17
-16
-16
-16
-17
-17
-17
-17
-17
-17
-17
-17
-17
-17
-17
-17
-17
-17
-17
-17
-17
-17
-17
-17
-17
-17
-17
-18
-18
-18
-18
-18
-18
-18
-18
-18
-18
-19
-19
-19
-19
-19
-19
-19
-19
-19
-19
-19
-19
-19
-19
-19
-19
-19
-19
-19
-19
-19
-19
-19
-19
-19
-19
-19
-19
-19
-19
-19
-19
-19
-19
-19
-19
-19
-20
-20
-20
-20
-20
-21
-21
-21
-22
-22
-22
-22
-23
-23
-23
-23
-24
-24
-23
-23
-24
-24
-24
-24
-24
-25
-25
-25
-25
-25
-25
-26
-26
-26
-26
-26
-26
-27
-27
-28
-28
-28
-28
-29
-29
-29
-29
-29
-30
-30
-30
-30
-30
-30
-30
-30
-30
-31
-31
-31
-31
-31
-31
-31
-31
-31
-31
-31
-32
-32
-32
-32
-33
-33
-33
-33
-33
-34
-34
-34
-34
-35
-35
-35
-35
-35
-36
-35
-36
-36
-36
-36
-36
-36
-36
-36
-36
-36
-36
-36
-36
-36
-36
-37
-37
-36
-36
-36
-36
-37
-37
-37
-37
-37
-37
-38
-38
-38
-38
-37
-37
-38
-38
-38
-39
-39
-39
-39
-39
-39
-39
-39
-40
-40
-40
-40
-40
-40
-40
-40
-40
-40
-39
-39
-40
-40
-40
-40
-40
-40
-40
-40
-40
-40
-40
-40
-40
-41
-41
-41
-41
-41
-41
-41
-41
-41
-40
-40
-40
-41
-41
-41
-41
-41
-41
-41
-42
-42
-42
-42
-42
-42
-42
-43
-43
-43
-43
-43
-43
-43
-43
-43
-43
-43
-43
-43
-43
-43
-43
-43
-43
-43
-43
-43
-43
-43
-43
-43
-43
-43
-43
-43
-42
-42
-42
-42
-42
-42
-42
-42
-42
-41
-42
-42
-42
-42
-42
-42
-42
-43
-43
-43
-43
-43
-43
-43
-43
-43
-43
-43
-43
-43
-43
-43
-43
-43
-43
-43
-43
-43
-43
-43
-43
-43
-43
-43
-43
-43
-43
-43
-43
-43
-43
-43
-43
-43
-43
-43
-44
-44
-44
-44
-44
-44
-44
-44
-44
-44
-44
-44
-44
-43
-43
-43
-43
-43
-43
-43
-43
-43
-43
-43
-43
-43
-43
-43
-43
-43
-43
-43
-42
-42
-42
-42
-42
-42
-43
-43
-43
-43
-43
-43
-43
-43
-44
-44
-44
-44
-43
-43
-44
-44
-44
-44
-44
-44
-44
-44
-44
-44
-44
-44
-44
-44
-44
-44
-44
-44
-44
-43
-43
-43
-43
-44
-44
-44
-44
-44
-44
-44
-44
-43
-43
-43
-43
-44
-43
-43
-43
-43
-43
-43
-43
-43
-43
-43
-43
-43
-43
-43
-43
-43
-43
-43
-43
-43
-43
-43
-43
-43
-43
-43
-43
-43
-43
-42
-42
-42
-42
-42
-42
-43
-43
-43
-43
-43
-43
-43
-43
-43
-43
-43
-44
-44
-44
-44
-44
-44
-43
-43
-43
-43
-43
-43
-43
-43
-43
-43
-43
-43
-43
-43
-43
-43
-43
-43
-43
-43
-43
-43
-43
-43
-43
-43
-43
-43
-43
-42
-42
-42
-42
-42
-42
-42
-42
-42
-42
-42
-42
-41
-41
-41
-41
-41
-41
-41
-41
-41
-41
-41
-41
-41
-40
-41
-41
-41
-41
-41
-41
-41
-41
-41
-41
-42
-42
-42
-42
-42
-42
-42
-42
-42
-41
-41
-41
-40
-40
-40
-39
-39
-39
-39
-39
-39
-39
-39
-39
-38
-38
-38
-37
-37
-37
-37
-37
-36
-36
-36
-34
-34
-33
-32
-32
-32
-31
-30
-30
-29
-29
-28
-27
-27
-26
-26
-26
-25
-25
-25
-25
-24
-24
-24
-24
-24
-23
-23
-23
-23
-24
-24
-23
-24
-24
-24
-24
-25
-25
-25
-26
-26
-25
-25
-26
-26
-25
-26
-26
-26
-26
-26
-26
-27
-26
-26
-26
-27
-27
-27
-26
-26
-26
-26
-26
-26
-26
-26
-27
-26
-26
-26
-26
-27
-27
-27
-27
-27
-27
-27
-27
-27
-28
-27
-27
-28
-28
-28
-29
-29
-29
-30
-30
-31
-31
-31
-31
-32
-33
-33
-34
-34
-34
-34
-36
-36
-36
-36
-38
-38
-38
-38
-38
-38
-38
-40
-40
-40
-40
-40
-40
-40
-40
-40
-40
-40
-40
-40
-40
-40
-40
-40
-40
-40
-39
-39
-39
-39
-39
-38
-38
-38
-38
-38
-38
-38
-39
-39
-39
-38
-38
-38
-38
-38
-38
-38
-38
-38
-38
-38
-38
-38
-38
-38
-38
-38
-38
-39
-39
-39
-39
-38
-38
-38
-38
-38
-38
-37
-37
-37
-37
-37
-37
-36
-36
-36
-36
-36
-35
-35
-35
-35
-34
-34
-34
-34
-33
-33
-32
-33
-33
-32
-31
-31
-31
-30
-30
-29
-28
-27
-26
-25
-23
-20
-17
-13
-8
-3
2
10
19
28
39
52
65
79
94
109
125
142
157
172
186
198
209
218
225
231
234
235
233
230
224
216
207
195
180
164
145
126
105
83
59
34
8
-17
-43
-69
-94
-120
-146
-171
-196
-220
-242
-264
-285
-304
-322
-338
-351
-362
-370
-376
-380
-382
-382
-379
-375
-368
-360
-350
-338
-325
-311
-296
-281
-265
-248
-232
-215
-199
-183
-167
-151
-136
-120
-107
-93
-80
-69
-58
-48
-38
-29
-21
-14
-7
-2
3
7
11
14
17
20
22
24
25
27
28
28
29
29
29
29
29
29
29
29
29
29
30
29
29
30
30
30
31
31
31
32
33
34
33
33
34
35
35
36
36
37
37
38
38
38
39
39
40
40
40
41
41
42
42
43
43
43
44
44
44
44
45
45
45
45
46
46
47
48
48
48
48
49
49
49
50
50
50
51
51
51
52
52
52
53
53
53
54
54
54
55
55
55
56
56
56
57
57
58
59
60
60
60
61
61
62
62
63
63
64
64
65
65
66
67
67
68
68
69
69
69
70
70
71
71
71
72
72
73
73
75
75
75
76
76
77
77
78
78
79
79
80
80
81
82
82
84
84
85
85
86
86
87
87
88
88
89
90
90
91
92
92
93
93
94
94
95
96
96
97
97
98
99
100
101
101
102
102
103
103
104
106
106
106
107
108
109
109
110
111
111
112
114
115
114
116
117
118
119
119
120
121
122
123
125
126
127
128
129
130
131
131
133
134
135
136
137
137
138
139
141
142
142
143
144
145
146
147
148
148
149
150
151
152
152
154
154
154
156
156
157
158
158
159
160
160
162
162
162
162
163
164
164
165
165
166
166
166
166
167
167
167
167
167
167
167
167
167
167
167
167
166
166
166
166
165
165
165
164
164
164
163
162
162
160
159
159
158
158
157
155
155
153
152
152
150
148
148
147
145
143
143
141
139
138
136
134
134
132
130
128
126
125
123
121
119
117
114
114
111
109
107
105
103
100
99
97
94
92
89
88
85
83
81
78
77
74
73
70
68
66
64
62
60
57
56
54
52
49
47
46
44
42
40
38
37
35
33
31
30
29
27
26
24
22
21
19
18
16
15
14
14
12
11
10
9
8
7
6
5
4
2
2
2
0
0
-2
-2
-2
-4
-4
-5
-6
-6
-7
-7
-8
-8
-9
-9
-9
-9
-9
-10
-10
-10
-10
-10
-10
-11
-11
-11
-11
-11
-11
-11
-11
-11
-11
-11
-11
-11
-11
-12
-12
-11
-11
-11
-11
-11
-11
-11
-11
-11
-11
-11
-11
-11
-11
-11
-11
-11
-12
-12
-12
-12
-12
-12
-12
-12
-12
-12
-12
-12
-12
-12
-12
-12
-12
-12
-12
-12
-12
-12
-12
-12
-12
-13
-13
-13
-13
-13
-13
-12
-13
-13
-13
-13
-14
-14
-14
-14
-14
-14
-14
-14
-14
-14
-14
-15
-15
-15
-14
-14
-14
-14
-15
-15
-15
-15
-15
-15
-15
-15
-16
-16
-16
-16
-16
-16
-16
-16
-16
-16
-17
-17
-17
-17
-18
-18
-18
-18
-18
-18
-19
-19
-19
-19
-19
-18
-18
-19
-19
-20
-20
-20
-20
-20
-20
-21
-21
-21
-21
-22
-22
-22
-23
-23
-23
-24
-24
-24
-25
-24
-24
-24
-25
-25
-25
-25
-25
-26
-26
-26
-26
-26
-26
-26
-27
-28
-28
-28
-28
-28
-28
-28
-28
-28
-29
-29
-29
-29
-29
-29
-29
-30
-30
-30
-30
-30
-30
-30
-30
-30
-30
-30
-31
-31
-31
-31
-31
-31
-31
-32
-31
-31
-31
-31
-31
-31
-31
-31
-31
-31
-31
-31
-31
-32
-32
-32
-32
-32
-32
-32
-33
-33
-33
-33
-33
-33
-33
-33
-33
-33
-33
-34
-34
-34
-34
-34
-34
-34
-34
-34
-34
-34
-34
-34
-34
-34
-34
-34
-34
-34
-34
-34
-34
-34
-34
-34
-34
-34
-34
-34
-34
-34
-35
-35
-35
-35
-35
-35
-35
-35
-35
-35
-35
-35
-35
-35
-36
-36
-36
-36
-36
-36
-36
-36
-36
-36
-36
-36
-36
-36
-36
-36
-36
-37
-37
-37
-37
-37
-37
-37
-37
-38
-38
-38
-38
-38
-38
-37
-37
-37
-37
-37
-38
-38
-38
-38
-38
-38
-38
-37
-37
-37
-37
-37
-37
-37
-37
-37
-38
-37
-37
-37
-37
-37
-37
-37
-37
-37
-38
-38
-38
-38
-37
-37
-37
-37
-37
-37
-37
-37
-37
-37
-37
-37
-37
-37
-37
-37
-37
-37
-37
-38
-38
-38
-38
-37
-37
-37
-37
-37
-37
-37
-37
-37
-37
-37
-37
-37
-37
-38
-38
-38
-38
-39
-39
-38
-38
-38
-38
-38
-38
-38
-38
-38
-38
-38
-38
-38
-38
-38
-38
-38
-38
-38
-38
-38
-38
-38
-38
-38
-38
-38
-37
-37
-37
-38
-38
-38
-37
-37
-37
-37
-37
-37
-37
-37
-37
-37
-37
-37
-37
-37
-37
-37
-37
-38
-38
-38
-38
-38
-38
-38
-38
-38
-38
-38
-38
-38
-39
-39
-39
-39
-39
-38
-38
-38
-38
-38
-38
-38
-38
-39
-39
-39
-38
-38
-38
-38
-38
-38
-38
-38
-38
-39
-39
-39
-39
-39
-39
-39
-39
-39
-38
-37
-37
-37
-37
-37
-37
-37
-37
-38
-38
-38
-38
-38
-38
-38
-38
-38
-38
-38
-38
-38
-38
-38
-38
-38
-38
-39
-39
-39
-39
-39
-39
-39
-39
-39
-39
-39
-39
-40
-40
-40
-40
-40
-40
-39
-39
-39
-39
-39
-39
-39
-40
-39
-39
-39
-39
-39
-39
-39
-39
-39
-39
-40
-40
-40
-40
-39
-40
-40
-40
-40
-41
-41
-41
-41
-40
-40
-40
-40
-40
-40
-40
-40
-40
-40
-40
-40
-40
-40
-40
-40
-40
-40
-40
-40
-40
-40
-40
-40
-40
-40
-40
-40
-40
-40
-40
-40
-40
-41
-41
-41
-41
-41
-42
-42
-42
-41
-41
-42
-42
-42
-42
-42
-42
-42
-42
-42
-42
-42
-42
-42
-42
-42
-42
-42
-42
-42
-42
-42
-42
-42
-42
-42
-42
-42
-43
-42
-42
-42
-42
-42
-42
-42
-42
-42
-42
-42
-42
-42
-42
-42
-42
-42
-42
-42
-42
-42
-42
-41
-42
-42
-42
-42
-42
-42
-42
-42
-42
-43
-43
-43
-43
-43
-43
-43
-43
-43
-43
-43
-43
-44
-44
-44
-44
-44
-44
-44
-44
-44
-44
-44
-44
-44
-44
-44
-44
-44
-44
-44
-44
-44
-44
-44
-43
-43
-43
-43
-43
-43
-43
-43
-43
-42
-42
-42
-42
-41
-42
-42
-41
-41
-41
-41
-41
-40
-40
-40
-39
-39
-39
-38
-37
-37
-37
-36
-36
-35
-34
-34
-34
-33
-33
-31
-31
-31
-30
-30
-30
-29
-28
-28
-28
-28
-28
-28
-28
-27
-27
-28
-28
-28
-28
-28
-30
-29
-29
-30
-30
-31
-31
-32
-32
-32
-32
-33
-32
-32
-32
-33
-33
-32
-32
-32
-33
-33
-33
-32
-32
-32
-32
-32
-33
-33
-33
-33
-32
-33
-33
-33
-33
-34
-34
-34
-33
-34
-34
-34
-34
-35
-35
-35
-36
-36
-36
-37
-37
-38
-38
-38
-38
-39
-39
-39
-41
-41
-41
-41
-43
-43
-43
-44
-44
-45
-46
-46
-46
-47
-47
-47
-49
-49
-49
-49
-49
-50
-50
-50
-50
-50
-50
-50
-50
-50
-50
-50
-51
-51
-51
-50
-50
-50
-50
-50
-50
-50
-50
-50
-50
-49
-49
-49
-49
-49
-49
-49
-49
-49
-48
-48
-48
-48
-48
-48
-48
-48
-48
-48
-48
-48
-48
-48
-48
-48
-48
-49
-49
-49
-49
-49
-49
-49
-49
-49
-49
-49
-48
-48
-47
-47
-47
-47
-47
-47
-47
-47
-47
-46
-46
-46
-46
-46
-46
-45
-45
-45
-45
-44
-44
-44
-44
-42
-42
-42
-42
-41
-40
-39
-39
-38
-37
-35
-33
-30
-26
-22
-16
-10
-4
4
13
24
35
47
61
75
90
105
121
136
151
164
176
187
197
205
209
213
215
214
213
208
202
194
184
172
158
141
123
104
85
62
39
16
-8
-33
-58
-83
-108
-133
-158
-183
-207
-231
-253
-275
-295
-315
-331
-345
-358
-368
-376
-382
-384
-386
-385
-381
-376
-369
-360
-349
-337
-324
-310
-296
-280
-264
-248
-232
-216
-199
-184
-168
-153
-139
-124
-112
-99
-87
-76
-66
-56
-47
-39
-32
-26
-20
-15
-10
-5
-1
1
3
5
7
8
10
10
12
12
13
13
13
13
14
13
13
14
14
14
14
14
15
15
16
16
15
16
16
16
18
18
19
19
19
20
20
20
20
20
21
21
22
22
23
23
24
24
24
25
25
25
26
26
27
27
27
27
27
28
28
28
29
29
29
29
30
30
31
31
31
32
32
32
33
33
34
34
34
34
35
35
36
37
37
38
38
38
39
39
39
40
40
42
42
43
42
42
44
44
45
45
46
46
47
47
47
48
48
49
49
50
50
50
52
52
53
53
53
54
54
54
55
55
55
56
56
57
58
58
59
59
60
60
60
61
62
63
63
64
64
64
65
65
66
67
67
68
68
69
69
69
70
70
70
71
71
72
72
73
73
74
75
75
76
76
77
77
78
79
79
80
80
81
82
83
83
84
84
85
86
86
87
87
88
89
89
90
90
91
92
92
93
94
95
95
96
98
98
99
100
100
101
102
104
104
105
105
106
107
107
109
109
110
111
111
113
114
115
115
116
117
118
119
120
122
122
123
124
125
126
128
128
129
130
131
132
132
133
134
134
135
135
137
137
137
138
138
138
139
139
140
140
140
141
141
141
142
142
142
142
142
142
142
142
142
142
142
142
142
142
141
141
141
141
140
141
140
139
139
139
138
138
137
137
136
136
135
134
133
132
131
130
129
128
128
126
125
124
123
122
120
119
118
116
115
113
112
111
109
107
105
103
102
101
99
97
95
93
91
89
87
85
83
81
79
77
75
72
70
68
65
64
61
59
57
55
53
50
48
45
44
42
40
38
35
33
31
29
27
26
24
21
19
18
16
14
13
11
10
8
7
6
4
2
1
0
-2
-3
-5
-6
-7
-8
-9
-10
-11
-12
-13
-14
-15
-17
-17
-17
-19
-19
-20
-21
-21
-22
-22
-24
-24
-25
-25
-26
-26
-27
-27
-27
-27
-28
-28
-28
-28
-29
-29
-29
-29
-29
-29
-29
-29
-29
-29
-29
-29
-29
-29
-30
-30
-30
-30
-30
-30
-30
-31
-31
-31
-31
-31
-31
-31
-31
-31
-31
-31
-31
-31
-31
-31
-31
-31
-31
-31
-31
-31
-31
-32
-32
-32
-32
-32
-32
-32
-32
-32
-32
-32
-32
-32
-32
-32
-32
-32
-32
-32
-32
-32
-32
-32
-32
-32
-32
-32
-32
-32
-32
-33
-33
-33
-33
-33
-33
-33
-33
-33
-34
-34
-34
-34
-34
-34
-36
-36
-36
-36
-36
-36
-36
-36
-36
-36
-37
-37
-37
-37
-38
-38
-38
-39
-38
-38
-39
-39
-39
-39
-40
-40
-40
-40
-41
-41
-41
-41
-41
-41
-41
-42
-42
-42
-42
-42
-42
-42
-42
-42
-43
-44
-44
-44
-44
-44
-44
-44
-44
-44
-46
-46
-46
-46
-47
-47
-47
-46
-46
-46
-47
-47
-48
-48
-48
-48
-49
-49
-49
-49
-49
-49
-49
-50
-50
-50
-50
-50
-51
-51
-51
-51
-52
-52
-52
-52
-52
-52
-53
-53
-53
-53
-53
-53
-53
-53
-53
-53
-53
-54
-54
-54
-55
-55
-55
-55
-55
-55
-55
-55
-54
-55
-55
-55
-55
-55
-55
-55
-55
-56
-56
-56
-56
-56
-56
-56
-56
-56
-57
-57
-57
-57
-57
-57
-57
-56
-56
-56
-56
-57
-57
-57
-57
-57
-57
-57
-57
-57
-57
-57
-57
-57
-57
-57
-57
-57
-57
-58
-58
-58
-58
-58
-58
-58
-58
-58
-58
-58
-59
-59
-59
-59
-59
-59
-59
-58
-58
-58
-58
-58
-58
-58
-58
-58
-58
-58
-58
-58
-58
-58
-58
-58
-58
-58
-58
-58
-58
-57
-57
-58
-58
-58
-58
-58
-58
-58
-58
-58
-57
-57
-57
-57
-58
-58
-58
-58
-58
-58
-58
-58
-58
-57
-57
-57
-58
-58
-58
-58
-58
-58
-58
-59
-59
-59
-59
-59
-58
-58
-58
-58
-59
-59
-59
-59
-59
-59
-59
-59
-59
-59
-59
-59
-59
-59
-59
-59
-59
-59
-59
-59
-59
-59
-59
-59
-59
-59
-59
-59
-59
-59
-59
-59
-59
-58
-58
-58
-59
-59
-59
-59
-59
-59
-59
-59
-59
-59
-59
-59
-59
-59
-58
-58
-58
-58
-58
-58
-58
-58
-58
-58
-58
-59
-59
-59
-59
-59
-59
-59
-59
-59
-59
-59
-59
-59
-59
-59
-59
-59
-59
-59
-59
-59
-59
-59
-59
-59
-59
-59
-59
-58
-58
-58
-58
-58
-58
-58
-58
-58
-59
-59
-59
-60
-60
-60
-60
-60
-60
-60
-60
-59
-59
-59
-59
-59
-59
-59
-59
-59
-59
-59
-59
-59
-59
-58
-58
-58
-58
-58
-58
-58
-58
-58
-58
-58
-58
-58
-58
-58
-58
-58
-58
-58
-59
-59
-59
-59
-59
-59
-59
-59
-59
-59
-59
-58
-58
-58
-58
-58
-58
-58
-58
-58
-58
-58
-58
-58
-58
-58
-58
-58
-58
-58
-58
-58
-58
-57
-57
-58
-58
-58
-58
-58
-58
-58
-58
-58
-58
-58
-58
-58
-58
-58
-58
-59
-59
-59
-59
-59
-59
-59
-58
-58
-58
-58
-58
-58
-58
-58
-58
-58
-58
-58
-58
-58
-58
-58
-58
-58
-58
-58
-58
-58
-59
-59
-59
-59
-59
-60
-60
-60
-60
-60
-60
-60
-60
-60
-60
-60
-60
-60
-60
-59
-59
-59
-59
-59
-59
-59
-59
-59
-58
-58
-58
-58
-58
-58
-58
-58
-58
-58
-58
-58
-58
-58
-58
-58
-58
-58
-58
-58
-58
-58
-58
-58
-58
-58
-58
-58
-58
-58
-58
-57
-58
-58
-58
-58
-58
-58
-58
-58
-58
-58
-58
-58
-58
-58
-58
-58
-58
-58
-58
-58
-58
-58
-58
-57
-57
-57
-57
-57
-57
-57
-57
-57
-57
-57
-57
-57
-57
-57
-57
-57
-57
-57
-57
-57
-57
-56
-56
-55
-55
-55
-54
-54
-54
-54
-54
-52
-52
-52
-52
-52
-50
-50
-50
-50
-49
-48
-48
-47
-46
-45
-44
-44
-43
-42
-41
-41
-41
-39
-39
-39
-39
-38
-38
-38
-38
-38
-38
-38
-38
-38
-38
-38
-39
-38
-38
-38
-39
-39
-39
-40
-40
-40
-40
-40
-40
-41
-41
-40
-40
-41
-41
-40
-40
-40
-40
-40
-40
-40
-40
-40
-40
-40
-40
-40
-39
-40
-40
-40
-40
-40
-40
-40
-40
-41
-40
-40
-41
-41
-40
-41
-41
-42
-42
-43
-43
-43
-44
-44
-44
-45
-45
-45
-47
-47
-47
-48
-49
-49
-50
-50
-50
-52
-52
-53
-53
-53
-53
-54
-54
-54
-54
-55
-55
-55
-56
-55
-55
-55
-55
-55
-55
-55
-55
-56
-55
-55
-55
-55
-55
-55
-55
-55
-54
-55
-55
-55
-55
-55
-55
-55
-55
-55
-55
-55
-55
-55
-55
-55
-55
-55
-54
-54
-54
-54
-54
-54
-54
-54
-54
-54
-54
-54
-54
-54
-54
-53
-54
-54
-54
-54
-54
-54
-54
-54
-54
-54
-54
-54
-54
-54
-54
-54
-54
-53
-53
-53
-53
-53
-53
-53
-52
-52
-52
-52
-52
-51
-51
-51
-51
-50
-50
-50
-48
-48
-48
-47
-46
-45
-44
-43
-41
-40
-37
-34
-31
-26
-21
-15
-9
-1
8
18
30
43
55
70
86
102
118
134
150
165
180
192
204
213
220
226
229
230
230
227
222
215
206
194
181
165
148
129
107
86
63
39
14
-12
-37
-63
-88
-114
-140
-164
-188
-212
-236
-258
-280
-300
-318
-335
-349
-361
-370
-377
-382
-385
-387
-385
-381
-376
-369
-360
-350
-339
-325
-312
-298
-283
-267
-252
-236
-220
-204
-188
-173
-158
-144
-130
-117
-104
-92
-81
-71
-61
-52
-44
-36
-29
-23
-17
-12
-8
-4
-2
1
3
4
6
8
8
9
10
10
11
11
11
11
12
12
11
12
12
12
12
13
13
13
14
14
14
15
15
16
16
17
18
18
18
19
19
19
20
20
20
21
21
21
22
22
22
23
23
23
24
24
24
25
25
25
26
26
26
27
27
27
28
28
28
30
30
30
30
30
31
32
32
32
33
33
34
34
35
35
35
36
36
37
37
37
38
38
40
40
40
41
41
41
42
42
42
43
43
43
44
45
45
46
46
47
47
47
48
48
49
49
50
50
52
52
53
53
54
54
54
55
55
56
56
57
58
58
59
59
59
60
60
60
61
61
62
62
62
63
63
65
65
66
66
67
67
68
68
69
69
71
71
72
72
73
73
74
74
75
76
76
77
78
79
79
80
80
81
81
83
83
84
85
85
86
86
87
87
89
89
90
91
91
92
92
93
94
94
96
96
97
98
98
99
100
100
101
102
102
103
104
105
106
107
107
108
109
110
111
112
113
113
115
116
116
117
119
120
120
121
122
124
124
125
126
127
128
129
129
130
132
131
133
134
134
135
136
136
137
137
138
139
139
139
139
141
141
141
141
141
141
142
142
142
143
143
143
143
143
144
143
144
143
143
143
143
142
143
142
142
142
141
141
141
140
139
138
139
138
138
137
136
135
135
133
132
131
131
130
128
128
127
125
125
123
122
121
119
119
117
115
114
113
111
110
108
106
104
104
102
100
98
96
94
93
91
89
87
86
84
81
80
78
75
74
71
70
68
65
64
62
59
58
55
54
52
50
48
46
44
42
40
39
37
35
34
32
30
28
26
26
24
22
20
18
17
16
14
13
11
9
9
7
6
4
4
2
2
0
-1
-2
-3
-4
-5
-5
-6
-7
-7
-8
-8
-9
-9
-11
-11
-12
-12
-13
-13
-13
-14
-14
-14
-15
-15
-15
-16
-16
-16
-16
-16
-17
-17
-17
-17
-17
-17
-18
-18
-18
-18
-18
-19
-19
-19
-19
-19
-19
-19
-19
-19
-19
-19
-20
-19
-19
-19
-19
-19
-19
-19
-19
-19
-19
-19
-19
-20
-20
-20
-20
-19
-19
-19
-19
-19
-19
-19
-19
-19
-20
-20
-20
-20
-20
-20
-20
-20
-20
-20
-20
-20
-20
-20
-20
-19
-19
-19
-19
-19
-19
-19
-19
-19
-19
-19
-19
-19
-19
-20
-20
-19
-19
-19
-19
-19
-19
-20
-20
-20
-20
-20
-20
-21
-21
-21
-21
-21
-21
-21
-22
-22
-22
-22
-22
-22
-23
-23
-23
-23
-23
-23
-24
-24
-24
-24
-24
-25
-25
-26
-26
-26
-27
-27
-27
-27
-27
-28
-28
-28
-29
-29
-29
-29
-30
-30
-30
-30
-31
-31
-31
-31
-32
-32
-32
-33
-33
-33
-33
-33
-33
-33
-33
-33
-33
-33
-33
-34
-34
-34
-34
-35
-35
-36
-36
-36
-36
-36
-37
-37
-37
-37
-37
-37
-37
-37
-37
-38
-38
-38
-38
-38
-38
-38
-38
-39
-39
-39
-39
-39
-39
-39
-39
-39
-39
-39
-39
-39
-39
-39
-39
-40
-40
-40
-40
-40
-40
-40
-40
-40
-40
-40
-41
-41
-41
-41
-41
-41
-41
-41
-41
-41
-41
-42
-42
-42
-42
-42
-42
-41
-41
-41
-41
-41
-42
-43
-43
-43
-43
-43
-43
-43
-43
-43
-43
-43
-43
-44
-44
-44
-44
-44
-43
-43
-43
-43
-43
-43
-43
-44
-44
-44
-44
-44
-44
-44
-44
-44
-44
-44
-44
-44
-44
-44
-45
-45
-45
-45
-45
-44
-44
-44
-44
-44
-44
-43
-43
-43
-43
-43
-43
-43
-43
-43
-44
-44
-44
-44
-44
-44
-44
-44
-44
-44
-44
-44
-44
-44
-44
-44
-44
-45
-45
-45
-45
-44
-44
-44
-44
-44
-45
-45
-45
-45
-45
-45
-45
-45
-45
-46
-46
-46
-46
-46
-46
-46
-45
-45
-45
-45
-44
-44
-44
-44
-44
-44
-44
-44
-45
-45
-45
-44
-44
-44
-44
-44
-44
-44
-44
-44
-44
-44
-44
-44
-44
-44
-44
-44
-44
-45
-45
-45
-45
-45
-45
-45
-45
-45
-45
-46
-46
-46
-46
-45
-45
-45
-45
-45
-45
-45
-45
-45
-45
-45
-46
-46
-46
-46
-46
-46
-46
-46
-46
-46
-46
-46
-47
-46
-46
-46
-46
-46
-46
-46
-46
-46
-46
-46
-46
-46
-46
-46
-46
-46
-46
-46
-46
-46
-46
-46
-46
-46
-45
-45
-46
-46
-46
-46
-46
-46
-46
-46
-46
-46
-46
-46
-46
-46
-46
-46
-46
-46
-46
-46
-46
-46
-46
-46
-46
-45
-45
-45
-45
-45
-45
-45
-45
-45
-45
-45
-45
-45
-45
-45
-45
-45
-45
-45
-45
-44
-45
-45
-45
-45
-45
-45
-45
-45
-45
-45
-45
-45
-45
-45
-45
-45
-45
-45
-44
-44
-44
-44
-44
-44
-44
-44
-45
-45
-45
-45
-45
-45
-45
-45
-45
-45
-45
-44
-44
-44
-44
-44
-44
-44
-44
-44
-44
-44
-44
-44
-44
-44
-44
-44
-44
-44
-43
-43
-43
-44
-44
-44
-44
-44
-44
-44
-44
-44
-44
-44
-44
-44
-45
-45
-45
-44
-44
-44
-44
-44
-44
-44
-44
-44
-44
-44
-44
-43
-43
-43
-42
-42
-43
-43
-43
-43
-43
-43
-43
-43
-43
-42
-42
-43
-43
-43
-43
-43
-43
-43
-43
-43
-43
-43
-43
-43
-43
-43
-43
-43
-43
-43
-43
-43
-43
-43
-43
-43
-43
-43
-44
-44
-44
-43
-43
-43
-43
-43
-43
-43
-43
-42
-42
-42
-42
-42
-42
-42
-42
-42
-42
-42
-42
-42
-42
-42
-42
-42
-42
-42
-42
-42
-42
-42
-42
-42
-42
-42
-42
-42
-42
-42
-42
-42
-42
-42
-42
-42
-42
-42
-42
-42
-42
-42
-42
-42
-42
-42
-41
-41
-41
-41
-41
-41
-41
-41
-40
-39
-39
-39
-39
-39
-39
-39
-38
-37
-37
-37
-37
-35
-35
-35
-33
-33
-33
-32
-31
-31
-30
-30
-30
-29
-29
-28
-27
-27
-27
-27
-27
-27
-27
-26
-26
-26
-26
-26
-26
-26
-26
-26
-26
-26
-26
-26
-27
-27
-26
-26
-26
-26
-26
-26
-26
-26
-26
-27
-27
-26
-26
-26
-26
-26
-26
-26
-26
-25
-25
-25
-26
-26
-26
-26
-25
-25
-25
-25
-26
-26
-25
-26
-26
-26
-26
-27
-27
-27
-27
-28
-28
-28
-29
-29
-30
-30
-30
-31
-31
-31
-30
-31
-31
-32
-32
-32
-33
-33
-34
-34
-35
-35
-35
-36
-36
-36
-37
-37
-37
-38
-38
-38
-39
-39
-39
-40
-40
-40
-40
-41
-41
-41
-41
-41
-41
-41
-41
-41
-41
-41
-41
-41
-41
-42
-42
-42
-42
-42
-42
-42
-42
-42
-42
-42
-42
-41
-41
-41
-41
-41
-42
-42
-40
-40
-41
-41
-41
-41
-40
-40
-40
-40
-40
-40
-40
-40
-40
-38
-38
-39
-39
-39
-39
-39
-39
-39
-39
-39
-39
-39
-39
-39
-39
-39
-38
-38
-38
-38
-38
-38
-38
-38
-37
-37
-37
-37
-37
-36
-36
-36
-36
-35
-35
-34
-34
-34
-33
-33
-32
-31
-30
-29
-29
-27
-25
-22
-19
-15
-12
-6
2
9
18
28
39
51
64
78
93
108
123
138
152
166
178
190
199
206
213
216
218
218
216
213
207
200
190
178
164
148
130
112
92
71
48
24
0
-24
-49
-74
-100
-125
-149
-174
-198
-222
-245
-267
-289
-307
-325
-340
-352
-363
-370
-377
-380
-381
-380
-377
-371
-364
-354
-343
-331
-318
-303
-288
-273
-256
-239
-223
-206
-189
-172
-156
-141
-126
-112
-98
-85
-73
-61
-52
-42
-32
-24
-17
-10
-4
0
5
8
12
15
17
19
21
22
23
23
24
25
25
25
25
25
25
26
26
25
26
26
25
26
26
26
27
27
27
28
28
29
29
30
30
30
31
31
31
32
32
33
34
34
35
34
35
35
35
36
36
37
37
38
38
38
39
38
39
39
39
41
41
41
42
42
42
42
42
42
42
44
44
44
44
44
45
45
45
45
46
47
47
47
47
48
48
48
50
50
50
50
51
51
51
53
53
53
53
54
54
55
56
56
56
57
57
57
58
58
59
59
59
60
60
60
61
61
62
62
63
63
64
64
64
66
66
67
67
68
69
69
70
70
71
71
72
73
73
74
74
75
75
77
77
77
78
78
79
79
80
80
81
81
82
83
84
84
85
85
86
86
87
87
88
89
89
90
90
91
91
92
92
93
94
94
94
96
96
97
98
98
99
99
101
101
102
102
103
104
105
105
105
106
108
108
109
109
110
112
112
113
113
114
115
115
117
118
119
119
120
121
122
123
124
124
125
126
127
128
129
130
130
131
132
132
134
135
135
136
137
138
139
139
140
142
142
144
144
145
145
147
147
148
148
150
150
150
151
152
152
153
153
154
154
154
155
155
155
155
156
156
156
157
157
156
157
157
157
157
157
157
157
157
157
157
157
157
156
157
156
156
155
155
155
154
154
153
152
152
151
150
149
148
148
146
145
144
143
141
140
139
138
137
135
134
132
131
129
127
126
125
123
121
120
118
115
113
111
109
107
105
103
101
99
97
94
92
90
87
85
82
81
78
76
74
72
69
68
65
63
60
59
57
54
53
51
49
47
45
43
41
39
38
36
33
31
29
28
26
24
22
20
19
17
15
13
12
10
9
7
6
4
2
2
0
-1
-2
-4
-4
-5
-7
-7
-9
-10
-10
-11
-11
-12
-12
-12
-12
-13
-14
-14
-15
-15
-15
-16
-16
-16
-16
-18
-18
-18
-18
-19
-19
-19
-19
-19
-19
-20
-20
-20
-20
-20
-20
-20
-20
-21
-21
-21
-21
-21
-21
-20
-20
-20
-20
-21
-21
-21
-21
-21
-21
-21
-21
-21
-21
-21
-22
-22
-23
-23
-23
-23
-23
-23
-23
-23
-23
-23
-23
-23
-23
-23
-23
-23
-23
-23
-23
-23
-23
-23
-24
-24
-24
-24
-24
-24
-23
-23
-23
-23
-23
-24
-24
-24
-24
-24
-24
-24
-24
-24
-24
-24
-23
-23
-23
-24
-25
-25
-25
-25
-25
-25
-25
-26
-26
-26
-26
-26
-26
-27
-27
-27
-27
-28
-28
-27
-28
-28
-28
-28
-29
-29
-29
-29
-30
-30
-30
-30
-30
-31
-31
-31
-31
-31
-32
-32
-32
-32
-32
-32
-33
-33
-33
-33
-33
-33
-34
-34
-34
-34
-34
-34
-35
-36
-36
-36
-36
-36
-36
-36
-36
-36
-37
-37
-38
-38
-38
-38
-38
-39
-39
-39
-39
-39
-39
-39
-39
-40
-40
-40
-40
-40
-40
-40
-40
-40
-40
-40
-41
-41
-41
-41
-41
-41
-42
-43
-43
-43
-43
-43
-44
-44
-44
-44
-44
-44
-45
-45
-45
-45
-45
-45
-45
-45
-45
-45
-45
-45
-45
-46
-47
-47
-47
-47
-47
-46
-46
-46
-47
-47
-47
-47
-47
-48
-47
-47
-47
-47
-47
-48
-48
-48
-48
-48
-48
-48
-48
-48
-48
-48
-48
-49
-49
-49
-49
-49
-49
-49
-49
-49
-49
-49
-49
-49
-49
-49
-49
-49
-49
-49
-49
-49
-49
-49
-50
-50
-50
-50
-50
-50
-50
-50
-50
-50
-50
-50
-50
-51
-51
-51
-51
-51
-51
-51
-50
-50
-50
-51
-51
-50
-50
-50
-50
-50
-50
-50
-50
-50
-50
-50
-50
-50
-50
-51
-51
-51
-51
-51
-51
-51
-52
-52
-52
-52
-52
-52
-52
-53
-53
-53
-53
-53
-53
-53
-53
-52
-52
-52
-52
-52
-52
-52
-52
-52
-52
-52
-52
-52
-52
-52
-52
-52
-52
-52
-52
-52
-52
-52
-53
-53
-53
-53
-53
-52
-52
-52
-52
-53
-53
-53
-53
-53
-53
-53
-53
-53
-53
-53
-53
-53
-53
-53
-53
-53
-53
-53
-53
-53
-54
-54
-54
-54
-54
-53
-53
-54
-54
-54
-54
-54
-55
-54
-54
-54
-55
-55
-55
-55
-54
-54
-54
-54
-54
-55
-55
-54
-54
-54
-54
-54
-54
-54
-53
-53
-54
-54
-54
-54
-54
-54
-54
-54
-54
-54
-54
-54
-54
-54
-54
-54
-54
-55
-55
-55
-55
-54
-54
-54
-54
-54
-54
-54
-54
-54
-54
-54
-54
-54
-54
-53
-54
-54
-54
-54
-54
-54
-55
-55
-55
-55
-55
-55
-55
-55
-55
-55
-55
-55
-55
-56
-56
-56
-56
-56
-56
-56
-56
-56
-56
-55
-55
-55
-55
-55
-56
-56
-56
-56
-56
-55
-55
-55
-55
-55
-55
-55
-55
-55
-55
-56
-56
-56
-56
-56
-56
-56
-56
-56
-55
-55
-55
-55
-55
-55
-55
-55
-55
-55
-55
-55
-55
-55
-55
-55
-55
-55
-55
-55
-55
-55
-55
-55
-55
-55
-55
-55
-55
-55
-55
-54
-54
-54
-54
-55
-55
-55
-55
-55
-55
-55
-55
-55
-55
-55
-55
-55
-55
-55
-55
-55
-55
-55
-55
-55
-55
-55
-55
-55
-55
-55
-55
-55
-55
-55
-55
-55
-55
-56
-56
-56
-56
-56
-56
-56
-56
-56
-56
-56
-56
-56
-56
-56
-56
-56
-56
-56
-56
-56
-56
-56
-56
-56
-56
-56
-56
-56
-56
-56
-56
-55
-55
-55
-55
-55
-55
-55
-56
-56
-56
-56
-56
-56
-55
-55
-55
-55
-55
-55
-55
-55
-55
-56
-56
-56
-56
-56
-56
-57
-56
-56
-56
-56
-57
-57
-57
-57
-57
-56
-56
-56
-56
-56
-56
-56
-56
-56
-55
-55
-55
-55
-54
-53
-53
-53
-53
-52
-52
-52
-52
-52
-52
-51
-50
-50
-50
-50
-49
-48
-48
-47
-47
-47
-46
-46
-45
-44
-44
-44
-43
-42
-42
-41
-41
-41
-41
-41
-40
-40
-40
-40
-40
-41
-41
-41
-40
-40
-40
-40
-41
-41
-41
-41
-41
-41
-41
-42
-41
-42
-41
-41
-42
-41
-42
-42
-41
-42
-42
-42
-42
-41
-41
-41
-41
-41
-41
-42
-42
-42
-41
-41
-42
-42
-42
-43
-42
-42
-43
-43
-43
-44
-44
-43
-44
-44
-45
-44
-45
-45
-46
-46
-47
-47
-48
-48
-49
-49
-49
-50
-51
-51
-52
-52
-53
-53
-53
-54
-54
-55
-55
-56
-56
-56
-57
-57
-57
-57
-58
-58
-58
-58
-58
-58
-58
-59
-59
-59
-59
-59
-59
-59
-58
-59
-59
-59
-59
-59
-59
-58
-58
-58
-58
-58
-58
-58
-58
-58
-58
-57
-57
-57
-57
-57
-57
-57
-57
-57
-57
-57
-57
-57
-57
-57
-57
-57
-57
-57
-57
-57
-57
-57
-57
-57
-57
-57
-57
-56
-56
-56
-56
-57
-57
-57
-57
-57
-57
-57
-57
-57
-57
-57
-56
-56
-56
-56
-56
-56
-55
-55
-55
-54
-54
-53
-53
-52
-52
-51
-51
-50
-49
-48
-48
-46
-45
-44
-41
-39
-35
-31
-26
-21
-15
-7
1
12
23
36
48
63
79
96
113
129
146
162
177
192
203
214
223
229
233
235
236
233
229
223
214
204
191
176
159
140
119
99
75
51
26
0
-25
-50
-76
-101
-126
-150
-175
-199
-224
-246
-269
-289
-309
-326
-342
-355
-365
-374
-381
-385
-389
-389
-386
-382
-377
-370
-361
-350
-339
-326
-312
-298
-284
-268
-253
-237
-222
-206
-192
-177
-162
-148
-134
-122
-109
-99
-88
-77
-68
-59
-51
-45
-38
-32
-27
-21
-17
-13
-10
-8
-5
-4
-2
0
0
1
2
3
3
4
3
4
5
5
5
6
5
6
6
6
7
7
8
8
8
9
9
10
9
10
10
11
12
12
13
13
14
14
15
15
16
16
16
17
16
16
17
18
18
18
19
19
20
20
20
21
21
21
22
22
23
23
23
24
24
25
25
25
26
26
26
27
28
28
28
28
29
29
29
29
30
31
31
31
31
32
32
32
33
33
34
35
35
35
36
36
36
37
37
37
38
38
39
39
40
41
40
41
41
42
42
43
43
45
45
46
46
46
47
47
48
48
49
49
49
50
50
51
51
51
52
52
52
53
53
54
54
55
56
56
56
57
57
57
58
59
60
60
60
61
62
62
63
63
64
65
65
65
66
66
68
68
68
69
69
70
71
72
72
72
73
73
74
75
75
77
77
78
78
79
79
80
80
81
82
82
83
83
84
85
85
86
86
87
88
89
89
90
91
92
93
93
94
95
96
97
97
98
98
99
100
100
102
103
104
104
105
106
106
107
108
109
110
110
111
113
113
114
114
116
116
116
117
117
118
119
119
119
120
121
121
122
122
123
123
123
123
124
125
125
126
126
126
125
125
126
126
127
126
126
126
126
126
126
126
125
125
125
124
124
124
123
123
122
122
121
120
120
119
118
117
116
115
114
113
113
111
110
109
108
106
105
104
103
102
101
99
98
96
94
94
92
91
89
87
86
84
82
81
79
77
75
73
71
69
68
66
64
62
61
58
56
55
52
51
49
47
45
43
41
39
37
35
33
32
30
28
27
25
23
21
19
19
19
17
15
13
12
11
9
8
7
5
3
3
1
-1
-1
-3
-5
-5
-7
-7
-9
-9
-11
-12
-13
-14
-15
-16
-18
-18
-18
-19
-20
-21
-21
-23
-23
-24
-24
-26
-26
-27
-27
-27
-28
-28
-28
-29
-29
-29
-29
-30
-30
-30
-30
-31
-31
-31
-31
-31
-31
-31
-31
-31
-32
-32
-32
-32
-32
-32
-32
-32
-32
-32
-32
-32
-32
-32
-32
-32
-32
-32
-32
-32
-32
-32
-32
-31
-31
-31
-31
-31
-31
-32
-32
-32
-31
-30
-30
-30
-30
-30
-30
-30
-30
-30
-30
-30
-30
-30
-30
-31
-31
-31
-31
-31
-31
-31
-31
-31
-31
-31
-31
-31
-31
-32
-32
-32
-32
-32
-32
-32
-33
-33
-33
-33
-32
-32
-32
-33
-33
-33
-33
-33
-33
-34
-34
-34
-34
-34
-34
-35
-35
-35
-35
-36
-36
-36
-36
-36
-36
-37
-37
-37
-37
-38
-38
-38
-38
-38
-39
-39
-38
-38
-39
-39
-39
-39
-39
-39
-40
-40
-40
-40
-40
-41
-41
-41
-42
-42
-43
-43
-43
-43
-43
-43
-44
-44
-44
-44
-44
-44
-45
-45
-45
-45
-45
-45
-46
-46
-46
-46
-46
-47
-47
-47
-47
-47
-48
-48
-49
-49
-49
-49
-49
-49
-49
-49
-49
-49
-50
-50
-50
-50
-50
-50
-50
-50
-51
-51
-51
-51
-51
-51
-52
-52
-52
-52
-52
-52
-52
-52
-52
-52
-53
-53
-53
-53
-53
-53
-53
-54
-54
-54
-54
-54
-53
-53
-54
-54
-54
-54
-54
-54
-54
-54
-54
-54
-54
-53
-54
-54
-54
-54
-54
-54
-54
-54
-54
-54
-55
-55
-55
-55
-55
-55
-55
-55
-55
-55
-55
-55
-55
-55
-55
-55
-55
-55
-55
-55
-55
-55
-55
-55
-56
-56
-56
-56
-56
-56
-56
-56
-56
-56
-56
-56
-56
-56
-56
-56
-56
-56
-56
-56
-56
-57
-57
-56
-57
-57
-57
-57
-56
-56
-56
-57
-57
-57
-56
-56
-56
-56
-56
-56
-56
-56
-56
-57
-57
-57
-57
-57
-57
-57
-57
-57
-57
-57
-57
-57
-57
-57
-57
-57
-57
-57
-57
-57
-57
-57
-57
-57
-57
-57
-57
-57
-57
-57
-57
-57
-57
-57
-57
-57
-57
-57
-57
-57
-57
-57
-57
-57
-57
-57
-57
-57
-57
-57
-57
-57
-57
-57
-57
-57
-57
-57
-57
-57
-58
-58
-58
-58
-58
-58
-58
-58
-57
-57
-57
-57
-57
-57
-57
-57
-57
-57
-57
-57
-57
-57
-57
-57
-57
-58
-58
-58
-58
-57
-57
-57
-58
-57
-57
-57
-57
-57
-57
-57
-57
-57
-58
-58
-59
-59
-58
-58
-58
-58
-58
-58
-58
-58
-58
-59
-59
-59
-59
-59
-59
-59
-58
-58
-58
-58
-58
-58
-58
-58
-59
-59
-59
-59
-59
-58
-58
-58
-58
-58
-58
-58
-58
-58
-57
-57
-57
-57
-57
-57
-56
-56
-56
-56
-57
-57
-57
-57
-57
-56
-56
-56
-56
-56
-56
-57
-57
-57
-58
-58
-58
-58
-58
-58
-58
-58
-58
-58
-58
-58
-58
-58
-58
-58
-57
-57
-57
-57
-57
-57
-57
-56
-56
-56
-57
-57
-57
-57
-57
-57
-57
-57
-57
-57
-57
-57
-57
-57
-57
-57
-57
-57
-57
-57
-57
-57
-57
-57
-57
-57
-57
-57
-57
-56
-56
-56
-56
-56
-56
-56
-56
-56
-56
-56
-56
-56
-56
-56
-57
-57
-57
-57
-57
-57
-57
-57
-57
-57
-57
-57
-57
-58
-58
-58
-58
-58
-58
-58
-58
-58
-58
-58
-58
-58
-58
-58
-58
-58
-58
-58
-58
-58
-58
-58
-58
-58
-58
-57
-57
-57
-57
-57
-57
-57
-58
-57
-57
-58
-58
-57
-57
-57
-57
-57
-57
-57
-57
-57
-57
-57
-57
-57
-57
-57
-57
-57
-57
-57
-57
-57
-56
-56
-56
-56
-56
-56
-56
-55
-55
-55
-55
-55
-55
-55
-55
-56
-56
-56
-56
-56
-56
-56
-56
-55
-55
-55
-55
-55
-55
-55
-55
-55
-55
-54
-53
-53
-53
-53
-53
-53
-53
-52
-52
-52
-52
-50
-50
-49
-49
-48
-48
-47
-46
-46
-46
-45
-45
-45
-43
-43
-42
-42
-42
-40
-40
-40
-40
-40
-39
-39
-39
-39
-39
-39
-39
-39
-39
-39
-39
-40
-40
-40
-41
-42
-41
-42
-42
-43
-42
-42
-42
-43
-43
-43
-42
-43
-43
-42
-42
-42
-42
-42
-42
-42
-41
-41
-41
-41
-42
-42
-42
-42
-41
-41
-41
-42
-42
-42
-42
-42
-42
-42
-42
-43
-43
-43
-44
-43
-44
-44
-45
-45
-45
-45
-45
-46
-46
-46
-47
-47
-47
-48
-49
-49
-49
-50
-51
-51
-51
-52
-52
-52
-52
-53
-54
-54
-54
-54
-54
-55
-55
-55
-55
-56
-56
-56
-56
-56
-56
-56
-55
-55
-55
-55
-55
-55
-55
-55
-55
-55
-55
-55
-55
-55
-55
-55
-55
-55
-55
-55
-55
-55
-55
-55
-55
-54
-54
-54
-54
-54
-54
-54
-54
-54
-54
-54
-54
-54
-53
-52
-52
-52
-52
-52
-52
-52
-52
-53
-53
-53
-53
-53
-53
-52
-52
-52
-52
-52
-52
-52
-52
-51
-51
-51
-51
-50
-50
-50
-50
-50
-49
-49
-48
-48
-48
-47
-47
-47
-46
-46
-45
-45
-44
-44
-42
-42
-41
-39
-37
-35
-31
-28
-23
-17
-11
-3
5
15
26
38
50
64
79
95
110
126
141
155
169
181
191
200
207
211
214
215
213
209
204
196
186
174
160
143
125
106
85
63
39
15
-11
-36
-62
-89
-114
-140
-165
-190
-216
-239
-262
-284
-305
-325
-342
-357
-369
-380
-388
-394
-397
-398
-397
-394
-389
-381
-373
-362
-349
-336
-321
-306
-291
-274
-258
-241
-224
-207
-191
-175
-159
-144
-130
-115
-103
-90
-78
-67
-57
-48
-39
-31
-25
-19
-13
-8
-3
1
4
8
9
11
12
14
15
15
17
18
17
18
18
18
18
19
19
18
19
19
19
20
20
21
21
22
21
22
22
23
23
24
24
24
24
25
25
26
26
27
27
27
28
28
29
29
29
31
31
31
32
32
33
33
33
33
34
34
35
35
35
36
36
37
37
37
38
38
39
39
39
40
40
41
41
41
42
42
43
43
43
44
44
45
45
45
46
46
47
47
47
48
49
50
50
51
51
52
52
52
53
53
54
54
54
55
55
56
56
57
57
57
59
59
59
60
60
61
61
62
62
63
63
64
64
65
65
66
66
67
69
69
70
70
71
71
72
72
73
74
75
75
76
76
77
77
78
78
79
79
80
80
80
81
82
83
84
84
85
85
86
86
87
88
89
89
90
91
92
92
93
93
94
94
95
97
97
98
99
100
100
101
102
103
103
104
105
106
106
107
108
109
109
110
112
112
112
114
115
115
116
117
118
118
119
120
121
123
123
124
125
126
127
128
128
130
131
132
132
134
135
136
137
138
139
140
140
141
143
143
144
146
146
147
149
149
150
150
151
152
153
153
153
154
154
156
156
156
157
157
158
159
159
159
159
160
160
160
161
161
161
162
162
162
163
163
162
163
163
162
162
162
162
161
160
161
160
159
160
159
158
158
157
157
156
155
155
153
152
152
150
150
149
148
147
145
145
143
142
140
140
138
136
136
134
132
131
130
128
126
125
123
121
119
117
115
114
112
109
107
105
103
101
98
96
94
91
89
88
85
83
80
79
76
74
72
70
68
65
63
62
60
57
55
53
52
50
48
46
44
43
40
38
37
35
33
31
29
28
27
25
23
22
20
18
17
15
14
13
11
10
8
8
6
5
4
4
2
1
1
-1
-1
-2
-3
-3
-4
-5
-6
-6
-6
-7
-7
-7
-8
-8
-8
-9
-10
-10
-10
-11
-11
-11
-11
-11
-11
-11
-11
-11
-12
-12
-12
-12
-11
-11
-12
-12
-12
-12
-12
-12
-12
-12
-13
-13
-13
-13
-13
-13
-13
-13
-13
-13
-13
-14
-13
-13
-13
-13
-13
-13
-13
-13
-13
-13
-13
-13
-13
-13
-13
-13
-13
-13
-12
-12
-12
-12
-12
-12
-13
-13
-14
-14
-14
-13
-13
-13
-13
-13
-13
-13
-13
-13
-13
-13
-13
-13
-14
-14
-13
-13
-13
-13
-13
-13
-13
-13
-13
-14
-14
-14
-14
-14
-13
-13
-13
-13
-13
-14
-14
-14
-14
-14
-15
-15
-15
-15
-16
-16
-16
-16
-16
-17
-17
-17
-17
-17
-17
-18
-18
-18
-18
-18
-19
-19
-19
-20
-20
-20
-20
-20
-21
-21
-21
-21
-21
-22
-22
-22
-22
-22
-23
-23
-23
-23
-23
-24
-24
-24
-24
-24
-24
-25
-25
-25
-25
-26
-26
-26
-26
-26
-27
-27
-27
-27
-27
-27
-27
-27
-27
-28
-28
-28
-28
-28
-28
-28
-28
-28
-29
-29
-29
-29
-29
-29
-29
-29
-30
-31
-31
-31
-31
-31
-31
-31
-31
-31
-32
-32
-32
-33
-33
-33
-33
-33
-34
-34
-34
-34
-34
-34
-34
-34
-35
-35
-35
-35
-35
-34
-34
-34
-34
-34
-34
-34
-34
-35
-35
-34
-34
-34
-35
-35
-35
-35
-35
-35
-35
-36
-36
-36
-35
-35
-35
-35
-35
-36
-37
-37
-37
-36
-36
-36
-36
-36
-36
-36
-36
-36
-36
-36
-36
-35
-35
-35
-35
-35
-36
-36
-36
-36
-36
-36
-36
-36
-36
-36
-36
-36
-36
-36
-37
-37
-37
-37
-37
-37
-37
-38
-38
-38
-38
-38
-38
-38
-38
-38
-38
-38
-38
-38
-39
-39
-39
-39
-39
-39
-39
-39
-39
-39
-38
-38
-38
-38
-39
-39
-39
-39
-39
-39
-39
-39
-39
-39
-39
-39
-39
-39
-39
-39
-39
-39
-39
-39
-39
-39
-40
-40
-40
-40
-40
-40
-40
-40
-40
-40
-40
-40
-40
-40
-41
-41
-41
-41
-41
-41
-41
-41
-41
-41
-41
-41
-41
-41
-41
-41
-41
-41
-42
-42
-41
-41
-41
-41
-41
-41
-41
-41
-41
-41
-41
-41
-41
-41
-41
-42
-42
-42
-43
-43
-43
-43
-42
-42
-42
-43
-43
-43
-43
-42
-42
-42
-42
-42
-42
-42
-42
-42
-42
-42
-42
-42
-42
-41
-41
-41
-41
-41
-41
-41
-41
-42
-42
-42
-42
-42
-42
-42
-42
-42
-42
-42
-42
-42
-42
-42
-42
-42
-42
-42
-42
-43
-43
-43
-43
-43
-43
-44
-44
-44
-44
-44
-44
-44
-44
-44
-44
-43
-43
-43
-43
-43
-43
-43
-43
-43
-43
-43
-43
-43
-43
-43
-43
-43
-43
-43
-43
-43
-43
-43
-43
-43
-42
-42
-42
-42
-42
-42
-42
-42
-43
-43
-43
-43
-43
-43
-42
-42
-42
-42
-42
-42
-42
-42
-42
-42
-42
-42
-42
-42
-42
-42
-43
-43
-43
-43
-43
-44
-44
-44
-44
-44
-44
-45
-45
-44
-44
-44
-44
-44
-44
-45
-45
-45
-45
-45
-45
-45
-45
-45
-44
-44
-44
-44
-44
-44
-44
-44
-45
-45
-44
-44
-44
-44
-44
-44
-44
-44
-44
-44
-44
-44
-44
-44
-44
-44
-45
-45
-45
-45
-45
-45
-44
-44
-44
-45
-45
-45
-45
-44
-44
-44
-44
-44
-45
-45
-44
-44
-44
-44
-44
-44
-44
-44
-44
-44
-44
-44
-44
-44
-44
-44
-44
-45
-45
-45
-45
-45
-45
-45
-44
-44
-44
-44
-44
-44
-43
-43
-43
-43
-43
-43
-43
-43
-43
-43
-43
-43
-43
-43
-43
-43
-43
-43
-43
-43
-43
-43
-43
-43
-43
-43
-43
-43
-43
-43
-43
-43
-43
-43
-43
-43
-43
-43
-43
-43
-43
-43
-43
-43
-43
-43
-43
-43
-43
-43
-43
-43
-43
-43
-44
-44
-43
-43
-43
-43
-43
-43
-44
-44
-44
-44
-44
-43
-43
-43
-43
-43
-43
-43
-43
-43
-43
-43
-44
-44
-44
-44
-44
-44
-44
-44
-44
-44
-44
-44
-44
-44
-44
-44
-43
-44
-44
-44
-44
-43
-43
-43
-43
-43
-43
-44
-44
-44
-44
-44
-44
-44
-44
-44
-44
-44
-44
-44
-44
-44
-44
-44
-44
-44
-44
-44
-44
-44
-43
-43
-43
-43
-42
-42
-41
-41
-41
-41
-40
-40
-39
-39
-39
-39
-38
-38
-38
-38
-37
-37
-37
-36
-36
-36
-35
-35
-34
-34
-34
-33
-33
-32
-31
-31
-30
-30
-30
-30
-29
-29
-29
-29
-29
-29
-29
-28
-28
-28
-29
-29
-29
-29
-30
-30
-30
-31
-30
-30
-31
-31
-32
-31
-31
-32
-32
-31
-32
-32
-31
-31
-32
-31
-31
-31
-31
-32
-32
-32
-31
-32
-32
-32
-32
-32
-32
-31
-31
-32
-32
-32
-33
-33
-32
-33
-33
-33
-34
-34
-34
-34
-34
-35
-34
-35
-35
-35
-36
-36
-36
-38
-38
-38
-39
-39
-40
-40
-41
-40
-42
-42
-43
-43
-43
-44
-44
-44
-44
-45
-45
-45
-46
-46
-46
-46
-47
-47
-47
-47
-47
-47
-48
-48
-48
-47
-47
-47
-47
-47
-47
-47
-47
-46
-46
-46
-47
-47
-46
-46
-46
-46
-46
-46
-46
-46
-47
-47
-47
-47
-47
-47
-46
-46
-47
-47
-47
-47
-47
-46
-46
-47
-47
-47
-47
-46
-46
-46
-46
-46
-46
-45
-45
-45
-45
-45
-46
-46
-46
-46
-46
-46
-45
-45
-45
-44
-44
-44
-44
-44
-44
-45
-44
-44
-44
-44
-44
-43
-43
-42
-42
-41
-41
-41
-41
-40
-39
-39
-37
-37
-35
-34
-32
-31
-27
-24
-20
-14
-10
-2
6
15
25
37
49
63
77
93
110
127
143
160
175
190
203
214
223
232
236
239
241
239
236
230
222
213
201
186
170
152
132
110
88
63
38
12
-14
-40
-66
-93
-119
-145
-170
-195
-219
-243
-266
-288
-308
-326
-342
-357
-368
-378
-385
-391
-394
-394
-392
-389
-383
-377
-367
-356
-344
-332
-317
-303
-287
-272
-255
-239
-223
-207
-191
-176
-161
-146
-132
-118
-106
-94
-83
-72
-62
-53
-45
-37
-30
-24
-17
-13
-8
-4
0
2
5
7
9
10
12
13
14
15
16
16
17
17
17
17
17
17
18
19
19
19
19
19
18
19
19
19
20
21
21
22
22
21
22
22
23
23
24
24
25
25
26
26
27
27
28
28
29
29
29
30
30
30
31
31
31
32
32
32
32
33
34
34
34
34
34
36
36
36
36
36
37
38
38
38
38
39
39
39
39
40
40
41
41
41
42
42
42
44
44
44
45
45
46
46
46
47
47
47
48
48
48
49
50
51
51
51
52
52
53
53
54
54
55
55
55
56
56
57
57
57
58
58
58
58
59
59
60
60
61
61
61
62
62
63
64
64
64
65
65
66
66
66
67
67
68
68
70
71
71
72
72
73
73
74
75
75
76
77
77
78
78
79
79
79
80
80
80
81
81
83
83
83
84
84
85
85
86
87
87
88
89
89
90
90
92
92
93
93
94
95
96
97
97
98
98
99
100
100
101
102
103
103
104
105
105
107
107
108
108
109
111
111
112
114
114
115
116
116
117
118
119
120
121
121
122
123
123
125
125
126
127
127
129
129
130
130
131
132
132
133
134
134
135
135
136
136
136
137
138
138
138
138
139
139
140
140
140
140
141
140
140
141
141
140
141
141
140
140
141
140
141
140
140
140
139
139
139
138
137
137
136
135
135
134
134
132
132
131
130
128
127
126
125
124
122
121
119
118
117
115
113
113
111
109
107
106
104
103
101
99
97
95
93
91
89
87
86
84
82
80
78
76
74
72
71
68
66
64
62
60
59
56
55
52
51
48
47
45
42
40
39
37
35
33
31
30
28
26
24
23
21
19
18
16
15
14
13
11
11
9
7
6
5
4
2
2
0
-1
-1
-3
-4
-4
-6
-7
-8
-9
-9
-10
-11
-12
-13
-13
-14
-15
-16
-16
-16
-17
-17
-17
-18
-19
-19
-19
-19
-19
-19
-19
-19
-19
-19
-19
-19
-21
-21
-21
-21
-21
-21
-21
-21
-21
-21
-21
-21
-21
-22
-22
-21
-21
-22
-22
-21
-21
-21
-21
-20
-21
-21
-21
-21
-21
-20
-20
-20
-20
-20
-20
-20
-20
-20
-20
-20
-21
-21
-21
-21
-21
-21
-21
-21
-21
-21
-21
-21
-21
-21
-21
-21
-21
-20
-20
-20
-20
-20
-20
-20
-20
-19
-19
-20
-20
-20
-20
-20
-20
-20
-20
-20
-21
-21
-21
-21
-21
-21
-21
-21
-21
-21
-22
-22
-22
-22
-22
-22
-23
-23
-23
-23
-23
-23
-24
-24
-24
-23
-24
-24
-24
-24
-25
-25
-25
-25
-26
-26
-25
-25
-26
-26
-26
-26
-27
-27
-27
-27
-27
-28
-28
-28
-28
-28
-29
-29
-30
-30
-30
-30
-30
-31
-31
-31
-31
-31
-31
-32
-32
-32
-32
-33
-33
-33
-33
-33
-33
-33
-33
-34
-34
-34
-34
-35
-35
-35
-35
-35
-35
-35
-35
-35
-36
-37
-37
-37
-37
-37
-37
-37
-38
-38
-38
-37
-37
-37
-37
-38
-39
-39
-39
-39
-38
-38
-39
-39
-39
-39
-39
-39
-40
-40
-40
-40
-40
-41
-41
-41
-41
-41
-41
-41
-41
-41
-41
-41
-41
-41
-41
-41
-41
-41
-42
-42
-42
-42
-42
-42
-42
-42
-42
-42
-42
-42
-42
-42
-42
-42
-42
-42
-42
-43
-43
-43
-43
-44
-44
-44
-44
-44
-44
-44
-44
-44
-44
-44
-44
-44
-44
-44
-44
-44
-44
-45
-45
-45
-45
-45
-45
-45
-45
-45
-45
-45
-45
-45
-45
-45
-45
-45
-45
-45
-45
-44
-44
-44
-45
-45
-45
-45
-45
-45
-45
-45
-45
-45
-46
-46
-46
-46
-46
-46
-46
-46
-46
-47
-47
-47
-46
-46
-47
-47
-47
-47
-47
-47
-47
-47
-47
-47
-47
-47
-48
-48
-48
-47
-47
-47
-47
-47
-47
-48
-48
-48
-48
-48
-48
-48
-48
-48
-48
-48
-48
-48
-48
-48
-48
-48
-47
-47
-47
-47
-47
-48
-48
-48
-48
-48
-48
-48
-48
-49
-49
-49
-49
-49
-49
-49
-49
-49
-49
-49
-48
-48
-49
-50
-50
-49
-49
-49
-49
-49
-49
-49
-49
-49
-49
-49
-49
-49
-49
-49
-49
-50
-50
-50
-50
-50
-50
-50
-50
-50
-50
-50
-50
-50
-50
-50
-50
-50
-50
-50
-50
-50
-50
-50
-50
-50
-50
-50
-50
-50
-50
-50
-49
-49
-49
-49
-49
-49
-49
-49
-49
-49
-49
-49
-49
-49
-50
-50
-50
-50
-50
-50
-50
-50
-50
-50
-50
-50
-50
-50
-50
-50
-50
-50
-50
-50
-50
-50
-50
-50
-50
-50
-50
-50
-50
-50
-50
-49
-49
-49
-49
-50
-50
-51
-51
-51
-50
-50
-50
-50
-50
-50
-49
-49
-49
-49
-49
-49
-49
-48
-48
-49
-49
-49
-49
-49
-49
-49
-49
-49
-49
-50
-50
-50
-50
-50
-50
-50
-50
-50
-50
-50
-50
-50
-50
-49
-49
-49
-49
-49
-49
-49
-49
-49
-49
-49
-49
-49
-49
-49
-49
-49
-49
-49
-49
-49
-50
-50
-50
-50
-50
-50
-50
-50
-50
-50
-49
-49
-49
-49
-49
-49
-49
-49
-48
-48
-48
-48
-48
-48
-48
-48
-48
-48
-48
-48
-48
-48
-48
-48
-48
-48
-48
-48
-48
-48
-48
-49
-49
-49
-48
-49
-49
-49
-49
-49
-49
-49
-49
-49
-49
-49
-49
-49
-49
-49
-49
-49
-49
-49
-49
-48
-48
-47
-47
-47
-47
-47
-47
-47
-47
-47
-47
-47
-47
-47
-47
-47
-47
-47
-47
-47
-47
-48
-48
-48
-48
-48
-48
-48
-48
-47
-47
-47
-47
-47
-47
-47
-47
-47
-47
-47
-47
-47
-47
-48
-48
-48
-48
-48
-48
-48
-47
-47
-47
-47
-47
-47
-47
-47
-47
-47
-47
-47
-47
-47
-47
-47
-47
-47
-47
-47
-47
-47
-47
-46
-46
-46
-46
-46
-46
-46
-46
-46
-45
-45
-45
-45
-45
-44
-44
-44
-44
-43
-43
-43
-41
-41
-41
-41
-41
-39
-39
-39
-37
-37
-37
-36
-35
-35
-35
-35
-34
-34
-33
-33
-33
-33
-32
-32
-33
-33
-32
-32
-32
-32
-32
-32
-33
-33
-33
-34
-33
-33
-33
-34
-34
-34
-35
-34
-34
-34
-34
-34
-34
-33
-34
-34
-34
-34
-34
-34
-34
-34
-34
-34
-34
-34
-35
-35
-35
-35
-35
-35
-36
-36
-36
-36
-37
-36
-36
-37
-37
-37
-37
-37
-37
-38
-38
-38
-38
-39
-39
-39
-39
-40
-40
-41
-41
-42
-43
-43
-43
-44
-44
-46
-46
-46
-46
-47
-47
-47
-48
-48
-48
-49
-49
-49
-49
-50
-50
-50
-49
-49
-49
-49
-49
-49
-49
-50
-50
-50
-50
-50
-50
-49
-49
-50
-50
-50
-50
-50
-51
-51
-51
-51
-50
-50
-50
-50
-50
-50
-50
-50
-50
-50
-50
-51
-51
-51
-51
-51
-51
-51
-51
-51
-51
-51
-51
-51
-51
-51
-51
-50
-50
-50
-50
-50
-50
-50
-50
-49
-50
-50
-50
-50
-49
-49
-49
-49
-49
-49
-49
-49
-49
-49
-49
-48
-48
-47
-47
-47
-46
-46
-47
-46
-46
-45
-45
-44
-44
-42
-42
-41
-41
-40
-39
-37
-36
-34
-31
-27
-22
-18
-11
-3
5
14
25
36
49
63
77
92
109
124
139
154
167
180
190
199
207
211
215
215
215
211
206
198
189
177
163
