# Simple Text Format
# Sampling Rate (Hz):= 1200.00
# Resolution:= 12
# Labels:= ECG	 V1
# Age:=	16
# Gender:=	Masculino
-478
-478
-477
-477
-478
-478
-478
-478
-478
-477
-477
-477
-477
-477
-477
-477
-476
-476
-476
-476
-476
-476
-476
-476
-476
-476
-476
-476
-476
-476
-476
-476
-476
-476
-476
-476
-476
-476
-476
-477
-477
-477
-477
-476
-476
-475
-475
-475
-475
-475
-475
-474
-474
-473
-473
-472
-471
-471
-470
-470
-469
-468
-467
-466
-466
-465
-464
-464
-463
-462
-461
-461
-461
-460
-459
-459
-458
-457
-457
-456
-455
-455
-455
-455
-454
-454
-453
-453
-452
-452
-453
-452
-453
-452
-453
-453
-454
-456
-456
-457
-458
-459
-461
-463
-464
-466
-468
-469
-471
-473
-475
-476
-477
-479
-481
-481
-481
-482
-483
-484
-484
-484
-484
-483
-484
-483
-483
-483
-482
-482
-481
-481
-481
-481
-480
-479
-480
-479
-479
-479
-479
-479
-480
-480
-479
-480
-480
-480
-480
-481
-481
-480
-480
-480
-480
-480
-480
-481
-479
-480
-480
-479
-479
-479
-478
-479
-479
-478
-478
-478
-478
-478
-477
-477
-478
-478
-477
-477
-477
-478
-478
-478
-478
-479
-479
-479
-479
-479
-479
-479
-479
-479
-479
-480
-480
-480
-480
-480
-480
-480
-480
-480
-479
-479
-479
-479
-479
-479
-479
-479
-479
-478
-478
-478
-477
-477
-477
-476
-476
-476
-476
-475
-475
-475
-475
-475
-475
-475
-475
-475
-475
-475
-475
-475
-475
-475
-475
-475
-475
-474
-473
-472
-470
-469
-467
-465
-462
-458
-454
-449
-444
-438
-430
-422
-413
-403
-392
-381
-368
-356
-342
-327
-312
-295
-278
-259
-241
-224
-206
-189
-174
-159
-147
-137
-131
-129
-130
-137
-147
-163
-182
-208
-238
-271
-312
-354
-402
-453
-508
-564
-623
-682
-742
-800
-856
-912
-964
-1012
-1057
-1098
-1134
-1165
-1191
-1212
-1227
-1237
-1243
-1243
-1239
-1229
-1216
-1198
-1178
-1153
-1127
-1097
-1065
-1032
-997
-963
-926
-890
-855
-819
-785
-753
-721
-691
-663
-637
-613
-591
-571
-553
-537
-523
-511
-501
-492
-485
-478
-474
-469
-465
-463
-461
-459
-457
-456
-456
-455
-454
-455
-454
-454
-453
-452
-452
-452
-451
-450
-449
-449
-448
-447
-446
-445
-445
-444
-443
-441
-440
-439
-438
-437
-436
-435
-434
-434
-433
-432
-431
-430
-430
-429
-429
-429
-428
-428
-428
-428
-427
-427
-427
-426
-426
-426
-426
-426
-425
-425
-425
-425
-425
-425
-424
-424
-424
-424
-424
-424
-423
-423
-422
-422
-422
-423
-423
-422
-422
-422
-422
-421
-421
-421
-421
-421
-421
-421
-420
-420
-421
-421
-421
-421
-420
-419
-419
-419
-419
-420
-420
-420
-419
-419
-419
-419
-418
-418
-418
-417
-418
-418
-418
-417
-417
-417
-417
-416
-416
-416
-416
-416
-415
-415
-415
-415
-415
-415
-415
-415
-415
-414
-414
-414
-414
-414
-414
-414
-413
-413
-413
-412
-412
-412
-411
-411
-411
-410
-410
-410
-410
-410
-409
-409
-409
-408
-408
-408
-409
-409
-408
-409
-408
-408
-409
-409
-409
-409
-410
-409
-410
-410
-410
-411
-410
-410
-411
-410
-411
-411
-410
-410
-410
-410
-410
-410
-410
-409
-410
-410
-409
-409
-409
-409
-409
-409
-410
-410
-410
-411
-411
-412
-412
-412
-413
-415
-415
-415
-415
-417
-418
-418
-419
-419
-421
-421
-423
-424
-424
-426
-426
-427
-428
-429
-431
-431
-432
-433
-434
-435
-436
-437
-438
-439
-440
-441
-442
-443
-444
-445
-446
-447
-449
-449
-450
-450
-452
-452
-453
-455
-455
-456
-456
-457
-458
-458
-459
-460
-460
-461
-462
-463
-464
-464
-464
-465
-466
-467
-467
-468
-469
-470
-470
-470
-470
-471
-472
-472
-473
-473
-473
-473
-473
-474
-474
-474
-475
-474
-475
-474
-474
-475
-474
-474
-475
-475
-474
-474
-474
-473
-473
-474
-474
-473
-473
-473
-472
-472
-473
-472
-472
-471
-472
-472
-471
-471
-471
-471
-471
-471
-470
-471
-471
-470
-471
-470
-470
-470
-470
-469
-470
-469
-469
-469
-468
-468
-468
-467
-466
-467
-466
-467
-466
-466
-465
-465
-466
-465
-465
-465
-465
-464
-464
-464
-464
-463
-464
-464
-464
-464
-463
-463
-463
-463
-463
-462
-462
-463
-463
-463
-462
-461
-461
-461
-461
-461
-461
-461
-461
-461
-461
-461
-461
-461
-461
-461
-459
-459
-459
-459
-459
-459
-459
-459
-459
-459
-459
-458
-458
-458
-457
-457
-457
-457
-457
-457
-457
-457
-456
-456
-455
-455
-455
-455
-455
-455
-455
-455
-455
-455
-455
-455
-455
-455
-455
-455
-455
-455
-454
-454
-454
-454
-454
-454
-455
-455
-455
-455
-455
-454
-454
-455
-455
-455
-455
-455
-455
-455
-455
-455
-455
-455
-455
-455
-454
-455
-455
-455
-455
-456
-456
-455
-455
-456
-456
-456
-457
-456
-456
-456
-457
-457
-456
-457
-457
-457
-458
-458
-458
-458
-458
-459
-459
-459
-459
-459
-460
-460
-460
-460
-460
-460
-461
-461
-461
-461
-461
-461
-461
-461
-462
-462
-461
-461
-461
-461
-462
-462
-462
-462
-462
-463
-463
-463
-463
-463
-463
-464
-463
-463
-463
-463
-463
-463
-464
-464
-464
-464
-464
-465
-465
-465
-465
-466
-466
-466
-466
-467
-467
-467
-467
-468
-468
-468
-467
-468
-468
-468
-469
-469
-469
-469
-469
-469
-470
-470
-470
-471
-471
-470
-470
-471
-471
-471
-472
-472
-472
-472
-472
-473
-473
-473
-473
-473
-473
-473
-474
-474
-474
-474
-474
-474
-473
-474
-474
-474
-474
-474
-474
-474
-475
-474
-474
-475
-475
-475
-476
-475
-476
-476
-476
-477
-477
-477
-477
-478
-478
-478
-478
-478
-478
-478
-478
-478
-478
-478
-477
-477
-477
-477
-477
-477
-476
-476
-476
-476
-475
-476
-476
-476
-475
-475
-475
-475
-476
-476
-476
-477
-477
-477
-477
-477
-477
-477
-478
-478
-478
-479
-479
-479
-479
-479
-479
-479
-479
-479
-479
-480
-480
-479
-479
-479
-480
-480
-480
-480
-480
-479
-480
-480
-480
-480
-480
-481
-480
-480
-480
-481
-481
-481
-481
-482
-482
-482
-482
-481
-481
-482
-482
-482
-483
-483
-483
-483
-484
-483
-483
-483
-483
-483
-483
-483
-483
-483
-484
-484
-484
-483
-483
-483
-483
-483
-483
-483
-483
-483
-483
-482
-482
-482
-482
-482
-483
-482
-482
-482
-482
-482
-482
-481
-481
-481
-481
-482
-482
-482
-482
-481
-481
-481
-481
-481
-481
-481
-481
-482
-482
-482
-482
-482
-482
-482
-483
-483
-483
-482
-482
-483
-483
-483
-482
-483
-483
-483
-484
-484
-484
-484
-484
-484
-485
-484
-484
-485
-485
-485
-485
-486
-486
-486
-486
-486
-485
-485
-485
-485
-485
-485
-485
-486
-485
-485
-485
-485
-485
-485
-486
-485
-485
-485
-486
-486
-486
-485
-486
-486
-486
-486
-486
-486
-486
-486
-486
-487
-487
-487
-486
-486
-486
-486
-486
-487
-487
-487
-486
-486
-487
-487
-487
-487
-487
-488
-487
-487
-487
-487
-487
-487
-487
-486
-487
-487
-487
-487
-487
-486
-486
-486
-487
-487
-487
-487
-487
-488
-488
-488
-488
-488
-488
-488
-488
-488
-488
-489
-489
-489
-489
-488
-489
-489
-489
-489
-489
-490
-489
-489
-489
-489
-489
-490
-490
-489
-489
-489
-488
-488
-487
-487
-487
-486
-486
-485
-484
-484
-483
-482
-482
-482
-480
-479
-479
-478
-477
-477
-477
-475
-475
-474
-474
-474
-473
-472
-472
-471
-471
-470
-469
-469
-469
-468
-469
-469
-468
-469
-468
-468
-469
-468
-468
-469
-470
-471
-471
-473
-474
-475
-477
-478
-480
-481
-483
-485
-487
-489
-490
-492
-493
-494
-496
-497
-497
-498
-499
-499
-499
-500
-500
-500
-500
-501
-500
-500
-499
-500
-499
-499
-499
-499
-498
-498
-497
-498
-497
-497
-498
-497
-497
-498
-498
-497
-498
-498
-498
-499
-499
-499
-499
-499
-499
-499
-500
-499
-499
-499
-499
-499
-499
-499
-499
-499
-498
-499
-499
-499
-498
-498
-498
-498
-498
-499
-499
-499
-499
-499
-499
-499
-499
-500
-500
-500
-500
-500
-500
-500
-500
-501
-501
-501
-501
-501
-500
-500
-500
-500
-500
-500
-501
-501
-501
-501
-501
-501
-501
-500
-500
-500
-500
-500
-501
-501
-501
-501
-500
-500
-500
-500
-500
-500
-499
-499
-499
-499
-499
-499
-500
-499
-499
-499
-499
-499
-499
-499
-499
-498
-498
-497
-495
-494
-491
-489
-486
-482
-478
-473
-467
-460
-452
-444
-434
-423
-412
-399
-387
-373
-358
-342
-325
-307
-289
-270
-252
-234
-216
-199
-183
-170
-160
-152
-149
-150
-154
-164
-178
-197
-221
-250
-284
-322
-366
-413
-465
-519
-576
-636
-696
-757
-816
-875
-931
-985
-1035
-1083
-1125
-1163
-1196
-1224
-1247
-1264
-1276
-1284
-1286
-1283
-1275
-1263
-1247
-1227
-1204
-1178
-1148
-1118
-1085
-1051
-1015
-979
-943
-907
-871
-836
-802
-769
-738
-709
-681
-655
-632
-611
-592
-574
-559
-545
-534
-524
-515
-509
-502
-498
-494
-491
-489
-487
-485
-484
-483
-483
-482
-481
-481
-480
-480
-479
-478
-479
-478
-477
-476
-475
-474
-474
-473
-472
-471
-471
-470
-469
-469
-468
-467
-467
-466
-465
-464
-463
-463
-462
-462
-461
-461
-460
-459
-458
-458
-458
-457
-457
-457
-456
-455
-455
-455
-455
-454
-453
-453
-453
-453
-453
-453
-453
-453
-453
-452
-452
-452
-452
-452
-452
-452
-451
-451
-451
-450
-451
-451
-451
-450
-451
-451
-451
-451
-450
-450
-450
-450
-451
-451
-450
-450
-450
-450
-450
-449
-448
-448
-448
-448
-448
-446
-446
-446
-446
-446
-446
-446
-444
-444
-444
-444
-443
-443
-443
-442
-442
-442
-443
-442
-442
-442
-442
-441
-441
-441
-442
-441
-441
-441
-441
-440
-440
-440
-440
-439
-439
-439
-438
-438
-438
-438
-437
-437
-437
-436
-435
-435
-435
-435
-435
-434
-434
-434
-433
-433
-432
-432
-432
-432
-431
-431
-431
-431
-430
-430
-429
-429
-429
-429
-429
-429
-429
-428
-428
-427
-427
-426
-427
-426
-426
-425
-425
-426
-425
-425
-424
-425
-424
-424
-423
-424
-423
-424
-424
-425
-425
-424
-425
-426
-426
-427
-428
-429
-429
-429
-431
-431
-433
-433
-434
-435
-435
-437
-437
-438
-439
-439
-440
-441
-441
-443
-443
-444
-444
-445
-446
-446
-447
-448
-448
-450
-450
-450
-452
-452
-452
-454
-454
-456
-456
-458
-458
-460
-461
-462
-464
-464
-466
-467
-468
-470
-470
-472
-474
-474
-476
-477
-479
-479
-480
-481
-482
-483
-484
-485
-485
-487
-487
-489
-489
-490
-490
-491
-492
-493
-493
-494
-494
-494
-495
-496
-497
-496
-497
-497
-498
-498
-498
-498
-498
-498
-498
-499
-498
-499
-499
-500
-499
-499
-499
-499
-500
-499
-499
-500
-499
-500
-500
-499
-500
-500
-499
-500
-500
-499
-500
-499
-499
-499
-499
-499
-498
-499
-498
-498
-498
-497
-496
-496
-496
-495
-495
-495
-494
-494
-494
-493
-494
-493
-493
-493
-493
-493
-493
-492
-493
-493
-493
-493
-493
-492
-492
-492
-492
-492
-492
-492
-492
-492
-492
-492
-492
-491
-491
-491
-491
-492
-492
-492
-492
-492
-492
-491
-491
-490
-490
-490
-490
-490
-490
-491
-491
-491
-491
-491
-491
-491
-491
-491
-491
-491
-490
-490
-490
-490
-490
-490
-490
-490
-490
-490
-490
-490
-489
-489
-489
-489
-488
-488
-488
-488
-487
-487
-487
-487
-487
-486
-486
-486
-486
-487
-486
-486
-486
-486
-486
-487
-486
-486
-486
-487
-487
-487
-488
-488
-488
-488
-487
-487
-487
-487
-487
-487
-487
-487
-487
-487
-487
-487
-487
-486
-486
-486
-486
-486
-486
-486
-486
-486
-485
-485
-485
-485
-486
-486
-486
-485
-486
-486
-486
-487
-487
-487
-488
-488
-488
-488
-489
-488
-488
-488
-489
-489
-489
-489
-489
-490
-490
-490
-491
-491
-491
-491
-492
-492
-492
-493
-493
-493
-493
-493
-493
-493
-493
-493
-493
-493
-493
-492
-492
-492
-492
-492
-492
-492
-491
-491
-491
-492
-492
-491
-491
-491
-491
-492
-492
-492
-493
-493
-494
-495
-495
-496
-496
-497
-497
-497
-497
-498
-498
-498
-499
-498
-498
-498
-498
-498
-498
-499
-499
-499
-499
-498
-498
-498
-499
-499
-499
-499
-499
-499
-499
-499
-499
-500
-500
-500
-500
-500
-501
-501
-501
-501
-501
-501
-501
-501
-501
-502
-502
-502
-502
-502
-502
-502
-503
-503
-503
-503
-503
-504
-504
-504
-503
-504
-504
-504
-504
-504
-504
-504
-504
-503
-503
-503
-503
-503
-503
-503
-504
-504
-504
-504
-504
-504
-504
-504
-504
-504
-504
-504
-504
-504
-504
-504
-504
-504
-504
-504
-504
-504
-504
-503
-503
-503
-503
-503
-503
-502
-502
-502
-502
-503
-503
-503
-503
-503
-503
-502
-502
-503
-503
-503
-503
-503
-503
-503
-503
-504
-504
-504
-504
-504
-504
-505
-505
-505
-505
-505
-505
-505
-505
-506
-506
-506
-506
-506
-506
-506
-506
-506
-506
-506
-506
-506
-506
-506
-506
-506
-506
-507
-507
-507
-507
-507
-506
-506
-506
-507
-507
-506
-506
-506
-506
-506
-506
-506
-506
-506
-506
-506
-506
-506
-505
-506
-506
-506
-506
-506
-506
-506
-506
-506
-506
-507
-506
-506
-506
-506
-506
-506
-506
-506
-506
-506
-506
-505
-505
-505
-505
-505
-505
-505
-505
-504
-504
-504
-504
-504
-504
-504
-504
-504
-504
-504
-505
-505
-505
-505
-505
-505
-506
-506
-506
-506
-506
-506
-506
-506
-506
-506
-506
-506
-506
-507
-507
-507
-506
-506
-506
-506
-506
-506
-506
-506
-506
-506
-505
-505
-505
-505
-505
-505
-505
-505
-505
-504
-504
-504
-504
-505
-505
-505
-505
-505
-506
-506
-505
-505
-505
-506
-506
-506
-506
-506
-506
-506
-506
-506
-506
-506
-506
-506
-506
-506
-507
-507
-507
-507
-507
-506
-506
-506
-506
-507
-507
-507
-507
-507
-508
-508
-507
-507
-507
-507
-507
-507
-507
-507
-507
-507
-506
-506
-506
-506
-506
-506
-505
-505
-505
-505
-505
-505
-505
-505
-505
-505
-505
-505
-505
-504
-504
-504
-504
-504
-504
-504
-504
-504
-504
-504
-504
-504
-504
-505
-505
-505
-505
-505
-505
-505
-505
-505
-505
-505
-505
-505
-505
-505
-505
-505
-504
-504
-503
-502
-502
-502
-501
-501
-499
-499
-498
-498
-496
-496
-495
-495
-493
-492
-492
-491
-490
-489
-489
-487
-487
-487
-485
-485
-484
-483
-483
-483
-482
-482
-481
-480
-480
-481
-480
-479
-480
-481
-481
-482
-482
-484
-484
-486
-487
-488
-490
-491
-493
-494
-496
-498
-500
-502
-504
-505
-506
-508
-509
-509
-510
-510
-511
-512
-512
-512
-512
-512
-512
-512
-512
-512
-512
-511
-511
-511
-511
-510
-510
-510
-511
-510
-510
-510
-510
-510
-510
-509
-510
-509
-510
-509
-510
-510
-509
-510
-510
-510
-510
-510
-510
-509
-509
-509
-510
-509
-509
-509
-509
-509
-509
-508
-508
-508
-508
-508
-509
-509
-509
-509
-508
-508
-508
-508
-509
-509
-509
-509
-509
-509
-509
-509
-509
-509
-509
-509
-509
-509
-509
-509
-509
-509
-509
-509
-509
-509
-510
-510
-510
-510
-510
-510
-510
-510
-510
-510
-511
-511
-511
-511
-510
-510
-510
-510
-510
-510
-510
-510
-510
-510
-509
-509
-509
-509
-509
-509
-509
-508
-508
-508
-507
-507
-505
-503
-502
-500
-497
-494
-491
-487
-483
-478
-471
-464
-457
-447
-438
-427
-416
-404
-391
-377
-362
-347
-330
-313
-294
-276
-257
-239
-223
-206
-190
-178
-168
-161
-158
-160
-166
-177
-192
-212
-236
-266
-301
-341
-384
-433
-485
-539
-597
-657
-716
-777
-836
-893
-948
-1000
-1049
-1094
-1135
-1170
-1202
-1228
-1249
-1264
-1274
-1279
-1280
-1275
-1266
-1252
-1235
-1214
-1189
-1162
-1133
-1102
-1068
-1034
-999
-963
-927
-892
-857
-822
-790
-758
-729
-700
-674
-649
-628
-607
-590
-574
-560
-547
-537
-528
-521
-514
-509
-505
-501
-498
-497
-495
-494
-493
-492
-491
-490
-490
-490
-489
-488
-488
-487
-487
-486
-485
-483
-483
-482
-481
-481
-479
-478
-477
-476
-475
-474
-473
-472
-471
-471
-471
-470
-469
-469
-468
-467
-467
-466
-466
-466
-464
-464
-463
-463
-463
-463
-462
-462
-462
-461
-460
-460
-460
-460
-460
-459
-459
-459
-459
-459
-459
-459
-459
-459
-459
-458
-458
-458
-458
-457
-457
-457
-457
-457
-456
-456
-456
-456
-456
-456
-455
-454
-454
-454
-454
-454
-454
-454
-454
-454
-454
-454
-454
-453
-453
-453
-453
-453
-452
-452
-452
-452
-452
-451
-451
-451
-451
-451
-450
-450
-449
-449
-449
-448
-448
-448
-448
-448
-447
-447
-447
-447
-446
-446
-446
-446
-446
-446
-445
-445
-445
-445
-444
-445
-445
-444
-444
-444
-445
-445
-444
-444
-444
-444
-443
-443
-443
-443
-442
-442
-442
-442
-441
-440
-440
-440
-439
-439
-439
-438
-437
-437
-436
-436
-435
-435
-434
-434
-434
-434
-433
-433
-432
-432
-432
-432
-433
-432
-433
-432
-433
-432
-433
-433
-434
-433
-434
-434
-435
-434
-435
-435
-435
-436
-435
-436
-437
-436
-437
-438
-438
-437
-438
-439
-439
-440
-440
-441
-441
-443
-443
-443
-445
-445
-446
-447
-447
-448
-449
-449
-451
-451
-452
-453
-453
-454
-454
-456
-456
-457
-458
-459
-459
-460
-462
-462
-463
-464
-465
-466
-467
-468
-468
-470
-471
-472
-472
-473
-474
-475
-476
-477
-478
-479
-480
-480
-481
-482
-482
-483
-484
-485
-486
-487
-487
-488
-489
-489
-491
-490
-492
-492
-492
-493
-493
-493
-493
-494
-494
-495
-495
-494
-495
-494
-495
-495
-495
-495
-494
-495
-495
-495
-494
-495
-495
-494
-494
-495
-495
-494
-494
-495
-495
-494
-494
-494
-494
-494
-494
-495
-494
-494
-493
-494
-494
-494
-494
-493
-494
-493
-494
-493
-494
-493
-493
-493
-493
-492
-492
-492
-491
-492
-491
-491
-490
-490
-489
-489
-489
-488
-488
-488
-487
-487
-486
-486
-486
-486
-485
-485
-485
-486
-486
-486
-486
-486
-486
-486
-485
-486
-486
-486
-486
-486
-486
-486
-485
-486
-486
-486
-486
-485
-485
-485
-485
-485
-485
-485
-485
-485
-485
-485
-485
-485
-484
-484
-484
-484
-484
-483
-483
-483
-483
-483
-483
-483
-483
-482
-482
-482
-482
-481
-481
-481
-481
-480
-480
-480
-479
-479
-479
-479
-479
-479
-479
-479
-479
-479
-479
-479
-479
-479
-479
-479
-479
-479
-480
-480
-480
-480
-480
-480
-480
-480
-480
-480
-480
-480
-480
-480
-480
-480
-479
-479
-479
-479
-479
-479
-479
-479
-479
-479
-479
-479
-479
-480
-480
-480
-480
-480
-480
-480
-480
-480
-480
-480
-479
-479
-479
-479
-479
-479
-479
-479
-479
-479
-479
-479
-479
-479
-479
-479
-479
-479
-479
-479
-479
-480
-480
-480
-480
-480
-480
-480
-480
-480
-480
-480
-480
-480
-480
-480
-480
-480
-480
-480
-480
-480
-480
-481
-481
-482
-482
-482
-482
-482
-483
-483
-484
-484
-484
-484
-484
-484
-484
-485
-485
-485
-485
-485
-485
-485
-485
-485
-485
-485
-485
-486
-486
-486
-486
-486
-486
-486
-486
-486
-487
-487
-487
-487
-487
-487
-487
-488
-488
-488
-488
-488
-488
-487
-488
-488
-488
-488
-489
-489
-489
-488
-488
-488
-489
-489
-489
-489
-489
-489
-489
-489
-489
-489
-489
-489
-489
-489
-488
-488
-489
-489
-489
-489
-489
-489
-489
-489
-489
-489
-489
-489
-489
-489
-489
-489
-489
-489
-489
-490
-490
-489
-489
-489
-489
-490
-490
-490
-490
-491
-491
-491
-491
-490
-491
-491
-491
-491
-491
-491
-491
-491
-491
-491
-491
-491
-491
-491
-491
-491
-491
-491
-490
-490
-490
-490
-491
-491
-491
-491
-491
-491
-491
-491
-490
-490
-490
-491
-491
-491
-491
-491
-491
-491
-491
-491
-490
-490
-490
-490
-490
-490
-490
-489
-488
-488
-488
-488
-488
-488
-488
-488
-488
-488
-488
-488
-488
-488
-488
-488
-489
-489
-489
-489
-489
-489
-490
-490
-490
-490
-490
-490
-490
-490
-491
-491
-491
-491
-490
-490
-490
-490
-491
-491
-491
-490
-490
-490
-490
-490
-490
-490
-490
-490
-490
-490
-490
-490
-490
-490
-490
-490
-490
-490
-490
-490
-489
-489
-489
-489
-489
-489
-489
-489
-489
-489
-488
-488
-488
-488
-488
-488
-488
-488
-489
-489
-489
-489
-489
-489
-489
-489
-489
-489
-490
-490
-490
-490
-490
-490
-490
-490
-490
-491
-491
-490
-490
-490
-490
-490
-490
-490
-490
-490
-490
-490
-490
-490
-490
-489
-489
-489
-489
-488
-488
-488
-488
-487
-487
-488
-488
-487
-486
-486
-486
-486
-486
-486
-486
-486
-486
-486
-486
-486
-486
-486
-486
-486
-486
-486
-486
-487
-487
-487
-487
-488
-488
-488
-488
-487
-487
-488
-488
-488
-488
-488
-488
-488
-488
-488
-487
-487
-487
-487
-487
-487
-487
-487
-486
-486
-486
-486
-487
-486
-486
-486
-486
-486
-485
-485
-485
-485
-485
-485
-485
-485
-485
-485
-485
-485
-485
-485
-485
-485
-486
-486
-486
-486
-486
-486
-486
-485
-485
-485
-485
-485
-485
-485
-485
-484
-483
-483
-482
-482
-481
-480
-480
-479
-478
-477
-477
-475
-475
-474
-473
-472
-472
-470
-470
-468
-468
-468
-466
-466
-465
-464
-464
-464
-463
-463
-463
-462
-462
-462
-461
-461
-460
-461
-461
-462
-461
-462
-462
-463
-463
-465
-465
-466
-468
-470
-471
-472
-474
-475
-477
-478
-479
-481
-482
-483
-484
-486
-487
-488
-488
-488
-489
-489
-488
-489
-489
-490
-489
-489
-488
-489
-488
-488
-488
-487
-488
-487
-487
-488
-487
-488
-487
-488
-488
-488
-488
-488
-488
-489
-488
-488
-488
-488
-487
-488
-487
-487
-487
-487
-487
-486
-486
-485
-485
-484
-485
-484
-484
-483
-483
-483
-483
-482
-482
-483
-482
-482
-482
-482
-482
-482
-482
-482
-482
-483
-483
-483
-483
-483
-484
-485
-485
-485
-485
-485
-485
-485
-485
-485
-485
-485
-484
-484
-484
-484
-483
-483
-483
-482
-482
-482
-481
-481
-481
-481
-481
-480
-480
-480
-480
-480
-480
-480
-480
-480
-480
-480
-480
-480
-480
-480
-480
-479
-479
-479
-479
-478
-478
-477
-476
-474
-472
-471
-468
-465
-461
-457
-453
-447
-441
-433
-425
-415
-405
-394
-382
-370
-357
-343
-328
-313
-297
-279
-261
-244
-225
-208
-191
-176
-162
-149
-140
-134
-132
-133
-140
-150
-166
-186
-210
-240
-274
-313
-355
-402
-453
-507
-563
-621
-679
-737
-795
-851
-904
-955
-1003
-1046
-1087
-1122
-1153
-1178
-1198
-1213
-1224
-1229
-1228
-1224
-1214
-1202
-1185
-1163
-1139
-1113
-1083
-1053
-1019
-985
-950
-915
-880
-845
-810
-777
-744
-713
-684
-656
-630
-608
-586
-566
-549
-534
-520
-508
-499
-490
-483
-477
-472
-468
-465
-462
-460
-459
-458
-457
-457
-456
-456
-455
-455
-455
-454
-453
-453
-452
-451
-451
-450
-449
-448
-447
-446
-445
-445
-444
-443
-442
-442
-441
-441
-440
-439
-438
-437
-436
-435
-435
-434
-433
-433
-432
-431
-431
-430
-430
-429
-429
-428
-428
-428
-427
-427
-426
-425
-425
-425
-425
-424
-424
-424
-423
-423
-422
-422
-422
-422
-421
-421
-421
-421
-421
-421
-421
-421
-421
-421
-421
-421
-421
-421
-421
-421
-422
-422
-421
-421
-421
-421
-421
-420
-421
-421
-421
-421
-420
-420
-420
-419
-419
-419
-419
-418
-418
-418
-418
-418
-417
-417
-417
-417
-417
-417
-417
-417
-416
-416
-416
-416
-416
-415
-415
-415
-415
-415
-414
-414
-413
-413
-413
-413
-413
-412
-412
-412
-412
-410
-410
-410
-410
-410
-410
-410
-409
-408
-408
-408
-407
-407
-407
-407
-407
-406
-406
-406
-405
-405
-405
-405
-405
-404
-404
-404
-404
-404
-404
-404
-404
-404
-403
-403
-403
-402
-403
-402
-402
-403
-402
-402
-402
-402
-402
-402
-402
-402
-403
-402
-403
-402
-403
-403
-404
-404
-404
-405
-405
-405
-405
-406
-407
-407
-408
-408
-408
-409
-410
-410
-410
-412
-412
-412
-413
-413
-415
-415
-416
-416
-417
-418
-419
-419
-421
-421
-422
-423
-424
-425
-426
-427
-427
-429
-429
-431
-431
-433
-433
-435
-435
-436
-438
-438
-440
-440
-441
-443
-443
-444
-444
-445
-446
-447
-447
-448
-449
-449
-450
-450
-450
-451
-451
-452
-452
-453
-452
-453
-454
-454
-454
-454
-454
-454
-454
-455
-455
-455
-455
-456
-456
-457
-457
-456
-457
-457
-457
-457
-457
-458
-457
-458
-457
-457
-457
-457
-457
-457
-457
-456
-457
-457
-456
-456
-456
-456
-455
-455
-455
-455
-454
-454
-455
-454
-454
-454
-454
-453
-453
-452
-452
-452
-451
-451
-450
-450
-449
-450
-450
-449
-448
-449
-449
-448
-448
-448
-448
-447
-448
-447
-447
-447
-447
-447
-446
-446
-446
-447
-446
-446
-446
-445
-445
-445
-445
-445
-445
-445
-444
-444
-444
-444
-444
-443
-443
-443
-442
-443
-442
-442
-441
-441
-440
-440
-440
-439
-440
-440
-439
-439
-438
-438
-438
-439
-438
-438
-438
-438
-438
-437
-437
-437
-437
-437
-437
-437
-436
-436
-436
-436
-436
-436
-436
-436
-435
-435
-435
-435
-435
-435
-434
-434
-434
-434
-435
-434
-434
-434
-433
-433
-433
-433
-433
-433
-433
-433
-433
-433
-433
-432
-432
-432
-432
-432
-432
-432
-432
-432
-432
-432
-431
-431
-431
-431
-431
-432
-432
-431
-431
-431
-431
-431
-431
-431
-431
-430
-430
-430
-430
-430
-430
-430
-431
-431
-431
-430
-430
-430
-430
-430
-430
-430
-430
-431
-431
-431
-431
-431
-432
-432
-432
-432
-432
-432
-433
-433
-433
-433
-433
-433
-432
-432
-433
-433
-433
-433
-433
-433
-433
-434
-434
-434
-434
-434
-434
-435
-435
-435
-435
-435
-435
-436
-436
-436
-436
-436
-436
-436
-436
-436
-437
-437
-437
-437
-437
-437
-437
-437
-438
-438
-438
-437
-437
-437
-437
-437
-437
-437
-438
-438
-438
-438
-438
-438
-438
-439
-439
-439
-439
-440
-440
-440
-440
-440
-440
-440
-440
-440
-440
-440
-440
-440
-440
-440
-440
-440
-439
-439
-439
-439
-439
-438
-438
-438
-438
-438
-438
-438
-438
-438
-439
-439
-439
-439
-439
-439
-439
-440
-440
-440
-440
-440
-441
-441
-441
-441
-441
-441
-441
-441
-441
-441
-441
-441
-441
-441
-441
-441
-441
-441
-441
-441
-441
-441
-442
-442
-442
-442
-442
-442
-442
-442
-442
-441
-441
-441
-441
-441
-441
-441
-441
-441
-441
-441
-441
-441
-441
-440
-440
-440
-440
-441
-441
-441
-440
-440
-441
-441
-441
-441
-441
-441
-441
-441
-441
-441
-441
-441
-441
-441
-441
-441
-440
-440
-440
-440
-440
-440
-440
-440
-440
-440
-440
-440
-439
-439
-440
-440
-440
-440
-440
-440
-440
-440
-440
-440
-440
-440
-440
-439
-439
-439
-439
-439
-438
-438
-438
-438
-438
-438
-438
-438
-438
-437
-437
-437
-438
-438
-438
-438
-438
-439
-439
-439
-439
-439
-438
-438
-438
-438
-438
-438
-437
-437
-437
-437
-437
-437
-437
-437
-437
-438
-438
-438
-438
-438
-437
-438
-438
-438
-438
-438
-438
-439
-439
-439
-439
-439
-439
-439
-439
-439
-439
-439
-439
-439
-439
-439
-439
-439
-439
-439
-439
-439
-439
-439
-438
-438
-438
-438
-437
-437
-437
-437
-436
-436
-436
-436
-436
-436
-436
-436
-436
-436
-436
-436
-436
-436
-436
-436
-436
-436
-436
-436
-436
-435
-435
-435
-435
-435
-435
-435
-435
-435
-435
-435
-435
-435
-435
-435
-435
-435
-435
-435
-435
-435
-434
-434
-434
-432
-432
-432
-431
-430
-429
-429
-428
-426
-426
-425
-424
-423
-422
-422
-421
-420
-419
-419
-418
-418
-418
-417
-416
-416
-416
-416
-415
-415
-415
-414
-414
-414
-414
-413
-414
-413
-413
-413
-413
-413
-414
-414
-414
-416
-416
-417
-417
-419
-420
-421
-422
-424
-425
-426
-428
-430
-431
-433
-433
-435
-436
-437
-438
-440
-441
-441
-442
-442
-442
-442
-443
-443
-442
-442
-442
-442
-442
-442
-441
-441
-440
-441
-441
-440
-440
-440
-440
-440
-440
-439
-440
-440
-439
-439
-438
-438
-438
-438
-437
-437
-437
-436
-436
-435
-435
-435
-434
-434
-434
-433
-433
-434
-433
-433
-434
-433
-433
-433
-433
-433
-433
-434
-434
-434
-434
-434
-434
-434
-433
-433
-434
-434
-434
-434
-434
-434
-434
-434
-433
-434
-434
-434
-434
-434
-434
-434
-435
-434
-434
-434
-434
-434
-434
-433
-433
-433
-433
-432
-432
-432
-431
-431
-430
-430
-430
-430
-430
-430
-430
-430
-429
-429
-429
-429
-429
-429
-429
-429
-429
-428
-428
-427
-427
-425
-424
-422
-419
-418
-414
-410
-406
-401
-395
-389
-381
-372
-363
-353
-342
-330
-318
-304
-290
-275
-260
-243
-226
-207
-189
-172
-154
-138
-123
-110
-97
-90
-85
-85
-87
-95
-107
-124
-146
-172
-204
-240
-280
-325
-373
-426
-481
-537
-595
-655
-713
-770
-826
-878
-929
-975
-1018
-1057
-1090
-1119
-1143
-1161
-1175
-1184
-1186
-1185
-1179
-1167
-1153
-1135
-1112
-1087
-1060
-1030
-998
-965
-930
-894
-860
-823
-789
-755
-721
-689
-659
-630
-603
-578
-556
-534
-516
-499
-484
-471
-460
-450
-442
-435
-429
-425
-421
-417
-416
-413
-411
-411
-410
-408
-407
-407
-406
-405
-405
-404
-403
-402
-401
-401
-399
-398
-396
-396
-395
-393
-393
-392
-391
-391
-390
-389
-388
-388
-387
-387
-386
-385
-385
-384
-384
-383
-383
-383
-383
-382
-382
-381
-381
-381
-380
-379
-378
-378
-377
-377
-376
-376
-376
-375
-375
-375
-375
-374
-374
-374
-374
-374
-374
-374
-374
-373
-373
-373
-373
-373
-373
-373
-372
-372
-372
-371
-371
-370
-370
-370
-370
-369
-369
-369
-369
-369
-369
-369
-368
-368
-368
-368
-368
-367
-367
-367
-367
-367
-367
-367
-367
-366
-366
-366
-366
-366
-366
-366
-366
-365
-365
-365
-365
-365
-365
-365
-365
-364
-364
-364
-364
-364
-363
-363
-362
-362
-362
-361
-361
-361
-360
-360
-358
-358
-357
-357
-357
-357
-356
-355
-355
-355
-355
-355
-355
-355
-354
-354
-354
-354
-354
-354
-354
-353
-353
-354
-354
-354
-353
-353
-353
-353
-352
-352
-352
-351
-351
-351
-351
-350
-350
-349
-349
-349
-349
-348
-348
-348
-347
-347
-347
-346
-346
-346
-346
-346
-345
-346
-346
-346
-346
-347
-347
-348
-347
-348
-348
-349
-349
-350
-351
-352
-353
-353
-354
-355
-355
-356
-357
-358
-358
-359
-361
-361
-361
-363
-363
-364
-365
-366
-366
-368
-368
-369
-370
-371
-372
-373
-374
-375
-376
-377
-378
-379
-380
-381
-382
-383
-384
-384
-386
-387
-388
-389
-389
-391
-392
-393
-393
-394
-395
-396
-397
-398
-399
-399
-401
-401
-402
-403
-403
-404
-405
-405
-406
-407
-407
-407
-408
-408
-408
-409
-409
-409
-409
-409
-410
-409
-409
-410
-410
-409
-409
-409
-410
-410
-409
-409
-410
-410
-410
-409
-409
-409
-409
-410
-409
-409
-409
-409
-408
-408
-408
-408
-408
-407
-407
-407
-407
-406
-406
-405
-405
-405
-406
-405
-405
-404
-405
-404
-404
-404
-404
-403
-404
-403
-404
-403
-404
-403
-403
-403
-403
-403
-402
-403
-402
-402
-402
-402
-401
-401
-401
-401
-400
-400
-400
-399
-400
-400
-399
-399
-398
-398
-397
-397
-397
-397
-397
-396
-396
-396
-396
-395
-395
-395
-394
-395
-395
-394
-394
-394
-394
-393
-393
-394
-394
-393
-393
-393
-393
-393
-392
-392
-392
-392
-392
-392
-391
-391
-391
-391
-390
-390
-390
-390
-389
-389
-389
-389
-389
-388
-388
-388
-388
-389
-389
-388
-388
-388
-388
-388
-388
-388
-389
-389
-389
-388
-388
-388
-389
-389
-389
-388
-388
-388
-388
-388
-388
-388
-388
-387
-387
-387
-387
-387
-387
-387
-387
-386
-386
-386
-386
-386
-386
-386
-385
-385
-385
-385
-386
-386
-386
-386
-386
-386
-386
-386
-386
-386
-386
-386
-386
-386
-386
-386
-386
-387
-387
-387
-387
-387
-387
-387
-387
-387
-387
-387
-388
-388
-388
-388
-388
-388
-388
-388
-388
-388
-388
-388
-389
-389
-389
-389
-389
-390
-390
-390
-390
-389
-389
-390
-390
-390
-390
-390
-390
-390
-391
-391
-391
-391
-391
-391
-392
-392
-392
-392
-392
-392
-393
-393
-393
-393
-393
-393
-393
-394
-394
-394
-394
-394
-395
-395
-395
-395
-395
-394
-394
-394
-395
-395
-395
-394
-394
-394
-394
-394
-394
-394
-393
-393
-393
-392
-393
-393
-393
-392
-392
-392
-392
-391
-391
-391
-391
-391
-391
-391
-391
-391
-391
-391
-391
-391
-392
-392
-392
-393
-393
-393
-393
-393
-394
-394
-394
-394
-394
-394
-394
-394
-395
-395
-394
-394
-394
-394
-394
-394
-394
-393
-393
-394
-394
-394
-394
-394
-394
-394
-393
-393
-393
-394
-394
-394
-394
-394
-394
-394
-394
-394
-395
-395
-395
-395
-395
-395
-395
-395
-395
-395
-394
-395
-395
-395
-395
-395
-395
-395
-395
-395
-396
-396
-395
-395
-395
-395
-395
-395
-396
-396
-396
-395
-395
-395
-396
-396
-396
-395
-395
-395
-395
-394
-394
-394
-394
-393
-393
-393
-393
-392
-392
-392
-392
-392
-391
-391
-391
-391
-391
-391
-391
-390
-390
-390
-391
-391
-391
-391
-391
-391
-390
-390
-390
-390
-390
-390
-390
-390
-390
-390
-390
-390
-390
-390
-391
-391
-391
-391
-391
-391
-391
-391
-391
-391
-392
-392
-392
-392
-392
-392
-392
-392
-392
-392
-391
-391
-391
-391
-391
-391
-391
-392
-393
-393
-392
-392
-392
-392
-392
-392
-392
-392
-392
-392
-392
-391
-391
-391
-391
-391
-392
-391
-391
-391
-391
-391
-391
-391
-391
-391
-391
-391
-391
-391
-391
-390
-390
-390
-390
-390
-390
-390
-390
-390
-390
-390
-390
-390
-390
-391
-391
-391
-391
-391
-390
-390
-390
-390
-390
-390
-389
-389
-389
-389
-388
-388
-388
-388
-387
-387
-387
-388
-388
-387
-387
-387
-387
-387
-387
-387
-387
-387
-386
-386
-386
-386
-386
-386
-386
-386
-386
-386
-387
-387
-387
-387
-387
-387
-387
-387
-387
-387
-386
-386
-386
-386
-386
-386
-386
-386
-385
-385
-385
-385
-384
-383
-383
-383
-382
-381
-381
-379
-379
-378
-378
-376
-376
-375
-374
-373
-373
-372
-370
-370
-369
-368
-367
-366
-366
-366
-364
-364
-364
-364
-362
-362
-361
-361
-361
-361
-361
-361
-361
-362
-362
-364
-364
-365
-367
-368
-370
-371
-373
-375
-377
-378
-380
-382
-383
-385
-387
-388
-389
-390
-391
-392
-392
-394
-394
-394
-395
-395
-395
-395
-395
-394
-395
-395
-395
-394
-394
-394
-394
-395
-394
-394
-393
-394
-394
-394
-393
-393
-393
-392
-392
-392
-392
-391
-391
-390
-391
-390
-390
-390
-389
-389
-388
-388
-389
-388
-388
-388
-388
-387
-387
-387
-388
-388
-388
-388
-388
-388
-388
-388
-388
-389
-389
-389
-389
-389
-389
-389
-390
-389
-389
-389
-389
-389
-390
-390
-390
-390
-390
-390
-389
-389
-389
-390
-390
-389
-389
-389
-389
-388
-388
-388
-388
-388
-387
-387
-387
-387
-387
-387
-387
-387
-387
-387
-387
-387
-387
-387
-388
-388
-388
-388
-388
-388
-388
-387
-387
-388
-387
-386
-385
-383
-381
-380
-377
-373
-369
-364
-359
-354
-346
-339
-330
-320
-310
-298
-286
-273
-259
-244
-229
-212
-195
-177
-158
-139
-121
-103
-86
-71
-57
-45
-37
-33
-34
-38
-47
-60
-79
-102
-130
-164
-201
-244
-291
-341
-396
-453
-512
-572
-632
-692
-750
-807
-860
-911
-957
-1000
-1038
-1072
-1100
-1123
-1140
-1153
-1161
-1163
-1160
-1153
-1142
-1126
-1108
-1085
-1059
-1030
-1000
-967
-933
-898
-862
-825
-790
-754
-719
-685
-652
-621
-592
-564
-539
-516
-494
-475
-457
-442
-428
-417
-406
-398
-390
-385
-379
-376
-373
-371
-369
-367
-366
-365
-364
-363
-363
-362
-361
-361
-361
-360
-359
-358
-358
-358
-357
-356
-355
-354
-354
-353
-352
-351
-351
-350
-349
-348
-347
-346
-345
-344
-344
-343
-342
-341
-341
-340
-340
-339
-339
-338
-338
-338
-337
-337
-337
-336
-336
-335
-335
-335
-334
-334
-334
-334
-334
-333
-333
-333
-333
-333
-332
-332
-332
-331
-331
-331
-331
-331
-331
-331
-330
-330
-330
-330
-330
-330
-330
-329
-329
-329
-329
-328
-328
-328
-328
-328
-328
-328
-328
-328
-328
-327
-326
-326
-326
-326
-326
-326
-325
-325
-324
-324
-324
-323
-322
-322
-322
-322
-320
-320
-320
-320
-320
-319
-319
-319
-318
-318
-318
-317
-317
-317
-317
-317
-317
-317
-317
-317
-317
-317
-315
-315
-315
-315
-315
-315
-315
-314
-314
-313
-313
-313
-313
-313
-312
-311
-311
-311
-311
-310
-310
-309
-309
-309
-308
-308
-307
-307
-307
-307
-306
-306
-306
-305
-305
-305
-304
-304
-304
-303
-303
-302
-302
-302
-301
-301
-301
-300
-301
-301
-301
-300
-300
-300
-300
-300
-300
-300
-300
-300
-299
-300
-301
-300
-301
-301
-301
-301
-302
-302
-303
-303
-304
-304
-305
-305
-306
-307
-308
-308
-310
-310
-310
-312
-312
-314
-314
-316
-316
-318
-319
-319
-321
-321
-322
-323
-324
-325
-325
-327
-327
-329
-330
-331
-332
-333
-334
-335
-337
-337
-339
-339
-341
-342
-343
-344
-344
-346
-347
-349
-349
-351
-352
-353
-354
-355
-356
-357
-358
-359
-360
-361
-362
-363
-363
-364
-365
-365
-367
-367
-367
-367
-368
-368
-369
-369
-370
-370
-371
-371
-371
-372
-371
-372
-373
-372
-373
-373
-373
-373
-372
-373
-373
-373
-373
-373
-373
-373
-373
-373
-373
-373
-373
-373
-373
-373
-373
-373
-372
-373
-373
-373
-372
-372
-373
-372
-372
-372
-372
-371
-371
-371
-371
-371
-371
-371
-371
-370
-371
-371
-370
-371
-371
-371
-370
-370
-371
-370
-370
-370
-370
-369
-369
-369
-370
-369
-369
-369
-369
-368
-368
-368
-369
-369
-369
-369
-369
-369
-369
-369
-368
-368
-368
-368
-368
-368
-368
-368
-368
-368
-367
-367
-367
-367
-367
-367
-366
-366
-366
-366
-365
-365
-365
-365
-365
-365
-365
-365
-365
-365
-365
-364
-366
-366
-366
-366
-366
-365
-365
-365
-365
-365
-365
-365
-365
-365
-365
-365
-365
-364
-364
-364
-364
-364
-364
-364
-364
-364
-363
-363
-363
-363
-363
-364
-364
-363
-363
-363
-363
-363
-363
-363
-363
-362
-362
-362
-362
-362
-362
-362
-362
-362
-362
-361
-361
-361
-361
-361
-361
-362
-362
-362
-362
-362
-363
-363
-363
-363
-364
-364
-364
-364
-364
-365
-365
-365
-365
-366
-365
-365
-366
-366
-366
-367
-367
-367
-368
-367
-367
-367
-368
-368
-368
-368
-368
-369
-369
-369
-369
-369
-369
-369
-369
-369
-369
-369
-369
-369
-368
-368
-368
-368
-369
-369
-369
-369
-369
-370
-370
-370
-370
-370
-370
-371
-371
-372
-372
-372
-372
-372
-373
-373
-373
-373
-374
-375
-375
-375
-375
-375
-375
-375
-375
-376
-376
-376
-376
-376
-377
-377
-377
-378
-378
-378
-378
-379
-379
-379
-379
-379
-380
-380
-380
-380
-380
-379
-379
-379
-379
-379
-379
-379
-379
-379
-379
-380
-380
-380
-380
-380
-380
-380
-380
-380
-380
-380
-380
-380
-381
-381
-381
-381
-382
-382
-382
-382
-382
-382
-382
-382
-382
-382
-383
-382
-382
-382
-381
-381
-381
-381
-381
-381
-381
-381
-381
-381
-382
-382
-382
-382
-383
-383
-383
-383
-384
-384
-384
-385
-384
-384
-384
-384
-384
-385
-385
-385
-385
-385
-385
-385
-385
-385
-385
-385
-385
-385
-385
-385
-385
-385
-386
-385
-385
-385
-385
-385
-385
-386
-386
-386
-386
-386
-386
-386
-386
-387
-387
-387
-386
-386
-386
-386
-386
-385
-386
-386
-386
-386
-386
-386
-386
-386
-386
-386
-386
-386
-387
-387
-387
-387
-387
-387
-388
-388
-388
-387
-387
-387
-387
-387
-387
-387
-387
-387
-387
-387
-388
-388
-388
-388
-387
-387
-387
-388
-388
-387
-387
-387
-387
-387
-387
-387
-387
-387
-387
-387
-387
-387
-387
-387
-387
-387
-388
-388
-388
-388
-388
-388
-389
-389
-388
-388
-389
-389
-389
-389
-390
-389
-389
-389
-389
-389
-389
-389
-390
-390
-390
-390
-390
-390
-389
-390
-390
-390
-390
-390
-390
-389
-389
-389
-389
-390
-390
-390
-389
-389
-389
-389
-389
-389
-390
-390
-389
-389
-390
-390
-390
-391
-391
-391
-392
-392
-392
-392
-392
-392
-392
-393
-393
-393
-393
-393
-393
-393
-393
-392
-392
-392
-392
-392
-392
-392
-392
-392
-392
-392
-392
-392
-392
-392
-392
-392
-392
-392
-393
-393
-393
-393
-392
-392
-392
-392
-392
-392
-392
-392
-392
-392
-392
-392
-392
-392
-392
-392
-392
-392
-392
-391
-391
-391
-392
-392
-392
-392
-392
-392
-392
-392
-392
-393
-393
-393
-392
-392
-392
-393
-393
-393
-393
-393
-393
-393
-393
-392
-391
-391
-391
-391
-391
-390
-390
-389
-389
-388
-388
-388
-387
-386
-386
-386
-384
-384
-383
-383
-381
-381
-381
-380
-380
-380
-378
-377
-377
-377
-376
-376
-375
-374
-373
-373
-373
-372
-372
-372
-371
-371
-370
-371
-371
-370
-371
-370
-371
-371
-372
-373
-374
-375
-376
-377
-378
-380
-382
-384
-385
-387
-389
-391
-393
-394
-396
-397
-398
-399
-400
-401
-402
-402
-402
-403
-403
-402
-403
-402
-402
-402
-401
-401
-400
-401
-400
-399
-399
-400
-399
-399
-399
-399
-400
-399
-400
-400
-400
-400
-401
-400
-401
-401
-401
-401
-401
-401
-401
-402
-401
-401
-401
-400
-401
-401
-401
-400
-400
-399
-400
-399
-399
-399
-399
-399
-398
-398
-398
-398
-399
-399
-399
-399
-399
-399
-399
-399
-399
-399
-400
-400
-400
-400
-400
-401
-401
-401
-401
-401
-401
-402
-401
-401
-401
-401
-401
-400
-400
-400
-400
-399
-399
-399
-399
-399
-399
-399
-399
-399
-399
-399
-399
-399
-399
-399
-399
-400
-400
-401
-400
-400
-401
-401
-401
-401
-401
-401
-401
-401
-400
-399
-398
-396
-394
-391
-388
-384
-380
-375
-369
-362
-355
-346
-337
-326
-316
-304
-291
-278
-263
-249
-232
-215
-197
-179
-160
-142
-124
-107
-91
-77
-65
-56
-50
-49
-52
-59
-71
-87
-108
-135
-166
-201
-243
-287
-336
-389
-445
-502
-562
-622
-681
-739
-796
-851
-902
-950
-993
-1032
-1067
-1097
-1122
-1140
-1155
-1164
-1168
-1167
-1162
-1152
-1138
-1119
-1097
-1073
-1045
-1016
-983
-950
-916
-881
-845
-810
-775
-740
-706
-673
-642
-613
-585
-560
-535
-514
-495
-478
-462
-449
-437
-427
-418
-411
-405
-400
-397
-393
-391
-388
-387
-385
-384
-384
-383
-382
-382
-382
-381
-380
-379
-379
-378
-377
-377
-376
-375
-373
-372
-372
-371
-370
-368
-367
-366
-365
-364
-363
-362
-361
-361
-360
-359
-358
-357
-357
-356
-356
-355
-354
-354
-354
-354
-352
-352
-352
-352
-352
-351
-351
-350
-350
-350
-350
-350
-350
-350
-350
-350
-350
-350
-349
-349
-349
-349
-349
-349
-349
-349
-349
-349
-349
-349
-349
-348
-348
-348
-348
-348
-348
-348
-348
-348
-348
-348
-347
-346
-346
-346
-346
-346
-346
-346
-345
-344
-344
-344
-344
-344
-344
-344
-344
-343
-343
-342
-342
-342
-342
-342
-342
-342
-341
-341
-340
-340
-340
-340
-339
-339
-338
-338
-338
-338
-338
-338
-337
-337
-337
-337
-336
-336
-336
-336
-336
-336
-336
-334
-334
-334
-334
-334
-333
-333
-333
-332
-332
-332
-331
-331
-331
-331
-330
-330
-330
-330
-330
-329
-329
-329
-329
-329
-328
-328
-329
-329
-328
-328
-327
-327
-327
-328
-327
-327
-326
-326
-326
-326
-326
-325
-325
-325
-326
-325
-325
-326
-325
-324
-325
-325
-325
-325
-326
-326
-327
-327
-327
-327
-327
-328
-328
-329
-330
-331
-331
-332
-332
-333
-334
-334
-335
-336
-337
-337
-339
-339
-339
-341
-342
-343
-344
-344
-345
-346
-347
-347
-349
-349
-350
-351
-352
-353
-353
-355
-355
-356
-358
-358
-359
-361
-361
-362
-364
-365
-365
-367
-367
-368
-369
-370
-371
-372
-372
-373
-374
-376
-376
-377
-378
-379
-379
-380
-382
-381
-383
-384
-384
-385
-386
-386
-387
-388
-388
-389
-389
-390
-390
-391
-391
-392
-392
-392
-392
-393
-393
-393
-393
-393
-392
-393
-393
-392
-393
-393
-392
-392
-393
-393
-393
-392
-393
-393
-392
-392
-392
-393
-392
-392
-392
-391
-391
-392
-391
-391
-391
-390
-391
-390
-390
-389
-390
-390
-389
-389
-389
-389
-389
-388
-389
-388
-388
-387
-388
-387
-387
-387
-387
-386
-387
-386
-386
-386
-386
-385
-385
-385
-385
-384
-384
-385
-384
-384
-385
-385
-384
-384
-385
-385
-385
-385
-384
-384
-385
-385
-385
-385
-385
-385
-385
-384
-384
-384
-384
-383
-383
-383
-383
-382
-382
-382
-382
-381
-382
-382
-382
-381
-381
-381
-381
-381
-380
-380
-380
-381
-381
-381
-380
-380
-380
-379
-379
-379
-378
-378
-378
-378
-377
-377
-377
-377
-376
-376
-376
-376
-376
-376
-376
-376
-376
-377
-377
-376
-376
-376
-376
-376
-376
-376
-376
-377
-377
-377
-377
-377
-378
-378
-378
-378
-377
-377
-377
-377
-377
-378
-378
-378
-378
-378
-378
-378
-378
-378
-378
-378
-378
-378
-378
-378
-378
-378
-378
-378
-378
-378
-378
-378
-378
-379
-379
-379
-379
-379
-378
-378
-378
-378
-378
-378
-378
-378
-379
-379
-379
-379
-379
-380
-380
-380
-380
-380
-380
-380
-380
-381
-381
-381
-381
-381
-381
-382
-382
-382
-382
-383
-382
-382
-382
-382
-383
-383
-384
-384
-383
-383
-383
-383
-383
-384
-384
-384
-383
-383
-384
-384
-384
-384
-384
-383
-383
-383
-384
-384
-384
-384
-384
-384
-383
-383
-383
-383
-384
-383
-383
-382
-382
-382
-383
-383
-383
-383
-384
-384
-384
-384
-384
-384
-384
-384
-385
-385
-385
-385
-385
-385
-386
-386
-386
-386
-387
-387
-387
-387
-387
-388
-388
-388
-388
-388
-388
-388
-388
-388
-388
-388
-388
-388
-389
-389
-389
-388
-388
-388
-388
-388
-387
-388
-388
-388
-388
-388
-388
-388
-388
-388
-388
-388
-388
-388
-388
-389
-389
-389
-389
-389
-389
-389
-389
-389
-389
-389
-389
-388
-388
-389
-390
-390
-390
-390
-390
-390
-390
-390
-390
-390
-390
-390
-390
-390
-390
-390
-390
-390
-390
-390
-390
-390
-389
-389
-389
-389
-389
-389
-389
-389
-389
-389
-389
-389
-388
-388
-388
-388
-388
-388
-388
-388
-388
-388
-388
-388
-388
-388
-388
-388
-388
-388
-389
-389
-389
-388
-388
-388
-388
-388
-388
-388
-388
-388
-388
-388
-388
-388
-389
-389
-389
-389
-389
-389
-389
-389
-389
-389
-389
-389
-389
-389
-390
-390
-390
-390
-390
-390
-390
-390
-390
-389
-389
-389
-389
-389
-388
-388
-388
-388
-388
-388
-388
-387
-387
-387
-386
-386
-386
-386
-386
-386
-386
-386
-386
-386
-386
-386
-387
-387
-387
-387
-387
-387
-387
-387
-387
-387
-387
-388
-388
-388
-388
-388
-388
-388
-389
-389
-388
-388
-388
-389
-389
-389
-389
-389
-389
-389
-389
-389
-388
-388
-388
-388
-388
-388
-388
-388
-388
-388
-388
-388
-388
-388
-388
-388
-388
-388
-388
-388
-388
-388
-387
-387
-387
-387
-387
-386
-386
-386
-386
-385
-385
-385
-385
-385
-385
-385
-385
-385
-385
-385
-385
-385
-385
-386
-386
-386
-386
-386
-386
-386
-386
-386
-386
-386
-386
-386
-386
-387
-387
-387
-387
-387
-387
-387
-387
-387
-387
-387
-388
-388
-388
-388
-388
-388
-388
-388
-387
-387
-387
-387
-387
-386
-386
-386
-384
-384
-384
-383
-383
-382
-380
-380
-379
-378
-377
-377
-376
-375
-374
-374
-373
-372
-372
-371
-370
-369
-369
-368
-367
-367
-366
-366
-365
-365
-365
-364
-364
-363
-363
-364
-363
-364
-363
-364
-364
-365
-366
-366
-368
-369
-370
-371
-373
-374
-375
-377
-379
-380
-382
-384
-384
-386
-387
-389
-391
-392
-392
-393
-394
-394
-394
-394
-394
-395
-395
-394
-394
-394
-393
-393
-393
-393
-392
-391
-392
-391
-391
-391
-390
-391
-391
-390
-390
-390
-390
-390
-389
-390
-389
-389
-389
-389
-388
-388
-388
-388
-388
-388
-387
-387
-386
-387
-387
-387
-387
-388
-386
-387
-387
-387
-387
-387
-387
-388
-388
-388
-388
-388
-388
-388
-388
-388
-388
-388
-388
-389
-389
-389
-389
-389
-389
-388
-388
-389
-389
-389
-389
-389
-389
-389
-390
-390
-389
-389
-389
-389
-389
-389
-388
-388
-387
-387
-387
-387
-387
-387
-386
-386
-386
-386
-385
-385
-385
-385
-385
-385
-385
-385
-386
-386
-385
-385
-385
-385
-384
-384
-383
-382
-380
-379
-377
-374
-372
-368
-363
-358
-353
-346
-339
-330
-321
-311
-300
-288
-276
-263
-249
-234
-219
-202
-185
-167
-149
-131
-114
-98
-81
-67
-56
-47
-41
-39
-42
-49
-61
-76
-96
-122
-153
-187
-226
-270
-317
-369
-423
-479
-537
-595
-654
-711
-766
-820
-870
-917
-961
-1000
-1035
-1064
-1088
-1108
-1122
-1132
-1136
-1135
-1130
-1120
-1106
-1088
-1067
-1043
-1016
-987
-955
-923
-889
-855
-819
-784
-750
-715
-682
-650
-621
-592
-565
-540
-517
-495
-478
-460
-445
-432
-421
-411
-402
-395
-390
-385
-381
-377
-376
-373
-372
-370
-370
-369
-369
-368
-367
-367
-367
-366
-366
-365
-365
-364
-363
-363
-362
-361
-359
-358
-358
-357
-356
-354
-353
-353
-351
-350
-349
-348
-347
-346
-345
-344
-344
-343
-342
-342
-341
-341
-340
-340
-340
-340
-339
-339
-339
-339
-339
-339
-339
-339
-338
-338
-338
-338
-338
-339
-339
-339
-339
-339
-339
-339
-338
-338
-338
-337
-337
-337
-337
-336
-336
-336
-336
-336
-336
-336
-335
-335
-335
-334
-334
-334
-334
-334
-334
-333
-333
-333
-334
-333
-333
-332
-333
-333
-332
-332
-332
-331
-331
-331
-331
-331
-331
-331
-331
-331
-330
-330
-330
-330
-330
-330
-331
-330
-329
-329
-329
-329
-329
-329
-329
-328
-328
-328
-328
-328
-328
-328
-328
-328
-327
-327
-327
-326
-326
-326
-326
-326
-326
-326
-325
-324
-324
-324
-325
-324
-324
-324
-324
-324
-324
-324
-324
-324
-323
-323
-323
-323
-323
-322
-322
-322
-321
-321
-321
-320
-320
-319
-319
-320
-319
-319
-319
-319
-319
-319
-319
-319
-319
-320
-320
-320
-321
-321
-321
-321
-322
-322
-323
-324
-324
-325
-325
-326
-326
-327
-327
-328
-328
-328
-329
-330
-330
-331
-331
-332
-332
-333
-334
-335
-335
-336
-336
-338
-338
-340
-341
-341
-342
-343
-344
-345
-345
-347
-347
-349
-349
-351
-351
-352
-353
-354
-354
-356
-357
-358
-359
-359
-361
-362
-362
-363
-364
-365
-366
-367
-367
-368
-368
-369
-370
-370
-371
-372
-372
-372
-373
-373
-373
-374
-374
-374
-374
-374
-376
-376
-376
-376
-377
-377
-377
-377
-377
-377
-378
-378
-379
-379
-378
-379
-379
-379
-379
-380
-380
-380
-379
-379
-379
-379
-379
-378
-378
-378
-378
-378
-378
-377
-377
-376
-376
-376
-375
-375
-375
-375
-375
-374
-374
-374
-373
-373
-373
-372
-372
-371
-371
-370
-370
-370
-370
-370
-369
-369
-368
-367
-368
-367
-367
-366
-367
-366
-365
-366
-365
-365
-365
-364
-365
-364
-363
-364
-363
-363
-362
-362
-362
-361
-361
-361
-360
-360
-360
-360
-359
-359
-359
-358
-359
-359
-359
-359
-358
-358
-358
-358
-358
-358
-359
-359
-359
-359
-359
-359
-358
-358
-358
-358
-358
-357
-357
-357
-357
-357
-357
-356
-356
-357
-357
-356
-356
-356
-355
-355
-355
-356
-355
-355
-355
-355
-355
-354
-354
-354
-354
-353
-353
-353
-353
-352
-352
-352
-352
-352
-351
-351
-351
-351
-351
-351
-351
-351
-351
-351
-350
-350
-350
-350
-350
-351
-351
-351
-351
-351
-350
-350
-351
-351
-351
-351
-351
-351
-351
-351
-352
-352
-352
-352
-352
-352
-352
-352
-352
-352
-352
-352
-352
-353
-353
-353
-353
-352
-352
-352
-352
-352
-352
-352
-352
-352
-352
-352
-352
-352
-352
-352
-353
-353
-353
-353
-353
-353
-353
-353
-353
-353
-354
-354
-354
-354
-354
-354
-355
-355
-355
-355
-355
-355
-355
-355
-355
-355
-355
-355
-357
-357
-357
-356
-356
-357
-357
-358
-358
-358
-359
-359
-359
-359
-359
-359
-359
-359
-359
-360
-360
-360
-360
-361
-361
-361
-361
-361
-361
-361
-361
-361
-361
-361
-361
-361
-361
-361
-361
-361
-361
-362
-361
-361
-361
-361
-361
-361
-360
-360
-360
-360
-360
-360
-359
-359
-359
-359
-360
-360
-360
-359
-359
-359
-359
-359
-359
-359
-359
-359
-360
-360
-360
-360
-360
-360
-360
-360
-359
-360
-360
-361
-361
-361
-361
-361
-360
-361
-361
-361
-361
-361
-361
-361
-361
-361
-361
-361
-361
-361
-361
-361
-361
-361
-361
-362
-362
-362
-362
-361
-361
-361
-361
-361
-361
-361
-361
-361
-361
-361
-361
-361
-361
-361
-361
-361
-361
-361
-361
-361
-361
-362
-362
-362
-362
-362
-362
-362
-362
-362
-362
-362
-362
-362
-362
-362
-362
-362
-362
-362
-362
-362
-362
-361
-361
-361
-361
-361
-361
-361
-360
-361
-361
-361
-360
-360
-360
-360
-360
-360
-361
-361
-361
-361
-361
-361
-361
-362
-362
-362
-362
-362
-362
-362
-362
-361
-361
-361
-361
-361
-361
-361
-361
-361
-361
-361
-361
-361
-361
-361
-361
-361
-361
-361
-361
-361
-361
-361
-360
-360
-360
-360
-360
-359
-360
-360
-360
-360
-360
-359
-359
-359
-359
-359
-359
-359
-359
-359
-359
-360
-360
-359
-359
-359
-360
-360
-360
-359
-359
-360
-360
-360
-360
-360
-360
-360
-360
-360
-360
-360
-360
-360
-360
-360
-360
-360
-360
-360
-360
-360
-360
-360
-360
-360
-360
-360
-360
-360
-360
-360
-360
-360
-359
-359
-359
-360
-360
-360
-360
-360
-359
-359
-359
-359
-359
-358
-357
-357
-357
-357
-357
-357
-357
-357
-356
-357
-357
-357
-357
-357
-357
-357
-356
-356
-356
-356
-356
-355
-355
-355
-355
-353
-353
-353
-352
-351
-350
-350
-348
-347
-347
-346
-346
-345
-343
-343
-342
-342
-341
-340
-339
-339
-338
-337
-337
-337
-336
-336
-335
-335
-335
-334
-335
-334
-335
-334
-335
-335
-335
-337
-337
-339
-341
-341
-343
-345
-346
-349
-351
-352
-354
-356
-358
-360
-360
-362
-363
-364
-365
-366
-367
-368
-368
-368
-368
-369
-369
-368
-368
-369
-368
-369
-368
-369
-368
-368
-367
-368
-368
-367
-368
-367
-367
-366
-366
-367
-366
-366
-365
-365
-365
-365
-364
-364
-363
-363
-362
-362
-362
-361
-360
-361
-360
-360
-359
-360
-360
-360
-359
-359
-359
-360
-360
-360
-360
-361
-361
-361
-361
-362
-362
-362
-362
-362
-362
-362
-362
-363
-363
-363
-363
-363
-363
-363
-363
-363
-362
-362
-362
-362
-362
-362
-363
-363
-362
-362
-362
-362
-362
-362
-361
-361
-361
-361
-361
-361
-360
-360
-360
-360
-360
-360
-360
-360
-359
-359
-359
-359
-359
-358
-358
-358
-358
-358
-358
-358
-357
-357
-356
-355
-353
-351
-350
-347
-343
-340
-335
-331
-325
-318
-311
-303
-292
-282
-271
-259
-247
-233
-219
-203
-187
-170
-152
-134
-115
-98
-80
-63
-47
-34
-22
-14
-8
-8
-11
-19
-32
-49
-70
-98
-130
-166
-207
-252
-301
-354
-410
-467
-527
-586
-645
-703
-759
-812
-863
-910
-953
-992
-1026
-1054
-1078
-1097
-1110
-1118
-1121
-1120
-1113
-1102
-1088
-1068
-1046
-1021
-993
-963
-931
-898
-863
-828
-792
-756
-722
-687
-653
-621
-590
-561
-534
-508
-485
-464
-445
-428
-413
-399
-388
-378
-370
-363
-357
-353
-348
-346
-343
-341
-341
-340
-339
-338
-338
-337
-337
-336
-336
-336
-335
-335
-334
-333
-332
-332
-331
-330
-329
-328
-327
-326
-325
-324
-324
-323
-322
-321
-320
-319
-319
-318
-317
-316
-316
-315
-314
-314
-313
-313
-312
-312
-311
-311
-310
-310
-310
-309
-310
-309
-309
-309
-309
-308
-308
-308
-308
-307
-307
-306
-307
-307
-306
-306
-305
-305
-305
-305
-305
-305
-304
-304
-304
-305
-305
-305
-305
-304
-304
-304
-304
-304
-304
-303
-303
-303
-302
-302
-302
-301
-301
-301
-300
-300
-299
-299
-298
-298
-297
-297
-297
-296
-296
-296
-296
-296
-295
-295
-295
-295
-295
-295
-295
-295
-294
-294
-294
-294
-294
-294
-294
-294
-294
-293
-293
-294
-294
-293
-293
-293
-293
-292
-292
-292
-292
-291
-291
-290
-290
-290
-289
-289
-289
-289
-288
-288
-288
-287
-287
-287
-286
-285
-285
-285
-284
-284
-283
-283
-283
-283
-282
-282
-281
-281
-281
-281
-280
-280
-279
-280
-280
-279
-279
-280
-280
-279
-279
-280
-279
-280
-280
-279
-280
-280
-280
-280
-281
-280
-281
-280
-281
-281
-281
-282
-282
-282
-283
-283
-284
-284
-285
-284
-286
-286
-286
-287
-287
-287
-288
-289
-290
-290
-291
-292
-292
-293
-294
-294
-296
-296
-297
-298
-299
-300
-301
-302
-303
-304
-306
-306
-308
-308
-310
-310
-312
-314
-314
-316
-316
-318
-318
-320
-321
-323
-323
-324
-326
-326
-327
-328
-329
-329
-330
-331
-332
-333
-334
-335
-336
-336
-337
-338
-338
-339
-339
-340
-341
-342
-342
-342
-344
-344
-344
-345
-345
-346
-346
-347
-346
-347
-348
-347
-348
-348
-347
-348
-348
-348
-347
-347
-347
-347
-347
-347
-346
-346
-346
-346
-346
-345
-345
-345
-345
-345
-345
-344
-345
-345
-344
-344
-344
-344
-344
-343
-344
-343
-343
-343
-342
-342
-342
-342
-341
-342
-341
-341
-341
-340
-341
-340
-339
-340
-339
-340
-339
-338
-339
-338
-338
-337
-337
-337
-336
-337
-336
-336
-336
-335
-335
-335
-336
-335
-335
-335
-335
-335
-335
-335
-335
-334
-334
-334
-334
-334
-334
-334
-334
-333
-334
-334
-332
-333
-333
-333
-332
-332
-332
-331
-331
-331
-330
-330
-331
-330
-330
-330
-329
-329
-329
-329
-329
-329
-329
-328
-328
-328
-328
-328
-328
-328
-328
-328
-328
-329
-329
-329
-329
-328
-328
-328
-329
-329
-329
-329
-329
-329
-329
-329
-329
-328
-328
-328
-328
-328
-328
-328
-327
-327
-328
-328
-328
-327
-327
-327
-327
-326
-326
-326
-326
-326
-326
-325
-325
-325
-325
-325
-325
-325
-325
-325
-325
-325
-325
-325
-325
-325
-325
-325
-325
-326
-326
-326
-326
-326
-326
-327
-326
-326
-326
-326
-326
-327
-327
-327
-327
-328
-328
-328
-328
-328
-328
-328
-329
-329
-329
-329
-329
-329
-329
-329
-329
-329
-329
-330
-330
-331
-331
-331
-331
-331
-332
-332
-332
-332
-332
-332
-332
-333
-333
-333
-333
-333
-333
-333
-333
-334
-334
-334
-334
-334
-334
-334
-334
-334
-334
-334
-334
-334
-334
-335
-335
-335
-335
-336
-336
-336
-337
-337
-337
-337
-337
-337
-337
-337
-338
-338
-338
-338
-338
-338
-338
-338
-338
-338
-338
-338
-339
-339
-339
-339
-339
-339
-339
-339
-338
-338
-338
-338
-338
-337
-338
-338
-338
-338
-338
-337
-337
-338
-338
-338
-338
-338
-338
-338
-339
-339
-340
-340
-340
-340
-340
-340
-340
-340
-340
-341
-341
-340
-340
-340
-340
-340
-340
-340
-340
-339
-340
-340
-340
-340
-340
-340
-340
-340
-340
-340
-340
-340
-340
-340
-340
-340
-341
-341
-341
-341
-341
-341
-342
-342
-342
-342
-342
-342
-342
-342
-342
-342
-342
-342
-342
-342
-342
-341
-342
-342
-342
-342
-342
-342
-342
-342
-342
-342
-342
-342
-342
-342
-342
-342
-342
-343
-343
-343
-343
-343
-343
-343
-343
-342
-342
-342
-341
-341
-341
-341
-341
-341
-341
-341
-342
-342
-342
-341
-341
-341
-342
-341
-341
-341
-341
-341
-341
-341
-341
-341
-341
-341
-341
-341
-341
-341
-341
-341
-340
-340
-340
-340
-340
-340
-340
-340
-340
-340
-340
-340
-341
-341
-341
-341
-341
-341
-341
-341
-342
-342
-342
-342
-342
-342
-342
-342
-342
-343
-343
-342
-342
-342
-342
-342
-342
-342
-341
-341
-341
-341
-341
-341
-341
-340
-340
-340
-340
-340
-340
-340
-340
-340
-340
-340
-340
-340
-340
-340
-340
-340
-340
-339
-340
-340
-340
-340
-340
-340
-340
-340
-340
-341
-341
-341
-341
-341
-341
-341
-341
-341
-342
-342
-342
-342
-342
-342
-342
-341
-341
-341
-341
-341
-341
-341
-340
-340
-340
-340
-340
-341
-341
-340
-340
-340
-341
-341
-341
-341
-341
-341
-341
-341
-341
-341
-341
-341
-341
-341
-340
-340
-340
-340
-340
-340
-340
-340
-340
-340
-340
-340
-340
-339
-339
-338
-338
-337
-336
-336
-335
-335
-334
-333
-333
-331
-331
-330
-328
-328
-327
-327
-325
-325
-323
-323
-322
-322
-320
-320
-319
-319
-317
-317
-317
-317
-316
-315
-314
-314
-314
-314
-314
-314
-314
-314
-314
-315
-316
-317
-317
-319
-320
-322
-324
-325
-327
-329
-331
-333
-335
-337
-338
-340
-342
-343
-344
-346
-346
-348
-348
-349
-349
-349
-349
-349
-349
-349
-348
-347
-347
-347
-347
-346
-347
-346
-346
-346
-346
-346
-346
-346
-346
-347
-347
-346
-347
-347
-347
-347
-347
-347
-347
-347
-347
-346
-347
-347
-347
-346
-347
-347
-346
-346
-346
-345
-346
-345
-345
-345
-345
-345
-345
-344
-345
-345
-345
-345
-345
-345
-345
-345
-345
-345
-345
-345
-344
-345
-345
-345
-345
-345
-345
-344
-344
-344
-344
-344
-343
-343
-343
-343
-343
-343
-343
-343
-343
-343
-343
-343
-344
-344
-344
-344
-344
-344
-343
-343
-343
-344
-344
-344
-344
-344
-343
-343
-343
-343
-343
-343
-343
-343
-343
-343
-342
-342
-342
-341
-340
-339
-338
-337
-334
-331
-328
-325
-320
-315
-309
-302
-294
-286
-276
-265
-253
-242
-228
-215
-200
-185
-168
-150
-132
-114
-95
-76
-59
-43
-27
-14
-4
5
7
7
2
-8
-22
-42
-65
-95
-128
-167
-209
-258
-308
-364
-421
-480
-539
-600
-659
-717
-774
-827
-877
-924
-966
-1003
-1036
-1063
-1085
-1102
-1114
-1121
-1122
-1120
-1111
-1100
-1084
-1063
-1040
-1013
-985
-954
-921
-887
-852
-815
-779
-743
-708
-673
-639
-606
-575
-546
-519
-493
-471
-449
-430
-414
-398
-386
-374
-364
-356
-349
-344
-339
-336
-332
-330
-328
-326
-326
-324
-323
-322
-322
-321
-321
-321
-320
-319
-318
-317
-316
-316
-315
-315
-313
-312
-312
-311
-310
-309
-309
-308
-307
-306
-305
-305
-304
-303
-303
-302
-301
-301
-300
-300
-299
-299
-298
-298
-297
-297
-296
-296
-295
-295
-294
-294
-294
-293
-293
-293
-292
-292
-292
-291
-291
-291
-291
-291
-290
-290
-289
-289
-289
-289
-289
-288
-288
-288
-288
-288
-288
-288
-286
-286
-286
-286
-286
-286
-286
-286
-285
-285
-284
-284
-285
-285
-285
-285
-285
-285
-284
-284
-284
-283
-283
-283
-282
-282
-282
-282
-282
-281
-281
-281
-280
-280
-280
-280
-279
-279
-279
-278
-277
-277
-277
-277
-277
-276
-276
-276
-276
-276
-276
-276
-275
-275
-275
-275
-275
-275
-275
-274
-273
-273
-273
-273
-273
-273
-273
-273
-272
-271
-271
-271
-271
-271
-269
-269
-269
-269
-268
-268
-267
-267
-266
-266
-265
-265
-265
-264
-263
-263
-263
-262
-262
-262
-261
-261
-261
-261
-260
-260
-260
-259
-259
-260
-260
-259
-260
-260
-259
-260
-260
-259
-260
-259
-260
-259
-260
-261
-260
-261
-261
-262
-262
-263
-263
-264
-264
-265
-265
-266
-266
-266
-267
-268
-269
-269
-270
-270
-271
-272
-273
-273
-274
-275
-276
-278
-278
-279
-280
-281
-282
-284
-284
-286
-287
-288
-289
-290
-291
-292
-293
-295
-295
-297
-297
-298
-300
-301
-302
-303
-303
-304
-306
-306
-307
-308
-309
-310
-311
-312
-313
-314
-314
-315
-316
-317
-318
-318
-319
-320
-320
-321
-323
-323
-324
-325
-325
-325
-326
-327
-327
-328
-328
-328
-329
-328
-329
-329
-330
-330
-330
-330
-331
-330
-331
-331
-331
-331
-331
-331
-331
-331
-332
-331
-331
-331
-331
-330
-331
-331
-331
-330
-330
-330
-329
-329
-328
-328
-329
-328
-327
-328
-327
-327
-327
-327
-326
-327
-326
-327
-326
-326
-326
-326
-326
-326
-326
-326
-325
-326
-325
-326
-325
-325
-325
-325
-324
-325
-325
-325
-324
-325
-325
-324
-324
-324
-323
-324
-324
-324
-323
-323
-323
-323
-323
-322
-322
-322
-322
-322
-321
-321
-321
-321
-321
-321
-321
-321
-321
-321
-321
-321
-320
-320
-319
-319
-319
-319
-319
-319
-319
-319
-319
-319
-318
-318
-318
-318
-319
-319
-319
-319
-319
-319
-318
-318
-318
-318
-318
-318
-318
-318
-318
-318
-318
-318
-318
-318
-318
-318
-318
-317
-317
-317
-317
-317
-317
-317
-317
-317
-317
-317
-316
-316
-316
-316
-316
-316
-315
-315
-315
-315
-315
-316
-316
-315
-315
-315
-315
-315
-315
-315
-314
-314
-314
-314
-314
-314
-314
-314
-314
-314
-314
-314
-314
-314
-314
-314
-314
-314
-314
-314
-314
-315
-315
-315
-315
-315
-315
-315
-315
-316
-316
-316
-316
-316
-317
-317
-317
-318
-318
-318
-318
-318
-318
-318
-318
-318
-318
-318
-318
-318
-318
-318
-319
-319
-319
-319
-319
-320
-320
-320
-320
-320
-320
-321
-321
-321
-321
-321
-321
-321
-321
-321
-322
-322
-322
-322
-323
-323
-323
-323
-324
-325
-325
-325
-325
-325
-325
-325
-326
-326
-326
-327
-326
-326
-326
-326
-326
-326
-326
-326
-325
-325
-325
-325
-325
-325
-325
-325
-325
-325
-325
-325
-325
-325
-325
-325
-326
-326
-326
-326
-326
-326
-326
-326
-326
-326
-326
-326
-326
-326
-326
-326
-327
-327
-327
-327
-327
-327
-327
-328
-328
-328
-328
-328
-328
-328
-328
-329
-329
-329
-329
-329
-329
-329
-329
-329
-329
-328
-328
-328
-328
-328
-328
-328
-328
-328
-328
-328
-327
-327
-327
-327
-327
-328
-328
-328
-328
-328
-328
-328
-329
-329
-329
-329
-329
-329
-329
-329
-329
-330
-330
-330
-330
-331
-331
-331
-331
-331
-331
-331
-331
-331
-331
-331
-331
-331
-331
-331
-331
-330
-330
-330
-330
-330
-330
-330
-330
-329
-329
-329
-329
-329
-329
-329
-330
-330
-330
-330
-330
-330
-330
-330
-330
-330
-330
-330
-330
-330
-330
-329
-329
-329
-329
-329
-329
-329
-329
-329
-329
-329
-329
-329
-329
-329
-329
-329
-329
-329
-329
-329
-330
-330
-330
-330
-330
-330
-330
-330
-330
-329
-329
-329
-329
-329
-329
-329
-329
-329
-329
-329
-329
-329
-329
-329
-329
-329
-329
-329
-329
-329
-329
-331
-331
-331
-331
-331
-331
-331
-331
-331
-331
-333
-333
-333
-333
-333
-332
-332
-332
-332
-332
-331
-331
-331
-331
-331
-331
-331
-331
-331
-331
-331
-331
-331
-330
-330
-330
-330
-330
-329
-329
-329
-329
-329
-329
-330
-330
-330
-329
-329
-329
-329
-329
-329
-329
-330
-330
-330
-330
-330
-330
-330
-330
-330
-330
-330
-330
-330
-330
-330
-329
-329
-330
-330
-330
-330
-330
-331
-331
-331
-330
-330
-330
-330
-330
-331
-331
-332
-331
-331
-331
-331
-331
-331
-331
-331
-330
-330
-330
-330
-329
-329
-329
-329
-329
-329
-329
-329
-330
-330
-330
-330
-330
-330
-331
-331
-331
-331
-331
-332
-332
-332
-332
-332
-332
-332
-332
-332
-332
-331
-331
-331
-331
-330
-329
-328
-328
-327
-327
-326
-325
-324
-323
-323
-322
-320
-319
-319
-317
-316
-316
-315
-313
-313
-312
-311
-310
-310
-309
-308
-307
-307
-307
-305
-305
-305
-304
-304
-304
-303
-304
-304
-303
-303
-303
-303
-304
-304
-305
-305
-306
-308
-308
-310
-311
-312
-314
-315
-317
-318
-320
-321
-323
-325
-326
-328
-329
-331
-332
-333
-333
-334
-335
-335
-335
-336
-336
-336
-336
-336
-336
-336
-336
-336
-335
-335
-336
-335
-335
-334
-335
-334
-335
-334
-335
-335
-335
-335
-334
-335
-335
-335
-336
-335
-335
-336
-335
-335
-335
-336
-335
-335
-335
-335
-335
-334
-334
-333
-334
-333
-332
-333
-332
-332
-332
-331
-331
-330
-331
-331
-331
-331
-331
-332
-332
-332
-332
-332
-332
-332
-332
-334
-334
-334
-334
-334
-335
-335
-335
-335
-335
-335
-335
-335
-335
-334
-333
-333
-333
-333
-332
-332
-332
-331
-331
-331
-331
-331
-331
-330
-330
-330
-330
-330
-330
-330
-330
-330
-330
-330
-330
-330
-330
-330
-330
-330
-330
-330
-329
-329
-329
-328
-327
-325
-323
-321
-318
-315
-312
-307
-302
-296
-289
-282
-272
-263
-252
-241
-229
-216
-202
-188
-172
-155
-139
-120
-102
-83
-66
-48
-31
-16
-2
9
16
20
19
15
5
-8
-27
-50
-79
-112
-150
-193
-239
-290
-343
-400
-459
-518
-578
-637
-694
-750
-803
-852
-898
-941
-978
-1010
-1037
-1060
-1077
-1089
-1096
-1097
-1093
-1087
-1074
-1058
-1038
-1015
-988
-960
-929
-896
-863
-827
-792
-756
-720
-685
-651
-617
-585
-554
-526
-499
-475
-452
-430
-412
-395
-380
-367
-357
-347
-339
-332
-327
-323
-319
-316
-314
-312
-312
-311
-310
-309
-309
-308
-308
-308
-308
-307
-306
-305
-305
-304
-303
-302
-302
-301
-299
-298
-298
-296
-295
-294
-293
-292
-291
-290
-289
-288
-287
-287
-286
-285
-284
-284
-283
-283
-282
-282
-282
-281
-281
-281
-280
-279
-279
-279
-279
-279
-279
-278
-278
-278
-278
-278
-278
-277
-277
-277
-276
-276
-276
-276
-275
-275
-275
-275
-275
-274
-274
-274
-274
-274
-274
-273
-273
-273
-273
-273
-272
-272
-272
-272
-272
-272
-272
-272
-271
-271
-271
-271
-270
-270
-270
-270
-269
-269
-269
-269
-269
-268
-268
-268
-268
-267
-266
-266
-266
-266
-266
-266
-266
-266
-265
-265
-264
-264
-265
-265
-265
-265
-264
-264
-264
-264
-264
-264
-264
-263
-262
-262
-262
-262
-262
-262
-261
-261
-261
-261
-261
-260
-260
-260
-260
-259
-258
-258
-258
-258
-257
-256
-256
-256
-256
-255
-255
-255
-255
-255
-254
-254
-254
-253
-254
-254
-254
-253
-254
-254
-253
-254
-254
-254
-254
-253
-254
-254
-253
-254
-253
-253
-254
-253
-254
-254
-253
-254
-254
-254
-254
-254
-255
-255
-255
-256
-256
-256
-257
-257
-258
-259
-259
-260
-260
-262
-262
-263
-263
-264
-265
-266
-266
-267
-267
-269
-269
-269
-270
-271
-272
-272
-273
-274
-274
-275
-276
-277
-279
-279
-281
-281
-283
-283
-285
-286
-287
-288
-290
-290
-292
-293
-293
-294
-295
-296
-297
-298
-298
-299
-299
-300
-300
-301
-302
-301
-303
-303
-304
-304
-304
-305
-305
-305
-306
-306
-307
-307
-307
-309
-309
-309
-311
-311
-311
-311
-312
-312
-312
-313
-313
-314
-313
-314
-315
-314
-315
-315
-315
-315
-315
-315
-315
-315
-314
-315
-315
-314
-314
-313
-313
-313
-312
-312
-312
-312
-311
-311
-311
-312
-311
-311
-310
-310
-310
-310
-309
-310
-309
-309
-309
-308
-309
-309
-308
-308
-308
-307
-307
-307
-307
-307
-306
-306
-306
-305
-305
-306
-305
-305
-304
-305
-304
-304
-304
-304
-303
-303
-304
-303
-303
-303
-302
-303
-303
-302
-302
-302
-303
-302
-302
-302
-302
-301
-301
-302
-302
-301
-301
-301
-301
-300
-300
-300
-299
-299
-300
-299
-299
-299
-299
-298
-298
-298
-297
-297
-297
-297
-296
-296
-296
-295
-295
-296
-296
-295
-295
-295
-295
-294
-294
-294
-294
-294
-294
-294
-294
-294
-294
-294
-294
-294
-294
-294
-294
-294
-294
-294
-294
-294
-294
-294
-294
-294
-294
-294
-294
-294
-294
-294
-294
-293
-293
-293
-293
-292
-292
-292
-292
-292
-292
-292
-292
-292
-292
-292
-292
-292
-292
-292
-292
-292
-292
-292
-292
-292
-292
-293
-293
-293
-293
-293
-293
-293
-293
-294
-294
-294
-294
-294
-293
-294
-294
-294
-294
-294
-293
-293
-293
-293
-293
-293
-293
-294
-294
-294
-294
-294
-294
-295
-295
-295
-295
-295
-295
-295
-295
-295
-296
-296
-296
-296
-296
-296
-297
-296
-296
-296
-296
-296
-296
-296
-296
-296
-297
-297
-297
-297
-297
-297
-297
-297
-298
-298
-298
-298
-298
-298
-298
-298
-298
-298
-299
-299
-299
-299
-299
-300
-300
-299
-299
-299
-300
-300
-300
-300
-300
-300
-300
-300
-300
-300
-300
-301
-301
-301
-300
-301
-301
-301
-301
-301
-301
-300
-300
-300
-300
-300
-300
-300
-300
-300
-301
-300
-300
-300
-300
-300
-300
-300
-300
-300
-300
-300
-300
-300
-300
-300
-301
-301
-301
-301
-301
-301
-301
-301
-301
-301
-301
-301
-301
-301
-300
-300
-301
-301
-301
-301
-301
-301
-301
-301
-301
-301
-301
-301
-301
-301
-301
-301
-302
-302
-302
-302
-302
-302
-302
-302
-301
-301
-301
-301
-302
-302
-302
-302
-302
-302
-302
-302
-302
-302
-302
-302
-302
-302
-302
-302
-302
-302
-302
-301
-301
-301
-301
-301
-301
-300
-300
-300
-299
-300
-300
-299
-299
-299
-299
-299
-298
-298
-298
-298
-299
-299
-299
-299
-299
-299
-299
-299
-299
-299
-299
-300
-300
-300
-300
-300
-300
-300
-300
-300
-300
-300
-300
-300
-299
-299
-299
-299
-299
-299
-299
-299
-299
-299
-298
-298
-298
-298
-298
-298
-299
-299
-299
-299
-299
-299
-299
-299
-299
-299
-299
-299
-299
-299
-299
-299
-299
-299
-298
-298
-298
-298
-298
-298
-298
-298
-298
-298
-298
-299
-299
-299
-299
-299
-299
-299
-300
-300
-300
-300
-300
-300
-300
-300
-300
-300
-300
-300
-300
-299
-299
-299
-299
-298
-298
-298
-298
-298
-297
-297
-297
-297
-297
-297
-297
-297
-297
-297
-296
-296
-296
-297
-297
-297
-297
-297
-297
-297
-298
-297
-297
-297
-298
-298
-298
-298
-299
-299
-299
-299
-299
-300
-300
-300
-300
-300
-300
-300
-300
-301
-301
-301
-301
-301
-301
-301
-301
-301
-300
-300
-300
-300
-300
-300
-299
-299
-299
-299
-299
-298
-298
-298
-296
-296
-296
-295
-294
-294
-293
-293
-291
-290
-290
-289
-289
-288
-288
-286
-286
-285
-285
-284
-284
-282
-282
-282
-282
-281
-281
-280
-280
-280
-280
-280
-280
-279
-280
-280
-279
-280
-279
-280
-279
-280
-280
-281
-282
-282
-284
-284
-286
-287
-287
-289
-291
-292
-294
-294
-296
-298
-300
-300
-301
-302
-303
-304
-305
-305
-305
-305
-306
-306
-306
-306
-306
-306
-306
-305
-306
-305
-305
-305
-305
-305
-305
-305
-306
-305
-306
-305
-306
-306
-306
-306
-307
-307
-307
-307
-306
-307
-306
-306
-307
-306
-306
-305
-305
-304
-304
-304
-303
-304
-303
-302
-303
-302
-302
-302
-302
-302
-302
-302
-301
-302
-302
-301
-301
-302
-302
-302
-302
-302
-302
-302
-302
-303
-303
-303
-303
-302
-302
-302
-302
-303
-303
-303
-303
-303
-302
-302
-302
-302
-302
-302
-302
-302
-301
-301
-301
-301
-301
-301
-301
-301
-301
-301
-301
-301
-301
-301
-300
-300
-300
-300
-300
-299
-299
-299
-299
-299
-299
-299
-298
-298
-298
-297
-296
-295
-295
-293
-291
-288
-286
-282
-278
-273
-267
-262
-255
-247
-237
-227
-217
-205
-193
-180
-167
-152
-137
-121
-104
-87
-69
-51
-35
-18
-3
11
23
33
39
42
41
36
28
15
-4
-28
-56
-89
-126
-167
-213
-262
-315
-370
-427
-485
-543
-600
-657
-711
-763
-812
-857
-898
-934
-966
-993
-1014
-1031
-1043
-1049
-1051
-1048
-1039
-1027
-1011
-991
-968
-941
-913
-883
-851
-816
-783
-747
-712
-677
-642
-608
-576
-545
-515
-487
-461
-437
-415
-395
-377
-361
-347
-335
-324
-315
-307
-301
-296
-292
-288
-285
-283
-281
-279
-278
-278
-277
-276
-275
-275
-275
-274
-273
-273
-273
-272
-271
-271
-270
-269
-269
-268
-267
-267
-266
-265
-264
-264
-263
-262
-262
-261
-260
-259
-258
-258
-258
-257
-256
-256
-255
-254
-254
-253
-253
-252
-252
-251
-251
-251
-251
-250
-249
-249
-249
-249
-249
-249
-249
-249
-249
-248
-248
-248
-248
-248
-248
-248
-248
-248
-247
-247
-247
-247
-247
-246
-246
-246
-246
-246
-246
-245
-245
-245
-245
-245
-245
-245
-245
-244
-244
-243
-243
-243
-243
-243
-243
-243
-243
-243
-243
-242
-242
-242
-242
-242
-241
-241
-241
-241
-241
-241
-240
-240
-240
-240
-240
-240
-240
-239
-239
-239
-239
-239
-238
-238
-238
-238
-238
-238
-238
-237
-237
-237
-237
-237
-237
-236
-235
-235
-235
-235
-235
-235
-235
-235
-234
-233
-233
-233
-233
-233
-233
-233
-232
-232
-232
-232
-232
-231
-231
-231
-231
-230
-231
-231
-230
-230
-230
-230
-230
-230
-229
-230
-230
-229
-230
-230
-230
-230
-231
-231
-232
-231
-232
-232
-232
-232
-232
-233
-233
-233
-234
-233
-234
-234
-235
-234
-235
-236
-236
-237
-237
-237
-238
-239
-239
-241
-241
-241
-243
-243
-244
-245
-245
-247
-248
-249
-249
-250
-251
-252
-253
-253
-254
-255
-256
-257
-258
-259
-260
-260
-262
-262
-264
-264
-266
-266
-267
-268
-269
-270
-271
-273
-273
-274
-276
-276
-277
-278
-279
-279
-280
-281
-282
-283
-284
-284
-285
-286
-285
-287
-288
-288
-289
-289
-289
-289
-290
-290
-291
-292
-292
-292
-293
-293
-294
-293
-294
-294
-294
-294
-294
-294
-293
-294
-294
-293
-293
-292
-292
-292
-291
-291
-291
-290
-291
-291
-290
-290
-290
-289
-289
-289
-288
-288
-288
-288
-287
-288
-288
-287
-287
-287
-286
-287
-286
-286
-287
-286
-286
-285
-286
-285
-285
-284
-283
-284
-283
-282
-283
-282
-282
-281
-281
-281
-280
-280
-280
-280
-279
-280
-279
-279
-278
-279
-278
-278
-278
-277
-277
-277
-277
-277
-276
-276
-276
-275
-275
-275
-274
-274
-274
-274
-273
-273
-273
-273
-273
-274
-274
-274
-274
-273
-273
-272
-273
-273
-273
-273
-273
-272
-272
-272
-272
-271
-271
-271
-271
-271
-271
-270
-271
-271
-271
-271
-270
-270
-270
-270
-270
-270
-270
-270
-270
-270
-270
-270
-270
-270
-270
-270
-270
-270
-270
-270
-270
-270
-270
-269
-269
-269
-269
-269
-269
-269
-269
-269
-269
-269
-268
-268
-268
-268
-268
-268
-267
-267
-267
-267
-267
-267
-267
-267
-267
-267
-267
-267
-267
-267
-267
-267
-267
-267
-267
-268
-268
-268
-269
-269
-269
-269
-269
-269
-269
-269
-269
-270
-269
-269
-269
-269
-269
-270
-270
-270
-270
-270
-270
-270
-270
-270
-270
-270
-270
-270
-270
-271
-271
-270
-270
-270
-270
-270
-270
-270
-270
-271
-271
-272
-272
-272
-273
