# Simple Text Format
# Sampling Rate (Hz):= 1200.00
# Resolution:= 12
# Labels:= ECG	 V4
# Age:=	16
# Gender:=	Masculino
-36
-36
-36
-36
-36
-36
-37
-37
-37
-37
-37
-37
-37
-37
-37
-38
-37
-37
-37
-37
-38
-38
-38
-38
-38
-39
-39
-39
-39
-40
-40
-40
-40
-41
-41
-41
-41
-42
-42
-42
-43
-43
-43
-43
-43
-42
-42
-42
-42
-42
-42
-41
-41
-40
-39
-39
-38
-37
-37
-37
-35
-35
-33
-33
-33
-32
-31
-31
-30
-30
-29
-29
-29
-29
-28
-28
-28
-27
-27
-28
-27
-27
-27
-27
-26
-26
-26
-26
-25
-25
-25
-24
-24
-24
-24
-23
-24
-24
-24
-23
-24
-23
-24
-24
-24
-25
-25
-25
-26
-26
-27
-28
-27
-29
-29
-29
-29
-29
-30
-31
-31
-31
-31
-30
-31
-31
-31
-31
-31
-31
-31
-30
-30
-31
-30
-30
-30
-30
-30
-30
-30
-30
-31
-31
-30
-31
-31
-31
-31
-32
-32
-32
-32
-32
-33
-33
-33
-34
-33
-35
-35
-35
-35
-35
-36
-37
-37
-37
-37
-38
-38
-38
-38
-38
-39
-40
-40
-40
-40
-41
-41
-41
-42
-42
-42
-42
-43
-43
-43
-43
-44
-44
-44
-44
-45
-45
-45
-45
-45
-45
-45
-45
-45
-45
-45
-44
-44
-44
-44
-44
-44
-44
-44
-44
-43
-43
-43
-43
-42
-42
-42
-42
-42
-42
-42
-42
-42
-42
-42
-42
-42
-41
-41
-41
-41
-41
-41
-41
-40
-40
-39
-38
-38
-38
-38
-37
-37
-37
-36
-36
-36
-35
-34
-34
-33
-33
-31
-30
-28
-26
-23
-19
-16
-11
-6
1
9
17
27
38
49
63
76
92
108
125
143
161
180
200
220
241
262
285
306
330
353
376
400
424
447
471
494
518
542
564
586
607
625
640
652
662
669
670
669
664
653
640
622
600
575
547
515
481
445
407
369
330
292
254
219
185
153
125
98
74
55
37
23
11
2
-5
-10
-14
-16
-17
-17
-17
-16
-15
-13
-12
-10
-9
-7
-7
-6
-5
-5
-5
-6
-6
-8
-9
-9
-10
-11
-12
-14
-15
-16
-17
-18
-19
-20
-21
-21
-23
-23
-24
-24
-25
-25
-26
-26
-26
-26
-27
-27
-27
-27
-27
-27
-27
-27
-27
-27
-27
-27
-27
-27
-26
-27
-27
-27
-27
-27
-27
-27
-26
-26
-26
-26
-26
-26
-24
-24
-24
-24
-23
-23
-23
-23
-21
-21
-21
-21
-20
-19
-19
-19
-19
-18
-18
-18
-18
-19
-19
-19
-18
-18
-18
-18
-18
-18
-18
-17
-17
-16
-16
-16
-16
-16
-15
-15
-14
-14
-13
-13
-13
-11
-11
-11
-11
-9
-9
-9
-8
-7
-6
-6
-5
-4
-3
-2
-2
-1
0
1
1
2
3
4
5
6
6
7
7
8
9
10
10
11
11
11
12
13
13
14
14
15
15
15
16
16
17
18
18
18
18
19
20
20
21
21
22
22
23
23
23
24
24
25
26
26
27
27
27
29
29
29
30
31
32
32
32
33
34
35
35
36
37
38
38
40
40
41
41
42
43
43
44
44
45
47
47
47
48
50
51
51
52
53
54
55
56
57
57
58
59
60
61
62
62
63
63
64
65
65
66
66
67
67
68
68
69
69
70
70
71
71
72
72
72
73
73
75
75
76
76
76
77
77
78
78
78
79
79
79
80
80
80
80
80
81
81
81
81
81
81
81
80
80
80
80
80
79
78
78
77
76
76
75
74
73
72
71
69
68
67
66
64
62
61
60
58
55
54
52
50
49
46
44
42
40
38
36
34
32
30
28
26
25
22
20
19
16
15
13
12
10
8
6
4
3
1
1
-1
-2
-4
-5
-7
-8
-10
-10
-11
-13
-13
-14
-15
-17
-17
-19
-19
-20
-20
-21
-23
-23
-24
-24
-24
-25
-25
-26
-26
-26
-27
-28
-28
-28
-29
-29
-29
-29
-30
-30
-30
-31
-31
-31
-30
-31
-31
-31
-31
-31
-31
-31
-31
-32
-32
-32
-32
-32
-33
-33
-32
-33
-33
-33
-33
-34
-34
-34
-34
-35
-35
-35
-35
-35
-35
-35
-35
-35
-35
-35
-35
-36
-35
-35
-35
-35
-36
-36
-36
-36
-37
-37
-37
-38
-38
-38
-39
-39
-39
-39
-40
-40
-39
-39
-39
-40
-40
-40
-40
-40
-41
-41
-41
-40
-40
-41
-41
-41
-41
-42
-42
-42
-41
-41
-42
-42
-42
-42
-41
-41
-42
-42
-42
-42
-42
-41
-42
-42
-42
-42
-43
-42
-42
-42
-43
-43
-42
-42
-43
-43
-43
-44
-44
-44
-45
-45
-45
-45
-46
-46
-46
-46
-46
-46
-46
-47
-47
-47
-47
-46
-46
-46
-46
-46
-46
-46
-45
-45
-45
-45
-45
-45
-46
-46
-46
-46
-46
-47
-47
-47
-47
-48
-47
-47
-48
-48
-48
-49
-49
-49
-49
-50
-50
-50
-50
-50
-51
-51
-51
-51
-51
-51
-51
-52
-52
-52
-52
-53
-52
-52
-52
-53
-53
-53
-53
-53
-53
-53
-54
-54
-54
-54
-54
-53
-54
-54
-54
-54
-54
-54
-54
-54
-55
-55
-55
-55
-55
-55
-55
-55
-55
-55
-55
-56
-56
-56
-55
-55
-55
-55
-56
-55
-55
-55
-56
-55
-56
-56
-56
-57
-57
-56
-57
-57
-57
-57
-58
-58
-58
-58
-58
-59
-59
-59
-59
-59
-59
-59
-59
-59
-58
-58
-58
-58
-59
-59
-58
-58
-58
-59
-59
-59
-59
-60
-59
-59
-59
-60
-60
-60
-60
-60
-60
-61
-61
-60
-60
-60
-60
-60
-60
-60
-60
-60
-60
-59
-59
-60
-60
-60
-60
-61
-61
-60
-61
-61
-61
-62
-62
-62
-63
-62
-62
-63
-63
-64
-64
-64
-64
-64
-64
-64
-65
-65
-65
-66
-66
-66
-67
-66
-66
-66
-67
-67
-67
-67
-68
-68
-68
-67
-68
-68
-68
-67
-67
-67
-68
-68
-68
-68
-68
-68
-68
-68
-68
-68
-68
-68
-68
-68
-68
-67
-67
-66
-66
-66
-66
-64
-64
-64
-64
-63
-63
-62
-62
-62
-61
-61
-61
-61
-61
-60
-60
-59
-59
-59
-59
-59
-59
-59
-59
-59
-59
-60
-60
-60
-60
-60
-61
-60
-60
-61
-61
-61
-61
-61
-62
-62
-62
-62
-63
-62
-62
-62
-63
-62
-62
-62
-62
-62
-63
-63
-63
-63
-63
-63
-62
-62
-63
-63
-63
-64
-64
-64
-63
-64
-64
-64
-64
-64
-65
-64
-64
-64
-64
-64
-64
-63
-63
-63
-63
-63
-62
-62
-62
-62
-62
-61
-61
-61
-60
-60
-59
-59
-59
-59
-59
-59
-59
-59
-59
-59
-60
-60
-60
-60
-60
-60
-61
-61
-61
-62
-62
-61
-61
-62
-62
-62
-62
-61
-61
-62
-62
-62
-62
-62
-62
-63
-63
-63
-63
-63
-63
-63
-63
-64
-64
-64
-65
-65
-65
-65
-65
-65
-66
-66
-66
-67
-66
-66
-67
-67
-67
-68
-68
-67
-68
-68
-68
-68
-68
-68
-68
-67
-68
-68
-67
-67
-67
-66
-67
-67
-66
-65
-66
-66
-65
-65
-66
-65
-65
-64
-65
-65
-65
-64
-64
-64
-64
-64
-63
-63
-63
-62
-62
-62
-61
-60
-59
-59
-59
-58
-57
-57
-56
-56
-55
-55
-55
-54
-54
-53
-53
-53
-54
-54
-54
-55
-54
-55
-55
-56
-56
-57
-57
-57
-58
-58
-59
-60
-60
-61
-61
-62
-62
-63
-63
-64
-64
-64
-65
-65
-65
-65
-65
-66
-66
-66
-67
-67
-67
-68
-68
-68
-70
-70
-70
-71
-71
-71
-72
-72
-72
-72
-74
-74
-74
-75
-75
-76
-76
-76
-77
-77
-77
-79
-79
-79
-79
-79
-79
-79
-78
-79
-79
-79
-79
-78
-78
-77
-77
-77
-76
-76
-76
-75
-75
-75
-75
-74
-74
-74
-74
-74
-73
-73
-73
-74
-74
-74
-74
-74
-75
-75
-75
-75
-75
-75
-75
-75
-75
-76
-76
-76
-76
-76
-76
-76
-76
-76
-77
-77
-76
-76
-76
-77
-77
-77
-77
-76
-76
-76
-76
-76
-76
-76
-76
-76
-76
-76
-75
-75
-75
-75
-74
-74
-74
-75
-74
-74
-73
-74
-73
-72
-70
-69
-68
-66
-63
-60
-57
-52
-48
-41
-35
-27
-18
-10
1
12
25
38
53
68
85
102
120
139
158
178
198
220
241
264
286
310
334
357
381
405
429
453
477
499
521
541
559
574
587
597
602
605
603
597
587
574
556
534
509
481
449
416
381
344
306
268
232
195
160
127
96
68
44
22
2
-14
-29
-39
-49
-55
-60
-63
-66
-65
-66
-65
-64
-63
-61
-60
-58
-56
-55
-54
-53
-53
-52
-52
-52
-52
-52
-53
-53
-54
-54
-56
-57
-57
-58
-59
-59
-61
-61
-62
-62
-63
-63
-64
-65
-66
-66
-66
-67
-67
-66
-66
-67
-67
-67
-67
-68
-68
-67
-67
-67
-68
-68
-68
-68
-68
-68
-68
-68
-68
-69
-68
-68
-68
-68
-68
-68
-68
-68
-68
-67
-67
-67
-66
-65
-65
-65
-64
-64
-63
-62
-62
-61
-61
-60
-60
-59
-59
-59
-58
-57
-57
-57
-57
-57
-55
-55
-55
-55
-54
-54
-53
-52
-52
-52
-52
-50
-50
-50
-50
-49
-49
-49
-48
-48
-48
-47
-46
-46
-46
-45
-45
-44
-44
-43
-43
-42
-42
-41
-41
-40
-40
-39
-39
-38
-38
-37
-36
-36
-36
-35
-34
-34
-33
-33
-33
-32
-31
-31
-30
-30
-29
-29
-28
-28
-28
-26
-26
-25
-25
-24
-23
-22
-22
-21
-20
-19
-19
-18
-17
-17
-15
-15
-13
-13
-13
-13
-11
-10
-10
-8
-8
-7
-6
-5
-5
-4
-3
-3
-2
-1
0
0
2
2
3
3
5
5
6
6
7
8
8
8
9
10
10
10
11
12
12
13
13
14
14
15
16
16
17
17
18
19
19
20
21
21
22
22
23
24
24
25
26
26
27
26
27
28
28
29
30
30
31
30
31
31
32
32
32
33
33
34
33
34
34
34
34
34
34
35
34
34
33
34
34
33
33
32
32
32
32
31
31
30
29
29
28
27
26
25
25
23
22
22
20
19
18
17
15
14
12
12
11
9
8
6
5
4
3
1
-1
-3
-4
-6
-7
-9
-11
-12
-14
-16
-17
-20
-22
-23
-25
-27
-28
-30
-32
-33
-35
-36
-37
-39
-40
-42
-43
-45
-45
-47
-48
-49
-50
-52
-52
-53
-55
-56
-57
-59
-60
-61
-62
-63
-64
-66
-67
-67
-68
-69
-70
-71
-72
-72
-73
-73
-74
-74
-75
-75
-75
-76
-76
-77
-77
-78
-78
-78
-79
-79
-80
-81
-82
-82
-82
-82
-83
-82
-82
-82
-82
-82
-82
-82
-82
-82
-82
-82
-82
-82
-82
-82
-82
-82
-82
-82
-82
-82
-82
-81
-81
-81
-81
-81
-81
-81
-80
-80
-80
-80
-80
-80
-79
-79
-79
-79
-79
-79
-78
-78
-78
-77
-77
-77
-77
-78
-77
-77
-77
-77
-77
-77
-76
-76
-76
-76
-77
-77
-77
-78
-78
-78
-78
-78
-78
-79
-79
-80
-80
-81
-81
-81
-82
-82
-83
-83
-83
-84
-84
-85
-85
-85
-85
-86
-85
-86
-86
-86
-87
-87
-87
-87
-87
-87
-87
-88
-88
-88
-89
-89
-89
-90
-90
-89
-89
-90
-90
-91
-91
-92
-92
-93
-93
-94
-94
-95
-95
-96
-96
-97
-97
-98
-98
-99
-99
-100
-100
-100
-101
-100
-100
-101
-101
-102
-102
-102
-103
-103
-104
-104
-104
-105
-105
-106
-106
-106
-106
-106
-107
-107
-107
-107
-108
-108
-109
-109
-109
-109
-109
-109
-109
-109
-109
-108
-108
-108
-108
-107
-107
-106
-106
-106
-106
-106
-106
-106
-106
-105
-105
-105
-105
-105
-105
-105
-105
-105
-105
-105
-105
-105
-106
-106
-106
-106
-107
-107
-107
-107
-108
-108
-108
-108
-109
-109
-109
-110
-110
-110
-111
-111
-111
-112
-112
-112
-113
-113
-113
-114
-113
-113
-113
-114
-114
-114
-114
-115
-115
-114
-114
-115
-115
-115
-115
-115
-115
-116
-116
-116
-116
-116
-116
-116
-116
-116
-116
-116
-116
-116
-116
-116
-116
-116
-116
-116
-116
-116
-116
-115
-115
-115
-115
-115
-115
-114
-114
-114
-114
-114
-114
-114
-114
-114
-114
-112
-112
-112
-112
-112
-111
-111
-111
-111
-110
-110
-110
-110
-110
-110
-110
-110
-110
-110
-110
-110
-111
-111
-111
-112
-112
-111
-112
-112
-112
-112
-113
-113
-113
-113
-114
-114
-113
-114
-114
-114
-115
-115
-115
-116
-116
-116
-116
-116
-116
-116
-116
-117
-117
-117
-117
-117
-117
-117
-117
-118
-118
-118
-118
-118
-117
-117
-118
-118
-118
-118
-118
-117
-117
-117
-117
-117
-116
-116
-116
-116
-116
-116
-116
-116
-116
-116
-116
-117
-117
-117
-117
-117
-117
-117
-118
-117
-117
-118
-118
-118
-119
-118
-118
-119
-119
-120
-120
-120
-121
-121
-121
-121
-122
-122
-122
-122
-122
-122
-122
-122
-122
-122
-122
-122
-122
-121
-121
-121
-120
-120
-120
-119
-119
-119
-119
-119
-119
-119
-118
-118
-118
-118
-118
-119
-119
-119
-119
-119
-119
-119
-119
-120
-120
-120
-121
-121
-121
-121
-121
-121
-121
-121
-121
-121
-121
-122
-122
-122
-122
-122
-122
-122
-122
-122
-122
-122
-123
-123
-123
-124
-124
-123
-123
-124
-124
-124
-125
-125
-125
-126
-126
-126
-125
-126
-126
-126
-126
-126
-126
-126
-126
-126
-125
-125
-125
-125
-125
-125
-124
-124
-124
-124
-124
-124
-124
-124
-124
-124
-124
-125
-125
-124
-124
-124
-124
-124
-125
-125
-125
-125
-125
-125
-125
-125
-125
-124
-124
-124
-124
-123
-123
-123
-123
-122
-121
-121
-121
-121
-121
-120
-120
-120
-119
-119
-119
-118
-118
-118
-118
-118
-117
-117
-117
-117
-116
-116
-116
-116
-115
-115
-115
-115
-114
-114
-114
-114
-114
-114
-113
-113
-113
-112
-112
-112
-112
-112
-112
-111
-111
-111
-110
-109
-109
-109
-108
-108
-107
-108
-107
-107
-106
-107
-107
-106
-107
-106
-107
-107
-108
-108
-109
-109
-108
-110
-110
-110
-110
-110
-110
-111
-111
-111
-111
-111
-111
-112
-112
-111
-112
-112
-111
-112
-113
-112
-112
-113
-114
-114
-115
-115
-116
-115
-116
-117
-118
-118
-118
-118
-119
-119
-120
-121
-121
-121
-122
-122
-122
-122
-122
-122
-123
-123
-123
-123
-123
-123
-123
-123
-122
-122
-122
-122
-123
-123
-123
-123
-123
-123
-123
-123
-124
-124
-124
-125
-125
-125
-125
-126
-126
-126
-126
-126
-127
-127
-127
-127
-127
-127
-127
-127
-127
-128
-128
-128
-128
-128
-128
-128
-128
-128
-128
-128
-128
-128
-128
-128
-127
-127
-127
-127
-127
-127
-127
-127
-127
-127
-127
-127
-127
-127
-127
-127
-127
-127
-127
-127
-127
-127
-126
-126
-125
-125
-125
-125
-125
-125
-126
-126
-125
-125
-125
-124
-124
-123
-121
-121
-118
-116
-113
-110
-106
-101
-95
-89
-81
-73
-65
-54
-42
-30
-17
-3
12
28
45
62
80
99
119
138
159
178
201
222
244
267
289
312
335
358
380
403
425
447
467
485
501
515
525
533
536
536
533
525
514
498
480
458
433
404
374
342
307
272
236
201
166
132
100
69
41
16
-7
-26
-45
-58
-71
-80
-87
-93
-97
-100
-101
-101
-102
-101
-100
-98
-97
-96
-94
-93
-93
-92
-92
-92
-92
-92
-93
-93
-95
-95
-96
-97
-98
-99
-100
-101
-102
-103
-104
-105
-106
-107
-107
-107
-108
-108
-108
-109
-109
-109
-110
-110
-110
-110
-110
-110
-110
-110
-110
-109
-109
-108
-108
-108
-108
-107
-107
-107
-107
-106
-105
-105
-104
-104
-104
-103
-103
-103
-102
-102
-102
-102
-102
-101
-101
-101
-100
-100
-100
-100
-100
-100
-100
-100
-100
-99
-99
-99
-99
-99
-99
-100
-99
-99
-99
-99
-99
-99
-99
-99
-99
-99
-99
-99
-97
-97
-97
-97
-97
-96
-96
-95
-95
-95
-94
-93
-93
-93
-92
-91
-90
-90
-89
-88
-88
-87
-87
-87
-86
-86
-85
-85
-84
-83
-83
-82
-82
-81
-81
-80
-79
-79
-79
-77
-77
-76
-75
-74
-74
-73
-72
-71
-70
-70
-69
-68
-67
-66
-66
-64
-64
-64
-63
-63
-61
-61
-61
-61
-60
-60
-59
-59
-58
-57
-57
-57
-56
-55
-55
-55
-55
-54
-54
-53
-52
-51
-51
-51
-50
-51
-50
-50
-49
-49
-48
-48
-47
-47
-46
-45
-44
-44
-44
-43
-42
-41
-41
-40
-39
-39
-39
-37
-36
-36
-36
-34
-34
-33
-33
-31
-31
-30
-29
-29
-28
-28
-26
-25
-25
-24
-23
-23
-22
-22
-20
-19
-19
-18
-18
-17
-17
-15
-15
-14
-14
-14
-13
-13
-11
-11
-11
-10
-10
-9
-9
-9
-9
-7
-7
-7
-7
-6
-6
-7
-7
-7
-6
-6
-6
-6
-7
-7
-7
-8
-8
-8
-9
-9
-9
-10
-10
-11
-11
-11
-13
-13
-13
-13
-15
-15
-16
-17
-17
-19
-19
-21
-22
-23
-24
-25
-27
-29
-30
-31
-33
-35
-36
-38
-39
-41
-42
-44
-46
-49
-50
-52
-54
-55
-57
-59
-62
-63
-65
-66
-68
-70
-72
-74
-75
-77
-78
-80
-81
-83
-84
-86
-86
-88
-89
-90
-92
-93
-95
-95
-97
-98
-98
-99
-101
-102
-102
-104
-105
-105
-106
-106
-107
-107
-108
-109
-109
-110
-111
-111
-112
-112
-113
-113
-113
-113
-115
-115
-115
-115
-115
-115
-115
-115
-116
-116
-116
-116
-115
-115
-115
-115
-114
-114
-114
-113
-113
-113
-112
-112
-112
-111
-110
-110
-110
-109
-109
-109
-109
-108
-108
-108
-108
-108
-108
-107
-107
-107
-107
-107
-107
-107
-107
-107
-107
-107
-107
-107
-108
-108
-108
-108
-108
-108
-108
-108
-108
-108
-108
-108
-108
-108
-108
-108
-108
-108
-108
-108
-108
-108
-108
-108
-108
-108
-108
-108
-108
-108
-109
-109
-109
-109
-110
-110
-110
-110
-110
-110
-110
-110
-110
-110
-111
-111
-111
-111
-111
-111
-111
-111
-111
-111
-110
-110
-110
-110
-110
-110
-110
-110
-110
-110
-110
-110
-110
-111
-111
-111
-111
-111
-111
-111
-111
-111
-111
-112
-112
-112
-112
-112
-112
-112
-113
-113
-113
-113
-113
-114
-114
-114
-114
-114
-114
-114
-115
-115
-116
-116
-116
-116
-116
-117
-117
-118
-118
-119
-119
-119
-120
-120
-120
-121
-121
-121
-121
-122
-122
-122
-122
-123
-123
-123
-123
-123
-123
-123
-123
-123
-123
-123
-123
-123
-124
-124
-124
-124
-124
-124
-124
-124
-124
-124
-124
-124
-124
-124
-122
-122
-122
-122
-122
-122
-122
-122
-121
-120
-120
-120
-120
-120
-120
-120
-119
-119
-119
-119
-119
-119
-119
-119
-119
-119
-119
-120
-120
-120
-120
-120
-120
-119
-119
-119
-120
-120
-120
-120
-120
-120
-120
-120
-120
-120
-120
-121
-120
-120
-121
-121
-122
-122
-122
-123
-123
-124
-124
-125
-124
-125
-125
-126
-126
-126
-127
-127
-127
-127
-127
-127
-127
-127
-129
-129
-129
-129
-128
-128
-128
-128
-128
-129
-130
-130
-130
-129
-129
-130
-130
-129
-129
-129
-129
-129
-129
-129
-129
-129
-129
-129
-129
-129
-129
-130
-130
-130
-130
-130
-130
-130
-130
-130
-130
-130
-130
-130
-130
-130
-130
-129
-129
-129
-129
-129
-129
-128
-128
-128
-128
-128
-128
-128
-128
-128
-128
-128
-128
-128
-128
-128
-128
-128
-128
-127
-127
-127
-127
-128
-128
-129
-128
-128
-128
-128
-127
-127
-127
-127
-127
-127
-127
-127
-126
-126
-126
-126
-126
-126
-125
-125
-125
-125
-125
-125
-125
-125
-125
-125
-125
-125
-125
-125
-125
-125
-125
-125
-125
-125
-125
-125
-125
-125
-126
-126
-126
-126
-126
-126
-126
-126
-126
-126
-126
-126
-126
-126
-126
-126
-126
-126
-124
-124
-124
-124
-123
-123
-123
-123
-122
-122
-122
-122
-122
-122
-122
-121
-121
-121
-121
-121
-122
-122
-122
-122
-123
-123
-124
-123
-123
-124
-124
-124
-124
-125
-125
-126
-126
-126
-126
-126
-126
-126
-126
-126
-126
-126
-126
-125
-125
-125
-126
-126
-126
-126
-125
-125
-125
-125
-125
-125
-125
-125
-125
-125
-125
-125
-126
-126
-126
-126
-126
-126
-126
-126
-126
-126
-127
-128
-128
-128
-128
-129
-129
-128
-128
-128
-128
-129
-129
-129
-129
-129
-129
-129
-129
-129
-129
-128
-128
-128
-128
-128
-128
-127
-127
-127
-127
-126
-126
-126
-126
-126
-126
-125
-125
-124
-124
-123
-123
-122
-121
-121
-120
-119
-119
-118
-117
-117
-117
-115
-115
-115
-114
-114
-113
-113
-113
-112
-112
-112
-111
-111
-111
-110
-111
-111
-110
-110
-110
-109
-110
-109
-109
-109
-109
-108
-109
-108
-108
-108
-108
-107
-108
-108
-108
-109
-108
-109
-109
-109
-109
-109
-110
-110
-110
-110
-112
-112
-112
-112
-111
-111
-111
-111
-112
-111
-112
-112
-111
-111
-112
-111
-111
-111
-111
-111
-111
-111
-111
-111
-111
-111
-111
-112
-111
-112
-112
-112
-113
-112
-112
-113
-113
-113
-114
-114
-114
-114
-115
-115
-116
-116
-116
-117
-117
-119
-119
-119
-120
-120
-122
-122
-123
-123
-124
-125
-125
-125
-126
-127
-127
-128
-128
-128
-129
-129
-129
-129
-129
-130
-131
-131
-131
-131
-131
-131
-131
-131
-131
-131
-131
-131
-130
-130
-130
-130
-130
-130
-129
-129
-129
-129
-129
-128
-128
-128
-128
-128
-128
-128
-127
-127
-127
-127
-126
-126
-126
-126
-125
-125
-125
-124
-124
-124
-123
-123
-123
-122
-122
-121
-121
-121
-121
-121
-121
-120
-121
-122
-121
-122
-121
-121
-119
-119
-118
-116
-115
-112
-110
-106
-102
-97
-91
-84
-77
-67
-57
-46
-35
-22
-7
8
24
41
59
76
96
115
135
157
177
199
220
244
267
290
313
337
359
383
407
429
452
474
495
514
532
545
557
565
569
571
567
561
550
536
518
496
469
441
410
377
341
305
267
231
194
158
123
90
61
33
7
-14
-33
-50
-63
-74
-83
-89
-94
-97
-99
-100
-100
-100
-99
-98
-97
-96
-94
-93
-91
-90
-90
-89
-89
-90
-90
-90
-90
-91
-92
-92
-93
-94
-94
-95
-97
-98
-99
-99
-100
-101
-102
-103
-104
-104
-105
-105
-106
-107
-108
-108
-108
-109
-109
-109
-110
-110
-110
-110
-110
-110
-110
-110
-110
-110
-110
-110
-109
-109
-109
-108
-107
-107
-106
-106
-105
-105
-105
-104
-103
-103
-102
-102
-102
-102
-101
-101
-101
-101
-101
-101
-101
-101
-101
-101
-101
-101
-101
-100
-100
-100
-100
-100
-99
-99
-99
-99
-99
-97
-97
-97
-97
-96
-95
-95
-94
-94
-93
-93
-93
-91
-91
-90
-90
-90
-89
-89
-89
-88
-88
-88
-87
-87
-86
-86
-85
-85
-85
-84
-83
-83
-82
-82
-82
-81
-80
-79
-79
-78
-78
-76
-75
-75
-74
-72
-72
-71
-70
-70
-69
-68
-66
-65
-65
-64
-62
-62
-61
-60
-60
-58
-57
-57
-55
-55
-55
-54
-54
-53
-53
-52
-52
-52
-51
-51
-51
-51
-50
-50
-50
-49
-49
-48
-48
-48
-46
-46
-46
-44
-44
-44
-42
-42
-41
-40
-39
-38
-38
-37
-37
-36
-35
-35
-33
-33
-32
-32
-31
-30
-30
-29
-28
-27
-27
-26
-25
-24
-23
-22
-22
-21
-20
-19
-19
-18
-18
-17
-17
-15
-15
-14
-14
-13
-13
-13
-12
-13
-12
-12
-11
-11
-10
-10
-10
-10
-9
-9
-9
-8
-9
-8
-8
-8
-7
-7
-6
-6
-6
-6
-5
-5
-5
-5
-5
-4
-4
-4
-4
-3
-3
-3
-2
-3
-3
-3
-3
-3
-3
-3
-3
-4
-4
-5
-5
-6
-6
-8
-8
-9
-10
-11
-12
-13
-14
-16
-16
-18
-19
-20
-21
-23
-24
-26
-28
-29
-30
-32
-33
-35
-36
-38
-39
-41
-43
-44
-45
-47
-49
-50
-52
-54
-56
-56
-58
-59
-61
-63
-64
-66
-67
-68
-69
-71
-73
-73
-74
-76
-78
-78
-79
-81
-81
-82
-84
-85
-85
-86
-88
-88
-89
-90
-90
-92
-92
-93
-93
-94
-94
-95
-95
-96
-96
-96
-96
-96
-96
-97
-96
-96
-96
-96
-95
-96
-96
-96
-96
-95
-95
-95
-95
-95
-96
-96
-96
-96
-96
-96
-96
-97
-97
-97
-97
-96
-96
-96
-96
-96
-96
-96
-95
-95
-94
-94
-94
-93
-93
-93
-93
-92
-92
-92
-92
-92
-91
-91
-91
-91
-91
-91
-92
-92
-92
-92
-92
-92
-92
-92
-93
-93
-93
-93
-94
-94
-94
-94
-94
-95
-95
-95
-95
-96
-96
-96
-96
-96
-95
-95
-96
-96
-96
-96
-96
-96
-96
-96
-96
-96
-97
-97
-97
-97
-97
-97
-97
-97
-97
-97
-98
-98
-98
-99
-99
-99
-99
-99
-99
-100
-100
-100
-101
-101
-102
-102
-102
-103
-103
-103
-104
-104
-104
-104
-104
-105
-105
-105
-104
-104
-104
-104
-104
-104
-104
-103
-103
-104
-104
-104
-104
-104
-105
-105
-105
-105
-105
-105
-105
-106
-106
-107
-107
-107
-107
-107
-107
-107
-107
-107
-107
-107
-107
-107
-107
-107
-107
-107
-107
-106
-106
-106
-106
-106
-106
-106
-106
-106
-106
-106
-106
-106
-106
-107
-107
-107
-107
-107
-107
-107
-107
-108
-108
-108
-108
-108
-108
-108
-108
-108
-109
-109
-109
-109
-109
-109
-108
-108
-108
-108
-108
-108
-108
-107
-107
-107
-107
-107
-107
-107
-107
-106
-106
-106
-106
-106
-106
-106
-106
-106
-107
-107
-106
-106
-106
-106
-107
-107
-107
-107
-107
-107
-107
-107
-107
-107
-107
-107
-107
-107
-107
-107
-108
-108
-108
-108
-108
-107
-107
-107
-107
-107
-107
-107
-107
-107
-107
-107
-107
-107
-107
-107
-107
-108
-108
-107
-107
-108
-108
-108
-108
-109
-109
-109
-110
-111
-111
-111
-111
-112
-112
-112
-112
-112
-112
-112
-113
-113
-113
-113
-113
-113
-113
-113
-113
-113
-113
-113
-113
-113
-113
-113
-113
-113
-114
-114
-114
-114
-114
-114
-114
-114
-115
-115
-115
-115
-115
-115
-115
-115
-115
-115
-115
-115
-115
-115
-115
-115
-115
-114
-114
-114
-113
-113
-113
-113
-112
-112
-111
-111
-110
-110
-109
-109
-108
-107
-107
-107
-106
-106
-106
-106
-106
-106
-106
-106
-106
-106
-107
-107
-107
-107
-108
-108
-108
-108
-108
-109
-109
-110
-110
-110
-111
-111
-111
-112
-112
-112
-112
-112
-113
-113
-113
-113
-113
-113
-113
-113
-114
-114
-114
-114
-114
-114
-114
-114
-114
-114
-114
-114
-114
-114
-114
-114
-114
-114
-114
-114
-114
-114
-114
-114
-114
-114
-114
-114
-114
-115
-115
-115
-115
-115
-115
-115
-115
-115
-115
-115
-116
-116
-116
-116
-116
-116
-116
-116
-116
-116
-116
-116
-116
-116
-116
-116
-115
-115
-114
-113
-113
-113
-112
-111
-111
-111
-111
-109
-109
-109
-108
-107
-107
-106
-106
-105
-104
-103
-103
-103
-102
-102
-100
-100
-100
-99
-98
-98
-97
-96
-96
-95
-95
-94
-94
-93
-93
-91
-91
-90
-90
-89
-90
-90
-89
-89
-89
-89
-89
-89
-89
-89
-89
-89
-90
-90
-91
-91
-90
-91
-91
-92
-92
-93
-93
-93
-93
-93
-93
-94
-94
-94
-94
-94
-95
-95
-96
-96
-95
-96
-96
-97
-97
-97
-98
-99
-98
-99
-99
-99
-100
-100
-100
-100
-100
-101
-100
-101
-100
-100
-101
-100
-101
-101
-101
-102
-102
-102
-103
-103
-104
-105
-105
-105
-107
-107
-108
-108
-109
-110
-110
-111
-112
-112
-113
-113
-113
-113
-113
-114
-115
-115
-115
-115
-115
-115
-115
-114
-114
-115
-115
-115
-115
-115
-115
-114
-115
-115
-115
-115
-115
-115
-115
-114
-114
-114
-114
-114
-114
-114
-113
-113
-113
-113
-113
-113
-113
-113
-113
-113
-113
-112
-112
-112
-112
-112
-112
-112
-111
-111
-111
-111
-111
-110
-110
-110
-110
-110
-110
-110
-109
-110
-109
-109
-109
-108
-108
-107
-106
-104
-102
-99
-97
-93
-89
-84
-78
-70
-61
-52
-42
-30
-18
-4
12
27
44
61
81
100
120
140
161
183
205
227
252
275
299
323
347
372
397
420
445
470
493
517
538
559
577
591
603
612
616
617
614
607
596
580
560
538
510
479
447
412
374
336
296
257
219
183
146
113
81
52
27
5
-15
-31
-44
-55
-64
-70
-74
-77
-79
-79
-79
-78
-77
-75
-74
-73
-71
-69
-69
-68
-67
-68
-67
-67
-67
-68
-69
-69
-70
-71
-72
-73
-74
-75
-75
-76
-76
-78
-78
-79
-80
-80
-80
-82
-82
-82
-82
-83
-83
-83
-84
-84
-84
-84
-84
-84
-84
-85
-85
-85
-85
-85
-85
-85
-85
-84
-85
-85
-85
-85
-85
-85
-85
-85
-84
-84
-84
-84
-84
-84
-83
-83
-83
-83
-82
-81
-81
-80
-80
-80
-79
-79
-78
-78
-77
-76
-76
-75
-75
-74
-74
-74
-73
-73
-72
-72
-72
-72
-71
-70
-71
-71
-70
-69
-69
-68
-68
-68
-67
-67
-67
-65
-65
-65
-65
-64
-64
-64
-63
-62
-62
-61
-61
-60
-60
-59
-59
-58
-57
-57
-56
-57
-55
-55
-54
-54
-53
-53
-52
-52
-51
-50
-49
-48
-48
-47
-46
-46
-45
-43
-43
-42
-42
-41
-40
-40
-38
-37
-37
-36
-36
-35
-34
-33
-32
-32
-31
-31
-29
-29
-28
-28
-26
-26
-25
-24
-23
-23
-23
-21
-21
-20
-19
-19
-19
-18
-17
-17
-16
-15
-15
-14
-13
-12
-12
-12
-10
-10
-10
-9
-8
-8
-7
-6
-5
-5
-4
-4
-2
-2
-1
-1
0
1
2
2
3
3
4
4
6
6
6
7
8
8
9
9
10
10
11
12
13
13
14
14
14
15
15
15
16
16
16
17
17
17
18
18
18
20
20
20
20
20
21
22
22
22
23
23
23
24
24
24
24
25
24
25
25
25
26
25
25
25
25
24
24
24
23
23
22
21
21
19
19
18
16
16
14
12
11
10
9
7
5
3
3
1
-1
-2
-4
-5
-6
-8
-10
-11
-12
-14
-16
-17
-18
-20
-22
-24
-25
-26
-28
-30
-32
-33
-35
-36
-38
-40
-42
-43
-45
-47
-49
-50
-51
-52
-54
-55
-57
-58
-60
-60
-62
-63
-65
-65
-67
-67
-68
-70
-70
-71
-72
-73
-73
-74
-75
-76
-76
-76
-77
-77
-79
-79
-79
-79
-80
-80
-80
-80
-80
-81
-81
-81
-81
-82
-82
-81
-81
-81
-81
-81
-81
-81
-81
-80
-80
-80
-79
-80
-80
-79
-79
-79
-79
-79
-79
-79
-79
-78
-78
-78
-78
-78
-79
-79
-79
-79
-79
-79
-79
-79
-79
-79
-79
-79
-78
-78
-78
-79
-79
-79
-79
-79
-79
-79
-79
-79
-80
-80
-79
-79
-79
-79
-80
-80
-80
-80
-80
-80
-80
-79
-79
-79
-79
-79
-79
-79
-79
-79
-79
-79
-79
-79
-78
-78
-78
-78
-79
-79
-79
-79
-79
-79
-80
-80
-80
-80
-80
-80
-80
-80
-80
-79
-79
-79
-79
-79
-79
-78
-78
-79
-79
-79
-78
-78
-78
-78
-78
-78
-78
-78
-79
-79
-79
-80
-80
-80
-80
-80
-80
-81
-81
-81
-82
-82
-82
-83
-83
-84
-84
-84
-84
-84
-85
-86
-86
-86
-86
-86
-86
-87
-88
-88
-88
-88
-88
-88
-89
-89
-89
-89
-89
-89
-89
-89
-89
-89
-89
-89
-89
-90
-90
-90
-89
-89
-90
-90
-90
-90
-90
-90
-90
-90
-91
-91
-91
-91
-91
-90
-91
-91
-91
-90
-90
-90
-89
-89
-90
-89
-89
-89
-89
-88
-88
-88
-88
-87
-87
-87
-87
-87
-87
-87
-87
-87
-87
-87
-88
-88
-88
-88
-88
-88
-88
-87
-88
-88
-88
-88
-88
-88
-88
-88
-88
-88
-88
-88
-88
-88
-88
-88
-88
-88
-88
-88
-88
-89
-89
-89
-89
-89
-89
-89
-89
-91
-91
-91
-91
-91
-91
-91
-91
-91
-92
-92
-92
-92
-92
-92
-92
-92
-92
-92
-92
-93
-93
-93
-93
-93
-93
-93
-93
-93
-94
-93
-93
-93
-93
-93
-93
-92
-93
-93
-93
-93
-92
-92
-93
-93
-93
-92
-92
-92
-92
-92
-91
-91
-91
-91
-90
-90
-90
-90
-89
-89
-89
-89
-89
-88
-88
-88
-88
-88
-88
-88
-87
-87
-88
-88
-88
-88
-88
-89
-89
-89
-89
-89
-89
-89
-90
-90
-90
-90
-90
-91
-91
-91
-92
-92
-92
-92
-92
-93
-93
-93
-93
-93
-94
-94
-94
-94
-94
-94
-94
-94
-94
-94
-94
-94
-95
-95
-95
-95
-95
-96
-97
-97
-97
-97
-98
-98
-98
-98
-98
-98
-98
-99
-99
-99
-99
-99
-99
-99
-100
-100
-100
-100
-100
-100
-100
-100
-100
-100
-100
-100
-100
-100
-100
-100
-100
-100
-100
-100
-100
-100
-100
-100
-100
-100
-100
-100
-100
-101
-101
-101
-101
-101
-101
-101
-101
-101
-101
-101
-101
-101
-101
-101
-101
-100
-100
-100
-100
-100
-100
-100
-100
-99
-99
-99
-99
-98
-98
-98
-98
-98
-97
-97
-97
-97
-96
-96
-96
-96
-95
-95
-96
-96
-95
-95
-95
-95
-94
-94
-94
-94
-94
-93
-93
-93
-93
-93
-93
-93
-92
-92
-92
-92
-92
-91
-91
-91
-91
-90
-90
-89
-89
-89
-89
-88
-87
-87
-86
-86
-86
-86
-85
-85
-85
-85
-84
-84
-84
-84
-82
-82
-82
-82
-81
-81
-80
-80
-80
-79
-79
-78
-78
-78
-77
-77
-76
-77
-77
-76
-76
-76
-76
-76
-77
-76
-77
-77
-77
-78
-78
-78
-79
-79
-79
-79
-79
-80
-80
-80
-81
-81
-81
-81
-81
-81
-81
-81
-82
-81
-81
-81
-82
-82
-82
-82
-81
-81
-82
-82
-81
-82
-82
-81
-82
-81
-82
-81
-82
-81
-82
-81
-81
-82
-81
-81
-81
-81
-83
-83
-83
-83
-83
-84
-84
-84
-86
-86
-86
-87
-87
-87
-88
-88
-89
-90
-90
-91
-91
-91
-92
-92
-93
-93
-94
-94
-94
-94
-96
-96
-96
-96
-96
-96
-96
-96
-96
-97
-97
-97
-96
-96
-96
-95
-95
-95
-94
-94
-94
-93
-93
-93
-92
-92
-92
-92
-91
-91
-91
-91
-90
-90
-90
-89
-89
-89
-88
-88
-88
-87
-87
-88
-87
-87
-86
-86
-85
-86
-85
-85
-84
-84
-83
-83
-83
-83
-82
-81
-80
-79
-78
-76
-74
-71
-68
-65
-60
-55
-49
-42
-34
-26
-16
-6
6
20
32
47
62
79
96
115
134
154
174
195
217
239
262
286
309
333
358
381
407
430
455
479
502
524
545
563
580
592
602
608
611
609
603
594
581
563
542
517
488
457
424
390
352
315
277
241
204
170
136
106
78
53
31
12
-5
-19
-30
-40
-47
-53
-56
-58
-59
-59
-58
-58
-57
-56
-54
-54
-52
-52
-51
-51
-50
-50
-51
-51
-52
-53
-53
-54
-56
-57
-58
-59
-60
-61
-62
-64
-65
-66
-67
-68
-69
-69
-71
-71
-72
-72
-72
-73
-73
-73
-73
-73
-73
-73
-73
-73
-73
-72
-72
-72
-72
-72
-72
-72
-72
-72
-71
-71
-71
-71
-71
-71
-72
-72
-72
-72
-72
-72
-72
-72
-73
-73
-73
-72
-72
-71
-71
-71
-71
-71
-70
-70
-70
-70
-69
-69
-69
-68
-67
-67
-67
-66
-66
-66
-65
-65
-65
-64
-64
-64
-63
-62
-61
-61
-60
-60
-60
-59
-58
-58
-57
-57
-56
-56
-54
-54
-53
-53
-51
-51
-50
-50
-49
-48
-48
-47
-46
-45
-45
-44
-44
-43
-43
-43
-42
-42
-41
-41
-41
-41
-39
-39
-39
-38
-38
-38
-37
-37
-37
-35
-35
-35
-34
-34
-33
-32
-32
-31
-31
-29
-29
-28
-28
-28
-26
-26
-25
-24
-24
-23
-22
-22
-21
-20
-19
-19
-17
-17
-16
-16
-15
-14
-13
-12
-11
-10
-10
-8
-8
-7
-7
-5
-5
-3
-3
-3
-1
-1
1
1
2
3
3
4
5
6
7
8
9
10
11
12
13
14
15
16
17
18
19
20
20
22
23
24
25
25
27
27
28
28
30
31
31
32
33
33
34
34
35
35
36
36
37
37
38
38
39
39
38
39
39
40
40
39
40
40
40
40
39
39
40
39
39
38
39
38
38
38
38
37
37
36
36
35
35
34
34
33
32
31
31
30
29
28
27
26
24
24
22
20
20
18
17
15
13
13
11
9
8
6
5
3
1
0
-1
-3
-4
-6
-8
-9
-11
-11
-13
-15
-16
-18
-20
-21
-21
-23
-25
-26
-27
-29
-31
-32
-34
-34
-36
-37
-38
-40
-41
-43
-44
-46
-47
-48
-50
-51
-52
-54
-55
-56
-57
-58
-60
-61
-62
-63
-64
-65
-66
-67
-68
-69
-70
-71
-71
-72
-72
-73
-75
-75
-76
-76
-76
-77
-77
-78
-78
-79
-79
-80
-80
-80
-81
-81
-82
-82
-81
-82
-82
-82
-83
-83
-83
-83
-83
-84
-83
-83
-83
-83
-83
-83
-83
-84
-84
-84
-84
-84
-85
-85
-85
-85
-85
-85
-85
-85
-85
-85
-85
-85
-85
-85
-85
-85
-85
-85
-84
-84
-84
-84
-84
-84
-84
-84
-82
-82
-82
-82
-81
-81
-81
-80
-79
-79
-79
-79
-78
-78
-78
-77
-76
-76
-76
-76
-76
-76
-76
-76
-76
-75
-75
-75
-76
-76
-76
-76
-77
-77
-77
-77
-77
-78
-78
-78
-78
-78
-78
-79
-79
-79
-79
-79
-79
-79
-79
-79
-79
-79
-79
-79
-80
-80
-80
-79
-80
-80
-80
-81
-81
-81
-82
-83
-84
-84
-84
-85
-85
-86
-86
-86
-86
-87
-87
-87
-86
-86
-86
-86
-87
-87
-87
-87
-87
-87
-87
-87
-87
-87
-87
-87
-87
-88
-87
-87
-88
-88
-88
-88
-88
-88
-89
-90
-90
-90
-90
-90
-90
-90
-91
-91
-91
-91
-91
-92
-92
-92
-92
-93
-93
-93
-93
-94
-94
-93
-93
-94
-94
-94
-94
-95
-95
-94
-94
-94
-95
-95
-95
-95
-95
-96
-96
-96
-96
-97
-97
-97
-97
-97
-98
-98
-97
-97
-97
-98
-98
-98
-98
-98
-100
-99
-99
-99
-99
-100
-100
-100
-100
-100
-101
-101
-101
-101
-101
-101
-101
-101
-101
-101
-102
-102
-102
-102
-102
-102
-103
-103
-103
-103
-103
-103
-104
-104
-104
-104
-103
-104
-104
-104
-104
-104
-104
-104
-105
-105
-105
-105
-105
-105
-105
-105
-105
-105
-105
-105
-106
-106
-106
-105
-105
-105
-105
-105
-105
-105
-105
-105
-106
-106
-106
-106
-106
-106
-106
-106
-106
-106
-106
-106
-106
-105
-106
-106
-106
-106
-106
-106
-107
-106
-106
-106
-107
-107
-107
-107
-108
-108
-108
-108
-109
-109
-109
-108
-109
-109
-109
-109
-109
-109
-109
-109
-109
-109
-109
-109
-109
-109
-108
-108
-108
-108
-108
-107
-107
-107
-107
-107
-107
-107
-107
-107
-107
-107
-107
-106
-106
-106
-106
-105
-105
-105
-104
-104
-104
-104
-103
-103
-102
-102
-102
-101
-101
-101
-101
-100
-100
-100
-100
-100
-100
-100
-101
-101
-101
-101
-102
-102
-101
-101
-102
-102
-102
-103
-103
-102
-103
-103
-103
-103
-104
-104
-103
-104
-104
-104
-104
-105
-105
-105
-104
-105
-105
-105
-105
-106
-106
-106
-107
-107
-107
-108
-107
-107
-108
-108
-108
-109
-109
-109
-109
-110
-110
-109
-109
-110
-110
-110
-110
-110
-110
-111
-111
-111
-111
-111
-111
-111
-111
-111
-111
-111
-111
-112
-112
-112
-111
-111
-111
-111
-112
-112
-112
-112
-112
-112
-112
-113
-113
-113
-113
-113
-113
-113
-113
-113
-113
-113
-113
-114
-114
-114
-114
-114
-115
-115
-115
-115
-115
-116
-115
-115
-115
-116
-116
-116
-116
-116
-117
-117
-117
-117
-116
-116
-117
-117
-117
-117
-117
-116
-116
-116
-116
-116
-115
-115
-115
-115
-114
-114
-113
-113
-112
-113
-113
-112
-112
-112
-111
-111
-111
-111
-110
-111
-111
-110
-110
-110
-110
-109
-110
-110
-109
-109
-108
-108
-108
-107
-107
-106
-105
-104
-104
-104
-103
-102
-101
-101
-100
-99
-99
-99
-98
-97
-97
-97
-97
-97
-96
-96
-96
-96
-96
-96
-97
-96
-96
-97
-97
-97
-98
-98
-98
-99
-99
-100
-100
-101
-101
-101
-102
-103
-103
-103
-104
-104
-105
-105
-106
-106
-108
-108
-109
-109
-110
-110
-110
-111
-112
-112
-112
-113
-113
-114
-114
-114
-115
-116
-116
-116
-116
-116
-118
-117
-118
-118
-118
-119
-119
-119
-119
-120
-121
-121
-121
-121
-121
-121
-121
-121
-122
-122
-122
-122
-122
-122
-121
-121
-121
-121
-121
-121
-120
-121
-121
-121
-120
-120
-120
-120
-119
-119
-119
-118
-118
-118
-118
-118
-118
-118
-118
-118
-118
-118
-118
-118
-117
-117
-117
-117
-117
-118
-117
-117
-117
-117
-117
-117
-117
-117
-116
-116
-116
-116
-116
-116
-115
-115
-115
-114
-115
-114
-114
-113
-113
-112
-112
-110
-110
-108
-106
-104
-101
-99
-95
-91
-86
-80
-73
-65
-57
-47
-37
-26
-13
0
15
30
46
63
81
100
119
137
157
178
199
221
243
265
287
310
333
355
378
401
423
444
465
484
502
517
529
538
544
547
545
540
531
519
502
482
459
433
405
372
340
305
270
234
198
164
130
98
68
41
16
-6
-25
-42
-56
-67
-75
-83
-88
-92
-95
-96
-96
-96
-95
-94
-92
-91
-90
-88
-87
-86
-85
-84
-83
-84
-83
-83
-83
-84
-85
-85
-86
-87
-88
-88
-90
-91
-91
-92
-93
-95
-95
-96
-97
-97
-98
-98
-99
-99
-99
-100
-101
-100
-100
-100
-100
-100
-100
-100
-100
-100
-100
-101
-101
-100
-100
-100
-101
-101
-100
-100
-100
-100
-100
-100
-100
-100
-100
-100
-100
-100
-100
-98
-98
-98
-98
-98
-98
-97
-97
-97
-97
-97
-97
-96
-95
-95
-95
-94
-94
-94
-94
-93
-93
-93
-92
-91
-91
-90
-90
-90
-89
-89
-89
-87
-87
-87
-86
-86
-86
-86
-86
-85
-84
-84
-84
-84
-84
-83
-83
-83
-83
-83
-82
-81
-81
-81
-81
-80
-80
-79
-78
-78
-77
-77
-76
-75
-74
-74
-73
-72
-71
-71
-70
-69
-68
-67
-66
-65
-64
-63
-63
-62
-61
-61
-59
-58
-58
-57
-57
-56
-56
-55
-54
-54
-54
-54
-52
-52
-52
-52
-52
-50
-50
-50
-50
-48
-48
-46
-46
-46
-45
-44
-43
-42
-41
-41
-39
-39
-37
-37
-36
-36
-35
-34
-34
-33
-31
-31
-31
-30
-29
-29
-28
-28
-27
-27
-26
-25
-25
-24
-24
-23
-23
-22
-21
-21
-21
-20
-19
-18
-18
-17
-16
-16
-15
-14
-14
-13
-13
-13
-12
-12
-11
-12
-11
-11
-10
-10
-9
-10
-10
-9
-9
-8
-8
-8
-8
-8
-8
-7
-7
-7
-7
-6
-6
-5
-5
-5
-4
-4
-4
-3
-3
-3
-3
-3
-3
-3
-2
-1
-1
-2
0
-1
-1
-1
-1
-1
-1
-1
-1
-1
-2
-2
-4
-4
-5
-5
-7
-7
-7
-9
-10
-11
-12
-13
-15
-15
-17
-18
-19
-21
-23
-23
-25
-27
-29
-31
-31
-33
-35
-36
-38
-41
-43
-44
-46
-49
-50
-52
-55
-56
-58
-60
-62
-64
-65
-67
-69
-71
-73
-74
-75
-77
-78
-80
-81
-83
-84
-84
-85
-87
-88
-89
-90
-91
-92
-93
-94
-95
-96
-96
-97
-97
-99
-99
-99
-100
-101
-101
-101
-102
-102
-102
-102
-103
-103
-103
-103
-103
-103
-104
-104
-104
-104
-104
-104
-104
-104
-104
-104
-104
-105
-105
-105
-105
-106
-106
-106
-106
-106
-107
-108
-108
-108
-108
-108
-108
-108
-108
-108
-108
-110
-110
-110
-110
-110
-110
-109
-109
-109
-109
-109
-109
-109
-109
-108
-108
-108
-108
-108
-108
-108
-107
-107
-107
-107
-107
-108
-107
-107
-107
-107
-107
-107
-107
-107
-107
-108
-108
-108
-108
-108
-108
-108
-108
-108
-108
-108
-108
-108
-108
-108
-108
-108
-108
-109
-109
-109
-109
-109
-109
-109
-109
-109
-109
-109
-109
-110
-110
-110
-110
-110
-110
-110
-110
-111
-111
-111
-111
-111
-111
-111
-111
-112
-112
-112
-112
-112
-112
-112
-112
-112
-112
-113
-113
-113
-113
-113
-114
-114
-114
-114
-114
-114
-114
-114
-114
-114
-114
-114
-114
-115
-114
-114
-114
-113
-114
-114
-114
-113
-113
-113
-113
-112
-112
-113
-113
-112
-112
-112
-113
-113
-113
-113
-113
-113
-113
-113
-114
-114
-114
-114
-114
-114
-114
-114
-114
-114
-114
-114
-114
-113
-114
-114
-114
-114
-114
-114
-116
-116
-116
-116
-117
-117
-117
-118
-118
-118
-118
-119
-119
-119
-120
-120
-120
-121
-121
-121
-121
-122
-122
-123
-123
-123
-123
-124
-124
-124
-125
-125
-125
-126
-126
-126
-128
-128
-128
-128
-129
-129
-129
-129
-128
-128
-128
-129
-129
-129
-129
-129
-129
-129
-129
-129
-129
-128
-128
-129
-129
-129
-129
-128
-128
-128
-128
-128
-127
-127
-127
-127
-126
-127
-127
-127
-126
-126
-126
-125
-125
-124
-124
-124
-124
-123
-123
-123
-123
-123
-122
-122
-122
-122
-122
-122
-122
-122
-122
-122
-122
-123
-123
-123
-124
-124
-124
-124
-124
-125
-125
-125
-125
-125
-125
-125
-125
-125
-125
-125
-124
-124
-124
-124
-124
-124
-125
-125
-125
-124
-125
-125
-125
-125
-125
-126
-126
-126
-126
-126
-127
-127
-127
-127
-127
-127
-127
-127
-127
-127
-127
-127
-127
-127
-127
-127
-127
-127
-127
-127
-127
-127
-127
-127
-127
-127
-126
-126
-126
-126
-126
-126
-126
-126
-126
-126
-126
-126
-126
-125
-124
-124
-124
-124
-124
-124
-124
-123
-123
-123
-123
-123
-124
-123
-123
-123
-123
-122
-122
-122
-122
-122
-122
-122
-122
-122
-122
-122
-122
-122
-122
-122
-121
-121
-121
-121
-122
-122
-122
-122
-122
-122
-123
-123
-122
-122
-122
-123
-123
-123
-123
-124
-124
-124
-124
-124
-124
-124
-124
-124
-124
-124
-124
-124
-124
-124
-124
-124
-123
-123
-123
-123
-122
-122
-122
-121
-121
-121
-121
-121
-121
-120
-120
-120
-120
-120
-120
-120
-120
-120
-120
-120
-120
-120
-120
-120
-120
-120
-120
-119
-119
-119
-119
-119
-119
-118
-118
-118
-118
-118
-118
-117
-117
-117
-117
-117
-117
-116
-116
-116
-116
-115
-115
-115
-115
-114
-114
-114
-114
-114
-112
-112
-112
-112
-112
-112
-111
-111
-111
-110
-110
-110
-110
-110
-110
-110
-109
-109
-110
-110
-109
-109
-110
-109
-109
-109
-109
-109
-108
-108
-109
-108
-108
-107
-107
-108
-107
-107
-106
-106
-105
-105
-106
-105
-105
-105
-104
-105
-105
-105
-105
-105
-105
-106
-106
-106
-106
-106
-106
-106
-107
-108
-107
-108
-108
-108
-108
-108
-108
-109
-108
-108
-108
-109
-109
-109
-109
-110
-110
-110
-110
-110
-111
-112
-111
-112
-113
-112
-113
-113
-113
-114
-113
-114
-113
-114
-114
-114
-114
-114
-114
-114
-115
-114
-114
-114
-114
-115
-115
-115
-115
-116
-115
-116
-116
-117
-117
-117
-117
-118
-118
-119
-119
-119
-119
-119
-119
-119
-119
-119
-119
-120
-119
-119
-119
-119
-119
-119
-118
-119
-119
-119
-119
-119
-119
-119
-120
-120
-120
-120
-120
-120
-120
-120
-118
-118
-118
-118
-118
-117
-117
-117
-116
-116
-115
-115
-115
-114
-114
-113
-113
-113
-112
-112
-113
-112
-112
-112
-112
-112
-112
-112
-112
-112
-112
-112
-113
-112
-113
-113
-113
-113
-113
-113
-113
-112
-112
-112
-110
-108
-107
-105
-102
-99
-95
-91
-85
-79
-71
-62
-53
-42
-30
-18
-4
11
27
43
60
79
97
116
136
157
178
200
223
246
269
292
316
340
363
387
410
434
458
479
501
520
537
552
563
572
577
577
574
567
556
541
522
500
474
445
413
380
344
307
270
232
196
160
126
93
63
36
11
-10
-30
-46
-60
-70
-79
-85
-91
-94
-95
-97
-97
-96
-96
-95
-94
-93
-92
-91
-91
-90
-89
-89
-90
-90
-90
-91
-91
-92
-94
-94
-95
-96
-98
-99
-99
-101
-102
-102
-103
-103
-105
-105
-106
-106
-106
-107
-108
-108
-108
-108
-108
-108
-108
-109
-109
-109
-108
-108
-108
-108
-108
-108
-108
-108
-108
-107
-107
-107
-106
-106
-105
-105
-104
-103
-103
-102
-102
-101
-101
-100
-99
-99
-98
-98
-97
-96
-96
-95
-95
-94
-94
-93
-92
-92
-92
-91
-91
-91
-90
-89
-89
-89
-89
-88
-88
-88
-88
-87
-87
-87
-88
-87
-87
-86
-87
-86
-86
-86
-86
-84
-84
-84
-84
-83
-83
-83
-83
-83
-82
-82
-81
-81
-81
-81
-81
-80
-79
-79
-79
-79
-78
-78
-78
-76
-76
-75
-75
-74
-74
-73
-73
-72
-70
-70
-69
-69
-68
-68
-67
-66
-66
-65
-64
-63
-62
-61
-61
-60
-59
-58
-57
-56
-55
-54
-54
-53
-51
-50
-49
-48
-47
-45
-45
-44
-42
-42
-41
-40
-39
-38
-37
-37
-36
-36
-36
-35
-34
-34
-34
-33
-33
-33
-32
-32
-32
-30
-29
-29
-29
-28
-28
-27
-26
-26
-25
-25
-23
-23
-22
-22
-21
-20
-20
-20
-19
-19
-18
-18
-17
-17
-17
-16
-15
-15
-14
-15
-14
-14
-14
-13
-13
-13
-12
-12
-11
-12
-11
-11
-10
-10
-10
-10
-9
-9
-8
-8
-9
-8
-8
-7
-7
-7
-6
-6
-6
-6
-6
-6
-6
-6
-5
-5
-4
-4
-4
-4
-4
-4
-3
-3
-3
-2
-2
-2
-2
-2
-3
-2
-2
-2
-3
-3
-3
-3
-4
-4
-5
-5
-6
-6
-7
-8
-9
-9
-11
-12
-13
-15
-15
-17
-18
-19
-20
-22
-24
-25
-27
-29
-31
-32
-34
-36
-37
-39
-40
-42
-44
-46
-48
-49
-51
-53
-54
-56
-59
-60
-62
-63
-65
-66
-68
-70
-71
-73
-74
-76
-76
-77
-79
-80
-81
-82
-84
-84
-85
-86
-87
-87
-89
-89
-90
-91
-91
-92
-92
-93
-93
-94
-94
-94
-96
-96
-96
-96
-97
-97
-97
-96
-96
-96
-97
-97
-97
-96
-96
-96
-96
-96
-95
-95
-95
-95
-94
-94
-94
-94
-93
-93
-93
-92
-92
-92
-92
-92
-92
-92
-92
-92
-92
-93
-93
-93
-92
-92
-92
-92
-92
-93
-93
-92
-92
-92
-92
-92
-91
-91
-91
-91
-91
-91
-91
-91
-91
-91
-91
-91
-91
-91
-91
-91
-91
-91
-91
-91
-91
-91
-91
-90
-90
-90
-90
-90
-90
-90
-90
-90
-90
-90
-90
-90
-90
-90
-90
-90
-90
-90
-92
-92
-92
-92
-92
-93
-93
-93
-93
-94
-94
-94
-94
-95
-95
-96
-96
-96
-96
-96
-96
-97
-97
-97
-97
-97
-98
-98
-98
-98
-99
-99
-99
-99
-99
-100
-100
-100
-100
-101
-101
-101
-101
-101
-101
-101
-102
-102
-103
-103
-103
-103
-103
-103
-103
-103
-103
-103
-103
-103
-103
-103
-103
-103
-103
-104
-103
-103
-103
-103
-103
-103
-103
-103
-103
-103
-102
-102
-102
-102
-102
-102
-101
-102
-102
-102
-102
-102
-102
-102
-102
-103
-103
-103
-103
-103
-103
-103
-104
-104
-104
-105
-105
-105
-105
-105
-106
-106
-106
-106
-106
-106
-106
-106
-106
-106
-106
-106
-108
-108
-108
-108
-108
-109
-109
-109
-109
-110
-110
-110
-111
-111
-112
-112
-112
-112
-112
-112
-111
-111
-111
-112
-112
-112
-112
-111
-110
-111
-110
-110
-110
-109
-108
-108
-107
-107
-106
-105
-105
-104
-104
-103
-102
-102
-101
-102
-102
-101
-101
-100
-100
-100
-100
-100
-100
-99
-99
-99
-99
-101
-101
-101
-101
-101
-101
-101
-101
-102
-102
-102
-102
-102
-103
-103
-103
-103
-103
-103
-103
-104
-104
-104
-104
-104
-104
-104
-104
-104
-104
-104
-104
-104
-104
-104
-104
-104
-104
-104
-104
-104
-104
-105
-105
-105
-104
-104
-104
-104
-103
-103
-104
-104
-104
-104
-104
-104
-104
-104
-104
-104
-104
-104
-104
-104
-104
-103
-103
-103
-103
-103
-103
-102
-102
-102
-101
-101
-101
-100
-100
-100
-99
-99
-99
-98
-98
-98
-97
-97
-97
-96
-96
-96
-96
-96
-97
-97
-97
-97
-97
-97
-97
-98
-98
-98
-98
-98
-98
-99
-99
-99
-100
-99
-99
-99
-100
-100
-100
-99
-99
-99
-100
-100
-100
-100
-100
-100
-101
-101
-101
-101
-101
-101
-102
-102
-102
-102
-102
-102
-103
-103
-103
-103
-103
-103
-103
-103
-103
-103
-103
-103
-103
-103
-103
-103
-103
-104
-104
-104
-104
-104
-104
-104
-104
-105
-105
-104
-104
-104
-104
-105
-105
-105
-105
-105
-104
-104
-104
-104
-104
-104
-104
-104
-103
-103
-103
-103
-103
-102
-102
-101
-101
-100
-100
-99
-99
-97
-97
-96
-95
-94
-94
-94
-93
-93
-91
-91
-91
-90
-90
-89
-89
-89
-88
-88
-88
-88
-87
-87
-85
-85
-85
-84
-84
-83
-83
-82
-82
-81
-80
-80
-79
-79
-79
-78
-78
-78
-77
-77
-78
-77
-77
-77
-77
-78
-77
-77
-77
-77
-78
-78
-78
-78
-78
-78
-78
-79
-79
-79
-79
-80
-80
-81
-81
-82
-82
-83
-83
-84
-84
-84
-85
-85
-85
-85
-86
-87
-86
-87
-87
-87
-87
-88
-87
-88
-88
-88
-88
-89
-89
-89
-89
-90
-91
-91
-91
-92
-92
-93
-93
-93
-94
-95
-95
-95
-95
-96
-96
-96
-96
-97
-97
-97
-97
-97
-97
-97
-97
-98
-98
-98
-98
-98
-97
-97
-98
-98
-97
-97
-97
-97
-97
-96
-97
-97
-97
-97
-97
-97
-97
-97
-97
-97
-97
-97
-97
-97
-97
-97
-98
-98
-98
-98
-98
-99
-98
-98
-98
-98
-98
-98
-98
-98
-98
-98
-98
-98
-98
-98
-97
-97
-97
-97
-97
-97
-97
-98
-97
-98
-97
-97
-97
-97
-96
-95
-94
-92
-90
-87
-85
-81
-77
-72
-66
-58
-50
-41
-30
-20
-7
6
21
36
53
69
87
106
125
145
166
186
208
231
254
278
302
325
349
373
397
422
445
470
493
517
538
558
577
591
604
613
618
619
616
610
600
584
565
542
515
486
453
418
381
343
305
266
228
190
155
122
91
62
37
15
-5
-21
-35
-46
-54
-61
-66
-68
-70
-71
-71
-70
-70
-68
-66
-65
-63
-63
-62
-61
-61
-60
-60
-60
-61
-62
-62
-63
-64
-65
-65
-67
-68
-68
-69
-70
-71
-71
-72
-73
-74
-74
-74
-75
-76
-76
-76
-76
-76
-76
-76
-76
-76
-76
-76
-76
-76
-76
-76
-76
-76
-76
-76
-76
-75
-75
-75
-75
-75
-75
-75
-75
-74
-74
-74
-73
-73
-73
-72
-71
-72
-72
-71
-71
-70
-70
-69
-69
-69
-69
-68
-68
-67
-67
-67
-67
-67
-66
-66
-65
-65
-65
-65
-64
-64
-63
-63
-63
-63
-63
-62
-62
-62
-62
-62
-61
-61
-61
-61
-61
-60
-60
-60
-60
-59
-59
-58
-57
-57
-57
-56
-56
-55
-55
-53
-53
-52
-52
-52
-50
-50
-49
-49
-48
-47
-47
-47
-45
-45
-45
-44
-43
-43
-43
-42
-42
-41
-40
-40
-39
-39
-38
-38
-37
-37
-36
-36
-35
-35
-34
-34
-32
-31
-31
-30
-30
-28
-28
-28
-27
-27
-26
-25
-25
-24
-24
-23
-23
-21
-21
-21
-19
-19
-19
-18
-17
-16
-16
-15
-14
-14
-12
-12
-12
-10
-10
-9
-8
-8
-6
-6
-6
-4
-4
-3
-3
-3
-1
-1
0
0
2
2
3
5
5
6
8
8
10
10
12
13
14
15
16
17
19
19
20
21
22
24
24
25
26
27
27
27
28
28
29
29
30
30
30
30
30
31
31
31
31
31
31
31
31
31
32
31
31
31
31
31
31
30
30
30
29
29
28
28
28
27
27
26
26
24
24
24
23
22
22
21
20
19
18
17
16
15
14
12
11
10
8
8
6
4
2
2
0
-2
-3
-5
-7
-7
-9
-10
-12
-14
-14
-16
-18
-19
-21
-22
-23
-25
-27
-28
-29
-30
-32
-34
-35
-37
-38
-40
-42
-43
-45
-46
-48
-49
-51
-52
-53
-55
-55
-57
-58
-59
-61
-62
-63
-64
-64
-66
-67
-67
-68
-69
-70
-70
-72
-72
-73
-73
-73
-74
-74
-76
-76
-76
-77
-77
-77
-78
-78
-78
-79
-79
-79
-79
-79
-80
-80
-80
-80
-81
-81
-80
-81
-81
-81
-81
-81
-81
-81
-81
-81
-81
-81
-82
-82
-82
-82
-82
-82
-83
-83
-83
-83
-83
-83
-83
-82
-82
-82
-82
-82
-82
-82
-82
-82
-82
-81
-81
-80
-80
-80
-80
-80
-79
-79
-79
-79
-79
-79
-79
-78
-78
-78
-78
-78
-78
-78
-78
-78
-79
-79
-79
-79
-79
-79
-79
-79
-79
-79
-79
-79
-79
-79
-79
-78
-78
-78
-78
-78
-78
-78
-78
-78
-78
-78
-78
-78
-78
-78
-78
-78
-78
-79
-79
-79
-79
-80
-79
-79
-79
-80
-80
-80
-81
-81
-81
-83
-83
-83
-84
-84
-85
-85
-86
-87
-87
-88
-88
-88
-89
-89
-90
-90
-90
-92
-92
-92
-92
-92
-92
-93
-93
-93
-93
-93
-93
-92
-92
-92
-92
-92
-92
-92
-91
-91
-91
-92
-92
-92
-92
-92
-92
-92
-92
-92
-92
-92
-93
-93
-93
-93
-93
-94
-94
-95
-95
-95
-95
-96
-96
-96
-96
-96
-96
-96
-96
-97
-97
-97
-97
-97
-97
-97
-97
-97
-97
-97
-98
-98
-98
-98
-98
-98
-98
-98
-98
-99
-99
-99
-99
-99
-100
-100
-100
-100
-100
-100
-100
-100
-100
-100
-100
-99
-99
-99
-100
-100
-99
-99
-99
-99
-99
-99
-99
-99
-99
-99
-98
-98
-98
-98
-97
-97
-97
-97
-97
-96
-97
-97
-97
-96
-96
-96
-96
-96
-95
-95
-95
-95
-95
-95
-95
-95
-95
-95
-95
-95
-95
-95
-95
-95
-95
-95
-95
-95
-95
-95
-96
-96
-96
-96
-96
-97
-97
-97
-98
-98
-99
-99
-99
-99
-100
-100
-101
-101
-101
-102
-102
-102
-103
-103
-103
-103
-104
-104
-104
-104
-104
-104
-104
-103
-103
-103
-103
-103
-103
-103
-103
-103
-103
-102
-103
-103
-103
-103
-103
-102
-102
-102
-102
-102
-102
-102
-102
-102
-102
-102
-102
-102
-102
-102
-103
-103
-103
-103
-103
-103
-103
-103
-103
-103
-103
-103
-103
-103
-103
-103
-103
-103
-103
-103
-102
-102
-102
-102
-102
-102
-102
-102
-101
-101
-101
-101
-101
-100
-100
-100
-100
-99
-99
-99
-99
-99
-97
-97
-97
-97
-97
-96
-96
-96
-96
-95
-95
-95
-94
-94
-93
-93
-92
-92
-91
-91
-90
-90
-89
-89
-88
-88
-88
-87
-87
-87
-87
-87
-87
-86
-86
-87
-87
-87
-87
-86
-86
-86
-86
-86
-86
-86
-86
-87
-87
-87
-87
-87
-87
-88
-88
-88
-88
-88
-88
-89
-89
-89
-89
-91
-91
-91
-91
-91
-92
-92
-92
-92
-93
-93
-92
-92
-93
-93
-93
-94
-94
-94
-93
-94
-94
-94
-95
-95
-95
-96
-96
-96
-96
-96
-97
-97
-97
-96
-96
-96
-95
-96
-96
-96
-95
-95
-95
-94
-94
-94
-93
-93
-93
-93
-92
-92
-91
-91
-91
-91
-90
-90
-90
-90
-89
-88
-88
-88
-87
-87
-86
-86
-86
-86
-85
-85
-84
-84
-84
-84
-84
-83
-82
-82
-82
-82
-82
-82
-82
-81
-81
-82
-82
-82
-81
-81
-82
-82
-82
-82
-82
-83
-83
-83
-83
-83
-84
-84
-84
-84
-84
-84
-85
-84
-85
-85
-86
-86
-86
-86
-86
-86
-87
-86
-87
-87
-87
-87
-87
-87
-88
-87
-88
-88
-88
-89
-89
-89
-90
-90
-90
-90
-91
-92
-92
-92
-93
-93
-94
-94
-95
-95
-96
-96
-96
-96
-98
-98
-98
-99
-99
-99
-100
-100
-101
-101
-101
-101
-101
-102
-102
-101
-101
-101
-101
-101
-101
-100
-100
-100
-100
-100
-99
-99
-99
-99
-99
-99
-98
-98
-98
-98
-99
-99
-99
-99
-99
-99
-98
-98
-98
-98
-98
-98
-98
-98
-97
-97
-96
-96
-96
-95
-95
-95
-94
-94
-94
-94
-93
-93
-93
-93
-92
-93
-93
-92
-92
-93
-92
-92
-92
-92
-92
-92
-91
-90
-89
-88
-86
-84
-81
-79
-75
-70
-65
-59
-52
-44
-35
-26
-15
-3
10
24
38
54
70
88
105
123
143
163
184
205
228
249
272
295
318
342
366
389
413
437
460
482
504
523
541
556
569
578
585
586
584
579
569
554
537
515
490
462
432
399
363
327
290
252
215
179
145
113
82
54
30
8
-12
-29
-43
-54
-63
-69
-74
-79
-80
-82
-82
-81
-80
-79
-78
-76
-76
-74
-73
-72
-71
-72
-72
-72
-72
-73
-73
-73
-75
-76
-76
-77
-78
-79
-81
-81
-83
-83
-83
-85
-85
-85
-85
-86
-87
-87
-87
-87
-87
-86
-86
-86
-86
-86
-85
-85
-84
-84
-84
-83
-83
-83
-82
-82
-82
-81
-81
-81
-80
-80
-80
-80
-80
-79
-79
-79
-79
-78
-78
-78
-77
-77
-76
-75
-74
-74
-74
-73
-73
-72
-72
-71
-71
-71
-70
-69
-69
-68
-68
-68
-68
-68
-67
-67
-67
-66
-66
-66
-66
-66
-66
-65
-65
-64
-64
-63
-63
-63
-62
-61
-60
-60
-59
-59
-58
-57
-57
-56
-55
-55
-54
-54
-53
-52
-51
-50
-50
-50
-49
-49
-48
-48
-48
-47
-47
-47
-46
-45
-45
-44
-44
-43
-43
-42
-42
-40
-39
-39
-38
-38
-37
-36
-36
-34
-33
-33
-32
-32
-31
-29
-29
-28
-28
-27
-27
-26
-25
-25
-24
-23
-23
-22
-22
-20
-20
-20
-18
-18
-18
-16
-16
-16
-16
-14
-14
-14
-13
-13
-13
-12
-11
-11
-11
-10
-10
-10
-9
-9
-8
-8
-6
-6
-6
-5
-5
-4
-4
-2
-2
-1
-1
0
0
1
2
3
4
4
4
6
7
7
8
8
9
9
10
10
11
11
11
12
13
13
14
14
14
14
14
15
15
16
15
16
16
17
16
17
17
18
18
18
17
18
18
19
19
19
20
20
20
20
21
21
21
21
21
21
21
21
21
21
21
21
21
21
21
20
19
19
18
17
17
16
15
14
12
12
11
9
8
7
6
4
2
1
-1
-3
-4
-6
-8
-9
-10
-12
-13
-15
-17
-19
-20
-22
-24
-25
-26
-28
-30
-32
-33
-35
-37
-38
-40
-41
-43
-45
-46
-47
-50
-51
-53
-54
-56
-57
-59
-60
-62
-62
-63
-65
-66
-67
-68
-70
-70
-71
-72
-73
-74
-74
-75
-76
-76
-76
-78
-78
-78
-78
-79
-79
-79
-80
-80
-80
-81
-81
-81
-81
-82
-82
-82
-82
-83
-83
-83
-83
-84
-84
-84
-84
-85
-85
-85
-85
-86
-86
-86
-86
-86
-86
-86
-85
-86
-86
-86
-86
-86
-86
-86
-86
-87
-87
-87
-87
-87
-88
-88
-88
-88
-88
-88
-88
-88
-87
-87
-87
-87
-87
-87
-87
-87
-87
-87
-87
-87
-87
-87
-87
-86
-86
-86
-86
-86
-86
-86
-86
-86
-86
-85
-85
-85
-84
-84
-84
-83
-83
-82
-82
-82
-81
-82
-82
-82
-82
-82
-82
-82
-82
-82
-82
-82
-82
-82
-83
-83
-83
-83
-83
-83
-83
-83
-83
-83
-83
-83
-83
-83
-82
-82
-82
-82
-82
-82
-82
-82
-82
-82
-82
-82
-82
-83
-83
-83
-84
-85
-85
-85
-86
-86
-86
-87
-87
-88
-88
-88
-89
-89
-89
-90
-90
-90
-91
-92
-92
-92
-92
-94
-94
-94
-94
-95
-95
-96
-96
-97
-97
-97
-97
-98
-98
-98
-98
-98
-98
-99
-99
-99
-99
-99
-100
-100
-100
-100
-100
-100
-100
-100
-100
-100
-100
-101
-101
-101
-101
-101
-101
-101
-101
-101
-101
-101
-101
-101
-101
-101
-102
-102
-102
-102
-102
-102
-102
-102
-102
-102
-103
-103
-103
-103
-103
-103
-103
-103
-103
-103
-103
-103
-103
-103
-103
-103
-104
-103
-103
-103
-103
-102
-102
-102
-101
-101
-101
-101
-100
-100
-100
-100
-100
-99
-99
-99
-99
-99
-99
-99
-99
-99
-99
-99
-99
-99
-99
-99
-99
-99
-99
-99
-99
-99
-99
-99
-99
-100
-100
-100
-100
-100
-100
-100
-100
-100
-100
-100
-100
-100
-100
-100
-100
-99
-99
-99
-99
-100
-100
-100
-99
-99
-99
-99
-99
-99
-99
-99
-99
-99
-99
-98
-98
-98
-98
-98
-98
-98
-98
-98
-98
-98
-98
-98
-97
-97
-97
-97
-97
-97
-97
-97
-98
-98
-98
-97
-97
-97
-97
-97
-97
-97
-97
-96
-96
-96
-96
-96
-96
-96
-96
-96
-95
-95
-95
-95
-95
-95
-95
-95
-94
-94
-94
-94
-95
-95
-95
-95
-96
-96
-96
-96
-96
-96
-96
-97
-97
-97
-97
-97
-98
-98
-98
-98
-98
-99
-99
-99
-99
-99
-99
-98
-98
-98
-98
-99
-99
-99
-99
-99
-98
-98
-98
-98
-98
-98
-98
-98
-98
-98
-98
-98
-98
-98
-98
-97
-97
-97
-97
-97
-97
-97
-97
-97
-97
-97
-98
-98
-97
-97
-97
-97
-97
-97
-97
-98
-98
-98
-98
-99
-99
-99
-99
-99
-99
-99
-99
-99
-99
-99
-99
-99
-100
-100
-100
-100
-100
-100
-100
-100
-100
-100
-100
-100
-99
-100
-100
-100
-100
-100
-100
-101
-101
-101
-100
-100
-100
-100
-100
-100
-101
-102
-102
-102
-102
-102
-102
-102
-102
-102
-102
-102
-103
-103
-103
-103
-103
-103
-103
-103
-103
-103
-103
-103
-103
-103
-103
-103
-103
-103
-103
-103
-103
-103
-103
-103
-103
-103
-102
-102
-102
-102
-102
-102
-101
-101
-101
-101
-100
-100
-100
-100
-100
-99
-98
-98
-98
-98
-98
-97
-97
-97
-96
-95
-95
-95
-94
-94
-94
-93
-93
-93
-93
-92
-92
-92
-92
-91
-90
-90
-89
-89
-89
-88
-88
-88
-87
-87
-86
-86
-86
-84
-84
-83
-83
-83
-82
-83
-83
-82
-82
-81
-81
-82
-82
-81
-81
-81
-82
-82
-82
-82
-82
-82
-82
-82
-83
-83
-83
-84
-84
-84
-84
-85
-84
-85
-84
-85
-84
-85
-85
-85
-86
-85
-86
-85
-86
-86
-86
-86
-87
-86
-86
-87
-87
-87
-88
-88
-88
-89
-89
-89
-89
-90
-90
-90
-91
-92
-92
-92
-93
-93
-94
-94
-95
-96
-97
-97
-97
-98
-98
-98
-100
-100
-100
-100
-101
-102
-102
-102
-103
-103
-103
-103
-103
-104
-103
-103
-103
-103
-103
-103
-103
-103
-102
-102
-102
-102
-102
-101
-101
-101
-101
-101
-101
-101
-101
-101
-101
-101
-102
-102
-102
-102
-102
-102
-102
-102
-102
-103
-103
-103
-103
-103
-102
-102
-102
-102
-102
-102
-102
-102
-102
-102
-101
-101
-101
-101
-100
-100
-99
-99
-100
-99
-99
-99
-98
-98
-97
-96
-95
-94
-92
-90
-88
-86
-82
-78
-74
-68
-62
-54
-47
-37
-27
-16
-4
10
24
38
53
70
87
105
124
144
164
184
206
227
250
272
296
318
341
365
389
412
435
458
479
500
519
535
550
561
569
572
573
570
562
551
537
518
496
470
442
410
377
342
307
270
233
197
162
128
98
69
42
18
-2
-20
-36
-49
-59
-67
-72
-77
-79
-81
-82
-82
-81
-80
-79
-78
-77
-75
-74
-73
-72
-72
-72
-72
-72
-72
-73
-73
-75
-76
-76
-77
-78
-80
-81
-81
-82
-84
-84
-85
-85
-87
-87
-87
-88
-89
-89
-89
-89
-90
-90
-90
-91
-91
-91
-91
-91
-90
-90
-90
-90
-90
-89
-89
-89
-88
-87
-86
-86
-85
-85
-85
-84
-84
-83
-83
-82
-82
-81
-81
-80
-79
-78
-77
-77
-76
-76
-75
-75
-74
-74
-74
-73
-73
-72
-72
-71
-71
-71
-70
-70
-69
-69
-69
-68
-68
-68
-67
-67
-67
-67
-66
-66
-65
-64
-64
-64
-63
-63
-63
-63
-62
-62
-62
-61
-61
-61
-60
-59
-59
-59
-59
-58
-58
-58
-57
-57
-56
-55
-55
-54
-54
-53
-52
-51
-51
-50
-49
-48
-48
-46
-45
-44
-44
-43
-42
-41
-39
-39
-38
-37
-37
-36
-36
-35
-35
-33
-33
-32
-32
-32
-30
-30
-30
-29
-29
-28
-27
-27
-27
-26
-25
-25
-24
-23
-23
-22
-22
-21
-20
-20
-18
-18
-18
-16
-16
-14
-14
-13
-12
-11
-10
-9
-9
-8
-7
-7
-6
-5
-5
-4
-4
-2
-2
-2
-1
0
1
1
1
2
2
2
3
3
4
4
6
6
7
7
8
8
9
9
11
11
12
13
13
14
14
15
15
16
17
17
18
18
18
19
19
20
20
21
21
21
23
23
23
24
25
25
27
27
27
28
28
28
30
30
30
31
31
31
31
32
31
31
31
31
30
30
30
30
29
29
29
28
28
27
26
26
25
24
24
24
22
21
20
19
18
17
16
15
13
12
11
9
8
7
5
4
2
0
-1
-3
-5
-5
-7
-8
-10
-12
-13
-15
-17
-19
-20
-22
-24
-26
-27
-28
-29
-31
-33
-35
-35
-37
-38
-40
-42
-42
-44
-46
-46
-47
-49
-49
-51
-52
-53
-54
-54
-55
-56
-57
-57
-59
-59
-59
-60
-61
-61
-61
-63
-63
-63
-63
-64
-65
-65
-65
-65
-66
-67
-67
-67
-67
-68
-68
-69
-69
-69
-69
-69
-70
-70
-70
-70
-70
-70
-70
-70
-69
-69
-69
-70
-70
-70
-69
-69
-69
-69
-69
-69
-69
-68
-68
-68
-68
-68
-68
-68
-69
-69
-69
-68
-68
-68
-68
-68
-68
-68
-68
-69
-69
-69
-68
-68
-68
-68
-68
-68
-68
-68
-68
-68
-67
-67
-67
-67
-67
-67
-67
-67
-66
-66
-66
-66
-66
-66
-65
-65
-65
-65
-65
-65
-65
-65
-65
-65
-66
-66
-66
-66
-66
-66
-66
-66
-66
-66
-67
-67
-67
-67
-67
-67
-68
-68
-68
-68
-68
-68
-68
-68
-69
-70
-70
-70
-70
-70
-71
-71
-71
-71
-71
-72
-72
-72
-72
-72
-72
-72
-72
-73
-73
-73
-73
-73
-73
-74
-74
-74
-74
-74
-75
-75
-75
-76
-76
-76
-76
-77
-77
-78
-78
-78
-78
-78
-78
-78
-78
-78
-79
-79
-79
-79
-79
-79
-79
-79
-78
-78
-78
-78
-78
-78
-77
-77
-77
-77
-76
-77
-77
-77
-77
-76
-77
-77
-77
-77
-77
-78
-78
-78
-78
-78
-78
-78
-78
-78
-78
-78
-79
-79
-79
-78
-79
-79
-79
-79
-79
-79
-79
-79
-79
-79
-78
-78
-78
-78
-78
-79
-79
-79
-79
-79
-79
-79
-79
-79
-78
-78
-78
-78
-78
-78
-78
-78
-78
-77
-77
-77
-77
-77
-77
-77
-76
-76
-76
-76
-76
-75
-75
-76
-76
-76
-75
-75
-75
-75
-75
-75
-75
-74
-74
-74
-74
-74
-74
-74
-74
-73
-73
-73
-73
-73
-73
-73
-73
-73
-73
-73
-73
-73
-73
-73
-73
-73
-73
-73
-73
-73
-74
-74
-74
-74
-74
-74
-74
-74
-75
-75
-75
-75
-75
-75
-75
-75
-74
-74
-75
-74
-74
-74
-73
-73
-72
-72
-71
-71
-70
-71
-71
-70
-70
-70
-69
-69
-69
-69
-69
-69
-69
-69
-69
-69
-69
-69
-69
-69
-69
-69
-69
-69
-69
-69
-69
-69
-68
-68
-68
-68
-68
-68
-68
-68
-68
-68
-68
-68
-68
-69
-69
-69
-69
-69
-69
-69
-69
-69
-69
-68
-68
-68
-68
-68
-68
-68
-67
-67
-67
-67
-67
-67
-67
-67
-67
-67
-67
-67
-67
-67
-67
-67
-68
-68
-68
-68
-68
-69
-69
-69
-69
-69
-69
-69
-70
-70
-70
-70
-70
-70
-70
-70
-70
-70
-70
-70
-70
-70
-70
-70
-70
-71
-71
-71
-71
-71
-71
-70
-70
-70
-71
-71
-71
-71
-71
-71
-71
-71
-70
-70
-70
-70
-69
-69
-69
-69
-68
-68
-68
-67
-67
-67
-66
-66
-66
-66
-66
-66
-67
-67
-67
-67
-67
-68
-68
-68
-68
-68
-69
-69
-69
-69
-70
-69
-69
-69
-69
-70
-69
-69
-69
-68
-68
-68
-68
-67
-67
-68
-68
-67
-67
-67
-67
-66
-66
-66
-65
-65
-65
-65
-65
-64
-63
-63
-63
-63
-62
-62
-62
-62
-61
-61
-61
-61
-60
-60
-60
-58
-58
-57
-57
-56
-56
-54
-54
-53
-52
-52
-51
-51
-50
-49
-49
-49
-48
-48
-47
-47
-48
-48
-47
-47
-48
-48
-48
-48
-48
-48
-49
-50
-50
-50
-50
-51
-51
-52
-52
-53
-53
-54
-54
-55
-55
-56
-57
-58
-57
-58
-58
-59
-60
-59
-60
-61
-61
-62
-61
-61
-62
-62
-62
-63
-63
-63
-63
-63
-63
-65
-65
-65
-66
-66
-66
-68
-68
-68
-69
-69
-71
-71
-71
-71
-72
-72
-72
-73
-74
-74
-74
-74
-73
-73
-73
-73
-74
-73
-73
-72
-72
-72
-71
-71
-72
-71
-71
-70
-70
-70
-69
-69
-69
-69
-68
-68
-68
-68
-68
-67
-67
-67
-67
-67
-66
-66
-66
-66
-65
-65
-65
-64
-64
-64
-64
-63
-62
-62
-62
-62
-62
-62
-61
-61
-61
-61
-61
-61
-61
-62
-62
-61
-61
-62
-62
-62
-62
-61
-62
-62
-62
-61
-60
-60
-58
-56
-54
-52
-48
-45
-40
-35
-29
-21
-13
-4
6
19
32
46
61
77
93
111
129
149
169
189
209
230
252
275
298
321
344
368
392
416
439
463
487
510
533
555
575
594
609
623
633
639
642
641
635
626
612
595
574
549
521
489
456
421
383
345
306
269
231
197
162
130
101
76
52
33
16
2
-10
-19
-26
-31
-35
-37
-38
-38
-38
-37
-35
-34
-33
-32
-31
-29
-29
-28
-28
-27
-28
-28
-28
-29
-29
-31
-31
-32
-33
-34
-35
-35
-37
-37
-38
-40
-40
-41
-42
-42
-43
-43
-44
-44
-44
-46
-46
-46
-47
-47
-47
-48
-49
-49
-49
-49
-49
-49
-49
-49
-49
-49
-49
-49
-49
-49
-49
-48
-48
-47
-47
-47
-47
-47
-46
-46
-46
-46
-45
-45
-45
-44
-44
-44
-44
-43
-43
-43
-43
-42
-41
-41
-40
-40
-40
-39
-39
-39
-39
-38
-38
-38
-38
-37
-36
-36
-35
-35
-35
-34
-34
-34
-33
-33
-32
-32
-31
-30
-30
-29
-29
-27
-27
-26
-26
-25
-25
-23
-22
-22
-21
-21
-20
-20
-18
-18
-17
-17
-16
-15
-14
-14
-14
-13
-13
-12
-11
-11
-11
-10
-10
-10
-10
-9
-9
-9
-8
-8
-8
-7
-7
-6
-5
-5
-5
-4
-4
-4
-3
-2
-2
-2
-1
-1
0
1
1
1
3
3
3
4
5
5
6
7
7
8
8
9
10
11
11
12
13
13
14
14
16
16
17
18
19
20
20
21
22
23
24
24
25
26
27
27
27
28
28
30
31
31
31
32
32
33
34
34
35
35
36
37
37
37
38
39
39
40
40
40
41
41
42
42
43
42
43
43
44
44
45
45
46
45
46
46
47
47
48
48
48
49
49
48
49
49
49
49
50
50
51
51
51
51
51
51
51
52
51
52
52
52
52
52
52
52
52
51
51
51
51
50
50
49
48
47
47
45
45
44
42
42
41
39
39
37
37
35
34
33
31
29
29
27
25
24
22
20
19
17
15
15
13
11
10
9
7
5
4
2
0
-1
-3
-4
-6
-8
-9
-11
-12
-14
-15
-17
-18
-18
-20
-21
-22
-24
-25
-27
-28
-29
-31
-32
-33
-35
-36
-36
-38
-39
-40
-41
-42
-43
-43
-44
-44
-45
-45
-46
-46
-47
-47
-47
-47
-48
-48
-48
-48
-48
-49
-49
-49
-49
-49
-49
-51
-51
-51
-51
-50
-50
-50
-51
-51
-51
-51
-51
-51
-51
-50
-50
-50
-49
-49
-49
-49
-48
-48
-48
-48
-47
-47
-46
-45
-45
-44
-44
-43
-43
-42
-42
-42
-41
-41
-41
-40
-40
-40
-40
-40
-40
-40
-40
-40
-40
-39
-39
-39
-39
-39
-39
-39
-39
-39
-39
-39
-39
-39
-39
-39
-39
-40
-40
-40
-40
-40
-41
-41
-41
-41
-42
-42
-42
-42
-43
-43
-43
-44
-44
-44
-45
-45
-45
-46
-47
-47
-48
-48
-48
-49
-49
-49
-50
-50
-49
-50
-50
-51
-51
-51
-51
-52
-52
-52
-52
-52
-53
-53
-53
-53
-53
-53
-53
-54
-54
-54
-54
-54
-54
-54
-54
-54
-54
-54
-54
-55
-56
-56
-56
