# Simple Text Format
# Sampling Rate (Hz):= 1200.00
# Resolution:= 12
# Labels:= ECG	 I 
# Age:=	16
# Gender:=	Masculino
37
37
38
37
37
37
36
36
36
36
36
36
36
36
35
35
36
36
36
36
36
36
36
36
36
36
36
36
36
36
36
36
36
36
36
36
37
37
37
37
37
36
36
36
36
37
37
37
37
36
37
37
37
37
37
37
37
37
36
37
37
37
37
37
37
38
37
38
37
38
38
38
39
38
39
38
39
38
39
39
39
39
39
39
39
40
39
40
40
39
40
40
40
40
41
41
40
41
41
41
42
42
42
42
43
44
43
44
44
45
45
46
45
46
46
47
47
47
47
48
48
48
48
48
48
49
48
49
48
49
48
49
49
49
49
49
49
50
50
49
50
50
50
50
51
50
51
50
50
51
50
50
49
49
48
47
47
46
45
44
43
42
41
40
38
37
37
36
35
34
34
33
32
32
31
30
30
29
29
28
28
28
28
28
28
29
29
28
28
28
28
28
29
29
29
29
29
29
29
29
29
29
29
29
29
29
29
29
28
28
28
28
28
28
28
28
28
28
28
28
28
28
28
28
28
29
29
29
29
29
29
29
29
29
28
28
28
28
28
28
27
27
27
26
26
24
24
23
21
20
19
18
17
15
14
12
11
10
10
9
9
9
10
12
14
16
18
22
26
31
36
42
49
57
65
74
84
93
104
115
127
137
149
161
173
185
196
207
218
228
241
250
260
268
277
285
291
297
301
305
307
309
308
307
304
301
296
289
282
274
265
255
244
233
221
209
194
181
169
155
143
131
119
109
101
91
83
76
69
63
59
55
51
49
46
44
43
42
41
40
40
39
40
39
39
39
38
38
37
37
37
37
36
36
35
35
34
34
33
33
32
32
32
32
31
30
30
31
30
30
30
29
29
29
29
29
29
29
29
29
29
29
29
29
29
29
29
29
30
29
29
30
30
30
31
31
31
31
32
31
31
32
32
32
33
32
32
33
33
33
34
34
34
34
34
34
35
35
34
35
35
35
35
35
35
36
36
36
35
36
36
37
37
37
38
38
37
38
38
38
39
39
39
40
39
40
40
40
40
41
40
41
40
40
41
40
41
41
42
41
41
42
42
43
43
43
44
44
44
45
45
45
46
46
46
47
47
48
48
49
49
50
50
51
51
52
51
52
53
53
54
55
55
56
55
56
57
57
58
59
59
60
61
61
61
62
63
63
63
64
65
66
66
67
68
69
69
69
70
71
72
73
74
74
75
76
77
77
78
79
80
80
82
83
83
84
84
85
85
86
87
87
88
89
90
91
92
93
94
95
96
97
98
99
100
101
101
103
103
104
105
105
106
107
107
108
109
110
110
110
111
111
112
112
113
113
112
113
113
114
115
115
115
115
116
116
115
116
116
116
116
117
116
116
116
116
115
116
115
114
114
113
112
112
111
111
110
109
108
107
107
106
104
103
103
102
100
99
98
96
95
94
93
91
90
88
87
86
84
83
81
79
79
77
75
74
72
71
70
68
66
66
64
63
61
60
59
58
56
55
54
52
52
50
50
49
47
47
45
44
44
43
42
41
40
40
39
38
37
36
36
35
34
34
33
33
33
32
31
31
31
30
29
29
28
28
29
28
28
28
27
27
27
26
26
26
26
25
26
26
26
26
26
25
25
25
25
25
24
24
24
23
23
23
23
23
22
22
22
22
22
22
21
21
21
21
21
22
22
22
22
22
22
22
22
21
22
22
22
22
22
21
22
22
22
22
22
22
23
22
22
22
22
22
23
23
23
23
23
23
23
23
24
24
24
24
24
24
24
23
24
24
25
25
24
24
25
25
25
25
26
26
26
25
25
26
26
26
26
26
26
26
26
26
25
26
26
26
25
25
25
24
25
25
24
24
24
23
24
24
23
23
24
23
23
23
22
23
23
23
23
23
23
23
23
23
23
24
24
24
24
24
24
24
24
24
24
24
24
24
24
24
25
24
24
24
24
24
24
24
24
24
24
24
24
24
24
24
24
23
23
23
24
24
24
24
23
23
23
23
23
23
23
23
23
23
23
22
22
22
22
22
22
22
23
22
22
22
23
23
22
22
23
23
23
22
23
23
23
23
22
22
22
22
23
23
22
22
22
22
22
22
22
22
22
22
22
22
22
22
22
22
22
21
21
22
21
21
22
21
21
22
21
21
21
21
21
21
21
21
21
21
21
21
21
21
21
21
20
20
20
20
20
20
20
20
20
21
20
20
20
20
20
20
20
20
20
20
21
20
20
21
21
20
20
21
21
21
21
21
21
21
22
21
21
21
21
21
21
21
20
20
21
21
21
21
20
20
20
21
20
20
20
20
20
20
20
20
21
20
20
20
20
21
21
20
20
21
21
21
21
21
20
20
20
20
19
19
19
19
20
20
19
19
19
19
18
19
19
18
19
19
19
19
19
20
19
19
20
19
19
19
19
20
20
20
20
20
21
20
20
20
20
20
20
20
20
20
20
20
19
20
20
20
20
19
19
19
20
19
19
19
19
19
19
19
19
19
19
20
20
20
20
20
20
20
21
20
20
20
20
20
20
20
20
20
20
20
19
20
20
20
20
20
20
20
19
20
20
20
20
20
20
19
20
20
20
20
20
20
21
20
20
20
20
21
20
20
21
21
21
20
21
21
20
20
21
21
21
21
21
20
20
20
20
20
20
21
20
20
20
20
20
20
20
20
20
20
20
19
20
20
20
21
20
20
21
21
21
21
21
21
21
21
22
22
21
21
21
21
21
21
21
21
21
21
21
21
21
20
20
20
20
21
21
21
21
21
21
21
21
22
22
22
22
22
22
22
22
23
22
22
23
23
22
23
23
23
23
24
23
24
24
24
24
24
25
24
25
25
25
25
25
26
25
26
26
26
26
26
26
26
26
26
26
25
26
25
26
25
26
26
26
26
25
26
26
26
26
26
27
27
28
28
28
28
29
30
30
30
31
31
31
32
32
33
33
34
34
35
36
36
36
37
37
37
38
37
38
38
38
38
38
39
38
38
38
39
39
40
40
41
40
41
40
41
41
41
42
42
42
43
42
42
42
42
41
41
41
40
40
39
38
37
36
36
34
34
33
31
31
29
28
28
27
26
25
25
24
24
23
23
23
23
22
22
22
21
21
21
21
21
21
21
21
21
21
21
21
21
21
22
21
21
21
21
21
21
22
23
23
23
23
23
23
23
23
23
23
23
24
24
23
24
24
24
23
23
24
23
23
23
23
23
23
23
23
23
23
23
23
23
24
24
23
23
23
23
22
22
21
20
18
18
17
15
14
13
12
10
9
7
6
5
5
5
5
6
8
10
12
15
18
23
28
33
38
46
54
63
72
82
93
105
118
130
142
156
170
182
196
209
221
233
245
257
269
279
289
299
307
314
321
326
330
333
335
334
333
331
327
321
315
308
299
289
279
267
255
243
229
216
201
187
173
159
147
134
122
112
101
92
84
77
69
63
59
54
51
49
46
45
43
42
42
41
41
41
41
41
41
41
40
40
40
39
39
39
39
39
38
38
37
37
36
36
35
35
34
35
34
34
34
34
34
33
33
33
33
33
33
34
34
34
34
33
34
34
34
35
35
34
34
35
35
35
36
36
36
36
36
36
37
37
37
37
38
38
39
39
39
40
39
40
41
40
40
41
40
41
40
41
41
41
41
41
41
40
41
40
41
41
40
40
41
41
40
41
41
42
42
42
43
43
42
43
43
44
44
44
45
45
46
46
47
47
47
47
48
48
48
49
49
50
49
50
50
51
51
51
51
52
52
52
52
53
53
53
54
54
55
54
55
55
55
56
56
57
58
58
58
58
59
59
60
61
61
62
63
63
64
64
65
66
66
67
66
67
68
68
69
69
70
71
71
72
72
73
73
75
75
76
77
77
78
80
80
81
82
83
84
84
86
87
87
88
89
89
91
92
92
93
95
95
96
97
99
99
100
101
102
103
105
105
106
108
109
110
111
113
113
114
116
116
118
118
120
121
121
123
123
125
125
125
127
127
128
128
128
130
130
130
130
131
131
132
132
132
133
132
133
133
134
133
134
134
134
134
133
134
133
134
133
132
132
131
132
131
130
129
129
129
128
127
126
125
124
124
123
121
120
119
118
117
116
115
113
112
111
110
108
107
105
104
103
101
100
98
97
95
94
93
91
89
88
86
84
84
82
80
79
78
76
74
73
72
71
69
68
67
66
66
64
63
62
61
60
60
59
57
57
56
55
55
54
53
52
51
51
51
50
49
48
49
48
48
47
47
47
46
46
46
46
46
46
45
45
45
45
44
44
44
43
43
43
42
42
42
42
42
42
42
42
41
41
41
41
41
41
42
42
42
42
42
42
42
42
42
42
42
42
42
42
42
42
42
42
41
41
41
41
41
40
40
40
40
40
40
40
40
41
42
42
42
41
41
41
41
42
42
42
42
43
42
42
43
42
42
43
42
42
42
42
41
42
42
42
42
42
42
42
42
42
42
41
41
42
42
42
42
42
43
43
43
43
43
44
44
44
44
44
44
44
44
44
45
44
44
44
44
44
44
44
43
43
44
44
43
43
43
43
43
43
43
43
44
44
44
44
44
44
44
44
44
44
44
44
44
44
44
44
45
45
45
45
45
44
44
44
44
44
43
43
43
43
42
42
42
42
42
42
42
42
42
41
41
41
42
42
42
42
42
42
42
42
42
43
43
43
43
43
43
43
43
43
43
43
43
43
44
44
44
44
44
44
44
43
43
44
43
43
43
43
42
42
42
42
42
42
42
42
42
41
41
42
42
42
42
42
42
42
42
42
42
42
42
42
42
42
42
42
42
42
42
42
42
42
42
42
42
42
42
42
42
42
41
41
41
41
42
42
42
42
42
41
41
41
41
41
41
41
42
42
42
42
42
42
42
42
42
41
41
41
42
42
42
42
42
42
42
42
42
42
42
41
42
42
42
42
42
42
42
42
42
42
41
41
41
41
41
41
41
41
40
40
40
40
40
40
40
40
40
40
41
41
41
41
41
41
42
42
43
43
43
43
43
43
42
42
42
42
42
42
42
42
41
41
41
41
40
40
40
40
40
40
40
40
40
40
39
39
39
39
39
39
39
39
40
39
39
40
40
40
40
41
41
40
41
41
42
42
42
42
42
42
43
43
43
43
43
43
43
42
42
42
42
42
42
42
42
42
42
42
42
42
41
41
42
42
42
41
41
42
42
42
42
42
42
42
42
42
42
42
42
42
42
42
42
42
42
42
42
42
42
41
41
41
42
42
42
42
42
41
41
42
42
42
42
42
43
43
42
42
43
43
43
43
43
43
44
43
43
43
43
44
43
43
43
43
43
43
43
43
42
42
42
42
42
42
42
42
42
42
42
42
42
42
41
41
42
42
42
42
42
42
42
42
43
42
42
42
42
42
42
42
43
43
43
43
43
43
42
42
42
43
43
43
43
43
43
42
42
42
42
43
43
43
42
42
42
42
42
42
42
42
42
42
42
43
43
43
43
43
43
43
43
43
43
43
43
43
43
43
43
43
43
43
43
43
43
43
43
43
44
43
43
44
44
44
44
45
44
45
45
46
45
46
46
46
47
47
48
47
48
47
48
47
48
47
48
47
48
48
48
48
48
48
48
48
48
49
49
49
48
49
49
50
50
50
51
51
52
52
53
53
54
54
54
55
56
56
56
57
57
58
59
58
59
59
59
59
59
59
59
60
59
60
60
60
61
60
60
60
61
61
61
61
62
61
61
61
62
62
61
61
61
60
60
60
59
58
58
57
56
55
54
53
51
51
49
48
47
46
45
44
43
43
41
40
40
39
39
39
38
38
38
37
37
37
37
37
37
37
37
37
37
38
38
38
38
38
39
39
39
39
39
39
39
39
39
39
39
39
39
39
39
39
38
38
38
39
39
38
38
38
38
38
38
38
38
37
38
38
38
38
38
38
38
38
38
38
38
38
38
37
37
37
37
35
35
33
33
32
30
29
28
27
25
24
23
22
21
21
20
21
22
22
24
27
30
33
37
42
48
54
61
69
77
87
97
108
119
131
143
156
170
183
197
211
224
238
250
262
275
286
297
308
318
326
334
341
346
351
353
355
355
354
352
348
343
337
329
320
311
301
290
278
265
252
237
224
209
195
181
168
155
142
131
121
111
102
94
87
80
75
71
67
64
61
59
58
56
56
56
55
55
55
55
56
55
55
55
56
56
56
56
55
56
56
55
55
54
54
54
54
53
52
52
52
52
51
51
50
50
50
48
48
48
47
47
47
47
47
47
47
47
47
47
47
48
48
48
48
49
49
50
50
50
51
51
51
52
52
52
53
53
54
54
54
55
55
55
55
55
56
56
55
55
55
56
56
56
56
56
56
56
56
56
57
57
56
56
57
57
57
58
59
59
59
60
60
60
59
60
60
61
61
62
61
62
62
62
62
62
62
63
63
62
62
63
63
64
64
64
65
65
65
65
66
66
66
67
67
68
68
69
69
70
70
71
70
71
72
72
72
72
73
73
74
75
75
76
77
76
77
77
78
79
79
80
81
81
82
82
83
83
84
84
85
86
87
86
87
88
88
89
90
91
91
92
92
93
94
94
95
96
96
97
98
100
100
101
102
102
103
104
105
106
107
108
109
109
110
111
112
113
114
115
116
116
118
119
120
121
122
122
124
125
125
127
127
128
129
130
131
132
132
132
134
134
135
135
136
137
137
137
138
138
139
139
140
140
140
141
141
142
141
142
143
142
143
143
143
144
143
144
143
143
144
143
143
143
143
143
142
142
141
141
140
139
139
138
137
137
136
135
134
133
132
131
130
128
126
125
123
122
121
119
118
117
114
113
111
111
109
108
106
106
104
102
101
100
98
97
96
95
93
92
90
90
88
87
85
84
83
81
80
79
78
77
75
75
73
73
71
70
70
68
67
67
66
65
64
64
63
63
62
61
61
60
59
59
58
57
56
56
55
55
55
54
54
53
53
53
52
52
51
50
50
50
49
49
49
49
48
48
48
47
48
48
48
47
48
48
48
48
48
48
48
48
48
48
49
49
49
49
48
48
49
49
49
49
49
48
48
48
48
49
48
48
48
48
48
48
48
48
48
48
48
48
48
49
49
49
49
49
50
50
50
50
50
50
50
50
50
50
50
50
50
50
50
50
50
50
50
50
49
49
49
49
49
49
49
49
49
49
49
49
48
48
48
48
48
48
48
48
48
49
49
49
49
48
48
48
49
49
49
49
49
49
49
49
49
49
49
49
49
49
49
49
49
49
49
49
49
49
49
49
49
49
49
49
49
49
49
49
49
49
49
49
49
49
49
49
49
49
49
49
49
49
49
49
49
49
49
49
49
49
49
49
49
49
50
50
50
49
49
49
50
50
50
50
50
50
50
49
49
49
49
49
49
49
49
49
48
48
48
48
48
48
48
49
49
48
48
48
48
48
48
48
48
48
48
48
49
49
49
49
48
48
48
49
49
49
49
48
49
49
49
48
48
48
48
48
48
48
48
48
48
49
49
49
49
49
49
50
50
50
50
50
49
49
49
49
49
48
48
48
48
48
48
48
48
48
48
48
47
47
47
48
48
48
48
49
49
49
49
49
50
50
50
50
50
50
50
50
50
50
50
50
50
50
51
50
50
50
50
51
51
51
51
50
50
50
50
50
50
50
50
49
49
49
49
49
49
49
49
49
49
50
49
49
49
49
49
49
49
49
49
49
49
49
49
49
49
48
48
48
49
49
50
50
50
49
49
49
49
49
50
50
50
50
50
50
50
50
50
50
50
50
50
50
50
49
49
49
49
50
50
50
49
49
49
49
49
49
49
49
49
49
50
50
50
50
50
50
50
50
50
50
50
50
50
50
50
50
50
50
50
50
50
50
49
49
49
49
49
49
49
49
49
49
49
49
49
49
49
49
50
50
50
50
50
50
50
50
50
51
51
51
50
50
50
50
50
50
50
50
50
49
49
49
49
48
48
48
48
48
48
48
48
48
48
48
49
49
49
50
50
50
50
50
50
50
50
49
50
50
50
50
50
50
49
49
49
49
49
49
49
49
48
48
48
48
49
49
49
49
49
49
49
49
49
49
49
49
50
50
50
50
50
50
51
51
51
51
51
50
50
50
50
50
50
49
49
49
49
49
48
48
49
49
49
49
49
49
49
49
49
49
49
49
49
49
49
50
50
50
50
50
51
51
51
51
51
50
51
51
50
51
51
50
51
50
51
51
51
52
51
52
51
52
52
52
52
52
52
53
52
53
52
52
52
53
52
53
52
52
52
52
52
52
52
52
52
52
53
52
53
53
54
54
54
55
56
56
57
58
58
59
60
60
60
62
62
62
63
63
63
64
64
65
65
65
65
65
65
65
64
65
64
65
64
64
65
64
64
64
64
65
65
65
65
65
66
66
66
66
66
66
66
65
66
65
64
65
64
64
63
61
61
60
60
58
57
56
54
54
53
52
51
50
50
49
48
47
47
46
46
45
45
45
45
45
45
45
45
45
45
45
46
46
46
46
46
46
46
46
46
46
46
46
46
46
46
46
46
46
46
46
46
46
46
46
46
46
46
46
46
46
46
46
46
46
46
46
46
46
46
46
46
46
46
46
46
46
46
46
45
45
44
44
43
43
42
41
40
39
38
36
35
34
33
31
29
29
28
28
28
29
30
32
34
36
39
43
47
52
58
65
73
80
89
98
109
119
131
141
154
166
178
189
202
213
224
236
246
257
267
277
286
295
303
310
316
321
325
329
331
332
331
329
327
322
316
311
302
294
284
274
264
251
239
226
213
199
186
173
161
148
137
126
116
107
98
91
85
79
75
70
67
65
63
61
60
59
59
59
59
59
59
59
59
60
61
60
60
60
60
59
59
59
59
58
58
58
57
57
56
56
55
54
53
53
52
53
52
52
52
52
52
52
52
52
53
53
53
53
54
54
54
54
54
54
54
54
54
54
54
55
55
55
55
54
55
55
55
55
55
55
55
55
56
56
56
56
56
56
56
57
57
57
57
57
59
59
59
59
59
59
59
60
60
60
60
60
61
61
61
62
62
62
62
63
62
62
63
63
63
63
63
63
63
64
64
64
65
65
65
66
66
66
66
68
68
68
69
69
70
70
70
70
70
71
71
72
72
72
72
72
73
73
73
74
74
74
74
75
75
75
76
76
77
77
77
77
78
78
79
79
80
81
81
81
82
82
83
83
84
84
85
86
86
87
88
88
89
90
90
91
92
93
94
95
96
96
97
98
99
100
101
102
103
104
105
106
107
108
108
109
109
110
111
112
113
114
114
115
116
117
118
118
119
120
121
122
123
124
125
125
127
127
128
130
130
131
132
132
134
135
135
136
136
137
138
138
139
140
141
141
142
142
143
143
144
145
145
146
146
145
146
146
147
147
147
148
148
148
148
148
148
148
147
148
147
147
147
147
147
146
146
144
144
144
143
142
142
140
140
139
138
137
136
135
133
132
131
130
129
127
126
124
122
121
119
117
116
115
114
112
110
109
107
106
104
102
101
99
99
97
95
94
92
92
90
89
88
87
85
85
83
83
82
81
80
79
78
77
77
75
74
73
72
72
71
69
69
68
67
66
65
64
63
62
63
62
61
60
60
59
58
58
58
58
58
57
57
57
56
56
56
56
55
56
56
55
55
55
54
55
55
55
54
55
55
54
54
54
54
54
54
54
54
54
55
54
54
54
54
55
55
54
54
54
54
54
54
54
54
54
54
54
54
54
53
53
53
53
53
53
53
53
53
54
54
54
54
54
54
55
55
55
54
54
54
54
56
56
56
56
56
56
56
56
56
56
55
55
54
54
54
54
54
54
54
54
54
54
53
53
54
54
54
53
53
54
54
54
54
54
54
54
55
55
56
56
56
56
56
56
57
57
56
56
57
57
57
57
57
57
57
57
58
59
58
58
58
58
58
59
59
59
59
59
59
59
59
59
58
58
58
58
58
58
58
58
58
59
59
58
58
58
58
59
59
59
59
59
59
60
60
60
60
59
59
59
59
59
59
59
59
59
58
58
58
58
58
58
58
57
57
57
57
57
57
57
57
57
57
57
57
57
57
58
58
58
58
58
58
58
58
58
58
58
58
58
58
58
58
58
58
58
58
58
58
58
58
58
58
58
58
59
59
59
59
59
59
59
59
59
59
59
59
59
59
59
59
59
59
59
59
59
59
59
59
59
59
59
60
60
60
60
60
60
60
60
60
60
60
60
60
60
61
61
61
61
61
61
61
60
60
59
59
59
59
59
59
59
59
58
58
57
57
57
57
58
58
58
58
58
58
58
58
58
59
59
59
59
59
59
59
59
59
59
59
59
59
59
59
59
59
59
59
59
59
59
59
59
59
59
58
59
59
59
60
60
60
60
59
60
60
60
60
60
61
61
61
61
61
61
61
61
61
61
61
61
61
61
60
60
60
60
60
60
61
61
61
61
61
61
61
61
61
61
60
60
60
60
60
60
60
61
61
61
61
59
59
59
60
60
60
60
60
60
59
59
59
59
59
59
59
58
59
59
59
59
59
59
59
59
59
59
59
59
59
59
59
59
60
59
59
59
59
59
60
60
60
60
60
60
60
60
60
60
60
61
61
61
61
61
61
61
61
61
61
61
61
61
61
61
61
60
60
60
60
60
60
60
60
60
60
60
60
60
60
60
60
60
60
60
60
60
60
60
60
60
59
60
60
59
60
59
59
60
59
60
60
60
60
61
61
60
61
61
62
62
62
63
62
62
63
62
63
63
62
63
63
63
63
63
63
63
63
63
63
64
63
63
64
64
64
64
64
65
65
66
66
66
67
67
68
69
69
70
70
70
71
71
71
71
71
72
72
72
72
73
73
72
73
73
72
73
72
73
73
74
73
73
74
74
74
74
74
76
76
76
76
76
76
76
76
77
77
77
76
76
76
75
75
74
73
72
71
70
69
68
67
66
65
64
63
62
61
60
60
59
58
57
57
57
57
56
55
56
56
55
55
55
56
56
56
56
56
57
57
57
57
57
57
57
58
58
58
57
58
58
58
58
58
58
58
58
58
57
57
57
57
57
57
57
57
57
57
58
57
57
57
57
57
57
57
58
58
58
57
57
57
57
57
57
57
56
56
56
55
54
52
52
50
49
49
47
47
45
44
43
42
42
41
41
41
42
43
45
47
49
53
57
61
66
72
78
85
93
101
109
119
129
139
149
161
171
183
194
205
216
227
236
247
256
266
275
284
292
299
306
312
317
321
324
326
326
326
325
321
318
312
307
299
291
282
272
262
251
239
227
214
201
189
176
164
153
142
133
123
115
108
101
95
90
86
83
79
77
75
74
74
73
72
72
72
72
71
72
72
72
71
72
71
71
72
71
70
71
70
69
70
69
68
68
68
67
66
67
66
65
66
65
65
65
65
64
64
64
64
64
64
64
64
64
64
64
64
65
65
65
65
65
65
65
65
66
66
66
66
66
66
66
66
66
67
67
67
67
67
67
68
68
68
68
68
69
69
68
68
69
69
69
69
69
69
70
70
70
70
71
71
71
71
72
72
72
73
73
74
74
75
75
75
76
76
76
76
77
77
77
76
77
77
77
78
77
77
77
77
78
78
77
77
78
78
78
78
79
79
79
79
80
81
81
81
82
82
82
82
83
83
83
84
84
84
85
85
86
86
87
87
87
88
88
89
89
90
90
90
91
91
92
92
93
93
94
94
95
96
97
97
98
98
98
99
100
101
101
102
103
103
104
105
106
106
107
108
109
110
111
112
112
113
114
115
116
117
118
119
120
121
122
122
123
124
125
126
127
128
129
129
130
131
132
133
133
134
135
135
136
136
137
138
138
140
140
141
141
142
142
143
144
144
145
145
146
147
146
147
148
148
149
149
150
150
150
151
151
151
152
152
152
152
152
153
152
152
153
152
152
151
151
151
150
150
149
148
147
147
145
145
143
143
141
141
140
139
138
137
136
135
134
132
132
131
129
129
127
126
124
124
122
120
119
117
116
114
112
111
109
108
106
104
103
101
100
98
97
95
94
93
92
91
89
89
87
86
86
84
84
82
81
80
79
78
77
77
76
74
74
73
73
72
72
71
71
70
70
70
69
69
68
68
67
67
66
66
66
65
64
64
63
62
62
61
61
60
60
59
59
59
58
58
58
57
57
57
56
57
57
56
57
57
56
57
57
57
56
57
57
57
57
56
56
56
57
57
57
57
57
57
57
57
57
57
57
57
57
57
57
57
57
57
57
57
57
57
57
56
56
56
56
56
56
56
56
56
56
57
57
57
58
58
58
57
58
58
58
59
59
58
58
58
59
59
59
58
58
58
58
58
58
58
58
58
58
58
58
58
58
58
58
58
58
58
58
58
58
58
58
58
58
58
58
58
58
58
58
58
58
59
59
59
59
59
59
59
58
58
58
59
59
59
58
58
58
58
58
59
59
58
58
58
58
59
59
59
59
59
59
58
59
59
59
58
59
59
59
58
59
59
58
58
58
59
58
58
58
57
58
58
58
57
57
58
57
57
57
57
57
57
57
57
56
57
57
57
56
56
57
57
56
57
57
57
56
56
57
57
57
56
57
57
57
56
56
57
57
57
56
57
57
57
57
56
56
57
57
57
57
57
56
56
56
56
55
55
55
54
54
54
54
54
54
53
53
53
53
54
54
53
53
54
54
54
54
55
55
55
54
55
55
55
55
55
55
55
55
55
55
55
54
55
55
55
55
55
55
55
55
54
55
55
55
55
55
55
55
55
55
55
55
55
54
54
54
55
55
55
55
55
54
54
54
54
54
55
55
55
54
55
55
55
55
54
55
55
55
54
55
55
55
55
54
55
55
55
55
54
54
53
53
53
53
53
52
52
52
52
52
52
52
52
52
52
52
52
52
53
53
53
53
53
53
54
54
54
54
54
54
54
54
54
54
54
55
55
55
55
54
54
54
54
54
54
54
54
54
54
54
54
54
54
54
55
55
55
54
54
54
54
54
54
54
53
53
53
53
53
53
53
52
52
52
52
52
52
52
52
52
52
52
52
53
53
53
52
52
52
52
53
53
53
53
53
54
54
54
54
54
54
54
54
54
54
54
54
54
53
53
53
53
53
53
53
53
53
53
53
52
52
52
52
52
52
51
51
51
51
51
51
51
52
52
52
52
52
52
52
52
52
53
53
52
53
53
53
53
53
53
53
52
52
52
53
53
53
53
53
52
52
52
53
53
53
53
53
53
53
53
53
54
54
54
54
54
54
54
54
55
54
54
55
55
54
55
54
55
55
55
55
55
55
55
55
55
55
56
55
55
55
55
55
55
55
54
55
55
54
55
54
55
54
54
54
55
54
55
56
55
56
56
56
56
57
57
58
57
58
59
59
60
61
61
62
63
63
64
64
64
64
65
66
66
66
67
67
68
67
68
67
68
67
68
67
68
67
68
68
68
68
68
69
69
69
69
70
70
70
71
71
71
71
72
72
72
72
73
73
72
72
71
71
70
69
68
68
66
65
64
63
62
60
59
57
57
56
54
54
53
52
51
51
50
50
49
49
49
49
49
49
49
50
50
49
50
50
50
51
51
51
52
52
52
53
53
53
52
53
53
53
53
53
53
53
53
53
53
53
53
53
53
53
53
53
53
53
53
53
53
53
53
53
53
53
53
53
53
53
53
54
53
53
53
54
53
53
52
52
50
49
49
48
47
45
44
43
42
40
39
38
37
36
36
37
37
38
40
41
44
47
52
56
62
69
77
84
93
103
113
123
134
146
158
171
184
197
210
223
236
248
260
271
282
293
304
313
323
330
337
343
349
353
354
356
356
356
353
349
343
338
330
321
312
301
290
278
266
253
239
225
211
198
184
171
159
148
137
127
117
110
102
96
91
86
82
78
76
74
73
70
69
69
69
68
68
68
68
68
68
68
67
67
68
67
67
66
66
66
65
65
64
64
64
63
62
61
62
61
61
60
61
60
60
60
60
59
59
59
59
59
59
59
59
59
60
60
60
60
61
61
61
61
61
61
61
61
61
61
61
62
62
62
62
62
62
63
63
64
64
64
64
64
64
64
64
64
65
65
65
66
65
65
66
66
66
66
67
67
67
67
68
68
68
68
68
69
69
69
69
69
70
70
70
71
71
71
72
71
71
72
72
72
73
72
72
73
73
73
73
74
74
74
75
75
75
76
76
76
76
77
78
78
79
79
79
79
80
80
80
81
81
83
83
83
84
84
84
85
86
86
87
87
88
88
89
89
90
90
90
90
91
92
92
92
93
94
94
95
96
95
96
97
98
98
98
99
99
100
100
101
102
102
102
103
104
105
106
107
107
108
109
110
110
111
112
113
114
114
116
117
118
119
120
120
122
123
124
125
125
127
128
128
130
131
132
134
135
136
137
138
140
140
141
143
143
144
146
146
147
148
149
149
151
151
152
152
153
153
154
154
155
155
155
156
156
157
156
157
157
157
157
158
157
157
157
157
157
157
157
157
157
156
156
156
155
155
154
154
153
151
151
150
149
147
147
146
144
143
142
140
139
138
136
135
134
132
131
129
128
127
125
123
123
121
119
118
117
115
114
112
111
110
108
106
106
104
102
102
100
98
97
95
95
93
92
91
90
89
88
87
86
85
85
83
83
82
81
81
80
79
79
78
77
77
76
75
74
74
74
73
72
72
71
70
70
69
69
68
68
68
67
67
67
66
66
66
66
65
65
66
66
65
65
65
65
66
66
66
65
65
65
65
65
65
64
63
63
63
63
63
63
63
62
62
62
62
62
62
62
63
62
62
62
62
63
63
63
63
63
63
63
64
64
64
64
64
64
64
64
64
64
64
64
65
65
65
65
65
65
64
65
65
65
66
66
66
66
65
66
66
66
66
66
67
66
66
66
66
65
66
66
66
65
65
65
65
64
64
65
65
65
65
64
64
64
64
64
64
65
65
65
65
65
65
65
66
66
66
66
66
66
66
66
67
67
67
66
67
67
67
66
66
67
67
67
67
66
66
66
66
66
66
66
66
65
65
65
65
65
65
65
65
65
65
65
65
65
64
64
64
64
64
64
64
64
64
64
64
64
64
64
64
64
64
65
66
66
66
66
66
66
66
66
65
65
65
65
65
66
66
66
66
66
66
65
65
65
65
65
65
64
64
64
64
64
65
64
64
64
64
63
63
64
64
63
63
63
63
63
64
64
64
64
64
64
64
64
64
65
65
65
65
65
64
64
64
64
64
64
64
64
63
62
62
62
62
62
62
62
62
62
63
64
64
64
64
64
64
64
64
65
65
65
65
65
65
65
64
64
64
64
64
64
64
64
64
64
63
63
63
63
64
64
64
64
64
64
64
64
64
64
64
64
65
65
65
65
65
65
65
64
64
64
64
64
64
64
64
63
63
64
64
64
64
64
64
64
64
64
64
64
63
64
64
64
64
64
64
64
64
63
64
64
64
64
64
64
64
65
65
65
65
65
65
64
64
64
64
64
64
64
64
64
64
64
64
64
64
64
64
64
64
64
64
64
64
64
64
64
64
63
64
64
64
64
64
64
64
64
64
64
64
64
64
64
64
64
64
64
63
64
64
64
63
63
63
64
64
64
64
64
63
63
64
64
64
64
64
64
65
65
64
64
64
64
65
64
64
64
64
64
64
64
63
63
64
64
64
64
63
63
64
64
64
64
64
64
65
65
65
65
65
66
65
65
65
65
66
66
66
65
65
65
65
64
64
64
64
64
63
63
63
64
64
64
64
64
64
64
64
64
64
64
64
64
64
64
65
65
65
65
65
65
65
65
65
65
65
64
64
64
65
65
65
64
64
64
64
64
64
64
64
63
63
63
63
64
64
64
64
64
63
63
63
64
64
64
64
64
64
64
64
65
64
64
64
65
65
65
65
65
65
65
66
65
66
66
66
66
66
67
66
67
67
67
67
68
67
68
68
68
68
68
69
69
69
69
69
69
69
70
69
70
70
69
70
70
70
70
71
70
70
71
70
71
71
72
71
72
72
73
73
74
73
74
74
75
76
77
77
77
78
78
79
79
80
81
81
81
82
82
82
82
82
82
82
82
83
83
82
83
83
83
83
83
83
84
83
83
84
84
84
84
84
84
85
84
83
84
83
83
82
83
82
80
79
79
78
77
76
75
73
72
71
70
69
68
67
66
65
64
63
63
62
62
62
61
60
60
61
61
61
61
61
61
61
61
61
61
61
61
62
62
62
61
61
61
61
61
62
62
62
61
61
61
61
61
61
61
61
61
61
62
62
62
61
61
62
62
62
63
62
62
63
63
63
62
62
63
63
63
63
63
63
63
61
61
60
60
58
57
56
54
53
52
50
49
48
46
45
44
43
42
42
43
43
45
47
49
53
56
61
66
72
78
85
94
103
113
124
135
146
159
171
184
198
211
225
238
251
264
277
288
301
312
323
333
342
350
358
365
370
375
377
379
379
378
376
371
366
360
352
344
334
323
311
299
286
272
259
244
229
216
201
188
175
162
151
141
131
123
115
108
102
97
93
89
86
84
82
80
80
79
78
78
78
78
78
77
78
78
78
77
77
76
77
76
76
75
75
75
75
74
74
74
73
73
72
73
73
72
72
72
72
71
71
71
71
71
70
69
69
69
69
69
69
69
69
69
69
68
68
69
69
69
70
70
71
71
71
71
72
72
72
72
72
73
73
73
73
74
74
74
74
75
75
75
75
75
75
76
76
76
77
77
77
77
78
78
78
78
79
79
79
80
80
80
81
81
81
82
82
81
81
82
82
82
82
83
83
83
82
83
83
83
84
84
85
85
86
86
86
87
87
87
86
87
87
88
88
88
89
88
88
89
89
90
90
90
90
91
91
92
92
92
93
93
94
94
95
95
97
97
98
98
99
99
100
100
100
101
102
102
103
103
104
104
105
106
106
107
108
108
109
110
111
111
112
112
113
114
114
115
116
117
118
119
119
120
121
121
122
123
124
124
126
127
128
129
130
131
132
134
134
135
136
137
138
138
140
140
141
142
142
144
144
145
146
147
147
149
149
150
151
151
152
153
154
154
156
156
157
157
158
158
159
160
160
161
160
161
162
162
163
162
163
164
163
164
164
164
164
164
165
164
165
164
165
164
164
164
164
164
163
163
162
162
162
161
161
160
159
158
158
156
156
155
154
153
152
151
150
148
147
145
144
143
141
140
139
137
135
134
132
132
130
129
127
126
125
123
122
121
120
118
117
115
115
113
111
111
109
108
106
106
104
103
102
100
100
98
96
96
94
93
91
91
90
89
88
87
86
85
85
84
83
83
82
81
81
81
80
80
79
79
79
78
78
78
77
77
77
77
76
76
76
76
75
75
75
74
74
73
74
73
73
73
72
72
73
72
72
72
72
72
72
72
71
71
71
71
71
71
71
71
71
71
71
71
71
72
72
72
72
72
72
73
72
72
72
72
73
73
73
73
73
73
72
72
72
72
72
72
72
72
72
72
72
72
71
71
71
71
72
72
72
72
73
73
73
73
73
74
73
73
73
73
74
74
74
74
74
74
74
74
74
74
74
74
74
74
74
74
74
74
73
73
73
73
73
73
74
74
74
74
74
74
74
74
74
74
73
73
73
73
74
74
74
74
74
74
74
74
74
74
73
73
74
74
74
74
74
74
73
73
73
74
74
73
73
73
73
73
73
73
73
73
73
73
73
73
72
73
73
73
73
72
72
72
73
73
72
72
72
72
71
71
72
72
71
72
72
72
72
72
72
72
72
73
72
72
72
72
72
72
72
71
71
71
71
71
70
70
70
70
70
70
70
69
69
69
69
69
69
69
69
69
69
70
70
70
70
70
70
70
70
69
69
69
69
69
69
69
69
69
70
70
70
69
69
69
69
69
69
70
70
70
70
70
70
70
70
69
69
69
69
69
69
69
69
68
68
68
68
68
68
69
68
68
68
68
68
69
69
69
69
69
69
68
68
68
69
69
69
69
69
69
68
68
68
68
68
68
68
68
68
67
67
67
67
67
67
67
67
66
66
67
67
67
67
67
67
67
67
67
67
67
67
66
66
66
66
66
66
66
66
66
66
66
66
66
66
66
66
65
65
65
64
65
65
65
65
65
65
65
65
65
65
65
65
65
65
66
66
66
66
66
66
66
67
66
66
66
66
65
65
65
65
65
65
65
65
65
65
65
65
65
65
65
65
65
65
65
65
65
65
65
65
66
66
66
66
66
66
66
66
66
66
66
66
65
65
66
66
66
66
66
66
66
66
65
65
65
65
65
65
65
65
65
65
64
64
64
65
65
65
65
64
64
64
64
64
63
63
63
63
63
64
64
64
64
64
64
64
64
64
64
64
64
64
64
64
64
64
64
64
64
64
64
64
64
65
65
64
64
64
64
64
64
64
64
64
64
63
63
63
64
64
64
64
64
64
64
64
64
64
64
64
64
64
64
64
64
64
63
63
63
64
64
64
64
64
64
64
64
64
64
64
64
64
64
64
64
64
64
64
64
64
65
65
64
65
65
65
65
65
65
65
65
65
65
64
65
64
65
65
65
65
64
65
64
65
65
65
65
65
65
65
65
64
65
65
65
65
65
66
65
66
66
67
66
67
68
67
68
69
70
70
70
71
72
72
73
73
74
74
74
74
75
75
76
75
75
76
76
76
77
76
76
77
76
77
77
77
77
77
77
77
78
78
79
79
80
80
80
81
81
81
81
81
81
81
82
81
81
80
79
78
77
77
76
75
73
72
72
71
70
68
67
66
65
64
63
63
62
60
60
59
59
59
58
58
58
57
57
57
57
57
57
56
57
57
57
57
58
58
58
59
58
58
59
59
59
59
60
60
60
60
60
60
60
60
59
59
59
59
59
58
58
58
58
58
58
58
58
58
58
58
59
59
59
59
60
60
60
60
60
60
60
59
59
59
58
58
57
56
55
54
52
51
50
48
47
45
44
43
42
41
41
40
40
41
42
43
46
48
52
56
61
66
72
79
87
95
104
114
124
135
146
158
169
181
194
207
218
230
242
252
264
274
284
294
303
312
319
326
332
337
342
344
346
346
346
344
341
337
332
325
317
309
299
289
278
266
254
240
228
215
202
189
176
164
153
142
132
123
115
108
101
96
92
87
84
81
79
77
76
75
74
73
73
73
73
73
72
73
73
72
73
72
72
72
71
71
71
71
70
70
69
70
69
68
68
69
68
68
67
67
67
67
67
66
66
66
65
65
65
65
65
66
66
66
66
66
66
66
66
67
67
67
67
67
68
68
68
68
68
68
69
69
69
69
69
69
70
70
70
70
70
71
70
70
70
71
71
70
70
71
71
71
71
71
71
71
72
72
72
72
72
72
73
73
74
74
74
74
75
75
75
76
77
77
77
77
77
78
78
78
78
79
79
80
80
80
81
81
81
82
81
81
81
82
82
82
83
83
83
84
84
85
85
85
86
86
88
88
89
89
90
90
91
91
91
92
92
94
94
94
94
95
95
95
96
97
97
97
97
98
98
98
99
99
100
100
101
101
102
103
103
103
104
105
106
107
107
108
109
110
111
112
112
113
114
115
116
117
118
119
120
121
122
122
124
125
126
127
128
129
129
130
131
132
133
134
134
135
137
137
138
139
139
140
141
142
142
143
144
145
146
146
147
148
148
149
150
150
152
152
153
153
154
154
155
155
156
156
156
157
156
157
157
158
157
158
158
159
158
159
158
159
159
159
159
159
159
159
158
159
159
158
158
158
157
156
156
155
154
153
153
152
150
150
149
147
146
145
144
142
141
140
139
137
136
135
133
132
131
130
129
127
125
124
122
121
120
118
117
115
114
112
111
110
108
107
106
104
103
102
101
100
98
97
97
95
94
93
92
92
90
90
88
88
87
85
85
84
82
82
81
81
80
80
79
78
78
77
77
76
75
74
73
73
72
72
72
71
70
71
70
69
69
69
69
68
67
68
67
67
67
67
66
67
66
66
66
66
66
66
66
66
66
66
66
66
66
65
65
65
65
65
65
65
64
65
65
65
65
65
65
65
65
65
65
64
64
65
65
65
65
66
65
65
65
66
66
66
66
66
66
66
66
66
67
67
67
67
67
67
67
67
67
67
67
67
67
67
67
67
67
66
66
67
67
67
66
66
66
66
65
65
65
65
65
65
65
65
65
65
64
64
64
64
65
65
65
65
65
65
66
66
66
65
65
65
65
66
66
66
66
66
66
66
66
65
66
66
66
66
66
66
66
66
66
66
66
66
66
66
66
66
66
66
66
66
66
66
66
66
66
66
65
65
65
65
65
65
66
66
65
65
65
65
65
65
65
65
64
65
65
64
65
65
64
64
65
65
65
64
64
64
64
64
64
64
64
65
65
65
65
64
64
64
64
64
64
65
65
65
65
65
65
65
65
64
64
64
64
63
63
63
63
63
62
62
61
61
60
60
60
60
59
59
59
59
60
60
60
60
60
59
59
59
60
60
60
60
60
60
60
60
61
61
61
60
60
60
60
60
59
60
60
60
60
60
60
60
60
60
60
59
60
60
60
60
60
60
60
59
59
59
60
60
60
60
60
60
59
59
59
59
59
60
60
59
59
59
59
59
59
59
59
59
59
58
58
57
57
57
57
58
58
58
58
59
58
58
58
58
59
58
58
58
58
58
58
58
58
58
58
58
58
58
58
57
57
57
56
56
56
56
56
56
57
57
57
57
57
57
57
57
56
56
56
56
56
56
57
57
57
57
57
56
56
56
56
56
56
55
55
55
55
55
55
55
55
55
54
54
54
54
54
55
55
55
55
55
56
56
56
56
56
56
56
56
56
56
56
56
56
56
56
56
56
56
56
56
56
55
55
56
56
55
55
55
55
55
55
55
55
55
55
55
55
55
55
55
55
55
55
55
55
55
55
55
55
55
55
55
55
54
54
54
54
54
54
54
54
53
53
53
53
53
53
53
53
53
53
54
54
53
53
53
53
53
53
54
53
53
53
54
54
53
53
53
54
54
55
54
54
55
54
54
55
54
55
55
56
55
56
55
56
56
56
56
56
56
57
57
56
56
57
56
57
57
57
57
57
57
58
57
57
57
57
57
58
57
57
58
58
58
58
59
59
59
59
60
61
62
62
62
63
64
65
66
66
66
67
67
68
68
68
68
69
69
69
69
69
68
69
68
68
68
69
68
69
69
69
69
69
70
70
70
70
71
71
70
70
70
70
70
71
71
70
70
69
70
69
68
68
67
66
65
65
64
63
62
62
61
60
60
59
57
57
56
55
55
54
54
54
53
53
52
52
53
53
52
52
52
52
53
53
53
53
53
53
53
53
53
52
52
52
52
52
52
51
51
51
51
51
52
52
52
52
52
52
52
53
53
53
53
53
53
53
53
53
53
54
54
53
53
54
53
53
53
52
53
53
53
53
52
52
52
51
51
50
49
48
47
47
45
44
43
42
41
39
39
37
37
37
36
36
37
38
40
42
44
48
52
55
61
66
73
80
87
96
105
114
125
136
146
158
169
181
192
204
215
226
237
246
257
267
276
285
293
301
308
314
318
323
325
328
328
328
326
323
320
314
308
301
293
284
275
264
252
240
227
215
201
189
176
164
153
142
131
121
113
105
98
92
86
82
78
75
72
70
68
67
66
66
65
65
65
64
65
65
65
66
65
65
65
65
65
64
64
64
63
63
63
63
62
63
62
62
61
62
61
61
60
60
61
60
60
60
60
59
59
59
59
59
59
59
58
58
58
58
58
58
58
58
58
60
60
60
60
61
61
61
61
61
61
63
63
63
63
63
64
65
65
65
65
66
66
66
67
66
66
67
67
67
67
68
67
67
68
68
67
67
67
68
67
67
67
67
67
67
67
68
68
68
68
68
68
69
69
69
70
71
71
71
73
73
73
74
74
74
75
75
76
76
76
77
77
78
78
79
78
79
79
80
79
79
79
79
80
80
80
80
81
81
80
81
81
81
82
82
82
84
84
84
85
85
85
86
86
88
88
88
89
89
90
90
91
92
92
94
95
95
96
97
98
98
99
100
101
101
102
103
104
105
105
106
107
108
109
110
111
112
113
114
115
116
117
118
118
119
120
121
122
123
124
124
125
126
127
127
128
130
130
131
132
133
133
134
135
136
136
138
138
138
140
140
141
141
143
143
144
144
146
146
147
147
148
148
149
150
149
150
150
151
151
152
151
152
152
152
152
152
152
152
152
152
152
152
152
152
151
152
151
151
151
150
150
149
149
149
147
147
146
145
144
144
143
142
141
140
138
137
136
135
133
132
131
129
129
128
126
125
124
122
120
119
118
116
115
113
111
110
109
107
106
104
103
102
100
99
98
97
95
94
92
91
90
89
87
86
85
84
83
82
81
79
79
78
77
76
76
75
73
72
72
72
71
71
70
69
69
69
68
68
67
67
67
66
66
65
66
65
64
64
64
64
63
63
62
62
62
61
61
61
61
61
61
60
60
60
60
60
59
59
60
60
61
61
61
60
60
61
60
60
60
60
61
61
61
61
61
61
61
61
61
61
61
61
62
62
62
62
62
62
62
62
62
62
62
62
62
62
62
62
62
61
61
61
62
62
61
61
61
61
61
62
62
62
62
62
63
63
63
63
63
63
63
63
63
64
64
64
64
64
64
64
64
64
64
64
64
64
64
65
65
65
65
65
64
64
64
66
66
66
66
66
66
66
66
66
66
67
66
66
66
66
66
67
67
67
66
66
67
67
67
67
66
66
67
67
67
67
68
67
67
67
68
67
67
67
67
67
67
67
66
66
66
66
66
66
66
66
66
66
66
66
66
66
66
67
67
67
66
66
66
66
67
67
67
67
67
66
66
66
66
66
66
66
66
65
65
65
65
65
66
66
66
66
66
66
66
66
66
66
66
66
66
66
66
67
67
67
67
67
66
66
66
67
67
67
67
67
68
67
67
67
67
67
67
67
67
66
66
66
66
67
67
67
67
66
66
66
66
66
66
67
67
66
66
66
66
66
66
66
67
67
67
67
67
67
67
67
67
67
67
67
67
68
68
68
68
68
68
68
68
67
67
66
66
66
66
66
66
67
67
67
67
67
67
67
67
67
67
67
67
67
67
67
67
67
67
67
67
66
66
67
67
67
67
67
67
67
67
67
67
66
66
66
67
67
67
67
67
67
67
67
67
67
67
67
68
68
68
68
68
68
68
68
68
68
68
67
67
68
68
68
68
68
68
68
68
69
69
69
69
68
68
68
69
69
69
69
69
69
69
69
69
69
69
69
69
68
69
69
69
69
69
69
69
70
70
69
69
69
69
69
69
69
69
69
68
69
69
69
68
68
68
68
68
67
67
67
67
68
68
68
68
68
68
68
68
68
68
68
68
68
68
68
68
68
68
68
68
68
68
68
68
68
68
68
68
68
68
67
67
67
68
68
68
68
68
68
67
67
67
67
68
68
68
68
68
68
68
68
68
68
68
68
68
69
69
69
69
69
69
69
70
70
70
70
70
70
70
70
70
70
70
69
69
69
70
69
69
69
69
68
68
68
68
68
68
69
69
69
69
69
69
69
70
70
70
70
70
70
70
71
70
71
70
71
70
71
70
71
70
71
71
71
71
71
71
71
71
72
71
72
72
73
72
72
73
73
73
73
73
73
73
73
74
73
74
74
73
74
74
74
75
75
75
75
76
76
77
77
78
79
79
80
80
81
81
82
82
82
83
83
84
84
85
84
85
85
85
85
85
85
86
85
85
86
86
85
86
86
86
87
87
87
87
88
87
88
88
88
89
88
88
88
88
87
87
86
85
85
84
83
83
82
80
80
79
78
77
76
75
74
73
72
72
71
71
70
70
69
69
68
68
68
67
67
68
68
67
67
67
67
67
67
67
67
67
68
68
68
68
68
68
69
69
69
69
69
69
69
69
70
70
70
70
70
70
69
69
69
70
70
69
69
69
70
70
69
69
68
69
69
69
69
69
70
70
69
69
69
69
69
68
68
67
66
65
64
63
62
60
59
58
57
55
54
53
52
52
53
52
53
55
57
59
63
66
71
76
82
88
95
104
112
122
132
143
154
166
178
192
204
218
231
244
256
269
280
293
304
315
326
335
345
352
360
366
370
374
376
377
377
376
372
368
362
356
348
339
330
319
307
295
282
270
256
242
228
214
201
189
176
165
154
144
135
127
119
113
108
102
98
95
92
90
89
87
86
85
85
85
84
84
84
84
84
85
84
84
84
84
84
84
83
83
83
83
83
82
82
82
82
81
82
81
80
81
81
80
80
79
79
79
79
79
79
78
78
78
78
78
78
78
78
78
78
78
79
79
79
79
79
79
79
79
79
79
79
79
80
80
80
80
80
80
80
80
80
81
81
81
81
81
82
82
82
82
83
83
83
84
84
84
85
85
85
85
86
86
86
87
87
87
88
88
88
89
89
90
90
90
91
90
90
91
91
91
92
92
92
92
92
92
93
93
93
93
93
93
94
94
94
94
95
96
96
97
97
97
98
98
98
99
99
99
100
100
101
101
101
102
102
103
103
103
104
104
104
105
105
106
106
107
107
108
108
109
109
110
110
111
112
112
113
114
114
115
116
115
116
117
118
118
119
119
120
121
121
122
123
124
125
125
126
127
128
129
130
131
132
133
134
134
136
137
138
139
140
141
142
142
144
145
145
146
147
148
149
150
150
152
152
153
154
154
156
156
157
158
158
159
161
162
162
163
164
165
166
167
167
168
169
169
170
171
171
172
172
173
173
173
174
173
174
174
174
174
174
174
173
174
173
174
173
173
173
173
172
172
171
171
171
170
169
169
168
168
167
166
165
164
164
163
162
161
160
158
157
156
155
154
152
151
150
148
147
145
144
143
142
140
138
136
135
134
132
130
129
128
126
125
123
123
121
120
118
118
116
115
113
113
111
111
109
109
107
106
105
104
103
102
102
101
99
98
98
97
96
95
95
94
93
92
92
91
90
90
89
89
89
88
88
87
87
87
86
87
86
86
85
85
85
85
84
84
84
83
84
84
84
83
82
82
82
82
82
82
82
82
80
80
80
80
80
80
80
80
80
80
80
80
80
80
80
79
79
80
80
80
80
79
79
79
79
79
79
79
79
80
80
80
80
80
80
81
81
81
82
82
82
82
82
82
82
82
82
82
82
82
82
82
81
81
81
81
81
81
80
80
80
80
80
80
80
80
80
80
80
81
81
81
81
81
80
81
81
81
81
81
81
81
81
82
82
82
82
82
82
82
82
82
82
82
82
82
82
82
82
82
81
81
81
81
81
81
81
81
81
81
81
81
81
82
82
82
82
81
81
81
81
81
80
80
80
80
80
80
80
79
79
79
79
79
79
80
79
79
79
80
79
79
79
80
80
80
80
80
80
80
80
80
80
80
80
80
80
80
80
80
80
80
80
81
81
81
81
81
81
81
80
80
81
81
80
80
80
79
79
79
79
78
78
78
78
78
78
78
78
78
78
78
78
78
78
78
78
78
78
79
79
79
79
79
79
79
79
79
78
79
79
79
79
79
79
78
78
78
78
78
78
78
78
78
78
78
78
78
78
78
77
78
78
78
77
77
77
77
77
77
77
77
77
77
77
77
77
77
77
77
77
77
77
77
77
78
77
77
77
77
77
77
77
77
76
76
76
76
76
76
76
76
76
75
75
75
76
76
76
76
76
76
75
75
75
75
75
75
75
75
75
75
75
75
75
75
74
74
74
74
74
74
74
74
75
75
75
75
75
75
75
75
75
75
75
75
75
75
75
76
76
76
75
75
75
75
75
76
76
76
76
76
76
76
75
75
75
75
75
75
75
75
75
74
74
74
74
74
74
74
75
75
75
75
75
75
75
75
75
75
75
74
74
74
74
74
74
73
73
73
73
74
74
74
73
73
73
73
74
74
73
73
73
73
74
74
74
74
74
74
74
74
74
74
73
73
73
73
73
74
74
73
73
73
73
73
73
74
73
73
73
73
73
73
73
74
74
74
73
73
73
74
74
74
73
73
73
73
74
74
73
73
73
73
73
73
72
72
72
72
72
72
72
73
73
73
72
72
72
72
73
73
73
72
72
72
72
72
72
72
73
73
73
73
73
73
73
73
73
73
73
73
73
73
73
73
74
74
74
74
74
74
74
74
74
74
74
74
73
73
73
73
73
73
73
73
73
73
73
73
74
74
74
74
74
73
73
74
74
74
74
74
74
75
75
76
76
77
76
77
77
77
77
78
79
78
79
78
79
79
80
79
80
79
80
80
80
80
79
80
79
80
79
80
79
79
80
79
80
81
80
81
81
81
81
82
82
82
83
83
84
84
84
84
85
85
86
86
86
86
87
88
88
88
89
88
89
90
90
90
90
90
91
91
92
92
92
93
93
93
93
93
94
94
93
92
93
93
92
92
93
92
92
91
91
91
90
90
89
88
88
87
86
85
85
84
83
82
81
79
79
78
77
76
75
75
73
72
72
71
71
70
70
70
70
70
69
69
70
70
70
69
69
69
70
70
70
70
70
70
70
70
70
70
70
70
70
70
69
69
69
69
69
69
69
69
69
69
69
70
70
70
70
70
71
71
71
71
71
71
72
72
72
72
72
72
72
73
72
72
72
72
72
72
70
70
70
69
69
67
66
65
64
63
62
61
59
58
56
55
54
53
52
53
53
54
55
56
59
61
64
68
73
78
85
92
99
107
116
127
138
149
161
173
186
200
213
226
240
253
266
278
290
302
313
324
334
344
353
360
367
373
377
380
382
383
382
380
377
372
366
359
351
342
331
320
308
295
282
269
256
241
227
214
200
188
175
164
153
144
135
127
120
114
108
103
99
96
93
91
90
88
87
86
86
86
85
85
85
86
85
85
85
85
84
84
84
84
84
83
83
84
83
83
82
83
82
82
81
82
81
81
80
80
80
80
80
79
79
79
78
79
79
79
79
79
79
78
78
78
78
79
79
79
79
80
80
80
80
81
82
82
82
83
83
83
84
84
84
84
85
85
85
85
85
85
85
85
85
85
85
86
85
85
85
85
85
85
85
85
86
86
86
87
87
87
88
88
88
89
89
89
90
90
90
90
91
91
91
92
92
93
93
94
94
94
95
94
94
94
94
95
95
95
95
95
96
96
96
96
96
96
97
97
98
98
98
99
99
100
100
100
101
101
102
102
103
103
104
105
105
106
106
107
107
108
108
108
109
108
109
109
110
111
111
112
112
113
113
114
115
115
116
116
116
117
118
119
120
119
120
121
122
122
123
124
125
126
127
127
128
129
130
131
132
133
134
135
136
137
139
140
141
142
143
144
146
147
148
149
150
151
152
152
154
155
156
156
157
158
158
160
160
161
161
162
162
162
163
163
164
164
165
166
166
167
167
167
167
168
169
169
170
170
171
171
171
172
172
172
173
172
173
173
172
173
173
173
172
172
173
173
172
172
172
171
170
170
170
170
170
169
168
167
167
165
165
164
162
161
160
159
158
156
155
154
152
152
151
149
148
147
146
144
142
142
140
138
136
136
134
132
130
128
127
125
124
122
120
119
118
116
115
114
112
112
110
109
108
107
106
105
104
103
101
101
99
99
98
97
96
96
95
94
93
92
92
91
90
90
89
88
88
87
87
87
86
85
86
85
85
84
84
84
83
83
83
83
82
82
82
82
82
81
81
80
81
81
80
80
80
79
79
79
80
79
79
79
79
79
79
80
79
79
79
79
80
79
79
79
79
79
79
79
79
79
78
78
78
78
78
78
78
79
79
78
78
78
78
78
79
79
79
79
80
80
80
80
80
81
80
81
81
80
80
80
80
81
81
81
81
80
80
80
80
80
80
80
80
80
80
79
79
80
79
79
79
79
80
80
80
80
80
80
80
79
79
79
79
79
79
79
79
79
79
79
79
80
80
80
79
79
80
80
80
81
80
80
81
81
81
80
80
81
81
81
80
80
80
80
80
80
80
79
79
79
79
78
78
78
77
77
77
77
77
77
76
76
77
77
76
76
76
76
76
76
76
75
76
76
76
76
76
76
77
76
76
76
76
76
76
76
77
77
77
77
78
78
77
77
77
77
78
77
77
77
76
77
77
76
76
77
76
76
76
76
76
76
76
76
76
76
76
76
76
76
75
74
74
74
75
75
75
75
75
75
75
76
75
75
75
76
75
75
75
75
75
76
76
75
75
75
75
74
74
74
74
73
73
72
72
72
72
72
72
72
72
72
72
72
72
72
72
73
72
72
72
72
72
72
72
72
72
72
72
72
72
72
72
72
72
73
73
73
73
73
73
73
74
74
74
74
73
73
73
73
73
73
73
73
73
73
73
73
73
73
73
73
73
73
73
72
72
72
72
72
72
72
72
72
71
72
72
72
72
71
71
72
72
72
72
72
73
73
73
73
73
73
73
73
73
73
73
73
73
73
72
72
72
72
72
72
72
72
72
71
71
71
71
71
71
71
71
70
70
70
71
71
71
71
71
71
71
71
71
71
71
71
71
71
71
71
72
72
72
72
72
72
72
72
72
72
72
71
71
71
71
71
71
72
72
72
71
71
71
72
72
72
72
72
72
72
72
72
72
72
72
71
71
71
71
71
71
71
71
71
71
71
71
71
71
71
71
71
71
71
71
71
72
72
71
71
71
71
71
72
72
71
71
71
71
72
72
71
71
71
71
71
70
70
70
70
70
70
71
71
71
71
71
71
71
71
71
71
71
71
71
71
70
70
70
70
70
70
71
71
70
70
70
70
70
71
70
71
70
71
71
70
71
70
71
71
70
71
71
71
71
70
70
71
71
70
71
71
71
70
71
71
71
71
71
72
72
72
72
72
72
73
72
73
73
73
73
73
74
74
73
74
74
75
75
75
76
76
76
77
76
77
77
78
77
78
78
79
79
79
80
80
80
80
81
81
81
81
82
82
82
83
82
83
83
84
84
84
85
85
86
86
86
86
87
87
87
87
87
87
87
87
86
87
86
86
86
85
84
83
82
82
81
80
79
78
77
76
75
74
75
74
73
72
71
71
70
70
69
69
69
68
68
68
68
68
67
67
67
67
67
68
67
67
67
67
67
67
67
67
67
67
67
67
67
68
68
68
68
68
68
68
68
68
68
68
68
68
68
68
68
68
68
68
67
67
67
67
67
67
67
66
66
66
66
66
66
66
66
65
65
65
65
64
65
64
64
63
62
61
61
60
59
58
57
56
55
54
53
52
52
53
53
54
55
56
57
59
61
65
68
74
79
85
92
99
107
116
125
135
145
156
167
180
191
202
214
225
235
246
256
267
276
286
294
302
310
316
323
328
332
335
336
338
338
336
333
329
325
318
311
303
295
285
273
263
251
238
226
213
200
188
176
164
153
142
133
124
117
109
103
98
93
90
86
83
82
80
79
78
78
77
76
76
76
77
76
77
76
76
77
76
76
75
76
76
75
75
75
74
75
74
74
74
74
73
74
73
73
73
73
73
73
73
73
73
72
73
73
73
72
72
73
73
73
73
73
73
73
73
73
73
73
73
73
73
73
73
74
74
74
74
74
74
75
75
75
75
75
75
75
76
76
76
76
76
76
76
76
76
76
76
76
76
76
76
76
76
77
77
77
77
77
77
77
78
78
78
78
78
79
79
79
79
80
80
80
81
80
81
81
81
82
82
81
82
82
82
83
83
83
83
83
83
83
84
84
85
85
84
85
85
85
86
86
87
87
88
88
88
89
89
90
90
91
91
92
92
92
93
93
93
94
94
94
95
95
96
96
96
97
98
98
99
99
100
101
101
102
102
102
103
104
105
104
105
106
107
108
108
109
109
110
111
112
112
113
113
114
115
116
117
117
118
119
120
121
121
122
123
125
126
126
127
128
129
129
130
131
132
133
134
134
135
136
137
137
138
138
140
140
141
142
142
143
144
144
145
146
147
148
148
149
149
151
151
152
152
153
153
154
154
155
154
155
155
156
156
156
156
157
156
156
156
156
156
156
155
155
155
154
154
153
153
151
151
150
149
149
147
147
146
144
143
142
141
140
139
137
136
134
133
132
130
129
128
126
126
124
122
121
119
118
117
115
113
113
111
109
108
107
105
104
103
101
101
99
99
97
96
95
94
92
92
90
90
88
88
86
84
84
83
81
81
79
78
78
76
76
75
74
73
72
71
71
71
70
70
69
69
69
69
68
68
68
67
67
67
67
67
66
67
66
66
66
66
65
65
66
65
65
65
65
65
64
64
63
63
62
62
62
62
62
62
62
61
61
61
61
60
60
60
61
61
60
60
60
60
60
60
60
61
61
61
61
61
61
61
61
61
61
61
61
62
61
61
61
61
61
61
61
60
60
60
60
60
60
60
60
60
61
61
61
61
61
62
62
62
62
62
62
62
62
62
62
62
62
62
62
62
62
62
62
62
62
62
62
62
62
62
61
61
61
61
61
61
61
61
61
61
61
61
61
62
61
61
61
61
61
61
61
61
61
61
62
62
62
62
62
62
62
62
61
61
61
61
61
61
61
61
61
61
61
61
61
61
61
61
60
61
61
61
61
61
61
60
60
61
61
