# Simple Text Format
# Sampling Rate (Hz):= 1200.00
# Resolution:= 12
# Labels:= ECG	 V5
# Age:=	16
# Gender:=	Masculino
90
90
91
91
91
91
91
91
91
93
93
93
93
93
94
94
95
95
95
96
96
96
96
96
96
96
96
96
96
96
96
96
96
96
96
96
96
96
96
95
95
95
95
95
96
97
97
97
97
97
97
97
97
98
98
98
99
99
99
99
101
101
102
102
102
102
102
102
103
103
104
103
103
103
104
103
103
104
104
103
104
104
104
104
104
104
105
105
106
106
106
107
107
107
107
108
108
108
108
109
109
110
109
109
110
109
109
109
109
109
108
108
109
107
107
108
108
108
108
108
108
108
109
109
109
110
109
110
111
110
111
112
111
111
111
112
111
112
111
112
111
111
110
110
110
109
109
109
109
107
107
107
106
106
106
106
105
104
105
103
103
102
102
102
101
100
100
99
99
98
98
97
97
97
95
95
95
95
95
93
93
93
93
93
93
92
92
92
92
92
92
92
92
91
91
91
91
91
91
92
92
92
92
92
92
92
92
92
92
92
92
92
92
92
93
93
93
93
92
92
92
93
93
93
93
93
93
93
93
93
93
93
93
93
93
93
93
93
93
94
95
95
95
94
94
94
94
93
93
92
90
89
88
86
85
83
82
81
80
78
78
79
78
80
82
86
90
94
102
110
118
130
142
157
173
190
209
229
252
275
301
327
355
386
416
449
482
518
554
591
628
667
704
743
782
819
856
891
923
952
976
997
1014
1024
1030
1030
1024
1013
996
973
945
912
874
833
787
740
691
641
591
540
492
445
400
360
322
286
256
229
205
185
169
156
145
137
131
127
124
122
121
121
122
122
124
125
126
126
127
127
127
127
127
127
125
124
123
123
122
121
118
118
117
116
114
113
112
112
111
109
109
108
108
107
107
107
107
106
106
106
106
106
106
106
105
105
105
105
105
105
105
105
105
106
105
105
105
105
105
105
105
106
106
106
106
106
106
107
108
108
108
108
109
109
109
111
111
111
112
112
113
113
114
114
115
115
115
115
115
116
116
117
117
117
117
117
117
118
119
119
119
119
119
120
120
121
121
121
122
123
123
123
125
125
125
125
126
127
127
127
129
129
129
129
130
131
131
131
132
132
132
132
133
133
134
134
134
134
134
135
135
136
136
136
137
137
137
138
139
139
141
141
142
142
143
144
145
146
147
148
149
150
151
152
153
155
155
156
157
158
159
159
161
161
163
163
163
165
165
165
167
167
167
168
169
170
170
170
171
171
173
173
173
175
176
176
178
178
179
180
181
181
182
183
183
185
186
187
187
189
190
192
192
193
194
196
197
198
199
200
201
202
203
204
206
206
207
208
209
211
211
213
213
214
215
216
217
218
219
220
220
222
222
224
224
224
225
226
227
227
228
228
228
229
230
231
231
231
232
232
232
233
233
233
233
233
234
234
234
234
234
234
233
232
232
232
232
231
231
230
229
228
227
227
225
225
223
222
220
219
218
216
215
213
211
210
208
206
204
202
200
198
197
195
192
190
189
187
184
183
181
178
177
175
173
171
168
167
165
163
161
159
157
155
153
151
149
147
145
143
142
139
138
135
134
131
130
128
126
125
123
122
120
118
116
115
114
113
112
110
109
108
107
107
106
105
105
104
104
102
102
101
101
100
100
100
99
99
99
99
97
97
97
98
98
97
97
97
97
97
96
96
96
96
96
96
96
95
95
96
96
95
95
95
95
95
95
94
94
94
94
94
94
95
95
96
96
96
96
96
96
97
97
97
98
98
98
98
98
98
98
98
98
98
98
98
98
98
98
98
98
99
99
99
99
99
98
98
98
98
98
98
99
99
98
98
98
98
98
98
98
98
98
98
98
98
98
99
99
99
99
98
98
98
99
99
99
99
98
98
99
99
99
98
98
99
99
98
98
98
97
97
96
96
96
95
95
95
94
94
93
93
93
92
92
92
91
91
91
90
90
90
90
89
89
90
90
89
89
89
89
88
88
88
87
87
87
86
86
86
85
86
86
85
85
85
84
84
84
84
83
83
83
83
82
82
82
82
82
81
81
81
81
81
81
80
80
81
81
81
81
81
81
81
81
81
81
81
81
81
80
80
81
81
80
80
80
80
79
79
79
79
79
79
78
78
78
78
78
78
78
78
78
79
79
80
80
80
80
80
81
81
81
80
81
81
81
80
80
80
80
80
79
79
78
78
77
77
76
76
76
75
75
75
74
74
74
74
74
75
75
75
75
75
75
76
76
76
76
75
75
75
75
76
76
76
76
76
75
75
75
75
75
74
75
75
75
75
75
75
74
74
74
74
75
75
75
75
75
74
74
74
75
74
74
74
74
73
73
72
73
73
72
72
72
71
71
72
71
71
71
71
70
70
70
70
69
69
70
70
69
69
69
69
69
68
68
68
69
68
68
68
69
69
68
68
68
67
67
67
67
67
66
66
66
65
65
65
64
64
64
64
63
63
63
62
63
63
63
62
62
62
63
62
62
62
61
61
61
61
62
61
61
61
61
61
60
60
60
60
60
60
60
60
59
59
59
59
60
60
59
59
59
59
59
59
59
58
58
58
58
58
58
57
58
57
57
57
56
56
56
55
55
55
55
55
55
55
55
54
54
54
53
54
54
53
53
53
53
52
53
53
53
53
52
52
53
53
53
53
53
53
53
53
53
53
54
54
54
55
55
56
56
56
56
56
57
58
58
58
58
58
58
58
58
59
59
59
59
59
59
59
60
59
59
59
59
59
60
59
59
59
59
59
59
59
59
58
58
58
58
59
59
59
59
58
58
58
58
58
59
58
58
58
58
57
57
58
58
57
57
57
57
57
57
57
57
57
57
58
58
58
59
59
59
60
60
60
61
61
61
61
62
63
63
64
64
64
65
65
66
66
66
66
67
67
69
69
69
70
70
70
71
71
71
72
71
72
72
72
73
74
73
74
74
75
74
74
75
74
75
74
74
74
73
73
72
73
72
72
72
71
71
71
70
70
70
70
69
68
68
68
67
67
67
67
66
66
66
65
66
66
66
66
65
65
65
65
65
65
64
64
64
63
63
63
62
62
62
62
62
62
61
60
60
59
59
59
58
58
57
57
56
56
54
54
54
53
53
52
52
52
50
50
50
49
49
49
48
48
48
48
48
48
47
47
47
47
47
47
47
47
47
48
48
48
48
48
48
48
48
48
47
47
47
47
48
47
47
47
47
47
46
46
46
47
46
46
46
46
46
46
46
46
46
46
46
45
46
46
46
46
46
46
46
47
47
47
47
47
47
46
46
46
45
45
43
42
41
40
38
37
36
35
34
33
33
33
33
34
35
37
41
44
50
57
64
73
83
94
108
123
139
157
176
198
221
245
270
297
326
356
388
420
454
490
525
562
598
636
674
711
747
782
815
845
871
895
914
928
937
941
940
933
921
903
880
852
819
782
742
699
652
605
556
508
461
414
369
327
288
252
220
190
165
143
125
109
97
87
79
73
70
67
66
65
65
66
66
67
68
69
69
70
70
70
70
70
69
69
68
67
66
65
63
62
61
61
60
59
57
56
56
55
54
53
53
51
51
50
50
50
49
50
49
49
49
48
48
47
47
48
47
47
47
46
46
46
46
46
46
46
45
45
46
46
46
45
45
45
45
45
45
46
46
46
47
47
47
47
48
48
48
49
49
49
50
51
51
51
51
52
53
53
54
54
54
54
56
56
56
56
57
57
58
59
59
59
59
61
61
61
62
62
62
62
63
64
64
64
65
66
66
67
67
68
68
69
69
70
70
71
72
72
72
74
74
74
75
76
76
76
76
78
78
78
79
79
80
80
81
81
82
82
83
83
83
84
84
85
86
86
86
87
88
89
89
90
91
91
92
92
94
94
95
96
97
97
98
98
99
101
101
102
103
104
104
106
106
107
108
108
109
110
111
111
113
113
114
115
116
117
118
118
120
121
121
121
123
124
124
124
126
127
127
129
129
130
130
132
133
133
135
135
136
137
138
139
140
140
142
142
143
144
145
146
147
148
149
149
151
152
152
153
155
155
156
157
158
158
160
160
160
161
161
163
163
164
164
164
165
165
165
166
166
166
166
167
167
167
167
167
167
168
169
168
169
168
168
168
168
168
167
167
167
166
166
165
164
164
162
162
160
159
157
156
155
153
152
150
149
147
146
144
141
139
138
135
134
132
129
128
126
123
122
119
117
115
113
111
109
107
105
103
101
100
97
95
94
91
90
88
86
84
83
81
80
77
76
75
73
71
70
68
67
66
64
62
61
59
58
58
57
56
54
53
53
52
51
51
50
49
49
48
48
47
47
46
46
45
45
45
44
44
43
42
42
41
41
40
40
40
40
40
39
39
39
38
38
38
38
37
37
37
37
36
36
36
36
36
35
35
35
35
34
34
34
34
34
34
34
33
33
33
33
33
34
34
34
34
34
34
34
34
34
35
35
35
35
35
35
35
35
35
35
35
36
36
36
36
36
36
36
36
36
36
37
37
37
37
37
37
37
37
37
37
37
37
37
37
37
37
37
37
36
36
36
36
36
36
36
35
35
35
35
35
35
35
35
35
35
34
34
34
34
33
33
34
34
34
33
33
33
32
32
32
31
31
31
30
30
29
29
28
28
28
27
27
26
26
26
26
25
26
25
25
25
24
24
24
24
23
23
23
23
23
22
22
22
23
23
22
22
22
22
22
22
21
20
20
20
20
19
19
19
19
19
18
18
18
18
19
18
18
18
18
18
18
18
17
17
18
18
18
18
17
17
17
17
17
18
17
17
17
17
17
17
16
16
16
16
16
16
16
15
15
15
15
15
15
14
14
14
14
14
14
14
14
14
14
14
13
14
14
14
14
14
14
14
14
14
15
14
14
14
14
14
14
14
14
14
14
14
13
13
13
13
13
13
13
13
13
12
12
12
12
11
11
11
11
11
11
11
11
11
11
10
11
11
11
11
11
11
10
10
10
10
11
11
11
11
10
10
10
10
10
10
10
10
10
10
10
10
10
10
10
10
10
10
10
10
9
9
10
10
10
10
10
9
9
9
9
9
9
10
9
9
9
9
8
8
8
8
7
8
8
7
7
7
6
6
6
6
6
6
6
5
5
5
5
5
5
6
5
5
5
5
5
5
6
5
5
5
5
5
5
5
4
4
4
4
4
4
3
3
3
3
3
3
3
3
3
2
3
3
3
3
2
2
3
3
2
2
2
2
2
1
1
1
1
1
0
0
0
0
0
0
0
0
0
0
0
0
1
1
1
2
2
3
3
3
3
4
4
4
4
5
5
5
5
5
5
5
5
5
6
6
6
6
5
5
5
5
5
5
4
5
5
5
5
5
4
4
4
4
3
3
3
3
2
2
2
2
2
1
1
0
0
0
0
0
-1
-1
-2
-2
-3
-3
-3
-4
-4
-3
-4
-4
-4
-4
-4
-4
-4
-4
-4
-4
-4
-3
-3
-3
-3
-2
-1
-1
-1
-1
0
0
0
0
0
0
0
0
1
1
1
1
1
1
1
0
0
0
0
0
0
0
-1
-1
-1
-1
-1
-1
-2
-2
-1
-1
-1
-2
-2
-2
-2
-2
-2
-1
-1
-1
0
0
0
0
0
1
1
0
0
1
1
1
1
2
2
2
2
3
3
3
3
3
3
4
4
4
5
5
5
6
6
5
7
7
6
7
8
8
8
9
9
10
10
10
10
11
11
10
11
11
11
11
10
10
10
9
9
10
8
8
8
8
8
8
7
7
7
7
6
6
5
5
5
4
4
5
4
3
3
4
3
2
2
1
2
1
1
0
0
0
0
-1
-1
-2
-1
-1
-2
-2
-2
-3
-3
-3
-3
-3
-3
-4
-4
-4
-4
-4
-4
-4
-4
-5
-5
-5
-5
-7
-7
-7
-7
-8
-8
-8
-9
-10
-10
-11
-11
-11
-11
-12
-12
-12
-12
-12
-12
-12
-12
-12
-12
-12
-12
-12
-12
-12
-12
-12
-11
-11
-11
-11
-12
-12
-12
-12
-12
-12
-12
-12
-12
-11
-11
-11
-11
-11
-11
-11
-11
-11
-11
-11
-11
-11
-11
-11
-11
-10
-10
-10
-10
-11
-11
-10
-10
-10
-11
-11
-12
-12
-13
-15
-15
-16
-17
-19
-20
-22
-23
-23
-25
-25
-25
-24
-24
-22
-20
-16
-13
-8
-2
5
14
24
35
47
62
77
93
111
130
152
174
199
224
251
278
309
338
370
404
437
471
506
541
576
612
646
681
713
744
771
795
814
830
841
847
849
845
836
821
802
778
749
715
679
639
596
551
506
460
414
369
326
284
246
210
177
149
122
101
81
66
52
42
33
27
23
20
17
17
16
17
17
19
20
21
21
22
22
23
23
23
23
23
21
21
20
20
19
18
17
16
16
14
14
13
12
12
11
11
11
11
10
10
10
10
9
9
8
8
8
8
8
8
7
7
7
8
8
8
8
8
8
8
8
8
9
9
9
9
9
9
9
10
10
10
10
10
10
10
10
10
11
11
12
12
12
12
12
12
12
13
14
14
14
14
14
15
16
16
16
16
17
17
17
17
18
18
18
19
20
20
20
21
21
22
23
23
24
24
25
26
26
27
27
29
30
30
31
32
32
33
33
34
34
35
35
36
36
37
38
38
38
38
38
40
40
40
40
41
41
41
42
42
43
43
43
44
45
45
45
47
47
48
48
49
50
50
51
51
53
53
53
54
55
55
57
57
58
59
60
60
60
62
62
63
63
64
65
66
66
68
68
68
70
70
71
71
73
73
74
74
76
76
77
77
79
79
80
81
82
83
83
84
85
86
86
87
89
89
89
91
91
92
93
94
94
96
97
97
99
99
100
102
102
103
105
105
107
107
109
110
111
112
113
114
115
116
117
118
119
119
120
120
122
122
122
124
124
125
126
126
126
128
128
128
129
130
130
130
130
131
132
132
132
132
132
132
132
132
132
131
131
131
131
129
130
129
128
128
127
126
126
125
124
123
122
121
121
119
118
116
114
113
111
110
108
106
103
102
100
98
96
94
92
89
88
86
83
81
80
77
75
74
71
69
67
65
63
62
60
58
56
54
53
51
50
48
47
45
44
42
41
39
38
37
36
35
33
32
30
29
28
27
25
24
23
21
21
20
19
18
17
17
16
15
15
14
12
12
11
11
10
10
9
9
8
8
7
7
7
7
7
7
6
6
5
5
5
5
5
5
5
5
5
5
5
5
5
5
5
6
6
6
6
6
6
6
7
7
7
7
7
7
7
7
8
8
8
8
8
9
9
9
9
9
9
9
9
9
9
9
9
9
10
9
9
9
9
9
9
9
9
9
9
8
8
8
8
8
8
8
7
7
7
7
7
6
6
6
6
5
5
5
5
4
4
4
4
3
3
3
2
1
1
1
1
1
1
0
0
0
0
0
0
-1
-1
-1
-1
-1
-2
-2
-2
-2
-2
-3
-3
-3
-3
-4
-4
-4
-4
-5
-5
-5
-5
-6
-6
-6
-6
-6
-6
-6
-6
-6
-6
-6
-6
-6
-6
-6
-6
-6
-6
-6
-7
-7
-7
-7
-7
-7
-7
-8
-8
-9
-9
-9
-9
-10
-10
-10
-10
-11
-11
-11
-11
-12
-12
-12
-12
-13
-13
-13
-13
-13
-13
-13
-13
-13
-13
-13
-13
-13
-14
-14
-13
-13
-13
-13
-13
-13
-13
-13
-13
-13
-13
-13
-13
-13
-13
-14
-14
-14
-13
-14
-14
-14
-15
-15
-16
-16
-16
-16
-17
-17
-17
-17
-17
-17
-17
-17
-17
-18
-18
-18
-18
-17
-17
-17
-17
-16
-16
-16
-16
-16
-15
-15
-15
-15
-15
-15
-15
-15
-14
-14
-14
-14
-14
-14
-15
-15
-15
-15
-15
-16
-15
-15
-15
-15
-15
-15
-15
-16
-16
-16
-15
-15
-15
-15
-17
-17
-17
-17
-17
-16
-16
-16
-16
-18
-18
-17
-17
-17
-17
-17
-17
-17
-17
-17
-17
-17
-17
-17
-17
-17
-17
-17
-17
-17
-17
-17
-17
-18
-18
-18
-18
-17
-17
-17
-18
-18
-18
-18
-18
-18
-18
-19
-19
-19
-19
-19
-19
-19
-19
-19
-19
-19
-19
-19
-19
-19
-19
-20
-20
-20
-20
-20
-20
-20
-20
-19
-19
-19
-19
-20
-20
-20
-19
-19
-19
-19
-19
-19
-19
-18
-18
-18
-18
-18
-18
-18
-18
-17
-17
-17
-17
-17
-17
-16
-16
-16
-16
-16
-16
-16
-16
-16
-16
-16
-16
-16
-16
-16
-16
-16
-16
-16
-16
-16
-16
-16
-16
-16
-16
-16
-16
-16
-16
-16
-16
-17
-17
-17
-17
-17
-17
-17
-16
-16
-16
-16
-16
-16
-16
-15
-15
-15
-15
-15
-14
-14
-14
-14
-14
-14
-13
-13
-13
-13
-13
-13
-14
-15
-15
-14
-14
-14
-14
-14
-14
-15
-15
-16
-16
-16
-16
-16
-16
-16
-15
-15
-15
-15
-15
-15
-15
-15
-15
-15
-15
-15
-14
-14
-15
-15
-15
-15
-15
-15
-15
-15
-15
-15
-15
-16
-16
-16
-16
-16
-16
-16
-16
-16
-16
-18
-18
-18
-18
-18
-19
-18
-18
-18
-18
-18
-18
-18
-18
-18
-18
-18
-18
-18
-18
-18
-18
-18
-17
-17
-17
-17
-17
-16
-16
-16
-16
-16
-15
-15
-15
-15
-15
-13
-13
-13
-13
-12
-12
-12
-11
-10
-10
-10
-9
-9
-9
-8
-8
-8
-7
-7
-6
-6
-6
-5
-6
-6
-5
-5
-6
-5
-5
-5
-5
-5
-5
-4
-5
-4
-4
-4
-4
-3
-3
-3
-3
-2
-2
-1
-1
-1
-2
-2
-1
-1
-2
-2
-1
-1
-1
-2
-2
-2
-3
-3
-3
-3
-3
-2
-2
-2
-3
-2
-3
-2
-2
-1
-2
-1
-1
-1
-1
-1
-1
-2
-2
-2
-3
-2
-3
-4
-4
-4
-4
-5
-6
-6
-6
-7
-7
-7
-8
-8
-8
-8
-9
-10
-10
-10
-10
-11
-11
-12
-13
-13
-13
-14
-15
-15
-15
-16
-17
-17
-17
-17
-17
-18
-18
-18
-18
-18
-18
-18
-18
-18
-18
-18
-19
-19
-19
-19
-19
-19
-19
-19
-19
-19
-18
-18
-18
-18
-18
-18
-18
-18
-17
-17
-17
-17
-17
-17
-17
-17
-16
-16
-16
-16
-16
-16
-16
-15
-15
-15
-15
-15
-15
-15
-14
-14
-14
-14
-14
-13
-13
-13
-13
-13
-13
-14
-15
-15
-16
-16
-18
-20
-21
-23
-24
-26
-27
-29
-30
-31
-32
-32
-33
-32
-32
-30
-27
-23
-19
-12
-5
4
13
24
38
52
67
85
104
123
145
168
192
219
247
276
306
339
371
405
440
476
511
548
586
622
659
695
730
763
793
819
842
860
874
883
886
884
877
865
847
824
794
761
724
684
639
594
546
498
450
402
355
311
270
230
195
163
135
110
89
71
55
44
34
27
21
18
16
14
13
14
14
14
15
16
17
17
17
17
17
16
16
15
15
13
12
11
10
9
8
7
5
4
3
2
1
0
-1
-2
-3
-4
-4
-5
-5
-6
-7
-7
-7
-8
-8
-8
-8
-9
-9
-9
-9
-9
-9
-9
-10
-10
-9
-9
-9
-9
-9
-9
-7
-7
-7
-6
-6
-5
-5
-5
-3
-3
-3
-2
-2
-2
-2
-1
-1
-1
-1
-1
0
0
0
0
0
0
0
0
0
0
1
1
2
2
2
3
3
4
4
4
5
5
6
7
7
8
8
9
9
10
11
11
11
12
12
12
13
13
13
13
14
14
15
15
16
16
16
17
17
18
18
18
19
19
21
21
22
22
22
24
24
25
25
27
27
28
28
29
29
30
31
32
33
33
35
36
36
37
37
39
40
40
42
43
43
44
44
46
46
47
48
48
50
50
51
51
53
53
54
56
56
58
59
59
61
62
63
65
65
66
68
69
70
72
73
75
76
77
78
80
81
83
85
86
88
89
89
91
92
94
96
97
98
99
101
102
104
105
106
108
108
110
111
112
113
114
115
116
117
118
119
120
120
120
121
122
123
123
125
125
126
126
128
128
129
129
129
130
131
132
132
132
133
133
135
135
135
135
136
136
136
136
137
138
138
138
138
138
138
138
139
138
138
137
137
137
137
137
136
135
135
135
135
133
133
132
131
131
129
129
127
127
126
125
124
122
122
120
119
117
115
113
111
110
108
106
104
102
100
98
97
94
92
90
89
86
84
83
81
78
76
75
73
71
69
67
66
63
62
60
59
57
55
54
53
51
48
47
46
44
43
42
40
39
38
37
35
34
33
32
31
29
28
27
27
26
25
25
24
23
22
22
21
21
21
20
19
19
19
19
19
18
18
18
18
18
18
18
18
18
17
17
17
17
16
16
16
15
15
15
15
15
15
15
15
15
14
14
14
14
15
15
15
15
15
15
15
15
15
15
15
15
16
16
16
16
16
16
15
15
15
15
15
15
15
15
15
15
15
15
15
15
15
15
15
15
15
15
15
15
16
16
16
16
17
17
17
17
17
17
18
19
19
19
19
19
19
20
20
20
21
21
21
22
22
22
21
22
22
22
22
23
23
23
23
23
22
22
22
21
21
21
20
20
19
19
18
18
18
17
17
17
16
16
17
16
16
16
16
16
15
15
15
14
13
13
13
13
12
12
11
11
11
11
11
9
9
9
9
9
9
9
9
9
9
9
9
9
9
9
9
9
9
8
8
9
9
9
9
9
8
8
8
8
8
8
8
8
7
6
6
7
7
7
7
7
7
7
7
7
7
7
7
6
6
6
6
6
6
6
6
6
5
5
5
5
5
5
5
5
5
5
5
5
5
5
5
5
4
4
4
4
4
4
3
3
3
3
3
3
3
2
2
2
2
2
2
2
2
2
2
2
2
2
2
2
2
2
1
0
0
0
0
0
0
0
0
0
0
-1
-1
0
0
0
0
0
0
0
0
0
0
1
1
1
1
1
1
1
1
1
0
0
0
0
0
0
-1
-1
-1
-1
-1
-1
-1
0
0
0
0
0
0
0
0
1
1
1
1
1
1
1
1
1
0
0
0
0
0
0
0
0
-1
-1
-1
-1
-1
-2
-2
-2
-2
-2
-2
-1
-1
-1
-1
-1
-1
0
0
0
0
1
0
0
0
1
1
1
1
1
1
2
3
3
3
3
3
3
3
3
3
3
3
3
3
3
3
3
3
3
2
2
3
3
3
3
3
3
3
3
3
3
3
3
3
3
4
4
4
4
5
5
5
6
6
6
5
6
6
6
6
6
6
6
6
5
5
5
5
5
5
5
5
5
4
4
4
4
4
4
4
4
4
4
4
4
4
3
3
3
3
3
3
3
3
3
3
3
3
3
3
3
4
4
4
4
4
4
4
4
5
5
6
6
6
7
7
7
7
8
8
8
8
9
9
9
8
9
9
9
9
9
10
10
10
10
10
10
11
11
11
12
13
13
13
14
14
14
15
16
16
17
17
18
18
19
19
20
19
19
20
20
21
21
21
21
21
21
22
21
21
21
21
20
21
21
21
20
20
19
19
19
19
19
19
19
18
18
18
18
17
17
16
17
17
16
17
16
15
16
15
15
15
15
14
15
14
14
14
14
14
14
14
13
13
14
13
13
12
12
12
11
11
11
10
10
10
8
8
8
6
6
6
5
4
4
3
2
2
1
1
0
0
0
0
0
-1
-1
-1
-1
-1
-1
-1
-1
-1
-2
-2
-2
-2
-1
-1
-1
-2
-2
-1
-1
-1
-1
-1
0
0
0
0
0
1
1
1
1
2
2
2
3
2
2
3
3
3
4
4
5
5
5
6
6
7
7
8
8
9
9
9
9
9
8
8
7
7
5
4
3
1
0
-2
-4
-6
-7
-8
-9
-10
-9
-9
-7
-5
0
5
10
18
27
37
48
63
77
94
111
132
153
177
201
227
255
285
315
348
381
416
452
489
526
565
603
643
682
720
759
795
830
861
888
912
931
945
954
957
955
947
933
912
887
856
820
781
737
690
641
590
539
488
438
388
342
298
257
220
187
156
131
110
92
76
64
55
48
43
40
37
36
36
37
37
38
39
41
41
42
42
42
42
42
42
40
40
39
37
37
36
34
33
31
30
29
28
26
25
25
23
23
22
21
20
20
19
18
18
18
18
17
17
17
17
17
17
16
16
16
16
16
17
17
17
18
18
18
18
18
18
19
19
19
19
19
20
20
20
21
21
22
22
22
23
24
24
25
25
25
26
26
27
27
28
29
30
30
31
31
31
32
32
33
33
34
33
34
35
36
35
36
36
37
37
38
38
38
39
39
39
40
41
41
41
41
42
42
42
43
44
44
44
45
45
45
45
47
47
47
48
47
48
49
49
49
49
50
50
50
51
51
52
53
53
53
54
54
54
56
56
56
57
57
58
58
60
60
61
61
62
62
63
64
65
65
66
66
68
68
69
70
71
72
72
74
74
75
76
77
78
79
79
80
80
81
82
82
84
85
85
87
87
89
90
90
92
92
93
95
95
96
98
98
100
100
102
103
104
105
106
107
107
109
110
110
112
112
114
114
116
116
117
118
120
120
122
122
124
124
126
126
128
128
130
130
131
132
133
133
135
135
136
137
138
138
140
140
140
142
142
143
143
143
145
145
145
146
147
147
147
148
148
148
148
149
149
150
150
150
150
150
150
150
150
149
149
149
147
147
147
146
145
144
143
142
140
139
138
136
134
133
132
130
128
126
125
123
121
119
116
115
113
111
109
107
106
104
101
99
98
96
93
91
89
87
85
83
80
80
78
76
74
72
70
68
66
65
63
61
59
58
56
55
53
52
50
50
48
47
45
44
43
42
41
40
39
38
37
36
36
35
34
34
33
33
33
32
31
31
31
31
31
31
31
31
30
29
29
30
30
29
29
29
29
29
29
28
28
28
28
28
28
28
28
27
27
27
27
27
27
27
27
27
27
27
27
27
27
27
27
27
27
27
27
27
27
27
27
28
28
28
28
28
28
28
28
28
28
28
29
29
29
29
28
28
29
29
29
29
28
29
29
29
29
29
30
30
30
30
30
31
31
31
31
31
31
31
31
31
31
31
31
31
31
31
31
31
31
31
30
30
30
29
29
29
29
29
29
29
29
29
29
29
29
29
29
28
28
28
28
28
27
27
27
27
26
26
25
24
24
24
23
23
23
22
22
22
22
21
20
20
20
20
20
19
19
19
19
19
20
19
19
19
19
19
20
20
19
19
19
19
19
19
18
18
18
18
19
19
18
18
18
17
17
17
17
16
16
15
15
15
15
15
15
15
15
15
15
16
15
15
16
16
17
17
17
17
18
18
19
19
19
20
19
19
19
19
20
20
20
20
20
20
20
20
20
20
20
20
20
20
20
20
20
20
20
20
20
20
20
20
19
19
19
19
19
19
19
19
18
18
18
18
18
18
18
18
18
18
18
17
17
17
17
17
18
18
18
18
18
17
17
17
17
18
18
18
18
18
18
18
18
18
18
18
18
18
18
18
18
17
17
17
17
17
17
17
17
17
16
17
17
17
17
17
17
17
16
16
16
16
17
17
16
16
16
16
16
16
16
16
16
17
17
17
17
17
17
17
17
18
18
18
18
18
18
19
19
19
19
19
20
20
19
19
19
19
19
19
19
19
19
19
19
18
18
18
18
18
18
18
18
18
18
18
18
18
18
18
18
18
18
18
17
17
17
17
17
17
17
17
17
17
17
17
17
17
17
17
16
15
15
15
15
16
16
16
16
16
16
16
16
16
16
16
16
16
16
16
15
15
15
15
15
15
15
14
14
14
14
14
14
14
14
14
14
14
14
14
14
14
14
14
14
14
15
15
15
14
14
14
14
14
14
14
14
14
14
14
14
14
14
13
13
13
13
14
14
14
14
13
13
14
14
14
15
15
15
15
16
16
16
16
17
17
17
18
18
18
19
19
18
19
19
19
20
20
20
20
21
21
21
21
21
21
21
21
21
21
22
22
22
21
21
22
22
22
22
23
22
23
23
23
23
24
24
24
25
25
25
25
26
26
26
26
27
27
27
27
28
28
28
28
29
29
30
30
29
30
30
31
31
31
32
31
32
32
32
32
32
33
33
32
32
33
32
32
32
32
32
32
32
32
32
32
32
31
31
31
31
31
31
31
31
31
31
31
30
31
31
30
30
29
30
29
29
29
28
28
28
27
27
27
26
26
25
26
25
25
24
24
24
23
22
22
22
22
20
20
19
19
19
18
18
18
16
16
16
16
15
15
15
14
14
13
13
13
13
13
12
12
11
11
11
11
11
11
10
10
10
11
11
11
11
11
12
11
11
12
12
12
13
13
13
14
14
14
15
15
15
15
15
15
15
15
16
16
16
16
16
16
16
16
16
17
17
17
17
17
17
16
17
17
17
17
17
16
15
15
14
13
13
11
10
8
7
6
4
3
1
0
0
0
-1
0
1
3
6
10
15
21
28
37
48
60
73
89
105
123
143
165
187
212
238
265
294
324
356
390
423
459
495
531
569
606
643
681
717
752
786
816
844
867
886
900
910
914
913
907
895
877
855
827
793
756
716
673
627
579
531
483
435
389
344
301
262
226
194
164
139
117
98
82
69
59
52
46
42
39
38
37
38
38
39
39
40
40
41
42
42
43
43
43
42
41
41
40
38
38
37
36
34
33
33
31
30
29
27
27
26
25
24
23
23
22
22
21
21
21
21
20
20
20
20
20
20
20
20
20
20
20
20
20
20
20
20
20
20
20
20
20
19
19
19
19
20
20
20
20
20
20
20
22
22
22
23
23
23
24
25
26
26
26
27
27
28
29
30
30
31
31
32
33
34
34
35
36
36
37
38
40
41
41
42
43
44
44
46
46
47
47
48
48
50
50
50
50
51
52
52
52
53
53
53
53
55
55
55
55
56
56
56
56
57
57
57
57
58
58
59
60
60
60
61
61
61
62
62
63
64
64
64
65
65
66
67
67
68
69
69
70
70
71
72
72
74
74
75
75
77
78
78
80
80
81
83
83
84
85
86
87
88
89
91
91
92
94
94
95
96
97
98
100
100
101
102
102
104
104
106
106
107
108
109
110
111
112
113
115
115
117
118
119
120
122
122
124
124
126
126
128
129
130
131
132
133
133
135
135
136
137
137
138
140
140
141
141
142
142
143
143
144
144
145
145
147
147
147
148
148
149
149
149
150
150
151
151
151
151
152
152
152
152
153
152
152
153
153
153
152
152
152
152
151
151
151
150
149
149
148
148
146
145
144
143
141
141
139
137
136
134
133
131
130
129
126
124
123
121
120
118
115
114
112
109
108
106
103
102
99
98
95
93
91
89
86
85
83
81
78
77
75
73
70
69
66
65
62
61
60
57
56
54
53
51
49
48
46
45
44
42
41
40
39
38
36
35
35
34
33
33
33
32
31
30
30
29
29
29
29
28
27
27
27
26
26
26
26
26
25
25
25
25
25
24
24
24
24
23
24
24
24
23
23
23
23
23
22
22
23
23
23
23
23
22
22
22
22
22
22
23
22
22
22
22
22
22
22
22
22
22
22
22
22
22
22
22
22
22
22
22
22
22
22
23
23
23
24
24
24
24
24
24
24
25
25
25
25
25
25
25
25
26
26
26
26
26
26
26
26
26
26
27
27
26
26
26
26
26
26
26
26
26
26
26
26
26
25
25
25
25
25
25
25
25
25
25
26
26
25
25
25
25
25
24
24
25
24
24
24
23
23
23
22
21
20
20
20
19
19
18
18
18
17
17
17
16
17
17
16
16
16
16
16
15
15
15
15
14
14
14
14
13
13
12
13
12
12
12
12
11
11
11
10
10
10
10
9
9
9
9
9
9
9
9
9
9
8
8
8
8
8
8
8
8
7
8
8
8
8
8
8
8
8
8
8
8
8
8
8
8
8
8
8
8
7
7
7
7
7
7
7
6
7
7
7
7
7
6
6
6
5
6
6
6
6
5
5
5
5
5
4
5
4
4
4
4
4
4
3
3
3
3
3
2
2
2
2
2
1
1
1
1
1
1
1
1
2
2
2
2
2
2
2
2
3
3
3
3
3
3
3
3
3
3
4
4
4
4
3
4
4
4
4
4
3
3
3
3
2
2
2
1
1
1
1
0
1
1
1
0
0
1
1
1
0
0
0
0
-1
0
0
0
-1
-1
-1
-2
-2
-2
-2
-3
-3
-3
-3
-3
-3
-3
-3
-3
-3
-4
-4
-4
-4
-4
-4
-5
-5
-5
-4
-4
-5
-5
-5
-4
-5
-5
-5
-5
-6
-6
-6
-6
-7
-7
-7
-7
-8
-8
-8
-8
-8
-8
-8
-8
-8
-7
-7
-7
-6
-6
-6
-5
-5
-5
-5
-4
-4
-4
-4
-4
-4
-4
-5
-5
-5
-6
-6
-6
-6
-6
-7
-7
-8
-8
-8
-8
-8
-8
-8
-9
-9
-9
-8
-9
-9
-9
-9
-9
-9
-9
-9
-9
-9
-9
-9
-10
-10
-10
-11
-11
-11
-12
-11
-11
-12
-12
-12
-12
-12
-12
-12
-12
-12
-11
-11
-11
-11
-11
-11
-11
-11
-11
-11
-11
-11
-10
-10
-10
-11
-11
-11
-11
-11
-11
-11
-11
-11
-11
-11
-11
-11
-11
-12
-12
-12
-12
-12
-12
-12
-13
-13
-13
-13
-12
-12
-13
-13
-13
-13
-13
-13
-14
-14
-14
-14
-14
-14
-14
-15
-15
-14
-14
-14
-14
-14
-14
-14
-14
-14
-13
-13
-13
-12
-12
-12
-12
-12
-12
-12
-10
-10
-10
-10
-10
-9
-9
-9
-9
-8
-9
-8
-8
-7
-7
-7
-6
-6
-7
-6
-5
-5
-5
-4
-4
-5
-4
-3
-3
-3
-2
-2
-2
-2
-2
-1
-1
-1
0
0
1
1
2
2
2
2
2
3
3
4
4
3
3
4
4
4
4
3
3
3
3
3
3
3
3
3
3
3
2
2
3
2
2
3
2
2
1
2
1
1
1
1
0
0
1
0
0
-1
0
-1
-1
-2
-2
-3
-3
-4
-3
-3
-4
-5
-5
-5
-6
-6
-6
-7
-7
-8
-9
-9
-9
-10
-10
-11
-11
-12
-12
-13
-13
-13
-13
-14
-14
-15
-15
-15
-16
-16
-16
-16
-16
-16
-16
-16
-16
-16
-16
-16
-16
-16
-16
-15
-15
-15
-16
-16
-16
-16
-16
-16
-16
-16
-16
-16
-16
-16
-16
-16
-16
-16
-16
-16
-16
-16
-16
-16
-16
-16
-16
-16
-16
-16
-16
-15
-15
-15
-15
-15
-15
-15
-15
-15
-15
-15
-15
-15
-15
-15
-15
-15
-16
-17
-18
-19
-19
-21
-22
-24
-24
-26
-27
-27
-28
-28
-28
-27
-25
-23
-20
-16
-10
-4
3
12
21
33
46
60
76
92
111
131
153
176
200
226
254
281
312
343
375
407
442
476
510
546
581
615
649
682
714
743
769
791
809
824
834
838
837
832
821
805
784
758
728
695
656
615
572
528
482
435
390
345
303
262
224
189
158
129
105
84
65
50
38
27
19
13
9
6
4
3
3
4
4
4
5
6
7
7
8
9
8
8
8
8
7
7
6
6
5
4
4
3
2
2
1
1
-1
-1
-2
-2
-3
-3
-3
-4
-4
-5
-5
-6
-6
-6
-6
-7
-7
-7
-7
-7
-8
-8
-9
-9
-8
-8
-8
-9
-9
-8
-8
-8
-8
-8
-8
-8
-8
-7
-7
-7
-7
-7
-6
-6
-6
-5
-5
-5
-4
-4
-4
-3
-3
-3
-2
-1
-1
0
0
0
1
1
2
2
2
3
4
5
5
5
6
6
6
7
8
8
9
9
9
10
10
10
11
12
12
13
13
13
14
14
14
15
15
15
17
17
18
18
18
19
20
21
21
21
22
23
24
25
25
26
28
28
29
30
30
31
32
34
34
35
36
36
37
38
38
40
40
41
41
41
42
42
43
44
44
44
45
46
46
46
46
47
48
48
49
49
50
51
52
52
53
53
54
55
56
57
57
59
59
61
61
61
62
63
64
64
66
67
68
68
69
70
70
71
72
73
74
75
76
77
78
78
80
80
81
83
84
84
85
87
88
88
89
91
91
92
94
94
95
96
97
98
98
100
100
101
101
103
103
104
105
105
106
106
108
108
108
109
109
109
110
110
110
110
111
111
112
112
112
113
113
113
114
114
114
114
115
115
115
115
116
116
115
117
116
116
116
116
116
116
115
115
115
114
114
113
112
111
111
109
109
109
108
106
105
104
103
101
100
98
96
95
94
92
91
89
87
84
82
81
79
77
76
74
71
69
68
65
63
62
59
57
56
53
51
50
47
46
44
43
40
38
37
36
33
32
30
29
27
26
25
24
22
21
20
18
18
17
15
14
14
12
12
11
11
9
8
8
7
6
5
5
3
3
3
2
1
1
0
0
0
-1
-2
-2
-2
-3
-3
-3
-3
-2
-3
-3
-3
-3
-3
-4
-4
-4
-4
-4
-4
-5
-6
-6
-6
-6
-6
-6
-6
-6
-6
-6
-6
-7
-6
-6
-6
-6
-6
-5
-4
-4
-4
-4
-3
-3
-3
-2
-2
-2
-2
-2
-1
-1
-1
-1
0
0
0
-1
-1
-1
0
0
0
0
0
0
0
-1
-1
-1
-1
-1
-1
-1
-1
-1
0
0
0
-1
-1
-1
-1
-2
-2
-2
-3
-3
-3
-3
-3
-3
-3
-3
-4
-4
-4
-4
-4
-4
-4
-4
-4
-4
-5
-6
-6
-6
-6
-6
-6
-7
-7
-7
-7
-7
-7
-7
-7
-7
-7
-7
-7
-8
-8
-8
-8
-8
-8
-8
-9
-9
-9
-9
-9
-9
-10
-10
-10
-10
-11
-12
-11
-11
-11
-12
-13
-13
-13
-13
-13
-14
-14
-14
-14
-15
-15
-15
-15
-15
-16
-16
-17
-17
-17
-17
-17
-17
-18
-18
-18
-18
-18
-18
-18
-19
-19
-19
-19
-19
-18
-17
-17
-17
-17
-17
-17
-17
-18
-18
-18
-18
-18
-18
-18
-19
-19
-19
-19
-19
-19
-19
-19
-19
-19
-19
-18
-18
-18
-18
-18
-17
-17
-17
-16
-16
-16
-15
-15
-14
-14
-13
-13
-12
-13
-12
-12
-11
-11
-10
-10
-9
-8
-8
-7
-7
-7
-7
-6
-6
-6
-6
-6
-6
-6
-6
-6
-7
-7
-7
-8
-8
-8
-8
-8
-8
-8
-8
-8
-9
-9
-10
-10
-10
-10
-10
-10
-10
-10
-10
-10
-10
-10
-10
-10
-10
-11
-11
-11
-11
-11
-11
-12
-12
-11
-11
-12
-12
-12
-12
-12
-12
-12
-13
-13
-13
-13
-13
-13
-13
-13
-12
-12
-12
-12
-12
-12
-12
-12
-12
-12
-12
-12
-12
-13
-13
-13
-12
-12
-12
-13
-13
-13
-13
-14
-14
-14
-14
-14
-15
-15
-15
-15
-15
-15
-15
-16
-16
-16
-15
-15
-15
-15
-15
-16
-16
-16
-16
-15
-15
-15
-15
-15
-14
-14
-14
-14
-14
-14
-14
-14
-14
-14
-14
-14
-14
-14
-14
-13
-14
-14
-14
-14
-14
-15
-15
-15
-15
-15
-15
-16
-17
-17
-17
-17
-17
-17
-17
-17
-17
-17
-17
-17
-17
-17
-17
-17
-17
-17
-17
-16
-16
-16
-16
-16
-15
-15
-16
-16
-16
-16
-16
-15
-15
-16
-16
-16
-16
-17
-17
-17
-17
-18
-18
-18
-19
-19
-19
-19
-19
-19
-20
-20
-20
-20
-20
-20
-20
-20
-20
-20
-20
-20
-19
-19
-20
-20
-20
-20
-20
-20
-21
-21
-21
-21
-21
-21
-21
-22
-22
-22
-22
-22
-22
-22
-22
-22
-22
-22
-22
-22
-22
-21
-21
-21
-21
-21
-21
-21
-21
-21
-21
-21
-21
-21
-21
-21
-20
-20
-20
-20
-20
-20
-20
-19
-19
-19
-19
-18
-18
-18
-17
-17
-17
-16
-16
-16
-14
-14
-14
-14
-12
-12
-12
-11
-11
-11
-11
-9
-9
-9
-8
-8
-8
-7
-8
-7
-7
-7
-6
-6
-5
-6
-6
-5
-5
-4
-4
-4
-4
-4
-3
-3
-3
-3
-3
-3
-3
-2
-2
-2
-3
-3
-3
-2
-2
-2
-2
-3
-3
-2
-3
-3
-3
-3
-3
-3
-4
-4
-4
-4
-5
-5
-5
-6
-7
-7
-6
-7
-7
-8
-8
-8
-9
-9
-9
-9
-9
-10
-10
-10
-10
-10
-11
-11
-11
-11
-11
-12
-12
-13
-13
-13
-13
-13
-15
-15
-16
-16
-17
-17
-18
-19
-19
-19
-20
-20
-21
-21
-21
-22
-22
-22
-22
-22
-21
-21
-21
-21
-22
-21
-21
-21
-21
-20
-20
-20
-21
-21
-21
-21
-21
-21
-21
-22
-22
-22
-22
-22
-22
-23
-23
-22
-22
-22
-23
-23
-23
-23
-23
-22
-22
-22
-21
-21
-21
-20
-20
-19
-19
-18
-18
-18
-18
-17
-17
-16
-16
-15
-15
-15
-15
-15
-15
-16
-16
-17
-18
-19
-19
-21
-22
-24
-25
-27
-29
-30
-31
-32
-32
-33
-33
-32
-31
-28
-25
-20
-14
-8
0
10
21
33
48
64
80
98
118
140
163
188
214
241
270
301
333
366
399
434
470
506
542
579
616
652
687
722
754
783
809
831
849
862
870
872
870
863
849
830
806
778
744
706
665
621
575
528
479
432
384
339
295
254
217
182
150
121
98
77
59
45
34
23
17
12
8
5
4
4
4
4
4
5
6
6
7
7
8
7
7
7
6
6
5
4
3
2
1
-1
-1
-2
-4
-5
-5
-6
-7
-8
-9
-10
-10
-11
-12
-12
-12
-12
-12
-12
-12
-12
-12
-12
-12
-12
-11
-11
-11
-11
-10
-10
-10
-9
-9
-9
-8
-8
-7
-7
-7
-5
-5
-5
-5
-4
-4
-3
-3
-3
-3
-2
-2
-1
-1
0
0
0
1
1
2
2
3
3
4
4
4
6
6
6
7
7
8
8
9
9
10
10
10
10
10
11
12
11
12
12
12
13
14
14
15
15
15
15
15
16
16
17
17
17
17
17
18
18
19
19
20
20
20
21
21
21
23
23
23
24
24
25
25
26
26
28
28
29
29
30
30
30
31
31
32
32
34
34
35
34
36
36
37
37
37
38
39
39
40
41
42
42
43
43
44
45
45
47
47
48
49
49
51
51
51
53
53
54
54
55
56
56
57
58
58
60
60
61
62
64
64
65
67
67
68
69
70
72
72
74
74
76
77
78
80
80
81
82
82
83
83
85
85
86
87
89
89
91
91
92
93
93
94
95
96
97
98
99
99
101
101
102
103
104
105
106
106
108
108
109
110
111
112
112
113
114
114
115
116
117
117
118
118
120
120
121
121
122
122
122
123
123
124
124
124
124
125
125
125
124
123
123
123
122
121
121
120
119
118
117
116
114
114
113
111
109
108
107
105
103
101
100
99
97
96
94
92
90
88
87
85
83
82
81
79
76
74
73
71
69
67
64
63
61
59
57
55
53
52
49
48
46
45
42
40
39
37
36
33
32
31
29
28
26
25
23
23
22
20
19
19
17
17
15
15
14
13
12
12
11
10
10
9
8
8
7
7
6
5
5
5
5
4
3
3
3
3
3
3
3
3
3
3
3
3
3
3
3
3
4
4
5
5
5
5
5
5
5
5
5
5
5
4
4
4
4
4
4
4
4
3
3
3
3
3
3
3
4
4
4
4
5
5
5
6
6
6
6
7
7
7
8
8
8
8
9
9
9
9
9
9
9
9
9
10
10
10
10
10
10
10
10
10
10
10
10
10
10
10
9
9
9
8
8
8
8
8
8
8
8
7
7
6
6
6
6
6
6
5
5
5
5
5
5
5
4
4
4
4
4
4
4
4
3
3
3
3
3
3
3
3
3
3
3
2
2
2
1
1
1
1
0
0
0
0
0
0
-1
-1
-2
-2
-3
-3
-3
-4
-4
-4
-5
-5
-6
-6
-6
-6
-6
-6
-6
-6
-6
-6
-6
-6
-6
-7
-6
-6
-6
-6
-6
-6
-6
-6
-6
-6
-6
-6
-6
-6
-6
-5
-5
-6
-6
-6
-6
-6
-5
-5
-5
-5
-5
-5
-4
-4
-4
-4
-4
-4
-5
-5
-5
-5
-5
-5
-5
-5
-5
-5
-5
-6
-7
-7
-7
-7
-7
-7
-7
-7
-6
-6
-6
-7
-7
-7
-7
-7
-5
-6
-6
-6
-6
-6
-6
-6
-6
-6
-6
-6
-6
-6
-6
-6
-6
-6
-6
-7
-7
-7
-7
-7
-7
-7
-7
-7
-7
-7
-7
-7
-7
-8
-8
-8
-8
-8
-8
-8
-8
-8
-8
-9
-9
-9
-9
-9
-9
-9
-10
-10
-10
-10
-10
-11
-11
-11
-12
-12
-12
-12
-12
-12
-12
-12
-12
-12
-12
-12
-12
-12
-11
-11
-11
-12
-11
-11
-10
-9
-9
-9
-9
-8
-9
-9
-9
-9
-9
-9
-9
-9
-10
-10
-10
-10
-10
-10
-10
-10
-10
-10
-10
-10
-10
-10
-10
-10
-10
-9
-9
-9
-9
-9
-8
-8
-8
-8
-8
-8
-8
-8
-8
-7
-7
-7
-8
-8
-9
-9
-9
-9
-9
-9
-9
-10
-10
-10
-10
-10
-10
-10
-10
-11
-11
-10
-10
-10
-10
-10
-10
-9
-10
-10
-10
-10
-10
-10
-10
-10
-11
-11
-11
-11
-11
-11
-11
-11
-12
-12
-12
-12
-12
-12
-12
-13
-13
-13
-13
-13
-12
-12
-12
-12
-12
-12
-12
-12
-12
-13
-13
-13
-14
-14
-14
-14
-14
-14
-14
-13
-14
-14
-14
-14
-14
-14
-15
-15
-14
-14
-14
-14
-14
-14
-14
-14
-13
-13
-13
-13
-13
-12
-12
-12
-11
-10
-10
-10
-10
-8
-8
-8
-7
-7
-7
-7
-7
-7
-6
-6
-6
-6
-6
-5
-5
-6
-5
-5
-5
-5
-5
-5
-4
-4
-4
-3
-3
-2
-2
-1
-1
0
1
1
2
2
2
3
3
3
4
3
3
4
4
4
4
4
4
4
4
4
4
4
4
4
4
4
4
3
4
4
4
3
3
3
3
2
3
2
2
2
2
2
2
2
2
2
2
1
2
1
1
1
1
1
1
0
0
0
0
-1
-1
-1
-1
-2
-2
-2
-2
-4
-4
-4
-4
-4
-5
-6
-6
-6
-6
-7
-7
-7
-7
-8
-8
-8
-8
-8
-8
-8
-8
-9
-9
-9
-9
-9
-10
-10
-10
-10
-10
-10
-10
-10
-10
-11
-12
-12
-12
-12
-12
-12
-12
-12
-12
-12
-11
-11
-11
-11
-11
-10
-10
-10
-9
-9
-9
-9
-7
-7
-6
-6
-6
-4
-4
-4
-3
-3
-3
-3
-2
-2
-2
-2
-2
-3
-4
-4
-5
-7
-8
-10
-11
-13
-15
-17
-19
-21
-23
-24
-26
-26
-27
-26
-26
-24
-22
-17
-12
-7
1
9
20
31
44
58
75
93
112
133
156
180
207
233
262
292
324
357
391
426
462
499
536
575
613
652
690
728
763
797
828
855
879
898
912
921
924
922
915
900
881
856
825
791
752
708
662
614
564
513
463
413
364
318
274
234
197
164
134
109
87
70
55
42
32
25
20
16
14
13
12
12
13
13
15
15
16
17
16
17
17
17
16
15
15
14
13
12
11
9
8
7
6
5
4
3
2
0
0
-1
-1
-2
-3
-4
-4
-4
-5
-5
-5
-5
-5
-5
-5
-5
-5
-5
-5
-5
-5
-5
-5
-4
-4
-4
-4
-3
-4
-4
-4
-4
-3
-3
-3
-2
-2
-2
-1
0
-1
0
0
1
2
2
3
3
4
4
5
6
6
6
7
7
7
9
9
9
10
10
11
12
12
13
13
14
14
14
15
15
16
16
16
17
17
17
18
18
18
19
19
19
20
20
22
22
22
23
23
24
24
25
26
27
27
27
28
29
30
30
31
32
33
33
33
35
35
36
36
38
38
39
39
40
40
42
42
43
43
44
44
44
44
45
45
46
46
47
47
49
50
50
51
51
53
53
54
54
55
55
56
57
57
58
60
60
62
62
63
65
65
66
67
68
69
70
71
72
72
74
75
75
77
77
78
79
80
81
81
82
83
83
85
85
85
87
87
89
89
91
91
92
94
94
96
97
98
99
100
101
103
103
105
105
107
108
108
110
110
111
113
113
114
114
116
116
116
117
117
119
119
120
120
120
122
122
123
123
124
125
125
125
126
126
127
128
128
128
129
130
130
130
130
130
130
130
130
130
130
130
130
130
129
129
128
128
127
127
126
125
125
124
123
122
121
120
119
117
116
115
113
112
111
109
107
105
104
102
100
98
96
94
93
91
89
87
84
83
81
79
77
75
73
71
69
67
66
63
62
59
57
56
53
53
51
49
48
45
44
42
41
38
37
36
34
32
30
29
28
26
26
24
23
22
21
20
19
19
17
17
16
15
14
14
14
13
13
12
11
11
10
10
9
9
9
8
8
7
7
7
6
6
6
6
6
6
5
5
6
5
5
5
6
6
6
6
7
7
7
8
7
7
7
7
7
7
7
7
7
7
7
7
7
6
6
6
6
6
6
6
6
6
6
6
6
7
7
8
8
8
8
8
8
8
8
8
7
8
8
8
8
8
7
7
7
7
6
6
6
6
5
5
5
5
5
5
6
6
6
6
6
6
6
7
7
7
7
7
7
7
7
7
8
8
8
8
8
8
8
8
7
7
7
7
8
8
8
7
7
7
7
7
7
6
6
6
6
6
5
5
4
4
4
4
4
4
4
4
4
4
3
2
2
2
2
2
2
2
2
2
1
1
1
1
1
1
1
1
0
0
0
0
0
-1
-1
-1
-1
-1
-1
-1
-1
-1
-1
-1
-1
-1
-1
-1
-1
-1
-1
-2
-2
-2
-2
-2
-2
-2
-2
-2
-1
-1
-1
-1
-1
-1
-1
-1
-1
-1
-1
-1
-1
-1
-2
-2
-2
-2
-2
-2
-2
-2
-2
-3
-3
-3
-3
-3
-4
-4
-4
-4
-4
-4
-4
-4
-4
-5
-5
-5
-5
-5
-6
-6
-6
-6
-6
-6
-6
-7
-7
-7
-7
-7
-7
-7
-7
-7
-7
-7
-7
-7
-7
-7
-8
-8
-8
-8
-8
-8
-8
-8
-8
-8
-8
-8
-8
-8
-8
-8
-8
-8
-8
-8
-8
-8
-8
-8
-8
-8
-8
-8
-8
-8
-8
-8
-8
-8
-8
-8
-9
-9
-10
-10
-10
-10
-10
-11
-11
-11
-11
-11
-11
-11
-11
-11
-11
-11
-11
-11
-11
-11
-11
-11
-11
-11
-11
-10
-10
-10
-10
-10
-10
-9
-9
-9
-9
-9
-10
-10
-10
-10
-10
-10
-10
-10
-10
-10
-10
-10
-10
-10
-10
-10
-11
-11
-11
-11
-11
-11
-12
-12
-12
-12
-12
-12
-12
-12
-13
-13
-13
-13
-13
-13
-13
-13
-13
-13
-12
-12
-12
-12
-12
-12
-12
-12
-11
-11
-11
-11
-11
-11
-11
-11
-11
-11
-11
-11
-11
-11
-11
-11
-11
-11
-11
-11
-11
-11
-11
-11
-11
-11
-11
-11
-11
-10
-10
-10
-9
-9
-9
-8
-8
-8
-7
-7
-7
-7
-6
-6
-6
-6
-6
-6
-6
-6
-6
-6
-6
-5
-5
-5
-4
-4
-4
-4
-4
-4
-4
-4
-4
-4
-4
-4
-4
-4
-5
-5
-5
-5
-5
-6
-6
-7
-7
-7
-7
-7
-8
-8
-8
-8
-8
-7
-6
-6
-6
-6
-6
-6
-6
-6
-5
-5
-5
-5
-5
-5
-5
-5
-5
-5
-6
-6
-6
-6
-6
-5
-5
-5
-4
-4
-4
-4
-3
-3
-3
-1
-1
-1
0
0
0
0
1
1
2
2
2
2
2
2
2
2
3
3
3
3
4
4
5
5
5
5
6
6
7
7
8
8
8
9
9
9
10
10
10
10
10
11
11
10
10
10
11
11
11
10
10
10
10
9
9
9
9
9
8
8
7
7
7
7
7
7
6
6
5
5
4
5
4
4
3
4
3
2
3
3
2
2
1
1
1
1
1
0
0
0
-1
-1
-1
-2
-3
-3
-3
-3
-4
-4
-5
-4
-5
-6
-6
-6
-7
-7
-8
-8
-9
-9
-9
-9
-11
-11
-11
-11
-11
-12
-12
-13
-13
-13
-13
-13
-13
-13
-13
-12
-12
-12
-12
-12
-11
-11
-11
-11
-10
-10
-10
-10
-10
-10
-10
-10
-10
-10
-10
-10
-9
-8
-8
-8
-8
-8
-8
-8
-7
-7
-7
-7
-7
-6
-6
-6
-5
-5
-5
-5
-5
-4
-4
-4
-4
-5
-5
-5
-5
-7
-7
-8
-10
-11
-13
-15
-16
-18
-18
-20
-21
-22
-22
-23
-22
-21
-18
-16
-11
-6
0
7
16
27
38
51
65
82
100
120
141
163
188
213
240
269
299
330
363
396
431
467
503
539
577
614
650
686
721
753
783
809
833
851
866
874
878
877
871
858
841
817
789
757
720
680
636
591
543
495
447
400
354
310
268
229
194
162
133
108
86
68
53
41
32
23
19
14
11
10
10
10
10
11
12
13
14
15
16
15
16
16
16
15
14
14
12
12
11
10
9
8
6
5
4
3
2
1
0
0
-1
-2
-3
-3
-3
-4
-4
-4
-4
-4
-4
-4
-4
-4
-4
-4
-4
-4
-4
-3
-3
-3
-3
-3
-3
-3
-2
-2
-2
-2
-2
-2
-2
-2
-1
-1
-1
-1
0
0
0
1
2
2
2
3
3
3
4
4
4
5
5
6
7
7
7
8
8
9
9
9
10
11
11
11
12
12
12
13
13
15
15
15
16
16
17
18
19
19
20
20
21
21
22
22
23
23
24
24
25
25
27
27
28
28
29
29
29
30
30
31
31
31
32
33
33
33
33
34
34
35
35
36
37
37
38
38
39
40
40
42
42
43
43
44
44
46
46
47
47
48
48
50
50
51
52
53
54
54
55
56
57
57
59
60
60
62
62
63
63
65
65
66
67
68
68
69
70
71
71
73
73
74
75
75
77
77
79
80
80
82
82
84
85
86
87
88
89
90
91
92
93
94
96
97
97
99
100
101
102
103
104
105
106
107
108
108
109
110
112
112
113
114
114
115
115
116
117
118
118
119
119
120
121
122
122
123
123
123
124
125
125
126
126
126
127
128
128
128
129
129
129
130
130
130
130
130
131
131
131
131
131
131
131
130
130
130
129
128
128
128
126
126
124
123
122
121
120
118
117
115
113
112
110
107
106
104
102
101
98
96
95
93
91
88
87
85
83
80
79
77
74
72
71
68
66
65
63
61
59
57
55
54
52
50
48
47
45
45
42
41
39
38
37
35
34
32
31
29
28
28
26
25
23
23
22
20
19
18
17
16
15
14
13
12
12
11
11
10
9
9
8
9
7
7
7
7
6
6
6
6
6
5
5
5
5
5
4
4
4
4
4
4
4
4
4
6
6
6
6
6
6
6
6
7
7
7
7
7
7
6
7
7
7
7
7
7
7
8
8
8
8
8
8
8
8
8
8
8
8
8
8
8
9
9
9
9
9
9
9
9
10
10
10
10
10
11
11
11
11
11
12
12
12
12
11
11
11
11
10
10
10
10
10
10
9
9
9
9
9
9
9
8
8
8
8
8
8
8
8
8
8
8
8
8
8
8
8
8
8
8
8
8
8
8
8
8
8
7
7
7
7
6
6
6
6
6
6
6
6
5
5
5
5
5
5
4
4
4
4
4
3
3
3
2
2
2
1
1
1
1
1
1
1
1
1
1
1
1
1
1
1
1
1
0
0
0
0
0
-1
-1
-1
-1
-1
-1
-2
-2
-2
-2
-2
-2
-3
-3
-3
-3
-3
-3
-3
-2
-2
-2
-2
-2
-2
-2
-1
-1
-1
0
0
-1
-1
0
0
0
0
0
0
0
0
0
0
1
0
0
0
-1
-1
-1
-1
-1
0
0
0
0
0
0
0
0
-1
-1
-1
-1
-1
-1
-1
-1
-1
-1
-1
-1
-1
-1
-1
-1
-1
-1
-1
-1
-1
-1
-1
-1
0
0
0
0
-1
-1
0
0
0
0
0
1
1
1
1
1
1
1
1
1
1
1
1
1
0
0
-1
-1
-1
-1
-1
-2
-2
-2
-2
-3
-3
-3
-3
-3
-3
-4
-4
-4
-4
-4
-4
-4
-4
-5
-5
-5
-5
-5
-5
-5
-5
-5
-5
-5
-5
-5
-5
-5
-6
-6
-6
-6
-6
-6
-5
-5
-5
-5
-5
-5
-5
-5
-5
-5
-5
-5
-5
-5
-5
-5
-5
-5
-5
-5
-5
-6
-6
-6
-6
-6
-6
-6
-6
-6
-6
-7
-7
-7
-7
-7
-7
-7
-7
-8
-8
-8
-8
-8
-8
-8
-8
-8
-8
-8
-8
-8
-9
-9
-10
-10
-10
-10
-10
-10
-10
-10
-11
-11
-12
-12
-12
-12
-12
-12
-12
-12
-11
-11
-11
-11
-11
-11
-11
-11
-11
-11
-11
-11
-11
-9
-9
-9
-9
-9
-9
-8
-8
-8
-8
-8
-9
-9
-9
-9
-9
-9
-9
-9
-9
-9
-10
-10
-10
-10
-10
-10
-10
-10
-11
-11
-11
-11
-11
-11
-12
-11
-11
-11
-11
-12
-12
-12
-12
-12
-12
-11
-12
-12
-12
-12
-12
-12
-13
-13
-13
-13
-13
-13
-13
-13
-13
-13
-13
-13
-13
-13
-13
-13
-13
-13
-13
-13
-13
-13
-13
-13
-13
-13
-13
-13
-13
-13
-13
-13
-13
-14
-14
-14
-14
-14
-14
-14
-14
-14
-14
-14
-14
-14
-14
-13
-13
-13
-13
-13
-13
-12
-12
-12
-12
-12
-11
-11
-11
-10
-9
-9
-9
-8
-8
-8
-7
-7
-7
-7
-6
-6
-6
-6
-5
-5
-5
-3
-3
-3
-2
-2
-2
-1
-1
0
0
1
2
2
3
3
3
4
4
4
5
5
6
6
6
6
7
7
6
6
6
6
6
6
6
6
6
5
5
6
5
5
4
5
4
4
4
4
3
4
3
3
3
3
3
2
3
2
3
2
2
2
2
2
2
2
2
1
1
1
0
0
0
0
-1
-1
-1
-1
-2
-2
-2
-3
-3
-4
-4
-4
-5
-5
-5
-5
-5
-5
-5
-6
-6
-6
-6
-6
-7
-7
-7
-7
-7
-6
-6
-6
-7
-7
-7
-6
-6
-6
-6
-6
-5
-5
-5
-4
-4
-4
-3
-3
-2
-2
-2
-2
-2
-2
-1
-1
-1
-2
-2
-2
-2
-2
-2
-1
-1
-1
-1
-1
-1
0
0
0
0
0
1
1
1
1
1
1
1
1
2
2
1
1
1
1
0
-1
-2
-3
-5
-6
-8
-9
-10
-11
-13
-13
-15
-15
-16
-15
-14
-13
-10
-7
-2
3
10
17
26
36
49
62
77
93
112
131
152
175
199
225
251
280
310
341
373
407
441
475
511
547
583
619
655
690
723
754
782
807
828
845
857
863
866
862
854
841
821
797
769
736
698
658
615
570
523
476
430
384
339
296
257
219
185
155
128
104
84
67
53
42
33
27
22
19
17
16
16
16
16
16
17
18
19
20
19
20
20
20
19
19
19
17
17
16
15
14
13
13
12
12
10
9
9
9
7
7
7
7
5
5
5
5
5
5
5
4
4
4
4
5
5
5
5
5
5
5
5
5
6
7
7
7
7
7
8
8
8
8
8
9
9
9
9
9
11
11
11
11
11
11
11
11
11
11
11
12
12
12
13
13
14
14
14
15
15
15
16
16
16
17
17
18
18
19
19
20
21
22
22
23
23
24
24
25
25
26
27
27
28
28
30
30
31
31
32
32
32
33
33
34
35
35
36
36
36
37
38
39
39
40
41
41
42
44
44
45
45
46
47
47
49
49
50
50
51
51
52
52
53
54
55
55
56
56
57
58
58
59
59
60
61
61
62
62
64
64
64
66
66
67
67
69
69
70
71
72
72
74
74
76
76
77
78
79
81
81
82
83
84
84
86
87
87
89
90
91
92
93
94
95
96
97
97
99
100
100
101
102
103
104
105
105
107
107
108
109
110
110
112
112
113
115
115
116
117
118
119
120
121
122
123
124
124
126
126
127
127
129
129
129
131
131
132
133
134
134
136
136
137
137
138
138
140
141
141
142
142
143
143
145
144
144
145
145
145
145
145
145
145
145
145
144
144
143
142
142
141
140
140
139
138
136
135
134
133
131
130
128
126
125
123
121
120
118
116
114
112
110
109
106
104
103
100
99
97
95
93
91
89
86
85
83
81
78
77
75
74
72
70
68
67
65
64
61
59
59
57
55
54
53
51
50
48
47
45
44
43
43
41
40
39
38
37
36
36
34
33
33
31
31
30
30
28
28
27
27
26
25
24
24
23
23
21
21
21
20
20
20
20
18
18
18
18
18
18
18
18
19
19
19
19
19
19
20
20
21
21
21
22
22
22
22
23
23
23
23
23
22
22
22
22
22
22
22
22
23
23
23
21
21
21
21
21
21
21
21
21
21
21
21
21
21
21
21
21
21
21
21
21
21
21
21
21
21
21
22
22
22
22
21
21
21
21
21
21
21
21
21
21
21
20
20
20
20
20
20
20
20
20
20
20
19
19
19
19
19
19
18
18
17
17
17
17
17
16
15
15
15
15
15
15
15
15
15
15
15
15
15
15
15
15
15
14
14
14
14
14
14
14
13
13
13
12
12
12
12
12
11
10
10
10
10
10
10
10
10
9
9
8
8
8
8
8
8
7
7
7
7
7
7
7
7
7
7
7
6
5
5
5
5
5
4
4
4
4
4
3
3
3
3
3
3
3
3
3
3
2
2
2
2
3
2
2
2
2
2
2
2
2
2
2
2
2
2
2
2
1
1
1
2
2
2
2
2
2
2
2
2
2
2
2
2
2
2
2
2
2
2
2
2
2
2
3
3
3
3
4
4
3
3
4
4
4
5
5
5
5
5
6
6
6
6
6
6
6
6
6
6
6
6
6
6
6
6
6
6
4
4
4
4
4
4
4
4
3
3
3
3
3
2
2
2
2
2
2
2
2
2
2
2
2
2
2
2
2
2
2
2
3
3
3
4
4
5
5
5
5
5
5
6
6
6
6
6
6
7
7
7
7
7
7
7
7
7
7
7
7
7
7
7
7
7
7
7
8
8
8
8
8
9
9
9
9
9
10
10
9
9
10
10
10
10
11
11
11
12
12
12
12
13
13
13
13
14
14
14
14
15
15
15
15
15
15
15
15
15
15
15
15
15
15
15
15
15
14
14
14
14
14
14
14
14
14
14
14
14
15
15
15
15
15
16
16
16
16
16
16
16
16
16
16
16
16
16
17
17
17
17
17
16
16
16
16
16
16
16
16
16
16
16
16
16
16
16
16
16
17
17
17
17
17
17
17
17
17
16
16
16
16
16
16
16
15
15
15
15
15
15
15
14
15
15
15
15
15
16
16
17
18
18
18
18
20
20
20
20
21
22
22
22
22
22
22
24
24
24
24
24
24
25
25
24
24
25
25
25
25
25
25
25
25
25
25
25
25
25
26
25
26
26
27
26
27
28
27
28
28
29
29
29
29
30
29
30
30
30
30
30
30
30
30
30
30
30
30
30
29
29
29
29
28
29
28
28
27
27
27
27
26
26
26
25
24
25
24
25
24
23
24
23
22
23
22
22
22
21
21
22
21
21
20
20
20
20
19
19
18
17
17
16
15
15
15
14
13
12
12
12
12
11
10
10
10
9
9
9
9
9
9
9
9
8
9
9
9
9
9
10
10
9
9
9
9
10
10
10
10
10
10
10
10
10
10
10
10
10
10
10
10
10
10
10
10
10
10
10
11
11
11
11
11
12
11
11
11
11
11
11
11
12
12
12
12
12
11
10
10
10
8
8
6
6
5
3
1
-1
-2
-3
-5
-6
-7
-7
-8
-8
-7
-6
-3
0
4
10
16
24
35
46
59
73
88
105
124
145
167
191
216
242
270
299
331
364
397
432
468
504
542
580
618
657
695
733
769
804
836
864
890
911
926
938
944
944
938
927
909
887
859
826
788
747
703
656
606
556
507
456
409
361
317
275
238
203
172
146
123
103
87
74
63
55
49
45
42
41
40
41
41
41
42
43
45
45
46
46
46
46
46
45
45
45
43
42
41
40
39
38
37
35
34
34
32
31
30
29
28
28
27
27
26
26
25
25
25
25
25
25
24
24
24
24
24
25
25
25
26
26
27
27
27
28
28
28
29
29
30
30
30
30
30
30
30
30
30
30
30
30
30
30
31
31
31
31
31
31
32
33
33
33
33
34
34
34
34
35
35
35
35
36
36
37
38
38
38
39
39
39
39
40
40
41
41
42
43
43
44
44
46
46
46
47
47
48
49
49
50
50
50
51
51
52
52
53
53
53
54
55
55
55
55
55
55
57
57
57
57
58
58
58
59
60
60
60
60
61
61
61
63
63
63
64
64
65
65
65
67
67
68
68
69
70
71
71
72
73
74
74
76
76
76
78
78
79
80
81
81
83
83
84
86
86
87
87
88
89
90
91
92
93
94
95
95
97
97
99
99
101
101
103
103
103
105
105
107
108
109
109
110
111
112
114
114
116
116
117
119
119
120
121
123
123
124
125
126
127
127
129
129
130
130
132
132
133
134
135
135
136
137
138
138
139
140
141
141
141
142
142
143
144
144
144
145
146
146
147
147
148
148
148
149
149
151
150
150
151
151
152
152
152
152
153
152
152
152
151
150
150
149
148
147
147
145
145
143
141
141
139
137
137
135
134
132
130
129
127
125
124
122
120
119
116
114
113
111
108
107
105
102
100
99
97
94
93
91
89
87
85
84
82
79
78
76
75
72
71
69
68
67
65
63
62
60
59
57
56
55
53
52
51
49
48
47
45
44
43
43
41
40
40
39
39
38
38
37
36
36
36
36
36
35
35
35
35
35
35
35
35
35
35
34
33
33
33
33
34
34
34
32
32
32
32
32
32
32
32
32
32
32
33
32
32
32
32
31
31
31
32
32
32
32
32
31
31
31
31
31
31
30
30
30
30
30
30
30
30
30
30
30
30
30
31
31
31
31
31
31
31
31
31
31
31
31
31
31
31
31
31
30
30
30
30
30
30
30
29
29
29
29
29
29
29
28
28
28
28
28
27
27
27
26
26
26
25
25
25
24
24
24
23
24
24
23
23
23
22
22
22
21
21
21
20
20
20
20
19
19
19
19
18
17
17
17
17
17
17
16
16
16
16
16
15
14
14
14
