# Simple Text Format
# Sampling Rate (Hz):= 1200.00
# Resolution:= 12
# Labels:= ECG	 V1
# Age:=	64
# Gender:=	Masculino
-242
-242
-242
-242
-241
-240
-240
-240
-240
-240
-240
-239
-239
-239
-239
-239
-239
-239
-239
-238
-238
-238
-238
-238
-238
-237
-237
-237
-237
-238
-237
-237
-237
-237
-237
-236
-236
-237
-237
-237
-237
-237
-237
-237
-237
-236
-236
-236
-236
-235
-235
-234
-234
-234
-234
-233
-233
-233
-232
-233
-232
-232
-232
-232
-230
-230
-230
-231
-231
-231
-231
-231
-231
-231
-232
-231
-231
-232
-232
-233
-233
-233
-234
-234
-234
-234
-235
-235
-235
-236
-236
-235
-236
-235
-235
-234
-234
-234
-233
-233
-232
-232
-231
-230
-230
-229
-228
-227
-226
-225
-224
-223
-223
-221
-220
-220
-219
-218
-218
-217
-217
-217
-217
-217
-218
-219
-221
-222
-224
-227
-229
-232
-235
-239
-243
-247
-252
-257
-262
-267
-272
-277
-281
-286
-289
-292
-296
-299
-300
-301
-302
-303
-303
-301
-299
-297
-295
-292
-288
-284
-280
-275
-271
-266
-262
-257
-253
-248
-243
-239
-235
-231
-228
-225
-222
-219
-216
-214
-212
-210
-209
-207
-206
-206
-205
-205
-204
-204
-205
-205
-206
-205
-206
-207
-208
-208
-209
-209
-210
-211
-211
-212
-213
-214
-215
-215
-215
-217
-216
-217
-218
-218
-218
-217
-218
-218
-219
-218
-219
-218
-219
-218
-218
-218
-218
-217
-217
-216
-216
-217
-217
-217
-217
-217
-218
-218
-218
-219
-220
-220
-220
-221
-221
-222
-222
-223
-223
-223
-223
-224
-224
-224
-224
-224
-224
-225
-224
-224
-224
-224
-224
-223
-223
-223
-223
-224
-224
-223
-223
-223
-223
-222
-222
-221
-221
-221
-221
-220
-220
-220
-220
-220
-220
-219
-219
-220
-219
-219
-218
-219
-219
-219
-219
-219
-219
-220
-220
-220
-220
-220
-220
-221
-221
-221
-221
-221
-221
-221
-221
-221
-221
-221
-221
-221
-220
-220
-220
-219
-219
-219
-219
-218
-218
-217
-217
-217
-216
-216
-216
-216
-216
-216
-216
-216
-216
-216
-216
-217
-217
-217
-218
-218
-219
-220
-220
-220
-221
-221
-222
-222
-222
-222
-223
-223
-223
-222
-223
-223
-223
-223
-223
-222
-223
-223
-223
-223
-223
-224
-223
-223
-223
-223
-223
-224
-224
-224
-225
-224
-225
-225
-225
-226
-226
-226
-226
-226
-226
-227
-227
-228
-228
-229
-229
-230
-230
-231
-231
-232
-233
-232
-233
-234
-235
-235
-236
-236
-237
-238
-238
-239
-240
-240
-241
-242
-242
-242
-243
-243
-244
-244
-244
-245
-246
-245
-246
-245
-246
-245
-246
-246
-246
-247
-247
-248
-248
-247
-248
-249
-249
-250
-250
-250
-251
-252
-252
-252
-253
-253
-254
-254
-254
-254
-254
-254
-255
-254
-254
-254
-254
-254
-254
-254
-254
-254
-254
-254
-254
-256
-255
-255
-256
-257
-257
-257
-258
-258
-258
-258
-259
-259
-259
-258
-258
-258
-258
-258
-257
-257
-256
-256
-256
-255
-254
-254
-253
-252
-252
-251
-251
-251
-250
-250
-249
-249
-248
-247
-247
-247
-246
-246
-245
-245
-244
-243
-243
-242
-242
-241
-241
-241
-240
-240
-239
-239
-239
-238
-238
-238
-237
-237
-237
-237
-236
-236
-236
-235
-236
-235
-234
-235
-234
-233
-233
-232
-232
-231
-231
-230
-229
-229
-228
-228
-227
-226
-225
-225
-224
-225
-225
-224
-224
-223
-224
-224
-224
-223
-223
-224
-224
-224
-224
-224
-224
-224
-224
-224
-224
-224
-224
-224
-223
-223
-223
-223
-223
-223
-223
-223
-222
-222
-223
-223
-222
-222
-222
-222
-221
-221
-221
-221
-221
-221
-221
-221
-220
-220
-220
-220
-220
-220
-220
-221
-221
-221
-221
-221
-221
-221
-222
-221
-221
-221
-221
-221
-221
-221
-222
-222
-221
-221
-221
-221
-221
-222
-222
-221
-221
-221
-221
-221
-221
-222
-222
-221
-221
-221
-221
-221
-221
-221
-221
-221
-221
-221
-221
-221
-222
-221
-221
-221
-221
-221
-221
-221
-221
-221
-221
-221
-221
-220
-220
-220
-221
-221
-222
-222
-222
-222
-221
-221
-221
-221
-220
-220
-220
-220
-220
-220
-220
-220
-220
-220
-220
-220
-220
-220
-220
-220
-220
-221
-221
-221
-222
-222
-222
-222
-222
-222
-222
-222
-223
-222
-222
-221
-222
-222
-221
-221
-221
-221
-221
-221
-220
-220
-220
-220
-220
-219
-219
-219
-218
-218
-218
-219
-219
-219
-219
-219
-219
-219
-219
-219
-220
-220
-221
-221
-222
-222
-222
-222
-223
-223
-224
-224
-224
-224
-224
-224
-225
-224
-223
-223
-223
-223
-223
-222
-222
-222
-222
-220
-220
-221
-221
-221
-221
-220
-220
-220
-220
-220
-220
-220
-220
-220
-220
-220
-220
-220
-220
-220
-220
-220
-220
-220
-220
-220
-220
-220
-220
-220
-220
-220
-220
-220
-220
-220
-220
-220
-220
-220
-220
-220
-220
-220
-220
-220
-220
-219
-219
-219
-219
-219
-219
-219
-219
-219
-219
-219
-219
-219
-219
-219
-219
-219
-219
-219
-220
-220
-219
-220
-220
-221
-220
-221
-221
-221
-222
-222
-222
-222
-222
-222
-222
-222
-222
-223
-222
-222
-222
-222
-221
-221
-221
-221
-221
-221
-220
-221
-221
-221
-222
-222
-222
-221
-222
-222
-222
-223
-223
-223
-224
-224
-224
-225
-225
-225
-226
-226
-227
-228
-228
-229
-230
-230
-231
-232
-232
-234
-234
-235
-235
-236
-237
-237
-238
-239
-238
-239
-238
-239
-239
-239
-239
-239
-239
-239
-237
-237
-237
-237
-237
-237
-237
-237
-237
-237
-236
-237
-236
-236
-236
-236
-236
-236
-235
-235
-234
-234
-234
-233
-233
-232
-231
-230
-229
-228
-227
-227
-226
-226
-224
-224
-223
-222
-221
-220
-220
-218
-217
-217
-216
-215
-214
-214
-213
-213
-212
-212
-211
-211
-210
-210
-210
-210
-209
-210
-210
-210
-209
-209
-210
-210
-209
-209
-209
-209
-210
-209
-209
-209
-210
-209
-209
-208
-208
-209
-208
-208
-208
-207
-206
-206
-206
-205
-206
-206
-206
-206
-206
-206
-205
-205
-204
-204
-204
-204
-204
-204
-204
-205
-205
-205
-205
-205
-205
-205
-205
-204
-204
-204
-204
-204
-204
-203
-203
-203
-204
-204
-204
-204
-203
-203
-203
-203
-202
-202
-202
-202
-202
-202
-202
-201
-201
-200
-200
-200
-199
-199
-198
-198
-197
-197
-197
-196
-197
-197
-197
-197
-197
-197
-197
-196
-197
-197
-197
-198
-197
-197
-198
-198
-197
-196
-196
-194
-194
-194
-192
-191
-190
-189
-188
-186
-186
-185
-183
-182
-181
-180
-180
-179
-178
-178
-179
-179
-180
-181
-182
-184
-187
-190
-193
-196
-200
-205
-210
-214
-219
-224
-230
-235
-240
-244
-249
-253
-256
-259
-261
-262
-264
-265
-264
-264
-262
-261
-258
-255
-252
-247
-244
-240
-235
-230
-226
-221
-216
-211
-207
-203
-199
-194
-191
-188
-185
-181
-178
-176
-173
-170
-169
-167
-165
-164
-163
-163
-163
-163
-163
-163
-164
-163
-164
-165
-166
-167
-168
-168
-170
-171
-171
-173
-174
-174
-175
-176
-177
-177
-177
-178
-178
-179
-179
-180
-179
-179
-179
-179
-179
-179
-179
-180
-180
-180
-180
-180
-181
-181
-181
-182
-183
-183
-183
-183
-184
-185
-185
-186
-186
-187
-187
-188
-187
-188
-187
-188
-187
-188
-188
-189
-189
-189
-189
-190
-190
-190
-189
-190
-190
-191
-190
-191
-191
-191
-191
-191
-192
-192
-192
-192
-193
-193
-192
-192
-192
-192
-193
-193
-193
-193
-193
-193
-193
-192
-193
-192
-193
-192
-193
-192
-193
-192
-193
-193
-194
-193
-194
-194
-195
-195
-196
-196
-196
-196
-196
-198
-198
-198
-198
-198
-198
-198
-198
-198
-198
-198
-197
-197
-197
-197
-197
-198
-198
-198
-198
-199
-199
-199
-199
-201
-201
-202
-202
-203
-204
-205
-205
-205
-206
-206
-207
-207
-207
-207
-207
-207
-206
-206
-207
-206
-206
-206
-205
-206
-206
-205
-205
-205
-205
-205
-205
-205
-205
-205
-205
-205
-206
-206
-206
-206
-206
-206
-207
-207
-207
-206
-206
-207
-207
-207
-207
-208
-208
-208
-208
-208
-208
-209
-209
-208
-209
-209
-210
-210
-210
-211
-211
-212
-212
-213
-213
-214
-214
-214
-214
-215
-215
-216
-216
-217
-217
-218
-218
-219
-219
-220
-221
-221
-222
-221
-222
-222
-223
-222
-223
-223
-224
-225
-225
-226
-225
-226
-226
-227
-227
-228
-228
-228
-229
-229
-231
-231
-231
-232
-232
-232
-233
-233
-233
-232
-232
-233
-233
-233
-234
-233
-233
-233
-234
-234
-234
-235
-235
-235
-236
-236
-236
-236
-238
-238
-238
-238
-238
-239
-239
-239
-239
-238
-238
-238
-237
-237
-237
-235
-235
-235
-234
-233
-233
-232
-232
-231
-231
-230
-230
-229
-228
-229
-228
-228
-227
-228
-227
-227
-226
-226
-225
-225
-224
-224
-224
-223
-223
-222
-222
-222
-221
-221
-220
-219
-219
-218
-217
-217
-216
-216
-215
-216
-216
-215
-215
-214
-214
-214
-214
-213
-213
-212
-211
-211
-212
-211
-211
-210
-211
-210
-210
-210
-209
-209
-208
-208
-207
-207
-207
-206
-206
-206
-206
-205
-204
-204
-203
-203
-203
-202
-202
-202
-202
-202
-202
-201
-201
-202
-202
-201
-201
-201
-201
-201
-201
-201
-201
-202
-201
-201
-200
-201
-201
-200
-201
-201
-201
-200
-200
-200
-200
-200
-200
-200
-200
-200
-199
-199
-198
-198
-198
-198
-198
-198
-199
-199
-199
-199
-199
-199
-199
-199
-199
-199
-199
-199
-199
-199
-199
-199
-199
-199
-199
-199
-199
-199
-199
-198
-198
-199
-198
-198
-198
-198
-198
-198
-197
-198
-198
-198
-198
-199
-199
-198
-199
-199
-200
-200
-200
-200
-200
-200
-201
-202
-202
-202
-202
-202
-202
-202
-202
-202
-202
-202
-202
-202
-201
-201
-202
-202
-202
-202
-201
-201
-202
-202
-201
-202
-202
-202
-203
-203
-203
-203
-203
-203
-204
-205
-205
-205
-205
-205
-206
-206
-206
-206
-206
-206
-207
-207
-206
-206
-206
-206
-206
-206
-205
-205
-205
-205
-205
-205
-205
-205
-205
-205
-205
-205
-206
-206
-206
-206
-206
-206
-206
-207
-207
-207
-206
-207
-207
-206
-207
-207
-206
-207
-207
-206
-205
-205
-206
-206
-206
-205
-204
-204
-204
-204
-204
-204
-204
-204
-204
-204
-203
-203
-204
-204
-204
-205
-204
-204
-204
-205
-206
-206
-207
-207
-206
-208
-208
-208
-208
-208
-208
-208
-208
-208
-208
-208
-208
-207
-206
-206
-206
-206
-205
-205
-205
-205
-204
-204
-204
-204
-204
-205
-204
-204
-204
-205
-205
-205
-205
-207
-206
-207
-207
-207
-207
-207
-207
-208
-208
-209
-209
-208
-208
-208
-209
-209
-209
-210
-209
-209
-209
-208
-209
-209
-209
-209
-209
-208
-208
-207
-207
-207
-208
-208
-207
-207
-207
-207
-207
-207
-207
-208
-207
-208
-208
-208
-207
-208
-207
-208
-208
-208
-208
-208
-208
-208
-208
-208
-209
-209
-209
-209
-208
-209
-210
-210
-210
-210
-210
-210
-210
-210
-211
-210
-210
-211
-211
-212
-212
-212
-213
-213
-213
-214
-215
-215
-216
-216
-217
-218
-219
-220
-220
-221
-222
-223
-224
-224
-225
-225
-225
-226
-227
-226
-227
-226
-227
-227
-227
-227
-227
-227
-227
-226
-226
-226
-226
-226
-226
-225
-225
-225
-225
-226
-225
-225
-225
-225
-225
-225
-225
-225
-225
-225
-224
-224
-224
-224
-224
-223
-223
-223
-222
-221
-221
-220
-220
-219
-218
-217
-217
-216
-215
-214
-213
-212
-212
-211
-211
-210
-209
-208
-209
-208
-207
-207
-206
-206
-206
-206
-206
-206
-205
-205
-204
-204
-204
-204
-204
-204
-205
-204
-204
-204
-204
-204
-205
-204
-204
-205
-204
-204
-205
-205
-205
-205
-205
-205
-205
-204
-204
-205
-204
-204
-203
-203
-203
-203
-202
-202
-202
-202
-201
-201
-200
-200
-200
-200
-199
-199
-199
-199
-199
-199
-199
-199
-199
-199
-200
-200
-201
-201
-202
-202
-201
-201
-202
-202
-203
-202
-202
-203
-202
-203
-202
-202
-202
-201
-201
-201
-201
-200
-200
-199
-199
-199
-198
-198
-198
-198
-198
-197
-198
-198
-197
-198
-197
-197
-197
-198
-198
-198
-198
-199
-199
-198
-199
-199
-198
-198
-198
-197
-196
-195
-195
-194
-194
-193
-192
-191
-191
-189
-188
-188
-187
-186
-185
-186
-185
-186
-186
-187
-187
-189
-190
-192
-194
-198
-200
-205
-208
-213
-217
-222
-227
-232
-236
-241
-246
-251
-256
-259
-263
-266
-268
-270
-272
-273
-273
-273
-272
-271
-268
-266
-263
-259
-255
-250
-246
-241
-236
-232
-226
-222
-216
-212
-208
-203
-199
-196
-192
-189
-187
-184
-181
-180
-178
-176
-176
-175
-174
-174
-174
-175
-175
-175
-177
-177
-178
-179
-180
-180
-181
-182
-183
-184
-185
-185
-186
-186
-187
-188
-189
-189
-189
-191
-191
-192
-192
-193
-194
-193
-194
-195
-195
-195
-195
-196
-196
-196
-197
-196
-196
-197
-196
-196
-197
-196
-196
-195
-196
-196
-196
-195
-196
-196
-195
-195
-195
-196
-196
-196
-196
-196
-196
-195
-195
-195
-195
-196
-196
-197
-197
-197
-198
-198
-199
-200
-200
-201
-202
-203
-203
-204
-205
-205
-205
-205
-206
-205
-204
-204
-204
-204
-203
-203
-202
-202
-201
-200
-199
-199
-199
-198
-197
-197
-197
-197
-197
-197
-198
-198
-199
-199
-199
-200
-200
-200
-201
-201
-202
-202
-202
-202
-203
-203
-203
-203
-203
-203
-203
-202
-202
-203
-203
-202
-202
-202
-203
-203
-203
-203
-203
-203
-203
-204
-204
-204
-204
-204
-204
-205
-205
-205
-206
-206
-207
-207
-207
-207
-207
-207
-208
-207
-208
-207
-207
-208
-208
-208
-208
-207
-207
-207
-207
-207
-208
-208
-208
-208
-209
-209
-209
-210
-210
-211
-211
-211
-213
-213
-214
-214
-215
-215
-216
-216
-217
-217
-218
-218
-219
-219
-220
-220
-221
-220
-221
-221
-221
-222
-222
-222
-223
-222
-223
-222
-223
-223
-223
-223
-223
-224
-224
-224
-225
-225
-225
-226
-226
-227
-227
-228
-229
-229
-229
-231
-230
-231
-232
-232
-232
-232
-233
-234
-234
-234
-234
-234
-235
-235
-236
-235
-236
-235
-235
-236
-236
-237
-236
-236
-237
-237
-237
-238
-238
-238
-238
-239
-239
-240
-239
-240
-240
-240
-241
-241
-242
-242
-243
-243
-243
-242
-243
-243
-243
-243
-244
-244
-244
-244
-244
-244
-244
-244
-244
-244
-244
-244
-243
-244
-244
-244
-243
-243
-243
-243
-242
-242
-242
-241
-241
-242
-241
-241
-241
-240
-240
-239
-239
-239
-239
-238
-237
-236
-237
-237
-236
-236
-235
-235
-234
-233
-233
-232
-232
-231
-231
-230
-230
-229
-229
-228
-228
-227
-227
-226
-225
-224
-225
-224
-223
-223
-223
-222
-222
-221
-222
-221
-221
-220
-220
-220
-219
-220
-220
-219
-220
-219
-218
-218
-218
-218
-218
-217
-217
-217
-217
-217
-216
-216
-215
-215
-215
-215
-215
-214
-213
-213
-213
-213
-213
-213
-213
-213
-213
-212
-212
-212
-212
-212
-212
-212
-212
-212
-212
-212
-211
-211
-211
-211
-211
-211
-212
-211
-211
-211
-211
-211
-211
-211
-211
-211
-211
-211
-211
-211
-211
-211
-211
-211
-211
-212
-211
-211
-212
-212
-212
-212
-212
-213
-213
-213
-213
-213
-213
-213
-213
-213
-213
-213
-213
-214
-214
-214
-214
-214
-214
-214
-214
-214
-214
-214
-215
-215
-215
-215
-214
-215
-215
-215
-215
-216
-216
-216
-216
-217
-217
-217
-217
-218
-218
-219
-219
-219
-220
-220
-221
-221
-222
-221
-221
-221
-221
-221
-221
-221
-221
-220
-219
-219
-219
-219
-219
-219
-218
-218
-218
-218
-218
-217
-217
-217
-217
-217
-218
-217
-217
-218
-217
-218
-218
-218
-218
-218
-219
-219
-219
-219
-220
-220
-220
-220
-221
-221
-221
-222
-222
-222
-222
-223
-223
-223
-223
-223
-223
-223
-224
-224
-224
-224
-224
-225
-225
-225
-225
-225
-225
-226
-226
-226
-226
-226
-226
-226
-225
-225
-225
-225
-225
-224
-224
-224
-224
-224
-224
-223
-223
-223
-223
-223
-223
-224
-224
-224
-224
-224
-224
-224
-226
-226
-225
-225
-226
-226
-226
-226
-226
-226
-226
-226
-226
-226
-226
-226
-226
-226
-226
-226
-226
-226
-226
-226
-227
-227
-227
-227
-228
-228
-228
-229
-228
-228
-228
-229
-229
-228
-228
-229
-229
-227
-227
-227
-227
-227
-227
-228
-227
-227
-228
-227
-227
-227
-226
-227
-227
-227
-227
-228
-228
-229
-229
-230
-230
-230
-231
-231
-231
-231
-231
-231
-231
-232
-232
-231
-232
-232
-232
-232
-232
-232
-232
-231
-232
-232
-231
-232
-231
-231
-232
-231
-232
-232
-232
-232
-233
-233
-233
-234
-233
-234
-234
-235
-235
-235
-235
-236
-236
-237
-236
-237
-238
-238
-238
-239
-239
-240
-239
-240
-240
-241
-241
-243
-243
-244
-245
-245
-246
-246
-247
-248
-248
-249
-250
-251
-251
-252
-252
-253
-253
-254
-254
-254
-254
-255
-254
-254
-254
-255
-255
-255
-255
-256
-256
-255
-256
-256
-256
-256
-257
-257
-257
-257
-256
-256
-256
-256
-255
-255
-255
-255
-255
-255
-255
-255
-254
-254
-254
-254
-254
-253
-253
-253
-252
-252
-252
-252
-251
-251
-250
-250
-250
-250
-248
-248
-248
-248
-248
-248
-247
-247
-246
-246
-246
-246
-245
-245
-244
-244
-244
-243
-243
-244
-244
-243
-243
-244
-244
-244
-244
-244
-244
-244
-244
-244
-244
-244
-245
-245
-245
-246
-245
-245
-245
-246
-245
-245
-246
-246
-245
-245
-246
-246
-247
-248
-248
-249
-250
-250
-251
-251
-252
-252
-254
-254
-254
-256
-256
-256
-256
-258
-258
-258
-258
-258
-258
-259
-259
-259
-259
-260
-260
-260
-260
-260
-261
-262
-261
-262
-262
-262
-263
-263
-263
-263
-263
-264
-263
-264
-264
-265
-264
-265
-264
-265
-265
-266
-266
-267
-267
-269
-269
-269
-270
-271
-271
-271
-273
-272
-274
-274
-275
-275
-276
-275
-276
-275
-276
-276
-276
-276
-275
-276
-275
-275
-274
-272
-273
-271
-270
-269
-268
-268
-267
-266
-266
-265
-265
-264
-264
-264
-265
-265
-267
-267
-269
-271
-274
-276
-278
-282
-286
-289
-294
-297
-302
-307
-312
-317
-323
-327
-331
-335
-339
-342
-345
-348
-351
-352
-354
-354
-354
-353
-352
-350
-349
-345
-342
-339
-335
-331
-327
-324
-319
-315
-311
-307
-303
-298
-294
-290
-288
-284
-282
-278
-276
-275
-272
-271
-269
-268
-268
-267
-267
-268
-268
-268
-269
-269
-271
-271
-273
-274
-275
-276
-278
-278
-279
-280
-281
-282
-283
-283
-284
-285
-286
-286
-287
-287
-288
-288
-288
-289
-289
-290
-290
-290
-291
-291
-292
-292
-292
-293
-293
-293
-294
-294
-294
-294
-294
-295
-295
-295
-295
-296
-296
-296
-296
-295
-296
-297
-297
-296
-296
-296
-296
-297
-297
-297
-297
-297
-297
-297
-298
-298
-298
-298
-298
-299
-299
-300
-300
-300
-300
-299
-300
-300
-300
-300
-300
-300
-300
-300
-300
-300
-300
-301
-301
-301
-301
-300
-300
-300
-300
-301
-301
-300
-300
-301
-301
-301
-301
-301
-301
-300
-300
-300
-300
-300
-301
-301
-302
-302
-302
-302
-302
-303
-303
-303
-303
-304
-304
-304
-304
-304
-304
-304
-304
-304
-304
-304
-305
-305
-304
-304
-305
-305
-304
-305
-305
-304
-305
-305
-306
-305
-305
-306
-306
-306
-306
-306
-306
-307
-307
-307
-307
-308
-308
-308
-308
-308
-309
-309
-310
-311
-311
-311
-312
-312
-313
-313
-313
-314
-314
-314
-315
-315
-315
-316
-316
-316
-317
-316
-317
-316
-317
-316
-317
-316
-317
-317
-317
-317
-317
-317
-318
-318
-318
-318
-319
-319
-319
-319
-320
-320
-320
-320
-320
-321
-321
-321
-321
-322
-322
-322
-322
-323
-323
-323
-323
-324
-324
-324
-324
-325
-326
-326
-327
-328
-328
-329
-330
-330
-331
-331
-332
-332
-332
-333
-333
-333
-334
-334
-334
-334
-335
-335
-335
-334
-335
-336
-336
-336
-336
-337
-337
-337
-337
-338
-338
-338
-339
-340
-341
-341
-341
-342
-342
-342
-343
-343
-343
-344
-344
-343
-343
-344
-344
-344
-344
-344
-344
-343
-343
-343
-342
-342
-342
-341
-340
-340
-339
-339
-339
-339
-337
-337
-337
-337
-336
-336
-336
-335
-335
-335
-335
-334
-334
-335
-334
-335
-335
-334
-334
-335
-334
-334
-334
-334
-333
-333
-333
-333
-332
-331
-332
-331
-330
-329
-328
-328
-328
-327
-327
-326
-325
-325
-323
-322
-322
-322
-321
-321
-320
-319
-319
-319
-318
-318
-318
-318
-317
-317
-317
-316
-316
-317
-317
-316
-316
-316
-317
-316
-316
-316
-316
-316
-315
-316
-315
-315
-314
-315
-314
-314
-313
-313
-313
-313
-311
-311
-311
-311
-311
-311
-311
-311
-311
-311
-311
-311
-311
-311
-311
-311
-312
-312
-311
-311
-311
-312
-312
-311
-311
-312
-312
-312
-312
-312
-312
-312
-312
-312
-311
-311
-311
-311
-311
-310
-311
-311
-309
-309
-309
-308
-308
-309
-309
-309
-308
-308
-308
-308
-308
-309
-309
-310
-310
-310
-310
-311
-311
-311
-312
-312
-312
-312
-312
-312
-312
-312
-311
-311
-311
-311
-311
-311
-310
-310
-309
-309
-309
-309
-308
-308
-308
-308
-308
-308
-308
-308
-308
-308
-308
-308
-309
-309
-309
-309
-309
-309
-309
-309
-310
-310
-311
-311
-311
-311
-311
-311
-311
-311
-312
-312
-312
-311
-311
-311
-311
-311
-310
-310
-309
-308
-308
-307
-307
-307
-306
-305
-305
-305
-305
-305
-305
-306
-306
-306
-307
-306
-307
-307
-308
-308
-308
-309
-309
-310
-311
-310
-311
-311
-312
-312
-312
-312
-312
-312
-312
-311
-311
-311
-311
-310
-311
-311
-310
-309
-310
-309
-309
-308
-308
-309
-308
-308
-308
-308
-308
-308
-307
-307
-307
-307
-306
-306
-306
-306
-306
-306
-305
-305
-304
-304
-303
-303
-303
-304
-303
-303
-303
-304
-304
-304
-304
-305
-305
-305
-305
-307
-307
-307
-307
-308
-309
-309
-309
-309
-310
-310
-310
-309
-309
-309
-309
-307
-307
-308
-306
-306
-307
-305
-305
-306
-304
-304
-304
-304
-304
-304
-303
-303
-303
-303
-303
-303
-303
-303
-303
-303
-303
-303
-303
-304
-304
-304
-304
-304
-304
-304
-304
-304
-304
-304
-304
-304
-304
-304
-304
-304
-303
-303
-303
-303
-302
-302
-302
-302
-302
-301
-302
-302
-301
-301
-301
-301
-300
-301
-300
-301
-300
-301
-300
-301
-301
-300
-301
-301
-301
-301
-301
-302
-302
-302
-303
-303
-303
-304
-304
-305
-305
-305
-305
-306
-306
-306
-307
-307
-307
-308
-308
-309
-309
-310
-310
-311
-311
-312
-313
-314
-315
-316
-317
-317
-318
-319
-320
-320
-321
-322
-321
-322
-322
-322
-322
-322
-322
-323
-323
-322
-323
-322
-322
-322
-321
-321
-322
-322
-322
-321
-321
-321
-322
-322
-322
-322
-323
-323
-323
-323
-322
-322
-322
-322
-322
-322
-322
-321
-321
-321
-320
-320
-320
-319
-318
-318
-317
-317
-316
-315
-315
-314
-313
-313
-312
-312
-311
-310
-309
-309
-308
-308
-307
-307
-306
-307
-307
-306
-306
-306
-306
-307
-306
-307
-307
-307
-307
-307
-307
-307
-307
-306
-306
-307
-306
-306
-307
-306
-307
-306
-306
-306
-306
-306
-305
-305
-304
-304
-304
-304
-303
-302
-302
-302
-301
-301
-300
-300
-300
-299
-299
-299
-299
-299
-299
-299
-299
-299
-300
-299
-299
-299
-300
-300
-300
-301
-301
-300
-301
-301
-301
-301
-301
-301
-301
-301
-301
-301
-301
-300
-300
-300
-300
-299
-299
-299
-299
-299
-299
-299
-299
-298
-298
-298
-298
-298
-298
-298
-298
-298
-298
-298
-298
-298
-298
-299
-298
-298
-298
-298
-298
-298
-297
-297
-297
-297
-298
-298
-298
-298
-298
-298
-298
-298
-297
-296
-295
-295
-293
-292
-290
-289
-288
-287
-285
-284
-283
-281
-281
-279
-279
-278
-277
-277
-276
-277
-277
-279
-281
-283
-284
-287
-290
-293
-296
-301
-304
-308
-312
-317
-322
-327
-331
-336
-339
-343
-347
-350
-353
-357
-358
-360
-361
-361
-361
-359
-358
-356
-353
-350
-347
-343
-339
-336
-332
-328
-324
-319
-314
-310
-305
-301
-297
-293
-289
-287
-284
-281
-278
-276
-273
-271
-270
-269
-267
-265
-265
-264
-264
-263
-264
-264
-264
-264
-265
-266
-267
-267
-269
-269
-270
-270
-270
-271
-271
-272
-272
-272
-273
-272
-272
-272
-273
-272
-272
-272
-272
-272
-272
-272
-273
-274
-273
-274
-274
-275
-276
-276
-276
-277
-277
-278
-279
-280
-280
-280
-280
-280
-280
-280
-280
-280
-281
-280
-280
-280
-280
-280
-280
-280
-279
-280
-280
-280
-280
-280
-280
-280
-280
-279
-279
-280
-280
-279
-279
-279
-278
-279
-278
-278
-277
-277
-276
-276
-276
-275
-275
-275
-275
-275
-275
-275
-275
-275
-276
-276
-276
-276
-276
-277
-277
-278
-278
-277
-277
-278
-278
-279
-279
-280
-280
-280
-280
-280
-280
-280
-280
-279
-279
-279
-278
-277
-277
-277
-276
-275
-275
-274
-274
-273
-273
-273
-272
-272
-272
-272
-272
-272
-272
-273
-273
-273
-274
-274
-274
-275
-275
-275
-275
-276
-276
-277
-276
-277
-277
-278
-278
-277
-278
-278
-278
-278
-278
-278
-278
-278
-278
-278
-278
-277
-277
-277
-276
-276
-275
-275
-276
-275
-275
-275
-275
-275
-275
-275
-275
-276
-276
-276
-276
-277
-277
-277
-278
-278
-278
-279
-279
-279
-279
-280
-280
-280
-280
-281
-281
-281
-281
-280
-280
-281
-281
-281
-281
-281
-281
-281
-281
-281
-281
-280
-280
-280
-280
-281
-280
-281
-281
-282
-282
-282
-284
-284
-284
-286
-286
-287
-288
-288
-290
-290
-290
-290
-292
-292
-292
-293
-293
-292
-292
-293
-292
-292
-293
-292
-292
-291
-292
-291
-291
-291
-291
-291
-291
-292
-292
-291
-291
-292
-292
-292
-292
-293
-294
-294
-294
-295
-296
-296
-296
-296
-297
-297
-298
-298
-298
-298
-298
-298
-298
-298
-298
-297
-297
-297
-297
-297
-297
-297
-297
-296
-296
-295
-296
-296
-295
-295
-294
-294
-294
-293
-293
-292
-292
-291
-290
-290
-289
-289
-288
-286
-286
-285
-284
-284
-283
-282
-281
-281
-280
-279
-278
-278
-278
-277
-277
-276
-276
-275
-275
-275
-275
-275
-274
-274
-273
-273
-272
-273
-272
-272
-271
-270
-269
-270
-269
-268
-267
-267
-265
-264
-264
-263
-263
-262
-262
-261
-261
-260
-261
-261
-260
-260
-260
-261
-260
-260
-261
-261
-261
-261
-261
-261
-261
-262
-261
-261
-261
-261
-261
-260
-260
-260
-259
-260
-260
-259
-258
-259
-258
-258
-257
-256
-256
-256
-256
-254
-254
-254
-254
-254
-254
-253
-253
-253
-253
-253
-253
-253
-252
-254
-254
-254
-254
-254
-255
-255
-255
-255
-255
-254
-254
-254
-254
-254
-254
-255
-255
-254
-254
-254
-254
-254
-254
-254
-254
-254
-254
-254
-254
-254
-254
-253
-253
-253
-252
-252
-252
-252
-252
-252
-252
-252
-252
-251
-251
-251
-251
-251
-251
-251
-250
-250
-250
-249
-249
-248
-248
-248
-248
-248
-248
-248
-248
-248
-248
-248
-248
-248
-248
-248
-250
-249
-250
-250
-250
-251
-251
-252
-251
-251
-252
-252
-252
-252
-252
-252
-252
-252
-252
-252
-250
-250
-250
-250
-248
-248
-248
-248
-248
-247
-247
-247
-246
-246
-247
-247
-246
-246
-246
-246
-246
-246
-246
-245
-245
-245
-245
-244
-244
-244
-244
-244
-243
-243
-243
-243
-243
-242
-242
-242
-242
-241
-241
-241
-241
-241
-241
-241
-241
-242
-241
-241
-241
-241
-241
-240
-240
-241
-241
-241
-241
-242
-241
-241
-241
-241
-241
-240
-240
-240
-239
-239
-239
-237
-237
-237
-237
-235
-235
-235
-235
-234
-234
-234
-234
-234
-234
-233
-233
-233
-233
-233
-232
-233
-233
-233
-233
-233
-233
-233
-233
-233
-233
-232
-231
-231
-231
-230
-230
-230
-229
-229
-229
-228
-228
-228
-227
-227
-226
-226
-226
-226
-226
-226
-226
-226
-226
-226
-226
-226
-227
-227
-227
-228
-228
-227
-227
-228
-228
-228
-228
-228
-228
-227
-227
-228
-228
-227
-226
-226
-225
-225
-225
-225
-225
-223
-223
-223
-222
-222
-222
-221
-221
-221
-221
-221
-220
-221
-221
-222
-221
-222
-222
-222
-222
-223
-223
-224
-223
-224
-224
-225
-224
-225
-224
-225
-224
-225
-224
-224
-224
-223
-223
-223
-222
-223
-222
-222
-221
-222
-222
-221
-221
-220
-221
-221
-221
-221
-220
-221
-222
-221
-222
-223
-223
-224
-225
-226
-226
-227
-228
-229
-230
-230
-231
-231
-232
-233
-234
-234
-234
-235
-234
-234
-235
-234
-234
-234
-234
-234
-233
-233
-232
-232
-233
-232
-232
-231
-231
-231
-230
-230
-230
-230
-230
-230
-230
-230
-230
-230
-229
-229
-229
-229
-227
-227
-227
-227
-226
-226
-225
-224
-224
-223
-222
-222
-221
-221
-220
-219
-219
-219
-218
-218
-217
-217
-216
-216
-215
-215
-215
-214
-214
-213
-213
-212
-211
-211
-210
-209
-209
-207
-207
-206
-205
-205
-204
-203
-202
-201
-201
-201
-200
-200
-200
-199
-199
-199
-200
-199
-200
-200
-201
-201
-201
-202
-203
-202
-203
-203
-204
-203
-203
-203
-203
-203
-203
-203
-202
-201
-201
-201
-200
-199
-199
-198
-197
-197
-196
-196
-196
-195
-195
-195
-195
-195
-195
-195
-194
-195
-195
-196
-196
-196
-196
-197
-198
-199
-199
-199
-200
-200
-201
-201
-201
-201
-201
-201
-201
-201
-201
-200
-200
-201
-201
-200
-200
-199
-199
-199
-198
-199
-199
-199
-199
-199
-198
-198
-198
-198
-199
-199
-199
-200
-200
-200
-201
-201
-201
-201
-201
-200
-200
-199
-199
-199
-197
-198
-197
-195
-195
-193
-192
-191
-189
-189
-188
-187
-187
-187
-186
-187
-187
-188
-188
-190
-191
-194
-197
-199
-202
-206
-210
-214
-219
-223
-228
-233
-238
-243
-247
-252
-256
-259
-263
-266
-268
-270
-272
-272
-273
-272
-272
-270
-268
-266
-263
-259
-255
-251
-247
-243
-239
-234
-230
-226
-221
-217
-212
-208
-205
-201
-198
-195
-192
-190
-187
-185
-183
-181
-180
-179
-179
-178
-178
-178
-178
-178
-179
-179
-180
-181
-182
-183
-184
-184
-185
-186
-187
-187
-188
-188
-189
-189
-190
-190
-191
-191
-192
-192
-192
-193
-193
-193
-194
-194
-195
-195
-196
-196
-196
-197
-197
-197
-197
-197
-198
-198
-198
-198
-198
-198
-198
-198
-198
-198
-198
-197
-197
-197
-197
-197
-197
-197
-197
-197
-197
-197
-196
-197
-197
-197
-197
-197
-197
-197
-196
-196
-196
-196
-196
-195
-196
-195
-195
-194
-194
-194
-194
-194
-194
-194
-194
-194
-194
-194
-194
-194
-195
-196
-197
-197
-197
-197
-197
-197
-198
-198
-198
-198
-198
-198
-198
-198
-198
-197
-197
-196
-196
-195
-195
-195
-195
-194
-194
-193
-193
-193
-192
-193
-194
-194
-194
-194
-194
-195
-195
-195
-195
-196
-196
-197
-197
-198
-198
-199
-199
-199
-199
-199
-199
-199
-199
-199
-199
-199
-200
-200
-199
-199
-200
-199
-199
-198
-199
-199
-198
-199
-199
-198
-199
-198
-199
-198
-198
-199
-198
-198
-199
-198
-198
-199
-199
-198
-198
-198
-199
-199
-199
-198
-198
-199
-200
-200
-200
-200
-200
-200
-201
-201
-201
-202
-202
-202
-203
-203
-203
-203
-203
-204
-205
-205
-205
-205
-205
-206
-206
-206
-207
-207
-208
-207
-207
-207
-207
-208
-207
-208
-207
-208
-208
-208
-208
-208
-209
-208
-209
-209
-209
-210
-210
-211
-211
-211
-212
-212
-212
-213
-213
-213
-214
-214
-214
-215
-215
-215
-215
-216
-216
-215
-215
-216
-216
-216
-216
-217
-217
-217
-218
-218
-218
-218
-219
-219
-219
-218
-219
-219
-219
-220
-220
-219
-220
-220
-220
-219
-220
-220
-220
-220
-220
-221
-221
-221
-221
-221
-222
-222
-222
-222
-222
-223
-223
-222
-221
-221
-221
-221
-220
-220
-220
-219
-218
-218
-217
-218
-216
-217
-216
-216
-216
-215
-215
-215
-215
-214
-214
-214
-213
-214
-213
-212
-212
-211
-211
-210
-209
-209
-208
-208
-207
-206
-206
-205
-205
-204
-204
-203
-203
-202
-203
-202
-202
-202
-202
-201
-202
-201
-202
-201
-200
-200
-200
-200
-199
-199
-198
-198
-198
-197
-197
-196
-196
-195
-195
-195
-195
-194
-194
-194
-193
-193
-193
-192
-193
-192
-193
-193
-193
-192
-193
-193
-192
-192
-192
-192
-192
-193
-192
-192
-191
-191
-191
-191
-191
-190
-190
-191
-191
-191
-191
-191
-190
-190
-190
-190
-190
-191
-191
-191
-191
-191
-191
-191
-192
-192
-192
-192
-192
-192
-192
-192
-191
-191
-191
-191
-191
-191
-191
-192
-191
-191
-191
-191
-191
-192
-192
-192
-192
-193
-193
-194
-194
-194
-194
-194
-194
-194
-195
-195
-195
-195
-195
-194
-195
-195
-195
-194
-195
-195
-195
-195
-195
-195
-194
-194
-194
-194
-194
-195
-195
-195
-195
-195
-194
-194
-194
-194
-194
-194
-194
-193
-193
-193
-193
-193
-192
-192
-193
-193
-193
-193
-193
-193
-193
-193
-194
-194
-194
-194
-194
-194
-194
-194
-194
-194
-194
-194
-194
-194
-194
-194
-194
-194
-194
-193
-193
-193
-192
-192
-192
-193
-193
-193
-193
-193
-193
-193
-193
-193
-193
-193
-194
-194
-195
-195
-195
-195
-196
-196
-196
-196
-196
-196
-196
-196
-196
-196
-196
-195
-195
-194
-195
-194
-194
-194
-194
-194
-194
-194
-194
-195
-195
-194
-195
-194
-194
-194
-194
-194
-194
-194
-194
-194
-194
-195
-195
-195
-195
-195
-195
-195
-195
-195
-195
-195
-195
-195
-195
-195
-195
-195
-195
-194
-194
-194
-194
-194
-194
-194
-194
-194
-194
-195
-195
-195
-195
-195
-196
-196
-195
-196
-196
-196
-196
-196
-196
-196
-196
-196
-196
-196
-196
-196
-196
-196
-195
-195
-195
-195
-196
-195
-195
-195
-195
-196
-196
-196
-196
-196
-195
-196
-196
-196
-196
-197
-197
-197
-198
-198
-198
-198
-198
-198
-198
-198
-198
-198
-198
-197
-197
-197
-197
-196
-196
-196
-196
-196
-196
-196
-196
-195
-194
-194
-194
-194
-194
-194
-195
-195
-195
-195
-196
-196
-196
-196
-196
-196
-197
-198
-198
-198
-198
-198
-198
-199
-199
-199
-198
-198
-198
-198
-198
-198
-198
-197
-197
-196
-196
-196
-195
-195
-195
-195
-195
-195
-195
-195
-195
-195
-195
-195
-195
-196
-196
-197
-197
-198
-198
-197
-198
-198
-199
-199
-199
-199
-199
-199
-200
-199
-199
-199
-199
-199
-199
-199
-198
-198
-198
-198
-197
-197
-197
-197
-197
-196
-196
-196
-196
-196
-196
-196
-196
-196
-196
-195
-196
-196
-196
-196
-196
-196
-196
-196
-196
-196
-196
-196
-196
-196
-196
-195
-195
-195
-195
-194
-194
-194
-193
-193
-192
-192
-191
-191
-190
-190
-190
-190
-190
-190
-190
-190
-190
-191
-192
-192
-192
-193
-194
-194
-195
-196
-196
-197
-198
-199
-198
-199
-200
-200
-200
-200
-200
-200
-200
-200
-200
-199
-200
-199
-200
-199
-198
-199
-198
-198
-197
-197
-197
-197
-197
-197
-196
-196
-196
-197
-196
-197
-197
-198
-199
-199
-200
-200
-201
-202
-203
-204
-205
-206
-207
-208
-208
-209
-210
-211
-211
-211
-212
-212
-213
-212
-213
-213
-212
-212
-212
-211
-211
-210
-211
-210
-210
-210
-209
-208
-208
-207
-207
-207
-207
-206
-206
-206
-207
-207
-206
-206
-206
-206
-205
-206
-206
-206
-206
-206
-205
-206
-205
-205
-204
-204
-203
-203
-202
-201
-201
-200
-199
-198
-198
-197
-197
-195
-194
-194
-193
-193
-192
-192
-191
-191
-190
-189
-189
-188
-188
-189
-188
-187
-188
-187
-187
-186
-186
-185
-185
-185
-185
-185
-184
-184
-183
-184
-184
-183
-183
-183
-184
-184
-184
-184
-184
-184
-184
-183
-184
-184
-184
-183
-183
-183
-184
-183
-183
-183
-183
-182
-182
-182
-180
-180
-180
-179
-179
-179
-179
-178
-178
-178
-178
-178
-178
-179
-179
-178
-178
-178
-178
-179
-179
-179
-179
-179
-179
-179
-180
-179
-179
-179
-179
-178
-179
-179
-179
-179
-178
-178
-178
-178
-178
-178
-177
-177
-176
-176
-176
-175
-175
-175
-175
-175
-175
-174
-174
-174
-174
-174
-175
-174
-174
-174
-174
-174
-173
-173
-172
-172
-172
-172
-172
-171
-170
-169
-169
-167
-166
-166
-165
-163
-163
-162
-161
-162
-162
-162
-162
-163
-164
-165
-166
-168
-170
-172
-176
-179
-182
-186
-190
-195
-200
-205
-210
-215
-220
-225
-229
-233
-237
-241
-245
-247
-249
-251
-252
-253
-253
-251
-250
-248
-246
-243
-239
-234
-230
-226
-222
-216
-212
-206
-202
-197
-192
-188
-183
-179
-175
-171
-168
-165
-162
-160
-158
-155
-154
-152
-152
-150
-150
-150
-150
-150
-150
-151
-151
-152
-152
-153
-154
-155
-156
-157
-157
-158
-159
-159
-159
-160
-161
-162
-161
-162
-163
-163
-163
-164
-164
-164
-165
-166
-166
-167
-167
-167
-167
-168
-168
-169
-169
-170
-170
-170
-171
-171
-172
-172
-172
-173
-174
-174
-173
-173
-173
-173
-173
-173
-173
-173
-173
-173
-173
-173
-174
-174
-173
-173
-173
-174
-174
-173
-173
-174
-174
-174
-175
-174
-174
-174
-174
-175
-175
-175
-175
-174
-174
-174
-174
-174
-173
-173
-173
-172
-172
-172
-172
-172
-172
-173
-173
-173
-173
-173
-174
-174
-174
-174
-175
-176
-176
-176
-176
-176
-176
-177
-176
-176
-176
-176
-176
-175
-176
-176
-176
-175
-175
-176
-176
-175
-175
-175
-175
-175
-176
-176
-176
-176
-176
-176
-176
-176
-176
-176
-176
-176
-177
-177
-177
-177
-177
-176
-176
-176
-176
-176
-176
-176
-176
-177
-176
-176
-176
-176
-176
-176
-176
-176
-176
-176
-176
-176
-176
-176
-176
-176
-177
-177
-177
-177
-177
-177
-177
-178
-178
-178
-178
-179
-179
-178
-179
-179
-179
-179
-179
-180
-179
-179
-180
-179
-179
-179
-179
-180
-180
-179
-180
-181
-181
-181
-182
-182
-182
-182
-182
-184
-184
-184
-184
-185
-185
-185
-185
-186
-186
-186
-186
-186
-186
-187
-187
-187
-188
-188
-188
-188
-189
-189
-189
-190
-190
-191
-191
-192
-192
-192
-193
-193
-194
-194
-195
-195
-195
-196
-195
-195
-196
-195
-195
-196
-196
-196
-196
-197
-196
-196
-196
-197
-197
-197
-197
-197
-198
-198
-198
-198
-198
-199
-199
-199
-200
-199
-199
-200
-200
-201
-201
-200
-201
-201
-201
-201
-201
-201
-201
-201
-201
-201
-201
-201
-201
-201
-201
-201
-200
-200
-200
-200
-200
-200
-199
-199
-200
-200
-200
-199
-199
-199
-199
-198
-198
-199
-198
-198
-198
-197
-198
-197
-197
-196
-196
-195
-194
-195
-194
-193
-193
-192
-191
-190
-190
-190
-189
-188
-187
-187
-186
-186
-185
-184
-183
-183
-182
-182
-181
-181
-180
-179
-180
-179
-179
-178
-179
-178
-178
-178
-178
-177
-177
-177
-177
-176
-177
-177
-176
-177
-176
-176
-176
-176
-176
-176
-176
-176
-176
-175
-175
-175
-175
-175
-175
-175
-174
-174
-174
-174
-173
-173
-173
-173
-172
-172
-172
-173
-173
-173
-173
-172
-172
-172
-172
-172
-173
-173
-173
-173
-174
-173
-173
-173
-173
-174
-174
-173
-174
-174
-175
-175
-175
-175
-176
-176
-176
-176
-176
-176
-177
-177
-177
-177
-178
-178
-178
-178
-179
-178
-178
-177
-178
-178
-178
-177
-177
-178
-178
-178
-178
-177
-177
-177
-177
-178
-177
-177
-177
-177
-178
-178
-178
-178
-178
-179
-179
-179
-178
-179
-179
-179
-180
-180
-180
-181
-181
-181
-181
-181
-181
-182
-182
-182
-182
-182
-183
-183
-183
-183
-182
-182
-183
-183
-183
-183
-184
-184
-184
-183
-183
-183
-183
-182
-182
-181
-181
-181
-181
-181
-181
-181
-181
-180
-179
-179
-179
-179
-179
-180
-180
-180
-181
-181
-181
-181
-181
-181
-181
-181
-181
-181
-181
-182
-182
-182
-182
-182
-182
-182
-183
-183
-183
-183
-183
-184
-184
-184
-184
-184
-184
-185
-185
-185
-185
-185
-185
-185
-185
-185
-185
-185
-185
-185
-184
-184
-184
-184
-184
-184
-184
-184
-184
-183
-183
-183
-183
-184
-184
-184
-184
-184
-185
-185
-185
-185
-185
-185
-185
-185
-185
-185
-185
-185
-185
-185
-185
-185
-185
-184
-184
-184
-183
-183
-183
-183
-182
-182
-183
-182
-182
-182
-182
-182
-182
-182
-182
-182
-183
-182
-183
-183
-183
-184
-184
-184
-184
-185
-185
-186
-186
-186
-186
-186
-186
-187
-186
-187
-187
-187
-187
-187
-187
-187
-187
-187
-187
-188
-188
-187
-187
-187
-188
-187
-187
-187
-187
-187
-186
-187
-187
-187
-188
-188
-189
-189
-190
-191
-191
-192
-193
-194
-195
-196
-198
-199
-200
-201
-202
-203
-203
-204
-205
-206
-205
-206
-207
-206
-207
-207
-207
-207
-207
-207
-207
-207
-206
-206
-206
-206
-206
-205
-205
-204
-204
-204
-203
-204
-204
-203
-203
-203
-202
-202
-202
-202
-201
-201
-200
-201
-201
-200
-200
-199
-199
-199
-199
-198
-198
-197
-196
-196
-196
-194
-193
-192
-191
-191
-190
-188
-188
-187
-186
-186
-185
-184
-183
-183
-182
-182
-182
-181
-181
-181
-181
-181
-181
-180
-180
-180
-180
-179
-180
-180
-179
-180
-179
-179
-179
-179
-179
-178
-178
-178
-178
-179
-179
-179
-178
-178
-179
-179
-179
-179
-179
-180
-180
-180
-180
-180
-181
-181
-181
-181
-180
-180
-180
-180
-180
-180
-180
-180
-179
-179
-179
-178
-178
-176
-176
-176
-176
-176
-176
-175
-174
-175
-175
-175
-174
-174
-174
-173
-173
-174
-174
-173
-173
-173
-173
-173
-173
-173
-174
-174
-174
-174
-174
-174
-174
-174
-174
-174
-174
-174
-174
-173
-174
-174
-173
-173
-173
-173
-173
-173
-172
-173
-172
-172
-172
-172
-171
-171
-170
-170
-170
-169
-169
-168
-167
-167
-167
-166
-165
-164
-164
-162
-162
-161
-161
-161
-160
-160
-160
-160
-160
-160
-161
-162
-162
-164
-166
-167
-170
-173
-176
-179
-184
-188
-192
-197
-201
-206
-211
-216
-221
-225
-230
-234
-237
-241
-243
-245
-247
-248
-249
-248
-247
-245
-243
-241
-237
-234
-230
-226
-221
-216
-211
-207
-202
-197
-192
-188
-183
-180
-175
-172
-168
-165
-162
-160
-157
-155
-153
-151
-150
-149
-148
-147
-147
-146
-147
-147
-147
-147
-147
-148
-148
-150
-151
-152
-152
-153
-154
-154
-155
-156
-157
-158
-159
-160
-160
-161
-162
-163
-163
-164
-164
-164
-165
-165
-164
-165
-166
-166
-165
-166
-166
-166
-166
-166
-166
-166
-166
-166
-166
-167
-167
-168
-168
-168
-168
-168
-169
-170
-170
-170
-170
-170
-171
-171
-170
-170
-170
-170
-171
-170
-170
-170
-169
-169
-170
-169
-169
-169
-169
-168
-169
-169
-169
-169
-170
-169
-169
-169
-170
-170
-170
-170
-171
-170
-170
-170
-170
-171
-171
-171
-171
-171
-171
-172
-172
-172
-172
-172
-172
-172
-171
-171
-171
-172
-172
-172
-172
-172
-171
-171
-171
-171
-171
-171
-171
-171
-171
-171
-171
-172
-172
-172
-172
-171
-172
-173
-173
-173
-173
-173
-173
-174
-174
-174
-174
-174
-174
-174
-174
-174
-175
-174
-174
-174
-175
-175
-174
-175
-175
-174
-175
-175
-174
-175
-175
-174
-174
-175
-175
-175
-176
-176
-176
-176
-176
-177
-177
-177
-178
-178
-179
-178
-179
-179
-179
-179
-180
-180
-180
-180
-181
-181
-180
-181
-181
-181
-182
-182
-182
-183
-183
-183
-183
-183
-184
-184
-185
-185
-185
-186
-185
-187
-186
-188
-188
-188
-189
-190
-190
-190
-191
-191
-192
-192
-193
-193
-194
-193
-194
-194
-195
-195
-195
-195
-196
-196
-197
-197
-198
-198
-198
-198
-198
-198
-199
-199
-199
-200
-200
-201
-200
-200
-201
-201
-202
-201
-202
-202
-202
-203
-203
-204
-203
-204
-204
-204
-205
-205
-206
-206
-205
-206
-206
-207
-207
-207
-207
-208
-208
-209
-209
-209
-210
-210
-210
-210
-211
-211
-212
-212
-213
-212
-212
-212
-212
-213
-213
-212
-212
-212
-211
-212
-211
-211
-210
-210
-211
-210
-210
-209
-208
-209
-208
-207
-207
-206
-206
-206
-205
-204
-203
-203
-202
-201
-201
-200
-200
-199
-199
-198
-199
-198
-198
-197
-197
-196
-195
-196
-195
-195
-195
-194
-195
-194
-193
-194
-193
-193
-192
-192
-192
-191
-190
-189
-190
-189
-188
-189
-188
-187
-186
-186
-185
-185
-185
-184
-184
-183
-183
-182
-182
-182
-182
-181
-181
-181
-181
-180
-179
-179
-179
-179
-179
-179
-179
-178
-178
-179
-179
-179
-178
-179
-179
-178
-178
-179
-178
-178
-179
-178
-178
-178
-178
-178
-178
-177
-177
-177
-177
-177
-177
-177
-177
-177
-177
-177
-177
-177
-177
-176
-176
-176
-177
-177
-177
-176
-176
-176
-177
-177
-177
-176
-176
-176
-176
-175
-175
-175
-175
-175
-175
-175
-175
-175
-175
-174
-174
-174
-174
-174
-174
-174
-174
-174
-174
-175
-175
-175
-175
-175
-175
-174
-176
-176
-176
-176
-176
-176
-176
-176
-176
-176
-176
-175
-175
-176
-176
-175
-175
-175
-175
-176
-176
-176
-175
-175
-176
-176
-176
-176
-176
-177
-177
-176
-176
-176
-177
-176
-176
-176
-176
-175
-175
-174
-174
-174
-174
-174
-173
-173
-173
-173
-173
-173
-173
-174
-174
-174
-175
-176
-176
-177
-177
-177
-177
-178
-178
-178
-178
-178
-177
-177
-177
-177
-176
-176
-176
-175
-175
-174
-173
-174
-173
-173
-172
-172
-172
-172
-171
-172
-172
-171
-172
-172
-172
-172
-172
-172
-172
-172
-173
-174
-174
-174
-174
-175
-175
-175
-175
-175
-175
-175
-175
-175
-174
-175
-175
-175
-175
-175
-175
-175
-175
-174
-174
-174
-173
-173
-173
-172
-172
-171
-172
-172
-171
-170
-170
-169
-169
-169
-168
-168
-168
-168
-168
-168
-168
-168
-167
-168
-167
-167
-168
-168
-168
-168
-167
-167
-167
-167
-167
-167
-166
-166
-166
-166
-165
-164
-164
-164
-164
-163
-163
-163
-163
-162
-162
-161
-161
-160
-161
-161
-161
-161
-161
-162
-163
-163
-163
-163
-164
-165
-165
-166
-166
-167
-166
-166
-166
-167
-167
-166
-166
-166
-165
-165
-165
-164
-164
-164
-163
-163
-162
-161
-161
-160
-159
-159
-158
-158
-159
-158
-157
-157
-157
-157
-156
-157
-157
-156
-156
-157
-157
-157
-157
-157
-157
-157
-158
-158
-158
-158
-158
-158
-159
-158
-158
-158
-158
-159
-159
-159
-159
-159
-159
-159
-158
-158
-158
-157
-158
-158
-157
-157
-156
-156
-156
-155
-155
-154
-154
-154
-153
-153
-153
-152
-153
-152
-152
-153
-152
-153
-152
-153
-153
-154
-154
-154
-155
-155
-155
-155
-156
-156
-155
-156
-155
-156
-155
-156
-156
-155
-155
-156
-156
-157
-156
-156
-158
-158
-159
-160
-160
-162
-163
-163
-164
-165
-166
-166
-167
-167
-168
-168
-169
-169
-169
-169
-169
-169
-168
-168
-169
-168
-168
-168
-167
-167
-167
-168
-168
-167
-167
-167
-166
-166
-166
-166
-166
-165
-165
-165
-165
-163
-163
-163
-163
-163
-161
-161
-160
-160
-159
-159
-158
-157
-156
-155
-155
-153
-153
-152
-150
-150
-149
-148
-147
-146
-145
-144
-143
-142
-142
-141
-141
-140
-139
-138
-138
-137
-136
-136
-136
-135
-135
-134
-133
-133
-133
-133
-132
-132
-132
-132
-132
-132
-132
-132
-132
-131
-131
-132
-131
-131
-131
-131
-131
-131
-130
-131
-130
-130
-129
-130
-130
-129
-129
-129
-130
-129
-128
-128
-128
-128
-128
-127
-127
-127
-126
-126
-125
-125
-124
-124
-123
-123
-122
-123
-123
-121
-121
-121
-121
-121
-121
-122
-121
-121
-121
-121
-121
-121
-121
-121
-121
-120
-120
-120
-120
-120
-119
-119
-119
-118
-118
-118
-118
-117
-117
-117
-116
-116
-115
-115
-114
-114
-114
-114
-113
-113
-113
-112
-112
-112
-112
-111
-112
-111
-110
-110
-110
-110
-109
-109
-108
-108
-107
-106
-105
-104
-103
-103
-101
-100
-99
-98
-97
-96
-95
-94
-94
-93
-93
-94
-93
-94
-95
-96
-97
-99
-101
-104
-106
-109
-113
-116
-120
-124
-129
-134
-138
-143
-148
-153
-156
-161
-164
-168
-171
-173
-176
-177
-178
-178
-179
-177
-176
-174
-172
-169
-165
-162
-157
-153
-148
-143
-139
-134
-129
-125
-121
-115
-111
-107
-103
-99
-95
-92
-90
-87
-84
-82
-80
-79
-78
-77
-76
-76
-76
-77
-77
-77
-77
-78
-78
-79
-80
-81
-81
-82
-82
-83
-83
-84
-84
-84
-85
-85
-85
-86
-86
-86
-86
-86
-86
-87
-87
-88
-88
-88
-89
-88
-89
-89
-90
-89
-89
-90
-90
-89
-90
-90
-90
-90
-91
-90
-90
-90
-89
-89
-89
-89
-89
-89
-88
-88
-88
-88
-88
-88
-88
-88
-88
-88
-88
-87
-87
-88
-88
-88
-89
-89
-89
-90
-90
-90
-90
-90
-90
-90
-90
-90
-90
-90
-90
-89
-89
-89
-88
-88
-87
-87
-87
-87
-87
-87
-87
-86
-86
-86
-86
-86
-86
-85
-85
-86
-85
-85
-86
-86
-86
-86
-86
-86
-86
-86
-86
-87
-88
-88
-88
-88
-88
-88
-88
-88
-89
-89
-88
-88
-88
-89
-89
-88
-88
-89
-89
-88
-88
-88
-88
-87
-87
-87
-87
-87
-86
-86
-86
-86
-85
-85
-86
-86
-85
-85
-85
-85
-85
-85
-85
-85
-84
-84
-85
-85
-85
-84
-84
-85
-85
-85
-85
-85
-85
-85
-86
-86
-86
-87
-87
-87
-87
-87
-88
-88
-88
-88
-90
-89
-89
-90
-91
-91
-91
-91
-92
-92
-92
-92
-92
-92
-93
-93
-93
-93
-94
-94
-94
-95
-95
-95
-95
-95
-96
-96
-96
-96
-97
-97
-98
-98
-97
-98
-98
-99
-98
-99
-99
-99
-99
-100
-99
-99
-100
-99
-100
-99
-100
-99
-100
-100
-99
-100
-100
-100
-100
-101
-101
-101
-101
-101
-101
-101
-101
-101
-101
-102
-102
-102
-102
-102
-102
-103
-102
-102
-103
-102
-102
-103
-102
-102
-102
-102
-103
-103
-103
-103
-103
-104
-104
-104
-104
-104
-104
-105
-105
-105
-105
-105
-106
-106
-106
-106
-106
-106
-106
-106
-105
-105
-105
-105
-104
-104
-104
-104
-104
-102
-102
-102
-102
-101
-101
-101
-100
-100
-100
-100
-99
-98
-98
-97
-97
-97
-96
-95
-94
-95
-94
-93
-92
-92
-92
-91
-90
-91
-90
-89
-88
-88
-87
-86
-86
-85
-84
-84
-83
-82
-82
-81
-81
-80
-78
-78
-77
-78
-77
-77
-76
-77
-77
-76
-76
-77
-76
-76
-76
-76
-77
-76
-76
-76
-76
-76
-76
-76
-76
-75
-74
-74
-75
-75
-75
-74
-74
-74
-74
-74
-74
-73
-73
-73
-72
-72
-72
-72
-72
-72
-71
-71
-72
-72
-71
-71
-71
-72
-72
-72
-72
-72
-72
-72
-72
-72
-72
-72
-72
-72
-73
-73
-73
-73
-73
-73
-73
-74
-74
-74
-74
-74
-74
-74
-75
-75
-75
-75
-75
-75
-74
-74
-75
-74
-74
-75
-74
-73
-73
-73
-73
-73
-73
-72
-73
-72
-72
-72
-73
-73
-73
-74
-73
-74
-74
-74
-75
-75
-76
-76
-76
-76
-76
-77
-77
-78
-78
-78
-78
-78
-78
-77
-77
-77
-77
-76
-76
-76
-75
-74
-74
-74
-74
-74
-74
-73
-73
-73
-73
-73
-73
-73
-73
-72
-72
-72
-72
-73
-73
-73
-73
-73
-73
-73
-73
-73
-74
-74
-74
-74
-75
-75
-75
-75
-76
-76
-76
-76
-76
-77
-77
-76
-76
-76
-76
-76
-76
-76
-75
-75
-75
-74
-74
-74
-74
-74
-73
-73
-73
-72
-72
-73
-73
-72
-72
-73
-73
-73
-73
-73
-73
-74
-74
-74
-74
-73
-74
-74
-74
-74
-74
-75
-75
-76
-75
-75
-75
-76
-76
-76
-76
-76
-76
-76
-76
-75
-75
-75
-75
-74
-74
-74
-73
-73
-72
-73
-73
-72
-72
-71
-71
-71
-70
-70
-70
-70
-70
-70
-71
-71
-71
-70
-70
-71
-71
-72
-72
-73
-73
-73
-73
-74
-74
-75
-75
-76
-75
-76
-76
-76
-76
-76
-76
-76
-76
-76
-75
-76
-75
-75
-75
-75
-74
-74
-73
-73
-72
-72
-73
-72
-72
-73
-73
-73
-72
-72
-72
-72
-72
-72
-73
-73
-73
-74
-74
-73
-73
-73
-73
-73
-73
-73
-73
-72
-72
-71
-71
-70
-70
-69
-69
-69
-69
-68
-68
-68
-68
-68
-69
-69
-69
-70
-69
-70
-70
-71
-71
-71
-71
-72
-72
-73
-73
-73
-73
-73
-74
-74
-74
-74
-74
-74
-74
-73
-74
-74
-74
-73
-74
-74
-73
-73
-74
-74
-73
-74
-74
-73
-74
-73
-74
-73
-74
-75
-75
-76
-76
-77
-78
-78
-79
-80
-81
-82
-82
-84
-85
-86
-86
-87
-88
-88
-89
-89
-89
-90
-90
-90
-90
-90
-91
-90
-91
-90
-90
-90
-90
-90
-90
-90
-90
-91
-91
-91
-90
-91
-91
-91
-92
-92
-91
-91
-91
-91
-91
-90
-90
-90
-90
-89
-89
-88
-88
-87
-86
-85
-85
-84
-83
-82
-81
-81
-79
-79
-77
-77
-76
-75
-75
-74
-74
-73
-73
-72
-72
-72
-71
-72
-71
-71
-71
-71
-72
-72
-71
-71
-72
-72
-72
-72
-72
-72
-72
-72
-72
-72
-71
-71
-71
-71
-70
-70
-70
-69
-69
-69
-69
-68
-67
-68
-67
-67
-66
-67
-66
-66
-66
-66
-66
-66
-66
-66
-67
-66
-66
-66
-66
-67
-67
-67
-67
-67
-67
-67
-67
-67
-67
-67
-67
-67
-67
-67
-67
-67
-67
-67
-66
-66
-65
-65
-65
-65
-64
-64
-64
-64
-64
-63
-63
-63
-64
-64
-64
-64
-63
-63
-63
-63
-63
-64
-64
-64
-64
-64
-64
-65
-65
-65
-65
-65
-65
-65
-65
-65
-65
-64
-65
-65
-65
-65
-65
-65
-64
-64
-63
-63
-62
-61
-61
-61
-59
-59
-58
-57
-56
-55
-55
-54
-54
-53
-53
-52
-53
-53
-53
-54
-54
-55
-57
-59
-60
-62
-64
-67
-70
-74
-77
-81
-86
-89
-94
-98
-104
-108
-112
-116
-121
-124
-127
-130
-133
-135
-137
-137
-138
-138
-137
-136
-134
-132
-129
-127
-123
-119
-116
-112
-108
-104
-100
-95
-91
-87
-82
-78
-74
-71
-68
-65
-62
-59
-56
-55
-53
-50
-49
-48
-47
-47
-46
-46
-46
-47
-47
-48
-48
-49
-49
-50
-51
-52
-53
-53
-54
-55
-55
-56
-57
-58
-58
-59
-59
-60
-60
-60
-60
-61
-61
-61
-61
-62
-62
-62
-62
-62
-62
-62
-63
-62
-62
-62
-63
-63
-63
-63
-63
-64
-64
-64
-64
-64
-65
-66
-66
-67
-67
-67
-68
-68
-68
-68
-68
-68
-68
-68
-69
-69
-69
-68
-68
-68
-68
-67
-67
-67
-67
-67
-67
-66
-66
-66
-66
-66
-67
-67
-67
-67
-67
-67
-67
-67
-68
-68
-68
-68
-68
-68
-68
-68
-68
-68
-68
-68
-68
-68
-68
-68
-68
-67
-67
-68
-68
-68
-68
-68
-68
-68
-68
-68
-69
-69
-70
-70
-70
-71
-71
-70
-70
-71
-71
-71
-71
-71
-72
-72
-72
-72
-72
-73
-73
-73
-73
-74
-75
-75
-75
-75
-77
-77
-77
-77
-77
-78
-78
-78
-78
-78
-78
-77
-78
-78
-78
-77
-77
-77
-78
-78
-78
-77
-77
-78
-78
-78
-78
-78
-79
-80
-80
-80
-80
-81
-81
-82
-82
-82
-82
-83
-83
-83
-84
-84
-84
-84
-84
-83
-83
-84
-84
-84
-84
-84
-84
-84
-85
-84
-85
-84
-84
-85
-85
-86
-85
-86
-86
-87
-88
-88
-89
-89
-90
-90
-91
-91
-91
-93
-93
-94
-94
-95
-96
-96
-96
-98
-98
-99
-99
-99
-100
-100
-101
-101
-101
-101
-101
-102
-102
-102
-102
-102
-103
-102
-103
-103
-103
-103
-103
-104
-104
-104
-104
-105
-105
-104
-105
-105
-106
-107
-107
-107
-107
-108
-109
-109
-109
-109
-109
-109
-110
-110
-111
-110
-111
-111
-111
-111
-111
-112
-111
-111
-111
-111
-112
-112
-112
-111
-111
-111
-111
-111
-112
-111
-111
-111
-112
-111
-111
-110
-111
-110
-110
-110
-110
-109
-109
-109
-109
-109
-108
-108
-108
-107
-106
-106
-105
-105
-104
-103
-103
-102
-102
-101
-100
-100
-99
-99
-98
-98
-97
-98
-97
-97
-96
-95
-96
-95
-96
-95
-96
-95
-96
-95
-96
-95
-95
-95
-94
-93
-94
-93
-93
-93
-92
-92
-92
-91
-91
-90
-90
-89
-89
-89
-88
-88
-87
-87
-87
-86
-86
-86
-85
-85
-85
-85
-85
-84
-85
-85
-85
-85
-86
-86
-86
-86
-87
-87
-87
-88
-88
-88
-89
-89
-88
-88
-89
-89
-89
-89
-89
-90
-89
-89
-89
-89
-90
-89
-89
-89
-89
-89
-89
-90
-90
-90
-90
-90
-90
-91
-91
-90
-90
-90
-90
-91
-91
-91
-92
-92
-92
-92
-93
-92
-93
-93
-92
-94
-93
-93
-93
-93
-94
-94
-94
-95
-95
-95
-95
-95
-95
-95
-95
-95
-95
-95
-95
-95
-95
-96
-96
-96
-96
-96
-96
-96
-96
-97
-97
-97
-97
-97
-97
-98
-98
-98
-98
-98
-98
-97
-97
-97
-97
-97
-97
-97
-97
-97
-98
-97
-97
-97
-97
-97
-97
-97
-97
-98
-98
-98
-98
-99
-99
-100
-100
-101
-101
-101
-101
-101
-101
-101
-101
-101
-101
-101
-100
-100
-99
-99
-99
-98
-98
-97
-97
-97
-97
-97
-96
-97
-97
-97
-97
-97
-97
-97
-97
-98
-98
-98
-98
-99
-98
-99
-98
-99
-99
-99
-99
-99
-99
-99
-99
-98
-98
-98
-98
-97
-97
-97
-97
-96
-96
-96
-96
-96
-94
-95
-94
-94
-94
-94
-94
-93
-92
-92
-92
-92
-92
-92
-92
-92
-92
-92
-92
-92
-92
-92
-92
-92
-93
-93
-93
-93
-93
-93
-93
-93
-93
-93
-93
-94
-94
-94
-94
-94
-94
-95
-95
-95
-95
-95
-95
-95
-95
-95
-95
-95
-95
-95
-94
-95
-95
-95
-95
-95
-95
-95
-95
-95
-96
-96
-96
-96
-97
-97
-98
-97
-97
-98
-98
-99
-99
-99
-100
-100
-101
-102
-102
-102
-103
-103
-104
-104
-105
-105
-106
-106
-106
-107
-107
-107
-108
-107
-107
-107
-107
-106
-106
-106
-106
-106
-105
-105
-105
-105
-104
-105
-105
-105
-104
-105
-105
-104
-105
-105
-106
-105
-106
-106
-106
-106
-107
-106
-106
-106
-107
-106
-106
-107
-106
-106
-107
-106
-106
-107
-106
-106
-106
-107
-106
-106
-106
-107
-107
-108
-108
-108
-109
-109
-109
-110
-111
-111
-112
-113
-114
-115
-117
-118
-118
-119
-120
-122
-123
-124
-124
-126
-127
-127
-128
-129
-130
-131
-132
-133
-133
-134
-135
-135
-136
-136
-137
-138
-138
-139
-139
-140
-140
-140
-142
-142
-143
-142
-143
-144
-144
-145
-145
-145
-146
-146
-147
-147
-148
-148
-149
-150
-150
-151
-151
-151
-151
-152
-152
-152
-151
-152
-152
-151
-152
-152
-152
-152
-151
-151
-151
-151
-150
-150
-150
-150
-150
-150
-150
-150
-150
-150
-149
-150
-150
-151
-151
-151
-151
-152
-152
-152
-153
-153
-153
-154
-154
-154
-155
-156
-156
-156
-156
-158
-158
-158
-158
-160
-160
-161
-161
-162
-163
-163
-163
-164
-165
-165
-165
-166
-166
-167
-166
-167
-168
-167
-167
-167
-168
-168
-168
-168
-168
-168
-169
-169
-169
-169
-169
-170
-170
-170
-170
-171
-171
-172
-172
-173
-173
-173
-174
-174
-175
-175
-176
-176
-176
-177
-177
-178
-178
-179
-179
-179
-180
-181
-182
-182
-183
-183
-184
-184
-184
-186
-186
-187
-187
-188
-188
-189
-189
-190
-190
-191
-191
-192
-192
-193
-193
-194
-194
-194
-195
-195
-194
-195
-195
-194
-194
-194
-193
-192
-192
-191
-190
-190
-189
-188
-188
-187
-186
-186
-186
-185
-185
-186
-186
-187
-187
-188
-190
-192
-194
-197
-199
-202
-205
-208
-213
-217
-221
-225
-230
-235
-240
-245
-249
-254
-258
-262
-265
-269
-272
-273
-275
-277
-276
-276
-276
-274
-272
-270
-267
-264
-260
-257
-253
-249
-244
-240
-235
-231
-226
-222
-218
-214
-210
-206
-203
-200
-197
-195
-192
-190
-188
-186
-185
-183
-183
-183
-183
-183
-183
-183
-183
-183
-184
-184
-186
-186
-187
-187
-188
-189
-190
-190
-191
-192
-192
-193
-193
-194
-194
-194
-194
-195
-195
-196
-196
-197
-197
-197
-198
-197
-198
-198
-198
-199
-199
-198
-198
-198
-199
-199
-199
-199
-198
-198
-198
-197
-198
-197
-197
-197
-196
-196
-196
-196
-196
-196
-196
-196
-196
-197
-197
-196
-196
-197
-197
-197
-197
-197
-197
-198
-198
-198
-199
-199
-198
-199
-199
-199
-199
-199
-199
-198
-199
-199
-199
-199
-199
-199
-199
-199
-198
-198
-198
-198
-197
-197
-197
-196
-196
-196
-195
-196
-195
-195
-194
-194
-194
-194
-194
-194
-193
-194
-194
-194
-195
-195
-195
-196
-196
-197
-197
-197
-197
-197
-198
-198
-198
-198
-198
-199
-199
-198
-198
-198
-198
-198
-198
-197
-198
-198
-198
-197
-197
-198
-198
-197
-197
-198
-198
-198
-198
-198
-198
-198
-198
-199
-199
-199
-199
-199
-200
-200
-201
-201
-201
-202
-202
-203
-202
-204
-204
-204
-204
-205
-206
-205
-206
-207
-207
-207
-207
-207
-207
-207
-208
-208
-208
-207
-208
-208
-208
-208
-208
-208
-209
-209
-209
-209
-209
-209
-210
-210
-210
-210
-210
-211
-211
-211
-213
-213
-214
-214
-214
-215
-214
-215
-215
-216
-216
-216
-216
-217
-217
-217
-218
-217
-218
-217
-218
-218
-218
-218
-219
-219
-220
-220
-220
-220
-221
-221
-221
-222
-222
-222
-223
-223
-223
-224
-224
-224
-224
-224
-224
-224
-225
-225
-225
-226
-226
-226
-226
-227
-227
-227
-228
-228
-229
-230
-230
-230
-230
-231
-231
-231
-232
-232
-232
-232
-232
-233
-234
-234
-234
-234
-233
-233
-232
-232
-232
-231
-231
-231
-230
-229
-229
-229
-229
-228
-227
-227
-226
-226
-226
-225
-225
-224
-224
-224
-224
-223
-223
-222
-223
-222
-223
-222
-221
-222
-221
-222
-221
-220
-221
-220
-219
-219
-218
-217
-218
-217
-215
-215
-213
-212
-212
-211
-210
-209
-208
-207
-206
-205
-204
-203
-203
-202
-202
-201
-200
-200
-199
-199
-199
-199
-198
-199
-198
-197
-198
-197
-197
-197
-197
-197
-197
-197
-196
-196
-196
-195
-195
-195
-194
-194
-193
-194
-193
-193
-192
-192
-191
-191
-191
-190
-190
-190
-189
-189
-189
-188
-188
-187
-187
-187
-187
-186
-186
-186
-186
-186
-186
-185
-185
-186
-186
-186
-185
-185
-185
-185
-185
-185
-186
-186
-186
-186
-186
-186
-186
-186
-186
-187
-187
-187
-187
-187
-187
-187
-186
-185
-185
-185
-185
-185
-185
-185
-184
-183
-183
-183
-183
-183
-183
-182
-181
-181
-181
-181
-181
-180
-181
-181
-181
-181
-181
-182
-182
-181
-182
-182
-183
-183
-183
-183
-183
-183
-183
-183
-183
-183
-184
-184
-184
-182
-183
-182
-183
-183
-183
-182
-182
-182
-181
-181
-182
-182
-181
-181
-181
-181
-180
-181
-181
-181
-181
-181
-181
-181
-181
-181
-181
-181
-181
-181
-181
-182
-182
-182
-182
-182
-182
-182
-182
-182
-182
-182
-182
-182
-182
-182
-182
-181
-181
-181
-181
-181
-181
-181
-181
-179
-180
-179
-179
-180
-180
-180
-180
-179
-179
-180
-180
-180
-181
-181
-181
-182
-182
-181
-182
-182
-182
-182
-183
-183
-183
-183
-184
-184
-184
-184
-184
-184
-184
-184
-184
-184
-184
-184
-184
-183
-183
-182
-182
-182
-182
-182
-182
-181
-180
-180
-180
-180
-179
-179
-179
-179
-179
-179
-179
-180
-180
-179
-179
-180
-180
-180
-181
-180
-180
-181
-181
-181
-181
-180
-180
-180
-180
-180
-179
-179
-179
-179
-179
-178
-178
-178
-178
-178
-178
-178
-178
-178
-178
-178
-177
-178
-178
-178
-178
-178
-179
-178
-179
-179
-179
-179
-179
-179
-179
-180
-180
-180
-180
-180
-181
-181
-181
-181
-181
-181
-182
-182
-182
-182
-181
-181
-181
-181
-181
-181
-181
-180
-179
-179
-179
-179
-178
-178
-178
-177
-177
-177
-177
-177
-177
-177
-177
-177
-177
-177
-177
-177
-179
-179
-179
-179
-180
-180
-181
-181
-181
-181
-182
-182
-182
-182
-182
-182
-182
-182
-182
-181
-181
-180
-179
-179
-179
-179
-179
-179
-179
-179
-179
-179
-179
-180
-180
-180
-181
-182
-182
-182
-182
-183
-184
-184
-185
-185
-185
-185
-185
-184
-185
-184
-183
-183
-183
-182
-182
-182
-181
-181
-181
-181
-180
-180
-180
-179
-179
-179
-179
-179
-179
-178
-179
-179
-179
-179
-179
-179
-179
-179
-178
-178
-178
-178
-178
-178
-178
-178
-178
-178
-179
-179
-179
-179
-179
-179
-180
-181
-181
-181
-181
-181
-180
-181
-181
-181
-182
-182
-182
-183
-182
-183
-183
-184
-183
-185
-184
-186
-185
-186
-186
-187
-187
-187
-187
-188
-187
-188
-189
-189
-189
-189
-189
-189
-190
-189
-190
-189
-190
-189
-190
-190
-190
-190
-190
-190
-190
-190
-190
-190
-191
-191
-191
-192
-193
-193
-194
-194
-195
-196
-196
-197
-198
-199
-200
-200
-201
-201
-202
-202
-203
-203
-204
-204
-204
-204
-204
-204
-204
-204
-204
-204
-204
-204
-204
-205
-205
-205
-205
-205
-205
-205
-205
-205
-205
-205
-205
-206
-206
-205
-205
-205
-205
-205
-205
-205
-205
-205
-204
-205
-204
-204
-203
-203
-202
-203
-202
-202
-200
-199
-199
-198
-196
-196
-195
-194
-193
-191
-191
-191
-189
-189
-187
-187
-186
-186
-185
-184
-184
-184
-183
-183
-184
-183
-183
-183
-183
-184
-184
-183
-184
-184
-184
-184
-184
-183
-183
-183
-183
-183
-183
-183
-183
-183
-182
-182
-182
-182
-181
-182
-182
-181
-182
-182
-181
-181
-180
-181
-181
-180
-180
-180
-180
-179
-179
-179
-179
-179
-179
-178
-178
-178
-179
-179
-179
-180
-180
-180
-181
-181
-181
-181
-181
-181
-181
-181
-181
-181
-182
-182
-182
-181
-181
-181
-181
-181
-181
-180
-180
-180
-180
-180
-180
-180
-180
-180
-180
-180
-180
-180
-180
-180
-180
-181
-181
-181
-181
-181
-181
-181
-181
-182
-181
-182
-181
-181
-180
-181
-180
-179
-178
-178
-178
-178
-177
-176
-176
-174
-173
-172
-171
-170
-170
-169
-169
-168
-168
-168
-167
-167
-168
-169
-171
-172
-174
-175
-178
-181
-185
-188
-192
-196
-200
-206
-211
-216
-221
-226
-232
-236
-240
-244
-248
-252
-254
-257
-258
-259
-259
-259
-258
-257
-254
-252
-248
-245
-241
-236
-232
-227
-223
-218
-212
-207
-203
-198
-193
-189
-185
-181
-177
-173
-172
-169
-167
-165
-162
-161
-160
-159
-158
-158
-158
-158
-158
-158
-159
-159
-160
-161
-162
-162
-163
-164
-164
-165
-167
-167
-167
-168
-169
-170
-170
-171
-171
-172
-172
-172
-173
-173
-173
-174
-174
-174
-175
-174
-175
-175
-175
-175
-176
-176
-176
-177
-177
-177
-177
-177
-178
-178
-178
-178
-179
-178
-178
-179
-179
-179
-178
-178
-178
-178
-179
-179
-179
-178
-178
-178
-179
-179
-179
-178
-178
-179
-179
-179
-180
-180
-181
-181
-182
-182
-182
-182
-182
-182
-183
-183
-183
-184
-183
-183
-183
-183
-183
-183
-183
-183
-183
-183
-183
-183
-183
-183
-183
-182
-183
-183
-183
-183
-183
-184
-183
-183
-183
-183
-183
-183
-184
-184
-184
-184
-184
-184
-184
-185
-185
-185
-185
-185
-185
-185
-185
-185
-185
-185
-185
-186
-186
-186
-186
-186
-186
-185
-186
-185
-186
-185
-186
-185
-186
-186
-186
-187
-187
-188
-187
-188
-188
-189
-189
-190
-190
-191
-191
-192
-193
-194
-194
-194
-195
-195
-196
-196
-196
-196
-196
-196
-196
-196
-196
-196
-195
-195
-196
-195
-195
-195
-194
-195
-195
-195
-194
-195
-194
-195
-194
-195
-195
-196
-197
-197
-198
-198
-199
-199
-200
-200
-200
-201
-201
-202
-203
-203
-205
-205
-205
-206
-206
-206
-207
-207
-208
-208
-209
-209
-208
-209
-209
-209
-210
-209
-210
-210
-210
-210
-211
-211
-211
-211
-211
-212
-212
-212
-213
-213
-213
-214
-213
-214
-214
-214
-215
-215
-215
-216
-216
-216
-217
-217
-218
-218
-219
-219
-220
-220
-220
-221
-221
-222
-222
-222
-223
-223
-224
-224
-225
-224
-225
-225
-226
-226
-226
-226
-226
-226
-226
-226
-226
-226
-226
-226
-226
-225
-225
-224
-224
-224
-224
-224
-225
-225
-225
-225
-224
-224
-225
-225
-226
-226
-225
-226
-226
-225
-226
-226
-226
-225
-225
-226
-226
-224
-224
-224
-224
-223
-223
-222
-222
-221
-221
-221
-219
-219
-219
-218
-218
-217
-217
-216
-215
-216
-215
-214
-214
-213
-213
-213
-213
-212
-211
-211
-211
-211
-210
-211
-210
-209
-210
-209
-209
-209
-209
-209
-208
-208
-208
-208
-208
-207
-207
-206
-206
-206
-205
-205
-204
-205
-205
-204
-204
-203
-203
-203
-202
-202
-202
-202
-202
-201
-202
-202
-201
-202
-202
-202
-202
-203
-203
-203
-204
-203
-203
-203
-203
-204
-204
-204
-204
-204
-204
-204
-204
-204
-204
-204
-204
-204
-204
-204
-203
-203
-203
-202
-202
-202
-202
-202
-202
-202
-202
-201
-201
-201
-201
-201
-200
-200
-200
-199
-199
-199
-199
-199
-198
-198
-198
-197
-197
-197
-197
-196
-196
-196
-196
-197
-197
-197
-197
-197
-198
-198
-198
-199
-199
-200
-201
-201
-202
-202
-202
-202
-202
-203
-203
-203
-203
-203
-202
-202
-202
-202
-203
-202
-202
-202
-203
-203
-203
-203
-204
-204
-204
-203
-203
-204
-204
-204
-204
-204
-205
-205
-205
-204
-204
-204
-204
-204
-204
-204
-203
-203
-203
-204
-204
-204
-204
-203
-203
-203
-204
-204
-204
-204
-204
-204
-204
-204
-204
-204
-204
-204
-204
-203
-203
-203
-203
-203
-203
-204
-204
-204
-204
-203
-203
-203
-203
-204
-204
-204
-203
-203
-204
-204
-204
-204
-204
-205
-204
-204
-205
-205
-205
-206
-206
-207
-207
-207
-207
-207
-208
-208
-208
-208
-207
-208
-207
-207
-207
-207
-206
-206
-205
-206
-206
-206
-206
-206
-206
-206
-206
-206
-207
-207
-207
-207
-208
-208
-209
-208
-208
-208
-209
-209
-209
-209
-209
-210
-209
-209
-210
-210
-210
-209
-210
-209
-210
-211
-211
-212
-212
-212
-213
-213
-214
-214
-215
-216
-217
-218
-218
-218
-220
-220
-221
-222
-222
-223
-223
-224
-225
-225
-226
-225
-226
-226
-226
-226
-226
-226
-226
-226
-226
-225
-225
-225
-224
-225
-224
-224
-224
-225
-224
-224
-224
-225
-224
-224
-224
-225
-225
-224
-225
-224
-225
-224
-224
-223
-223
-223
-223
-223
-222
-221
-221
-220
-219
-219
-219
-217
-217
-217
-216
-216
-215
-215
-214
-213
-212
-212
-212
-210
-211
-210
-210
-209
-209
-208
-209
-208
-208
-207
-207
-207
-207
-206
-206
-206
-205
-205
-205
-204
-204
-204
-203
-203
-203
-203
-202
-203
-203
-203
-203
-203
-203
-203
-203
-203
-204
-204
-204
-204
-204
-205
-205
-205
-205
-206
-206
-205
-205
-204
-204
-204
-204
-204
-203
-203
-202
-203
-203
-202
-202
-201
-201
-201
-201
-201
-200
-200
-200
-200
-200
-200
-200
-200
-199
-200
-200
-200
-201
-201
-200
-201
-201
-202
-202
-202
-203
-204
-204
-204
-204
-205
-205
-206
-205
-207
-206
-206
-207
-206
-206
-206
-206
-206
-205
-205
-205
-205
-204
-204
-203
-203
-202
-202
-202
-202
-201
-200
-200
-199
-199
-197
-197
-196
-196
-195
-194
-194
-193
-192
-191
-191
-191
-190
-189
-189
-189
-189
-188
-190
-190
-191
-192
-194
-196
-198
-200
-203
-205
-208
-212
-215
-219
-223
-227
-231
-237
-241
-246
-250
-253
-257
-260
-263
-266
-267
-269
-270
-271
-271
-271
-269
-269
-267
-265
-262
-259
-256
-251
-248
-244
-241
-237
-233
-228
-223
-219
-216
-211
-207
-204
-200
-197
-194
-191
-189
-186
-185
-184
-182
-182
-180
-180
-180
-180
-180
-180
-182
-182
-183
-184
-185
-187
-187
-188
-189
-190
-191
-192
-193
-193
-194
-194
-196
-196
-198
-198
-199
-199
-200
-200
-201
-201
-201
-202
-202
-203
-202
-203
-203
-203
-203
-203
-202
-202
-202
-202
-202
-202
-201
-202
-202
-202
-202
-202
-202
-202
-203
-204
-204
-205
-205
-206
-206
-207
-207
-208
-208
-209
-209
-209
-209
-209
-209
-209
-208
-209
-209
-208
-208
-207
-207
-206
-206
-205
-205
-205
-204
-204
-204
-204
-204
-204
-205
-205
-205
-206
-205
-205
-205
-205
-206
-206
-206
-206
-206
-206
-206
-207
-206
-206
-207
-206
-206
-207
-207
-207
-208
-207
-208
-208
-208
-209
-209
-209
-209
-209
-210
-211
-211
-210
-211
-211
-211
-211
-211
-212
-212
-212
-212
-212
-212
-213
-212
-212
-212
-213
-213
-212
-212
-212
-212
-212
-212
-212
-212
-212
-212
-212
-213
-213
-213
-213
-213
-213
-213
-213
-214
-214
-214
-214
-214
-214
-214
-215
-215
-215
-215
-216
-216
-216
-217
-217
-217
-217
-218
-217
-218
-217
-217
-218
-217
-218
-217
-218
-218
-218
-218
-219
-219
-218
-219
-219
-219
-219
-219
-219
-219
-219
-220
-220
-220
-220
-221
-221
-221
-221
-222
-222
-222
-223
-223
-225
-225
-225
-226
-226
-227
-227
-227
-228
-229
-228
-229
-228
-229
-230
-229
-230
-230
-230
-230
-230
-230
-231
-231
-232
-231
-232
-232
-233
-233
-233
-235
-235
-236
-236
-236
-237
-237
-237
-238
-238
-238
-239
-239
-239
-239
-239
-240
-240
-239
-240
-240
-240
-241
-241
-241
-241
-241
-241
-242
-242
-242
-242
-242
-242
-242
-242
-242
-242
-242
-242
-242
-242
-242
-242
-242
-242
-242
-241
-241
-241
-240
-240
-240
-240
-240
-240
-239
-239
-238
-237
-237
-237
-236
-235
-234
-233
-233
-233
-232
-231
-230
-229
-228
-228
-227
-226
-225
-225
-224
-223
-223
-222
-221
-221
-221
-219
-220
-218
-218
-217
-217
-217
-216
-216
-216
-215
-215
-215
-214
-215
-214
-214
-214
-213
-214
-214
-214
-214
-213
-213
-213
-213
-212
-212
-211
-212
-211
-211
-210
-211
-210
-209
-210
-209
-208
-209
-208
-208
-207
-208
-207
-207
-207
-207
-207
-207
-206
-206
-206
-207
-206
-206
-206
-205
-205
-205
-205
-205
-205
-205
-204
-204
-204
-204
-205
-204
-204
-204
-203
-203
-203
-204
-204
-204
-204
-204
-204
-205
-205
-205
-205
-205
-205
-205
-205
-205
-205
-205
-205
-205
-205
-205
-205
-206
-206
-206
-206
-205
-205
-205
-205
-205
-205
-204
-204
-204
-204
-203
-202
-202
-202
-202
-202
-202
-201
-201
-201
-200
-200
-200
-200
-200
-200
-199
-200
-199
-199
-199
-199
-200
-200
-200
-200
-200
-200
-200
-200
-200
-200
-201
-201
-201
-201
-202
-202
-202
-202
-203
-203
-203
-203
-203
-203
-203
-203
-204
-204
-204
-204
-204
-204
-204
-204
-204
-204
-204
-204
-204
-204
-203
-203
-203
-203
-202
-202
-202
-202
-202
-201
-201
-201
-201
-201
-201
-201
-201
-201
-200
-200
-200
-200
-200
-200
-200
-200
-199
-199
-199
-199
-199
-199
-198
-198
-197
-197
-197
-197
-197
-198
-198
-198
-198
-198
-197
-197
-197
-197
-197
-198
-198
-197
-197
-197
-197
-197
-197
-197
-198
-197
-197
-197
-196
-196
-196
-197
-197
-197
-196
-196
-196
-196
-195
-195
-195
-195
-195
-194
-194
-194
-194
-194
-195
-194
-194
-194
-194
-195
-195
-196
-196
-196
-197
-197
-197
-197
-197
-196
-196
-196
-196
-196
-197
-196
-196
-196
-196
-195
-194
-194
-194
-194
-193
-193
-193
-193
-193
-192
-192
-192
-192
-192
-192
-192
-191
-191
-191
-191
-192
-192
-191
-191
-192
-192
-191
-191
-191
-191
-192
-192
-192
-191
-192
-192
-191
-192
-192
-192
-192
-192
-192
-192
-192
-192
-192
-191
-192
-192
-192
-193
-192
-193
-193
-193
-194
-194
-195
-195
-196
-197
-197
-198
-198
-199
-199
-200
-201
-201
-202
-203
-202
-203
-203
-204
-204
-204
-205
-205
-205
-205
-204
-204
-205
-205
-204
-204
-204
-205
-205
-204
-204
-204
-204
-204
-204
-204
-204
-204
-205
-205
-204
-204
-205
-204
-205
-205
-205
-204
-204
-204
-204
-204
-204
-203
-203
-202
-201
-200
-200
-199
-197
-197
-196
-195
-194
-193
-192
-191
-190
-189
-189
-188
-187
-186
-186
-185
-185
-184
-185
-184
-184
-184
-184
-184
-184
-184
-184
-184
-184
-184
-184
-184
-184
-183
-183
-183
-183
-182
-182
-182
-182
-181
-180
-180
-181
-180
-180
-179
-179
-180
-179
-179
-178
-179
-178
-179
-178
-178
-177
-178
-177
-177
-177
-176
-176
-176
-175
-175
-174
-174
-174
-174
-174
-173
-173
-173
-173
-173
-173
-173
-173
-172
-172
-171
-171
-171
-171
-172
-172
-171
-171
-171
-171
-170
-170
-170
-170
-170
-170
-169
-170
-170
-170
-170
-170
-171
-171
-171
-171
-170
-170
-170
-170
-171
-171
-170
-170
-170
-169
-169
-169
-168
-167
-167
-167
-167
-166
-166
-167
-166
-167
-166
-167
-167
-166
-166
-166
-166
-166
-165
-166
-165
-165
-164
-164
-163
-162
-162
-161
-159
-159
-158
-157
-155
-155
-154
-155
-154
-154
-154
-155
-156
-157
-158
-161
-163
-167
-170
-174
-176
-181
-185
-190
-194
-198
-202
-207
-211
-214
-217
-221
-223
-224
-226
-228
-228
-228
-227
-226
-224
-222
-220
-217
-213
-210
-206
-203
-198
-194
-190
-186
-182
-178
-174
-170
-167
-164
-160
-157
-154
-152
-149
-147
-145
-143
-142
-141
-140
-139
-138
-138
-139
-138
-139
-139
-140
-140
-141
-142
-143
-143
-144
-144
-146
-146
-146
-147
-147
-148
-148
-148
-149
-148
-149
-149
-149
-149
-150
-150
-150
-150
-150
-151
-150
-151
-150
-151
-150
-151
-151
-151
-151
-151
-151
-152
-152
-152
-152
-152
-153
-153
-153
-153
-153
-155
-155
-155
-155
-156
-155
-155
-155
-155
-155
-155
-155
-155
-155
-155
-155
-155
-156
-155
-155
-155
-155
-155
-155
-155
-155
-155
-155
-155
-155
-154
-154
-153
-153
-153
-153
-154
-154
-153
-153
-154
-154
-153
-154
-154
-154
-155
-155
-155
-155
-155
-155
-155
-155
-154
-154
-155
-155
-154
-154
-153
-154
-153
-152
-152
-152
-152
-152
-151
-151
-151
-151
-151
-151
-151
-152
-152
-152
-152
-152
-152
-152
-152
-153
-153
-153
-153
-153
-154
-154
-154
-154
-154
-154
-154
-154
-154
-154
