# Simple Text Format
# Sampling Rate (Hz):= 1200.00
# Resolution:= 12
# Labels:= ECG	 V3
# Age:=	64
# Gender:=	Masculino
-47
-47
-47
-47
-46
-46
-46
-46
-46
-46
-46
-46
-46
-46
-46
-46
-46
-46
-46
-46
-46
-46
-46
-46
-46
-45
-45
-45
-45
-46
-45
-45
-45
-45
-45
-44
-44
-45
-45
-45
-45
-45
-45
-45
-45
-45
-45
-45
-45
-44
-44
-43
-43
-43
-43
-43
-43
-43
-42
-43
-41
-41
-41
-42
-41
-41
-40
-41
-41
-41
-41
-41
-41
-41
-42
-42
-42
-43
-42
-43
-43
-43
-44
-44
-44
-44
-44
-44
-44
-44
-44
-43
-44
-43
-42
-42
-41
-40
-40
-39
-38
-37
-36
-35
-35
-33
-32
-30
-28
-26
-25
-23
-20
-17
-14
-11
-7
-3
2
7
12
18
24
32
39
47
54
63
71
80
90
99
109
119
128
137
146
154
162
169
175
180
184
187
190
191
190
187
183
178
170
161
149
137
123
109
93
76
60
44
27
10
-7
-24
-39
-54
-68
-80
-91
-100
-107
-113
-119
-122
-124
-125
-124
-123
-121
-118
-115
-110
-105
-101
-96
-91
-86
-81
-76
-72
-68
-63
-58
-55
-51
-47
-44
-41
-38
-37
-34
-32
-31
-30
-29
-27
-26
-26
-24
-24
-23
-23
-22
-21
-21
-20
-21
-20
-20
-19
-19
-18
-18
-17
-17
-16
-16
-16
-16
-16
-16
-16
-16
-16
-17
-17
-17
-17
-18
-18
-18
-19
-19
-19
-19
-20
-20
-20
-20
-20
-20
-20
-20
-20
-20
-20
-20
-20
-20
-20
-20
-19
-19
-19
-19
-19
-19
-18
-18
-18
-18
-17
-17
-16
-16
-16
-16
-14
-14
-14
-14
-13
-13
-12
-12
-13
-11
-11
-11
-12
-12
-12
-11
-11
-11
-12
-12
-12
-12
-12
-12
-12
-12
-12
-12
-12
-12
-11
-11
-11
-11
-11
-11
-11
-10
-10
-10
-9
-9
-8
-8
-7
-6
-5
-5
-5
-4
-4
-4
-4
-4
-4
-3
-3
-3
-3
-3
-4
-4
-4
-5
-5
-5
-6
-6
-6
-7
-7
-7
-7
-7
-7
-7
-6
-6
-5
-5
-5
-5
-4
-4
-3
-2
-2
-2
-1
-1
-1
0
1
2
2
2
2
2
2
3
4
4
4
5
5
5
6
7
7
8
8
9
9
9
10
10
11
11
12
12
13
13
14
15
15
14
15
16
16
16
16
16
16
17
17
17
17
17
17
18
18
18
19
18
18
18
19
20
21
21
22
22
22
22
22
22
22
23
24
24
23
23
23
23
23
22
22
22
22
22
22
22
22
21
22
22
22
22
23
23
24
23
23
23
24
24
23
24
24
23
22
23
22
21
21
21
21
19
19
19
19
18
17
17
17
17
17
17
17
18
17
17
17
17
18
17
17
18
18
17
17
17
16
16
15
15
15
14
15
14
13
13
12
12
11
11
11
10
10
9
9
7
7
6
6
5
4
4
3
2
1
1
-1
-1
-2
-3
-3
-4
-5
-6
-6
-7
-8
-8
-9
-9
-9
-9
-10
-10
-10
-10
-10
-10
-11
-11
-10
-10
-10
-11
-12
-12
-12
-13
-13
-14
-14
-14
-15
-15
-16
-16
-17
-17
-17
-18
-18
-18
-19
-19
-19
-19
-19
-18
-18
-18
-18
-18
-18
-18
-18
-17
-17
-18
-18
-17
-16
-16
-16
-16
-16
-16
-15
-15
-15
-15
-15
-14
-14
-14
-14
-14
-14
-13
-14
-14
-14
-14
-14
-13
-13
-14
-13
-13
-13
-13
-13
-13
-13
-13
-13
-12
-12
-13
-13
-13
-13
-13
-12
-12
-12
-12
-12
-12
-12
-12
-11
-11
-11
-11
-11
-12
-12
-12
-12
-12
-12
-12
-11
-11
-10
-10
-10
-10
-10
-10
-10
-10
-10
-10
-11
-11
-10
-10
-10
-11
-11
-11
-11
-11
-11
-10
-10
-10
-10
-10
-10
-10
-10
-10
-10
-10
-10
-10
-10
-10
-10
-10
-11
-11
-11
-11
-12
-12
-12
-12
-12
-12
-12
-12
-12
-13
-13
-13
-12
-12
-11
-11
-12
-11
-11
-11
-10
-10
-10
-10
-10
-10
-9
-9
-8
-8
-8
-7
-7
-7
-7
-8
-8
-8
-8
-8
-8
-9
-9
-10
-10
-11
-11
-12
-12
-13
-13
-14
-14
-15
-15
-16
-16
-16
-16
-16
-16
-15
-15
-15
-15
-15
-14
-13
-13
-13
-12
-12
-12
-12
-12
-12
-11
-11
-11
-11
-11
-11
-11
-12
-12
-12
-12
-12
-12
-13
-13
-13
-13
-13
-13
-13
-13
-13
-13
-13
-13
-13
-13
-13
-13
-13
-13
-13
-12
-12
-12
-12
-12
-12
-11
-11
-11
-11
-11
-11
-11
-10
-10
-10
-10
-10
-10
-10
-10
-10
-9
-9
-9
-9
-9
-9
-9
-10
-10
-9
-9
-9
-9
-9
-9
-9
-8
-8
-8
-7
-6
-6
-5
-4
-4
-3
-3
-2
0
0
1
2
3
4
5
5
6
7
7
7
8
8
9
9
10
11
11
12
12
12
14
14
14
15
15
16
16
16
17
16
16
16
16
15
14
14
13
12
10
10
8
7
6
4
4
3
1
1
0
0
-1
-1
-2
-2
-2
-2
-2
-2
-2
-2
-2
-3
-3
-2
-3
-3
-4
-3
-3
-3
-3
-4
-4
-4
-4
-5
-5
-5
-5
-6
-6
-7
-7
-7
-7
-8
-7
-8
-8
-9
-9
-9
-10
-10
-10
-10
-10
-11
-10
-10
-11
-10
-10
-10
-10
-10
-10
-10
-10
-10
-10
-10
-10
-10
-10
-10
-11
-11
-12
-12
-12
-13
-13
-13
-13
-13
-13
-14
-14
-13
-13
-14
-14
-14
-14
-14
-15
-15
-15
-15
-13
-13
-13
-13
-13
-14
-14
-14
-14
-14
-14
-14
-14
-13
-13
-13
-13
-13
-13
-13
-14
-14
-14
-14
-14
-14
-14
-14
-13
-13
-13
-13
-14
-14
-13
-13
-13
-14
-14
-14
-14
-14
-14
-13
-13
-13
-13
-13
-13
-12
-12
-12
-12
-12
-11
-11
-11
-10
-10
-9
-9
-8
-9
-9
-8
-8
-8
-8
-8
-8
-9
-9
-8
-8
-8
-9
-9
-8
-8
-8
-8
-7
-6
-6
-4
-3
-2
0
2
4
6
9
12
15
18
23
27
32
37
42
49
56
63
70
78
87
95
104
113
122
132
141
151
161
169
178
187
194
201
206
211
215
218
219
219
218
215
210
205
196
187
175
162
149
133
117
101
84
67
49
32
16
-1
-17
-31
-45
-56
-68
-76
-84
-90
-94
-98
-99
-99
-98
-97
-94
-90
-87
-82
-77
-72
-66
-61
-56
-51
-46
-42
-38
-32
-28
-25
-21
-18
-15
-12
-10
-8
-6
-4
-3
-2
-1
0
1
2
2
3
4
3
4
4
5
5
6
6
7
7
7
7
7
7
8
8
7
7
7
7
7
7
7
7
7
6
6
6
6
5
5
5
6
6
6
6
7
7
7
7
6
7
7
7
7
7
8
8
8
7
8
7
8
8
8
8
7
8
8
8
7
7
8
8
8
8
9
9
9
9
9
10
10
11
11
11
11
12
12
12
12
13
13
12
12
13
13
13
13
13
13
13
13
13
13
12
12
13
13
13
13
14
14
14
15
15
16
16
16
16
16
15
16
16
16
15
15
15
15
14
14
13
13
12
12
11
11
11
10
10
10
10
10
10
10
10
11
11
12
13
13
13
14
14
14
15
15
17
17
17
17
18
18
18
18
19
19
19
19
19
19
20
20
20
20
21
21
21
21
22
22
21
21
21
22
22
22
22
22
23
23
23
23
24
24
24
24
24
25
25
25
25
25
27
27
27
27
27
28
28
28
28
28
28
28
29
29
29
29
30
31
31
31
32
32
32
32
32
32
32
33
33
33
33
33
33
33
33
33
33
31
31
31
31
31
31
30
30
30
31
31
31
30
30
30
31
31
30
30
30
29
29
28
28
28
27
27
26
25
25
24
24
24
23
23
23
22
22
22
22
22
22
22
23
23
22
23
23
23
23
22
22
22
22
22
21
21
20
20
19
19
18
17
17
16
15
15
14
13
13
12
11
11
10
9
9
8
8
7
7
7
6
6
5
5
3
3
1
0
0
-2
-2
-3
-3
-5
-5
-6
-6
-6
-7
-9
-9
-10
-10
-11
-11
-12
-12
-12
-12
-12
-13
-13
-13
-14
-14
-15
-15
-16
-15
-16
-16
-16
-16
-17
-17
-17
-17
-18
-18
-18
-18
-18
-19
-19
-19
-19
-19
-20
-20
-20
-21
-20
-21
-21
-21
-21
-22
-22
-22
-23
-23
-23
-23
-23
-23
-23
-22
-22
-22
-22
-22
-21
-21
-21
-21
-21
-21
-21
-21
-21
-21
-21
-21
-21
-21
-21
-21
-21
-21
-21
-21
-21
-21
-21
-21
-21
-21
-21
-21
-21
-20
-20
-19
-19
-19
-18
-18
-18
-18
-18
-18
-17
-17
-17
-18
-18
-18
-18
-17
-18
-19
-19
-19
-19
-19
-19
-19
-19
-21
-21
-21
-21
-21
-21
-21
-21
-21
-21
-21
-21
-21
-20
-20
-20
-20
-21
-21
-20
-20
-21
-21
-20
-20
-20
-20
-21
-22
-22
-22
-22
-22
-22
-24
-24
-24
-24
-25
-25
-25
-25
-26
-26
-26
-26
-26
-25
-25
-25
-25
-25
-25
-25
-25
-25
-25
-24
-24
-25
-25
-25
-25
-26
-26
-27
-27
-27
-28
-28
-28
-29
-29
-29
-30
-29
-29
-30
-29
-29
-29
-29
-29
-29
-29
-28
-28
-28
-28
-28
-28
-27
-26
-26
-26
-26
-26
-27
-26
-26
-26
-26
-26
-27
-27
-27
-28
-28
-28
-28
-29
-29
-29
-31
-31
-30
-31
-32
-32
-32
-31
-31
-32
-32
-32
-32
-32
-31
-31
-30
-30
-30
-30
-29
-29
-29
-29
-28
-28
-28
-28
-28
-29
-28
-28
-28
-30
-30
-30
-30
-31
-31
-32
-32
-32
-32
-32
-33
-33
-33
-34
-34
-34
-34
-34
-34
-34
-34
-35
-35
-35
-34
-34
-35
-34
-34
-34
-34
-33
-33
-32
-32
-31
-31
-31
-30
-30
-29
-29
-28
-28
-27
-27
-26
-26
-26
-25
-24
-24
-24
-24
-23
-23
-22
-21
-21
-20
-20
-20
-19
-19
-19
-19
-17
-18
-18
-18
-17
-17
-17
-16
-16
-15
-15
-14
-13
-13
-12
-12
-12
-11
-11
-10
-10
-10
-9
-9
-9
-8
-9
-9
-10
-10
-11
-11
-12
-13
-14
-15
-16
-16
-17
-19
-20
-20
-21
-21
-22
-23
-23
-25
-25
-25
-25
-25
-25
-26
-25
-25
-26
-25
-25
-25
-25
-26
-25
-26
-26
-25
-26
-26
-27
-27
-28
-28
-28
-29
-30
-30
-32
-32
-33
-34
-35
-35
-35
-36
-37
-38
-37
-38
-38
-39
-38
-39
-38
-39
-39
-39
-39
-39
-38
-38
-38
-38
-38
-38
-38
-38
-38
-38
-38
-38
-38
-38
-37
-37
-38
-38
-38
-38
-39
-39
-39
-39
-39
-39
-40
-40
-40
-40
-40
-40
-41
-41
-41
-42
-42
-42
-42
-41
-41
-42
-42
-41
-41
-41
-40
-40
-40
-40
-40
-40
-39
-38
-39
-39
-39
-39
-38
-38
-38
-39
-38
-38
-38
-39
-39
-39
-40
-40
-40
-40
-41
-41
-41
-41
-41
-41
-42
-41
-41
-41
-41
-42
-41
-41
-41
-41
-41
-41
-41
-40
-40
-39
-39
-39
-38
-38
-38
-38
-38
-37
-38
-38
-37
-37
-36
-37
-37
-37
-37
-37
-37
-37
-37
-37
-37
-37
-36
-35
-35
-33
-32
-31
-29
-28
-27
-25
-22
-20
-18
-14
-11
-8
-4
1
6
11
17
23
29
36
44
52
60
68
77
86
95
104
113
122
131
140
148
155
163
169
175
179
182
185
186
186
184
180
175
167
159
148
136
123
109
93
78
62
45
29
12
-4
-20
-35
-49
-63
-74
-85
-95
-102
-108
-114
-118
-120
-122
-122
-121
-120
-117
-114
-111
-107
-102
-98
-94
-90
-85
-80
-76
-72
-68
-63
-59
-56
-52
-49
-45
-43
-40
-37
-36
-33
-31
-30
-29
-27
-26
-26
-25
-25
-24
-24
-24
-23
-23
-23
-24
-23
-23
-23
-23
-23
-23
-23
-23
-23
-22
-22
-22
-21
-21
-20
-20
-20
-20
-19
-19
-19
-18
-18
-19
-19
-19
-19
-18
-18
-18
-17
-17
-17
-17
-17
-17
-18
-18
-18
-19
-19
-19
-20
-20
-21
-21
-22
-22
-23
-24
-24
-24
-24
-24
-23
-23
-23
-23
-23
-22
-22
-21
-21
-20
-19
-17
-17
-17
-15
-15
-15
-15
-14
-14
-14
-14
-14
-15
-15
-15
-16
-16
-16
-17
-17
-17
-17
-17
-17
-17
-17
-17
-17
-16
-16
-16
-14
-14
-14
-14
-12
-12
-12
-12
-12
-12
-11
-11
-11
-11
-12
-12
-12
-12
-12
-12
-12
-12
-12
-13
-13
-13
-13
-12
-12
-12
-12
-12
-11
-11
-10
-9
-9
-9
-9
-9
-7
-7
-7
-7
-6
-7
-7
-6
-6
-7
-7
-6
-7
-7
-7
-7
-7
-8
-8
-9
-9
-9
-9
-9
-9
-8
-8
-8
-8
-8
-8
-8
-8
-8
-7
-7
-7
-6
-6
-6
-5
-5
-4
-4
-3
-3
-3
-2
-1
-1
-1
-1
0
0
0
0
0
0
1
1
0
0
1
1
0
1
1
1
1
2
2
2
2
2
3
3
4
4
4
4
5
5
7
7
7
7
7
8
8
8
8
8
8
8
8
8
8
8
7
7
7
7
7
6
6
5
5
4
4
4
4
4
4
4
3
3
3
3
3
3
3
3
3
3
3
3
3
3
2
2
2
2
2
2
2
1
1
1
1
1
0
0
0
0
0
-1
-1
-1
-1
-2
-2
-1
-1
-2
-2
-2
-3
-3
-3
-4
-4
-5
-5
-5
-6
-7
-8
-8
-8
-10
-10
-10
-11
-12
-13
-13
-13
-15
-15
-16
-17
-17
-18
-19
-19
-20
-21
-22
-22
-22
-23
-23
-24
-25
-25
-26
-26
-26
-27
-27
-28
-29
-29
-29
-29
-30
-30
-30
-31
-31
-31
-32
-32
-32
-33
-32
-32
-32
-33
-33
-33
-33
-34
-34
-33
-33
-34
-34
-34
-34
-34
-34
-34
-34
-34
-34
-34
-34
-34
-34
-34
-35
-35
-35
-35
-35
-35
-35
-35
-35
-35
-35
-35
-35
-35
-35
-35
-35
-35
-35
-35
-34
-34
-35
-35
-35
-35
-35
-35
-35
-35
-35
-35
-35
-35
-35
-35
-35
-35
-35
-35
-35
-35
-35
-35
-35
-34
-33
-33
-33
-33
-33
-33
-33
-33
-32
-32
-32
-32
-32
-32
-32
-32
-32
-32
-32
-33
-33
-33
-33
-34
-34
-34
-35
-35
-35
-35
-36
-36
-36
-36
-36
-36
-36
-36
-36
-35
-35
-35
-34
-34
-34
-34
-33
-34
-34
-34
-34
-33
-33
-34
-33
-33
-33
-33
-33
-33
-33
-33
-33
-34
-33
-33
-34
-34
-34
-34
-34
-34
-34
-35
-36
-36
-36
-37
-37
-37
-37
-37
-37
-37
-37
-37
-37
-37
-38
-38
-38
-38
-38
-39
-39
-39
-39
-39
-39
-40
-39
-39
-40
-40
-40
-40
-40
-40
-39
-39
-39
-39
-39
-39
-39
-39
-39
-39
-39
-39
-39
-39
-39
-39
-39
-39
-39
-39
-39
-39
-40
-40
-39
-39
-40
-40
-40
-40
-40
-40
-40
-40
-40
-40
-40
-40
-40
-40
-40
-40
-41
-41
-41
-41
-41
-42
-42
-43
-43
-43
-44
-44
-43
-43
-43
-43
-43
-42
-42
-42
-42
-41
-41
-41
-40
-40
-40
-41
-41
-40
-41
-41
-40
-40
-40
-41
-40
-41
-41
-42
-42
-43
-43
-44
-43
-43
-44
-44
-44
-44
-44
-44
-44
-44
-44
-43
-43
-43
-42
-42
-42
-42
-41
-40
-40
-39
-38
-38
-37
-36
-36
-35
-35
-35
-34
-34
-34
-33
-32
-33
-32
-32
-32
-32
-32
-31
-31
-31
-31
-31
-30
-30
-30
-30
-29
-29
-28
-28
-26
-26
-25
-25
-24
-24
-22
-23
-23
-22
-22
-21
-21
-22
-21
-21
-22
-22
-23
-24
-24
-25
-25
-26
-27
-27
-28
-29
-29
-29
-30
-31
-31
-32
-32
-33
-33
-33
-34
-34
-34
-34
-35
-35
-35
-35
-35
-35
-35
-35
-35
-35
-35
-35
-36
-36
-36
-37
-37
-37
-38
-39
-40
-40
-40
-41
-41
-42
-43
-44
-45
-46
-45
-46
-47
-48
-47
-48
-49
-50
-49
-50
-49
-50
-50
-49
-50
-50
-50
-50
-49
-49
-49
-49
-49
-50
-50
-50
-50
-51
-51
-51
-51
-51
-51
-52
-52
-52
-52
-52
-53
-53
-53
-53
-52
-52
-52
-52
-51
-51
-51
-51
-50
-50
-50
-50
-51
-51
-51
-51
-52
-52
-52
-52
-52
-52
-53
-53
-53
-54
-54
-54
-53
-54
-54
-54
-54
-53
-53
-53
-53
-53
-52
-52
-52
-52
-52
-52
-51
-52
-51
-51
-51
-51
-51
-51
-51
-50
-51
-51
-50
-50
-50
-51
-50
-50
-49
-50
-50
-50
-51
-51
-51
-53
-53
-53
-53
-54
-54
-54
-55
-54
-55
-55
-55
-55
-55
-54
-55
-54
-54
-54
-52
-52
-51
-50
-49
-48
-46
-44
-43
-40
-37
-35
-32
-30
-26
-24
-20
-16
-12
-6
-1
6
12
19
26
34
41
50
58
67
76
85
94
104
113
123
131
139
146
154
159
165
169
173
175
176
176
173
169
165
157
148
137
126
112
98
82
68
52
35
18
2
-15
-31
-46
-61
-74
-86
-97
-106
-114
-120
-126
-129
-132
-132
-133
-132
-130
-128
-125
-121
-117
-113
-109
-104
-100
-95
-91
-86
-82
-78
-75
-71
-67
-64
-62
-59
-56
-53
-52
-50
-48
-46
-45
-44
-44
-42
-41
-40
-40
-39
-39
-39
-38
-39
-38
-37
-37
-37
-38
-38
-38
-38
-38
-38
-38
-38
-38
-38
-38
-38
-37
-37
-37
-38
-38
-38
-38
-37
-36
-37
-37
-36
-36
-36
-36
-36
-36
-36
-36
-36
-36
-35
-35
-35
-35
-35
-35
-36
-35
-35
-35
-35
-35
-34
-34
-34
-34
-33
-34
-34
-33
-33
-33
-33
-34
-34
-34
-34
-34
-34
-34
-34
-34
-34
-34
-33
-33
-34
-34
-34
-34
-34
-34
-33
-33
-33
-33
-33
-33
-32
-33
-33
-33
-33
-32
-32
-32
-32
-31
-32
-32
-32
-32
-31
-31
-31
-31
-31
-30
-30
-30
-30
-29
-29
-29
-29
-28
-28
-28
-27
-27
-27
-27
-26
-26
-26
-26
-25
-25
-25
-25
-25
-25
-25
-25
-25
-25
-24
-24
-24
-25
-24
-24
-25
-25
-24
-25
-25
-25
-25
-25
-25
-25
-25
-25
-25
-24
-24
-24
-24
-24
-22
-22
-21
-21
-20
-20
-19
-18
-18
-17
-17
-16
-15
-15
-15
-15
-13
-14
-14
-13
-13
-13
-12
-12
-12
-12
-12
-12
-11
-11
-11
-11
-10
-10
-10
-10
-9
-8
-8
-8
-7
-7
-7
-7
-7
-7
-7
-7
-7
-7
-7
-7
-5
-6
-5
-5
-5
-5
-5
-5
-5
-5
-5
-5
-4
-4
-3
-3
-4
-4
-4
-4
-4
-4
-4
-4
-4
-4
-4
-4
-5
-5
-5
-5
-5
-5
-5
-5
-5
-5
-5
-5
-5
-5
-5
-5
-5
-5
-5
-5
-5
-5
-5
-4
-4
-4
-3
-3
-3
-3
-3
-3
-3
-2
-2
-2
-3
-3
-3
-3
-3
-4
-4
-4
-4
-4
-6
-6
-7
-8
-8
-9
-10
-11
-11
-12
-13
-13
-14
-15
-15
-16
-16
-17
-17
-18
-18
-18
-19
-19
-20
-21
-21
-21
-22
-22
-23
-24
-24
-24
-26
-26
-27
-27
-29
-28
-30
-30
-31
-32
-32
-33
-33
-33
-35
-35
-36
-36
-36
-37
-37
-38
-38
-39
-39
-39
-40
-40
-40
-40
-41
-41
-41
-41
-41
-42
-42
-41
-41
-41
-42
-43
-43
-43
-43
-44
-44
-44
-44
-44
-45
-45
-45
-46
-46
-45
-45
-46
-46
-46
-45
-45
-45
-45
-45
-45
-45
-45
-45
-44
-44
-44
-44
-43
-43
-43
-42
-43
-42
-41
-41
-40
-40
-40
-41
-40
-40
-40
-40
-39
-39
-39
-40
-40
-41
-41
-41
-41
-42
-42
-42
-43
-43
-43
-43
-43
-43
-43
-43
-42
-41
-41
-41
-41
-41
-40
-40
-39
-39
-39
-39
-38
-38
-37
-37
-37
-37
-37
-37
-37
-37
-37
-37
-37
-37
-37
-38
-38
-39
-39
-39
-40
-40
-40
-40
-40
-40
-40
-40
-41
-41
-41
-41
-41
-40
-40
-40
-40
-40
-39
-39
-38
-37
-37
-36
-36
-36
-36
-35
-35
-35
-35
-35
-34
-35
-35
-35
-36
-36
-37
-36
-37
-37
-38
-38
-38
-39
-40
-39
-40
-40
-41
-41
-41
-41
-41
-41
-42
-41
-41
-42
-42
-41
-41
-42
-41
-41
-41
-40
-41
-40
-40
-40
-40
-40
-40
-40
-40
-40
-40
-40
-40
-40
-39
-39
-39
-40
-39
-39
-39
-38
-38
-38
-38
-38
-37
-38
-38
-38
-38
-39
-40
-40
-40
-40
-40
-41
-41
-42
-42
-43
-43
-43
-44
-45
-45
-45
-46
-46
-46
-45
-45
-45
-45
-44
-44
-45
-44
-44
-45
-43
-43
-44
-43
-43
-43
-43
-43
-43
-42
-42
-42
-42
-42
-42
-42
-42
-42
-42
-42
-43
-43
-44
-44
-44
-44
-44
-44
-44
-44
-44
-44
-44
-44
-44
-44
-44
-44
-44
-43
-43
-43
-43
-42
-42
-41
-41
-41
-40
-40
-40
-39
-39
-38
-38
-37
-36
-35
-35
-34
-34
-33
-33
-32
-31
-30
-29
-29
-28
-28
-28
-27
-27
-26
-26
-26
-26
-26
-26
-25
-25
-25
-25
-24
-24
-24
-23
-23
-23
-22
-22
-21
-21
-20
-20
-20
-20
-20
-20
-20
-20
-21
-21
-22
-22
-23
-24
-24
-25
-25
-26
-26
-27
-28
-28
-29
-30
-31
-30
-32
-31
-32
-32
-32
-32
-34
-34
-34
-34
-34
-34
-35
-35
-35
-35
-35
-36
-36
-36
-35
-35
-35
-36
-36
-36
-36
-36
-36
-37
-37
-37
-38
-38
-38
-39
-39
-40
-40
-40
-41
-41
-40
-41
-41
-42
-42
-42
-42
-42
-42
-42
-42
-43
-42
-43
-44
-43
-44
-44
-45
-46
-46
-47
-48
-48
-48
-49
-49
-50
-50
-50
-50
-51
-51
-51
-51
-51
-52
-52
-52
-52
-52
-52
-51
-51
-51
-50
-50
-50
-50
-49
-49
-49
-48
-48
-47
-47
-47
-46
-46
-46
-45
-45
-45
-45
-45
-46
-47
-47
-47
-46
-47
-47
-47
-48
-48
-48
-49
-49
-48
-48
-49
-49
-49
-49
-48
-48
-48
-47
-47
-47
-47
-46
-46
-46
-46
-45
-45
-45
-45
-44
-44
-45
-44
-44
-44
-44
-44
-44
-44
-44
-44
-44
-44
-45
-45
-45
-44
-44
-44
-44
-44
-44
-44
-45
-45
-45
-45
-45
-46
-45
-45
-45
-43
-42
-42
-41
-39
-38
-35
-33
-31
-29
-25
-23
-20
-16
-12
-7
-2
3
9
15
22
29
37
44
51
59
68
76
86
95
105
113
124
133
142
150
158
165
171
176
181
184
186
188
187
184
180
174
166
157
146
134
120
105
89
73
56
39
22
3
-14
-31
-47
-61
-75
-88
-97
-106
-114
-121
-126
-130
-132
-133
-132
-131
-128
-125
-122
-118
-113
-108
-103
-98
-92
-87
-83
-78
-73
-69
-65
-61
-58
-55
-52
-49
-47
-44
-42
-41
-39
-38
-37
-35
-34
-32
-30
-29
-29
-27
-27
-26
-26
-25
-25
-24
-25
-25
-25
-25
-25
-27
-27
-27
-27
-28
-28
-29
-29
-30
-30
-30
-31
-31
-31
-30
-30
-30
-31
-30
-30
-30
-30
-29
-29
-29
-29
-29
-29
-29
-29
-29
-29
-29
-29
-28
-28
-28
-28
-27
-27
-27
-26
-26
-25
-25
-24
-24
-23
-23
-22
-21
-21
-21
-21
-21
-21
-20
-20
-20
-21
-21
-21
-20
-20
-21
-21
-22
-22
-22
-22
-23
-23
-24
-24
-25
-25
-25
-25
-25
-25
-25
-25
-24
-24
-24
-24
-23
-23
-22
-21
-20
-20
-19
-18
-17
-17
-16
-15
-15
-15
-15
-15
-15
-13
-14
-14
-14
-15
-15
-15
-15
-15
-16
-16
-16
-16
-17
-17
-18
-18
-19
-18
-18
-19
-18
-18
-18
-18
-17
-17
-17
-17
-17
-17
-16
-16
-15
-13
-13
-12
-12
-12
-11
-11
-11
-11
-10
-10
-10
-9
-9
-9
-9
-9
-9
-8
-8
-8
-8
-7
-7
-7
-7
-6
-6
-6
-6
-5
-5
-5
-4
-4
-3
-2
-2
-2
-1
-1
-1
1
1
1
3
3
4
6
6
6
6
8
8
8
9
9
9
8
9
9
8
8
9
8
8
7
7
8
8
7
7
7
7
7
8
9
9
10
10
10
11
11
12
12
14
14
14
15
15
15
15
15
16
16
16
16
16
15
15
14
14
14
14
13
13
13
12
11
11
11
11
10
10
10
10
10
10
10
9
9
9
9
8
8
8
7
8
7
7
6
5
5
5
5
4
4
4
3
3
3
2
2
2
2
1
1
2
1
1
1
0
0
0
0
-1
-1
-1
-2
-3
-3
-3
-5
-5
-6
-7
-8
-8
-10
-11
-11
-13
-13
-14
-14
-16
-16
-17
-17
-18
-18
-19
-19
-20
-20
-20
-19
-19
-19
-19
-19
-19
-20
-20
-20
-21
-22
-22
-22
-22
-23
-24
-24
-25
-26
-26
-26
-27
-28
-28
-28
-29
-29
-29
-29
-29
-29
-29
-29
-29
-28
-29
-29
-29
-28
-29
-29
-29
-28
-28
-28
-27
-27
-26
-26
-26
-26
-26
-26
-25
-25
-25
-25
-25
-25
-25
-24
-25
-25
-25
-26
-26
-26
-26
-25
-25
-25
-25
-25
-25
-25
-24
-24
-25
-25
-25
-25
-24
-24
-24
-24
-24
-24
-24
-24
-24
-23
-23
-23
-23
-23
-23
-22
-22
-22
-22
-22
-22
-22
-22
-22
-22
-22
-22
-22
-22
-22
-22
-21
-21
-21
-20
-20
-20
-20
-20
-20
-20
-20
-20
-20
-20
-20
-20
-20
-20
-21
-21
-22
-21
-22
-22
-22
-22
-22
-23
-23
-23
-23
-23
-24
-24
-24
-24
-24
-24
-24
-25
-24
-24
-24
-23
-22
-22
-22
-22
-22
-22
-22
-22
-22
-22
-23
-23
-23
-23
-23
-24
-24
-24
-24
-24
-24
-24
-24
-24
-24
-24
-24
-24
-24
-24
-24
-24
-24
-24
-24
-24
-24
-23
-23
-24
-24
-24
-24
-24
-23
-24
-24
-24
-24
-24
-24
-24
-24
-25
-24
-25
-25
-26
-26
-26
-26
-27
-27
-27
-27
-27
-27
-27
-27
-27
-27
-27
-27
-26
-26
-26
-26
-26
-26
-26
-26
-27
-27
-27
-27
-27
-27
-27
-27
-28
-28
-28
-28
-29
-29
-29
-29
-29
-29
-28
-27
-27
-27
-27
-27
-27
-26
-26
-26
-25
-25
-25
-24
-24
-24
-24
-24
-24
-25
-25
-25
-25
-25
-25
-25
-25
-27
-27
-27
-28
-28
-28
-28
-29
-29
-30
-30
-30
-30
-30
-30
-30
-30
-30
-29
-29
-29
-28
-28
-28
-28
-27
-27
-27
-26
-26
-26
-25
-25
-25
-25
-25
-24
-25
-25
-25
-24
-26
-25
-25
-25
-25
-25
-25
-24
-24
-24
-24
-24
-24
-23
-22
-21
-21
-20
-19
-19
-18
-17
-17
-15
-15
-14
-14
-12
-12
-12
-11
-10
-9
-9
-9
-7
-7
-6
-6
-6
-5
-5
-5
-4
-5
-5
-5
-5
-6
-6
-7
-7
-8
-8
-9
-10
-11
-12
-13
-13
-14
-15
-15
-16
-17
-18
-18
-19
-19
-19
-19
-19
-19
-20
-20
-21
-21
-21
-21
-21
-21
-21
-21
-22
-22
-22
-22
-22
-23
-22
-22
-23
-23
-22
-23
-23
-23
-24
-24
-24
-24
-25
-25
-25
-27
-27
-28
-27
-28
-29
-30
-30
-31
-32
-33
-33
-34
-34
-35
-36
-36
-37
-36
-37
-36
-36
-37
-37
-35
-36
-35
-35
-35
-34
-34
-34
-33
-33
-32
-32
-31
-31
-31
-31
-31
-31
-31
-32
-32
-32
-32
-33
-34
-34
-35
-36
-36
-37
-37
-38
-38
-38
-38
-38
-38
-38
-37
-37
-36
-36
-36
-35
-34
-33
-32
-31
-31
-30
-29
-28
-27
-27
-27
-27
-27
-26
-26
-26
-27
-26
-27
-27
-27
-28
-29
-29
-30
-30
-31
-32
-32
-33
-33
-33
-33
-33
-33
-33
-33
-33
-32
-32
-32
-32
-31
-31
-31
-31
-31
-30
-30
-30
-30
-30
-30
-28
-28
-28
-28
-29
-29
-29
-29
-30
-29
-29
-29
-29
-29
-28
-27
-26
-25
-24
-23
-21
-21
-19
-17
-15
-11
-8
-5
-1
3
7
12
18
22
29
35
42
49
58
65
74
82
91
100
110
119
129
137
147
156
164
172
180
186
191
196
199
202
203
202
201
197
191
184
175
164
151
138
123
107
90
74
57
39
22
5
-12
-28
-43
-57
-70
-81
-89
-98
-104
-109
-113
-115
-116
-115
-113
-111
-108
-104
-100
-95
-91
-86
-81
-76
-71
-66
-61
-58
-53
-50
-46
-43
-39
-36
-33
-31
-29
-27
-25
-23
-22
-21
-20
-19
-18
-18
-17
-17
-16
-16
-16
-15
-15
-16
-16
-16
-16
-16
-16
-16
-16
-16
-16
-16
-16
-16
-16
-16
-15
-15
-15
-15
-15
-15
-15
-14
-13
-13
-13
-13
-13
-13
-12
-12
-12
-12
-12
-13
-13
-12
-12
-12
-12
-12
-11
-11
-11
-11
-11
-10
-10
-9
-9
-8
-8
-8
-8
-7
-7
-7
-7
-7
-7
-7
-7
-7
-8
-8
-9
-9
-9
-9
-9
-9
-10
-10
-10
-10
-10
-10
-10
-10
-10
-9
-9
-8
-7
-6
-6
-5
-5
-4
-4
-3
-3
-3
-1
-2
-2
-2
-2
-2
-2
-3
-3
-3
-3
-3
-3
-4
-4
-5
-5
-6
-6
-6
-6
-5
-5
-5
-5
-5
-5
-5
-4
-4
-3
-3
-3
-2
-2
-1
0
0
1
1
1
2
2
3
3
4
4
5
6
6
6
7
7
7
7
9
9
9
9
9
10
11
11
11
11
11
11
12
12
13
12
13
13
12
13
13
13
13
14
14
15
14
15
15
15
15
16
16
16
16
16
17
17
18
18
19
19
19
20
21
22
22
22
23
24
24
24
25
26
26
26
26
26
27
27
27
27
27
28
28
28
28
28
28
28
29
29
29
29
29
29
30
30
31
31
31
31
31
31
31
31
31
31
31
31
31
31
32
32
32
32
32
32
33
33
33
33
34
34
34
34
33
33
33
33
32
32
32
31
31
30
30
29
29
29
28
29
29
28
28
28
28
28
28
28
27
28
26
27
25
25
24
24
23
23
21
21
21
19
19
18
17
16
16
15
15
14
14
13
13
12
12
11
11
10
10
9
8
8
7
6
6
4
3
3
1
1
0
-1
-2
-3
-4
-4
-5
-6
-6
-6
-7
-7
-8
-8
-8
-8
-8
-9
-9
-9
-10
-10
-10
-10
-10
-10
-11
-11
-11
-12
-12
-13
-13
-13
-13
-14
-14
-14
-14
-14
-14
-14
-15
-15
-15
-14
-14
-14
-14
-14
-13
-12
-12
-12
-12
-12
-12
-11
-11
-11
-11
-11
-12
-12
-12
-12
-12
-12
-12
-13
-13
-13
-13
-12
-12
-12
-12
-11
-11
-11
-11
-11
-10
-10
-10
-9
-9
-9
-9
-9
-9
-9
-9
-9
-10
-10
-10
-10
-10
-10
-10
-10
-10
-10
-10
-10
-10
-10
-9
-9
-9
-9
-8
-8
-8
-8
-8
-8
-8
-7
-7
-7
-7
-7
-8
-7
-7
-7
-7
-6
-6
-6
-6
-6
-6
-6
-5
-5
-5
-5
-5
-4
-5
-5
-5
-5
-6
-6
-6
-6
-6
-7
-7
-7
-7
-7
-7
-8
-8
-8
-8
-8
-8
-8
-8
-8
-8
-8
-8
-8
-7
-7
-8
-7
-7
-7
-7
-7
-7
-7
-8
-8
-8
-8
-8
-9
-9
-10
-10
-11
-11
-11
-11
-12
-12
-12
-13
-12
-12
-12
-12
-12
-12
-12
-12
-12
-11
-12
-11
-11
-11
-11
-11
-11
-11
-11
-11
-11
-10
-11
-10
-10
-10
-10
-11
-11
-11
-11
-11
-11
-11
-11
-12
-12
-12
-12
-12
-12
-12
-12
-12
-11
-11
-11
-11
-11
-11
-11
-10
-10
-10
-10
-10
-10
-10
-10
-10
-10
-11
-11
-11
-11
-11
-12
-12
-12
-13
-13
-13
-13
-13
-13
-13
-13
-13
-13
-13
-13
-13
-13
-13
-12
-12
-12
-12
-12
-11
-11
-11
-11
-11
-11
-11
-11
-11
-10
-10
-10
-10
-10
-12
-12
-12
-12
-12
-12
-12
-12
-12
-12
-12
-12
-12
-12
-11
-11
-11
-10
-9
-9
-9
-9
-9
-9
-9
-9
-9
-8
-8
-8
-8
-8
-8
-9
-9
-9
-9
-10
-10
-10
-10
-10
-10
-10
-11
-11
-11
-11
-11
-11
-12
-12
-12
-11
-11
-11
-10
-10
-10
-10
-9
-9
-8
-8
-9
-8
-8
-8
-8
-7
-7
-7
-7
-7
-7
-7
-8
-8
-9
-9
-10
-10
-11
-11
-11
-12
-12
-12
-12
-12
-12
-12
-12
-13
-13
-13
-12
-12
-12
-12
-12
-11
-11
-11
-11
-10
-10
-10
-10
-10
-9
-9
-9
-9
-9
-9
-9
-9
-9
-9
-8
-9
-9
-9
-9
-9
-9
-9
-9
-9
-9
-9
-9
-9
-9
-9
-8
-8
-8
-8
-7
-7
-7
-6
-6
-5
-5
-4
-4
-3
-3
-3
-3
-3
-3
-3
-3
-3
-3
-4
-4
-4
-5
-5
-5
-6
-6
-6
-6
-7
-7
-6
-6
-6
-6
-5
-5
-4
-3
-3
-2
-1
0
0
1
1
3
4
4
6
6
7
8
8
9
10
10
12
12
12
13
14
14
14
14
14
14
14
15
15
15
15
14
14
14
13
13
12
12
11
10
9
9
8
8
7
7
5
5
5
4
3
3
2
2
1
0
0
0
-1
0
0
0
-1
-1
-1
-1
-1
-1
-1
-1
-1
-1
-1
-1
0
-1
-2
-2
-2
-2
-2
-3
-4
-4
-4
-5
-5
-6
-6
-6
-7
-7
-7
-7
-8
-8
-9
-8
-8
-8
-9
-9
-9
-9
-9
-9
-9
-8
-9
-8
-9
-10
-9
-9
-10
-9
-9
-9
-9
-9
-9
-9
-10
-10
-10
-10
-9
-10
-10
-10
-10
-10
-11
-11
-12
-12
-12
-12
-12
-12
-13
-13
-13
-12
-12
-12
-13
-13
-13
-12
-12
-11
-11
-11
-10
-10
-10
-9
-9
-9
-9
-8
-9
-9
-9
-9
-9
-9
-9
-8
-8
-8
-8
-9
-9
-9
-9
-9
-9
-9
-10
-10
-10
-10
-9
-9
-10
-10
-10
-9
-9
-9
-9
-9
-9
-9
-9
-8
-7
-7
-7
-6
-6
-6
-6
-6
-6
-5
-5
-5
-5
-5
-5
-4
-5
-4
-4
-4
-3
-3
-2
-1
-1
0
1
2
3
5
7
10
12
14
17
21
24
28
33
37
41
47
53
59
66
73
81
89
98
107
115
125
134
143
153
162
171
180
188
196
203
209
215
218
221
222
222
221
218
212
206
197
187
175
161
147
132
115
99
82
65
48
31
15
-2
-16
-31
-43
-54
-64
-71
-78
-83
-87
-90
-90
-90
-89
-88
-84
-81
-78
-74
-69
-64
-59
-55
-50
-45
-42
-38
-33
-29
-25
-21
-19
-15
-13
-10
-8
-6
-4
-1
0
1
2
4
4
5
6
6
7
8
8
8
8
9
9
9
9
10
9
9
9
9
9
9
9
9
9
8
8
9
9
8
8
9
9
9
9
10
10
10
10
10
10
11
11
11
11
12
11
11
11
11
12
11
11
11
11
10
11
11
11
11
10
10
10
10
11
11
11
11
11
13
13
13
13
13
13
14
14
14
13
13
13
13
14
13
13
13
13
12
12
12
12
12
12
12
12
13
13
13
13
13
14
13
13
13
14
14
14
14
15
15
15
16
16
16
16
16
16
17
17
17
17
18
18
18
19
18
18
18
19
19
19
19
19
20
20
20
20
20
20
21
22
22
22
22
22
22
22
22
22
23
23
23
23
23
23
24
24
24
24
24
25
25
25
25
25
25
25
25
27
27
27
27
28
28
28
29
30
30
31
31
32
32
33
33
34
34
34
34
34
35
35
35
36
36
35
36
36
37
36
36
37
37
38
38
38
38
39
39
39
40
40
40
40
40
41
41
41
41
41
42
42
42
42
42
42
42
42
43
43
43
43
43
43
45
45
45
46
46
46
46
46
46
46
47
47
47
47
47
46
46
46
46
46
45
46
46
46
46
45
45
46
46
45
45
45
45
46
45
45
45
45
46
46
46
46
46
45
45
45
45
45
45
45
45
45
44
44
44
44
43
43
42
41
41
40
40
39
39
38
38
36
36
35
35
34
33
32
32
32
31
31
31
30
29
29
29
29
28
28
28
27
26
26
26
26
26
24
24
24
24
23
23
22
21
21
20
20
19
18
18
17
16
15
15
14
13
13
13
11
11
11
10
9
9
8
8
8
6
6
6
6
5
4
4
4
4
4
4
3
3
3
4
4
3
3
4
4
4
3
4
4
4
4
4
4
4
5
4
4
4
4
4
4
4
4
3
3
3
3
4
3
3
3
2
3
2
2
2
2
2
2
2
2
2
2
2
2
2
2
2
2
2
2
2
3
3
4
4
4
4
5
5
5
5
5
5
6
6
6
6
6
7
7
7
7
7
6
6
6
6
6
6
6
7
6
6
6
6
6
5
5
5
5
5
5
5
5
5
5
5
5
4
4
4
5
5
5
4
4
4
4
4
4
4
4
4
4
4
5
5
6
6
6
6
5
5
5
5
6
7
7
6
6
6
6
6
6
5
5
5
5
4
4
4
4
4
4
4
3
3
3
2
2
2
2
1
1
0
0
0
-1
-2
-2
-2
-2
-2
-4
-4
-4
-4
-4
-5
-5
-5
-5
-5
-5
-5
-5
-4
-4
-4
-4
-4
-4
-4
-4
-4
-3
-3
-3
-3
-3
-3
-3
-3
-3
-4
-4
-4
-4
-4
-4
-4
-4
-4
-5
-5
-5
-5
-5
-5
-5
-5
-5
-5
-5
-4
-4
-4
-4
-3
-3
-4
-3
-3
-3
-3
-3
-3
-3
-3
-2
-3
-2
-2
-2
-1
-2
-2
-1
-1
-1
-1
-1
0
0
1
1
2
2
4
4
4
5
5
5
6
6
6
6
6
7
7
8
8
9
9
10
10
11
11
13
14
14
15
16
16
16
16
17
17
17
17
17
17
16
16
16
15
14
13
12
11
9
9
7
6
4
4
2
1
0
-1
-2
-3
-4
-4
-5
-5
-5
-6
-6
-6
-6
-7
-6
-6
-6
-6
-6
-6
-6
-6
-6
-6
-6
-7
-7
-7
-8
-8
-9
-9
-10
-11
-12
-13
-13
-14
-15
-16
-16
-17
-17
-17
-18
-18
-18
-18
-18
-18
-18
-18
-17
-18
-18
-17
-18
-17
-17
-17
-17
-17
-17
-17
-17
-18
-18
-19
-19
-19
-19
-19
-19
-19
-19
-20
-20
-19
-20
-20
-21
-21
-21
-21
-21
-21
-21
-21
-22
-22
-22
-22
-22
-24
-24
-24
-24
-24
-25
-25
-25
-26
-26
-27
-27
-27
-27
-27
-27
-27
-28
-28
-28
-29
-29
-29
-29
-29
-29
-29
-28
-28
-28
-28
-29
-29
-29
-28
-28
-28
-28
-28
-28
-28
-27
-27
-27
-27
-27
-27
-27
-27
-27
-27
-27
-27
-27
-27
-27
-27
-27
-27
-27
-27
-27
-27
-27
-27
-27
-27
-27
-26
-26
-26
-26
-26
-26
-25
-26
-25
-25
-25
-24
-23
-23
-22
-21
-21
-20
-20
-18
-18
-17
-16
-15
-14
-11
-10
-8
-7
-5
-2
1
5
8
12
17
22
28
34
41
49
56
63
72
80
89
99
108
117
126
135
143
152
159
166
172
177
181
184
186
186
185
183
178
172
164
154
143
131
116
102
86
70
53
36
20
3
-13
-29
-45
-59
-72
-83
-94
-102
-110
-116
-120
-123
-125
-125
-125
-123
-120
-117
-113
-109
-104
-99
-93
-88
-83
-78
-73
-68
-63
-58
-54
-50
-47
-44
-40
-37
-35
-32
-30
-28
-27
-25
-24
-23
-22
-21
-20
-20
-19
-19
-19
-18
-17
-18
-17
-16
-16
-17
-17
-16
-16
-16
-16
-15
-15
-15
-15
-15
-15
-15
-15
-15
-16
-16
-16
-16
-15
-16
-16
-16
-16
-16
-16
-16
-16
-15
-15
-15
-15
-15
-14
-15
-15
-14
-14
-14
-14
-14
-14
-14
-14
-14
-14
-14
-14
-14
-13
-13
-14
-14
-14
-14
-14
-14
-13
-13
-13
-13
-13
-13
-13
-13
-13
-12
-13
-13
-13
-13
-13
-12
-12
-12
-12
-11
-12
-12
-11
-11
-11
-11
-10
-10
-10
-10
-10
-9
-9
-9
-9
-9
-10
-10
-10
-9
-8
-9
-9
-9
-9
-9
-9
-8
-8
-8
-8
-8
-8
-8
-8
-8
-7
-8
-7
-7
-7
-7
-7
-6
-6
-6
-5
-5
-5
-4
-4
-4
-3
-3
-3
-2
-2
-2
-2
-2
-2
-2
-2
-2
-1
-2
-1
-2
-1
-2
-1
-1
-1
-1
-1
-1
-1
-1
-1
0
0
0
0
0
0
0
0
0
0
1
1
2
2
2
2
3
3
4
4
5
4
4
6
5
5
5
6
6
6
6
6
6
6
6
7
7
7
7
8
9
9
9
9
9
9
10
10
10
11
11
12
12
12
12
12
12
12
13
13
13
13
13
14
14
14
15
14
14
14
15
15
15
16
16
16
16
16
17
17
17
16
16
16
16
16
16
15
15
16
14
14
14
14
13
13
12
11
11
12
11
11
11
11
10
11
11
10
11
10
11
11
11
11
10
10
10
10
10
9
9
9
8
8
7
7
7
7
6
6
6
5
5
5
4
4
3
3
1
1
0
0
-1
-1
-1
-3
-3
-4
-5
-5
-7
-7
-7
-9
-9
-9
-10
-11
-12
-12
-12
-13
-14
-14
-14
-16
-16
-16
-16
-17
-17
-18
-18
-18
-19
-19
-19
-19
-20
-20
-20
-21
-21
-22
-22
-21
-22
-22
-23
-23
-24
-24
-24
-25
-25
-26
-26
-26
-26
-27
-27
-27
-27
-28
-28
-28
-28
-28
-28
-28
-28
-28
-27
-27
-27
-27
-27
-27
-27
-27
-27
-27
-27
-27
-26
-26
-26
-25
-25
-25
-25
-25
-25
-24
-25
-25
-25
-25
-25
-24
-24
-24
-24
-24
-23
-23
-23
-23
-23
-23
-23
-23
-23
-23
-23
-22
-22
-22
-22
-22
-22
-22
-22
-22
-22
-22
-21
-21
-21
-20
-21
-21
-21
-21
-21
-21
-20
-20
-20
-20
-20
-19
-19
-19
-19
-18
-18
-18
-19
-19
-19
-19
-18
-19
-19
-19
-19
-19
-20
-20
-20
-19
-19
-19
-19
-18
-18
-18
-18
-17
-17
-16
-16
-16
-16
-16
-14
-14
-14
-14
-14
-14
-14
-15
-15
-15
-16
-16
-16
-17
-17
-17
-17
-18
-18
-18
-19
-19
-18
-18
-18
-18
-17
-17
-17
-16
-16
-15
-14
-14
-13
-13
-12
-12
-12
-12
-12
-13
-13
-12
-13
-13
-13
-13
-14
-14
-14
-14
-15
-15
-15
-15
-15
-16
-16
-16
-16
-16
-16
-16
-16
-16
-16
-16
-16
-16
-16
-16
-16
-16
-16
-15
-16
-16
-15
-15
-16
-15
-15
-15
-15
-15
-15
-14
-14
-13
-14
-14
-13
-13
-13
-13
-14
-14
-14
-14
-13
-14
-12
-12
-13
-13
-13
-13
-13
-12
-12
-12
-11
-11
-11
-11
-11
-10
-9
-9
-9
-9
-9
-8
-8
-8
-8
-7
-8
-7
-7
-7
-7
-8
-7
-7
-7
-9
-9
-9
-9
-9
-10
-10
-10
-11
-11
-12
-12
-11
-11
-12
-12
-12
-11
-11
-11
-11
-11
-11
-11
-11
-10
-10
-9
-8
-8
-7
-6
-6
-5
-5
-5
-4
-3
-3
-3
-3
-2
-2
-2
-1
-1
-2
-2
-2
-2
-2
-2
-2
-3
-3
-3
-3
-3
-3
-4
-4
-4
-4
-4
-5
-5
-5
-5
-5
-5
-4
-3
-3
-3
-2
-2
-2
-1
0
0
1
1
3
4
5
6
7
8
9
10
11
12
13
14
14
16
16
18
17
19
18
19
19
20
20
21
21
21
22
23
23
24
25
26
26
27
28
29
30
31
31
32
33
33
33
34
33
33
33
32
33
32
31
31
30
29
29
28
28
26
26
25
24
24
24
24
23
22
22
23
23
23
23
23
22
22
22
22
22
23
23
23
23
23
24
24
24
23
24
23
23
22
22
22
22
21
21
20
20
20
19
19
19
18
18
17
17
18
17
16
17
17
17
17
17
17
17
17
18
17
18
18
18
17
19
19
19
19
19
19
20
21
20
20
20
21
21
21
21
21
20
20
21
21
21
21
20
20
20
20
20
20
19
19
19
19
19
19
18
18
18
18
18
17
17
18
18
18
18
18
19
19
19
19
20
21
21
22
22
22
22
23
23
23
24
24
24
24
25
25
24
24
24
25
25
24
24
24
25
25
25
25
25
25
25
25
26
26
27
27
27
26
27
27
27
28
28
29
29
30
29
30
30
31
31
31
32
32
33
32
33
33
34
35
35
36
36
37
37
38
39
39
41
42
44
46
47
50
52
54
57
61
64
67
71
75
80
85
91
98
104
111
119
128
135
144
153
162
172
182
191
201
211
220
229
237
244
251
257
262
265
268
269
269
267
263
259
251
243
231
220
207
192
177
161
145
128
112
94
78
62
46
32
18
6
-5
-14
-23
-30
-35
-38
-41
-41
-42
-41
-39
-36
-33
-29
-25
-21
-15
-11
-6
-1
4
9
13
18
22
26
30
34
38
41
45
47
50
52
54
57
58
60
61
62
63
63
64
65
66
66
66
66
67
67
66
67
67
67
67
67
67
67
67
68
67
67
67
67
67
68
68
68
69
69
69
71
71
71
72
72
72
73
73
73
74
74
74
74
75
75
75
74
75
75
74
74
74
74
74
74
74
74
75
75
75
75
75
75
75
77
77
77
78
78
79
79
79
79
80
80
80
81
81
81
82
82
82
83
83
82
83
83
84
84
84
84
84
84
84
85
85
84
84
84
84
84
84
84
84
84
84
84
85
85
85
85
85
86
86
86
86
87
87
88
88
89
89
90
90
91
92
92
92
93
94
94
94
95
96
96
97
97
97
97
98
98
99
99
99
100
100
101
101
101
101
101
102
103
103
103
103
103
103
103
104
104
104
104
104
104
104
104
103
104
104
103
103
103
103
103
103
103
103
105
105
105
105
106
106
106
106
107
107
107
107
108
108
108
109
109
109
109
109
109
110
110
111
111
111
111
112
112
113
113
114
114
115
116
116
117
117
118
119
120
120
120
122
122
122
122
123
123
123
123
124
124
124
124
124
124
124
124
124
124
124
125
125
125
126
126
126
127
127
127
128
128
129
129
129
128
128
128
128
128
128
128
127
127
127
126
125
125
125
125
124
123
123
123
123
123
123
123
124
124
124
124
125
125
125
125
124
125
125
125
125
125
125
125
125
124
123
123
123
122
122
122
121
120
120
120
119
118
118
118
117
117
116
116
116
115
114
114
114
113
113
113
112
112
112
111
111
111
110
110
110
110
110
110
110
108
108
108
107
106
106
105
105
104
103
103
101
101
100
99
99
98
97
97
96
96
95
95
96
95
94
93
93
94
93
93
93
93
92
93
93
93
94
93
93
93
93
93
94
94
93
93
95
95
95
94
94
94
95
95
95
95
95
95
95
95
95
95
94
94
94
94
94
94
94
94
94
94
93
94
94
94
93
93
94
94
94
94
95
95
95
96
96
96
97
98
98
99
98
99
99
100
100
101
101
101
100
100
100
100
101
100
100
100
100
100
99
99
100
100
100
99
99
99
99
99
99
99
99
100
100
101
101
102
102
102
102
103
103
103
104
104
104
104
104
104
104
104
104
104
104
104
104
104
104
104
104
104
104
104
104
104
104
104
103
103
103
103
102
102
102
101
100
100
100
100
100
100
100
100
100
100
100
100
100
100
101
101
101
102
102
102
102
102
103
103
103
103
103
102
102
103
103
102
102
102
102
102
102
101
101
101
101
102
101
101
101
101
101
101
101
100
100
100
100
99
100
100
100
100
100
100
100
101
101
101
101
102
101
101
102
102
103
103
102
103
103
104
104
104
104
104
104
104
104
104
103
103
103
103
103
102
103
102
102
101
101
100
100
99
99
98
98
98
98
97
97
97
97
97
97
98
98
98
99
98
99
99
99
99
100
100
100
100
101
101
101
102
102
100
100
100
100
100
100
100
100
100
99
99
99
98
98
98
99
99
99
99
100
100
100
101
101
102
102
103
103
104
104
105
105
106
106
106
106
106
106
105
105
104
105
104
104
104
104
104
104
104
105
104
105
105
105
106
106
106
107
108
108
109
110
111
111
112
112
113
114
114
115
115
116
116
117
118
118
119
120
121
121
122
122
123
124
124
125
125
126
126
126
127
126
126
126
126
125
125
124
124
123
123
122
122
122
120
120
119
119
118
117
117
116
116
116
115
115
115
115
114
114
113
113
113
113
113
113
112
111
111
112
111
111
110
110
111
111
110
110
110
110
109
109
109
109
109
108
108
108
108
108
107
107
107
107
107
106
107
105
106
105
105
104
104
104
103
103
103
103
102
102
101
100
100
100
100
98
98
98
98
98
98
97
97
97
97
97
97
97
97
98
98
98
98
99
98
99
99
99
99
99
100
100
100
100
100
99
100
100
99
99
100
99
99
99
99
99
98
98
98
98
98
98
98
98
98
98
98
98
98
98
98
99
99
99
99
100
100
100
100
100
100
101
101
101
101
101
101
101
102
101
101
101
101
101
101
101
101
101
101
101
101
101
101
101
100
100
100
100
100
100
100
100
100
100
101
101
101
102
101
102
102
103
103
104
104
105
107
107
108
110
110
112
115
117
119
121
125
128
132
136
141
145
150
156
163
169
177
184
192
201
209
219
228
238
247
257
266
276
286
294
303
310
317
322
327
330
333
335
334
332
328
323
316
307
295
283
270
255
239
223
205
188
171
153
136
120
104
89
75
62
50
41
33
27
22
17
15
14
14
15
16
19
23
27
31
36
40
45
49
55
59
63
66
71
75
79
83
85
89
91
94
96
98
101
102
104
105
106
107
108
109
110
111
111
111
112
113
113
113
114
114
115
114
115
115
115
116
116
116
116
116
116
116
116
115
115
116
116
116
115
115
115
114
114
114
113
113
114
114
114
114
114
114
114
114
114
115
115
115
115
116
116
116
116
116
116
117
117
117
117
117
117
117
117
117
117
117
117
117
116
116
116
116
116
116
117
117
117
117
117
118
118
118
118
119
119
119
119
119
119
120
120
120
120
120
120
120
120
120
119
119
119
119
119
120
120
120
120
120
120
120
120
120
120
120
120
120
120
120
120
119
119
119
119
119
118
118
118
119
119
119
119
119
119
119
120
121
121
121
121
123
123
123
123
123
123
125
125
125
125
125
126
126
125
125
125
125
126
125
125
125
125
126
126
125
126
126
126
127
127
128
128
129
130
130
130
131
131
132
132
133
133
134
134
135
135
136
136
136
137
137
137
137
137
137
137
137
138
138
138
138
138
138
138
138
138
138
138
138
138
138
138
138
138
139
139
139
138
139
140
140
140
140
140
141
141
142
142
143
143
143
143
144
144
143
143
144
144
144
144
145
145
145
143
143
143
143
143
143
142
142
142
142
142
142
142
142
141
142
140
141
141
141
141
141
142
141
141
141
141
140
140
141
140
140
140
140
138
138
138
137
136
136
136
136
134
134
134
133
133
132
131
131
130
129
129
128
127
127
126
126
126
125
125
124
124
123
123
122
122
122
121
121
120
120
119
118
117
117
116
116
114
114
113
112
111
110
109
109
107
107
106
106
106
106
104
104
103
103
103
102
102
102
101
101
101
101
101
99
99
99
99
98
98
98
97
97
97
97
96
96
96
96
95
95
95
95
94
94
94
94
93
93
93
92
93
93
92
92
92
92
91
92
92
92
92
91
92
92
92
92
91
92
92
92
91
91
91
91
91
91
91
91
91
91
91
92
92
92
92
92
92
92
92
92
92
92
92
93
92
92
93
92
93
93
93
93
93
93
93
92
92
93
93
93
93
93
93
93
93
94
94
94
94
94
94
94
94
94
94
93
93
93
93
93
93
93
93
92
92
92
93
93
93
93
93
93
94
94
94
94
95
95
94
94
94
95
95
95
95
95
95
94
94
94
94
92
92
92
92
91
91
91
90
90
90
90
89
89
89
88
89
89
90
89
89
90
90
91
90
90
90
90
91
90
90
90
90
90
90
89
89
88
89
88
88
87
87
87
87
86
86
85
86
86
85
85
85
85
85
85
85
85
85
85
85
85
85
85
85
85
86
85
86
86
85
85
85
85
86
86
86
86
86
86
85
85
85
85
85
85
85
85
85
85
84
84
84
84
84
84
83
83
83
83
83
82
82
82
82
82
82
81
80
80
80
80
81
80
80
80
80
80
80
80
81
80
80
80
80
81
81
81
81
81
81
81
81
81
81
81
81
82
81
81
81
81
81
81
80
80
79
79
79
79
78
78
77
77
76
76
75
75
75
74
74
74
74
74
74
74
74
75
76
76
76
76
77
77
77
77
78
79
79
79
79
79
79
80
80
80
80
81
81
81
82
82
82
83
84
84
84
85
86
86
87
87
88
89
89
89
91
91
91
92
93
93
93
94
94
94
95
95
95
97
97
97
98
99
99
99
99
99
99
99
100
99
99
99
98
98
98
97
96
96
95
95
93
92
91
89
89
88
86
86
85
84
83
83
83
81
81
80
80
80
79
79
78
79
78
78
78
78
79
78
78
78
78
77
77
77
77
75
75
75
75
74
74
73
73
73
73
72
72
72
71
70
70
69
69
69
68
69
69
68
68
68
68
67
68
67
68
68
68
67
68
67
67
67
67
66
66
66
66
66
66
65
65
65
66
65
65
65
65
64
64
64
64
63
64
63
63
62
62
62
62
61
61
61
61
60
61
60
61
61
60
61
61
61
61
61
61
61
61
61
61
61
61
61
61
62
62
62
62
61
62
61
61
61
61
61
61
61
61
61
61
60
60
60
60
60
60
60
60
60
60
59
59
59
59
59
59
59
59
58
58
58
58
58
58
58
58
58
58
57
57
57
58
57
58
58
58
59
58
59
60
60
61
62
63
64
66
68
69
71
73
75
78
80
83
86
90
94
99
104
108
114
119
126
133
140
148
156
164
172
182
191
201
211
219
229
239
247
256
263
270
276
281
285
288
290
290
288
284
280
274
264
255
242
228
214
199
182
165
148
131
113
95
78
62
46
31
18
6
-4
-14
-20
-25
-30
-33
-34
-35
-34
-31
-29
-26
-22
-18
-13
-8
-4
1
5
10
15
20
24
28
32
35
39
43
46
48
51
52
55
57
58
59
60
61
62
63
64
65
64
65
64
65
65
65
65
64
65
65
64
64
64
64
65
64
64
64
64
64
64
65
65
65
66
65
66
67
67
68
68
68
68
68
69
69
69
69
68
68
68
68
67
67
67
68
67
67
66
66
66
65
65
65
64
64
64
64
64
64
64
63
63
63
64
64
64
64
64
65
65
65
65
66
66
66
67
67
67
68
68
69
69
69
69
70
70
70
70
71
70
70
70
69
69
69
69
69
68
68
68
68
68
67
67
67
67
67
66
66
67
67
67
67
67
67
68
68
68
68
69
69
69
69
70
70
70
70
70
70
71
71
71
71
71
71
71
71
71
71
71
70
71
71
71
71
70
71
70
70
70
70
70
70
71
70
70
70
70
70
72
72
72
72
72
72
73
74
74
74
74
75
75
75
76
76
76
77
77
77
77
78
78
78
78
79
79
78
78
78
78
78
79
80
80
80
80
80
81
81
82
82
83
83
84
84
85
85
85
86
86
87
87
87
87
88
88
89
89
89
89
89
89
90
90
90
90
90
90
90
91
91
91
91
91
91
91
91
91
90
90
90
90
89
89
89
88
88
88
88
87
87
86
85
85
85
85
85
84
84
84
84
84
84
84
84
84
84
84
84
84
84
84
84
84
83
83
84
83
83
83
82
82
82
82
81
80
80
79
79
79
77
77
76
75
75
73
73
71
71
70
69
68
68
67
67
66
65
64
65
63
63
63
62
62
61
61
60
60
60
59
59
58
58
58
56
56
56
54
54
54
52
51
51
50
49
49
48
47
46
46
44
44
43
42
42
41
41
40
39
39
39
38
38
37
36
36
36
36
36
35
35
35
35
35
36
36
36
37
36
36
36
36
36
36
36
36
36
36
36
36
36
35
35
35
36
35
35
35
35
35
34
34
34
33
33
33
33
33
33
32
32
32
32
32
32
32
33
33
33
33
34
34
34
34
34
35
36
36
36
36
36
36
38
38
38
38
38
38
37
37
38
38
38
37
37
37
36
36
36
36
36
35
35
35
35
35
35
35
34
34
34
35
34
35
35
35
35
35
35
35
36
35
35
35
36
36
36
35
36
36
36
36
36
35
35
35
35
35
35
35
35
35
35
34
34
34
34
33
33
34
34
34
33
32
32
32
32
32
32
33
33
33
33
33
33
33
32
33
32
33
33
32
32
32
32
32
32
31
31
31
29
29
29
28
28
28
27
27
26
26
25
25
25
25
24
24
23
23
23
23
23
23
23
23
23
23
23
23
23
24
24
24
24
24
24
25
25
25
25
25
25
26
26
26
25
25
25
24
25
25
25
24
24
24
23
24
24
23
23
23
23
24
23
23
23
23
24
24
24
24
24
25
25
24
24
24
24
24
24
24
24
24
24
22
22
22
22
22
21
22
21
21
21
21
20
20
20
19
19
19
19
19
19
19
19
19
19
19
18
18
18
19
19
19
19
19
19
19
19
19
20
21
21
21
21
21
21
21
21
21
21
21
21
21
21
21
21
21
20
20
19
19
19
19
19
19
18
17
17
17
17
17
17
17
17
17
17
17
17
18
18
18
19
19
19
19
19
19
19
19
19
19
19
18
17
17
17
16
16
16
16
15
15
15
14
14
14
14
14
15
14
14
16
16
16
16
16
17
17
17
17
17
18
18
18
18
18
18
18
18
18
18
17
17
17
17
17
17
17
17
18
18
18
18
18
18
18
18
18
17
17
17
17
17
17
17
16
16
16
15
15
15
16
16
16
15
15
15
15
15
16
16
16
16
17
16
17
16
17
17
17
17
17
19
19
19
20
20
20
21
22
22
23
23
23
24
24
25
25
26
26
26
27
28
28
29
30
30
31
32
32
32
33
33
33
33
33
34
34
33
33
33
32
32
31
31
30
29
28
27
27
26
24
23
22
22
21
21
19
19
18
18
16
16
15
14
14
13
13
12
12
11
11
11
10
10
9
9
8
9
8
8
7
7
6
6
6
5
5
4
4
3
3
2
2
1
1
0
0
0
-1
-1
0
-1
-1
-2
-1
-1
-1
-2
-1
-1
-1
-1
-1
-1
-1
-1
-1
-1
-1
-2
-2
-2
-2
-3
-3
-4
-4
-4
-5
-5
-5
-6
-6
-5
-5
-5
-6
-6
-6
-6
-6
-7
-7
-7
-7
-7
-7
-8
-7
-7
-8
-8
-8
-8
-8
-9
-8
-8
-8
-8
-8
-8
-8
-8
-8
-8
-8
-7
-7
-8
-8
-8
-8
-10
-10
-10
-10
-11
-11
-11
-11
-12
-12
-12
-12
-12
-14
-14
-14
-14
-14
-14
-14
-13
-13
-13
-13
-13
-13
-13
-13
-12
-12
-12
-12
-12
-12
-12
-12
-12
-12
-12
-12
-12
-12
-11
-11
-12
-11
-12
-11
-12
-11
-10
-10
-10
-9
-8
-7
-6
-5
-5
-3
-2
-1
2
4
6
9
11
14
17
21
25
29
34
40
46
53
59
66
74
82
91
99
108
116
126
134
144
153
161
169
176
183
190
194
199
202
204
205
203
201
197
192
184
175
164
152
138
124
109
93
76
60
43
26
10
-7
-22
-36
-50
-62
-72
-81
-90
-97
-101
-105
-106
-108
-108
-107
-104
-101
-98
-94
-90
-84
-80
-75
-70
-64
-59
-55
-50
-45
-42
-38
-34
-31
-27
-24
-21
-19
-16
-15
-13
-11
-10
-9
-8
-7
-6
-5
-5
-4
-4
-3
-3
-3
-2
-3
-2
-2
-1
-2
-2
-2
-2
-2
-2
-2
-3
-3
-3
-3
-3
-3
-3
-5
-4
-4
-4
-4
-4
-4
-4
-4
-4
-4
-4
-4
-3
-3
-2
-2
-2
-2
-1
-1
-1
-1
0
-1
-1
-1
-1
-2
-2
-1
-1
-1
-1
-2
-2
-2
-2
-2
-2
-2
-2
-2
-2
-1
-1
-1
-1
-1
-1
-1
-1
-1
0
0
0
0
-1
-1
-1
0
0
0
0
0
0
0
0
0
0
1
1
1
0
0
0
0
0
1
1
1
1
1
1
1
1
1
1
2
3
3
4
4
5
5
6
6
7
7
7
7
7
7
7
8
7
8
8
8
7
7
7
7
6
5
5
5
5
5
5
4
5
5
6
6
6
7
7
7
8
9
9
9
10
11
12
13
13
13
14
15
15
16
16
17
17
17
17
17
17
16
16
16
17
17
17
17
17
17
16
16
16
15
15
15
16
16
16
16
16
16
16
17
17
18
18
18
18
19
20
19
20
20
20
20
20
21
22
22
22
22
22
22
22
22
22
23
23
23
23
23
23
23
23
23
23
24
24
24
24
24
24
23
23
23
23
23
23
24
24
24
24
24
24
24
25
24
24
24
24
25
25
24
24
24
25
25
25
25
25
25
25
25
25
25
25
25
25
24
24
24
24
24
24
23
22
21
21
21
20
20
20
19
19
19
18
18
17
17
17
17
17
16
17
16
16
15
16
15
15
15
15
15
14
14
14
13
13
13
12
12
11
10
10
9
9
7
7
7
5
5
3
3
1
1
0
-1
-2
-2
-3
-5
-5
-6
-6
-7
-8
-9
-9
-9
-9
-10
-10
-10
-11
-11
-12
-12
-12
-12
-13
-13
-13
-13
-13
-15
-15
-15
-15
-16
-16
-17
-18
-18
-18
-19
-20
-20
-20
-21
-21
-21
-22
-22
-23
-23
-23
-23
-23
-23
-23
-23
-23
-23
-23
-23
-22
-22
-22
-21
-21
-21
-21
-21
-21
-20
-20
-20
-20
-20
-19
-19
-19
-19
-19
-18
-18
-18
-17
-17
-16
-16
-16
-15
-15
-15
-14
-14
-14
-14
-14
-14
-14
-14
-15
-15
-15
-15
-16
-17
-17
-17
-18
-18
-19
-19
-19
-20
-20
-20
-20
-20
-21
-21
-21
-21
-20
-19
-19
-19
-19
-19
-18
-18
-18
-18
-19
-19
-19
-19
-19
-19
-18
-18
-19
-19
-19
-19
-19
-20
-20
-20
-20
-20
-20
-20
-20
-20
-20
-20
-20
-20
-21
-21
-21
-21
-20
-20
-20
-20
-20
-20
-20
-20
-20
-20
-20
-20
-20
-20
-20
-20
-19
-19
-19
-19
-19
-19
-19
-19
-19
-20
-19
-19
-19
-19
-19
-19
-19
-18
-18
-19
-19
-19
-19
-19
-20
-20
-20
-21
-21
-21
-22
-22
-24
-24
-24
-24
-24
-24
-25
-25
-25
-24
-24
-23
-23
-22
-22
-21
-20
-19
-19
-18
-18
-17
-17
-16
-15
-14
-14
-13
-13
-12
-11
-11
-11
-10
-9
-9
-8
-8
-8
-8
-7
-7
-7
-6
-6
-6
-6
-5
-3
-3
-2
-2
-2
-2
-2
-1
0
0
0
0
1
0
0
0
-1
-1
-1
-2
-3
-3
-5
-5
-7
-7
-9
-10
-10
-12
-12
-14
-14
-15
-16
-16
-17
-17
-18
-18
-18
-18
-19
-18
-19
-18
-19
-19
-20
-19
-19
-20
-20
-20
-20
-20
-21
-22
-22
-23
-23
-24
-24
-25
-25
-26
-27
-28
-28
-28
-29
-30
-29
-30
-31
-32
-31
-32
-33
-33
-33
-33
-34
-34
-33
-33
-33
-34
-32
-33
-33
-33
-33
-33
-32
-33
-33
-33
-33
-33
-34
-34
-33
-33
-33
-33
-33
-33
-34
-34
-34
-33
-33
-33
-33
-32
-34
-34
-34
-34
-34
-34
-34
-34
-34
-35
-35
-35
-35
-35
-36
-36
-37
-37
-37
-37
-37
-37
-36
-36
-36
-36
-36
-35
-36
-35
-35
-35
-34
-34
-33
-33
-33
-33
-32
-31
-31
-31
-31
-31
-30
-30
-30
-30
-31
-30
-30
-31
-31
-31
-32
-32
-34
-34
-34
-35
-36
-36
-37
-37
-37
-38
-39
-38
-40
-39
-39
-39
-39
-39
-39
-38
-38
-37
-37
-37
-37
-35
-35
-34
-34
-33
-33
-32
-32
-31
-30
-29
-28
-27
-25
-25
-23
-22
-20
-19
-18
-16
-14
-12
-9
-7
-4
0
3
7
11
17
21
27
33
40
47
54
62
70
79
88
97
107
116
125
135
143
152
159
166
172
178
182
186
188
189
188
187
182
177
170
161
150
138
124
109
94
79
62
46
30
13
-4
-20
-35
-49
-61
-73
-84
-94
-101
-107
-113
-115
-118
-118
-118
-117
-114
-113
-109
-106
-102
-97
-93
-87
-83
-78
-73
-70
-65
-60
-57
-53
-50
-46
-42
-40
-36
-34
-32
-30
-27
-25
-24
-24
-22
-22
-21
-20
-19
-20
-19
-20
-19
-18
-19
-18
-19
-18
-18
-18
-18
-17
-17
-16
-16
-16
-16
-15
-15
-14
-14
-14
-14
-14
-14
-14
-14
-14
-15
-15
-16
-16
-17
-17
-18
-18
-18
-18
-19
-19
-19
-19
-19
-18
-18
-17
-17
-17
-15
-15
-14
-13
-12
-12
-11
-10
-10
-9
-9
-9
-8
-8
-8
-9
-9
-8
-9
-9
-9
-9
-9
-10
-10
-10
-10
-10
-10
-11
-11
-10
-10
-10
-10
-10
-10
-10
-10
-10
-9
-9
-9
-9
-9
-9
-9
-9
-9
-9
-9
-9
-8
-9
-8
-8
-8
-8
-8
-8
-8
-8
-8
-8
-8
-7
-7
-7
-7
-7
-6
-6
-6
-5
-5
-5
-4
-4
-4
-4
-4
-3
-3
-3
-3
-2
-3
-2
-2
-3
-2
-2
-1
-2
-1
-1
-2
-1
-1
0
0
0
0
1
1
1
2
2
3
3
4
5
5
6
6
7
7
7
8
8
8
8
9
9
10
10
11
11
12
12
12
12
13
13
13
13
13
13
14
13
13
14
13
13
13
13
13
13
13
13
13
13
14
14
15
15
16
16
16
17
17
17
18
19
19
20
20
20
20
21
21
21
22
22
22
21
21
21
21
20
20
20
20
20
20
20
19
19
20
20
20
19
19
20
20
20
20
20
20
20
20
20
20
20
20
20
20
20
20
20
20
19
19
19
18
19
19
18
18
17
17
17
17
17
17
16
16
16
15
14
14
14
14
14
13
13
12
12
12
12
12
12
10
10
10
10
9
9
8
8
7
7
6
6
5
4
4
4
2
1
1
-1
0
-1
-2
-3
-3
-4
-5
-5
-6
-6
-7
-7
-9
-9
-9
-10
-10
-11
-12
-12
-13
-13
-14
-14
-15
-15
-16
-16
-17
-17
-18
-18
-19
-19
-19
-20
-19
-19
-20
-20
-20
-20
-22
-22
-22
-22
-23
-23
-23
-24
-24
-24
-26
-25
-25
-25
-25
-25
-25
-25
-25
-25
-25
-24
-24
-24
-24
-25
-24
-24
-24
-23
-23
-23
-23
-23
-23
-23
-23
-23
-23
-23
-23
-23
-23
-23
-23
-23
-23
-23
-23
-23
-23
-23
-22
-22
-23
-23
-23
-22
-22
-22
-22
-22
-22
-21
-20
-20
-20
-20
-20
-19
-20
-20
-19
-19
-19
-18
-18
-18
-17
-17
-17
-17
-17
-17
-16
-17
-16
-16
-16
-16
-17
-17
-17
-17
-17
-17
-17
-17
-17
-17
-18
-18
-18
-18
-18
-19
-19
-19
-19
-19
-19
-19
-19
-19
-19
-19
-20
-20
-20
-20
-20
-21
-21
-21
-20
-20
-20
-20
-20
-20
-20
-20
-20
-20
-19
-19
-19
-19
-19
-18
-18
-18
-18
-18
-18
-18
-18
-18
-18
-18
-18
-18
-18
-18
-19
-19
-18
-18
-18
-19
-19
-19
-19
-20
-19
-19
-19
-19
-19
-20
-20
-20
-20
-20
-20
-20
-20
-20
-20
-20
-20
-20
-20
-20
-20
-20
-20
-20
-20
-19
-20
-20
-19
-19
-20
-20
-20
-20
-19
-20
-20
-20
-19
-19
-19
-19
-19
-19
-19
-19
-19
-19
-20
-20
-20
-20
-20
-21
-21
-21
-21
-21
-22
-22
-23
-23
-23
-22
-23
-23
-23
-23
-23
-22
-23
-23
-23
-23
-22
-22
-22
-22
-21
-21
-21
-21
-21
-21
-20
-20
-20
-20
-19
-19
-18
-18
-18
-17
-17
-17
-16
-15
-15
-15
-14
-13
-13
-12
-11
-11
-10
-9
-9
-9
-7
-7
-7
-6
-5
-5
-4
-4
-4
-2
-2
-1
0
0
0
0
2
2
2
3
3
4
4
5
5
5
5
5
6
5
6
5
4
4
4
3
3
2
2
1
0
0
-2
-2
-3
-3
-3
-4
-5
-5
-5
-5
-5
-6
-6
-6
-6
-7
-7
-7
-7
-7
-7
-7
-7
-8
-7
-7
-8
-8
-9
-9
-9
-9
-9
-9
-9
-11
-11
-11
-11
-11
-11
-11
-12
-12
-11
-12
-12
-12
-12
-13
-12
-12
-12
-12
-13
-13
-12
-13
-13
-13
-13
-13
-14
-13
-14
-14
-15
-15
-15
-16
-16
-16
-16
-17
-17
-17
-17
-16
-16
-16
-16
-16
-16
-16
-16
-15
-15
-15
-16
-15
-15
-15
-15
-15
-15
-14
-14
-15
-14
-15
-14
-14
-14
-15
-14
-14
-14
-14
-13
-13
-13
-13
-12
-12
-12
-12
-13
-12
-12
-12
-12
-12
-12
-12
-12
-11
-11
-10
-10
-10
-10
-11
-10
-10
-10
-9
-9
-9
-9
-8
-8
-8
-8
-8
-9
-9
-9
-9
-9
-9
-9
-9
-9
-9
-9
-9
-9
-9
-9
-8
-8
-8
-8
-8
-8
-7
-6
-6
-5
-5
-5
-5
-5
-4
-5
-4
-4
-4
-3
-3
-3
-3
-2
-1
-1
1
2
3
5
8
10
12
15
19
22
27
31
38
43
49
55
62
70
78
87
95
104
113
123
132
141
151
160
170
179
188
195
203
210
216
220
224
227
228
227
226
223
218
211
203
193
182
168
155
139
123
107
91
74
57
40
25
9
-7
-21
-33
-44
-54
-63
-70
-76
-79
-83
-83
-84
-83
-82
-79
-76
-72
-69
-65
-60
-55
-50
-45
-40
-36
-31
-27
-23
-19
-16
-12
-9
-5
-2
-1
2
5
6
8
9
11
12
13
15
15
16
17
17
18
18
18
18
19
19
19
19
20
20
20
20
20
21
21
21
21
21
21
20
20
22
21
21
21
21
21
20
20
20
20
19
20
20
20
20
20
20
20
20
20
20
20
20
19
20
21
21
21
21
21
22
22
22
22
23
23
24
25
25
25
26
26
25
26
26
27
26
26
26
26
26
26
25
25
25
25
25
26
26
26
27
27
27
27
28
28
29
29
30
31
31
32
32
32
33
33
34
34
34
34
35
34
34
34
35
35
35
35
36
35
35
35
35
35
34
35
36
36
36
36
36
36
36
36
