# Simple Text Format
# Sampling Rate (Hz):= 1200.00
# Resolution:= 12
# Labels:= ECG	 I 
# Age:=	64
# Gender:=	Masculino
79
79
79
79
78
78
78
78
78
77
76
76
76
76
76
77
77
76
76
75
75
75
74
74
74
73
73
73
72
73
73
73
74
74
75
75
75
76
75
75
77
77
77
78
78
77
78
77
77
76
76
75
74
74
73
73
73
72
71
70
69
68
68
67
66
66
66
65
65
65
64
65
65
65
66
67
68
69
69
70
71
72
73
75
76
77
78
78
80
80
80
80
79
79
79
78
77
76
75
74
73
72
71
70
70
68
67
66
66
66
66
66
67
67
68
69
69
71
74
76
80
83
87
91
96
102
107
113
120
127
135
142
151
160
169
179
188
198
208
217
226
234
242
250
257
262
267
271
273
275
275
274
272
268
263
258
252
244
236
227
218
209
199
189
179
170
161
151
143
135
128
121
115
109
104
99
95
92
88
85
83
81
79
78
75
75
73
72
71
70
70
69
69
69
68
68
68
68
67
67
66
66
66
67
66
66
65
65
65
65
64
64
63
63
63
63
62
62
61
61
60
61
61
61
60
60
61
60
60
62
62
62
62
62
63
63
64
65
66
67
68
69
70
71
71
72
72
73
74
74
76
76
75
75
75
74
75
74
74
74
74
74
74
73
73
73
72
73
73
73
73
72
72
73
73
72
72
72
72
72
71
71
71
70
70
69
68
68
68
67
67
67
66
66
66
66
66
66
67
66
66
66
68
68
68
68
69
69
69
69
69
68
68
68
68
67
67
67
66
64
63
62
62
61
60
59
59
59
60
61
61
62
62
63
64
65
66
67
68
71
72
73
74
75
76
77
78
78
78
79
79
79
78
78
78
78
78
77
77
77
77
77
77
76
75
76
75
74
75
74
74
74
73
73
73
73
72
73
73
73
73
74
73
73
74
74
74
75
75
75
75
75
75
76
76
76
76
76
76
77
77
77
78
79
79
79
80
81
81
82
83
83
84
84
85
86
86
85
86
85
85
84
85
84
83
83
82
82
82
81
82
83
84
84
84
85
85
86
86
87
89
90
91
92
94
95
96
97
98
98
99
98
98
98
98
98
98
98
98
99
98
99
98
99
98
98
98
99
100
100
101
100
101
101
101
101
100
100
100
100
101
101
99
99
97
97
96
94
93
92
92
91
90
89
88
88
87
87
87
87
87
86
86
86
86
85
84
84
84
84
83
83
83
82
81
81
80
78
77
77
76
76
75
74
74
73
73
73
73
73
73
73
73
73
73
74
73
73
73
72
71
71
69
69
68
67
66
65
64
63
62
60
60
59
59
57
57
56
56
56
56
56
57
57
58
59
59
59
60
61
62
62
63
64
64
65
65
65
65
65
64
64
63
62
61
61
60
60
59
59
58
58
57
57
58
58
58
58
58
58
58
60
60
60
60
61
62
62
62
62
63
62
62
62
62
61
62
62
61
60
60
60
60
59
59
59
59
59
59
59
59
58
58
59
59
58
58
59
59
59
59
59
59
59
59
59
59
59
59
58
58
58
57
57
57
57
57
56
56
55
55
55
55
55
55
54
54
54
54
53
53
53
54
54
54
54
54
54
53
53
54
54
54
55
55
56
57
57
57
59
59
60
60
61
61
62
61
62
62
63
63
64
64
64
64
64
64
64
64
63
63
62
62
61
60
60
58
57
56
55
55
53
52
51
50
49
47
46
46
46
45
45
45
45
45
45
46
46
47
48
48
49
50
52
53
55
56
57
58
59
59
60
59
60
60
59
59
58
57
57
56
56
55
55
54
53
52
52
51
50
50
49
49
48
48
47
47
48
48
49
49
50
51
51
51
52
52
52
52
52
53
53
53
53
54
55
55
55
55
55
55
56
56
54
54
54
55
55
55
56
56
56
56
55
55
54
54
54
54
54
54
53
53
53
53
53
52
52
51
51
51
50
50
50
51
52
52
52
52
53
53
54
55
56
56
56
57
58
60
60
60
60
60
59
59
59
59
57
57
57
56
56
55
55
54
54
54
54
55
54
55
56
56
57
57
57
58
58
58
58
58
58
58
57
57
57
56
56
55
56
55
55
56
56
57
58
59
60
61
63
65
65
67
68
69
70
71
71
73
73
74
74
74
74
74
74
73
72
71
70
69
69
68
69
68
67
67
66
66
66
65
64
64
64
64
63
63
63
63
62
62
61
61
60
60
59
58
58
58
57
57
55
55
55
54
54
53
52
51
50
50
49
49
48
48
48
48
46
46
46
46
44
44
44
44
43
43
42
42
43
42
42
43
43
42
42
42
42
42
43
42
43
43
44
44
45
45
45
45
44
44
44
44
44
45
45
45
45
45
45
45
45
45
45
45
45
46
46
46
47
47
47
48
48
48
48
48
48
48
48
48
47
47
46
46
46
45
45
45
45
45
45
46
46
46
47
47
47
46
46
46
45
45
44
44
44
43
43
42
41
41
40
39
40
39
39
38
38
38
38
38
38
38
38
39
39
40
40
40
40
41
40
41
40
40
39
39
39
40
41
41
41
42
45
47
50
53
56
59
62
65
69
72
76
82
88
95
101
109
117
124
133
141
150
159
168
177
186
195
204
212
221
228
234
239
245
249
251
253
253
251
248
244
239
233
226
217
209
199
190
180
170
161
152
142
133
124
116
108
101
94
88
83
78
73
69
65
61
58
55
53
50
48
48
46
45
44
43
42
41
40
40
40
40
41
41
41
41
41
42
42
43
43
44
45
43
43
44
43
43
43
42
41
41
41
42
42
43
42
44
44
44
44
44
45
45
46
46
46
47
47
48
48
49
49
48
48
48
47
47
46
46
45
44
44
43
43
42
42
41
41
42
42
42
42
42
42
43
44
45
45
46
46
47
48
47
48
50
51
52
52
53
53
53
53
52
52
51
51
50
50
49
49
48
47
46
45
44
44
43
43
42
43
42
43
43
45
45
45
46
46
46
48
49
49
49
49
49
48
48
46
46
45
45
44
43
42
42
42
41
41
42
43
44
44
45
46
48
49
50
52
53
55
56
57
58
59
60
62
62
62
62
62
61
62
61
62
61
61
61
61
60
60
60
60
60
59
58
58
57
57
57
57
57
57
58
58
58
59
59
59
59
59
60
60
61
61
62
62
63
63
64
64
64
64
65
65
64
64
64
65
65
65
65
65
66
66
66
66
66
66
67
67
67
67
69
69
69
70
70
70
71
71
71
71
71
71
70
70
70
70
69
69
70
70
69
71
71
72
72
73
73
75
75
77
78
79
80
81
83
83
85
85
87
87
87
87
86
86
86
86
86
86
86
86
87
87
87
87
87
87
87
87
88
89
89
90
90
90
92
92
92
93
93
93
93
93
92
93
92
93
92
93
92
91
91
90
90
90
89
88
87
87
85
85
84
84
83
82
81
81
80
79
79
77
77
77
77
76
76
75
75
74
74
72
72
72
71
70
70
70
69
69
69
68
68
68
69
69
68
68
68
68
67
67
68
68
68
68
68
68
68
68
67
67
67
66
66
66
65
64
64
64
64
64
63
63
62
63
62
63
62
62
62
62
61
61
60
60
60
59
60
60
59
59
58
57
58
57
56
55
55
55
55
55
56
55
56
55
55
55
56
56
56
56
56
57
57
57
57
58
58
58
58
58
57
57
57
56
56
56
56
56
55
55
55
55
55
55
55
56
56
56
56
56
56
56
56
56
56
56
55
55
55
54
55
55
55
55
55
55
55
55
55
55
55
55
56
57
57
57
59
59
60
61
62
62
62
62
63
63
63
64
64
64
64
62
62
61
62
61
61
60
60
59
59
58
58
57
57
57
57
58
58
58
58
59
59
60
61
61
62
62
63
63
65
65
65
66
66
67
68
68
68
68
68
68
68
68
68
68
69
69
69
69
69
68
68
68
68
68
68
67
67
67
66
66
66
65
64
64
63
64
63
64
63
63
63
62
63
62
62
62
61
62
61
60
60
60
59
59
59
59
59
60
59
59
58
59
59
59
60
59
60
61
62
62
62
63
63
64
64
65
66
66
66
66
65
65
65
65
64
64
63
62
62
61
60
60
59
58
58
58
58
58
56
56
56
56
55
54
54
54
55
55
56
57
58
59
60
60
60
61
62
63
64
66
67
69
69
70
71
72
72
73
73
74
74
74
74
74
74
74
74
72
72
72
71
71
70
70
69
68
68
67
67
66
66
65
65
65
64
64
64
64
64
64
65
65
66
66
66
67
68
69
71
72
72
74
74
75
76
76
78
78
78
78
79
79
78
79
79
79
78
78
78
78
78
77
76
76
76
75
74
74
75
75
74
74
74
74
75
76
77
77
78
78
78
79
80
81
81
83
84
85
86
87
87
87
87
88
89
89
89
89
89
90
89
90
90
90
90
89
89
89
89
89
89
88
87
87
87
86
86
86
85
84
84
82
82
81
81
80
80
80
79
79
78
78
77
77
77
75
75
75
74
74
74
73
74
73
73
72
72
72
71
71
71
70
69
69
69
68
68
68
66
66
66
67
66
66
65
65
65
64
64
65
65
64
65
64
65
65
65
65
66
68
69
69
70
71
71
71
72
72
71
71
71
70
70
69
69
69
67
67
67
66
65
65
64
63
63
63
63
63
63
64
64
65
66
67
68
69
69
70
71
71
72
73
74
75
75
75
75
76
76
75
75
75
74
74
73
72
71
70
70
69
68
67
66
65
64
64
64
64
64
65
65
65
65
66
67
67
68
69
70
71
71
71
72
72
72
72
72
72
72
72
72
72
73
74
76
78
79
81
83
86
90
95
100
107
113
120
126
135
143
151
159
169
178
188
198
208
218
227
237
246
253
261
267
272
277
280
283
284
283
281
279
275
270
264
258
250
241
233
224
214
203
194
183
173
163
154
144
136
128
121
115
109
104
99
95
91
88
84
83
81
80
80
79
79
79
79
79
80
80
81
82
82
83
84
84
85
83
84
83
84
84
84
85
84
85
85
84
84
83
83
82
81
82
81
80
80
79
79
79
78
78
77
78
77
76
77
76
77
76
75
75
75
75
75
75
75
76
75
75
75
75
75
75
75
75
75
74
74
74
75
76
76
77
78
79
81
82
84
86
88
89
91
92
94
95
96
97
98
98
99
98
98
97
96
94
93
91
90
88
87
85
83
82
80
80
79
79
78
78
79
79
79
80
80
81
82
83
84
85
86
88
88
87
88
88
88
88
88
88
89
88
89
88
89
89
88
89
89
89
90
90
90
91
91
92
92
93
93
94
94
94
94
94
94
94
93
92
92
91
91
90
89
88
87
86
86
85
85
85
84
85
85
86
86
87
88
90
91
92
94
95
96
97
98
99
101
101
102
103
103
104
105
105
106
106
106
106
106
106
106
106
106
106
106
106
105
106
105
106
105
105
105
104
104
103
104
104
103
104
104
104
104
104
104
105
105
105
105
105
107
107
107
108
108
109
110
111
112
113
114
114
115
117
117
118
118
119
119
119
120
119
119
119
119
119
119
118
118
117
118
118
117
117
116
117
117
118
118
119
119
119
120
120
122
123
124
124
125
127
127
127
127
128
128
129
130
130
131
131
131
131
131
130
130
129
129
127
127
126
126
125
125
123
123
123
122
122
122
120
120
120
121
120
120
120
119
120
120
121
121
120
120
120
119
119
118
118
119
119
119
118
118
117
117
116
116
116
115
114
114
113
112
112
111
110
109
109
107
106
106
105
104
103
103
103
102
102
102
102
102
102
102
102
103
103
103
103
102
103
102
102
102
102
102
101
101
102
101
101
101
100
100
100
100
100
100
100
100
100
100
100
100
100
99
98
98
97
96
96
96
95
95
95
93
93
93
93
92
92
92
92
92
92
92
92
92
92
93
93
94
94
94
96
96
96
97
97
98
98
98
98
98
99
100
100
101
101
101
101
101
101
101
100
100
101
101
101
101
101
100
100
100
100
100
99
99
99
99
98
98
98
98
98
97
97
96
94
93
92
92
91
89
89
89
89
90
90
90
91
92
93
93
94
95
98
99
100
102
103
104
105
106
107
109
109
109
110
110
109
109
109
107
107
106
105
104
104
103
102
102
101
100
99
98
97
96
95
94
93
92
91
91
90
91
90
90
90
91
92
92
94
94
95
96
97
98
99
100
100
101
102
102
102
103
103
102
102
101
102
101
101
101
100
100
100
100
99
99
99
99
99
99
100
100
100
100
99
99
99
99
98
98
98
97
96
96
95
95
95
94
94
94
94
94
94
95
95
96
96
97
97
98
98
99
99
99
99
99
99
100
100
100
100
99
99
99
99
99
99
99
99
99
99
99
100
100
100
100
101
101
101
101
101
101
100
100
99
98
98
97
96
95
95
95
95
94
94
94
94
94
94
94
95
96
96
97
97
98
98
99
99
100
101
101
101
102
101
101
101
100
100
101
100
100
101
100
99
99
98
99
99
99
99
99
99
99
99
99
99
100
100
101
102
103
104
106
105
106
107
108
108
109
110
110
111
111
112
112
112
112
112
112
112
112
111
111
112
111
111
111
112
111
111
110
111
110
110
109
109
110
110
109
110
109
109
109
109
109
109
109
109
108
108
109
110
111
111
112
112
113
113
113
113
114
113
114
115
115
116
115
115
115
115
115
115
114
114
113
113
112
111
110
109
109
109
108
107
108
107
107
106
107
106
106
106
107
106
106
107
107
108
108
108
108
108
108
109
109
110
110
109
110
109
108
108
107
106
105
105
104
102
102
101
100
99
99
98
98
97
97
96
96
96
96
96
96
96
97
97
97
97
97
97
97
96
96
96
95
95
94
94
94
94
95
95
94
94
94
94
95
96
97
98
98
99
99
99
100
101
101
102
102
103
103
102
102
102
102
103
103
103
103
102
102
102
102
101
100
100
99
99
98
96
96
95
94
93
92
91
91
90
90
90
90
90
91
91
92
93
94
95
96
98
99
100
101
102
103
104
105
106
106
107
107
106
106
105
104
103
103
102
100
99
98
97
96
95
94
94
94
95
94
96
96
98
100
103
106
109
113
117
122
127
132
137
143
150
156
163
170
178
185
193
201
209
217
225
232
239
247
254
260
267
273
278
281
284
286
287
286
286
284
281
276
270
264
258
251
243
234
225
215
207
197
187
179
170
162
155
147
140
134
129
124
120
117
114
112
110
108
107
106
105
104
104
103
103
104
104
105
107
108
108
109
108
109
109
108
109
108
108
108
107
107
107
106
106
105
104
103
102
101
100
99
98
98
98
98
97
97
97
97
98
98
98
98
99
99
99
101
101
102
102
102
101
101
101
101
102
102
103
103
104
104
104
104
104
104
104
104
104
104
104
104
104
104
105
104
105
105
105
104
104
104
104
104
103
102
103
102
102
102
102
102
102
103
103
104
104
104
105
104
104
105
105
105
104
104
105
105
105
105
105
105
104
104
104
104
104
104
104
103
103
104
104
104
105
105
105
105
106
105
105
105
105
105
106
106
106
105
105
105
105
105
105
104
103
104
103
102
103
103
104
103
104
104
103
104
103
103
104
104
104
105
105
106
106
107
107
109
109
110
111
112
113
114
115
115
116
117
118
119
120
121
121
121
121
120
121
121
120
120
120
119
119
118
118
117
118
117
116
116
115
115
116
116
116
116
117
118
118
118
118
119
120
121
121
121
121
121
121
121
122
122
122
122
122
122
122
122
122
123
122
122
123
123
123
124
124
125
126
127
128
128
129
130
131
131
132
132
133
133
133
134
133
133
133
133
134
134
135
135
135
136
136
137
138
139
140
141
142
143
144
144
146
146
147
148
149
149
150
150
150
150
149
149
148
148
147
147
145
145
144
143
142
141
140
139
138
137
136
137
136
135
135
134
134
133
133
133
133
132
132
132
132
132
132
132
132
132
132
132
133
133
133
133
133
134
133
133
133
132
131
131
130
131
131
130
129
129
128
127
126
125
124
123
122
121
120
119
118
117
116
115
115
114
113
112
111
111
110
110
111
111
111
111
112
112
112
112
112
113
113
113
113
113
114
114
115
114
115
115
114
114
113
113
113
113
113
112
112
112
111
111
112
112
112
111
111
110
109
109
108
108
107
107
107
107
107
107
106
106
105
105
105
105
105
105
105
106
106
106
106
106
107
107
107
107
107
106
106
105
105
105
105
105
106
106
106
106
107
107
108
108
109
109
110
110
111
112
113
112
113
114
114
114
116
116
116
116
116
115
115
114
114
113
113
113
113
113
112
111
111
110
110
109
109
109
108
107
107
107
107
107
107
107
108
108
109
110
110
111
111
112
112
113
114
114
114
114
114
114
114
113
113
114
113
113
112
111
111
109
108
107
106
105
105
104
103
103
103
103
103
103
103
103
103
104
105
106
107
107
109
109
110
112
113
114
115
115
116
116
117
116
117
117
117
117
117
117
117
117
116
117
116
116
116
115
114
114
113
112
112
112
112
111
111
110
110
109
108
107
107
107
106
105
105
105
104
104
104
104
104
103
102
102
102
102
103
103
104
104
104
104
104
106
106
107
109
110
111
113
114
114
115
116
117
118
118
119
119
119
119
119
119
119
118
118
117
116
116
115
114
114
113
112
112
110
110
109
109
109
108
108
107
107
107
107
107
108
108
108
110
110
111
111
112
113
113
113
114
114
114
114
114
114
113
113
112
112
111
110
109
109
108
107
107
106
105
105
105
105
104
105
105
104
104
104
104
104
104
104
105
104
104
104
104
106
107
107
108
108
108
109
109
110
110
112
112
114
114
116
116
117
118
118
119
119
119
120
121
121
122
122
123
124
124
125
125
125
126
127
127
128
128
128
129
130
130
130
130
129
128
127
126
125
124
123
122
122
121
120
119
119
119
119
119
118
118
119
119
120
120
121
122
123
124
124
124
125
125
124
124
123
123
123
122
122
121
121
120
119
118
119
118
117
116
116
115
114
113
112
111
110
110
109
109
109
109
109
109
108
109
108
108
108
109
110
110
111
111
112
113
113
113
113
113
113
112
113
113
112
112
111
112
111
112
111
111
112
113
112
113
113
113
113
113
113
113
112
112
111
110
109
108
107
105
104
103
102
101
100
99
98
97
97
97
97
97
97
97
98
99
100
101
102
103
104
105
106
107
108
110
111
112
113
113
113
113
113
112
112
111
110
109
109
108
107
106
105
104
102
100
99
99
98
96
95
95
96
96
98
98
99
99
100
101
101
103
103
104
104
106
107
107
107
108
109
110
109
109
109
109
109
108
108
106
105
104
102
101
100
99
98
97
96
96
96
97
98
99
100
103
105
109
113
119
124
131
137
145
153
160
168
178
187
196
205
215
225
233
241
250
259
267
274
281
287
291
296
299
301
303
303
302
299
296
291
285
279
272
264
256
247
239
230
219
210
201
192
184
176
169
162
155
150
145
141
137
135
132
129
126
124
122
121
118
117
116
115
114
114
113
113
112
112
112
112
112
113
112
112
112
111
110
109
109
107
106
102
101
98
96
94
92
91
90
89
88
88
88
88
88
89
91
93
94
96
99
100
103
105
108
109
111
112
113
114
115
115
115
115
116
115
115
115
114
114
113
113
113
113
113
113
113
114
115
114
114
114
113
113
113
113
112
113
112
111
110
110
109
109
107
106
106
106
105
105
104
104
104
105
105
106
106
106
106
107
108
108
108
109
110
110
111
112
112
113
113
114
115
115
116
116
116
116
116
115
114
115
114
113
112
110
109
107
106
105
103
102
101
99
98
97
97
96
97
96
96
97
98
99
100
101
102
103
106
107
109
110
112
113
115
115
116
118
119
119
119
120
120
120
119
119
118
117
117
116
116
116
115
115
115
113
113
112
112
112
113
112
113
113
114
114
115
115
116
117
118
118
120
120
120
120
120
120
121
120
120
120
120
120
120
120
120
120
120
120
121
121
121
120
120
119
119
119
119
118
118
117
117
117
117
117
117
118
118
118
119
119
120
121
123
125
126
129
130
131
133
134
135
137
138
139
139
140
141
141
140
140
139
139
138
137
137
136
135
134
132
131
130
131
130
131
131
131
130
130
131
131
131
133
134
135
136
138
139
140
141
141
142
143
143
143
144
144
144
144
145
145
145
145
143
143
143
143
143
143
143
142
141
141
141
140
140
140
139
139
139
139
138
138
138
137
137
135
135
134
134
132
131
131
130
128
128
126
124
124
122
121
119
119
118
117
117
117
116
116
115
115
115
117
117
117
117
118
117
117
117
117
117
116
115
115
114
114
112
112
110
109
109
108
108
107
106
106
105
105
105
106
106
106
107
108
107
108
109
110
109
110
111
111
112
111
112
112
112
112
112
113
113
112
112
112
111
111
111
110
109
109
107
106
106
105
104
104
103
102
102
101
101
101
100
100
99
100
100
100
100
101
102
102
102
102
102
103
103
105
105
105
106
107
107
106
106
106
107
107
106
106
106
106
107
108
108
108
108
108
108
107
107
106
106
106
107
106
106
106
106
106
106
106
106
106
106
104
104
103
103
103
103
102
102
102
101
101
101
101
100
100
100
100
100
100
101
102
102
104
104
105
105
106
107
108
109
109
110
110
111
112
112
112
112
113
113
113
113
113
113
112
112
111
111
110
111
110
110
109
109
109
108
108
108
108
108
108
108
108
109
109
110
110
110
110
110
110
110
109
109
109
109
109
110
109
109
109
108
107
106
105
105
103
102
102
101
101
101
101
101
101
101
101
101
101
101
102
103
103
103
104
105
107
108
109
109
110
111
111
111
111
111
111
111
111
110
110
109
110
109
109
109
107
107
107
107
107
107
107
106
105
105
106
106
105
106
106
107
106
107
107
106
106
105
105
105
104
104
104
103
102
102
101
101
101
100
100
99
99
99
99
98
99
99
99
99
99
99
99
100
101
101
102
103
102
103
104
105
105
106
107
107
108
108
109
109
109
108
108
108
107
107
106
106
104
103
103
102
101
100
99
98
97
96
96
96
96
96
97
98
98
100
101
102
103
105
105
106
108
109
110
112
113
114
114
115
115
116
116
115
115
114
113
113
113
112
112
111
111
111
110
109
108
108
107
108
107
108
107
108
108
109
110
110
110
111
112
113
114
115
116
117
118
118
119
119
119
120
119
119
120
120
120
119
119
119
118
118
118
118
118
118
117
118
118
118
119
119
118
118
119
119
120
120
120
120
121
121
120
120
119
119
118
117
116
116
115
115
114
114
113
111
111
110
109
110
109
109
109
109
109
109
109
110
110
111
112
112
112
113
112
113
112
112
111
110
110
109
108
107
105
104
103
101
100
98
97
96
95
94
93
93
93
94
94
94
94
95
95
95
96
98
98
99
100
101
101
101
101
102
103
104
105
105
105
105
104
103
102
102
101
100
99
98
97
96
96
94
92
91
90
88
87
87
87
86
86
87
88
88
89
90
89
91
92
93
94
96
97
98
99
100
101
102
102
103
103
103
103
103
102
102
102
101
102
101
101
101
100
99
99
99
98
98
98
98
98
98
97
97
97
97
97
97
97
97
97
96
95
96
95
95
95
95
95
94
94
94
95
95
95
96
95
95
97
98
98
100
102
105
108
111
115
118
121
125
130
136
142
148
156
163
170
178
187
196
204
214
223
233
242
250
258
265
272
279
284
289
293
295
297
298
297
296
292
288
282
277
269
261
253
244
235
226
217
208
198
189
180
172
164
156
149
142
136
131
126
121
117
113
110
107
105
102
100
99
98
97
97
97
98
98
98
99
99
99
100
100
101
100
101
100
101
101
100
100
100
99
97
96
97
96
95
95
95
95
94
94
95
95
95
95
97
97
97
97
98
98
99
99
101
101
101
101
101
100
100
99
99
100
100
100
100
100
100
100
100
100
100
100
100
99
99
99
99
99
99
99
100
99
99
98
98
97
96
96
95
95
94
93
93
93
93
93
93
93
93
93
94
94
95
96
96
97
98
99
100
101
102
103
103
104
104
104
105
105
104
104
103
102
102
101
99
98
98
96
95
94
93
92
91
90
90
90
91
91
92
93
93
94
95
97
98
101
103
104
106
107
108
110
110
111
111
111
112
112
112
112
111
111
110
110
110
109
109
108
107
107
107
106
105
105
105
105
104
104
104
104
103
103
102
102
101
100
100
99
99
99
99
99
99
100
100
101
101
102
102
102
103
103
104
105
106
107
108
109
110
112
113
114
114
115
115
116
116
117
117
117
118
119
119
119
119
120
120
119
118
119
118
118
117
116
117
116
117
118
118
119
118
118
118
119
120
120
121
122
123
124
125
126
126
127
128
128
128
129
129
129
129
129
129
130
130
130
130
130
131
131
131
132
133
133
133
133
133
133
133
133
133
133
133
133
133
133
133
133
134
133
133
133
134
134
134
136
136
136
137
137
138
138
138
138
138
138
138
138
137
137
136
135
134
135
134
133
132
131
130
129
128
127
127
127
126
126
125
126
125
124
125
124
123
122
122
121
121
120
120
119
119
118
118
117
117
116
115
115
114
114
114
113
112
112
111
110
110
110
109
108
107
107
106
106
105
104
103
103
102
102
101
102
102
102
102
102
102
102
102
101
102
102
102
102
102
103
103
103
103
103
103
103
102
103
102
103
103
103
102
102
102
101
101
101
100
100
99
99
98
97
96
96
95
95
95
95
95
95
96
96
96
97
97
99
99
100
101
101
100
102
102
102
102
101
100
100
99
98
97
96
96
94
94
93
92
92
91
91
92
93
95
95
96
97
97
99
100
101
102
104
104
104
105
105
105
105
105
104
104
103
102
101
101
100
98
98
97
97
96
96
96
95
94
95
95
95
95
95
96
96
96
97
97
97
96
97
97
97
97
97
96
96
95
95
95
95
95
95
95
95
95
95
95
95
95
96
96
96
97
98
99
99
100
100
100
101
101
100
100
99
99
99
98
98
97
97
97
96
95
95
95
95
95
97
98
98
98
99
100
101
102
102
103
104
103
104
105
105
105
105
104
104
103
103
102
101
100
99
99
98
97
97
97
97
96
97
97
96
95
94
94
94
94
94
94
94
93
93
93
93
92
91
92
92
93
94
94
94
94
94
95
95
95
96
96
97
97
98
98
98
97
97
97
97
97
96
96
95
95
94
94
93
93
93
92
93
92
92
92
93
93
93
93
93
92
93
93
93
93
93
94
94
94
94
94
93
94
93
93
93
93
93
93
93
92
92
92
92
92
93
93
93
93
94
94
94
94
94
94
94
94
93
93
93
93
93
92
93
93
92
92
91
91
91
91
91
92
92
92
92
92
92
93
92
93
93
93
93
93
94
94
94
94
95
95
95
95
95
95
96
96
96
95
95
95
94
94
93
92
91
91
90
90
89
89
88
88
87
86
86
85
85
86
87
87
88
88
89
89
90
91
91
92
93
94
95
95
97
98
98
99
99
100
99
99
100
100
100
100
100
99
99
99
99
98
98
97
96
96
95
95
94
94
94
93
93
93
93
93
92
91
91
91
91
91
91
91
91
91
91
90
90
90
89
89
90
89
89
88
88
88
87
87
86
86
85
83
82
81
80
79
79
79
78
78
79
80
81
82
83
84
85
87
89
90
93
94
96
99
101
102
104
105
106
107
107
107
107
107
106
106
105
105
105
103
103
103
101
101
100
100
100
99
99
99
98
99
98
99
99
100
100
102
102
102
103
104
105
105
107
107
108
108
109
109
109
109
109
109
110
109
109
109
110
109
108
108
108
108
108
108
108
108
109
108
108
108
108
108
109
109
109
108
109
109
108
108
107
107
106
107
106
107
107
106
105
105
103
103
103
103
102
102
101
100
100
99
98
97
97
97
96
95
95
95
95
95
95
94
94
94
93
92
92
92
93
94
93
94
94
94
94
93
93
93
93
94
94
94
93
93
93
92
92
92
92
91
90
90
90
91
90
91
90
90
90
89
89
88
88
89
89
90
90
91
91
92
92
92
92
92
92
92
93
92
93
93
93
93
92
93
92
92
92
92
92
92
92
92
93
92
92
93
92
92
92
92
91
92
92
91
92
92
91
91
91
90
90
89
90
90
90
89
89
88
87
86
86
85
86
85
86
85
86
85
85
84
84
83
83
83
83
83
83
82
82
81
81
81
80
80
80
80
80
80
80
82
82
83
85
86
88
89
92
94
97
100
104
108
112
116
122
127
132
138
143
150
157
164
171
179
187
195
205
214
224
233
241
251
259
266
274
281
286
292
295
298
301
302
302
300
298
294
290
284
276
268
259
251
242
232
222
211
201
192
181
171
161
152
144
137
130
124
118
113
109
105
101
99
96
94
93
93
92
92
92
91
91
91
92
92
93
93
93
92
92
92
93
92
92
92
92
91
91
91
91
92
91
92
91
92
92
92
92
92
92
92
92
92
92
92
92
92
92
92
92
92
92
93
92
93
93
92
92
93
93
93
93
93
93
92
91
91
91
91
91
91
92
91
91
90
90
89
90
90
89
90
90
90
91
91
91
91
92
92
91
91
92
92
93
93
92
93
92
92
92
93
93
95
95
95
96
96
97
97
98
99
98
99
99
100
100
101
101
101
101
100
100
99
99
98
97
97
96
95
95
94
95
95
95
95
95
95
96
97
97
99
99
101
101
103
103
103
105
105
106
106
106
107
107
107
107
107
106
106
106
105
105
105
104
103
103
102
102
102
101
101
101
100
100
100
100
100
99
99
99
100
100
101
101
101
101
101
102
103
103
103
104
104
104
104
103
104
104
103
103
102
102
101
100
101
100
99
99
99
99
99
100
100
101
101
103
103
104
106
108
109
112
112
113
114
115
116
117
117
117
117
117
117
117
117
117
117
116
117
117
117
117
117
118
118
120
121
122
123
124
126
126
128
128
130
131
132
133
133
133
134
133
134
133
133
132
132
131
131
131
130
130
130
130
130
130
130
130
130
130
130
131
131
132
132
133
133
134
134
135
135
134
134
135
134
134
133
133
132
132
132
131
131
131
131
131
131
130
130
130
129
129
128
128
128
128
129
129
129
129
129
129
128
129
129
129
129
128
129
128
128
128
127
128
128
128
128
127
127
126
126
126
125
123
122
122
120
119
117
116
116
114
113
112
112
111
109
108
108
107
107
106
107
107
107
107
108
108
108
108
109
109
109
109
110
110
111
111
110
111
110
110
110
109
108
108
108
108
107
107
107
106
105
105
104
104
103
103
102
101
102
100
99
98
98
97
98
98
97
97
95
95
94
93
93
93
93
93
94
94
94
94
95
95
94
95
95
96
97
98
97
99
100
101
102
102
103
104
104
105
105
105
105
105
105
105
105
105
106
105
105
105
105
105
104
104
103
103
103
102
102
102
102
102
102
102
101
101
100
100
99
99
99
99
100
100
100
100
100
100
101
101
101
101
101
101
103
103
103
104
104
104
104
104
105
105
105
105
106
106
105
106
106
106
106
106
107
107
108
107
107
107
107
105
105
105
103
102
100
99
97
97
95
94
94
94
94
94
93
93
93
93
94
95
97
98
100
100
102
102
104
104
105
105
105
106
106
106
106
106
106
106
107
106
106
107
107
106
107
107
107
108
108
107
108
108
108
108
108
108
109
109
109
109
109
108
108
108
108
108
108
108
108
108
108
109
109
109
109
108
108
108
108
107
108
108
107
107
107
105
105
106
106
105
105
105
105
104
103
103
103
103
101
101
100
99
98
98
97
97
98
99
99
99
100
100
101
101
103
104
105
106
107
109
111
112
113
114
115
116
115
116
116
115
115
114
115
114
114
115
114
114
114
114
114
114
114
114
113
113
114
113
113
114
113
113
114
113
113
111
111
111
111
111
111
112
112
113
112
113
114
114
115
115
116
116
117
118
118
120
120
121
122
123
123
123
125
125
125
125
125
126
126
126
127
127
127
127
127
126
126
126
126
127
126
126
126
126
125
126
125
125
125
125
124
124
124
124
123
124
124
124
124
124
124
125
125
125
126
126
126
126
126
126
126
125
125
125
124
122
121
120
119
118
117
116
114
113
112
110
110
109
108
107
106
106
105
105
104
104
103
103
103
103
102
102
101
100
100
100
99
99
98
98
98
98
98
99
99
98
99
99
100
100
101
102
102
103
104
105
107
107
108
109
109
111
111
112
112
113
114
114
114
114
114
114
114
114
114
113
113
113
112
112
111
111
110
110
109
108
107
106
105
104
105
104
104
103
103
102
102
101
101
101
102
102
102
103
103
104
104
105
105
106
107
108
109
109
110
110
111
111
111
111
111
111
110
110
108
107
106
104
103
102
101
99
99
97
96
96
96
96
96
96
97
97
99
101
103
105
108
111
114
118
122
126
131
136
141
146
152
157
163
170
177
184
193
201
210
219
227
237
247
257
265
275
283
291
297
305
311
315
319
322
322
323
322
319
315
310
303
297
288
279
270
260
251
241
230
221
210
200
191
182
173
165
159
153
146
141
137
133
129
126
124
123
121
120
119
118
116
115
114
114
113
113
113
113
112
111
112
112
113
112
113
112
112
113
113
112
113
113
114
114
114
114
114
113
112
112
111
110
110
110
109
108
107
108
107
107
107
107
107
107
107
108
109
110
110
111
112
112
113
115
116
116
117
119
119
119
119
120
119
119
119
119
119
119
119
118
117
118
117
116
115
115
114
113
113
112
112
112
111
112
112
111
111
111
110
110
110
111
111
111
111
111
111
111
113
113
113
114
114
114
115
115
115
116
116
116
116
115
115
115
115
115
115
115
115
115
115
115
115
115
115
115
115
116
116
116
116
117
118
118
118
118
118
118
118
119
119
119
119
119
119
119
118
119
120
119
119
118
119
119
118
118
117
117
116
115
115
115
114
115
115
115
114
115
115
115
116
116
118
118
119
121
122
123
124
125
126
127
127
127
127
127
127
126
126
126
126
125
125
124
124
123
123
123
122
122
121
122
122
122
122
123
123
123
124
125
126
127
127
128
129
129
131
131
132
133
134
135
136
137
137
138
140
140
141
142
143
143
143
144
144
144
144
143
143
144
144
143
143
143
143
142
142
142
141
141
141
141
141
140
141
140
141
141
142
141
142
141
141
141
141
141
141
141
142
142
141
141
141
142
142
142
142
143
143
144
145
145
146
146
147
147
148
148
148
148
148
148
147
147
147
146
147
146
145
144
143
143
141
141
140
140
139
139
138
139
138
138
138
137
136
135
135
134
133
132
132
131
130
130
129
128
126
126
125
123
123
123
123
122
123
122
122
122
122
122
122
123
122
123
122
123
123
122
121
121
120
120
119
118
119
118
117
118
117
116
116
115
114
113
112
112
110
110
108
108
106
106
105
104
103
102
100
100
99
98
97
97
97
96
96
97
97
97
97
98
98
98
98
99
100
100
100
100
100
100
101
100
99
99
99
99
99
99
99
98
97
97
96
96
96
96
95
96
96
96
95
96
96
96
96
97
97
97
97
98
98
98
98
98
98
97
97
96
95
95
94
93
92
92
91
90
89
89
89
89
89
89
89
89
89
89
88
88
88
89
90
90
90
90
90
90
91
91
90
89
89
89
89
88
88
89
89
89
90
89
89
89
90
89
89
89
89
88
87
87
86
85
85
84
83
82
80
79
78
77
77
76
75
73
73
73
73
73
74
74
74
74
75
76
77
78
79
80
81
82
84
85
86
87
87
88
88
88
88
88
89
88
88
87
87
86
85
83
82
81
79
77
75
73
73
72
71
70
70
69
68
68
68
68
68
68
69
70
71
72
72
73
73
74
74
75
75
76
77
77
78
78
78
78
78
78
78
78
77
77
77
76
75
74
73
72
71
70
69
67
65
63
62
61
60
58
57
57
57
56
56
56
55
55
55
55
56
57
58
58
59
59
59
60
60
59
59
59
59
58
58
58
57
57
56
56
55
55
54
53
53
52
50
50
49
48
48
49
48
49
50
50
50
51
51
52
54
55
56
57
58
59
60
62
61
62
62
62
62
62
62
61
60
60
58
58
56
55
54
54
52
52
50
50
48
47
45
44
43
42
41
40
40
39
39
38
37
37
37
36
36
36
35
36
36
36
37
38
39
40
40
41
42
42
43
43
44
45
46
46
46
46
47
47
46
46
45
45
44
43
42
41
40
39
37
35
34
33
31
30
29
28
29
29
29
29
29
29
30
30
31
32
33
34
36
37
37
39
41
41
42
42
42
41
42
41
41
41
40
40
40
39
38
38
38
37
37
37
37
37
38
37
38
38
38
38
38
37
37
36
37
37
36
37
36
35
35
34
33
33
32
31
31
32
32
32
32
33
33
33
33
33
34
34
33
34
34
33
34
33
33
32
33
33
32
32
31
30
29
28
28
26
25
24
23
23
22
21
19
18
17
17
15
15
14
13
12
11
11
10
10
9
8
7
6
6
5
4
4
2
1
1
0
0
-2
-3
-3
-4
-5
-5
-5
-6
-6
-7
-7
-8
-8
-8
-7
-8
-7
-7
-6
-5
-5
-4
-4
-3
-2
-1
-1
0
1
1
2
2
3
3
4
4
4
4
3
2
1
0
-1
-2
-3
-5
-7
-8
-10
-11
-12
-13
-14
-15
-16
-17
-18
-19
-20
-20
-20
-19
-18
-18
-17
-17
-17
-16
-17
-17
-17
-15
-15
-15
-14
-14
-13
-14
-13
-13
-14
-15
-16
-15
-16
-16
-17
-17
-19
-20
-20
-21
-22
-23
-24
-25
-25
-26
-26
-26
-27
-27
-29
-29
-30
-30
-29
-30
-30
-30
-30
-31
-31
-32
-32
-32
-32
-32
-32
-31
-30
-28
-27
-25
-22
-19
-16
-12
-8
-4
2
7
14
20
27
34
41
49
57
65
72
81
89
98
107
116
124
131
138
143
149
154
159
162
165
166
167
167
164
161
157
151
145
138
131
123
114
106
95
86
76
67
57
49
40
32
24
17
10
3
-3
-8
-13
-17
-21
-25
-28
-31
-33
-36
-37
-39
-40
-41
-42
-43
-43
-44
-44
-44
-45
-45
-46
-46
-46
-46
-46
-47
-47
-47
-48
-47
-47
-46
-47
-48
-47
-47
-47
-47
-46
-46
-45
-45
-45
-44
-44
-43
-43
-43
-43
-43
-43
-42
-43
-43
-43
-43
-44
-45
-45
-45
-46
-47
-48
-49
-50
-51
-52
-52
-52
-52
-52
-52
-52
-52
-51
-51
-50
-50
-50
-50
-49
-49
-48
-47
-46
-46
-46
-45
-45
-45
-45
-45
-45
-45
-46
-47
-47
-48
-49
-50
-50
-51
-52
-52
-53
-54
-55
-54
-55
-56
-56
-55
-55
-56
-56
-55
-55
-54
-53
-53
-53
-53
-52
-52
-52
-51
-51
-51
-51
-50
-50
-50
-50
-50
-50
-50
-50
-50
-50
-50
-49
-49
-50
-50
-51
-50
-51
-52
-52
-53
-53
-54
-54
-55
-55
-56
-57
-58
-57
-57
-58
-57
-58
-57
-58
-58
-57
-57
-57
-57
-57
-55
-55
-55
-54
-54
-54
-55
-54
-55
-55
-56
-57
-57
-57
-58
-58
-59
-59
-59
-59
-59
-59
-59
-59
-58
-57
-57
-56
-56
-55
-54
-54
-53
-53
-53
-51
-51
-51
-49
-49
-48
-48
-47
-47
-47
-47
-46
-46
-45
-44
-44
-42
-42
-42
-41
-40
-39
-38
-38
-38
-38
-38
-38
-37
-37
-36
-37
-37
-37
-37
-37
-38
-38
-38
-38
-39
-39
-39
-39
-38
-39
-38
-39
-38
-38
-38
-37
-37
-36
-35
-34
-34
-32
-32
-32
-32
-32
-32
-32
-33
-32
-32
-33
-32
-33
-34
-35
-36
-37
-38
-39
-40
-41
-41
-42
-42
-42
-42
-40
-40
-40
-39
-39
-39
-37
-37
-36
-34
-34
-33
-32
-31
-31
-29
-29
-29
-29
-29
-29
-30
-30
-31
-32
-33
-33
-34
-35
-35
-36
-36
-37
-37
-39
-39
-39
-40
-40
-41
-41
-43
-43
-44
-43
-44
-44
-45
-45
-46
-47
-48
-48
-49
-49
-50
-51
-52
-53
-53
-54
-54
-55
-55
-55
-57
-57
-58
-58
-59
-60
-60
-60
-61
-61
-62
-62
-62
-61
-62
-61
-61
-62
-61
-62
-62
-63
-62
-63
-63
-63
-63
-64
-64
-65
-64
-66
-66
-66
-66
-66
-67
-67
-68
-68
-68
-68
-68
-68
-68
-69
-69
-70
-71
-71
-71
-72
-73
-74
-75
-75
-76
-76
-77
-77
-78
-78
-78
-79
-79
-79
-79
-79
-79
-79
-79
-78
-78
-78
-79
-79
-78
-78
-78
-76
-76
-75
-74
-73
-73
-72
-72
-71
-70
-70
-69
-69
-69
-69
-68
-69
-68
-69
-69
-69
-70
-71
-72
-73
-74
-76
-77
-77
-79
-80
-81
-81
-81
-82
-81
-81
-81
-81
-80
-79
-79
-78
-76
-75
-74
-72
-71
-70
-68
-67
-65
-65
-64
-63
-63
-63
-63
-64
-64
-65
-66
-67
-69
-70
-71
-72
-73
-74
-75
-75
-76
-77
-77
-77
-77
-77
-76
-76
-76
-76
-75
-75
-74
-74
-74
-72
-72
-72
-72
-72
-71
-71
-72
-72
-72
-72
-71
-71
-70
-69
-68
-68
-68
-67
-67
-67
-67
-68
-68
-68
-68
-70
-70
-70
-71
-72
-73
-74
-76
-77
-77
-78
-77
-77
-77
-77
-77
-76
-76
-75
-75
-74
-73
-73
-72
-70
-70
-69
-69
-68
-67
-67
-66
-66
-67
-66
-66
-66
-66
-66
-66
-67
-66
-67
-67
-66
-66
-66
-66
-66
-67
-66
-66
-67
-67
-67
-67
-67
-67
-68
-67
-68
-69
-69
-70
-71
-72
-73
-72
-73
-73
-73
-74
-74
-73
-74
-74
-73
-73
-73
-72
-71
-70
-69
-68
-67
-65
-65
-64
-62
-61
-60
-59
-59
-59
-58
-58
-58
-58
-58
-58
-59
-60
-61
-62
-63
-64
-66
-66
-67
-69
-70
-71
-72
-73
-74
-74
-75
-75
-75
-75
-75
-74
-74
-72
-71
-70
-69
-68
-67
-66
-66
-64
-64
-64
-64
-63
-63
-63
-64
-64
-65
-66
-66
-67
-69
-70
-71
-72
-73
-73
-74
-74
-74
-74
-73
-73
-72
-71
-70
-68
-66
-65
-64
-63
-61
-60
-59
-58
-56
-56
-54
-52
-52
-52
-51
-51
-51
-50
-51
-50
-51
-51
-51
-51
-50
-51
-51
-51
-51
-52
-52
-52
-52
-52
-52
-51
-51
-51
-51
-51
-50
-50
-51
-51
-51
-51
-52
-51
-52
-51
-51
-50
-50
-50
-49
-49
-49
-50
-49
-49
-49
-48
-48
-47
-46
-45
-45
-44
-45
-44
-44
-43
-43
-42
-43
-43
-42
-42
-41
-41
-40
-40
-40
-39
-39
-40
-39
-39
-40
-40
-41
-41
-41
-42
-42
-42
-43
-43
-44
-44
-45
-46
-47
-47
-47
-48
-48
-49
-49
-49
-50
-50
-51
-51
-51
-52
-52
-52
-52
-52
-52
-53
-53
-53
-53
-54
-54
-54
-54
-55
-54
-55
-55
-55
-56
-56
-56
-56
-56
-55
-55
-55
-55
-55
-55
-55
-55
-55
-55
-55
-54
-54
-53
-52
-53
-53
-52
-53
-54
-53
-54
-55
-54
-55
-54
-54
-54
-55
-54
-54
-55
-55
-56
-56
-57
-57
-57
-57
-57
-57
-58
-59
-59
-60
-60
-60
-60
-60
-60
-59
-59
-58
-58
-57
-57
-56
-56
-55
-55
-54
-54
-53
-52
-51
-51
-50
-50
-50
-50
-50
-49
-50
-50
-50
-51
-51
-51
-52
-52
-53
-54
-54
-55
-55
-56
-56
-56
-55
-55
-55
-55
-55
-54
-54
-53
-53
-53
-53
-53
-52
-52
-52
-52
-52
-52
-52
-52
-52
-52
-51
-50
-50
-49
-47
-45
-44
-41
-38
-35
-31
-27
-22
-17
-12
-6
0
7
14
21
29
36
44
52
60
69
76
84
93
101
108
116
120
126
130
135
137
140
141
141
141
139
137
133
129
123
118
111
103
95
87
79
70
61
53
45
36
27
20
13
6
0
-6
-11
-16
-20
-24
-28
-31
-33
-36
-37
-39
-40
-41
-41
-41
-41
-40
-41
-40
-40
-39
-39
-39
-38
-37
-37
-37
-35
-35
-35
-37
-36
-37
-38
-38
-39
-40
-40
-41
-41
-42
-42
-42
-42
-43
-43
-44
-44
-45
-46
-45
-46
-45
-45
-44
-43
-43
-42
-42
-41
-40
-39
-38
-37
-36
-35
-34
-33
-32
-31
-30
-30
-29
-29
-29
-29
-29
-29
-30
-30
-30
-31
-31
-32
-33
-32
-33
-33
-33
-34
-34
-33
-33
-33
-33
-32
-32
-32
-32
-32
-32
-32
-32
-31
-32
-32
-32
-33
-33
-33
-33
-33
-33
-33
-33
-33
-33
-33
-32
-32
-31
-30
-29
-29
-28
-27
-27
-26
-25
-25
-24
-24
-24
-24
-25
-25
-25
-25
-25
-26
-26
-26
-28
-29
-29
-29
-29
-29
-29
-29
-29
-29
-29
-28
-28
-27
-27
-26
-26
-25
-24
-23
-21
-21
-21
-21
-20
-20
-20
-20
-20
-19
-20
-19
-19
-18
-18
-18
-17
-17
-18
-17
-17
-17
-17
-17
-17
-17
-16
-16
-16
-15
-16
-15
-15
-15
-16
-15
-15
-14
-14
-14
-14
-13
-12
-12
-12
-11
-11
-10
-10
-9
-9
-9
-9
-8
-8
-8
-8
-8
-8
-9
-8
-8
-9
-9
-8
-8
-8
-8
-7
-7
-6
-5
-4
-3
-2
0
1
2
4
5
6
7
9
10
11
11
12
12
12
12
13
13
12
12
11
11
10
11
10
10
11
10
11
11
12
11
12
12
13
14
13
14
14
15
15
15
16
16
16
16
17
17
17
17
18
18
20
20
21
21
22
23
24
25
25
25
26
26
26
26
26
25
25
24
24
23
23
22
21
21
20
20
20
19
19
19
19
19
19
20
20
19
20
20
20
20
19
20
19
18
18
18
18
17
17
17
16
16
15
15
14
13
13
13
13
13
13
13
12
11
11
10
9
9
8
8
7
7
7
6
6
6
6
5
5
6
5
5
5
6
5
6
6
6
6
5
5
3
3
2
2
1
1
-1
-1
-2
-2
-3
-3
-4
-4
-4
-5
-5
-5
-5
-4
-3
-3
-2
-1
-1
0
1
2
2
2
3
4
5
5
5
6
6
7
6
7
7
7
6
5
5
5
5
4
3
3
3
3
2
2
2
2
1
0
-1
-2
-3
-3
-2
-2
-1
-1
0
0
0
1
1
1
3
3
4
5
5
6
7
8
8
8
8
8
8
8
9
9
9
9
9
8
8
8
8
8
8
8
8
9
9
9
9
9
9
9
9
9
9
9
8
8
8
7
7
6
6
6
7
8
8
8
8
8
8
9
9
9
11
12
12
12
13
13
13
14
14
14
15
14
15
15
16
15
16
16
15
16
16
16
17
17
17
17
16
16
15
14
13
13
12
11
10
10
9
8
8
7
7
6
5
5
4
4
6
7
8
9
9
10
12
12
13
15
16
18
19
20
22
23
24
25
25
26
27
27
27
27
27
27
27
26
26
25
24
24
23
22
21
20
19
17
17
16
16
15
15
14
13
13
13
12
13
13
12
12
13
13
14
14
14
15
15
15
15
16
16
18
18
19
19
19
20
20
20
21
21
22
23
23
24
23
23
23
24
23
23
23
22
22
22
22
21
21
19
19
18
17
17
17
17
17
17
17
15
15
15
15
16
16
17
17
19
19
19
20
22
23
24
24
25
26
27
27
28
30
30
31
31
31
32
33
32
33
33
33
33
33
32
32
31
31
30
31
30
30
29
28
29
28
28
28
28
27
28
27
28
28
29
29
29
30
30
30
30
30
30
30
30
30
31
31
32
31
32
33
33
33
33
33
33
34
35
35
36
37
38
38
38
38
39
39
40
40
40
40
41
40
40
40
40
41
41
41
41
41
41
42
43
43
44
45
45
46
47
47
48
48
48
48
49
50
51
52
53
54
54
55
55
55
56
55
55
55
56
57
57
57
57
58
57
57
57
57
57
57
56
56
55
55
55
54
54
53
52
52
51
50
49
48
47
46
45
44
44
43
40
39
38
39
38
37
37
36
36
35
35
35
35
35
35
35
35
35
36
35
36
36
35
35
34
34
33
33
32
33
32
32
32
32
31
32
32
31
32
33
33
34
34
35
37
38
39
40
41
41
42
43
44
45
45
46
47
47
47
47
47
46
46
46
46
46
44
44
44
43
42
42
41
41
40
39
38
38
38
38
37
36
36
36
36
35
34
34
34
34
34
34
34
35
35
36
37
39
40
40
42
42
43
45
46
47
49
49
50
51
52
52
52
52
52
53
52
51
51
50
48
48
46
45
44
42
40
39
39
37
37
37
35
35
34
33
34
34
35
37
39
41
43
46
49
53
57
62
67
73
78
83
90
97
104
111
119
126
135
143
151
160
168
177
185
194
201
209
216
223
229
234
238
242
244
246
246
246
244
241
238
232
226
220
213
204
196
187
178
168
160
150
141
132
123
115
108
101
95
89
84
79
75
71
67
64
61
59
56
55
54
52
52
51
49
49
49
48
48
49
50
49
49
49
49
49
49
49
50
51
51
52
53
52
52
54
54
55
55
57
58
59
60
61
60
61
61
61
62
62
61
61
61
60
60
59
59
58
57
56
55
54
53
52
51
50
50
50
50
51
51
51
51
52
51
52
52
53
54
54
55
56
58
59
60
59
60
61
62
61
62
62
63
63
63
63
64
63
63
63
63
64
64
65
65
64
64
64
64
63
63
62
62
61
60
61
61
60
60
59
58
58
57
56
56
57
57
57
57
58
59
59
60
60
61
62
62
63
63
63
63
64
64
64
65
65
66
66
65
65
64
64
63
64
63
63
64
63
64
64
65
65
65
65
65
65
65
65
64
64
64
64
64
65
65
64
64
65
65
65
66
67
68
69
70
71
73
73
74
75
76
77
77
78
79
79
80
79
80
80
80
80
79
79
79
79
79
79
78
78
78
78
77
77
77
77
77
78
78
78
79
79
79
80
80
80
81
82
82
83
83
84
85
85
86
87
88
88
88
89
90
90
91
91
91
92
91
91
92
92
92
93
93
93
93
93
93
93
93
93
93
93
93
93
93
93
94
94
94
95
95
95
97
97
97
99
100
100
102
103
104
105
106
108
109
110
111
112
113
114
115
115
116
116
117
116
116
116
115
116
115
114
113
113
113
112
111
110
109
108
107
106
106
105
105
104
104
103
102
102
102
101
100
100
100
100
100
100
101
100
101
100
100
100
100
99
100
99
99
99
98
97
97
96
96
95
94
93
93
91
91
89
88
86
85
84
83
81
80
80
79
80
79
78
79
79
79
79
79
80
80
81
82
82
83
83
84
85
85
86
86
86
86
86
85
84
84
83
82
82
81
81
81
80
79
79
79
78
78
77
77
77
77
77
77
77
76
76
76
75
76
75
75
74
74
74
73
73
72
72
72
73
73
73
74
74
75
74
75
76
77
77
78
79
80
80
81
81
83
83
83
83
83
82
82
82
82
81
81
79
79
78
77
75
75
74
73
72
71
70
69
68
69
70
70
71
72
73
73
75
76
78
80
81
82
84
86
88
89
90
91
91
91
91
91
90
90
90
89
88
87
87
86
85
84
83
82
83
82
82
81
80
80
79
79
79
79
78
78
78
78
77
78
78
78
78
78
78
78
77
78
78
79
80
81
81
81
82
82
82
83
83
83
83
82
81
80
80
78
78
77
77
76
76
75
74
73
73
72
72
72
73
73
74
75
76
77
78
79
79
79
80
81
82
83
84
84
85
86
87
87
87
87
87
87
87
87
89
89
89
89
89
89
89
88
88
87
87
87
87
85
85
84
83
83
81
81
81
81
81
80
79
80
80
80
80
81
82
83
83
83
84
85
85
85
85
85
85
84
84
83
82
82
81
80
79
78
77
76
76
75
75
74
73
73
73
74
75
75
75
75
75
76
76
77
78
79
80
80
81
82
83
82
82
83
83
84
83
83
84
84
84
84
84
84
85
85
85
85
85
85
84
84
84
84
84
83
84
84
84
84
83
82
82
81
80
80
80
79
79
79
79
79
79
78
79
79
80
80
81
81
82
82
82
82
82
82
82
82
82
82
82
81
80
80
79
79
79
78
77
78
78
78
78
78
78
78
78
79
81
82
83
84
84
85
86
87
87
88
88
88
89
89
89
89
89
88
87
87
86
86
85
85
84
83
82
82
82
81
80
79
79
79
79
79
79
79
79
78
79
79
79
79
79
79
79
79
80
80
80
80
80
80
80
80
80
79
79
78
78
78
78
78
77
77
77
77
77
77
78
78
78
78
79
79
80
80
81
82
82
83
84
85
86
87
88
89
90
91
92
91
92
93
94
94
94
94
95
96
96
96
97
97
98
98
97
97
98
97
98
98
98
99
98
99
98
99
99
98
98
98
98
98
98
98
98
100
100
101
100
100
100
101
100
100
100
99
99
99
99
99
98
98
97
97
96
96
95
96
95
96
95
96
96
97
97
97
98
98
98
100
100
101
101
102
102
103
103
104
104
103
104
104
104
104
103
104
103
103
102
101
100
100
99
97
96
95
94
93
92
91
91
89
88
86
84
84
82
81
81
80
80
80
79
79
80
80
81
81
81
82
83
83
84
85
85
86
87
87
87
87
87
88
86
86
86
85
85
85
85
83
83
83
82
82
82
81
80
79
80
79
78
78
78
77
77
77
77
77
76
76
76
76
76
76
77
76
77
77
77
78
78
79
79
79
81
81
81
82
82
82
83
83
83
83
84
84
84
84
84
84
84
84
82
82
82
82
81
81
80
80
80
80
79
79
79
79
78
78
78
78
79
79
79
79
79
78
78
77
77
77
77
77
78
78
77
77
77
77
77
77
77
78
78
79
80
81
82
83
85
87
89
91
95
97
101
105
109
113
118
123
129
135
141
148
155
163
172
181
190
200
209
219
229
238
247
255
264
271
277
284
289
293
296
297
298
296
293
289
284
277
269
261
251
242
232
221
211
200
190
179
170
159
150
142
134
127
121
115
109
104
101
98
94
91
89
87
85
84
81
81
80
81
80
80
81
81
82
83
84
85
86
87
88
88
89
89
89
89
89
88
87
86
85
84
83
82
81
81
80
80
79
79
78
79
79
80
80
81
82
83
84
84
85
86
87
87
87
87
86
85
85
84
83
83
82
80
80
79
79
78
78
79
78
78
77
77
77
78
78
78
80
80
81
82
83
83
84
84
85
85
86
86
87
88
88
88
88
89
88
88
88
88
88
88
88
88
87
87
86
86
86
85
85
85
85
85
85
85
84
84
84
86
86
86
86
86
87
87
87
88
88
89
88
88
88
88
88
87
87
87
86
86
85
84
84
83
82
81
80
79
79
78
76
75
75
75
75
76
76
76
78
78
79
80
82
83
84
85
87
89
90
92
93
95
96
97
97
98
99
98
98
98
97
97
97
97
96
97
96
95
94
94
93
93
93
93
93
93
93
92
92
93
93
93
94
94
93
93
94
95
95
95
96
96
97
99
99
100
99
100
101
102
104
104
105
105
106
106
106
107
107
107
108
108
108
107
107
107
106
105
104
104
103
103
103
103
102
102
102
102
102
102
102
102
103
103
105
105
106
106
108
108
110
110
111
113
113
115
115
117
117
119
119
120
121
121
122
122
123
123
123
124
124
125
125
124
124
123
122
122
121
120
120
119
119
118
118
117
117
115
115
114
114
113
112
112
113
113
114
114
115
115
115
116
117
117
119
120
121
120
121
122
122
123
123
122
122
121
121
120
119
118
116
116
115
113
112
111
110
108
106
105
103
102
101
99
98
97
96
95
95
96
95
95
96
95
96
96
95
96
96
97
98
97
98
98
98
98
98
98
97
95
95
94
94
93
92
92
91
91
90
89
88
87
87
87
86
86
86
86
86
86
86
85
85
86
85
86
86
86
86
87
88
88
88
89
89
89
90
90
90
91
90
90
91
91
91
91
91
91
91
92
93
93
93
93
94
93
93
93
92
92
92
92
92
90
90
89
88
86
86
85
84
83
82
81
79
79
78
77
76
75
74
73
73
73
72
72
73
73
73
74
74
75
75
76
77
78
79
80
81
81
82
83
84
84
85
86
86
87
87
87
89
89
88
88
87
87
88
87
87
87
86
87
87
87
87
87
87
86
86
86
86
86
86
86
87
87
88
88
88
88
88
89
89
89
89
89
89
90
90
90
90
89
89
89
89
89
88
88
87
87
87
87
86
86
85
85
85
84
84
84
82
82
82
81
81
80
80
79
79
78
78
77
77
77
76
76
77
77
77
78
79
80
81
82
84
85
87
89
90
91
92
93
93
94
94
94
94
93
93
92
91
90
89
88
86
84
83
82
80
80
79
79
78
78
79
78
79
79
80
80
81
82
82
83
83
83
85
85
85
86
86
87
88
89
89
90
90
90
89
89
90
89
89
90
90
90
91
91
91
92
91
92
92
92
92
93
94
95
94
95
96
96
97
97
98
98
97
98
98
97
97
97
97
96
94
94
93
92
91
90
90
90
90
90
90
90
90
90
91
91
92
92
94
95
96
97
98
99
99
100
100
100
100
99
99
98
98
98
96
96
95
95
94
93
92
91
89
88
87
87
87
86
85
85
84
83
82
82
81
81
80
80
79
79
80
79
79
80
80
79
79
78
78
78
77
76
76
76
75
74
73
73
72
71
71
71
71
71
70
71
72
73
73
74
74
75
76
76
77
77
78
77
77
78
78
78
78
78
77
78
77
76
76
75
74
74
73
74
73
73
72
72
71
71
69
69
68
68
67
66
67
66
67
66
67
67
67
68
68
69
70
71
72
73
75
76
78
78
80
81
82
83
83
83
84
83
83
83
83
82
81
80
79
77
76
75
73
71
70
68
67
65
65
63
62
62
61
61
61
60
60
61
62
63
64
66
68
69
72
75
78
81
84
88
92
96
101
107
112
117
123
130
137
143
150
157
164
172
181
188
197
205
213
220
228
235
241
247
251
256
258
261
263
263
263
262
259
256
251
246
240
233
226
218
210
201
193
184
176
167
159
150
143
135
129
122
116
110
106
101
97
92
88
84
81
78
77
75
74
72
71
70
69
68
67
67
67
68
68
69
70
70
71
73
73
74
74
75
76
77
79
79
80
80
80
80
80
79
79
79
78
78
76
75
75
73
72
71
71
70
70
69
69
68
69
68
68
68
69
70
70
72
72
72
72
73
74
75
76
77
78
79
80
80
81
82
81
81
82
82
81
82
81
82
82
81
81
80
80
79
79
79
78
77
76
76
76
76
75
76
75
75
75
75
74
73
73
72
72
71
70
70
70
70
70
69
70
69
70
70
70
71
71
72
73
73
74
76
76
78
78
79
81
81
82
82
83
84
83
83
83
83
83
83
82
81
81
81
80
79
79
78
77
77
76
75
75
75
74
75
74
75
75
75
76
76
76
78
78
78
79
80
81
81
81
83
84
84
85
85
85
86
86
86
86
86
86
87
87
86
86
86
86
86
86
86
86
85
86
86
85
86
85
86
85
85
85
85
84
84
83
83
82
82
82
83
83
83
83
84
84
85
85
85
86
87
88
90
91
92
93
94
96
97
97
97
98
98
98
99
98
99
98
97
98
97
97
96
95
96
95
94
94
95
95
95
95
97
97
98
100
100
100
102
102
103
104
105
106
108
108
110
111
111
112
112
112
112
112
112
114
113
113
113
113
112
111
111
111
110
109
109
108
108
108
108
106
106
106
105
106
106
105
105
105
105
106
106
106
106
106
106
106
105
105
105
104
104
104
104
104
103
103
101
100
98
96
95
93
92
90
90
88
88
86
85
84
82
81
79
79
78
77
77
76
75
74
73
73
73
73
72
72
72
72
71
72
72
72
72
73
73
74
74
74
75
75
76
76
76
76
77
77
76
77
77
76
76
75
76
75
76
76
76
75
75
75
75
74
75
74
74
73
74
73
73
73
73
72
72
71
71
70
69
68
68
67
67
67
66
66
65
64
64
64
64
64
64
64
64
64
64
65
65
65
65
65
66
66
67
67
67
67
67
67
67
67
67
67
66
66
66
66
66
66
66
66
65
65
65
65
65
66
66
66
65
65
65
65
65
65
65
64
65
64
63
64
63
62
62
62
62
61
60
59
59
59
59
60
60
61
61
61
61
61
61
62
63
63
64
65
66
66
68
68
68
69
69
70
70
70
70
70
70
69
70
70
70
71
70
70
70
69
70
70
70
70
69
70
70
70
70
69
70
69
69
69
68
68
67
66
66
65
65
65
64
63
63
62
62
62
62
62
62
61
61
61
61
60
60
60
59
60
60
60
60
60
61
61
61
61
61
62
62
63
63
63
64
64
66
66
66
67
67
67
68
68
67
67
66
66
66
66
64
63
62
61
60
58
57
56
56
54
53
53
53
51
52
52
52
53
53
54
55
55
56
57
58
59
60
61
61
62
63
63
64
64
65
65
65
64
65
65
64
64
63
62
62
61
60
60
60
58
58
58
57
56
55
54
53
53
52
53
53
54
54
55
55
56
56
57
58
59
60
61
63
64
65
65
67
68
69
70
70
71
71
71
71
70
70
70
69
69
68
68
67
67
68
67
68
67
67
67
67
68
68
69
70
69
70
70
71
71
71
71
71
71
72
71
71
70
70
69
69
68
68
68
67
66
66
65
65
64
64
63
64
64
64
65
65
65
66
67
67
68
69
69
70
71
71
72
73
74
74
74
75
75
75
75
74
74
74
73
73
72
71
70
69
68
67
66
64
64
62
61
60
59
58
57
56
56
54
54
54
53
54
54
55
55
56
56
57
56
57
57
57
58
58
58
59
59
58
58
58
57
57
56
56
56
55
55
55
54
54
55
54
54
53
53
53
53
53
52
52
52
51
51
52
51
51
51
49
49
49
48
48
47
47
47
47
47
46
46
46
46
46
46
46
46
47
47
47
47
47
47
48
48
49
49
50
50
50
50
50
50
50
50
50
51
51
51
50
50
50
50
49
49
48
48
48
47
47
46
45
45
45
44
43
42
42
40
39
39
38
38
38
38
38
39
39
40
40
41
41
41
42
42
43
44
44
46
47
48
48
49
50
51
53
55
56
58
61
64
67
71
75
80
85
90
94
101
107
113
121
128
136
144
151
159
168
175
182
191
197
203
209
215
219
223
226
228
228
228
226
224
220
215
210
204
197
190
182
173
165
157
149
140
132
124
117
110
102
96
90
85
80
76
71
67
65
62
59
58
56
54
53
52
50
50
49
48
48
47
48
47
47
47
47
47
47
47
48
47
47
47
48
48
48
47
48
48
48
47
47
47
47
46
46
46
46
45
45
43
43
42
41
40
41
40
39
39
38
38
38
36
36
37
38
38
40
40
41
41
42
42
43
44
45
45
46
46
48
48
48
48
48
48
48
48
49
48
48
48
47
47
47
46
46
46
46
46
46
45
45
45
45
45
45
46
46
45
46
45
46
45
46
46
46
47
46
48
48
49
50
50
50
50
50
50
50
50
50
50
50
49
48
49
49
49
49
48
48
48
48
48
48
48
47
47
48
48
48
49
49
49
50
50
50
50
50
51
51
50
50
50
50
50
50
50
50
