# Simple Text Format
# Sampling Rate (Hz):= 1200.00
# Resolution:= 12
# Labels:= ECG	III
# Age:=	64
# Gender:=	Masculino
-110
-110
-110
-110
-109
-109
-109
-109
-109
-108
-108
-108
-108
-108
-108
-108
-108
-107
-107
-107
-107
-107
-106
-106
-106
-106
-106
-106
-106
-107
-107
-107
-108
-108
-109
-109
-109
-110
-110
-110
-111
-111
-111
-111
-111
-110
-110
-109
-109
-108
-107
-106
-105
-105
-104
-103
-103
-102
-101
-101
-100
-99
-99
-98
-97
-97
-97
-97
-97
-97
-97
-98
-98
-98
-99
-100
-101
-102
-103
-104
-105
-106
-107
-108
-109
-110
-111
-111
-112
-112
-112
-111
-110
-109
-108
-106
-104
-102
-100
-98
-96
-94
-92
-90
-89
-87
-86
-85
-85
-85
-86
-87
-89
-91
-93
-96
-99
-103
-108
-112
-118
-123
-129
-135
-141
-148
-154
-161
-168
-175
-182
-189
-196
-204
-211
-219
-226
-234
-242
-250
-257
-264
-271
-278
-284
-289
-294
-299
-302
-305
-306
-307
-307
-305
-303
-300
-297
-293
-288
-282
-276
-270
-264
-257
-250
-244
-238
-231
-225
-220
-215
-210
-206
-202
-198
-194
-191
-188
-184
-181
-178
-175
-171
-168
-164
-161
-157
-154
-150
-146
-143
-139
-136
-133
-129
-126
-123
-120
-117
-115
-112
-110
-108
-107
-105
-103
-101
-100
-98
-97
-95
-94
-92
-91
-90
-89
-88
-87
-86
-85
-84
-84
-83
-82
-81
-80
-80
-79
-79
-80
-80
-80
-80
-80
-81
-81
-82
-83
-84
-85
-86
-87
-88
-89
-89
-90
-90
-91
-92
-92
-93
-93
-92
-92
-92
-91
-91
-90
-90
-90
-90
-89
-89
-88
-88
-88
-87
-87
-87
-86
-86
-85
-85
-85
-85
-84
-84
-83
-83
-83
-82
-82
-82
-81
-81
-81
-80
-80
-80
-80
-80
-80
-80
-80
-80
-81
-81
-81
-82
-82
-82
-82
-83
-83
-83
-83
-83
-83
-83
-83
-83
-82
-82
-82
-81
-80
-80
-79
-78
-76
-75
-74
-73
-72
-71
-70
-69
-69
-70
-70
-70
-71
-71
-71
-72
-72
-73
-74
-75
-77
-78
-79
-80
-81
-82
-83
-84
-84
-84
-85
-85
-85
-84
-84
-84
-83
-83
-82
-82
-81
-81
-80
-80
-79
-78
-78
-77
-76
-76
-75
-74
-74
-73
-73
-73
-73
-72
-72
-72
-72
-72
-72
-71
-71
-71
-71
-71
-71
-71
-71
-71
-71
-71
-71
-71
-71
-71
-71
-71
-71
-71
-71
-72
-72
-72
-72
-72
-73
-73
-73
-74
-74
-74
-74
-74
-74
-74
-73
-73
-72
-72
-71
-71
-70
-69
-68
-67
-66
-66
-65
-65
-66
-66
-66
-66
-66
-66
-67
-67
-68
-69
-70
-71
-72
-73
-74
-74
-75
-75
-75
-75
-74
-74
-73
-73
-72
-72
-71
-71
-71
-70
-70
-69
-69
-68
-68
-68
-69
-69
-69
-70
-70
-71
-71
-72
-72
-72
-72
-73
-73
-73
-73
-72
-72
-71
-71
-70
-69
-68
-67
-67
-66
-65
-64
-63
-63
-62
-62
-62
-62
-62
-61
-61
-61
-61
-60
-60
-60
-60
-60
-60
-60
-60
-60
-59
-59
-59
-58
-58
-58
-58
-58
-58
-58
-58
-58
-59
-59
-60
-61
-61
-62
-63
-63
-64
-65
-65
-66
-66
-66
-66
-66
-65
-65
-65
-64
-64
-63
-63
-62
-61
-60
-60
-59
-59
-58
-58
-58
-58
-58
-59
-59
-60
-60
-61
-62
-62
-63
-64
-64
-65
-65
-66
-67
-67
-67
-67
-67
-67
-67
-66
-66
-65
-65
-64
-64
-63
-63
-62
-62
-62
-62
-61
-61
-61
-61
-61
-61
-61
-61
-61
-62
-62
-62
-62
-63
-63
-63
-63
-63
-64
-64
-64
-64
-64
-64
-65
-65
-65
-64
-64
-64
-64
-63
-63
-63
-63
-63
-62
-62
-62
-61
-61
-61
-61
-60
-60
-60
-60
-60
-60
-60
-60
-59
-59
-59
-59
-59
-59
-58
-58
-58
-57
-57
-57
-57
-57
-56
-56
-55
-55
-55
-55
-55
-55
-54
-54
-54
-54
-53
-53
-53
-54
-54
-54
-54
-54
-54
-53
-53
-53
-53
-53
-53
-53
-54
-54
-54
-54
-55
-55
-56
-56
-57
-57
-58
-58
-59
-59
-60
-60
-61
-61
-61
-61
-61
-61
-61
-61
-60
-60
-59
-58
-57
-56
-56
-54
-53
-52
-51
-50
-49
-48
-47
-46
-45
-43
-42
-41
-41
-40
-39
-39
-39
-39
-39
-40
-40
-40
-41
-41
-42
-43
-45
-46
-48
-49
-50
-52
-53
-54
-55
-55
-56
-57
-57
-57
-57
-57
-57
-56
-56
-55
-55
-54
-53
-52
-52
-51
-50
-50
-49
-49
-48
-48
-47
-47
-47
-47
-47
-47
-48
-48
-48
-48
-49
-49
-49
-49
-49
-49
-49
-49
-49
-50
-51
-51
-51
-51
-51
-51
-51
-51
-50
-50
-50
-51
-51
-51
-51
-51
-51
-51
-51
-51
-50
-50
-50
-50
-50
-50
-50
-50
-50
-50
-50
-49
-49
-49
-49
-49
-48
-48
-48
-49
-49
-49
-49
-48
-48
-48
-48
-48
-48
-48
-47
-47
-47
-47
-46
-45
-44
-43
-42
-41
-40
-39
-37
-36
-35
-33
-32
-31
-30
-29
-29
-28
-28
-28
-27
-27
-27
-27
-27
-27
-27
-27
-27
-27
-26
-26
-25
-24
-23
-22
-21
-20
-19
-18
-18
-17
-17
-17
-17
-18
-18
-19
-20
-21
-23
-25
-26
-28
-29
-31
-33
-34
-35
-37
-38
-39
-40
-40
-40
-40
-40
-39
-38
-38
-37
-36
-36
-35
-35
-34
-33
-32
-31
-30
-30
-29
-28
-28
-28
-28
-28
-28
-28
-29
-29
-30
-30
-31
-31
-32
-32
-33
-34
-35
-36
-37
-37
-38
-39
-39
-40
-40
-40
-40
-40
-40
-40
-40
-40
-40
-40
-40
-39
-39
-39
-39
-38
-38
-38
-38
-38
-38
-38
-38
-39
-39
-39
-40
-40
-40
-40
-41
-41
-41
-42
-42
-43
-43
-44
-44
-45
-45
-45
-45
-44
-44
-44
-44
-44
-45
-45
-45
-45
-45
-45
-45
-45
-44
-44
-44
-44
-45
-45
-45
-46
-46
-46
-47
-47
-47
-47
-47
-46
-46
-46
-46
-46
-46
-45
-45
-45
-45
-45
-45
-45
-45
-45
-46
-46
-46
-47
-47
-47
-46
-46
-46
-45
-45
-44
-44
-43
-42
-41
-40
-39
-38
-37
-36
-36
-35
-35
-34
-34
-34
-34
-34
-33
-33
-33
-33
-33
-33
-33
-32
-32
-32
-31
-31
-30
-30
-30
-30
-31
-32
-34
-36
-38
-41
-45
-48
-53
-57
-62
-67
-72
-77
-82
-87
-92
-98
-104
-111
-117
-124
-131
-137
-144
-151
-158
-165
-172
-179
-187
-195
-203
-210
-218
-225
-231
-237
-243
-248
-251
-254
-256
-256
-256
-255
-253
-250
-246
-241
-236
-230
-224
-217
-210
-204
-197
-190
-183
-177
-171
-165
-159
-154
-149
-145
-140
-136
-132
-127
-123
-119
-115
-111
-107
-103
-100
-96
-92
-89
-85
-81
-77
-73
-70
-67
-64
-62
-59
-57
-55
-53
-52
-50
-49
-47
-46
-45
-43
-42
-41
-39
-38
-37
-36
-34
-33
-32
-32
-31
-31
-30
-31
-31
-31
-31
-32
-33
-33
-34
-34
-35
-36
-36
-37
-37
-38
-38
-38
-38
-38
-37
-37
-36
-35
-34
-33
-32
-31
-31
-30
-30
-29
-29
-29
-29
-29
-28
-28
-28
-29
-29
-30
-30
-31
-31
-32
-33
-33
-34
-35
-36
-37
-37
-38
-38
-38
-38
-37
-37
-36
-36
-35
-34
-33
-32
-31
-30
-28
-27
-26
-25
-24
-24
-23
-23
-22
-22
-22
-23
-23
-23
-24
-24
-24
-25
-26
-26
-26
-26
-26
-26
-26
-25
-25
-24
-24
-23
-22
-22
-22
-22
-22
-22
-23
-24
-25
-25
-26
-27
-29
-30
-31
-33
-34
-36
-37
-38
-39
-40
-41
-42
-42
-42
-42
-42
-41
-41
-40
-40
-39
-38
-38
-37
-36
-36
-35
-35
-34
-33
-32
-32
-31
-31
-31
-31
-31
-31
-31
-31
-31
-31
-31
-31
-31
-31
-31
-31
-31
-31
-31
-31
-31
-31
-31
-30
-30
-30
-30
-30
-29
-29
-29
-29
-29
-29
-29
-29
-29
-29
-29
-29
-29
-29
-29
-29
-29
-29
-30
-30
-30
-30
-30
-30
-30
-30
-30
-30
-30
-30
-29
-29
-28
-28
-27
-27
-27
-27
-26
-27
-27
-27
-27
-27
-27
-28
-28
-29
-30
-30
-31
-32
-33
-33
-34
-34
-35
-35
-35
-35
-34
-34
-34
-33
-33
-33
-32
-32
-32
-32
-32
-32
-32
-32
-32
-32
-33
-34
-34
-35
-35
-35
-36
-36
-36
-37
-37
-37
-37
-37
-36
-36
-35
-35
-34
-34
-33
-32
-32
-31
-31
-31
-30
-30
-30
-30
-29
-29
-29
-29
-29
-29
-29
-29
-29
-29
-29
-28
-28
-28
-28
-27
-27
-27
-27
-26
-26
-25
-25
-25
-25
-24
-24
-24
-24
-24
-25
-25
-26
-27
-28
-29
-29
-30
-31
-32
-32
-33
-34
-35
-36
-37
-38
-39
-39
-40
-40
-41
-41
-41
-41
-41
-41
-40
-40
-40
-40
-40
-39
-39
-38
-38
-37
-37
-36
-36
-35
-35
-34
-34
-33
-33
-32
-32
-33
-33
-33
-33
-33
-33
-34
-34
-34
-34
-35
-35
-36
-36
-37
-37
-38
-38
-38
-38
-39
-39
-39
-39
-39
-39
-39
-39
-39
-39
-39
-39
-39
-39
-38
-38
-38
-37
-37
-37
-37
-37
-37
-37
-37
-37
-37
-37
-37
-37
-37
-37
-37
-37
-37
-37
-37
-37
-37
-37
-36
-35
-35
-34
-34
-34
-34
-34
-34
-33
-33
-33
-32
-32
-32
-32
-32
-33
-33
-33
-34
-34
-35
-36
-36
-36
-37
-37
-38
-38
-38
-39
-39
-39
-39
-38
-38
-37
-37
-36
-36
-35
-35
-34
-34
-33
-33
-33
-33
-32
-32
-33
-33
-34
-34
-35
-35
-35
-36
-36
-37
-37
-38
-38
-39
-39
-39
-39
-39
-40
-40
-40
-40
-39
-39
-39
-39
-39
-39
-39
-40
-40
-40
-40
-40
-40
-40
-40
-41
-41
-41
-41
-41
-41
-41
-41
-41
-41
-40
-40
-39
-39
-38
-38
-37
-37
-36
-35
-35
-34
-33
-32
-31
-31
-30
-29
-29
-28
-28
-28
-28
-28
-28
-29
-29
-29
-29
-30
-30
-31
-32
-32
-33
-34
-35
-35
-36
-37
-37
-38
-38
-38
-39
-39
-39
-39
-38
-38
-38
-38
-37
-37
-36
-35
-34
-33
-32
-32
-31
-30
-30
-30
-30
-30
-29
-29
-29
-29
-29
-28
-28
-28
-29
-29
-30
-31
-32
-32
-33
-33
-33
-34
-35
-35
-36
-37
-38
-39
-39
-40
-41
-42
-42
-43
-44
-45
-45
-45
-45
-46
-46
-46
-46
-45
-45
-45
-44
-44
-43
-43
-42
-41
-40
-39
-38
-37
-36
-35
-34
-33
-32
-31
-30
-29
-28
-27
-27
-26
-26
-25
-25
-25
-25
-25
-26
-26
-26
-27
-27
-27
-28
-28
-29
-29
-29
-29
-29
-29
-28
-28
-27
-26
-25
-24
-23
-22
-21
-20
-18
-17
-16
-14
-13
-12
-12
-12
-11
-11
-11
-11
-12
-13
-14
-15
-16
-17
-18
-20
-21
-23
-24
-26
-27
-29
-30
-31
-32
-32
-32
-33
-33
-33
-33
-32
-32
-32
-31
-31
-30
-30
-29
-28
-27
-27
-26
-26
-26
-25
-25
-25
-25
-25
-25
-26
-26
-26
-27
-27
-28
-29
-30
-31
-32
-33
-34
-35
-36
-37
-38
-39
-40
-40
-41
-42
-42
-43
-43
-43
-44
-44
-44
-44
-44
-44
-43
-43
-43
-43
-42
-42
-42
-41
-41
-41
-40
-40
-40
-41
-41
-41
-41
-41
-41
-41
-41
-42
-43
-43
-44
-44
-45
-45
-46
-46
-47
-48
-49
-49
-50
-51
-51
-51
-52
-52
-51
-51
-51
-50
-50
-49
-48
-48
-47
-47
-47
-46
-45
-45
-44
-43
-43
-43
-43
-43
-43
-44
-44
-45
-46
-47
-48
-49
-49
-50
-51
-52
-53
-54
-55
-56
-57
-57
-57
-58
-58
-57
-57
-57
-56
-55
-54
-53
-52
-51
-50
-49
-48
-47
-46
-45
-44
-43
-43
-42
-42
-42
-42
-42
-41
-41
-41
-41
-41
-41
-41
-41
-40
-40
-40
-40
-40
-40
-41
-42
-43
-44
-46
-48
-51
-54
-58
-62
-66
-70
-75
-80
-86
-93
-100
-107
-114
-121
-128
-136
-144
-151
-159
-168
-176
-184
-192
-200
-208
-215
-223
-230
-236
-243
-248
-253
-258
-261
-264
-266
-266
-266
-265
-263
-260
-256
-252
-247
-241
-235
-228
-221
-213
-206
-198
-191
-184
-177
-170
-164
-158
-153
-149
-145
-141
-138
-135
-132
-130
-127
-125
-123
-121
-119
-117
-115
-113
-110
-108
-106
-103
-101
-98
-95
-93
-90
-87
-85
-82
-80
-77
-75
-73
-71
-70
-68
-67
-66
-65
-64
-63
-62
-61
-60
-60
-59
-58
-58
-57
-57
-57
-56
-56
-55
-55
-54
-53
-53
-52
-52
-51
-50
-49
-49
-48
-48
-47
-47
-47
-46
-46
-45
-45
-45
-45
-45
-45
-45
-44
-44
-44
-44
-45
-45
-46
-47
-48
-50
-51
-53
-55
-57
-58
-60
-61
-63
-64
-66
-67
-68
-68
-69
-68
-68
-67
-66
-65
-64
-62
-61
-59
-57
-55
-53
-52
-51
-50
-49
-49
-48
-48
-49
-49
-50
-51
-52
-53
-54
-55
-56
-57
-58
-59
-59
-59
-60
-60
-60
-60
-60
-59
-59
-58
-58
-57
-57
-57
-56
-56
-56
-56
-57
-57
-57
-58
-58
-59
-59
-60
-60
-61
-61
-61
-61
-61
-61
-61
-61
-60
-60
-59
-58
-57
-56
-55
-54
-53
-52
-51
-51
-51
-50
-50
-50
-50
-50
-50
-51
-52
-53
-54
-55
-56
-57
-58
-59
-60
-61
-61
-62
-63
-64
-65
-66
-66
-67
-67
-67
-67
-67
-67
-67
-67
-67
-67
-67
-67
-66
-66
-65
-65
-64
-63
-63
-62
-61
-60
-60
-59
-58
-58
-57
-56
-56
-55
-55
-55
-55
-55
-55
-55
-56
-56
-56
-57
-57
-58
-59
-60
-60
-61
-62
-62
-63
-64
-64
-65
-65
-65
-65
-65
-65
-64
-64
-63
-63
-62
-62
-61
-61
-60
-60
-60
-59
-59
-58
-58
-58
-59
-59
-60
-60
-61
-61
-61
-62
-62
-63
-63
-64
-65
-65
-65
-65
-65
-65
-65
-66
-66
-66
-66
-66
-66
-66
-65
-65
-65
-65
-64
-64
-64
-64
-64
-64
-63
-63
-63
-63
-63
-63
-62
-62
-62
-63
-63
-63
-63
-63
-64
-64
-64
-64
-63
-63
-63
-62
-62
-62
-62
-63
-63
-63
-63
-63
-62
-62
-62
-62
-62
-62
-62
-62
-62
-62
-62
-62
-62
-62
-62
-61
-61
-62
-62
-62
-62
-63
-63
-63
-64
-65
-65
-66
-67
-67
-68
-69
-70
-71
-72
-72
-73
-73
-74
-74
-75
-75
-75
-75
-76
-76
-76
-76
-76
-76
-76
-76
-76
-76
-76
-75
-75
-75
-75
-75
-75
-74
-73
-73
-72
-71
-71
-71
-70
-70
-70
-69
-69
-69
-69
-69
-69
-69
-69
-69
-69
-70
-70
-70
-70
-71
-71
-72
-72
-72
-73
-73
-73
-73
-73
-74
-74
-74
-74
-74
-75
-75
-75
-76
-76
-76
-76
-76
-76
-76
-76
-76
-77
-77
-77
-77
-77
-76
-76
-76
-76
-76
-75
-75
-75
-75
-74
-74
-74
-74
-74
-73
-73
-72
-71
-70
-69
-69
-68
-67
-67
-67
-67
-68
-68
-68
-69
-69
-70
-70
-71
-72
-74
-75
-76
-77
-78
-79
-80
-80
-81
-82
-82
-82
-82
-82
-81
-81
-81
-80
-80
-79
-78
-77
-77
-76
-75
-75
-74
-73
-72
-71
-70
-69
-68
-67
-66
-65
-64
-64
-63
-63
-62
-62
-62
-62
-63
-63
-64
-64
-65
-66
-67
-68
-69
-70
-70
-71
-72
-72
-72
-73
-73
-73
-73
-73
-74
-74
-74
-74
-74
-74
-74
-74
-74
-74
-75
-75
-75
-75
-76
-76
-76
-76
-75
-75
-75
-75
-74
-74
-74
-73
-73
-73
-72
-72
-72
-71
-71
-71
-71
-71
-71
-72
-72
-73
-73
-74
-74
-74
-74
-75
-75
-75
-75
-75
-75
-76
-76
-76
-76
-76
-76
-76
-76
-76
-76
-76
-76
-76
-76
-76
-76
-76
-76
-76
-76
-76
-76
-75
-75
-75
-74
-74
-73
-72
-72
-71
-70
-69
-69
-69
-69
-69
-70
-70
-70
-71
-71
-71
-72
-73
-74
-75
-76
-77
-78
-79
-80
-81
-82
-83
-83
-84
-84
-84
-84
-84
-84
-84
-83
-83
-83
-82
-81
-80
-79
-79
-78
-77
-76
-75
-74
-73
-72
-71
-70
-70
-69
-69
-69
-69
-69
-70
-69
-69
-70
-70
-70
-70
-70
-70
-70
-70
-70
-70
-70
-69
-69
-68
-68
-67
-66
-65
-65
-64
-63
-62
-62
-61
-60
-59
-59
-58
-57
-56
-55
-55
-54
-53
-53
-52
-52
-52
-52
-52
-52
-52
-52
-52
-52
-53
-54
-55
-56
-57
-58
-59
-60
-60
-61
-62
-62
-63
-64
-64
-65
-65
-65
-65
-65
-64
-64
-63
-63
-62
-62
-61
-61
-60
-59
-59
-59
-59
-59
-60
-60
-61
-61
-62
-62
-63
-64
-66
-67
-68
-70
-71
-73
-74
-75
-76
-77
-78
-80
-81
-82
-83
-83
-84
-84
-84
-84
-84
-83
-83
-83
-83
-82
-82
-82
-82
-82
-82
-82
-82
-82
-82
-82
-82
-82
-82
-82
-82
-82
-83
-83
-83
-83
-82
-82
-82
-81
-80
-80
-79
-79
-78
-78
-78
-78
-79
-79
-79
-79
-80
-80
-81
-82
-83
-84
-85
-86
-86
-87
-88
-89
-89
-90
-90
-91
-91
-91
-91
-91
-91
-91
-91
-91
-91
-91
-91
-91
-91
-91
-90
-90
-89
-89
-88
-87
-87
-86
-85
-84
-83
-82
-82
-81
-80
-80
-79
-79
-79
-79
-80
-80
-81
-82
-83
-84
-85
-86
-87
-88
-89
-89
-90
-91
-91
-91
-91
-90
-89
-88
-87
-86
-85
-84
-82
-81
-80
-79
-78
-77
-77
-77
-78
-80
-81
-84
-86
-90
-94
-99
-104
-109
-115
-121
-128
-134
-141
-147
-154
-161
-168
-175
-182
-189
-196
-202
-209
-215
-221
-227
-233
-239
-245
-250
-255
-260
-265
-269
-272
-275
-277
-278
-278
-278
-277
-275
-272
-268
-264
-259
-254
-248
-242
-235
-228
-222
-215
-208
-202
-196
-191
-186
-181
-176
-172
-169
-166
-163
-161
-159
-157
-156
-154
-152
-151
-149
-147
-145
-143
-141
-139
-137
-135
-134
-132
-129
-127
-124
-122
-119
-116
-114
-111
-109
-107
-104
-102
-100
-98
-96
-94
-92
-90
-88
-86
-85
-83
-82
-81
-80
-80
-79
-79
-79
-79
-79
-79
-79
-79
-80
-80
-80
-81
-81
-82
-82
-82
-82
-82
-82
-82
-82
-82
-83
-83
-83
-83
-83
-83
-83
-83
-83
-83
-83
-83
-83
-83
-83
-83
-83
-83
-84
-84
-84
-84
-84
-84
-83
-83
-82
-81
-81
-80
-80
-79
-79
-79
-79
-79
-79
-79
-79
-79
-79
-78
-78
-78
-78
-78
-77
-77
-78
-78
-78
-78
-78
-78
-77
-77
-77
-77
-77
-77
-77
-77
-77
-78
-78
-78
-79
-79
-79
-79
-80
-80
-80
-80
-80
-80
-81
-81
-81
-80
-80
-80
-80
-79
-79
-78
-77
-77
-76
-75
-75
-75
-75
-74
-74
-74
-73
-73
-72
-72
-72
-72
-72
-72
-72
-73
-73
-74
-74
-75
-75
-76
-77
-78
-79
-80
-81
-82
-83
-84
-85
-86
-87
-88
-88
-88
-88
-88
-88
-88
-87
-87
-86
-85
-84
-83
-82
-81
-81
-80
-79
-78
-77
-76
-76
-76
-76
-76
-76
-77
-77
-77
-77
-78
-78
-79
-79
-79
-79
-79
-79
-79
-79
-79
-79
-79
-79
-79
-78
-78
-78
-78
-77
-77
-77
-77
-77
-77
-77
-78
-78
-79
-79
-79
-79
-80
-80
-80
-80
-80
-81
-81
-81
-81
-80
-80
-80
-80
-80
-80
-81
-81
-81
-82
-82
-82
-83
-84
-84
-85
-85
-86
-87
-87
-88
-88
-89
-90
-90
-90
-91
-91
-90
-90
-89
-89
-88
-88
-87
-87
-86
-86
-85
-84
-83
-82
-81
-80
-79
-78
-77
-77
-76
-75
-75
-74
-74
-73
-73
-73
-73
-73
-73
-73
-73
-73
-73
-73
-74
-74
-75
-75
-76
-76
-77
-77
-77
-78
-78
-78
-78
-78
-78
-78
-78
-79
-79
-79
-79
-79
-79
-79
-79
-79
-79
-79
-79
-79
-79
-79
-79
-79
-79
-79
-79
-79
-79
-78
-78
-78
-78
-78
-79
-79
-79
-79
-80
-80
-81
-81
-81
-82
-82
-83
-83
-84
-85
-85
-86
-86
-87
-87
-87
-87
-87
-87
-87
-88
-88
-87
-87
-87
-87
-87
-88
-88
-88
-88
-88
-87
-87
-87
-86
-86
-85
-85
-85
-84
-84
-84
-83
-83
-82
-82
-82
-82
-82
-81
-81
-82
-82
-82
-82
-82
-83
-83
-83
-83
-83
-83
-83
-82
-82
-82
-82
-82
-83
-83
-83
-83
-84
-84
-85
-85
-86
-87
-88
-88
-89
-90
-91
-91
-92
-93
-93
-93
-94
-94
-94
-94
-94
-93
-93
-92
-92
-91
-91
-90
-90
-89
-88
-87
-87
-86
-86
-85
-85
-85
-85
-84
-84
-84
-84
-84
-84
-84
-85
-85
-86
-87
-87
-88
-88
-89
-89
-90
-91
-91
-91
-91
-91
-91
-91
-90
-90
-90
-89
-89
-88
-87
-87
-85
-84
-83
-81
-80
-79
-78
-77
-77
-76
-76
-76
-76
-76
-76
-77
-78
-79
-80
-81
-82
-84
-85
-86
-88
-90
-91
-93
-94
-95
-96
-97
-97
-98
-98
-98
-98
-98
-98
-97
-97
-96
-96
-95
-94
-94
-92
-91
-90
-89
-88
-87
-87
-86
-85
-85
-84
-84
-83
-83
-82
-82
-82
-82
-81
-82
-82
-82
-82
-83
-83
-83
-82
-82
-82
-82
-82
-83
-83
-84
-84
-85
-85
-85
-86
-86
-87
-88
-89
-90
-91
-92
-92
-93
-94
-95
-96
-96
-97
-97
-97
-97
-97
-97
-97
-96
-96
-96
-95
-95
-95
-94
-94
-94
-93
-93
-92
-92
-91
-91
-91
-91
-91
-90
-90
-90
-90
-90
-91
-91
-91
-92
-92
-93
-93
-94
-94
-94
-94
-95
-95
-95
-95
-95
-95
-95
-95
-94
-94
-93
-92
-91
-91
-90
-89
-89
-88
-87
-87
-86
-86
-85
-85
-84
-83
-82
-81
-81
-80
-79
-78
-78
-77
-76
-75
-74
-74
-74
-73
-73
-72
-72
-72
-71
-72
-72
-73
-73
-74
-74
-75
-75
-75
-76
-76
-77
-77
-77
-77
-78
-78
-78
-78
-78
-78
-78
-78
-78
-78
-78
-79
-79
-79
-79
-79
-80
-80
-80
-80
-80
-79
-78
-78
-77
-77
-76
-76
-76
-76
-75
-75
-74
-74
-74
-74
-74
-74
-74
-75
-75
-76
-76
-77
-78
-78
-79
-79
-79
-79
-79
-78
-78
-77
-77
-77
-76
-76
-76
-76
-76
-75
-75
-76
-76
-76
-76
-77
-77
-77
-77
-77
-77
-77
-78
-78
-79
-80
-81
-81
-82
-82
-83
-83
-84
-85
-86
-88
-89
-90
-91
-93
-94
-95
-96
-97
-97
-98
-98
-99
-100
-100
-100
-100
-101
-101
-102
-102
-103
-104
-105
-105
-106
-106
-106
-107
-107
-107
-107
-106
-106
-105
-104
-103
-102
-101
-99
-98
-97
-96
-95
-94
-93
-92
-91
-91
-91
-91
-91
-92
-92
-93
-94
-95
-96
-97
-98
-99
-100
-101
-102
-103
-104
-105
-106
-106
-106
-106
-106
-106
-105
-105
-104
-103
-102
-102
-101
-100
-99
-98
-97
-96
-94
-93
-93
-92
-91
-90
-90
-90
-90
-91
-91
-92
-92
-93
-94
-94
-95
-95
-96
-96
-97
-98
-98
-98
-98
-99
-99
-98
-98
-98
-97
-97
-96
-95
-93
-92
-91
-89
-88
-87
-86
-86
-86
-86
-87
-89
-91
-94
-97
-100
-104
-108
-113
-119
-126
-132
-140
-147
-155
-163
-170
-178
-187
-195
-203
-210
-218
-226
-233
-240
-247
-254
-261
-267
-273
-279
-283
-288
-292
-295
-298
-299
-300
-299
-297
-294
-291
-287
-283
-278
-273
-267
-262
-256
-249
-243
-236
-230
-224
-218
-213
-208
-203
-199
-196
-192
-189
-187
-184
-181
-178
-175
-172
-169
-165
-162
-159
-156
-152
-150
-147
-144
-141
-139
-136
-134
-132
-130
-127
-125
-122
-119
-117
-114
-112
-109
-106
-102
-99
-95
-92
-89
-86
-84
-82
-80
-78
-76
-75
-74
-74
-74
-75
-76
-77
-78
-80
-81
-83
-85
-87
-88
-90
-91
-92
-93
-94
-94
-94
-94
-95
-95
-95
-95
-95
-95
-95
-95
-95
-95
-96
-96
-96
-97
-97
-96
-96
-96
-95
-95
-94
-94
-93
-93
-92
-91
-90
-89
-88
-87
-85
-84
-83
-83
-82
-82
-81
-81
-81
-81
-81
-82
-82
-83
-83
-84
-85
-85
-86
-87
-88
-88
-89
-90
-91
-92
-93
-94
-95
-95
-96
-96
-96
-96
-96
-95
-94
-94
-93
-92
-90
-88
-86
-84
-82
-80
-78
-76
-74
-72
-70
-69
-68
-67
-67
-66
-66
-66
-67
-68
-69
-70
-71
-72
-74
-75
-77
-78
-80
-81
-83
-84
-85
-87
-88
-89
-89
-90
-90
-90
-90
-90
-89
-89
-89
-88
-88
-88
-87
-86
-85
-83
-82
-81
-80
-80
-80
-79
-79
-79
-79
-79
-79
-79
-79
-80
-80
-80
-81
-81
-81
-81
-81
-81
-82
-81
-81
-81
-81
-81
-81
-81
-81
-81
-81
-81
-81
-81
-81
-80
-80
-79
-79
-78
-78
-77
-76
-75
-74
-73
-73
-72
-72
-72
-72
-72
-72
-72
-73
-74
-75
-77
-78
-80
-81
-82
-84
-85
-86
-87
-88
-89
-89
-90
-90
-90
-89
-89
-88
-87
-86
-85
-84
-83
-82
-81
-79
-78
-77
-77
-76
-76
-76
-76
-75
-75
-75
-75
-75
-76
-77
-78
-79
-80
-81
-82
-83
-83
-84
-85
-85
-85
-86
-86
-86
-86
-87
-87
-87
-87
-86
-86
-86
-86
-86
-86
-86
-86
-85
-85
-85
-85
-85
-85
-85
-85
-85
-85
-84
-84
-84
-84
-84
-83
-83
-82
-82
-81
-80
-80
-79
-78
-78
-77
-76
-76
-75
-75
-74
-74
-74
-74
-74
-75
-75
-76
-76
-77
-78
-80
-81
-82
-83
-84
-84
-85
-86
-86
-87
-87
-87
-87
-87
-87
-86
-86
-85
-84
-84
-83
-83
-82
-82
-82
-82
-82
-82
-83
-83
-83
-84
-85
-85
-86
-87
-88
-88
-89
-90
-90
-91
-91
-92
-92
-92
-92
-92
-93
-93
-93
-93
-93
-93
-93
-93
-92
-92
-92
-91
-90
-90
-89
-88
-88
-87
-86
-86
-85
-85
-85
-84
-84
-83
-83
-83
-83
-83
-83
-84
-84
-84
-84
-84
-85
-85
-86
-86
-86
-87
-87
-87
-87
-87
-87
-88
-88
-88
-88
-88
-88
-89
-89
-89
-89
-89
-89
-89
-89
-89
-88
-88
-88
-88
-87
-87
-87
-87
-87
-87
-87
-87
-87
-87
-86
-86
-85
-85
-85
-85
-84
-84
-84
-83
-83
-83
-83
-82
-82
-82
-82
-82
-82
-83
-83
-83
-84
-84
-85
-85
-86
-86
-87
-88
-88
-89
-89
-90
-90
-90
-90
-90
-90
-90
-90
-90
-90
-90
-89
-89
-88
-88
-87
-87
-86
-86
-85
-85
-85
-85
-85
-85
-85
-85
-86
-86
-86
-87
-87
-88
-88
-88
-88
-88
-88
-88
-88
-88
-88
-88
-88
-88
-87
-87
-87
-86
-85
-85
-84
-84
-83
-82
-82
-81
-81
-81
-81
-81
-81
-82
-82
-82
-82
-82
-83
-84
-84
-85
-86
-87
-89
-90
-91
-91
-92
-93
-93
-93
-93
-93
-93
-93
-93
-92
-92
-91
-91
-90
-89
-89
-88
-88
-88
-88
-88
-88
-88
-88
-87
-87
-88
-88
-88
-89
-89
-90
-90
-91
-91
-91
-91
-90
-90
-90
-89
-89
-89
-88
-88
-87
-86
-86
-85
-84
-84
-83
-82
-82
-82
-81
-81
-81
-81
-81
-81
-81
-81
-82
-83
-83
-84
-85
-85
-86
-87
-88
-88
-89
-90
-91
-92
-92
-93
-93
-93
-93
-93
-93
-92
-92
-91
-91
-90
-89
-89
-88
-87
-86
-85
-84
-83
-82
-82
-81
-81
-81
-81
-82
-82
-83
-83
-84
-84
-85
-85
-85
-86
-86
-86
-87
-87
-87
-86
-86
-85
-85
-84
-83
-82
-80
-79
-78
-77
-76
-75
-74
-73
-72
-71
-70
-69
-68
-67
-67
-66
-66
-65
-65
-64
-64
-64
-63
-63
-63
-63
-63
-63
-64
-64
-65
-65
-65
-66
-66
-66
-67
-67
-68
-69
-69
-70
-70
-70
-71
-71
-72
-73
-73
-74
-74
-74
-75
-75
-75
-76
-76
-76
-76
-77
-77
-77
-77
-77
-77
-78
-78
-77
-77
-76
-76
-75
-74
-73
-73
-72
-72
-71
-71
-70
-69
-69
-68
-68
-69
-69
-70
-70
-71
-72
-73
-74
-76
-78
-80
-82
-83
-85
-87
-88
-90
-91
-92
-93
-93
-94
-94
-94
-94
-93
-92
-92
-90
-89
-88
-87
-86
-85
-84
-83
-82
-82
-82
-82
-82
-82
-83
-83
-83
-84
-86
-87
-88
-90
-91
-92
-93
-94
-95
-97
-98
-99
-99
-100
-100
-99
-99
-98
-98
-97
-96
-95
-94
-92
-91
-90
-88
-86
-85
-83
-81
-80
-79
-79
-78
-78
-79
-79
-79
-80
-81
-81
-83
-84
-85
-87
-89
-91
-93
-94
-96
-97
-98
-99
-100
-100
-100
-100
-100
-100
-99
-99
-98
-98
-97
-97
-96
-95
-94
-94
-93
-92
-92
-91
-91
-91
-91
-90
-90
-90
-90
-90
-90
-90
-89
-89
-88
-87
-87
-86
-85
-84
-83
-82
-81
-80
-80
-80
-81
-81
-82
-82
-83
-85
-87
-89
-92
-96
-101
-106
-111
-116
-122
-127
-133
-139
-146
-153
-160
-168
-175
-182
-190
-198
-206
-213
-221
-229
-237
-244
-251
-258
-265
-271
-277
-282
-287
-291
-294
-297
-298
-299
-299
-298
-296
-293
-290
-286
-281
-276
-270
-264
-258
-252
-246
-239
-233
-227
-221
-215
-209
-204
-199
-194
-190
-186
-182
-178
-174
-171
-167
-164
-160
-157
-154
-151
-148
-145
-142
-140
-137
-134
-132
-129
-126
-124
-121
-119
-116
-114
-111
-109
-107
-104
-102
-100
-98
-95
-93
-92
-90
-89
-88
-87
-86
-85
-85
-85
-85
-85
-85
-86
-86
-86
-86
-87
-87
-88
-88
-89
-89
-89
-89
-89
-88
-88
-87
-87
-87
-87
-87
-87
-87
-87
-87
-87
-87
-87
-87
-87
-87
-87
-87
-87
-87
-87
-87
-87
-86
-86
-85
-85
-84
-83
-82
-81
-80
-79
-78
-78
-77
-77
-77
-77
-77
-77
-77
-78
-78
-79
-80
-81
-82
-83
-84
-85
-86
-87
-88
-88
-89
-89
-89
-89
-89
-88
-87
-86
-85
-84
-83
-81
-80
-79
-77
-76
-75
-74
-73
-72
-72
-72
-72
-73
-73
-74
-75
-75
-76
-77
-79
-80
-82
-84
-85
-87
-88
-89
-90
-90
-91
-91
-91
-91
-91
-91
-91
-90
-90
-89
-88
-88
-87
-86
-85
-84
-84
-83
-82
-81
-80
-80
-79
-78
-77
-77
-76
-75
-75
-74
-73
-72
-71
-71
-70
-70
-69
-69
-69
-69
-69
-69
-70
-70
-71
-71
-71
-72
-72
-73
-74
-75
-76
-77
-78
-79
-80
-81
-82
-82
-83
-83
-84
-84
-85
-85
-85
-85
-86
-86
-85
-85
-85
-84
-83
-82
-82
-81
-80
-79
-78
-78
-77
-77
-77
-77
-77
-76
-76
-76
-76
-77
-77
-77
-78
-78
-79
-79
-80
-80
-81
-81
-81
-81
-81
-81
-81
-81
-81
-81
-81
-81
-81
-81
-81
-81
-81
-81
-82
-82
-82
-82
-82
-82
-82
-82
-81
-81
-81
-80
-80
-80
-79
-79
-79
-79
-78
-78
-78
-78
-78
-78
-79
-79
-79
-80
-80
-81
-81
-81
-81
-81
-81
-81
-81
-80
-80
-79
-78
-77
-77
-76
-75
-74
-73
-72
-72
-71
-71
-71
-71
-71
-71
-71
-72
-72
-72
-73
-73
-73
-73
-73
-73
-73
-73
-73
-72
-72
-72
-72
-71
-71
-71
-70
-70
-70
-70
-70
-69
-69
-69
-69
-69
-69
-70
-70
-70
-70
-71
-71
-71
-71
-71
-71
-71
-71
-71
-71
-72
-72
-73
-73
-73
-73
-73
-73
-73
-74
-74
-74
-74
-74
-75
-75
-75
-76
-76
-77
-77
-77
-78
-78
-79
-79
-79
-79
-79
-79
-79
-79
-79
-78
-78
-77
-77
-76
-75
-74
-74
-73
-73
-73
-73
-72
-72
-73
-73
-73
-74
-74
-75
-75
-76
-77
-77
-77
-78
-78
-78
-78
-78
-77
-77
-76
-75
-75
-74
-74
-73
-73
-72
-71
-71
-70
-70
-70
-71
-72
-72
-73
-74
-74
-75
-76
-76
-77
-78
-78
-78
-78
-78
-78
-78
-78
-77
-77
-76
-75
-74
-74
-73
-72
-72
-71
-71
-70
-70
-70
-69
-69
-70
-70
-70
-70
-70
-70
-70
-70
-70
-70
-70
-69
-69
-69
-69
-68
-68
-67
-67
-66
-66
-66
-66
-66
-66
-66
-66
-66
-66
-66
-66
-66
-67
-67
-67
-67
-68
-68
-68
-69
-69
-69
-69
-69
-68
-68
-67
-66
-66
-65
-65
-64
-64
-64
-63
-63
-63
-63
-63
-63
-64
-65
-65
-66
-67
-68
-69
-70
-70
-71
-72
-72
-73
-74
-74
-74
-74
-74
-74
-73
-73
-72
-71
-71
-70
-70
-69
-69
-69
-69
-69
-68
-68
-68
-67
-67
-66
-66
-66
-66
-66
-66
-66
-65
-65
-65
-65
-65
-64
-64
-64
-65
-65
-65
-65
-65
-65
-65
-65
-65
-65
-65
-65
-65
-65
-65
-65
-64
-64
-64
-64
-64
-64
-64
-64
-64
-64
-64
-64
-65
-65
-65
-66
-66
-66
-66
-67
-67
-67
-67
-67
-66
-66
-66
-66
-66
-66
-66
-66
-66
-65
-65
-64
-64
-63
-63
-63
-63
-63
-63
-63
-62
-62
-62
-62
-62
-63
-63
-63
-63
-64
-64
-64
-64
-64
-64
-64
-64
-63
-63
-62
-62
-62
-61
-61
-61
-60
-60
-59
-59
-59
-59
-59
-59
-59
-59
-59
-59
-59
-60
-60
-61
-61
-62
-62
-62
-63
-63
-63
-63
-64
-64
-64
-65
-65
-65
-66
-66
-66
-65
-65
-64
-63
-63
-62
-61
-60
-59
-58
-58
-57
-56
-55
-55
-54
-53
-53
-52
-52
-52
-53
-53
-54
-54
-55
-56
-57
-58
-59
-60
-61
-62
-63
-64
-65
-66
-66
-67
-67
-68
-68
-68
-68
-68
-68
-68
-68
-67
-67
-66
-66
-65
-65
-64
-63
-63
-62
-62
-61
-61
-61
-60
-60
-60
-60
-60
-59
-59
-59
-59
-60
-60
-60
-60
-60
-60
-60
-59
-59
-59
-58
-58
-58
-57
-57
-56
-55
-55
-54
-53
-52
-51
-50
-48
-47
-46
-45
-44
-44
-44
-44
-44
-45
-45
-46
-47
-48
-49
-50
-52
-53
-54
-56
-57
-58
-60
-61
-61
-62
-62
-62
-62
-61
-60
-59
-58
-56
-55
-53
-52
-51
-49
-48
-47
-45
-44
-43
-42
-42
-41
-40
-40
-39
-39
-38
-38
-38
-38
-38
-39
-39
-39
-39
-39
-39
-39
-40
-40
-40
-40
-41
-41
-41
-41
-41
-41
-42
-42
-42
-42
-43
-43
-43
-44
-44
-45
-45
-46
-46
-46
-47
-47
-47
-47
-47
-47
-47
-47
-47
-46
-46
-46
-45
-45
-44
-44
-43
-43
-42
-42
-42
-41
-41
-41
-40
-40
-40
-41
-41
-41
-41
-41
-42
-42
-42
-42
-42
-43
-43
-43
-44
-45
-46
-47
-48
-48
-49
-50
-51
-51
-52
-53
-54
-55
-55
-56
-57
-58
-59
-59
-59
-60
-60
-61
-61
-61
-61
-61
-61
-61
-61
-61
-61
-60
-60
-60
-60
-61
-61
-62
-62
-63
-63
-63
-63
-63
-63
-64
-64
-65
-65
-66
-66
-67
-67
-67
-67
-67
-66
-66
-66
-65
-65
-65
-64
-64
-63
-63
-62
-62
-62
-61
-61
-61
-61
-61
-61
-60
-60
-61
-61
-61
-61
-61
-61
-62
-62
-62
-63
-63
-63
-63
-63
-63
-63
-63
-64
-64
-64
-63
-63
-62
-62
-61
-61
-60
-60
-59
-59
-58
-58
-57
-57
-56
-55
-54
-54
-53
-52
-52
-51
-50
-49
-48
-47
-46
-45
-44
-44
-43
-43
-43
-43
-44
-45
-46
-48
-50
-53
-55
-59
-63
-67
-72
-78
-84
-90
-96
-103
-110
-117
-124
-130
-137
-144
-151
-158
-165
-173
-180
-188
-196
-204
-211
-218
-226
-233
-239
-246
-252
-257
-263
-267
-271
-275
-277
-279
-279
-279
-278
-276
-273
-269
-264
-258
-252
-246
-239
-232
-224
-217
-210
-202
-194
-187
-180
-174
-168
-163
-158
-153
-149
-145
-141
-137
-134
-131
-128
-125
-123
-120
-118
-115
-112
-110
-107
-105
-102
-100
-97
-95
-92
-90
-87
-85
-82
-80
-77
-75
-73
-71
-69
-67
-66
-64
-63
-61
-60
-59
-58
-57
-56
-55
-54
-54
-53
-53
-53
-53
-53
-53
-53
-53
-53
-53
-54
-54
-55
-55
-55
-55
-56
-56
-56
-56
-56
-56
-56
-55
-55
-55
-55
-55
-55
-55
-54
-54
-53
-53
-52
-52
-52
-51
-51
-51
-51
-51
-51
-51
-51
-51
-51
-50
-50
-50
-50
-50
-50
-49
-49
-48
-48
-48
-49
-49
-50
-50
-50
-51
-51
-52
-52
-53
-54
-54
-55
-55
-56
-56
-57
-57
-57
-57
-56
-56
-55
-55
-54
-53
-53
-52
-51
-51
-50
-50
-49
-49
-49
-48
-48
-49
-49
-49
-50
-50
-51
-51
-52
-52
-52
-53
-53
-54
-54
-54
-55
-55
-55
-55
-55
-55
-55
-55
-54
-54
-54
-54
-53
-53
-52
-52
-52
-51
-51
-51
-50
-50
-50
-50
-50
-49
-49
-49
-49
-49
-50
-50
-50
-50
-50
-51
-51
-51
-51
-51
-51
-51
-51
-50
-50
-50
-49
-48
-47
-47
-46
-45
-45
-44
-43
-42
-42
-41
-41
-41
-41
-42
-42
-43
-43
-44
-45
-46
-47
-49
-49
-50
-51
-52
-53
-54
-54
-54
-54
-54
-54
-54
-54
-54
-54
-53
-53
-53
-53
-53
-53
-54
-54
-55
-56
-56
-57
-57
-58
-58
-59
-59
-60
-61
-61
-62
-61
-61
-61
-60
-60
-59
-59
-58
-58
-57
-57
-57
-56
-56
-56
-56
-55
-55
-55
-55
-55
-55
-55
-55
-55
-55
-55
-55
-55
-55
-55
-55
-55
-54
-54
-54
-53
-53
-52
-52
-51
-51
-51
-50
-50
-50
-50
-50
-50
-49
-49
-49
-49
-49
-48
-48
-48
-48
-49
-49
-50
-50
-50
-50
-50
-51
-51
-51
-51
-51
-52
-52
-52
-52
-52
-53
-53
-53
-53
-53
-53
-53
-53
-53
-53
-52
-52
-52
-51
-51
-50
-50
-50
-49
-49
-49
-49
-49
-48
-48
-48
-48
-48
-48
-49
-49
-50
-50
-51
-51
-52
-52
-53
-54
-54
-55
-56
-57
-58
-58
-58
-59
-59
-60
-60
-60
-60
-61
-61
-61
-61
-61
-61
-61
-60
-60
-60
-60
-59
-59
-58
-57
-57
-56
-55
-54
-54
-53
-53
-53
-52
-52
-51
-51
-50
-49
-49
-49
-49
-49
-50
-50
-51
-51
-52
-52
-52
-53
-53
-54
-55
-56
-56
-58
-59
-60
-61
-61
-62
-63
-63
-64
-64
-64
-64
-64
-64
-64
-64
-64
-64
-63
-63
-62
-62
-61
-60
-60
-59
-58
-58
-57
-57
-57
-57
-56
-56
-56
-55
-55
-54
-54
-53
-53
-53
-53
-53
-53
-53
-53
-53
-53
-53
-53
-53
-53
-53
-53
-54
-54
-54
-54
-54
-54
-54
-54
-55
-55
-55
-55
-56
-56
-56
-57
-57
-57
-58
-58
-59
-59
-60
-60
-60
-60
-60
-59
-59
-58
-56
-55
-54
-53
-52
-52
-51
-50
-50
-49
-48
-48
-47
-47
-47
-47
-48
-48
-50
-51
-52
-52
-53
-53
-54
-54
-55
-55
-55
-56
-56
-56
-56
-56
-57
-57
-58
-58
-58
-59
-59
-59
-60
-60
-60
-61
-61
-61
-62
-62
-62
-62
-62
-62
-62
-62
-62
-62
-62
-62
-61
-61
-61
-60
-60
-60
-60
-60
-60
-60
-60
-60
-60
-59
-59
-59
-59
-59
-60
-60
-60
-60
-60
-59
-59
-60
-60
-60
-60
-60
-60
-60
-59
-59
-59
-59
-58
-58
-57
-56
-55
-55
-54
-54
-55
-55
-55
-55
-55
-55
-55
-55
-56
-56
-57
-57
-57
-58
-58
-58
-58
-58
-58
-58
-57
-57
-56
-55
-54
-53
-53
-52
-51
-51
-50
-49
-49
-49
-48
-48
-48
-48
-47
-47
-47
-46
-46
-46
-45
-44
-44
-43
-42
-40
-39
-38
-37
-36
-35
-35
-34
-34
-33
-33
-33
-33
-33
-33
-34
-34
-35
-36
-37
-39
-40
-42
-43
-45
-46
-47
-49
-50
-51
-52
-53
-54
-55
-55
-56
-56
-56
-56
-56
-55
-54
-54
-53
-53
-52
-51
-51
-50
-49
-49
-48
-47
-47
-47
-46
-46
-46
-46
-46
-47
-47
-48
-49
-50
-51
-52
-53
-54
-56
-57
-58
-59
-60
-61
-62
-62
-63
-64
-64
-64
-64
-64
-64
-64
-64
-64
-63
-63
-63
-62
-62
-62
-62
-62
-62
-63
-63
-63
-63
-63
-63
-63
-63
-63
-63
-63
-62
-62
-62
-62
-62
-62
-62
-62
-62
-62
-62
-63
-63
-63
-64
-64
-65
-65
-66
-67
-67
-68
-69
-70
-71
-71
-72
-73
-73
-74
-74
-75
-75
-76
-77
-77
-78
-78
-78
-78
-78
-78
-78
-77
-77
-77
-76
-76
-75
-75
-74
-74
-73
-72
-71
-70
-69
-68
-68
-67
-67
-66
-66
-65
-65
-65
-65
-65
-66
-66
-66
-67
-67
-68
-68
-69
-69
-70
-71
-71
-72
-72
-73
-73
-73
-73
-73
-73
-72
-72
-71
-70
-68
-67
-65
-63
-61
-59
-57
-55
-54
-52
-51
-50
-50
-50
-51
-51
-53
-54
-57
-60
-64
-68
-73
-78
-83
-89
-96
-102
-109
-116
-123
-130
-137
-144
-151
-158
-165
-172
-180
-187
-195
-203
-210
-218
-226
-234
-241
-249
-256
-263
-269
-276
-282
-287
-291
-295
-297
-299
-299
-298
-296
-293
-289
-285
-279
-273
-267
-259
-252
-244
-236
-229
-221
-213
-206
-199
-192
-186
-181
-176
-171
-167
-164
-160
-157
-154
-151
-149
-146
-144
-141
-138
-135
-132
-129
-126
-123
-120
-117
-114
-111
-108
-106
-103
-101
-98
-96
-93
-91
-90
-88
-86
-85
-84
-83
-82
-81
-80
-79
-78
-76
-75
-74
-72
-71
-71
-70
-69
-68
-68
-67
-67
-66
-66
-66
-66
-66
-67
-67
-68
-68
-69
-70
-70
-71
-72
-73
-73
-74
-75
-75
-75
-75
-75
-74
-74
-73
-73
-73
-72
-72
-71
-70
-70
-69
-68
-67
-67
-66
-65
-65
-64
-64
-64
-63
-63
-63
-62
-62
-62
-61
-61
-61
-61
-61
-61
-61
-61
-61
-61
-62
-62
-62
-63
-63
-63
-64
-64
-64
-65
-65
-65
-65
-65
-65
-65
-65
-65
-65
-65
-65
-65
-65
-65
-66
-66
-66
-66
-66
-67
-67
-67
-67
-67
-68
-68
-68
-68
-68
-68
-68
-69
-69
-69
-69
-69
-69
-69
-68
-68
-69
-68
-68
-67
-67
-67
-66
-66
-65
-64
-63
-62
-61
-61
-60
-60
-60
-60
-59
-59
-59
-59
-60
-60
-61
-61
-62
-63
-64
-64
-65
-65
-66
-66
-66
-66
-66
-66
-66
-65
-65
-65
-64
-63
-63
-62
-62
-61
-61
-61
-60
-60
-59
-59
-59
-59
-59
-59
-59
-59
-59
-60
-60
-61
-61
-61
-62
-62
-63
-63
-64
-64
-65
-65
-66
-66
-66
-66
-67
-67
-67
-67
-67
-67
-67
-67
-67
-67
-67
-66
-66
-66
-66
-65
-65
-65
-65
-64
-64
-64
-63
-63
-63
-62
-62
-61
-61
-60
-60
-60
-60
-59
-59
-58
-58
-57
-57
-57
-56
-56
-56
-56
-55
-55
-55
-56
-56
-56
-56
-57
-57
-57
-58
-58
-59
-59
-60
-60
-61
-61
-61
-60
-60
-60
-59
-59
-59
-58
-58
-57
-56
-56
-55
-55
-54
-54
-54
-54
-54
-54
-54
-55
-55
-55
-55
-55
-55
-55
-55
-55
-54
-54
-54
-53
-53
-53
-52
-52
-51
-51
-51
-50
-50
-50
-50
-50
-51
-51
-51
-52
-53
-53
-54
-55
-55
-56
-56
-57
-57
-57
-57
-57
-57
-57
-57
-57
-58
-58
-58
-59
-59
-59
-59
-59
-59
-58
-58
-58
-57
-57
-56
-56
-55
-55
-54
-54
-53
-52
-51
-51
-50
-50
-49
-49
-49
-49
-49
-50
-50
-51
-51
-52
-52
-53
-53
-54
-55
-55
-56
-56
-56
-56
-57
-56
-56
-56
-56
-56
-56
-56
-56
-56
-55
-55
-54
-54
-53
-53
-52
-52
-52
-52
-51
-51
-51
-50
-50
-50
-50
-50
-50
-50
-50
-50
-50
-50
-50
-49
-49
-49
-48
-48
-47
-47
-46
-46
-45
-45
-44
-44
-44
-44
-44
-44
-44
-44
-44
-44
-43
-43
-43
-43
-44
-44
-44
-44
-44
-44
-44
-44
-43
-42
-42
-41
-41
-40
-40
-40
-40
-40
-40
-39
-39
-39
-39
-38
-38
-38
-38
-37
-37
-37
-36
-35
-35
-34
-33
-32
-31
-30
-29
-28
-27
-26
-25
-24
-24
-24
-23
-23
-23
-23
-23
-23
-24
-25
-26
-27
-28
-29
-30
-31
-32
-33
-34
-35
-35
-36
-36
-36
-35
-35
-35
-34
-33
-32
-32
-31
-30
-28
-26
-25
-23
-21
-19
-18
-18
-17
-16
-16
-16
-15
-15
-15
-15
-15
-15
-15
-16
-17
-18
-19
-19
-20
-20
-21
-21
-22
-22
-23
-23
-23
-24
-24
-24
-25
-25
-25
-25
-25
-24
-24
-24
-23
-22
-21
-20
-19
-18
-17
-16
-14
-13
-11
-9
-8
-7
-5
-4
-4
-3
-2
-2
-2
-1
-1
-1
-1
-1
-2
-2
-2
-3
-3
-3
-4
-4
-4
-4
-4
-4
-3
-3
-3
-2
-2
-1
-1
0
0
1
2
3
4
6
7
8
9
10
10
11
11
11
11
11
10
10
9
8
7
6
5
4
3
2
0
0
-1
-1
-2
-2
-2
-2
-2
-1
-1
0
0
1
2
3
4
6
7
9
10
12
13
15
16
17
19
20
21
22
23
24
25
26
27
27
28
28
28
28
27
27
27
26
25
25
24
24
23
22
22
21
21
20
19
18
18
18
18
18
18
19
19
20
21
22
23
25
26
28
30
32
35
37
39
42
44
46
48
49
50
51
52
53
54
54
55
55
54
54
53
52
51
51
50
49
49
49
49
50
51
51
52
53
54
56
57
58
60
62
63
65
67
68
69
70
71
71
72
72
73
73
73
73
74
74
74
73
73
73
72
72
72
72
72
72
72
72
72
72
71
71
71
71
70
70
70
70
70
70
70
71
71
71
72
72
73
73
74
74
74
75
75
76
77
77
78
78
79
80
80
80
80
80
80
80
80
80
79
79
78
78
78
77
77
76
76
75
75
75
75
75
75
75
76
76
77
78
78
79
80
82
83
83
84
85
85
85
86
86
87
87
87
87
87
86
86
85
85
84
83
82
81
80
79
78
77
77
76
75
75
74
74
73
73
73
73
74
74
75
77
78
79
81
82
84
86
88
89
91
92
93
94
95
96
97
97
98
98
99
98
98
97
96
96
95
95
95
94
94
94
94
93
93
93
93
93
93
94
94
94
95
96
97
97
98
99
100
101
103
104
105
106
107
108
109
110
111
112
113
114
115
116
118
119
120
121
121
122
123
123
124
125
125
126
126
125
125
123
122
120
117
114
111
107
102
97
91
85
79
73
66
60
53
46
39
32
25
18
11
4
-2
-9
-16
-23
-29
-36
-42
-48
-54
-59
-64
-69
-73
-76
-79
-80
-81
-82
-81
-79
-77
-73
-69
-64
-59
-53
-46
-40
-32
-25
-18
-11
-4
2
8
14
20
25
30
35
39
43
46
49
53
56
59
62
65
68
71
74
77
80
83
86
89
93
96
99
103
106
110
113
116
119
122
125
128
130
133
135
137
138
140
142
143
144
145
146
146
147
147
148
148
148
148
148
148
149
149
150
150
150
151
151
151
151
152
153
154
154
155
156
157
158
159
160
161
161
161
161
161
161
161
161
161
161
160
160
160
159
158
158
157
156
155
154
154
153
153
153
153
153
153
153
154
155
155
156
157
158
159
160
161
161
162
163
164
164
165
166
166
166
166
167
167
167
167
166
166
166
166
166
166
166
166
165
165
165
165
164
164
164
164
164
164
164
164
164
164
164
164
164
165
165
166
166
167
168
168
169
170
171
172
173
174
175
176
177
177
177
178
178
179
179
180
180
180
180
180
181
181
180
180
180
180
180
180
181
181
182
182
183
184
184
184
185
185
186
186
186
186
186
186
186
186
185
185
185
184
184
183
183
183
182
182
182
181
181
181
180
180
180
180
180
180
180
180
180
180
179
179
179
178
178
178
177
177
176
176
176
176
176
176
176
176
176
176
177
178
178
179
180
181
182
183
184
185
186
187
188
188
189
189
190
190
190
190
190
190
189
189
188
188
187
187
187
187
187
187
187
188
188
188
189
189
190
191
192
193
194
195
196
197
198
199
200
200
200
200
199
199
199
198
198
198
197
197
196
195
195
194
193
192
192
191
191
191
191
191
191
192
192
193
194
195
195
196
197
197
198
198
199
199
200
200
200
200
200
200
200
201
201
201
200
200
200
200
200
200
200
200
200
200
200
200
200
200
200
200
200
200
200
200
200
201
201
202
202
203
203
203
203
204
204
205
205
205
204
204
203
203
203
202
202
202
202
201
201
200
200
199
199
199
199
198
199
199
199
199
199
200
200
200
200
200
201
201
201
201
202
202
203
204
204
205
206
207
207
208
208
209
209
209
209
210
210
210
210
210
210
210
210
210
210
210
209
209
209
209
209
208
208
208
207
207
206
205
204
204
203
202
201
200
200
199
199
199
199
198
199
199
200
200
201
202
203
204
206
207
209
210
211
213
214
215
216
216
217
217
217
217
217
217
216
216
215
214
213
212
211
210
209
208
207
206
206
205
205
205
205
205
206
206
207
208
209
210
211
212
213
214
214
215
215
215
216
216
216
216
216
215
215
215
215
215
215
214
214
214
213
213
213
213
213
213
213
213
213
213
213
212
212
211
210
209
209
209
208
208
208
208
209
209
209
209
210
210
210
211
212
213
214
215
216
216
217
217
217
217
217
217
216
216
216
216
215
214
214
213
212
212
211
211
210
209
209
208
208
208
207
207
206
206
205
205
205
204
204
204
203
203
203
203
203
204
204
204
205
205
206
206
207
208
209
209
210
211
212
213
214
215
216
216
217
217
217
217
217
216
216
216
215
215
214
213
212
211
209
208
207
205
204
203
201
200
199
198
197
197
196
196
196
196
196
196
197
198
198
199
200
200
202
203
204
206
207
208
209
210
211
211
211
211
211
211
211
210
210
209
208
207
206
205
204
203
203
202
202
202
202
202
202
202
203
204
205
206
207
208
210
211
213
214
215
215
216
216
216
216
215
215
214
214
213
212
211
210
210
209
208
207
206
206
205
205
204
204
204
205
205
205
206
206
207
207
208
208
209
209
209
210
210
211
211
212
213
213
214
214
215
215
216
216
217
218
218
219
220
221
222
223
224
224
225
225
225
225
225
225
225
225
225
225
224
224
223
222
221
220
218
217
216
215
215
214
213
212
211
210
210
209
208
208
207
207
206
206
206
205
205
206
206
206
207
207
208
208
208
209
209
209
210
210
210
210
210
210
210
210
209
209
208
208
207
206
205
204
204
202
201
200
199
198
197
196
195
195
194
193
192
192
191
190
190
190
189
189
189
189
189
189
189
189
189
188
188
188
188
188
188
188
188
188
188
188
187
187
186
185
185
185
184
184
184
183
183
183
182
182
181
180
180
180
179
179
179
179
179
179
179
179
179
179
179
179
179
180
180
181
181
181
181
182
182
182
182
182
182
182
182
182
182
182
182
182
182
181
181
180
180
179
179
179
179
179
178
178
178
178
178
178
178
178
178
178
178
178
178
178
178
178
178
178
178
178
179
179
179
180
180
181
182
183
184
185
186
187
188
189
189
190
189
189
188
186
184
182
179
175
171
167
162
156
150
144
137
130
123
116
109
102
95
88
81
74
67
60
53
46
39
33
27
20
14
8
2
-2
-7
-11
-15
-18
-21
-23
-24
-25
-25
-25
-23
-21
-18
-15
-11
-6
-1
4
9
15
21
26
32
38
44
49
54
59
63
67
71
75
78
81
84
87
90
93
96
99
102
105
107
109
111
113
116
118
121
123
126
128
130
132
134
136
137
139
141
144
145
147
149
150
152
154
155
157
158
160
161
162
163
164
165
166
167
168
169
169
170
170
170
170
169
169
168
168
167
166
166
165
164
163
162
161
160
159
158
157
157
156
156
156
156
156
156
157
157
157
158
158
159
160
160
161
161
161
162
162
162
162
162
162
162
162
162
162
162
162
162
162
161
161
161
161
161
161
161
161
161
161
161
161
161
161
161
160
160
160
159
159
159
159
158
158
158
157
157
156
156
156
156
156
156
156
156
156
157
157
157
158
159
159
159
159
159
159
159
159
159
159
158
158
157
157
156
156
155
154
153
152
152
152
152
152
152
152
152
152
152
153
153
153
153
153
153
153
153
154
154
154
154
154
154
154
154
153
153
153
152
152
151
151
151
151
150
150
149
149
149
149
148
148
148
148
148
148
148
148
148
148
149
149
149
149
150
150
151
151
152
152
152
153
153
153
153
153
153
153
153
152
152
151
150
150
148
147
146
145
144
143
142
141
140
139
139
138
138
138
138
137
137
138
138
139
139
140
140
141
141
141
142
142
142
142
143
143
143
143
143
144
144
144
144
144
144
143
143
143
143
142
142
141
141
140
140
139
139
138
138
137
137
136
136
136
136
136
136
137
137
137
138
138
139
139
140
140
141
141
141
141
141
141
141
140
140
139
139
138
137
137
137
136
136
135
134
134
133
133
133
133
133
133
133
133
133
133
133
134
134
135
135
135
135
135
135
135
135
135
135
135
135
135
135
135
134
134
133
132
132
131
131
130
130
129
128
128
128
127
126
126
125
125
124
124
124
124
125
125
125
125
125
125
126
126
126
126
127
127
127
127
127
127
127
127
127
126
125
125
124
123
123
122
121
120
119
119
118
117
116
115
115
114
114
113
113
112
112
112
112
113
113
113
113
113
114
114
114
114
115
115
115
115
116
116
117
117
118
118
118
118
118
118
117
117
117
116
116
116
115
115
115
114
114
114
113
113
113
113
113
113
113
113
112
112
112
112
112
112
112
112
112
112
112
112
112
111
111
111
111
111
111
111
111
111
111
111
112
112
112
113
113
113
113
113
113
112
112
112
112
112
112
111
111
111
110
109
109
109
108
108
108
107
107
107
106
106
105
105
104
104
103
103
103
102
102
102
101
101
101
101
102
102
103
104
105
106
107
108
109
110
111
112
112
113
113
114
114
114
114
114
113
112
111
110
109
108
106
105
104
102
101
99
98
97
95
94
93
92
92
91
90
90
90
90
90
90
90
91
91
91
92
92
93
94
94
95
96
97
97
98
98
99
99
100
100
100
100
100
99
99
99
99
99
99
98
98
98
97
97
97
97
96
96
95
95
94
94
94
93
93
93
92
92
91
90
90
89
89
89
89
88
88
88
88
88
88
88
88
88
88
89
89
89
90
90
90
90
90
90
90
91
91
91
91
91
91
91
91
90
90
90
89
88
87
86
86
85
84
83
82
81
79
78
77
77
76
75
74
74
73
73
73
73
73
74
74
75
75
76
76
77
77
78
79
79
80
80
81
81
82
82
83
83
83
83
83
84
84
85
85
86
87
87
88
89
90
90
91
91
92
92
92
92
93
93
94
94
94
94
94
94
93
93
93
93
93
93
93
93
93
94
94
94
95
95
95
95
95
95
95
96
96
96
96
95
95
94
93
93
92
91
90
88
87
86
85
84
82
81
80
79
78
77
76
75
75
74
74
74
74
74
73
73
73
73
73
74
74
74
74
74
74
74
74
74
74
74
74
74
74
74
74
74
74
74
74
74
74
73
73
72
72
73
73
73
72
72
72
71
71
70
70
69
69
68
68
67
67
66
66
65
65
64
64
64
64
64
64
64
64
64
63
63
63
62
62
62
61
61
61
60
59
58
57
56
55
54
53
52
51
50
50
49
49
48
48
48
47
47
47
47
47
47
48
48
48
48
48
49
49
49
49
50
50
50
50
50
51
51
51
51
51
51
52
52
52
52
52
53
53
53
53
53
53
53
52
52
51
50
49
48
48
47
47
46
45
44
43
42
42
41
41
40
40
40
40
40
40
41
42
43
44
46
47
49
50
52
54
56
58
59
61
62
63
65
65
66
66
65
64
62
59
56
53
49
45
40
34
28
21
14
7
0
-6
-14
-22
-30
-37
-45
-52
-60
-68
-75
-83
-90
-98
-105
-112
-119
-126
-133
-139
-145
-151
-155
-160
-163
-166
-168
-169
-169
-169
-168
-165
-162
-158
-154
-148
-143
-137
-131
-124
-118
-111
-105
-98
-92
-86
-81
-75
-71
-66
-62
-58
-54
-50
-46
-43
-39
-36
-32
-29
-26
-22
-19
-16
-12
-9
-6
-3
0
2
4
7
10
12
15
17
19
21
22
23
25
26
27
29
30
30
31
31
32
32
32
32
32
32
33
33
33
33
33
33
34
34
34
35
35
36
36
37
38
39
40
40
41
42
43
44
44
44
44
44
44
44
44
43
43
42
42
41
40
40
39
38
36
35
34
34
33
32
31
31
30
30
29
29
29
29
28
28
28
28
28
27
27
27
27
28
28
28
29
30
30
31
32
33
34
34
35
36
37
38
39
40
41
42
42
42
42
42
42
41
40
40
39
39
38
37
37
36
36
35
35
34
34
34
33
33
33
33
34
34
35
35
36
36
37
37
37
38
38
38
38
38
38
39
39
39
40
40
41
41
41
41
41
40
40
40
40
39
39
39
38
37
36
36
35
34
33
33
32
31
31
30
30
29
29
29
29
30
30
30
30
30
31
31
31
32
32
32
32
32
32
32
33
33
33
33
33
32
32
32
31
31
31
30
30
30
29
29
29
29
29
29
29
29
29
29
29
29
30
30
30
31
31
31
32
32
33
33
33
33
33
33
33
33
33
33
33
33
33
33
33
33
33
34
34
34
34
34
34
34
34
34
33
33
33
32
31
31
30
29
28
27
26
25
24
23
22
21
20
19
18
18
17
17
16
16
16
16
17
17
18
18
19
19
20
21
22
23
24
25
25
26
26
27
27
28
28
29
29
29
29
29
29
29
28
28
28
27
26
26
25
25
24
24
23
23
22
22
22
22
22
22
22
22
22
23
23
24
24
25
25
26
27
28
29
29
30
31
31
31
31
30
30
30
29
28
28
27
26
25
24
23
22
21
20
19
18
17
16
15
14
14
13
13
13
13
13
13
13
13
13
13
13
13
14
14
14
14
14
15
15
16
16
16
17
17
18
18
18
19
19
20
20
21
21
21
22
22
22
22
22
22
22
22
22
22
21
21
20
20
19
19
18
18
17
17
16
16
15
15
15
15
15
16
16
16
16
17
17
18
18
19
20
21
21
22
23
23
24
25
26
26
26
25
25
24
23
22
22
21
20
18
17
16
15
13
12
10
9
8
7
7
7
7
7
7
7
7
8
8
9
9
10
11
12
13
14
14
15
15
16
17
17
18
18
19
19
20
20
20
20
20
20
20
20
20
20
20
20
20
19
19
18
18
17
17
17
16
16
16
15
15
15
15
15
16
17
17
18
18
19
19
20
20
21
21
22
22
22
22
22
21
21
20
19
18
17
16
15
15
14
13
12
11
10
9
9
8
7
6
6
5
5
5
5
5
5
4
4
4
4
4
4
4
5
5
6
6
7
7
8
8
9
10
10
11
11
11
11
11
11
11
10
10
9
9
8
7
6
5
5
4
3
3
2
2
2
2
3
3
4
5
5
6
7
8
8
9
10
10
11
11
11
12
12
12
12
11
11
11
10
10
9
9
8
7
7
6
6
5
5
4
4
4
3
3
2
2
2
1
1
0
0
0
0
-1
-1
-1
-1
-1
-1
-1
-1
-1
-1
-1
0
0
0
0
0
1
2
2
3
4
4
4
5
5
5
5
5
5
5
4
4
3
3
2
2
1
1
0
0
0
0
0
0
0
0
0
0
1
1
2
3
3
4
5
5
5
5
5
5
5
5
5
4
3
2
1
0
0
-1
-2
-3
-3
-4
-5
-5
-6
-6
-6
-6
-6
-5
-5
-5
-4
-4
-3
-3
-2
-2
-1
-1
-1
-1
0
0
0
0
0
0
0
0
0
0
-1
-1
-1
-1
-1
-1
-1
-1
-1
-1
-1
-1
-1
-1
-1
-1
-1
0
0
0
0
0
0
0
0
0
0
0
0
0
0
0
0
0
0
0
0
0
0
0
0
0
0
-1
-1
-2
-2
-2
-3
-3
-3
-2
-2
-2
-2
-2
-1
-1
-1
-1
0
0
0
1
1
2
3
4
4
5
5
5
6
6
7
7
8
8
8
9
9
9
9
9
9
9
9
8
8
7
7
7
7
7
8
8
8
8
8
8
7
7
7
7
7
7
7
7
7
6
6
5
5
4
4
3
3
3
2
2
2
1
1
1
1
1
1
1
1
1
1
2
1
1
1
1
1
0
0
0
0
0
0
-1
-1
-1
-1
-1
-1
-1
-1
-1
-2
-2
-2
-1
-1
-2
-2
-2
-3
-3
-4
-5
-5
-6
-7
-8
-9
-10
-11
-12
-13
-14
-15
-16
-16
-16
-17
-17
-17
-17
-17
-17
-16
-16
-16
-15
-15
-15
-15
-14
-14
-14
-14
-14
-14
-14
-14
-14
-15
-15
-15
-15
-15
-15
-15
-15
-15
-15
-15
-15
-15
-15
-15
-15
-15
-14
-14
-14
-14
-15
-15
-16
-16
-16
-17
-17
-17
-18
-18
-18
-19
-19
-19
-19
-20
-20
-20
-20
-20
-20
-20
-20
-19
-19
-19
-19
-19
-19
-18
-18
-18
-18
-18
-18
-18
-18
-18
-18
-18
-18
-18
-18
-18
-17
-17
-16
-15
-14
-13
-12
-11
-10
-9
-8
-6
-5
-4
-4
-3
-3
-3
-4
-5
-6
-8
-10
-12
-15
-19
-23
-27
-32
-38
-43
-49
-55
-61
-67
-74
-80
-87
-94
-101
-108
-115
-123
-131
-139
-147
-156
-164
-173
-181
-189
-197
-204
-212
-219
-225
-232
-237
-242
-245
-247
-249
-249
-247
-245
-242
-238
-232
-227
-220
-213
-206
-198
-191
-183
-175
-167
-160
-152
-145
-139
-133
-127
-122
-117
-113
-109
-106
-103
-99
-96
-93
-90
-87
-84
-81
-78
-75
-73
-70
-67
-65
-63
-61
-59
-57
-55
-53
-52
-50
-48
-47
-45
-43
-41
-40
-38
-36
-34
-32
-30
-28
-26
-24
-23
-21
-20
-19
-18
-17
-17
-17
-17
-17
-17
-18
-18
-19
-19
-20
-20
-21
-21
-21
-21
-21
-20
-20
-19
-18
-18
-17
-16
-16
-15
-15
-14
-14
-14
-13
-13
-12
-12
-12
-12
-12
-12
-13
-13
-14
-15
-16
-16
-17
-17
-18
-18
-19
-19
-20
-21
-21
-22
-22
-23
-23
-23
-23
-23
-23
-23
-23
-23
-22
-22
-21
-21
-21
-20
-20
-20
-20
-19
-19
-19
-18
-18
-18
-19
-19
-19
-19
-19
-19
-19
-19
-20
-20
-21
-21
-21
-21
-21
-21
-21
-21
-21
-20
-20
-20
-19
-19
-18
-17
-16
-15
-14
-13
-12
-10
-9
-8
-7
-7
-7
-7
-7
-8
-8
-8
-9
-10
-11
-12
-13
-15
-17
-18
-20
-22
-24
-25
-26
-27
-28
-29
-29
-29
-29
-29
-29
-29
-29
-28
-28
-27
-26
-25
-24
-23
-22
-21
-21
-20
-19
-18
-17
-16
-16
-15
-15
-15
-15
-14
-14
-15
-15
-15
-15
-16
-16
-17
-18
-18
-19
-19
-20
-21
-22
-23
-23
-24
-24
-24
-24
-24
-24
-24
-24
-24
-24
-24
-23
-23
-22
-22
-21
-20
-20
-19
-19
-18
-18
-18
-18
-18
-18
-18
-17
-17
-17
-17
-17
-18
-18
-18
-18
-19
-19
-20
-20
-20
-21
-21
-22
-22
-23
-23
-24
-24
-25
-25
-25
-25
-25
-25
-25
-25
-25
-25
-25
-25
-24
-24
-23
-22
-22
-21
-20
-20
-19
-19
-18
-18
-17
-17
-16
-16
-15
-15
-14
-14
-14
-15
-15
-16
-16
-17
-17
-18
-19
-20
-20
-22
-23
-24
-24
-25
-26
-26
-27
-27
-27
-27
-26
-26
-25
-24
-23
-22
-22
-21
-19
-18
-17
-16
-15
-14
-13
-12
-12
-11
-10
-10
-10
-10
-10
-11
-12
-12
-13
-14
-14
-15
-16
-16
-17
-18
-19
-20
-20
-21
-21
-22
-22
-23
-23
-23
-22
-22
-22
-22
-22
-21
-21
-21
-21
-21
-20
-20
-20
-20
-20
-20
-20
-20
-20
-20
-20
-21
-21
-21
-22
-22
-23
-23
-24
-24
-25
-26
-27
-27
-28
-29
-29
-30
-30
-30
-31
-31
-31
-31
-31
-31
-31
-31
-31
-31
-32
-32
-32
-32
-32
-32
-31
-31
-31
-30
-30
-30
-30
-30
-29
-29
-28
-27
-26
-26
-25
-24
-23
-22
-21
-20
-20
-19
-18
-17
-16
-15
-14
-14
-14
-13
-13
-14
-14
-14
-15
-15
-16
-16
-17
-18
-19
-20
-21
-22
-23
-24
-25
-26
-26
-27
-28
-28
-29
-29
-29
-30
-30
-29
-29
-28
-28
-28
-27
-27
-27
-26
-26
-26
-26
-26
-26
-26
-25
-25
-25
-25
-25
-25
-25
-26
-26
-27
-27
-27
-27
-27
-28
-28
-28
-28
-28
-28
-29
-29
-29
-29
-28
-28
-28
-28
-28
-27
-27
-27
-27
-27
-27
-26
-26
-25
-25
-25
-24
-24
-24
-23
-23
-23
-22
-22
-21
-21
-20
-20
-19
-19
-18
-18
-18
-17
-17
-18
-18
-18
-19
-20
-21
-22
-23
-25
-26
-27
-29
-30
-31
-32
-32
-32
-33
-33
-33
-33
-32
-31
-30
-29
-28
-26
-25
-23
-21
-19
-18
-16
-15
-14
-13
-12
-11
-11
-10
-10
-10
-10
-10
-10
-10
-10
-10
-10
-10
-11
-11
-11
-11
-11
-11
-11
-11
-11
-11
-10
-9
-8
-7
-7
-6
-5
-5
-4
-3
-3
-2
-1
-1
0
0
0
0
0
0
-1
-2
-2
-3
-4
-5
-6
-7
-9
-10
-10
-11
-12
-12
-12
-13
-13
-13
-12
-12
-11
-10
-9
-8
-7
-7
-6
-6
-5
-5
-4
-4
-4
-4
-4
-4
-5
-6
-7
-8
-9
-10
-11
-12
-13
-14
-15
-16
-17
-18
-19
-20
-20
-21
-22
-23
-24
-24
-25
-25
-25
-25
-25
-26
-26
-26
-26
-26
-26
-25
-25
-25
-25
-25
-25
-25
-25
-25
-26
-26
-26
-27
-27
-27
-27
-26
-26
-26
-26
-25
-25
-25
-24
-23
-22
-22
-21
-21
-21
-21
-21
-21
-21
-22
-23
-24
-25
-26
-27
-28
-29
-30
-31
-32
-33
-33
-33
-34
-34
-33
-33
-33
-32
-32
-31
-30
-29
-28
-27
-26
-25
-25
-24
-24
-23
-23
-22
-22
-21
-21
-20
-20
-20
-19
-20
-20
-21
-21
-22
-23
-23
-24
-25
-26
-27
-28
-29
-30
-31
-32
-33
-33
-34
-35
-35
-36
-35
-35
-35
-34
-33
-33
-32
-31
-30
-29
-28
-27
-26
-25
-23
-21
-20
-18
-17
-15
-14
-12
-11
-10
-9
-8
-8
-7
-7
-8
-9
-11
-13
-16
-19
-22
-26
-31
-36
-41
-47
-53
-59
-66
-73
-81
-88
-95
-102
-110
-117
-124
-131
-138
-144
-151
-158
-164
-171
-177
-183
-189
-195
-200
-205
-210
-213
-217
-219
-221
-223
-223
-223
-223
-221
-219
-216
-213
-209
-204
-199
-193
-187
-181
-175
-169
-163
-157
-151
-145
-140
-135
-130
-125
-121
-116
-113
-109
-106
-102
-99
-96
-93
-90
-88
-85
-82
-79
-76
-73
-70
-67
-64
-61
-59
-57
-55
-53
-51
-49
-47
-46
-44
-43
-41
-40
-39
-38
-38
-37
-36
-35
-34
-33
-32
-31
-30
-29
-28
-27
-25
-24
-23
-21
-20
-19
-18
-17
-16
-15
-15
-14
-14
-13
-13
-13
-13
-14
-14
-15
-15
-15
-16
-17
-18
-19
-21
-22
-23
-24
-25
-25
-26
-27
-27
-27
-27
-27
-26
-26
-25
-25
-24
-23
-22
-21
-20
-19
-18
-18
-17
-16
-15
-15
-15
-15
-15
-16
-16
-16
-17
-17
-17
-17
-17
-17
-17
-17
-16
-16
-16
-16
-16
-15
-15
-14
-14
-14
-14
-14
-14
-14
-14
-14
-14
-15
-15
-16
-16
-17
-18
-18
-19
-19
-19
-20
-20
-20
-20
-20
-20
-20
-20
-19
-19
-19
-18
-17
-17
-16
-15
-15
-14
-13
-13
-12
-11
-11
-10
-10
-10
-10
-10
-10
-10
-11
-11
-12
-13
-14
-15
-16
-16
-17
-18
-19
-20
-20
-21
-22
-22
-22
-22
-22
-22
-22
-22
-21
-20
-20
-19
-18
-17
-16
-15
-14
-14
-13
-12
-12
-11
-11
-10
-10
-9
-9
-8
-8
-7
-7
-6
-6
-6
-7
-7
-7
-7
-8
-8
-9
-9
-10
-11
-12
-13
-15
-16
-17
-18
-19
-20
-21
-21
-21
-21
-21
-20
-20
-19
-19
-18
-17
-17
-16
-15
-13
-12
-12
-11
-10
-10
-10
-10
-10
-10
-11
-11
-12
-13
-13
-13
-14
-14
-15
-15
-16
-16
-17
-17
-18
-18
-18
-18
-18
-18
-17
-17
-17
-18
-17
-17
-17
-17
-17
-16
-16
-16
-15
-15
-15
-14
-14
-14
-14
-13
-13
-13
-12
-12
-12
-11
-11
-11
-11
-11
-11
-11
-11
-11
-11
-11
-11
-11
-11
-11
-11
-11
-11
-12
-12
-12
-11
-11
-10
-10
-9
-8
-8
-7
-7
-6
-6
-5
-4
-4
-3
-2
-1
-1
0
0
0
1
1
2
3
3
3
3
4
4
4
4
4
3
3
2
2
1
0
-1
-2
-3
-4
-5
-6
-7
-8
-9
-10
-11
-11
-12
-13
-13
-14
-14
-15
-15
-16
-16
-17
-17
-17
-18
-18
-18
-19
-19
-19
-19
-20
-20
-20
-20
-20
-20
-19
-18
-18
-17
-16
-15
-15
-14
-13
-13
-12
-12
-11
-10
-10
-9
-9
-9
-8
-8
-8
-8
-8
-8
-8
-8
-8
-8
-9
-9
-9
-9
-9
-9
-9
-9
-9
-9
-9
-9
-9
-9
-9
-10
-10
-10
-10
-10
-9
-9
-9
-9
-9
-9
-9
-9
-8
-8
-7
-7
-6
-5
-5
-4
-4
-3
-2
-2
-1
0
0
0
0
1
1
2
2
2
2
1
1
0
0
0
0
0
0
0
-1
-1
-2
-2
-3
-3
-4
-4
-4
-4
-4
-5
-5
-5
-5
-5
-5
-5
-6
-6
-6
-7
-7
-7
-7
-7
-8
-8
-8
-8
-7
-7
-7
-7
-7
-6
-6
-5
-5
-5
-4
-4
-3
-3
-3
-2
-2
-2
-1
-1
-1
0
0
0
0
0
0
1
1
1
1
2
2
2
3
3
3
3
3
3
2
2
2
2
2
1
1
0
0
0
-1
-1
-2
-2
-2
-3
-3
-3
-3
-3
-2
-2
-1
0
0
0
1
2
3
4
5
6
7
8
8
9
10
10
10
11
10
10
10
9
9
8
7
7
6
5
4
4
3
2
2
1
1
1
1
1
1
1
1
2
2
2
3
3
4
5
5
6
7
7
7
8
8
8
8
9
9
10
10
10
11
11
11
11
11
11
11
11
11
11
11
12
12
12
12
12
12
13
13
13
13
13
13
13
14
14
15
16
17
17
18
19
20
20
21
21
21
22
22
23
24
24
25
25
26
26
26
27
27
28
28
29
29
30
31
31
31
32
32
33
33
33
33
33
33
33
33
33
33
33
33
33
33
33
32
32
32
31
31
31
30
30
30
29
29
29
29
29
29
28
28
27
27
27
27
27
27
27
27
27
27
27
27
27
26
26
26
26
25
25
25
24
24
24
23
23
22
22
21
20
20
19
18
18
17
16
15
14
13
12
11
11
10
10
10
9
9
9
9
9
10
10
10
11
11
12
12
12
13
13
13
13
13
12
12
12
12
12
11
11
10
10
9
9
9
9
8
8
8
8
9
9
9
10
10
11
11
11
12
12
13
13
14
14
14
14
14
14
14
14
14
14
14
14
13
13
12
12
11
11
11
11
11
11
11
11
11
10
10
10
10
10
10
10
11
11
12
12
12
13
13
14
15
15
16
17
18
19
20
22
23
24
25
26
27
27
28
28
29
29
29
29
29
29
29
29
28
27
26
24
22
20
18
16
13
10
7
3
0
-4
-8
-13
-18
-24
-29
-35
-41
-47
-52
-59
-65
-71
-78
-85
-92
-99
-105
-112
-119
-125
-131
-138
-143
-149
-154
-159
-163
-167
-170
-172
-173
-174
-173
-172
-169
-166
-163
-159
-154
-149
-143
-137
-131
-125
-119
-113
-107
-101
-96
-91
-86
-82
-78
-74
-71
-68
-65
-62
-60
-58
-56
-55
-53
-51
-49
-47
-44
-42
-40
-37
-35
-32
-30
-27
-24
-22
-19
-16
-13
-10
-8
-5
-2
0
2
4
6
9
10
12
14
16
18
19
20
22
23
24
25
26
27
29
30
31
32
33
33
34
35
35
36
36
36
37
37
37
36
36
35
35
34
33
32
32
31
30
29
29
28
28
27
27
27
27
27
27
27
27
26
27
27
27
28
28
28
29
29
29
29
29
29
30
30
30
30
30
30
29
29
29
28
28
27
27
26
25
25
24
24
23
23
23
22
22
22
23
23
23
24
25
25
26
27
29
30
30
31
32
32
33
33
33
33
33
33
33
33
33
32
32
32
31
31
31
30
30
29
29
29
28
28
29
29
29
29
29
29
29
29
