# Simple Text Format
# Sampling Rate (Hz):= 1200.00
# Resolution:= 12
# Labels:= ECG	aVL
# Age:=	64
# Gender:=	Masculino
95
95
95
95
94
94
94
94
94
93
92
92
92
92
92
93
93
92
92
91
91
91
90
90
90
90
90
90
89
90
90
90
91
91
92
92
92
93
93
93
94
94
94
95
95
94
94
93
93
92
92
91
90
90
89
88
88
87
86
86
85
84
84
83
82
82
82
81
81
81
81
82
82
82
83
84
85
86
86
87
88
89
90
92
93
94
95
95
96
96
96
96
95
94
94
92
91
89
88
86
85
83
82
80
80
78
77
76
76
76
76
77
78
79
81
83
84
87
91
94
99
103
108
113
119
125
131
137
144
151
159
166
174
182
190
199
207
216
225
234
242
249
257
264
271
276
281
285
288
290
291
291
290
287
283
279
275
269
262
255
247
240
232
223
215
207
200
191
184
178
172
166
161
156
151
147
143
140
136
133
131
128
125
123
120
118
115
113
111
108
107
104
103
101
99
97
96
94
92
91
89
88
87
87
86
85
83
83
82
81
80
79
78
77
77
76
75
75
74
73
72
73
72
72
71
70
71
70
70
71
71
71
71
71
72
72
73
74
75
76
77
78
79
80
80
81
81
82
83
83
85
85
84
84
84
83
83
82
82
82
82
82
82
81
81
81
80
80
80
80
80
79
79
79
79
78
78
78
78
78
77
77
77
76
76
75
74
74
74
74
74
74
73
73
73
74
74
74
75
74
74
74
76
76
76
76
76
76
76
76
76
75
75
75
75
74
74
73
72
70
69
68
68
67
66
65
64
64
65
66
66
67
67
67
68
69
70
71
72
74
75
76
77
78
79
80
81
81
81
82
82
82
81
81
81
81
81
80
80
79
79
79
79
78
77
77
76
75
76
75
74
74
73
73
73
73
72
72
72
72
72
73
72
72
72
72
72
73
73
73
73
73
73
73
73
73
73
73
73
74
74
74
75
75
75
75
76
77
77
77
78
78
79
79
79
80
80
79
79
78
78
77
78
77
76
75
74
74
74
73
73
74
75
75
75
75
75
76
76
77
79
80
81
82
83
84
85
86
86
86
87
86
86
85
85
85
85
84
84
85
84
84
83
84
83
83
83
84
84
84
85
85
86
86
86
86
86
86
86
86
87
87
85
85
84
84
83
81
80
79
79
78
77
76
75
75
74
74
74
74
74
73
73
73
73
72
72
72
72
72
71
71
71
71
70
70
69
68
67
67
67
67
66
66
66
65
66
66
66
67
67
67
68
68
68
69
69
69
69
69
68
68
67
67
66
65
65
64
63
62
61
60
60
59
59
58
58
57
57
57
58
58
59
59
60
61
61
61
62
63
64
64
65
66
66
66
66
66
66
66
65
65
64
64
63
63
62
62
61
61
60
60
59
59
60
60
60
60
60
60
60
61
61
61
61
62
63
63
63
63
64
63
63
63
63
63
64
64
63
62
62
62
62
61
61
61
61
61
61
61
61
60
60
60
60
59
59
60
60
60
60
60
60
59
59
59
59
59
59
58
58
58
57
57
57
57
57
56
56
55
55
55
55
55
55
54
54
54
54
53
53
53
54
54
54
54
54
54
53
53
53
53
53
54
54
55
55
55
55
57
57
58
58
59
59
60
59
60
60
61
61
62
62
62
62
62
62
62
62
61
61
60
60
59
58
58
56
55
54
53
52
51
50
49
48
47
45
44
43
43
42
42
42
42
42
42
43
43
43
44
44
45
46
48
49
51
52
53
55
56
56
57
57
58
58
58
58
57
57
57
56
56
55
55
54
53
52
52
51
50
50
49
49
48
48
47
47
47
47
48
48
49
49
49
49
50
50
50
50
50
51
51
51
51
52
53
53
53
53
53
53
53
53
52
52
52
53
53
53
53
53
53
53
53
53
52
52
52
52
52
52
51
51
51
51
51
50
50
50
50
50
49
49
49
50
50
50
50
50
50
50
51
51
52
52
51
52
52
53
53
52
52
51
50
50
49
49
47
46
46
44
44
43
42
41
41
41
41
41
40
41
41
41
42
42
42
42
42
42
42
42
41
41
40
39
39
38
37
36
37
36
36
36
36
37
38
39
40
41
43
45
45
47
48
50
51
52
53
55
55
56
57
57
57
57
57
56
55
54
53
52
52
51
52
51
50
49
48
48
48
47
46
46
46
46
45
45
45
46
45
46
45
46
45
46
45
45
46
46
46
47
46
46
47
46
47
46
46
45
45
45
44
44
44
44
44
44
42
42
42
42
41
41
41
41
40
40
40
40
41
40
40
41
41
41
41
41
41
41
42
42
43
43
44
44
45
45
45
45
44
44
44
44
44
45
45
45
45
45
45
45
45
44
44
44
44
45
45
45
46
46
46
47
47
47
47
47
47
47
47
47
46
46
45
45
45
45
45
45
45
45
45
46
46
46
47
47
47
46
46
46
45
45
44
44
43
42
42
41
40
39
38
37
38
37
37
36
36
36
36
36
35
35
35
36
36
36
36
36
36
36
35
36
35
35
34
34
35
36
37
38
39
41
45
48
52
55
59
63
67
71
76
80
84
90
96
103
109
117
124
131
139
146
154
162
170
178
187
195
203
211
219
226
232
238
244
248
251
254
255
254
252
250
246
242
236
229
223
215
207
199
190
183
175
166
158
151
144
137
130
124
119
114
109
105
101
96
92
89
85
82
79
76
74
71
69
67
64
62
59
57
55
54
52
52
50
49
48
47
47
46
46
45
45
45
43
42
42
41
40
40
39
37
37
36
37
36
37
36
37
37
37
37
38
39
39
40
40
40
41
41
42
42
43
43
43
43
43
42
42
41
40
39
38
38
37
37
36
36
35
35
35
35
35
35
35
35
36
36
37
37
38
38
39
40
40
41
42
43
44
44
45
45
45
45
44
44
43
43
42
42
41
40
39
38
37
36
35
34
33
33
32
33
32
32
32
34
34
34
35
35
35
36
37
37
37
37
37
37
37
35
35
34
34
33
32
32
32
32
31
31
32
33
34
34
35
36
38
39
40
42
43
45
46
47
48
49
50
52
52
52
52
52
51
51
50
51
50
49
49
49
48
48
47
47
47
46
45
45
44
44
44
44
44
44
44
44
44
45
45
45
45
45
45
45
46
46
46
46
47
47
47
47
47
47
47
47
46
46
46
47
47
47
47
47
47
47
47
47
47
47
48
48
48
48
49
49
49
50
50
50
50
50
50
50
50
50
49
49
49
49
48
48
48
48
47
49
49
49
49
50
50
51
51
53
54
54
55
56
58
58
59
59
61
61
61
61
60
60
60
59
59
59
59
59
59
59
59
59
59
59
59
59
60
61
61
62
62
62
64
64
64
65
65
65
65
65
64
64
63
64
63
63
62
61
61
60
60
60
59
59
58
58
57
57
56
56
56
55
55
55
54
54
54
52
52
52
52
51
51
51
51
50
50
48
48
48
48
47
47
47
46
46
47
46
47
47
48
49
48
49
49
50
49
50
51
51
52
52
53
53
53
54
53
54
54
53
53
53
53
52
52
52
52
52
51
51
50
50
49
50
49
49
48
48
47
47
46
46
46
45
46
46
46
46
45
45
46
45
45
44
45
45
45
45
46
46
47
46
46
46
47
47
47
47
47
48
48
48
48
48
48
48
48
48
47
47
47
46
46
46
46
46
46
46
46
46
46
46
46
46
46
46
46
46
46
46
46
46
46
46
45
45
45
44
44
44
44
44
44
44
44
44
43
43
43
43
44
45
45
45
46
46
47
48
49
49
49
49
50
50
50
51
51
51
51
50
50
49
49
48
48
47
47
46
46
45
45
45
45
44
44
45
45
46
46
47
47
47
48
48
49
49
50
50
52
52
52
52
52
53
54
54
54
53
53
53
53
53
53
53
54
54
54
54
54
54
54
54
54
54
54
54
54
54
53
53
53
53
52
52
51
51
50
51
50
50
49
48
49
48
47
47
46
46
45
44
44
44
43
43
43
43
43
44
44
44
43
44
44
45
46
45
46
47
48
48
49
50
50
51
51
51
52
52
52
52
51
51
51
51
50
50
49
48
48
47
46
46
45
44
44
44
44
44
42
42
42
42
42
41
41
41
42
42
43
44
45
45
46
46
46
47
48
49
50
51
52
54
54
55
56
57
57
58
58
59
59
59
59
60
60
60
60
58
58
58
57
57
56
56
55
54
54
53
52
51
51
50
49
49
48
47
47
46
46
45
46
45
46
45
45
46
46
47
48
49
49
50
50
51
52
52
53
53
53
53
54
54
53
53
53
52
51
51
50
50
49
48
47
46
46
44
43
43
43
43
42
42
42
42
43
44
45
46
47
47
48
49
50
52
52
54
55
57
58
59
59
59
59
60
61
61
61
60
60
61
60
60
60
60
59
58
58
58
57
57
57
56
56
56
56
55
55
56
55
55
55
54
55
55
55
55
56
56
56
57
57
57
57
58
58
57
58
58
58
58
58
58
59
58
58
58
58
58
57
57
57
56
55
55
55
54
54
54
53
53
53
54
53
53
53
53
53
52
52
53
54
53
54
54
55
55
55
55
56
58
59
59
60
61
61
61
62
62
61
61
61
60
60
59
58
58
57
57
57
56
55
55
54
53
53
53
53
53
53
54
54
55
56
57
58
59
59
60
61
61
62
63
64
65
66
66
66
67
67
66
66
66
65
64
63
62
61
60
60
59
58
57
56
55
54
53
53
53
53
53
53
53
53
53
54
54
54
55
55
56
55
55
56
56
56
56
56
57
57
58
59
60
62
64
67
70
72
75
79
83
88
94
100
107
114
121
127
136
144
151
159
168
177
186
195
204
213
221
230
238
244
252
257
262
267
270
273
275
274
273
272
269
265
260
255
248
241
234
226
218
208
200
191
182
174
166
157
150
143
137
132
127
123
119
115
112
109
106
104
102
101
100
98
97
96
95
94
93
92
91
90
89
88
87
86
85
82
82
80
79
78
77
77
76
76
75
74
74
73
72
71
70
71
70
69
69
68
68
68
67
67
66
66
65
64
65
64
64
63
62
62
62
61
61
61
61
61
60
60
60
60
60
60
60
60
60
59
59
59
59
60
60
61
62
63
65
66
68
70
72
73
75
76
78
79
81
82
83
83
84
83
83
82
81
79
78
76
75
73
72
70
68
67
65
65
64
64
63
63
64
64
64
65
66
67
68
69
70
71
72
73
73
73
74
74
74
74
74
73
74
73
73
72
73
73
72
72
72
72
73
73
73
74
74
75
75
76
76
77
77
77
77
77
77
77
77
76
76
75
74
73
72
71
70
69
69
68
68
68
67
67
67
68
68
68
69
71
72
73
74
75
76
77
78
79
81
81
82
83
83
84
85
85
86
86
86
86
86
86
86
86
86
86
86
86
85
86
85
85
84
84
84
83
82
81
82
81
80
81
80
80
80
79
79
80
80
80
80
80
81
81
81
82
82
83
84
85
86
87
88
88
89
90
90
91
91
92
92
92
92
91
91
91
91
90
90
89
89
88
89
89
88
88
87
87
87
88
88
89
89
90
90
90
92
92
93
93
94
96
96
96
96
96
96
97
98
98
98
98
98
98
98
97
97
97
97
95
95
95
95
94
94
93
93
93
92
92
92
91
91
91
92
91
91
91
91
92
92
92
92
91
91
91
90
90
90
90
91
91
91
90
90
89
89
89
89
89
88
88
88
87
87
87
86
86
85
85
84
83
84
83
83
82
83
83
82
83
83
83
84
84
84
85
86
86
87
87
87
88
87
88
88
88
88
88
88
89
88
88
88
88
88
88
88
88
88
88
87
87
87
87
87
87
86
85
85
84
83
83
83
82
82
82
81
81
81
81
80
80
80
80
80
80
81
81
81
81
82
82
83
83
83
84
84
84
85
85
86
86
86
86
86
87
87
87
88
88
88
88
88
88
88
88
88
89
89
89
89
89
88
88
88
88
88
87
87
87
87
86
86
86
86
86
85
85
84
82
81
80
80
79
78
78
78
78
79
79
79
80
80
81
81
82
83
86
87
88
89
90
91
92
93
94
95
95
95
96
96
95
95
95
93
93
92
91
90
90
89
88
88
87
86
85
84
83
82
81
80
79
78
77
77
76
77
76
76
76
76
77
77
79
79
80
81
82
83
84
85
85
86
87
87
87
88
88
87
87
87
88
87
87
87
87
87
87
87
86
86
87
87
87
87
88
88
88
88
87
87
87
87
86
86
86
85
84
84
83
83
83
82
82
82
82
82
82
83
83
84
84
85
85
86
86
87
87
87
87
87
87
88
88
88
88
87
87
87
87
87
87
87
87
87
87
87
88
88
88
88
88
88
88
88
88
88
87
87
86
85
85
84
83
82
82
82
82
81
82
82
82
82
82
82
83
84
85
86
86
87
88
89
89
90
91
92
92
93
92
92
92
92
92
92
91
91
92
91
90
89
88
89
88
88
87
87
86
86
85
85
84
85
84
85
85
86
86
88
87
87
88
89
89
89
90
90
90
90
91
91
91
90
90
90
90
89
88
88
88
87
87
86
87
86
85
84
85
84
83
82
82
82
82
81
81
80
80
80
80
80
80
80
80
80
80
81
82
83
83
84
85
86
86
86
87
88
87
88
89
89
90
90
90
90
90
89
89
88
88
87
87
86
86
85
84
84
84
83
83
84
83
84
83
84
84
84
85
86
86
87
88
89
90
91
91
92
92
93
94
95
96
96
96
97
96
96
96
95
94
94
94
93
92
92
91
91
90
90
90
90
89
89
89
89
89
89
89
89
89
90
90
90
90
89
89
89
88
88
88
87
87
86
86
86
86
87
87
86
86
87
87
88
89
90
91
91
92
92
93
94
95
95
96
96
97
97
96
96
96
96
97
97
97
97
96
96
96
96
96
95
95
94
94
93
91
91
90
89
88
87
86
86
85
85
85
84
84
85
85
86
86
87
88
89
91
92
93
94
95
96
96
97
98
98
99
99
98
97
96
95
94
94
93
91
90
89
88
87
86
85
85
86
87
87
90
91
94
97
101
105
109
114
119
125
131
137
142
149
156
162
169
176
184
191
198
205
212
219
226
233
239
246
252
257
263
269
273
276
279
281
282
282
282
280
278
274
269
264
259
253
246
238
230
222
215
206
198
191
183
177
171
164
158
153
149
145
142
139
137
135
133
131
130
129
127
126
125
123
122
122
121
120
121
120
119
118
116
116
114
112
112
110
109
107
105
104
103
102
101
99
98
96
95
93
92
91
90
89
89
89
88
88
88
88
88
88
88
88
89
89
89
91
91
92
92
92
91
91
91
91
92
92
93
93
93
93
93
93
93
93
93
93
93
93
93
93
93
93
94
93
94
94
94
94
94
94
93
93
92
91
92
91
91
90
90
90
90
91
91
91
91
91
92
91
91
91
91
91
90
90
91
91
91
91
91
91
90
90
90
90
90
90
90
90
90
91
91
91
92
92
92
92
93
92
92
92
92
92
93
93
93
92
92
92
92
92
92
91
90
90
89
88
89
89
89
88
89
89
88
88
87
87
88
88
88
88
88
89
89
90
90
92
92
93
94
95
96
97
98
98
99
100
101
102
103
104
104
104
104
104
104
104
103
103
103
102
101
100
100
99
99
98
97
97
96
95
96
96
96
96
96
97
97
97
97
98
99
100
100
100
100
100
100
100
100
100
100
100
100
100
100
100
100
100
99
99
100
100
100
100
100
101
102
103
103
103
104
105
105
105
106
106
107
107
107
107
106
106
106
106
107
107
108
108
108
109
109
109
110
111
112
113
113
114
115
115
117
117
118
119
119
119
120
120
120
120
119
119
118
118
117
117
115
115
114
113
112
111
110
109
108
107
106
107
106
105
105
104
104
103
103
103
103
102
102
102
102
102
102
102
103
103
103
103
104
104
105
105
105
106
105
105
105
105
104
104
104
105
105
104
104
104
103
103
102
102
101
101
100
100
99
99
98
98
97
97
97
96
96
95
94
94
94
94
95
95
95
95
96
96
96
96
96
97
97
98
98
98
99
99
100
100
101
101
100
100
100
100
100
100
100
99
99
99
99
99
100
100
100
99
99
98
98
98
97
97
96
96
96
95
95
95
94
94
93
93
93
93
93
93
93
94
94
94
94
94
95
95
95
95
95
94
94
93
93
93
93
93
94
94
94
94
95
95
96
96
97
98
99
99
100
101
102
101
102
103
103
103
105
105
105
105
105
104
104
103
103
102
102
101
101
101
100
99
99
98
98
97
97
97
96
95
95
95
95
95
95
95
96
96
97
98
98
99
99
100
100
101
102
102
102
102
102
102
102
101
101
102
101
101
100
99
99
97
96
95
93
92
92
91
90
90
89
89
89
89
89
89
90
91
92
93
94
94
96
97
98
100
101
102
104
104
105
106
107
106
107
107
107
107
107
107
107
107
106
106
105
105
105
103
102
102
101
100
99
99
99
98
98
97
97
96
95
94
94
94
94
93
93
93
93
93
93
93
93
92
92
92
92
92
93
93
94
94
94
94
94
96
96
97
98
99
100
102
103
103
104
105
106
107
107
108
108
108
108
108
108
108
107
107
106
105
105
105
104
104
103
102
102
101
101
100
100
100
99
99
98
98
98
98
98
99
99
99
101
101
102
102
103
103
103
103
104
104
104
104
104
104
104
104
103
103
102
101
100
100
99
98
98
97
96
96
95
95
94
95
94
93
93
92
92
92
91
91
91
90
90
89
89
90
90
90
90
90
90
90
90
91
91
92
92
94
94
95
95
96
97
97
98
98
98
98
99
99
100
100
100
101
101
101
101
101
102
103
103
103
103
103
104
105
105
105
105
104
103
102
101
101
100
99
99
99
98
97
96
96
96
96
96
96
96
97
97
98
98
99
100
100
101
101
101
102
102
101
101
100
100
100
99
99
98
98
98
97
96
97
97
96
96
96
96
95
95
94
94
93
94
93
94
94
95
95
95
95
96
95
96
96
97
99
99
100
101
102
103
104
104
105
105
105
105
106
106
106
106
105
106
106
107
106
107
108
109
108
109
109
109
110
110
110
110
109
109
108
107
106
105
104
102
101
100
99
98
97
96
95
94
94
94
94
94
94
94
95
96
97
98
99
100
101
102
103
104
105
107
108
109
109
109
109
109
109
108
108
107
106
105
105
104
103
102
101
100
99
97
96
96
95
93
92
92
93
93
94
94
95
95
96
97
97
99
99
100
100
101
102
102
102
103
104
104
103
103
103
103
103
102
101
99
98
97
95
94
93
92
92
91
91
91
92
94
96
98
100
104
107
111
116
123
128
136
142
150
158
165
173
183
191
200
208
217
226
233
240
248
256
264
270
277
283
287
292
295
298
300
301
301
299
297
293
288
283
278
271
265
257
251
243
234
227
219
211
204
197
191
185
179
175
171
167
163
161
158
155
152
150
147
145
142
140
138
136
133
132
130
129
127
126
124
123
122
122
120
119
117
115
114
112
111
108
106
102
100
96
94
91
89
87
86
84
83
82
81
81
81
81
83
84
85
87
89
90
93
95
97
98
100
101
102
103
104
104
104
104
105
105
105
105
104
104
104
104
104
104
104
104
104
105
106
105
105
105
104
104
103
103
102
103
102
101
100
99
98
98
96
95
94
94
93
93
92
92
92
93
93
94
94
94
94
95
96
96
97
98
99
99
100
101
101
102
103
104
105
105
106
106
106
106
106
105
104
104
103
102
101
99
97
95
94
92
90
89
87
85
84
83
82
81
82
81
81
81
82
83
84
85
86
87
90
91
93
94
96
97
99
99
100
102
103
104
104
105
105
105
104
104
103
103
103
102
102
102
101
100
100
98
97
96
96
96
96
95
96
96
96
96
97
97
97
98
99
99
100
100
100
100
100
100
101
100
100
100
100
100
100
100
100
100
100
100
101
101
101
100
100
99
99
98
98
97
97
96
95
95
95
94
94
95
95
95
95
95
96
97
99
101
102
104
105
106
108
109
110
112
113
114
114
115
115
115
114
114
113
113
112
111
110
109
108
107
105
104
103
104
103
103
103
103
102
102
103
103
103
104
105
106
107
109
110
111
112
112
113
114
114
114
115
115
115
115
116
116
116
116
114
114
114
114
114
114
114
114
113
113
113
112
112
112
112
112
112
112
111
111
111
110
110
109
109
108
108
106
105
105
104
103
103
101
100
100
98
98
96
96
96
95
95
96
95
96
95
96
96
98
99
99
100
101
100
101
101
101
102
101
101
101
100
100
99
99
97
96
96
95
95
94
94
94
93
93
93
94
94
94
95
96
96
97
98
99
98
99
100
100
101
101
102
102
102
102
102
103
103
102
102
102
102
102
102
101
100
100
99
98
98
97
96
96
95
94
94
93
93
93
92
92
91
91
91
91
91
92
93
93
93
93
93
94
94
95
95
95
96
97
97
96
96
96
97
97
97
97
97
97
98
98
98
98
98
98
98
98
98
97
97
97
97
96
96
96
96
96
96
96
96
96
96
95
95
94
94
94
94
93
93
93
92
92
92
92
91
91
91
91
91
91
92
92
92
94
94
95
95
96
96
97
98
98
99
99
100
101
101
101
101
101
101
101
101
101
101
100
100
99
99
98
99
98
98
97
97
97
96
96
96
96
96
97
97
97
98
98
99
99
99
99
99
99
99
98
98
98
98
98
99
98
98
98
97
96
95
94
94
93
92
92
91
91
91
91
91
91
91
91
91
91
91
92
93
93
94
95
96
98
99
100
100
101
102
102
102
102
102
102
102
102
101
101
100
100
99
99
99
97
97
97
97
97
97
97
97
96
96
97
97
96
97
97
98
98
99
99
98
98
97
97
97
96
96
96
95
95
94
93
93
93
92
92
91
90
90
90
89
90
90
90
90
90
90
90
91
92
92
93
94
93
94
95
96
96
97
98
99
100
100
101
101
101
100
100
100
99
99
98
98
97
96
96
95
94
93
92
91
90
89
89
88
88
88
89
90
90
91
92
93
93
95
95
95
97
97
98
99
100
100
100
100
100
100
100
99
98
97
96
95
95
94
93
92
92
91
90
89
88
88
87
87
86
87
86
86
86
86
87
86
86
87
87
88
88
89
90
91
91
91
92
92
92
93
93
93
94
94
95
94
94
95
94
95
95
95
96
96
95
96
96
96
97
97
97
97
98
98
98
98
98
98
99
99
98
98
97
97
96
95
94
94
93
93
92
92
91
90
90
89
88
89
89
89
89
90
90
91
91
93
94
95
97
97
98
100
100
101
101
102
102
101
102
101
101
100
99
98
97
95
94
93
92
91
90
89
88
87
87
88
88
88
88
89
89
89
90
92
92
93
95
96
96
97
97
98
100
101
102
102
102
102
101
101
100
100
99
98
97
96
94
93
93
91
89
88
86
84
83
83
83
82
82
83
83
83
84
85
85
87
88
89
90
92
94
95
96
98
99
100
100
101
101
101
101
101
101
100
100
99
100
99
99
98
97
96
96
96
95
95
94
94
94
94
93
93
93
93
93
93
93
93
93
92
91
91
90
90
89
89
88
87
87
87
87
88
88
89
88
89
91
92
93
96
99
103
107
111
116
120
124
129
135
141
148
154
162
169
176
184
193
201
209
218
226
235
243
251
258
265
271
278
283
288
292
294
297
298
298
298
295
292
288
284
278
271
265
257
250
242
235
227
219
211
204
197
190
183
177
171
165
161
156
152
148
144
141
137
135
131
129
127
125
123
121
120
119
118
116
116
114
113
112
111
110
108
108
106
105
104
102
101
100
98
96
94
94
93
92
91
91
90
89
89
90
90
90
90
91
91
91
91
92
92
93
93
95
95
95
95
95
94
94
93
93
93
93
93
93
93
93
93
93
93
93
93
93
93
93
93
93
93
93
93
93
92
92
91
91
90
89
89
88
87
86
85
85
85
85
85
85
85
85
85
86
86
87
88
88
89
90
91
92
93
94
95
95
96
96
96
97
97
96
95
94
93
93
92
90
89
88
86
85
84
83
82
81
81
81
81
82
82
83
84
84
85
86
88
89
91
93
94
96
97
98
100
100
101
101
101
101
101
101
101
100
100
99
99
99
98
97
96
95
95
95
94
93
92
92
92
91
90
90
90
89
89
88
87
86
85
85
84
84
84
84
84
84
84
84
85
85
86
86
86
87
87
88
89
90
91
92
93
94
96
97
98
98
99
99
100
100
101
101
101
101
102
102
102
102
102
102
101
100
100
99
99
98
97
97
96
97
97
97
98
97
97
97
97
98
98
99
100
100
101
102
103
103
104
104
104
104
105
105
105
105
105
105
105
105
105
105
105
106
106
106
107
107
107
107
107
107
107
107
107
107
107
106
106
106
106
106
106
106
105
105
105
106
106
106
107
107
107
108
108
109
109
109
109
109
109
109
109
108
108
107
106
105
106
105
104
103
102
101
100
99
99
99
99
98
98
98
99
98
98
99
98
98
97
97
97
97
96
96
95
95
95
95
94
94
93
92
92
92
92
92
91
90
90
90
89
89
90
89
89
88
89
88
88
88
87
87
87
86
86
86
87
87
87
87
87
87
87
87
87
88
88
88
88
88
89
89
89
89
89
90
90
89
90
90
91
91
91
90
90
90
90
90
90
89
89
88
88
87
86
85
85
84
84
84
84
83
83
84
84
84
85
85
87
87
88
89
89
88
90
90
90
90
89
88
88
87
86
86
85
85
83
83
82
81
81
80
80
81
82
83
83
84
85
85
87
88
88
89
91
91
91
91
91
91
91
91
90
90
89
88
87
87
86
85
85
84
84
83
83
83
82
81
82
82
82
82
82
83
83
83
83
83
83
82
83
83
83
82
82
81
81
80
80
80
80
80
80
80
80
80
80
80
80
80
81
81
81
82
83
83
83
84
84
84
85
85
84
84
83
82
82
81
81
80
80
80
79
79
79
79
79
79
80
81
81
82
83
84
85
86
86
87
88
87
88
89
89
89
89
89
89
88
88
87
86
85
84
84
83
83
83
83
83
82
82
82
81
81
80
80
80
80
80
80
80
79
79
79
79
78
77
78
78
79
79
79
79
79
79
80
80
80
80
80
81
81
81
81
81
80
80
80
80
80
80
80
79
79
79
79
78
79
79
78
79
79
79
79
80
80
80
80
80
79
79
79
79
79
79
80
80
80
79
79
78
79
78
78
78
78
78
78
78
77
77
77
77
77
78
78
78
78
79
79
79
79
79
79
79
79
78
78
77
77
77
76
77
77
76
76
75
75
75
75
75
75
75
75
75
75
75
76
76
77
77
77
77
77
78
78
78
78
79
79
79
80
80
80
81
81
81
80
80
79
78
78
77
76
75
75
74
74
73
72
71
71
70
69
69
68
68
69
70
70
71
71
72
72
73
74
75
76
77
78
79
79
81
82
82
83
83
84
83
83
84
84
84
84
84
83
83
82
82
81
81
80
79
79
78
78
77
77
77
76
76
76
76
76
75
75
75
75
75
75
75
75
75
75
75
74
74
74
73
73
74
73
73
72
71
71
70
70
69
68
67
65
64
63
62
61
61
61
61
61
62
62
63
64
65
66
67
69
71
72
74
75
77
79
81
81
83
83
84
84
84
83
83
82
81
80
79
78
78
76
75
75
73
72
71
71
71
70
69
69
68
69
68
68
68
69
69
70
70
70
71
71
72
72
73
73
74
74
75
75
75
75
75
75
76
75
75
75
76
76
75
76
76
76
76
77
77
77
78
77
77
77
77
77
78
78
78
77
77
77
76
76
75
75
74
75
74
74
74
73
73
73
71
71
71
72
71
71
71
70
71
70
70
69
69
70
69
69
69
70
70
71
71
71
71
72
72
71
72
72
73
74
74
75
75
76
76
76
76
76
76
77
77
77
77
77
77
76
76
76
76
75
75
75
75
76
75
76
76
76
76
76
76
75
75
76
76
77
77
78
78
79
79
79
79
79
79
79
79
78
79
79
78
78
77
78
77
77
77
76
76
76
76
76
77
76
76
77
76
76
76
76
76
77
77
76
77
77
77
77
77
76
76
76
77
77
77
76
76
75
74
73
73
72
73
72
72
71
72
71
71
70
69
68
68
68
67
67
67
66
65
64
64
63
62
62
62
61
61
61
61
63
63
64
66
68
70
72
75
78
82
86
91
96
101
106
112
118
124
131
136
143
150
157
164
172
180
187
196
205
214
222
229
238
246
252
260
266
271
277
281
284
288
289
290
289
288
286
283
278
272
266
258
252
244
236
227
218
209
201
192
183
174
166
159
153
147
141
136
131
127
123
119
117
114
111
109
108
106
105
104
102
101
99
99
97
97
95
94
92
91
89
89
87
86
84
83
82
81
80
79
79
77
77
76
76
75
75
74
74
73
73
73
72
72
72
72
72
72
72
72
72
72
73
73
74
74
73
73
74
74
74
74
74
74
74
73
73
73
73
73
73
73
72
72
71
71
70
71
71
70
70
70
70
71
71
71
71
71
71
70
70
71
71
71
71
70
71
70
70
70
71
71
72
72
72
73
73
74
74
75
76
76
77
77
78
78
79
79
79
79
78
78
77
77
76
75
75
74
73
73
72
72
72
72
72
71
71
72
73
73
74
74
76
76
77
77
77
79
79
80
80
80
81
81
81
81
81
80
80
80
79
79
79
79
78
78
77
77
77
76
76
76
75
75
75
75
75
74
74
74
74
74
75
75
75
75
75
76
77
77
77
77
77
77
77
76
77
77
76
75
74
74
73
72
73
72
71
70
70
70
70
70
70
71
71
73
73
74
75
77
78
80
80
81
82
83
84
85
85
85
85
85
85
85
85
85
85
84
85
85
85
85
85
86
86
87
88
89
90
90
92
92
93
93
95
96
96
97
97
97
97
96
97
96
96
95
95
94
94
94
93
93
93
93
92
92
92
92
92
92
92
93
93
93
93
94
94
94
94
95
95
94
94
94
93
93
92
92
91
91
91
90
90
90
90
90
90
89
89
89
89
89
88
88
88
88
89
89
89
89
89
89
89
90
90
90
90
89
90
90
90
90
89
90
90
90
90
90
90
89
89
89
89
87
87
87
85
85
83
83
83
81
81
80
80
80
78
78
78
77
77
77
78
78
78
78
79
79
80
80
81
81
81
82
83
83
84
84
84
85
84
85
85
84
84
84
84
84
84
84
84
83
82
82
82
82
81
81
80
79
79
78
77
76
76
75
75
75
74
74
73
73
72
71
71
71
71
71
72
72
72
72
73
73
73
74
74
75
76
77
76
78
79
80
81
81
82
83
83
84
84
84
84
84
84
84
84
84
85
84
84
83
83
83
82
82
81
80
80
79
79
79
79
79
79
79
78
78
77
77
76
76
76
76
76
76
76
76
76
76
77
77
77
77
77
77
78
78
78
79
79
79
79
79
80
80
80
80
81
81
80
81
81
81
82
82
83
83
84
83
83
83
83
82
82
81
79
78
77
76
74
74
73
72
72
71
71
71
70
70
70
70
71
71
73
74
76
76
77
77
79
79
80
80
80
81
81
81
81
81
81
81
82
82
82
83
83
82
83
83
83
84
84
84
85
85
85
85
85
85
85
85
85
85
85
85
84
84
84
84
84
84
84
84
84
84
84
84
84
83
83
83
83
83
84
84
83
83
83
82
82
83
83
82
82
82
82
82
81
81
81
81
79
79
78
77
76
76
75
75
76
77
77
77
77
77
78
78
79
80
81
81
82
83
84
85
85
86
86
87
86
86
86
85
84
83
84
83
82
83
82
81
81
81
81
81
81
81
80
80
80
79
79
80
79
78
79
78
77
75
75
74
74
73
73
73
73
73
72
73
73
73
74
74
75
75
76
77
77
79
80
81
82
84
84
85
87
87
88
88
89
90
90
90
91
91
91
91
91
90
90
90
89
90
89
88
88
88
87
87
86
86
86
86
85
85
85
85
84
85
85
86
86
87
87
88
89
89
91
91
92
92
93
93
94
93
94
94
94
93
92
92
91
91
90
90
88
88
87
86
86
85
85
84
84
84
84
84
83
83
83
83
83
83
82
82
81
81
81
81
80
80
80
80
80
80
80
81
81
80
81
81
82
82
83
84
84
85
86
87
89
89
90
91
91
92
92
93
93
94
95
95
96
96
96
96
96
96
96
95
95
95
94
94
93
93
92
92
91
90
89
88
87
86
86
85
85
84
84
83
83
83
83
83
84
84
84
85
85
86
86
87
87
88
89
89
90
90
91
91
92
92
92
92
91
91
90
90
88
87
85
83
82
80
79
77
76
74
73
73
73
73
73
73
75
75
78
80
83
86
90
94
98
103
109
114
120
126
132
138
144
150
157
164
171
178
186
194
202
211
218
227
236
245
253
262
269
277
283
290
296
301
305
308
309
311
310
308
305
301
296
291
283
276
268
259
252
243
233
225
216
207
199
191
183
176
170
165
159
154
151
147
143
140
138
136
134
132
130
128
126
124
122
120
118
117
115
114
111
109
109
107
107
105
104
102
101
101
100
99
99
98
98
98
97
97
96
95
94
93
92
91
90
90
89
88
87
88
87
87
86
86
86
86
86
87
88
89
89
90
91
91
92
93
94
94
95
97
97
97
97
97
96
96
96
96
96
95
95
94
93
94
93
92
91
91
90
89
89
88
88
88
87
87
87
86
86
86
85
85
85
86
86
86
86
86
86
86
87
87
87
88
88
88
89
89
89
90
90
90
90
90
90
90
90
90
90
90
90
90
90
90
90
90
90
90
90
91
91
91
91
92
93
93
93
93
93
93
93
94
94
94
94
94
94
94
93
93
94
93
93
92
93
93
92
92
91
90
89
88
88
88
87
87
87
87
86
87
87
87
88
88
89
89
90
92
93
93
94
95
96
96
96
96
96
96
96
95
95
95
95
94
94
93
93
92
92
92
91
91
90
90
90
90
90
91
91
91
91
92
93
94
94
94
95
95
97
97
98
98
99
100
101
101
101
102
103
103
104
104
105
105
105
105
105
105
105
104
104
105
105
104
104
104
104
103
103
103
102
102
102
101
101
100
101
100
100
100
101
100
100
99
99
99
99
99
98
98
99
99
98
98
98
99
99
99
99
100
100
100
101
101
102
102
103
103
104
104
104
104
104
104
103
103
103
102
102
101
100
100
99
99
97
97
97
97
96
96
96
97
96
96
96
96
95
95
95
94
93
93
93
92
91
91
90
90
88
88
88
86
86
86
86
86
87
86
86
87
87
87
88
89
88
89
89
90
90
89
89
89
88
88
88
87
88
88
87
88
88
87
87
87
86
85
85
85
83
83
82
82
80
80
79
79
78
77
75
75
74
74
73
73
73
72
72
73
73
74
74
75
75
75
75
76
77
77
78
78
78
78
79
78
77
77
77
77
77
77
77
77
76
76
75
75
74
74
73
74
74
74
73
73
73
73
73
73
73
73
73
74
74
74
74
74
74
73
73
72
71
71
70
70
69
69
68
67
66
66
66
66
66
66
66
66
66
66
65
65
65
66
67
67
67
67
67
67
67
67
66
65
65
65
65
64
64
64
64
64
65
64
64
64
64
63
63
63
63
62
62
62
61
60
60
59
58
57
55
54
53
52
52
51
50
48
48
48
48
48
48
48
48
48
49
50
51
52
53
54
55
56
58
59
60
61
61
62
62
62
61
61
62
61
60
59
59
58
57
55
54
53
51
49
47
45
45
44
43
43
43
42
41
41
41
41
41
41
42
43
44
45
45
46
46
47
47
48
48
49
50
50
51
51
51
51
51
51
51
51
50
50
50
49
48
47
46
45
44
43
42
40
39
37
35
34
33
31
30
30
30
29
29
29
28
28
28
28
28
29
30
30
31
31
31
32
32
31
31
31
31
30
30
30
29
29
28
28
27
27
26
25
25
24
22
21
20
19
19
19
18
19
19
19
19
20
20
21
23
24
25
26
27
28
29
31
30
31
31
32
32
32
32
31
30
30
29
29
27
26
25
25
23
22
20
20
18
17
15
14
13
11
10
9
9
8
7
6
5
5
5
4
4
4
3
4
4
4
5
6
7
8
8
9
10
10
11
11
12
13
14
14
14
14
14
14
13
13
12
12
11
10
8
7
6
4
2
0
-2
-3
-6
-7
-9
-10
-10
-11
-11
-12
-12
-13
-12
-13
-12
-11
-11
-10
-8
-7
-7
-6
-4
-4
-4
-4
-4
-5
-5
-6
-6
-7
-8
-9
-9
-11
-12
-13
-14
-15
-16
-16
-17
-17
-17
-18
-17
-18
-18
-18
-18
-19
-19
-19
-18
-18
-19
-18
-18
-19
-19
-19
-20
-20
-20
-21
-21
-20
-20
-20
-20
-19
-19
-19
-19
-19
-18
-18
-19
-19
-19
-20
-19
-20
-20
-21
-21
-21
-22
-22
-23
-24
-24
-25
-25
-27
-28
-28
-29
-29
-29
-30
-31
-31
-32
-31
-32
-32
-32
-33
-33
-33
-33
-33
-33
-33
-34
-34
-35
-35
-35
-36
-36
-38
-39
-39
-40
-40
-42
-43
-43
-44
-45
-45
-45
-46
-46
-47
-47
-48
-48
-48
-47
-47
-46
-46
-45
-44
-44
-43
-42
-41
-40
-39
-39
-38
-37
-37
-36
-36
-35
-35
-35
-35
-35
-35
-36
-38
-39
-40
-41
-42
-44
-46
-48
-49
-51
-52
-53
-54
-55
-56
-57
-57
-58
-59
-60
-59
-59
-58
-57
-57
-56
-56
-56
-55
-56
-56
-56
-54
-54
-54
-54
-54
-53
-54
-54
-54
-55
-56
-57
-56
-57
-58
-59
-59
-61
-62
-63
-64
-65
-66
-67
-68
-68
-69
-70
-70
-71
-72
-74
-74
-75
-76
-75
-76
-77
-77
-77
-78
-78
-79
-79
-79
-79
-78
-77
-76
-74
-71
-69
-66
-62
-58
-54
-49
-44
-39
-32
-27
-20
-13
-6
1
8
15
23
30
37
45
52
60
68
76
83
89
96
101
106
111
116
119
122
123
124
124
122
120
117
112
107
101
95
88
80
73
63
55
47
39
30
23
16
9
2
-4
-10
-16
-21
-26
-30
-33
-37
-41
-44
-47
-49
-52
-54
-57
-59
-61
-63
-65
-66
-69
-70
-72
-74
-76
-78
-80
-81
-83
-84
-86
-88
-89
-91
-91
-92
-92
-94
-95
-95
-96
-96
-97
-96
-97
-96
-97
-97
-96
-96
-96
-96
-96
-96
-97
-97
-96
-97
-97
-97
-97
-98
-99
-100
-100
-101
-102
-103
-104
-105
-106
-107
-107
-107
-107
-107
-107
-107
-107
-106
-106
-105
-105
-105
-105
-104
-104
-103
-102
-101
-100
-100
-99
-99
-99
-99
-99
-99
-99
-100
-101
-101
-102
-103
-104
-105
-106
-107
-107
-108
-109
-110
-109
-110
-111
-111
-111
-111
-112
-112
-111
-111
-110
-110
-110
-110
-110
-109
-109
-109
-108
-108
-108
-108
-107
-107
-107
-107
-107
-107
-107
-107
-107
-107
-107
-107
-107
-108
-108
-109
-108
-109
-110
-110
-111
-112
-113
-113
-114
-115
-116
-117
-118
-117
-117
-118
-118
-119
-118
-119
-119
-119
-119
-119
-119
-119
-118
-118
-118
-117
-117
-117
-118
-118
-119
-119
-120
-121
-121
-121
-122
-122
-123
-123
-123
-123
-123
-123
-123
-123
-122
-121
-121
-120
-120
-119
-119
-119
-118
-118
-118
-116
-116
-116
-115
-115
-114
-114
-114
-114
-114
-114
-113
-113
-112
-112
-112
-110
-110
-110
-109
-109
-108
-107
-107
-107
-107
-107
-107
-107
-107
-106
-107
-108
-108
-108
-109
-110
-110
-111
-111
-112
-113
-113
-114
-113
-114
-114
-115
-114
-114
-114
-114
-114
-113
-112
-111
-111
-110
-110
-110
-110
-110
-110
-110
-111
-110
-110
-111
-111
-112
-113
-114
-115
-116
-117
-118
-119
-120
-120
-121
-121
-121
-121
-120
-120
-120
-119
-119
-119
-117
-117
-116
-115
-115
-114
-113
-112
-112
-110
-110
-110
-110
-110
-110
-111
-111
-112
-113
-114
-114
-115
-116
-116
-117
-117
-118
-118
-120
-120
-120
-120
-120
-121
-121
-122
-122
-123
-122
-122
-122
-123
-123
-123
-124
-124
-124
-125
-125
-125
-126
-126
-127
-127
-127
-127
-128
-128
-128
-129
-129
-130
-130
-131
-132
-132
-132
-133
-133
-134
-134
-134
-133
-133
-132
-132
-133
-132
-132
-132
-133
-132
-132
-132
-132
-131
-132
-132
-132
-131
-133
-133
-133
-133
-133
-134
-134
-134
-134
-134
-135
-135
-135
-135
-136
-136
-137
-138
-138
-138
-139
-140
-141
-142
-142
-143
-143
-143
-143
-144
-144
-144
-145
-145
-145
-145
-145
-145
-145
-145
-144
-144
-144
-144
-144
-143
-143
-143
-142
-142
-141
-140
-139
-139
-138
-137
-136
-135
-135
-134
-134
-134
-134
-133
-134
-134
-135
-135
-135
-136
-137
-138
-140
-141
-143
-144
-144
-146
-147
-148
-149
-149
-150
-149
-149
-149
-149
-149
-148
-148
-147
-145
-144
-143
-142
-141
-140
-138
-137
-136
-136
-135
-134
-134
-134
-134
-135
-135
-136
-137
-138
-140
-141
-142
-143
-144
-144
-145
-145
-146
-147
-147
-147
-147
-147
-146
-146
-146
-146
-145
-145
-144
-144
-144
-143
-143
-143
-143
-143
-142
-142
-143
-143
-143
-143
-142
-142
-141
-140
-139
-139
-139
-138
-138
-138
-138
-139
-139
-139
-139
-140
-140
-140
-141
-142
-143
-144
-146
-147
-147
-148
-147
-147
-147
-147
-147
-146
-146
-146
-146
-145
-144
-144
-143
-141
-141
-140
-140
-139
-138
-138
-137
-137
-138
-137
-137
-136
-136
-136
-136
-136
-135
-136
-136
-135
-135
-135
-135
-135
-136
-135
-135
-136
-136
-137
-137
-137
-138
-139
-138
-139
-140
-141
-142
-143
-144
-145
-144
-145
-145
-145
-146
-146
-145
-145
-145
-144
-144
-144
-143
-142
-141
-139
-138
-137
-135
-135
-134
-132
-131
-130
-129
-128
-128
-127
-127
-127
-127
-127
-127
-128
-129
-130
-131
-132
-132
-134
-135
-136
-138
-139
-140
-141
-142
-143
-143
-143
-143
-143
-143
-143
-142
-142
-141
-140
-139
-138
-137
-136
-135
-135
-133
-133
-133
-133
-133
-133
-133
-134
-134
-135
-136
-137
-138
-140
-141
-142
-143
-144
-144
-145
-145
-145
-145
-144
-144
-143
-143
-142
-140
-139
-138
-137
-136
-135
-134
-133
-132
-131
-131
-129
-128
-128
-129
-128
-128
-129
-128
-129
-129
-130
-130
-130
-130
-130
-131
-131
-131
-131
-132
-133
-133
-133
-133
-134
-133
-134
-134
-134
-135
-134
-135
-136
-136
-137
-137
-138
-138
-139
-138
-138
-138
-138
-138
-137
-137
-137
-138
-137
-137
-136
-135
-135
-134
-132
-131
-131
-130
-130
-129
-129
-128
-127
-126
-127
-126
-125
-125
-124
-124
-123
-123
-123
-122
-122
-123
-123
-123
-124
-124
-125
-125
-125
-126
-126
-126
-127
-127
-127
-127
-128
-128
-129
-129
-128
-129
-128
-129
-128
-128
-128
-127
-128
-127
-126
-126
-126
-125
-125
-124
-124
-124
-124
-123
-123
-123
-123
-122
-122
-123
-122
-122
-122
-122
-123
-123
-123
-123
-123
-122
-122
-122
-122
-122
-122
-122
-122
-122
-122
-122
-121
-121
-120
-119
-119
-119
-118
-119
-119
-118
-119
-119
-118
-119
-118
-117
-117
-118
-117
-117
-117
-117
-118
-118
-118
-118
-118
-118
-118
-118
-119
-120
-120
-121
-121
-121
-121
-121
-121
-121
-121
-120
-120
-120
-120
-119
-119
-119
-119
-118
-118
-117
-117
-116
-116
-115
-115
-115
-115
-115
-114
-114
-114
-114
-115
-115
-115
-115
-115
-116
-116
-116
-117
-117
-117
-117
-117
-117
-117
-117
-117
-117
-117
-117
-117
-117
-118
-118
-119
-119
-119
-120
-120
-121
-121
-121
-121
-121
-120
-119
-117
-116
-114
-111
-108
-106
-102
-97
-93
-88
-82
-76
-70
-64
-58
-51
-44
-37
-30
-23
-16
-8
-1
7
15
21
28
36
43
50
57
61
66
70
75
77
80
82
82
83
82
81
78
75
70
66
61
54
48
41
35
27
20
13
6
-1
-9
-15
-21
-27
-32
-37
-41
-46
-49
-53
-56
-59
-62
-65
-67
-69
-71
-73
-74
-75
-76
-77
-79
-79
-81
-81
-83
-84
-84
-85
-86
-87
-86
-87
-88
-91
-91
-92
-94
-94
-96
-97
-98
-99
-100
-101
-102
-102
-103
-104
-104
-105
-106
-107
-108
-107
-108
-108
-108
-107
-106
-106
-105
-105
-104
-103
-103
-102
-101
-100
-99
-98
-97
-96
-95
-94
-94
-93
-93
-93
-93
-93
-93
-94
-94
-94
-95
-95
-96
-97
-96
-97
-97
-97
-98
-98
-98
-98
-98
-98
-97
-97
-97
-97
-97
-97
-97
-97
-96
-97
-97
-97
-97
-97
-97
-97
-97
-97
-97
-97
-97
-97
-97
-96
-96
-96
-95
-94
-94
-94
-93
-93
-92
-91
-91
-90
-90
-90
-90
-91
-91
-91
-91
-91
-92
-92
-92
-93
-94
-94
-94
-94
-94
-94
-94
-94
-94
-94
-93
-93
-92
-92
-91
-91
-90
-89
-88
-87
-87
-87
-87
-86
-86
-86
-86
-86
-86
-87
-86
-86
-86
-86
-86
-85
-85
-86
-86
-86
-86
-86
-86
-86
-86
-85
-85
-85
-84
-84
-83
-83
-83
-84
-83
-83
-82
-82
-82
-82
-81
-80
-80
-80
-80
-80
-79
-79
-79
-79
-79
-79
-79
-79
-79
-79
-80
-80
-81
-80
-80
-81
-81
-81
-81
-81
-81
-80
-80
-79
-79
-78
-77
-76
-74
-73
-72
-71
-70
-69
-68
-66
-65
-64
-64
-63
-63
-63
-63
-62
-62
-63
-63
-64
-64
-65
-65
-66
-66
-65
-66
-66
-66
-65
-66
-66
-66
-65
-65
-66
-65
-65
-65
-65
-65
-64
-64
-64
-64
-63
-63
-62
-62
-61
-61
-60
-60
-59
-59
-58
-57
-56
-56
-56
-56
-55
-55
-56
-56
-56
-57
-57
-58
-58
-59
-59
-60
-60
-60
-61
-61
-61
-61
-61
-61
-60
-60
-60
-59
-59
-59
-58
-58
-58
-57
-58
-57
-57
-58
-58
-58
-58
-58
-58
-58
-59
-59
-60
-60
-61
-61
-61
-61
-61
-61
-61
-61
-62
-62
-62
-63
-63
-63
-64
-63
-64
-63
-63
-63
-63
-63
-62
-63
-62
-61
-62
-62
-61
-60
-61
-60
-60
-59
-59
-60
-60
-61
-61
-62
-62
-62
-62
-64
-64
-64
-64
-65
-65
-66
-66
-66
-66
-66
-66
-66
-65
-64
-64
-63
-62
-62
-61
-60
-59
-59
-59
-58
-57
-56
-55
-55
-54
-54
-53
-54
-53
-53
-53
-53
-54
-54
-54
-54
-55
-56
-56
-56
-56
-57
-57
-57
-57
-58
-58
-59
-60
-61
-61
-60
-60
-60
-60
-59
-59
-59
-58
-58
-58
-56
-56
-56
-55
-55
-54
-53
-53
-53
-53
-53
-53
-53
-53
-52
-52
-52
-52
-52
-52
-52
-52
-52
-52
-52
-52
-52
-51
-51
-51
-51
-51
-51
-51
-51
-51
-51
-51
-52
-52
-52
-53
-53
-54
-54
-54
-53
-52
-52
-52
-52
-52
-52
-51
-51
-51
-50
-49
-49
-49
-48
-48
-48
-47
-47
-47
-46
-46
-45
-45
-44
-45
-44
-44
-44
-43
-43
-43
-42
-42
-42
-42
-43
-43
-44
-45
-46
-47
-48
-49
-50
-50
-51
-52
-52
-53
-53
-54
-55
-55
-55
-55
-54
-53
-52
-51
-50
-49
-47
-47
-46
-44
-43
-41
-40
-39
-37
-36
-35
-34
-34
-33
-32
-32
-32
-32
-32
-32
-32
-33
-33
-33
-34
-34
-35
-36
-37
-38
-39
-40
-40
-41
-41
-42
-42
-43
-44
-44
-44
-44
-43
-43
-44
-44
-43
-43
-42
-42
-42
-41
-41
-41
-41
-40
-40
-39
-39
-38
-38
-38
-37
-37
-37
-36
-36
-35
-34
-34
-33
-33
-33
-33
-32
-33
-33
-33
-33
-33
-33
-33
-34
-34
-35
-35
-36
-37
-37
-37
-37
-37
-37
-37
-38
-38
-38
-38
-38
-38
-37
-37
-36
-36
-36
-35
-33
-32
-31
-31
-30
-29
-28
-28
-27
-25
-24
-23
-23
-23
-22
-21
-21
-20
-20
-20
-20
-20
-21
-21
-22
-22
-23
-23
-24
-24
-25
-26
-25
-26
-26
-27
-27
-28
-27
-28
-28
-28
-27
-27
-28
-27
-28
-28
-28
-29
-29
-29
-30
-30
-30
-30
-30
-31
-30
-30
-30
-30
-30
-31
-31
-30
-30
-30
-29
-28
-28
-28
-28
-28
-27
-27
-27
-27
-27
-27
-27
-28
-28
-28
-28
-27
-27
-27
-28
-28
-28
-27
-26
-26
-25
-24
-24
-23
-22
-22
-20
-20
-19
-19
-18
-16
-15
-14
-13
-12
-12
-11
-10
-10
-9
-10
-10
-10
-9
-8
-8
-8
-8
-8
-9
-9
-9
-9
-9
-9
-9
-9
-10
-10
-10
-10
-10
-11
-11
-11
-12
-12
-13
-13
-14
-14
-14
-15
-14
-15
-17
-17
-18
-17
-17
-18
-17
-18
-17
-18
-17
-17
-17
-17
-16
-16
-16
-16
-15
-15
-14
-14
-15
-15
-15
-15
-16
-16
-16
-15
-16
-16
-15
-15
-16
-15
-15
-15
-14
-13
-13
-12
-11
-10
-9
-8
-7
-6
-5
-5
-4
-3
-2
-2
-2
-1
0
0
0
0
0
-1
-1
-1
-1
-1
-3
-3
-3
-3
-4
-4
-5
-5
-5
-6
-7
-7
-7
-7
-7
-8
-8
-8
-8
-9
-10
-10
-10
-10
-10
-10
-10
-9
-9
-8
-7
-5
-4
-4
-3
-3
-2
0
1
2
3
3
4
5
6
6
6
6
6
6
5
4
4
3
1
0
-2
-3
-4
-6
-8
-10
-10
-12
-13
-13
-15
-15
-16
-17
-16
-15
-14
-11
-9
-6
-3
0
4
9
14
20
26
33
39
44
52
59
67
74
82
89
97
105
113
121
129
137
145
153
160
167
174
181
187
192
196
201
203
206
207
207
206
205
203
198
194
189
183
176
169
162
154
146
139
130
123
115
107
100
94
88
83
77
73
68
64
60
56
53
50
47
44
42
40
37
35
33
30
29
27
25
24
23
23
21
19
18
17
16
15
14
14
14
13
13
13
11
11
12
11
12
11
12
13
13
14
14
13
14
14
14
14
14
13
13
13
12
12
11
11
10
9
8
7
7
6
5
4
3
3
3
3
3
3
3
3
4
4
5
5
6
7
7
8
9
11
12
13
12
13
14
15
15
16
16
17
17
17
17
18
17
17
17
17
18
18
19
19
18
18
18
17
16
16
15
15
14
13
13
13
12
11
10
9
9
8
7
7
7
7
7
7
8
9
9
10
10
11
12
12
13
13
14
14
15
15
15
16
16
16
16
15
15
14
14
13
14
13
13
13
12
13
13
13
13
13
13
13
13
12
12
11
11
11
11
11
12
12
12
12
13
13
13
14
15
16
16
17
18
20
20
21
22
22
23
23
24
25
25
25
24
25
25
25
25
24
24
24
23
23
23
23
23
23
23
22
22
22
22
22
23
23
23
24
24
24
25
25
25
26
26
26
27
27
27
28
28
28
29
29
29
29
29
30
29
30
30
29
30
29
29
29
29
29
30
30
30
30
30
30
30
30
30
30
30
30
29
29
29
30
30
30
30
30
30
32
32
32
33
34
34
36
37
38
39
40
41
42
43
44
45
46
47
48
48
49
49
50
50
50
50
49
49
48
48
47
47
46
45
44
43
42
41
41
40
40
39
39
38
38
37
36
36
36
36
35
35
36
36
36
36
37
37
38
37
38
38
38
38
39
38
38
38
38
37
37
37
37
36
35
34
34
33
33
31
30
29
28
27
26
25
24
24
24
25
24
24
25
25
25
26
26
27
28
29
30
30
31
32
33
34
34
35
36
36
36
36
36
35
35
35
34
34
34
34
34
33
32
32
32
32
32
31
31
30
30
30
30
30
29
29
29
28
28
27
27
26
26
26
25
25
25
25
25
25
25
25
26
26
27
26
27
28
29
29
30
30
31
31
32
32
34
34
34
34
34
33
33
33
33
32
32
30
30
29
28
27
27
26
25
24
23
22
21
21
21
22
22
23
24
25
25
27
28
30
31
32
33
35
37
39
40
41
42
42
42
42
42
41
41
41
40
40
39
39
38
37
36
35
34
34
33
33
32
31
31
30
30
30
30
29
29
29
29
28
29
29
29
29
29
29
29
28
29
29
30
31
32
32
32
33
33
33
34
34
34
34
33
32
31
31
30
30
29
29
28
28
27
26
25
25
25
25
25
26
26
27
28
29
30
31
32
32
32
33
34
35
36
37
37
38
39
40
40
41
41
41
41
41
41
42
42
42
42
42
42
42
41
41
40
40
40
40
38
38
37
36
36
35
35
35
35
35
34
34
35
35
35
35
36
37
38
39
39
40
41
41
41
41
41
41
40
40
39
38
38
37
36
35
35
34
33
33
32
32
31
30
30
30
31
32
32
32
32
32
33
33
34
35
36
37
37
38
38
39
39
39
40
40
41
40
40
41
41
42
42
42
42
43
43
43
43
43
43
42
42
42
42
42
41
42
42
42
42
41
40
40
39
38
38
38
37
37
37
37
37
37
36
37
37
38
38
39
39
40
40
41
41
41
41
41
41
41
41
41
40
39
39
38
38
38
37
36
36
36
36
36
36
36
36
36
37
39
40
41
42
42
43
44
45
45
46
46
46
47
47
47
47
47
46
46
46
45
45
44
44
43
42
41
41
41
41
40
39
39
39
39
39
39
39
39
39
40
40
40
40
40
40
40
40
40
40
40
40
40
40
40
40
40
39
39
39
39
39
39
39
38
38
38
38
38
38
39
39
39
39
39
39
40
40
40
41
41
41
42
43
43
44
45
45
46
47
47
46
47
47
48
48
47
47
48
48
48
48
48
48
48
48
47
46
47
46
46
46
46
46
45
46
45
45
45
44
44
44
44
44
44
44
44
46
46
47
46
46
46
47
46
46
46
45
45
45
46
46
45
45
45
45
44
44
44
45
44
45
45
46
46
47
47
47
48
48
48
49
49
50
50
50
50
51
51
51
51
50
51
51
51
51
51
52
51
51
51
50
50
50
50
49
48
48
47
47
46
46
46
45
45
43
42
43
42
41
42
41
42
42
42
42
43
44
45
45
46
47
48
48
49
50
50
51
52
52
52
52
52
52
51
51
51
50
50
50
50
48
48
48
48
48
48
47
47
46
47
47
46
46
46
46
46
46
46
46
45
45
45
45
45
45
46
45
45
45
45
46
46
47
47
47
49
49
49
50
50
50
51
51
51
51
52
52
52
52
52
52
52
52
50
50
50
50
50
50
49
49
49
49
48
48
48
48
48
48
48
48
48
48
48
48
48
47
46
45
45
44
44
43
43
43
41
41
40
40
40
40
40
41
41
42
44
45
47
49
52
55
58
61
66
70
75
80
85
90
96
101
108
114
121
128
135
143
151
160
168
178
186
196
205
213
222
229
238
245
251
258
263
267
270
272
273
272
270
267
263
257
250
244
235
227
219
209
201
191
182
173
165
155
147
140
133
127
122
116
111
107
104
101
97
94
91
89
86
84
81
79
77
77
75
73
73
72
71
71
70
70
69
69
69
68
68
67
66
65
64
63
61
60
58
57
55
54
52
52
50
50
49
48
47
48
48
48
48
49
50
50
51
51
52
53
54
54
54
54
53
52
52
51
50
50
49
48
48
47
47
46
46
46
45
45
44
44
44
45
45
45
46
46
47
48
49
49
50
50
51
51
52
52
53
54
54
55
55
56
55
55
55
55
55
55
55
55
54
54
53
53
53
52
52
52
52
52
52
52
51
51
51
52
52
52
52
52
53
53
53
54
54
55
54
54
54
54
54
54
54
54
53
53
52
51
51
50
49
48
47
46
46
45
43
42
41
41
41
41
41
41
43
43
43
44
46
47
48
49
51
53
54
56
57
59
60
61
62
63
64
63
63
63
63
63
63
63
62
62
61
60
59
59
58
57
57
57
56
56
55
54
54
54
54
54
54
54
53
53
54
55
55
55
56
56
57
58
58
59
59
60
61
62
63
63
64
64
65
65
65
65
65
65
66
66
66
65
65
64
64
63
62
62
61
61
60
60
60
60
60
60
60
59
59
59
60
60
61
61
62
62
63
63
65
65
65
67
67
68
68
70
70
71
71
72
73
73
73
73
74
74
74
74
74
75
75
74
74
73
72
72
71
70
70
69
69
68
68
67
67
65
65
64
64
63
63
63
64
64
65
65
66
66
66
67
68
68
70
71
72
72
73
74
74
75
75
74
74
73
73
72
71
70
69
69
68
66
65
64
63
61
60
59
57
57
56
54
54
53
53
52
53
54
53
54
55
54
55
56
55
56
57
58
59
58
59
59
60
60
60
60
60
58
58
58
58
57
56
56
56
56
55
54
54
53
53
53
53
53
53
53
53
53
53
53
53
54
53
54
54
55
55
56
57
57
57
58
59
59
60
60
60
61
60
60
61
61
61
61
61
61
61
62
62
62
62
62
63
62
62
62
61
61
61
61
61
59
59
58
57
56
56
55
54
53
52
51
49
49
48
47
46
45
44
43
43
43
42
42
43
43
43
44
44
45
45
46
47
48
49
50
51
52
53
54
55
55
56
57
57
58
58
58
59
59
58
58
57
57
58
57
57
57
56
56
56
56
56
56
56
55
55
55
55
55
55
55
56
56
57
57
57
57
57
58
58
58
58
58
58
59
59
59
59
58
58
58
58
58
57
57
57
57
57
57
56
56
55
55
55
54
54
54
52
52
52
51
51
50
50
49
49
48
48
47
47
47
46
46
47
47
47
48
49
50
51
52
54
55
57
59
60
61
62
62
62
63
63
63
63
62
62
61
60
59
57
56
54
52
51
50
48
47
46
46
45
44
45
44
44
44
45
45
45
46
46
46
46
46
48
48
48
48
48
49
49
50
50
50
50
49
48
48
48
47
47
47
47
46
47
46
46
46
45
46
46
46
46
46
47
48
48
49
50
50
51
52
53
54
53
54
55
54
54
55
55
54
53
53
52
51
50
49
48
48
48
48
47
47
47
47
47
47
48
48
49
50
51
52
53
54
55
56
56
57
57
57
58
58
58
59
58
58
58
59
59
58
58
58
57
56
56
56
56
56
55
55
55
54
53
53
53
53
52
52
52
52
53
52
52
53
53
53
53
52
52
52
51
50
50
50
49
48
47
47
46
46
46
46
46
46
45
46
47
48
49
50
50
51
52
53
54
54
55
55
55
56
56
55
55
55
54
55
54
53
52
51
50
50
49
49
48
48
47
47
46
46
45
45
44
44
43
42
43
43
44
43
44
45
45
46
46
47
48
49
50
51
53
54
55
55
57
58
58
59
59
59
59
58
58
58
57
56
55
54
53
52
51
50
48
46
45
43
42
40
39
37
36
36
35
34
34
33
33
34
35
37
38
41
43
45
49
53
57
61
65
70
75
81
87
94
100
106
112
120
127
133
140
147
154
161
169
176
184
191
198
204
211
217
223
228
232
236
238
241
243
243
243
242
240
237
233
229
224
218
212
205
198
191
184
176
169
162
155
147
141
135
130
124
119
113
110
105
102
97
94
90
87
84
83
80
78
76
74
72
70
67
65
64
63
62
61
61
60
59
59
59
58
58
57
57
57
57
58
58
58
57
57
56
56
55
54
54
53
52
50
49
49
47
46
45
44
43
43
42
42
41
41
40
40
40
41
42
42
43
43
43
44
45
46
47
48
49
50
51
52
52
53
54
54
54
54
54
53
54
53
53
53
52
51
50
50
49
48
48
47
46
45
45
45
45
45
46
45
45
46
46
45
45
45
44
44
44
43
43
43
43
43
42
42
41
42
42
42
42
42
43
43
43
44
45
45
47
47
48
49
49
50
50
51
52
51
51
51
51
51
51
51
50
50
50
49
48
48
47
46
46
45
44
44
43
42
43
42
42
42
42
43
43
43
44
44
45
46
47
48
48
48
50
51
51
52
52
53
54
54
54
54
54
54
54
54
53
53
53
52
52
51
51
50
49
50
49
48
49
48
48
47
47
47
47
46
46
45
45
44
44
44
45
45
45
45
46
46
47
47
47
48
49
50
52
53
54
55
56
58
59
59
59
59
59
59
59
58
59
58
57
57
56
56
54
53
54
53
52
52
52
52
52
52
54
54
55
56
56
56
58
58
59
59
60
61
62
62
64
64
64
65
65
65
64
64
64
66
65
65
65
65
64
63
63
63
62
62
62
61
61
61
61
59
59
59
58
59
59
58
58
58
58
58
58
58
58
58
58
58
58
58
58
57
57
57
57
58
57
57
56
55
54
53
52
50
50
48
48
47
47
45
44
44
42
41
40
40
39
38
38
37
37
36
35
35
35
35
34
34
34
34
33
34
34
35
35
36
36
37
38
38
39
40
41
41
42
42
43
44
43
44
45
44
45
44
45
45
46
46
46
46
46
46
46
46
47
46
46
46
47
46
46
46
46
46
45
44
44
43
42
41
41
40
40
40
39
39
38
37
37
36
36
36
36
36
36
36
36
36
36
36
36
36
37
37
38
38
38
38
38
38
38
38
38
38
37
37
37
38
38
38
38
38
37
37
37
37
37
37
37
37
36
36
36
36
35
35
35
34
34
33
32
33
32
31
31
31
31
30
29
28
28
28
28
29
29
30
30
30
30
30
30
31
32
32
33
33
34
34
36
36
36
36
36
37
37
37
37
37
37
37
38
38
38
39
38
38
38
38
39
39
39
39
38
38
38
38
38
37
38
37
37
37
36
36
35
34
34
33
33
33
32
32
32
31
31
31
31
31
31
30
30
30
30
29
29
29
28
28
28
28
28
28
29
29
29
29
29
30
30
31
31
31
32
32
34
34
34
35
35
35
35
35
34
34
33
33
33
33
31
30
29
28
27
26
25
24
24
22
21
21
21
20
21
21
21
22
22
23
24
24
25
26
27
27
28
29
29
30
31
31
31
31
32
32
32
31
31
31
30
30
29
28
28
27
26
26
26
25
25
25
24
23
23
22
21
21
20
21
21
21
21
22
22
22
22
23
23
23
24
24
25
26
26
26
27
27
28
28
28
29
28
28
28
27
26
26
25
25
24
24
23
23
23
22
23
22
21
21
21
21
21
21
22
21
21
21
21
21
21
20
20
20
20
19
19
18
18
18
18
17
17
17
17
16
16
16
16
15
15
15
16
16
16
17
17
17
18
18
18
19
20
20
20
21
21
22
22
23
23
23
24
24
24
24
23
23
23
23
23
22
22
22
21
21
21
20
19
20
19
18
18
18
18
17
17
18
17
17
18
17
18
19
20
20
21
22
23
22
23
23
23
24
24
24
25
25
24
24
24
23
23
22
22
22
21
21
21
20
20
21
21
21
20
20
21
21
21
21
21
21
21
21
22
21
21
21
20
20
20
19
19
18
18
18
17
17
16
16
16
16
16
16
16
16
16
16
16
16
16
16
17
17
18
18
19
19
19
19
19
19
19
19
19
20
20
20
20
20
20
20
19
19
18
18
18
17
17
16
15
15
14
13
12
11
11
9
8
7
6
6
5
5
5
5
5
5
5
6
6
6
6
6
7
8
9
11
12
14
15
16
18
20
23
26
28
31
34
38
42
47
52
57
63
68
73
80
86
92
99
106
114
121
128
135
143
150
156
164
170
176
181
187
191
195
198
200
200
201
199
198
194
190
186
181
175
169
162
155
148
141
134
126
119
112
106
100
94
89
84
79
75
72
68
64
62
60
57
56
54
52
51
49
47
46
44
42
41
39
39
37
35
34
33
31
30
28
28
26
24
23
23
22
21
19
19
18
17
15
14
14
13
12
11
11
10
9
9
7
6
5
4
3
4
3
2
2
1
1
1
-1
-1
0
1
1
2
2
3
4
5
5
6
7
8
8
9
9
10
10
10
10
10
10
10
10
11
10
10
10
9
9
9
8
8
8
8
8
8
7
7
7
7
7
7
8
8
8
9
8
9
9
10
10
10
11
11
12
12
13
14
14
14
13
13
13
13
12
12
12
11
10
9
9
9
8
8
7
7
7
7
7
7
7
7
7
8
8
8
9
9
9
10
10
10
10
10
11
11
10
10
10
10
10
10
10
10
