# Simple Text Format
# Sampling Rate (Hz):= 1200.00
# Resolution:= 12
# Labels:= ECG	 V4
# Age:=	64
# Gender:=	Masculino
-104
-104
-104
-104
-103
-103
-104
-104
-104
-104
-104
-104
-104
-104
-104
-104
-104
-104
-104
-103
-103
-103
-103
-103
-103
-103
-102
-102
-102
-103
-103
-103
-103
-103
-103
-103
-103
-104
-104
-104
-104
-104
-104
-104
-104
-103
-103
-103
-103
-102
-102
-101
-101
-101
-101
-100
-100
-100
-99
-100
-99
-99
-99
-99
-98
-98
-98
-98
-98
-98
-98
-98
-98
-98
-99
-99
-99
-100
-100
-101
-101
-101
-102
-102
-102
-102
-103
-103
-103
-103
-103
-102
-102
-102
-101
-100
-100
-99
-99
-98
-98
-97
-96
-95
-95
-94
-93
-91
-90
-88
-87
-85
-83
-80
-76
-72
-68
-64
-58
-52
-47
-39
-32
-23
-14
-3
7
18
30
43
56
70
84
99
114
129
145
159
174
187
200
211
221
230
238
244
247
248
248
245
238
230
218
204
189
171
151
131
109
87
65
41
18
-4
-27
-48
-68
-85
-102
-116
-129
-140
-150
-158
-163
-167
-170
-171
-171
-171
-169
-166
-163
-160
-156
-152
-147
-143
-139
-135
-131
-126
-123
-120
-116
-113
-111
-108
-105
-104
-102
-101
-100
-99
-98
-96
-95
-95
-94
-94
-93
-92
-91
-90
-91
-90
-90
-89
-89
-88
-88
-87
-87
-86
-86
-85
-85
-84
-84
-84
-84
-84
-83
-83
-84
-84
-84
-84
-85
-85
-85
-86
-86
-86
-86
-87
-87
-86
-86
-86
-86
-86
-86
-86
-86
-86
-85
-85
-85
-85
-85
-84
-84
-84
-84
-84
-84
-83
-83
-82
-82
-81
-81
-81
-81
-81
-80
-79
-79
-79
-79
-79
-78
-77
-77
-78
-76
-76
-76
-77
-77
-76
-76
-76
-76
-77
-77
-77
-76
-76
-76
-76
-76
-77
-77
-77
-77
-77
-77
-77
-77
-77
-77
-77
-76
-76
-76
-75
-75
-73
-73
-72
-72
-71
-71
-70
-69
-69
-69
-69
-69
-68
-68
-68
-68
-68
-68
-68
-68
-68
-69
-68
-68
-69
-69
-69
-69
-69
-69
-69
-69
-68
-68
-68
-68
-66
-66
-66
-66
-64
-64
-63
-63
-63
-62
-61
-61
-61
-60
-59
-58
-58
-58
-58
-58
-57
-57
-56
-56
-55
-55
-55
-54
-54
-52
-52
-52
-51
-50
-50
-49
-49
-48
-47
-47
-46
-45
-45
-44
-43
-42
-42
-42
-41
-40
-40
-40
-39
-39
-39
-39
-38
-38
-38
-38
-37
-37
-36
-36
-35
-35
-34
-34
-33
-33
-31
-31
-29
-29
-29
-28
-28
-28
-27
-27
-25
-25
-26
-25
-25
-25
-25
-25
-25
-25
-25
-25
-24
-24
-24
-24
-23
-23
-23
-23
-22
-22
-21
-21
-21
-21
-20
-20
-21
-20
-20
-20
-22
-21
-21
-22
-22
-22
-23
-24
-24
-24
-24
-25
-25
-25
-25
-26
-26
-26
-26
-25
-25
-25
-26
-26
-25
-26
-26
-25
-26
-26
-27
-27
-28
-28
-29
-30
-30
-31
-30
-32
-32
-33
-34
-35
-35
-36
-37
-37
-38
-39
-39
-41
-42
-43
-43
-44
-46
-46
-47
-49
-49
-50
-52
-52
-54
-54
-55
-57
-57
-59
-59
-60
-61
-62
-62
-63
-63
-64
-64
-65
-65
-65
-66
-66
-66
-67
-66
-66
-67
-67
-68
-68
-69
-69
-69
-70
-70
-71
-71
-71
-72
-72
-73
-73
-73
-74
-74
-75
-75
-75
-75
-75
-75
-75
-75
-75
-75
-75
-75
-75
-76
-75
-75
-76
-76
-75
-75
-75
-75
-75
-74
-74
-74
-74
-74
-74
-74
-74
-74
-74
-74
-74
-74
-74
-75
-74
-74
-74
-74
-74
-74
-75
-74
-74
-74
-74
-74
-74
-74
-74
-74
-73
-73
-73
-73
-73
-73
-73
-72
-72
-72
-72
-72
-72
-72
-72
-71
-71
-71
-71
-71
-71
-71
-71
-71
-71
-70
-70
-70
-70
-69
-69
-69
-69
-69
-69
-68
-68
-68
-68
-68
-68
-67
-67
-67
-68
-68
-68
-68
-68
-68
-67
-67
-68
-68
-68
-68
-68
-68
-68
-68
-68
-69
-69
-69
-69
-69
-69
-70
-70
-70
-70
-72
-72
-72
-72
-72
-72
-72
-72
-72
-72
-72
-72
-71
-71
-70
-69
-69
-68
-68
-68
-67
-67
-68
-67
-67
-67
-66
-66
-65
-65
-65
-64
-64
-65
-65
-65
-65
-66
-66
-66
-66
-66
-67
-68
-68
-69
-69
-70
-70
-71
-71
-72
-72
-73
-73
-73
-73
-73
-73
-74
-73
-72
-72
-72
-72
-72
-71
-71
-71
-71
-70
-70
-70
-70
-70
-70
-70
-70
-70
-70
-70
-70
-70
-71
-71
-71
-71
-72
-72
-72
-72
-72
-73
-73
-73
-73
-73
-73
-73
-73
-73
-73
-73
-73
-72
-72
-72
-72
-72
-71
-71
-71
-71
-71
-70
-70
-70
-70
-70
-69
-69
-69
-69
-69
-69
-69
-69
-69
-69
-69
-68
-68
-68
-68
-68
-68
-68
-68
-68
-67
-67
-67
-67
-66
-66
-66
-65
-65
-65
-64
-63
-63
-62
-61
-61
-60
-60
-59
-58
-58
-57
-56
-55
-55
-54
-54
-54
-53
-53
-52
-52
-52
-52
-52
-51
-50
-50
-50
-50
-50
-48
-48
-48
-47
-47
-46
-45
-45
-44
-44
-44
-43
-44
-44
-44
-44
-45
-45
-46
-46
-48
-48
-49
-50
-50
-52
-53
-53
-54
-54
-55
-55
-56
-57
-57
-57
-57
-56
-56
-56
-56
-56
-56
-56
-56
-56
-56
-55
-55
-55
-55
-55
-55
-55
-55
-55
-55
-55
-55
-56
-56
-57
-57
-57
-57
-58
-58
-59
-60
-61
-62
-62
-62
-63
-63
-64
-64
-65
-65
-65
-66
-66
-66
-66
-66
-66
-66
-66
-67
-67
-67
-67
-67
-67
-67
-68
-69
-69
-69
-69
-69
-70
-70
-71
-71
-71
-71
-72
-72
-72
-72
-72
-72
-72
-72
-72
-73
-72
-72
-72
-71
-71
-71
-71
-71
-72
-71
-71
-71
-71
-71
-71
-71
-70
-70
-70
-70
-70
-70
-70
-71
-70
-70
-70
-70
-70
-70
-70
-70
-70
-70
-70
-71
-71
-70
-70
-70
-71
-71
-71
-71
-70
-70
-70
-70
-70
-70
-70
-69
-69
-69
-69
-69
-69
-68
-68
-68
-67
-67
-66
-66
-65
-65
-65
-64
-64
-64
-64
-65
-65
-65
-65
-64
-64
-65
-65
-65
-65
-65
-65
-65
-64
-64
-63
-62
-61
-61
-59
-57
-56
-54
-51
-48
-45
-42
-37
-32
-27
-22
-16
-8
0
9
18
28
39
50
62
75
88
101
115
130
145
160
174
189
203
216
227
238
248
256
262
267
270
271
269
266
259
250
238
224
208
190
171
151
129
108
85
62
40
18
-4
-23
-43
-60
-76
-90
-102
-112
-121
-128
-134
-136
-139
-140
-139
-137
-136
-132
-129
-125
-120
-116
-111
-107
-103
-98
-94
-89
-86
-82
-79
-76
-73
-71
-69
-68
-66
-65
-64
-63
-62
-62
-61
-60
-60
-59
-58
-59
-58
-58
-58
-57
-56
-56
-55
-55
-55
-55
-55
-55
-55
-55
-56
-55
-55
-55
-56
-56
-55
-55
-55
-56
-56
-56
-56
-56
-56
-56
-55
-55
-54
-54
-53
-53
-54
-54
-54
-53
-53
-53
-53
-53
-52
-52
-52
-53
-52
-53
-53
-53
-53
-53
-54
-54
-53
-53
-54
-54
-54
-54
-54
-54
-54
-54
-54
-54
-54
-53
-53
-52
-52
-51
-51
-51
-51
-50
-50
-49
-49
-49
-49
-48
-48
-48
-48
-48
-48
-48
-48
-48
-47
-48
-48
-48
-47
-47
-47
-46
-46
-46
-45
-45
-44
-44
-44
-44
-44
-45
-45
-45
-45
-46
-46
-46
-46
-47
-47
-48
-48
-49
-49
-50
-50
-50
-51
-51
-50
-50
-50
-50
-50
-49
-48
-48
-48
-47
-46
-46
-45
-45
-45
-44
-43
-42
-42
-42
-42
-41
-41
-41
-41
-41
-40
-40
-40
-40
-40
-40
-39
-39
-39
-38
-38
-37
-37
-37
-37
-37
-37
-36
-35
-35
-35
-35
-34
-33
-33
-32
-32
-32
-31
-31
-30
-30
-29
-29
-28
-28
-28
-26
-26
-26
-25
-25
-25
-24
-24
-24
-23
-23
-23
-23
-22
-22
-22
-20
-20
-19
-19
-17
-17
-16
-16
-16
-15
-15
-14
-13
-13
-13
-13
-13
-12
-12
-12
-12
-13
-13
-13
-13
-13
-13
-13
-13
-13
-12
-12
-12
-12
-12
-12
-11
-11
-11
-11
-11
-11
-11
-11
-11
-11
-11
-11
-12
-13
-13
-13
-13
-14
-14
-14
-14
-15
-15
-15
-16
-15
-16
-16
-16
-16
-16
-16
-16
-17
-17
-17
-18
-18
-19
-19
-19
-20
-21
-21
-22
-22
-24
-24
-25
-26
-26
-27
-28
-28
-29
-30
-31
-31
-32
-33
-34
-35
-36
-36
-37
-38
-39
-40
-40
-41
-43
-43
-45
-47
-47
-49
-49
-51
-51
-53
-53
-54
-55
-55
-56
-58
-58
-59
-59
-60
-60
-62
-62
-62
-62
-63
-63
-63
-64
-64
-65
-65
-66
-66
-66
-66
-67
-67
-67
-68
-68
-68
-69
-69
-69
-70
-69
-70
-71
-71
-71
-71
-71
-72
-72
-72
-74
-74
-75
-74
-74
-75
-76
-76
-76
-76
-76
-76
-76
-76
-76
-76
-76
-76
-76
-76
-76
-74
-74
-74
-74
-74
-74
-74
-74
-74
-74
-74
-74
-74
-74
-74
-74
-75
-75
-75
-75
-75
-75
-75
-75
-75
-75
-75
-75
-75
-75
-75
-74
-74
-74
-73
-73
-73
-73
-73
-73
-72
-72
-72
-72
-72
-72
-72
-71
-72
-72
-72
-72
-72
-72
-72
-72
-72
-73
-73
-73
-73
-72
-72
-72
-72
-72
-72
-72
-72
-72
-71
-71
-71
-71
-71
-71
-71
-71
-72
-72
-71
-72
-72
-72
-73
-74
-74
-74
-74
-75
-75
-76
-77
-77
-77
-78
-78
-78
-79
-79
-79
-79
-79
-79
-78
-79
-79
-79
-79
-79
-79
-79
-79
-79
-79
-80
-81
-81
-81
-81
-81
-82
-83
-83
-83
-83
-84
-84
-84
-85
-85
-85
-84
-85
-85
-84
-84
-84
-84
-84
-84
-83
-82
-82
-82
-82
-82
-82
-81
-81
-81
-81
-81
-80
-81
-81
-81
-81
-81
-81
-82
-82
-82
-83
-83
-83
-83
-84
-84
-84
-86
-86
-85
-86
-86
-87
-87
-86
-86
-87
-87
-87
-87
-88
-87
-87
-86
-86
-86
-86
-85
-85
-85
-85
-86
-86
-86
-86
-86
-87
-87
-87
-87
-89
-89
-89
-90
-91
-90
-91
-92
-92
-92
-92
-92
-92
-92
-93
-93
-93
-93
-93
-94
-93
-93
-94
-93
-93
-92
-92
-92
-92
-92
-91
-91
-90
-90
-89
-89
-88
-88
-88
-87
-87
-86
-86
-85
-86
-85
-85
-84
-84
-85
-84
-83
-83
-82
-83
-82
-82
-81
-81
-81
-80
-80
-80
-80
-80
-79
-79
-78
-79
-79
-79
-79
-79
-79
-78
-78
-78
-78
-77
-76
-76
-75
-75
-74
-73
-73
-72
-71
-71
-70
-69
-69
-68
-68
-68
-68
-68
-68
-68
-69
-69
-70
-70
-71
-71
-73
-74
-75
-75
-76
-76
-77
-78
-78
-79
-79
-79
-79
-79
-79
-79
-79
-79
-79
-78
-78
-78
-78
-78
-78
-78
-78
-78
-78
-78
-79
-79
-80
-80
-80
-81
-82
-83
-84
-84
-86
-87
-88
-88
-89
-91
-92
-93
-93
-93
-94
-95
-95
-96
-95
-96
-97
-96
-97
-97
-96
-96
-97
-97
-97
-97
-97
-97
-97
-98
-98
-98
-99
-99
-99
-99
-99
-100
-100
-101
-102
-102
-103
-103
-104
-104
-105
-105
-105
-107
-107
-107
-108
-108
-108
-109
-110
-110
-110
-109
-109
-110
-110
-110
-110
-110
-110
-110
-110
-110
-110
-110
-109
-109
-109
-109
-110
-110
-109
-109
-110
-110
-109
-109
-110
-110
-110
-110
-111
-111
-111
-111
-112
-112
-112
-112
-112
-112
-113
-112
-112
-113
-112
-113
-113
-113
-112
-112
-112
-112
-112
-111
-111
-110
-110
-110
-109
-109
-108
-108
-109
-108
-108
-108
-107
-107
-106
-107
-107
-107
-108
-107
-108
-108
-109
-108
-109
-109
-109
-109
-109
-108
-107
-107
-105
-105
-104
-102
-100
-97
-95
-91
-88
-83
-79
-73
-67
-61
-53
-46
-37
-30
-19
-9
2
13
26
38
52
65
79
93
108
122
137
150
164
176
187
197
206
214
219
223
224
224
220
214
206
195
182
166
150
130
111
90
68
46
23
2
-20
-42
-62
-80
-98
-114
-129
-141
-152
-162
-169
-175
-180
-182
-183
-184
-183
-182
-180
-178
-174
-170
-167
-163
-159
-154
-151
-147
-143
-139
-135
-132
-129
-126
-123
-121
-118
-116
-115
-112
-111
-110
-109
-107
-106
-106
-105
-105
-104
-104
-104
-104
-104
-104
-104
-103
-103
-103
-103
-103
-103
-102
-102
-102
-101
-101
-100
-99
-99
-98
-98
-98
-98
-97
-97
-97
-96
-96
-96
-96
-96
-96
-97
-97
-97
-96
-96
-96
-96
-96
-96
-97
-97
-97
-98
-98
-99
-100
-100
-101
-101
-102
-101
-102
-103
-103
-103
-103
-103
-102
-102
-102
-102
-101
-100
-100
-99
-99
-98
-96
-95
-95
-94
-93
-93
-93
-93
-92
-92
-92
-93
-92
-93
-93
-93
-94
-94
-94
-95
-95
-95
-95
-95
-95
-95
-95
-95
-95
-94
-94
-94
-93
-93
-93
-92
-91
-91
-90
-91
-91
-91
-90
-90
-90
-90
-90
-90
-90
-90
-90
-89
-89
-89
-89
-89
-89
-89
-89
-88
-88
-87
-87
-87
-86
-86
-85
-85
-85
-85
-84
-84
-83
-83
-82
-82
-81
-82
-82
-81
-81
-81
-81
-81
-81
-81
-81
-80
-80
-81
-80
-81
-81
-80
-80
-80
-80
-80
-79
-79
-79
-79
-79
-79
-78
-78
-77
-77
-77
-75
-75
-75
-74
-74
-72
-72
-71
-70
-70
-69
-68
-67
-67
-66
-65
-64
-64
-63
-63
-62
-62
-61
-62
-61
-61
-60
-61
-59
-60
-59
-59
-59
-59
-58
-59
-59
-58
-58
-58
-57
-57
-57
-56
-56
-55
-55
-55
-55
-54
-53
-53
-53
-53
-52
-52
-52
-52
-52
-52
-52
-53
-52
-52
-52
-52
-52
-52
-53
-53
-53
-53
-53
-52
-52
-52
-52
-52
-52
-52
-52
-52
-52
-52
-52
-52
-52
-52
-52
-52
-52
-53
-53
-53
-53
-53
-53
-53
-53
-54
-54
-54
-54
-56
-56
-57
-57
-58
-58
-59
-59
-60
-60
-61
-61
-61
-63
-64
-65
-65
-66
-67
-68
-68
-69
-70
-71
-71
-73
-74
-75
-75
-77
-78
-78
-79
-81
-81
-82
-83
-84
-85
-85
-87
-87
-88
-89
-89
-91
-91
-92
-92
-93
-94
-94
-95
-96
-97
-98
-98
-98
-100
-100
-101
-102
-102
-103
-103
-104
-105
-106
-106
-107
-107
-108
-108
-109
-109
-109
-109
-110
-110
-110
-111
-111
-111
-112
-111
-111
-111
-111
-111
-111
-111
-111
-111
-111
-111
-111
-111
-111
-110
-110
-110
-111
-111
-110
-110
-110
-110
-110
-110
-109
-109
-109
-109
-109
-109
-109
-109
-109
-109
-109
-110
-108
-108
-109
-109
-109
-109
-109
-109
-109
-109
-109
-109
-109
-109
-109
-110
-110
-110
-110
-110
-110
-111
-111
-111
-111
-110
-110
-110
-110
-110
-110
-109
-109
-109
-108
-108
-107
-107
-107
-107
-107
-107
-107
-107
-106
-106
-106
-106
-106
-107
-107
-107
-108
-108
-108
-109
-110
-110
-110
-110
-110
-110
-110
-110
-110
-109
-109
-109
-109
-109
-109
-109
-108
-108
-108
-109
-109
-108
-108
-109
-108
-109
-109
-108
-109
-109
-109
-109
-110
-110
-110
-110
-110
-111
-111
-111
-111
-111
-111
-111
-112
-112
-112
-113
-113
-112
-112
-113
-113
-112
-112
-112
-112
-112
-113
-113
-113
-113
-113
-114
-114
-114
-114
-115
-115
-116
-116
-117
-117
-117
-118
-118
-118
-118
-119
-119
-119
-118
-118
-118
-119
-119
-119
-118
-118
-118
-118
-118
-118
-118
-117
-117
-117
-117
-117
-117
-118
-118
-117
-117
-118
-118
-119
-119
-119
-119
-119
-119
-120
-120
-120
-120
-120
-120
-121
-121
-121
-121
-121
-121
-122
-122
-122
-123
-123
-123
-123
-124
-123
-123
-123
-124
-124
-123
-123
-124
-124
-123
-123
-123
-123
-123
-123
-123
-123
-123
-124
-123
-123
-122
-122
-123
-122
-123
-123
-123
-123
-124
-124
-125
-124
-124
-125
-125
-125
-125
-125
-125
-125
-125
-125
-124
-125
-125
-124
-124
-123
-124
-123
-122
-122
-121
-120
-121
-120
-119
-119
-118
-118
-118
-117
-117
-117
-117
-116
-117
-116
-117
-117
-117
-117
-116
-117
-117
-117
-117
-117
-117
-117
-117
-116
-116
-115
-116
-115
-114
-113
-113
-112
-112
-111
-111
-111
-110
-110
-109
-109
-109
-108
-108
-108
-108
-108
-108
-108
-109
-109
-109
-109
-109
-110
-111
-111
-111
-111
-112
-112
-113
-113
-114
-114
-114
-115
-115
-115
-116
-117
-117
-117
-117
-117
-117
-118
-118
-117
-118
-118
-119
-119
-120
-120
-120
-121
-121
-122
-123
-124
-124
-124
-125
-125
-126
-127
-128
-129
-130
-129
-130
-131
-131
-131
-132
-133
-133
-133
-134
-134
-134
-134
-134
-135
-135
-136
-136
-136
-136
-137
-137
-137
-139
-139
-139
-139
-141
-141
-141
-141
-142
-142
-142
-142
-143
-143
-143
-144
-144
-145
-145
-144
-144
-144
-144
-144
-144
-144
-144
-143
-143
-143
-143
-144
-144
-144
-144
-145
-144
-144
-144
-144
-144
-145
-144
-144
-145
-144
-144
-143
-144
-144
-143
-143
-143
-143
-143
-143
-143
-143
-143
-143
-143
-143
-143
-143
-145
-144
-144
-144
-145
-145
-145
-145
-144
-145
-145
-144
-144
-145
-145
-144
-144
-144
-144
-144
-144
-144
-145
-145
-146
-146
-146
-146
-147
-147
-146
-147
-146
-147
-147
-147
-147
-147
-146
-146
-145
-145
-145
-144
-144
-143
-142
-141
-141
-140
-138
-137
-135
-133
-131
-128
-126
-122
-119
-115
-110
-105
-99
-92
-84
-77
-69
-60
-50
-40
-28
-17
-4
9
23
36
51
66
82
96
112
125
139
151
163
174
184
192
198
201
203
202
200
194
185
174
162
146
129
109
90
68
46
23
1
-23
-46
-67
-88
-108
-127
-145
-160
-174
-185
-195
-203
-210
-214
-217
-220
-220
-220
-218
-216
-214
-211
-207
-204
-200
-195
-192
-188
-184
-180
-178
-174
-171
-168
-166
-163
-161
-159
-158
-156
-155
-153
-152
-152
-151
-149
-149
-148
-147
-147
-146
-146
-146
-146
-145
-144
-144
-144
-144
-144
-144
-144
-144
-144
-144
-144
-143
-143
-143
-143
-142
-142
-142
-143
-142
-142
-142
-141
-140
-141
-141
-140
-140
-140
-140
-140
-139
-139
-139
-139
-139
-139
-139
-139
-139
-139
-138
-139
-139
-139
-139
-139
-139
-138
-138
-138
-138
-137
-137
-137
-136
-136
-136
-136
-136
-137
-137
-137
-137
-136
-136
-136
-137
-137
-137
-136
-136
-137
-137
-138
-138
-138
-138
-137
-137
-137
-137
-137
-137
-137
-138
-138
-138
-137
-137
-137
-137
-136
-136
-136
-136
-136
-135
-135
-135
-135
-134
-134
-134
-134
-134
-134
-133
-133
-133
-132
-131
-131
-131
-130
-130
-130
-130
-129
-129
-129
-129
-127
-127
-127
-127
-126
-126
-126
-126
-125
-125
-124
-124
-123
-124
-124
-123
-124
-124
-123
-124
-124
-124
-124
-123
-124
-124
-124
-124
-123
-123
-123
-123
-123
-122
-121
-121
-120
-120
-119
-118
-117
-117
-117
-115
-115
-113
-113
-112
-112
-111
-110
-110
-109
-109
-108
-107
-106
-106
-105
-104
-104
-103
-103
-102
-102
-101
-101
-101
-100
-100
-99
-99
-98
-98
-97
-97
-97
-97
-96
-96
-96
-96
-96
-95
-95
-95
-93
-94
-93
-93
-92
-92
-92
-91
-91
-91
-90
-90
-90
-89
-88
-88
-88
-88
-87
-87
-87
-86
-86
-86
-86
-86
-85
-85
-86
-86
-86
-86
-86
-85
-85
-85
-85
-85
-85
-85
-84
-84
-84
-84
-84
-84
-84
-84
-83
-83
-83
-82
-82
-82
-81
-81
-81
-80
-80
-80
-81
-80
-80
-81
-81
-81
-82
-82
-83
-83
-84
-85
-85
-86
-88
-88
-90
-91
-91
-92
-94
-95
-95
-96
-97
-98
-98
-100
-100
-101
-101
-103
-103
-104
-104
-105
-106
-107
-107
-109
-109
-110
-111
-112
-113
-114
-115
-116
-118
-118
-119
-120
-122
-122
-123
-124
-125
-126
-126
-127
-128
-128
-129
-130
-130
-130
-131
-132
-132
-132
-132
-133
-133
-133
-134
-134
-134
-134
-135
-135
-135
-136
-136
-137
-137
-136
-136
-136
-137
-137
-137
-138
-138
-138
-138
-138
-139
-139
-139
-139
-140
-140
-140
-139
-140
-140
-140
-141
-140
-140
-140
-140
-141
-141
-141
-141
-141
-141
-141
-141
-141
-141
-141
-141
-140
-141
-140
-139
-139
-138
-138
-137
-138
-137
-137
-136
-136
-135
-135
-135
-135
-135
-136
-135
-135
-135
-136
-136
-135
-136
-136
-136
-136
-136
-135
-135
-135
-134
-134
-134
-133
-133
-133
-132
-132
-131
-131
-131
-131
-130
-130
-130
-130
-130
-130
-130
-130
-130
-130
-130
-130
-130
-130
-130
-131
-131
-131
-131
-131
-133
-133
-133
-133
-133
-133
-133
-133
-133
-133
-133
-134
-134
-133
-133
-133
-133
-133
-132
-132
-131
-130
-130
-129
-129
-129
-129
-128
-128
-128
-128
-127
-127
-128
-128
-127
-128
-128
-128
-128
-128
-128
-129
-129
-129
-130
-130
-130
-131
-131
-132
-132
-132
-132
-132
-132
-133
-132
-132
-133
-133
-133
-133
-134
-133
-132
-133
-132
-132
-132
-132
-133
-132
-132
-132
-133
-133
-133
-133
-133
-133
-133
-133
-132
-132
-133
-133
-133
-132
-132
-132
-131
-131
-131
-131
-131
-131
-131
-131
-132
-132
-132
-132
-132
-132
-133
-133
-134
-134
-134
-135
-135
-136
-136
-137
-137
-138
-138
-138
-138
-137
-137
-137
-136
-136
-137
-136
-136
-137
-135
-135
-136
-135
-135
-134
-134
-134
-134
-134
-134
-134
-134
-134
-134
-134
-134
-134
-134
-134
-134
-134
-135
-135
-135
-136
-136
-136
-136
-136
-136
-136
-136
-136
-136
-136
-135
-135
-135
-134
-134
-134
-134
-133
-132
-132
-132
-132
-131
-131
-131
-130
-130
-128
-128
-127
-127
-126
-126
-125
-125
-124
-124
-123
-122
-122
-121
-121
-120
-120
-120
-119
-119
-119
-119
-119
-118
-118
-118
-118
-118
-118
-118
-118
-118
-118
-118
-117
-117
-117
-117
-116
-116
-115
-115
-114
-114
-114
-114
-114
-113
-113
-113
-113
-114
-114
-114
-114
-114
-114
-114
-114
-115
-115
-115
-115
-117
-117
-116
-117
-117
-117
-117
-117
-117
-118
-118
-118
-119
-119
-119
-120
-120
-120
-120
-120
-120
-120
-120
-119
-119
-119
-119
-119
-119
-120
-120
-120
-120
-120
-120
-121
-122
-122
-123
-123
-124
-124
-124
-125
-125
-125
-126
-126
-127
-128
-128
-128
-129
-129
-130
-129
-130
-130
-131
-132
-132
-132
-132
-133
-134
-134
-135
-137
-137
-137
-138
-138
-139
-139
-139
-139
-140
-141
-141
-142
-142
-142
-142
-142
-143
-143
-143
-143
-142
-142
-142
-142
-142
-142
-140
-140
-140
-139
-139
-138
-138
-138
-137
-137
-137
-136
-136
-136
-136
-136
-136
-137
-137
-137
-137
-138
-138
-138
-139
-139
-138
-139
-139
-139
-139
-140
-140
-139
-139
-139
-139
-139
-137
-137
-137
-137
-136
-136
-136
-136
-135
-135
-135
-135
-135
-135
-135
-134
-134
-134
-134
-134
-134
-134
-134
-134
-134
-134
-135
-135
-134
-134
-134
-134
-134
-134
-134
-134
-134
-135
-135
-135
-136
-136
-135
-136
-136
-135
-134
-134
-134
-132
-131
-129
-127
-125
-123
-120
-117
-113
-109
-105
-99
-94
-87
-80
-72
-64
-55
-46
-36
-25
-14
-2
11
25
38
53
68
85
101
116
132
146
160
173
185
197
206
213
220
223
224
224
220
214
205
194
180
164
145
126
105
83
60
37
12
-12
-35
-58
-79
-98
-117
-134
-149
-163
-174
-184
-193
-198
-203
-205
-207
-207
-206
-205
-203
-199
-195
-191
-187
-182
-178
-174
-170
-165
-161
-158
-155
-152
-149
-147
-144
-142
-140
-137
-136
-134
-133
-133
-131
-130
-129
-127
-127
-127
-125
-125
-124
-124
-123
-123
-123
-123
-123
-123
-123
-123
-124
-125
-125
-125
-126
-126
-127
-126
-127
-127
-127
-128
-127
-127
-127
-127
-126
-127
-127
-126
-126
-126
-126
-125
-125
-125
-126
-125
-125
-125
-125
-125
-125
-125
-123
-123
-123
-123
-122
-122
-122
-121
-121
-120
-120
-118
-118
-117
-117
-117
-115
-115
-115
-115
-114
-114
-114
-114
-113
-114
-114
-114
-114
-114
-115
-115
-116
-116
-116
-116
-117
-117
-118
-118
-119
-119
-119
-119
-119
-119
-120
-120
-119
-119
-119
-118
-117
-117
-116
-115
-114
-114
-113
-112
-111
-111
-110
-109
-109
-108
-107
-107
-107
-106
-107
-107
-106
-107
-107
-107
-108
-107
-108
-108
-108
-108
-109
-109
-109
-109
-110
-110
-109
-110
-110
-109
-109
-109
-108
-108
-108
-107
-107
-107
-105
-105
-104
-103
-102
-101
-101
-100
-99
-99
-98
-98
-97
-97
-96
-96
-96
-95
-95
-95
-94
-94
-94
-93
-93
-93
-93
-92
-92
-92
-91
-91
-91
-90
-90
-90
-90
-89
-88
-88
-87
-87
-86
-86
-86
-84
-84
-83
-81
-81
-79
-78
-77
-76
-76
-74
-74
-73
-72
-71
-71
-71
-70
-70
-70
-70
-69
-70
-70
-70
-70
-69
-69
-70
-70
-69
-69
-69
-68
-67
-67
-66
-66
-66
-64
-64
-63
-63
-61
-61
-61
-60
-60
-60
-60
-60
-59
-58
-58
-58
-58
-58
-58
-59
-59
-59
-59
-60
-60
-60
-60
-61
-61
-61
-61
-61
-61
-61
-61
-61
-61
-61
-61
-62
-62
-62
-62
-62
-62
-64
-63
-63
-64
-65
-65
-66
-66
-67
-67
-68
-68
-69
-69
-69
-70
-71
-71
-72
-72
-73
-73
-73
-74
-74
-75
-76
-76
-77
-77
-78
-79
-79
-81
-81
-82
-84
-84
-86
-86
-88
-89
-90
-92
-92
-94
-94
-96
-97
-98
-99
-100
-101
-101
-101
-103
-103
-104
-104
-105
-104
-105
-105
-105
-106
-106
-107
-107
-107
-108
-109
-109
-110
-110
-110
-112
-112
-112
-113
-114
-114
-115
-115
-115
-115
-117
-117
-117
-117
-117
-117
-117
-117
-117
-117
-118
-118
-118
-117
-118
-118
-118
-117
-117
-117
-117
-117
-116
-116
-116
-116
-116
-116
-115
-115
-115
-115
-115
-115
-115
-114
-115
-115
-114
-114
-114
-114
-114
-114
-114
-114
-114
-114
-114
-114
-114
-114
-114
-114
-114
-114
-114
-114
-114
-114
-114
-114
-113
-113
-113
-113
-113
-113
-113
-113
-113
-112
-112
-111
-111
-111
-111
-111
-111
-111
-110
-110
-110
-110
-110
-110
-109
-109
-109
-109
-108
-108
-107
-107
-107
-107
-107
-107
-107
-107
-107
-107
-107
-107
-107
-108
-108
-109
-108
-109
-110
-110
-110
-110
-112
-111
-111
-111
-111
-112
-112
-112
-112
-112
-112
-112
-112
-111
-111
-111
-111
-110
-110
-110
-110
-110
-110
-110
-110
-110
-110
-111
-111
-111
-111
-111
-112
-112
-112
-112
-112
-112
-112
-112
-112
-112
-112
-112
-112
-111
-111
-111
-112
-112
-112
-112
-112
-112
-111
-111
-111
-111
-111
-111
-111
-111
-112
-112
-112
-112
-112
-112
-112
-112
-113
-113
-114
-114
-115
-115
-115
-114
-115
-115
-115
-115
-115
-115
-115
-115
-115
-115
-115
-115
-114
-114
-114
-114
-114
-114
-115
-115
-115
-115
-115
-115
-116
-116
-116
-116
-117
-117
-117
-117
-118
-118
-118
-118
-118
-118
-118
-117
-117
-116
-116
-116
-116
-115
-115
-115
-114
-115
-115
-114
-114
-114
-114
-113
-113
-113
-113
-113
-113
-113
-113
-113
-113
-114
-114
-114
-115
-116
-116
-116
-117
-117
-118
-118
-118
-118
-118
-118
-119
-119
-119
-118
-118
-118
-118
-118
-117
-117
-116
-116
-116
-115
-115
-115
-114
-114
-114
-114
-114
-113
-114
-114
-114
-113
-114
-113
-113
-113
-113
-113
-113
-112
-112
-112
-113
-112
-112
-111
-111
-110
-110
-109
-108
-108
-107
-106
-106
-105
-105
-104
-104
-103
-103
-103
-102
-102
-101
-101
-101
-100
-100
-99
-99
-99
-98
-98
-98
-97
-97
-97
-97
-97
-97
-97
-97
-97
-97
-97
-97
-98
-98
-99
-99
-99
-100
-100
-100
-101
-101
-102
-102
-103
-103
-103
-103
-103
-102
-103
-103
-103
-103
-103
-103
-103
-103
-103
-103
-104
-104
-104
-104
-104
-104
-103
-103
-104
-104
-103
-104
-104
-104
-105
-105
-105
-105
-106
-107
-107
-108
-109
-110
-110
-111
-112
-113
-114
-115
-116
-117
-118
-119
-120
-121
-121
-122
-123
-123
-123
-123
-123
-124
-124
-123
-124
-123
-123
-123
-122
-122
-122
-121
-121
-121
-121
-121
-121
-121
-121
-121
-121
-121
-122
-122
-123
-123
-124
-124
-124
-125
-126
-126
-127
-127
-128
-128
-128
-128
-128
-128
-128
-128
-128
-127
-126
-126
-125
-124
-124
-123
-122
-122
-121
-120
-120
-119
-119
-119
-118
-118
-118
-118
-118
-119
-118
-119
-119
-119
-120
-120
-121
-122
-122
-123
-123
-123
-124
-124
-124
-124
-124
-124
-124
-125
-125
-124
-124
-124
-124
-123
-123
-122
-122
-122
-121
-121
-121
-121
-121
-121
-120
-120
-120
-120
-120
-120
-120
-120
-121
-120
-120
-120
-119
-120
-119
-118
-118
-117
-116
-115
-113
-113
-111
-109
-107
-103
-100
-97
-92
-88
-84
-78
-72
-66
-58
-51
-43
-34
-24
-13
-2
9
21
35
49
62
77
91
106
121
136
150
164
176
188
198
207
215
220
224
226
225
221
216
208
197
183
167
149
130
109
88
67
44
21
-2
-25
-47
-68
-88
-106
-123
-137
-150
-161
-171
-178
-184
-188
-191
-191
-191
-191
-188
-186
-183
-180
-175
-172
-168
-163
-159
-155
-151
-147
-144
-140
-137
-134
-131
-129
-127
-125
-122
-121
-119
-119
-117
-116
-115
-115
-114
-114
-113
-112
-113
-112
-111
-112
-112
-112
-112
-112
-112
-112
-112
-112
-112
-112
-112
-112
-112
-112
-112
-111
-111
-111
-111
-111
-110
-110
-109
-109
-108
-108
-108
-107
-107
-107
-106
-106
-106
-105
-106
-106
-106
-105
-105
-105
-105
-104
-104
-104
-103
-103
-102
-102
-102
-102
-101
-101
-101
-101
-100
-100
-100
-100
-100
-100
-100
-100
-100
-101
-101
-101
-101
-101
-102
-102
-102
-103
-103
-102
-102
-102
-102
-102
-102
-102
-101
-100
-99
-99
-98
-98
-97
-97
-95
-95
-94
-94
-94
-93
-94
-94
-94
-94
-93
-93
-94
-94
-94
-94
-95
-95
-96
-95
-96
-96
-97
-97
-96
-96
-96
-96
-95
-95
-95
-95
-95
-94
-94
-93
-93
-93
-92
-91
-90
-90
-90
-89
-89
-89
-87
-87
-86
-86
-85
-85
-84
-83
-83
-83
-82
-82
-81
-81
-80
-80
-79
-79
-79
-79
-77
-77
-77
-77
-77
-76
-75
-75
-74
-75
-74
-74
-74
-73
-73
-73
-72
-72
-71
-71
-71
-71
-70
-70
-69
-69
-69
-68
-68
-68
-67
-67
-66
-65
-64
-64
-63
-62
-62
-61
-60
-60
-59
-58
-58
-57
-56
-56
-55
-55
-55
-54
-54
-54
-53
-53
-53
-53
-52
-52
-52
-52
-51
-51
-51
-50
-50
-50
-49
-49
-48
-47
-47
-47
-46
-46
-46
-46
-45
-45
-45
-45
-44
-44
-44
-44
-43
-43
-43
-42
-42
-42
-41
-41
-41
-41
-40
-40
-40
-40
-40
-40
-40
-41
-41
-41
-41
-42
-42
-42
-43
-43
-43
-44
-44
-43
-43
-44
-44
-43
-44
-44
-43
-44
-44
-44
-45
-45
-46
-47
-47
-48
-49
-49
-51
-51
-52
-54
-55
-55
-57
-58
-59
-59
-60
-61
-62
-63
-63
-64
-65
-66
-67
-68
-68
-69
-70
-71
-72
-72
-73
-75
-76
-76
-78
-79
-80
-81
-82
-84
-84
-85
-86
-87
-88
-88
-89
-89
-90
-91
-91
-91
-92
-92
-92
-93
-94
-94
-94
-94
-95
-95
-95
-95
-95
-96
-96
-97
-97
-97
-97
-98
-98
-98
-98
-98
-98
-98
-99
-99
-99
-98
-98
-97
-97
-97
-96
-96
-96
-96
-96
-96
-96
-95
-95
-95
-95
-95
-96
-96
-96
-96
-96
-96
-96
-97
-97
-97
-97
-97
-96
-96
-96
-95
-95
-95
-95
-94
-94
-94
-94
-93
-93
-93
-93
-93
-93
-93
-93
-93
-94
-94
-94
-94
-94
-94
-94
-94
-94
-94
-94
-94
-94
-94
-93
-93
-93
-93
-92
-92
-91
-91
-91
-91
-91
-90
-90
-90
-89
-89
-90
-90
-90
-89
-89
-88
-88
-87
-87
-87
-87
-87
-86
-86
-86
-86
-86
-85
-85
-85
-86
-86
-86
-86
-86
-86
-87
-87
-87
-87
-87
-87
-87
-88
-88
-88
-88
-88
-88
-88
-88
-88
-88
-88
-88
-88
-87
-87
-87
-86
-87
-87
-87
-87
-87
-87
-87
-87
-87
-87
-87
-88
-88
-89
-89
-90
-90
-89
-89
-90
-90
-90
-91
-91
-91
-91
-90
-90
-90
-90
-90
-90
-89
-90
-89
-89
-89
-89
-89
-89
-90
-90
-90
-90
-89
-90
-89
-89
-89
-89
-89
-89
-89
-89
-89
-89
-89
-89
-89
-89
-89
-88
-88
-88
-88
-88
-88
-87
-87
-88
-88
-88
-88
-88
-87
-87
-88
-88
-88
-88
-88
-88
-89
-89
-90
-90
-90
-91
-91
-92
-92
-92
-93
-93
-93
-93
-93
-93
-92
-92
-92
-92
-92
-92
-92
-92
-92
-91
-91
-91
-91
-91
-90
-90
-90
-90
-90
-90
-91
-91
-91
-90
-90
-90
-90
-90
-91
-91
-91
-91
-91
-91
-91
-91
-91
-91
-91
-91
-91
-91
-90
-90
-90
-90
-89
-89
-89
-89
-88
-88
-88
-88
-88
-87
-86
-86
-86
-86
-86
-87
-87
-87
-87
-88
-88
-88
-88
-88
-88
-88
-89
-89
-89
-89
-89
-89
-90
-90
-90
-89
-89
-89
-88
-88
-88
-88
-87
-87
-86
-86
-86
-86
-86
-86
-86
-85
-85
-85
-85
-86
-86
-86
-86
-86
-87
-87
-88
-88
-89
-89
-89
-90
-90
-91
-91
-91
-91
-91
-91
-92
-92
-92
-92
-92
-92
-91
-91
-90
-90
-90
-90
-89
-89
-89
-89
-89
-88
-88
-88
-88
-88
-88
-88
-88
-88
-88
-86
-87
-87
-87
-87
-87
-87
-87
-86
-86
-86
-86
-86
-86
-86
-86
-85
-85
-85
-85
-84
-84
-84
-83
-83
-82
-82
-81
-81
-80
-80
-80
-80
-80
-80
-80
-80
-81
-81
-82
-82
-82
-83
-83
-83
-84
-84
-84
-84
-85
-85
-84
-84
-84
-84
-83
-83
-82
-81
-81
-80
-79
-78
-78
-76
-76
-75
-74
-74
-73
-72
-71
-71
-71
-70
-69
-69
-68
-68
-67
-67
-66
-66
-66
-66
-66
-65
-65
-64
-64
-64
-64
-65
-65
-65
-65
-65
-65
-65
-65
-66
-67
-67
-67
-67
-68
-68
-70
-70
-70
-70
-71
-71
-71
-71
-72
-73
-73
-73
-73
-72
-72
-72
-72
-72
-72
-71
-71
-72
-72
-72
-71
-71
-71
-71
-71
-72
-72
-72
-72
-73
-73
-74
-74
-74
-75
-76
-76
-77
-77
-77
-78
-78
-78
-79
-80
-80
-81
-81
-80
-81
-82
-82
-82
-83
-83
-83
-83
-83
-83
-83
-84
-85
-84
-84
-85
-85
-85
-85
-85
-85
-85
-85
-86
-86
-86
-86
-85
-86
-86
-86
-86
-86
-87
-87
-88
-88
-88
-88
-88
-88
-89
-89
-89
-88
-88
-88
-89
-89
-89
-89
-89
-88
-88
-88
-87
-87
-87
-86
-86
-86
-86
-85
-85
-85
-86
-86
-86
-86
-86
-85
-85
-85
-85
-86
-86
-86
-86
-86
-86
-86
-87
-87
-87
-87
-87
-87
-87
-87
-87
-87
-87
-86
-86
-86
-86
-86
-86
-86
-84
-84
-84
-83
-83
-83
-82
-82
-82
-81
-81
-81
-80
-81
-81
-80
-81
-80
-81
-80
-79
-79
-79
-79
-78
-78
-78
-77
-76
-74
-73
-70
-68
-67
-64
-60
-56
-52
-47
-43
-38
-31
-25
-17
-9
0
10
20
31
44
55
69
82
96
110
125
140
154
168
182
195
206
218
227
234
240
244
247
247
244
239
232
221
209
194
177
159
140
120
99
77
55
32
11
-11
-31
-51
-69
-84
-99
-112
-123
-132
-140
-147
-150
-154
-156
-156
-155
-154
-152
-150
-146
-143
-139
-135
-131
-127
-124
-120
-116
-112
-108
-105
-103
-100
-98
-95
-93
-91
-89
-87
-86
-85
-84
-82
-81
-80
-80
-79
-78
-77
-77
-77
-76
-75
-76
-75
-75
-74
-74
-74
-75
-75
-75
-75
-75
-75
-75
-76
-76
-75
-75
-76
-76
-76
-75
-75
-75
-75
-75
-74
-74
-74
-74
-74
-74
-74
-74
-73
-73
-73
-73
-73
-72
-72
-72
-72
-72
-72
-72
-72
-72
-72
-72
-72
-72
-72
-71
-70
-70
-70
-70
-69
-69
-69
-68
-68
-68
-68
-68
-68
-68
-68
-68
-68
-68
-69
-69
-69
-69
-70
-70
-70
-70
-70
-70
-70
-70
-69
-69
-69
-69
-69
-68
-68
-68
-68
-67
-67
-67
-67
-66
-66
-66
-66
-66
-65
-65
-65
-65
-65
-64
-64
-64
-64
-63
-63
-63
-64
-63
-63
-63
-63
-62
-62
-62
-62
-61
-61
-61
-61
-61
-59
-59
-59
-59
-59
-59
-59
-59
-58
-58
-58
-58
-58
-57
-57
-57
-57
-56
-56
-56
-55
-55
-55
-54
-54
-54
-53
-53
-53
-51
-51
-51
-50
-49
-49
-49
-47
-47
-47
-45
-45
-44
-44
-43
-43
-42
-41
-42
-41
-41
-41
-40
-40
-39
-39
-39
-39
-38
-38
-38
-38
-37
-37
-36
-36
-35
-35
-34
-34
-33
-33
-32
-32
-32
-31
-31
-31
-30
-30
-29
-29
-29
-29
-28
-28
-28
-27
-27
-27
-27
-26
-26
-26
-25
-24
-24
-24
-23
-22
-22
-22
-22
-22
-21
-20
-20
-20
-20
-20
-19
-19
-19
-19
-19
-19
-18
-18
-18
-18
-18
-18
-17
-17
-18
-18
-18
-18
-17
-17
-17
-17
-17
-16
-16
-16
-16
-16
-16
-16
-16
-16
-17
-17
-17
-17
-17
-18
-18
-18
-18
-19
-19
-21
-21
-22
-22
-23
-23
-24
-24
-25
-27
-27
-28
-28
-29
-31
-31
-32
-32
-33
-34
-34
-36
-36
-37
-37
-38
-38
-39
-39
-40
-41
-41
-42
-42
-43
-44
-45
-45
-46
-46
-47
-48
-49
-49
-50
-50
-52
-52
-53
-53
-55
-55
-55
-57
-57
-58
-58
-59
-60
-60
-61
-61
-62
-63
-63
-63
-64
-65
-65
-65
-66
-66
-66
-67
-67
-67
-67
-68
-68
-68
-67
-68
-68
-68
-67
-68
-68
-68
-68
-68
-68
-69
-69
-69
-69
-69
-69
-69
-69
-69
-71
-71
-71
-71
-72
-71
-71
-71
-71
-72
-72
-71
-72
-72
-73
-72
-72
-72
-73
-72
-72
-72
-72
-72
-72
-72
-72
-72
-72
-72
-72
-72
-72
-71
-71
-70
-69
-69
-69
-68
-68
-68
-68
-67
-67
-66
-66
-66
-66
-65
-64
-64
-64
-64
-64
-64
-64
-65
-65
-65
-65
-65
-64
-64
-64
-65
-65
-65
-65
-65
-65
-65
-65
-65
-65
-65
-65
-65
-65
-64
-65
-65
-65
-65
-64
-64
-65
-65
-65
-65
-66
-66
-66
-66
-66
-66
-66
-65
-65
-64
-64
-65
-65
-65
-65
-65
-66
-65
-64
-64
-64
-64
-64
-64
-64
-65
-66
-66
-66
-66
-66
-66
-66
-66
-66
-66
-66
-67
-67
-67
-67
-67
-67
-67
-68
-68
-68
-68
-68
-70
-70
-70
-70
-70
-70
-71
-71
-72
-72
-72
-72
-72
-72
-72
-72
-72
-72
-72
-71
-71
-71
-71
-71
-71
-71
-71
-71
-70
-70
-71
-71
-71
-71
-71
-71
-71
-72
-73
-73
-73
-73
-73
-73
-73
-73
-74
-74
-75
-75
-75
-75
-75
-75
-75
-75
-75
-74
-74
-74
-74
-73
-73
-74
-73
-73
-73
-73
-73
-73
-73
-72
-71
-72
-71
-71
-71
-70
-70
-70
-69
-69
-69
-69
-69
-68
-68
-67
-68
-67
-67
-66
-66
-66
-65
-65
-65
-64
-63
-63
-63
-63
-63
-63
-62
-62
-62
-62
-60
-60
-59
-59
-58
-57
-57
-56
-55
-55
-54
-54
-53
-53
-54
-53
-53
-53
-53
-53
-53
-54
-54
-55
-55
-56
-57
-57
-58
-59
-60
-60
-61
-62
-62
-63
-64
-65
-65
-65
-65
-65
-65
-65
-65
-65
-65
-65
-64
-64
-63
-63
-63
-63
-63
-63
-62
-62
-62
-63
-63
-63
-63
-64
-64
-64
-65
-67
-67
-68
-68
-69
-70
-71
-71
-72
-73
-73
-74
-75
-75
-74
-75
-75
-76
-75
-75
-76
-75
-75
-76
-75
-75
-75
-75
-74
-75
-75
-75
-76
-75
-76
-76
-76
-77
-77
-77
-77
-77
-78
-78
-77
-78
-78
-78
-78
-78
-78
-78
-78
-79
-79
-80
-80
-80
-80
-80
-81
-81
-81
-81
-81
-83
-83
-83
-83
-84
-85
-85
-85
-85
-86
-86
-86
-87
-87
-87
-88
-88
-88
-88
-88
-88
-88
-87
-87
-87
-87
-87
-87
-87
-86
-86
-86
-86
-85
-85
-85
-84
-84
-84
-84
-83
-83
-83
-83
-83
-83
-83
-83
-83
-83
-83
-83
-83
-83
-84
-84
-84
-84
-83
-83
-83
-84
-84
-83
-83
-82
-82
-82
-82
-81
-82
-81
-81
-80
-80
-79
-79
-78
-77
-77
-77
-77
-76
-75
-75
-75
-73
-73
-70
-70
-68
-66
-63
-60
-57
-53
-49
-44
-39
-32
-27
-19
-11
-1
8
18
29
40
52
65
79
91
105
119
133
146
159
171
182
192
201
208
214
219
221
222
219
215
209
199
188
175
159
142
123
104
84
63
42
21
0
-21
-42
-61
-77
-94
-109
-122
-134
-143
-151
-157
-162
-165
-166
-167
-166
-165
-162
-159
-156
-151
-146
-142
-137
-133
-129
-124
-119
-115
-111
-108
-105
-102
-99
-96
-95
-92
-90
-88
-87
-86
-85
-85
-84
-83
-82
-82
-82
-81
-81
-80
-80
-80
-79
-78
-78
-78
-78
-77
-77
-77
-77
-76
-76
-75
-75
-75
-75
-75
-75
-74
-75
-75
-75
-75
-75
-76
-76
-75
-75
-75
-75
-75
-75
-74
-75
-75
-75
-75
-74
-74
-74
-74
-74
-74
-73
-73
-74
-74
-73
-73
-73
-74
-74
-74
-73
-73
-73
-73
-73
-74
-74
-74
-73
-73
-73
-73
-73
-73
-73
-72
-72
-72
-73
-73
-73
-73
-73
-73
-72
-72
-72
-72
-73
-72
-72
-72
-72
-71
-71
-71
-71
-70
-70
-70
-70
-69
-69
-69
-70
-70
-70
-70
-69
-70
-70
-70
-69
-69
-69
-69
-70
-70
-70
-70
-70
-70
-70
-70
-69
-70
-70
-70
-70
-70
-70
-69
-69
-69
-68
-68
-68
-66
-66
-66
-65
-64
-64
-64
-63
-63
-62
-62
-62
-61
-61
-60
-60
-61
-59
-60
-59
-60
-59
-58
-58
-58
-58
-58
-57
-57
-57
-56
-56
-55
-55
-55
-55
-54
-54
-54
-54
-52
-52
-52
-51
-51
-50
-50
-50
-48
-49
-48
-48
-48
-46
-47
-47
-46
-46
-46
-45
-45
-45
-44
-44
-44
-42
-42
-42
-41
-41
-40
-39
-39
-39
-38
-38
-37
-37
-36
-35
-34
-34
-33
-33
-33
-32
-32
-32
-31
-31
-30
-30
-30
-29
-29
-29
-28
-28
-28
-27
-26
-26
-26
-24
-24
-24
-23
-23
-22
-21
-21
-21
-20
-20
-20
-19
-19
-20
-20
-19
-20
-20
-20
-20
-21
-21
-22
-22
-23
-22
-22
-23
-23
-23
-24
-23
-24
-24
-23
-25
-24
-25
-25
-25
-27
-27
-28
-28
-29
-30
-31
-32
-32
-33
-34
-35
-36
-36
-37
-37
-38
-38
-39
-40
-40
-41
-41
-42
-43
-43
-44
-44
-45
-45
-45
-47
-47
-48
-49
-50
-51
-52
-52
-54
-55
-56
-56
-58
-59
-59
-60
-61
-63
-63
-64
-66
-66
-67
-67
-68
-69
-70
-71
-71
-72
-72
-73
-73
-74
-74
-75
-75
-75
-76
-76
-76
-76
-76
-77
-77
-77
-78
-78
-78
-79
-80
-80
-80
-80
-81
-81
-81
-81
-82
-82
-82
-83
-83
-83
-83
-83
-82
-82
-82
-82
-82
-82
-82
-82
-82
-82
-82
-82
-82
-81
-81
-82
-81
-81
-81
-81
-81
-82
-81
-81
-81
-81
-81
-81
-80
-80
-80
-80
-80
-80
-79
-79
-79
-79
-78
-78
-78
-77
-77
-77
-77
-76
-76
-76
-75
-75
-75
-75
-75
-75
-75
-75
-75
-74
-73
-74
-74
-74
-74
-74
-74
-73
-73
-73
-73
-73
-72
-72
-73
-73
-72
-72
-72
-72
-72
-72
-73
-72
-72
-72
-72
-72
-72
-73
-73
-73
-72
-72
-72
-71
-70
-70
-70
-70
-69
-68
-67
-67
-67
-67
-67
-66
-66
-66
-66
-66
-66
-66
-67
-67
-67
-68
-68
-68
-69
-70
-70
-70
-71
-71
-71
-71
-71
-71
-71
-71
-71
-70
-70
-70
-69
-69
-68
-68
-68
-67
-67
-66
-66
-66
-67
-66
-67
-67
-66
-67
-67
-67
-67
-67
-67
-67
-67
-68
-68
-68
-68
-68
-69
-69
-69
-69
-69
-69
-69
-69
-69
-69
-70
-70
-70
-70
-70
-70
-71
-71
-70
-71
-71
-70
-70
-71
-70
-70
-70
-70
-70
-69
-69
-69
-68
-68
-68
-67
-67
-67
-67
-67
-67
-67
-68
-67
-68
-67
-66
-67
-67
-67
-67
-67
-67
-67
-67
-67
-67
-66
-66
-66
-66
-65
-65
-64
-64
-64
-63
-64
-63
-63
-62
-62
-62
-62
-61
-61
-62
-61
-61
-62
-63
-63
-63
-64
-64
-65
-65
-65
-66
-66
-67
-67
-67
-67
-67
-67
-67
-67
-67
-67
-67
-67
-67
-67
-67
-66
-66
-65
-64
-64
-63
-62
-62
-61
-61
-62
-61
-60
-60
-59
-59
-58
-59
-59
-58
-58
-58
-58
-58
-58
-58
-58
-58
-59
-59
-58
-58
-58
-58
-59
-59
-59
-59
-59
-60
-60
-60
-60
-60
-60
-60
-59
-59
-59
-58
-58
-58
-57
-56
-56
-55
-55
-53
-52
-51
-50
-50
-49
-48
-47
-46
-46
-45
-44
-43
-42
-42
-41
-42
-40
-41
-41
-41
-40
-40
-40
-40
-40
-40
-39
-39
-38
-38
-37
-38
-37
-36
-35
-34
-34
-34
-32
-32
-32
-31
-31
-31
-30
-30
-31
-30
-30
-30
-31
-31
-31
-31
-31
-31
-32
-32
-32
-33
-33
-33
-33
-33
-34
-34
-34
-34
-34
-33
-33
-34
-34
-33
-33
-33
-32
-32
-32
-32
-32
-31
-31
-31
-31
-30
-31
-31
-32
-32
-32
-32
-33
-33
-34
-35
-35
-36
-36
-37
-38
-38
-40
-40
-40
-41
-42
-42
-43
-43
-43
-43
-44
-44
-44
-44
-45
-44
-44
-44
-44
-43
-43
-43
-43
-42
-42
-41
-40
-40
-40
-40
-39
-39
-39
-39
-40
-40
-40
-40
-40
-40
-40
-41
-41
-41
-41
-42
-42
-43
-42
-43
-43
-43
-43
-44
-43
-43
-43
-43
-44
-44
-43
-44
-44
-44
-43
-42
-43
-43
-42
-41
-41
-41
-40
-40
-39
-39
-39
-39
-39
-38
-38
-37
-37
-37
-37
-38
-38
-37
-37
-37
-38
-38
-38
-37
-37
-37
-37
-37
-37
-36
-36
-36
-36
-35
-35
-35
-35
-34
-35
-35
-34
-34
-33
-33
-32
-32
-31
-31
-30
-30
-30
-30
-30
-29
-29
-28
-29
-28
-27
-28
-27
-27
-27
-27
-26
-26
-25
-24
-23
-22
-21
-20
-18
-16
-14
-10
-7
-3
2
6
11
17
23
30
38
46
54
65
75
86
98
110
123
137
151
166
181
197
211
226
241
254
267
278
289
298
306
311
315
316
315
313
307
299
287
274
258
241
222
202
181
159
137
114
92
71
49
28
9
-9
-26
-40
-53
-64
-73
-81
-86
-90
-94
-95
-95
-94
-93
-91
-88
-85
-80
-77
-72
-68
-64
-59
-55
-51
-47
-44
-40
-37
-33
-30
-27
-25
-22
-21
-19
-17
-16
-14
-14
-13
-12
-12
-11
-11
-10
-11
-10
-11
-10
-10
-11
-10
-10
-10
-10
-10
-10
-10
-10
-9
-8
-8
-8
-8
-8
-7
-6
-6
-5
-4
-4
-3
-3
-2
-1
-1
0
0
0
1
1
1
2
2
2
2
3
2
2
2
2
2
2
1
1
2
2
2
2
2
2
2
2
2
2
2
2
2
3
3
4
4
4
4
5
5
5
6
6
6
6
7
7
8
8
7
9
9
9
10
10
10
10
10
10
11
11
10
10
10
10
10
10
10
10
10
10
10
11
11
11
11
11
12
12
12
12
13
13
14
15
16
16
17
17
17
19
19
19
19
21
21
21
21
23
23
23
24
24
24
25
25
26
27
27
27
28
29
29
30
30
30
30
32
32
32
32
32
33
33
33
33
34
34
34
34
34
34
34
35
35
35
35
35
36
36
36
37
37
38
39
39
39
40
40
41
41
41
42
42
42
43
43
43
44
44
44
44
45
45
45
45
46
47
47
47
48
48
49
50
51
51
52
54
54
55
56
57
58
59
60
60
62
62
63
63
64
64
64
65
65
66
66
67
67
67
68
68
68
68
69
70
70
70
72
72
73
74
74
75
76
76
77
77
77
77
77
77
77
77
76
76
76
75
75
73
73
72
72
72
70
70
70
69
69
69
69
68
69
69
69
69
70
70
70
70
69
70
70
70
70
69
69
69
68
68
67
66
66
65
65
64
63
62
62
61
61
59
58
58
57
56
54
54
53
51
51
50
49
48
48
47
46
46
45
45
44
43
43
43
42
42
42
42
42
40
40
39
39
37
37
36
36
34
33
33
31
30
29
28
28
27
25
25
24
24
23
22
23
22
21
21
20
21
20
20
20
20
19
20
20
20
21
21
21
21
21
21
22
22
21
21
22
22
23
22
22
22
22
23
23
23
23
23
23
23
23
23
22
22
22
22
22
22
22
21
21
21
20
21
21
21
20
20
20
20
20
21
22
22
22
23
23
23
24
25
25
26
26
27
27
28
28
29
29
29
29
29
29
29
30
29
29
30
30
30
29
29
29
29
30
29
29
29
29
29
29
29
29
30
30
30
30
31
31
31
31
32
33
33
33
33
33
33
33
33
33
33
33
33
33
33
33
33
33
33
32
32
32
32
32
32
32
32
32
31
31
31
30
30
30
30
29
29
29
29
29
29
29
29
29
29
29
29
30
30
31
31
31
32
32
32
32
32
33
32
32
32
32
31
31
32
32
31
30
30
30
30
30
29
29
29
29
29
29
29
29
29
29
28
28
27
27
27
27
26
26
26
26
26
26
26
26
27
26
26
26
27
27
27
28
28
29
29
28
29
29
30
30
30
31
31
31
31
31
31
30
30
30
30
30
29
29
28
28
28
28
27
27
26
26
25
25
24
24
23
23
23
23
23
23
23
23
23
24
23
24
24
24
24
25
25
26
26
27
27
27
28
28
27
27
27
27
28
28
28
28
28
27
27
28
27
27
27
27
27
27
27
27
28
28
29
28
29
29
30
30
31
30
31
31
32
31
31
31
31
30
30
30
29
30
29
29
29
29
29
29
29
29
28
29
30
30
30
30
31
32
32
32
34
34
35
35
36
36
37
37
37
38
38
38
39
40
40
40
41
41
42
42
43
43
43
44
44
46
46
47
47
47
48
48
48
49
49
49
49
49
49
49
48
48
48
48
48
48
47
47
46
45
46
45
45
45
45
45
44
44
43
43
42
42
42
42
42
42
42
40
40
41
41
41
40
40
41
40
40
40
40
39
39
39
39
39
39
38
38
38
37
37
36
36
35
35
34
34
34
32
32
32
31
30
30
30
29
29
28
28
27
27
26
25
25
25
25
24
24
23
23
23
23
23
22
22
22
22
22
22
22
22
22
22
22
22
21
22
22
22
22
22
22
23
22
22
22
21
21
22
21
21
21
20
20
20
20
20
19
18
18
18
18
18
18
18
18
18
18
18
18
18
18
19
19
19
19
20
20
20
20
20
21
22
22
22
22
22
22
22
22
22
22
22
22
22
22
22
23
23
22
22
22
22
23
23
22
22
22
23
23
23
23
23
23
23
24
24
24
24
24
25
24
25
26
26
26
27
28
28
29
31
31
33
35
37
39
41
45
49
53
57
62
68
74
82
89
97
107
117
127
139
151
164
178
192
206
221
237
252
268
283
299
312
326
338
349
358
366
372
377
378
377
374
369
361
349
336
320
302
283
262
239
217
194
170
147
124
101
80
60
41
24
9
-5
-16
-26
-35
-41
-45
-48
-49
-51
-50
-48
-46
-43
-40
-36
-32
-29
-24
-21
-17
-14
-10
-6
-2
1
4
7
9
11
13
14
17
18
19
20
21
22
23
24
24
25
26
26
27
27
28
28
29
29
29
29
30
30
30
31
31
31
32
32
32
32
32
31
31
31
32
32
31
31
32
31
31
31
30
30
31
31
31
31
31
31
31
31
31
32
32
32
32
33
32
32
32
32
32
33
33
33
33
33
33
33
33
33
33
33
33
33
32
32
33
33
33
33
33
33
33
34
34
34
34
34
35
35
35
35
35
36
36
36
36
36
37
37
37
37
37
37
36
36
37
37
37
38
38
38
38
38
38
38
38
38
38
38
38
38
38
38
38
37
37
37
37
37
36
36
36
36
36
36
37
37
37
38
38
39
39
39
40
41
41
41
41
42
42
43
43
43
44
44
44
44
44
44
44
44
45
44
45
45
45
46
47
46
47
47
48
48
49
49
50
51
52
52
53
53
53
55
55
55
55
57
57
58
58
58
59
59
60
60
60
61
61
61
62
62
62
63
63
64
64
64
64
65
65
65
65
66
66
66
66
67
67
68
68
69
68
69
70
71
71
71
72
73
73
73
74
75
75
75
75
76
76
76
77
78
78
78
78
79
79
79
78
78
78
79
79
79
78
78
79
79
79
79
79
79
78
79
78
79
79
79
79
78
79
79
79
78
78
78
77
78
78
77
77
77
75
75
75
74
73
73
73
72
71
71
71
69
69
69
67
67
66
65
65
63
63
62
62
61
60
60
59
59
58
57
57
56
56
55
54
54
53
52
51
50
49
48
47
47
45
44
43
42
40
40
38
37
36
36
34
34
33
33
32
32
30
30
30
28
28
28
27
27
27
26
26
24
24
24
23
23
23
22
22
22
21
21
21
21
21
20
19
19
19
19
18
18
18
18
17
17
17
16
16
16
15
15
15
15
15
15
15
15
15
14
15
15
15
15
14
14
14
14
14
14
14
14
14
14
14
13
13
13
13
14
14
14
14
14
14
14
13
13
13
13
13
14
13
14
15
14
15
15
15
15
15
16
16
15
15
15
16
16
16
16
16
17
17
17
17
17
17
17
17
18
18
17
17
17
17
17
17
17
17
17
17
17
17
17
17
17
17
17
17
17
18
18
18
18
18
19
18
18
18
18
19
19
19
19
19
18
18
18
18
17
17
17
17
15
15
15
15
15
15
14
14
14
14
13
14
14
15
14
14
15
15
15
15
15
15
15
16
14
14
14
14
14
14
13
14
13
13
12
12
11
11
10
11
10
10
9
9
9
8
8
8
8
8
8
8
8
8
8
8
8
8
8
8
7
8
7
8
8
7
7
7
7
8
7
7
7
7
7
6
6
5
5
5
5
5
5
5
5
4
4
4
3
3
3
3
3
3
3
3
2
2
2
2
2
2
1
1
1
1
1
1
0
1
1
1
1
1
2
2
1
1
2
2
2
2
2
2
2
3
3
3
3
2
2
2
3
3
3
3
3
2
2
2
2
1
0
0
0
-1
-1
-2
-2
-3
-3
-4
-3
-3
-4
-4
-4
-4
-4
-4
-4
-4
-2
-2
-2
-2
-1
0
0
0
0
1
1
1
1
2
2
2
3
2
2
2
3
3
3
4
3
3
4
5
5
5
6
7
7
8
8
8
9
9
9
11
11
11
12
13
13
13
14
14
14
14
15
15
16
17
17
17
18
18
18
19
19
19
19
20
20
20
19
19
19
20
19
19
19
18
18
17
17
16
15
14
13
12
12
11
11
10
10
10
9
9
8
7
7
6
6
6
7
6
6
6
5
6
6
6
6
5
5
5
5
5
3
3
3
3
2
2
1
1
1
0
-1
-1
-1
-2
-3
-3
-4
-4
-4
-5
-5
-6
-7
-6
-7
-7
-8
-8
-9
-9
-9
-9
-10
-10
-11
-11
-11
-11
-12
-12
-13
-13
-13
-13
-14
-14
-14
-14
-15
-15
-15
-15
-16
-16
-16
-15
-16
-16
-17
-17
-18
-18
-18
-18
-19
-19
-19
-19
-20
-19
-20
-19
-19
-20
-19
-19
-19
-19
-19
-19
-19
-19
-19
-19
-19
-19
-19
-19
-19
-19
-19
-19
-20
-19
-20
-20
-20
-20
-21
-21
-21
-21
-21
-21
-21
-21
-21
-21
-21
-21
-21
-21
-21
-20
-21
-21
-21
-21
-21
-21
-21
-21
-22
-22
-22
-22
-22
-22
-21
-21
-21
-22
-22
-22
-22
-21
-22
-21
-22
-21
-21
-21
-21
-20
-20
-20
-19
-18
-18
-16
-15
-14
-12
-10
-9
-6
-3
-1
3
8
12
17
23
28
35
41
49
58
68
77
88
99
111
124
137
151
166
180
195
210
226
240
254
267
279
290
300
308
314
319
321
321
319
315
307
298
285
269
253
234
214
193
171
149
125
102
79
57
35
14
-5
-21
-37
-52
-64
-74
-82
-89
-94
-98
-100
-100
-100
-99
-97
-94
-91
-88
-84
-80
-76
-72
-67
-63
-59
-56
-52
-49
-46
-43
-40
-39
-36
-35
-33
-31
-30
-29
-28
-28
-27
-26
-25
-25
-25
-24
-25
-24
-24
-24
-24
-24
-24
-24
-24
-24
-24
-25
-24
-24
-24
-24
-24
-24
-24
-23
-23
-23
-22
-22
-21
-21
-21
-20
-19
-19
-19
-19
-18
-18
-18
-17
-18
-18
-18
-17
-18
-18
-18
-18
-18
-18
-19
-19
-19
-20
-19
-19
-20
-20
-20
-20
-20
-20
-20
-21
-20
-20
-20
-20
-20
-20
-20
-19
-19
-19
-19
-18
-18
-18
-17
-17
-17
-16
-16
-15
-15
-14
-14
-13
-13
-14
-14
-13
-13
-13
-13
-14
-15
-15
-15
-15
-16
-16
-16
-16
-16
-17
-17
-17
-17
-17
-18
-18
-17
-17
-17
-17
-17
-17
-16
-16
-16
-16
-15
-15
-15
-15
-14
-14
-13
-13
-13
-13
-12
-12
-12
-11
-11
-11
-11
-11
-11
-11
-11
-12
-12
-11
-11
-11
-12
-11
-12
-12
-12
-12
-12
-12
-11
-12
-12
-12
-12
-11
-10
-10
-10
-9
-9
-9
-7
-7
-7
-6
-6
-5
-4
-4
-3
-3
-2
-2
-1
-1
0
0
1
1
2
2
2
2
2
2
3
3
3
4
4
5
5
5
6
6
7
7
8
8
10
10
11
11
12
13
13
14
14
14
15
16
17
17
17
18
18
18
19
19
20
20
20
20
20
21
22
22
22
22
23
23
23
23
23
23
23
23
24
23
23
23
22
22
22
22
22
22
22
21
21
21
21
21
20
20
20
19
19
20
20
20
19
19
20
19
19
20
19
19
19
18
18
19
18
18
17
17
17
16
16
15
14
13
13
12
12
10
10
8
7
7
5
5
3
2
2
0
-1
-1
-2
-3
-3
-5
-6
-5
-7
-7
-8
-8
-9
-10
-11
-11
-12
-13
-13
-14
-15
-16
-16
-18
-19
-20
-21
-22
-23
-25
-26
-27
-29
-29
-30
-31
-32
-33
-34
-35
-36
-37
-37
-37
-38
-38
-39
-40
-40
-40
-40
-40
-41
-41
-41
-41
-41
-41
-42
-42
-42
-42
-43
-42
-42
-43
-42
-42
-43
-43
-43
-43
-43
-43
-44
-44
-44
-44
-44
-44
-45
-45
-46
-45
-45
-46
-46
-46
-46
-47
-48
-48
-48
-48
-48
-48
-48
-48
-49
-49
-49
-49
-49
-49
-49
-48
-48
-48
-47
-47
-47
-47
-47
-46
-45
-45
-45
-45
-45
-45
-45
-44
-44
-44
-44
-44
-44
-45
-44
-44
-44
-44
-45
-45
-45
-46
-46
-47
-47
-46
-47
-47
-47
-47
-47
-47
-47
-48
-48
-48
-47
-48
-47
-47
-47
-47
-46
-47
-47
-46
-46
-46
-47
-46
-46
-46
-46
-45
-46
-46
-46
-46
-46
-46
-46
-46
-46
-46
-46
-46
-46
-46
-47
-47
-47
-47
-47
-47
-47
-47
-47
-47
-48
-48
-48
-48
-48
-48
-47
-47
-47
-47
-47
-47
-47
-47
-46
-47
-46
-46
-47
-47
-47
-47
-47
-47
-49
-49
-49
-50
-50
-50
-51
-51
-51
-53
-53
-53
-53
-54
-54
-54
-54
-56
-56
-56
-56
-56
-56
-56
-57
-57
-57
-57
-57
-57
-57
-57
-56
-56
-56
-56
-56
-56
-55
-55
-55
-55
-54
-54
-54
-54
-54
-55
-54
-54
-55
-55
-55
-55
-56
-56
-56
-56
-56
-56
-57
-57
-57
-57
-56
-56
-57
-57
-57
-56
-56
-56
-56
-56
-55
-55
-55
-55
-55
-55
-55
-56
-56
-56
-56
-56
-57
-57
-57
-57
-57
-58
-57
-58
-58
-58
-58
-58
-58
-58
-59
-59
-59
-59
-58
-59
-59
-59
-59
-59
-59
-59
-59
-59
-59
-59
-59
-59
-59
-59
-59
-59
-59
-58
-58
-58
-58
-58
-58
-58
-57
-58
-58
-58
-58
-58
-58
-58
-58
-58
-58
-58
-58
-60
-60
-60
-60
-60
-60
-61
-61
-61
-61
-61
-61
-61
-61
-61
-61
-61
-61
-61
-60
-60
-60
-59
-59
-59
-59
-59
-59
-59
-59
-59
-59
-59
-61
-61
-61
-61
-62
-62
-62
-62
-64
-64
-64
-65
-65
-65
-65
-65
-64
-65
-65
-64
-63
-63
-63
-63
-63
-62
-62
-62
-62
-62
-61
-61
-61
-61
-61
-61
-61
-61
-61
-62
-62
-62
-62
-62
-62
-62
-62
-61
-62
-62
-62
-62
-62
-62
-62
-62
-62
-62
-62
-62
-62
-62
-62
-63
-63
-63
-63
-63
-63
-62
-62
-62
-62
-62
-63
-63
-63
-62
-62
-62
-62
-61
-62
-61
-62
-61
-61
-61
-61
-60
-59
-59
-59
-58
-58
-58
-58
-57
-57
-56
-56
-56
-55
-55
-55
-55
-54
-54
-54
-53
-53
-53
-52
-51
-51
-50
-50
-50
-49
-49
-49
-48
-48
-48
-47
-47
-47
-47
-47
-47
-47
-47
-47
-47
-47
-48
-48
-48
-49
-50
-50
-51
-51
-51
-51
-53
-53
-53
-53
-54
-55
-55
-56
-56
-57
-57
-57
-58
-58
-58
-59
-59
-59
-60
-60
-61
-60
-61
-61
-62
-62
-62
-63
-63
-64
-64
-65
-66
-66
-66
-68
-68
-70
-70
-71
-72
-72
-73
-74
-74
-75
-75
-76
-77
-77
-78
-79
-78
-79
-79
-80
-80
-80
-80
-81
-81
-81
-81
-82
-83
-83
-83
-84
-84
-85
-85
-85
-86
-86
-86
-87
-87
-87
-87
-87
-88
-88
-88
-89
-89
-89
-90
-90
-90
-90
-90
-91
-91
-92
-93
-93
-93
-93
-93
-94
-94
-94
-94
-94
-94
-94
-94
-94
-94
-94
-94
-93
-94
-94
-94
-94
-95
-96
-96
-96
-97
-97
-97
-97
-98
-98
-98
-98
-98
-99
-100
-100
-100
-100
-99
-99
-99
-99
-99
-99
-98
-98
-98
-98
-97
-97
-97
-97
-97
-96
-96
-96
-96
-96
-95
-95
-95
-95
-95
-94
-94
-95
-94
-95
-94
-95
-94
-94
-93
-94
-93
-93
-92
-92
-92
-91
-91
-90
-89
-87
-86
-83
-81
-78
-75
-71
-67
-62
-57
-51
-44
-36
-28
-20
-11
-1
9
21
32
45
57
71
85
99
114
127
142
155
168
180
190
200
208
215
220
222
224
222
219
213
205
193
180
165
148
129
110
89
67
46
23
2
-21
-41
-60
-79
-97
-112
-126
-139
-150
-159
-166
-171
-176
-178
-179
-180
-178
-177
-174
-172
-168
-164
-161
-156
-151
-147
-143
-139
-135
-132
-128
-124
-122
-118
-115
-113
-111
-108
-107
-105
-104
-102
-101
-100
-99
-98
-97
-96
-95
-95
-94
-94
-93
-93
-93
-92
-93
-92
-92
-93
-93
-93
-93
-93
-94
-94
-94
-94
-94
-95
-95
-95
-96
-96
-96
-96
-96
-96
-95
-95
-96
-96
-96
-96
-96
-95
-95
-94
-94
-94
-94
-93
-93
-93
-92
-92
-93
-93
-93
-92
-93
-93
-93
-93
-92
-92
-93
-93
-92
-93
-93
-93
-92
-92
-92
-92
-92
-91
-91
-91
-91
-91
-91
-91
-91
-90
-90
-90
-90
-91
-91
-91
-90
-90
-90
-90
-90
-90
-90
-90
-90
-90
-90
-90
-90
-90
-90
-90
-90
-90
-89
-89
-89
-89
-89
-88
-88
-88
-88
-88
-87
-87
-87
-86
-86
-85
-85
-84
-84
-83
-82
-82
-82
-82
-82
-81
-80
-81
-81
-80
-80
-81
-80
-81
-81
-81
-82
-83
-82
-82
-82
-82
-83
-82
-82
-82
-81
-81
-81
-81
-80
-80
-79
-79
-79
-77
-77
-76
-75
-75
-75
-74
-73
-73
-72
-72
-70
-70
-70
-70
-70
-69
-69
-69
-68
-68
-68
-67
-67
-67
-66
-67
-66
-66
-66
-66
-66
-65
-65
-64
-64
-64
-64
-63
-63
-63
-62
-62
-62
-61
-61
-60
-61
-60
-60
-60
-60
-60
-58
-58
-58
-58
-57
-57
-57
-56
-56
-55
-54
-53
-53
-52
-52
-52
-51
-51
-50
-50
-50
-49
-49
-49
-49
-48
-48
-48
-48
-48
-48
-48
-47
-47
-48
-48
-48
-48
-48
-48
-48
-48
-48
-48
-47
-48
-48
-48
-48
-47
-47
-47
-47
-47
-47
-47
-47
-47
-47
-47
-47
-47
-48
-48
-48
-48
-48
-48
-49
-49
-50
-49
-49
-50
-50
-51
-52
-52
-52
-52
-52
-53
-53
-53
-53
-54
-54
-54
-54
-55
-55
-55
-56
-56
-56
-57
-58
-58
-59
-60
-60
-61
-62
-64
-64
-65
-67
-67
-69
-70
-72
-72
-73
-75
-76
-77
-78
-80
-80
-81
-83
-84
-84
-85
-87
-87
-88
-88
-89
-90
-91
-91
-92
-92
-92
-93
-93
-93
-94
-95
-95
-95
-96
-96
-96
-96
-97
-97
-98
-98
-98
-98
-99
-100
-100
-101
-101
-101
-101
-103
-103
-103
-104
-104
-104
-105
-105
-106
-106
-107
-107
-107
-107
-108
-108
-108
-108
-108
-108
-108
-108
-108
-107
-107
-107
-107
-107
-107
-107
-106
-106
-106
-106
-105
-105
-104
-104
-104
-103
-103
-103
-101
-101
-101
-101
-101
-100
-100
-100
-99
-99
-99
-99
-99
-99
-99
-99
-100
-100
-100
-100
-101
-102
-102
-102
-103
-103
-104
-104
-104
-105
-105
-105
-105
-104
-105
-105
-105
-104
-104
-103
-103
-103
-103
-103
-102
-102
-102
-102
-102
-102
-102
-102
-102
-102
-101
-102
-102
-102
-102
-102
-102
-103
-103
-103
-103
-103
-103
-103
-103
-103
-104
-104
-104
-104
-105
-105
-105
-105
-104
-104
-104
-104
-104
-104
-105
-105
-105
-105
-105
-105
-105
-105
-105
-105
-105
-105
-105
-105
-105
-105
-105
-105
-105
-105
-105
-105
-105
-105
-105
-105
-105
-104
-104
-105
-105
-105
-106
-106
-107
-107
-107
-108
-108
-108
-109
-110
-111
-111
-111
-112
-112
-112
-113
-113
-113
-113
-113
-112
-112
-111
-111
-111
-110
-109
-109
-107
-107
-106
-106
-105
-104
-103
-103
-102
-102
-101
-100
-100
-100
-100
-98
-98
-98
-98
-98
-98
-98
-98
-98
-97
-97
-98
-98
-97
-96
-96
-95
-95
-96
-95
-95
-94
-93
-93
-93
-93
-92
-92
-92
-92
-92
-92
-91
-92
-92
-92
-93
-94
-95
-95
-96
-97
-97
-98
-98
-99
-99
-100
-101
-101
-101
-101
-101
-102
-101
-101
-101
-100
-100
-99
-100
-100
-100
-99
-99
-100
-100
-99
-99
-99
-100
-100
-101
-102
-102
-103
-103
-104
-104
-105
-107
-108
-109
-109
-110
-111
-111
-112
-113
-114
-115
-116
-116
-116
-117
-117
-118
-118
-117
-117
-117
-117
-116
-117
-117
-117
-116
-116
-116
-117
-117
-117
-117
-117
-119
-119
-119
-119
-120
-120
-120
-121
-121
-121
-122
-121
-121
-121
-122
-121
-122
-122
-122
-122
-122
-123
-123
-124
-124
-125
-125
-126
-126
-126
-127
-127
-128
-128
-129
-129
-129
-129
-128
-128
-128
-128
-127
-126
-126
-125
-125
-125
-124
-124
-122
-122
-122
-122
-122
-121
-121
-121
-121
-121
-121
-121
-121
-121
-122
-122
-122
-123
-123
-123
-124
-124
-126
-126
-126
-128
-128
-128
-129
-129
-129
-130
-131
-131
-132
-131
-132
-132
-131
-131
-132
-131
-131
-129
-129
-129
-129
-128
-127
-126
-126
-125
-125
-124
-124
-122
-121
-121
-119
-119
-117
-117
-116
-114
-113
-112
-111
-110
-108
-105
-103
-100
-96
-92
-88
-83
-78
-71
-65
-58
-50
-42
-32
-24
-13
-1
10
23
37
51
66
80
96
110
125
139
152
164
175
186
194
202
207
210
212
211
207
201
192
181
168
151
133
115
95
74
52
31
8
-15
-37
-58
-78
-96
-114
-130
-145
-157
-167
-177
-183
-190
-193
-196
-197
-197
-197
-196
-194
-191
-187
-184
-180
-177
-173
-168
-165
-161
-157
-154
-150
-148
-144
-141
-139
-136
-134
-132
-130
-127
-126
-124
-124
-122
-122
-121
-120
-118
-118
-118
-118
-117
-116
-116
-115
-116
-115
-115
-114
-114
-113
-113
-112
-112
-111
-111
-111
-111
-110
-109
-109
-109
-109
-109
-109
-109
-109
-110
-110
-111
-111
-112
-112
-114
-114
-114
-114
-115
-115
-115
-115
-115
-115
-114
-113
-113
-112
-111
-111
-109
-109
-108
-107
-106
-106
-105
-104
-104
-104
-104
-103
-103
-104
-104
-104
-105
-105
-105
-105
-105
-106
-106
-106
-106
-106
-106
-106
-106
-105
-105
-105
-104
-104
-104
-105
-105
-105
-104
-104
-104
-104
-104
-104
-104
-103
-103
-103
-104
-103
-102
-102
-102
-102
-101
-101
-101
-101
-101
-101
-101
-101
-101
-100
-100
-100
-101
-101
-100
-100
-101
-100
-100
-100
-99
-99
-99
-99
-99
-98
-98
-97
-97
-96
-97
-96
-95
-96
-95
-94
-94
-94
-93
-93
-93
-92
-92
-91
-91
-91
-90
-90
-90
-89
-88
-88
-87
-87
-86
-84
-84
-83
-83
-82
-82
-82
-80
-80
-80
-80
-79
-78
-78
-78
-76
-76
-76
-75
-75
-75
-74
-74
-74
-74
-74
-73
-72
-73
-72
-72
-72
-71
-72
-71
-71
-71
-70
-70
-69
-68
-68
-67
-66
-65
-64
-64
-63
-62
-61
-61
-60
-59
-58
-57
-57
-57
-57
-56
-55
-55
-55
-55
-55
-56
-56
-56
-56
-56
-55
-55
-55
-55
-55
-55
-55
-55
-54
-54
-54
-54
-54
-53
-53
-53
-53
-53
-53
-53
-53
-53
-53
-53
-53
-52
-52
-52
-52
-52
-53
-53
-53
-53
-54
-53
-53
-54
-54
-54
-55
-55
-54
-55
-55
-56
-56
-56
-57
-58
-59
-59
-60
-60
-61
-61
-62
-63
-64
-64
-65
-65
-67
-68
-68
-69
-70
-71
-71
-72
-73
-74
-75
-76
-77
-78
-79
-79
-81
-82
-82
-85
-85
-86
-87
-88
-88
-89
-90
-91
-92
-92
-93
-94
-95
-96
-96
-97
-98
-99
-100
-101
-102
-102
-103
-103
-105
-105
-106
-106
-107
-107
-108
-108
-109
-109
-109
-110
-110
-110
-111
-111
-111
-111
-112
-112
-112
-113
-114
-114
-115
-115
-116
-116
-118
-117
-118
-118
-118
-118
-119
-119
-119
-119
-119
-118
-118
-118
-118
-118
-117
-118
-118
-117
-117
-117
-117
-117
-117
-117
-117
-117
-117
-117
-117
-117
-117
-117
-117
-117
-116
-116
-116
-116
-115
-115
-115
-115
-115
-115
-115
-114
-114
-114
-114
-114
-114
-114
-113
-113
-113
-113
-114
-113
-113
-113
-112
-113
-113
-112
-112
-112
-111
-111
-111
-111
-112
-112
-111
-112
-111
-111
-111
-111
-112
-112
-112
-112
-112
-112
-112
-113
-113
-113
-113
-113
-113
-113
-113
-113
-113
-113
-113
-113
-113
-113
-113
-113
-113
-112
-113
-113
-113
-113
-113
-114
-113
-113
-113
-113
-113
-113
-113
-113
-113
-113
-113
-113
-112
-112
-112
-112
-112
-112
-112
-112
-112
-112
-112
-113
-113
-113
-113
-114
-114
-114
-115
-115
-115
-116
-115
-115
-115
-116
-116
-116
-116
-117
-116
-116
-116
-116
-116
-117
-117
-116
-116
-116
-116
-116
-115
-115
-115
-115
-115
-115
-115
-115
-115
-115
-115
-115
-115
-114
-114
-114
-114
-114
-114
-115
-115
-115
-114
-115
-115
-115
-114
-114
-115
-115
-115
-115
-115
-115
-115
-114
-115
-115
-115
-115
-115
-116
-116
-116
-116
-116
-117
-117
-117
-117
-118
-117
-117
-117
-117
-118
-118
-117
-117
-117
-117
-118
-117
-117
-117
-117
-117
-117
-117
-117
-117
-116
-116
-116
-116
-116
-116
-116
-114
-114
-114
-114
-114
-113
-112
-112
-112
-111
-110
-109
-109
-108
-107
-107
-106
-104
-104
-104
-103
-102
-102
-101
-100
-100
-99
-99
-98
-97
-97
-96
-95
-95
-95
-95
-94
-94
-94
-93
-93
-92
-92
-92
-92
-92
-92
-92
-91
-92
-91
-91
-92
-91
-92
-92
-91
-92
-92
-92
-92
-92
-93
-93
-93
-93
-93
-93
-94
-94
-94
-93
-93
-94
-94
-94
-93
-93
-93
-93
-93
-94
-94
-94
-94
-94
-94
-94
-95
-94
-96
-96
-96
-96
-96
-96
-96
-97
-98
-98
-98
-97
-97
-98
-99
-99
-98
-99
-99
-99
-100
-100
-100
-100
-100
-100
-101
-102
-101
-102
-103
-102
-103
-103
-104
-104
-105
-105
-106
-107
-107
-108
-108
-108
-109
-109
-109
-109
-109
-109
-109
-109
-109
-109
-109
-109
-109
-108
-108
-108
-109
-109
-109
-109
-109
-109
-109
-109
-109
-110
-110
-110
-110
-110
-110
-111
-111
-111
-111
-110
-110
-110
-110
-110
-109
-109
-110
-110
-110
-109
-109
-109
-109
-109
-109
-109
-109
-109
-109
-109
-108
-108
-108
-109
-109
-109
-108
-108
-107
-107
-107
-106
-106
-106
-106
-105
-106
-106
-106
-106
-106
-106
-106
-106
-106
-105
-105
-105
-105
-105
-105
-104
-104
-104
-103
-103
-103
-102
-101
-101
-100
-100
-99
-100
-100
-99
-100
-99
-99
-100
-99
-99
-99
-99
-99
-98
-98
-97
-97
-96
-94
-93
-90
-88
-85
-80
-76
-71
-66
-58
-52
-44
-37
-27
-17
-7
3
15
27
40
53
67
81
96
111
127
142
157
172
186
199
212
222
231
240
247
250
253
254
251
246
238
228
216
201
184
165
145
124
103
80
57
33
11
-12
-32
-53
-72
-90
-105
-119
-132
-142
-150
-157
-162
-166
-167
-169
-168
-168
-166
-164
-161
-158
-153
-150
-146
-141
-138
-134
-131
-127
-123
-120
-117
-114
-111
-108
-106
-104
-101
-100
-98
-97
-95
-94
-93
-91
-90
-90
-89
-89
-88
-87
-88
-87
-86
-87
-86
-86
-85
-86
-85
-85
-85
-84
-84
-84
-84
-84
-84
-84
-84
-83
-84
-84
-84
-84
-84
-84
-84
-84
-84
-85
-84
-84
-84
-84
-84
-84
-84
-84
-83
-83
-83
-83
-84
-83
-82
-82
-82
-82
-81
-81
-81
-81
-80
-80
-80
-78
-78
-77
-77
-77
-76
-77
-77
-76
-76
-76
-76
-76
-77
-76
-76
-77
-77
-77
-77
-77
-77
-77
-77
-76
-76
-76
-76
-75
-75
-74
-74
-73
-72
-72
-71
-71
-71
-70
-70
-70
-69
-69
-69
-68
-69
-69
-68
-68
-68
-68
-67
-67
-68
-67
-67
-67
-67
-68
-68
-67
-67
-67
-67
-67
-67
-67
-67
