# Simple Text Format
# Sampling Rate (Hz):= 1200.00
# Resolution:= 12
# Labels:= ECG	aVF
# Age:=	76
# Gender:=	Masculino
-480
-480
-480
-480
-479
-479
-479
-480
-480
-480
-479
-479
-479
-480
-480
-480
-480
-479
-479
-480
-480
-481
-481
-481
-480
-480
-481
-482
-482
-482
-481
-481
-481
-482
-483
-484
-484
-483
-483
-484
-485
-486
-486
-485
-484
-484
-485
-485
-486
-485
-484
-484
-484
-485
-485
-486
-485
-484
-484
-484
-485
-486
-487
-487
-487
-488
-489
-489
-490
-489
-489
-489
-489
-490
-491
-492
-491
-491
-491
-491
-491
-492
-491
-491
-490
-490
-490
-491
-491
-491
-490
-490
-490
-491
-492
-493
-493
-492
-492
-492
-493
-494
-494
-494
-493
-493
-493
-493
-493
-492
-491
-491
-491
-491
-491
-491
-490
-489
-488
-488
-489
-490
-490
-489
-488
-488
-489
-489
-489
-489
-489
-488
-489
-490
-490
-491
-490
-489
-489
-489
-489
-490
-490
-489
-488
-488
-488
-489
-489
-488
-487
-487
-487
-488
-489
-490
-489
-488
-487
-488
-488
-489
-489
-488
-488
-488
-488
-488
-489
-488
-487
-486
-486
-487
-487
-487
-486
-485
-485
-485
-486
-486
-486
-486
-485
-485
-485
-486
-486
-486
-485
-485
-485
-486
-487
-487
-487
-486
-486
-486
-486
-486
-486
-486
-485
-485
-485
-486
-486
-485
-484
-484
-484
-484
-485
-485
-485
-484
-484
-484
-485
-486
-486
-485
-485
-485
-485
-486
-486
-486
-485
-485
-485
-486
-486
-486
-486
-486
-485
-486
-486
-487
-487
-486
-485
-485
-486
-486
-486
-486
-485
-485
-486
-487
-488
-489
-488
-488
-487
-487
-488
-489
-489
-488
-488
-488
-488
-488
-489
-488
-486
-486
-485
-485
-486
-486
-485
-484
-483
-483
-484
-484
-484
-484
-483
-483
-483
-484
-484
-484
-484
-483
-484
-485
-485
-486
-485
-485
-484
-485
-485
-486
-486
-485
-485
-484
-485
-485
-485
-485
-484
-483
-483
-484
-485
-485
-484
-483
-483
-483
-484
-484
-484
-484
-483
-483
-483
-484
-485
-485
-484
-483
-483
-484
-485
-485
-485
-484
-484
-484
-485
-485
-485
-484
-483
-483
-483
-484
-484
-484
-483
-483
-483
-483
-484
-484
-483
-483
-482
-482
-483
-484
-484
-483
-482
-481
-482
-482
-482
-482
-482
-481
-481
-482
-482
-482
-482
-481
-481
-481
-482
-482
-482
-481
-481
-481
-481
-482
-482
-482
-481
-481
-480
-481
-481
-481
-481
-480
-479
-480
-480
-481
-480
-479
-478
-478
-478
-479
-479
-479
-478
-477
-477
-478
-479
-479
-478
-478
-477
-477
-478
-478
-478
-478
-477
-477
-477
-478
-478
-478
-477
-476
-475
-476
-477
-477
-476
-476
-475
-476
-476
-477
-476
-476
-475
-475
-476
-476
-477
-477
-476
-475
-475
-475
-476
-476
-476
-475
-474
-474
-475
-475
-475
-474
-473
-472
-472
-472
-472
-471
-470
-469
-469
-469
-469
-469
-469
-468
-467
-467
-467
-467
-467
-466
-466
-465
-466
-466
-466
-465
-464
-464
-463
-463
-464
-463
-463
-462
-461
-461
-461
-461
-460
-458
-457
-456
-456
-456
-456
-455
-454
-453
-453
-453
-454
-454
-453
-453
-452
-452
-453
-454
-454
-454
-454
-454
-455
-456
-457
-457
-457
-457
-457
-458
-460
-461
-461
-461
-462
-463
-464
-466
-467
-467
-467
-467
-468
-469
-470
-470
-470
-470
-470
-471
-473
-473
-473
-472
-472
-473
-474
-474
-474
-474
-474
-474
-474
-475
-476
-475
-474
-474
-474
-475
-475
-475
-474
-473
-472
-472
-473
-473
-472
-471
-470
-470
-470
-471
-471
-472
-471
-471
-472
-473
-474
-474
-474
-473
-474
-474
-476
-476
-477
-477
-475
-475
-474
-475
-475
-474
-473
-472
-471
-472
-472
-472
-471
-470
-470
-470
-471
-471
-471
-471
-471
-470
-471
-471
-471
-471
-470
-469
-469
-469
-469
-469
-469
-468
-467
-467
-467
-468
-467
-467
-466
-465
-466
-466
-467
-466
-466
-466
-466
-466
-467
-467
-467
-466
-466
-466
-467
-467
-467
-466
-465
-464
-464
-465
-466
-465
-464
-464
-464
-465
-465
-466
-466
-466
-466
-467
-468
-469
-470
-470
-470
-472
-473
-475
-476
-477
-478
-479
-481
-483
-486
-488
-490
-491
-493
-496
-500
-503
-506
-509
-512
-515
-519
-523
-526
-529
-532
-535
-538
-541
-545
-546
-547
-547
-547
-548
-549
-549
-548
-547
-545
-543
-542
-540
-538
-536
-532
-528
-526
-524
-521
-519
-516
-511
-508
-505
-502
-499
-495
-489
-484
-479
-473
-468
-463
-456
-448
-440
-433
-426
-419
-412
-404
-396
-388
-381
-375
-369
-364
-358
-353
-348
-344
-342
-340
-337
-335
-334
-334
-334
-336
-338
-339
-341
-343
-346
-350
-355
-358
-362
-366
-371
-376
-381
-386
-390
-394
-397
-402
-406
-411
-414
-417
-419
-421
-424
-426
-428
-429
-429
-429
-430
-430
-431
-431
-430
-430
-430
-430
-431
-431
-432
-431
-430
-430
-431
-432
-434
-434
-435
-435
-435
-436
-437
-439
-439
-438
-438
-439
-440
-441
-442
-442
-442
-442
-442
-443
-444
-444
-443
-443
-443
-443
-444
-444
-443
-443
-442
-442
-442
-443
-444
-443
-443
-442
-442
-443
-443
-443
-443
-442
-442
-442
-442
-443
-443
-442
-441
-441
-442
-442
-442
-442
-441
-441
-441
-442
-443
-443
-443
-443
-443
-444
-444
-444
-444
-443
-442
-442
-443
-444
-444
-443
-442
-441
-441
-441
-441
-440
-439
-438
-438
-437
-437
-437
-437
-436
-435
-435
-436
-437
-437
-437
-436
-436
-436
-437
-438
-439
-439
-438
-438
-439
-440
-441
-441
-440
-440
-440
-441
-442
-442
-442
-441
-441
-441
-442
-442
-442
-442
-441
-441
-441
-442
-442
-441
-440
-440
-440
-441
-441
-441
-441
-440
-440
-440
-441
-441
-441
-440
-439
-439
-439
-440
-440
-440
-439
-439
-439
-439
-440
-440
-439
-438
-437
-438
-438
-439
-439
-438
-437
-437
-437
-437
-437
-437
-436
-436
-436
-436
-437
-437
-437
-436
-435
-435
-436
-437
-437
-436
-436
-435
-436
-437
-437
-436
-435
-435
-435
-436
-437
-438
-438
-437
-437
-437
-438
-438
-438
-438
-437
-437
-437
-438
-438
-437
-437
-436
-435
-436
-437
-437
-436
-435
-435
-435
-436
-436
-436
-435
-435
-434
-435
-436
-436
-436
-435
-434
-435
-435
-436
-437
-437
-436
-436
-436
-437
-437
-437
-437
-436
-436
-436
-437
-437
-437
-436
-435
-435
-436
-436
-437
-436
-435
-435
-435
-436
-436
-436
-436
-435
-435
-435
-436
-436
-436
-436
-435
-435
-436
-437
-437
-437
-436
-436
-436
-437
-438
-438
-437
-437
-436
-437
-438
-439
-439
-438
-437
-438
-439
-440
-441
-441
-440
-440
-441
-442
-443
-443
-443
-442
-442
-443
-444
-444
-444
-443
-443
-443
-443
-444
-445
-444
-443
-443
-443
-444
-444
-444
-444
-444
-444
-444
-445
-445
-445
-444
-444
-444
-445
-446
-446
-445
-444
-443
-444
-445
-445
-445
-445
-444
-443
-443
-444
-444
-443
-442
-442
-442
-443
-443
-443
-442
-441
-440
-440
-441
-441
-441
-440
-439
-439
-439
-440
-440
-440
-439
-438
-438
-439
-440
-441
-440
-439
-439
-439
-440
-441
-441
-440
-439
-438
-439
-440
-440
-440
-440
-439
-439
-440
-441
-441
-441
-440
-440
-440
-441
-442
-442
-442
-441
-441
-441
-442
-442
-442
-441
-440
-440
-440
-441
-441
-441
-440
-439
-439
-440
-441
-440
-440
-440
-440
-440
-441
-441
-441
-441
-440
-441
-442
-442
-442
-442
-441
-441
-441
-442
-442
-442
-441
-440
-439
-439
-440
-440
-439
-438
-437
-437
-438
-439
-439
-439
-438
-437
-438
-438
-439
-439
-438
-437
-437
-438
-439
-440
-439
-438
-438
-438
-438
-439
-439
-439
-438
-438
-438
-439
-439
-439
-439
-438
-437
-437
-438
-438
-438
-437
-436
-436
-436
-437
-437
-437
-436
-435
-436
-436
-437
-437
-437
-436
-437
-437
-438
-439
-439
-439
-438
-439
-440
-441
-441
-441
-440
-439
-439
-440
-441
-441
-441
-440
-439
-439
-440
-440
-439
-438
-437
-437
-438
-438
-439
-439
-438
-438
-438
-439
-439
-440
-439
-439
-439
-439
-440
-441
-441
-440
-440
-440
-441
-442
-442
-442
-441
-441
-441
-442
-442
-442
-442
-441
-441
-441
-441
-441
-441
-440
-439
-439
-440
-440
-440
-440
-439
-439
-439
-440
-440
-440
-440
-439
-439
-440
-440
-441
-441
-440
-440
-440
-440
-441
-442
-441
-440
-440
-440
-441
-441
-441
-440
-440
-440
-440
-440
-440
-439
-438
-437
-437
-438
-438
-438
-438
-436
-436
-435
-436
-436
-436
-435
-434
-434
-434
-434
-435
-435
-434
-433
-434
-435
-435
-436
-435
-435
-435
-435
-436
-437
-437
-437
-436
-436
-436
-436
-437
-436
-435
-435
-435
-435
-436
-436
-435
-434
-434
-434
-434
-434
-435
-435
-435
-435
-436
-436
-437
-437
-437
-437
-437
-438
-439
-439
-439
-438
-438
-438
-439
-439
-439
-438
-437
-436
-436
-437
-436
-435
-434
-434
-433
-434
-434
-434
-433
-432
-432
-432
-433
-433
-433
-432
-432
-431
-431
-432
-432
-431
-431
-430
-430
-431
-431
-431
-431
-430
-430
-430
-430
-431
-431
-430
-429
-428
-428
-428
-428
-427
-426
-425
-424
-424
-424
-424
-423
-422
-421
-421
-421
-421
-421
-420
-419
-418
-418
-418
-418
-418
-417
-416
-416
-416
-417
-417
-417
-416
-416
-416
-418
-419
-419
-419
-419
-419
-420
-422
-423
-423
-424
-424
-425
-426
-428
-429
-429
-429
-429
-430
-432
-433
-433
-433
-433
-433
-434
-435
-436
-435
-435
-435
-435
-436
-437
-437
-437
-437
-437
-437
-439
-439
-440
-440
-439
-438
-439
-440
-440
-440
-439
-438
-438
-438
-439
-439
-438
-437
-436
-436
-437
-437
-437
-436
-436
-436
-436
-437
-437
-438
-437
-437
-438
-439
-441
-441
-441
-441
-440
-440
-442
-443
-443
-442
-441
-441
-440
-440
-440
-439
-437
-436
-436
-435
-435
-435
-434
-432
-431
-431
-431
-432
-432
-431
-430
-430
-430
-431
-431
-432
-431
-431
-432
-433
-434
-435
-435
-434
-434
-435
-436
-436
-436
-436
-435
-434
-435
-435
-435
-434
-433
-433
-433
-434
-434
-434
-434
-433
-432
-432
-433
-434
-434
-434
-433
-433
-433
-434
-435
-434
-434
-433
-433
-435
-436
-436
-436
-436
-436
-437
-439
-441
-442
-443
-443
-445
-446
-449
-451
-453
-455
-457
-459
-463
-466
-470
-472
-475
-478
-482
-486
-490
-494
-497
-500
-503
-507
-511
-514
-516
-517
-519
-521
-524
-526
-526
-526
-525
-525
-524
-524
-523
-521
-519
-517
-515
-513
-511
-509
-506
-502
-499
-497
-494
-492
-488
-485
-481
-476
-472
-468
-464
-459
-452
-445
-439
-432
-425
-418
-411
-402
-394
-387
-380
-373
-366
-359
-351
-345
-339
-335
-331
-327
-323
-320
-318
-317
-317
-316
-316
-316
-317
-319
-322
-326
-329
-332
-336
-339
-344
-349
-354
-359
-363
-367
-371
-376
-380
-385
-388
-391
-394
-398
-401
-404
-407
-408
-409
-410
-411
-412
-413
-414
-414
-413
-413
-414
-415
-416
-416
-415
-415
-416
-417
-418
-418
-418
-418
-418
-419
-420
-421
-421
-421
-420
-420
-420
-421
-421
-420
-419
-418
-417
-418
-418
-418
-417
-416
-415
-416
-417
-417
-417
-417
-416
-416
-417
-418
-419
-419
-418
-418
-419
-420
-421
-421
-421
-421
-420
-420
-421
-422
-422
-422
-421
-421
-422
-422
-423
-423
-423
-423
-423
-425
-426
-426
-426
-426
-426
-426
-428
-428
-428
-428
-427
-427
-428
-428
-428
-427
-427
-426
-426
-426
-426
-426
-425
-424
-423
-424
-425
-425
-425
-425
-424
-423
-423
-424
-424
-423
-422
-421
-420
-421
-421
-421
-419
-418
-417
-417
-418
-418
-418
-418
-418
-418
-418
-419
-420
-420
-420
-421
-422
-423
-424
-426
-426
-426
-426
-427
-428
-429
-429
-428
-428
-428
-428
-428
-428
-428
-426
-425
-425
-426
-426
-426
-425
-423
-423
-423
-423
-424
-423
-422
-422
-421
-422
-422
-423
-422
-422
-422
-422
-424
-425
-426
-426
-427
-428
-429
-430
-432
-432
-432
-431
-432
-433
-434
-434
-434
-434
-433
-433
-433
-433
-433
-431
-430
-429
-428
-428
-428
-428
-427
-426
-426
-426
-426
-426
-425
-425
-424
-425
-425
-426
-426
-425
-424
-424
-424
-425
-426
-426
-426
-426
-426
-427
-427
-428
-428
-428
-428
-429
-431
-433
-434
-433
-432
-431
-431
-432
-432
-433
-432
-432
-431
-431
-431
-431
-430
-428
-427
-427
-428
-428
-428
-427
-427
-427
-428
-429
-431
-431
-431
-430
-430
-430
-431
-431
-430
-429
-429
-430
-430
-431
-431
-430
-429
-429
-428
-429
-429
-430
-429
-429
-429
-430
-431
-432
-432
-432
-432
-433
-434
-435
-436
-436
-436
-436
-437
-438
-438
-438
-438
-437
-437
-438
-440
-440
-441
-441
-442
-442
-444
-445
-445
-445
-444
-444
-444
-445
-445
-445
-444
-443
-442
-442
-441
-441
-439
-437
-436
-435
-435
-436
-435
-435
-434
-434
-435
-436
-438
-438
-439
-439
-439
-440
-442
-442
-443
-443
-443
-444
-445
-446
-446
-446
-445
-445
-445
-446
-447
-447
-446
-446
-446
-446
-447
-447
-447
-447
-446
-446
-447
-448
-448
-448
-447
-447
-447
-447
-448
-448
-447
-447
-446
-446
-447
-447
-446
-445
-444
-444
-445
-445
-445
-444
-444
-444
-445
-446
-446
-446
-445
-445
-445
-445
-446
-447
-447
-446
-446
-447
-447
-448
-448
-447
-447
-446
-447
-448
-448
-448
-448
-447
-447
-447
-447
-447
-447
-446
-446
-446
-446
-447
-447
-447
-446
-445
-445
-446
-447
-447
-447
-446
-446
-446
-447
-447
-447
-446
-446
-446
-448
-448
-448
-449
-448
-448
-448
-449
-450
-450
-450
-450
-450
-451
-452
-453
-453
-453
-453
-454
-455
-456
-456
-456
-456
-455
-456
-457
-457
-457
-457
-456
-456
-457
-457
-458
-457
-456
-456
-456
-456
-457
-457
-457
-457
-457
-457
-459
-459
-460
-459
-459
-459
-460
-460
-461
-460
-460
-459
-459
-460
-460
-460
-460
-459
-458
-458
-459
-459
-458
-458
-458
-457
-458
-459
-460
-459
-459
-459
-460
-461
-462
-463
-463
-462
-463
-464
-465
-466
-466
-466
-466
-465
-466
-466
-467
-466
-465
-465
-465
-466
-466
-466
-467
-465
-465
-466
-466
-466
-466
-466
-465
-465
-465
-466
-466
-465
-464
-463
-463
-463
-464
-464
-463
-462
-462
-462
-463
-463
-463
-463
-462
-462
-462
-463
-463
-463
-462
-462
-462
-463
-464
-465
-465
-464
-464
-465
-465
-466
-466
-466
-466
-465
-466
-466
-466
-466
-465
-465
-465
-466
-466
-467
-466
-465
-464
-465
-465
-466
-466
-465
-464
-464
-465
-465
-466
-465
-464
-464
-464
-464
-464
-464
-463
-462
-461
-461
-462
-462
-461
-460
-459
-458
-457
-458
-458
-458
-457
-456
-457
-458
-459
-459
-458
-457
-457
-458
-459
-460
-460
-460
-460
-460
-461
-461
-462
-461
-461
-460
-460
-460
-461
-460
-459
-458
-457
-457
-457
-457
-457
-456
-455
-455
-455
-456
-456
-455
-454
-454
-455
-456
-456
-457
-457
-456
-456
-457
-458
-458
-458
-458
-458
-458
-458
-459
-459
-458
-458
-457
-457
-458
-458
-458
-457
-456
-455
-455
-455
-454
-453
-452
-450
-449
-449
-449
-448
-446
-444
-443
-443
-442
-442
-441
-440
-438
-437
-436
-437
-437
-436
-435
-435
-434
-435
-435
-436
-436
-434
-434
-434
-435
-435
-436
-435
-435
-435
-436
-437
-437
-437
-436
-435
-435
-435
-436
-437
-436
-436
-436
-436
-438
-439
-439
-440
-439
-440
-441
-443
-444
-445
-445
-446
-446
-447
-449
-450
-450
-450
-450
-450
-451
-452
-451
-451
-450
-449
-450
-450
-450
-450
-449
-448
-447
-447
-448
-448
-447
-446
-446
-446
-447
-448
-448
-448
-447
-447
-448
-449
-450
-449
-449
-448
-448
-449
-450
-450
-449
-448
-448
-448
-449
-449
-449
-449
-448
-447
-447
-448
-448
-448
-448
-447
-446
-446
-447
-448
-447
-446
-445
-445
-446
-447
-447
-446
-445
-445
-444
-445
-446
-445
-445
-444
-444
-445
-445
-446
-446
-445
-445
-445
-447
-447
-448
-447
-447
-447
-447
-448
-449
-448
-447
-446
-446
-445
-445
-444
-443
-441
-440
-440
-440
-440
-439
-438
-437
-436
-436
-436
-436
-436
-435
-434
-434
-434
-435
-435
-435
-435
-435
-435
-437
-438
-438
-439
-438
-438
-440
-441
-443
-444
-445
-446
-447
-448
-450
-451
-452
-452
-453
-455
-458
-460
-462
-464
-465
-466
-469
-471
-474
-476
-478
-480
-483
-486
-490
-493
-495
-497
-499
-502
-505
-508
-510
-511
-512
-513
-514
-516
-517
-517
-516
-515
-513
-512
-512
-510
-508
-505
-502
-500
-498
-496
-493
-490
-486
-483
-480
-477
-474
-470
-465
-460
-456
-451
-447
-442
-436
-429
-423
-416
-411
-405
-398
-390
-382
-375
-369
-362
-356
-349
-342
-336
-330
-326
-323
-319
-315
-312
-310
-309
-309
-309
-310
-310
-311
-313
-316
-320
-324
-327
-331
-335
-339
-344
-350
-355
-360
-364
-367
-372
-377
-382
-385
-388
-390
-392
-395
-398
-400
-401
-401
-402
-401
-402
-402
-402
-402
-402
-401
-402
-402
-404
-404
-404
-404
-404
-404
-406
-407
-407
-407
-407
-408
-408
-410
-409
-408
-407
-406
-406
-405
-405
-404
-402
-400
-399
-398
-398
-398
-397
-396
-396
-396
-397
-398
-398
-397
-396
-396
-397
-399
-401
-402
-402
-402
-402
-403
-404
-403
-403
-402
-401
-401
-400
-400
-400
-399
-397
-396
-395
-395
-395
-394
-393
-391
-390
-390
-390
-390
-390
-389
-388
-388
-388
-389
-389
-389
-388
-387
-387
-388
-389
-388
-388
-387
-386
-387
-388
-390
-390
-390
-390
-390
-391
-392
-392
-392
-391
-391
-392
-393
-394
-395
-394
-394
-393
-393
-393
-393
-393
-393
-392
-392
-392
-392
-392
-392
-391
-390
-390
-391
-392
-393
-392
-392
-392
-392
-392
-393
-392
-392
-391
-391
-391
-392
-392
-392
-391
-390
-390
-391
-391
-391
-390
-389
-389
-388
-389
-389
-389
-388
-387
-386
-386
-387
-387
-387
-386
-386
-386
-387
-388
-388
-388
-387
-387
-387
-388
-389
-389
-388
-388
-387
-387
-388
-388
-387
-386
-385
-384
-385
-385
-385
-384
-383
-383
-383
-384
-384
-384
-384
-384
-384
-384
-385
-385
-385
-384
-384
-384
-385
-386
-386
-385
-384
-383
-383
-384
-384
-384
-384
-384
-384
-384
-384
-384
-382
-381
-380
-380
-381
-381
-381
-381
-379
-378
-378
-379
-378
-378
-377
-376
-376
-376
-377
-377
-376
-375
-374
-375
-376
-377
-377
-376
-375
-375
-376
-376
-376
-376
-375
-375
-374
-375
-376
-376
-376
-375
-375
-375
-376
-377
-377
-377
-377
-376
-377
-378
-379
-379
-379
-379
-378
-379
-380
-380
-380
-379
-378
-378
-379
-379
-379
-379
-378
-377
-377
-377
-378
-378
-377
-377
-376
-377
-378
-378
-378
-377
-377
-377
-378
-379
-379
-379
-378
-377
-377
-378
-378
-377
-376
-376
-375
-375
-376
-376
-375
-375
-374
-375
-376
-376
-377
-376
-376
-376
-377
-378
-379
-379
-379
-379
-379
-380
-381
-382
-381
-381
-381
-381
-381
-382
-382
-382
-381
-381
-382
-383
-384
-384
-383
-383
-383
-383
-384
-384
-384
-382
-382
-382
-382
-383
-382
-381
-380
-380
-379
-380
-380
-379
-378
-377
-376
-376
-376
-376
-375
-374
-373
-373
-374
-375
-375
-374
-373
-373
-373
-374
-374
-374
-374
-373
-374
-374
-375
-376
-375
-375
-374
-375
-376
-377
-378
-377
-377
-376
-377
-378
-378
-378
-378
-377
-377
-377
-378
-378
-378
-377
-376
-376
-377
-377
-378
-377
-376
-376
-376
-377
-377
-377
-377
-377
-376
-377
-377
-378
-377
-376
-376
-376
-377
-378
-379
-379
-378
-378
-378
-379
-379
-379
-378
-377
-377
-378
-379
-380
-379
-378
-378
-378
-379
-380
-380
-379
-379
-378
-378
-378
-378
-378
-378
-377
-377
-377
-378
-378
-377
-376
-375
-375
-376
-377
-377
-376
-375
-375
-376
-377
-378
-378
-377
-377
-377
-378
-379
-380
-379
-379
-378
-379
-380
-381
-381
-381
-381
-381
-381
-382
-383
-383
-383
-382
-382
-383
-384
-384
-383
-382
-382
-382
-383
-383
-383
-383
-381
-381
-381
-382
-382
-382
-381
-380
-380
-380
-382
-382
-381
-381
-380
-381
-382
-382
-383
-382
-382
-382
-382
-383
-383
-383
-382
-382
-382
-383
-384
-385
-384
-384
-384
-384
-385
-386
-386
-386
-385
-386
-387
-388
-388
-388
-388
-387
-387
-387
-387
-387
-387
-386
-385
-385
-385
-385
-385
-383
-382
-381
-381
-382
-382
-382
-381
-380
-380
-381
-381
-381
-380
-380
-379
-379
-380
-380
-380
-380
-380
-380
-380
-381
-381
-381
-380
-379
-379
-379
-379
-379
-379
-378
-377
-377
-378
-379
-378
-378
-377
-377
-377
-378
-378
-378
-377
-377
-376
-377
-377
-378
-377
-376
-376
-376
-377
-378
-378
-377
-377
-377
-377
-378
-378
-378
-377
-376
-376
-376
-377
-377
-376
-376
-375
-376
-376
-377
-377
-376
-375
-375
-376
-377
-378
-378
-378
-378
-378
-378
-379
-379
-378
-377
-377
-377
-378
-378
-378
-377
-376
-375
-375
-375
-375
-374
-373
-372
-372
-372
-372
-372
-371
-370
-370
-370
-371
-371
-371
-370
-369
-369
-369
-370
-369
-369
-368
-367
-366
-366
-367
-367
-366
-364
-364
-363
-364
-364
-364
-363
-362
-361
-361
-361
-361
-360
-359
-358
-357
-357
-357
-357
-356
-355
-354
-354
-355
-355
-355
-354
-353
-353
-353
-354
-354
-354
-353
-352
-352
-353
-353
-353
-352
-352
-351
-351
-353
-353
-353
-353
-352
-352
-353
-355
-355
-356
-355
-355
-356
-356
-358
-358
-358
-358
-358
-359
-361
-362
-362
-362
-361
-362
-362
-363
-364
-364
-365
-364
-364
-364
-366
-365
-364
-364
-363
-364
-364
-366
-366
-365
-365
-365
-366
-366
-367
-368
-367
-367
-368
-369
-370
-371
-372
-371
-371
-371
-372
-373
-373
-372
-371
-370
-370
-371
-371
-370
-369
-368
-368
-368
-369
-369
-369
-368
-368
-367
-368
-368
-368
-368
-367
-367
-367
-368
-368
-368
-367
-366
-365
-366
-366
-366
-365
-364
-363
-364
-365
-365
-365
-365
-364
-364
-364
-364
-364
-364
-363
-362
-362
-362
-363
-363
-362
-361
-359
-359
-359
-359
-359
-358
-357
-357
-358
-359
-359
-359
-358
-358
-358
-359
-360
-360
-360
-359
-359
-359
-360
-361
-361
-361
-360
-360
-360
-361
-361
-360
-360
-359
-358
-359
-359
-360
-359
-358
-358
-359
-360
-362
-363
-363
-363
-364
-366
-368
-369
-371
-372
-373
-374
-377
-379
-382
-384
-385
-388
-391
-394
-398
-401
-404
-406
-408
-412
-416
-419
-422
-424
-426
-429
-432
-434
-436
-437
-437
-437
-438
-439
-439
-438
-436
-434
-432
-431
-429
-427
-424
-421
-418
-415
-413
-410
-408
-404
-401
-397
-393
-390
-386
-381
-376
-370
-365
-360
-354
-349
-342
-335
-327
-320
-313
-307
-300
-292
-284
-277
-271
-266
-261
-257
-252
-247
-244
-242
-240
-239
-238
-238
-237
-238
-239
-242
-245
-247
-249
-251
-255
-260
-265
-270
-274
-278
-282
-287
-292
-297
-301
-305
-308
-312
-315
-319
-322
-323
-324
-325
-327
-329
-330
-331
-330
-330
-329
-329
-330
-330
-330
-329
-328
-328
-328
-330
-330
-330
-329
-330
-331
-332
-333
-334
-333
-332
-332
-333
-333
-334
-334
-333
-332
-331
-331
-331
-331
-330
-329
-328
-328
-329
-329
-329
-328
-327
-327
-328
-329
-329
-329
-328
-328
-328
-328
-329
-329
-328
-328
-327
-328
-329
-329
-329
-328
-327
-327
-327
-328
-328
-327
-327
-326
-325
-326
-326
-326
-325
-324
-324
-323
-324
-324
-324
-323
-322
-321
-322
-322
-322
-322
-321
-320
-320
-320
-320
-320
-320
-319
-318
-319
-319
-320
-320
-319
-319
-318
-319
-320
-320
-320
-320
-319
-319
-320
-320
-321
-320
-320
-320
-321
-322
-323
-323
-323
-322
-322
-322
-323
-323
-323
-323
-322
-322
-322
-322
-322
-321
-320
-320
-319
-320
-320
-320
-319
-317
-316
-316
-317
-317
-316
-315
-315
-315
-316
-317
-317
-316
-315
-315
-315
-316
-317
-318
-318
-317
-317
-318
-320
-320
-321
-320
-320
-320
-321
-321
-322
-321
-321
-320
-321
-321
-322
-322
-321
-319
-319
-319
-319
-320
-319
-318
-317
-317
-316
-316
-316
-315
-314
-314
-314
-314
-315
-315
-315
-314
-314
-315
-316
-317
-316
-316
-316
-316
-317
-318
-318
-317
-317
-316
-317
-318
-318
-318
-317
-316
-316
-316
-317
-317
-317
-316
-315
-315
-315
-316
-315
-315
-314
-313
-314
-314
-315
-314
-314
-313
-313
-313
-313
-313
-313
-312
-311
-311
-311
-312
-312
-311
-310
-310
-310
-310
-311
-311
-310
-309
-309
-309
-310
-311
-310
-310
-309
-309
-309
-310
-310
-309
-308
-308
-309
-310
-310
-310
-309
-308
-307
-307
-307
-308
-307
-306
-306
-306
-306
-307
-307
-306
-305
-305
-305
-306
-307
-308
-307
-307
-307
-308
-309
-310
-310
-310
-309
-309
-310
-311
-312
-311
-311
-310
-311
-311
-312
-313
-312
-312
-313
-313
-315
-316
-316
-316
-315
-316
-317
-317
-318
-317
-317
-316
-317
-317
-318
-318
-317
-316
-316
-316
-316
-316
-315
-315
-315
-315
-315
-316
-316
-315
-315
-315
-315
-316
-317
-317
-316
-315
-315
-316
-317
-317
-317
-317
-316
-316
-316
-317
-317
-316
-315
-315
-315
-315
-316
-315
-314
-313
-312
-312
-312
-313
-312
-310
-309
-309
-309
-309
-309
-308
-307
-307
-307
-308
-309
-308
-308
-307
-307
-307
-308
-308
-307
-306
-305
-304
-305
-306
-305
-305
-304
-303
-303
-303
-304
-303
-303
-302
-301
-302
-303
-304
-304
-303
-303
-303
-303
-304
-303
-303
-302
-302
-303
-304
-304
-304
-303
-303
-303
-303
-304
-305
-305
-304
-304
-304
-305
-306
-306
-305
-305
-305
-305
-307
-308
-308
-307
-306
-305
-305
-306
-307
-307
-306
-305
-304
-305
-305
-305
-303
-303
-302
-302
-302
-302
-302
-301
-299
-299
-299
-299
-299
-299
-299
-298
-298
-299
-300
-299
-299
-298
-298
-299
-300
-301
-302
-301
-301
-301
-302
-302
-303
-303
-303
-303
-303
-303
-304
-305
-305
-304
-304
-305
-306
-306
-307
-306
-306
-305
-306
-306
-307
-306
-305
-305
-305
-305
-305
-305
-303
-302
-301
-301
-302
-303
-303
-302
-301
-301
-300
-301
-301
-301
-301
-300
-300
-300
-301
-301
-300
-299
-299
-300
-301
-302
-302
-302
-301
-301
-302
-304
-304
-305
-305
-304
-305
-306
-307
-307
-307
-306
-306
-307
-308
-308
-308
-307
-306
-306
-306
-307
-307
-306
-306
-305
-305
-305
-306
-306
-305
-305
-304
-305
-306
-306
-306
-305
-305
-305
-306
-306
-307
-307
-306
-305
-305
-305
-306
-306
-306
-305
-305
-306
-307
-308
-308
-307
-306
-306
-307
-308
-309
-309
-309
-309
-309
-309
-310
-310
-310
-309
-308
-308
-309
-310
-310
-309
-308
-307
-307
-307
-307
-306
-305
-304
-303
-303
-303
-303
-302
-301
-300
-300
-301
-301
-300
-299
-298
-298
-299
-300
-301
-301
-301
-300
-300
-301
-302
-303
-303
-302
-303
-303
-304
-305
-305
-305
-305
-305
-305
-306
-306
-306
-306
-305
-305
-306
-306
-306
-305
-304
-303
-304
-304
-305
-305
-304
-303
-302
-303
-304
-304
-304
-303
-302
-301
-302
-303
-302
-302
-301
-301
-301
-302
-303
-303
-302
-301
-301
-301
-302
-303
-302
-302
-301
-301
-301
-302
-302
-301
-300
-300
-299
-300
-300
-299
-298
-296
-295
-295
-294
-294
-292
-291
-289
-288
-288
-288
-287
-286
-284
-283
-283
-284
-284
-284
-283
-282
-283
-283
-284
-285
-285
-284
-284
-284
-286
-287
-288
-288
-287
-288
-290
-291
-292
-292
-293
-292
-294
-295
-297
-298
-299
-300
-300
-301
-301
-302
-303
-303
-302
-302
-303
-304
-305
-305
-305
-304
-304
-304
-304
-304
-304
-303
-303
-303
-303
-304
-304
-303
-303
-302
-302
-303
-304
-304
-303
-303
-303
-303
-305
-305
-305
-304
-303
-303
-303
-304
-304
-303
-302
-301
-302
-302
-303
-302
-301
-300
-300
-300
-300
-300
-300
-298
-297
-297
-297
-297
-296
-296
-295
-294
-294
-294
-294
-294
-292
-291
-291
-291
-292
-293
-292
-292
-292
-292
-293
-294
-295
-295
-294
-294
-295
-295
-296
-296
-296
-295
-295
-296
-297
-297
-296
-296
-295
-295
-295
-296
-296
-295
-294
-294
-295
-296
-297
-296
-296
-295
-295
-296
-297
-297
-296
-296
-295
-294
-294
-295
-294
-293
-293
-292
-292
-292
-293
-293
-292
-291
-291
-292
-293
-294
-294
-294
-295
-296
-298
-300
-301
-302
-303
-305
-307
-310
-314
-317
-319
-321
-325
-329
-333
-336
-340
-343
-346
-349
-354
-358
-361
-363
-366
-369
-371
-375
-377
-378
-379
-379
-380
-380
-380
-380
-378
-377
-375
-373
-372
-370
-368
-365
-362
-359
-356
-354
-352
-349
-345
-341
-337
-335
-331
-328
-323
-318
-312
-307
-302
-296
-291
-283
-276
-269
-262
-255
-248
-241
-233
-225
-218
-213
-207
-202
-196
-190
-185
-182
-179
-177
-175
-173
-171
-170
-172
-174
-176
-178
-180
-182
-185
-190
-195
-199
-204
-208
-213
-218
-224
-229
-235
-239
-243
-247
-251
-256
-260
-263
-265
-267
-269
-271
-273
-274
-275
-275
-275
-275
-276
-277
-276
-276
-275
-274
-275
-276
-276
-277
-276
-276
-276
-277
-277
-278
-278
-277
-277
-276
-276
-277
-276
-275
-273
-273
-272
-273
-273
-271
-270
-269
-268
-268
-267
-267
-267
-265
-264
-264
-265
-265
-265
-265
-264
-264
-265
-266
-266
-266
-266
-264
-264
-265
-266
-266
-266
-265
-265
-265
-265
-265
-265
-264
-264
-264
-265
-266
-266
-267
-267
-266
-266
-267
-268
-268
-268
-268
-267
-267
-267
-268
-268
-267
-266
-265
-266
-266
-266
-266
-265
-265
-265
-265
-266
-267
-267
-267
-267
-268
-269
-269
-270
-269
-268
-267
-267
-267
-268
-267
-266
-265
-264
-264
-264
-263
-262
-260
-259
-258
-258
-258
-258
-257
-255
-255
-255
-255
-255
-255
-255
-254
-254
-255
-256
-256
-256
-255
-255
-256
-256
-257
-257
-257
-256
-256
-257
-258
-259
-260
-261
-261
-262
-263
-264
-265
-265
-264
-264
-264
-265
-266
-266
-266
-264
-264
-264
-264
-264
-263
-261
-260
-259
-259
-258
-258
-257
-256
-255
-255
-255
-256
-256
-255
-255
-254
-255
-256
-256
-256
-256
-255
-255
-256
-257
-257
-256
-255
-255
-254
-255
-256
-256
-255
-254
-254
-254
-254
-254
-255
-254
-253
-253
-253
-253
-254
-253
-252
-251
-252
-252
-253
-253
-252
-252
-253
-253
-254
-255
-256
-255
-255
-255
-256
-257
-258
-258
-257
-256
-256
-257
-257
-256
-254
-253
-252
-252
-252
-252
-251
-250
-248
-247
-247
-247
-247
-247
-246
-245
-245
-246
-247
-247
-247
-247
-247
-248
-249
-250
-251
-251
-251
-251
-252
-253
-254
-253
-253
-252
-252
-252
-252
-252
-251
-250
-249
-249
-250
-250
-250
-249
-248
-248
-249
-250
-251
-251
-250
-250
-250
-251
-253
-253
-253
-253
-253
-254
-256
-257
-257
-257
-257
-257
-258
-259
-260
-260
-260
-261
-261
-262
-263
-264
-263
-262
-262
-262
-262
-263
-262
-261
-260
-260
-260
-260
-259
-258
-257
-256
-255
-256
-256
-255
-255
-254
-254
-255
-255
-256
-256
-255
-255
-254
-255
-256
-256
-256
-255
-254
-254
-254
-254
-254
-253
-252
-251
-252
-252
-253
-253
-253
-252
-253
-253
-254
-256
-256
-256
-256
-257
-259
-260
-261
-260
-260
-260
-261
-262
-263
-263
-263
-262
-261
-262
-263
-263
-262
-262
-261
-261
-261
-261
-261
-259
-258
-258
-258
-259
-259
-258
-257
-256
-256
-256
-256
-256
-256
-254
-254
-254
-254
-255
-255
-254
-254
-253
-254
-255
-255
-255
-254
-253
-253
-254
-255
-255
-254
-254
-253
-254
-254
-255
-254
-253
-253
-252
-253
-253
-253
-253
-251
-250
-249
-249
-250
-249
-248
-247
-247
-246
-247
-247
-247
-246
-245
-245
-245
-246
-247
-248
-247
-247
-248
-249
-250
-251
-251
-251
-252
-252
-254
-255
-255
-255
-254
-254
-255
-256
-257
-257
-257
-256
-256
-257
-257
-257
-257
-256
-255
-255
-255
-255
-255
-254
-252
-252
-252
-252
-252
-252
-251
-250
-250
-251
-252
-252
-252
-251
-251
-251
-251
-252
-252
-252
-251
-251
-252
-253
-253
-253
-253
-252
-252
-253
-253
-253
-253
-252
-251
-251
-251
-251
-251
-250
-249
-248
-248
-248
-248
-247
-246
-244
-244
-244
-245
-245
-244
-243
-243
-243
-244
-245
-245
-245
-244
-244
-246
-247
-248
-249
-249
-249
-250
-251
-253
-254
-254
-253
-253
-254
-255
-255
-255
-254
-253
-253
-253
-253
-253
-253
-251
-250
-250
-250
-250
-250
-249
-248
-248
-248
-248
-249
-249
-248
-247
-246
-246
-247
-247
-246
-245
-245
-245
-245
-246
-246
-245
-244
-243
-243
-244
-244
-244
-243
-242
-242
-243
-244
-244
-245
-244
-243
-243
-244
-245
-246
-245
-244
-244
-244
-245
-247
-246
-246
-246
-246
-247
-248
-249
-249
-248
-247
-247
-249
-250
-250
-250
-249
-248
-248
-248
-249
-248
-248
-247
-246
-247
-248
-248
-247
-247
-246
-246
-246
-246
-246
-245
-244
-243
-242
-242
-242
-241
-240
-238
-238
-238
-238
-237
-236
-235
-234
-233
-233
-233
-233
-232
-232
-231
-232
-232
-233
-233
-233
-232
-232
-234
-235
-237
-237
-237
-236
-237
-238
-239
-239
-239
-238
-238
-238
-238
-238
-237
-236
-235
-234
-233
-234
-233
-232
-230
-229
-227
-227
-227
-227
-227
-226
-225
-224
-224
-224
-224
-223
-221
-221
-221
-221
-221
-220
-219
-218
-218
-218
-218
-218
-217
-216
-216
-216
-217
-218
-218
-218
-217
-218
-219
-221
-222
-223
-224
-224
-225
-227
-228
-229
-229
-229
-229
-230
-231
-232
-232
-232
-231
-232
-233
-234
-234
-234
-233
-232
-233
-233
-234
-234
-234
-234
-233
-233
-234
-234
-235
-234
-233
-233
-233
-233
-234
-234
-233
-232
-232
-232
-233
-233
-233
-232
-232
-232
-234
-234
-234
-234
-233
-234
-235
-235
-236
-236
-236
-235
-235
-235
-236
-236
-235
-234
-232
-232
-231
-231
-230
-229
-228
-228
-227
-228
-228
-228
-226
-225
-225
-226
-227
-228
-228
-228
-228
-229
-230
-231
-231
-230
-230
-230
-231
-231
-231
-231
-230
-229
-229
-229
-230
-230
-229
-228
-227
-227
-227
-227
-227
-225
-224
-224
-224
-224
-225
-224
-223
-222
-222
-222
-222
-222
-221
-220
-220
-220
-220
-221
-221
-221
-220
-220
-221
-222
-223
-222
-222
-222
-223
-224
-225
-226
-226
-226
-226
-227
-228
-229
-230
-230
-230
-231
-232
-234
-236
-237
-238
-239
-241
-244
-247
-251
-253
-256
-258
-262
-266
-270
-273
-276
-279
-282
-286
-290
-294
-297
-299
-300
-302
-304
-306
-308
-308
-307
-307
-306
-306
-306
-305
-303
-300
-298
-296
-294
-291
-288
-284
-281
-277
-275
-272
-269
-264
-260
-255
-251
-247
-243
-238
-232
-226
-220
-215
-209
-203
-195
-188
-180
-173
-166
-160
-154
-147
-139
-133
-127
-123
-118
-114
-109
-105
-102
-101
-101
-101
-101
-102
-102
-104
-107
-110
-114
-117
-120
-123
-128
-133
-138
-143
-147
-150
-155
-160
-164
-169
-173
-176
-178
-182
-185
-188
-190
-192
-193
-194
-195
-196
-198
-197
-197
-196
-195
-195
-196
-196
-195
-194
-193
-193
-193
-193
-193
-192
-191
-191
-191
-192
-192
-192
-192
-191
-191
-192
-194
-194
-194
-194
-193
-193
-194
-195
-196
-196
-195
-196
-196
-197
-198
-198
-197
-196
-195
-196
-196
-197
-196
-196
-195
-195
-196
-196
-196
-195
-194
-193
-192
-192
-193
-192
-191
-191
-191
-191
-192
-192
-192
-192
-192
-193
-194
-196
-197
-197
-196
-195
-196
-196
-197
-197
-196
-196
-196
-196
-196
-196
-195
-194
-193
-192
-193
-193
-193
-193
-191
-191
-190
-191
-191
-191
-190
-190
-190
-190
-190
-191
-190
-190
-189
-189
-189
-189
-189
-188
-187
-187
-187
-188
-188
-188
-187
-186
-186
-186
-187
-187
-186
-185
-185
-185
-185
-186
-186
-186
-185
-185
-186
-186
-188
-189
-189
-189
-189
-190
-192
-193
-193
-193
-193
-193
-194
-195
-196
-195
-195
-195
-195
-196
-196
-194
-193
-191
-190
-190
-190
-191
-190
-189
-189
-189
-190
-191
-191
-191
-190
-189
-189
-190
-190
-190
-189
-189
-189
-189
-190
-190
-190
-190
-189
-188
-188
-188
-187
-185
-184
-183
-183
-184
-184
-184
-183
-182
-182
-183
-184
-184
-184
-184
-183
-183
-184
-185
-185
-186
-186
-186
-188
-190
-191
-191
-190
-189
-189
-189
-190
-190
-190
-189
-188
-188
-188
-189
-188
-187
-187
-185
-185
-185
-185
-184
-183
-182
-182
-182
-182
-182
-182
-181
-180
-179
-180
-180
-181
-180
-180
-179
-179
-181
-181
-181
-181
-180
-181
-182
-183
-184
-184
-184
-184
-184
-185
-186
-186
-186
-186
-185
-186
-186
-187
-186
-185
-184
-184
-185
-185
-186
-186
-185
-185
-185
-186
-187
-187
-187
-186
-186
-186
-187
-188
-188
-187
-187
-186
-187
-188
-188
-187
-187
-186
-186
-186
-187
-187
-187
-187
-186
-187
-187
-188
-188
-187
-187
-187
-189
-190
-191
-192
-191
-191
-192
-193
-194
-195
-195
-194
-194
-194
-195
-196
-196
-195
-195
-195
-195
-195
-195
-195
-194
-193
-193
-193
-194
-194
-193
-192
-191
-191
-192
-192
-192
-191
-190
-190
-191
-191
-191
-191
-190
-189
-189
-190
-191
-191
-191
-191
-191
-192
-193
-192
-192
-191
-191
-191
-191
-191
-192
-191
-190
-189
-189
-189
-189
-188
-187
-186
-185
-185
-186
-186
-186
-185
-185
-185
-186
-188
-189
-189
-189
-188
-189
-190
-191
-191
-191
-191
-190
-191
-191
-192
-192
-191
-190
-190
-191
-192
-192
-191
-190
-189
-189
-190
-191
-191
-190
-189
-189
-190
-191
-191
-191
-190
-190
-190
-190
-191
-191
-191
-191
-191
-191
-192
-193
-193
-193
-192
-192
-192
-193
-193
-193
-192
-192
-192
-193
-195
-196
-196
-196
-196
-196
-197
-198
-198
-197
-197
-196
-196
-196
-196
-195
-194
-192
-191
-191
-192
-192
-191
-190
-189
-189
-190
-191
-191
-191
-192
-193
-194
-196
-197
-198
-198
-198
-198
-200
-201
-202
-202
-201
-200
-200
-200
-200
-200
-199
-199
-198
-198
-198
-197
-196
-194
-193
-193
-192
-193
-193
-193
-191
-191
-191
-192
-193
-193
-193
-193
-194
-194
-196
-198
-199
-199
-199
-200
-202
-203
-204
-205
-204
-204
-205
-205
-205
-204
-203
-201
-200
-199
-199
-198
-197
-195
-193
-192
-191
-191
-190
-190
-188
-187
-187
-187
-188
-188
-187
-187
-187
-188
-190
-191
-192
-192
-193
-195
-196
-198
-199
-199
-198
-199
-200
-201
-202
-202
-203
-202
-202
-202
-202
-202
-201
-200
-199
-199
-199
-200
-200
-199
-198
-197
-197
-198
-198
-198
-198
-197
-196
-196
-197
-197
-197
-196
-195
-195
-195
-195
-195
-195
-195
-194
-195
-195
-196
-196
-196
-196
-196
-196
-198
-199
-199
-198
-198
-198
-198
-198
-199
-198
-197
-196
-197
-197
-197
-197
-196
-195
-194
-193
-193
-193
-192
-191
-190
-190
-191
-191
-191
-190
-189
-189
-189
-190
-190
-190
-189
-188
-188
-188
-188
-188
-188
-186
-185
-185
-185
-186
-186
-186
-185
-184
-185
-185
-186
-186
-186
-185
-185
-186
-187
-188
-187
-187
-186
-186
-187
-187
-188
-187
-186
-185
-185
-185
-184
-183
-181
-179
-178
-177
-177
-177
-177
-176
-175
-176
-176
-177
-177
-176
-175
-175
-176
-177
-178
-178
-178
-178
-178
-178
-178
-179
-178
-177
-175
-175
-175
-175
-175
-174
-172
-170
-169
-169
-169
-168
-167
-166
-165
-164
-165
-165
-165
-164
-163
-164
-165
-167
-167
-167
-167
-167
-169
-171
-172
-173
-174
-175
-175
-177
-178
-180
-180
-181
-181
-182
-183
-185
-186
-186
-187
-187
-188
-189
-190
-191
-191
-190
-189
-190
-190
-190
-190
-189
-187
-186
-187
-186
-186
-185
-184
-183
-183
-183
-184
-185
-185
-186
-186
-188
-190
-192
-192
-192
-191
-192
-193
-194
-195
-195
-195
-194
-194
-194
-194
-192
-190
-188
-186
-185
-184
-184
-182
-180
-179
-178
-178
-178
-178
-178
-178
-177
-178
-179
-180
-181
-181
-182
-182
-183
-184
-185
-186
-186
-186
-187
-189
-190
-190
-190
-190
-189
-189
-191
-192
-192
-191
-190
-189
-189
-189
-189
-188
-187
-186
-185
-185
-185
-185
-184
-182
-181
-180
-180
-180
-179
-178
-177
-177
-177
-177
-177
-176
-175
-174
-173
-173
-174
-173
-173
-171
-171
-171
-172
-172
-172
-172
-172
-172
-173
-175
-177
-177
-178
-180
-182
-184
-187
-190
-192
-193
-196
-200
-203
-207
-211
-214
-216
-219
-223
-227
-231
-234
-236
-239
-242
-245
-249
-251
-253
-254
-255
-256
-258
-259
-260
-259
-257
-256
-255
-254
-252
-249
-246
-243
-240
-237
-235
-232
-228
-223
-220
-217
-214
-211
-207
-202
-197
-191
-186
-181
-176
-169
-163
-156
-149
-143
-137
-129
-121
-113
-104
-98
-91
-85
-78
-72
-66
-61
-57
-55
-52
-49
-47
-45
-45
-46
-47
-48
-49
-50
-52
-54
-58
-62
-65
-68
-72
-75
-80
-85
-90
-93
-97
-100
-104
-109
-114
-117
-120
-123
-126
-129
-132
-135
-137
-138
-139
-140
-141
-142
-142
-142
-141
-141
-141
-142
-143
-143
-142
-141
-140
-140
-140
-141
-140
-139
-138
-138
-138
-138
-139
-138
-137
-137
-137
-137
-137
-137
-136
-135
-134
-134
-134
-134
-134
-134
-133
-132
-132
-132
-132
-132
-131
-130
-130
-130
-131
-131
-131
-130
-130
-131
-132
-133
-133
-133
-132
-131
-132
-132
-132
-132
-132
-131
-131
-132
-132
-132
-132
-130
-130
-130
-131
-131
-130
-130
-128
-127
-127
-127
-128
-128
-127
-127
-126
-126
-127
-126
-126
-125
-124
-124
-124
-125
-125
-124
-123
-123
-123
-123
-122
-122
-120
-120
-119
-120
-121
-121
-120
-119
-119
-119
-119
-120
-120
-119
-118
-118
-119
-119
-120
-119
-118
-117
-118
-118
-120
-120
-120
-119
-118
-118
-119
-120
-120
-120
-120
-120
-120
-121
-121
-120
-119
-117
-116
-116
-116
-116
-115
-113
-113
-112
-113
-113
-112
-111
-109
-108
-108
-108
-108
-107
-106
-105
-105
-106
-107
-107
-107
-106
-106
-106
-106
-106
-105
-105
-104
-104
-104
-105
-105
-104
-103
-103
-102
-103
-103
-103
-102
-100
-100
-100
-101
-102
-101
-101
-101
-100
-100
-101
-101
-100
-99
-97
-97
-98
-98
-98
-97
-96
-95
-95
-95
-96
-95
-94
-92
-91
-91
-91
-92
-91
-90
-89
-89
-90
-91
-90
-89
-88
-87
-88
-88
-89
-89
-88
-87
-87
-88
-89
-89
-89
-88
-87
-87
-88
-89
-89
-88
-88
-88
-88
-89
-90
-90
-89
-89
-89
-89
-89
-90
-90
-90
-89
-90
-92
-93
-93
-92
-91
-90
-90
-91
-91
-90
-89
-88
-88
-88
-88
-88
-87
-85
-83
-83
-84
-85
-85
-85
-85
-84
-84
-85
-86
-86
-86
-86
-86
-87
-89
-89
-88
-87
-86
-87
-87
-87
-87
-86
-85
-84
-83
-83
-83
-83
-81
-80
-80
-80
-80
-80
-80
-78
-77
-76
-77
-76
-76
-75
-74
-73
-73
-74
-75
-74
-73
-72
-71
-71
-71
-71
-71
-70
-70
-71
-73
-75
-76
-76
-76
-76
-78
-80
-82
-84
-84
-84
-84
-85
-86
-87
-87
-86
-86
-86
-86
-87
-86
-85
-83
-82
-82
-82
-82
-81
-79
-78
-77
-77
-77
-78
-77
-76
-76
-76
-78
-78
-78
-78
-77
-77
-78
-79
-80
-80
-80
-80
-80
-80
-81
-82
-81
-80
-80
-80
-81
-82
-82
-81
-80
-80
-80
-81
-81
-81
-80
-79
-79
-80
-80
-81
-80
-79
-79
-79
-80
-81
-81
-80
-79
-78
-78
-78
-79
-79
-78
-77
-76
-77
-77
-77
-76
-75
-74
-74
-75
-76
-76
-76
-75
-74
-74
-75
-75
-75
-75
-74
-74
-75
-76
-77
-77
-76
-76
-77
-79
-79
-79
-79
-78
-78
-79
-80
-81
-82
-81
-80
-80
-80
-80
-80
-79
-78
-77
-77
-78
-78
-79
-78
-77
-76
-77
-78
-78
-79
-78
-78
-78
-79
-80
-80
-80
-79
-79
-80
-81
-82
-81
-80
-79
-79
-80
-80
-80
-80
-79
-78
-78
-78
-78
-78
-78
-77
-76
-76
-77
-78
-78
-78
-77
-77
-78
-79
-80
-80
-80
-80
-81
-81
-83
-84
-83
-83
-82
-83
-84
-85
-86
-85
-85
-84
-85
-86
-86
-86
-85
-84
-83
-83
-84
-85
-84
-83
-83
-83
-84
-85
-86
-85
-85
-85
-86
-87
-89
-89
-88
-88
-88
-88
-89
-89
-89
-88
-88
-88
-89
-90
-90
-90
-89
-89
-90
-91
-91
-92
-91
-91
-91
-91
-92
-93
-92
-92
-91
-92
-93
-94
-95
-94
-93
-93
-94
-95
-95
-95
-95
-94
-94
-95
-95
-96
-95
-94
-94
-94
-95
-95
-95
-95
-94
-93
-93
-94
-94
-94
-93
-92
-92
-92
-93
-93
-93
-92
-92
-93
-94
-95
-96
-95
-95
-95
-96
-97
-98
-98
-97
-97
-97
-97
-98
-98
-97
-96
-95
-95
-96
-97
-97
-96
-95
-94
-95
-95
-96
-96
-96
-95
-95
-95
-96
-97
-97
-96
-95
-96
-97
-98
-98
-98
-97
-96
-97
-98
-100
-100
-100
-101
-102
-104
-106
-107
-108
-108
-108
-109
-110
-111
-111
-110
-109
-108
-108
-108
-107
-106
-103
-101
-99
-97
-95
-93
-91
-88
-86
-84
-84
-83
-83
-82
-80
-79
-79
-80
-81
-80
-79
-78
-78
-78
-79
-79
-78
-77
-76
-77
-77
-78
-77
-76
-75
-74
-74
-74
-74
-74
-73
-72
-72
-73
-74
-75
-75
-74
-75
-76
-77
-79
-81
-82
-82
-83
-85
-87
-89
-90
-90
-90
-91
-92
-94
-95
-95
-94
-94
-95
-96
-98
-98
-97
-96
-96
-97
-97
-98
-98
-96
-96
-95
-96
-96
-96
-95
-94
-93
-94
-94
-95
-95
-94
-93
-92
-92
-93
-93
-93
-93
-92
-92
-92
-93
-93
-93
-92
-92
-92
-93
-94
-94
-94
-93
-93
-94
-96
-96
-97
-96
-96
-96
-97
-98
-98
-98
-97
-97
-98
-99
-100
-100
-100
-99
-99
-99
-100
-101
-101
-101
-100
-100
-101
-102
-102
-101
-99
-99
-99
-100
-101
-101
-101
-100
-100
-100
-101
-101
-101
-100
-99
-99
-99
-100
-101
-100
-99
-99
-99
-100
-101
-101
-100
-99
-99
-100
-101
-101
-101
-100
-100
-99
-100
-101
-102
-101
-101
-100
-101
-102
-103
-103
-102
-101
-101
-102
-103
-104
-105
-105
-105
-106
-107
-110
-111
-112
-113
-114
-117
-121
-124
-127
-130
-133
-136
-140
-145
-149
-153
-156
-159
-164
-168
-172
-175
-177
-178
-180
-182
-185
-187
-188
-188
-187
-185
-185
-185
-183
-181
-178
-175
-172
-170
-168
-165
-160
-156
-152
-149
-147
-144
-140
-136
-131
-126
-122
-119
-115
-109
-103
-96
-91
-85
-79
-74
-66
-59
-52
-45
-39
-34
-27
-20
-13
-7
-3
0
3
7
11
14
16
16
16
16
16
16
15
12
9
5
1
0
-3
-7
-12
-17
-23
-27
-31
-34
-38
-43
-47
-51
-54
-56
-59
-62
-66
-69
-71
-72
-73
-74
-76
-77
-78
-77
-77
-76
-75
-75
-75
-75
-74
-73
-72
-73
-73
-74
-73
-72
-71
-71
-72
-73
-74
-74
-74
-74
-75
-76
-78
-79
-79
-79
-79
-80
-82
-84
-84
-84
-84
-84
-86
-87
-87
-87
-86
-86
-85
-86
-87
-87
-87
-85
-84
-85
-85
-85
-85
-84
-83
-83
-84
-84
-84
-84
-83
-82
-82
-82
-83
-83
-82
-82
-81
-81
-83
-83
-83
-83
-82
-82
-84
-85
-86
-87
-87
-86
-86
-87
-88
-89
-89
-88
-89
-90
-92
-92
-93
-92
-91
-91
-91
-92
-92
-92
-91
-91
-90
-91
-91
-91
-91
-90
-89
-90
-91
-91
-91
-90
-89
-89
-90
-91
-91
-91
-90
-89
-89
-90
-91
-91
-90
-89
-89
-90
-91
-91
-92
-91
-90
-90
-91
-92
-92
-92
-91
-91
-91
-92
-93
-93
-93
-92
-92
-92
-94
-95
-95
-94
-94
-94
-95
-97
-98
-97
-97
-96
-96
-97
-98
-99
-98
-97
-97
-98
-99
-100
-100
-100
-99
-99
-100
-101
-102
-102
-101
-100
-100
-101
-102
-102
-101
-100
-100
-100
-101
-101
-101
-100
-99
-98
-99
-100
-100
-100
-99
-98
-98
-99
-100
-100
-99
-98
-98
-98
-99
-100
-100
-99
-99
-99
-100
-101
-102
-102
-101
-100
-100
-101
-102
-102
-102
-101
-102
-103
-104
-105
-105
-104
-103
-103
-104
-104
-104
-104
-103
-102
-102
-102
-103
-102
-101
-99
-98
-98
-99
-99
-99
-98
-97
-97
-97
-99
-99
-99
-99
-98
-99
-100
-101
-102
-102
-101
-101
-102
-103
-103
-103
-103
-102
-101
-102
-102
-102
-102
-101
-100
-99
-100
-101
-101
-100
-99
-98
-99
-100
-101
-101
-100
-100
-101
-102
-104
-105
-105
-105
-106
-106
-108
-109
-110
-109
-109
-108
-109
-110
-111
-111
-110
-110
-110
-110
-111
-111
-111
-109
-108
-108
-109
-109
-109
-108
-107
-107
-107
-108
-109
-109
-109
-108
-107
-108
-109
-109
-108
-108
-108
-107
-108
-109
-109
-108
-107
-108
-109
-110
-111
-112
-111
-110
-110
-111
-112
-113
-113
-112
-111
-111
-112
-112
-112
-111
-110
-109
-110
-110
-110
-110
-109
-108
-107
-107
-108
-109
-108
-108
-108
-108
-109
-110
-110
-109
-109
-108
-108
-109
-109
-109
-108
-107
-107
-107
-107
-108
-106
-105
-104
-103
-103
-104
-103
-102
-101
-100
-101
-101
-102
-102
-101
-100
-100
-100
-102
-102
-102
-101
-101
-101
-102
-103
-103
-103
-102
-102
-104
-105
-106
-107
-107
-106
-107
-108
-109
-110
-110
-110
-110
-110
-111
-112
-112
-111
-110
-110
-110
-111
-111
-111
-109
-107
-107
-107
-107
-107
-106
-104
-103
-103
-103
-103
-103
-102
-101
-101
-101
-102
-102
-103
-102
-101
-101
-102
-104
-104
-105
-104
-104
-105
-106
-106
-107
-107
-107
-107
-108
-109
-110
-111
-110
-110
-110
-111
-112
-112
-112
-111
-111
-110
-111
-112
-111
-110
-109
-109
-109
-109
-109
-109
-108
-107
-107
-107
-108
-107
-107
-106
-106
-106
-107
-107
-107
-107
-106
-106
-107
-108
-108
-108
-108
-107
-108
-108
-109
-108
-108
-107
-107
-107
-108
-108
-108
-108
-106
-106
-106
-107
-107
-107
-106
-105
-104
-105
-106
-106
-106
-106
-105
-105
-106
-107
-107
-106
-106
-106
-106
-107
-107
-107
-105
-104
-104
-105
-105
-105
-105
-104
-103
-103
-104
-105
-105
-104
-103
-103
-104
-106
-107
-107
-107
-107
-107
-108
-109
-109
-109
-109
-108
-109
-109
-110
-110
-109
-108
-108
-109
-109
-110
-110
-109
-108
-109
-109
-110
-111
-111
-110
-109
-110
-110
-111
-111
-111
-111
-111
-112
-114
-114
-114
-114
-113
-113
-113
-114
-114
-113
-112
-111
-110
-110
-109
-109
-107
-105
-104
-103
-103
-102
-101
-99
-98
-97
-97
-97
-97
-95
-94
-93
-93
-94
-94
-94
-93
-92
-92
-93
-94
-95
-94
-94
-94
-95
-97
-98
-99
-99
-99
-99
-100
-101
-102
-103
-102
-102
-102
-103
-105
-105
-105
-104
-103
-103
-105
-106
-106
-107
-106
-106
-107
-108
-110
-110
-110
-109
-108
-109
-109
-109
-108
-106
-104
-103
-103
-103
-101
-99
-96
-94
-92
-91
-90
-88
-86
-83
-82
-82
-83
-82
-82
-81
-80
-80
-80
-82
-82
-82
-82
-82
-82
-84
-84
-84
-83
-82
-81
-82
-83
-84
-83
-82
-81
-80
-80
-81
-81
-80
-79
-79
-79
-80
-82
-82
-83
-84
-85
-87
-89
-92
-94
-95
-95
-97
-100
-102
-104
-105
-106
-107
-107
-109
-110
-111
-110
-109
-108
-108
-109
-109
-108
-107
-105
-105
-105
-106
-105
-105
-103
-102
-102
-102
-102
-102
-100
-99
-99
-99
-100
-100
-100
-99
-98
-98
-99
-99
-99
-99
-98
-98
-98
-99
-100
-100
-99
-98
-98
-99
-100
-101
-101
-100
-99
-99
-100
-100
-100
-100
-99
-99
-99
-100
-100
-100
-99
-98
-98
-99
-100
-100
-101
-100
-99
-99
-100
-102
-102
-102
-101
-101
-101
-103
-103
-104
-103
-103
-102
-104
-105
-106
-106
-104
-103
-103
-104
-105
-105
-104
-104
-103
-103
-104
-105
-104
-102
-101
-101
-101
-102
-103
-103
-101
-101
-101
-101
-103
-103
-103
-103
-103
-105
-106
-108
-109
-109
-109
-110
-111
-113
-115
-115
-115
-114
-116
-117
-119
-120
-121
-121
-121
-122
-123
-125
-127
-127
-128
-130
-134
-138
-142
-146
-148
-151
-154
-159
-163
-166
-169
-170
-172
-174
-177
-179
-179
-178
-177
-176
-176
-176
-174
-172
-169
-166
-164
-162
-159
-156
-153
-149
-144
-141
-138
-135
-131
-126
-120
-116
-112
-107
-102
-96
-88
-81
-74
-68
-61
-55
-47
-39
-32
-25
-19
-14
-8
-1
4
8
11
13
15
17
20
21
22
21
20
18
17
16
14
11
7
3
0
-3
-6
-11
-16
-21
-26
-30
-34
-37
-41
-46
-50
-54
-56
-57
-59
-62
-64
-66
-66
-66
-66
-66
-67
-67
-67
-67
-65
-64
-63
-64
-65
-65
-64
-63
-63
-63
-64
-65
-65
-64
-63
-63
-64
-65
-66
-65
-65
-64
-65
-66
-67
-67
-68
-68
-67
-68
-69
-70
-71
-71
-70
-71
-72
-74
-75
-76
-75
-75
-76
-78
-80
-80
-80
-79
-79
-78
-79
-80
-80
-79
-79
-79
-80
-81
-80
-79
-78
-76
-76
-76
-76
-76
-75
-74
-73
-73
-73
-74
-73
-71
-70
-70
-70
-70
-71
-70
-69
-67
-67
-68
-68
-68
-68
-68
-68
-68
-69
-70
-70
-69
-69
-70
-71
-73
-74
-75
-74
-74
-75
-77
-79
-79
-80
-80
-80
-81
-83
-84
-84
-84
-84
-84
-85
-87
-88
-88
-87
-86
-86
-87
-88
-88
-88
-87
-85
-85
-85
-85
-84
-83
-82
-81
-82
-83
-83
-83
-82
-81
-82
-82
-84
-84
-84
-83
-83
-83
-84
-84
-84
-83
-81
-81
-81
-81
-81
-79
-77
-75
-74
-74
-73
-72
-71
-70
-69
-69
-70
-71
-71
-71
-71
-72
-74
-75
-76
-77
-77
-77
-78
-80
-81
-82
-82
-82
-81
-81
-82
-82
-81
-79
-78
-78
-78
-78
-78
-77
-76
-75
-75
-76
-77
-77
-77
-76
-75
-75
-77
-78
-78
-78
-77
-78
-79
-80
-81
-80
-79
-78
-78
-79
-79
-79
-78
-77
-77
-77
-77
-77
-76
-75
-73
-73
-74
-74
-75
-74
-74
-73
-73
-74
-75
-75
-74
-73
-72
-72
-73
-74
-74
-73
-71
-71
-72
-73
-73
-73
-72
-71
-71
-72
-72
-73
-72
-72
-71
-72
-73
-74
-74
-73
-73
-74
-75
-77
-78
-78
-78
-77
-78
-79
-80
-80
-80
-79
-80
-80
-81
-82
-81
-80
-79
-79
-80
-81
-81
-80
-79
-78
-78
-79
-80
-80
-78
-78
-77
-77
-78
-78
-78
-76
-76
-76
-77
-79
-80
-80
-79
-79
-80
-82
-84
-85
-85
-85
-85
-87
-88
-90
-91
-90
-90
-91
-92
-94
-94
-93
-92
-90
-90
-90
-91
-91
-89
-88
-86
-85
-85
-85
-83
-81
-79
-78
-79
-80
-80
-79
-78
-77
-77
-79
-79
-80
-80
-79
-80
-81
-82
-83
-84
-84
-83
-85
-87
-89
-90
-90
-90
-89
-90
-92
-93
-93
-93
-92
-92
-93
-94
-95
-94
-93
-92
-92
-93
-93
-92
-91
-88
-86
-85
-84
-84
-83
-82
-79
-78
-77
-77
-77
-75
-73
-72
-71
-72
-73
-73
-73
-72
-72
-73
-74
-75
-76
-76
-75
-76
-76
-78
-79
-78
-77
-77
-77
-79
-81
-81
-81
-80
-79
-79
-80
-81
-81
-80
-79
-78
-78
-78
-78
-78
-76
-75
-75
-76
-77
-77
-77
-76
-75
-76
-78
-79
-80
-80
-80
-81
-82
-84
-85
-85
-84
-83
-84
-85
-86
-87
-86
-86
-85
-86
-87
-87
-87
-86
-84
-84
-84
-84
-85
-85
-83
-82
-82
-83
-83
-83
-83
-81
-80
-80
-80
-81
-80
-79
-79
-78
-79
-79
-80
-80
-79
-78
-79
-80
-81
-81
-81
-80
-80
-81
-82
-83
-84
-83
-83
-83
-84
-85
-87
-87
-87
-86
-87
-88
-90
-91
-91
-90
-90
-91
-92
-93
-93
-93
-92
-93
-94
-95
-96
-95
-94
-93
-93
-94
-95
-95
-95
-94
-93
-94
-94
-95
-94
-93
-93
-92
-93
-94
-95
-95
-94
-93
-93
-94
-94
-94
-93
-92
-91
-91
-91
-91
-90
-89
-86
-85
-84
-83
-83
-82
-80
-79
-79
-80
-81
-82
-81
-81
-80
-82
-84
-85
-86
-86
-85
-86
-86
-87
-88
-88
-87
-86
-86
-87
-87
-88
-87
-86
-86
-86
-87
-87
-88
-88
-87
-87
-88
-90
-91
-91
-90
-90
-91
-91
-93
-94
-93
-92
-92
-92
-93
-94
-94
-93
-92
-91
-91
-92
-93
-92
-91
-90
-90
-90
-91
-91
-91
-90
-89
-89
-89
-90
-90
-88
-87
-86
-87
-88
-88
-88
-87
-86
-87
-88
-90
-92
-92
-92
-93
-93
-95
-96
-96
-96
-95
-95
-96
-98
-98
-98
-97
-96
-96
-97
-97
-97
-97
-95
-94
-94
-95
-96
-96
-95
-94
-93
-93
-94
-93
-92
-90
-89
-88
-87
-88
-87
-85
-83
-81
-81
-80
-80
-80
-78
-78
-78
-78
-79
-80
-80
-79
-78
-78
-80
-81
-82
-81
-81
-81
-81
-82
-83
-82
-81
-81
-80
-80
-81
-81
-81
-80
-79
-80
-81
-83
-84
-84
-84
-84
-85
-87
-88
-89
-89
-89
-89
-91
-93
-94
-94
-94
-94
-95
-97
-98
-99
-99
-99
-98
-99
-100
-101
-101
-101
-100
-100
-101
-102
-102
-102
-101
-100
-100
-102
-103
-104
-104
-104
-104
-105
-107
-108
-109
-108
-107
-108
-108
-108
-109
-108
-107
-106
-105
-105
-105
-105
-103
-101
-99
-98
-99
-99
-98
-97
-96
-96
-96
-97
-98
-97
-96
-96
-96
-98
-99
-100
-100
-99
-99
-99
-101
-101
-101
-100
-99
-99
-99
-100
-100
-100
-99
-98
-98
-99
-99
-99
-99
-98
-97
-98
-99
-101
-101
-101
-101
-101
-103
-105
-106
-106
-106
-106
-107
-109
-111
-112
-112
-111
-110
-111
-111
-111
-110
-109
-106
-105
-104
-103
-101
-99
-96
-94
-93
-92
-92
-92
-90
-88
-87
-88
-88
-89
-90
-90
-91
-92
-95
-97
-100
-102
-103
-105
-108
-112
-117
-121
-124
-126
-130
-134
-139
-144
-147
-150
-153
-157
-161
-165
-169
-172
-174
-176
-179
-182
-185
-186
-186
-185
-185
-186
-187
-187
-186
-184
-182
-181
-180
-180
-179
-178
-175
-172
-170
-167
-164
-160
-155
-150
-145
-140
-136
-131
-124
-116
-107
-99
-90
-83
-74
-64
-55
-45
-37
-29
-22
-15
-7
0
6
11
15
18
21
25
28
29
29
28
27
27
26
24
21
16
11
7
3
0
-4
-10
-15
-20
-24
-28
-32
-36
-40
-44
-47
-49
-50
-51
-53
-55
-56
-57
-57
-56
-55
-56
-57
-57
-57
-56
-55
-55
-56
-58
-59
-59
-59
-60
-61
-64
-66
-68
-69
-70
-72
-74
-77
-79
-81
-82
-82
-83
-85
-87
-89
-89
-88
-88
-88
-89
-89
-89
-88
-86
-85
-84
-85
-85
-84
-83
-82
-82
-82
-83
-83
-82
-81
-81
-81
-82
-83
-83
-82
-80
-79
-77
-77
-76
-75
-72
-70
-68
-67
-65
-64
-62
-60
-58
-58
-59
-60
-60
-61
-61
-62
-64
-66
-68
-70
-70
-71
-72
-74
-76
-78
-78
-78
-78
-79
-80
-81
-81
-80
-78
-78
-78
-79
-79
-78
-77
-76
-75
-76
-77
-77
-77
-76
-75
-76
-77
-78
-78
-78
-77
-77
-77
-78
-79
-78
-77
-76
-76
-76
-77
-77
-77
-76
-76
-77
-79
-81
-82
-82
-81
-80
-81
-81
-82
-82
-82
-81
-81
-81
-82
-82
-81
-79
-77
-77
-76
-76
-75
-74
-73
-72
-73
-74
-75
-75
-75
-74
-74
-75
-76
-77
-77
-77
-77
-78
-78
-79
-78
-77
-75
-74
-74
-74
-74
-73
-72
-70
-69
-69
-70
-70
-69
-69
-69
-69
-71
-72
-72
-72
-71
-72
-73
-74
-74
-74
-73
-73
-72
-72
-72
-72
-72
-71
-70
-70
-71
-71
-71
-71
-69
-70
-70
-71
-72
-72
-72
-72
-72
-73
-73
-74
-73
-72
-71
-71
-71
-72
-71
-71
-70
-70
-70
-72
-72
-73
-73
-72
-73
-73
-74
-74
-74
-73
-73
-73
-74
-74
-73
-72
-70
-68
-67
-66
-65
-63
-61
-59
-58
-57
-57
-57
-56
-54
-54
-54
-54
-54
-55
-54
-54
-54
-55
-55
-56
-56
-55
-54
-54
-55
-55
-55
-55
-54
-54
-54
-55
-56
-57
-57
-57
-58
-60
-62
-63
-64
-66
-67
-69
-71
-73
-75
-77
-78
-80
-81
-84
-85
-87
-86
-86
-86
-87
-88
-87
-87
-86
-85
-84
-83
-83
-82
-81
-79
-78
-77
-77
-76
-75
-74
-73
-72
-73
-73
-74
-74
-73
-73
-73
-74
-75
-75
-75
-74
-74
-74
-75
-75
-76
-75
-75
-75
-76
-77
-78
-78
-78
-78
-78
-80
-80
-80
-80
-79
-79
-79
-80
-81
-81
-80
-80
-79
-80
-80
-80
-79
-78
-77
-77
-77
-78
-77
-77
-77
-77
-78
-80
-81
-83
-84
-84
-85
-86
-87
-87
-88
-87
-86
-86
-86
-87
-86
-85
-83
-82
-81
-80
-79
-78
-76
-74
-73
-73
-73
-73
-72
-72
-71
-71
-71
-72
-72
-71
-70
-69
-70
-70
-71
-71
-71
-70
-70
-71
-72
-74
-74
-74
-74
-75
-76
-77
-78
-77
-76
-77
-78
-79
-80
-81
-81
-80
-80
-80
-81
-81
-81
-80
-79
-79
-80
-81
-82
-81
-80
-79
-79
-79
-80
-79
-78
-76
-75
-75
-74
-74
-73
-70
-69
-68
-67
-67
-67
-65
-65
-64
-64
-66
-67
-68
-68
-67
-68
-69
-71
-72
-72
-72
-72
-72
-72
-73
-73
-72
-71
-70
-70
-71
-71
-71
-71
-70
-70
-72
-73
-74
-75
-74
-74
-74
-75
-76
-76
-76
-74
-74
-75
-75
-76
-76
-74
-73
-73
-73
-73
-73
-73
-72
-71
-71
-71
-72
-72
-72
-71
-70
-71
-72
-73
-72
-72
-71
-71
-71
-73
-73
-73
-73
-72
-73
-74
-76
-76
-75
-75
-75
-76
-77
-79
-79
-79
-78
-77
-78
-79
-79
-79
-78
-77
-77
-77
-78
-77
-77
-75
-75
-75
-76
-76
-76
-75
-74
-74
-74
-75
-75
-74
-73
-72
-71
-72
-72
-72
-71
-70
-69
-69
-70
-71
-71
-70
-69
-69
-70
-71
-72
-72
-71
-71
-71
-73
-74
-74
-74
-74
-73
-75
-77
-78
-79
-80
-80
-81
-82
-84
-85
-85
-85
-85
-86
-88
-89
-90
-89
-87
-86
-86
-86
-86
-85
-82
-79
-77
-77
-75
-74
-72
-70
-67
-66
-66
-65
-65
-64
-62
-62
-62
-63
-65
-65
-65
-65
-65
-66
-68
-69
-69
-69
-69
-69
-70
-71
-71
-70
-69
-69
-70
-71
-73
-73
-72
-70
-70
-71
-71
-71
-70
-69
-68
-67
-67
-67
-67
-64
-63
-61
-61
-60
-60
-58
-57
-55
-54
-54
-54
-55
-54
-53
-52
-52
-52
-53
-53
-52
-51
-50
-50
-50
-51
-50
-49
-48
-47
-48
-48
-48
-46
-45
-44
-44
-45
-46
-47
-47
-47
-47
-49
-51
-53
-54
-55
-55
-56
-58
-60
-62
-62
-62
-62
-62
-63
-64
-65
-64
-64
-64
-64
-66
-66
-67
-66
-65
-66
-67
-68
-69
-69
-68
-68
-68
-69
-70
-70
-70
-69
-69
-69
-70
-71
-70
-70
-68
-68
-68
-69
-68
-68
-67
-66
-66
-67
-67
-67
-66
-66
-66
-67
-68
-70
-70
-70
-70
-69
-69
-70
-70
-70
-69
-68
-68
-68
-68
-68
-67
-65
-64
-64
-64
-64
-63
-62
-60
-59
-59
-59
-59
-58
-57
-57
-57
-58
-58
-58
-58
-57
-57
-58
-59
-60
-60
-59
-58
-58
-58
-59
-59
-59
-58
-57
-57
-57
-56
-56
-54
-53
-52
-51
-51
-51
-51
-49
-48
-48
-48
-49
-49
-48
-48
-48
-48
-50
-50
-51
-51
-51
-52
-53
-54
-55
-56
-56
-56
-57
-58
-60
-61
-62
-62
-63
-64
-66
-68
-70
-71
-72
-74
-77
-80
-83
-85
-87
-89
-92
-96
-100
-104
-107
-110
-112
-116
-119
-123
-126
-129
-131
-133
-136
-140
-142
-143
-144
-144
-144
-145
-145
-144
-143
-141
-140
-138
-136
-134
-131
-127
-124
-120
-117
-114
-111
-107
-103
-98
-93
-90
-86
-80
-75
-69
-63
-57
-51
-45
-39
-32
-24
-18
-11
-4
2
10
17
24
30
35
39
44
48
53
57
59
61
62
63
64
65
64
62
60
57
54
51
48
45
39
35
30
25
21
17
13
8
3
-1
-5
-7
-11
-14
-18
-20
-23
-24
-24
-25
-27
-28
-29
-29
-28
-28
-28
-28
-29
-29
-28
-28
-28
-28
-29
-30
-31
-30
-30
-31
-32
-33
-34
-34
-33
-32
-32
-32
-33
-33
-32
-31
-30
-30
-31
-31
-30
-29
-28
-28
-28
-28
-29
-28
-28
-28
-28
-29
-29
-29
-29
-28
-28
-29
-30
-31
-31
-30
-29
-29
-30
-30
-31
-31
-30
-30
-31
-31
-33
-33
-32
-32
-32
-33
-34
-35
-36
-35
-35
-36
-36
-38
-38
-38
-37
-37
-37
-37
-37
-37
-36
-36
-36
-36
-36
-37
-36
-36
-34
-35
-35
-35
-36
-36
-36
-36
-37
-38
-39
-40
-40
-40
-40
-40
-40
-40
-40
-39
-37
-37
-37
-37
-36
-34
-32
-30
-29
-28
-27
-26
-24
-22
-21
-21
-21
-21
-21
-20
-19
-19
-20
-21
-22
-22
-21
-21
-22
-23
-24
-24
-24
-23
-24
-24
-25
-26
-26
-25
-25
-25
-26
-27
-27
-26
-26
-25
-26
-26
-27
-27
-26
-25
-25
-25
-26
-27
-26
-26
-26
-26
-27
-28
-28
-28
-27
-27
-27
-27
-28
-28
-27
-26
-26
-26
-27
-27
-27
-26
-25
-24
-25
-26
-26
-25
-24
-24
-24
-25
-25
-25
-24
-23
-23
-24
-25
-25
-25
-24
-23
-23
-23
-24
-24
-23
-22
-22
-21
-21
-22
-21
-20
-19
-19
-19
-20
-20
-19
-18
-18
-18
-19
-21
-21
-21
-20
-19
-20
-20
-21
-22
-21
-21
-21
-22
-23
-23
-23
-22
-21
-20
-21
-21
-21
-20
-19
-19
-19
-19
-20
-19
-18
-17
-17
-18
-19
-19
-18
-18
-17
-17
-18
-19
-19
-19
-18
-18
-18
-19
-19
-19
-19
-18
-18
-19
-20
-20
-20
-19
-19
-19
-20
-20
-21
-20
-20
-20
-20
-21
-21
-21
-21
-20
-20
-20
-21
-21
-21
-20
-20
-20
-20
-21
-22
-21
-20
-20
-21
-21
-22
-22
-22
-22
-23
-24
-25
-26
-26
-26
-26
-27
-29
-30
-31
-31
-30
-30
-31
-32
-32
-33
-32
-31
-31
-32
-32
-32
-32
-31
-30
-30
-30
-30
-30
-29
-28
-27
-26
-26
-26
-25
-24
-23
-22
-21
-22
-21
-20
-19
-17
-17
-16
-16
-16
-15
-14
-13
-14
-14
-15
-14
-14
-13
-14
-14
-15
-16
-16
-16
-16
-16
-17
-19
-19
-20
-19
-19
-19
-20
-20
-20
-20
-19
-19
-20
-21
-21
-20
-19
-18
-18
-18
-19
-19
-18
-17
-16
-16
-17
-17
-17
-16
-15
-14
-15
-15
-16
-16
-15
-15
-15
-15
-16
-16
-15
-15
-15
-15
-15
-16
-15
-15
-14
-13
-14
-14
-14
-14
-13
-12
-11
-12
-12
-12
-12
-11
-11
-11
-11
-12
-12
-11
-10
-10
-11
-12
-12
-12
-12
-11
-12
-13
-15
-15
-15
-15
-15
-15
-16
-16
-16
-15
-14
-14
-15
-15
-16
-15
-14
-13
-13
-13
-13
-13
-12
-11
-10
-10
-11
-11
-11
-10
-9
-9
-10
-11
-11
-11
-10
-10
-10
-10
-11
-11
-11
-11
-11
-11
-12
-12
-13
-12
-11
-12
-12
-13
-14
-14
-14
-14
-14
-15
-15
-15
-15
-15
-15
-15
-16
-16
-15
-15
-14
-13
-14
-14
-14
-14
-13
-12
-11
-12
-12
-12
-11
-9
-9
-9
-9
-9
-9
-9
-8
-8
-8
-9
-9
-9
-9
-9
-9
-11
-12
-13
-13
-13
-13
-14
-15
-16
-16
-15
-15
-14
-15
-16
-16
-16
-15
-15
-14
-15
-14
-14
-13
-12
-11
-11
-12
-12
-11
-11
-10
-10
-10
-11
-11
-11
-10
-10
-11
-12
-13
-14
-14
-13
-12
-13
-13
-13
-13
-12
-12
-12
-12
-12
-13
-12
-11
-10
-10
-10
-10
-11
-10
-9
-9
-9
-10
-10
-10
-10
-9
-9
-10
-11
-11
-11
-10
-10
-10
-10
-10
-10
-9
-8
-7
-8
-8
-8
-7
-6
-6
-5
-5
-6
-6
-6
-5
-5
-5
-6
-6
-6
-6
-6
-5
-5
-6
-7
-6
-5
-5
-5
-5
-6
-6
-6
-6
-5
-6
-7
-8
-9
-9
-9
-9
-9
-10
-10
-10
-10
-9
-8
-9
-9
-8
-7
-5
-3
-1
-1
0
2
4
6
9
10
11
12
14
15
17
18
18
18
18
18
20
20
20
19
18
18
17
17
17
16
15
14
14
14
14
13
11
10
8
7
7
6
5
4
2
1
0
0
0
-2
-3
-5
-5
-5
-6
-7
-8
-10
-10
-11
-10
-10
-10
-11
-12
-12
-12
-11
-11
-11
-11
-11
-10
-9
-8
-8
-8
-8
-8
-7
-6
-6
-6
-7
-7
-7
-7
-6
-6
-6
-6
-7
-6
-6
-5
-5
-6
-7
-8
-7
-6
-6
-6
-7
-8
-8
-8
-7
-6
-7
-7
-8
-7
-6
-5
-5
-6
-7
-7
-7
-6
-5
-6
-7
-8
-8
-8
-8
-8
-9
-10
-11
-12
-12
-12
-12
-13
-14
-14
-14
-13
-13
-13
-14
-14
-13
-13
-12
-11
-11
-11
-12
-11
-10
-9
-9
-9
-10
-9
-8
-7
-7
-6
-6
-6
-5
-4
-3
-1
-1
0
-1
0
1
2
2
2
1
1
2
2
2
1
0
-1
-1
-2
-2
-3
-4
-6
-7
-8
-9
-10
-12
-14
-17
-19
-21
-23
-26
-29
-33
-37
-40
-43
-46
-50
-54
-58
-62
-65
-67
-70
-73
-77
-80
-83
-84
-85
-86
-87
-88
-89
-89
-88
-87
-86
-85
-84
-83
-81
-79
-77
-75
-74
-72
-70
-67
-64
-60
-57
-54
-50
-46
-41
-35
-30
-24
-19
-13
-6
1
9
17
24
32
40
48
56
64
72
78
84
91
97
103
108
112
115
118
121
123
125
126
126
125
124
123
122
121
118
113
109
105
101
97
92
87
81
76
71
67
62
57
52
46
41
37
34
30
27
24
21
19
18
17
16
15
14
13
12
12
12
13
12
12
12
13
13
14
13
13
12
12
13
14
14
14
13
13
13
14
15
15
14
13
12
12
12
12
11
10
9
9
9
9
9
8
8
7
7
8
8
8
7
6
6
6
6
6
6
6
5
6
6
6
6
5
4
3
3
4
5
5
5
5
5
5
6
6
7
7
6
7
8
9
9
9
8
8
9
10
10
10
10
10
10
10
10
11
11
10
10
10
10
12
12
12
12
12
12
12
13
12
12
12
11
11
12
12
11
10
9
9
9
9
9
8
7
6
6
6
6
6
5
4
4
4
5
5
4
4
3
3
4
4
4
4
4
4
4
5
5
5
5
4
4
4
5
5
5
4
4
4
4
4
4
4
3
3
4
4
5
5
4
4
4
4
5
5
5
5
5
5
5
6
7
7
6
6
7
8
8
8
8
7
7
7
7
7
7
6
6
6
6
6
6
6
5
5
5
5
5
5
4
4
4
4
4
4
4
4
4
4
4
4
4
4
4
4
4
5
6
6
6
5
5
6
7
7
7
7
7
7
8
9
9
9
8
7
8
8
8
8
7
6
5
6
5
6
5
4
3
3
4
4
4
4
3
3
4
5
6
6
6
6
6
6
7
8
8
7
8
8
9
10
10
10
10
10
10
10
11
10
9
9
9
9
9
9
9
8
8
7
7
7
7
6
5
5
5
5
5
4
3
2
2
2
3
3
2
1
0
0
1
1
1
1
1
1
1
2
3
3
2
1
1
1
2
3
2
2
1
1
2
3
4
3
3
2
3
3
4
4
3
3
3
4
4
5
5
4
4
4
4
5
5
5
4
3
4
5
5
5
5
4
4
4
5
5
5
4
4
4
5
5
5
5
4
4
5
6
6
6
5
4
4
5
6
6
5
5
4
5
5
6
6
6
5
5
5
6
6
6
5
5
4
5
6
6
6
5
4
4
4
5
5
5
4
4
4
5
5
5
4
3
3
4
5
5
5
5
5
4
5
6
6
6
6
6
7
8
8
8
8
7
7
7
7
8
7
6
5
5
6
6
6
6
5
5
5
5
6
6
5
4
4
4
5
5
5
4
4
4
5
6
6
5
5
5
5
5
5
5
5
4
4
4
5
5
4
3
3
3
3
3
3
3
2
2
3
4
4
4
3
3
2
2
3
4
4
3
3
3
4
4
4
3
2
2
2
2
3
2
2
1
0
0
1
1
0
0
-1
-1
-1
0
0
0
-1
-1
-1
0
0
0
-1
-1
-1
-1
0
0
-1
-2
-2
-2
-2
-1
-1
-1
-2
-2
-2
-1
-1
-1
-2
-2
-2
-2
-1
0
-1
-2
-2
-2
-2
-2
-2
-2
-3
-3
-3
-2
-3
-3
-4
-5
-5
-4
-4
-3
-4
-5
-5
-5
-4
-4
-3
-4
-4
-4
-3
-2
-1
-2
-2
-3
-3
-2
-2
-1
-2
-2
-3
-3
-3
-2
-2
-3
-4
-5
-5
-5
-4
-5
-6
-6
-6
-6
-5
-5
-4
-5
-4
-4
-2
-1
0
0
1
2
3
4
6
6
6
5
5
6
7
8
7
6
5
5
5
5
4
4
2
2
2
3
3
2
2
1
0
1
2
2
2
1
0
0
1
1
1
1
1
1
1
1
1
0
0
-1
-2
-2
-2
-1
-2
-3
-4
-4
-4
-4
-4
-4
-5
-5
-5
-4
-4
-4
-4
-4
-4
-3
-2
-2
-2
-2
-2
-1
0
1
2
2
2
2
3
4
5
5
4
5
5
6
7
7
7
6
5
5
6
6
5
5
3
3
3
3
3
2
2
1
0
0
0
-1
-2
-4
-5
-6
-7
-7
-8
-9
-10
-12
-12
-13
-13
-14
-16
-17
-17
-18
-17
-18
-19
-21
-21
-21
-21
-20
-20
-21
-21
-22
-22
-21
-21
-21
-22
-23
-22
-22
-21
-20
-20
-20
-21
-21
-20
-19
-19
-19
-20
-20
-19
-19
-18
-19
-20
-21
-22
-22
-22
-23
-24
-25
-26
-26
-26
-26
-26
-27
-28
-28
-28
-27
-27
-27
-28
-28
-28
-27
-26
-25
-26
-26
-26
-26
-26
-25
-25
-25
-26
-26
-26
-25
-25
-25
-27
-27
-28
-28
-27
-27
-28
-28
-29
-29
-28
-27
-27
-28
-29
-29
-28
-27
-27
-26
-27
-27
-27
-26
-25
-25
-25
-26
-26
-26
-26
-25
-26
-26
-27
-28
-28
-27
-27
-28
-29
-31
-31
-31
-31
-31
-31
-33
-33
-33
-33
-33
-33
-34
-35
-35
-36
-35
-35
-37
-38
-40
-41
-43
-43
-45
-47
-49
-52
-54
-56
-58
-61
-65
-69
-73
-75
-78
-82
-86
-90
-94
-97
-100
-102
-105
-108
-111
-113
-115
-116
-117
-117
-118
-119
-119
-118
-116
-115
-115
-115
-114
-112
-109
-106
-104
-102
-100
-98
-95
-92
-89
-85
-83
-80
-76
-71
-66
-61
-56
-53
-48
-42
-35
-28
-21
-15
-9
-3
4
11
18
25
31
36
42
47
53
58
61
64
66
68
70
72
72
72
70
69
68
66
64
61
58
54
49
46
42
38
33
27
22
17
12
9
4
0
-4
-9
-12
-15
-17
-19
-22
-25
-26
-27
-27
-27
-28
-29
-31
-31
-30
-30
-30
-31
-32
-33
-33
-33
-33
-34
-35
-37
-38
-38
-37
-38
-38
-39
-40
-40
-39
-39
-39
-40
-41
-42
-42
-41
-41
-40
-41
-42
-42
-42
-42
-41
-42
-43
-44
-44
-44
-43
-43
-44
-45
-46
-48
-48
-48
-49
-50
-51
-52
-52
-52
-52
-52
-53
-54
-54
-53
-52
-51
-50
-50
-49
-48
-46
-44
-42
-42
-41
-40
-38
-37
-36
-36
-37
-38
-39
-39
-39
-40
-41
-42
-44
-44
-45
-45
-47
-48
-49
-49
-48
-47
-47
-47
-47
-48
-47
-46
-44
-42
-42
-42
-41
-40
-38
-37
-36
-36
-36
-35
-34
-33
-32
-33
-34
-34
-34
-34
-34
-33
-34
-35
-35
-35
-36
-36
-37
-38
-39
-41
-40
-40
-41
-42
-43
-44
-44
-44
-44
-44
-44
-45
-45
-44
-42
-40
-38
-37
-35
-33
-31
-28
-26
-24
-23
-22
-20
-18
-15
-14
-14
-13
-13
-12
-11
-10
-10
-11
-12
-13
-13
-12
-12
-13
-14
-15
-15
-15
-14
-14
-15
-17
-17
-17
