# Simple Text Format
# Sampling Rate (Hz):= 1200.00
# Resolution:= 12
# Labels:= ECG	 V2
# Age:=	76
# Gender:=	Masculino
592
593
592
591
592
591
592
591
591
591
591
590
590
590
590
590
589
589
588
588
588
588
588
587
586
586
586
586
586
585
584
584
584
585
584
583
584
583
582
583
582
582
581
582
581
582
581
581
580
581
579
580
579
579
579
578
578
577
577
577
577
576
576
574
573
573
572
573
573
572
572
571
571
571
572
571
571
570
570
570
571
570
571
571
571
571
571
572
572
572
572
572
572
573
573
573
573
573
573
573
574
575
575
575
576
576
577
578
578
580
580
581
582
583
584
585
585
586
587
588
588
589
589
589
590
590
590
591
591
591
591
592
591
592
593
592
593
592
592
592
593
593
593
593
593
593
593
593
593
593
592
592
592
593
592
592
592
592
591
591
592
591
591
591
590
589
590
590
589
589
588
588
589
589
589
589
589
589
588
589
588
589
589
588
588
588
588
587
588
587
587
586
586
586
585
585
585
584
583
584
584
584
584
583
583
583
583
582
582
582
582
582
582
582
582
582
582
581
582
581
582
582
582
582
582
582
582
582
582
582
582
582
582
582
582
583
582
581
582
582
582
583
583
582
583
583
582
583
583
583
583
583
582
583
583
583
583
583
583
583
584
584
584
585
584
584
585
585
585
585
586
585
587
587
587
587
587
586
587
587
587
587
587
587
586
586
586
586
586
586
586
585
585
585
585
584
585
584
585
584
585
584
584
584
584
583
584
584
585
584
584
584
584
584
584
584
584
584
584
584
584
584
583
584
583
583
583
582
583
582
582
582
582
581
582
582
582
582
581
581
581
581
581
580
581
580
581
580
580
580
580
579
579
579
580
580
579
578
579
579
579
579
579
578
578
578
578
579
579
578
577
578
578
577
578
578
577
577
577
577
576
576
576
575
575
574
573
574
574
573
573
572
572
572
571
571
571
570
570
570
570
570
570
570
569
570
569
569
569
569
567
568
568
567
568
568
567
567
566
566
567
566
566
566
565
565
565
565
565
564
564
564
564
565
564
564
564
563
563
563
564
563
563
563
562
561
562
562
561
560
560
559
559
560
560
560
559
559
558
559
559
559
559
558
558
558
558
558
558
558
558
558
558
559
558
558
558
557
558
558
558
559
558
558
558
558
558
558
558
558
558
557
558
558
559
559
559
558
559
559
559
560
560
561
561
560
561
561
561
562
562
562
562
563
562
562
563
562
562
563
562
562
562
562
561
561
560
560
560
559
558
558
557
557
556
556
555
554
552
553
552
551
550
549
549
548
547
547
547
546
545
545
545
544
544
544
543
543
542
542
542
542
542
541
541
540
541
540
540
539
539
539
539
539
539
539
538
538
538
538
538
538
538
538
538
538
538
538
538
537
536
536
535
536
535
536
535
536
534
535
534
535
534
533
533
534
534
534
534
533
533
533
533
533
533
532
532
532
531
531
530
531
530
529
529
530
529
530
530
530
530
529
531
530
531
531
530
531
531
531
532
531
531
531
531
530
530
530
530
529
529
528
528
528
528
528
527
526
527
526
526
526
526
525
525
526
526
525
526
525
525
524
524
524
525
525
523
524
523
523
523
523
523
523
523
523
523
524
524
524
523
525
526
527
528
529
531
532
533
536
537
540
542
544
546
548
550
554
556
558
560
562
563
564
566
567
568
568
568
569
568
568
567
566
565
563
562
561
560
559
558
557
557
556
557
556
557
558
559
560
562
564
566
568
571
573
577
580
584
586
591
594
597
602
607
610
614
617
621
625
630
635
639
644
648
653
658
662
666
669
673
677
681
685
689
694
698
702
707
711
717
722
728
734
739
745
751
757
762
767
772
777
780
784
787
789
790
791
791
791
790
789
786
783
779
775
771
768
765
761
757
753
749
747
745
741
738
734
730
727
723
718
713
707
700
694
687
681
673
665
656
648
640
632
623
615
606
598
591
584
579
572
567
562
557
553
550
547
544
542
539
538
535
534
533
531
530
528
527
526
525
525
524
522
521
520
519
518
517
516
515
514
513
513
512
511
510
510
508
508
508
507
506
505
504
503
502
502
501
500
500
500
500
499
498
498
498
497
497
497
497
497
498
497
497
496
498
498
498
498
498
497
498
498
498
498
498
497
497
497
498
497
497
497
496
496
495
495
495
494
494
494
494
493
494
493
493
492
492
492
493
492
492
492
492
491
491
492
492
491
491
491
491
490
491
491
490
490
489
490
489
489
489
489
489
488
489
489
489
489
489
489
489
489
489
489
489
489
489
488
489
489
489
488
489
488
488
489
489
488
487
487
487
487
487
487
487
487
486
486
487
486
486
487
486
486
486
486
486
486
486
486
486
485
486
485
485
485
484
485
484
485
484
484
484
483
483
483
483
483
482
482
482
482
482
482
482
482
481
481
482
481
482
481
481
481
480
481
481
481
480
480
479
480
479
479
479
478
478
478
478
478
478
477
476
477
476
476
476
475
474
475
474
474
474
474
474
474
473
473
473
473
473
472
472
471
471
472
471
471
470
469
469
469
469
469
468
467
467
466
466
465
465
465
464
464
464
463
463
462
461
462
460
460
460
459
458
458
458
457
457
457
457
456
455
455
455
455
456
455
455
455
455
456
456
456
456
456
456
456
456
456
456
456
455
455
456
457
456
456
457
456
457
458
458
459
459
460
461
461
462
463
463
463
463
465
466
466
467
468
467
468
469
469
470
470
470
471
471
472
472
473
473
473
473
474
474
474
474
474
475
474
474
474
475
474
475
474
474
474
475
474
474
475
475
475
474
475
475
475
474
475
474
475
474
474
474
474
473
473
473
473
473
472
471
470
470
470
469
469
468
468
468
469
468
468
468
468
467
467
468
468
469
468
467
467
468
467
467
467
466
467
466
466
466
466
465
465
465
465
466
466
466
465
465
465
465
465
465
465
465
466
466
465
466
466
466
465
466
465
466
467
466
466
466
466
466
467
466
466
466
465
466
466
466
466
466
466
466
466
467
466
466
466
465
466
467
466
467
466
466
466
466
467
468
468
468
467
468
468
468
469
469
469
469
469
470
469
470
470
469
469
469
469
469
469
469
469
468
469
469
469
468
468
468
468
468
468
468
469
468
468
469
468
469
469
468
467
467
467
467
467
467
467
467
467
467
467
467
466
466
466
466
466
467
467
467
466
465
465
465
465
465
465
464
464
464
464
464
463
463
463
463
463
464
464
463
463
463
463
463
463
463
463
462
462
462
463
462
462
462
462
462
463
462
462
462
462
461
461
461
461
461
461
460
459
459
460
459
459
458
459
458
458
458
457
456
456
456
456
455
455
456
455
455
454
454
455
454
453
453
453
453
452
453
453
452
451
451
451
451
451
451
450
451
450
451
450
450
450
450
449
449
449
449
450
449
449
448
449
449
449
448
447
447
446
447
446
447
446
445
445
445
444
445
444
443
444
443
443
444
443
444
443
444
443
443
444
444
444
444
444
444
444
445
445
444
444
443
443
444
443
443
443
442
442
442
441
441
441
440
440
439
439
440
440
439
439
438
438
438
438
438
439
438
439
439
440
440
440
440
441
441
442
442
443
443
443
443
444
444
444
445
444
445
445
445
445
445
445
444
445
445
445
445
445
445
445
444
445
444
444
444
443
443
443
442
442
441
441
440
439
439
439
439
438
437
437
436
435
435
436
434
434
434
433
433
432
432
432
431
430
430
430
430
430
430
429
428
428
428
427
426
426
426
426
425
425
425
425
425
424
424
424
425
425
424
424
423
423
424
424
424
423
423
423
422
422
423
421
421
421
420
420
420
420
419
419
419
420
420
420
420
419
420
420
421
422
422
422
423
422
423
424
424
424
425
425
425
425
426
425
425
425
424
425
424
424
424
423
423
422
421
421
421
420
419
419
418
417
417
417
417
416
415
416
414
415
415
415
414
413
413
414
414
414
414
413
414
414
414
414
414
414
413
413
413
414
413
414
413
412
412
412
413
413
412
413
413
413
412
412
413
413
413
413
414
415
415
416
416
418
419
421
422
424
425
428
430
432
434
437
440
442
444
447
448
451
454
455
456
457
459
459
459
459
458
458
456
456
454
453
452
450
448
446
444
444
443
442
441
441
441
442
443
445
446
447
449
451
454
457
460
464
467
471
475
480
483
487
491
494
498
503
507
511
515
520
524
529
534
539
543
548
551
555
559
563
566
570
574
578
582
587
592
598
603
607
612
618
624
631
636
642
648
653
658
663
667
669
672
673
675
676
676
675
674
672
668
665
661
657
652
647
644
640
635
632
627
623
619
616
613
610
607
603
599
596
590
586
581
575
568
563
555
548
542
535
528
520
512
506
498
492
486
479
472
467
461
456
451
448
444
440
438
435
432
431
428
426
424
422
421
419
419
417
416
414
412
412
410
410
408
407
405
405
403
403
401
400
398
397
396
395
394
394
392
391
390
390
389
389
388
388
387
386
386
386
386
386
386
385
385
386
386
386
386
385
386
386
385
385
385
384
384
384
384
384
384
383
383
383
383
383
384
383
384
384
383
383
384
383
383
384
383
383
382
383
383
382
382
381
381
381
380
380
379
379
378
378
378
378
378
378
378
378
378
379
379
379
379
379
379
379
380
380
380
380
379
379
380
380
379
379
378
378
378
378
377
378
377
376
376
376
375
375
374
373
372
371
371
371
371
370
371
370
370
370
370
369
369
369
368
369
369
370
370
371
370
371
372
372
372
371
372
371
372
373
373
373
373
372
372
373
373
373
373
372
373
372
372
372
371
371
370
370
370
369
369
369
368
367
367
366
365
365
364
364
364
365
364
365
364
364
363
364
364
365
365
365
366
365
365
366
366
366
366
366
365
365
364
363
363
362
361
362
361
361
361
360
360
359
359
358
358
358
357
357
357
358
357
357
357
356
356
355
355
355
354
354
353
352
353
353
352
352
351
350
350
350
350
350
350
349
349
349
348
348
348
346
345
344
343
343
343
342
342
340
340
340
341
340
341
340
340
340
341
341
341
342
343
342
343
344
344
344
343
343
343
342
342
342
342
342
342
341
342
343
343
343
343
344
344
345
347
348
349
349
350
351
352
352
352
353
353
353
354
354
354
354
353
354
354
354
354
354
355
354
354
354
355
355
356
356
356
357
357
357
357
358
358
358
358
358
358
358
358
357
356
356
356
356
355
354
354
354
353
353
352
351
351
350
349
349
350
349
349
348
348
348
348
347
347
347
347
346
347
347
347
347
347
346
346
347
346
346
346
346
345
345
346
345
345
344
344
343
344
343
343
342
342
342
342
342
341
341
341
340
341
340
341
340
340
339
339
338
339
338
338
337
336
336
336
336
335
335
335
334
334
333
333
333
333
333
332
332
333
332
332
332
332
332
332
333
333
333
333
333
333
333
333
334
334
333
333
333
333
333
333
333
333
333
333
333
333
333
334
333
333
333
333
333
334
334
333
333
334
333
334
334
333
333
334
334
334
334
334
333
333
333
332
332
332
332
332
331
332
332
331
331
330
330
330
331
330
330
329
329
329
329
329
329
330
329
328
328
328
329
328
328
329
328
328
329
330
330
329
329
329
329
330
330
329
330
329
329
329
329
329
328
329
328
328
328
329
327
327
327
326
325
326
325
325
324
324
324
324
323
323
323
323
322
323
322
323
323
323
322
323
322
323
323
323
322
322
322
321
321
320
320
319
318
318
319
319
318
318
317
317
316
316
316
316
316
315
315
314
314
314
314
314
313
313
313
312
312
312
311
311
311
311
311
310
310
309
309
310
310
310
310
309
310
310
309
310
310
310
310
309
309
310
310
311
310
310
309
310
309
309
309
308
308
308
307
308
308
307
306
306
306
305
306
305
305
304
303
304
303
303
303
302
302
301
302
302
301
300
300
301
301
301
301
301
301
301
302
302
302
303
303
303
303
303
303
304
304
304
304
304
304
305
305
305
305
304
305
304
305
305
305
305
305
306
306
307
307
307
306
306
307
307
307
307
307
307
306
307
306
306
306
306
305
305
304
305
304
303
302
302
301
301
300
299
298
298
297
297
296
295
294
293
293
293
292
292
292
292
291
291
291
291
291
291
291
291
291
291
291
291
291
291
290
290
290
290
289
290
289
288
289
288
288
288
288
287
287
287
287
287
287
286
287
286
287
287
287
286
286
286
286
286
286
285
285
285
285
285
285
285
284
284
283
283
284
283
283
283
283
283
283
283
283
283
283
282
282
283
283
283
282
281
282
281
280
281
281
280
279
278
278
278
277
276
275
275
274
274
275
275
275
275
275
275
275
275
275
276
276
276
277
276
277
277
277
277
277
277
276
277
276
275
275
275
274
274
274
273
272
272
271
271
270
269
268
268
267
267
267
268
268
268
268
269
269
269
271
271
272
273
276
278
280
282
284
286
289
291
295
297
299
302
304
306
310
311
313
314
316
316
317
317
317
316
315
314
313
312
311
309
308
305
304
303
302
301
300
301
300
300
301
302
304
306
307
309
311
314
317
321
324
327
330
334
337
341
346
349
352
356
359
364
368
372
377
382
387
392
397
401
406
409
414
417
421
426
430
434
438
443
447
452
456
462
466
471
477
483
489
493
498
504
508
513
517
521
524
526
526
528
528
527
527
524
522
517
514
510
506
501
496
491
487
481
478
473
469
465
461
457
454
450
446
442
438
433
427
423
417
411
405
399
392
387
380
374
368
361
354
348
342
337
331
326
320
314
310
305
302
299
296
293
291
288
287
285
283
281
279
278
278
277
276
275
274
274
273
272
272
272
271
271
269
270
269
269
269
267
266
265
264
263
263
261
260
259
258
257
256
255
253
253
251
251
251
250
250
250
249
249
249
248
248
248
248
247
247
248
248
248
248
248
247
247
246
246
246
245
244
243
243
243
243
242
241
241
241
241
241
241
240
240
239
239
239
240
239
239
238
238
239
240
239
240
239
240
240
240
240
240
240
240
240
240
240
240
241
240
240
240
240
241
241
241
241
240
240
240
239
239
238
238
237
237
236
236
236
235
233
233
233
233
232
231
230
231
230
230
230
231
230
230
230
230
231
231
231
230
230
230
230
230
230
230
229
228
228
228
229
229
229
228
227
228
229
228
228
227
228
228
229
229
229
229
228
227
227
227
227
227
227
227
228
228
227
228
227
226
226
227
227
228
228
228
228
228
228
229
228
228
229
228
228
228
228
228
228
227
227
227
227
226
226
227
226
224
225
224
224
222
222
221
220
219
219
218
218
217
215
214
214
213
213
212
211
210
210
209
209
209
208
207
207
207
208
207
207
208
207
207
208
208
207
207
208
207
207
207
207
207
206
207
206
206
206
206
205
205
204
205
205
204
204
204
203
203
203
203
203
203
202
202
202
202
202
202
202
202
201
201
202
202
202
202
202
203
203
203
203
204
204
203
204
204
206
206
207
206
207
207
207
208
208
208
209
209
209
210
210
211
211
211
212
213
213
214
214
215
215
215
216
217
218
219
218
219
219
219
220
221
221
221
221
222
222
222
222
222
222
222
222
222
223
223
222
221
221
221
221
221
220
219
220
219
218
219
218
218
217
217
217
217
217
217
217
217
217
217
216
216
215
215
214
214
215
215
214
214
213
213
213
213
213
213
212
210
210
210
210
209
210
209
209
208
209
208
208
208
207
206
206
207
208
207
207
207
207
207
206
207
206
207
207
207
207
208
208
208
208
208
209
209
210
210
209
210
209
210
209
209
209
209
209
209
209
209
209
209
208
208
208
207
207
206
207
206
206
206
207
206
206
206
205
206
206
205
205
205
204
203
204
203
204
203
202
202
201
201
201
201
201
201
200
201
202
203
203
202
203
202
203
204
204
205
205
205
206
206
206
206
205
205
205
204
205
205
205
204
204
203
204
203
203
203
202
201
201
202
201
201
201
200
200
201
201
201
202
201
201
201
200
202
201
201
202
202
202
202
203
203
202
202
202
203
204
204
204
204
203
203
204
204
204
203
202
202
202
201
201
201
201
200
200
199
200
200
200
199
198
198
199
198
199
199
199
199
199
200
200
200
200
200
200
201
200
201
201
200
200
199
199
199
199
198
198
197
197
197
197
196
196
195
195
195
196
195
195
195
194
193
193
193
193
193
193
192
192
192
193
192
192
191
191
191
190
191
191
190
190
189
190
189
189
188
188
187
187
187
188
188
187
187
187
187
187
187
187
187
187
187
187
188
188
188
188
188
187
187
188
188
188
187
187
187
188
188
188
187
187
187
187
188
188
188
188
188
188
188
188
188
187
187
187
187
186
186
187
186
186
187
187
186
187
187
187
187
187
188
188
189
189
190
189
190
191
191
191
191
192
191
192
192
192
192
193
192
192
193
193
193
193
193
192
192
191
192
192
191
190
189
189
188
187
187
186
185
185
186
186
185
184
184
184
184
184
184
184
184
184
184
185
185
185
185
185
185
186
185
185
186
185
185
184
184
183
183
182
182
181
180
179
179
178
177
176
175
175
174
174
174
172
172
172
172
172
173
173
173
173
173
174
175
175
176
175
175
175
175
175
175
174
174
174
174
174
175
175
174
174
174
173
173
174
173
173
173
173
173
173
173
173
174
173
173
173
174
174
173
173
173
173
173
174
173
174
174
173
174
173
173
173
173
173
173
174
174
174
172
172
172
172
171
171
170
169
169
169
168
168
167
167
167
166
166
166
166
166
165
164
163
164
164
164
164
163
163
162
163
163
162
162
162
161
162
162
162
162
162
162
161
162
163
164
164
164
166
167
168
169
171
171
173
175
177
178
181
183
185
187
189
192
194
197
199
200
202
203
205
207
207
208
208
208
207
207
207
205
204
203
202
201
200
199
197
196
195
194
194
195
194
195
195
196
198
200
202
205
206
209
212
214
218
222
225
228
232
236
240
245
248
253
257
260
265
270
275
280
285
291
296
300
305
310
313
318
321
326
331
335
339
344
348
354
358
364
368
374
379
384
390
395
400
405
408
412
415
417
420
422
422
422
421
420
418
416
412
408
403
398
393
389
383
379
374
369
365
361
356
352
348
345
341
337
334
330
326
322
317
312
307
301
296
290
284
277
270
264
257
251
244
238
232
225
219
214
209
204
198
194
190
187
183
181
178
175
173
172
170
170
169
167
166
165
165
164
163
163
161
160
159
159
159
158
157
155
155
154
153
153
152
151
150
149
149
148
148
147
146
146
145
145
144
144
144
143
143
142
142
142
142
141
139
140
140
139
140
139
138
138
138
138
138
138
138
137
137
136
136
137
136
136
135
135
134
135
134
134
133
132
131
132
132
132
131
131
130
130
130
130
131
130
130
129
129
130
130
130
130
130
129
129
130
130
129
130
129
129
129
128
128
128
127
127
127
127
127
126
126
126
126
125
125
125
124
124
123
123
123
123
123
123
122
123
122
123
123
123
122
122
123
122
123
123
124
123
123
123
123
123
123
123
123
122
123
123
122
122
121
121
121
120
121
120
119
120
119
119
118
118
118
118
117
117
117
117
118
118
118
117
118
117
118
118
117
116
117
116
116
117
116
115
115
114
114
115
114
114
113
113
113
113
113
113
112
112
113
113
113
113
113
113
113
114
114
114
115
115
114
114
114
114
115
114
113
112
112
112
112
111
112
110
110
109
108
109
108
107
107
107
106
107
106
106
106
106
105
104
104
105
104
103
104
103
103
103
102
102
101
101
100
100
100
100
100
99
98
98
98
98
97
97
96
95
95
95
94
94
93
92
92
91
91
91
90
90
90
90
89
90
89
90
89
89
89
90
90
90
91
90
91
92
92
93
94
94
94
94
95
97
97
97
97
98
99
99
101
102
102
103
104
105
105
106
107
106
107
108
108
109
109
109
109
109
110
111
112
112
112
113
113
113
114
114
114
114
115
115
115
116
116
117
117
117
117
117
116
117
116
115
116
115
116
116
115
116
116
115
116
115
116
115
115
114
114
115
115
115
114
115
114
115
114
114
114
114
113
113
114
114
114
114
114
113
113
113
113
113
113
112
112
112
112
112
112
111
111
110
111
110
110
110
109
109
109
109
108
108
108
107
107
107
107
107
106
105
106
106
106
107
107
107
106
107
107
108
109
109
110
110
110
111
112
112
112
112
111
112
112
112
113
113
112
112
112
113
112
113
112
113
113
113
114
113
113
113
113
113
114
113
114
113
113
112
113
113
113
113
113
112
113
112
113
113
113
113
112
112
113
114
114
114
114
114
115
116
115
116
116
117
117
118
119
118
118
119
118
119
119
120
120
120
120
120
119
120
120
119
118
118
117
118
117
117
116
116
115
115
115
115
115
115
114
114
114
114
115
115
114
115
115
116
116
117
116
116
116
116
117
117
117
117
116
117
116
116
117
117
117
116
116
116
117
117
117
116
117
117
118
118
118
117
118
118
117
117
118
118
118
118
118
117
117
116
116
115
113
113
113
112
111
111
110
110
110
109
109
108
107
106
106
106
106
106
106
106
106
106
107
107
107
107
108
107
108
109
110
110
110
110
110
111
111
111
111
110
110
110
109
110
109
109
109
107
108
107
107
107
105
104
104
104
103
103
103
102
102
102
101
102
102
102
101
101
102
102
102
102
102
101
102
102
102
101
102
101
101
101
102
101
102
102
101
102
101
102
101
101
101
101
101
100
101
100
100
100
100
99
98
99
98
97
98
97
98
98
98
99
99
99
100
100
101
101
102
102
102
103
103
104
104
105
105
104
105
105
106
105
105
105
104
105
104
104
103
103
103
103
103
102
101
101
101
100
100
100
99
99
99
98
97
97
97
97
96
94
93
93
92
93
91
90
90
90
89
88
89
88
87
87
86
87
86
86
85
85
85
84
85
84
85
84
83
84
84
84
84
84
83
82
81
82
81
81
81
80
80
80
80
81
81
80
80
80
81
82
81
82
81
82
82
82
83
83
82
82
83
83
83
83
84
83
83
83
83
83
84
83
83
83
83
84
85
84
84
85
84
83
83
83
83
82
81
80
81
80
80
80
79
78
77
77
76
76
76
75
75
75
75
75
74
74
73
73
73
73
72
73
72
73
72
72
72
72
73
72
73
73
73
74
74
74
73
72
74
73
74
73
74
73
73
73
73
73
73
72
72
72
72
72
72
73
73
74
74
76
77
77
78
79
81
82
84
86
88
90
92
93
95
99
100
103
104
106
109
110
112
113
113
113
113
114
113
112
111
110
109
107
107
105
104
103
101
100
100
100
100
99
100
102
103
105
107
110
112
114
118
121
124
129
131
135
139
143
148
152
157
160
164
168
173
176
182
187
192
197
202
207
212
217
222
226
230
235
239
243
248
252
257
262
267
273
277
282
287
292
298
304
309
314
318
322
325
328
331
333
334
334
333
332
331
329
325
322
318
313
307
302
296
292
287
281
277
273
269
265
262
259
255
251
249
246
243
239
235
231
226
222
217
212
206
201
195
188
183
176
169
163
156
150
144
139
133
128
122
118
113
109
106
102
99
96
93
91
89
87
86
84
82
81
79
78
77
76
74
73
72
71
71
69
69
68
66
65
65
64
64
62
60
60
59
58
58
57
57
55
54
54
54
54
53
52
52
51
51
51
52
51
50
50
50
49
50
49
48
47
47
47
46
47
46
46
46
46
46
46
47
46
46
46
46
47
47
48
48
49
49
49
49
49
49
49
49
49
49
50
50
50
49
50
49
49
49
48
48
48
48
48
48
48
48
47
47
47
47
47
46
46
44
43
43
43
42
42
42
41
40
40
39
39
39
37
37
37
37
37
38
38
39
39
40
40
41
41
42
42
42
42
43
42
43
43
42
43
43
44
43
43
43
43
43
43
43
43
43
43
42
43
42
43
42
41
41
41
41
42
42
40
40
40
40
39
40
40
40
39
40
39
39
40
40
39
39
39
38
39
39
39
38
37
37
37
37
36
36
36
35
35
35
36
36
36
36
35
35
35
36
36
36
36
36
35
36
35
36
35
35
35
34
33
33
32
32
32
32
31
30
30
29
28
28
28
29
28
29
28
28
28
28
29
29
29
29
29
30
30
31
30
29
29
29
29
29
28
27
26
25
25
25
24
22
21
21
19
19
19
18
17
16
15
15
15
14
14
14
13
12
12
11
12
11
11
11
12
11
12
13
13
14
14
14
15
16
17
18
18
19
20
21
22
23
22
23
24
24
26
27
27
27
27
29
29
30
30
31
31
32
33
34
35
35
35
36
37
37
38
38
40
40
39
40
40
41
41
41
40
40
41
41
41
41
41
41
42
42
42
42
42
42
42
42
42
42
42
42
42
42
42
42
43
42
42
42
42
42
43
43
43
43
42
43
44
43
45
44
44
44
44
44
43
43
43
42
42
42
42
42
42
42
41
40
41
40
40
41
40
39
39
40
39
40
40
40
40
41
41
41
42
42
41
42
43
44
44
44
43
44
44
44
44
44
43
43
43
43
43
42
42
41
41
41
41
40
41
41
40
39
39
39
39
39
38
39
39
39
39
40
40
39
40
39
40
41
42
41
42
41
41
42
43
43
43
44
44
45
46
46
46
46
47
46
46
46
46
46
46
46
46
47
46
46
45
45
45
45
46
45
45
45
45
45
46
46
46
47
46
47
47
47
48
48
48
48
49
49
50
50
50
50
51
50
52
52
52
52
52
52
52
52
52
52
52
51
51
51
51
52
51
50
50
49
50
50
49
49
48
48
48
48
48
48
49
49
49
49
49
50
50
50
49
50
51
50
50
50
51
50
50
51
51
50
51
51
51
52
53
53
53
53
52
52
53
52
52
53
52
52
52
53
52
51
51
51
50
50
49
49
49
48
48
48
47
48
47
47
47
46
46
47
47
47
46
45
45
46
45
45
44
44
44
44
43
44
43
43
42
42
42
43
42
43
42
42
41
42
41
41
41
41
40
40
40
41
41
41
41
41
42
43
43
43
43
44
44
46
46
47
48
48
48
49
50
51
51
50
51
50
50
50
50
50
49
49
48
48
47
46
46
45
45
44
44
43
43
42
41
42
42
41
41
42
42
42
41
43
42
43
43
44
44
45
46
46
46
46
46
46
46
47
47
47
48
48
48
48
49
49
49
49
49
49
50
51
51
50
50
50
50
50
50
49
49
48
48
48
48
47
47
46
45
45
45
45
45
44
44
44
44
44
45
44
44
44
44
44
43
43
43
43
42
42
43
42
42
42
41
41
41
40
41
41
40
40
39
40
40
39
39
39
39
39
38
38
38
38
37
37
36
35
35
35
34
35
34
35
34
35
35
34
34
35
35
36
36
36
37
37
38
39
39
40
39
40
39
41
40
40
40
40
40
40
40
39
38
38
37
37
37
37
36
36
37
37
37
37
38
38
38
38
38
38
38
39
39
39
38
38
38
38
38
37
37
37
36
37
37
36
36
35
35
35
35
36
36
36
36
36
36
36
36
36
36
35
37
36
36
37
37
37
36
37
37
37
37
37
36
37
37
38
38
38
39
39
39
40
41
42
42
43
44
44
46
47
48
49
51
53
55
57
59
62
64
66
68
70
73
75
76
78
79
81
81
82
82
82
81
80
79
78
76
74
72
70
69
68
66
65
64
64
63
63
64
65
66
67
69
70
73
75
78
81
84
87
89
93
98
101
105
109
113
118
122
127
132
136
142
146
151
157
164
169
175
180
185
191
195
200
204
207
212
216
221
226
230
235
240
245
250
256
261
266
270
276
281
286
290
293
296
298
300
301
302
302
300
298
295
293
289
284
279
275
269
264
259
255
251
246
241
237
233
229
226
223
221
217
213
209
205
200
196
191
185
180
174
167
160
154
147
140
133
126
121
114
108
102
97
91
86
82
78
74
71
68
65
64
61
60
58
56
54
53
52
50
50
48
46
45
44
43
42
41
40
38
37
36
34
34
32
30
29
28
26
24
23
22
20
20
19
19
18
17
16
15
15
15
14
14
14
14
14
14
14
13
13
14
14
13
13
14
14
14
13
14
14
13
14
14
13
13
12
12
13
13
13
13
12
13
13
12
13
12
12
12
12
13
14
14
14
14
13
13
14
14
14
13
14
13
12
12
12
10
9
8
8
7
7
6
5
5
4
3
4
3
3
2
2
1
1
2
2
3
3
4
4
5
6
6
6
6
6
6
6
7
7
7
6
7
7
8
8
7
8
7
7
8
8
8
7
7
6
7
8
8
7
8
7
7
7
7
7
7
6
6
5
5
5
4
4
4
3
3
2
2
2
1
0
0
0
0
-1
-1
-1
-1
-1
0
1
1
1
1
2
2
3
3
4
3
4
4
4
5
5
5
4
4
4
4
5
5
4
4
3
4
3
3
3
2
2
2
2
1
2
0
0
-1
-1
-1
-2
-2
-3
-4
-4
-4
-5
-6
-6
-7
-8
-8
-9
-9
-9
-9
-10
-10
-11
-10
-10
-11
-11
-11
-12
-12
-13
-13
-14
-14
-15
-16
-16
-16
-16
-17
-18
-18
-18
-19
-18
-18
-18
-18
-19
-19
-18
-17
-18
-19
-18
-19
-18
-19
-18
-18
-19
-19
-19
-20
-20
-20
-21
-21
-21
-22
-22
-21
-22
-22
-21
-21
-21
-21
-20
-20
-20
-20
-20
-18
-17
-16
-16
-15
-14
-13
-13
-12
-11
-10
-10
-9
-9
-8
-8
-7
-7
-7
-6
-5
-4
-3
-3
-2
-2
-2
-1
0
0
0
0
0
0
1
2
2
3
3
3
4
5
5
5
5
5
6
6
7
8
7
8
8
8
8
8
8
8
8
8
8
7
7
6
6
6
5
5
6
6
6
5
5
5
5
4
4
4
4
4
4
4
4
4
5
4
4
4
4
4
4
4
3
4
3
4
3
2
3
3
3
4
4
4
3
3
3
3
3
3
4
3
3
4
4
4
4
4
3
3
4
3
3
2
1
1
1
1
1
1
2
1
2
2
3
3
3
3
4
5
6
5
6
6
6
6
6
6
7
7
7
5
5
5
5
4
4
3
3
4
4
4
5
5
4
5
5
6
7
7
6
6
6
6
6
7
7
7
7
7
8
8
7
7
7
7
7
7
7
6
6
6
6
6
5
5
5
3
3
3
3
3
3
3
3
2
3
3
3
5
5
6
6
7
9
9
10
10
11
11
13
13
14
14
14
14
15
14
15
15
14
14
13
13
13
12
11
10
9
8
8
8
9
8
8
8
7
7
7
6
6
5
6
6
6
6
6
6
5
5
5
5
5
4
4
4
4
4
4
4
3
4
3
3
4
4
4
4
4
4
4
5
5
4
3
3
2
3
3
2
2
1
0
-1
-1
-1
-2
-3
-4
-4
-4
-3
-3
-4
-4
-4
-4
-4
-3
-3
-4
-4
-3
-2
-2
-2
-2
-1
-2
-2
-1
0
0
0
0
-1
-1
0
-1
-1
-1
-1
-2
-2
-1
-1
-2
-2
-2
-2
-1
-2
-2
-2
-2
-3
-3
-3
-4
-4
-5
-5
-5
-6
-6
-7
-7
-7
-8
-9
-9
-9
-9
-10
-10
-9
-9
-9
-7
-7
-6
-5
-4
-4
-3
-3
-3
-3
-4
-4
-4
-4
-4
-4
-5
-6
-6
-7
-7
-8
-9
-10
-9
-10
-10
-10
-10
-10
-9
-8
-8
-6
-6
-6
-5
-4
-4
-3
-2
-2
-2
-2
-2
-1
-2
-2
-3
-3
-3
-3
-4
-4
-4
-5
-6
-6
-7
-9
-9
-10
-11
-12
-13
-14
-15
-16
-16
-17
-18
-19
-20
-20
-21
-22
-23
-25
-25
-26
-26
-27
-28
-28
-28
-28
-28
-29
-29
-31
-31
-30
-30
-30
-30
-30
-30
-31
-31
-31
-31
-32
-33
-35
-35
-36
-38
-38
-39
-40
-40
-41
-41
-41
-42
-42
-43
-43
-43
-42
-42
-41
-41
-40
-39
-38
-37
-36
-36
-36
-35
-34
-33
-33
-33
-33
-33
-33
-33
-33
-33
-33
-34
-35
-35
-35
-35
-35
-36
-37
-37
-38
-39
-38
-39
-40
-40
-41
-41
-41
-42
-43
-43
-43
-43
-44
-43
-43
-43
-43
-44
-43
-43
-42
-42
-42
-42
-41
-41
-41
-40
-39
-40
-39
-40
-39
-39
-39
-38
-38
-39
-37
-37
-37
-36
-37
-37
-38
-37
-36
-37
-36
-36
-36
-36
-35
-35
-36
-35
-35
-35
-34
-33
-32
-30
-29
-28
-27
-26
-24
-23
-21
-20
-18
-16
-13
-12
-10
-8
-6
-5
-3
-1
-1
1
2
1
1
1
1
1
0
-1
-2
-3
-4
-4
-6
-7
-8
-9
-10
-10
-10
-10
-10
-10
-9
-8
-7
-5
-3
-1
2
5
8
11
15
19
22
25
30
34
39
43
47
52
56
60
64
70
75
79
85
91
95
101
106
110
115
119
123
127
133
137
142
147
152
158
163
169
175
181
187
193
200
206
212
218
224
228
233
238
240
243
245
245
245
244
243
241
238
234
229
225
220
215
209
203
198
193
188
184
179
175
170
166
163
159
156
151
148
143
139
134
129
124
119
112
106
99
92
86
80
74
68
61
55
49
44
39
33
28
23
19
15
12
9
6
4
2
0
-2
-3
-5
-7
-10
-12
-13
-14
-16
-17
-18
-20
-20
-22
-22
-23
-24
-25
-26
-26
-28
-28
-28
-30
-30
-30
-30
-31
-31
-31
-31
-31
-32
-32
-31
-31
-32
-33
-33
-33
-32
-32
-32
-32
-32
-32
-31
-32
-32
-32
-32
-33
-33
-33
-32
-31
-32
-33
-34
-33
-34
-34
-35
-36
-36
-37
-37
-37
-38
-39
-39
-39
-39
-40
-39
-40
-39
-39
-40
-39
-39
-39
-39
-39
-38
-37
-37
-36
-36
-36
-36
-37
-37
-37
-36
-37
-37
-37
-37
-35
-34
-34
-33
-33
-32
-33
-32
-31
-30
-29
-29
-28
-26
-25
-24
-23
-23
-22
-23
-23
-22
-23
-23
-24
-25
-25
-27
-27
-27
-27
-29
-30
-31
-32
-33
-34
-34
-36
-35
-35
-34
-35
-33
-33
-33
-32
-32
-31
-31
-29
-30
-30
-29
-28
-27
-26
-25
-26
-26
-26
-25
-24
-24
-24
-25
-25
-25
-25
-26
-25
-25
-24
-25
-24
-24
-24
-24
-25
-24
-24
-25
-24
-24
-24
-24
-25
-25
-25
-25
-25
-25
-27
-27
-27
-27
-27
-28
-28
-29
-30
-29
-30
-30
-30
-30
-31
-31
-32
-32
-33
-33
-34
-34
-33
-33
-34
-34
-35
-35
-35
-35
-35
-35
-34
-35
-35
-34
-34
-33
-34
-34
-35
-34
-34
-35
-34
-35
-35
-35
-35
-36
-35
-37
-38
-38
-39
-39
-39
-39
-39
-40
-41
-41
-42
-42
-42
-42
-42
-42
-42
-41
-40
-40
-40
-39
-40
-38
-37
-37
-37
-37
-36
-37
-36
-36
-35
-36
-36
-36
-36
-36
-35
-35
-35
-36
-35
-36
-35
-36
-35
-35
-36
-35
-34
-33
-33
-33
-33
-34
-33
-33
-33
-32
-33
-32
-32
-32
-32
-32
-33
-33
-33
-32
-31
-31
-31
-31
-30
-30
-29
-28
-28
-27
-27
-26
-26
-24
-23
-22
-22
-21
-21
-20
-19
-18
-18
-18
-19
-18
-18
-18
-17
-17
-18
-18
-19
-19
-19
-19
-19
-20
-21
-22
-22
-23
-23
-23
-24
-24
-24
-24
-24
-24
-24
-24
-25
-25
-25
-24
-25
-24
-25
-25
-25
-24
-25
-25
-26
-26
-27
-26
-26
-26
-26
-26
-27
-27
-26
-26
-25
-26
-26
-26
-25
-24
-24
-24
-24
-23
-23
-23
-22
-21
-22
-23
-22
-21
-22
-21
-21
-22
-22
-22
-22
-22
-22
-23
-23
-24
-23
-23
-24
-24
-24
-24
-25
-25
-24
-25
-25
-26
-26
-26
-26
-25
-25
-26
-26
-25
-25
-25
-24
-24
-24
-24
-24
-23
-22
-21
-21
-21
-22
-21
-20
-20
-19
-20
-20
-20
-20
-20
-19
-19
-18
-19
-19
-19
-18
-18
-18
-19
-19
-19
-18
-17
-17
-18
-17
-16
-17
-15
-15
-15
-15
-14
-14
-15
-13
-13
-13
-14
-14
-15
-14
-14
-15
-14
-15
-15
-14
-14
-15
-14
-15
-15
-15
-16
-15
-14
-14
-14
-15
-14
-14
-14
-14
-14
-15
-15
-15
-15
-14
-15
-16
-16
-16
-16
-16
-16
-16
-16
-17
-17
-17
-16
-16
-16
-16
-16
-17
-16
-17
-17
-17
-17
-17
-18
-17
-18
-19
-19
-19
-20
-20
-19
-20
-20
-21
-21
-21
-21
-20
-21
-22
-22
-22
-22
-22
-21
-22
-22
-23
-23
-23
-22
-23
-23
-24
-25
-24
-24
-23
-23
-24
-24
-25
-25
-24
-24
-25
-26
-25
-26
-25
-26
-26
-26
-26
-27
-27
-26
-26
-27
-27
-28
-28
-29
-28
-29
-29
-30
-30
-30
-31
-30
-30
-31
-31
-31
-31
-31
-30
-30
-31
-31
-32
-31
-31
-31
-32
-33
-32
-33
-32
-33
-33
-34
-35
-34
-35
-34
-35
-35
-36
-36
-36
-36
-35
-36
-37
-38
-38
-39
-39
-39
-40
-42
-43
-43
-42
-42
-43
-43
-42
-42
-43
-42
-42
-41
-40
-40
-39
-38
-35
-34
-33
-32
-33
-31
-30
-29
-28
-28
-28
-28
-28
-28
-27
-27
-27
-26
-27
-27
-26
-25
-26
-25
-25
-25
-24
-23
-23
-22
-21
-22
-21
-21
-20
-20
-20
-20
-21
-21
-20
-21
-22
-22
-22
-24
-23
-23
-24
-25
-26
-27
-28
-28
-28
-29
-30
-30
-30
-31
-30
-31
-31
-31
-32
-32
-32
-32
-32
-32
-33
-33
-33
-33
-33
-33
-34
-34
-35
-34
-35
-35
-35
-36
-36
-37
-37
-37
-37
-37
-38
-39
-39
-38
-39
-39
-39
-40
-40
-40
-40
-40
-40
-41
-41
-41
-41
-41
-40
-41
-42
-42
-42
-42
-42
-41
-41
-42
-42
-42
-41
-41
-41
-41
-42
-41
-41
-40
-40
-40
-39
-40
-40
-39
-38
-38
-37
-38
-38
-38
-37
-37
-37
-36
-36
-36
-36
-36
-35
-35
-36
-36
-36
-37
-36
-36
-36
-37
-37
-37
-37
-37
-37
-38
-38
-39
-39
-38
-38
-38
-39
-39
-39
-39
-39
-38
-38
-38
-38
-38
-38
-37
-38
-37
-37
-37
-37
-36
-35
-36
-36
-35
-35
-35
-35
-34
-34
-34
-34
-34
-32
-32
-32
-31
-30
-29
-28
-26
-26
-24
-22
-21
-19
-17
-15
-13
-11
-10
-8
-6
-4
-2
0
1
2
3
5
5
5
5
4
3
3
2
1
-1
-3
-4
-6
-7
-8
-9
-10
-11
-11
-11
-10
-10
-9
-7
-6
-4
-2
1
4
7
11
14
17
21
26
29
33
38
42
46
51
56
60
65
69
73
79
84
90
95
100
104
109
113
118
123
126
130
134
140
144
150
154
159
165
170
175
180
187
192
198
204
208
214
220
224
228
230
233
234
235
235
235
234
232
229
225
221
217
211
206
200
195
189
185
180
175
170
165
160
157
153
149
145
141
137
132
127
123
117
112
105
99
92
85
79
73
66
59
52
46
39
33
27
21
15
11
6
2
-1
-4
-7
-10
-13
-14
-16
-18
-20
-21
-22
-23
-24
-24
-25
-26
-28
-29
-31
-31
-32
-33
-34
-36
-37
-37
-37
-38
-40
-41
-42
-43
-44
-44
-44
-46
-46
-48
-49
-49
-49
-51
-52
-52
-52
-52
-52
-53
-54
-55
-55
-55
-55
-55
-56
-56
-57
-56
-55
-55
-55
-56
-56
-56
-56
-56
-56
-56
-56
-57
-57
-58
-57
-57
-58
-57
-57
-58
-58
-57
-57
-57
-58
-58
-58
-58
-57
-57
-57
-57
-57
-58
-57
-57
-57
-56
-57
-57
-56
-56
-56
-56
-57
-56
-56
-57
-57
-57
-57
-57
-57
-56
-57
-57
-57
-57
-58
-58
-57
-57
-57
-57
-57
-58
-58
-58
-57
-58
-58
-58
-59
-58
-58
-58
-58
-58
-59
-60
-60
-60
-61
-61
-61
-62
-62
-62
-62
-62
-62
-63
-62
-61
-61
-61
-61
-61
-62
-61
-61
-61
-61
-61
-61
-61
-61
-62
-61
-61
-62
-62
-62
-62
-62
-62
-63
-63
-64
-64
-64
-63
-64
-64
-64
-64
-64
-63
-63
-63
-64
-63
-65
-64
-64
-64
-64
-64
-65
-64
-64
-63
-63
-63
-63
-64
-64
-64
-63
-63
-63
-63
-62
-62
-62
-62
-62
-62
-62
-62
-63
-63
-63
-63
-64
-64
-65
-65
-65
-66
-67
-67
-67
-67
-67
-67
-68
-68
-68
-67
-68
-68
-68
-68
-68
-68
-68
-69
-69
-69
-70
-70
-69
-70
-70
-69
-70
-70
-72
-72
-72
-73
-73
-74
-75
-76
-77
-77
-77
-78
-79
-80
-81
-81
-81
-81
-82
-82
-83
-83
-82
-83
-82
-83
-83
-83
-82
-82
-82
-82
-82
-81
-82
-81
-81
-81
-81
-81
-81
-80
-80
-79
-80
-79
-79
-79
-78
-78
-76
-76
-76
-75
-76
-75
-74
-74
-74
-74
-73
-73
-72
-70
-70
-70
-69
-69
-68
-66
-66
-65
-64
-63
-63
-61
-60
-59
-58
-59
-58
-57
-56
-56
-55
-55
-56
-56
-56
-56
-56
-56
-56
-56
-57
-56
-55
-56
-56
-56
-56
-56
-55
-54
-55
-54
-54
-53
-53
-52
-51
-51
-51
-51
-51
-50
-49
-50
-50
-49
-50
-49
-49
-50
-49
-50
-50
-50
-50
-51
-51
-51
-51
-51
-51
-52
-52
-52
-52
-53
-54
-54
-54
-54
-54
-55
-55
-56
-56
-57
-56
-56
-57
-57
-57
-57
-57
-56
-57
-57
-56
-56
-55
-55
-55
-54
-54
-54
-53
-53
-53
-53
-52
-52
-52
-51
-51
-51
-51
-52
-51
-51
-51
-51
-51
-52
-51
-51
-52
-51
-51
-50
-51
-51
-51
-51
-51
-50
-51
-50
-51
-50
-50
-51
-50
-50
-50
-51
-50
-50
-50
-50
-50
-50
-50
-49
-49
-49
-48
-49
-48
-48
-47
-48
-46
-47
-47
-47
-47
-47
-46
-46
-46
-46
-47
-46
-46
-45
-45
-46
-46
-46
-45
-45
-44
-45
-44
-45
-44
-44
-44
-44
-44
-44
-44
-43
-42
-41
-41
-41
-42
-40
-40
-40
-40
-39
-40
-40
-40
-40
-39
-39
-40
-40
-40
-41
-40
-40
-40
-40
-40
-40
-40
-40
-40
-41
-41
-41
-41
-41
-41
-41
-41
-41
-41
-40
-40
-40
-41
-41
-42
-42
-43
-43
-43
-43
-43
-44
-44
-44
-44
-45
-46
-46
-46
-46
-47
-46
-47
-47
-48
-48
-48
-48
-48
-49
-49
-49
-49
-48
-48
-48
-49
-50
-49
-50
-50
-49
-49
-49
-49
-48
-47
-47
-47
-46
-46
-47
-46
-46
-45
-45
-45
-46
-45
-45
-45
-44
-44
-44
-45
-45
-46
-45
-45
-45
-46
-46
-46
-45
-45
-45
-46
-46
-46
-46
-45
-46
-46
-47
-48
-48
-48
-49
-50
-50
-51
-51
-51
-52
-52
-52
-53
-54
-54
-55
-55
-55
-55
-55
-56
-56
-56
-55
-55
-56
-56
-57
-57
-57
-57
-58
-58
-58
-58
-58
-58
-56
-57
-56
-56
-55
-55
-53
-52
-52
-51
-51
-49
-48
-47
-46
-46
-45
-45
-44
-44
-44
-43
-44
-44
-44
-43
-43
-44
-44
-45
-44
-45
-45
-44
-44
-43
-43
-43
-43
-42
-42
-42
-41
-42
-41
-40
-40
-40
-40
-41
-40
-40
-40
-40
-41
-42
-43
-43
-44
-44
-45
-46
-48
-49
-50
-51
-52
-53
-54
-56
-57
-57
-57
-58
-59
-59
-59
-60
-59
-60
-58
-59
-59
-60
-60
-59
-58
-58
-59
-59
-59
-59
-59
-58
-59
-59
-59
-60
-59
-59
-59
-59
-60
-60
-60
-60
-59
-59
-59
-59
-59
-59
-59
-58
-58
-59
-58
-58
-58
-57
-57
-57
-57
-58
-57
-56
-56
-56
-57
-56
-57
-57
-56
-56
-56
-56
-56
-56
-56
-55
-56
-56
-56
-57
-56
-56
-56
-56
-57
-56
-57
-57
-57
-57
-57
-58
-58
-58
-59
-59
-58
-58
-59
-59
-59
-58
-59
-58
-58
-59
-60
-59
-59
-59
-58
-58
-58
-58
-57
-57
-57
-57
-57
-58
-58
-57
-57
-58
-58
-58
-59
-60
-58
-59
-59
-59
-59
-59
-59
-58
-57
-57
-56
-55
-55
-53
-51
-50
-49
-47
-46
-43
-40
-38
-36
-33
-32
-30
-27
-25
-23
-21
-20
-17
-16
-15
-12
-12
-11
-11
-11
-11
-11
-12
-12
-14
-15
-15
-16
-17
-18
-20
-21
-22
-23
-24
-24
-24
-24
-24
-23
-22
-20
-19
-17
-16
-13
-10
-7
-3
0
3
7
10
15
19
24
29
33
37
41
46
50
55
60
64
68
73
79
85
89
93
97
101
105
110
115
119
123
127
132
138
143
149
155
160
165
171
178
184
191
196
202
206
211
216
219
221
224
225
226
226
226
224
222
219
215
211
207
202
197
193
188
183
178
173
169
164
159
155
151
147
143
139
134
130
124
118
114
108
101
95
88
81
74
67
61
53
45
38
31
25
19
13
7
1
-4
-8
-12
-15
-19
-22
-25
-28
-31
-33
-35
-36
-38
-40
-41
-42
-43
-43
-45
-47
-48
-49
-50
-51
-51
-52
-52
-53
-53
-53
-53
-53
-55
-55
-56
-56
-57
-56
-57
-57
-58
-58
-58
-58
-58
-57
-59
-59
-59
-59
-58
-58
-59
-61
-61
-61
-62
-62
-62
-63
-64
-64
-65
-65
-66
-67
-67
-68
-69
-69
-69
-70
-71
-71
-72
-73
-73
-73
-73
-74
-75
-74
-75
-75
-74
-74
-75
-75
-75
-75
-75
-75
-74
-75
-74
-74
-73
-73
-72
-72
-73
-72
-72
-71
-70
-71
-72
-72
-72
-72
-72
-72
-72
-72
-73
-72
-72
-72
-72
-72
-72
-72
-71
-71
-70
-70
-69
-69
-68
-67
-67
-66
-66
-67
-66
-66
-65
-65
-65
-66
-67
-67
-67
-67
-68
-68
-69
-69
-70
-70
-70
-70
-71
-72
-72
-72
-72
-71
-72
-72
-72
-72
-72
-71
-71
-71
-71
-72
-72
-72
-72
-72
-73
-73
-73
-73
-73
-74
-74
-75
-74
-75
-74
-74
-75
-74
-76
-75
-75
-74
-73
-73
-74
-73
-74
-73
-73
-72
-73
-73
-73
-72
-72
-72
-73
-72
-74
-74
-75
-74
-74
-75
-74
-75
-75
-75
-76
-75
-76
-76
-76
-76
-76
-75
-75
-76
-77
-77
-77
-77
-76
-76
-77
-78
-77
-78
-77
-78
-79
-79
-80
-81
-81
-81
-82
-82
-83
-83
-84
-83
-83
-83
-84
-85
-85
-85
-85
-86
-85
-85
-86
-86
-86
-86
-86
-86
-88
-88
-88
-87
-88
-88
-88
-89
-89
-89
-90
-89
-90
-90
-90
-90
-91
-91
-92
-92
-93
-94
-94
-95
-95
-95
-96
-97
-97
-97
-97
-97
-97
-98
-98
-99
-97
-97
-96
-96
-96
-95
-94
-93
-92
-91
-90
-90
-88
-88
-85
-84
-83
-83
-82
-80
-80
-79
-78
-78
-77
-76
-75
-74
-74
-73
-73
-73
-73
-73
-72
-71
-72
-72
-71
-72
-72
-72
-72
-72
-72
-72
-72
-72
-72
-72
-73
-73
-73
-74
-74
-73
-73
-73
-73
-73
-73
-72
-70
-70
-70
-69
-67
-66
-66
-65
-65
-65
-64
-63
-62
-62
-62
-61
-62
-61
-61
-61
-62
-61
-63
-63
-63
-63
-64
-64
-65
-65
-66
-66
-66
-66
-66
-66
-67
-66
-66
-67
-67
-67
-67
-67
-66
-66
-66
-65
-65
-64
-64
-64
-63
-62
-62
-61
-62
-61
-60
-60
-60
-60
-60
-60
-60
-61
-61
-61
-61
-62
-63
-63
-64
-63
-63
-64
-64
-64
-63
-63
-64
-64
-65
-65
-65
-65
-64
-64
-64
-64
-65
-64
-64
-63
-64
-64
-64
-64
-63
-62
-62
-62
-62
-61
-61
-60
-60
-58
-59
-59
-59
-59
-59
-58
-58
-58
-59
-59
-59
-59
-58
-59
-59
-59
-59
-58
-58
-59
-58
-59
-59
-59
-59
-59
-59
-60
-59
-60
-59
-59
-59
-59
-59
-59
-59
-58
-58
-58
-59
-59
-60
-60
-60
-61
-60
-62
-62
-62
-62
-62
-63
-63
-64
-65
-65
-65
-65
-65
-65
-66
-65
-66
-66
-65
-65
-65
-66
-65
-64
-64
-63
-63
-63
-64
-62
-63
-62
-62
-62
-61
-61
-61
-60
-60
-61
-60
-62
-62
-61
-62
-62
-63
-64
-64
-65
-66
-66
-66
-67
-68
-68
-68
-68
-69
-69
-69
-69
-69
-69
-68
-68
-68
-68
-69
-68
-68
-67
-67
-67
-68
-68
-68
-69
-68
-69
-70
-71
-71
-71
-71
-71
-72
-73
-74
-74
-74
-74
-75
-76
-76
-76
-77
-76
-77
-77
-77
-78
-78
-77
-76
-77
-77
-78
-78
-78
-77
-78
-78
-78
-78
-78
-79
-78
-79
-79
-80
-80
-80
-80
-81
-81
-82
-83
-84
-84
-83
-84
-84
-84
-84
-84
-85
-85
-84
-84
-84
-85
-85
-84
-84
-83
-83
-83
-84
-83
-82
-82
-83
-82
-83
-82
-82
-81
-81
-80
-80
-80
-79
-78
-77
-77
-75
-75
-75
-74
-72
-72
-72
-72
-72
-72
-72
-72
-72
-72
-72
-73
-72
-73
-73
-73
-73
-74
-75
-74
-74
-74
-74
-74
-75
-74
-73
-74
-73
-74
-74
-74
-74
-73
-73
-73
-74
-75
-75
-75
-75
-75
-75
-76
-76
-76
-76
-77
-77
-78
-78
-78
-79
-79
-79
-79
-80
-81
-80
-81
-81
-81
-81
-82
-83
-83
-84
-84
-84
-85
-86
-87
-87
-88
-89
-89
-91
-92
-93
-94
-95
-96
-97
-98
-98
-100
-99
-99
-98
-99
-99
-99
-98
-97
-96
-96
-95
-95
-95
-93
-93
-92
-91
-92
-91
-91
-91
-91
-91
-91
-91
-92
-91
-91
-91
-90
-90
-91
-91
-91
-90
-90
-90
-90
-90
-90
-90
-89
-89
-89
-90
-90
-90
-90
-90
-90
-91
-91
-92
-92
-92
-93
-93
-94
-95
-96
-96
-98
-98
-99
-100
-102
-101
-102
-103
-103
-103
-105
-104
-105
-105
-104
-104
-104
-104
-104
-102
-101
-100
-100
-99
-99
-98
-96
-95
-95
-94
-94
-93
-92
-91
-90
-90
-90
-90
-90
-90
-89
-89
-89
-89
-88
-87
-86
-85
-84
-83
-83
-82
-80
-78
-76
-74
-72
-71
-69
-66
-64
-62
-60
-59
-58
-57
-56
-55
-55
-56
-56
-57
-58
-59
-60
-63
-65
-66
-68
-71
-73
-74
-77
-79
-80
-80
-79
-78
-77
-75
-75
-72
-69
-66
-63
-59
-55
-51
-47
-41
-36
-31
-26
-21
-17
-11
-6
-2
3
7
12
16
21
28
33
37
41
45
49
54
58
62
65
68
72
77
81
85
89
93
98
102
108
113
120
125
130
136
141
148
153
158
161
166
169
172
175
177
178
178
177
176
174
171
168
163
159
153
148
144
140
134
129
124
118
114
109
104
99
93
87
80
75
69
63
56
49
42
35
28
21
14
7
-1
-7
-14
-19
-25
-30
-35
-41
-45
-49
-52
-55
-57
-60
-63
-65
-67
-68
-70
-72
-73
-75
-76
-77
-77
-78
-79
-80
-81
-81
-81
-81
-82
-82
-82
-82
-81
-81
-81
-81
-82
-82
-82
-82
-83
-84
-85
-87
-89
-90
-92
-93
-95
-97
-98
-100
-101
-102
-104
-105
-106
-107
-107
-107
-107
-108
-107
-108
-108
-107
-106
-106
-106
-106
-106
-106
-105
-105
-105
-105
-105
-106
-105
-105
-105
-105
-106
-106
-106
-106
-106
-106
-106
-106
-106
-106
-106
-105
-105
-106
-106
-107
-106
-106
-107
-107
-107
-108
-108
-108
-107
-108
-107
-108
-108
-109
-108
-107
-108
-108
-108
-107
-107
-105
-106
-105
-105
-105
-106
-106
-106
-107
-107
-108
-108
-108
-108
-109
-108
-109
-109
-110
-110
-109
-109
-108
-108
-108
-107
-107
-106
-105
-105
-105
-105
-103
-103
-102
-102
-102
-103
-103
-102
-102
-103
-102
-103
-103
-104
-103
-104
-104
-104
-106
-106
-106
-106
-106
-106
-106
-106
-106
-106
-106
-105
-106
-106
-106
-107
-107
-107
-107
-108
-108
-109
-109
-109
-109
-108
-109
-108
-108
-107
-106
-107
-106
-106
-106
-107
-107
-107
-106
-107
-107
-108
-108
-109
-109
-109
-110
-111
-111
-111
-110
-110
-110
-110
-110
-108
-108
-106
-105
-104
-104
-103
-102
-101
-101
-101
-100
-100
-101
-100
-100
-100
-101
-101
-102
-102
-101
-102
-101
-102
-102
-102
-102
-102
-102
-102
-102
-102
-103
-103
-103
-103
-104
-105
-106
-107
-109
-110
-111
-113
-116
-118
-121
-123
-126
-128
-131
-134
-137
-139
-141
-143
-145
-145
-147
-147
-148
-147
-147
-147
-146
-144
-143
-141
-138
-136
-134
-131
-128
-124
-121
-118
-115
-112
-110
-108
-105
-104
-102
-100
-99
-98
-98
-97
-96
-96
-96
-96
-97
-96
-97
-97
-97
-98
-99
-99
-100
-100
-101
-102
-103
-104
-105
-106
-105
-105
-106
-106
-107
-108
-107
-108
-108
-108
-108
-109
-108
-108
-108
-107
-108
-108
-108
-108
-108
-108
-108
-109
-110
-111
-112
-112
-113
-115
-116
-117
-118
-118
-119
-119
-121
-121
-121
-121
-122
-122
-122
-122
-122
-123
-122
-122
-122
-122
-121
-121
-121
-121
-121
-122
-123
-122
-123
-122
-123
-123
-123
-124
-125
-124
-125
-124
-124
-125
-125
-126
-125
-125
-126
-126
-127
-128
-129
-129
-129
-130
-130
-131
-131
-132
-131
-131
-132
-132
-132
-132
-131
-131
-130
-130
-130
-129
-129
-128
-128
-128
-128
-128
-127
-126
-126
-125
-125
-125
-125
-124
-123
-122
-121
-121
-121
-120
-120
-119
-118
-117
-117
-118
-117
-118
-117
-118
-117
-118
-119
-119
-119
-119
-119
-119
-119
-120
-120
-119
-118
-117
-118
-118
-117
-116
-116
-115
-115
-115
-116
-116
-116
-116
-115
-116
-115
-115
-115
-115
-115
-115
-114
-114
-114
-114
-113
-112
-112
-111
-112
-111
-110
-110
-109
-109
-109
-108
-108
-107
-107
-107
-107
-107
-107
-106
-106
-105
-105
-105
-105
-105
-104
-104
-104
-104
-104
-104
-104
-104
-104
-104
-105
-106
-106
-106
-106
-106
-107
-107
-109
-108
-109
-108
-109
-110
-110
-110
-111
-110
-111
-110
-110
-110
-111
-110
-109
-109
-109
-108
-108
-108
-107
-107
-106
-105
-106
-105
-104
-104
-103
-103
-102
-102
-102
-102
-102
-101
-101
-101
-102
-102
-101
-102
-102
-103
-103
-104
-104
-105
-105
-105
-106
-107
-107
-108
-107
-107
-108
-109
-109
-110
-109
-110
-109
-110
-110
-111
-110
-110
-110
-110
-110
-110
-109
-108
-107
-107
-106
-105
-105
-104
-103
-102
-100
-100
-100
-100
-99
-99
-97
-97
-97
-98
-98
-97
-97
-97
-97
-98
-99
-99
-98
-98
-98
-99
-99
-100
-99
-99
-98
-98
-99
-98
-99
-98
-98
-98
-98
-99
-99
-99
-98
-97
-96
-96
-96
-96
-95
-95
-94
-93
-93
-92
-92
-90
-89
-88
-87
-87
-86
-86
-85
-84
-84
-85
-85
-84
-84
-85
-84
-84
-83
-84
-83
-83
-81
-82
-81
-81
-81
-80
-80
-79
-78
-77
-77
-76
-76
-76
-76
-75
-76
-76
-76
-77
-77
-77
-78
-78
-80
-80
-81
-81
-81
-82
-83
-83
-84
-84
-84
-84
-85
-85
-85
-86
-86
-85
-85
-86
-86
-87
-86
-86
-87
-87
-87
-87
-87
-87
-87
-86
-87
-87
-87
-86
-85
-85
-86
-86
-86
-86
-86
-86
-85
-86
-87
-87
-87
-87
-86
-86
-87
-88
-88
-87
-87
-88
-89
-89
-89
-89
-88
-89
-88
-88
-88
-87
-87
-86
-85
-85
-84
-84
-84
-83
-82
-81
-80
-79
-79
-78
-77
-76
-76
-76
-76
-77
-77
-76
-76
-76
-76
-77
-77
-77
-77
-78
-78
-78
-79
-78
-79
-78
-78
-78
-79
-79
-79
-78
-77
-77
-76
-76
-75
-75
-74
-73
-73
-73
-72
-72
-71
-70
-70
-70
-70
-70
-70
-71
-70
-71
-72
-72
-72
-73
-73
-73
-74
-75
-76
-77
-77
-77
-78
-78
-78
-79
-79
-78
-77
-77
-77
-76
-75
-74
-72
-71
-70
-68
-65
-63
-62
-59
-57
-54
-52
-48
-46
-43
-41
-38
-37
-35
-34
-33
-32
-31
-31
-32
-33
-34
-34
-35
-37
-39
-41
-43
-45
-47
-47
-49
-50
-51
-51
-51
-50
-49
-48
-46
-45
-43
-41
-38
-34
-32
-29
-26
-22
-18
-13
-10
-6
-2
2
7
11
15
20
25
30
35
40
46
51
57
62
67
71
77
81
86
91
95
100
104
110
115
120
124
129
135
140
146
152
158
164
169
175
181
186
190
193
196
199
202
202
204
203
202
201
198
195
191
187
182
177
173
168
164
159
154
148
144
140
135
132
127
123
118
113
109
103
98
93
87
80
75
69
63
56
49
43
37
31
25
19
14
8
3
-1
-6
-11
-14
-17
-20
-22
-25
-27
-29
-31
-32
-35
-37
-38
-39
-40
-41
-42
-44
-44
-45
-47
-47
-48
-49
-51
-52
-53
-54
-56
-57
-57
-59
-59
-60
-61
-62
-63
-64
-65
-66
-66
-67
-67
-68
-69
-68
-68
-69
-69
-69
-69
-69
-70
-69
-69
-69
-69
-70
-70
-70
-70
-69
-70
-71
-71
-72
-72
-72
-73
-74
-74
-74
-74
-74
-74
-73
-73
-73
-73
-72
-71
-70
-70
-70
-68
-68
-67
-67
-65
-65
-64
-64
-63
-63
-62
-62
-62
-62
-62
-62
-62
-62
-61
-62
-62
-63
-63
-63
-64
-64
-65
-64
-65
-65
-65
-65
-65
-66
-67
-67
-67
-67
-67
-67
-67
-68
-67
-66
-67
-67
-66
-67
-67
-66
-65
-66
-65
-65
-66
-66
-67
-66
-66
-67
-68
-68
-68
-68
-69
-69
-69
-69
-69
-68
-68
-68
-68
-68
-67
-67
-67
-66
-66
-66
-65
-65
-65
-64
-63
-63
-64
-63
-63
-63
-63
-62
-62
-63
-63
-63
-62
-63
-63
-62
-63
-63
-63
-63
-62
-63
-63
-62
-63
-62
-62
-62
-62
-62
-63
-63
-63
-63
-63
-63
-63
-63
-63
-62
-63
-63
-64
-64
-64
-64
-64
-64
-64
-64
-65
-64
-64
-64
-64
-63
-64
-64
-64
-63
-64
-65
-65
-64
-65
-65
-65
-64
-65
-66
-66
-66
-66
-66
-67
-66
-67
-67
-67
-67
-67
-67
-67
-68
-68
-68
-68
-68
-68
-69
-69
-69
-69
-69
-70
-69
-70
-71
-71
-71
-71
-72
-72
-72
-72
-72
-73
-72
-73
-73
-73
-73
-73
-73
-73
-73
-73
-74
-74
-74
-74
-74
-74
-75
-74
-75
-75
-74
-74
-74
-75
-75
-75
-75
-75
-76
-75
-75
-75
-75
-74
-75
-74
-74
-74
-73
-71
-71
-70
-69
-69
-69
-67
-66
-65
-64
-64
-63
-61
-59
-58
-58
-57
-56
-54
-53
-52
-51
-49
-49
-48
-48
-47
-46
-44
-44
-44
-44
-43
-42
-43
-42
-42
-43
-43
-42
-42
-43
-43
-43
-43
-44
-43
-43
-44
-44
-45
-45
-45
-44
-44
-44
-45
-46
-46
-45
-45
-45
-45
-46
-45
-45
-45
-44
-44
-45
-45
-45
-45
-44
-44
-44
-44
-45
-44
-45
-44
-44
-44
-45
-46
-46
-45
-46
-46
-45
-46
-46
-46
-45
-46
-45
-46
-45
-45
-45
-44
-43
-44
-43
-44
-42
-43
-42
-42
-42
-42
-42
-42
-41
-41
-41
-41
-41
-41
-40
-41
-40
-40
-41
-40
-41
-41
-42
-41
-42
-42
-42
-42
-41
-40
-40
-41
-40
-40
-40
-39
-38
-39
-38
-38
-37
-36
-37
-36
-36
-35
-36
-34
-35
-34
-34
-35
-34
-34
-34
-33
-33
-33
-34
-33
-33
-33
-32
-32
-32
-32
-32
-32
-32
-31
-31
-32
-31
-32
-31
-31
-31
-31
-31
-32
-31
-31
-31
-30
-31
-31
-31
-31
-30
-30
-30
-31
-30
-30
-29
-29
-28
-29
-28
-29
-28
-28
-27
-27
-27
-26
-27
-26
-26
-25
-25
-26
-25
-25
-25
-25
-25
-25
-26
-26
-26
-26
-26
-26
-27
-28
-28
-28
-28
-29
-28
-29
-29
-28
-28
-29
-29
-29
-29
-29
-28
-29
-27
-28
-27
-28
-28
-28
-28
-28
-27
-28
-28
-28
-28
-28
-28
-28
-29
-29
-29
-30
-30
-30
-31
-30
-31
-30
-30
-31
-31
-31
-32
-32
-32
-31
-31
-31
-31
-31
-31
-31
-31
-31
-32
-31
-32
-31
-31
-32
-31
-32
-32
-32
-33
-32
-32
-32
-33
-33
-33
-32
-33
-32
-33
-32
-33
-33
-32
-32
-33
-33
-33
-32
-32
-32
-32
-32
-32
-32
-32
-32
-32
-32
-32
-33
-32
-32
-33
-32
-33
-33
-34
-34
-34
-34
-34
-35
-36
-36
-37
-37
-37
-38
-39
-39
-39
-39
-38
-39
-39
-38
-39
-37
-37
-36
-35
-34
-34
-33
-32
-30
-30
-29
-27
-27
-25
-24
-24
-23
-22
-22
-22
-21
-21
-20
-20
-21
-21
-21
-21
-21
-21
-21
-23
-23
-23
-23
-24
-24
-24
-25
-25
-26
-26
-26
-26
-27
-28
-28
-29
-29
-29
-29
-30
-31
-31
-31
-32
-32
-32
-33
-35
-35
-35
-35
-36
-37
-37
-37
-38
-37
-38
-38
-39
-38
-39
-39
-39
-39
-39
-39
-39
-39
-39
-38
-38
-39
-39
-40
-40
-39
-39
-39
-40
-41
-41
-41
-40
-40
-40
-41
-41
-40
-41
-40
-41
-41
-41
-41
-41
-41
-40
-40
-40
-41
-40
-40
-40
-40
-39
-40
-39
-39
-39
-39
-38
-39
-40
-39
-40
-39
-40
-39
-40
-40
-40
-41
-41
-40
-41
-41
-42
-41
-41
-41
-40
-41
-42
-41
-41
-42
-41
-41
-42
-42
-42
-42
-42
-43
-42
-44
-43
-44
-43
-43
-43
-43
-43
-43
-43
-42
-42
-41
-42
-42
-41
-40
-40
-40
-40
-40
-41
-41
-40
-40
-40
-41
-42
-42
-42
-42
-41
-42
-42
-42
-43
-42
-42
-42
-41
-41
-41
-40
-39
-38
-37
-36
-35
-34
-32
-31
-29
-28
-27
-26
-23
-21
-18
-16
-14
-13
-11
-9
-6
-4
-3
-2
-1
-1
-1
-1
-1
-2
-3
-5
-6
-7
-10
-11
-14
-15
-18
-20
-21
-22
-22
-23
-24
-24
-23
-21
-19
-16
-14
-11
-9
-5
-1
3
6
10
14
19
24
29
34
39
43
48
53
58
62
67
72
78
84
90
95
100
105
110
114
120
125
130
135
141
146
152
158
164
171
178
184
191
197
205
212
220
227
234
240
247
253
258
262
265
268
270
272
274
274
274
273
270
267
265
262
258
255
251
247
244
242
239
236
232
229
225
222
217
213
208
203
196
189
182
175
167
158
149
140
131
121
111
101
91
82
72
63
56
48
41
34
27
22
16
13
8
5
3
0
-2
-3
-6
-7
-10
-12
-14
-15
-16
-18
-18
-20
-22
-23
-25
-27
-28
-29
-30
-32
-33
-33
-34
-35
-36
-37
-38
-39
-39
-39
-39
-41
-41
-42
-42
-43
-43
-43
-44
-45
-44
-45
-45
-45
-46
-46
-46
-46
-46
-46
-46
-46
-46
-46
-46
-45
-45
-46
-47
-46
-47
-46
-46
-47
-47
-47
-48
-48
-47
-48
-48
-48
-49
-49
-49
-50
-49
-50
-50
-51
-50
-50
-50
-50
-49
-50
-50
-50
-50
-50
-50
-50
-51
-50
-50
-49
-49
-50
-51
-51
-51
-51
-50
-50
-51
-52
-52
-52
-52
-52
-53
-53
-53
-53
-54
-54
-54
-54
-55
-54
-54
-55
-54
-54
-55
-55
-55
-55
-54
-54
-54
-55
-54
-55
-54
-54
-54
-54
-54
-54
-54
-53
-54
-53
-54
-53
-53
-54
-53
-52
-52
-52
-53
-53
-52
-53
-52
-53
-53
-54
-53
-53
-53
-53
-53
-54
-55
-55
-55
-55
-55
-56
-57
-56
-57
-56
-56
-56
-57
-56
-56
-55
-56
-56
-55
-56
-55
-55
-55
-55
-54
-54
-54
-54
-54
-54
-54
-55
-55
-56
-55
-56
-55
-56
-56
-58
-57
-58
-58
-58
-59
-59
-60
-60
-60
-60
-60
-61
-61
-61
-61
-60
-60
-60
-61
-61
-62
-62
-62
-62
-63
-63
-64
-63
-63
-64
-65
-65
-66
-66
-66
-67
-67
-67
-67
-68
-69
-69
-69
-69
-69
-69
-70
-70
-70
-71
-71
-72
-73
-73
-73
-74
-75
-75
-76
-76
-77
-78
-78
-79
-79
-80
-80
-81
-81
-81
-81
-81
-82
-81
-81
-81
-80
-80
-81
-81
-80
-81
-80
-80
-80
-80
-80
-80
-79
-78
-79
-78
-79
-78
-78
-78
-77
-76
-77
-76
-76
-75
-73
-73
-72
-71
-71
-70
-69
-68
-67
-66
-66
-65
-64
-62
-62
-61
-61
-60
-60
-59
-58
-58
-56
-57
-57
-56
-56
-55
-55
-55
-54
-54
-54
-54
-53
-53
-53
-53
-53
-53
-52
-52
-52
-52
-51
-51
-51
-51
-51
-51
-50
-51
-50
-50
-50
-49
-50
-49
-50
-49
-49
-49
-50
-50
-50
-50
-50
-50
-50
-51
-50
-51
-50
-50
-50
-50
-51
-51
-51
-50
-50
-49
-50
-50
-50
-50
-49
-48
-48
-49
-49
-49
-49
-48
-47
-47
-48
-49
-49
-50
-49
-50
-51
-50
-51
-51
-51
-51
-51
-51
-52
-51
-51
-51
-50
-50
-50
-50
-50
-49
-49
-48
-47
-47
-46
-46
-46
-45
-44
-45
-45
-45
-44
-43
-44
-44
-44
-44
-44
-44
-44
-44
-44
-45
-45
-46
-45
-46
-45
-45
-45
-44
-44
-44
-43
-44
-44
-43
-43
-43
-42
-41
-40
-41
-41
-41
-40
-40
-40
-40
-41
-40
-40
-40
-40
-40
-40
-40
-41
-41
-40
-40
-40
-40
-41
-41
-40
-40
-39
-39
-39
-39
-38
-37
-37
-36
-36
-36
-36
-35
-35
-35
-35
-35
-36
-35
-35
-35
-35
-35
-36
-36
-36
-36
-36
-36
-37
-37
-37
-38
-37
-37
-37
-38
-38
-38
-38
-38
-38
-38
-38
-39
-39
-38
-38
-38
-38
-38
-38
-38
-38
-38
-38
-38
-38
-38
-38
-38
-38
-38
-38
-38
-38
-38
-38
-38
-38
-39
-39
-39
-39
-40
-40
-41
-40
-40
-41
-40
-41
-42
-42
-43
-43
-43
-42
-42
-43
-42
-42
-42
-41
-41
-40
-40
-39
-39
-39
-38
-37
-37
-37
-37
-36
-36
-36
-36
-36
-36
-36
-37
-36
-37
-37
-38
-39
-39
-39
-40
-39
-40
-40
-40
-41
-40
-40
-40
-40
-41
-41
-40
-40
-40
-40
-41
-41
-41
-40
-40
-40
-40
-41
-41
-41
-41
-41
-41
-41
-42
-42
-42
-42
-42
-42
-42
-43
-43
-44
-43
-43
-44
-44
-45
-43
-43
-43
-43
-42
-42
-42
-41
-40
-39
-39
-38
-38
-37
-37
-35
-35
-34
-35
-34
-33
-32
-31
-31
-31
-31
-32
-31
-31
-32
-33
-33
-34
-35
-35
-35
-35
-36
-37
-37
-38
-37
-37
-37
-38
-39
-39
-39
-39
-40
-41
-41
-41
-42
-43
-43
-44
-45
-46
-46
-47
-47
-48
-48
-50
-49
-51
-51
-52
-51
-52
-52
-52
-52
-53
-53
-54
-53
-54
-55
-55
-54
-55
-56
-55
-56
-56
-55
-55
-55
-56
-55
-55
-55
-56
-55
-55
-56
-55
-56
-55
-55
-56
-56
-56
-58
-58
-59
-58
-59
-59
-60
-61
-61
-62
-61
-62
-62
-63
-63
-63
-62
-63
-62
-63
-63
-63
-63
-62
-62
-62
-62
-63
-63
-62
-61
-61
-62
-61
-61
-62
-62
-61
-61
-61
-62
-62
-61
-62
-61
-62
-61
-62
-62
-62
-63
-63
-64
-64
-65
-64
-64
-64
-64
-64
-65
-64
-65
-65
-65
-65
-66
-67
-67
-67
-67
-67
-68
-69
-69
-70
-70
-70
-72
-73
-73
-73
-73
-74
-73
-74
-75
-75
-75
-75
-74
-74
-75
-74
-74
-74
-73
-73
-72
-72
-72
-71
-70
-69
-67
-67
-66
-65
-64
-62
-61
-59
-58
-57
-55
-54
-52
-51
-49
-48
-46
-45
-43
-42
-40
-40
-40
-40
-40
-40
-40
-41
-42
-44
-46
-48
-49
-51
-53
-55
-57
-58
-59
-60
-60
-60
-61
-59
-59
-57
-55
-53
-51
-48
-44
-41
-38
-34
-29
-24
-20
-15
-10
-5
0
5
10
15
21
26
33
39
44
51
57
64
70
76
81
86
91
96
102
107
112
117
123
129
135
141
148
154
160
167
175
183
191
198
207
214
221
228
235
241
246
251
254
258
260
262
264
264
263
262
260
257
255
251
246
243
239
235
231
227
222
218
213
208
203
198
192
185
178
170
162
155
146
138
128
118
108
97
87
77
67
56
47
37
28
20
11
4
-4
-11
-16
-21
-26
-29
-32
-37
-41
-43
-46
-48
-51
-54
-56
-58
-60
-61
-63
-65
-67
-68
-69
-71
-71
-73
-74
-74
-75
-76
-75
-75
-76
-76
-76
-76
-76
-77
-76
-76
-76
-77
-78
-78
-79
-79
-81
-82
-83
-84
-84
-85
-86
-86
-87
-88
-89
-89
-89
-89
-90
-89
-90
-89
-88
-89
-88
-88
-88
-87
-87
-86
-85
-84
-84
-85
-84
-83
-83
-81
-81
-82
-81
-82
-81
-81
-81
-81
-82
-82
-82
-81
-81
-81
-83
-84
-83
-84
-84
-85
-85
-86
-85
-85
-85
-84
-84
-85
-85
-85
-84
-84
-84
-83
-82
-81
-80
-78
-76
-75
-75
-73
-72
-70
-68
-67
-66
-66
-64
-63
-62
-62
-60
-61
-61
-61
-61
-61
-61
-61
-62
-62
-63
-63
-63
-63
-63
-64
-64
-64
-64
-64
-63
-63
