# Simple Text Format
# Sampling Rate (Hz):= 1200.00
# Resolution:= 12
# Labels:= ECG	aVR
# Age:=	76
# Gender:=	Masculino
-405
-405
-405
-405
-405
-405
-405
-405
-405
-405
-404
-405
-405
-405
-405
-405
-405
-406
-405
-405
-405
-404
-404
-404
-405
-405
-404
-404
-403
-404
-403
-403
-403
-403
-402
-402
-401
-402
-402
-401
-401
-400
-400
-401
-402
-403
-402
-402
-402
-402
-403
-403
-403
-403
-403
-403
-403
-403
-403
-403
-403
-402
-403
-403
-403
-404
-403
-402
-401
-402
-402
-402
-402
-402
-401
-401
-401
-401
-401
-401
-400
-399
-398
-398
-398
-398
-397
-396
-396
-396
-397
-397
-396
-395
-395
-395
-395
-396
-396
-396
-396
-395
-395
-396
-397
-397
-397
-397
-397
-398
-398
-398
-398
-398
-398
-398
-397
-398
-398
-398
-398
-397
-397
-397
-397
-397
-396
-395
-395
-395
-394
-395
-394
-394
-394
-393
-394
-393
-393
-393
-392
-392
-392
-392
-392
-392
-392
-391
-391
-391
-391
-391
-390
-389
-388
-388
-388
-388
-388
-387
-388
-387
-387
-388
-387
-387
-387
-386
-387
-387
-387
-387
-387
-388
-388
-388
-389
-389
-389
-389
-388
-389
-389
-388
-389
-389
-388
-387
-387
-387
-386
-386
-386
-385
-384
-384
-383
-384
-384
-384
-383
-383
-383
-382
-383
-383
-383
-382
-382
-383
-384
-383
-383
-384
-383
-383
-383
-384
-383
-382
-382
-382
-381
-382
-381
-381
-380
-380
-380
-380
-380
-380
-380
-379
-378
-378
-378
-378
-378
-378
-378
-377
-377
-378
-377
-377
-378
-377
-377
-377
-377
-377
-378
-377
-378
-378
-379
-380
-379
-379
-379
-378
-378
-379
-379
-379
-379
-379
-378
-378
-378
-378
-377
-377
-376
-376
-376
-376
-377
-375
-375
-375
-375
-374
-375
-375
-374
-373
-373
-373
-373
-374
-373
-372
-373
-372
-372
-372
-373
-372
-371
-372
-372
-371
-372
-372
-372
-371
-371
-372
-373
-374
-374
-373
-372
-372
-373
-374
-373
-374
-373
-373
-373
-373
-372
-372
-372
-372
-371
-371
-371
-371
-371
-370
-369
-369
-369
-370
-370
-370
-369
-368
-368
-369
-369
-369
-369
-369
-369
-369
-369
-369
-369
-368
-368
-368
-368
-369
-368
-368
-368
-367
-367
-367
-368
-369
-369
-368
-368
-368
-368
-368
-368
-368
-368
-368
-368
-368
-368
-368
-368
-367
-367
-367
-367
-367
-366
-366
-365
-365
-365
-365
-365
-365
-364
-364
-364
-364
-365
-364
-365
-364
-365
-365
-366
-365
-366
-365
-365
-365
-364
-365
-365
-364
-364
-364
-364
-364
-364
-363
-362
-363
-361
-362
-362
-361
-362
-361
-361
-361
-361
-362
-361
-361
-360
-360
-361
-362
-361
-362
-361
-361
-361
-361
-361
-361
-362
-362
-362
-363
-363
-363
-363
-363
-362
-362
-362
-362
-363
-362
-361
-361
-361
-360
-361
-360
-360
-358
-358
-359
-359
-358
-358
-358
-357
-357
-356
-357
-357
-357
-356
-356
-356
-357
-356
-357
-356
-356
-356
-357
-358
-357
-358
-357
-357
-357
-358
-358
-359
-359
-359
-360
-361
-362
-364
-364
-364
-364
-364
-365
-365
-366
-366
-366
-366
-366
-366
-366
-366
-365
-365
-364
-364
-364
-364
-364
-363
-363
-362
-362
-362
-362
-363
-362
-361
-362
-361
-361
-361
-361
-359
-359
-359
-359
-359
-358
-357
-357
-356
-356
-356
-356
-355
-354
-353
-353
-352
-352
-352
-351
-351
-351
-350
-351
-351
-349
-350
-349
-348
-349
-350
-350
-351
-350
-351
-352
-353
-354
-355
-355
-356
-356
-357
-359
-359
-360
-360
-360
-360
-361
-362
-362
-361
-360
-358
-357
-357
-356
-355
-354
-353
-352
-351
-349
-349
-349
-348
-347
-346
-346
-345
-346
-345
-344
-344
-343
-344
-344
-344
-344
-343
-344
-344
-344
-343
-344
-343
-344
-344
-344
-344
-345
-346
-345
-345
-345
-345
-345
-346
-346
-346
-345
-346
-345
-346
-347
-346
-346
-345
-346
-346
-346
-346
-345
-344
-344
-344
-345
-346
-345
-344
-344
-344
-345
-345
-346
-346
-345
-344
-344
-344
-344
-344
-343
-342
-341
-340
-340
-339
-338
-336
-336
-336
-335
-335
-334
-333
-332
-331
-330
-330
-330
-329
-329
-328
-326
-326
-326
-325
-325
-323
-321
-319
-317
-316
-314
-312
-310
-307
-306
-305
-304
-304
-303
-302
-302
-301
-301
-301
-302
-303
-303
-305
-307
-308
-309
-311
-312
-313
-314
-316
-317
-317
-318
-319
-319
-321
-322
-323
-324
-324
-325
-325
-327
-329
-330
-332
-333
-335
-337
-340
-343
-345
-347
-349
-351
-353
-356
-358
-360
-362
-363
-364
-365
-366
-367
-368
-368
-368
-369
-369
-368
-368
-367
-366
-365
-364
-363
-362
-361
-359
-358
-357
-356
-354
-353
-350
-348
-347
-345
-343
-341
-339
-336
-333
-330
-329
-326
-324
-322
-319
-317
-315
-314
-312
-310
-309
-306
-305
-304
-304
-302
-301
-300
-299
-298
-299
-300
-300
-300
-300
-300
-301
-301
-303
-303
-304
-305
-307
-308
-311
-312
-314
-316
-317
-318
-319
-321
-322
-324
-325
-325
-327
-328
-329
-329
-329
-330
-330
-331
-332
-332
-331
-331
-331
-330
-329
-330
-330
-330
-329
-329
-329
-329
-329
-329
-329
-328
-329
-329
-329
-330
-330
-329
-330
-330
-330
-330
-331
-330
-331
-330
-330
-332
-332
-332
-331
-332
-330
-330
-330
-331
-331
-330
-330
-330
-330
-330
-330
-330
-330
-330
-329
-330
-330
-330
-329
-329
-329
-330
-331
-331
-332
-331
-330
-331
-330
-331
-331
-331
-331
-330
-329
-329
-329
-329
-328
-327
-327
-325
-326
-326
-325
-324
-323
-322
-322
-322
-322
-322
-322
-321
-321
-320
-321
-321
-321
-320
-320
-321
-322
-322
-322
-321
-321
-321
-321
-322
-321
-321
-321
-320
-321
-320
-321
-321
-321
-320
-320
-320
-320
-320
-320
-319
-319
-320
-321
-321
-322
-321
-321
-320
-320
-321
-322
-321
-322
-322
-322
-322
-322
-322
-322
-321
-320
-320
-320
-320
-320
-320
-319
-318
-318
-319
-319
-318
-317
-317
-317
-316
-317
-317
-317
-316
-316
-315
-315
-315
-315
-314
-315
-314
-314
-313
-313
-314
-313
-312
-312
-313
-312
-313
-312
-312
-311
-311
-312
-312
-312
-312
-313
-312
-313
-312
-313
-313
-313
-313
-313
-313
-313
-314
-313
-314
-313
-312
-312
-312
-311
-311
-311
-311
-311
-311
-312
-311
-310
-310
-310
-310
-310
-311
-311
-310
-310
-309
-310
-311
-310
-311
-310
-310
-310
-310
-310
-310
-310
-310
-309
-310
-310
-310
-311
-310
-309
-310
-309
-310
-310
-310
-310
-309
-309
-310
-309
-310
-310
-309
-308
-308
-309
-308
-308
-307
-306
-306
-306
-307
-306
-306
-305
-305
-305
-305
-304
-304
-305
-304
-304
-304
-305
-305
-305
-304
-304
-304
-304
-305
-305
-305
-304
-303
-303
-303
-303
-303
-302
-302
-301
-301
-302
-301
-301
-301
-300
-300
-300
-300
-301
-300
-299
-299
-299
-299
-300
-299
-299
-299
-299
-299
-300
-299
-299
-299
-299
-299
-298
-299
-299
-299
-299
-299
-299
-299
-300
-299
-299
-299
-298
-297
-298
-297
-297
-297
-296
-295
-296
-295
-295
-295
-295
-294
-294
-294
-295
-294
-294
-293
-293
-293
-293
-293
-292
-291
-291
-291
-289
-290
-290
-289
-288
-287
-287
-287
-288
-288
-287
-287
-286
-287
-288
-287
-287
-287
-287
-287
-288
-288
-288
-288
-287
-286
-286
-286
-285
-285
-284
-283
-282
-282
-282
-281
-280
-280
-279
-279
-279
-279
-279
-279
-278
-278
-278
-279
-279
-280
-280
-279
-279
-280
-281
-281
-281
-280
-280
-280
-280
-280
-281
-280
-280
-280
-280
-279
-280
-280
-279
-278
-278
-278
-278
-279
-279
-278
-277
-277
-277
-278
-277
-277
-277
-276
-276
-275
-276
-275
-275
-275
-275
-275
-275
-276
-276
-276
-275
-275
-275
-276
-276
-275
-276
-275
-275
-275
-276
-275
-274
-273
-272
-272
-272
-272
-271
-269
-269
-269
-269
-269
-270
-270
-269
-268
-267
-268
-269
-268
-268
-269
-269
-269
-270
-269
-269
-269
-269
-268
-268
-267
-267
-267
-265
-265
-264
-265
-265
-265
-264
-263
-262
-262
-262
-261
-262
-261
-260
-260
-260
-260
-261
-260
-259
-259
-259
-259
-260
-259
-259
-260
-260
-259
-260
-261
-261
-260
-260
-260
-260
-260
-260
-260
-260
-260
-260
-260
-259
-259
-260
-259
-258
-258
-258
-258
-258
-257
-257
-256
-255
-256
-256
-256
-255
-254
-254
-254
-254
-254
-254
-253
-253
-253
-255
-255
-255
-255
-255
-255
-255
-256
-256
-257
-256
-256
-257
-257
-257
-257
-257
-256
-255
-255
-254
-255
-254
-253
-252
-251
-251
-250
-250
-249
-247
-247
-247
-248
-248
-248
-248
-249
-248
-249
-249
-249
-249
-249
-249
-250
-249
-251
-251
-251
-251
-250
-249
-249
-247
-246
-245
-244
-242
-242
-242
-242
-241
-240
-239
-238
-238
-239
-239
-239
-238
-238
-239
-240
-242
-243
-243
-243
-244
-245
-245
-246
-247
-246
-247
-247
-247
-248
-247
-247
-247
-246
-246
-246
-246
-245
-245
-244
-243
-244
-243
-244
-243
-243
-242
-242
-242
-242
-242
-242
-241
-242
-242
-242
-243
-243
-243
-244
-244
-244
-245
-245
-246
-246
-246
-246
-246
-247
-247
-247
-247
-247
-247
-247
-248
-248
-247
-247
-247
-247
-247
-248
-246
-247
-246
-246
-246
-245
-245
-245
-244
-243
-243
-243
-243
-242
-242
-241
-240
-240
-241
-240
-239
-239
-238
-237
-237
-237
-237
-237
-235
-235
-235
-235
-235
-235
-234
-234
-233
-233
-233
-232
-231
-231
-230
-230
-230
-230
-230
-229
-227
-226
-225
-225
-226
-225
-225
-224
-224
-224
-224
-225
-225
-225
-226
-226
-226
-227
-226
-226
-227
-226
-227
-226
-226
-226
-225
-224
-223
-222
-221
-220
-218
-217
-216
-215
-214
-214
-214
-214
-212
-212
-212
-211
-212
-213
-214
-215
-216
-218
-220
-222
-223
-224
-225
-226
-228
-230
-231
-231
-232
-231
-231
-230
-231
-230
-229
-228
-227
-226
-224
-223
-222
-219
-217
-215
-213
-212
-211
-210
-208
-207
-206
-206
-207
-206
-205
-205
-205
-205
-205
-205
-205
-205
-205
-205
-205
-205
-206
-206
-205
-206
-206
-206
-205
-205
-205
-205
-204
-203
-204
-204
-204
-202
-202
-202
-201
-200
-200
-199
-198
-196
-196
-195
-194
-194
-193
-191
-190
-189
-188
-187
-186
-184
-183
-180
-180
-178
-176
-174
-171
-169
-167
-165
-164
-161
-160
-158
-157
-155
-154
-153
-152
-150
-149
-150
-150
-150
-151
-152
-152
-153
-154
-155
-157
-158
-159
-160
-161
-162
-163
-164
-165
-166
-166
-167
-168
-169
-170
-171
-171
-173
-174
-176
-177
-179
-180
-182
-184
-186
-189
-192
-194
-196
-198
-200
-203
-204
-207
-207
-209
-209
-210
-211
-211
-211
-212
-210
-210
-210
-210
-209
-207
-205
-204
-203
-202
-201
-200
-198
-196
-195
-194
-192
-191
-191
-188
-187
-185
-183
-181
-180
-177
-174
-172
-170
-168
-166
-164
-162
-159
-157
-154
-153
-151
-149
-147
-145
-143
-141
-141
-139
-138
-138
-137
-136
-136
-137
-138
-138
-138
-139
-141
-143
-146
-148
-150
-152
-155
-158
-161
-164
-167
-169
-172
-173
-176
-178
-180
-180
-181
-182
-182
-183
-183
-182
-183
-181
-180
-180
-180
-178
-179
-177
-176
-175
-175
-175
-174
-174
-174
-173
-173
-173
-174
-173
-173
-172
-171
-171
-171
-169
-168
-167
-166
-165
-165
-165
-164
-164
-162
-162
-161
-161
-162
-162
-161
-161
-161
-162
-163
-163
-163
-164
-164
-165
-166
-166
-167
-167
-167
-167
-166
-167
-167
-167
-167
-167
-167
-168
-168
-169
-170
-169
-169
-169
-170
-170
-171
-171
-170
-169
-169
-169
-169
-169
-168
-167
-165
-165
-165
-164
-164
-163
-162
-160
-160
-159
-158
-157
-157
-156
-156
-157
-158
-158
-158
-158
-158
-159
-161
-161
-161
-162
-162
-162
-162
-164
-164
-163
-164
-163
-162
-163
-162
-163
-162
-161
-160
-160
-160
-159
-158
-157
-155
-154
-154
-154
-153
-153
-153
-151
-150
-150
-149
-148
-148
-147
-146
-146
-146
-146
-145
-145
-144
-145
-145
-145
-145
-145
-145
-145
-145
-145
-146
-147
-147
-148
-148
-148
-149
-148
-149
-148
-148
-149
-149
-151
-151
-151
-150
-150
-149
-149
-148
-148
-148
-147
-146
-146
-146
-146
-147
-148
-148
-149
-148
-149
-148
-148
-147
-147
-148
-149
-148
-149
-147
-147
-146
-145
-143
-142
-141
-138
-136
-135
-135
-134
-134
-134
-132
-131
-130
-129
-129
-128
-129
-128
-128
-127
-128
-128
-127
-126
-125
-124
-124
-125
-124
-124
-123
-123
-122
-122
-123
-123
-123
-122
-123
-123
-123
-124
-124
-123
-123
-123
-123
-123
-123
-122
-121
-122
-122
-121
-122
-122
-122
-120
-119
-118
-118
-116
-115
-114
-113
-112
-113
-113
-114
-114
-113
-114
-115
-116
-117
-118
-121
-122
-124
-126
-128
-130
-132
-134
-134
-135
-136
-137
-137
-136
-135
-133
-132
-131
-130
-129
-128
-125
-124
-122
-121
-119
-117
-117
-115
-115
-114
-114
-113
-112
-110
-109
-109
-109
-108
-108
-107
-107
-107
-106
-106
-107
-106
-105
-105
-105
-104
-105
-105
-105
-104
-103
-103
-104
-103
-103
-103
-103
-103
-104
-104
-105
-105
-104
-103
-103
-104
-105
-105
-104
-104
-104
-104
-103
-103
-101
-100
-100
-99
-97
-97
-95
-94
-93
-91
-90
-89
-88
-88
-87
-85
-84
-84
-83
-84
-84
-84
-84
-84
-84
-85
-84
-85
-85
-84
-84
-84
-84
-85
-85
-85
-84
-83
-82
-82
-81
-80
-78
-78
-76
-76
-76
-76
-74
-73
-73
-72
-72
-71
-70
-70
-69
-68
-69
-69
-69
-68
-68
-67
-67
-67
-67
-67
-66
-65
-65
-65
-65
-65
-65
-64
-64
-64
-65
-65
-65
-64
-64
-63
-63
-63
-63
-63
-62
-61
-60
-60
-59
-58
-57
-55
-54
-53
-53
-52
-51
-50
-49
-48
-48
-47
-48
-47
-46
-46
-46
-46
-46
-46
-46
-45
-44
-44
-44
-44
-43
-43
-42
-41
-41
-41
-40
-40
-39
-39
-38
-38
-38
-37
-36
-36
-36
-36
-37
-37
-37
-37
-37
-36
-37
-37
-37
-37
-37
-37
-37
-38
-39
-39
-40
-39
-39
-38
-38
-38
-39
-38
-38
-37
-38
-38
-37
-37
-36
-35
-33
-33
-33
-33
-32
-31
-31
-30
-29
-30
-30
-29
-28
-28
-28
-29
-28
-27
-27
-26
-25
-25
-25
-24
-24
-23
-22
-21
-21
-20
-20
-20
-19
-19
-19
-20
-20
-20
-19
-19
-20
-20
-22
-22
-22
-23
-23
-23
-24
-25
-25
-25
-24
-24
-24
-25
-24
-24
-24
-25
-24
-25
-25
-25
-25
-24
-24
-24
-25
-25
-26
-25
-26
-25
-24
-25
-24
-23
-23
-22
-22
-22
-22
-22
-22
-21
-20
-19
-19
-19
-19
-18
-19
-18
-18
-18
-19
-19
-18
-17
-16
-17
-17
-18
-18
-18
-18
-17
-18
-18
-18
-17
-18
-18
-19
-19
-19
-20
-19
-20
-20
-20
-21
-21
-22
-21
-22
-22
-22
-23
-23
-23
-22
-22
-23
-23
-23
-22
-21
-20
-20
-21
-20
-20
-20
-19
-19
-20
-20
-21
-22
-21
-21
-22
-23
-24
-25
-26
-27
-28
-28
-29
-30
-30
-31
-30
-30
-31
-32
-31
-32
-31
-31
-31
-31
-31
-30
-29
-28
-27
-26
-26
-26
-25
-25
-24
-24
-24
-24
-24
-24
-24
-24
-23
-24
-25
-25
-25
-25
-25
-25
-26
-27
-26
-26
-26
-26
-25
-25
-26
-25
-24
-24
-23
-23
-22
-22
-23
-22
-23
-24
-25
-25
-26
-25
-25
-26
-26
-27
-28
-29
-29
-29
-29
-29
-29
-29
-28
-27
-25
-24
-23
-23
-21
-20
-20
-18
-17
-15
-15
-13
-11
-10
-9
-8
-9
-8
-7
-6
-7
-7
-8
-8
-9
-11
-11
-12
-13
-14
-16
-17
-19
-20
-20
-22
-23
-25
-25
-26
-25
-25
-26
-26
-26
-26
-25
-24
-24
-23
-23
-21
-20
-19
-17
-15
-15
-14
-13
-12
-11
-10
-9
-9
-7
-6
-5
-5
-4
-5
-5
-6
-7
-8
-9
-11
-12
-13
-14
-14
-15
-16
-18
-20
-20
-20
-21
-21
-20
-21
-20
-20
-19
-18
-17
-17
-16
-15
-14
-12
-10
-9
-8
-8
-8
-6
-6
-5
-5
-4
-3
-3
-1
0
1
1
1
1
2
3
5
6
7
8
8
10
10
12
13
14
15
15
18
19
20
22
22
23
24
25
26
27
26
26
25
26
27
26
26
24
22
21
20
19
18
16
14
12
11
9
8
6
5
3
2
2
1
0
-1
-2
-3
-4
-4
-6
-5
-7
-8
-9
-10
-10
-12
-13
-15
-18
-19
-21
-23
-24
-27
-30
-31
-33
-35
-36
-37
-39
-40
-41
-40
-40
-40
-40
-40
-39
-38
-37
-35
-33
-32
-30
-29
-27
-25
-22
-21
-19
-17
-16
-14
-12
-10
-8
-7
-5
-4
-2
0
2
3
4
5
5
6
7
9
10
11
11
14
15
16
18
19
21
21
22
23
24
23
23
23
24
24
24
23
21
19
17
14
12
9
7
3
-1
-4
-8
-10
-12
-14
-16
-16
-17
-16
-17
-18
-19
-21
-21
-21
-20
-18
-18
-17
-17
-17
-17
-17
-18
-18
-20
-20
-21
-22
-24
-25
-25
-28
-28
-29
-30
-30
-31
-31
-31
-32
-32
-32
-32
-31
-31
-31
-31
-31
-30
-30
-30
-31
-31
-30
-31
-30
-31
-31
-32
-32
-32
-31
-30
-30
-29
-28
-28
-28
-27
-27
-27
-28
-27
-26
-26
-24
-24
-24
-25
-25
-25
-26
-26
-27
-27
-27
-27
-28
-28
-28
-29
-29
-29
-29
-28
-28
-28
-29
-30
-30
-29
-29
-28
-29
-29
-29
-29
-29
-29
-28
-27
-28
-27
-26
-26
-25
-25
-25
-25
-24
-24
-23
-23
-23
-23
-24
-23
-23
-23
-23
-22
-23
-23
-22
-21
-20
-20
-20
-21
-21
-20
-20
-20
-20
-19
-20
-21
-21
-21
-22
-22
-24
-25
-26
-26
-26
-26
-27
-28
-27
-28
-27
-27
-27
-28
-28
-28
-28
-28
-28
-28
-27
-28
-27
-28
-27
-27
-27
-27
-28
-28
-27
-27
-27
-28
-28
-30
-29
-29
-28
-28
-28
-28
-28
-27
-27
-27
-27
-27
-27
-27
-26
-26
-26
-26
-26
-26
-26
-26
-26
-26
-27
-28
-27
-28
-27
-27
-28
-29
-29
-28
-27
-27
-26
-27
-27
-26
-27
-26
-25
-25
-26
-25
-25
-25
-24
-25
-26
-26
-27
-26
-26
-26
-27
-28
-28
-29
-28
-28
-28
-29
-28
-29
-29
-29
-28
-28
-28
-28
-29
-28
-28
-27
-27
-28
-27
-28
-27
-27
-27
-27
-28
-29
-28
-28
-28
-28
-29
-30
-31
-31
-31
-31
-32
-33
-34
-34
-34
-34
-34
-33
-33
-32
-31
-29
-28
-29
-28
-28
-28
-27
-26
-25
-25
-25
-26
-26
-27
-28
-29
-30
-31
-31
-31
-32
-31
-32
-33
-33
-33
-33
-31
-30
-30
-29
-29
-28
-26
-25
-24
-24
-24
-23
-23
-22
-21
-21
-21
-22
-21
-21
-20
-20
-20
-21
-21
-21
-21
-21
-20
-20
-20
-21
-19
-19
-18
-18
-18
-18
-17
-16
-15
-15
-14
-15
-15
-15
-15
-15
-14
-15
-15
-16
-15
-16
-16
-16
-17
-18
-19
-20
-20
-20
-20
-21
-20
-20
-20
-20
-18
-18
-18
-18
-16
-15
-14
-13
-12
-12
-11
-10
-9
-8
-8
-8
-8
-9
-8
-8
-9
-9
-10
-11
-12
-12
-12
-14
-16
-17
-17
-17
-17
-17
-17
-18
-17
-17
-17
-15
-14
-13
-12
-11
-9
-7
-6
-4
-3
-2
-1
-1
0
0
0
-1
-2
-2
-2
-3
-3
-4
-5
-6
-6
-6
-6
-6
-7
-7
-7
-7
-6
-6
-6
-5
-5
-5
-4
-4
-3
-4
-4
-5
-4
-3
-3
-2
-2
-1
-1
-2
-1
-2
-2
-2
-1
-1
-2
-1
-1
-1
-1
-1
-1
0
-1
-1
-2
-3
-3
-3
-2
-1
-1
-1
-1
0
1
2
2
3
3
4
5
5
6
7
8
8
10
10
10
11
11
11
11
11
10
11
10
9
9
8
9
8
9
8
8
8
7
8
8
9
9
10
11
11
12
13
13
14
13
14
14
14
14
14
14
14
13
13
13
13
13
12
11
11
11
10
9
8
7
7
6
6
5
5
5
4
4
4
3
4
3
2
2
2
2
2
2
2
2
2
2
2
2
1
2
1
1
2
3
3
3
4
3
3
4
4
5
5
5
5
6
7
8
8
8
8
9
9
9
10
9
10
9
9
9
10
8
8
7
7
7
6
6
6
5
4
4
4
4
5
4
3
3
3
3
4
5
6
5
6
7
6
7
6
6
5
6
6
7
8
8
8
7
8
8
7
7
7
6
6
6
6
6
6
5
4
5
4
4
3
2
0
-1
-2
-2
-2
-2
-3
-4
-4
-5
-4
-4
-4
-4
-5
-5
-5
-4
-4
-5
-5
-5
-6
-5
-5
-4
-5
-5
-6
-6
-5
-6
-6
-6
-7
-6
-6
-6
-6
-6
-5
-6
-6
-5
-5
-4
-4
-4
-3
-3
-2
-2
-2
-2
-3
-3
-2
-2
-3
-3
-4
-6
-6
-7
-7
-7
-7
-7
-9
-8
-8
-8
-7
-7
-7
-6
-5
-5
-3
-3
-2
-1
-1
0
2
2
2
2
1
2
2
2
2
1
0
-2
-1
-2
-3
-3
-4
-4
-5
-4
-4
-4
-4
-5
-5
-5
-5
-5
-5
-5
-5
-6
-6
-5
-5
-5
-6
-5
-6
-6
-6
-6
-7
-7
-6
-6
-5
-3
-2
-2
-2
-2
-1
1
1
2
2
3
4
5
6
6
7
7
7
8
10
11
11
12
11
11
11
12
12
12
12
11
11
11
12
11
10
8
7
5
5
4
4
2
1
0
-1
0
-1
-2
-3
-4
-4
-3
-3
-3
-3
-3
-3
-2
-2
-1
-1
-1
-1
0
0
2
2
3
3
3
3
4
4
5
4
5
5
5
6
7
8
7
7
8
8
9
9
9
9
10
10
12
12
13
14
14
14
16
17
19
21
22
23
25
28
30
32
34
36
37
39
42
44
45
46
46
47
47
47
47
48
47
46
44
43
42
41
39
38
35
33
31
29
27
25
22
20
18
17
16
13
11
8
6
3
1
-1
-3
-6
-9
-11
-13
-14
-16
-19
-20
-22
-24
-24
-25
-26
-27
-28
-28
-27
-27
-26
-25
-25
-24
-23
-22
-20
-18
-17
-16
-14
-12
-10
-7
-4
-4
-2
0
1
3
4
6
7
8
9
12
13
14
14
15
15
17
18
19
20
21
21
22
23
24
26
27
28
29
31
32
33
34
35
35
36
37
38
39
38
37
37
35
35
34
32
31
29
26
24
21
20
17
15
12
9
8
6
4
1
0
-2
-3
-4
-3
-3
-3
-4
-4
-4
-4
-3
-2
-3
-2
-2
-1
0
1
1
0
0
-1
0
-1
-1
-2
-3
-3
-4
-5
-5
-6
-7
-8
-9
-10
-10
-11
-12
-13
-14
-14
-14
-15
-15
-16
-16
-17
-17
-17
-17
-17
-17
-18
-18
-17
-16
-17
-15
-16
-16
-15
-16
-15
-14
-14
-14
-14
-13
-14
-13
-13
-13
-12
-12
-12
-10
-9
-8
-8
-9
-9
-9
-8
-8
-8
-9
-9
-8
-9
-9
-10
-11
-11
-12
-13
-12
-13
-14
-14
-16
-16
-16
-15
-15
-15
-15
-15
-14
-13
-12
-11
-11
-11
-12
-11
-10
-10
-9
-9
-8
-8
-8
-8
-7
-7
-8
-8
-8
-7
-8
-7
-8
-9
-8
-9
-8
-8
-8
-9
-10
-11
-12
-12
-12
-13
-13
-14
-14
-15
-15
-15
-15
-16
-17
-16
-16
-15
-14
-15
-14
-14
-13
-13
-12
-12
-13
-13
-13
-12
-12
-12
-12
-12
-13
-12
-12
-12
-12
-11
-12
-13
-12
-12
-11
-11
-12
-11
-11
-11
-10
-11
-11
-11
-12
-11
-11
-10
-10
-9
-10
-10
-10
-10
-10
-10
-11
-11
-11
-11
-10
-10
-11
-12
-13
-13
-13
-13
-14
-15
-15
-16
-17
-17
-17
-18
-18
-18
-19
-20
-19
-20
-21
-22
-22
-22
-23
-24
-25
-26
-26
-27
-26
-25
-26
-25
-26
-25
-24
-23
-22
-20
-19
-20
-18
-17
-15
-13
-12
-12
-11
-10
-9
-9
-8
-8
-8
-9
-9
-10
-10
-10
-11
-12
-13
-14
-14
-15
-16
-17
-18
-19
-19
-19
-19
-19
-20
-21
-22
-21
-22
-22
-22
-23
-24
-23
-23
-22
-22
-22
-22
-22
-22
-21
-21
-21
-21
-21
-21
-21
-20
-20
-20
-20
-19
-20
-19
-20
-20
-21
-21
-22
-22
-21
-22
-22
-21
-22
-22
-21
-21
-20
-21
-21
-21
-21
-21
-20
-21
-21
-22
-23
-23
-23
-23
-24
-25
-26
-25
-25
-25
-25
-26
-28
-28
-28
-26
-25
-25
-24
-24
-23
-22
-21
-21
-21
-21
-20
-21
-20
-19
-19
-18
-19
-18
-18
-18
-19
-18
-19
-20
-21
-20
-21
-21
-22
-23
-24
-24
-24
-25
-26
-27
-28
-28
-28
-28
-28
-28
-29
-29
-28
-29
-28
-27
-27
-28
-28
-28
-28
-27
-27
-28
-27
-27
-28
-28
-29
-29
-29
-30
-30
-31
-30
-31
-31
-31
-31
-31
-30
-29
-29
-29
-28
-29
-27
-26
-25
-23
-23
-23
-23
-22
-20
-20
-20
-20
-19
-19
-20
-19
-20
-21
-22
-22
-23
-22
-22
-23
-24
-25
-25
-24
-25
-24
-24
-25
-25
-25
-26
-25
-25
-26
-25
-25
-26
-25
-24
-25
-25
-25
-26
-25
-26
-26
-27
-28
-28
-28
-28
-28
-28
-29
-29
-30
-30
-29
-28
-28
-29
-29
-28
-27
-26
-25
-25
-25
-24
-24
-24
-23
-23
-24
-25
-25
-24
-25
-24
-25
-26
-25
-27
-26
-26
-27
-27
-27
-28
-27
-27
-26
-26
-26
-26
-27
-26
-26
-25
-23
-24
-23
-24
-23
-23
-23
-24
-24
-25
-25
-25
-24
-24
-25
-24
-25
-24
-24
-24
-24
-25
-25
-26
-25
-24
-25
-25
-24
-25
-25
-25
-24
-26
-27
-28
-29
-28
-28
-29
-29
-29
-30
-30
-30
-29
-30
-30
-30
-30
-30
-30
-30
-30
-31
-31
-32
-31
-30
-29
-29
-29
-29
-30
-30
-30
-30
-30
-31
-31
-32
-31
-30
-30
-31
-31
-32
-31
-31
-31
-30
-31
-31
-31
-31
-30
-29
-29
-29
-29
-29
-28
-28
-27
-27
-28
-27
-27
-27
-26
-26
-26
-26
-26
-26
-25
-25
-25
-25
-26
-26
-26
-26
-26
-28
-28
-30
-31
-31
-32
-32
-34
-34
-35
-36
-37
-37
-38
-40
-41
-42
-42
-42
-43
-42
-43
-43
-43
-43
-43
-43
-44
-44
-44
-43
-42
-42
-41
-41
-41
-41
-40
-39
-39
-39
-39
-39
-38
-37
-37
-38
-38
-39
-40
-40
-41
-40
-42
-42
-43
-44
-45
-45
-45
-46
-46
-46
-45
-45
-44
-44
-45
-45
-44
-44
-44
-43
-43
-44
-44
-44
-44
-44
-45
-45
-46
-45
-45
-45
-45
-45
-45
-46
-46
-46
-46
-46
-45
-45
-45
-44
-45
-44
-45
-45
-46
-46
-45
-45
-45
-46
-45
-46
-46
-46
-45
-45
-45
-45
-45
-45
-44
-42
-41
-41
-40
-40
-38
-38
-37
-37
-36
-37
-37
-38
-38
-38
-39
-40
-41
-42
-42
-43
-43
-45
-46
-46
-47
-47
-48
-47
-48
-48
-48
-47
-47
-47
-46
-48
-48
-48
-48
-48
-47
-47
-47
-48
-48
-48
-48
-48
-48
-48
-48
-48
-47
-47
-46
-46
-46
-45
-44
-42
-41
-41
-41
-41
-40
-39
-38
-38
-38
-37
-37
-36
-36
-36
-37
-36
-37
-37
-37
-36
-36
-37
-37
-37
-37
-36
-36
-35
-35
-35
-35
-35
-34
-34
-35
-36
-37
-38
-38
-38
-39
-40
-41
-42
-43
-43
-44
-44
-44
-45
-45
-44
-44
-43
-42
-42
-41
-40
-38
-37
-36
-35
-35
-33
-31
-30
-29
-27
-27
-26
-25
-23
-21
-20
-19
-17
-17
-16
-15
-13
-12
-11
-10
-9
-8
-7
-6
-6
-7
-7
-7
-7
-7
-6
-8
-9
-10
-12
-12
-13
-14
-15
-17
-18
-19
-20
-20
-21
-23
-24
-25
-26
-27
-28
-29
-31
-33
-34
-35
-37
-39
-42
-45
-48
-50
-54
-56
-58
-62
-65
-67
-69
-71
-73
-76
-78
-79
-80
-80
-81
-80
-80
-79
-79
-77
-75
-74
-72
-70
-70
-68
-67
-64
-63
-61
-60
-59
-58
-56
-55
-53
-53
-52
-52
-50
-49
-47
-46
-45
-43
-42
-40
-39
-36
-35
-32
-30
-28
-25
-23
-21
-21
-20
-18
-17
-15
-14
-13
-12
-12
-12
-11
-12
-12
-13
-15
-16
-17
-18
-19
-21
-23
-26
-27
-29
-30
-31
-33
-35
-36
-37
-38
-39
-41
-42
-43
-45
-47
-47
-48
-49
-50
-51
-53
-53
-54
-55
-56
-57
-59
-60
-61
-60
-61
-62
-63
-62
-62
-62
-61
-61
-60
-60
-60
-58
-57
-56
-55
-55
-55
-55
-54
-55
-54
-55
-55
-55
-55
-56
-56
-56
-58
-59
-60
-60
-61
-61
-62
-63
-62
-62
-63
-62
-61
-62
-61
-61
-61
-60
-59
-60
-60
-61
-62
-62
-62
-62
-62
-62
-64
-63
-64
-64
-64
-64
-65
-67
-67
-67
-67
-67
-68
-69
-69
-69
-69
-69
-69
-69
-69
-69
-69
-68
-67
-67
-68
-68
-67
-67
-66
-65
-65
-64
-63
-61
-60
-58
-58
-58
-58
-58
-58
-57
-58
-58
-57
-58
-59
-60
-60
-61
-62
-63
-64
-64
-64
-64
-66
-66
-68
-68
-68
-69
-69
-70
-70
-70
-69
-69
-69
-68
-69
-69
-68
-69
-68
-67
-67
-67
-66
-66
-65
-65
-65
-65
-66
-66
-67
-66
-67
-67
-67
-68
-68
-68
-68
-70
-70
-71
-73
-73
-73
-73
-72
-73
-72
-73
-72
-71
-70
-68
-68
-66
-65
-64
-62
-60
-59
-59
-58
-58
-58
-56
-55
-55
-56
-57
-57
-57
-57
-59
-61
-62
-63
-65
-66
-66
-68
-68
-70
-71
-72
-72
-72
-73
-73
-73
-73
-72
-72
-70
-70
-70
-70
-69
-68
-67
-65
-65
-65
-64
-63
-62
-62
-62
-62
-63
-63
-63
-63
-63
-65
-65
-66
-67
-67
-67
-67
-68
-68
-70
-69
-70
-69
-69
-69
-69
-69
-68
-67
-67
-67
-68
-67
-67
-67
-66
-66
-66
-66
-66
-66
-66
-65
-65
-65
-64
-63
-63
-62
-61
-62
-63
-64
-63
-63
-62
-63
-63
-64
-63
-65
-65
-66
-67
-68
-70
-71
-71
-71
-72
-73
-73
-72
-72
-71
-71
-71
-71
-70
-70
-69
-68
-67
-67
-67
-67
-66
-65
-65
-65
-64
-64
-65
-64
-65
-64
-65
-65
-66
-65
-66
-65
-65
-65
-66
-66
-65
-65
-65
-66
-67
-67
-67
-66
-66
-65
-65
-65
-65
-65
-64
-63
-62
-61
-61
-59
-57
-56
-54
-54
-54
-54
-54
-54
-52
-52
-51
-52
-52
-52
-52
-52
-53
-53
-55
-56
-56
-56
-57
-57
-58
-57
-58
-58
-57
-57
-57
-58
-58
-58
-57
-57
-57
-58
-58
-58
-59
-59
-58
-59
-60
-61
-62
-61
-61
-61
-62
-64
-64
-65
-65
-64
-63
-64
-64
-64
-65
-64
-64
-64
-63
-63
-63
-62
-62
-61
-60
-61
-61
-60
-59
-58
-58
-58
-58
-57
-57
-56
-55
-55
-55
-55
-55
-54
-54
-53
-53
-53
-53
-54
-53
-53
-53
-54
-55
-55
-55
-54
-54
-54
-54
-54
-54
-54
-54
-54
-54
-54
-53
-52
-50
-49
-48
-48
-48
-48
-48
-49
-48
-48
-48
-49
-50
-49
-50
-51
-52
-53
-54
-55
-56
-57
-58
-59
-61
-62
-62
-63
-62
-63
-64
-64
-65
-63
-62
-62
-63
-63
-63
-63
-62
-62
-62
-61
-62
-62
-62
-61
-62
-62
-62
-63
-63
-63
-63
-62
-62
-62
-62
-61
-61
-59
-59
-59
-58
-58
-57
-57
-56
-56
-56
-56
-56
-55
-55
-55
-55
-55
-55
-56
-56
-55
-55
-56
-56
-56
-56
-56
-55
-55
-54
-55
-54
-54
-55
-55
-54
-55
-54
-54
-53
-52
-51
-52
-52
-53
-53
-52
-52
-52
-53
-53
-53
-53
-52
-52
-53
-54
-56
-56
-57
-56
-57
-57
-58
-58
-58
-58
-58
-59
-59
-60
-60
-59
-59
-58
-58
-59
-60
-60
-60
-59
-60
-61
-60
-61
-60
-59
-60
-59
-59
-59
-59
-58
-57
-56
-55
-55
-54
-54
-52
-51
-51
-51
-52
-52
-53
-53
-53
-54
-54
-55
-55
-55
-55
-56
-56
-58
-58
-59
-59
-59
-59
-58
-59
-59
-59
-58
-59
-58
-59
-58
-58
-58
-57
-57
-57
-57
-58
-58
-58
-57
-56
-56
-57
-56
-56
-55
-55
-56
-56
-56
-57
-56
-55
-56
-55
-56
-56
-56
-56
-56
-56
-56
-56
-57
-57
-58
-58
-59
-59
-61
-62
-62
-63
-63
-64
-66
-67
-68
-69
-71
-71
-73
-74
-74
-74
-74
-74
-74
-74
-73
-73
-71
-69
-68
-67
-65
-63
-62
-60
-57
-57
-55
-54
-54
-53
-52
-52
-52
-53
-53
-53
-53
-52
-53
-54
-54
-55
-56
-56
-57
-57
-57
-58
-58
-58
-58
-57
-58
-58
-59
-59
-58
-58
-57
-57
-57
-58
-58
-57
-56
-56
-56
-55
-55
-54
-52
-51
-51
-51
-52
-51
-50
-51
-50
-50
-51
-52
-52
-52
-53
-53
-54
-55
-57
-58
-59
-60
-61
-61
-61
-61
-61
-60
-60
-60
-60
-60
-60
-59
-58
-57
-56
-54
-53
-52
-51
-49
-49
-49
-48
-47
-46
-45
-45
-45
-45
-45
-45
-45
-44
-44
-44
-45
-45
-45
-46
-46
-47
-48
-49
-50
-50
-50
-51
-50
-51
-51
-51
-51
-51
-52
-52
-52
-52
-52
-51
-50
-50
-50
-49
-49
-48
-46
-46
-45
-45
-45
-44
-44
-42
-41
-40
-40
-40
-40
-39
-39
-39
-39
-39
-39
-39
-39
-38
-37
-37
-37
-36
-34
-33
-32
-30
-29
-27
-26
-24
-22
-21
-19
-18
-16
-15
-13
-11
-9
-9
-9
-8
-7
-6
-6
-6
-7
-8
-9
-9
-10
-11
-12
-14
-16
-17
-18
-20
-21
-23
-24
-27
-27
-29
-30
-32
-33
-35
-36
-37
-39
-41
-43
-46
-48
-48
-50
-51
-54
-56
-59
-61
-63
-64
-67
-69
-71
-73
-73
-75
-76
-76
-77
-78
-78
-77
-75
-74
-73
-72
-71
-70
-68
-67
-66
-64
-63
-62
-60
-59
-57
-56
-55
-54
-53
-50
-49
-46
-45
-44
-43
-41
-39
-38
-36
-33
-31
-29
-27
-25
-24
-23
-23
-22
-21
-20
-19
-17
-17
-16
-16
-16
-16
-16
-17
-18
-19
-20
-20
-21
-21
-22
-24
-25
-26
-27
-29
-31
-32
-34
-36
-37
-38
-39
-40
-41
-42
-43
-43
-43
-43
-45
-45
-47
-48
-49
-49
-50
-51
-52
-53
-53
-52
-52
-53
-55
-56
-58
-59
-59
-59
-60
-61
-62
-60
-61
-60
-60
-60
-60
-60
-59
-58
-55
-53
-53
-54
-54
-55
-55
-54
-53
-54
-53
-53
-53
-54
-54
-54
-56
-58
-59
-61
-61
-61
-62
-62
-62
-63
-62
-61
-61
-61
-61
-61
-60
-60
-59
-58
-58
-57
-57
-57
-57
-57
-58
-58
-59
-59
-59
-59
-60
-61
-62
-63
-63
-62
-62
-62
-62
-62
-62
-62
-62
-62
-63
-62
-62
-61
-60
-59
-58
-58
-58
-57
-57
-56
-55
-55
-55
-55
-55
-54
-54
-53
-53
-53
-52
-51
-50
-50
-52
-53
-55
-55
-57
-57
-57
-58
-59
-60
-60
-61
-61
-61
-62
-61
-62
-62
-61
-61
-61
-62
-61
-60
-59
-56
-54
-52
-50
-49
-47
-47
-47
-48
-49
-49
-50
-49
-49
-49
-49
-51
-52
-53
-54
-53
-54
-54
-55
-56
-56
-55
-56
-56
-55
-55
-54
-52
-50
-48
-49
-49
-51
-51
-51
-52
-52
-53
-54
-55
-56
-56
-57
-58
-60
-61
-62
-64
-65
-66
-67
-67
-68
-68
-67
-67
-67
-68
-68
-69
-68
-68
-68
-67
-67
-67
-67
-67
-65
-65
-64
-65
-65
-64
-63
-63
-62
-61
-61
-61
-61
-59
-59
-59
-57
-58
-58
-57
-57
-56
-57
-58
-58
-58
-58
-58
-57
-58
-58
-57
-57
-57
-56
-57
-58
-58
-58
-59
-58
-57
-57
-58
-58
-59
-58
-59
-60
-61
-62
-63
-64
-65
-65
-66
-66
-67
-66
-67
-67
-68
-68
-67
-67
-67
-66
-64
-64
-63
-62
-62
-61
-60
-58
-57
-57
-56
-56
-56
-56
-55
-55
-54
-55
-55
-55
-56
-57
-58
-59
-59
-59
-60
-59
-60
-61
-62
-62
-64
-63
-63
-63
-63
-63
-63
-63
-63
-63
-63
-64
-63
-63
-63
-62
-62
-62
-64
-64
-64
-64
-63
-63
-62
-62
-62
-62
-62
-63
-62
-63
-62
-61
-61
-60
-59
-58
-59
-58
-57
-55
-54
-54
-53
-53
-52
-51
-50
-48
-48
-48
-47
-48
-46
-46
-46
-46
-46
-46
-47
-46
-45
-46
-47
-48
-48
-47
-47
-47
-47
-49
-50
-50
-49
-48
-48
-49
-48
-48
-47
-47
-46
-45
-46
-46
-46
-45
-44
-44
-44
-44
-44
-43
-42
-42
-42
-41
-42
-42
-42
-41
-40
-41
-41
-40
-39
-38
-36
-34
-31
-30
-29
-28
-27
-27
-25
-26
-26
-26
-26
-26
-28
-28
-30
-32
-34
-35
-37
-38
-40
-42
-44
-45
-45
-45
-46
-46
-45
-44
-42
-41
-40
-39
-37
-37
-35
-33
-31
-29
-28
-27
-26
-26
-26
-26
-24
-24
-23
-23
-24
-24
-25
-27
-29
-30
-31
-32
-32
-33
-34
-35
-36
-36
-37
-37
-36
-36
-36
-35
-34
-31
-30
-28
-25
-24
-22
-20
-19
-17
-16
-15
-15
-14
-15
-16
-18
-20
-23
-24
-25
-28
-30
-33
-36
-38
-40
-41
-42
-43
-44
-46
-46
-47
-46
-47
-47
-46
-45
-43
-42
-40
-38
-36
-33
-31
-28
-25
-23
-22
-21
-20
-19
-17
-15
-13
-12
-11
-10
-11
-11
-11
-12
-12
-14
-15
-15
-15
-15
-15
-16
-17
-17
-17
-16
-17
-17
-16
-17
-16
-16
-15
-16
-15
-16
-16
-16
-16
-17
-17
-17
-18
-17
-18
-17
-17
-16
-17
-17
-17
-16
-15
-14
-14
-14
-13
-13
-13
-14
-13
-14
-14
-15
-15
-17
-17
-19
-19
-21
-21
-22
-22
-22
-23
-23
-24
-24
-23
-22
-21
-20
-20
-18
-15
-14
-12
-10
-9
-9
-8
-6
-5
-5
-5
-5
-5
-6
-5
-5
-5
-6
-6
-7
-8
-8
-7
-8
-7
-8
-8
-9
-10
-9
-10
-10
-11
-11
-10
-10
-10
-10
-11
-11
-12
-12
-13
-13
-15
-16
-16
-15
-15
-14
-13
-13
-12
-11
-8
-7
-7
-7
-7
-7
-6
-6
-5
-4
-4
-4
-5
-6
-6
-6
-7
-9
-10
-11
-12
-13
-13
-13
-14
-16
-16
-16
-16
-17
-17
-17
-17
-17
-16
-16
-16
-17
-16
-16
-15
-15
-16
-17
-18
-19
-19
-18
-18
-17
-18
-17
-18
-18
-18
-18
-18
-17
-17
-17
-15
-14
-13
-12
-11
-10
-9
-8
-7
-6
-6
-7
-8
-7
-7
-6
-7
-7
-9
-9
-10
-11
-12
-12
-13
-12
-12
-11
-10
-8
-6
-4
-2
2
5
8
9
9
10
11
12
14
16
16
17
16
16
16
15
12
9
5
2
-1
-3
-5
-7
-9
-11
-13
-14
-15
-16
-16
-17
-18
-17
-17
-15
-14
-13
-12
-11
-10
-8
-7
-5
-3
-2
0
2
4
5
6
7
7
9
10
12
14
13
13
12
12
12
11
11
10
9
8
8
7
6
5
3
2
0
0
-1
-2
-4
-5
-6
-6
-6
-6
-5
-5
-6
-5
-5
-4
-4
-3
-3
-3
-3
-2
-1
-1
-1
-2
-3
-2
-2
-3
-3
-4
-4
-5
-4
-4
-4
-4
-4
-3
-2
-1
1
2
4
4
6
8
11
14
15
17
19
21
23
24
26
26
27
27
29
30
30
30
29
28
27
26
25
24
21
19
17
15
13
11
10
8
5
4
2
2
2
0
-1
-3
-7
-9
-10
-12
-14
-16
-18
-20
-22
-24
-27
-31
-36
-40
-42
-45
-47
-50
-51
-53
-55
-55
-55
-55
-55
-54
-54
-52
-49
-47
-45
-45
-43
-41
-39
-36
-34
-32
-31
-28
-27
-26
-24
-22
-21
-20
-19
-19
-17
-16
-15
-15
-15
-15
-13
-12
-12
-11
-11
-10
-10
-10
-10
-9
-9
-9
-9
-7
-5
-3
-2
-1
0
-1
1
1
2
1
0
0
0
-1
-2
-2
-4
-5
-6
-8
-10
-11
-13
-16
-18
-20
-21
-22
-23
-25
-26
-28
-30
-30
-32
-33
-35
-36
-38
-40
-40
-41
-43
-44
-46
-48
-50
-50
-51
-52
-53
-54
-56
-57
-58
-57
-58
-58
-59
-58
-58
-57
-57
-57
-57
-56
-55
-53
-51
-51
-50
-50
-51
-51
-51
-51
-51
-51
-50
-50
-50
-49
-50
-51
-51
-52
-53
-54
-54
-56
-56
-57
-58
-58
-58
-59
-60
-62
-63
-64
-65
-65
-65
-66
-67
-68
-67
-67
-67
-67
-68
-68
-68
-68
-68
-67
-68
-68
-68
-67
-66
-64
-62
-62
-62
-64
-64
-64
-63
-63
-63
-63
-61
-61
-61
-60
-60
-60
-62
-62
-62
-62
-63
-64
-65
-66
-67
-66
-66
-67
-67
-69
-69
-70
-71
-72
-73
-74
-75
-75
-76
-75
-76
-76
-76
-77
-78
-79
-81
-83
-84
-86
-86
-86
-85
-86
-86
-87
-88
-89
-89
-90
-91
-92
-93
-94
-93
-92
-91
-91
-91
-90
-90
-90
-89
-89
-89
-90
-90
-90
-89
-89
-89
-89
-90
-90
-90
-90
-90
-92
-92
-94
-94
-94
-94
-93
-93
-93
-94
-94
-93
-92
-93
-94
-94
-93
-92
-91
-90
-90
-91
-90
-90
-89
-89
-89
-89
-89
-90
-90
-89
-90
-90
-91
-92
-92
-92
-92
-91
-92
-92
-93
-93
-93
-94
-93
-94
-96
-97
-98
-98
-99
-99
-98
-99
-99
-99
-100
-101
-102
-104
-106
-107
-107
-108
-109
-109
-110
-112
-112
-111
-110
-109
-108
-109
-108
-108
-108
-108
-107
-107
-106
-106
-105
-104
-104
-105
-105
-106
-106
-106
-107
-108
-109
-112
-114
-115
-116
-118
-119
-120
-121
-122
-122
-122
-122
-123
-125
-126
-127
-128
-129
-130
-131
-132
-133
-132
-132
-132
-131
-133
-133
-134
-134
-134
-134
-134
-133
-132
-130
-127
-126
-124
-123
-122
-121
-119
-116
-114
-112
-112
-112
-114
-113
-113
-114
-114
-115
-116
-117
-118
-118
-119
-121
-122
-124
-125
-125
-125
-126
-127
-129
-129
-129
-128
-127
-127
-127
-127
-126
-124
-123
-123
-123
-122
-122
-120
-120
-118
-118
-118
-117
-117
-116
-116
-115
-115
-115
-116
-115
-115
-115
-115
-115
-116
-116
-116
-115
-116
-116
-116
-117
-117
-116
-116
-116
-116
-117
-116
-115
-115
-114
-114
-114
-115
-115
-114
-114
-114
-113
-114
-113
-114
-113
-113
-113
-112
-113
-113
-113
-112
-112
-112
-112
-112
-112
-112
-111
-111
-111
-112
-113
-114
-114
-115
-114
-116
-117
-118
-119
-119
-120
-120
-120
-120
-120
-120
-119
-119
-118
-119
-119
-119
-118
-118
-116
-117
-116
-115
-114
-113
-113
-112
-112
-113
-114
-113
-112
-113
-112
-112
-112
-112
-112
-111
-110
-110
-111
-111
-110
-111
-110
-111
-112
-112
-112
-111
-111
-112
-112
-112
-114
-114
-114
-114
-114
-114
-114
-115
-114
-113
-113
-113
-113
-112
-112
-111
-110
-110
-109
-109
-109
-108
-107
-105
-105
-104
-105
-105
-104
-104
-103
-103
-103
-104
-104
-103
-104
-103
-104
-104
-105
-106
-106
-105
-106
-107
-107
-108
-107
-108
-107
-107
-108
-107
-107
-107
-105
-105
-105
-106
-106
-106
-105
-104
-104
-104
-104
-104
-103
-103
-102
-102
-102
-101
-101
-100
-100
-100
-99
-100
-100
-100
-99
-98
-99
-98
-98
-99
-98
-98
-97
-96
-96
-96
-96
-95
-95
-95
-95
-95
-96
-96
-95
-95
-96
-95
-96
-96
-96
-95
-95
-95
-96
-97
-97
-97
-97
-97
-97
-97
-97
-96
-97
-95
-95
-95
-94
-94
-93
-92
-91
-90
-89
-89
-89
-88
-88
-87
-87
-87
-88
-88
-87
-87
-87
-88
-89
-89
-89
-89
-89
-89
-90
-90
-91
-91
-91
-90
-90
-90
-90
-90
-89
-89
-88
-88
-88
-88
-88
-86
-86
-86
-86
-86
-86
-85
-83
-82
-81
-79
-77
-75
-72
-70
-67
-66
-64
-63
-62
-61
-60
-60
-61
-62
-63
-65
-66
-68
-71
-75
-78
-82
-86
-89
-93
-97
-100
-104
-107
-108
-110
-111
-112
-113
-112
-112
-110
-109
-109
-109
-108
-107
-105
-104
-103
-102
-103
-102
-101
-100
-99
-99
-100
-100
-101
-101
-101
-101
-102
-103
-104
-104
-104
-104
-103
-105
-104
-105
-104
-104
-103
-103
-103
-103
-102
-101
-100
-99
-99
-99
-98
-97
-97
-96
-95
-95
-94
-94
-94
-93
-92
-92
-91
-92
-91
-91
-90
-89
-89
-89
-88
-88
-87
-86
-86
-86
-86
-86
-85
-84
-83
-83
-82
-82
-83
-82
-81
-81
-81
-82
-83
-83
-83
-83
-83
-84
-84
-84
-85
-84
-85
-85
-85
-86
-86
-85
-85
-86
-85
-85
-85
-85
-83
-83
-82
-82
-82
-82
-81
-81
-79
-79
-79
-79
-79
-78
-78
-77
-76
-77
-76
-76
-75
-75
-75
-75
-75
-75
-75
-73
-72
-71
-71
-71
-71
-70
-70
-70
-70
-70
-71
-71
-71
-70
-70
-70
-71
-72
-72
-71
-71
-71
-72
-72
-72
-71
-71
-71
-71
-71
-71
-71
-70
-69
-69
-68
-68
-67
-68
-66
-65
-64
-65
-65
-65
-65
-64
-64
-64
-64
-63
-63
-62
-62
-60
-61
-61
-60
-59
-58
-57
-55
-53
-52
-50
-47
-46
-43
-40
-38
-36
-33
-31
-28
-26
-25
-24
-23
-22
-20
-19
-19
-20
-20
-22
-23
-24
-26
-28
-31
-34
-37
-39
-42
-45
-48
-51
-53
-56
-57
-59
-61
-62
-65
-66
-67
-68
-68
-70
-71
-72
-73
-74
-75
-75
-77
-78
-80
-81
-83
-83
-85
-87
-88
-90
-90
-91
-91
-91
-92
-92
-92
-91
-90
-89
-87
-87
-85
-83
-81
-79
-76
-75
-74
-71
-69
-67
-65
-64
-62
-61
-60
-58
-56
-54
-54
-53
-53
-50
-48
-47
-46
-44
-43
-41
-38
-37
-35
-34
-33
-32
-31
-30
-29
-27
-26
-26
-26
-25
-24
-23
-24
-24
-25
-26
-27
-28
-29
-29
-31
-32
-34
-36
-37
-38
-40
-43
-44
-46
-46
-48
-48
-50
-51
-53
-53
-52
-53
-54
-55
-54
-55
-55
-54
-53
-52
-52
-53
-52
-51
-51
-51
-50
-50
-50
-49
-48
-48
-48
-48
-48
-48
-48
-47
-47
-48
-49
-50
-50
-50
-50
-50
-51
-52
-52
-52
-52
-53
-54
-54
-55
-55
-54
-53
-53
-53
-52
-53
-51
-50
-49
-48
-47
-46
-46
-44
-43
-41
-41
-40
-40
-39
-38
-37
-37
-37
-37
-38
-37
-37
-37
-37
-38
-38
-38
-39
-38
-38
-38
-39
-40
-40
-39
-38
-38
-38
-38
-38
-37
-37
-36
-35
-35
-35
-34
-34
-33
-32
-32
-33
-32
-32
-32
-31
-31
-31
-31
-31
-31
-30
-29
-29
-30
-30
-30
-29
-28
-27
-27
-28
-27
-27
-27
-26
-27
-26
-27
-27
-26
-26
-25
-25
-25
-26
-26
-25
-25
-25
-25
-26
-27
-27
-26
-25
-25
-26
-27
-26
-26
-26
-25
-25
-25
-25
-25
-24
-22
-22
-22
-21
-20
-20
-19
-17
-17
-17
-17
-17
-16
-15
-14
-13
-14
-15
-14
-13
-13
-13
-13
-14
-15
-15
-14
-14
-14
-13
-14
-13
-13
-12
-12
-12
-11
-12
-13
-12
-11
-11
-11
-11
-11
-12
-11
-11
-12
-14
-15
-16
-17
-18
-18
-18
-18
-20
-20
-19
-19
-18
-18
-19
-19
-19
-18
-17
-16
-16
-16
-15
-15
-14
-13
-13
-13
-13
-14
-13
-13
-14
-13
-14
-14
-15
-15
-15
-15
-16
-18
-19
-18
-18
-18
-17
-18
-18
-17
-15
-15
-14
-14
-14
-13
-12
-10
-10
-9
-10
-10
-11
-10
-10
-10
-10
-11
-12
-12
-13
-13
-14
-15
-16
-17
-18
-17
-18
-18
-18
-19
-20
-19
-18
-18
-18
-17
-18
-17
-18
-17
-16
-17
-16
-16
-16
-15
-14
-14
-15
-16
-15
-14
-14
-14
-14
-14
-13
-13
-12
-11
-11
-11
-11
-12
-11
-10
-9
-9
-9
-8
-7
-6
-5
-4
-4
-3
-3
-2
-2
-2
-1
0
0
0
1
2
2
2
2
1
0
-2
-2
-3
-3
-4
-5
-6
-6
-7
-7
-9
-10
-11
-12
-12
-11
-12
-12
-12
-12
-11
-10
-9
-9
-8
-7
-7
-6
-4
-3
-3
-2
-3
-2
-2
-1
-1
-1
-2
-2
-2
0
0
0
0
-1
0
0
0
1
1
1
1
1
0
1
1
0
0
0
0
0
0
0
-1
-2
-3
-3
-3
-3
-4
-5
-6
-7
-6
-6
-6
-6
-7
-6
-5
-5
-5
-4
-4
-4
-2
-2
0
1
2
2
2
3
4
5
5
6
6
6
8
8
10
9
10
10
10
10
11
11
10
9
8
7
7
7
6
4
3
2
2
2
0
-1
-2
-3
-3
-3
-3
-4
-4
-4
-5
-5
-5
-4
-4
-3
-4
-3
-2
-1
0
0
0
-1
0
0
1
0
0
-1
-1
-1
0
0
0
-1
-3
-3
-3
-3
-4
-5
-5
-6
-7
-6
-5
-6
-5
-5
-5
-5
-4
-2
-2
-3
-2
-2
-1
0
0
0
0
-1
-2
-1
-1
-1
-1
-2
-3
-3
-3
-3
-3
-3
-4
-4
-4
-4
-3
-3
-3
-3
-3
-3
-1
-1
-1
-1
-2
-1
-1
0
0
0
0
0
-1
0
0
0
-1
0
-1
0
1
0
0
0
0
0
1
1
1
2
3
3
5
6
7
7
8
7
7
8
9
9
10
8
8
7
7
6
5
4
3
1
0
-1
-2
-3
-5
-6
-7
-7
-7
-8
-10
-10
-11
-11
-10
-10
-8
-9
-9
-8
-8
-7
-6
-6
-6
-6
-5
-4
-4
-3
-3
-3
-3
-2
-2
-2
-1
-2
-2
-2
-1
-1
-2
-2
-2
-3
-3
-1
-1
0
1
2
2
3
4
6
7
7
7
6
7
6
5
5
4
2
1
0
-1
-2
-5
-8
-10
-12
-14
-16
-17
-20
-22
-22
-22
-21
-21
-22
-21
-21
-21
-20
-19
-18
-16
-15
-14
-13
-12
-11
-12
-12
-13
-14
-13
-13
-13
-13
-14
-15
-16
-16
-16
-16
-17
-16
-17
-17
-16
-16
-16
-17
-16
-16
-15
-14
-13
-13
-12
-13
-13
-13
-12
-13
-14
-13
-14
-14
-14
-14
-13
-14
-14
-14
-14
-13
-13
-12
-12
-12
-12
-11
-10
-9
-9
-9
-9
-9
-8
-8
-8
-9
-9
-9
-9
-10
-9
-10
-10
-11
-11
-10
-9
-9
-10
-10
-11
-11
-10
-10
-10
-10
-10
-10
-10
-10
-9
-9
-10
-9
-9
-10
-9
-9
-9
-9
-9
-9
-8
-7
-7
-6
-7
-6
-4
-4
-3
-2
-2
-1
0
2
3
4
6
7
7
8
10
11
12
12
13
13
15
15
16
16
14
14
12
12
11
11
10
9
8
8
7
6
6
4
4
3
2
3
2
2
2
3
3
4
5
8
8
10
12
14
16
18
19
20
22
22
24
25
25
24
23
22
22
22
22
21
19
16
14
11
9
7
5
4
3
3
4
6
8
10
11
13
14
17
19
21
23
25
27
28
30
31
31
30
30
29
28
28
27
26
24
22
21
20
18
16
15
13
12
11
10
10
10
9
7
7
7
7
6
5
3
2
1
0
-1
-2
-5
-6
-8
-10
-10
-12
-13
-15
-17
-18
-20
-21
-22
-23
-24
-25
-26
-27
-27
-27
-26
-26
-27
-24
-23
-22
-20
-20
-18
-17
-14
-12
-10
-8
-5
-4
-2
1
4
6
9
10
13
15
17
20
21
22
23
24
26
27
29
29
29
29
30
32
32
33
33
33
33
33
33
33
31
29
29
27
26
26
26
23
22
20
18
15
14
12
10
9
6
5
4
3
1
0
-1
-2
-2
-2
-2
-2
-2
-2
-1
0
1
2
3
3
2
3
3
5
5
6
7
7
7
8
7
6
5
3
2
2
0
-1
-2
-3
-4
-5
-6
-6
-7
-8
-9
-10
-10
-10
-9
-10
-10
-10
-10
-9
-8
-8
-8
-9
-9
-10
-8
-7
-7
-6
-6
-5
-5
-4
-4
-3
-4
-4
-3
-2
-1
0
1
1
2
3
4
6
6
6
6
7
8
9
10
10
9
10
10
10
11
11
11
11
9
9
9
8
7
7
6
6
6
7
7
7
8
7
8
9
11
12
12
13
13
13
14
13
13
12
10
9
9
8
6
5
2
0
-2
-3
-4
-6
-8
-9
-9
-9
-8
-8
-7
-6
-5
-4
-2
0
2
3
4
4
6
7
9
10
10
10
9
9
10
10
9
8
7
6
6
6
4
4
2
1
1
2
2
2
1
-1
-2
-2
-2
-1
-1
-1
-1
0
1
2
2
1
0
-1
-1
-1
-1
-1
-1
-2
-2
-2
-2
-2
-3
-4
-6
-7
-6
-7
-6
-7
-6
-7
-6
-5
-4
-4
-5
-4
-5
-5
-4
-3
-3
-4
-4
-4
-3
-2
-2
-2
-3
-3
-3
-3
-2
-2
-3
-3
-4
-3
-2
-2
-2
-2
-2
-2
-1
0
0
1
2
1
2
2
3
4
4
5
6
7
7
8
7
7
6
5
6
6
6
5
5
3
3
2
3
1
0
-1
-2
-3
-3
-3
-4
-6
-7
-7
-7
-5
-5
-5
-6
-6
-5
-4
-3
-2
-3
-3
-3
-2
-1
0
1
1
1
3
4
5
5
5
4
3
3
4
5
5
5
4
4
3
2
2
1
0
-1
-2
-1
0
0
0
0
1
1
2
3
4
4
5
6
6
8
8
8
8
7
7
6
7
8
7
8
7
8
9
9
9
9
10
10
12
14
15
17
18
19
21
23
24
23
23
23
21
20
21
20
19
17
15
14
13
12
10
8
5
3
1
0
-1
-1
-2
-4
-6
-5
-5
-5
-5
-5
-6
-5
-6
-4
-4
-3
-4
-3
-2
-1
2
3
3
4
5
5
7
8
8
7
8
8
8
9
9
9
8
8
9
10
10
11
12
13
13
14
17
18
19
21
22
23
25
26
28
28
28
28
27
28
28
27
26
25
24
24
23
22
21
19
16
14
12
12
11
10
8
6
6
6
5
5
4
3
3
3
2
3
2
2
2
1
2
3
4
5
5
6
7
7
8
9
9
9
10
11
11
13
14
14
14
14
16
17
18
18
18
19
19
20
21
22
22
22
22
23
24
24
24
24
23
23
23
25
24
25
24
25
26
26
27
28
28
28
28
29
30
31
32
33
33
34
36
38
39
39
38
39
37
37
36
35
33
31
29
26
24
23
19
16
13
10
8
5
4
2
-1
-1
-1
0
1
2
3
3
4
5
8
9
10
12
12
13
14
15
15
15
15
14
13
14
13
13
13
12
12
12
12
13
14
14
15
16
17
20
20
22
22
22
23
24
26
26
27
26
27
28
28
28
28
27
27
26
27
28
28
28
26
25
24
24
23
23
22
21
21
19
19
18
17
15
15
13
12
13
12
11
11
11
11
12
15
16
17
19
20
21
22
24
24
24
23
23
24
25
25
25
25
24
24
25
24
24
25
23
23
23
23
24
24
23
23
22
22
23
22
22
21
19
19
18
17
17
16
14
13
12
11
11
10
10
11
11
12
12
14
15
14
15
15
16
16
17
16
17
17
17
17
18
17
16
15
14
14
14
13
12
12
11
10
10
10
11
10
9
9
9
9
11
10
10
9
8
8
9
10
9
10
10
10
11
13
14
15
15
16
18
20
21
22
24
24
25
27
29
30
30
31
32
32
33
35
36
36
37
37
37
38
39
38
39
37
36
35
34
32
31
30
28
27
25
24
23
20
18
16
14
14
12
11
11
10
11
12
12
13
14
13
14
15
16
17
19
19
19
20
21
22
23
23
24
24
24
25
26
27
28
29
29
30
30
31
31
32
31
32
33
34
36
37
37
37
37
38
39
40
40
40
41
43
44
45
47
47
47
47
47
47
46
46
44
42
41
39
37
35
33
30
29
27
25
23
22
20
18
18
17
17
17
18
18
17
19
21
23
24
26
27
28
30
32
35
37
38
40
42
44
47
50
51
52
54
56
58
60
62
64
65
66
67
69
70
71
71
71
71
72
74
74
74
74
73
73
73
73
73
73
72
71
70
69
68
65
62
60
56
55
52
49
46
42
37
33
28
24
20
15
11
7
4
1
-3
-6
-9
-11
-13
-15
-15
-15
-15
-16
-16
-15
-14
-12
-10
-9
-7
-4
-2
3
7
10
12
16
18
21
24
28
30
32
33
35
37
37
38
38
37
36
36
35
35
34
33
32
32
32
33
33
33
34
33
35
37
40
42
44
46
48
50
53
57
59
61
62
65
67
69
71
71
71
71
70
68
68
66
63
60
58
56
54
52
48
44
41
38
36
34
32
31
31
30
31
32
33
34
35
36
36
37
39
40
40
40
38
37
35
34
32
30
27
23
21
19
16
14
10
8
6
5
4
3
3
2
2
3
4
5
5
7
6
7
7
8
9
9
9
9
9
10
10
11
11
10
10
11
12
13
13
13
14
14
15
16
16
17
18
17
18
17
19
20
21
21
20
21
22
22
23
24
23
23
23
23
23
23
24
24
26
28
29
32
32
34
34
34
33
33
33
32
32
32
31
31
31
30
29
27
25
24
22
21
19
17
16
13
13
12
11
9
8
7
7
8
8
9
10
10
11
11
12
12
12
11
10
10
12
12
13
14
14
14
13
15
14
15
15
15
15
15
16
17
18
17
17
17
19
19
19
19
18
17
17
15
15
15
14
13
12
11
10
10
10
9
7
7
6
7
6
6
6
6
6
6
6
7
6
6
5
5
5
6
7
7
8
9
11
13
15
16
17
18
19
20
21
22
21
21
21
21
22
22
21
18
17
14
12
10
8
6
5
2
1
0
-2
-3
-3
-5
-6
-6
-6
-6
-6
-6
-6
-7
-7
-7
-6
-6
-7
-8
-8
-7
-6
-6
-4
-4
-3
-2
-1
0
0
1
1
2
3
4
4
5
5
5
5
4
5
3
1
0
-2
-3
-3
-4
-4
-5
-5
-5
-6
-5
-5
-4
-3
-2
0
2
5
8
10
12
14
16
18
20
21
22
23
24
25
26
27
27
26
26
27
27
27
26
24
22
19
18
15
13
11
9
6
4
2
-1
-3
-6
-9
-12
-15
-17
-19
-22
-24
-28
-29
-31
-31
-31
-31
-31
-30
-30
-29
-28
-27
-26
-25
-24
-23
-20
-18
-16
-14
-12
-9
-7
-3
0
4
6
9
11
13
15
16
17
17
17
17
17
17
16
14
13
11
9
7
5
3
0
-2
-5
-7
-8
-10
-11
-12
-12
-12
-12
-12
-10
-11
-11
-9
-8
-7
-5
-4
-3
-2
-1
1
1
3
4
4
5
6
7
7
8
7
6
6
6
7
7
6
6
5
5
5
6
6
5
4
4
5
6
7
8
8
7
7
7
6
6
5
4
3
2
2
1
0
-1
-3
-4
-6
-7
-7
-8
-10
-11
-11
-12
-12
-12
-12
-12
-13
-12
-12
-11
-10
-11
-11
-12
-13
-12
-13
-13
-12
-12
-11
-11
-9
-8
-7
-5
-4
-3
0
2
4
5
5
7
7
9
9
9
10
8
8
8
7
7
5
4
2
1
-1
-1
-3
-4
-6
-8
-9
-10
-10
-11
-12
-12
-13
-14
-13
-13
-14
-15
-15
-15
-14
-13
-12
-10
-9
-8
-6
-4
-2
-2
-2
-1
-1
-1
1
2
3
2
2
1
0
-1
-1
-3
-5
-7
-8
-9
-10
-11
-12
-14
-15
-15
-14
-15
-15
-15
-16
-17
-17
-16
-17
-17
-18
-18
-19
-18
-18
-18
-19
-20
-21
-21
-21
-20
-20
-20
-21
-21
-20
-20
-19
-19
-19
-19
-19
-17
-17
-16
-16
-15
-15
-13
-11
-9
-7
-6
-4
-3
-1
2
2
3
5
6
8
10
11
12
12
10
10
9
7
6
4
1
-3
-5
-8
-11
-13
-17
-20
-22
-25
-27
-28
-29
-31
-31
-32
-31
-30
-29
-28
-28
-27
-26
-24
-23
-21
-21
-19
-19
-18
-16
-15
-14
-15
-15
-15
-14
-13
-11
-11
-12
-12
-12
-12
-12
-14
-14
-15
-17
-17
-18
-18
-19
-21
-22
-24
-25
-26
-27
-28
-30
-31
-31
-30
-30
-29
-30
-29
-29
-28
-27
-26
-26
-26
-27
-27
-27
-28
-27
-28
-28
-30
-31
-31
-33
-34
-36
-38
-40
-41
-42
-42
-42
-44
-44
-44
-43
-42
-41
-41
-41
-40
-39
-37
-36
-35
-35
-33
-33
-32
-30
-30
-29
-28
-28
-28
-27
-25
-24
-23
-23
-23
-22
-22
-21
-21
-21
-21
-21
-22
-21
-21
-21
-21
-21
-21
-21
-20
-20
-21
-20
-22
-21
-21
-21
-20
-20
-21
-21
-21
-20
-20
-20
-21
-21
-21
-20
-20
-20
-21
-21
-22
-21
-21
-21
-21
-22
-22
-23
-23
-22
-22
-21
-22
-23
-22
-22
-22
-22
-23
-24
-24
-25
-25
-25
-24
-25
-24
-24
-24
-23
-22
-22
-20
-19
-18
-16
-13
-10
-9
-8
-9
-8
-7
-6
-5
-5
-4
-5
-4
-6
-7
-8
-9
-11
-13
-14
-15
-17
-19
-21
-23
-24
-24
-25
-26
-27
-29
-30
-30
-30
-31
-30
-31
-31
-31
-30
-30
-29
-29
-27
-27
-27
-25
-24
-24
-23
-22
-22
-21
-20
-19
-17
-17
-16
-15
-14
-12
-11
-10
-11
-10
-8
-6
-5
-3
-2
0
1
3
5
7
9
9
10
12
14
16
17
19
18
18
18
19
19
18
16
16
15
14
12
11
8
6
4
2
0
-1
-3
-4
-5
-7
-8
-9
-9
-11
-12
-15
-16
-16
-18
-18
-19
-21
-23
-24
-26
-27
-29
-32
-35
-38
-39
-41
-42
-43
-45
-48
-50
-51
-53
-54
-55
-56
-57
-57
-58
-57
-56
-55
-55
-54
-53
-51
-49
-47
-45
-43
-41
-38
-35
-33
-30
-27
-25
-23
-20
-18
-16
-14
-12
-11
-9
-6
-4
-2
-1
0
1
2
4
6
7
8
8
10
11
11
12
13
12
11
10
9
7
7
5
3
2
0
-2
-4
-7
-9
-13
-15
-17
-19
-20
-22
-23
-25
-26
-27
-27
-27
-28
-28
-28
-28
-27
-27
-26
-27
-27
-27
-27
-27
-28
-28
-28
-29
-29
-30
-30
-31
-31
-32
-33
-34
-34
-34
-34
-35
-36
-37
-36
-36
-35
-36
-35
-36
-36
-36
-36
-36
-36
-37
-37
-37
-37
-37
-37
-36
-36
-36
-36
-35
-34
-33
-33
-33
-32
-31
-29
-27
-26
-24
-23
-20
-19
-17
-15
-13
-13
-13
-12
-12
-13
-14
-15
-16
-17
-17
-19
-21
-24
-27
-30
-32
-34
-36
-39
-42
-45
-46
-48
-48
-48
-49
-50
-49
-49
-47
-47
-46
-44
-44
-44
-43
-42
-40
-40
-40
-40
-39
-38
-37
-38
-37
-37
-37
-37
-38
-37
-37
-37
-37
-37
-36
-36
-36
-36
-36
-36
-36
-36
-35
-34
-34
-34
-33
-33
-31
-31
-31
-31
-31
-31
-31
-30
-30
-30
-30
-31
-32
-32
-32
-32
-33
-33
-34
-35
-34
-35
-35
-36
-36
-36
-36
-37
-37
-37
-38
-38
-38
-37
-37
-37
-37
-38
-38
-38
-38
-37
-37
-38
-37
-38
-38
-38
-38
-39
-39
-40
-40
-40
-39
-39
-40
-41
-42
-43
-43
-43
-43
-43
-44
-43
-44
-43
-42
-43
-42
-42
-42
-40
-39
-38
-38
-37
-37
-37
-36
-35
-34
-34
-34
-34
-34
-34
-33
-34
-35
-35
-35
-36
-35
-35
-36
-37
-37
-38
-38
-37
-37
-38
-38
-39
-39
-38
-39
-39
-38
-39
-39
-38
-38
-38
-38
-37
-38
-38
-38
-37
-36
-37
-36
-36
-36
-36
-35
-35
-36
-36
-36
-37
-36
-36
-36
-37
-36
-36
-37
-36
-37
-38
-38
-38
-39
-39
-39
-39
-39
-40
-39
-39
-39
-38
-38
-39
-40
-39
-38
-36
-37
-36
-36
-36
-35
-35
-34
-33
-33
-33
-33
-32
-32
-32
-32
-32
-32
-31
-32
-32
-32
-32
-33
-34
-35
-35
-36
-37
-39
-39
-40
-41
-41
-42
-43
-44
-46
-47
-48
-48
-49
-49
-50
-51
-50
-49
-49
-49
-49
-49
-48
-47
-47
-46
-45
-45
-44
-43
-43
-41
-40
-39
-39
-39
-39
-38
-38
-38
-38
-37
-37
-36
-36
-36
-37
-37
-38
-38
-38
-38
-38
-39
-39
-40
-40
-39
-39
-39
-40
-40
-41
-40
-39
-38
-38
-38
-39
-39
-38
-37
-37
-38
-37
-37
-37
-36
-36
-36
-37
-38
-37
-38
-37
-38
-38
-38
-39
-40
-39
-39
-39
-40
-41
-41
-41
-41
-40
-40
-41
-40
-40
-40
-39
-39
-39
-39
-38
-37
-36
-34
-33
-33
-32
-31
-31
-31
-31
-31
-31
-31
-31
-31
-30
-31
-31
-32
-33
-34
-34
-34
-35
-37
-38
-39
-40
-39
-40
-39
-40
-41
-41
-40
-40
-40
-41
-42
-41
-41
-42
-41
-41
-41
-41
-41
-41
-39
-39
-38
-39
-38
-37
-36
-36
-35
-34
-33
-33
-32
-31
-30
-30
-30
-30
-30
-30
-31
-31
-32
-33
-33
-34
-35
-35
-35
-36
-38
-39
-40
-40
-41
-42
-42
-44
-45
-45
-44
-44
-44
-43
-44
-44
-43
-42
-42
-42
-42
-40
-39
-38
-36
-35
-34
-33
-31
-29
-28
-27
-26
-26
-27
-26
-26
-25
-25
-25
-26
-27
-28
-28
-29
-31
-32
-34
-35
-37
-37
-37
-38
-39
-40
-40
-40
-41
-40
-41
-40
-40
-40
-39
-39
-39
-39
-40
-39
-38
-38
-37
-37
-38
-37
-37
-36
-36
-35
-35
-35
-35
-34
-34
-33
-32
-31
-32
-31
-30
-29
-30
-29
-29
-29
-29
-28
-27
-28
-28
-28
-29
-29
-29
-30
-31
-31
-32
-33
-33
-33
-34
-34
-35
-36
-36
-37
-36
-36
-36
-37
-36
-36
-36
-35
-35
-35
-34
-34
-34
-33
-32
-32
-32
-32
-32
-31
-30
-30
-30
-30
-29
-28
-27
-26
-25
-24
-24
-24
-23
-23
-22
-22
-23
-24
-25
-25
-27
-28
-29
-31
-33
-36
-37
-40
-42
-45
-47
-50
-52
-53
-55
-56
-58
-59
-59
-59
-59
-59
-59
-59
-59
-59
-58
-58
-57
-56
-56
-55
-54
-53
-52
-52
-50
-50
-50
-49
-48
-47
-46
-47
-46
-45
-44
-43
-42
-41
-41
-41
-39
-39
-38
-37
-37
-36
-35
-34
-32
-31
-30
-31
-31
-31
-30
-30
-30
-30
-30
-30
-30
-30
-31
-31
-33
-34
-35
-35
-35
-36
-37
-38
-37
-37
-37
-37
-37
-37
-37
-37
-37
-36
-37
-36
-36
-35
-35
-35
-34
-33
-33
-33
-33
-33
-33
-32
-32
-32
-31
-32
-31
-31
-30
-31
-31
-31
-31
-30
-29
-29
-29
-29
-29
-29
-28
-27
-27
-27
-27
-26
-25
-24
-23
-22
-21
-21
-20
-19
-20
-20
-20
-19
-19
-19
-18
-18
-18
-18
-18
-19
-19
-19
-18
-19
-19
-20
-20
-20
-20
-21
-22
-22
-23
-24
-24
-26
-26
-28
-30
-31
-32
-33
-34
-35
-36
-36
-36
-37
-36
-36
-35
-35
-34
-33
-31
-29
-28
-27
-26
-25
-23
-22
-21
-20
-19
-18
-17
-16
-15
-13
-12
-11
-11
-9
-7
-5
-3
-1
0
3
5
7
9
11
12
14
15
17
18
19
19
19
19
19
20
19
19
17
16
15
14
13
13
12
11
12
11
12
12
11
11
11
11
9
9
8
7
6
4
2
0
-2
-5
-8
-12
-16
-21
-24
-27
-31
-35
-38
-41
-44
-45
-48
-50
-52
-54
-55
-56
-56
-56
-56
-57
-57
-56
-56
-55
-55
-54
-53
-53
-52
-50
-48
-47
-45
-44
-41
-39
-36
-34
-31
-29
-26
-23
-20
-17
-13
-10
-7
-4
-1
1
4
6
7
9
11
13
14
14
15
15
15
16
17
18
18
17
16
17
16
16
17
15
15
14
14
14
13
12
10
8
7
6
5
4
2
0
-1
-3
-4
-5
-6
-6
-8
-9
-9
-10
-10
-10
-11
-12
-13
-13
-12
-12
-12
-12
-12
-12
-12
-12
-11
-12
-12
-12
-12
-10
-9
-9
-10
-10
-11
-12
-12
-13
-13
-14
-14
-14
-15
-15
-16
-16
-17
-18
-19
-19
-18
-18
-19
-20
-20
-21
-20
-20
-20
-20
-21
-22
-21
-20
-20
-20
-21
-23
-24
-24
-24
-24
-25
-25
-26
-25
-25
-24
-23
-23
-24
-24
-23
-22
-21
-20
-19
-19
-18
-17
-15
-14
-13
-13
-13
-12
-11
-9
-9
-9
-10
-10
-9
-8
-7
-7
-8
-8
-9
-9
-9
-9
-9
-10
-11
-11
-11
-10
-10
-10
-11
-11
-11
-10
-11
-11
-11
-10
-10
-11
-10
-10
-11
-11
-11
-11
-11
-11
-11
-11
-11
-12
-12
-13
-13
-13
-14
-14
-15
-15
-15
-15
-15
-16
-16
-16
-16
-15
-15
-15
-15
-15
-14
-13
-13
-12
-13
-13
-13
-12
-11
-10
-10
-10
-10
-10
-9
-8
-8
-9
-9
-9
-9
-8
-8
-8
-8
-8
-9
-8
-8
-8
-9
-10
-11
-11
-11
-10
-11
-11
-11
-12
-12
-13
-13
-14
-15
-15
-15
-15
-15
-14
-15
-14
-14
-14
-13
-12
-11
-11
-10
-9
-9
-8
-7
-7
-7
-7
-6
-7
-6
-6
-7
-7
-8
-8
-9
-9
-9
-10
-11
-12
-12
-12
-13
-14
-15
-16
-17
-17
-17
-17
-17
-18
-18
-18
-18
-18
-18
-18
-18
-19
-18
-17
-17
-16
-16
-16
-16
-16
-15
-16
-16
-15
-15
-15
-14
-14
-14
-14
-15
-15
-14
-13
-13
-13
-14
-15
-15
-15
-15
-15
-16
-17
-18
-18
-17
-18
-18
-18
-18
-18
-18
-17
-18
-18
-18
-19
-20
-19
-19
-18
-18
-19
-19
-19
-19
-19
-19
-20
-19
-20
-19
-19
-18
-18
-18
-18
-18
-17
-17
-16
-16
-16
-17
-17
-16
-15
-15
-15
-16
-16
-16
-16
-15
-16
-17
-17
-17
-16
-16
-15
-16
-16
-16
-16
-15
-15
-15
-14
-15
-15
-14
-14
-13
-14
-14
-15
-15
-15
-14
-14
-14
-15
-14
-14
-14
-13
-13
-14
-13
-13
-13
-13
-12
-11
-10
-11
-10
-10
-9
-9
-9
-10
-10
-10
-9
-8
-8
-9
-10
-11
-11
-11
-11
-12
-12
-13
-14
-14
-15
-15
-15
-16
-17
-16
-16
-15
-15
-15
-15
-15
-14
-12
-11
-11
-11
-10
-10
-9
-7
-7
-7
-7
-6
-6
-6
-6
-6
-6
-7
-7
-7
-7
-7
-8
-9
-9
-11
-10
-10
-10
-10
-11
-11
-11
-10
-9
-9
-9
-10
-10
-10
-10
-10
-10
-10
-10
-10
-9
-8
-9
-10
-11
-12
-12
-11
-10
-9
-9
-9
-9
-9
-10
-10
-10
-9
-9
-9
-8
-7
-7
-6
-6
-6
-6
-5
-5
-4
-4
-4
-3
-4
-3
-2
-2
-2
-3
-3
-3
-3
-3
-3
-3
-4
-4
-4
-4
-4
-4
-5
-5
-4
-3
-2
-2
-3
-3
-4
-3
-2
-2
-2
-3
-2
-2
-2
-2
-2
-2
-2
-3
-3
-2
-2
-2
-2
-2
-2
-2
-1
-2
-1
-1
0
1
2
3
4
3
4
3
4
4
4
4
3
4
3
4
3
3
1
1
-1
-2
-2
-1
-3
-2
-3
-3
-3
-4
-3
-3
-3
-2
-2
-1
-1
1
2
3
3
4
5
6
6
6
5
6
5
4
3
2
1
-1
-2
-4
-5
-7
-9
-10
-12
-13
-13
-14
-14
-14
-15
-16
-15
-14
-14
-13
-11
-11
-10
-9
-8
-7
-7
-7
-7
-6
-5
-5
-4
-4
-4
-4
-4
-3
-2
-2
-2
-3
-3
-3
-3
-3
-3
-3
-3
-1
0
0
1
1
1
2
2
3
4
4
4
5
5
6
8
8
9
9
9
9
9
10
10
10
9
8
8
9
9
7
7
6
4
4
2
2
1
-1
-1
-3
-3
-4
-5
-6
-7
-7
-7
-6
-5
-5
-5
-5
-4
-3
-1
0
0
0
1
2
3
4
6
6
7
8
9
11
12
13
14
14
16
17
18
18
19
19
19
19
20
21
20
21
20
21
21
21
21
21
21
20
20
20
21
21
22
21
21
22
23
24
24
23
23
22
23
23
24
24
24
23
23
24
24
25
24
25
25
26
28
28
29
31
32
33
35
35
37
37
38
39
40
41
41
42
43
43
43
43
44
44
44
44
43
42
43
43
44
44
45
45
45
45
46
48
48
47
49
50
51
52
53
53
54
54
55
56
55
55
55
55
55
56
57
57
57
56
56
56
56
56
56
56
55
56
55
56
56
57
56
57
58
57
58
59
59
58
59
60
62
63
64
64
65
66
67
69
70
71
73
74
76
76
78
80
81
81
83
84
86
87
89
90
91
93
94
96
98
99
100
101
102
104
107
109
111
112
115
117
120
122
123
125
126
128
129
130
131
132
133
132
132
132
132
132
131
130
129
129
128
128
126
125
123
122
121
120
120
119
118
117
116
115
115
115
113
112
110
110
109
108
106
105
104
103
101
101
100
98
98
96
95
95
95
94
94
92
92
91
92
93
93
93
93
93
94
96
96
96
97
97
99
100
102
103
104
106
107
109
112
115
117
119
121
123
126
129
132
133
136
137
139
142
144
146
147
148
149
151
153
156
157
158
159
160
161
162
163
166
166
167
168
170
171
172
172
171
170
170
169
167
165
163
161
160
157
156
154
153
150
148
145
143
142
140
139
138
137
136
136
136
135
135
135
135
136
137
139
141
142
143
145
146
148
150
150
150
150
150
150
150
150
149
147
145
144
143
141
138
135
132
130
127
125
123
122
120
120
121
121
122
124
125
127
128
130
131
133
134
135
137
139
141
141
141
142
141
140
140
140
139
138
137
134
133
132
130
130
128
126
124
122
121
120
119
117
117
116
115
116
115
115
114
114
113
114
113
114
114
115
115
117
119
121
122
123
124
125
127
129
131
131
131
131
131
131
132
132
130
128
125
121
117
114
110
106
102
98
95
92
87
84
81
77
74
73
70
69
68
66
66
66
66
67
68
68
68
68
69
69
70
70
70
71
71
71
73
74
74
