# Simple Text Format
# Sampling Rate (Hz):= 1200.00
# Resolution:= 12
# Labels:= ECG	 V1
# Age:=	76
# Gender:=	Masculino
1108
1108
1108
1107
1107
1106
1106
1106
1105
1104
1104
1103
1103
1102
1102
1102
1100
1100
1099
1098
1098
1098
1097
1096
1095
1094
1094
1093
1093
1092
1091
1090
1090
1091
1090
1089
1089
1088
1087
1087
1087
1086
1086
1086
1085
1085
1084
1085
1084
1084
1083
1083
1082
1082
1082
1081
1081
1080
1079
1079
1080
1079
1079
1077
1076
1076
1075
1076
1076
1075
1074
1074
1074
1074
1075
1074
1074
1073
1073
1073
1074
1073
1074
1073
1074
1073
1073
1073
1074
1073
1073
1073
1072
1073
1073
1073
1072
1072
1071
1072
1072
1073
1073
1073
1073
1074
1074
1074
1075
1076
1077
1077
1078
1079
1080
1081
1081
1082
1083
1084
1084
1086
1086
1086
1087
1087
1087
1088
1089
1089
1089
1090
1089
1090
1091
1091
1092
1091
1091
1091
1093
1093
1093
1093
1093
1093
1094
1093
1094
1094
1093
1093
1093
1094
1094
1093
1093
1093
1092
1092
1093
1092
1091
1092
1091
1090
1090
1091
1090
1090
1089
1090
1090
1090
1090
1090
1090
1090
1090
1090
1090
1090
1090
1089
1089
1089
1089
1088
1088
1088
1088
1087
1087
1087
1086
1086
1086
1085
1084
1084
1084
1084
1084
1083
1083
1082
1082
1082
1082
1082
1081
1081
1081
1080
1081
1081
1080
1079
1079
1078
1079
1079
1078
1079
1078
1078
1078
1078
1078
1078
1078
1077
1077
1077
1078
1078
1077
1076
1077
1076
1076
1077
1076
1076
1076
1075
1075
1075
1075
1075
1075
1074
1074
1075
1074
1073
1074
1073
1073
1073
1074
1073
1073
1073
1073
1072
1073
1073
1072
1072
1072
1072
1073
1073
1073
1073
1073
1072
1072
1072
1072
1072
1072
1072
1071
1071
1071
1071
1071
1071
1071
1070
1070
1070
1070
1069
1069
1068
1069
1068
1068
1068
1067
1067
1066
1066
1066
1066
1066
1065
1064
1064
1063
1063
1063
1063
1062
1062
1061
1062
1062
1061
1061
1061
1061
1060
1061
1061
1061
1061
1061
1060
1061
1061
1062
1062
1062
1062
1061
1062
1062
1062
1062
1061
1061
1061
1061
1060
1060
1059
1059
1058
1058
1058
1058
1058
1057
1056
1056
1056
1055
1055
1054
1053
1053
1053
1053
1053
1053
1052
1051
1051
1051
1051
1051
1051
1050
1050
1050
1050
1050
1050
1050
1049
1049
1049
1048
1049
1049
1048
1049
1048
1048
1048
1048
1048
1048
1047
1047
1046
1046
1046
1045
1045
1044
1044
1043
1043
1043
1042
1041
1041
1041
1041
1041
1041
1040
1039
1039
1039
1039
1039
1038
1038
1038
1037
1037
1038
1038
1037
1036
1036
1036
1037
1036
1036
1036
1035
1034
1034
1035
1034
1035
1034
1033
1032
1032
1032
1031
1031
1030
1030
1030
1030
1031
1030
1030
1029
1029
1029
1029
1029
1029
1028
1028
1027
1027
1027
1027
1028
1027
1026
1027
1028
1027
1027
1027
1026
1026
1026
1027
1027
1027
1026
1026
1025
1025
1026
1026
1025
1025
1024
1023
1024
1024
1023
1023
1021
1021
1021
1021
1020
1020
1020
1020
1019
1019
1019
1019
1019
1019
1018
1018
1019
1018
1018
1019
1018
1019
1019
1019
1018
1018
1018
1017
1016
1015
1015
1015
1014
1012
1011
1010
1010
1008
1008
1007
1006
1004
1004
1004
1003
1002
1001
1000
1000
1000
999
1000
999
999
998
999
999
999
999
998
997
997
997
997
997
997
996
995
994
994
994
994
993
992
992
991
992
991
992
991
990
989
989
989
988
987
987
986
985
985
984
983
982
980
979
978
978
977
977
976
977
976
976
977
978
978
978
979
981
983
984
986
986
987
989
990
991
993
992
993
993
993
993
993
993
993
992
990
991
990
990
990
989
989
988
989
989
989
989
989
989
990
990
991
991
992
991
992
992
992
992
992
991
992
991
991
991
991
991
990
988
988
987
987
987
986
984
984
984
983
982
982
981
980
979
979
978
978
978
977
977
976
976
977
977
977
977
978
978
979
980
981
981
982
983
985
986
987
989
990
991
992
994
995
997
999
999
1000
1002
1002
1005
1005
1006
1008
1008
1009
1009
1010
1011
1011
1011
1011
1012
1012
1012
1012
1011
1011
1010
1010
1010
1009
1009
1009
1008
1008
1008
1009
1008
1008
1009
1010
1010
1011
1013
1014
1015
1016
1017
1019
1020
1021
1022
1023
1024
1025
1027
1028
1028
1029
1029
1029
1030
1031
1032
1033
1033
1033
1034
1036
1036
1038
1038
1039
1040
1041
1043
1045
1047
1048
1050
1054
1056
1060
1063
1066
1071
1074
1078
1083
1088
1093
1098
1103
1108
1113
1119
1124
1130
1135
1140
1144
1150
1155
1160
1164
1169
1173
1177
1181
1187
1192
1196
1200
1203
1206
1210
1213
1214
1215
1214
1213
1212
1209
1205
1200
1192
1185
1177
1167
1158
1147
1136
1124
1112
1100
1088
1076
1063
1052
1040
1030
1021
1013
1004
997
991
984
979
975
970
967
965
961
959
957
956
955
952
952
950
948
947
947
947
946
944
944
943
943
942
941
940
940
939
938
938
938
937
936
936
935
935
935
935
934
933
932
931
930
931
931
930
930
930
930
929
928
928
928
927
927
927
928
928
928
927
927
927
928
928
928
927
927
926
926
926
926
926
925
924
923
924
924
924
923
923
922
921
921
921
920
920
920
919
919
919
919
918
918
916
915
915
915
914
913
913
912
912
911
912
912
911
911
910
910
910
910
910
910
910
910
910
910
911
911
911
910
910
910
911
911
910
910
909
909
909
909
909
908
908
908
907
908
908
907
907
907
906
906
907
907
906
905
906
906
906
907
907
906
907
906
907
908
907
907
908
907
907
907
907
907
906
906
906
906
905
906
905
904
904
903
903
902
902
902
900
900
899
899
898
898
898
896
896
896
895
895
895
894
894
893
893
894
893
894
893
892
893
892
893
893
892
891
892
891
892
891
892
891
890
890
890
890
890
890
889
888
889
888
888
888
888
886
886
886
885
885
885
883
883
882
881
882
880
881
879
878
877
877
877
876
876
875
874
875
875
875
875
875
874
874
874
874
874
874
874
874
873
874
873
874
873
872
872
871
871
871
870
869
869
868
867
868
867
867
866
865
864
865
864
864
864
864
864
864
865
865
865
865
865
865
866
866
866
867
866
866
866
866
867
867
866
867
866
867
868
867
868
867
867
868
868
869
869
869
869
868
869
870
870
871
872
872
873
873
874
875
875
875
876
876
877
877
878
878
879
878
879
880
880
881
880
881
881
882
882
883
882
883
883
883
884
885
885
885
885
885
885
885
886
886
886
885
886
885
886
886
886
885
886
885
886
886
887
887
886
886
886
886
887
886
887
886
886
886
887
886
885
884
884
883
883
884
883
884
883
882
882
882
882
882
882
881
882
881
882
882
882
882
882
882
883
884
884
884
884
884
883
884
884
884
883
883
883
883
882
882
882
881
879
879
878
879
879
879
878
878
877
877
878
877
878
877
877
877
878
878
879
879
879
879
880
881
881
881
881
881
882
882
882
883
882
883
883
883
884
885
885
884
883
883
883
883
883
883
882
881
881
881
881
881
880
879
878
878
878
877
878
877
877
877
878
879
878
878
878
878
878
878
879
879
880
879
879
879
879
879
880
879
878
878
878
878
878
878
877
878
877
876
877
876
875
875
874
874
874
874
874
873
872
871
871
871
871
870
870
870
869
869
870
870
869
870
869
869
870
871
871
871
872
871
872
872
873
873
872
871
871
871
872
871
871
870
870
870
870
869
869
867
867
866
865
864
864
864
863
862
862
862
863
863
862
863
863
863
863
864
865
865
865
866
867
867
868
869
868
869
869
869
870
869
869
869
869
869
869
869
869
869
868
867
867
867
867
866
865
865
865
865
864
863
862
862
861
860
860
859
860
859
858
857
857
858
858
856
855
854
854
854
854
855
854
853
853
853
853
853
852
851
851
851
851
851
850
851
850
850
849
849
850
849
850
849
849
849
849
850
850
849
849
848
848
849
848
848
849
848
849
849
849
850
850
850
851
850
851
853
853
853
854
854
854
855
855
855
856
855
855
855
855
855
854
853
853
853
853
853
852
852
852
851
851
851
851
851
850
850
851
851
851
851
852
851
852
852
853
852
852
852
852
851
851
851
850
849
848
847
847
845
845
843
842
841
839
839
838
838
837
836
835
835
834
834
835
834
833
834
833
833
833
834
833
833
833
833
833
834
835
834
834
833
834
833
833
832
832
832
832
831
832
832
832
832
832
833
834
835
835
835
836
835
836
838
839
839
839
840
841
841
842
843
842
842
842
841
840
839
838
836
833
832
831
829
827
825
822
821
820
820
819
819
818
818
818
820
821
823
825
827
830
832
835
839
841
843
846
847
849
850
852
853
852
852
852
852
851
852
851
850
850
849
848
848
847
847
847
846
846
846
847
847
847
846
846
846
846
846
846
845
844
844
844
844
844
843
842
841
840
841
841
840
840
840
839
840
840
841
841
840
840
840
840
840
840
841
840
840
840
841
841
841
842
842
843
844
845
846
847
847
849
850
851
853
854
856
858
859
861
862
865
866
867
868
869
871
871
872
873
872
873
872
873
873
873
873
872
872
871
870
871
870
870
869
870
870
871
872
874
874
874
875
876
878
879
879
881
881
883
884
886
886
887
888
888
889
890
891
892
892
893
894
896
898
900
901
903
904
905
907
908
910
912
914
917
919
922
925
928
931
932
936
939
942
946
950
953
957
961
966
971
976
980
985
990
996
1002
1008
1014
1019
1025
1030
1035
1041
1047
1052
1057
1063
1069
1073
1079
1082
1086
1088
1090
1092
1093
1093
1091
1089
1086
1080
1075
1068
1060
1051
1042
1030
1019
1007
996
983
970
958
946
934
923
913
903
893
884
876
869
863
858
853
849
846
843
840
839
836
835
833
832
831
830
830
829
828
827
826
825
824
824
823
822
820
820
819
819
818
816
815
814
813
813
812
811
810
808
807
807
806
806
805
804
803
803
803
803
803
802
801
801
801
802
803
803
803
803
803
804
803
804
803
802
803
803
803
804
804
803
803
803
803
804
804
804
804
804
803
803
804
804
804
804
803
803
802
803
802
801
800
800
799
799
799
798
797
796
795
794
794
793
792
791
789
788
787
786
785
783
782
781
780
778
778
777
776
776
775
776
777
778
779
780
781
782
785
788
789
792
794
796
798
800
802
803
804
805
805
805
806
806
806
806
806
805
805
804
803
802
800
800
798
798
797
797
796
795
793
794
794
794
793
792
792
792
792
793
794
795
794
794
795
797
797
798
799
799
800
801
802
802
802
802
801
801
801
800
800
800
799
798
797
797
795
795
794
794
794
794
794
794
794
793
792
793
793
793
793
794
794
793
793
794
794
794
792
792
791
790
790
789
788
787
785
785
784
784
784
782
782
781
780
779
780
779
778
778
777
778
777
777
777
776
775
775
774
775
774
773
772
771
771
771
770
769
768
767
767
767
767
768
768
767
767
767
767
767
767
766
766
766
766
766
766
765
765
764
763
763
763
762
762
760
760
759
760
760
760
760
761
760
761
762
763
764
764
765
765
765
766
767
767
768
768
767
768
768
768
768
768
768
768
769
770
771
771
771
773
773
775
775
776
778
778
779
780
781
782
783
783
785
786
787
787
788
790
789
790
791
792
792
793
793
793
793
794
794
794
794
794
794
794
795
794
794
795
794
793
793
793
794
794
793
794
794
794
795
794
794
794
794
794
795
796
795
795
794
795
794
795
794
794
794
794
793
793
794
794
793
793
792
792
793
792
792
791
790
790
790
790
789
789
788
788
788
788
787
788
787
787
786
786
785
784
784
782
781
781
780
780
778
777
776
774
773
773
771
770
769
768
767
767
767
767
767
767
767
768
769
769
771
772
774
774
775
777
778
779
779
781
781
782
783
783
783
782
782
782
781
780
780
779
778
777
776
776
775
774
773
773
772
772
772
772
772
772
771
772
772
772
773
774
773
773
773
774
773
774
773
773
772
773
773
773
773
772
771
771
770
770
769
768
768
767
767
767
767
766
767
766
765
765
766
766
766
765
765
765
765
765
766
767
766
766
766
767
768
767
768
768
768
768
769
770
770
769
769
769
769
770
770
769
769
768
767
767
767
766
765
765
764
764
764
764
763
762
761
761
760
760
759
759
758
758
758
758
758
758
757
757
756
757
756
757
757
756
755
755
754
754
754
753
752
752
751
750
751
750
750
750
749
750
750
751
751
752
751
751
752
752
752
753
754
753
753
753
753
753
752
752
751
751
750
750
749
750
749
748
749
748
749
748
747
747
746
747
748
747
747
746
746
746
746
746
746
746
745
745
745
745
745
746
745
745
744
745
744
744
744
743
742
742
741
742
742
741
740
739
740
739
740
739
739
738
738
739
739
739
740
739
740
739
740
740
740
739
739
738
738
738
737
737
737
736
736
736
736
736
736
735
735
735
735
736
736
736
736
736
737
737
737
738
737
736
736
735
736
735
734
734
733
733
732
733
733
732
731
731
731
731
731
731
731
731
731
732
732
732
731
732
731
731
730
731
729
729
727
727
726
726
725
723
722
722
721
721
720
719
719
718
718
718
718
719
720
720
720
721
720
721
722
722
723
723
723
724
724
725
724
724
723
723
723
723
721
721
719
718
718
717
715
715
714
713
712
712
712
712
713
712
713
713
714
716
717
717
718
718
720
721
721
722
723
722
723
724
724
724
723
723
722
722
722
722
721
721
721
721
721
721
721
721
721
721
721
721
721
722
721
721
722
721
722
723
723
723
723
723
724
725
725
725
726
727
727
728
729
730
730
731
731
732
733
733
733
732
732
731
731
729
728
728
726
725
724
723
722
721
720
718
717
717
716
716
716
716
716
716
717
718
719
720
720
721
722
723
725
727
727
728
728
730
730
731
732
732
732
733
735
737
738
740
740
742
743
746
748
751
752
754
756
758
761
762
764
765
766
766
767
767
768
766
766
766
765
765
764
763
763
761
760
761
761
761
762
763
763
764
765
767
769
771
773
774
776
778
780
782
782
783
783
784
783
783
783
782
781
780
779
779
778
777
777
777
777
779
779
780
782
784
786
788
791
795
799
803
806
810
815
819
823
828
831
836
841
846
850
854
858
862
866
870
874
878
882
886
889
893
897
902
906
910
914
918
923
928
933
938
943
948
954
959
965
970
974
978
980
982
984
985
984
982
979
975
968
963
955
946
937
927
915
905
893
882
870
858
846
836
826
816
807
798
789
780
773
766
761
756
751
747
744
740
738
736
733
731
729
728
727
726
725
724
723
722
721
720
720
720
718
718
716
716
716
716
716
715
715
715
716
717
717
718
719
719
722
722
724
726
727
728
729
730
732
732
732
732
731
732
731
730
729
728
727
725
724
724
723
722
721
720
718
718
717
716
715
714
714
713
713
714
714
713
712
713
712
713
714
714
714
714
714
715
715
716
715
716
715
714
715
715
714
714
712
712
711
711
709
708
707
705
704
703
703
702
702
701
701
700
701
702
703
703
704
704
705
706
706
707
707
708
709
710
710
712
712
712
712
712
712
713
712
712
711
711
710
710
709
710
708
708
707
707
707
707
706
704
703
702
701
700
699
698
696
695
694
694
694
694
693
692
692
692
693
692
692
691
691
692
692
692
692
692
691
690
690
691
691
691
692
692
692
692
692
692
692
691
691
692
692
693
693
692
692
692
691
691
690
689
689
688
688
687
687
686
686
685
684
684
684
683
683
684
683
682
683
683
684
683
683
683
682
683
684
684
684
683
682
682
682
682
683
681
682
681
681
680
680
680
679
678
678
678
678
678
677
677
676
676
676
676
675
675
675
673
673
673
672
671
670
670
669
669
668
669
667
667
666
667
667
667
667
668
667
668
668
668
669
670
669
669
669
669
670
670
670
670
669
669
669
669
669
669
668
669
669
668
668
669
668
668
668
669
670
670
672
671
671
672
672
673
673
673
674
673
674
674
675
675
676
676
678
679
679
681
682
683
684
684
686
687
689
690
691
692
693
695
696
698
698
698
698
698
699
699
698
698
697
698
697
697
697
697
696
695
695
696
696
696
696
696
697
697
697
699
698
699
699
700
701
701
702
702
701
702
702
702
701
701
700
700
699
699
700
700
698
698
697
697
696
697
697
696
695
694
694
694
695
694
694
693
693
692
693
692
692
691
690
689
690
690
690
690
689
689
689
688
688
688
687
687
686
685
684
684
683
682
681
681
681
682
682
682
681
682
682
683
684
685
686
687
688
690
691
693
694
696
696
696
697
697
697
696
696
695
695
694
694
692
692
690
689
689
689
688
688
687
685
685
685
685
685
684
683
681
681
680
679
679
679
677
676
676
677
677
677
676
676
676
678
679
680
681
682
684
685
687
688
690
691
691
693
694
695
695
696
695
695
694
695
694
694
693
692
690
690
690
689
688
687
686
685
685
685
685
684
683
681
681
680
680
679
678
678
677
677
677
677
676
674
673
672
672
673
673
672
672
671
671
671
671
671
671
670
670
670
669
671
671
672
672
673
673
675
676
676
676
676
677
678
678
679
679
679
678
679
679
678
678
677
676
676
675
675
675
674
673
672
671
671
670
670
669
669
668
668
668
669
668
668
667
667
667
667
667
666
666
664
663
663
662
662
661
661
659
658
658
657
656
655
654
653
652
652
652
651
650
650
650
650
650
649
649
649
648
649
650
652
653
653
653
654
654
655
656
656
657
657
657
658
659
659
660
659
659
658
659
659
659
659
658
657
657
658
658
657
656
655
654
654
654
654
653
652
652
651
650
650
649
648
647
647
647
646
646
647
645
645
646
646
646
645
646
646
646
645
646
646
646
646
646
646
646
646
646
645
645
645
644
644
644
644
643
643
642
641
641
641
641
639
638
637
637
636
636
635
633
632
630
630
629
627
626
625
623
622
622
621
620
619
618
618
618
618
618
619
619
618
619
620
621
621
622
622
622
624
625
625
627
626
627
627
628
628
628
627
628
627
626
625
626
624
624
622
621
620
619
618
618
615
615
613
613
612
612
611
609
608
607
607
607
606
607
606
606
606
606
606
607
607
607
608
609
610
612
613
613
614
615
615
617
618
618
619
619
620
620
620
621
621
621
620
621
620
621
620
619
619
618
619
618
618
618
618
617
617
617
616
615
615
615
615
614
615
615
614
613
612
611
611
609
609
608
606
606
606
605
604
604
604
604
603
604
603
604
604
603
602
602
603
604
604
604
603
604
604
604
605
604
604
604
603
604
604
604
603
603
603
602
603
603
603
603
603
603
604
604
605
606
606
607
609
611
613
616
618
620
623
626
629
632
635
638
639
642
644
646
649
649
651
651
651
651
651
651
649
648
647
645
644
643
643
641
639
639
638
638
638
638
639
638
640
641
642
645
646
647
648
650
651
654
655
655
656
656
657
657
658
657
657
657
656
656
657
657
657
657
659
660
661
663
665
666
668
670
673
676
679
682
686
688
692
696
699
702
706
710
713
717
722
726
730
734
738
743
747
752
758
762
767
771
776
782
787
792
798
802
806
811
817
821
826
830
835
839
842
845
847
849
850
850
848
848
845
841
836
830
823
814
805
795
785
773
760
748
735
723
711
699
687
676
665
655
647
639
631
623
617
612
608
604
601
599
596
593
593
591
591
591
590
589
589
589
589
590
589
588
588
588
588
588
587
586
585
584
583
582
582
581
580
579
578
578
577
577
576
576
575
574
574
574
574
574
573
573
573
573
574
573
572
571
572
572
572
572
571
570
569
568
568
567
566
565
563
563
561
561
561
560
560
558
557
556
557
556
555
554
554
553
554
555
555
555
555
555
556
556
557
559
559
559
560
560
562
563
563
564
564
564
564
565
565
565
565
564
563
563
562
562
562
560
559
559
558
559
557
556
556
555
555
554
554
553
553
552
552
552
552
551
551
550
551
550
550
551
550
549
549
549
548
548
548
548
547
546
546
546
546
546
546
546
546
547
547
547
547
547
547
547
547
548
548
548
548
548
548
548
548
548
548
547
547
547
546
546
546
545
544
544
543
543
543
542
540
540
540
540
540
539
538
538
537
537
537
536
537
536
535
535
535
534
534
533
533
533
533
532
532
531
531
530
530
530
530
531
530
530
530
530
531
531
531
531
530
531
531
532
532
533
533
533
532
532
532
531
530
529
529
527
528
527
526
525
524
523
522
522
522
521
520
520
520
521
521
521
521
520
521
520
521
522
522
522
522
521
521
521
520
518
518
517
516
515
515
514
513
512
510
509
508
507
507
505
505
504
504
504
505
505
506
506
507
508
510
511
512
513
513
515
517
518
520
522
522
523
524
525
527
528
528
527
528
529
529
530
530
529
530
530
531
531
531
531
530
530
530
530
531
531
530
531
531
531
533
533
534
534
535
535
536
537
538
538
539
539
539
540
541
541
542
542
542
543
543
542
543
543
542
543
542
543
544
543
544
544
545
545
545
546
546
546
546
546
547
547
547
546
546
546
546
546
545
545
544
543
542
542
542
542
541
540
539
538
539
538
537
537
535
535
535
535
535
535
534
533
533
534
534
534
534
534
534
534
535
535
535
535
535
536
537
537
537
537
537
537
538
538
539
539
540
539
540
541
542
542
542
542
542
542
542
543
543
542
541
540
539
539
538
539
537
536
535
535
535
534
534
533
533
533
532
533
532
532
531
531
531
532
532
532
532
532
531
532
532
533
533
532
531
532
531
532
532
531
531
530
530
530
530
529
529
529
528
528
529
528
528
527
527
526
526
526
524
523
523
522
521
521
521
521
520
520
520
520
521
521
521
521
521
522
524
525
525
526
527
527
529
530
531
532
533
533
533
534
534
535
535
534
534
534
534
535
534
534
533
533
532
532
531
530
530
528
528
527
526
526
525
524
523
523
522
522
522
522
521
521
521
522
522
523
523
524
524
525
525
526
527
527
527
527
527
528
527
526
525
524
523
523
522
521
520
519
519
518
518
517
516
515
514
513
514
514
514
514
514
514
515
515
516
516
517
517
517
518
519
519
519
519
518
518
518
518
518
518
517
516
516
516
516
515
514
515
514
514
514
515
515
515
514
514
515
514
514
514
513
513
513
512
512
512
512
511
511
512
511
512
511
511
510
511
511
512
512
512
512
513
513
514
513
514
514
513
513
513
513
512
512
511
511
510
508
508
506
506
504
504
503
502
501
501
499
499
499
500
500
500
501
501
502
503
504
505
506
507
507
508
509
510
511
512
512
512
512
512
513
513
512
511
510
510
510
509
508
506
506
505
504
502
501
499
497
497
495
494
493
492
492
491
490
489
489
489
490
489
488
488
488
489
490
490
490
491
492
492
493
494
494
494
494
494
495
494
495
494
494
493
493
493
493
494
493
492
492
493
492
493
492
491
490
490
490
490
490
490
489
490
490
491
491
491
490
490
490
491
492
491
492
491
492
491
492
493
493
493
493
493
493
494
495
496
495
496
496
496
497
498
497
498
498
498
498
499
498
498
498
497
496
496
495
494
493
492
491
491
491
491
491
490
489
489
489
489
489
490
489
490
490
491
491
491
491
491
490
491
491
490
491
489
489
489
488
488
487
488
487
487
487
487
487
487
487
487
486
488
488
489
489
489
489
489
491
491
491
491
491
491
491
492
491
491
492
492
493
493
495
496
496
496
497
498
499
500
502
503
504
505
506
507
509
510
512
512
513
515
516
518
518
519
518
519
519
520
519
519
518
517
516
516
516
516
515
514
514
515
515
516
515
516
518
519
521
523
526
527
529
531
534
536
538
539
541
542
543
545
546
547
547
547
546
547
546
546
546
546
546
547
547
548
549
550
551
552
554
556
558
561
563
566
570
574
578
582
587
591
596
600
606
611
616
622
626
630
636
641
647
651
656
659
664
668
673
677
681
685
689
692
696
699
704
707
710
714
717
720
723
725
726
726
725
724
723
720
716
712
705
700
692
685
676
666
657
646
635
626
615
604
594
584
574
565
557
549
541
533
526
520
514
509
504
500
496
492
488
486
483
481
479
476
474
472
471
469
468
466
463
463
461
461
460
460
458
457
456
456
455
455
453
452
452
451
451
451
450
451
450
449
449
449
449
449
448
447
447
447
447
447
446
445
445
444
443
444
442
442
441
440
440
439
439
438
438
438
438
438
439
439
438
438
438
437
437
438
438
438
438
438
438
438
438
438
437
437
437
437
438
438
438
437
437
437
436
437
436
435
435
433
433
432
431
430
429
428
427
427
426
425
424
421
420
420
420
420
420
420
419
419
420
421
422
423
423
424
424
426
427
428
430
430
431
432
433
434
434
435
435
434
434
434
434
434
433
432
433
432
433
432
431
431
430
429
429
429
428
428
427
426
426
425
425
424
422
421
420
420
420
420
418
418
418
417
416
416
415
415
414
414
413
413
413
412
411
410
409
408
408
407
407
406
405
405
405
405
404
404
404
404
404
404
405
406
406
406
405
405
406
406
406
406
405
406
405
405
405
405
404
404
403
403
402
401
400
400
400
400
400
400
399
399
398
398
398
398
397
397
396
395
394
395
395
394
394
394
393
394
394
394
394
393
393
393
393
393
392
392
391
391
392
393
393
392
391
392
391
392
391
391
391
390
389
389
388
388
388
387
386
384
384
384
384
383
383
382
382
382
383
383
382
382
382
382
382
383
383
383
383
383
383
384
385
385
385
386
386
386
387
389
389
389
390
392
392
394
394
396
396
398
399
400
402
402
402
403
404
404
406
405
406
405
405
405
405
406
406
406
405
405
405
406
406
405
406
406
406
407
407
408
409
409
410
410
410
411
412
412
412
412
412
413
413
413
413
413
413
413
414
414
413
412
411
411
411
409
410
408
408
406
405
405
403
402
402
401
400
401
400
401
401
401
401
402
404
404
406
407
408
409
410
412
412
414
414
415
416
417
417
417
418
418
417
417
418
418
418
418
416
416
416
416
416
415
414
413
413
413
413
412
411
410
409
408
408
407
407
406
405
403
403
402
401
400
399
399
398
398
397
398
397
396
395
394
394
395
395
394
394
393
393
394
394
394
394
395
395
395
396
397
397
397
398
397
398
398
399
398
399
399
400
401
401
401
401
401
402
402
403
402
402
403
402
403
404
403
404
404
403
403
403
403
402
402
401
399
400
399
399
399
398
397
397
397
398
397
397
396
397
397
397
397
398
399
399
399
399
400
401
402
401
401
401
400
401
401
400
399
398
398
398
397
397
396
396
396
395
395
395
396
395
395
394
394
395
394
394
395
395
395
395
396
395
395
395
395
395
395
396
396
395
395
395
395
395
395
395
395
394
395
396
397
397
398
398
400
400
401
401
402
402
402
402
403
403
403
402
403
402
401
401
402
401
400
399
398
397
398
397
396
396
396
395
394
394
394
393
393
392
392
392
392
392
392
391
391
390
390
390
390
389
389
387
387
387
387
387
387
387
386
386
387
387
386
386
386
385
387
387
388
389
389
389
390
392
393
394
394
395
396
397
398
399
400
400
400
401
402
402
402
402
401
402
401
401
400
400
398
397
396
395
394
394
393
393
392
391
392
391
391
390
391
390
391
391
392
392
391
391
391
392
392
393
393
393
393
393
394
395
396
395
396
396
396
397
398
399
398
399
399
399
400
400
400
400
399
399
399
398
398
397
395
395
394
393
393
392
391
390
390
390
389
390
389
389
389
389
388
388
389
388
388
388
388
388
388
388
387
387
387
387
387
388
388
387
388
388
389
391
391
391
392
393
394
394
396
396
397
396
398
397
397
397
397
396
396
395
395
395
395
394
393
393
393
393
393
393
393
393
394
396
397
398
399
399
400
400
402
402
403
403
403
403
403
404
404
403
403
402
402
402
402
401
401
401
400
400
400
401
402
402
402
401
401
402
403
403
403
402
403
403
403
404
404
404
405
405
406
407
407
408
408
408
409
410
411
411
412
411
412
413
412
413
413
412
411
412
412
412
413
412
412
411
411
411
411
412
410
410
410
410
410
410
411
411
411
411
412
413
414
414
415
415
415
416
418
419
419
421
422
424
426
428
430
431
433
436
438
441
442
444
445
447
449
450
451
452
452
452
453
453
453
453
453
452
452
452
453
453
454
454
455
455
456
457
459
461
462
464
466
468
469
471
473
474
474
475
476
478
478
479
479
480
481
481
482
483
483
484
485
485
487
490
490
493
494
496
499
501
503
504
505
507
510
513
516
518
522
525
529
533
538
542
546
550
555
560
565
571
575
581
585
590
595
601
606
611
615
619
624
629
633
638
643
647
651
656
661
666
670
672
675
677
679
680
681
682
680
678
675
671
666
660
653
644
635
626
615
605
594
583
571
559
548
538
528
519
509
500
491
483
476
470
464
459
455
451
449
446
444
441
439
436
435
434
432
432
430
429
429
428
428
428
427
426
425
424
424
423
423
422
421
420
420
419
417
417
416
415
415
415
415
414
414
413
413
413
413
412
412
413
412
412
412
413
412
411
411
411
410
410
410
410
410
409
409
409
408
409
409
408
408
407
407
408
408
408
409
408
409
409
408
409
408
408
408
408
409
410
411
411
411
411
411
412
412
413
413
413
413
413
414
413
412
412
411
411
411
411
410
410
410
409
408
408
408
407
406
405
404
404
404
404
405
405
404
404
404
405
405
404
404
403
402
402
402
401
400
399
400
400
400
399
399
399
398
398
398
399
399
398
399
398
400
401
402
402
404
404
405
405
407
407
407
407
407
407
407
408
407
406
406
405
404
403
404
403
401
400
399
398
398
397
397
396
396
396
396
397
396
396
395
395
394
394
393
394
392
392
392
391
391
391
390
388
388
386
386
386
386
385
385
384
385
385
386
386
386
386
387
388
388
390
389
390
390
391
391
392
393
392
392
392
392
392
392
391
390
389
389
388
388
388
387
386
385
384
384
384
383
382
381
380
379
378
378
376
376
375
373
372
372
371
370
368
367
367
366
366
365
364
364
363
363
364
365
364
364
364
364
365
365
367
367
367
367
368
368
369
370
369
370
370
369
369
370
369
368
368
368
368
367
367
367
366
365
365
366
367
367
367
368
369
370
370
372
373
374
375
377
378
379
381
382
383
384
385
386
388
389
389
390
389
390
390
391
391
390
390
389
388
388
389
388
388
387
387
388
389
388
389
388
389
389
391
392
393
393
394
395
396
396
397
397
398
399
399
400
400
400
400
399
400
400
400
401
401
401
400
400
400
401
400
400
400
399
399
400
399
399
399
399
398
398
398
398
397
397
396
396
396
395
396
395
394
395
395
394
395
395
395
394
394
394
394
393
393
393
393
392
392
393
392
392
391
391
391
391
389
389
387
386
385
384
384
383
382
382
381
381
381
382
382
381
382
382
383
384
385
385
386
386
387
387
388
389
390
390
389
389
389
389
389
388
387
387
387
387
386
387
386
385
384
384
384
384
383
382
381
380
380
380
381
380
381
380
381
381
382
381
382
383
383
384
385
386
386
387
387
388
389
388
388
388
387
386
387
386
386
386
385
385
384
384
384
384
385
384
384
384
384
385
385
385
385
387
387
389
389
390
390
390
389
391
390
391
391
391
390
390
391
391
390
389
388
386
385
384
383
383
381
381
380
379
378
379
378
377
376
377
378
378
378
379
379
379
379
380
381
381
381
380
381
380
380
380
379
377
377
375
374
374
373
372
371
370
370
370
370
370
369
368
368
367
368
369
368
369
369
369
368
368
369
368
368
367
367
368
368
368
367
366
365
365
365
365
365
364
364
364
365
365
365
366
366
366
367
368
369
369
370
369
369
369
370
369
369
369
369
369
369
369
369
368
368
368
368
369
369
369
369
369
369
370
371
371
371
371
372
372
371
372
371
371
371
370
370
369
369
369
368
367
367
367
367
368
367
367
368
368
368
368
368
368
368
367
368
369
368
368
369
368
366
366
365
365
362
361
359
358
356
356
355
354
353
353
354
354
356
356
356
358
359
361
363
366
367
369
371
372
374
375
376
376
377
377
378
378
377
377
376
375
374
373
371
370
370
368
367
365
364
364
363
362
361
360
359
359
358
357
357
356
355
356
356
356
357
357
358
358
359
360
360
362
362
363
364
366
367
368
368
369
368
369
370
370
369
368
366
365
364
361
360
358
357
356
355
354
354
353
352
350
350
349
349
349
350
351
352
353
355
356
358
359
359
360
362
364
364
365
366
367
367
368
368
368
369
367
367
366
366
366
366
364
363
362
361
360
360
359
357
357
356
355
355
354
354
354
355
354
355
356
356
357
357
356
357
358
358
358
358
357
357
357
357
357
358
356
356
355
355
356
356
357
357
357
359
360
360
362
363
363
364
365
367
367
368
369
370
370
371
372
372
372
372
371
372
373
373
375
375
375
376
377
379
379
380
381
382
383
386
387
388
389
391
392
394
396
396
398
399
399
399
399
400
399
399
398
398
396
396
396
395
394
393
392
392
393
393
393
393
393
394
395
396
397
398
400
401
403
405
407
409
411
411
412
414
415
416
416
416
417
418
418
419
420
420
421
422
424
425
426
428
429
431
432
434
436
439
442
444
448
451
455
459
464
468
472
476
481
486
490
495
500
505
508
513
518
522
527
531
535
538
543
547
550
554
557
560
565
569
574
578
582
587
592
597
602
606
610
612
615
617
618
618
616
614
609
605
598
591
583
573
563
551
539
527
515
504
491
479
466
455
444
434
425
416
407
401
394
389
385
381
377
374
371
369
366
365
363
361
359
358
357
355
353
352
350
348
347
344
343
342
340
337
336
335
333
333
332
331
330
330
331
330
331
331
332
333
333
333
334
335
335
335
336
336
337
337
337
336
335
334
334
332
331
330
329
327
326
325
325
325
324
323
321
322
321
321
321
320
321
320
321
322
322
322
324
325
326
326
328
328
329
330
330
331
331
331
331
330
330
330
329
329
328
327
325
322
321
320
320
318
317
316
316
317
317
318
318
318
318
317
317
319
319
319
319
319
320
320
321
321
321
321
320
321
322
321
321
320
319
320
320
321
321
322
321
321
321
321
321
321
321
320
320
320
321
320
321
320
319
319
318
318
317
318
316
314
313
312
312
312
311
309
309
309
309
310
309
309
309
309
310
311
311
313
314
315
315
317
319
320
320
320
321
321
321
322
321
320
319
318
317
316
315
314
313
311
310
310
309
309
308
308
307
307
308
308
308
308
308
308
309
309
308
308
308
307
306
306
307
305
304
303
303
302
302
301
301
300
299
298
298
298
298
297
297
296
296
296
295
296
295
295
295
295
295
296
295
294
294
294
295
295
296
296
296
295
295
295
295
295
295
294
294
293
293
293
293
292
291
290
291
291
291
291
290
290
290
290
290
290
290
290
291
292
293
295
297
297
298
299
300
301
301
303
303
303
304
305
306
306
306
306
304
305
304
304
304
302
302
301
301
301
300
300
299
299
300
302
302
303
303
304
305
306
308
309
311
312
314
314
317
318
320
320
321
322
324
325
327
327
328
328
329
329
329
331
331
331
331
331
331
332
333
333
333
333
333
334
335
336
336
336
337
338
338
340
341
340
341
341
341
341
342
341
341
340
340
340
340
339
339
337
337
336
337
336
336
336
335
335
335
336
335
336
335
335
335
336
337
337
336
336
337
337
337
338
338
338
337
337
338
337
338
337
336
336
336
335
336
336
335
335
335
336
337
337
338
338
338
339
339
341
341
342
341
342
342
343
344
344
343
343
344
344
344
344
344
342
342
341
342
341
342
341
340
340
339
340
340
340
339
338
338
338
338
338
338
337
336
336
335
335
335
334
332
332
331
332
332
332
332
332
332
332
333
333
334
333
333
333
333
334
334
334
334
334
333
334
335
334
335
334
334
335
336
336
337
337
337
338
338
339
340
340
341
340
341
342
342
342
341
341
340
340
340
340
339
338
338
337
337
336
336
335
335
334
334
333
334
334
333
333
332
332
333
333
333
333
333
334
334
335
335
335
336
336
337
337
339
339
340
339
340
341
341
342
341
341
340
340
341
340
341
340
339
338
338
338
338
337
337
336
335
335
336
336
336
335
334
334
334
334
334
334
333
333
333
333
333
333
332
332
331
331
331
331
330
330
329
329
329
329
329
329
328
328
328
327
328
328
328
328
328
329
329
329
329
328
328
328
329
330
329
329
328
328
328
328
328
328
327
327
327
327
328
328
328
327
327
326
326
326
326
325
324
323
322
322
322
321
320
319
319
319
319
319
319
319
319
318
318
319
320
320
320
321
321
323
324
325
325
324
325
326
326
327
327
326
326
325
325
325
324
325
324
323
323
323
324
323
323
323
322
323
324
324
324
324
323
324
325
326
326
325
325
324
324
324
324
323
322
321
320
320
320
319
318
317
317
316
316
315
315
314
314
314
313
315
314
315
315
315
315
316
317
317
318
317
318
318
319
320
321
321
321
321
323
323
324
325
326
326
326
328
328
330
330
330
330
331
332
332
333
333
332
333
333
333
333
333
332
332
331
332
332
333
331
330
330
330
330
330
330
330
329
328
328
329
329
329
328
327
328
327
328
328
328
328
327
327
328
328
329
329
328
327
328
329
329
329
329
329
329
329
329
330
329
328
327
327
326
326
326
325
324
324
323
323
323
323
322
321
321
321
322
322
322
321
321
322
323
323
323
323
323
322
322
322
323
322
322
320
320
320
320
321
319
319
319
319
319
319
320
319
320
320
321
323
324
325
327
328
329
331
333
335
336
339
340
342
344
347
349
350
351
353
354
356
358
360
360
362
363
365
365
365
365
364
364
364
363
362
362
360
359
358
358
358
357
356
356
356
356
357
358
359
361
362
363
365
368
370
372
374
376
378
380
382
384
385
387
388
390
391
393
395
395
396
396
397
399
400
401
402
403
404
405
407
409
409
410
412
414
416
419
421
424
427
429
433
436
441
444
447
452
455
461
466
471
475
480
485
490
496
501
506
511
516
521
525
530
535
540
545
549
554
558
564
569
573
577
581
583
586
587
589
589
587
585
582
578
573
567
559
550
540
529
518
507
495
483
470
458
445
433
421
411
400
389
381
372
365
359
353
348
343
339
336
333
330
327
326
325
324
323
323
322
321
321
320
319
319
319
318
318
316
316
316
316
316
315
314
313
313
313
313
312
310
309
307
306
306
305
303
302
301
300
300
300
298
297
295
295
294
294
295
294
294
292
293
294
294
294
293
292
292
292
293
292
292
292
290
291
290
291
291
290
290
290
290
289
290
290
289
288
289
289
288
289
289
288
288
288
287
288
288
288
288
287
287
288
287
288
287
286
287
287
287
286
286
285
285
285
286
285
285
285
284
282
282
283
283
282
281
281
280
280
280
280
279
279
278
278
279
280
280
280
280
279
279
279
280
279
279
279
278
278
278
278
277
277
275
275
276
275
275
274
274
272
272
272
271
271
272
270
271
271
270
271
271
270
270
270
271
271
271
270
270
269
269
269
270
269
269
269
269
269
270
270
270
270
270
269
270
271
271
270
270
269
270
270
270
270
270
269
268
268
268
268
268
267
267
268
268
268
268
268
268
267
267
267
267
267
267
266
266
265
265
266
264
263
263
263
262
263
262
262
262
260
261
260
261
260
259
259
259
259
258
259
258
257
257
257
257
256
257
256
255
254
254
253
253
252
251
250
250
249
248
249
248
248
246
246
246
246
246
245
245
243
243
244
243
243
242
242
242
242
243
242
242
242
242
243
243
244
244
244
244
243
245
245
246
246
247
246
246
247
247
249
249
248
249
248
250
251
251
251
251
252
252
253
255
255
255
256
256
257
259
259
260
261
261
262
263
264
265
265
265
265
266
267
267
268
268
267
267
267
268
269
269
269
269
270
271
272
272
273
273
273
273
274
275
274
275
275
275
275
276
276
276
276
276
275
276
277
276
276
276
275
276
276
276
276
276
276
275
275
274
274
274
274
272
272
272
271
270
270
268
266
266
265
265
265
264
263
262
262
262
262
262
261
261
261
262
262
262
262
262
263
263
264
264
265
265
266
265
267
267
268
268
268
269
269
270
270
271
271
270
270
270
270
269
269
267
267
267
266
266
266
266
265
264
264
264
263
264
263
263
262
262
263
263
263
264
263
263
264
264
265
265
265
264
265
266
266
267
268
267
267
267
268
268
269
269
268
268
268
268
268
268
267
268
267
268
268
268
268
267
268
267
268
269
270
270
270
270
271
271
272
272
271
272
272
273
273
274
273
273
272
273
272
273
272
272
271
270
270
270
271
271
270
271
271
271
271
272
272
272
272
272
272
273
273
272
272
271
271
271
271
270
270
269
269
269
269
268
268
267
266
266
266
265
265
264
264
264
263
264
263
263
262
262
262
262
261
261
261
260
259
259
258
259
258
257
257
257
257
258
257
257
257
256
256
256
256
256
256
255
255
255
255
255
255
255
255
254
254
255
255
255
254
254
255
255
255
256
257
256
256
257
256
256
257
257
256
256
256
257
258
258
257
257
257
257
258
257
257
256
255
255
255
254
253
253
252
251
251
250
250
250
249
248
248
247
247
248
247
247
247
247
247
248
247
247
246
246
246
246
245
245
244
244
244
245
245
246
246
246
247
248
247
249
250
250
251
251
252
253
253
255
254
254
254
255
254
254
255
253
253
252
253
252
250
249
248
248
247
246
247
246
245
245
244
244
244
243
243
243
241
242
242
241
241
241
240
240
241
241
240
239
239
237
238
237
238
237
236
235
234
234
233
233
232
231
229
228
228
227
227
225
225
225
225
225
225
226
225
225
225
225
226
227
227
226
226
227
227
228
229
228
228
228
228
229
230
230
230
229
229
229
229
230
230
229
229
229
229
229
230
230
229
229
229
229
230
230
229
229
228
229
230
230
230
229
229
229
229
229
229
229
228
229
229
229
230
229
229
229
228
228
228
228
228
228
228
228
229
229
229
229
228
229
230
230
231
232
231
232
231
231
232
232
233
233
232
232
232
233
233
234
233
233
233
234
234
234
234
233
232
232
233
233
232
232
231
230
229
230
228
228
227
227
226
227
227
228
227
228
228
229
230
232
233
234
236
237
240
243
245
247
250
252
254
257
259
260
262
263
264
265
267
269
268
269
269
268
269
269
269
268
267
266
267
267
266
266
266
265
265
265
265
266
267
266
267
268
270
271
273
274
275
276
278
280
282
283
284
285
286
288
289
290
291
292
291
292
293
293
294
294
293
293
294
296
298
299
299
301
302
304
307
310
313
315
317
320
324
327
332
335
339
342
346
351
356
360
364
368
371
376
381
386
390
395
399
404
409
415
419
425
429
434
439
445
450
455
460
465
470
474
479
483
487
489
491
492
493
493
493
490
487
482
476
470
463
453
444
433
421
410
398
386
373
360
347
335
325
314
304
294
285
277
270
264
259
254
250
246
242
240
238
237
235
234
232
232
232
232
232
231
230
229
229
229
228
229
228
227
226
226
225
225
225
224
223
222
222
221
222
221
221
220
221
220
221
221
221
220
220
220
221
222
222
221
219
219
219
218
217
218
216
215
215
214
214
213
211
211
209
208
208
208
207
206
205
205
204
204
204
204
204
203
204
204
204
205
205
204
204
205
205
205
205
205
204
205
205
206
206
207
207
206
207
207
208
208
208
206
207
207
207
207
206
205
205
205
205
204
205
204
203
203
203
204
204
204
204
205
204
205
206
206
206
206
205
206
207
208
208
208
207
206
206
206
207
207
207
206
206
206
206
206
207
207
206
206
207
208
208
208
208
208
208
209
210
210
210
210
209
209
209
209
209
208
207
207
207
207
206
206
205
205
204
205
204
203
203
202
202
202
203
203
203
202
201
201
200
200
200
199
199
198
199
198
199
198
198
196
196
195
196
195
195
195
194
194
194
194
194
193
193
193
193
193
193
193
193
191
191
191
191
191
191
190
188
189
188
188
187
187
186
185
184
184
184
184
183
182
182
181
182
182
182
181
180
180
180
180
180
180
180
179
180
180
179
180
180
178
178
178
179
178
178
178
176
177
177
176
177
176
176
176
176
176
176
175
174
173
173
173
172
172
172
170
169
169
168
168
168
167
166
165
164
165
165
166
165
165
165
166
167
168
168
168
169
170
170
172
173
174
174
175
176
177
178
178
178
178
179
180
181
182
183
183
183
183
184
184
186
186
185
186
187
187
188
188
189
189
190
190
191
191
191
191
191
191
191
191
192
192
192
192
193
193
194
195
195
195
195
196
197
197
198
197
197
197
197
198
198
198
198
196
197
197
198
196
196
195
194
194
194
193
192
191
190
189
188
188
188
188
187
186
186
185
184
184
183
183
182
183
183
183
183
183
182
182
181
182
182
181
182
181
181
182
181
181
180
180
180
180
180
180
181
180
180
180
181
181
183
183
183
185
185
187
187
187
187
187
186
187
187
188
187
187
187
186
186
187
187
186
186
185
185
186
187
187
186
186
186
187
188
188
189
188
189
188
189
189
190
189
189
189
189
189
189
189
189
188
188
187
188
188
187
187
186
186
185
185
185
184
183
184
183
184
184
185
184
183
182
183
183
183
183
182
182
181
182
182
182
182
181
181
182
183
182
183
182
182
182
182
183
184
184
184
183
184
185
185
186
186
187
187
188
189
190
191
192
192
192
193
194
194
195
195
196
196
196
198
198
197
197
196
196
197
196
196
195
193
193
193
192
191
191
190
189
189
189
189
189
189
188
189
190
190
191
192
191
192
191
192
193
193
194
193
192
192
193
192
193
192
191
191
191
191
191
191
190
190
189
189
188
189
188
186
186
185
184
184
183
182
181
179
179
179
179
178
177
176
177
177
179
179
179
180
181
183
184
186
187
189
189
191
192
194
195
196
196
196
195
197
197
197
197
197
197
196
196
196
196
194
194
193
192
193
192
192
192
191
190
190
190
189
189
189
187
188
188
189
189
188
188
188
189
189
189
189
189
188
188
187
189
189
188
187
186
185
185
185
185
184
184
184
184
184
184
184
184
183
182
183
184
184
183
183
182
183
183
183
183
183
182
182
183
183
183
183
183
182
182
182
183
184
184
184
184
185
186
185
186
186
186
186
186
187
187
186
185
184
184
184
184
184
184
183
182
183
182
182
182
181
180
180
180
180
179
179
178
177
176
176
175
175
174
173
173
171
172
172
172
171
171
171
171
172
173
172
173
173
173
174
174
175
176
175
175
175
176
177
177
177
177
177
178
179
180
181
181
181
181
182
183
184
184
184
184
184
185
187
187
187
187
187
188
188
189
190
189
189
188
189
189
188
188
187
186
185
185
183
183
182
181
179
179
178
177
177
176
174
174
173
174
174
174
174
174
174
176
177
178
179
179
180
181
183
185
185
186
186
188
189
190
192
192
192
193
193
193
194
194
195
195
196
197
198
199
201
201
202
202
205
206
208
210
211
212
213
216
218
219
221
221
223
223
225
225
225
225
225
225
224
224
223
221
220
219
218
217
216
215
213
211
211
211
212
213
214
215
215
217
220
222
224
226
228
231
233
237
239
243
244
247
249
251
254
255
257
258
258
259
261
263
264
265
266
267
268
269
271
272
273
274
276
278
281
282
284
287
289
291
295
298
302
306
309
313
317
322
327
333
337
343
348
355
362
368
374
379
385
390
396
402
407
412
417
421
426
432
437
440
444
446
448
451
451
451
450
448
445
440
436
430
423
415
406
395
386
375
363
350
338
325
314
302
291
281
270
260
251
242
235
229
223
217
212
207
205
201
199
197
194
192
189
188
187
186
185
184
182
181
181
180
179
178
177
177
177
178
179
179
180
180
181
182
183
184
185
186
186
185
186
186
186
185
184
183
182
182
180
179
178
177
176
175
175
174
173
172
172
171
171
171
171
170
170
170
169
170
169
169
168
168
167
167
167
167
167
166
166
165
165
165
165
164
164
163
164
163
164
164
163
162
161
162
162
161
161
160
159
160
160
161
161
161
161
160
160
160
161
159
159
158
159
159
160
159
160
159
158
157
157
156
155
154
152
152
152
151
151
151
151
150
150
150
151
151
152
153
153
154
155
156
157
157
157
158
159
160
161
161
162
161
161
162
162
162
161
160
160
159
159
158
158
158
156
156
156
156
157
157
156
156
156
156
156
156
156
154
154
153
152
153
151
151
150
149
148
148
148
148
147
147
148
148
149
148
149
148
148
147
148
148
148
148
147
147
146
146
146
145
144
143
143
143
144
144
143
143
143
144
145
146
146
147
146
147
148
148
148
148
148
148
147
147
147
147
145
145
144
143
144
143
143
143
142
143
142
143
143
143
143
142
142
143
143
143
142
142
141
141
139
139
138
137
136
135
133
133
131
130
129
127
126
126
125
125
124
124
123
123
123
124
124
124
124
125
125
127
127
128
128
128
129
131
132
133
134
135
135
135
136
135
136
136
136
136
135
136
136
136
135
136
136
136
136
137
137
137
136
136
136
137
137
137
136
136
136
136
138
138
138
139
139
139
140
140
141
142
142
142
144
145
146
148
148
149
150
151
151
153
153
153
154
154
154
155
154
153
153
153
153
153
153
153
152
152
152
153
152
153
153
153
153
153
154
154
155
155
156
156
157
158
158
158
157
158
158
159
159
159
159
160
159
160
161
162
163
163
164
163
164
165
164
164
163
163
162
162
162
161
161
160
160
160
161
160
159
158
158
157
157
157
157
156
156
156
155
155
155
155
155
155
155
156
156
157
157
158
158
159
160
163
163
164
164
165
166
167
168
169
169
168
169
169
169
169
169
168
167
167
167
168
167
167
166
166
166
167
168
168
167
167
168
169
169
170
170
169
168
168
168
169
169
168
168
168
168
168
168
168
168
169
169
169
170
171
171
171
170
171
172
172
173
172
173
173
173
174
174
174
173
173
172
173
173
174
174
173
172
172
173
173
173
172
171
172
171
172
172
172
171
171
170
171
172
171
170
170
168
169
168
169
168
167
167
167
166
166
166
166
165
165
164
165
166
166
166
166
167
167
168
168
169
170
170
171
172
172
174
174
174
174
174
175
175
176
175
175
174
174
174
174
173
172
171
170
170
169
169
169
167
166
165
165
165
165
164
163
162
161
161
160
161
160
159
159
159
159
159
158
158
158
159
159
160
161
162
162
162
164
164
166
167
167
167
167
168
168
170
170
170
169
169
170
170
170
170
169
168
168
168
168
168
167
167
166
166
166
167
167
166
166
166
167
167
167
167
166
165
165
166
167
168
168
167
167
168
168
168
169
169
169
169
171
171
172
172
171
171
171
171
171
170
169
169
169
168
168
168
168
167
166
166
166
167
167
167
166
166
166
166
167
167
167
167
167
167
167
167
167
166
165
165
164
165
165
164
164
162
163
162
162
162
162
161
161
161
161
161
161
160
160
160
160
161
161
161
160
161
160
161
161
161
161
161
161
162
162
162
162
162
162
162
163
164
163
163
163
163
163
163
163
164
163
162
162
162
163
163
163
162
162
161
162
162
161
160
159
158
158
159
158
158
159
158
159
159
160
161
161
161
162
162
162
163
164
165
165
165
167
167
168
169
169
169
169
169
170
170
171
171
171
171
172
172
172
172
172
171
172
172
172
173
172
171
171
171
172
173
173
173
172
173
173
174
174
174
174
174
173
174
174
174
173
172
172
172
171
171
170
169
168
168
168
168
168
167
167
167
166
166
167
167
167
168
167
168
169
170
171
171
172
173
174
176
177
178
180
181
183
185
188
189
191
192
195
196
199
201
202
203
204
204
205
206
207
207
205
205
204
204
204
203
202
200
199
198
197
198
198
197
197
197
198
200
201
203
204
205
207
208
210
213
214
215
216
218
220
222
223
224
225
225
227
228
228
229
229
230
231
231
233
234
236
237
239
240
243
244
246
248
250
252
254
258
261
263
265
268
272
275
279
283
287
291
295
299
305
310
315
320
325
331
337
342
349
354
359
365
370
376
381
387
392
396
401
406
412
416
420
422
426
428
430
432
431
430
428
425
422
417
411
404
396
387
378
367
357
345
333
321
309
298
286
276
265
255
245
237
229
221
215
209
203
199
195
192
188
187
184
182
179
177
177
175
174
173
171
170
169
168
168
167
166
164
163
162
161
160
159
159
157
157
156
155
155
153
153
151
150
150
149
149
148
147
147
146
146
146
145
145
144
143
144
144
144
144
143
143
143
143
144
143
143
142
141
141
141
140
139
138
138
138
138
138
138
139
138
138
138
139
139
139
140
141
141
142
142
143
144
144
144
144
145
146
146
145
145
145
145
145
145
145
144
143
143
143
143
142
142
141
141
140
141
141
141
141
140
139
140
140
140
140
140
139
139
139
139
138
138
138
137
137
138
138
138
138
137
136
136
136
136
136
136
135
135
135
135
135
135
135
135
135
135
135
135
135
135
136
136
136
136
136
136
136
135
135
135
136
135
134
135
134
134
135
135
134
133
133
133
134
133
133
134
133
133
134
134
135
134
135
135
135
135
135
136
135
136
135
135
134
134
134
133
133
133
133
134
133
133
132
131
130
131
130
130
130
130
128
129
128
129
129
129
128
128
128
128
127
127
127
127
127
126
126
126
126
125
125
125
124
125
124
124
123
123
122
123
122
121
121
120
119
119
119
119
118
117
117
117
117
117
116
117
116
116
116
116
117
117
117
118
118
119
119
120
119
120
119
119
120
119
119
119
119
118
117
118
118
117
117
116
116
116
116
116
116
116
116
115
116
116
117
116
117
117
118
118
119
119
120
120
120
121
122
123
123
124
124
124
125
126
127
128
127
128
130
131
132
132
133
134
136
137
139
140
141
142
143
144
145
147
149
149
150
151
152
153
153
155
155
154
155
156
156
155
155
155
155
154
155
154
153
153
152
151
151
151
152
151
150
149
149
150
150
150
151
151
151
152
153
154
154
153
154
154
154
155
155
155
155
154
155
155
156
156
156
155
154
154
154
154
154
154
153
153
153
154
153
154
153
153
153
153
154
154
153
153
153
153
153
153
153
152
152
152
152
152
151
151
151
151
151
151
151
151
151
150
150
149
149
148
148
148
147
147
147
147
148
147
146
146
146
145
146
146
146
146
146
147
148
147
149
148
149
149
150
150
151
151
150
151
152
152
153
154
154
153
153
154
153
154
154
153
153
152
152
152
153
152
151
151
150
151
150
150
149
148
147
146
145
145
145
144
143
142
142
142
143
142
141
142
143
144
145
146
146
147
147
150
150
152
153
154
155
155
156
157
158
158
157
157
157
158
158
158
157
156
155
155
154
154
153
153
151
150
150
150
149
150
149
148
149
149
148
149
148
148
147
148
147
148
148
147
146
146
146
145
145
145
144
144
143
143
143
144
143
143
142
143
143
142
143
143
143
143
144
145
145
144
145
144
144
145
146
146
145
145
145
145
146
145
145
144
144
144
144
144
144
144
143
142
142
141
141
141
141
140
140
140
140
140
141
140
140
140
140
141
141
141
142
142
143
144
144
144
144
144
144
144
144
144
144
143
142
142
142
141
141
140
140
139
139
139
139
139
138
137
138
137
137
138
137
136
136
136
136
137
137
136
136
135
136
135
135
136
135
134
133
133
133
132
132
132
131
132
132
132
133
133
133
133
135
136
137
138
139
140
140
142
144
144
145
145
145
145
146
145
145
145
144
143
142
141
140
139
138
135
134
133
132
131
130
128
127
126
125
124
124
123
122
120
120
120
119
119
118
118
118
118
119
119
119
118
119
118
118
119
120
119
119
120
120
121
122
122
121
121
121
121
122
122
122
122
122
122
122
123
124
124
124
124
125
125
126
125
125
125
125
125
125
126
126
125
124
125
125
125
125
125
124
125
125
124
125
125
124
123
124
123
124
124
124
124
123
123
122
122
122
121
121
120
121
120
121
121
121
119
119
119
118
118
118
116
116
116
115
115
113
113
112
112
112
112
113
113
113
113
114
115
117
118
120
121
123
125
128
130
132
133
134
135
136
138
140
140
140
140
139
140
140
140
139
138
138
137
137
136
136
136
135
134
134
135
135
135
136
136
136
137
138
140
140
141
142
144
145
148
149
150
151
152
154
156
157
158
159
160
159
160
160
160
159
159
157
156
156
155
154
153
152
151
150
149
149
149
149
149
149
150
151
153
155
155
157
158
160
162
164
165
166
167
168
170
172
173
175
175
176
177
178
179
179
180
182
183
185
187
189
190
193
194
197
200
203
205
209
212
215
219
223
227
231
234
239
242
247
251
255
260
264
269
274
278
284
287
291
295
300
305
310
314
319
323
327
332
337
342
347
352
356
361
366
371
376
380
382
385
386
386
386
385
382
378
373
366
359
351
342
331
319
307
295
283
270
257
244
231
219
207
197
186
177
168
159
152
145
141
135
131
127
124
122
120
118
117
115
113
113
113
113
113
113
113
112
112
112
112
113
112
113
112
112
112
113
112
111
111
109
109
109
108
108
107
106
105
104
103
103
103
101
100
101
100
101
100
99
99
99
99
98
98
98
98
98
98
98
98
98
97
96
96
95
96
97
96
95
95
95
95
96
95
95
95
94
94
93
93
93
93
92
91
91
91
90
91
91
90
90
90
89
90
89
89
88
89
89
89
90
89
88
88
88
88
89
89
88
87
86
87
87
86
86
86
86
86
85
86
86
86
85
86
87
87
88
88
87
88
87
88
89
89
89
88
88
88
88
89
89
88
88
87
87
87
87
86
85
85
84
83
84
84
83
82
82
81
82
81
81
81
80
80
80
81
81
81
82
81
81
81
81
82
82
81
80
81
81
82
82
83
83
83
84
85
84
84
85
84
84
85
85
85
86
85
85
85
85
84
84
83
81
80
80
79
80
78
78
75
75
74
73
73
72
71
70
70
69
70
69
69
69
69
69
70
71
71
70
71
70
71
72
72
72
72
72
72
73
72
72
71
71
71
71
71
71
71
70
69
69
69
69
69
68
68
67
67
66
65
65
64
63
62
62
61
60
60
59
58
58
57
57
56
56
55
55
55
55
55
55
56
55
56
57
57
58
58
58
57
58
58
59
60
60
60
60
60
61
62
62
63
62
63
64
64
66
66
66
67
67
68
70
70
70
71
71
71
72
72
73
74
73
73
74
75
75
75
74
75
74
75
76
75
76
76
76
76
77
78
78
78
79
79
79
80
81
81
81
81
82
82
83
84
84
84
85
85
86
86
87
87
88
89
90
91
92
93
93
93
93
94
94
95
94
94
94
94
94
93
93
93
93
92
92
93
92
92
91
90
89
89
89
89
88
87
87
87
87
88
88
87
87
87
87
88
89
90
89
89
89
88
89
89
89
89
88
88
89
88
88
88
87
87
87
87
88
88
87
86
86
87
87
88
89
88
89
89
89
90
90
90
89
89
90
91
91
91
91
91
91
92
92
92
92
91
91
91
92
91
92
92
92
92
93
93
93
92
91
91
91
91
92
92
92
91
91
91
91
91
91
90
90
90
90
91
90
91
90
90
89
89
89
89
88
87
86
85
85
84
83
82
81
80
80
81
80
80
80
80
80
81
82
83
84
85
85
88
89
91
92
93
94
96
98
99
100
101
101
102
103
103
104
105
105
104
104
104
104
103
103
102
102
100
100
100
99
99
97
96
95
95
94
93
92
90
90
89
89
88
87
87
87
86
86
87
87
87
87
86
86
87
87
87
87
86
87
87
87
88
87
86
86
86
86
86
87
87
86
86
86
87
87
88
89
89
89
89
89
90
91
91
91
91
91
92
91
90
90
90
89
88
88
88
87
86
86
85
85
84
84
84
84
84
83
84
83
83
83
82
82
83
82
82
81
80
80
79
79
80
79
79
78
78
77
78
77
77
77
76
76
77
77
78
78
78
77
77
77
77
77
77
76
75
76
76
75
75
74
74
73
73
74
74
73
73
73
73
73
73
73
73
72
72
73
74
75
75
76
75
75
76
78
77
77
77
77
75
75
75
74
73
71
70
69
69
67
67
65
63
62
61
60
59
58
57
57
56
56
56
56
56
56
57
57
58
58
58
57
58
57
57
58
58
58
57
58
58
57
58
57
57
56
56
56
57
57
57
57
57
58
59
59
59
58
58
59
58
58
58
58
57
57
57
57
57
56
56
55
53
52
52
53
52
52
51
51
51
51
52
51
52
51
51
52
52
52
53
52
52
51
51
52
51
50
49
48
47
47
47
46
45
45
44
43
42
42
42
41
40
40
41
41
41
41
42
41
42
42
42
42
42
42
43
44
44
45
45
46
45
45
45
45
45
44
43
43
42
42
41
41
39
38
37
36
36
35
33
31
31
30
29
28
28
27
26
25
25
25
26
26
25
26
27
27
28
28
29
29
28
29
30
31
32
32
33
33
34
35
35
37
37
37
39
40
41
42
43
44
46
47
48
50
51
51
52
52
53
53
53
53
53
52
51
50
50
49
48
47
46
46
45
44
45
44
43
43
43
44
45
47
47
48
50
51
52
53
55
57
58
59
61
63
64
64
66
67
68
70
72
73
74
75
77
79
81
83
84
86
88
89
91
93
95
97
99
102
105
108
112
115
118
122
125
130
135
139
143
147
152
157
162
167
172
176
180
185
190
194
200
205
209
213
218
223
229
233
237
243
247
252
258
263
267
271
273
275
277
277
277
274
271
266
260
254
246
238
227
216
203
190
177
164
149
135
122
108
96
85
73
63
53
44
38
31
25
21
17
12
8
6
3
1
-1
-4
-6
-7
-9
-10
-12
-14
-16
-17
-19
-21
-21
-23
-24
-25
-25
-26
-25
-25
-26
-26
-25
-25
-25
-24
-23
-22
-22
-22
-23
-23
-23
-23
-25
-26
-26
-27
-28
-29
-31
-32
-34
-35
-37
-38
-37
-38
-39
-39
-39
-38
-37
-38
-37
-37
-37
-36
-36
-36
-35
-34
-34
-35
-34
-34
-33
-32
-32
-32
-31
-31
-29
-29
-29
-27
-27
-26
-25
-23
-23
-22
-22
-22
-21
-20
-20
-20
-20
-20
-20
-20
-21
-20
-21
-22
-23
-23
-23
-23
-24
-24
-25
-24
-24
-24
-23
-22
-23
-23
-22
-22
-21
-20
-20
-21
-20
-20
-20
-20
-19
-20
-20
-21
-21
-20
-21
-21
-21
-22
-22
-23
-22
-22
-23
-23
-23
-23
-23
-24
-24
-24
