# Simple Text Format
# Sampling Rate (Hz):= 1200.00
# Resolution:= 12
# Labels:= ECG	III
# Age:=	76
# Gender:=	Masculino
-910
-910
-910
-910
-909
-909
-909
-910
-910
-910
-909
-909
-909
-910
-911
-911
-911
-910
-909
-910
-911
-911
-911
-911
-910
-910
-911
-912
-912
-912
-911
-911
-911
-912
-913
-914
-913
-913
-913
-913
-914
-915
-915
-915
-914
-914
-915
-915
-916
-915
-915
-914
-915
-916
-916
-917
-916
-915
-915
-915
-916
-917
-918
-919
-919
-920
-921
-921
-921
-921
-921
-920
-921
-922
-923
-924
-923
-922
-922
-922
-922
-922
-921
-920
-919
-919
-919
-919
-919
-919
-918
-918
-918
-919
-920
-921
-921
-920
-920
-921
-922
-923
-923
-923
-922
-922
-922
-923
-923
-922
-921
-920
-920
-920
-920
-920
-919
-918
-917
-917
-918
-918
-918
-917
-916
-916
-916
-916
-916
-916
-915
-915
-915
-916
-916
-917
-916
-915
-914
-914
-914
-915
-915
-914
-913
-913
-913
-913
-913
-912
-911
-911
-910
-911
-911
-912
-911
-910
-909
-909
-910
-910
-910
-910
-909
-909
-909
-909
-910
-909
-908
-907
-907
-908
-909
-909
-908
-907
-907
-907
-907
-908
-908
-907
-906
-906
-906
-906
-907
-906
-905
-905
-905
-905
-906
-906
-905
-904
-904
-904
-904
-904
-904
-903
-903
-902
-903
-903
-903
-903
-902
-901
-901
-902
-902
-903
-902
-902
-901
-901
-902
-903
-902
-902
-901
-901
-901
-902
-902
-902
-901
-900
-900
-901
-901
-901
-901
-900
-899
-900
-900
-901
-901
-900
-899
-899
-900
-900
-900
-900
-899
-899
-900
-901
-903
-904
-904
-904
-903
-903
-904
-904
-904
-904
-904
-904
-904
-904
-904
-903
-901
-900
-899
-899
-899
-899
-898
-897
-896
-895
-896
-896
-896
-895
-894
-894
-894
-895
-895
-895
-894
-894
-894
-895
-896
-896
-895
-895
-894
-895
-895
-896
-896
-895
-895
-894
-895
-895
-895
-895
-894
-894
-894
-895
-895
-895
-895
-894
-893
-894
-894
-895
-895
-894
-893
-893
-893
-894
-894
-894
-893
-892
-892
-893
-893
-893
-893
-892
-892
-892
-893
-893
-893
-892
-891
-891
-891
-892
-892
-892
-891
-890
-890
-890
-891
-891
-890
-890
-889
-889
-890
-890
-890
-889
-889
-888
-889
-889
-889
-889
-888
-887
-887
-888
-889
-889
-888
-887
-887
-887
-888
-888
-888
-887
-886
-886
-886
-887
-887
-886
-885
-885
-884
-885
-885
-885
-884
-883
-883
-883
-884
-884
-884
-883
-882
-881
-882
-882
-882
-882
-881
-880
-880
-881
-882
-882
-881
-880
-879
-879
-879
-880
-879
-879
-878
-877
-878
-878
-878
-878
-877
-876
-875
-876
-876
-877
-876
-876
-875
-876
-876
-877
-876
-876
-875
-875
-876
-877
-878
-878
-877
-876
-876
-876
-877
-877
-876
-875
-874
-874
-874
-874
-874
-873
-872
-870
-870
-869
-869
-868
-866
-865
-864
-864
-864
-864
-863
-862
-861
-861
-861
-861
-861
-860
-859
-859
-859
-859
-859
-858
-858
-857
-857
-856
-857
-856
-856
-855
-854
-854
-855
-855
-854
-853
-852
-851
-851
-851
-851
-850
-849
-849
-849
-849
-850
-850
-849
-848
-847
-847
-848
-849
-849
-848
-848
-848
-849
-850
-851
-851
-851
-851
-852
-853
-855
-856
-856
-856
-857
-858
-859
-861
-862
-862
-862
-862
-863
-864
-865
-865
-864
-864
-864
-865
-866
-866
-866
-865
-865
-865
-866
-866
-866
-866
-866
-865
-866
-867
-867
-867
-866
-866
-866
-867
-868
-868
-868
-867
-867
-867
-868
-868
-868
-868
-867
-867
-867
-868
-869
-870
-870
-870
-871
-871
-871
-871
-870
-869
-869
-869
-870
-870
-870
-869
-867
-866
-865
-865
-864
-863
-861
-860
-859
-859
-859
-859
-858
-857
-857
-857
-857
-858
-858
-858
-857
-857
-857
-858
-858
-858
-857
-856
-856
-856
-856
-856
-856
-855
-854
-854
-854
-854
-854
-853
-852
-852
-852
-853
-853
-853
-852
-852
-852
-852
-853
-853
-853
-852
-852
-852
-852
-853
-853
-852
-851
-850
-850
-851
-851
-850
-849
-848
-848
-849
-849
-849
-849
-848
-848
-848
-849
-850
-851
-851
-851
-852
-853
-855
-856
-857
-858
-859
-861
-864
-867
-869
-871
-872
-875
-878
-882
-885
-888
-891
-894
-897
-900
-904
-907
-910
-913
-916
-920
-924
-928
-930
-931
-931
-931
-932
-934
-934
-934
-934
-932
-931
-930
-928
-927
-924
-920
-916
-913
-911
-908
-905
-902
-897
-893
-890
-886
-882
-877
-871
-865
-859
-853
-847
-841
-833
-824
-816
-808
-800
-792
-784
-775
-766
-757
-749
-742
-735
-728
-721
-715
-709
-705
-702
-699
-696
-693
-691
-691
-691
-692
-694
-695
-697
-699
-703
-707
-712
-716
-721
-725
-730
-735
-740
-746
-750
-754
-757
-762
-766
-770
-773
-776
-777
-778
-780
-781
-782
-783
-782
-781
-780
-780
-779
-779
-777
-776
-775
-775
-775
-775
-775
-775
-774
-774
-775
-777
-779
-780
-781
-782
-783
-785
-787
-790
-791
-792
-793
-795
-798
-800
-802
-803
-804
-805
-806
-808
-809
-810
-810
-811
-811
-811
-812
-813
-812
-812
-811
-811
-811
-812
-812
-811
-811
-810
-810
-810
-811
-810
-810
-809
-809
-809
-809
-810
-810
-809
-808
-809
-809
-810
-810
-810
-809
-809
-809
-810
-811
-811
-812
-812
-813
-813
-814
-813
-812
-811
-810
-810
-811
-812
-812
-811
-810
-809
-809
-808
-808
-807
-806
-805
-804
-803
-803
-803
-803
-802
-801
-802
-802
-803
-804
-803
-803
-803
-803
-804
-805
-805
-805
-804
-804
-805
-805
-806
-805
-805
-804
-804
-804
-805
-805
-804
-803
-803
-803
-804
-804
-804
-803
-803
-802
-803
-803
-803
-803
-802
-802
-802
-802
-803
-803
-803
-802
-801
-801
-802
-802
-802
-801
-800
-800
-800
-801
-801
-800
-799
-799
-799
-799
-800
-800
-800
-799
-798
-798
-799
-799
-799
-799
-798
-797
-798
-798
-798
-798
-797
-796
-796
-796
-797
-797
-796
-795
-794
-794
-794
-795
-795
-794
-794
-793
-793
-794
-794
-793
-792
-792
-792
-793
-794
-794
-794
-793
-793
-793
-794
-794
-794
-793
-792
-792
-792
-792
-792
-792
-791
-790
-789
-790
-790
-790
-790
-789
-789
-789
-790
-790
-790
-789
-789
-788
-789
-790
-790
-790
-789
-789
-789
-790
-791
-791
-791
-790
-789
-789
-790
-791
-791
-790
-790
-789
-789
-790
-790
-790
-789
-788
-788
-789
-789
-789
-789
-788
-787
-788
-788
-789
-788
-788
-787
-787
-787
-788
-788
-788
-788
-787
-788
-788
-789
-790
-789
-789
-788
-789
-790
-790
-790
-790
-789
-789
-790
-790
-791
-791
-790
-789
-790
-791
-791
-792
-792
-792
-791
-792
-793
-794
-794
-794
-793
-793
-794
-795
-795
-795
-794
-794
-794
-794
-795
-796
-795
-795
-794
-794
-795
-795
-795
-795
-794
-794
-794
-795
-795
-795
-794
-793
-793
-794
-795
-795
-794
-793
-792
-793
-793
-793
-793
-793
-792
-791
-791
-792
-792
-791
-790
-789
-789
-790
-790
-790
-789
-788
-787
-787
-788
-788
-788
-787
-786
-785
-785
-786
-786
-785
-784
-783
-783
-784
-784
-785
-784
-783
-783
-783
-784
-784
-784
-783
-782
-781
-782
-782
-783
-782
-782
-781
-781
-781
-782
-782
-781
-780
-780
-780
-781
-781
-781
-781
-780
-780
-780
-781
-781
-781
-780
-779
-779
-779
-780
-780
-780
-779
-778
-778
-778
-779
-778
-778
-777
-777
-777
-777
-777
-777
-776
-775
-775
-776
-776
-776
-776
-775
-774
-774
-775
-775
-775
-774
-773
-773
-773
-773
-773
-773
-772
-771
-771
-771
-772
-772
-772
-771
-770
-771
-771
-772
-772
-771
-770
-770
-770
-771
-772
-771
-770
-770
-770
-770
-771
-771
-771
-770
-769
-769
-770
-770
-770
-769
-768
-767
-767
-768
-768
-768
-767
-766
-766
-766
-767
-767
-766
-766
-765
-765
-766
-767
-767
-766
-766
-766
-766
-767
-767
-767
-767
-766
-766
-767
-768
-768
-768
-767
-766
-766
-767
-767
-767
-767
-766
-765
-765
-766
-766
-765
-764
-763
-763
-764
-764
-764
-764
-763
-762
-762
-763
-763
-763
-763
-762
-762
-762
-763
-763
-763
-762
-761
-762
-762
-763
-763
-763
-762
-762
-762
-763
-763
-763
-762
-762
-761
-761
-762
-762
-761
-760
-760
-760
-760
-761
-761
-760
-759
-759
-759
-760
-760
-760
-760
-759
-759
-760
-760
-761
-760
-759
-759
-759
-759
-760
-760
-759
-758
-758
-758
-758
-758
-758
-757
-756
-756
-756
-756
-756
-755
-754
-753
-753
-754
-754
-754
-754
-753
-752
-752
-753
-753
-753
-752
-751
-750
-750
-750
-750
-750
-749
-748
-748
-749
-749
-749
-748
-747
-747
-747
-747
-748
-748
-748
-747
-747
-747
-748
-748
-748
-747
-746
-746
-747
-748
-748
-747
-746
-746
-746
-746
-746
-746
-746
-745
-745
-745
-745
-745
-745
-744
-744
-744
-744
-745
-745
-745
-744
-744
-744
-744
-745
-745
-745
-744
-744
-744
-745
-745
-744
-743
-743
-743
-743
-744
-744
-743
-742
-741
-741
-742
-742
-742
-741
-740
-739
-739
-739
-739
-738
-737
-736
-736
-737
-737
-737
-736
-735
-735
-735
-735
-736
-736
-735
-734
-733
-733
-734
-734
-733
-732
-731
-730
-730
-730
-730
-729
-728
-727
-726
-727
-727
-726
-725
-724
-723
-722
-723
-723
-722
-721
-720
-719
-720
-720
-720
-720
-719
-719
-719
-720
-721
-721
-721
-721
-721
-722
-724
-725
-725
-726
-726
-727
-728
-730
-731
-731
-731
-731
-732
-733
-734
-735
-735
-734
-735
-735
-736
-737
-736
-736
-735
-735
-736
-737
-737
-737
-736
-736
-736
-737
-737
-737
-737
-736
-735
-736
-736
-737
-736
-735
-735
-735
-735
-736
-736
-735
-734
-733
-733
-734
-734
-734
-733
-732
-732
-732
-732
-732
-732
-731
-730
-730
-731
-732
-732
-731
-731
-730
-730
-731
-732
-732
-731
-730
-730
-730
-731
-731
-731
-730
-730
-730
-730
-731
-731
-731
-730
-729
-729
-730
-730
-730
-729
-728
-727
-727
-727
-727
-727
-725
-724
-724
-724
-724
-724
-722
-721
-720
-720
-720
-720
-719
-719
-718
-717
-717
-717
-717
-716
-715
-715
-715
-716
-716
-716
-716
-715
-714
-714
-715
-716
-716
-716
-715
-715
-715
-716
-716
-715
-715
-714
-714
-715
-716
-716
-716
-715
-715
-716
-718
-719
-720
-721
-721
-723
-724
-727
-729
-731
-732
-734
-737
-740
-744
-747
-750
-752
-755
-759
-763
-767
-770
-773
-776
-779
-783
-787
-790
-792
-793
-795
-797
-799
-801
-802
-802
-801
-801
-800
-800
-800
-798
-796
-794
-792
-790
-788
-786
-783
-779
-775
-773
-770
-767
-763
-759
-754
-748
-744
-739
-734
-728
-720
-712
-705
-697
-689
-681
-673
-663
-654
-646
-638
-630
-622
-614
-605
-598
-591
-586
-581
-577
-572
-568
-565
-564
-563
-562
-562
-562
-563
-564
-567
-571
-575
-578
-582
-586
-591
-597
-603
-608
-613
-617
-622
-627
-632
-637
-640
-643
-646
-649
-651
-654
-656
-656
-656
-656
-656
-656
-656
-655
-654
-652
-651
-650
-650
-650
-649
-648
-647
-647
-648
-649
-649
-649
-649
-650
-651
-653
-655
-656
-657
-658
-659
-661
-663
-665
-666
-666
-667
-668
-670
-672
-673
-674
-674
-674
-675
-677
-678
-678
-678
-677
-677
-678
-678
-679
-679
-678
-677
-678
-678
-679
-679
-678
-678
-677
-677
-678
-679
-679
-678
-678
-677
-678
-678
-679
-678
-678
-677
-677
-678
-679
-679
-679
-678
-678
-678
-679
-679
-679
-679
-678
-678
-678
-678
-679
-678
-678
-677
-677
-678
-678
-678
-678
-677
-676
-677
-678
-678
-678
-678
-677
-676
-676
-677
-677
-676
-675
-674
-674
-674
-674
-674
-673
-671
-671
-671
-671
-671
-671
-670
-670
-670
-670
-671
-671
-671
-671
-671
-672
-673
-674
-675
-675
-674
-674
-675
-676
-676
-677
-676
-676
-676
-676
-677
-677
-677
-676
-675
-675
-676
-676
-676
-675
-674
-674
-673
-674
-674
-673
-672
-671
-671
-671
-671
-671
-670
-670
-669
-669
-670
-670
-671
-671
-672
-673
-674
-676
-677
-677
-676
-675
-675
-676
-677
-677
-677
-676
-675
-675
-675
-674
-674
-672
-670
-669
-668
-668
-668
-668
-667
-666
-666
-666
-667
-667
-666
-666
-665
-666
-666
-667
-668
-667
-667
-666
-667
-667
-668
-668
-668
-667
-667
-668
-668
-669
-669
-668
-669
-671
-674
-677
-678
-677
-676
-674
-674
-675
-675
-676
-676
-675
-674
-673
-673
-672
-670
-667
-665
-664
-663
-662
-661
-660
-659
-659
-660
-661
-662
-662
-661
-660
-659
-660
-660
-660
-659
-658
-658
-658
-658
-659
-658
-657
-656
-655
-654
-654
-655
-655
-654
-654
-655
-656
-657
-658
-658
-658
-659
-660
-661
-663
-664
-664
-664
-664
-664
-665
-666
-666
-665
-665
-665
-666
-667
-667
-667
-667
-667
-667
-668
-669
-669
-669
-668
-668
-669
-669
-670
-670
-670
-669
-669
-670
-670
-671
-670
-669
-669
-669
-670
-671
-671
-671
-671
-671
-671
-672
-673
-673
-673
-672
-672
-672
-673
-673
-673
-672
-671
-671
-672
-672
-672
-671
-670
-669
-669
-669
-669
-669
-668
-667
-667
-667
-668
-668
-667
-667
-666
-666
-667
-668
-668
-667
-666
-666
-666
-666
-667
-666
-666
-665
-664
-664
-665
-665
-664
-663
-662
-662
-663
-663
-663
-662
-662
-662
-663
-664
-665
-664
-663
-662
-661
-661
-662
-662
-661
-660
-659
-659
-659
-658
-658
-656
-655
-654
-654
-654
-654
-654
-653
-652
-652
-652
-653
-653
-653
-652
-651
-652
-652
-653
-653
-652
-651
-651
-651
-652
-652
-652
-651
-650
-649
-649
-648
-648
-647
-646
-646
-646
-647
-647
-647
-647
-646
-645
-645
-646
-646
-646
-646
-646
-646
-647
-649
-649
-649
-649
-649
-650
-651
-652
-652
-652
-652
-651
-652
-653
-653
-653
-653
-652
-652
-652
-653
-653
-652
-651
-650
-650
-650
-651
-650
-650
-649
-648
-648
-649
-649
-649
-648
-647
-646
-647
-647
-647
-646
-645
-644
-644
-645
-645
-645
-644
-643
-642
-642
-642
-642
-641
-641
-640
-639
-640
-641
-641
-640
-640
-639
-640
-641
-642
-643
-643
-642
-642
-643
-645
-646
-646
-646
-646
-645
-646
-646
-647
-646
-645
-645
-645
-646
-647
-647
-648
-647
-647
-648
-648
-648
-647
-647
-646
-646
-646
-647
-647
-646
-644
-643
-643
-642
-642
-641
-640
-639
-638
-638
-638
-638
-638
-637
-636
-636
-636
-637
-637
-637
-636
-635
-635
-636
-637
-637
-637
-636
-635
-636
-636
-637
-636
-636
-635
-634
-635
-635
-635
-635
-634
-634
-634
-635
-635
-636
-635
-635
-634
-635
-636
-637
-637
-637
-636
-636
-637
-637
-638
-637
-636
-635
-635
-635
-636
-635
-634
-633
-632
-632
-632
-632
-631
-630
-629
-628
-627
-628
-628
-627
-626
-625
-625
-626
-627
-627
-626
-625
-625
-626
-626
-627
-627
-627
-627
-627
-627
-628
-628
-627
-627
-626
-626
-626
-626
-625
-624
-623
-622
-622
-622
-622
-621
-620
-619
-619
-619
-620
-620
-620
-619
-619
-620
-621
-622
-623
-623
-623
-623
-624
-625
-626
-626
-626
-626
-626
-627
-627
-627
-627
-626
-625
-625
-625
-625
-625
-624
-622
-621
-620
-620
-619
-618
-617
-615
-614
-613
-613
-612
-611
-609
-608
-608
-608
-608
-607
-606
-604
-603
-603
-603
-603
-602
-602
-601
-600
-601
-601
-602
-602
-600
-599
-599
-599
-599
-599
-598
-598
-597
-598
-599
-599
-599
-598
-597
-597
-597
-598
-598
-598
-598
-598
-599
-601
-602
-603
-604
-604
-605
-606
-608
-610
-611
-611
-612
-612
-613
-615
-616
-616
-615
-615
-616
-617
-618
-618
-618
-617
-617
-617
-617
-618
-618
-617
-616
-616
-616
-617
-617
-616
-615
-614
-614
-614
-614
-614
-613
-612
-611
-611
-612
-612
-611
-609
-608
-607
-607
-607
-607
-605
-604
-603
-603
-603
-604
-604
-604
-603
-603
-604
-605
-606
-607
-607
-607
-607
-608
-610
-611
-611
-611
-611
-611
-612
-613
-613
-613
-611
-611
-610
-611
-611
-610
-609
-608
-607
-607
-607
-606
-605
-604
-603
-603
-604
-604
-604
-603
-602
-601
-601
-601
-602
-601
-600
-599
-599
-599
-599
-599
-598
-597
-596
-596
-597
-597
-597
-597
-596
-595
-595
-596
-596
-595
-594
-593
-592
-592
-592
-592
-592
-591
-590
-590
-591
-591
-591
-591
-590
-590
-591
-593
-595
-596
-597
-597
-598
-599
-600
-601
-602
-603
-604
-606
-609
-611
-613
-614
-615
-617
-619
-622
-624
-627
-629
-631
-634
-637
-641
-644
-646
-649
-651
-654
-657
-661
-663
-665
-666
-668
-669
-671
-672
-673
-672
-672
-671
-670
-670
-669
-667
-665
-662
-660
-659
-657
-654
-650
-646
-643
-639
-636
-632
-628
-622
-616
-611
-605
-600
-593
-586
-578
-570
-562
-555
-548
-540
-531
-522
-513
-506
-498
-491
-484
-476
-469
-463
-458
-455
-451
-447
-443
-441
-439
-439
-439
-440
-440
-441
-443
-446
-450
-454
-458
-462
-466
-470
-476
-482
-488
-493
-497
-501
-506
-511
-516
-519
-522
-524
-526
-528
-531
-532
-533
-533
-533
-532
-532
-532
-531
-530
-529
-528
-527
-527
-528
-527
-526
-525
-525
-525
-526
-527
-528
-528
-528
-528
-529
-531
-531
-531
-531
-531
-532
-533
-535
-535
-535
-535
-535
-536
-538
-539
-539
-539
-539
-540
-541
-542
-543
-543
-543
-543
-544
-546
-547
-548
-548
-548
-548
-549
-550
-550
-550
-550
-549
-549
-549
-550
-550
-549
-548
-547
-546
-547
-547
-546
-545
-543
-542
-542
-542
-542
-541
-540
-539
-538
-539
-539
-539
-539
-538
-537
-537
-538
-539
-539
-538
-538
-537
-538
-539
-540
-540
-540
-539
-539
-540
-541
-541
-541
-540
-540
-541
-542
-542
-543
-542
-542
-541
-541
-542
-542
-542
-542
-541
-541
-542
-542
-542
-542
-541
-540
-540
-541
-542
-543
-543
-543
-543
-543
-543
-543
-543
-542
-541
-541
-541
-542
-542
-541
-540
-539
-538
-539
-539
-538
-537
-536
-535
-534
-534
-534
-534
-533
-532
-531
-531
-532
-532
-531
-530
-530
-530
-531
-531
-531
-531
-530
-530
-530
-531
-532
-532
-531
-531
-530
-531
-532
-532
-531
-531
-530
-530
-531
-531
-531
-530
-530
-529
-530
-531
-531
-531
-531
-531
-531
-531
-532
-532
-532
-531
-531
-531
-532
-533
-533
-532
-531
-530
-530
-531
-531
-531
-531
-531
-532
-532
-532
-531
-529
-527
-526
-526
-526
-527
-526
-526
-524
-523
-523
-523
-522
-522
-520
-519
-519
-519
-520
-520
-519
-519
-518
-519
-520
-521
-521
-521
-520
-520
-520
-520
-520
-519
-518
-518
-517
-518
-519
-519
-518
-518
-517
-517
-518
-519
-520
-520
-520
-520
-521
-522
-523
-524
-524
-524
-524
-525
-526
-526
-526
-525
-524
-524
-525
-525
-525
-524
-523
-522
-522
-522
-523
-522
-522
-521
-521
-521
-522
-522
-522
-522
-522
-522
-523
-524
-525
-525
-524
-524
-524
-525
-525
-525
-524
-524
-523
-523
-524
-524
-523
-522
-521
-521
-521
-521
-522
-521
-521
-521
-521
-522
-523
-523
-523
-523
-523
-525
-527
-529
-529
-529
-529
-529
-530
-531
-531
-532
-531
-531
-532
-532
-533
-532
-531
-530
-530
-529
-529
-529
-528
-526
-525
-525
-525
-525
-524
-523
-522
-521
-520
-520
-520
-519
-518
-517
-516
-516
-516
-515
-514
-513
-512
-511
-512
-512
-512
-511
-510
-509
-509
-509
-509
-509
-509
-508
-509
-509
-511
-511
-511
-510
-510
-511
-513
-514
-515
-515
-515
-515
-516
-518
-518
-518
-518
-517
-517
-517
-518
-517
-516
-515
-514
-513
-513
-513
-513
-511
-510
-509
-509
-509
-509
-509
-508
-508
-508
-508
-509
-510
-509
-509
-509
-510
-511
-513
-515
-516
-516
-516
-516
-517
-517
-517
-516
-515
-515
-516
-516
-516
-515
-513
-512
-511
-511
-511
-510
-508
-507
-505
-505
-505
-505
-505
-505
-504
-504
-505
-506
-506
-506
-505
-505
-505
-506
-507
-507
-506
-505
-505
-506
-507
-508
-508
-507
-507
-507
-507
-508
-509
-508
-508
-508
-508
-509
-510
-510
-510
-509
-509
-510
-511
-512
-512
-512
-511
-511
-512
-513
-513
-512
-511
-511
-511
-511
-512
-512
-512
-511
-510
-510
-511
-511
-510
-509
-508
-507
-507
-508
-508
-507
-506
-505
-505
-506
-506
-506
-505
-504
-503
-503
-504
-504
-504
-503
-503
-503
-504
-505
-507
-507
-507
-507
-507
-508
-509
-510
-510
-509
-510
-511
-512
-512
-512
-511
-509
-509
-508
-508
-508
-507
-506
-505
-504
-504
-504
-504
-502
-501
-500
-500
-501
-501
-501
-501
-500
-500
-501
-502
-502
-502
-502
-501
-502
-503
-504
-504
-504
-504
-504
-505
-506
-506
-506
-506
-505
-504
-504
-505
-505
-504
-503
-502
-502
-503
-504
-504
-503
-502
-502
-502
-503
-503
-502
-501
-501
-500
-501
-501
-501
-500
-499
-499
-498
-499
-499
-499
-498
-498
-497
-497
-498
-498
-498
-497
-496
-496
-496
-497
-498
-497
-497
-496
-497
-498
-499
-499
-499
-498
-498
-499
-500
-501
-502
-502
-503
-503
-503
-503
-502
-501
-500
-499
-499
-500
-500
-500
-499
-498
-496
-496
-496
-495
-494
-493
-492
-491
-491
-492
-492
-491
-490
-490
-490
-491
-491
-491
-491
-490
-489
-490
-491
-491
-491
-491
-490
-490
-490
-491
-491
-490
-489
-488
-488
-489
-489
-488
-487
-486
-485
-485
-485
-485
-484
-483
-481
-480
-480
-480
-479
-479
-477
-477
-477
-477
-478
-478
-477
-476
-475
-475
-476
-476
-476
-475
-474
-474
-474
-474
-474
-473
-472
-471
-471
-472
-473
-473
-473
-472
-472
-473
-475
-476
-477
-477
-478
-479
-480
-482
-483
-483
-483
-484
-485
-487
-488
-488
-488
-487
-487
-487
-488
-488
-488
-488
-487
-486
-486
-487
-486
-485
-484
-484
-484
-485
-487
-487
-487
-487
-488
-489
-490
-492
-493
-493
-493
-494
-495
-497
-498
-499
-498
-499
-499
-500
-501
-501
-500
-499
-498
-498
-498
-498
-497
-496
-495
-495
-495
-496
-497
-497
-496
-495
-494
-494
-493
-493
-492
-491
-491
-491
-491
-491
-490
-488
-487
-485
-485
-485
-484
-483
-481
-480
-480
-480
-480
-480
-479
-478
-478
-478
-478
-478
-478
-477
-476
-476
-476
-477
-477
-477
-476
-475
-476
-476
-477
-477
-477
-476
-477
-478
-479
-480
-481
-480
-480
-480
-481
-482
-482
-482
-481
-481
-481
-482
-482
-482
-482
-481
-480
-480
-480
-480
-479
-478
-477
-476
-477
-477
-477
-476
-475
-475
-476
-477
-478
-479
-480
-480
-481
-483
-485
-487
-489
-490
-491
-492
-495
-498
-501
-503
-505
-508
-511
-515
-518
-521
-524
-526
-528
-531
-535
-538
-541
-542
-544
-546
-548
-550
-552
-552
-552
-552
-553
-554
-554
-553
-551
-549
-547
-546
-544
-542
-540
-537
-534
-532
-530
-528
-526
-523
-520
-516
-512
-509
-505
-500
-495
-489
-483
-478
-472
-466
-459
-451
-442
-434
-427
-419
-411
-402
-393
-385
-378
-371
-365
-360
-354
-348
-344
-341
-339
-337
-335
-334
-333
-333
-334
-337
-339
-341
-343
-345
-349
-354
-359
-363
-368
-372
-377
-383
-388
-394
-398
-402
-406
-410
-413
-417
-420
-422
-423
-424
-425
-427
-428
-428
-427
-426
-425
-424
-424
-423
-422
-420
-418
-417
-417
-418
-418
-417
-416
-416
-417
-418
-419
-420
-420
-419
-420
-421
-422
-424
-425
-425
-426
-426
-428
-429
-431
-431
-431
-432
-433
-435
-436
-438
-438
-438
-439
-440
-441
-441
-441
-441
-441
-440
-441
-441
-441
-440
-439
-438
-438
-439
-439
-439
-438
-437
-437
-437
-438
-438
-438
-438
-437
-437
-438
-439
-439
-439
-438
-438
-438
-439
-440
-440
-440
-439
-438
-439
-440
-440
-440
-439
-438
-438
-438
-439
-439
-439
-438
-437
-437
-437
-438
-437
-437
-436
-435
-436
-437
-437
-437
-436
-435
-435
-436
-436
-437
-436
-435
-435
-436
-436
-437
-437
-437
-436
-436
-436
-437
-437
-437
-437
-436
-435
-436
-436
-436
-436
-435
-435
-435
-435
-436
-436
-435
-434
-433
-433
-433
-433
-432
-431
-430
-430
-430
-431
-430
-429
-428
-428
-428
-429
-430
-430
-430
-429
-429
-430
-432
-432
-433
-432
-432
-432
-433
-434
-435
-434
-434
-433
-434
-434
-435
-435
-434
-433
-433
-434
-434
-435
-434
-433
-432
-432
-432
-432
-432
-431
-430
-430
-430
-430
-431
-430
-430
-429
-429
-429
-430
-431
-430
-430
-430
-430
-431
-432
-432
-431
-431
-431
-431
-432
-432
-432
-431
-430
-430
-430
-431
-431
-431
-430
-428
-428
-428
-428
-428
-428
-427
-426
-427
-427
-427
-426
-425
-424
-424
-424
-425
-425
-425
-424
-423
-423
-423
-423
-423
-423
-422
-422
-422
-423
-424
-425
-424
-423
-423
-424
-425
-426
-426
-426
-425
-425
-426
-427
-427
-427
-426
-426
-427
-429
-430
-431
-430
-429
-428
-427
-427
-428
-427
-426
-425
-425
-424
-424
-423
-421
-420
-419
-419
-419
-419
-419
-418
-417
-417
-417
-418
-419
-419
-419
-419
-419
-420
-422
-423
-423
-423
-423
-424
-425
-427
-428
-428
-429
-430
-431
-433
-434
-435
-435
-435
-436
-437
-438
-439
-438
-438
-438
-438
-439
-439
-439
-438
-437
-436
-436
-436
-436
-435
-434
-434
-434
-434
-435
-435
-434
-434
-433
-434
-435
-436
-436
-436
-435
-435
-436
-437
-438
-438
-437
-436
-436
-436
-437
-436
-436
-434
-434
-434
-434
-435
-434
-433
-432
-432
-432
-432
-433
-432
-431
-430
-429
-429
-429
-429
-429
-428
-428
-428
-429
-429
-428
-427
-426
-425
-425
-425
-425
-424
-422
-421
-420
-420
-421
-420
-419
-418
-417
-417
-417
-418
-417
-417
-416
-416
-417
-419
-420
-420
-420
-420
-420
-421
-422
-422
-422
-422
-422
-423
-424
-425
-425
-424
-424
-423
-424
-425
-425
-425
-425
-425
-425
-426
-426
-426
-426
-425
-425
-426
-428
-430
-430
-429
-428
-427
-428
-429
-430
-430
-429
-428
-427
-427
-426
-426
-424
-423
-422
-421
-421
-420
-419
-417
-415
-414
-414
-413
-413
-413
-412
-411
-411
-412
-413
-413
-413
-413
-413
-414
-415
-417
-418
-418
-418
-418
-419
-420
-421
-421
-421
-421
-421
-422
-423
-424
-424
-423
-423
-424
-425
-425
-426
-425
-425
-425
-425
-426
-427
-427
-426
-426
-426
-426
-426
-426
-424
-423
-422
-422
-423
-423
-423
-422
-421
-420
-419
-419
-419
-419
-418
-417
-417
-417
-417
-417
-417
-416
-416
-417
-418
-419
-420
-420
-419
-420
-421
-423
-424
-425
-425
-425
-425
-426
-427
-427
-427
-426
-426
-427
-428
-428
-427
-426
-424
-424
-424
-425
-425
-425
-425
-424
-424
-424
-424
-424
-424
-423
-422
-423
-424
-424
-425
-424
-424
-424
-425
-425
-426
-426
-425
-424
-424
-424
-425
-426
-426
-426
-426
-427
-429
-430
-430
-429
-429
-429
-430
-431
-432
-432
-432
-432
-432
-433
-434
-434
-434
-433
-432
-432
-433
-433
-433
-432
-431
-430
-430
-430
-430
-429
-428
-427
-426
-425
-425
-425
-424
-422
-422
-421
-422
-422
-421
-420
-419
-419
-420
-421
-421
-421
-421
-420
-420
-421
-422
-423
-423
-422
-422
-423
-424
-425
-425
-425
-424
-424
-424
-425
-425
-425
-425
-425
-425
-426
-426
-426
-426
-425
-425
-426
-427
-428
-428
-428
-427
-427
-428
-430
-431
-431
-431
-430
-430
-431
-432
-432
-431
-431
-430
-431
-432
-433
-433
-432
-431
-431
-431
-431
-432
-431
-430
-429
-429
-429
-429
-429
-428
-426
-426
-425
-425
-425
-424
-423
-421
-420
-420
-420
-419
-418
-417
-415
-414
-414
-414
-413
-412
-410
-409
-408
-409
-409
-409
-408
-407
-407
-407
-408
-409
-409
-408
-408
-409
-411
-412
-414
-414
-414
-415
-417
-418
-420
-420
-421
-421
-423
-425
-427
-428
-429
-430
-430
-431
-432
-433
-434
-434
-434
-434
-435
-436
-437
-438
-437
-436
-436
-436
-436
-436
-436
-435
-434
-434
-434
-434
-433
-432
-431
-430
-429
-430
-430
-430
-429
-429
-429
-430
-432
-433
-433
-433
-432
-432
-433
-434
-434
-434
-434
-433
-434
-435
-436
-435
-434
-433
-432
-432
-432
-432
-431
-430
-429
-428
-428
-428
-427
-426
-425
-424
-424
-425
-425
-424
-422
-421
-421
-421
-421
-422
-421
-420
-420
-420
-420
-421
-421
-421
-420
-420
-420
-420
-421
-420
-420
-419
-419
-419
-420
-420
-420
-419
-418
-418
-418
-419
-419
-418
-417
-417
-418
-419
-420
-419
-418
-417
-417
-418
-419
-419
-419
-419
-418
-418
-418
-419
-419
-418
-418
-418
-418
-419
-420
-420
-419
-418
-418
-419
-420
-421
-421
-421
-421
-422
-423
-425
-426
-427
-428
-429
-431
-434
-438
-441
-444
-446
-450
-454
-458
-462
-466
-469
-473
-477
-482
-486
-490
-492
-495
-498
-501
-505
-507
-509
-510
-511
-512
-512
-512
-511
-510
-509
-507
-506
-504
-503
-501
-497
-494
-491
-488
-486
-483
-480
-476
-471
-467
-464
-460
-456
-451
-445
-438
-432
-426
-420
-414
-406
-398
-391
-383
-376
-369
-361
-353
-344
-336
-330
-324
-318
-312
-306
-300
-296
-293
-290
-287
-284
-281
-280
-281
-282
-284
-286
-287
-290
-293
-298
-303
-308
-313
-318
-324
-330
-336
-343
-349
-354
-359
-364
-369
-374
-378
-382
-384
-385
-387
-388
-390
-390
-390
-388
-387
-386
-385
-385
-383
-382
-380
-378
-378
-378
-378
-378
-377
-376
-376
-377
-378
-379
-380
-380
-380
-380
-381
-382
-383
-382
-382
-382
-383
-384
-385
-384
-384
-383
-382
-383
-383
-384
-384
-383
-383
-384
-385
-386
-387
-387
-387
-388
-389
-391
-392
-393
-393
-392
-393
-394
-395
-396
-396
-396
-395
-395
-395
-395
-394
-393
-392
-392
-392
-393
-393
-393
-393
-392
-392
-393
-394
-394
-394
-394
-393
-393
-394
-395
-395
-395
-394
-394
-395
-396
-396
-396
-396
-395
-395
-396
-397
-397
-398
-397
-397
-398
-399
-399
-400
-399
-398
-398
-398
-398
-399
-398
-397
-396
-395
-395
-395
-394
-392
-391
-390
-389
-389
-389
-389
-388
-386
-386
-386
-387
-387
-387
-386
-385
-385
-386
-387
-387
-387
-386
-386
-386
-386
-387
-387
-386
-385
-384
-384
-384
-385
-386
-387
-387
-388
-390
-391
-392
-392
-391
-391
-392
-394
-395
-396
-396
-395
-395
-395
-395
-395
-395
-393
-392
-391
-391
-391
-390
-390
-388
-387
-387
-387
-388
-387
-387
-386
-385
-386
-387
-387
-387
-386
-385
-385
-385
-386
-386
-385
-385
-384
-384
-385
-386
-386
-385
-384
-384
-384
-385
-386
-387
-386
-386
-386
-387
-387
-387
-386
-385
-384
-384
-384
-384
-383
-382
-381
-381
-381
-381
-381
-381
-380
-379
-379
-380
-380
-381
-381
-380
-380
-380
-381
-381
-381
-380
-379
-379
-380
-380
-381
-381
-379
-378
-377
-378
-378
-378
-378
-377
-376
-376
-377
-378
-377
-377
-376
-376
-377
-378
-379
-379
-379
-378
-378
-379
-379
-380
-379
-379
-379
-379
-379
-379
-379
-378
-377
-376
-377
-378
-378
-378
-378
-377
-378
-379
-380
-381
-381
-380
-380
-380
-381
-382
-383
-383
-383
-383
-384
-386
-387
-387
-387
-387
-387
-388
-390
-390
-391
-391
-391
-391
-392
-393
-393
-393
-392
-392
-392
-392
-393
-392
-391
-390
-389
-390
-390
-390
-389
-389
-388
-388
-389
-389
-389
-389
-388
-387
-388
-388
-389
-389
-388
-387
-386
-387
-387
-387
-386
-385
-384
-383
-383
-383
-382
-381
-379
-379
-379
-380
-381
-381
-381
-381
-381
-382
-383
-385
-385
-386
-386
-387
-389
-391
-392
-392
-392
-392
-393
-394
-394
-394
-394
-393
-392
-393
-393
-392
-391
-390
-388
-387
-386
-385
-384
-382
-380
-380
-380
-380
-380
-379
-378
-377
-376
-376
-377
-377
-377
-376
-376
-376
-377
-378
-378
-378
-377
-377
-378
-378
-379
-378
-378
-377
-377
-377
-378
-379
-378
-378
-377
-378
-378
-379
-379
-378
-378
-378
-378
-379
-379
-379
-378
-377
-376
-376
-376
-375
-374
-373
-372
-372
-372
-372
-372
-371
-369
-369
-369
-370
-371
-371
-371
-371
-371
-372
-373
-374
-374
-374
-374
-375
-376
-377
-377
-377
-376
-376
-377
-378
-379
-379
-378
-377
-378
-378
-379
-379
-379
-378
-377
-377
-377
-377
-376
-375
-373
-373
-373
-373
-373
-372
-371
-369
-369
-369
-369
-369
-368
-367
-367
-367
-368
-369
-369
-368
-368
-368
-369
-371
-372
-373
-373
-373
-373
-375
-376
-377
-377
-377
-376
-376
-377
-377
-377
-376
-375
-374
-373
-373
-373
-372
-370
-368
-368
-367
-368
-368
-367
-366
-366
-366
-367
-368
-368
-368
-368
-368
-370
-372
-373
-374
-374
-374
-375
-376
-377
-378
-378
-377
-377
-377
-378
-378
-378
-377
-375
-375
-374
-375
-374
-374
-372
-371
-371
-371
-371
-371
-370
-369
-368
-368
-369
-369
-369
-367
-366
-365
-365
-366
-366
-365
-364
-363
-363
-363
-363
-363
-362
-361
-360
-360
-360
-361
-361
-360
-359
-359
-360
-361
-361
-362
-362
-362
-362
-364
-365
-366
-365
-365
-365
-365
-366
-368
-368
-368
-368
-368
-369
-370
-371
-371
-370
-370
-370
-372
-373
-374
-374
-373
-372
-371
-371
-372
-371
-370
-369
-368
-368
-369
-368
-367
-366
-365
-364
-363
-363
-362
-361
-360
-359
-358
-358
-358
-358
-357
-355
-355
-354
-355
-354
-353
-352
-351
-350
-350
-350
-350
-349
-349
-348
-349
-349
-350
-350
-350
-349
-349
-351
-352
-354
-354
-354
-354
-355
-356
-357
-357
-357
-356
-355
-355
-355
-355
-354
-353
-351
-350
-349
-349
-348
-347
-345
-343
-341
-341
-341
-341
-340
-339
-338
-337
-338
-338
-338
-337
-336
-336
-336
-337
-337
-337
-336
-336
-336
-337
-338
-339
-339
-338
-338
-338
-339
-340
-340
-340
-339
-340
-340
-341
-342
-342
-342
-341
-342
-343
-343
-344
-343
-342
-342
-342
-343
-344
-345
-345
-344
-345
-346
-347
-348
-348
-347
-347
-348
-349
-350
-351
-351
-351
-350
-350
-351
-351
-352
-351
-351
-350
-350
-350
-350
-350
-349
-348
-348
-348
-349
-349
-348
-347
-346
-346
-347
-347
-347
-347
-346
-346
-347
-348
-349
-349
-349
-348
-348
-349
-350
-350
-350
-349
-348
-348
-348
-348
-348
-347
-345
-345
-344
-345
-344
-344
-342
-341
-341
-341
-342
-342
-342
-341
-340
-340
-341
-341
-341
-340
-339
-338
-339
-339
-339
-338
-337
-336
-336
-336
-336
-336
-335
-334
-333
-333
-334
-334
-334
-333
-332
-332
-333
-333
-334
-333
-332
-331
-331
-331
-331
-331
-330
-329
-328
-328
-328
-329
-328
-328
-327
-326
-327
-327
-328
-327
-327
-326
-327
-328
-329
-329
-329
-329
-329
-330
-331
-332
-333
-333
-333
-334
-336
-338
-340
-341
-342
-344
-346
-349
-352
-356
-358
-361
-363
-367
-371
-375
-378
-381
-384
-387
-392
-396
-400
-403
-405
-406
-409
-411
-413
-415
-415
-415
-415
-415
-415
-415
-414
-412
-410
-408
-406
-404
-402
-399
-395
-391
-388
-385
-382
-379
-374
-369
-364
-359
-355
-350
-345
-338
-332
-326
-319
-313
-305
-297
-288
-280
-272
-264
-257
-250
-242
-233
-226
-219
-214
-208
-203
-197
-192
-189
-186
-185
-185
-184
-184
-184
-186
-189
-192
-196
-199
-203
-206
-211
-217
-223
-228
-233
-237
-242
-247
-252
-257
-261
-264
-267
-270
-273
-276
-278
-279
-279
-279
-279
-279
-280
-279
-278
-276
-275
-274
-274
-273
-272
-270
-269
-269
-269
-269
-269
-269
-268
-268
-268
-270
-271
-271
-272
-272
-273
-275
-278
-280
-281
-282
-282
-283
-285
-287
-288
-289
-289
-290
-291
-292
-293
-294
-293
-293
-293
-294
-295
-296
-296
-296
-296
-296
-296
-297
-297
-297
-296
-296
-296
-296
-297
-297
-296
-296
-295
-296
-296
-297
-297
-297
-296
-297
-298
-299
-299
-298
-298
-297
-298
-298
-299
-299
-298
-297
-297
-297
-298
-298
-297
-297
-296
-296
-298
-299
-299
-299
-297
-296
-296
-296
-296
-296
-295
-294
-294
-294
-294
-294
-293
-292
-291
-290
-291
-291
-291
-290
-289
-289
-289
-290
-291
-291
-291
-290
-290
-290
-291
-291
-290
-289
-289
-288
-289
-290
-290
-290
-289
-288
-289
-289
-290
-291
-291
-291
-291
-292
-294
-295
-295
-294
-294
-295
-295
-296
-297
-296
-296
-295
-295
-295
-295
-294
-293
-292
-291
-292
-292
-293
-293
-292
-292
-293
-295
-296
-296
-296
-295
-294
-294
-294
-295
-295
-294
-293
-292
-292
-291
-290
-289
-287
-285
-283
-283
-282
-282
-280
-279
-278
-277
-278
-278
-278
-278
-278
-279
-280
-281
-282
-282
-282
-282
-282
-283
-285
-285
-285
-285
-285
-286
-287
-287
-288
-287
-286
-287
-287
-288
-289
-289
-289
-288
-289
-289
-290
-290
-290
-290
-289
-290
-290
-291
-290
-289
-288
-288
-288
-288
-288
-288
-287
-286
-285
-286
-286
-286
-285
-285
-284
-284
-285
-285
-285
-285
-284
-284
-285
-286
-287
-287
-287
-286
-286
-287
-288
-288
-287
-287
-286
-286
-287
-287
-287
-286
-285
-285
-286
-286
-287
-287
-286
-285
-285
-286
-287
-288
-288
-287
-287
-288
-288
-289
-289
-289
-288
-288
-289
-290
-291
-291
-291
-290
-291
-292
-293
-294
-294
-294
-293
-294
-295
-296
-296
-295
-295
-295
-296
-297
-298
-298
-297
-297
-297
-298
-298
-298
-298
-297
-297
-297
-298
-298
-298
-297
-297
-297
-297
-298
-299
-299
-298
-297
-297
-298
-299
-299
-298
-298
-297
-298
-298
-299
-298
-297
-296
-296
-297
-297
-297
-297
-296
-295
-295
-296
-296
-297
-297
-298
-298
-299
-300
-299
-298
-297
-296
-296
-297
-297
-298
-297
-296
-294
-293
-293
-292
-291
-289
-288
-286
-285
-285
-285
-284
-283
-282
-282
-283
-284
-284
-284
-284
-283
-284
-285
-286
-286
-286
-286
-285
-286
-286
-287
-287
-286
-286
-286
-287
-288
-288
-287
-286
-286
-286
-286
-287
-287
-286
-285
-285
-285
-286
-286
-285
-285
-284
-284
-284
-285
-285
-285
-285
-284
-284
-285
-286
-286
-285
-285
-284
-284
-285
-285
-285
-284
-283
-283
-283
-284
-284
-283
-282
-281
-281
-281
-282
-281
-281
-280
-279
-279
-279
-280
-279
-279
-278
-278
-279
-281
-282
-282
-282
-282
-283
-284
-285
-286
-286
-286
-287
-287
-289
-290
-290
-289
-289
-288
-289
-289
-289
-288
-287
-285
-285
-284
-284
-283
-282
-281
-280
-280
-280
-280
-280
-279
-278
-278
-278
-279
-280
-280
-279
-279
-279
-281
-282
-282
-282
-282
-282
-282
-283
-284
-284
-283
-282
-282
-283
-284
-284
-284
-283
-283
-283
-284
-285
-285
-284
-284
-283
-283
-284
-285
-285
-284
-283
-283
-283
-283
-283
-283
-282
-281
-281
-281
-282
-282
-281
-280
-279
-279
-280
-280
-280
-279
-279
-279
-279
-280
-280
-280
-278
-278
-278
-278
-278
-278
-278
-277
-277
-277
-277
-278
-277
-276
-276
-276
-276
-277
-277
-277
-276
-275
-275
-275
-276
-276
-275
-274
-273
-273
-273
-274
-273
-272
-271
-271
-271
-272
-272
-272
-272
-271
-272
-272
-273
-273
-273
-273
-273
-273
-274
-275
-275
-274
-273
-273
-273
-274
-274
-274
-273
-272
-273
-274
-275
-276
-275
-274
-273
-272
-273
-273
-272
-271
-270
-270
-270
-270
-269
-267
-266
-264
-263
-263
-262
-261
-259
-257
-256
-255
-255
-254
-254
-252
-251
-251
-251
-252
-252
-252
-251
-251
-252
-253
-253
-254
-253
-253
-253
-254
-256
-257
-257
-256
-256
-256
-257
-257
-258
-257
-256
-255
-255
-255
-254
-253
-252
-250
-248
-247
-247
-246
-245
-244
-242
-242
-241
-241
-241
-240
-239
-239
-239
-240
-241
-241
-241
-241
-241
-242
-242
-243
-243
-242
-241
-241
-242
-242
-242
-241
-239
-238
-237
-237
-236
-236
-234
-233
-232
-231
-231
-231
-231
-230
-229
-230
-231
-233
-234
-235
-235
-236
-238
-240
-242
-243
-244
-245
-246
-248
-250
-252
-253
-253
-253
-254
-255
-257
-257
-257
-257
-257
-257
-258
-259
-259
-259
-258
-258
-258
-258
-258
-258
-257
-256
-255
-256
-256
-256
-255
-254
-253
-252
-252
-252
-252
-251
-251
-250
-250
-251
-251
-250
-250
-249
-249
-250
-250
-250
-250
-249
-248
-248
-249
-249
-249
-248
-248
-247
-248
-248
-249
-248
-247
-246
-246
-247
-248
-249
-249
-249
-248
-249
-250
-251
-251
-251
-251
-250
-251
-251
-252
-252
-251
-250
-250
-251
-251
-251
-250
-249
-248
-247
-248
-248
-247
-246
-245
-245
-244
-245
-245
-244
-243
-242
-242
-242
-242
-243
-242
-241
-240
-240
-241
-241
-241
-241
-240
-240
-240
-240
-240
-239
-237
-236
-235
-235
-235
-234
-233
-231
-230
-230
-231
-231
-231
-231
-231
-232
-233
-235
-238
-239
-241
-243
-246
-249
-253
-256
-259
-261
-264
-268
-272
-276
-280
-283
-286
-288
-292
-296
-299
-302
-304
-306
-309
-312
-316
-318
-320
-321
-322
-323
-325
-326
-327
-326
-325
-324
-323
-322
-321
-319
-316
-313
-310
-308
-306
-303
-299
-295
-291
-288
-285
-281
-276
-271
-265
-260
-254
-249
-243
-235
-228
-220
-213
-206
-199
-191
-183
-175
-166
-159
-152
-145
-138
-130
-124
-118
-113
-110
-106
-103
-99
-97
-95
-95
-95
-95
-96
-96
-97
-99
-102
-106
-109
-112
-115
-119
-124
-130
-135
-139
-143
-147
-152
-157
-163
-167
-171
-174
-178
-181
-185
-189
-191
-192
-193
-194
-195
-196
-196
-196
-194
-194
-193
-193
-193
-192
-191
-189
-188
-187
-187
-187
-186
-186
-185
-185
-185
-186
-187
-187
-187
-187
-188
-190
-191
-192
-192
-192
-192
-193
-194
-195
-196
-196
-196
-196
-197
-198
-199
-200
-199
-199
-200
-201
-203
-204
-205
-205
-206
-208
-210
-212
-213
-213
-213
-213
-214
-215
-215
-215
-215
-214
-214
-215
-215
-215
-214
-212
-211
-210
-210
-209
-208
-207
-205
-204
-204
-204
-205
-205
-204
-203
-202
-202
-202
-202
-202
-201
-201
-201
-202
-203
-204
-203
-203
-203
-203
-203
-203
-203
-202
-202
-202
-204
-205
-205
-205
-204
-204
-204
-204
-205
-205
-204
-203
-203
-204
-205
-205
-205
-203
-202
-202
-202
-203
-202
-202
-201
-200
-201
-202
-203
-203
-202
-202
-201
-201
-202
-202
-201
-199
-198
-197
-197
-197
-197
-196
-195
-195
-195
-195
-195
-195
-193
-192
-191
-191
-192
-192
-192
-191
-190
-191
-192
-193
-194
-194
-193
-193
-194
-195
-196
-196
-196
-196
-196
-196
-197
-198
-197
-196
-196
-196
-197
-198
-198
-198
-196
-196
-196
-196
-197
-196
-196
-195
-194
-194
-194
-194
-193
-192
-190
-190
-190
-191
-190
-189
-188
-187
-187
-187
-188
-188
-187
-186
-185
-185
-185
-185
-184
-183
-182
-182
-182
-183
-183
-182
-180
-179
-179
-179
-179
-179
-178
-177
-177
-177
-178
-178
-178
-177
-176
-176
-177
-179
-179
-179
-179
-179
-179
-180
-181
-182
-181
-181
-181
-181
-182
-183
-183
-184
-184
-186
-188
-190
-190
-189
-188
-187
-187
-188
-189
-189
-189
-189
-189
-189
-190
-190
-189
-187
-186
-186
-186
-187
-187
-186
-186
-185
-185
-186
-187
-187
-187
-186
-186
-187
-188
-188
-188
-187
-186
-187
-187
-188
-189
-188
-188
-188
-188
-189
-190
-190
-189
-188
-188
-188
-189
-189
-189
-188
-187
-187
-188
-188
-188
-188
-187
-186
-186
-187
-188
-187
-186
-185
-184
-184
-185
-184
-184
-182
-182
-182
-183
-184
-184
-184
-183
-183
-184
-185
-186
-187
-187
-187
-188
-189
-191
-192
-192
-192
-192
-193
-194
-195
-195
-195
-193
-193
-193
-193
-193
-193
-191
-190
-189
-189
-189
-189
-188
-187
-186
-186
-187
-187
-187
-186
-185
-185
-185
-186
-186
-186
-186
-185
-185
-185
-186
-186
-185
-184
-184
-184
-185
-186
-186
-185
-184
-184
-185
-185
-186
-186
-185
-184
-184
-185
-185
-186
-185
-184
-183
-183
-184
-184
-184
-183
-182
-181
-181
-181
-182
-181
-180
-179
-178
-178
-179
-178
-177
-176
-175
-174
-175
-176
-176
-176
-175
-174
-174
-175
-175
-175
-175
-175
-175
-176
-178
-179
-180
-180
-181
-183
-185
-186
-186
-186
-185
-185
-186
-187
-188
-188
-188
-187
-186
-186
-186
-185
-184
-182
-180
-179
-180
-180
-180
-179
-178
-178
-178
-179
-180
-180
-179
-179
-179
-180
-181
-181
-181
-180
-180
-181
-182
-183
-183
-182
-181
-180
-181
-181
-182
-182
-181
-180
-180
-180
-181
-181
-180
-179
-178
-178
-179
-180
-180
-180
-178
-178
-178
-179
-180
-180
-180
-180
-180
-180
-181
-182
-181
-181
-180
-181
-182
-183
-184
-183
-183
-182
-183
-184
-184
-184
-183
-182
-182
-182
-183
-184
-184
-183
-183
-183
-184
-185
-186
-186
-185
-185
-186
-187
-189
-189
-188
-188
-188
-188
-189
-189
-188
-187
-187
-187
-188
-189
-189
-188
-187
-187
-187
-188
-189
-189
-188
-188
-188
-188
-189
-190
-189
-189
-188
-189
-190
-190
-191
-190
-189
-189
-189
-190
-191
-191
-190
-190
-190
-190
-191
-192
-191
-190
-190
-190
-191
-191
-191
-191
-190
-189
-189
-190
-190
-190
-189
-188
-187
-188
-188
-188
-188
-186
-186
-186
-187
-188
-188
-187
-187
-186
-187
-188
-189
-189
-188
-188
-188
-188
-189
-189
-189
-188
-187
-187
-188
-189
-189
-188
-187
-187
-188
-188
-189
-189
-188
-187
-187
-187
-188
-188
-188
-187
-186
-187
-187
-188
-188
-188
-187
-186
-187
-187
-188
-188
-187
-187
-187
-187
-188
-188
-188
-187
-186
-187
-188
-189
-189
-188
-187
-187
-188
-188
-189
-189
-188
-187
-187
-187
-187
-187
-186
-185
-184
-184
-185
-185
-185
-184
-182
-181
-181
-181
-181
-180
-178
-177
-176
-175
-175
-175
-173
-172
-170
-170
-170
-170
-169
-168
-167
-166
-166
-167
-167
-167
-166
-166
-166
-167
-168
-169
-170
-169
-170
-171
-173
-175
-177
-178
-178
-179
-181
-183
-185
-186
-186
-186
-187
-188
-190
-190
-190
-189
-189
-190
-191
-192
-192
-191
-190
-189
-190
-190
-190
-190
-188
-187
-186
-186
-186
-186
-185
-183
-182
-182
-182
-183
-182
-181
-179
-178
-178
-179
-179
-179
-179
-178
-178
-179
-180
-180
-180
-179
-179
-180
-181
-182
-183
-183
-182
-182
-183
-185
-186
-186
-185
-185
-185
-185
-186
-186
-186
-185
-184
-185
-186
-187
-187
-186
-185
-185
-185
-186
-187
-186
-186
-185
-185
-185
-186
-186
-185
-183
-182
-183
-183
-183
-183
-182
-181
-181
-181
-182
-182
-182
-181
-180
-180
-180
-181
-182
-181
-180
-180
-180
-181
-182
-182
-182
-181
-180
-181
-182
-182
-182
-181
-181
-180
-181
-181
-182
-181
-180
-179
-180
-180
-181
-181
-180
-179
-179
-180
-181
-182
-183
-183
-183
-184
-185
-188
-189
-190
-192
-193
-196
-200
-204
-207
-209
-212
-215
-219
-224
-228
-231
-234
-237
-241
-245
-248
-251
-253
-254
-256
-258
-261
-263
-264
-264
-263
-262
-262
-263
-262
-261
-259
-257
-255
-253
-252
-250
-246
-243
-239
-237
-234
-232
-228
-223
-218
-213
-208
-204
-199
-192
-185
-177
-170
-163
-156
-149
-140
-131
-123
-115
-108
-101
-93
-85
-77
-70
-65
-60
-56
-51
-47
-43
-40
-39
-38
-38
-37
-37
-37
-39
-42
-46
-49
-51
-54
-57
-62
-68
-74
-79
-83
-87
-91
-96
-101
-105
-108
-111
-114
-117
-121
-124
-126
-126
-126
-126
-127
-128
-128
-126
-125
-123
-121
-121
-120
-119
-117
-115
-114
-114
-114
-114
-114
-113
-112
-112
-114
-116
-118
-119
-120
-121
-123
-126
-129
-131
-132
-134
-135
-138
-141
-144
-145
-146
-147
-148
-150
-151
-152
-152
-152
-151
-151
-152
-152
-152
-151
-149
-148
-148
-148
-148
-148
-146
-145
-144
-145
-145
-145
-144
-143
-142
-142
-142
-143
-143
-142
-142
-142
-142
-144
-145
-145
-145
-144
-145
-147
-149
-151
-152
-152
-152
-152
-152
-153
-154
-154
-153
-154
-155
-156
-156
-156
-155
-153
-152
-151
-152
-151
-150
-149
-148
-147
-147
-147
-147
-146
-145
-144
-145
-146
-147
-147
-146
-145
-145
-146
-147
-147
-147
-146
-146
-146
-146
-147
-147
-146
-145
-145
-145
-146
-146
-146
-145
-144
-143
-144
-145
-145
-145
-144
-143
-143
-144
-145
-145
-145
-144
-144
-144
-146
-147
-147
-146
-146
-146
-147
-148
-149
-148
-148
-147
-147
-148
-149
-150
-149
-148
-148
-149
-150
-151
-151
-150
-150
-150
-151
-152
-153
-153
-152
-152
-152
-153
-153
-153
-153
-152
-151
-151
-152
-152
-152
-150
-149
-148
-148
-149
-149
-148
-146
-145
-144
-145
-145
-145
-144
-143
-142
-142
-143
-143
-143
-142
-142
-142
-143
-144
-145
-145
-144
-144
-144
-145
-146
-146
-145
-145
-145
-146
-147
-148
-148
-147
-146
-146
-147
-147
-147
-146
-145
-144
-144
-144
-145
-145
-144
-143
-142
-143
-144
-144
-144
-143
-143
-143
-143
-145
-145
-145
-145
-144
-145
-146
-147
-147
-147
-146
-145
-146
-147
-147
-147
-146
-145
-144
-145
-145
-146
-145
-144
-143
-143
-144
-145
-145
-145
-144
-144
-145
-146
-147
-147
-146
-146
-146
-147
-149
-150
-150
-150
-150
-150
-151
-152
-153
-152
-152
-152
-153
-154
-155
-155
-155
-155
-155
-156
-157
-158
-158
-157
-156
-156
-157
-158
-158
-157
-156
-156
-156
-157
-158
-158
-157
-156
-155
-156
-157
-157
-156
-155
-155
-154
-155
-155
-155
-154
-154
-154
-155
-157
-158
-159
-158
-156
-156
-156
-157
-158
-158
-157
-156
-156
-156
-156
-156
-154
-152
-151
-151
-151
-150
-150
-148
-146
-145
-145
-146
-146
-145
-144
-144
-144
-145
-146
-146
-145
-145
-145
-146
-147
-148
-148
-147
-147
-147
-147
-148
-149
-148
-147
-146
-146
-146
-146
-146
-144
-143
-142
-142
-142
-142
-142
-140
-139
-138
-138
-139
-139
-138
-137
-137
-137
-138
-139
-139
-138
-138
-138
-140
-141
-142
-143
-143
-143
-143
-145
-146
-147
-147
-147
-147
-147
-148
-149
-149
-148
-147
-147
-147
-148
-148
-148
-147
-145
-145
-145
-145
-145
-144
-143
-142
-142
-142
-142
-142
-141
-140
-139
-139
-140
-140
-140
-139
-138
-137
-138
-139
-139
-139
-138
-138
-138
-139
-139
-140
-139
-139
-139
-139
-141
-141
-142
-141
-141
-141
-142
-143
-143
-143
-143
-143
-143
-144
-145
-145
-144
-144
-144
-144
-145
-146
-146
-146
-145
-145
-145
-146
-146
-146
-145
-145
-145
-146
-146
-146
-145
-144
-144
-144
-145
-145
-145
-145
-144
-144
-144
-145
-145
-145
-144
-144
-144
-144
-145
-145
-145
-144
-144
-144
-145
-146
-146
-145
-144
-144
-145
-145
-146
-145
-145
-144
-144
-145
-145
-145
-144
-143
-143
-143
-143
-143
-143
-141
-140
-140
-141
-141
-141
-141
-140
-140
-140
-141
-142
-142
-141
-141
-141
-142
-144
-145
-145
-145
-145
-145
-146
-147
-147
-147
-146
-146
-146
-146
-147
-147
-146
-145
-145
-146
-146
-147
-147
-146
-145
-146
-146
-147
-148
-148
-147
-146
-147
-147
-148
-148
-147
-147
-147
-147
-148
-148
-148
-147
-146
-146
-146
-146
-146
-145
-144
-143
-142
-142
-142
-142
-141
-139
-139
-138
-139
-138
-137
-136
-135
-134
-135
-135
-135
-134
-133
-132
-132
-132
-132
-131
-130
-129
-129
-130
-130
-131
-130
-130
-130
-131
-132
-134
-135
-135
-135
-135
-135
-137
-138
-138
-138
-138
-138
-139
-141
-142
-142
-141
-140
-140
-141
-142
-142
-142
-141
-141
-141
-142
-143
-143
-142
-141
-141
-141
-142
-142
-141
-139
-138
-137
-138
-138
-137
-136
-134
-133
-131
-131
-131
-129
-128
-126
-125
-124
-125
-124
-124
-122
-121
-121
-121
-122
-122
-121
-120
-119
-119
-120
-120
-120
-119
-118
-118
-119
-120
-121
-120
-119
-118
-118
-118
-119
-119
-118
-117
-117
-117
-118
-120
-121
-122
-123
-124
-127
-129
-132
-134
-135
-136
-138
-142
-145
-148
-150
-151
-152
-153
-155
-157
-157
-156
-155
-154
-154
-155
-154
-153
-151
-149
-148
-148
-148
-147
-146
-144
-143
-142
-142
-142
-142
-140
-139
-139
-139
-140
-140
-140
-139
-138
-138
-139
-139
-139
-139
-138
-138
-138
-139
-140
-140
-139
-138
-138
-139
-140
-141
-141
-140
-139
-139
-140
-140
-140
-140
-139
-138
-138
-139
-139
-139
-137
-136
-135
-135
-136
-136
-136
-135
-133
-133
-133
-134
-134
-133
-131
-131
-130
-131
-131
-131
-130
-129
-128
-129
-130
-131
-131
-130
-129
-130
-131
-133
-133
-133
-133
-133
-133
-135
-136
-135
-134
-133
-133
-134
-135
-136
-136
-134
-133
-133
-133
-134
-133
-132
-131
-130
-131
-131
-132
-133
-132
-131
-132
-133
-135
-137
-138
-138
-138
-140
-142
-145
-147
-149
-151
-153
-156
-159
-163
-166
-167
-169
-172
-176
-181
-185
-188
-191
-193
-197
-201
-205
-208
-210
-211
-212
-214
-216
-218
-219
-218
-217
-216
-216
-216
-215
-213
-210
-207
-205
-203
-201
-198
-194
-190
-185
-181
-178
-174
-169
-163
-156
-150
-145
-139
-133
-125
-116
-107
-99
-91
-83
-75
-66
-57
-48
-40
-33
-27
-20
-12
-6
-1
2
4
6
8
11
12
12
11
9
7
6
4
1
-1
-6
-11
-14
-18
-21
-26
-31
-37
-42
-46
-49
-53
-56
-61
-65
-68
-69
-70
-71
-73
-74
-75
-75
-74
-73
-72
-72
-72
-71
-70
-68
-66
-65
-65
-66
-65
-64
-63
-62
-63
-64
-65
-66
-66
-65
-66
-68
-70
-71
-72
-73
-73
-75
-78
-80
-82
-84
-85
-86
-88
-90
-92
-94
-95
-95
-96
-98
-101
-102
-103
-102
-102
-103
-105
-106
-106
-105
-104
-104
-103
-104
-104
-104
-102
-101
-101
-102
-103
-103
-102
-101
-100
-100
-101
-102
-102
-102
-101
-101
-101
-102
-103
-103
-101
-100
-100
-101
-101
-101
-100
-99
-97
-97
-97
-97
-97
-97
-97
-97
-98
-98
-99
-98
-97
-96
-97
-98
-100
-102
-102
-102
-102
-103
-104
-106
-106
-106
-106
-106
-106
-108
-109
-109
-108
-108
-108
-109
-110
-111
-111
-110
-109
-109
-110
-111
-111
-110
-109
-108
-108
-108
-109
-108
-107
-106
-105
-106
-106
-106
-106
-105
-104
-104
-104
-105
-105
-104
-103
-103
-103
-103
-104
-104
-103
-102
-102
-102
-103
-104
-103
-102
-101
-100
-101
-101
-101
-101
-100
-99
-99
-99
-100
-100
-99
-98
-99
-100
-101
-101
-101
-100
-100
-100
-102
-103
-103
-103
-103
-102
-102
-103
-103
-102
-101
-100
-100
-101
-101
-102
-101
-100
-100
-100
-101
-102
-102
-102
-102
-102
-102
-104
-105
-105
-105
-104
-105
-105
-106
-107
-107
-106
-105
-105
-106
-106
-106
-105
-104
-104
-104
-104
-105
-104
-103
-102
-102
-103
-104
-104
-104
-103
-102
-102
-102
-103
-103
-102
-101
-100
-100
-101
-101
-101
-100
-98
-98
-98
-99
-99
-99
-98
-97
-97
-98
-98
-99
-98
-98
-98
-98
-99
-100
-100
-99
-99
-100
-101
-103
-104
-104
-103
-103
-103
-104
-105
-105
-104
-103
-103
-103
-104
-105
-104
-103
-102
-102
-103
-104
-104
-104
-103
-103
-103
-104
-105
-106
-105
-105
-104
-105
-106
-107
-107
-106
-106
-106
-108
-109
-110
-110
-110
-110
-111
-113
-114
-115
-116
-116
-116
-118
-119
-120
-121
-120
-120
-120
-121
-122
-122
-121
-120
-118
-118
-118
-118
-118
-116
-115
-113
-112
-112
-112
-111
-109
-107
-106
-107
-107
-107
-106
-104
-103
-103
-104
-104
-104
-104
-103
-103
-104
-105
-106
-107
-107
-107
-109
-112
-114
-115
-116
-115
-114
-115
-117
-118
-119
-118
-117
-117
-116
-117
-117
-115
-113
-111
-109
-109
-109
-108
-106
-103
-101
-100
-99
-99
-99
-98
-96
-95
-95
-95
-96
-95
-94
-94
-94
-96
-98
-99
-99
-99
-100
-101
-103
-104
-105
-105
-105
-105
-106
-107
-108
-107
-106
-105
-105
-106
-107
-107
-106
-104
-103
-102
-103
-103
-103
-102
-100
-99
-99
-99
-99
-98
-96
-95
-95
-95
-96
-96
-95
-93
-92
-92
-93
-94
-94
-93
-93
-93
-93
-95
-95
-95
-94
-93
-94
-95
-97
-98
-98
-98
-98
-99
-101
-102
-103
-103
-102
-103
-104
-105
-106
-107
-106
-106
-106
-107
-108
-108
-108
-106
-105
-105
-106
-107
-106
-105
-104
-104
-104
-104
-104
-104
-102
-101
-101
-102
-103
-103
-102
-101
-101
-101
-102
-103
-103
-102
-102
-102
-102
-103
-104
-104
-104
-103
-104
-105
-107
-107
-107
-106
-106
-106
-107
-108
-109
-108
-108
-109
-110
-111
-112
-111
-110
-108
-107
-108
-109
-109
-108
-107
-106
-106
-106
-106
-105
-103
-102
-101
-100
-101
-101
-101
-100
-99
-100
-101
-102
-103
-103
-103
-103
-104
-106
-107
-108
-108
-107
-107
-107
-108
-109
-109
-108
-107
-107
-107
-108
-108
-107
-106
-105
-106
-107
-108
-108
-107
-106
-106
-106
-107
-108
-108
-107
-106
-106
-107
-108
-109
-108
-107
-107
-107
-108
-108
-108
-108
-107
-106
-106
-107
-108
-107
-106
-106
-106
-106
-107
-108
-107
-106
-105
-105
-106
-107
-107
-106
-105
-104
-104
-105
-106
-105
-104
-104
-104
-105
-106
-107
-107
-106
-105
-106
-107
-108
-109
-108
-107
-107
-108
-109
-110
-110
-109
-108
-109
-110
-111
-112
-112
-111
-111
-111
-112
-113
-113
-113
-112
-112
-113
-114
-114
-114
-113
-112
-112
-113
-114
-114
-113
-112
-111
-111
-112
-113
-113
-112
-111
-110
-110
-110
-110
-109
-107
-106
-105
-105
-106
-105
-103
-102
-100
-100
-100
-100
-100
-98
-97
-97
-97
-98
-98
-97
-96
-95
-95
-96
-98
-98
-98
-97
-97
-97
-98
-99
-99
-98
-98
-98
-98
-99
-100
-100
-99
-99
-100
-102
-104
-105
-106
-106
-106
-108
-110
-111
-112
-113
-113
-114
-116
-118
-119
-120
-119
-119
-120
-122
-123
-123
-123
-122
-121
-121
-121
-121
-121
-119
-118
-117
-117
-117
-117
-116
-114
-113
-113
-114
-115
-115
-115
-115
-115
-116
-118
-119
-120
-119
-119
-120
-121
-122
-124
-124
-123
-123
-123
-124
-125
-125
-124
-123
-122
-122
-123
-124
-124
-123
-122
-121
-121
-122
-122
-121
-120
-119
-119
-120
-121
-121
-121
-120
-119
-119
-120
-120
-120
-118
-117
-116
-116
-116
-116
-115
-113
-112
-111
-112
-112
-112
-111
-110
-109
-109
-110
-111
-111
-111
-111
-111
-112
-114
-115
-115
-115
-115
-115
-117
-118
-118
-118
-117
-116
-117
-117
-118
-117
-116
-114
-113
-113
-113
-112
-111
-109
-107
-107
-107
-108
-108
-107
-106
-105
-106
-107
-108
-109
-109
-110
-111
-113
-115
-118
-119
-120
-122
-125
-129
-133
-137
-140
-142
-146
-150
-155
-159
-163
-166
-169
-173
-177
-181
-185
-187
-189
-191
-194
-197
-200
-201
-201
-200
-200
-200
-200
-200
-199
-197
-195
-193
-192
-192
-191
-189
-186
-183
-180
-177
-174
-171
-166
-161
-156
-151
-147
-142
-135
-127
-119
-111
-102
-95
-86
-76
-66
-56
-47
-39
-32
-24
-16
-7
0
5
10
14
19
23
27
29
30
30
30
30
30
30
27
24
20
16
13
10
6
1
-4
-9
-13
-17
-21
-25
-29
-34
-38
-41
-43
-45
-47
-50
-52
-54
-54
-54
-53
-54
-55
-55
-55
-53
-52
-51
-51
-51
-51
-50
-49
-48
-48
-50
-51
-52
-52
-52
-53
-55
-57
-59
-61
-62
-63
-65
-68
-71
-75
-77
-78
-79
-81
-83
-85
-87
-88
-88
-88
-89
-91
-92
-92
-91
-90
-89
-89
-89
-89
-87
-85
-84
-84
-84
-85
-84
-83
-82
-81
-80
-81
-81
-80
-79
-78
-77
-77
-77
-77
-76
-75
-74
-75
-76
-78
-79
-80
-80
-81
-83
-85
-88
-89
-90
-91
-92
-94
-96
-98
-98
-98
-98
-99
-100
-101
-101
-100
-98
-97
-97
-97
-97
-96
-94
-92
-91
-91
-92
-92
-91
-90
-89
-90
-90
-91
-91
-91
-90
-89
-89
-90
-90
-89
-88
-87
-86
-87
-88
-88
-87
-86
-85
-85
-86
-87
-88
-87
-86
-85
-86
-87
-88
-88
-88
-87
-88
-88
-89
-90
-89
-88
-87
-87
-87
-88
-88
-88
-87
-88
-89
-91
-93
-95
-95
-95
-95
-95
-97
-97
-97
-96
-96
-97
-97
-98
-97
-96
-94
-92
-91
-91
-90
-89
-87
-85
-84
-83
-84
-84
-83
-82
-82
-83
-84
-85
-85
-85
-84
-85
-85
-86
-87
-87
-86
-86
-85
-86
-86
-87
-87
-86
-86
-87
-88
-89
-89
-89
-88
-89
-90
-91
-92
-93
-92
-92
-93
-94
-94
-95
-94
-93
-92
-92
-92
-92
-91
-90
-88
-88
-87
-88
-87
-87
-86
-85
-85
-85
-85
-85
-85
-84
-84
-84
-84
-85
-84
-84
-83
-82
-82
-82
-82
-81
-79
-78
-77
-77
-78
-78
-77
-76
-76
-76
-77
-77
-78
-77
-77
-77
-78
-79
-79
-79
-79
-78
-78
-78
-78
-78
-76
-75
-74
-74
-75
-75
-76
-76
-76
-76
-78
-80
-82
-83
-85
-86
-89
-92
-95
-99
-102
-105
-108
-111
-115
-117
-119
-119
-119
-119
-120
-121
-120
-119
-117
-115
-112
-110
-108
-105
-102
-98
-95
-92
-91
-89
-87
-84
-82
-81
-81
-81
-81
-81
-80
-80
-80
-81
-82
-83
-84
-85
-86
-87
-90
-92
-94
-95
-96
-98
-101
-104
-106
-109
-111
-113
-115
-118
-120
-122
-123
-124
-125
-127
-128
-129
-129
-128
-127
-126
-126
-126
-125
-123
-121
-119
-118
-117
-116
-114
-113
-111
-109
-109
-109
-109
-109
-108
-107
-106
-106
-106
-106
-106
-105
-104
-104
-104
-105
-105
-104
-103
-102
-102
-103
-103
-103
-102
-101
-101
-102
-103
-104
-104
-104
-103
-103
-103
-104
-103
-102
-101
-99
-99
-99
-99
-98
-97
-95
-95
-95
-96
-97
-97
-96
-96
-96
-97
-98
-99
-99
-98
-99
-100
-101
-103
-104
-104
-104
-104
-104
-105
-105
-105
-104
-103
-103
-103
-104
-104
-103
-102
-101
-101
-102
-103
-103
-102
-100
-99
-99
-99
-99
-98
-96
-95
-95
-95
-95
-95
-94
-94
-93
-94
-96
-98
-99
-99
-99
-99
-100
-102
-103
-104
-104
-104
-105
-105
-106
-106
-104
-103
-101
-101
-101
-101
-100
-99
-97
-96
-96
-97
-97
-97
-96
-95
-95
-95
-96
-96
-95
-94
-94
-95
-96
-97
-98
-97
-97
-97
-98
-99
-100
-101
-100
-100
-101
-102
-103
-104
-104
-103
-103
-104
-105
-106
-106
-106
-105
-105
-105
-106
-106
-105
-104
-102
-102
-102
-103
-103
-102
-101
-101
-102
-103
-104
-104
-104
-103
-103
-105
-106
-107
-108
-108
-108
-108
-109
-111
-111
-111
-110
-110
-110
-111
-112
-112
-111
-110
-110
-111
-111
-112
-111
-110
-109
-108
-108
-109
-109
-108
-107
-106
-107
-108
-108
-108
-107
-106
-106
-107
-108
-109
-109
-108
-108
-108
-109
-110
-110
-110
-109
-108
-109
-110
-111
-111
-111
-110
-110
-110
-111
-112
-112
-111
-110
-110
-111
-112
-112
-111
-110
-109
-109
-110
-111
-111
-109
-108
-107
-108
-108
-108
-108
-107
-105
-105
-106
-106
-106
-106
-104
-104
-104
-105
-106
-106
-106
-105
-105
-105
-106
-107
-106
-105
-105
-104
-105
-105
-105
-104
-103
-102
-103
-104
-105
-105
-104
-102
-102
-103
-103
-104
-103
-102
-102
-101
-102
-102
-102
-100
-99
-98
-98
-98
-98
-97
-96
-94
-93
-93
-93
-93
-92
-91
-89
-88
-88
-89
-88
-87
-86
-85
-85
-86
-86
-86
-85
-84
-84
-85
-86
-87
-86
-86
-86
-86
-88
-90
-91
-92
-92
-93
-95
-97
-99
-100
-101
-101
-101
-103
-105
-106
-106
-105
-105
-105
-105
-106
-106
-105
-104
-104
-104
-105
-105
-105
-104
-103
-103
-104
-105
-106
-106
-105
-105
-106
-107
-108
-108
-108
-107
-106
-107
-107
-108
-108
-107
-106
-105
-105
-106
-105
-105
-104
-103
-102
-103
-103
-103
-103
-102
-102
-103
-105
-107
-108
-108
-108
-107
-107
-108
-108
-108
-107
-106
-106
-106
-106
-105
-104
-102
-101
-101
-101
-101
-100
-99
-97
-96
-96
-96
-95
-94
-93
-93
-93
-93
-93
-92
-91
-89
-88
-88
-88
-87
-86
-85
-84
-83
-83
-83
-83
-82
-81
-80
-79
-80
-80
-80
-79
-78
-78
-78
-79
-80
-81
-80
-80
-80
-81
-82
-83
-83
-84
-84
-85
-87
-88
-89
-89
-89
-90
-91
-92
-93
-94
-93
-93
-94
-95
-96
-98
-98
-98
-99
-100
-102
-104
-105
-106
-107
-109
-112
-115
-118
-121
-124
-126
-129
-133
-137
-141
-144
-147
-149
-153
-156
-160
-163
-166
-168
-170
-173
-176
-178
-179
-180
-180
-180
-181
-181
-181
-180
-178
-177
-175
-174
-172
-170
-166
-163
-159
-156
-153
-150
-146
-141
-136
-130
-126
-121
-115
-109
-102
-95
-87
-80
-73
-65
-57
-48
-40
-32
-24
-16
-8
0
7
14
20
25
30
34
39
43
45
47
47
48
49
49
48
45
42
39
36
32
29
25
19
14
9
4
0
-4
-8
-13
-18
-22
-25
-27
-30
-33
-36
-38
-40
-40
-40
-40
-41
-41
-41
-40
-38
-37
-36
-35
-35
-34
-33
-32
-31
-31
-32
-33
-33
-33
-33
-35
-37
-40
-41
-42
-42
-42
-43
-45
-47
-49
-49
-50
-51
-52
-54
-55
-55
-55
-54
-55
-56
-56
-57
-57
-56
-56
-56
-57
-57
-57
-57
-56
-56
-57
-59
-60
-60
-59
-59
-59
-60
-61
-62
-62
-62
-63
-64
-65
-67
-67
-67
-67
-68
-69
-70
-71
-72
-71
-71
-72
-73
-75
-75
-75
-75
-74
-74
-75
-75
-75
-73
-72
-72
-72
-72
-72
-71
-70
-68
-68
-68
-67
-67
-66
-64
-64
-63
-64
-64
-64
-63
-62
-62
-62
-62
-63
-63
-62
-61
-61
-61
-62
-62
-62
-61
-60
-60
-61
-61
-61
-61
-60
-59
-60
-60
-61
-61
-60
-59
-59
-59
-60
-60
-59
-58
-58
-58
-59
-59
-59
-59
-58
-58
-58
-59
-60
-60
-59
-59
-59
-60
-61
-61
-60
-60
-59
-59
-59
-60
-60
-59
-58
-58
-58
-59
-59
-58
-58
-57
-57
-57
-58
-58
-58
-57
-57
-57
-57
-58
-58
-57
-56
-56
-57
-58
-58
-58
-57
-56
-56
-57
-58
-58
-58
-57
-57
-57
-58
-58
-58
-58
-57
-57
-57
-58
-58
-58
-58
-57
-56
-57
-57
-57
-56
-55
-55
-54
-54
-55
-54
-53
-52
-52
-52
-53
-53
-53
-52
-52
-53
-55
-57
-57
-57
-56
-55
-56
-56
-57
-58
-57
-57
-56
-56
-57
-57
-56
-54
-53
-52
-52
-52
-51
-50
-49
-48
-48
-48
-49
-49
-48
-47
-47
-48
-49
-49
-49
-49
-48
-49
-50
-50
-51
-51
-50
-50
-50
-51
-52
-52
-51
-51
-50
-51
-52
-52
-52
-51
-51
-51
-52
-52
-52
-52
-51
-51
-51
-52
-52
-52
-52
-51
-51
-52
-52
-53
-52
-52
-51
-51
-52
-53
-54
-54
-53
-53
-54
-55
-56
-56
-56
-57
-57
-58
-60
-61
-61
-61
-62
-62
-64
-65
-66
-66
-65
-65
-65
-66
-66
-66
-65
-64
-64
-64
-64
-64
-64
-63
-62
-61
-62
-62
-62
-61
-60
-59
-59
-59
-59
-59
-58
-57
-56
-56
-57
-57
-56
-55
-54
-54
-54
-54
-54
-53
-52
-52
-52
-52
-53
-52
-52
-51
-51
-51
-52
-53
-52
-52
-51
-51
-52
-53
-53
-53
-52
-52
-52
-52
-53
-53
-52
-51
-51
-51
-52
-52
-52
-51
-50
-50
-50
-51
-51
-50
-49
-49
-49
-49
-49
-49
-48
-47
-46
-47
-47
-47
-47
-46
-46
-46
-46
-47
-47
-46
-45
-45
-45
-45
-46
-45
-45
-44
-43
-44
-44
-45
-44
-43
-43
-42
-43
-43
-43
-43
-42
-42
-42
-42
-43
-43
-42
-41
-41
-42
-42
-43
-43
-42
-41
-41
-42
-43
-43
-42
-42
-41
-41
-42
-42
-42
-41
-40
-40
-41
-41
-42
-41
-41
-40
-40
-40
-41
-41
-41
-40
-40
-40
-41
-42
-41
-41
-40
-40
-41
-42
-42
-42
-42
-41
-41
-42
-43
-43
-42
-42
-42
-42
-43
-43
-43
-42
-41
-41
-41
-42
-42
-42
-41
-41
-40
-41
-41
-41
-41
-41
-40
-41
-42
-42
-42
-42
-41
-41
-42
-43
-43
-43
-43
-42
-42
-43
-44
-44
-43
-42
-42
-42
-42
-42
-42
-41
-40
-40
-40
-41
-41
-41
-40
-39
-39
-40
-41
-41
-40
-40
-39
-39
-39
-40
-39
-38
-38
-37
-38
-39
-39
-39
-38
-38
-38
-39
-39
-40
-39
-39
-39
-40
-41
-41
-41
-41
-40
-40
-41
-42
-42
-42
-41
-41
-42
-43
-44
-45
-45
-44
-43
-43
-43
-43
-43
-42
-41
-41
-41
-41
-41
-40
-39
-37
-36
-36
-36
-36
-35
-34
-33
-33
-33
-34
-33
-33
-32
-32
-33
-33
-34
-34
-33
-33
-33
-33
-34
-34
-33
-33
-32
-33
-33
-34
-33
-32
-32
-31
-32
-32
-33
-32
-32
-31
-31
-32
-32
-32
-32
-31
-30
-30
-30
-31
-30
-29
-28
-28
-28
-29
-29
-28
-28
-27
-27
-28
-28
-29
-28
-28
-28
-28
-29
-29
-29
-29
-28
-28
-29
-30
-30
-29
-28
-27
-26
-26
-26
-25
-24
-23
-21
-21
-21
-20
-19
-18
-16
-15
-15
-15
-15
-15
-13
-13
-13
-13
-14
-14
-14
-14
-14
-14
-15
-16
-16
-15
-15
-16
-18
-19
-21
-21
-22
-22
-23
-24
-26
-26
-27
-27
-28
-29
-30
-32
-32
-32
-32
-33
-34
-35
-35
-35
-35
-34
-35
-35
-36
-36
-36
-35
-35
-35
-35
-36
-35
-34
-34
-34
-34
-35
-35
-35
-34
-33
-33
-34
-34
-34
-34
-33
-33
-33
-33
-34
-33
-32
-31
-31
-32
-32
-33
-32
-31
-31
-31
-32
-32
-32
-32
-31
-30
-30
-31
-31
-30
-29
-28
-28
-29
-29
-29
-29
-28
-27
-28
-28
-29
-29
-29
-29
-29
-29
-30
-31
-31
-30
-30
-30
-31
-32
-32
-32
-31
-30
-30
-31
-31
-30
-30
-29
-28
-28
-28
-29
-28
-27
-26
-26
-26
-27
-27
-26
-25
-25
-25
-25
-26
-25
-25
-24
-23
-23
-23
-24
-23
-22
-21
-21
-22
-22
-22
-21
-20
-20
-20
-21
-21
-21
-21
-20
-21
-21
-23
-24
-25
-25
-26
-28
-30
-33
-35
-37
-39
-42
-45
-49
-53
-56
-59
-62
-65
-69
-73
-77
-80
-82
-85
-88
-92
-95
-98
-100
-101
-102
-104
-105
-107
-107
-106
-106
-105
-104
-104
-103
-101
-98
-95
-93
-91
-88
-86
-82
-78
-73
-70
-66
-62
-57
-51
-45
-39
-33
-27
-21
-14
-6
2
9
17
25
33
41
50
59
67
74
81
88
95
102
108
113
117
120
124
127
129
131
131
130
129
129
128
126
123
118
114
109
105
101
96
91
85
79
74
70
66
61
56
51
47
43
41
38
36
33
31
30
29
29
29
29
28
27
26
27
27
28
28
28
28
29
29
30
29
28
28
27
28
28
28
28
27
26
25
25
25
24
22
20
18
17
16
15
13
11
9
8
7
7
6
5
4
3
2
3
3
3
2
1
0
1
1
1
1
0
0
0
0
0
0
0
-1
-2
-2
-1
-1
-1
-1
-2
-2
-2
-1
-1
-1
-1
-2
-1
-1
0
0
0
-1
-1
0
0
0
0
0
0
0
0
0
1
1
0
0
0
0
1
1
1
0
0
0
0
1
0
0
0
-1
-1
0
0
0
-1
-2
-1
-1
0
0
-1
-1
-1
-1
0
0
0
0
-1
-1
0
0
0
0
0
0
0
0
0
0
0
0
0
0
0
0
0
0
-1
-1
-1
0
0
0
-1
-2
-2
-2
-1
-1
-2
-2
-3
-2
-2
-1
-1
-2
-2
-2
-2
-1
-1
-1
-2
-2
-2
-2
-1
-1
-1
-2
-2
-1
0
0
0
0
-1
-1
-1
0
0
0
0
0
0
0
0
0
0
0
0
0
0
0
0
0
0
0
0
0
0
0
0
0
0
0
0
0
0
0
0
0
0
1
1
1
0
0
1
2
2
2
1
1
1
1
2
2
2
1
1
1
2
2
2
1
0
0
1
1
2
1
0
0
0
1
1
2
1
1
1
1
2
3
3
2
2
2
2
3
3
3
2
2
2
3
3
3
3
2
2
2
2
3
2
1
0
0
0
0
0
0
0
-1
-1
-1
-1
-1
-2
-3
-4
-4
-3
-3
-4
-5
-6
-7
-6
-6
-6
-7
-7
-8
-8
-8
-8
-8
-8
-9
-9
-9
-8
-8
-8
-9
-10
-10
-10
-9
-8
-9
-9
-10
-10
-9
-8
-8
-8
-9
-9
-8
-8
-7
-7
-8
-8
-8
-8
-7
-6
-6
-7
-7
-7
-6
-5
-5
-5
-6
-6
-5
-4
-4
-4
-4
-5
-5
-5
-4
-4
-4
-5
-5
-5
-5
-4
-4
-4
-5
-5
-4
-3
-3
-3
-3
-4
-4
-3
-2
-2
-2
-3
-3
-3
-2
-2
-2
-2
-3
-3
-2
-2
-1
-1
-2
-2
-3
-2
-1
-1
-1
-2
-2
-2
-1
0
0
0
-1
-1
-1
0
0
0
0
-1
-1
-1
0
0
0
-1
-1
-2
-1
-1
-1
-1
-2
-2
-1
0
0
0
0
0
0
0
0
1
0
0
0
0
1
2
2
2
2
2
2
3
4
4
3
2
2
2
2
3
2
1
1
1
1
2
1
1
0
0
0
0
0
0
0
-1
-1
-1
0
0
-1
-2
-3
-3
-2
-2
-2
-2
-3
-3
-3
-2
-2
-2
-3
-3
-3
-3
-2
-1
-1
-2
-2
-2
-1
-1
-1
-1
-2
-2
-1
-1
0
-1
-1
-2
-2
-2
-1
-1
-2
-3
-3
-3
-3
-3
-3
-3
-4
-4
-4
-3
-3
-3
-4
-5
-5
-5
-4
-4
-4
-5
-5
-5
-5
-4
-4
-4
-5
-5
-4
-4
-3
-3
-4
-4
-5
-4
-3
-3
-4
-5
-5
-5
-5
-4
-4
-5
-5
-6
-5
-4
-4
-4
-4
-5
-5
-4
-3
-3
-3
-4
-4
-4
-4
-3
-3
-3
-4
-4
-4
-3
-3
-4
-5
-5
-6
-5
-5
-4
-5
-6
-6
-6
-6
-5
-5
-5
-6
-6
-6
-5
-4
-4
-5
-5
-5
-5
-4
-3
-3
-4
-4
-4
-3
-2
-2
-2
-2
-2
-2
-1
0
0
-1
-2
-2
-1
0
0
-1
-1
-2
-2
-1
-1
-1
-1
-2
-2
-2
-1
-1
-1
-1
-2
-2
-1
0
0
0
-1
-1
-1
0
0
0
0
0
-1
0
0
0
0
-1
-2
-3
-2
-2
-1
-2
-3
-3
-3
-3
-2
-2
-2
-2
-2
-1
0
0
1
1
1
1
2
3
3
3
3
3
3
5
6
6
6
5
5
5
5
6
5
4
4
4
4
5
5
5
4
4
4
5
5
5
5
4
4
4
5
5
5
5
4
4
4
4
4
3
2
1
1
0
0
0
-1
-2
-4
-4
-5
-5
-7
-8
-9
-10
-10
-10
-11
-12
-14
-15
-15
-15
-14
-14
-15
-15
-16
-15
-14
-14
-14
-14
-15
-14
-14
-13
-12
-12
-12
-12
-12
-11
-10
-10
-10
-11
-10
-10
-9
-8
-8
-9
-10
-10
-9
-9
-9
-9
-10
-11
-10
-10
-9
-9
-9
-10
-10
-9
-8
-8
-8
-8
-9
-8
-7
-6
-6
-6
-6
-6
-6
-5
-4
-4
-4
-4
-3
-3
-2
-1
-1
-2
-2
-2
-2
-1
0
-1
-1
-2
-2
-1
0
0
0
-1
-1
0
1
1
2
1
1
1
2
3
4
3
3
3
3
3
4
4
3
2
2
2
3
3
2
2
1
1
1
2
3
3
2
2
3
4
5
6
5
5
6
6
7
8
7
6
4
4
3
3
2
0
-2
-4
-7
-9
-11
-14
-18
-21
-25
-27
-30
-33
-37
-41
-45
-48
-51
-53
-55
-58
-62
-64
-66
-67
-68
-69
-70
-71
-71
-70
-69
-68
-68
-68
-67
-66
-63
-60
-58
-56
-54
-51
-48
-45
-41
-37
-34
-30
-25
-20
-14
-8
-2
2
8
15
23
32
40
47
55
63
71
80
89
97
105
112
119
126
133
139
143
147
150
153
156
158
159
159
158
156
155
153
151
148
144
140
135
131
127
123
117
111
106
101
96
93
88
84
80
76
73
71
69
67
65
63
62
62
62
63
63
63
63
63
65
66
66
66
65
65
66
66
67
67
66
65
64
64
64
63
62
60
58
57
56
55
54
51
49
47
46
45
44
43
41
39
37
37
36
36
34
33
32
31
31
32
33
32
31
31
30
31
31
31
31
30
30
30
31
31
30
29
28
28
28
29
29
29
28
28
28
29
29
30
29
29
29
30
31
32
32
31
31
31
31
32
32
32
31
30
30
30
31
30
30
29
29
30
31
31
31
30
29
29
30
31
32
32
31
32
32
33
33
33
33
32
32
33
34
34
33
32
31
31
31
31
31
30
29
29
29
29
29
29
28
28
27
28
29
29
29
28
28
28
28
29
29
28
28
28
28
29
30
30
29
29
29
29
30
31
31
30
29
29
30
31
31
30
29
29
29
29
30
30
29
28
28
28
29
29
28
27
27
27
27
28
28
27
26
26
26
