# Simple Text Format
# Sampling Rate (Hz):= 1200.00
# Resolution:= 12
# Labels:= ECG	 V3
# Age:=	76
# Gender:=	Masculino
569
569
568
568
568
567
567
566
566
565
565
564
564
563
563
563
562
561
560
559
559
559
558
557
556
555
555
554
554
553
551
550
550
550
549
548
548
547
546
546
545
544
543
543
542
542
541
541
540
540
538
538
537
537
537
535
535
534
533
533
533
533
532
530
530
529
528
529
529
529
528
527
528
528
528
528
528
527
527
528
529
529
530
530
531
531
531
532
533
533
534
534
534
536
536
537
538
538
539
540
541
543
544
545
546
547
549
550
552
554
555
556
558
560
562
563
564
566
568
570
571
573
574
575
576
577
578
580
582
582
583
585
585
587
589
589
591
591
591
593
594
595
596
596
597
598
598
598
599
600
600
599
600
601
600
601
600
601
600
601
601
601
601
601
600
600
600
601
600
600
599
600
600
601
600
600
601
601
600
601
600
601
601
600
600
600
600
600
600
599
600
599
599
599
598
598
598
597
597
597
598
598
597
597
597
596
596
596
596
596
595
596
596
596
596
596
596
595
596
595
596
596
596
597
596
596
597
596
597
596
597
596
597
597
597
597
597
596
597
596
597
597
597
597
597
597
596
597
597
597
597
597
596
597
597
596
597
596
596
597
598
597
598
598
598
598
598
599
598
599
599
599
600
601
601
601
601
600
601
601
601
601
601
602
601
601
601
601
601
601
601
600
601
600
601
600
601
600
600
600
601
600
600
601
600
600
600
601
601
601
601
600
601
600
601
601
601
601
600
600
601
600
600
601
600
600
600
599
600
599
599
598
599
598
599
599
598
598
598
598
598
598
598
597
598
597
598
597
597
597
597
596
596
597
597
597
597
596
596
596
596
596
596
595
596
595
595
596
596
595
595
595
595
595
595
595
595
595
594
594
594
594
594
593
593
592
591
592
592
591
591
590
590
590
590
590
590
589
589
588
588
589
588
589
588
588
588
588
588
588
587
587
587
586
587
587
586
586
585
585
586
585
585
585
584
584
584
584
585
584
583
583
583
584
583
583
583
582
582
582
583
582
582
582
581
580
581
581
580
579
579
578
578
579
579
579
578
578
578
578
578
579
578
577
577
577
577
577
577
578
578
577
578
578
578
578
578
577
577
577
578
578
578
578
578
578
578
579
579
579
580
579
580
581
582
582
583
583
583
584
585
586
587
588
588
588
589
590
591
592
592
592
593
594
594
594
595
594
595
596
596
595
595
595
594
594
593
592
591
590
589
587
585
585
583
582
580
579
576
576
574
573
571
569
568
567
566
565
565
564
563
562
562
561
560
560
560
559
558
558
558
558
558
557
556
555
555
555
555
554
554
553
553
553
552
553
552
552
551
551
551
551
551
551
552
551
551
551
551
550
550
549
548
549
548
548
547
547
546
546
545
546
544
543
543
543
543
544
543
542
542
542
542
542
542
541
541
541
541
541
541
541
541
541
540
541
541
542
542
542
542
542
543
543
544
544
544
544
544
545
546
545
546
545
546
545
545
545
545
545
545
544
545
544
545
545
544
543
544
543
544
544
544
543
544
544
545
544
545
544
544
544
544
544
544
545
543
544
543
543
543
543
543
543
543
542
542
543
543
542
541
542
543
543
543
544
545
546
546
548
548
550
551
552
553
554
555
558
559
560
562
562
564
564
565
566
566
567
567
568
567
567
567
567
566
566
566
566
566
566
567
568
569
571
573
575
577
581
585
588
593
600
604
611
617
623
630
637
644
651
659
667
674
682
691
697
705
712
719
727
735
743
750
758
765
772
780
786
793
798
804
810
816
821
827
833
839
844
851
857
864
871
878
885
893
901
909
918
927
935
943
952
960
968
977
985
993
1001
1007
1015
1022
1028
1034
1039
1044
1049
1053
1059
1064
1068
1073
1076
1078
1081
1084
1083
1083
1080
1075
1070
1063
1053
1042
1028
1012
995
977
958
936
914
891
868
845
821
798
775
753
732
712
694
678
662
648
636
625
615
607
599
593
589
583
580
576
573
571
568
567
564
561
560
559
557
556
553
552
550
548
546
545
543
541
539
538
537
535
533
531
530
528
527
527
525
524
522
520
519
517
517
516
515
515
514
514
513
512
511
511
510
510
509
509
509
510
509
509
508
509
509
509
509
509
508
508
508
508
508
507
507
506
506
507
506
506
506
505
504
503
504
503
502
502
502
502
501
501
500
501
500
499
499
500
499
499
499
498
497
497
498
498
497
497
496
496
496
496
496
495
495
494
494
494
494
493
494
493
492
493
493
493
493
493
492
492
492
492
492
492
492
492
491
492
492
492
491
491
491
491
491
491
490
489
489
489
489
489
489
488
488
487
487
487
487
486
486
485
485
485
484
484
483
483
482
482
481
482
480
480
480
479
479
478
479
478
477
478
477
477
476
476
477
476
476
476
475
476
475
475
474
474
474
474
473
474
473
472
472
471
472
472
471
470
470
469
469
468
468
467
465
466
465
465
465
464
463
462
462
460
460
460
459
457
457
457
455
455
455
454
453
452
452
452
451
451
450
449
448
447
447
446
446
444
443
443
443
442
441
440
439
439
437
437
436
435
435
434
433
433
432
432
431
430
430
429
429
429
428
427
427
426
425
426
425
425
424
423
423
423
422
422
422
422
421
421
422
421
421
421
421
421
421
421
422
422
422
422
422
423
425
425
425
426
427
428
429
430
431
432
433
435
436
438
440
441
442
442
445
446
447
449
451
452
453
455
456
458
459
460
462
464
465
466
467
468
470
470
472
473
474
475
476
477
477
478
478
479
479
480
480
480
481
483
483
483
484
485
485
485
486
487
487
486
487
486
487
487
487
487
487
487
487
487
487
487
487
486
485
486
486
485
486
485
485
485
486
486
486
485
486
485
485
486
486
487
486
486
485
486
486
486
485
485
485
484
485
484
484
484
484
483
483
484
484
484
483
483
483
483
484
484
483
483
484
484
483
484
484
483
483
483
483
483
484
484
483
484
483
483
484
483
484
483
482
483
483
483
484
483
484
483
484
485
485
485
485
484
485
485
485
486
485
486
485
485
486
487
487
487
486
486
487
487
487
488
487
487
486
487
487
487
487
486
486
486
486
485
485
485
485
485
485
486
485
485
484
485
484
484
485
485
486
485
485
485
485
486
486
485
484
484
484
484
484
484
484
484
484
484
485
484
484
484
483
484
484
484
485
484
483
483
483
482
483
482
482
482
481
481
481
481
481
481
480
480
480
481
481
480
480
480
480
480
480
480
480
479
479
480
480
480
479
479
479
479
479
479
479
478
478
478
478
477
477
477
477
476
476
476
476
476
475
475
475
475
474
474
474
473
472
472
472
472
471
472
471
471
470
470
470
469
468
467
467
466
466
466
466
466
465
464
464
464
464
464
463
463
463
463
462
462
462
462
461
461
461
461
462
461
461
460
461
461
461
460
459
459
458
459
458
458
458
457
456
456
456
456
455
455
455
454
454
455
454
455
454
454
454
454
454
455
455
455
455
455
455
456
456
455
455
455
455
455
454
454
454
453
453
453
452
452
452
451
451
449
450
450
450
449
449
448
448
447
448
448
448
448
449
449
450
451
451
452
453
453
454
456
456
457
458
458
460
460
461
462
462
462
464
464
464
465
466
465
466
466
467
467
468
467
468
467
467
467
466
466
465
464
463
462
461
459
458
456
454
453
452
450
448
447
445
444
442
441
441
439
438
438
436
436
435
435
435
434
433
433
433
434
434
433
432
431
432
431
430
430
429
430
429
428
429
429
428
428
427
427
428
428
428
427
427
426
426
427
427
427
426
426
426
425
425
425
424
424
424
423
423
422
423
422
422
423
423
423
423
423
423
424
424
426
426
427
427
427
426
427
428
428
428
428
428
428
428
428
427
426
426
425
425
424
425
425
423
423
423
422
421
422
421
421
421
420
420
420
420
421
420
419
420
419
420
420
421
420
420
420
421
422
422
422
421
422
422
422
422
422
422
421
421
421
422
421
421
420
420
420
419
420
420
419
419
419
419
418
418
419
418
418
418
419
419
419
419
419
420
420
422
422
423
424
425
426
427
429
430
432
433
435
436
437
440
441
442
442
443
444
444
444
444
443
443
442
442
442
441
442
441
440
440
440
441
442
443
444
447
449
453
456
462
466
471
476
482
489
496
502
510
516
525
532
541
549
556
564
571
579
587
594
601
608
616
623
631
639
646
653
659
665
670
676
682
687
692
697
703
709
715
721
727
734
739
746
754
761
770
778
786
795
804
813
822
830
838
845
853
861
869
876
883
889
895
899
904
908
913
916
919
923
926
929
933
934
936
936
935
935
932
929
924
917
909
897
886
872
856
839
821
801
781
760
739
717
694
672
651
630
611
592
574
556
541
527
514
503
493
484
476
470
464
459
455
451
447
444
441
439
436
435
432
431
428
426
425
423
421
420
417
415
414
412
411
408
406
404
402
401
399
397
396
394
392
391
390
389
388
387
386
384
383
383
383
382
381
381
380
379
380
380
379
379
378
378
378
377
377
377
376
376
375
375
376
376
375
375
375
374
375
375
374
374
374
373
373
373
372
372
372
370
370
368
368
367
366
365
364
363
363
362
361
360
359
359
358
359
358
358
359
358
358
359
359
360
360
360
361
361
361
361
361
362
362
361
361
361
361
360
360
359
358
358
358
356
356
355
354
354
353
352
351
350
349
348
347
347
346
346
345
345
344
344
344
344
343
343
343
342
343
343
344
345
345
344
346
346
347
346
346
346
346
346
347
347
347
346
345
345
346
345
345
345
344
344
343
344
343
342
341
340
340
340
339
339
338
337
336
335
334
332
332
331
331
331
331
330
330
330
329
328
328
328
328
328
328
328
327
327
328
328
328
327
326
326
325
324
323
322
321
319
319
318
318
318
316
316
315
314
313
313
312
311
310
309
310
309
308
308
307
305
305
303
303
302
301
300
299
299
298
297
296
295
294
293
293
292
292
292
291
290
290
288
288
287
285
284
283
282
281
281
280
280
279
279
279
280
280
281
280
281
281
283
283
284
285
286
286
288
289
289
290
290
290
290
290
290
290
290
290
290
290
291
292
292
292
293
294
294
295
297
299
300
300
302
303
305
306
307
309
310
311
313
314
315
316
316
318
320
321
321
323
324
325
325
327
329
329
331
331
332
333
335
335
336
337
338
338
339
340
340
341
342
341
341
342
342
343
343
342
343
343
342
343
342
342
342
342
341
342
342
341
341
341
341
340
341
340
340
340
339
339
339
339
339
338
338
338
338
338
337
337
336
336
336
336
336
336
335
334
335
334
334
334
334
333
333
332
332
332
331
331
331
330
331
330
331
330
330
329
329
328
329
328
327
327
326
325
325
325
324
324
324
323
323
322
322
322
322
322
321
321
321
321
321
321
321
321
321
322
322
322
321
322
322
321
321
322
322
321
321
321
321
321
321
320
320
320
320
320
320
320
321
320
321
321
321
321
322
322
322
322
322
322
323
323
322
322
323
323
322
323
322
321
321
320
320
319
319
319
319
318
318
319
318
318
317
316
316
316
316
316
315
315
314
315
314
315
316
315
314
314
315
315
315
316
316
315
316
317
317
318
317
317
317
317
318
319
317
318
317
317
317
316
316
316
315
315
315
314
315
313
313
313
312
311
312
311
311
310
311
310
311
310
310
310
310
309
309
309
309
309
310
309
310
309
310
310
310
309
309
309
308
308
307
307
307
306
306
307
307
307
307
306
306
306
305
305
306
306
305
304
304
304
304
304
304
303
303
302
301
301
301
300
299
300
299
300
298
298
297
297
298
298
298
298
297
298
298
298
299
299
299
299
299
299
299
299
300
299
299
298
298
298
298
298
297
296
296
295
296
296
295
294
293
294
293
293
293
292
292
292
292
291
292
292
291
291
290
291
291
291
290
290
290
290
290
290
291
291
291
292
292
292
294
294
294
295
295
296
298
298
299
299
300
301
302
303
304
304
303
305
304
306
306
306
307
307
308
308
309
309
309
308
308
309
308
309
309
308
308
307
307
306
305
304
303
302
300
299
299
297
295
293
292
290
289
288
286
284
283
282
281
280
279
278
277
276
276
276
277
277
277
276
277
276
277
277
277
277
277
277
277
278
278
277
277
276
276
275
276
274
274
273
273
273
272
271
272
271
270
269
269
269
269
269
267
268
267
267
268
267
267
267
266
266
267
266
266
266
266
267
267
267
267
267
267
266
266
267
267
267
268
268
268
268
268
269
268
269
269
269
269
269
269
269
268
269
269
268
269
269
268
267
267
267
267
266
266
266
266
265
265
266
266
266
266
266
266
266
266
266
267
267
267
268
267
268
269
268
269
269
269
269
269
269
268
268
268
268
268
268
267
266
266
266
265
265
264
262
262
261
261
260
261
260
260
259
260
260
260
261
261
261
262
264
265
267
268
269
271
272
274
277
279
280
282
283
285
288
289
291
291
292
292
293
293
294
292
292
292
291
292
291
291
291
289
289
290
291
292
293
296
297
300
303
308
312
318
323
328
334
340
347
355
361
368
374
383
390
397
405
412
419
426
432
440
447
454
461
469
476
484
491
497
504
510
516
521
526
532
538
544
549
555
561
567
573
579
585
592
599
608
616
623
631
640
648
656
665
673
682
689
696
704
711
717
724
729
734
737
742
744
748
750
753
754
757
758
761
761
762
761
759
757
755
750
744
737
728
717
704
691
676
660
642
624
604
584
564
544
524
503
483
463
445
427
411
395
380
366
354
342
334
326
318
312
306
301
297
293
290
287
284
281
280
278
277
275
274
272
271
270
269
268
266
266
264
264
263
262
261
259
257
256
255
254
253
251
249
247
246
244
243
241
239
238
236
235
234
233
232
231
230
230
229
228
227
226
225
225
224
225
224
224
223
224
222
222
222
221
221
220
220
220
220
220
220
219
218
218
218
218
218
218
217
217
216
216
216
216
215
215
215
214
215
215
215
216
215
215
215
215
215
215
215
215
214
214
215
214
215
214
214
214
214
214
214
213
213
212
212
212
211
211
210
210
209
208
208
208
207
206
205
204
205
205
204
204
203
203
203
203
202
203
202
202
203
203
203
203
203
202
202
202
202
201
202
201
201
200
199
200
200
200
200
199
199
199
200
199
199
198
198
199
199
198
199
198
197
196
196
195
196
195
195
195
195
194
194
194
193
192
191
192
192
192
192
191
191
191
191
191
190
190
190
189
189
188
188
188
187
187
186
186
186
185
185
185
184
183
183
181
181
180
179
178
176
176
175
174
173
172
170
169
168
167
167
164
164
163
162
160
160
160
158
157
157
157
157
156
155
155
154
154
154
154
153
153
153
152
151
151
151
151
150
150
149
149
148
149
147
147
146
147
147
146
146
147
146
146
146
146
147
147
146
146
146
146
147
147
147
147
146
146
147
147
147
147
147
148
149
149
149
150
150
150
150
151
153
153
155
155
156
157
158
160
161
163
165
166
167
169
171
173
174
176
178
180
181
183
185
186
188
189
191
192
194
196
196
197
198
199
201
203
203
204
205
206
207
208
209
210
210
211
212
213
214
215
215
215
215
216
216
216
216
215
216
215
215
216
215
215
214
214
215
214
215
215
214
215
215
215
215
216
215
216
215
216
217
218
217
218
217
217
217
217
218
217
216
216
215
215
216
215
215
214
214
213
213
212
212
211
210
210
210
210
211
210
209
210
210
209
209
209
209
209
209
209
209
210
211
211
211
211
212
212
213
213
212
213
213
213
213
213
213
213
213
213
213
213
213
214
213
213
213
213
213
213
214
213
214
213
214
214
214
214
213
214
213
213
213
212
212
211
212
211
212
212
211
210
210
210
210
210
211
210
210
211
212
213
213
213
213
213
214
214
214
215
214
215
215
215
214
214
214
213
213
212
213
212
212
211
212
211
212
211
212
212
211
211
211
212
211
212
211
211
210
211
212
212
212
212
211
211
211
212
211
211
212
211
211
212
213
213
212
212
212
213
214
214
214
214
214
214
214
215
215
215
214
215
214
213
214
214
214
213
213
212
212
212
212
211
210
209
209
208
209
208
208
207
208
208
208
208
209
208
209
209
209
210
210
209
209
209
209
209
209
208
208
207
207
207
207
206
206
205
205
205
205
204
204
204
203
203
204
203
204
204
204
203
203
204
204
205
204
204
204
204
204
204
204
204
204
203
203
203
202
201
200
199
199
199
199
199
198
198
197
197
196
196
196
196
196
196
196
197
197
198
197
198
197
198
199
199
199
198
198
198
199
200
199
199
199
198
198
199
199
198
198
198
198
198
198
197
196
196
197
197
196
196
197
197
197
198
198
198
199
200
200
201
201
202
203
204
204
205
205
206
207
207
208
209
209
209
210
210
211
212
212
212
212
213
213
213
213
213
212
212
211
211
211
209
207
206
206
204
203
201
200
198
197
196
195
193
192
190
189
189
188
187
186
185
184
184
184
184
183
183
182
181
182
181
181
182
180
180
179
180
179
178
178
178
177
176
175
175
174
174
173
172
171
170
170
170
168
168
168
168
168
168
168
167
168
167
168
168
169
170
169
169
169
170
170
170
169
170
169
170
170
171
171
171
171
171
170
171
171
171
172
171
172
171
172
172
173
173
173
173
173
174
174
173
173
173
173
173
173
173
174
174
174
174
173
173
174
174
174
175
175
176
176
175
175
175
175
174
175
174
173
174
173
172
172
172
171
171
170
171
170
170
170
169
168
168
168
169
169
169
168
168
168
169
169
169
169
168
168
169
169
169
169
169
169
168
169
170
170
170
170
172
172
173
174
175
175
176
177
179
180
182
183
184
186
188
190
191
193
194
195
197
198
199
200
200
201
201
201
201
201
201
200
200
200
199
199
199
200
200
200
202
203
205
208
210
214
217
222
226
232
239
245
250
257
264
270
278
286
293
300
308
315
323
331
337
345
352
358
365
373
381
388
394
402
409
415
422
428
433
439
444
450
456
461
466
472
478
485
491
498
504
511
519
526
534
543
551
559
566
574
582
589
596
604
610
617
622
628
633
638
642
645
648
649
652
655
656
659
661
663
664
665
665
664
663
660
657
651
645
638
629
618
606
592
577
560
543
524
505
484
464
444
424
404
384
365
347
329
313
299
285
273
261
251
242
234
227
222
216
211
207
204
201
199
196
194
191
189
187
185
183
181
178
177
174
173
171
170
168
165
164
162
161
160
159
157
156
154
154
153
152
151
151
150
149
149
147
147
147
145
145
144
144
144
143
142
141
141
141
140
141
140
139
139
139
139
138
139
138
137
138
137
137
138
137
137
136
136
135
135
135
135
134
133
132
133
133
133
132
131
130
131
130
130
131
130
129
129
129
129
129
129
129
129
128
128
129
129
128
128
127
127
127
127
127
127
126
125
125
125
125
124
123
123
123
122
122
122
121
121
121
121
121
121
120
121
120
121
120
121
122
122
121
121
122
121
122
122
123
122
122
122
122
123
122
122
122
121
121
122
121
120
119
119
119
118
118
117
116
116
115
115
114
113
113
113
112
111
112
111
112
111
112
111
111
111
111
111
111
110
110
110
110
111
110
109
109
109
109
109
108
109
108
108
107
107
106
106
106
105
105
105
104
103
103
103
101
101
101
100
100
99
97
97
96
96
96
94
93
92
91
91
90
89
90
88
88
87
85
86
85
84
84
83
83
84
83
83
82
82
80
80
79
79
79
77
77
76
76
75
74
73
72
71
70
70
69
69
68
67
66
66
66
65
64
64
63
63
63
64
63
63
63
62
62
62
62
62
61
62
62
62
62
63
62
63
63
63
64
66
66
67
68
68
69
71
71
73
75
75
76
77
79
81
82
83
84
85
87
88
90
92
93
95
96
98
100
101
103
104
105
107
108
110
111
112
113
114
116
118
120
121
123
124
125
127
129
130
131
132
134
135
136
138
139
140
141
141
142
142
142
143
143
142
143
143
144
144
144
145
145
145
146
146
147
146
146
146
147
148
148
149
148
148
148
149
149
148
149
149
148
148
148
149
149
148
148
148
147
148
147
147
147
146
146
146
146
146
146
145
144
144
144
144
144
144
143
143
143
143
142
141
142
140
141
141
141
141
140
140
140
140
140
141
141
141
140
141
142
143
143
143
144
144
144
145
146
147
147
147
147
147
148
148
149
149
148
148
149
149
149
149
149
149
149
149
150
149
149
148
148
148
148
148
148
147
146
145
146
145
146
145
145
144
144
144
144
144
144
144
144
144
144
145
145
145
145
145
146
146
146
146
147
147
147
148
149
148
148
149
149
149
150
150
151
150
151
150
150
151
150
150
149
148
148
148
148
147
146
146
145
145
144
145
145
144
144
144
144
144
145
145
145
146
146
147
148
148
148
148
149
149
150
150
150
150
150
150
150
150
150
150
150
150
149
149
149
149
149
148
148
148
148
147
147
146
146
146
145
145
145
145
145
144
144
143
144
143
143
142
141
141
141
140
140
140
139
140
140
140
140
139
138
138
137
138
138
138
138
138
137
138
138
139
139
139
139
138
139
140
140
140
141
140
140
141
141
141
141
141
140
140
140
141
140
140
140
139
139
139
139
139
138
137
136
137
136
136
135
135
135
134
134
134
134
134
133
134
134
134
134
134
134
133
134
133
134
133
134
133
134
134
134
134
135
134
134
135
134
135
135
135
135
136
136
136
136
136
137
136
137
137
137
137
137
137
137
137
139
138
139
140
140
140
141
142
143
143
144
144
144
145
146
147
148
148
148
148
149
150
150
150
150
150
150
150
150
149
148
148
148
147
146
145
144
142
142
140
139
138
136
135
134
132
130
129
128
128
126
123
122
121
120
121
119
118
118
118
117
116
117
116
115
115
115
116
115
116
115
115
115
114
115
114
115
114
113
114
114
114
114
113
112
111
111
111
110
110
110
109
109
109
109
109
109
108
108
107
108
108
107
108
107
107
106
107
107
107
106
106
107
106
107
107
108
107
107
107
107
107
108
108
108
108
108
109
109
109
109
109
109
108
109
108
108
108
107
107
107
107
108
107
106
105
105
105
105
105
105
104
104
104
104
104
103
104
103
102
103
103
102
103
102
103
102
102
102
102
103
103
103
103
104
104
104
104
103
103
104
104
104
104
104
103
103
104
104
103
103
103
102
102
102
101
101
102
101
101
101
102
103
103
103
103
104
105
105
107
108
109
110
111
113
115
116
118
119
120
123
123
125
126
127
127
127
128
128
127
127
127
126
126
127
127
127
127
127
128
130
132
135
137
141
145
149
154
160
166
172
178
185
192
200
208
214
222
229
237
246
254
262
268
276
283
290
297
305
313
321
327
336
343
350
357
364
369
375
381
387
392
399
404
410
416
422
428
434
440
447
454
461
469
477
485
493
500
507
515
522
530
537
543
549
555
561
567
571
575
579
582
584
587
589
592
594
596
598
600
602
602
603
602
600
596
592
588
581
573
563
551
539
524
508
491
473
454
434
413
393
372
352
332
312
293
275
259
243
229
215
203
192
183
175
167
161
155
150
145
142
139
137
134
131
129
127
126
124
122
120
117
116
114
113
111
110
108
105
104
102
101
100
97
95
94
93
91
91
89
88
86
85
84
84
83
82
81
80
80
79
80
80
79
78
78
78
77
77
76
76
75
74
73
73
73
72
71
71
71
71
71
71
70
70
70
69
70
70
71
71
71
72
71
72
72
72
72
72
72
72
73
73
73
72
72
72
71
72
71
71
71
70
70
71
71
71
70
69
69
69
69
68
68
66
65
65
64
64
63
63
61
60
60
59
59
58
57
56
56
56
56
56
56
56
57
57
58
58
58
59
59
59
59
59
59
60
59
58
59
59
60
59
59
59
58
58
59
58
58
59
58
57
58
57
58
57
56
56
55
55
56
56
54
54
54
53
52
52
52
52
51
51
50
50
50
50
48
47
47
46
46
45
45
44
42
42
42
41
40
40
40
39
39
39
39
40
39
39
38
38
39
39
39
38
38
38
37
37
36
35
34
33
32
31
29
28
27
26
25
23
22
21
20
18
16
16
15
15
13
13
12
11
11
11
11
10
10
10
9
9
9
9
9
7
7
6
6
6
4
4
2
1
1
1
0
-2
-4
-4
-6
-6
-6
-7
-8
-9
-10
-10
-11
-12
-12
-12
-13
-14
-14
-15
-14
-15
-14
-15
-14
-14
-13
-12
-11
-11
-10
-9
-8
-6
-5
-4
-2
-1
0
2
4
5
5
7
8
9
11
12
13
14
15
17
18
20
20
22
22
24
26
28
30
31
32
33
36
37
39
40
43
44
45
46
48
50
51
52
51
52
54
55
56
56
57
58
59
59
60
61
62
62
63
64
64
65
66
66
67
67
68
69
70
70
71
71
71
72
73
74
74
74
74
75
76
75
77
77
77
77
77
77
77
77
77
76
76
76
76
76
76
76
75
74
75
74
74
74
73
73
72
73
72
73
72
72
72
73
73
73
74
74
73
74
75
76
76
76
76
76
77
77
78
78
77
77
77
77
77
76
76
75
74
74
74
73
73
73
73
71
71
71
71
71
70
71
71
71
71
72
72
72
72
72
73
74
74
74
75
74
75
75
76
76
77
77
77
78
79
79
79
79
80
79
79
79
79
79
79
79
79
80
79
79
78
79
78
78
79
78
78
78
78
78
79
78
79
79
79
80
80
81
81
81
82
81
82
83
84
84
84
84
84
84
86
85
85
85
85
85
85
84
85
85
84
83
83
82
82
83
82
81
81
80
81
81
80
80
79
79
79
79
79
79
79
80
80
80
80
81
81
81
80
81
81
80
80
81
81
81
81
81
81
81
81
81
81
82
83
83
83
83
83
83
83
83
83
84
83
83
83
84
83
82
82
82
82
81
81
81
80
79
79
79
78
79
78
78
77
77
76
77
76
76
75
74
74
74
74
73
73
73
73
73
72
73
72
73
72
72
72
73
72
73
72
72
72
72
72
72
71
71
70
70
70
71
71
71
72
71
72
73
74
74
74
74
74
76
76
77
78
79
78
79
79
80
80
79
79
78
78
77
77
77
76
75
74
73
73
72
72
71
71
70
70
70
70
69
68
69
69
69
70
70
71
71
71
73
73
74
74
76
76
78
79
80
80
80
80
80
81
82
83
83
84
84
85
85
86
86
86
86
87
87
87
88
88
87
87
86
86
86
85
84
83
81
80
79
78
76
75
73
71
70
69
68
66
65
64
63
63
62
62
61
61
60
59
59
58
59
58
58
58
58
58
58
58
58
57
57
57
56
57
56
55
55
54
54
55
54
53
53
52
52
51
51
51
50
49
49
48
48
48
48
47
47
46
47
47
47
47
46
47
47
47
48
48
48
48
49
50
50
51
52
51
51
51
53
52
53
52
52
53
53
53
53
52
52
51
51
51
51
51
51
51
51
51
51
52
53
53
53
53
53
53
54
54
54
53
53
53
53
53
53
53
52
52
52
52
51
51
50
50
50
50
51
51
52
51
52
52
52
52
52
52
51
53
53
53
53
53
53
52
53
53
53
53
52
52
52
53
53
53
54
54
54
54
54
55
56
56
56
57
57
57
58
59
59
60
61
63
64
65
67
68
69
71
73
75
76
78
79
80
81
82
83
83
83
82
83
82
82
81
80
79
79
80
80
80
82
83
84
86
88
92
96
100
105
110
115
121
127
134
141
147
154
160
168
176
184
192
199
206
214
222
229
237
244
253
260
268
276
285
292
301
308
315
322
328
334
340
344
350
356
362
369
374
380
386
392
399
407
414
421
428
437
445
453
462
469
477
484
491
498
506
513
518
524
528
534
537
541
544
548
550
552
555
558
561
563
564
565
565
565
564
562
559
554
548
540
530
519
507
493
476
459
441
421
401
381
360
339
317
297
278
259
241
223
207
191
177
165
154
144
136
129
122
117
112
108
104
101
98
95
93
91
90
87
85
84
82
81
80
78
76
74
72
71
69
68
66
64
61
60
58
56
54
52
50
49
48
47
46
44
42
41
40
40
38
38
37
37
36
36
36
35
34
34
34
34
33
34
34
34
33
34
34
34
34
35
35
35
35
35
36
36
37
37
37
37
37
37
37
36
35
36
35
36
36
36
35
35
34
34
34
34
34
33
33
33
31
32
31
30
29
28
28
27
27
26
25
25
24
23
24
23
23
22
22
21
21
21
22
22
22
23
23
23
24
24
24
24
23
23
23
23
23
23
22
22
22
23
22
21
21
20
20
20
20
19
18
18
16
17
17
17
16
17
16
16
16
16
16
15
14
14
14
13
13
12
11
11
10
10
10
10
10
8
7
7
6
6
5
5
4
4
4
5
5
5
5
5
5
5
6
6
7
6
7
7
7
7
7
7
6
6
5
5
5
5
4
4
3
3
2
2
1
0
-2
-2
-3
-4
-4
-6
-7
-8
-9
-10
-11
-12
-14
-16
-16
-17
-18
-19
-20
-21
-22
-22
-24
-24
-24
-25
-25
-27
-27
-27
-27
-28
-29
-29
-30
-30
-31
-31
-33
-33
-34
-35
-35
-35
-36
-37
-38
-38
-39
-39
-39
-39
-40
-40
-41
-41
-41
-40
-41
-42
-42
-42
-42
-42
-42
-42
-43
-43
-43
-43
-44
-43
-44
-44
-44
-44
-44
-43
-43
-43
-42
-41
-40
-40
-38
-38
-37
-37
-36
-34
-32
-31
-30
-29
-27
-26
-25
-23
-22
-20
-20
-18
-16
-15
-13
-12
-10
-10
-8
-6
-3
-2
0
2
3
5
6
9
10
12
13
14
15
17
19
20
21
22
23
25
26
26
28
28
29
30
31
32
34
34
35
36
37
37
37
37
38
38
38
38
38
38
38
37
38
38
38
39
39
39
39
39
39
40
40
39
40
39
40
40
40
40
41
41
41
41
42
41
41
42
41
41
41
41
42
41
41
41
41
41
42
43
43
42
41
42
42
42
42
42
42
42
42
43
42
43
43
42
42
43
42
42
41
41
41
41
41
41
41
42
42
42
43
43
44
43
43
44
45
45
45
45
45
44
45
45
45
46
46
45
44
44
43
43
42
41
41
41
41
41
41
42
42
42
42
43
44
44
45
44
45
45
45
46
47
47
49
48
49
50
51
50
50
50
50
50
50
50
49
49
48
48
48
46
46
46
44
43
43
43
43
42
42
42
41
42
41
42
43
44
44
45
45
47
47
48
48
50
50
51
52
52
53
53
52
54
53
54
54
54
53
53
53
53
52
51
50
49
48
48
48
48
46
47
46
45
45
45
44
43
43
43
43
44
43
43
43
42
42
43
43
43
42
42
42
43
42
42
42
42
42
42
42
42
42
42
42
41
41
42
42
42
41
40
40
39
40
40
38
39
38
37
36
35
35
35
34
33
33
34
35
35
34
35
34
34
35
35
35
35
35
36
37
36
36
37
37
36
36
36
36
36
37
36
35
35
36
35
35
35
35
35
35
35
36
35
35
36
36
36
36
36
36
36
35
35
36
35
35
34
35
34
34
34
34
33
33
33
33
33
33
33
33
33
34
34
35
36
36
37
38
39
39
40
40
40
40
40
40
41
41
41
42
41
41
42
42
42
42
42
42
43
43
44
45
45
46
47
49
49
52
52
52
53
54
55
55
57
56
57
57
56
56
55
55
54
53
52
51
50
49
48
47
46
44
43
41
40
39
37
36
34
32
32
30
30
29
28
27
26
26
25
24
23
21
22
21
21
21
20
20
20
20
21
20
20
19
19
20
20
21
21
21
21
21
21
21
22
21
20
19
18
18
17
16
16
15
16
15
15
15
15
14
13
14
14
15
15
16
17
18
19
20
21
22
23
23
23
25
26
25
26
26
26
26
27
27
27
27
26
26
26
26
27
26
25
25
24
24
24
24
24
23
23
23
23
22
21
21
21
21
21
21
21
21
21
21
21
22
22
23
23
24
24
25
25
26
27
28
28
28
28
29
29
30
30
31
30
31
31
31
32
31
31
30
30
31
30
30
30
31
30
30
31
30
30
29
29
30
30
31
32
32
32
32
33
35
35
36
37
37
39
41
42
43
44
46
47
48
50
51
53
53
53
53
54
54
53
53
53
53
52
52
53
53
53
53
53
55
56
59
61
62
65
69
73
77
82
88
94
100
107
114
121
128
136
143
151
160
168
177
185
193
201
210
217
225
234
242
249
257
266
273
281
288
294
300
305
311
316
322
327
332
339
345
351
357
364
371
378
385
393
402
410
419
429
438
446
455
464
472
480
487
494
500
507
513
519
524
527
530
533
536
539
541
543
546
548
550
552
553
554
553
553
551
549
545
539
532
523
513
500
486
471
455
436
416
395
374
354
333
311
290
268
248
229
211
194
177
162
149
136
126
117
109
101
95
90
85
81
78
75
72
68
66
64
62
60
58
57
54
54
51
51
50
48
46
45
44
42
41
40
38
37
36
36
34
33
32
31
30
29
28
27
27
25
23
23
22
22
22
21
20
20
19
20
19
19
19
19
18
17
17
18
19
18
18
17
17
17
17
17
16
15
15
14
15
14
13
13
13
13
12
12
11
11
11
10
9
9
8
8
7
7
8
7
8
8
8
7
7
6
7
7
7
7
7
7
9
9
10
10
10
10
9
9
10
10
10
10
10
11
11
11
12
12
11
10
10
11
10
10
9
7
8
7
7
7
8
7
7
6
6
5
5
5
3
3
3
4
4
4
4
3
4
3
4
3
4
3
2
1
2
2
3
3
2
2
2
3
3
3
3
2
2
2
2
1
2
2
2
1
1
1
1
0
0
0
-1
-1
-1
-1
-1
-2
-2
-2
-3
-3
-3
-3
-4
-5
-5
-6
-6
-7
-7
-8
-9
-8
-9
-9
-11
-11
-12
-12
-13
-14
-15
-15
-17
-17
-17
-17
-18
-19
-20
-20
-21
-22
-22
-22
-22
-24
-23
-23
-23
-23
-24
-24
-25
-25
-26
-27
-26
-28
-28
-28
-29
-30
-30
-32
-34
-35
-36
-36
-37
-38
-38
-40
-41
-41
-42
-43
-43
-44
-44
-44
-44
-44
-43
-43
-42
-42
-43
-41
-41
-40
-41
-41
-41
-41
-41
-40
-40
-41
-42
-41
-41
-41
-40
-39
-40
-40
-40
-40
-39
-40
-38
-38
-38
-37
-36
-35
-34
-33
-33
-33
-32
-32
-31
-29
-29
-28
-28
-27
-26
-26
-25
-25
-24
-23
-21
-20
-19
-18
-17
-16
-14
-12
-11
-9
-8
-6
-5
-2
0
2
3
4
6
8
9
11
12
14
14
15
16
16
18
19
19
20
20
21
21
22
23
22
22
21
22
22
22
22
22
21
22
21
22
22
22
22
21
22
22
22
22
23
22
22
22
23
23
23
22
23
23
24
23
23
24
23
23
24
25
24
25
24
25
24
25
26
26
25
25
26
26
26
27
27
27
26
26
27
27
28
28
27
27
27
27
28
27
27
26
26
26
26
26
26
25
25
25
24
25
25
25
24
24
24
24
25
25
24
25
25
26
26
27
27
27
27
27
28
28
29
29
29
29
29
30
30
30
30
29
29
30
30
31
31
31
30
31
31
32
32
32
32
32
32
32
33
34
34
34
35
35
36
36
36
36
36
36
36
37
37
37
37
37
36
37
36
36
36
36
35
36
36
36
36
36
36
36
36
37
37
38
38
38
38
39
39
39
38
39
38
39
39
39
38
38
38
37
37
37
36
36
37
36
36
36
37
37
37
37
37
36
37
37
37
37
37
37
37
38
37
37
37
36
36
35
36
35
35
34
34
34
34
34
33
33
33
32
33
33
33
33
33
32
32
33
34
33
33
32
31
32
33
33
33
32
32
31
32
32
32
32
31
31
31
31
31
31
30
30
30
29
30
30
29
30
29
28
28
29
29
28
28
28
28
27
28
28
28
28
28
29
29
29
29
29
29
28
29
30
29
29
28
29
28
29
28
28
28
27
27
26
27
27
27
26
26
25
25
26
25
24
23
23
22
21
21
20
19
18
17
18
18
17
17
17
17
17
17
18
19
20
20
22
23
25
27
28
30
30
32
34
35
38
38
39
40
40
41
42
43
44
45
45
45
46
48
48
48
49
49
50
51
51
52
53
52
52
53
53
53
52
52
51
50
49
48
46
45
44
41
40
39
37
35
33
32
29
28
27
26
24
23
22
20
21
19
19
19
18
18
18
18
18
18
17
17
17
18
17
18
17
17
16
17
16
16
16
16
16
15
15
14
15
14
13
12
13
13
12
13
12
11
11
11
11
10
10
9
9
8
9
8
9
8
7
7
6
6
6
6
6
5
5
5
5
5
6
5
5
6
5
6
6
6
6
6
6
7
7
8
8
7
7
7
7
7
7
7
7
7
7
7
8
8
7
6
6
5
6
6
6
5
5
5
6
5
5
4
4
4
4
5
5
5
4
4
4
5
5
5
5
5
5
4
4
5
4
4
4
3
4
4
5
4
4
4
4
4
4
5
4
4
3
3
4
4
5
5
5
6
6
7
8
8
10
10
11
12
14
16
16
17
19
20
21
23
25
26
26
28
29
30
30
30
30
30
30
30
30
30
29
29
28
28
29
30
31
32
33
36
39
42
46
51
55
60
65
72
78
85
92
99
107
114
123
130
138
146
154
162
170
178
186
194
201
208
216
224
232
240
248
254
261
267
274
280
285
291
296
303
309
315
321
327
334
340
347
354
362
370
378
386
394
403
412
421
429
436
444
450
458
464
470
476
481
486
489
493
497
499
502
503
505
508
510
513
514
516
516
516
516
514
512
508
503
496
487
477
467
454
439
422
404
385
365
345
325
304
282
262
241
221
201
183
166
149
135
121
109
99
89
81
73
67
62
57
53
48
45
43
41
38
37
34
32
30
28
25
24
23
21
19
16
14
13
12
11
9
7
5
5
3
3
2
0
-1
-3
-4
-5
-6
-8
-9
-10
-10
-11
-11
-12
-14
-15
-15
-16
-16
-16
-17
-17
-18
-18
-17
-18
-18
-18
-19
-19
-19
-19
-19
-19
-19
-21
-20
-21
-20
-20
-21
-21
-21
-21
-21
-21
-21
-21
-22
-22
-22
-23
-22
-22
-23
-24
-24
-25
-24
-25
-25
-25
-26
-26
-25
-26
-25
-26
-27
-26
-26
-27
-27
-27
-28
-27
-28
-27
-28
-27
-27
-28
-29
-29
-28
-28
-29
-29
-29
-29
-29
-29
-29
-30
-29
-30
-31
-30
-30
-31
-31
-31
-32
-32
-32
-32
-32
-33
-33
-34
-34
-34
-34
-34
-34
-35
-35
-35
-35
-34
-35
-35
-36
-36
-37
-37
-37
-37
-38
-38
-38
-39
-38
-38
-39
-40
-40
-40
-40
-40
-41
-41
-42
-42
-43
-42
-43
-43
-43
-44
-44
-44
-44
-44
-45
-45
-47
-47
-47
-47
-48
-48
-49
-49
-49
-49
-49
-50
-51
-52
-52
-52
-52
-53
-54
-54
-55
-55
-56
-56
-57
-57
-58
-59
-60
-60
-61
-62
-63
-64
-66
-67
-67
-68
-69
-70
-71
-72
-72
-73
-74
-75
-76
-76
-78
-78
-78
-80
-80
-81
-82
-83
-83
-84
-85
-86
-86
-87
-88
-88
-88
-90
-91
-92
-92
-93
-94
-95
-96
-97
-98
-99
-98
-100
-100
-101
-102
-102
-102
-103
-103
-103
-104
-104
-104
-104
-104
-104
-104
-104
-104
-103
-104
-103
-103
-103
-103
-102
-102
-102
-102
-101
-101
-100
-99
-98
-98
-96
-96
-96
-94
-93
-91
-90
-89
-88
-88
-86
-84
-83
-82
-82
-80
-78
-77
-75
-75
-73
-71
-70
-69
-67
-65
-64
-62
-60
-59
-57
-54
-52
-51
-50
-49
-47
-45
-44
-42
-41
-41
-41
-40
-39
-37
-36
-36
-35
-34
-33
-31
-30
-30
-29
-28
-28
-27
-25
-25
-24
-24
-23
-22
-21
-20
-20
-19
-19
-19
-18
-17
-17
-17
-17
-17
-16
-16
-16
-16
-16
-16
-16
-16
-16
-16
-16
-16
-17
-17
-17
-17
-17
-18
-18
-19
-19
-19
-20
-19
-20
-21
-22
-22
-22
-21
-21
-22
-22
-22
-22
-22
-21
-21
-21
-20
-21
-20
-19
-19
-18
-18
-18
-17
-18
-17
-17
-17
-16
-16
-15
-15
-15
-15
-15
-15
-15
-15
-15
-14
-16
-15
-15
-16
-15
-15
-15
-15
-15
-15
-15
-15
-14
-15
-15
-15
-15
-15
-15
-15
-14
-15
-15
-14
-14
-14
-14
-14
-15
-14
-13
-13
-12
-11
-12
-12
-12
-11
-11
-9
-10
-10
-9
-9
-9
-8
-8
-9
-8
-9
-8
-8
-7
-7
-8
-7
-8
-7
-6
-6
-6
-6
-6
-6
-6
-5
-5
-5
-5
-5
-4
-3
-3
-3
-2
-3
-2
-2
-2
-2
-2
-3
-3
-3
-4
-3
-3
-4
-4
-4
-5
-4
-3
-4
-4
-3
-3
-4
-3
-3
-3
-3
-4
-4
-3
-3
-4
-3
-4
-4
-3
-4
-4
-4
-5
-6
-6
-6
-6
-6
-6
-6
-6
-6
-6
-6
-7
-7
-7
-8
-7
-8
-7
-8
-8
-9
-9
-9
-8
-9
-10
-9
-10
-10
-9
-10
-10
-10
-11
-11
-11
-11
-10
-11
-11
-11
-11
-10
-10
-10
-9
-9
-9
-8
-8
-7
-7
-7
-7
-6
-6
-6
-5
-4
-5
-5
-5
-5
-5
-5
-5
-6
-6
-6
-6
-6
-6
-8
-8
-8
-9
-8
-9
-9
-11
-12
-12
-12
-13
-14
-15
-16
-16
-17
-17
-18
-18
-19
-21
-21
-21
-22
-21
-22
-22
-23
-23
-23
-22
-22
-23
-24
-24
-24
-24
-25
-25
-26
-25
-25
-25
-25
-23
-24
-23
-22
-21
-21
-19
-18
-17
-16
-15
-13
-11
-10
-8
-8
-7
-7
-5
-5
-4
-3
-3
-3
-2
-1
-1
-1
-1
-1
0
0
0
1
1
2
2
2
2
3
2
3
2
1
2
2
1
0
0
-2
-3
-4
-5
-6
-8
-10
-13
-14
-16
-16
-18
-20
-22
-24
-25
-26
-28
-29
-30
-32
-33
-33
-34
-34
-36
-36
-36
-36
-36
-36
-35
-36
-36
-36
-37
-36
-35
-36
-36
-37
-37
-37
-36
-36
-37
-37
-37
-37
-37
-36
-37
-36
-37
-37
-37
-37
-36
-36
-36
-36
-36
-36
-36
-35
-35
-36
-35
-35
-35
-34
-34
-34
-34
-34
-34
-33
-33
-32
-33
-33
-33
-33
-32
-33
-33
-33
-33
-33
-33
-32
-33
-33
-33
-34
-34
-34
-34
-34
-35
-34
-35
-35
-35
-35
-35
-36
-36
-36
-36
-36
-35
-35
-35
-36
-36
-35
-35
-35
-34
-35
-35
-35
-34
-34
-34
-34
-33
-33
-32
-32
-32
-32
-32
-33
-33
-32
-33
-33
-33
-34
-35
-36
-35
-36
-36
-37
-37
-38
-38
-37
-37
-38
-37
-37
-36
-35
-34
-33
-32
-31
-31
-28
-26
-24
-23
-21
-20
-19
-17
-15
-14
-13
-12
-10
-10
-9
-7
-7
-6
-6
-7
-7
-7
-7
-8
-9
-10
-10
-10
-10
-10
-10
-11
-10
-10
-9
-6
-5
-3
0
3
7
12
17
22
27
33
40
47
54
62
69
76
84
93
102
110
119
126
134
141
150
157
165
173
180
186
194
202
211
217
223
230
235
241
248
254
260
265
271
277
284
290
297
304
311
318
326
335
343
352
360
369
376
385
394
402
410
417
425
432
438
446
452
458
462
466
470
475
478
481
485
487
490
493
495
497
498
497
497
495
492
488
483
475
466
455
443
430
414
396
378
358
337
316
295
274
251
229
207
186
167
148
130
113
97
83
71
60
50
41
33
26
20
14
10
7
4
0
-3
-4
-6
-8
-9
-11
-14
-15
-17
-19
-20
-20
-22
-24
-25
-26
-27
-28
-29
-31
-32
-34
-34
-36
-36
-38
-38
-40
-40
-42
-42
-42
-43
-45
-45
-45
-45
-45
-45
-47
-48
-49
-49
-50
-51
-50
-52
-53
-53
-53
-54
-55
-56
-56
-57
-58
-59
-59
-60
-60
-61
-62
-63
-63
-63
-64
-65
-65
-65
-66
-66
-65
-65
-66
-66
-66
-66
-66
-66
-66
-66
-66
-66
-65
-65
-64
-64
-65
-64
-64
-63
-63
-63
-64
-64
-64
-64
-64
-64
-64
-64
-64
-64
-64
-64
-64
-64
-64
-64
-64
-63
-63
-63
-62
-62
-61
-61
-60
-59
-59
-60
-60
-60
-59
-59
-60
-61
-62
-63
-63
-63
-64
-64
-65
-66
-67
-67
-68
-68
-68
-69
-70
-70
-69
-69
-70
-70
-70
-70
-70
-69
-69
-68
-68
-69
-69
-69
-69
-69
-70
-70
-70
-70
-70
-71
-71
-72
-72
-73
-72
-73
-74
-73
-74
-74
-75
-74
-73
-74
-75
-75
-75
-75
-75
-75
-76
-76
-76
-75
-76
-75
-76
-76
-78
-78
-79
-79
-79
-80
-80
-81
-81
-82
-82
-82
-83
-84
-84
-85
-86
-85
-85
-86
-88
-88
-89
-89
-89
-90
-91
-92
-92
-93
-93
-94
-95
-96
-97
-98
-99
-100
-101
-102
-103
-103
-104
-104
-105
-105
-106
-108
-108
-109
-109
-110
-110
-111
-112
-111
-112
-113
-113
-113
-114
-115
-115
-114
-115
-115
-115
-117
-116
-116
-117
-116
-117
-117
-117
-117
-117
-117
-118
-118
-119
-120
-119
-120
-120
-120
-121
-121
-121
-122
-121
-121
-121
-122
-122
-122
-120
-120
-118
-118
-117
-116
-115
-113
-111
-109
-108
-106
-105
-103
-100
-98
-96
-94
-92
-90
-88
-86
-84
-83
-81
-79
-77
-75
-74
-72
-71
-70
-69
-68
-66
-64
-64
-64
-62
-61
-61
-60
-60
-60
-60
-59
-58
-58
-57
-57
-57
-56
-56
-56
-56
-54
-55
-54
-54
-53
-53
-52
-50
-49
-49
-48
-46
-45
-44
-43
-42
-42
-41
-40
-39
-38
-38
-37
-37
-36
-36
-35
-36
-35
-36
-37
-37
-37
-37
-37
-38
-39
-39
-40
-40
-39
-40
-40
-40
-40
-40
-41
-41
-41
-41
-42
-40
-40
-40
-40
-39
-39
-39
-38
-37
-36
-36
-35
-36
-35
-34
-34
-33
-33
-33
-34
-33
-34
-35
-35
-35
-36
-38
-37
-39
-38
-39
-40
-40
-41
-40
-40
-41
-41
-42
-43
-42
-42
-41
-41
-41
-41
-41
-41
-40
-39
-39
-39
-39
-39
-38
-37
-37
-37
-37
-37
-36
-35
-36
-35
-36
-36
-36
-36
-36
-36
-36
-37
-38
-37
-37
-37
-37
-38
-38
-38
-38
-37
-37
-38
-37
-38
-38
-38
-38
-38
-38
-38
-38
-38
-37
-37
-36
-36
-37
-37
-36
-36
-36
-36
-36
-36
-37
-37
-37
-38
-37
-38
-38
-38
-38
-38
-38
-39
-40
-41
-41
-41
-40
-40
-40
-41
-40
-40
-40
-40
-40
-40
-41
-41
-40
-39
-39
-39
-39
-40
-38
-38
-38
-37
-37
-36
-36
-36
-34
-34
-35
-34
-35
-35
-35
-35
-35
-36
-37
-36
-37
-38
-38
-38
-39
-39
-40
-39
-39
-39
-40
-40
-39
-39
-39
-38
-37
-38
-38
-38
-38
-37
-36
-36
-37
-38
-38
-37
-38
-38
-38
-39
-40
-40
-40
-40
-40
-41
-41
-42
-42
-42
-41
-41
-42
-42
-42
-42
-42
-42
-42
-42
-43
-43
-42
-41
-42
-42
-43
-43
-43
-42
-43
-44
-44
-44
-44
-45
-45
-46
-46
-47
-47
-48
-48
-48
-49
-50
-51
-52
-51
-51
-51
-51
-52
-52
-52
-52
-52
-51
-52
-51
-52
-52
-50
-50
-50
-50
-50
-50
-50
-49
-49
-49
-49
-49
-48
-48
-47
-46
-45
-45
-44
-43
-41
-40
-39
-37
-37
-36
-35
-32
-31
-30
-29
-29
-29
-28
-27
-26
-26
-26
-26
-25
-25
-25
-24
-25
-26
-26
-26
-25
-26
-26
-26
-27
-27
-27
-27
-28
-29
-29
-31
-31
-32
-32
-34
-35
-37
-38
-39
-40
-41
-41
-43
-44
-45
-45
-47
-47
-49
-49
-50
-51
-51
-51
-52
-53
-54
-54
-54
-55
-54
-54
-55
-56
-56
-56
-57
-57
-58
-58
-59
-59
-59
-60
-60
-61
-62
-63
-64
-64
-65
-65
-66
-66
-67
-67
-66
-66
-66
-67
-66
-66
-65
-64
-64
-63
-63
-62
-61
-61
-60
-59
-60
-59
-60
-59
-59
-59
-59
-60
-60
-60
-60
-59
-59
-59
-60
-60
-60
-60
-59
-59
-60
-59
-59
-59
-58
-58
-58
-59
-58
-58
-58
-57
-57
-58
-58
-58
-57
-57
-58
-58
-58
-59
-59
-60
-61
-61
-62
-63
-64
-64
-65
-65
-65
-66
-67
-66
-67
-66
-66
-65
-65
-65
-65
-64
-62
-61
-60
-60
-59
-58
-56
-55
-55
-54
-54
-53
-52
-52
-50
-51
-51
-50
-51
-51
-51
-51
-51
-52
-51
-51
-51
-51
-50
-50
-50
-50
-48
-48
-47
-45
-44
-43
-43
-40
-39
-38
-36
-36
-35
-34
-33
-33
-33
-33
-32
-33
-34
-33
-34
-35
-36
-36
-36
-37
-37
-37
-37
-38
-36
-34
-30
-26
-22
-17
-13
-7
-1
6
13
21
28
36
44
54
63
72
81
90
98
107
116
124
132
139
147
154
163
172
179
187
194
200
207
213
220
225
231
235
241
247
253
258
263
270
276
282
289
297
305
313
321
330
338
348
357
367
375
384
393
402
411
420
427
434
441
447
453
457
462
465
468
470
473
476
479
480
481
480
479
478
476
472
467
460
452
441
431
418
404
388
370
351
332
312
290
269
247
225
204
182
163
144
125
108
91
77
63
52
41
31
23
15
9
3
0
-4
-8
-11
-14
-16
-17
-18
-19
-20
-22
-23
-23
-23
-25
-26
-26
-27
-28
-29
-29
-31
-31
-33
-35
-37
-38
-40
-41
-43
-46
-49
-51
-54
-55
-58
-61
-63
-65
-66
-68
-70
-71
-73
-74
-74
-75
-76
-76
-76
-76
-77
-77
-76
-76
-76
-76
-76
-77
-76
-77
-76
-77
-77
-78
-78
-78
-78
-78
-79
-79
-80
-79
-80
-79
-80
-79
-80
-79
-80
-79
-79
-79
-80
-81
-80
-80
-81
-81
-82
-83
-82
-82
-82
-82
-81
-82
-82
-83
-82
-81
-82
-82
-82
-81
-81
-79
-80
-79
-79
-80
-81
-80
-81
-82
-83
-84
-84
-84
-85
-85
-85
-86
-87
-87
-88
-87
-87
-86
-86
-86
-86
-85
-85
-84
-85
-84
-84
-83
-83
-82
-83
-82
-83
-83
-83
-83
-83
-83
-84
-84
-85
-85
-85
-85
-86
-87
-87
-87
-87
-87
-87
-88
-88
-88
-88
-88
-88
-88
-89
-89
-89
-90
-90
-90
-91
-92
-92
-93
-93
-93
-93
-93
-93
-92
-92
-92
-92
-92
-93
-93
-94
-94
-95
-95
-96
-97
-98
-98
-100
-100
-100
-101
-103
-104
-104
-103
-103
-104
-104
-104
-103
-103
-102
-101
-101
-101
-100
-99
-99
-99
-99
-99
-100
-101
-101
-101
-101
-103
-103
-104
-105
-105
-106
-106
-107
-108
-108
-109
-109
-109
-110
-110
-111
-112
-112
-112
-112
-113
-114
-116
-116
-118
-119
-120
-121
-123
-124
-126
-127
-128
-129
-131
-132
-133
-134
-135
-135
-136
-135
-136
-136
-136
-135
-135
-135
-134
-134
-134
-133
-132
-132
-132
-132
-132
-130
-130
-129
-128
-128
-127
-127
-126
-126
-125
-125
-124
-124
-124
-122
-122
-120
-120
-118
-117
-116
-115
-113
-111
-110
-110
-108
-108
-105
-105
-104
-103
-102
-101
-100
-98
-96
-96
-94
-93
-92
-90
-89
-88
-86
-86
-85
-83
-81
-79
-77
-77
-75
-74
-73
-72
-70
-69
-69
-69
-68
-68
-67
-67
-68
-68
-67
-67
-67
-66
-66
-66
-65
-64
-63
-63
-62
-61
-61
-60
-60
-58
-58
-57
-56
-55
-54
-54
-53
-53
-53
-53
-53
-53
-52
-53
-53
-53
-53
-54
-53
-54
-53
-53
-54
-54
-55
-54
-54
-55
-55
-56
-57
-58
-57
-58
-59
-59
-60
-60
-61
-60
-60
-61
-62
-62
-62
-61
-61
-61
-61
-60
-60
-61
-60
-60
-59
-60
-60
-59
-59
-59
-58
-58
-58
-58
-57
-57
-55
-55
-54
-54
-54
-53
-53
-52
-51
-51
-52
-52
-52
-52
-52
-52
-52
-53
-53
-53
-53
-53
-53
-53
-53
-53
-52
-51
-50
-51
-51
-50
-49
-48
-47
-47
-48
-48
-48
-49
-49
-49
-50
-49
-49
-49
-50
-50
-49
-49
-49
-49
-49
-48
-47
-46
-46
-47
-46
-45
-45
-44
-44
-44
-43
-43
-42
-43
-42
-43
-43
-43
-43
-43
-42
-42
-43
-42
-42
-42
-41
-42
-42
-42
-42
-43
-42
-42
-41
-42
-43
-43
-43
-43
-43
-44
-44
-45
-44
-45
-44
-45
-46
-46
-46
-46
-46
-46
-45
-47
-47
-47
-47
-46
-46
-47
-47
-47
-47
-46
-47
-46
-45
-46
-46
-45
-45
-44
-44
-44
-44
-45
-44
-44
-43
-43
-43
-44
-44
-44
-44
-44
-45
-45
-46
-46
-46
-47
-47
-48
-49
-49
-49
-49
-49
-50
-51
-52
-53
-52
-53
-53
-54
-54
-55
-55
-55
-55
-56
-55
-55
-55
-54
-54
-53
-52
-51
-52
-50
-50
-48
-47
-47
-46
-46
-45
-45
-43
-44
-44
-45
-45
-45
-45
-46
-46
-47
-48
-48
-48
-48
-49
-49
-50
-50
-50
-50
-49
-49
-50
-50
-50
-49
-49
-49
-49
-50
-50
-50
-49
-48
-47
-47
-47
-47
-46
-46
-45
-44
-43
-43
-42
-40
-40
-39
-37
-37
-35
-35
-34
-33
-32
-32
-31
-31
-30
-30
-29
-28
-27
-28
-27
-26
-24
-24
-23
-23
-23
-22
-21
-20
-20
-19
-19
-19
-19
-19
-20
-20
-22
-23
-24
-26
-27
-28
-30
-32
-35
-36
-38
-39
-41
-41
-43
-45
-46
-47
-48
-49
-50
-50
-51
-52
-52
-52
-52
-53
-53
-54
-54
-54
-54
-55
-54
-55
-55
-55
-55
-55
-56
-55
-56
-55
-54
-55
-55
-55
-55
-55
-55
-55
-54
-55
-56
-55
-56
-55
-54
-54
-55
-56
-56
-55
-55
-56
-57
-58
-58
-58
-57
-58
-57
-57
-57
-57
-57
-56
-55
-55
-54
-53
-53
-52
-51
-51
-50
-49
-49
-48
-47
-46
-46
-45
-46
-47
-47
-46
-47
-46
-46
-47
-47
-47
-47
-48
-48
-48
-48
-47
-48
-47
-47
-47
-48
-47
-47
-46
-45
-45
-44
-44
-43
-43
-42
-41
-41
-41
-41
-41
-40
-40
-39
-40
-40
-41
-41
-41
-41
-42
-43
-43
-44
-44
-45
-44
-45
-46
-46
-47
-47
-48
-48
-48
-48
-49
-49
-48
-48
-48
-48
-48
-48
-48
-47
-46
-45
-44
-43
-42
-41
-38
-37
-36
-35
-32
-31
-28
-27
-25
-25
-23
-23
-22
-21
-20
-21
-22
-22
-23
-23
-23
-24
-25
-26
-28
-28
-28
-27
-27
-26
-25
-23
-20
-17
-13
-8
-4
1
7
13
20
27
34
41
48
56
65
73
81
89
97
105
114
122
130
138
145
153
162
170
178
187
195
203
210
217
225
231
237
244
249
256
261
268
275
281
286
292
299
306
314
321
329
337
344
353
362
370
378
386
393
401
409
416
424
430
435
442
447
451
455
459
462
465
468
471
474
476
478
479
480
479
478
477
473
468
462
454
445
434
422
408
392
375
357
338
319
298
277
256
235
214
193
174
155
137
120
104
89
75
64
53
43
36
28
22
16
12
8
4
0
-2
-4
-7
-8
-10
-12
-14
-15
-17
-18
-20
-21
-23
-25
-27
-29
-31
-33
-34
-36
-38
-40
-41
-42
-45
-46
-48
-50
-50
-51
-52
-53
-54
-55
-55
-56
-56
-57
-57
-58
-59
-59
-58
-58
-59
-60
-60
-61
-60
-60
-61
-62
-63
-63
-63
-64
-65
-66
-67
-67
-67
-67
-67
-66
-66
-67
-66
-65
-65
-64
-64
-64
-62
-62
-61
-61
-60
-59
-59
-59
-59
-58
-58
-58
-59
-59
-60
-60
-60
-60
-60
-61
-62
-62
-63
-63
-64
-64
-65
-65
-66
-65
-66
-66
-66
-67
-67
-67
-67
-67
-67
-66
-67
-67
-67
-67
-67
-67
-67
-68
-68
-67
-66
-67
-66
-67
-67
-67
-68
-67
-67
-68
-68
-69
-69
-68
-69
-69
-69
-68
-69
-68
-69
-68
-69
-69
-68
-68
-69
-68
-68
-69
-68
-69
-69
-69
-68
-69
-69
-69
-70
-70
-70
-70
-70
-71
-71
-71
-71
-72
-72
-72
-73
-72
-73
-72
-72
-73
-73
-73
-73
-73
-74
-73
-74
-74
-75
-75
-76
-76
-76
-77
-77
-78
-78
-78
-78
-79
-80
-81
-82
-81
-82
-82
-82
-82
-83
-83
-84
-83
-84
-84
-85
-84
-85
-85
-86
-87
-87
-87
-88
-89
-89
-89
-90
-91
-91
-92
-93
-93
-94
-94
-96
-97
-97
-97
-98
-99
-99
-100
-101
-101
-101
-102
-102
-103
-103
-104
-105
-104
-106
-106
-107
-108
-108
-109
-108
-109
-110
-110
-110
-110
-110
-110
-111
-110
-111
-111
-111
-111
-111
-111
-111
-111
-112
-111
-112
-111
-112
-112
-112
-112
-112
-111
-111
-111
-111
-111
-111
-111
-110
-111
-110
-109
-108
-107
-106
-106
-104
-104
-102
-100
-98
-96
-95
-93
-92
-90
-88
-86
-84
-82
-81
-78
-75
-73
-71
-69
-68
-66
-63
-61
-59
-57
-55
-53
-52
-50
-49
-47
-45
-44
-42
-41
-40
-39
-38
-37
-37
-37
-36
-35
-34
-34
-34
-34
-33
-33
-32
-32
-32
-32
-33
-33
-32
-31
-30
-30
-31
-31
-31
-30
-30
-30
-29
-30
-29
-29
-29
-28
-28
-28
-28
-28
-28
-27
-27
-27
-27
-28
-27
-28
-27
-27
-27
-28
-28
-28
-27
-28
-28
-27
-27
-28
-27
-27
-27
-26
-27
-26
-26
-26
-25
-25
-25
-25
-25
-24
-24
-24
-24
-24
-24
-24
-24
-23
-23
-24
-23
-24
-24
-23
-23
-22
-23
-23
-22
-23
-23
-24
-24
-24
-24
-24
-24
-23
-23
-23
-24
-23
-23
-24
-23
-23
-23
-23
-24
-23
-22
-23
-22
-23
-23
-23
-22
-23
-22
-23
-24
-23
-23
-24
-23
-23
-23
-24
-23
-23
-23
-23
-22
-23
-23
-23
-23
-23
-22
-22
-22
-22
-22
-21
-21
-20
-20
-20
-20
-20
-20
-19
-19
-19
-20
-20
-20
-19
-18
-19
-19
-19
-19
-19
-19
-19
-19
-19
-20
-19
-20
-19
-19
-19
-19
-19
-19
-18
-18
-18
-18
-18
-18
-17
-17
-17
-17
-18
-18
-18
-18
-18
-18
-18
-20
-20
-20
-20
-21
-20
-21
-21
-20
-20
-21
-20
-20
-20
-21
-20
-20
-19
-19
-18
-19
-19
-19
-19
-19
-19
-20
-20
-20
-20
-20
-20
-21
-22
-23
-23
-23
-24
-24
-25
-24
-25
-24
-24
-25
-25
-25
-25
-25
-25
-24
-24
-24
-24
-23
-23
-23
-23
-23
-24
-23
-24
-24
-23
-24
-23
-24
-25
-25
-26
-25
-25
-25
-26
-26
-26
-25
-26
-25
-25
-25
-26
-26
-25
-25
-26
-25
-26
-25
-25
-25
-25
-26
-26
-26
-26
-27
-26
-26
-27
-27
-27
-27
-27
-27
-27
-27
-28
-28
-27
-28
-27
-28
-29
-28
-29
-29
-29
-30
-30
-30
-31
-30
-29
-29
-29
-29
-29
-27
-27
-26
-25
-24
-23
-22
-21
-19
-18
-17
-16
-15
-13
-12
-11
-10
-9
-8
-8
-7
-6
-5
-5
-5
-4
-4
-4
-3
-3
-3
-4
-4
-4
-4
-5
-5
-6
-7
-8
-9
-10
-11
-12
-13
-15
-17
-18
-19
-20
-21
-23
-25
-25
-27
-28
-29
-29
-31
-32
-33
-33
-34
-35
-35
-36
-35
-36
-35
-36
-36
-37
-36
-37
-37
-36
-36
-37
-37
-37
-37
-37
-37
-37
-38
-38
-39
-39
-39
-39
-39
-40
-40
-41
-41
-40
-40
-41
-41
-41
-41
-41
-40
-41
-42
-41
-42
-41
-41
-41
-41
-41
-41
-40
-40
-40
-40
-39
-39
-39
-38
-38
-38
-37
-37
-38
-37
-38
-37
-37
-37
-37
-38
-38
-38
-38
-37
-38
-39
-39
-38
-38
-37
-37
-37
-37
-37
-36
-37
-36
-36
-36
-36
-35
-35
-35
-36
-35
-36
-36
-36
-36
-36
-36
-36
-37
-37
-37
-37
-37
-37
-38
-38
-38
-37
-37
-37
-38
-38
-39
-39
-39
-38
-38
-39
-40
-40
-40
-40
-39
-40
-40
-40
-40
-39
-40
-40
-39
-40
-40
-39
-38
-38
-38
-37
-37
-37
-37
-36
-35
-35
-35
-34
-33
-34
-32
-31
-30
-29
-29
-27
-26
-25
-24
-23
-22
-23
-23
-23
-22
-23
-23
-25
-25
-25
-26
-26
-27
-28
-28
-29
-28
-27
-25
-24
-22
-20
-16
-12
-6
-1
4
11
16
24
31
39
46
53
61
69
78
87
95
104
111
119
127
135
142
150
157
166
174
183
191
198
205
212
218
225
232
238
245
252
258
265
273
280
288
295
303
311
318
328
337
346
355
365
374
384
393
402
410
418
426
435
443
452
460
467
474
480
485
492
498
503
508
513
518
523
529
533
536
538
539
538
536
532
527
519
510
497
483
467
450
431
409
386
364
340
315
290
266
241
216
193
171
151
131
113
96
81
68
56
47
38
30
24
19
14
11
8
5
3
0
-2
-4
-5
-7
-8
-10
-13
-15
-17
-19
-21
-23
-25
-27
-29
-30
-32
-33
-35
-37
-39
-40
-41
-42
-42
-44
-45
-46
-47
-48
-49
-49
-50
-52
-51
-52
-52
-52
-53
-53
-54
-54
-54
-54
-55
-54
-54
-55
-54
-54
-54
-55
-56
-56
-57
-56
-56
-57
-57
-57
-58
-59
-58
-59
-59
-60
-60
-61
-61
-62
-62
-62
-63
-63
-63
-63
-64
-63
-63
-63
-64
-63
-64
-63
-64
-64
-65
-64
-64
-64
-64
-64
-65
-66
-66
-66
-65
-66
-66
-67
-68
-68
-67
-68
-68
-69
-68
-69
-70
-69
-69
-70
-70
-70
-70
-70
-70
-70
-70
-70
-71
-71
-70
-70
-70
-71
-71
-71
-71
-70
-70
-70
-70
-71
-70
-70
-70
-70
-71
-70
-71
-71
-70
-70
-70
-70
-71
-71
-71
-71
-71
-71
-72
-72
-72
-71
-72
-72
-71
-72
-73
-73
-73
-73
-73
-74
-75
-74
-75
-75
-75
-74
-75
-75
-75
-75
-75
-75
-75
-76
-76
-76
-76
-76
-76
-76
-76
-77
-77
-77
-77
-78
-79
-80
-80
-80
-80
-81
-81
-83
-83
-84
-84
-84
-85
-86
-87
-87
-88
-88
-88
-89
-89
-90
-90
-90
-90
-91
-92
-92
-93
-94
-94
-94
-95
-95
-97
-97
-97
-98
-99
-100
-100
-102
-102
-103
-103
-103
-104
-105
-106
-106
-107
-107
-107
-108
-109
-109
-110
-111
-111
-112
-113
-114
-114
-114
-115
-115
-116
-117
-117
-118
-118
-119
-119
-120
-120
-120
-120
-121
-120
-120
-120
-120
-119
-119
-119
-118
-118
-119
-118
-118
-117
-116
-116
-116
-115
-115
-114
-112
-112
-111
-111
-109
-108
-107
-106
-105
-104
-102
-101
-99
-97
-95
-94
-92
-90
-89
-86
-85
-83
-81
-80
-79
-77
-74
-73
-72
-71
-69
-68
-67
-65
-64
-62
-62
-61
-60
-59
-57
-56
-55
-54
-53
-52
-51
-49
-48
-48
-46
-46
-46
-44
-43
-43
-42
-41
-41
-40
-40
-39
-40
-39
-39
-39
-39
-38
-37
-38
-37
-37
-36
-36
-36
-37
-36
-36
-36
-36
-36
-35
-36
-35
-36
-35
-34
-35
-34
-35
-35
-35
-34
-34
-33
-33
-34
-34
-34
-33
-33
-33
-33
-33
-34
-34
-33
-32
-32
-33
-34
-34
-35
-34
-35
-35
-34
-35
-35
-34
-34
-34
-34
-34
-34
-33
-33
-32
-32
-32
-33
-33
-32
-33
-32
-31
-32
-31
-32
-32
-32
-31
-32
-33
-33
-33
-32
-33
-32
-33
-33
-33
-32
-32
-32
-32
-32
-33
-33
-32
-33
-32
-32
-32
-31
-31
-31
-30
-31
-32
-32
-32
-31
-31
-30
-30
-31
-31
-31
-31
-31
-31
-31
-32
-31
-32
-31
-31
-31
-31
-31
-32
-31
-30
-30
-30
-30
-30
-30
-29
-29
-28
-28
-27
-27
-26
-25
-25
-25
-25
-24
-24
-24
-24
-24
-24
-25
-25
-25
-25
-25
-25
-26
-27
-26
-26
-27
-27
-27
-28
-28
-28
-29
-28
-28
-28
-28
-29
-29
-28
-29
-28
-29
-29
-30
-29
-28
-29
-29
-29
-29
-29
-29
-29
-29
-29
-30
-29
-30
-29
-30
-30
-30
-30
-30
-30
-30
-30
-30
-30
-31
-31
-31
-30
-31
-31
-32
-32
-32
-32
-32
-33
-33
-34
-35
-34
-35
-34
-34
-35
-35
-35
-35
-35
-35
-34
-34
-33
-34
-33
-33
-32
-32
-32
-31
-31
-30
-31
-31
-31
-30
-31
-31
-31
-31
-32
-32
-33
-33
-33
-34
-33
-34
-34
-34
-34
-34
-34
-34
-33
-34
-34
-33
-34
-33
-34
-34
-34
-34
-34
-34
-35
-34
-35
-36
-37
-36
-37
-37
-38
-39
-39
-39
-39
-39
-39
-40
-41
-41
-42
-41
-41
-41
-42
-42
-40
-39
-40
-39
-38
-37
-37
-36
-34
-33
-33
-32
-31
-30
-29
-28
-27
-26
-27
-25
-25
-23
-23
-22
-21
-22
-21
-21
-20
-20
-20
-19
-19
-20
-19
-19
-19
-19
-20
-20
-20
-20
-20
-21
-22
-23
-24
-26
-27
-29
-32
-34
-35
-38
-40
-42
-44
-46
-48
-50
-52
-53
-55
-56
-58
-59
-61
-62
-62
-62
-63
-64
-63
-64
-64
-64
-65
-65
-66
-66
-66
-66
-67
-67
-67
-68
-68
-67
-67
-68
-68
-68
-67
-67
-68
-67
-67
-67
-67
-67
-67
-67
-67
-67
-67
-69
-69
-70
-69
-70
-70
-71
-72
-72
-73
-72
-73
-73
-74
-74
-74
-73
-74
-73
-73
-73
-74
-73
-73
-72
-73
-73
-74
-74
-73
-73
-73
-73
-73
-73
-74
-74
-74
-74
-75
-76
-76
-76
-76
-76
-77
-76
-77
-78
-78
-79
-79
-80
-80
-81
-80
-80
-80
-80
-80
-81
-80
-81
-80
-80
-80
-80
-81
-81
-80
-80
-80
-81
-82
-82
-83
-82
-83
-84
-85
-84
-85
-85
-86
-86
-86
-87
-87
-87
-88
-87
-87
-88
-87
-87
-87
-87
-88
-87
-88
-88
-88
-87
-87
-86
-87
-87
-87
-87
-86
-86
-85
-85
-85
-84
-84
-83
-83
-82
-82
-80
-80
-78
-77
-76
-77
-77
-77
-77
-77
-76
-77
-77
-77
-79
-80
-79
-80
-81
-81
-82
-81
-81
-80
-78
-77
-75
-73
-70
-66
-61
-56
-51
-46
-40
-34
-28
-21
-13
-5
3
10
18
27
35
42
50
58
65
73
82
90
97
105
113
122
130
138
144
151
158
164
170
177
183
189
196
203
209
216
223
230
236
244
251
260
268
276
285
294
303
311
320
329
337
344
352
359
367
374
382
390
396
403
409
415
422
428
433
439
445
450
457
462
466
470
472
473
473
471
467
461
453
442
430
417
400
383
363
341
318
295
270
246
220
195
171
146
123
102
81
62
44
27
13
0
-12
-21
-29
-36
-44
-49
-54
-58
-62
-66
-70
-73
-76
-78
-80
-83
-86
-88
-90
-92
-93
-96
-98
-99
-101
-102
-102
-103
-105
-105
-106
-107
-107
-108
-108
-108
-109
-110
-111
-112
-113
-113
-115
-117
-118
-119
-120
-121
-122
-123
-125
-126
-127
-128
-127
-128
-129
-129
-130
-129
-129
-130
-130
-130
-130
-129
-129
-128
-127
-127
-126
-127
-126
-126
-125
-125
-124
-125
-125
-125
-125
-125
-126
-126
-127
-127
-128
-127
-128
-128
-130
-131
-131
-132
-132
-133
-134
-135
-135
-136
-136
-135
-135
-136
-137
-137
-136
-136
-136
-135
-135
-134
-133
-131
-130
-129
-129
-127
-126
-124
-123
-122
-121
-120
-119
-118
-117
-117
-115
-116
-116
-116
-116
-116
-116
-116
-117
-118
-118
-119
-118
-119
-119
-119
-119
-119
-119
-119
-119
-119
